76	76	3
13	13	3
8	12	2
24	32	1
120	120	1
96	96	3
30	30	2
28	29	2
130	130	2
41	41	4
75	84	1
2	2	6
33	33	1
63	63	2
10	51	2
80	81	3
42	51	1
109	109	2
42	42	5
110	111	2
118	120	1
20	21	1
121	121	4
42	44	1
25	25	1
18	18	3
74	74	3
115	115	1
106	106	1
96	117	1
65	65	1
80	80	3
24	24	2
104	104	2
53	53	4
86	86	1
27	57	1
110	124	1
105	106	3
54	54	5
10	11	1
95	124	1
113	113	3
33	34	2
20	20	3
112	112	3
123	124	2
56	56	4
43	45	2
87	87	2
122	122	3
23	24	1
24	25	1
91	92	2
4	4	5
47	49	1
19	19	2
62	63	2
15	16	1
43	44	1
50	50	2
41	43	1
108	108	1
89	89	3
82	102	2
52	52	3
62	89	2
57	57	2
89	90	1
102	102	1
94	94	4
11	12	1
84	84	6
40	40	2
97	97	1
61	61	2
23	32	1
50	51	2
110	110	2
15	42	1
29	29	4
31	32	2
46	46	1
80	104	1
7	7	2
107	108	1
47	47	2
81	81	2
73	74	1
131	131	2
121	125	1
58	59	1
19	65	1
82	83	2
59	64	1
92	92	1
111	111	3
27	28	1
44	44	1
39	39	2
82	90	1
84	85	2
26	26	1
78	78	3
60	60	1
125	126	1
31	31	3
38	38	1
6	9	1
25	38	1
21	59	1
98	98	1
65	83	1
0	110	1
59	60	2
8	11	1
15	15	3
28	101	1
100	100	1
99	99	1
41	96	1
6	6	3
16	58	1
8	9	1
114	114	2
51	51	1
114	115	3
83	83	2
16	16	2
132	132	1
0	111	1
124	125	2
27	27	1
94	107	1
77	77	1
75	75	2
0	1	2
66	117	1
1	53	1
48	48	2
3	3	2
12	12	2
88	88	1
98	99	1
40	41	1
15	34	1
105	105	1
105	107	3
18	28	1
68	68	2
83	84	1
39	60	1
125	125	1
61	65	1
55	55	1
53	132	1
54	55	1
30	80	1
56	57	1
97	98	1
107	107	2
32	32	1
58	58	4
83	127	2
95	95	2
108	109	1
33	78	1
21	32	2
97	117	1
73	73	1
34	34	1
99	101	1
18	32	1
11	11	1
63	64	1
61	64	1
68	70	1
5	5	1
89	101	1
51	52	1
3	5	2
103	103	1
105	112	1
29	30	1
19	31	1
98	100	1
67	67	1
28	28	1
16	91	1
109	110	1
44	51	1
99	100	1
9	9	3
12	51	1
130	131	1
127	127	1
79	79	1
40	44	1
8	8	1
0	0	1
18	19	1
3	4	1
75	76	1
94	95	1
107	109	1
46	47	1
105	114	1
52	53	1
62	64	1
