144	145	1
58	62	2
115	115	3
50	133	1
62	64	1
121	126	1
11	11	4
75	76	2
112	112	1
20	63	1
48	48	1
45	45	1
27	27	1
84	84	1
40	40	2
69	69	2
126	127	1
144	147	1
37	37	1
46	101	1
38	45	1
36	36	3
22	25	1
114	114	3
108	114	1
25	25	2
104	104	5
148	148	3
87	87	2
13	13	6
4	4	1
105	141	1
112	113	1
52	52	3
99	99	1
41	41	1
28	28	5
49	49	2
34	34	1
73	73	1
62	62	2
134	134	4
43	57	1
85	86	1
24	25	1
25	26	2
71	73	2
14	95	1
123	139	1
105	119	1
77	78	3
83	104	1
98	100	1
73	95	1
3	3	3
39	40	3
135	136	1
100	100	2
9	80	1
44	73	1
134	137	2
107	107	2
62	63	1
80	80	2
40	41	1
33	83	1
97	116	1
83	101	1
9	9	3
147	147	1
98	98	3
45	46	2
68	140	1
102	102	1
4	53	2
141	143	1
71	71	1
12	16	1
17	17	3
21	21	1
35	43	1
23	23	2
83	110	1
48	49	1
29	29	2
110	110	1
18	18	3
106	107	2
43	66	1
90	141	1
150	152	1
114	115	1
130	130	1
116	117	2
15	15	4
106	106	1
66	146	1
56	57	1
13	14	1
100	102	1
7	7	1
138	138	1
109	109	1
98	117	1
24	24	2
136	136	1
126	126	2
63	70	1
39	39	2
133	133	2
35	35	1
145	145	1
82	82	1
104	108	1
118	118	2
124	129	1
62	147	1
43	43	1
33	33	1
106	111	1
103	108	1
149	150	1
35	134	2
53	53	1
8	8	2
67	71	1
78	78	1
22	22	1
134	151	1
65	75	1
12	81	2
154	154	1
10	135	1
118	131	1
68	68	1
57	58	1
16	141	1
35	74	1
115	120	1
137	137	1
85	85	1
113	126	1
38	38	2
16	16	2
143	144	1
97	144	1
135	135	1
127	137	1
97	108	2
153	154	2
118	123	1
120	140	1
44	44	1
41	43	1
124	124	1
145	150	1
108	108	1
141	141	1
42	42	2
3	35	1
57	57	2
92	152	1
4	7	1
68	102	1
121	122	1
44	45	1
16	118	2
12	12	2
31	32	1
152	152	1
83	84	1
70	105	1
56	56	1
5	8	1
42	57	1
14	14	1
30	30	1
28	44	1
53	83	1
129	129	1
150	150	1
69	112	1
8	17	1
142	142	1
109	142	2
103	109	1
55	56	1
20	21	1
31	31	1
66	67	1
54	54	1
44	46	1
28	33	1
84	140	1
83	139	1
90	109	1
10	10	1
36	37	1
82	83	1
96	96	1
32	32	1
104	110	1
127	127	1
103	104	1
