134	134	2
60	85	1
24	24	2
22	22	2
25	25	6
121	126	1
60	61	3
70	71	2
60	60	3
5	5	3
45	45	3
16	63	1
29	29	1
15	15	1
55	55	2
118	119	2
124	124	2
5	28	1
112	112	1
126	126	2
49	49	2
23	57	1
42	59	3
36	36	1
49	71	1
44	44	3
56	56	2
64	64	2
87	87	1
125	125	2
77	79	2
111	115	1
42	43	1
55	56	1
50	50	3
57	85	1
75	75	3
104	104	6
85	85	1
87	110	1
76	76	3
23	23	3
58	85	1
35	35	2
33	34	1
2	2	2
59	62	1
28	29	1
86	88	1
131	131	2
43	45	1
114	127	1
6	7	3
67	77	1
84	117	1
129	130	2
84	95	1
9	10	3
71	72	1
123	123	1
120	123	1
73	73	2
118	123	1
32	35	2
124	128	1
30	30	4
77	122	1
26	27	1
96	96	3
85	92	1
71	98	2
21	22	2
12	12	1
89	89	1
13	13	3
43	43	2
11	27	1
123	131	2
4	6	1
28	33	1
54	54	3
125	126	1
53	96	1
118	118	3
57	79	1
99	100	1
93	94	2
33	33	3
107	107	2
106	106	2
19	20	1
63	95	2
7	7	1
6	35	1
84	85	1
102	102	1
61	61	1
77	82	1
105	105	2
109	111	1
18	24	1
58	58	1
123	125	1
123	126	1
11	11	2
114	114	1
14	14	2
59	59	2
94	97	1
20	20	2
46	46	1
48	50	1
61	82	1
3	3	3
5	10	1
21	21	1
114	115	2
21	62	1
32	32	1
122	122	3
26	26	1
96	116	1
121	121	2
113	114	1
24	25	3
19	19	2
71	71	1
82	85	1
106	122	2
132	132	1
130	130	3
95	95	1
129	131	1
70	70	2
56	57	1
10	10	1
111	111	1
97	97	1
115	115	2
108	115	1
126	134	1
7	34	1
129	129	2
84	84	1
63	72	1
52	119	2
27	38	1
48	48	1
91	91	1
8	8	1
56	100	1
3	4	2
28	28	2
62	63	1
115	123	1
96	98	1
61	62	1
126	131	1
5	63	1
31	31	3
97	98	1
109	110	1
64	65	1
16	43	1
104	126	1
117	117	1
72	72	1
61	66	1
10	27	1
18	19	1
80	80	3
1	1	3
103	103	1
29	30	1
68	68	1
99	104	1
0	0	1
52	109	1
120	121	1
94	94	2
116	117	1
108	109	1
100	106	1
35	97	1
52	58	1
62	62	1
24	26	1
74	74	1
104	121	1
16	16	1
27	75	1
112	114	1
