44	44	4
13	13	5
102	121	1
116	116	1
107	170	1
101	101	3
156	156	2
86	106	1
70	80	2
112	112	1
23	23	1
99	103	1
8	8	1
6	6	1
146	146	2
19	39	3
41	41	1
54	118	1
177	177	3
7	8	1
127	127	4
54	126	1
7	23	3
2	11	1
22	22	1
126	126	2
153	153	4
37	95	1
26	28	2
102	115	2
39	39	6
43	44	1
149	149	1
129	129	4
150	150	1
178	178	1
16	19	1
40	40	2
56	68	1
159	159	6
92	101	1
67	68	1
28	37	1
22	23	1
174	178	3
2	2	3
79	127	1
84	84	1
73	111	1
152	154	1
72	149	1
55	55	1
109	110	1
107	108	3
171	171	1
160	160	3
15	22	2
60	62	1
128	146	1
168	168	2
36	36	2
157	166	1
170	170	2
60	60	1
166	166	2
119	120	3
13	19	1
7	91	1
77	78	1
25	100	1
91	92	1
9	9	2
100	170	1
155	155	1
134	134	7
93	93	1
173	173	1
154	155	4
105	148	1
50	88	1
26	62	2
71	71	1
128	147	1
109	109	3
4	4	2
141	145	1
62	83	1
104	104	1
61	61	2
179	179	1
34	35	1
51	51	1
52	99	2
78	78	2
100	102	1
58	92	2
20	33	1
54	54	2
3	7	1
43	43	4
9	19	1
1	1	1
111	111	4
8	11	1
89	89	2
91	91	1
37	37	2
52	52	1
25	25	1
31	31	2
53	142	1
85	85	1
33	33	3
54	167	2
100	100	1
128	128	1
113	113	2
143	143	2
14	14	1
175	176	1
76	76	1
157	157	1
25	26	2
135	146	1
16	35	2
57	58	1
49	100	1
7	7	1
0	0	1
121	128	1
29	30	1
180	180	1
121	121	1
95	96	1
115	115	2
174	174	1
57	170	2
124	153	1
74	74	1
49	99	1
65	65	1
164	164	3
99	146	1
60	61	2
117	117	1
103	119	1
158	159	1
94	179	3
152	152	2
166	167	1
54	80	1
3	3	1
91	120	1
35	35	1
114	114	1
133	133	1
73	73	1
81	81	1
116	117	2
147	148	1
137	137	1
106	114	1
140	140	1
94	94	1
129	130	1
126	152	1
83	85	1
61	169	1
2	6	1
45	45	2
16	18	1
27	27	2
26	38	1
17	18	1
130	156	1
61	70	1
3	5	2
15	15	1
168	171	1
71	76	1
53	53	1
93	142	2
135	135	1
41	42	1
40	72	1
36	38	1
134	145	1
113	114	2
23	85	1
42	42	1
7	10	1
103	103	1
149	150	1
84	107	1
101	102	1
36	37	1
20	35	1
31	66	1
8	15	1
54	168	1
3	4	1
93	94	1
65	103	1
145	145	1
151	151	1
58	170	1
106	106	1
145	146	1
124	124	2
34	34	2
130	132	1
12	13	2
138	149	1
97	97	1
37	38	1
80	94	1
1	54	1
102	118	1
168	178	1
37	86	1
56	57	1
84	91	1
107	107	1
