47	50	1
24	25	1
84	113	1
23	25	2
34	41	1
121	121	2
132	143	2
66	72	2
133	138	1
68	68	3
128	128	1
100	100	5
79	79	3
130	131	2
86	120	1
49	51	1
44	44	3
73	73	4
156	156	1
27	27	2
75	75	3
54	55	1
123	123	2
103	103	1
146	146	3
144	144	4
157	157	5
99	131	2
99	99	2
45	45	3
28	28	2
11	12	1
18	69	1
65	65	1
118	118	1
50	50	3
0	0	2
13	14	2
25	25	1
134	134	3
4	6	1
26	30	1
19	22	1
5	5	1
155	155	2
63	63	1
120	121	2
48	93	1
119	120	1
97	97	6
108	110	2
131	134	1
125	147	2
122	127	1
62	68	1
102	113	1
113	114	2
7	7	2
36	36	2
2	4	3
139	139	2
82	153	1
69	70	1
46	47	2
102	107	1
105	105	2
158	158	1
150	151	1
125	126	3
88	119	1
9	9	1
30	30	3
101	101	5
88	96	2
19	24	1
2	2	4
70	70	2
110	144	1
49	102	2
131	144	1
24	26	2
101	102	1
16	32	1
30	33	1
106	106	3
16	16	1
67	80	1
104	105	2
112	112	2
6	6	2
77	77	2
126	151	2
78	96	1
3	3	2
19	19	1
31	34	1
51	52	2
152	158	1
34	54	1
71	71	1
64	64	2
41	42	1
78	138	1
36	37	1
22	35	1
112	153	1
122	122	2
90	90	3
64	67	1
13	13	1
134	140	1
86	87	1
38	39	2
23	23	1
33	35	3
121	129	1
151	151	1
73	75	1
39	41	1
56	56	1
103	104	2
26	27	1
88	90	1
69	69	1
142	142	2
115	116	1
135	136	1
35	35	1
103	105	1
10	10	1
106	108	1
103	106	1
132	132	1
87	97	1
14	15	2
46	46	1
147	147	1
67	71	1
26	26	1
75	76	1
79	138	2
129	130	3
17	135	1
118	145	1
51	51	1
138	139	2
31	31	4
30	127	2
98	101	1
5	65	1
19	137	1
43	43	1
128	130	1
105	108	1
116	116	2
114	115	1
102	102	1
129	132	1
45	50	1
48	48	2
87	96	1
29	29	3
28	44	1
92	92	1
129	129	1
104	104	1
30	137	1
109	119	1
48	49	1
104	119	1
39	39	1
89	89	1
15	21	1
19	21	2
133	134	1
137	138	1
138	138	1
12	28	1
108	108	1
111	119	1
94	94	2
55	55	2
100	101	2
4	4	1
137	143	2
41	41	2
155	157	3
23	24	1
136	137	1
71	108	1
131	132	1
12	14	3
48	92	1
130	130	1
154	157	1
136	138	1
27	30	1
147	150	1
138	141	1
15	44	1
28	30	1
32	133	1
106	134	1
97	99	1
77	141	1
14	16	1
33	112	1
17	136	1
98	129	1
85	97	1
133	136	1
64	125	1
