58	65	1
120	120	2
126	126	2
105	106	1
47	47	1
32	33	1
105	105	2
81	82	3
114	115	1
76	76	3
24	24	3
143	143	2
25	26	2
64	70	2
50	61	1
79	81	1
58	58	5
120	121	2
28	30	1
82	103	2
131	131	1
67	67	1
91	119	2
70	77	2
122	123	1
22	22	7
135	135	2
15	15	4
38	38	2
59	69	1
73	73	2
117	117	3
70	76	2
12	12	2
69	69	3
0	2	1
24	26	3
21	21	1
119	119	1
134	134	4
134	135	2
133	133	3
81	81	2
118	126	1
61	77	2
116	129	2
84	84	1
41	41	1
125	125	2
79	79	2
90	109	1
109	109	1
43	84	1
19	19	2
9	9	1
74	74	7
58	96	1
65	66	2
107	107	1
111	111	3
35	35	1
88	114	1
2	41	1
17	40	1
101	101	3
26	109	1
31	40	2
68	75	1
139	139	1
64	64	1
132	132	1
136	136	1
73	78	1
82	102	2
138	138	1
55	55	1
137	138	1
35	36	1
134	140	1
101	102	1
54	62	1
49	49	2
133	134	1
131	134	1
83	122	1
6	47	1
105	116	1
129	129	4
124	125	2
115	129	1
57	92	2
2	2	1
10	10	1
29	29	5
59	97	1
127	129	1
124	124	2
76	86	2
29	30	2
118	118	1
89	127	1
78	80	1
106	106	1
16	16	1
33	33	1
119	125	1
14	15	1
94	95	1
62	62	1
112	112	4
57	66	1
51	58	1
42	42	3
56	67	1
129	130	1
28	28	2
96	96	2
13	16	1
6	6	1
62	70	1
72	72	1
36	36	3
20	21	1
142	142	2
40	43	1
91	114	1
94	107	2
137	137	1
98	99	1
85	86	1
15	26	1
66	66	2
120	123	1
88	127	1
27	28	1
79	123	1
90	90	4
61	61	3
99	100	2
16	17	1
8	10	1
100	141	1
37	37	1
104	105	2
80	82	1
26	87	1
1	13	1
79	80	1
31	140	1
118	119	1
56	56	1
32	37	1
11	74	1
95	95	1
137	139	1
123	123	3
68	68	1
26	26	1
17	17	2
52	52	1
50	51	2
10	96	2
91	91	1
66	69	1
120	141	1
5	5	1
22	25	1
30	49	1
84	85	1
97	97	1
70	70	2
47	48	1
39	143	1
25	25	1
141	145	1
56	137	1
102	102	2
0	58	1
125	126	1
136	138	1
116	116	1
18	18	1
123	124	1
31	36	1
130	131	1
97	122	1
59	59	2
36	40	1
1	2	1
2	42	1
60	105	1
60	60	1
17	27	1
116	126	1
29	49	1
83	108	2
30	30	1
78	78	1
90	91	2
128	128	1
13	14	1
63	64	1
145	145	1
114	117	1
41	42	1
64	65	1
17	22	1
114	114	1
1	11	1
55	56	1
36	37	1
145	146	1
51	52	1
88	88	1
82	101	1
