20	20	2
40	42	2
71	73	1
32	32	3
95	95	5
57	57	3
12	13	4
48	48	3
45	45	4
108	109	2
23	23	1
101	101	1
64	64	6
133	133	5
7	11	1
102	103	1
121	122	1
41	42	1
70	116	2
15	15	3
6	11	2
83	95	1
65	65	3
25	26	1
7	7	1
120	120	3
130	130	1
132	132	3
34	34	2
25	92	1
23	26	2
24	24	3
5	5	2
63	63	3
16	37	1
37	92	1
29	32	1
17	17	5
80	80	2
87	87	4
39	39	6
29	29	3
56	56	2
3	3	1
68	69	1
16	16	2
74	74	3
93	93	3
41	43	1
112	132	1
43	43	2
87	88	3
98	98	1
22	99	1
55	55	2
120	129	2
125	125	1
61	61	3
67	68	2
110	110	2
116	116	4
90	90	2
12	79	1
81	82	1
14	14	3
107	107	2
32	35	1
78	78	1
32	43	1
71	71	1
118	118	5
4	5	3
92	92	3
4	13	2
23	49	1
73	73	2
74	75	1
108	108	5
83	85	2
11	114	2
127	127	1
96	96	1
1	1	1
78	97	1
22	36	1
28	28	2
82	132	1
31	92	1
15	113	1
45	46	1
21	22	1
1	8	1
12	12	2
21	86	2
83	83	1
27	35	1
84	106	1
85	86	2
124	126	2
81	81	3
101	102	1
115	115	4
9	9	2
76	76	3
126	126	2
105	106	2
88	88	1
35	35	1
18	19	1
11	11	3
123	123	2
62	62	2
78	93	2
127	128	1
106	106	1
30	30	2
36	42	1
46	46	4
87	106	2
44	87	1
89	104	1
77	78	1
77	77	2
24	91	1
92	109	1
126	127	1
40	41	1
0	0	1
111	111	1
26	38	1
42	42	1
23	24	1
23	44	1
82	82	1
46	102	1
26	34	1
4	4	1
79	81	1
50	55	2
110	115	1
134	134	1
31	36	1
97	100	1
44	44	3
58	108	1
8	10	1
20	91	1
19	19	3
2	8	2
31	32	1
1	63	1
44	45	1
84	84	1
104	104	1
22	23	1
21	101	1
0	78	1
6	60	1
70	70	1
60	60	2
91	92	1
97	97	1
104	107	1
15	84	1
122	122	1
8	8	2
20	43	1
4	16	1
72	72	1
66	66	2
86	86	1
79	79	2
13	13	2
92	105	1
90	91	1
41	41	1
33	33	2
112	112	2
67	72	1
72	73	2
100	101	1
69	69	1
50	50	1
8	12	1
114	128	1
30	41	1
27	105	1
26	27	1
105	105	1
59	59	3
63	64	1
75	103	1
2	134	1
78	80	1
60	61	1
14	113	1
20	103	1
105	110	2
18	58	1
47	47	1
121	121	1
22	22	1
3	67	1
67	112	1
80	84	1
30	38	1
5	40	1
6	123	1
19	92	1
46	47	1
112	114	1
9	47	1
21	49	1
115	116	1
96	98	1
116	132	1
39	40	1
96	99	1
24	26	1
100	100	1
79	80	1
18	18	1
97	104	1
23	42	1
40	40	1
56	106	1
