103	167	1
147	148	2
132	133	3
56	56	3
188	188	2
15	15	3
195	195	1
9	9	3
148	149	1
78	95	1
153	162	1
115	118	1
70	74	1
142	142	4
159	166	1
133	133	1
182	182	2
120	122	1
69	69	4
117	172	1
189	189	3
171	171	3
173	173	2
157	172	2
80	81	1
12	12	3
129	129	2
96	96	1
185	185	1
151	151	4
108	110	1
164	176	1
23	29	1
104	105	1
192	192	6
4	5	2
73	112	1
20	20	2
107	111	2
73	73	3
30	81	1
25	25	1
97	97	4
159	171	1
183	183	4
183	184	1
139	139	2
107	108	1
6	6	1
85	97	1
68	76	2
147	147	1
24	34	1
159	159	3
136	136	2
179	179	1
125	125	3
72	72	2
181	181	1
8	8	1
75	75	2
104	104	2
50	50	2
13	14	1
38	38	3
105	183	1
140	140	1
169	171	1
52	53	2
39	39	2
10	10	2
76	76	2
121	121	1
14	14	2
119	160	1
4	20	2
3	3	1
21	21	2
164	165	1
177	177	1
44	184	1
163	181	2
1	105	1
72	133	1
130	137	2
42	42	3
49	49	2
23	23	2
57	57	4
11	11	3
66	67	1
72	161	1
124	125	2
20	117	2
29	80	1
132	132	1
96	97	1
120	120	2
124	124	1
187	187	2
59	59	2
179	181	1
96	176	1
47	121	1
68	68	2
174	176	1
54	67	1
126	126	5
122	122	2
11	15	1
107	149	1
107	168	1
113	118	1
50	129	1
66	146	1
172	172	1
49	129	1
194	194	4
44	58	1
52	142	1
47	47	2
121	122	1
178	178	2
47	48	1
5	5	1
69	70	2
105	106	1
40	52	1
113	113	1
106	106	1
175	175	1
34	34	1
81	81	1
130	130	3
158	163	1
141	150	1
167	168	1
44	117	1
36	75	1
150	161	1
24	24	1
142	143	1
156	156	3
123	123	1
141	141	3
160	160	1
58	138	1
74	76	1
15	17	1
52	134	3
164	164	1
126	127	1
109	159	1
151	152	1
119	179	1
59	156	1
178	179	1
28	29	1
17	17	1
55	55	1
171	185	1
186	186	1
73	96	1
162	171	1
20	28	1
36	126	1
56	183	1
167	169	1
23	35	1
179	180	1
125	160	1
19	19	1
8	10	1
2	7	1
153	153	1
122	123	1
57	58	1
190	190	1
193	193	1
9	14	1
52	52	3
22	58	1
188	189	1
30	31	2
8	12	1
63	108	1
54	70	1
8	23	2
144	148	1
46	46	1
170	170	1
119	119	2
22	24	1
77	77	1
87	87	1
1	70	1
127	127	1
41	41	1
191	191	1
53	55	1
22	22	1
62	85	1
45	46	1
67	67	2
68	81	1
144	144	1
70	127	1
108	108	1
46	47	1
5	6	3
65	65	1
160	189	1
118	120	1
134	134	1
26	29	1
185	192	1
44	44	1
112	113	1
99	100	1
107	109	1
167	167	1
48	49	2
44	129	1
192	193	1
165	166	1
152	153	1
16	17	1
115	175	1
51	51	1
13	13	1
104	106	1
51	54	1
43	182	1
128	128	2
71	78	1
155	155	3
118	119	1
0	0	1
89	98	1
82	83	1
148	148	1
185	187	1
98	98	1
27	59	1
33	43	1
62	63	1
10	15	1
0	33	1
46	123	1
45	47	1
23	59	1
38	39	1
152	152	1
73	86	1
45	45	1
61	83	1
4	4	1
186	188	1
6	7	2
89	89	1
176	176	1
29	59	1
1	3	1
104	165	1
143	144	1
129	171	1
4	121	1
191	192	1
58	59	1
20	30	1
3	8	1
58	120	1
187	188	1
88	88	1
43	44	1
36	36	1
79	79	1
174	175	1
63	63	1
18	19	1
186	193	1
171	172	1
18	18	1
58	58	1
