24	29	1
111	111	2
66	77	1
93	93	1
112	112	5
115	115	4
87	92	1
6	11	1
32	32	3
11	11	2
31	31	2
95	129	1
124	126	2
57	58	1
61	61	1
108	110	1
84	106	1
6	6	3
72	72	4
75	75	2
26	26	5
36	36	1
29	29	1
17	17	2
108	108	1
66	69	2
96	113	1
66	67	1
2	2	2
19	20	1
49	79	1
73	73	8
53	53	4
52	53	1
78	78	2
38	38	1
71	71	3
93	94	2
77	80	1
119	119	4
105	130	1
16	16	2
69	105	2
114	115	1
106	106	4
59	61	1
78	105	1
1	19	1
103	103	2
111	112	1
91	92	1
62	62	2
16	17	2
50	50	1
110	110	2
77	77	4
128	128	1
9	9	2
74	74	2
14	14	3
8	8	1
67	67	4
7	7	1
82	83	1
11	13	3
113	114	1
123	124	1
104	104	1
126	127	1
20	20	4
101	101	3
30	30	6
28	28	1
100	101	2
19	19	1
27	27	2
19	45	1
80	80	3
127	127	2
122	122	1
105	105	2
24	24	1
5	7	1
66	66	1
87	110	1
3	3	2
114	114	1
125	125	1
25	25	3
99	99	2
102	102	2
102	103	3
86	92	1
108	112	1
96	115	1
34	34	2
132	132	1
13	13	3
126	126	2
47	48	1
59	59	2
112	113	2
87	87	2
130	130	2
30	31	1
96	96	2
34	108	1
64	66	1
45	95	1
100	102	1
128	129	2
53	55	1
68	68	1
6	102	1
123	123	1
18	30	1
36	110	1
3	4	2
99	101	1
122	128	1
129	129	2
121	121	3
10	11	1
89	89	1
5	120	1
22	22	1
124	124	2
90	90	2
134	134	3
89	106	1
79	79	2
32	34	1
128	130	1
92	92	1
31	32	1
6	130	1
12	12	1
59	113	2
21	22	1
16	62	1
37	37	1
0	1	1
85	107	1
47	47	1
14	17	1
0	3	1
2	4	1
76	76	2
88	88	3
29	30	1
48	49	1
78	80	1
81	81	4
86	86	1
46	49	1
98	98	1
23	24	1
55	55	1
98	105	1
8	9	1
13	14	1
121	122	1
26	27	1
32	109	1
132	133	1
4	5	1
100	100	2
64	64	1
9	10	1
63	63	1
86	87	1
101	131	1
97	97	2
0	0	1
91	104	1
1	2	1
65	68	1
124	125	1
60	62	1
16	23	1
107	107	1
55	56	2
131	131	1
69	91	1
125	126	1
4	4	2
21	21	1
94	94	1
123	129	1
109	109	1
45	52	1
24	25	1
110	111	1
46	53	1
