26	64	1
187	188	2
14	14	1
38	38	1
106	187	1
29	29	1
116	116	2
99	118	1
68	68	1
94	95	1
44	44	2
113	113	3
118	120	1
29	31	1
158	170	2
41	43	1
11	12	1
1	1	2
70	70	1
172	172	2
143	144	3
0	1	1
187	187	3
0	4	2
99	100	1
131	131	2
6	7	2
181	181	2
89	90	1
89	89	3
41	41	1
136	137	1
194	194	3
103	103	3
66	68	1
33	37	2
164	164	2
159	159	3
17	28	1
196	196	1
107	107	1
102	159	1
158	158	1
41	66	1
95	145	2
134	136	2
96	96	1
43	159	1
26	26	1
3	3	1
123	123	3
98	98	2
7	7	2
32	33	1
41	183	1
24	25	2
163	163	2
71	72	1
8	80	1
133	183	2
26	30	1
130	130	2
147	147	1
188	188	1
146	157	2
5	8	3
108	108	1
100	100	3
186	186	1
174	176	1
161	161	2
102	175	1
15	15	3
183	183	1
62	72	1
27	29	1
144	144	1
109	134	1
40	40	2
83	83	1
184	184	1
59	60	2
30	35	1
135	137	2
80	80	4
180	182	1
128	128	1
26	61	1
16	16	1
147	166	1
66	66	1
38	137	1
33	132	1
165	173	1
149	164	1
71	71	1
34	65	1
101	135	3
44	51	1
31	31	1
110	144	1
129	134	2
85	85	1
137	137	1
80	81	1
5	7	1
166	166	1
96	146	1
177	177	3
11	11	2
53	53	1
11	134	1
35	35	1
1	2	1
128	130	2
162	162	1
87	193	3
18	18	2
32	89	1
6	18	1
75	75	1
122	122	1
167	168	1
102	165	1
191	192	1
98	99	1
24	63	2
122	193	1
28	28	3
184	185	1
112	112	1
153	158	3
56	57	3
41	45	1
184	197	1
150	150	1
84	138	1
149	149	1
106	106	3
154	154	1
55	104	1
6	97	1
138	139	1
37	37	3
100	101	2
188	191	1
178	178	1
95	116	1
20	21	1
85	135	1
3	21	1
126	127	2
34	80	1
151	151	3
27	27	1
102	102	1
34	34	2
130	133	1
47	47	1
49	49	2
15	16	1
79	79	2
154	189	2
124	134	1
15	185	1
15	49	1
10	119	1
40	42	1
18	20	1
39	45	1
0	62	1
159	190	1
60	60	3
66	106	1
118	118	1
176	176	2
6	6	2
174	174	1
155	160	1
64	64	2
22	85	1
165	165	1
108	109	1
12	124	1
59	59	1
166	167	1
165	167	1
44	130	1
180	181	1
156	156	1
32	67	1
118	158	1
95	113	1
117	117	1
94	96	1
44	45	1
155	155	1
135	135	2
0	0	5
120	122	1
106	112	1
170	182	1
39	115	1
26	34	1
68	75	1
165	166	1
157	159	1
179	179	1
48	49	2
110	110	1
33	38	1
100	179	1
155	169	2
59	62	1
5	5	1
17	118	2
171	181	1
157	157	1
76	76	2
162	167	1
51	51	1
74	74	1
105	136	1
191	191	1
43	43	1
27	82	1
183	184	1
8	9	1
54	138	1
83	143	1
178	179	1
68	110	1
104	105	1
154	155	1
168	178	1
56	58	1
97	176	1
55	55	1
80	84	1
190	190	1
144	145	1
119	144	1
145	145	1
57	195	1
45	45	1
50	50	1
35	54	1
157	174	1
175	175	1
22	133	1
16	56	1
94	190	1
59	71	1
11	72	1
195	195	1
27	30	1
196	197	1
167	167	1
112	113	1
25	25	1
