28	29	3
46	50	1
62	62	3
30	30	6
71	71	4
30	34	1
43	46	1
36	98	1
105	114	1
39	39	11
73	73	2
42	49	1
60	62	1
103	103	3
21	67	1
75	76	2
32	32	2
25	31	1
84	88	2
91	91	4
82	87	1
31	31	3
25	34	1
90	90	1
91	95	1
47	51	1
64	65	1
92	93	3
70	71	3
55	57	3
104	106	1
60	60	4
40	41	1
113	113	5
52	91	2
58	58	3
51	51	5
88	112	1
107	107	5
50	50	6
63	63	3
110	113	2
36	36	1
29	29	5
40	40	5
86	86	1
25	25	3
58	59	1
51	75	1
88	88	2
66	67	1
46	46	2
26	27	1
38	39	2
22	22	2
60	61	1
76	76	2
44	44	1
20	25	1
77	77	1
39	50	1
83	83	2
55	56	1
52	59	1
95	96	1
109	109	2
39	95	1
79	101	1
100	100	3
49	68	1
53	53	2
111	111	2
96	96	2
101	101	3
88	106	1
24	55	1
98	98	5
95	95	1
59	71	1
25	77	1
104	105	2
63	90	2
28	37	1
106	106	6
31	98	1
59	69	1
28	28	5
54	74	1
29	30	1
105	106	1
94	94	1
41	42	1
36	37	1
78	79	2
82	85	1
74	74	2
99	99	6
43	44	1
47	47	6
108	110	1
99	101	1
112	112	5
54	56	1
32	35	1
69	71	1
26	26	1
102	103	1
54	54	1
105	105	5
33	41	1
83	85	1
37	37	3
47	48	1
24	24	2
34	35	1
104	104	1
21	21	4
31	55	3
65	65	3
93	94	3
77	86	1
73	80	1
43	43	3
81	81	3
83	90	1
68	90	1
85	86	1
76	77	2
33	33	1
101	108	1
62	64	2
35	66	1
52	56	1
19	19	1
71	80	1
49	96	1
56	56	1
22	23	2
92	102	1
42	42	4
69	69	2
52	53	2
81	102	1
38	38	3
49	49	3
98	99	1
66	70	1
38	60	1
79	79	1
72	97	1
49	51	1
80	80	1
48	48	2
110	110	3
86	87	1
22	32	1
54	67	1
83	106	1
62	70	1
59	77	1
104	107	1
68	71	1
59	93	1
82	82	7
92	97	2
35	35	2
23	46	1
47	61	1
27	28	1
47	114	1
82	86	1
20	41	1
68	68	2
55	55	1
23	23	1
44	45	1
29	32	1
85	85	1
34	34	2
73	75	1
86	90	2
31	70	1
41	41	1
28	30	1
66	66	1
50	100	1
100	108	1
81	83	1
59	59	1
65	66	1
77	78	1
59	67	1
60	107	1
35	36	1
112	113	2
38	49	1
38	72	1
20	21	1
73	74	1
70	87	1
54	66	1
27	29	1
70	108	1
76	101	1
71	72	3
41	78	1
34	54	1
32	40	1
70	79	1
61	80	1
39	45	1
34	65	1
54	57	1
20	73	1
21	114	2
115	115	1
45	45	1
76	84	1
45	48	1
50	51	1
114	114	1
90	103	1
28	62	1
83	84	1
25	40	1
57	59	1
27	27	1
87	87	1
