55	55	2
26	26	3
52	56	2
4	119	1
93	93	3
111	112	1
105	105	2
59	60	1
52	53	1
116	116	2
67	68	2
102	102	2
48	125	2
79	80	2
110	110	2
10	10	3
49	49	7
80	80	3
65	65	2
42	102	1
103	103	1
46	46	2
47	91	1
87	87	3
126	127	1
11	11	2
28	28	3
100	100	3
118	118	1
86	86	1
18	18	8
52	52	3
10	11	1
107	107	1
24	24	3
56	56	5
22	25	1
3	4	1
84	84	4
41	41	1
6	6	5
44	45	4
53	54	1
24	41	2
68	107	1
26	122	1
108	108	4
71	71	1
89	89	7
67	67	3
15	18	1
44	81	1
27	28	1
43	43	1
78	118	1
0	1	1
112	112	4
102	103	1
118	120	1
96	96	2
51	52	4
14	15	4
33	33	2
6	107	1
57	57	3
93	94	2
81	82	1
94	95	2
68	68	3
121	121	1
88	88	1
100	101	1
76	76	8
23	23	1
27	27	3
38	40	1
1	112	1
42	43	2
117	117	2
15	15	2
124	124	5
69	70	1
88	94	1
95	98	1
71	72	2
16	16	2
98	98	2
92	92	2
104	105	1
91	94	2
28	29	1
104	104	1
54	54	5
13	13	8
120	120	5
2	2	2
46	47	1
111	111	4
132	133	1
104	106	1
51	51	2
97	98	2
52	117	1
106	106	2
26	31	1
47	47	1
63	65	1
12	122	1
75	100	1
108	109	1
113	119	3
105	109	1
71	98	1
42	42	2
109	117	1
45	123	1
100	123	1
83	115	1
78	78	1
109	116	1
39	39	2
81	122	1
85	101	1
31	31	2
90	90	1
92	94	1
73	75	1
17	17	1
5	5	2
29	128	1
14	14	2
105	106	2
66	66	1
132	132	2
70	71	2
89	97	1
39	40	3
98	99	3
53	68	1
70	70	2
101	102	1
125	125	3
80	81	1
85	99	1
95	95	1
42	104	1
59	59	2
107	117	1
127	127	1
113	113	1
114	114	1
8	62	1
69	69	3
15	82	1
101	101	1
123	123	2
48	130	1
86	95	1
9	12	1
16	116	2
122	122	1
84	85	1
12	12	1
92	106	1
72	72	2
40	40	1
53	53	1
13	28	1
125	127	1
26	27	1
1	1	1
17	107	1
95	96	1
63	63	1
131	131	1
19	20	1
3	3	1
94	94	1
97	97	1
48	48	1
123	124	1
85	85	1
24	25	1
81	81	1
64	64	2
89	93	1
106	108	1
48	51	1
30	45	1
103	105	1
83	83	1
26	77	1
99	99	1
55	115	1
22	23	1
10	94	1
58	58	2
29	29	1
