21	21	4
87	87	1
5	5	1
39	40	1
15	41	1
11	23	1
129	129	7
68	68	4
96	96	3
130	130	4
55	56	1
135	135	5
57	57	3
129	131	3
51	52	1
2	4	2
72	96	1
36	36	2
41	53	1
90	90	2
53	53	4
28	28	5
125	125	5
8	8	5
67	124	1
95	95	4
86	86	2
117	119	2
0	6	1
27	27	4
138	138	1
137	137	2
74	76	1
142	143	2
78	78	2
29	30	1
19	19	1
74	80	2
4	31	1
13	14	2
104	104	2
141	141	3
69	69	5
134	134	6
132	139	1
84	84	4
1	1	2
123	123	9
15	15	1
13	53	1
60	60	2
94	113	1
131	135	1
67	72	1
124	127	1
11	11	4
24	24	1
32	41	1
31	33	2
95	131	1
132	132	4
67	67	2
99	99	4
53	86	1
133	133	6
14	14	2
74	79	2
26	26	4
25	25	2
122	123	1
136	136	3
2	2	2
73	73	3
79	79	3
49	49	6
109	123	1
42	42	3
72	72	2
47	55	1
138	139	2
142	142	6
144	144	3
59	60	1
27	34	2
94	95	2
110	110	2
128	128	4
48	48	3
61	132	1
96	107	1
105	125	1
39	39	1
12	38	1
109	124	1
143	143	3
20	21	3
33	41	1
53	56	1
32	32	2
63	63	4
21	49	2
70	80	1
43	43	1
70	121	1
30	48	2
65	65	2
94	110	1
75	104	1
33	34	2
36	37	5
80	80	2
111	111	2
2	24	1
38	39	2
106	106	6
74	74	1
129	130	2
61	61	4
115	116	1
93	96	1
17	37	1
115	115	3
77	78	2
95	134	1
97	97	1
88	113	1
53	128	1
21	30	1
78	79	1
140	140	2
136	137	2
118	118	1
85	108	1
34	34	5
125	143	1
13	37	1
139	140	2
70	71	1
5	122	1
29	29	2
88	104	1
94	107	1
64	73	1
66	66	2
76	91	1
14	25	1
40	40	3
60	61	1
23	104	1
80	82	1
18	23	1
1	3	1
82	83	1
66	69	1
94	94	3
65	66	1
35	35	2
60	104	1
102	102	3
17	17	1
30	30	2
78	83	3
127	127	1
2	84	1
22	22	3
68	82	1
26	65	1
37	38	1
52	54	1
11	27	1
79	136	1
105	105	2
131	131	1
15	60	1
79	130	1
139	139	1
67	119	1
25	30	1
120	133	1
83	84	1
70	70	4
0	0	1
2	20	1
79	99	1
58	58	3
92	93	1
113	113	2
122	124	1
88	112	1
50	50	1
58	59	1
128	129	2
110	120	1
119	119	2
64	67	1
108	108	2
64	65	2
59	59	2
114	125	1
120	120	3
59	70	1
100	100	2
92	92	1
58	70	1
102	103	1
136	140	1
55	55	2
114	114	1
13	13	1
116	135	2
23	23	1
21	25	2
67	69	1
69	136	1
86	121	1
20	20	3
89	89	2
93	99	1
124	131	1
23	73	1
41	41	1
78	80	1
90	91	2
125	126	1
76	76	3
1	16	1
63	64	1
12	13	2
64	64	1
56	56	1
83	83	1
112	112	1
72	80	1
30	31	1
41	51	1
72	90	1
140	141	1
53	71	1
4	5	1
107	108	1
76	77	1
18	37	1
6	41	1
30	41	1
117	117	2
10	19	2
113	114	1
9	43	1
133	134	1
93	93	2
42	103	1
67	68	1
71	74	1
81	82	1
66	67	1
9	11	1
105	119	1
101	102	1
119	120	1
52	52	1
36	43	1
61	62	1
51	51	1
11	28	1
82	82	1
75	75	2
141	142	1
2	36	1
105	106	1
79	83	1
50	51	1
101	101	1
16	47	1
107	107	1
82	85	1
120	121	1
107	112	1
87	88	2
9	9	1
79	105	1
91	105	1
62	62	1
126	126	1
56	58	1
79	94	1
20	34	1
109	110	1
1	10	1
123	134	1
37	37	1
29	93	1
98	98	1
100	110	1
16	20	1
128	130	1
