0	1	1
197	197	1
34	34	1
45	45	2
191	191	3
3	9	1
171	171	2
11	11	6
192	193	2
91	91	2
223	226	1
241	241	2
12	14	1
107	108	1
60	61	2
156	156	2
65	65	1
86	87	1
74	75	2
176	192	1
7	7	3
227	234	1
119	119	2
43	43	6
214	215	5
202	202	4
54	54	5
88	88	3
43	44	2
86	86	5
174	174	1
162	220	1
204	205	1
116	116	4
82	82	4
190	190	2
246	246	4
120	120	2
104	104	2
62	62	3
186	186	2
57	57	3
20	20	4
172	172	3
26	26	2
78	81	1
94	94	1
95	97	1
40	40	7
95	95	1
97	97	4
190	238	1
216	223	1
184	184	2
47	58	1
75	76	1
114	114	3
113	113	1
42	42	4
173	174	2
195	195	1
105	105	3
206	206	2
177	177	2
32	32	3
29	29	2
38	38	1
19	19	1
150	173	1
208	220	1
182	182	3
81	84	1
25	25	2
85	85	1
216	216	3
80	80	2
166	166	1
55	55	2
102	102	2
187	187	2
152	152	1
49	49	9
37	37	5
79	97	1
180	184	1
163	218	1
4	4	2
30	30	1
66	66	3
72	72	1
15	15	1
151	151	2
93	93	1
106	106	2
230	230	2
92	92	1
160	160	7
16	16	2
216	221	2
191	193	1
89	89	2
101	101	2
48	56	2
231	231	4
24	25	2
150	150	4
68	68	3
165	165	3
74	117	1
4	177	1
112	112	2
8	15	1
23	23	1
164	185	1
1	1	1
48	48	2
218	218	2
116	119	2
83	102	2
159	159	7
57	58	1
223	223	1
27	29	1
146	146	1
245	245	3
5	7	1
67	68	2
53	53	2
16	112	1
58	68	1
36	247	1
173	173	5
87	88	3
46	53	1
207	207	1
168	169	2
71	72	4
85	104	1
81	81	4
85	105	1
46	46	5
208	208	1
5	177	1
154	169	2
103	104	1
188	189	2
225	225	3
76	118	1
35	35	2
155	155	1
39	39	1
167	168	1
74	74	2
118	119	1
99	99	3
117	118	1
47	201	1
30	33	1
150	203	2
145	145	2
215	215	2
158	159	1
100	100	1
36	229	1
75	75	2
58	58	1
195	222	1
186	188	1
65	66	2
59	59	2
238	238	2
17	17	4
97	99	1
23	38	1
177	178	1
196	219	2
117	117	1
180	181	1
52	52	1
28	32	1
107	107	3
162	227	1
27	27	4
51	68	1
162	218	1
14	14	1
50	50	1
236	238	1
11	12	1
169	170	1
149	149	1
111	120	2
183	246	1
9	10	3
111	111	1
221	221	2
81	83	2
146	222	1
217	217	1
180	180	1
203	204	2
187	189	1
103	103	2
38	39	1
46	52	1
118	118	1
36	36	1
192	192	1
168	168	1
236	236	1
28	28	2
33	34	1
92	93	1
71	79	1
169	201	2
177	192	1
12	176	1
22	53	1
21	21	1
41	169	1
163	163	2
200	221	1
38	234	1
198	199	1
84	88	1
161	161	1
76	76	1
39	40	1
116	174	2
44	44	1
181	181	2
63	63	3
164	238	1
157	157	2
61	61	3
234	235	1
145	146	1
226	226	2
77	77	2
109	112	1
202	203	1
6	14	1
218	219	3
185	185	1
240	248	1
197	198	1
71	71	1
198	198	1
219	241	1
151	246	2
176	177	1
160	226	2
77	84	1
240	240	2
85	86	1
183	207	1
56	56	4
21	22	1
227	227	2
159	230	1
171	179	1
78	78	2
207	246	1
173	207	1
217	221	2
242	242	1
175	192	1
46	202	1
220	220	1
41	41	2
108	108	3
200	243	1
15	19	1
164	164	1
196	220	1
12	12	2
193	193	1
181	182	1
42	161	1
179	180	1
184	186	1
18	53	1
196	197	1
204	204	1
243	245	1
4	12	1
229	229	1
207	232	1
158	158	2
31	31	3
73	73	1
100	101	1
69	69	1
199	199	1
158	160	1
178	178	1
177	194	1
226	227	1
189	190	1
58	60	1
171	172	1
120	148	1
32	33	1
90	91	1
6	6	1
211	211	1
209	209	1
155	156	1
106	107	1
110	110	1
153	153	1
150	167	1
30	31	1
80	85	1
213	213	2
84	84	1
31	183	1
90	90	1
237	237	2
210	210	1
247	247	1
210	214	1
186	189	1
15	16	1
