53	53	2
153	213	1
147	147	3
176	240	1
167	168	1
106	123	1
15	15	1
115	115	1
143	143	2
81	81	4
43	152	1
177	177	2
188	188	2
204	204	2
84	85	2
126	127	1
189	189	2
235	236	1
223	223	3
44	44	1
49	49	1
222	223	1
26	26	2
19	74	1
22	22	1
25	26	1
103	103	3
58	58	3
172	172	1
62	62	1
238	241	1
17	17	1
104	104	1
43	43	4
112	112	1
234	237	1
118	211	1
9	9	5
211	211	1
8	8	2
190	190	3
49	50	2
201	201	2
7	8	2
194	194	2
104	126	2
240	240	2
123	123	3
115	116	2
222	222	3
64	65	1
56	56	4
31	32	1
216	216	1
206	215	1
139	146	1
24	24	2
11	12	1
121	159	1
214	215	1
14	50	1
146	146	2
197	197	2
112	143	1
2	2	2
22	35	1
73	73	1
236	236	3
226	227	1
15	20	1
235	235	3
41	41	3
231	232	1
6	66	1
129	145	1
189	206	1
74	97	3
52	52	2
220	220	1
113	113	2
47	48	1
198	198	2
8	75	1
169	169	2
138	163	1
52	146	1
41	133	1
241	241	2
177	231	1
21	21	3
221	221	2
148	148	1
107	108	1
218	218	5
100	100	2
195	195	1
206	211	1
153	154	1
35	36	2
159	159	2
200	200	3
48	48	1
64	64	3
160	160	3
106	106	5
101	101	4
57	57	1
206	206	1
152	152	1
28	28	2
24	25	1
4	5	1
76	77	1
170	170	3
178	178	3
127	127	1
14	51	1
224	224	2
226	226	1
220	222	1
232	232	1
67	67	1
13	13	1
136	136	3
183	183	1
125	125	1
102	102	2
110	170	1
117	124	1
21	47	1
197	198	2
142	142	1
1	22	2
37	37	2
98	98	2
171	171	2
140	141	1
26	27	1
231	231	2
48	52	1
181	182	1
85	85	2
29	29	4
184	224	1
77	79	2
122	171	1
32	32	2
73	74	1
27	27	1
135	135	2
168	215	1
162	191	1
17	22	2
176	177	2
16	16	2
100	118	1
192	192	1
133	133	1
63	63	2
46	46	1
191	191	1
105	106	1
201	203	1
161	183	1
120	120	1
242	242	1
8	9	1
159	161	1
207	207	2
37	65	2
114	114	1
154	154	3
122	122	3
230	230	1
52	53	2
2	6	1
71	71	2
128	128	2
7	7	2
175	175	1
137	138	1
102	113	1
207	217	3
194	195	1
10	10	1
164	164	1
96	105	1
25	28	1
181	181	1
170	183	1
79	79	2
210	210	1
207	223	1
209	209	1
72	73	1
124	124	1
100	101	1
233	233	1
229	229	1
143	162	1
187	223	1
180	180	2
45	45	2
207	220	1
54	54	1
59	59	2
138	140	2
66	66	1
20	20	2
21	48	1
61	74	1
199	199	1
0	55	1
99	99	2
84	84	2
120	223	1
238	240	1
149	157	1
70	70	1
29	173	1
192	197	1
10	23	1
23	62	1
16	69	1
118	120	2
142	143	1
136	178	1
149	149	1
202	202	1
190	195	1
151	151	1
35	35	1
153	153	1
185	186	1
104	105	1
49	56	1
51	80	2
121	121	1
14	14	2
56	58	1
25	155	2
33	33	3
33	34	1
113	202	2
32	42	1
19	53	1
227	227	1
197	209	1
204	205	1
208	208	2
61	64	1
137	164	1
123	134	1
182	192	1
182	182	1
156	156	2
29	53	1
158	158	1
114	115	1
206	210	1
209	214	1
21	85	1
11	11	1
171	175	1
55	55	1
228	230	1
206	207	1
100	106	1
175	181	1
80	126	1
142	199	1
0	153	1
8	43	2
157	181	1
161	180	1
19	19	2
83	83	1
47	47	1
239	239	1
238	238	1
97	97	1
74	74	1
209	213	1
117	117	1
96	96	1
122	207	1
145	145	1
16	18	1
55	85	1
163	182	2
217	217	1
60	63	1
6	6	1
173	173	1
2	48	1
137	162	1
162	163	1
186	199	1
34	67	1
237	237	1
180	181	1
30	30	1
209	210	1
43	130	1
65	65	1
102	167	1
193	195	1
198	200	1
184	184	1
