92	92	7
30	33	1
2	2	6
140	140	2
109	109	4
123	126	1
118	124	2
145	145	7
77	77	4
157	158	8
38	38	6
23	94	1
116	117	3
1	7	2
100	100	5
127	127	8
121	122	2
101	101	11
39	39	3
43	43	6
7	8	4
41	41	4
126	132	2
131	132	1
11	12	2
1	1	7
11	18	2
15	16	3
128	128	4
19	53	2
14	34	1
21	51	1
69	69	3
18	19	1
99	101	2
116	116	6
106	106	5
91	91	6
19	20	2
93	93	6
141	141	5
68	68	4
11	32	1
71	81	2
20	20	4
114	151	1
84	84	4
130	130	7
139	140	1
31	32	1
157	157	3
31	31	9
14	14	4
33	35	1
155	156	3
104	104	3
24	24	7
70	70	4
124	128	1
132	132	5
156	157	1
98	98	7
40	40	4
6	8	1
131	131	10
28	28	7
112	113	1
138	138	2
92	93	3
96	117	1
9	9	3
78	78	6
34	35	1
145	153	1
45	45	3
11	11	2
35	35	4
71	91	1
118	150	1
111	111	5
96	96	7
154	158	2
52	52	9
0	0	2
63	70	1
129	129	6
105	105	4
49	49	10
33	117	1
90	90	2
69	127	1
10	11	2
107	107	4
9	49	1
52	54	1
8	8	3
89	89	3
97	97	8
5	27	1
56	56	3
124	125	1
19	48	2
63	63	3
151	151	7
50	51	1
139	139	9
84	85	4
126	126	5
7	79	2
79	79	4
113	113	3
136	137	1
57	57	1
114	115	1
7	7	4
81	81	6
69	92	1
135	135	5
109	111	2
67	70	2
48	48	5
86	139	1
29	123	1
38	95	1
62	64	1
31	104	1
88	88	4
104	105	2
131	133	1
71	134	1
5	5	1
13	13	2
25	25	4
81	86	1
78	91	1
133	134	2
16	18	1
153	157	3
112	112	5
65	65	3
73	73	4
43	76	1
120	120	2
0	1	4
35	38	1
118	123	3
146	146	5
52	53	1
36	36	3
13	33	1
66	70	1
92	144	1
155	155	7
71	71	1
40	41	1
108	108	3
37	39	1
62	80	2
64	136	1
31	33	1
17	22	1
126	127	1
25	101	1
158	158	8
46	83	1
95	96	2
153	153	3
23	24	2
29	29	1
94	98	1
0	101	2
128	129	1
22	23	1
86	86	3
123	125	1
24	25	1
10	109	1
78	79	2
68	81	1
73	75	1
50	112	4
55	144	1
130	131	1
15	15	2
90	101	2
142	142	7
43	92	1
18	18	2
68	69	1
123	123	4
69	155	1
118	119	3
88	89	1
34	34	5
65	151	1
122	122	2
53	54	1
144	147	2
132	136	1
46	57	2
152	157	1
156	156	3
40	43	1
6	6	4
95	95	4
51	51	1
7	20	1
76	80	1
47	47	5
2	3	1
55	97	1
120	121	1
137	138	3
148	148	3
114	114	6
2	98	2
108	112	2
94	94	1
103	103	7
93	94	5
107	112	1
67	85	1
23	23	3
21	70	1
9	11	1
22	46	1
85	85	4
106	108	1
152	152	1
75	75	4
62	63	2
46	46	2
78	86	1
32	32	2
103	104	1
87	87	3
26	26	4
7	27	2
12	51	1
79	119	1
46	48	2
34	44	1
28	32	1
109	113	2
127	134	2
125	125	3
94	130	1
82	83	2
105	127	1
9	10	2
107	155	1
80	82	1
19	114	1
25	40	1
111	140	2
61	61	3
148	149	5
118	118	7
26	38	1
82	91	2
45	46	2
17	89	1
37	37	4
82	84	2
147	147	2
48	49	1
79	83	1
25	26	4
47	50	1
150	151	3
42	43	1
49	122	1
67	67	3
56	57	3
66	66	3
67	68	1
12	12	1
127	128	3
20	21	2
127	148	3
87	97	1
150	154	1
105	106	3
80	83	1
44	45	1
33	34	2
113	114	1
5	48	1
42	42	2
86	106	1
1	2	2
150	150	2
27	99	1
137	137	3
3	48	1
136	136	4
81	158	2
4	4	3
25	39	1
110	110	1
45	48	1
148	152	2
19	19	3
134	134	4
140	141	2
143	143	3
29	70	1
98	115	1
119	120	2
28	120	1
44	44	2
117	121	1
79	97	2
123	124	4
90	91	1
18	21	1
11	117	1
20	77	1
91	125	1
153	154	1
132	134	1
106	130	1
93	127	1
143	154	1
118	122	1
44	98	2
27	27	3
30	30	4
91	130	1
99	100	1
82	119	1
79	80	2
89	90	3
85	86	1
98	99	1
81	110	1
17	142	1
110	134	1
10	10	3
121	121	3
17	17	2
73	80	1
33	33	1
115	146	1
21	21	2
144	156	1
78	87	1
63	80	1
116	120	1
140	151	1
146	147	2
86	157	1
139	142	1
50	50	2
42	91	1
16	87	2
69	124	1
74	74	1
84	145	1
54	54	1
62	136	1
149	151	1
4	5	1
122	125	1
16	17	3
90	143	1
10	125	1
1	6	1
103	142	1
115	129	2
135	138	1
145	146	2
93	100	1
108	111	1
37	69	1
144	145	3
6	26	1
129	130	2
35	53	1
25	36	1
62	71	1
69	70	1
28	43	1
46	47	1
82	82	1
108	121	2
117	117	2
96	118	1
14	33	1
87	90	1
91	92	2
83	84	1
124	156	1
73	74	1
125	126	1
78	114	1
38	39	1
116	118	1
83	83	2
13	14	1
0	150	1
42	127	1
113	119	1
145	147	1
93	117	1
11	20	1
117	139	1
29	40	1
16	16	2
3	3	1
154	156	1
13	85	1
38	127	2
74	124	1
122	146	1
56	141	1
87	158	1
34	84	1
74	75	1
34	158	1
140	143	1
6	7	1
37	77	1
101	102	1
76	76	1
22	22	1
48	65	1
67	71	1
111	112	1
43	44	1
23	55	1
90	102	1
121	146	1
11	52	1
123	130	1
37	38	2
38	42	1
103	113	1
132	141	1
37	127	1
15	85	1
106	107	1
8	9	1
88	121	1
154	154	1
72	131	1
53	114	1
72	77	1
32	116	1
2	32	1
47	49	1
117	127	1
46	55	1
138	139	1
93	144	1
74	101	1
105	128	1
15	115	1
86	107	1
45	92	1
50	81	1
