1	1	3
68	68	2
23	24	3
153	181	3
70	71	2
9	9	8
122	123	2
15	15	3
71	102	1
57	57	3
179	180	2
124	124	1
140	140	4
109	109	2
126	126	1
42	42	2
111	111	1
98	99	1
137	137	1
59	59	3
47	47	4
142	143	1
142	142	2
152	152	3
67	67	1
72	73	2
104	104	6
21	55	2
79	79	3
59	60	1
166	166	2
132	132	1
143	145	4
56	71	1
75	75	1
184	184	1
170	170	1
3	3	3
187	187	3
94	96	1
46	46	2
136	136	3
0	0	5
147	147	4
27	27	1
123	124	1
123	123	6
155	156	1
194	194	2
15	16	1
2	35	1
39	42	1
180	180	1
183	183	2
52	53	1
37	37	5
154	154	1
40	42	1
80	82	1
38	38	1
191	192	1
161	161	2
138	138	3
178	178	5
17	17	2
99	99	7
69	69	3
97	97	5
44	44	3
39	60	1
19	19	1
12	12	4
108	108	5
112	112	2
149	149	2
33	33	2
48	49	2
159	159	2
107	119	2
127	127	4
7	8	1
104	117	1
48	48	4
30	34	1
32	184	1
16	18	1
169	169	4
128	136	1
56	56	6
156	156	5
167	168	1
125	145	1
63	71	2
182	182	3
171	187	2
82	82	1
100	100	2
101	102	1
98	98	1
130	142	2
168	169	2
120	120	3
170	190	1
134	134	1
71	73	1
27	28	2
21	21	2
26	26	2
22	24	2
71	71	2
68	70	1
32	32	2
197	197	1
6	36	1
63	140	1
50	50	2
101	101	4
52	52	2
129	129	3
29	29	2
24	25	2
155	155	1
177	177	1
105	105	3
107	108	2
163	163	1
66	134	1
80	80	1
133	133	2
10	10	2
27	29	2
36	40	1
158	159	1
135	137	3
88	88	2
175	175	2
181	182	2
54	55	3
64	65	1
117	117	2
143	143	4
128	133	1
96	96	1
59	96	1
55	55	2
72	72	8
161	180	1
4	33	1
21	85	1
6	7	1
145	171	1
14	14	2
8	8	1
97	115	2
22	23	1
158	158	1
175	176	1
174	175	1
40	40	3
97	98	1
113	113	2
84	84	2
100	145	1
153	162	1
138	158	1
63	65	2
110	111	1
99	106	1
148	148	2
70	70	1
171	179	1
100	161	1
195	195	2
65	154	1
5	7	1
169	171	1
18	123	1
121	122	1
125	125	2
152	159	1
186	186	4
135	136	1
63	63	1
78	78	2
16	17	2
172	186	1
107	107	2
126	127	2
87	88	1
173	173	2
31	38	1
8	74	1
185	186	3
16	16	1
148	191	1
51	51	1
7	25	1
8	73	1
38	43	1
59	133	1
133	134	1
60	60	2
3	176	1
128	129	1
59	186	1
119	119	2
73	73	1
83	83	1
193	195	1
115	115	3
48	53	1
149	150	1
80	85	1
2	15	1
82	83	1
87	87	3
84	85	1
141	150	1
141	141	1
35	176	1
114	115	2
114	114	2
13	14	1
95	96	1
13	13	2
43	43	1
46	47	1
4	13	1
5	55	1
135	135	2
102	106	1
22	22	2
63	64	1
62	62	3
43	56	1
33	34	1
106	106	1
25	26	1
104	105	1
164	165	1
41	41	2
193	193	1
2	175	1
112	113	1
163	164	1
127	128	1
104	162	1
130	130	2
36	36	1
186	187	1
35	35	1
120	130	1
5	6	1
28	28	1
185	185	2
159	176	1
189	191	1
109	166	1
196	196	1
38	39	1
35	36	1
188	188	1
64	154	1
169	194	1
37	38	1
89	89	1
103	110	1
17	18	1
160	160	1
150	150	2
4	4	1
152	182	1
172	176	1
180	182	1
80	81	1
25	25	1
34	34	1
162	162	1
44	45	1
173	174	1
14	15	1
145	145	1
171	171	1
190	191	1
178	179	1
86	86	1
12	26	1
59	61	1
34	55	1
31	31	1
56	62	1
45	45	1
48	183	1
115	156	1
94	94	1
