88	89	3
12	12	1
67	67	1
17	18	1
118	118	2
80	83	1
119	119	1
132	134	2
123	123	5
74	74	1
11	88	2
113	113	2
70	79	2
77	122	1
67	87	1
74	75	1
148	153	1
97	97	1
13	40	1
169	169	1
22	22	2
56	56	2
97	98	1
78	120	1
120	120	1
69	72	2
6	6	1
66	67	2
108	109	1
68	68	1
81	81	1
154	166	1
164	165	1
158	158	2
34	34	2
19	22	1
140	141	1
149	149	3
82	96	1
153	153	3
53	53	3
13	13	1
106	106	1
75	75	3
137	139	1
101	101	2
143	143	2
78	78	2
137	137	1
47	48	1
13	21	1
85	87	1
142	142	3
114	114	1
76	76	3
163	164	2
111	111	1
71	71	1
120	146	1
117	118	1
133	133	1
102	128	1
92	92	1
72	97	1
14	137	1
18	37	2
153	154	1
44	45	1
65	65	3
69	78	1
157	158	1
142	164	1
18	18	1
155	155	1
98	98	1
108	108	2
45	45	2
19	40	1
76	77	1
83	83	2
82	82	1
70	70	2
47	47	2
99	163	1
56	90	1
84	84	1
131	155	1
156	156	3
147	148	2
110	110	1
150	150	2
42	42	1
115	116	1
3	3	3
133	146	1
121	122	1
51	51	1
154	155	1
80	80	2
81	82	1
5	7	1
161	163	1
16	16	2
125	134	1
86	86	3
73	75	1
141	141	2
26	150	1
15	20	3
85	85	3
90	90	1
164	164	1
129	129	1
136	137	2
11	11	1
57	58	1
130	130	3
17	17	1
49	49	2
5	5	2
90	91	1
38	39	1
138	140	1
159	159	1
84	91	1
58	79	1
102	118	1
125	126	1
76	124	1
136	136	1
134	134	1
33	34	2
91	91	1
131	131	1
122	122	2
24	25	2
76	99	2
138	139	1
80	89	1
25	25	2
100	100	1
64	64	1
167	167	1
26	26	1
18	20	1
160	160	1
73	73	2
27	27	1
91	92	1
88	88	1
0	1	2
105	108	1
53	55	1
124	124	1
139	140	2
119	120	1
115	115	1
5	6	1
11	12	1
155	157	1
20	20	1
154	156	1
99	125	1
130	155	1
117	117	1
101	118	1
14	14	1
102	102	1
157	157	1
74	101	1
92	96	1
161	161	1
33	33	1
152	154	1
43	44	1
103	130	1
124	163	1
23	23	1
151	158	1
21	22	1
105	105	1
84	92	1
93	93	1
112	112	1
13	16	1
129	130	1
132	132	1
144	158	1
107	107	1
54	54	1
127	154	1
102	103	1
20	21	1
46	46	1
106	107	1
1	1	1
