52	52	2
3	159	1
139	144	1
54	54	3
159	159	4
132	132	2
142	142	1
49	67	1
28	28	1
71	71	3
86	101	1
82	82	2
161	167	4
123	123	2
27	45	1
77	95	2
78	78	1
165	165	1
138	139	1
118	118	3
78	100	1
92	92	3
72	73	2
21	21	1
34	36	1
166	166	3
102	102	1
74	74	3
13	14	2
21	131	1
83	83	2
115	158	1
126	132	1
81	81	1
42	139	2
40	40	2
102	163	1
169	169	4
22	22	4
100	100	2
100	101	1
158	159	2
69	72	1
160	160	2
18	69	1
43	45	1
114	114	1
159	161	1
44	45	2
58	69	1
145	148	1
46	68	1
86	86	2
16	16	2
96	114	1
98	98	1
85	85	1
150	150	1
69	69	1
86	95	1
14	14	3
100	114	1
164	164	2
93	94	1
9	9	2
70	84	1
122	156	1
3	11	1
20	20	2
25	25	2
0	170	1
137	137	2
127	127	1
77	104	1
74	87	1
93	124	1
134	134	3
102	118	2
119	119	1
76	76	2
79	79	2
48	48	1
58	58	1
67	68	2
109	109	1
10	10	1
36	108	2
38	38	3
65	123	1
62	81	1
156	156	2
25	150	1
101	101	1
57	62	1
120	120	1
108	108	1
3	4	1
14	15	4
44	44	1
145	145	1
35	35	3
143	144	3
122	122	1
108	155	1
109	110	1
103	103	1
73	83	1
87	87	1
23	23	2
157	157	1
91	151	1
34	34	1
8	18	1
105	105	1
9	10	1
148	152	1
19	78	1
49	64	1
121	121	2
154	155	1
125	127	1
154	168	1
155	155	1
12	12	1
153	153	2
70	70	1
65	65	1
128	128	1
72	72	2
11	11	1
63	63	2
8	8	2
1	1	1
130	130	1
84	84	2
125	125	1
100	151	1
117	117	2
155	156	1
18	18	2
27	43	1
147	147	1
83	93	1
89	110	1
58	62	1
6	6	1
35	41	1
146	147	1
84	85	1
131	131	1
47	47	1
27	27	1
28	133	1
152	153	1
94	94	2
13	40	1
56	62	1
141	141	1
163	163	1
110	111	1
24	24	1
111	111	1
66	118	1
126	126	1
10	12	1
98	99	1
158	158	1
42	42	1
151	154	1
144	144	1
107	159	1
148	148	2
0	0	1
65	90	1
110	110	1
80	141	1
122	153	1
106	108	1
12	87	1
14	46	1
92	93	1
36	36	1
48	50	1
78	146	1
129	129	1
95	102	1
149	149	1
53	53	1
42	117	1
