124	124	2
18	50	4
27	27	1
47	47	2
53	66	1
90	109	1
85	95	1
34	34	2
9	10	1
85	86	1
109	110	1
109	154	1
15	46	2
8	8	2
3	69	1
49	49	1
66	66	1
103	143	2
125	125	1
156	156	3
91	91	1
99	99	1
55	55	2
13	14	1
149	149	1
113	157	1
109	140	1
137	144	2
30	49	1
112	130	1
39	50	1
85	85	1
154	155	1
26	27	2
50	50	1
14	14	1
89	138	1
136	136	2
142	142	2
146	147	2
18	19	2
45	45	1
127	127	1
92	92	4
67	67	1
38	48	2
130	130	1
123	123	2
144	147	1
3	3	1
118	120	1
87	140	1
1	31	1
125	126	1
10	10	2
6	6	3
132	132	1
115	115	1
78	103	1
106	107	1
21	40	1
63	63	2
38	38	4
89	89	3
100	100	1
120	120	2
17	106	1
36	36	2
116	116	4
107	107	2
28	28	3
51	52	3
22	23	1
79	85	1
83	84	1
131	131	1
94	94	2
9	21	3
102	102	1
41	112	2
30	84	1
145	145	3
87	92	1
35	38	1
9	9	3
68	68	1
82	82	1
66	69	2
100	101	1
157	157	1
78	78	2
46	48	1
154	157	1
135	136	1
20	29	1
32	106	1
87	119	1
108	122	1
95	95	5
114	114	1
75	75	2
112	121	1
75	91	2
86	86	2
145	153	2
100	150	1
28	135	1
141	141	1
40	40	1
55	89	1
116	117	1
38	39	3
112	112	2
126	141	1
102	138	2
70	71	1
107	108	1
148	148	2
41	43	1
15	16	2
119	123	3
147	147	3
104	105	1
29	29	1
44	44	4
92	96	2
75	116	1
77	111	1
10	13	1
154	154	3
53	53	2
118	118	4
25	26	1
37	37	1
119	119	1
37	71	1
16	18	1
26	26	2
123	148	2
139	139	1
33	37	1
40	41	1
54	110	1
129	130	1
28	29	2
25	25	1
29	44	1
67	68	2
44	110	1
9	13	1
134	135	2
69	70	1
52	52	2
41	41	2
51	86	2
152	154	1
5	5	1
122	122	2
134	134	1
62	62	1
39	40	1
128	128	2
39	39	2
57	104	2
120	121	1
105	105	1
37	65	1
61	61	1
135	135	1
117	121	1
43	43	2
38	50	1
13	13	1
9	50	1
139	155	2
97	97	1
140	140	2
107	152	1
152	152	1
33	33	1
83	83	1
72	75	1
79	80	2
151	151	2
81	91	1
99	102	1
84	84	1
23	39	1
7	7	1
105	133	2
95	96	1
121	141	1
115	154	1
54	56	1
79	87	1
87	87	1
31	32	2
20	20	1
107	124	1
16	85	1
93	114	1
39	98	1
22	22	2
25	29	1
89	91	1
24	24	1
3	4	1
117	117	1
41	109	1
51	54	3
105	106	1
71	71	1
16	80	1
12	13	1
64	72	1
81	81	1
158	158	2
22	24	1
24	122	1
20	39	1
126	126	1
16	16	1
28	83	1
96	96	1
153	153	1
52	53	1
70	70	1
2	2	1
64	64	1
5	47	1
7	8	1
2	3	1
19	20	1
99	101	1
15	15	1
124	126	1
