239	239	3
167	183	1
41	52	1
85	86	2
183	183	2
61	68	1
126	169	1
19	20	1
36	36	3
107	138	1
197	197	1
66	66	1
163	240	1
171	171	4
178	178	2
108	127	1
1	125	1
138	138	5
192	192	3
44	48	1
199	199	1
35	35	2
167	167	2
189	189	3
120	148	1
157	159	1
99	121	1
220	220	4
149	149	4
82	82	2
129	138	1
119	127	1
12	76	1
2	6	1
135	201	1
153	153	3
0	0	1
33	36	4
213	214	5
17	17	1
177	177	2
3	42	1
125	126	2
54	54	3
138	140	2
188	190	4
40	50	1
81	83	1
21	21	2
107	107	2
219	219	2
16	17	1
173	174	1
188	189	2
187	187	3
182	213	1
127	128	2
8	62	1
14	31	1
149	160	1
55	55	2
175	176	1
127	127	1
206	221	1
86	86	4
166	167	1
227	227	2
49	49	2
70	71	1
64	64	1
104	125	1
18	18	2
60	60	4
65	65	2
141	143	1
238	238	2
241	241	1
194	212	1
242	242	3
203	203	7
18	19	1
129	139	1
63	71	1
58	59	1
236	238	3
104	104	1
6	23	2
140	195	3
216	216	3
215	215	1
15	15	1
64	65	1
161	165	3
96	97	1
121	121	5
16	16	2
188	209	1
212	216	1
13	19	1
142	142	1
207	223	4
172	172	2
226	226	3
70	73	1
208	216	1
116	116	3
202	220	1
5	6	4
8	8	3
39	39	4
158	158	4
53	53	1
90	95	1
27	27	4
234	234	4
163	210	1
240	240	5
139	139	3
28	28	1
25	64	1
27	74	1
77	78	4
68	80	1
196	209	1
102	139	4
34	42	1
152	152	3
61	61	1
71	95	1
81	82	2
159	159	7
81	138	1
37	64	1
156	158	2
140	140	1
159	160	1
21	67	1
150	158	1
181	181	1
151	151	1
102	102	3
92	167	1
217	218	2
191	191	2
3	65	1
193	193	4
38	38	3
97	97	5
101	106	1
181	183	2
204	204	4
76	84	1
74	225	1
155	155	2
44	44	3
24	24	2
164	181	2
12	34	2
34	34	2
10	74	1
119	119	3
57	57	1
134	177	1
154	154	2
47	47	2
76	76	2
75	137	1
126	126	3
56	56	2
45	47	2
166	166	3
224	225	1
66	112	3
190	190	1
229	229	2
136	137	1
163	234	1
143	164	1
158	159	1
206	235	1
210	211	2
97	211	1
205	221	1
88	88	1
103	239	2
198	198	1
150	151	2
124	140	1
105	105	3
148	148	4
195	195	1
111	111	3
123	140	1
0	72	2
100	100	1
90	178	1
218	218	2
196	196	1
149	158	3
31	31	1
164	182	2
62	62	2
1	4	1
79	79	3
207	208	1
141	141	1
3	83	1
75	176	1
146	146	2
171	172	1
11	28	3
143	143	3
207	207	1
156	189	1
202	207	1
52	53	2
41	41	2
36	38	2
237	238	2
205	205	2
128	182	1
217	222	1
5	125	1
98	98	2
237	237	2
104	105	1
71	71	2
85	85	2
155	189	4
105	122	2
73	76	1
103	103	1
144	144	2
50	50	1
156	156	3
148	157	1
8	37	2
13	13	1
32	32	2
214	214	1
162	188	1
63	63	1
122	124	1
73	73	5
64	79	1
184	185	1
70	70	1
116	123	1
206	225	1
59	60	1
118	118	1
46	46	1
180	190	1
1	2	1
239	240	1
107	133	1
43	54	1
233	233	1
83	83	1
154	216	1
9	9	3
4	6	1
66	82	1
46	101	1
69	137	2
110	138	1
79	125	1
107	142	1
19	22	1
33	33	2
2	16	2
67	121	1
233	234	2
22	23	2
29	29	1
45	102	2
74	143	1
229	230	1
78	92	2
229	234	1
106	114	1
10	10	1
29	75	1
115	115	2
223	239	1
205	206	2
213	213	1
67	102	1
193	194	2
53	59	1
96	98	1
115	141	1
107	230	1
106	106	1
20	20	2
180	180	1
76	82	1
188	188	1
67	88	4
202	202	1
47	227	1
45	46	1
169	170	1
59	59	2
20	60	1
222	222	1
217	217	2
181	182	1
37	53	1
96	241	1
212	213	1
122	139	1
118	123	1
221	222	3
76	79	1
215	216	1
205	207	1
175	217	1
4	14	2
195	199	1
64	85	1
40	40	2
5	5	4
108	201	1
133	133	1
5	72	1
175	178	1
114	158	1
9	10	1
161	180	1
209	210	2
211	211	1
232	232	1
80	80	2
167	179	1
169	169	2
3	3	1
72	72	3
165	165	1
206	206	2
115	168	1
235	239	1
66	81	1
173	173	1
139	141	1
182	212	1
114	115	1
2	67	1
145	145	2
225	225	1
159	192	1
16	41	1
143	180	1
121	230	1
195	212	1
110	118	1
13	14	1
235	237	1
108	116	1
54	61	1
120	121	1
101	169	1
75	75	2
14	14	1
98	99	1
130	133	1
81	107	1
170	170	1
201	201	1
118	223	1
6	7	1
157	157	1
202	219	1
184	184	1
70	75	1
220	224	2
119	124	1
124	124	1
37	71	1
45	45	2
133	144	1
146	150	1
162	164	1
1	1	1
134	196	1
213	215	1
109	117	1
164	164	1
160	160	1
17	60	1
60	61	1
207	220	1
107	108	1
138	139	1
207	211	1
2	167	1
46	102	1
148	149	1
48	49	1
152	199	1
33	34	1
62	86	1
95	236	1
168	170	1
88	118	1
60	81	1
235	236	1
195	211	1
164	165	1
147	147	3
54	56	1
11	11	2
38	39	1
142	185	1
171	174	2
101	105	1
121	122	2
61	62	1
70	99	1
123	123	1
167	186	1
101	161	1
53	139	1
211	227	1
43	43	1
213	216	1
213	232	1
164	229	1
127	166	1
51	51	1
6	71	1
115	230	1
67	84	1
187	231	1
208	208	1
3	38	1
4	84	1
119	121	1
135	143	1
111	112	1
159	170	1
134	134	1
20	69	1
103	104	1
106	107	1
36	51	1
102	103	1
181	213	1
38	73	1
105	108	1
83	138	1
182	182	2
103	125	1
108	226	1
99	99	1
204	240	1
192	196	1
0	18	1
113	113	1
7	7	1
26	27	1
69	69	1
109	111	1
