88	88	2
135	135	4
65	65	3
103	103	1
19	26	2
101	103	1
19	21	1
117	117	1
20	20	1
129	136	3
5	51	1
55	56	1
91	91	4
102	102	1
43	43	1
77	95	2
19	32	1
70	108	1
33	33	4
126	126	2
36	36	1
106	106	2
79	80	1
65	66	2
139	139	3
104	132	1
14	14	1
49	49	2
54	117	1
16	69	1
98	98	1
128	128	2
76	106	1
60	64	1
0	38	1
124	124	1
23	23	1
32	32	4
50	50	1
29	29	1
4	4	2
40	110	2
96	96	2
87	87	2
11	49	1
137	137	1
120	121	1
48	48	4
1	1	1
80	96	1
144	144	1
17	56	1
105	105	4
132	132	3
40	40	2
34	105	1
106	123	1
30	113	2
8	8	2
77	109	2
90	130	1
115	137	2
119	119	2
18	18	4
10	10	1
8	22	1
5	11	1
19	19	1
136	137	1
59	59	2
13	18	1
55	57	1
52	52	1
113	113	1
66	66	1
13	14	1
71	71	1
31	34	1
3	3	1
89	89	1
107	110	1
10	141	1
118	118	2
134	134	3
13	13	2
13	24	1
39	39	2
28	29	3
113	136	1
90	90	1
40	91	2
124	125	2
13	115	1
114	114	4
25	26	1
107	111	2
43	77	1
4	9	1
2	13	1
48	125	1
93	93	4
104	104	2
81	81	2
141	141	3
66	67	1
133	133	1
10	57	1
113	114	2
28	28	2
82	82	2
13	16	1
5	12	1
134	135	1
48	70	1
29	41	1
64	74	1
116	133	1
60	60	1
92	97	1
5	6	1
69	89	1
32	48	1
14	15	2
53	55	1
85	85	1
78	79	1
34	35	1
4	18	1
53	54	1
17	18	1
136	138	1
73	73	1
123	124	1
73	75	1
51	51	2
86	87	1
89	138	1
120	120	2
92	92	1
128	131	1
121	121	1
118	138	1
49	109	1
16	34	2
126	128	3
118	119	1
6	6	1
108	108	2
3	4	1
102	128	1
25	53	1
115	117	1
131	131	1
57	57	1
26	26	1
140	140	1
85	86	1
31	31	2
95	103	1
58	59	1
83	109	1
33	114	1
29	38	1
110	111	1
69	69	1
85	116	1
18	19	1
24	24	1
90	138	1
75	111	1
116	116	1
8	11	1
53	106	1
93	94	1
129	129	1
33	91	1
52	65	1
53	53	1
82	83	1
102	103	1
79	79	1
15	15	2
103	142	1
107	107	1
100	101	1
100	100	1
99	100	1
117	139	1
105	107	1
64	65	1
