112	113	1
56	56	3
16	57	1
123	126	3
108	108	2
59	60	4
88	110	1
43	46	1
40	55	1
118	118	4
29	29	1
84	88	1
112	112	4
91	92	3
133	133	3
121	122	1
115	122	1
20	20	1
125	125	1
8	8	5
57	57	2
102	120	2
117	126	1
101	121	3
84	87	1
38	38	1
64	64	4
88	95	1
93	93	1
21	55	1
36	36	4
29	30	1
36	44	1
68	68	2
127	127	2
12	12	1
97	97	1
115	115	5
134	134	1
109	109	2
100	105	2
120	120	3
1	70	1
61	72	1
62	117	1
111	121	1
116	116	3
30	31	1
37	40	1
75	76	1
72	72	1
102	102	3
83	83	1
18	18	3
40	40	2
6	6	4
13	14	1
62	68	2
43	43	1
13	20	1
81	92	1
25	26	2
86	86	4
14	39	1
15	15	3
128	128	1
65	65	1
5	85	1
121	121	3
79	87	1
39	41	1
89	90	1
131	131	1
61	62	1
132	132	2
14	26	2
117	117	1
86	104	1
61	61	1
74	74	3
35	35	5
40	50	2
31	43	1
87	105	1
60	60	1
59	59	1
113	113	1
35	43	1
42	42	1
118	119	3
11	11	2
104	104	1
92	92	2
73	73	3
126	128	1
44	44	1
83	90	1
41	41	2
121	132	1
85	85	3
54	54	1
32	36	1
5	5	1
25	25	1
58	58	1
15	19	1
99	112	1
1	61	1
82	97	1
107	118	2
124	125	1
129	129	2
2	70	1
4	114	1
31	31	3
1	1	2
90	92	2
82	82	1
42	48	1
76	76	1
77	77	3
24	24	1
33	33	4
81	91	1
96	125	1
113	115	1
91	91	1
48	48	2
22	43	2
93	105	1
50	50	1
66	66	1
63	64	1
7	7	1
111	133	2
56	84	1
5	56	1
88	102	1
37	38	1
17	17	2
62	62	2
3	19	1
4	4	1
21	21	2
118	122	1
30	30	2
10	10	1
103	103	1
73	74	1
71	72	1
122	123	1
74	78	1
18	34	1
119	119	2
32	33	1
63	63	2
81	97	1
96	96	2
78	83	2
46	47	1
79	80	1
39	40	1
87	111	1
57	58	2
81	103	1
78	79	1
12	55	1
112	114	1
0	0	1
32	32	1
24	32	1
129	130	1
36	59	1
70	70	1
38	39	1
123	125	1
13	15	1
96	97	1
90	90	1
