146	146	1
176	214	1
11	11	4
96	96	2
170	170	1
46	46	5
14	179	1
49	90	2
86	86	3
43	44	1
203	203	3
52	52	3
199	237	3
43	145	2
35	35	2
23	23	3
225	225	3
87	87	2
4	4	3
48	176	2
199	199	5
29	34	1
12	13	1
110	110	3
34	34	5
38	39	4
74	74	6
8	8	2
172	172	4
164	164	4
1	1	1
184	184	3
214	215	2
151	151	1
221	221	4
65	233	2
25	25	2
162	163	1
32	32	2
222	222	1
31	94	1
56	56	3
5	5	2
81	81	1
19	19	8
100	100	1
235	235	2
153	153	3
54	100	2
158	205	1
201	228	1
177	177	4
210	210	2
230	230	6
236	237	1
30	30	1
27	27	2
92	92	4
196	237	1
55	232	1
192	192	2
58	59	1
173	217	1
114	114	2
241	241	1
194	194	2
66	66	2
238	239	1
61	61	2
166	167	2
215	218	1
108	108	4
107	107	3
119	119	5
232	232	2
6	7	1
33	33	2
163	217	1
173	186	2
189	189	2
165	165	3
68	69	1
182	225	1
201	225	2
37	37	1
179	180	1
50	50	1
167	167	2
112	185	1
104	155	1
149	149	1
59	60	1
191	191	2
38	38	2
12	12	2
103	103	2
49	49	1
58	98	1
152	152	6
104	104	2
101	108	1
233	233	1
45	203	1
109	115	1
154	154	3
28	28	1
245	245	4
42	42	1
91	207	1
47	48	1
29	207	1
193	194	1
116	116	1
29	30	2
39	39	2
182	211	2
214	214	1
153	211	2
227	227	3
212	213	2
237	237	1
45	236	1
113	114	1
47	111	1
2	2	2
158	158	2
109	109	1
63	64	2
239	239	1
180	181	1
118	119	1
165	240	1
20	20	3
97	97	1
190	190	2
74	90	1
159	192	1
226	226	2
89	89	2
19	20	2
226	227	1
91	91	3
40	40	1
189	220	1
163	164	3
246	246	2
59	86	1
17	175	1
212	212	2
106	106	1
156	156	1
61	98	2
194	243	1
216	216	3
57	57	1
51	51	2
66	116	1
79	79	1
59	64	1
93	113	1
50	97	1
162	162	1
75	77	1
113	113	1
156	230	1
44	44	2
37	47	1
202	202	3
209	210	1
114	208	2
160	160	3
111	111	2
199	235	1
145	147	1
77	77	3
158	182	1
146	169	1
218	218	2
29	94	1
186	187	1
9	9	1
98	117	1
200	200	2
208	208	1
33	34	1
53	53	2
64	79	1
65	65	2
76	76	1
158	159	1
91	92	3
104	106	2
35	37	1
116	117	3
38	156	1
81	82	1
224	234	1
10	10	1
186	186	2
51	52	1
54	111	1
47	47	1
174	174	2
157	158	1
39	40	1
19	87	1
19	204	1
178	178	1
176	177	1
14	14	1
163	163	2
80	80	1
89	91	1
70	70	1
105	106	1
26	26	1
68	76	2
168	169	1
67	67	2
45	45	1
165	187	2
42	168	1
159	159	1
16	78	1
191	197	1
187	217	1
114	115	2
162	217	1
155	155	1
82	82	1
60	95	1
199	222	1
88	106	1
219	219	1
186	212	1
240	240	1
196	214	1
227	231	1
12	52	1
206	206	1
78	80	1
228	228	2
183	183	1
62	62	1
213	213	1
35	36	1
205	205	1
38	101	1
55	55	1
180	180	1
179	179	1
1	218	1
87	118	1
232	233	1
229	231	1
29	87	1
118	118	1
42	204	1
241	247	1
78	78	1
166	166	1
58	66	1
84	84	2
181	181	1
193	193	2
19	21	1
74	81	1
23	24	1
172	173	1
100	101	1
57	232	1
96	119	1
7	7	1
247	247	1
165	218	1
197	197	1
193	248	1
49	247	1
35	38	1
234	234	1
