84	154	3
152	152	1
107	108	1
80	162	2
70	71	1
90	106	1
68	71	3
17	17	2
102	102	2
144	144	2
2	40	1
39	40	1
124	124	3
155	155	1
6	6	4
69	69	3
35	36	2
24	128	1
48	50	1
86	156	1
27	156	1
81	97	1
23	127	1
135	135	4
157	157	3
119	143	2
100	101	1
99	100	1
118	165	3
90	90	2
104	104	2
73	121	1
76	78	1
64	149	1
132	135	1
131	131	3
76	132	2
88	88	1
106	106	1
153	154	3
118	118	3
156	157	1
42	42	2
13	13	6
167	167	2
116	116	1
17	95	2
70	130	1
3	3	2
41	41	4
45	45	2
53	53	2
81	81	3
73	73	1
20	21	2
15	139	1
8	112	1
4	83	1
106	107	1
19	19	3
170	170	2
97	97	2
16	16	4
108	108	1
127	127	1
126	131	1
78	78	2
154	154	2
132	132	3
123	123	1
44	44	5
39	146	1
72	72	2
38	38	2
143	143	3
100	100	1
12	12	4
37	37	2
133	133	1
44	45	3
43	52	1
140	140	2
20	20	5
14	14	3
160	160	1
85	86	2
24	114	1
111	111	3
17	112	2
46	49	1
96	96	2
109	144	1
143	164	1
18	155	1
35	35	2
119	119	3
79	116	1
11	12	1
153	155	1
143	144	1
56	56	1
140	142	2
99	129	1
91	91	1
36	36	2
6	111	1
163	164	3
40	40	1
71	129	1
149	161	1
84	84	2
51	52	1
105	105	1
57	72	1
137	137	3
25	135	1
95	95	1
63	63	4
155	156	2
68	160	1
64	64	2
156	156	2
94	94	1
104	110	1
109	109	1
13	14	1
28	28	1
12	14	1
4	4	1
115	115	1
100	162	1
88	90	1
97	120	1
94	95	2
49	49	1
17	134	1
149	151	2
163	163	1
131	132	1
51	51	1
79	80	1
55	56	1
115	116	1
105	161	2
74	74	2
65	135	1
53	137	1
144	150	1
9	9	2
21	21	3
145	145	1
8	117	1
117	118	1
72	128	1
84	136	1
91	106	1
126	127	1
164	164	1
161	161	1
120	120	2
130	130	1
22	23	1
149	149	3
51	119	1
82	82	1
14	89	1
21	22	2
55	55	1
78	79	1
43	43	1
97	98	1
11	56	1
1	5	1
77	77	1
149	150	2
125	125	1
91	144	1
146	146	1
18	18	1
10	10	1
13	15	1
130	132	1
112	112	2
78	134	1
66	66	1
122	139	1
87	87	1
112	113	1
64	70	1
54	55	1
90	134	1
52	53	2
70	105	2
95	153	1
54	54	1
162	164	1
73	74	1
114	158	1
1	1	2
46	46	1
126	126	1
88	108	1
146	147	1
86	87	1
26	26	1
74	114	1
23	23	1
142	142	1
139	144	1
159	159	1
148	151	1
21	101	1
79	149	1
6	129	1
22	22	1
4	5	1
101	102	1
57	57	1
36	37	1
120	122	1
39	39	2
12	38	1
83	83	1
24	24	1
105	149	1
18	22	1
7	7	2
120	121	1
56	58	1
70	70	1
50	51	1
108	109	1
96	97	1
135	152	1
