129	129	2
52	52	5
14	15	1
95	95	6
29	66	1
122	122	6
50	51	1
82	83	3
108	114	2
47	47	1
88	88	3
20	20	1
33	59	1
34	34	1
70	81	1
52	53	1
54	54	5
88	97	1
131	133	2
33	33	2
19	29	1
93	94	1
93	93	5
46	51	2
103	103	5
58	58	1
91	92	5
22	22	5
21	21	6
43	43	3
119	119	7
65	65	3
97	97	2
14	14	1
68	68	3
123	123	2
47	58	1
109	109	3
3	8	1
28	87	2
112	112	1
18	19	2
132	133	1
77	132	1
13	26	1
99	99	1
16	16	3
4	5	1
99	131	1
50	50	3
114	114	3
58	60	2
4	4	1
128	128	2
105	105	4
82	82	3
96	96	3
18	20	5
111	111	4
28	28	1
125	126	2
24	24	1
77	77	2
123	124	2
125	127	1
11	11	2
52	131	1
40	41	1
131	132	1
110	110	2
117	117	4
91	117	1
116	117	2
70	76	1
72	76	1
80	80	1
56	56	3
107	107	4
87	87	1
96	103	1
81	81	3
83	84	1
88	89	3
132	132	2
25	25	1
23	67	1
104	104	5
30	33	1
96	99	1
89	90	1
86	87	1
85	92	1
59	60	2
111	112	1
6	112	1
51	51	3
2	12	1
82	88	2
32	32	2
104	105	2
3	13	1
101	101	1
90	90	1
129	130	3
53	53	1
89	89	2
81	82	1
121	121	4
44	56	1
6	6	1
85	86	2
130	131	1
115	115	3
18	24	1
111	120	1
57	57	1
83	83	2
77	80	1
118	118	3
25	65	1
19	23	2
2	117	1
64	68	1
102	102	2
42	43	2
127	128	2
66	66	2
67	67	4
79	129	1
49	51	1
131	131	1
40	40	1
76	76	2
22	32	1
43	126	1
39	49	1
44	44	3
45	45	1
115	128	1
43	46	1
33	34	1
32	34	1
120	120	3
30	30	2
11	12	1
3	3	3
49	49	2
12	12	1
106	106	2
72	73	2
77	89	1
91	91	1
65	67	1
31	31	3
49	55	1
29	33	1
121	122	1
11	104	1
47	113	1
133	133	1
69	70	1
107	108	1
72	72	2
108	108	1
32	49	2
65	66	1
84	85	2
19	19	1
17	17	1
78	78	1
47	70	1
71	85	1
73	73	3
91	93	2
62	62	1
63	63	4
38	38	1
29	30	1
16	42	1
70	70	2
96	109	1
20	28	1
1	4	1
17	33	2
39	39	3
55	79	1
46	54	1
109	112	1
54	112	1
8	10	1
22	23	1
105	109	1
93	95	1
24	38	1
92	103	1
71	125	1
13	13	2
67	98	1
29	29	1
90	91	1
124	124	1
91	94	1
43	44	1
126	126	2
80	91	1
26	44	1
52	101	1
84	89	1
24	29	1
75	77	1
115	116	1
106	113	1
27	27	1
0	0	1
26	26	1
9	9	2
92	92	1
81	84	1
7	8	2
92	132	1
122	124	1
107	116	1
53	103	1
127	127	1
44	65	1
118	131	1
25	26	1
59	71	1
55	55	1
59	59	1
61	61	2
125	125	1
103	104	1
78	80	1
58	59	1
94	94	1
27	29	1
109	110	1
4	9	1
19	74	1
55	94	1
74	75	1
100	101	1
5	5	1
25	28	1
71	74	1
49	54	1
52	118	1
77	93	1
