99	115	1
37	45	1
27	28	2
61	73	1
123	124	2
134	134	2
73	100	1
11	11	1
123	125	1
149	149	1
123	143	1
116	146	1
38	39	1
44	44	5
36	36	3
121	122	2
79	139	3
107	107	2
100	100	2
17	18	1
68	105	1
81	83	2
100	139	3
104	105	1
4	4	2
109	135	1
22	22	2
63	112	1
29	30	1
66	100	2
74	74	1
125	125	2
142	142	1
27	27	1
129	129	3
113	113	1
50	51	1
123	147	1
54	64	1
7	7	3
98	98	1
46	46	2
92	94	1
133	133	1
34	35	1
14	14	2
54	54	3
111	152	1
31	65	2
73	73	4
142	151	1
110	110	1
28	55	1
39	39	1
151	151	1
20	20	2
79	107	3
78	99	1
20	21	1
25	113	1
40	47	1
18	18	2
13	13	1
129	136	1
17	108	1
58	64	1
24	24	4
145	145	2
23	108	1
130	130	3
35	35	2
150	150	2
122	122	2
19	19	3
5	6	1
40	40	2
118	118	3
95	95	2
153	153	1
26	35	1
133	134	1
13	16	1
144	144	4
30	30	1
133	142	1
10	65	1
76	76	2
11	68	1
97	99	1
119	119	3
137	137	1
108	109	2
64	68	1
17	17	2
79	102	1
53	53	4
57	57	2
85	85	1
109	109	1
131	133	1
141	141	1
38	40	1
83	104	1
130	131	1
12	12	1
77	77	3
43	111	1
138	138	1
36	63	2
25	25	1
47	56	1
75	79	1
78	78	2
9	10	1
112	113	1
42	144	1
126	127	1
104	144	1
92	92	2
2	2	2
37	92	2
42	42	4
32	33	1
150	151	1
12	13	2
41	42	1
4	5	1
129	130	1
145	146	1
96	96	1
145	152	1
40	41	1
41	41	2
8	82	1
95	136	1
49	49	1
40	44	2
136	138	1
84	84	1
26	32	1
13	14	3
18	20	1
43	44	1
23	23	1
28	28	1
67	69	1
114	114	1
143	144	1
92	95	1
66	66	1
3	72	1
6	147	1
132	132	1
21	21	2
16	48	1
3	3	2
124	125	1
43	43	1
134	135	1
128	128	1
112	139	1
38	38	4
105	105	1
117	136	1
105	108	1
99	100	2
101	134	1
37	37	1
51	51	1
128	151	1
93	93	1
69	103	2
34	34	1
68	73	1
48	49	1
119	154	1
79	99	1
10	10	1
70	70	2
106	107	1
116	116	1
122	147	1
112	112	2
120	120	2
62	62	2
63	63	1
30	54	1
56	56	1
117	150	4
45	111	1
16	41	1
11	13	2
49	65	1
15	15	1
76	103	1
147	148	1
75	77	1
10	51	1
53	57	1
99	99	1
37	38	1
22	66	1
55	55	1
121	121	1
109	130	1
68	68	1
135	135	1
49	76	1
96	99	1
131	131	1
72	73	1
113	114	1
47	47	1
38	50	1
6	121	1
31	31	1
28	32	1
67	133	1
78	79	1
73	74	1
75	103	1
88	88	1
