24	24	2
107	107	2
108	108	3
61	61	3
40	40	1
92	92	1
69	69	5
70	70	2
106	106	2
69	125	1
48	50	1
102	102	4
102	133	1
88	92	2
118	118	4
13	13	2
72	73	4
17	17	2
22	125	1
77	77	3
58	58	1
42	43	5
124	126	1
128	128	2
116	116	3
82	82	1
74	74	2
14	106	1
45	46	1
122	122	2
16	69	2
103	104	2
111	111	4
85	104	1
79	96	1
9	9	1
12	12	3
19	19	5
35	44	1
79	109	2
38	38	3
43	46	1
117	117	3
108	134	2
2	3	3
68	68	2
1	86	1
115	115	3
26	26	3
66	66	4
75	120	1
55	56	1
127	127	1
59	59	2
57	102	1
133	134	2
46	46	1
123	123	1
7	7	5
34	34	2
6	6	2
72	72	3
103	130	1
118	119	1
82	107	1
29	114	1
113	113	2
84	105	1
97	98	3
4	4	2
33	34	3
33	57	2
89	97	1
15	56	1
42	42	2
24	25	2
133	133	2
93	93	2
9	46	1
61	66	1
14	15	1
98	98	2
81	87	1
17	76	1
29	30	1
63	63	1
64	64	3
94	115	1
10	10	2
2	2	2
129	130	1
65	65	4
27	27	4
91	92	3
56	57	1
71	71	1
2	66	1
44	120	1
36	41	2
34	35	2
31	31	2
27	123	1
1	2	3
65	68	1
117	134	1
45	55	2
3	130	1
130	130	2
8	8	7
95	96	1
69	70	1
9	44	2
4	40	1
5	95	1
0	0	4
11	12	3
78	79	1
57	133	1
126	126	1
48	48	2
17	75	2
67	67	2
0	1	1
125	134	2
118	120	1
110	110	1
47	47	4
5	5	1
119	119	1
35	35	2
100	100	1
84	84	1
79	100	1
44	44	3
62	62	2
18	18	2
103	103	2
109	110	1
126	129	1
36	43	1
72	126	1
121	122	1
125	125	1
8	82	2
89	89	1
56	56	2
115	131	1
13	15	1
112	112	1
99	107	1
5	6	1
72	129	1
73	74	1
30	32	1
37	37	3
28	28	1
9	10	1
103	112	1
75	75	4
16	17	1
76	76	5
81	103	1
78	78	2
95	95	1
103	105	1
92	101	1
1	1	2
79	98	1
28	44	1
37	42	1
2	46	1
91	99	1
21	21	1
132	132	1
55	55	1
22	22	1
23	24	1
73	73	1
81	111	1
68	70	1
81	96	1
26	30	1
45	45	1
121	121	1
10	125	1
86	86	1
30	30	1
33	33	1
112	123	1
131	131	1
129	131	1
23	56	1
78	126	1
81	104	1
55	59	1
16	21	1
