100	100	6
88	88	5
92	92	3
81	124	2
150	150	4
113	117	3
32	44	1
117	117	3
6	6	1
73	73	6
87	87	3
27	27	3
81	81	4
5	5	3
41	41	3
80	81	1
18	18	4
145	146	1
16	16	4
54	54	2
113	115	1
157	157	7
21	21	4
23	26	1
155	155	7
126	126	2
62	67	1
149	149	4
44	44	3
38	38	2
109	109	5
15	15	3
124	126	2
43	44	1
124	133	1
105	105	2
46	46	2
95	97	2
121	122	1
53	54	2
134	134	2
93	93	3
21	22	1
22	27	1
154	154	6
2	2	4
34	34	3
56	79	1
79	81	2
129	129	2
57	57	1
12	13	1
117	118	1
0	0	5
127	127	4
50	51	2
9	104	1
50	52	2
77	77	3
6	7	1
151	151	4
11	19	1
71	71	4
33	33	6
139	139	3
23	48	1
79	87	1
3	3	1
89	89	1
82	82	4
14	14	2
30	30	1
47	47	6
35	36	1
62	155	1
81	87	1
19	19	1
130	130	4
51	51	1
8	8	1
158	158	3
9	9	2
145	147	1
91	91	3
114	115	1
23	24	1
113	146	1
129	130	2
85	87	1
152	153	1
37	38	1
70	70	4
132	138	1
48	48	3
114	114	4
16	147	1
44	45	1
91	92	2
69	71	1
54	121	2
138	138	2
12	32	4
17	48	1
67	67	3
86	113	1
8	151	2
103	103	2
153	153	2
12	17	1
121	121	3
118	141	2
17	17	3
8	11	1
97	127	1
145	154	1
148	148	2
38	39	2
55	56	1
52	52	5
37	37	4
79	84	1
119	120	3
53	53	2
26	27	2
24	24	6
118	122	1
78	79	3
96	116	1
146	159	1
110	122	1
10	11	1
132	132	2
142	144	1
101	101	4
18	47	1
43	49	1
135	135	6
120	140	1
128	129	2
76	76	4
10	30	1
72	73	1
94	95	1
146	156	1
108	118	1
83	83	3
119	119	1
99	99	5
77	78	1
148	154	2
22	22	3
127	150	1
115	115	3
118	137	1
69	70	1
31	32	2
140	140	2
0	44	1
84	85	1
111	113	1
143	144	1
94	94	2
126	127	1
78	78	5
39	40	1
155	156	1
156	156	2
29	32	1
35	35	3
9	127	1
86	92	1
8	15	1
143	143	2
84	84	2
104	104	3
118	118	3
123	123	3
1	1	5
122	137	1
114	136	3
42	42	3
142	143	1
100	101	1
128	128	3
23	23	2
28	28	1
89	118	1
97	97	6
36	36	4
56	56	2
16	17	1
134	150	2
9	10	3
64	64	1
112	112	2
78	91	2
69	69	1
62	64	1
102	104	1
133	133	2
112	119	1
41	42	3
110	110	3
85	86	1
97	98	1
40	40	1
39	39	2
49	49	2
17	53	1
33	141	1
131	143	1
80	80	2
86	86	2
90	90	3
26	26	3
157	158	1
79	79	1
3	103	1
73	106	1
2	9	1
33	54	1
148	149	3
125	125	1
14	53	1
103	121	1
55	55	2
18	19	1
55	120	1
10	31	1
46	47	1
37	39	1
120	120	1
89	91	1
96	127	1
68	68	2
144	144	1
4	10	1
107	127	2
108	119	1
52	53	1
141	141	1
28	29	2
98	98	2
87	156	1
147	147	2
40	43	3
13	13	3
96	97	1
118	119	2
10	17	1
4	4	4
107	107	1
50	103	1
97	105	1
125	128	1
156	157	1
75	75	3
127	140	1
40	41	1
25	25	1
95	95	3
80	126	1
136	136	4
152	152	2
41	49	1
31	33	1
14	15	2
92	134	1
40	49	1
137	137	4
49	71	1
31	31	3
136	143	1
12	12	3
34	35	3
63	64	1
111	111	1
98	133	1
65	66	1
15	18	2
15	16	1
6	43	1
1	26	1
80	87	1
145	145	1
128	130	2
124	125	1
1	2	1
154	155	1
82	87	1
138	139	1
66	150	1
2	3	1
65	65	1
103	113	1
61	61	1
122	123	1
7	7	1
131	131	1
111	115	1
11	11	1
45	45	1
10	46	1
83	85	1
135	138	1
9	54	1
85	85	1
20	20	2
42	49	1
23	25	1
43	43	1
141	151	1
0	1	1
1	39	1
14	16	1
64	112	1
108	124	1
4	49	1
16	81	1
78	95	1
106	106	1
72	72	1
6	36	1
136	138	1
108	117	1
82	88	1
109	110	1
70	71	1
136	141	1
99	128	1
27	154	1
158	159	1
36	37	1
118	120	1
122	122	1
132	133	1
40	54	1
14	39	1
65	127	1
147	149	1
123	125	1
51	54	1
49	70	1
