81	82	3
77	77	1
41	54	1
3	3	3
85	87	2
144	145	1
33	33	3
18	19	3
83	83	4
125	125	1
147	147	3
8	35	2
35	36	1
49	49	6
19	73	2
29	29	2
119	119	1
62	63	2
153	167	3
119	160	1
186	186	2
72	179	1
132	132	2
2	2	2
88	88	4
43	43	2
87	90	1
143	143	1
30	137	1
16	16	4
34	34	3
146	175	1
114	114	2
50	62	1
94	171	2
196	197	4
80	82	1
22	22	4
25	25	2
39	39	1
126	127	1
112	112	5
111	156	1
172	179	1
133	134	2
126	137	1
54	71	1
60	60	4
132	133	1
180	180	1
52	52	2
133	133	2
8	27	1
8	36	1
187	187	3
157	157	3
90	173	1
47	47	2
19	19	1
41	41	2
190	190	1
48	48	2
10	11	1
166	166	4
106	148	2
96	188	1
22	63	1
37	57	1
30	31	2
22	23	1
98	98	4
95	97	1
4	148	1
12	197	1
179	180	1
19	20	2
3	120	1
153	154	2
121	121	5
46	46	2
26	69	2
97	144	2
93	97	1
42	42	5
196	196	3
161	162	2
101	101	4
145	145	1
127	127	6
156	156	4
168	168	5
9	10	1
111	111	1
17	17	1
21	21	2
141	141	4
123	123	3
26	26	1
149	150	3
179	179	3
171	171	5
90	180	1
55	55	3
23	72	1
47	53	1
27	27	1
160	161	1
71	71	2
96	96	4
157	159	1
94	97	1
3	4	2
191	191	7
28	28	1
78	79	1
20	20	1
71	72	1
31	33	1
185	185	1
11	12	2
108	165	1
66	79	1
138	138	1
111	112	1
94	94	1
84	84	1
108	108	5
122	122	3
28	190	1
170	170	6
152	152	3
170	171	3
175	175	5
25	26	2
7	64	1
145	147	2
72	72	6
115	116	2
177	177	2
161	164	1
158	159	3
36	36	1
158	158	3
36	85	2
173	177	1
113	113	1
9	9	4
158	161	2
6	6	2
126	126	1
150	150	2
40	41	1
157	166	1
35	89	1
156	165	1
54	54	3
89	89	2
10	10	1
78	82	1
154	162	1
0	1	1
24	24	1
124	125	2
17	19	1
40	40	2
63	63	2
59	59	1
87	87	1
147	148	1
30	30	3
171	178	1
37	41	3
45	45	1
95	103	1
73	73	1
73	76	1
137	137	1
13	13	1
64	68	1
116	118	1
34	35	1
11	15	1
54	58	2
40	42	1
160	160	2
33	175	1
169	169	3
8	13	1
100	101	1
109	156	1
109	109	2
176	177	1
139	140	1
102	102	3
173	173	1
193	193	3
161	161	1
23	24	1
59	60	1
15	15	1
124	124	3
0	3	1
188	188	2
67	67	2
61	64	1
42	47	1
182	182	2
104	147	1
106	106	2
31	194	1
165	165	2
2	29	1
120	120	2
53	139	1
100	143	2
178	178	3
18	34	1
191	192	2
107	178	1
1	1	4
107	107	1
58	58	3
151	151	1
31	31	3
51	53	1
111	169	2
49	51	1
51	51	1
94	103	1
44	174	1
148	153	1
20	21	1
47	186	1
197	197	2
194	195	1
3	7	1
164	172	1
143	144	1
45	46	1
7	26	1
103	103	1
167	167	2
33	189	1
43	135	1
6	35	1
185	186	2
0	65	1
176	176	1
118	118	1
173	178	1
25	86	1
166	167	1
3	134	1
32	32	2
44	44	2
66	66	1
187	191	1
192	193	1
79	85	1
184	184	2
105	107	1
68	68	2
130	131	1
105	106	2
159	166	1
150	151	1
103	104	1
128	128	1
195	195	1
132	135	1
76	89	1
93	93	1
70	86	1
136	136	2
148	148	1
15	16	1
107	150	1
82	85	1
129	129	2
50	50	1
70	70	2
122	123	1
15	81	1
115	115	1
135	135	1
11	11	2
140	140	1
164	164	1
162	162	1
18	28	1
119	141	2
101	107	1
67	68	1
38	39	1
53	53	2
11	13	1
155	155	1
173	174	1
105	176	1
1	73	1
97	98	1
100	100	1
61	61	1
2	70	1
96	102	1
6	33	1
104	104	1
131	131	2
76	76	1
148	176	1
38	38	1
7	31	1
64	64	1
35	140	1
103	105	1
81	116	1
84	85	1
32	69	1
172	174	1
96	182	1
148	196	1
35	39	1
189	189	1
176	178	1
57	57	1
102	109	1
88	169	1
102	103	1
190	191	1
86	86	1
69	79	1
180	181	1
82	83	1
150	171	1
79	79	1
