37	37	6
17	17	2
56	56	3
148	148	4
112	112	4
27	27	2
14	138	1
42	42	2
140	140	1
93	93	2
125	126	1
75	75	4
118	118	4
130	131	1
55	163	1
165	165	2
53	53	1
53	56	2
115	127	1
85	86	3
1	2	2
41	41	2
134	134	5
73	73	1
74	74	7
23	23	1
143	144	1
109	109	2
40	46	1
80	83	1
144	149	2
84	103	1
20	20	1
13	16	1
11	11	3
85	85	1
90	90	2
10	10	3
103	103	3
133	136	1
117	117	4
145	145	1
40	54	1
43	43	3
152	152	2
34	34	1
23	24	1
87	101	1
47	47	1
77	142	1
52	52	2
99	99	3
89	134	1
154	154	2
104	104	1
137	137	3
50	50	2
167	167	3
86	86	1
149	149	5
24	81	2
114	114	2
33	89	1
76	142	1
137	138	1
24	130	1
123	165	1
105	105	2
123	123	2
110	122	1
19	19	1
159	159	2
15	15	4
54	54	3
67	67	1
35	35	5
25	150	2
70	76	3
68	68	5
113	116	1
14	14	2
120	123	1
12	139	1
64	136	1
80	80	4
149	152	2
13	13	5
82	82	1
45	45	3
48	49	2
165	166	1
36	44	1
94	95	1
147	147	3
15	149	1
38	38	3
87	102	1
116	132	2
2	2	2
37	157	1
76	97	1
20	150	2
140	147	2
83	83	2
143	148	3
39	111	1
106	139	2
96	132	1
63	63	2
74	147	1
44	44	2
106	106	3
77	77	3
161	161	1
5	5	2
33	33	2
157	157	3
66	66	1
144	144	2
166	170	1
136	136	2
57	57	1
94	100	2
39	39	3
3	169	1
21	21	1
9	9	1
130	130	2
43	89	1
97	97	1
95	97	2
130	139	1
69	118	1
47	48	1
156	158	1
128	137	1
128	128	3
78	160	1
113	114	1
88	131	1
110	112	1
96	99	1
79	162	1
77	78	2
25	25	2
12	12	2
94	96	1
37	151	1
17	19	1
71	71	1
92	92	2
138	138	1
100	100	4
51	55	2
106	112	1
65	105	1
16	33	1
127	141	1
113	113	2
15	41	1
133	133	1
158	158	3
56	74	1
104	128	1
151	158	1
64	134	2
36	36	5
22	130	1
84	160	1
107	107	1
76	76	2
166	166	1
164	170	1
64	99	1
57	114	1
7	7	1
76	80	2
19	73	1
57	58	1
108	108	1
15	156	1
3	44	1
148	149	1
37	150	2
77	87	1
16	157	1
64	156	2
24	24	1
50	79	1
92	102	1
17	132	1
16	42	1
70	70	1
155	155	1
168	169	2
15	70	1
1	1	1
116	122	1
116	116	1
78	88	1
64	64	1
6	6	1
121	125	2
39	45	1
16	16	4
4	4	1
142	147	1
111	111	1
5	6	1
132	132	1
0	1	1
127	131	1
66	67	1
134	151	1
35	36	1
92	164	1
120	120	1
107	110	1
2	14	1
81	81	2
21	154	1
63	64	1
150	150	1
94	94	1
153	153	1
24	101	1
164	164	1
48	118	1
23	119	1
26	27	1
102	102	1
21	22	2
56	57	1
46	46	1
139	139	3
38	52	2
1	130	1
132	159	1
154	159	1
96	96	1
108	109	1
124	124	2
36	37	1
98	98	1
91	91	1
103	129	1
53	54	1
132	160	1
75	119	1
22	22	3
84	85	1
