102	105	1
47	63	2
141	141	3
111	111	2
1	1	2
93	93	3
159	159	3
45	49	1
140	140	1
27	34	2
57	57	2
7	41	1
157	166	1
46	46	3
91	138	1
106	106	3
103	103	5
20	20	3
151	151	1
104	104	1
46	117	1
139	158	1
17	17	1
66	66	1
158	158	4
142	158	1
139	139	2
4	4	2
85	87	2
112	112	3
40	45	1
149	149	6
126	126	2
123	123	1
22	22	2
137	137	1
20	22	1
81	141	1
34	42	1
99	99	4
68	68	1
154	154	3
51	51	2
38	38	4
5	5	2
53	161	1
129	129	1
138	138	3
117	117	1
108	108	7
63	63	1
4	13	1
14	14	3
33	33	2
160	160	3
101	101	1
169	169	1
100	123	1
143	143	2
47	55	1
84	85	2
41	41	3
162	163	2
169	170	1
161	165	1
69	75	1
69	69	2
92	92	1
54	67	1
72	72	4
139	162	1
125	125	3
153	153	2
49	49	3
83	155	1
43	43	4
96	96	5
56	56	2
25	25	1
47	47	1
48	56	1
144	144	2
16	39	2
94	115	1
11	11	1
133	133	2
42	42	3
22	23	1
39	40	1
91	127	1
33	34	1
142	156	1
75	75	2
132	132	3
127	127	4
85	85	3
86	86	1
84	84	1
83	83	3
78	78	2
82	105	1
100	132	1
92	112	1
134	139	1
76	76	3
81	81	3
6	6	1
103	141	1
44	45	1
122	153	1
127	140	1
28	28	2
136	136	1
121	121	1
83	101	1
94	105	1
161	162	2
7	7	4
49	54	1
76	86	1
62	63	1
127	132	1
114	155	1
56	57	1
37	37	2
82	84	1
78	79	1
41	99	2
92	114	1
2	2	1
90	90	2
85	105	1
119	138	1
115	115	1
142	142	2
70	70	1
155	155	1
105	105	4
18	19	2
102	103	1
164	170	1
156	156	1
55	55	2
0	1	1
147	148	1
26	26	1
22	132	1
50	50	1
153	154	1
125	141	1
35	35	1
8	9	1
19	83	2
20	26	1
79	79	2
134	134	2
121	122	1
64	64	1
101	127	1
164	164	1
80	84	1
7	39	2
159	160	1
122	122	1
40	46	2
132	135	1
83	84	1
2	12	1
94	127	1
88	137	1
114	114	1
80	117	1
74	74	1
128	129	1
10	10	2
96	97	1
150	150	2
106	108	1
116	116	2
135	135	1
44	44	1
69	87	1
69	86	1
15	15	1
13	35	1
62	92	1
24	86	2
146	146	1
154	155	1
5	6	2
122	144	1
54	54	1
164	166	1
78	89	1
158	159	1
145	145	1
170	170	3
100	122	1
118	119	1
37	39	1
48	48	1
162	162	1
16	16	1
77	87	1
36	36	1
89	89	1
24	24	1
49	50	1
71	71	1
119	119	1
130	130	1
68	129	1
12	12	1
91	98	1
163	168	1
27	27	1
146	153	1
7	8	1
97	97	2
90	136	1
82	83	1
41	57	1
73	73	1
53	53	1
65	65	1
5	158	1
18	18	1
166	167	1
15	43	1
99	100	1
52	53	1
76	100	1
157	158	1
64	65	1
