50	133	1
150	150	3
83	84	3
47	47	4
38	39	1
196	196	5
151	174	1
176	176	6
145	147	1
101	101	2
172	183	1
140	182	1
194	194	2
74	100	1
27	27	2
60	60	4
144	144	3
124	125	2
65	65	1
56	56	3
197	197	2
59	60	2
113	119	1
56	72	3
162	162	3
158	158	1
185	185	3
28	28	2
163	164	3
49	49	3
67	68	1
94	94	2
51	56	1
34	58	1
115	115	4
190	191	1
145	177	1
37	37	1
51	54	2
132	132	2
52	52	7
42	42	1
57	57	2
6	6	2
161	161	5
113	113	4
143	145	4
161	163	1
33	57	2
163	163	3
72	73	2
174	175	1
172	172	3
186	186	4
105	105	2
24	26	2
149	149	4
99	99	1
125	125	1
2	120	1
139	158	1
78	78	4
23	27	1
167	180	1
113	114	1
61	115	3
40	96	1
30	32	1
45	46	1
62	63	2
40	41	2
104	118	1
69	73	1
190	190	2
80	80	1
169	170	2
138	138	1
94	95	1
72	72	4
116	116	3
184	184	4
167	172	1
189	189	4
170	170	4
68	69	2
48	48	3
155	161	2
191	192	2
154	161	1
99	114	2
39	39	6
41	41	4
38	63	1
121	121	4
127	127	2
5	180	1
71	85	1
10	11	1
46	46	1
4	4	3
5	5	3
56	136	2
183	184	2
63	66	1
140	172	1
135	135	2
145	154	3
76	100	2
31	57	1
141	141	3
112	112	5
178	178	2
128	131	1
127	128	2
174	174	2
61	62	1
153	154	1
10	10	1
155	155	2
33	38	1
12	13	1
170	182	1
110	110	3
17	18	1
86	151	1
99	100	1
53	73	2
79	85	1
133	133	2
40	40	2
96	96	2
117	118	2
18	19	1
74	74	2
7	7	3
4	66	1
193	193	3
0	0	2
39	138	1
131	131	2
80	81	1
142	150	1
168	168	3
119	119	3
16	32	1
103	148	1
2	2	4
182	182	2
136	142	1
0	66	1
80	82	1
117	117	1
114	115	3
116	136	1
82	84	2
156	158	1
129	129	1
137	137	2
156	156	1
62	62	1
36	36	1
187	187	1
13	13	6
147	169	1
18	97	3
119	178	1
117	158	1
3	3	2
142	143	1
64	64	2
125	133	1
11	12	1
38	38	3
114	121	1
97	171	1
144	174	1
73	75	1
171	171	2
166	166	1
175	175	2
159	159	7
139	139	4
183	183	4
188	190	1
111	111	1
9	9	3
6	165	1
76	78	1
101	102	1
4	8	1
165	166	1
165	165	1
102	102	3
101	149	1
120	154	1
23	114	1
20	20	1
162	163	1
6	7	1
22	22	1
1	1	3
133	134	3
68	68	2
111	112	1
107	114	2
77	78	1
146	146	1
107	107	1
114	114	2
147	148	2
30	31	2
154	154	1
101	103	1
195	195	1
86	86	1
31	31	2
13	59	1
151	151	2
33	33	2
39	40	1
106	107	1
7	24	1
157	157	1
181	181	1
143	143	1
121	161	1
54	55	2
104	104	5
36	114	1
113	148	1
105	106	1
22	27	1
7	8	1
81	81	2
177	177	2
134	134	1
183	185	2
71	72	1
191	191	1
60	146	1
53	53	4
128	129	1
160	160	2
145	178	1
19	19	1
47	48	1
125	134	1
136	157	1
115	117	1
180	180	1
45	45	1
37	38	1
6	9	1
93	94	1
48	57	1
63	63	1
167	169	1
67	67	2
30	30	1
188	188	1
43	44	1
21	99	1
178	181	1
50	50	2
79	79	2
191	197	1
125	132	1
70	71	1
3	20	1
4	6	1
9	16	1
21	34	1
9	17	1
98	98	1
121	142	1
102	120	1
97	98	1
25	37	1
119	121	1
120	158	1
88	88	1
84	84	1
11	11	1
25	25	2
83	83	1
64	65	1
23	23	2
9	10	1
136	136	1
145	172	1
100	100	1
50	51	1
62	67	1
73	73	2
152	153	1
58	58	1
130	136	1
154	189	1
17	17	1
6	50	1
167	167	2
125	127	1
71	71	1
97	100	1
139	148	1
29	64	1
95	95	1
168	170	1
19	20	1
145	145	1
68	87	1
26	26	1
27	120	1
189	190	1
66	67	1
70	70	1
98	156	1
