12	47	1
121	123	3
51	62	1
29	29	3
28	87	1
17	18	2
24	24	2
125	133	1
111	114	1
133	133	2
11	11	1
15	20	1
80	89	2
6	14	1
34	35	3
2	2	4
134	134	5
76	95	2
70	96	2
122	122	2
85	118	1
106	107	1
8	8	1
98	98	1
7	20	1
3	3	4
126	126	2
117	131	2
117	118	1
33	33	2
78	123	1
110	141	2
13	15	2
18	18	2
12	51	2
83	83	1
144	147	1
22	22	3
50	83	2
43	44	1
39	40	1
127	131	1
148	149	2
67	67	3
49	49	2
128	128	2
103	106	1
23	24	2
127	127	3
83	139	1
154	155	2
25	117	2
8	54	1
107	107	3
116	116	3
63	63	2
31	112	2
46	47	1
139	139	2
88	88	5
92	92	4
144	145	2
145	146	3
2	35	1
32	34	1
51	57	2
109	111	1
105	106	1
8	50	1
49	50	1
137	137	1
34	42	1
55	110	1
119	120	2
103	103	3
1	1	2
56	56	2
72	72	1
37	37	3
6	21	1
95	96	1
120	120	1
40	113	1
124	124	1
81	81	1
142	153	1
4	43	1
111	117	1
20	21	1
45	95	1
9	10	3
39	39	1
155	157	1
85	86	1
123	123	2
104	132	1
41	43	1
103	112	1
136	146	1
121	121	1
75	75	1
157	157	2
14	29	1
156	156	1
28	28	2
135	135	1
23	23	2
81	88	1
18	38	1
96	107	1
4	4	2
129	152	1
153	157	3
114	123	1
14	14	1
25	47	2
125	136	1
111	111	2
76	76	1
53	67	1
70	70	3
92	96	2
126	127	1
29	38	1
118	121	1
136	137	1
47	47	4
135	144	1
99	101	1
20	20	1
9	9	2
73	73	2
79	116	1
123	139	1
46	46	2
66	66	3
91	91	2
113	113	1
100	102	1
34	34	5
115	134	1
142	143	1
68	69	1
77	77	1
122	156	1
137	157	1
40	41	2
146	146	1
7	7	2
144	144	2
131	131	1
69	69	2
47	77	1
94	94	5
112	112	1
18	20	1
143	144	1
114	121	2
78	78	1
48	48	3
26	36	1
84	84	1
41	41	1
115	116	1
76	86	1
31	31	1
13	14	1
13	25	1
113	152	1
31	63	1
120	147	2
84	87	1
119	119	4
95	138	1
55	56	1
6	6	1
100	100	1
110	119	1
57	63	1
67	97	2
129	130	1
136	136	2
98	115	1
125	125	1
141	141	2
118	123	1
118	118	2
53	55	1
7	15	3
47	49	1
138	154	1
96	96	2
132	132	2
89	89	5
99	99	1
142	142	1
21	95	1
137	153	1
36	86	1
30	30	3
16	52	1
33	34	1
15	15	1
102	102	1
90	115	1
125	126	2
23	37	1
78	86	1
20	54	1
73	93	1
34	120	1
152	152	1
0	0	1
80	80	1
35	47	1
149	149	2
82	111	1
99	137	1
43	43	1
86	119	1
110	127	1
25	37	1
43	140	1
106	106	2
154	157	1
122	124	1
124	153	1
116	119	1
12	49	1
98	102	1
14	15	1
130	130	1
150	150	1
81	85	1
67	68	2
32	47	1
4	157	1
21	105	1
8	9	1
36	39	1
150	151	1
118	144	1
89	91	1
15	29	1
81	147	1
138	152	1
93	93	1
35	36	1
9	14	2
82	82	1
25	25	1
148	148	1
12	12	1
24	39	1
41	49	1
110	111	1
11	15	1
122	126	1
5	42	1
154	154	1
141	142	1
86	86	1
10	51	1
7	44	2
62	62	2
152	155	1
9	16	1
95	95	2
50	65	1
42	42	1
77	80	1
40	40	1
46	52	1
143	143	1
21	31	1
14	55	1
133	134	1
65	66	1
107	121	1
10	20	1
140	140	1
145	145	1
156	157	1
