117	117	4
93	93	2
156	160	1
144	144	1
86	86	4
69	69	1
16	16	2
199	247	2
147	147	3
32	33	2
207	207	2
225	225	1
119	119	6
166	166	2
192	193	1
31	31	3
118	119	1
90	91	1
92	119	1
189	194	1
113	113	3
18	18	2
191	191	2
52	53	1
3	4	1
72	77	2
95	95	2
59	59	4
48	48	2
35	35	1
202	202	1
56	57	2
247	248	1
180	180	4
157	161	2
58	58	4
28	28	2
203	204	1
177	177	2
168	206	1
44	44	2
203	203	1
172	174	1
175	175	2
93	176	2
218	218	1
89	94	1
76	79	1
185	213	1
151	155	1
189	224	1
156	156	2
221	221	3
37	37	2
158	158	2
118	118	3
62	102	1
211	211	3
68	68	3
41	41	5
49	49	1
68	71	1
27	202	1
209	209	4
77	77	1
197	197	2
224	224	1
217	217	3
222	222	1
30	31	2
208	210	2
17	17	2
216	223	2
96	97	1
6	6	2
55	58	3
219	219	1
4	4	1
213	213	3
245	245	3
151	156	1
234	234	3
215	215	1
109	109	1
115	115	1
74	74	1
78	190	2
174	174	3
153	154	1
74	76	1
175	186	1
210	210	1
36	38	1
232	232	1
52	52	1
61	61	3
17	18	1
191	192	1
192	192	1
71	80	1
170	171	1
32	32	1
101	101	2
200	200	1
78	78	3
151	151	4
243	244	3
68	70	1
62	83	1
238	239	3
3	38	1
227	227	1
218	220	2
199	200	1
226	227	1
21	21	1
181	181	4
233	233	1
50	50	1
162	162	1
55	55	2
38	38	1
232	245	1
63	63	1
87	89	1
201	201	2
173	174	2
8	8	3
23	37	1
236	236	1
4	5	2
39	39	1
11	12	1
111	111	5
45	46	3
231	231	3
39	156	1
114	114	1
230	231	1
43	45	3
36	156	2
27	39	1
13	34	1
75	113	2
1	1	3
14	15	1
167	170	2
106	169	1
69	108	1
59	64	2
238	238	2
92	92	1
49	87	2
180	183	1
62	62	2
54	56	1
83	96	3
154	206	1
207	208	1
172	184	1
187	188	1
84	84	1
79	79	1
107	107	2
81	81	1
9	12	2
43	44	1
184	184	2
56	56	3
233	248	1
235	235	3
157	157	1
202	211	1
64	64	1
155	156	1
182	182	3
112	112	1
42	44	1
102	102	1
168	168	2
160	160	2
87	87	1
115	116	1
220	220	3
65	177	2
89	90	1
246	246	2
240	242	1
146	147	1
22	22	1
212	246	1
219	221	2
173	175	1
183	212	2
36	36	2
190	190	1
215	216	1
65	65	1
150	150	1
178	240	1
86	97	1
172	183	1
188	190	1
36	37	2
107	197	1
242	242	1
7	7	1
77	197	1
161	161	1
169	214	1
239	239	1
165	177	1
28	34	1
187	187	1
226	226	1
20	20	1
167	167	2
60	61	1
101	114	1
27	32	1
14	14	1
9	9	1
176	176	2
153	153	1
214	215	1
192	223	1
247	247	1
116	117	1
30	59	1
51	52	2
244	245	2
17	226	1
28	32	1
217	222	2
76	76	1
244	247	1
112	114	1
165	165	1
190	191	1
57	58	1
0	0	1
86	87	1
168	169	1
239	240	1
237	245	1
83	115	1
165	166	1
55	56	2
45	45	1
31	32	2
43	43	1
231	233	1
183	183	1
218	223	1
45	205	1
73	75	1
8	9	1
5	5	1
58	59	1
204	204	1
223	223	1
171	171	1
39	151	1
180	182	1
155	157	1
75	79	1
118	120	1
59	62	1
169	175	1
229	229	1
15	15	2
218	240	1
243	243	1
31	71	1
202	205	1
71	113	1
