26	228	2
201	210	2
207	208	1
233	233	5
104	107	1
30	30	2
19	20	2
53	53	2
174	174	6
217	217	2
157	157	2
183	184	2
148	148	1
237	242	2
139	139	1
108	108	1
222	230	1
86	99	1
15	50	1
210	210	3
164	165	1
119	120	2
118	143	1
203	206	3
76	76	1
22	29	2
164	164	2
101	101	1
113	122	2
116	124	1
162	162	5
178	178	4
26	26	2
149	149	2
142	143	1
199	200	5
130	131	2
100	100	4
81	83	3
152	152	1
64	86	1
24	24	4
79	81	1
69	69	2
0	21	1
211	211	1
37	37	1
119	119	2
47	47	4
104	104	2
193	193	2
201	201	2
32	32	1
7	231	1
8	9	2
66	71	1
221	221	2
212	212	1
206	206	2
197	197	4
56	56	2
234	235	1
119	161	1
73	86	1
131	131	2
113	216	1
62	62	1
136	136	3
143	156	2
12	13	2
219	219	3
2	2	1
103	229	2
135	144	1
27	27	2
137	142	1
22	22	1
220	224	2
108	186	1
206	223	1
23	26	1
147	147	1
189	206	1
216	218	1
14	14	2
153	153	1
46	47	1
86	86	2
47	48	2
123	146	1
111	111	2
118	199	2
154	154	1
224	225	2
2	3	1
144	144	1
112	199	2
58	59	1
140	140	2
168	169	1
146	146	2
42	42	2
61	61	6
72	214	1
1	1	1
125	125	4
192	192	1
48	48	3
167	184	1
115	115	3
146	176	1
174	175	1
19	19	2
68	68	3
122	122	2
32	113	1
7	17	1
120	121	1
38	39	1
145	190	1
213	213	1
28	28	1
3	3	1
65	66	1
40	40	2
38	38	2
136	143	1
168	189	1
85	85	1
138	141	1
107	163	1
159	160	1
50	50	2
152	162	1
235	235	1
12	12	2
107	123	1
107	187	2
184	184	1
70	70	2
123	165	2
150	164	1
145	146	1
46	74	1
155	155	1
241	241	2
179	179	2
43	43	3
59	76	1
117	130	1
84	216	1
81	81	1
207	225	2
225	225	3
182	187	1
117	117	3
164	166	1
123	123	1
214	214	1
84	84	1
126	184	1
9	12	1
209	209	3
186	186	1
116	133	1
181	181	2
21	22	1
119	122	1
73	73	1
109	109	3
131	134	1
170	170	2
49	49	3
203	225	1
55	56	1
15	15	1
16	16	1
57	57	3
169	169	2
191	191	2
200	200	1
57	58	1
116	130	1
208	208	1
160	160	2
14	34	1
144	147	1
19	46	1
202	216	1
140	166	1
60	213	1
196	197	1
231	231	1
20	46	1
185	185	2
173	197	1
7	7	2
151	182	1
75	75	2
139	152	1
60	60	3
188	196	1
45	45	2
43	44	1
28	30	1
176	176	1
74	74	4
19	56	1
82	82	2
183	183	1
159	173	2
17	18	1
218	218	2
142	142	1
5	5	1
129	131	1
109	159	1
211	226	1
4	4	1
41	55	1
197	204	1
0	0	2
103	104	1
194	200	1
228	228	1
241	242	2
146	188	1
57	76	2
37	61	1
8	8	1
37	70	1
126	149	1
84	85	1
166	166	2
161	161	2
102	118	1
41	41	1
18	23	1
7	127	1
116	116	2
18	33	1
80	81	1
217	218	2
198	215	1
9	239	1
239	239	1
152	159	1
238	238	1
41	85	1
232	232	2
22	34	1
10	10	1
109	148	1
220	220	2
144	145	1
141	141	1
137	137	1
96	96	1
65	110	1
29	29	1
15	55	1
174	224	1
43	128	1
158	161	2
149	150	1
170	171	1
25	221	1
177	177	1
209	226	1
18	18	1
188	216	1
205	206	1
27	88	1
88	95	1
39	39	2
52	83	1
169	180	2
165	165	1
75	77	1
30	32	1
187	187	1
3	16	1
133	133	2
65	65	2
4	5	1
43	86	1
71	73	1
47	191	1
33	33	2
20	20	3
207	207	1
11	42	2
9	122	1
103	120	1
129	129	2
187	209	1
228	231	1
31	31	2
70	72	1
127	127	2
221	223	1
180	183	1
194	194	1
120	127	1
126	126	1
64	64	1
145	176	1
13	15	1
220	221	1
234	234	1
145	145	1
8	37	1
170	180	2
121	121	1
83	83	1
192	199	1
49	59	2
77	77	1
154	164	1
106	163	1
128	128	1
14	35	1
46	70	1
36	37	2
198	198	1
62	69	1
168	168	1
67	71	1
133	157	1
240	240	2
105	194	1
97	97	1
143	143	1
77	84	1
205	229	1
205	205	2
19	57	1
199	199	3
71	84	1
158	160	1
100	226	1
30	44	1
175	175	1
95	95	1
114	167	1
180	180	1
45	47	1
184	188	1
72	72	1
125	126	1
50	107	1
99	99	1
187	188	1
151	157	1
120	120	1
242	242	1
62	63	1
58	58	1
158	158	1
6	12	1
49	51	1
239	240	1
3	36	1
57	59	1
53	55	1
79	79	1
7	8	1
186	195	1
117	124	1
131	187	1
102	103	1
168	179	1
105	105	1
21	29	1
131	148	1
128	129	1
16	54	1
54	54	1
