142	142	4
99	99	5
49	49	4
31	31	1
49	50	1
47	88	1
118	118	4
30	30	6
66	66	2
40	40	10
104	105	3
83	83	3
143	145	1
82	82	2
64	65	4
127	132	1
77	88	1
95	95	2
87	87	3
41	141	1
96	99	1
130	133	1
122	122	3
98	99	1
29	30	2
69	75	2
0	0	3
42	42	4
9	9	6
78	78	3
15	32	1
70	72	1
120	125	1
19	32	1
52	52	4
128	128	6
37	38	1
5	16	3
33	33	4
63	66	1
35	35	5
10	10	7
80	80	3
138	138	1
53	53	6
114	121	4
57	58	1
39	39	2
8	8	3
37	37	6
32	32	3
57	57	2
124	124	6
26	26	4
134	134	5
64	64	6
99	101	2
75	75	3
66	67	1
3	3	5
15	15	2
93	93	4
42	101	1
13	13	2
11	71	1
54	54	3
17	17	2
98	124	1
69	69	3
120	121	2
55	85	1
109	109	2
104	104	4
61	62	3
112	112	5
95	96	1
19	19	4
119	119	4
96	126	1
79	84	2
145	145	1
127	129	1
134	135	1
33	38	2
117	117	2
34	34	5
98	127	1
53	62	2
120	129	1
126	131	1
135	138	1
28	38	1
28	28	4
31	32	3
10	127	1
58	58	4
48	48	3
73	73	4
88	89	2
22	22	4
1	30	1
99	104	1
137	137	2
40	41	1
60	60	5
18	18	3
144	144	4
34	53	2
89	91	1
61	61	4
121	121	3
64	67	1
129	129	4
116	116	4
65	65	5
122	123	3
140	140	4
10	27	2
115	115	2
106	107	3
109	110	1
69	104	2
101	101	2
11	11	4
111	111	2
65	83	3
71	123	1
142	144	1
81	81	3
92	92	3
76	76	3
93	124	1
105	105	1
86	86	4
136	136	2
101	102	1
43	43	4
36	42	1
39	40	1
127	128	1
21	67	1
101	103	1
0	18	1
62	62	4
6	6	6
70	70	1
41	41	1
126	135	1
109	111	2
104	117	1
137	138	3
127	136	1
58	61	1
9	17	2
1	1	2
108	109	5
123	124	2
38	38	4
117	118	1
98	98	5
73	97	1
76	80	2
30	41	1
91	91	4
48	87	2
9	11	1
64	66	1
72	72	1
83	85	1
0	1	2
107	107	4
5	5	4
139	140	2
1	21	1
25	25	9
23	25	1
90	91	1
2	47	2
4	5	1
105	122	2
27	28	2
133	133	3
40	43	1
12	12	2
20	20	1
126	126	2
116	117	2
132	132	2
94	97	1
56	56	2
121	123	1
14	20	1
41	103	1
71	71	2
73	79	1
85	109	1
55	55	4
19	20	2
123	123	2
94	94	2
64	108	1
6	40	1
88	88	1
73	74	1
41	43	2
23	23	1
9	15	1
107	111	1
77	79	2
89	89	1
136	146	1
61	99	1
108	108	2
102	102	3
29	29	3
72	75	1
51	114	1
76	77	2
106	106	2
27	27	2
84	84	1
59	60	1
6	41	1
83	127	1
30	32	1
60	86	1
3	4	2
139	139	2
125	125	1
102	103	1
50	51	2
53	54	2
32	71	1
74	74	2
40	50	1
96	96	2
67	67	2
105	108	1
113	131	1
13	43	1
36	36	3
124	125	2
68	68	1
16	16	2
19	25	1
103	103	3
128	133	1
125	126	1
69	82	1
36	37	1
74	79	2
130	137	1
97	98	1
86	97	1
96	98	1
56	95	1
72	83	1
120	120	2
93	138	1
143	143	3
132	140	1
110	110	3
54	55	1
108	121	1
75	111	1
76	97	1
20	34	1
59	62	1
17	21	1
111	112	1
131	131	2
85	131	1
24	24	2
3	12	1
87	106	1
23	37	1
91	93	1
49	114	1
127	127	2
96	97	1
121	122	2
75	77	1
84	85	1
51	51	1
19	40	1
91	92	1
76	79	1
104	106	1
5	40	1
31	33	1
95	104	1
24	86	1
86	134	1
63	63	1
56	57	1
26	27	1
76	111	1
33	47	1
145	146	2
85	85	1
69	73	1
123	132	1
35	36	1
54	61	1
139	141	2
131	133	1
21	21	1
4	34	2
14	15	1
119	134	1
62	70	1
91	115	1
11	101	1
127	130	1
62	65	1
130	130	1
49	107	1
85	132	1
90	90	1
81	82	1
16	32	1
38	82	1
65	66	1
63	81	1
57	74	1
20	21	1
15	31	1
