135	145	1
148	148	1
135	137	4
85	86	1
71	71	3
121	122	1
112	113	4
45	45	3
71	81	1
107	107	1
7	46	1
90	90	4
33	33	3
93	141	1
73	73	3
136	136	1
48	49	1
67	69	2
133	133	1
15	15	2
23	75	1
134	149	1
40	78	1
13	16	1
36	140	2
7	7	4
88	138	2
42	45	2
22	45	2
134	134	5
96	96	5
93	93	4
72	92	1
64	64	1
106	106	3
14	14	2
109	110	1
36	37	1
36	36	1
1	1	3
105	106	2
94	97	1
39	96	2
132	136	2
26	66	1
53	53	2
103	125	1
131	133	2
83	107	1
69	123	1
16	16	1
152	153	1
119	136	3
65	65	2
95	137	1
154	154	3
109	111	1
135	135	3
156	156	1
18	18	2
49	50	1
108	108	3
105	105	2
109	109	4
139	139	6
89	89	2
8	9	2
86	125	2
33	34	2
138	138	2
37	37	3
71	86	1
124	126	2
151	151	1
1	23	1
27	27	2
29	29	2
3	3	4
134	139	2
20	94	1
132	132	2
116	117	1
78	78	6
28	28	3
32	32	2
125	126	1
129	129	2
4	4	3
141	141	1
51	55	1
3	56	1
50	50	3
77	81	1
122	124	1
125	125	2
7	8	1
22	47	2
130	130	5
18	20	2
70	70	2
81	147	1
83	85	1
8	13	1
2	2	2
35	35	2
124	141	1
118	153	1
72	72	1
50	118	1
38	38	1
40	40	2
21	21	2
103	104	1
15	116	1
98	98	1
115	116	1
118	118	4
155	155	3
94	98	2
104	130	1
140	140	3
36	57	1
97	97	1
153	153	2
111	154	1
29	30	1
100	100	2
77	77	1
55	55	3
6	6	2
83	83	2
53	54	1
0	158	1
116	116	3
28	29	1
78	79	3
27	36	1
134	135	2
108	115	1
51	51	1
39	77	1
25	31	1
52	52	2
103	122	2
132	133	1
63	89	1
123	127	2
104	104	1
32	37	3
94	94	2
67	86	1
121	121	3
69	69	2
41	42	1
68	69	1
103	103	3
41	41	1
78	92	2
11	26	1
136	148	1
26	27	1
13	93	1
40	48	1
81	81	2
7	28	1
120	132	2
42	50	1
112	112	2
117	153	1
119	119	2
152	152	2
19	21	1
157	158	1
117	117	2
8	8	2
62	62	1
75	75	1
92	136	1
120	120	5
39	39	2
19	53	1
74	74	1
137	137	1
125	148	1
40	63	1
4	14	1
17	17	1
66	66	2
34	37	1
109	141	1
12	13	1
19	19	1
66	87	1
14	25	1
108	118	1
114	122	1
84	85	1
127	142	2
43	43	1
29	33	1
95	105	1
142	142	1
116	123	1
9	9	1
128	128	1
111	111	1
84	84	1
17	18	1
109	125	1
131	131	4
49	53	1
113	125	2
67	90	1
42	42	2
147	157	1
122	122	2
54	54	1
12	14	1
56	57	2
3	44	1
24	24	1
78	150	2
46	46	2
107	108	1
139	140	1
158	158	1
124	137	1
35	106	1
89	104	1
38	55	1
37	39	1
103	107	1
44	44	1
47	55	1
133	150	1
67	68	1
157	157	1
3	43	1
145	145	1
155	156	1
47	48	2
48	48	1
21	22	1
146	146	1
88	88	1
79	79	2
104	121	1
147	147	1
72	81	1
31	31	2
51	54	1
112	145	1
25	27	1
20	24	1
10	10	2
99	100	1
101	113	2
17	138	1
33	37	2
51	53	1
43	69	1
23	25	1
115	115	1
152	154	1
149	149	1
113	122	1
106	108	1
26	26	1
146	147	1
5	5	1
84	88	1
109	114	1
20	20	1
36	52	1
141	142	1
101	101	2
95	98	1
119	150	1
67	67	1
31	48	1
108	112	1
12	12	2
103	111	1
91	99	1
84	118	1
94	141	1
72	108	1
25	55	1
127	130	1
0	1	1
40	41	1
18	32	1
