120	120	2
61	70	1
28	28	1
122	122	2
22	22	1
45	45	3
83	95	1
105	105	4
62	63	2
93	121	2
124	132	2
75	75	1
119	120	1
79	101	1
66	72	1
80	114	1
134	134	3
8	10	1
96	98	1
17	18	1
68	72	4
3	3	2
37	37	1
101	101	1
14	14	2
127	129	1
2	4	1
108	108	2
32	45	1
114	117	1
115	122	1
8	8	1
31	108	2
7	9	2
46	78	1
29	29	3
0	0	2
39	39	1
131	131	1
93	95	1
78	78	1
16	17	1
64	76	1
4	4	1
42	42	1
43	43	2
84	85	2
29	85	1
118	118	2
81	102	1
23	23	1
92	92	2
65	66	1
63	102	1
33	44	2
83	106	1
129	129	4
22	83	1
110	113	1
74	75	1
129	130	2
82	82	2
6	11	1
70	75	1
124	124	2
105	107	1
6	6	4
12	12	6
59	59	1
77	77	2
108	111	1
46	46	2
11	11	1
73	74	2
128	128	2
32	40	2
2	2	2
64	77	1
29	30	2
133	133	2
127	128	1
130	131	1
68	71	2
40	40	1
117	130	1
80	102	1
76	76	1
62	62	2
121	121	3
13	28	1
44	44	2
15	16	1
38	40	2
82	86	2
109	109	1
64	64	2
124	127	1
116	116	2
85	86	2
17	27	1
15	15	1
88	88	2
13	13	1
79	80	1
1	1	2
104	104	3
19	38	1
85	92	1
79	79	3
42	43	1
76	80	1
33	33	1
41	41	1
61	79	1
72	72	2
107	113	1
84	114	1
91	91	2
36	36	1
43	45	1
21	21	1
34	86	1
110	110	2
95	95	1
124	125	1
79	84	1
32	32	1
26	29	1
5	7	1
86	86	3
28	111	1
116	134	1
17	17	1
116	130	1
96	96	1
3	12	1
66	66	1
36	44	1
31	39	1
37	39	1
128	129	2
37	59	1
67	67	1
89	97	1
5	24	1
48	78	1
38	38	2
131	132	1
5	6	1
90	107	1
39	48	1
68	77	1
132	132	1
115	115	4
63	72	1
100	100	1
60	60	1
39	50	1
16	16	1
122	125	2
25	25	1
85	87	1
81	114	1
111	120	1
113	113	1
18	18	1
32	36	1
83	111	1
69	72	1
16	22	1
29	79	1
42	50	1
121	123	1
124	131	1
56	57	2
44	46	1
47	47	1
49	49	1
94	95	1
50	50	1
61	61	1
37	38	1
10	10	1
9	9	1
34	34	1
