26	26	2
76	76	3
99	170	1
35	35	2
13	14	1
177	177	2
48	48	2
47	48	1
70	70	2
4	5	2
57	84	1
42	44	1
85	85	3
108	145	1
126	127	1
30	77	3
157	162	2
84	84	3
54	141	3
21	26	2
84	113	1
148	156	1
2	3	1
72	72	2
17	56	1
187	187	1
129	129	1
65	65	3
107	107	1
173	182	1
31	34	2
160	165	2
71	71	1
136	136	1
118	122	1
134	137	2
104	104	5
163	163	1
160	160	1
68	131	1
170	170	4
154	154	1
77	77	2
32	34	1
60	77	1
48	74	1
100	100	1
10	10	4
79	89	1
143	143	2
146	146	2
177	178	1
90	133	1
31	31	1
17	17	2
119	137	3
186	186	2
140	140	1
0	0	4
142	142	2
6	6	4
159	159	1
42	42	2
8	9	3
24	24	2
113	113	1
118	118	4
171	172	1
3	86	1
126	126	2
15	15	4
54	66	2
56	56	2
57	57	1
86	86	1
128	128	3
32	45	1
39	39	4
53	54	1
169	170	1
16	16	2
79	79	2
108	108	1
87	88	2
103	104	2
59	62	1
128	133	1
104	105	1
0	1	2
83	84	1
130	130	1
53	53	1
134	135	1
129	131	1
153	153	2
96	96	3
103	103	1
171	173	1
44	44	2
134	134	1
158	158	1
5	15	1
71	119	1
93	96	2
55	55	2
58	59	1
16	17	2
70	113	1
40	40	3
84	184	1
27	30	2
42	43	2
190	190	1
126	142	1
41	41	1
110	110	2
127	141	1
33	33	1
161	161	1
159	166	1
152	152	2
156	156	2
22	22	1
117	190	1
63	64	1
147	148	1
54	58	1
111	112	2
148	177	1
157	170	1
1	1	1
0	162	1
56	57	1
29	32	1
58	58	2
121	121	2
25	56	1
105	105	1
146	185	1
145	146	1
122	123	1
101	101	1
7	8	1
54	54	3
181	181	2
189	189	2
67	67	1
38	39	1
87	87	3
114	115	1
187	188	1
13	13	3
37	37	1
6	7	3
90	90	1
122	122	1
58	65	1
185	186	1
141	142	1
46	47	1
169	174	1
78	79	1
66	67	1
68	68	1
123	123	1
125	127	1
7	7	1
66	74	1
34	34	1
29	29	1
97	97	1
119	119	1
167	167	1
109	145	1
5	5	1
139	139	1
22	25	1
162	162	1
66	126	1
106	106	1
80	80	1
21	60	1
169	169	1
161	162	1
125	125	2
83	87	1
136	137	1
4	4	1
121	125	1
66	84	1
14	55	2
76	77	1
75	75	1
72	73	1
74	74	1
146	147	1
32	32	1
71	139	1
48	120	1
44	45	1
118	132	1
181	184	1
21	21	1
61	63	1
36	37	1
174	174	1
184	185	1
8	8	1
92	95	1
110	111	1
114	114	1
140	151	1
155	155	1
151	151	1
165	165	1
66	105	1
132	166	1
135	136	1
13	73	1
179	180	1
72	74	1
53	55	1
171	171	1
146	159	1
11	15	1
