26	26	2
38	73	1
241	242	2
173	173	4
197	201	1
180	200	2
121	121	5
115	116	4
74	74	3
156	156	3
8	8	2
28	28	1
157	157	3
236	236	5
145	165	1
127	137	2
78	83	2
44	44	2
129	129	2
66	66	1
1	1	1
194	195	1
182	182	3
159	159	1
103	103	2
237	237	1
35	49	2
242	242	1
72	73	1
233	233	2
113	113	2
211	211	1
171	174	1
140	140	1
47	48	1
147	153	1
203	215	1
117	117	2
105	106	2
176	182	1
3	8	1
59	59	2
240	240	3
20	20	1
111	111	1
23	23	4
133	134	2
144	144	1
217	217	4
164	198	1
198	198	2
99	99	5
229	230	2
32	32	3
234	234	2
163	163	2
61	62	2
6	15	1
157	213	1
147	147	1
116	116	2
169	179	1
138	147	1
160	160	2
144	146	1
176	176	1
148	163	1
189	200	2
152	157	1
14	14	1
48	48	1
5	5	2
39	68	1
193	205	1
184	184	1
202	202	3
225	225	4
69	72	1
52	52	1
18	18	2
85	86	1
154	214	1
201	201	3
62	62	2
61	61	5
97	97	1
45	46	1
99	197	1
10	12	1
24	24	1
205	209	2
88	88	2
163	164	1
178	178	2
232	233	1
128	128	2
112	122	1
199	200	1
130	134	1
226	226	1
82	84	1
220	220	3
82	85	1
106	118	2
164	164	1
73	73	2
100	101	1
21	21	1
123	125	1
205	205	1
192	192	1
178	216	1
187	187	3
6	35	2
241	241	1
65	65	3
63	64	2
106	106	3
100	100	2
54	54	1
67	115	2
100	104	1
10	10	1
188	237	1
204	232	1
68	86	1
218	236	1
68	68	2
84	84	2
158	158	1
230	230	2
167	181	1
5	88	1
171	242	1
205	210	1
146	146	2
147	165	1
168	197	1
4	4	1
139	197	1
63	63	2
233	235	2
161	161	3
216	218	1
167	167	1
20	49	2
6	32	1
47	49	1
172	242	1
28	71	1
174	194	1
174	174	1
145	145	2
35	52	1
174	206	1
132	139	1
217	239	1
127	134	1
158	159	1
214	214	1
201	211	1
188	206	1
170	216	1
51	51	1
133	133	1
154	155	1
167	189	2
214	215	2
38	38	1
209	226	1
69	70	2
123	123	2
52	60	1
174	188	1
188	188	1
58	58	2
137	154	1
227	228	1
149	154	1
42	45	1
5	18	1
209	232	2
152	163	1
3	3	1
126	126	3
38	55	1
233	236	1
178	199	1
21	22	2
30	30	1
103	107	1
37	38	1
182	196	2
130	130	1
84	123	1
224	238	1
0	0	1
109	110	1
174	183	1
113	114	2
153	153	1
29	32	1
13	13	2
125	125	1
127	138	1
118	133	1
121	122	1
207	207	1
204	204	1
46	232	1
29	29	1
104	104	1
64	64	3
86	86	1
49	67	1
45	45	1
191	191	1
91	106	1
193	202	1
166	166	1
99	104	1
14	32	1
75	75	1
168	168	1
154	154	1
19	19	1
6	6	1
127	127	2
48	49	1
77	77	1
89	89	1
174	175	1
0	4	1
211	233	1
139	139	1
156	198	1
167	187	1
107	116	1
170	170	1
155	171	1
16	48	1
139	142	1
41	41	1
219	219	1
68	79	1
169	169	1
214	233	2
143	143	1
189	189	1
35	35	1
228	230	1
9	9	1
217	218	1
102	103	1
203	203	1
3	4	1
14	15	1
181	181	1
206	206	2
132	133	1
11	11	1
17	17	1
6	34	1
171	171	1
19	34	1
42	42	2
34	34	2
180	182	1
201	202	1
37	37	1
227	230	1
169	180	1
134	134	1
33	33	1
43	53	1
165	165	2
77	80	1
1	11	1
225	233	1
5	6	1
53	56	1
190	191	1
197	212	1
39	48	1
59	64	1
105	105	1
7	9	1
68	70	1
54	55	1
69	80	1
25	25	1
200	200	1
141	141	1
22	22	1
85	148	1
77	79	1
237	241	1
215	216	1
83	150	1
197	231	1
190	229	1
