31	31	2
26	26	1
88	96	2
24	24	1
154	154	6
46	46	5
82	82	1
38	38	3
11	11	2
117	117	2
97	97	3
99	99	3
71	72	1
153	153	3
41	141	1
114	114	2
155	155	5
174	174	6
8	10	1
169	170	2
77	184	2
141	141	3
164	169	2
90	94	2
16	16	1
172	176	2
39	44	1
55	56	1
21	22	1
188	188	4
144	144	1
153	154	2
20	30	2
81	124	2
162	162	3
0	0	1
157	157	1
60	60	4
149	149	10
147	160	1
13	66	1
85	85	2
48	48	1
103	103	3
71	71	5
113	113	3
74	78	2
27	27	1
73	73	5
102	103	1
7	7	2
137	137	3
92	92	1
176	176	2
8	8	5
172	173	1
35	35	3
134	134	2
33	77	2
139	139	2
36	36	3
164	164	1
126	127	1
100	100	5
154	172	2
177	177	2
145	145	2
55	55	2
159	159	2
120	120	1
149	150	4
82	83	2
45	59	1
131	133	1
108	109	2
10	98	1
146	146	2
35	36	1
32	32	1
165	165	2
112	114	2
10	10	2
46	47	1
15	15	2
34	34	2
78	78	2
111	111	3
123	123	1
89	89	1
183	183	3
170	170	2
145	146	1
121	164	2
166	169	1
158	158	2
112	112	1
152	152	1
66	138	2
79	79	1
105	105	1
165	166	5
163	163	2
11	39	1
20	20	5
43	46	1
189	189	2
160	160	4
147	153	2
115	116	1
66	74	2
41	41	2
167	167	4
26	37	1
159	169	1
170	186	1
96	96	5
12	30	1
140	186	1
63	141	2
95	99	1
42	42	1
65	65	1
2	2	2
112	138	1
25	27	1
117	121	1
147	173	1
42	47	1
148	148	1
181	182	1
161	161	2
147	178	1
22	23	1
122	123	1
37	173	1
131	131	2
121	121	1
127	127	3
124	125	2
172	172	1
76	76	3
30	31	2
63	64	1
24	27	1
95	95	2
124	128	1
96	188	1
185	185	1
184	184	1
90	106	2
83	83	3
68	68	2
151	151	2
36	37	1
41	73	2
141	174	1
98	108	1
128	128	2
130	131	1
104	104	1
7	53	1
140	140	3
32	100	1
114	115	1
88	89	1
101	111	1
189	190	2
158	166	1
173	173	2
6	55	3
25	37	1
11	12	2
135	135	2
86	86	1
47	47	2
190	190	1
134	142	1
31	32	2
61	145	1
136	136	2
77	77	1
78	179	1
144	159	1
26	27	1
164	168	1
11	25	1
64	64	1
4	5	2
182	182	1
72	72	1
169	169	2
78	79	1
64	85	1
108	130	1
23	23	1
57	58	1
168	168	2
3	6	1
138	139	1
40	48	1
180	180	1
118	118	1
119	147	1
98	98	1
74	127	2
97	98	2
130	162	1
53	76	1
182	188	1
74	74	1
5	6	1
116	116	1
106	106	1
115	115	1
134	135	1
101	101	1
65	72	2
107	136	1
187	190	1
130	142	1
8	48	1
91	147	1
89	105	1
14	15	1
118	145	1
2	113	1
93	94	1
63	63	1
73	74	1
13	32	1
116	145	1
179	179	2
63	68	1
156	156	2
19	19	2
142	171	1
108	108	3
102	102	2
152	153	1
158	159	1
12	12	1
2	77	1
173	174	1
117	118	1
45	46	1
13	13	1
182	183	1
64	81	1
67	67	1
121	156	1
22	24	1
80	81	1
155	174	2
114	119	1
156	160	1
1	1	1
119	119	1
6	74	1
8	22	1
126	126	1
84	84	2
69	71	1
181	181	1
54	54	1
37	37	1
159	170	1
108	112	1
56	57	1
61	61	1
82	177	1
180	189	1
167	168	1
129	129	1
47	48	1
150	151	1
124	124	1
179	180	1
3	3	1
177	180	1
100	187	1
94	94	1
20	31	1
155	168	1
39	39	1
89	96	1
