8	30	1
97	118	2
14	14	1
164	166	1
12	34	2
19	20	1
21	21	1
30	30	5
112	148	1
48	48	3
72	72	1
105	105	1
35	45	2
15	15	2
57	57	2
143	143	2
107	126	1
66	95	2
41	41	2
93	136	1
29	112	1
161	161	2
157	157	1
110	110	1
156	156	2
187	187	1
38	39	1
11	11	2
73	73	2
179	180	3
153	153	2
136	166	3
180	182	2
12	12	2
5	8	1
43	55	2
41	45	1
59	98	1
185	185	2
98	98	2
100	100	1
160	160	3
172	172	1
127	128	2
168	173	1
16	20	1
16	17	1
68	149	1
138	138	2
53	55	1
106	106	1
121	121	2
24	24	1
144	173	1
183	183	1
102	102	1
59	60	1
7	10	1
35	111	1
141	141	3
75	94	1
87	103	1
148	148	1
83	83	3
76	78	1
139	140	1
56	122	1
111	111	1
107	148	1
104	105	1
71	71	2
125	136	1
144	150	1
87	128	2
80	91	1
127	127	1
16	16	4
11	13	1
166	166	2
64	65	1
12	19	1
134	134	2
39	39	1
158	187	1
66	66	2
20	20	1
72	100	1
177	177	1
4	5	2
69	118	2
1	24	3
159	168	1
23	24	2
70	157	1
110	128	1
66	67	1
123	123	1
104	104	1
76	76	1
33	34	1
142	142	3
169	170	1
77	77	2
32	33	1
25	25	1
162	163	1
66	133	1
93	93	1
8	8	1
138	161	2
175	178	1
174	174	1
175	175	1
45	124	1
6	6	1
11	16	1
60	60	1
9	19	1
79	172	1
16	18	2
68	120	1
96	96	2
115	174	1
2	2	2
7	7	2
58	60	1
87	87	1
108	108	1
154	154	1
44	47	1
115	179	1
9	61	1
182	182	1
176	182	1
55	55	2
155	156	1
5	5	1
106	113	1
179	179	1
93	97	1
27	27	1
128	128	2
10	17	1
17	34	1
13	43	1
26	26	1
60	95	1
10	16	1
115	115	2
170	184	1
135	135	2
31	31	2
13	15	1
75	96	1
136	173	1
131	131	1
132	161	1
62	62	2
188	190	2
92	92	1
128	129	1
187	189	1
123	132	1
188	188	1
124	125	1
18	19	2
93	112	2
173	173	1
82	82	1
52	52	1
48	57	1
152	165	1
14	78	1
56	124	1
167	167	1
109	112	1
132	135	1
85	127	1
111	166	1
137	166	1
151	152	1
59	59	1
97	97	1
12	14	1
17	31	1
170	170	1
46	46	1
95	95	1
143	144	1
120	120	1
43	43	2
64	158	1
130	132	1
142	143	1
65	137	1
75	107	1
162	162	1
84	95	1
178	178	1
116	116	1
142	152	1
176	176	1
140	141	1
74	179	1
33	33	1
94	94	1
