4	4	3
168	168	1
93	97	1
169	169	3
64	64	4
110	111	1
37	38	3
20	20	3
139	139	1
43	68	1
117	118	2
38	38	3
179	182	1
133	133	4
31	31	1
67	67	1
66	126	1
186	186	1
1	1	1
181	185	1
82	83	1
10	10	1
1	75	1
12	23	1
162	162	2
126	127	1
122	127	1
77	77	5
85	85	2
73	73	5
178	178	1
123	123	2
138	138	1
41	59	1
39	40	1
164	165	2
161	161	2
5	5	4
35	35	1
63	64	1
131	131	3
71	71	4
95	118	1
65	66	3
170	173	1
66	66	1
139	185	1
136	173	2
177	177	4
82	82	3
97	98	1
100	100	1
147	147	1
92	92	1
44	68	1
149	149	4
2	2	1
139	187	1
182	182	2
156	156	2
118	118	1
152	153	2
87	92	1
140	141	2
3	3	1
28	28	2
39	39	1
13	13	1
170	170	1
159	159	2
90	90	2
96	96	4
120	120	1
160	180	1
52	52	2
125	128	2
27	31	1
184	185	1
48	48	1
7	7	1
109	109	1
14	14	1
137	187	1
7	38	1
180	181	2
173	173	1
61	61	1
79	79	3
23	24	1
108	108	2
170	180	1
127	127	2
151	165	2
78	79	1
27	27	2
66	67	1
100	102	3
65	65	2
15	15	2
12	13	1
60	60	2
111	129	1
160	160	1
155	157	1
26	26	1
171	171	1
124	124	2
5	73	1
26	27	1
72	72	1
113	113	2
113	114	1
160	173	1
112	112	1
84	85	1
167	167	3
106	107	2
21	29	1
73	74	1
58	59	1
81	90	2
174	174	1
122	122	2
134	137	1
22	22	2
37	37	1
54	54	2
58	58	1
143	143	1
137	137	1
47	47	1
24	24	5
125	125	1
14	15	2
177	178	2
81	82	1
96	116	1
56	57	1
86	86	2
87	90	1
55	57	1
75	75	2
123	132	1
36	36	1
30	32	1
32	61	1
148	148	1
46	71	1
17	18	1
103	103	1
35	36	2
43	46	1
119	119	3
172	172	2
18	18	3
169	177	1
175	177	1
70	70	1
98	133	1
9	11	1
140	140	2
103	104	1
22	23	1
83	84	1
145	146	1
153	153	1
25	25	1
123	187	1
142	147	1
158	158	1
160	162	1
179	181	1
160	161	1
59	59	1
155	159	1
95	115	1
23	23	3
145	145	1
104	104	1
124	137	1
45	45	2
163	163	1
180	180	1
190	190	1
187	187	2
141	144	1
112	113	1
20	27	1
109	110	1
32	33	1
59	63	1
15	24	1
164	164	1
138	186	1
40	40	1
107	107	1
116	116	1
76	76	1
89	89	1
64	68	1
146	146	1
55	55	1
25	53	1
155	156	1
185	185	1
29	29	1
188	188	1
77	82	1
