81	81	3
122	128	1
15	135	1
5	6	3
53	124	1
76	76	2
146	146	2
42	42	3
132	132	3
96	97	1
20	112	3
90	163	1
148	148	7
28	28	1
123	147	3
135	135	5
25	25	2
108	110	2
35	35	3
82	82	1
73	90	1
109	140	1
91	97	1
86	86	2
102	102	1
112	115	1
13	13	2
74	75	1
143	144	1
51	51	2
40	40	2
65	65	1
69	78	2
64	65	2
145	145	5
84	113	1
85	167	1
39	72	1
110	110	3
115	167	1
157	158	2
125	125	2
11	110	1
127	128	3
24	25	1
133	133	3
109	109	5
53	53	1
16	120	2
80	80	2
88	88	4
18	22	1
105	105	1
39	58	2
152	152	1
104	125	1
117	119	1
162	163	1
108	111	1
100	103	1
20	20	3
6	35	1
73	88	2
117	117	1
4	143	1
155	155	2
56	148	1
111	125	1
135	138	1
21	23	3
159	160	1
161	161	3
98	131	1
54	62	1
96	96	3
19	23	1
94	165	1
108	108	3
140	148	1
8	8	4
76	100	1
4	4	1
143	154	1
123	123	5
11	11	2
19	19	4
162	162	4
39	68	1
153	153	3
169	170	1
132	142	2
134	134	1
143	143	6
95	95	1
145	146	1
89	90	1
13	45	1
56	56	4
100	163	1
9	9	5
12	76	1
131	132	1
107	111	2
5	5	1
92	92	2
0	0	2
137	137	1
144	144	2
128	128	3
34	34	3
90	90	3
138	138	4
14	17	1
14	15	1
45	45	3
106	106	2
120	124	1
6	51	2
42	52	2
93	99	1
27	27	2
88	98	2
116	116	2
108	109	1
77	153	2
23	104	1
7	7	1
89	149	1
1	38	1
92	96	1
111	143	1
112	113	1
37	37	1
62	69	1
22	23	1
17	63	1
13	138	1
142	142	1
166	166	2
103	133	1
16	16	3
101	101	1
54	54	1
139	142	1
18	123	1
83	83	2
17	72	2
149	149	2
151	151	2
113	139	1
124	124	4
170	170	3
37	158	1
120	120	2
139	143	1
77	77	2
134	136	1
48	49	2
156	156	3
78	78	3
18	18	2
107	159	1
124	147	1
85	169	1
90	109	1
97	98	1
157	157	2
97	151	1
44	44	1
133	134	1
47	76	1
57	68	1
44	45	1
58	64	1
11	40	1
57	123	2
22	110	1
141	141	4
136	136	2
114	114	2
111	136	2
41	41	1
81	98	1
169	169	1
61	61	2
98	98	2
58	105	1
165	165	1
15	15	2
113	113	1
85	168	1
111	111	1
26	43	1
3	35	1
40	74	2
93	165	1
34	35	1
55	79	1
69	102	1
63	122	2
44	127	1
70	70	1
115	126	1
83	156	1
26	27	1
82	83	3
98	161	1
66	66	1
91	91	2
41	42	2
50	50	3
100	122	1
77	78	1
52	52	2
97	99	2
142	152	1
137	138	1
100	121	1
94	138	2
160	161	1
107	107	1
42	109	1
17	101	1
52	88	1
61	62	1
2	145	1
39	40	1
161	163	2
39	53	1
151	160	1
130	130	2
84	85	1
8	69	1
18	19	1
64	154	1
0	2	1
127	127	2
79	79	1
130	131	1
87	87	3
168	168	2
72	72	3
91	92	1
87	88	2
85	85	2
164	165	1
115	116	1
49	75	1
57	124	1
106	108	1
72	112	1
55	76	1
140	140	2
166	167	1
141	152	1
99	138	1
75	79	1
112	114	1
36	37	1
55	55	2
107	127	1
37	38	2
130	168	1
126	127	1
87	164	1
3	3	1
33	33	1
2	2	2
51	52	1
102	103	1
39	39	1
21	21	1
68	70	1
46	46	2
165	169	1
119	119	1
67	68	2
139	141	1
167	167	1
131	153	1
154	155	1
70	71	1
42	43	1
28	108	1
158	158	1
49	52	1
69	73	1
62	62	1
104	124	1
74	74	1
160	160	1
56	74	1
80	168	1
13	117	1
118	118	1
11	12	1
