93	93	3
74	81	1
55	55	4
78	79	4
43	43	2
6	6	3
117	118	4
117	117	2
125	125	1
108	110	1
127	128	3
51	51	1
110	113	1
114	115	1
48	48	6
73	73	3
65	65	4
52	52	2
72	72	2
18	18	1
29	29	1
106	106	2
77	77	1
119	119	3
137	137	5
126	126	3
32	34	1
2	2	2
70	71	1
99	99	3
109	109	2
76	90	1
21	128	1
8	8	1
115	115	2
132	132	2
107	107	1
136	136	1
33	41	2
11	11	10
60	60	4
19	20	1
133	133	3
108	108	2
103	103	2
92	139	4
84	85	3
19	19	1
66	66	2
33	33	2
140	140	2
58	97	1
134	134	5
93	135	2
25	54	2
129	130	1
24	24	2
69	69	3
43	47	1
114	114	5
144	145	1
111	111	2
50	122	2
98	101	1
0	0	3
71	71	1
117	120	1
131	131	5
88	88	1
67	67	2
37	38	3
113	114	3
104	104	1
99	134	1
96	96	1
26	26	4
36	36	4
92	92	4
91	127	1
62	67	1
120	120	2
35	35	2
50	50	1
30	30	2
6	21	2
37	37	5
70	70	2
42	42	2
102	133	1
93	94	2
31	107	1
122	122	2
104	121	2
134	135	1
65	66	1
27	29	1
105	105	3
131	136	2
79	87	1
100	100	2
4	16	1
87	87	5
9	20	2
86	86	1
130	130	1
10	27	1
68	68	2
93	111	1
11	128	2
71	72	2
22	22	4
20	22	1
75	75	2
38	39	2
16	16	1
118	120	1
54	54	1
9	28	1
73	74	2
56	56	4
47	87	1
102	103	3
17	17	4
62	62	5
25	25	1
40	40	1
81	81	2
64	64	2
131	135	1
118	119	2
82	116	1
79	111	1
32	32	2
96	124	1
58	58	2
100	101	1
146	146	1
144	144	5
63	104	1
76	76	2
128	129	1
1	1	1
80	81	1
74	74	3
103	140	1
20	20	2
47	63	1
10	10	2
119	121	2
102	102	1
92	94	1
23	23	1
101	105	1
41	41	1
135	135	2
96	101	1
127	127	1
28	28	1
52	53	2
49	53	1
98	98	1
72	73	1
106	107	2
93	131	1
66	68	1
120	131	1
136	137	2
129	129	1
121	123	1
95	95	1
98	99	1
75	76	1
126	127	1
84	84	3
82	82	1
1	14	1
49	49	1
56	85	1
50	52	1
127	133	1
122	123	1
1	13	1
91	91	1
116	116	1
8	9	2
138	138	1
139	142	1
101	144	1
62	69	1
118	118	1
111	112	1
74	75	1
54	55	1
80	80	1
21	21	2
19	21	1
49	52	1
126	128	1
54	107	1
88	92	1
38	38	1
110	110	1
85	85	1
2	12	1
48	89	1
109	115	1
56	86	1
39	39	1
89	89	1
