94	94	1
17	20	1
59	59	2
17	17	2
130	130	5
22	22	5
100	131	1
89	114	1
22	87	1
121	121	5
105	118	2
125	125	1
76	76	5
47	47	1
3	3	2
33	86	1
120	120	1
99	107	1
55	55	3
61	83	1
26	27	1
124	124	1
18	18	3
87	87	1
60	79	3
59	60	2
127	127	2
104	104	4
19	20	2
128	128	3
109	110	1
11	57	1
12	12	4
42	42	3
113	113	3
46	46	5
101	101	3
97	108	1
23	23	1
29	30	2
76	77	1
87	116	1
1	46	1
85	86	3
50	50	1
53	121	2
96	108	2
9	57	1
110	121	1
85	85	5
131	131	5
64	114	1
82	82	2
123	123	1
1	1	3
114	114	4
0	0	5
12	27	1
103	103	1
109	109	1
24	24	2
28	28	1
73	73	4
116	120	1
24	66	3
58	58	2
93	93	1
110	124	1
56	62	1
16	16	2
52	52	4
71	107	1
115	116	1
12	92	1
93	95	1
128	129	2
19	65	1
32	39	1
55	57	1
29	29	1
69	69	1
78	103	2
116	117	3
84	84	3
26	32	1
19	23	2
39	39	2
115	115	4
4	4	5
88	88	1
18	19	1
73	87	1
71	71	1
96	132	2
45	59	1
24	25	4
81	82	1
95	95	2
70	70	2
110	110	2
1	132	1
132	132	1
26	26	2
103	109	2
73	97	1
21	21	2
118	119	1
17	34	1
1	112	2
132	133	1
113	114	1
79	88	1
125	126	2
122	122	2
24	76	1
10	25	1
19	19	2
45	101	1
57	106	1
50	58	1
90	92	1
27	27	2
79	79	3
33	82	1
64	104	1
102	110	1
83	84	1
119	119	1
58	59	3
86	86	1
11	22	1
40	45	1
83	83	2
64	78	1
39	66	1
81	81	1
63	63	2
126	126	1
45	48	1
104	105	1
45	46	1
89	89	2
57	58	1
115	119	1
56	57	1
29	52	1
33	41	1
85	90	1
45	75	1
98	100	1
62	62	2
81	131	1
12	13	1
30	30	3
107	107	2
2	2	1
94	96	1
18	41	1
4	5	1
60	62	1
72	72	1
24	42	1
96	96	2
65	67	1
72	74	1
25	25	2
105	105	2
67	67	1
111	111	1
105	107	1
129	130	1
23	24	2
108	108	2
41	41	1
129	129	2
72	85	1
20	21	1
53	118	1
51	51	1
118	118	2
13	14	1
66	66	1
75	97	1
111	112	1
6	6	1
29	67	1
91	91	1
63	65	1
14	17	1
56	105	2
84	97	2
75	75	1
90	90	2
11	12	1
106	106	1
40	41	1
40	40	2
80	84	1
69	76	1
77	127	1
78	82	1
97	97	2
54	54	1
95	108	1
116	125	1
53	62	1
77	78	1
100	110	1
52	104	1
27	69	1
1	9	1
32	32	1
81	84	1
131	132	1
91	92	1
44	44	1
22	23	1
100	127	1
108	118	1
31	31	1
37	59	1
19	22	1
56	112	1
56	56	2
85	89	1
88	89	1
80	80	1
92	92	1
118	128	1
38	39	1
24	29	1
51	122	1
65	66	1
110	111	1
8	8	1
117	117	1
11	11	1
96	101	1
42	67	1
54	106	1
117	118	1
107	108	1
107	109	1
99	100	1
98	98	1
59	63	1
33	34	1
105	106	1
49	49	1
