142	154	1
5	6	1
67	67	2
6	6	3
95	152	1
55	55	2
44	44	5
106	106	2
96	97	3
141	141	2
144	144	1
121	122	2
138	138	2
56	56	2
149	149	3
127	132	1
36	52	1
53	53	4
12	33	1
87	87	3
92	92	1
41	50	1
51	51	1
103	103	4
97	97	1
26	129	1
139	140	2
154	154	1
140	140	2
90	90	2
108	117	2
90	116	1
81	82	1
40	40	2
30	30	5
108	108	1
13	14	1
33	33	2
94	94	2
17	50	1
99	99	2
27	38	1
116	121	2
53	54	3
65	65	1
131	134	1
109	118	1
131	132	2
42	45	1
145	145	2
144	148	1
51	134	1
139	139	7
15	33	1
127	127	4
128	128	3
64	64	1
120	120	3
2	2	3
96	105	1
119	120	2
52	53	1
129	129	3
106	107	3
68	68	3
146	147	2
93	93	1
46	46	1
116	116	3
26	100	1
88	88	1
121	157	1
68	81	1
152	154	1
48	48	1
10	53	1
15	15	1
28	90	2
64	68	1
152	157	1
4	4	5
154	157	2
98	98	1
52	68	1
28	28	1
132	133	2
18	30	2
127	140	1
112	112	2
157	157	1
2	97	1
120	145	1
142	153	1
109	109	2
146	146	4
27	86	1
21	27	1
68	70	1
3	3	2
68	69	2
121	148	1
21	21	5
22	45	2
127	135	1
99	129	1
116	117	1
26	29	1
86	86	5
97	148	1
35	35	1
98	101	1
127	155	2
47	47	1
142	142	2
155	156	1
112	117	2
111	111	3
150	150	1
12	82	1
2	34	2
117	146	1
52	137	1
123	141	1
135	135	1
53	67	1
8	41	1
113	113	1
119	119	1
25	26	2
77	77	1
50	51	1
126	126	1
9	10	3
57	57	1
89	121	2
155	155	1
103	150	1
80	80	1
143	156	1
95	95	2
84	84	1
8	17	1
43	44	2
156	156	2
28	29	1
81	81	3
109	123	1
128	134	1
18	18	1
100	150	1
69	69	1
158	158	1
16	16	1
33	34	1
46	53	1
153	153	2
31	33	2
25	75	1
82	82	1
104	139	1
50	50	1
9	15	1
30	86	1
79	84	1
152	152	1
137	137	2
122	122	1
75	75	2
88	124	1
86	89	1
52	142	1
30	134	1
25	25	3
110	110	1
147	147	1
8	8	1
85	85	1
123	123	2
7	54	1
132	132	3
10	11	1
36	37	1
86	87	1
100	100	1
118	118	2
100	101	1
31	32	2
128	129	1
29	30	1
13	13	1
3	34	1
40	41	1
105	106	1
43	43	1
89	91	1
114	114	2
11	16	1
134	134	1
84	91	1
101	101	1
10	10	1
95	138	1
37	37	2
36	54	1
91	92	1
24	30	1
8	15	1
152	158	1
15	31	1
147	148	1
124	124	1
11	91	1
91	91	1
35	71	1
125	125	2
54	54	1
114	117	1
115	118	1
36	39	1
152	155	1
124	158	1
52	52	1
79	82	1
90	91	1
66	69	2
23	23	1
12	12	1
