14	28	1
176	176	2
114	115	4
72	72	6
42	42	4
187	188	4
16	16	8
93	97	3
105	107	1
152	159	2
49	49	5
173	181	1
141	141	5
28	28	2
13	13	5
71	72	1
135	138	2
13	72	1
65	99	1
31	31	3
130	147	1
57	80	1
9	35	1
20	21	1
178	178	7
94	94	5
154	155	2
101	107	1
169	169	4
24	28	1
171	171	1
4	4	5
142	158	2
188	188	3
137	140	1
164	164	2
120	120	4
153	153	7
151	158	1
59	65	1
32	185	2
147	147	5
174	175	2
96	115	1
81	88	2
101	101	10
69	69	2
41	41	2
98	98	5
180	192	1
121	121	9
70	117	1
153	171	2
186	186	9
127	127	5
139	139	4
86	86	1
135	135	3
93	145	1
151	151	8
104	109	1
196	196	7
55	126	1
139	145	1
53	53	3
140	170	1
113	114	1
23	23	5
143	166	1
170	170	3
81	141	1
190	190	2
111	156	1
72	181	1
18	54	1
184	184	1
7	8	2
40	40	4
118	118	3
155	181	1
101	102	2
105	105	5
15	33	1
2	158	1
82	136	1
128	128	2
124	184	1
43	43	2
103	103	2
10	10	4
93	93	4
10	11	1
57	57	4
132	132	3
105	108	1
130	139	2
58	58	2
148	149	1
126	142	1
40	41	2
172	173	3
188	190	2
155	155	7
73	73	3
66	111	1
157	157	3
62	63	2
76	76	2
191	191	3
124	124	5
19	145	2
100	100	4
168	169	2
114	114	2
76	79	2
124	125	1
67	69	1
59	60	2
12	14	4
181	181	2
144	144	4
182	182	2
36	42	1
194	194	7
64	64	1
117	117	2
25	31	1
131	131	5
146	146	2
157	158	3
25	27	1
31	33	1
72	125	1
119	120	4
122	122	3
2	62	1
149	149	5
99	161	1
170	171	5
35	189	1
146	147	2
162	163	2
149	168	1
15	15	4
60	60	6
160	160	1
49	50	1
111	143	1
18	19	1
131	139	2
193	193	2
11	45	1
65	65	5
180	180	4
112	112	7
7	21	1
77	78	1
185	190	1
163	174	1
94	95	3
139	140	1
137	137	3
180	181	1
126	126	5
36	36	6
82	82	4
24	24	5
154	156	1
68	68	2
133	133	4
33	33	3
129	139	1
126	128	1
15	17	2
15	16	1
131	152	1
0	0	5
35	82	1
61	61	4
95	100	2
52	52	3
74	74	4
80	80	4
58	59	3
101	147	1
151	171	1
51	51	1
25	25	2
2	2	2
189	189	6
4	28	1
75	75	1
148	148	4
43	53	1
193	194	1
0	4	2
143	143	4
37	37	6
6	6	3
17	17	4
2	117	1
65	68	1
35	74	2
121	127	1
173	173	2
8	8	4
111	111	3
23	189	1
149	150	1
120	121	2
161	163	1
54	89	1
34	68	1
45	45	9
16	17	2
122	124	2
62	68	1
72	142	1
0	188	1
3	191	1
1	1	6
156	156	5
145	166	1
157	172	1
107	107	3
22	22	1
142	142	5
156	159	1
156	167	1
129	129	1
27	27	3
63	90	1
154	154	2
27	29	2
46	183	1
12	19	1
77	77	2
166	167	2
4	24	1
114	139	1
63	76	1
51	52	1
99	99	3
48	49	2
171	189	1
178	179	2
113	113	2
19	182	1
78	78	3
42	179	2
62	66	2
97	102	1
46	108	2
132	134	1
102	104	1
147	148	1
98	127	1
59	131	1
70	70	3
24	157	1
158	158	3
14	14	6
21	21	3
10	127	3
52	136	1
185	185	3
96	96	7
7	7	3
192	193	2
152	165	1
171	190	1
71	71	1
108	108	1
29	29	2
69	70	2
15	45	1
131	195	1
19	19	3
136	136	2
130	130	2
94	109	1
192	192	3
40	197	2
5	5	3
79	80	2
55	55	5
22	28	1
116	117	1
46	50	1
149	159	1
125	128	1
60	179	1
7	12	1
100	108	1
138	142	1
21	63	1
183	183	1
102	102	1
130	134	1
150	150	2
145	145	1
39	39	3
161	161	3
149	151	1
11	12	1
21	22	1
44	44	5
115	115	2
49	51	1
107	187	1
140	163	1
134	134	2
87	87	3
86	90	1
113	149	1
84	84	4
36	190	1
59	73	3
97	116	1
96	99	1
46	47	1
106	173	1
47	136	1
106	111	1
9	9	4
172	172	2
22	117	1
142	143	1
25	37	1
2	21	1
54	54	3
13	126	1
179	179	2
119	127	1
106	163	1
190	194	1
106	106	1
168	176	1
83	83	3
62	83	1
66	66	1
135	136	1
17	18	2
102	111	1
61	62	1
131	132	1
32	33	1
135	139	1
36	37	1
176	191	1
5	8	2
109	117	2
88	88	3
175	175	3
20	20	1
161	168	2
123	123	3
177	177	2
139	158	1
173	177	1
5	12	1
138	138	3
48	48	5
0	30	2
162	162	1
105	106	2
97	97	3
37	40	1
115	131	1
107	125	1
31	32	1
179	180	2
38	38	3
112	113	1
3	160	1
53	125	2
63	81	1
60	71	1
126	135	1
67	67	3
52	189	1
169	171	1
165	165	5
54	55	1
3	3	1
68	69	1
24	25	2
114	186	1
152	152	2
3	33	1
16	77	1
81	82	1
79	79	3
42	43	1
43	166	1
33	40	1
185	186	1
76	77	1
104	106	2
129	171	1
168	168	1
43	44	1
94	110	1
76	150	1
38	150	1
125	125	1
156	169	1
59	59	1
119	181	1
72	73	1
123	124	1
35	35	1
83	90	1
4	5	2
105	156	2
85	85	2
71	113	1
140	140	1
183	185	1
12	12	2
18	194	1
138	152	1
169	170	1
119	119	1
184	185	2
11	13	1
56	56	2
145	146	1
11	11	3
0	72	1
139	168	1
108	109	2
106	148	1
121	140	1
7	37	1
69	141	1
75	164	1
25	117	1
120	129	1
166	166	2
47	47	2
64	99	1
60	62	1
3	4	1
159	159	1
63	65	1
10	37	1
10	68	1
87	150	1
41	121	1
41	42	1
24	26	1
39	40	1
9	38	1
26	71	1
158	159	1
46	46	1
63	63	1
111	149	1
83	164	1
97	113	1
83	84	1
3	88	1
138	163	1
59	67	1
100	101	2
196	197	1
9	11	1
79	83	1
19	149	1
32	32	1
141	146	1
59	68	1
62	62	1
70	78	1
127	128	2
171	195	1
14	80	1
174	174	1
144	145	1
174	176	1
61	65	1
99	164	1
183	184	1
110	110	2
34	34	1
80	87	1
18	18	2
158	160	1
114	118	1
22	56	1
137	154	1
81	162	1
88	111	1
178	188	1
151	153	1
77	85	1
133	134	1
29	53	1
195	195	1
177	193	1
61	113	1
156	168	1
167	191	1
57	122	1
37	38	1
111	112	1
155	173	1
84	85	1
106	147	1
53	54	1
100	148	1
21	73	1
126	156	1
87	88	1
48	136	1
79	85	1
55	106	1
156	157	1
35	54	1
52	53	1
185	192	1
134	137	1
97	98	1
46	49	1
21	26	1
181	182	1
165	166	1
58	82	1
142	166	1
197	197	1
30	30	1
32	172	1
