129	130	2
111	111	2
75	100	1
128	129	1
48	48	1
49	67	2
128	128	1
109	109	1
17	25	2
148	149	1
15	67	1
145	145	2
65	65	2
78	78	1
14	14	2
22	27	1
12	12	4
142	142	4
11	12	2
76	79	2
102	102	1
144	144	1
39	39	2
6	6	3
94	98	3
146	146	1
19	24	1
18	18	5
2	32	1
19	19	3
42	42	2
116	144	2
92	92	4
94	94	2
126	126	1
55	57	1
4	30	2
25	50	1
77	77	2
43	44	2
55	55	1
35	36	2
100	107	1
91	95	1
28	33	2
108	118	2
150	150	1
30	32	2
82	82	2
63	63	3
62	62	1
109	110	2
4	4	1
98	104	1
66	66	2
76	77	1
42	45	1
56	56	2
71	107	1
40	69	1
72	73	2
80	80	1
123	150	1
106	106	2
68	111	1
28	50	1
18	71	1
128	130	1
19	30	1
26	81	1
127	140	1
135	135	2
6	9	1
90	91	1
29	33	1
40	40	1
16	16	3
105	105	2
37	112	1
42	43	1
97	101	1
28	28	2
127	127	3
14	39	2
130	130	2
30	30	4
74	93	1
30	114	3
14	142	1
141	144	2
34	101	1
6	7	1
148	148	1
23	78	1
119	119	1
30	56	1
45	50	1
28	85	2
117	117	3
125	125	1
20	20	2
132	132	2
147	147	2
88	138	1
45	102	1
73	99	1
96	96	4
106	115	1
64	64	3
16	106	1
13	23	3
70	70	3
98	100	1
94	99	1
134	134	1
23	23	3
108	109	2
11	11	1
35	35	2
133	146	1
118	118	2
51	51	1
98	98	1
103	103	2
80	154	2
54	126	1
104	104	1
54	54	1
46	47	1
71	71	2
98	99	1
99	99	1
10	10	3
64	69	1
45	107	1
84	84	1
63	65	1
101	102	1
41	41	2
130	149	1
71	72	1
95	95	1
14	41	1
15	146	1
95	99	1
122	124	1
76	81	1
30	54	1
49	70	1
104	112	1
13	13	3
30	31	1
22	154	1
115	115	1
136	136	1
75	99	1
24	24	1
96	97	1
57	105	1
47	47	1
128	153	1
3	3	1
45	46	3
39	40	1
74	103	1
78	81	1
57	126	1
129	129	1
81	81	1
3	128	1
43	43	1
45	45	2
33	34	1
38	38	1
122	122	1
136	137	1
39	47	1
3	25	1
79	79	1
129	148	1
106	107	1
45	103	1
116	116	1
126	129	1
141	141	1
28	29	1
108	108	1
55	123	1
116	149	1
133	133	1
3	5	1
76	83	1
68	68	1
133	138	1
124	124	1
79	127	1
