33	33	6
63	64	1
33	92	1
143	144	1
129	129	1
109	111	1
108	108	2
115	115	2
141	142	1
32	32	2
63	70	1
66	67	3
107	108	2
67	68	1
9	13	1
82	111	1
28	97	1
62	75	1
32	33	1
6	9	2
57	74	1
48	97	1
39	40	1
130	130	1
74	74	2
99	101	1
4	5	2
105	123	3
64	64	3
42	96	1
77	116	1
114	114	5
140	140	1
47	47	1
99	99	2
75	75	1
67	97	2
18	19	1
79	79	1
102	105	2
69	73	2
3	3	1
69	70	1
91	91	6
22	37	1
90	117	1
138	138	3
51	51	3
4	84	2
25	26	2
32	34	2
128	128	5
123	131	1
29	29	2
106	106	2
21	38	1
39	39	2
101	101	2
138	144	2
57	57	3
6	6	3
95	95	2
134	134	1
107	109	1
105	105	4
87	87	1
111	111	3
98	99	2
56	56	1
109	109	2
19	19	2
91	115	1
110	110	4
127	127	1
124	126	1
23	25	2
125	143	2
47	48	1
104	104	1
37	37	4
70	70	1
78	78	4
60	60	2
85	89	1
53	71	1
54	54	2
104	105	1
93	93	1
16	16	2
35	35	2
17	17	2
115	116	1
56	76	2
30	33	1
119	130	1
137	138	1
113	114	2
63	63	1
104	132	1
73	73	1
35	47	1
41	42	1
96	96	2
6	10	1
85	100	1
107	107	3
77	78	3
70	81	1
118	119	2
123	123	3
23	108	2
38	68	1
53	53	2
74	77	1
4	4	2
106	141	1
8	8	3
68	71	2
80	81	3
86	86	2
62	62	2
116	117	1
119	134	1
9	9	1
61	62	1
9	47	1
17	18	1
10	25	1
96	97	1
109	120	1
15	15	1
42	58	1
112	112	2
0	0	1
125	125	1
144	146	1
34	34	3
25	25	1
84	84	1
76	80	1
117	118	1
29	30	1
87	88	1
65	66	2
133	136	1
36	37	1
113	113	1
39	57	1
127	135	1
74	75	1
31	32	1
80	126	1
98	98	1
137	137	1
83	84	1
2	35	1
66	120	2
70	79	1
0	6	1
117	117	1
124	124	1
18	18	1
128	131	2
111	115	1
118	118	2
108	126	1
121	121	3
13	32	1
77	77	1
50	50	1
49	69	1
116	127	1
52	52	2
59	59	2
38	38	2
120	121	2
27	27	1
54	57	1
144	144	1
117	121	1
49	49	1
126	126	4
125	129	1
88	88	2
30	30	2
3	5	1
128	129	1
133	133	1
110	113	1
131	133	1
92	121	2
13	13	1
99	124	1
3	4	1
21	21	2
54	58	2
36	36	2
41	104	1
97	111	1
65	74	1
141	141	1
69	106	2
139	139	1
55	56	1
17	37	1
124	125	2
67	67	2
61	61	1
14	15	1
125	134	1
48	48	3
85	111	1
103	135	1
57	73	1
62	98	1
69	69	2
2	2	1
23	37	1
102	102	1
106	107	1
83	83	1
98	118	1
27	67	1
102	116	1
123	124	1
140	141	1
94	95	1
111	112	1
122	123	2
120	120	1
124	127	1
53	61	2
30	32	2
23	71	1
90	90	2
26	26	2
10	139	1
129	134	1
89	89	1
20	20	1
92	92	1
72	72	3
98	144	1
116	121	1
47	50	1
62	64	1
133	134	1
13	58	1
43	43	1
16	34	1
27	38	1
76	76	2
52	99	1
5	22	1
60	61	1
18	35	1
81	81	2
130	139	1
85	85	1
54	61	1
86	92	1
111	114	1
5	6	1
59	61	1
22	23	1
52	54	1
53	124	1
