35	36	1
65	65	1
51	51	2
45	134	1
124	127	2
32	35	1
128	128	1
91	93	2
29	29	3
83	83	1
17	17	3
59	91	1
36	127	1
86	86	5
34	35	1
120	120	2
87	87	2
25	25	1
131	131	1
27	27	4
113	113	2
75	76	1
56	87	1
94	94	1
78	134	2
111	111	1
77	77	1
79	80	2
24	24	1
116	131	1
99	127	1
3	3	1
129	129	2
83	95	1
78	79	3
18	24	2
47	47	2
8	23	2
100	101	1
41	42	1
7	7	1
97	105	1
44	88	2
100	100	3
100	104	2
128	130	1
57	84	1
37	56	1
82	82	1
102	102	4
105	105	3
42	98	1
122	122	2
23	26	1
35	35	2
81	84	1
42	42	3
13	13	1
113	124	1
133	133	2
124	124	4
23	41	2
1	1	1
42	43	2
123	123	3
96	106	1
69	78	1
2	2	2
55	84	1
105	123	1
14	14	2
75	75	4
5	5	1
38	38	1
8	8	2
120	123	1
10	131	1
89	114	1
80	80	3
31	31	2
25	43	1
50	50	1
84	84	3
26	26	2
43	43	1
83	84	1
43	57	1
88	91	1
88	88	1
95	95	1
61	61	1
112	112	1
61	101	1
21	26	1
23	23	1
12	56	2
9	9	2
127	127	1
121	121	3
17	18	2
64	64	1
112	123	1
129	131	1
10	10	4
120	121	2
94	134	1
68	69	1
26	31	1
130	130	1
78	78	2
59	90	1
79	79	1
102	122	1
30	32	1
14	30	1
109	110	1
40	40	2
38	42	1
122	123	2
90	91	1
101	124	1
90	115	2
15	15	2
104	105	1
97	98	1
20	20	2
73	73	2
63	67	1
91	91	1
99	107	1
97	113	1
18	19	1
93	93	2
125	127	1
112	113	2
58	58	1
115	115	1
22	22	1
107	107	2
11	42	1
31	32	2
13	57	1
90	96	1
57	58	3
43	44	1
132	132	1
31	40	1
43	116	1
22	24	1
37	37	1
74	74	1
101	101	1
110	110	1
126	126	1
3	7	1
36	36	1
106	106	2
49	49	1
101	102	2
13	14	1
94	101	1
27	30	1
64	72	1
90	98	1
77	78	3
6	8	1
0	59	1
10	61	1
117	117	1
103	103	1
25	26	1
39	39	2
94	95	1
127	129	1
61	64	1
47	77	1
29	30	1
119	120	1
116	116	1
92	98	1
133	134	1
103	104	1
90	90	1
32	44	1
89	89	1
55	55	1
76	110	1
32	32	1
90	114	1
9	10	1
67	67	1
18	18	1
40	41	2
63	63	1
64	66	1
69	118	1
115	131	1
