48	48	3
146	146	1
89	89	2
21	30	1
79	80	1
52	84	1
82	87	1
78	79	2
121	122	1
54	54	1
137	137	5
93	112	1
127	129	1
128	129	1
83	83	2
104	104	1
50	50	3
91	124	1
26	26	3
130	140	2
16	16	3
144	144	1
138	139	1
70	86	1
87	87	5
90	90	2
64	64	1
27	27	4
70	83	1
73	74	1
107	109	1
136	137	1
17	18	2
2	47	2
141	141	2
56	83	1
131	131	5
14	15	1
18	19	2
54	55	1
72	73	1
135	136	1
96	96	1
15	17	1
55	56	1
123	140	1
72	74	1
102	103	1
61	64	2
49	49	1
52	52	1
21	21	4
35	37	2
20	20	3
37	37	4
112	113	1
123	123	3
42	43	2
60	63	2
42	42	3
10	11	1
81	81	1
41	42	1
32	32	3
31	31	2
19	19	3
6	6	1
43	43	3
118	135	1
135	143	1
68	68	3
47	47	2
3	4	1
124	125	4
16	17	1
112	112	6
94	99	1
28	29	1
80	80	1
132	132	3
30	30	2
22	32	1
94	137	2
53	58	1
18	18	1
123	124	1
135	135	2
61	61	1
4	4	1
69	69	4
12	12	2
66	87	1
50	59	1
5	5	2
86	86	1
59	59	2
55	55	2
65	65	2
11	11	1
40	40	1
132	138	1
136	136	1
103	103	1
23	33	1
84	87	1
17	17	1
128	130	2
16	34	1
96	101	1
101	101	3
15	19	1
133	134	3
139	139	3
68	69	1
132	144	1
1	1	1
62	67	1
3	3	2
78	80	1
10	10	1
76	77	2
87	98	1
107	107	1
107	108	2
93	135	1
113	113	1
84	84	1
24	27	1
88	88	2
122	122	2
129	141	1
72	77	2
105	105	2
56	57	1
93	113	1
104	112	1
10	16	2
104	105	4
39	39	1
36	37	1
120	120	2
57	57	3
78	93	1
126	127	1
32	54	1
13	14	1
14	14	1
129	130	1
128	128	1
58	59	1
142	143	2
75	75	2
102	102	1
109	109	1
142	144	1
9	9	2
121	121	2
35	35	1
99	104	1
90	91	1
130	130	2
113	132	1
36	36	2
110	110	1
22	22	2
125	125	1
119	137	2
62	85	1
53	53	2
38	38	2
58	58	2
40	41	1
68	71	1
8	8	1
142	142	1
32	58	1
62	62	1
29	29	1
118	119	1
113	117	1
0	15	1
130	139	1
72	72	1
74	86	1
51	51	1
20	21	1
36	39	1
114	114	2
134	134	2
67	73	1
98	98	3
66	67	1
39	85	1
108	108	1
109	110	1
143	144	1
59	60	1
51	52	1
92	93	1
33	33	2
119	119	1
97	98	1
57	59	1
120	122	1
46	46	1
95	104	1
113	114	1
34	40	1
145	145	1
91	91	1
25	57	1
71	72	1
73	142	1
111	111	1
85	85	1
93	93	1
1	48	1
52	58	1
95	95	2
6	24	1
71	71	1
63	63	1
62	75	1
79	89	1
133	133	1
75	139	1
13	13	1
92	94	1
105	115	1
26	92	1
137	138	1
