164	177	1
37	37	7
240	240	2
23	84	3
95	111	2
221	221	3
205	205	2
6	6	1
109	121	1
4	4	2
215	216	1
1	1	3
158	158	3
152	152	3
179	179	2
120	120	2
218	218	3
47	47	7
48	49	1
67	89	1
98	98	6
161	161	3
192	192	3
28	28	2
211	211	1
31	37	2
191	191	3
168	169	2
244	244	2
51	63	1
90	90	6
92	106	1
49	219	1
206	206	2
96	96	2
105	168	1
209	232	1
25	26	3
9	157	1
151	151	3
185	185	3
190	231	1
175	175	2
153	153	1
88	88	2
189	190	3
179	180	1
170	170	4
48	48	5
104	104	1
168	168	2
155	156	1
70	71	1
54	117	1
55	55	3
80	84	1
27	27	4
16	19	2
76	98	1
51	51	2
245	245	2
227	227	1
38	38	3
45	46	1
176	209	1
19	30	1
216	216	3
24	24	2
2	2	1
166	170	1
171	171	1
174	174	5
34	88	1
165	165	1
209	210	1
66	150	2
70	74	1
207	207	3
192	194	2
159	159	2
208	233	1
67	67	1
208	222	1
101	101	3
187	187	4
238	238	3
223	223	1
182	182	1
183	210	1
56	56	5
217	223	2
195	197	2
36	36	4
61	61	1
49	50	2
29	29	3
172	174	1
70	70	1
43	43	1
180	180	3
42	42	5
23	32	1
7	225	1
38	39	2
203	203	2
56	70	1
109	109	7
220	221	1
110	110	1
91	91	1
26	26	3
80	94	1
17	17	2
112	112	2
202	202	2
175	193	1
155	155	3
72	100	1
114	114	2
201	201	6
14	92	1
181	181	1
231	231	1
64	64	3
9	9	2
73	76	1
208	208	1
41	166	1
173	211	1
63	63	1
160	222	1
4	5	1
40	40	1
39	39	3
10	10	1
150	150	3
50	51	1
172	172	2
9	12	1
190	223	1
62	62	1
72	98	1
1	12	1
93	93	2
104	116	2
41	41	3
34	34	4
225	226	2
25	25	1
5	5	2
46	120	1
106	106	2
61	64	1
216	222	1
119	119	5
85	93	2
170	213	1
35	154	2
66	66	4
15	30	1
86	87	1
63	66	1
190	190	5
53	53	1
199	199	1
79	119	1
7	12	2
7	7	1
47	50	1
71	71	3
75	75	2
19	19	3
239	245	3
234	234	2
86	86	1
212	212	4
115	115	1
33	33	2
238	240	1
93	94	1
111	165	1
204	204	1
222	222	1
118	121	1
247	247	1
159	202	1
226	226	3
50	63	2
49	70	1
147	191	1
90	111	2
84	100	1
206	245	1
153	179	1
54	55	1
159	160	1
145	145	1
211	213	1
210	211	2
37	86	1
65	65	2
159	162	1
170	194	1
183	183	2
58	61	1
65	71	1
182	183	1
224	224	3
166	168	1
3	4	1
91	92	1
59	60	2
59	59	2
159	163	1
50	50	1
147	147	3
69	175	1
214	214	1
116	116	1
153	154	2
44	113	1
47	91	1
45	45	2
68	69	1
213	213	1
31	32	2
195	195	2
165	222	1
207	211	1
7	186	1
3	3	2
67	170	1
17	18	1
93	99	1
201	204	1
220	220	1
30	30	2
114	117	1
198	198	2
44	44	5
81	81	1
60	216	1
191	233	1
111	111	2
85	170	1
193	193	1
94	94	2
209	209	2
87	87	1
210	210	1
237	237	1
220	246	1
170	171	1
230	230	2
63	213	1
220	239	1
176	183	1
80	105	1
178	178	2
118	118	1
186	195	1
19	51	1
173	173	2
180	202	1
12	12	1
172	173	2
199	200	1
20	21	1
154	156	1
184	184	3
154	154	1
164	164	1
167	219	1
76	117	1
105	106	1
68	68	2
8	8	1
160	160	1
154	155	1
51	65	1
189	189	1
52	52	1
32	32	1
15	15	1
60	212	2
246	246	2
195	196	1
113	113	1
74	74	1
79	79	1
225	225	2
12	53	1
99	99	2
178	191	1
187	238	1
117	117	1
52	55	1
57	57	2
58	58	1
224	246	1
172	175	1
59	246	1
22	22	2
71	72	1
47	52	1
78	78	1
102	103	1
58	59	1
97	97	1
92	92	1
146	232	1
208	249	1
19	160	1
85	90	1
237	241	1
90	117	1
60	63	1
5	6	1
156	156	1
248	248	1
74	209	1
88	160	1
163	225	1
53	62	1
35	35	1
232	232	1
67	68	2
169	169	1
18	18	1
11	11	1
35	36	1
64	65	1
109	243	1
31	31	1
18	30	1
116	117	1
64	71	1
79	175	1
246	247	1
89	90	1
77	77	1
7	208	1
180	181	1
67	229	1
119	120	1
54	54	1
87	90	1
153	156	1
65	66	2
164	165	1
55	56	1
89	89	1
186	211	1
46	46	1
104	105	1
