93	95	1
4	10	1
102	103	2
80	80	5
96	112	1
120	122	1
73	104	1
119	119	1
129	129	5
111	123	1
82	82	5
116	116	2
7	7	4
84	85	1
127	127	2
13	25	1
1	10	1
77	77	10
125	125	4
94	94	3
79	107	1
134	134	6
75	75	1
81	90	1
27	31	1
85	87	1
122	123	2
9	9	2
3	3	7
93	93	5
107	107	2
112	112	6
122	122	3
74	118	1
110	120	1
95	95	1
103	103	5
78	118	1
15	34	1
33	33	2
85	85	1
139	139	3
5	5	1
17	17	3
98	125	2
20	36	1
16	16	1
36	36	7
113	121	1
100	112	1
135	135	5
100	100	3
140	140	3
124	124	4
128	128	6
35	35	5
37	38	3
110	112	2
38	38	5
28	28	1
116	117	3
24	25	3
99	99	3
93	122	2
126	128	2
126	126	5
108	108	5
76	76	4
3	116	1
88	88	7
101	101	4
24	24	3
123	123	4
86	139	1
6	6	4
9	32	1
78	80	2
80	124	1
114	116	1
12	19	1
117	117	2
80	138	1
37	37	2
114	115	3
87	87	3
115	116	2
89	89	3
92	93	1
114	114	1
33	34	1
97	97	2
4	34	2
7	8	1
9	13	1
80	117	1
97	98	1
100	116	1
71	71	3
29	30	1
130	131	3
137	137	2
85	102	1
78	108	1
102	102	5
20	20	7
99	100	1
10	117	1
121	122	1
14	29	2
90	90	3
2	3	1
123	139	3
101	108	1
103	104	1
131	131	3
4	9	2
4	4	4
10	11	1
88	89	1
120	120	4
110	110	5
109	109	1
74	74	3
73	73	1
18	18	4
93	108	1
133	134	1
118	118	7
21	22	1
93	94	3
81	83	3
132	132	4
14	114	2
37	120	1
72	72	2
95	96	2
88	109	2
113	114	1
76	77	1
100	101	2
91	91	6
83	109	1
94	95	3
31	31	2
21	66	1
88	104	1
27	71	1
115	123	1
79	81	1
8	23	1
104	104	4
115	117	1
96	115	1
10	30	1
11	18	1
73	74	1
21	21	1
34	35	1
77	87	1
19	21	1
71	73	1
89	90	1
34	34	1
75	77	1
31	77	1
102	108	1
113	113	3
19	20	2
36	78	1
4	126	1
29	32	1
13	14	2
11	11	2
84	84	3
9	11	1
10	12	1
12	26	2
86	86	2
91	95	1
32	32	2
118	119	1
2	4	1
92	92	4
130	130	2
81	81	2
81	89	1
121	123	1
127	130	1
136	138	2
91	92	1
103	105	1
119	120	1
24	103	1
85	90	1
83	85	2
26	29	1
87	120	1
130	132	1
85	88	1
28	121	2
121	121	1
84	89	1
89	94	1
134	136	1
0	5	1
26	26	1
17	19	1
111	111	4
18	23	1
100	103	1
35	36	1
83	83	2
96	96	3
138	139	1
88	90	1
12	12	1
112	124	1
136	136	1
79	79	1
0	0	2
105	106	1
111	137	1
0	72	1
3	7	1
109	111	1
92	109	2
105	121	1
2	2	1
128	129	1
19	19	2
1	1	2
113	116	1
109	118	1
127	140	1
133	137	2
9	16	1
25	25	1
23	23	1
14	14	1
27	28	1
2	10	1
8	8	2
5	74	1
133	133	1
14	27	1
115	115	1
71	84	1
0	3	1
98	98	1
133	136	1
78	79	2
74	79	1
76	78	1
78	81	1
96	100	1
34	94	1
10	10	1
139	140	1
76	113	1
77	78	1
111	112	1
86	88	1
12	121	1
110	111	1
24	28	1
