49	49	1
52	52	3
138	138	3
15	16	1
52	68	1
81	85	2
63	63	2
156	156	3
135	135	2
150	150	1
3	3	3
85	87	1
22	22	2
43	43	3
19	30	1
4	4	2
96	145	3
50	51	3
83	83	3
113	114	2
69	125	1
65	65	2
101	101	1
82	83	3
67	67	3
81	91	1
4	11	2
105	106	2
44	44	6
152	152	3
80	80	1
8	8	1
103	103	1
128	128	4
95	95	1
48	49	1
24	24	1
40	40	2
70	71	3
35	35	2
33	33	2
107	107	2
64	143	1
34	34	2
96	96	2
64	64	2
71	71	2
30	30	2
92	92	4
104	104	2
75	75	2
21	22	1
48	48	5
127	127	2
81	81	1
21	21	1
12	12	1
47	48	1
32	32	1
68	79	2
22	23	1
47	50	1
91	91	2
112	112	1
68	68	1
9	9	3
92	129	1
86	86	2
106	106	2
155	155	3
106	154	1
98	98	2
56	56	2
91	138	2
12	16	1
27	28	1
20	21	1
81	90	1
114	141	1
63	64	4
78	78	2
142	142	2
42	42	2
69	73	1
130	131	3
138	142	2
77	77	2
126	126	1
18	18	1
137	137	1
47	47	1
31	31	1
90	100	2
88	88	2
108	108	4
45	147	1
10	10	2
56	57	1
7	13	1
17	55	2
27	27	1
14	14	3
103	104	1
28	43	1
0	0	2
25	26	1
109	148	1
132	132	1
48	62	1
7	7	2
11	12	2
53	53	1
118	119	2
11	11	2
44	128	1
44	66	1
139	139	2
112	113	3
116	117	2
119	119	2
51	51	3
108	109	1
82	90	2
64	97	1
90	91	1
51	52	1
120	135	1
91	151	2
69	78	1
31	35	1
99	99	3
92	106	2
46	46	1
90	92	1
120	120	1
81	82	2
106	134	1
85	86	2
133	142	1
22	25	1
0	158	2
46	47	1
134	134	3
106	107	3
138	143	1
118	121	1
7	8	2
29	29	1
69	69	1
135	158	1
117	117	4
117	123	1
17	17	1
146	146	1
36	36	3
0	26	1
127	130	1
54	55	1
80	82	1
100	100	4
118	123	1
6	6	1
91	142	1
19	19	2
69	77	1
47	89	1
63	145	1
45	45	2
85	114	1
91	122	1
62	62	2
115	115	1
11	30	1
40	42	2
34	158	1
55	66	1
135	137	1
75	139	1
150	151	1
104	140	2
111	111	2
52	85	1
40	43	1
28	28	2
82	122	1
125	125	2
2	2	1
25	25	1
140	140	1
149	149	1
77	78	1
14	52	1
122	122	1
87	107	1
1	1	1
25	27	1
25	30	1
83	85	1
19	78	1
49	55	1
128	131	2
71	72	1
113	113	1
79	79	2
69	116	1
72	72	1
10	11	1
157	157	1
114	117	1
105	105	2
140	142	1
0	104	1
91	94	1
154	154	1
111	146	1
67	69	1
133	133	1
129	129	1
121	122	1
137	143	1
73	73	2
49	50	1
39	42	1
155	156	1
148	148	2
11	104	1
8	9	1
19	20	1
127	150	1
23	50	1
54	54	1
140	141	1
125	126	1
109	111	1
