28	31	1
41	68	1
6	6	2
120	120	3
133	134	2
144	144	1
10	10	3
80	104	2
93	93	6
111	111	2
96	96	2
47	68	1
118	118	5
114	114	1
131	131	1
84	85	1
63	66	1
34	35	1
108	143	1
5	5	2
11	11	1
110	110	3
97	97	2
68	114	2
121	121	1
70	71	3
111	112	2
149	149	3
134	134	2
126	126	1
66	66	2
75	97	2
100	100	4
44	44	2
7	7	1
48	70	1
23	23	4
109	109	1
87	89	2
130	141	1
129	134	1
128	129	4
129	129	3
95	120	1
24	39	1
87	87	2
32	149	1
57	57	1
132	132	3
70	97	2
30	30	2
54	54	1
123	123	2
22	24	1
94	132	1
108	108	2
41	41	2
105	106	1
46	46	2
71	121	1
146	146	2
122	122	1
9	9	1
45	45	2
2	37	1
121	122	1
27	28	1
72	73	1
48	48	3
33	33	1
85	105	1
130	135	1
67	68	2
98	110	1
81	81	1
99	108	1
53	53	3
56	58	1
109	123	2
45	46	1
63	69	2
8	24	1
46	68	1
82	82	2
90	139	1
8	8	1
89	135	1
14	14	2
114	122	1
68	68	2
76	82	1
124	124	1
138	138	1
129	147	1
80	118	2
3	3	2
85	85	2
20	20	1
106	106	2
39	39	4
40	122	1
42	42	1
8	9	1
39	62	1
49	49	2
27	27	2
25	25	1
87	118	1
73	113	1
117	117	1
122	146	1
139	140	1
28	29	2
145	147	3
55	76	1
49	109	1
88	126	1
118	119	1
65	66	1
110	117	1
16	16	1
61	67	1
67	67	1
12	12	1
95	144	1
113	113	2
123	133	1
81	83	1
87	127	1
10	43	1
120	121	1
35	35	1
21	21	1
51	53	1
75	77	2
43	46	1
113	141	1
116	124	1
141	141	2
102	102	1
150	152	1
63	105	1
9	35	1
57	99	1
98	98	2
119	119	1
45	57	1
144	146	1
152	154	1
84	91	1
25	56	1
93	95	1
24	24	1
145	145	1
40	48	1
143	143	1
145	146	1
99	99	2
118	125	1
29	45	1
109	111	1
79	79	2
69	69	1
84	84	1
125	125	1
55	55	1
83	145	1
41	56	1
137	137	2
107	112	1
83	104	1
13	13	1
20	23	1
56	56	2
128	133	1
106	141	1
133	135	1
33	51	1
4	10	1
73	142	1
2	36	1
14	30	1
37	37	1
75	76	1
5	7	1
95	95	1
29	29	1
128	128	1
43	50	1
31	32	1
33	65	1
19	19	1
138	142	1
25	27	1
12	13	1
143	146	1
46	48	1
150	151	1
5	9	1
96	119	1
64	69	1
86	86	1
127	127	1
139	139	1
78	80	1
