74	74	1
132	133	2
102	102	5
38	41	1
85	98	1
77	88	1
83	83	4
91	92	1
21	74	1
85	85	1
114	114	2
0	0	1
37	43	2
4	4	1
64	66	1
136	137	1
101	101	5
128	129	1
55	55	3
108	108	9
69	69	2
33	35	2
17	17	1
96	131	2
0	1	2
136	136	3
109	121	1
96	96	1
57	57	1
34	84	1
70	74	1
27	27	5
11	73	1
56	56	3
53	56	1
67	67	1
87	87	3
40	40	2
132	132	3
84	99	1
134	135	2
105	105	2
32	32	2
104	104	1
39	39	1
62	99	1
79	79	4
134	134	4
61	62	4
88	89	2
112	123	1
4	24	1
127	127	2
107	107	2
66	125	2
48	48	2
110	110	1
39	40	3
51	52	4
64	64	3
99	101	2
23	92	1
91	91	1
100	102	1
33	48	1
104	105	3
80	80	3
10	10	4
96	102	1
140	140	2
82	82	2
72	112	1
89	89	1
14	14	3
66	66	4
19	20	1
36	36	5
70	71	1
141	141	1
16	16	3
82	83	2
97	98	3
137	137	1
70	70	1
110	112	1
124	128	1
88	88	5
9	9	2
113	113	1
118	118	4
131	131	5
31	31	3
81	82	2
42	43	1
80	81	1
35	35	1
48	49	1
37	37	3
119	119	2
49	58	1
103	103	2
49	64	3
56	61	1
116	116	2
68	100	1
75	81	1
126	126	4
73	73	2
75	75	1
110	111	3
5	5	4
14	15	1
84	84	4
94	99	2
29	30	1
15	19	1
70	85	1
126	132	1
30	61	1
118	119	1
138	139	1
6	6	1
134	138	1
42	80	2
3	69	1
19	85	1
136	138	1
95	95	1
55	93	2
108	111	1
55	94	1
28	29	2
99	99	2
87	90	1
58	58	1
41	49	1
117	117	1
68	68	1
8	41	2
139	139	5
2	24	1
56	92	1
19	19	2
57	59	1
22	23	2
41	41	3
0	3	1
111	112	2
107	108	1
20	33	1
24	73	1
59	59	2
124	124	3
39	43	1
76	76	1
72	72	2
13	13	2
29	29	2
52	52	1
14	18	1
20	21	1
65	65	2
106	107	1
34	36	2
50	50	1
69	78	1
66	102	1
24	24	1
28	32	2
72	97	1
68	69	2
124	136	2
143	143	1
133	139	1
31	61	1
54	55	1
32	41	1
11	11	2
18	18	2
77	99	1
78	86	1
51	54	1
118	121	2
71	71	1
133	133	2
63	63	2
128	128	2
116	117	2
77	77	1
62	71	1
77	85	2
137	138	1
145	145	1
3	3	2
80	82	1
4	6	1
43	43	1
100	101	1
109	128	1
21	21	2
123	125	1
58	59	1
68	73	1
117	118	1
86	87	1
27	29	1
51	51	2
98	98	2
10	55	1
81	100	1
93	94	1
130	130	1
73	85	1
85	87	1
105	106	2
126	130	1
11	142	1
129	129	2
70	112	1
49	49	1
63	84	1
23	64	1
22	73	1
121	121	1
34	34	1
53	53	1
105	129	1
30	67	1
88	108	1
56	58	1
0	17	1
51	55	1
133	140	1
25	63	1
3	17	1
8	8	3
47	47	1
78	78	1
15	15	1
22	41	1
105	110	1
10	79	1
116	138	1
73	116	1
97	102	1
26	26	1
13	15	1
32	33	1
4	20	1
138	138	1
25	25	1
22	37	1
120	120	1
88	113	1
94	94	1
1	1	1
139	140	1
127	130	1
12	12	1
59	65	1
24	25	1
6	8	1
15	24	1
125	125	1
11	16	1
140	144	1
83	111	1
90	91	1
14	32	1
123	138	1
56	57	1
31	33	1
