97	97	1
34	34	3
159	159	1
93	93	2
77	78	1
117	118	2
148	148	1
139	139	1
92	92	3
50	50	1
10	12	1
130	130	2
39	39	2
83	87	1
118	118	2
12	13	2
76	76	2
51	51	2
57	80	1
167	167	3
101	102	2
105	110	1
154	154	1
74	74	4
151	152	1
126	126	3
94	94	3
150	150	2
133	133	1
153	153	4
132	133	3
142	142	1
82	87	1
102	124	1
11	11	2
13	131	1
85	85	2
90	90	2
165	165	4
101	101	4
100	100	2
111	111	2
112	143	1
110	110	3
132	132	1
44	44	1
155	155	1
47	47	3
43	43	3
4	4	2
146	146	1
81	81	3
18	20	1
83	83	4
112	112	1
16	16	1
100	146	1
112	125	1
82	82	2
129	129	3
72	72	3
142	143	1
113	117	1
33	33	2
166	166	2
45	45	1
68	68	2
22	22	4
57	64	1
90	151	1
53	53	1
120	120	2
116	116	2
98	98	1
98	136	1
112	114	1
70	70	2
9	10	1
90	124	2
23	23	7
103	103	4
113	113	1
62	62	2
15	63	1
162	162	2
33	34	1
128	128	1
89	89	1
7	52	2
102	103	1
107	137	1
54	54	2
153	154	1
39	40	2
50	51	1
155	156	4
99	106	1
140	140	2
17	17	1
88	89	1
144	144	1
56	56	2
73	107	1
91	91	2
71	79	1
125	125	3
127	129	1
79	79	1
71	71	4
11	22	1
149	149	2
84	86	1
97	107	1
98	122	1
124	124	2
88	88	1
6	35	2
105	105	1
38	38	1
122	122	1
141	141	2
144	145	1
169	169	1
6	6	2
63	101	1
1	2	2
15	15	2
122	126	1
123	123	1
1	1	2
20	21	1
100	101	1
15	16	1
68	77	3
110	139	1
2	21	1
62	64	1
167	168	1
127	127	1
49	51	1
114	114	1
92	93	1
62	164	1
99	99	1
46	46	1
8	10	1
122	125	1
68	78	1
163	164	1
155	157	1
42	42	1
19	19	2
84	96	1
48	48	1
89	98	2
87	87	1
40	40	1
143	143	1
136	136	1
138	138	2
20	20	2
63	63	1
56	119	1
27	111	1
100	168	1
80	80	1
161	161	1
100	141	1
84	84	2
9	9	2
156	156	1
150	151	1
135	136	1
66	126	1
163	163	1
123	124	1
168	168	1
56	91	1
117	117	1
88	145	1
109	129	1
62	63	1
62	84	1
158	158	1
46	71	1
95	96	1
14	14	1
108	137	1
134	158	1
170	170	1
12	12	1
109	109	1
140	141	1
