119	134	1
140	142	2
68	92	2
119	119	2
129	129	1
27	30	2
53	146	1
81	82	4
24	26	1
53	81	1
128	128	3
67	67	3
91	91	2
71	71	3
33	35	1
10	10	4
135	135	5
124	124	2
101	101	2
118	118	2
56	56	4
99	99	4
52	52	2
117	117	5
83	109	1
74	87	1
36	39	2
95	104	1
86	87	1
19	19	3
85	85	2
60	76	1
13	14	1
3	35	3
123	132	1
17	19	2
29	30	1
114	115	3
129	130	1
115	115	5
136	136	2
89	90	1
137	137	8
37	53	1
36	36	3
97	98	1
89	89	2
106	108	1
74	74	5
121	132	1
16	16	3
87	94	1
21	21	4
104	105	1
123	123	1
75	75	2
21	42	1
132	132	1
27	27	4
132	137	2
17	17	4
66	89	1
15	16	1
65	65	2
65	83	1
20	20	5
134	134	4
71	73	1
53	53	3
54	115	1
37	37	1
142	142	2
12	103	2
23	65	2
5	16	1
50	68	1
10	11	1
2	3	2
78	78	5
58	59	1
31	31	2
102	124	1
18	19	2
23	25	1
109	110	2
80	112	1
70	70	2
18	18	1
33	58	1
84	91	1
81	81	2
130	130	2
64	64	3
17	24	1
130	132	1
103	145	1
84	90	1
33	62	1
61	61	2
11	30	1
27	103	1
69	69	1
63	63	1
120	120	1
87	93	3
104	132	2
25	26	1
8	8	1
72	72	1
120	125	2
31	93	1
97	97	3
15	15	2
50	58	1
29	29	2
88	88	3
98	98	3
118	119	1
117	118	2
57	64	1
87	87	1
96	96	4
63	77	1
60	94	1
67	74	1
82	82	2
2	37	1
80	82	1
26	27	1
5	5	1
74	97	1
134	135	1
60	84	1
65	77	1
2	51	1
49	54	1
36	41	1
0	0	2
79	79	3
1	1	3
34	34	1
108	109	2
9	10	1
60	132	1
73	81	1
78	112	2
43	43	3
127	135	2
73	74	1
23	29	1
3	18	1
47	60	2
22	30	1
65	66	1
116	116	5
134	136	2
112	121	1
76	76	1
35	35	1
59	59	1
57	77	2
63	138	1
108	108	1
106	111	2
106	140	1
122	122	1
50	57	1
139	139	2
24	130	1
25	30	1
146	146	1
83	112	1
37	61	1
141	141	1
59	61	1
133	133	1
126	133	2
104	113	1
49	52	1
36	40	3
49	56	2
121	121	3
125	125	1
104	104	1
85	115	1
30	43	1
25	25	2
61	84	1
57	57	2
13	50	2
60	61	1
133	139	2
64	107	1
20	21	1
20	23	1
140	140	1
100	100	4
49	57	1
42	42	3
64	112	1
64	65	1
2	2	2
102	103	2
59	60	1
92	92	1
68	68	3
66	67	1
3	32	1
97	139	1
53	57	1
22	24	1
87	88	1
84	84	1
80	144	1
13	13	1
93	93	1
78	80	1
84	95	1
18	20	1
126	126	3
102	104	1
105	107	1
113	113	1
25	27	1
39	39	2
12	13	1
11	11	2
41	41	2
76	78	1
95	95	2
56	58	1
69	114	1
49	53	1
112	113	1
54	54	1
114	114	1
64	89	1
51	51	1
104	143	1
127	128	1
111	111	1
70	72	1
71	115	1
22	22	1
31	123	1
97	123	1
0	8	1
100	145	1
4	17	1
143	143	1
122	135	1
36	46	1
122	123	1
17	47	1
0	2	1
99	100	1
102	102	1
1	90	1
111	112	1
54	55	1
94	94	1
99	111	1
67	130	1
10	40	1
49	49	1
21	27	1
110	110	1
107	118	1
13	17	1
63	66	1
