8	8	2
145	154	4
111	193	1
44	44	3
45	45	5
6	50	1
84	84	2
71	114	1
67	67	3
94	94	1
195	195	3
10	13	1
172	172	4
82	82	3
50	50	5
184	186	1
100	100	1
13	13	2
179	179	2
68	69	1
61	64	2
64	180	1
58	58	1
156	156	6
10	51	1
175	176	2
16	16	2
32	32	3
106	106	5
19	19	2
119	143	1
114	114	1
125	125	3
138	158	2
59	59	2
77	83	1
103	103	1
2	15	1
17	17	1
19	21	2
103	106	2
184	184	1
119	161	2
155	156	1
64	66	1
77	78	2
128	128	3
53	53	3
20	21	3
25	25	3
145	145	4
118	125	1
84	85	2
140	140	4
63	78	1
191	191	3
2	3	1
108	108	2
138	139	1
194	195	1
26	69	1
175	175	3
52	53	1
172	173	2
103	109	1
137	137	1
186	186	2
80	80	1
109	110	2
31	31	7
64	67	1
131	131	2
182	182	3
112	112	8
33	35	2
76	76	3
30	86	1
148	148	3
152	152	2
166	166	2
134	134	4
145	174	1
12	12	3
16	66	1
42	42	2
32	47	1
183	183	2
178	186	1
66	68	1
27	27	1
78	78	3
102	108	1
69	123	1
77	77	3
130	130	2
19	133	2
170	170	1
173	173	3
95	174	2
161	173	2
30	30	2
15	33	2
70	70	3
167	167	1
152	155	1
59	60	1
129	148	1
122	122	6
139	139	1
95	95	2
134	135	1
126	126	1
115	115	4
187	187	1
52	52	2
87	111	1
130	165	1
81	81	2
19	20	1
68	68	2
21	21	1
94	138	1
75	75	1
113	114	3
0	68	1
26	33	2
53	76	2
3	3	1
197	197	1
116	116	3
169	169	2
71	72	2
94	100	1
76	77	1
19	26	1
4	5	1
20	133	1
109	109	1
88	88	1
87	142	2
24	25	1
65	65	1
63	63	1
2	8	1
98	98	2
11	11	1
89	89	5
34	35	2
194	194	4
111	111	2
71	71	2
48	48	3
194	196	1
42	43	1
115	174	1
44	55	1
8	16	1
146	165	1
105	107	3
85	89	2
147	165	2
69	130	1
44	66	1
34	34	1
9	10	1
74	74	3
82	83	1
23	23	3
135	167	1
98	151	1
178	178	2
129	129	1
98	99	1
35	35	1
6	6	2
76	79	1
107	107	2
180	180	1
81	82	1
112	159	2
131	136	1
132	191	1
54	126	3
161	161	1
160	169	1
129	190	1
163	163	2
70	71	2
181	181	2
89	117	1
114	117	1
59	120	1
107	113	1
142	166	1
15	137	2
0	4	1
39	39	1
34	42	1
58	62	1
150	150	3
1	1	2
41	41	1
105	138	1
119	119	3
56	56	2
105	115	1
9	9	3
117	117	2
124	124	3
150	151	1
68	76	1
146	146	2
160	179	1
30	41	2
96	96	2
73	76	1
153	153	1
122	160	1
22	30	2
64	64	1
24	61	1
99	132	1
47	47	3
159	159	2
103	104	3
154	154	3
51	51	4
127	127	3
156	157	3
187	188	1
164	164	1
121	122	1
115	116	1
99	99	1
99	111	1
72	72	5
168	169	1
125	140	1
26	26	2
59	73	1
43	166	2
122	139	1
196	196	3
130	170	1
142	142	2
65	68	2
40	40	2
51	53	1
117	155	1
131	140	1
183	184	1
118	120	1
54	55	1
97	153	1
170	172	2
160	160	1
37	37	3
73	73	1
4	4	1
106	108	1
94	99	1
104	104	2
173	174	1
148	155	2
40	66	1
10	10	2
28	29	1
60	60	1
193	193	1
54	93	1
149	149	1
148	156	1
74	112	2
177	177	2
129	160	1
62	68	1
6	7	2
33	34	1
137	138	1
188	188	2
27	28	2
53	98	1
32	34	1
18	101	1
67	72	1
192	192	1
49	49	1
46	46	2
193	194	3
130	131	1
196	197	1
158	158	1
69	70	1
135	136	1
67	68	1
32	44	2
176	176	1
73	75	1
183	186	1
14	14	2
27	31	1
115	140	1
35	36	1
117	118	1
95	136	1
5	6	1
107	108	1
116	166	2
190	190	3
37	153	1
97	98	1
192	193	1
164	165	1
97	99	1
131	170	1
119	120	1
69	69	1
81	97	1
158	196	1
174	177	1
53	68	1
121	153	1
147	148	1
3	76	1
57	58	2
11	61	1
64	176	1
189	189	1
159	161	1
34	38	2
180	181	1
20	20	1
36	36	1
105	105	1
141	141	3
159	160	1
7	7	1
43	44	1
139	165	1
157	165	1
24	24	1
132	132	1
68	70	1
163	165	1
24	189	1
65	197	1
105	129	1
174	192	1
135	135	1
42	107	1
166	190	1
143	144	1
100	102	1
100	150	1
101	119	1
29	29	1
102	104	1
0	0	1
101	101	1
113	113	1
149	186	1
116	189	1
7	8	1
144	158	1
