142	142	6
43	65	1
33	41	2
33	49	2
0	2	1
98	99	1
75	75	5
1	2	1
77	77	1
10	19	2
47	47	5
55	55	2
106	106	2
130	134	2
95	95	2
42	42	1
113	115	1
82	83	3
118	118	1
108	109	1
127	127	2
128	140	1
120	120	5
88	88	2
138	138	2
132	132	3
131	131	1
26	26	1
100	100	2
22	22	3
113	113	4
136	145	1
31	38	1
7	11	2
7	7	1
83	83	2
126	126	1
5	5	8
17	17	6
110	110	1
8	8	1
34	68	1
97	111	1
87	87	4
50	50	3
128	128	3
18	153	2
53	53	2
136	136	4
109	125	1
39	39	1
16	19	2
21	21	2
119	120	1
95	97	1
54	67	1
17	122	2
104	105	1
29	29	7
92	92	3
66	70	1
54	68	1
102	102	1
158	158	2
125	126	2
98	98	1
124	124	1
128	129	1
98	116	1
45	45	3
17	42	1
89	89	2
9	9	1
52	53	1
109	109	4
150	150	2
23	48	1
54	63	1
140	140	3
93	93	4
139	139	3
19	19	1
48	51	1
110	113	1
108	113	1
64	65	1
100	101	2
2	2	2
94	94	1
34	34	5
24	24	3
10	10	2
33	36	1
14	14	2
64	152	1
148	148	1
111	112	1
80	81	2
149	149	1
130	130	4
85	122	1
141	144	1
6	6	5
4	4	5
123	125	1
108	124	1
44	44	2
116	116	3
30	91	1
157	158	3
19	32	1
72	72	1
105	105	2
8	9	1
129	129	3
69	158	1
27	27	5
35	35	3
129	141	1
120	121	1
28	28	1
151	152	2
132	134	1
10	11	1
50	51	2
122	122	2
99	99	2
71	71	2
107	107	3
75	76	2
53	79	1
41	41	1
3	137	1
36	37	1
97	97	3
46	46	1
63	157	1
40	42	1
126	137	2
77	78	1
111	116	1
129	131	1
156	156	1
104	104	1
108	108	1
70	70	3
67	68	1
7	8	1
20	20	1
155	155	4
152	152	2
145	145	1
81	84	1
77	87	1
78	80	1
69	69	2
63	63	1
51	53	1
76	76	1
34	51	1
12	115	1
62	63	1
103	103	1
0	0	2
77	80	1
49	49	1
25	133	2
45	50	1
64	64	2
42	43	1
37	39	1
53	67	1
19	20	1
80	80	1
73	73	1
7	151	1
101	101	1
134	134	1
24	25	1
48	49	1
119	119	2
135	135	1
20	85	1
12	12	1
51	51	1
48	48	1
125	138	1
44	45	1
68	68	2
114	114	1
112	112	1
3	11	1
137	137	1
67	152	1
32	32	1
25	25	1
8	23	1
50	69	1
25	26	1
90	90	1
38	38	1
