162	162	4
211	212	2
12	12	2
40	40	5
234	235	1
92	93	1
89	89	1
55	97	1
93	220	1
31	31	1
154	154	3
84	115	1
109	109	2
17	209	1
175	176	1
203	204	3
147	221	1
29	30	1
97	97	5
26	26	2
10	10	2
67	70	2
190	193	1
6	36	3
156	156	2
173	173	1
160	161	1
55	55	1
6	6	2
200	200	2
76	76	1
166	166	1
18	19	2
37	43	1
176	176	1
208	208	1
114	114	3
182	207	1
51	52	3
86	86	3
54	56	1
63	63	1
73	74	1
176	223	1
211	213	1
166	170	1
108	117	1
99	99	1
110	110	2
35	35	1
38	39	1
236	236	2
27	27	1
227	228	1
183	183	1
112	112	3
28	29	1
233	234	1
232	232	2
119	119	2
173	236	1
225	225	1
39	39	1
2	3	1
172	174	1
100	100	1
9	9	3
45	45	3
239	240	1
12	17	1
221	222	1
244	244	1
204	204	1
158	158	4
222	222	1
82	244	1
85	86	1
161	174	1
11	12	1
70	75	1
168	168	2
33	33	2
145	151	3
93	94	1
153	153	1
1	1	2
51	53	1
66	68	2
39	40	3
220	237	3
78	79	1
182	182	1
55	118	1
47	114	1
44	44	3
23	23	2
41	41	1
152	152	1
226	226	2
162	167	1
111	112	1
102	106	1
187	187	1
51	51	2
213	213	1
58	73	1
70	70	1
46	46	1
68	83	1
166	167	2
175	175	3
159	159	1
147	151	1
64	65	1
107	108	1
90	90	1
245	245	1
211	211	1
219	219	1
157	157	1
147	147	1
161	225	1
95	95	1
78	78	1
93	93	1
14	15	1
106	106	1
57	95	1
95	117	1
161	161	1
191	191	1
215	242	1
26	27	1
77	77	2
229	229	1
96	96	1
36	46	1
114	115	2
7	7	3
24	24	1
163	239	1
242	242	2
63	91	1
201	201	1
167	167	2
210	210	1
209	209	1
157	203	1
28	28	4
22	23	1
54	147	1
192	193	1
155	155	1
56	145	1
36	111	1
97	103	1
170	215	2
85	101	1
34	46	1
169	169	1
7	12	1
79	79	1
181	181	2
1	2	1
32	32	1
48	244	1
15	15	1
243	243	1
71	74	1
216	240	1
20	20	2
153	154	1
88	88	1
206	206	1
231	231	1
193	194	1
210	211	1
228	228	1
192	192	1
8	109	2
246	246	1
85	85	1
47	47	1
109	110	1
198	198	1
50	50	1
69	69	2
203	203	1
19	20	1
116	116	1
22	22	1
45	52	1
113	113	1
94	95	1
177	229	1
199	209	1
10	26	1
31	32	1
8	9	1
245	246	1
184	184	1
42	111	1
65	66	1
52	145	1
18	18	1
86	87	1
59	59	1
52	52	1
51	243	1
37	37	1
