5	14	2
65	130	2
20	21	3
233	234	1
97	100	1
76	76	3
14	14	4
81	81	2
18	127	1
222	222	4
133	133	6
13	15	1
123	123	4
210	210	4
28	28	1
41	67	1
97	97	2
180	183	2
199	199	1
219	238	1
175	175	2
0	0	1
134	134	4
219	231	2
18	52	1
56	229	2
156	194	1
169	169	1
153	164	1
47	47	1
80	80	2
3	58	1
39	48	2
80	82	2
23	23	2
7	8	1
195	196	1
56	59	1
70	70	6
84	84	3
69	71	2
43	43	1
138	138	1
48	110	1
164	170	1
230	230	4
147	181	1
41	41	1
33	33	2
201	201	1
4	4	2
180	180	2
55	170	1
42	129	1
11	202	1
17	41	1
140	227	2
159	208	1
211	211	2
58	60	1
215	215	2
206	237	1
50	50	1
71	72	2
116	117	2
118	118	2
174	174	2
126	126	2
0	15	2
121	228	1
197	200	1
102	176	1
128	184	1
71	71	7
167	168	1
105	125	1
144	188	1
31	31	2
16	18	1
232	232	3
36	36	1
52	54	1
194	235	2
70	74	1
142	142	2
88	88	1
162	167	1
113	113	1
12	12	3
138	195	1
24	25	1
184	191	2
171	171	3
219	219	1
152	153	1
146	151	1
209	209	3
144	144	2
84	226	1
49	136	2
144	167	1
235	235	1
119	234	1
124	124	1
112	113	1
20	20	1
220	232	2
122	122	1
104	105	1
131	131	2
32	86	2
59	59	3
73	73	2
45	45	1
51	89	1
115	117	3
226	226	1
58	58	2
240	240	2
166	211	1
119	119	1
116	116	1
218	218	1
139	191	1
56	196	1
21	76	1
21	22	2
213	214	1
78	78	1
183	183	1
133	134	1
160	161	1
115	115	3
227	227	2
0	1	2
147	147	2
223	223	3
153	197	1
111	112	1
225	225	1
189	209	1
141	187	1
195	195	1
184	185	2
217	217	1
77	150	1
178	178	2
224	224	3
65	96	1
168	178	1
152	211	1
5	82	1
123	140	1
97	121	2
22	50	1
26	27	2
135	169	1
39	143	1
54	201	2
140	140	1
131	173	1
26	61	1
72	76	1
21	21	1
6	211	1
184	184	1
56	56	1
152	152	1
69	70	1
38	38	2
29	69	1
189	193	1
115	119	1
241	241	2
74	74	1
140	226	1
165	185	1
163	195	1
220	220	1
186	186	1
66	126	1
137	140	1
137	137	1
17	17	2
122	135	2
206	206	4
154	210	1
105	105	1
193	193	1
49	49	1
128	129	1
104	221	1
117	117	1
8	102	1
34	48	1
14	15	1
75	75	2
136	217	1
57	57	2
64	70	1
6	118	1
183	194	1
121	121	1
127	127	2
189	189	1
173	173	1
30	47	1
68	69	1
120	213	1
169	195	1
202	202	4
46	47	1
26	26	3
125	125	1
27	27	3
107	107	1
133	196	1
18	18	1
162	162	1
112	112	1
136	137	2
165	166	3
241	242	1
224	228	1
19	19	1
225	226	1
164	165	1
29	29	1
68	68	2
235	237	2
23	36	1
156	227	1
100	100	3
216	219	1
15	131	1
159	174	1
63	178	1
34	34	2
161	161	1
173	182	1
197	197	1
191	191	1
120	121	1
162	221	1
146	146	1
149	150	1
189	213	2
108	108	1
135	135	2
242	242	1
231	231	1
98	99	1
199	200	1
65	69	1
83	83	1
7	207	1
62	112	1
175	238	1
10	11	1
45	97	1
37	37	1
182	182	1
171	172	1
51	52	1
158	158	1
15	41	1
61	65	1
203	203	1
66	189	1
9	9	1
81	132	1
119	199	1
18	40	1
46	46	1
119	120	1
141	141	1
105	215	1
98	98	1
143	147	1
150	236	1
188	188	1
157	157	1
49	50	1
149	160	1
219	223	1
32	33	1
212	222	1
237	237	1
58	59	1
24	47	2
52	53	1
186	188	1
172	175	1
161	162	1
47	113	1
25	25	2
124	125	1
33	210	1
32	210	1
147	200	1
51	51	1
13	14	1
106	106	2
127	131	1
55	228	1
180	227	1
154	154	1
136	234	1
129	129	1
181	181	1
7	35	1
127	181	1
40	78	1
154	200	1
32	205	1
9	88	1
39	41	1
196	196	1
8	10	1
