56	57	5
168	168	3
32	32	2
43	43	2
114	116	2
155	155	3
226	227	1
206	231	2
109	109	4
176	179	1
25	26	2
179	180	1
201	203	1
42	42	7
240	240	3
111	112	3
207	220	1
233	234	3
225	225	2
40	40	3
29	32	1
94	94	1
156	156	2
193	199	3
67	67	3
77	95	1
146	146	3
93	93	4
24	24	1
153	153	1
228	228	2
8	8	3
227	233	1
26	27	2
158	159	1
191	191	2
110	110	3
50	195	1
68	69	1
208	208	2
210	210	3
49	50	1
74	74	1
15	15	1
89	89	2
206	206	2
150	150	3
231	232	1
120	144	1
220	220	2
56	163	1
193	193	2
61	93	1
28	38	1
180	185	2
204	204	2
201	201	2
100	100	7
46	46	1
34	34	3
182	183	1
215	215	4
96	104	1
79	81	1
190	191	4
117	117	1
85	85	3
17	17	2
52	53	1
224	224	3
207	234	1
195	195	2
114	114	1
77	78	2
83	85	3
77	77	2
73	73	1
49	49	2
103	118	1
183	211	1
241	241	1
175	175	2
158	163	2
1	1	3
246	246	1
45	45	2
18	18	1
172	172	2
44	44	2
86	86	3
224	225	1
58	58	5
207	207	2
112	112	1
9	15	1
93	94	1
58	59	1
190	190	1
7	7	1
11	11	5
3	3	1
30	30	3
199	199	2
104	106	1
200	200	5
205	205	7
54	54	2
197	198	2
88	88	6
223	223	1
169	171	1
182	182	6
91	91	3
14	14	1
224	229	1
38	40	1
174	174	2
212	212	5
71	72	2
79	79	2
41	41	1
232	234	4
180	181	1
187	228	1
50	57	2
185	185	5
207	219	2
97	97	2
108	109	1
57	57	3
192	214	1
208	209	1
53	53	2
156	209	2
19	22	1
187	188	2
7	69	1
116	116	1
59	60	1
226	226	1
182	190	1
74	75	3
29	29	1
159	159	2
82	83	2
91	92	2
160	160	4
39	39	3
116	117	1
183	207	1
112	114	3
244	245	1
69	75	1
97	98	1
75	105	1
201	205	1
197	197	1
163	163	1
53	54	2
27	27	3
63	63	2
158	170	1
2	2	1
50	183	1
11	17	1
213	217	1
54	180	2
230	230	3
69	71	1
26	26	1
242	245	1
186	195	1
225	228	1
219	219	2
28	28	1
38	39	1
6	39	1
155	208	1
194	194	1
167	167	4
171	171	4
85	164	1
192	199	1
38	38	1
156	157	1
98	157	1
6	6	5
56	56	2
234	234	1
230	231	1
70	106	3
51	51	3
192	192	5
237	237	2
53	186	1
145	145	2
181	181	1
19	20	1
157	215	1
176	224	1
210	211	1
35	35	1
80	112	2
21	21	1
64	95	1
52	209	1
4	114	1
36	36	1
222	222	1
198	198	2
95	95	1
216	217	1
154	154	3
108	108	1
23	23	1
188	188	2
164	164	2
47	151	1
72	72	1
106	106	2
22	22	1
12	153	1
170	170	4
101	102	1
47	47	2
47	65	1
159	165	1
221	222	2
229	229	2
79	80	1
62	62	1
36	47	2
87	90	1
29	30	1
209	209	2
170	171	2
105	107	2
247	247	1
119	120	1
31	34	2
90	90	1
111	111	2
80	81	1
44	107	2
39	40	1
163	215	1
66	69	1
177	177	2
104	107	1
208	240	2
171	172	2
79	95	1
12	12	1
110	111	1
180	197	1
184	184	1
189	223	1
66	114	1
172	174	1
22	23	1
47	48	2
64	65	1
1	8	1
222	223	1
44	109	1
189	189	1
245	246	3
54	214	1
75	75	2
235	241	1
202	202	1
119	119	1
151	151	2
243	244	1
162	243	1
118	118	1
65	65	2
60	60	1
1	2	1
211	211	1
210	214	1
64	64	1
157	157	1
238	239	1
162	162	2
149	171	2
25	25	1
50	56	1
4	4	1
166	166	1
178	178	1
159	161	1
37	37	3
213	213	2
99	99	1
224	230	1
55	57	1
53	117	1
68	75	1
50	50	1
68	74	1
195	196	2
120	120	1
55	55	1
33	33	1
42	43	2
227	229	1
68	73	1
218	218	1
36	38	1
19	19	1
105	119	1
177	193	1
46	219	1
21	22	1
235	236	1
186	186	1
2	19	1
87	87	3
18	21	1
214	214	1
176	176	1
5	5	1
160	161	1
54	111	1
104	104	1
57	64	1
245	245	1
72	79	1
180	196	1
39	42	1
84	85	1
28	29	1
