41	88	3
122	122	4
34	35	1
45	45	1
47	48	1
108	108	1
38	39	1
17	17	2
6	11	1
40	41	1
117	117	2
77	77	1
2	118	1
81	83	1
50	50	2
71	71	4
27	28	2
10	11	2
117	118	1
21	21	1
98	104	1
6	6	3
44	44	4
35	35	3
82	82	2
125	126	1
67	68	1
3	4	1
63	63	2
107	107	2
72	72	6
14	15	2
118	123	1
34	34	4
6	7	1
16	17	1
106	106	2
15	95	1
73	74	2
73	73	3
14	14	2
94	94	5
80	80	3
111	111	1
13	19	2
115	121	2
100	130	1
96	96	2
26	42	1
82	91	2
111	113	2
100	109	1
68	68	2
39	49	1
2	2	4
74	74	2
92	114	1
29	29	1
111	125	1
86	86	1
17	58	1
129	130	1
6	20	1
120	120	4
83	83	2
76	76	2
8	27	1
11	11	6
60	60	4
31	31	1
40	40	1
19	19	2
92	92	2
134	134	3
97	97	4
12	24	1
51	51	1
4	41	1
39	39	2
13	20	1
37	42	1
36	41	1
19	125	1
127	127	2
84	120	1
72	78	1
104	114	1
128	128	3
20	101	1
72	73	1
89	90	1
91	127	1
96	99	1
99	99	2
112	112	3
36	95	1
7	107	1
61	61	2
22	22	3
111	114	1
35	36	1
113	114	2
64	65	1
5	5	2
84	84	2
48	48	2
3	17	1
46	129	1
33	77	1
121	121	1
66	66	3
58	132	1
13	13	2
23	79	1
65	65	2
16	16	1
27	27	2
19	20	4
130	130	1
23	23	1
101	127	3
90	90	4
81	84	1
110	110	1
4	4	1
132	132	4
122	129	2
128	131	1
25	25	2
108	109	2
4	114	1
58	58	1
1	1	2
101	126	1
18	18	1
89	98	1
14	58	1
77	79	1
29	91	1
119	119	2
116	116	1
47	47	1
32	33	2
91	91	1
123	124	1
57	57	1
114	115	2
44	45	1
22	23	1
109	109	1
82	122	1
4	11	1
93	93	1
20	21	2
115	115	2
124	124	2
133	133	2
71	72	1
98	98	1
19	87	1
80	84	1
27	102	1
43	43	1
36	36	2
83	84	1
39	43	1
57	58	1
118	134	1
126	126	1
108	110	1
33	33	2
21	32	1
6	38	1
87	88	2
56	104	1
20	20	1
18	22	1
34	36	1
24	42	1
27	43	1
85	86	1
89	103	1
64	64	4
79	80	1
120	121	1
114	131	1
28	37	1
37	37	1
92	99	1
55	55	1
2	17	1
8	8	1
131	131	1
31	126	1
103	104	2
59	59	1
119	120	1
65	66	1
125	125	2
79	79	1
69	69	1
41	42	1
63	67	1
29	37	1
77	78	1
67	67	1
70	70	1
16	18	1
43	90	1
38	38	1
75	75	1
2	3	1
80	82	1
84	85	1
59	60	1
27	103	1
15	15	1
115	131	1
107	108	1
113	113	1
33	34	1
62	62	1
12	12	1
26	113	1
36	40	1
24	24	1
