56	56	3
125	136	1
99	99	3
16	83	2
78	79	1
51	51	1
16	47	1
111	111	4
3	4	1
89	89	3
107	134	1
108	108	1
12	117	2
11	11	3
13	13	3
41	41	1
157	157	3
123	153	2
3	6	1
141	163	2
137	137	1
156	157	1
27	27	1
21	21	3
51	79	1
47	47	3
22	23	2
116	116	4
73	73	1
4	4	4
46	46	4
131	158	1
14	14	2
34	35	2
123	123	1
50	50	3
25	25	3
128	128	1
36	37	2
124	124	3
67	67	1
140	140	2
40	40	3
52	53	1
44	47	1
66	66	2
8	8	1
118	118	3
76	76	2
7	7	2
163	163	2
63	63	1
143	143	2
58	62	1
98	98	1
81	82	2
44	91	1
145	145	1
157	158	1
134	157	2
153	166	1
95	125	2
39	48	1
20	20	1
110	136	1
2	2	4
159	159	2
154	156	1
106	106	1
149	149	3
130	130	2
47	83	1
165	165	2
119	121	1
119	119	6
114	114	1
42	42	1
15	15	2
39	39	4
136	136	1
83	83	2
96	119	1
5	6	1
86	86	1
18	51	1
139	139	2
70	87	1
37	37	4
14	15	1
123	145	2
77	77	1
64	64	2
16	42	1
139	140	1
9	9	1
81	81	3
105	124	1
89	126	1
56	131	1
65	65	2
144	144	3
68	68	3
49	50	1
80	80	1
20	26	1
82	98	2
38	100	1
84	98	1
89	90	1
110	110	4
162	162	2
103	103	2
104	169	1
36	36	3
6	12	2
78	78	2
144	145	2
74	74	1
2	3	1
89	94	2
123	124	1
52	52	3
153	153	1
154	154	2
169	170	2
118	132	1
96	96	1
87	87	2
0	0	2
15	45	1
39	109	1
45	45	2
46	53	1
120	120	2
55	55	1
3	7	1
71	71	3
158	159	1
18	93	1
163	165	2
139	147	1
83	97	1
12	97	1
125	127	1
113	127	1
137	139	1
6	10	1
100	130	1
88	128	1
137	138	2
141	141	1
64	72	1
97	98	1
120	125	1
151	151	3
156	170	4
163	164	2
75	75	1
95	101	2
26	26	1
112	122	1
166	166	1
22	22	1
80	81	1
122	123	2
105	125	1
105	105	1
120	122	1
119	120	1
137	161	1
79	111	1
102	128	1
134	134	3
147	147	1
97	125	1
160	160	2
28	28	1
28	73	1
138	138	1
43	43	1
3	16	1
95	102	1
113	114	1
132	158	2
85	85	1
44	44	2
16	16	2
158	158	1
17	18	1
52	73	1
43	117	1
140	142	2
49	115	1
168	168	1
67	82	1
11	18	1
156	156	2
105	167	1
127	128	1
51	52	2
41	42	1
54	55	1
10	119	1
99	105	1
94	117	1
121	155	1
90	90	1
95	95	1
114	115	1
165	169	1
99	106	1
89	103	1
101	101	1
109	109	1
126	149	1
135	135	1
84	91	1
48	48	2
91	107	1
52	130	2
142	142	1
77	78	1
155	155	2
103	117	1
150	150	1
33	33	2
71	86	1
83	85	1
69	69	3
11	36	1
107	107	1
97	99	1
104	104	1
22	113	1
40	41	1
6	6	1
91	91	1
57	57	1
17	20	1
124	125	1
56	57	1
35	35	1
136	137	1
73	77	1
155	157	1
39	64	1
10	10	1
112	121	1
132	133	1
