116	116	1
93	93	1
58	59	1
158	164	1
87	88	1
175	175	1
102	102	2
139	139	2
75	75	2
43	59	1
127	130	1
12	12	1
79	148	1
36	36	2
181	181	3
146	147	3
17	17	3
8	8	2
172	172	4
58	145	1
15	15	2
177	177	2
161	161	3
60	60	3
5	5	6
42	94	1
134	135	1
25	25	1
150	152	1
10	12	1
16	18	2
28	29	2
85	85	3
89	91	2
31	41	2
26	26	3
98	98	4
76	156	1
122	142	2
88	88	2
168	176	1
164	164	1
141	143	2
59	59	2
2	2	4
74	82	1
43	43	1
94	95	2
185	185	1
10	10	3
101	101	1
149	149	3
29	33	2
77	77	4
141	150	1
120	120	3
58	61	1
116	136	1
109	109	1
80	89	1
67	67	2
187	189	1
114	114	4
65	82	1
181	187	2
156	156	1
146	146	4
36	93	1
111	116	1
170	173	1
182	182	3
132	132	1
47	47	1
121	134	2
117	172	1
64	77	1
1	26	1
126	126	2
27	27	1
62	87	2
136	136	4
84	84	4
54	55	2
178	178	4
115	115	3
61	62	1
107	107	5
143	143	3
53	53	2
59	61	1
189	190	1
180	180	3
141	155	2
82	82	3
167	167	1
40	40	3
85	90	1
148	148	2
135	138	2
111	114	1
29	29	1
73	73	1
110	184	1
149	150	3
38	39	1
189	189	1
75	79	1
179	187	1
100	174	1
4	16	1
147	147	1
113	113	4
106	108	1
81	82	1
99	113	1
3	4	1
0	0	3
34	34	4
45	46	2
168	168	2
22	29	2
30	30	4
86	86	4
89	89	1
179	179	1
41	41	4
99	99	2
144	144	2
83	83	2
18	20	2
99	101	1
169	169	1
61	61	2
175	176	1
79	183	1
186	187	1
48	48	1
96	97	2
94	102	1
20	22	2
130	131	1
80	127	1
137	137	4
60	92	1
121	121	1
129	129	2
111	111	2
52	74	1
98	117	1
165	165	2
118	179	2
165	166	1
43	44	2
156	171	1
53	55	1
123	135	1
92	92	2
79	156	3
4	55	1
23	23	1
76	76	2
79	79	5
155	155	4
141	141	3
81	81	1
103	103	2
138	149	1
40	116	2
27	29	1
23	42	1
6	7	2
36	90	1
65	97	1
22	24	1
28	33	1
129	130	1
62	63	2
57	58	1
128	141	1
125	174	4
118	119	1
42	42	2
88	185	1
18	18	1
104	104	1
4	25	1
15	19	1
129	155	2
115	117	2
80	80	3
108	109	1
63	65	1
22	22	4
105	148	1
48	72	1
95	95	3
76	80	2
39	39	2
68	86	1
106	106	2
183	183	4
188	188	3
62	62	2
134	138	1
102	176	1
114	115	3
13	26	1
151	156	1
72	73	1
142	142	2
23	25	2
96	99	1
94	94	1
162	173	2
38	38	2
45	45	5
188	189	1
143	144	1
58	58	2
20	20	1
34	36	1
33	33	1
83	84	2
119	136	1
133	134	1
135	143	1
46	46	3
4	5	1
163	163	2
70	70	1
127	128	1
184	186	1
173	174	1
134	172	1
12	14	1
5	6	1
20	29	1
153	154	2
87	87	2
128	130	1
37	37	1
75	148	1
89	94	1
130	130	1
20	21	2
29	31	1
3	3	3
100	101	1
108	108	3
4	4	4
180	181	3
92	93	1
66	125	1
84	89	1
21	28	1
16	16	2
101	129	1
80	82	1
87	106	1
68	68	1
72	72	3
95	98	1
77	104	1
170	185	1
90	90	2
141	170	2
24	24	3
19	20	1
6	64	1
86	118	1
157	158	1
128	128	3
70	122	1
12	20	1
125	125	3
187	188	1
124	124	1
66	66	1
23	34	1
96	96	2
55	55	1
139	140	2
137	186	1
38	47	1
104	106	1
102	103	1
159	163	1
166	167	1
7	7	2
85	87	1
78	79	1
56	104	1
78	78	1
35	35	1
21	21	2
162	163	1
90	94	1
46	125	1
176	176	1
67	74	1
27	28	1
10	11	1
143	153	1
72	74	1
59	60	1
19	19	2
46	66	1
105	105	1
183	184	1
132	133	1
20	25	1
19	21	1
124	125	1
92	107	1
160	160	1
32	32	1
170	170	1
146	150	1
190	190	1
13	37	2
54	54	1
171	171	1
73	121	1
179	180	1
159	172	1
149	174	1
163	175	1
157	185	1
57	57	1
12	13	2
122	129	1
184	184	1
71	78	1
154	154	1
64	66	1
56	58	1
135	139	1
169	170	1
105	154	1
120	121	1
35	86	1
69	71	2
150	150	1
31	37	1
65	73	1
118	118	1
44	44	1
107	122	1
28	28	1
139	148	1
125	126	1
49	88	1
