6	44	1
82	83	4
126	127	1
67	67	1
127	153	1
23	23	4
73	73	2
18	24	1
153	153	3
164	170	1
26	160	1
155	159	1
1	1	1
16	16	3
144	144	2
47	55	1
10	17	2
45	45	1
17	77	2
20	20	1
36	36	3
44	135	1
42	43	1
104	136	1
74	90	1
95	95	2
86	87	1
83	131	2
90	91	2
49	50	1
163	164	2
118	118	1
154	154	1
71	149	1
110	160	2
131	136	1
149	149	2
139	140	3
98	100	1
77	77	1
79	79	5
12	12	1
7	7	2
4	5	2
80	80	1
51	51	1
71	97	1
56	70	1
152	152	1
117	131	1
52	57	1
121	128	2
2	2	1
5	5	1
110	139	1
157	157	1
120	120	1
145	151	2
112	115	2
65	67	3
13	14	2
16	37	1
150	150	2
44	45	2
112	112	2
93	132	1
164	165	1
140	166	1
55	76	1
132	133	1
158	158	2
6	106	1
160	160	2
64	64	5
38	45	1
27	27	1
94	94	4
135	135	3
66	66	1
165	165	3
76	109	2
91	91	2
84	100	1
71	71	3
139	139	1
116	116	1
106	106	3
123	166	1
115	115	1
11	11	2
122	122	1
23	52	2
92	92	4
83	118	1
63	63	2
65	65	2
48	48	2
70	73	1
87	88	1
115	120	3
104	104	2
107	107	2
90	90	2
80	83	1
100	105	1
125	129	1
14	16	2
89	89	2
52	89	1
124	148	1
25	68	2
122	166	1
140	140	2
93	93	3
70	70	3
116	118	2
147	147	2
39	39	2
156	157	2
92	93	1
119	122	1
57	57	2
82	82	3
78	78	1
3	3	2
111	111	4
110	110	2
159	159	1
63	80	1
21	22	1
40	40	1
99	112	1
62	62	1
34	35	1
46	46	2
57	90	1
58	58	1
15	136	1
109	109	5
146	146	2
99	99	2
69	72	2
10	104	1
124	124	1
22	22	1
131	131	2
58	75	1
68	69	1
125	125	2
88	88	1
67	68	2
111	112	1
41	41	1
131	132	1
64	68	1
102	103	1
43	43	2
52	132	1
40	75	1
157	158	1
166	166	3
92	120	1
93	94	1
113	114	1
112	123	1
93	101	1
46	58	1
25	65	1
137	137	1
52	52	1
49	49	2
103	134	1
124	147	1
157	161	1
74	74	3
0	0	1
53	54	1
108	108	1
19	23	1
167	167	1
123	153	1
163	163	1
98	99	1
127	127	2
0	11	1
156	156	1
155	155	1
167	170	2
130	136	1
14	14	1
101	121	1
24	53	1
25	90	1
136	136	1
81	81	1
132	132	2
128	128	1
100	127	1
113	113	1
98	112	1
47	47	1
18	90	1
135	145	1
140	143	1
18	18	1
119	119	1
34	34	2
55	55	1
45	48	1
100	100	1
10	19	1
106	109	2
152	165	1
132	167	2
75	77	1
103	104	1
18	19	2
114	114	1
56	57	1
83	88	1
70	93	1
99	126	1
97	102	1
55	93	1
8	122	1
70	71	1
69	102	1
142	142	1
17	22	1
67	69	1
24	24	1
162	162	1
75	106	1
5	7	1
76	100	1
122	162	1
69	69	1
86	86	1
57	76	1
92	124	1
0	3	1
123	123	1
105	106	1
