21	84	1
74	77	1
90	93	3
105	105	2
92	92	1
97	104	1
8	8	4
24	24	2
120	120	2
27	28	1
71	72	4
123	125	2
77	77	1
81	97	1
57	60	2
78	78	2
108	108	2
127	127	1
104	104	3
26	128	1
48	48	2
42	46	1
9	10	2
43	43	3
105	106	1
93	96	1
64	64	6
13	13	3
94	94	2
7	58	1
82	82	2
106	106	4
81	134	1
9	114	1
58	59	1
13	106	1
110	110	2
20	46	2
84	85	1
19	19	2
22	22	2
18	71	1
24	25	1
12	12	2
66	66	1
69	69	1
103	104	1
63	123	1
25	38	1
111	111	3
31	31	2
71	77	2
14	14	3
90	90	5
17	17	3
41	42	1
32	32	1
84	91	1
25	25	3
131	131	2
5	18	1
115	123	1
27	30	1
107	131	1
45	45	2
91	97	1
91	100	1
115	115	4
62	62	2
130	130	2
72	73	1
27	41	1
86	86	1
117	117	2
5	5	2
114	117	1
16	16	2
119	120	1
99	99	1
123	131	1
91	92	1
86	88	2
44	45	1
132	132	3
119	119	2
63	66	1
42	42	1
70	100	1
49	55	1
57	57	2
132	133	1
126	126	1
78	134	1
9	9	2
92	96	1
95	95	3
46	66	1
74	74	1
46	47	2
47	47	1
80	80	1
89	134	1
11	11	3
32	37	2
44	44	3
82	99	2
60	65	1
59	59	1
46	46	2
45	47	1
55	55	3
10	10	4
55	110	1
21	40	1
33	33	3
6	6	1
8	22	1
27	27	3
84	94	1
7	42	1
40	56	1
78	111	1
34	34	1
79	130	2
96	96	1
21	26	1
65	65	2
112	112	5
7	7	3
50	50	1
62	70	1
13	14	1
111	117	1
70	71	1
3	4	1
77	116	1
80	81	1
31	39	1
89	99	1
121	123	1
128	128	1
37	129	1
88	88	1
92	94	1
1	1	1
10	33	1
118	118	1
39	40	2
71	75	1
73	73	2
125	125	1
116	116	2
38	38	1
7	10	1
37	37	2
65	74	1
71	71	1
6	76	1
122	125	1
124	132	1
31	32	2
48	49	1
2	12	1
38	40	1
36	37	1
72	72	4
5	24	1
61	63	1
23	24	3
85	86	1
28	28	1
29	29	1
97	98	2
93	93	2
84	84	2
98	105	1
108	109	1
83	96	1
103	103	1
77	78	1
57	86	1
129	129	2
113	113	2
105	123	1
8	9	1
124	124	1
121	121	1
23	23	2
9	35	1
47	87	1
11	15	1
57	109	1
126	133	2
66	67	1
60	134	1
33	34	1
63	63	1
3	6	1
40	41	1
26	42	1
8	10	1
15	15	1
79	101	1
55	58	1
79	102	1
102	105	1
6	23	1
134	134	1
107	107	1
8	50	1
35	35	1
59	76	1
18	28	1
112	113	1
69	70	1
87	121	1
23	38	1
61	61	1
80	134	1
6	58	1
40	40	1
7	43	1
50	79	1
120	123	1
124	127	1
104	105	1
79	79	1
123	124	1
18	18	1
57	58	1
75	75	1
100	108	1
81	81	1
65	67	1
21	23	1
121	122	1
94	97	1
98	98	1
47	73	1
38	96	1
103	105	1
44	123	1
98	103	1
