44	44	5
53	53	4
57	57	1
15	15	3
51	58	1
65	65	4
22	120	2
102	128	1
12	12	6
95	95	1
33	33	3
74	124	1
18	18	3
47	95	1
153	153	5
98	103	1
96	102	1
142	142	1
10	11	1
34	34	2
79	79	1
139	139	2
120	120	2
148	148	3
102	133	1
7	22	1
133	133	2
28	28	6
79	81	1
83	83	4
41	46	1
62	62	2
41	42	2
112	112	2
114	140	1
69	125	1
127	127	1
101	102	3
40	41	1
27	29	1
29	30	1
115	115	1
71	73	3
65	69	1
81	116	2
77	77	2
21	79	1
110	110	2
28	132	1
29	32	1
88	88	2
11	22	1
32	32	3
54	54	2
55	55	2
130	136	2
71	71	3
126	127	3
120	123	2
133	138	1
35	35	5
24	25	2
19	19	2
16	16	1
86	123	1
123	128	1
17	17	4
66	67	1
71	135	1
117	117	4
38	39	1
135	137	1
63	65	1
76	77	1
48	48	3
103	129	1
8	8	3
12	13	2
6	7	3
13	13	4
30	31	2
124	132	1
128	128	3
137	137	3
46	71	1
122	122	2
142	145	1
38	38	2
11	12	1
21	80	1
16	18	1
12	15	1
76	76	2
114	114	1
29	29	3
134	134	2
11	11	3
145	145	1
14	14	1
135	135	3
120	121	1
47	47	2
86	98	1
126	128	3
136	136	2
24	26	1
8	9	1
122	141	2
100	100	3
40	40	2
4	62	1
140	140	1
35	106	1
101	138	1
18	19	3
131	132	1
102	129	1
7	7	2
138	138	2
43	50	1
11	154	1
74	76	2
17	29	1
6	6	2
124	125	1
19	23	1
7	67	1
109	109	2
45	93	1
130	130	1
68	111	1
64	96	1
92	134	1
4	31	1
23	23	2
68	82	1
21	21	1
41	41	2
7	8	1
75	75	1
24	24	2
5	25	1
37	37	1
152	152	1
82	121	1
4	4	2
47	98	1
99	114	1
19	20	1
43	45	1
19	120	1
105	105	1
95	99	1
64	64	2
39	39	1
76	81	1
129	130	1
81	81	1
38	68	1
10	10	1
98	102	1
53	56	1
125	125	1
94	94	1
96	97	1
30	30	4
13	54	1
118	135	1
17	18	1
90	94	1
103	104	1
46	46	1
97	100	1
123	123	1
98	100	1
90	122	1
75	79	1
100	106	1
72	73	1
69	69	2
16	82	1
149	149	2
118	118	2
114	115	1
62	64	1
96	96	1
75	135	1
73	111	1
15	16	1
78	78	1
112	113	1
147	147	1
49	49	1
11	30	1
150	150	1
68	68	3
46	68	1
147	150	1
101	101	2
119	119	1
99	99	1
20	20	1
15	122	2
119	150	1
111	129	3
31	31	1
110	111	1
77	78	1
14	15	1
79	82	1
107	118	1
58	58	1
45	45	1
73	73	1
152	153	1
7	19	1
102	102	1
136	145	1
122	123	2
67	67	1
63	127	1
84	84	1
20	36	1
64	65	1
84	100	1
57	63	1
27	27	1
73	146	1
73	133	1
37	65	1
9	47	1
140	144	1
106	106	1
82	82	1
146	146	1
14	104	1
66	66	1
132	132	1
63	63	1
2	2	1
67	69	1
129	129	1
98	104	1
13	14	2
33	34	1
30	38	1
21	47	1
124	124	1
35	47	1
70	70	1
154	154	1
8	32	1
57	96	1
107	119	1
