92	92	3
5	5	2
116	116	4
76	76	1
101	101	3
144	144	1
119	119	6
55	69	1
0	0	2
115	141	1
131	132	1
83	95	1
45	45	2
37	37	4
123	123	1
148	148	4
151	151	2
154	154	3
134	134	5
29	29	3
111	111	2
23	23	1
120	121	1
81	81	3
15	16	1
67	67	1
52	72	1
4	50	2
57	67	1
18	19	1
32	32	1
136	137	1
124	125	1
78	145	2
110	110	2
36	36	1
24	24	3
3	4	1
124	124	2
22	22	2
109	117	1
107	107	2
52	86	1
71	71	1
39	39	1
17	17	5
108	108	3
38	38	5
153	153	2
15	17	1
117	117	2
107	138	1
73	73	1
46	46	1
19	45	1
33	33	2
112	112	1
19	47	1
157	157	2
34	34	1
53	54	1
88	97	1
104	104	1
115	124	1
25	29	1
77	77	2
118	118	3
25	25	3
112	139	1
147	147	3
88	88	3
89	116	1
98	98	1
51	93	2
16	42	1
145	145	3
131	134	1
31	31	3
97	139	1
9	107	1
113	123	1
66	148	1
12	12	2
13	33	1
156	157	1
63	63	1
69	70	1
81	82	1
111	116	3
89	93	1
102	102	1
79	79	3
100	100	1
33	70	1
83	83	2
21	22	1
82	82	2
109	126	1
28	29	1
1	1	1
29	44	2
155	155	2
83	84	1
108	124	1
64	64	1
78	82	1
129	129	1
131	131	4
52	94	1
41	42	1
96	96	1
126	126	1
87	92	1
35	35	1
106	106	3
16	18	2
119	120	2
99	100	1
127	141	1
114	115	2
54	55	1
53	71	1
12	24	1
103	157	1
54	54	2
14	14	2
63	64	3
69	69	1
4	4	2
148	149	3
17	45	1
51	51	1
20	20	1
64	86	1
136	136	1
57	57	1
132	132	1
135	139	1
151	156	1
111	112	2
109	111	1
40	40	2
37	38	1
41	41	1
105	105	1
141	141	1
149	149	1
126	145	1
62	88	1
130	132	1
9	9	1
94	138	1
48	48	2
121	121	1
47	47	2
53	53	1
91	92	1
40	89	1
109	109	1
137	137	1
67	68	1
10	10	1
93	93	1
72	81	1
50	50	2
110	157	1
84	116	1
51	56	1
18	18	1
88	95	1
27	28	1
24	37	1
143	144	1
14	42	1
144	145	1
34	69	1
35	39	1
134	135	1
70	70	1
149	150	1
106	150	1
3	3	1
51	68	1
