12	14	1
22	22	3
27	37	1
3	3	2
131	131	5
115	118	1
77	90	1
71	71	5
92	93	2
89	89	2
134	134	1
38	38	2
138	140	1
100	100	3
46	46	12
107	107	7
14	15	4
136	138	1
41	41	5
137	156	2
35	35	4
24	25	2
84	84	3
28	28	5
99	99	4
42	42	1
90	90	6
69	69	2
90	91	2
151	152	2
67	67	4
127	140	3
32	32	1
118	118	4
85	85	4
136	136	6
154	154	1
43	91	1
97	97	4
101	107	1
121	122	2
75	129	1
81	81	3
89	122	2
10	10	6
79	83	1
92	97	2
4	9	1
128	129	1
138	141	1
48	48	2
143	143	1
148	148	3
57	57	1
148	155	1
41	43	1
113	116	1
141	141	5
112	113	1
19	19	3
125	126	5
84	85	3
106	141	1
155	155	3
38	39	4
80	83	1
50	50	7
126	127	1
135	135	6
45	45	4
136	145	1
53	54	2
13	13	2
91	91	4
35	56	2
125	125	3
95	95	1
62	67	1
1	38	2
117	124	1
85	88	1
44	44	5
6	12	1
1	3	1
70	70	1
2	3	2
52	52	2
71	82	1
129	129	3
63	63	4
47	47	6
65	72	1
146	146	3
65	65	3
86	121	1
73	73	1
107	141	1
155	159	1
130	130	3
83	83	4
21	27	1
25	25	6
89	115	2
128	142	2
10	33	1
115	115	2
138	138	6
104	149	2
95	96	1
151	151	2
82	84	1
77	77	3
55	55	7
106	107	1
105	106	3
108	108	3
131	133	1
27	27	4
71	136	2
133	139	1
97	137	2
7	40	1
80	85	1
49	49	4
87	87	4
96	96	4
113	118	2
156	156	3
150	150	1
51	83	1
51	122	1
117	119	1
21	21	4
33	33	2
123	123	3
68	68	6
28	32	2
81	128	2
35	42	1
120	120	1
10	70	1
9	9	3
29	30	1
41	55	1
101	101	4
46	54	1
93	94	2
150	152	1
98	99	1
80	80	4
42	43	2
1	4	1
30	30	6
2	2	4
139	146	1
22	23	2
12	12	1
21	22	1
139	139	3
37	37	4
117	137	2
28	40	2
107	130	3
98	117	1
141	142	2
147	150	2
79	149	1
73	76	1
119	119	1
121	121	3
144	144	3
127	133	1
38	110	1
9	38	1
24	34	1
140	144	1
19	26	1
89	90	1
69	73	1
56	56	1
79	80	2
82	82	5
43	76	1
39	45	2
43	45	1
95	97	1
2	36	1
24	24	1
140	140	2
33	50	1
106	111	1
23	23	2
25	26	2
7	7	2
127	127	1
5	5	1
88	90	2
14	14	2
116	117	1
105	107	1
21	23	1
70	71	4
1	1	3
149	149	4
11	11	3
94	121	2
153	158	1
40	53	1
107	108	2
40	42	1
30	47	1
79	79	2
137	137	4
94	94	3
86	141	1
75	151	1
6	6	2
80	132	1
94	114	1
3	51	1
101	102	1
13	148	1
144	146	1
91	105	1
80	94	1
7	8	1
54	68	2
128	128	7
9	118	1
67	68	1
14	34	2
82	87	1
39	39	1
98	98	2
143	144	1
83	85	1
81	125	1
30	44	1
105	105	5
64	64	2
20	21	1
71	135	1
13	16	1
92	92	2
110	116	2
133	133	2
132	132	6
75	75	2
107	128	1
94	151	1
33	35	1
18	18	1
36	36	2
11	20	1
101	103	3
115	116	1
23	24	1
158	158	3
4	12	1
68	69	1
40	41	1
45	157	1
87	88	1
29	29	2
2	39	1
35	81	1
43	157	1
42	70	1
45	52	1
131	157	1
83	123	1
18	97	2
97	153	1
8	8	1
17	48	1
105	157	1
49	52	1
28	29	1
79	115	2
84	104	1
129	130	2
13	14	2
34	34	3
5	24	1
85	108	1
48	50	1
99	100	1
148	149	1
144	147	1
66	66	1
26	26	3
109	109	2
73	75	1
54	54	3
78	78	1
123	125	1
31	31	1
30	144	3
93	95	1
1	5	1
102	155	2
104	104	2
94	112	1
49	145	1
114	115	1
112	112	1
31	46	1
133	148	1
126	126	2
30	32	1
79	86	1
75	92	1
109	111	1
75	77	1
51	51	2
120	124	1
69	70	1
129	131	1
22	24	1
4	6	1
9	148	1
39	65	1
39	41	1
115	135	1
25	28	1
83	87	1
98	100	1
97	98	1
119	145	1
9	11	1
14	56	1
35	96	1
113	115	1
116	116	5
16	16	1
12	42	1
43	49	1
140	152	1
46	155	1
50	52	1
73	74	2
70	84	1
117	123	1
114	125	1
111	111	1
103	107	1
43	44	2
84	93	1
74	74	1
6	23	1
92	140	1
43	43	1
77	80	1
78	83	1
11	32	1
110	110	1
81	82	1
15	15	1
92	142	1
86	86	1
4	4	1
40	51	1
128	150	1
45	50	1
113	113	1
21	24	1
1	2	1
71	79	1
45	46	2
137	138	1
91	92	1
20	20	1
140	145	1
66	69	1
153	155	1
46	51	1
117	117	1
121	148	1
0	1	1
133	144	1
86	88	1
62	68	1
147	147	1
0	2	1
32	33	1
66	152	1
69	98	2
114	114	1
117	118	1
6	105	1
71	149	1
88	89	1
23	92	1
17	18	1
