10	10	4
121	121	1
23	84	1
13	13	6
84	84	2
77	78	1
40	40	6
135	136	1
129	130	1
87	87	1
51	52	3
47	47	4
99	120	1
52	56	1
11	12	1
160	163	1
108	108	6
142	142	1
80	168	1
112	112	2
41	41	3
6	7	1
106	106	1
115	115	2
20	24	2
142	143	3
52	52	3
71	74	1
125	149	2
127	127	2
69	100	1
35	35	5
96	96	3
19	19	3
150	150	2
84	116	3
44	48	2
92	94	2
88	88	1
69	69	1
37	37	2
164	164	3
153	153	3
37	38	1
96	112	1
67	128	1
55	55	3
53	53	2
94	94	2
70	70	1
17	17	4
13	16	1
40	156	1
100	122	2
3	144	1
63	70	1
126	126	1
110	110	1
82	84	1
3	3	4
12	17	1
67	68	2
152	152	1
168	170	1
39	74	1
137	158	1
68	163	1
108	160	1
85	86	1
17	50	1
7	7	1
76	78	2
77	129	1
136	136	1
103	103	2
161	164	1
63	79	1
100	101	1
62	62	2
23	23	4
111	111	4
125	125	4
85	99	2
89	90	1
63	96	2
34	35	1
0	0	5
81	170	1
82	82	3
104	104	2
92	92	2
15	160	2
127	145	1
114	114	1
54	66	1
83	83	1
2	2	3
99	99	7
8	9	4
103	160	1
54	109	1
64	64	1
121	149	1
130	130	2
161	161	3
104	105	3
133	133	1
72	85	1
168	168	2
26	91	1
153	154	2
97	136	1
50	50	2
73	73	2
158	158	2
48	169	1
117	120	1
41	42	3
99	100	1
91	92	1
78	78	1
64	130	1
46	47	3
138	160	2
68	73	1
91	91	1
170	170	2
22	102	1
127	146	1
71	72	2
66	66	1
75	76	2
118	118	2
146	146	2
68	98	1
22	23	1
15	35	1
48	49	1
81	82	1
76	92	1
49	50	3
85	132	1
12	91	1
66	93	1
167	167	2
47	52	1
102	102	1
123	125	1
160	160	2
71	84	1
39	39	1
63	63	1
15	147	1
156	156	1
87	134	1
5	6	1
63	64	2
109	109	2
86	119	1
163	166	1
35	74	1
165	169	1
90	90	2
5	5	2
50	152	2
106	126	1
0	7	1
79	130	2
41	151	1
139	139	2
127	128	1
162	162	1
73	74	2
16	16	1
15	16	1
100	104	1
132	145	2
148	148	2
81	81	1
166	169	1
150	151	1
1	37	1
48	48	1
0	58	2
36	36	3
4	4	1
72	72	1
48	51	1
159	159	2
133	137	1
13	14	1
85	85	2
152	155	1
139	143	1
138	138	1
134	134	1
76	135	1
132	132	1
86	86	2
119	124	1
22	152	1
26	111	1
36	41	1
129	132	1
137	168	1
0	1	1
43	43	2
86	120	1
132	133	2
137	137	1
24	137	1
138	156	1
137	138	1
6	6	6
129	156	1
116	170	1
68	68	3
89	89	1
44	85	1
69	83	1
67	103	1
22	96	1
42	42	2
129	155	1
28	54	1
107	159	1
17	25	1
66	83	1
65	83	1
26	26	1
80	80	2
67	67	1
64	114	1
12	46	1
14	50	1
14	15	1
102	126	1
57	58	1
156	158	1
169	169	4
90	155	1
86	96	1
126	166	1
104	111	1
123	124	1
131	131	2
135	135	1
12	18	1
74	75	1
3	11	1
17	18	1
7	15	1
56	56	1
102	117	2
165	166	1
25	25	1
103	105	1
7	8	2
125	126	1
4	88	1
144	147	1
54	54	2
14	14	2
154	154	1
74	101	1
9	120	1
149	149	2
159	160	1
145	145	1
46	58	1
26	38	1
137	164	1
9	10	1
131	132	1
20	20	1
55	58	1
129	129	1
122	124	2
155	155	1
49	77	1
145	153	1
117	146	1
124	126	1
16	28	1
77	77	1
107	144	1
91	109	1
165	165	1
162	166	1
65	65	1
50	74	1
20	21	1
62	93	1
37	44	1
154	163	1
77	145	1
112	126	1
80	82	1
44	66	1
0	2	1
101	160	1
98	102	1
21	24	1
71	71	1
21	43	1
126	127	1
24	24	1
14	16	2
0	46	1
110	111	1
20	22	1
106	122	1
8	8	1
80	164	1
163	163	2
11	11	1
141	142	1
85	133	1
117	144	1
157	157	1
36	37	1
151	152	1
38	39	1
116	116	1
9	110	1
120	136	1
116	118	1
93	93	1
96	108	1
160	164	1
132	134	1
