20	20	3
19	19	2
99	99	11
128	128	2
16	16	10
126	130	2
48	117	2
83	84	1
86	87	2
26	27	3
73	78	2
3	3	10
29	29	7
93	93	4
0	1	3
81	81	8
131	131	5
110	111	4
87	89	1
94	132	1
105	105	5
84	84	6
112	112	6
48	48	5
26	26	4
66	67	2
17	17	4
129	131	1
62	102	1
18	28	1
39	77	1
59	61	1
56	56	11
58	58	5
30	30	4
97	98	4
116	116	5
131	132	2
29	119	1
71	71	1
92	92	9
22	25	1
91	91	7
55	119	1
7	7	8
56	96	1
78	78	7
126	126	5
42	99	2
45	46	1
50	50	3
41	41	4
39	75	1
77	77	3
11	119	1
108	108	4
58	99	2
47	48	1
38	70	1
68	68	8
104	105	3
115	130	1
70	78	2
102	106	1
38	41	1
41	43	2
52	124	1
114	114	4
8	48	1
109	109	4
15	15	6
106	107	1
12	12	6
55	55	5
95	95	3
66	80	1
109	111	1
69	71	2
28	30	1
107	107	2
62	70	1
90	90	4
82	84	3
56	57	2
18	19	2
59	79	1
0	6	2
75	75	1
52	52	4
119	125	1
121	121	4
103	104	1
110	110	9
104	104	7
57	117	1
77	78	2
24	26	2
89	131	2
4	4	7
126	128	3
1	1	5
70	70	5
96	96	1
32	32	3
105	106	3
85	85	4
124	124	6
108	109	1
22	22	4
88	89	2
14	92	1
83	83	3
45	62	1
124	127	1
14	14	5
57	104	1
62	75	1
122	125	1
67	68	2
13	58	1
130	131	2
12	28	1
24	24	3
76	76	4
0	0	10
51	118	1
126	127	3
47	47	6
125	125	5
49	64	1
1	44	1
99	103	1
54	58	1
2	2	7
23	26	2
88	88	5
67	67	4
49	49	7
100	101	2
57	57	6
5	5	7
125	127	1
82	91	2
118	118	6
89	89	8
18	18	3
63	95	1
20	21	3
127	127	3
31	99	1
119	126	2
63	108	1
10	10	5
19	22	2
13	13	3
77	91	1
79	82	3
94	95	2
53	53	3
60	61	1
61	61	3
79	79	3
92	93	2
129	129	5
115	116	1
103	103	10
113	113	10
100	126	1
25	25	3
101	102	2
54	54	9
65	65	6
63	63	1
90	119	1
87	87	2
124	131	2
10	11	1
12	107	1
27	27	4
39	39	7
130	130	6
79	81	1
62	105	1
30	39	1
59	60	2
85	86	1
68	69	2
6	27	2
85	102	1
122	122	5
72	72	3
123	123	4
118	126	1
31	104	3
7	18	1
15	16	2
124	125	1
89	90	2
41	42	4
80	80	5
60	60	3
62	62	4
81	98	1
18	44	1
4	5	3
94	94	4
15	92	1
111	112	1
111	125	1
19	128	1
111	111	10
6	6	3
82	82	5
80	101	1
18	33	1
1	26	1
75	76	3
98	98	3
5	53	2
119	119	2
14	80	1
8	10	1
106	106	7
18	20	3
53	102	1
46	46	4
11	11	1
40	72	1
91	128	1
87	88	1
2	122	1
47	67	2
55	103	1
46	47	1
93	94	3
27	28	1
98	99	1
44	45	1
59	82	1
21	21	1
50	69	1
42	42	3
78	79	3
117	117	3
86	86	5
34	34	1
29	82	1
59	59	3
81	82	1
97	97	1
90	116	1
64	64	4
10	23	1
127	128	1
62	63	1
108	131	1
14	71	1
133	133	1
69	69	4
14	15	2
37	114	1
100	100	1
43	43	3
132	132	1
11	12	1
15	93	1
55	56	1
9	9	1
129	132	1
42	45	1
9	27	1
125	129	1
21	112	2
8	13	2
28	28	5
122	123	1
80	92	1
74	74	1
74	79	1
117	119	1
100	128	1
28	38	1
96	99	1
48	65	1
46	118	1
4	57	1
44	44	2
49	53	1
68	76	1
103	113	1
16	22	1
33	33	2
30	31	1
16	84	1
71	81	1
32	123	1
106	130	1
52	53	2
113	115	1
111	116	1
102	102	5
119	120	1
80	81	4
30	64	1
77	80	1
120	120	1
63	67	2
66	72	1
22	83	1
42	44	1
37	43	1
51	51	2
45	45	1
20	33	2
50	51	2
66	66	2
46	66	1
104	125	1
51	53	1
71	88	1
23	23	2
52	119	1
6	133	1
61	63	2
13	16	1
113	114	1
40	45	2
31	31	1
18	21	1
66	106	1
73	73	3
60	84	1
19	20	3
86	105	1
65	109	2
109	110	1
120	124	1
109	113	1
71	74	1
78	85	1
10	15	1
63	71	1
69	99	1
43	44	2
107	108	1
69	70	1
11	89	1
8	8	1
67	72	2
70	71	1
20	22	1
82	85	2
31	32	1
9	12	1
115	126	1
64	70	1
46	120	1
127	130	1
40	43	1
63	64	1
39	40	1
124	129	1
95	96	3
11	55	2
26	29	1
41	45	1
110	126	1
80	106	1
2	123	1
14	122	1
40	113	1
112	116	1
40	40	1
58	101	1
118	120	1
101	101	1
2	5	1
60	62	1
31	93	1
103	132	1
117	125	1
48	49	1
8	66	1
29	31	1
86	91	1
73	74	1
72	74	1
22	28	1
