39	39	6
97	99	1
105	105	5
128	128	6
101	103	1
25	25	3
22	22	3
63	65	3
76	77	1
59	60	2
56	68	3
85	85	2
137	137	6
136	137	1
32	32	1
142	142	7
97	97	2
86	86	1
26	26	1
72	72	3
145	145	3
60	61	2
70	70	4
41	41	7
101	141	1
95	96	1
131	132	2
96	97	3
111	112	3
112	112	9
123	123	4
67	68	1
78	78	3
54	54	10
99	99	3
65	65	3
5	31	1
110	111	2
138	138	3
130	130	3
31	32	3
136	136	4
77	85	1
89	112	1
35	36	3
90	128	3
107	107	3
46	47	3
83	97	1
6	36	1
144	144	1
57	57	2
6	6	3
59	59	3
3	4	2
99	100	2
136	141	1
87	88	1
108	109	1
67	67	4
27	28	1
18	18	7
88	88	1
79	119	1
76	109	2
81	82	3
73	127	2
102	102	2
12	13	3
141	142	1
38	38	5
125	125	3
0	1	6
23	24	2
135	135	1
11	17	1
78	110	1
35	35	4
106	107	2
93	93	3
9	9	5
61	61	4
10	10	3
132	132	4
4	31	1
42	42	4
62	62	1
75	75	1
15	15	5
19	19	13
2	6	1
36	36	4
116	116	3
127	130	1
88	98	1
40	40	4
125	135	2
5	6	1
47	47	3
37	38	2
70	71	1
117	118	2
81	81	2
27	38	1
101	102	1
89	89	4
94	94	1
29	29	5
14	16	1
129	130	3
118	119	1
68	73	2
25	26	5
41	56	1
120	120	3
104	108	1
80	111	1
50	51	1
134	134	3
121	124	1
98	140	2
82	82	4
66	110	1
103	103	5
13	14	1
33	35	1
92	116	1
11	11	3
74	74	7
0	0	1
119	119	1
65	132	1
93	123	1
17	18	2
92	92	4
37	50	1
80	80	4
24	24	5
121	121	3
76	76	6
98	98	1
51	52	1
111	118	1
0	2	3
141	143	2
66	67	1
82	134	1
73	74	1
74	75	2
77	77	3
65	68	1
126	126	1
82	84	1
135	136	1
126	130	1
73	73	3
91	95	1
87	89	2
106	137	1
136	142	1
63	64	2
14	14	3
64	64	1
56	56	2
24	26	1
78	100	1
131	131	2
64	65	2
68	68	3
113	114	3
2	51	1
95	95	5
79	79	1
22	26	1
114	115	4
106	106	4
16	16	1
81	92	1
130	131	1
8	8	3
136	139	1
113	113	2
66	66	1
70	72	1
33	36	1
103	140	3
6	30	1
6	37	1
91	96	1
143	143	2
121	122	2
4	4	2
101	101	4
96	96	1
109	118	1
139	139	2
34	34	2
83	84	1
84	84	1
48	52	1
68	83	1
53	71	1
50	53	2
5	5	2
142	143	1
125	129	1
41	42	3
2	3	1
26	27	1
86	89	1
84	85	1
28	28	2
129	132	1
98	99	1
136	140	1
133	141	1
43	43	2
93	135	1
20	20	2
28	29	1
33	34	2
67	82	2
13	13	4
58	58	1
71	71	3
115	115	1
103	104	1
109	110	1
50	50	1
51	51	1
71	112	1
56	71	1
87	87	1
65	115	1
65	80	2
80	101	1
124	124	2
23	23	3
52	52	1
83	116	1
35	57	1
43	47	1
31	31	1
138	139	1
65	66	1
37	37	2
5	35	2
71	84	1
114	114	1
76	78	1
97	138	1
108	108	4
132	143	1
140	140	4
3	3	1
80	91	1
14	69	1
115	116	1
141	141	3
19	20	1
96	98	1
136	138	1
30	54	1
96	105	1
80	98	2
96	100	1
30	37	1
27	27	2
37	54	1
120	121	1
126	136	1
42	43	1
144	145	1
76	91	1
60	60	1
17	17	1
79	80	1
9	10	2
55	55	2
104	105	1
71	72	1
82	95	1
49	49	1
46	46	1
15	16	1
118	123	1
48	48	1
53	53	1
65	91	1
118	121	1
64	117	1
10	11	1
21	21	1
111	111	1
68	71	1
64	108	1
79	96	1
120	127	2
92	132	1
33	33	1
123	124	1
67	84	1
131	140	1
67	72	1
105	106	1
123	136	2
119	120	1
13	19	1
39	49	1
79	93	1
