49	49	1
33	55	1
98	98	2
131	132	2
126	127	3
45	46	2
76	76	1
88	88	1
133	133	1
22	22	2
89	89	2
65	65	3
40	40	2
31	33	3
117	117	1
49	69	1
42	43	1
100	100	3
2	2	2
80	80	1
141	142	1
129	130	1
51	70	1
1	1	3
39	39	1
54	57	1
52	52	2
28	28	1
144	144	2
42	42	2
53	54	1
38	38	2
93	93	1
91	92	1
155	157	3
75	75	3
126	136	2
48	48	6
113	116	1
71	121	1
104	104	1
130	130	2
17	17	4
73	73	1
104	109	1
41	41	2
98	134	2
126	155	1
15	47	1
127	127	4
34	34	1
44	44	7
67	67	1
11	11	2
51	51	1
16	18	1
78	78	2
18	18	1
146	152	1
113	113	1
24	24	6
134	135	2
32	32	1
37	37	1
148	148	2
135	147	1
48	50	1
94	94	2
90	90	1
155	155	1
23	24	2
138	138	3
4	5	1
31	31	3
29	156	2
129	129	6
87	88	1
113	114	3
136	137	1
31	70	1
71	71	2
32	64	1
131	131	2
151	151	2
84	85	3
137	138	2
133	134	1
96	96	2
91	91	2
37	38	1
51	55	2
30	73	1
147	157	1
134	142	1
137	137	1
150	150	1
25	44	1
68	70	1
132	133	2
108	108	1
148	149	1
28	128	1
115	115	2
25	25	1
117	123	1
125	127	1
123	123	7
69	82	2
0	3	1
16	16	1
112	112	2
5	5	1
147	147	2
25	155	1
31	42	1
85	85	1
4	4	1
70	154	1
106	106	4
98	104	1
27	149	2
43	44	2
140	140	3
2	41	1
153	153	1
154	154	1
62	62	1
19	19	2
84	87	1
123	127	1
105	128	2
90	96	1
121	121	1
47	47	1
128	128	2
40	66	1
64	122	1
20	40	1
3	3	2
116	116	1
17	18	1
143	144	1
71	82	1
30	30	1
132	132	2
48	96	1
114	115	2
112	146	1
126	126	2
4	12	1
7	7	1
81	82	1
92	92	1
115	116	1
111	111	2
120	142	1
38	39	1
43	50	1
81	81	1
70	70	1
46	46	1
110	116	1
120	141	1
7	48	1
41	42	1
97	98	2
33	42	1
6	30	1
21	21	1
146	147	1
66	66	1
139	151	1
23	23	1
0	0	1
109	109	1
64	64	1
156	156	1
9	9	1
69	69	1
106	139	1
146	146	1
12	12	1
138	139	1
69	97	1
3	4	1
72	73	1
19	20	1
13	13	1
43	71	1
