12	12	2
116	116	3
111	112	1
5	6	1
0	0	5
47	47	1
11	11	2
112	112	5
122	123	1
27	27	3
65	65	3
104	104	2
16	16	3
64	64	4
85	86	3
43	61	1
99	101	1
124	124	2
46	46	2
22	22	1
90	90	2
104	105	1
25	25	2
95	95	1
58	58	3
40	40	2
66	66	1
33	33	7
3	3	2
27	28	2
56	60	1
102	114	1
90	92	2
131	132	2
113	114	1
30	84	1
80	80	3
11	97	1
13	125	1
130	131	1
35	35	3
132	132	3
33	35	1
86	87	2
13	39	1
98	99	2
74	74	3
103	105	1
108	131	1
81	81	2
24	24	4
84	85	1
55	57	1
132	133	1
133	133	2
63	63	3
41	44	1
102	102	3
30	87	1
82	83	1
71	71	1
2	45	1
1	1	4
28	28	1
103	103	2
33	86	1
60	60	1
19	20	1
36	124	1
22	25	2
55	55	1
17	17	1
7	11	1
100	101	1
93	93	1
41	42	2
70	70	3
125	125	3
20	20	2
100	100	1
11	70	2
28	29	2
84	84	2
9	9	1
44	44	1
115	115	4
76	76	1
11	64	1
120	120	3
15	26	2
75	76	1
131	131	1
28	45	1
99	102	1
121	123	2
38	38	1
25	27	1
73	73	3
112	121	2
30	30	2
85	87	3
122	122	4
19	19	3
107	107	1
16	42	1
73	75	1
7	23	1
34	35	2
19	90	1
110	111	1
79	79	2
92	92	1
121	121	3
62	62	3
78	78	3
110	110	3
11	113	1
40	48	1
96	96	1
101	107	1
128	128	2
22	23	1
67	68	2
113	121	1
105	105	3
41	43	1
121	125	2
34	34	2
91	91	3
115	132	1
36	127	1
1	2	1
41	41	1
105	106	1
25	28	1
76	99	1
84	86	1
85	94	1
99	108	1
13	13	2
109	109	3
67	67	1
3	4	1
82	82	2
98	109	1
98	98	2
42	42	2
10	10	1
6	7	2
37	37	1
26	26	1
45	45	1
118	118	2
29	30	1
57	57	1
47	48	1
30	31	1
74	75	1
60	61	2
100	103	1
114	114	2
57	58	1
32	32	1
115	116	1
113	113	2
69	69	1
133	134	1
93	94	1
55	56	1
77	77	1
94	94	1
68	68	1
111	111	1
2	62	1
119	120	1
90	91	1
31	32	1
14	14	2
18	18	2
4	9	1
5	115	1
108	108	1
18	63	1
45	90	1
109	110	1
67	121	1
35	124	1
24	25	1
60	64	1
56	56	1
119	119	1
88	89	1
4	76	1
18	129	1
97	101	1
56	57	1
14	60	1
44	46	1
99	100	1
59	59	1
5	5	1
7	8	2
19	77	1
108	109	1
95	96	1
8	8	1
31	91	1
98	102	1
17	63	1
117	117	1
83	84	1
106	106	1
83	86	1
0	1	1
15	21	1
40	44	1
