126	126	2
135	135	3
91	92	3
108	109	1
6	6	3
87	147	1
92	92	2
144	145	1
132	133	2
53	53	2
138	139	2
2	24	1
35	35	3
130	130	5
134	161	1
3	15	1
38	40	1
146	146	2
141	163	2
67	67	4
134	135	2
89	161	1
19	19	4
40	40	5
110	111	1
70	70	3
107	107	3
165	165	4
147	153	2
149	149	1
45	45	3
4	4	1
105	134	2
53	58	2
87	90	1
76	134	1
129	129	1
43	43	4
130	131	3
125	125	2
9	127	1
138	145	1
7	7	5
47	47	4
63	69	2
143	148	1
151	151	4
91	91	2
154	154	3
34	34	1
87	164	1
66	121	2
38	38	2
23	24	1
49	49	1
8	48	1
22	22	3
124	124	1
122	122	1
85	162	1
16	16	3
92	142	1
24	150	1
169	169	3
84	166	1
99	134	1
110	110	2
28	28	4
10	39	3
46	46	5
131	131	2
124	125	4
1	1	2
142	142	2
36	36	2
103	114	1
162	162	2
83	83	3
0	1	2
109	109	3
131	163	2
164	164	1
119	120	1
8	47	3
79	93	1
84	84	4
15	15	2
57	57	2
68	68	1
152	153	2
78	78	1
51	51	1
15	16	1
37	38	2
159	160	1
65	65	2
81	81	3
170	170	1
75	75	1
18	18	1
86	86	6
74	75	1
74	74	1
44	44	3
27	27	1
144	144	3
76	78	4
102	106	2
138	140	1
12	38	1
112	144	1
91	93	2
89	89	2
17	17	2
10	35	1
39	39	2
140	140	2
18	23	1
159	159	2
75	120	1
111	112	1
106	106	1
65	98	1
87	87	2
51	52	1
168	169	2
14	131	1
13	24	1
16	21	1
25	38	1
54	56	1
123	123	1
26	26	1
3	3	3
101	101	1
0	3	2
88	88	3
27	28	1
151	154	2
52	52	3
6	47	2
133	133	2
98	98	1
9	9	1
118	118	5
75	162	2
115	115	1
96	96	1
66	70	1
82	82	4
162	166	1
89	159	1
158	158	3
5	5	3
150	156	1
47	48	1
103	115	1
4	12	1
133	149	1
148	153	1
77	80	1
96	102	1
11	12	1
21	22	1
17	18	1
103	103	1
0	17	1
70	165	1
12	20	1
77	127	2
74	85	1
68	93	1
21	21	1
41	42	1
1	113	1
163	163	2
56	56	1
121	121	1
55	56	1
0	2	2
20	20	2
41	41	1
163	164	2
16	17	1
84	86	1
48	96	1
147	147	1
142	143	2
72	72	4
20	21	3
37	37	1
167	167	1
64	168	1
104	114	2
99	100	1
91	122	1
93	94	1
0	0	1
110	120	1
150	151	1
77	120	2
98	102	1
134	134	2
35	36	1
148	148	2
99	101	1
118	144	1
10	10	1
99	99	3
11	17	1
7	17	1
58	62	1
141	164	2
66	153	1
105	122	1
141	141	2
98	99	1
80	80	1
12	12	1
117	123	1
21	37	1
123	124	1
12	13	1
89	151	1
23	23	1
100	101	2
100	100	1
48	48	1
143	143	1
94	94	1
24	24	1
93	147	1
156	156	2
2	2	2
9	25	1
115	116	1
67	85	1
156	157	1
155	155	4
72	165	1
116	116	1
66	79	2
74	81	1
64	164	1
97	98	1
52	54	2
76	76	3
63	75	1
147	154	1
92	97	1
104	104	2
97	100	1
63	91	2
24	101	1
33	34	1
85	85	2
12	21	1
77	77	1
97	142	1
14	14	1
68	69	1
159	170	1
147	148	1
95	95	1
33	37	1
49	55	1
58	58	1
73	73	1
155	158	1
24	25	1
9	51	1
40	62	1
84	85	1
24	35	1
75	164	1
63	95	1
72	115	1
22	23	1
88	91	1
132	132	2
5	40	1
49	87	1
76	87	2
8	8	3
87	163	1
71	71	1
19	22	1
42	42	1
120	161	1
66	66	1
82	122	1
92	94	1
112	115	1
121	122	1
79	100	1
137	149	1
108	108	1
5	8	1
74	133	1
131	138	1
88	145	1
134	136	1
