82	82	4
89	89	7
23	30	1
23	23	6
61	61	3
12	12	3
75	75	8
52	52	8
81	81	8
84	84	11
32	32	3
49	75	1
28	53	1
50	50	4
34	34	1
68	69	3
83	85	2
53	54	2
31	31	5
30	30	7
17	17	8
53	53	3
50	68	1
66	67	1
7	7	4
51	51	3
6	7	1
59	59	3
72	72	5
6	6	4
66	66	3
78	78	3
2	2	6
65	80	2
48	78	1
20	20	5
87	87	1
14	47	1
67	67	7
65	65	2
15	19	1
16	24	1
10	10	5
11	12	2
11	11	8
29	30	1
60	78	2
76	76	2
84	87	1
52	53	1
48	49	1
21	25	2
26	34	1
9	9	2
46	46	3
21	21	1
14	14	4
64	64	4
63	63	8
34	54	1
61	62	2
56	57	2
69	71	1
5	6	2
19	20	1
13	13	4
86	86	6
88	89	4
58	61	1
1	2	3
54	56	1
28	28	2
3	3	4
70	70	3
80	82	1
47	66	1
56	58	2
58	77	2
83	83	1
8	50	1
5	63	1
63	65	3
1	1	3
15	15	4
24	24	5
23	85	1
81	82	1
25	26	2
64	65	3
87	89	1
58	59	3
11	81	1
76	83	1
0	1	3
69	69	4
8	9	1
19	23	1
10	11	2
77	83	1
11	72	1
67	68	1
47	47	2
50	52	2
48	48	5
71	71	2
0	2	2
57	57	5
60	60	3
85	85	4
26	26	6
56	56	4
51	52	1
28	29	2
9	10	2
50	82	1
55	55	3
22	46	1
50	53	1
4	31	1
70	71	3
82	83	2
80	80	4
3	14	1
73	73	2
4	5	1
56	66	2
22	22	2
23	79	1
69	70	2
6	32	1
78	79	1
68	68	4
53	61	3
74	74	3
51	55	2
20	21	1
16	75	1
70	90	1
7	61	1
16	16	2
49	51	2
90	90	2
7	8	1
3	4	1
34	51	1
31	84	1
25	25	3
12	24	1
5	5	2
72	73	1
58	60	1
53	55	1
50	79	1
47	48	3
31	32	1
54	54	3
1	90	1
9	48	1
77	77	3
10	77	1
24	85	2
4	4	1
4	8	1
75	77	1
50	88	1
80	88	1
74	82	1
55	59	1
60	66	2
59	60	1
19	19	3
79	79	1
4	70	1
67	69	1
8	17	1
79	80	1
79	88	1
64	66	1
12	13	2
25	27	1
46	85	1
62	64	1
27	28	1
27	27	2
0	0	1
63	64	1
64	72	1
2	69	1
54	81	1
28	58	1
88	88	1
15	16	1
51	65	1
48	83	1
3	71	1
24	79	1
60	61	1
58	58	1
63	76	1
52	63	1
54	55	1
2	29	1
