151	151	4
109	109	6
199	199	6
72	72	2
191	191	4
169	170	1
30	30	7
48	48	4
171	171	3
46	46	7
129	130	1
28	28	4
196	222	1
49	54	2
111	112	1
127	128	3
206	206	9
215	215	6
71	71	5
161	161	7
98	237	1
73	73	4
80	80	6
4	4	3
23	23	2
31	31	5
131	131	3
143	174	3
134	136	1
207	207	7
236	236	3
48	201	1
116	116	5
198	209	1
9	10	4
126	126	8
213	214	2
225	227	2
192	193	4
131	133	2
100	102	1
157	157	4
8	15	1
214	214	6
60	61	2
9	44	1
79	84	1
118	227	1
176	177	1
188	188	8
218	219	1
98	98	7
3	3	3
103	103	3
128	130	2
222	222	4
17	17	4
46	47	1
193	211	2
166	179	1
154	199	1
81	81	4
200	200	3
59	59	3
50	59	1
96	96	4
104	105	1
140	140	1
171	182	1
163	163	6
240	240	6
32	32	3
16	16	3
13	13	3
150	152	1
109	122	1
204	204	3
212	213	7
158	175	2
58	58	4
154	155	2
179	179	8
116	117	2
100	100	6
154	154	4
49	50	3
67	67	2
225	225	3
192	192	3
170	191	1
55	55	3
60	60	6
4	5	1
43	43	6
120	120	2
66	66	2
45	45	7
14	14	6
184	184	8
7	8	1
117	117	2
78	79	2
187	187	5
231	231	8
156	156	1
3	6	1
196	197	2
63	64	1
237	237	5
82	84	1
227	227	4
195	195	2
118	118	4
68	203	1
186	186	1
179	198	1
209	209	3
145	164	1
27	27	5
189	189	5
189	192	1
24	24	7
144	144	4
110	110	2
47	131	1
9	25	1
162	162	2
75	76	1
190	190	4
208	208	3
44	45	4
48	54	2
10	10	3
238	238	3
32	33	6
63	63	3
229	229	4
181	182	2
76	78	1
127	129	2
150	151	3
26	26	4
75	77	1
169	169	5
12	12	6
180	180	5
39	39	4
217	217	4
37	38	4
224	224	7
235	235	3
84	84	4
85	85	5
19	20	2
55	203	2
143	143	5
169	182	1
74	74	2
71	74	2
161	171	1
44	60	1
228	230	2
125	125	4
26	27	2
211	211	2
123	123	5
70	70	1
231	232	1
152	152	6
182	187	1
230	230	2
36	36	2
177	177	8
226	226	5
205	205	4
53	53	5
149	149	1
136	136	3
73	236	1
178	197	1
23	24	2
148	153	1
241	242	2
119	119	4
235	236	1
198	210	2
155	155	3
233	234	1
36	37	1
218	232	1
45	46	7
170	173	2
159	159	2
37	37	2
114	114	3
19	19	2
82	82	1
64	64	1
137	138	3
193	194	2
156	157	1
170	170	3
178	178	4
157	158	1
142	142	2
175	175	6
8	8	4
121	129	1
21	23	1
176	215	1
36	38	1
47	202	2
143	192	1
171	181	1
18	20	2
114	131	1
54	54	2
228	228	4
136	137	3
40	41	3
69	69	5
114	136	1
223	223	3
118	119	1
113	113	5
196	216	1
197	198	1
22	23	2
122	126	1
29	29	2
104	104	3
111	111	5
28	29	2
111	172	2
147	147	1
11	11	5
147	156	3
2	2	5
99	99	6
112	112	3
98	100	1
25	26	2
21	21	1
115	229	2
8	10	2
124	124	2
219	219	4
79	79	3
198	198	3
65	65	3
142	164	2
115	115	1
61	76	2
13	14	2
197	197	2
201	201	6
158	159	1
167	168	4
201	203	1
98	106	1
81	82	1
51	51	4
148	148	3
183	183	2
154	156	2
223	224	3
99	101	1
106	106	2
40	40	2
42	43	2
205	206	1
126	127	2
158	158	1
0	0	1
5	5	1
54	64	1
164	165	1
157	175	2
191	217	1
153	199	1
181	183	1
80	81	2
41	41	1
3	175	1
232	232	3
202	207	1
152	202	1
128	128	4
30	31	1
170	171	1
221	221	3
141	142	3
18	18	2
61	62	1
213	216	1
182	198	1
68	68	3
142	143	2
157	188	2
165	193	1
78	78	4
56	205	1
169	183	1
179	180	1
116	118	1
15	15	5
160	160	6
123	124	2
29	30	2
172	172	1
38	39	1
52	53	1
18	19	3
239	239	2
182	183	1
220	220	3
137	137	2
34	36	1
210	210	3
38	62	1
180	198	1
216	216	4
121	198	1
22	22	2
27	28	2
73	235	2
97	97	1
152	153	1
18	132	1
192	239	1
48	49	1
51	53	1
6	6	6
145	145	3
181	181	2
203	203	3
223	225	1
56	56	2
196	196	2
38	38	3
234	234	3
9	9	2
120	161	1
61	65	2
63	65	1
194	195	2
133	133	1
47	78	1
223	226	1
174	174	5
47	47	2
70	71	1
122	122	2
118	137	2
168	168	3
59	60	1
4	15	1
189	190	1
242	242	4
139	139	4
107	107	2
34	34	3
143	157	1
25	25	4
84	85	1
32	34	1
164	193	1
163	164	1
128	137	1
101	102	1
153	156	1
55	63	1
157	161	1
167	169	1
202	202	2
121	121	3
207	208	1
150	150	1
193	193	3
11	12	1
230	231	2
213	213	2
177	191	1
11	17	1
153	153	4
67	68	1
154	188	1
178	182	1
129	129	7
225	226	3
225	228	1
17	22	1
137	158	2
60	74	1
148	152	1
74	85	1
20	23	1
32	37	1
116	132	1
179	200	1
50	50	1
190	191	2
165	166	3
68	207	1
1	1	1
205	207	2
178	180	1
53	54	1
138	139	2
197	208	2
158	161	1
115	116	1
103	106	1
121	122	1
13	15	1
52	52	1
138	138	2
119	162	1
144	174	2
142	173	1
186	187	2
65	204	1
54	200	1
136	159	2
210	211	2
182	190	1
135	135	1
188	190	1
9	11	1
128	136	1
74	234	1
165	165	2
44	44	2
153	155	3
145	196	1
164	164	1
179	189	1
183	185	1
126	139	1
75	75	1
62	62	3
86	86	2
167	167	1
197	199	1
134	134	3
148	149	1
202	203	1
60	62	1
8	9	1
39	61	2
233	233	2
122	125	2
146	146	1
60	80	1
76	85	1
147	149	1
42	42	3
204	205	1
57	58	1
62	63	2
160	161	1
199	200	1
61	61	3
195	196	1
188	213	1
77	77	1
88	89	1
116	133	1
208	209	2
122	124	1
191	192	2
78	80	1
33	33	1
108	108	1
52	57	1
131	149	1
43	44	1
111	113	1
39	44	1
29	42	1
217	218	1
166	166	1
7	7	3
53	56	2
194	194	1
141	141	1
74	148	1
60	75	1
173	173	1
195	215	1
30	41	1
218	218	1
88	88	1
238	239	1
20	86	1
161	170	1
48	53	1
112	113	1
136	160	1
101	101	1
195	226	1
49	49	2
180	229	1
241	241	1
6	7	1
182	182	1
139	158	1
125	237	1
39	42	1
222	224	1
55	56	1
30	33	1
55	202	1
156	188	1
57	57	1
51	52	1
30	42	1
145	147	1
186	189	1
107	108	1
77	78	1
145	159	1
2	3	1
120	148	1
9	16	1
164	166	1
185	187	1
95	95	1
