193	193	7
44	44	5
95	98	1
194	194	2
34	34	5
49	50	3
21	228	1
72	72	2
243	243	1
48	48	2
42	203	1
233	233	4
220	220	4
114	114	3
16	16	3
17	18	1
225	226	2
92	93	2
176	176	3
196	241	1
219	243	2
89	89	4
233	245	3
76	76	6
52	52	5
229	229	6
235	240	2
30	30	1
112	112	4
164	169	1
180	181	1
63	71	1
67	75	2
109	198	1
230	230	5
37	37	2
39	217	1
31	31	4
109	109	3
186	186	7
53	54	2
100	186	1
221	235	1
28	29	2
222	222	4
151	151	7
174	174	8
67	70	1
54	61	2
34	155	1
55	62	1
105	105	6
59	75	1
171	178	2
152	152	1
7	7	2
244	244	4
32	32	5
202	203	1
27	27	6
40	40	3
96	99	1
211	211	3
88	88	6
168	229	1
204	205	1
216	246	1
183	184	3
68	68	7
56	56	2
215	237	2
65	65	6
99	99	2
26	156	1
51	51	3
116	116	1
35	36	4
198	198	7
56	188	1
100	100	5
77	96	1
55	56	2
73	98	1
87	89	2
246	246	2
6	6	10
98	98	3
246	247	1
167	167	5
51	55	1
100	159	2
2	5	1
76	78	1
154	154	3
77	77	2
211	212	3
235	242	1
66	186	1
53	57	2
164	164	4
217	217	4
22	22	6
247	247	3
118	120	2
111	111	3
160	161	1
118	119	2
41	41	6
32	33	3
166	166	2
62	64	1
53	53	5
199	209	1
67	67	2
157	199	1
38	38	4
21	21	2
24	51	1
152	166	1
5	5	4
158	161	1
59	59	4
156	156	5
157	159	1
41	44	1
42	170	1
187	188	1
115	116	2
35	35	5
159	181	1
99	109	2
155	155	3
48	186	1
0	0	1
1	1	1
107	107	4
86	86	3
170	170	1
3	42	1
64	64	7
241	242	1
88	89	2
157	157	3
215	215	4
159	159	3
234	234	5
225	225	3
93	93	4
242	242	5
14	209	1
62	62	6
66	98	1
236	236	6
88	96	2
169	170	1
175	183	1
216	216	2
14	14	3
90	91	2
18	57	1
97	113	1
223	223	2
201	201	6
240	240	6
235	235	2
31	202	1
82	86	1
200	200	6
178	178	3
168	168	7
49	49	3
177	196	1
6	209	2
21	24	1
80	80	5
103	103	4
224	230	1
153	153	3
149	149	1
54	54	2
168	169	2
226	229	1
29	29	4
227	227	3
84	100	1
200	247	1
43	44	3
33	33	8
208	208	5
38	65	1
175	175	4
150	150	3
61	61	3
53	65	2
38	40	1
116	119	2
113	113	5
19	19	7
238	238	3
161	161	4
6	223	1
41	159	1
190	190	4
201	246	1
5	6	1
98	106	1
178	183	1
119	119	3
15	17	1
45	45	4
218	218	3
237	240	1
69	69	2
232	233	3
86	100	1
3	23	1
38	39	3
212	212	4
244	245	2
20	20	3
110	110	5
34	168	1
5	12	1
75	75	3
9	14	1
22	39	1
46	202	1
214	224	1
160	160	7
249	249	1
43	43	1
57	58	2
64	161	1
158	158	2
232	234	2
15	15	2
179	179	3
214	242	1
51	151	1
103	226	1
154	181	3
248	249	1
58	58	2
153	157	1
216	225	1
78	82	1
198	199	3
164	176	1
239	239	3
25	26	2
97	98	1
15	20	1
222	223	1
205	205	7
46	52	1
42	42	3
35	59	1
196	196	1
86	88	1
185	185	4
68	69	3
102	102	3
8	8	4
67	86	1
182	198	1
26	28	3
46	54	1
77	105	1
167	168	2
80	103	2
219	219	2
3	3	3
245	245	5
187	187	2
218	219	2
203	204	2
177	188	1
23	23	8
91	91	4
58	92	1
43	72	1
183	183	3
183	198	1
106	166	2
15	16	3
87	87	3
161	162	2
42	43	4
112	113	1
188	197	1
227	233	2
24	24	4
63	64	1
187	193	3
18	18	7
56	88	1
4	14	1
66	67	1
4	4	3
26	26	3
38	41	1
171	171	2
85	89	1
39	39	1
232	239	1
64	80	1
23	55	1
210	210	3
9	9	2
2	10	1
232	232	2
191	240	2
218	220	4
226	226	3
227	228	3
175	208	1
229	240	1
14	217	1
193	211	1
196	214	1
17	205	1
17	67	1
151	231	1
3	46	1
155	156	1
57	89	1
166	236	1
114	221	1
176	178	2
67	74	1
9	55	1
81	82	1
66	87	1
182	182	3
100	101	2
25	25	2
152	153	3
52	100	2
169	169	2
101	101	4
57	57	2
17	202	1
219	220	1
165	167	1
186	237	1
37	56	1
226	235	1
65	68	1
59	60	1
173	208	1
203	209	1
176	214	1
90	90	3
199	199	2
166	167	1
190	191	1
170	199	2
17	17	3
2	2	2
41	168	1
153	154	2
60	60	1
76	99	1
96	111	1
41	43	2
154	160	1
47	95	1
173	185	1
108	118	1
4	5	1
66	76	1
50	50	2
158	166	1
28	28	3
152	159	1
6	12	2
165	165	1
177	177	1
191	217	1
58	65	1
12	12	3
5	69	1
13	14	1
212	229	1
181	185	1
84	87	1
184	184	4
55	55	2
202	202	3
65	91	1
181	181	2
185	208	1
185	190	2
6	161	1
151	202	1
69	70	2
155	206	1
231	231	2
114	115	2
116	117	2
55	57	1
173	173	1
243	247	1
29	36	1
2	3	3
104	162	1
180	180	3
79	190	1
75	98	1
76	77	2
203	203	3
109	110	3
210	229	1
84	85	1
26	27	1
115	117	1
193	200	1
47	47	2
208	209	1
110	112	1
204	204	2
164	165	1
40	42	1
102	224	2
86	226	1
72	78	1
35	41	1
189	189	2
74	74	1
169	171	1
118	118	1
11	11	3
163	164	2
162	162	8
56	71	1
171	188	1
3	5	1
84	84	2
84	90	1
15	18	1
61	64	1
117	117	3
100	226	1
160	205	1
42	53	1
3	14	1
189	244	1
107	108	1
175	202	2
97	97	1
46	51	1
166	213	1
56	184	1
221	221	5
21	25	1
76	88	1
18	30	1
192	192	2
78	88	1
16	22	1
25	39	2
168	180	1
162	163	1
42	117	1
213	213	4
234	236	1
10	10	4
82	82	3
3	75	1
198	244	1
233	234	2
78	202	1
197	197	2
70	70	3
20	21	1
106	106	1
158	160	1
228	229	2
68	95	1
174	180	1
61	115	1
230	233	1
237	237	2
56	61	1
210	211	4
51	185	1
79	169	1
209	209	4
168	206	1
34	232	1
216	217	1
5	159	1
36	36	3
226	227	1
92	92	3
177	208	1
220	238	1
11	37	1
81	81	2
9	10	1
101	102	1
36	39	1
89	97	2
200	207	1
172	173	1
244	247	1
185	186	1
42	44	2
104	106	1
29	32	1
238	239	1
59	241	1
30	36	1
57	194	1
6	13	1
186	187	3
52	53	1
174	179	1
98	224	1
109	115	1
215	216	1
217	239	1
210	212	1
73	74	1
229	234	1
61	62	1
99	101	1
43	159	1
89	90	1
153	163	1
29	92	1
112	118	1
231	236	2
56	57	1
6	7	2
184	191	1
49	51	1
243	244	2
214	214	1
210	243	1
144	144	1
46	46	2
26	65	1
103	114	1
8	9	1
85	204	1
191	213	1
217	218	2
224	224	2
146	149	1
248	248	3
228	228	2
227	230	1
20	25	1
22	29	2
217	225	1
120	120	2
62	65	1
42	48	1
231	247	1
115	115	1
55	90	1
228	232	2
181	182	2
221	224	1
68	70	1
36	40	1
48	67	1
167	173	1
6	47	1
146	151	1
66	112	1
116	203	1
56	104	1
79	99	1
23	25	1
70	72	1
196	198	1
211	229	1
78	79	1
72	210	1
181	204	2
166	175	1
191	197	1
92	167	1
162	164	1
145	145	1
207	207	2
47	69	1
239	240	1
150	151	1
28	31	1
22	32	1
238	247	1
52	174	1
111	202	1
40	45	1
118	167	1
70	75	1
72	82	1
96	117	1
174	235	1
197	244	1
242	244	1
146	146	1
29	31	2
30	31	1
177	181	1
159	163	1
119	210	1
192	223	1
170	179	1
220	222	1
214	241	1
174	175	1
93	104	1
58	68	1
8	23	2
15	52	1
176	210	1
90	168	1
191	194	1
52	111	1
111	117	1
237	239	1
86	96	1
236	237	1
99	100	1
147	249	1
89	174	1
162	232	1
205	230	1
114	150	1
63	63	2
183	201	1
96	107	1
100	158	1
