81	81	3
129	129	2
150	152	1
102	102	1
145	145	4
107	111	1
71	71	1
74	100	1
22	22	1
63	95	1
25	33	1
20	22	1
166	167	2
44	44	1
174	175	1
8	52	1
179	179	2
153	153	2
115	115	2
4	36	1
41	41	4
106	151	1
86	99	1
63	63	4
85	139	1
175	175	1
66	104	1
100	121	1
160	183	1
23	23	2
157	157	1
127	127	2
142	142	2
47	55	2
40	40	1
15	15	4
25	41	1
60	60	1
27	27	3
148	148	1
60	61	1
12	12	4
114	114	2
128	133	2
33	33	4
136	145	1
123	123	3
38	49	1
116	116	2
118	118	3
172	172	2
67	108	1
60	68	1
0	21	3
28	31	1
48	97	1
95	111	1
178	179	3
5	30	1
95	122	2
42	42	2
20	24	1
175	176	1
104	104	1
16	28	1
1	1	1
34	34	3
78	80	1
39	39	2
110	110	3
31	31	1
130	130	1
76	76	5
107	178	1
154	155	1
170	170	1
30	30	2
36	37	1
85	85	2
150	161	1
184	184	2
8	96	1
144	144	1
27	96	1
93	96	1
155	156	1
159	159	1
47	47	2
9	10	2
168	168	2
86	138	1
109	109	2
37	49	1
126	128	1
146	147	2
81	108	1
68	68	1
29	31	2
176	176	1
126	126	2
176	187	1
14	62	2
25	25	1
105	105	1
120	120	1
151	151	2
182	183	2
5	5	1
162	162	2
64	100	1
84	84	3
66	66	2
59	61	1
57	57	1
99	100	1
10	10	1
20	21	1
164	164	1
116	137	1
178	178	2
116	118	1
121	121	3
3	3	1
111	111	2
156	157	1
10	16	2
73	73	1
56	88	1
166	168	1
8	9	1
128	128	3
8	8	2
26	26	5
65	77	1
8	15	1
181	181	2
67	97	2
11	20	1
54	54	2
173	173	1
27	35	1
19	19	1
15	19	2
126	132	1
125	137	1
169	169	1
109	110	1
75	118	1
32	93	1
55	81	1
53	53	1
58	60	1
2	2	1
74	74	1
161	161	1
143	143	2
135	147	1
105	108	2
86	137	1
89	89	3
116	117	1
58	58	2
189	189	2
75	75	1
38	38	1
106	106	3
93	94	1
69	72	1
142	143	1
138	141	1
30	96	1
60	69	2
15	33	1
130	143	1
182	182	3
11	11	1
100	100	1
13	14	1
171	172	1
37	37	1
24	24	2
41	42	1
187	187	3
132	147	1
36	38	1
96	110	1
174	174	1
148	150	1
167	168	1
72	72	1
45	70	1
94	94	1
81	148	1
134	134	1
56	60	1
63	82	1
66	67	1
128	137	2
165	166	1
46	47	2
108	109	1
175	177	1
185	185	1
13	13	2
39	40	1
108	108	1
14	14	1
163	163	1
40	42	1
172	173	1
78	78	2
165	168	1
80	80	1
95	152	1
81	82	1
58	90	1
82	82	1
173	178	2
158	159	1
122	142	1
149	149	2
177	177	1
59	59	1
88	90	1
97	97	1
117	117	1
95	96	1
45	47	1
86	87	1
57	78	1
99	101	1
188	188	1
186	187	1
140	140	1
136	137	1
0	19	1
11	12	1
118	143	1
164	165	1
138	189	1
119	120	1
74	75	1
84	85	2
104	126	1
158	158	1
117	125	1
32	43	1
155	155	1
68	85	1
56	89	2
98	99	1
92	92	1
29	99	1
111	127	1
137	137	1
171	180	1
66	78	1
115	116	1
111	131	1
143	144	1
167	167	1
128	140	1
57	68	1
187	190	1
31	33	1
55	79	1
7	7	1
10	11	1
41	68	1
32	34	1
