81	81	3
162	162	2
99	105	1
23	23	5
88	197	1
17	60	1
82	83	3
105	105	4
20	36	1
186	187	1
109	109	3
236	236	3
192	193	1
8	8	7
38	191	1
103	103	3
220	237	1
220	220	2
228	229	1
167	167	5
195	195	4
179	180	2
75	76	3
60	60	2
25	25	2
208	208	2
149	149	1
196	196	2
143	143	1
125	126	3
222	222	4
165	165	3
163	163	2
92	117	1
17	17	2
96	97	1
178	178	1
194	223	1
83	88	1
128	128	1
192	192	7
104	105	2
147	148	2
107	121	1
112	112	1
12	12	5
83	83	4
215	215	2
109	120	1
36	36	5
191	191	5
151	164	2
98	98	3
130	130	1
47	47	2
49	50	1
219	219	3
148	148	2
212	213	1
173	175	1
97	97	2
42	43	1
221	221	2
198	198	1
22	22	3
99	99	2
151	151	1
124	124	2
204	204	3
125	127	2
154	154	2
50	71	2
10	20	1
29	29	1
113	120	1
147	154	1
67	67	2
203	203	1
127	221	1
107	107	1
166	224	1
157	168	1
169	201	1
241	242	2
169	170	1
51	51	1
231	231	1
145	145	4
118	119	2
13	214	1
214	214	2
148	149	2
227	227	2
86	197	1
122	122	4
34	34	2
15	15	2
48	49	1
54	54	3
43	43	4
232	232	1
197	197	1
205	205	5
213	213	2
39	39	1
63	63	2
53	54	2
133	133	2
238	238	1
239	239	2
5	143	1
165	166	2
100	130	2
154	170	2
182	182	5
115	115	4
212	216	1
169	169	3
3	3	2
225	225	3
177	177	1
4	4	4
55	55	1
30	30	1
26	26	2
159	159	3
206	206	1
56	60	1
207	207	2
2	36	1
193	193	4
105	106	1
99	134	1
70	70	3
103	105	1
126	126	1
155	155	1
194	195	2
86	86	3
6	6	2
71	71	2
100	100	4
95	105	1
68	240	2
14	35	1
34	52	1
16	16	4
174	175	1
136	136	2
25	32	2
174	174	1
53	189	1
78	173	1
230	230	3
119	119	2
11	25	1
11	11	1
149	150	3
42	68	1
224	224	2
217	218	2
80	84	1
114	116	1
117	140	1
117	117	1
102	102	2
125	125	1
199	199	1
56	56	1
46	85	1
28	28	1
77	77	3
218	218	5
200	200	1
241	241	1
98	99	1
50	50	1
62	62	1
108	108	1
46	47	1
190	190	2
168	168	1
124	125	1
182	233	2
101	101	4
123	123	6
136	137	1
238	239	1
158	158	1
181	181	1
1	46	1
211	221	1
134	135	3
152	159	1
181	234	1
11	31	2
194	194	2
21	23	3
85	85	4
142	143	1
45	64	1
188	203	1
0	41	1
237	237	1
211	211	1
157	158	2
185	205	1
24	45	1
127	127	1
153	153	3
73	73	3
21	21	3
16	19	2
125	152	1
24	24	1
16	47	1
201	201	1
61	61	1
156	158	1
44	88	1
147	147	1
69	86	1
77	236	1
135	135	1
192	228	1
84	85	1
24	38	1
3	4	1
74	74	2
187	188	1
195	196	1
5	6	1
127	130	1
28	29	1
234	235	1
12	67	1
151	160	1
54	55	1
131	134	1
41	42	2
53	76	1
106	106	1
108	119	1
217	217	3
77	78	1
96	171	1
58	58	3
152	160	1
142	142	1
208	218	1
108	157	1
16	18	1
9	9	1
76	76	1
44	44	1
106	126	1
158	159	1
185	194	1
44	85	1
49	183	1
37	37	1
206	210	1
19	19	1
216	217	1
40	65	1
32	32	3
210	221	1
34	35	2
159	160	1
101	102	1
134	134	1
88	88	1
160	160	2
41	41	1
115	141	1
45	45	2
223	223	1
107	124	1
58	186	1
176	176	1
7	8	1
80	83	2
205	206	1
153	156	1
1	1	1
14	22	1
52	53	1
153	155	1
156	157	1
127	145	1
183	183	1
109	137	1
101	128	1
152	164	1
61	62	1
113	113	1
151	180	1
63	64	1
117	141	1
80	80	1
104	161	1
225	230	1
2	2	1
67	178	1
66	66	1
10	10	2
134	142	1
175	175	2
107	145	1
144	145	1
135	137	2
176	177	1
158	163	1
20	20	2
204	206	2
148	179	1
46	238	1
198	201	1
65	74	1
187	191	1
35	35	1
184	184	1
122	136	1
240	240	1
4	12	1
154	161	1
9	212	1
127	146	1
14	14	1
152	152	2
129	129	1
48	63	1
170	182	1
179	226	1
71	72	1
7	7	1
213	214	1
104	104	2
229	229	1
89	89	1
162	187	1
188	188	1
33	33	1
26	70	1
179	219	1
196	205	1
71	76	1
59	59	1
218	219	1
57	58	1
61	95	1
207	211	1
129	130	1
40	40	1
70	71	1
116	116	1
154	155	1
164	165	1
41	50	1
236	237	2
164	164	1
156	156	1
187	190	1
49	49	1
106	110	1
87	122	1
170	208	1
137	137	1
11	60	1
223	226	1
25	37	1
141	142	1
80	178	1
224	226	1
