129	131	1
59	59	3
164	164	3
148	170	1
71	73	1
118	118	8
36	36	6
64	91	2
65	82	2
132	134	1
95	96	1
41	42	3
84	85	1
71	71	5
12	12	6
60	60	3
76	77	1
138	138	11
151	151	2
42	43	2
119	119	5
162	162	7
37	37	1
53	54	2
38	80	1
154	167	2
128	128	2
101	101	1
154	154	3
99	108	2
9	90	2
137	137	7
34	34	1
146	146	5
30	30	2
150	168	1
173	173	1
16	20	1
1	1	3
98	103	2
68	68	3
13	30	1
101	103	1
5	16	1
33	33	8
55	56	1
86	153	2
52	52	2
150	150	2
97	98	2
114	114	2
39	39	6
17	18	1
23	23	2
73	73	1
26	26	2
35	35	3
108	108	3
89	90	3
140	140	5
163	179	1
62	62	5
72	72	1
101	119	1
32	33	2
63	64	1
149	149	6
112	154	1
167	168	1
2	2	5
77	77	4
74	74	4
107	107	4
90	90	4
14	14	5
142	157	2
44	45	2
109	129	1
53	63	1
142	142	6
49	58	1
138	148	1
159	159	4
112	134	1
110	131	2
156	156	1
92	92	2
179	179	4
85	85	4
136	136	2
172	172	4
169	169	2
89	92	1
83	83	3
21	45	1
102	102	2
141	145	1
16	147	1
54	54	2
71	74	1
157	157	4
54	59	1
163	167	1
118	170	2
153	154	4
19	19	4
3	5	1
92	128	1
3	4	3
112	115	1
112	112	5
126	127	3
164	165	1
129	129	1
39	40	3
87	87	7
27	27	1
85	100	1
167	167	5
51	51	2
86	86	2
36	159	1
8	8	1
118	120	3
23	27	1
125	125	6
145	146	3
15	15	3
24	35	1
158	158	2
85	87	1
153	153	4
160	168	1
131	131	5
65	88	1
119	127	2
7	46	1
79	79	5
82	82	4
89	89	5
3	3	4
7	7	4
7	9	1
127	154	1
84	84	1
78	78	3
96	126	1
31	32	1
40	40	4
167	170	1
18	18	1
67	67	7
127	127	5
22	24	1
2	5	1
168	168	1
17	26	2
67	68	3
49	67	1
163	163	1
164	166	2
97	97	2
81	136	2
74	76	1
42	97	2
111	111	5
174	175	1
54	61	1
33	35	4
109	146	1
141	141	2
116	116	1
88	115	1
63	86	2
127	135	1
5	6	3
131	144	1
96	96	3
36	59	1
171	173	1
174	174	2
121	121	1
56	59	1
1	65	1
0	1	2
156	168	1
15	22	1
18	164	1
72	73	2
105	105	9
171	171	5
141	142	1
113	113	3
24	25	2
7	8	1
41	44	1
22	22	2
138	139	2
6	6	2
12	26	1
35	36	2
4	4	3
55	73	2
130	131	2
75	75	2
19	20	2
17	60	1
167	173	1
93	93	4
49	49	1
81	93	1
90	91	2
165	165	1
14	96	1
78	79	1
136	144	2
143	143	4
2	4	2
133	133	2
73	93	1
76	76	3
64	148	1
91	92	3
127	140	1
10	10	2
61	62	2
9	9	5
33	174	1
159	160	1
62	136	1
123	124	4
80	122	2
88	89	1
81	81	1
134	134	1
66	106	1
121	122	1
149	151	1
137	139	1
176	176	4
139	140	1
159	161	2
114	115	1
17	17	2
14	171	1
126	126	1
51	52	1
72	103	1
95	95	1
75	76	1
61	63	1
131	143	1
137	176	1
86	94	1
55	156	1
158	160	1
116	117	2
74	75	1
55	125	1
117	117	2
109	118	1
99	99	2
115	115	3
43	43	3
122	125	1
63	106	1
56	57	3
120	145	1
109	109	3
73	74	7
177	177	2
135	135	3
151	156	1
140	148	1
66	115	3
63	63	1
98	98	2
25	60	2
19	62	2
94	94	2
120	170	1
120	146	1
4	7	1
136	137	1
126	156	2
2	3	1
65	73	1
66	71	1
24	24	1
16	98	1
11	11	2
105	130	1
55	55	1
170	171	1
145	151	2
80	81	1
151	174	2
139	139	3
136	147	1
152	152	2
124	153	1
124	124	1
58	127	1
14	145	1
180	180	1
32	32	1
175	179	1
83	84	1
60	89	1
147	147	2
140	141	1
34	39	1
80	80	1
85	167	1
125	149	1
28	51	1
92	160	1
51	169	1
139	172	1
88	88	3
91	91	1
54	148	1
157	158	1
149	153	1
3	26	1
13	13	5
77	136	1
22	32	1
91	148	2
53	58	2
100	103	2
123	123	1
52	56	1
166	166	1
54	80	1
93	147	1
102	167	1
103	103	2
77	140	1
123	125	2
166	167	1
106	148	1
161	161	1
132	133	2
174	176	1
29	36	2
109	130	2
160	160	1
52	80	1
42	51	1
156	157	2
106	107	1
78	85	1
32	43	1
125	128	2
23	26	1
122	122	1
10	16	1
115	120	1
84	104	1
128	136	1
118	119	1
112	113	1
16	17	2
64	117	1
53	53	2
104	119	1
16	16	1
115	147	1
110	110	3
64	102	1
82	172	1
103	104	1
84	93	1
162	171	1
20	56	1
52	58	1
45	45	3
71	119	1
112	137	1
115	116	2
58	61	1
150	153	1
4	5	1
152	154	1
83	86	1
145	145	2
122	141	1
88	126	1
2	24	1
10	33	1
105	109	1
121	124	2
118	122	1
71	157	1
116	155	1
32	34	1
4	24	1
143	146	1
50	51	2
131	167	1
29	29	1
71	174	1
29	31	1
29	44	1
73	95	1
175	175	2
26	38	1
14	150	1
62	63	1
96	97	1
16	35	1
158	159	1
36	38	1
142	143	2
50	50	1
86	87	1
102	110	1
125	164	1
101	142	1
61	61	1
90	127	1
82	126	1
28	28	1
10	11	1
56	56	1
15	117	1
18	85	1
172	173	1
57	57	1
42	42	2
14	16	1
155	155	1
4	11	1
16	21	1
66	92	1
75	138	1
163	166	1
68	70	1
67	75	1
78	116	1
131	151	1
135	137	1
102	122	1
37	38	1
51	72	1
76	78	1
162	163	1
114	153	1
30	128	1
178	178	1
147	148	1
32	35	1
73	75	1
132	145	1
144	145	1
65	86	1
87	144	1
54	65	1
149	160	1
12	14	1
2	46	1
23	40	1
43	44	1
17	24	1
5	5	1
106	109	1
64	126	1
63	93	1
26	27	1
143	150	1
127	128	1
142	145	1
21	72	1
118	124	1
145	147	1
139	143	1
37	80	1
98	102	1
93	95	1
