170	170	4
45	163	1
58	84	2
31	31	2
40	40	3
74	74	1
146	146	1
181	181	5
18	18	1
145	147	1
120	120	3
103	103	1
154	156	1
52	154	2
14	16	1
96	97	2
66	72	1
0	0	1
162	163	1
113	113	1
9	10	2
73	121	1
78	117	1
90	90	2
160	186	1
153	160	1
67	187	2
102	102	3
39	40	2
108	108	3
177	177	1
144	148	1
22	28	2
167	168	1
35	35	3
2	2	2
28	28	3
129	129	1
4	4	1
114	114	1
136	136	2
135	135	1
88	89	2
24	44	1
112	113	1
24	37	1
111	111	1
134	134	1
75	75	3
172	173	1
183	183	1
11	12	1
66	100	1
24	24	2
79	79	2
16	24	1
124	169	1
73	73	2
68	70	1
72	73	2
173	173	2
175	177	2
13	13	3
62	62	1
13	22	1
139	139	2
172	172	1
27	29	1
32	45	1
157	157	3
168	168	1
64	64	3
106	106	1
31	42	1
95	95	3
90	117	1
140	140	2
87	87	2
133	154	2
161	161	1
34	34	1
164	164	1
72	72	1
75	76	1
95	98	1
117	119	1
24	43	1
126	126	1
160	167	1
65	97	1
26	26	1
131	131	2
105	109	1
165	172	1
135	144	1
174	175	1
151	157	2
78	78	2
101	101	3
91	115	2
160	160	1
85	85	2
110	114	1
138	139	1
187	187	1
41	41	1
61	61	1
94	94	1
29	49	1
145	145	1
109	109	4
65	66	1
96	96	1
182	182	2
30	37	1
165	165	2
71	72	1
112	133	1
81	81	1
99	99	1
145	146	2
143	143	2
121	161	1
73	85	1
25	84	1
12	12	1
178	179	1
71	71	2
53	57	1
136	149	3
149	150	1
31	33	1
4	6	1
84	85	2
88	88	1
76	76	3
83	83	1
32	33	1
184	184	2
107	123	1
179	180	3
55	55	1
64	80	1
32	35	2
19	19	1
17	17	2
126	150	1
188	188	2
147	147	4
77	77	3
48	48	1
43	47	1
45	45	2
43	44	1
169	169	2
11	11	1
73	179	1
53	53	2
100	101	1
62	158	1
147	148	1
119	176	1
148	160	1
66	66	1
130	130	1
65	190	1
124	125	1
7	41	1
167	172	1
138	138	3
76	176	1
79	81	1
47	97	1
16	16	2
150	166	1
27	30	1
103	106	1
38	40	1
121	123	1
167	167	1
155	155	3
104	106	1
125	126	2
5	5	1
47	47	1
1	1	1
19	20	1
91	109	1
171	171	1
32	32	1
37	37	1
28	29	1
105	105	2
70	98	1
10	11	1
60	112	1
91	91	1
27	27	1
29	43	1
159	159	1
122	122	1
152	157	1
161	187	1
63	149	1
130	131	1
104	105	1
141	141	1
168	169	1
38	39	1
27	31	1
55	76	1
178	178	1
106	129	1
154	154	2
115	123	1
110	121	1
151	151	1
150	150	1
9	98	2
166	166	1
15	15	1
144	144	1
119	121	1
181	182	1
182	183	1
32	34	1
18	46	1
124	183	1
168	188	1
26	35	1
25	25	1
