139	142	1
24	24	3
220	220	4
97	97	2
33	33	4
27	27	4
1	1	1
212	225	1
21	21	1
85	85	2
174	174	2
132	135	2
25	191	1
80	80	1
11	12	1
115	154	1
50	50	1
191	195	1
98	99	1
135	135	3
18	19	1
181	181	5
72	135	1
64	65	3
65	65	3
144	144	5
26	26	8
29	29	2
116	116	2
61	61	4
53	84	1
26	61	1
149	149	3
209	215	1
127	128	1
159	159	1
20	21	3
179	180	1
187	187	1
226	226	3
55	55	3
58	131	1
172	172	4
68	68	3
27	28	1
41	81	1
190	190	1
70	70	3
203	203	1
114	119	1
62	62	4
55	56	1
74	74	3
195	212	1
122	122	4
162	162	1
3	4	2
121	122	3
118	118	3
63	63	1
72	73	2
25	26	2
128	128	4
113	113	2
73	73	4
11	197	2
224	224	1
25	25	2
145	145	2
233	233	1
151	151	2
212	212	3
4	7	2
150	150	2
32	32	3
9	9	3
107	107	2
54	55	1
99	100	1
24	26	1
64	64	2
3	3	1
20	58	2
157	157	3
31	43	2
112	112	1
239	239	1
10	10	5
121	121	3
13	13	1
200	200	1
231	231	2
236	236	2
203	232	1
144	145	1
119	119	4
34	34	1
242	242	2
45	198	1
165	165	3
203	206	1
179	179	1
177	177	5
102	102	4
100	111	1
188	188	1
0	1	1
201	201	2
31	68	2
152	169	1
125	156	1
233	234	1
46	99	1
31	31	3
98	98	4
113	171	2
175	177	1
44	44	1
15	191	1
161	167	1
36	36	2
184	184	2
136	136	4
236	239	1
81	81	2
96	96	1
26	63	1
161	161	2
99	99	2
145	148	1
161	162	1
43	43	4
12	156	1
214	214	2
42	42	2
207	207	2
194	195	3
136	191	1
46	219	1
67	68	1
215	215	1
11	11	4
142	142	2
125	125	1
219	219	2
51	67	2
6	6	1
164	165	1
140	145	1
176	176	3
216	216	1
7	8	1
30	30	5
51	51	2
2	2	1
47	230	1
116	119	1
232	241	1
217	217	4
191	191	2
18	18	1
37	41	1
223	225	1
86	86	2
241	241	1
153	153	2
0	8	1
125	127	1
146	148	1
213	213	2
5	6	1
9	27	1
15	95	1
171	171	1
5	211	1
109	109	1
26	27	1
210	211	1
230	230	2
11	69	1
63	64	1
197	197	1
124	124	1
41	104	1
100	100	1
41	41	2
44	233	1
34	56	1
129	130	1
12	66	1
231	232	1
120	120	2
166	166	1
4	5	1
225	225	2
199	205	1
182	182	1
210	210	2
110	119	1
49	76	1
14	14	3
137	137	1
218	218	1
113	223	1
31	32	1
224	225	1
232	233	2
106	106	1
178	178	1
217	218	1
67	67	2
1	3	1
175	175	1
219	232	1
69	70	1
102	103	1
165	185	1
205	205	1
5	5	1
8	8	3
54	54	3
130	130	1
229	229	2
198	211	1
221	221	1
205	206	1
75	75	1
52	52	2
45	46	1
27	45	1
209	209	1
8	69	1
175	176	1
127	127	1
17	17	2
218	231	1
148	213	1
169	194	1
61	62	1
82	83	2
60	60	2
180	180	1
140	155	1
216	223	1
38	38	1
139	143	1
71	71	2
25	172	1
128	129	1
237	237	2
10	25	1
126	126	1
69	69	1
112	113	1
46	46	1
23	23	1
189	190	1
51	53	3
208	209	1
39	42	1
43	219	1
139	141	1
123	123	2
78	79	1
236	240	2
227	228	1
154	155	1
33	40	1
46	235	1
49	49	2
129	131	1
216	227	1
234	234	3
47	47	2
78	78	1
115	118	1
119	121	1
46	128	1
52	53	1
108	108	1
167	168	1
122	127	1
202	202	1
201	206	1
240	240	1
196	196	1
119	130	1
195	195	1
221	222	1
147	148	1
230	231	1
111	111	1
84	85	1
192	193	1
196	197	1
66	67	1
58	58	1
159	160	1
113	173	1
132	156	1
132	132	1
153	156	1
4	6	1
75	84	1
0	0	1
138	140	1
2	83	1
240	241	1
45	236	1
32	33	1
169	169	1
151	152	1
81	83	1
17	58	1
4	4	1
153	160	1
120	121	1
188	200	1
80	84	1
131	131	1
66	68	1
143	143	1
88	111	1
