198	198	1
164	166	2
195	229	1
5	6	1
225	225	6
7	8	1
38	38	1
136	136	3
149	149	1
80	85	1
25	26	3
157	157	1
210	227	1
66	66	3
16	114	1
154	221	3
178	178	2
29	30	1
198	199	4
147	147	2
203	203	1
59	59	1
215	215	5
17	58	3
119	135	1
40	40	2
75	75	2
233	238	1
221	224	1
117	125	1
71	72	1
76	76	3
212	221	3
172	172	4
64	65	1
88	155	1
131	131	1
241	241	2
10	233	1
133	138	1
188	188	1
31	31	2
30	31	1
154	155	1
56	57	1
99	99	1
72	72	2
18	193	1
0	34	1
211	211	2
46	46	1
86	169	1
138	204	1
61	61	1
65	66	1
159	160	1
214	216	2
35	35	4
66	67	1
7	7	1
142	190	1
145	145	1
165	178	1
2	21	1
19	19	1
213	213	2
53	53	4
3	4	1
194	195	1
190	190	2
191	208	1
189	195	1
127	127	4
74	74	1
217	217	4
118	118	3
161	183	1
9	9	1
158	158	1
20	21	2
77	102	1
68	69	1
233	233	1
171	178	3
115	115	2
222	226	2
22	22	2
217	218	2
24	24	1
157	226	1
123	124	2
228	228	1
127	150	2
71	73	1
142	142	2
218	232	1
199	229	1
19	114	1
40	100	1
45	86	2
223	223	1
73	73	1
141	142	1
137	141	1
231	233	1
63	63	3
55	60	1
33	33	1
28	199	1
142	200	1
237	237	1
10	11	3
51	51	1
205	205	3
4	4	1
22	236	1
28	29	1
126	126	1
139	139	3
204	204	1
1	2	1
154	165	1
6	152	1
27	27	1
44	65	2
28	28	1
44	85	1
184	184	2
41	41	2
155	156	1
116	116	1
240	240	2
103	103	1
48	48	1
197	242	1
118	174	1
105	105	1
45	114	1
220	221	1
221	221	2
6	172	2
37	183	1
11	11	3
78	79	2
43	43	3
234	236	2
188	191	1
13	51	1
220	220	1
13	14	1
178	192	2
73	237	1
5	5	2
48	222	1
159	162	1
17	17	3
234	234	1
162	162	1
32	32	1
173	173	1
174	174	1
128	147	1
119	191	1
163	167	2
45	45	1
231	231	2
82	82	2
199	199	1
15	15	1
209	209	1
227	227	2
34	35	1
116	117	1
183	183	2
67	67	1
108	108	2
207	207	3
82	84	1
80	80	2
125	125	1
50	50	5
81	83	1
88	154	1
146	147	2
3	3	1
58	58	2
52	52	3
44	44	1
16	16	1
236	236	1
52	222	1
10	10	2
103	168	1
14	49	1
222	222	1
84	137	1
34	50	1
119	120	2
54	54	1
23	80	1
110	145	1
21	68	1
164	164	1
137	138	1
211	227	1
140	141	2
3	14	1
141	141	1
161	168	1
138	145	1
143	169	1
212	212	2
166	166	3
78	78	2
242	242	1
176	196	1
142	146	1
189	190	1
122	123	1
23	189	1
64	64	1
122	122	2
139	143	1
104	104	1
107	107	3
62	62	3
66	83	1
77	78	2
35	66	1
49	50	1
115	172	1
143	146	1
159	159	1
177	177	1
128	131	1
124	127	1
125	126	1
119	119	1
14	15	1
128	143	1
154	168	1
229	229	1
81	81	1
99	112	1
224	230	1
222	225	1
71	212	1
165	165	1
224	224	1
84	84	1
13	33	1
130	130	1
105	119	1
65	65	2
193	209	1
17	18	1
135	135	1
22	67	1
13	13	4
191	199	1
112	113	1
232	233	1
219	220	1
172	218	1
186	187	1
69	69	1
163	163	1
75	79	1
98	98	2
51	68	2
66	71	1
168	206	1
31	32	2
105	126	1
25	25	1
205	206	1
88	88	1
55	55	1
182	182	1
192	192	1
176	176	1
74	85	1
50	99	1
8	8	1
140	140	1
129	139	1
171	171	1
170	171	1
53	115	1
170	170	1
36	36	1
100	100	1
108	123	1
143	143	1
192	194	1
203	204	1
105	168	1
153	153	2
200	202	1
151	167	1
120	191	1
57	58	1
40	193	1
20	25	1
117	134	2
17	45	1
211	212	1
165	191	1
196	196	1
148	148	1
0	6	1
133	137	1
160	160	1
239	239	1
114	114	1
71	71	1
124	124	1
72	73	1
117	117	1
206	206	1
197	207	1
129	129	1
161	162	1
49	49	1
197	197	1
156	187	1
