99	112	1
147	148	3
115	132	2
88	94	1
143	146	1
36	36	1
146	146	2
16	16	1
151	151	1
107	115	1
131	131	4
34	34	3
123	123	1
23	24	1
35	35	1
19	41	1
41	55	2
153	153	1
94	94	2
72	75	1
126	126	1
130	130	1
137	138	1
104	105	1
79	80	1
80	80	1
78	78	2
61	62	1
48	74	2
39	41	1
25	26	1
94	95	1
77	77	1
31	31	3
44	44	1
109	109	2
12	12	1
115	146	1
28	29	3
149	149	1
144	144	3
41	42	1
129	130	1
5	5	4
2	71	1
84	84	1
86	92	1
18	18	1
100	100	1
89	114	1
19	19	3
33	33	2
5	7	1
103	103	3
128	128	1
140	142	1
136	136	1
43	43	4
18	37	1
76	77	1
95	95	1
74	74	1
148	149	1
92	92	1
115	115	1
138	138	3
25	25	2
118	129	1
108	109	1
76	78	1
66	112	1
13	13	2
145	145	2
64	67	1
6	7	1
80	146	2
26	27	2
53	63	2
141	141	2
14	51	1
133	133	2
79	79	1
113	114	1
116	117	1
69	76	1
104	104	3
20	20	1
116	116	1
96	97	1
29	29	1
46	46	2
11	11	5
68	85	1
47	48	1
118	118	1
96	102	1
44	47	1
66	67	1
65	65	2
10	10	7
90	93	1
75	75	2
147	147	1
27	27	2
127	128	1
111	111	3
107	107	2
36	37	1
81	81	1
53	53	1
72	130	2
49	53	1
108	108	1
40	40	3
112	112	1
97	98	1
8	8	1
152	153	1
97	99	1
125	125	1
31	37	1
83	85	2
9	11	1
116	118	1
66	66	1
116	136	1
96	99	1
76	76	1
28	28	1
121	143	1
154	154	1
54	54	1
142	142	2
115	135	2
102	102	2
88	89	1
110	110	2
129	129	1
95	100	1
97	114	1
78	111	1
44	45	1
139	139	2
135	147	1
72	72	3
63	63	1
51	51	1
21	21	1
3	36	1
96	98	1
93	93	1
105	105	1
135	135	1
12	18	1
45	45	1
93	94	1
9	18	1
134	134	1
85	92	2
81	82	1
42	49	1
68	70	2
119	131	1
47	47	2
79	145	1
16	18	1
4	22	1
48	53	1
132	133	1
41	41	1
120	120	1
114	114	1
38	39	1
96	113	1
73	73	1
32	32	1
109	114	1
72	87	1
11	30	1
106	107	1
3	22	2
148	152	1
80	81	1
50	50	1
122	128	1
75	77	1
23	23	1
9	29	1
19	27	1
128	131	1
38	38	1
70	70	1
