44	44	4
20	31	1
43	44	3
99	105	1
64	64	2
20	20	5
102	102	1
110	110	5
106	106	3
91	92	1
97	97	8
43	43	5
76	76	4
94	107	1
70	70	6
103	104	3
99	99	5
73	74	2
82	83	3
29	37	1
61	97	2
88	98	1
32	33	2
89	90	2
23	23	2
108	108	4
27	91	1
71	71	2
22	22	10
68	68	2
85	85	6
73	78	2
66	96	1
45	46	2
57	57	2
38	54	1
75	75	4
21	22	1
96	96	5
51	88	1
38	40	1
67	67	3
59	60	2
34	34	3
80	80	1
100	100	6
28	28	6
34	80	1
81	82	1
29	29	3
25	25	2
37	37	2
33	33	4
44	87	1
47	103	1
74	74	5
82	82	3
19	96	2
101	103	1
46	47	4
48	48	3
73	84	1
102	106	1
88	88	4
89	89	3
83	83	1
24	24	3
80	101	1
94	94	2
104	104	6
93	94	1
64	100	1
107	109	1
111	111	2
25	39	1
42	42	3
84	85	2
111	113	2
36	36	3
69	73	2
95	101	1
75	76	1
66	67	5
58	62	1
81	92	1
63	64	1
58	59	1
35	35	2
34	35	1
104	108	1
62	92	1
52	94	1
26	26	4
85	96	1
90	90	2
98	100	1
91	91	1
40	40	6
107	107	2
32	56	1
72	72	1
35	37	1
62	62	3
93	93	6
84	84	1
49	52	1
113	113	5
30	73	2
65	70	2
101	111	1
92	92	1
38	39	1
60	60	5
91	103	1
48	49	2
59	86	1
24	60	1
88	101	2
54	84	1
108	109	1
62	93	1
31	32	2
63	63	4
27	52	1
51	51	1
65	65	4
26	83	2
69	78	1
72	77	1
52	52	7
30	100	1
104	106	2
69	69	2
76	102	2
75	102	1
41	41	2
56	66	1
81	81	1
49	49	2
57	59	1
80	81	1
77	79	1
61	61	7
62	63	1
36	85	1
64	65	1
88	89	1
67	69	1
94	95	1
55	57	2
74	78	1
29	85	1
41	42	2
37	38	1
98	99	1
45	45	2
31	31	2
73	79	1
105	106	1
81	107	1
66	66	5
54	54	3
104	105	3
79	79	2
19	19	1
101	101	3
78	111	2
20	21	1
68	76	1
27	76	1
23	24	1
61	68	1
39	39	3
61	93	2
30	30	4
31	42	1
95	96	1
95	95	1
39	40	2
99	113	1
77	78	1
74	75	1
67	97	1
51	77	1
82	86	1
100	111	1
44	45	1
98	98	2
114	114	3
50	51	1
57	58	1
21	21	3
49	51	1
65	67	1
28	112	1
78	78	2
21	31	2
58	86	1
31	60	1
86	87	1
85	87	2
71	73	1
53	54	1
61	95	1
27	27	2
32	54	2
61	69	1
42	47	1
103	103	1
54	55	3
28	66	1
82	85	1
112	112	1
79	113	1
110	111	1
29	111	1
53	65	1
20	24	1
101	112	1
40	41	1
24	63	1
59	59	1
70	71	1
102	103	2
62	68	1
41	50	1
115	115	1
25	41	1
26	38	2
46	46	1
58	58	2
109	110	1
71	72	1
53	53	1
58	108	1
68	69	1
75	92	1
60	61	1
48	63	1
73	81	1
62	65	1
108	111	1
105	105	1
86	93	1
36	37	1
71	96	1
72	92	1
96	102	1
