22	22	2
55	55	4
157	157	2
47	47	1
39	39	2
20	31	2
2	2	1
17	142	1
155	155	4
105	106	3
18	19	1
7	7	1
6	6	2
140	140	2
103	105	3
39	42	1
18	30	1
25	140	1
44	44	2
74	74	1
128	128	6
93	93	3
110	110	3
139	139	2
156	156	3
79	79	4
125	125	2
50	52	1
27	30	3
118	118	3
21	30	2
105	105	3
82	86	1
154	154	3
130	157	1
123	123	1
127	127	5
25	80	1
49	49	1
138	155	2
123	137	1
83	83	1
153	155	1
145	145	1
17	26	1
141	141	3
31	33	1
112	112	1
155	156	1
9	14	1
82	82	1
2	21	1
126	126	2
118	136	1
111	111	1
70	89	1
38	38	1
73	73	7
101	102	1
116	116	1
147	149	2
101	101	1
11	82	1
72	72	2
90	90	2
68	68	2
158	158	2
3	3	1
131	131	4
51	51	1
96	96	1
33	42	1
78	78	3
9	10	1
146	147	1
67	69	2
88	88	5
26	31	1
153	154	1
119	119	1
46	46	4
119	120	2
17	17	1
45	46	1
41	41	1
148	148	2
124	145	1
18	18	1
24	25	1
103	103	3
22	54	1
75	75	2
90	131	2
50	50	1
44	45	2
45	45	1
109	109	1
14	15	2
65	65	3
29	107	2
67	68	2
69	69	3
11	32	1
77	77	1
72	141	2
149	150	1
137	137	4
97	97	1
16	16	2
36	109	1
106	107	1
86	150	1
16	17	1
1	6	1
67	71	1
99	99	1
52	52	2
36	37	1
38	39	1
52	121	1
52	122	3
154	155	1
6	106	1
143	143	2
8	8	2
104	104	1
89	89	2
115	116	1
122	122	1
27	87	1
87	87	2
119	123	2
43	43	3
124	127	1
148	152	2
131	153	1
63	68	1
95	95	4
63	63	1
31	135	2
107	107	2
91	123	2
80	80	4
95	96	1
48	131	1
102	102	3
104	105	1
109	136	1
108	113	1
48	49	1
12	55	2
9	9	1
148	156	1
92	92	2
71	71	4
113	113	1
67	67	1
117	117	2
23	24	1
44	141	2
91	127	1
121	121	1
111	150	2
10	12	2
114	115	1
130	130	2
115	115	2
127	143	1
144	147	1
33	33	2
145	146	1
79	125	1
130	139	1
89	150	2
80	87	1
132	133	2
108	109	1
40	40	1
98	101	1
1	2	1
84	84	3
34	133	1
19	19	3
118	137	1
85	85	3
33	40	1
37	37	1
31	31	2
139	140	1
69	142	1
68	89	1
30	127	1
93	96	1
64	94	1
33	35	2
0	0	3
49	63	2
90	91	1
80	136	1
24	27	1
141	142	1
100	100	1
147	147	1
70	70	3
10	10	2
47	48	1
15	15	1
21	21	1
19	20	1
137	147	1
77	92	1
124	124	1
112	113	1
129	129	3
57	57	1
88	153	1
16	26	1
144	144	1
122	123	1
38	43	1
137	150	1
98	98	2
89	147	1
81	81	2
4	4	1
5	5	1
28	30	1
109	115	1
40	41	1
120	120	1
14	14	1
108	123	1
29	117	1
71	125	1
42	133	1
138	138	2
21	31	1
30	140	1
147	156	1
30	30	1
152	152	1
137	138	1
109	110	1
140	141	1
77	78	1
106	106	1
22	27	1
146	146	1
92	121	1
142	142	1
