177	177	3
23	24	1
102	117	2
163	163	2
138	176	1
189	189	5
78	78	3
22	79	1
25	28	1
68	68	3
153	153	1
115	115	3
151	153	1
133	133	2
156	156	3
161	161	2
14	14	3
32	33	2
132	132	3
7	7	3
140	140	4
19	20	2
57	114	1
18	18	2
10	11	2
63	67	1
144	144	3
113	114	1
191	192	3
98	98	4
182	183	1
98	99	1
70	71	1
114	136	2
36	36	5
159	159	2
149	149	1
125	125	5
66	66	2
81	83	2
102	178	1
103	106	1
124	124	1
101	101	1
30	31	1
114	114	2
126	126	4
129	130	1
117	117	3
3	4	4
28	30	1
72	73	1
63	66	1
48	48	3
4	4	1
115	116	1
51	51	1
43	44	1
196	196	5
49	50	2
5	5	1
56	56	1
73	73	1
82	82	1
105	105	1
0	3	1
149	150	1
80	80	2
84	84	2
36	37	1
33	33	2
81	82	1
97	168	1
67	67	3
16	16	1
48	189	4
194	194	3
38	38	3
111	112	1
100	101	1
43	43	6
167	167	2
69	69	1
25	26	2
116	130	3
18	20	1
28	28	1
120	122	1
24	24	2
178	179	1
160	165	1
95	166	1
17	17	2
107	114	1
147	175	1
174	174	2
67	73	3
171	171	1
84	85	1
35	35	3
94	94	1
119	120	2
186	186	1
141	141	3
79	80	1
110	110	1
161	172	1
34	34	1
59	59	4
57	57	2
77	78	1
70	70	5
11	11	2
65	65	1
163	177	1
61	62	1
122	178	1
76	76	2
15	17	1
192	192	1
161	174	1
79	116	1
3	5	1
30	30	1
88	88	3
148	149	2
132	133	1
175	176	2
23	23	2
168	168	1
162	163	1
83	83	2
151	152	1
131	132	1
119	119	4
110	180	1
112	112	1
26	34	1
127	127	2
0	0	2
5	61	1
69	169	2
58	58	2
14	16	1
195	195	2
134	134	3
41	93	1
188	189	1
185	186	1
60	60	1
176	176	3
63	63	3
103	105	1
103	104	1
64	66	2
85	85	2
187	187	3
20	20	2
0	5	1
108	108	2
6	6	1
164	170	3
1	4	1
60	62	1
169	169	2
3	3	1
133	134	3
111	111	2
62	62	2
107	184	1
46	46	3
196	197	1
17	18	1
9	9	1
112	186	2
164	164	2
54	54	4
64	65	1
10	10	1
81	81	2
96	96	2
147	172	1
121	121	2
13	66	1
190	190	1
41	41	1
12	12	3
8	8	1
86	86	2
164	166	1
120	120	3
50	52	1
187	188	1
123	124	1
139	140	2
166	166	3
105	173	1
22	23	1
138	140	2
12	72	1
1	3	1
106	106	3
66	70	1
37	37	1
105	141	1
129	132	1
150	150	1
49	49	1
47	47	2
34	81	1
64	64	1
146	146	1
56	57	1
53	194	1
136	136	1
40	40	2
109	110	1
21	21	2
142	142	1
55	56	1
114	120	1
143	144	1
27	27	1
151	151	1
55	55	2
122	122	1
42	77	1
107	136	1
31	71	1
118	118	2
58	60	1
178	178	3
183	183	1
99	101	1
115	159	1
175	175	1
31	31	2
137	138	1
33	34	1
170	170	2
147	150	1
121	122	2
87	113	1
24	87	1
87	87	1
144	173	2
180	180	1
184	184	2
152	152	2
25	25	1
67	85	1
117	118	1
71	71	1
108	143	1
172	176	1
113	113	1
138	138	1
13	37	1
69	73	1
148	148	3
162	181	1
166	167	1
174	175	2
139	139	2
102	102	2
37	141	1
30	32	1
9	171	1
131	131	1
190	192	1
118	161	1
97	166	1
42	43	1
10	50	2
46	47	1
34	79	1
136	137	1
147	148	1
89	89	1
10	13	1
52	52	1
115	151	1
185	185	1
183	184	1
121	126	1
36	146	1
104	108	1
57	59	1
53	53	1
159	160	1
116	116	1
73	74	1
7	8	1
126	132	1
