130	189	2
189	189	2
173	173	2
109	109	3
22	22	3
65	185	1
14	14	2
128	128	9
84	84	1
4	11	1
97	116	3
188	191	2
21	22	1
73	181	1
4	66	1
48	48	7
86	86	1
105	105	1
24	26	2
98	106	2
54	54	1
52	52	2
102	102	3
115	164	1
195	196	4
175	175	4
138	138	1
121	121	3
167	167	3
11	32	1
32	72	1
4	4	2
40	41	1
99	99	3
88	90	1
3	4	2
109	110	1
155	155	1
2	24	1
137	137	2
111	111	3
61	64	1
166	166	2
175	176	2
34	34	2
59	61	2
104	146	2
78	78	4
84	85	1
194	194	4
16	18	2
141	141	4
94	94	3
184	184	1
158	159	2
35	35	1
46	46	1
34	35	1
13	13	4
60	62	1
13	50	3
112	191	1
47	47	2
96	96	2
38	38	5
57	57	2
40	40	2
93	93	2
187	187	4
134	134	3
85	120	1
26	64	3
31	94	1
28	28	1
183	183	3
71	71	2
107	119	1
3	67	2
80	80	2
80	90	1
187	188	1
53	53	6
181	181	1
24	25	1
171	171	3
114	147	2
103	103	2
73	74	2
104	104	1
77	77	1
32	33	1
26	26	1
51	52	1
189	190	2
50	50	5
188	192	1
129	184	1
84	96	1
78	160	1
166	175	2
41	62	2
150	150	5
159	177	1
6	6	2
163	180	1
43	43	6
103	104	1
76	76	3
71	188	1
73	73	4
14	52	2
165	173	1
124	124	1
107	107	2
30	30	3
63	63	2
74	108	1
113	140	1
77	78	2
168	169	2
191	191	1
56	56	1
144	144	1
116	117	1
1	1	1
13	21	1
110	110	4
195	195	2
62	62	2
20	69	1
0	68	1
117	137	1
151	152	1
6	58	1
77	115	1
64	123	1
139	139	1
149	152	1
116	116	4
33	33	2
144	176	1
151	173	2
42	44	1
67	68	1
173	179	1
122	123	1
59	89	1
21	29	1
36	36	2
13	14	1
32	41	1
95	107	1
176	176	1
36	145	1
151	182	2
31	59	1
133	133	2
176	177	1
140	140	1
72	72	5
150	167	1
113	113	2
192	192	1
185	185	1
19	20	1
67	84	1
61	61	2
149	150	2
151	162	1
64	86	1
179	179	1
76	86	1
172	177	1
99	100	1
152	152	1
58	58	3
60	60	1
161	176	4
11	85	4
44	44	3
62	90	1
169	169	1
82	82	1
193	193	6
131	145	1
49	49	1
28	31	1
99	105	1
35	38	1
94	106	1
11	39	1
13	39	1
2	2	2
152	157	1
12	12	2
102	104	1
142	142	2
37	43	1
68	68	2
31	31	2
117	118	2
10	11	1
5	8	2
12	64	1
100	100	1
35	134	1
32	49	1
113	165	1
74	93	1
65	65	1
98	99	2
137	155	1
157	158	1
79	79	2
127	127	4
112	112	2
156	156	1
73	75	1
20	20	1
89	89	4
132	134	1
136	136	3
12	101	1
183	184	1
32	99	1
15	31	2
62	64	1
6	7	1
55	55	1
172	172	3
30	31	1
174	175	2
132	133	1
116	137	1
24	24	2
7	8	1
147	165	1
149	149	1
33	66	1
79	135	1
119	132	1
15	16	1
161	161	1
119	119	2
108	112	1
130	133	1
15	15	1
2	26	1
84	162	1
131	155	4
27	29	1
188	188	1
148	148	1
170	170	1
81	158	1
43	44	1
115	116	1
10	29	1
38	72	1
42	42	2
69	69	2
114	114	1
19	56	1
59	59	1
67	67	1
73	96	1
141	142	1
130	131	1
10	12	1
142	143	2
3	3	1
43	62	1
114	131	1
125	125	1
135	135	1
180	180	1
66	113	1
48	49	1
68	77	1
74	74	1
93	124	1
70	94	1
2	86	1
98	98	1
182	183	1
2	69	1
57	58	1
159	167	1
4	34	1
71	73	2
143	143	1
71	102	2
25	39	1
135	159	1
106	107	1
4	5	1
145	165	1
64	64	1
18	68	1
21	93	1
38	139	1
197	197	1
134	178	1
70	76	1
70	70	1
196	197	1
81	81	2
29	29	2
112	119	1
83	139	1
59	97	1
168	168	1
7	22	1
10	38	1
77	175	1
152	169	1
31	69	1
131	131	1
9	9	1
37	37	1
130	141	1
20	93	1
161	163	1
17	38	1
115	159	1
190	190	1
140	141	1
23	40	1
45	61	1
15	41	1
51	51	1
161	166	1
5	86	1
21	25	1
83	111	1
