220	220	2
94	100	1
157	157	3
96	96	6
77	77	2
51	64	1
26	26	4
210	210	8
187	189	1
73	75	2
159	171	1
221	221	3
168	168	2
232	232	3
170	172	1
61	62	1
244	244	1
40	40	3
86	94	1
91	96	1
45	46	1
16	16	6
32	43	1
159	160	2
114	114	2
21	84	1
118	118	9
189	189	1
159	227	1
177	177	5
158	198	1
96	97	3
171	171	1
222	225	1
190	221	1
166	207	1
8	8	6
91	91	2
206	212	2
98	103	1
90	90	3
169	169	2
227	231	1
18	18	1
3	3	2
225	225	3
237	237	3
191	191	2
43	43	6
80	80	2
29	196	1
242	242	1
89	89	5
203	203	2
205	211	1
238	238	2
150	150	3
7	7	4
193	193	1
212	212	1
110	110	2
236	236	2
9	9	1
60	61	2
61	61	2
153	153	2
95	95	4
45	45	6
104	106	1
24	24	6
48	50	1
11	11	4
59	59	2
83	83	3
5	5	1
157	158	1
223	223	3
207	207	1
112	113	2
144	145	1
145	242	1
23	84	1
147	147	4
50	57	1
159	196	1
186	221	2
239	239	1
50	56	2
79	86	1
212	215	1
109	109	2
39	40	1
108	108	2
182	183	2
163	164	1
199	199	1
39	39	1
35	35	2
214	214	4
71	71	5
204	204	2
86	86	2
107	107	2
55	55	3
216	216	1
162	205	1
74	98	1
202	202	3
38	117	1
82	96	1
17	17	1
116	116	2
211	211	5
87	87	1
215	215	8
25	25	2
20	25	1
37	37	3
17	19	1
117	117	2
34	34	2
113	113	2
160	160	2
204	205	1
158	158	2
155	155	1
28	32	1
97	98	2
92	93	1
103	103	1
243	244	3
120	120	1
188	188	3
47	47	1
222	222	2
166	168	1
114	231	1
43	44	1
23	23	2
68	69	2
42	230	1
36	36	1
104	104	1
172	172	1
227	229	1
77	95	1
165	245	1
183	183	1
67	68	1
64	64	6
219	219	1
79	79	2
112	112	1
159	159	2
166	205	2
31	31	2
190	199	1
151	151	3
74	74	2
173	173	3
189	190	1
6	6	2
180	226	2
88	90	1
170	170	2
54	55	2
8	9	1
38	39	1
14	14	5
22	22	1
185	190	1
196	198	1
84	84	2
35	36	1
167	169	1
47	48	2
179	187	1
4	4	2
167	170	1
247	247	1
194	194	1
215	217	1
218	220	1
28	28	2
72	86	1
111	111	1
74	97	2
68	68	2
205	205	1
105	118	2
195	196	2
230	230	4
158	159	1
218	218	2
106	107	1
177	178	1
245	245	2
92	108	1
20	27	1
145	211	1
235	235	1
215	226	1
78	78	2
172	173	1
82	82	1
179	179	2
220	224	1
6	7	1
197	237	1
206	207	1
38	233	1
201	213	1
57	57	1
99	104	1
73	73	1
231	232	1
76	78	1
48	91	1
87	191	1
176	176	2
228	228	1
36	41	1
202	243	1
75	75	3
93	94	1
196	248	2
92	92	1
77	82	2
33	145	1
13	13	1
12	12	3
101	105	1
116	168	1
194	195	1
197	197	1
98	98	1
152	152	2
240	245	1
238	240	1
121	121	1
15	16	1
154	154	2
1	1	1
40	152	1
167	178	1
32	32	1
77	93	1
159	195	1
206	206	1
167	167	1
166	166	2
200	200	2
48	49	1
220	223	1
246	246	1
71	74	1
161	162	2
36	57	1
40	41	1
153	156	2
38	38	2
34	35	1
10	32	1
54	65	1
88	88	1
24	29	1
36	37	2
87	88	1
30	30	1
119	119	2
156	166	1
157	183	1
21	56	1
27	27	1
77	78	1
164	164	1
214	215	1
234	234	1
46	48	1
18	19	1
116	119	1
14	18	1
226	226	1
248	248	1
160	164	1
33	33	2
3	19	1
85	85	1
10	25	1
181	181	1
70	70	1
215	216	1
17	18	1
210	211	1
100	100	1
208	208	1
231	231	1
106	106	1
0	0	1
233	233	1
78	79	1
236	247	1
116	117	2
191	194	1
22	244	1
240	240	1
108	115	1
93	93	1
19	19	1
3	54	1
109	110	1
58	58	1
192	192	1
81	82	1
68	74	1
80	81	1
243	243	1
34	114	1
28	30	1
201	201	1
27	28	1
