44	44	3
74	74	6
100	100	3
77	77	3
72	72	3
34	34	2
113	113	3
39	97	2
42	42	2
31	31	4
37	37	2
62	62	7
98	98	4
106	107	2
22	22	3
112	112	4
103	103	7
95	95	2
91	91	1
41	41	3
104	104	4
32	33	2
77	85	3
53	53	3
22	72	1
21	21	3
37	38	2
75	75	5
99	99	4
61	68	1
101	101	2
43	44	3
70	107	1
76	76	5
58	58	1
30	31	3
40	53	1
51	51	5
36	37	3
47	47	3
71	71	1
69	70	1
111	111	2
61	61	4
60	60	6
56	86	1
26	26	3
78	78	1
67	67	7
109	109	4
59	61	2
81	81	6
74	107	2
94	103	1
41	76	2
60	61	1
38	39	1
45	45	2
76	88	2
94	94	1
83	83	5
80	80	1
67	88	1
104	107	1
84	84	4
32	79	1
86	108	1
85	110	1
105	105	2
96	96	4
20	95	1
33	33	6
23	23	5
55	100	1
33	34	2
24	77	1
96	97	2
30	102	1
103	107	1
88	88	4
35	35	4
82	82	5
89	89	3
66	66	2
28	28	1
33	82	1
93	93	2
85	85	1
44	45	2
58	71	1
54	108	2
74	75	2
61	64	2
109	110	1
68	95	1
54	54	1
49	49	3
79	79	3
99	100	2
104	105	1
39	39	1
46	47	1
73	73	3
65	65	1
28	30	1
30	56	1
64	65	1
41	58	1
69	69	2
48	49	3
77	80	3
59	59	1
36	39	1
90	107	1
25	27	1
20	20	2
32	49	1
27	30	1
81	82	1
19	20	1
51	52	1
88	92	1
61	85	1
27	28	1
41	42	1
57	58	1
53	60	2
91	108	1
110	110	1
77	78	1
25	25	2
43	43	1
113	114	1
20	96	1
68	102	1
77	82	1
46	46	4
86	87	2
62	63	1
53	66	1
91	99	1
25	31	1
79	81	1
57	57	1
40	40	1
62	64	1
102	102	1
110	111	1
50	50	2
48	48	1
49	53	1
52	52	1
31	32	1
28	91	1
49	50	1
99	102	1
90	90	1
87	87	1
85	106	1
50	51	3
56	57	1
50	52	1
19	19	1
68	68	1
22	23	1
62	74	1
45	50	1
40	55	1
63	66	1
24	24	1
62	67	1
68	109	1
58	61	1
71	85	1
38	38	1
34	35	1
56	105	1
29	29	2
30	30	1
95	96	1
87	108	1
63	68	1
