225	227	1
9	10	1
7	8	2
45	46	1
100	223	1
156	166	1
133	133	2
52	52	2
138	138	1
20	20	4
67	68	3
220	220	7
114	114	2
173	173	3
103	103	2
71	71	3
180	180	1
37	37	1
211	211	2
64	65	3
0	0	1
75	75	1
140	140	3
15	15	1
14	14	3
17	18	1
26	26	2
158	158	2
18	18	2
141	142	4
170	170	1
107	133	1
209	209	2
222	222	3
173	175	1
43	43	3
58	58	2
235	236	1
5	13	2
151	151	3
122	123	5
35	36	1
131	131	3
71	72	1
95	212	2
8	9	1
86	86	2
239	239	2
142	142	1
219	220	2
10	75	2
116	116	3
215	216	2
159	159	2
104	105	1
232	232	3
168	168	3
53	53	2
18	19	1
217	218	4
167	167	1
202	202	2
232	233	2
238	238	2
113	114	2
227	227	4
62	64	1
156	156	2
119	120	1
153	153	1
213	213	2
190	191	1
197	198	3
49	49	1
74	74	2
114	115	2
48	48	2
36	36	2
122	122	5
97	97	4
44	47	1
10	10	3
2	2	1
5	5	2
25	25	4
101	101	4
54	54	4
143	143	3
180	181	1
68	68	2
203	203	2
240	241	2
208	224	1
57	57	3
121	122	1
214	214	6
235	235	2
74	75	2
104	104	1
3	3	2
13	108	2
4	167	1
65	65	1
101	102	2
204	204	1
19	19	1
206	206	3
147	147	2
236	236	1
80	81	1
42	42	4
230	230	3
107	107	1
1	1	3
63	63	3
61	65	2
66	85	1
216	216	1
78	78	2
70	238	2
179	183	1
187	189	1
9	69	1
188	188	4
137	137	1
106	106	2
148	148	1
174	174	3
139	139	6
195	195	2
160	160	3
121	121	1
108	108	1
6	209	1
195	196	1
240	240	1
56	56	2
119	123	1
66	66	4
153	159	1
32	32	1
102	106	2
51	54	2
171	171	3
114	118	2
67	67	1
81	83	1
156	157	1
237	237	1
99	222	1
172	172	2
194	194	3
39	39	1
139	159	1
117	117	2
177	177	1
162	206	2
72	196	1
170	190	1
6	6	4
199	200	3
171	191	1
55	55	2
51	51	2
163	163	2
85	86	2
230	231	1
158	159	1
73	73	3
135	208	1
69	69	2
20	48	1
196	196	2
30	30	4
57	59	1
68	80	1
154	154	1
33	70	1
111	111	2
185	192	1
73	78	1
206	207	1
149	149	1
9	9	3
229	229	2
17	17	4
217	217	1
3	9	1
90	105	1
102	102	1
137	158	3
45	45	2
53	58	1
181	215	1
16	16	1
120	120	1
105	105	1
219	241	1
64	64	3
123	123	1
165	165	1
228	228	1
38	39	1
219	219	1
3	22	1
210	210	1
215	215	2
177	199	1
12	140	1
130	132	1
12	16	1
226	226	3
137	162	1
28	28	2
219	231	2
2	23	1
224	226	1
42	46	1
154	157	2
155	187	1
134	134	2
209	210	1
228	235	1
200	201	2
46	46	1
193	195	1
207	207	3
2	3	1
197	199	1
12	13	2
152	159	1
100	100	2
8	47	1
182	216	1
85	85	1
189	189	1
197	197	1
187	187	2
119	119	2
208	208	2
27	27	1
135	135	1
242	242	2
209	222	1
0	236	2
141	141	1
182	182	2
176	241	1
120	121	1
56	133	1
42	60	1
157	157	1
218	218	2
21	21	1
198	198	3
169	169	4
103	105	1
167	169	1
61	61	1
116	124	1
146	148	1
81	81	1
31	31	2
70	70	2
99	99	1
96	96	1
128	128	1
128	129	1
210	226	1
100	109	1
83	84	1
32	33	1
59	59	2
34	34	1
49	56	1
56	57	1
125	205	1
33	33	1
113	113	1
178	178	1
77	79	1
194	195	1
60	60	1
179	179	1
226	227	1
201	202	1
217	224	1
11	11	1
152	152	1
110	110	1
40	41	1
231	231	1
88	88	1
138	139	1
139	143	1
62	62	1
10	74	1
166	166	1
175	189	1
8	11	1
43	44	1
214	215	1
218	239	1
10	96	1
224	224	1
13	15	1
109	109	1
102	224	1
19	49	1
