27	27	3
40	57	2
51	51	2
16	183	2
31	31	4
177	177	6
23	23	4
16	16	5
196	197	1
192	192	3
11	203	2
81	82	1
222	225	1
51	117	1
36	36	1
74	74	3
60	62	1
39	202	1
92	92	6
52	52	2
222	222	2
154	154	4
93	93	2
168	187	1
68	69	1
46	46	5
195	227	1
49	49	2
213	213	1
245	246	1
201	201	2
40	40	5
178	178	1
237	237	3
50	77	1
194	194	1
22	22	1
168	172	1
160	160	1
43	43	1
79	105	1
162	162	1
4	4	4
184	184	1
43	44	1
221	221	4
227	227	2
6	6	4
48	48	3
236	237	1
1	2	1
171	181	2
201	205	2
191	192	2
2	3	1
111	145	1
187	189	1
216	216	2
190	191	2
91	100	1
49	50	2
32	32	2
62	62	1
207	207	5
25	25	5
33	33	5
202	202	2
231	231	1
13	13	2
228	228	2
95	95	1
223	223	5
60	60	1
57	58	2
229	229	1
221	225	3
175	180	1
78	78	3
105	170	1
70	102	1
190	190	2
98	98	1
189	227	1
196	213	1
230	230	2
69	69	3
171	171	1
66	66	1
168	168	6
82	82	2
179	245	1
240	240	1
56	59	1
18	19	1
176	176	2
164	197	1
204	221	1
117	117	2
157	157	1
155	155	2
182	182	2
61	61	1
73	73	2
215	215	2
2	51	2
92	93	1
48	51	1
205	205	2
193	193	4
3	4	1
179	183	1
86	86	2
105	105	2
7	7	2
8	8	1
24	24	1
214	215	2
7	29	1
199	199	2
41	147	2
6	10	2
164	164	2
227	244	1
37	37	1
52	59	1
239	239	4
150	151	1
226	226	2
99	101	1
19	19	3
120	120	1
188	188	1
167	167	3
99	117	3
113	181	1
202	235	1
242	242	2
159	159	1
149	159	1
50	50	1
96	99	2
214	214	1
151	152	2
38	40	1
241	243	2
41	41	2
170	179	1
59	59	1
58	99	1
47	54	1
111	113	1
111	111	2
54	56	1
90	104	1
80	190	1
64	65	2
224	224	2
106	106	2
210	211	1
169	169	1
87	87	1
0	0	1
112	145	1
210	231	1
39	39	1
203	203	2
94	94	5
45	174	1
189	195	1
93	150	1
112	112	1
147	170	3
224	233	1
84	85	1
21	21	2
104	104	2
238	238	2
85	174	1
187	187	1
204	207	1
198	198	1
55	157	1
25	26	1
217	219	1
200	220	1
90	90	2
152	159	1
170	199	1
50	51	1
204	210	2
186	197	2
162	163	1
177	178	1
76	90	1
68	113	1
210	210	2
6	28	1
31	37	1
172	181	1
247	247	3
100	100	3
47	48	1
218	237	1
42	42	1
15	208	1
184	185	1
115	115	4
187	188	1
72	72	2
113	119	1
204	204	1
3	3	2
232	232	2
78	89	1
67	68	1
244	245	1
220	220	1
173	173	1
5	5	2
11	11	2
165	166	1
38	39	1
69	70	2
96	98	1
243	243	1
73	74	1
161	161	2
64	64	2
206	207	1
95	96	1
2	2	1
58	58	1
154	234	1
69	104	1
80	86	1
51	54	1
34	34	2
91	91	1
235	236	2
13	14	2
1	18	1
47	50	1
244	244	2
110	150	1
236	236	1
99	109	1
189	189	1
26	26	1
55	55	1
170	170	1
171	175	1
191	191	1
166	166	1
203	207	1
241	242	1
68	180	1
159	160	1
78	90	1
150	181	1
4	5	1
176	177	2
113	113	1
209	209	1
145	152	1
65	65	1
204	206	1
60	63	1
103	104	1
75	75	1
120	223	3
18	18	2
150	155	1
101	150	1
79	98	1
96	96	1
180	180	1
81	81	1
245	245	1
195	195	2
194	227	1
203	204	1
109	110	1
65	186	1
53	110	1
169	245	1
159	183	1
219	220	1
215	237	1
70	71	1
91	92	1
183	229	1
116	116	1
66	94	1
75	76	1
10	230	1
51	52	1
232	233	1
12	12	1
176	196	1
119	207	1
86	87	1
233	233	1
119	119	1
4	50	1
107	107	1
9	9	1
