42	42	1
33	33	3
63	63	2
114	114	1
34	124	1
61	61	5
35	35	2
17	21	1
130	131	1
68	68	3
115	115	2
134	134	5
117	117	4
82	82	2
72	72	2
117	118	2
99	99	3
4	4	2
95	95	3
23	23	2
57	110	1
30	30	1
90	116	1
98	98	3
133	134	1
89	89	2
85	85	1
32	52	2
16	16	2
78	87	1
7	7	3
133	133	6
122	122	1
119	119	4
5	5	4
114	130	2
52	54	1
71	71	3
86	117	2
120	121	2
63	64	1
78	91	1
125	125	2
69	71	2
116	116	1
19	53	1
50	112	1
51	51	1
127	129	1
76	76	4
49	49	1
27	27	3
37	37	2
67	67	3
14	14	3
66	66	3
64	64	2
80	80	4
0	0	2
86	86	3
131	131	2
132	132	2
83	84	2
128	128	2
18	20	1
74	74	2
108	113	1
65	66	3
5	34	1
115	118	1
61	62	1
15	15	5
2	3	2
121	121	4
23	44	2
104	105	1
44	52	2
3	55	1
107	107	5
84	84	6
8	17	1
8	35	1
25	29	2
115	116	2
54	55	2
69	69	2
11	12	1
62	81	1
13	13	3
97	97	1
79	79	2
33	34	3
43	43	3
46	46	1
19	43	1
58	58	1
49	54	1
31	32	1
31	33	2
6	7	1
108	115	1
113	113	3
87	88	1
25	67	1
36	36	3
103	103	3
88	88	1
6	6	2
69	70	1
9	9	2
56	56	2
11	11	1
108	108	3
107	108	1
60	63	1
2	2	2
19	61	1
91	92	1
52	52	1
127	135	1
78	78	4
32	32	2
90	90	2
129	129	2
52	61	1
106	120	1
104	104	2
45	124	1
85	86	1
111	111	2
75	75	2
47	47	1
31	31	1
15	38	1
21	22	2
45	45	2
68	69	1
19	19	2
34	34	3
91	91	1
128	129	1
124	124	1
106	106	3
7	10	1
18	18	1
55	67	2
70	70	3
1	24	1
65	65	2
3	5	1
83	83	3
89	90	1
101	101	1
109	109	3
120	124	1
28	30	1
15	30	1
62	62	1
50	55	1
17	17	1
1	111	1
96	98	1
111	115	1
110	111	1
1	2	1
99	125	1
29	29	3
10	23	1
6	8	1
22	23	2
118	118	2
13	35	1
108	112	2
79	96	1
0	14	1
4	43	2
59	122	1
100	101	1
124	125	1
1	1	3
25	25	1
58	71	1
95	105	1
47	76	1
16	89	1
37	83	1
11	21	1
62	87	1
105	105	2
100	114	1
107	120	1
30	31	1
112	121	2
37	38	1
77	77	3
8	8	2
20	20	1
56	127	2
126	129	1
75	76	1
85	117	1
15	36	1
77	126	2
81	81	1
21	21	1
52	53	1
125	126	1
70	91	2
27	32	1
92	92	1
50	50	3
6	12	1
108	110	2
79	80	1
112	112	2
127	128	1
87	87	2
23	25	1
36	67	1
9	29	1
17	38	1
119	121	1
118	119	1
57	57	1
82	113	1
26	26	1
78	130	1
3	3	1
17	25	1
56	57	2
86	102	1
57	86	1
2	9	1
9	10	1
48	48	1
71	113	1
87	111	1
102	102	1
84	86	1
74	99	1
28	28	1
71	88	1
103	104	1
44	44	1
74	97	1
93	115	1
59	59	1
33	104	1
107	118	1
20	43	1
24	24	1
79	99	1
