39	70	2
1	1	1
16	160	1
110	110	3
56	56	7
75	75	3
76	80	1
99	99	4
138	146	4
46	90	1
146	146	2
54	54	3
123	123	6
45	45	5
148	168	1
9	9	6
98	99	2
154	155	1
68	68	5
155	155	5
128	132	2
47	48	2
119	120	3
166	166	5
48	48	6
15	15	3
146	151	1
101	101	4
42	42	2
100	106	1
48	56	1
95	95	3
134	159	1
77	81	1
92	92	4
43	44	1
84	84	5
25	90	1
21	21	4
17	17	1
126	126	5
138	139	1
0	3	1
10	10	4
166	168	1
114	123	1
154	156	1
82	82	3
39	163	1
47	47	10
130	130	8
55	55	2
13	13	2
63	77	1
46	46	5
68	84	1
119	135	1
116	116	4
156	156	8
20	21	1
94	94	2
119	119	1
90	90	6
9	10	3
40	40	4
114	135	1
11	11	9
170	170	2
35	36	2
145	145	5
5	5	9
25	25	1
89	90	3
0	0	5
111	122	1
105	105	5
100	103	2
38	44	1
22	22	4
66	66	6
144	167	1
106	106	3
4	4	5
120	120	6
132	132	4
128	129	1
76	77	1
97	99	2
143	143	5
131	131	2
69	84	1
165	165	2
69	70	1
74	74	1
37	39	1
103	103	4
64	64	8
14	15	1
57	58	2
102	103	3
41	41	4
115	132	1
24	25	2
63	64	3
52	52	8
115	115	4
148	148	3
158	158	2
87	123	1
149	161	2
151	151	4
14	14	3
147	147	2
35	35	3
160	160	4
8	167	2
88	90	2
13	106	1
121	122	2
134	148	1
118	147	1
20	20	1
57	57	4
148	169	1
10	58	1
154	154	5
83	83	3
51	64	2
142	143	1
144	144	3
96	96	4
41	160	1
25	33	1
136	143	1
157	157	4
76	76	3
58	58	1
11	12	1
53	78	1
49	54	2
69	69	4
46	76	1
129	129	7
130	131	1
133	153	1
137	159	1
27	27	4
12	12	4
156	159	2
142	142	2
86	87	2
159	159	5
144	161	1
80	80	4
129	130	3
17	63	1
26	140	1
90	92	1
54	93	1
87	115	1
112	114	1
4	8	1
114	114	3
96	129	1
167	167	5
137	137	1
25	26	1
43	43	4
125	125	2
111	111	6
86	86	2
54	55	2
49	49	6
70	95	1
145	146	3
16	156	1
70	70	3
6	16	1
71	71	4
138	144	1
85	85	1
16	16	4
92	116	1
34	34	4
82	83	1
91	143	1
112	112	3
73	79	1
97	97	4
162	162	1
74	75	4
65	65	4
121	121	3
117	126	1
121	134	1
113	113	1
7	7	2
17	57	1
140	141	2
93	93	1
90	91	2
23	23	4
108	119	1
84	101	1
131	146	1
135	135	4
8	8	3
6	6	5
144	145	1
33	33	2
19	19	5
72	73	2
140	140	4
7	52	1
45	57	1
24	24	1
44	44	4
68	101	1
143	144	2
50	51	1
134	134	1
25	110	1
9	58	1
66	81	1
95	133	1
122	122	4
107	108	4
97	127	2
133	134	2
38	38	4
3	3	1
18	20	1
62	68	1
94	104	1
121	150	1
109	109	2
107	107	1
51	55	1
83	135	2
131	145	1
139	139	2
5	6	2
161	162	1
90	126	2
15	19	1
127	127	4
68	95	1
41	42	3
49	62	1
57	62	3
83	112	1
146	147	1
117	117	3
94	95	2
99	100	1
91	91	2
140	153	1
6	7	2
70	94	1
117	119	1
123	129	1
64	65	1
21	24	1
130	149	1
53	53	5
123	124	2
49	69	1
125	162	1
77	77	4
120	142	1
152	152	2
101	114	1
81	127	1
120	123	1
53	61	1
37	44	2
161	161	3
70	85	1
116	149	1
109	110	1
46	77	1
12	48	2
42	43	1
74	83	1
136	152	2
104	104	2
149	149	1
131	132	1
0	1	2
8	90	1
164	164	3
87	87	1
46	62	1
62	62	1
134	146	1
76	89	1
49	50	1
149	150	1
70	92	1
120	121	1
72	72	2
137	142	1
108	108	2
117	128	1
86	94	1
128	128	4
112	121	1
48	49	3
164	170	1
70	102	1
138	138	1
143	166	1
74	100	1
69	73	1
119	152	1
92	130	1
81	81	3
79	80	1
97	102	1
36	37	1
137	138	1
35	37	1
78	78	4
47	70	2
56	57	1
163	165	2
100	100	3
116	167	2
141	141	2
136	136	3
39	39	2
27	158	1
144	166	1
93	124	1
87	116	1
130	157	1
52	66	1
112	132	1
91	93	2
125	126	2
134	135	1
20	53	1
33	79	1
57	75	1
133	133	3
136	137	1
80	81	1
83	120	1
67	67	2
24	86	1
156	157	1
22	23	1
93	94	1
75	76	1
3	53	1
50	50	1
117	118	2
138	159	1
105	139	1
2	16	1
117	122	1
99	106	1
17	18	1
27	38	1
109	111	1
113	146	1
120	124	1
164	167	1
5	170	1
22	135	1
114	152	1
93	140	1
103	122	1
2	2	1
96	97	2
83	84	1
129	151	1
63	63	1
92	155	1
141	161	1
71	74	1
150	150	1
148	156	2
124	124	1
14	88	1
18	21	1
73	73	2
38	39	1
84	85	1
89	89	1
70	84	1
79	79	1
153	154	1
161	166	1
69	95	1
67	71	1
37	37	1
37	108	1
19	20	1
13	14	2
140	163	1
144	164	1
160	162	1
122	123	1
149	159	1
79	85	1
78	79	1
88	88	1
13	34	1
118	122	1
8	26	1
144	146	1
67	81	1
2	38	1
155	160	1
72	75	1
85	103	1
4	58	1
68	71	1
92	97	2
26	26	1
95	98	1
5	56	1
120	126	1
159	169	1
87	167	1
80	83	1
18	18	1
68	69	1
118	118	1
103	104	1
40	65	1
80	82	1
28	28	1
