143	143	1
12	14	1
124	125	1
139	148	1
17	18	1
45	45	3
22	22	1
47	48	3
33	33	1
95	95	3
74	74	1
113	141	1
13	13	4
42	85	2
108	110	1
47	47	2
87	87	3
43	43	2
85	132	1
99	99	3
142	142	2
5	5	2
76	76	2
144	154	1
122	122	2
40	40	7
84	113	1
95	96	1
105	108	1
106	117	1
6	6	2
70	71	1
22	28	1
133	133	1
108	108	5
106	106	5
128	129	1
99	100	1
140	144	1
53	111	2
36	66	2
71	71	3
54	55	1
78	78	4
20	20	1
7	7	2
132	132	3
20	72	1
55	55	2
76	84	1
42	42	2
77	79	1
129	134	2
76	77	1
23	23	1
31	31	1
139	139	2
128	128	1
42	43	1
73	109	1
137	137	3
8	12	1
101	103	1
124	127	1
98	99	1
57	84	1
141	141	1
125	125	1
62	63	1
97	99	1
101	104	1
124	124	1
36	36	2
152	152	1
88	88	1
135	143	1
70	76	1
115	146	1
92	92	1
8	8	1
51	51	1
62	64	1
100	100	1
73	83	1
58	58	1
19	53	2
80	80	1
122	142	1
103	103	1
5	8	1
93	96	1
101	108	1
49	49	2
68	68	2
6	7	1
95	97	1
11	11	2
41	53	1
137	139	1
22	65	1
104	104	1
28	29	2
33	34	1
13	18	1
137	138	1
91	91	1
21	21	1
37	37	1
52	52	1
77	154	1
112	112	2
54	88	1
23	24	2
17	17	2
66	66	1
31	32	2
104	107	1
24	49	1
38	39	1
98	98	1
107	107	3
46	46	2
117	117	1
150	150	1
138	138	1
18	48	1
19	19	1
25	25	2
6	8	1
86	86	3
17	62	1
20	21	1
34	35	1
38	38	3
97	98	2
57	58	1
24	38	2
26	26	1
129	129	1
11	65	1
44	44	1
149	151	1
33	39	1
97	97	1
94	94	2
113	113	1
125	126	1
19	38	1
153	154	1
117	149	2
15	15	1
21	69	2
123	128	1
152	153	1
79	84	1
2	3	1
15	16	1
76	79	1
94	96	1
102	138	1
120	120	1
110	112	1
30	31	1
69	69	2
108	119	1
85	109	1
9	27	1
104	110	1
33	37	1
48	48	1
24	24	1
19	20	1
28	28	1
10	10	1
115	116	1
149	152	1
54	87	1
65	71	1
81	81	1
18	18	1
