31	31	4
47	47	4
60	60	5
40	80	1
21	21	7
24	25	1
30	32	2
74	74	14
51	57	1
31	32	4
84	84	4
64	64	9
41	41	2
86	86	6
102	102	4
24	24	10
56	56	4
58	58	2
96	96	5
31	90	2
46	47	1
25	25	4
99	99	1
53	54	2
21	64	1
50	50	3
36	36	1
95	95	9
57	58	4
57	57	3
54	54	6
47	79	1
45	47	1
87	87	3
25	27	1
39	82	1
35	35	5
77	77	6
34	34	4
63	63	2
28	30	3
78	78	9
85	97	1
92	92	4
68	68	5
42	42	4
83	84	2
26	26	7
22	22	3
43	44	1
50	61	1
88	88	6
42	54	1
100	100	4
61	61	7
38	51	1
82	83	3
97	98	1
46	46	4
23	23	6
36	41	1
89	90	1
66	67	2
100	104	1
42	44	2
79	80	2
61	62	3
101	101	6
94	103	1
59	63	2
89	89	6
23	24	1
66	66	4
20	58	1
71	71	9
30	31	1
70	70	4
79	79	7
49	58	1
97	97	4
55	58	1
29	29	3
67	68	1
91	101	2
24	54	2
24	61	1
44	47	1
98	99	5
72	72	3
38	95	1
35	70	1
32	32	7
62	63	3
53	53	6
36	39	1
51	51	3
49	49	2
23	64	1
29	43	1
94	104	1
25	43	1
20	21	2
25	54	1
42	43	4
52	52	5
87	100	3
65	65	5
31	35	1
75	75	2
103	103	2
95	96	2
73	73	5
46	52	2
90	90	5
68	69	4
55	69	1
29	30	3
69	69	7
38	40	1
80	80	3
27	28	1
91	91	3
93	93	2
44	44	2
59	59	1
25	29	3
48	48	2
73	77	1
41	43	3
43	46	1
45	49	1
104	104	4
38	39	1
49	56	1
69	77	1
48	60	1
94	95	1
50	101	1
51	53	3
89	96	1
20	20	1
69	106	1
76	77	1
49	53	1
34	37	1
72	98	2
40	92	2
28	88	1
26	28	1
54	56	3
60	83	1
57	74	1
36	77	1
74	75	1
41	49	1
45	45	2
22	67	1
69	70	1
46	88	1
74	93	1
21	61	1
38	38	3
23	78	1
31	72	1
72	75	1
81	81	6
26	97	1
107	107	1
33	33	3
30	30	4
40	40	2
42	85	2
37	37	1
76	100	2
106	106	2
67	86	1
100	103	1
21	27	1
85	86	1
27	27	2
51	52	2
32	71	1
47	49	3
41	42	2
25	42	1
55	79	1
100	101	1
62	62	6
39	45	1
37	38	2
106	107	1
90	91	1
78	82	1
41	102	2
22	23	1
71	72	2
45	69	1
57	61	1
99	101	2
74	99	1
58	59	1
46	48	2
32	81	1
35	55	1
43	49	1
26	30	1
63	73	1
47	56	1
105	106	2
76	76	1
105	107	1
92	93	1
55	55	2
83	85	1
97	99	3
65	93	1
31	46	1
20	80	1
52	80	1
95	99	1
59	60	2
93	100	1
104	105	1
65	82	1
82	82	1
45	107	1
55	56	2
43	60	1
43	43	2
82	85	1
38	49	1
65	67	1
85	85	1
98	98	3
105	105	2
67	67	1
53	55	1
25	26	1
25	40	1
55	64	1
33	37	1
36	100	1
50	64	1
41	46	1
39	92	1
33	63	1
47	52	1
102	103	1
79	95	1
88	91	1
21	29	1
39	39	1
32	66	1
52	102	1
57	79	1
89	91	1
88	98	1
23	65	1
53	59	1
49	62	1
46	56	1
27	30	1
40	42	1
56	57	1
85	90	1
59	64	1
80	98	1
86	95	1
84	96	1
39	41	1
40	41	1
28	46	1
