13	23	1
56	58	1
210	211	1
195	195	2
66	66	2
121	149	1
102	169	1
205	205	2
44	45	1
114	114	1
164	164	2
31	33	1
101	101	2
79	79	3
224	224	5
25	25	4
81	82	1
80	138	1
240	240	4
175	178	1
113	113	2
180	180	1
138	138	2
183	226	1
119	119	3
168	229	1
29	29	1
139	206	1
51	51	3
63	63	3
218	225	1
25	193	1
225	227	1
121	131	3
106	106	1
211	211	2
156	156	3
148	148	1
117	125	1
235	236	2
53	56	1
190	190	2
20	20	3
165	165	2
217	217	1
212	212	1
180	236	1
76	77	1
142	154	1
1	33	1
155	165	1
55	55	2
130	137	1
139	139	1
71	77	1
187	229	1
208	209	1
69	74	1
9	13	2
12	14	1
125	125	2
24	24	3
164	166	1
182	182	1
107	115	1
30	30	3
13	14	2
108	119	1
102	102	2
199	199	2
134	135	1
147	147	2
71	120	1
111	113	1
183	183	2
155	155	2
68	68	3
25	54	1
234	235	2
239	240	2
34	34	1
60	69	2
7	11	1
75	76	1
220	220	2
121	191	1
232	232	2
48	48	1
228	237	2
158	158	4
129	129	2
173	173	2
198	198	3
206	230	1
226	227	1
237	237	1
190	200	1
120	120	1
219	225	1
45	86	1
225	225	2
67	82	3
230	230	4
242	242	2
3	3	1
80	82	1
8	191	1
57	57	1
77	77	1
9	73	1
65	65	3
83	83	1
27	27	2
210	210	1
219	219	4
7	7	1
102	103	1
19	203	1
21	21	1
8	8	3
31	31	3
144	145	1
4	5	1
200	212	1
15	19	1
144	189	1
238	238	2
115	115	3
23	23	1
148	149	1
184	224	1
189	189	2
118	169	1
141	155	1
41	79	1
119	200	1
197	197	2
176	176	2
64	64	2
185	187	2
45	45	1
150	151	1
159	169	1
34	87	1
31	75	1
79	103	1
221	221	2
105	105	1
142	149	2
85	85	5
34	35	1
86	105	1
117	142	1
100	100	2
36	81	1
154	206	1
160	193	2
187	237	1
204	204	3
100	213	1
5	56	1
104	104	1
145	145	2
216	216	1
187	228	1
42	42	4
152	153	1
140	141	2
236	236	1
101	102	2
146	151	1
39	39	2
167	169	2
129	130	1
95	96	1
149	149	1
47	47	1
202	202	2
235	235	1
183	199	1
137	139	1
71	71	1
13	46	1
207	207	1
0	0	2
145	187	1
185	185	1
44	219	2
137	138	1
138	140	2
129	181	1
181	181	1
75	75	2
82	83	1
59	60	1
78	84	1
189	190	1
163	163	2
103	164	2
38	38	1
150	150	1
186	187	1
129	137	1
74	74	1
164	221	1
226	239	1
20	242	1
133	133	1
186	186	2
11	11	1
164	173	1
72	72	1
7	64	1
229	229	1
70	108	1
223	223	1
108	165	1
15	15	3
5	21	1
118	148	2
36	64	1
58	58	2
175	175	1
99	100	1
158	160	2
186	189	1
39	54	1
193	193	2
188	208	1
50	50	1
118	118	1
182	203	1
24	25	1
234	234	1
192	193	2
213	223	1
61	62	1
15	17	2
2	19	1
92	103	1
20	21	1
119	125	1
33	99	1
15	39	1
126	127	1
9	9	2
169	169	1
12	43	1
85	170	1
177	218	1
36	56	1
18	18	2
130	130	1
196	220	1
37	38	1
144	144	1
46	46	2
8	74	3
209	209	1
224	225	1
78	78	2
160	191	1
21	22	1
107	167	2
177	201	1
151	206	1
82	82	1
122	124	1
15	41	1
193	206	1
143	178	1
166	166	1
228	235	1
60	60	1
190	204	1
112	112	1
104	162	1
96	96	1
88	88	1
29	107	1
39	136	2
27	48	1
99	101	1
98	98	1
171	171	1
95	100	1
0	5	1
106	113	1
61	150	1
136	141	1
109	109	1
203	203	1
239	239	1
55	127	1
40	40	2
122	125	1
187	212	1
120	166	1
1	239	1
162	162	1
53	53	2
97	97	1
22	22	1
76	76	1
175	183	1
195	196	1
123	123	2
59	104	1
26	28	1
135	161	1
113	145	1
177	177	1
4	4	1
179	179	1
212	228	1
51	54	1
217	218	1
5	5	1
178	178	1
170	170	1
176	227	1
120	182	1
0	38	1
137	146	1
159	159	1
217	235	1
65	124	1
