35	42	1
104	105	1
115	115	1
114	115	3
35	35	1
38	38	2
70	70	1
24	24	2
105	105	3
152	155	1
99	99	1
111	112	2
17	18	2
111	113	1
12	143	1
117	117	3
1	1	2
132	132	1
96	96	3
105	121	1
33	33	2
121	121	1
85	110	1
14	14	5
49	49	1
43	43	1
62	63	1
78	80	1
115	123	1
82	84	2
15	17	1
8	8	3
9	39	1
141	141	2
82	94	1
84	85	1
34	34	1
120	144	1
111	111	3
113	114	1
112	116	2
152	152	1
142	142	1
64	64	1
80	80	1
54	54	1
92	94	1
2	2	1
44	44	1
13	35	1
127	134	2
51	51	1
18	18	1
43	83	1
39	39	2
19	34	1
65	66	1
84	84	2
20	20	1
86	87	3
138	138	1
129	129	2
86	86	1
9	18	1
84	114	1
89	89	4
81	110	3
150	150	3
103	103	4
131	134	1
83	144	2
37	37	2
52	52	2
115	120	2
130	131	1
134	136	1
154	154	1
71	96	2
48	89	1
20	103	1
128	129	1
36	36	1
151	151	2
146	146	1
66	69	1
83	84	1
143	143	1
131	131	1
81	82	1
137	137	1
27	40	1
16	17	1
108	108	1
116	117	1
89	90	2
148	148	3
47	66	1
93	93	3
9	9	1
68	68	1
98	98	1
19	20	2
29	29	1
25	25	2
80	125	1
64	73	1
133	133	1
41	41	1
78	78	3
21	24	1
127	133	1
81	98	1
88	145	1
138	141	1
20	149	1
66	66	1
15	15	1
98	99	1
5	5	1
153	153	2
125	125	2
82	113	2
28	28	1
124	124	1
142	144	1
147	147	2
46	46	3
26	28	1
77	77	2
19	88	2
121	122	1
102	102	2
7	9	1
120	120	1
98	106	1
61	156	1
84	155	1
36	37	1
4	4	1
5	45	1
86	88	1
84	88	1
79	79	1
105	106	1
87	87	1
118	145	1
19	29	1
100	100	3
4	109	1
32	32	1
67	70	1
53	123	1
140	140	1
85	86	1
65	103	1
45	46	1
0	98	1
149	149	1
94	96	2
70	84	1
47	47	1
56	69	1
127	127	1
57	62	1
113	113	1
82	82	1
22	23	1
106	106	1
2	3	1
36	43	1
17	137	1
73	73	1
31	31	1
154	157	1
153	154	1
103	149	1
123	123	1
17	102	1
3	12	1
158	158	1
3	3	1
14	64	1
97	97	1
14	18	1
118	118	1
101	133	1
38	70	1
83	83	1
107	108	1
51	52	1
40	40	1
