91	91	5
99	99	12
86	86	4
93	93	3
92	94	2
84	84	4
34	34	3
41	41	10
83	83	9
88	91	2
66	66	8
61	81	3
73	73	10
85	99	1
77	77	3
87	88	3
74	74	5
94	94	7
52	63	2
75	75	13
65	65	9
85	85	5
55	55	5
95	97	1
99	100	2
67	67	6
25	25	4
101	101	4
29	29	5
74	78	1
83	84	2
40	40	6
69	71	2
55	56	1
52	52	6
34	35	2
27	27	3
54	61	1
50	51	2
52	85	2
36	37	2
53	63	1
61	88	2
98	98	2
28	28	2
58	73	1
89	90	2
48	50	1
33	33	8
66	67	2
31	31	3
68	68	2
51	51	5
43	43	5
44	66	1
80	80	7
67	68	2
69	69	7
76	76	3
69	79	1
96	96	9
87	89	1
48	49	1
71	71	3
21	31	2
59	59	6
60	66	1
95	95	5
73	78	1
49	49	5
100	100	2
98	100	1
54	54	3
61	61	3
26	36	2
67	69	1
52	77	2
45	52	1
49	50	2
60	60	5
63	63	4
61	62	1
97	97	4
62	62	4
59	72	1
57	57	4
92	92	2
69	102	1
79	101	2
69	70	1
78	101	2
87	87	3
81	88	1
81	81	5
70	70	4
72	72	5
69	74	1
61	101	1
90	91	2
22	96	1
53	64	2
64	64	8
54	86	1
78	78	3
39	95	2
89	89	2
42	43	1
95	98	1
66	101	1
61	73	1
58	89	2
79	79	3
46	46	3
49	78	1
53	55	1
31	63	1
86	89	2
47	88	1
32	34	1
35	88	1
36	54	1
34	72	1
34	39	1
63	89	1
26	34	1
66	77	1
84	85	1
66	73	1
44	44	2
53	54	3
62	96	1
34	78	1
49	59	1
50	81	1
26	26	3
74	75	1
56	56	1
26	29	1
37	37	2
62	76	1
35	85	1
93	100	1
39	39	6
54	55	1
69	96	1
48	48	2
31	48	1
45	51	1
56	63	1
29	55	1
82	99	1
38	78	1
54	60	1
58	60	2
36	39	1
49	55	1
35	35	2
81	82	2
80	81	1
96	99	1
70	71	2
37	48	1
45	49	1
48	51	1
33	34	1
56	67	2
86	88	3
20	38	1
35	36	1
66	68	1
42	45	2
40	57	1
25	26	2
88	88	3
57	65	1
34	77	1
26	28	1
26	27	1
65	66	2
60	62	1
94	101	1
22	22	2
53	57	1
24	24	1
42	50	1
47	47	2
61	68	1
63	65	1
58	59	1
20	57	1
58	58	1
87	95	1
77	92	1
101	102	1
32	35	1
37	85	2
60	80	1
32	32	1
50	62	1
94	95	1
30	30	1
32	50	1
62	100	1
32	47	1
97	98	1
52	74	1
102	102	2
51	52	1
90	90	1
25	82	1
93	99	1
61	72	1
55	70	1
20	47	1
24	36	1
42	42	1
68	73	1
76	77	1
28	47	1
95	96	1
79	90	1
63	90	1
