127	127	3
173	173	3
92	98	1
11	11	2
83	83	1
89	89	3
78	78	2
81	82	1
6	54	1
128	161	1
128	128	2
116	116	1
61	62	2
131	131	1
148	148	3
113	113	2
112	112	1
104	104	3
168	168	8
110	110	2
166	168	1
62	71	1
85	85	2
37	37	4
96	97	1
80	81	1
42	42	1
62	79	1
106	108	1
74	74	3
134	146	1
54	58	2
34	34	2
8	8	2
85	103	2
154	154	3
97	99	1
12	50	1
130	130	1
3	53	1
167	167	1
102	138	1
147	147	3
20	30	1
98	98	2
93	93	5
61	72	1
71	150	2
35	38	1
94	94	2
124	128	1
2	180	1
88	89	1
169	169	1
86	86	3
130	132	1
15	16	2
94	101	1
11	24	1
66	77	1
121	122	3
5	5	2
41	109	1
87	87	3
15	35	4
51	51	2
29	39	2
153	169	1
140	140	6
35	35	1
50	105	1
18	21	1
154	157	1
98	121	2
52	53	1
100	117	1
0	173	1
160	161	1
104	106	1
172	173	2
81	81	1
114	115	4
67	67	1
164	164	5
4	4	1
166	166	3
83	84	3
170	170	2
172	174	1
13	13	2
58	79	1
103	111	1
25	26	1
6	6	1
68	71	1
76	76	6
30	33	1
117	117	2
14	52	1
45	45	2
93	94	3
86	92	1
113	114	3
151	154	2
121	121	1
122	122	1
17	17	1
111	127	1
123	123	3
15	20	1
135	135	2
96	121	1
53	53	2
3	4	1
56	77	2
74	86	2
18	18	1
91	91	3
18	99	1
154	164	1
119	120	1
149	149	2
10	40	1
103	103	1
143	143	4
41	43	1
100	100	1
12	12	1
33	33	3
38	38	1
124	124	1
10	30	1
92	92	1
3	15	1
114	116	1
143	147	2
80	80	1
142	142	1
22	23	1
16	20	1
102	104	1
23	23	2
111	111	2
66	115	1
126	127	1
172	172	2
124	156	1
72	85	3
2	3	1
70	81	3
108	109	2
171	172	1
32	32	1
95	120	1
126	126	1
159	160	1
143	148	1
99	166	1
52	52	5
159	159	2
33	34	2
99	100	1
71	71	2
168	169	1
130	142	1
108	110	1
92	94	2
107	115	1
65	65	2
105	108	2
79	79	1
105	111	1
64	64	2
90	90	2
50	50	1
73	73	3
134	134	1
134	136	1
173	178	2
71	79	1
89	167	1
72	94	1
148	149	1
25	25	2
77	77	1
20	20	3
95	127	1
102	102	1
68	68	1
44	44	2
105	105	1
143	145	1
102	125	1
123	126	1
109	109	1
3	3	1
153	153	2
150	151	1
104	107	2
75	78	1
118	118	2
152	152	1
3	10	2
91	95	1
24	24	1
147	170	1
62	65	1
82	84	1
97	97	2
52	55	1
10	10	4
176	176	1
5	9	1
74	78	1
63	117	1
178	178	1
16	19	1
62	81	1
39	51	2
107	107	2
133	133	2
64	68	1
78	135	2
41	42	1
132	141	1
83	121	2
146	157	1
81	118	1
165	166	1
148	169	1
58	59	1
125	125	2
156	156	1
161	161	1
98	140	1
123	124	2
39	39	1
66	66	2
0	0	1
19	27	1
171	171	1
23	170	1
3	52	1
59	59	1
150	150	1
117	121	1
55	58	1
88	126	1
15	15	2
1	1	1
114	114	4
12	13	1
93	97	1
120	120	1
19	28	1
55	55	2
97	117	2
103	104	2
44	112	1
19	62	1
132	133	1
136	137	1
109	117	1
83	122	1
33	36	1
85	86	1
110	111	1
138	139	1
163	163	1
130	138	1
130	158	1
16	38	1
163	164	1
165	165	1
86	142	1
91	129	1
137	139	2
85	163	1
106	143	1
8	12	1
62	62	1
119	119	1
22	22	2
160	162	1
76	77	1
44	116	1
57	57	1
59	74	1
155	155	2
54	60	1
146	146	1
158	159	2
21	21	1
156	157	1
151	151	1
26	27	1
146	151	1
70	70	1
31	31	1
172	177	1
96	101	1
23	25	1
41	41	1
40	40	1
95	133	1
81	86	1
129	140	1
80	82	1
51	171	1
123	179	1
108	108	1
120	121	1
177	177	1
127	128	1
117	165	1
92	95	1
12	22	1
14	41	1
