1	1	2
57	58	2
89	89	1
61	61	1
105	105	1
118	118	1
50	50	4
116	125	2
120	120	2
97	97	5
19	44	2
88	89	1
124	125	2
7	9	2
86	94	1
117	128	1
28	29	2
68	68	2
66	68	3
2	78	2
131	131	2
130	131	1
21	21	2
30	129	2
31	32	1
33	34	1
16	23	1
30	30	1
77	84	3
2	61	1
5	6	1
98	98	1
27	27	2
94	94	1
119	119	6
65	122	1
20	46	1
104	104	5
65	96	1
79	86	1
81	81	2
122	122	6
45	45	1
96	96	1
72	102	1
102	102	3
56	114	1
84	84	1
25	25	3
77	110	1
91	108	2
65	65	2
71	77	2
100	100	4
124	133	1
19	21	1
88	98	1
44	132	1
36	44	1
106	106	3
70	101	1
113	113	1
82	83	1
107	107	2
21	74	1
28	31	1
134	134	2
79	80	1
130	130	2
120	129	1
43	43	1
71	105	1
35	35	1
106	110	1
83	110	1
32	52	1
9	9	2
36	37	2
66	110	1
121	122	1
82	82	3
3	3	1
77	77	3
64	64	2
80	80	1
112	112	3
83	83	1
60	96	1
1	34	1
79	106	1
16	16	2
31	31	3
2	2	2
3	86	1
0	0	1
69	69	1
92	102	1
110	110	1
123	123	4
85	85	1
91	98	1
18	35	1
128	128	2
114	133	1
6	6	1
102	109	2
17	17	2
103	103	3
111	111	1
59	59	4
128	129	1
96	116	1
67	91	2
119	125	1
11	31	1
82	84	2
108	109	1
1	59	1
6	27	1
106	119	1
72	72	2
83	84	1
60	61	1
27	35	2
52	52	1
60	60	1
130	133	1
27	28	1
94	95	1
81	127	2
20	21	2
65	68	2
125	125	3
17	19	1
9	17	1
64	65	2
43	44	1
12	12	3
23	69	1
116	118	1
28	28	1
84	115	1
33	33	2
16	20	1
12	21	1
76	76	1
11	93	1
78	78	1
113	132	1
88	88	3
74	74	2
66	66	1
19	29	1
133	135	1
77	121	1
6	7	2
18	29	1
58	58	2
106	113	1
11	28	1
78	83	1
5	49	1
62	94	1
19	34	1
95	95	2
1	84	1
10	10	1
129	131	1
2	43	1
99	112	1
76	123	1
35	38	1
53	66	1
126	126	2
114	114	1
16	17	1
123	133	1
32	32	2
34	34	1
10	28	1
86	109	1
26	26	1
67	67	2
92	92	1
63	63	1
92	128	1
16	21	1
92	120	1
132	133	1
33	54	2
99	118	1
13	15	1
28	128	1
92	93	1
59	83	1
52	63	1
127	128	1
17	18	1
93	94	1
24	24	1
86	86	1
79	87	1
56	58	1
62	63	1
55	58	1
22	22	1
107	109	1
36	43	1
93	93	1
112	113	1
2	3	1
70	70	1
92	133	1
129	129	2
95	132	1
13	13	1
131	132	1
100	122	1
87	88	1
56	57	2
49	49	1
45	92	1
14	14	1
73	74	1
100	102	1
4	4	1
80	126	1
91	91	1
26	36	1
8	8	1
122	123	1
7	70	1
112	119	1
71	71	1
84	109	1
22	23	1
90	90	1
73	73	1
117	117	1
