85	85	2
48	49	3
65	65	4
113	113	3
70	70	5
91	93	1
70	73	1
32	44	1
79	79	7
42	43	1
63	78	1
110	110	9
30	30	4
34	34	2
32	32	3
54	56	1
22	22	5
95	95	4
29	29	6
87	87	5
53	57	1
55	55	6
105	107	5
39	40	2
49	111	1
64	64	4
89	89	4
67	67	7
69	69	4
83	85	1
110	111	2
45	46	3
60	60	4
45	48	2
82	82	5
76	87	2
93	93	2
50	50	6
68	68	6
105	105	5
37	39	2
100	100	9
27	27	3
36	36	4
49	49	4
32	101	1
108	108	8
89	90	1
52	104	2
91	91	3
44	44	2
89	106	2
61	78	1
33	34	1
92	94	2
28	28	3
28	30	1
19	22	1
98	98	7
43	69	2
95	96	2
80	84	2
28	29	1
74	74	11
53	58	1
99	99	6
82	83	2
35	35	3
61	62	1
71	72	1
28	100	3
55	59	2
57	69	1
78	79	2
41	42	1
46	46	7
22	83	1
66	66	6
57	57	5
61	61	4
34	35	3
26	26	1
107	108	1
103	103	6
64	69	1
20	20	8
85	86	2
49	50	1
21	26	1
111	111	4
66	94	1
43	43	7
60	61	2
39	39	3
78	78	6
107	107	4
44	45	3
31	31	11
72	110	1
53	63	1
72	98	1
21	21	2
26	27	1
94	94	3
96	98	1
66	81	1
47	53	1
74	87	1
37	37	4
81	81	6
102	102	6
75	91	1
40	40	5
45	75	1
72	85	1
80	99	1
59	59	4
38	38	5
74	77	2
84	85	2
24	24	5
66	84	1
109	109	2
48	48	2
83	84	1
97	97	3
96	104	3
106	106	5
101	101	3
22	27	1
57	58	2
33	33	4
75	106	1
53	53	2
99	100	1
56	58	1
90	90	7
83	88	1
86	89	1
68	70	2
64	76	1
34	39	1
30	31	2
42	42	2
30	84	1
57	110	1
91	100	1
23	23	6
29	96	1
51	51	5
104	107	1
67	68	2
93	94	1
96	96	2
73	97	1
101	103	1
25	25	3
56	56	2
92	92	1
64	65	2
41	41	4
76	77	1
75	77	1
112	113	1
74	81	2
40	41	3
60	78	1
89	91	1
94	107	1
84	99	2
89	102	1
23	24	1
96	97	3
91	103	1
53	80	2
63	63	3
42	95	1
29	71	1
112	112	5
77	77	1
81	101	3
74	75	1
47	80	1
65	66	2
81	109	1
85	101	1
66	67	3
77	78	1
72	73	1
26	44	1
22	46	1
84	86	2
80	103	1
39	70	1
54	54	1
47	47	4
44	73	1
50	51	1
35	57	1
26	36	1
52	52	4
66	71	3
40	102	1
26	31	1
90	91	1
32	34	2
25	42	1
31	113	1
21	22	1
58	58	2
62	62	2
42	45	1
103	111	1
86	86	1
79	80	1
85	93	1
52	102	1
88	98	1
39	72	2
98	99	1
73	103	1
104	104	1
26	95	1
73	78	1
58	64	1
73	73	2
89	103	1
107	109	1
54	55	1
84	84	1
26	28	1
55	57	2
39	75	1
30	100	1
111	113	1
56	57	2
29	31	1
78	109	1
84	109	1
58	59	1
107	110	1
25	31	1
51	52	1
71	71	1
66	70	1
83	83	1
68	78	1
92	93	1
31	33	1
22	24	1
49	52	1
65	111	1
76	99	1
109	110	1
74	76	1
19	20	1
82	95	1
53	64	1
59	91	1
80	80	1
65	71	1
67	112	1
