77	79	2
135	136	1
168	168	1
85	85	3
40	114	1
28	29	1
170	171	2
25	25	4
145	145	5
67	67	1
63	63	2
62	62	3
35	79	1
136	177	1
64	65	1
69	69	1
105	105	3
194	195	2
214	214	1
187	187	2
206	206	2
147	148	3
60	60	5
231	231	5
7	8	1
75	75	2
225	226	2
231	233	1
82	82	2
201	201	2
49	50	1
55	56	1
21	21	3
140	141	3
6	12	1
78	80	1
24	24	1
31	31	1
160	161	2
227	228	1
10	10	4
148	149	1
195	224	2
55	55	3
17	17	3
46	46	1
97	98	1
30	31	1
12	13	1
95	95	2
61	61	3
235	236	2
103	104	2
123	123	2
179	185	1
22	23	1
110	110	1
125	125	1
199	226	1
16	16	2
2	2	1
198	198	1
49	49	3
154	175	1
106	106	3
127	127	3
129	169	2
229	229	1
9	10	1
197	197	3
159	197	1
38	38	3
47	160	1
51	52	1
64	64	2
150	150	2
57	57	2
19	19	2
219	220	1
28	28	5
135	135	1
174	175	2
178	179	2
154	155	1
172	172	3
215	216	1
216	216	3
36	55	1
105	108	1
143	143	4
233	234	1
159	190	1
235	239	1
230	230	1
53	53	3
47	48	2
196	196	1
242	242	1
205	206	1
208	208	4
155	158	1
47	62	1
202	202	4
207	237	1
33	34	1
209	209	2
20	20	3
25	38	1
47	85	1
117	117	1
191	191	4
115	120	1
209	211	1
66	66	1
44	46	1
24	25	1
195	195	1
13	14	2
139	139	1
72	72	1
161	161	2
144	144	2
86	86	3
183	184	1
194	194	3
4	5	1
214	215	1
65	65	1
117	122	1
181	181	2
26	26	1
163	164	2
27	28	1
16	84	1
183	203	1
29	29	3
234	235	1
177	177	2
47	47	3
122	122	3
27	27	2
36	39	1
109	109	2
53	54	1
43	46	1
141	143	2
135	139	1
170	170	3
39	39	2
57	58	1
178	178	4
137	137	1
134	177	1
221	222	2
131	131	1
67	69	2
83	84	1
2	21	1
104	104	3
160	160	3
180	181	1
176	177	1
13	15	1
24	178	1
224	225	1
204	210	1
204	225	1
12	113	1
217	234	1
3	161	1
153	154	3
42	42	1
19	74	1
118	118	2
221	240	1
41	41	1
9	169	1
179	180	1
120	127	1
134	141	1
220	220	1
211	211	1
236	237	2
74	74	2
138	141	1
221	221	2
179	179	2
232	232	1
241	242	1
219	219	1
108	108	2
125	126	1
180	180	1
134	165	1
34	34	1
11	11	2
237	237	1
9	9	1
148	148	4
66	67	1
52	52	1
22	22	1
3	3	1
68	111	1
168	169	2
50	50	1
74	75	1
148	167	1
59	59	1
235	235	1
33	33	2
178	182	1
15	15	1
148	177	1
233	233	1
202	204	2
105	109	1
60	61	1
154	154	2
48	56	1
170	172	1
183	183	1
203	232	1
152	201	2
217	217	1
37	38	1
145	146	1
125	127	1
149	150	1
119	120	1
24	96	1
115	121	1
168	176	1
117	118	1
12	12	2
182	182	1
178	189	1
25	26	1
140	140	1
58	58	2
99	99	2
115	122	1
149	151	1
143	146	1
31	34	1
30	30	2
5	5	1
7	9	1
0	0	2
84	84	1
114	114	1
67	85	1
107	107	1
167	167	1
17	20	1
217	229	1
161	167	1
209	210	1
226	226	1
183	212	1
140	153	1
228	229	1
220	222	1
12	21	1
175	176	1
45	45	1
97	97	1
81	81	1
51	51	1
81	82	1
138	167	1
225	225	1
149	149	1
148	152	1
122	123	1
19	34	1
10	12	1
52	56	1
