104	104	4
73	73	1
13	13	5
156	157	1
101	101	2
12	12	1
3	3	4
36	36	4
8	139	1
90	156	1
31	34	1
111	111	4
27	134	1
49	49	5
31	31	1
67	72	2
99	99	1
17	29	2
115	117	1
50	50	2
6	7	1
85	85	2
13	34	1
16	45	2
91	91	4
19	33	2
125	125	2
54	54	2
86	87	2
47	48	1
13	51	1
30	95	1
157	158	2
116	156	1
110	110	2
115	115	5
147	149	2
132	132	1
105	105	4
97	97	1
120	120	1
69	69	2
78	158	1
147	147	1
135	135	4
96	118	1
18	69	1
16	16	2
151	152	1
34	34	1
88	88	1
30	30	2
24	37	1
3	9	1
146	146	1
4	13	1
131	153	1
127	134	1
91	106	1
1	1	2
40	40	1
65	67	1
42	42	6
81	83	2
21	53	1
112	112	2
144	144	4
120	121	1
121	121	2
109	113	1
48	55	1
8	11	2
19	42	1
46	46	3
82	82	2
35	36	1
10	10	3
78	78	2
28	135	1
83	95	1
71	71	2
52	52	6
24	45	1
158	158	3
49	82	1
111	112	1
125	151	1
118	118	3
138	138	6
107	107	2
117	141	1
103	104	1
80	80	1
47	47	1
68	68	1
29	29	6
11	38	1
22	22	3
95	106	1
4	10	1
95	96	2
154	154	2
40	85	1
130	131	1
34	46	1
112	113	1
158	159	1
41	41	2
10	51	1
128	129	2
19	19	2
86	86	1
10	11	1
67	68	1
30	89	2
84	85	1
84	114	2
99	101	1
5	10	1
138	139	1
70	71	1
27	41	1
23	141	1
131	131	1
21	31	1
28	48	1
128	128	1
91	96	1
117	139	1
92	106	1
146	147	1
41	123	1
65	65	3
44	44	2
15	119	2
2	2	3
114	114	1
133	133	2
21	29	1
131	133	1
127	127	1
39	121	1
51	53	1
130	130	1
147	154	1
33	33	2
148	156	1
110	111	1
75	75	2
89	89	2
37	37	1
18	36	1
85	113	1
123	124	3
15	15	1
100	104	1
98	98	2
122	125	1
35	35	3
90	90	2
23	23	2
138	148	1
6	6	1
150	151	2
118	121	2
62	63	2
145	145	1
40	42	1
109	109	1
4	9	1
143	143	1
107	108	1
138	151	1
24	24	1
63	63	1
148	155	2
94	94	1
148	148	1
38	38	1
108	112	1
37	135	1
77	87	1
155	155	1
95	97	1
43	43	1
18	19	2
86	94	1
48	97	1
1	2	1
13	64	1
80	82	1
51	51	2
31	53	1
157	157	1
113	113	4
73	74	2
42	43	2
30	81	1
126	126	2
48	48	1
104	141	1
102	102	1
93	94	1
56	57	1
39	107	1
27	48	2
80	114	1
14	79	1
18	73	1
5	5	1
110	135	1
5	38	1
55	55	1
31	42	1
35	39	1
82	87	1
122	146	1
17	17	1
25	25	2
23	130	1
15	19	1
32	32	1
35	41	1
88	94	1
94	95	1
132	137	1
37	38	1
104	135	1
126	145	1
32	45	1
13	49	1
150	150	1
124	126	1
26	27	1
79	154	1
67	67	1
52	55	1
66	131	1
114	115	1
87	87	1
89	153	1
109	118	1
15	18	1
120	140	2
81	86	1
24	26	1
19	31	1
82	154	1
73	96	1
16	17	1
