38	91	1
75	75	4
99	99	5
66	66	1
82	82	5
29	32	2
81	81	2
30	31	2
63	63	2
103	103	3
82	113	1
25	40	1
96	96	5
33	35	1
101	101	3
24	24	2
76	94	2
78	78	5
28	28	6
62	62	3
100	100	2
63	89	1
48	48	3
93	93	3
74	74	4
43	44	1
102	107	1
70	71	1
41	41	5
87	87	2
45	48	1
102	102	4
76	77	1
30	30	4
28	38	1
42	42	8
44	44	4
34	34	3
104	104	6
85	86	4
94	96	2
70	70	2
21	21	6
89	89	1
46	46	3
53	58	1
109	109	3
99	113	2
50	51	4
86	112	1
114	115	2
20	20	1
76	76	5
85	98	1
45	45	7
35	89	1
98	98	3
26	27	5
111	111	5
59	59	3
50	50	3
91	96	1
26	28	1
74	75	1
35	39	1
27	27	4
105	105	3
92	94	2
67	67	3
104	106	1
92	92	4
106	108	1
65	65	4
91	91	3
82	83	2
59	60	3
58	59	3
26	26	6
91	92	2
27	29	1
69	69	6
95	95	5
53	53	2
58	60	2
58	58	3
40	77	2
20	21	2
108	108	5
41	96	2
39	39	1
57	57	3
43	43	2
35	35	2
31	31	5
38	38	4
106	107	1
99	100	1
55	57	1
54	56	2
51	51	3
80	109	1
28	31	1
90	90	1
61	86	1
49	49	2
114	114	2
32	32	4
115	115	2
51	52	1
105	106	2
50	53	3
80	81	1
19	19	1
87	89	1
57	58	2
79	79	1
37	37	2
54	54	2
36	36	7
56	56	5
39	40	2
33	33	3
113	113	3
77	99	2
60	107	1
62	63	1
56	57	3
81	89	1
77	77	4
47	47	2
85	85	5
71	71	6
61	109	1
103	104	1
40	41	1
71	73	1
82	91	1
100	102	1
67	92	1
110	110	2
55	55	4
72	72	1
27	28	1
48	49	1
33	34	1
22	22	3
80	80	2
61	61	3
101	105	1
29	29	1
40	92	2
80	93	1
83	84	1
20	100	1
67	93	1
104	105	1
106	106	1
60	60	1
81	88	1
21	22	1
65	66	2
95	98	1
84	90	1
64	76	1
110	111	1
25	25	3
83	83	1
80	100	1
92	93	1
40	40	1
92	96	1
78	82	1
83	87	1
39	90	1
107	108	1
107	107	3
90	97	1
25	27	1
112	113	1
91	94	1
77	103	1
67	68	1
76	104	1
64	65	2
47	73	1
64	75	1
50	52	2
47	49	1
100	101	1
71	72	1
97	97	1
108	109	4
52	52	1
22	25	1
37	106	1
54	55	1
73	74	1
55	56	2
112	112	1
24	112	1
71	78	1
21	30	1
61	88	1
68	69	1
74	113	1
58	61	1
97	102	1
90	98	1
20	22	1
62	87	1
98	102	1
96	98	1
24	25	1
35	37	1
94	95	1
33	94	1
84	87	1
77	78	1
84	84	1
79	112	1
62	65	1
71	96	1
38	39	1
71	97	1
100	103	1
47	97	1
84	85	1
