71	98	2
54	54	2
124	151	1
73	95	2
81	81	2
30	40	1
42	43	1
57	74	5
27	35	1
117	117	3
9	11	1
138	138	2
123	134	1
38	38	4
30	30	2
49	49	2
47	47	6
29	29	1
99	152	1
106	106	1
98	143	1
122	122	2
37	37	4
147	147	2
46	47	3
22	72	1
113	114	2
32	50	2
103	103	1
31	31	2
118	118	4
140	141	1
107	107	5
98	98	6
39	39	4
24	24	1
133	149	1
8	8	2
103	104	2
88	146	1
9	9	2
144	144	2
25	25	1
149	152	1
82	82	1
53	53	2
28	29	1
67	70	1
11	11	4
37	38	1
90	113	1
66	80	3
130	133	1
66	66	3
76	87	2
112	112	3
6	33	1
97	97	3
68	68	3
48	72	2
45	45	3
4	4	2
16	66	1
71	80	2
130	130	3
146	146	1
119	119	5
86	143	3
150	150	2
93	130	1
37	82	2
67	67	1
117	134	1
33	44	2
145	148	1
40	53	1
70	138	1
81	84	2
76	76	1
34	58	2
36	36	4
22	23	1
47	49	2
14	15	1
17	17	4
131	131	2
93	94	1
63	63	1
68	102	2
100	127	1
137	137	5
9	32	1
98	107	1
14	69	1
121	122	1
102	142	1
115	117	1
15	20	1
99	148	1
5	6	1
19	19	1
19	23	1
106	107	2
93	137	1
22	22	2
13	13	5
98	113	1
96	96	2
41	51	1
23	23	3
95	99	1
153	153	2
2	2	1
116	124	1
131	136	1
40	40	2
142	142	1
102	103	1
122	136	2
151	151	2
38	42	1
145	150	1
116	116	1
10	10	1
90	98	1
129	129	1
39	47	1
132	132	1
131	132	1
46	46	5
116	132	1
127	132	1
20	38	1
90	90	1
124	124	3
154	154	1
12	12	2
149	149	3
95	104	1
84	113	1
106	125	1
138	146	1
8	9	2
25	66	1
35	72	1
17	18	1
73	73	1
43	45	3
119	122	1
5	5	2
143	143	1
137	146	2
84	84	2
73	74	1
7	8	1
80	82	1
38	44	2
7	7	1
27	27	1
79	84	1
68	69	2
100	101	3
25	26	1
85	134	1
70	70	1
18	18	2
64	64	1
131	137	1
62	64	1
21	21	1
64	66	1
76	86	1
126	134	1
16	29	1
75	82	1
64	73	1
94	96	1
78	88	1
93	93	1
101	101	1
72	92	1
3	7	1
29	30	1
71	71	3
33	34	1
103	107	1
103	106	1
50	50	1
83	97	1
108	108	1
22	67	2
97	141	1
37	40	1
106	124	1
120	141	1
54	64	2
56	57	1
32	32	1
19	84	1
83	83	2
55	109	1
51	51	4
14	14	1
37	84	1
4	7	1
119	136	1
67	78	1
135	139	1
63	73	1
3	72	1
135	135	1
38	148	1
57	65	1
35	36	1
4	5	1
86	113	1
127	127	2
68	79	1
85	85	1
49	53	1
54	87	1
68	107	1
102	152	1
76	96	1
139	149	1
13	19	1
88	94	1
15	15	2
45	73	2
35	88	1
94	95	2
102	131	1
120	142	1
43	46	1
109	110	1
48	48	1
75	93	1
95	95	1
67	69	1
77	84	1
45	46	1
42	117	1
65	108	1
