138	138	4
77	79	1
132	132	3
80	80	3
155	155	6
123	123	2
97	99	2
51	51	4
6	6	8
134	172	1
17	18	1
85	85	3
163	163	4
103	103	2
42	42	3
160	160	4
56	56	3
153	156	1
31	31	4
36	36	4
82	82	2
50	50	4
118	118	3
174	174	6
88	94	1
56	58	1
134	179	2
14	14	4
59	59	2
85	86	3
64	64	4
108	108	2
14	117	2
102	102	7
93	94	5
9	9	6
133	171	1
162	162	4
148	154	2
65	65	2
2	3	5
8	8	4
19	20	1
126	137	1
73	73	5
136	170	2
150	150	3
43	60	1
158	158	5
121	123	1
25	25	2
28	28	2
58	58	3
107	107	3
173	173	1
72	72	9
100	150	2
18	18	3
45	45	5
119	119	7
31	37	1
53	54	2
164	164	5
175	175	6
133	133	6
24	24	3
53	92	1
178	178	3
38	38	2
146	152	1
131	131	5
71	71	6
83	84	2
2	5	1
104	120	1
35	35	8
153	153	5
43	43	5
116	116	8
134	134	1
95	95	4
35	116	1
170	170	2
78	78	1
68	68	2
170	171	1
54	54	4
179	179	4
92	92	5
35	36	1
33	34	1
15	15	2
143	143	6
98	98	6
77	77	1
67	68	1
65	118	1
66	66	5
11	11	4
91	91	2
61	61	8
142	142	8
156	156	11
41	41	6
0	59	1
40	42	2
115	143	2
100	101	2
127	127	1
53	53	9
168	168	3
107	108	1
108	109	1
167	167	3
13	13	2
44	62	1
104	104	1
130	130	2
76	76	7
33	33	3
125	126	1
171	171	5
97	98	1
58	63	1
109	109	2
67	80	1
149	149	10
96	96	2
63	63	2
9	39	1
122	122	2
16	16	3
104	145	1
172	172	7
147	147	1
129	129	1
87	160	1
140	140	5
11	12	1
36	37	1
29	29	4
37	37	2
161	161	1
126	127	1
136	136	7
0	77	1
35	105	1
167	169	1
83	83	1
13	36	1
88	88	4
175	176	1
107	110	1
148	173	1
10	10	3
0	0	3
122	123	1
117	117	3
86	87	1
86	89	2
142	143	2
143	148	1
123	138	1
10	51	1
93	93	2
124	124	7
144	144	1
40	40	4
27	30	1
100	100	3
52	52	2
165	165	2
5	6	2
67	67	4
148	148	5
66	67	2
55	55	6
168	169	2
125	138	1
79	80	3
27	27	1
126	126	8
42	43	1
87	87	2
12	12	2
105	105	5
157	157	5
149	150	2
100	110	1
112	113	2
139	139	7
166	166	1
89	89	1
43	115	1
61	62	2
63	90	1
58	59	4
154	154	4
90	90	3
121	122	1
70	70	1
122	124	1
137	137	6
75	75	3
151	162	1
82	89	2
123	125	2
141	141	1
1	1	1
99	99	2
81	84	1
20	42	1
2	2	3
4	4	1
63	64	1
169	169	4
159	160	3
172	175	1
30	31	1
0	138	1
109	114	1
73	78	2
13	117	2
113	113	1
157	158	3
34	34	1
86	86	4
13	14	2
77	78	1
145	145	6
111	145	1
43	65	1
119	151	1
149	175	1
54	55	2
88	89	2
60	62	1
57	85	1
32	32	2
39	44	1
133	172	2
89	90	1
118	148	1
79	79	2
176	176	3
119	120	2
14	15	1
161	162	1
131	134	1
152	152	3
149	173	1
14	55	1
94	94	3
155	159	1
84	85	2
55	56	1
81	82	1
114	114	3
110	110	1
135	170	1
73	74	2
112	115	1
49	49	1
127	132	1
71	96	1
150	160	1
137	179	1
17	39	1
44	44	1
74	74	4
138	169	1
66	118	2
32	65	1
154	155	1
63	86	1
101	124	1
133	168	1
151	152	1
60	60	4
64	90	1
118	127	2
110	157	2
54	57	2
97	97	1
110	111	2
115	118	1
117	118	1
39	39	1
135	135	2
84	86	2
103	176	1
125	153	1
132	133	1
38	39	1
144	155	1
24	37	1
14	114	1
98	115	1
134	171	1
0	1	1
78	159	1
57	57	3
151	151	1
35	41	1
162	165	1
2	4	1
115	116	1
159	159	1
12	91	1
59	60	1
32	64	1
111	111	1
60	61	1
81	81	2
104	105	1
79	167	1
63	84	1
34	41	2
88	90	1
127	128	1
13	127	1
11	51	1
65	74	1
72	73	1
115	115	1
57	58	1
72	79	1
17	17	1
46	46	1
32	33	1
16	17	1
110	112	1
91	92	2
177	177	1
126	131	1
128	128	1
52	53	1
146	146	1
163	166	1
27	31	1
128	129	1
105	106	1
121	121	3
124	128	1
134	176	1
105	107	1
125	130	1
10	11	1
143	156	1
124	138	1
76	77	1
106	106	1
112	112	1
160	167	1
143	145	1
139	169	1
144	145	1
116	117	1
19	28	1
22	22	1
86	92	1
139	171	1
38	42	1
78	79	1
52	84	1
17	20	1
9	10	1
137	142	1
