85	86	2
112	112	7
107	112	1
94	95	1
56	56	3
53	53	1
35	35	4
101	102	2
62	65	2
12	69	2
121	121	2
63	63	7
106	106	5
28	29	1
125	125	2
48	48	1
73	98	1
47	47	1
116	116	5
52	52	1
5	5	3
77	77	1
107	108	1
79	79	2
24	24	5
5	88	1
23	23	4
75	75	2
111	111	3
68	85	1
86	92	2
84	85	1
4	4	2
93	93	1
123	123	1
126	126	2
109	112	1
117	117	2
12	12	5
91	91	1
54	54	1
113	115	2
124	124	2
85	90	1
11	11	5
3	122	1
16	24	1
82	98	1
122	124	1
94	103	1
55	55	3
108	108	2
101	101	5
82	82	1
90	90	3
81	81	1
88	88	2
72	72	4
54	122	2
119	120	1
74	74	3
133	133	2
12	66	2
21	21	2
130	131	1
33	33	4
119	121	1
20	21	1
2	2	4
89	90	1
25	97	1
83	83	4
63	76	1
97	97	2
28	28	1
127	127	2
3	3	1
120	120	3
112	116	1
45	45	3
55	60	1
64	64	1
16	42	1
86	86	1
7	7	2
69	69	4
53	54	1
54	60	1
42	44	1
6	14	1
19	20	1
4	10	1
43	43	2
132	133	1
32	32	1
61	61	1
93	95	1
87	87	1
73	73	1
105	105	7
110	110	5
8	8	3
18	21	1
9	9	2
13	14	1
69	129	1
84	84	2
99	102	1
10	10	3
12	92	1
60	64	1
15	15	1
118	119	1
131	131	1
96	97	2
109	109	2
126	127	1
64	123	1
130	130	2
119	119	3
1	1	3
58	59	1
94	94	2
52	53	1
85	85	2
16	17	1
31	32	1
78	82	2
104	104	2
50	50	3
84	111	1
92	92	3
58	58	1
65	68	1
70	70	2
49	123	1
30	96	1
6	6	2
89	89	1
14	14	1
99	99	1
80	80	1
99	111	1
84	86	1
100	100	2
118	118	1
0	9	1
87	120	1
129	130	1
27	51	1
71	71	2
83	86	1
128	130	1
44	44	2
114	114	1
33	34	1
36	36	3
52	108	1
128	129	1
76	76	1
45	52	1
70	81	1
34	34	1
30	30	1
31	31	1
10	43	1
66	66	2
107	107	1
46	46	1
30	44	1
100	131	1
17	17	1
15	16	1
20	33	1
13	13	1
63	90	1
20	23	1
122	122	1
22	23	1
55	131	1
12	13	1
106	107	1
76	78	1
103	104	1
98	98	1
79	99	1
96	96	1
28	33	1
