98	98	2
39	39	2
117	127	2
40	42	3
108	109	1
72	140	1
143	143	3
121	122	1
36	82	1
0	22	1
141	141	3
67	67	1
44	58	1
88	88	2
11	35	1
114	115	1
29	29	3
62	62	2
137	141	1
19	19	2
58	60	1
153	154	2
33	43	1
138	139	2
91	109	1
163	164	1
4	140	1
165	166	1
155	155	3
40	40	2
151	151	5
31	46	1
78	79	2
27	27	2
77	108	1
144	144	3
144	157	1
132	132	3
38	38	1
4	8	1
140	145	1
92	92	1
44	45	2
45	45	1
138	142	1
41	41	1
5	6	1
101	121	1
170	170	2
67	68	3
102	102	3
28	46	2
66	66	4
136	136	2
177	177	4
67	70	1
117	117	3
46	46	1
131	131	2
44	159	1
9	57	1
65	65	2
93	105	1
133	133	1
82	113	2
50	53	1
149	150	3
2	2	3
107	107	1
83	87	1
11	11	1
9	9	1
106	106	3
79	82	1
59	59	1
163	163	2
12	141	1
148	149	1
31	31	1
150	150	3
176	176	2
95	95	7
93	93	4
41	43	1
37	37	4
55	55	4
83	143	1
109	109	2
4	21	1
11	26	1
114	114	2
96	96	5
173	174	1
58	61	2
25	26	1
37	65	2
14	14	2
167	167	2
137	137	4
151	152	1
84	84	1
113	145	1
124	124	3
168	168	2
61	62	1
126	127	1
123	125	1
21	21	1
153	153	9
25	25	2
7	7	1
27	39	1
122	122	2
178	178	1
43	93	1
62	145	1
83	83	1
107	168	1
118	118	1
17	22	2
106	114	1
100	101	1
12	50	1
64	64	3
113	114	1
139	150	3
11	63	1
15	16	1
10	10	1
5	5	3
17	18	1
64	173	1
92	105	1
63	91	1
123	123	3
129	129	2
1	1	3
13	13	3
80	80	2
129	135	1
127	127	4
26	30	2
91	91	2
85	140	1
156	163	1
102	112	1
28	43	1
132	143	1
55	64	1
157	166	1
164	164	3
76	76	1
135	135	1
26	27	1
93	94	1
87	87	1
54	64	1
63	85	2
59	60	2
159	159	1
98	112	1
5	52	1
8	46	1
79	107	1
19	20	2
174	174	4
22	29	1
99	115	1
81	81	2
0	0	3
127	128	1
141	142	1
63	136	1
88	133	1
115	116	1
125	125	2
115	115	7
100	100	1
145	157	1
94	132	1
50	146	1
62	63	2
76	77	1
54	54	3
144	159	1
179	179	3
67	95	1
17	17	2
75	75	2
52	52	1
110	110	2
157	157	1
171	171	1
29	38	1
15	15	1
81	98	1
12	12	1
26	26	2
5	34	1
8	8	1
20	72	1
81	83	1
49	102	1
154	154	1
12	13	2
32	32	3
65	137	1
143	146	1
38	100	1
82	82	1
51	51	1
91	92	1
4	4	2
157	158	1
3	7	1
160	161	1
54	55	1
30	30	3
80	154	1
35	78	1
135	169	1
118	125	1
57	57	1
114	125	1
99	100	1
36	36	2
87	90	1
134	134	2
103	105	1
2	24	1
20	44	1
116	116	1
174	175	1
113	113	3
131	132	1
132	133	1
79	79	1
20	20	2
28	28	1
111	113	1
130	131	1
103	103	2
50	62	1
66	138	2
90	90	1
13	14	1
137	139	1
52	115	1
110	115	1
56	161	1
4	20	1
17	83	1
95	150	1
14	26	1
136	137	2
8	21	1
117	148	1
85	153	1
167	169	1
139	139	1
43	86	1
49	49	1
166	166	1
23	23	2
5	8	1
35	35	1
72	72	2
1	26	1
6	6	1
64	91	1
5	13	1
98	102	1
10	13	1
177	178	1
2	4	1
53	107	1
173	173	2
4	5	1
157	174	1
73	73	1
88	90	1
108	108	1
23	56	1
120	163	1
24	24	1
58	63	2
0	42	1
131	138	1
134	136	1
170	175	1
106	137	1
148	148	2
115	123	1
78	80	1
112	112	1
111	112	1
111	127	1
56	88	1
101	148	1
6	7	1
175	176	1
53	54	1
146	166	1
180	180	1
154	155	1
94	94	1
11	16	1
2	5	1
30	103	1
97	97	2
51	106	1
80	87	1
145	146	2
91	105	1
74	74	1
3	3	1
100	103	1
31	42	1
126	126	1
43	43	1
102	105	1
86	147	1
169	169	1
53	53	1
99	103	1
131	159	1
101	101	1
133	175	1
96	97	1
16	30	1
