66	67	4
169	169	5
89	90	1
68	173	2
123	123	4
99	100	2
125	153	1
50	122	1
65	65	7
60	60	8
50	51	2
152	152	7
135	135	6
91	93	2
67	111	1
110	111	3
91	94	2
35	90	1
154	154	4
59	60	2
62	94	1
132	168	1
56	56	8
52	81	1
104	106	1
113	129	1
122	145	1
26	27	2
142	142	8
143	143	7
173	173	1
27	27	6
19	20	1
64	64	4
20	24	1
45	45	4
66	66	4
145	145	3
58	58	9
140	140	4
160	160	3
151	151	3
142	168	1
68	68	5
150	150	12
78	78	5
55	56	2
67	67	7
137	139	2
114	118	1
70	70	4
67	143	1
91	92	2
86	89	1
112	113	2
58	62	1
85	85	1
137	157	1
38	38	3
88	88	11
59	59	4
64	82	1
168	168	3
100	100	3
158	165	1
1	18	1
77	77	3
80	80	3
120	120	3
95	95	6
101	135	1
117	117	4
118	118	4
55	55	5
179	179	1
155	161	3
137	160	1
103	103	1
132	132	4
145	155	2
172	172	5
6	6	4
28	62	1
23	23	4
102	106	2
23	24	1
135	136	1
14	37	1
92	99	1
3	10	1
15	30	1
9	32	1
51	51	8
71	71	5
61	62	1
54	75	1
121	157	1
126	126	1
9	9	3
162	162	6
113	113	2
16	16	2
157	167	1
119	119	6
35	36	1
139	139	2
51	116	1
75	75	2
116	117	4
21	21	3
167	168	2
24	25	2
23	41	1
52	52	1
62	62	4
82	82	4
5	5	2
122	122	2
10	11	1
90	117	1
110	110	3
2	2	3
124	125	1
101	101	7
165	177	1
110	114	1
62	96	1
123	125	3
126	149	1
61	61	4
126	163	1
111	115	1
151	158	1
97	98	2
80	81	2
94	94	3
98	98	4
54	92	1
6	7	1
145	151	1
26	29	1
147	147	3
142	143	2
138	138	6
129	129	1
165	165	3
42	42	6
30	30	1
132	158	1
72	72	3
5	6	2
155	155	2
33	33	4
131	131	5
168	169	1
81	95	1
127	129	1
59	135	1
143	144	2
22	22	3
128	130	1
83	144	1
90	90	5
82	83	2
83	83	4
39	39	3
141	141	7
168	170	1
39	41	2
60	95	2
159	160	1
149	149	3
162	169	1
164	164	5
93	93	5
137	137	5
145	178	1
146	146	3
127	127	2
139	173	1
0	0	3
11	12	1
112	112	3
166	167	2
8	26	1
7	7	2
89	89	4
125	127	2
54	54	2
176	177	2
52	101	2
78	80	1
53	53	1
13	13	1
157	157	1
32	32	3
36	36	4
85	86	1
44	45	2
67	76	1
114	114	4
8	16	1
79	81	1
81	82	1
115	133	1
31	31	6
10	10	4
37	45	1
68	86	1
81	81	4
17	17	4
11	43	1
127	168	1
157	164	3
82	134	1
86	86	6
171	171	2
124	124	1
34	35	1
14	14	1
16	81	1
103	168	1
17	18	3
178	178	3
25	26	1
87	88	1
166	166	4
56	84	3
91	97	2
104	107	1
97	97	5
45	99	1
84	84	3
163	163	1
96	96	3
98	101	1
19	19	1
87	87	2
74	74	3
135	169	1
116	116	3
154	156	1
0	27	1
143	160	1
1	1	2
138	148	2
17	44	2
131	139	1
161	162	1
86	87	1
75	76	1
110	140	1
78	79	1
176	176	2
105	154	1
125	125	2
180	180	2
143	165	1
57	57	2
115	130	1
52	116	1
99	99	3
51	122	1
76	79	1
59	66	1
165	166	1
144	166	1
72	157	1
77	78	1
106	106	2
8	50	1
24	24	1
121	129	1
22	113	1
7	13	1
109	109	3
63	94	1
73	96	1
135	137	1
105	109	1
61	63	1
52	100	1
70	71	1
121	122	1
2	15	1
153	167	1
159	159	2
37	42	1
73	73	2
41	44	1
64	65	1
148	180	1
133	133	5
113	114	1
29	29	2
174	174	2
158	158	4
7	12	2
157	160	1
40	40	2
111	111	6
44	44	1
36	167	1
49	50	1
37	37	4
35	49	3
76	76	2
38	53	1
127	128	2
134	151	1
148	148	3
49	49	2
41	41	2
41	132	1
53	58	1
9	18	1
10	33	1
148	157	1
161	161	1
4	4	2
80	112	1
153	153	5
122	123	1
108	108	3
23	168	1
18	23	2
9	164	1
134	134	1
101	119	1
153	160	1
83	147	1
156	156	2
39	40	1
66	71	2
104	105	1
142	163	1
20	45	1
7	23	2
147	155	2
136	136	3
146	153	1
28	28	2
114	119	1
63	63	1
156	162	1
105	105	1
43	58	1
76	77	2
107	107	1
25	25	1
89	92	1
76	95	1
3	4	1
37	38	1
155	157	1
33	54	1
151	173	1
27	28	1
18	19	1
10	139	1
167	167	1
93	94	1
87	103	1
16	43	1
58	60	1
96	97	1
3	25	1
112	142	1
8	9	1
151	154	1
151	153	2
66	92	1
161	176	1
3	12	1
70	134	1
93	105	1
170	170	1
66	93	1
51	99	1
25	28	2
11	178	1
14	65	2
15	15	2
140	148	1
71	137	1
99	105	1
167	170	1
4	5	1
60	61	1
162	163	1
35	35	1
101	142	1
145	165	1
133	134	1
176	179	1
65	94	1
121	121	1
21	26	1
11	11	2
146	147	1
129	130	1
148	153	1
94	128	1
18	18	1
121	136	1
156	157	1
26	73	1
26	161	1
115	115	1
91	91	1
92	92	1
116	144	1
128	128	1
67	68	1
26	26	2
85	91	1
165	168	1
10	16	1
173	174	1
109	121	1
89	135	1
80	132	1
35	98	1
133	150	1
45	109	1
87	120	1
107	151	1
112	173	1
39	43	1
78	150	1
102	102	1
140	141	1
39	110	1
56	83	1
92	97	1
130	130	1
71	132	1
50	50	1
88	89	1
131	132	1
32	33	1
0	1	1
20	111	1
110	126	1
15	28	1
94	96	1
51	56	1
104	113	1
144	161	1
95	97	1
169	172	1
137	141	1
73	74	1
109	117	1
55	59	1
20	20	1
101	156	1
20	34	1
