41	41	3
118	122	1
121	122	3
161	163	1
160	160	2
39	40	1
27	27	6
154	154	1
95	95	4
224	225	1
2	2	1
57	66	1
126	127	2
212	213	1
225	225	1
217	217	3
158	162	1
118	119	1
158	158	3
6	6	1
122	150	1
80	82	3
214	223	1
12	12	2
231	231	2
123	123	3
170	170	1
68	68	1
223	225	1
189	189	2
159	159	4
229	230	3
132	153	1
195	195	1
107	107	2
164	164	1
4	4	2
141	141	3
205	205	1
179	179	3
120	120	1
16	240	2
139	209	1
167	167	3
47	58	1
176	177	1
98	99	1
42	185	1
14	14	2
38	110	1
112	112	1
139	142	2
77	79	3
28	43	2
166	168	1
144	144	1
54	54	1
102	138	1
156	156	1
206	206	3
148	226	1
220	222	1
183	183	2
148	149	4
48	48	4
136	136	1
72	72	3
66	66	2
158	160	1
201	201	2
84	84	2
26	26	1
189	200	2
109	110	1
170	171	1
140	141	1
175	203	1
119	119	2
142	143	1
48	75	1
70	70	3
28	28	5
151	213	1
44	45	2
234	234	7
32	36	1
74	74	1
55	55	2
73	73	1
190	191	2
128	128	5
173	174	1
63	63	1
27	191	2
228	228	1
12	77	1
24	24	2
163	187	1
172	172	3
155	155	2
202	202	3
131	131	1
35	35	1
51	51	1
183	187	1
140	140	3
72	73	1
85	86	2
57	58	3
205	215	2
182	182	1
233	233	1
209	209	2
2	69	2
26	28	1
161	213	1
29	29	3
168	168	4
221	221	2
216	216	1
165	165	2
157	157	3
207	208	1
43	182	1
17	17	1
50	50	2
150	150	2
193	193	1
58	58	2
33	33	2
32	32	3
113	113	3
218	219	1
35	79	2
61	63	1
161	161	1
121	121	1
47	47	4
2	3	1
152	166	1
238	238	3
0	20	1
220	220	1
204	207	1
189	193	1
13	184	1
44	44	2
104	104	1
161	168	1
227	229	1
88	160	2
9	9	3
102	121	2
73	75	2
199	211	1
197	198	1
200	200	2
98	108	1
65	65	2
15	15	4
69	69	4
37	37	4
122	227	1
163	163	4
109	132	1
154	155	1
39	39	4
139	139	1
174	174	3
5	84	1
23	23	5
177	177	3
19	20	2
192	192	2
115	115	1
239	239	1
5	6	1
60	60	1
204	204	1
64	64	3
188	188	1
198	199	2
214	215	1
138	138	2
33	35	1
213	223	2
53	55	1
137	137	4
148	148	2
204	212	1
52	52	2
40	40	2
216	217	1
34	34	1
13	185	1
23	145	1
106	114	1
138	142	1
180	180	1
115	116	2
25	70	1
135	136	2
142	155	1
5	53	1
166	166	3
99	99	2
142	207	1
203	204	1
37	38	1
214	214	1
199	199	3
71	71	1
214	216	1
224	224	1
33	53	1
167	168	1
44	109	1
45	45	1
19	19	1
143	143	1
208	209	1
78	78	2
170	204	1
166	190	1
203	203	2
177	195	2
142	192	1
173	173	2
88	88	1
229	229	3
36	85	2
54	55	1
237	237	2
15	19	1
186	186	2
62	64	1
138	141	1
29	30	2
69	70	2
76	76	1
86	86	1
198	198	2
13	13	1
169	169	2
197	197	1
123	124	3
47	48	1
194	210	1
83	176	1
25	25	2
18	19	1
222	222	1
207	207	1
47	61	1
116	116	1
180	229	1
139	140	1
171	171	2
7	8	1
74	76	1
167	212	1
65	67	1
193	198	1
53	53	1
13	14	1
191	192	2
201	202	1
62	62	1
33	176	1
155	158	1
227	227	1
152	213	1
48	83	2
36	36	2
12	15	1
76	79	1
38	39	1
121	232	1
226	227	1
153	161	1
9	88	1
57	68	1
159	161	1
148	180	1
202	203	1
117	117	1
14	103	1
102	102	2
212	212	1
204	205	2
20	20	1
218	222	1
133	133	1
21	22	1
230	230	1
139	141	1
132	137	1
100	102	1
6	12	1
230	231	3
163	173	1
192	193	1
208	208	2
125	125	1
0	0	1
122	128	2
232	232	2
18	223	1
26	47	1
141	208	1
14	88	1
211	211	1
42	42	1
146	147	1
43	43	3
120	124	1
81	81	1
85	85	1
98	98	1
213	213	1
242	242	1
63	67	1
56	72	2
123	127	1
20	21	1
171	172	1
56	57	1
106	106	1
45	46	1
109	109	1
61	61	1
100	101	1
5	5	2
118	167	1
39	179	1
43	76	1
191	191	3
151	151	2
31	218	1
194	194	3
205	206	2
82	82	1
10	10	1
22	22	1
46	46	2
97	97	1
182	225	1
234	235	1
31	31	1
53	58	1
31	135	1
226	226	2
71	72	1
196	196	1
18	173	1
109	113	1
96	97	1
101	112	1
14	77	1
178	178	1
116	150	1
30	30	1
126	129	1
142	142	1
135	139	1
7	7	1
229	235	1
222	239	1
33	171	1
147	147	1
31	32	1
59	60	1
155	156	1
193	194	1
194	195	1
130	173	1
8	8	1
150	152	1
235	235	1
