121	122	1
86	115	1
72	72	5
136	137	2
162	163	2
133	133	1
17	17	3
63	64	3
177	177	5
5	5	3
37	37	2
66	70	1
53	53	2
152	152	2
7	48	1
87	104	1
108	108	3
36	38	1
112	112	1
126	159	1
132	133	1
140	140	4
32	35	1
13	31	1
107	115	1
2	2	1
15	15	2
21	21	5
58	58	5
152	169	1
128	154	1
80	81	1
56	56	9
141	141	1
105	148	1
101	101	2
115	115	3
133	189	1
94	185	1
64	64	4
23	23	2
59	59	2
78	78	4
190	190	3
74	76	1
45	112	1
63	63	1
156	179	1
115	141	2
99	123	1
37	45	1
79	79	8
38	38	6
160	181	1
184	184	3
179	179	1
106	107	1
75	75	1
102	128	1
35	37	2
87	87	1
99	99	2
35	36	2
128	128	2
187	188	2
110	111	1
171	179	1
65	65	1
23	25	1
97	98	2
102	103	2
137	137	3
180	180	4
135	135	2
82	82	2
189	189	1
174	174	2
25	25	2
62	63	2
52	53	2
14	44	1
155	169	2
113	113	1
3	3	3
144	189	1
16	42	1
163	163	1
26	26	1
47	47	6
99	106	1
0	0	3
114	114	2
48	48	2
33	33	2
165	176	1
150	150	1
10	10	3
123	123	1
129	165	1
164	164	3
110	110	1
34	35	1
59	61	1
167	168	1
116	116	1
57	57	4
71	72	1
134	134	1
19	22	2
102	102	3
65	82	1
85	85	1
183	185	1
70	70	4
152	153	1
62	149	1
107	107	1
67	164	2
160	171	1
112	133	1
107	174	1
104	146	1
80	80	1
128	156	1
42	43	2
88	90	1
64	117	2
6	7	1
53	54	1
165	165	1
119	120	1
186	189	2
63	136	1
160	160	2
35	35	2
140	142	2
148	148	1
71	71	3
166	166	1
151	151	4
11	41	1
97	105	2
92	92	1
146	153	1
88	114	1
34	36	1
130	131	2
126	126	3
11	15	2
68	108	1
175	181	1
14	15	1
168	181	2
10	19	1
161	161	1
71	75	1
137	188	1
42	73	2
175	175	1
74	81	1
14	14	1
96	96	1
30	30	3
106	106	2
29	30	1
88	105	1
182	182	1
178	178	2
142	142	1
106	114	1
182	183	2
105	106	2
1	1	2
67	67	1
88	88	3
169	170	1
38	39	1
47	48	1
142	144	2
74	188	1
131	133	3
60	60	1
120	120	2
72	79	1
11	76	1
73	74	1
153	153	2
31	31	1
85	97	1
70	89	1
62	62	2
37	44	1
40	41	1
83	83	2
100	109	1
171	171	1
81	190	1
57	143	1
167	167	1
93	94	2
24	24	2
90	145	1
145	145	1
76	76	2
4	4	2
12	19	1
46	46	2
179	180	1
109	132	1
169	169	2
125	125	1
181	181	3
43	43	3
34	41	2
12	22	2
59	60	1
66	86	1
186	186	1
119	119	1
159	159	1
75	79	1
97	97	2
71	80	1
121	124	1
42	44	3
86	86	1
17	18	1
41	43	1
22	24	1
29	47	2
41	41	1
102	108	1
157	168	1
6	6	2
82	113	1
30	147	1
156	156	1
10	12	1
188	188	1
177	179	1
68	106	1
28	28	2
37	54	1
55	55	1
151	153	1
44	44	1
9	9	1
146	146	2
152	186	2
138	178	1
141	148	1
21	22	1
30	60	1
35	42	1
149	149	1
173	178	1
127	165	1
23	41	1
41	45	1
13	13	3
185	186	1
19	32	1
58	136	1
9	25	2
183	183	1
126	156	1
173	173	1
59	134	1
158	158	2
90	90	2
153	154	1
49	49	1
121	137	1
117	117	1
77	77	1
102	123	1
56	142	1
157	157	1
66	71	1
121	121	1
40	40	2
118	133	1
34	34	1
104	104	2
101	145	1
54	57	1
100	100	1
147	147	2
29	29	1
42	69	1
12	20	1
27	28	1
19	19	1
166	168	1
52	59	1
2	15	1
34	46	2
162	162	1
122	122	1
118	126	1
129	129	2
4	12	1
118	118	1
43	44	2
105	108	1
130	130	1
8	24	1
124	124	1
65	85	1
39	39	1
94	115	1
144	144	1
106	139	1
155	187	1
146	147	1
169	175	1
120	122	1
97	135	1
158	159	1
57	78	1
93	95	1
7	22	1
23	30	1
105	109	1
0	4	1
91	91	1
