109	111	1
52	53	3
91	91	3
77	86	1
47	47	3
53	53	3
41	41	2
44	44	1
70	70	2
51	51	4
16	18	1
40	40	5
110	110	2
6	6	4
14	27	1
56	57	1
103	103	1
117	119	2
75	75	1
2	2	5
49	57	1
24	42	1
64	64	1
105	105	3
129	129	2
104	105	3
26	27	1
39	39	5
48	49	2
11	11	3
21	21	4
115	118	1
120	120	2
49	49	4
98	98	5
90	91	1
61	61	3
53	118	2
131	131	2
54	54	1
67	116	1
92	92	3
125	126	2
94	97	1
24	24	3
50	50	3
25	26	1
73	73	1
28	28	2
9	9	3
7	37	2
99	99	4
78	125	1
69	69	3
131	132	3
7	7	2
81	131	1
58	58	4
128	128	1
87	96	1
0	0	2
38	39	1
20	20	2
60	60	2
95	95	4
45	45	3
100	100	3
113	113	4
88	89	2
73	82	1
53	55	1
119	119	4
109	109	1
115	128	1
79	84	1
99	118	1
90	90	1
102	102	1
62	73	1
42	99	1
3	3	1
56	56	2
73	74	5
127	130	2
65	66	1
132	133	2
30	30	1
80	80	2
125	125	3
114	117	2
117	117	2
20	21	2
12	12	4
78	93	1
64	65	1
99	100	1
102	103	1
108	108	5
116	116	1
75	76	1
10	10	2
94	94	1
41	61	1
124	124	4
23	66	3
112	112	4
28	29	1
25	25	4
96	96	1
76	76	1
48	48	2
42	42	2
20	39	1
71	95	1
123	123	2
41	55	1
91	94	1
121	121	1
46	47	2
87	87	1
17	28	1
74	74	1
133	133	2
8	20	1
114	128	1
14	14	2
90	97	1
93	93	4
53	117	1
60	74	1
74	80	1
87	89	1
126	130	1
22	22	2
63	63	2
17	17	2
88	88	1
123	124	1
121	122	1
8	11	1
90	101	1
29	30	1
11	12	1
83	83	1
17	23	1
106	106	1
115	115	1
130	131	3
113	127	1
118	120	1
130	130	1
101	101	1
106	108	1
98	99	2
127	127	1
62	63	1
79	85	1
40	41	1
111	111	1
59	59	2
20	45	1
122	122	1
43	43	1
69	96	1
79	127	1
91	92	1
90	105	1
34	34	1
84	84	2
56	66	1
29	60	1
124	125	1
118	118	1
46	46	1
85	91	1
83	92	1
30	33	1
21	30	1
81	82	2
81	81	1
23	23	1
29	44	1
54	94	1
43	62	1
78	78	1
47	49	1
112	113	1
94	108	1
8	61	1
101	110	1
8	9	1
71	71	2
111	112	1
45	46	1
101	104	1
63	75	1
68	69	1
89	90	1
15	61	1
97	98	2
29	29	1
86	86	1
32	33	1
104	104	3
11	86	1
1	1	1
98	114	1
64	67	1
67	106	1
4	5	2
104	106	1
13	13	1
76	78	1
80	81	1
30	39	1
125	131	1
82	82	1
27	27	1
26	57	1
67	107	1
34	38	1
51	76	1
41	42	1
67	68	1
32	32	1
128	129	2
