128	129	1
111	111	4
86	86	2
56	56	2
100	100	3
7	7	5
98	100	1
21	41	1
73	73	8
92	92	1
36	36	3
28	29	1
126	135	1
28	34	2
13	13	4
115	144	1
47	47	6
41	42	1
146	146	4
9	9	9
139	139	5
113	113	3
155	155	8
152	152	3
123	123	5
115	115	8
77	139	1
130	130	5
97	97	7
91	91	2
51	51	4
133	133	3
1	28	1
35	133	1
81	81	4
127	127	6
108	109	1
45	46	2
26	26	8
107	136	1
78	158	1
28	39	1
131	131	2
88	89	3
78	78	4
124	126	2
151	158	1
147	147	7
105	106	1
157	157	3
96	96	6
32	50	1
22	23	2
96	98	2
98	98	9
148	150	1
128	128	6
25	27	1
123	125	3
126	126	3
135	136	3
83	83	2
49	49	2
40	40	2
14	14	5
32	32	6
21	42	2
79	79	4
22	22	2
120	142	1
29	29	3
12	43	1
20	40	1
64	105	1
39	39	6
145	145	5
19	19	3
47	50	2
128	149	1
121	121	3
13	14	1
67	67	5
15	48	1
80	117	4
101	101	6
30	30	2
57	57	3
138	138	4
93	144	1
8	8	8
55	55	4
98	137	1
107	107	6
77	83	1
109	109	7
136	136	6
72	72	1
124	124	5
90	117	2
0	0	4
86	128	1
95	152	1
94	94	2
144	144	5
87	87	1
114	114	5
15	15	2
16	16	5
141	141	2
20	106	1
83	86	1
91	95	2
148	148	4
27	27	3
55	56	1
16	40	1
97	111	1
154	155	1
35	53	2
102	102	4
30	36	1
154	157	2
111	115	1
63	85	3
130	138	1
142	155	1
20	20	2
144	149	1
21	21	3
6	158	1
85	85	1
116	116	5
112	112	2
31	33	3
112	144	1
98	106	1
39	50	1
78	79	1
40	41	1
40	70	2
36	38	2
129	130	1
91	129	1
108	108	2
111	112	1
2	2	3
37	37	2
88	116	1
26	100	2
33	34	2
61	61	2
12	46	2
34	34	3
19	134	1
112	113	1
131	132	2
44	45	1
106	106	1
23	25	1
54	57	1
25	25	3
135	135	1
129	132	1
122	122	8
111	157	1
151	151	1
102	105	2
108	111	1
16	36	1
67	70	1
149	150	1
54	55	2
41	41	4
109	122	1
37	38	2
110	112	3
16	17	2
125	137	3
135	137	2
54	54	4
88	88	1
24	24	6
11	11	4
122	125	1
117	137	1
95	121	1
115	120	1
51	52	2
56	57	2
10	11	3
44	44	4
150	151	2
108	110	1
127	129	1
12	12	3
120	120	4
8	9	1
51	65	1
14	78	1
137	137	2
81	84	1
16	19	1
13	15	1
45	45	4
90	97	1
1	30	1
129	129	3
103	104	1
71	71	1
69	69	2
119	124	1
66	66	3
9	11	1
39	43	1
115	145	1
52	53	1
36	37	2
158	158	2
125	125	4
49	50	2
67	97	1
82	82	4
150	152	1
31	35	1
82	103	1
8	10	1
35	35	4
68	68	5
142	143	1
140	141	2
37	134	1
67	68	2
28	28	2
157	158	2
119	119	4
107	111	3
137	139	1
87	116	1
3	3	3
21	39	1
42	42	4
50	50	4
9	37	1
6	6	1
117	117	2
154	154	1
123	124	1
5	7	1
43	112	1
110	116	1
152	153	2
48	48	6
92	96	1
118	119	1
30	31	1
95	95	2
117	146	1
10	19	1
19	32	1
34	52	1
75	75	2
119	132	1
22	24	1
118	126	1
108	136	2
115	117	1
65	65	2
52	54	1
127	134	2
4	4	1
13	45	2
136	144	1
105	115	1
117	119	1
104	104	4
33	33	4
17	17	2
34	55	1
134	134	3
95	115	1
32	33	3
15	16	1
130	131	1
80	114	1
26	27	1
42	70	1
103	103	1
2	51	1
2	23	1
17	79	1
132	134	1
131	133	1
40	116	1
110	117	1
105	105	2
35	157	2
129	148	1
144	158	1
156	156	1
18	19	1
48	49	1
24	55	1
89	92	1
155	157	1
46	46	1
87	105	1
83	111	1
43	115	1
136	153	1
91	92	1
70	70	1
50	51	2
80	80	1
65	93	1
99	99	1
75	148	1
43	45	1
45	50	1
106	107	1
64	64	1
133	142	1
93	93	1
147	153	1
69	71	1
82	93	1
12	18	2
18	18	2
35	38	1
3	11	1
31	31	1
1	1	1
126	127	1
13	52	1
80	154	1
52	52	1
52	67	1
111	113	1
79	80	1
89	90	1
47	48	1
3	13	1
107	109	1
112	135	1
39	51	1
78	126	1
95	96	1
41	49	1
118	118	1
51	54	1
37	151	1
30	72	1
23	24	1
110	111	1
153	153	1
21	133	1
62	62	1
18	21	1
38	38	1
40	107	1
83	84	1
45	48	1
144	147	1
99	100	1
109	119	1
95	119	1
84	127	1
