65	65	2
90	91	1
0	0	2
124	124	3
39	39	2
7	7	3
79	102	1
41	42	2
103	119	1
74	112	1
56	57	1
22	22	1
77	78	1
49	49	4
32	33	1
88	88	1
19	29	1
5	5	2
102	102	2
83	83	2
56	56	7
20	32	1
16	16	1
10	19	1
73	73	1
73	77	2
130	130	1
59	59	3
81	81	2
70	70	5
95	95	2
6	6	4
100	100	2
8	8	4
10	24	1
118	118	4
2	2	7
55	55	4
50	50	1
12	12	3
13	13	1
77	77	1
68	68	4
20	23	1
103	104	1
78	79	1
28	28	3
125	126	1
112	112	4
54	54	1
100	106	1
4	4	3
46	47	2
16	17	2
82	82	2
26	26	2
58	71	1
14	15	2
97	97	1
91	91	3
106	128	1
19	23	2
24	33	1
69	70	1
117	117	2
106	107	1
114	114	4
104	104	3
127	127	2
57	57	1
71	71	3
49	54	1
51	51	2
130	131	2
5	103	2
52	52	4
90	90	1
96	106	1
10	11	1
11	11	1
1	1	3
105	107	1
16	24	1
115	115	3
42	55	4
66	67	1
108	114	1
84	84	1
87	88	1
75	75	3
27	27	1
11	12	1
94	94	1
23	23	2
17	17	1
61	61	4
120	125	2
24	24	3
21	21	1
10	10	3
101	102	1
98	98	2
72	72	3
43	44	1
67	67	1
66	66	1
77	102	2
52	54	1
75	76	2
41	41	2
53	53	2
133	133	2
59	67	1
113	119	1
41	56	1
74	74	1
54	55	1
124	125	1
98	99	1
115	116	2
119	129	1
23	24	2
6	53	2
94	95	1
29	29	1
111	111	1
19	20	2
8	39	2
120	120	2
11	13	1
19	19	3
107	107	1
78	78	1
129	130	1
42	42	1
55	57	1
121	122	2
110	110	2
31	31	1
14	14	1
32	32	2
64	64	5
123	123	1
113	113	1
70	71	1
9	9	3
96	97	1
18	23	1
101	103	1
107	108	2
65	109	1
121	121	1
6	13	1
90	102	1
72	97	1
108	108	1
84	88	1
76	92	1
40	40	1
58	66	1
124	133	1
53	54	1
125	125	2
92	93	2
76	76	1
92	92	2
109	109	1
44	44	1
10	57	1
88	90	2
105	106	1
32	101	1
42	43	1
106	106	1
66	91	1
62	62	1
93	94	1
80	80	2
3	3	1
113	114	1
58	58	1
104	105	1
86	86	1
98	106	1
25	25	1
13	15	1
54	95	1
71	72	1
46	46	1
51	53	1
27	31	1
23	29	1
79	79	1
69	69	1
82	83	1
106	109	1
44	66	1
131	131	1
68	69	1
