132	132	3
103	103	2
139	139	2
117	144	1
13	38	1
106	150	1
35	36	1
169	169	3
57	57	1
93	93	2
51	60	1
39	39	2
79	171	1
145	145	1
153	153	4
121	121	5
137	137	3
91	99	1
158	158	2
52	118	1
4	28	1
86	86	6
93	108	1
137	138	1
33	34	2
76	114	1
95	95	1
76	149	1
53	54	3
115	115	4
83	83	3
55	56	1
130	130	1
17	42	1
170	171	2
90	91	1
95	96	1
99	100	1
60	60	3
45	63	1
123	123	2
51	118	1
66	66	4
173	175	3
149	149	5
20	42	2
176	176	5
9	9	4
57	136	1
134	137	1
94	125	1
6	6	1
39	42	1
75	115	1
142	142	3
4	4	2
27	27	1
120	120	4
32	32	1
175	176	2
54	54	3
173	173	1
139	140	1
146	146	2
131	132	1
51	51	2
127	151	1
44	92	1
15	15	2
129	129	2
97	101	1
37	38	1
109	109	1
31	31	3
41	96	1
62	64	1
4	161	2
170	174	1
8	8	1
143	143	5
11	13	2
57	59	1
110	110	2
71	114	1
61	61	1
8	50	1
179	180	5
174	174	2
74	74	4
68	82	1
153	154	1
160	160	2
140	140	1
141	141	2
134	135	2
138	138	4
80	80	3
64	65	1
88	89	1
90	90	3
133	133	1
179	179	2
72	72	2
79	79	3
177	177	1
127	127	1
21	23	2
174	175	2
113	113	2
119	145	1
114	115	4
0	16	1
56	56	1
98	170	1
36	54	1
75	108	2
156	156	2
44	44	2
6	32	1
147	147	2
36	36	1
94	95	2
78	78	2
22	22	3
126	126	2
106	106	2
13	13	2
41	41	2
39	41	1
104	104	2
139	154	1
0	1	1
75	75	2
171	171	3
106	148	2
50	125	3
170	170	1
150	150	1
155	155	1
61	68	2
165	165	1
36	57	1
157	158	1
14	14	2
126	127	1
114	114	4
45	45	1
29	29	1
3	16	1
23	23	1
62	113	1
71	71	2
63	63	2
66	67	1
56	60	1
81	81	1
82	90	1
141	145	1
67	67	3
37	37	2
74	75	1
172	172	2
154	154	3
166	166	1
31	41	1
1	1	1
35	168	1
151	152	2
61	114	1
107	108	1
95	124	1
155	156	1
85	86	1
96	106	1
35	35	1
83	84	1
17	58	1
22	24	1
32	43	1
111	112	1
33	33	2
97	97	1
82	82	1
99	99	1
68	90	1
163	163	1
64	64	2
94	94	1
134	134	1
61	62	1
42	42	1
66	95	1
150	154	1
118	118	1
50	59	1
71	72	1
100	100	1
119	143	1
127	167	1
18	141	1
178	180	1
162	162	3
122	122	1
136	136	2
41	43	1
111	111	1
83	106	1
128	128	1
117	117	1
94	124	1
102	102	1
122	161	1
102	105	1
91	154	1
122	156	1
134	174	1
78	79	1
124	124	1
93	96	1
56	68	1
16	16	1
158	164	1
125	125	3
129	151	1
124	125	1
105	105	1
144	144	1
77	115	1
3	3	1
92	93	1
114	118	1
146	153	1
152	153	1
73	73	2
87	87	2
127	129	1
135	135	1
62	117	1
34	64	1
116	117	1
71	86	1
94	136	1
1	81	1
5	124	1
150	157	1
159	159	1
119	153	1
19	147	1
114	146	1
155	158	1
65	65	1
125	134	1
77	79	1
110	111	1
83	129	1
9	72	1
43	45	1
55	55	1
162	163	1
