65	65	1
144	148	1
129	129	4
116	118	2
61	61	2
143	143	1
103	103	2
165	165	3
147	153	1
112	112	2
121	121	1
142	142	1
145	145	2
169	169	1
26	57	1
21	21	2
41	41	3
75	81	1
131	144	1
53	53	3
119	119	1
73	85	1
138	139	1
151	177	1
6	6	2
152	165	2
104	121	1
176	176	4
25	25	1
15	15	1
10	10	2
146	154	1
11	12	1
65	67	1
71	71	5
14	15	1
160	161	1
39	39	2
88	88	2
158	158	2
160	166	1
154	154	3
111	126	1
174	175	1
66	66	5
55	58	2
4	4	2
184	187	1
125	125	2
85	86	1
64	64	3
137	137	2
40	40	2
31	31	2
181	181	4
100	101	1
17	17	5
41	48	1
16	16	2
148	148	3
79	79	2
149	165	1
14	14	2
122	122	1
175	175	2
85	97	1
91	91	2
179	179	2
2	2	1
84	91	1
105	105	2
120	122	2
86	86	5
26	26	4
72	72	1
97	97	2
141	141	1
68	175	1
132	132	2
120	120	3
44	90	1
38	39	4
180	180	1
157	180	1
87	88	3
128	128	2
57	57	1
190	190	2
135	135	1
30	30	2
167	167	1
147	180	1
45	45	1
163	174	2
87	87	1
68	81	1
123	123	3
34	35	1
54	54	2
131	131	2
109	110	1
108	109	1
1	1	2
186	186	1
33	34	1
111	111	2
25	36	1
68	68	1
155	156	3
64	80	1
82	83	1
145	146	1
55	55	1
160	160	1
102	102	1
23	28	1
84	85	1
64	109	1
151	151	2
9	12	1
91	92	2
58	70	1
150	150	3
145	148	1
139	142	1
13	13	1
36	40	1
139	140	1
166	166	1
56	56	1
174	174	1
82	93	1
124	124	1
189	189	1
48	48	3
46	64	1
27	27	1
28	28	1
3	3	1
115	115	2
150	151	2
83	83	3
178	178	1
152	153	1
38	38	1
172	173	1
12	55	1
108	112	3
26	48	1
27	62	1
29	29	1
31	32	2
115	135	1
40	44	1
47	47	1
170	175	1
90	90	1
185	185	2
78	78	1
35	36	1
107	107	2
94	94	4
101	118	1
25	27	2
180	181	1
38	88	1
149	157	1
81	81	1
37	37	2
137	148	1
68	70	1
36	36	1
38	71	1
53	57	1
71	84	1
156	156	1
64	104	1
22	22	1
130	154	1
80	80	2
118	118	1
139	141	1
134	134	1
133	133	1
70	70	1
153	153	1
146	146	1
163	163	1
159	159	1
157	157	2
166	176	1
113	113	1
93	93	2
107	119	1
130	157	2
53	54	1
15	24	1
70	72	1
129	130	1
61	104	1
93	94	2
170	170	1
158	159	2
164	164	1
138	142	1
74	74	1
89	91	1
75	93	1
103	111	1
139	139	1
34	34	1
183	184	1
40	48	1
96	99	1
129	140	1
91	134	1
74	77	1
188	189	1
136	136	2
44	44	1
104	108	1
102	103	1
84	84	1
122	124	1
140	141	1
149	179	1
69	70	1
32	33	1
98	101	1
102	125	1
140	143	1
