84	84	2
74	77	1
112	160	1
16	16	2
183	183	4
66	66	5
177	177	3
186	190	1
95	162	1
208	221	2
115	115	1
63	63	1
245	246	1
220	231	1
156	156	5
162	162	3
171	171	6
82	82	2
36	39	1
9	10	1
57	57	1
92	92	3
153	154	1
201	205	1
104	104	4
15	15	3
31	31	1
26	26	2
33	33	3
97	98	1
97	97	5
44	45	1
33	35	1
14	14	1
158	219	1
210	210	2
225	228	1
109	181	1
59	155	2
67	68	1
218	218	1
101	101	3
242	242	1
46	61	2
5	228	1
226	226	7
183	184	3
12	12	2
75	75	4
114	114	3
147	147	1
190	191	3
110	110	1
76	78	1
221	221	1
158	197	1
46	46	2
29	29	1
187	187	3
191	215	1
239	239	1
163	165	1
41	41	3
6	6	1
234	234	2
155	155	1
8	8	4
233	233	4
6	228	1
62	65	1
94	94	6
90	92	1
146	150	1
93	93	1
62	62	4
91	92	1
192	192	2
37	39	2
69	69	1
105	106	2
220	221	2
249	249	1
40	40	1
157	225	1
67	67	2
228	228	1
39	113	1
200	200	1
47	47	2
60	65	2
92	175	3
36	36	1
175	176	1
116	119	1
104	192	2
237	237	1
96	98	1
244	244	3
209	223	1
20	20	3
117	168	1
196	238	2
186	186	2
40	41	1
217	217	3
35	35	2
215	230	1
185	185	1
207	207	1
212	212	1
231	245	1
247	247	4
87	87	1
71	71	4
28	233	1
72	240	2
111	222	2
167	219	2
208	208	3
117	118	2
187	188	1
99	112	2
24	24	2
119	120	1
91	205	1
243	244	1
154	154	2
197	198	2
103	115	1
32	38	1
150	150	1
98	98	1
5	5	1
199	199	3
224	224	1
65	65	3
89	170	1
100	113	1
103	162	1
47	151	1
154	202	2
84	98	1
5	232	2
153	193	1
38	39	2
236	236	2
107	107	1
93	94	2
155	201	1
50	50	1
19	19	2
10	26	2
182	182	4
45	45	1
245	245	5
163	164	2
230	230	1
189	189	3
3	4	1
51	229	3
113	113	1
183	191	1
56	56	2
98	100	1
228	232	2
54	55	1
204	204	2
194	216	1
170	170	1
158	158	1
17	17	3
115	170	1
197	197	3
75	76	3
202	206	1
45	47	1
200	226	1
238	238	3
58	60	1
182	183	2
14	30	1
117	117	1
42	42	1
232	232	2
95	108	1
34	34	1
157	157	4
25	25	2
10	10	2
37	37	2
4	5	2
179	187	1
198	199	2
167	167	2
168	171	1
180	222	1
222	222	1
108	108	2
43	43	1
180	181	1
174	174	3
22	22	3
14	15	1
86	86	2
158	211	2
80	81	1
106	166	2
9	9	2
214	214	1
154	198	2
88	88	2
229	229	1
21	24	1
207	247	1
11	11	2
215	215	2
195	195	1
205	205	2
196	208	1
51	51	2
53	54	2
7	7	3
35	39	1
68	215	1
36	38	1
102	113	2
2	4	1
49	49	2
91	100	1
231	231	3
77	77	1
101	114	1
86	87	1
108	110	1
30	36	1
213	214	3
181	181	1
151	151	1
3	3	1
193	193	1
196	196	3
58	58	1
235	235	3
173	173	1
112	175	1
228	229	1
18	18	3
227	227	2
49	51	1
172	173	1
30	30	1
83	84	1
82	88	1
81	81	1
4	4	2
85	85	1
78	78	1
216	216	1
98	99	1
54	68	1
160	167	1
106	106	1
11	12	1
160	168	1
147	180	1
29	39	1
146	193	1
188	188	1
38	40	1
14	17	1
2	2	1
222	223	1
96	97	2
74	74	1
178	212	1
115	116	2
54	54	1
162	164	1
6	7	1
55	56	2
226	241	1
228	244	1
97	179	1
1	1	1
239	240	2
114	215	1
66	77	1
209	209	1
184	185	2
38	38	2
2	3	1
120	120	1
178	179	1
179	179	2
192	225	1
110	222	1
191	192	1
73	73	2
217	218	1
83	83	1
16	23	1
55	57	1
223	223	1
100	100	1
111	111	2
179	180	1
103	118	1
112	112	1
72	82	1
174	175	1
194	218	1
152	152	1
44	44	1
155	168	1
79	80	1
96	96	1
207	212	1
186	225	1
175	175	1
163	163	1
68	68	1
172	172	1
208	220	1
102	103	1
168	168	1
169	169	1
204	208	1
5	6	1
97	115	1
90	90	1
78	79	1
207	246	1
