125	139	2
5	7	1
109	109	3
52	52	1
10	11	2
11	31	2
63	63	3
34	137	1
23	29	1
101	101	1
135	135	4
138	153	1
3	5	2
119	119	3
121	123	1
27	27	5
32	33	2
45	46	3
20	21	1
110	111	1
22	23	1
85	93	1
44	44	1
102	102	1
42	74	1
58	58	2
38	38	1
118	118	4
86	86	2
82	83	1
55	55	4
122	122	7
38	43	1
130	133	2
125	125	3
148	148	1
57	57	4
124	152	1
40	40	5
83	83	3
107	137	1
18	18	3
125	141	2
51	51	3
93	144	1
123	123	1
25	25	1
36	36	5
115	118	1
7	7	2
143	143	3
116	116	3
50	50	3
49	54	1
131	152	3
134	145	1
75	100	2
103	123	2
138	138	1
35	35	3
41	41	3
71	140	1
46	46	1
130	153	1
132	132	1
78	79	1
6	8	1
104	107	1
22	22	2
98	98	1
24	44	2
93	143	2
85	98	1
39	39	1
14	53	2
40	54	1
149	149	1
128	128	2
93	93	2
13	13	4
116	117	1
45	49	1
85	85	1
116	118	2
98	100	1
39	40	1
15	15	3
152	152	2
14	14	1
67	67	1
113	115	1
26	27	1
126	126	1
141	153	2
73	112	1
42	79	1
82	82	3
24	39	3
97	97	1
112	112	2
29	29	1
147	151	1
49	49	1
105	105	1
125	152	1
106	139	1
77	77	1
142	154	1
109	110	1
48	48	1
99	99	3
63	64	1
18	21	1
78	125	1
11	14	1
11	45	1
39	56	1
19	19	1
22	29	1
16	79	1
44	62	1
115	131	1
46	68	1
10	10	2
23	57	1
69	71	1
30	31	1
107	107	1
62	62	2
4	6	2
63	149	1
53	53	1
144	144	2
43	44	1
71	71	1
19	20	1
92	92	1
64	147	1
95	95	1
126	130	1
111	111	3
65	87	1
42	42	2
31	31	2
8	10	1
15	17	1
84	92	1
119	135	2
95	105	1
93	130	1
130	139	2
94	94	2
135	138	1
8	9	1
24	24	1
140	140	1
106	113	1
150	150	2
32	32	1
115	116	3
12	28	1
43	43	1
68	68	1
8	147	1
37	37	2
74	74	1
25	33	1
53	78	2
100	139	1
67	68	1
73	73	1
26	26	2
17	18	1
81	81	2
21	21	1
66	66	1
11	53	2
75	76	1
126	145	1
39	69	1
3	12	1
121	136	1
4	8	1
151	151	2
44	45	1
26	73	1
145	145	3
45	45	1
20	20	2
79	80	3
114	114	1
137	137	1
35	72	1
120	120	2
4	4	1
115	115	2
32	122	1
96	99	1
56	56	1
45	119	1
129	129	1
28	28	1
121	122	1
47	47	1
66	68	1
31	32	1
142	142	1
83	85	1
131	139	1
93	125	1
9	9	1
111	112	1
35	120	1
65	65	1
108	108	1
12	14	1
146	146	1
136	136	1
139	139	1
5	5	1
103	106	1
48	55	1
115	137	1
