47	47	1
240	240	2
19	19	2
208	212	1
137	137	2
199	200	4
120	163	1
136	137	1
11	11	3
227	227	3
196	200	1
30	30	3
107	117	1
7	8	2
223	223	4
157	157	3
167	177	1
211	211	3
121	121	3
33	37	2
29	29	7
129	129	3
60	66	1
123	123	2
75	76	1
37	37	4
54	55	4
233	233	2
14	14	3
41	41	3
224	224	1
238	238	2
136	136	2
0	21	1
51	52	2
65	85	2
242	242	3
217	218	2
105	134	3
88	98	1
34	34	1
164	164	2
187	187	1
25	25	2
98	150	1
146	146	4
156	157	1
181	220	2
120	120	5
215	226	1
20	20	4
125	125	2
79	215	2
107	138	2
118	221	1
239	239	1
199	199	4
155	155	1
78	78	3
80	83	1
167	229	1
51	120	1
43	135	1
173	173	1
153	160	1
109	213	2
40	122	1
208	208	2
99	212	1
50	50	1
202	215	1
103	137	1
190	191	1
196	196	2
235	235	2
231	231	3
232	233	2
203	203	3
35	35	1
16	113	1
144	146	1
123	146	1
6	6	3
216	216	1
19	33	1
33	34	1
161	161	2
8	8	5
114	114	1
177	177	4
21	123	1
24	24	1
104	105	2
95	129	1
89	129	1
56	56	3
113	113	3
42	46	1
27	27	2
124	126	2
77	77	2
214	214	2
8	105	1
64	64	2
68	68	1
201	201	1
43	86	1
122	134	1
57	91	1
154	154	2
216	217	1
81	85	1
60	71	1
226	226	2
75	75	2
4	5	2
188	188	1
205	205	1
72	137	2
188	209	2
66	68	2
180	180	1
107	143	1
15	15	1
159	188	1
153	153	5
108	164	2
3	5	2
232	232	5
186	186	2
1	22	1
165	165	2
50	129	1
105	105	1
102	134	1
223	225	1
70	70	3
197	198	3
153	154	3
83	210	2
105	157	1
15	16	1
10	11	1
95	95	1
84	157	3
163	163	1
156	163	1
49	49	1
241	242	1
83	84	2
54	54	2
127	127	2
124	146	1
68	69	3
175	175	1
43	43	7
181	181	1
91	178	2
2	2	3
179	179	1
159	159	2
204	204	1
17	17	3
236	236	2
195	195	3
123	178	1
145	145	3
156	156	1
158	168	2
35	116	1
176	221	1
3	3	2
213	214	2
191	191	2
22	22	5
169	175	1
115	115	2
106	143	2
107	162	1
17	18	1
22	124	3
76	76	4
28	28	2
142	142	3
32	195	1
169	186	1
63	63	3
46	136	1
59	59	4
229	229	3
79	79	1
40	41	1
118	119	3
150	152	1
33	36	1
8	9	2
55	55	3
62	206	1
69	69	1
71	71	1
57	84	1
73	74	2
60	60	2
105	233	1
174	175	1
168	187	1
112	112	2
120	121	1
114	161	2
42	42	2
10	26	1
89	89	1
52	125	1
15	17	1
201	202	1
178	178	1
141	145	1
53	53	1
39	39	1
108	134	1
51	51	2
4	6	1
102	102	1
226	235	1
7	7	2
31	31	2
198	198	5
165	166	1
143	143	3
62	62	2
179	183	1
177	178	2
129	130	1
130	130	1
123	134	1
85	133	1
66	66	1
46	46	3
110	164	1
52	52	2
133	134	1
124	130	1
212	212	1
141	141	1
168	186	1
31	32	2
108	117	1
143	166	1
181	183	1
111	227	2
106	106	2
162	162	2
152	152	3
26	26	2
100	100	2
85	85	1
202	202	3
81	81	1
74	74	2
21	21	1
198	199	1
36	183	1
79	81	1
14	15	1
98	113	1
11	97	1
69	70	2
203	217	1
218	220	1
169	169	2
167	179	1
57	58	1
10	10	3
60	61	1
3	4	1
99	99	1
81	82	1
115	138	2
0	126	1
174	174	2
83	147	1
170	170	2
138	138	1
128	128	4
68	133	1
220	220	2
139	139	3
7	15	1
87	152	2
15	46	1
212	213	1
221	221	2
0	0	1
163	164	3
84	131	1
108	167	1
33	33	2
107	107	1
225	225	2
29	31	1
32	32	1
16	21	1
34	116	1
151	151	1
178	190	1
189	189	3
86	86	1
66	81	1
64	65	2
199	230	1
150	151	2
140	140	1
3	6	1
101	102	1
109	109	1
210	210	1
65	65	2
14	22	1
236	239	2
159	160	1
57	71	1
4	4	1
95	103	1
202	235	1
140	174	1
163	213	1
224	225	1
129	233	1
12	12	1
58	58	2
228	228	1
189	226	1
98	98	2
9	11	1
197	197	1
218	218	1
103	103	2
174	189	1
13	13	2
200	205	2
2	3	1
84	84	1
200	228	1
98	142	1
34	35	1
194	199	1
240	241	1
219	219	1
85	153	1
230	230	1
182	182	1
52	81	1
184	205	1
74	75	1
145	177	1
36	36	1
79	226	1
234	234	1
101	101	1
97	97	1
176	176	1
126	129	1
23	143	1
23	95	1
42	43	1
37	38	1
139	143	1
56	168	1
234	235	1
108	161	1
48	48	1
47	78	1
200	211	1
115	118	1
175	176	2
0	18	1
127	141	1
49	65	1
157	161	1
119	120	1
52	80	1
125	138	1
57	63	1
143	145	1
217	240	1
217	217	1
65	135	1
23	23	1
30	32	1
198	205	1
165	194	1
203	234	1
8	118	1
17	19	1
166	183	1
144	222	1
148	201	1
169	189	1
83	89	1
192	192	1
147	155	1
72	72	1
85	203	1
185	185	1
7	118	1
141	169	2
117	117	1
228	230	1
220	221	1
203	208	1
111	111	1
28	29	1
23	34	1
190	190	1
