106	141	1
6	6	3
65	84	1
125	125	1
149	149	3
10	10	2
57	57	1
67	67	2
64	64	2
43	43	2
32	104	2
63	63	1
14	14	4
95	96	2
24	24	3
142	144	1
145	145	5
126	126	1
11	11	2
21	22	1
141	142	1
128	132	2
129	129	1
138	138	4
32	34	1
65	65	1
27	39	1
33	33	4
128	128	2
71	88	2
93	154	3
5	7	1
99	99	3
134	134	3
70	70	3
76	124	2
97	138	1
121	122	1
101	142	2
44	44	2
22	22	1
38	38	2
98	98	1
119	122	1
4	4	5
136	136	2
20	20	1
69	83	1
17	27	1
32	32	3
102	139	1
133	133	2
130	130	4
79	83	1
31	31	4
145	146	1
3	4	2
110	144	1
115	140	1
110	154	2
84	139	2
113	113	1
117	123	2
115	118	1
80	81	2
4	116	1
139	140	1
116	136	1
145	149	1
35	35	1
96	122	1
63	127	1
87	87	4
143	144	1
10	38	1
118	118	1
96	96	4
114	130	1
109	114	1
132	132	1
103	139	1
124	127	1
88	150	1
110	110	3
136	137	2
138	141	1
143	148	1
78	105	1
96	110	1
14	15	2
151	151	3
12	12	1
124	124	1
51	51	1
30	30	1
9	9	2
73	94	1
19	34	1
32	33	1
141	141	2
28	29	2
2	3	1
11	14	1
55	55	2
108	141	1
142	142	3
19	19	1
16	16	2
142	147	1
81	82	1
114	114	2
4	98	1
53	53	4
41	96	1
92	92	1
94	94	3
27	30	2
5	5	1
105	106	2
143	143	1
39	40	2
148	148	1
76	81	1
81	99	1
153	153	2
57	73	1
28	28	1
122	122	1
79	80	2
27	29	2
135	139	1
72	72	1
4	103	1
97	97	2
75	75	1
100	100	1
85	107	1
131	134	1
147	147	2
106	129	2
65	80	2
41	41	2
124	128	1
36	37	1
41	42	1
68	68	2
80	83	1
112	112	1
2	39	1
94	126	1
75	137	1
94	154	1
110	111	1
3	3	1
113	114	1
101	101	1
23	23	2
154	154	5
41	43	1
55	67	1
76	83	1
79	79	1
95	126	1
37	109	1
8	57	1
47	47	1
12	14	1
19	55	1
52	53	1
70	134	1
121	127	1
50	113	1
69	81	1
108	150	1
29	30	1
70	80	1
29	29	2
36	118	1
97	120	1
81	107	1
62	62	2
120	121	2
46	46	1
137	137	1
104	109	1
11	73	2
40	56	1
123	123	1
142	150	1
9	38	1
21	21	1
88	145	1
27	27	2
34	37	1
100	104	2
38	104	1
114	116	1
54	56	1
76	76	2
136	139	1
108	108	1
150	150	1
97	106	2
31	35	1
44	45	1
130	131	1
7	7	1
40	43	1
32	36	1
45	45	1
18	29	2
38	53	1
22	23	1
127	127	1
138	139	1
83	83	1
84	85	1
37	37	1
131	131	1
28	109	1
152	152	1
48	61	1
79	86	1
50	50	1
5	6	1
12	116	1
