19	19	2
7	7	1
146	147	1
87	132	1
73	73	3
8	10	1
34	34	1
75	116	1
25	25	1
16	17	1
30	30	2
121	121	3
111	144	1
138	138	4
63	93	1
95	106	1
83	87	1
67	68	1
9	15	1
11	33	1
21	21	2
25	50	1
85	86	4
66	66	2
42	70	2
133	148	2
4	8	2
6	17	1
64	64	2
149	149	3
141	141	1
133	133	1
35	35	3
35	36	1
107	107	3
37	38	1
26	36	2
38	38	3
95	95	1
41	133	1
114	114	4
12	12	6
5	5	3
4	23	2
31	31	1
6	7	1
11	12	1
145	145	3
105	105	3
151	151	1
22	24	2
153	153	3
43	43	2
135	135	3
99	100	1
18	38	2
20	26	2
58	73	1
119	119	2
53	69	1
14	14	1
40	40	1
36	36	1
9	100	1
49	49	5
126	126	3
101	101	1
112	126	1
129	129	2
130	132	1
118	118	3
21	65	2
80	80	1
104	104	1
13	13	1
10	10	1
104	106	2
102	137	1
17	34	1
111	115	1
55	55	1
86	86	2
92	92	1
4	4	2
114	115	1
81	82	2
126	135	1
77	80	1
68	89	2
139	139	1
66	94	1
9	34	1
68	105	1
53	65	1
143	143	1
53	68	1
95	105	1
2	3	1
93	95	1
8	8	3
75	76	2
132	132	2
39	39	2
46	71	1
43	68	2
145	146	1
71	71	2
32	66	2
69	70	2
131	131	2
54	78	2
15	15	2
137	142	1
57	57	1
11	11	1
94	94	3
16	49	1
76	82	1
72	73	1
77	77	2
21	50	1
117	117	1
62	104	1
40	68	1
41	132	1
46	46	1
67	142	1
72	114	1
18	18	2
41	41	3
76	76	1
18	19	1
12	23	1
11	39	1
90	135	1
8	35	1
118	137	1
23	36	1
93	93	1
116	116	1
70	73	1
26	54	1
82	152	2
126	128	1
130	130	2
73	82	1
70	76	1
24	40	1
66	87	1
19	41	1
145	149	1
81	81	1
136	137	1
95	101	1
9	9	1
61	61	1
148	148	1
128	135	1
26	40	1
82	151	2
26	26	2
55	56	1
101	115	1
112	112	2
111	111	2
71	116	2
110	111	1
42	142	2
2	8	1
88	88	1
108	108	1
88	98	1
135	136	1
36	37	1
77	112	1
17	17	2
103	113	1
65	65	1
16	16	1
115	132	1
40	41	1
110	110	1
94	96	1
131	136	1
69	69	1
125	125	1
95	96	1
51	74	1
47	48	1
128	150	1
80	81	1
76	98	1
97	97	1
62	62	2
32	33	1
74	131	2
14	15	1
134	134	1
87	87	1
122	140	1
44	45	1
96	96	1
17	138	1
7	18	1
74	87	1
53	53	1
115	137	1
123	124	1
17	36	1
131	137	1
83	83	1
129	147	1
8	112	1
53	54	1
140	147	1
41	42	1
58	66	1
79	81	1
102	102	1
79	84	1
110	137	1
103	103	1
72	84	1
68	68	1
146	146	1
30	31	1
41	53	1
58	86	1
46	150	1
13	14	1
23	57	1
25	143	1
3	3	1
102	130	1
124	124	1
38	120	1
33	33	1
84	85	1
122	128	1
120	120	1
37	37	1
