68	108	1
81	81	3
169	169	1
61	61	4
105	105	3
10	10	2
161	162	1
168	168	5
167	168	1
2	2	2
118	121	1
130	143	1
14	43	3
79	79	1
8	8	2
173	173	3
19	19	1
12	12	3
149	149	1
159	159	2
60	151	1
12	33	1
60	60	1
79	121	2
83	83	2
117	117	5
148	148	3
128	128	1
176	176	5
137	140	2
170	170	2
154	154	1
56	56	3
64	64	3
177	177	1
120	121	1
157	158	2
174	174	2
133	133	3
76	108	1
96	96	2
13	13	1
8	23	1
74	75	1
152	152	4
101	105	1
53	53	3
137	138	1
161	161	5
71	71	2
139	139	2
152	153	1
131	131	2
111	111	3
99	99	2
173	174	2
113	114	1
136	137	1
5	5	2
57	120	1
128	130	1
131	142	1
98	100	1
72	73	1
146	146	5
7	7	2
63	63	3
51	51	1
98	98	2
134	134	1
3	3	1
66	66	6
143	143	1
140	140	1
2	29	1
61	92	2
86	93	2
9	10	2
43	44	1
112	112	4
107	107	1
74	74	3
114	115	1
54	54	2
104	116	1
26	26	4
22	22	2
100	100	1
91	91	1
171	172	1
82	111	1
42	63	1
61	94	1
106	106	4
160	160	1
12	22	1
52	54	1
105	107	1
172	172	2
104	104	1
35	36	1
33	126	1
86	129	1
18	45	1
129	129	1
52	53	2
137	137	3
38	38	1
3	5	1
81	82	1
123	123	2
114	116	1
89	89	1
77	81	1
136	136	3
28	28	1
166	166	1
126	126	1
9	9	3
11	12	1
115	115	2
19	20	1
66	67	1
36	50	2
171	171	2
17	17	3
124	124	1
144	145	1
32	32	1
158	158	3
102	102	1
34	34	1
35	108	1
16	17	3
152	174	1
135	135	1
111	112	1
67	67	4
90	104	1
121	122	1
23	24	1
86	86	3
132	140	1
13	19	1
74	77	1
94	94	1
15	16	3
169	171	1
14	14	2
53	58	1
134	153	1
8	9	1
13	31	2
84	84	3
138	138	2
57	58	1
98	109	1
62	62	2
125	125	2
158	162	1
142	142	2
150	153	1
11	79	1
132	132	2
23	39	1
4	4	2
19	45	1
88	89	1
76	76	1
127	127	1
150	150	1
85	85	1
73	73	3
29	29	1
157	157	2
89	90	1
80	108	1
84	85	1
88	88	2
65	65	1
105	106	1
162	162	1
24	24	1
95	118	1
107	108	2
26	74	1
66	154	1
0	0	1
92	94	1
112	168	1
109	109	1
178	178	1
88	112	1
156	156	1
171	173	1
59	59	1
1	1	1
50	50	1
41	43	1
78	79	1
104	152	1
61	95	1
54	131	1
153	167	1
135	173	1
78	78	1
163	163	1
130	130	1
86	87	1
72	72	2
18	18	1
11	11	2
37	38	1
91	98	1
82	82	1
14	21	1
97	97	1
117	118	1
177	178	1
132	135	1
156	157	2
33	33	1
147	147	1
71	72	1
98	145	2
91	97	1
164	164	1
154	155	1
1	2	1
51	52	1
153	173	1
95	122	1
59	60	1
118	118	1
126	143	1
