173	175	1
84	84	3
184	184	1
10	11	2
70	70	2
14	14	3
41	41	8
44	44	2
19	19	3
182	183	2
56	56	3
155	155	1
96	96	7
78	177	1
121	121	3
20	20	3
56	59	2
152	152	5
155	162	2
66	66	2
182	189	1
138	138	3
23	23	4
71	73	1
115	124	2
116	166	1
188	190	1
171	173	1
169	189	1
89	89	3
135	135	4
114	115	4
52	52	2
62	62	4
15	45	1
27	27	3
79	80	1
171	171	2
95	96	1
97	99	1
40	40	5
100	100	6
7	7	2
130	130	1
59	59	3
122	184	1
78	176	1
42	143	1
28	44	1
95	129	1
35	35	5
74	74	4
107	107	1
166	166	3
107	109	3
45	120	2
180	180	4
175	175	2
63	64	1
137	184	1
103	103	4
174	174	2
19	31	1
87	87	2
1	3	1
151	164	2
110	110	2
65	66	2
14	15	1
106	107	3
100	103	1
78	134	1
140	140	1
149	149	1
166	173	2
121	186	1
58	61	1
119	119	3
87	97	2
184	185	1
4	4	3
60	60	3
91	150	1
80	80	3
93	158	1
78	78	4
38	38	3
140	151	1
21	21	3
81	81	3
159	162	1
176	176	4
57	58	1
116	117	1
161	161	3
159	160	1
76	113	2
11	87	1
85	91	2
40	41	2
55	57	1
24	24	1
72	73	1
98	149	2
179	179	6
71	71	2
149	158	1
167	167	3
47	47	3
129	129	5
170	170	3
53	94	2
97	121	1
67	67	2
68	68	1
170	174	3
97	139	1
185	185	3
122	122	1
31	31	4
97	125	1
18	19	1
118	118	3
18	21	1
41	138	1
44	47	1
11	18	1
86	86	1
142	186	1
15	16	2
144	144	3
48	48	2
8	8	5
116	116	3
95	95	2
36	36	2
47	54	1
19	37	1
32	32	3
109	136	1
108	110	1
165	166	3
83	83	4
159	188	2
53	53	4
177	177	1
86	170	1
104	104	2
110	112	1
141	141	4
162	164	2
154	154	3
183	183	2
114	114	2
127	127	2
56	138	1
146	146	4
159	159	4
158	159	2
62	107	1
168	168	3
182	182	2
148	161	2
153	153	2
133	133	2
147	151	1
57	57	5
77	77	3
116	167	1
58	63	1
28	31	1
111	111	2
181	181	1
0	29	2
33	33	2
111	112	1
128	128	1
113	113	4
82	83	1
114	116	2
156	157	4
120	121	1
123	123	4
43	43	4
17	45	1
72	72	1
14	16	1
37	37	1
41	42	1
108	109	1
3	3	3
65	80	2
79	138	2
148	162	1
164	174	1
91	91	3
64	64	1
63	63	1
67	100	1
110	123	1
133	153	1
96	137	1
166	174	1
71	185	2
64	115	1
76	76	1
127	160	2
112	112	1
124	124	3
147	147	3
105	105	3
79	120	1
1	1	2
125	137	1
148	159	1
151	165	1
174	175	2
125	128	3
15	15	1
125	125	4
146	148	1
33	67	1
172	173	2
187	187	3
75	76	1
26	26	1
54	54	1
16	16	3
45	46	1
189	189	2
153	154	1
150	150	2
6	6	2
78	82	1
32	57	1
100	101	3
178	178	2
34	35	1
163	183	1
155	160	1
186	186	3
151	155	1
182	188	1
173	173	4
56	57	1
0	0	2
137	137	2
18	18	1
99	100	1
28	28	1
123	130	1
119	134	1
102	102	1
13	15	1
159	164	1
143	143	2
108	108	1
162	163	1
11	11	2
137	182	2
26	27	1
157	163	2
68	77	1
117	118	1
184	190	2
157	167	1
78	99	1
94	94	3
127	129	1
45	45	1
39	39	1
109	110	1
157	158	1
145	145	2
149	163	1
60	85	1
2	26	1
154	185	1
90	91	1
8	17	1
30	32	1
28	34	1
47	48	1
10	10	1
55	127	2
109	134	1
4	5	2
145	164	1
117	117	3
99	103	1
62	64	1
139	140	1
19	21	1
165	165	1
118	173	1
34	172	1
55	59	2
97	98	2
31	114	1
148	183	1
67	74	1
136	149	1
132	135	1
126	127	1
79	87	1
180	189	1
95	100	2
131	179	1
90	90	1
53	95	1
46	46	3
46	96	1
145	188	1
99	99	1
82	84	1
91	92	1
129	155	1
93	93	1
12	15	1
106	106	1
97	104	1
20	37	1
14	22	1
96	144	1
72	92	1
145	147	2
97	111	1
61	62	1
52	92	1
134	134	2
109	116	1
89	90	1
158	158	2
108	125	1
164	165	1
46	53	1
62	98	1
163	164	1
5	5	1
61	63	1
30	31	1
176	177	1
163	163	1
74	104	1
126	126	1
174	179	1
117	172	1
190	190	1
105	106	1
26	37	1
154	155	1
28	33	1
142	142	1
44	46	1
82	82	1
112	126	1
181	188	1
94	115	1
54	95	1
129	142	1
32	35	1
188	189	1
76	90	1
17	25	1
65	65	1
83	114	1
56	82	1
27	31	1
4	6	1
75	75	1
28	45	1
94	150	1
167	168	1
140	141	1
20	21	1
30	30	1
108	136	1
55	73	1
148	155	1
65	67	1
184	186	1
187	188	1
174	176	1
36	130	1
29	32	1
21	29	1
171	172	1
77	78	1
146	147	1
137	166	1
174	187	1
85	87	1
