121	121	3
21	21	3
35	85	2
72	72	4
5	115	2
91	91	1
42	42	1
106	109	1
64	64	2
35	86	1
110	110	2
83	83	3
114	115	1
16	22	1
47	47	4
128	128	1
5	5	2
115	115	2
4	4	2
133	133	1
66	66	4
47	93	2
1	1	2
87	90	1
92	94	1
124	124	2
92	92	3
37	60	1
14	15	1
87	87	1
113	113	6
32	33	3
80	80	1
85	85	1
2	2	3
101	101	3
59	59	5
20	20	2
75	75	5
8	18	1
117	119	1
10	11	1
55	55	1
46	46	1
67	67	2
12	13	1
74	74	2
36	36	1
46	47	1
117	117	3
40	40	2
105	105	1
50	50	1
12	12	4
6	128	1
131	131	2
69	69	1
34	34	5
122	122	2
21	25	1
79	80	2
45	45	4
37	37	1
41	41	1
26	26	2
48	79	2
104	107	1
77	107	1
79	79	3
57	86	1
38	84	1
57	58	1
11	11	5
18	123	1
78	88	1
119	119	1
130	130	1
106	106	1
49	50	2
81	127	1
2	19	1
120	120	1
5	129	1
39	39	1
16	16	4
40	80	2
117	118	1
93	94	2
67	68	1
128	129	1
18	18	1
15	19	1
92	99	1
2	119	1
132	132	2
123	124	1
128	131	1
78	78	1
9	9	1
77	77	1
116	116	2
97	98	1
112	112	1
56	114	1
81	126	1
89	106	1
103	103	2
40	42	3
65	65	2
71	71	1
17	17	2
40	41	1
91	103	1
17	99	1
15	15	2
6	86	3
131	132	2
58	120	1
3	3	2
19	19	1
19	21	1
63	63	2
13	15	1
6	7	1
27	29	1
102	103	2
113	114	1
6	132	1
33	33	2
29	43	1
123	123	1
60	60	2
95	95	2
94	94	2
94	95	1
27	32	1
32	34	1
22	23	1
83	85	1
30	42	1
37	131	1
35	35	1
102	102	3
5	81	1
70	70	2
85	127	1
125	125	1
93	93	2
57	57	1
58	86	1
12	60	1
97	131	1
61	61	1
126	126	2
109	109	1
18	26	1
54	55	1
23	23	1
14	14	1
16	17	1
100	129	1
22	22	1
27	27	1
26	50	1
12	122	1
35	36	1
100	100	1
30	41	1
134	134	1
99	99	1
82	82	1
68	68	1
77	112	1
18	116	1
7	85	1
71	72	1
5	23	1
84	84	1
32	32	1
10	125	1
90	90	1
10	10	2
18	100	1
6	6	1
