50	50	3
78	78	3
28	30	2
71	71	2
104	105	1
94	108	2
19	21	1
46	46	4
99	101	1
53	57	3
146	165	3
78	103	1
157	167	1
15	15	2
1	8	1
43	45	2
18	18	3
1	25	1
164	164	2
169	175	1
194	194	1
56	62	2
18	28	1
130	163	1
55	55	2
16	17	2
18	19	1
178	178	5
180	180	1
104	104	2
9	10	2
54	54	1
7	7	3
64	64	4
166	166	2
83	83	2
185	189	1
192	193	1
48	48	3
19	19	2
7	8	2
134	135	1
195	195	1
131	131	3
42	42	3
167	167	4
14	14	2
99	99	3
129	159	1
117	118	3
66	74	1
11	11	5
31	31	2
36	36	1
86	86	1
161	162	1
106	106	2
108	108	2
123	123	2
112	112	1
3	4	1
107	168	1
107	107	1
48	52	1
79	80	2
107	115	2
135	139	3
148	151	1
97	110	1
128	138	1
1	1	3
187	187	2
16	16	4
143	144	1
97	97	3
53	53	2
155	155	1
67	67	5
152	152	1
67	80	2
26	26	1
196	196	3
29	89	1
160	161	2
56	56	1
85	87	1
49	49	2
21	21	2
35	35	1
22	22	2
120	141	1
156	184	1
165	165	1
197	197	3
120	120	1
194	197	1
113	113	1
160	160	2
96	115	1
60	60	1
123	124	2
117	117	1
49	51	1
124	124	1
65	65	1
144	145	2
69	69	1
38	53	1
14	16	1
38	130	1
37	37	1
176	179	1
147	147	2
36	67	1
137	137	3
154	166	1
14	17	1
39	39	6
185	185	3
23	33	1
32	67	1
20	23	1
66	66	2
148	148	1
149	149	2
34	35	1
166	173	2
5	132	2
147	159	1
132	132	2
145	146	1
130	130	3
24	25	1
70	70	3
23	23	3
76	76	1
190	190	2
21	108	1
182	182	2
150	156	1
115	116	2
93	94	2
76	83	2
53	55	1
8	9	1
150	151	1
146	154	1
5	5	4
152	155	1
118	169	1
87	87	1
25	27	1
77	78	1
63	65	1
24	24	5
187	188	1
115	163	1
147	155	1
122	122	1
170	171	1
20	25	1
67	68	1
153	153	1
130	170	2
102	102	2
51	51	1
171	171	3
186	187	2
167	170	1
133	133	1
74	74	1
131	132	1
1	2	3
53	54	1
0	1	1
68	73	1
45	52	2
13	13	1
168	169	1
22	30	1
24	26	1
156	156	2
162	162	1
181	181	2
179	179	2
20	35	1
143	143	1
127	127	1
60	64	1
61	61	1
73	73	1
9	9	1
165	166	1
130	161	1
17	17	2
164	165	1
186	186	1
40	40	3
158	159	1
167	168	1
157	157	1
172	172	1
134	134	1
96	97	1
143	145	1
0	36	2
118	118	1
1	26	1
166	168	2
33	33	1
36	59	1
20	20	1
140	141	1
30	30	3
170	170	1
76	100	2
105	106	1
40	41	2
149	161	1
101	105	2
174	176	1
34	34	1
153	162	1
121	153	1
103	104	1
23	32	1
128	128	1
28	29	1
103	103	1
25	25	2
72	72	2
84	84	1
119	119	2
38	38	1
59	59	2
130	133	1
126	126	2
111	112	1
121	122	1
68	68	1
155	158	1
28	28	1
4	4	1
154	154	2
141	141	1
62	62	1
78	102	1
152	174	1
94	94	1
155	184	2
32	60	1
69	70	1
55	62	1
125	125	1
21	22	3
77	103	1
126	142	1
58	71	1
45	45	1
177	177	1
54	62	1
13	58	1
40	42	1
114	128	1
6	6	1
189	189	1
27	34	2
172	178	1
119	170	1
99	100	1
116	172	1
168	168	1
63	64	1
50	51	1
100	100	1
122	187	1
157	184	1
138	138	1
6	8	1
52	60	1
55	56	1
119	178	1
44	44	1
110	110	1
116	116	1
188	188	1
142	142	1
36	51	1
71	96	1
171	174	1
17	35	1
164	168	1
58	58	1
26	27	1
138	139	1
98	98	1
127	142	1
