132	132	4
25	25	1
35	35	2
124	124	3
120	121	2
104	104	5
16	17	1
115	115	2
126	126	5
9	9	4
88	88	3
101	101	2
104	105	2
139	139	1
111	111	5
35	36	1
100	100	3
103	103	5
85	105	2
36	36	2
131	131	2
22	117	1
24	26	1
72	72	2
3	3	1
129	130	2
89	112	1
4	102	1
10	10	2
7	7	3
3	4	2
122	122	2
100	129	2
16	109	3
102	103	2
0	16	1
21	27	1
85	94	2
33	35	2
2	2	3
90	90	1
8	8	1
36	37	2
27	27	2
31	31	2
33	33	10
4	15	1
102	114	1
12	76	1
18	29	1
87	87	1
19	19	4
19	23	1
1	4	1
77	78	2
32	32	4
114	114	4
74	75	1
110	111	2
92	92	6
6	6	1
133	133	1
13	13	5
4	8	1
7	8	2
94	94	1
112	112	2
129	129	3
77	89	1
15	17	1
109	109	1
83	83	2
79	79	1
90	122	1
97	97	3
14	28	1
76	106	2
97	102	2
114	115	2
4	4	3
73	84	1
98	99	3
19	24	1
23	23	2
93	117	1
71	71	2
15	26	1
133	134	1
15	15	3
89	89	2
85	111	1
127	127	2
123	130	3
113	113	3
91	101	1
117	118	2
93	136	3
2	7	2
3	88	3
22	22	2
136	136	2
126	127	1
86	104	1
123	123	1
117	117	4
110	110	1
18	118	1
102	102	3
83	85	1
125	125	1
108	108	2
22	23	2
84	89	1
121	121	2
26	27	1
136	137	1
28	28	1
75	75	2
93	93	1
22	76	1
80	80	2
124	140	1
24	25	1
134	134	2
72	78	1
92	114	2
81	81	1
7	88	1
38	38	1
18	18	3
94	103	1
29	29	2
95	96	3
134	135	2
30	30	1
86	86	1
72	73	1
77	77	1
102	134	1
128	129	1
104	110	1
1	1	2
5	6	1
28	106	1
76	77	2
106	106	1
78	82	1
24	24	2
5	89	1
97	107	2
29	31	1
112	119	2
20	20	1
21	21	5
78	83	1
82	83	2
1	12	1
117	122	1
99	100	1
30	31	1
91	91	1
14	18	1
17	17	2
16	25	1
99	99	1
96	97	2
82	82	1
78	105	1
38	116	1
112	113	2
5	88	1
102	110	1
92	93	1
16	16	1
73	75	1
31	32	1
119	122	1
72	89	1
130	130	1
80	82	2
106	127	1
25	93	2
91	92	1
3	74	1
138	138	1
37	37	1
19	118	1
8	72	1
13	14	1
107	107	1
0	102	1
27	33	1
10	11	1
74	78	1
140	140	1
78	78	1
34	34	1
98	98	1
10	89	1
93	94	1
26	26	1
21	22	1
11	11	1
95	95	1
108	114	1
18	19	1
