0	74	1
101	101	1
20	20	2
7	43	1
26	26	4
120	120	6
86	127	1
0	8	1
75	75	7
77	84	1
41	41	2
133	133	4
38	40	1
35	35	4
116	116	3
123	123	3
30	30	1
9	10	1
78	78	3
42	121	1
33	33	4
111	111	3
85	85	4
113	113	2
11	112	1
115	115	6
70	70	3
16	49	2
121	121	2
0	129	2
12	12	1
88	99	1
2	2	2
120	132	1
102	102	5
99	99	2
15	16	2
44	44	5
87	87	1
62	62	3
119	134	2
8	34	1
27	27	2
23	23	4
134	134	5
45	46	1
16	16	2
45	45	3
56	98	1
121	122	1
17	17	1
25	26	2
95	95	2
24	24	1
43	43	1
67	67	1
10	10	2
68	68	1
127	131	1
47	48	1
21	131	1
35	41	1
47	108	1
124	128	2
41	42	1
65	65	1
106	106	1
112	133	1
66	67	1
18	18	1
56	83	1
5	6	2
80	80	2
88	88	3
3	13	1
17	27	1
88	116	1
83	83	1
104	109	1
97	99	1
7	8	1
34	34	3
128	128	3
5	80	1
99	100	1
44	45	2
16	29	1
63	63	1
131	133	2
100	103	1
69	70	1
40	132	1
38	128	1
117	117	3
107	107	2
118	119	2
9	9	2
120	127	1
42	42	1
132	132	1
83	84	1
12	69	1
91	91	1
129	129	1
95	97	1
125	125	3
133	134	2
55	55	1
72	77	1
1	2	1
130	132	1
90	101	1
42	133	1
76	76	2
61	61	1
44	130	1
63	64	2
23	25	1
41	44	1
66	66	1
72	72	2
38	38	1
58	58	1
56	115	2
14	19	1
127	128	1
26	78	1
118	118	2
105	105	2
48	48	2
29	30	2
69	71	1
11	11	2
21	49	1
31	31	1
112	112	1
109	109	2
127	129	2
37	42	1
24	34	1
89	89	2
40	40	1
6	56	1
78	110	1
73	73	1
57	57	2
86	90	1
82	83	1
101	102	2
86	95	1
93	93	1
92	92	1
39	39	1
23	24	1
106	109	1
106	110	2
14	14	1
31	84	1
73	94	1
69	69	2
61	64	1
99	108	1
15	50	1
33	111	1
46	46	3
64	64	2
127	127	4
0	0	2
8	8	2
31	111	1
32	41	1
58	59	2
124	132	1
108	108	1
103	103	1
4	4	1
32	57	1
124	124	1
25	29	1
60	70	1
11	116	1
91	93	1
17	20	2
92	101	1
130	134	1
124	127	1
15	15	2
42	80	1
77	78	1
91	98	1
25	40	1
2	85	1
38	130	1
81	81	1
17	18	1
30	31	1
98	98	1
32	35	1
59	59	1
3	3	1
82	82	1
