8	8	1
95	95	3
33	34	1
88	98	3
25	27	3
98	98	1
87	87	1
155	155	2
13	13	1
12	17	3
150	151	2
116	118	1
121	168	1
121	122	1
97	97	3
4	21	1
136	136	4
22	22	2
129	129	2
123	131	2
25	25	2
114	114	3
65	139	1
28	28	1
32	32	2
111	112	1
81	81	1
162	162	1
35	35	2
152	163	1
86	109	1
78	150	1
41	41	1
16	17	2
71	71	3
180	180	2
142	149	2
100	100	1
81	95	1
76	77	2
64	65	2
82	85	2
11	20	1
176	176	2
37	37	3
64	64	2
118	118	1
153	153	2
36	36	2
151	174	1
140	140	3
31	50	1
119	127	1
81	131	1
66	67	2
0	0	1
58	147	2
103	123	2
130	131	1
111	126	1
160	161	1
43	43	3
1	1	2
26	26	1
51	162	1
111	111	2
66	66	2
71	77	1
103	103	1
50	124	1
177	177	2
20	20	2
72	72	1
5	7	2
127	127	3
163	163	3
53	54	1
115	115	1
163	168	1
53	53	5
110	111	2
38	41	2
54	55	1
64	139	1
143	143	1
142	143	2
174	177	1
29	41	1
23	40	1
44	44	1
124	127	1
68	73	1
37	61	1
58	58	1
119	120	1
12	12	2
120	120	5
99	166	1
59	59	2
106	106	2
130	133	2
12	41	1
170	170	3
131	133	1
105	152	1
55	57	1
126	147	1
27	180	1
38	38	1
11	11	1
116	116	1
81	87	1
63	65	1
93	93	2
79	80	2
43	44	1
137	137	2
55	56	2
15	32	1
53	59	1
160	160	3
18	18	3
164	164	1
38	99	1
129	143	1
88	89	1
9	9	1
1	4	1
60	60	1
7	8	1
8	20	1
155	156	2
152	167	1
11	18	2
68	68	1
110	112	1
44	61	1
100	101	1
0	1	2
89	94	1
8	13	1
171	171	3
124	124	2
52	162	2
73	73	2
161	161	3
67	83	1
104	104	3
102	102	2
83	87	1
117	128	1
65	65	2
140	150	1
91	91	1
42	42	3
14	36	1
12	35	1
75	75	1
145	145	1
6	37	1
62	97	1
122	122	2
1	3	1
156	156	2
9	136	1
37	43	1
55	55	1
33	39	1
105	105	2
134	157	1
159	159	3
4	27	1
4	13	1
108	108	2
38	57	1
110	110	2
45	85	1
129	130	1
163	164	1
63	97	1
168	168	1
134	134	2
87	89	1
146	170	1
4	4	1
166	166	1
1	72	1
107	107	1
79	79	2
27	27	1
132	157	1
4	5	1
121	121	1
11	24	1
72	86	1
24	63	1
92	110	1
55	149	1
10	10	2
171	172	1
14	30	1
29	175	1
142	169	2
14	84	1
29	29	1
56	57	1
107	109	1
176	179	1
132	132	2
59	92	1
52	52	2
147	147	1
126	127	1
172	172	1
157	158	1
65	66	1
169	170	1
178	179	1
96	96	2
113	113	1
118	163	1
113	114	1
175	175	1
63	63	1
91	92	1
85	163	1
20	21	1
83	84	2
41	45	1
129	167	1
9	37	1
99	116	1
133	133	1
86	94	1
135	180	1
33	43	1
146	179	1
21	21	1
92	92	1
37	38	1
31	31	1
71	72	1
131	140	1
144	144	1
85	85	1
97	100	1
104	109	1
138	138	1
117	117	1
10	132	1
112	121	1
128	144	1
22	66	1
23	97	1
67	67	1
144	165	1
28	100	1
73	78	1
89	89	1
31	51	1
23	24	1
14	15	1
120	125	1
102	109	1
