144	144	3
22	22	3
176	176	1
137	137	3
115	115	2
16	16	2
80	81	1
27	31	1
151	151	1
62	62	1
64	92	1
162	162	3
167	167	2
1	1	1
8	8	1
165	165	1
0	0	2
125	125	1
100	100	2
93	154	1
114	114	2
86	90	1
65	95	1
149	149	2
171	171	2
83	84	1
26	26	3
42	42	1
73	73	1
132	158	1
52	52	2
89	133	1
66	89	1
38	67	1
153	153	2
86	86	1
110	122	1
157	157	1
133	134	1
60	61	1
32	32	1
50	98	1
104	104	1
142	142	4
129	129	4
42	45	1
0	49	1
65	77	1
14	14	2
127	134	1
2	28	3
1	6	1
30	59	1
150	150	1
66	66	1
67	67	1
33	90	1
7	7	4
159	159	1
153	163	1
9	9	1
59	164	1
156	156	1
6	6	1
42	43	1
81	87	1
79	79	3
97	97	3
122	122	2
154	154	3
36	36	2
107	107	1
56	56	3
95	139	1
173	173	1
78	78	1
140	152	1
102	102	2
160	160	2
81	81	1
61	159	1
147	147	1
141	141	2
108	151	1
88	89	2
103	103	1
15	15	5
11	11	2
113	113	2
146	172	1
60	60	2
81	82	1
133	133	2
7	20	1
67	68	1
88	88	2
18	19	1
99	104	1
110	110	1
12	14	1
97	98	1
87	87	1
16	30	1
168	168	1
68	130	2
27	33	1
8	166	1
112	112	2
96	98	2
172	172	1
80	132	1
140	143	2
58	58	1
137	138	1
136	140	1
143	145	1
85	86	1
5	12	1
1	2	1
131	131	2
109	109	1
80	80	1
121	121	1
130	130	1
19	20	2
81	160	1
94	94	1
130	145	1
18	18	1
27	27	1
164	164	1
145	170	1
20	20	4
76	76	2
114	142	1
33	33	1
155	155	2
2	3	1
56	57	1
111	139	1
132	132	1
139	149	1
3	3	1
25	26	1
146	146	1
63	63	1
124	124	1
40	40	2
126	136	1
39	65	1
136	136	4
88	90	1
17	51	1
4	4	2
141	142	1
61	61	3
90	97	1
50	50	2
139	139	2
180	180	1
158	158	1
112	155	1
167	168	1
120	166	1
40	41	1
55	58	1
72	72	1
38	155	1
15	29	1
122	162	1
10	11	3
39	40	1
143	143	1
49	49	1
54	54	2
105	105	1
117	117	1
127	127	2
53	81	1
96	109	1
55	55	1
101	167	1
28	28	1
111	111	1
11	12	1
174	174	1
106	106	1
119	120	1
86	87	1
126	126	1
141	143	1
6	11	1
77	77	1
108	108	1
119	147	1
91	92	1
35	35	1
121	122	1
