42	42	4
157	157	2
110	110	1
145	145	2
139	140	4
11	11	3
167	168	2
16	16	1
82	82	1
109	109	1
108	139	1
47	47	5
18	20	1
21	22	1
151	179	1
186	186	3
57	57	4
132	132	2
142	142	2
118	118	2
121	122	1
189	189	1
85	86	2
63	63	3
169	169	1
53	78	1
128	130	1
123	123	2
105	105	1
126	126	2
83	83	5
156	159	1
152	152	5
176	176	1
1	1	3
143	190	1
41	55	2
172	178	1
10	10	4
19	19	2
76	76	5
84	84	3
21	28	1
43	45	3
101	102	1
29	35	1
78	78	2
48	96	1
37	37	1
156	170	2
23	24	1
2	5	1
36	36	1
39	40	3
103	104	2
159	159	1
112	113	1
39	39	3
44	45	1
185	185	2
23	23	2
122	122	1
160	161	1
38	40	2
65	66	2
96	96	1
146	146	3
56	57	1
35	36	1
86	86	2
134	134	1
106	106	1
133	135	1
6	6	3
17	24	1
166	172	1
152	178	1
83	84	2
174	174	1
87	88	1
17	21	1
28	35	1
170	170	3
60	102	2
88	88	2
4	4	1
130	130	2
73	95	1
38	39	2
123	178	1
28	28	1
56	90	1
81	81	1
106	109	1
124	145	2
79	79	1
85	85	1
24	47	1
156	157	1
148	148	3
100	101	2
150	150	2
159	160	2
0	1	2
147	185	1
124	124	1
62	62	1
26	41	1
95	98	1
150	151	1
91	91	1
160	160	1
40	40	2
86	137	1
26	26	2
114	114	2
2	2	1
106	122	1
75	82	1
131	132	1
27	27	3
179	179	1
89	90	1
8	13	1
96	97	1
106	140	1
54	55	1
125	165	1
69	120	1
185	186	2
122	125	1
149	149	1
128	128	1
61	61	1
118	137	1
93	94	2
175	176	1
73	91	1
108	133	1
116	116	1
188	190	1
14	14	2
78	79	3
112	112	1
184	186	1
24	24	3
100	108	1
43	108	1
40	41	1
121	136	1
84	108	1
147	173	1
25	25	2
113	184	2
165	179	1
15	15	1
155	155	1
33	35	1
22	22	1
161	184	1
116	174	1
65	80	1
166	166	1
165	165	1
68	73	1
21	126	1
29	29	2
54	54	2
151	151	2
52	52	1
138	139	1
164	164	1
91	92	1
23	47	2
61	62	1
99	99	1
90	90	1
13	13	1
14	18	1
153	178	1
144	177	1
71	72	1
165	166	1
12	19	1
61	63	1
99	100	2
183	184	1
136	137	1
48	48	2
26	33	2
73	73	2
167	182	1
7	7	1
5	13	1
83	88	1
42	100	1
38	38	1
178	178	1
169	170	1
59	59	1
182	182	1
92	92	1
141	141	1
0	0	1
102	102	1
103	103	2
184	184	1
158	159	1
37	79	1
176	177	1
80	80	1
68	72	1
36	37	1
153	153	1
72	72	1
17	17	1
10	35	1
8	8	1
65	97	1
71	71	1
163	163	1
120	178	1
