45	57	1
18	18	7
7	7	7
14	15	2
96	96	3
34	34	5
81	81	10
7	12	1
90	90	2
6	80	1
17	18	2
111	111	12
56	56	3
15	79	1
13	78	1
98	98	3
63	63	7
70	133	2
107	107	3
56	57	2
43	43	8
128	128	9
115	116	2
58	58	4
27	27	1
118	118	8
86	108	1
45	45	5
112	112	4
20	31	1
120	120	3
108	108	4
32	37	1
8	8	3
95	95	4
94	96	2
77	77	4
63	64	1
108	118	3
31	31	3
36	37	2
71	71	2
74	75	1
23	23	3
123	123	7
117	118	3
13	13	5
81	92	1
4	5	3
106	106	2
61	61	3
9	9	3
20	24	1
78	93	2
35	66	1
38	40	1
8	29	2
47	47	4
57	58	1
124	125	1
91	91	7
123	130	1
102	102	7
75	75	1
23	84	1
94	94	7
45	46	2
1	3	1
59	103	1
103	103	2
30	36	1
44	48	1
44	57	1
76	76	2
88	102	2
126	132	1
87	102	1
104	104	5
84	84	5
62	62	4
11	11	1
9	10	4
26	28	1
26	27	1
17	17	6
50	57	2
72	72	3
102	130	1
130	132	1
125	130	1
133	133	6
59	59	8
100	131	1
14	14	3
25	37	2
115	115	3
19	19	6
85	86	3
92	129	3
46	47	1
20	45	1
37	39	2
10	11	2
129	129	3
64	64	3
126	126	3
30	31	3
33	33	6
107	109	1
32	33	3
33	34	2
58	105	1
64	67	1
66	66	3
124	124	3
86	100	1
40	40	2
84	85	1
3	3	2
37	37	3
10	10	2
131	132	2
20	22	2
41	41	4
81	107	1
28	103	1
91	92	4
42	42	4
89	89	5
129	132	1
117	117	4
76	111	1
91	101	1
46	46	4
69	69	4
90	91	1
99	99	4
107	121	1
51	51	1
16	17	4
97	97	2
26	37	1
83	83	5
119	119	4
70	70	2
21	21	3
107	108	2
24	28	3
65	65	3
121	121	3
91	94	1
44	44	3
29	32	1
74	74	3
15	132	1
95	96	1
124	127	1
104	106	2
15	93	1
28	37	1
87	87	3
88	88	2
68	68	3
34	35	3
80	81	2
9	30	1
85	85	3
10	33	1
96	99	1
86	86	1
32	88	1
38	38	3
45	60	1
10	17	1
15	15	4
93	93	1
134	134	1
1	61	1
78	78	2
11	20	1
116	116	6
97	99	2
5	5	1
24	29	1
42	45	1
26	121	1
106	133	1
80	80	6
94	95	2
63	68	1
39	42	1
92	128	1
114	114	4
68	70	1
99	100	2
110	110	4
7	46	1
109	109	1
15	16	1
104	105	1
114	122	1
117	124	1
28	28	4
18	34	1
85	87	1
31	125	1
99	132	1
89	90	1
29	29	2
132	132	1
22	22	2
130	130	2
92	121	1
79	109	1
36	36	3
82	82	4
45	96	1
79	79	4
7	33	1
3	4	1
73	73	2
20	20	3
39	40	1
3	61	1
102	124	1
57	108	1
6	10	1
5	25	1
71	72	1
97	121	1
25	79	1
21	23	1
77	113	2
30	100	1
35	35	2
26	26	2
27	122	2
29	84	1
12	12	1
125	125	1
16	16	2
6	6	3
31	34	1
81	89	1
25	102	2
22	23	2
31	33	1
69	70	2
47	116	1
4	14	1
11	78	2
60	60	2
83	85	1
92	92	3
20	32	2
36	41	1
94	129	1
87	94	1
87	114	2
61	68	1
24	38	1
90	103	1
79	100	1
103	104	1
116	123	1
77	107	1
84	87	1
105	132	1
6	48	1
35	115	1
87	124	1
30	30	1
55	60	1
4	12	1
127	127	1
113	113	2
103	128	1
49	79	1
107	110	1
56	70	1
45	62	1
63	65	1
106	125	1
87	89	1
22	27	1
9	18	1
131	131	2
32	79	1
73	74	1
64	66	1
122	122	1
23	29	1
109	111	1
24	24	1
7	13	1
39	39	1
120	121	1
12	20	1
20	41	1
63	71	1
20	21	1
46	119	1
105	105	1
76	110	1
1	1	1
46	60	1
10	19	1
40	42	1
54	69	1
55	57	1
78	112	1
32	95	1
50	50	1
36	38	1
116	131	1
4	4	2
71	77	1
35	73	1
56	58	1
114	115	1
14	93	1
16	22	1
66	72	1
7	81	1
32	35	1
2	5	1
133	134	1
36	92	1
18	19	1
