39	39	2
64	66	1
121	123	1
161	164	1
109	110	2
108	108	7
177	185	2
180	180	3
149	149	3
11	69	3
15	15	3
180	184	2
43	43	5
101	159	2
194	194	4
48	48	2
53	53	3
113	113	3
27	189	1
39	166	1
39	119	3
135	135	1
141	141	4
145	146	1
101	161	1
52	52	1
50	50	1
34	62	1
19	26	1
157	158	4
184	184	5
34	34	1
88	88	2
0	4	1
125	189	1
37	179	1
10	10	3
168	168	4
22	62	1
118	118	1
35	158	1
197	197	2
185	194	1
100	100	3
72	72	2
7	7	4
97	97	3
119	119	2
45	47	1
66	82	1
55	55	3
50	153	1
153	153	3
14	14	1
94	95	4
155	155	1
166	167	1
41	41	2
6	6	1
177	177	1
56	56	1
77	77	2
112	112	2
183	183	4
123	123	2
13	13	3
116	116	1
18	23	2
47	47	4
2	4	1
104	104	1
194	196	1
174	174	2
46	46	1
70	70	1
140	140	2
173	173	1
100	101	1
34	158	1
94	96	2
192	192	2
0	36	1
170	170	2
96	97	1
121	122	1
64	67	1
172	172	1
24	25	1
95	95	1
193	193	3
83	83	1
15	185	2
16	57	1
164	164	2
27	27	3
76	76	1
40	40	4
136	136	1
154	154	2
114	114	1
64	64	2
62	63	4
175	178	1
77	87	1
87	87	3
20	20	3
35	35	2
60	60	2
150	150	6
50	51	1
60	61	3
45	45	2
108	175	2
85	85	2
124	124	4
26	26	2
84	84	2
25	25	5
79	168	1
34	36	1
124	125	2
74	74	1
115	117	1
5	6	1
124	186	1
134	134	1
173	177	1
185	188	1
120	120	1
73	75	1
163	163	2
163	165	2
66	66	1
189	190	1
52	69	3
172	177	1
160	160	3
19	19	1
38	186	1
31	31	1
124	187	1
54	55	1
186	186	1
115	115	2
139	140	2
2	2	1
32	32	1
111	111	1
102	132	1
80	81	1
105	105	2
190	191	1
78	78	1
185	185	1
1	1	1
65	65	2
34	108	1
112	117	1
74	76	1
98	98	2
44	44	1
22	30	1
159	165	1
94	94	1
182	182	3
166	166	1
11	38	2
49	49	2
106	106	1
144	144	1
133	134	1
138	138	1
109	111	2
28	180	1
7	55	1
140	142	1
155	156	1
132	132	1
187	187	1
76	89	1
93	159	1
61	61	1
172	174	1
186	192	1
105	106	1
3	3	1
137	144	1
111	120	1
165	166	1
81	85	1
69	69	3
0	2	1
117	118	1
195	197	1
129	129	1
18	19	1
196	197	1
111	170	2
42	42	1
61	62	1
18	22	1
132	133	1
70	156	1
146	146	1
38	184	1
128	128	1
114	177	1
178	178	1
9	15	1
74	75	2
127	127	1
2	75	1
5	5	1
107	171	1
1	75	1
110	113	1
49	50	1
80	174	1
126	127	1
52	53	1
34	65	1
108	113	1
8	55	1
143	143	1
38	38	3
169	170	1
188	188	1
36	60	1
16	17	1
175	175	1
77	107	1
9	9	1
99	99	1
107	107	1
