0	1	7
109	110	1
79	80	2
5	20	3
126	127	3
125	126	5
108	109	1
129	129	7
133	136	1
105	105	8
132	132	6
11	11	3
4	5	4
139	139	7
90	90	6
28	28	1
81	81	3
128	129	2
104	105	2
8	8	2
108	119	1
15	15	3
14	15	1
78	78	5
86	86	2
117	117	5
136	137	2
88	89	1
18	19	2
99	101	1
125	125	4
135	135	3
111	117	1
116	123	1
35	37	2
16	25	2
107	107	5
22	23	1
8	10	1
117	119	1
126	126	4
108	110	1
25	25	4
88	88	4
16	16	5
79	79	8
29	29	3
9	9	5
100	100	6
76	77	1
14	14	3
101	126	1
72	72	7
114	114	5
110	110	2
115	115	3
94	94	2
106	106	4
2	2	1
20	71	1
74	74	6
114	115	1
81	84	1
9	11	1
20	26	2
80	80	3
35	35	4
27	27	1
6	114	1
97	97	1
81	82	2
34	35	4
103	103	1
72	73	2
100	101	1
3	5	2
32	32	1
108	108	2
102	102	5
23	23	2
101	101	3
98	98	3
18	18	3
26	104	1
28	30	1
4	4	4
30	30	4
0	14	1
95	95	4
1	1	6
118	118	1
134	137	1
82	82	1
15	69	1
140	140	6
20	20	5
122	122	1
134	134	4
13	17	1
7	7	3
122	126	1
96	97	1
26	26	2
112	112	2
0	0	1
1	3	1
83	84	1
12	16	2
120	120	3
22	22	3
20	31	1
120	121	1
138	138	2
24	83	2
17	17	4
115	116	3
104	107	1
71	75	1
127	129	1
71	78	1
105	107	1
112	113	1
118	122	4
120	122	1
84	84	5
121	121	3
13	25	1
7	9	3
76	76	2
38	38	3
85	85	2
91	91	2
29	30	2
75	75	3
5	5	5
127	128	1
95	96	2
15	16	1
102	103	1
131	131	1
36	36	2
78	84	1
31	31	4
104	104	2
134	138	1
23	26	1
123	123	5
133	133	3
109	109	2
124	124	1
3	38	1
10	10	3
96	96	2
78	86	1
110	111	3
99	99	2
77	77	7
107	111	2
4	20	1
116	116	1
9	38	1
13	13	1
82	85	1
11	17	1
128	128	2
113	113	1
6	6	1
119	128	1
71	123	1
3	3	4
11	12	1
89	90	2
130	130	2
5	6	2
111	111	1
99	100	1
27	72	1
21	21	2
93	93	2
111	121	1
81	85	1
7	8	1
129	130	1
89	91	1
77	79	1
6	37	1
73	106	1
12	12	2
91	92	1
1	2	1
33	33	1
9	12	1
101	102	1
95	110	1
87	103	1
24	25	1
37	132	1
77	78	1
103	104	1
83	83	2
109	119	1
103	107	1
87	116	1
87	88	2
24	24	1
135	136	1
92	92	2
71	71	1
32	97	1
73	75	1
112	122	1
94	98	1
11	16	1
21	22	1
94	112	1
8	9	1
110	118	1
122	129	1
108	115	1
135	138	1
102	117	1
37	37	1
118	123	1
7	76	1
134	140	1
137	137	1
109	117	1
114	118	1
24	26	1
123	124	1
78	87	1
98	132	1
