27	28	2
34	34	6
24	103	2
74	74	5
65	69	1
52	53	3
76	78	1
100	100	2
55	55	4
48	80	1
50	52	2
24	24	5
34	57	1
89	89	2
73	73	9
38	84	1
27	88	1
61	61	4
97	97	4
67	67	3
65	81	1
71	77	1
104	104	4
54	54	2
20	100	1
83	83	6
63	63	1
44	44	1
32	32	4
40	40	2
42	43	2
83	94	1
84	85	1
23	24	1
27	27	6
51	51	7
46	46	6
57	57	3
76	97	2
87	88	3
81	82	1
96	96	5
45	46	1
64	96	1
45	93	1
85	86	1
91	91	3
90	90	4
52	54	1
41	41	5
58	60	2
43	45	1
68	93	1
50	50	6
33	33	2
69	69	9
72	73	3
66	66	2
68	68	5
94	94	2
81	89	1
76	76	2
53	54	2
29	29	2
86	86	2
38	38	1
64	64	1
81	81	4
69	70	3
30	30	2
95	96	3
25	26	1
42	46	1
89	90	1
105	105	3
65	71	1
56	56	5
82	82	2
76	88	1
65	65	3
55	59	1
53	95	1
54	65	2
30	36	1
26	27	4
103	103	4
41	45	1
53	53	1
46	57	1
59	59	5
26	29	1
102	102	4
52	52	1
25	57	1
70	104	1
34	84	2
77	77	4
60	60	3
21	21	3
37	48	2
57	58	2
62	63	3
35	35	2
55	100	1
79	79	1
49	49	4
62	99	3
60	61	1
55	72	1
71	76	1
79	80	1
92	96	1
44	53	1
62	62	1
88	88	2
26	26	3
61	69	1
20	39	1
35	36	2
20	20	1
73	79	1
95	95	5
98	98	2
75	95	1
98	99	1
102	103	2
37	38	1
21	35	2
59	94	1
39	39	2
23	33	1
70	70	5
36	36	2
50	58	1
106	106	1
43	43	3
107	107	1
89	99	1
30	51	2
25	41	1
72	72	7
23	23	2
101	101	4
91	100	1
28	28	2
47	47	2
25	25	2
71	71	3
39	45	2
31	104	1
47	49	2
99	99	4
78	78	2
68	69	1
85	85	1
55	76	2
22	30	1
26	44	1
58	77	1
80	82	1
93	94	2
91	92	1
92	94	1
41	43	1
86	98	1
22	54	1
27	30	1
24	96	1
31	32	1
96	99	1
93	93	4
50	91	1
57	79	1
52	79	1
67	92	1
22	22	2
23	39	1
24	93	1
65	89	1
80	80	1
41	42	1
48	56	1
63	99	1
74	89	1
51	55	1
49	61	1
29	53	1
45	45	1
86	94	1
103	104	1
75	75	1
66	97	1
37	69	1
22	23	1
71	72	1
29	30	1
74	91	1
