45	45	6
129	129	4
67	67	3
78	87	1
1	1	2
23	28	1
37	37	3
57	57	3
108	108	6
123	124	1
106	106	4
17	17	5
101	104	1
74	74	5
1	5	1
57	70	2
57	87	1
15	30	1
77	104	1
59	59	3
62	62	7
76	77	1
78	79	1
2	2	5
17	18	2
76	120	1
42	42	4
84	84	3
45	134	1
2	78	3
88	88	2
122	122	1
107	107	6
14	22	1
83	83	3
25	25	1
12	12	5
16	16	4
0	0	4
17	82	1
58	94	1
122	134	2
103	126	1
100	115	1
111	111	7
18	43	2
128	128	8
83	84	3
134	134	4
107	122	1
11	13	1
114	115	1
92	124	1
7	83	1
41	133	2
43	46	1
28	28	1
13	14	2
13	22	2
26	26	2
133	133	4
5	5	4
33	40	1
18	18	6
77	77	6
7	8	4
101	101	1
23	24	2
112	113	3
65	65	5
12	22	1
64	64	5
65	118	1
49	56	1
112	117	1
96	99	1
12	14	1
79	80	1
30	30	1
98	105	2
92	92	3
34	94	2
91	91	2
36	36	5
113	125	1
22	31	1
56	56	7
69	69	2
11	11	8
10	13	2
100	101	2
115	115	2
73	73	3
4	31	1
56	57	2
66	67	2
96	97	2
90	90	1
94	94	4
108	111	1
130	130	7
124	125	2
132	133	1
97	98	2
118	119	1
93	117	1
33	118	1
93	93	4
99	99	4
95	95	3
27	28	1
39	40	1
29	30	1
61	62	2
82	82	6
9	9	5
112	112	4
6	6	6
6	12	1
61	61	8
66	66	4
58	58	2
78	127	1
33	33	2
101	102	1
39	78	2
66	112	2
73	108	1
47	47	1
99	104	1
121	121	5
26	27	1
100	100	3
12	13	2
79	79	4
82	108	3
58	60	2
10	10	7
110	115	1
47	62	1
22	22	2
131	132	2
43	78	2
72	72	7
55	56	1
90	93	1
123	123	3
113	131	2
9	19	1
85	123	2
8	8	2
120	120	6
61	85	1
119	120	2
57	58	2
87	87	2
21	21	1
125	125	2
7	26	1
41	110	1
127	127	2
101	105	2
69	70	2
44	68	1
31	92	1
13	15	1
41	42	1
24	24	2
2	70	1
31	36	2
5	7	1
19	27	1
34	48	1
103	103	1
41	41	1
28	29	2
46	132	2
72	112	1
97	97	2
15	15	1
15	16	1
32	47	1
7	44	1
68	68	3
71	71	1
34	34	3
38	38	2
110	111	2
43	56	2
12	17	1
95	131	1
75	75	3
10	31	1
32	33	1
16	43	2
103	109	1
76	76	2
77	80	1
51	54	2
8	31	1
82	84	1
126	126	1
36	112	1
56	77	1
110	110	1
86	86	2
70	111	1
33	117	2
58	120	1
4	4	3
35	35	2
68	82	1
93	94	3
131	134	1
128	131	1
44	44	4
109	110	2
72	134	1
102	114	1
14	14	2
59	110	1
18	77	1
3	18	1
18	79	1
109	109	5
81	81	1
86	87	1
57	80	1
119	119	4
96	96	3
124	126	1
131	131	1
89	90	1
2	3	2
29	29	1
77	79	1
106	109	1
12	131	1
124	124	1
14	15	1
114	114	3
55	55	1
10	12	2
95	118	1
121	134	1
105	105	3
122	123	1
88	89	1
2	30	2
35	41	1
94	115	1
114	127	1
30	32	1
1	47	1
85	86	1
76	90	1
29	31	1
64	65	1
34	86	1
11	128	1
38	39	1
64	76	1
119	121	1
61	125	1
60	119	1
7	35	1
90	109	1
113	113	3
90	91	1
29	32	1
4	117	1
100	105	1
32	32	1
60	60	2
16	83	1
98	98	1
60	61	1
116	116	2
108	116	1
28	39	1
29	34	1
2	4	1
128	129	1
21	22	1
1	2	1
19	77	1
18	72	1
35	36	2
20	42	1
113	114	1
38	42	1
43	43	1
20	20	4
65	76	1
46	46	1
120	121	1
16	85	1
70	70	1
45	71	2
15	20	1
129	134	1
98	100	1
118	118	1
63	63	1
34	45	1
81	131	1
133	134	1
27	27	1
47	59	1
33	35	1
7	7	1
89	101	1
50	50	1
14	82	1
103	105	1
10	14	1
105	106	1
33	34	1
29	33	2
43	47	1
115	130	1
31	31	3
95	98	1
19	19	1
98	99	1
4	10	1
45	46	1
130	132	1
85	85	1
116	117	1
17	22	1
123	128	1
129	130	1
1	63	1
36	40	1
20	28	1
42	44	1
23	33	1
32	34	1
55	58	1
18	48	2
82	107	1
128	133	1
62	65	1
60	76	1
75	76	1
114	120	1
12	43	1
28	36	1
85	102	1
9	10	1
62	118	1
118	120	1
75	87	1
