164	164	3
53	53	3
111	126	1
123	124	4
9	12	1
145	145	3
125	125	2
34	146	1
14	15	1
51	51	1
101	101	3
112	113	1
74	74	1
107	107	3
71	74	2
112	112	3
99	101	1
129	130	2
75	154	1
80	87	2
14	22	1
10	142	2
9	10	2
27	27	6
2	76	2
77	77	3
155	155	1
13	157	1
138	138	3
94	94	6
127	128	1
18	18	1
117	169	1
76	77	1
52	145	1
84	164	1
45	45	3
104	148	1
81	83	1
101	168	1
25	25	3
89	89	3
84	84	2
105	116	1
67	68	1
49	123	2
134	154	2
168	170	2
2	41	1
157	159	2
115	122	1
95	96	1
4	4	1
135	135	1
55	55	1
153	164	1
43	44	2
67	81	2
119	148	1
52	90	1
150	150	2
98	98	4
136	143	1
86	151	1
105	105	2
72	72	1
38	39	1
96	152	2
54	54	2
168	168	1
50	55	1
119	119	3
12	14	2
130	131	2
0	1	3
118	118	2
133	134	2
140	141	1
105	159	1
71	152	1
79	87	1
13	13	4
110	110	2
153	153	1
109	109	3
79	79	1
16	16	1
92	92	2
166	167	1
115	123	2
73	73	2
106	106	1
129	129	1
103	104	1
37	37	2
106	111	1
68	131	1
167	168	2
148	148	3
139	142	1
64	64	1
143	144	1
91	92	1
75	75	1
43	43	2
130	130	1
10	11	2
48	48	1
90	90	1
38	38	1
1	144	1
103	168	1
108	108	4
112	156	1
62	67	3
87	87	1
3	17	1
15	15	1
1	1	2
75	105	1
159	159	3
84	105	1
151	152	2
99	122	1
50	84	1
146	146	1
39	88	1
141	141	1
151	151	1
34	35	2
22	56	1
128	129	1
127	154	1
70	70	2
58	165	1
68	68	1
119	168	1
7	71	1
11	11	2
12	12	1
49	49	2
86	91	1
132	132	1
51	53	1
154	154	2
44	45	1
156	156	2
33	33	1
157	157	1
6	7	2
96	96	1
50	50	1
104	104	2
46	53	1
85	86	2
132	137	1
14	14	1
117	117	1
69	70	1
80	83	1
124	124	1
169	169	1
73	79	1
50	53	1
4	5	1
147	148	1
46	46	2
165	166	1
17	103	1
122	151	1
97	97	1
56	56	1
120	120	1
25	83	1
50	54	1
56	85	1
85	85	1
2	39	1
129	154	1
36	36	2
19	19	1
113	114	1
39	39	1
20	20	1
79	88	1
123	163	1
160	162	1
107	108	1
44	44	1
78	78	1
128	128	1
82	140	1
164	166	1
0	0	1
76	76	1
