45	45	3
122	122	2
0	36	1
160	162	1
10	10	4
159	161	1
124	137	1
82	83	1
203	203	2
157	168	1
3	3	1
80	80	2
121	123	1
241	241	5
8	9	2
111	178	2
59	60	2
196	196	7
209	209	3
175	175	2
4	5	2
22	22	3
61	61	5
172	220	1
160	160	5
168	169	5
33	33	3
151	184	1
6	45	1
25	30	1
34	187	1
35	35	2
134	134	3
0	0	5
166	176	2
217	217	4
43	43	4
74	85	1
128	137	1
81	81	1
36	36	3
112	112	1
136	138	1
221	222	2
15	15	2
101	101	2
9	42	1
232	232	2
34	34	3
120	120	5
37	37	2
182	182	2
12	12	1
161	161	4
205	206	2
28	127	1
79	83	1
149	194	1
57	57	2
225	232	1
115	115	1
214	215	2
8	39	2
41	41	1
118	120	2
162	162	2
0	1	2
60	62	2
76	76	3
218	218	2
141	141	1
158	158	2
237	238	1
233	233	3
74	74	2
75	75	4
149	150	2
202	221	1
85	85	3
52	53	1
70	70	3
190	232	1
199	200	1
41	56	1
56	67	1
125	126	1
227	232	1
223	223	1
1	36	1
168	206	1
29	29	8
105	223	1
7	8	4
173	173	5
148	148	3
9	14	1
216	216	2
59	59	1
206	206	3
45	61	1
157	158	3
18	101	1
237	237	3
196	235	1
171	177	1
174	174	4
191	232	1
28	48	1
60	60	2
214	230	3
62	62	2
167	169	1
202	202	3
169	199	1
27	27	7
86	87	1
49	53	1
44	62	1
143	143	1
218	219	2
45	46	5
196	212	1
53	53	2
135	136	1
228	228	2
166	168	1
23	23	4
101	178	1
172	172	2
136	136	2
202	223	1
75	82	1
213	214	1
118	118	3
139	139	1
85	86	1
69	69	1
83	146	1
119	121	1
221	221	1
44	61	1
99	99	2
60	61	2
234	234	3
105	123	2
222	222	1
149	149	2
68	68	2
157	188	1
22	157	1
109	114	1
9	28	1
138	162	1
151	152	2
173	177	1
39	39	3
25	26	1
67	67	1
207	217	1
83	83	2
180	183	1
30	30	2
119	190	1
12	80	1
11	42	1
50	50	2
231	232	2
86	86	4
16	16	2
79	79	1
161	166	1
220	221	1
46	89	1
21	22	1
27	28	1
99	138	1
242	242	4
221	237	1
209	210	2
168	168	1
134	138	1
3	11	1
141	144	2
231	231	1
171	172	2
106	106	3
234	240	1
47	103	1
214	214	5
42	64	1
49	49	3
142	142	1
147	154	3
6	6	1
198	199	1
169	210	1
205	205	2
236	236	1
201	219	1
26	30	3
127	136	1
201	201	1
213	217	1
31	31	5
191	225	1
126	126	2
63	63	1
50	52	1
155	155	2
56	135	2
105	106	2
188	188	1
156	157	2
148	161	1
96	242	1
80	120	1
197	197	2
109	110	1
19	19	2
176	177	1
119	183	2
172	173	1
118	154	1
163	163	1
65	71	1
121	144	2
81	214	1
165	166	1
71	71	1
124	165	1
28	28	2
57	135	1
188	189	1
46	74	1
44	44	1
7	7	3
164	164	2
224	225	1
34	54	1
235	235	2
219	219	1
176	176	2
24	44	1
213	213	5
137	137	1
144	146	1
44	46	2
18	18	1
46	46	1
76	77	2
42	42	2
16	18	1
58	58	2
101	102	2
33	203	1
137	184	1
24	24	1
116	117	1
144	144	2
8	167	2
230	230	1
21	21	2
124	154	1
179	179	3
153	153	1
97	171	2
157	157	2
211	211	1
14	14	2
155	173	1
45	69	1
113	113	3
146	174	1
163	196	2
190	190	1
170	170	2
46	106	2
17	17	1
128	128	2
72	73	1
100	100	2
54	54	1
134	135	1
38	39	1
228	230	1
173	176	1
39	106	1
48	48	1
103	103	1
78	78	2
47	47	2
135	135	2
84	85	1
84	84	2
220	220	1
32	32	1
11	12	1
136	137	2
12	15	1
49	76	1
45	198	1
20	20	3
108	108	2
184	185	1
219	220	1
207	207	1
180	180	1
184	184	2
101	138	1
11	11	1
155	157	1
238	238	3
107	107	1
114	114	1
109	154	1
205	218	1
227	227	2
73	73	2
9	9	1
177	177	1
130	130	2
73	74	1
165	165	1
43	55	1
186	186	2
171	171	2
140	151	1
179	197	1
160	161	1
185	187	1
95	95	1
41	42	1
68	69	1
100	236	2
8	68	1
158	227	1
47	48	1
7	65	1
196	197	1
192	208	1
105	126	1
48	49	1
40	41	1
126	134	1
180	182	1
147	171	1
145	145	1
233	234	1
178	195	1
214	229	1
239	239	1
193	194	1
64	64	1
138	138	1
33	41	1
1	1	1
5	6	1
1	8	1
88	88	1
2	2	1
228	238	1
178	178	1
56	217	1
12	34	1
123	123	1
238	239	1
42	55	1
167	213	1
