89	89	1
112	112	1
14	14	4
148	148	1
16	16	1
9	103	1
26	55	1
39	41	1
61	61	3
82	111	1
16	18	1
131	131	2
45	51	1
73	75	1
129	130	1
6	6	5
52	52	2
48	48	1
43	46	1
28	28	3
63	64	1
95	95	2
64	64	2
21	21	2
79	97	1
101	101	3
32	32	4
153	153	2
127	127	1
30	30	2
68	68	1
156	156	2
93	93	2
127	135	1
149	151	2
34	34	2
52	54	2
29	29	2
78	78	1
1	23	1
5	77	1
108	109	1
83	83	2
110	110	3
31	31	3
12	12	4
112	114	1
141	141	3
31	102	1
123	123	3
9	12	2
139	139	3
118	118	1
43	43	2
24	24	2
87	116	1
132	132	2
57	57	1
41	42	2
53	55	1
145	153	1
36	37	1
141	142	1
98	98	2
119	119	1
1	2	1
75	75	2
15	26	1
21	45	1
85	88	1
71	72	1
8	8	1
15	15	3
51	51	1
32	33	1
56	56	1
82	82	2
54	54	3
96	96	3
11	11	1
47	47	3
69	114	2
1	1	1
104	104	1
82	83	1
50	147	2
10	10	1
1	98	1
87	155	1
131	132	1
100	100	1
77	77	2
40	41	1
83	118	1
94	94	1
45	46	3
120	137	2
63	63	1
73	73	2
149	149	1
132	133	1
13	13	1
136	145	1
2	21	1
86	96	1
25	25	1
107	107	1
105	105	1
135	135	4
5	24	1
121	121	1
71	122	1
38	38	1
15	114	1
12	15	1
11	48	1
84	116	1
7	8	3
114	114	1
110	111	1
113	152	1
106	106	1
50	52	2
53	53	2
136	137	1
22	47	1
128	129	1
141	158	1
87	154	1
79	93	1
80	80	2
116	120	1
9	9	3
38	80	1
103	126	2
3	116	1
26	27	1
40	40	1
84	92	1
66	66	1
93	94	1
132	155	1
39	39	2
92	92	1
134	134	1
98	99	1
35	35	1
140	140	1
54	111	1
122	122	2
127	143	1
36	36	1
91	91	1
155	155	1
81	81	1
109	113	2
43	107	1
97	106	1
117	117	1
72	106	1
78	146	1
42	54	1
3	3	2
108	108	1
104	105	1
31	53	1
124	124	1
124	147	1
23	24	1
96	97	1
98	128	1
55	144	1
91	92	1
139	140	1
51	53	1
38	39	1
137	137	1
150	151	1
81	112	1
125	126	1
41	41	1
134	135	1
44	44	1
128	128	1
23	23	1
37	37	1
97	97	1
127	130	1
146	146	2
75	151	1
67	69	1
17	17	1
89	90	1
142	142	1
7	7	1
96	113	1
115	116	1
0	1	1
95	96	1
27	139	1
9	30	1
50	50	1
115	115	1
88	92	1
87	87	1
147	147	1
107	131	1
17	18	1
103	104	1
70	71	1
157	158	1
