13	14	1
156	157	2
7	7	2
99	99	2
142	142	3
50	50	2
27	27	1
92	92	2
127	143	1
140	141	1
16	18	2
69	69	2
11	12	2
46	47	1
30	30	5
20	21	2
38	56	1
40	40	1
9	9	1
87	87	4
149	149	1
134	134	4
10	86	1
4	4	5
14	14	1
62	81	1
124	126	1
129	132	3
18	18	5
114	115	4
70	71	1
23	23	3
135	137	2
42	42	4
108	109	4
88	118	3
5	5	5
37	37	2
45	45	1
20	20	4
150	150	3
112	144	1
100	100	3
88	89	1
136	136	1
138	138	4
57	61	1
152	152	5
140	140	1
135	135	1
121	122	2
87	88	1
126	126	1
19	22	1
91	91	4
148	158	1
73	77	2
131	132	4
5	128	1
147	147	4
156	156	3
85	96	1
108	153	2
123	124	2
133	133	2
127	127	1
85	137	1
125	145	1
83	84	2
79	79	1
103	103	3
119	122	1
116	116	2
88	88	3
92	93	1
88	113	1
119	119	1
111	111	2
141	142	1
103	104	2
41	41	1
113	115	1
158	158	3
115	116	4
51	56	1
86	86	1
148	148	3
28	29	1
70	78	1
63	63	2
132	132	4
11	11	1
110	126	1
28	28	3
95	120	2
104	104	2
135	158	1
154	155	1
16	16	2
67	67	2
106	107	1
84	84	1
29	29	2
135	136	1
97	109	3
82	83	1
116	117	1
101	101	1
78	78	1
133	137	1
112	113	1
128	128	4
24	25	1
125	125	3
65	65	1
119	137	1
98	98	3
33	39	2
19	19	1
105	106	2
110	114	1
103	106	2
15	16	2
127	140	1
112	112	2
55	55	1
39	39	1
25	25	1
130	131	4
6	6	2
0	1	2
113	113	3
129	129	2
94	97	1
82	82	1
51	51	2
20	22	1
118	118	1
62	62	2
49	50	1
138	139	1
55	66	1
66	70	1
135	141	1
10	10	3
64	76	1
104	116	1
52	52	1
120	120	1
110	110	1
98	132	1
22	22	1
68	71	1
157	158	1
34	40	2
69	78	2
14	16	1
0	0	1
50	51	1
38	38	1
47	48	1
69	77	1
48	48	1
105	105	4
146	153	1
109	124	1
62	70	1
81	81	1
88	95	1
81	92	1
104	105	1
73	73	1
2	2	1
49	56	1
49	49	1
115	115	1
128	131	1
40	41	1
105	116	1
64	64	2
152	154	1
111	112	1
96	96	1
87	91	1
26	33	1
146	156	1
120	121	1
40	42	1
75	75	1
135	142	1
108	108	2
93	93	1
127	132	1
8	8	1
94	94	1
30	31	1
47	47	2
117	118	1
32	32	1
5	8	1
155	155	1
31	32	1
37	50	1
13	19	1
154	154	1
31	31	1
13	13	1
50	53	1
129	130	1
98	100	1
84	88	1
90	90	1
114	114	1
146	146	1
117	117	1
4	34	1
157	157	1
122	123	1
130	130	1
109	109	1
15	39	1
54	54	1
141	141	1
110	132	1
