116	116	4
124	124	3
124	129	2
43	56	1
107	107	5
12	12	4
119	119	3
113	114	1
34	34	6
105	106	3
120	120	5
16	44	1
81	81	5
101	101	5
60	66	1
31	32	2
87	87	4
20	90	1
11	34	2
95	95	6
78	132	1
13	28	1
11	11	4
36	38	2
92	92	2
123	123	2
63	68	2
74	75	4
16	55	2
22	96	2
33	45	1
99	99	6
95	110	2
100	100	5
10	11	3
83	98	1
26	26	5
109	109	3
118	118	5
78	131	3
45	46	1
101	102	3
86	99	1
65	65	4
36	36	1
20	30	1
32	100	2
133	133	5
15	15	2
22	22	4
79	79	6
71	71	3
94	108	1
19	19	5
104	104	3
90	90	3
42	42	5
20	20	3
69	69	5
57	58	3
13	24	1
13	35	1
28	28	2
41	76	2
26	27	2
86	86	6
134	134	1
113	122	1
27	29	1
55	55	1
74	77	1
37	48	1
125	126	2
76	134	2
108	108	4
44	44	4
3	3	3
61	61	1
83	108	1
27	27	5
84	84	2
86	88	1
37	37	1
83	106	1
95	96	2
35	35	4
81	87	1
115	115	1
17	17	2
36	94	2
40	40	5
18	45	1
75	76	1
73	74	1
1	66	1
21	92	1
113	116	2
23	23	1
103	103	4
21	21	2
93	93	5
80	81	1
72	73	1
45	45	3
35	65	1
35	121	2
82	82	4
96	97	1
5	5	3
18	93	1
80	80	4
36	76	1
60	60	3
64	64	2
49	49	1
114	114	4
78	78	3
26	94	1
97	105	3
14	14	4
43	43	1
57	57	1
48	50	1
59	59	2
58	87	1
86	87	1
33	102	1
15	16	1
72	72	4
87	88	4
131	132	2
70	70	4
105	105	4
5	104	1
22	58	1
40	132	1
62	62	1
8	127	3
5	6	2
31	35	1
13	13	6
68	68	2
127	127	3
65	66	1
1	1	2
16	33	1
75	88	1
47	47	1
41	41	1
46	46	4
16	21	1
36	45	1
96	96	1
106	106	2
18	18	1
91	99	1
76	76	4
58	58	3
113	113	4
124	128	1
75	75	3
43	90	1
17	18	1
8	9	2
0	0	1
130	130	4
88	100	1
84	101	3
59	86	1
88	90	1
81	106	1
102	103	2
8	11	1
89	90	1
69	70	1
48	48	1
114	115	3
87	92	1
98	98	1
6	7	1
112	113	1
9	9	1
30	30	4
88	88	1
39	39	3
67	67	3
6	6	1
112	112	1
132	132	5
83	83	1
82	88	1
3	75	1
81	105	1
110	111	3
94	95	2
80	84	1
1	3	1
16	20	1
25	30	2
27	32	1
131	131	4
63	63	1
24	24	1
2	2	1
25	25	2
111	111	3
33	44	1
38	38	2
77	77	2
100	101	1
116	117	2
129	129	1
108	109	1
12	32	2
74	74	2
33	33	1
120	132	1
91	91	2
89	97	1
16	17	1
8	17	1
19	90	1
60	63	1
83	96	1
45	47	1
66	66	1
83	87	1
4	45	1
46	63	1
41	42	1
62	63	1
112	120	1
72	133	1
41	43	1
85	85	1
93	124	1
63	69	1
9	10	1
10	17	1
44	45	1
1	74	1
126	126	1
36	60	1
82	84	1
29	29	2
104	129	1
90	100	1
125	125	1
128	128	1
115	116	1
31	31	2
76	86	1
86	107	1
97	99	1
73	73	1
102	116	1
13	37	1
13	14	1
94	94	1
79	132	1
93	125	1
