20	24	2
36	36	3
96	117	3
3	3	2
18	19	2
96	96	1
73	88	1
4	5	1
116	117	3
141	146	1
126	126	3
42	42	1
8	27	1
50	54	3
146	147	2
13	13	2
103	126	1
73	75	1
9	9	1
152	152	2
27	88	1
56	63	2
79	86	1
39	39	2
24	24	2
87	116	1
8	13	2
38	39	1
15	15	3
145	145	4
34	34	1
13	15	1
92	95	2
145	148	1
57	57	3
93	93	1
99	135	1
109	134	1
82	105	2
5	5	4
16	16	1
43	48	1
135	135	3
75	75	1
84	84	1
54	54	3
123	124	2
5	6	1
139	141	2
41	42	1
7	9	1
73	90	1
103	103	3
72	76	2
53	65	1
135	136	2
125	125	3
96	112	2
128	128	2
141	141	3
108	108	1
37	37	1
130	131	1
32	33	1
8	47	3
79	79	2
145	146	2
62	62	1
71	72	1
109	109	1
111	117	1
106	106	4
141	143	2
103	114	2
72	72	1
21	21	1
131	150	1
23	23	2
17	20	1
33	125	1
93	127	2
93	95	1
128	134	1
97	132	1
18	25	1
72	83	1
4	4	1
136	141	1
28	31	1
82	154	1
48	129	1
73	149	1
90	109	2
11	42	1
26	87	1
76	80	2
142	142	2
106	107	1
136	136	3
49	50	1
43	43	1
19	20	1
22	22	2
121	121	1
47	47	2
17	17	1
120	120	1
93	118	1
111	111	1
79	121	2
77	77	2
53	53	3
44	84	1
71	71	2
98	99	1
152	153	1
68	79	2
28	28	1
43	87	1
26	27	1
102	112	1
86	121	1
116	116	3
101	102	1
66	66	1
5	7	2
41	100	2
14	15	2
87	92	1
23	24	1
113	114	2
144	151	2
33	33	4
154	154	1
73	73	1
66	94	1
25	35	1
70	70	3
76	77	1
17	46	3
44	44	2
139	139	2
17	21	1
148	148	2
138	138	1
140	140	1
3	4	1
102	104	1
143	149	1
40	40	2
7	8	1
27	27	1
100	123	1
37	45	1
49	101	1
143	143	2
20	103	1
13	20	1
85	85	2
65	66	1
129	142	1
71	153	1
82	116	1
125	136	1
6	6	1
83	110	1
32	56	1
10	10	3
63	63	1
11	12	1
3	8	1
142	143	1
110	111	1
97	97	2
9	10	1
118	118	2
9	11	1
69	74	1
101	101	1
70	139	1
48	57	1
104	115	1
62	93	1
99	117	1
68	70	1
102	145	1
137	138	1
123	123	1
119	122	1
45	57	1
112	113	1
41	43	1
100	116	1
77	78	1
132	132	1
14	46	1
75	82	1
65	73	2
113	135	1
31	31	1
129	134	1
51	52	1
64	65	2
84	119	1
74	111	1
125	143	1
79	114	1
104	144	1
86	86	1
55	56	1
69	95	1
110	140	1
50	114	1
77	79	1
68	135	1
8	8	1
11	13	1
11	65	1
101	115	1
13	53	1
5	18	1
7	10	1
121	122	1
94	103	1
115	133	1
76	79	1
3	28	1
100	100	1
81	82	1
14	16	1
