32	32	4
33	34	2
21	21	7
107	107	3
26	26	6
26	28	1
118	118	7
119	120	2
125	125	5
13	22	2
132	135	2
123	124	2
8	8	1
91	91	8
23	26	1
120	121	1
119	119	7
24	24	4
28	31	1
121	121	2
94	122	2
89	89	2
2	2	1
23	24	3
101	101	2
22	22	6
97	97	3
20	21	1
132	133	2
90	91	3
4	33	1
96	96	2
132	132	4
124	124	6
87	87	5
98	98	3
128	128	3
72	72	2
5	17	2
5	5	4
16	17	3
115	115	3
94	94	3
0	1	4
15	16	1
105	106	1
28	28	3
129	129	1
126	126	2
9	9	5
137	139	1
81	83	1
133	133	3
111	111	7
130	130	3
120	122	1
29	29	4
30	30	3
6	75	1
117	117	6
137	137	3
114	114	5
35	88	3
110	110	3
122	122	2
9	72	1
136	136	4
105	105	4
19	20	2
103	104	1
28	29	2
84	84	5
7	7	5
77	77	6
102	130	1
93	93	4
115	116	1
133	135	2
36	37	3
0	0	3
112	112	3
120	120	3
71	71	1
37	37	3
113	113	5
6	34	1
114	130	1
10	11	1
103	103	1
14	14	2
2	3	4
87	88	2
88	88	2
99	100	5
19	19	7
72	74	1
3	3	3
86	117	1
131	131	5
83	85	1
104	104	2
76	77	1
7	8	2
139	139	2
106	106	2
13	13	2
102	128	2
121	122	3
29	31	1
134	135	2
38	38	3
3	5	2
75	75	2
100	100	2
27	32	1
77	79	1
118	119	1
74	74	2
95	116	1
86	86	3
126	127	2
92	92	3
36	36	3
77	78	1
135	135	2
104	107	1
1	2	1
95	96	1
125	127	1
73	73	3
95	95	7
140	140	4
11	11	3
4	4	2
13	31	1
2	75	1
8	9	2
109	109	3
43	81	1
34	34	3
7	17	2
22	23	1
93	94	2
13	74	1
131	132	2
26	27	2
31	32	2
14	15	1
78	108	2
13	14	2
92	93	2
10	10	1
108	108	1
85	117	1
4	6	1
27	27	1
92	131	1
117	120	1
82	82	1
139	140	2
6	6	1
80	80	3
79	80	1
16	16	5
138	138	2
111	119	1
33	33	3
20	20	2
133	134	1
18	18	1
29	78	1
99	99	2
123	123	3
97	99	1
3	4	1
126	129	1
1	1	1
98	99	2
104	108	1
114	115	1
117	122	1
0	26	1
127	127	1
82	83	1
17	17	2
100	101	1
34	35	1
78	78	4
114	117	1
117	119	1
140	141	1
110	111	1
115	117	1
76	76	1
5	15	1
35	36	1
3	74	1
75	77	1
22	26	1
30	31	1
74	75	1
10	85	1
85	85	1
116	116	1
110	118	1
14	16	1
71	72	1
27	29	1
3	27	1
1	22	1
28	30	1
108	110	1
15	17	1
89	90	1
32	107	1
102	102	1
