130	130	2
27	28	1
37	49	2
147	147	3
89	95	1
0	18	2
46	46	2
63	97	1
24	24	3
113	113	1
132	132	4
105	107	3
110	110	3
73	101	2
35	93	2
69	69	1
86	86	1
44	44	2
158	158	4
76	76	2
112	119	1
137	137	1
50	50	3
117	117	3
109	117	1
138	138	4
36	36	3
3	3	2
42	42	4
85	86	1
38	38	2
137	141	1
53	53	4
141	141	2
13	13	1
78	89	1
100	101	2
74	74	1
92	92	3
127	127	2
0	17	3
120	120	2
135	143	1
107	107	4
40	40	4
91	125	2
125	125	2
134	134	3
55	55	3
123	123	2
6	148	1
105	105	1
14	14	2
39	40	2
119	120	1
73	73	3
79	79	2
46	47	2
12	12	2
112	128	2
14	15	1
22	22	2
126	126	1
7	7	4
65	65	3
70	127	1
112	112	3
56	56	1
37	133	1
48	48	3
66	66	1
114	114	1
85	85	3
63	63	2
33	33	4
40	41	2
139	139	3
129	129	2
38	47	1
104	106	1
15	15	1
34	34	1
48	115	1
35	36	1
12	34	1
78	79	1
67	68	2
83	83	1
109	109	1
157	157	1
18	32	1
123	124	1
117	134	1
67	69	1
16	16	1
108	108	1
41	87	2
43	43	4
48	89	1
2	2	2
91	91	1
95	97	1
145	145	3
1	97	1
92	97	1
149	155	1
84	97	1
32	32	4
87	94	1
121	142	1
110	149	1
14	58	1
146	146	1
28	38	1
92	96	1
13	17	1
81	81	1
150	151	2
84	124	1
134	138	2
153	153	1
84	88	2
151	152	1
52	54	1
67	67	1
86	87	1
156	158	1
111	111	2
41	45	1
148	152	2
142	142	1
25	25	2
121	121	2
40	42	1
127	128	2
106	106	3
97	97	2
109	112	1
140	140	1
34	85	1
133	133	1
36	93	1
21	65	1
36	129	1
28	28	2
119	137	1
36	37	1
28	30	2
90	91	1
111	128	1
95	95	1
108	112	2
29	38	1
30	30	2
39	39	1
41	41	1
121	136	1
18	39	1
27	27	3
122	122	1
16	17	1
118	119	1
84	84	1
28	31	1
13	14	1
28	39	1
49	108	1
42	43	2
100	100	2
0	0	2
79	118	1
124	124	1
8	114	1
2	8	1
78	78	1
33	134	1
13	18	1
51	53	1
33	39	1
18	18	2
99	99	2
13	16	1
108	109	1
83	92	1
155	155	1
95	96	1
135	135	1
115	123	1
50	51	1
89	89	1
91	93	1
19	19	1
131	131	1
41	43	2
20	20	1
103	103	1
115	115	1
92	94	1
148	149	1
78	82	1
1	1	1
96	96	1
107	108	1
119	119	1
35	38	1
129	151	1
12	13	1
99	103	1
40	85	1
13	15	1
32	131	1
10	51	1
94	94	1
104	118	1
4	4	1
124	125	1
106	118	1
