12	16	1
174	174	5
48	48	7
55	55	6
59	60	2
47	47	7
37	37	5
87	88	1
10	11	2
180	180	1
78	78	8
44	46	2
113	113	4
87	87	3
54	55	2
83	88	4
159	166	1
72	72	2
77	77	5
84	102	1
99	99	3
153	185	3
95	95	5
23	23	1
139	139	4
0	0	7
46	47	1
44	73	1
186	186	5
65	72	1
166	166	3
125	126	2
62	63	5
165	165	4
137	137	3
1	7	1
78	189	1
58	133	1
98	98	5
108	109	5
39	39	8
91	93	1
135	135	2
22	23	1
131	135	2
88	88	9
132	164	1
155	155	9
36	36	9
1	1	5
147	147	7
19	19	4
154	154	8
108	108	2
67	67	2
69	69	1
38	39	1
4	5	2
123	128	2
96	181	1
45	172	1
62	175	2
71	71	6
89	105	2
158	158	2
41	56	1
75	76	4
64	106	2
122	122	4
170	170	7
13	13	4
58	61	1
94	94	5
103	103	8
124	125	1
162	162	6
148	148	2
92	92	2
27	27	5
183	183	5
116	117	1
187	187	7
90	90	4
38	80	2
5	21	2
11	12	1
123	135	1
134	134	2
89	89	9
53	53	4
98	121	1
29	30	1
64	73	1
3	3	4
172	186	2
42	42	7
30	30	2
166	188	1
172	173	1
1	86	1
168	169	1
44	44	4
102	189	2
60	146	1
100	106	1
4	10	1
173	183	1
151	151	5
187	190	3
2	4	1
143	144	3
118	119	1
17	17	6
22	22	4
145	145	7
84	84	8
164	164	6
126	127	4
79	80	2
114	184	2
12	29	2
75	90	1
83	84	1
146	147	2
93	93	6
184	185	3
84	88	2
11	28	1
169	189	1
101	101	1
57	57	6
8	22	1
55	58	1
100	100	4
85	86	1
6	8	1
167	167	4
73	73	2
27	28	2
190	190	3
84	87	1
69	71	1
177	177	3
102	130	1
172	172	5
58	60	1
54	119	1
118	118	6
28	28	3
15	71	1
24	25	1
33	33	1
35	46	1
169	169	6
140	140	7
142	145	1
68	68	6
26	26	6
5	5	7
139	140	2
109	109	6
25	53	2
40	40	8
156	161	1
74	75	3
150	150	3
152	152	6
78	129	1
41	41	6
148	158	1
106	122	1
17	20	4
21	21	3
136	137	1
117	118	1
23	68	2
109	110	1
76	78	1
134	139	1
61	142	1
123	147	2
110	110	3
156	157	1
39	40	1
154	155	2
8	8	8
64	64	3
184	184	5
28	65	1
29	29	7
124	124	6
55	57	2
103	104	1
70	70	3
107	107	6
54	54	6
124	132	1
127	150	2
112	112	5
12	12	5
163	163	5
184	186	1
52	111	2
189	190	3
104	104	3
6	6	4
85	85	5
123	123	4
57	74	1
60	76	1
15	15	6
166	175	1
114	120	2
76	76	8
142	143	1
105	106	2
99	100	1
81	81	1
45	107	2
76	86	1
14	15	2
21	24	1
34	35	3
113	169	2
141	141	7
168	168	7
174	175	2
21	25	1
28	29	2
85	107	3
128	128	2
83	83	4
41	63	1
175	175	2
121	122	1
72	78	1
111	127	1
159	160	3
130	130	3
160	165	1
25	25	7
45	45	3
178	190	1
52	56	1
106	107	1
47	48	2
37	43	1
20	22	2
132	132	1
56	57	2
174	183	2
120	120	5
159	159	6
127	139	1
171	171	5
56	73	1
83	95	1
117	126	1
26	48	1
17	144	1
138	139	2
62	62	4
105	105	2
31	180	1
68	104	1
174	176	1
106	126	1
116	116	2
172	185	1
56	56	3
171	172	2
13	14	3
102	108	1
185	185	8
150	172	1
66	67	5
157	157	6
14	14	4
116	119	1
149	149	4
71	138	2
155	167	2
48	157	1
130	131	2
59	59	7
84	143	2
16	16	1
127	130	1
29	35	1
63	64	1
18	22	1
127	128	3
82	99	1
107	134	1
32	45	1
104	105	1
182	183	3
53	123	1
58	59	3
135	144	1
91	98	1
87	90	1
150	155	2
127	127	4
100	109	1
160	160	4
177	179	1
71	89	2
181	184	1
123	157	1
150	151	1
173	173	1
66	66	3
32	32	2
17	28	1
65	66	1
79	79	9
66	74	1
25	36	1
74	74	1
133	135	1
85	87	2
114	114	5
6	25	1
113	114	1
187	188	2
36	37	2
154	162	1
21	23	1
25	154	1
6	7	1
155	159	1
119	125	1
26	27	1
63	68	1
37	62	2
117	188	1
77	81	1
80	80	5
154	164	1
96	96	4
11	11	2
95	99	2
102	117	1
0	12	1
188	188	5
166	167	1
131	131	2
74	140	1
60	62	3
7	8	2
143	143	2
84	177	2
17	26	1
179	179	2
42	43	1
76	77	1
42	72	1
101	113	1
189	189	2
79	122	1
119	119	4
92	94	1
61	63	2
67	68	2
32	35	2
24	24	3
52	53	1
17	19	1
131	132	1
37	61	2
129	129	3
146	146	6
82	91	1
7	7	1
19	92	1
60	64	1
106	106	2
115	115	1
133	133	1
132	133	3
32	92	1
13	23	1
68	74	1
5	116	1
156	156	2
79	81	1
112	174	1
136	175	2
97	97	2
40	170	1
144	144	2
80	164	1
92	93	3
181	190	1
6	11	2
152	162	1
75	75	2
53	55	1
149	160	1
35	59	1
16	17	2
161	162	1
15	68	1
37	78	1
19	20	1
104	142	1
174	181	1
107	136	1
160	163	1
6	9	1
38	78	1
34	45	1
166	168	1
176	176	3
70	75	1
73	90	1
142	189	1
34	34	3
84	85	1
147	154	1
8	9	1
62	77	1
100	183	1
21	27	1
123	124	1
158	159	1
17	147	1
182	186	1
112	127	1
86	86	3
9	9	2
18	19	5
141	184	1
75	150	1
88	102	1
73	140	1
18	25	2
134	141	2
176	177	1
17	18	1
164	170	1
12	31	1
102	102	1
2	2	4
93	97	2
35	35	3
114	115	1
162	163	1
38	99	1
109	111	1
134	182	1
60	101	1
7	48	1
2	47	1
83	129	1
65	95	1
84	89	1
76	151	1
163	166	1
79	126	1
0	22	1
30	33	2
89	124	1
65	65	3
48	57	1
182	182	3
136	161	1
133	188	1
42	44	2
120	169	1
91	91	3
0	16	1
188	189	1
1	2	1
5	25	1
61	61	1
15	17	2
61	62	1
43	43	1
139	183	1
82	82	1
138	158	1
84	154	1
98	178	1
138	138	2
72	79	1
46	72	1
86	119	1
117	117	2
18	18	1
40	73	1
41	45	1
156	176	1
36	44	1
65	144	1
118	136	1
94	115	1
53	54	1
182	187	1
181	181	1
1	3	1
84	109	1
35	48	1
156	162	1
52	52	1
91	100	1
32	183	1
160	161	1
156	159	1
13	116	1
38	38	2
71	78	1
132	163	1
161	173	1
144	146	1
34	36	1
35	41	1
167	168	1
58	187	1
114	167	1
52	159	1
165	166	3
144	154	1
111	111	3
185	186	1
95	145	1
162	181	1
65	73	1
72	90	1
60	61	2
57	87	1
43	64	1
14	34	1
34	37	1
151	186	1
60	84	1
112	115	1
21	92	1
37	57	1
37	42	1
151	157	1
60	60	1
119	121	2
115	164	1
132	162	1
97	99	1
77	78	1
118	121	1
129	142	1
66	100	1
42	47	1
171	173	1
152	153	1
178	180	1
73	79	1
4	4	1
17	32	1
93	136	1
115	186	1
71	79	1
103	150	1
108	110	1
116	118	1
142	142	1
153	154	2
153	153	1
97	98	1
106	114	1
112	117	1
82	175	1
82	187	1
111	113	1
54	181	1
158	161	1
2	3	1
173	182	1
63	63	1
115	145	1
83	175	1
62	97	1
65	84	1
78	101	1
9	69	1
175	182	1
54	91	1
131	133	1
104	146	1
126	126	1
6	108	1
174	177	2
117	130	1
143	163	1
46	74	1
3	4	1
136	136	1
