216	221	1
204	204	8
3	3	5
78	78	3
139	140	1
196	196	2
23	34	1
206	206	5
190	191	4
29	30	2
7	7	3
227	227	7
162	164	4
151	151	5
195	195	5
8	201	1
40	41	2
202	202	2
190	190	5
199	200	3
101	101	1
197	201	2
237	237	3
213	213	6
2	34	1
37	37	7
79	79	4
4	5	1
231	232	1
145	145	4
149	150	3
184	224	1
169	169	3
233	234	2
144	144	2
85	85	2
56	105	2
225	225	1
187	187	5
226	226	2
24	24	4
52	57	2
149	151	1
175	175	3
135	135	5
65	65	6
176	177	1
207	207	5
37	38	2
178	178	8
226	229	1
122	122	3
55	58	2
198	198	5
61	61	6
217	218	7
112	112	2
175	179	2
4	4	4
151	152	1
192	192	4
57	57	2
201	201	12
102	102	1
49	144	1
171	171	5
25	29	1
114	114	2
48	49	3
98	98	5
8	8	12
3	9	1
173	175	1
139	139	3
59	59	5
35	80	1
134	134	2
209	209	5
76	76	3
58	215	1
36	49	1
44	45	2
71	85	2
233	233	5
36	71	1
169	208	1
34	35	1
14	15	1
70	72	1
12	75	1
77	77	5
14	22	2
16	16	4
164	164	5
26	26	6
38	38	2
80	80	6
28	28	4
10	37	1
205	205	1
21	21	5
216	216	5
191	191	4
20	73	1
120	120	8
49	74	1
173	173	7
39	106	1
178	242	1
216	217	1
200	200	7
5	210	1
114	124	2
107	108	2
114	150	1
162	162	5
21	55	1
3	6	1
126	126	3
167	168	4
42	42	3
98	100	1
215	225	1
185	188	1
214	214	6
194	194	5
117	118	2
44	44	4
31	128	1
166	197	1
185	185	2
47	239	1
179	179	3
64	64	4
73	95	1
221	225	1
10	10	2
228	228	2
158	158	5
231	231	5
148	154	1
31	167	1
128	137	1
64	154	2
105	106	3
40	52	1
66	66	4
43	43	4
77	84	2
129	129	3
23	23	3
165	165	3
183	183	3
65	66	1
0	5	1
209	210	1
81	118	1
103	103	3
111	111	1
32	32	5
143	143	4
234	234	2
46	46	2
159	159	6
146	146	2
137	240	2
46	47	2
121	121	6
100	100	2
160	160	3
176	176	2
9	63	1
197	197	3
60	60	6
219	219	1
25	25	5
225	226	1
78	84	1
213	214	1
174	174	3
218	218	2
125	125	7
173	174	1
103	153	1
99	99	7
164	165	4
34	34	3
230	230	4
106	106	9
224	225	1
168	182	1
13	13	3
55	217	2
118	118	1
174	181	1
31	77	1
1	1	4
138	138	2
238	238	1
189	189	2
161	161	2
193	193	3
199	199	2
196	236	2
241	241	6
232	232	6
88	190	1
118	151	1
41	41	4
74	74	5
179	180	1
39	39	2
19	35	1
204	237	1
24	25	2
223	230	1
97	97	3
215	215	3
144	147	1
117	133	1
180	192	2
45	45	4
96	96	4
128	128	2
158	159	1
146	192	1
22	23	2
208	208	3
39	48	1
104	109	2
140	148	1
33	71	2
233	236	1
147	147	5
5	5	1
222	222	1
69	73	1
225	241	1
18	51	1
175	182	1
62	62	7
66	77	2
182	182	6
232	240	2
58	200	1
186	186	2
8	231	1
199	231	1
10	106	1
18	23	1
136	136	4
125	155	1
117	124	2
219	224	1
236	236	2
150	189	1
22	22	6
27	27	2
157	157	3
21	22	3
153	197	1
214	223	1
159	161	1
31	31	5
98	99	1
51	88	1
116	116	1
67	67	5
190	197	1
102	105	1
35	36	2
167	182	1
203	203	1
211	212	1
128	131	1
140	140	5
40	140	1
228	229	2
173	187	2
181	181	6
52	53	1
173	200	1
107	107	3
124	125	3
57	62	1
137	137	4
146	184	1
36	84	1
131	131	2
75	75	4
122	123	1
62	64	1
38	43	1
61	173	1
63	63	4
129	131	1
184	191	1
166	170	1
47	232	1
58	58	3
170	171	1
205	206	1
235	235	2
9	9	1
4	6	1
55	69	1
226	227	2
145	150	1
123	123	4
52	52	4
122	159	1
7	14	1
72	72	2
29	29	2
210	210	2
20	20	3
195	215	1
187	188	2
13	15	1
184	184	4
155	155	2
71	71	3
6	6	1
50	52	1
191	192	1
35	35	1
134	135	3
172	172	3
80	82	1
75	79	1
188	188	1
141	154	1
82	121	1
217	217	5
81	83	3
113	113	2
68	68	2
69	69	3
211	211	2
229	229	3
74	95	2
77	83	1
220	220	3
208	209	1
62	65	1
53	53	2
153	153	3
119	121	1
191	198	1
152	170	1
117	117	2
41	57	2
130	133	1
242	242	3
12	158	1
159	160	1
56	70	1
153	156	1
104	189	1
110	110	1
15	15	3
125	127	1
53	71	1
166	167	1
221	222	2
58	68	1
49	49	1
152	152	2
127	129	1
129	130	1
196	197	1
60	64	1
137	154	1
75	120	1
56	56	3
197	234	1
180	180	3
18	19	1
128	149	1
42	47	1
33	33	2
37	160	1
182	219	1
70	70	4
179	190	3
47	109	1
30	30	3
103	129	1
223	223	2
2	2	3
6	230	1
30	31	1
235	236	1
155	224	1
35	188	1
64	191	1
241	242	1
19	19	2
220	237	1
105	105	1
226	236	1
171	172	2
144	180	1
236	237	1
78	79	2
214	216	1
66	67	3
161	214	1
73	73	4
215	224	1
50	60	1
115	115	1
77	79	2
167	178	1
144	145	2
56	150	1
163	165	1
58	119	1
20	23	2
2	18	1
212	212	2
195	233	1
150	150	1
102	122	1
142	152	1
126	149	1
149	149	1
139	176	1
192	207	1
40	49	1
195	196	1
108	108	2
17	76	1
233	238	1
140	151	1
138	140	1
62	136	1
36	36	2
118	149	1
69	70	1
169	181	1
224	224	5
12	12	3
163	163	3
34	159	1
188	205	2
63	65	1
10	217	1
7	9	1
14	14	3
107	124	1
104	124	1
167	230	1
72	73	1
4	18	1
202	203	2
17	17	1
170	170	1
55	55	2
136	138	1
127	130	1
100	105	1
148	148	1
15	22	1
47	47	1
76	84	2
184	185	1
181	201	1
67	68	1
88	88	2
9	36	1
163	164	1
175	177	1
57	58	1
39	228	1
181	182	1
104	104	1
187	228	1
145	167	1
86	86	1
74	233	1
225	238	2
154	155	1
6	104	1
142	142	3
141	199	1
148	191	1
156	156	2
36	101	1
35	51	1
17	30	1
166	166	3
79	83	1
41	77	1
59	60	1
14	212	1
31	129	1
38	152	1
57	123	1
153	154	1
141	142	1
119	119	3
207	211	1
165	196	1
102	205	1
39	42	1
17	18	1
67	72	1
63	64	1
140	141	1
131	132	1
28	30	1
102	152	1
173	179	1
176	178	1
80	83	1
188	230	2
147	150	1
45	71	1
145	146	2
200	212	1
57	67	1
138	141	1
83	83	1
179	191	1
144	172	1
135	152	1
33	39	1
42	43	1
107	115	1
64	135	1
171	197	1
156	158	1
143	144	1
215	216	1
242	243	1
201	203	1
4	79	1
168	168	1
198	203	1
10	11	1
121	152	1
120	138	1
230	231	1
50	71	1
42	65	1
50	51	1
129	231	1
45	46	1
187	214	1
54	70	1
185	212	1
29	78	1
151	154	1
1	7	1
174	200	1
50	50	1
79	200	1
84	85	1
6	11	1
116	120	1
187	190	1
167	167	1
83	183	1
5	80	2
30	168	1
177	178	1
95	100	1
42	70	1
120	136	1
195	226	1
106	108	1
15	19	1
220	233	1
101	122	1
11	11	1
170	173	1
2	12	1
129	166	1
55	60	1
136	137	1
82	82	1
96	97	1
68	113	1
95	127	1
157	163	1
15	35	1
239	239	1
