87	88	2
193	193	2
187	189	1
121	121	4
13	13	2
141	142	2
153	154	2
124	124	1
4	4	3
127	127	2
171	182	3
97	97	2
118	143	1
164	169	1
124	165	3
70	88	3
107	121	1
168	168	1
100	100	4
176	178	2
123	123	5
197	197	4
122	122	1
157	157	4
61	61	1
98	98	1
110	110	4
136	136	1
72	72	6
104	104	2
78	78	2
36	131	1
119	140	1
10	12	2
152	172	1
139	139	3
94	94	3
100	151	1
126	126	2
145	147	1
161	161	2
23	192	1
101	121	1
104	109	1
47	47	1
149	152	1
10	10	2
131	136	1
7	7	4
36	63	1
151	151	4
167	167	1
25	34	1
120	142	1
159	160	1
74	74	2
73	80	1
104	150	1
145	146	1
63	88	1
77	77	1
193	194	5
19	19	3
155	155	1
114	130	1
42	42	4
65	67	2
153	155	1
165	173	1
33	33	2
135	135	1
33	41	1
109	138	1
8	8	2
35	35	3
179	197	1
62	62	3
119	119	3
115	177	1
70	70	2
101	149	1
101	124	1
55	55	1
160	160	3
195	195	2
54	55	2
52	52	2
81	82	2
186	186	3
63	63	1
133	145	1
98	136	1
30	34	1
184	184	1
2	2	1
148	148	2
118	193	1
57	57	5
5	8	1
187	187	2
108	108	1
170	170	6
123	153	1
99	100	3
151	152	1
158	163	2
161	181	1
23	44	1
136	137	2
154	157	2
178	179	2
69	69	4
127	133	1
130	153	2
94	103	1
115	115	2
82	82	2
24	25	1
38	57	1
14	71	1
49	49	2
175	190	1
7	161	1
70	71	1
66	66	1
11	11	3
95	95	4
181	181	6
105	105	2
51	62	1
50	124	1
9	122	1
70	72	1
18	18	1
69	70	1
114	115	1
180	190	1
9	31	3
1	1	2
100	101	3
5	17	2
105	106	3
101	102	1
81	139	1
142	150	1
172	172	2
159	167	1
8	9	2
9	87	1
27	27	1
47	63	1
118	118	4
103	103	2
182	183	1
40	40	3
179	182	2
37	41	1
143	143	2
128	128	1
164	164	2
109	163	1
31	76	1
160	168	1
45	45	2
22	87	1
141	141	2
60	60	1
64	64	2
54	61	1
7	32	1
72	73	1
53	106	1
147	148	1
132	151	1
173	173	2
181	192	1
67	74	1
63	64	1
54	54	2
5	5	1
156	156	1
19	172	1
13	14	1
25	67	1
143	144	2
184	185	2
116	118	1
101	101	3
68	75	2
145	145	2
61	149	1
179	187	1
71	71	2
19	22	2
32	35	1
37	64	2
45	100	1
159	159	1
18	45	1
27	66	1
37	65	1
86	86	1
34	36	1
71	72	4
188	190	1
9	9	1
15	29	1
60	110	1
22	22	2
45	53	1
20	27	1
57	107	1
150	168	1
31	37	1
83	83	1
5	12	1
116	187	1
39	79	1
5	35	1
39	42	1
82	85	1
132	192	1
169	169	1
16	131	1
123	124	2
111	139	2
27	86	2
34	41	1
104	178	1
62	63	2
71	74	1
102	102	1
25	66	2
161	162	1
59	59	1
110	147	1
100	156	1
183	183	3
5	6	1
110	190	1
16	72	2
165	167	1
168	169	1
49	63	1
32	32	2
100	103	1
166	166	1
121	122	1
162	162	1
118	119	3
121	171	1
180	182	1
65	66	2
64	79	2
76	95	1
134	134	1
190	190	1
142	170	1
142	143	1
52	57	1
153	153	2
173	174	1
97	191	1
50	51	1
73	77	1
27	154	1
176	177	2
73	74	3
116	164	1
63	66	1
171	173	2
108	109	1
133	133	2
109	109	1
12	12	1
48	48	2
196	196	1
38	42	1
54	189	1
142	142	3
89	89	1
99	162	1
188	188	1
196	197	1
31	31	3
46	46	1
158	158	1
184	187	1
79	79	1
146	162	1
25	25	2
86	87	1
112	134	1
131	131	1
6	8	1
57	58	1
118	133	2
76	124	1
144	157	1
152	170	1
67	68	1
100	124	1
22	23	1
122	141	1
81	86	1
53	56	1
71	73	1
151	157	1
17	17	1
151	196	1
23	42	1
186	187	1
65	132	1
154	154	2
14	14	1
134	135	1
14	62	1
44	44	1
83	122	1
1	34	1
21	21	1
112	113	2
147	153	2
125	125	1
174	174	1
113	114	1
125	127	1
37	38	1
115	137	1
163	163	1
29	131	1
80	84	1
37	39	2
38	38	2
64	81	1
131	132	2
48	50	1
74	89	1
66	68	1
191	191	1
26	138	1
69	73	1
39	67	1
25	26	1
105	141	1
148	188	1
6	32	1
25	186	1
58	60	1
9	10	1
113	113	1
176	176	1
34	176	1
46	196	1
192	192	3
67	67	1
12	89	1
97	110	1
180	180	1
130	130	1
173	182	1
8	10	1
128	132	1
134	140	1
55	57	1
95	96	1
12	141	1
7	84	1
12	39	1
82	84	1
15	33	1
45	46	1
4	9	1
117	152	1
53	53	1
106	106	1
187	188	1
99	99	1
17	60	1
110	153	1
