33	241	1
44	44	1
225	247	1
41	41	5
199	199	4
111	111	5
79	80	1
96	96	2
180	180	1
239	239	2
18	18	4
31	31	4
214	214	2
56	62	1
55	93	2
157	157	3
42	42	2
19	204	1
93	93	5
156	156	2
119	119	3
111	114	1
72	89	1
70	70	3
6	6	5
61	61	2
32	33	2
51	51	1
197	199	1
89	90	1
212	212	2
214	237	2
114	114	1
219	219	1
17	18	1
191	191	1
173	236	1
38	39	2
34	35	1
213	213	2
179	179	1
180	182	1
243	243	2
91	93	2
80	81	1
222	222	4
69	69	1
177	177	6
18	30	1
161	161	3
75	77	2
82	82	1
177	235	1
109	109	2
236	236	6
188	188	2
215	216	1
220	220	2
152	153	1
224	224	3
188	189	1
10	10	4
59	59	3
190	190	1
170	170	4
87	117	1
103	104	1
46	52	1
234	234	2
157	211	1
145	145	1
100	100	1
208	208	2
11	11	2
22	56	3
144	145	1
233	233	2
86	86	1
163	163	1
186	186	1
116	116	2
16	16	4
108	109	1
101	101	4
80	84	1
153	153	2
46	227	1
12	12	3
108	108	2
234	235	1
77	79	1
99	99	1
165	165	1
31	116	2
210	210	3
88	96	1
230	230	2
97	98	2
60	61	1
34	34	2
187	187	1
211	211	2
118	118	2
162	162	4
33	33	1
55	64	1
65	65	2
218	218	2
84	84	5
72	72	3
176	190	3
231	231	5
64	65	1
19	20	2
221	221	4
47	48	1
81	81	2
186	223	1
12	31	1
201	201	4
114	115	3
49	49	3
88	88	1
115	115	2
167	167	4
73	73	2
32	150	2
171	171	2
87	100	1
35	35	2
82	84	1
5	5	2
152	152	2
243	244	1
162	166	1
98	98	1
153	157	1
242	245	1
91	116	1
225	226	2
21	21	6
52	52	2
202	202	3
60	60	3
183	212	1
229	229	1
14	14	1
211	212	1
151	154	1
81	110	1
111	154	1
55	56	2
81	82	1
246	246	3
203	203	2
190	195	1
146	146	1
248	248	1
175	175	2
47	59	1
157	158	1
7	7	4
107	197	1
150	150	4
174	175	1
87	87	1
48	49	1
240	240	2
227	227	2
29	30	1
153	156	1
40	40	1
226	229	1
174	174	1
241	242	1
113	114	2
58	58	2
23	35	1
23	23	1
91	91	2
245	245	1
231	242	2
57	57	1
171	175	1
111	224	1
155	155	1
170	193	1
9	9	4
105	105	3
1	42	1
173	173	1
200	207	1
183	183	2
209	209	1
45	45	1
216	216	2
31	34	2
166	166	1
52	115	1
70	85	1
228	228	2
182	182	1
210	236	1
112	112	3
172	173	2
92	93	1
47	47	2
196	232	1
242	242	4
217	217	2
237	237	2
206	206	3
30	33	1
36	36	5
26	26	3
198	198	1
198	236	1
182	183	4
77	77	2
176	178	1
38	38	2
238	238	2
190	225	1
110	153	1
51	52	2
50	52	1
151	151	1
24	154	1
190	191	1
164	169	1
116	117	1
55	55	1
158	158	2
65	66	1
106	219	1
38	40	1
44	45	2
50	74	1
28	28	3
168	173	1
8	8	1
206	207	1
243	246	1
46	46	1
25	26	1
154	154	2
214	224	1
30	34	2
167	204	1
207	211	1
19	19	4
194	194	1
62	62	2
191	192	1
236	237	1
66	103	1
224	226	1
18	19	3
169	169	1
79	79	1
90	90	2
178	192	1
170	196	1
102	102	1
172	172	2
103	103	2
90	99	1
207	207	2
168	168	3
67	71	1
189	189	1
22	205	1
75	78	1
101	102	3
40	41	1
71	75	1
22	22	3
223	223	1
44	229	1
181	181	1
76	76	1
185	198	1
179	190	1
20	20	1
79	82	1
67	67	1
119	120	1
46	47	1
46	110	1
106	106	1
200	200	1
175	176	1
162	163	1
5	50	1
94	103	1
89	98	1
169	170	1
247	247	1
110	110	1
71	97	1
43	43	2
0	1	1
185	185	1
17	33	1
215	215	1
178	178	1
77	78	1
113	113	1
35	46	1
45	46	1
197	197	1
213	216	1
71	71	1
36	38	1
27	28	1
70	97	1
152	212	1
214	240	1
69	96	1
