88	106	1
8	18	1
33	33	2
72	97	1
15	15	4
73	73	2
102	102	1
161	162	1
74	75	2
94	94	2
115	115	2
1	1	3
24	25	2
50	81	1
34	34	1
3	3	1
163	168	2
27	28	3
41	41	2
79	79	1
102	124	1
38	38	4
14	14	1
152	152	1
37	38	1
91	99	1
85	85	2
104	104	3
4	6	1
118	118	1
143	143	2
51	51	1
63	63	1
62	77	1
3	162	1
44	44	2
35	35	1
133	134	1
86	89	1
162	162	1
168	168	1
101	101	2
5	5	1
10	10	3
75	77	1
127	127	1
39	40	2
107	108	1
52	53	2
88	89	2
121	145	1
120	120	2
62	86	1
115	147	1
57	119	2
137	137	2
106	125	1
149	149	2
84	84	1
147	147	3
164	164	2
11	64	1
139	139	1
146	146	2
132	132	1
101	139	1
11	11	2
89	89	1
122	160	1
106	126	2
103	103	2
71	71	2
151	151	2
54	54	1
163	164	1
120	127	1
166	167	2
125	125	1
44	45	2
18	19	1
109	109	1
157	158	2
90	108	1
2	2	3
81	94	1
128	128	1
150	150	2
88	88	1
66	66	2
11	12	1
116	116	2
82	82	1
17	17	2
74	74	1
135	136	1
94	152	1
12	12	1
121	122	2
141	141	1
153	153	1
81	81	1
6	6	3
96	96	3
42	42	3
93	128	1
144	146	1
166	166	1
78	87	1
135	135	2
64	99	1
76	76	1
40	40	1
145	145	1
124	124	3
55	55	1
48	123	1
64	65	1
142	143	1
112	127	1
44	49	1
113	113	1
78	78	1
142	170	1
36	36	2
97	97	1
79	102	1
68	96	1
67	70	1
98	125	1
155	155	1
108	109	1
62	65	1
96	140	1
115	137	1
83	84	1
130	130	1
113	127	1
37	37	2
64	64	1
67	69	1
70	97	1
95	95	1
74	89	2
161	161	1
90	113	1
100	100	1
138	138	1
105	130	1
18	18	1
119	119	1
83	83	1
125	126	1
57	57	1
157	157	2
131	131	1
85	92	1
160	160	2
137	142	1
49	50	1
110	110	1
22	153	1
156	157	2
53	72	1
170	170	1
9	9	2
76	86	1
43	43	1
4	20	1
39	44	1
75	75	1
117	128	1
28	28	1
12	73	1
117	117	2
144	144	1
109	159	1
127	134	1
0	0	1
46	46	1
20	20	1
92	96	1
162	163	1
127	160	1
112	112	1
56	57	1
135	140	1
65	68	1
