160	160	3
14	14	1
51	58	1
71	72	3
4	15	1
203	203	1
59	59	3
220	224	3
215	219	1
158	163	1
86	86	4
7	7	3
62	63	1
145	145	6
160	207	1
248	248	2
164	164	1
170	171	1
212	212	4
197	197	4
16	17	1
65	65	5
3	3	3
207	208	1
26	40	3
150	151	1
83	85	1
76	82	1
98	100	1
119	120	1
112	112	3
196	217	1
244	244	4
66	245	1
179	179	3
8	55	3
34	34	2
98	112	1
104	104	1
75	75	1
85	91	1
9	10	3
80	80	3
226	226	1
176	177	2
58	58	1
117	227	1
227	228	2
202	203	1
231	232	2
60	61	1
82	82	11
205	205	5
90	90	2
15	15	3
110	110	5
168	168	3
72	102	1
11	11	2
80	103	1
157	157	2
5	19	1
1	36	2
232	242	1
167	222	1
26	26	3
27	27	1
187	187	8
54	54	1
113	113	2
85	86	1
70	70	2
181	181	4
6	52	1
34	57	2
186	188	2
180	234	3
168	169	3
213	218	1
150	150	1
41	41	4
27	42	1
231	233	1
210	211	1
183	183	2
62	62	1
246	246	3
50	113	1
22	38	1
218	218	2
169	170	2
200	201	2
107	107	4
232	232	1
56	56	4
84	84	1
37	37	4
234	237	1
20	29	1
75	80	1
166	166	1
175	226	1
52	52	2
38	38	4
200	200	2
210	224	1
94	94	2
92	165	1
230	230	5
86	87	3
117	118	1
243	243	3
58	119	2
226	227	2
53	54	1
79	82	1
213	217	1
159	160	1
209	209	2
234	234	1
26	32	1
213	221	1
91	91	3
170	186	1
227	227	2
44	44	2
30	30	5
32	32	4
152	228	1
105	152	1
11	13	1
10	10	3
61	62	1
57	61	1
62	66	1
19	19	2
235	235	2
180	180	1
178	178	1
183	217	1
35	35	1
36	36	2
199	199	3
176	225	1
48	48	1
33	36	1
146	219	1
175	222	1
207	207	2
97	97	1
219	219	2
66	72	3
204	204	2
47	121	1
76	225	1
242	242	1
26	54	1
184	184	2
60	60	2
238	238	2
76	76	1
201	201	3
182	182	2
19	20	1
167	179	2
87	108	1
114	114	1
158	160	1
14	49	2
37	38	1
119	119	2
77	117	1
90	91	1
6	6	1
87	160	1
15	161	1
196	196	2
16	16	1
216	242	1
167	167	1
58	63	1
200	244	1
173	173	2
49	80	1
220	233	1
193	194	1
76	248	2
225	225	1
87	94	1
105	166	1
151	174	1
193	193	1
220	220	1
165	170	1
40	40	3
71	71	3
191	191	2
76	77	1
78	78	2
4	4	1
29	29	3
99	99	1
9	23	1
8	46	1
206	221	1
206	206	1
111	113	1
210	230	1
189	189	3
73	118	1
86	166	1
191	192	1
236	240	1
219	223	2
76	79	1
28	29	1
110	114	1
222	222	1
84	185	1
112	114	1
187	198	1
197	238	1
173	181	2
190	237	1
215	216	2
72	72	1
162	162	1
24	24	1
236	237	1
86	226	1
39	45	1
49	49	1
42	43	1
103	103	1
170	185	1
15	46	1
169	169	2
223	223	2
245	246	1
195	223	1
170	170	1
172	172	2
117	117	1
247	247	2
22	22	1
18	18	1
214	214	1
108	108	1
213	213	1
107	117	1
73	73	1
86	159	2
38	39	2
80	81	1
52	53	2
85	85	3
116	116	1
87	87	1
208	210	1
69	91	1
214	218	2
220	222	1
161	161	1
156	157	1
198	198	3
208	208	1
6	38	1
50	60	1
48	91	1
19	34	1
75	76	2
33	34	1
239	239	1
209	226	2
171	229	1
236	236	1
44	45	1
155	155	2
186	186	1
74	75	1
53	116	1
5	20	1
156	156	2
60	69	1
66	120	1
221	223	1
43	45	1
105	167	1
110	111	1
158	158	1
17	17	1
98	98	1
107	114	1
23	23	1
187	196	1
100	163	1
101	101	1
185	185	1
9	9	1
164	165	2
152	229	1
16	117	1
48	115	1
175	175	1
240	240	2
159	159	1
41	62	1
42	42	2
2	17	1
119	222	1
13	14	1
106	106	1
1	56	1
83	84	2
153	156	1
68	118	1
73	83	1
5	5	1
215	221	1
210	228	1
195	239	4
87	88	1
81	81	1
215	215	1
17	47	2
178	179	2
174	174	1
83	83	1
203	208	1
165	224	2
154	154	1
39	41	1
218	219	1
245	245	1
28	28	3
72	74	1
189	197	1
88	88	2
185	186	1
61	61	1
230	231	1
33	33	1
162	164	1
30	31	1
196	247	1
194	195	1
97	98	1
229	229	1
176	176	1
58	62	1
92	187	1
162	169	1
17	41	1
174	235	1
223	226	1
26	52	1
55	55	1
111	112	1
25	25	1
208	218	1
19	38	1
187	233	1
165	165	1
153	153	1
221	221	1
31	31	1
43	43	1
224	231	1
46	46	1
8	8	2
15	65	1
171	191	1
15	55	1
104	105	1
64	68	1
109	109	1
85	202	1
201	241	1
152	152	1
223	231	1
190	190	1
201	204	1
58	59	1
73	75	1
52	161	1
105	105	1
211	211	1
