76	76	3
44	44	2
65	66	1
61	61	2
25	48	2
106	106	3
11	24	1
49	49	3
16	17	1
101	102	1
100	100	6
16	20	1
52	52	3
102	103	1
130	131	1
67	67	4
76	77	3
41	41	2
132	132	2
92	93	3
117	118	1
127	128	4
2	12	2
85	88	1
23	23	3
129	129	2
81	81	2
92	94	2
105	105	1
4	121	1
126	126	2
18	18	3
103	103	5
69	70	1
12	46	1
47	47	1
79	92	1
115	115	3
19	19	5
101	125	2
33	34	2
58	58	1
54	54	2
51	51	2
67	70	1
37	38	1
25	25	2
20	20	2
126	130	1
27	28	2
15	15	4
5	5	2
16	34	1
90	91	3
63	63	3
60	62	1
14	16	4
123	123	3
73	73	5
43	43	5
99	100	1
89	89	2
113	113	1
67	68	1
34	92	1
33	33	3
46	47	1
106	107	1
29	30	1
45	45	1
91	91	2
57	63	1
84	84	2
5	101	1
14	15	1
124	124	1
21	21	2
17	17	2
107	107	3
63	78	1
46	94	1
29	129	1
112	112	6
78	79	1
70	88	1
90	90	1
6	48	2
114	114	3
14	14	3
11	13	1
56	57	1
50	50	6
52	53	3
30	30	1
74	74	3
128	128	1
119	119	2
111	111	3
13	14	2
27	49	1
20	21	1
70	81	1
65	65	4
16	25	1
69	69	2
3	3	2
72	72	2
68	68	2
49	121	1
95	95	1
118	118	6
82	82	4
130	130	1
83	83	3
59	84	1
4	4	3
88	88	3
120	120	2
6	23	2
81	86	1
101	101	2
16	16	1
133	133	1
55	108	1
22	22	2
1	10	1
59	75	1
94	94	2
39	39	4
30	34	1
19	41	2
28	123	3
23	31	1
97	97	2
14	40	1
49	69	1
78	78	2
26	97	1
89	90	1
117	117	1
26	26	1
48	48	5
5	19	1
112	118	1
73	74	1
86	86	4
108	110	1
4	7	1
44	45	2
6	124	2
110	125	1
57	57	3
50	52	1
50	51	1
31	110	1
62	65	1
60	60	1
53	117	1
82	86	2
125	125	1
11	11	3
68	69	1
126	127	1
62	62	1
55	57	1
46	95	1
55	79	1
6	102	1
81	94	1
108	109	1
45	71	1
38	39	1
63	64	1
56	56	2
103	104	1
72	74	1
71	71	1
96	107	1
28	80	1
102	102	1
6	6	2
113	114	1
83	84	1
108	108	2
111	112	1
122	123	1
12	18	1
104	104	1
92	92	2
70	75	1
75	76	2
8	8	1
121	122	1
27	27	1
66	66	2
2	3	1
1	7	1
108	125	1
86	87	1
18	19	1
29	29	1
77	77	1
84	86	1
13	13	1
96	96	1
122	122	1
127	127	1
93	93	1
28	28	1
2	114	1
1	1	1
110	116	1
22	34	1
49	68	1
52	55	1
98	99	1
98	98	1
23	24	1
42	89	1
25	68	1
72	73	1
