57	59	1
174	174	1
53	54	1
132	132	4
157	176	1
14	14	3
76	76	5
154	154	5
138	138	6
114	114	1
113	113	1
143	143	2
96	96	4
163	163	4
122	122	1
142	143	1
8	8	3
13	13	4
71	71	1
146	150	1
171	171	1
12	12	2
91	92	1
79	79	3
64	64	4
33	33	1
114	116	3
135	136	2
105	105	3
49	80	1
120	125	1
148	148	3
35	42	2
55	70	1
148	152	1
52	52	1
88	89	1
141	148	2
97	123	2
99	99	1
150	154	1
164	164	6
118	118	2
30	30	2
147	148	1
43	43	1
105	106	3
70	71	2
15	15	2
72	72	4
71	72	1
152	152	3
128	128	5
169	169	3
93	93	3
161	161	2
174	175	1
137	174	1
44	50	1
26	27	1
67	67	3
94	94	4
154	158	1
72	73	1
20	21	2
95	95	2
120	120	4
27	99	1
158	158	5
63	64	2
59	113	1
97	97	1
59	116	1
8	126	1
96	150	1
126	126	2
126	127	1
15	17	1
80	142	1
87	125	1
170	170	2
10	10	2
115	152	1
23	23	4
34	34	1
131	131	2
136	136	2
101	101	2
162	174	2
127	128	1
165	165	1
172	172	3
0	61	2
82	116	1
61	82	1
94	124	1
11	11	2
115	116	2
42	42	2
66	154	2
176	176	3
92	116	1
36	36	1
96	107	1
104	104	2
87	90	1
54	140	1
10	161	1
86	86	1
24	24	3
102	103	1
75	75	2
94	95	1
52	71	4
87	133	1
83	83	1
1	1	1
92	119	1
1	36	1
123	124	1
123	123	5
177	180	1
9	9	3
74	74	1
111	111	2
8	9	1
22	63	2
173	173	2
40	41	1
112	112	1
12	13	2
103	103	2
9	54	1
158	159	1
32	32	1
98	101	1
62	163	1
137	137	4
167	167	1
172	173	1
170	179	1
84	120	1
56	57	2
96	112	1
10	12	1
179	179	2
92	92	1
104	120	1
51	73	1
91	91	1
157	157	2
161	162	1
9	49	1
73	76	1
104	105	2
65	66	1
81	82	1
166	166	2
156	158	1
102	102	1
20	20	1
109	110	1
116	116	3
87	113	1
145	145	2
29	29	2
133	133	2
52	55	1
177	177	2
75	80	1
129	129	3
119	119	2
115	115	1
167	169	2
74	75	1
28	52	1
51	51	1
116	121	1
32	75	2
106	114	1
18	28	1
10	11	1
77	77	2
135	135	2
3	7	1
147	147	2
146	146	3
157	170	1
63	98	1
27	27	3
60	158	1
5	37	1
121	121	1
54	56	1
150	150	1
82	82	2
75	180	2
155	156	1
142	142	2
26	26	1
32	84	1
82	87	2
116	152	1
19	19	2
22	23	1
177	178	1
3	4	1
141	153	1
73	73	1
61	61	1
80	80	2
97	118	1
28	44	1
58	58	1
139	139	2
2	3	2
166	167	1
123	157	1
145	163	1
6	17	2
78	138	1
56	56	1
66	66	3
159	159	2
107	107	1
100	120	1
3	3	1
22	57	1
4	5	1
1	2	1
96	131	2
97	104	1
116	124	1
44	44	2
117	117	1
87	87	2
157	158	1
101	126	1
165	167	1
155	162	1
50	50	1
25	26	2
62	85	1
42	43	1
178	178	1
54	54	2
151	156	1
143	153	1
55	76	1
60	60	1
168	177	2
169	174	2
121	136	1
62	84	1
25	25	2
113	116	1
151	151	1
149	149	1
7	10	1
163	164	1
18	19	1
112	166	1
98	98	1
131	134	1
85	126	1
153	153	1
151	152	1
81	81	1
35	35	1
173	179	1
50	72	1
93	96	2
4	50	1
41	41	2
122	130	1
28	29	1
88	88	1
160	160	1
59	59	1
114	133	1
107	147	1
122	131	1
4	13	1
100	100	2
170	174	1
162	162	1
50	51	1
27	50	1
125	158	1
117	141	1
39	52	1
28	28	1
162	163	1
145	168	1
168	168	1
11	13	1
45	45	1
