33	33	2
137	138	1
56	57	2
30	30	2
96	96	2
40	66	2
13	41	1
79	125	1
137	137	1
41	118	1
94	94	2
26	26	2
20	77	1
21	59	1
94	99	1
2	2	2
58	59	1
82	82	1
41	41	3
73	74	1
27	27	3
142	142	1
95	95	2
135	136	1
21	47	1
76	76	1
101	101	1
30	31	1
140	140	1
59	104	1
57	137	1
67	67	2
90	91	2
26	77	2
64	64	2
40	59	1
75	130	2
21	21	1
5	5	1
128	128	2
67	118	1
81	81	1
104	104	1
25	87	1
132	132	1
141	141	2
24	35	1
59	61	1
59	60	1
53	54	2
71	74	2
123	124	2
18	18	1
89	94	1
22	22	1
58	58	4
31	32	1
28	28	1
127	130	2
135	135	4
41	68	2
113	114	1
29	29	5
59	59	2
10	10	3
87	94	1
127	131	1
51	140	1
62	63	1
11	11	1
102	102	1
115	120	1
51	138	1
30	85	1
56	56	3
117	117	1
116	116	2
10	56	1
49	140	1
17	17	3
65	122	1
3	3	1
120	120	2
93	94	1
35	36	1
71	99	1
97	97	4
129	129	1
80	80	1
118	119	3
129	130	2
121	137	1
135	141	1
16	16	1
134	134	1
54	54	1
27	28	1
102	104	1
37	37	1
124	124	1
119	119	2
85	85	2
69	70	2
8	8	1
29	82	2
6	58	1
38	39	1
1	1	2
67	119	1
70	118	1
109	117	1
2	107	1
49	136	1
61	64	1
9	9	3
61	107	1
66	67	1
51	52	2
110	110	2
41	42	1
97	101	1
92	92	1
96	98	1
20	25	1
130	131	1
93	93	2
118	118	3
99	102	1
127	129	1
60	61	1
126	127	1
87	98	1
20	20	1
94	95	1
36	37	1
124	126	1
141	142	1
62	62	1
15	15	1
97	98	2
105	138	1
86	87	1
123	123	1
100	100	1
71	71	1
81	94	1
42	42	1
57	59	1
48	48	1
131	133	1
71	108	1
38	38	1
1	94	1
84	84	1
134	136	1
101	103	1
72	91	1
104	105	1
2	58	1
144	144	1
2	43	1
83	84	1
59	67	1
6	17	1
87	87	1
132	134	2
74	74	1
70	70	2
27	68	2
143	144	1
28	67	1
99	128	2
124	125	1
24	24	1
32	34	1
31	31	1
130	130	1
100	130	1
64	86	2
105	105	1
29	67	1
103	103	1
36	39	1
13	114	1
60	62	1
125	125	1
64	91	2
6	6	1
127	127	1
49	52	1
34	36	1
6	41	1
55	55	1
17	22	2
61	62	1
74	75	1
115	115	1
87	132	1
109	109	1
88	88	1
126	126	1
82	126	1
125	126	1
38	66	1
132	135	1
