12	12	2
71	71	3
244	245	4
221	222	2
179	224	1
16	231	1
221	221	3
163	163	3
216	216	1
90	90	4
101	101	4
7	30	1
26	201	2
147	147	4
108	108	1
238	238	2
67	67	5
100	100	1
7	7	3
74	75	1
181	181	3
71	74	3
115	116	2
75	75	1
119	119	3
8	32	1
206	206	4
213	214	6
19	20	1
36	36	4
192	192	6
68	68	6
22	22	2
109	109	2
242	242	5
79	106	1
73	76	3
156	156	4
235	235	3
219	219	3
29	30	1
147	151	1
81	81	3
197	215	1
196	218	2
0	43	1
48	48	3
22	23	3
227	228	1
238	240	2
30	31	3
198	198	2
116	117	1
179	180	2
112	112	4
224	224	1
184	215	1
182	184	1
229	229	5
69	99	1
17	17	1
118	120	1
45	45	4
30	35	1
220	243	2
181	187	1
209	209	3
117	117	3
201	201	5
66	66	3
97	97	2
237	237	5
24	24	1
37	37	2
182	182	8
79	81	3
17	234	1
179	199	1
3	3	3
50	50	3
105	108	1
217	217	3
66	69	2
200	200	1
67	196	2
41	57	2
189	189	5
86	86	2
76	97	1
11	11	6
228	233	1
168	168	3
222	222	4
149	149	4
165	165	4
55	55	4
43	46	2
196	196	2
159	162	1
155	155	1
84	84	2
158	162	3
233	233	3
223	224	2
116	118	1
201	202	2
72	73	1
6	6	5
219	231	2
219	220	2
187	187	3
232	232	4
60	108	1
100	102	1
35	35	2
10	203	2
59	59	5
176	176	5
224	230	1
49	49	1
65	79	1
16	16	5
225	225	2
78	78	4
2	2	5
163	164	1
77	113	1
72	75	1
45	116	1
221	223	1
236	236	5
215	215	4
226	228	3
183	183	3
110	110	1
169	169	3
6	33	1
223	223	6
233	234	2
31	31	5
44	44	4
215	217	1
145	145	4
56	57	1
100	114	1
6	7	2
172	172	2
19	35	1
58	116	2
40	45	1
157	174	2
241	247	2
23	24	1
10	11	1
195	195	7
111	111	5
241	241	4
54	54	4
160	160	6
86	87	1
181	182	2
52	52	3
70	70	2
1	1	5
185	185	4
19	22	1
220	221	2
153	153	3
184	184	4
76	76	5
215	216	1
231	231	4
15	15	6
14	14	2
188	193	1
202	206	1
8	8	1
230	231	3
62	85	1
65	65	1
232	239	1
57	64	1
168	171	1
159	176	1
4	4	1
38	38	8
60	60	2
17	28	1
72	102	2
162	162	4
246	246	4
186	186	1
234	235	1
232	235	1
98	98	1
39	157	1
59	60	2
90	91	2
17	18	3
38	39	3
152	163	1
161	161	1
198	211	1
28	115	1
192	193	1
23	23	1
167	189	1
194	194	2
204	204	2
217	218	2
72	106	1
18	18	3
97	112	1
116	116	2
20	20	2
32	32	4
168	169	2
39	39	4
65	66	2
213	215	1
172	173	1
178	186	1
91	108	1
34	34	2
211	211	2
77	78	2
159	167	1
218	218	3
171	171	2
238	239	3
170	170	2
221	224	1
27	27	4
9	10	1
84	88	1
198	199	1
5	53	1
102	102	1
46	46	4
85	85	3
39	40	2
28	28	3
2	14	1
194	224	1
43	44	2
26	26	2
91	91	5
74	76	1
64	64	3
66	107	1
11	31	1
216	217	1
25	25	2
213	213	3
190	213	1
103	103	2
69	70	1
99	99	3
42	57	1
13	13	1
196	199	1
76	77	2
213	227	1
89	217	2
68	69	1
5	7	1
82	82	1
92	92	4
229	230	1
119	120	1
200	207	1
57	63	1
34	40	2
40	40	2
164	164	1
77	77	4
96	96	1
84	85	1
193	197	1
200	201	1
97	98	1
85	117	1
244	246	1
237	239	1
154	154	4
205	206	2
173	173	2
166	166	3
160	207	2
41	41	2
207	207	6
201	227	1
231	243	1
56	56	4
107	107	2
230	230	1
80	81	1
19	27	2
95	98	2
243	243	2
10	10	2
89	89	1
88	95	1
51	51	2
35	37	1
58	58	4
104	104	2
55	111	1
108	112	1
119	171	1
16	17	1
27	28	1
184	185	1
178	178	1
240	240	3
95	95	2
95	107	1
167	174	1
63	63	3
59	114	2
92	106	1
53	145	1
195	196	1
42	42	2
188	188	2
64	65	1
18	26	1
100	178	1
101	103	1
101	225	1
244	244	2
218	219	1
58	60	1
214	245	1
59	144	1
193	193	2
177	177	2
180	181	1
88	88	2
29	40	1
152	188	3
203	203	4
228	239	1
199	199	3
87	160	1
198	212	1
205	205	2
55	100	1
178	179	1
201	205	1
2	152	1
189	237	3
153	157	2
114	114	1
158	184	1
166	191	1
203	204	1
96	104	1
68	79	1
165	166	2
77	200	1
4	47	1
55	176	1
210	211	1
173	178	1
240	245	1
46	70	1
203	212	1
73	83	2
226	226	3
32	33	1
151	151	1
75	84	1
112	247	1
247	247	3
214	214	1
3	4	2
189	191	1
47	49	1
30	30	2
240	243	1
160	201	1
95	96	1
94	94	1
115	115	1
221	241	1
9	9	3
60	61	1
80	80	1
163	181	1
229	231	1
57	57	1
33	33	3
27	29	1
200	224	1
70	73	1
210	214	1
172	211	1
226	247	1
63	66	1
208	208	3
242	244	2
74	74	1
202	202	2
202	212	1
19	19	1
11	12	1
71	239	1
88	91	1
210	210	1
52	59	1
201	208	1
47	47	1
37	43	1
227	227	1
220	220	1
8	70	1
72	72	1
184	202	1
65	105	1
62	86	1
168	172	1
19	170	1
77	80	1
29	29	1
38	43	1
120	121	1
63	197	1
25	26	1
108	116	1
111	246	1
245	246	1
158	159	3
159	159	1
93	93	2
153	156	1
45	143	1
98	113	1
83	83	3
61	102	1
232	233	1
67	104	1
59	77	1
21	21	1
53	53	1
206	207	1
113	113	1
245	245	2
5	5	1
62	63	1
96	97	1
189	199	1
69	73	1
79	79	1
55	60	1
205	207	1
54	207	1
110	111	2
105	107	1
159	181	1
238	241	1
175	175	1
105	116	1
105	105	1
96	98	1
80	82	1
228	243	1
51	86	1
78	109	1
152	152	1
166	186	1
170	171	1
28	29	1
37	38	1
191	191	1
190	191	1
102	227	1
197	197	1
232	234	1
61	62	1
79	100	1
44	51	1
5	13	1
75	83	1
78	84	1
86	95	1
154	156	1
