168	168	5
110	122	4
123	124	1
156	156	3
60	60	1
51	51	5
152	154	2
128	128	2
143	144	2
31	31	3
13	13	2
150	153	1
24	45	1
86	86	1
149	149	5
5	5	4
117	118	2
135	170	1
130	130	1
171	171	1
163	163	1
126	130	2
22	23	1
167	167	3
16	52	1
172	172	2
21	21	1
100	100	3
170	170	4
1	70	1
55	56	2
125	125	3
83	83	1
32	33	1
44	113	1
150	150	1
88	172	1
160	160	3
96	96	1
64	95	1
103	103	1
148	148	4
107	110	1
132	137	1
75	75	2
174	174	2
20	20	1
13	110	1
49	50	1
6	6	1
107	111	1
56	56	8
40	40	2
23	23	4
13	109	1
94	94	1
41	41	1
144	144	2
118	118	3
76	134	1
71	72	2
34	35	1
121	124	1
16	16	2
56	57	2
127	127	1
102	102	2
71	71	2
106	114	2
37	37	2
17	88	1
142	143	3
173	173	2
96	97	1
173	175	1
176	176	3
59	59	2
85	85	5
53	124	1
33	34	1
44	51	1
164	165	2
14	122	1
89	89	2
28	35	1
163	164	1
157	157	2
5	37	1
78	78	4
80	135	1
57	63	1
65	65	3
110	110	2
53	53	2
36	36	1
154	154	6
120	120	4
61	87	1
2	5	1
52	52	2
72	72	3
2	3	1
137	137	1
98	98	1
29	30	1
148	167	1
95	95	2
135	136	1
161	162	1
80	80	1
22	27	1
97	97	1
138	138	1
98	127	1
66	66	2
141	141	3
38	38	1
167	168	1
113	113	1
36	167	2
15	123	1
76	76	1
121	126	1
3	3	2
12	12	1
151	155	1
149	150	3
132	133	1
169	169	2
58	59	1
32	32	2
121	121	3
128	129	2
14	14	3
111	124	2
68	68	1
35	35	2
120	121	2
105	105	1
117	125	1
140	140	1
162	162	1
81	81	2
110	159	1
79	79	1
87	87	1
60	61	1
24	26	2
132	170	1
52	122	1
158	159	1
11	11	3
40	41	1
152	152	2
28	29	1
138	139	1
156	157	1
96	100	1
136	153	2
0	0	1
106	168	1
114	114	4
62	62	4
6	10	1
124	125	1
84	85	1
105	106	1
65	66	1
34	174	1
145	145	2
49	49	1
64	64	3
136	165	1
18	18	1
45	49	1
58	58	1
160	162	1
6	121	1
51	81	1
122	123	2
77	172	1
104	159	1
67	68	1
74	74	1
93	94	1
91	91	2
16	17	1
55	55	1
5	14	1
73	73	1
113	114	1
16	68	1
166	166	2
108	108	1
122	122	1
121	122	2
104	104	1
12	20	1
80	110	1
3	25	1
24	25	1
129	129	1
110	111	1
103	104	1
42	42	1
143	145	1
6	38	1
43	112	1
7	9	1
10	10	1
27	27	1
107	130	1
133	134	1
11	12	1
82	82	1
153	153	2
164	164	1
131	131	1
136	136	1
60	94	1
165	167	1
156	162	1
155	156	1
75	173	1
84	84	1
115	115	1
121	125	1
50	80	1
134	138	2
16	53	1
8	11	1
34	34	2
142	142	1
41	42	1
139	139	1
42	43	2
86	145	1
169	171	1
78	79	1
