10	17	2
89	89	1
116	116	2
109	111	2
216	216	3
235	235	6
87	87	2
210	210	3
215	215	3
52	53	1
70	70	3
95	95	1
5	5	2
40	85	1
208	209	3
190	190	2
6	6	4
4	18	1
175	175	1
54	58	1
234	243	1
78	78	2
88	95	1
166	166	4
64	91	1
28	35	3
219	232	2
241	241	1
113	113	2
200	200	2
245	245	1
110	110	5
186	213	1
16	16	4
157	157	2
25	96	1
86	86	3
102	102	1
55	114	1
64	64	2
246	246	2
112	112	1
117	117	2
114	114	1
92	92	2
73	74	1
186	186	3
173	188	1
238	240	1
153	153	1
98	98	1
23	23	1
204	204	2
164	164	3
212	212	1
82	84	1
45	45	1
79	81	1
58	59	1
82	82	1
220	238	1
161	161	3
107	111	1
88	88	2
77	107	1
160	160	1
38	38	2
61	62	1
185	185	2
227	228	1
71	71	1
190	191	1
158	158	2
21	21	2
214	214	1
114	116	1
120	120	3
37	59	1
12	12	1
26	26	4
197	197	3
198	224	1
61	61	1
93	93	1
69	222	2
44	44	2
84	84	4
195	195	4
163	163	5
38	90	1
31	31	1
11	11	2
103	107	2
194	216	1
230	230	1
1	1	2
203	203	1
232	233	3
35	38	1
177	232	1
157	227	1
109	109	1
106	107	2
101	101	3
96	99	1
170	170	1
8	8	3
10	10	1
111	112	1
62	242	1
185	186	2
67	102	1
91	92	1
222	222	1
39	39	1
214	249	1
221	221	1
232	232	1
150	151	2
113	114	1
119	228	1
187	229	1
152	153	2
214	242	2
210	211	1
117	179	1
94	94	2
67	87	1
27	28	2
7	7	2
90	145	1
43	165	1
162	162	1
77	108	1
183	236	1
47	47	2
17	17	1
52	52	2
174	174	1
66	72	1
147	147	1
54	57	1
177	178	1
180	181	1
80	81	1
34	35	1
34	34	2
150	150	1
165	166	2
95	96	1
61	86	1
96	98	1
21	22	1
106	106	1
233	233	1
47	51	1
63	65	1
68	68	2
60	105	1
204	205	1
206	206	1
24	24	4
100	101	1
155	155	3
239	240	1
97	97	2
58	58	2
198	198	1
223	224	1
219	219	2
76	80	1
154	156	2
77	81	1
103	106	1
234	234	1
220	234	1
9	9	1
231	231	1
73	108	1
35	35	1
32	32	1
201	202	1
214	215	2
14	14	1
233	234	2
37	37	1
205	206	1
221	222	2
70	98	1
115	115	1
184	185	1
55	55	3
93	157	2
73	73	1
85	86	1
22	22	1
172	172	1
171	171	1
79	79	2
8	9	2
194	210	1
94	95	1
205	230	2
42	43	1
74	74	1
177	177	1
30	34	1
191	191	1
194	195	1
36	36	2
182	182	1
178	178	1
20	21	1
46	48	1
29	31	1
176	177	1
156	156	1
19	19	1
62	64	1
176	176	1
119	119	1
65	72	1
96	97	1
112	113	1
166	215	1
167	169	1
169	169	1
50	50	1
49	67	1
244	245	1
85	85	2
33	33	3
172	185	1
194	239	1
167	167	1
173	173	1
202	202	1
63	113	1
240	247	1
87	88	1
42	182	2
218	218	2
173	175	1
96	96	1
101	102	1
31	32	2
107	107	1
207	207	1
112	151	1
109	233	1
60	61	1
49	49	1
177	179	1
17	27	1
35	36	1
57	57	1
191	194	1
105	106	1
146	147	1
240	240	1
30	30	2
48	48	1
165	165	1
183	238	1
228	228	1
15	15	1
196	196	1
214	227	1
78	80	1
154	154	1
25	26	1
