79	79	5
142	142	2
211	211	3
216	224	1
157	157	2
21	22	2
11	11	2
229	229	3
2	2	2
128	128	4
159	161	2
59	59	3
146	147	1
7	12	1
118	119	1
32	32	3
192	192	3
31	32	2
198	198	3
179	233	1
204	204	1
5	59	2
231	231	2
34	36	1
120	120	8
138	145	1
212	212	2
136	144	2
214	214	3
37	122	1
10	97	2
160	160	2
72	81	1
159	159	2
223	223	3
175	176	3
38	78	1
36	41	1
217	222	2
228	230	1
144	157	1
214	215	1
158	158	3
52	52	3
3	3	1
151	185	1
15	15	2
61	61	1
147	152	2
166	166	2
129	129	1
17	116	1
49	50	3
156	156	2
31	33	2
126	126	3
131	131	1
32	123	2
194	195	2
7	7	4
218	218	1
23	23	2
194	194	1
177	218	1
77	78	1
226	238	1
13	13	2
73	73	3
207	207	3
155	156	1
181	182	1
26	26	2
163	163	2
78	78	1
45	45	3
37	37	1
168	168	3
86	86	2
121	138	1
242	242	2
122	123	1
144	156	2
60	68	1
150	151	2
16	83	1
143	149	1
97	97	2
18	19	3
97	98	1
21	21	4
193	194	2
123	123	2
73	85	2
160	161	1
14	15	1
9	10	1
68	77	1
140	140	2
84	86	1
5	6	1
55	57	1
152	152	3
54	54	3
138	138	2
122	122	2
16	16	4
215	216	1
53	53	3
143	143	1
64	64	2
102	102	1
130	130	2
75	81	2
175	178	1
235	235	4
174	218	1
83	114	1
153	153	3
141	141	3
85	86	1
1	1	1
157	158	1
115	115	2
125	155	1
81	82	3
40	40	1
17	17	2
51	114	1
180	180	2
4	5	2
83	84	2
47	219	1
43	44	1
161	161	3
188	188	2
82	82	1
187	187	3
208	208	1
167	167	2
180	188	1
180	181	1
69	70	1
120	139	1
233	233	3
51	51	1
128	198	1
177	177	1
199	200	1
235	236	3
48	48	1
47	47	3
206	206	1
236	236	1
174	219	1
189	189	4
30	30	2
170	220	1
69	75	1
42	91	1
183	183	3
185	185	1
19	34	1
154	154	3
200	201	1
28	28	3
104	104	1
105	105	3
212	213	1
139	148	1
118	118	2
169	228	4
201	201	2
198	202	1
29	29	4
196	196	2
99	99	1
148	198	1
141	142	1
139	144	1
131	144	1
210	211	1
224	225	1
44	242	1
210	210	2
71	71	1
215	215	1
41	41	1
110	110	1
27	27	3
76	76	1
236	237	3
100	100	1
42	42	1
120	121	1
12	12	2
135	136	1
23	129	1
137	137	4
46	47	1
9	9	5
199	203	1
30	153	2
55	58	1
168	169	1
1	88	1
20	41	1
81	81	1
60	76	1
197	198	1
118	177	1
17	108	1
199	204	1
232	232	3
18	18	1
98	99	1
73	76	1
36	40	2
124	133	2
35	35	3
171	239	2
71	80	2
19	19	1
19	53	1
142	149	1
166	169	1
45	46	1
226	227	1
20	22	1
134	135	1
179	214	1
205	205	1
158	221	1
33	33	1
147	150	1
25	170	1
107	108	1
226	226	3
234	234	1
200	200	2
184	184	1
127	139	1
163	164	1
165	166	1
12	108	1
121	134	2
172	172	1
22	22	1
195	195	2
225	225	1
174	174	2
55	55	5
186	187	2
101	103	1
1	4	1
143	154	1
141	146	1
2	53	1
15	75	1
104	108	1
228	229	1
106	106	1
180	183	1
34	34	1
182	182	1
181	183	2
104	106	2
186	186	1
146	156	1
27	28	1
65	68	1
209	209	1
203	203	1
178	217	1
57	58	1
237	237	2
29	231	1
174	232	1
25	25	2
84	84	3
6	6	1
196	197	2
39	48	1
239	240	1
222	222	2
206	207	2
150	157	1
158	161	1
136	136	3
160	184	1
21	130	1
56	56	1
127	127	3
58	59	1
213	213	1
59	82	1
144	144	1
201	202	1
106	129	1
111	113	1
191	191	1
97	102	1
46	242	1
238	238	2
133	133	1
30	74	2
114	117	1
189	214	1
241	241	1
169	180	1
136	155	1
175	175	1
12	72	1
0	6	1
4	84	1
130	143	1
146	157	1
112	112	1
215	234	1
47	109	2
150	198	2
76	84	1
236	238	1
58	58	2
221	221	1
75	75	1
167	181	1
230	231	1
137	138	1
139	139	1
219	219	1
38	40	2
216	216	1
50	50	1
152	153	1
136	137	1
123	124	1
173	216	1
56	57	1
231	233	1
38	38	1
67	67	1
171	171	1
167	199	1
57	57	2
195	196	1
31	31	1
186	188	1
237	238	1
60	60	1
164	164	1
229	230	1
230	237	1
214	227	1
31	38	1
230	230	1
217	218	1
29	39	1
146	146	1
179	227	1
139	187	1
74	74	1
220	220	1
133	134	1
54	55	1
36	36	1
105	130	1
124	124	1
8	8	2
2	5	1
228	228	2
65	65	1
114	114	1
88	100	1
162	163	1
196	206	1
197	197	1
80	80	1
205	206	1
24	87	1
181	181	1
20	20	1
171	237	1
44	45	1
150	163	2
35	36	1
147	148	1
72	83	1
70	70	1
173	173	1
95	103	1
108	108	1
165	165	1
140	142	1
72	72	1
23	143	1
176	229	1
170	224	1
214	223	1
169	169	1
201	206	1
241	242	1
117	117	1
54	57	1
220	224	1
70	71	1
