37	37	3
93	93	3
83	83	2
106	106	3
191	191	3
102	102	2
23	23	4
19	19	2
113	113	1
13	13	1
182	228	1
30	37	1
192	194	1
173	173	3
114	116	1
213	213	3
72	169	2
156	157	2
51	51	2
35	35	1
74	75	1
209	209	4
223	225	1
228	229	1
202	202	1
27	27	3
57	57	2
109	109	1
82	210	2
179	179	2
73	103	2
218	218	1
3	6	1
193	210	1
33	33	1
66	66	5
201	201	3
55	55	3
21	21	2
3	3	2
107	107	3
209	210	1
42	42	6
147	156	1
76	76	2
25	53	1
169	169	2
174	178	1
145	145	2
38	38	4
47	48	2
208	209	1
26	26	4
88	88	4
245	245	2
186	186	4
71	166	1
94	95	2
207	207	3
20	20	6
145	200	1
239	239	4
96	97	2
226	226	4
246	246	3
80	80	2
74	74	1
104	104	1
229	229	1
149	149	1
25	25	1
109	110	2
197	197	2
213	214	2
85	86	1
220	222	2
189	194	1
42	43	1
73	74	1
167	167	1
19	167	1
245	247	1
232	232	5
176	177	3
18	19	2
79	81	1
47	47	3
208	208	2
210	210	1
151	151	2
77	82	2
227	227	1
101	101	2
216	237	1
212	212	5
215	215	3
116	116	2
10	10	2
203	203	2
14	14	1
31	31	2
81	102	2
34	34	4
36	36	1
86	90	2
64	64	3
187	215	3
244	244	3
96	96	2
219	233	2
228	228	2
95	95	1
197	198	1
110	110	2
240	240	1
144	144	2
235	235	3
7	9	1
198	199	1
204	204	1
188	188	2
70	96	1
46	46	2
94	94	1
67	67	1
233	233	1
215	228	1
164	187	1
165	165	3
69	69	1
91	91	2
198	198	4
64	69	1
164	164	1
108	110	1
28	28	2
200	200	2
158	179	1
10	11	1
187	187	2
115	115	3
146	200	1
96	102	1
167	214	3
70	71	1
182	221	1
84	85	1
204	205	3
178	178	3
81	115	1
217	217	2
161	162	1
44	44	1
48	48	1
53	53	1
91	92	1
55	57	1
218	219	2
18	20	1
172	174	3
219	220	1
62	62	2
14	44	2
166	166	1
214	214	1
11	35	1
45	45	2
65	65	1
24	24	3
22	22	1
178	213	1
120	120	1
158	158	1
192	192	1
29	29	2
224	224	1
196	197	2
182	183	1
227	234	2
79	79	1
221	221	2
230	246	1
6	164	1
155	155	1
44	45	1
180	180	1
56	59	1
14	31	1
43	43	2
30	34	1
95	112	1
236	236	2
58	58	2
218	240	1
84	84	1
237	237	1
176	197	2
81	82	1
52	52	1
160	160	2
49	49	3
83	84	1
181	181	1
173	203	1
11	11	1
153	153	1
71	71	1
165	243	1
32	32	1
239	240	1
175	175	3
92	92	1
21	174	1
241	241	1
83	241	1
40	40	1
8	8	1
170	170	1
221	235	1
89	89	1
78	78	1
85	85	1
238	238	1
20	66	1
97	98	2
248	248	1
245	246	1
163	163	4
162	163	1
16	16	3
66	67	1
21	207	1
152	153	1
185	236	1
56	60	1
41	41	1
7	7	1
63	63	1
160	178	1
159	159	1
206	206	1
189	192	1
82	97	1
16	33	1
177	177	1
214	216	1
35	36	1
242	242	1
171	177	1
187	190	1
5	5	1
189	189	2
244	245	1
171	199	1
6	7	1
240	247	1
231	231	1
231	240	1
17	17	1
152	152	1
97	97	1
22	23	1
