92	102	1
56	56	1
96	97	1
68	68	3
27	29	1
122	122	3
65	66	2
81	81	3
47	47	1
12	12	1
98	98	3
52	52	4
110	110	1
62	72	3
85	85	1
117	117	4
118	118	2
5	5	2
31	31	4
45	128	1
9	17	1
62	62	1
76	76	5
4	5	5
25	25	2
26	108	2
123	123	1
128	128	1
126	129	1
51	51	1
39	92	1
127	127	4
97	106	2
104	105	1
99	99	2
68	70	1
11	11	1
94	94	2
40	40	1
41	49	1
83	90	1
106	108	1
50	118	1
41	43	1
90	90	2
94	95	3
45	45	2
64	89	1
50	50	1
1	1	5
71	71	2
20	20	2
38	40	1
96	96	4
54	55	1
8	8	3
21	21	2
105	105	2
23	23	3
108	108	4
102	103	2
2	2	1
118	120	1
26	27	2
84	85	1
15	15	1
112	114	1
64	71	1
44	44	2
125	125	2
82	82	2
120	120	1
21	22	2
115	115	1
80	82	3
29	29	2
58	118	1
3	3	2
72	72	2
52	53	3
92	93	3
107	108	1
73	74	1
116	116	2
92	92	1
1	2	1
33	33	1
131	131	1
124	125	1
14	14	2
63	67	1
55	55	1
71	72	1
48	112	1
53	107	1
119	126	1
72	73	1
100	103	1
97	97	2
50	51	1
21	23	1
58	58	1
60	60	1
49	50	1
30	30	2
111	114	1
70	70	2
83	89	1
24	24	3
53	83	1
108	109	1
60	61	3
115	116	2
24	25	1
59	59	1
13	117	1
82	84	2
63	63	1
62	71	1
118	119	1
67	67	3
114	114	1
68	69	1
15	26	1
30	31	1
29	31	1
22	23	2
74	74	2
113	113	2
101	101	3
75	75	1
13	13	1
111	112	1
126	128	1
50	56	1
27	28	1
52	82	1
94	103	1
57	64	1
42	42	1
54	54	1
91	91	2
111	116	1
83	86	2
109	109	1
4	4	2
16	18	1
112	120	1
75	76	1
102	102	1
41	41	1
53	53	2
127	130	2
93	94	1
53	54	1
19	19	2
66	85	1
43	43	1
114	119	1
76	77	1
62	66	1
50	54	1
26	26	1
42	46	1
19	21	1
66	66	2
130	130	3
30	39	1
39	40	1
41	42	1
17	17	1
121	122	1
112	112	1
125	131	1
46	47	1
103	103	1
58	111	1
95	95	1
78	78	1
106	107	1
7	8	2
90	93	1
91	93	1
38	38	1
23	24	1
22	22	1
65	65	1
4	110	1
56	102	1
101	102	1
115	118	1
28	29	1
39	116	1
86	87	1
8	123	1
18	18	1
55	67	1
93	95	1
66	67	1
22	29	1
49	57	1
