123	123	2
23	23	2
135	135	3
156	156	2
58	114	1
147	147	4
67	67	3
39	49	1
134	143	3
174	174	2
88	89	2
109	111	1
119	120	1
47	127	2
168	168	1
176	176	4
105	162	1
85	85	1
32	32	2
56	87	1
95	95	2
38	41	1
105	113	1
157	157	2
100	101	1
184	184	1
48	48	1
162	165	1
27	36	1
176	181	1
144	144	1
19	20	2
57	57	2
98	130	2
139	157	1
108	131	1
178	178	4
122	123	2
177	177	1
38	38	2
121	121	1
38	47	1
21	65	3
90	90	1
138	140	1
58	58	1
11	37	2
26	26	3
169	169	1
69	69	1
163	163	1
32	34	1
99	150	1
22	22	1
11	11	1
153	154	1
108	128	1
191	191	1
181	181	2
141	149	1
43	43	3
19	19	2
53	53	2
107	107	2
137	137	1
165	166	1
187	187	2
192	192	1
148	148	2
87	87	1
72	72	2
7	7	5
160	172	1
146	146	3
153	153	1
136	136	3
104	108	1
159	183	1
13	13	1
69	71	1
18	18	3
42	42	1
3	3	4
99	99	4
113	114	1
120	127	2
111	111	1
36	40	1
88	88	2
194	194	2
35	35	1
82	171	1
126	126	5
30	30	3
149	149	1
145	145	1
17	17	1
116	116	2
93	112	1
174	181	1
31	31	2
172	172	1
47	47	1
186	186	2
128	128	4
3	134	1
98	163	1
134	135	1
177	180	1
109	110	1
15	15	1
124	130	1
193	193	2
151	151	2
74	74	3
51	55	1
108	165	1
40	40	1
81	83	1
56	65	1
142	143	1
49	49	1
151	152	1
20	20	2
27	27	2
134	134	1
112	194	1
162	164	1
171	172	1
12	25	1
159	160	1
189	190	1
161	161	2
163	187	1
113	113	1
146	180	1
127	129	1
137	156	1
107	195	1
82	82	2
94	114	1
2	97	1
180	194	1
143	160	1
114	114	2
45	45	3
165	165	1
17	18	1
4	98	1
105	105	1
159	164	2
96	116	2
5	128	1
139	166	1
162	162	1
131	131	1
101	188	1
94	95	1
69	76	1
70	70	2
117	117	1
124	124	2
9	9	1
138	149	1
108	109	2
108	148	1
97	98	1
185	185	1
14	87	1
167	181	1
36	36	1
179	190	1
106	106	2
132	132	2
57	181	1
17	28	1
101	101	1
25	25	1
106	147	1
184	186	1
75	75	1
78	78	1
33	137	1
41	89	1
113	115	1
66	66	1
164	164	1
70	73	1
118	172	2
143	184	1
25	26	1
169	172	1
179	179	1
73	169	1
59	59	2
61	61	1
26	79	1
166	193	3
54	59	2
163	164	1
76	76	1
171	171	1
100	100	1
158	158	2
138	159	1
18	24	1
180	180	1
143	143	2
34	34	1
173	173	1
2	37	1
63	63	1
13	43	1
160	176	1
183	183	1
4	4	2
11	21	1
53	54	1
103	103	1
113	121	1
156	160	1
94	94	1
71	118	1
4	5	1
112	134	1
77	77	1
35	48	1
80	80	1
165	185	1
6	7	1
130	130	1
118	138	1
119	119	1
32	129	1
9	10	1
12	13	1
21	21	1
65	65	1
1	38	1
132	134	1
182	182	1
102	102	1
129	144	1
2	19	1
2	24	1
98	98	1
80	82	1
16	16	1
