27	29	2
8	8	8
109	109	8
90	90	8
19	20	1
35	62	1
99	101	1
131	131	2
69	69	3
30	44	3
66	84	2
0	1	1
14	15	4
19	19	4
12	12	5
120	120	5
85	118	2
110	110	3
53	53	4
78	133	1
4	4	4
14	14	6
2	2	6
95	95	7
113	134	1
35	35	5
18	43	1
87	126	1
35	36	1
67	67	4
77	80	1
80	117	1
107	111	1
120	121	1
83	84	2
9	10	1
126	126	3
116	116	5
71	103	2
14	31	1
9	9	3
104	104	3
80	113	1
121	122	2
22	22	6
45	54	2
68	68	2
11	11	4
125	125	8
93	93	3
0	56	1
2	37	1
89	89	4
102	102	2
55	55	5
32	32	5
4	54	2
21	126	1
87	99	1
36	62	1
71	111	1
60	60	8
100	100	6
37	68	1
96	96	8
20	20	3
68	69	2
10	10	10
64	114	1
23	25	1
15	15	3
56	129	1
87	87	7
25	25	1
20	81	2
84	115	1
65	65	5
135	135	1
42	52	2
54	119	1
28	28	3
8	12	2
13	13	4
1	1	2
84	86	1
113	113	7
38	38	2
92	92	7
55	57	1
54	55	2
62	63	2
76	76	11
3	3	2
86	86	2
98	98	5
101	106	2
3	5	1
106	107	2
81	82	2
105	105	5
36	36	4
22	23	1
30	33	1
114	114	2
82	82	5
50	56	1
72	72	6
15	61	1
125	131	1
27	89	1
24	54	2
132	132	3
84	84	1
59	59	3
129	129	6
101	101	4
0	30	1
85	85	6
11	88	1
112	112	10
16	16	4
79	80	1
71	71	5
67	116	1
24	24	4
57	63	1
117	117	6
34	34	5
119	119	9
78	132	1
33	33	1
50	126	2
111	111	3
91	91	2
49	123	1
64	79	1
71	72	2
60	61	1
131	132	1
43	83	1
7	7	7
116	126	1
114	124	1
52	52	2
37	37	7
32	34	2
132	133	5
18	18	2
24	83	1
97	97	4
124	124	2
6	113	2
115	119	2
50	80	1
57	57	1
14	79	1
72	122	2
66	66	5
61	61	4
90	91	1
83	129	1
94	94	4
6	6	2
63	122	1
63	64	1
115	115	5
89	90	3
58	58	3
10	11	1
68	83	1
64	64	5
95	96	3
130	130	2
58	64	1
44	44	5
50	134	1
27	30	1
21	53	1
80	88	1
4	85	2
99	99	1
93	97	1
36	37	1
1	132	1
15	16	2
15	20	1
107	113	1
30	31	1
29	81	1
0	0	1
30	35	1
106	122	1
7	43	1
56	59	1
101	103	1
115	118	1
20	21	1
110	111	2
93	94	2
26	29	2
13	14	2
79	79	5
43	43	3
54	63	2
102	111	1
127	127	3
17	17	2
5	6	2
70	70	7
111	115	1
116	127	1
75	75	6
49	49	5
53	54	1
31	31	3
122	122	4
50	50	1
134	135	1
81	81	1
127	130	1
107	107	3
5	110	2
97	101	2
62	62	2
70	71	2
35	67	1
10	34	1
73	73	3
15	24	1
5	5	3
51	97	1
56	56	2
68	111	2
42	54	1
84	127	1
133	133	3
78	78	1
103	104	1
107	108	1
63	63	4
57	58	1
121	121	6
30	32	1
57	60	2
33	43	1
48	66	1
86	87	2
101	130	1
13	81	1
94	95	1
22	43	1
7	9	1
58	78	1
30	30	4
106	106	1
98	99	1
24	86	1
63	82	2
48	48	2
118	118	3
34	98	1
99	102	1
95	97	1
23	23	1
56	57	1
14	93	1
36	77	1
27	27	2
82	109	1
85	87	1
130	132	1
28	37	1
80	80	2
72	111	1
1	4	1
134	134	3
72	104	1
130	131	1
13	80	1
88	88	7
24	26	1
63	69	1
67	70	1
21	22	5
122	123	1
18	20	1
45	45	4
44	110	1
62	65	1
115	124	1
26	92	1
43	55	1
76	77	2
19	43	1
83	83	5
29	29	1
108	109	1
16	17	1
3	60	1
69	70	2
67	82	1
117	127	1
44	45	1
3	67	1
18	22	1
83	86	1
35	44	1
55	56	1
96	101	1
17	98	2
86	92	2
42	42	3
98	134	1
17	87	1
111	127	1
8	9	1
65	68	1
7	22	1
103	105	1
95	120	1
50	111	1
63	86	1
78	115	1
16	22	1
126	127	1
46	88	1
74	74	1
38	39	1
90	94	4
24	57	1
17	18	1
35	39	1
96	113	1
35	108	1
110	120	1
91	93	2
45	47	1
85	96	1
29	32	1
14	23	1
106	109	1
7	8	1
64	65	1
78	108	1
105	116	1
108	108	1
44	132	1
132	134	1
59	82	1
110	117	1
120	122	1
8	10	1
61	62	1
36	108	1
104	105	1
55	64	1
43	72	1
123	125	1
35	38	1
21	96	1
16	46	1
23	99	1
125	126	1
67	69	1
22	38	1
44	135	1
21	21	1
49	51	1
77	125	1
5	28	1
3	70	1
3	4	1
92	123	1
77	77	3
85	86	2
35	110	1
26	26	1
65	66	1
118	119	1
82	96	1
84	85	1
19	54	1
12	13	1
73	96	1
4	71	1
48	106	1
49	50	1
77	124	1
54	54	1
80	129	1
57	59	1
31	32	1
75	76	1
50	118	1
27	28	1
