40	40	2
20	21	1
12	12	7
87	87	1
54	54	7
104	104	3
109	125	1
11	11	4
63	63	3
27	27	3
49	109	1
83	83	8
102	126	1
51	51	2
48	48	3
47	47	6
14	14	6
81	85	1
6	7	1
38	39	2
88	88	8
127	127	5
25	27	1
39	40	2
118	118	8
113	113	3
75	75	5
133	133	5
15	15	3
116	116	5
102	103	1
49	121	1
48	49	2
111	111	5
108	109	1
102	102	7
128	130	4
94	94	8
105	105	6
126	130	1
108	108	8
52	53	1
22	22	1
30	33	1
19	23	4
82	84	5
86	91	1
86	86	5
4	4	3
55	55	4
52	52	7
98	98	3
50	52	1
45	77	1
110	110	12
104	105	3
25	28	2
9	9	6
0	0	2
30	30	3
57	57	5
129	129	3
120	120	4
3	3	2
92	92	4
16	16	3
89	94	1
117	117	3
87	119	2
125	132	3
44	44	5
0	45	2
39	39	5
91	91	6
10	10	5
58	58	2
109	110	2
16	18	2
89	91	1
20	20	4
73	77	1
68	69	1
97	97	4
30	64	1
90	90	4
50	110	1
124	132	1
46	46	2
125	125	2
114	114	5
115	115	3
106	108	1
49	50	3
70	70	2
1	2	2
5	5	3
68	68	2
74	74	2
9	12	1
96	96	5
123	123	7
80	80	4
128	128	3
126	128	4
101	101	3
61	61	4
31	31	1
50	50	4
42	42	2
99	99	2
100	101	2
132	132	2
11	27	1
126	126	3
87	88	1
100	100	5
78	78	4
114	115	2
49	49	4
21	21	3
53	53	6
44	91	1
59	78	1
18	19	1
64	85	2
3	5	2
95	96	1
28	28	7
77	77	2
127	128	1
121	121	7
114	130	1
112	112	2
27	49	1
60	62	1
124	124	4
38	38	3
21	64	1
28	56	2
73	73	2
24	29	2
97	98	4
65	125	2
72	74	1
71	71	3
57	58	1
93	93	3
119	126	1
69	69	2
10	11	1
88	89	1
90	93	2
60	60	2
86	87	1
54	55	1
84	116	1
24	24	2
72	73	1
94	97	1
43	89	1
43	73	1
17	39	1
81	82	1
66	66	4
84	84	2
60	71	1
131	131	2
13	14	2
79	79	2
56	56	1
108	113	1
90	91	3
88	90	1
112	119	1
63	66	1
82	97	1
93	94	2
27	113	1
29	29	3
21	71	1
62	72	1
21	78	1
67	67	4
1	1	4
106	106	2
112	113	1
86	94	1
101	102	1
124	125	2
40	41	2
75	77	1
13	13	3
104	124	1
73	128	1
119	119	2
59	59	1
43	43	4
58	59	2
52	123	1
13	16	1
67	70	1
88	98	1
16	17	1
64	77	1
108	118	1
76	77	1
83	126	1
122	122	1
67	103	1
10	95	1
41	97	1
2	8	1
126	127	1
33	33	1
107	107	4
94	95	1
8	8	2
81	81	1
43	74	1
32	32	2
5	14	1
46	72	1
45	45	3
70	96	1
74	77	1
90	92	1
82	88	1
89	99	2
19	19	1
96	97	1
14	55	1
6	6	4
19	20	2
114	117	1
0	1	1
82	82	3
95	95	3
113	132	3
83	84	1
115	116	1
72	72	1
66	67	1
66	85	1
0	4	1
24	25	1
41	42	1
29	31	1
61	78	1
23	23	2
109	109	3
80	100	1
57	124	1
53	54	1
89	100	1
85	85	2
18	18	1
26	26	2
81	87	1
130	130	2
110	111	1
32	39	1
64	66	1
89	98	1
29	30	1
1	103	1
61	62	1
78	80	1
46	47	2
123	124	1
43	67	1
12	14	1
2	14	1
46	78	1
8	29	1
21	28	1
44	73	1
103	103	1
2	4	1
22	24	1
103	109	1
32	121	1
85	89	1
34	34	1
99	100	1
126	129	1
33	61	1
110	115	1
84	91	1
41	41	1
79	96	1
63	125	1
30	32	1
76	76	2
63	74	1
70	105	1
89	89	1
70	100	1
84	114	1
46	109	1
41	79	1
129	130	1
76	78	1
88	129	1
17	81	1
92	93	1
116	117	1
65	73	1
71	72	1
64	64	1
44	71	1
89	93	1
44	45	1
72	85	1
97	99	1
