114	115	2
226	226	2
159	159	1
203	203	2
58	58	3
179	179	2
105	105	1
114	144	2
43	44	1
227	232	1
55	60	2
222	222	2
152	152	1
208	236	1
23	23	2
50	78	1
52	110	1
201	201	4
80	80	2
65	113	1
67	173	3
210	211	2
15	15	1
190	190	1
21	21	1
37	42	1
74	75	1
169	169	1
41	43	2
59	59	1
4	5	2
87	89	1
41	90	1
49	65	1
31	31	1
227	228	1
49	84	1
42	42	2
81	85	1
31	33	1
214	214	2
227	227	2
89	90	2
110	110	1
162	233	1
71	71	1
150	150	2
244	244	1
81	81	1
57	219	1
3	3	1
36	36	1
51	114	1
210	246	1
97	103	1
39	53	2
68	68	1
15	26	1
93	108	1
56	200	1
16	160	1
112	113	1
56	199	1
203	204	1
111	111	2
90	91	1
229	229	2
75	75	1
195	223	1
198	199	1
1	1	1
38	220	1
33	34	1
26	26	2
115	115	4
206	206	1
110	207	1
11	11	1
2	229	2
216	242	2
14	14	5
192	192	1
61	104	1
224	224	2
218	219	1
209	209	1
237	240	1
10	11	1
230	231	2
77	102	1
1	2	1
160	160	1
118	120	2
90	90	1
82	84	1
99	100	1
28	28	2
2	5	1
66	66	1
47	56	1
33	33	1
168	168	1
51	116	1
150	233	1
8	8	1
155	155	1
196	236	1
107	107	3
102	102	2
15	37	1
1	229	2
194	194	1
233	233	2
219	226	1
85	85	3
236	237	2
36	41	1
205	206	1
180	180	1
116	116	1
39	39	1
77	77	1
19	19	3
49	64	1
38	38	1
242	244	1
211	211	1
14	15	2
241	241	2
228	228	2
243	243	1
67	67	1
168	169	1
95	95	1
119	119	1
106	106	1
196	213	1
230	249	1
61	61	1
66	67	1
171	171	1
211	212	1
167	167	2
205	207	1
29	30	1
52	200	1
15	38	1
37	37	2
9	9	1
166	166	2
55	59	1
173	173	1
63	63	1
78	219	1
230	230	1
40	40	1
94	100	1
240	240	1
117	165	1
75	76	1
200	244	1
30	30	2
62	63	1
105	107	1
12	12	1
21	153	2
198	214	1
31	222	1
40	85	1
201	241	1
25	54	3
73	73	2
174	174	4
234	234	1
195	195	1
23	24	1
182	183	1
182	219	1
62	70	1
27	111	1
156	156	2
56	57	1
60	68	1
101	101	1
145	145	1
32	32	1
93	105	2
214	230	1
24	24	1
47	47	2
22	36	1
20	39	1
181	181	2
75	81	1
226	228	1
236	236	1
163	189	1
233	234	1
33	63	1
29	29	2
84	87	1
76	241	1
213	219	1
235	235	1
166	167	1
57	210	1
225	225	1
22	116	1
30	31	2
76	76	1
215	244	1
199	204	1
174	187	1
247	247	1
41	85	1
162	163	1
240	242	1
197	222	1
221	221	1
39	182	1
55	55	1
57	57	1
176	181	1
100	100	1
154	154	1
23	116	1
78	99	1
85	100	1
