140	146	1
50	67	2
102	102	1
213	214	2
78	172	1
31	31	2
60	61	1
37	48	1
4	206	1
83	83	1
76	77	1
209	209	2
137	150	1
169	169	1
19	19	1
91	91	1
112	113	1
88	113	1
72	77	1
54	54	1
159	160	1
231	233	1
51	54	1
34	34	2
63	64	1
193	193	1
231	231	2
25	27	1
186	187	1
220	224	1
80	80	1
202	202	2
53	99	1
203	204	1
150	150	2
192	229	2
41	41	2
71	71	1
2	6	1
58	59	1
190	200	2
220	221	1
197	197	1
161	162	1
11	12	1
207	207	1
172	172	1
17	17	1
35	35	2
134	134	1
171	173	1
242	242	1
157	157	1
69	236	1
196	196	1
213	213	1
1	1	1
21	53	1
167	167	3
223	224	1
139	139	1
152	152	2
70	70	1
85	129	1
16	17	2
178	178	1
156	156	2
22	23	1
66	66	1
17	24	1
228	228	1
24	68	1
18	18	1
62	62	2
61	65	2
56	56	1
84	88	1
70	164	1
103	103	1
44	44	1
65	85	1
141	142	1
50	130	1
204	204	2
159	164	1
188	200	1
106	144	2
139	140	1
136	208	1
4	31	1
81	81	1
59	59	1
119	119	1
214	214	2
176	176	1
191	224	2
184	184	2
38	38	1
73	73	1
21	21	1
33	34	1
102	105	2
164	169	1
103	153	2
191	225	1
106	173	1
23	65	1
78	78	1
61	61	1
8	9	1
133	138	1
23	49	1
38	43	1
162	162	1
30	30	2
121	121	1
80	116	1
183	233	1
58	80	1
81	83	1
200	200	2
28	70	1
5	6	1
40	41	1
167	171	1
20	202	1
98	98	1
84	156	1
58	58	3
160	160	1
225	225	1
11	11	2
104	104	2
8	8	2
134	135	1
123	123	2
227	227	1
24	24	1
47	48	1
25	25	1
11	76	1
13	62	2
74	74	1
72	73	1
40	40	1
158	158	1
16	38	1
18	56	1
188	224	1
75	75	1
195	196	1
79	79	1
69	69	1
20	31	1
119	145	1
180	201	1
24	65	1
191	204	1
197	220	2
63	63	1
6	49	1
177	178	1
146	146	1
222	222	1
113	127	1
57	57	1
53	53	1
190	231	1
105	105	1
86	86	1
13	13	1
234	239	1
72	72	1
60	60	2
29	30	1
85	85	1
12	69	1
44	175	1
27	27	1
191	191	1
136	136	1
62	136	1
73	74	1
190	190	2
185	186	1
52	53	1
114	127	1
25	172	1
170	171	1
179	180	1
10	10	1
83	85	1
170	224	1
122	123	1
109	198	1
109	115	1
215	221	1
177	177	1
72	236	1
141	155	1
168	224	1
54	137	1
18	217	1
