152	152	2
63	227	1
49	49	3
95	95	1
30	30	1
99	99	1
86	88	1
176	176	3
164	201	1
32	32	5
27	65	1
74	74	2
197	197	2
93	94	1
18	33	1
73	73	2
220	220	4
165	207	1
151	151	3
67	67	1
208	209	3
32	33	1
203	203	9
245	245	2
52	52	2
212	212	3
191	192	2
241	245	1
57	59	1
68	68	2
189	189	1
162	200	2
214	214	2
96	96	3
57	57	1
103	103	3
69	238	1
157	157	4
181	181	4
21	21	1
119	119	2
20	20	2
236	236	1
168	168	2
119	236	2
193	193	1
112	113	1
224	224	1
58	218	1
33	39	1
78	109	1
213	213	1
62	94	1
114	114	3
47	48	2
150	150	5
184	184	2
67	68	3
94	95	2
2	2	4
66	67	2
71	71	2
221	224	1
102	112	1
186	192	1
97	100	1
240	240	2
155	155	6
219	219	2
70	71	1
231	234	1
209	209	1
29	31	1
81	96	1
248	248	1
98	98	3
87	87	2
24	36	1
76	76	4
28	31	1
4	4	2
91	92	1
31	31	3
7	7	2
206	206	3
37	37	3
13	13	2
231	231	4
196	198	1
42	44	1
65	89	1
85	86	2
27	27	1
86	96	1
105	105	3
175	176	2
174	249	1
17	17	3
153	168	2
39	39	2
33	33	3
8	8	2
41	41	2
16	16	1
60	215	1
42	65	1
185	185	1
113	113	2
156	156	3
62	96	1
189	190	1
160	160	6
94	94	1
82	83	1
114	205	1
157	158	2
162	163	1
232	232	4
106	108	1
62	62	1
43	43	1
4	7	1
33	34	1
105	238	2
34	35	1
190	190	1
109	109	1
172	174	1
182	182	5
90	90	2
23	23	3
84	84	1
36	36	5
101	102	1
38	38	1
55	55	1
153	153	1
234	234	3
158	166	1
190	191	1
188	188	2
50	56	1
10	10	2
203	204	1
163	163	2
200	200	2
63	113	2
52	109	1
166	167	1
210	211	2
11	235	1
145	161	1
80	243	1
226	227	1
10	11	1
64	64	2
115	116	2
160	167	2
52	171	2
156	190	2
75	77	1
83	84	1
54	54	3
217	218	2
91	91	1
44	44	1
216	216	2
209	213	1
48	48	1
154	154	2
117	117	4
178	187	1
166	166	2
103	104	1
239	240	1
164	196	1
5	211	2
198	199	2
57	64	1
99	241	1
91	230	3
51	51	1
168	169	1
241	241	2
7	210	1
160	173	1
238	238	2
185	199	1
59	59	2
46	154	1
73	224	1
6	6	2
79	79	1
219	226	1
175	233	1
196	197	1
107	107	1
19	20	2
53	53	2
158	158	1
28	28	3
102	102	1
184	200	1
31	32	3
188	189	2
54	55	1
5	152	1
221	221	1
120	120	1
185	198	1
175	227	1
22	22	2
119	247	2
235	235	2
173	173	1
61	61	3
119	202	2
75	205	1
97	97	1
188	196	1
55	174	1
172	172	2
8	9	2
171	171	2
76	118	1
25	25	2
232	237	1
96	97	1
201	201	3
240	247	1
194	194	1
26	26	1
49	68	1
83	117	1
48	50	1
14	14	1
77	223	1
244	244	1
114	115	1
1	1	3
7	23	1
71	74	1
217	222	1
115	115	2
226	226	1
243	243	1
50	50	3
47	226	1
9	94	1
152	153	1
78	237	1
105	106	1
205	205	2
70	70	1
18	18	3
232	236	1
151	203	2
76	78	1
150	160	1
179	179	4
70	72	1
154	156	1
9	9	2
46	46	1
193	200	1
101	166	1
210	210	2
92	92	1
83	238	1
217	217	1
175	175	2
162	162	1
60	60	2
159	159	2
170	197	1
177	217	1
147	147	1
233	248	1
191	191	1
58	58	1
167	167	1
225	226	1
222	224	1
72	72	2
162	221	1
34	34	1
187	188	1
202	202	1
78	95	1
237	237	2
74	103	1
99	218	1
101	101	1
176	217	1
106	107	1
5	209	1
204	204	1
207	207	1
34	235	1
40	40	1
118	118	2
206	230	1
237	240	1
17	34	1
173	174	1
99	104	1
38	39	2
169	171	1
75	223	1
192	195	1
34	55	1
86	90	1
57	172	1
78	78	1
225	225	1
206	207	1
230	240	1
111	111	1
63	91	1
210	245	1
170	170	2
175	195	1
235	236	1
94	97	1
4	29	1
54	56	1
203	205	1
202	205	1
226	240	1
37	38	1
10	23	1
70	219	1
15	34	1
10	226	1
177	177	1
202	243	1
146	147	1
104	105	1
56	63	1
5	5	1
200	201	1
68	112	1
61	229	1
8	144	1
2	53	1
242	246	1
208	208	1
174	174	1
224	225	1
52	101	1
18	19	1
