199	199	2
129	129	2
120	120	2
153	153	1
30	30	2
119	119	3
98	101	4
27	27	2
209	209	1
230	230	5
222	223	1
167	181	1
71	71	2
206	226	3
43	109	2
27	38	1
99	99	3
196	197	2
26	32	1
186	187	1
128	128	3
108	108	1
198	219	1
86	86	3
13	14	1
124	150	1
115	117	1
98	98	1
190	193	2
131	135	1
219	219	1
124	124	2
103	103	2
116	159	1
50	50	2
169	169	1
114	177	1
176	176	3
157	158	2
168	175	1
52	57	1
142	143	1
172	172	1
4	5	1
34	34	3
122	122	3
241	241	1
49	72	1
69	69	2
223	223	1
180	184	1
7	7	1
184	184	1
102	102	1
154	154	1
216	216	2
70	70	5
55	55	2
230	231	1
16	16	1
189	189	1
39	80	2
26	26	6
177	178	1
146	146	2
127	165	1
47	60	1
54	54	2
77	79	1
229	229	2
185	185	1
190	191	1
41	51	1
225	226	1
123	135	1
162	162	1
106	106	2
136	136	3
216	231	1
19	81	1
171	171	2
138	138	1
63	63	1
17	18	1
117	117	2
61	61	2
225	225	2
29	30	1
79	79	1
146	190	1
43	44	1
184	196	1
48	73	1
151	151	2
194	194	1
239	239	5
40	40	2
214	215	1
39	39	3
135	136	1
47	47	1
141	204	1
108	155	1
195	197	1
203	203	4
159	159	1
85	85	2
138	178	2
58	58	1
148	157	1
37	37	1
227	227	1
120	240	2
155	156	2
5	5	3
152	156	1
61	62	1
163	163	3
14	15	1
143	143	1
23	88	1
158	243	1
220	220	3
198	198	2
164	165	1
196	196	1
113	113	2
57	58	1
202	202	2
145	145	1
138	142	1
176	226	1
211	225	1
199	200	1
87	178	1
186	186	1
48	122	1
58	66	1
109	109	1
118	136	1
145	163	1
53	53	2
217	218	1
101	216	1
9	48	1
21	21	2
237	237	1
152	152	1
138	139	1
185	235	1
231	231	3
128	220	1
74	74	3
209	211	1
116	166	1
45	46	1
167	168	1
181	181	1
52	52	1
166	166	2
78	78	2
167	200	1
127	127	1
183	199	2
179	179	1
77	77	1
195	199	1
0	0	3
100	106	1
69	71	1
190	190	1
146	162	1
137	138	2
159	163	1
20	208	1
112	112	1
33	34	1
25	25	3
72	72	1
107	115	1
42	55	1
13	41	1
96	96	1
188	188	2
42	42	3
18	18	3
100	100	1
101	101	2
183	183	2
173	194	1
51	78	1
234	235	1
46	63	1
195	195	1
57	57	1
23	23	1
41	41	2
135	135	1
29	29	1
76	174	1
58	65	1
208	231	1
72	145	1
104	104	1
141	141	2
56	59	1
36	40	1
32	232	1
22	22	1
57	66	2
130	130	1
79	130	1
21	143	1
124	126	1
21	22	1
185	211	1
129	154	1
131	131	1
60	60	1
207	207	4
191	191	2
36	100	1
137	137	1
46	46	1
22	88	1
120	121	1
173	189	1
24	63	1
19	82	1
43	43	2
32	32	2
45	45	2
215	215	1
191	192	1
38	38	1
81	83	1
215	219	2
174	174	2
105	106	1
114	115	1
11	11	1
195	196	1
121	122	1
206	206	1
8	8	1
168	169	1
149	150	1
214	219	2
103	111	1
128	135	1
157	157	2
209	210	1
193	222	1
147	154	1
7	8	1
107	107	1
233	234	1
67	68	1
154	156	1
73	73	1
95	96	1
48	48	2
81	81	1
148	148	1
5	117	1
20	20	1
175	224	1
71	72	1
26	27	1
167	167	1
28	29	1
115	115	1
81	82	1
120	198	1
26	43	1
18	107	1
76	76	1
173	173	1
134	135	1
144	163	1
222	222	1
143	146	1
2	2	1
233	233	1
3	47	1
161	161	1
129	165	1
150	151	1
