8	50	1
68	68	4
51	56	1
11	11	2
99	99	3
93	93	3
104	156	1
23	23	2
54	54	1
66	88	1
123	123	1
67	67	1
105	107	2
103	106	2
87	117	2
125	125	1
104	104	3
153	153	1
104	127	1
49	49	1
0	0	5
55	55	3
37	37	2
87	87	3
133	158	1
152	152	2
111	112	1
47	108	1
49	156	2
16	18	1
70	145	1
130	130	2
19	25	1
39	39	2
92	138	3
31	50	1
32	32	1
89	91	1
71	89	1
48	111	1
125	126	1
78	95	1
131	131	6
107	107	2
8	109	1
94	140	2
103	127	1
150	151	1
38	38	1
42	42	2
97	97	2
1	52	1
151	152	1
136	145	2
118	118	3
10	155	1
128	139	1
106	106	1
68	70	1
96	145	1
120	121	1
44	44	1
111	111	3
15	15	3
122	122	2
42	93	2
10	10	1
86	87	1
158	159	1
12	12	1
17	18	1
101	101	1
138	150	1
75	86	1
151	151	1
141	141	1
17	17	1
2	3	1
95	95	1
149	149	1
41	41	1
47	47	1
3	48	1
18	139	3
8	17	1
153	154	1
2	2	2
121	121	2
92	141	1
6	6	1
146	157	1
9	9	1
25	26	1
27	27	1
64	107	1
147	147	1
122	141	1
47	110	2
1	2	1
78	78	1
19	50	1
140	140	1
115	115	1
89	145	1
30	30	1
47	50	1
22	22	5
135	135	1
113	142	1
157	157	1
83	127	1
154	157	1
73	94	1
28	30	1
113	146	1
112	152	1
95	96	1
10	157	1
94	94	1
12	33	1
110	110	1
5	30	1
132	132	2
105	105	2
103	133	1
32	42	1
63	70	1
4	37	2
13	18	1
99	100	1
90	90	1
36	51	3
25	25	1
20	20	2
56	56	1
26	45	1
86	89	1
127	127	1
145	145	1
45	45	3
147	156	1
31	68	1
69	69	1
45	53	1
119	140	1
71	71	1
80	81	1
138	154	1
50	51	1
63	63	1
38	40	1
72	72	1
62	62	1
124	124	1
4	57	1
81	81	1
31	114	1
72	100	1
37	66	1
68	69	1
131	137	1
40	40	2
150	150	1
18	18	1
126	146	1
128	128	2
89	89	1
124	126	1
145	157	1
112	112	1
17	55	1
103	140	1
109	109	1
83	83	1
66	69	1
5	5	1
93	96	1
135	136	1
108	108	1
83	159	1
113	144	1
84	118	1
73	73	1
29	29	1
96	159	1
96	125	1
22	137	1
103	103	1
138	138	1
