37	38	1
104	104	2
107	107	2
119	119	1
172	188	1
167	167	2
142	142	4
181	181	2
95	99	1
47	47	1
111	111	2
105	106	3
120	121	2
159	159	3
99	100	1
166	166	1
172	173	1
24	24	2
39	39	5
109	110	2
26	26	10
35	43	1
58	58	2
10	10	4
160	162	1
134	134	2
20	115	1
100	101	1
117	117	2
41	41	3
175	176	1
20	20	1
106	106	2
67	128	1
7	7	4
21	60	1
10	43	1
127	127	1
138	139	1
18	18	3
93	94	1
183	183	2
169	171	1
105	105	7
34	72	2
16	16	1
84	85	2
140	142	1
187	187	2
108	159	2
87	87	4
13	22	2
109	109	1
79	79	3
37	37	2
98	98	1
79	80	1
113	113	3
17	17	1
9	10	2
170	171	1
148	148	2
151	180	1
174	174	1
70	70	2
10	18	1
19	19	3
122	124	1
32	32	1
120	160	1
114	115	1
154	154	5
4	5	1
72	72	1
160	161	1
61	130	2
129	129	2
179	179	2
11	46	1
22	22	4
178	178	1
65	104	1
66	68	1
100	166	1
41	114	2
168	168	1
133	133	1
66	66	2
173	173	2
136	145	1
180	181	1
3	3	3
13	36	1
150	155	3
77	160	1
4	4	6
36	36	3
7	8	2
144	144	2
35	35	1
189	189	2
140	140	3
59	59	5
62	62	1
52	52	1
25	25	3
110	163	1
25	41	1
6	6	5
14	18	1
176	177	1
148	151	1
24	56	1
14	14	1
180	180	2
4	38	1
190	190	2
94	95	1
15	79	1
155	155	1
25	40	2
156	156	2
185	185	1
86	86	4
42	42	1
153	153	4
113	114	2
81	87	1
29	46	1
84	84	2
74	74	2
60	88	2
100	100	1
83	83	1
38	39	1
180	182	1
88	99	1
63	102	1
126	126	1
76	76	2
127	148	2
110	111	1
146	173	2
175	175	2
59	80	1
73	74	1
22	68	1
61	65	1
55	55	1
130	130	2
61	61	1
24	25	1
186	186	2
63	63	1
11	11	1
125	168	2
130	163	1
56	56	3
91	94	1
102	102	5
32	130	1
80	81	1
12	12	2
6	22	1
115	115	1
37	77	1
150	150	1
97	97	1
33	35	1
101	101	2
11	107	1
12	14	1
33	33	5
4	58	2
135	135	3
158	158	1
23	23	2
33	37	1
108	108	1
156	159	1
90	91	1
150	152	1
92	92	1
79	133	2
71	123	1
40	87	1
96	96	1
14	87	1
188	190	2
131	168	1
29	30	1
30	31	2
88	133	1
77	77	1
122	122	1
110	110	1
10	16	2
156	157	1
11	12	1
172	172	2
78	84	1
114	114	3
22	23	1
155	179	1
127	149	1
46	72	1
184	185	1
28	29	2
27	27	1
142	170	1
91	91	1
2	2	1
48	62	1
84	88	1
147	147	3
57	95	1
139	139	1
16	18	1
137	163	1
61	92	1
8	76	1
172	175	1
126	164	1
142	143	2
146	147	1
23	24	1
135	136	1
56	58	1
134	143	1
1	1	2
27	28	2
54	54	3
44	65	1
34	34	1
49	77	1
0	21	1
121	121	1
112	112	2
169	169	1
78	79	1
90	90	1
21	26	1
60	60	1
173	174	1
14	25	1
32	92	1
162	162	1
169	174	2
164	164	1
130	133	2
77	78	1
94	137	1
99	103	1
89	89	1
184	184	1
112	115	1
31	60	1
102	167	1
115	184	1
14	57	1
165	182	1
117	119	1
88	164	1
123	123	1
79	180	1
82	82	2
143	166	1
150	151	1
129	130	1
122	166	1
118	120	1
75	75	1
48	48	1
8	8	1
67	67	1
182	182	1
21	22	1
146	146	1
164	165	1
33	57	1
133	136	1
185	186	1
77	83	1
26	28	1
42	43	1
58	85	1
