79	79	2
79	137	1
104	104	2
112	113	5
38	44	1
106	111	1
14	93	2
149	149	1
81	86	2
114	114	3
133	133	4
110	112	1
97	97	2
132	132	5
129	129	2
54	55	3
22	23	3
83	105	1
7	7	5
103	103	1
68	85	1
145	145	4
93	100	1
117	118	2
144	144	1
15	16	1
5	9	2
13	20	3
104	109	1
122	122	4
19	19	5
33	33	5
11	41	1
39	43	2
6	30	1
23	27	1
113	152	1
16	17	1
8	22	2
46	46	4
77	80	1
9	10	2
57	58	2
6	9	2
31	31	3
122	144	2
19	41	2
18	21	5
120	120	7
29	56	1
49	49	4
107	123	1
131	143	1
149	150	3
117	117	4
114	120	1
123	123	6
74	74	3
109	110	1
83	84	1
20	43	1
17	17	5
39	39	5
77	129	1
20	20	4
62	63	2
3	3	1
122	136	1
84	84	2
4	4	2
23	23	2
33	36	1
107	107	1
111	132	1
18	19	1
8	25	3
93	93	2
148	148	2
28	154	1
90	109	1
5	5	2
69	104	2
150	150	3
101	101	2
28	53	1
111	111	4
137	141	1
42	42	2
83	83	3
93	141	1
123	134	2
143	143	3
79	81	2
130	130	3
21	21	2
14	14	3
66	80	1
124	127	1
142	142	1
10	111	1
114	115	1
153	154	2
101	102	1
124	124	3
6	6	8
29	30	4
36	94	1
5	7	2
58	58	2
21	107	1
57	71	2
154	154	2
47	47	5
9	9	3
70	70	4
96	144	1
138	139	1
98	99	2
7	9	2
14	25	1
78	110	2
29	31	1
89	110	1
66	66	4
74	150	1
94	150	1
99	119	1
108	128	1
8	8	5
30	30	7
47	49	2
73	73	2
62	62	3
137	137	6
27	27	3
110	122	2
125	151	2
93	130	2
80	86	2
10	150	1
102	131	1
68	69	1
32	32	4
13	21	2
147	147	5
18	90	1
12	40	1
43	51	1
22	22	5
134	148	1
65	65	1
72	129	1
123	132	1
45	45	1
141	141	1
84	87	1
97	101	1
81	82	2
123	151	2
140	141	1
24	25	1
35	35	4
11	12	2
96	100	2
24	51	1
132	136	1
40	41	1
42	43	3
139	141	1
26	26	3
26	44	1
117	129	1
49	67	2
128	128	2
48	48	2
144	146	1
92	100	2
34	34	5
128	145	1
106	106	2
140	140	1
86	86	3
123	146	1
141	146	2
21	54	1
18	18	2
81	133	1
29	29	5
34	92	1
121	137	1
10	12	1
112	138	1
146	146	5
35	50	2
82	98	1
25	44	1
122	126	2
12	12	3
145	147	1
85	86	2
115	116	1
112	112	1
74	102	1
151	151	1
107	127	1
11	31	1
21	30	1
131	131	1
87	88	1
53	53	5
21	32	1
47	68	1
94	94	1
142	143	1
74	140	1
115	115	3
66	105	1
80	81	2
126	127	2
75	75	1
127	127	1
131	149	1
119	119	1
119	143	1
122	143	1
96	96	4
71	71	3
9	25	2
116	127	2
79	125	1
16	16	4
25	49	1
124	131	1
81	136	2
102	103	1
7	15	1
40	40	3
75	114	3
43	55	2
111	112	2
36	36	2
30	45	1
25	45	2
98	98	2
116	117	1
105	105	5
43	43	2
95	104	1
78	78	2
94	95	1
75	95	1
53	66	1
12	21	1
51	55	1
97	102	1
39	40	1
11	11	2
51	70	1
55	56	1
38	47	1
23	24	1
54	54	2
99	104	1
138	138	2
50	50	3
106	129	1
76	76	2
80	80	5
23	35	1
13	13	3
44	44	1
100	100	2
125	142	1
100	116	1
132	140	1
67	68	2
77	78	1
88	88	2
36	49	1
100	106	1
82	84	1
102	102	1
18	50	1
40	43	1
5	34	2
25	25	2
88	106	1
38	98	1
116	116	1
43	44	2
94	101	1
37	37	1
115	121	1
14	142	1
126	137	1
47	51	1
10	10	2
64	88	1
82	86	1
57	66	1
113	113	5
52	102	1
56	56	3
135	151	1
101	105	1
76	98	1
105	114	1
130	139	1
138	150	1
4	8	1
139	139	1
126	133	1
140	142	1
58	63	1
78	79	2
66	67	1
63	64	1
106	107	1
3	9	1
152	152	1
109	109	4
64	64	1
113	114	1
135	135	2
15	15	2
92	112	1
100	103	1
124	126	2
115	148	1
139	140	1
28	32	1
128	131	1
77	77	4
121	121	2
51	51	1
100	123	1
70	99	1
108	132	2
81	94	1
10	109	1
22	35	1
148	149	1
103	130	1
96	107	1
8	23	1
94	98	1
78	81	1
73	129	1
117	138	1
46	72	1
67	67	2
12	45	1
57	73	2
5	120	2
118	118	1
26	27	1
22	27	1
8	27	1
103	107	1
6	21	1
21	43	1
67	105	1
68	68	2
72	74	1
10	11	1
92	93	1
141	142	1
20	21	1
24	24	2
63	82	1
117	120	1
8	31	1
97	108	1
15	35	1
141	143	1
110	143	1
41	42	1
71	153	1
128	130	1
64	82	1
75	118	1
31	33	1
79	82	1
108	130	1
33	35	1
62	67	1
105	115	1
124	130	1
97	109	1
121	139	1
22	31	1
33	90	1
34	35	1
71	129	1
63	66	1
28	30	1
103	121	1
108	123	1
33	34	1
71	106	1
63	67	1
132	144	1
47	64	1
118	152	1
52	52	1
62	105	1
23	25	1
76	78	1
24	47	1
121	140	1
8	13	1
145	146	1
51	95	1
83	87	1
22	24	1
130	150	1
77	146	1
54	76	1
