42	42	2
25	25	2
117	117	1
28	28	2
41	42	1
83	141	1
94	95	1
89	89	2
96	96	1
100	100	2
116	117	1
124	125	1
45	45	2
132	134	2
39	39	4
23	23	4
140	140	3
89	120	1
101	120	1
101	101	1
125	127	1
132	132	3
72	155	2
106	106	3
126	126	3
88	88	3
35	35	2
47	48	2
0	0	3
25	29	2
1	1	6
75	75	1
15	16	1
38	138	1
131	152	1
146	146	2
22	23	2
133	142	1
138	138	1
21	21	3
38	38	1
77	77	2
95	97	1
144	144	3
91	104	1
73	135	1
129	132	1
158	158	3
99	100	1
26	55	1
91	91	1
48	48	3
156	156	4
93	93	3
33	105	1
27	27	1
121	121	1
107	107	2
32	33	1
106	112	1
129	129	4
65	65	1
142	142	3
85	101	2
12	12	1
75	133	2
91	92	1
56	56	5
50	50	2
109	111	1
143	143	1
87	87	2
6	6	4
44	47	1
30	142	2
114	114	2
92	92	4
93	94	1
133	133	4
19	21	1
86	86	2
55	55	3
14	17	2
135	135	2
26	26	4
23	24	1
131	131	1
131	150	1
142	148	1
118	119	1
112	116	1
49	49	3
11	11	1
146	153	1
30	31	1
82	82	3
5	5	3
98	99	1
131	132	2
157	158	1
85	86	1
127	127	1
81	116	1
67	153	1
31	31	1
142	143	1
113	124	1
116	116	1
87	122	1
121	126	1
93	104	1
106	107	1
90	134	1
70	70	2
17	19	1
73	73	1
40	40	1
29	29	2
0	54	1
25	101	1
70	71	1
124	124	2
79	79	2
79	80	1
4	6	1
2	2	3
130	139	1
57	62	2
33	33	2
67	68	1
90	90	1
56	57	1
156	158	1
12	18	1
81	82	1
80	80	1
158	159	1
7	7	1
151	151	2
128	128	2
98	98	1
24	24	2
112	112	3
81	83	1
23	86	1
36	37	1
2	5	1
122	139	1
69	70	1
6	26	1
104	119	1
22	22	2
121	140	1
105	105	2
68	68	1
62	62	1
104	104	1
47	91	1
107	108	1
85	85	1
137	138	1
102	102	2
114	115	1
4	34	1
39	50	1
8	35	1
72	72	2
140	141	1
20	86	1
43	43	4
43	71	1
132	133	1
122	122	1
127	135	1
54	85	1
17	17	1
99	99	1
17	56	1
47	47	1
97	133	1
66	117	1
157	157	1
32	108	1
148	148	3
95	95	1
106	128	1
125	125	1
53	54	1
147	148	1
30	30	1
139	139	1
102	103	1
22	43	1
83	130	1
69	78	1
108	108	1
120	121	1
16	17	1
21	22	1
36	36	1
44	71	1
26	73	1
71	71	1
9	9	1
44	63	1
103	104	1
155	155	1
150	150	1
5	6	1
5	12	1
115	144	1
135	158	1
51	54	1
