42	45	2
75	75	2
143	144	1
38	215	2
98	98	2
139	214	1
172	177	2
175	200	1
159	159	3
136	218	1
144	201	1
17	17	2
155	155	2
32	32	1
18	28	1
43	43	1
155	177	1
60	60	3
63	63	3
48	79	1
199	200	1
215	215	4
82	82	1
7	7	4
85	85	2
12	12	1
120	120	5
113	113	4
138	138	3
143	154	2
200	200	1
9	9	3
211	213	1
203	203	2
150	162	1
55	55	1
238	238	1
135	136	2
45	46	2
143	149	2
140	140	1
76	76	1
195	195	1
153	160	1
123	123	1
25	25	2
181	182	1
95	179	3
222	222	1
16	16	2
46	46	1
58	78	1
13	13	2
191	191	3
2	12	1
103	103	1
20	20	5
37	44	1
100	100	4
222	229	1
169	169	2
76	79	1
201	201	1
56	57	1
167	168	1
221	226	1
106	109	1
117	137	1
223	223	2
201	203	1
221	230	1
214	215	1
170	191	2
161	161	1
204	204	1
58	58	2
1	1	2
153	161	1
8	20	1
21	21	3
137	137	2
97	97	6
139	139	2
197	201	1
175	175	1
57	65	1
230	230	2
22	22	2
153	199	1
127	147	2
16	17	1
231	231	1
183	184	1
152	152	4
85	86	1
219	219	1
215	216	6
14	15	1
103	108	1
41	41	1
18	22	1
213	213	1
16	22	1
227	227	1
61	61	2
190	224	1
39	73	1
17	46	1
228	228	3
134	134	1
100	173	1
143	152	1
127	127	5
86	86	1
112	122	1
181	181	2
91	91	1
47	47	3
7	12	1
122	122	2
127	128	2
52	52	2
130	130	1
161	163	1
192	193	1
216	216	1
229	229	1
31	59	1
134	135	1
63	66	1
214	214	2
224	224	3
95	183	3
81	81	1
74	74	2
38	38	1
188	189	2
68	68	4
226	226	1
202	202	1
127	224	1
178	180	2
180	180	2
33	34	1
168	169	2
69	69	2
54	54	2
238	239	1
189	189	1
30	30	3
187	209	1
17	39	1
7	14	2
166	167	1
125	140	1
104	104	3
147	147	1
135	223	1
99	99	1
173	174	1
143	181	1
123	134	1
41	54	1
11	11	1
237	237	3
106	106	2
198	198	2
136	136	1
124	124	1
54	55	1
150	150	1
128	129	1
239	239	2
210	211	1
186	194	1
124	127	1
221	221	2
164	183	1
211	212	1
163	163	1
171	171	1
233	233	1
143	143	1
36	48	1
169	180	1
217	217	3
194	195	1
112	112	2
31	31	3
196	196	1
77	79	1
108	109	1
6	6	3
190	190	1
148	210	2
192	192	1
206	215	1
222	223	1
168	173	1
188	191	1
84	84	1
183	186	1
172	172	2
188	188	1
57	68	1
149	149	1
140	141	1
34	40	1
118	120	1
120	207	1
0	20	1
33	36	2
144	146	1
134	151	1
38	75	1
147	151	1
187	187	3
198	199	1
35	35	1
118	118	1
29	45	2
119	119	2
12	146	2
49	50	1
142	143	1
13	23	3
186	186	1
86	96	1
203	219	1
220	232	1
77	77	1
210	210	1
196	197	1
37	37	1
225	225	1
229	230	1
190	191	1
240	240	2
115	180	1
139	152	1
65	68	1
152	153	1
194	194	1
15	219	1
49	49	1
27	27	1
19	21	2
133	133	3
78	117	1
176	176	1
9	10	1
39	46	1
29	32	1
241	241	1
14	14	1
167	167	1
15	15	3
63	70	1
184	187	1
113	114	1
102	102	1
105	105	2
141	141	1
2	3	1
4	150	1
114	233	1
109	110	2
59	60	1
200	201	1
36	36	1
236	236	1
50	65	1
163	180	1
50	50	1
71	71	1
65	65	1
179	179	1
157	175	1
159	160	1
51	51	3
73	75	1
122	179	1
21	22	1
101	205	1
132	143	2
193	193	1
59	66	1
173	173	1
123	139	1
18	20	1
234	234	1
241	242	1
189	199	1
28	41	1
19	19	2
73	191	1
220	230	1
157	163	1
39	39	1
170	174	1
217	220	1
23	23	1
10	10	1
146	146	1
205	228	1
126	126	1
15	220	1
86	149	1
117	118	1
235	235	1
1	19	1
6	7	1
164	164	1
82	84	1
177	178	1
151	151	1
191	198	1
148	223	1
48	48	1
174	177	1
178	178	1
125	126	1
170	170	1
170	192	1
33	33	1
105	223	1
24	30	1
102	103	1
104	123	1
41	48	1
40	40	1
208	208	1
115	116	1
239	240	1
62	62	1
163	164	1
115	115	1
109	109	1
183	200	1
16	45	1
