154	154	2
122	165	2
156	156	1
27	27	3
51	123	1
50	50	3
25	25	1
167	167	1
143	143	2
136	136	1
103	103	1
172	172	2
53	139	1
91	124	2
159	159	8
140	140	2
33	33	2
179	179	1
174	175	1
54	55	1
115	115	1
85	86	1
1	1	2
94	94	3
109	109	1
173	173	2
86	117	1
3	3	3
90	91	1
20	20	1
87	87	4
31	35	1
171	172	1
108	108	2
45	45	6
75	75	5
130	130	1
159	160	2
65	65	5
101	135	2
114	114	4
78	79	1
105	106	1
56	160	1
35	37	1
92	101	1
93	93	2
71	71	3
115	130	2
61	62	1
130	131	2
99	100	2
118	119	1
167	168	2
141	146	1
142	142	3
122	122	6
137	137	1
80	80	1
15	15	2
136	137	1
28	30	2
43	43	3
158	159	2
9	10	1
29	29	1
64	64	1
157	157	2
89	90	1
40	41	1
135	136	2
152	159	1
110	111	1
5	9	1
117	120	1
10	11	1
87	169	1
16	20	1
12	42	1
135	135	4
24	24	6
3	4	1
58	58	2
40	40	3
168	168	5
92	92	2
74	74	1
7	7	1
80	81	3
127	127	1
37	38	1
89	169	1
84	85	1
31	34	1
131	132	2
152	154	1
19	20	3
34	34	1
52	52	3
32	32	1
4	4	1
63	129	1
149	149	2
124	124	1
30	30	2
144	144	1
89	92	1
42	43	1
115	116	1
169	169	2
5	5	3
17	159	2
126	126	4
113	116	1
26	26	3
32	34	1
23	23	6
82	82	2
173	174	1
71	72	1
120	121	1
57	57	3
25	26	2
133	133	1
106	106	1
95	97	2
132	132	1
91	91	1
97	98	1
175	176	1
105	113	1
17	20	1
118	118	2
120	128	1
125	125	1
123	124	1
113	114	1
156	157	2
42	42	3
138	138	3
155	156	2
134	134	2
41	41	2
59	59	2
158	158	2
8	8	1
151	154	1
155	155	1
130	165	1
77	77	2
4	7	1
58	59	1
6	6	3
171	171	2
64	141	2
96	97	1
38	38	2
84	84	1
178	178	1
104	113	1
10	10	3
78	80	1
109	110	1
88	117	1
95	95	3
152	153	2
23	24	1
100	164	1
151	151	4
29	44	1
153	153	1
35	35	1
13	15	1
141	141	1
146	146	2
28	60	1
161	161	2
63	63	2
44	58	1
49	49	1
176	176	3
116	161	2
13	14	1
145	145	2
129	129	1
131	135	1
55	55	3
11	11	1
37	37	1
14	15	2
17	17	2
80	112	1
55	56	1
32	33	2
30	60	1
109	126	1
140	145	1
128	128	1
13	13	3
161	166	2
161	163	1
163	163	2
124	125	1
160	163	1
102	171	1
64	65	1
74	75	1
77	78	1
105	105	1
2	4	1
84	106	1
81	82	2
23	25	1
157	158	1
13	66	1
104	104	1
76	76	1
95	170	1
119	119	2
42	51	1
31	58	1
99	103	1
96	159	1
104	107	1
56	107	2
12	15	1
143	144	1
10	91	1
92	94	1
9	9	1
101	102	2
98	98	1
97	97	1
53	53	2
91	99	1
25	66	1
14	14	1
59	61	1
92	106	1
28	29	1
73	73	1
66	67	1
123	123	1
133	134	1
148	148	2
174	174	1
81	81	1
18	19	1
162	162	2
112	112	1
152	155	1
78	78	1
2	6	1
32	44	1
15	16	1
61	61	1
144	145	1
172	173	1
168	169	1
107	107	1
12	109	1
160	160	1
16	17	1
151	152	1
80	82	1
2	3	1
10	165	1
86	166	1
114	115	1
120	120	1
6	14	1
152	152	1
87	113	1
62	114	1
102	166	1
