116	116	1
151	159	2
29	37	1
56	122	1
157	157	3
171	171	1
172	174	1
91	91	2
12	20	2
178	178	1
42	43	1
130	130	1
112	137	2
107	107	1
120	163	1
97	97	1
80	142	1
165	165	2
18	58	1
37	72	1
136	136	1
105	106	1
143	145	1
110	110	3
142	142	2
75	75	3
165	166	1
26	31	1
135	136	1
162	163	2
6	6	1
86	87	2
104	111	1
133	133	1
35	35	1
114	114	2
40	42	2
111	111	1
139	139	1
30	30	2
88	88	2
99	99	1
177	178	1
54	59	1
117	117	1
143	143	3
117	136	2
20	20	2
103	103	5
10	19	1
171	172	2
158	158	1
114	118	1
4	4	3
149	158	1
132	133	2
160	161	1
81	82	1
21	23	3
7	16	2
34	35	2
65	65	2
82	82	2
125	125	1
115	116	2
19	19	2
127	127	3
24	41	1
91	92	2
132	132	2
50	136	1
104	104	1
102	102	1
87	92	2
59	59	3
123	126	1
151	151	2
38	38	2
10	57	1
15	15	3
154	154	3
53	53	2
138	138	4
68	68	2
90	91	1
7	8	1
37	38	1
5	6	2
26	26	2
180	180	1
21	21	2
93	93	2
26	38	1
40	44	1
66	66	1
114	117	2
27	33	1
161	161	1
64	157	3
128	128	4
8	16	1
60	60	1
34	96	1
155	155	1
146	146	1
94	127	1
153	153	2
148	148	4
17	17	2
65	80	1
7	7	1
115	157	2
29	45	1
100	127	1
6	141	1
51	52	2
24	39	1
162	162	1
19	20	1
122	138	1
2	2	1
172	172	3
31	31	1
142	145	1
51	51	1
169	169	3
108	111	1
167	169	2
63	63	1
23	23	1
11	11	1
94	94	3
12	12	1
156	156	2
55	55	3
81	88	2
173	173	1
63	84	1
95	95	3
149	149	4
5	5	2
160	160	1
9	9	2
88	94	1
18	18	3
170	170	1
96	96	3
29	39	1
34	34	1
105	105	2
25	52	1
112	112	1
72	72	1
25	25	1
64	163	1
113	113	3
105	107	1
14	14	1
35	106	1
106	128	1
115	115	1
122	122	1
87	87	2
30	119	1
84	137	1
14	57	1
35	36	1
25	30	1
52	110	1
99	159	1
135	169	1
52	52	1
67	67	1
52	132	2
84	127	2
16	16	1
4	116	1
155	161	1
30	31	1
67	68	1
10	11	1
22	24	1
118	119	1
97	166	1
131	135	1
138	139	1
52	61	1
3	4	1
44	44	1
56	56	2
31	159	2
167	167	3
140	160	1
4	114	1
118	118	2
119	119	1
108	109	1
50	153	1
140	155	1
103	104	1
132	134	1
79	159	1
126	126	1
71	71	3
43	43	1
36	107	1
61	167	1
98	159	1
3	28	1
118	140	1
39	39	1
121	135	1
0	0	2
39	43	1
31	120	1
117	119	1
141	141	1
159	159	2
107	108	1
44	55	1
90	105	1
85	90	1
54	54	2
35	128	1
56	58	1
54	61	1
166	166	1
12	15	1
125	129	1
73	73	1
75	81	1
124	124	1
8	28	1
80	114	1
175	175	1
35	101	1
166	168	1
92	93	1
88	89	1
