101	101	1
105	109	1
96	96	1
87	90	2
151	152	2
13	13	3
171	171	3
28	43	2
149	150	1
167	168	1
48	67	1
22	22	1
155	155	2
30	46	1
5	9	1
120	120	1
67	68	1
137	137	3
41	41	2
46	46	2
112	183	1
154	154	4
90	90	1
75	188	2
178	178	1
142	142	3
173	175	2
92	92	2
166	166	3
113	114	1
170	170	1
95	96	1
118	118	2
152	152	3
66	67	2
133	159	1
13	15	2
123	125	1
109	141	1
18	19	1
108	143	1
115	115	1
53	55	1
145	146	1
77	77	1
70	70	3
162	162	1
124	124	4
102	109	1
78	78	1
0	3	1
186	187	1
177	178	1
36	36	1
119	120	1
158	168	3
12	149	2
144	144	3
105	105	3
5	5	4
52	52	1
111	111	1
44	44	2
28	33	2
58	58	2
35	35	1
134	144	1
55	55	3
16	16	1
124	182	1
168	168	1
11	12	2
165	181	1
86	86	2
152	155	3
187	189	1
12	12	1
114	185	1
88	88	3
48	48	1
165	165	2
173	173	2
126	126	3
83	83	2
74	74	3
138	138	1
107	107	3
1	1	1
109	115	1
169	169	5
159	179	1
175	175	1
95	99	1
20	21	1
90	171	1
121	122	1
87	87	1
14	24	1
141	143	1
127	181	1
85	85	2
18	18	3
102	102	1
81	88	1
100	165	1
151	151	2
7	7	5
47	47	1
88	89	1
2	146	1
131	131	1
150	151	1
188	188	1
15	39	1
56	56	5
100	166	1
36	178	1
54	54	1
149	149	1
66	68	1
180	180	1
38	38	2
4	5	1
104	104	2
177	177	2
4	53	1
121	121	1
112	137	1
42	121	1
33	33	1
28	28	1
118	174	1
63	63	1
99	99	1
182	182	1
118	119	1
30	31	1
77	78	2
24	25	1
79	109	1
17	20	1
100	101	1
31	31	2
81	81	2
146	146	2
5	55	2
109	109	2
82	82	2
97	97	3
138	139	1
105	110	1
160	160	1
159	159	3
74	79	1
141	144	1
172	172	1
25	25	5
73	73	1
42	42	1
75	88	1
163	190	1
0	0	1
89	89	1
184	184	1
57	57	1
186	186	1
6	6	3
163	164	1
19	34	1
68	69	1
103	103	1
60	137	1
40	40	2
128	129	1
142	143	2
128	164	1
139	139	1
165	171	1
46	47	1
164	171	1
104	109	1
10	10	1
73	150	1
85	93	1
90	92	1
32	32	1
113	113	1
65	71	1
20	20	1
174	174	4
21	21	1
68	70	1
2	39	1
169	170	1
144	183	1
143	189	1
175	176	1
106	107	1
12	14	1
54	67	1
98	99	1
137	148	1
147	147	1
105	167	1
159	160	1
80	147	1
34	34	1
28	42	1
43	94	1
160	161	1
70	71	1
129	130	1
87	151	1
80	84	1
22	58	1
140	141	1
123	123	1
39	39	1
187	187	1
24	26	1
91	170	1
109	155	1
160	168	1
35	176	1
152	153	1
95	170	1
91	92	1
156	158	1
66	66	1
79	107	1
15	24	1
