131	131	5
68	86	2
55	55	6
22	22	7
134	141	2
85	105	1
93	93	7
21	21	3
3	47	1
26	26	4
9	64	2
71	73	1
96	132	2
88	88	2
122	125	1
142	143	3
15	15	6
133	133	2
31	33	1
19	19	5
56	56	5
128	128	8
110	110	6
1	43	2
91	91	3
52	52	5
58	58	3
22	24	3
20	52	1
38	48	1
84	84	2
4	21	1
33	34	1
32	32	2
42	42	6
127	133	1
111	115	2
50	50	5
127	127	6
103	104	1
9	9	3
40	40	4
21	24	1
2	40	1
1	1	3
38	83	1
14	16	1
36	39	2
99	99	6
34	34	5
137	137	2
139	139	4
29	100	1
66	66	9
63	63	5
114	115	2
74	74	3
94	130	1
116	116	4
136	137	1
117	117	4
38	38	3
41	42	1
33	33	6
52	87	1
125	125	9
10	10	3
123	123	7
105	128	1
82	82	6
89	89	2
90	119	1
57	90	1
77	77	4
100	100	5
113	115	1
78	81	1
140	140	4
78	78	2
22	42	1
85	129	1
145	145	5
133	134	2
139	140	5
78	83	1
28	29	2
116	117	2
74	75	3
12	17	1
65	110	1
4	4	3
131	132	2
70	70	9
105	122	1
81	82	3
135	136	2
62	62	3
6	6	4
97	109	2
73	73	7
80	87	2
23	23	2
138	138	6
30	30	6
96	97	2
103	128	1
73	116	1
76	79	2
54	67	1
127	130	1
104	104	5
119	119	4
8	41	4
28	28	6
50	51	1
8	8	6
107	107	5
140	141	1
86	130	1
62	63	1
130	130	5
105	105	4
68	68	1
53	53	3
17	33	1
39	39	6
65	65	4
59	59	3
96	96	2
117	118	2
22	23	2
37	37	5
19	25	2
20	21	1
80	81	3
106	106	7
141	141	3
134	134	8
72	72	5
27	27	5
29	62	1
61	99	1
3	40	1
39	64	1
124	124	4
60	60	2
77	78	1
36	36	3
13	14	2
144	144	2
82	83	3
26	35	1
85	85	5
67	67	3
115	117	2
13	39	1
111	112	1
143	143	2
64	127	2
30	32	2
129	129	2
56	83	1
13	13	6
118	119	1
57	57	5
54	55	1
103	103	4
16	17	3
66	105	2
24	31	2
24	24	3
66	93	1
136	136	6
36	61	1
118	118	1
2	2	7
73	75	4
122	122	2
114	116	1
25	28	1
23	24	2
58	112	3
60	61	3
20	69	2
95	96	1
97	120	1
28	131	1
129	133	1
34	35	2
98	98	5
71	71	7
57	107	1
66	70	1
107	114	1
11	11	5
62	72	1
114	114	1
69	71	1
5	40	2
110	122	1
94	102	2
17	17	6
29	29	4
19	67	1
95	101	1
142	142	2
12	97	1
61	72	1
47	47	3
24	64	1
96	98	1
3	5	1
5	5	2
103	110	1
93	120	1
121	121	1
23	31	1
4	34	1
18	34	1
59	65	1
68	70	2
40	41	2
31	32	3
102	102	3
132	132	3
55	84	1
74	118	1
25	26	2
26	27	3
61	61	5
112	112	3
20	20	5
23	27	1
49	93	1
56	84	1
97	97	3
38	143	1
29	61	1
71	136	1
84	85	1
106	112	1
15	18	1
54	54	3
8	26	1
16	16	1
32	34	1
139	144	1
35	64	1
53	54	1
78	108	1
131	134	1
109	109	1
109	115	1
100	101	1
26	49	1
9	10	1
125	126	1
8	9	2
69	73	1
137	139	1
126	141	1
106	110	1
95	95	2
129	130	1
75	131	1
76	77	1
108	108	2
112	115	2
127	129	1
114	120	1
0	4	1
0	3	2
111	111	2
25	25	3
18	19	1
91	125	1
76	89	1
81	81	2
18	21	1
93	137	1
105	129	1
48	122	1
37	56	1
90	90	4
24	62	1
5	32	2
14	14	3
58	59	1
114	117	1
94	94	3
13	15	1
58	76	1
101	101	2
57	58	3
119	120	1
34	82	1
70	79	2
37	67	1
108	113	1
126	126	1
89	107	1
134	135	3
2	3	1
50	94	1
64	66	1
6	30	1
106	121	1
48	48	3
125	128	1
41	66	1
10	11	1
57	78	1
49	49	3
27	101	2
118	120	1
27	28	2
61	106	1
128	129	3
80	80	3
83	83	5
135	135	1
3	3	2
18	18	1
18	35	1
110	112	1
55	119	1
130	135	2
60	65	2
70	87	1
25	33	1
11	61	1
76	94	1
3	35	1
60	113	1
53	94	1
95	135	1
52	81	1
86	86	3
43	68	1
43	125	1
80	82	1
23	32	1
12	12	3
53	62	1
120	134	1
99	110	1
98	101	1
14	41	1
53	82	1
61	126	2
86	89	1
72	73	2
5	14	1
14	31	1
51	52	2
137	138	2
76	80	2
95	99	1
120	120	2
61	121	1
69	69	3
55	141	2
130	137	1
1	33	1
75	77	1
51	51	2
121	136	1
77	131	1
59	61	1
9	63	1
64	64	1
36	37	1
29	32	1
64	65	1
99	100	1
113	113	1
14	15	1
3	24	1
83	84	2
128	136	1
104	107	2
102	117	1
41	41	1
22	40	2
92	93	1
65	68	1
95	134	1
109	129	1
87	87	1
31	31	1
1	41	1
85	116	1
25	68	1
104	106	1
90	91	3
93	121	1
76	76	1
69	123	1
102	103	1
64	83	1
50	65	1
54	82	1
87	108	1
35	36	1
58	62	1
131	137	1
107	110	1
136	138	2
113	146	1
123	124	1
99	101	1
78	79	1
49	51	1
38	41	1
74	76	1
1	2	1
79	79	1
92	94	1
74	123	1
104	112	1
20	26	1
20	120	1
121	138	1
50	93	1
61	65	1
52	92	1
53	55	1
77	109	1
3	4	1
93	97	1
42	43	1
97	98	1
68	87	1
22	80	1
60	64	1
55	104	1
16	25	2
126	130	1
104	140	1
57	77	1
18	33	1
10	125	1
106	109	1
63	64	1
4	5	1
91	92	1
56	62	1
69	75	1
55	56	1
114	139	1
52	54	1
84	90	1
42	131	1
8	22	1
84	115	1
115	115	1
57	84	1
56	80	1
89	127	1
