2	2	4
140	140	1
109	109	3
112	112	4
101	101	1
17	17	2
68	68	1
79	79	6
125	126	1
107	107	1
134	134	1
15	15	2
125	125	1
55	55	4
33	110	1
26	47	2
137	138	1
36	36	2
11	11	3
155	155	6
26	27	1
154	154	3
34	34	2
66	69	2
128	128	1
19	22	1
156	156	4
46	109	1
91	92	1
103	103	4
136	143	2
144	144	1
119	119	1
85	85	2
150	151	2
139	139	3
92	92	1
129	129	3
12	12	3
19	20	2
13	13	2
120	121	2
113	113	1
26	107	2
90	97	1
121	121	2
120	120	1
123	124	1
96	117	1
112	124	2
114	114	5
67	67	3
16	16	2
130	130	1
70	70	4
87	88	1
84	84	2
123	125	1
44	44	4
18	18	1
89	91	1
145	145	5
95	109	1
21	21	4
24	24	1
36	37	1
103	134	1
100	100	6
37	37	2
9	9	1
31	31	3
28	28	3
143	143	1
23	23	1
70	71	1
12	13	1
157	158	2
109	112	1
16	79	1
93	93	2
10	15	1
4	4	3
82	147	1
81	81	2
88	88	1
19	19	1
80	86	1
66	66	1
12	120	1
135	136	1
80	141	4
0	0	1
113	124	1
54	68	1
53	53	1
25	99	2
38	38	4
20	20	1
108	110	1
39	40	1
7	30	1
30	30	2
11	66	1
107	116	2
33	33	1
45	83	1
26	46	2
94	94	1
34	35	1
109	110	1
47	127	1
104	104	1
86	87	1
77	142	1
41	41	2
79	81	1
113	141	1
94	95	1
138	138	2
111	112	1
94	106	1
123	123	3
118	120	1
45	109	1
115	123	1
158	158	1
67	71	1
30	77	1
124	124	2
82	82	2
69	69	1
37	38	1
144	145	1
108	109	1
18	19	2
45	126	1
132	133	1
9	140	2
73	73	3
97	122	1
157	157	1
45	127	2
48	48	1
79	115	1
18	46	1
46	46	2
84	85	1
54	54	2
43	43	2
3	33	1
107	139	1
50	50	2
56	100	1
50	89	1
43	64	1
151	151	2
67	68	2
71	71	1
156	157	2
41	88	1
97	97	1
22	135	1
149	149	1
96	96	1
50	142	1
79	80	1
126	126	1
99	107	1
26	26	1
19	115	1
98	98	2
61	61	1
74	128	1
99	99	3
53	71	1
112	113	1
141	141	1
78	78	1
52	52	1
8	9	2
25	28	1
125	127	1
54	55	1
77	97	1
79	112	1
93	110	1
64	66	1
45	47	1
