230	235	2
85	85	1
7	7	3
229	229	2
157	157	1
57	57	3
118	118	2
53	54	1
69	69	4
10	111	1
217	219	1
38	38	3
38	39	2
51	59	1
179	221	1
110	110	2
93	94	1
32	32	4
3	3	1
10	10	2
159	159	1
175	232	1
206	206	3
199	199	2
178	179	2
106	106	3
24	24	1
172	172	3
8	8	4
107	107	1
62	63	2
212	213	2
67	67	3
44	45	1
150	160	2
89	89	2
61	244	1
206	207	2
188	188	1
243	243	1
70	70	1
162	162	2
93	93	2
8	55	1
90	90	1
12	12	2
23	117	1
16	223	2
238	239	2
9	10	2
18	18	3
56	56	3
77	91	2
30	30	2
59	59	1
159	160	1
170	170	1
63	63	5
171	194	1
161	161	2
218	218	6
103	103	2
99	99	2
170	230	1
177	200	2
64	64	1
33	33	3
187	188	1
29	29	2
183	183	5
246	246	3
228	230	1
231	231	1
152	203	1
60	64	1
14	245	1
208	208	3
174	174	3
203	203	1
103	166	1
20	20	2
186	186	2
223	223	2
27	27	3
5	37	2
74	214	1
19	20	1
180	180	2
245	245	2
41	59	2
175	175	2
158	159	1
25	44	2
166	166	1
42	42	1
14	14	3
68	68	2
162	165	1
87	88	1
78	94	1
87	87	2
25	25	3
32	33	1
4	4	3
169	169	1
236	236	2
115	115	2
184	187	2
173	173	2
155	209	1
189	189	3
1	1	1
242	243	1
41	43	1
178	178	2
194	194	2
163	164	2
77	77	3
37	37	2
232	233	1
179	179	1
156	156	2
181	181	1
242	242	2
227	227	1
42	156	2
197	197	2
59	93	2
179	182	1
97	97	2
78	78	1
73	73	2
168	168	1
97	98	1
37	48	1
182	182	1
216	216	1
176	176	1
151	223	2
221	221	2
177	177	2
8	9	2
47	48	3
115	116	1
48	48	2
150	155	2
9	9	3
21	21	1
76	77	1
150	153	1
213	215	3
232	232	2
184	189	1
152	152	2
39	116	1
52	52	3
43	43	2
47	47	2
215	218	1
91	91	2
54	54	2
228	228	1
104	110	1
200	200	1
116	116	2
112	112	1
182	220	1
245	247	1
114	114	3
217	217	3
80	81	1
184	185	1
45	46	1
114	115	1
203	229	1
244	244	2
78	79	1
36	36	1
117	117	1
190	191	1
65	65	2
181	218	1
187	190	1
16	16	1
71	71	3
202	202	1
62	62	1
153	155	1
160	160	4
67	68	2
89	168	1
180	181	1
39	40	1
119	119	1
75	75	1
192	222	1
85	209	1
235	235	3
100	112	1
157	158	2
68	239	1
155	156	2
4	8	1
58	66	1
192	193	2
84	85	1
22	22	1
85	86	1
205	205	4
209	220	1
100	108	1
202	203	1
21	27	1
42	54	1
149	150	1
97	239	1
31	31	2
150	150	2
85	208	1
28	28	1
204	204	1
239	240	1
198	198	1
75	216	1
79	79	1
230	230	2
82	86	1
164	208	1
233	233	1
173	193	1
45	45	1
11	11	1
72	217	1
96	237	1
211	211	1
17	17	1
186	212	1
158	158	1
85	87	1
37	41	1
106	118	1
113	113	1
237	238	1
165	166	1
223	224	1
59	244	1
247	248	1
100	100	1
7	11	1
238	238	1
239	239	1
20	113	1
197	199	1
161	200	1
182	212	1
194	195	1
219	247	1
240	240	1
209	209	1
213	214	1
51	51	2
16	18	1
213	213	1
119	145	1
1	2	1
50	51	2
15	15	1
231	232	1
