39	39	2
118	118	1
60	60	3
121	121	4
34	38	1
6	8	1
83	83	2
84	84	5
54	61	1
63	63	5
125	126	1
13	33	1
94	94	3
51	51	4
37	38	1
4	5	1
88	88	3
119	119	1
37	37	2
27	27	5
13	13	3
19	19	3
1	3	1
92	98	1
90	90	2
18	40	1
6	6	2
134	134	2
23	23	6
77	77	3
74	74	2
24	24	3
47	47	1
65	65	2
26	40	1
107	107	5
6	12	1
75	75	2
56	58	4
2	2	1
31	31	2
1	19	1
127	128	2
31	32	2
30	33	2
33	33	3
80	83	1
32	32	2
53	53	3
115	115	1
141	141	6
27	29	1
130	131	2
80	80	3
35	35	2
103	103	6
106	106	4
74	79	1
69	84	1
139	139	2
18	43	1
88	106	1
135	135	2
34	40	1
26	26	1
56	56	3
117	117	2
15	15	3
36	37	1
110	111	1
113	114	1
100	100	1
30	31	2
90	107	1
38	38	3
4	4	1
98	98	3
96	100	1
81	81	3
79	79	3
145	145	2
76	76	3
122	122	1
126	127	3
9	9	3
35	36	2
49	72	1
47	53	1
72	73	1
68	68	3
70	70	4
126	126	3
21	21	2
62	62	2
0	0	1
138	138	1
124	124	2
95	95	1
36	36	3
11	28	1
28	28	1
52	53	1
68	89	1
112	112	2
102	104	1
51	52	1
33	35	1
19	21	1
101	104	3
110	110	1
144	144	1
67	67	3
25	26	1
2	132	1
139	141	1
41	48	1
102	102	4
75	78	1
41	41	2
88	96	1
92	92	1
140	140	2
64	64	1
111	111	1
70	80	1
97	97	1
136	136	1
68	71	1
52	59	1
79	80	1
111	112	1
56	61	1
96	97	2
94	98	1
18	18	1
81	111	3
61	61	1
133	138	1
23	24	1
39	40	1
101	101	1
137	137	1
20	43	1
12	14	1
116	116	1
93	93	2
73	73	2
20	70	1
85	85	1
128	128	1
91	92	3
17	17	1
96	96	2
34	34	1
14	51	1
68	76	1
132	132	1
127	127	1
41	42	2
70	88	1
105	106	1
2	3	1
54	54	2
66	115	1
120	120	1
118	121	1
118	122	2
64	75	1
99	99	1
35	62	1
48	63	1
129	131	1
10	17	1
42	42	1
107	109	1
1	1	1
2	5	2
17	32	1
76	78	1
3	3	1
130	130	1
134	138	1
121	122	1
68	70	2
118	123	1
40	40	2
54	55	1
47	72	1
11	11	1
25	25	1
72	107	1
49	49	2
16	50	1
121	131	1
96	98	1
13	25	1
94	95	1
104	104	1
123	127	1
123	123	1
49	50	1
22	22	1
116	117	1
133	133	1
15	46	1
9	10	1
59	83	1
13	15	1
60	61	1
120	121	1
118	141	1
137	139	1
43	43	1
21	22	1
55	57	1
131	131	1
67	68	1
93	94	1
1	97	1
53	58	1
134	135	1
55	55	1
91	91	1
51	55	1
84	85	1
71	71	1
16	16	1
66	66	1
56	62	1
8	9	1
