38	56	1
134	134	2
99	100	1
107	109	1
135	135	9
11	13	2
106	108	2
50	61	1
101	102	1
10	10	4
143	144	4
80	80	2
65	66	1
139	139	4
157	157	2
17	18	1
28	38	2
141	141	7
114	114	3
37	41	1
36	36	3
37	37	3
28	28	2
133	133	4
77	77	4
103	103	2
175	175	3
26	27	1
112	113	1
167	167	9
74	89	2
179	179	4
15	16	1
149	149	11
40	40	5
95	95	3
28	29	4
11	12	1
176	176	5
169	169	2
79	79	4
43	56	1
13	13	2
177	178	2
174	174	3
33	33	6
106	127	1
100	100	2
140	140	7
153	153	3
96	96	4
7	7	6
159	159	1
168	174	2
39	39	6
131	131	6
9	9	1
63	63	2
44	45	1
54	58	1
136	137	2
113	113	4
5	6	2
155	156	2
156	156	3
64	83	1
57	57	4
85	86	1
23	43	1
56	59	1
165	165	2
138	138	4
79	80	2
59	60	2
136	136	2
45	45	2
68	68	5
52	52	1
11	11	4
150	150	3
119	119	3
53	60	2
23	140	1
27	27	3
124	125	2
100	119	1
33	88	1
76	79	1
88	114	1
60	61	1
106	107	2
83	83	3
87	87	4
13	14	2
61	61	2
85	87	4
36	139	2
92	93	4
121	129	2
99	101	1
67	67	5
12	15	1
128	128	4
52	59	2
129	130	2
160	160	5
98	102	1
157	174	1
180	180	2
8	8	1
25	25	2
64	64	4
62	62	4
120	120	4
168	169	1
140	142	1
2	3	6
72	72	3
112	115	1
76	76	5
49	50	3
148	149	3
121	121	2
139	140	1
126	126	1
27	28	3
106	106	1
16	17	2
40	80	1
71	72	2
23	23	2
137	137	2
60	60	1
83	93	1
118	119	4
75	75	6
143	143	2
54	55	2
163	163	7
97	97	3
0	1	1
13	124	2
115	115	1
86	86	1
173	173	4
102	167	2
53	53	3
78	78	4
95	97	1
34	39	1
14	14	3
2	25	1
168	168	6
124	126	2
125	126	2
59	62	1
3	3	2
98	99	1
140	143	1
53	58	1
35	39	2
130	167	2
104	106	2
0	36	1
104	107	1
84	84	2
171	171	4
102	165	1
61	63	2
122	154	1
91	91	3
52	57	1
51	58	2
65	65	2
67	76	1
73	73	5
110	110	2
73	74	3
143	160	1
130	130	1
107	107	2
56	56	2
18	18	2
43	43	2
173	175	1
165	166	1
129	129	3
19	19	2
166	166	6
39	44	1
171	172	1
122	122	4
121	122	2
117	118	1
56	60	3
147	159	2
139	146	1
66	66	3
2	6	1
97	98	1
50	63	1
145	145	3
100	101	1
161	163	2
174	176	1
132	132	2
123	123	1
116	151	1
59	59	3
151	169	2
154	176	1
93	93	2
89	89	2
31	31	1
39	40	1
124	124	3
50	50	2
94	94	4
162	169	1
117	117	4
51	54	2
51	67	1
128	162	1
1	41	1
81	83	1
58	58	1
15	35	2
87	91	2
55	55	2
55	56	2
80	81	1
84	86	1
96	97	3
58	59	3
152	152	4
16	16	2
127	147	2
85	85	3
111	111	1
151	160	1
25	26	3
124	153	1
61	62	1
117	125	1
24	25	2
98	98	1
31	38	2
51	51	3
81	81	2
0	0	2
17	17	3
2	2	1
5	7	1
44	44	2
102	102	2
95	136	1
10	11	1
2	4	2
87	88	1
151	151	1
9	14	1
25	59	1
32	33	1
34	35	1
82	82	1
120	121	1
114	115	1
21	21	2
46	46	1
50	54	1
160	162	1
154	154	3
84	85	1
81	86	1
20	20	1
4	7	1
114	116	2
119	120	2
51	52	1
148	148	4
20	30	1
32	36	1
22	23	2
36	42	1
146	147	1
18	19	1
31	32	3
87	90	1
126	136	1
116	116	4
89	90	1
156	163	3
35	42	2
146	146	3
24	24	1
70	70	1
141	142	1
90	90	1
74	85	1
91	97	1
161	162	1
2	5	1
33	66	1
26	26	1
5	5	2
130	131	2
17	20	1
122	132	1
126	127	1
169	170	1
116	117	1
20	21	4
150	151	1
178	178	1
41	41	5
56	61	1
92	92	2
1	1	2
0	3	1
16	18	1
21	22	2
35	35	1
127	127	1
101	101	1
164	164	2
130	159	1
169	173	1
89	91	1
71	71	1
172	172	2
42	42	1
122	124	1
104	104	1
83	84	1
2	173	1
55	57	1
102	104	1
174	175	2
105	106	1
32	32	1
116	123	1
105	107	1
34	34	1
145	146	1
94	95	3
105	109	1
6	6	2
95	96	1
156	171	1
4	5	2
113	114	1
151	155	1
105	105	2
161	161	3
7	15	1
78	79	1
76	77	1
4	4	2
138	141	1
30	31	1
123	124	1
8	21	1
103	104	1
107	114	1
144	174	1
135	136	1
167	169	1
34	44	1
108	110	1
40	66	1
170	171	1
130	147	1
144	144	2
142	147	1
6	9	1
118	124	1
121	123	1
24	26	1
38	43	1
146	148	1
29	29	2
40	41	2
147	147	1
149	168	1
7	8	1
97	110	1
101	104	1
66	67	1
9	10	1
77	78	1
118	134	1
3	8	1
21	82	1
17	37	1
45	46	1
96	135	1
134	153	1
153	154	1
13	15	1
159	170	1
75	76	1
54	107	1
132	134	1
136	138	2
8	9	1
54	54	2
152	165	1
177	177	1
172	173	1
41	44	1
41	163	1
59	92	1
140	159	1
93	94	1
27	29	2
27	82	1
125	127	1
143	170	1
4	90	1
156	175	1
123	125	1
102	103	1
174	180	1
112	112	1
88	88	1
79	111	1
132	133	1
105	113	1
38	40	1
6	18	1
