18	18	5
3	4	1
129	130	1
134	134	3
179	179	2
146	146	5
133	133	5
142	145	1
148	154	3
139	173	1
177	177	2
155	155	4
136	136	4
12	12	6
90	90	5
39	40	1
26	36	1
31	33	2
11	12	3
81	101	2
143	174	1
101	101	5
117	117	8
190	190	8
24	24	3
89	124	1
94	94	6
168	168	3
16	23	1
35	35	6
5	5	3
20	20	2
56	56	5
110	110	7
29	30	2
106	106	6
3	3	4
11	11	4
96	98	2
131	131	2
171	172	2
20	36	1
77	77	7
183	183	3
58	58	4
186	186	6
177	185	1
0	25	1
120	121	2
57	57	5
104	107	1
110	111	2
74	76	2
154	154	5
33	77	2
111	111	1
103	104	2
86	107	1
15	15	3
41	41	4
22	29	1
185	185	7
100	102	1
6	6	2
96	96	2
129	129	3
23	23	4
56	57	2
100	100	5
114	114	4
1	7	1
144	145	2
18	19	2
72	75	1
75	75	4
64	66	1
130	130	4
27	27	2
36	36	7
136	172	1
62	105	1
124	124	1
131	133	3
17	29	1
157	157	2
145	145	11
115	119	1
0	6	1
81	81	6
167	167	3
16	16	3
9	9	4
21	21	3
175	175	1
82	83	1
188	188	2
42	42	4
178	178	2
138	146	1
173	173	4
54	54	1
136	171	1
90	150	1
145	174	1
136	137	3
125	125	5
55	55	4
48	48	6
118	118	3
91	91	3
92	92	4
58	62	1
68	71	1
171	177	2
87	88	1
165	165	1
66	66	2
25	37	2
59	63	1
128	128	2
0	17	1
62	64	2
94	96	2
139	140	2
73	74	1
42	44	1
132	168	1
70	71	2
182	183	2
20	114	1
71	71	2
159	160	3
151	152	4
37	77	1
32	32	3
14	14	2
182	182	5
72	72	2
2	2	2
5	8	1
138	143	1
143	143	5
34	34	2
41	59	1
90	125	1
71	72	1
126	126	6
185	186	1
7	8	1
40	40	3
22	24	1
60	127	1
5	7	3
132	133	2
70	70	4
138	138	4
149	149	2
64	65	2
35	36	3
127	127	3
153	153	3
62	62	2
6	7	3
13	14	2
99	100	3
189	190	3
176	176	3
20	21	1
187	187	4
68	76	1
115	115	2
88	95	1
84	84	1
172	175	1
31	74	1
30	30	2
172	172	3
97	99	1
23	24	2
62	63	1
43	43	3
85	85	2
147	147	1
56	106	1
53	54	2
60	91	1
107	119	1
135	136	1
162	162	7
74	74	2
45	46	2
134	135	2
7	7	1
79	79	7
89	89	1
122	122	2
174	174	2
63	64	2
76	76	3
25	25	2
86	86	3
109	109	3
116	116	3
178	179	1
137	143	1
107	108	1
135	135	2
13	73	1
38	38	2
151	151	4
78	92	1
147	148	1
181	181	3
177	178	1
29	29	4
142	143	2
123	123	3
4	4	4
42	48	1
101	102	4
138	140	1
139	139	6
181	186	1
148	155	1
150	158	2
132	134	2
139	169	2
99	157	1
80	84	1
34	35	1
165	166	3
97	98	2
138	139	5
54	77	1
170	170	4
186	189	1
59	60	1
115	172	1
132	169	1
85	109	1
95	95	5
43	85	1
186	187	1
46	47	1
66	81	1
116	117	3
59	71	2
76	128	1
78	78	2
43	60	1
62	68	1
25	27	1
121	121	4
159	159	3
63	63	2
119	119	1
60	62	1
146	155	1
55	63	2
148	148	1
133	134	2
143	144	2
61	61	3
44	44	2
130	131	1
145	157	1
96	97	1
65	65	1
30	114	1
140	145	1
177	184	1
36	43	1
59	59	1
82	82	2
164	164	3
53	53	2
149	152	1
26	27	1
67	80	1
0	0	1
14	87	1
108	119	1
78	79	1
103	103	3
160	162	1
118	120	1
13	13	1
87	87	2
59	61	1
74	75	2
118	121	2
6	15	1
10	10	1
15	18	1
47	47	3
137	172	2
14	15	2
33	33	2
111	112	1
142	142	2
166	166	1
83	83	4
98	98	3
45	48	1
37	37	1
97	97	4
141	142	1
133	168	1
124	151	1
39	39	1
105	106	1
93	94	2
32	45	1
160	160	4
102	103	2
42	43	1
184	184	1
1	30	1
112	112	2
19	21	1
130	133	1
88	88	1
16	17	1
46	46	1
163	163	1
99	99	1
132	132	1
124	125	1
90	100	1
45	45	2
181	182	1
60	64	2
17	36	1
48	122	2
17	17	1
171	171	1
83	84	1
79	81	1
184	185	1
160	167	1
93	96	1
60	61	1
40	47	1
67	67	1
10	11	2
179	180	2
141	141	1
155	183	1
158	163	1
126	168	1
80	81	1
140	140	1
183	185	1
73	131	1
67	107	1
128	129	2
156	156	1
30	34	1
142	147	2
101	135	1
109	163	1
120	120	2
189	189	1
22	33	1
127	137	1
40	41	1
88	148	1
96	127	1
60	60	1
114	115	1
64	64	1
77	81	2
25	35	1
178	187	1
2	3	1
58	59	1
1	1	2
155	165	1
6	13	1
187	188	1
66	167	1
113	113	2
45	63	1
34	62	1
84	85	1
8	8	3
127	128	1
169	169	1
48	49	1
160	161	1
80	80	1
101	134	1
102	102	2
150	152	1
105	105	1
54	76	1
4	6	1
26	26	1
10	15	1
85	90	1
149	177	1
41	74	1
107	107	1
20	33	1
82	98	1
17	18	1
55	60	1
113	114	1
93	97	1
27	29	1
