123	157	1
43	43	2
40	40	3
116	116	3
117	120	2
3	3	3
84	88	1
20	20	1
52	52	1
117	151	2
111	111	3
120	120	1
42	46	3
13	14	1
44	44	2
39	39	1
51	54	1
78	80	2
75	75	1
148	148	1
101	101	2
67	67	2
138	138	1
83	88	2
155	155	2
32	32	1
114	115	1
7	7	4
88	89	1
93	93	2
61	90	1
157	157	1
11	46	2
136	137	1
107	107	1
124	124	2
149	149	1
100	100	2
53	53	2
153	153	1
126	126	1
28	28	2
82	130	1
12	46	2
63	82	1
135	135	4
35	35	4
92	92	2
45	47	1
128	128	3
40	41	3
89	109	1
130	150	2
4	5	1
83	83	3
102	102	2
109	126	1
152	152	1
34	77	1
40	65	1
48	48	2
24	47	1
53	54	2
134	138	1
11	11	2
27	27	2
76	76	1
71	71	3
119	126	1
113	123	1
54	82	2
48	123	1
6	22	1
44	45	1
68	110	1
76	77	2
9	10	1
1	1	3
62	63	2
45	46	1
16	16	2
42	77	1
4	4	2
15	28	1
117	117	2
156	156	1
38	38	1
8	8	1
6	6	2
63	119	2
141	141	1
123	123	1
81	81	2
87	87	1
122	122	1
80	88	2
122	147	2
81	118	1
8	19	1
111	121	1
29	29	1
51	52	1
154	155	1
5	5	1
86	86	1
14	14	2
7	8	1
37	37	1
150	150	1
121	121	1
31	32	1
101	106	1
146	147	1
114	118	1
154	157	1
147	147	2
10	32	1
10	10	1
131	131	1
55	55	1
94	152	1
142	142	1
88	110	1
79	81	1
73	87	1
84	85	1
32	50	1
123	124	1
21	32	1
84	84	1
62	121	1
78	91	1
18	33	1
22	22	1
158	158	1
146	146	1
47	55	1
113	113	1
42	42	1
4	48	1
80	92	1
96	96	1
87	88	1
57	57	1
40	44	1
154	154	2
77	78	1
64	64	1
14	19	2
85	85	1
69	72	1
82	82	1
80	81	1
45	45	2
99	99	2
65	81	1
17	17	1
115	115	2
103	108	1
108	110	1
109	112	1
115	122	1
140	140	1
151	152	1
67	121	1
47	47	1
56	56	1
109	109	2
33	33	1
92	110	1
145	145	1
39	40	1
73	73	1
90	90	1
139	139	1
68	71	2
157	159	1
28	30	1
