15	16	1
84	84	2
49	49	2
75	75	5
11	11	1
15	15	2
63	63	2
122	122	4
32	32	3
23	23	4
81	81	4
100	111	1
121	121	1
67	83	2
51	52	1
40	45	1
45	45	1
126	126	3
92	93	2
108	108	1
96	114	1
44	66	1
8	13	1
91	91	2
111	111	5
92	92	4
106	106	1
99	99	2
98	98	2
114	115	1
80	80	2
79	80	3
54	54	2
70	70	1
67	71	2
12	29	2
65	66	2
4	5	1
79	79	2
68	109	1
71	72	2
98	128	2
105	105	3
89	89	1
72	72	2
42	42	3
31	31	3
58	59	1
29	30	1
51	90	1
74	79	1
102	102	6
21	22	1
124	124	4
17	17	1
131	131	4
71	71	2
114	114	3
107	116	1
107	110	2
93	93	1
119	119	3
120	120	2
10	11	1
127	127	1
39	39	1
109	109	2
56	56	6
17	62	1
18	18	1
15	90	2
132	132	1
94	102	2
118	118	3
100	100	2
52	52	2
123	124	1
96	96	3
38	39	2
32	39	2
48	50	2
26	26	3
125	125	4
53	53	2
87	99	1
113	131	1
0	0	2
11	12	2
30	30	2
21	28	1
46	47	1
44	84	1
48	48	3
103	103	1
58	58	1
126	127	1
23	24	1
96	97	1
77	83	1
60	60	1
69	71	1
40	40	1
63	72	1
116	116	2
65	65	1
39	59	1
45	52	1
55	55	3
67	67	2
66	66	2
100	123	1
59	59	1
67	68	1
8	12	2
85	92	1
3	3	2
16	16	1
13	13	3
24	24	4
51	51	3
0	113	1
62	62	3
9	10	1
104	104	1
3	27	1
59	63	1
130	131	1
68	75	1
106	109	1
63	64	1
97	98	2
46	71	1
21	21	2
64	86	1
85	85	1
94	94	2
25	113	1
6	6	1
19	20	1
17	40	1
3	118	1
64	64	1
12	13	1
70	71	1
6	124	1
129	133	1
15	17	1
88	101	1
31	32	1
47	47	1
1	2	1
5	7	1
6	103	1
48	49	2
88	91	1
87	88	1
22	33	1
25	32	1
50	50	1
110	110	2
53	54	1
101	101	1
70	89	1
129	129	1
20	22	1
57	57	1
15	43	2
57	76	1
61	61	1
28	28	1
9	9	1
44	44	1
107	107	1
115	115	1
21	60	1
113	113	2
108	109	1
120	121	1
108	119	1
