83	83	1
82	88	1
26	26	3
134	135	2
44	75	1
159	174	1
57	85	1
91	99	1
178	180	1
150	150	4
110	121	2
190	190	2
106	106	1
137	157	2
71	73	2
52	52	1
111	140	1
46	91	1
186	186	5
176	176	1
159	160	1
67	67	2
86	89	1
38	38	2
132	132	3
76	76	1
107	139	1
149	149	1
188	189	3
182	190	1
19	20	1
105	105	3
159	162	1
182	182	2
139	139	1
123	129	3
74	75	1
142	144	2
188	190	1
116	132	1
67	89	1
104	129	1
103	183	2
71	151	2
169	178	1
3	3	2
112	112	4
66	66	2
115	115	1
18	21	1
134	134	1
76	181	2
28	29	1
120	123	1
92	92	1
12	12	2
132	134	1
25	129	1
17	17	2
59	59	2
27	27	2
98	184	2
14	81	1
83	84	3
158	158	1
11	11	4
154	154	3
30	31	1
171	172	1
16	16	2
167	168	3
59	61	2
159	159	1
59	60	2
143	144	1
90	90	2
86	86	3
2	2	1
108	108	1
140	140	2
32	32	1
97	97	2
31	33	1
77	77	2
161	167	1
106	107	1
170	172	1
65	65	2
10	10	2
71	71	3
156	156	3
35	35	1
170	170	2
79	79	1
13	13	1
40	41	1
107	189	1
93	93	2
108	109	1
137	145	1
158	159	1
119	169	1
31	32	1
148	148	3
22	22	1
144	156	1
25	25	4
127	127	1
40	40	2
142	142	1
135	135	1
119	119	1
185	185	2
151	151	2
74	85	1
132	133	1
182	183	1
21	43	1
106	167	1
104	104	3
42	43	1
179	179	1
154	164	1
99	99	1
131	131	1
9	9	1
61	88	1
0	0	1
157	158	1
181	181	1
81	86	2
46	57	1
173	184	2
85	85	2
172	172	1
4	5	1
100	100	1
35	36	1
30	30	2
58	98	1
120	143	1
122	146	1
144	146	1
164	167	1
4	4	3
127	128	2
143	157	1
161	161	2
36	48	1
55	55	1
54	55	1
159	189	1
1	2	1
48	85	1
48	48	2
131	132	1
103	103	1
38	39	1
146	163	1
37	37	2
66	67	2
168	168	1
71	146	1
149	162	1
124	126	1
153	153	2
160	164	1
146	146	1
122	139	1
32	37	1
171	171	1
33	33	1
2	26	2
5	5	2
111	112	1
57	61	1
123	125	1
124	125	2
154	155	1
90	91	1
146	153	2
39	39	1
60	74	1
55	92	1
141	141	1
72	72	2
87	87	1
23	28	1
129	129	1
117	117	1
13	15	1
81	144	1
78	118	1
82	82	1
76	79	1
94	94	1
75	76	1
19	19	1
24	24	1
36	37	2
1	1	1
187	187	1
105	126	1
5	28	1
143	156	1
184	185	1
46	46	1
112	113	1
173	173	1
120	120	1
133	134	2
121	128	1
33	34	1
91	94	1
141	155	1
119	188	1
82	154	1
36	36	1
