153	164	1
137	194	1
168	168	1
27	31	1
3	3	3
74	74	1
84	84	2
215	215	1
108	132	1
23	23	2
85	85	2
1	1	1
52	89	1
44	44	1
125	132	1
122	122	1
108	108	4
31	31	1
34	34	4
230	230	1
173	173	4
62	62	1
83	83	1
136	201	1
110	120	1
216	228	1
15	118	1
56	56	4
188	188	1
195	198	2
49	49	1
108	109	1
177	177	1
42	42	3
29	108	1
58	58	1
220	220	2
41	41	2
151	152	1
196	200	1
81	195	2
32	32	4
235	238	1
9	32	1
195	199	2
208	208	3
141	141	1
217	218	1
52	52	1
221	225	1
16	50	1
97	118	1
65	65	2
34	82	1
157	157	1
179	210	1
81	87	1
57	57	3
27	30	1
79	116	1
130	194	1
186	186	1
158	158	1
104	195	2
13	164	1
82	82	1
224	224	1
20	65	2
81	81	1
86	86	2
228	228	2
22	78	1
81	82	1
24	180	1
70	86	1
179	179	4
80	122	1
122	136	1
167	167	3
33	35	1
130	130	2
57	59	1
19	120	1
225	225	3
195	195	1
124	129	1
18	116	1
41	57	1
39	230	1
126	133	1
225	240	1
36	57	2
25	25	1
145	187	1
141	197	1
8	8	2
14	15	1
100	154	1
46	47	2
217	217	1
61	120	1
33	34	1
68	68	1
214	215	2
12	12	1
85	99	3
240	241	1
205	205	1
70	71	2
7	12	1
192	200	1
185	185	1
142	142	1
211	212	1
182	182	2
233	234	1
118	118	1
15	160	1
80	85	1
144	169	2
176	177	1
36	115	1
200	201	1
30	30	1
233	233	1
178	178	4
104	104	1
63	63	1
172	172	1
226	226	1
107	108	1
105	105	2
140	142	1
189	189	1
218	219	1
62	63	1
69	158	2
76	76	1
74	112	1
4	7	1
71	72	1
174	235	1
208	214	1
211	211	4
68	233	1
74	75	1
14	14	3
50	100	1
39	40	1
6	115	1
27	27	1
132	153	1
58	61	1
5	5	1
136	160	1
148	148	1
72	72	2
123	124	1
206	231	1
36	36	2
103	163	1
61	61	1
183	183	2
152	152	2
114	114	1
100	104	1
145	145	1
166	167	1
150	183	1
221	234	2
166	194	1
6	6	2
213	215	1
235	235	1
181	183	1
80	80	2
139	140	1
40	42	1
119	120	1
137	139	1
134	161	1
76	78	1
127	161	1
124	124	2
28	156	2
165	169	2
214	214	1
106	129	1
192	192	1
101	102	1
95	95	1
23	197	1
137	137	4
33	82	1
109	241	1
165	203	1
64	68	2
206	206	1
40	40	2
142	161	2
63	91	1
194	195	1
150	151	1
38	38	1
13	145	1
151	151	1
155	156	1
164	167	1
185	188	1
49	50	1
140	140	2
30	31	1
116	117	1
139	207	1
98	98	1
197	197	1
66	67	1
181	182	1
165	165	1
158	159	1
117	117	1
74	97	2
149	153	1
204	207	1
44	45	2
6	17	2
154	154	2
47	111	2
162	162	1
31	72	1
202	202	1
51	52	1
173	174	1
7	7	1
24	74	1
219	219	1
47	47	1
26	43	1
206	218	1
4	5	2
192	223	1
118	163	1
237	237	1
205	206	1
212	214	2
30	45	1
115	117	1
154	170	1
116	213	1
86	161	1
80	81	1
0	0	2
204	204	1
147	147	1
154	167	1
149	149	1
41	105	1
0	1	1
59	59	1
163	166	1
135	163	1
11	11	1
207	207	1
103	115	1
162	164	1
133	189	1
229	235	1
61	62	1
194	194	1
184	226	1
64	128	1
215	224	1
141	149	1
240	240	2
28	28	1
139	189	1
209	210	1
29	29	1
177	179	1
158	170	1
221	221	1
199	200	1
9	9	1
76	103	1
57	81	1
213	213	1
4	6	1
37	65	1
175	175	1
44	54	1
124	161	1
149	181	1
231	231	1
187	188	1
63	132	1
115	119	1
134	134	1
159	159	1
73	73	1
45	45	1
179	238	1
34	35	1
187	187	1
125	127	1
40	78	1
128	128	1
163	163	1
142	143	1
159	198	1
122	155	1
15	16	1
111	113	1
35	35	1
239	239	1
224	226	1
129	130	1
161	163	1
24	24	1
232	232	1
117	179	1
46	54	1
190	191	1
217	223	1
