9	169	3
3	3	4
46	46	1
140	140	2
2	2	3
135	135	5
24	24	4
10	10	1
122	122	2
150	150	1
116	116	1
112	112	1
165	165	3
42	42	3
55	58	4
104	104	2
80	80	1
53	53	1
12	12	2
134	135	1
45	45	4
62	63	1
107	107	1
68	68	1
57	57	4
163	163	3
157	167	1
158	158	2
36	36	1
16	16	3
27	27	3
149	168	1
144	154	1
97	97	1
56	57	2
147	148	4
16	21	1
17	17	3
127	148	2
157	157	4
0	2	1
96	96	2
149	149	5
123	123	2
79	80	1
71	74	1
170	170	2
105	106	2
160	166	1
139	143	1
79	79	3
55	55	2
19	19	2
100	101	1
145	145	1
4	4	1
92	162	1
145	146	1
147	169	1
49	49	2
17	18	2
99	101	1
35	41	1
19	57	1
85	86	1
54	54	1
81	81	2
162	162	2
65	65	1
160	161	2
142	142	2
83	83	1
94	94	3
92	92	1
51	98	1
128	128	2
164	164	3
89	89	3
51	51	1
133	135	1
76	77	1
148	148	3
138	138	4
20	92	1
121	138	1
6	6	6
80	130	1
5	107	1
118	119	2
113	114	1
143	143	1
151	151	5
1	1	2
12	110	1
77	77	1
101	103	1
11	11	1
66	66	1
37	37	2
129	129	2
48	49	3
26	26	1
78	134	1
139	139	2
82	128	1
94	166	1
124	124	1
69	69	1
74	111	1
140	141	1
106	108	1
22	22	4
82	87	2
43	43	2
73	73	4
20	20	3
115	164	2
160	160	3
105	105	1
131	132	1
62	62	1
14	14	1
8	8	1
52	52	4
45	48	1
64	67	1
134	134	3
5	12	1
85	85	2
35	35	1
13	41	1
93	146	1
87	109	1
126	127	1
108	109	1
5	6	1
166	166	2
114	115	1
136	136	1
64	64	1
48	48	1
93	93	1
47	47	2
7	7	1
5	5	2
120	120	1
87	87	2
121	121	1
119	119	3
9	75	1
126	126	1
84	85	1
14	15	1
113	164	1
34	35	1
103	156	1
163	165	1
18	18	2
124	125	1
101	101	1
131	131	2
161	161	1
53	54	1
88	88	1
38	38	2
111	111	1
51	100	1
17	109	1
88	89	2
129	130	1
18	19	2
76	76	1
64	132	1
13	14	1
55	56	1
133	167	1
67	67	1
152	152	1
146	149	1
155	157	1
44	45	1
86	86	1
90	90	1
70	70	1
47	49	1
135	136	1
154	154	2
44	44	1
128	129	1
156	156	1
115	162	1
130	130	1
138	139	1
35	37	1
82	86	1
115	161	1
153	153	1
97	121	1
82	84	1
140	145	1
116	164	2
78	133	1
80	81	1
53	55	1
