126	167	1
6	76	1
2	2	4
120	120	3
196	197	2
42	43	1
40	41	8
48	48	3
98	98	1
186	186	1
170	171	1
163	163	1
3	176	1
4	4	2
151	151	1
26	80	1
86	87	3
193	193	2
123	126	1
175	175	1
87	88	3
126	126	1
148	148	2
189	189	3
23	24	1
28	29	2
60	60	2
30	30	2
39	41	2
75	76	2
42	42	2
39	39	2
37	37	1
43	43	4
60	61	1
73	115	2
21	24	2
165	165	1
176	177	1
136	136	1
16	17	2
59	59	2
83	83	1
47	47	1
116	120	1
95	95	2
73	73	4
46	46	2
129	141	1
23	23	2
10	13	1
160	160	2
1	1	3
145	146	1
121	121	2
5	5	2
14	14	1
103	105	1
146	146	2
18	80	1
157	158	2
169	169	3
109	182	1
126	151	2
133	133	1
102	102	2
58	58	3
105	105	3
109	109	2
171	171	4
176	178	2
196	196	2
154	155	1
9	9	3
124	180	1
85	85	1
138	141	1
8	8	1
61	61	2
183	183	3
118	118	1
22	24	2
191	191	2
108	159	1
71	71	2
97	97	1
127	127	3
72	72	3
66	66	1
111	111	2
97	98	2
126	132	1
147	148	2
101	172	1
12	12	1
117	117	2
108	182	1
57	62	1
33	33	1
124	124	4
58	59	2
78	81	1
139	140	1
55	72	1
168	168	1
188	188	1
93	94	1
68	68	1
13	13	1
167	167	1
141	141	1
38	38	2
39	40	1
179	179	3
159	183	1
90	90	1
35	35	1
170	170	3
159	182	1
17	17	1
161	162	1
19	19	3
53	53	3
69	69	1
154	154	2
178	188	1
10	17	1
10	121	1
74	80	2
72	105	1
156	156	1
6	25	1
16	16	1
182	185	1
126	127	1
18	157	1
144	144	1
36	67	1
49	49	1
62	62	2
59	60	1
24	71	1
32	32	3
134	134	1
87	87	1
20	40	1
143	144	1
191	192	1
136	137	1
34	34	1
180	180	3
140	140	1
107	107	1
188	189	1
30	69	1
30	33	2
193	194	1
38	39	2
80	80	1
99	99	2
114	114	1
192	192	2
8	12	1
164	165	2
197	197	2
129	129	2
78	78	1
35	80	1
65	65	1
135	135	1
25	25	2
119	119	1
171	177	1
113	113	1
155	156	1
158	163	1
10	61	1
125	125	1
45	45	3
172	172	2
46	48	1
13	25	1
130	130	1
74	76	1
67	125	1
115	115	1
51	127	1
11	11	2
101	105	1
178	178	1
164	180	1
31	43	1
123	123	1
96	97	1
11	168	1
185	185	2
132	132	2
115	116	1
102	103	1
128	128	1
106	106	1
65	69	1
182	183	1
81	81	1
113	189	1
61	121	1
122	123	1
38	40	1
44	44	1
98	99	1
102	178	1
159	167	1
115	167	1
183	185	1
146	147	1
109	131	1
47	51	1
50	50	1
43	57	1
