2	70	1
6	28	1
13	54	1
11	42	1
3	3	10
47	47	6
33	33	5
70	70	2
9	9	6
23	23	7
18	73	1
50	50	7
36	36	2
41	42	2
21	53	2
47	51	1
51	51	3
19	29	1
7	8	1
37	39	1
19	19	5
51	54	1
23	24	6
0	0	9
64	64	4
49	49	1
46	55	2
25	26	1
6	6	3
59	59	3
71	71	6
5	5	4
51	53	1
0	72	1
31	31	5
1	2	3
30	30	2
46	46	6
20	20	11
8	9	1
22	22	10
25	25	4
23	52	1
35	38	1
10	50	1
70	71	3
36	62	1
42	42	8
40	40	5
72	73	4
60	60	4
28	29	1
73	74	2
58	58	2
9	10	6
55	55	4
26	59	2
39	39	2
8	8	6
68	70	3
32	34	1
4	27	1
10	10	5
21	21	7
45	45	3
75	75	1
26	26	4
3	4	1
74	74	6
63	71	2
1	1	7
20	56	1
50	69	1
27	59	2
61	61	4
38	38	7
50	75	1
27	27	3
53	53	5
38	59	1
77	77	4
46	47	2
26	29	1
34	35	3
20	44	2
32	32	5
2	46	2
3	45	1
66	67	3
25	27	4
62	62	2
1	3	1
64	73	1
76	76	5
23	26	1
29	73	1
70	72	1
13	13	3
68	73	1
67	67	2
35	35	6
43	44	1
24	35	1
57	57	5
68	68	1
50	52	1
37	37	2
59	60	1
38	76	1
11	73	1
56	56	4
74	76	1
21	23	1
7	7	2
36	55	2
37	40	1
30	33	1
52	52	2
37	38	2
68	69	2
4	4	4
69	69	2
57	58	1
45	49	2
11	12	3
18	19	2
44	73	1
22	34	1
18	18	2
29	29	2
48	48	5
63	64	1
2	27	1
24	24	3
27	51	1
41	58	1
27	36	1
65	67	1
72	72	3
48	57	2
48	49	5
24	27	1
49	50	1
72	74	1
36	54	1
44	45	3
65	65	3
66	66	4
2	2	5
26	27	2
55	56	2
50	74	1
45	76	3
43	45	1
19	23	1
26	31	1
6	7	1
12	72	1
39	72	1
12	12	3
55	60	2
13	52	1
4	31	1
2	3	1
14	28	1
19	46	1
29	72	1
74	75	1
5	50	1
32	33	2
7	37	1
7	21	1
24	25	1
56	60	1
73	73	1
41	41	3
61	62	1
11	11	5
34	34	2
50	51	2
22	35	1
25	36	1
25	59	1
29	30	1
52	55	1
63	63	2
52	54	1
38	71	1
63	66	1
2	5	1
14	14	1
44	46	1
62	63	1
56	61	1
20	52	1
4	5	1
43	54	1
43	76	1
45	48	1
57	63	1
54	54	1
43	47	1
65	68	1
25	29	1
10	74	1
12	21	1
21	72	1
