220	223	1
181	225	2
16	17	1
124	124	1
149	150	1
3	3	3
40	190	1
27	27	3
135	135	1
216	216	3
39	42	3
118	118	2
22	22	3
211	211	1
183	183	3
237	237	2
6	7	2
96	96	1
73	89	1
39	39	2
143	200	1
234	234	2
36	66	1
195	195	1
221	221	1
13	14	3
233	233	3
237	238	1
24	24	4
37	43	1
234	235	1
39	196	1
153	153	1
161	161	1
202	202	3
199	199	1
179	180	1
120	121	1
45	45	2
190	190	2
72	80	3
207	208	2
174	231	1
44	44	1
182	183	3
218	218	2
111	111	2
42	42	4
150	199	1
34	34	3
106	106	2
194	194	2
123	123	1
85	86	1
176	226	1
84	85	1
62	62	1
219	219	2
238	238	4
26	26	2
163	163	2
6	162	2
191	191	4
12	80	2
203	207	1
61	62	1
50	51	1
80	81	2
148	148	2
223	223	2
134	137	3
204	220	1
226	226	6
160	160	5
185	185	3
208	210	1
217	217	2
72	197	1
6	6	2
71	71	3
36	37	3
0	0	1
45	110	1
42	103	1
192	193	1
71	86	1
74	74	4
29	29	1
15	15	1
138	138	3
240	240	2
239	240	1
98	98	3
100	100	2
191	216	2
0	67	2
22	145	1
208	208	2
18	18	3
158	196	2
115	141	1
105	118	1
200	200	3
41	103	1
9	9	2
206	206	1
116	117	1
118	165	1
66	67	1
146	198	1
53	77	1
108	108	2
130	130	1
5	5	3
133	134	1
214	214	1
84	84	2
60	60	4
31	31	6
49	49	1
204	207	1
222	223	2
52	133	1
113	113	3
135	136	1
137	138	2
230	230	1
231	231	2
199	200	1
44	169	1
12	12	3
213	213	1
92	107	1
207	207	1
151	152	1
64	67	1
112	112	1
242	242	3
115	115	3
220	220	1
69	69	1
159	168	2
30	70	1
69	122	1
75	99	1
55	55	3
228	228	1
204	204	2
144	144	3
12	82	1
137	137	2
23	23	1
43	47	1
13	22	1
140	221	1
2	143	1
182	182	3
101	101	2
114	114	2
24	25	1
218	219	1
121	121	1
11	11	3
88	88	3
220	221	1
62	64	1
36	36	1
189	194	1
182	215	1
213	215	1
78	79	1
157	227	1
181	181	1
224	224	3
156	156	2
170	217	2
143	143	2
176	176	2
100	201	1
196	196	1
99	99	2
21	21	2
157	226	1
158	195	2
3	11	1
111	220	1
67	104	1
157	157	2
184	184	3
142	142	1
122	122	2
161	162	1
39	211	1
164	164	2
110	110	1
17	143	1
150	150	2
61	61	1
104	104	2
16	79	2
149	149	1
193	195	2
236	237	1
109	110	1
80	80	3
64	64	1
12	73	1
171	172	2
136	136	2
241	241	1
122	127	1
76	76	1
128	128	1
89	91	1
198	203	1
70	70	1
43	43	2
236	236	2
194	195	2
142	202	1
188	234	1
198	226	1
47	74	1
182	186	1
179	181	1
71	73	2
33	33	2
40	40	1
40	41	2
64	65	2
152	159	2
0	1	1
212	212	2
77	77	1
207	238	1
129	131	1
145	199	2
227	227	2
197	228	1
29	30	1
81	81	2
21	22	1
205	205	1
38	38	2
41	102	1
212	213	2
37	37	1
54	144	1
27	29	1
97	97	1
105	144	1
102	106	1
192	192	2
20	20	1
102	103	1
42	102	1
3	4	2
63	63	1
172	172	1
53	53	3
184	191	1
15	79	1
20	24	1
32	70	1
145	147	1
122	125	1
42	241	1
191	214	1
56	117	1
60	102	1
17	17	1
42	201	1
18	22	1
15	101	1
144	197	1
3	7	1
40	115	1
16	16	1
31	32	1
141	142	1
18	109	1
28	29	2
51	51	1
110	121	1
12	24	1
29	136	1
171	171	2
149	151	2
232	233	1
146	154	1
129	129	2
173	173	1
208	218	1
116	116	1
137	156	1
126	126	1
105	105	1
133	133	1
47	88	2
155	196	1
46	46	1
234	241	1
100	200	1
203	204	1
37	68	1
205	209	1
173	202	1
125	126	1
0	148	1
37	102	1
175	229	1
109	109	1
11	31	1
24	202	1
116	121	1
53	76	1
120	120	1
24	85	1
180	180	1
176	225	1
140	140	1
62	69	1
73	73	1
25	26	1
6	145	1
217	218	1
132	132	1
175	179	1
167	168	1
14	81	1
88	103	1
59	59	1
48	48	1
