78	78	2
204	204	2
241	241	1
209	232	1
213	214	1
40	40	3
80	82	1
192	192	3
112	112	2
208	209	2
6	6	2
75	75	3
115	115	3
87	88	2
206	206	3
184	184	1
9	9	5
110	110	6
221	245	1
232	232	3
191	191	1
78	91	1
208	208	6
69	69	3
68	68	4
240	240	2
248	248	4
66	66	5
101	101	3
199	199	1
94	94	3
181	181	5
85	214	1
42	49	1
77	80	2
55	111	1
150	150	1
243	244	2
223	223	5
238	239	1
214	245	1
104	106	2
34	35	1
179	179	2
34	34	2
150	151	1
219	219	6
110	111	3
15	19	2
102	146	2
197	197	3
49	94	1
237	243	1
149	149	1
39	39	5
49	49	1
229	229	2
216	246	2
167	167	6
51	51	2
218	218	5
151	151	3
238	238	2
83	84	1
15	34	1
87	90	1
57	57	5
244	244	2
58	61	1
165	168	1
58	62	1
79	80	2
50	50	2
14	14	2
89	89	4
178	179	2
13	13	1
158	158	4
161	161	4
220	221	3
242	244	1
28	28	1
202	202	4
210	210	3
7	7	3
2	5	1
81	81	2
60	61	1
59	59	4
19	22	1
60	62	2
10	11	3
231	232	2
4	4	4
46	46	4
196	196	2
17	17	1
247	247	3
190	190	1
32	32	4
155	155	3
19	19	2
22	22	7
221	221	3
101	102	2
85	86	3
194	194	2
67	220	1
23	23	2
218	220	2
86	86	1
99	221	1
51	58	1
224	224	1
178	178	4
201	202	1
48	48	1
45	45	2
108	108	3
230	231	2
110	221	1
73	74	2
215	246	1
94	172	1
176	176	2
233	233	2
67	68	2
92	92	2
180	180	1
18	18	2
38	40	2
13	14	2
221	223	1
226	226	3
7	8	1
84	84	2
176	184	1
209	209	1
97	98	3
182	201	2
67	71	4
53	53	2
43	44	1
212	212	1
114	224	1
76	76	1
34	41	1
165	165	1
163	163	2
157	157	1
153	153	2
201	201	3
200	200	1
96	96	2
159	163	2
31	31	2
159	159	2
41	41	2
214	215	2
78	79	2
10	10	2
156	156	8
74	83	1
234	234	3
3	3	1
208	220	1
54	54	4
193	230	2
218	233	1
64	65	1
192	196	1
56	56	1
50	79	1
100	100	3
195	195	2
121	121	1
183	183	2
222	222	1
169	169	2
231	231	3
41	44	1
182	182	1
237	238	1
119	189	1
83	94	1
177	177	2
249	249	1
245	245	2
4	50	1
152	152	1
109	110	1
62	62	1
200	201	1
46	57	1
99	100	1
38	38	2
54	55	2
47	47	2
43	43	2
114	114	1
78	117	2
189	189	1
203	204	1
222	224	1
245	246	2
216	216	1
180	224	2
168	168	3
11	14	1
36	36	2
205	245	1
64	64	3
171	171	2
229	232	1
196	217	1
74	75	2
44	44	1
25	30	1
246	247	1
146	147	3
160	161	2
29	29	1
42	50	1
227	227	2
94	103	1
164	164	1
83	97	1
61	94	1
158	197	1
85	85	2
217	230	1
99	99	2
221	231	1
71	72	1
27	27	2
71	71	2
89	113	2
216	217	1
120	120	1
83	222	1
147	147	2
154	154	2
25	26	2
193	193	1
211	211	1
23	24	1
8	8	1
189	190	1
190	191	1
7	18	1
153	156	1
65	65	1
217	217	1
218	219	1
20	21	1
47	61	1
109	109	1
191	192	2
38	44	1
202	226	1
5	5	3
12	12	2
162	162	2
162	163	1
184	225	1
107	108	1
203	226	1
61	72	1
117	117	1
19	20	1
185	186	1
152	153	1
63	63	1
165	208	1
52	53	1
79	79	2
222	223	1
116	116	1
199	237	1
239	240	1
9	10	1
160	160	1
210	211	1
237	237	2
113	113	3
185	185	2
62	89	1
32	33	1
12	13	1
8	9	1
155	156	1
4	5	1
233	235	1
77	77	2
112	185	1
25	25	1
39	40	1
202	230	1
83	83	1
239	239	1
30	32	1
173	173	1
19	44	1
117	118	2
21	21	1
62	94	1
102	102	2
61	118	1
48	61	1
37	37	1
166	166	2
118	118	1
228	229	2
227	228	1
96	105	1
33	33	1
102	103	1
73	73	1
63	64	1
241	242	1
105	106	1
195	220	1
229	233	1
93	93	1
76	83	1
199	200	1
230	230	1
7	48	1
42	42	1
159	166	1
55	55	1
177	178	1
61	61	1
60	60	1
100	116	1
52	52	1
96	97	1
