35	35	1
71	71	2
60	60	3
83	84	1
81	81	2
117	117	1
57	57	3
147	147	1
126	126	3
92	96	1
1	2	1
86	86	2
113	113	2
90	90	1
77	77	2
9	9	1
9	140	1
133	133	1
156	156	3
63	64	1
23	23	3
14	16	1
130	130	1
73	74	1
96	102	1
108	108	2
114	114	2
148	148	2
0	0	1
52	53	1
58	59	2
73	73	2
1	1	1
62	63	1
3	4	1
17	18	1
26	26	3
116	116	1
98	98	3
54	54	1
132	132	1
88	89	3
169	170	1
50	50	1
4	4	1
157	157	2
154	175	1
66	66	1
79	79	3
166	166	1
153	153	2
85	85	2
16	17	1
127	127	2
10	13	1
20	20	1
75	75	1
18	19	1
51	136	1
163	164	1
68	68	1
17	17	1
63	63	1
92	92	1
8	9	1
131	131	1
42	43	2
170	170	1
174	174	2
8	8	3
43	45	2
22	63	1
58	58	2
84	84	4
14	15	1
142	145	1
137	137	1
21	33	3
127	128	1
15	15	2
60	129	2
74	74	2
148	149	1
147	168	2
99	100	1
103	106	1
67	67	5
166	167	1
82	86	1
126	127	2
51	125	1
90	124	1
39	39	1
169	169	3
133	135	1
59	60	2
10	142	1
82	82	3
104	106	1
170	171	3
159	160	1
51	137	1
10	140	1
163	163	1
56	56	2
6	140	1
94	94	1
151	151	2
150	159	1
59	59	3
105	105	3
82	103	1
176	176	2
89	89	2
167	167	2
159	159	1
134	168	3
135	135	3
141	142	1
91	91	1
173	173	1
100	100	3
39	40	2
96	123	1
144	146	1
25	25	1
138	138	3
162	162	2
101	101	2
59	130	1
71	72	1
178	178	3
133	174	1
3	140	2
30	30	1
40	40	1
55	90	1
125	125	1
87	87	1
64	64	1
42	42	1
24	25	1
155	155	1
30	103	1
7	11	1
145	174	1
174	175	1
96	96	1
44	92	2
41	41	1
86	93	1
146	146	1
24	26	1
118	118	1
44	128	1
134	134	1
143	168	1
88	88	1
42	82	1
51	120	2
102	102	1
11	11	1
168	172	1
134	135	1
31	31	1
38	38	1
45	102	1
84	85	1
104	104	1
113	114	1
74	77	2
118	119	1
122	122	1
108	110	1
112	114	1
78	132	1
149	149	1
151	153	1
162	163	1
161	165	1
12	61	1
146	174	1
177	177	1
72	72	1
26	27	1
33	33	1
21	21	1
165	165	1
36	36	1
109	109	1
83	83	1
151	152	2
179	179	1
8	12	1
60	88	1
43	87	1
11	12	1
99	99	2
43	88	1
