240	240	1
226	226	1
219	219	4
108	109	2
147	150	2
115	117	1
228	228	8
98	98	2
24	24	4
179	182	1
195	195	4
19	19	2
51	123	1
5	5	1
17	17	2
50	52	2
212	212	5
112	117	2
164	165	3
9	9	3
189	189	2
42	42	6
118	118	3
137	138	2
187	187	3
171	171	4
207	208	2
58	58	3
30	30	3
117	117	3
37	37	3
201	201	2
46	97	1
220	220	3
102	102	3
59	59	2
142	143	2
33	162	1
30	74	1
125	126	2
198	198	1
62	64	1
148	148	3
232	233	1
206	206	2
209	209	2
225	225	2
11	11	4
19	36	1
49	49	3
58	59	1
203	207	1
64	64	2
141	179	1
25	25	3
106	106	1
218	218	1
219	220	1
222	224	1
21	42	2
73	74	1
162	162	5
208	208	5
23	23	1
154	154	3
164	164	1
73	73	1
45	46	1
61	62	1
143	147	2
186	187	1
80	81	1
204	208	1
22	22	1
12	12	6
237	237	2
30	98	2
61	61	5
181	187	1
78	78	4
52	53	2
84	85	2
99	99	2
29	29	4
242	242	2
103	107	1
45	45	2
157	157	3
159	202	1
143	156	2
96	96	1
36	36	1
74	74	4
160	160	3
60	60	5
29	235	1
10	10	3
107	107	2
52	54	2
232	232	1
193	193	3
107	238	1
180	182	1
99	100	2
132	132	1
163	168	2
223	223	1
6	6	2
50	50	1
77	134	1
40	167	2
109	121	2
210	223	1
1	67	4
97	98	1
200	200	3
142	142	1
120	121	2
224	225	2
157	158	1
69	69	5
44	47	1
72	72	1
235	235	1
202	202	2
116	118	1
175	175	2
40	40	2
7	39	1
185	185	2
17	18	1
7	7	2
101	119	1
127	127	2
161	161	3
197	197	3
230	231	1
186	188	1
83	84	2
85	85	5
120	120	2
43	43	3
86	86	2
123	123	5
23	194	1
213	214	4
63	64	1
22	49	1
200	202	3
34	134	1
205	205	1
119	119	4
62	62	3
29	30	2
233	233	2
161	164	1
4	5	1
69	70	1
137	137	3
84	84	2
11	39	1
225	226	1
20	20	5
188	188	1
15	15	2
241	241	2
81	82	1
7	24	1
18	18	2
83	83	1
33	33	1
158	158	2
121	121	2
210	221	1
140	140	3
65	65	3
28	28	2
163	163	1
116	117	1
161	189	1
46	46	5
224	224	2
149	149	2
208	209	1
79	155	2
141	141	2
26	26	2
158	159	1
38	38	1
39	39	2
160	169	1
31	31	4
41	41	2
163	164	2
239	240	1
179	180	1
111	111	2
186	189	1
191	191	1
177	178	1
114	114	1
191	216	2
12	13	2
151	151	1
134	134	1
236	237	1
174	174	2
26	128	1
0	0	1
191	218	1
158	160	1
237	240	1
13	15	1
116	116	2
216	216	3
135	137	2
215	215	2
77	77	2
82	83	1
55	65	2
60	63	1
2	16	1
139	139	2
150	152	1
128	159	1
75	75	3
152	152	2
209	226	1
150	150	1
27	203	1
155	156	1
239	239	1
2	73	1
55	55	2
146	147	1
147	147	1
56	56	3
81	81	2
48	48	1
159	159	1
191	192	1
62	63	1
176	177	2
155	155	2
226	227	1
104	104	3
222	222	1
135	153	1
101	101	2
135	135	1
32	32	2
168	168	4
142	178	1
208	219	1
199	201	1
119	125	1
52	52	1
10	13	1
199	210	1
38	39	1
180	181	1
118	119	1
175	227	1
30	64	1
162	163	1
175	204	1
174	175	2
184	187	1
8	8	2
143	143	1
148	149	1
105	105	2
221	221	1
21	21	2
17	32	1
18	61	1
34	35	1
184	184	2
190	190	3
54	54	1
139	144	1
138	138	2
233	234	1
146	146	2
13	56	1
33	48	1
220	224	1
56	80	1
193	194	1
203	203	2
51	51	1
209	210	1
99	102	1
1	201	1
205	206	2
213	213	1
156	157	1
149	152	1
109	218	1
178	227	1
227	227	2
35	35	2
9	110	1
11	68	1
202	203	1
231	232	1
159	184	1
231	231	1
71	71	1
227	228	1
125	125	2
76	76	1
2	2	1
122	122	1
40	41	2
86	120	1
56	67	1
177	177	1
44	157	1
140	141	1
12	19	1
136	136	1
0	16	1
145	145	1
90	115	1
129	136	1
112	113	1
199	208	1
50	160	1
192	192	1
1	13	1
113	114	1
144	145	1
3	3	2
9	10	1
210	229	1
46	48	2
47	47	1
79	80	1
217	217	1
0	2	1
133	139	1
141	165	1
104	105	1
185	188	1
160	216	1
132	135	1
242	243	1
57	57	1
144	148	1
95	106	1
74	137	1
36	138	1
103	104	1
235	236	1
148	195	1
121	134	1
2	15	1
55	56	1
167	167	1
16	16	1
178	178	1
113	113	1
108	108	1
68	70	1
158	180	1
190	204	1
17	19	1
80	80	1
57	60	1
211	223	1
191	217	1
111	133	1
15	16	2
