109	109	3
96	96	3
105	121	2
54	55	3
28	28	1
74	87	1
48	49	1
21	21	1
107	108	2
136	139	3
59	80	1
99	99	5
76	76	1
76	88	1
43	52	1
42	42	2
97	97	2
69	71	2
27	61	2
92	101	1
8	9	2
81	81	4
26	26	3
94	142	1
8	8	5
94	113	1
127	127	3
124	124	6
90	92	1
96	97	2
27	27	3
75	108	2
89	90	1
31	56	3
134	134	4
78	79	2
37	50	1
42	66	1
113	113	1
65	65	1
86	86	6
104	104	1
106	113	1
117	139	1
142	142	3
68	68	1
19	30	1
37	38	5
133	133	2
114	114	4
26	90	1
88	89	3
41	134	1
79	132	2
84	84	6
131	131	3
105	105	2
80	80	2
30	63	1
25	25	2
24	24	3
82	90	1
70	70	3
33	98	1
37	37	5
97	111	1
17	42	1
105	106	1
75	75	3
13	19	1
95	96	2
135	135	2
34	34	2
36	57	3
136	137	2
141	141	4
98	102	2
25	33	1
52	134	1
78	78	2
109	111	2
138	139	3
145	145	1
92	115	1
90	90	6
137	138	1
39	39	3
110	111	3
74	74	3
83	83	3
37	43	1
57	60	1
13	14	1
131	133	1
21	139	1
65	98	2
129	131	3
119	119	2
32	60	1
18	18	4
111	111	2
89	89	1
121	123	1
63	122	1
52	52	1
60	61	2
137	137	1
15	16	1
41	41	7
48	48	1
62	63	1
102	103	2
126	126	2
9	9	2
20	29	1
54	54	1
56	56	1
35	35	3
93	93	3
0	0	1
49	49	2
106	107	2
120	121	1
94	111	1
25	86	1
10	11	2
50	54	1
109	110	1
142	143	1
80	81	1
43	43	1
34	63	1
1	13	2
112	112	1
17	17	3
65	66	1
138	138	1
73	73	2
103	103	1
75	76	3
118	118	2
144	144	3
124	125	1
12	63	2
16	130	1
5	5	2
19	19	2
67	99	2
92	94	1
105	109	1
120	120	4
139	139	4
93	96	1
14	16	3
72	87	2
130	130	1
62	62	2
42	135	1
92	92	3
29	29	1
85	85	3
81	82	2
55	55	2
54	67	1
17	18	1
71	72	1
87	87	2
113	122	1
140	140	2
50	50	1
86	87	1
32	33	1
57	57	2
23	23	2
16	17	1
13	13	2
32	32	1
103	104	1
3	4	1
62	65	1
121	121	1
33	96	1
82	82	2
111	116	1
17	56	1
100	100	1
35	92	1
30	31	1
94	115	1
112	113	1
2	3	1
114	119	2
26	91	1
3	5	1
64	65	1
112	136	1
30	30	1
10	10	1
11	11	1
23	25	1
33	62	1
16	16	2
58	121	1
128	128	2
128	129	1
82	83	1
36	62	1
103	124	1
136	136	1
47	48	1
58	63	1
91	91	1
122	122	4
146	146	1
26	30	1
20	125	1
51	51	1
15	129	1
22	22	1
20	21	1
87	89	1
83	114	1
59	97	1
41	42	1
21	140	1
79	79	1
