126	127	1
16	16	2
73	73	4
130	130	3
29	29	3
68	68	3
99	102	1
100	100	1
3	5	1
44	44	2
28	28	7
66	66	4
115	115	2
10	12	1
16	17	1
63	63	2
15	26	1
102	114	1
19	20	3
35	35	5
93	95	1
72	72	3
122	122	2
49	100	1
107	107	3
77	132	1
19	19	3
88	97	2
14	14	3
23	23	4
1	1	3
82	82	3
84	84	2
70	70	3
3	3	4
91	91	4
75	75	5
38	38	4
85	90	1
46	47	1
95	95	2
114	114	2
114	126	2
127	127	3
117	117	3
15	16	3
12	12	4
46	46	1
11	55	1
4	5	1
110	110	1
98	98	6
85	86	1
64	65	1
79	79	2
34	77	1
79	80	1
115	116	2
121	122	1
22	25	1
58	58	2
15	15	1
62	62	2
79	84	1
59	59	5
77	79	1
33	33	6
74	74	3
41	41	3
27	35	1
93	93	3
108	109	1
4	38	1
22	22	1
98	99	2
18	33	1
112	112	1
32	43	1
103	103	1
38	43	2
125	125	6
39	42	1
9	10	1
31	31	1
26	26	2
129	129	1
83	84	3
8	8	2
73	74	1
109	110	2
34	34	3
83	83	3
12	43	2
89	89	1
111	111	1
101	101	3
10	76	1
24	24	4
22	31	1
108	108	2
126	129	1
116	116	4
60	60	3
110	111	1
21	36	1
119	120	1
28	30	2
15	55	1
80	88	1
55	55	3
27	37	1
30	30	2
89	107	1
2	34	1
17	88	1
106	106	3
20	20	2
109	109	2
73	75	1
56	56	1
21	21	1
134	134	3
95	105	1
91	99	1
105	124	2
81	84	1
81	81	1
18	93	1
112	113	1
62	110	1
129	131	1
92	93	2
102	110	2
78	109	1
96	113	1
27	28	2
85	85	2
87	88	1
18	18	1
83	86	1
6	15	1
57	57	2
81	82	1
11	11	1
77	78	3
118	118	3
7	7	2
25	25	1
43	106	1
120	121	1
40	40	1
69	69	2
37	37	1
26	97	1
74	75	1
124	124	1
104	104	5
5	5	2
55	81	1
92	92	2
126	126	1
67	67	1
50	50	2
30	37	1
5	43	1
110	112	1
33	36	1
94	94	3
113	125	1
64	64	2
25	29	1
66	67	1
100	116	1
11	12	2
76	76	2
81	107	2
126	133	1
124	129	1
101	104	2
40	82	1
121	121	1
97	98	1
23	79	1
114	122	1
91	102	1
1	4	1
48	48	2
13	14	1
32	32	1
36	36	1
97	97	3
12	56	1
47	64	1
96	96	1
1	7	2
90	90	1
20	39	1
102	102	1
27	27	1
94	97	1
41	42	1
34	35	1
86	86	1
68	70	1
37	38	1
6	6	1
39	40	2
24	25	1
45	45	2
29	31	1
14	109	1
11	31	1
9	9	2
2	2	1
8	9	1
119	119	1
62	118	1
38	41	1
104	106	1
96	99	1
116	117	1
49	55	1
128	130	1
26	27	1
103	104	1
