153	154	2
45	45	4
14	14	4
21	21	2
107	107	2
94	95	2
79	162	1
53	54	2
2	2	3
78	78	3
73	73	1
130	147	1
10	56	3
121	158	2
147	148	1
22	22	3
67	77	1
94	145	1
169	169	3
150	150	2
62	62	1
117	125	1
3	3	5
112	115	1
136	136	4
6	37	1
66	66	1
122	122	3
10	12	2
70	72	1
94	94	5
57	80	2
20	20	1
81	81	2
167	167	2
125	125	1
120	145	1
6	137	1
157	157	2
21	22	1
75	75	3
4	138	1
145	145	3
127	127	3
6	7	3
51	53	2
83	84	1
35	35	2
168	170	1
153	153	1
74	74	1
109	109	2
88	110	1
111	112	1
77	80	1
117	126	1
79	81	2
76	76	3
80	80	3
52	53	1
42	42	2
71	71	1
64	69	1
143	146	1
1	1	3
142	142	2
123	156	1
22	23	1
90	90	2
119	119	4
152	152	1
101	110	2
135	136	2
118	118	1
108	108	2
97	126	1
36	36	1
57	64	1
116	125	2
99	114	2
47	47	2
115	115	3
131	136	1
65	111	2
62	82	1
123	123	1
54	55	6
91	93	2
110	111	2
12	12	2
163	163	3
38	38	2
57	57	2
82	82	1
67	85	3
63	65	1
82	116	1
127	128	2
143	144	3
137	137	4
96	103	1
6	43	1
147	150	1
91	92	1
140	141	1
132	135	1
112	152	2
85	85	1
14	152	2
40	40	2
47	71	1
89	90	1
161	161	1
9	10	1
162	162	1
93	93	3
124	128	1
54	56	1
146	146	1
90	91	2
27	27	2
159	160	1
141	141	2
111	159	1
24	74	1
148	152	1
66	68	4
136	157	2
163	164	2
13	82	1
35	159	1
147	147	1
108	116	1
132	132	2
55	57	1
123	133	1
143	166	1
44	68	2
11	11	2
69	145	1
84	97	1
159	159	1
150	151	1
52	56	2
86	101	1
62	73	1
64	80	2
63	63	1
82	101	2
133	134	1
49	50	1
160	167	1
47	48	3
68	160	1
108	110	1
115	168	1
48	48	3
39	39	2
2	96	1
27	155	1
9	75	2
106	106	1
109	126	1
6	6	2
164	164	3
5	5	5
4	39	2
43	66	1
25	26	1
15	15	8
138	138	1
54	54	2
80	82	1
34	35	1
1	90	1
66	67	2
157	158	1
139	156	1
128	140	1
42	55	2
130	130	3
41	42	1
50	50	2
15	20	3
139	141	1
11	12	2
126	127	2
24	42	1
156	157	1
104	104	1
168	169	1
12	16	1
164	165	1
24	140	1
67	67	2
112	113	1
85	86	1
111	111	1
102	102	1
3	4	2
83	99	1
66	108	1
95	96	1
138	168	1
149	150	1
17	17	1
37	38	1
34	34	2
56	56	5
52	52	1
92	92	2
106	112	1
107	109	2
69	69	1
161	165	2
140	140	1
20	21	1
36	56	1
57	63	1
41	41	3
133	133	1
128	131	1
23	23	2
127	153	1
151	151	1
117	135	1
170	170	1
88	88	2
24	26	1
72	72	1
37	37	2
4	4	1
101	104	1
24	24	2
110	110	1
45	46	1
20	22	1
121	124	1
143	143	2
92	93	1
67	69	1
79	79	1
105	105	1
50	52	1
82	98	1
24	53	1
120	121	1
105	113	1
97	97	2
67	79	1
121	121	1
57	69	1
87	87	2
129	142	1
58	77	1
53	53	2
91	104	1
65	72	1
49	76	1
108	109	1
21	39	1
65	66	1
47	50	1
0	5	1
6	156	1
44	64	1
137	138	1
45	53	1
112	112	2
162	165	1
84	84	1
0	0	1
55	56	1
23	24	3
135	137	1
8	8	1
103	140	1
144	144	1
100	100	1
91	94	1
14	15	1
151	155	1
105	106	1
26	26	1
126	132	2
105	112	1
143	167	1
158	159	1
76	83	1
44	44	1
58	58	1
81	118	2
11	13	1
42	43	1
51	51	2
65	108	1
125	126	1
96	97	1
4	11	1
165	165	1
40	69	1
54	75	1
20	114	1
156	156	1
114	114	1
13	13	1
154	155	1
18	18	1
20	34	1
116	116	1
88	90	1
129	136	1
33	90	1
0	2	1
27	28	1
149	149	1
