94	94	4
5	5	3
142	143	3
38	39	1
87	87	1
124	124	1
84	84	6
185	185	4
99	177	1
109	109	4
71	71	1
174	178	1
68	76	1
26	26	3
183	183	1
128	128	1
4	4	2
66	66	1
133	133	1
183	189	1
25	25	8
114	141	1
58	94	1
102	103	1
7	8	2
119	119	3
21	22	1
16	17	2
139	140	1
6	6	1
141	141	1
121	121	3
183	184	1
61	62	1
86	86	6
12	23	1
78	78	2
101	101	3
154	155	1
136	190	1
11	11	1
47	47	3
122	122	4
39	39	2
128	169	1
163	163	2
91	91	3
118	118	1
120	120	1
186	186	1
68	80	1
30	30	2
118	119	1
157	160	2
135	186	1
18	18	5
83	84	1
72	72	5
114	114	2
139	184	1
68	68	3
65	65	1
44	44	1
105	173	1
162	162	2
89	90	4
28	36	1
89	94	1
98	98	1
171	171	2
47	114	2
37	37	4
160	160	2
56	56	1
181	182	1
144	151	1
146	146	1
153	153	1
187	190	1
110	115	1
20	36	1
67	67	1
127	128	3
139	139	1
153	154	1
17	20	1
158	158	1
100	100	3
156	156	2
74	74	2
53	53	4
77	77	2
150	151	1
144	144	2
95	95	2
10	11	2
60	60	1
139	144	1
11	39	1
97	97	1
34	34	1
2	2	2
83	83	3
133	135	1
178	178	2
16	16	2
10	10	1
37	38	2
121	171	1
124	152	1
88	104	1
21	21	1
4	36	1
105	105	3
25	36	1
155	184	1
174	174	3
113	114	1
166	166	1
75	76	1
131	131	2
125	126	1
20	23	1
57	73	1
19	60	1
43	43	3
113	113	4
97	161	1
36	36	1
96	96	2
81	82	1
8	8	1
0	0	1
102	123	1
57	71	1
136	174	2
130	149	1
101	160	1
13	24	1
103	103	2
112	112	1
143	148	1
29	29	5
122	123	1
77	78	1
155	156	1
167	167	1
40	40	2
90	90	3
111	149	1
137	138	1
61	63	1
141	156	2
172	172	2
23	23	2
131	171	1
42	47	1
107	146	1
166	168	1
42	42	1
157	159	1
117	118	2
28	29	1
113	165	1
30	34	2
80	80	1
160	161	1
3	3	2
175	175	1
33	81	1
126	183	1
152	153	1
113	123	1
7	7	1
99	99	2
142	147	1
129	129	1
145	160	1
12	12	2
59	59	1
150	150	1
145	145	1
30	31	1
148	148	1
123	123	1
57	57	1
176	176	1
1	1	1
158	159	1
140	140	1
20	29	1
159	161	1
46	46	1
142	142	2
136	136	1
131	143	1
9	38	1
30	46	1
188	188	1
138	178	1
41	41	1
79	80	1
2	3	1
88	88	1
159	159	1
84	85	1
187	188	1
7	10	1
73	73	1
169	188	1
172	173	1
14	89	1
13	13	1
138	148	1
116	116	1
17	28	1
84	139	1
72	87	1
31	31	1
31	35	1
110	110	1
106	106	1
179	179	1
134	134	1
109	117	1
88	105	1
189	189	1
27	28	1
