98	98	3
99	99	7
116	116	7
68	68	2
44	44	2
111	112	1
24	25	2
36	36	5
85	85	5
82	86	2
59	59	6
110	111	3
25	25	3
87	88	6
108	110	1
134	134	1
91	91	5
18	18	5
34	34	7
30	50	1
7	7	2
64	64	4
8	8	3
32	35	1
126	126	3
22	22	11
94	97	1
118	118	2
55	57	1
37	38	1
61	66	1
37	37	3
15	15	5
65	65	2
19	21	3
12	12	4
29	29	2
23	44	1
19	19	2
60	61	1
50	51	1
115	116	2
114	115	2
5	5	7
84	118	3
75	102	1
104	104	5
17	17	2
125	125	4
4	55	1
96	96	2
29	87	2
128	128	7
61	61	1
76	76	6
32	32	2
50	52	1
53	57	1
46	46	2
101	101	2
53	119	2
44	45	2
113	113	3
108	132	1
119	119	6
50	50	5
108	109	1
27	27	1
63	63	1
22	57	1
27	117	1
92	92	3
96	98	2
68	87	2
85	86	1
79	79	3
5	60	1
115	115	6
36	61	1
28	28	4
49	50	2
26	27	5
109	128	1
119	120	2
25	53	3
95	95	7
4	4	2
3	3	1
122	122	3
26	26	5
55	88	1
93	94	1
71	72	2
74	74	7
55	56	3
1	1	5
102	102	3
52	52	6
124	124	2
14	14	2
84	85	3
112	112	8
56	63	1
133	134	1
116	123	1
113	127	1
30	30	4
108	108	10
3	4	1
54	57	2
24	24	3
70	70	6
82	82	2
83	83	3
90	90	1
78	101	2
121	121	4
25	76	1
83	95	1
129	134	1
33	69	2
32	63	1
47	48	2
56	109	1
6	7	2
120	120	7
124	125	1
20	22	1
79	101	1
97	112	1
77	77	3
6	6	3
59	86	2
26	123	1
2	25	2
18	28	2
78	103	1
21	21	3
117	123	1
105	105	4
24	52	1
23	56	2
8	9	2
109	113	1
0	0	3
111	111	3
89	89	2
57	58	1
123	123	4
79	99	1
107	107	2
3	7	1
67	67	5
110	110	1
59	60	1
97	100	1
55	94	1
97	126	2
45	45	3
53	53	3
9	30	1
53	116	1
107	108	2
118	120	2
8	57	2
129	129	2
13	13	1
126	127	2
10	10	4
48	48	1
26	29	1
107	117	1
123	125	1
35	35	1
87	135	3
12	18	1
87	87	1
55	55	1
72	72	5
95	96	1
77	135	1
127	128	2
109	109	7
53	56	1
80	126	1
54	55	1
80	80	3
72	73	2
112	113	2
78	111	2
28	29	1
11	11	3
66	66	5
7	54	1
9	25	2
20	20	2
15	19	1
97	97	2
9	10	1
117	118	1
69	69	3
63	116	1
23	23	5
133	133	1
92	93	1
43	45	1
52	59	1
59	66	1
128	129	1
89	90	1
28	113	2
96	99	1
26	134	1
57	108	1
27	118	2
132	132	3
130	135	1
56	129	1
108	111	1
16	16	3
32	60	2
71	71	3
117	124	1
75	75	2
130	130	4
31	33	1
9	9	1
70	134	1
35	98	1
88	88	1
56	56	2
89	94	1
115	129	1
69	78	1
77	95	1
94	94	1
33	34	1
76	126	1
84	84	3
73	73	2
100	100	3
25	55	1
3	67	1
115	128	1
131	131	2
34	62	1
33	33	2
81	81	2
117	121	1
110	114	1
38	38	1
57	117	1
2	15	1
74	104	1
42	43	1
64	129	1
78	79	1
51	51	1
91	92	1
70	71	1
15	16	1
127	127	1
106	106	5
10	25	1
31	31	2
96	105	1
30	31	1
65	71	1
90	91	1
62	63	2
67	69	1
45	46	1
127	129	1
124	129	1
86	91	1
82	91	2
1	45	1
82	110	1
4	56	1
86	86	2
27	28	1
77	100	1
7	76	1
60	72	1
3	23	1
18	63	1
8	17	1
82	129	1
7	22	1
21	26	1
31	32	2
94	98	2
24	57	1
78	80	1
76	85	1
38	67	1
56	111	1
64	65	1
106	119	1
57	57	1
56	57	1
93	93	1
69	91	1
78	113	1
66	96	1
59	117	1
16	17	1
116	117	1
81	82	1
16	45	1
80	81	2
129	132	1
125	127	1
27	104	1
32	33	1
117	130	1
13	112	1
96	97	1
28	44	1
57	62	1
130	131	1
104	126	1
18	19	2
22	65	1
10	11	1
1	24	1
61	90	1
58	60	1
78	78	1
129	130	1
35	78	1
107	109	1
109	110	1
116	118	1
113	114	1
33	36	1
9	11	1
119	124	1
65	66	1
