34	34	3
6	6	2
137	137	1
33	34	1
6	7	2
142	143	1
133	134	1
47	48	1
118	118	1
125	125	2
85	86	1
154	154	3
5	5	3
151	151	3
10	10	2
107	107	1
26	26	2
141	141	4
39	39	3
124	127	1
115	115	5
88	88	2
101	101	1
49	49	1
29	29	2
3	3	5
133	149	1
135	136	2
131	131	3
42	72	1
63	63	1
15	21	1
79	79	1
73	73	5
64	64	4
85	85	1
120	120	1
134	134	1
83	83	2
37	43	1
19	19	3
112	123	1
121	145	1
27	76	1
42	42	1
31	31	2
20	26	1
3	65	1
21	21	2
27	29	1
95	105	1
15	16	1
142	142	2
109	109	1
76	77	1
23	23	1
76	76	2
38	38	4
22	22	2
68	68	2
105	105	1
18	19	1
146	154	1
41	51	2
123	123	2
126	126	3
82	98	2
12	12	1
54	54	3
5	18	1
124	147	3
106	106	4
17	17	1
30	30	2
117	118	1
139	140	1
119	126	1
128	128	1
71	71	2
19	50	1
74	74	1
116	116	2
109	110	1
124	138	1
46	46	3
128	151	1
75	75	1
24	24	1
38	40	1
14	85	1
16	16	1
132	132	1
9	10	2
37	101	1
13	40	1
4	4	1
16	25	1
11	11	3
146	146	1
25	27	2
84	84	2
37	37	3
68	117	1
31	32	2
66	66	2
123	130	1
80	80	1
37	51	1
145	145	2
38	39	1
84	85	1
78	85	1
129	130	1
12	13	1
44	44	1
71	137	1
8	8	2
25	77	1
113	119	1
47	47	4
47	50	1
131	132	1
5	56	1
14	14	1
86	98	2
40	40	2
20	20	1
22	23	1
41	70	1
107	117	1
102	102	4
153	153	1
137	138	1
31	47	1
94	94	1
104	104	1
133	144	1
36	37	2
100	100	2
97	97	2
65	66	1
41	42	3
119	138	1
15	24	1
48	48	1
37	52	1
78	79	2
116	136	1
77	77	1
140	140	2
124	125	2
87	87	1
32	32	1
69	70	1
28	28	2
147	148	2
75	81	1
8	17	1
41	41	1
117	117	3
132	133	1
49	50	1
103	109	1
124	126	2
136	136	2
131	133	1
113	114	1
122	122	1
23	25	1
70	70	2
36	36	4
58	58	1
147	147	1
44	93	1
123	146	2
15	112	1
150	152	1
113	146	1
56	56	1
118	150	1
120	122	2
111	115	1
24	103	1
98	98	1
25	109	1
129	129	1
15	15	1
9	9	1
46	47	1
69	125	1
67	68	1
133	133	2
27	35	1
27	27	1
108	109	1
149	149	2
138	138	1
127	144	1
32	87	1
17	19	1
21	66	1
112	112	1
113	113	1
36	49	1
18	18	1
23	24	1
138	141	1
69	69	1
62	87	1
53	69	1
99	100	1
93	94	1
68	69	1
73	76	1
43	43	1
130	130	1
121	123	1
114	114	1
131	153	1
82	82	1
90	115	1
96	103	1
34	68	1
