47	52	1
90	91	3
161	163	2
144	144	4
107	107	2
10	47	2
130	130	1
81	82	1
159	159	1
86	86	1
120	121	1
71	149	1
1	90	2
163	163	3
126	126	2
130	131	1
25	52	2
86	95	1
114	116	1
129	129	3
14	17	2
22	22	2
118	118	5
155	157	1
139	139	2
143	143	6
156	156	1
80	80	1
43	43	2
137	137	1
66	67	2
23	23	3
54	54	2
154	155	2
73	73	3
85	117	1
150	151	5
10	22	1
68	68	5
134	134	1
100	143	1
56	93	1
136	136	5
15	35	1
103	103	2
109	109	3
162	163	1
140	140	1
138	138	2
118	160	2
7	7	4
21	25	1
90	90	3
143	144	1
120	120	2
63	70	3
11	82	1
83	105	1
94	94	2
79	81	1
88	88	1
113	114	1
40	40	4
98	98	3
21	22	5
123	124	2
137	138	1
4	9	1
105	105	1
121	122	1
163	165	1
49	55	2
138	139	2
19	67	2
166	166	2
81	81	1
78	83	2
45	45	1
22	65	2
70	71	1
11	54	1
26	26	3
82	84	1
50	50	1
17	17	3
134	142	1
96	97	3
64	64	2
67	67	1
112	128	1
8	47	1
154	154	3
160	168	1
91	94	1
152	152	1
150	170	1
57	58	1
34	34	1
129	146	1
86	87	1
133	133	4
82	117	1
11	94	1
129	131	1
100	145	1
23	66	1
17	18	1
93	93	2
16	16	3
8	10	1
113	113	3
82	82	2
13	13	3
46	47	1
170	170	3
100	124	2
74	76	1
41	41	1
12	13	2
49	49	1
52	152	1
99	99	1
168	168	2
47	47	1
124	144	1
64	66	1
152	153	1
37	152	1
106	106	3
161	162	1
49	154	2
21	23	1
6	24	1
117	117	1
53	53	1
87	87	1
26	74	1
56	56	2
83	83	2
127	127	1
119	121	2
17	87	1
96	132	1
1	22	1
81	121	1
124	124	2
149	149	2
19	19	1
21	21	1
91	96	1
75	76	1
28	83	1
18	19	1
0	0	1
107	116	1
103	125	1
20	23	1
105	106	2
63	63	1
79	90	1
112	112	1
129	130	1
151	159	1
63	69	1
101	101	1
132	132	1
82	83	1
70	70	1
111	111	1
64	92	1
158	158	1
102	131	1
167	167	1
105	145	1
38	38	1
119	126	1
25	151	1
48	48	2
55	56	2
2	3	1
100	121	1
105	115	1
24	24	1
118	119	1
107	108	1
49	51	1
78	86	1
114	114	2
103	105	1
44	45	2
128	129	2
109	110	1
62	112	1
149	155	1
97	104	1
76	84	1
57	57	1
19	22	1
18	163	1
2	2	2
114	118	1
77	80	1
82	104	1
65	67	1
86	114	1
110	118	1
37	38	1
53	57	1
131	146	1
15	15	1
76	76	1
35	35	1
97	98	1
145	149	1
93	95	1
132	144	1
128	128	2
18	25	1
8	8	1
52	52	1
18	21	1
100	126	1
87	166	1
169	169	1
