157	158	3
50	50	4
5	15	1
134	136	1
21	21	7
53	55	2
39	39	4
136	136	4
162	165	2
65	65	1
151	151	6
150	155	2
83	83	2
168	169	1
117	117	1
158	166	1
1	1	2
62	64	2
98	98	2
150	151	4
34	34	6
167	167	4
78	78	4
156	157	2
67	67	3
47	47	2
53	53	7
64	85	1
161	161	3
154	154	5
123	124	1
13	13	2
38	38	6
0	1	1
88	88	4
105	105	2
111	111	3
15	15	4
135	135	3
8	9	1
106	107	1
90	91	2
20	21	2
76	77	2
81	81	2
41	41	2
99	99	6
54	54	5
51	69	1
97	99	1
121	122	1
114	114	7
87	90	1
51	80	1
142	142	1
19	19	6
102	102	2
14	14	4
133	134	3
85	85	6
22	22	3
80	80	2
130	144	1
155	155	7
88	93	1
16	16	2
104	105	2
141	152	1
35	35	4
163	163	4
144	145	3
9	9	3
136	137	2
52	52	2
5	5	4
35	43	1
91	91	4
162	162	3
79	80	3
145	145	5
94	95	2
74	96	2
33	35	1
46	46	1
100	125	1
87	87	2
164	165	3
33	33	2
164	164	3
8	8	6
4	4	2
80	81	2
150	150	2
63	71	1
48	49	6
7	10	1
74	74	3
140	141	2
112	112	1
3	14	1
1	2	2
108	109	4
108	108	3
56	56	4
92	104	1
52	53	1
89	89	4
71	71	3
117	120	2
40	40	5
168	168	5
39	40	2
51	51	3
62	62	3
44	44	4
159	167	2
21	22	1
83	85	2
140	140	3
19	49	1
65	169	1
50	81	2
20	25	1
105	106	2
21	23	1
138	138	3
9	127	1
144	149	2
100	100	5
2	13	1
158	158	4
66	66	4
11	11	4
113	130	1
82	82	3
70	72	1
76	76	2
13	44	1
141	141	2
16	17	1
120	121	1
35	36	1
48	48	3
153	154	1
42	42	3
27	27	5
23	154	1
42	43	1
7	7	7
46	48	3
137	138	1
11	16	1
119	119	1
115	115	3
154	155	2
43	43	5
17	17	2
157	157	2
18	49	1
119	120	1
68	68	2
123	123	2
137	137	4
92	102	1
127	130	2
146	166	1
12	12	3
55	55	1
26	26	1
57	62	1
116	116	4
72	72	4
25	26	1
37	52	2
141	142	1
124	124	1
139	144	1
113	113	2
156	156	4
25	25	4
84	84	4
149	159	1
28	80	3
10	14	1
69	77	1
86	124	1
17	19	1
45	45	3
122	136	1
150	154	1
36	36	1
81	96	1
147	148	1
142	144	3
23	23	2
147	153	1
148	149	1
10	11	2
94	94	3
93	97	1
26	149	1
14	15	1
49	50	4
106	106	1
153	153	2
39	72	1
77	78	1
34	35	3
37	37	3
130	130	3
125	126	1
94	120	2
58	63	1
76	82	1
144	144	3
96	96	2
133	133	4
132	132	4
103	166	1
125	125	4
107	131	1
75	75	1
103	103	1
10	79	1
149	151	1
93	93	2
115	136	1
86	86	2
6	7	3
77	77	3
70	70	2
152	152	4
170	170	2
143	143	1
6	6	3
11	74	1
57	71	1
73	73	3
20	20	2
127	160	1
35	48	1
10	10	1
110	110	1
62	117	1
24	25	2
117	132	1
65	66	2
165	165	2
113	114	1
25	39	1
49	49	1
81	82	2
44	45	1
130	139	1
116	119	1
63	77	1
169	169	2
97	98	2
28	101	1
69	82	1
25	36	1
120	120	4
128	133	1
63	82	2
3	3	1
98	99	3
90	153	1
159	159	2
0	0	1
69	69	1
71	122	1
9	166	2
110	111	2
69	70	1
118	118	1
13	15	2
27	55	1
119	123	1
160	160	3
128	128	2
107	107	1
106	111	1
20	23	1
86	99	1
127	129	1
130	134	1
16	20	1
78	79	1
42	52	1
154	158	1
126	127	1
99	103	2
134	135	1
49	55	1
8	19	1
2	170	1
24	83	1
25	151	1
80	82	1
3	41	1
85	86	1
24	81	1
12	15	1
7	8	2
38	39	1
92	92	1
63	67	1
121	165	1
21	24	1
97	97	1
166	168	1
84	97	1
18	19	1
67	70	1
39	41	1
146	146	1
43	44	1
121	131	1
88	95	1
99	128	1
149	149	1
146	165	1
55	68	1
38	56	1
113	163	1
159	160	1
161	162	2
95	99	1
36	37	1
134	134	1
145	153	1
19	121	1
130	136	1
166	166	1
92	114	1
44	52	1
79	79	1
28	28	1
64	77	1
168	170	1
119	121	1
161	168	1
163	164	1
74	76	1
109	109	1
144	165	1
103	104	1
127	127	1
89	90	1
125	127	1
12	13	1
46	47	1
47	48	1
64	64	1
19	26	1
26	27	1
149	160	1
90	90	1
