11	11	2
70	116	2
62	62	7
7	98	2
48	129	1
130	131	2
44	134	1
63	63	2
92	92	1
110	111	3
117	117	5
27	27	4
87	87	1
64	64	5
25	25	1
61	61	5
21	26	4
119	119	3
73	73	2
83	127	1
120	120	3
1	11	2
74	88	1
16	18	1
109	109	1
15	26	3
123	124	1
21	21	1
55	55	2
111	131	1
112	112	4
35	35	4
28	28	2
105	114	1
101	105	1
89	92	2
100	106	1
44	47	1
20	20	1
48	49	1
71	115	1
121	121	2
87	92	1
1	2	1
91	91	1
133	133	2
88	88	2
21	37	1
108	108	4
76	128	1
98	98	5
90	90	1
107	107	1
10	10	3
64	119	1
96	96	2
33	62	1
134	134	3
59	59	1
125	125	2
65	65	1
12	15	1
106	112	1
106	106	3
123	123	2
16	16	3
3	107	1
1	62	1
75	75	3
76	76	1
81	96	1
78	93	1
23	42	1
7	11	1
129	129	1
14	15	1
24	25	1
104	104	3
71	86	1
19	19	2
108	113	1
115	115	1
67	68	1
9	9	1
24	24	2
27	85	1
27	37	1
90	95	1
14	14	2
40	40	1
26	28	1
83	83	3
106	110	3
78	79	1
78	78	4
69	77	1
62	70	2
40	96	1
86	86	2
57	58	1
85	85	1
18	18	1
5	5	1
38	38	1
112	113	2
47	115	1
60	82	2
20	21	1
30	86	1
26	26	1
105	106	1
105	105	1
110	110	1
45	45	1
47	47	2
22	23	1
33	130	1
116	116	2
34	35	2
0	62	1
96	119	1
112	132	1
127	129	1
41	55	3
122	131	1
2	18	1
0	0	2
61	73	1
30	31	1
81	104	2
110	112	1
113	113	1
59	62	1
88	89	1
130	130	2
47	64	1
25	26	1
125	132	1
123	130	1
69	69	1
23	24	1
114	114	1
82	82	2
45	48	1
12	97	1
93	93	2
71	71	1
40	93	1
22	26	1
15	16	2
26	85	1
111	116	1
17	18	1
33	33	1
108	125	1
4	5	1
70	70	1
55	66	1
43	43	1
100	100	1
0	67	1
32	55	2
56	56	1
103	104	2
4	4	1
124	124	2
84	85	1
34	34	1
74	74	1
110	118	1
106	114	1
3	4	1
127	128	1
67	93	1
132	132	1
15	36	1
64	69	1
55	56	1
15	24	1
131	131	1
39	39	1
102	102	2
41	78	1
31	31	1
63	64	1
15	15	1
44	44	2
125	126	1
10	81	1
63	77	1
12	12	2
27	28	1
88	94	1
65	72	1
59	60	2
103	121	1
71	77	2
26	27	1
44	58	1
120	121	1
127	134	1
1	1	1
97	97	1
127	127	1
37	37	1
60	81	1
99	109	1
45	72	1
8	11	1
30	39	1
121	132	1
2	45	1
116	126	1
122	124	1
12	22	1
79	112	1
95	96	1
102	107	1
30	104	1
63	107	1
78	127	1
129	130	1
30	49	1
85	90	1
