36	36	2
44	45	5
92	115	1
80	80	2
151	155	1
92	97	1
43	44	1
46	46	1
31	31	2
106	106	2
44	99	1
24	24	2
105	106	1
107	120	1
88	88	3
132	132	1
45	45	3
79	79	2
89	89	2
50	50	5
49	49	2
130	130	1
103	106	1
23	24	2
126	126	2
157	158	1
103	103	6
104	104	2
27	27	2
130	131	2
135	138	2
137	137	1
127	127	1
70	70	3
22	22	3
37	38	1
44	44	2
82	106	1
153	153	3
12	12	2
98	98	1
111	111	2
114	114	4
38	38	2
136	136	1
20	20	2
135	135	1
155	155	2
14	14	1
126	127	3
131	131	2
23	23	1
110	110	1
55	56	1
22	26	1
128	128	1
119	119	1
32	135	1
68	69	1
53	53	2
33	33	1
81	82	1
100	100	4
141	141	2
123	123	3
125	125	3
125	126	1
73	75	1
80	81	1
86	86	1
109	110	1
120	120	1
63	64	1
11	11	1
151	151	2
145	145	2
112	127	1
144	144	1
84	84	1
92	150	1
3	3	2
12	46	1
85	85	1
85	120	1
10	11	1
75	76	1
95	95	1
152	152	1
19	19	1
5	5	2
108	108	1
7	8	1
68	68	1
35	49	2
116	116	2
64	64	1
138	138	1
142	143	1
31	46	1
12	24	1
150	150	2
157	157	3
120	121	1
139	139	1
11	47	1
67	67	1
47	47	3
129	129	2
65	92	1
146	146	2
117	117	1
90	91	1
109	146	1
116	136	1
77	149	1
69	69	2
37	37	2
106	138	1
13	14	2
42	47	1
73	132	1
28	28	2
78	78	2
139	149	1
126	141	1
25	137	2
121	121	1
43	70	1
22	65	1
87	88	1
15	39	1
137	142	1
147	147	2
55	132	1
23	32	1
25	29	1
105	105	1
11	45	1
101	101	1
108	110	1
121	153	1
25	25	3
83	84	1
112	112	1
73	73	2
77	124	1
43	43	1
88	90	1
52	53	1
78	142	1
13	13	2
117	120	1
134	134	1
26	26	1
34	40	1
5	45	1
53	54	1
25	26	1
104	108	1
134	135	1
133	133	1
9	9	1
77	77	1
7	7	1
57	57	1
85	86	1
4	4	1
8	8	1
87	87	1
137	138	1
56	56	1
29	29	1
107	107	1
53	143	1
97	97	1
75	139	1
21	21	1
51	51	1
30	31	1
34	34	1
113	113	1
63	63	1
152	153	1
62	63	1
81	81	1
