41	41	2
70	71	1
76	76	2
128	128	3
160	160	1
120	121	2
119	120	2
149	151	1
65	65	1
1	1	2
44	44	4
46	47	1
143	143	3
87	87	1
162	164	1
111	111	4
124	124	1
65	83	2
170	170	3
123	123	1
119	119	4
39	39	4
139	156	1
49	70	1
54	54	3
145	145	5
107	107	3
23	23	2
69	69	2
20	22	2
153	153	2
121	130	1
8	9	1
145	146	1
140	140	3
149	149	4
24	24	3
158	158	2
110	159	1
53	54	1
162	165	1
73	73	1
50	50	3
132	133	1
14	35	2
142	142	4
131	131	3
18	18	3
40	40	6
116	116	1
12	12	1
85	86	1
111	167	1
9	112	1
5	6	2
27	28	3
136	136	1
126	131	2
168	168	1
93	93	1
87	146	2
28	28	2
65	66	1
9	9	2
43	43	3
53	53	2
157	157	1
114	114	3
5	5	2
95	96	1
36	36	2
148	148	2
117	117	1
34	34	4
131	152	2
26	26	1
67	117	1
24	90	2
155	156	2
64	64	3
20	20	1
15	16	2
33	33	2
63	63	3
130	130	2
125	152	2
89	89	2
67	77	2
20	21	2
0	0	3
115	115	3
105	142	1
159	159	3
52	52	2
123	132	1
47	81	1
12	138	1
42	89	1
149	150	2
91	93	2
27	69	1
42	42	1
25	25	1
101	117	1
169	170	1
84	84	1
6	6	3
41	42	1
88	89	1
6	7	2
105	105	2
109	109	2
4	5	2
58	62	1
119	132	1
142	143	1
128	129	2
136	137	1
155	155	4
68	70	1
50	51	1
70	72	1
46	46	1
3	4	1
104	104	1
113	113	2
25	70	1
16	20	1
62	62	1
162	162	1
118	118	3
49	80	1
88	88	2
100	101	3
71	71	2
132	157	1
103	103	1
83	83	3
35	35	4
38	42	1
120	142	2
16	16	3
79	86	1
90	90	5
169	169	2
161	161	1
56	56	1
164	164	2
41	106	1
98	101	2
147	164	2
112	119	2
56	57	1
16	22	1
15	15	1
49	49	1
112	112	1
133	157	2
78	78	1
22	147	1
5	24	1
77	78	3
2	10	1
10	10	4
42	88	1
129	129	1
132	132	2
97	127	1
103	104	1
53	101	1
100	100	1
162	163	1
166	166	1
145	152	1
131	132	1
83	84	1
55	55	2
99	147	1
162	168	1
14	14	1
101	101	1
164	165	1
106	108	1
79	80	1
10	18	1
110	167	1
39	40	1
84	85	1
11	11	1
154	154	1
9	10	1
70	70	1
66	85	1
86	87	1
97	97	1
153	160	1
99	99	1
116	155	1
111	112	1
137	137	2
133	134	1
156	156	1
81	82	1
106	106	1
66	66	1
55	57	1
20	24	1
81	81	2
135	135	1
126	127	1
135	136	1
76	78	1
138	138	1
161	162	1
125	138	1
159	160	1
108	143	1
150	151	2
76	79	1
151	151	1
105	143	1
113	114	1
82	82	1
147	147	1
48	48	1
4	4	1
130	150	1
3	17	1
92	92	2
96	97	1
165	165	1
39	86	1
167	167	1
