105	105	2
36	37	1
46	48	1
33	33	2
162	164	1
38	38	8
34	83	2
42	43	1
107	113	2
3	3	5
159	160	2
20	20	6
50	50	1
16	110	1
1	1	3
41	73	1
123	154	2
57	85	1
118	118	7
150	150	2
93	93	3
117	117	3
70	70	6
67	68	2
25	25	7
113	113	7
16	114	1
157	157	4
26	27	3
8	8	7
101	102	1
114	115	2
90	90	3
142	154	2
149	149	5
132	132	8
41	41	3
125	154	1
99	99	5
82	82	6
80	80	2
24	97	1
23	24	1
87	88	1
49	55	1
110	110	5
72	72	3
17	17	1
106	106	4
112	112	3
1	3	1
22	22	7
128	128	4
129	133	1
107	107	6
121	121	4
20	22	2
153	153	3
72	159	3
35	35	4
39	39	7
155	155	5
70	100	1
16	16	3
75	76	1
157	158	3
167	167	2
125	125	2
103	136	1
20	21	1
41	44	3
152	152	1
10	10	4
63	96	1
2	5	1
96	97	2
34	34	5
6	6	2
101	101	7
146	167	1
116	160	1
107	116	1
158	158	7
139	139	4
9	9	3
14	109	2
111	112	1
135	135	3
37	38	3
35	36	1
89	89	6
13	13	5
138	139	1
70	116	1
140	155	1
133	133	5
117	121	1
117	160	1
100	112	2
17	101	1
136	136	5
64	64	9
24	25	1
25	26	1
102	115	3
4	4	2
115	115	2
125	138	2
143	150	2
45	63	3
33	34	2
40	40	1
77	79	2
168	168	6
116	116	4
16	17	4
83	83	7
85	85	2
56	57	1
91	92	1
66	83	1
2	2	6
134	134	6
2	3	1
67	67	1
151	151	9
24	88	2
126	127	2
155	156	4
142	143	2
37	37	4
11	12	2
135	136	6
21	21	3
36	36	5
86	86	5
73	73	4
109	109	4
160	161	1
28	28	2
44	45	1
125	132	1
18	19	1
18	18	2
132	133	2
34	35	3
143	144	2
37	40	1
74	144	1
24	96	1
117	128	1
68	68	1
46	46	2
41	42	2
74	74	6
14	14	5
129	129	2
9	10	3
115	116	2
122	158	1
90	91	3
14	15	2
141	141	1
23	23	3
126	126	3
167	168	1
5	6	2
152	153	2
84	85	3
88	90	1
147	147	1
142	165	1
8	20	1
110	111	1
127	155	2
69	134	1
16	25	1
0	0	3
144	144	4
10	46	1
47	47	4
44	46	1
19	63	1
51	52	1
69	70	2
25	137	2
127	127	5
77	77	3
142	170	2
77	78	1
156	157	3
118	120	1
131	132	1
91	91	1
56	56	2
16	56	1
71	72	1
79	80	1
165	165	1
119	119	4
105	166	2
17	90	1
17	57	1
105	136	1
40	73	1
17	92	2
108	110	3
155	159	1
98	98	3
116	165	1
12	12	10
101	135	1
14	52	2
114	114	2
140	140	2
88	88	3
92	92	1
53	53	3
142	142	1
158	159	2
91	104	1
64	79	1
107	108	1
93	94	2
48	48	2
50	72	1
144	145	1
75	75	1
47	70	2
54	54	1
145	145	3
151	152	1
42	42	3
146	146	1
108	108	4
116	166	2
49	49	1
136	137	3
148	148	1
137	137	3
131	131	4
12	13	1
62	77	1
86	131	1
107	111	2
42	46	1
109	111	1
111	111	2
57	57	2
17	24	2
106	137	1
1	2	1
145	146	1
27	27	4
122	122	2
129	130	2
17	18	3
64	93	1
15	15	2
76	76	1
17	20	1
98	99	1
100	101	1
120	120	1
146	153	2
169	169	3
161	161	3
108	136	1
102	103	1
147	148	1
78	78	1
19	20	1
142	148	1
130	131	1
22	111	1
24	24	2
74	146	1
9	114	1
166	166	4
65	76	1
79	81	1
55	55	1
62	65	1
97	99	1
52	52	1
104	104	1
72	132	1
48	49	2
81	140	1
159	159	1
5	5	1
17	55	1
71	74	1
18	95	1
154	154	2
0	143	1
66	135	2
73	132	1
79	83	1
123	128	1
2	89	1
93	133	1
105	106	1
62	96	2
36	42	1
79	79	1
53	55	1
68	69	1
57	62	2
64	65	3
124	124	3
90	92	1
39	40	1
10	11	1
21	22	1
21	109	1
51	74	1
139	157	1
40	41	1
122	130	1
103	134	1
166	167	1
144	149	1
143	143	4
82	83	1
54	57	1
148	150	1
63	63	1
103	103	2
84	89	1
43	43	2
35	86	1
150	151	1
38	39	1
21	90	1
51	51	2
0	1	2
16	107	1
126	138	1
26	26	1
3	4	1
16	20	1
55	56	1
18	56	1
140	142	1
95	95	1
141	162	1
120	121	1
25	88	1
100	100	1
161	168	1
2	49	1
129	136	1
39	74	1
65	66	1
47	49	1
146	147	1
46	56	1
7	7	1
102	105	1
163	165	1
81	82	1
67	134	1
124	125	1
45	65	1
138	138	2
162	162	1
163	163	1
15	21	1
