62	63	1
134	134	2
52	52	2
84	87	1
87	87	6
92	113	1
114	118	1
0	11	1
28	29	3
53	53	2
69	70	1
86	87	4
19	34	1
132	132	2
54	78	2
113	113	2
2	2	3
2	17	1
104	104	4
110	110	2
44	44	3
11	11	5
87	99	1
47	47	1
71	73	1
128	129	3
122	128	1
53	69	1
111	129	1
17	21	1
43	43	3
121	135	1
4	20	1
82	111	1
14	72	1
70	70	5
86	86	1
77	77	2
23	23	6
24	24	2
119	119	3
65	78	1
118	118	3
5	5	4
76	76	4
34	34	9
83	83	3
102	102	4
10	10	6
100	102	1
6	6	1
117	117	2
20	23	1
84	84	2
78	93	1
62	65	1
132	133	3
35	35	4
110	111	1
19	30	1
117	121	1
16	20	1
72	72	4
87	88	2
58	58	1
85	101	2
30	31	1
56	58	1
63	63	2
76	112	1
14	14	4
55	55	2
64	97	1
29	29	4
25	100	1
45	59	1
30	30	3
115	129	1
82	82	5
61	61	5
10	25	1
73	73	4
26	36	2
6	11	2
28	36	2
27	27	2
24	29	1
71	72	1
90	90	2
36	70	1
78	78	5
129	129	3
3	28	1
18	18	2
89	89	3
92	93	2
111	111	2
93	93	3
36	37	2
119	121	1
111	120	2
74	74	2
66	66	2
123	124	5
29	36	1
108	108	1
56	57	1
92	92	3
3	11	1
98	116	1
135	135	2
109	110	1
84	95	1
9	9	6
98	98	4
94	94	3
21	24	1
116	116	2
121	121	7
34	36	2
130	132	1
10	18	1
118	121	2
59	60	2
1	3	1
110	116	2
112	112	4
26	28	1
120	120	2
101	101	5
75	75	1
125	125	2
91	91	4
99	99	1
47	66	1
59	59	3
71	101	2
127	128	1
106	106	3
130	130	4
32	32	5
30	54	1
82	84	2
82	88	1
113	133	1
97	98	3
83	84	1
60	60	3
81	81	1
50	60	1
100	107	1
35	37	1
64	117	1
65	65	1
128	133	1
123	131	1
124	124	1
67	67	2
120	121	1
15	22	2
56	56	2
78	79	3
60	77	1
122	133	1
100	100	3
49	50	2
122	122	2
76	134	1
85	85	4
63	128	1
13	13	4
79	79	3
28	54	3
97	97	2
66	67	1
54	55	1
114	115	2
5	6	1
50	71	1
105	105	2
128	128	3
15	16	1
64	64	2
80	80	5
6	33	1
10	135	2
45	45	4
50	50	4
16	16	2
60	62	1
60	68	1
21	27	1
55	56	2
43	123	1
96	96	1
118	129	1
74	78	1
103	104	1
1	1	2
8	19	1
101	118	1
66	131	2
71	71	2
114	119	1
38	38	1
24	33	1
35	86	1
47	52	1
113	121	1
114	114	1
61	63	1
1	2	2
35	62	1
36	36	1
5	25	2
62	66	1
79	90	1
54	73	1
24	36	1
2	5	1
107	107	2
74	76	1
123	123	2
101	114	1
115	116	1
9	21	1
4	21	1
122	123	1
77	80	1
106	116	1
95	119	1
128	132	1
103	103	1
127	127	2
60	61	2
68	68	2
88	88	2
44	45	1
6	7	1
88	93	1
100	103	1
19	20	1
115	119	2
113	123	1
42	42	1
99	124	1
4	4	1
3	3	2
87	113	1
31	31	3
9	10	2
111	112	1
4	67	1
34	55	1
44	62	1
106	121	1
47	77	1
4	5	1
12	12	1
2	10	1
89	90	1
16	18	1
42	43	1
11	30	1
28	28	1
3	23	1
57	82	1
52	109	1
117	123	1
19	24	1
37	37	2
54	54	1
11	31	1
92	97	1
19	19	1
73	75	1
57	58	2
33	33	1
124	125	1
24	27	1
63	101	1
109	109	1
124	134	1
64	65	1
72	73	1
106	118	1
57	57	1
52	53	1
