101	101	2
121	122	2
0	0	3
5	5	1
25	25	5
53	142	1
68	68	7
151	151	5
114	114	2
42	42	4
110	110	4
103	103	2
136	136	3
31	31	1
7	7	2
7	14	2
108	108	2
55	55	1
39	39	3
179	180	2
96	140	1
6	6	2
18	18	2
101	104	2
22	23	3
162	162	4
33	33	1
185	185	5
120	120	3
178	180	1
104	104	2
15	15	4
138	149	1
139	141	1
33	45	1
155	155	3
81	81	2
163	164	2
66	66	2
146	146	1
22	22	1
82	82	1
147	159	1
57	57	1
167	168	1
154	156	1
156	157	1
168	168	3
126	126	2
88	88	2
145	145	2
158	178	1
152	152	2
11	15	2
131	131	1
187	187	6
71	72	1
79	79	2
16	16	2
115	123	1
36	36	2
115	115	3
68	77	1
95	95	3
24	25	3
97	179	1
175	175	2
54	54	2
78	79	1
94	94	1
8	8	2
154	154	3
98	99	1
2	2	2
48	48	3
171	172	1
150	169	1
149	181	1
179	179	3
161	182	1
94	95	2
122	122	2
52	56	1
139	139	2
10	12	1
53	55	1
188	188	4
62	62	2
94	112	1
182	183	1
165	165	2
74	74	1
169	169	3
163	165	1
108	110	2
112	125	1
95	96	2
90	116	2
38	38	2
27	28	1
27	27	1
38	42	1
3	3	1
70	88	1
124	141	1
67	67	3
180	180	1
31	86	1
189	189	2
78	78	1
12	12	1
118	150	1
157	157	1
61	62	1
139	140	1
45	46	1
188	189	2
178	178	1
1	1	1
30	30	2
160	160	2
150	150	3
159	159	2
97	97	1
56	57	2
48	58	1
176	176	3
91	93	1
161	161	1
40	40	2
129	168	1
141	141	1
60	60	1
84	85	1
19	19	3
9	9	1
190	190	1
176	177	1
184	186	1
33	35	1
26	26	1
172	172	2
72	72	2
63	64	1
85	85	1
12	21	1
13	14	2
40	92	1
91	91	1
57	105	2
53	53	2
145	160	1
11	11	2
37	57	2
86	86	2
106	166	1
40	61	1
111	111	1
45	45	2
44	45	1
97	98	1
106	106	1
182	182	2
16	17	1
66	68	2
90	90	1
105	105	2
108	109	1
5	12	1
92	93	1
89	89	2
134	134	2
129	129	1
44	46	2
10	10	2
38	39	1
128	128	1
68	76	1
121	183	1
56	62	1
121	121	2
47	64	2
126	162	1
15	16	1
83	111	1
73	75	2
186	186	1
133	133	1
112	112	1
41	41	1
101	102	1
124	124	1
37	37	2
39	40	1
70	72	2
118	118	1
185	186	1
13	13	1
24	24	1
117	118	1
90	92	1
9	16	1
152	153	2
93	94	1
88	89	1
149	189	1
31	32	1
130	131	1
163	163	2
98	98	1
139	142	1
143	143	1
35	35	1
146	180	1
173	174	1
23	23	1
