1	1	4
72	72	1
107	107	2
11	11	3
83	83	4
19	20	2
134	135	1
17	28	1
92	92	2
94	95	1
61	61	3
73	73	4
67	124	1
84	84	3
32	33	1
95	95	1
100	111	3
63	111	1
64	64	2
55	56	1
6	45	4
4	5	2
113	113	3
32	34	2
128	128	3
28	28	4
16	16	2
72	124	2
87	87	1
66	66	2
67	67	1
130	132	1
113	115	1
102	102	1
121	121	2
56	56	3
3	5	3
83	84	1
6	44	1
27	60	2
65	65	2
89	89	1
98	108	1
77	78	5
7	7	4
99	99	2
34	34	1
117	117	1
104	104	2
57	69	1
91	92	2
17	22	2
1	32	1
23	24	2
25	25	1
91	91	2
99	100	1
62	85	1
3	4	3
78	78	4
2	38	1
6	6	4
60	61	2
34	35	1
14	15	1
50	50	4
114	114	5
49	78	2
43	43	2
26	44	1
33	33	1
76	76	3
19	22	1
74	74	3
124	124	2
29	29	1
63	63	2
13	99	1
72	109	1
118	118	2
96	96	1
80	109	3
24	24	2
97	97	3
17	17	2
100	100	2
3	29	1
56	57	1
31	31	3
125	125	1
85	86	3
134	134	2
71	72	1
54	58	1
130	131	3
69	69	4
20	22	1
62	62	1
77	118	1
56	118	2
44	53	1
3	27	1
75	75	1
98	98	3
52	52	2
35	35	2
56	68	1
99	111	1
93	93	3
12	28	1
79	119	1
90	90	1
127	128	1
2	37	1
109	112	1
2	2	1
50	51	1
120	120	3
101	101	2
60	62	2
49	49	1
126	128	1
13	13	3
15	15	2
55	55	3
23	84	1
64	91	2
99	105	2
108	108	3
20	20	1
66	68	1
19	23	2
18	19	1
108	109	2
116	116	2
58	60	1
5	13	1
22	22	2
125	126	3
84	86	1
103	103	1
21	22	2
77	77	5
114	115	1
88	88	3
0	0	1
65	108	1
12	12	1
57	57	3
79	79	2
80	80	1
119	119	2
10	10	1
74	101	1
43	44	1
82	82	2
9	28	2
61	62	1
118	119	1
60	60	1
60	63	1
129	131	1
21	21	3
13	14	3
121	122	1
129	129	2
84	91	1
10	11	1
70	105	2
36	36	1
79	88	1
131	133	2
54	79	1
123	123	2
37	37	1
30	32	1
14	103	2
19	19	2
105	105	1
30	30	1
109	111	1
4	4	1
9	9	2
26	26	3
46	64	1
14	14	2
92	93	2
27	27	1
113	116	1
112	112	3
93	94	1
70	70	1
70	72	1
21	38	1
15	22	1
106	110	1
121	132	1
64	65	1
45	50	1
115	115	1
69	70	1
44	45	1
53	78	2
0	1	1
69	76	1
79	120	1
82	87	1
82	85	1
120	123	1
21	23	1
54	54	1
101	109	1
93	97	1
112	116	1
6	22	1
43	52	1
112	115	1
127	130	1
85	85	1
82	86	1
131	131	1
53	54	1
105	110	1
50	74	1
71	71	1
36	43	1
28	53	1
27	119	1
30	49	1
20	21	1
