54	57	2
43	55	1
7	7	3
173	173	2
154	172	1
55	55	2
6	6	3
75	76	1
32	33	2
165	165	3
37	38	3
157	157	2
86	86	1
24	25	2
116	116	3
86	124	1
18	19	3
27	28	2
65	102	3
174	177	2
120	120	2
180	180	2
88	120	1
169	169	2
48	103	1
94	94	1
78	129	1
129	129	5
60	60	2
17	19	1
105	105	1
126	126	1
23	23	1
17	17	3
162	168	1
79	81	2
166	167	1
44	127	1
134	135	3
28	28	3
26	26	1
137	137	2
169	170	1
98	100	2
47	60	1
19	19	2
163	163	2
126	132	1
21	22	1
61	99	1
73	101	1
175	175	2
142	176	1
52	52	4
165	166	1
7	16	1
127	127	1
99	99	4
144	144	2
93	94	1
112	112	3
47	47	3
172	181	1
127	134	3
176	176	1
33	33	2
33	126	1
98	98	3
136	143	2
31	31	2
40	41	2
58	60	1
97	98	2
145	176	2
104	105	2
37	47	1
83	83	3
45	47	2
108	108	2
124	167	1
105	179	1
188	188	3
101	103	1
146	146	2
44	44	2
122	122	3
145	146	1
5	6	1
130	178	1
97	97	5
77	77	7
90	180	1
66	67	1
141	141	1
147	151	1
89	89	2
8	8	2
157	167	1
14	14	2
159	159	1
18	108	1
30	31	2
2	2	3
128	128	1
185	185	3
94	95	3
45	63	2
184	185	2
113	113	1
141	142	1
38	53	2
160	161	1
11	11	4
124	124	1
63	63	2
117	117	1
11	12	1
30	34	2
106	106	2
160	160	2
61	63	3
40	40	1
107	108	2
147	152	1
110	110	3
54	54	1
31	120	4
58	58	1
130	131	1
125	168	1
165	169	1
39	153	2
34	34	1
71	71	1
74	74	1
106	108	1
162	163	1
86	89	1
100	100	1
153	153	2
183	183	1
151	151	2
171	171	1
25	25	3
40	80	1
64	64	1
95	156	2
111	111	2
67	67	1
116	171	2
21	23	1
79	80	2
56	57	2
47	103	1
47	56	1
1	1	2
148	148	1
148	149	1
71	109	1
9	86	1
166	166	2
95	95	2
139	139	3
2	60	1
9	78	1
84	124	1
186	187	1
95	96	3
30	30	2
116	172	1
19	20	2
149	149	2
132	132	1
43	44	1
123	123	1
121	122	1
58	63	2
125	159	1
73	73	1
91	91	1
78	78	1
155	155	2
13	13	2
92	92	1
85	85	2
8	77	1
108	151	1
59	63	1
96	97	1
187	187	2
15	114	1
168	168	1
55	56	1
42	42	1
29	29	1
131	133	1
82	82	2
10	10	2
92	106	1
37	40	1
161	161	1
89	180	1
172	172	2
46	48	2
46	47	1
42	64	1
115	115	1
48	48	1
117	180	1
147	147	2
65	68	1
152	153	1
15	16	2
27	27	2
40	78	1
131	131	1
125	125	1
87	88	2
160	162	1
114	115	1
151	174	1
112	113	2
56	99	1
37	37	2
43	63	1
127	128	1
31	64	1
72	72	2
35	36	1
76	82	1
38	38	1
106	180	1
180	182	1
46	46	1
188	190	2
75	75	2
156	156	1
15	15	1
142	142	1
184	184	1
3	4	1
112	116	1
18	20	1
70	102	1
8	10	1
127	156	1
65	65	1
29	30	1
90	90	1
120	121	1
90	107	1
163	164	1
23	33	2
103	114	1
38	39	1
24	24	1
122	123	1
68	68	2
81	81	1
45	61	1
146	175	1
79	79	1
66	96	1
56	56	3
184	186	1
86	134	1
61	61	1
181	181	2
163	181	1
131	132	1
64	70	1
64	101	2
4	14	1
36	118	1
154	154	2
119	122	1
48	97	1
36	36	1
41	41	1
17	20	1
22	22	1
125	182	1
186	186	1
73	100	1
189	189	1
135	135	1
111	117	1
181	182	1
85	86	1
66	66	1
115	116	1
