118	118	2
110	112	2
73	73	2
8	8	1
47	50	1
129	129	4
124	124	6
41	41	4
158	158	8
13	14	1
6	7	2
78	78	2
108	108	3
20	20	5
139	167	2
126	126	3
164	165	2
145	145	3
86	86	4
119	120	2
0	40	2
26	131	1
27	27	4
9	9	5
145	146	1
132	132	4
42	42	4
116	116	6
155	155	4
12	12	2
17	17	2
4	9	1
14	14	4
88	149	1
97	98	3
149	149	2
129	131	1
72	72	6
23	23	3
10	47	1
136	137	2
114	114	6
134	135	2
15	15	2
102	146	1
17	148	1
144	144	5
58	62	1
41	126	1
25	25	4
138	138	3
120	125	1
104	104	3
130	130	1
90	138	1
91	91	3
71	71	1
68	68	2
69	69	2
82	82	1
116	124	2
73	122	1
78	96	1
48	55	1
64	118	2
49	51	1
70	70	1
89	89	2
43	53	1
47	47	1
135	135	7
97	166	1
8	141	1
111	111	4
130	136	1
19	19	3
129	163	1
110	110	1
5	5	2
37	38	1
3	3	3
134	134	3
44	54	1
101	107	1
156	156	5
11	13	1
127	127	4
90	159	1
166	166	5
133	133	4
0	0	2
132	145	3
40	109	1
72	73	1
126	127	1
16	16	1
93	94	3
11	83	1
44	45	1
4	4	4
1	40	1
90	90	9
13	13	1
114	116	2
127	128	1
75	102	2
23	24	1
84	98	1
83	121	1
161	161	4
22	24	2
49	49	4
144	145	3
84	84	2
63	63	2
120	120	1
12	17	1
38	38	2
97	151	1
118	119	3
123	123	3
97	97	4
79	140	1
56	56	3
75	77	1
83	83	1
20	21	1
143	143	2
6	6	3
62	67	1
102	103	2
67	68	2
119	119	4
75	75	2
41	42	2
28	28	5
157	157	2
168	168	2
75	76	2
142	142	4
73	74	1
35	35	4
111	134	1
151	157	1
58	81	1
52	52	1
110	135	1
101	101	1
24	24	4
98	120	1
100	100	5
80	80	3
162	167	1
43	44	1
39	39	5
113	113	4
88	150	1
7	7	3
69	70	2
98	98	1
21	24	1
113	114	1
67	67	1
93	122	1
76	76	1
0	1	2
36	37	1
27	28	1
161	162	1
67	69	1
92	92	2
50	154	1
34	35	3
34	34	4
139	140	1
162	163	1
81	81	6
79	90	1
1	1	3
107	107	1
51	51	1
77	77	1
52	71	1
84	85	1
47	55	1
157	158	2
46	52	1
2	2	2
4	5	1
8	125	1
167	167	3
128	164	1
149	152	1
115	115	2
134	151	1
77	125	1
137	138	1
52	87	1
159	160	1
73	114	1
84	126	2
36	36	2
164	168	1
55	57	2
163	163	4
137	139	2
137	137	3
147	151	1
57	105	1
74	76	1
50	51	1
161	167	2
47	48	1
38	107	1
112	112	1
78	79	1
14	25	1
141	141	2
139	139	1
135	151	1
53	53	1
136	136	2
106	106	1
109	170	3
5	24	1
64	64	2
75	78	1
73	108	1
18	20	1
125	126	1
117	117	2
40	40	3
90	146	1
136	153	1
4	90	1
18	18	2
71	145	1
112	114	1
80	128	1
95	96	1
150	150	2
16	25	1
105	105	1
37	37	2
133	170	1
91	97	1
114	119	1
108	109	1
54	54	1
39	116	1
96	96	1
151	151	1
106	112	2
140	141	1
38	40	1
119	125	1
37	44	1
79	83	1
159	159	2
78	82	1
101	102	1
140	140	1
97	150	1
53	106	1
88	88	1
82	94	1
67	103	1
160	163	1
82	83	1
112	121	1
121	122	1
33	33	1
128	128	3
6	11	1
147	147	1
78	104	1
94	94	1
159	170	1
27	152	1
160	160	1
125	125	2
170	170	2
42	43	1
65	143	1
102	104	1
90	91	1
95	98	1
41	117	1
121	121	1
9	23	1
133	134	1
161	166	1
39	41	1
7	45	1
80	105	1
125	132	1
99	99	1
80	145	1
78	103	1
154	154	2
142	143	1
82	109	1
93	93	2
150	151	1
74	74	1
3	14	1
117	166	1
99	126	1
109	109	1
152	152	1
66	67	1
112	116	1
79	80	2
86	87	2
103	103	1
21	22	1
1	3	1
142	145	1
3	6	1
3	55	1
146	149	1
10	18	1
5	152	1
62	86	1
20	134	1
47	63	1
132	133	1
104	151	1
55	55	1
26	96	1
151	152	1
19	27	1
10	10	1
45	45	1
50	127	1
39	108	1
12	13	1
46	46	1
