14	14	3
101	102	2
70	149	1
87	87	1
100	100	1
26	26	2
107	109	1
45	51	3
69	75	2
39	40	1
143	143	3
98	98	3
71	71	1
113	113	1
85	88	1
3	14	1
6	81	3
124	125	2
3	23	1
65	104	1
32	97	1
11	11	1
80	80	5
122	123	1
127	127	2
73	73	1
57	57	2
27	27	5
22	22	3
118	121	2
17	17	4
10	76	2
55	56	1
87	122	1
97	98	1
94	95	1
71	123	1
119	150	1
99	150	1
153	154	1
63	63	1
50	57	2
66	66	3
27	31	2
44	62	1
31	31	1
127	137	1
114	114	1
97	99	1
119	119	3
112	112	1
47	47	1
44	44	4
85	86	2
24	57	1
154	154	4
39	43	1
38	38	2
100	101	2
93	93	2
94	94	5
18	18	2
10	10	2
63	81	1
39	80	1
81	81	2
100	150	1
41	41	3
3	3	2
57	70	1
56	56	1
81	85	1
16	16	2
127	146	1
114	115	1
55	55	4
134	137	1
53	114	1
139	140	1
122	132	2
39	39	3
10	28	1
121	121	3
30	53	1
35	35	2
91	91	1
64	64	4
79	79	7
129	133	2
75	105	1
132	133	1
49	49	1
140	140	3
20	21	1
120	121	1
36	93	1
3	4	1
107	126	1
71	75	1
123	125	1
62	84	1
80	81	1
50	50	3
133	145	2
22	23	1
5	6	1
129	129	2
28	28	3
127	128	3
12	13	1
23	52	1
86	86	1
101	101	3
131	138	1
140	142	1
7	7	2
8	93	1
98	114	2
47	78	1
62	62	1
8	8	2
27	30	1
94	111	1
32	69	1
85	85	5
23	23	2
69	69	3
38	39	2
126	126	3
150	150	2
76	76	3
36	42	1
43	44	1
65	66	1
25	25	1
131	131	2
45	52	1
67	67	1
130	130	3
139	139	1
58	58	1
65	102	1
14	50	1
150	151	1
153	153	1
120	125	1
77	101	1
131	134	2
36	36	1
53	53	2
13	16	1
124	124	2
11	16	3
30	30	2
84	84	1
106	106	2
45	53	1
105	105	2
4	4	2
103	103	2
45	54	1
66	101	1
23	24	1
46	51	2
14	20	1
53	73	1
10	32	1
92	92	1
3	30	1
20	22	1
122	122	3
72	72	1
48	49	2
41	42	3
128	129	1
48	151	1
126	128	1
128	132	3
111	111	2
152	152	1
43	100	1
70	70	2
128	147	1
86	109	1
111	146	1
79	82	1
146	146	1
103	104	1
139	144	1
22	69	1
127	145	1
109	109	1
103	108	1
78	81	1
111	112	1
118	118	1
62	63	1
13	76	1
63	66	3
97	97	2
137	137	1
86	88	1
115	125	1
18	24	1
80	85	1
141	142	1
135	136	1
130	137	1
120	120	2
27	28	2
68	71	2
126	144	1
145	145	2
25	29	1
83	84	1
43	43	2
34	34	2
32	32	2
128	135	1
62	86	1
109	110	1
4	14	1
128	142	1
35	36	2
132	132	1
87	124	1
130	140	1
48	48	3
34	55	1
21	45	1
64	113	2
65	65	1
23	29	1
25	27	1
15	23	1
24	27	1
77	77	1
66	67	1
102	102	1
95	95	2
22	34	1
100	110	1
116	133	1
22	36	1
83	83	1
82	83	1
42	126	1
20	20	1
100	104	1
75	76	1
62	68	1
81	124	1
9	76	1
2	8	1
141	141	2
141	143	1
136	136	2
81	84	1
126	145	1
121	122	1
49	54	1
151	152	1
131	132	1
33	98	1
45	45	1
74	74	1
76	112	1
140	141	1
18	84	1
104	104	2
93	95	1
78	80	1
125	151	1
8	10	1
103	119	1
64	151	1
80	83	1
127	149	1
33	37	1
6	32	1
39	104	1
53	133	1
48	50	1
16	81	1
12	12	1
127	136	1
28	30	1
12	95	1
142	142	1
77	115	1
22	142	1
94	108	1
