100	128	2
103	103	6
70	71	1
99	99	2
71	131	1
113	113	1
0	0	1
115	115	1
11	12	1
119	119	8
88	88	5
53	54	1
13	13	2
68	69	1
7	35	1
7	7	6
111	123	1
91	91	3
14	15	1
98	98	3
54	59	1
96	96	3
44	44	3
128	128	1
29	32	1
16	17	1
58	78	1
101	130	1
1	79	1
70	80	2
108	108	1
87	87	2
68	127	1
100	100	3
61	61	1
79	92	1
73	73	2
132	134	1
112	112	4
100	115	3
84	84	2
119	120	2
10	10	1
99	115	1
54	54	4
111	111	4
86	86	1
75	75	4
5	5	6
37	37	2
105	105	2
132	132	4
43	44	1
19	19	2
3	80	1
54	112	2
94	94	3
57	58	1
110	110	2
5	11	1
31	31	1
77	77	3
21	21	1
2	2	2
27	27	2
8	8	1
131	131	1
70	70	5
24	24	1
64	64	4
50	93	2
81	98	1
9	84	1
24	122	2
9	9	3
118	118	1
81	81	3
95	102	1
35	35	3
104	104	4
134	134	2
65	68	1
4	5	1
91	112	1
36	36	2
84	123	1
6	6	3
58	82	1
1	37	1
30	30	4
0	1	1
66	66	1
65	65	1
78	79	4
0	35	1
17	17	2
12	12	5
37	42	1
24	62	2
10	84	1
79	79	4
72	72	3
28	38	1
124	124	1
107	108	1
76	76	1
15	95	1
120	121	1
99	126	2
116	116	1
115	126	1
33	33	1
129	130	1
133	133	2
78	81	1
105	114	1
22	24	1
1	2	2
32	32	1
65	67	1
27	28	1
19	20	1
14	85	1
65	66	1
70	97	1
22	54	2
60	62	1
127	127	2
22	22	3
98	103	1
55	55	2
112	113	1
26	26	2
52	52	2
71	72	1
130	131	1
97	97	2
58	58	3
121	122	1
23	108	3
49	49	1
13	14	1
28	28	2
70	88	1
55	109	1
129	129	1
74	74	1
17	88	1
123	123	1
20	63	1
68	68	1
80	80	1
84	114	1
103	104	1
20	20	1
126	126	1
109	109	3
83	83	1
90	90	2
3	4	1
94	97	1
92	92	2
62	63	1
102	102	1
85	85	1
59	86	1
15	15	1
113	121	1
8	81	1
106	106	2
117	117	1
54	55	1
24	25	1
101	126	1
95	95	1
48	48	1
90	91	1
71	71	1
81	82	1
127	128	1
92	93	1
10	11	1
88	92	1
50	50	1
29	29	1
18	18	1
16	18	1
10	15	1
75	89	1
89	89	1
116	117	1
88	94	1
21	59	1
