104	104	3
24	24	1
28	28	2
18	18	1
14	14	3
102	102	4
2	3	1
125	125	3
124	124	6
58	58	6
91	91	7
103	103	1
116	116	4
108	108	4
87	87	2
76	76	5
72	72	4
123	123	2
115	116	1
0	0	1
60	60	2
105	111	1
113	113	4
119	119	2
74	84	1
131	131	4
93	94	2
126	126	2
111	111	2
110	111	3
129	129	1
62	62	1
50	50	2
41	43	2
49	49	6
126	128	1
43	43	3
73	74	2
94	95	2
112	112	6
55	55	4
77	77	2
10	10	2
61	61	4
27	27	1
9	76	2
41	41	1
42	42	2
6	6	3
115	115	1
104	105	1
24	28	1
15	15	2
21	83	1
92	109	1
83	83	2
12	27	2
83	127	1
73	73	2
64	66	1
19	33	1
22	67	1
16	27	1
22	22	2
102	104	1
89	89	5
54	54	3
11	11	2
30	30	7
8	8	1
108	109	1
105	108	2
94	94	8
10	55	1
39	90	1
31	31	2
40	40	1
117	117	3
14	15	1
33	33	1
78	79	1
17	17	2
95	96	1
53	53	1
126	127	1
2	68	2
27	48	1
30	33	1
121	122	2
2	2	7
128	130	1
107	107	4
105	106	2
92	92	2
65	65	2
93	93	2
105	105	2
99	99	1
25	25	1
23	24	4
59	59	1
56	56	3
15	28	1
20	42	2
96	96	4
82	83	1
89	90	1
11	54	1
64	64	1
48	48	2
20	20	2
19	32	3
42	43	1
3	3	1
4	4	2
117	125	1
66	70	2
76	77	2
46	47	1
68	68	2
9	54	1
10	14	1
70	70	3
32	32	1
109	110	2
97	97	3
13	13	1
55	65	1
110	110	2
61	66	1
122	122	2
1	1	4
25	26	1
48	56	1
11	12	1
52	52	2
67	68	1
22	24	3
46	46	2
99	103	1
30	119	2
98	98	2
75	75	1
12	12	2
40	47	1
0	1	3
125	127	1
63	63	4
4	110	1
52	53	1
72	74	1
129	130	1
71	71	2
9	30	1
4	6	1
109	109	2
39	40	2
5	129	2
133	133	1
81	81	1
85	85	2
64	65	1
26	26	1
111	112	1
121	121	2
67	70	1
114	114	2
50	51	1
6	54	1
117	118	1
88	88	1
69	69	1
118	118	2
131	132	1
5	126	1
29	29	2
27	28	1
62	63	1
49	69	1
62	66	1
21	21	1
86	86	1
116	129	1
65	67	1
57	57	1
33	74	1
112	120	1
47	118	1
101	102	1
38	38	1
4	92	2
74	77	1
33	89	1
102	103	1
32	34	1
51	53	1
116	117	1
