118	121	1
143	143	2
52	52	3
56	58	2
134	134	2
11	12	3
24	24	1
12	12	3
41	42	1
28	28	1
91	91	4
26	26	3
160	160	2
72	122	3
149	151	1
117	117	2
131	131	5
157	157	2
40	40	2
45	112	2
101	114	2
146	146	2
83	83	1
71	71	3
3	3	2
18	18	3
8	17	1
34	144	1
48	48	1
48	49	2
33	33	1
75	76	1
54	122	1
35	35	2
141	141	2
11	20	2
9	9	1
107	112	1
54	55	1
77	97	1
136	136	1
165	165	1
100	104	1
117	118	1
164	164	2
137	137	2
99	99	4
111	111	3
23	23	2
57	57	3
105	105	3
117	119	1
17	17	4
106	106	1
123	123	3
112	114	3
118	118	1
39	39	3
53	159	1
110	110	2
128	128	3
162	162	2
140	146	1
85	86	2
76	92	3
144	144	3
86	86	3
43	43	2
81	84	2
47	71	1
45	45	2
33	34	1
71	131	1
141	142	2
64	64	2
136	137	3
62	62	2
70	149	1
6	6	3
140	141	1
15	15	1
5	42	1
120	156	1
147	147	4
88	88	1
89	91	2
155	156	2
129	129	5
76	76	2
97	107	1
25	26	1
100	100	4
84	84	1
74	77	1
101	106	1
92	93	1
37	37	5
149	149	1
41	89	1
118	119	1
155	155	3
42	137	1
70	70	1
11	11	3
63	63	1
7	7	3
168	168	2
97	97	1
17	24	1
91	116	1
159	159	3
20	23	1
81	82	2
73	73	2
92	95	1
154	154	1
47	47	1
66	66	1
89	89	3
13	70	2
109	109	1
54	54	2
108	108	3
38	38	2
9	10	1
82	83	1
138	138	3
36	36	6
22	22	3
80	80	1
126	150	1
21	21	2
8	8	2
147	148	1
161	161	3
132	132	2
55	56	1
44	44	3
127	127	2
125	126	2
56	56	1
160	162	1
82	82	5
5	5	1
105	107	1
64	105	1
90	90	2
100	101	1
154	156	1
16	16	2
122	122	1
50	119	1
43	44	1
72	72	1
5	12	1
36	37	2
114	158	1
123	133	1
84	86	2
51	51	1
105	106	1
135	149	1
130	130	1
10	41	1
165	166	1
169	169	1
46	46	2
53	53	1
115	115	2
103	103	3
9	17	1
137	138	1
104	104	2
80	81	2
49	49	1
0	0	2
20	20	2
78	79	1
83	87	1
14	14	1
113	114	2
3	135	2
34	34	1
101	101	3
120	120	1
124	124	2
110	111	2
27	27	1
163	163	2
149	155	1
142	147	1
167	169	1
135	138	1
135	135	2
146	149	1
76	77	1
12	13	1
67	67	1
166	166	1
91	93	1
145	146	2
94	148	1
107	107	2
42	42	2
26	27	1
103	105	1
92	92	1
57	58	1
144	149	1
62	71	1
101	107	1
126	127	1
37	38	2
84	85	1
157	159	1
130	138	1
94	95	1
73	74	1
167	167	2
154	155	1
76	82	1
102	102	1
134	135	1
83	84	1
130	137	1
6	7	1
62	106	1
138	139	1
121	122	1
34	35	1
132	133	1
92	117	1
85	85	1
50	55	1
144	145	1
