32	32	1
132	134	1
73	73	2
238	238	5
194	194	2
81	133	1
115	116	1
67	67	2
0	0	1
182	182	5
184	184	3
110	117	1
237	237	3
123	126	2
7	41	1
234	234	1
204	234	1
180	180	1
50	50	1
202	202	3
52	75	3
216	237	1
1	1	1
20	20	2
172	172	1
24	24	1
217	217	5
242	242	2
159	162	1
136	136	2
27	30	1
110	110	3
31	31	2
98	99	1
2	7	1
195	195	2
223	224	1
58	58	6
29	61	1
35	36	1
141	141	1
205	205	2
13	13	1
57	57	1
211	211	4
207	207	5
123	127	3
127	132	1
163	163	3
36	36	1
102	102	3
154	156	1
30	157	1
213	213	1
231	231	2
201	201	1
53	53	3
104	104	2
95	95	1
167	167	2
79	79	3
27	27	2
187	223	1
37	38	1
121	133	1
117	117	1
107	107	2
140	140	3
101	101	3
19	19	2
127	174	2
230	230	2
163	166	1
194	198	1
60	70	1
15	15	2
135	151	1
46	110	1
170	176	1
112	112	1
71	99	1
152	152	1
176	176	1
117	118	2
12	13	1
44	44	1
124	124	1
112	113	1
123	123	1
159	159	4
158	158	2
145	145	2
175	176	1
135	165	2
210	213	2
143	143	1
170	207	1
232	232	2
78	79	2
180	181	3
227	227	3
197	220	1
126	151	1
36	218	1
211	214	1
59	63	1
37	157	1
61	61	3
73	76	1
113	113	3
71	71	2
57	133	1
44	46	1
178	179	1
204	206	1
150	186	1
99	99	1
108	108	2
165	185	1
37	37	1
171	171	3
8	8	1
122	123	3
156	226	1
35	35	2
9	15	1
111	112	1
228	228	1
5	6	1
199	199	2
112	177	1
225	229	1
60	60	1
26	55	1
139	139	2
185	196	1
222	222	1
173	173	1
26	27	1
169	170	1
14	16	2
38	38	1
161	199	1
198	198	1
19	22	1
63	63	2
144	145	1
152	153	1
208	232	2
56	165	1
97	207	2
228	229	3
34	35	1
81	81	1
161	161	1
118	181	1
193	195	2
28	29	1
11	11	2
64	204	2
55	63	1
52	82	1
137	182	2
188	188	5
149	173	1
146	188	3
160	160	2
101	102	1
19	36	1
69	69	1
47	241	2
148	148	1
85	105	1
72	86	1
29	47	2
102	103	1
119	119	1
218	239	1
16	21	2
166	166	2
77	103	1
189	198	1
125	126	1
106	106	2
116	163	1
47	47	3
210	210	1
192	192	2
72	77	1
45	45	1
7	8	1
10	10	3
85	85	1
62	62	3
200	200	1
181	182	1
70	70	2
22	22	1
16	56	1
131	131	1
137	169	1
116	116	3
177	177	2
144	161	1
105	105	1
7	13	1
213	215	1
9	9	1
101	116	2
112	139	1
225	225	2
210	211	1
84	86	1
200	234	2
120	120	1
150	173	1
84	84	1
66	66	1
65	75	1
190	190	1
34	34	3
214	214	1
161	196	1
108	179	1
68	91	1
168	168	3
193	193	3
16	17	1
15	16	1
233	233	2
83	83	2
24	43	1
122	122	2
229	229	1
25	25	1
6	6	3
48	48	4
80	80	1
86	86	1
121	155	1
145	187	1
82	82	2
139	169	1
150	150	2
67	68	1
216	225	1
181	186	1
168	185	1
12	12	1
34	36	2
2	2	3
157	157	1
55	55	3
233	238	1
187	187	1
186	186	1
212	224	1
112	201	1
214	217	1
207	208	1
17	22	1
221	226	2
33	33	1
169	169	2
215	215	2
2	23	1
223	223	1
188	189	1
165	165	2
122	189	1
133	133	2
40	95	1
144	144	1
72	72	1
149	149	1
77	116	1
241	241	1
236	236	1
197	198	1
140	141	1
51	53	1
212	212	1
166	194	1
221	221	1
183	183	1
5	5	2
56	229	1
38	160	1
137	137	1
205	238	1
147	148	1
175	175	2
201	202	1
126	150	1
121	156	1
122	126	1
120	131	1
120	175	1
2	4	1
77	78	1
54	56	1
129	130	1
235	235	1
169	172	1
133	166	1
123	156	1
111	111	1
68	68	1
54	75	1
138	139	1
74	74	1
64	64	2
98	148	1
138	150	1
40	107	2
62	63	1
78	78	1
127	128	1
13	215	1
10	13	1
238	239	1
159	161	1
28	47	1
240	240	2
219	219	1
100	116	1
165	166	1
119	121	1
133	152	1
153	175	1
128	128	1
40	41	1
49	50	1
159	167	1
149	151	1
227	228	1
144	147	1
112	118	1
16	18	1
164	169	1
178	202	1
186	202	1
52	52	1
0	2	1
126	126	1
143	188	1
135	135	1
3	37	1
155	160	1
211	227	1
129	200	1
82	83	1
52	76	1
134	134	1
152	216	1
218	218	1
212	235	1
162	164	1
69	70	1
3	3	1
59	61	1
8	11	1
204	220	1
70	73	1
3	136	1
50	51	1
159	160	1
66	67	1
70	72	1
213	214	1
111	234	1
52	56	1
147	147	1
117	123	1
195	224	1
120	179	1
168	183	1
39	227	1
167	193	1
163	164	1
