50	50	3
132	132	2
56	56	5
62	62	2
127	129	2
91	91	5
108	124	1
134	134	4
79	121	1
59	63	2
49	49	1
25	25	4
109	109	3
77	77	2
73	73	2
84	93	1
128	128	4
58	112	1
104	115	1
100	100	5
134	143	1
88	138	1
72	82	1
141	141	3
14	14	2
86	86	1
99	99	2
135	136	1
1	13	1
133	133	1
60	60	3
61	61	2
142	142	5
15	40	1
91	97	1
24	25	1
144	144	3
62	143	1
43	47	2
20	20	5
35	47	1
65	91	1
76	76	2
116	118	2
129	129	1
58	58	3
103	103	1
37	117	1
40	73	1
66	67	4
70	70	5
67	141	2
57	58	1
79	79	3
110	112	1
15	16	2
65	66	2
87	90	1
85	85	1
105	130	2
114	121	1
80	105	1
4	14	1
78	107	1
93	94	3
37	37	5
138	138	1
58	59	4
3	11	1
111	116	1
96	96	4
9	10	1
120	137	1
131	131	5
22	23	1
65	65	2
97	97	1
8	8	2
128	130	1
92	92	3
34	34	5
52	52	3
90	90	2
67	82	1
101	102	2
32	49	2
117	118	1
102	103	2
90	96	1
9	9	2
65	67	1
135	135	3
105	105	1
4	15	1
34	36	1
23	23	5
75	75	4
81	81	2
19	26	1
88	88	4
43	43	1
33	37	2
21	21	1
116	116	2
92	126	1
140	140	2
31	99	1
98	101	1
33	33	2
17	17	3
110	110	3
11	11	3
110	122	1
89	89	3
115	115	1
101	117	1
124	124	3
107	107	2
16	36	1
125	126	2
99	101	1
132	140	1
84	85	1
12	25	1
136	138	1
75	76	2
39	39	2
126	126	1
90	91	1
41	41	2
76	77	1
127	131	2
94	94	4
61	128	1
77	97	3
39	40	2
35	35	3
121	121	3
27	27	6
42	42	5
39	68	1
65	92	1
28	29	2
83	84	1
136	136	1
111	114	1
51	67	1
55	82	1
69	69	3
55	55	1
95	95	6
70	74	1
50	51	1
87	87	1
28	102	1
77	78	1
104	104	3
138	139	2
98	98	1
3	5	2
58	61	1
6	40	1
50	143	1
54	140	1
8	9	1
43	110	1
23	37	1
22	22	4
145	146	1
8	40	1
74	94	1
10	136	1
54	82	1
94	95	1
116	120	1
29	29	3
91	92	1
13	32	1
92	93	3
2	133	1
93	93	3
27	39	1
28	141	1
22	38	2
119	119	1
141	142	3
140	141	2
65	94	1
85	110	1
58	82	1
8	41	1
51	138	1
69	90	2
51	52	1
105	115	1
74	81	1
110	113	3
10	10	2
27	30	1
90	94	1
64	64	2
48	48	3
99	100	2
35	36	2
5	23	1
56	62	1
66	66	2
101	101	4
31	102	1
79	123	1
56	105	1
22	25	1
24	24	2
72	121	1
36	38	1
63	94	1
112	139	1
102	102	2
52	73	1
115	116	2
92	110	1
6	8	1
96	124	1
28	28	2
37	38	1
78	78	1
13	30	1
54	55	1
105	106	1
33	35	1
68	96	1
77	98	1
106	106	1
127	127	1
138	146	1
144	145	2
71	72	2
49	104	1
3	14	1
124	129	1
50	85	1
42	101	1
5	6	1
107	132	1
4	4	2
29	30	1
112	112	3
37	42	1
29	94	1
125	125	3
85	86	1
117	117	1
97	104	1
106	107	1
94	106	1
8	96	1
73	104	1
84	84	2
51	70	1
139	139	2
41	43	1
20	40	1
129	131	1
5	69	1
11	41	1
64	101	1
28	33	1
53	53	2
38	40	1
38	38	2
117	127	1
72	73	1
49	54	1
89	90	1
81	101	1
79	108	2
81	127	1
108	109	1
122	122	3
70	85	1
47	47	2
57	57	1
89	119	1
137	137	1
99	122	1
105	125	1
96	131	1
75	114	1
88	89	1
95	97	1
0	0	2
37	40	1
13	13	2
74	74	1
11	12	1
119	120	1
69	70	1
16	16	1
38	39	1
130	130	3
123	130	1
86	87	1
41	61	1
63	105	1
98	139	2
100	101	1
30	30	1
108	117	1
123	125	1
71	71	1
51	51	2
27	31	1
62	67	1
70	71	1
88	91	2
15	15	1
127	130	1
96	109	1
31	31	1
76	87	1
113	125	1
54	54	2
32	32	2
2	2	1
23	95	1
72	72	2
121	123	1
84	88	1
129	137	1
29	32	1
31	87	1
57	97	1
102	108	1
3	4	1
6	6	1
62	82	1
104	120	1
14	92	1
1	1	1
63	63	1
66	69	1
36	39	1
71	87	1
52	106	1
82	82	1
113	113	2
68	68	1
128	136	1
62	73	1
118	120	1
118	119	1
116	119	1
62	66	1
123	123	1
26	64	1
42	43	1
118	125	1
62	70	1
5	13	1
74	75	1
4	17	1
9	22	1
133	141	1
25	32	1
