35	35	5
31	31	7
96	96	6
60	61	1
41	41	4
66	67	4
103	103	8
51	51	4
28	28	5
100	101	4
90	93	1
95	113	1
60	60	4
32	33	1
54	55	1
34	34	6
78	78	11
88	95	2
46	46	9
62	62	4
98	98	3
59	59	4
76	76	6
29	29	6
110	111	1
89	89	3
30	30	8
93	93	3
61	84	1
78	80	1
45	45	5
54	54	5
73	77	2
74	74	4
113	113	3
32	32	5
36	36	5
24	24	5
104	104	4
97	97	6
82	101	1
70	70	2
53	53	3
63	63	2
86	96	1
50	51	4
105	106	1
75	75	4
19	22	1
43	43	4
43	51	1
48	48	5
52	52	2
40	40	7
44	44	4
111	111	4
75	83	1
80	103	1
96	105	1
76	77	1
98	100	3
103	105	1
78	79	1
52	53	2
25	25	3
87	107	2
61	62	2
21	22	2
22	23	3
79	79	2
36	37	1
92	92	6
99	99	4
49	49	3
81	82	1
61	63	1
25	30	2
79	80	4
20	40	1
80	80	5
23	23	1
106	107	1
26	26	3
46	51	1
47	47	5
95	95	4
79	104	1
27	27	2
97	114	1
82	82	4
32	96	1
86	88	1
91	91	6
25	26	1
82	84	1
33	33	3
50	50	2
55	55	4
20	21	1
91	106	1
110	110	4
66	66	1
102	102	3
20	20	1
35	50	1
37	37	1
81	81	4
55	57	1
70	74	2
112	112	7
84	84	2
105	105	1
94	94	3
81	84	1
106	106	2
68	69	1
71	73	1
101	101	3
114	114	1
56	56	2
105	107	1
39	39	2
97	98	1
74	77	1
73	83	1
29	31	2
33	35	1
26	31	1
61	61	1
52	59	1
29	30	1
67	68	2
27	61	1
74	76	1
77	100	1
100	100	1
44	51	1
37	38	1
31	32	1
80	81	1
77	77	3
111	113	1
41	60	1
101	110	2
89	92	2
73	74	1
47	48	1
38	38	3
24	25	3
35	36	1
58	59	1
57	57	2
89	105	1
101	102	1
58	60	1
69	76	1
28	31	1
99	100	1
45	46	2
57	58	1
71	74	1
47	63	1
69	71	1
40	41	1
73	73	1
44	47	1
86	94	1
56	57	1
27	86	1
34	76	1
88	110	1
91	112	1
29	80	1
42	66	1
42	46	1
21	21	1
88	107	1
70	71	1
85	85	2
89	90	1
41	43	1
87	87	2
72	73	1
89	94	1
33	34	1
82	100	1
49	51	1
82	102	1
78	96	1
34	35	1
21	42	1
48	49	1
30	31	1
23	92	1
109	109	1
49	50	1
77	101	1
49	67	1
107	107	1
