70	70	1
63	63	2
130	130	3
127	127	2
18	18	4
127	133	2
65	65	3
48	52	1
49	51	1
75	113	1
19	21	1
123	124	3
11	11	4
101	101	2
137	137	2
80	80	2
104	104	1
75	75	2
135	135	2
20	20	1
76	111	1
102	102	1
116	116	4
90	90	1
94	94	2
15	16	1
38	38	5
15	24	2
91	92	3
139	139	3
73	77	3
140	140	2
60	60	2
2	40	2
25	25	1
33	34	1
50	51	2
17	18	1
60	61	2
107	108	1
64	88	1
26	27	2
136	137	1
59	114	1
111	137	1
132	133	1
99	105	3
77	77	1
77	78	1
83	83	2
103	104	2
131	131	1
23	23	2
36	37	1
10	27	1
74	74	1
36	36	1
73	74	2
31	31	2
143	143	1
128	128	3
109	109	3
43	43	1
71	71	4
61	61	1
129	130	1
51	51	1
38	125	2
84	85	1
101	102	2
90	96	2
14	30	1
68	87	3
107	107	3
98	98	2
37	37	3
92	93	1
10	10	1
118	118	4
14	16	1
87	87	1
1	1	1
111	111	3
57	102	1
29	29	2
54	122	1
129	135	1
30	30	1
88	88	3
3	3	1
92	107	1
35	35	2
47	50	2
18	19	2
13	76	2
22	22	1
17	30	2
97	98	1
55	122	2
123	123	2
114	114	1
99	99	1
60	76	1
8	9	1
93	93	2
0	19	1
68	68	2
0	0	2
115	117	1
99	104	1
95	113	1
64	64	3
62	62	1
79	80	2
91	91	3
132	132	4
82	82	2
100	100	1
62	109	1
138	138	1
101	103	1
72	75	1
128	131	1
69	69	1
78	79	1
33	33	2
117	117	2
100	101	3
103	103	2
56	121	2
86	87	2
94	106	1
78	78	3
16	16	1
67	67	1
92	92	1
97	97	2
141	141	2
32	33	2
10	11	1
138	139	1
103	126	1
61	119	1
79	85	1
26	26	2
105	108	2
121	121	2
98	112	1
2	4	2
54	110	1
55	99	1
100	103	1
8	8	1
65	81	2
39	39	2
30	31	1
76	76	1
106	107	1
6	9	1
52	89	1
50	50	2
135	138	1
13	84	1
57	57	1
128	129	1
126	135	1
0	1	1
96	96	2
74	96	1
125	125	1
13	18	1
80	84	1
14	14	1
55	55	1
41	41	1
119	119	1
73	73	1
104	109	1
114	115	1
0	17	1
119	120	1
65	66	1
142	142	1
124	124	1
28	28	1
17	17	1
83	84	1
