185	186	3
163	183	1
185	185	4
18	33	1
183	183	3
165	165	1
205	205	3
73	73	2
106	106	6
42	42	3
114	114	1
39	63	1
180	184	2
52	57	1
42	206	2
123	123	3
101	101	8
95	95	1
221	221	2
14	64	1
41	78	1
163	214	1
128	128	2
130	130	3
131	158	1
4	6	3
177	177	4
32	32	5
204	204	3
236	236	7
162	162	3
239	240	2
134	168	1
6	6	6
120	170	1
227	227	4
160	160	6
152	172	2
228	228	8
15	56	2
58	58	3
20	71	1
206	207	1
78	78	4
108	108	4
80	80	6
21	33	1
227	230	1
79	79	4
117	118	1
174	174	5
203	203	3
180	180	5
66	68	3
198	198	4
2	3	2
23	23	4
28	28	2
99	99	2
46	46	5
214	214	3
71	99	3
213	214	2
117	119	1
163	163	3
119	120	1
117	122	3
18	18	4
135	159	1
188	188	2
120	120	3
192	209	1
63	80	2
21	21	1
237	237	2
16	33	1
160	161	2
233	233	3
140	140	4
62	174	2
119	119	4
98	107	1
126	127	1
36	36	7
67	67	2
235	235	8
241	241	4
160	162	1
113	200	2
45	62	1
190	191	2
226	227	3
40	40	5
134	134	7
140	147	1
202	202	7
156	156	3
151	151	3
239	239	5
158	159	3
43	44	1
166	167	4
53	76	1
220	220	2
105	135	2
216	217	2
1	56	1
16	189	1
72	77	2
218	218	6
145	146	4
56	56	5
140	141	1
26	204	1
24	25	2
8	190	1
209	209	5
71	79	1
204	228	1
57	79	1
74	75	2
202	206	1
11	11	5
105	105	4
184	184	3
81	87	1
98	111	1
154	154	5
29	30	1
219	219	4
167	186	3
121	121	5
187	187	3
181	183	1
75	76	2
172	179	1
72	72	1
84	102	1
176	176	1
47	47	6
216	216	2
237	239	2
35	48	1
10	10	3
149	149	3
162	165	1
215	216	1
206	206	4
196	222	1
59	60	1
210	222	1
42	43	2
157	157	4
16	45	1
221	235	1
230	233	1
142	143	1
103	104	2
126	193	1
88	88	2
83	84	1
15	53	1
201	202	1
143	144	1
70	70	5
190	190	3
131	131	3
212	212	5
54	182	1
69	70	2
107	118	1
84	84	3
49	72	1
63	64	4
61	68	1
54	68	1
113	113	2
4	13	1
165	188	1
23	57	1
109	113	1
107	107	4
127	127	1
225	225	1
41	41	1
3	3	2
49	180	1
153	161	1
38	38	3
85	102	1
48	48	4
124	124	7
17	17	2
174	175	1
240	240	7
54	55	1
48	55	1
171	171	3
207	207	2
101	102	2
74	74	2
217	217	2
199	199	4
223	223	5
133	165	1
201	201	3
97	243	1
51	53	1
242	242	2
107	117	1
172	172	2
126	126	5
69	69	1
6	8	2
232	232	5
4	5	2
194	200	1
179	179	5
61	61	3
26	27	1
135	137	2
136	222	1
19	173	1
7	70	1
201	230	1
178	178	2
109	109	3
208	208	3
190	197	1
77	77	1
25	25	1
21	22	3
158	158	3
213	213	3
174	203	2
33	33	3
107	133	1
19	19	4
68	160	1
142	142	3
124	127	1
104	107	1
71	73	1
54	66	1
222	222	3
152	153	2
223	225	1
59	59	4
133	133	3
175	175	3
80	81	1
113	118	1
211	213	3
193	195	1
12	12	2
18	21	1
16	16	1
205	217	1
113	114	3
43	45	1
86	86	2
18	59	2
64	162	1
194	195	1
18	23	2
9	9	1
68	68	4
140	161	1
198	237	1
200	200	3
80	165	1
7	7	7
85	139	1
56	57	1
8	9	1
215	217	1
81	81	1
85	85	3
100	100	2
174	176	1
211	211	2
194	204	1
4	210	1
172	201	1
30	47	1
9	24	1
226	226	4
22	50	1
193	193	3
76	76	4
25	153	1
153	153	2
20	20	3
22	34	3
220	221	1
38	39	1
166	166	3
20	174	1
33	38	2
11	13	1
173	182	1
193	239	2
122	122	3
238	238	1
104	123	1
96	96	1
130	154	1
115	164	1
103	103	1
9	37	1
123	184	3
214	233	1
25	204	1
208	209	1
144	144	2
200	206	1
159	159	2
192	192	4
27	28	1
196	196	1
71	71	4
199	216	2
145	145	4
29	48	1
133	140	2
34	34	1
119	177	1
2	61	1
137	142	2
165	166	1
161	161	4
231	231	2
167	167	5
63	63	1
43	43	2
111	111	2
211	220	1
102	103	1
166	182	1
139	139	6
52	53	1
195	195	4
144	146	1
169	169	2
60	60	3
210	210	1
224	225	1
18	192	1
134	151	1
110	121	1
180	181	1
106	109	1
98	98	1
66	66	2
25	31	1
16	17	1
110	118	1
131	134	1
144	173	1
171	237	1
31	33	1
73	133	1
198	199	1
137	137	4
8	23	2
174	222	1
135	135	1
148	149	1
140	142	1
134	135	1
155	155	1
26	26	1
181	181	4
77	78	1
0	0	2
30	30	2
19	23	1
13	17	1
138	138	4
109	148	1
124	164	1
77	133	1
37	37	2
110	110	1
142	161	1
26	135	1
71	74	1
187	206	1
143	145	1
195	199	1
82	82	3
14	16	1
109	110	1
64	65	1
54	54	2
39	39	3
49	86	1
179	206	1
164	164	1
46	109	1
154	167	1
62	63	2
28	96	1
36	41	1
14	14	3
40	139	1
150	150	1
75	75	2
141	166	1
97	203	1
104	108	1
46	216	1
63	67	1
128	137	1
230	230	2
206	209	1
64	64	2
170	171	1
12	13	1
163	201	1
152	152	3
179	204	1
61	162	1
125	125	2
24	24	1
15	16	1
189	189	2
155	166	1
173	173	1
61	109	1
84	103	1
116	116	2
100	129	1
13	13	1
55	65	1
65	65	3
9	43	1
59	80	1
156	158	1
114	115	3
164	188	1
216	224	1
9	10	1
234	236	1
16	108	1
41	48	1
176	177	1
68	72	1
59	146	1
28	29	1
197	197	1
201	236	1
186	189	1
175	190	1
57	60	1
45	45	1
37	38	3
88	120	1
161	164	1
0	14	1
104	104	1
194	194	1
42	114	1
222	227	1
14	15	1
52	108	1
186	187	1
8	8	2
153	156	1
118	118	1
120	174	1
31	31	2
175	191	1
99	115	1
122	123	1
17	51	1
25	30	1
207	216	1
191	196	1
147	147	1
170	170	1
53	53	1
18	20	1
123	134	1
142	157	1
209	228	1
60	106	1
119	121	1
148	148	1
34	35	1
139	192	1
20	219	1
184	185	1
124	129	1
83	108	1
13	48	1
153	173	1
12	37	1
12	15	1
20	21	1
191	191	1
168	168	1
97	97	1
186	186	1
77	79	1
60	61	1
222	223	1
61	62	1
49	63	1
55	55	1
124	165	1
99	101	1
7	23	1
66	163	1
7	8	1
194	212	1
179	180	1
101	109	1
200	225	1
221	222	1
18	77	1
187	208	1
3	14	1
41	209	1
207	208	1
234	234	1
31	36	1
131	169	1
76	80	1
202	208	1
41	180	1
50	50	1
116	143	1
204	205	1
80	125	1
212	224	1
0	3	1
111	201	1
84	147	1
186	188	3
218	220	1
43	217	2
22	36	1
133	150	1
124	131	1
175	176	1
26	41	1
238	240	1
229	229	1
187	188	1
51	103	1
168	192	1
235	236	1
197	198	1
83	83	1
185	189	1
212	220	1
121	122	1
36	58	1
118	120	1
100	239	1
51	51	1
10	23	1
11	238	1
147	148	1
