19	19	2
173	224	1
58	58	1
100	100	1
159	159	2
213	213	3
56	56	2
46	179	1
55	56	1
113	113	2
42	42	5
189	192	1
61	61	3
11	12	1
191	191	1
94	147	1
23	23	1
207	207	3
237	238	1
66	66	1
213	235	1
199	199	2
200	200	4
80	81	2
198	199	1
239	239	3
79	79	1
36	37	2
100	111	1
85	85	1
236	236	2
167	199	4
209	209	3
171	171	1
33	39	2
210	211	2
200	222	1
90	90	3
43	43	4
221	221	1
119	119	1
113	114	1
65	181	1
175	175	2
242	242	2
201	229	1
97	98	1
150	150	1
179	220	1
192	218	1
203	204	2
17	23	1
49	49	1
214	214	2
216	216	4
219	219	1
74	74	6
71	73	1
166	199	1
31	31	1
160	160	2
179	180	1
184	184	3
195	196	1
2	2	1
68	68	2
203	203	3
10	10	6
29	30	1
246	246	1
60	61	1
194	194	2
108	116	1
24	24	3
47	47	3
74	99	1
176	176	1
226	226	2
173	173	2
32	32	1
11	154	1
197	197	1
26	26	2
232	232	1
205	205	2
59	165	1
17	26	1
116	117	2
95	95	2
115	115	2
7	7	1
152	153	1
65	65	1
38	38	1
87	87	1
20	20	2
95	97	2
245	245	1
104	104	1
56	235	1
101	109	3
212	212	3
12	12	1
190	190	2
70	76	1
16	33	1
8	8	4
234	234	2
233	233	1
184	185	1
96	96	2
153	154	1
81	81	1
110	110	1
59	59	1
77	77	2
50	51	2
51	51	1
195	195	3
4	4	3
171	176	1
210	210	1
11	11	2
22	22	1
7	8	1
118	119	1
188	188	2
19	37	1
157	158	1
89	89	1
145	145	2
55	55	1
65	86	1
32	208	1
36	39	2
165	166	2
211	211	2
183	183	2
27	27	3
15	37	1
71	75	2
192	193	1
209	247	1
163	164	3
151	153	1
169	169	4
205	206	1
63	170	1
52	202	1
33	33	1
153	153	1
116	116	2
34	34	1
92	92	2
15	15	2
92	93	1
219	240	2
49	95	2
38	42	1
230	233	1
198	198	1
70	83	1
55	246	1
56	166	1
192	192	1
152	209	1
188	189	1
63	63	1
78	79	1
53	53	2
17	17	1
91	98	1
70	100	2
15	39	1
247	248	1
57	58	4
101	162	1
204	204	1
45	45	1
114	159	1
227	228	1
107	107	1
86	86	1
44	44	1
82	101	1
230	230	1
112	112	2
37	39	1
182	183	1
7	174	2
28	45	1
181	182	1
214	215	1
225	225	1
180	225	1
89	180	1
99	99	1
37	37	4
232	233	1
58	59	1
223	223	1
105	108	1
164	195	1
177	177	1
189	191	1
16	16	2
184	246	1
89	91	1
15	211	1
69	69	1
61	64	1
97	97	1
90	97	1
161	161	1
31	32	1
105	105	2
88	88	1
70	71	1
6	6	1
217	217	2
230	231	1
222	245	1
7	160	1
28	28	1
22	23	1
244	244	1
179	179	2
71	72	3
48	48	1
39	39	1
227	227	1
167	185	1
218	218	1
241	241	1
209	210	1
177	178	1
98	98	1
56	57	1
77	86	1
206	206	1
116	173	1
229	231	1
49	177	1
2	94	1
156	156	1
91	91	1
172	246	1
201	201	2
177	194	1
189	211	1
238	238	1
193	193	1
6	7	1
246	247	1
41	42	1
40	40	1
30	30	1
5	5	1
147	147	1
186	187	1
76	86	1
40	41	1
178	194	1
33	45	1
164	164	1
247	247	2
157	157	1
89	181	1
29	166	1
