128	128	5
16	16	2
108	108	3
44	44	8
65	68	1
141	141	7
2	3	4
23	177	1
113	113	3
143	145	4
31	57	2
96	96	7
154	154	4
127	127	5
155	155	2
125	147	2
143	143	5
110	125	1
17	18	2
166	167	1
63	104	2
11	11	2
14	14	8
119	121	1
70	70	1
137	138	5
86	136	1
28	31	3
50	50	3
137	137	3
71	72	1
54	109	2
7	7	5
73	73	6
56	151	2
65	65	5
85	85	7
55	64	1
178	178	7
164	166	2
54	63	1
84	84	3
121	122	2
5	6	2
17	21	1
32	32	7
64	64	7
125	125	9
88	107	1
86	86	4
87	87	10
23	123	1
23	24	1
138	138	3
66	72	1
29	29	2
27	27	3
177	178	2
60	61	1
58	58	8
118	121	3
21	24	1
98	133	1
123	124	3
173	173	7
149	158	2
99	124	2
90	93	1
18	36	1
29	31	3
53	63	3
43	43	5
115	116	1
26	26	4
111	111	3
98	98	2
106	106	7
83	84	1
53	53	5
123	123	4
54	54	3
44	101	1
102	102	10
128	160	1
113	148	2
24	125	1
157	157	2
64	67	1
43	45	3
117	161	1
73	74	2
8	12	1
59	59	6
6	6	5
107	128	2
152	153	3
124	127	1
142	143	3
31	40	1
74	74	4
50	51	3
150	150	4
117	118	1
139	139	5
33	33	5
107	108	3
34	34	7
128	152	1
144	144	2
118	156	3
40	120	1
15	15	7
151	151	10
107	107	4
25	26	2
142	142	3
11	12	2
4	4	3
136	138	1
33	34	1
20	44	1
67	67	5
55	76	1
164	171	2
97	97	4
156	156	7
71	71	3
37	37	2
19	19	4
25	25	3
103	104	1
129	129	5
135	135	3
105	120	2
100	100	3
106	107	1
93	148	1
176	176	4
106	115	1
170	170	4
92	92	3
37	62	2
54	96	1
13	14	1
104	104	7
53	54	5
62	119	1
171	171	6
122	122	5
19	20	1
35	35	2
133	133	7
66	66	3
11	33	1
73	171	1
76	146	1
124	124	9
85	161	1
56	57	1
87	102	2
98	114	1
156	157	2
126	126	6
75	154	1
93	93	3
62	62	1
71	115	1
61	176	1
51	91	1
94	95	3
6	68	1
29	63	1
82	82	4
119	125	1
55	55	8
134	134	4
35	121	1
177	177	2
157	158	5
23	23	2
161	161	4
166	166	6
38	38	3
79	80	1
1	66	1
138	139	1
146	146	4
61	134	2
3	3	2
37	153	2
149	149	2
96	142	1
129	132	1
159	159	8
7	15	1
0	1	2
7	9	2
136	136	5
31	31	3
158	158	8
60	60	1
76	173	3
115	115	4
72	72	4
52	56	1
10	12	2
169	169	3
18	18	2
112	135	1
19	135	1
32	96	1
37	55	1
114	133	2
153	154	3
110	111	2
130	131	1
75	76	4
36	36	5
167	167	4
77	78	2
131	131	9
12	12	3
88	173	2
160	161	4
165	167	1
83	83	3
168	168	2
125	126	1
18	147	1
160	160	2
172	172	5
126	138	1
66	67	1
14	54	2
52	63	1
20	20	3
75	155	1
82	83	2
76	76	2
117	117	2
40	42	1
91	99	2
121	121	1
59	156	1
140	140	4
150	163	1
95	95	8
100	138	1
79	79	8
106	137	1
86	101	1
54	57	2
130	130	6
168	169	2
63	63	5
30	30	2
9	62	2
114	123	2
40	44	1
145	145	9
2	17	1
5	16	1
169	170	1
152	152	1
56	56	2
52	53	1
23	26	3
153	153	4
104	106	4
125	135	1
169	173	1
28	44	2
125	138	1
2	2	2
118	131	1
10	16	1
85	87	2
105	105	5
155	160	1
26	27	1
140	142	1
164	165	2
10	10	7
133	149	1
71	81	1
31	51	1
100	167	1
42	101	1
180	180	6
3	4	1
21	22	2
71	74	1
150	168	1
103	107	2
27	63	1
110	113	1
4	18	1
72	74	1
128	166	1
28	28	4
20	73	1
104	113	1
143	150	1
99	99	2
68	80	1
95	151	1
41	41	2
71	96	1
94	94	4
114	116	1
58	63	1
9	10	2
112	112	3
43	56	1
55	139	1
44	116	2
95	169	1
88	88	3
113	135	1
24	30	1
173	174	1
32	130	1
22	22	1
103	103	4
54	66	1
94	141	1
134	135	2
134	150	1
10	17	1
82	87	1
167	170	1
33	35	1
90	90	2
137	142	1
5	5	2
131	171	3
65	89	1
9	15	1
137	139	1
3	38	1
2	4	4
18	55	2
6	13	1
78	78	3
110	112	2
64	65	1
10	43	1
105	106	1
148	148	2
81	82	1
89	89	5
112	114	2
113	129	1
171	172	2
74	160	1
165	165	5
75	75	1
8	9	2
120	121	1
118	118	3
112	113	3
97	145	1
58	62	1
134	136	2
72	175	1
39	39	4
77	172	1
80	80	6
174	175	1
43	44	1
72	100	1
61	62	1
17	82	1
20	23	2
22	25	1
24	24	4
93	100	1
67	83	1
57	58	1
153	166	1
128	129	1
88	89	2
52	52	1
32	52	2
175	175	1
9	27	1
60	63	2
103	109	1
88	102	1
1	1	4
32	36	1
148	149	2
109	109	1
161	162	2
93	97	1
110	110	1
164	164	1
159	161	1
122	134	2
84	86	1
0	138	1
91	91	1
73	78	1
55	112	1
28	67	1
106	110	2
121	129	1
160	162	1
80	121	2
54	58	1
96	112	2
52	94	1
34	54	1
66	143	1
132	132	2
16	77	1
45	45	1
163	165	1
105	147	1
116	120	1
122	123	1
114	114	6
108	109	1
77	77	3
120	120	1
122	135	1
100	102	1
72	168	1
45	117	1
13	58	2
167	173	1
89	90	1
122	124	1
142	148	1
7	146	1
135	136	1
80	106	1
156	159	1
51	51	5
127	130	1
17	17	3
163	170	1
33	45	1
106	120	1
87	125	1
55	82	2
85	93	1
20	144	2
100	173	2
99	100	1
50	52	1
24	31	1
36	38	1
81	81	2
7	8	1
59	60	1
165	166	1
11	19	1
5	44	1
164	170	1
57	157	1
174	174	1
83	95	1
8	15	1
57	57	4
66	158	1
80	81	1
21	21	1
79	176	1
0	0	1
0	142	1
35	36	1
132	133	2
155	156	3
10	15	1
118	140	1
143	144	2
57	174	1
80	110	1
104	166	1
104	105	2
27	44	1
98	101	1
162	162	1
67	68	1
54	55	1
36	65	1
11	84	1
177	179	1
10	11	2
126	132	1
179	179	2
60	115	2
7	22	1
106	141	1
49	49	1
81	118	1
61	171	1
92	93	1
63	99	1
98	99	1
68	114	1
30	87	3
4	94	1
123	160	1
86	90	2
68	68	1
34	37	1
40	51	1
152	168	1
93	95	2
4	5	2
107	137	1
12	95	1
37	157	1
114	159	1
3	41	1
160	176	1
145	146	1
13	13	1
51	89	1
101	107	1
152	156	1
55	65	1
118	123	1
40	158	1
105	109	1
29	32	1
26	28	1
37	174	1
116	116	1
108	139	1
21	29	1
78	79	1
7	11	1
147	147	1
65	88	2
13	15	1
106	113	1
36	37	1
28	29	1
82	132	1
61	174	1
65	72	1
35	102	1
90	91	1
42	42	1
34	75	1
8	8	1
82	84	1
112	150	1
60	118	1
163	164	1
114	153	1
12	13	1
146	152	1
20	21	1
118	169	1
50	119	1
132	136	1
132	156	1
139	167	1
138	176	1
9	9	1
