168	169	1
223	223	3
157	179	1
73	73	3
189	190	1
138	138	3
49	139	1
179	179	3
60	68	2
40	84	2
152	153	4
132	196	2
146	146	2
8	8	2
68	70	1
53	60	1
137	137	4
155	188	1
165	165	2
68	69	1
164	164	3
156	157	2
28	28	2
211	211	5
160	179	1
58	129	1
106	106	2
129	129	4
36	36	1
137	138	1
16	16	1
207	207	3
13	13	4
81	115	1
184	184	2
3	146	1
225	225	5
203	203	3
202	202	1
174	175	2
17	17	3
237	240	1
142	142	2
191	191	2
234	234	2
18	198	1
31	31	2
141	148	1
20	22	2
54	54	6
150	151	2
222	222	1
178	178	3
112	115	1
30	53	1
32	33	2
15	63	1
67	67	4
207	208	1
191	193	1
141	141	3
198	198	2
140	140	3
6	6	3
27	228	3
170	170	1
82	115	2
157	157	4
203	204	2
81	82	3
61	62	2
49	49	2
237	237	3
220	220	1
208	208	1
125	125	3
82	82	2
23	23	1
169	179	1
7	7	3
19	178	1
96	96	1
39	39	4
180	180	3
113	118	1
138	140	1
237	239	1
156	156	1
64	70	1
150	150	2
49	124	1
42	42	2
35	35	2
55	56	2
77	124	2
76	77	2
82	90	1
136	136	4
101	101	3
171	172	1
152	154	1
233	234	1
192	192	2
190	190	2
24	26	1
190	194	1
57	157	1
73	74	1
77	77	1
145	156	2
65	97	1
40	222	1
169	184	2
9	69	2
4	5	1
110	179	2
133	140	1
43	43	2
122	122	3
153	154	3
158	158	1
142	148	1
228	228	1
99	99	3
88	88	2
45	46	3
59	59	2
179	180	4
75	75	5
68	68	4
108	130	1
52	57	2
76	82	1
45	45	4
235	236	3
141	145	1
186	186	2
77	81	3
195	195	1
124	124	2
123	123	3
213	216	1
126	126	3
129	135	1
104	179	1
161	161	3
19	19	3
36	239	1
47	47	2
156	158	2
3	20	1
128	129	1
2	16	2
104	174	4
134	134	2
117	125	1
133	199	1
239	241	2
119	119	1
90	116	1
54	139	1
128	128	1
52	56	1
74	74	6
136	137	2
23	63	1
209	209	1
2	5	2
161	180	1
165	168	2
235	235	2
180	181	1
38	66	1
161	162	2
53	53	2
49	116	1
40	51	1
28	121	1
151	151	1
218	221	1
4	4	3
164	181	2
32	210	1
3	16	2
121	138	1
105	105	3
2	3	2
12	60	1
18	18	2
55	55	2
12	12	1
33	208	2
194	194	2
2	18	3
54	55	1
10	10	4
150	185	1
59	128	1
27	80	1
203	227	2
2	7	1
160	232	1
21	61	1
212	213	1
135	135	2
200	200	2
119	121	1
86	86	1
48	49	1
224	224	2
131	131	2
103	110	1
195	196	3
63	181	1
30	30	1
104	104	2
25	25	2
223	224	2
210	210	2
232	232	1
154	162	1
199	199	1
144	144	3
38	38	2
153	153	2
25	26	1
15	16	1
120	120	2
83	187	1
122	129	1
37	37	2
11	12	1
121	131	1
205	216	3
168	168	1
226	227	1
53	229	1
100	194	1
239	240	1
10	69	1
60	66	1
42	43	1
42	66	1
85	85	1
29	29	3
145	161	2
230	231	1
108	123	1
139	168	1
163	165	1
205	224	1
139	140	2
63	63	2
196	196	2
157	196	1
174	174	1
12	14	1
84	133	1
165	186	1
118	118	1
47	89	3
197	198	1
31	69	1
159	160	1
40	190	1
153	158	2
4	6	1
169	169	3
202	203	2
189	189	1
56	56	1
234	237	1
129	168	1
80	80	1
0	55	1
184	187	1
70	72	1
84	84	3
6	229	1
234	236	1
215	215	2
217	218	1
112	112	2
242	242	2
28	29	1
72	72	2
101	102	1
33	38	1
52	53	2
225	238	2
0	0	1
101	169	1
33	56	1
25	171	1
77	78	1
91	129	1
221	221	1
22	81	1
59	60	3
148	148	2
181	181	2
24	24	2
74	75	1
227	230	1
224	230	1
143	161	1
218	233	1
27	38	1
3	3	3
58	58	3
185	186	1
176	176	1
45	222	1
121	130	1
26	26	2
14	15	1
98	176	1
75	84	1
44	44	1
60	60	1
118	142	1
241	241	1
33	196	1
239	239	1
225	230	1
70	70	1
78	78	2
167	188	1
115	115	2
137	150	1
75	134	1
130	130	2
133	133	2
36	198	1
231	231	1
184	186	1
185	185	1
154	154	1
213	215	1
134	146	1
35	41	2
188	188	2
76	76	1
164	220	1
214	215	1
238	239	1
109	110	1
109	109	2
216	216	1
211	213	1
70	71	2
136	139	1
112	121	1
2	2	1
143	208	1
77	108	1
228	229	1
71	71	1
117	124	2
103	151	1
26	48	1
110	110	3
47	204	1
171	171	3
204	204	1
42	238	1
11	11	1
185	211	1
34	35	2
21	22	1
33	33	1
201	207	1
9	9	1
150	191	1
107	107	1
158	160	1
98	98	1
218	219	1
80	81	1
34	34	1
53	65	1
157	199	1
119	120	1
23	175	1
114	153	1
120	178	1
31	41	1
116	116	1
182	189	1
178	186	1
172	172	1
32	32	1
9	11	1
152	164	1
2	34	1
164	197	1
10	234	1
166	206	1
149	184	1
216	220	1
110	113	1
148	189	1
147	148	1
66	66	1
135	223	1
199	222	1
64	65	1
136	177	1
143	143	1
127	139	1
8	20	1
50	50	1
18	37	1
48	48	3
183	187	1
145	145	2
238	238	1
201	235	1
50	124	1
80	107	1
21	21	1
27	27	1
1	1	1
7	11	1
65	65	1
152	152	1
83	83	1
121	176	1
205	205	1
159	159	1
101	103	1
201	201	1
62	64	1
156	188	1
175	175	1
102	102	1
51	52	2
21	23	1
194	195	1
113	134	1
50	152	1
10	182	1
109	114	1
117	185	1
68	71	1
81	81	1
236	236	1
155	155	1
191	202	1
165	206	1
7	60	1
127	163	1
0	8	1
230	230	1
193	216	1
108	121	1
233	233	1
111	111	1
145	146	1
17	23	1
106	108	1
26	174	1
170	236	1
114	118	1
85	86	1
187	200	1
