72	72	2
86	86	3
107	112	1
124	124	4
73	105	1
16	17	1
8	8	1
116	116	2
89	96	1
1	18	1
130	131	1
46	47	1
4	4	2
129	129	4
34	35	2
17	17	4
2	3	1
41	90	1
140	140	2
126	126	1
119	121	1
137	137	2
7	88	1
104	104	1
78	78	1
12	13	2
169	169	4
89	89	2
127	127	2
80	111	1
74	74	1
145	147	1
88	89	1
139	139	2
163	163	2
46	57	1
98	98	2
16	73	1
104	122	1
23	47	1
33	34	1
18	67	1
153	153	2
114	114	1
119	122	1
99	99	1
11	26	1
150	157	1
99	102	1
122	122	1
112	112	1
36	36	2
23	23	3
90	120	3
24	24	2
103	103	1
158	159	1
139	140	1
139	158	1
154	154	4
133	163	1
63	63	1
109	119	1
142	142	2
112	114	2
66	66	1
159	159	1
26	26	2
105	129	1
57	73	1
147	155	1
34	34	1
82	83	2
35	35	1
57	82	1
1	1	2
167	167	1
54	57	1
69	71	1
79	80	1
15	15	1
167	168	1
58	151	1
6	6	1
14	14	3
75	75	3
113	113	2
69	100	1
24	25	1
129	130	1
94	94	1
12	12	2
97	99	1
25	38	1
162	162	3
76	76	1
82	82	1
62	75	1
142	165	1
167	169	1
101	102	2
113	114	1
85	121	1
122	123	2
7	7	2
97	119	1
86	103	1
14	27	1
114	129	2
166	166	1
164	164	2
16	47	1
78	99	1
49	49	2
80	80	1
106	106	1
48	48	1
114	132	1
2	2	3
141	141	1
146	147	1
9	86	1
43	43	3
93	93	1
104	166	2
91	91	2
118	118	1
147	148	1
63	65	1
96	96	1
134	142	1
1	16	1
68	68	1
111	114	1
7	17	1
160	170	1
7	13	1
101	101	2
10	53	1
52	53	1
86	117	1
131	135	1
51	51	2
138	159	1
73	80	1
108	108	2
46	76	1
99	100	2
107	107	2
37	38	1
86	87	1
54	54	1
143	143	1
69	103	1
64	64	1
39	130	1
124	131	1
16	16	1
37	37	1
165	166	1
141	142	1
136	136	1
93	94	1
150	158	1
162	163	1
70	70	1
64	66	1
87	91	1
39	40	1
52	66	1
24	57	1
109	109	1
110	110	1
13	13	1
102	102	1
68	89	1
147	154	1
115	115	1
20	67	1
161	161	1
92	92	1
83	151	1
123	123	1
57	57	1
2	20	1
20	47	1
9	88	1
53	53	1
77	77	1
76	126	1
46	46	1
19	21	1
130	130	1
71	74	1
