184	184	4
104	108	1
38	38	4
183	183	4
204	206	1
190	190	5
102	102	2
143	144	1
51	52	3
23	24	1
45	46	3
109	109	3
11	11	3
210	210	3
24	24	6
182	182	2
37	37	2
39	39	6
107	107	3
121	121	2
140	140	6
237	237	6
121	122	1
238	240	2
241	241	5
36	36	5
64	65	3
173	174	2
73	73	5
9	47	1
62	62	4
32	51	1
180	180	6
208	208	1
209	209	3
187	187	4
238	239	2
5	5	4
236	237	1
219	219	5
189	189	3
172	232	2
138	139	2
139	139	2
49	49	2
171	171	3
197	197	2
240	241	3
220	220	5
205	205	6
52	52	8
5	22	1
195	195	1
40	40	9
151	214	1
130	130	5
48	48	4
21	23	3
166	166	4
88	89	1
2	2	7
71	74	2
149	149	5
129	129	6
146	147	1
161	162	3
116	130	1
66	66	3
174	232	1
39	42	2
159	200	1
7	8	3
199	199	5
168	169	1
172	228	1
164	164	4
5	212	1
19	149	2
42	42	4
142	142	4
167	167	3
97	97	2
198	198	3
150	151	2
120	120	4
68	68	2
192	193	1
12	12	6
59	81	1
57	57	3
180	208	1
232	232	3
163	190	1
197	198	2
72	73	3
111	172	1
137	159	1
213	213	4
69	70	1
137	137	2
122	127	1
22	22	3
134	134	5
26	26	5
13	13	2
143	186	1
222	223	2
186	186	7
25	25	2
144	144	3
64	203	1
219	220	2
124	124	3
44	44	3
235	235	8
133	137	1
123	123	4
0	1	2
34	35	1
193	193	5
43	43	6
152	153	1
216	216	2
8	8	5
48	100	1
225	225	3
176	177	2
150	225	3
174	174	4
56	209	1
169	169	10
4	4	2
115	115	1
25	26	1
15	20	1
59	78	2
208	210	2
54	54	2
37	39	3
154	154	1
96	96	1
51	51	2
167	196	1
98	98	2
53	60	1
61	61	6
104	104	3
160	160	4
10	10	7
173	173	3
200	222	1
122	231	1
153	153	6
235	241	1
214	215	2
129	144	1
177	177	2
175	175	2
20	20	6
125	143	1
159	159	2
185	188	1
17	17	2
206	208	1
67	67	2
34	34	3
103	129	1
213	214	4
64	64	2
77	79	1
99	100	1
134	140	1
198	199	1
74	75	3
8	19	1
110	110	1
147	154	2
58	58	2
211	211	3
105	105	2
203	203	2
166	167	2
15	15	3
147	147	1
215	215	5
222	222	6
21	22	6
50	58	1
161	169	1
82	102	1
204	207	1
84	84	1
116	116	5
34	36	4
19	19	3
172	172	6
133	190	2
239	239	5
69	69	4
148	149	1
157	210	1
27	27	3
180	193	2
99	99	2
217	218	1
31	31	4
217	217	2
156	156	3
152	152	2
65	97	2
137	138	2
2	3	2
157	157	1
228	228	3
0	0	1
212	212	4
14	18	1
167	168	1
206	223	1
179	179	4
147	148	2
6	15	1
155	155	4
140	148	1
40	41	2
12	20	1
43	47	1
126	126	3
0	54	1
24	48	1
65	65	1
223	223	6
234	240	1
137	141	1
101	109	1
112	116	1
200	200	4
29	30	1
60	60	5
168	168	2
240	240	2
212	213	2
196	228	2
169	188	1
151	151	6
139	156	2
158	158	3
12	13	1
133	133	2
148	152	1
65	101	2
122	122	6
29	29	6
78	78	3
157	179	1
30	32	1
231	231	3
233	234	1
146	151	1
36	37	1
226	227	1
78	79	3
34	81	2
178	178	2
131	131	1
53	54	1
103	105	2
193	196	1
4	5	1
164	165	1
217	237	1
55	55	5
95	95	3
16	16	2
119	119	4
205	206	1
5	41	2
71	71	3
135	137	1
127	127	4
120	134	2
63	63	3
86	86	8
22	31	3
30	30	1
131	132	1
206	206	5
151	154	2
79	79	2
114	118	1
194	195	1
201	201	4
11	67	1
202	202	5
81	81	1
188	188	3
189	225	1
181	212	1
41	190	1
207	207	9
146	149	2
237	239	1
23	27	1
8	55	1
53	53	2
58	61	1
127	144	1
200	206	1
11	15	1
197	223	1
210	211	4
202	206	2
59	59	3
71	73	1
38	42	1
195	199	1
46	46	2
161	161	1
10	212	1
236	236	2
118	124	1
203	204	1
18	21	1
74	74	3
135	136	3
119	190	1
35	35	3
28	28	2
233	241	1
11	33	2
3	21	1
53	108	1
171	173	2
164	169	2
36	39	1
193	194	3
103	103	2
114	114	3
123	126	1
191	191	3
48	51	1
19	50	1
128	128	3
157	207	2
7	18	1
122	123	1
230	232	1
50	50	2
209	210	3
59	60	2
136	137	1
118	118	6
234	234	4
37	38	1
97	128	1
44	111	1
28	149	1
26	46	1
153	227	1
202	204	1
2	57	1
141	147	1
145	145	2
214	214	1
225	226	1
22	36	1
23	23	1
80	80	2
179	180	4
7	7	1
149	152	1
187	188	1
20	23	1
9	9	1
51	55	1
230	230	6
123	125	1
143	146	1
10	36	1
22	23	1
5	6	1
160	178	1
189	226	1
41	41	1
50	100	2
42	49	2
121	131	1
199	202	1
153	154	1
3	3	3
186	187	2
141	141	2
207	208	4
204	204	5
185	185	1
207	239	1
161	170	1
86	197	1
161	176	1
59	64	1
173	175	1
19	28	1
83	83	1
190	191	2
206	217	1
31	76	1
120	121	1
166	193	1
66	67	1
100	100	2
146	146	2
6	7	1
75	75	2
130	190	1
8	9	1
119	130	1
79	96	1
76	79	1
154	155	1
98	111	1
169	170	1
171	179	1
116	143	1
8	17	1
175	242	1
165	194	2
138	144	1
120	131	1
139	146	1
162	162	1
113	119	1
136	136	3
196	196	2
165	165	2
129	131	1
34	84	2
15	16	1
229	229	1
46	237	1
123	124	1
220	221	1
101	101	2
201	202	1
158	162	1
199	200	1
178	218	1
63	64	1
163	163	1
233	233	1
103	104	2
134	138	1
82	108	1
12	15	1
154	156	1
2	7	1
232	235	1
230	235	1
116	125	1
14	15	3
91	108	1
158	159	1
29	86	1
47	47	2
221	221	1
148	151	1
82	107	1
125	125	2
190	192	1
1	1	2
102	103	1
19	23	1
207	217	2
119	120	1
56	84	1
214	219	1
176	176	1
30	97	1
31	70	1
194	194	1
15	81	1
1	3	1
112	120	1
158	166	1
30	31	1
77	77	1
200	220	1
207	210	1
32	32	3
140	147	1
242	242	1
51	63	1
157	180	1
133	153	1
49	50	1
106	106	1
10	28	2
127	130	2
239	241	1
143	143	2
138	138	1
208	216	1
57	70	1
21	30	1
188	189	2
82	83	1
85	85	3
115	189	1
218	218	1
86	98	1
18	23	1
129	134	2
2	216	1
44	45	2
128	129	1
72	72	1
195	216	1
221	222	1
106	107	1
183	184	1
13	52	1
230	231	1
33	33	2
115	118	1
10	48	1
100	101	1
186	188	2
172	178	1
14	14	1
125	126	1
17	77	1
181	181	2
189	216	1
3	210	1
177	178	1
185	190	1
27	56	1
12	56	1
80	84	1
189	227	1
80	83	1
86	109	1
192	192	1
205	222	1
109	110	1
8	42	1
127	132	1
206	207	1
16	17	1
204	205	1
138	148	1
145	175	1
114	125	1
236	240	1
213	220	1
111	111	1
52	83	1
