128	129	2
132	137	1
29	34	2
12	12	2
77	77	3
85	86	1
136	136	4
154	154	3
32	33	2
38	40	1
67	68	2
148	149	1
33	33	4
98	98	4
144	144	1
113	115	1
32	36	1
158	158	3
16	18	1
84	84	1
6	12	1
79	79	4
0	0	3
133	134	1
25	25	3
19	108	2
65	69	1
99	99	1
11	55	1
14	57	1
23	24	1
10	11	1
85	122	1
131	132	2
81	119	1
134	140	2
106	106	1
92	92	4
71	71	5
143	148	2
41	48	1
117	118	3
10	13	2
95	154	1
132	132	2
49	49	1
104	117	1
44	45	1
87	87	1
1	56	1
134	134	3
23	23	4
52	52	2
104	105	1
123	124	1
28	99	1
120	120	1
83	109	1
152	152	1
101	101	2
135	135	3
18	21	2
37	37	1
35	47	1
68	69	2
107	107	1
64	64	1
135	137	1
129	129	3
84	85	1
105	106	2
151	155	1
108	111	2
52	107	1
65	65	3
124	124	4
28	28	2
138	138	3
96	96	2
90	90	1
16	17	2
156	156	2
105	107	1
35	35	1
41	41	1
37	38	2
11	57	1
36	36	2
34	42	1
137	137	3
157	157	1
17	24	2
16	19	1
22	22	4
114	114	1
81	81	2
26	26	1
42	42	2
103	103	1
95	123	2
3	4	1
21	66	1
100	100	4
95	95	1
52	53	1
8	11	1
132	133	2
51	107	1
12	45	2
52	54	1
53	54	1
69	69	2
129	130	3
45	65	1
15	15	2
75	75	1
147	150	1
121	149	1
15	78	1
8	8	1
128	128	2
113	114	1
65	66	1
145	146	1
39	40	1
95	96	5
34	34	2
127	158	2
151	151	3
140	157	1
46	46	2
38	47	1
63	63	1
7	7	1
133	133	2
147	152	1
19	81	1
88	89	2
89	90	1
102	102	1
80	82	1
98	106	1
2	3	1
105	105	1
20	22	1
141	142	1
147	147	4
40	40	3
150	150	1
82	82	1
87	103	1
27	28	1
126	144	2
35	148	1
121	121	1
8	36	1
123	123	3
3	3	5
52	68	1
82	153	1
149	149	1
40	47	1
142	152	1
144	145	2
82	122	1
67	81	1
47	55	2
127	127	1
29	29	2
31	31	4
79	116	1
27	27	2
77	91	1
125	125	4
24	124	1
57	57	1
30	31	2
6	6	1
33	36	1
99	101	1
20	20	3
66	66	1
47	92	1
66	107	1
131	131	2
130	130	3
24	24	1
82	116	1
140	140	2
23	55	1
16	124	1
89	121	1
68	68	1
117	117	4
4	5	1
0	4	1
147	148	2
47	81	1
68	72	1
4	46	1
51	51	1
136	137	1
111	122	1
130	133	1
11	14	2
13	53	1
10	10	1
16	16	2
56	56	1
109	109	1
90	120	1
14	18	1
82	121	1
44	44	1
12	47	2
48	89	1
63	64	1
47	49	1
120	121	1
80	81	1
127	134	2
83	120	1
156	157	1
92	150	1
82	83	1
68	71	1
3	8	1
18	18	1
73	73	2
70	70	1
21	21	2
78	111	1
125	126	1
118	157	1
86	86	2
138	157	1
16	39	1
46	125	1
28	29	1
112	113	1
97	97	1
38	38	2
68	153	1
114	115	2
95	122	1
42	54	1
108	108	1
48	48	1
46	71	1
19	21	1
9	9	3
15	47	1
62	67	1
119	119	1
1	1	1
43	43	1
101	156	1
80	80	2
3	5	2
76	76	1
85	85	1
24	25	1
23	148	1
85	111	1
18	52	1
93	93	1
41	67	1
