107	153	1
129	130	1
147	147	2
134	137	1
135	135	4
78	78	2
120	120	3
130	130	5
158	158	3
103	104	1
116	133	3
110	111	1
6	6	6
148	148	3
27	27	3
131	134	1
97	98	3
131	131	7
146	146	2
17	17	2
106	116	1
121	122	2
141	141	2
95	95	1
37	37	4
89	106	1
100	100	4
150	150	4
101	103	1
131	135	1
84	92	1
128	128	3
111	111	3
145	151	1
14	18	1
89	92	1
29	29	2
66	66	2
64	64	1
35	35	3
48	89	1
26	75	1
47	47	2
124	124	2
109	118	1
23	24	2
9	120	1
88	99	1
87	88	2
137	137	3
81	82	1
94	94	1
127	127	3
103	103	1
19	19	2
67	67	1
139	139	2
123	136	1
12	13	1
24	24	3
30	30	6
38	38	2
108	109	1
8	8	6
69	69	3
154	154	2
119	119	2
48	50	1
116	137	1
137	139	1
134	134	2
26	26	3
110	110	3
91	91	3
83	84	1
73	73	3
99	99	1
142	142	5
122	124	1
111	135	1
151	151	4
42	42	6
63	64	1
75	75	1
8	12	1
1	2	1
53	53	2
29	30	1
156	156	3
105	105	6
114	114	4
138	138	3
45	55	1
7	7	4
37	38	1
80	86	1
2	2	5
152	152	4
35	49	1
52	54	1
144	144	1
127	133	1
98	98	5
46	46	5
107	107	1
117	117	3
67	68	1
115	115	1
69	107	3
26	27	1
90	100	1
12	12	3
14	146	1
88	88	2
89	93	2
109	109	2
121	121	3
50	54	2
146	157	1
17	18	2
56	56	2
3	3	1
148	159	1
18	18	2
106	107	2
93	93	2
134	152	1
40	43	1
25	25	2
90	90	1
55	55	1
8	39	1
86	87	2
51	51	2
41	41	1
48	49	1
101	101	3
120	144	1
89	135	2
20	20	3
97	152	1
67	70	1
66	71	1
85	89	1
111	113	2
45	46	2
44	46	1
125	125	4
49	49	2
131	155	1
4	56	1
39	40	1
82	82	3
15	50	1
88	89	2
46	62	1
138	141	1
123	125	2
24	32	1
70	83	1
157	157	1
153	153	2
68	68	4
16	16	2
104	104	3
150	152	1
121	153	1
48	48	3
126	141	1
6	47	1
29	111	1
106	106	2
84	111	1
36	36	1
96	96	3
151	152	2
129	129	1
81	81	2
115	117	1
95	97	1
8	38	1
112	112	1
4	76	1
32	57	1
120	137	1
1	37	1
90	132	1
44	44	2
3	4	1
98	99	1
72	72	1
50	50	3
77	120	1
108	157	2
122	122	1
49	69	1
114	120	1
8	9	1
11	11	1
1	1	1
11	12	1
47	48	1
131	133	2
89	103	1
49	50	1
97	101	1
38	39	1
69	70	2
136	136	2
45	97	1
33	43	1
92	107	1
146	158	1
126	126	2
63	63	1
118	118	4
16	17	1
135	137	1
130	132	1
123	123	1
85	85	1
116	120	1
33	33	1
5	5	4
9	9	2
102	102	1
125	136	1
157	158	2
152	153	2
79	140	1
15	16	1
140	140	2
17	34	1
107	121	1
84	84	1
97	111	1
113	114	1
113	117	1
105	109	1
15	15	1
23	56	1
75	137	1
11	25	1
48	54	1
28	28	2
142	158	1
32	78	1
67	71	1
35	56	1
0	39	1
77	77	1
21	21	1
32	32	3
132	133	1
144	148	1
83	83	1
105	139	1
22	22	1
47	112	1
65	65	1
4	43	2
107	142	1
116	126	1
142	149	1
27	28	1
48	71	1
122	123	1
67	69	1
108	108	1
23	23	1
19	126	1
34	34	1
122	157	1
143	143	1
106	108	1
27	79	1
40	41	1
14	52	1
114	115	1
24	33	1
94	95	1
94	101	1
41	45	1
55	56	1
41	108	1
45	48	1
78	95	1
45	45	1
98	121	1
122	125	1
94	96	1
54	54	1
