84	84	1
183	184	1
38	39	4
100	100	3
125	149	1
162	162	1
45	107	1
144	144	2
184	185	1
170	170	2
31	31	1
163	163	1
154	154	6
151	151	4
153	153	6
38	40	1
169	169	3
27	27	2
52	53	1
150	154	2
182	182	1
152	153	1
137	137	2
30	30	1
132	158	1
12	12	3
21	24	1
179	180	2
0	0	1
146	147	1
66	67	3
43	43	2
177	177	1
173	174	1
40	40	2
1	2	2
66	66	2
75	75	3
160	160	2
29	32	1
103	106	2
13	17	1
111	185	1
61	61	1
107	125	1
35	35	1
63	64	1
75	76	1
140	185	1
180	180	1
167	169	1
2	2	4
155	156	1
102	155	1
46	46	1
119	119	1
59	110	1
125	128	1
117	117	1
85	144	2
13	14	1
152	152	2
72	72	5
53	54	1
142	177	1
129	146	1
26	26	1
39	39	2
29	29	2
83	83	5
20	21	3
60	61	2
90	90	4
140	184	2
172	172	2
128	128	2
124	128	1
114	114	1
187	187	1
171	172	1
165	173	1
152	185	1
16	16	2
185	185	2
18	19	1
55	94	1
176	179	1
122	122	2
115	115	2
141	141	2
38	38	5
102	102	1
33	33	2
20	20	1
25	25	3
155	155	1
101	101	2
148	148	3
9	10	1
161	164	1
97	98	1
97	97	2
151	174	2
89	90	2
11	12	1
121	122	1
47	47	1
123	123	1
129	129	2
29	30	2
168	168	1
79	79	2
35	80	2
139	139	1
55	64	1
10	10	1
64	64	2
181	183	1
11	11	1
111	111	1
88	88	3
104	104	1
118	123	1
95	100	1
4	4	1
111	115	1
8	24	1
88	91	1
41	41	2
6	6	3
55	55	2
124	125	1
56	95	1
146	146	1
89	138	1
19	19	1
188	190	1
85	85	1
62	62	1
87	88	1
54	54	2
92	92	1
127	128	1
27	29	1
77	78	1
79	80	1
164	170	1
148	149	2
145	146	2
110	110	2
88	90	1
63	111	1
189	190	1
57	115	1
130	132	1
118	118	1
7	38	1
148	178	1
135	135	1
108	108	1
113	113	1
58	58	2
127	127	2
122	124	1
65	67	1
78	78	1
76	94	1
122	125	1
66	161	1
137	139	1
94	94	1
30	33	1
99	99	1
7	7	1
159	165	1
140	140	2
5	5	1
68	68	1
59	67	2
113	140	1
42	42	1
164	164	1
71	71	2
141	146	1
161	161	1
134	135	1
22	22	1
57	60	1
32	32	1
147	147	1
109	109	1
150	166	1
28	29	1
176	176	1
106	108	1
2	3	1
154	162	1
187	189	1
179	179	1
42	146	1
124	124	1
25	26	1
21	21	1
129	143	1
10	17	1
6	7	1
59	59	1
1	1	1
65	65	1
162	164	1
9	9	1
