60	60	3
146	150	1
84	85	2
114	114	4
134	135	1
59	64	1
152	152	1
104	137	1
59	108	2
95	98	1
93	93	4
10	12	1
135	136	1
73	86	2
45	45	3
149	149	1
66	66	5
11	11	1
174	176	1
150	163	2
125	143	1
70	70	3
182	182	1
48	48	4
105	138	1
183	187	1
94	94	5
126	155	1
4	5	2
79	85	1
128	128	1
184	186	1
100	100	6
83	83	4
152	155	1
59	63	1
68	107	1
77	79	1
106	106	1
141	141	3
89	141	1
180	180	1
140	159	1
60	93	1
93	102	1
58	61	2
98	98	3
101	101	1
182	183	2
143	170	1
188	188	2
40	40	2
48	73	1
81	87	1
82	85	1
92	93	4
53	54	1
64	64	2
55	77	2
61	96	1
82	82	1
53	78	1
159	159	2
138	140	1
89	89	2
172	172	3
167	169	1
60	106	1
74	74	2
30	48	1
110	114	1
61	103	2
151	151	4
167	167	1
102	104	2
11	12	2
101	177	1
187	187	3
65	66	2
119	178	2
94	156	1
97	97	2
63	63	1
12	12	4
82	124	1
123	130	1
149	150	1
38	39	1
135	138	2
169	169	3
117	117	2
91	110	1
110	110	2
35	37	1
98	121	2
77	78	1
97	131	1
139	141	2
80	80	3
27	27	1
4	4	1
124	124	3
173	173	4
99	99	3
2	2	3
122	122	2
22	47	1
63	64	1
24	28	1
105	106	2
161	162	1
175	176	1
142	155	1
163	164	2
30	31	1
112	112	1
75	75	1
15	15	3
14	14	1
154	154	4
174	175	2
150	150	4
129	135	1
125	125	1
102	102	1
190	190	3
44	44	1
175	181	1
12	23	1
92	120	1
137	138	1
12	179	1
26	26	1
47	47	2
111	111	1
187	188	1
85	85	2
148	149	1
19	19	3
186	190	1
101	133	1
76	76	2
151	178	1
119	119	1
125	126	1
161	161	2
87	125	1
7	7	4
185	185	2
46	52	1
108	109	1
166	166	2
52	52	1
142	142	2
78	78	2
171	171	4
186	187	1
90	115	1
182	188	1
68	90	2
80	82	1
177	177	1
72	75	1
126	126	1
31	34	1
20	21	1
61	61	1
37	40	1
31	46	1
127	139	1
151	152	2
116	116	3
59	65	1
174	174	3
18	19	1
37	37	1
105	115	1
43	43	1
76	77	1
86	125	1
25	26	1
81	163	1
18	75	1
143	143	1
36	36	5
130	139	1
186	186	3
175	175	2
24	37	1
142	161	1
52	73	1
89	99	1
170	170	1
178	180	1
10	10	1
34	34	1
56	56	1
30	36	1
60	162	1
19	20	1
19	34	2
147	169	2
95	119	1
58	59	2
62	145	1
134	134	2
39	39	3
5	5	1
57	57	2
139	155	1
23	23	1
13	13	1
61	93	1
42	45	1
123	123	1
104	104	1
121	122	3
6	6	2
46	47	2
113	115	1
92	160	1
18	18	1
15	76	1
92	92	2
121	123	1
25	53	1
167	173	1
134	167	1
63	120	1
90	109	1
155	155	3
138	155	1
25	38	2
111	126	1
126	127	3
46	53	1
151	155	1
146	159	1
90	111	1
54	54	2
139	176	1
67	148	1
137	181	1
146	147	1
108	169	1
187	190	2
46	55	1
0	0	1
71	71	1
161	163	1
173	174	1
77	77	1
20	33	1
163	168	1
188	190	1
144	148	1
38	38	1
35	35	2
146	146	3
119	120	1
165	166	2
23	83	1
33	33	2
177	178	1
60	61	2
89	108	1
189	190	1
28	28	1
0	53	1
68	97	1
95	99	1
44	66	1
84	84	2
6	7	1
12	20	2
114	115	1
168	169	1
85	87	1
109	109	1
44	64	1
137	146	1
181	181	1
85	106	1
46	56	2
59	59	2
167	168	1
102	103	1
66	87	1
96	135	1
86	86	2
30	30	1
110	119	1
76	89	1
57	63	1
152	153	2
123	146	1
125	127	1
131	132	1
108	128	1
58	62	2
15	17	2
10	41	1
3	3	3
74	77	1
63	168	1
116	118	1
87	87	1
108	127	1
21	24	1
139	142	1
168	181	1
24	44	1
97	98	1
131	131	1
125	187	1
171	174	1
96	96	1
162	179	1
105	133	1
105	129	1
29	29	1
35	46	1
123	167	1
124	129	1
25	28	1
115	117	1
83	139	1
26	28	1
107	107	1
137	137	1
129	129	1
66	88	1
99	100	1
158	159	1
41	42	1
62	62	1
23	24	1
41	184	1
79	79	1
180	181	1
56	58	1
147	147	1
7	41	1
160	160	1
87	88	1
156	156	2
36	44	1
1	4	1
65	65	1
