55	64	1
44	44	7
47	47	3
143	157	1
129	129	2
14	14	4
142	143	1
175	180	2
155	157	1
131	131	4
83	84	2
161	161	3
131	191	1
24	70	2
85	85	1
10	10	3
147	147	1
130	130	1
133	133	4
14	171	1
143	143	1
176	186	1
75	81	1
9	15	1
109	109	3
52	52	1
122	122	1
53	56	1
173	174	1
74	74	2
159	159	1
107	107	3
29	80	1
188	188	3
62	64	1
119	119	2
72	73	1
115	117	1
51	51	2
27	41	2
87	87	2
70	70	1
103	103	1
174	176	1
197	197	3
112	112	3
121	122	1
85	135	1
15	15	1
27	27	2
9	9	2
192	193	1
87	88	1
62	62	5
134	134	2
94	94	5
46	47	1
121	121	2
111	111	1
4	4	2
143	144	3
73	73	1
7	7	1
55	56	1
120	121	1
100	100	1
175	175	1
135	136	1
109	144	1
173	173	2
11	11	4
152	152	1
134	135	1
126	127	1
132	132	1
50	50	2
95	99	1
168	168	1
23	23	3
161	164	2
169	169	2
123	123	2
139	139	4
138	187	2
29	29	2
101	102	1
55	55	1
113	113	4
17	17	3
45	52	1
48	48	4
127	128	1
18	18	4
170	171	1
193	193	1
86	86	2
136	136	4
49	49	2
170	172	1
106	106	2
141	195	1
130	142	1
169	170	3
143	155	1
81	89	3
25	25	2
172	172	1
107	108	2
40	41	1
78	79	1
0	16	1
42	42	1
141	141	1
190	191	1
93	94	2
138	138	1
98	99	1
64	64	2
127	127	2
88	88	1
178	180	1
37	37	2
79	79	1
68	107	1
195	195	1
38	39	2
22	22	3
167	168	1
149	150	1
57	57	1
126	126	1
128	128	2
43	129	1
58	58	2
100	101	3
170	170	1
110	111	2
99	99	3
28	28	1
196	196	3
183	183	3
31	31	2
178	178	5
35	35	3
101	101	3
120	120	2
189	190	1
20	20	1
71	71	1
3	3	4
112	113	1
145	145	1
119	122	1
151	151	4
194	195	1
45	53	1
32	32	1
137	183	1
58	59	2
179	183	1
84	84	1
103	106	1
24	24	2
105	106	1
179	186	1
36	37	1
53	55	1
177	178	1
4	24	2
45	45	3
98	98	1
6	7	1
16	16	2
114	114	1
124	124	5
180	180	1
176	179	1
32	33	1
59	59	2
53	53	2
13	14	1
140	140	2
118	118	2
190	190	1
148	148	2
140	193	1
43	44	1
166	166	1
164	164	2
186	190	1
69	69	3
123	124	1
33	33	2
153	157	1
61	61	2
142	182	1
119	152	1
105	105	1
16	17	1
175	177	1
126	128	1
27	40	1
145	154	1
13	13	1
175	176	1
151	156	1
157	180	1
150	150	1
27	53	1
26	26	1
102	103	1
156	156	2
3	16	1
22	150	1
1	2	1
41	41	3
43	43	1
174	174	2
34	34	2
152	157	1
118	119	1
113	114	1
45	46	1
156	157	1
115	137	1
46	46	1
83	87	1
158	158	1
187	188	1
109	110	1
159	160	1
163	164	1
1	1	1
60	62	1
97	100	1
81	88	2
3	71	1
112	120	2
71	72	1
13	43	1
191	191	1
162	163	1
116	118	1
142	157	1
97	97	1
167	167	2
12	12	1
141	142	1
132	133	2
72	105	1
40	111	1
93	163	1
155	155	1
160	160	1
168	188	1
135	140	1
102	102	1
36	36	1
157	158	1
108	109	1
62	85	1
4	57	1
54	56	1
179	179	1
30	30	1
56	56	1
181	181	1
64	67	1
48	49	1
142	160	1
73	76	1
19	19	1
37	38	1
60	60	1
175	188	1
112	142	1
76	76	1
7	8	1
143	165	1
21	74	1
133	135	1
89	89	1
121	141	1
65	66	1
42	43	1
163	163	1
106	107	1
42	44	1
39	41	1
159	181	1
117	117	1
77	77	1
