68	69	1
214	214	1
154	155	2
123	184	2
98	98	1
220	220	5
151	174	1
79	79	1
136	136	2
234	234	5
181	182	1
196	213	1
113	113	1
9	9	1
46	46	2
150	155	1
224	224	3
55	55	3
44	44	3
57	58	2
161	161	2
211	211	3
157	157	1
64	65	1
139	140	3
8	8	1
85	85	3
36	40	2
143	165	1
57	57	2
116	117	1
24	25	2
29	29	1
65	65	6
62	63	1
121	198	1
137	137	5
225	237	1
17	17	1
14	19	1
172	172	2
178	178	3
73	73	1
206	207	3
121	127	1
203	203	3
233	233	2
99	99	2
12	12	3
71	73	1
157	158	1
61	61	1
32	32	2
54	82	1
171	171	4
121	122	2
124	124	2
217	220	1
58	58	6
240	240	2
2	14	3
201	202	3
73	76	1
102	112	1
95	96	2
122	206	2
57	59	1
1	2	3
204	204	1
217	218	1
99	130	1
223	223	3
118	118	2
89	89	3
102	102	4
221	221	1
19	20	1
114	115	1
15	15	1
58	59	1
241	241	4
70	70	4
4	5	1
66	67	2
215	216	2
12	119	1
7	42	1
103	103	1
43	43	1
103	105	2
158	158	2
78	104	1
174	174	1
22	23	1
179	179	1
124	125	4
215	239	1
7	7	2
76	84	1
217	217	3
140	146	1
211	212	1
197	201	1
35	36	1
69	69	3
109	111	1
76	76	1
20	231	1
226	226	1
116	141	2
163	163	3
220	221	1
201	220	1
33	33	5
112	112	3
59	59	1
104	144	1
28	28	3
27	28	1
179	180	1
191	192	1
206	206	2
22	22	2
176	176	2
2	2	3
166	166	1
175	196	2
106	137	1
39	39	3
75	75	2
152	152	1
139	144	2
19	21	1
97	100	1
26	26	1
59	60	4
8	20	1
29	30	1
44	85	1
134	134	1
75	85	1
3	3	4
157	194	1
229	229	1
82	84	1
209	220	1
207	207	1
144	211	1
41	42	1
119	119	2
102	236	2
31	31	1
138	138	2
120	143	1
173	174	1
192	192	4
196	196	2
197	197	2
32	44	1
2	34	1
41	41	3
139	139	2
202	224	3
27	27	4
218	220	2
230	230	2
177	177	3
66	234	2
103	221	2
193	193	2
48	48	2
67	67	1
11	17	1
133	133	1
68	68	2
58	66	1
82	83	2
38	38	1
40	205	1
59	155	1
96	97	2
103	118	1
186	187	1
63	63	1
71	71	2
167	169	1
97	97	2
167	167	1
19	19	1
98	106	2
61	86	1
218	218	5
123	172	1
194	196	1
6	6	1
40	43	1
5	6	3
142	143	1
159	159	2
2	35	1
202	202	4
126	127	1
136	139	1
237	237	1
48	49	1
34	39	1
17	19	1
62	62	2
159	185	1
189	189	2
200	201	1
82	82	2
4	6	1
118	120	1
177	179	2
225	225	2
127	127	2
174	175	1
18	19	1
84	84	2
130	172	1
49	50	1
231	231	2
53	53	2
73	79	1
185	194	1
216	228	2
227	227	2
61	62	1
224	225	1
238	238	1
140	140	1
156	162	1
60	62	1
128	178	1
111	111	2
184	184	1
160	160	1
208	208	2
147	168	1
164	164	2
199	200	1
26	27	1
33	35	1
236	236	2
114	114	2
56	56	2
47	47	2
181	181	1
223	224	1
21	22	1
225	230	1
88	88	1
218	237	1
54	54	3
162	187	1
188	200	1
70	73	1
149	149	1
242	242	1
83	84	1
103	116	1
36	36	1
34	34	2
141	142	1
10	15	1
169	169	4
45	45	1
134	135	1
239	239	1
191	191	1
237	238	1
79	84	1
143	198	1
186	186	1
138	154	1
10	11	1
198	198	2
187	195	1
205	205	1
11	11	2
126	126	2
60	60	1
122	209	1
12	212	1
7	9	2
122	122	1
128	128	1
138	167	1
120	121	1
65	85	1
206	211	1
160	163	1
232	232	1
170	170	1
133	135	1
37	37	1
235	235	2
220	223	1
24	24	1
18	181	1
222	222	2
38	42	1
210	210	1
49	76	1
104	165	1
18	20	1
51	52	1
35	35	1
37	61	1
143	143	2
150	150	1
114	216	1
109	109	1
205	237	1
223	225	1
56	57	1
165	165	1
180	180	1
199	199	1
117	117	1
21	23	1
227	230	2
215	215	1
30	30	1
44	175	1
3	4	1
120	120	1
102	115	1
123	173	1
237	240	1
99	133	1
153	155	1
121	121	1
187	188	1
23	118	1
4	4	1
192	209	1
125	126	1
74	74	1
1	41	1
125	163	1
226	227	1
187	187	1
47	113	1
207	208	1
125	128	1
153	153	1
