121	121	1
67	67	5
25	25	3
69	69	2
78	79	1
17	17	1
65	66	1
95	95	2
164	164	3
194	194	1
136	136	2
130	130	3
102	102	1
161	161	3
107	166	1
37	40	2
43	156	1
145	145	1
57	67	1
182	182	1
65	68	1
171	171	1
111	180	1
112	112	2
41	41	1
8	8	2
53	72	1
24	24	3
60	78	5
77	77	3
44	46	2
89	89	1
181	182	1
137	137	1
197	197	3
113	114	2
134	134	1
59	59	3
126	126	2
33	81	1
113	113	3
143	144	1
162	162	1
15	23	1
22	22	1
170	170	2
47	47	3
94	94	2
83	85	1
115	115	3
125	146	1
7	7	1
103	104	1
54	54	3
33	38	1
164	165	1
34	34	3
100	101	1
65	65	2
104	104	3
144	144	1
142	159	2
46	46	2
29	29	1
11	11	1
192	192	2
142	143	3
112	133	1
9	9	2
123	123	2
189	189	2
101	101	3
31	31	1
48	48	3
11	51	1
37	37	2
48	50	1
168	189	1
24	116	1
151	151	1
82	82	1
46	55	1
44	44	2
47	49	1
158	161	1
79	79	2
35	55	1
116	116	4
125	125	1
157	157	3
103	103	4
192	196	1
38	41	1
15	15	2
0	1	3
16	17	3
74	74	2
3	35	1
17	18	1
76	76	1
124	127	1
23	40	1
172	173	1
94	97	2
52	52	4
63	63	2
109	109	1
109	113	1
97	97	3
12	12	3
80	81	2
147	162	1
179	179	1
142	144	1
122	122	2
7	24	1
23	23	1
35	35	1
178	178	1
13	51	1
143	143	1
4	7	1
102	103	3
77	84	1
173	174	2
19	19	1
175	176	1
12	47	1
98	98	1
32	32	4
173	175	1
36	36	4
82	107	1
78	89	1
168	168	2
30	74	1
65	82	1
66	102	1
30	30	6
73	75	1
33	33	1
58	58	1
174	174	3
1	1	1
42	42	1
124	124	3
154	154	2
143	150	2
16	16	2
35	60	1
44	45	3
6	6	1
121	123	1
147	147	1
4	8	1
187	187	2
191	191	1
68	68	3
70	73	1
144	178	1
2	153	1
193	193	1
102	134	1
17	40	1
61	68	1
105	106	1
36	76	1
43	44	1
62	62	1
185	185	1
134	137	1
112	120	2
77	78	1
188	188	2
149	149	4
163	165	1
134	180	1
21	21	2
120	120	1
82	86	1
3	4	1
6	164	1
138	138	1
186	192	1
27	60	1
133	133	2
139	160	1
177	177	2
81	81	1
66	66	1
135	135	1
111	111	2
195	196	1
142	156	1
173	173	2
129	129	1
99	100	2
125	143	1
157	159	1
104	105	1
159	161	2
60	61	1
106	107	2
68	143	1
100	100	1
108	108	1
28	31	1
190	190	1
13	13	1
57	57	1
141	188	1
33	36	1
53	53	1
59	64	1
10	10	2
126	129	2
103	106	1
165	165	2
127	127	1
149	155	1
162	190	1
180	180	1
23	106	1
112	184	1
14	14	2
155	155	1
80	83	1
56	56	1
196	196	1
15	16	1
108	115	1
114	114	2
53	97	1
115	120	1
121	122	1
43	62	1
49	50	1
176	196	1
81	83	1
24	35	1
105	105	1
77	89	1
36	38	1
56	184	1
99	99	1
106	106	1
155	156	1
15	57	1
40	40	1
84	84	1
188	189	1
148	148	1
49	49	1
45	46	1
53	62	1
8	37	1
159	174	1
147	149	1
161	163	1
110	115	1
