14	14	2
167	167	1
55	55	1
93	121	1
129	160	1
75	75	2
179	179	1
103	103	5
61	61	6
11	14	1
160	161	1
13	13	4
137	137	2
110	110	1
7	13	2
140	140	2
20	21	2
180	180	1
146	146	2
30	30	1
96	96	2
145	145	4
66	155	1
95	95	2
60	60	2
106	106	2
147	147	6
169	169	2
74	75	3
135	135	2
75	86	2
156	156	1
72	72	1
151	151	2
141	141	3
134	134	2
171	171	2
107	107	2
149	149	2
25	25	1
5	5	1
18	23	2
90	94	2
98	110	2
175	175	1
81	114	1
95	132	1
92	92	1
173	173	1
75	76	1
103	105	1
100	101	1
71	71	4
113	117	1
111	111	3
127	127	2
72	74	2
0	0	1
118	119	5
56	112	2
40	40	2
62	104	1
4	4	3
165	165	1
148	148	2
94	114	1
112	112	2
73	73	4
101	109	1
32	32	3
53	53	2
132	132	2
117	117	1
41	41	1
33	33	4
99	100	1
115	116	2
162	162	1
17	17	2
133	133	2
136	137	2
81	84	1
65	65	2
64	171	1
122	122	3
76	76	4
54	54	1
168	168	1
56	56	1
24	24	2
102	158	1
143	143	1
68	68	1
137	138	2
28	28	3
82	130	1
80	80	4
86	116	1
94	94	2
3	15	2
2	2	1
139	139	3
66	66	1
73	74	1
156	157	1
150	169	1
142	142	2
76	77	1
43	43	3
177	177	4
67	67	2
26	26	1
1	1	2
121	121	3
153	153	1
82	111	1
79	79	2
22	23	1
74	74	2
158	169	2
9	52	1
115	115	3
168	169	1
77	77	2
170	171	1
153	157	1
85	92	1
81	82	1
130	130	2
83	87	1
97	117	1
99	99	3
139	142	1
91	125	1
4	5	2
91	91	2
45	45	1
10	10	1
128	128	1
172	174	1
164	167	1
18	27	1
12	12	1
136	136	1
34	35	1
100	100	2
43	44	2
101	101	3
16	16	1
114	114	2
61	62	2
179	180	1
35	35	2
121	122	2
62	130	1
42	43	1
64	64	1
155	155	1
138	138	2
18	32	2
78	78	2
87	165	1
159	160	1
154	156	1
158	159	1
6	7	1
150	158	1
160	160	2
143	163	1
123	124	1
106	107	1
85	87	1
90	95	1
161	161	2
37	139	1
146	147	1
32	90	1
35	36	1
6	6	1
93	112	1
154	154	2
176	176	2
118	118	1
152	152	1
68	79	1
58	58	1
88	88	1
126	142	1
152	153	2
108	108	1
92	143	1
8	9	1
82	118	1
172	172	1
3	3	1
37	86	1
170	170	1
159	159	1
100	144	1
171	173	1
119	119	1
19	19	1
164	165	1
146	151	1
95	96	1
126	126	1
150	150	1
21	38	1
151	153	1
81	132	1
13	26	1
173	174	1
2	3	1
57	57	1
