42	42	1
74	74	2
145	177	1
188	192	1
118	118	1
11	11	3
32	32	2
2	2	2
164	174	2
164	188	1
135	135	1
154	154	2
136	140	2
112	113	3
9	9	2
20	20	1
45	56	2
82	82	3
43	60	2
134	136	2
168	168	2
191	191	2
94	95	1
109	110	1
30	55	1
127	134	2
107	108	1
31	31	4
41	41	5
152	154	1
119	119	2
10	11	3
16	16	1
0	1	3
167	193	1
125	126	1
158	158	1
82	83	1
67	71	1
169	170	1
85	85	2
113	113	2
7	18	1
187	187	1
44	46	1
97	99	1
58	89	1
152	152	3
54	58	1
146	158	1
180	180	2
188	189	2
15	16	2
12	13	1
70	70	1
163	163	3
107	126	1
37	53	1
150	150	2
152	173	1
188	188	1
17	17	1
17	84	1
107	107	1
1	1	3
67	84	1
133	133	1
0	2	1
27	29	1
193	193	3
116	120	1
171	171	2
53	53	4
134	134	1
24	24	5
117	117	3
44	193	2
142	142	1
195	195	3
36	54	1
51	193	1
132	135	2
26	85	2
105	105	2
132	132	1
189	189	3
183	183	2
122	122	3
43	193	1
62	62	1
105	106	1
56	59	1
59	71	1
9	53	2
185	186	2
6	156	1
114	114	3
151	151	2
72	72	2
144	144	3
28	29	1
102	104	2
130	132	1
46	46	1
160	160	1
176	176	3
50	66	2
135	136	2
16	23	1
61	87	1
168	193	1
48	57	1
24	25	2
9	10	1
14	15	1
14	14	4
155	156	1
32	33	2
81	81	2
46	56	2
167	167	2
141	141	3
45	45	2
181	181	3
35	35	2
127	136	1
24	28	1
23	23	1
145	145	1
155	158	1
117	118	1
182	184	1
108	108	1
151	152	1
72	73	1
85	125	1
38	42	1
28	66	2
157	157	2
157	159	1
194	194	1
177	177	1
187	188	1
166	179	1
43	51	1
54	54	1
118	123	1
36	36	1
183	187	1
147	171	1
13	13	1
43	44	1
137	137	2
112	126	1
0	36	1
10	76	1
87	87	1
176	177	1
18	84	2
142	150	1
179	180	1
80	80	1
1	64	1
95	95	1
103	106	1
39	39	1
30	53	1
129	129	2
139	140	1
49	183	1
5	5	2
49	52	1
127	128	1
153	161	1
160	161	2
50	60	1
54	56	1
55	55	1
77	78	1
159	159	2
3	62	1
34	48	1
55	56	1
179	179	1
78	125	1
64	64	2
124	124	3
77	130	1
169	169	1
140	145	1
106	106	1
18	85	1
38	38	2
30	54	1
89	89	1
48	48	1
128	129	1
60	60	1
147	147	1
0	0	1
22	58	1
63	76	1
69	85	2
28	30	1
1	2	1
42	62	1
174	177	1
78	79	1
12	12	2
27	28	1
38	45	1
127	127	1
125	125	1
22	22	1
90	90	1
153	153	1
121	127	1
131	131	1
49	49	1
159	165	2
15	15	1
190	190	1
52	52	1
56	56	2
141	142	1
107	111	1
75	75	1
58	58	1
25	25	1
73	73	1
8	64	1
17	88	1
43	52	1
66	179	1
16	84	1
65	65	1
79	79	1
107	132	1
2	39	1
57	57	2
34	58	1
118	119	1
40	40	1
30	30	1
28	28	1
190	191	1
45	47	1
161	176	1
