34	34	3
87	87	1
112	114	1
96	97	1
148	151	2
105	137	1
126	154	1
161	161	1
105	105	2
94	157	2
118	118	1
122	157	1
64	64	2
133	140	1
107	107	2
138	139	1
168	168	2
107	132	1
167	167	2
127	127	1
56	56	1
18	53	2
45	46	2
158	158	5
73	102	1
24	24	2
14	14	4
75	109	1
0	1	1
90	91	4
11	11	4
141	150	1
53	106	1
111	111	1
124	124	2
44	56	1
79	79	2
43	56	1
3	150	1
24	71	1
76	76	1
67	67	1
82	113	1
9	66	2
150	151	1
165	169	1
77	82	1
43	43	3
93	94	1
18	72	1
128	130	2
125	141	1
9	9	4
41	41	2
122	122	1
144	144	2
3	9	1
159	159	1
66	114	1
101	101	2
120	120	4
71	118	1
42	42	1
36	36	4
3	10	3
130	137	2
143	143	2
17	17	1
149	149	3
103	103	1
106	106	1
6	7	1
39	109	1
120	165	1
125	147	3
22	22	4
138	138	1
61	61	1
65	65	2
159	170	2
37	38	1
20	21	2
147	162	1
109	109	1
78	117	1
22	24	1
24	78	1
44	108	1
84	89	2
151	152	1
16	16	3
8	58	1
152	154	1
17	82	1
54	54	2
22	40	2
108	157	1
1	2	1
40	40	3
13	52	1
116	127	2
136	152	1
44	45	1
116	138	1
39	39	1
142	143	1
28	35	1
119	125	1
27	27	7
102	103	1
73	73	1
39	41	1
147	147	2
43	88	1
69	70	3
68	69	1
13	123	1
14	15	2
20	45	1
154	154	1
79	104	1
6	6	1
122	150	1
126	126	1
53	53	2
11	122	1
119	119	1
105	106	1
165	165	3
142	142	1
89	89	2
87	138	1
85	85	2
90	90	4
38	87	1
170	170	1
70	70	2
137	157	1
147	166	1
20	20	1
64	89	1
57	57	2
112	112	2
84	84	2
2	142	2
150	156	1
82	82	2
136	136	1
19	105	1
62	115	1
5	7	1
92	94	1
152	161	1
21	38	1
25	25	2
74	74	1
166	166	3
123	124	1
96	101	1
81	82	2
86	86	1
123	123	1
45	45	1
21	22	1
58	87	1
95	96	1
19	64	1
137	170	1
48	50	1
133	161	1
112	122	1
82	83	1
41	111	1
169	169	1
167	169	1
45	99	1
11	12	2
155	155	1
72	74	1
92	92	2
126	136	1
52	53	1
47	63	1
112	141	1
25	41	1
141	141	1
34	40	1
78	78	1
120	125	1
55	146	1
104	104	2
157	157	1
3	17	1
38	38	1
156	156	1
133	133	2
148	150	1
158	159	2
102	102	1
118	136	1
21	82	1
66	68	1
67	68	1
11	92	1
51	51	2
142	154	1
122	124	1
83	83	1
14	137	1
0	0	1
33	42	1
81	122	1
75	75	1
37	40	1
124	125	1
152	162	1
128	128	2
112	116	1
71	71	1
76	102	1
53	57	2
117	117	1
3	4	1
15	17	1
162	162	1
44	44	2
12	124	1
160	160	1
62	62	1
3	3	3
151	151	1
137	138	1
47	47	1
62	112	1
72	72	1
150	150	1
5	80	1
6	109	1
21	21	1
96	96	2
137	137	1
54	73	1
130	130	1
10	120	1
99	120	1
