152	154	1
169	169	4
17	23	2
74	101	1
21	21	1
2	9	2
166	166	1
20	122	1
70	155	1
7	7	2
14	26	1
96	102	1
109	109	2
10	123	1
45	46	2
156	158	2
86	86	1
170	170	2
152	152	1
159	159	2
64	64	1
39	48	1
10	20	2
146	154	3
127	133	1
151	160	2
3	7	2
39	40	1
106	107	1
129	131	1
84	97	1
51	52	1
76	106	1
139	150	3
148	155	1
123	132	1
137	137	1
72	90	1
142	142	3
138	150	1
13	13	1
89	89	2
163	164	1
6	6	1
94	94	1
69	115	1
2	17	3
106	106	2
47	48	1
84	119	1
37	37	3
3	9	1
10	10	3
146	146	1
13	93	1
164	164	2
136	136	1
137	138	1
133	140	1
75	76	1
108	157	1
16	16	2
83	84	1
131	131	3
100	103	2
138	138	1
50	50	3
70	156	1
8	8	3
101	102	1
62	120	1
42	42	1
94	95	1
77	81	1
135	166	1
23	23	1
128	131	1
26	90	1
165	165	1
105	106	1
127	163	1
114	114	1
17	25	1
90	90	3
19	21	1
28	28	1
93	103	1
10	14	1
2	13	1
2	2	3
90	94	1
20	20	3
107	152	1
43	46	2
56	56	3
11	23	1
72	72	1
17	17	1
150	150	3
79	84	1
91	95	1
151	151	1
98	98	1
40	43	2
165	169	1
158	158	4
132	132	1
132	140	1
45	47	1
68	86	1
162	162	1
46	46	2
139	139	1
151	159	1
128	128	2
44	44	1
165	168	1
127	127	2
161	161	2
117	117	2
143	145	1
10	12	1
113	121	1
48	49	1
133	147	1
12	12	1
75	75	1
83	83	2
25	25	2
107	107	1
141	141	1
145	153	1
165	166	1
136	146	2
148	168	2
19	19	1
109	167	1
111	116	1
70	72	1
160	161	1
19	164	1
11	12	1
71	71	1
48	48	1
64	65	1
57	57	1
163	163	1
116	120	1
40	50	1
27	27	1
94	116	1
146	162	1
65	65	1
26	111	1
20	21	1
103	103	1
26	26	2
113	113	1
123	123	1
103	110	1
53	53	2
40	40	1
68	69	1
80	119	1
69	69	1
63	63	1
87	87	1
126	133	1
114	118	1
49	53	1
85	93	1
93	98	1
5	5	1
85	86	1
109	110	1
155	155	1
168	169	3
81	115	1
110	110	1
74	96	1
49	55	1
34	34	1
22	22	1
67	67	1
36	43	1
89	92	1
130	130	1
93	95	1
120	120	1
88	90	1
41	50	1
126	135	1
41	42	1
97	103	1
70	70	1
82	112	1
99	100	1
168	170	1
78	78	1
11	85	1
