84	84	2
4	4	2
29	33	2
90	90	5
124	146	1
21	22	1
102	102	4
11	11	1
83	152	1
15	89	1
80	81	1
114	114	4
156	156	4
4	5	1
81	81	1
91	126	1
56	103	1
44	44	3
112	112	4
141	141	4
64	64	3
30	30	2
23	23	3
65	65	1
1	45	1
152	152	2
118	144	1
69	71	1
97	97	1
24	24	1
95	96	1
127	127	2
40	41	2
31	32	1
157	157	1
146	147	3
146	148	1
25	64	1
12	12	2
142	143	2
108	109	2
5	6	1
97	156	1
5	5	2
53	56	1
155	155	2
86	86	5
77	77	1
36	36	3
21	21	1
13	93	1
143	143	1
153	153	4
150	150	3
7	64	1
7	7	2
87	100	1
136	136	1
3	93	2
151	151	1
128	128	1
15	15	2
99	99	2
2	155	1
69	70	1
87	93	1
67	67	2
66	66	1
88	89	1
14	15	2
65	120	1
82	82	3
45	45	2
22	23	1
101	101	1
11	34	1
94	112	1
105	105	1
41	41	3
69	69	2
97	98	1
131	133	1
34	34	1
109	109	1
42	42	2
47	47	1
7	20	1
12	142	1
26	27	1
80	108	1
91	91	2
114	127	1
149	149	3
116	123	1
122	137	1
119	122	3
6	30	1
44	73	2
101	102	2
105	106	1
111	148	1
148	148	3
98	98	4
76	76	2
1	2	1
113	113	1
120	120	2
92	92	3
130	130	2
22	22	2
123	123	1
40	40	1
88	88	1
18	20	2
9	15	1
81	87	2
107	108	1
85	113	1
46	46	4
83	84	3
72	72	2
7	30	1
118	118	1
114	115	1
123	145	1
67	118	1
93	93	1
91	148	2
3	5	2
100	101	2
86	90	1
9	11	1
125	125	1
38	39	1
38	38	5
107	107	2
0	49	1
85	85	1
20	20	1
36	37	1
115	130	1
103	118	2
157	158	1
49	49	1
133	133	2
126	127	1
26	26	1
33	33	1
95	95	1
124	124	1
8	9	1
54	54	2
75	75	1
154	154	1
9	35	2
8	10	1
89	90	1
146	146	1
158	159	1
21	24	1
31	31	1
110	110	3
38	115	1
111	113	1
142	142	2
48	48	2
88	94	2
134	134	1
48	49	1
125	126	2
17	24	1
53	53	1
27	46	1
109	117	1
118	121	2
15	48	1
9	12	1
43	43	1
66	73	1
81	95	1
21	107	1
93	109	2
35	41	1
138	139	1
53	54	2
78	124	1
87	87	1
137	138	2
127	147	1
123	149	1
104	104	1
18	92	1
10	12	1
84	147	1
93	97	1
110	111	2
86	134	1
50	51	1
13	35	2
123	124	1
56	57	1
22	151	1
134	149	1
25	25	1
121	121	1
23	24	1
123	146	1
139	139	1
51	69	1
125	157	1
107	158	1
76	132	1
46	98	1
37	44	1
107	144	1
158	158	1
19	19	1
138	138	1
145	147	1
48	50	1
65	66	1
16	19	1
155	156	1
52	52	1
116	116	1
103	103	1
23	76	1
135	137	1
32	50	1
116	142	1
14	14	1
57	57	2
147	148	1
116	143	1
111	111	1
95	97	1
55	55	1
94	94	1
85	156	1
28	28	2
1	1	1
34	35	1
