130	130	5
132	132	3
75	105	1
58	58	8
28	28	7
120	120	6
19	19	3
44	44	5
66	66	1
61	61	5
93	93	3
23	39	1
113	113	7
20	20	4
11	11	2
7	7	8
8	8	7
2	2	5
126	126	6
123	124	3
121	122	2
9	14	1
44	45	4
92	92	2
128	128	3
85	85	6
81	81	4
64	65	2
105	105	4
114	114	5
17	17	3
6	50	1
22	22	4
4	4	3
33	33	3
72	72	6
59	59	2
36	36	2
122	133	1
77	77	2
97	97	3
60	60	3
101	101	4
115	115	1
76	76	2
116	116	8
111	111	6
133	133	2
79	79	3
104	104	3
99	100	1
83	83	1
32	32	2
125	126	2
23	24	2
83	122	1
129	129	3
29	36	2
39	39	3
113	114	3
131	131	4
100	100	5
89	96	3
98	99	1
5	5	1
84	101	1
30	36	2
134	134	1
64	64	7
32	111	2
8	15	1
40	41	2
10	10	5
106	107	2
10	30	1
69	70	1
65	65	6
87	87	2
49	49	1
122	122	5
117	117	2
122	123	3
45	55	1
47	48	1
6	6	4
119	119	3
41	42	1
112	112	4
103	105	1
85	86	4
82	101	1
68	72	1
88	88	2
78	78	1
26	26	1
115	122	1
45	45	2
113	117	1
3	15	1
56	56	1
14	14	7
86	109	1
97	99	1
38	38	2
21	21	3
92	100	1
4	5	1
123	123	3
43	43	2
101	121	1
117	118	1
80	81	1
47	47	2
110	110	3
126	129	1
67	75	2
5	15	1
128	132	1
86	86	1
81	82	2
46	47	1
55	91	1
51	51	1
28	29	1
58	84	2
118	118	3
82	124	2
24	37	1
74	74	2
34	34	2
59	114	1
81	97	1
69	69	3
19	21	3
82	82	1
29	41	2
24	24	2
45	47	1
25	25	3
94	94	3
24	40	1
31	32	2
46	46	6
102	126	2
62	62	2
0	0	3
99	99	1
25	27	1
70	70	3
114	115	1
102	123	1
27	27	3
30	45	1
31	31	3
2	3	2
15	17	1
51	134	1
106	106	1
27	41	1
84	122	2
106	114	1
57	57	2
15	15	2
49	50	1
86	87	3
124	124	1
121	121	3
90	98	1
83	84	1
78	98	1
73	73	2
11	15	1
90	92	1
66	108	1
62	63	1
68	68	2
11	12	1
36	110	1
83	134	1
16	16	1
84	84	1
13	23	1
90	90	1
31	48	2
13	15	2
8	9	1
77	78	1
111	112	1
58	114	1
80	82	1
17	27	2
85	87	1
37	37	3
126	127	1
92	93	2
3	3	1
107	107	1
5	24	2
91	91	2
55	56	1
67	67	1
6	41	1
80	80	2
75	75	1
90	121	1
8	78	1
122	124	2
102	103	1
105	109	1
3	19	1
10	45	1
84	98	1
71	71	2
108	109	1
12	12	1
17	47	1
91	92	1
30	40	1
11	17	1
92	112	1
96	97	1
93	134	1
1	2	1
71	108	1
7	35	1
10	66	1
108	108	1
26	42	1
97	98	1
17	22	1
71	72	1
88	122	1
23	23	2
95	95	1
116	123	2
7	41	1
104	106	3
31	42	1
82	83	1
8	11	2
8	27	1
96	101	1
46	118	1
6	23	1
130	131	2
43	50	1
7	11	1
42	56	1
77	128	1
119	120	1
87	127	1
131	134	1
49	55	1
95	124	1
13	13	1
27	31	1
93	94	1
6	7	1
18	18	1
84	128	1
30	30	1
120	127	1
104	105	1
54	55	1
29	30	1
78	79	1
35	35	1
86	92	1
96	98	1
4	22	1
119	130	1
7	50	1
33	47	1
8	10	1
95	102	1
