177	177	3
149	150	2
86	86	1
61	61	4
145	145	2
153	156	1
68	68	7
3	3	2
113	113	3
110	110	2
96	97	1
140	150	1
36	63	1
140	144	1
153	154	1
73	73	1
60	60	4
149	149	2
117	117	2
89	94	2
33	34	1
152	152	1
51	62	1
37	38	2
5	5	2
66	66	3
122	122	1
127	127	1
105	109	2
84	84	4
99	100	3
97	97	5
157	157	1
31	31	1
3	123	1
170	174	1
71	72	1
136	136	3
18	18	2
55	56	2
21	21	3
169	169	2
91	91	4
20	20	1
31	113	1
124	127	2
29	30	1
37	173	1
62	62	4
158	158	4
114	114	6
81	81	2
41	41	3
143	144	2
84	166	1
58	59	1
144	145	1
172	172	3
82	168	1
26	27	1
16	26	1
167	168	4
76	76	5
157	159	1
52	53	2
33	33	6
173	173	5
87	87	1
44	149	1
72	72	3
37	53	1
137	137	3
89	90	1
37	68	2
135	141	1
31	42	2
146	146	1
114	134	1
57	57	2
94	94	4
100	142	1
10	10	1
92	92	1
108	109	1
38	38	4
16	28	1
90	135	1
43	43	6
11	11	1
16	17	3
104	105	1
156	156	3
53	53	2
170	170	4
137	138	1
123	123	1
170	171	1
95	169	1
162	167	1
179	179	2
109	109	3
148	150	1
23	130	2
125	125	4
12	12	2
0	0	2
169	170	1
167	167	1
160	160	1
153	153	5
96	96	1
155	158	1
75	77	1
135	136	1
0	1	1
2	44	1
32	32	1
40	41	1
17	17	2
95	159	1
142	142	3
89	89	3
141	141	2
78	78	2
30	31	1
180	180	2
82	82	4
111	111	2
36	36	3
19	40	1
29	29	2
175	175	3
1	1	1
35	35	3
16	16	3
145	147	2
130	130	3
14	14	1
133	133	2
66	115	1
154	154	1
82	170	1
5	25	1
92	93	1
13	18	1
3	4	1
99	127	1
41	108	1
102	103	1
56	66	1
83	83	1
1	8	2
50	50	1
51	61	1
39	39	4
28	91	1
174	174	1
121	121	2
164	169	3
168	169	1
145	146	3
77	92	1
159	159	2
104	104	1
139	139	2
105	129	2
8	8	1
164	165	1
6	7	1
118	118	1
2	2	1
102	102	1
148	148	2
5	6	2
115	118	1
16	29	1
8	23	1
32	33	1
116	116	1
124	125	1
133	134	1
51	63	1
18	31	1
155	155	3
9	112	2
77	77	1
93	168	1
103	103	1
120	120	1
8	15	1
161	162	1
123	125	1
107	116	1
83	92	2
176	179	2
22	22	3
148	149	1
76	77	3
95	95	1
8	110	1
141	150	1
93	174	1
96	101	1
115	141	1
145	172	2
0	142	1
127	128	1
64	64	2
147	147	1
145	153	1
42	42	2
129	129	1
62	104	1
27	28	2
93	93	3
50	51	1
100	131	1
37	37	1
178	178	3
151	151	2
83	85	1
124	124	3
168	168	2
130	162	1
101	102	1
115	115	1
65	65	2
109	122	1
112	112	2
79	80	1
34	34	2
13	15	1
126	126	1
4	12	1
58	62	1
165	165	1
171	171	1
73	74	1
6	6	2
57	58	2
65	134	1
84	85	1
105	106	1
89	97	1
74	74	1
176	176	1
109	110	1
15	16	1
106	106	1
143	143	2
145	151	1
42	43	1
55	68	1
43	108	1
118	119	1
67	67	1
117	119	1
35	49	1
85	164	1
32	64	1
99	99	1
0	9	1
50	62	1
59	59	1
150	150	1
100	100	1
40	40	2
27	27	1
15	15	1
23	23	1
87	90	1
80	80	1
178	180	1
131	133	1
56	56	1
52	52	1
171	173	1
131	131	1
98	98	1
24	28	1
116	164	1
16	39	1
