13	13	7
112	113	2
9	10	3
114	118	1
111	112	3
132	133	4
57	118	1
3	3	4
96	121	1
116	117	2
109	109	3
83	83	2
76	78	1
22	23	2
133	133	1
15	15	2
109	126	2
116	116	6
102	102	5
29	34	1
81	92	1
26	26	3
77	82	2
108	111	1
6	7	2
79	79	7
13	20	1
20	21	2
58	96	1
111	111	4
7	8	1
72	112	1
10	10	1
80	80	4
14	14	4
53	116	1
49	49	3
28	28	5
14	16	1
73	73	6
87	95	1
61	61	3
12	12	2
87	87	3
1	2	1
112	112	5
27	28	3
92	96	1
16	16	2
50	52	2
5	14	1
107	113	1
58	113	1
30	105	1
30	30	6
7	7	3
22	25	1
108	108	2
85	86	1
82	82	3
2	5	3
129	129	3
71	72	2
17	17	1
70	70	3
79	80	2
131	131	2
64	64	4
19	33	1
34	34	4
102	103	2
0	1	1
44	44	2
59	62	1
14	15	2
86	86	1
115	123	1
32	99	1
27	63	1
52	52	3
95	97	1
112	124	1
104	104	11
115	115	1
43	49	1
54	55	2
65	65	2
88	104	1
90	90	6
11	35	2
6	6	6
105	116	2
69	69	2
99	100	1
31	32	1
63	63	7
103	103	4
113	115	1
105	105	4
88	88	6
1	1	3
33	33	3
58	58	2
52	56	1
125	125	4
61	62	2
37	37	2
121	121	2
60	60	5
2	128	1
45	46	2
106	106	2
57	57	3
11	11	2
67	67	4
18	18	3
96	96	1
95	95	4
123	123	3
98	98	3
8	29	1
26	33	1
21	21	5
13	14	2
35	37	1
27	90	1
57	58	3
7	15	1
14	73	1
118	120	1
109	130	1
5	5	1
29	30	2
127	127	4
104	105	2
54	54	1
105	106	2
130	130	2
86	88	1
49	70	1
24	24	2
119	134	1
111	133	1
20	60	1
17	18	1
128	128	3
32	33	1
24	50	1
99	99	3
113	113	4
21	29	1
19	37	1
62	62	6
8	8	1
82	83	3
3	4	3
81	85	1
33	34	1
31	31	1
11	20	1
128	131	1
119	119	2
4	4	2
97	97	2
66	66	3
91	91	3
61	63	3
76	76	4
33	58	1
89	89	3
7	69	1
81	81	2
24	29	1
69	70	1
92	92	4
7	53	1
65	113	1
70	82	1
111	117	1
79	85	1
109	110	2
106	125	1
25	29	1
108	110	3
34	35	1
85	118	1
101	101	3
106	119	2
106	111	1
123	132	1
70	121	2
23	81	1
94	97	1
120	120	1
75	75	1
72	72	3
103	104	1
88	97	2
5	103	2
110	133	1
108	109	1
15	16	1
5	94	1
86	87	1
1	3	2
70	101	1
29	29	2
66	67	1
94	94	3
25	26	1
50	57	1
3	24	1
0	3	1
27	36	1
38	60	1
28	29	1
72	76	1
19	19	3
126	126	2
33	56	2
99	101	1
118	123	1
106	116	1
25	25	1
121	122	1
22	26	1
20	34	1
32	32	3
7	16	1
85	87	1
98	100	1
12	15	1
59	59	1
53	53	3
88	120	2
81	82	1
46	60	1
42	43	1
85	98	1
53	57	1
118	118	4
62	63	1
124	131	1
6	11	1
22	99	1
44	64	1
43	43	2
38	44	1
23	69	1
4	5	1
115	133	1
106	130	1
93	93	2
84	84	1
90	100	2
0	0	2
48	105	1
23	23	2
72	77	1
1	23	1
23	37	2
6	8	1
34	86	1
83	121	1
5	7	1
85	85	1
61	106	1
14	19	1
61	76	1
11	22	1
49	50	1
111	125	1
55	55	2
7	9	1
11	12	1
9	33	2
135	135	1
128	133	2
55	62	1
18	86	1
7	17	1
98	117	1
61	87	1
78	127	1
56	56	1
64	70	1
35	36	1
26	38	1
99	121	1
9	11	1
71	71	1
74	74	1
114	115	1
46	46	1
122	122	1
112	114	1
35	35	1
28	90	1
68	68	1
27	35	2
30	32	1
12	97	1
13	15	1
74	89	1
96	102	1
74	76	1
83	84	1
22	22	1
64	65	1
70	71	1
103	108	1
113	117	1
133	134	1
34	134	1
35	38	1
120	121	1
122	132	1
38	38	1
43	69	1
55	57	1
61	65	1
