57	57	6
122	122	6
117	117	5
47	51	3
24	40	1
13	25	4
107	107	4
101	101	5
129	129	2
91	91	2
16	17	4
98	98	4
23	23	3
126	128	3
113	116	2
21	75	1
121	121	3
18	18	1
73	73	3
51	76	1
22	22	3
71	71	1
77	77	5
72	75	1
72	73	3
32	96	2
128	128	2
6	6	3
50	51	2
109	110	1
76	76	5
4	4	5
67	121	1
58	58	1
78	79	1
108	108	2
127	127	3
132	132	2
41	41	3
104	104	2
51	78	1
102	102	6
15	15	4
64	65	1
53	53	1
28	105	1
32	45	1
19	21	1
131	131	3
29	75	1
30	30	2
100	100	3
29	30	1
51	52	1
113	113	6
112	113	1
62	79	1
45	45	2
86	87	1
64	94	1
12	108	2
0	0	3
63	85	1
108	131	1
72	84	1
68	75	1
20	82	1
27	27	3
75	75	1
56	56	4
16	55	1
1	1	5
79	79	1
65	65	3
15	55	1
103	103	1
18	41	1
52	52	2
23	24	3
108	109	2
5	5	2
51	53	1
65	66	2
92	92	1
2	3	1
114	114	2
109	109	2
62	91	1
49	50	1
19	19	1
18	21	2
0	53	1
19	22	1
43	71	1
118	118	4
4	95	1
48	48	5
133	133	1
3	104	1
81	84	1
11	11	1
54	54	2
124	124	3
3	3	1
130	130	3
50	50	4
65	122	1
49	49	2
77	110	2
64	64	1
82	82	2
63	92	1
17	17	2
34	34	1
100	101	1
8	8	2
46	47	1
129	131	1
16	16	2
89	89	1
47	47	1
63	63	2
52	54	1
89	90	1
85	85	1
19	34	2
83	83	2
39	39	2
42	42	1
62	64	1
96	99	1
76	77	1
9	9	1
66	67	1
127	130	1
86	86	1
79	82	1
51	110	1
108	111	1
12	12	2
114	119	2
2	2	1
46	48	1
126	126	2
40	99	1
59	63	2
67	67	1
68	69	1
31	127	1
69	69	1
99	100	1
71	72	1
62	62	2
26	26	2
59	61	1
60	60	2
47	66	1
97	98	1
58	93	1
110	110	1
89	92	1
55	55	2
39	69	1
114	117	1
6	132	1
59	131	1
122	129	1
15	41	1
25	25	1
128	129	1
27	28	1
120	120	1
20	20	1
94	95	1
27	100	1
21	21	1
25	26	1
43	43	3
28	28	1
44	45	3
31	31	1
18	77	1
13	13	2
116	117	1
123	123	1
15	16	1
84	84	1
103	104	1
54	59	1
101	119	1
80	80	1
25	51	1
76	124	1
70	78	1
66	123	1
113	114	1
32	98	1
84	85	1
30	77	1
92	129	1
112	112	1
