105	105	3
65	65	3
139	140	3
7	7	4
119	119	3
14	14	10
115	149	2
40	40	2
176	179	1
174	177	1
57	58	1
174	175	1
136	136	4
168	168	7
50	50	5
18	21	1
45	45	5
73	77	1
158	158	9
32	36	1
89	89	3
137	138	1
58	64	2
0	0	3
52	52	7
124	124	3
4	193	1
160	184	1
146	146	5
62	62	3
57	57	5
108	109	2
11	13	3
33	33	5
6	7	2
131	131	4
88	88	4
166	166	4
191	192	1
157	157	4
135	135	4
137	169	1
39	51	2
11	60	1
166	174	1
168	169	2
50	56	1
30	30	6
48	48	4
128	128	9
44	130	1
185	185	7
22	26	2
196	196	4
104	104	5
16	16	6
24	24	7
36	52	1
78	79	3
11	12	2
60	60	4
182	182	4
48	143	2
93	106	1
23	23	5
167	167	2
43	90	3
71	71	3
139	139	1
67	69	2
133	133	4
40	41	3
2	3	1
141	141	2
9	9	1
140	140	3
1	27	2
80	80	3
154	154	3
8	63	1
73	74	3
138	166	1
18	18	3
30	31	3
66	66	1
22	25	1
123	127	1
114	119	1
159	159	4
21	21	2
94	94	3
110	111	1
5	5	6
100	100	4
6	21	2
117	117	4
113	113	3
156	156	4
3	4	2
1	1	1
171	172	1
71	73	1
68	68	1
2	59	1
76	76	1
2	2	8
151	152	2
13	13	4
71	135	2
15	15	5
192	192	2
94	95	1
5	6	2
122	122	6
87	143	1
29	29	3
189	189	2
22	24	3
51	51	3
0	4	2
56	56	1
102	102	2
131	165	1
42	42	3
66	87	1
112	112	4
87	87	4
16	69	2
0	1	1
10	14	1
122	144	1
173	173	6
155	156	2
21	178	1
26	26	3
67	67	2
5	21	1
33	72	1
117	118	4
138	138	3
39	60	1
46	46	3
23	24	2
179	180	2
117	132	1
35	51	1
93	100	1
187	187	3
146	165	1
41	98	1
35	35	1
144	144	1
88	90	1
155	158	1
176	176	1
95	95	3
129	129	4
39	39	3
17	17	3
63	177	1
141	182	1
41	184	2
79	112	1
170	172	2
146	150	1
107	107	2
56	137	1
54	108	1
71	72	1
60	62	2
85	85	3
194	194	10
186	186	5
142	167	1
99	130	1
41	41	1
127	127	3
38	39	1
17	18	1
4	39	1
108	108	2
105	119	2
175	175	4
179	179	4
114	152	1
178	178	3
120	121	2
181	181	2
142	143	1
101	101	6
35	175	3
11	11	6
114	115	1
107	134	1
145	167	1
174	174	2
122	182	1
34	34	3
88	160	1
103	154	1
32	45	1
25	25	3
178	180	1
116	116	4
187	188	2
142	142	1
55	55	3
56	57	1
111	111	2
55	73	1
31	31	4
126	147	1
47	47	8
44	44	3
116	150	2
21	74	1
69	69	2
59	59	3
104	112	1
137	140	1
20	20	1
190	190	2
10	54	2
83	174	1
184	184	2
108	113	1
30	33	1
160	175	1
44	46	2
38	38	2
28	30	1
158	160	1
1	2	3
73	75	1
49	135	1
12	82	1
37	38	1
151	154	2
41	42	1
28	58	1
171	171	3
111	112	1
161	161	2
29	30	1
83	83	1
122	127	1
164	166	2
19	19	5
32	32	4
24	29	1
7	176	1
94	96	1
126	174	1
28	62	2
40	51	1
36	36	1
25	36	1
143	143	2
164	164	1
159	162	1
169	169	5
115	115	2
81	81	1
103	103	2
25	70	2
177	177	3
172	174	2
175	176	2
77	77	2
110	115	1
9	10	2
78	78	4
165	166	3
135	136	1
156	186	1
121	121	3
132	133	4
191	193	1
132	132	3
114	116	1
11	14	2
126	126	1
22	68	1
3	12	1
109	160	2
16	17	2
188	188	2
141	143	1
124	125	1
99	99	2
85	115	1
195	195	3
113	195	2
181	182	1
126	129	1
142	158	1
153	153	3
38	41	2
174	176	1
16	150	1
38	133	1
4	18	1
39	43	1
124	129	1
154	192	1
173	178	1
41	140	1
120	171	1
172	188	1
36	37	1
12	58	1
150	150	3
68	69	1
73	73	3
11	55	1
35	36	3
136	138	1
144	145	1
118	118	1
98	98	2
40	50	1
12	13	3
176	178	2
142	156	2
172	172	1
28	104	1
52	119	1
186	188	1
181	191	2
39	42	1
10	10	2
82	82	3
99	168	1
155	155	2
109	115	1
41	43	1
180	180	1
93	168	1
32	57	1
59	60	1
12	12	2
62	87	1
54	61	1
188	189	2
152	152	1
7	108	1
9	33	1
53	53	2
159	160	2
54	54	1
72	72	3
53	65	1
54	172	1
34	35	1
109	109	3
49	49	2
79	79	4
170	170	2
124	150	1
161	162	1
125	125	3
118	121	1
154	155	1
147	147	3
15	191	1
83	85	3
58	58	3
37	37	1
123	182	1
124	151	1
160	160	2
149	149	2
118	119	1
159	196	1
79	142	1
95	96	1
19	181	1
161	175	2
183	183	3
140	161	1
37	69	1
97	97	3
146	168	1
49	51	1
149	150	1
109	110	2
17	35	1
33	194	1
111	192	1
3	28	1
191	191	2
122	147	1
27	28	1
176	177	1
40	45	1
153	154	1
27	31	1
60	61	1
37	39	1
64	66	1
123	124	1
135	159	1
112	113	1
7	8	1
98	99	1
103	108	1
148	148	1
96	96	2
18	105	1
62	63	1
42	43	2
64	64	1
100	130	1
74	74	1
122	169	1
125	169	1
67	149	1
151	151	3
22	22	1
9	64	1
114	114	1
93	94	1
0	26	1
75	75	1
41	185	1
63	63	2
25	27	1
68	78	1
46	118	1
70	70	1
148	153	1
49	61	1
34	36	1
66	68	1
188	196	1
26	34	1
43	44	1
172	173	1
58	59	1
152	197	1
160	176	1
0	3	1
59	67	1
149	156	1
22	23	1
138	140	1
159	163	1
165	165	1
177	187	1
113	179	1
23	38	1
28	28	1
