124	125	3
124	124	6
52	52	3
118	119	2
131	131	5
20	20	3
54	54	6
4	4	2
32	32	4
6	6	3
92	92	6
56	68	1
73	73	3
2	2	11
128	128	4
7	7	3
103	103	4
60	65	1
25	26	2
78	78	1
12	12	5
5	5	5
76	76	4
43	45	1
14	14	7
111	111	2
114	114	5
82	83	1
64	65	3
25	25	3
127	129	2
28	74	1
87	87	2
95	96	1
77	77	2
84	84	2
102	102	3
44	44	1
79	79	3
94	94	4
45	45	3
122	122	5
109	109	4
59	59	4
83	83	2
102	106	1
52	54	2
17	18	6
120	120	1
70	71	1
110	112	1
88	89	1
34	34	5
15	16	1
84	104	1
72	73	3
98	98	4
27	27	5
99	99	2
132	133	1
43	43	3
42	42	4
62	63	4
104	105	2
40	40	7
3	3	5
121	121	7
106	107	1
64	113	1
53	102	1
45	46	1
33	33	2
43	44	3
55	55	6
132	132	5
16	38	1
114	115	2
52	53	1
38	38	2
58	68	1
11	11	1
62	62	5
18	18	3
63	63	4
82	84	1
69	69	5
117	117	2
100	100	7
50	124	2
10	10	4
73	77	1
72	88	1
48	48	6
16	22	1
89	89	4
82	86	1
58	63	1
8	10	1
61	61	2
88	88	2
73	74	4
26	26	1
106	106	2
129	129	6
130	130	4
12	13	1
25	27	1
30	30	5
108	113	2
116	116	1
49	49	11
78	79	1
31	31	5
9	21	1
119	120	1
68	68	3
3	44	1
104	104	1
56	133	2
23	25	1
24	24	1
42	66	1
81	82	1
107	107	3
91	91	2
13	13	2
46	46	1
110	110	6
22	22	3
81	81	3
72	74	1
126	127	2
56	56	5
101	102	1
75	80	2
101	103	1
133	133	2
9	9	4
21	22	1
67	67	3
39	42	1
105	108	1
14	15	1
47	56	1
113	113	4
41	41	2
41	71	1
49	51	2
71	71	2
16	39	1
111	124	1
4	5	2
125	129	1
10	12	2
60	60	4
112	112	4
20	28	1
97	97	3
50	50	3
95	100	1
23	23	4
30	73	1
82	82	3
115	115	2
77	80	1
39	40	2
97	103	1
23	24	2
125	126	2
62	71	2
57	74	1
110	111	3
129	130	1
50	51	2
2	6	1
108	108	3
91	92	1
3	5	2
97	117	1
77	78	1
64	64	5
90	90	6
96	101	1
29	29	4
98	99	1
29	33	1
48	74	1
15	15	1
118	118	2
41	43	2
117	118	2
63	79	1
48	108	1
65	69	2
42	45	2
47	47	1
126	126	2
127	127	2
85	86	1
29	30	1
55	69	1
65	70	1
26	81	1
26	29	1
10	13	1
41	42	1
26	46	1
60	61	1
9	11	1
86	97	2
99	101	1
49	50	1
74	74	1
22	31	1
80	132	1
127	128	1
75	76	1
27	28	1
66	66	2
41	45	1
42	44	2
80	83	1
17	17	1
125	125	4
57	58	1
115	125	1
116	118	1
93	93	2
69	71	1
108	109	1
9	109	1
28	28	1
41	44	2
51	51	1
5	6	1
70	70	4
21	32	1
57	57	2
0	0	1
67	69	1
123	123	3
106	114	1
14	27	1
1	1	1
111	116	1
7	9	1
96	96	1
21	21	1
122	133	1
85	85	1
97	114	1
52	103	1
3	4	1
60	62	1
16	25	1
38	39	1
55	56	1
82	90	1
105	105	3
95	109	1
58	70	1
72	72	1
114	116	2
58	77	1
8	23	1
80	80	1
89	98	1
71	74	1
119	119	2
67	68	1
105	119	1
40	43	1
21	30	2
98	130	2
23	29	1
43	75	1
101	125	1
21	39	1
44	45	3
95	97	2
26	72	1
119	126	1
40	42	1
45	52	1
100	130	1
28	68	1
105	106	1
65	65	1
90	97	1
9	10	1
39	39	1
0	2	1
53	54	1
13	21	1
59	62	1
100	124	1
33	34	1
