89	105	2
94	94	4
45	47	1
59	60	1
44	44	7
6	8	2
103	104	1
120	120	2
108	109	5
131	132	1
22	22	5
76	76	3
129	129	3
79	90	1
68	68	2
117	117	1
16	16	4
31	60	1
40	40	1
67	67	3
120	121	1
48	48	7
108	108	4
91	91	5
82	82	1
126	126	2
38	38	2
27	27	2
73	74	1
0	0	4
61	61	7
10	11	1
89	90	1
48	68	2
102	102	3
64	64	4
52	55	1
33	33	4
23	25	1
88	88	1
42	43	2
81	94	1
55	55	2
99	99	4
104	104	7
10	10	4
123	123	3
116	117	2
61	130	1
12	12	6
77	77	7
46	51	2
93	93	5
7	8	1
43	43	2
53	107	3
122	131	1
100	101	2
114	116	1
1	1	4
7	7	2
3	3	3
92	93	2
34	74	1
5	5	6
39	39	2
85	90	1
99	109	1
43	55	1
113	113	3
132	132	2
19	19	1
69	69	4
57	57	5
29	30	2
71	71	2
42	42	8
127	127	2
32	32	3
97	99	1
49	57	2
87	87	1
12	13	3
67	68	1
46	46	1
4	53	1
75	131	1
23	23	1
85	85	2
70	70	4
28	28	2
28	44	3
59	63	2
121	121	6
83	84	1
50	50	3
128	128	2
14	14	6
53	53	3
104	105	1
74	74	2
61	64	1
45	92	1
125	125	2
63	63	2
29	29	1
133	133	1
11	12	2
59	61	1
13	13	3
84	88	2
30	30	1
6	6	1
40	46	1
100	100	3
110	111	3
51	60	1
113	121	1
33	62	2
82	83	1
77	78	2
27	67	1
113	133	1
11	11	5
112	112	2
20	20	3
96	96	2
122	122	3
72	74	2
114	120	1
58	58	2
119	119	2
107	107	3
89	89	1
109	109	3
28	64	1
56	56	3
69	83	1
7	9	1
59	59	5
0	19	1
28	67	1
1	2	1
118	118	8
21	22	3
67	69	1
31	31	4
128	130	1
115	115	2
54	54	5
45	46	2
20	28	1
67	118	1
108	119	1
83	83	2
80	80	1
56	57	1
73	73	1
85	98	1
48	54	1
68	122	1
25	25	2
5	16	1
19	20	2
126	128	3
131	131	2
101	101	2
47	48	1
8	8	2
107	108	2
43	44	2
117	119	1
26	26	3
66	66	1
39	40	1
91	94	1
13	14	2
34	34	1
80	95	1
102	103	1
115	116	1
94	95	2
64	66	1
2	2	2
69	70	1
25	26	2
60	60	2
26	41	1
99	122	2
104	109	1
114	114	1
70	75	1
126	127	2
74	129	1
98	98	2
45	95	1
51	51	3
28	60	1
70	72	1
17	17	1
78	79	1
9	9	1
92	92	2
84	84	2
29	43	1
7	105	1
124	124	2
111	111	4
124	125	2
132	133	1
86	88	1
32	92	1
17	18	1
5	18	3
72	73	1
40	42	2
21	21	1
71	72	1
97	102	1
96	127	1
5	19	1
127	128	1
24	25	1
90	90	1
62	62	3
130	130	2
101	102	1
95	101	1
66	67	1
81	81	1
4	42	2
30	60	1
41	41	2
78	78	2
3	6	1
102	132	1
4	4	1
105	105	1
110	110	1
50	93	1
80	93	1
60	63	2
20	21	1
62	67	1
113	120	1
117	118	1
130	131	2
14	15	1
44	45	1
71	106	2
62	70	1
24	24	1
4	7	1
65	123	1
18	18	1
72	72	1
91	92	1
118	119	1
17	21	1
16	30	1
31	51	1
76	77	1
79	79	1
20	25	1
103	103	1
2	4	1
131	133	1
