88	90	1
121	156	1
151	152	1
114	114	5
69	127	1
78	78	2
90	120	1
44	44	1
79	79	2
79	87	1
38	38	3
41	61	1
109	109	1
86	87	1
161	161	3
125	157	1
81	81	4
31	31	1
59	60	2
14	14	3
177	177	4
9	9	2
120	120	2
126	126	2
176	177	3
88	88	6
35	36	1
158	158	4
96	97	1
136	136	2
73	73	2
173	173	2
16	18	2
145	146	1
11	15	1
156	156	1
146	146	2
8	127	1
131	131	2
140	140	1
81	82	2
80	80	1
29	29	3
114	187	2
34	34	2
186	186	3
15	15	2
131	138	1
104	111	2
122	122	2
44	45	1
108	110	1
18	19	1
184	184	1
43	67	1
39	39	3
43	110	1
84	85	2
182	182	1
73	162	1
20	21	1
117	117	1
172	172	1
99	114	1
72	72	1
75	75	1
82	82	2
76	76	2
13	15	1
125	125	1
187	187	2
46	63	1
183	188	1
62	62	3
54	54	2
171	172	1
141	141	1
130	130	3
151	153	1
26	26	1
64	120	1
28	30	1
95	131	2
98	98	1
61	113	1
173	175	1
132	143	1
138	138	3
10	55	1
47	56	1
2	2	1
42	43	1
43	43	1
134	134	2
31	47	1
42	150	1
124	124	1
15	18	1
172	174	1
143	145	1
53	55	1
53	138	1
128	128	1
5	6	1
96	96	2
143	143	3
12	12	2
73	74	2
112	187	2
174	174	2
108	109	2
93	93	1
154	154	1
5	5	1
19	43	1
181	181	1
1	1	1
164	165	1
61	62	1
19	19	1
94	111	1
66	66	1
103	159	1
160	160	1
111	144	1
6	6	3
121	165	1
105	139	1
152	154	1
32	33	1
65	68	1
71	139	1
188	188	1
123	123	2
103	115	1
74	74	1
166	190	1
104	107	1
91	91	1
177	179	1
55	55	1
65	143	2
179	179	1
67	150	1
176	176	1
60	112	2
4	4	2
128	134	1
23	23	1
35	35	2
91	92	2
41	41	1
7	10	1
101	101	1
85	85	4
77	77	3
169	169	1
45	144	1
70	72	1
165	165	1
157	158	1
183	183	1
73	75	1
82	84	1
118	188	1
62	145	1
110	110	1
90	91	1
101	138	1
121	159	1
3	3	1
40	87	1
64	64	1
86	86	1
141	147	1
32	32	1
42	102	1
37	37	1
153	153	1
106	106	2
63	63	1
97	97	1
129	138	1
106	107	1
58	58	1
22	22	1
97	103	1
169	190	1
24	45	1
68	68	1
