49	49	2
60	60	7
45	46	1
126	126	4
70	70	3
56	57	1
74	74	3
9	9	3
65	65	4
130	130	4
96	96	1
120	133	1
117	117	4
112	112	3
35	58	2
28	44	1
45	45	4
20	20	4
69	70	2
54	55	1
69	69	4
79	81	1
27	28	1
7	7	2
44	44	2
57	57	5
49	54	1
73	73	1
125	125	1
100	101	1
38	38	1
20	24	2
46	56	1
90	91	1
43	43	4
42	43	2
35	35	2
78	78	2
45	122	1
82	82	5
34	34	7
78	79	1
104	105	2
29	29	2
62	63	2
0	0	3
10	11	1
82	131	1
42	54	1
33	33	3
71	71	4
63	63	1
130	131	1
61	61	7
72	120	1
32	32	4
7	8	1
30	31	2
88	113	1
123	123	3
4	5	2
111	111	4
71	133	1
4	4	4
39	39	1
134	134	2
46	46	3
86	86	2
27	127	1
132	132	3
102	116	1
28	29	1
126	127	1
110	110	4
50	50	2
5	5	3
88	88	2
4	7	2
42	42	2
65	66	2
11	11	3
44	56	1
109	111	1
5	46	1
129	129	2
64	73	1
97	97	2
36	36	4
114	114	2
131	131	4
102	102	2
70	71	1
24	26	2
66	66	2
121	121	1
106	114	1
64	64	1
19	19	3
78	82	1
23	25	1
64	65	1
13	13	1
133	133	2
95	95	1
0	1	3
81	83	1
107	107	3
93	94	1
99	106	1
58	58	5
18	59	1
3	3	1
15	26	1
26	26	2
115	115	1
72	72	1
94	94	1
15	15	2
1	2	1
113	113	2
2	6	1
76	76	4
31	40	1
59	59	2
109	110	1
5	6	1
75	75	1
46	59	1
8	15	1
104	104	1
24	24	1
127	127	2
77	77	1
63	74	1
30	30	1
73	74	4
31	31	1
91	97	1
80	87	1
12	134	1
12	13	2
17	24	1
68	68	2
128	128	1
88	89	1
63	64	2
118	130	1
43	123	2
99	100	2
10	10	1
8	131	1
99	99	1
33	35	1
85	85	1
67	68	3
101	101	3
45	113	2
119	119	2
118	118	3
94	95	1
118	119	1
77	79	1
55	56	2
21	22	2
22	23	1
1	1	2
6	87	1
62	62	2
14	63	1
61	62	1
6	7	1
18	18	4
84	85	1
95	113	1
80	80	2
71	75	1
32	34	1
0	45	1
74	78	1
7	16	1
125	126	2
56	56	1
24	25	1
92	92	1
84	84	1
45	77	1
116	116	1
9	10	1
120	121	1
36	57	1
79	80	1
32	33	1
33	34	1
57	60	1
27	27	1
91	111	1
87	87	1
101	124	1
105	105	1
89	92	1
58	93	1
27	30	1
98	98	1
105	106	1
92	114	1
39	111	1
