133	133	2
43	43	2
185	185	2
137	138	2
155	155	1
51	51	3
150	152	1
224	224	2
176	176	4
175	176	2
3	19	1
163	166	1
149	153	1
208	210	1
235	235	2
80	81	1
199	199	3
47	127	1
73	74	2
3	6	1
217	217	3
197	197	5
203	204	1
199	240	1
31	31	3
204	206	1
130	133	1
201	201	1
193	220	1
124	126	2
83	168	2
53	53	2
27	27	1
11	12	2
82	119	2
118	148	3
16	16	1
211	211	1
63	65	1
187	228	1
100	100	5
239	239	2
203	203	1
175	175	4
135	135	4
103	103	3
96	96	2
88	88	2
191	191	1
191	197	3
146	190	1
2	3	1
8	10	3
19	48	2
237	238	1
159	159	3
171	171	1
199	200	1
7	7	2
221	221	1
135	136	1
65	67	1
216	217	1
238	238	2
240	240	1
196	197	1
193	195	1
108	125	1
162	162	2
15	15	2
52	52	4
169	169	2
21	66	2
121	122	2
80	84	1
46	46	2
28	28	2
155	188	2
184	184	1
181	183	1
2	158	1
72	72	2
81	81	1
20	20	3
242	242	1
54	54	1
207	207	1
14	14	2
212	212	1
147	148	1
73	73	2
233	239	1
117	117	3
113	113	1
30	30	3
5	6	1
102	103	1
192	192	2
6	6	1
101	101	1
241	242	2
70	70	1
124	124	1
8	8	2
64	64	1
145	146	1
53	56	2
152	152	2
37	38	2
114	114	1
81	83	1
38	38	1
71	71	2
143	147	1
57	57	1
141	141	2
182	182	2
148	148	1
109	109	1
130	130	2
31	32	1
180	180	2
120	120	2
234	234	2
59	60	1
206	206	2
45	61	1
50	50	2
9	13	1
162	173	1
128	128	2
132	132	1
193	193	1
47	47	2
77	84	1
180	220	1
202	217	1
208	208	1
163	163	2
127	127	3
226	226	2
65	68	1
241	241	4
161	168	1
18	18	1
42	42	1
21	22	1
77	79	1
78	84	1
35	49	1
34	34	2
44	44	1
201	202	1
45	45	2
170	170	1
137	137	2
213	215	1
107	107	1
55	64	1
80	80	2
26	191	1
213	213	1
189	189	1
124	194	1
179	225	1
217	218	1
136	136	1
84	84	2
33	33	1
166	169	1
63	63	1
59	71	1
110	110	1
187	188	2
181	181	1
122	122	1
190	192	1
66	66	1
22	22	1
44	45	1
85	85	3
206	207	1
21	21	1
164	164	1
60	61	1
144	144	1
142	143	1
216	216	2
58	60	2
0	1	1
218	218	2
158	158	1
174	176	1
123	123	1
149	172	1
215	221	1
155	228	1
144	173	1
221	224	1
220	221	1
65	66	1
15	178	1
149	152	1
123	222	1
48	48	2
166	166	1
17	19	1
37	37	1
68	68	2
140	140	1
209	227	1
170	177	1
29	152	1
200	239	2
106	106	1
102	102	1
11	11	1
58	58	3
179	189	1
196	196	2
190	190	1
98	98	1
74	74	3
129	129	1
233	240	1
198	198	1
56	57	1
117	118	1
68	224	1
120	121	1
9	9	1
237	237	1
179	179	1
219	219	1
103	174	1
30	39	1
138	138	2
69	241	1
78	79	1
58	61	2
178	179	2
88	161	1
153	158	1
122	124	1
3	5	1
105	105	1
167	167	1
225	225	1
204	204	1
215	215	1
183	233	1
228	230	1
29	29	1
220	222	1
24	191	1
233	233	2
202	202	1
76	99	1
159	161	1
13	35	1
30	32	2
211	227	1
111	122	1
232	232	1
19	19	1
119	120	1
17	17	1
68	223	1
161	162	1
96	109	1
77	80	1
