102	102	3
136	136	5
109	136	1
154	156	1
14	14	1
83	84	2
102	104	1
133	133	1
4	141	1
49	49	2
80	80	1
122	123	1
50	50	3
96	146	1
27	27	1
84	87	1
8	8	5
109	109	4
72	72	1
9	9	3
88	89	2
34	39	1
50	69	1
114	114	4
36	36	1
120	120	5
79	79	1
3	3	5
28	28	2
22	23	2
159	159	1
115	115	1
103	104	2
158	158	1
139	139	3
123	138	3
97	105	1
137	137	1
41	41	1
156	157	1
73	73	3
148	149	2
43	43	2
100	100	4
46	46	1
25	25	3
71	71	1
157	157	1
101	102	1
33	41	1
117	117	3
21	21	1
25	46	1
62	62	2
128	128	5
15	15	2
147	147	1
107	108	1
5	6	1
26	36	1
65	65	1
93	93	3
47	47	5
24	24	4
133	141	2
31	69	2
126	126	2
11	11	1
52	52	1
140	140	3
39	39	2
31	31	1
6	6	3
148	148	2
7	8	1
83	83	2
31	33	1
75	102	1
2	2	4
13	13	1
75	107	1
129	130	1
142	142	3
36	37	1
47	48	2
6	7	2
107	107	4
115	147	1
111	112	1
33	33	1
44	44	3
85	85	1
94	95	1
140	157	2
73	75	1
146	146	1
96	97	2
67	67	2
26	26	3
137	159	1
39	40	1
27	38	1
32	32	1
81	81	1
97	154	1
129	129	1
124	124	1
152	153	1
130	149	1
28	29	1
1	1	4
55	55	1
99	99	2
53	53	1
127	127	1
105	105	2
46	68	1
120	121	1
5	5	1
93	97	1
3	4	1
4	18	1
16	16	1
33	34	1
92	93	1
4	4	1
10	11	1
91	91	1
150	150	1
116	116	1
108	126	1
130	131	1
113	113	1
48	48	1
108	145	1
2	90	1
132	133	1
131	131	1
127	141	1
24	25	1
26	27	1
119	120	1
137	138	1
35	36	1
118	118	1
42	43	2
131	132	1
31	32	1
100	101	1
121	121	1
38	39	1
128	156	1
99	105	1
135	136	1
152	154	1
112	112	1
106	106	2
34	34	2
51	51	1
81	85	1
155	156	1
132	132	1
103	103	1
105	106	1
141	148	1
67	147	1
8	87	1
18	20	1
117	158	1
41	42	1
43	44	1
22	22	1
63	63	1
69	69	1
139	140	1
7	7	1
99	101	1
90	90	1
103	107	1
157	158	1
