53	53	3
101	101	4
170	170	2
35	35	4
118	119	2
3	3	3
159	159	1
9	19	1
140	166	1
116	116	5
62	62	1
14	14	2
131	131	4
135	135	4
122	123	1
103	103	3
96	155	1
66	66	3
70	70	1
130	130	4
156	156	2
164	164	2
110	133	1
155	155	2
155	156	1
115	115	1
13	13	3
23	49	1
133	133	2
64	64	1
15	15	3
108	108	4
135	136	1
145	145	6
69	74	2
100	100	2
129	130	1
5	5	6
141	148	1
152	166	1
93	93	2
159	167	2
104	162	1
151	152	1
63	63	1
24	24	1
81	81	2
9	23	2
28	28	1
50	72	2
158	158	7
142	152	2
36	36	4
63	69	1
20	20	2
104	118	1
134	164	1
21	49	1
88	88	6
169	170	1
16	42	1
128	130	2
37	37	2
0	0	3
81	87	1
6	160	1
126	162	1
69	97	1
11	11	1
168	168	2
147	150	1
48	48	7
92	126	2
151	151	5
113	113	3
121	125	1
86	119	2
34	34	1
97	109	2
19	22	2
87	100	1
98	99	2
89	121	2
89	89	2
52	54	2
97	99	1
142	142	1
50	54	1
167	168	2
128	129	1
43	111	2
155	160	1
9	76	1
80	80	3
150	150	1
132	132	4
97	102	1
17	47	1
16	24	1
64	65	1
10	10	2
57	63	1
136	137	1
126	126	2
84	89	1
43	149	2
85	101	1
132	135	1
95	112	1
44	44	2
141	141	2
119	120	1
133	154	1
74	74	1
58	58	2
67	67	5
68	79	1
11	12	2
138	138	1
145	148	2
116	122	1
19	19	4
143	143	1
62	75	1
104	104	1
87	162	1
21	44	2
110	110	1
64	142	1
112	112	1
14	15	1
109	109	1
123	123	2
146	148	2
144	144	3
90	90	2
87	89	1
16	17	1
103	104	1
118	122	1
109	111	1
11	36	1
47	47	2
82	82	1
114	114	2
134	134	2
52	52	2
40	40	1
127	127	2
112	114	2
55	55	3
87	87	4
6	6	2
119	164	1
25	146	1
11	18	1
108	130	1
167	167	1
16	16	2
107	107	4
7	7	2
166	166	1
54	62	1
162	166	1
119	122	1
96	101	2
83	84	2
65	65	2
98	98	2
80	81	1
99	100	1
26	27	2
149	149	4
76	76	2
108	132	1
47	55	1
93	95	1
40	53	1
51	51	5
86	86	3
107	159	1
121	122	2
18	18	1
8	24	1
56	89	1
100	104	1
114	125	1
43	167	2
106	107	2
3	28	1
94	94	2
45	99	1
57	66	1
82	93	1
156	160	1
165	165	1
35	36	1
105	106	2
137	138	1
89	90	2
53	62	1
157	158	2
164	165	1
44	47	1
160	160	5
111	111	2
106	106	2
23	23	3
71	71	1
106	112	1
65	122	2
75	75	1
152	152	2
92	94	1
21	62	1
50	57	1
79	79	1
9	9	1
105	166	1
102	102	1
101	112	2
21	21	2
69	70	1
92	130	2
123	130	1
91	100	1
11	13	1
153	153	2
123	142	1
38	39	1
124	125	2
52	53	1
11	122	1
150	156	1
128	128	1
39	39	4
132	141	1
157	157	1
68	68	2
72	72	1
46	46	2
86	140	1
123	126	1
159	166	1
134	135	2
68	72	1
103	132	1
128	169	1
137	137	1
157	163	1
126	131	1
140	140	3
77	79	1
63	65	1
100	101	1
40	41	1
10	144	1
49	49	1
87	122	1
22	22	1
140	146	1
105	105	1
77	77	2
42	110	1
17	17	1
154	154	4
118	118	1
70	74	1
126	128	1
104	105	1
144	145	1
67	68	2
162	162	1
18	167	1
153	156	2
7	10	1
84	125	1
9	77	1
83	104	1
121	121	1
15	25	1
90	91	1
124	148	2
117	120	1
19	53	1
13	150	1
129	129	1
5	7	1
56	56	1
92	92	1
108	109	1
57	57	2
139	141	1
122	122	2
54	91	1
87	145	2
44	152	1
50	50	1
135	164	1
14	155	1
100	114	1
93	115	1
101	165	1
79	80	1
0	43	1
45	51	1
83	94	1
126	137	1
53	54	1
162	164	2
22	57	1
25	25	1
