63	63	2
111	116	1
114	115	1
123	134	1
68	68	1
17	18	4
32	76	1
4	18	1
124	124	1
103	109	1
94	94	2
82	82	4
87	87	3
68	75	1
131	151	2
13	15	1
47	48	1
125	132	1
47	65	1
108	108	3
99	114	1
75	116	1
99	99	4
23	62	1
151	151	4
9	10	1
77	105	1
112	118	1
153	153	2
41	41	1
12	41	1
55	69	1
94	95	4
51	96	1
96	96	5
32	32	2
69	69	3
92	94	1
146	146	4
95	95	2
135	136	3
123	133	1
57	57	2
38	38	2
16	38	1
25	25	2
11	11	1
109	110	2
149	149	2
38	57	1
31	32	2
30	31	1
137	150	1
119	128	1
148	148	2
12	21	1
131	136	1
36	36	3
19	22	1
41	47	1
39	39	3
13	13	2
137	142	1
100	134	1
150	150	1
66	66	1
17	63	2
106	106	6
111	111	1
44	44	2
21	21	2
7	7	3
25	41	1
24	25	2
25	31	1
115	115	2
133	152	1
104	105	1
37	139	1
74	104	1
18	18	4
70	99	1
53	54	1
74	74	1
68	109	1
67	67	1
25	35	1
129	131	1
142	142	3
108	110	1
34	34	1
30	30	4
152	152	1
137	137	1
135	135	3
82	83	1
15	16	1
15	28	1
20	21	1
28	150	1
4	4	2
51	51	1
48	49	2
22	23	1
4	32	1
114	114	2
53	53	4
39	40	1
76	76	3
17	39	1
107	107	3
102	102	2
132	133	2
69	102	1
120	124	2
118	118	1
76	77	2
57	58	1
15	15	2
116	116	5
97	97	3
107	130	1
143	144	1
3	3	1
31	34	1
122	122	2
36	108	1
103	111	1
152	153	2
10	22	1
121	121	2
55	56	1
10	10	2
93	94	2
54	55	1
72	73	1
14	22	1
141	143	1
35	35	3
93	96	1
54	56	2
5	5	2
46	46	1
83	83	1
4	112	1
34	76	1
123	125	1
33	122	1
53	75	1
133	148	1
88	88	2
132	132	2
138	138	1
40	43	2
23	50	1
23	23	2
6	7	2
119	119	2
104	104	3
37	77	2
38	141	2
73	73	1
7	33	2
21	44	1
48	48	1
33	66	1
42	43	1
28	63	1
94	97	1
56	58	1
44	45	1
6	6	1
110	115	1
33	81	4
64	65	1
17	17	1
16	18	1
58	62	2
125	125	1
44	67	1
35	86	1
141	141	1
145	146	1
86	87	1
107	108	1
112	113	1
48	138	1
119	120	2
38	51	1
8	12	1
115	121	1
102	103	1
102	111	1
148	152	1
128	144	1
134	134	3
24	24	1
86	86	1
12	20	1
20	93	1
67	105	1
87	88	1
49	57	1
73	74	1
96	97	1
109	109	3
37	37	1
126	126	2
96	109	1
5	6	1
9	9	1
49	49	2
10	100	1
24	129	3
69	87	1
35	36	1
94	98	1
118	134	1
118	119	2
86	105	1
33	33	1
101	101	1
45	45	2
38	39	1
117	133	1
16	41	1
18	54	1
145	145	3
40	40	5
100	100	1
85	85	1
86	112	1
38	73	1
126	140	2
50	57	1
62	65	1
93	137	1
115	137	2
90	90	1
43	88	1
142	144	1
43	44	1
31	54	1
45	46	1
127	142	1
125	137	1
85	86	1
57	64	1
11	20	1
56	56	1
19	19	1
12	13	1
105	105	1
26	62	1
139	139	1
134	149	1
63	64	1
113	114	1
128	131	1
77	79	1
99	128	1
84	122	1
81	86	1
85	101	1
22	22	1
31	51	1
78	79	1
