187	187	4
28	28	1
137	138	1
186	186	7
18	18	2
117	139	2
96	113	1
73	73	2
41	41	6
196	196	4
161	168	2
149	151	1
36	47	2
96	96	2
186	191	1
54	54	2
49	52	1
108	132	1
105	105	1
130	131	1
146	146	5
131	149	2
51	51	2
138	139	1
61	61	3
15	31	1
126	129	1
118	127	1
28	79	1
71	71	3
64	64	2
96	157	1
166	167	1
9	9	1
71	119	1
156	156	5
44	44	4
137	137	3
18	114	2
34	36	2
49	124	1
14	15	2
58	58	1
12	13	1
2	27	1
6	9	1
33	33	6
104	104	4
66	81	1
158	165	2
76	78	2
5	9	1
3	87	1
189	189	4
104	167	1
172	181	1
43	44	3
182	182	3
15	16	6
141	141	4
70	70	1
79	80	3
8	8	2
11	132	2
185	185	6
57	57	4
135	137	1
98	102	1
53	61	1
31	31	4
172	172	3
4	28	2
20	36	1
27	27	2
5	5	3
185	186	1
52	136	1
197	197	3
80	89	1
15	15	2
37	37	4
155	156	2
60	120	1
195	195	1
34	191	1
195	196	1
48	50	1
139	140	1
53	53	1
23	23	6
104	142	1
2	2	5
80	110	1
14	24	1
60	61	1
112	112	6
38	38	2
0	0	2
62	62	3
152	153	2
144	144	3
151	155	2
37	60	2
184	189	1
74	74	3
1	21	1
49	49	6
27	31	1
42	42	6
32	32	4
184	185	1
102	104	3
148	155	1
0	2	1
165	170	1
77	77	3
183	183	2
114	130	2
17	17	7
54	58	1
13	15	1
145	148	1
174	175	2
77	80	1
22	22	5
28	65	1
102	103	1
43	43	3
21	26	1
25	68	1
140	141	1
33	61	1
93	99	1
9	10	2
190	190	3
63	63	2
7	43	1
21	37	2
39	63	1
108	178	1
69	69	4
139	139	3
32	40	1
171	171	4
115	115	3
67	67	2
174	174	1
60	179	1
100	100	2
21	22	1
106	180	1
28	29	2
99	134	1
117	117	3
114	114	3
193	194	1
72	139	1
128	128	4
108	108	4
163	163	5
156	159	1
43	127	1
34	34	1
38	158	2
13	13	4
101	102	5
163	164	2
6	6	2
55	137	1
134	134	4
126	126	2
20	30	3
37	71	1
50	53	1
39	177	2
30	30	1
94	95	1
89	89	3
27	28	2
162	162	1
29	32	2
67	68	1
188	188	3
72	72	2
114	118	1
159	159	3
143	143	5
35	35	2
6	126	1
131	131	3
157	157	3
140	140	7
107	147	1
66	66	8
98	99	2
48	48	4
181	181	2
45	55	1
10	10	2
64	108	1
98	139	1
65	65	3
66	68	3
55	56	1
150	151	1
125	150	1
78	78	5
118	119	5
100	114	1
74	75	1
84	84	3
139	141	1
105	106	2
170	171	1
171	172	1
70	80	1
55	55	4
20	22	1
39	39	3
164	164	1
179	179	3
107	171	1
47	47	6
149	149	3
169	169	5
24	26	2
175	175	4
194	194	3
184	196	1
36	37	1
42	43	3
119	121	1
15	107	1
97	97	5
3	3	3
56	56	2
43	60	2
155	175	1
67	73	3
120	121	1
190	195	1
45	46	3
121	121	4
40	40	3
56	174	2
142	193	1
157	161	1
99	109	1
158	170	2
191	191	4
113	150	2
24	24	3
112	149	1
24	27	1
153	163	1
72	112	1
129	195	1
101	101	3
131	133	1
136	137	1
113	113	5
99	142	1
98	104	1
101	110	1
55	59	1
129	129	3
59	60	2
2	82	1
116	116	1
176	176	1
130	132	3
132	134	1
122	123	1
45	45	4
151	151	2
24	25	2
108	111	1
180	180	3
130	130	3
99	99	4
58	142	1
36	39	1
179	197	1
25	34	3
169	185	1
64	65	2
122	122	3
107	107	3
184	184	5
50	50	2
30	31	1
129	130	1
87	87	5
40	41	1
38	98	1
148	148	2
114	171	1
95	110	2
86	120	1
85	85	1
111	112	1
39	40	1
169	170	2
176	177	2
7	7	4
7	87	1
99	126	3
98	98	4
19	21	3
4	4	7
4	114	1
41	42	2
187	188	1
109	109	3
130	142	1
9	33	1
36	61	1
169	178	1
135	136	1
168	169	1
82	84	3
3	137	1
29	34	1
3	75	2
112	113	2
167	170	2
11	119	1
46	46	1
62	142	1
133	193	1
97	98	5
132	133	2
9	127	1
106	106	1
88	89	1
154	154	3
165	167	1
10	49	1
120	141	1
61	62	1
22	184	1
8	56	3
33	35	1
147	148	1
76	76	2
16	16	3
152	152	4
82	82	2
12	149	1
151	182	2
167	168	2
99	116	1
169	172	2
125	125	2
174	188	1
157	183	1
36	36	2
2	3	1
69	72	1
2	11	1
34	40	1
167	169	1
131	137	1
25	190	2
44	47	1
32	195	1
71	73	1
127	127	2
103	177	1
1	30	1
95	97	1
14	17	1
162	189	1
118	157	1
34	126	1
119	141	1
89	102	1
65	67	1
140	168	1
77	87	1
22	23	1
153	167	1
52	52	3
87	88	1
12	12	1
172	177	1
48	49	1
167	191	1
20	20	2
165	194	1
145	145	1
156	186	1
181	188	1
119	119	2
35	38	2
68	68	2
85	86	1
110	110	2
128	184	1
131	132	1
146	176	1
26	36	1
58	59	1
111	118	1
80	80	1
156	168	1
187	190	1
75	77	1
177	177	4
1	1	1
117	135	1
123	135	1
24	62	1
142	152	1
136	136	1
12	53	1
133	148	1
173	174	1
68	69	2
106	110	1
33	69	2
47	52	1
26	138	1
150	152	1
123	125	2
143	144	2
48	54	1
9	32	1
127	135	2
195	197	1
25	25	1
19	25	1
19	19	2
193	193	1
119	152	1
132	144	1
166	166	1
1	22	1
59	64	1
118	118	1
115	159	1
18	62	1
182	183	1
5	107	1
60	79	2
142	142	2
161	161	1
43	48	1
44	45	1
164	168	1
54	62	1
7	8	1
103	107	1
33	39	1
170	170	2
124	127	1
38	39	1
174	176	1
18	116	1
149	161	1
190	191	1
111	111	2
31	32	1
14	19	1
191	193	1
10	39	1
31	86	1
124	124	1
57	58	1
10	194	1
82	83	1
99	182	1
26	26	1
5	35	1
98	113	1
38	43	1
108	110	1
64	68	1
46	50	1
47	48	1
7	168	1
9	27	1
23	74	1
37	95	1
155	155	1
14	14	1
13	119	2
164	190	1
39	44	1
19	24	1
111	115	1
8	58	1
24	59	2
136	190	1
141	142	1
135	135	1
79	79	1
121	160	1
133	133	1
120	176	1
73	121	1
37	62	1
161	180	1
71	127	1
81	81	1
3	42	1
156	157	1
31	63	1
99	194	1
81	82	1
162	169	1
44	53	1
167	167	1
4	5	1
158	158	1
124	125	1
186	188	1
96	148	1
175	176	2
182	184	1
97	131	1
8	124	1
37	42	1
22	77	1
53	56	1
88	88	1
182	194	1
143	146	1
147	147	1
150	158	1
113	134	1
103	104	1
11	43	1
2	4	1
60	60	1
159	191	1
9	126	1
158	159	1
