45	115	1
65	65	2
115	124	1
107	108	2
90	90	1
88	88	2
59	59	3
14	14	2
101	101	2
106	106	2
83	84	1
31	31	1
64	64	6
129	129	4
31	33	1
119	119	2
121	121	2
102	104	1
119	131	1
85	86	3
78	78	3
82	82	4
22	22	4
95	113	1
112	112	3
10	10	2
100	100	2
34	36	1
131	131	3
107	107	4
8	8	1
97	97	4
84	94	1
4	4	6
77	94	1
16	16	1
44	44	3
76	76	4
116	120	1
106	107	1
23	24	1
18	27	1
115	115	1
83	83	2
121	126	1
68	68	2
124	124	3
34	34	3
123	129	1
21	21	3
7	7	2
85	85	2
39	39	2
41	43	1
19	19	4
103	112	1
71	73	1
116	131	1
74	74	7
111	113	2
57	57	8
84	98	1
122	123	2
70	70	5
37	37	2
87	87	4
84	85	1
125	126	1
114	114	2
60	60	1
13	13	1
128	128	2
61	61	5
78	79	1
58	58	2
93	93	1
113	114	2
44	48	1
29	30	1
41	41	1
88	94	1
111	111	3
73	76	1
20	36	1
7	78	2
7	8	1
80	80	4
125	127	1
0	0	1
50	79	1
117	117	1
32	45	2
13	29	1
95	95	2
98	98	1
37	39	1
35	35	3
25	30	1
6	6	4
116	116	3
27	27	8
13	87	1
125	125	1
96	128	1
20	27	1
57	58	1
100	104	1
33	83	1
126	126	1
130	130	3
80	121	2
82	84	1
81	81	2
120	121	1
102	102	3
76	77	3
66	71	1
75	75	1
123	123	1
89	134	1
17	33	1
104	104	3
36	128	1
36	36	3
83	92	1
70	71	1
91	91	2
20	21	1
133	133	3
92	92	1
10	17	1
99	102	1
17	17	1
48	48	4
39	41	1
90	98	2
23	23	1
56	56	1
105	106	1
103	105	1
12	12	3
98	101	1
84	87	1
20	20	3
127	127	3
73	73	3
72	72	1
103	104	1
9	9	1
55	56	1
77	78	1
28	28	1
109	109	2
86	87	2
56	57	1
46	46	2
97	100	1
90	91	1
79	80	2
99	111	1
107	110	2
33	33	4
55	55	2
59	108	1
115	116	1
11	123	1
30	101	1
127	128	1
90	99	2
72	73	1
23	25	2
5	5	5
105	105	1
18	18	3
103	103	6
0	44	1
62	83	1
59	60	1
15	15	1
26	26	1
15	17	1
45	45	1
2	2	1
129	131	1
99	99	1
101	103	1
86	86	1
77	77	2
6	12	1
95	132	1
63	63	1
18	19	1
134	134	1
33	116	1
61	66	1
76	96	1
26	78	1
115	125	1
20	24	1
42	68	1
83	113	1
40	40	2
88	99	1
121	131	1
10	112	1
92	134	1
42	42	1
124	133	1
124	125	2
27	120	1
90	97	2
62	62	1
7	13	1
20	40	1
3	45	1
33	129	1
34	40	1
22	26	1
3	3	2
18	45	1
50	50	1
58	59	1
10	11	1
24	24	1
3	59	1
25	58	1
101	104	1
111	112	1
82	83	1
3	22	1
9	18	1
56	59	1
107	109	1
46	47	1
61	72	1
47	47	1
43	43	1
39	40	1
126	129	1
11	11	1
66	66	1
31	40	1
127	133	1
118	118	1
72	74	1
