100	100	4
87	87	1
187	189	1
105	114	1
66	66	2
166	166	4
42	42	3
189	189	2
166	168	1
105	105	3
82	85	2
34	34	2
37	63	2
123	188	1
44	59	1
141	141	1
13	13	1
191	191	4
55	58	1
187	187	3
19	190	1
44	45	1
174	174	1
173	173	1
154	164	1
5	71	1
39	39	6
168	169	2
19	182	1
0	0	2
164	173	1
51	51	2
46	53	1
114	147	2
50	50	3
189	190	2
48	48	6
142	142	1
80	80	2
132	132	2
110	110	2
161	176	1
11	11	2
86	137	1
35	106	2
169	169	1
17	17	1
33	34	1
69	69	4
73	73	1
67	87	1
2	3	3
196	197	2
35	35	6
4	10	1
26	26	3
97	102	2
122	122	3
196	196	4
23	149	1
20	21	2
46	46	4
88	97	1
26	35	1
6	6	1
123	135	1
50	54	2
10	56	1
52	52	2
180	180	4
155	157	1
160	160	2
38	38	2
144	174	1
78	78	2
170	170	3
32	32	2
96	96	3
100	107	2
78	79	1
29	31	1
111	114	1
162	162	3
1	24	1
82	108	1
192	192	3
183	183	4
82	82	5
109	115	1
21	25	3
64	74	2
62	63	2
55	78	2
186	186	2
126	128	1
25	152	1
151	151	5
131	131	2
23	23	2
172	172	2
107	107	2
33	33	1
76	76	2
123	124	2
149	149	3
49	49	2
154	154	4
29	29	1
43	43	2
71	73	1
11	58	1
49	50	1
104	106	1
7	22	1
17	56	1
7	8	1
67	67	3
153	153	3
54	54	1
156	156	2
116	116	1
77	110	1
62	62	1
27	27	4
5	8	1
1	90	1
109	110	1
103	103	2
190	191	1
135	135	2
27	29	1
193	193	1
40	40	4
63	148	1
188	188	2
62	71	1
102	106	2
88	89	2
59	60	2
18	23	1
179	179	1
10	10	1
24	24	3
194	194	2
13	14	1
178	178	2
3	21	1
166	171	1
12	55	1
17	20	1
1	1	4
20	25	2
127	127	1
135	136	3
58	58	3
30	30	1
25	25	2
121	145	1
165	165	2
144	144	1
174	176	1
178	179	1
114	117	1
98	98	4
112	113	1
116	146	4
6	7	1
167	169	2
59	61	1
9	52	1
33	37	1
62	77	2
17	65	1
54	55	1
160	161	1
76	90	1
16	17	1
39	117	1
69	87	1
133	133	2
2	2	2
121	124	1
195	195	2
14	14	2
176	177	1
103	106	2
82	83	1
157	159	1
167	176	1
88	90	2
65	65	2
74	74	2
47	47	3
158	161	1
1	7	1
16	138	1
36	60	1
176	176	1
120	136	1
31	56	1
187	188	2
170	188	1
19	19	2
7	7	2
9	9	1
161	161	1
98	167	1
109	109	1
4	11	2
122	123	1
11	60	1
71	85	2
84	85	1
97	97	3
63	64	1
95	96	2
18	18	3
5	150	1
130	130	1
140	140	1
104	104	2
6	23	1
143	143	2
88	88	2
136	195	1
125	136	1
183	184	2
5	5	3
120	120	1
150	150	2
41	41	1
96	97	1
132	195	1
12	12	1
94	103	1
147	157	1
1	84	1
55	55	1
71	71	1
114	114	1
57	57	1
31	31	2
70	82	1
104	111	1
96	107	1
0	2	1
123	133	1
175	175	2
104	107	2
56	77	1
147	147	2
123	123	1
56	78	1
167	167	2
1	3	1
171	171	3
34	37	1
118	120	1
100	106	1
16	141	1
157	170	1
22	24	1
157	162	1
146	146	1
59	59	1
12	13	1
61	62	1
0	64	1
22	28	1
47	48	1
102	102	3
184	184	2
19	40	1
22	22	1
158	158	1
72	72	1
75	81	1
143	188	1
155	156	1
163	163	2
121	121	3
31	96	1
63	63	1
13	149	1
173	176	1
21	21	1
155	165	1
55	70	1
140	141	3
160	169	1
97	99	1
15	15	2
154	155	1
129	134	1
63	134	1
24	110	1
78	86	1
21	80	1
136	138	1
190	197	1
18	22	1
119	119	1
102	177	1
112	197	2
102	108	1
126	126	1
143	144	1
57	124	1
32	73	1
16	20	1
115	117	1
5	7	1
100	102	1
45	45	1
146	154	1
42	43	1
22	23	1
46	49	1
148	148	2
39	40	1
135	139	1
120	147	1
35	68	1
173	179	1
3	4	1
52	127	1
94	94	1
72	73	1
64	87	1
129	129	1
18	19	1
51	60	1
88	148	2
142	190	1
84	84	1
65	74	1
135	137	1
62	111	1
182	182	1
30	35	1
70	71	1
67	68	1
94	97	1
36	37	1
9	10	1
20	20	1
3	3	1
197	197	1
47	53	1
74	97	1
122	195	1
8	8	1
1	2	1
122	126	1
12	23	1
136	137	1
113	113	1
125	126	1
177	189	1
147	150	1
44	44	1
181	181	1
22	122	1
147	164	1
146	153	2
89	97	1
97	139	1
