106	106	2
111	152	1
170	170	1
23	28	1
106	111	1
84	84	4
10	10	3
11	14	1
115	155	1
29	30	1
118	118	1
108	108	4
129	129	2
156	156	3
134	135	1
169	169	4
79	79	2
52	120	1
76	76	1
11	18	1
25	75	1
114	114	2
91	95	1
129	131	1
140	149	1
121	127	1
109	111	2
112	118	1
127	128	1
46	46	3
143	182	1
116	116	3
46	47	1
11	11	1
151	151	1
105	105	1
125	137	3
74	74	2
146	164	1
107	107	2
3	5	2
177	186	1
16	20	3
17	17	2
95	95	2
164	167	1
111	112	1
140	143	2
57	59	1
162	162	1
0	0	2
138	138	1
141	141	2
167	169	2
117	121	1
17	25	1
162	173	1
124	124	1
91	97	1
175	175	2
123	123	1
53	53	1
140	174	1
12	20	2
12	12	2
13	13	1
72	72	2
78	79	1
20	45	1
82	111	1
113	162	1
2	2	2
144	149	1
33	55	1
133	135	1
103	110	1
147	187	1
64	67	2
18	18	2
190	190	1
188	188	2
176	177	1
22	22	1
23	23	1
184	184	2
72	130	1
127	135	1
174	174	3
112	115	1
44	44	1
105	183	1
88	114	1
98	98	2
167	167	1
87	95	1
79	89	1
14	15	2
60	72	1
13	16	1
12	29	2
115	128	1
166	167	1
148	148	1
151	179	1
20	185	1
146	146	2
127	141	1
135	137	1
41	153	1
69	129	1
3	3	2
18	75	1
137	160	1
63	63	2
163	163	3
168	168	3
87	87	1
116	141	1
108	173	1
97	188	1
145	147	1
75	105	1
19	19	1
20	66	1
93	93	1
137	138	1
71	159	1
13	14	1
68	68	2
181	181	2
187	187	3
77	77	1
100	100	1
132	132	3
176	176	3
59	61	1
58	67	1
5	5	1
79	86	1
58	58	1
20	33	1
182	183	1
98	100	1
153	153	1
37	41	2
139	160	3
131	131	1
56	56	2
141	142	1
83	83	2
62	83	1
88	88	1
38	38	3
158	158	1
101	101	2
137	179	2
152	152	1
120	170	1
53	114	1
19	67	1
32	43	1
107	108	2
42	74	1
21	21	1
64	64	1
90	90	1
85	85	1
176	181	1
182	184	1
153	154	1
39	40	1
29	29	1
125	161	1
144	179	2
117	117	1
44	45	1
154	154	1
142	142	1
6	6	3
28	28	1
58	155	1
103	111	1
122	127	2
143	143	1
119	119	1
41	43	1
90	91	1
166	166	1
112	185	1
160	161	1
20	20	1
96	104	1
132	133	1
140	144	1
55	154	1
104	104	2
170	171	2
89	123	1
146	147	1
34	34	1
105	109	1
101	102	1
11	12	1
38	39	1
165	165	1
65	67	1
127	127	1
6	22	1
6	7	1
79	81	1
65	97	1
15	26	1
161	161	1
161	182	1
30	30	1
59	59	1
140	154	1
78	90	1
102	102	1
79	98	1
103	103	1
155	159	1
