72	72	5
73	73	3
86	86	4
70	70	1
95	95	1
100	100	2
98	112	1
119	119	4
64	64	3
19	19	4
1	1	3
20	20	3
25	25	2
120	122	1
44	44	4
130	131	1
30	78	1
10	17	1
24	24	2
78	78	2
75	75	1
67	67	2
77	77	2
20	58	2
116	116	3
120	120	2
11	14	1
65	65	1
7	29	1
68	111	1
106	106	4
46	46	2
129	129	5
84	84	2
10	11	1
11	11	3
60	73	1
115	115	1
104	104	2
79	79	2
72	73	1
68	100	1
3	3	5
54	54	2
17	133	1
80	91	1
101	101	4
126	130	1
114	129	1
24	82	1
1	13	1
107	109	1
86	133	2
102	104	1
28	117	1
70	71	1
60	61	1
71	71	1
125	126	1
35	35	1
68	109	2
9	9	1
123	123	4
62	64	1
82	89	1
119	127	1
17	17	2
28	108	1
32	32	3
128	129	1
25	31	2
31	32	2
125	125	1
82	82	2
67	69	1
35	85	1
0	1	1
5	54	1
125	135	1
68	130	1
83	84	2
57	57	1
66	68	1
63	63	1
99	99	2
70	76	1
59	72	1
44	50	1
5	130	1
69	69	5
34	35	1
50	50	1
4	55	1
2	16	1
14	17	1
13	13	1
56	133	1
66	66	1
75	91	1
52	78	1
34	37	2
27	57	1
68	68	2
98	98	1
3	80	1
92	92	1
108	109	2
33	33	1
134	134	3
4	5	2
110	111	2
21	21	2
60	60	1
83	83	2
64	65	1
8	8	1
15	15	1
18	128	1
43	43	3
53	53	1
53	58	2
43	44	2
10	18	1
107	107	1
36	36	1
29	130	1
2	2	1
103	103	2
78	120	1
102	102	1
28	28	2
63	65	1
87	87	2
14	14	1
43	126	2
7	7	1
69	116	1
20	25	1
67	100	2
119	124	1
51	51	1
56	56	4
12	12	1
62	62	2
111	112	1
105	105	1
76	91	1
69	117	1
20	31	1
55	55	1
23	27	1
94	94	1
15	17	1
113	113	1
21	32	1
85	85	1
86	129	1
59	59	1
122	123	1
106	127	1
118	119	1
70	120	1
114	115	1
52	52	1
61	61	1
43	45	1
18	19	1
34	34	1
90	90	2
109	130	1
127	129	1
132	133	1
88	88	1
36	50	1
16	16	1
115	116	1
112	114	1
77	79	1
75	76	1
118	118	1
35	54	1
74	74	1
109	109	1
127	130	1
18	35	1
124	124	1
94	95	1
79	80	1
