115	115	4
105	106	4
18	18	4
102	114	1
8	22	2
117	117	6
71	75	1
15	16	1
41	41	1
48	61	2
63	76	1
38	38	4
127	128	1
109	109	3
133	133	4
88	88	2
76	76	6
14	14	6
76	109	3
6	6	8
63	63	3
17	31	1
99	104	1
83	122	1
15	15	2
124	124	6
113	113	5
8	8	4
85	86	5
120	124	2
123	123	2
68	70	1
35	35	5
6	100	3
122	122	3
34	34	5
37	37	4
93	93	1
105	105	4
92	93	2
73	76	1
18	19	1
71	74	1
121	122	1
37	38	2
77	77	3
89	93	1
91	93	1
66	68	1
47	47	4
12	12	7
27	27	3
114	114	2
79	79	4
40	40	2
74	74	3
47	48	2
11	11	4
60	60	3
86	86	4
61	61	6
107	113	1
45	56	1
95	113	2
134	134	4
96	96	5
0	92	1
9	46	2
125	126	2
90	90	2
111	112	2
78	78	2
105	113	1
65	65	5
7	99	1
13	103	2
102	103	1
73	73	4
117	118	1
103	103	1
1	2	1
22	22	3
126	126	5
98	98	3
28	29	1
19	19	3
20	20	1
58	59	1
125	125	5
92	92	2
100	100	2
97	132	1
57	57	1
22	78	2
128	128	2
81	97	1
19	22	1
84	84	3
46	57	1
13	31	1
14	17	1
1	1	2
111	111	4
63	72	1
39	39	5
29	29	2
57	109	1
14	32	1
100	101	3
16	16	3
91	91	2
17	17	5
131	131	2
112	112	2
112	115	1
40	50	1
21	104	1
83	83	4
0	0	3
9	9	5
75	75	4
36	36	4
72	72	2
120	121	2
33	33	5
44	44	2
70	70	1
71	71	2
94	94	3
29	40	1
104	104	2
28	28	3
15	38	1
68	68	3
106	106	6
5	5	2
4	5	3
39	41	1
120	120	3
7	7	2
32	32	4
66	66	4
107	110	3
62	62	2
111	116	1
107	107	3
88	89	1
66	67	1
55	59	1
102	102	1
108	111	2
81	81	1
119	119	4
59	59	2
85	85	1
75	76	2
12	13	2
59	61	2
57	74	1
8	99	1
36	37	1
32	34	1
92	96	1
68	71	1
21	21	1
36	43	1
64	64	3
108	108	3
89	106	1
78	122	1
5	6	1
38	92	1
88	124	1
1	74	1
65	66	2
121	121	1
31	31	2
25	25	3
56	56	2
42	43	1
80	80	2
107	111	1
43	44	2
38	41	1
16	28	1
126	128	2
84	128	1
32	33	1
32	35	2
78	115	1
123	134	1
9	10	3
100	127	1
123	125	1
77	110	1
75	78	1
129	129	5
79	82	2
82	84	1
2	2	2
74	75	1
87	88	1
31	32	2
57	58	2
4	4	1
63	65	1
82	83	1
10	10	1
99	101	1
110	110	3
102	113	1
96	101	1
79	81	1
112	113	1
23	23	1
55	56	2
83	123	2
104	107	1
102	110	1
95	120	1
43	126	1
97	98	1
112	118	1
132	132	1
10	13	1
89	89	1
45	46	1
101	105	1
88	129	1
112	116	1
37	40	1
6	113	1
60	77	1
118	118	1
67	67	1
45	45	1
26	42	1
115	116	1
95	124	1
31	36	1
91	92	1
107	109	1
30	30	2
87	87	2
55	55	2
121	124	1
45	59	1
10	11	2
30	31	1
116	116	3
99	100	1
23	25	1
84	87	1
21	23	1
16	17	1
126	130	1
90	91	2
71	72	1
14	20	2
104	105	1
103	104	2
97	97	1
46	46	1
48	95	1
25	26	2
7	11	1
127	131	1
96	114	1
79	84	1
45	66	1
95	95	1
98	101	1
25	31	1
116	123	2
70	71	1
101	101	1
11	12	2
59	77	1
24	80	1
58	62	1
39	40	2
46	66	1
9	64	2
42	42	1
110	111	1
124	125	1
81	122	1
48	56	1
62	65	1
78	81	1
24	24	1
128	129	1
100	104	1
31	37	1
129	134	1
108	109	1
39	42	1
