99	99	1
194	195	2
241	241	2
23	23	5
83	83	6
0	0	1
135	135	1
204	206	1
80	80	3
29	30	1
6	7	1
151	151	2
152	152	3
76	201	2
71	72	3
75	75	2
133	133	2
212	213	1
21	22	1
17	173	1
85	85	1
65	66	2
6	32	1
97	97	1
234	234	2
117	124	3
176	200	2
26	61	1
221	223	1
15	128	1
139	139	1
226	226	1
178	216	1
88	103	1
111	111	1
151	153	1
179	191	2
66	69	1
123	137	1
17	18	2
86	148	1
146	146	3
195	195	3
82	82	1
198	199	1
62	63	4
200	201	1
159	159	2
190	190	3
177	183	1
190	192	3
174	174	6
195	235	1
16	49	1
44	44	1
195	222	1
232	232	2
99	106	1
3	18	1
114	114	2
228	229	1
24	226	1
73	73	2
159	162	1
127	156	1
10	137	1
47	51	2
72	95	1
76	79	1
235	235	4
121	159	1
213	214	1
57	59	1
102	102	1
22	84	3
157	157	2
111	135	1
214	214	3
60	66	1
102	103	1
64	64	3
56	56	1
106	106	4
21	166	1
109	110	2
8	8	2
7	9	1
187	187	3
95	95	1
2	2	1
123	124	3
224	230	1
238	238	2
186	187	1
28	204	1
99	122	1
140	140	3
196	196	2
5	6	2
27	158	1
219	219	3
152	220	1
43	43	2
107	108	1
128	128	4
48	49	2
3	10	1
179	179	1
154	154	1
29	29	3
6	86	1
215	235	1
197	202	2
122	123	3
217	218	1
89	134	1
68	71	1
80	81	1
200	200	1
201	206	1
209	209	3
58	59	1
70	84	1
108	108	4
165	165	2
72	73	1
84	84	1
21	134	1
35	35	2
159	168	1
124	124	6
9	29	1
156	156	2
197	197	5
8	9	1
96	162	2
9	9	2
206	206	1
10	10	2
169	180	1
130	130	1
53	53	2
203	219	2
20	47	1
176	180	1
202	202	1
181	196	2
191	191	4
21	21	1
80	140	1
112	112	2
65	65	1
170	184	1
144	147	1
229	230	1
68	76	1
142	142	3
24	24	1
201	201	1
67	67	3
42	66	1
228	228	2
31	33	1
113	146	1
161	163	2
105	105	1
32	32	2
69	74	1
60	109	1
81	81	2
232	238	1
47	47	3
2	3	1
233	233	3
215	215	1
127	139	1
16	16	2
169	171	1
220	221	3
33	33	2
8	55	1
31	31	2
30	31	1
148	148	3
181	181	1
45	45	1
5	5	2
141	142	3
82	85	1
178	178	2
127	128	1
17	57	1
199	200	4
0	8	1
74	98	1
162	162	3
86	87	1
155	155	1
183	209	3
41	85	1
135	136	2
158	216	1
117	117	1
109	109	1
213	216	1
40	40	2
30	30	3
3	3	2
110	113	1
13	13	3
7	7	1
145	145	2
139	189	1
242	242	2
230	230	2
232	242	1
41	118	1
100	105	1
79	79	2
218	218	2
71	71	3
41	46	1
31	240	1
227	227	2
136	136	2
177	210	1
220	222	2
120	121	1
158	158	2
46	216	1
9	10	1
176	178	1
0	63	1
37	37	2
179	183	1
13	14	1
235	236	1
28	31	1
0	155	1
49	67	1
18	34	2
212	221	1
163	164	1
14	15	1
49	49	1
12	35	1
55	71	1
236	236	2
58	58	3
208	209	1
240	240	2
206	209	1
137	154	1
163	163	3
58	61	1
22	53	1
27	28	1
175	176	1
184	185	1
135	150	1
184	222	1
185	211	1
96	97	1
111	120	1
221	222	2
1	60	1
220	220	1
134	135	1
56	57	2
142	156	1
160	166	2
212	212	3
144	144	1
237	237	4
113	179	1
39	63	1
146	171	2
39	39	2
148	149	2
198	198	3
8	224	1
195	197	1
34	35	2
27	44	1
206	227	1
220	234	1
61	61	2
146	232	1
69	173	1
209	241	1
54	54	1
168	230	1
54	76	1
210	237	1
29	41	1
149	149	1
78	78	1
141	141	2
105	116	1
180	204	2
65	106	1
202	224	1
227	230	1
15	16	1
22	22	1
174	224	1
141	184	1
39	129	1
241	242	1
107	107	2
233	236	1
153	153	2
18	18	1
225	226	1
121	148	1
207	207	1
95	100	1
100	100	1
171	238	1
60	60	2
5	45	1
199	199	1
169	169	1
193	193	1
35	134	1
103	105	1
189	189	1
40	41	1
192	226	1
143	143	4
62	73	1
71	74	2
138	139	1
199	201	1
66	66	1
38	71	2
196	228	1
102	122	1
23	75	1
213	213	1
177	236	1
167	167	2
39	127	1
50	50	1
68	139	1
18	19	1
149	152	1
40	150	1
216	216	1
174	195	1
3	6	1
180	184	1
27	32	1
183	226	1
47	48	1
69	69	1
214	215	1
208	208	1
4	4	1
3	23	1
203	203	1
127	127	1
123	123	1
55	55	1
165	178	1
28	28	1
32	39	1
26	112	1
180	180	1
2	35	1
103	103	2
20	20	1
62	65	1
31	106	1
74	74	2
46	68	1
158	178	1
12	13	1
183	189	1
48	242	2
170	170	1
104	118	1
47	77	1
162	165	1
125	126	1
120	221	1
198	222	1
28	30	2
9	31	1
37	187	1
11	96	1
112	113	1
60	160	1
70	71	1
225	225	1
2	49	1
74	75	1
70	103	1
215	222	1
155	157	1
150	151	2
1	2	1
221	221	1
101	173	2
143	168	1
205	211	1
130	233	1
0	6	1
100	101	1
134	210	1
136	139	1
17	17	2
198	221	1
177	212	1
0	14	1
1	35	1
61	189	1
98	98	1
102	105	1
172	172	2
128	139	1
26	26	1
0	221	1
77	109	1
149	167	1
46	46	2
31	41	2
27	46	1
189	199	1
37	38	1
88	88	1
65	200	1
224	225	1
84	85	1
212	227	1
199	213	1
70	128	1
184	184	1
35	36	1
233	235	1
105	163	1
192	192	1
128	179	1
175	238	1
66	85	1
114	115	1
32	36	1
14	14	1
104	105	1
63	65	1
205	205	1
111	113	1
