84	84	5
124	125	2
188	189	1
187	187	4
66	66	4
144	144	5
91	95	2
27	29	2
38	38	2
53	55	3
84	99	1
185	185	3
102	102	4
113	153	1
141	154	2
115	115	3
183	183	6
182	183	2
73	73	2
180	180	2
126	127	1
32	32	3
136	137	1
53	53	3
144	146	1
61	61	1
67	90	2
14	14	11
75	75	2
24	25	1
116	116	2
39	40	1
161	162	3
65	65	5
37	37	7
39	39	3
74	141	2
170	170	3
103	103	3
71	71	5
27	27	3
186	187	3
167	168	1
89	174	1
73	93	1
23	23	1
48	147	1
159	159	4
59	59	5
174	176	3
35	35	4
41	41	1
97	97	1
41	42	1
160	168	1
10	53	1
126	139	1
132	132	2
168	168	8
18	118	1
30	32	1
33	33	3
4	4	6
72	72	1
128	128	3
47	47	1
169	169	9
134	135	4
147	147	5
31	31	1
7	7	4
156	160	1
10	10	9
130	130	2
93	96	2
186	186	4
68	68	3
12	12	4
160	160	3
178	179	4
106	106	5
182	185	1
57	57	2
161	181	3
71	73	2
93	93	3
113	115	1
111	111	2
0	22	2
87	91	1
167	167	3
6	6	7
85	85	7
114	114	2
127	128	2
156	176	2
101	164	1
77	77	3
134	134	1
15	15	1
165	165	3
34	34	4
56	56	5
21	22	1
59	63	1
181	181	2
1	141	1
145	152	1
78	78	4
166	166	6
13	13	4
11	12	1
81	81	3
8	8	2
5	13	1
22	22	8
108	124	1
154	154	2
99	99	6
188	188	3
47	48	2
43	43	1
152	180	1
171	172	2
175	175	5
64	65	1
52	52	1
166	169	1
90	90	1
94	95	1
123	123	3
9	9	4
105	133	1
74	75	1
88	88	2
19	54	1
58	58	2
169	174	1
108	108	3
104	104	4
89	89	4
118	118	6
113	113	2
162	162	1
126	159	1
141	152	1
102	106	2
122	122	3
139	141	1
92	126	1
141	141	1
81	107	1
34	35	1
48	48	6
46	46	3
125	125	6
171	171	4
96	100	1
168	173	1
20	21	1
124	126	2
20	20	3
88	135	1
1	2	1
32	35	1
28	29	1
189	189	1
68	141	1
107	107	3
82	92	1
14	16	1
32	36	2
135	137	1
148	148	4
25	26	1
8	26	2
163	164	1
131	182	1
17	17	3
149	151	2
163	163	4
173	173	3
177	177	4
70	115	1
61	63	1
1	1	2
82	82	5
58	59	1
76	77	1
140	164	1
28	31	1
184	188	2
103	104	1
86	87	1
4	8	2
84	106	2
118	119	1
158	158	4
55	55	3
156	156	1
182	188	1
59	60	2
184	184	2
143	143	2
105	105	3
11	34	1
165	176	1
5	5	5
36	36	2
154	181	1
42	42	4
121	156	1
147	148	1
149	154	1
57	165	1
23	52	1
79	81	1
172	172	1
87	137	1
27	28	1
62	67	1
98	98	1
146	147	2
117	117	4
157	157	5
73	109	1
55	57	2
146	146	3
46	66	2
140	140	4
46	144	1
57	135	1
124	124	2
83	83	2
19	19	3
123	124	3
17	25	1
101	103	1
30	31	1
179	188	2
136	136	4
155	155	5
94	138	1
81	82	3
97	137	1
164	182	1
20	37	1
146	152	1
147	149	1
15	17	2
2	2	3
0	0	3
123	128	1
75	117	1
76	78	1
145	145	4
90	133	1
179	179	1
3	3	3
162	163	2
14	20	1
139	139	4
76	76	2
131	132	1
154	155	1
55	56	1
174	174	6
64	64	2
79	79	2
80	81	3
101	101	2
28	56	1
44	45	1
33	37	1
70	70	2
7	28	1
139	164	2
28	28	1
100	156	1
111	112	3
152	152	2
68	79	2
138	138	2
135	138	2
3	5	1
58	63	2
148	153	1
112	169	1
130	155	1
150	151	1
25	25	2
10	11	2
84	86	1
129	133	1
54	54	2
37	64	1
45	45	1
26	119	1
76	128	1
139	140	1
145	155	1
151	151	1
154	158	1
74	74	1
130	137	1
190	190	2
184	186	2
84	175	1
112	112	1
178	178	2
90	91	1
15	16	2
33	91	1
187	189	2
154	157	1
164	164	2
11	11	1
82	120	1
180	183	2
42	44	1
18	18	1
126	126	2
181	187	1
54	105	1
18	20	1
89	100	1
164	165	1
64	107	1
31	37	1
128	146	1
39	71	1
180	182	1
68	128	1
68	87	1
41	123	1
185	186	1
119	119	2
25	152	1
16	16	3
105	113	2
125	177	1
40	42	1
38	39	3
178	181	1
117	118	2
12	21	1
80	98	1
132	133	1
8	10	1
37	72	1
87	95	1
129	162	1
26	26	2
183	184	1
121	122	1
179	183	1
43	44	1
176	176	2
24	26	1
156	166	2
95	98	1
44	44	2
157	158	1
88	96	1
88	104	1
149	149	1
2	184	1
158	185	1
40	40	1
85	118	1
135	135	2
187	188	2
100	100	1
60	60	1
153	153	1
24	24	2
177	178	1
88	89	1
59	71	1
158	184	1
156	177	1
11	13	1
142	143	1
66	68	1
128	137	1
44	47	1
10	89	1
24	66	1
149	150	1
100	158	1
10	12	1
52	53	1
46	130	1
109	109	1
54	55	1
157	175	1
10	15	1
2	38	1
154	166	1
29	29	1
92	94	1
45	100	1
16	29	1
121	121	1
170	172	1
6	7	1
168	187	1
86	153	1
172	173	1
8	154	1
54	63	1
22	28	1
113	114	1
79	80	1
17	29	1
99	118	1
175	177	1
6	13	1
102	103	2
96	97	1
31	32	1
40	89	1
21	23	1
7	44	1
137	137	1
181	182	1
111	115	1
