173	173	1
112	131	1
114	120	1
132	133	3
25	26	1
0	0	1
156	156	1
70	70	1
38	39	1
15	39	1
58	86	2
35	125	1
163	163	1
118	145	2
112	112	2
123	142	1
5	8	1
153	172	1
28	28	1
145	147	1
131	131	1
5	69	1
127	127	1
144	146	2
27	27	1
146	147	2
71	71	1
151	193	1
175	176	1
98	98	1
34	35	1
108	108	1
169	173	1
110	111	1
150	184	1
142	142	1
72	72	3
76	76	1
179	183	1
176	177	2
7	112	1
185	193	1
44	44	1
10	124	1
188	188	1
114	118	3
57	58	2
12	13	1
185	186	1
79	177	1
14	14	2
34	34	1
5	48	1
109	109	1
53	124	1
114	114	4
17	17	1
33	33	3
123	124	1
95	105	1
157	158	1
63	64	1
155	194	2
68	78	1
59	59	1
122	122	1
103	103	3
139	139	2
40	41	1
23	24	2
19	60	1
20	26	1
165	165	1
170	170	1
132	132	4
11	11	3
7	13	1
77	77	1
179	194	1
67	68	1
61	61	1
186	186	3
126	126	3
59	82	1
126	128	1
33	148	1
104	174	1
148	148	2
0	18	1
73	195	1
24	24	3
143	194	1
4	24	1
94	94	1
138	138	1
66	74	1
178	179	1
137	189	1
5	44	1
68	71	1
61	122	1
37	38	1
106	106	3
191	191	1
64	64	1
22	184	1
111	111	1
56	61	2
137	151	1
171	172	1
95	95	1
160	160	1
125	185	1
193	193	2
83	84	1
37	54	1
3	67	1
98	145	1
111	114	1
136	136	1
37	37	1
79	79	1
88	88	1
60	61	1
7	7	2
38	61	1
9	142	1
153	153	1
129	131	1
42	42	1
4	4	1
22	22	2
12	51	1
72	81	1
135	135	2
132	134	2
137	137	1
56	112	1
39	150	1
40	108	1
147	155	1
169	170	1
57	57	1
17	25	1
6	161	1
38	38	1
118	118	1
159	171	1
65	66	1
84	84	1
63	63	1
49	49	1
84	85	1
46	46	1
125	126	1
174	174	1
39	58	1
57	128	1
114	126	1
128	128	1
149	149	1
119	121	1
19	19	1
32	32	1
40	123	1
31	31	1
105	105	1
0	25	1
165	166	1
68	73	1
159	159	1
187	188	1
102	102	1
3	30	1
