125	129	1
2	2	6
90	90	2
31	32	1
37	37	1
87	91	1
91	117	2
133	133	1
111	112	1
19	33	1
110	111	2
79	79	5
5	5	2
110	110	1
98	98	3
16	24	1
77	78	1
113	114	1
30	30	1
138	138	3
92	100	1
7	8	1
100	100	1
2	6	1
97	97	2
29	29	4
128	128	2
7	7	1
127	129	2
81	83	1
108	108	3
112	112	1
32	32	2
76	76	2
19	23	2
17	21	2
132	132	3
119	119	4
104	118	2
107	107	3
84	84	3
81	82	3
73	74	1
125	126	2
80	81	1
81	91	3
139	139	1
105	105	1
81	81	2
96	96	2
95	95	1
14	103	1
108	116	1
104	104	3
75	76	1
30	103	2
34	94	1
36	89	1
21	21	4
86	86	4
127	127	4
99	99	2
18	18	2
82	82	2
21	27	1
74	74	2
7	19	1
31	31	4
11	11	2
82	111	1
35	35	1
36	36	2
21	22	1
86	87	1
0	0	3
11	30	1
114	114	3
136	136	2
28	28	2
125	125	1
73	73	2
6	6	3
94	94	1
107	108	1
74	106	1
140	140	1
121	121	2
26	29	3
18	117	1
130	130	2
77	126	1
77	77	2
116	116	3
78	81	1
102	102	4
123	123	2
1	2	2
13	106	2
32	72	1
116	117	1
12	29	1
3	3	3
89	89	1
115	115	2
118	118	4
124	124	8
20	20	1
27	27	4
90	116	1
120	121	1
5	112	1
89	90	1
33	34	1
11	22	1
102	130	1
103	104	1
25	25	1
21	87	1
26	26	2
134	134	1
126	126	1
17	72	1
90	91	2
22	24	1
98	99	2
19	34	1
15	19	1
34	38	1
113	113	1
72	72	2
117	117	2
131	131	2
12	12	1
28	29	1
75	75	1
91	92	1
104	105	1
27	29	1
117	123	1
112	113	1
103	107	1
9	16	1
29	30	1
9	17	1
85	90	1
23	23	1
1	1	2
129	129	1
101	101	1
93	93	1
101	102	1
78	78	1
14	14	2
29	31	1
72	78	1
120	120	1
23	87	1
16	16	2
24	24	1
4	4	1
34	86	1
28	30	1
35	94	1
13	14	1
111	111	1
121	122	1
17	19	1
19	19	1
8	8	1
85	89	1
124	125	1
124	127	1
27	126	1
92	92	1
83	83	1
81	90	1
4	75	1
18	19	1
