42	44	1
202	234	3
156	156	5
87	87	5
241	241	1
203	205	3
9	10	1
222	222	2
108	108	1
6	6	1
48	48	1
11	11	4
66	66	4
92	93	1
244	244	2
71	93	1
234	234	1
170	171	1
236	236	3
180	180	3
58	58	3
14	14	1
46	47	2
91	96	1
203	203	4
88	88	3
118	118	2
92	92	6
188	188	2
223	223	3
228	229	1
213	214	1
2	3	2
36	36	4
69	69	3
10	52	1
242	245	1
104	104	1
45	47	1
209	209	1
225	226	2
23	23	4
163	187	1
167	168	1
19	19	2
163	164	1
245	245	2
210	211	1
77	92	1
15	16	2
248	248	1
76	77	1
185	224	1
4	17	1
186	197	1
45	62	1
75	75	1
165	167	1
47	47	5
109	109	2
16	16	2
113	113	2
225	229	1
116	116	3
84	84	5
181	182	1
199	199	3
170	170	5
15	15	2
119	119	2
65	68	1
6	14	1
243	244	1
235	235	2
145	145	2
31	31	1
41	43	2
26	26	2
36	40	1
220	220	1
46	46	6
29	233	1
65	66	1
221	221	1
8	8	3
1	1	1
10	10	2
86	87	1
226	227	2
48	50	1
39	39	2
98	98	2
18	19	3
182	186	2
86	86	3
35	35	2
199	200	2
53	53	1
193	236	1
38	38	1
89	89	2
197	198	3
76	76	3
81	88	2
47	63	1
174	174	2
60	97	1
207	207	1
237	238	1
112	246	2
52	53	3
160	160	5
213	213	1
232	232	1
120	159	1
211	211	1
243	243	1
61	61	3
229	229	3
150	150	2
4	5	1
80	81	1
73	73	1
176	177	2
174	245	1
37	37	1
168	169	1
64	88	1
177	196	1
175	175	3
56	158	1
72	108	1
215	215	2
120	120	1
164	165	1
113	241	2
55	55	2
113	114	2
226	226	4
112	112	3
89	90	1
242	242	2
54	54	2
92	234	1
20	20	1
205	206	2
216	216	1
113	240	1
219	219	2
211	212	2
33	33	2
154	154	2
84	85	2
230	231	1
95	95	1
201	235	1
198	198	1
184	184	2
54	58	2
247	247	1
9	9	1
50	50	1
163	165	1
104	106	2
65	65	2
238	238	1
163	163	2
246	246	6
25	25	1
45	45	2
152	152	1
185	190	1
93	93	1
115	115	1
22	23	1
197	199	1
160	161	2
27	29	1
93	95	1
32	32	2
28	28	1
176	176	1
3	246	1
2	2	2
55	57	1
64	64	1
162	165	1
171	192	1
18	20	1
5	17	2
53	63	1
178	179	1
200	200	3
29	29	1
90	180	1
2	14	1
201	201	2
44	44	3
7	7	2
85	85	1
18	18	1
202	202	1
67	67	2
34	34	1
160	205	1
201	202	1
173	173	1
212	213	1
59	60	1
76	87	1
101	165	1
182	182	1
41	93	1
170	187	1
233	234	1
85	92	1
177	232	1
54	245	1
190	195	1
177	177	2
196	196	1
245	246	1
157	158	1
41	41	3
155	155	1
27	27	2
174	175	1
8	14	1
35	54	2
189	189	3
90	226	1
191	191	1
189	194	1
186	186	1
172	172	1
240	240	1
238	239	1
24	24	1
221	222	1
64	79	1
203	212	1
170	172	1
6	8	1
239	239	1
94	204	1
183	184	1
60	61	1
224	230	1
114	114	1
12	12	1
114	115	1
164	164	1
99	100	1
230	237	1
227	227	1
167	167	1
26	38	1
94	94	1
192	192	1
31	34	1
17	32	1
117	117	1
37	38	1
193	194	1
46	171	1
40	40	2
197	197	1
212	220	1
101	236	1
60	62	1
218	218	1
31	244	1
171	173	1
