5	37	2
144	144	2
57	58	2
9	9	4
65	137	1
173	173	3
139	140	1
97	97	4
13	14	2
83	87	1
60	60	4
42	42	2
31	102	1
163	165	1
88	146	1
94	94	1
112	113	1
109	109	4
3	4	1
37	102	2
40	52	1
22	22	2
53	53	4
72	72	2
51	124	2
10	12	2
50	124	1
85	85	3
167	168	4
118	123	1
104	105	1
15	17	3
8	11	1
126	151	1
79	79	2
167	167	2
9	11	1
28	28	1
123	123	7
89	89	5
163	163	2
116	117	4
7	14	1
111	111	3
61	115	1
86	169	1
135	147	1
107	107	3
78	78	2
91	139	3
64	64	1
136	146	1
132	132	2
146	152	1
13	13	1
152	153	3
161	164	3
16	16	1
140	142	1
45	45	2
28	29	1
117	117	2
84	84	4
106	107	2
126	127	1
134	134	2
108	109	2
113	152	1
114	126	1
95	95	2
3	3	3
91	91	1
56	56	1
82	82	2
113	113	1
177	179	1
156	156	2
122	126	1
80	82	1
38	78	1
142	142	4
43	123	1
44	53	1
30	123	1
118	118	2
92	101	1
23	108	1
168	169	2
32	32	3
99	100	2
178	180	1
67	137	1
50	51	2
76	77	1
52	52	3
107	109	1
168	172	2
124	124	1
24	109	1
26	26	1
136	136	3
38	40	1
99	99	2
32	33	3
136	153	2
151	151	6
2	11	1
129	130	2
168	168	1
66	66	4
117	118	1
26	41	1
164	166	2
166	170	1
92	92	2
86	150	1
136	144	1
178	179	1
141	141	2
153	161	1
128	128	2
162	163	1
13	20	2
25	25	2
116	116	1
71	71	4
36	36	5
73	76	1
30	121	1
72	73	1
67	106	2
108	108	1
19	20	1
157	157	1
135	135	2
160	179	1
2	2	4
109	136	1
41	43	1
62	62	1
20	21	1
31	32	1
76	76	1
50	50	2
154	166	1
127	127	2
103	103	1
160	161	2
55	79	1
23	25	1
2	3	1
175	175	2
17	17	4
139	139	1
159	159	1
67	67	2
49	135	3
55	115	1
176	176	2
63	63	4
145	145	3
169	171	2
172	174	1
137	137	1
57	57	3
83	84	1
5	5	4
75	75	1
10	11	1
164	169	2
157	159	1
129	168	1
6	17	1
80	80	1
155	160	1
60	62	1
12	13	2
110	110	1
151	168	1
161	162	3
59	59	1
131	131	2
133	134	1
51	51	2
101	101	5
52	53	1
92	93	2
169	169	2
39	41	2
87	87	1
58	58	3
85	86	1
131	133	2
57	105	2
56	58	3
58	59	1
10	10	1
65	78	1
37	44	1
96	96	2
73	73	1
178	178	2
34	135	1
43	43	1
59	134	1
108	136	1
41	42	1
42	43	1
60	67	1
32	97	1
58	62	1
81	85	1
143	143	1
161	161	4
136	151	1
179	179	3
44	44	1
131	132	1
86	86	2
4	4	1
17	18	1
30	30	1
121	121	1
110	118	2
81	127	1
19	27	1
173	176	1
0	0	1
56	57	2
127	171	2
96	98	1
138	138	1
4	5	1
166	166	3
44	55	1
110	112	1
165	165	1
18	22	1
64	72	1
175	176	1
77	77	2
24	107	1
15	16	2
18	18	3
158	159	1
155	156	2
171	171	1
34	42	1
68	68	1
147	147	1
94	95	1
90	125	1
70	70	1
21	21	1
123	124	1
9	21	1
53	126	1
150	150	1
55	64	1
112	118	1
27	28	1
66	109	1
142	162	1
44	52	1
114	115	1
37	37	1
8	9	1
68	72	1
98	98	2
22	25	1
41	41	1
140	140	1
15	15	1
6	11	1
73	172	1
176	177	1
90	90	1
18	25	1
23	23	1
112	133	1
55	55	1
127	128	1
63	171	1
179	180	2
31	31	1
6	25	1
34	35	1
35	37	1
81	82	1
89	100	1
24	30	1
93	98	1
125	125	1
170	170	1
114	114	1
35	35	1
74	76	1
147	148	1
146	151	1
1	1	1
156	163	1
91	92	1
25	109	1
172	172	1
164	164	1
155	167	1
162	162	1
174	174	1
54	54	1
71	173	1
31	37	2
21	22	1
33	107	1
38	45	1
60	61	1
39	39	1
