163	163	3
96	96	3
54	166	1
31	33	2
69	69	2
203	203	3
160	160	2
233	241	1
82	90	2
1	1	4
165	167	1
100	103	1
70	112	1
88	88	2
170	170	1
201	205	1
236	236	4
18	18	4
17	19	2
65	65	5
73	74	1
17	17	1
7	17	1
38	38	3
83	109	1
171	171	2
75	75	2
204	204	5
152	157	1
55	55	5
208	209	2
214	216	2
150	150	1
101	101	3
229	230	3
188	188	4
98	98	2
194	194	2
201	201	11
44	44	4
187	187	2
153	153	4
165	233	1
22	173	1
158	169	1
182	182	4
59	201	1
28	28	4
243	247	1
10	10	5
49	71	1
71	79	1
241	241	2
7	7	4
175	175	4
220	224	1
246	246	1
114	117	1
152	152	1
49	51	2
214	214	3
80	80	1
66	71	1
52	52	5
190	237	2
60	60	4
47	48	1
67	67	4
154	154	5
208	208	1
85	85	4
193	193	4
214	228	1
217	217	4
29	42	1
180	182	1
103	103	1
237	237	1
40	40	4
158	242	1
19	19	2
111	111	2
78	79	1
166	167	1
59	63	2
23	23	2
33	33	3
182	183	1
221	221	2
55	66	1
27	40	1
215	215	4
113	113	6
81	81	2
46	46	1
30	30	2
34	35	1
102	117	1
168	169	1
37	37	2
238	238	3
79	79	2
46	87	1
187	189	1
156	158	1
202	202	4
117	117	4
159	159	3
64	70	1
89	89	4
24	24	3
18	32	1
13	52	1
59	60	1
159	192	1
66	66	2
218	218	2
120	120	1
179	179	1
145	147	1
195	195	2
166	168	2
31	31	2
120	144	1
242	245	1
36	68	1
63	65	1
241	242	1
112	113	1
63	63	1
223	229	1
14	14	2
26	100	1
193	194	1
2	2	4
43	43	8
57	57	2
29	29	1
82	83	2
245	245	2
244	245	2
220	220	7
186	196	1
108	109	1
209	248	2
161	162	1
11	32	1
14	38	2
46	52	1
180	180	2
118	118	3
16	17	1
162	162	2
191	192	2
20	22	1
166	192	1
198	198	1
29	33	1
226	226	2
64	65	1
61	61	1
105	105	3
212	212	5
91	100	1
70	75	2
34	44	2
83	83	1
76	76	1
89	104	1
88	91	1
32	34	1
202	203	1
29	30	1
68	69	1
41	41	3
5	5	2
35	36	1
102	102	2
3	3	2
227	227	1
190	190	1
27	28	1
92	92	2
3	5	1
223	223	2
103	104	1
48	71	2
39	204	1
11	11	3
219	219	2
80	163	1
210	248	1
100	117	2
11	12	1
38	231	1
20	20	3
218	234	1
64	88	2
222	223	1
83	101	2
208	232	1
176	178	1
167	167	3
173	173	5
45	46	1
48	48	4
86	86	2
224	229	1
239	239	3
106	108	2
209	209	2
159	161	1
172	172	1
207	207	2
21	21	1
175	180	1
177	177	1
232	232	1
147	147	2
248	248	3
235	235	1
97	97	1
99	99	2
100	100	1
186	186	3
205	205	4
62	88	1
231	231	1
164	164	3
228	228	1
107	109	2
249	249	1
22	25	1
84	84	2
213	232	1
119	120	1
159	235	1
77	77	1
153	154	3
151	151	1
230	231	2
184	184	1
84	151	1
237	238	2
207	234	1
198	199	1
166	185	2
95	95	2
157	157	1
188	189	1
26	26	1
161	161	1
194	195	1
236	237	3
152	178	1
114	114	1
119	119	1
31	32	1
78	117	1
173	182	1
96	97	1
26	38	1
175	176	2
167	168	2
27	27	2
33	115	1
71	239	1
43	44	2
185	213	3
21	39	1
85	87	1
212	236	2
68	220	1
221	222	1
169	169	2
30	172	1
157	247	1
4	4	2
21	22	1
47	47	1
181	242	1
15	18	1
48	50	1
107	108	1
89	152	1
197	215	1
207	213	1
39	39	1
56	76	1
14	46	1
17	144	1
30	70	1
110	110	4
26	31	1
189	240	1
166	166	3
174	175	1
162	163	1
183	183	1
188	191	3
200	230	1
58	60	1
171	177	1
5	46	1
19	29	1
8	28	1
151	152	1
101	149	1
158	158	1
3	4	1
61	62	2
98	99	1
168	190	1
71	223	1
32	32	3
115	115	1
2	4	1
45	212	1
109	110	1
244	244	2
25	25	3
14	15	3
9	9	1
94	94	1
211	211	3
197	198	3
16	40	1
88	104	1
197	197	2
75	88	1
216	217	2
184	210	1
51	63	1
185	185	1
190	191	1
184	193	1
242	242	1
177	196	1
3	150	1
187	194	1
185	186	1
233	242	1
78	78	2
194	197	2
102	111	1
224	247	1
47	183	1
109	109	2
221	223	1
43	231	1
214	215	1
45	45	2
8	9	1
56	69	1
59	59	1
155	155	1
145	175	1
20	91	1
212	213	1
211	212	1
178	179	1
110	111	1
72	75	1
22	22	1
56	56	1
38	39	1
212	214	1
112	112	1
213	214	1
229	229	1
70	70	1
192	192	1
177	178	1
191	240	1
168	225	1
37	38	1
71	71	2
231	232	1
82	82	2
145	145	1
91	91	2
57	58	1
6	112	1
32	35	1
53	53	1
162	202	1
4	51	1
28	31	1
39	40	2
42	42	1
51	51	1
160	186	1
165	190	1
174	190	1
10	11	1
74	168	1
55	70	1
117	118	1
47	59	1
80	164	1
217	223	1
50	50	1
10	27	1
100	101	1
8	8	1
145	170	1
36	36	1
241	246	1
99	107	1
68	68	1
182	184	1
23	30	1
191	218	1
108	108	1
180	181	1
6	6	1
19	24	1
166	181	1
178	178	1
5	14	1
171	193	1
