134	134	4
52	53	1
33	33	2
156	156	5
18	18	3
34	35	2
130	130	2
94	120	1
137	137	1
74	74	2
160	160	4
168	170	1
142	143	2
84	105	1
174	178	2
26	26	1
81	86	1
141	152	2
174	174	3
10	14	2
135	135	3
27	144	1
32	135	2
123	123	3
59	59	1
24	140	1
161	162	2
121	124	4
110	124	1
88	89	3
85	120	1
61	66	3
131	131	3
76	79	1
3	3	1
150	150	2
40	40	2
103	103	1
102	102	1
168	172	1
102	133	1
152	153	4
138	177	2
118	119	1
31	32	2
84	84	3
60	61	2
106	107	1
101	101	5
16	122	1
154	155	2
116	116	3
84	85	2
31	31	3
19	20	2
114	114	3
1	1	3
10	10	1
172	172	2
33	36	2
153	153	4
10	132	1
137	138	2
81	123	1
117	120	1
94	94	3
147	147	2
115	140	1
86	86	1
19	19	2
164	164	3
173	173	2
27	31	1
166	166	4
49	49	1
4	5	1
128	128	6
160	162	1
122	145	1
44	44	3
2	13	1
59	60	1
115	115	1
117	118	1
85	85	1
100	100	2
101	121	1
25	26	3
8	12	1
28	29	1
24	24	1
68	68	1
81	81	2
139	139	1
65	65	3
13	13	2
79	79	3
138	138	3
129	130	1
119	154	1
25	25	1
92	94	1
111	111	1
143	143	3
65	109	1
77	77	1
159	159	1
162	162	1
5	12	1
37	176	3
133	133	3
123	124	1
107	107	2
15	127	1
115	116	1
57	57	1
67	67	2
78	78	3
22	25	1
151	166	2
36	37	1
104	152	1
13	39	1
139	143	1
122	122	1
152	152	2
63	63	1
124	125	2
149	176	1
112	113	2
92	95	1
97	164	2
149	155	1
88	88	2
103	160	1
165	166	1
114	135	2
2	8	1
168	168	7
53	59	1
35	41	2
7	7	1
7	136	1
22	73	1
156	159	1
163	163	3
12	12	2
19	106	1
99	120	1
97	97	2
115	143	1
82	86	1
150	167	1
84	87	1
157	157	1
151	151	2
95	127	1
20	86	1
28	28	1
89	89	1
115	142	1
24	144	2
2	3	1
0	0	3
167	169	1
87	111	2
40	42	2
173	174	1
121	121	2
22	22	2
160	167	1
138	156	1
58	59	2
167	167	2
72	72	2
71	71	1
6	6	1
56	145	1
93	100	1
52	55	1
169	169	2
61	64	2
93	123	1
4	4	1
91	161	1
92	96	1
20	20	2
87	161	1
167	168	1
104	106	1
156	170	2
178	178	2
27	28	1
70	72	1
147	148	2
154	154	2
4	16	1
97	126	1
29	29	1
66	86	2
40	138	1
121	122	1
76	168	1
117	147	1
175	175	1
19	23	1
11	30	2
23	97	2
118	123	1
124	124	4
117	117	1
111	112	1
153	154	1
6	40	1
126	126	4
14	14	1
155	156	1
32	41	1
64	79	1
8	35	1
179	179	2
128	140	1
172	173	1
87	87	3
54	60	1
59	62	1
72	165	2
38	38	2
54	78	1
158	159	1
108	113	1
66	66	1
102	161	1
72	80	1
141	142	1
38	39	1
83	89	1
120	151	1
55	56	1
110	143	1
8	16	1
76	76	1
149	149	3
0	1	1
82	139	1
27	27	1
112	155	1
91	91	1
171	171	3
43	173	1
174	175	1
54	57	2
42	42	2
25	85	2
41	43	1
50	63	1
43	43	2
26	40	1
66	72	1
139	149	1
119	140	1
53	54	2
45	45	1
9	10	1
92	93	1
118	121	1
92	92	3
30	54	1
108	108	1
23	50	1
12	13	1
54	59	1
72	97	1
39	173	1
93	121	1
105	105	1
60	60	1
97	98	1
31	39	1
107	114	1
58	58	1
22	144	1
57	58	1
129	129	2
170	172	1
148	148	1
3	66	1
113	113	1
18	73	1
99	100	1
106	106	1
64	64	1
9	32	1
144	144	1
155	155	2
32	32	1
60	147	1
101	161	1
112	168	1
63	64	1
63	67	1
30	31	1
50	50	1
110	142	1
114	119	1
148	149	1
146	146	1
44	170	1
3	4	1
127	128	1
119	147	1
1	5	1
21	21	1
15	15	1
46	105	1
24	27	1
100	150	1
136	136	1
12	22	1
56	56	1
55	55	1
36	56	1
