63	64	1
114	114	3
67	68	1
26	26	4
75	76	1
18	18	2
126	126	2
72	75	1
53	53	3
73	73	3
87	87	3
8	14	1
119	119	4
131	131	4
9	10	3
120	120	2
99	100	4
37	83	1
69	69	4
66	66	2
117	117	1
13	13	3
108	111	1
82	82	2
95	128	1
10	10	3
23	23	5
127	130	1
33	33	2
7	14	1
115	115	4
62	62	1
132	132	5
60	60	5
19	20	1
81	99	1
80	126	1
101	101	2
11	11	3
95	95	4
86	86	6
45	46	1
12	12	4
105	132	1
106	122	1
59	59	2
113	113	2
15	15	2
123	123	2
78	78	2
61	76	1
133	133	2
50	50	4
54	54	3
91	106	2
74	74	2
9	9	2
91	91	4
35	35	4
79	80	2
21	21	2
92	92	4
78	84	1
105	105	4
87	88	2
129	129	2
100	100	3
107	108	2
94	94	4
31	31	5
82	83	1
75	75	2
66	127	2
5	88	1
70	98	1
76	76	2
68	68	3
98	98	2
8	8	2
54	61	1
108	108	5
103	103	6
66	67	1
81	104	1
29	53	1
94	98	1
113	114	1
124	124	1
121	121	2
104	104	1
0	27	1
65	66	2
79	79	3
60	61	1
118	118	2
45	45	3
0	1	1
81	81	1
61	69	1
64	64	2
27	28	1
107	107	4
100	131	1
3	4	1
35	36	1
56	57	1
102	102	4
122	122	3
115	117	1
14	14	2
25	54	1
125	125	2
99	99	1
106	106	3
69	105	1
78	107	1
12	31	1
71	72	1
43	43	2
96	96	5
20	20	1
104	105	1
23	25	1
74	80	1
24	24	2
53	54	1
81	95	1
70	70	1
30	62	1
115	116	2
8	33	1
19	19	1
25	25	1
4	4	1
13	30	1
8	9	1
16	16	1
114	123	1
71	71	1
63	63	2
3	3	3
111	119	1
127	127	1
94	102	1
7	8	1
44	46	1
28	28	2
67	67	1
1	36	1
28	124	1
34	67	1
88	88	2
64	65	1
97	99	1
97	98	1
128	129	1
29	29	2
26	55	1
85	85	1
86	94	1
44	44	2
130	130	2
112	112	1
6	6	3
108	109	1
16	31	1
34	34	1
0	70	1
16	21	1
56	56	4
55	56	1
57	57	1
89	89	1
29	61	1
80	80	1
114	122	1
6	11	1
77	88	1
105	112	1
58	58	1
84	85	1
30	80	1
6	7	1
109	109	1
58	66	1
86	120	1
113	115	1
123	124	1
19	21	1
61	61	2
25	26	2
38	38	1
7	7	1
105	126	1
2	2	1
100	101	1
120	123	1
24	55	1
65	65	1
0	0	1
31	32	1
78	82	1
116	116	2
54	60	1
91	92	1
121	126	2
53	83	1
49	50	1
36	38	1
91	102	1
86	121	1
124	125	1
44	77	1
50	111	1
1	1	3
132	133	1
126	130	1
90	90	1
72	72	1
77	126	1
22	22	1
43	71	1
20	21	1
131	133	1
37	37	1
36	37	1
93	93	3
13	15	1
24	92	2
58	59	1
99	104	1
69	124	1
6	17	1
83	83	1
59	62	1
77	78	1
81	131	1
9	11	1
49	49	2
46	47	1
83	84	1
62	65	1
3	10	1
98	100	1
81	122	1
134	134	1
107	123	1
