60	61	1
23	23	1
117	117	3
115	115	1
6	6	3
10	40	1
67	68	1
83	89	2
116	116	4
136	136	1
23	24	1
61	62	2
104	104	1
75	81	1
67	82	1
32	39	1
17	20	1
102	137	1
105	105	1
108	108	2
56	56	2
113	115	1
40	40	1
41	131	1
50	51	1
16	17	2
90	140	1
50	52	2
133	135	1
22	22	5
53	54	2
126	126	2
69	69	1
105	108	1
5	32	1
18	18	3
112	112	2
46	86	1
33	35	1
9	9	1
132	132	3
14	30	1
58	64	2
4	5	3
72	73	1
106	106	1
27	28	2
135	136	1
30	30	4
72	105	1
58	59	2
131	131	3
101	134	1
105	106	2
22	23	1
99	100	2
82	98	1
50	88	1
25	25	2
11	11	1
13	87	1
145	145	2
128	130	2
124	124	2
99	99	2
61	61	3
50	50	2
61	130	2
27	61	1
85	85	2
97	97	2
101	101	2
63	97	1
31	31	3
90	109	1
101	102	2
14	14	2
32	32	3
58	81	2
48	123	1
0	0	3
119	134	1
136	139	1
19	29	1
107	108	1
123	124	4
141	141	3
107	107	1
130	130	1
6	37	1
48	48	2
103	103	3
102	102	2
62	62	5
4	4	3
3	33	1
39	40	1
41	41	2
68	68	2
77	95	1
95	96	1
106	107	1
24	39	1
91	91	3
67	67	1
137	138	1
28	28	5
79	79	1
21	21	2
20	20	1
129	130	1
88	88	1
112	117	1
140	140	1
84	87	1
25	26	1
88	89	1
65	78	1
35	35	1
140	143	1
57	58	1
89	89	1
10	26	1
3	13	1
60	60	1
16	69	1
120	120	1
62	82	1
4	16	1
116	122	1
123	145	1
94	97	1
16	16	2
53	53	1
144	145	1
127	127	1
42	67	1
92	92	1
72	72	1
114	118	1
2	2	1
142	142	1
122	123	1
138	143	1
96	105	1
15	16	1
77	77	1
3	25	1
111	114	1
92	133	1
65	69	1
103	137	1
94	94	1
111	112	1
105	115	1
134	142	1
123	123	1
119	119	1
49	84	1
121	139	1
75	82	1
88	98	1
79	80	1
140	141	1
122	122	1
51	51	1
41	42	1
19	19	2
87	94	1
58	58	1
114	114	1
111	111	1
133	145	1
32	58	1
133	137	1
73	105	1
52	52	1
19	21	1
38	39	1
73	73	1
67	108	1
19	27	1
125	125	2
52	71	1
51	53	1
4	37	1
65	65	1
16	33	1
115	122	1
133	133	1
127	138	1
86	88	1
68	81	1
