69	69	1
61	79	1
54	55	2
41	43	2
19	33	1
107	110	1
2	3	1
61	61	6
127	130	1
97	99	1
22	22	4
18	18	5
12	13	3
32	32	5
73	73	5
12	12	4
116	116	5
41	69	1
58	58	2
51	51	4
82	90	1
53	54	1
32	59	1
61	62	1
70	70	6
117	117	7
117	118	1
45	45	4
23	23	4
122	122	2
21	22	1
82	83	2
46	51	2
69	70	1
53	53	8
95	96	2
125	125	1
4	4	2
28	28	2
48	59	1
38	38	5
114	114	2
104	104	5
48	98	1
3	3	3
46	47	2
42	42	3
122	123	3
25	25	2
70	72	1
121	121	6
47	47	1
7	8	2
13	28	1
77	77	2
5	22	3
80	81	4
68	68	1
33	33	1
123	123	2
101	101	2
103	103	6
106	106	4
49	133	1
118	119	3
4	6	1
18	19	2
29	30	1
26	26	3
64	64	2
43	43	7
59	59	2
62	62	2
46	60	2
107	107	6
53	122	1
67	67	1
85	86	1
115	119	1
55	55	1
1	12	1
50	77	1
50	88	1
90	108	1
115	115	3
96	97	2
39	43	1
46	46	5
3	113	1
100	100	1
59	60	1
44	45	5
54	54	2
5	105	1
13	89	2
128	131	1
85	85	2
113	113	3
30	30	3
111	111	7
83	101	1
42	44	1
85	90	2
19	19	2
50	50	1
95	103	1
66	66	3
23	24	1
130	130	4
108	128	1
91	91	4
107	112	1
4	103	1
87	88	3
65	66	2
90	100	1
108	109	3
74	75	1
26	27	2
49	68	1
81	117	1
18	20	2
41	41	2
6	53	2
80	100	1
13	73	1
70	71	1
120	123	1
87	87	2
46	67	2
65	65	3
43	85	1
56	57	3
88	88	2
68	69	1
25	33	1
37	42	1
128	128	4
60	60	2
75	76	1
41	95	1
99	100	1
79	80	1
124	125	1
80	80	4
84	84	3
14	15	1
9	110	1
54	66	1
123	124	3
15	15	3
39	39	2
102	103	2
4	52	4
52	52	3
17	17	2
31	31	1
10	10	1
21	21	1
129	129	1
76	76	4
28	29	2
53	58	1
34	43	3
19	34	1
126	126	1
62	63	1
117	119	1
29	29	3
119	119	2
55	57	1
127	127	1
1	1	3
32	40	1
105	129	1
133	133	2
27	46	1
13	14	1
37	43	1
48	58	1
12	131	1
92	92	5
76	92	1
80	95	1
25	26	3
75	75	2
64	121	2
125	131	1
112	112	4
126	127	2
0	28	1
109	109	2
120	126	1
78	79	1
124	124	2
71	71	2
2	20	1
44	44	4
44	52	1
59	116	1
13	13	3
119	120	1
102	104	1
93	96	1
82	91	1
81	101	1
46	112	1
42	43	1
24	24	1
93	93	2
56	56	1
38	62	1
14	16	1
97	97	1
98	98	2
131	131	1
19	23	1
66	87	1
68	70	1
0	0	1
19	73	1
18	42	1
9	19	1
105	105	4
46	62	1
94	94	1
76	83	2
12	70	1
29	33	1
72	78	1
38	106	1
63	63	2
90	90	2
32	107	1
9	9	4
60	64	1
5	17	1
91	92	1
13	19	1
106	115	1
5	5	6
27	27	1
94	97	1
22	40	2
71	76	1
46	65	1
78	78	1
98	106	1
56	88	1
118	118	1
63	121	1
110	110	2
92	93	1
1	3	1
20	46	1
74	74	1
77	105	1
72	94	1
68	94	1
132	132	2
8	10	1
33	61	1
5	8	1
25	90	1
130	131	1
82	82	1
6	10	2
11	11	2
50	51	2
40	47	1
108	108	2
97	98	2
95	95	2
18	70	1
85	88	2
59	98	1
53	56	1
107	122	1
126	128	1
89	104	1
80	83	1
20	20	1
6	6	2
108	119	1
111	123	1
39	54	1
67	133	1
29	48	2
58	113	1
43	52	1
96	96	1
86	86	1
79	84	1
93	95	1
110	111	1
72	72	1
120	121	2
56	60	1
64	65	2
6	7	1
81	103	2
39	40	1
74	76	1
92	123	1
102	125	2
48	49	2
62	76	1
48	104	1
84	98	1
114	117	1
8	9	1
94	95	1
79	81	1
3	47	1
97	123	1
109	113	1
113	121	1
14	25	1
30	53	1
26	29	1
90	91	1
60	97	1
59	61	1
70	76	1
47	48	1
81	97	1
105	115	1
93	99	2
15	22	1
112	113	2
0	49	1
43	45	1
73	75	1
83	83	1
99	99	1
89	92	1
78	81	1
15	38	1
104	107	1
65	124	1
13	22	1
48	48	1
116	118	1
2	2	1
9	14	1
14	14	1
113	114	1
58	59	1
63	89	1
114	118	1
