82	85	1
126	126	4
134	134	1
82	82	2
49	49	2
114	114	4
20	20	2
44	44	1
68	119	1
108	108	3
56	58	2
111	111	1
21	29	2
8	10	2
13	33	2
33	34	1
87	110	1
29	45	1
124	124	2
81	81	3
60	60	4
79	79	2
96	96	4
118	118	3
71	72	1
112	112	4
92	92	2
24	29	1
91	92	1
119	119	1
77	80	1
75	75	2
6	7	1
100	100	2
109	112	2
11	11	4
64	64	3
67	67	3
23	23	1
108	120	1
122	123	2
32	32	2
117	121	2
90	90	3
98	98	2
74	74	2
115	115	2
98	99	1
25	25	2
108	109	3
86	133	1
64	65	1
67	122	1
7	71	1
133	135	1
28	30	1
89	89	2
15	15	3
104	105	1
59	60	1
1	3	1
80	80	2
74	95	2
6	130	2
68	68	3
112	117	1
88	122	2
54	54	4
130	130	2
24	24	1
59	108	1
120	135	1
16	17	2
1	2	1
83	84	2
76	76	4
69	90	2
53	53	1
121	121	1
132	133	2
14	14	3
73	120	1
30	35	2
73	74	1
18	22	1
125	125	4
5	74	1
71	71	1
61	78	1
26	26	2
35	35	3
31	33	1
8	15	1
91	91	2
43	43	1
97	134	1
7	7	5
120	120	1
45	45	2
38	43	1
69	69	1
3	5	1
103	104	1
0	0	1
100	101	1
116	116	2
132	132	1
123	123	1
105	120	1
123	130	1
27	27	1
55	55	1
45	131	1
63	65	1
91	117	1
47	47	1
21	21	1
24	25	1
54	58	1
70	71	2
99	99	1
110	110	1
70	70	2
9	10	1
50	50	1
54	55	2
79	123	1
10	10	1
10	131	1
3	133	1
31	31	2
107	107	3
94	97	1
56	85	1
79	80	2
32	57	1
97	97	1
113	118	1
13	13	2
31	45	1
94	103	1
38	39	1
93	93	1
59	62	1
101	101	1
66	66	1
53	84	1
113	126	1
77	78	1
31	32	2
8	8	1
87	109	1
32	33	1
62	62	1
60	61	1
127	129	1
94	94	1
45	46	1
70	73	1
16	113	1
80	106	1
85	85	2
95	95	1
73	73	1
84	84	1
28	28	1
12	33	1
49	87	1
68	69	1
66	108	1
16	16	1
13	18	1
21	24	1
22	22	1
105	106	1
115	118	1
12	12	1
1	14	1
5	5	1
