31	32	3
99	112	1
145	145	1
135	153	2
23	28	2
3	178	1
8	20	1
60	60	3
165	165	3
160	161	1
148	148	3
78	78	1
55	56	1
3	19	1
159	159	2
90	97	1
173	173	3
3	17	1
159	160	1
77	95	2
171	171	1
153	174	1
96	96	4
91	91	1
152	153	2
10	10	5
12	12	1
43	43	4
8	51	1
174	174	1
168	168	1
166	173	2
42	53	2
121	128	2
94	94	3
119	120	1
28	33	1
116	117	4
149	150	1
67	67	2
136	172	2
136	157	2
155	155	1
130	130	3
80	91	1
65	65	5
165	169	1
162	162	1
99	99	2
140	146	1
84	84	1
131	131	1
73	73	2
11	11	2
39	41	1
103	104	1
120	131	1
5	5	1
141	145	2
113	113	2
143	143	3
90	92	2
140	140	1
33	42	2
101	102	1
89	97	1
50	50	2
105	107	1
77	79	1
87	87	1
116	116	2
170	174	1
150	150	2
71	86	1
142	142	2
109	109	1
170	175	1
86	109	1
92	97	2
118	118	4
9	9	1
8	12	1
121	122	1
58	59	1
21	21	1
79	79	1
163	164	1
98	100	1
49	50	2
108	110	1
85	100	1
1	1	2
5	13	2
163	170	1
136	151	1
115	115	2
3	152	1
160	160	1
6	14	1
141	142	1
134	140	2
24	39	1
112	113	1
0	5	1
147	153	3
177	179	1
136	156	2
23	41	1
178	178	2
13	16	1
173	178	1
15	39	2
111	111	3
146	146	1
133	133	1
142	143	1
43	54	1
166	168	1
8	27	1
137	146	1
62	87	3
70	71	1
137	137	2
170	171	2
81	81	1
52	52	1
41	68	1
1	5	1
42	42	1
172	173	1
157	157	1
151	177	1
32	33	1
39	39	1
150	171	1
114	130	1
132	145	1
9	173	1
144	144	4
76	76	1
169	169	3
155	159	1
104	116	1
140	179	1
71	89	1
179	179	3
40	50	2
126	146	1
3	4	2
176	176	1
103	103	1
57	57	2
53	54	1
121	121	2
31	31	3
172	172	1
158	158	1
164	166	3
75	75	2
18	18	2
117	119	1
56	61	1
153	153	2
180	180	2
50	57	1
134	144	1
106	106	1
107	107	1
3	151	2
82	82	1
12	13	1
175	176	1
131	152	1
34	35	1
114	123	1
129	129	1
51	51	1
16	16	1
64	65	1
140	178	2
136	177	1
64	64	1
28	32	1
32	34	1
139	139	1
63	63	1
1	27	1
19	29	1
124	133	1
59	59	1
117	148	1
22	22	1
40	40	1
44	54	1
141	141	1
164	172	1
119	135	1
98	103	1
92	94	1
91	117	2
6	8	1
3	3	1
25	26	1
50	51	1
17	17	1
140	180	1
30	30	1
6	6	1
15	71	1
93	93	1
64	80	1
138	146	1
65	66	1
152	174	1
123	126	1
176	177	1
123	129	1
123	124	1
118	137	1
138	138	1
54	55	1
163	166	1
31	39	1
64	66	1
65	71	1
156	157	1
89	100	1
37	50	1
90	93	1
71	71	1
0	14	1
86	88	1
148	152	1
