145	145	4
102	102	4
134	134	6
70	70	7
24	36	1
40	69	1
81	81	6
42	42	2
66	66	3
68	68	6
40	40	4
51	51	1
10	17	2
96	97	6
29	29	3
144	144	4
136	137	1
51	52	1
121	121	7
87	110	1
9	9	4
61	61	5
90	90	2
32	33	2
2	3	1
8	8	3
21	21	6
71	72	2
38	38	6
13	14	1
53	53	2
64	64	5
91	123	1
43	43	1
2	41	2
103	104	2
87	87	2
138	139	1
49	50	1
103	103	2
105	105	3
18	18	7
33	33	5
6	6	11
55	56	3
123	127	1
92	92	3
83	83	2
41	42	1
96	98	1
39	69	2
63	63	4
28	28	7
25	37	1
89	89	4
75	77	2
95	95	6
58	58	3
122	122	2
24	24	8
47	70	2
90	124	1
37	37	5
27	27	4
74	74	3
41	41	9
91	91	8
106	119	2
127	127	5
100	100	1
128	128	3
62	62	1
98	98	4
32	32	6
40	68	1
120	121	1
125	125	10
121	130	2
48	48	3
72	73	3
53	73	1
77	77	3
101	103	1
20	32	1
26	27	1
39	39	4
49	55	1
125	126	1
13	13	5
141	141	3
79	79	6
57	139	1
140	140	4
57	57	3
30	30	4
86	86	2
103	131	2
138	138	3
60	62	1
46	139	1
128	129	2
76	104	2
101	102	1
10	10	9
117	117	3
104	135	1
31	31	2
69	69	2
105	106	2
104	104	8
40	66	1
26	26	3
121	132	2
132	132	3
1	30	1
24	32	1
132	133	3
3	3	2
59	59	3
107	108	1
97	97	1
15	21	1
100	136	1
139	139	5
99	100	1
66	135	1
136	136	1
52	52	5
50	50	5
1	26	1
49	49	1
82	82	2
133	133	9
12	13	2
80	81	3
88	89	1
11	11	4
126	126	4
124	125	3
60	61	1
110	110	3
109	112	1
36	36	1
139	140	1
60	60	6
129	129	5
80	80	3
101	101	4
99	99	7
68	103	1
111	111	2
2	2	6
54	54	4
9	12	1
112	113	1
61	135	1
36	140	1
25	25	3
143	143	3
87	89	1
56	83	1
64	85	1
116	116	4
85	85	3
19	40	1
84	84	2
5	14	1
34	34	3
56	56	2
124	124	5
6	59	1
60	96	1
119	119	5
28	29	1
41	68	1
53	54	1
109	109	4
106	106	1
70	104	1
78	78	3
71	71	1
88	88	2
39	137	1
54	71	1
115	115	2
25	142	1
65	103	1
27	28	1
79	119	1
78	126	1
70	137	1
112	112	2
90	91	1
70	71	2
65	65	4
66	134	2
130	130	4
4	18	1
42	43	1
95	99	2
114	115	2
53	56	1
8	11	1
47	47	3
106	109	1
51	78	1
81	123	1
131	131	6
137	137	1
56	72	1
62	64	1
33	38	1
65	133	1
20	21	2
96	131	1
94	96	2
108	108	2
55	79	1
20	20	1
90	113	1
14	16	1
11	95	1
36	37	1
22	23	2
0	0	2
35	95	1
9	20	1
96	134	2
135	135	1
101	105	1
127	128	1
66	107	1
73	73	1
14	14	2
19	19	2
121	131	1
134	135	1
105	114	1
115	116	1
74	105	1
113	113	2
9	22	1
68	87	1
4	43	1
30	33	1
69	114	1
33	36	2
95	96	1
5	5	1
22	22	3
19	39	1
76	77	2
97	99	2
37	140	1
76	76	2
19	41	2
123	124	1
49	52	1
74	117	1
105	113	1
94	100	1
68	69	1
141	142	1
75	116	1
79	81	1
118	119	1
69	136	1
58	59	1
1	1	1
35	35	2
21	22	1
94	94	1
96	96	1
53	58	1
55	55	2
119	120	1
131	132	2
76	105	1
93	97	2
17	42	1
76	115	1
56	57	2
49	51	1
86	87	1
42	94	1
85	112	2
137	139	1
21	40	1
50	51	1
129	130	1
13	16	2
94	107	1
0	103	1
56	58	1
38	71	1
123	123	1
29	30	1
118	118	1
52	58	1
107	119	1
12	12	1
66	141	1
19	20	1
99	134	1
64	65	1
94	95	1
122	127	1
