25	108	1
87	164	1
100	100	3
145	145	2
138	145	1
136	136	1
13	44	1
22	22	4
108	108	4
81	96	1
131	131	3
101	103	1
82	98	2
77	165	1
25	25	2
65	65	4
54	56	1
18	144	1
44	45	1
28	48	1
163	163	2
143	143	1
66	66	1
113	130	1
109	109	3
84	86	2
81	85	2
20	38	1
158	164	1
39	40	1
42	42	2
155	155	2
149	151	1
33	34	1
96	96	4
27	27	4
110	157	1
169	169	1
50	50	2
108	109	1
6	6	3
160	170	2
87	87	2
123	124	1
74	74	3
114	114	2
69	70	1
23	23	2
13	13	4
68	68	1
51	51	2
140	140	1
122	122	3
128	165	1
62	93	1
79	79	1
93	165	2
156	156	1
147	153	1
165	165	2
63	63	1
16	156	1
152	155	2
138	138	2
70	70	2
16	16	3
14	14	2
161	161	1
162	163	1
80	165	1
129	129	1
7	7	1
5	150	1
157	158	1
119	120	2
82	144	1
4	4	3
50	51	2
58	64	1
63	67	1
18	105	1
53	53	3
27	28	1
163	166	1
118	118	1
107	107	1
116	116	1
53	69	1
9	9	1
67	133	1
153	153	1
69	69	1
127	127	2
81	81	4
6	149	1
162	166	1
67	67	1
11	145	1
75	75	2
106	108	1
141	142	3
20	24	1
25	43	1
82	83	3
97	97	1
146	146	1
15	16	1
12	24	1
135	135	2
115	115	1
64	114	1
111	111	1
101	120	1
71	73	1
45	45	3
143	159	1
94	94	1
26	26	1
18	118	1
114	125	1
7	49	1
77	77	2
39	39	2
1	53	1
62	62	2
41	45	1
125	164	1
87	89	1
112	119	2
80	80	1
69	147	1
91	93	1
46	50	1
62	124	1
20	21	1
28	28	2
104	104	2
34	34	1
62	66	1
103	103	1
170	170	1
124	124	2
20	20	1
137	137	1
38	38	2
133	134	1
140	141	1
126	127	1
2	4	1
3	33	1
154	155	1
112	114	1
18	18	1
144	144	1
117	118	2
5	5	2
4	125	1
78	103	1
140	154	1
41	41	1
24	24	2
100	128	1
105	106	1
89	90	1
86	90	1
163	165	1
137	138	1
117	127	1
67	164	1
84	150	1
76	76	1
147	163	1
125	127	1
52	52	1
15	15	1
120	120	1
38	40	1
136	137	1
71	164	1
155	156	1
85	85	1
64	122	1
25	113	1
83	105	1
134	134	2
117	117	1
104	120	1
88	89	2
78	127	1
123	123	1
107	155	1
72	99	1
141	141	1
106	106	1
40	40	1
46	47	1
90	96	1
92	92	1
108	110	1
80	98	1
125	126	1
13	14	1
90	90	1
125	125	1
19	103	1
1	1	1
63	65	1
84	119	1
21	73	1
149	149	1
