19	21	1
101	101	2
73	73	1
138	138	4
2	2	3
19	19	3
50	56	1
79	83	1
77	77	1
6	19	1
0	14	1
111	111	2
50	53	2
63	63	1
93	96	1
58	116	3
41	42	1
79	85	2
16	35	1
78	85	2
40	40	1
109	109	1
95	143	1
2	14	1
80	81	2
92	93	1
8	30	1
109	111	1
107	116	1
63	135	1
126	130	6
71	72	3
47	63	2
22	22	1
133	134	1
144	144	1
129	129	2
49	49	4
76	77	1
98	103	1
10	10	2
58	58	5
2	30	1
34	34	1
62	75	1
27	27	2
0	3	2
129	130	1
24	24	1
3	3	1
56	59	1
122	133	1
136	136	1
59	76	1
114	134	1
6	21	2
93	93	1
66	66	2
8	9	1
50	55	1
107	126	1
75	120	1
135	135	3
36	37	3
13	20	1
116	133	1
61	85	2
19	31	2
122	122	2
6	30	1
17	19	1
120	136	2
39	42	1
61	61	2
21	37	1
110	111	1
117	121	4
131	131	1
87	122	1
58	59	1
119	119	1
59	59	1
79	107	2
42	42	2
70	70	3
96	103	1
106	106	2
52	66	2
6	10	1
87	136	2
124	135	1
59	111	1
92	122	1
106	139	2
33	33	1
98	107	1
3	4	2
132	138	2
124	124	2
100	100	1
63	69	1
81	81	2
118	118	2
104	145	1
14	14	1
75	75	2
22	28	1
10	19	1
140	140	1
115	115	2
93	98	1
83	83	2
105	105	1
32	34	1
91	117	1
86	86	1
81	82	2
122	123	1
0	19	1
18	21	1
4	13	1
98	99	1
80	80	1
116	116	2
120	120	2
128	128	2
120	121	1
75	84	1
15	24	1
26	79	1
104	111	1
133	133	1
16	24	1
20	36	1
117	118	1
85	107	1
76	139	1
5	6	1
21	34	1
127	127	1
36	43	1
12	13	1
53	53	3
107	107	1
35	65	1
116	117	2
63	64	1
51	56	1
72	72	1
13	13	1
9	9	1
57	57	1
74	77	1
134	134	2
99	101	1
40	43	1
52	52	2
33	34	2
18	25	1
63	70	1
143	143	1
88	136	1
68	69	2
24	25	1
91	127	1
63	73	1
70	74	2
9	50	1
74	74	1
58	60	2
80	107	1
31	31	1
11	11	1
85	131	1
55	56	1
143	144	1
84	85	1
102	103	1
101	102	1
68	68	1
66	70	1
78	82	1
90	90	2
125	126	1
0	1	1
134	135	1
130	130	1
116	138	1
98	128	1
97	97	1
92	92	1
94	110	1
20	146	1
73	75	1
141	141	2
60	76	1
0	36	1
48	48	1
18	18	1
15	34	1
25	25	1
72	123	1
76	83	1
