158	158	1
67	67	4
126	126	1
117	169	1
9	16	1
100	101	1
132	141	1
170	170	3
36	36	1
196	196	2
145	157	1
98	117	1
83	83	2
19	90	1
137	154	1
37	37	2
137	143	1
59	59	2
6	15	2
120	120	2
96	98	1
152	152	1
127	127	1
22	28	1
185	186	1
109	109	1
176	180	4
13	13	3
154	154	1
131	131	3
123	123	1
112	116	1
190	190	2
112	112	6
67	69	1
25	68	1
139	139	1
34	35	2
3	5	1
65	65	1
127	129	1
63	63	2
6	6	3
107	137	2
86	86	1
41	42	1
104	106	1
49	49	1
119	119	1
174	174	2
149	150	1
101	102	1
141	141	3
66	66	2
71	71	2
78	78	1
43	45	1
33	115	2
23	23	1
13	14	2
58	58	2
1	86	1
6	55	1
148	148	2
115	131	1
95	96	1
20	22	1
167	167	1
188	188	2
112	113	1
51	51	1
178	178	1
10	10	3
46	46	2
186	186	2
64	64	1
115	115	1
0	4	2
83	85	1
163	164	1
30	30	1
39	137	1
26	26	1
4	23	1
146	146	2
144	162	1
191	191	1
166	194	1
64	141	1
53	124	1
97	97	1
134	163	1
7	34	1
24	85	1
142	142	1
124	124	1
69	70	1
122	130	1
8	8	2
34	34	2
44	44	1
95	97	1
88	187	1
9	42	1
126	127	1
69	81	1
8	157	1
11	67	1
49	50	1
144	153	1
102	103	1
148	182	2
183	184	1
111	128	3
163	163	2
96	96	2
171	171	4
184	184	1
80	82	1
26	35	1
62	89	1
89	89	1
17	30	1
104	147	1
120	183	1
43	43	1
181	182	1
45	45	1
149	195	1
74	74	2
29	29	2
144	164	1
57	57	1
16	16	1
195	197	1
126	135	1
80	80	2
145	145	2
54	130	1
21	21	1
40	41	1
70	70	2
42	42	3
191	192	1
46	47	1
86	166	2
169	169	1
125	194	1
99	148	1
179	179	3
143	143	1
189	189	2
144	144	1
99	132	1
103	103	1
111	111	1
189	190	1
13	43	1
48	48	1
47	47	4
58	59	1
156	156	1
17	73	1
68	68	2
45	50	1
10	13	2
51	52	1
153	153	1
98	98	1
13	21	1
106	106	1
187	187	3
27	27	1
152	153	1
127	138	1
35	35	2
94	109	1
24	24	1
142	149	1
168	168	2
34	90	1
90	90	1
76	115	1
113	113	1
12	12	1
7	7	1
140	144	1
108	118	1
65	106	1
25	66	1
158	163	1
142	190	1
51	56	1
148	158	1
22	85	1
61	70	1
88	88	1
26	63	1
109	114	1
180	184	1
65	104	1
63	108	1
66	68	1
114	114	1
109	120	1
145	146	1
18	18	1
161	188	1
104	104	1
94	95	1
63	65	2
192	193	1
24	37	1
144	181	1
17	17	1
157	157	1
48	49	1
40	40	2
69	69	1
4	4	1
151	168	1
183	183	1
61	61	1
138	180	1
1	43	1
15	15	2
87	87	1
122	122	1
147	147	1
156	182	1
105	128	1
159	159	1
102	146	1
152	163	1
34	88	1
72	72	1
