86	86	4
101	101	6
73	73	4
114	114	9
122	123	1
98	98	4
74	74	2
11	11	5
38	38	5
77	77	1
120	121	1
30	75	1
131	131	3
19	25	2
3	3	5
88	88	1
34	34	4
105	105	10
27	27	2
123	123	4
112	112	6
92	93	1
3	12	1
23	92	2
78	78	5
30	31	2
117	117	9
13	13	3
108	108	3
31	33	1
10	11	3
31	31	7
16	17	1
5	9	1
91	91	3
17	18	1
132	132	4
19	19	5
114	115	2
119	119	1
134	134	3
93	101	1
96	98	1
4	105	1
20	20	8
26	26	4
107	107	3
4	4	7
3	85	1
38	104	1
130	130	1
4	116	1
10	18	1
20	21	2
85	85	5
23	23	2
135	139	2
9	30	1
36	36	6
89	89	2
140	140	1
7	7	3
110	110	2
99	100	3
138	138	2
6	6	7
94	134	1
2	8	1
126	126	3
36	72	1
102	102	4
111	111	1
32	32	3
6	75	1
35	35	2
35	37	1
125	125	2
79	79	5
20	27	2
78	84	2
29	31	1
135	135	3
1	1	5
14	88	1
25	26	1
82	117	1
100	100	5
79	85	1
128	128	2
21	22	2
94	94	5
34	35	1
108	109	1
29	29	3
96	117	1
2	4	1
137	138	1
33	34	1
2	16	2
17	20	1
72	72	1
13	76	2
85	88	1
33	33	2
94	102	2
0	0	3
87	87	2
10	25	1
18	140	1
76	76	5
22	22	2
7	26	1
34	36	1
136	136	3
127	129	1
124	124	3
3	7	1
14	14	2
7	18	1
114	140	1
23	24	2
21	21	1
127	127	3
13	14	1
12	12	2
10	10	3
25	25	3
122	122	3
92	92	1
139	139	2
97	97	4
109	109	4
110	114	2
5	5	4
80	80	5
4	6	1
107	108	1
90	98	1
133	133	3
118	118	2
116	116	5
116	119	1
96	96	2
76	78	1
90	90	2
137	137	1
77	82	1
36	90	1
16	16	4
88	109	1
75	75	2
99	99	4
7	10	1
26	37	2
15	15	1
84	102	1
89	114	2
95	95	2
3	6	2
8	8	1
35	36	3
33	35	1
83	85	2
91	92	1
24	24	1
129	133	1
124	137	1
113	113	2
130	133	1
115	115	1
5	6	1
19	26	1
13	15	1
9	19	1
17	17	1
10	86	1
120	120	1
14	103	1
13	37	1
74	75	2
75	98	1
106	106	2
37	38	1
104	104	1
7	28	1
81	81	2
2	2	4
124	125	1
71	72	1
81	83	1
93	93	2
11	17	1
16	81	1
76	89	1
84	85	1
82	83	2
19	23	1
102	124	1
15	18	1
1	90	2
3	4	1
133	134	2
28	29	2
78	104	1
90	91	2
91	136	1
37	37	1
89	99	1
16	84	1
30	30	2
123	124	1
22	25	2
101	102	1
83	83	1
3	36	1
18	18	2
37	114	1
17	29	1
13	29	1
1	2	1
9	9	2
77	79	1
2	30	1
102	103	1
131	132	1
19	73	1
4	5	1
6	9	1
105	106	1
80	85	1
7	109	1
21	27	1
36	37	1
92	95	1
103	103	1
75	76	1
114	128	1
80	90	1
24	25	1
121	121	1
71	123	1
129	129	1
