15	35	2
22	24	1
177	177	1
77	77	3
9	9	2
171	171	1
139	139	1
156	156	5
62	66	1
126	136	1
122	122	4
77	78	1
83	84	1
76	76	7
95	95	5
92	93	1
110	111	2
112	114	2
91	91	2
0	0	3
176	176	1
7	59	1
27	27	3
45	45	1
1	3	1
38	38	3
121	121	1
61	61	7
134	134	4
2	3	2
117	117	1
106	106	4
178	178	1
84	85	1
106	107	2
60	60	5
116	116	1
26	26	3
46	46	2
120	120	3
146	146	4
139	150	1
23	23	2
164	165	1
107	108	1
75	75	2
111	114	2
142	142	2
135	135	1
55	56	1
65	65	4
4	4	4
133	133	4
93	114	1
98	100	1
33	51	1
90	90	6
81	81	2
140	140	5
20	51	1
44	54	1
125	125	1
90	113	1
6	6	2
10	10	3
74	95	1
106	113	1
66	66	1
12	13	1
129	130	1
114	114	2
3	3	1
71	112	1
133	134	1
93	103	1
153	162	1
99	99	1
24	24	1
55	55	2
168	168	3
148	148	2
111	111	2
40	40	1
150	151	1
88	88	4
19	19	3
130	130	7
135	136	1
73	76	1
92	92	2
129	129	6
59	59	1
0	18	1
95	96	1
71	72	3
24	25	1
161	161	2
173	173	4
118	118	1
145	145	3
37	37	1
54	66	1
13	62	1
49	49	1
16	16	2
14	14	5
75	76	2
143	143	1
108	118	1
122	125	1
32	32	2
140	151	1
115	115	1
136	137	1
159	160	3
53	53	2
44	44	2
71	71	3
151	151	1
85	85	2
157	158	1
99	100	1
123	123	3
54	55	2
172	172	1
126	126	3
117	133	1
118	119	1
146	157	1
158	158	5
68	68	1
160	160	1
28	31	1
76	77	1
155	155	1
54	54	1
32	34	2
72	76	1
63	64	1
3	4	1
113	114	1
180	180	3
74	75	1
79	79	1
105	105	1
10	16	1
66	80	1
21	21	3
118	121	1
40	43	1
149	149	1
119	120	1
10	60	1
147	147	1
104	124	1
13	63	1
30	53	1
34	34	1
168	169	1
74	78	1
153	176	1
101	101	2
5	5	5
41	41	1
31	31	4
7	21	1
93	94	1
149	150	1
22	23	1
102	111	1
140	161	2
39	39	1
82	86	1
116	120	1
96	96	3
147	171	1
89	89	1
65	66	1
78	78	3
110	115	1
51	52	2
105	106	1
169	169	1
18	19	1
64	64	2
8	8	1
159	159	2
50	50	2
88	89	1
43	74	1
72	72	3
83	103	1
13	14	1
86	87	3
39	41	1
148	149	1
62	63	1
11	13	1
20	20	1
137	137	2
7	7	1
153	153	2
167	167	3
80	102	1
20	36	1
150	167	1
52	52	1
14	65	1
2	2	2
67	102	1
74	74	1
111	112	1
56	56	1
36	36	2
121	122	1
16	18	1
131	157	2
108	108	1
98	98	2
105	162	1
116	117	1
19	22	1
136	136	1
51	51	1
138	138	1
1	55	1
79	123	1
63	63	2
154	154	1
82	85	1
7	38	1
169	170	1
50	51	1
100	100	1
150	150	1
171	172	1
80	168	1
123	125	1
119	119	1
91	114	1
94	114	1
109	109	1
25	30	1
8	9	1
127	128	1
19	32	1
174	174	1
145	146	1
139	140	1
106	126	1
107	107	1
127	159	1
7	8	1
12	15	1
172	173	1
147	148	1
42	42	1
17	59	1
94	94	1
141	172	1
103	104	1
11	11	1
93	93	1
80	81	1
50	53	1
16	63	1
41	43	1
9	115	1
149	167	1
128	129	1
37	42	1
59	60	1
109	115	1
127	130	1
162	162	1
175	175	1
