39	39	4
114	114	8
55	55	6
138	162	1
27	40	1
130	131	3
57	58	1
112	113	3
69	73	1
12	13	2
8	8	2
125	125	6
52	53	1
4	5	1
163	164	3
79	166	1
132	133	4
142	143	2
52	52	6
96	102	1
140	141	3
117	125	1
10	10	5
151	151	7
112	112	2
49	51	2
117	117	6
91	91	5
40	40	5
82	82	5
19	20	1
18	116	1
100	105	1
154	155	1
160	160	8
146	146	4
143	166	1
126	126	5
71	71	7
141	141	4
15	15	8
93	94	2
166	166	8
123	124	2
24	24	5
38	38	3
106	106	6
12	41	1
7	12	1
135	135	8
82	95	1
22	116	2
145	146	2
101	104	1
97	97	4
88	88	4
140	140	5
63	63	2
148	166	1
139	146	1
114	115	1
48	48	1
15	16	4
87	87	2
38	108	1
57	57	1
62	62	5
33	34	1
46	46	9
64	170	1
121	122	2
161	162	1
1	70	1
110	110	5
50	50	9
25	25	17
89	89	7
3	3	3
56	68	1
168	168	5
42	43	4
155	156	1
99	100	1
118	119	3
10	18	2
160	161	5
129	129	5
56	57	1
71	74	2
26	26	6
80	80	2
42	70	1
115	116	1
43	43	6
84	85	1
93	93	5
142	142	1
36	36	4
155	155	3
147	147	3
48	103	3
1	3	1
23	23	6
98	98	8
170	170	2
27	39	2
103	103	5
41	56	1
73	73	9
139	143	1
108	108	6
37	38	1
166	167	1
130	130	5
20	20	7
159	160	1
157	157	5
18	18	4
137	137	3
136	136	3
42	42	7
100	101	1
5	5	7
2	2	3
96	96	3
7	7	7
149	159	1
132	134	1
7	39	1
92	92	2
141	142	1
101	101	2
79	80	1
106	107	3
63	104	1
119	119	1
16	16	4
159	159	9
15	107	1
3	4	1
14	14	3
156	156	7
35	35	7
51	104	1
66	68	1
131	131	4
50	51	1
111	111	7
111	159	1
18	20	1
48	52	1
158	158	6
61	61	4
6	40	1
145	145	6
46	153	1
102	102	2
154	154	5
71	86	2
151	152	1
50	56	1
49	49	3
159	167	1
148	148	5
45	46	2
74	80	1
66	67	2
44	45	3
130	154	1
87	130	2
113	144	1
89	157	1
67	68	4
34	34	4
47	53	1
7	10	1
40	161	1
105	106	2
133	133	6
75	81	1
167	168	2
121	165	1
33	33	1
11	11	2
152	152	4
2	41	1
94	94	6
56	102	1
63	105	1
91	92	3
72	75	1
39	46	1
43	44	4
86	87	2
9	64	1
1	1	3
127	127	3
70	70	3
64	70	1
0	0	6
12	15	1
53	53	7
104	104	4
146	147	2
169	169	3
98	99	3
71	93	1
89	149	1
156	157	4
26	64	1
3	56	1
87	96	1
116	125	1
123	123	2
148	149	1
142	144	1
133	154	1
95	132	1
112	141	1
149	149	1
90	90	8
65	69	1
131	133	1
20	22	1
1	2	1
138	138	4
38	122	1
86	86	4
121	148	1
64	64	3
149	157	1
162	164	2
81	81	1
111	151	1
13	13	2
55	56	2
132	152	1
43	85	1
96	111	1
74	74	5
86	154	1
45	45	2
95	139	1
144	144	8
0	2	1
72	84	1
153	153	3
136	141	1
158	159	2
43	87	1
2	3	2
132	132	2
74	75	3
78	152	1
58	58	3
124	124	4
76	76	4
118	118	2
150	150	2
91	105	1
20	116	2
11	12	4
69	103	2
112	114	1
83	83	4
97	147	1
21	106	2
0	1	2
79	158	1
107	107	3
27	27	1
163	167	1
1	87	1
0	163	1
73	136	1
65	65	5
21	21	6
8	10	2
6	91	1
74	76	2
161	163	1
143	144	2
167	167	3
103	132	1
21	25	1
152	164	1
23	100	3
14	15	2
169	170	1
69	72	1
4	4	3
73	147	1
20	45	1
97	139	1
116	116	4
46	152	1
49	110	1
41	41	3
123	169	1
39	40	1
122	122	4
101	102	2
67	165	1
72	86	1
143	143	5
134	134	2
100	103	1
64	67	1
118	135	1
165	165	3
135	136	3
24	25	2
97	137	2
121	121	6
153	154	3
68	69	2
118	121	1
87	88	2
67	70	1
72	73	1
120	125	1
19	54	2
142	162	1
17	17	5
79	79	3
68	167	1
6	6	2
48	153	3
139	139	4
56	56	3
47	47	2
16	17	2
81	83	1
37	37	3
19	22	2
105	126	1
27	34	2
70	71	1
114	116	1
83	156	1
75	75	3
123	130	1
153	155	1
9	10	1
96	114	1
66	66	3
52	82	1
63	130	1
24	43	1
121	163	1
42	44	1
67	67	3
47	52	1
72	74	1
142	158	1
84	156	1
9	23	1
73	119	1
9	70	1
2	57	1
35	116	1
62	65	1
44	44	2
24	58	1
69	70	1
139	158	1
74	78	1
128	129	3
77	77	6
150	166	1
114	117	1
12	12	1
19	52	1
90	110	1
117	170	1
41	43	1
28	28	2
38	158	1
120	140	1
41	70	1
50	85	1
20	21	1
127	128	1
83	107	1
100	135	1
113	113	3
99	99	4
164	166	1
138	139	1
51	51	1
7	38	1
119	123	1
164	164	1
111	135	1
128	128	3
2	99	1
35	36	1
75	159	1
86	105	1
0	3	1
19	53	1
22	23	2
13	105	1
115	115	5
108	114	1
96	97	2
161	161	3
132	154	2
67	84	1
73	74	1
76	77	1
124	128	1
47	48	1
9	72	1
130	141	1
37	158	1
64	69	1
95	95	1
19	40	1
49	69	1
9	147	2
89	95	1
47	50	2
19	19	1
78	78	2
55	121	1
19	62	1
72	103	1
52	76	2
48	115	1
62	79	1
168	169	2
23	24	1
25	106	1
118	120	1
17	46	1
53	110	1
126	131	1
62	63	1
22	22	2
100	100	1
131	155	1
0	111	1
49	168	1
2	116	1
79	153	1
12	155	1
21	22	1
144	145	1
25	26	1
80	81	1
100	123	1
17	52	1
7	73	1
87	150	1
4	25	1
38	132	1
44	89	1
93	103	1
71	72	1
103	104	1
20	40	1
11	121	1
116	155	1
114	139	1
102	111	1
43	157	1
102	104	1
103	105	1
164	165	1
66	98	1
38	73	1
101	108	1
53	55	1
5	144	2
6	108	1
162	162	1
85	85	3
105	105	3
120	120	1
72	72	1
16	64	1
7	98	1
94	103	1
65	95	1
87	152	1
9	9	4
100	126	1
49	50	1
107	126	1
62	78	1
134	135	2
109	109	1
111	112	1
139	161	1
125	126	1
17	104	1
64	82	1
102	103	2
41	42	1
81	82	1
1	152	1
4	146	1
139	144	1
135	166	1
49	72	1
5	37	1
50	70	2
72	114	1
83	140	1
57	77	1
64	72	1
7	8	1
150	152	1
130	135	1
119	145	1
49	73	1
123	152	1
101	105	1
162	163	1
38	149	1
0	33	1
86	88	1
105	165	1
147	148	1
101	123	1
128	154	1
68	68	1
4	86	1
120	121	1
44	47	1
41	159	1
39	132	1
163	166	1
87	144	1
14	17	1
109	110	1
78	80	1
116	117	2
133	152	1
160	162	1
138	168	1
82	83	1
84	86	1
163	163	1
116	132	1
3	46	1
64	150	1
133	137	1
135	137	1
138	142	1
57	162	1
79	170	1
110	111	1
