9	68	1
97	97	3
57	57	4
122	126	1
117	117	2
90	90	2
107	107	6
11	45	3
18	18	3
6	6	2
23	23	3
16	16	3
101	102	1
40	40	2
131	131	9
43	43	6
77	77	7
96	96	5
92	92	3
59	119	1
3	4	3
26	132	2
44	77	1
94	94	7
15	15	7
28	28	3
37	43	2
128	128	7
14	14	5
65	65	6
7	133	1
103	103	1
67	81	1
19	133	1
54	56	1
44	44	5
132	132	3
4	61	1
69	69	2
5	5	5
45	45	4
20	20	5
73	73	3
31	32	3
59	59	6
77	78	1
94	95	3
19	34	1
79	79	6
98	98	7
127	127	8
114	114	4
24	24	2
110	110	4
84	129	1
95	96	2
11	12	5
133	133	4
83	84	4
129	129	7
62	62	7
22	24	2
57	64	1
12	12	5
17	17	5
32	33	1
66	66	10
47	47	4
34	35	2
123	123	4
122	122	5
108	108	5
36	36	5
13	15	2
64	64	11
70	117	1
69	70	2
29	29	6
100	100	5
74	76	1
58	58	4
74	74	7
42	42	3
77	111	1
81	128	1
103	110	1
26	127	2
63	110	1
76	78	2
68	68	5
11	124	1
30	30	6
116	116	2
11	56	1
43	50	1
36	37	1
87	88	4
41	56	1
71	71	5
79	91	1
104	104	3
9	10	2
33	47	1
106	106	3
31	31	8
111	111	7
82	82	7
14	41	2
87	87	4
46	69	1
15	29	1
130	131	2
85	86	1
102	102	5
107	120	1
67	67	4
4	125	1
31	50	1
56	56	4
59	75	1
30	31	1
70	70	2
104	128	1
76	77	2
83	87	1
118	118	8
4	4	6
75	75	5
21	24	1
20	115	1
7	34	1
18	71	1
33	34	2
0	0	8
92	133	2
16	25	1
33	33	8
12	13	2
31	47	2
115	115	3
40	45	1
134	134	4
113	113	3
11	11	5
113	119	2
121	121	4
72	72	8
26	30	2
131	132	1
67	73	1
20	24	1
2	2	3
10	36	1
108	112	1
3	10	1
59	60	2
71	72	2
85	85	7
99	111	2
8	96	1
57	83	1
70	71	2
86	86	6
23	27	1
32	32	6
125	125	5
105	105	3
83	83	5
15	39	1
109	110	1
13	13	3
119	119	5
88	88	4
78	78	4
47	56	1
80	80	1
14	16	1
19	19	2
79	81	2
126	128	1
88	98	2
3	5	1
93	93	4
98	104	2
48	48	2
63	63	2
22	22	1
8	8	7
106	109	2
123	126	1
27	27	3
103	104	2
7	82	1
39	39	2
97	99	2
17	46	1
96	97	2
46	46	4
48	49	1
31	34	1
41	43	2
101	101	4
112	112	4
82	86	1
26	26	3
17	18	2
7	7	3
6	23	1
108	122	1
113	129	1
34	69	1
75	81	1
15	20	1
88	89	1
47	74	1
61	61	4
41	48	1
68	111	1
27	41	1
89	89	1
28	30	1
109	109	1
84	111	1
111	112	2
59	99	1
62	76	2
120	120	2
35	35	7
65	66	4
21	21	1
44	45	1
124	124	3
65	76	1
93	94	2
41	41	3
125	126	2
100	101	1
41	42	1
81	90	1
25	25	3
73	85	1
60	60	5
98	100	2
132	133	2
26	113	3
126	126	5
86	103	1
3	71	1
82	87	1
22	83	1
72	128	1
34	34	6
47	115	3
15	25	1
71	126	1
5	16	1
9	9	4
7	20	1
62	63	2
81	82	2
95	95	2
89	91	2
22	30	1
1	1	2
125	132	1
91	91	2
32	73	1
38	38	2
130	130	4
3	3	5
120	121	2
93	101	1
12	21	1
99	99	1
100	110	1
102	130	1
126	127	1
103	129	1
4	5	2
104	105	3
37	37	3
40	56	1
70	130	2
46	71	1
90	91	2
91	92	1
24	39	1
101	114	1
33	36	1
67	68	1
68	69	2
59	93	1
75	117	1
80	84	1
60	94	1
72	117	1
58	115	1
59	106	1
99	100	1
30	41	1
105	106	1
14	72	1
10	85	1
130	134	1
57	58	1
15	31	1
8	9	1
31	33	1
56	114	1
17	126	1
86	87	1
2	94	1
8	80	1
115	119	1
106	108	1
12	22	1
43	125	1
6	8	2
13	83	1
119	120	1
30	32	1
11	63	1
79	80	1
128	129	2
32	125	1
32	35	1
114	121	1
81	88	1
116	117	2
2	14	1
63	64	1
33	35	1
10	56	1
54	54	1
10	10	3
73	74	1
82	83	1
36	38	1
92	93	2
115	116	1
21	92	1
40	41	2
114	115	1
58	59	2
127	128	1
32	34	1
26	27	1
57	99	1
1	85	1
4	31	1
129	130	1
66	86	1
107	110	1
27	35	1
72	134	1
6	91	1
65	116	1
94	104	1
89	100	1
109	113	1
28	34	1
5	30	1
25	26	1
47	48	1
124	125	1
121	122	1
102	107	1
74	120	1
5	6	1
96	98	1
21	22	1
10	13	1
47	128	1
78	129	1
76	76	1
