126	126	3
0	0	3
38	38	2
76	76	4
106	106	3
16	19	2
86	87	1
103	103	7
90	90	3
114	114	3
56	56	3
75	103	1
28	28	6
92	119	1
75	76	2
52	82	1
19	21	1
79	130	1
111	111	2
102	102	3
116	123	1
45	117	1
6	13	1
23	32	1
109	109	4
34	35	1
62	62	8
60	60	6
84	84	5
7	54	1
0	30	1
15	15	3
16	16	1
12	12	1
118	121	1
47	51	1
8	14	1
127	127	4
2	4	2
54	55	1
52	52	2
24	28	1
95	95	3
82	110	1
83	83	6
14	103	1
22	23	1
9	62	1
37	78	1
54	54	2
33	33	4
87	128	1
104	105	1
108	113	1
94	95	3
135	135	1
75	75	2
95	96	3
70	70	3
87	100	1
93	93	2
43	44	3
4	4	4
77	77	2
49	49	1
119	119	3
36	38	1
103	104	1
34	34	2
89	89	1
8	10	2
19	19	2
69	69	1
117	117	1
30	32	1
44	44	5
55	57	1
57	83	1
24	25	1
24	24	2
17	17	2
14	45	1
133	135	1
59	60	1
90	91	1
96	99	1
82	93	1
22	32	1
85	86	1
80	93	2
37	37	1
0	33	1
36	36	1
68	68	5
31	31	4
23	23	4
25	26	1
66	78	1
123	123	3
101	101	3
57	57	4
106	129	1
76	103	1
66	117	1
67	67	1
30	30	1
108	108	3
99	99	1
26	29	2
4	98	1
6	10	2
9	9	1
7	17	1
80	80	2
13	13	3
73	77	2
68	109	2
134	134	2
5	10	1
18	18	3
118	118	1
45	58	1
70	74	2
88	120	1
22	22	1
27	27	2
66	66	3
108	109	2
85	85	2
56	57	2
50	79	1
14	14	2
1	1	3
82	82	1
62	77	1
9	10	1
120	121	2
44	45	1
92	93	1
80	86	1
107	110	1
113	118	1
6	9	1
111	113	1
110	110	1
72	72	1
124	124	1
79	79	2
119	120	1
21	21	1
130	131	1
78	78	3
115	115	1
71	73	1
61	62	2
53	111	1
25	25	1
47	47	1
56	59	1
13	34	1
79	80	1
131	131	2
6	6	2
43	43	1
56	58	1
74	74	3
49	124	1
99	101	1
23	127	1
110	111	1
11	15	1
18	26	1
112	112	1
49	102	1
32	32	2
32	35	1
79	87	2
2	59	1
14	97	1
27	29	1
116	116	2
43	45	1
124	125	2
6	73	2
81	81	1
42	42	1
107	107	1
47	52	1
3	33	1
35	35	2
122	122	2
2	5	2
7	11	1
30	58	1
37	38	1
65	67	1
6	7	1
55	55	1
117	118	1
20	20	2
96	96	3
61	61	1
113	113	2
99	100	1
58	58	1
133	133	1
86	118	1
69	98	1
44	123	1
68	127	2
126	128	1
52	67	1
36	123	1
87	87	1
51	51	1
104	104	2
8	8	1
76	110	1
49	50	1
97	97	1
110	117	1
129	134	1
37	92	2
98	98	1
26	28	1
115	116	1
45	46	1
129	131	1
122	127	1
62	97	1
76	101	1
72	79	1
69	73	1
83	84	1
23	24	1
5	5	1
1	2	1
91	92	1
29	78	1
29	29	1
36	53	1
2	34	1
1	123	1
50	50	1
65	68	1
10	10	1
116	119	1
116	117	1
102	103	1
18	19	1
71	71	1
118	119	1
23	36	1
