112	112	3
146	146	2
56	56	3
137	137	2
75	78	1
182	182	3
120	121	2
111	128	1
100	100	3
67	108	2
18	18	3
95	115	2
7	25	1
88	88	2
38	38	1
55	76	2
25	69	1
162	164	1
151	151	2
147	147	2
178	178	2
68	68	2
174	175	2
38	39	1
26	27	2
177	177	1
33	72	1
159	159	1
91	111	1
123	123	3
138	146	1
112	120	1
113	151	1
174	187	4
164	164	2
155	163	1
118	118	1
155	171	2
150	150	3
17	143	1
141	146	1
76	77	1
6	6	1
172	172	1
85	94	1
20	20	1
34	62	1
97	97	2
22	22	2
144	174	1
127	127	1
138	139	2
128	128	3
93	93	2
107	156	2
92	92	2
100	177	1
64	124	1
58	136	1
103	103	2
96	113	1
56	57	2
124	124	1
150	182	1
159	166	2
106	106	1
70	70	1
112	119	1
59	59	2
106	113	2
77	77	2
55	55	2
87	105	1
87	87	3
0	0	2
8	8	1
168	168	3
45	45	1
22	23	1
66	67	1
96	103	1
175	175	1
21	21	1
73	93	1
111	111	2
184	186	2
127	128	2
42	42	6
21	23	1
46	46	3
99	99	3
33	59	1
74	107	1
23	46	2
23	23	1
33	34	1
25	26	1
112	116	2
184	184	1
115	115	1
15	15	2
189	189	2
159	178	1
24	24	4
23	24	1
54	55	1
125	125	1
188	189	1
31	41	1
44	46	1
162	165	2
80	83	2
81	81	1
160	160	2
17	17	4
98	98	1
7	7	4
45	46	1
67	67	1
30	31	2
105	153	1
75	75	2
4	6	1
113	113	2
40	40	2
84	84	1
5	41	1
154	154	1
152	169	1
100	103	1
54	54	2
43	43	3
9	21	1
132	133	2
12	12	1
10	11	1
53	53	1
149	150	2
169	169	2
129	129	1
114	115	1
152	152	1
7	26	1
68	72	1
110	110	1
78	85	1
152	153	2
42	48	1
7	8	1
153	153	2
174	174	4
165	165	1
75	76	1
80	80	2
54	56	1
32	37	1
61	125	1
159	172	1
93	94	2
139	139	1
102	108	1
133	142	1
145	145	1
82	87	1
0	5	1
73	118	1
144	170	1
163	187	1
85	115	1
62	62	1
90	94	1
36	36	1
185	185	1
177	178	1
102	103	1
60	60	1
48	48	2
183	183	2
14	15	1
0	16	1
48	103	1
57	57	2
104	175	1
163	165	1
104	104	1
68	77	1
141	141	2
119	120	2
143	143	1
156	156	1
184	185	1
90	90	2
48	93	1
38	40	1
37	37	1
157	157	1
39	40	1
135	135	1
72	72	1
58	58	3
95	95	2
95	98	1
179	179	1
161	161	1
10	17	1
37	52	1
127	135	1
121	164	1
146	160	1
175	178	1
44	45	2
26	26	1
29	118	1
75	128	1
108	108	1
1	1	1
103	114	1
98	99	1
1	4	1
23	43	3
100	104	1
161	177	1
156	163	1
142	142	1
102	102	1
70	71	1
176	176	1
71	71	2
181	181	1
82	82	1
25	25	2
32	32	1
13	44	1
139	145	1
20	24	1
187	188	1
154	155	1
2	2	2
132	164	1
170	186	2
101	102	1
3	27	1
12	30	1
159	181	1
47	47	1
110	180	2
43	44	1
67	72	1
167	167	1
105	105	1
56	74	1
85	140	1
65	75	1
183	189	1
145	147	1
29	29	1
135	136	1
121	134	1
2	76	1
130	133	1
84	93	1
93	101	1
16	28	1
27	27	1
169	170	1
32	52	1
158	170	1
73	73	1
65	66	1
