84	94	1
45	57	2
122	128	1
13	15	1
66	66	1
57	58	1
64	65	1
50	50	2
131	131	1
3	3	2
78	78	3
19	19	3
95	152	1
77	77	2
9	100	1
84	84	1
29	30	1
25	25	3
25	35	1
96	154	2
94	94	1
99	99	1
137	137	3
48	69	1
144	149	1
18	26	1
81	84	1
9	17	1
101	137	3
56	119	1
106	114	1
87	151	1
26	30	1
119	119	1
12	13	2
154	154	2
74	90	2
133	133	2
77	115	1
16	51	1
65	109	2
15	15	1
76	117	1
20	20	1
73	102	1
53	106	1
113	127	1
27	36	1
43	43	4
55	55	1
38	41	1
149	149	2
121	121	2
93	124	1
40	54	1
55	56	1
13	28	1
18	18	2
46	150	1
68	119	1
48	48	1
49	94	1
122	122	1
109	111	2
7	90	1
56	107	1
103	105	2
104	106	1
81	82	1
40	41	1
102	103	1
83	96	1
119	120	1
89	89	1
46	46	1
87	87	1
64	64	3
56	56	1
71	71	1
145	145	1
136	141	1
103	109	1
78	119	1
36	36	3
22	34	1
18	35	1
4	144	1
100	134	1
148	148	3
135	136	1
143	143	1
130	132	1
118	118	1
128	128	1
97	97	1
122	123	1
94	97	1
81	81	1
41	41	1
19	125	1
28	32	1
25	26	1
150	150	2
33	34	1
77	104	1
5	5	3
110	111	1
74	128	2
26	26	4
21	25	2
42	117	1
87	135	1
119	121	1
9	25	1
19	54	1
36	139	1
12	25	1
121	145	1
103	103	2
67	67	1
12	12	1
23	23	2
11	39	1
114	114	1
125	125	1
67	134	1
19	22	1
52	52	1
16	74	1
112	117	1
40	40	3
83	112	1
35	141	1
109	135	1
125	129	1
124	150	1
8	20	1
79	79	1
110	110	1
104	133	1
56	98	1
6	14	1
146	146	1
15	24	1
132	148	1
33	33	1
3	4	2
9	57	1
5	8	1
12	39	1
7	7	2
132	133	1
57	57	1
78	99	1
14	14	1
57	77	1
66	67	1
82	82	1
17	17	1
20	21	1
34	38	2
83	83	1
5	7	1
44	103	1
99	104	1
45	45	1
3	33	1
138	138	1
99	122	2
106	106	1
63	65	1
65	72	1
149	150	1
97	99	1
73	73	1
33	81	1
116	117	1
40	43	1
28	33	1
7	27	1
66	102	1
36	44	1
96	96	1
39	40	1
5	13	1
70	100	1
62	62	2
43	93	1
147	147	1
10	10	1
4	4	1
27	29	1
124	139	1
57	62	1
63	126	1
17	81	1
