100	100	2
40	40	1
53	53	2
94	94	1
140	140	1
35	35	4
156	156	3
23	24	1
14	149	2
85	86	1
43	43	5
118	118	2
63	69	1
23	23	1
28	34	1
62	64	1
93	141	1
142	142	2
76	76	1
3	3	1
159	170	2
53	54	1
88	89	2
82	82	4
45	45	1
14	14	3
51	126	2
130	130	2
89	89	4
144	144	4
155	155	1
1	168	1
162	162	2
15	56	1
84	84	2
47	48	1
55	55	3
133	162	2
77	79	1
47	47	4
134	134	4
127	128	2
123	132	1
46	56	1
18	22	1
15	16	1
112	117	1
92	101	1
7	8	3
70	70	5
6	6	4
94	95	1
138	139	1
73	73	3
86	86	3
41	41	1
154	154	2
114	114	3
95	95	2
106	106	1
150	151	2
16	26	2
39	39	5
127	127	3
105	106	1
25	25	4
50	50	4
115	154	1
111	111	5
98	99	1
107	107	2
10	10	4
114	115	1
136	136	3
56	129	1
146	165	1
21	45	1
128	128	5
46	46	3
2	2	5
108	108	4
111	116	1
160	161	2
5	5	1
85	85	1
83	85	1
108	109	1
166	166	3
152	152	3
33	33	3
36	36	4
170	170	3
160	160	3
91	125	1
165	165	2
113	114	1
38	38	1
92	92	2
61	81	1
39	40	2
42	42	4
146	146	3
86	87	1
77	77	5
12	12	2
97	97	2
145	146	2
75	75	5
50	82	1
18	19	1
22	22	1
138	138	4
37	38	2
142	145	1
19	19	1
134	152	1
11	11	3
166	168	1
20	23	1
129	129	1
78	79	2
136	139	2
104	105	1
15	57	1
88	88	2
118	142	1
149	149	2
13	15	1
51	76	3
128	144	1
56	125	1
26	26	3
79	147	1
148	149	1
49	49	2
125	125	2
126	127	1
71	71	1
115	115	1
52	52	2
0	0	3
126	126	4
151	152	1
97	98	2
167	167	2
163	163	3
92	124	1
10	82	2
82	162	1
128	129	1
100	101	1
94	98	1
131	152	2
83	84	2
48	94	1
7	7	2
76	78	1
119	119	2
139	139	2
135	136	1
125	126	1
168	168	1
16	16	2
93	93	2
91	93	2
20	20	2
33	34	2
83	83	1
168	169	1
54	58	1
132	133	1
17	17	3
142	143	2
122	122	2
17	21	2
4	4	3
137	138	3
72	72	1
56	56	2
116	156	1
62	62	2
24	24	3
109	109	1
147	151	1
66	66	1
46	47	1
153	161	2
135	135	1
110	110	1
64	64	1
81	81	1
169	170	1
43	44	2
16	53	1
25	26	2
37	37	4
48	89	1
143	143	2
136	137	1
146	163	1
117	117	1
119	132	1
16	77	2
12	146	1
12	14	1
120	121	2
1	1	1
101	102	1
90	101	1
74	74	1
2	6	1
129	130	1
18	18	1
21	22	2
8	22	1
38	42	1
70	73	1
161	161	1
78	78	1
132	160	1
80	82	1
118	143	1
116	116	2
164	164	2
134	161	1
16	80	1
105	151	1
158	158	1
113	113	1
68	69	1
96	96	1
13	13	2
39	56	1
26	27	1
151	151	1
57	163	1
119	122	1
134	139	1
84	86	1
7	57	1
98	98	2
169	169	1
50	55	1
43	154	1
77	82	1
147	147	1
79	80	1
62	82	1
159	159	1
4	5	1
161	162	1
78	121	1
34	34	3
21	21	1
123	123	1
99	100	1
64	144	1
70	80	1
20	21	1
42	43	1
21	25	1
51	51	1
51	127	1
131	131	1
111	113	1
33	37	1
14	16	1
155	156	1
10	23	1
47	152	1
0	1	1
