103	107	1
15	15	2
65	67	1
107	107	3
96	96	2
42	42	5
14	17	2
127	128	2
37	37	3
37	39	1
78	78	2
119	142	1
127	127	4
106	106	8
132	132	5
115	116	2
43	43	7
13	13	4
27	28	2
108	108	1
9	9	2
35	35	3
17	17	6
113	113	4
138	144	1
98	98	2
108	113	1
79	79	1
4	5	2
67	69	1
130	135	2
38	38	1
37	81	1
146	149	1
71	76	1
75	75	2
128	128	3
43	74	2
135	142	1
119	124	2
118	118	2
12	12	2
76	76	3
40	40	4
94	94	4
66	66	5
95	95	1
102	102	4
116	132	1
88	88	1
18	68	2
141	142	8
42	43	1
70	84	1
13	21	1
139	139	4
96	99	4
87	111	1
24	24	4
31	38	2
122	131	2
6	8	2
48	49	2
11	24	1
45	45	1
45	46	1
116	116	3
41	41	8
102	109	2
137	145	1
147	147	2
133	133	2
47	47	3
30	30	2
46	69	1
10	13	1
46	46	3
45	77	1
27	50	2
4	6	2
121	122	2
27	30	1
130	130	5
115	115	1
130	148	1
17	37	3
64	86	1
86	87	1
135	135	2
105	106	1
141	141	2
70	70	1
27	27	4
28	33	2
43	139	1
48	81	1
18	19	2
36	36	3
49	50	2
48	48	2
11	11	4
153	153	1
134	137	1
25	39	1
68	68	1
92	92	3
79	85	1
75	76	2
5	5	3
33	34	1
34	40	1
111	111	4
65	70	2
53	53	3
54	55	1
36	41	1
32	32	1
129	129	2
151	152	1
8	8	1
120	130	1
100	105	1
144	144	4
109	109	6
65	65	2
122	144	1
96	113	1
98	102	1
44	87	1
90	90	3
53	54	2
135	136	1
51	51	2
147	148	3
121	121	2
67	67	2
131	133	3
55	55	1
150	150	4
116	118	1
54	56	1
136	146	1
6	6	2
134	134	2
103	103	4
5	42	2
14	15	1
16	16	4
4	4	3
61	62	1
94	103	1
126	126	1
77	77	2
110	116	1
74	74	4
75	99	1
44	44	2
26	35	1
77	78	1
3	37	2
26	26	5
35	36	4
111	116	1
17	18	1
39	83	1
57	57	2
65	66	2
19	19	4
123	132	2
84	84	2
104	105	1
68	69	3
100	114	1
64	64	3
94	98	2
83	84	1
99	99	3
122	122	2
14	19	1
23	23	3
54	150	1
82	82	1
21	21	3
86	151	1
72	73	3
131	131	4
16	120	1
135	141	1
20	50	2
82	100	1
123	126	1
103	120	1
111	113	1
91	91	1
21	27	1
129	130	2
8	9	2
106	107	1
25	25	6
23	24	2
142	142	2
65	83	3
93	94	1
32	33	1
126	128	2
37	135	2
11	14	1
21	123	1
96	98	2
105	105	2
125	141	1
74	75	1
137	137	3
122	133	2
29	30	1
38	39	2
18	18	1
82	95	1
97	97	3
80	121	1
41	51	1
112	115	1
100	117	1
124	124	1
110	114	1
120	120	3
3	3	3
146	146	2
28	32	1
119	120	1
46	110	1
102	115	1
110	111	1
104	116	1
145	146	1
144	145	2
64	82	1
99	100	1
98	100	1
119	139	2
50	50	3
31	31	1
148	149	2
63	63	2
117	118	1
140	141	1
35	84	1
136	136	1
133	135	1
62	63	1
151	151	2
153	154	1
12	14	1
114	114	1
142	146	1
53	73	1
76	78	1
32	120	1
33	33	1
77	84	1
90	93	1
42	45	1
97	102	1
81	82	1
28	153	1
97	98	1
65	71	1
49	53	1
104	104	1
43	44	2
98	105	1
131	132	1
109	110	1
137	138	1
135	145	1
120	121	1
124	128	1
109	114	1
26	83	1
120	125	2
88	90	3
58	123	1
11	25	1
100	101	1
39	39	2
67	87	1
11	12	1
117	152	2
22	22	2
121	145	1
84	85	1
66	85	1
53	56	1
16	33	1
46	48	1
20	21	1
40	41	1
121	126	1
28	28	1
71	71	2
88	95	1
9	10	1
110	110	2
145	147	1
17	22	1
5	6	1
34	34	1
114	115	2
154	154	1
93	93	2
7	7	1
49	65	1
62	62	2
147	149	1
61	63	1
129	131	1
7	39	1
122	132	1
145	145	1
143	143	1
11	21	1
38	41	1
110	112	1
93	98	1
134	149	1
81	81	2
100	100	1
143	145	1
2	38	1
152	152	1
39	40	3
76	79	1
17	50	1
54	54	1
35	37	1
117	150	1
134	135	1
96	101	1
134	148	1
138	138	1
64	83	1
123	123	1
74	102	1
37	38	1
82	83	1
108	109	2
75	85	1
149	149	1
51	56	1
128	137	1
2	3	1
5	7	2
33	78	1
148	148	1
49	81	1
18	50	1
23	25	1
76	81	1
10	11	1
121	151	1
122	143	1
40	43	1
40	54	1
