4	4	3
5	5	4
75	129	1
70	70	1
10	12	1
19	19	1
5	6	2
106	106	2
145	145	1
9	40	1
138	138	2
141	142	3
98	98	2
104	111	2
41	42	1
135	149	1
131	139	1
103	103	1
46	46	3
139	139	1
140	145	1
84	84	1
24	37	1
73	87	2
34	34	2
132	132	3
116	151	2
42	42	3
153	153	3
144	147	2
146	150	1
77	138	1
12	139	1
3	3	1
94	94	1
73	73	2
50	62	1
111	111	1
94	104	1
148	148	1
4	6	1
4	5	1
73	152	1
87	91	2
101	102	1
141	141	2
26	33	1
15	78	1
66	67	2
103	123	1
115	119	1
146	147	1
17	21	1
118	130	1
54	54	3
118	118	2
10	10	1
93	95	1
28	28	3
115	115	1
20	54	1
40	105	1
149	149	4
14	112	2
109	109	1
70	71	1
47	48	3
100	100	1
83	84	3
64	64	1
35	69	2
5	13	1
47	77	2
57	57	5
95	100	1
81	83	1
12	12	3
100	101	2
9	9	3
28	29	2
35	45	1
35	35	2
99	99	2
106	150	1
27	29	2
14	15	1
38	38	2
67	109	1
104	108	1
25	37	1
68	69	1
78	85	1
26	57	2
27	27	2
148	150	3
33	33	4
146	146	1
50	68	1
124	143	1
122	147	2
152	153	1
20	20	3
30	30	1
148	152	1
38	42	1
108	130	1
14	65	1
89	107	1
133	135	1
132	148	1
76	76	2
142	143	1
135	135	2
9	43	1
67	67	1
69	69	1
131	134	2
113	123	1
150	150	2
45	51	1
18	76	1
97	97	1
73	99	1
19	99	1
127	127	1
50	50	1
6	42	1
80	80	1
50	75	2
96	101	1
115	123	1
103	137	1
110	142	1
121	154	1
93	102	1
137	137	1
21	25	2
81	82	1
131	132	1
10	113	2
122	122	2
10	11	3
57	58	1
68	68	1
83	83	1
152	152	2
72	72	2
80	145	1
64	66	1
6	6	3
11	82	1
16	26	1
118	153	1
86	86	1
23	78	1
40	40	2
124	127	1
129	130	1
37	37	1
20	142	1
62	63	3
108	137	1
58	58	1
20	40	1
113	113	1
34	36	1
61	61	2
52	52	1
76	139	1
120	142	2
107	108	1
63	74	1
82	82	2
25	69	1
120	139	1
71	82	1
42	50	1
48	48	1
81	81	1
42	55	1
91	91	1
32	33	3
10	22	1
106	110	1
105	114	1
56	56	2
110	120	1
88	88	1
84	138	3
80	143	1
109	113	1
102	102	1
120	120	1
10	86	1
45	53	1
99	107	2
45	109	1
73	77	1
87	108	1
31	31	1
119	119	1
95	95	1
13	13	1
119	120	1
116	135	1
137	146	1
78	78	1
147	147	1
128	128	1
83	148	2
18	84	1
12	16	1
17	17	1
98	99	1
43	63	1
8	57	1
22	23	1
74	114	1
154	154	1
72	91	1
44	75	1
2	89	1
144	146	1
14	37	1
18	139	1
63	64	1
133	133	1
69	71	1
123	125	1
26	37	1
42	43	1
142	142	1
101	154	1
109	111	1
102	107	1
62	62	1
147	151	1
120	131	1
51	57	1
126	126	1
36	36	1
12	15	1
90	147	1
10	85	1
6	33	1
121	121	1
18	18	1
77	77	1
8	9	1
51	70	1
62	65	1
116	116	1
72	80	1
122	133	1
21	113	1
124	125	1
