20	21	2
97	112	1
9	10	1
68	72	1
62	62	2
112	112	4
159	160	2
66	67	2
27	27	2
151	151	2
25	25	2
91	91	3
77	78	3
17	17	1
91	92	1
17	24	2
110	111	1
3	4	1
0	1	2
100	101	1
110	112	1
67	67	2
140	141	3
160	164	1
133	167	1
142	142	3
135	138	1
83	83	2
169	169	4
80	80	2
135	135	1
90	90	2
103	148	1
146	146	2
161	163	1
18	19	3
19	19	1
88	88	4
9	9	5
14	14	1
78	78	1
120	120	1
55	65	1
41	41	2
10	10	1
44	45	4
91	96	1
118	142	1
57	57	1
131	131	3
42	42	3
119	119	2
34	35	1
38	41	1
5	6	2
82	82	1
136	137	2
117	117	1
35	36	3
64	64	2
111	111	2
8	8	4
49	50	1
46	47	1
1	36	1
130	143	1
166	166	1
39	134	1
130	135	2
50	50	3
79	98	1
149	149	3
164	164	1
107	107	1
101	101	4
46	46	3
134	134	2
69	72	1
133	133	1
141	141	1
66	66	2
123	123	3
5	5	4
124	125	3
148	148	2
69	102	1
74	74	2
163	164	3
144	144	5
4	4	3
157	157	2
77	141	1
13	17	1
79	79	2
147	147	1
55	55	1
56	56	2
71	71	2
16	16	1
132	163	1
73	75	1
86	88	1
48	53	1
37	37	6
73	142	1
11	11	3
8	57	1
38	38	2
170	170	1
143	143	3
43	44	1
3	3	2
124	162	1
99	99	3
69	69	3
12	12	2
26	27	2
104	147	1
110	110	1
90	91	1
35	35	1
67	71	1
140	140	2
125	127	1
17	46	1
94	96	1
72	77	1
100	100	1
111	149	2
130	131	1
116	116	1
52	52	2
87	87	1
41	42	2
23	65	1
158	158	3
21	23	2
162	165	1
102	105	1
4	5	1
160	160	5
156	157	1
106	106	1
67	69	1
104	104	2
133	137	1
97	97	2
47	52	2
17	71	1
81	81	2
55	56	1
145	145	1
117	147	2
127	127	1
17	53	1
85	167	1
54	63	1
44	44	1
33	34	1
2	3	1
118	120	1
153	162	1
156	156	1
117	121	1
70	70	2
65	65	2
40	40	4
120	121	1
78	79	1
68	68	1
72	122	2
138	138	4
114	114	2
139	139	3
131	139	1
112	144	1
95	101	1
22	22	2
77	81	1
104	114	1
52	53	1
54	54	2
93	101	1
84	101	1
128	128	1
132	152	1
105	109	1
127	149	1
100	122	1
53	74	1
168	168	1
15	16	1
5	7	1
53	53	2
39	39	1
109	109	1
153	153	2
132	153	1
159	159	2
138	139	1
15	15	1
18	68	1
34	34	1
92	92	1
105	110	1
115	141	1
121	122	2
136	136	1
129	129	1
55	63	1
11	14	1
16	86	1
98	98	1
51	51	1
126	126	1
119	120	1
76	77	1
6	7	1
88	106	1
165	165	1
163	163	3
82	165	1
8	148	1
8	49	1
80	89	1
86	160	1
107	109	1
156	162	1
126	139	1
26	26	1
57	64	1
108	108	2
93	152	1
127	128	1
33	33	1
17	19	1
118	118	1
23	23	1
52	56	1
118	119	1
147	151	1
104	115	1
75	80	1
49	49	1
143	144	1
77	77	1
72	73	1
24	24	1
103	104	1
82	84	1
67	142	1
85	85	1
9	169	1
93	96	1
97	156	1
108	109	1
145	146	1
70	75	1
66	115	1
