86	86	3
61	161	1
113	113	2
120	227	1
92	92	5
99	101	1
118	118	6
49	69	3
179	179	3
55	65	1
58	59	1
94	94	2
30	30	8
241	241	3
167	167	3
158	228	1
153	153	5
209	209	1
217	217	6
99	199	1
159	159	2
70	88	1
48	48	3
4	18	1
26	26	2
16	16	5
2	2	2
80	80	2
5	5	3
10	11	1
176	176	4
114	114	3
89	199	2
76	76	4
12	12	4
19	21	1
238	238	2
93	110	1
68	69	3
171	171	5
23	23	8
31	31	7
113	114	3
105	194	1
71	71	5
33	35	1
147	147	3
209	228	2
173	173	3
210	211	1
160	160	7
51	51	6
151	153	1
89	89	1
44	174	1
163	192	1
120	169	1
43	43	3
119	121	1
213	214	1
194	194	4
203	203	4
161	161	1
40	40	2
243	243	1
68	245	1
48	168	1
117	117	3
248	249	1
100	100	4
229	229	4
222	222	8
41	42	2
112	112	1
182	183	1
230	232	1
175	175	2
3	3	7
247	247	3
33	33	9
88	95	1
212	212	2
44	53	1
72	75	1
63	64	1
89	90	1
114	115	3
106	106	4
170	171	5
189	190	2
21	21	2
236	236	4
220	221	1
4	36	1
37	37	5
20	32	1
213	213	5
110	110	5
170	216	1
66	68	1
45	46	1
63	63	5
231	231	3
233	234	2
227	227	4
109	109	4
145	145	2
69	70	1
175	176	2
41	41	6
7	14	1
180	180	3
217	219	2
180	212	1
119	119	6
46	46	7
242	242	3
156	156	4
27	28	3
195	195	1
155	155	3
61	77	2
47	48	1
167	177	1
235	235	4
158	158	3
35	35	5
77	77	4
60	61	2
230	236	1
38	39	1
187	188	2
204	204	1
116	116	3
166	167	2
197	197	3
189	189	2
177	177	4
177	178	2
61	61	6
213	218	1
101	102	1
58	58	3
204	205	3
38	38	6
62	76	1
18	18	3
116	117	1
17	17	4
64	68	1
77	87	1
192	192	3
7	7	1
189	248	2
55	55	6
244	244	3
181	181	5
78	83	1
99	196	1
76	86	1
182	185	2
240	240	3
218	220	2
185	185	6
4	4	3
83	83	3
201	201	4
104	104	4
210	210	2
65	76	1
67	67	4
53	54	1
146	146	1
44	44	8
19	19	6
150	150	2
227	228	3
174	176	1
151	151	2
224	225	1
208	208	3
164	164	3
208	209	2
180	181	1
82	83	1
162	163	1
183	184	5
22	236	1
120	145	1
235	236	2
25	25	6
70	70	2
170	181	1
245	245	3
157	158	1
220	220	1
46	52	1
14	34	1
174	224	1
66	245	1
152	156	1
205	205	3
49	50	5
115	115	1
11	11	3
233	233	1
221	222	3
207	207	4
79	79	1
15	15	5
56	56	5
209	229	1
168	169	2
166	166	3
108	108	4
6	6	3
76	98	1
213	241	2
221	233	2
9	9	2
106	185	1
64	76	1
214	233	1
215	215	2
14	14	4
155	204	1
59	60	1
168	220	1
105	105	2
60	78	1
21	22	1
93	94	1
53	63	2
87	87	2
92	93	3
149	150	1
183	183	3
229	230	2
93	93	2
95	98	1
195	236	1
157	157	8
49	57	1
72	72	6
8	8	6
103	103	2
97	100	1
72	215	1
60	63	1
75	83	1
78	78	4
54	54	1
28	29	1
243	245	1
105	107	2
57	57	2
29	36	1
52	52	3
194	195	4
99	102	1
154	155	1
163	163	4
68	182	1
80	82	1
73	168	2
163	164	2
90	102	1
202	202	3
50	217	1
214	214	1
115	116	2
178	178	2
214	248	1
82	82	2
244	245	3
41	44	1
26	27	1
165	165	5
0	0	1
97	98	1
240	241	1
106	108	1
214	215	2
182	182	3
3	18	1
221	221	3
218	219	3
51	219	1
162	165	1
96	96	6
191	191	2
36	39	2
28	28	6
91	91	4
215	216	1
10	10	2
232	233	2
154	159	1
232	232	2
5	224	1
66	67	2
186	187	2
34	34	3
20	24	1
24	24	3
71	75	1
27	27	5
99	99	4
98	98	3
237	237	2
117	118	1
174	174	2
29	31	1
168	168	4
94	95	3
107	107	1
27	150	1
90	91	1
74	74	1
81	81	3
186	186	4
152	223	1
49	58	2
211	231	1
87	99	1
80	83	1
214	219	1
187	187	2
104	105	1
68	70	1
159	182	1
70	71	1
218	218	2
55	56	1
62	62	2
162	162	3
65	65	1
198	201	3
168	182	1
153	200	1
57	90	2
50	50	3
198	199	1
95	178	3
198	198	1
5	228	1
177	217	3
234	234	2
36	234	1
91	213	1
176	217	1
20	20	2
106	107	1
173	176	1
85	85	4
111	161	1
59	243	1
107	108	3
42	42	8
77	78	1
186	188	2
179	180	2
95	95	3
81	88	1
78	79	2
75	75	2
230	230	3
186	190	1
226	226	3
59	151	1
12	14	1
9	14	2
217	218	1
22	22	3
68	68	3
42	180	1
170	170	2
236	245	1
45	45	2
76	77	1
172	172	1
30	31	1
1	3	2
54	55	1
173	174	1
161	246	1
111	111	2
238	240	1
14	15	3
249	249	1
106	118	1
31	32	1
49	49	1
72	74	1
219	219	1
50	98	1
47	47	1
175	177	1
96	97	2
200	200	2
164	165	2
223	224	1
99	100	1
66	66	1
199	199	1
50	58	1
75	76	2
221	235	1
153	154	1
87	101	1
200	220	1
119	169	1
16	36	1
88	88	1
178	179	1
203	204	1
39	39	6
83	84	1
172	173	3
8	15	1
246	246	1
10	12	1
14	170	1
17	230	1
180	207	1
87	88	1
81	146	1
73	74	1
102	103	1
14	35	1
198	211	1
62	70	1
32	32	1
188	188	3
184	184	2
2	3	2
67	68	1
225	225	2
84	84	1
96	105	1
36	36	1
52	63	1
25	35	1
214	218	1
14	40	1
156	157	2
97	97	4
223	223	2
198	236	1
248	248	1
92	94	1
93	105	1
60	60	2
193	193	1
46	47	1
90	90	1
92	111	1
234	235	1
196	196	1
59	110	1
64	72	1
231	249	1
191	242	1
164	193	1
84	87	1
245	246	1
92	110	1
239	239	1
25	234	1
171	173	1
4	5	1
78	172	1
159	234	1
109	110	1
236	243	1
196	237	1
71	74	1
29	29	1
79	80	1
112	169	1
16	17	1
226	236	2
59	167	1
188	189	1
187	190	1
47	94	1
145	231	1
109	112	1
181	182	1
64	67	1
152	152	1
54	59	1
115	146	1
61	72	1
75	81	1
21	32	1
49	51	1
15	16	1
101	101	1
165	166	1
110	145	1
197	198	1
241	243	1
102	102	1
