80	104	2
62	62	2
1	1	1
93	93	3
87	109	1
100	100	1
83	85	1
42	42	4
106	106	2
81	82	4
129	129	2
102	102	5
59	59	1
53	53	2
5	6	1
62	63	5
81	81	7
103	103	1
14	16	2
110	119	1
16	97	1
121	121	2
115	116	1
55	55	3
2	92	1
70	70	2
119	122	1
103	104	1
28	28	3
124	135	1
51	51	2
99	131	1
21	21	1
37	37	1
73	73	4
5	5	2
138	138	4
130	130	2
114	117	4
122	122	4
89	89	4
105	105	3
57	58	2
116	116	1
6	48	1
115	115	3
96	96	3
95	128	1
55	135	1
70	71	1
137	137	2
112	114	2
120	120	1
52	53	2
110	110	3
137	138	5
95	95	4
9	9	1
101	102	1
52	52	2
23	23	3
60	64	2
80	80	1
26	26	1
125	126	1
140	140	2
88	88	5
63	63	2
64	64	2
79	80	2
31	31	2
23	29	1
77	77	3
18	82	1
105	111	1
139	141	1
28	33	1
61	67	1
112	112	2
30	32	1
64	132	1
41	41	3
27	28	1
11	11	1
61	62	1
88	89	5
77	107	1
83	89	1
47	129	2
33	33	1
20	20	2
13	13	2
100	101	3
62	90	1
18	18	2
135	135	1
101	101	1
135	137	1
104	104	2
49	54	1
141	141	2
139	139	1
40	40	3
54	54	1
3	3	1
135	136	1
118	119	1
128	128	3
127	127	1
78	78	1
53	57	1
25	25	4
69	69	3
98	98	2
133	139	1
4	4	1
126	127	1
34	34	2
27	27	1
68	68	1
48	68	1
50	64	2
82	82	3
90	91	1
89	90	2
66	66	2
61	61	2
104	134	1
18	65	1
29	29	1
20	21	2
126	126	1
119	119	1
56	56	1
24	31	2
114	123	2
5	17	1
136	139	1
109	109	1
92	94	1
32	33	1
111	111	3
108	109	1
26	60	1
55	56	1
97	97	1
26	27	1
32	32	2
39	64	2
24	25	2
0	0	1
8	9	1
108	117	1
31	68	1
134	134	1
105	108	1
17	17	2
99	99	1
93	94	1
75	75	1
73	74	1
29	30	1
90	90	2
49	49	2
87	87	1
31	98	1
99	121	1
131	139	1
127	130	1
142	142	2
116	132	1
35	36	2
136	136	2
10	10	1
40	41	1
118	118	1
72	72	1
38	41	1
19	19	2
38	38	1
107	110	1
30	37	1
108	110	1
32	69	2
75	90	1
42	124	1
53	134	1
42	119	1
77	78	1
94	94	2
16	16	2
131	131	1
63	64	1
125	125	3
36	120	1
28	98	1
