34	34	3
111	111	6
28	28	2
29	29	3
73	73	5
75	75	3
91	94	1
83	84	4
27	27	3
105	108	1
39	39	3
21	22	4
81	82	2
59	61	1
107	107	3
58	58	2
21	26	1
35	38	1
45	109	1
90	90	2
44	83	1
109	113	1
21	21	4
42	75	1
81	81	3
56	56	3
82	88	2
44	45	2
112	112	3
97	97	1
89	113	2
38	65	4
43	43	2
89	89	3
37	37	9
101	104	3
74	75	5
106	106	2
42	42	4
64	113	1
77	78	2
40	61	1
54	64	1
110	110	1
68	112	1
49	49	4
40	40	7
63	63	4
61	96	1
30	95	1
34	35	1
28	29	6
113	113	6
45	45	2
112	113	1
100	100	2
67	67	4
40	69	2
42	46	1
63	65	1
30	30	2
80	108	1
22	22	1
102	102	3
101	101	5
52	90	1
44	44	2
80	80	4
57	58	1
54	57	3
101	102	1
95	97	1
109	109	1
68	93	2
114	114	3
72	72	3
30	32	2
108	109	1
111	113	1
115	115	3
27	77	1
87	91	2
63	95	1
73	74	3
71	71	1
59	59	2
37	64	1
113	114	1
94	100	1
86	112	4
36	36	1
19	23	1
26	30	1
91	91	1
31	31	2
82	85	3
106	112	1
69	69	5
100	101	4
105	105	5
30	31	2
70	70	2
69	85	1
35	35	2
70	71	4
90	113	1
88	89	1
61	61	1
99	99	3
48	48	2
79	79	2
95	95	5
65	72	1
88	107	1
63	79	1
107	109	1
48	101	1
51	51	3
48	106	3
46	46	1
103	104	1
96	97	2
19	20	1
23	23	1
34	61	1
58	85	1
53	78	1
92	92	5
23	25	1
60	77	1
38	39	1
82	82	1
55	55	1
66	66	1
28	30	2
47	47	4
88	88	1
58	59	1
25	50	1
49	50	3
48	49	1
24	24	2
76	76	2
39	72	1
93	96	1
65	65	4
59	60	1
33	33	1
33	35	1
20	20	1
101	109	1
79	80	1
71	97	1
68	76	1
68	105	1
31	32	1
104	104	1
40	78	1
93	93	1
25	25	1
52	52	3
41	41	1
32	32	2
42	74	1
44	102	1
87	87	1
94	94	2
57	57	1
20	50	1
65	70	1
25	27	1
110	114	1
57	79	1
22	55	1
46	110	1
37	57	1
55	57	1
78	78	2
53	53	1
33	63	1
63	67	1
54	54	2
89	107	1
31	38	1
33	42	1
79	113	1
65	71	1
63	66	1
60	60	2
26	28	1
104	110	1
80	93	1
88	105	1
90	112	1
