172	172	3
92	135	1
168	168	4
174	174	1
151	160	1
87	88	3
176	176	1
31	31	3
38	38	3
5	5	3
115	116	1
158	158	4
143	159	2
46	66	1
119	119	5
120	120	1
19	19	2
24	24	3
57	57	1
63	63	3
139	142	2
40	40	2
75	77	2
107	114	1
80	80	2
160	165	1
68	108	1
173	177	1
169	180	2
131	155	2
184	184	1
39	39	1
86	86	3
116	116	2
164	164	2
153	153	1
82	117	1
113	113	5
16	16	2
132	134	1
85	86	1
107	116	1
182	182	2
165	165	1
97	112	2
137	137	1
71	170	1
41	41	2
155	160	1
29	180	1
121	121	2
25	44	1
102	102	1
1	119	1
57	80	1
48	48	4
76	76	3
26	27	2
97	118	1
95	116	1
23	25	2
13	22	2
162	162	1
67	129	1
103	103	1
175	175	1
99	100	2
81	81	5
76	83	1
131	131	1
146	146	1
94	94	3
140	177	1
179	189	2
87	91	1
78	82	1
183	183	1
169	169	5
118	119	1
84	100	1
154	155	1
155	155	5
66	70	2
11	13	1
82	83	1
135	135	2
118	118	1
62	140	1
146	170	1
123	123	1
109	109	1
89	159	1
138	171	1
48	71	2
0	0	3
132	133	1
15	16	1
5	108	1
116	159	1
17	48	1
185	185	2
117	119	1
126	147	1
159	159	1
135	142	1
1	1	2
137	138	1
10	11	2
26	68	1
147	147	2
24	53	2
178	178	3
152	153	2
75	75	1
77	77	2
56	58	1
65	65	1
126	127	1
17	46	1
47	47	2
44	66	2
146	147	1
150	151	2
82	82	2
153	154	1
74	74	1
104	104	2
113	114	1
171	171	2
189	190	1
133	172	1
149	149	1
14	14	2
59	66	1
72	72	3
78	85	1
174	187	1
88	174	1
112	134	2
99	183	1
44	48	1
96	97	1
156	156	1
160	162	1
74	75	2
1	2	1
155	156	1
94	97	1
58	59	1
44	53	2
85	85	2
100	100	2
12	24	1
93	93	5
15	59	1
114	114	1
123	124	1
132	150	1
77	141	1
99	99	1
34	34	1
55	67	1
162	163	1
23	85	1
120	122	1
56	135	1
136	136	1
71	92	1
58	58	2
9	9	1
18	18	1
25	25	2
23	24	1
21	29	1
21	32	2
134	144	1
43	43	2
134	134	1
136	139	1
137	174	2
47	125	1
4	4	3
95	96	1
151	151	3
78	78	1
75	76	1
190	190	2
152	152	1
59	100	1
36	36	1
126	126	2
36	77	1
64	120	1
118	127	1
17	18	1
119	124	2
133	158	1
133	135	4
134	138	1
86	112	1
14	15	1
173	189	1
13	15	1
32	86	1
6	6	1
110	110	1
186	186	2
78	79	1
129	129	1
62	109	1
42	45	1
1	8	1
27	27	1
163	164	1
147	170	1
127	127	4
138	139	2
100	102	1
112	135	1
19	82	1
42	42	2
91	93	1
170	170	1
91	102	1
72	130	1
133	133	1
107	107	2
62	119	1
142	148	1
9	74	1
53	56	1
27	28	1
70	72	2
57	154	1
154	154	2
117	131	1
115	115	2
91	91	1
133	173	1
79	100	1
118	123	1
54	58	1
161	161	1
91	124	1
34	35	1
30	30	1
0	32	2
86	87	1
180	180	1
7	7	1
55	55	1
22	23	1
98	98	1
79	113	1
122	123	1
84	103	1
28	32	1
100	123	1
172	174	2
176	177	1
125	125	1
140	141	1
64	64	1
68	77	1
87	87	1
188	188	2
19	28	1
172	177	1
22	29	1
0	23	1
128	158	1
142	142	2
139	139	1
73	73	1
124	127	1
52	100	1
96	96	1
131	133	1
40	128	1
180	181	1
89	89	1
112	112	1
23	31	1
116	143	1
136	189	2
169	177	1
97	133	1
13	28	1
95	107	1
53	63	1
74	78	1
127	150	2
177	177	1
173	186	1
69	112	1
68	68	1
153	167	1
161	175	1
84	175	1
96	104	1
101	101	2
78	86	1
68	101	1
53	53	1
144	145	1
99	101	1
52	53	1
86	88	1
