163	163	1
43	43	2
137	139	2
169	169	3
76	81	1
153	153	6
98	99	1
112	112	6
105	106	1
31	31	1
1	1	4
66	95	1
151	151	3
1	81	1
41	170	2
71	71	2
149	149	2
58	58	1
34	34	3
155	155	2
111	112	2
75	75	1
176	176	2
15	117	1
66	67	3
0	168	1
147	150	3
12	25	1
16	17	2
115	115	4
118	118	1
70	70	2
102	102	1
55	55	1
108	108	1
31	90	1
7	115	1
136	136	1
80	80	2
160	160	1
94	94	1
143	143	4
121	122	1
68	68	3
61	61	3
54	55	2
93	98	2
140	140	4
55	59	1
113	127	2
109	109	2
58	158	1
92	92	2
23	35	1
138	140	1
85	151	1
131	131	4
60	61	1
158	158	1
17	18	1
81	100	1
21	27	1
124	167	1
125	125	1
134	134	1
142	143	1
173	173	2
170	171	1
126	126	2
15	97	1
137	138	1
3	3	2
152	152	1
111	111	3
6	6	1
167	168	1
81	82	2
104	105	1
133	133	1
104	166	1
98	98	1
73	75	1
137	137	3
77	172	2
12	20	1
76	77	2
125	126	1
5	6	1
177	178	2
0	0	1
107	108	1
89	99	1
11	13	2
9	10	2
104	104	2
157	157	2
54	62	1
122	122	1
116	116	1
10	11	1
24	24	1
21	21	1
101	102	1
168	168	2
111	164	1
20	35	1
152	153	1
141	148	1
41	41	2
178	178	2
43	131	1
117	117	1
179	179	1
12	12	1
53	53	1
132	168	1
55	56	1
93	93	1
31	32	1
40	41	1
178	179	1
86	86	3
142	148	1
66	68	1
62	165	1
44	45	1
116	118	1
67	67	2
145	146	3
87	87	1
91	92	1
123	124	1
50	50	1
21	26	1
148	149	2
10	10	1
172	172	1
121	121	1
85	86	1
147	148	1
26	28	1
58	159	2
59	98	1
35	36	2
72	72	1
145	145	1
156	159	1
168	171	2
90	90	1
165	166	1
32	32	1
113	125	1
43	66	1
132	134	1
6	9	2
151	153	1
103	103	1
123	123	1
138	138	1
101	136	1
42	42	1
66	66	2
142	142	1
27	51	1
110	115	1
84	84	1
8	8	1
128	128	2
9	9	1
132	132	1
166	167	1
148	148	1
171	172	1
62	125	1
180	180	1
37	37	1
171	171	1
113	113	1
135	135	1
5	5	1
63	65	1
13	13	1
88	88	1
