114	114	4
65	65	2
118	118	1
21	28	1
16	16	1
105	105	1
42	43	1
10	30	1
20	61	1
70	70	2
127	128	1
56	101	1
47	50	2
115	116	1
9	11	1
31	31	1
68	68	5
34	34	2
15	16	1
124	133	1
26	26	4
0	134	2
77	88	1
18	18	3
24	24	5
67	97	1
67	67	3
6	6	2
114	118	1
44	44	1
130	133	2
48	48	1
27	27	5
30	78	1
33	65	1
98	98	3
29	30	2
53	57	1
95	95	4
32	77	1
116	116	1
22	22	1
66	66	1
80	80	4
56	56	4
92	92	5
5	5	4
107	107	2
12	13	3
29	83	2
107	108	2
28	29	1
77	77	3
122	130	1
97	97	1
112	116	1
124	124	2
125	125	4
71	71	1
3	4	2
14	30	1
121	131	1
128	128	1
100	100	3
9	10	3
110	120	1
23	52	1
86	87	1
120	129	1
78	78	3
94	94	2
134	134	3
5	59	1
59	61	1
59	60	1
19	20	1
12	12	3
37	37	1
57	57	3
117	133	1
108	108	2
83	83	2
108	127	1
20	20	2
121	121	2
126	126	1
96	96	1
11	18	1
117	118	1
32	39	1
64	66	1
131	131	1
72	73	4
128	129	2
48	83	1
11	11	2
1	1	1
15	62	1
78	96	1
126	134	1
56	99	1
43	44	1
64	64	3
21	24	2
99	99	2
130	130	2
34	83	2
8	9	1
30	99	1
103	104	1
10	32	1
49	116	1
9	18	2
76	76	2
5	14	1
38	44	1
17	17	3
24	37	1
52	52	2
112	112	6
53	54	2
124	129	1
63	115	1
61	116	1
77	133	2
5	45	1
109	109	1
123	123	3
49	49	1
14	15	1
70	134	1
115	115	4
125	126	1
1	10	2
50	50	1
101	102	1
43	43	1
132	132	2
18	29	1
56	131	1
132	134	1
92	93	2
135	135	1
119	119	2
77	79	1
63	69	1
54	55	1
11	15	1
110	111	1
67	69	1
111	111	2
37	129	2
60	61	2
127	127	1
74	74	1
35	35	1
49	50	1
59	83	1
58	58	1
62	62	1
111	120	1
25	25	2
98	124	1
113	114	1
49	54	1
36	36	1
113	115	1
72	72	2
58	81	1
29	124	1
61	69	1
90	90	1
124	125	1
123	125	1
11	12	1
76	125	1
69	91	1
30	34	1
37	38	2
78	124	1
117	117	2
34	35	1
57	58	1
12	75	1
73	73	2
81	81	1
127	130	1
30	30	3
93	97	1
60	60	1
60	109	1
33	43	1
85	86	2
113	113	1
82	98	1
80	119	1
87	129	1
37	43	1
4	10	1
129	129	1
62	83	1
56	82	1
93	93	1
16	17	1
44	45	1
7	23	1
54	54	1
30	33	2
87	88	1
76	80	1
44	64	1
88	88	1
3	3	2
29	29	1
94	95	1
118	124	1
19	19	1
15	15	1
69	69	1
21	21	1
103	103	1
1	54	1
