188	222	1
161	161	4
44	44	2
165	165	1
99	99	1
158	160	3
176	222	1
8	8	5
176	234	1
220	221	1
145	145	1
184	185	2
75	79	1
172	172	3
237	237	2
147	147	5
114	164	1
53	53	4
1	1	3
227	227	2
15	36	1
2	4	2
195	195	5
135	140	3
101	101	2
180	180	4
142	143	2
110	110	1
144	145	2
228	228	3
47	47	7
116	116	2
187	189	1
149	149	2
3	3	1
81	81	3
226	227	1
52	52	3
220	222	1
185	187	1
174	174	1
215	215	2
122	124	1
145	178	1
113	114	2
9	10	1
210	211	1
48	48	2
192	192	2
43	69	2
194	194	1
56	56	2
119	119	3
136	201	1
242	242	3
51	53	1
203	203	1
179	191	1
114	115	1
134	135	1
210	210	2
159	160	1
236	236	2
176	235	1
100	100	2
139	144	1
221	221	1
183	183	4
161	190	1
14	14	4
135	143	1
46	47	1
10	10	2
23	23	4
12	12	1
239	239	3
55	55	3
97	114	1
70	71	1
122	122	1
78	78	1
30	30	3
135	151	1
71	101	2
200	201	1
101	102	2
198	198	6
50	50	1
227	230	1
32	37	2
46	46	1
153	153	4
108	108	2
10	211	1
136	136	2
29	29	2
38	39	1
155	192	1
40	40	2
231	232	1
176	236	2
102	103	1
126	127	1
35	35	3
158	234	1
67	67	1
100	101	2
223	223	2
214	214	2
97	111	1
36	75	1
71	72	1
150	153	1
230	230	2
154	169	1
176	176	1
64	64	2
134	134	2
129	129	2
15	15	4
84	85	1
0	1	1
226	226	3
148	149	1
72	72	2
109	109	3
63	63	5
216	216	1
133	133	1
154	154	1
20	20	2
159	233	2
6	7	1
186	186	2
68	99	1
209	209	1
173	241	1
21	21	3
152	152	1
177	182	1
133	134	1
168	168	2
4	4	1
188	220	1
72	88	1
191	191	3
85	85	4
142	142	4
50	57	1
73	120	1
233	234	1
25	25	4
52	53	1
60	201	1
61	61	3
45	45	3
79	82	1
209	210	3
102	161	1
158	158	2
4	6	2
19	62	1
64	65	2
0	5	1
29	30	2
157	158	2
115	115	3
221	222	1
171	178	1
44	45	2
122	128	1
139	139	1
18	18	3
43	43	2
83	83	3
141	167	1
32	32	1
14	36	1
175	175	2
217	217	2
3	6	1
76	76	2
112	167	1
213	215	1
159	169	1
106	106	2
69	69	1
177	177	1
201	201	2
49	60	1
34	34	1
61	62	3
71	84	1
170	170	1
116	117	1
132	136	1
31	31	1
50	51	2
181	183	1
126	126	1
7	10	1
185	225	1
160	171	1
187	187	1
203	208	1
113	113	2
143	149	1
207	207	3
179	179	2
19	42	1
205	206	1
160	160	1
106	109	2
128	128	2
115	117	1
189	237	1
235	235	1
115	116	4
97	97	2
162	163	1
67	80	1
130	131	1
46	63	1
148	148	1
125	125	1
29	43	1
163	165	1
222	228	2
167	168	2
91	91	1
219	234	1
46	55	1
76	79	1
114	114	3
26	26	2
185	186	1
16	23	1
10	231	1
232	239	1
227	229	1
28	28	2
99	113	1
215	216	3
98	136	1
185	185	1
59	59	1
67	84	1
157	162	1
161	164	1
233	233	2
208	208	2
54	215	1
159	159	1
174	241	1
13	53	1
33	33	1
123	123	1
201	202	2
160	162	1
212	212	1
71	79	1
60	60	1
162	165	1
118	118	1
107	108	1
102	102	2
240	241	1
18	41	1
3	21	1
156	168	1
36	37	1
164	164	1
150	152	1
53	171	1
24	25	1
128	130	1
218	218	1
219	219	3
27	27	1
222	223	1
171	171	3
100	154	1
134	143	1
131	139	1
15	16	1
196	196	1
14	15	1
159	190	2
204	211	1
12	13	1
70	70	1
229	229	2
178	178	1
32	47	1
194	195	1
48	76	1
218	233	1
66	67	1
82	106	1
32	34	1
219	238	1
197	197	1
121	121	2
135	150	1
151	151	1
14	56	1
175	176	1
166	168	1
18	42	1
232	232	1
205	210	2
84	84	1
176	177	1
71	71	2
74	74	1
223	237	1
125	126	1
222	225	1
146	146	1
211	211	1
7	8	1
103	184	1
118	127	1
141	141	1
28	124	1
192	197	1
11	11	1
175	236	1
58	61	1
120	120	1
205	205	1
162	200	1
16	42	1
179	237	1
51	51	1
51	52	1
82	82	1
69	70	1
11	14	1
67	71	1
235	236	1
119	120	1
13	13	1
49	68	1
137	137	1
163	175	1
177	178	1
84	128	1
144	149	1
9	9	1
88	89	1
63	171	1
160	173	1
19	22	2
163	190	1
186	191	1
28	29	1
107	107	1
66	79	1
6	16	1
20	21	1
222	224	1
108	110	1
40	48	1
197	202	1
127	127	1
202	202	1
