42	42	3
102	102	1
153	153	2
120	121	1
3	7	1
75	77	1
189	190	1
140	140	5
97	97	1
188	188	1
141	181	1
94	94	2
54	54	5
20	20	2
147	147	5
141	141	4
127	127	1
142	142	2
78	78	2
126	126	5
75	75	4
93	113	1
184	185	1
91	91	1
114	114	4
98	98	3
157	157	3
68	68	2
155	155	1
4	4	4
61	64	2
187	187	4
185	190	1
97	115	1
85	103	2
31	31	3
110	110	2
36	36	2
40	40	4
32	32	2
72	100	1
66	66	1
138	178	2
137	139	3
2	6	1
110	142	1
88	88	4
108	108	3
78	79	3
45	64	1
131	131	3
176	176	2
26	26	2
190	190	6
55	65	1
113	113	1
161	161	3
148	153	1
23	23	2
10	10	4
60	67	1
117	117	1
54	75	1
168	168	1
165	168	2
25	25	7
38	39	1
133	134	1
154	154	2
55	55	4
149	176	1
53	53	6
162	173	1
157	159	1
11	11	2
117	119	1
100	100	3
16	16	6
123	123	2
114	130	1
23	48	1
106	106	2
87	172	1
163	164	2
101	101	4
109	109	1
0	0	1
158	158	1
111	111	1
58	58	4
116	144	1
122	122	2
33	33	2
131	149	1
137	137	3
189	189	4
129	129	4
118	118	3
79	79	1
25	26	1
95	95	5
126	127	1
33	34	2
167	169	1
74	96	1
5	6	1
44	44	2
56	57	1
6	6	2
90	90	1
73	73	5
109	112	1
7	7	4
35	35	5
164	164	3
43	44	1
82	82	2
1	1	6
99	105	2
59	63	1
130	130	3
108	169	1
113	141	1
103	143	2
71	72	2
84	84	5
74	78	1
41	48	1
134	154	2
165	165	2
82	84	2
9	15	1
148	148	2
105	107	1
0	2	1
5	7	1
85	85	2
56	56	2
186	186	1
140	141	3
29	72	1
73	91	2
109	111	1
5	5	2
87	87	1
54	58	1
30	30	3
57	108	1
41	41	1
167	167	5
150	150	1
121	121	2
170	174	1
93	170	1
57	57	2
105	105	1
65	65	5
11	13	3
74	74	2
43	43	4
145	146	1
164	165	1
58	73	1
70	70	1
147	152	1
99	99	4
134	178	1
101	128	1
165	174	1
18	18	1
33	53	1
152	180	1
166	166	2
159	179	1
91	126	1
37	38	1
185	185	1
133	133	1
164	168	1
28	28	1
27	31	2
14	15	1
67	68	1
175	175	1
79	85	1
31	45	1
163	171	1
114	115	3
5	17	1
135	135	2
156	159	1
154	190	1
152	160	1
60	61	1
174	174	1
145	149	1
160	160	2
40	54	1
100	170	1
138	138	1
153	184	1
146	147	1
93	127	2
5	18	1
72	73	2
38	185	1
60	60	1
57	73	1
115	115	1
62	62	2
71	71	1
70	72	1
67	67	1
174	178	1
92	92	1
182	182	3
96	96	1
63	63	4
84	110	1
45	45	2
162	163	1
180	180	4
170	170	1
95	141	2
156	156	2
77	78	1
130	149	1
76	77	1
120	120	2
2	2	1
136	137	1
123	139	1
77	77	1
27	46	1
74	80	2
10	14	1
32	48	1
121	136	1
94	103	1
90	91	2
95	116	2
38	38	2
87	128	1
77	82	2
158	187	2
159	160	2
177	179	1
27	27	2
16	23	1
95	132	1
44	63	1
63	65	2
107	108	1
146	146	3
71	84	1
148	150	2
13	24	1
42	57	1
19	21	1
19	77	1
99	100	1
18	119	1
101	134	1
168	173	1
39	79	1
95	110	1
114	167	1
0	22	1
98	100	2
169	179	1
15	52	1
20	24	1
100	101	1
13	56	1
76	76	2
124	124	1
5	19	1
85	86	1
112	133	1
100	136	1
112	132	1
101	103	1
113	154	1
149	149	2
17	36	2
159	161	1
28	61	1
18	25	1
37	37	2
84	101	1
162	162	1
117	118	1
64	64	1
13	13	1
41	62	1
103	104	1
161	163	1
54	55	1
178	178	3
65	79	1
184	184	2
179	179	2
98	143	1
96	137	1
93	96	1
152	153	1
36	37	1
24	24	2
182	183	1
112	142	2
115	137	1
71	83	1
154	179	1
128	128	1
19	19	1
41	53	1
29	29	1
173	173	2
26	64	1
23	25	1
10	22	1
148	149	1
64	85	1
65	67	1
163	163	1
68	91	1
12	35	1
87	104	1
136	151	1
12	18	1
178	183	1
79	81	1
76	140	1
104	104	1
147	166	1
172	172	1
139	154	1
166	167	1
67	78	1
183	183	2
17	17	1
130	131	1
86	87	1
99	116	1
15	28	1
133	186	2
29	30	1
104	106	1
185	186	1
80	80	1
95	101	1
22	122	1
17	57	1
132	132	1
4	8	1
15	15	1
72	72	1
26	30	1
67	71	1
85	117	1
123	151	1
47	47	1
110	176	1
18	30	1
171	171	1
142	168	1
44	45	1
12	20	1
97	108	1
181	181	1
63	64	1
155	156	1
78	115	1
90	121	1
16	17	1
