14	14	3
138	138	4
30	31	1
117	119	1
112	112	8
90	90	3
0	0	1
15	17	1
142	145	2
41	42	2
44	44	6
43	43	7
102	103	1
87	87	9
116	116	4
78	78	2
139	139	8
26	26	3
75	76	2
18	18	8
120	121	1
128	128	3
131	131	6
123	123	5
152	152	4
158	158	4
125	125	4
130	130	3
36	36	4
27	87	1
5	156	1
99	99	2
55	87	2
82	82	7
156	156	4
5	5	2
49	50	4
17	23	3
146	147	2
97	97	2
30	66	1
71	71	6
9	9	3
79	95	1
27	27	2
122	122	7
77	81	2
30	30	8
101	101	8
148	148	7
31	64	2
23	23	7
49	49	5
19	19	3
29	29	4
142	142	4
20	21	7
75	75	2
77	110	1
141	145	2
20	24	2
103	104	1
154	154	4
38	38	7
8	11	2
129	130	1
3	14	1
81	106	1
22	22	5
127	127	2
25	25	5
26	28	2
151	151	7
94	94	2
51	51	1
24	24	3
45	69	2
77	77	2
135	135	6
140	140	4
21	21	3
85	85	3
92	92	6
52	53	2
134	134	4
116	152	1
4	4	4
119	119	2
128	129	3
57	67	2
91	91	3
126	126	5
43	89	2
118	119	1
79	94	1
50	50	4
3	4	2
13	13	3
100	100	4
63	63	1
137	137	6
3	3	7
32	33	2
54	91	1
141	141	4
1	1	5
117	117	5
54	54	1
129	129	1
35	35	1
40	40	3
113	113	3
123	125	1
12	12	5
104	129	1
110	111	1
12	15	1
74	74	1
83	83	4
47	55	2
150	151	1
132	132	2
96	96	2
42	42	2
104	106	1
146	146	2
67	67	3
80	80	4
66	66	2
143	143	2
17	20	2
17	18	2
93	93	5
21	22	2
157	158	2
95	95	1
83	86	1
115	115	6
20	20	3
70	70	1
55	91	1
2	3	2
135	136	1
7	7	3
31	31	3
8	8	1
118	118	2
16	16	5
46	47	4
2	2	3
145	145	2
0	5	1
17	17	6
1	5	1
14	17	1
103	103	7
3	15	1
157	157	1
138	139	2
45	45	3
120	120	2
63	80	1
37	37	3
155	155	1
36	37	2
72	73	1
94	116	2
108	108	2
104	130	1
114	114	3
143	151	2
55	55	3
18	20	1
79	79	3
22	37	1
43	155	1
126	127	3
88	88	2
81	82	1
24	25	1
149	149	3
104	104	1
154	155	1
150	150	4
34	34	2
91	99	1
35	113	1
107	108	2
5	119	1
106	106	2
98	98	3
28	28	2
110	110	2
85	86	1
21	48	1
32	32	1
80	96	1
37	38	2
115	152	1
136	137	3
136	136	2
84	147	1
19	20	1
65	66	1
86	87	1
68	68	1
93	94	1
64	64	3
28	45	1
133	133	1
107	107	3
48	48	4
155	156	4
33	96	1
62	153	2
53	55	1
22	36	1
32	78	1
8	9	1
55	88	1
140	141	1
81	81	2
18	19	1
80	81	2
33	77	1
89	90	1
70	153	1
78	81	1
109	109	2
117	118	1
54	88	1
25	38	2
43	151	1
119	120	1
147	147	1
99	100	2
25	39	1
50	51	1
69	69	3
145	146	1
105	105	1
51	85	1
114	126	2
84	84	1
55	72	1
48	92	1
50	111	1
3	17	2
111	111	5
95	96	1
92	126	1
33	33	2
120	151	1
140	157	1
68	69	1
47	47	4
8	18	1
123	124	2
7	11	1
10	39	2
11	11	1
73	73	2
82	141	1
6	6	1
117	122	1
112	123	1
26	27	2
51	71	1
41	110	1
69	73	1
73	87	1
89	93	1
119	121	1
13	14	1
63	97	1
99	128	1
40	112	1
137	138	1
20	22	1
2	4	1
49	51	1
35	145	1
77	78	1
83	127	1
86	86	1
114	122	2
83	84	1
144	144	2
120	143	1
46	46	1
120	122	1
115	123	1
67	68	1
121	121	1
82	93	1
146	153	1
121	151	1
89	89	2
53	53	1
10	10	1
21	49	1
154	157	1
65	76	1
92	93	1
79	80	1
141	157	1
62	71	1
140	148	1
148	149	1
89	91	1
119	142	1
12	16	1
44	69	1
52	52	1
122	148	1
