58	58	5
54	54	2
5	5	2
27	27	2
4	4	5
125	125	2
41	41	2
88	88	2
45	47	2
86	86	2
103	103	1
102	102	2
26	26	3
3	3	1
56	56	4
98	98	4
28	29	1
21	23	1
24	25	1
112	113	1
45	45	1
8	8	4
76	76	2
42	42	2
11	96	1
41	43	1
118	119	1
59	75	1
92	92	2
71	71	1
25	25	5
59	59	2
77	128	1
105	105	2
24	81	4
96	96	6
93	93	3
94	94	3
28	30	1
62	63	2
19	19	2
44	44	1
60	63	1
38	39	2
106	115	2
130	131	2
126	126	2
39	39	3
73	73	2
96	98	1
132	132	2
132	133	1
68	68	2
99	100	2
21	21	1
92	93	1
11	11	1
69	69	2
23	23	2
2	110	1
71	91	1
33	33	3
33	60	1
112	112	4
128	129	1
80	80	1
106	106	1
6	7	1
81	81	2
18	18	2
99	99	3
110	120	2
33	58	1
113	119	1
51	54	1
63	63	3
25	49	1
6	10	1
64	64	2
123	123	2
67	94	1
1	132	1
73	74	2
34	38	1
60	60	2
41	81	1
72	72	3
100	100	1
22	22	3
117	119	1
58	59	2
108	109	1
98	104	1
116	117	2
109	120	1
75	77	1
22	26	2
103	104	1
91	95	1
97	97	3
47	47	2
0	2	1
68	69	1
104	105	1
67	67	1
55	55	1
11	13	1
40	41	1
90	90	1
40	42	1
50	50	2
2	2	1
84	84	3
48	48	3
14	19	1
107	107	2
47	57	1
128	131	1
6	6	2
118	118	1
79	79	2
17	92	1
60	66	1
32	32	1
129	129	3
46	48	1
117	117	2
49	49	2
12	12	1
51	51	1
94	95	2
33	34	1
31	32	1
111	111	2
81	85	2
10	10	1
101	102	1
33	81	1
34	34	1
26	82	1
46	46	1
72	74	2
116	116	1
16	16	3
47	65	2
52	52	2
19	83	1
122	122	1
40	40	1
11	12	1
126	129	1
43	43	1
95	95	2
114	114	1
109	109	1
20	20	2
15	92	1
40	66	1
109	110	1
108	108	1
23	24	1
52	53	1
33	62	1
59	60	1
77	77	1
120	121	1
121	121	2
11	25	1
23	32	1
17	18	1
115	116	1
113	114	1
18	19	1
126	127	2
1	1	1
110	110	1
62	62	1
22	25	1
86	99	1
41	106	1
31	53	1
46	47	1
20	21	2
12	25	1
20	124	1
97	99	1
6	9	1
107	108	1
91	96	1
127	128	2
101	101	1
89	89	1
109	114	1
70	88	1
24	24	1
83	83	1
25	28	1
61	61	1
78	79	1
131	131	1
65	65	1
87	87	1
66	67	1
23	25	1
9	9	1
119	120	1
104	104	1
94	99	1
