139	140	2
51	51	2
36	40	1
3	3	4
103	103	2
134	173	1
172	172	1
8	9	3
102	126	1
170	176	1
76	76	1
146	146	3
103	104	1
147	157	1
91	103	1
102	102	2
132	180	2
72	72	3
143	143	2
104	104	1
166	167	3
22	22	2
12	30	1
133	133	4
73	73	1
170	171	2
99	99	2
26	26	1
156	156	5
52	52	7
91	92	1
37	37	3
95	97	1
173	173	1
0	1	2
92	93	1
62	85	1
115	115	1
85	85	1
90	110	1
88	90	1
102	107	2
79	79	3
25	25	2
84	85	2
40	40	1
169	169	1
151	153	1
98	98	4
174	174	1
93	95	1
57	57	1
40	106	3
151	151	3
129	168	1
39	145	1
118	119	2
39	164	1
103	106	2
76	149	1
32	32	1
64	64	1
131	149	3
107	107	1
20	20	3
91	91	1
163	163	4
158	166	1
45	46	2
55	56	2
142	143	1
6	6	2
167	167	1
30	41	1
142	142	1
145	146	1
153	153	3
89	90	2
94	96	1
88	88	1
83	116	1
16	44	1
123	123	2
36	36	1
19	19	2
11	11	2
171	171	2
45	45	3
126	126	1
155	155	2
143	153	1
102	125	1
124	125	1
122	122	1
113	121	1
176	176	2
54	59	1
28	28	1
166	166	2
113	113	3
58	97	1
60	60	1
109	146	1
97	98	1
116	117	1
51	105	2
161	161	2
130	156	1
29	29	1
15	15	1
16	16	2
110	110	1
72	80	1
16	17	1
61	63	1
38	38	2
168	170	1
137	137	2
111	112	1
116	116	2
142	146	2
84	92	2
174	176	2
39	39	1
2	2	1
149	157	1
7	9	1
141	141	1
52	60	1
86	87	1
143	145	1
135	136	1
150	150	2
54	71	1
65	65	1
85	92	1
144	144	1
96	96	1
172	173	1
14	14	2
12	24	1
98	139	1
13	37	1
44	45	1
91	93	1
178	179	1
106	106	3
30	40	1
143	144	1
8	8	1
164	165	1
114	135	1
146	147	2
60	61	1
155	163	1
13	28	1
8	61	1
175	175	1
90	90	2
131	131	1
13	13	3
61	62	1
24	24	1
50	117	1
102	146	1
161	164	1
10	11	1
28	131	1
56	56	1
1	1	1
12	15	1
36	177	1
62	144	2
58	112	1
66	66	3
95	95	1
54	72	1
83	83	1
132	132	1
97	97	2
149	149	2
88	114	1
78	78	2
138	139	1
39	44	2
77	77	1
87	87	1
84	118	1
124	124	1
136	136	1
12	12	1
139	139	2
78	79	2
149	150	1
88	107	1
10	10	1
18	18	1
98	113	1
94	94	2
22	97	2
101	126	1
168	168	2
5	41	1
51	53	1
120	120	2
0	0	1
59	59	2
67	67	1
160	161	1
105	105	1
72	73	1
22	39	1
140	140	1
90	102	1
5	5	1
80	82	1
147	147	1
112	112	2
97	100	1
169	170	1
171	172	1
86	86	2
1	3	1
161	162	2
70	71	1
54	79	1
71	86	1
145	145	1
128	173	1
117	117	1
33	33	1
52	72	1
51	96	1
29	30	1
126	180	1
50	83	1
165	165	1
128	128	1
10	36	1
7	7	1
9	10	1
55	169	1
31	31	1
31	37	1
101	106	1
103	108	2
158	158	1
119	120	1
77	79	1
121	134	1
92	92	1
111	115	1
86	109	1
154	155	1
58	58	1
101	119	1
72	74	1
162	162	1
152	152	1
2	4	2
