31	67	1
65	76	1
69	88	1
38	38	2
123	123	1
64	64	3
54	110	1
63	105	1
147	147	2
49	50	1
8	8	3
150	150	3
125	125	2
136	136	2
12	12	2
80	80	2
128	128	3
32	32	2
62	96	1
78	78	3
16	16	2
132	133	1
111	111	2
77	77	1
132	132	2
35	35	1
56	56	2
41	41	3
143	143	2
145	145	3
138	138	2
150	151	1
3	4	1
135	135	2
87	87	1
28	28	5
70	135	1
36	74	2
73	74	1
115	118	1
14	14	3
92	139	1
32	88	2
68	69	1
63	63	1
13	22	1
30	30	1
109	109	3
143	147	1
20	21	2
96	97	1
118	118	3
3	24	1
23	28	1
10	10	4
51	51	3
101	116	1
113	113	1
45	70	2
55	55	1
61	62	1
64	71	1
40	40	4
154	154	4
58	58	2
45	55	1
30	49	1
64	87	1
120	141	1
31	31	2
66	66	1
106	106	5
116	116	3
148	148	1
57	57	1
73	73	2
44	50	1
123	125	1
123	128	2
142	142	1
6	6	2
9	36	1
113	139	1
34	80	1
100	102	1
129	129	1
36	53	1
47	47	3
93	121	1
15	15	3
5	5	1
4	4	1
34	68	1
121	127	1
12	36	2
22	22	2
54	66	2
111	112	1
9	80	1
114	118	1
68	74	1
137	137	1
79	79	3
69	69	3
34	35	1
123	124	2
96	130	2
93	94	1
151	151	1
86	88	1
31	65	1
56	71	1
123	134	2
32	82	1
107	107	1
11	20	1
46	46	1
84	85	1
23	128	1
125	132	2
106	118	2
106	108	1
146	146	1
9	9	2
42	42	2
11	11	2
18	20	1
147	148	1
41	42	1
116	130	1
105	105	2
63	73	1
34	85	2
44	45	1
99	107	1
65	65	1
50	51	1
48	51	1
37	38	1
137	147	1
38	117	1
46	74	1
104	104	1
134	134	3
24	24	1
67	69	1
109	110	1
97	98	1
139	139	1
97	97	1
88	88	1
34	83	1
128	131	1
133	133	1
98	98	2
124	128	1
36	36	1
114	138	1
134	137	1
110	110	1
124	150	1
81	81	1
9	29	1
26	26	1
83	83	1
109	153	1
99	131	1
38	120	1
14	38	2
39	49	1
65	73	1
41	78	1
3	3	1
34	34	1
33	33	2
41	63	1
11	27	1
74	148	1
123	138	1
117	117	1
67	94	1
25	25	1
124	131	2
141	142	2
25	75	1
29	117	1
126	127	1
56	76	1
39	39	1
16	19	1
69	72	1
103	103	1
85	85	1
94	94	1
30	31	1
17	20	1
63	95	1
141	145	1
58	62	1
22	30	1
82	82	1
30	35	1
44	44	1
100	154	1
33	35	1
153	154	1
2	2	1
124	127	1
43	43	1
