25	25	3
170	170	2
46	46	4
7	7	1
53	54	2
48	48	2
178	178	3
116	116	1
10	10	4
161	162	1
36	36	1
183	183	2
70	76	1
57	57	1
34	80	1
184	184	1
189	189	2
170	186	1
132	133	4
188	188	2
87	87	2
33	33	5
132	184	1
152	152	1
179	183	2
20	20	2
186	186	2
163	164	1
53	53	3
59	60	2
96	96	4
128	128	2
72	72	2
185	185	2
116	117	1
62	62	1
159	167	1
122	126	1
82	82	1
172	172	1
140	140	3
147	147	2
22	23	1
113	113	1
83	83	3
114	115	2
72	75	1
171	172	1
173	174	1
3	3	3
63	65	2
122	122	4
153	166	1
176	177	2
168	187	1
18	18	1
32	33	1
100	100	1
41	42	1
31	31	2
26	27	1
60	60	1
51	51	4
19	19	1
169	169	4
9	124	1
9	113	1
28	28	3
17	17	1
173	177	3
191	191	2
21	74	1
98	98	1
28	30	4
122	168	1
139	139	1
124	126	1
104	104	1
166	166	2
19	39	2
134	191	1
112	112	1
124	133	1
27	27	1
132	132	1
16	16	1
71	72	1
119	119	2
11	11	2
181	182	3
127	140	3
170	171	1
67	68	2
124	124	4
97	109	1
47	48	2
142	142	1
54	55	1
4	39	1
190	191	2
99	99	1
82	88	1
86	86	1
5	5	1
2	2	1
138	138	2
193	193	4
147	148	1
17	40	1
149	149	1
1	31	2
165	165	2
83	85	1
157	173	1
58	62	1
97	97	2
28	78	1
137	137	3
0	31	1
58	58	1
130	170	1
79	98	1
179	179	1
117	117	1
11	12	2
146	146	3
36	37	1
31	37	1
39	39	3
126	126	1
112	182	1
19	97	1
52	52	2
81	81	3
145	146	1
114	116	1
5	8	1
15	16	2
194	194	1
66	66	1
49	49	1
139	149	1
187	187	1
54	54	2
42	130	1
157	157	1
69	71	1
43	44	1
119	122	1
99	160	1
4	4	3
47	47	2
191	192	1
187	188	2
141	141	2
67	69	2
144	144	1
115	137	1
130	189	1
148	163	1
37	37	2
23	23	1
5	37	1
50	50	1
57	72	1
41	168	1
75	75	1
124	125	2
30	32	1
127	127	1
7	8	1
136	136	1
156	169	1
82	87	1
59	59	2
70	71	1
56	58	1
171	171	1
21	21	3
103	103	2
131	131	1
45	46	1
13	13	1
103	104	1
174	174	1
176	176	2
61	61	1
167	167	1
158	158	1
135	135	1
80	80	2
27	53	1
12	12	2
45	45	1
133	133	1
88	88	1
162	162	1
118	119	1
110	111	1
14	187	1
104	106	1
148	148	1
35	36	1
118	118	1
99	159	1
192	192	1
139	150	1
119	132	1
150	155	1
1	1	2
8	113	1
142	143	1
95	95	1
150	150	1
81	110	1
144	167	1
101	101	2
34	37	1
125	133	1
26	26	1
115	115	2
96	97	1
196	196	1
107	107	1
13	186	1
102	181	1
79	79	1
21	22	1
195	195	1
146	148	1
6	6	1
143	145	1
74	74	1
42	42	1
169	170	1
62	69	1
143	171	1
160	182	1
34	34	1
140	141	1
11	13	1
135	136	1
121	121	1
