185	185	3
85	85	1
129	129	1
136	138	2
19	19	4
29	36	1
176	177	1
122	126	1
126	126	2
14	15	1
65	65	2
41	41	5
5	5	2
73	85	1
26	68	3
2	3	1
130	187	2
50	51	1
94	103	1
40	41	1
86	86	3
143	143	1
116	116	2
115	123	1
113	113	4
83	146	2
93	93	1
5	6	1
191	191	4
63	63	2
192	193	1
36	36	1
155	155	3
21	21	3
93	96	1
23	24	2
109	152	1
49	49	1
125	125	2
14	14	1
94	96	3
114	115	2
122	142	1
42	42	1
194	194	2
76	90	1
178	178	3
16	33	2
166	174	1
37	84	1
183	183	2
136	136	2
30	30	1
152	152	3
29	29	1
184	186	1
133	135	1
127	128	2
48	48	1
96	98	1
136	188	1
141	141	2
34	34	2
115	115	1
17	18	2
10	10	3
94	94	2
95	95	1
170	171	1
177	183	2
11	11	1
168	193	1
193	193	1
114	165	2
124	124	1
97	160	1
23	23	1
64	65	1
16	16	3
152	159	1
3	3	2
9	9	4
140	140	2
154	155	1
190	191	1
123	123	2
76	76	1
3	4	1
148	168	1
144	144	1
153	153	1
78	79	1
195	195	1
6	6	1
51	194	1
104	104	2
32	33	1
20	20	1
128	128	4
133	133	2
132	132	1
40	40	4
25	25	2
81	83	1
55	55	1
151	151	1
165	165	2
62	62	1
124	125	1
110	159	1
45	46	1
59	60	2
33	33	1
58	58	2
196	196	1
189	189	2
182	183	3
88	88	1
107	107	1
122	137	2
18	18	1
68	86	1
192	192	3
119	142	1
104	105	1
27	27	1
164	164	1
78	90	1
87	87	2
134	140	1
47	47	1
122	122	2
15	15	1
39	39	1
38	65	1
29	37	1
57	57	1
64	64	5
183	184	2
37	37	1
26	26	1
113	185	1
7	7	3
102	103	1
12	12	2
20	84	1
155	160	1
82	82	1
110	110	2
184	184	1
118	118	1
172	191	1
26	34	2
72	121	1
129	135	1
98	168	1
150	151	1
38	38	2
169	189	1
79	85	1
101	101	1
6	77	1
71	133	1
44	45	1
145	158	1
128	140	1
19	20	1
68	70	1
35	36	1
188	189	1
41	42	2
25	50	1
186	187	1
145	145	1
44	46	1
32	32	2
60	74	1
171	172	1
102	156	1
109	110	2
160	160	1
4	5	1
65	72	1
106	169	1
74	88	1
109	109	1
16	17	1
54	54	1
114	114	1
155	185	1
43	44	1
17	17	1
182	182	1
162	166	1
77	84	1
68	68	1
75	168	1
24	24	1
146	176	1
60	75	1
167	167	2
55	56	1
99	186	1
67	68	1
161	161	1
188	188	2
112	137	1
166	180	1
111	111	1
142	142	1
156	156	1
114	119	1
119	131	1
120	125	1
131	131	1
44	44	1
162	162	1
19	34	1
32	37	1
0	0	1
177	177	1
97	97	1
137	137	1
164	165	1
105	178	1
157	158	1
127	187	1
67	67	1
41	56	1
14	32	1
139	140	1
53	53	1
82	85	1
105	105	1
186	186	1
