5	113	1
42	79	2
13	13	7
95	95	2
121	122	2
113	113	3
65	66	1
84	85	4
124	125	1
64	64	1
98	98	2
109	109	3
94	94	4
26	77	2
46	50	1
54	54	3
66	66	4
93	94	1
50	50	2
9	9	1
109	110	2
116	116	2
130	130	1
92	92	2
3	3	6
131	131	3
3	4	1
5	5	2
51	51	5
22	23	1
19	19	3
7	7	4
82	86	1
4	4	2
30	30	2
6	6	4
70	131	1
84	86	1
102	103	3
23	23	7
75	75	2
117	117	3
23	24	2
118	118	3
4	7	1
47	47	4
99	100	1
22	28	3
55	56	1
15	15	2
103	103	3
71	71	1
91	91	2
99	99	1
49	49	4
76	76	1
40	89	1
31	31	3
55	55	3
77	77	2
25	26	2
63	63	2
44	53	1
10	10	2
14	14	2
44	45	1
79	80	1
61	61	1
12	12	1
62	70	1
122	122	4
49	64	1
52	52	2
72	72	2
39	39	1
39	40	1
119	119	3
79	79	5
86	86	1
132	132	2
115	115	2
110	110	5
88	88	2
25	25	4
22	22	1
59	61	1
1	1	3
6	123	1
20	42	1
114	114	4
78	81	2
106	106	1
105	105	2
84	84	3
20	21	2
38	38	1
106	110	1
129	129	3
7	8	2
64	69	1
104	104	1
101	103	1
29	29	3
5	30	1
93	93	2
53	54	1
0	0	4
61	62	1
117	119	2
127	127	2
3	115	2
18	23	2
57	57	4
60	62	2
113	133	1
110	111	2
115	116	1
48	48	3
39	49	2
28	29	1
112	112	2
107	107	1
125	125	5
126	126	1
82	83	1
111	111	2
85	85	4
17	18	2
2	2	2
118	119	2
104	107	1
11	44	1
51	52	1
59	59	3
26	26	1
101	130	2
111	112	2
27	70	1
43	44	1
58	58	1
67	93	1
102	106	1
49	51	1
122	123	1
43	45	1
95	105	1
85	86	2
97	97	1
56	56	2
124	124	1
106	107	1
14	15	1
114	118	1
90	98	1
53	53	5
58	122	1
44	44	1
12	50	1
96	96	1
68	68	1
98	99	1
125	126	1
73	84	1
65	65	2
109	131	1
73	73	2
40	40	1
89	126	1
129	130	2
19	34	1
16	16	1
29	94	1
94	95	1
126	127	1
27	27	1
60	60	1
61	91	1
12	13	1
45	47	1
74	74	1
97	100	2
92	93	1
45	45	1
32	70	1
93	110	1
116	117	1
8	8	1
32	32	1
30	33	1
77	93	1
83	83	2
19	22	1
123	124	1
30	31	1
16	32	1
28	28	1
97	98	1
42	42	1
