65	128	2
26	27	1
88	88	2
43	43	2
94	94	6
83	107	1
5	6	1
103	103	2
36	36	2
112	112	4
56	57	2
108	114	2
30	30	3
63	63	2
66	67	2
123	123	3
121	121	1
83	83	1
44	108	1
38	71	1
49	49	4
108	108	1
61	85	1
85	92	2
24	24	4
59	59	4
30	31	1
58	58	3
49	70	2
21	22	2
86	86	4
29	29	4
74	104	1
130	130	1
115	115	5
101	101	4
95	118	1
80	80	2
85	85	2
29	33	1
73	73	1
124	124	5
14	68	1
6	79	1
97	101	1
120	120	1
68	68	3
2	5	2
110	110	4
88	89	2
73	75	1
1	7	2
63	68	1
119	119	2
126	126	3
70	70	1
12	12	3
9	9	1
90	119	2
77	78	1
125	127	2
107	107	2
74	103	1
98	98	5
109	109	2
14	14	4
3	4	1
101	113	2
9	15	1
113	127	1
30	33	1
77	77	3
18	18	3
62	62	2
10	10	4
91	91	1
117	118	1
22	22	2
64	64	1
79	79	2
16	16	3
37	38	1
8	9	2
31	31	2
120	121	1
102	102	2
79	101	1
117	122	1
76	76	2
2	2	1
6	11	1
53	53	2
68	69	2
11	15	1
13	13	3
53	82	1
104	104	2
19	34	1
113	113	1
88	91	1
131	131	1
112	115	1
87	87	2
20	67	1
3	3	1
6	6	1
36	37	1
53	67	1
91	101	1
25	25	4
25	33	1
97	97	1
113	133	1
95	96	1
100	133	2
44	45	1
20	23	1
19	68	1
105	105	1
89	101	1
53	62	1
34	34	2
60	60	3
116	116	2
61	61	3
57	58	3
50	52	1
100	100	2
8	8	2
64	91	1
37	56	1
23	45	2
16	38	1
53	83	1
32	74	1
89	90	2
5	8	1
85	86	2
1	121	2
126	129	1
50	109	1
131	132	3
128	129	2
122	125	1
26	90	1
125	125	2
117	117	1
25	29	2
54	54	1
87	88	1
71	71	1
6	7	1
72	95	1
21	69	1
122	133	1
4	72	2
20	59	1
33	72	1
60	61	2
56	56	3
29	30	1
23	68	1
90	90	1
18	44	2
84	84	2
113	115	1
24	25	1
108	132	3
63	64	2
47	47	2
123	124	2
78	87	1
37	37	2
26	77	1
64	67	1
66	66	1
74	74	1
28	95	1
106	118	1
20	57	1
22	23	1
93	94	1
31	32	1
30	67	1
13	14	1
50	94	1
130	132	1
57	57	1
52	52	2
5	58	1
119	129	1
75	75	1
3	128	1
3	21	1
1	1	3
92	92	1
5	22	1
111	111	1
120	122	2
80	102	1
43	55	1
6	77	1
95	105	1
1	71	1
56	58	1
2	9	1
82	82	1
4	17	1
123	125	1
33	33	1
108	127	1
99	99	1
32	58	1
44	44	2
90	116	1
61	70	1
35	35	1
62	64	1
11	11	1
67	91	1
110	115	1
0	60	1
4	28	1
16	67	1
23	23	1
89	89	1
65	67	1
7	7	1
48	48	1
8	19	1
96	96	1
56	59	1
102	133	1
129	129	3
16	36	1
8	28	1
10	26	1
5	5	1
95	111	1
72	72	1
2	20	1
27	63	1
17	67	1
85	88	1
79	80	1
70	71	1
