141	141	2
36	86	1
32	36	3
69	89	1
129	129	1
17	62	1
60	60	1
127	129	1
66	66	6
35	35	2
97	98	1
92	92	1
94	94	2
128	128	2
91	91	1
97	123	1
76	76	3
105	106	3
23	24	3
106	107	2
95	95	1
22	42	2
58	58	3
110	110	2
5	5	2
120	123	2
59	60	2
71	75	1
135	135	2
58	63	1
110	130	2
29	29	2
102	102	4
130	131	1
72	73	1
53	62	1
109	110	1
27	51	2
31	38	1
55	59	1
79	123	1
113	113	1
78	78	1
79	79	1
132	132	2
81	81	6
90	90	3
30	30	5
126	127	1
82	82	2
114	114	2
102	121	1
123	124	1
100	100	2
27	27	2
37	105	2
116	131	1
55	60	1
14	14	2
75	78	2
136	136	2
134	138	1
70	73	1
137	137	4
17	66	1
42	42	4
64	65	1
22	22	3
74	74	1
8	68	1
24	81	1
39	39	2
70	70	2
75	80	1
50	50	3
49	51	1
31	106	1
124	124	3
56	56	1
53	90	1
87	87	1
85	136	1
61	61	2
131	131	4
37	37	1
127	127	1
32	90	1
111	113	1
1	1	2
127	131	1
107	107	1
105	105	1
37	59	1
50	51	2
9	9	1
78	79	1
99	99	1
85	85	4
98	98	1
68	68	4
63	63	1
4	43	1
67	67	1
96	96	2
130	130	2
117	117	1
118	118	3
57	57	3
124	128	1
123	123	1
116	116	2
68	91	2
143	143	1
59	86	1
23	23	3
99	100	1
142	142	2
80	80	3
52	52	1
104	109	1
62	62	1
90	123	2
73	73	2
125	125	1
75	89	1
138	138	1
133	133	1
83	83	1
61	62	1
108	109	1
32	32	1
23	30	2
13	13	1
8	11	1
49	50	1
108	108	1
49	49	2
39	49	2
12	65	1
134	134	1
0	47	1
79	81	1
146	146	1
25	33	1
17	26	1
19	19	1
31	93	1
17	25	2
4	20	1
28	103	1
124	125	2
9	11	2
115	130	1
142	143	1
49	70	1
121	121	1
38	39	1
122	130	1
69	78	1
97	97	1
75	75	1
17	84	1
48	48	1
55	55	1
12	20	1
88	88	1
36	110	1
57	59	1
34	34	1
36	36	1
63	64	1
65	101	1
19	20	1
127	128	1
26	107	1
70	74	1
35	81	1
93	109	1
86	86	1
93	113	1
77	137	1
