177	177	3
156	173	1
15	15	1
182	182	3
237	237	1
191	191	2
187	187	2
24	25	1
36	44	1
48	51	1
57	57	2
63	78	2
37	38	1
3	3	2
2	2	1
159	214	1
18	18	1
182	183	1
199	229	1
118	118	1
204	214	2
166	167	1
87	87	1
218	247	2
54	54	2
233	233	2
242	248	1
20	30	1
160	179	2
185	185	3
100	100	2
98	99	1
171	191	1
203	203	3
218	239	2
201	201	6
33	33	2
4	157	3
227	227	2
209	210	1
243	243	1
72	72	1
172	172	2
36	36	2
49	116	1
69	70	1
200	200	3
70	211	1
164	164	1
168	196	1
226	245	1
17	17	1
7	41	2
225	247	1
32	36	1
146	146	1
192	248	1
234	234	3
76	76	1
153	167	1
194	194	1
154	154	3
18	30	2
43	43	1
228	228	1
189	189	3
104	104	1
180	180	1
202	207	1
52	52	3
160	208	1
190	215	1
98	105	1
228	231	1
66	72	1
113	113	3
9	19	1
149	175	1
225	225	1
40	40	1
26	27	3
38	38	1
160	160	1
97	101	1
114	114	4
151	151	1
45	45	2
158	192	1
235	235	2
16	16	2
64	65	3
2	5	1
189	190	1
192	195	1
30	31	1
62	106	2
167	167	1
229	229	4
216	231	1
231	232	1
190	190	1
220	220	1
64	64	2
99	102	1
223	223	1
199	236	1
27	27	1
85	94	1
110	116	1
119	119	2
30	30	2
158	178	2
118	172	1
173	195	1
14	14	2
68	70	2
2	48	1
26	26	2
163	164	2
84	84	2
197	198	1
35	35	1
80	118	1
21	38	1
173	173	1
1	2	1
32	154	1
162	162	1
165	165	1
60	103	1
107	109	1
9	9	1
218	219	2
230	239	1
112	114	1
62	62	1
186	187	1
117	212	1
107	113	1
93	93	1
60	60	1
108	108	1
209	209	1
96	97	1
116	119	2
156	156	1
99	105	1
185	237	1
193	209	1
79	108	1
206	206	2
44	45	2
23	110	1
7	68	1
23	31	1
95	98	1
212	212	2
150	200	1
3	17	1
25	25	2
6	46	2
207	207	1
187	189	1
218	233	1
171	186	1
161	161	1
146	185	1
160	161	1
199	200	1
226	226	1
18	29	1
145	160	1
46	46	2
33	34	1
74	74	1
7	34	1
81	81	1
59	64	2
80	86	1
233	244	1
208	208	1
63	63	1
216	216	1
247	247	1
86	86	2
101	221	1
70	70	1
208	209	1
61	116	1
37	37	1
14	15	1
165	174	1
173	174	1
221	221	1
78	86	1
31	31	1
178	178	1
150	150	2
76	77	1
32	43	1
65	77	1
145	145	1
153	191	1
80	80	1
158	158	1
119	173	1
146	230	1
30	37	2
9	16	1
109	110	2
0	1	1
50	210	1
5	5	1
23	23	2
193	239	1
90	116	1
219	219	1
73	83	1
53	54	1
89	89	2
12	12	1
38	39	1
7	7	1
181	181	2
48	68	1
166	193	1
86	88	1
66	66	1
79	79	1
34	35	1
97	98	1
18	31	1
234	248	1
7	43	1
38	45	1
162	180	1
24	33	1
164	165	1
65	65	1
9	32	1
46	66	1
51	51	1
14	70	1
64	66	1
210	215	1
236	236	1
153	153	1
