110	128	1
133	133	2
16	17	3
70	70	2
127	127	3
74	74	1
30	44	2
79	80	2
80	80	4
18	19	1
108	108	2
30	30	2
11	16	2
35	35	2
120	120	1
36	36	1
29	29	1
19	19	2
129	129	2
25	25	7
84	84	2
64	64	5
59	59	4
130	135	1
60	109	2
32	33	2
110	111	2
8	8	2
7	8	1
66	67	2
123	123	2
1	3	1
61	61	1
64	76	2
79	79	2
50	69	1
120	127	1
86	86	3
99	99	2
54	62	1
0	0	1
76	77	1
24	24	1
76	76	3
3	3	3
0	13	2
12	12	1
18	18	2
119	119	1
109	111	1
16	16	2
75	75	1
2	2	1
71	77	1
76	116	2
82	88	1
60	60	1
118	130	1
43	82	1
114	115	1
112	113	1
66	86	1
90	90	3
35	86	1
78	80	1
21	23	1
72	120	1
129	130	1
64	69	1
57	85	1
85	111	2
7	7	1
21	21	3
77	110	1
83	109	2
126	126	1
110	110	2
15	21	1
11	11	1
4	37	1
52	77	1
56	61	1
16	117	1
117	119	1
50	97	2
66	66	1
78	118	1
9	9	3
1	1	3
131	131	1
27	27	2
34	61	1
62	64	3
100	100	1
19	36	1
67	67	2
53	53	1
23	23	4
62	62	2
65	79	1
101	101	3
43	44	2
26	26	3
111	111	1
121	121	2
17	17	2
11	23	1
78	78	2
95	95	1
103	103	1
37	37	3
81	81	2
100	102	1
112	112	2
100	116	1
84	87	1
113	121	1
30	33	1
54	54	1
28	61	1
55	55	1
72	72	1
14	17	1
124	124	3
82	129	2
116	116	2
79	89	1
107	109	2
88	88	1
107	107	1
85	85	1
103	104	1
3	4	1
106	106	3
54	84	2
122	122	1
46	46	1
31	45	1
28	29	1
96	97	2
49	49	3
114	114	2
43	43	1
68	68	1
42	42	1
132	132	1
42	43	1
45	45	1
29	77	1
57	57	1
113	113	2
22	22	1
128	128	2
5	6	2
58	58	1
4	5	1
16	19	1
86	111	1
13	13	2
121	122	1
106	107	2
54	85	1
44	45	1
13	14	1
118	118	1
54	56	1
128	132	1
0	117	1
102	103	1
117	117	1
89	89	1
62	63	1
12	15	1
114	134	1
46	72	1
16	21	1
94	94	1
83	83	1
45	80	1
120	124	1
77	77	1
31	31	1
20	20	1
52	53	1
73	73	1
6	6	1
10	10	1
56	67	1
