119	119	4
77	77	3
182	182	3
47	47	4
84	165	1
70	90	1
165	165	1
108	109	1
45	45	6
96	97	1
106	113	2
139	139	2
58	58	6
42	42	4
160	161	2
41	41	1
29	29	1
106	107	2
121	121	2
8	8	1
136	137	1
38	119	1
118	142	1
8	9	2
123	124	1
57	57	5
19	33	2
22	22	3
157	157	2
42	43	1
108	108	4
168	168	2
48	48	2
162	162	2
60	61	1
55	55	2
35	35	1
55	56	2
186	186	2
3	3	2
112	112	2
62	139	1
11	11	5
184	184	4
164	165	1
155	155	1
10	10	2
102	102	1
41	190	1
153	153	1
59	59	3
138	139	1
170	171	1
56	56	3
150	150	2
12	12	2
135	194	1
88	90	1
107	107	2
116	120	2
78	148	2
27	27	1
135	135	1
104	104	2
83	83	1
2	2	2
29	34	1
123	123	1
135	150	2
41	173	2
99	99	1
53	54	1
185	186	1
78	78	1
41	169	2
125	125	1
116	116	2
37	37	2
32	147	1
124	125	1
137	137	3
49	49	3
94	94	2
166	166	1
185	185	2
126	126	2
110	110	1
37	39	1
118	118	3
133	133	1
160	160	1
73	157	1
69	69	1
66	66	2
34	34	2
28	28	1
135	154	2
131	131	1
101	101	2
177	177	1
182	185	1
164	164	1
143	192	1
144	144	1
109	109	1
5	5	3
154	184	1
96	110	1
9	148	2
197	197	5
122	122	1
134	152	1
74	75	1
88	88	2
142	144	1
82	88	1
22	24	1
72	72	1
16	16	6
4	145	3
113	113	5
38	38	2
9	9	4
96	103	1
51	69	1
117	117	1
24	24	2
180	180	3
102	160	1
93	93	1
19	19	2
143	144	2
129	129	1
115	115	1
105	144	1
85	85	3
55	58	1
15	15	3
173	174	1
46	46	2
63	63	2
65	65	2
156	156	3
98	101	1
33	82	1
31	31	3
55	97	1
17	17	1
192	192	4
53	53	2
169	169	1
128	143	1
51	51	1
40	40	2
188	190	1
148	148	2
176	177	1
189	190	1
142	143	1
183	183	1
36	36	1
94	95	1
196	196	1
140	140	2
166	167	1
88	89	1
186	187	1
110	111	1
86	99	1
116	117	2
6	6	1
161	166	1
159	190	1
28	78	1
50	50	1
17	19	1
143	191	1
149	149	2
82	82	1
67	71	1
181	181	2
9	31	1
193	193	1
167	168	1
28	77	1
152	152	1
138	138	1
28	30	2
3	4	1
87	87	2
18	18	1
32	32	2
86	86	1
124	124	1
45	46	1
111	112	1
111	111	1
3	5	1
26	28	1
3	103	4
30	31	1
30	71	3
62	62	2
42	172	1
97	97	1
128	128	1
60	60	1
7	7	1
116	146	1
10	12	1
30	79	1
170	170	3
6	144	1
1	2	1
110	145	1
9	32	1
102	106	1
41	172	1
5	113	1
96	105	1
127	127	1
81	81	1
43	43	1
16	146	1
112	113	1
49	50	1
120	120	1
28	69	1
161	161	1
167	172	1
78	146	1
14	14	1
139	140	1
110	144	1
74	191	1
57	101	1
