90	90	4
41	41	2
154	154	2
95	95	3
87	87	2
131	131	1
41	42	1
52	56	1
53	54	2
22	22	3
92	92	4
117	132	2
27	52	1
37	37	2
32	47	3
72	72	3
116	116	4
17	38	1
5	5	5
33	35	1
85	85	2
98	98	5
51	51	2
49	50	2
157	157	2
39	49	1
24	25	1
135	135	1
9	14	1
112	112	1
141	142	1
50	81	1
120	120	3
20	21	2
44	45	1
70	70	4
128	134	3
107	107	2
36	37	1
95	96	3
91	94	2
129	129	2
50	50	3
105	105	3
10	34	1
68	68	3
142	143	4
150	150	3
0	64	1
25	31	1
94	94	3
121	145	1
43	43	1
16	16	2
139	139	7
51	52	2
97	97	1
126	126	1
7	8	1
124	124	2
107	157	1
42	42	2
127	127	3
44	44	3
102	102	1
33	33	3
65	83	1
57	88	1
108	113	2
153	157	2
124	125	1
2	29	1
25	25	2
57	57	1
77	87	1
8	8	4
83	83	2
15	17	1
49	53	2
103	104	1
111	148	1
94	122	1
32	38	1
34	40	3
128	128	3
94	95	2
13	15	1
32	32	1
141	141	3
99	99	4
13	13	2
15	46	1
67	67	3
36	36	3
110	122	1
137	137	3
55	55	2
79	79	2
101	101	1
119	120	1
38	38	2
0	3	1
148	149	4
10	71	1
146	147	1
40	40	1
26	27	4
35	35	1
4	61	1
148	148	2
114	123	1
133	133	1
86	86	3
29	29	3
30	31	1
8	9	1
130	130	5
11	19	1
45	45	1
54	55	1
29	48	2
75	156	2
54	54	2
93	141	1
17	29	1
3	3	2
92	128	1
78	78	1
108	108	2
145	145	1
69	95	1
40	41	1
106	106	3
136	136	1
125	126	2
88	88	1
28	39	1
113	117	1
115	115	3
93	131	1
93	93	2
148	155	1
75	75	2
1	1	3
76	76	1
28	55	1
23	47	1
86	107	1
119	119	2
106	107	3
114	121	1
62	62	1
40	62	1
12	14	2
0	0	1
100	101	2
155	155	1
109	109	2
86	91	1
53	53	2
103	119	1
89	91	1
1	2	2
48	48	1
4	12	1
11	11	1
46	66	1
74	75	1
47	47	1
56	68	1
2	2	1
21	21	3
140	140	1
77	77	1
117	117	2
12	12	2
89	142	1
126	155	1
32	33	1
72	128	1
114	114	2
130	133	1
69	69	1
15	15	1
96	96	1
66	67	1
49	49	3
23	23	1
138	138	1
115	118	1
26	26	2
19	21	1
95	136	1
83	89	1
142	142	1
34	34	3
21	35	1
26	77	1
135	142	2
25	78	1
19	19	1
123	123	1
14	14	2
71	71	1
19	20	1
122	123	1
70	73	1
17	22	1
75	106	1
11	21	1
0	1	1
26	55	1
12	25	1
30	47	1
147	147	1
28	43	1
44	101	1
39	40	1
121	121	1
31	31	2
13	18	1
39	39	1
14	156	1
17	18	2
91	91	1
155	156	1
135	138	1
15	36	1
107	126	1
66	91	1
126	154	1
130	148	1
41	43	1
132	132	1
