61	117	2
81	81	2
133	133	1
62	67	1
125	125	2
93	94	1
130	133	3
29	29	2
123	123	5
55	56	1
13	13	3
5	5	1
78	78	5
124	127	1
48	48	5
3	58	2
33	34	1
76	76	2
117	117	6
6	59	1
12	62	1
41	41	7
1	1	2
40	40	5
128	128	5
114	114	2
106	106	3
72	72	3
32	34	2
111	111	4
78	84	1
30	30	4
8	10	1
7	18	1
56	56	3
97	97	5
79	112	2
45	133	1
99	100	1
14	26	1
58	89	4
99	99	1
85	87	3
59	61	1
108	109	1
56	57	1
5	11	3
4	90	2
66	126	1
85	85	2
86	108	1
72	100	1
20	21	1
70	77	1
75	75	1
104	104	4
55	55	4
79	79	5
125	127	1
74	74	3
60	61	1
26	27	1
18	18	4
10	97	1
58	58	3
74	75	1
24	24	3
77	93	1
57	59	1
113	113	6
79	89	2
32	32	3
118	118	2
113	117	1
132	132	3
112	115	1
59	59	3
25	26	4
131	131	4
37	38	2
36	59	1
126	126	2
127	127	2
121	121	3
79	80	3
36	36	4
69	69	3
90	90	2
74	97	1
64	65	1
96	109	1
86	89	1
126	132	1
15	15	2
100	100	3
80	80	2
6	81	1
34	77	1
19	19	5
83	84	1
61	61	2
107	108	2
114	132	3
122	122	1
77	77	3
97	98	2
101	101	3
32	33	3
5	6	4
112	112	7
107	109	2
61	126	2
95	95	6
13	59	2
27	27	2
125	126	2
46	46	5
16	17	2
74	113	1
107	107	3
28	29	1
96	97	1
57	57	3
93	93	2
23	23	1
113	132	2
42	50	1
58	97	2
79	97	1
41	80	1
44	44	2
38	38	2
20	20	5
103	111	1
94	94	2
3	4	1
95	96	3
66	66	3
116	117	1
71	71	2
82	86	1
35	36	2
68	68	3
58	59	3
42	42	3
109	109	2
93	102	1
18	74	1
38	91	1
102	103	1
17	30	1
34	36	1
110	111	2
21	25	1
132	133	1
22	57	1
62	110	1
36	37	1
120	120	1
12	12	1
22	22	2
70	70	2
46	117	1
104	111	1
124	124	2
43	43	2
83	83	1
62	62	3
108	108	2
32	109	1
118	121	1
44	45	3
88	88	1
73	73	2
5	9	1
45	45	2
60	60	3
13	61	1
64	64	1
74	106	1
109	132	1
92	92	3
111	112	1
89	90	1
70	71	1
29	57	1
116	133	1
87	87	1
71	118	1
114	115	2
69	70	2
123	131	2
103	105	1
87	132	1
15	22	1
103	109	1
86	86	1
88	106	1
34	57	1
112	129	1
14	14	3
45	125	1
98	98	1
39	41	1
57	58	1
65	65	4
42	43	1
25	25	2
14	43	1
82	84	1
38	41	1
126	133	1
11	11	2
78	102	1
116	116	2
98	100	1
9	10	1
28	28	2
93	132	1
42	44	1
104	105	2
67	70	1
94	95	1
79	81	1
16	16	2
114	123	1
66	67	1
85	86	1
96	96	1
4	97	1
27	41	1
130	130	1
109	122	1
71	76	1
45	62	1
15	17	1
8	110	1
130	131	1
51	55	1
61	64	1
34	124	1
10	10	1
59	130	1
96	99	1
99	101	2
13	26	1
103	103	1
70	122	1
26	101	1
20	32	1
26	81	1
8	8	1
5	50	1
61	110	1
67	71	1
21	24	1
17	119	1
22	23	1
81	91	1
59	84	1
124	126	1
69	71	1
33	44	1
93	105	1
62	70	1
91	93	1
