15	23	2
22	22	3
86	86	5
17	17	1
214	215	1
170	170	5
227	228	1
22	137	1
143	143	1
75	77	1
79	79	4
30	31	2
47	65	1
26	30	1
208	210	1
79	81	3
217	218	3
122	124	2
189	189	2
217	217	5
44	45	2
238	238	3
220	221	4
193	194	1
41	41	1
1	2	1
65	131	1
63	75	3
123	123	4
116	117	2
187	188	1
111	111	3
230	230	2
6	127	1
75	75	2
26	63	1
28	28	4
42	42	7
7	8	3
208	208	6
215	215	6
98	99	1
178	178	2
113	113	3
73	75	1
24	24	4
33	33	7
206	206	5
159	159	1
114	131	1
103	134	1
19	19	1
116	116	1
72	72	5
105	105	7
196	196	1
31	31	1
12	13	2
201	201	2
127	136	1
153	154	1
181	181	4
81	106	1
34	34	5
225	231	1
63	63	3
207	208	2
122	122	2
191	191	6
160	174	1
98	98	5
175	175	3
5	122	1
222	223	1
8	8	5
140	140	3
224	224	4
83	138	1
159	161	4
20	20	6
126	126	5
61	61	2
119	119	1
11	11	3
98	118	2
112	144	1
97	114	1
21	21	4
12	105	1
32	32	3
33	133	2
173	176	1
36	42	1
46	46	5
29	30	1
183	183	4
70	71	1
65	99	1
5	6	1
205	207	1
241	241	5
222	222	6
200	228	2
97	97	2
169	169	7
145	149	2
120	143	1
68	68	3
133	133	2
172	172	4
81	81	2
154	154	5
221	229	2
49	49	1
76	76	1
150	150	7
12	12	7
132	136	1
18	18	5
156	156	1
158	194	1
209	209	6
134	135	3
96	96	2
23	28	1
71	72	1
85	85	3
34	35	1
53	56	1
231	231	3
70	70	5
138	138	5
167	167	2
198	198	2
25	25	7
30	30	7
108	108	3
14	21	1
74	74	5
54	55	1
6	6	2
5	124	1
36	36	7
225	225	4
188	189	1
220	224	2
142	144	1
227	227	3
187	228	1
180	180	4
109	109	4
63	70	2
232	232	2
184	190	1
128	129	1
115	164	1
32	33	1
201	228	1
95	95	1
104	119	1
134	166	1
102	163	1
29	29	8
8	9	1
66	66	3
160	161	1
68	70	2
50	53	2
103	103	5
122	142	1
15	15	3
200	224	1
233	234	1
67	67	2
7	23	1
159	183	1
230	231	1
191	222	1
99	99	2
219	220	1
121	121	1
3	23	2
44	44	1
140	141	1
101	102	1
155	155	6
146	146	1
62	62	3
33	79	2
2	226	2
224	225	3
161	162	1
147	148	1
104	104	4
190	191	1
182	182	2
76	80	1
59	177	1
210	220	1
52	52	2
78	82	1
182	192	1
186	205	1
33	52	1
85	120	1
119	120	1
42	169	1
161	206	1
14	14	3
148	149	2
188	188	3
88	88	5
158	158	3
120	121	1
100	135	1
23	23	2
65	127	1
5	5	1
235	235	2
221	221	1
168	168	2
101	101	3
207	207	4
234	234	3
118	118	5
183	201	2
183	193	1
179	179	6
212	212	2
48	61	1
209	210	5
202	202	5
216	216	4
166	185	1
17	18	1
233	238	1
30	185	1
42	72	1
169	175	1
63	67	1
144	144	3
190	236	1
80	80	3
18	23	1
9	9	2
124	124	3
173	173	4
71	112	1
89	89	1
237	238	4
18	26	1
8	241	1
128	128	3
59	60	2
159	160	1
82	88	1
6	163	1
223	223	2
65	65	5
20	67	1
68	81	1
171	211	1
33	217	2
178	199	1
178	182	1
205	205	2
80	83	1
169	170	2
134	140	2
2	3	2
228	228	2
54	54	2
157	157	4
135	169	1
48	128	1
174	177	1
112	113	2
157	185	1
6	7	2
145	145	1
148	148	1
20	98	1
115	115	2
179	181	2
237	237	5
129	129	2
68	175	2
174	175	1
61	62	1
179	204	1
136	136	8
110	160	1
59	59	2
77	112	1
66	160	2
33	128	1
13	23	1
124	126	1
37	38	1
12	118	1
10	10	3
197	197	3
146	158	1
78	78	1
217	223	3
126	148	1
153	153	5
26	26	7
231	238	1
105	108	1
29	184	1
52	67	1
176	176	2
41	48	1
77	77	2
129	130	1
106	106	1
201	204	1
100	100	1
13	13	2
180	183	2
171	174	2
53	169	1
115	124	1
60	60	1
225	227	1
220	220	5
56	59	1
137	137	1
18	19	2
55	55	2
24	34	1
185	197	2
48	53	2
215	221	2
108	116	2
14	71	1
53	61	1
64	69	1
136	208	1
161	184	1
49	51	1
20	54	1
12	47	1
81	83	1
20	22	1
16	178	1
226	226	2
176	177	2
20	238	1
16	48	1
175	177	1
66	85	1
136	137	1
68	69	1
211	211	3
24	41	1
55	75	1
57	139	3
77	130	1
163	164	1
125	147	1
24	25	1
7	7	3
42	96	1
84	85	3
1	109	1
27	27	1
192	239	1
15	18	2
169	172	1
18	40	1
6	206	2
192	193	1
84	165	1
102	104	1
0	122	2
127	134	1
106	120	4
16	42	1
141	144	1
2	2	3
65	128	1
56	57	1
120	120	2
53	53	6
171	171	7
172	178	1
185	186	1
75	84	1
37	44	1
44	85	1
64	73	1
239	241	1
35	36	1
184	188	1
203	204	4
160	163	1
166	166	4
149	149	1
120	136	1
213	213	3
48	48	2
72	75	1
56	58	1
17	237	1
62	86	1
58	58	1
201	235	1
231	232	2
114	115	1
142	142	1
0	0	1
82	83	1
120	123	1
169	198	2
236	236	3
22	205	1
155	172	1
39	39	1
187	187	3
105	143	1
218	218	3
7	28	1
8	58	1
82	82	2
174	174	2
31	33	1
180	215	1
8	100	1
96	97	1
136	204	1
222	231	2
219	219	3
38	38	3
27	28	1
81	107	1
233	233	1
1	72	1
45	45	3
164	164	2
199	200	1
13	120	1
134	138	1
173	174	1
163	168	1
188	193	1
174	238	1
165	175	1
239	239	2
25	29	1
24	26	1
65	90	1
16	16	1
127	127	1
170	171	1
135	135	3
6	52	1
212	224	1
43	45	1
0	1	2
2	6	1
197	228	1
128	130	2
56	81	1
169	171	1
218	219	2
229	231	1
169	174	1
146	228	1
41	83	2
15	16	1
31	32	1
139	139	1
47	49	2
51	52	1
125	125	1
204	208	1
210	227	1
79	80	1
13	14	1
72	73	2
61	63	1
117	167	1
210	230	1
33	149	1
195	197	2
133	134	1
133	137	2
225	239	1
160	179	1
120	137	1
121	129	1
215	216	2
50	80	1
86	89	2
99	179	1
67	69	1
207	227	1
26	128	1
35	37	2
39	146	1
203	203	1
117	117	2
60	61	1
200	207	1
117	125	1
18	21	1
10	11	1
47	130	1
143	153	1
125	126	2
204	206	1
65	129	1
9	15	1
229	229	1
58	60	1
100	171	1
160	160	2
103	105	1
202	206	1
194	194	1
204	204	3
81	133	1
139	188	1
159	218	1
117	118	1
221	226	1
184	184	1
55	56	1
153	226	1
193	193	2
213	223	1
188	191	1
139	142	1
149	169	1
56	56	2
41	46	1
159	217	1
64	88	1
141	162	1
240	240	2
3	184	1
86	88	1
153	180	1
242	242	1
50	50	1
31	218	1
111	112	1
149	151	1
17	207	1
199	224	1
228	229	1
137	142	1
29	121	1
35	76	1
53	63	1
156	175	1
101	147	1
62	63	1
105	231	1
177	177	1
187	189	1
161	163	1
180	181	1
34	51	1
145	181	1
6	13	1
163	186	1
20	21	1
193	240	1
189	207	1
168	182	1
134	134	1
219	225	1
191	200	1
151	151	1
207	228	2
171	172	1
99	132	1
26	28	1
3	3	1
7	10	1
128	232	1
16	17	1
149	181	1
97	98	1
19	48	1
186	228	1
234	236	1
212	226	1
105	110	1
46	47	2
46	86	1
67	106	1
62	64	1
141	142	1
135	136	1
122	126	1
107	119	1
210	211	1
126	185	1
210	215	1
6	141	1
163	163	1
179	180	1
103	104	1
55	61	1
73	74	1
164	165	1
44	49	1
31	37	1
68	125	1
232	242	1
69	70	1
180	189	1
47	53	1
100	101	1
115	123	1
131	131	1
200	201	1
135	202	1
113	182	1
34	54	1
1	4	1
25	45	1
194	198	1
79	88	1
158	212	1
84	108	1
217	219	1
64	64	1
128	169	1
67	73	1
170	204	1
208	209	1
109	143	1
194	214	1
112	112	1
237	239	1
173	206	1
192	213	1
102	103	1
157	165	1
154	163	1
216	231	1
66	69	1
220	222	1
4	4	1
140	154	1
239	240	1
20	105	1
102	102	1
114	159	1
141	141	1
31	53	1
120	155	1
210	210	1
11	239	1
122	125	1
48	131	1
129	228	1
39	42	1
43	43	1
