118	135	2
52	52	2
129	129	2
67	70	1
137	137	7
26	34	2
88	88	5
51	52	2
24	111	1
102	102	5
106	106	9
111	112	1
66	66	2
15	15	3
91	91	1
73	73	2
7	7	4
39	39	3
89	89	2
110	110	5
55	56	1
37	37	5
71	74	1
3	5	1
116	116	5
143	149	1
22	23	2
107	107	3
51	51	3
159	159	6
48	49	1
95	95	1
4	4	3
131	161	2
34	35	1
44	45	4
6	78	2
105	105	6
129	131	3
46	46	5
143	143	4
154	154	3
46	52	1
117	119	1
155	155	3
40	53	1
43	43	8
57	58	2
131	131	3
72	75	1
27	27	3
106	108	1
74	74	1
33	35	2
37	52	2
100	101	3
80	80	2
26	27	2
116	157	1
3	4	2
46	47	2
35	83	1
162	162	1
137	139	3
95	165	1
13	13	1
170	170	2
42	42	3
148	148	4
101	101	2
113	116	1
56	56	6
122	122	5
20	20	4
141	142	1
45	50	3
7	11	1
147	148	3
102	155	1
1	2	2
22	90	1
63	92	1
12	41	1
7	69	1
67	154	1
104	117	1
61	62	1
78	86	2
15	16	4
70	71	3
104	104	2
136	136	4
55	55	1
34	34	1
113	113	2
82	82	2
11	11	4
164	165	2
85	86	3
88	108	1
0	0	4
114	143	1
13	35	1
120	120	2
112	118	1
0	1	2
136	137	2
34	108	1
10	10	2
17	40	1
144	144	3
102	129	2
156	156	4
12	12	2
131	135	1
100	164	1
47	63	1
14	16	1
23	23	1
38	38	5
92	92	3
71	155	1
19	69	1
1	109	1
1	3	1
114	145	1
39	40	2
26	26	3
111	114	1
63	104	1
134	134	6
100	100	3
35	116	1
84	84	3
111	111	4
76	76	1
6	9	1
8	8	1
8	10	2
128	128	4
118	118	2
75	79	2
15	24	1
6	7	2
5	5	2
109	109	3
36	37	1
8	9	2
159	160	4
127	127	2
69	69	2
19	19	1
121	121	2
125	125	1
34	157	1
74	76	1
65	65	1
62	62	2
41	45	1
16	19	1
112	112	3
52	99	1
2	2	1
47	47	2
84	106	1
151	151	4
73	75	1
38	39	1
147	147	2
48	48	3
145	148	1
83	97	1
93	102	1
24	47	1
92	93	1
83	86	1
80	81	1
135	159	1
86	87	1
3	3	4
12	18	2
132	141	1
63	84	1
88	152	1
89	90	3
35	35	5
52	53	5
53	53	5
5	9	1
47	122	1
62	87	1
114	128	1
8	12	1
4	5	2
139	139	4
87	100	1
14	15	2
160	160	4
83	122	1
86	86	3
50	58	1
69	93	1
34	38	2
2	3	1
92	128	2
124	125	1
18	18	3
130	157	1
16	16	4
145	145	3
123	125	4
99	99	2
141	141	4
94	118	1
122	146	1
25	25	2
157	170	2
27	28	1
133	133	3
22	22	4
35	49	1
124	124	1
36	36	5
122	141	1
16	17	2
103	103	1
108	110	1
144	157	1
70	70	2
47	54	1
120	121	2
24	117	1
49	49	1
13	87	2
114	114	4
0	41	1
14	14	2
34	42	1
158	158	2
123	128	2
58	72	1
24	25	2
130	135	1
7	13	1
89	97	1
139	141	1
134	135	4
144	150	2
157	157	1
71	71	4
64	64	1
102	104	1
72	72	4
132	132	2
6	38	1
165	166	1
71	113	1
72	81	2
25	53	1
169	169	2
55	130	1
17	17	2
10	28	1
58	62	1
67	152	1
16	24	1
53	56	1
149	149	1
138	159	1
85	90	1
101	133	1
131	149	1
148	149	1
40	40	7
7	8	1
34	36	1
38	41	1
165	165	2
24	96	1
13	15	1
112	120	1
140	140	2
1	1	3
63	71	1
79	101	1
90	93	1
67	67	2
169	170	2
7	15	1
41	41	3
21	21	2
150	150	2
66	85	1
162	166	1
68	68	3
152	152	1
87	88	1
136	158	1
150	166	1
87	90	2
99	100	2
55	58	1
84	97	1
57	57	2
122	128	1
6	6	3
123	130	1
163	163	1
104	116	1
135	135	1
157	158	1
24	24	3
45	45	1
46	48	1
146	146	2
18	34	1
28	28	1
44	44	2
42	158	1
62	67	1
139	160	1
70	96	1
72	83	1
166	169	1
165	169	1
164	164	1
46	127	2
101	147	1
166	166	2
102	170	1
142	168	1
12	13	1
82	104	1
13	36	1
105	170	1
119	120	2
69	70	1
119	119	3
153	153	1
74	105	1
125	146	1
118	120	2
87	87	2
10	12	1
25	74	1
155	168	1
6	12	1
61	93	1
54	123	1
45	46	1
99	122	1
97	97	1
153	161	1
79	96	1
158	159	1
120	137	1
9	19	1
143	144	1
144	145	1
98	98	1
74	167	1
23	55	1
145	150	1
62	63	1
96	98	1
123	123	1
96	97	1
166	167	1
66	69	1
136	141	1
85	85	1
126	126	1
160	162	1
84	132	1
90	90	2
113	114	1
117	117	2
124	151	1
84	85	1
79	79	1
21	34	1
75	75	1
66	67	1
21	22	1
5	6	1
9	9	1
109	142	1
9	118	1
159	167	1
134	141	1
91	92	1
0	9	1
78	91	1
74	94	1
162	165	1
49	158	1
114	118	1
19	22	1
157	165	1
78	80	1
33	34	1
40	45	1
74	75	1
142	142	1
149	152	1
105	159	1
167	167	1
122	130	1
38	168	2
6	16	1
117	120	1
114	116	1
10	20	1
69	82	1
68	147	1
92	101	1
161	161	1
132	136	1
151	152	1
35	43	1
65	71	1
152	153	1
33	40	1
0	156	1
56	58	1
46	149	1
