185	185	2
36	36	7
174	174	2
86	86	2
127	127	2
82	82	4
192	192	1
153	154	2
84	84	1
157	158	7
194	194	10
16	18	1
30	31	3
45	55	1
103	104	2
71	72	2
128	129	1
95	95	5
144	147	2
184	185	2
175	175	2
22	54	1
108	108	6
32	36	2
32	33	2
111	111	2
9	9	6
149	149	3
112	112	5
29	29	1
57	57	5
144	144	2
38	39	2
155	164	2
196	196	3
89	89	4
143	143	1
113	113	2
6	6	2
163	163	1
87	88	2
35	182	1
1	2	5
110	117	1
62	63	4
0	0	2
78	78	5
163	166	1
30	30	3
167	168	3
54	55	2
54	54	9
55	55	2
10	10	4
183	184	2
100	101	4
172	172	3
85	86	2
170	170	3
180	180	6
19	19	3
70	76	1
53	56	1
161	180	1
80	80	2
137	137	1
99	99	7
125	125	3
85	85	1
103	103	3
128	128	1
185	187	1
101	103	2
174	176	3
34	39	1
181	181	3
7	180	1
187	188	3
195	197	1
109	110	1
137	138	2
59	110	2
114	115	3
110	110	3
7	7	3
115	115	4
173	173	4
62	147	2
24	24	1
187	187	2
73	73	5
104	104	2
190	191	2
28	31	1
22	67	2
155	155	2
74	74	4
87	87	5
131	189	1
32	32	4
59	61	1
133	135	2
145	145	3
71	71	5
25	25	3
105	105	1
22	60	1
67	67	4
149	151	1
161	161	3
191	191	3
118	119	1
57	58	4
72	72	2
175	177	2
184	184	11
120	120	1
141	141	2
64	65	2
71	86	1
53	53	3
76	76	3
136	136	1
166	166	2
14	14	5
68	68	2
86	88	1
182	184	1
11	133	1
101	101	4
129	129	3
24	30	2
160	160	5
15	40	1
18	18	4
27	76	2
129	130	2
0	22	1
119	180	1
5	37	1
74	75	1
22	65	1
164	164	1
60	60	6
78	84	1
182	182	1
39	39	4
45	64	2
121	121	4
195	195	2
59	60	3
9	171	1
102	104	1
139	194	2
194	195	2
15	23	3
150	150	1
71	74	1
2	2	4
124	124	3
29	30	2
140	140	1
84	85	1
104	145	1
147	154	2
20	20	3
188	188	5
157	159	1
152	152	2
44	46	1
102	102	3
113	124	1
131	131	5
165	167	1
39	40	2
179	179	3
13	41	1
3	3	5
38	38	4
159	160	1
165	166	1
5	6	4
13	13	3
120	121	1
117	130	1
16	16	5
51	51	2
41	41	1
122	122	1
93	93	1
157	157	3
40	40	2
158	169	1
178	179	1
176	177	2
105	106	2
139	139	4
18	27	2
64	74	1
29	80	1
77	77	1
151	152	2
142	185	1
59	59	2
176	176	2
77	78	1
151	151	1
148	148	3
28	75	1
73	76	1
73	74	1
76	80	2
44	44	2
31	31	4
186	186	5
17	142	1
193	193	3
176	179	1
177	177	3
15	15	2
70	70	3
35	35	2
34	34	3
114	114	2
79	80	1
26	27	2
25	32	1
46	46	3
42	127	1
131	196	1
118	118	3
158	158	1
42	54	1
72	73	1
85	89	1
99	102	3
152	153	1
24	26	1
0	30	1
83	100	1
39	44	1
156	156	2
16	20	1
23	56	1
4	4	2
117	117	3
22	23	2
173	174	4
196	197	1
37	38	3
17	17	2
71	73	1
134	134	4
86	87	1
55	61	1
132	132	2
135	136	1
170	172	1
55	63	1
66	69	1
69	69	1
61	132	1
135	138	1
112	144	2
133	168	1
130	130	3
65	65	2
108	113	1
88	89	1
76	77	1
81	81	4
142	142	1
172	176	2
189	189	3
26	26	1
167	167	1
5	8	2
25	26	1
1	1	5
158	159	2
21	21	1
61	61	2
139	151	1
100	100	2
30	36	1
28	28	2
22	24	1
183	183	2
156	170	1
112	119	2
37	37	4
23	57	1
173	175	2
107	107	1
116	116	1
47	47	3
5	5	1
3	4	1
167	177	1
186	187	1
106	106	2
23	23	3
52	52	2
168	168	3
27	27	2
94	94	7
12	13	2
96	98	2
29	66	2
33	39	1
163	164	2
142	143	2
151	175	1
119	119	5
5	7	1
0	8	1
126	126	1
169	169	1
180	181	1
48	193	1
109	109	3
161	163	1
58	58	4
153	169	1
97	97	2
179	180	1
182	183	1
192	193	1
197	197	2
174	180	1
43	44	1
149	152	1
100	102	2
21	22	1
94	95	1
111	185	1
123	132	1
130	131	2
170	171	1
6	7	2
189	190	1
61	107	2
68	76	1
190	192	2
134	193	1
16	140	1
188	192	1
1	179	1
134	159	1
104	108	1
8	9	1
85	100	1
169	170	2
195	196	1
174	175	1
44	45	1
2	3	2
149	150	1
154	155	1
25	27	1
141	142	1
48	48	1
189	191	1
121	179	1
58	133	1
159	166	1
19	180	1
50	50	1
171	171	1
98	98	2
20	67	1
100	107	1
69	72	2
119	120	2
126	127	1
28	104	1
133	133	1
179	181	1
171	172	1
131	133	1
65	70	2
64	64	1
155	173	3
130	137	1
69	196	1
28	33	1
113	118	1
187	193	2
13	14	2
1	6	1
47	48	1
70	71	1
135	190	2
135	159	1
70	104	1
72	143	1
107	118	1
167	180	1
33	66	1
12	12	2
33	37	1
23	67	1
53	57	1
104	105	1
168	179	1
131	132	1
150	151	1
42	43	2
166	167	1
79	79	3
119	121	1
121	149	1
32	182	1
86	95	1
138	138	1
66	66	2
60	62	1
188	189	1
153	153	1
55	58	1
80	81	1
116	117	1
118	164	1
10	46	1
75	75	1
135	193	1
135	135	1
62	62	1
102	105	1
2	181	1
37	100	1
34	35	1
109	179	1
106	107	1
139	140	1
31	37	1
17	105	1
88	88	1
10	11	1
54	56	2
133	138	1
22	34	1
19	144	1
67	68	1
167	169	1
128	138	1
45	120	1
145	181	1
168	170	1
4	5	1
155	156	1
99	100	1
64	67	1
148	154	1
19	20	1
157	166	1
61	62	1
143	171	1
152	172	1
190	190	1
33	48	1
152	171	1
