168	168	1
146	146	2
144	145	1
137	137	2
73	73	3
88	88	2
55	153	3
175	175	2
188	190	2
101	104	2
42	42	1
55	82	1
12	12	3
82	82	2
22	22	2
59	59	3
166	166	1
119	119	1
57	57	1
140	140	1
84	84	2
90	135	1
27	36	1
13	21	1
167	167	3
40	40	3
125	189	1
29	29	2
128	129	5
10	14	1
159	159	1
105	105	2
100	100	2
172	173	1
186	186	4
48	48	2
83	84	1
67	67	1
179	179	1
169	169	2
152	152	2
95	96	1
13	44	1
116	116	3
46	47	2
125	126	1
12	22	2
25	113	2
22	23	1
24	25	1
93	135	2
148	177	1
53	64	1
66	67	2
85	112	1
114	114	2
8	8	1
18	19	3
188	189	2
141	148	2
118	120	1
31	32	1
149	149	1
23	23	1
127	134	1
44	45	1
84	111	1
130	130	2
20	20	1
32	32	1
12	23	1
139	139	1
27	115	2
46	104	3
96	98	1
182	182	1
63	64	1
110	110	2
31	31	1
180	180	1
125	148	1
65	65	3
184	185	1
63	63	1
156	156	1
164	177	1
9	10	1
53	185	1
108	135	2
148	148	3
162	163	1
151	180	2
185	185	1
24	24	3
78	78	3
64	68	1
96	96	1
113	113	2
36	37	1
14	55	1
79	79	3
98	99	1
109	123	1
123	154	1
72	101	1
35	42	1
64	65	2
101	102	1
64	86	1
141	141	3
49	109	1
109	112	1
25	40	1
138	150	1
90	168	1
164	164	3
15	15	2
40	102	1
56	57	1
68	70	1
33	75	1
56	56	5
41	42	1
45	45	4
103	118	1
154	154	1
182	183	1
36	72	1
7	184	1
81	81	3
47	48	1
174	174	1
94	130	1
30	30	2
146	182	1
94	171	1
104	104	3
40	41	1
93	93	1
76	77	1
173	174	1
3	3	1
26	26	1
173	173	2
2	2	2
59	60	1
128	128	3
58	66	1
108	108	1
168	176	1
72	73	2
73	127	1
132	132	1
109	109	1
164	168	1
169	170	2
29	110	1
176	176	1
144	144	1
160	160	1
94	94	3
85	117	1
162	162	1
43	43	1
163	163	1
27	27	1
112	167	2
116	162	1
74	86	1
81	100	1
3	4	1
134	162	1
30	32	1
77	77	1
154	155	1
128	134	1
109	124	1
177	181	1
38	38	1
95	185	1
135	160	1
100	101	1
115	126	1
129	186	1
81	91	1
124	125	1
68	69	1
111	124	1
144	148	1
34	35	1
68	68	2
83	83	1
165	165	1
189	190	1
102	103	1
70	154	1
116	171	1
66	180	1
155	181	1
60	60	1
75	76	1
47	174	1
7	7	1
168	169	1
28	28	1
138	138	1
12	59	1
123	123	1
11	11	1
98	98	1
26	42	1
62	62	1
127	127	1
64	64	1
170	171	1
43	44	1
45	52	1
107	108	1
124	124	1
187	187	1
21	47	1
