69	77	1
76	76	3
84	84	1
142	142	3
11	43	1
10	11	1
78	133	1
108	108	2
107	112	1
110	120	1
109	112	2
124	124	1
80	90	2
129	129	2
1	1	2
107	107	2
41	41	1
27	27	4
87	92	1
65	65	1
14	25	1
58	127	2
130	133	3
13	32	2
13	14	1
107	111	1
79	80	1
74	74	2
15	39	1
10	10	2
90	90	4
38	54	1
3	3	2
69	69	5
69	111	2
61	61	3
82	83	1
143	143	2
95	95	2
110	110	1
35	51	2
18	19	2
104	104	2
73	73	3
133	134	3
65	96	1
11	11	4
5	24	2
99	141	1
117	119	1
53	117	1
141	141	4
9	9	2
98	98	1
38	68	1
72	112	1
77	133	1
100	102	2
22	22	2
67	68	1
5	6	2
96	116	3
52	52	1
53	53	1
55	62	1
104	116	1
128	128	1
19	19	1
96	96	2
48	66	3
16	16	2
78	78	1
40	41	2
126	126	7
29	30	1
92	92	2
130	131	1
91	91	3
132	135	1
86	95	2
112	112	3
109	120	1
89	122	1
49	68	2
37	37	2
29	32	1
101	101	2
127	127	2
4	14	1
23	23	3
0	0	2
123	123	5
20	21	1
39	41	1
9	22	1
15	48	3
79	79	3
78	87	1
40	40	1
135	139	1
30	30	4
56	56	1
38	38	2
25	25	2
34	35	1
5	14	1
119	119	2
2	2	2
127	129	1
29	132	1
34	36	2
16	17	2
80	80	2
29	29	2
73	114	1
117	117	3
134	134	1
99	101	1
62	62	2
31	31	1
97	124	1
99	130	1
24	84	1
37	42	1
33	34	1
83	83	3
54	54	2
103	133	1
36	39	1
114	114	1
115	116	1
9	10	2
135	135	1
51	61	1
121	121	1
69	72	1
105	105	1
19	35	1
126	127	1
4	19	1
28	28	1
102	104	1
136	136	1
146	146	1
16	37	1
39	42	1
138	138	1
87	87	2
8	19	1
109	111	3
132	132	1
103	103	2
125	141	1
33	33	2
71	74	1
26	27	1
95	134	1
109	137	1
118	118	1
106	108	1
40	56	1
101	102	1
77	77	1
77	111	1
127	128	1
49	49	1
94	94	2
19	26	2
8	9	1
34	57	1
50	51	2
53	131	1
133	141	1
31	36	1
99	124	1
128	129	1
123	125	1
40	68	1
32	32	3
63	63	2
1	9	1
74	135	1
81	81	1
51	51	1
132	139	1
136	137	1
73	85	1
144	144	2
79	82	1
73	82	1
35	49	1
91	112	1
73	74	1
35	35	3
58	61	1
26	42	2
3	14	1
99	99	1
86	93	1
50	50	1
80	84	1
5	5	1
36	37	1
23	31	1
47	47	1
60	60	1
8	25	1
50	69	1
72	72	1
120	134	1
115	118	1
55	57	1
80	95	1
34	34	1
14	34	1
98	99	1
13	13	1
39	40	1
