27	27	4
107	114	2
50	50	4
71	72	1
103	103	3
74	74	5
133	141	2
34	34	1
42	112	1
98	138	1
136	136	6
4	5	1
29	48	1
59	103	2
55	55	3
84	85	2
51	51	4
70	70	2
69	69	1
92	97	1
78	78	1
74	83	1
93	111	1
108	108	2
106	111	1
75	75	4
125	125	5
24	24	2
92	92	4
72	72	2
107	107	3
61	80	1
15	15	3
132	134	1
93	93	3
84	122	2
112	112	2
65	127	1
0	51	1
104	110	1
128	129	3
17	83	3
125	127	1
32	32	1
137	137	3
10	64	1
22	30	2
33	34	2
53	53	2
84	84	1
68	68	1
84	108	2
21	21	4
20	20	3
18	19	1
9	9	3
103	104	1
131	132	1
92	94	1
91	91	1
105	105	2
98	139	1
11	11	2
2	2	1
136	140	2
42	42	2
140	143	1
36	36	4
120	123	1
30	30	3
62	62	1
56	82	1
56	113	2
3	3	2
71	73	1
30	31	2
88	89	4
106	106	3
37	37	1
109	109	1
132	132	1
35	39	2
0	47	1
37	38	1
74	90	2
128	128	3
29	29	3
17	109	1
57	58	1
61	95	2
25	25	1
99	101	1
40	41	2
22	22	5
95	95	1
144	144	2
16	139	1
145	145	6
57	66	1
53	54	1
129	129	2
62	64	1
58	58	1
35	36	1
113	113	1
39	39	1
13	13	2
11	23	3
1	3	2
81	81	2
54	54	4
63	88	1
9	10	2
64	64	4
40	40	1
53	106	1
32	33	2
118	121	1
101	102	1
13	34	2
66	66	2
38	56	1
117	117	1
97	98	1
0	1	2
136	139	1
28	28	3
104	105	1
41	41	3
70	142	2
10	42	1
118	120	2
72	73	1
43	47	1
13	14	1
58	80	1
96	96	2
112	120	1
130	130	3
98	98	1
9	19	1
66	67	1
49	85	2
16	84	2
31	31	1
89	89	2
141	141	5
136	137	1
5	6	1
133	136	2
136	143	1
109	111	3
133	133	1
116	118	1
115	118	1
78	80	1
107	112	1
69	72	1
67	130	1
88	88	6
97	127	1
115	115	2
16	16	2
119	119	1
67	67	2
133	134	1
65	65	4
101	101	1
8	8	1
89	138	1
53	105	1
73	87	1
140	140	2
63	131	2
52	52	1
3	51	2
53	86	1
122	122	1
71	71	4
18	18	3
110	113	1
25	26	1
35	35	1
27	29	1
51	89	1
139	139	3
63	63	1
97	125	1
3	47	2
57	57	1
125	129	1
146	146	1
58	98	1
8	12	1
78	117	1
106	109	1
58	128	1
137	138	1
60	60	1
85	87	1
125	142	1
26	26	3
59	61	1
59	60	1
61	61	1
76	76	2
124	125	3
34	35	1
114	114	1
81	114	1
59	90	1
76	105	1
47	118	1
15	36	1
135	135	1
1	50	1
17	17	1
97	97	1
62	63	1
74	84	1
19	19	1
55	56	1
38	38	1
1	65	1
91	120	1
101	103	1
70	93	1
41	119	1
121	123	1
4	4	1
57	98	2
56	56	1
85	117	1
145	146	1
63	86	1
29	30	1
62	134	1
85	85	1
37	126	1
89	112	1
48	49	1
14	14	1
10	10	1
76	87	1
