116	116	8
56	64	1
82	82	4
149	149	1
89	89	4
62	63	1
56	56	1
150	150	5
2	3	1
6	7	1
136	137	1
78	85	2
90	90	1
159	159	3
35	35	3
6	6	3
81	82	1
158	158	7
84	152	1
127	134	1
56	57	1
54	54	2
12	44	1
165	168	1
74	75	1
111	111	5
15	15	1
143	150	1
36	150	1
129	129	2
27	27	5
8	10	1
118	118	2
155	155	2
68	68	1
7	7	2
101	101	1
124	124	3
53	53	1
42	42	3
126	126	2
152	154	2
37	38	1
10	10	1
132	132	3
162	163	2
41	41	4
167	167	2
74	74	1
17	17	1
155	156	4
87	87	2
43	73	2
48	48	1
51	77	1
0	1	1
5	5	7
18	19	2
154	154	2
2	42	1
11	12	4
149	150	1
18	46	1
58	58	2
55	55	2
84	84	1
16	20	1
38	40	1
99	99	2
100	141	1
106	106	1
162	166	1
14	15	2
56	104	1
48	50	1
135	135	2
4	4	4
150	151	1
86	86	2
79	79	2
37	42	1
39	39	3
16	16	3
0	0	2
8	8	1
163	166	2
96	98	1
131	131	2
40	40	1
69	70	2
8	87	1
144	144	1
49	70	1
89	90	1
161	162	3
36	36	3
25	25	3
162	165	1
153	153	3
62	67	1
131	139	2
12	16	1
156	156	2
3	3	3
39	151	1
24	24	3
138	138	1
122	123	1
53	54	2
37	37	3
49	51	1
123	123	1
96	100	1
14	25	1
14	14	2
144	145	2
27	45	2
110	110	2
107	107	2
164	164	1
21	22	1
24	25	1
151	153	1
156	169	1
159	160	2
73	73	1
123	124	1
142	142	2
43	43	4
122	122	1
12	12	2
85	87	1
162	162	1
147	148	1
140	141	2
63	64	3
143	143	5
12	13	1
161	161	2
157	157	1
38	38	1
20	20	1
129	130	1
2	2	1
76	76	1
113	113	2
43	44	1
109	109	3
34	34	1
137	137	1
77	77	1
98	98	1
102	103	1
76	77	1
109	110	2
47	73	1
57	57	2
139	139	2
52	73	1
148	162	1
90	91	1
141	142	1
0	2	2
1	1	2
128	128	1
2	26	1
123	133	1
152	152	1
94	94	3
120	124	1
168	169	1
112	112	1
169	169	1
65	65	1
92	92	2
117	117	1
139	142	1
22	23	1
73	89	1
70	88	1
50	51	1
73	132	1
110	111	1
96	96	1
72	81	1
58	66	1
41	143	1
78	82	1
70	70	1
125	126	1
109	151	1
19	19	1
106	110	1
5	35	1
134	137	1
9	20	1
