59	62	3
246	246	2
160	221	2
230	230	6
213	213	2
93	100	1
172	172	3
198	198	4
76	76	1
22	68	1
176	176	3
43	43	3
212	233	1
113	114	1
219	219	10
98	98	3
177	233	1
15	15	6
80	80	4
241	241	3
249	249	1
23	23	4
77	81	1
29	29	4
65	65	5
186	186	2
9	9	2
153	210	2
201	201	2
91	91	3
68	70	1
25	26	2
30	30	4
9	27	1
79	79	2
221	221	2
171	171	3
22	22	1
183	183	9
193	193	7
237	237	4
89	198	2
199	200	3
25	25	2
68	68	1
100	101	2
73	82	2
41	41	2
199	199	2
163	164	1
82	82	3
235	235	4
94	94	1
176	178	1
216	216	1
48	69	1
192	192	6
113	113	4
167	167	5
6	6	4
232	233	2
179	181	1
107	107	1
180	180	5
49	69	1
174	177	2
44	44	1
63	63	3
174	174	2
169	169	2
181	184	1
205	235	1
243	244	3
38	38	6
53	53	5
89	89	3
162	164	2
50	69	1
198	199	1
67	67	5
31	40	1
192	225	1
79	85	1
54	54	4
242	242	3
72	81	1
70	70	5
224	225	1
176	177	1
212	235	1
244	244	2
184	184	3
13	14	2
8	8	1
165	165	2
209	209	2
195	195	3
35	35	4
28	28	3
170	170	4
157	157	2
221	222	1
234	234	2
32	32	4
53	70	1
88	99	2
233	233	2
177	177	4
203	203	3
57	57	2
11	11	2
36	36	3
116	117	1
200	200	2
58	58	2
183	220	1
105	105	1
164	164	1
59	59	4
168	168	1
24	24	4
75	75	1
203	204	1
226	226	1
116	116	2
110	110	5
190	190	1
78	78	3
75	77	1
228	228	2
10	11	1
103	103	5
167	213	2
204	204	2
33	33	3
47	71	1
69	94	1
32	37	1
223	223	4
90	90	3
164	197	1
211	211	2
225	245	1
50	243	2
92	92	2
201	203	2
245	245	3
7	7	2
52	52	3
90	102	2
83	83	1
46	46	3
97	97	3
117	117	4
45	45	6
77	77	2
108	108	1
205	205	1
202	235	1
166	166	1
2	4	1
30	31	1
113	115	1
66	66	3
243	243	2
197	197	1
113	116	1
224	232	1
178	178	4
152	155	1
42	43	1
166	196	1
120	120	1
42	42	3
37	37	8
220	220	3
60	60	2
104	105	1
221	223	1
100	100	2
87	92	1
72	105	1
64	86	1
86	214	1
92	115	1
67	91	1
21	21	2
147	189	1
55	55	1
61	62	1
39	39	3
239	239	3
217	217	2
54	95	1
227	227	4
115	115	3
14	17	1
104	104	1
170	229	1
202	211	2
162	162	3
152	153	1
169	178	1
213	220	1
9	29	1
174	184	1
111	245	1
14	14	4
179	179	2
152	152	2
169	190	1
174	175	1
93	93	1
161	162	2
12	12	3
19	19	5
15	72	1
173	173	2
240	246	2
5	5	1
151	209	1
180	182	1
189	189	3
30	33	2
153	153	5
85	97	2
210	230	2
233	234	1
181	181	3
44	210	1
145	233	1
17	17	3
156	156	1
92	106	1
236	236	6
10	10	2
92	107	1
200	201	1
26	26	2
222	222	2
65	69	1
171	175	2
83	84	1
4	4	1
71	108	1
71	77	1
62	186	1
168	169	2
116	118	1
41	42	1
89	224	1
65	66	1
14	74	1
6	20	1
186	216	1
17	203	1
34	38	1
96	96	1
197	217	3
117	246	1
64	87	1
211	247	1
16	16	4
10	29	1
24	94	1
159	159	1
68	91	1
57	64	2
59	93	1
190	196	1
118	118	4
84	84	1
154	154	3
189	190	1
152	223	1
175	183	1
172	173	4
8	21	3
109	109	1
34	34	4
207	207	1
98	200	1
77	80	1
150	150	3
191	242	1
201	204	1
40	40	1
27	39	1
11	29	1
160	160	1
46	53	1
157	236	2
198	209	1
163	186	1
147	230	1
119	119	3
51	51	1
117	225	1
180	211	2
73	83	1
53	54	1
163	163	1
101	101	3
56	56	3
3	3	1
98	100	1
112	176	1
20	32	1
226	227	1
202	210	1
106	106	1
74	118	1
66	91	1
217	225	1
112	112	2
27	27	1
35	36	1
58	61	1
34	35	1
94	101	1
192	196	1
48	48	1
29	44	2
100	102	1
31	31	1
174	199	2
172	211	1
87	87	1
156	212	1
70	73	1
63	67	1
73	74	3
102	102	4
51	101	1
76	120	1
196	196	1
240	240	1
96	144	1
229	230	1
156	157	1
210	210	1
163	165	1
86	86	1
38	39	1
145	145	2
2	2	2
194	195	1
231	231	2
61	112	1
52	207	1
232	232	1
96	99	1
213	214	1
44	211	1
220	221	1
4	5	1
47	49	1
50	50	1
88	88	1
96	104	1
158	158	1
73	79	1
237	238	1
26	44	1
205	206	1
57	69	1
233	235	1
7	154	1
215	215	1
31	32	1
52	53	1
95	99	1
187	187	1
160	223	1
214	214	1
188	189	1
212	212	1
60	61	1
73	105	1
76	77	1
76	90	1
8	27	1
72	104	1
85	85	1
81	85	1
99	99	1
87	95	1
114	114	1
246	247	1
93	94	1
159	160	1
184	228	1
72	72	1
74	87	1
18	203	1
191	195	1
52	209	1
211	212	1
59	60	1
18	18	1
195	232	1
208	208	1
147	147	1
51	109	1
202	202	2
218	230	1
46	55	1
207	226	1
237	240	1
85	86	1
37	38	1
57	58	1
166	176	1
158	238	1
74	88	1
64	64	1
71	71	1
108	175	1
14	37	1
190	193	1
71	85	1
152	211	1
77	86	1
27	151	1
