68	68	7
211	211	4
27	27	3
111	111	5
192	192	1
3	3	2
192	193	1
66	66	2
15	15	2
96	97	2
1	38	2
10	225	2
181	181	3
102	102	1
153	153	4
28	28	3
155	155	5
0	0	2
191	192	2
31	31	2
48	49	1
49	49	1
150	150	2
66	82	1
53	53	4
194	195	2
34	34	4
182	184	1
33	33	4
179	179	3
220	220	5
70	119	1
26	26	7
110	110	5
35	35	3
238	238	1
118	119	3
65	65	5
116	117	1
162	162	3
4	5	1
2	2	1
7	7	2
36	36	1
16	16	2
67	77	1
103	103	2
117	117	3
104	106	1
224	224	2
8	8	4
160	167	1
106	107	1
87	108	1
202	202	3
1	1	3
174	174	3
72	73	1
165	165	2
24	24	5
186	221	1
105	107	1
178	178	1
98	154	1
30	31	2
160	160	1
35	46	2
29	29	5
89	89	3
214	214	2
115	115	2
51	51	1
208	209	5
18	37	2
14	14	2
104	104	1
20	20	5
239	239	1
234	234	3
243	243	1
80	81	5
80	80	2
146	146	2
106	106	4
156	156	1
206	207	2
236	236	1
71	72	2
15	168	1
88	88	2
4	4	3
100	100	1
59	59	6
86	87	2
85	201	1
204	204	4
6	6	5
155	156	1
173	243	1
150	151	2
163	209	1
104	208	1
30	30	3
95	95	4
9	10	3
101	101	2
85	85	3
168	171	1
23	23	3
99	99	1
69	95	1
107	107	2
237	237	6
212	212	1
82	84	1
39	39	2
158	158	2
79	79	3
96	96	3
81	81	2
175	175	2
208	208	1
189	189	1
68	225	1
18	48	1
200	204	1
177	209	1
56	56	5
152	152	3
45	45	2
55	55	2
46	46	5
44	44	3
213	237	1
249	249	1
75	75	2
188	188	1
221	221	2
10	10	1
209	209	2
217	217	2
54	55	2
246	247	1
218	219	1
242	242	2
57	58	1
8	227	1
22	22	5
110	232	1
247	247	3
0	155	1
7	48	1
89	90	1
57	57	2
167	167	2
182	182	3
86	86	3
206	206	2
232	240	1
21	145	1
54	54	2
169	169	2
11	222	1
71	161	1
225	225	1
57	63	2
3	229	1
49	50	2
1	4	1
65	66	3
12	51	1
17	47	1
98	98	2
232	241	1
32	32	2
98	99	1
99	159	1
229	230	2
229	229	3
183	183	2
71	71	1
154	154	5
230	230	1
112	112	2
34	208	1
63	63	1
168	168	1
67	67	3
107	145	1
11	11	2
78	78	2
163	171	1
113	113	2
201	201	1
170	171	1
205	205	1
67	82	1
101	111	1
226	226	3
61	61	1
222	223	1
23	26	1
119	248	2
193	193	1
170	172	1
241	241	2
82	82	2
240	241	1
165	166	2
9	9	2
166	166	2
226	243	1
90	90	1
161	227	1
94	97	1
13	176	1
169	170	1
21	21	3
234	235	1
62	62	2
43	44	1
37	37	1
48	48	1
231	235	2
194	194	1
75	76	1
67	68	1
220	231	1
197	197	1
159	159	1
94	94	1
157	157	1
232	232	1
154	155	1
43	43	1
117	120	1
108	108	3
151	151	2
73	73	3
53	205	1
115	197	1
38	39	1
77	77	1
182	190	1
196	199	1
173	173	1
210	210	1
62	67	1
70	70	2
187	187	4
85	87	1
47	47	1
203	203	1
58	59	1
163	177	2
97	97	1
71	162	1
171	171	1
177	178	1
46	47	1
52	52	1
119	119	2
49	52	1
10	200	1
183	184	1
240	240	1
51	213	1
72	159	1
230	238	1
93	93	2
48	235	2
233	233	1
116	116	1
112	165	1
14	48	1
74	76	1
76	76	1
32	33	1
49	187	1
41	41	1
118	118	1
110	111	1
179	180	1
83	83	1
184	184	1
95	101	1
235	236	1
114	117	1
14	15	1
99	100	1
70	81	1
180	180	1
48	50	1
115	116	1
163	164	1
25	25	1
164	164	2
235	235	1
92	92	1
191	191	1
145	145	1
66	103	1
205	206	1
70	229	1
69	96	1
70	87	1
175	230	1
84	84	1
78	108	1
46	52	1
192	213	1
19	19	1
72	72	1
111	245	1
173	174	1
17	19	1
220	221	1
109	109	1
114	114	1
1	2	1
