27	28	1
72	72	3
184	184	2
49	49	1
45	46	2
117	117	2
47	49	1
171	171	1
145	145	1
49	184	1
124	125	3
120	120	1
57	94	1
33	110	2
154	187	2
18	84	1
79	79	1
27	27	2
45	57	1
114	114	3
118	118	1
148	148	2
107	107	2
118	119	1
27	108	1
150	151	1
186	186	4
20	72	1
131	131	3
101	144	1
168	168	1
117	142	1
88	88	3
15	15	5
87	94	1
7	7	1
152	167	2
12	13	2
156	157	2
13	74	2
105	106	2
71	72	1
118	138	1
76	76	2
157	167	1
128	128	3
169	169	4
175	175	3
116	117	3
2	71	1
35	35	1
120	121	3
137	137	1
143	145	1
23	24	1
21	59	1
28	28	3
47	47	4
164	164	1
180	181	2
138	155	3
99	118	3
0	2	1
39	39	3
111	173	1
101	101	4
19	23	1
19	117	1
4	14	2
193	193	2
162	172	1
14	14	6
12	12	4
42	124	1
23	23	2
6	7	2
55	117	1
45	45	1
130	131	1
147	147	3
61	71	1
11	11	2
194	194	3
42	43	1
162	165	1
63	63	1
9	9	3
59	105	2
31	109	1
60	60	4
116	116	1
3	106	1
29	30	1
138	138	2
40	41	2
36	42	1
23	62	1
168	169	1
183	183	2
159	159	2
32	43	1
153	172	1
41	41	1
152	152	1
107	110	1
71	99	1
62	63	2
76	79	1
23	100	1
114	156	1
94	176	1
74	80	2
163	163	1
22	22	3
64	73	1
2	3	2
31	36	2
150	150	1
4	53	1
149	149	1
48	48	2
170	187	1
18	19	1
170	170	4
120	175	1
178	179	2
122	123	1
34	34	2
4	9	1
51	51	2
187	187	2
113	148	1
50	50	2
59	62	1
80	80	2
132	133	1
32	109	1
151	163	2
190	191	1
17	61	2
137	138	1
27	32	2
188	188	1
83	83	1
32	33	3
83	84	1
89	90	1
106	106	3
25	25	2
130	130	2
64	64	1
161	192	2
154	190	1
100	101	1
55	55	1
144	144	2
5	7	1
178	191	1
81	81	2
44	44	1
52	52	1
9	32	1
180	180	1
97	158	1
58	107	1
2	2	1
134	134	3
46	46	2
179	179	2
179	180	2
192	193	1
40	108	1
41	42	2
37	37	3
117	123	1
43	43	1
9	12	1
9	10	2
73	74	2
43	133	1
190	190	2
19	21	1
104	104	2
163	164	1
3	65	1
26	63	1
20	20	2
176	177	1
173	173	3
69	69	1
75	75	1
22	57	1
100	100	3
48	49	1
151	151	1
165	165	1
82	82	3
180	182	1
132	132	1
36	110	1
25	74	1
181	185	1
30	36	1
41	76	1
174	175	1
167	171	2
3	3	3
38	38	3
191	193	1
58	59	1
139	140	1
121	139	1
22	25	1
119	119	2
67	67	5
73	73	3
33	34	1
172	172	1
191	191	1
142	143	2
95	147	1
146	147	2
23	61	1
174	176	1
94	96	1
120	137	1
98	142	1
136	142	1
142	189	1
189	191	1
94	94	1
196	196	1
127	127	1
192	192	1
118	189	1
93	93	1
14	61	1
59	59	1
127	128	2
6	6	1
178	178	2
123	124	1
135	135	1
58	58	2
99	111	1
16	17	1
36	41	1
23	53	1
21	21	2
166	166	1
60	64	1
17	17	1
114	121	1
84	84	1
93	94	1
31	31	2
10	10	1
156	156	2
113	141	1
139	139	4
30	30	1
28	29	1
115	141	1
35	36	1
78	78	1
117	175	1
124	124	1
185	185	1
28	71	1
13	13	1
160	160	1
31	108	1
53	53	2
122	122	1
27	121	1
6	29	1
108	108	1
112	113	1
53	57	1
117	138	1
42	42	1
153	165	1
20	171	1
17	81	1
12	73	1
29	29	1
55	56	1
4	4	2
98	98	2
70	71	1
135	139	1
152	187	1
46	51	1
32	32	1
166	175	1
143	143	1
5	6	1
112	168	1
120	165	1
67	89	1
147	177	1
69	74	1
169	170	1
103	103	1
