88	88	2
117	169	1
96	96	2
139	139	3
114	114	1
105	105	1
158	158	2
176	176	2
183	183	2
168	168	4
26	26	2
73	73	1
104	106	1
122	122	2
177	177	1
23	23	4
3	20	2
155	155	1
63	63	4
84	89	2
153	154	1
151	151	1
16	16	1
124	124	2
128	128	3
41	67	1
7	7	1
117	117	1
166	167	1
25	38	2
27	27	3
107	107	1
11	43	4
67	67	2
59	59	3
43	43	2
83	84	3
103	106	1
25	25	2
127	127	6
46	46	6
47	49	1
33	33	1
154	154	1
193	194	3
169	169	2
178	178	1
72	72	3
9	14	1
35	106	1
175	176	1
142	171	1
76	77	1
69	69	2
24	24	2
135	135	2
38	38	1
166	166	1
165	165	1
81	81	2
56	56	1
7	8	3
170	170	1
80	80	3
193	193	2
13	13	2
185	185	3
71	74	1
174	175	4
9	10	1
83	111	4
148	149	1
42	43	1
152	152	1
58	90	1
17	20	1
114	115	1
167	168	1
12	53	2
185	186	2
178	179	1
102	165	1
15	15	2
115	115	1
126	127	1
82	82	3
146	146	1
112	112	1
87	87	1
197	197	2
86	86	1
186	186	1
159	160	1
186	187	1
159	159	1
94	94	4
52	53	1
142	143	3
16	40	1
158	166	1
11	12	1
158	160	1
103	148	1
9	9	1
74	74	1
129	132	2
106	107	1
60	60	4
35	175	1
6	7	2
32	83	1
148	152	1
73	83	1
86	87	1
128	136	1
175	175	2
62	126	2
181	181	2
44	44	3
125	126	1
78	116	1
4	36	1
100	100	1
57	57	1
84	85	1
179	193	1
43	60	1
43	141	1
137	188	1
97	97	1
18	19	1
129	129	1
37	70	1
50	50	2
53	53	2
179	179	1
19	19	2
133	133	2
90	90	1
189	190	3
10	13	1
78	78	1
113	115	1
78	115	2
136	137	4
117	118	1
94	95	2
12	13	1
139	140	1
49	49	1
184	185	1
61	61	2
4	4	2
20	21	1
36	115	1
2	3	2
60	86	1
179	182	1
162	162	1
149	149	2
70	71	2
44	137	1
77	77	2
171	171	2
18	18	1
40	46	1
135	136	1
41	64	1
12	12	1
131	132	1
2	4	1
130	131	1
131	131	1
134	153	1
112	113	1
187	187	1
132	132	1
160	161	1
160	160	2
171	183	1
103	105	1
85	85	1
73	171	1
100	164	1
194	194	4
93	93	2
157	157	3
102	162	1
10	10	2
36	88	2
156	156	1
114	175	1
0	2	1
36	36	1
106	106	1
76	157	1
141	142	1
31	31	1
144	145	1
143	144	1
143	143	1
47	47	1
96	143	1
192	193	1
116	116	1
23	72	1
162	164	1
54	55	1
157	158	1
142	159	1
147	147	1
98	98	1
155	191	2
172	172	1
163	164	1
154	155	1
181	182	2
121	162	1
182	182	1
196	196	1
5	5	1
64	78	1
22	24	1
147	148	1
184	184	1
60	69	1
111	112	1
3	4	1
105	107	1
102	103	1
68	68	1
35	36	1
14	14	1
116	117	1
43	44	1
66	79	1
57	71	1
148	148	1
27	28	1
183	190	1
134	135	1
161	161	1
44	125	1
165	176	1
55	55	1
102	108	1
