152	153	1
63	68	1
61	61	2
82	94	1
2	2	3
171	171	6
42	42	5
39	84	1
94	96	1
166	166	2
184	184	4
7	7	5
125	149	1
26	31	2
80	133	1
95	95	3
103	103	6
103	124	2
27	27	4
83	83	3
68	68	2
124	124	6
87	87	3
100	185	2
138	167	1
7	16	2
8	8	4
119	124	1
129	129	3
158	158	2
5	6	1
78	78	5
117	120	1
89	89	5
61	64	1
116	119	1
115	119	2
161	161	3
85	150	1
44	46	1
32	35	1
18	18	3
117	125	1
185	185	3
28	28	1
126	126	1
36	37	1
127	161	1
142	160	1
0	0	5
77	77	3
6	6	4
95	102	1
173	173	4
52	52	3
96	96	1
22	22	2
65	65	1
55	55	4
107	113	1
177	177	2
57	57	2
62	62	1
4	4	3
186	186	6
76	76	1
168	168	2
167	167	4
56	57	1
169	169	3
129	137	2
78	90	1
16	17	1
114	160	1
81	84	2
68	102	2
154	154	1
72	74	1
155	162	1
96	97	2
42	88	1
81	154	1
166	167	1
19	182	1
163	164	1
12	12	2
146	146	1
26	27	2
142	142	3
38	38	2
166	168	2
31	103	1
70	70	2
20	20	4
13	15	1
174	177	2
88	88	3
116	116	4
10	10	4
140	174	1
174	174	6
107	108	1
45	46	1
87	122	1
91	91	2
113	113	2
150	152	1
26	26	1
105	105	1
65	68	2
1	2	1
47	86	1
109	109	3
112	112	2
145	145	3
144	144	2
35	37	2
41	42	2
19	19	1
77	80	1
94	94	1
30	30	1
47	101	2
97	133	1
124	133	3
182	183	4
16	59	1
21	21	4
159	162	1
15	15	2
38	40	1
58	58	2
65	79	1
80	81	1
188	189	1
1	1	1
78	82	1
46	47	1
45	45	2
125	127	1
154	176	1
57	58	1
45	98	1
107	107	6
158	161	1
55	82	1
11	18	1
153	153	2
122	129	1
140	141	5
37	37	3
57	108	1
60	60	2
154	162	2
116	117	2
75	75	1
86	86	4
144	173	1
18	58	1
71	71	2
20	23	1
54	54	3
80	92	1
128	128	4
150	150	2
147	147	4
108	114	1
23	24	2
29	31	1
106	106	2
117	117	4
46	59	1
73	73	1
43	43	1
103	105	1
163	163	4
14	15	1
73	74	1
17	18	1
111	111	2
57	76	1
37	40	1
159	185	1
53	53	2
110	110	1
67	67	1
32	32	2
107	143	1
5	5	4
41	41	2
104	104	1
81	82	1
127	129	1
125	179	2
74	74	2
34	34	3
29	59	1
57	159	2
165	167	1
58	61	1
25	36	1
101	102	2
13	13	1
41	57	2
89	91	1
47	47	2
29	30	4
136	136	2
9	66	2
105	106	2
66	68	1
62	65	1
130	131	1
35	35	2
1	25	1
185	186	2
100	100	1
180	181	1
151	151	3
90	90	2
134	135	1
178	178	2
180	180	1
24	28	1
157	157	3
138	139	1
146	147	1
75	140	1
97	97	2
34	73	2
90	92	1
121	121	2
68	146	1
175	176	1
115	116	2
174	189	1
149	149	2
140	140	5
40	40	4
143	143	2
81	81	2
183	183	3
147	149	2
77	79	1
87	88	1
76	110	1
12	13	1
123	124	1
96	151	1
48	48	2
105	141	2
24	26	1
36	36	1
182	182	1
133	133	1
170	172	1
101	114	1
63	72	1
140	185	1
164	164	1
12	27	1
129	132	1
81	89	1
102	102	1
53	54	2
145	147	1
160	168	1
3	3	3
61	62	1
34	93	1
63	94	1
107	116	2
121	136	1
41	60	1
10	15	2
99	118	1
97	101	1
170	170	2
83	90	2
6	8	1
139	173	1
149	150	1
11	11	1
95	96	1
99	106	1
45	143	1
64	178	2
65	66	1
60	65	1
72	72	1
152	152	2
31	31	1
143	144	1
17	17	4
16	24	1
40	42	2
61	66	3
58	60	2
118	118	2
172	173	1
13	151	1
83	84	3
127	127	3
136	147	1
22	41	1
175	175	1
80	80	1
138	138	1
155	160	1
181	184	1
11	13	1
89	94	2
5	53	1
81	130	1
114	114	4
152	154	1
100	112	2
135	137	1
101	101	2
96	127	1
87	98	1
71	140	1
164	168	1
176	176	1
82	90	1
85	85	2
109	122	1
49	56	2
81	87	1
110	111	2
64	141	2
62	63	1
110	123	1
188	190	1
111	150	1
41	71	1
127	135	1
142	145	1
82	82	2
81	129	1
102	148	1
156	156	1
74	76	1
107	126	1
14	14	3
169	172	1
79	79	1
58	98	1
81	83	1
13	121	1
124	125	1
139	141	1
183	184	1
104	107	1
139	139	2
58	72	1
77	78	1
40	90	1
78	79	2
99	100	2
94	115	1
181	181	1
176	182	1
143	155	1
170	177	1
182	184	1
151	154	2
130	130	2
189	189	1
1	114	1
57	60	1
55	56	1
90	91	1
115	115	2
109	121	1
141	141	2
87	119	1
155	156	1
94	108	1
95	101	1
125	125	2
30	34	1
101	112	1
172	172	2
98	99	2
16	16	1
179	179	1
57	130	1
94	99	1
163	167	1
152	157	1
145	150	1
38	47	1
25	35	1
154	175	1
128	129	1
13	16	1
73	80	1
11	12	1
110	157	1
56	140	1
77	100	1
53	118	1
48	111	1
142	143	1
131	131	1
17	46	1
154	174	1
84	84	1
104	112	1
8	41	1
52	65	1
29	29	1
41	152	1
145	178	1
90	166	1
134	134	1
171	172	1
129	159	1
189	190	1
117	118	1
97	98	1
175	184	1
176	178	1
103	139	1
18	20	1
155	155	1
46	46	1
103	156	1
97	104	1
