16	33	2
225	225	1
64	64	1
9	9	3
184	184	2
27	28	2
1	2	1
36	38	1
233	233	4
53	53	2
245	246	5
20	20	1
18	18	3
158	158	1
167	167	3
58	59	1
199	199	1
45	46	1
92	93	2
12	12	1
37	37	3
150	150	3
238	238	2
110	171	1
217	217	4
118	168	1
248	248	1
107	107	2
23	23	1
195	196	1
5	5	5
155	155	3
227	227	2
87	88	1
111	111	3
185	199	1
236	236	5
226	231	1
179	180	2
78	78	1
81	81	2
159	159	4
1	1	4
241	241	1
48	101	2
227	243	1
185	185	4
153	169	1
64	65	1
168	168	3
247	247	2
89	90	3
84	84	2
47	59	3
246	246	2
36	36	1
204	204	3
211	211	2
77	77	1
160	160	2
191	191	1
75	75	1
202	212	1
35	35	2
120	120	1
178	178	1
201	201	3
229	230	2
113	113	2
205	205	3
59	101	1
93	94	1
83	84	2
21	22	1
57	58	3
222	222	3
11	11	2
152	152	1
24	24	2
4	5	1
224	224	3
65	65	1
174	183	1
167	205	1
40	41	1
119	120	1
182	201	1
62	62	1
60	62	1
206	207	1
234	235	2
71	88	1
51	51	2
101	101	3
221	222	1
33	33	1
234	234	2
214	214	4
246	247	1
29	29	1
99	99	1
235	235	1
203	203	1
26	26	2
60	60	3
213	214	1
39	39	2
223	223	2
95	95	2
22	22	2
46	46	2
48	149	1
19	19	4
5	14	1
225	231	2
196	196	1
100	100	3
64	67	1
8	8	1
155	204	1
231	233	1
239	240	1
245	245	5
169	169	1
161	161	1
24	25	1
68	69	1
220	220	2
8	9	1
28	28	2
73	98	1
119	119	2
2	2	1
170	170	3
165	242	2
180	204	1
16	16	3
182	234	1
211	213	1
112	114	1
170	173	1
219	220	1
32	224	1
70	70	3
62	113	1
108	109	1
6	6	1
106	106	1
52	52	2
186	198	1
12	15	1
41	158	1
193	242	1
162	212	1
213	223	2
4	4	1
114	114	1
220	222	1
157	157	3
14	14	2
165	166	1
7	7	1
44	44	3
103	103	3
63	63	3
90	181	1
48	50	1
38	182	1
200	220	1
54	100	1
26	27	2
91	97	1
183	183	2
177	177	1
49	49	1
34	34	1
85	86	2
200	201	1
74	74	1
58	99	1
180	181	1
212	213	1
56	214	1
10	10	1
176	192	1
167	168	1
18	121	1
210	210	2
90	90	1
209	209	1
21	21	2
58	58	1
113	223	1
95	98	1
151	151	2
208	208	3
0	1	1
116	116	1
15	15	1
188	189	1
11	16	1
34	168	1
23	26	1
30	171	1
59	59	3
93	93	1
176	176	2
172	172	1
120	214	1
235	236	1
189	189	1
112	112	1
173	173	1
47	246	1
90	98	2
68	68	1
28	32	1
206	206	2
239	239	1
180	180	1
150	202	1
48	48	1
27	27	1
33	224	1
167	175	1
221	221	1
159	184	1
172	173	3
111	151	1
2	4	1
73	73	1
55	55	2
25	25	1
56	57	1
165	165	1
89	91	1
101	163	1
232	232	1
52	150	1
145	219	1
82	82	2
230	230	1
208	209	1
207	207	1
174	174	2
16	174	1
42	42	2
30	30	2
247	248	1
151	201	1
165	193	1
45	45	1
117	162	1
38	51	2
56	56	1
175	175	2
96	96	1
51	101	1
46	47	2
87	87	2
43	43	1
8	10	1
79	79	1
117	117	1
15	16	1
192	193	2
110	110	1
104	105	1
163	164	1
86	86	1
187	197	1
168	192	1
186	186	1
44	55	1
198	200	1
107	115	1
2	41	1
98	98	1
94	94	1
62	63	1
19	20	1
115	115	1
209	233	1
57	57	1
215	226	1
99	102	1
89	89	1
181	181	1
39	116	1
