45	72	1
29	31	1
66	76	1
65	65	2
172	172	4
202	202	2
191	191	2
105	106	1
130	190	1
81	81	1
62	62	1
127	139	2
236	236	3
14	21	1
183	183	2
214	236	1
17	17	3
1	1	1
7	7	3
11	11	3
188	214	2
61	61	1
214	221	1
200	224	1
112	113	2
115	226	1
197	197	2
149	149	1
157	157	1
38	38	4
150	178	1
190	190	1
73	73	2
117	117	1
143	143	2
200	204	1
12	83	1
186	187	4
226	226	2
235	239	1
206	207	1
113	113	2
123	215	1
3	3	1
212	212	2
48	49	1
201	201	1
18	27	1
35	141	1
206	206	2
239	240	1
42	42	2
137	166	1
192	192	1
48	54	1
190	192	1
146	146	5
211	212	1
204	204	2
109	120	1
150	150	1
14	17	1
214	214	1
214	219	1
118	188	1
20	172	1
189	189	3
148	156	1
19	19	3
178	178	1
133	133	5
71	84	1
167	169	1
147	147	3
168	168	1
208	209	1
179	179	2
187	188	3
115	121	1
133	137	1
59	59	1
67	67	1
177	177	3
119	145	1
75	145	1
171	171	2
205	206	3
196	196	1
217	218	1
121	121	2
4	5	2
36	36	2
204	208	1
115	139	1
97	98	1
64	64	1
7	29	1
168	200	1
57	57	2
199	199	1
125	130	1
99	99	2
166	166	3
177	240	1
138	138	4
177	231	1
226	240	2
73	89	2
15	15	1
6	15	1
134	154	1
117	155	2
37	242	1
54	56	1
9	9	1
41	41	2
200	200	1
176	176	1
2	33	1
141	141	1
225	225	2
206	210	1
37	41	1
48	171	1
44	44	2
102	111	1
126	127	1
227	228	2
2	22	1
6	6	1
221	221	1
10	54	1
118	134	1
41	159	1
116	116	1
227	227	1
180	180	1
113	171	1
198	198	3
223	224	1
100	100	3
149	181	1
9	28	1
173	173	1
2	148	1
63	63	1
152	197	2
52	125	2
37	55	2
18	18	1
24	231	1
138	229	2
205	205	1
208	208	1
66	66	1
125	150	1
164	191	1
135	135	1
17	46	1
152	212	1
100	110	1
167	167	2
216	216	2
4	13	1
37	44	1
86	200	1
159	229	1
218	229	1
22	22	2
140	140	1
118	119	2
54	55	1
28	28	2
182	182	1
23	51	1
159	159	1
12	37	1
58	58	1
155	158	1
126	126	1
11	12	1
170	173	1
218	220	1
228	228	1
188	189	1
52	52	1
23	143	2
0	105	1
5	5	1
27	29	1
209	211	2
229	229	1
160	160	1
118	118	2
236	240	1
235	235	1
109	127	1
10	10	1
12	12	1
12	13	2
27	27	1
155	155	4
86	86	1
104	104	1
45	219	1
76	76	2
78	123	1
231	232	1
111	111	1
83	130	1
37	37	2
105	143	1
242	242	1
30	30	2
219	219	1
220	223	1
101	101	1
68	68	2
64	73	1
103	105	1
192	215	1
173	175	1
122	122	1
48	48	1
74	74	1
23	37	1
72	72	1
82	82	2
38	68	1
114	191	1
194	194	1
196	222	1
156	164	1
97	97	1
120	120	2
144	144	1
39	39	2
127	127	1
59	68	2
234	234	1
3	36	1
77	77	1
24	113	1
24	24	1
167	168	1
95	96	1
13	14	1
20	20	1
44	48	1
33	33	2
46	46	2
16	161	1
161	161	1
181	181	1
98	98	1
75	76	1
46	47	1
35	35	1
22	40	1
148	180	1
226	227	1
149	152	1
217	217	1
30	69	1
50	51	1
70	70	2
130	137	1
23	200	1
135	136	1
106	115	1
84	180	1
75	75	1
99	101	1
13	50	1
188	188	1
192	226	1
109	109	1
213	224	1
103	234	1
183	224	1
85	85	1
32	33	1
