101	181	1
169	169	1
159	159	1
151	151	4
30	46	2
122	170	1
44	46	2
72	72	1
161	161	3
38	38	4
135	136	2
66	66	3
175	175	2
122	123	1
111	116	1
5	5	4
116	118	1
127	127	2
44	44	1
47	69	1
58	64	1
124	124	1
112	113	1
151	156	1
10	10	5
123	127	1
9	42	1
143	143	2
144	146	2
108	108	2
65	65	2
139	139	8
180	180	2
17	24	2
125	125	3
140	140	1
128	129	1
47	47	3
166	166	2
167	167	1
17	18	1
32	32	3
2	2	3
121	131	1
17	17	1
166	176	1
163	163	3
94	94	2
4	4	5
185	185	4
77	77	3
11	11	2
26	48	1
88	90	1
12	12	4
41	41	6
79	80	1
138	138	2
48	48	2
87	87	1
67	67	1
157	158	3
28	29	1
43	43	1
115	137	2
1	1	5
15	22	2
168	168	4
34	34	2
84	84	2
183	187	1
110	110	2
87	95	1
60	79	1
140	141	1
6	71	1
91	98	1
16	16	3
100	162	1
36	36	1
147	147	1
25	25	4
159	166	2
8	8	1
9	45	1
19	19	3
96	111	3
68	68	4
55	55	3
88	89	2
11	52	1
113	113	2
126	128	1
142	142	4
14	14	3
74	74	2
92	93	1
153	154	2
139	153	1
26	26	3
7	7	3
131	139	1
97	98	5
85	97	1
78	78	2
18	18	2
114	167	1
140	166	1
71	71	3
153	153	1
162	162	6
171	171	1
179	179	2
68	109	1
165	165	2
70	70	1
92	92	1
28	28	2
173	173	1
100	106	2
2	4	1
62	62	3
90	90	3
96	96	4
172	172	6
65	68	1
79	79	1
90	104	1
181	181	2
40	40	1
48	68	1
120	120	3
96	97	1
139	160	1
157	157	2
82	82	4
6	6	1
184	184	1
126	126	1
106	106	2
23	46	1
102	102	3
29	30	1
115	115	1
33	33	1
56	82	1
112	112	1
189	189	1
182	182	1
159	160	1
131	172	1
146	146	2
42	42	1
160	160	2
140	144	1
90	93	1
155	155	1
24	162	1
156	156	2
143	144	1
155	156	1
25	26	2
117	169	1
102	103	1
105	105	1
88	108	1
35	44	1
16	17	1
141	151	1
65	66	1
107	107	1
171	173	1
100	100	2
91	104	1
64	66	1
54	75	1
55	57	1
144	144	1
5	6	2
154	154	2
102	104	1
12	15	1
122	122	1
97	97	1
55	56	1
159	176	1
150	150	2
41	42	1
31	108	1
88	88	2
9	10	1
13	14	1
126	185	1
128	186	2
162	164	1
75	77	1
90	98	1
64	65	2
96	104	1
85	85	1
130	160	1
179	180	1
152	153	2
109	111	1
27	36	1
75	75	1
126	171	1
67	83	1
149	158	1
84	87	1
31	31	1
75	76	1
181	182	1
143	150	1
35	97	1
46	46	1
121	121	1
151	153	1
183	183	2
57	75	1
116	116	1
141	141	1
87	185	1
123	123	1
84	85	1
173	175	1
174	176	1
29	29	1
100	101	1
3	3	1
47	68	1
4	10	1
110	113	1
21	45	1
124	166	1
28	32	1
24	24	1
27	29	1
141	142	1
53	53	1
90	121	1
23	24	1
108	109	1
172	173	1
76	80	1
30	48	1
61	61	1
146	153	1
174	174	2
125	129	2
113	115	1
179	181	1
54	73	1
99	99	1
19	66	1
80	84	1
33	45	1
130	138	1
122	128	1
174	175	1
65	81	1
27	34	1
13	13	1
21	21	1
152	152	2
23	23	1
136	139	1
173	176	1
86	93	1
115	134	1
57	83	1
159	173	1
59	59	1
149	150	1
189	190	1
130	130	1
11	12	1
131	133	1
