78	91	1
111	111	5
106	107	4
118	118	2
86	87	5
151	155	1
139	139	3
15	16	2
41	41	4
7	7	4
36	36	6
76	76	1
85	85	2
156	156	3
150	150	3
46	46	1
47	90	1
48	48	2
42	43	1
42	42	3
37	37	7
51	51	2
89	89	7
160	161	3
140	141	2
142	142	4
51	70	1
150	152	1
137	137	5
133	134	1
127	127	2
36	106	1
141	147	1
18	20	1
6	7	1
34	34	1
12	13	1
72	73	1
112	112	1
43	43	1
128	129	1
157	157	3
0	0	5
149	150	2
117	119	1
165	165	1
39	41	1
81	82	3
69	73	2
38	158	1
6	16	2
87	87	3
74	74	1
1	2	1
15	116	1
110	116	1
26	27	1
159	159	2
114	114	2
57	95	1
88	88	3
73	108	1
124	124	1
94	94	1
66	67	2
35	36	2
41	51	1
14	14	2
143	143	4
114	131	1
71	139	1
92	148	1
116	116	3
131	153	1
79	79	2
68	68	1
0	1	1
25	25	2
101	101	1
16	16	2
17	17	2
53	53	1
125	131	1
155	155	3
65	66	2
127	128	1
167	167	3
49	54	1
106	106	1
28	28	3
26	26	3
78	78	2
8	71	1
146	157	1
37	138	1
152	152	3
118	119	1
35	35	3
148	148	1
0	167	1
118	120	1
3	3	2
100	100	2
45	45	1
49	51	1
160	160	1
7	51	1
34	42	1
145	145	2
15	15	2
166	167	1
103	103	2
33	35	1
72	72	2
13	14	1
65	77	1
17	77	1
119	119	1
115	165	1
101	153	2
162	165	2
161	161	1
94	118	1
42	52	1
92	92	1
135	135	3
77	77	2
113	114	1
49	66	1
151	151	1
149	149	1
129	132	1
6	8	1
117	117	1
90	90	2
126	126	2
105	106	1
85	112	1
146	165	1
38	38	2
91	91	1
131	131	1
63	71	2
158	159	1
69	69	1
7	15	1
121	122	1
131	132	1
2	107	2
151	152	2
139	141	2
51	52	2
46	47	1
97	131	1
110	111	2
130	152	1
113	113	2
83	83	1
137	138	1
163	165	1
41	42	2
73	73	1
146	146	1
10	13	1
82	82	1
54	76	1
93	93	1
150	151	1
98	142	1
168	169	1
144	144	1
56	112	1
164	164	2
9	9	1
5	5	1
166	166	1
145	146	1
55	55	1
40	62	1
160	166	1
120	120	1
16	20	1
52	52	2
47	47	1
150	159	1
168	168	1
39	52	1
1	112	1
161	162	1
140	163	1
132	132	2
103	105	2
2	2	1
93	117	1
136	136	1
100	101	1
123	123	1
143	144	1
43	44	1
133	133	1
24	56	1
54	55	1
16	79	1
77	78	1
142	146	1
10	10	1
96	96	1
79	80	1
108	116	1
19	19	1
113	127	1
128	130	1
64	81	1
117	123	1
105	105	1
18	18	1
112	113	1
