160	161	1
118	118	1
96	143	1
74	74	1
192	192	4
100	101	2
58	59	3
19	19	1
16	16	3
33	39	1
26	26	2
155	155	2
47	47	2
60	63	2
13	14	1
90	90	1
113	128	1
150	152	2
9	10	2
178	178	2
13	13	6
13	185	1
27	28	3
67	192	1
177	177	2
149	169	1
164	166	1
48	49	3
27	27	1
48	126	1
39	116	1
10	73	1
9	9	2
125	125	1
52	53	1
121	187	1
150	150	3
149	149	1
159	179	2
45	46	1
13	127	1
121	121	3
36	37	1
23	178	2
25	26	1
159	159	4
62	69	1
59	62	1
169	169	1
57	127	1
37	38	2
113	152	3
102	103	1
38	38	4
168	173	1
39	42	4
10	74	1
53	54	1
44	44	3
185	185	3
128	183	1
120	120	5
2	2	2
146	146	1
133	133	3
186	186	2
73	73	5
43	43	2
47	48	1
121	122	1
188	189	1
115	115	3
125	132	2
157	157	3
17	17	2
42	43	1
11	11	2
160	160	2
123	123	1
194	194	1
80	86	1
113	193	2
10	10	2
166	166	1
18	19	2
40	40	3
97	97	2
170	171	1
0	0	1
149	152	1
62	62	2
12	13	2
41	156	1
197	197	3
93	93	3
23	42	1
104	106	2
59	59	2
158	158	2
11	44	1
187	187	1
40	156	1
11	63	1
116	117	1
23	23	4
40	41	1
151	170	1
124	124	2
141	143	1
11	14	3
183	183	2
35	35	2
22	22	1
42	44	2
156	156	3
40	46	2
68	68	2
102	102	1
30	30	3
78	120	2
122	122	4
128	128	4
41	41	1
126	126	4
120	121	1
159	191	1
132	135	1
149	150	1
24	158	1
48	48	3
1	6	2
31	32	4
31	31	2
13	75	1
187	192	1
36	71	2
105	105	2
98	179	1
151	151	4
133	134	1
60	60	1
23	71	1
21	21	2
153	166	1
29	29	2
172	172	2
147	147	2
17	18	1
187	188	2
28	28	2
111	115	2
60	62	1
76	76	1
78	78	3
132	133	2
100	100	1
131	131	3
29	58	2
98	103	1
71	73	1
170	170	2
83	83	2
47	49	1
89	89	1
127	128	2
171	171	3
113	115	2
129	129	2
26	32	1
50	58	1
24	24	3
180	180	1
94	94	1
142	143	1
63	66	1
80	80	2
134	138	1
148	148	1
12	12	1
72	72	1
70	71	1
107	185	1
148	151	2
29	110	1
171	172	1
33	33	1
97	176	1
114	114	2
40	42	2
79	79	2
144	144	1
191	191	2
163	166	1
34	35	2
176	177	1
104	175	1
76	89	1
56	56	1
112	113	1
3	3	2
46	46	2
60	70	1
143	143	1
165	165	1
82	82	1
139	141	1
196	196	3
59	60	1
152	174	2
59	108	1
134	134	3
154	154	2
24	39	1
50	51	1
98	99	1
113	113	1
60	71	1
12	15	2
58	58	2
150	177	1
82	86	1
159	193	1
121	142	1
66	66	1
53	53	1
16	17	1
180	182	2
16	59	1
15	15	1
8	9	1
55	126	1
184	184	3
67	67	1
137	138	1
53	55	1
21	82	1
54	54	1
69	69	2
49	49	3
133	142	1
112	112	1
25	25	3
132	132	2
188	188	1
130	138	1
53	58	1
143	145	1
54	114	2
86	104	1
170	190	1
64	64	1
36	36	1
15	57	1
195	196	1
71	71	2
9	58	1
7	7	1
110	110	1
32	33	1
136	136	1
177	182	1
35	36	1
74	83	1
43	54	1
159	161	1
61	61	1
21	22	1
159	174	2
121	123	1
52	52	1
94	106	1
140	140	2
55	169	1
20	63	1
18	18	4
55	55	1
19	20	1
75	75	1
153	159	1
173	173	1
17	197	1
63	63	1
130	131	1
170	175	1
22	25	1
36	68	1
37	42	1
49	50	1
190	193	1
87	87	1
163	163	1
189	189	1
129	130	1
41	181	1
174	175	1
130	130	1
30	31	1
151	188	1
161	163	1
142	147	1
