0	2	1
22	23	5
20	23	1
83	83	2
137	137	5
15	145	1
48	49	2
0	7	1
133	133	3
121	121	4
164	164	1
151	151	2
26	28	1
48	70	2
154	154	2
101	101	3
115	115	2
17	17	6
10	55	1
11	16	1
142	146	2
147	153	2
6	6	3
169	170	3
146	146	2
13	13	2
37	37	2
21	21	3
120	120	3
10	89	1
131	131	1
91	91	2
12	13	1
77	77	1
86	87	2
38	50	1
143	143	1
162	163	1
164	166	1
24	45	1
84	84	3
53	56	1
128	128	3
100	100	4
118	118	1
36	36	3
58	75	1
55	122	1
150	150	2
12	12	3
132	139	2
0	1	1
73	74	1
78	79	2
148	148	4
23	23	2
20	22	1
159	159	2
117	117	1
72	72	4
138	138	2
46	47	1
155	155	1
118	119	2
107	125	1
35	35	1
165	165	1
105	119	1
44	44	1
14	163	1
134	134	2
104	104	1
130	130	2
50	83	1
153	153	2
34	34	2
123	123	3
42	43	1
152	152	1
114	115	1
160	160	3
7	7	1
123	124	1
162	165	1
25	25	1
46	46	4
49	50	2
147	147	5
158	159	1
124	124	3
16	17	2
55	55	1
135	143	1
89	89	1
55	56	1
25	55	1
81	82	1
130	131	2
10	11	1
45	46	2
66	66	1
78	78	4
142	143	1
163	163	1
163	164	1
6	8	1
53	54	1
14	14	1
148	149	1
73	78	1
80	80	1
68	68	1
38	38	5
15	15	2
74	74	2
157	158	2
76	76	2
5	5	2
150	160	1
11	12	1
96	103	2
3	12	1
106	108	1
166	166	1
49	49	3
93	94	1
36	83	1
159	160	1
43	43	1
48	53	1
51	51	1
22	22	2
139	140	1
116	139	1
130	134	1
67	68	1
3	3	1
144	144	3
103	104	1
110	110	2
151	152	2
19	19	1
52	74	1
137	138	1
97	112	1
83	84	2
10	10	2
67	67	1
105	108	1
127	128	1
20	43	1
137	149	2
83	112	1
37	46	2
79	82	1
71	72	1
70	70	1
41	41	3
47	70	1
153	160	1
73	77	1
119	119	1
108	108	3
100	104	1
109	109	2
47	47	1
119	170	1
7	19	1
110	125	1
76	77	1
18	120	1
97	120	1
85	85	1
21	23	1
24	24	1
54	72	2
110	111	2
57	57	1
53	53	1
11	11	2
57	62	1
84	85	1
149	149	2
98	105	1
113	113	1
125	125	1
10	18	3
99	99	2
97	97	3
13	17	1
2	2	1
9	10	2
111	111	1
138	160	1
56	56	1
74	75	2
42	42	2
121	122	1
62	68	1
9	9	2
101	102	1
54	54	1
50	53	1
135	149	1
120	147	1
134	149	1
155	156	1
6	7	1
92	92	1
144	145	1
20	24	2
87	87	1
140	166	1
101	103	1
104	105	1
4	4	1
24	25	1
52	52	2
94	94	1
45	45	1
136	136	1
114	114	1
157	157	1
143	154	1
141	146	1
40	40	2
53	58	1
7	8	1
88	88	1
91	92	1
116	122	1
75	75	1
27	27	2
33	33	1
70	88	1
76	79	1
67	69	1
9	18	1
104	124	1
135	136	1
41	57	1
98	98	1
94	104	1
