12	12	4
19	19	6
211	211	6
80	236	1
79	80	5
198	198	4
109	109	2
1	1	5
236	237	1
38	38	2
198	199	6
6	6	1
106	106	4
164	164	3
42	42	7
171	218	2
8	8	2
230	230	4
64	64	4
144	144	1
58	58	3
187	187	2
235	235	6
161	162	1
195	195	4
188	213	3
78	78	3
114	114	8
80	80	1
119	149	1
163	168	2
68	70	1
31	53	1
171	171	4
177	185	1
205	205	7
198	213	1
237	237	5
193	193	3
94	94	6
209	209	3
185	214	1
229	229	5
82	82	5
54	54	3
101	101	5
57	58	3
172	172	6
54	59	1
168	226	1
35	35	5
186	186	9
240	240	1
27	27	5
119	119	5
92	220	2
189	190	2
157	157	8
153	153	3
182	191	2
68	68	5
57	57	4
14	15	1
193	195	1
71	71	2
66	66	4
216	223	1
155	155	3
219	219	4
156	156	8
234	234	7
18	34	1
173	246	1
108	108	9
12	74	5
220	223	1
13	64	1
4	4	5
245	246	2
85	87	1
191	191	2
24	24	5
107	108	1
39	39	4
11	14	1
3	76	1
167	167	1
212	212	5
115	115	2
188	218	1
50	119	2
184	184	6
30	30	3
203	203	8
55	55	5
94	95	2
96	96	5
74	74	3
213	221	1
150	150	7
21	21	2
212	213	4
35	96	1
113	113	7
192	192	7
89	90	1
241	242	2
59	59	3
63	64	2
194	194	1
105	105	3
182	184	1
31	153	1
97	98	2
220	220	3
174	174	2
14	14	5
225	225	3
197	197	1
182	235	1
100	101	1
28	28	4
33	33	5
40	40	9
181	181	3
76	76	7
166	166	5
169	169	2
227	228	2
85	99	1
52	53	4
51	51	5
25	25	3
182	182	4
10	183	1
2	2	3
152	152	5
27	31	2
190	190	5
73	73	4
145	145	2
187	188	4
197	199	1
72	72	4
207	208	2
228	229	2
165	225	1
49	49	2
165	169	1
40	41	4
11	43	1
245	245	4
222	222	3
69	218	1
46	46	2
79	103	1
27	28	1
196	196	4
55	56	2
60	170	3
13	13	1
215	218	1
3	3	1
206	206	4
20	20	5
213	213	2
99	99	7
91	166	2
229	232	1
25	26	1
100	100	6
43	48	1
26	27	1
93	94	4
116	116	4
77	77	1
189	189	5
160	160	6
85	85	2
50	51	1
10	10	3
240	247	2
87	87	8
3	4	1
70	74	1
201	204	1
214	221	1
26	26	7
15	15	5
120	120	3
106	107	2
7	233	1
154	154	4
62	63	3
77	80	2
197	198	1
45	46	1
43	43	6
17	17	2
61	245	1
244	244	3
32	32	4
241	241	5
27	150	1
82	83	2
162	162	2
41	159	1
185	185	2
62	62	7
207	207	4
17	78	1
177	177	3
117	117	5
173	174	1
60	64	1
162	171	2
216	217	1
19	29	1
2	5	1
38	227	1
202	205	1
201	201	4
172	173	1
38	206	1
82	92	1
79	81	2
150	151	1
41	41	2
36	36	4
242	243	2
86	86	2
99	100	2
95	95	3
159	170	1
181	182	1
4	228	1
201	202	1
167	170	2
221	221	4
198	234	1
20	22	1
5	21	1
34	35	2
164	168	1
178	178	3
204	205	1
23	23	2
63	63	5
112	159	1
112	112	2
92	93	2
239	239	3
43	44	1
161	161	2
80	82	2
56	149	1
89	89	7
231	231	3
158	166	1
29	30	1
243	243	5
221	223	1
193	213	1
47	47	4
111	111	4
172	174	1
88	88	2
191	192	3
84	85	1
110	110	4
9	9	3
200	200	5
46	47	1
45	45	2
18	48	2
93	93	3
32	39	1
240	242	1
149	149	1
228	228	1
86	87	2
14	106	1
63	69	1
246	246	1
16	16	4
199	199	2
225	226	3
163	181	1
214	214	2
44	45	3
174	203	1
164	165	2
69	69	2
19	31	1
103	105	1
81	81	3
64	65	4
173	173	5
29	29	3
11	33	1
33	34	1
220	221	3
158	158	7
49	91	1
218	219	3
92	92	4
200	220	1
247	247	3
71	72	1
87	88	2
167	220	1
90	157	2
168	171	1
66	67	1
157	207	1
179	198	1
170	195	1
73	84	1
72	215	1
224	241	2
165	165	1
89	97	1
26	51	3
150	221	2
194	208	1
78	106	1
236	236	7
38	39	1
53	112	1
34	97	2
98	99	2
238	239	3
232	232	3
183	183	4
117	165	1
244	246	1
152	153	1
16	101	1
151	176	1
55	101	1
11	39	1
151	151	3
11	11	7
204	212	1
70	117	1
44	44	4
39	61	1
11	12	2
217	227	1
187	229	1
118	118	1
31	32	1
18	38	2
102	103	1
192	193	1
54	55	1
104	179	1
163	163	2
65	65	4
178	180	3
51	229	1
72	77	1
97	97	1
169	220	1
191	195	1
34	63	1
52	52	3
5	5	3
105	106	2
22	22	2
223	224	1
226	226	7
35	38	1
73	95	1
79	79	2
218	234	1
167	198	1
207	210	1
103	104	1
67	67	2
72	210	2
21	85	1
149	151	1
175	175	4
171	175	1
176	219	2
48	49	1
202	202	2
215	215	2
56	76	1
51	95	1
238	238	2
168	195	3
73	194	1
100	111	1
153	181	2
102	102	4
248	248	1
2	18	1
147	170	1
207	212	2
116	117	2
242	242	2
26	156	1
111	179	1
34	34	3
60	61	1
110	111	1
109	207	1
76	77	3
213	233	1
30	31	1
39	110	1
51	61	1
20	25	1
243	245	2
157	175	1
78	159	1
215	242	2
155	156	1
169	170	2
68	78	1
218	218	1
103	179	1
8	9	1
184	200	1
103	103	1
179	183	1
190	192	1
209	211	1
159	159	3
9	11	1
11	28	1
223	223	1
168	168	1
59	64	1
244	245	1
233	233	2
77	78	1
216	218	1
22	93	1
231	232	1
14	69	1
176	216	1
89	207	1
91	98	2
189	228	1
83	83	3
104	104	1
213	230	1
235	236	2
188	189	1
95	116	1
8	243	1
18	229	1
24	27	1
93	231	1
82	200	1
23	24	1
37	38	1
90	90	1
224	224	2
188	188	2
7	13	1
78	79	1
63	72	1
27	69	1
229	230	1
214	215	1
114	153	1
118	119	1
56	57	1
14	64	2
182	210	1
41	43	1
67	95	1
61	61	1
75	75	2
174	178	2
67	82	1
71	73	1
195	216	1
66	85	1
209	210	2
247	248	1
104	105	1
152	164	1
47	89	1
169	201	1
170	170	2
6	7	1
77	93	1
94	117	1
217	225	1
81	90	1
201	231	1
67	69	1
116	118	1
60	60	1
169	185	1
53	54	2
233	234	1
176	177	1
186	187	1
41	113	1
154	161	1
16	24	1
14	42	1
175	213	1
18	31	1
221	222	2
50	57	1
103	108	1
200	201	2
227	227	2
200	204	1
200	245	1
40	42	1
99	101	1
1	46	1
228	237	1
77	94	1
157	158	1
37	44	1
26	120	1
16	21	1
180	180	1
82	85	1
211	212	1
171	215	2
206	207	1
78	85	1
200	231	1
219	234	1
217	217	1
174	209	1
68	209	1
190	191	1
203	205	1
50	58	1
216	216	1
53	58	1
88	114	1
153	172	1
21	53	1
191	241	1
9	53	1
23	76	1
101	108	1
112	162	1
96	97	1
11	16	1
70	70	1
25	200	1
111	112	1
67	76	1
33	35	1
53	53	1
97	118	1
118	165	1
62	65	1
36	154	1
48	117	1
57	119	1
200	202	1
144	194	1
