11	11	4
133	133	4
79	88	1
106	107	2
2	2	3
79	80	1
112	112	6
120	120	5
134	134	3
0	6	1
15	35	2
80	80	5
34	34	4
44	44	9
63	63	4
78	82	1
43	51	1
57	58	1
111	111	3
33	33	7
121	121	2
129	129	3
85	85	5
54	54	5
89	89	4
27	27	8
29	29	2
92	92	2
109	109	4
106	111	1
79	87	2
130	131	1
123	127	1
122	122	4
99	99	5
102	102	8
13	14	2
108	111	1
9	9	5
75	75	2
47	76	1
17	19	1
64	64	3
110	111	1
16	24	1
124	124	4
16	17	2
14	15	1
130	130	7
77	78	3
19	19	4
28	28	4
75	76	3
21	23	1
68	68	1
119	120	2
5	5	1
53	77	1
13	13	3
24	24	3
7	7	2
129	131	1
129	132	2
106	106	2
16	16	2
7	8	2
111	112	3
73	73	10
1	1	3
78	78	5
45	45	5
34	36	1
98	98	7
60	62	2
91	105	1
105	105	3
115	115	1
72	72	6
69	69	4
69	70	1
6	6	2
119	124	1
114	114	5
110	110	5
71	79	1
71	71	3
23	23	2
95	96	3
21	21	4
73	112	1
103	103	5
124	127	1
3	4	2
117	117	4
35	35	3
9	15	1
86	86	4
95	95	4
80	99	1
3	3	5
74	74	3
43	43	3
53	53	2
61	97	1
59	110	1
96	96	2
13	23	1
4	4	1
108	110	1
122	123	1
116	117	1
132	132	2
93	93	3
34	38	1
8	11	1
95	100	1
25	31	1
79	79	4
45	76	1
77	77	3
116	116	4
48	48	1
100	108	1
107	107	2
16	19	1
87	87	3
86	87	2
104	104	3
94	97	1
82	82	3
50	50	5
66	67	3
30	34	2
21	22	2
15	18	2
20	22	1
112	113	1
133	134	1
16	18	1
90	90	1
36	36	4
31	32	1
0	1	1
86	118	1
127	127	2
119	134	1
94	94	3
93	124	1
113	115	1
59	59	5
99	102	1
125	130	2
61	73	1
88	88	3
59	64	1
76	76	4
54	55	1
101	101	3
26	26	2
90	104	1
66	66	4
46	46	1
38	38	1
14	78	1
28	35	1
49	77	2
123	123	3
36	37	1
113	114	2
104	121	1
118	118	1
132	133	2
33	34	1
8	8	4
35	37	1
86	124	1
64	65	1
49	49	1
62	63	3
75	98	2
62	85	1
49	50	1
58	78	1
60	60	3
97	97	2
119	119	1
76	77	1
52	53	1
114	115	3
90	113	1
37	55	1
63	64	2
36	43	1
113	113	1
100	105	1
121	122	1
22	22	2
25	25	1
46	47	1
49	52	1
43	54	2
35	43	1
135	135	1
97	98	2
70	70	4
30	30	1
125	125	2
20	20	2
106	124	1
56	56	3
48	57	1
52	52	2
21	28	1
65	87	2
94	95	1
81	81	2
62	71	1
63	107	1
57	57	1
65	65	2
25	35	1
66	68	1
82	85	1
99	101	1
89	93	1
9	10	1
1	87	1
52	54	1
81	87	1
32	32	1
93	94	3
91	91	2
78	79	1
62	62	2
118	119	1
8	16	1
10	10	1
124	125	1
82	83	1
120	123	1
84	84	2
20	23	1
38	39	1
4	7	1
75	78	1
86	109	1
115	116	1
61	61	1
79	121	1
12	14	1
28	36	1
68	69	2
67	67	1
60	61	1
6	10	1
91	125	1
114	119	1
108	108	1
14	14	2
26	32	1
94	101	1
13	50	1
126	127	1
55	55	1
31	31	1
65	115	1
15	16	1
52	61	1
2	3	1
67	117	1
127	128	1
