162	162	2
173	173	2
114	148	1
134	171	1
34	34	2
88	88	1
142	142	3
144	144	2
81	82	3
89	158	1
134	150	1
26	27	1
95	95	3
116	120	1
37	37	1
8	13	1
21	24	1
136	138	1
1	1	3
5	79	1
167	168	2
144	168	2
98	112	1
58	58	3
135	135	1
155	155	1
151	153	1
142	169	1
111	112	1
61	67	1
41	50	1
8	8	1
67	67	3
92	93	1
75	77	1
7	13	1
130	130	1
146	146	2
72	72	3
140	140	2
8	9	1
112	112	3
102	115	1
2	55	1
117	117	1
38	38	1
16	16	1
74	79	1
114	116	1
76	76	1
124	124	2
71	72	2
107	108	1
11	12	1
81	81	3
148	148	1
89	89	1
143	144	1
162	174	1
98	116	2
151	151	3
22	22	1
152	154	1
26	29	1
10	10	1
108	108	1
176	176	2
62	63	1
40	42	1
122	145	1
129	163	2
119	119	2
27	28	1
75	75	1
51	102	1
154	155	1
122	122	1
25	26	1
53	53	2
55	55	1
124	131	1
51	52	1
98	101	1
145	145	2
115	119	1
167	169	1
180	180	1
156	156	1
7	37	1
127	128	1
60	60	1
83	95	4
72	74	1
23	38	1
33	167	1
130	168	1
5	5	2
50	50	1
118	118	1
140	141	1
166	166	2
98	98	1
136	136	2
61	79	1
123	123	1
79	81	1
129	130	2
72	73	2
39	40	1
10	11	1
9	10	1
117	120	1
160	160	1
44	44	1
167	170	1
115	115	2
24	24	2
160	162	1
157	163	1
34	61	1
54	54	2
179	180	1
33	34	1
67	68	1
39	39	1
110	112	1
57	60	1
110	110	1
74	74	2
54	73	1
156	157	1
103	103	1
147	147	1
150	150	1
159	159	1
121	124	1
2	2	1
24	25	1
134	142	1
76	88	1
34	62	1
139	139	1
108	116	1
101	116	1
7	9	1
63	119	1
19	19	1
51	51	2
75	131	1
134	134	1
78	79	1
42	43	1
31	32	1
138	139	1
64	64	1
63	65	1
63	63	2
68	68	1
87	89	1
32	32	1
121	121	1
168	169	1
66	98	1
142	143	1
132	132	1
170	173	1
131	131	1
154	157	1
165	165	1
5	9	1
102	103	1
165	168	1
176	178	1
153	154	1
