168	168	2
125	138	1
113	113	2
70	86	4
177	181	1
15	122	1
119	119	5
154	154	2
8	171	1
65	75	1
34	34	2
185	186	2
57	136	1
134	134	2
2	8	1
172	172	4
104	104	2
180	196	2
28	31	1
9	9	3
76	116	1
5	27	1
145	159	1
197	197	2
144	144	3
193	193	5
187	187	5
66	66	1
47	47	5
8	9	1
23	23	2
123	124	2
128	128	4
171	172	1
27	27	2
125	125	2
2	2	3
37	39	1
168	169	1
97	97	1
40	41	2
18	18	1
194	195	3
120	133	1
45	45	4
129	129	1
62	123	3
57	57	1
38	38	4
144	146	1
182	185	1
29	29	2
100	100	1
174	174	1
138	138	3
39	39	1
2	32	1
164	193	1
49	50	1
139	139	2
157	158	1
43	44	2
178	178	2
12	12	4
17	17	3
158	158	1
44	44	1
186	186	4
46	46	1
116	126	1
104	176	1
70	71	2
140	145	1
50	50	1
195	195	3
126	127	1
145	147	1
18	28	1
149	152	1
138	139	1
141	141	1
78	89	1
30	30	2
32	32	4
115	115	1
132	132	1
65	65	2
114	115	1
19	23	2
175	175	1
26	26	3
7	7	3
147	148	1
126	126	3
107	176	1
163	164	1
99	107	1
22	23	1
114	119	1
116	119	1
156	172	1
133	133	1
136	136	1
48	48	2
55	55	2
184	184	3
43	140	1
104	105	3
116	117	2
43	43	1
161	161	1
94	99	1
0	0	1
41	41	5
0	35	1
58	58	2
114	114	1
119	141	1
165	168	1
81	83	1
121	122	1
96	97	1
59	71	1
60	80	1
42	42	2
122	122	1
4	6	1
155	155	1
187	188	1
33	34	1
160	161	3
31	31	1
41	45	1
31	32	1
116	118	1
156	156	3
59	59	3
37	38	1
189	189	1
30	31	1
106	106	2
164	164	1
101	101	2
21	22	1
164	166	1
0	1	1
179	180	1
79	83	1
56	132	2
15	16	1
100	101	1
120	120	1
171	171	4
36	36	1
11	11	1
53	105	1
160	160	2
61	66	1
127	128	1
93	102	1
123	123	1
109	109	2
142	144	1
102	103	1
22	22	1
170	170	3
63	63	1
16	18	1
9	10	1
165	165	1
196	196	2
36	37	1
124	124	1
108	108	3
181	193	1
175	179	1
130	130	2
94	94	1
79	80	1
146	146	1
179	179	2
53	53	1
137	156	1
141	156	1
149	149	1
112	113	1
191	192	1
119	129	1
28	28	1
107	108	1
5	5	2
126	128	1
143	143	1
143	144	1
24	24	1
6	8	1
71	71	2
132	157	1
186	187	1
85	87	1
137	137	3
66	126	1
27	28	1
194	194	1
169	169	1
82	116	1
145	146	1
133	134	1
4	19	1
98	98	1
140	140	2
56	60	1
183	183	1
153	153	1
102	102	3
69	69	1
10	10	1
152	152	1
12	149	1
131	131	1
122	133	1
188	188	1
24	28	1
180	180	1
98	175	1
21	169	1
118	118	1
90	90	1
182	182	1
112	112	1
37	136	1
159	159	1
26	30	2
67	67	1
19	20	1
85	85	1
19	76	1
154	165	1
61	68	1
15	15	1
105	114	1
64	153	1
100	107	1
137	139	1
