86	87	2
68	88	1
160	160	2
156	156	5
94	122	3
106	107	1
62	62	6
58	58	2
167	167	2
42	46	3
42	48	1
143	143	3
176	176	2
140	140	5
183	183	3
153	153	2
158	160	2
172	173	2
48	77	1
125	125	2
130	131	3
37	77	2
25	47	1
112	112	4
19	20	1
139	143	1
157	158	2
84	84	4
60	60	4
67	71	1
24	24	4
147	147	5
165	165	2
98	100	3
159	159	6
46	47	1
18	19	2
106	114	2
79	79	2
102	102	2
10	25	1
30	31	1
109	110	3
190	190	4
136	136	2
98	165	2
181	181	3
23	23	1
57	57	4
99	134	1
86	110	1
135	137	3
121	121	5
136	147	1
6	6	2
68	71	1
149	184	1
19	23	2
91	91	2
146	160	1
173	173	1
29	30	2
62	63	1
136	162	1
30	30	1
95	183	1
47	47	2
20	22	1
175	181	2
22	22	3
74	100	2
176	182	1
7	45	1
88	146	1
98	99	1
137	138	2
92	119	2
115	162	1
41	41	2
20	21	2
185	185	3
10	10	3
13	14	4
63	75	1
135	135	2
65	83	1
21	21	2
91	92	3
73	73	2
39	39	6
98	98	1
181	189	1
87	90	2
59	60	2
6	8	1
30	32	2
130	173	1
127	127	3
106	106	4
93	93	1
107	107	1
154	176	1
68	68	5
139	139	4
40	40	2
150	181	2
11	33	1
24	85	1
113	113	3
58	60	1
104	109	1
8	14	2
112	129	1
187	187	2
101	101	3
138	151	2
9	10	2
16	17	3
37	40	1
45	48	1
61	92	1
178	178	3
177	182	2
108	108	2
118	132	1
30	34	2
103	103	3
4	19	1
96	182	1
142	142	1
66	67	3
138	177	2
12	23	1
19	22	1
120	145	2
94	104	1
148	160	1
25	25	2
12	16	1
81	81	1
59	72	1
155	158	1
95	131	1
121	126	1
161	179	3
3	6	2
149	175	1
68	86	1
117	118	1
163	163	1
61	61	1
188	188	1
105	105	2
76	76	2
83	83	1
116	130	2
97	175	3
84	86	1
64	64	2
104	162	1
85	85	3
120	120	1
46	58	2
95	95	3
122	122	5
169	169	1
11	11	3
98	101	1
93	112	1
1	8	1
103	111	1
70	70	2
18	18	3
117	117	1
177	177	3
182	182	3
89	89	2
21	22	3
179	179	2
99	100	2
167	169	2
77	166	1
10	13	1
118	119	1
22	27	3
186	186	3
160	161	1
111	111	1
13	22	1
45	45	2
0	30	3
91	150	1
41	74	1
140	142	3
95	97	1
34	44	1
67	125	1
19	19	5
20	46	1
0	0	1
187	188	1
65	65	1
31	31	2
155	157	2
153	156	1
65	68	1
164	164	2
12	12	1
144	151	1
171	173	1
13	13	2
96	99	1
11	12	1
3	3	1
17	20	2
174	174	3
88	88	2
36	80	1
112	171	1
141	157	1
118	124	1
52	64	2
20	20	1
68	73	1
94	95	1
104	113	2
85	149	1
61	72	1
154	154	1
85	131	1
16	16	2
12	13	1
44	44	1
92	137	1
95	121	1
117	175	1
128	128	1
134	134	2
132	134	1
157	171	1
142	173	1
113	114	1
36	37	1
17	35	1
62	65	1
123	166	1
97	97	1
100	100	1
101	107	2
5	25	1
132	132	1
90	156	1
74	111	2
90	95	1
154	155	1
41	45	2
162	177	1
67	107	1
26	40	1
170	170	1
67	67	1
134	135	2
31	33	1
21	32	2
26	26	1
36	36	2
65	73	1
171	171	1
64	66	1
138	150	1
41	53	2
147	148	1
55	55	1
95	96	1
56	57	1
62	87	1
183	190	1
115	116	1
180	180	3
34	46	1
96	98	1
142	166	1
150	180	2
110	110	2
123	153	1
78	82	2
157	157	1
175	176	1
75	75	1
80	88	1
35	35	2
109	109	1
5	5	1
116	133	1
71	71	1
123	125	1
1	1	1
54	54	1
107	158	1
53	187	1
103	104	1
123	123	1
115	115	1
134	149	1
178	180	1
120	126	1
134	150	1
133	148	1
104	116	1
33	37	1
87	88	1
27	27	1
66	133	1
105	106	1
170	174	1
45	100	1
116	158	1
42	42	1
42	54	1
37	37	2
46	60	1
106	180	1
119	119	1
123	124	1
163	164	1
109	149	1
34	36	1
175	182	1
0	146	1
20	56	1
155	156	1
43	47	1
7	7	1
27	30	1
96	97	1
90	91	1
47	100	1
14	14	1
133	168	1
54	184	1
6	66	1
77	77	1
168	168	1
139	154	1
10	11	1
72	74	1
2	2	1
78	78	1
