141	144	2
76	76	4
94	94	9
168	168	1
48	73	1
0	0	7
47	97	2
182	182	9
39	39	3
98	98	1
179	180	3
104	139	2
153	154	1
18	18	4
119	119	3
124	124	7
161	163	1
160	160	2
112	145	3
53	53	4
156	156	2
56	56	6
66	67	2
112	114	2
55	55	4
35	35	3
40	40	5
158	161	2
144	144	4
41	41	5
89	89	4
175	175	3
155	155	2
70	70	2
29	32	2
88	89	2
2	5	1
166	166	3
164	164	7
76	78	3
102	102	8
157	157	2
92	93	3
53	90	1
179	179	4
28	73	1
60	61	1
68	68	5
68	141	1
110	110	5
24	24	5
37	38	1
37	37	5
142	142	4
150	150	2
147	147	6
94	122	2
100	100	3
111	111	8
87	100	1
94	123	1
17	17	9
170	170	3
87	87	5
24	25	3
11	11	4
26	26	8
19	19	3
108	113	1
27	34	1
108	108	4
112	112	3
186	186	6
36	36	5
36	109	1
117	117	3
174	174	5
171	171	3
137	137	5
10	10	7
154	155	1
16	16	3
176	176	3
169	169	6
101	102	3
126	126	1
100	102	1
173	174	1
42	43	1
28	28	2
87	129	1
97	98	3
113	113	6
97	100	1
103	104	2
93	128	1
88	88	5
146	146	3
140	140	7
172	173	1
91	91	1
134	134	1
140	151	2
79	80	2
156	190	1
187	188	1
38	39	4
106	107	2
46	46	4
90	90	3
129	129	3
17	26	1
43	43	5
58	58	5
77	77	8
81	125	1
62	63	2
188	188	3
71	151	2
61	61	1
41	110	2
135	135	3
132	133	2
152	152	3
53	94	1
175	176	1
48	48	5
81	124	1
175	178	1
12	13	1
54	109	1
187	190	1
74	76	2
101	101	1
112	113	1
36	37	1
42	42	5
10	29	1
119	144	1
76	77	2
185	185	3
57	58	1
165	168	1
74	75	1
158	160	1
79	79	5
15	15	4
33	34	1
123	124	3
120	121	1
80	80	4
162	162	1
57	57	3
45	46	1
167	167	6
136	136	2
96	104	1
123	123	2
84	84	2
65	66	1
92	125	2
114	114	3
160	162	1
175	177	1
74	74	6
183	183	7
61	139	2
126	127	2
21	22	1
189	190	1
101	137	1
63	63	5
135	155	2
135	137	1
54	95	2
68	90	2
138	139	1
165	165	2
177	177	1
130	130	4
33	35	1
106	106	7
56	71	1
83	83	6
177	180	2
25	25	5
4	84	3
58	64	1
117	122	2
107	113	1
145	146	1
8	8	2
86	86	3
47	48	2
13	20	1
141	143	1
67	67	2
57	108	1
80	125	1
113	114	1
103	103	3
14	14	1
5	5	4
30	32	2
133	133	1
11	12	1
38	38	3
71	71	5
48	54	4
127	127	1
148	148	4
154	157	1
153	153	2
75	75	2
27	30	3
115	116	1
99	106	1
56	98	1
109	109	1
82	82	5
126	150	1
172	172	2
11	27	1
142	143	1
59	72	2
137	138	1
121	121	2
59	74	2
184	184	1
22	24	1
63	138	1
3	5	1
149	149	3
47	47	4
44	46	1
171	172	1
185	186	1
124	147	2
99	99	4
184	185	3
33	73	1
86	87	2
71	72	1
59	64	2
162	174	3
70	71	1
15	16	1
108	109	3
82	83	1
71	95	2
16	17	2
110	111	2
107	108	1
147	149	1
105	105	3
78	78	4
131	131	1
56	73	1
178	182	1
176	177	1
27	28	3
139	139	5
190	190	2
56	116	1
6	175	1
120	120	3
41	107	1
95	129	2
122	122	4
117	172	2
56	88	1
179	181	1
145	145	5
143	143	3
23	23	3
91	94	1
7	8	1
19	20	2
66	75	2
173	173	2
141	141	3
178	178	2
100	105	1
158	158	1
13	15	1
30	31	1
128	128	4
33	33	2
149	150	2
56	74	2
119	120	1
7	7	2
43	47	1
154	154	4
181	181	2
125	125	2
161	161	1
87	88	1
41	42	3
85	85	2
104	104	2
26	58	1
81	81	1
159	159	2
1	2	1
39	40	2
6	6	3
32	33	2
103	106	1
79	122	2
69	69	2
40	41	1
146	147	1
60	60	1
99	111	2
105	106	2
53	71	1
167	186	1
71	128	1
52	69	1
158	162	1
134	170	2
13	13	1
34	34	2
111	148	2
118	119	2
43	44	1
180	180	1
38	48	1
54	54	3
168	173	1
3	3	2
27	43	1
187	187	2
34	35	1
45	74	1
66	66	1
157	158	1
53	54	2
182	185	1
131	133	1
169	170	2
164	165	2
79	129	1
40	54	1
155	156	1
47	110	1
114	115	1
53	93	1
26	46	1
159	160	1
44	44	1
73	73	2
20	20	2
38	47	1
123	151	1
83	84	2
9	9	2
12	12	1
154	169	1
61	136	1
28	32	1
1	1	1
2	3	1
93	94	1
107	148	1
95	96	1
151	151	1
65	78	1
30	30	1
27	27	1
45	53	1
119	145	2
93	93	1
31	32	1
29	33	1
102	103	1
97	99	1
92	92	2
120	122	1
162	175	1
88	164	1
143	144	1
26	27	1
72	72	1
148	149	1
81	82	1
116	118	1
108	114	1
29	47	1
4	4	1
116	116	1
60	63	1
