124	124	4
22	22	2
5	5	1
69	70	2
46	130	1
158	158	2
105	105	3
87	139	1
49	49	1
15	53	2
50	50	1
123	146	1
125	126	1
1	1	3
137	138	1
133	133	4
21	21	2
123	123	2
109	109	2
134	134	1
112	112	5
131	131	2
156	156	3
10	10	3
22	50	1
122	122	1
4	4	2
50	51	1
69	69	1
126	148	2
107	107	2
15	16	1
155	155	1
87	87	2
84	86	1
104	104	3
24	24	4
97	121	1
96	119	1
86	87	1
62	86	1
98	98	2
36	36	2
33	47	1
78	78	4
130	130	3
118	118	4
74	156	2
8	17	1
41	41	2
144	157	2
67	68	1
157	157	2
101	143	1
151	151	2
56	154	1
24	28	1
148	148	4
130	138	1
139	140	1
132	132	3
117	127	2
80	80	3
25	25	3
19	22	1
8	8	1
27	124	2
114	114	1
18	18	1
113	113	4
14	16	2
68	69	1
77	120	1
108	109	1
143	143	1
20	20	2
139	139	4
24	25	1
24	30	1
99	99	1
75	75	2
28	28	2
25	27	1
8	133	2
15	34	1
18	19	1
91	118	1
77	77	2
67	151	1
112	148	1
152	152	2
85	85	2
68	68	2
40	40	1
35	35	2
105	117	1
116	117	2
65	65	1
128	129	1
77	78	2
115	115	2
50	126	1
54	55	1
74	100	1
61	61	1
135	135	2
86	86	1
153	153	1
2	22	2
57	57	1
9	10	3
27	28	2
7	28	1
111	126	1
128	128	1
106	128	1
108	111	2
93	93	2
103	103	1
17	21	1
17	18	1
67	67	2
89	89	2
21	22	1
38	38	2
147	147	1
48	50	1
94	94	2
42	42	3
126	135	1
88	88	1
18	48	2
129	130	1
27	27	1
69	106	2
56	56	2
2	2	1
91	91	2
136	136	1
30	30	1
125	138	1
84	84	1
109	136	1
131	133	2
126	147	1
15	15	1
54	54	1
120	121	1
27	136	1
17	17	1
29	114	1
71	71	1
100	100	2
24	26	1
68	70	1
41	61	1
81	86	1
3	4	1
34	34	1
101	101	1
31	32	1
113	122	1
31	31	2
114	148	1
129	132	1
14	14	1
79	82	1
83	84	1
127	127	1
116	126	1
106	116	1
43	43	1
67	70	1
10	12	1
128	130	1
16	16	1
