60	189	1
112	112	6
10	11	2
82	82	6
118	118	1
69	69	2
12	12	3
209	219	2
26	31	1
242	242	2
221	221	2
7	7	3
82	83	1
63	64	1
237	237	4
81	81	1
155	155	1
99	241	1
92	94	1
206	206	1
180	180	1
96	96	2
60	190	1
196	196	1
226	226	2
27	27	2
219	219	1
45	45	1
75	75	2
246	246	1
95	95	2
153	159	2
247	247	2
38	43	1
84	84	2
54	207	1
85	85	4
63	63	2
223	223	1
161	161	1
229	229	1
222	222	3
38	38	2
37	37	4
81	102	1
58	58	4
67	74	1
22	58	1
175	175	2
1	31	1
16	38	1
7	12	1
176	176	1
44	44	4
56	56	1
76	87	1
227	227	1
6	6	1
67	68	2
25	25	3
11	11	9
151	151	4
80	80	1
28	28	2
168	171	1
79	85	1
172	173	1
86	88	1
78	79	1
92	92	2
48	49	3
190	191	1
186	213	2
51	52	1
109	109	2
198	198	2
63	114	1
172	172	1
183	183	5
4	4	2
19	19	3
99	99	5
245	245	1
191	191	1
190	190	3
189	190	1
40	40	2
200	200	4
35	35	1
50	50	1
166	189	2
114	114	1
224	224	1
30	30	1
7	209	1
48	48	2
239	239	2
22	22	2
240	240	3
47	151	1
152	152	1
73	73	1
63	226	1
41	44	1
186	188	1
186	186	3
167	167	3
9	9	1
8	12	1
61	62	1
38	44	1
179	180	1
101	101	2
71	74	1
238	238	3
104	104	2
32	32	1
52	53	1
35	37	1
10	10	2
42	42	2
76	76	4
202	202	1
234	235	1
210	211	2
244	245	2
30	31	1
166	190	1
184	184	2
213	213	1
80	81	2
212	212	4
78	78	2
65	67	4
234	234	3
218	219	1
66	72	2
77	78	2
185	185	3
179	181	1
214	239	1
17	17	1
230	230	2
205	206	1
146	147	1
20	20	1
211	211	2
119	119	1
39	39	1
86	87	3
243	243	1
174	178	1
78	87	1
61	61	3
59	59	2
177	177	2
55	56	1
55	198	2
173	173	6
95	100	1
214	216	1
164	164	1
97	240	1
102	102	1
117	117	3
165	165	1
6	7	1
94	94	1
116	116	2
157	157	3
213	239	1
18	18	2
24	47	1
90	90	1
49	107	1
69	71	1
83	83	1
181	181	1
156	157	2
30	112	1
41	41	2
33	33	2
187	195	2
168	168	3
195	195	1
203	203	2
46	46	1
228	228	2
15	15	1
115	115	2
236	236	2
146	146	1
16	16	1
95	107	1
163	163	1
90	211	1
108	108	1
67	67	2
221	222	1
151	203	1
207	207	2
93	93	1
64	64	2
21	21	3
150	150	1
88	88	1
59	95	1
26	26	1
53	53	1
93	109	1
213	242	1
58	228	1
37	38	1
149	150	1
161	173	1
100	224	1
8	8	1
70	70	1
201	201	2
162	180	1
169	214	1
216	218	1
97	106	1
91	91	3
72	73	1
4	15	2
48	201	1
60	225	1
54	54	1
17	18	1
244	246	1
187	187	1
78	80	1
245	246	1
217	217	1
235	235	1
13	14	1
162	162	1
104	106	1
36	36	1
42	43	1
52	52	1
113	113	1
65	115	1
208	208	1
110	110	1
34	34	1
193	193	1
93	94	1
147	147	1
53	54	1
1	1	1
84	85	1
51	51	1
59	228	1
216	216	1
44	145	1
160	160	1
166	196	1
