66	67	1
131	133	1
56	57	1
79	79	1
3	3	7
128	129	1
11	62	2
150	150	3
13	13	12
127	127	4
113	113	2
38	38	4
77	77	4
66	75	1
131	132	1
85	86	1
145	145	2
105	107	3
105	106	1
112	113	1
115	117	1
84	84	3
100	107	1
40	40	2
133	134	1
12	12	4
130	130	2
143	144	1
57	57	3
99	99	2
120	154	1
115	115	1
141	141	2
90	135	1
30	30	3
67	67	1
68	68	1
73	109	1
47	47	5
4	5	3
135	135	7
48	48	7
147	147	3
105	105	4
53	54	2
11	11	4
9	9	3
73	73	1
67	74	1
153	154	2
22	22	3
103	105	1
42	43	1
152	152	4
25	25	3
128	128	5
27	27	1
99	107	4
103	103	6
110	112	1
125	127	1
85	93	1
37	130	1
71	71	4
11	14	1
22	36	1
71	116	3
6	11	1
23	35	1
97	139	1
97	99	2
22	35	2
108	108	2
82	83	1
14	20	1
154	154	3
109	110	2
69	70	1
97	97	2
114	114	4
31	32	4
41	42	2
16	16	7
123	125	2
19	19	5
65	66	1
45	63	1
146	147	1
34	56	1
108	109	2
32	32	1
27	32	2
126	126	3
128	148	2
21	42	1
25	55	2
136	136	2
108	110	1
40	41	3
133	148	1
106	106	2
121	146	2
112	114	1
113	115	1
133	133	3
121	121	3
115	127	2
68	69	1
109	109	3
56	58	1
32	53	1
145	146	4
95	147	1
88	88	1
6	6	3
77	129	1
43	43	2
12	13	3
41	41	4
144	144	2
107	108	1
102	102	2
83	83	3
100	132	2
141	143	2
136	137	8
147	148	1
85	116	2
45	109	1
15	15	5
55	56	1
33	33	2
86	137	2
64	64	2
56	56	1
123	127	1
27	29	1
115	116	2
42	42	3
72	72	4
137	137	1
87	87	1
146	146	2
50	50	2
103	106	3
6	7	1
68	117	2
102	146	1
136	144	2
25	26	1
28	28	2
82	82	2
101	101	3
122	147	1
27	28	3
99	100	2
5	5	1
141	144	1
86	86	2
4	4	3
69	69	2
42	45	1
132	132	2
78	122	1
67	68	1
31	31	4
129	130	4
20	20	1
63	63	1
16	50	1
78	78	2
23	24	1
86	87	2
139	139	1
19	20	1
17	17	2
36	36	3
93	94	1
151	151	2
70	116	1
45	45	1
131	131	4
82	154	1
74	82	2
14	19	1
142	151	1
38	39	1
93	95	2
119	122	1
119	119	1
67	69	2
15	40	1
110	110	2
139	141	1
53	53	5
107	107	2
102	103	2
144	150	1
19	71	2
20	29	1
76	77	2
57	89	1
95	97	1
75	77	1
33	34	2
149	149	1
32	56	1
85	85	1
54	54	2
120	148	1
25	36	1
123	123	3
44	44	1
17	19	1
49	49	1
42	46	1
8	8	3
66	66	2
100	101	1
102	114	1
43	44	1
65	65	1
27	31	1
70	117	1
122	122	3
6	10	1
51	51	1
63	64	1
130	135	1
120	121	1
116	116	2
22	37	1
32	64	1
137	138	1
86	92	1
67	84	1
83	94	1
138	139	2
20	43	1
148	148	1
57	64	1
77	78	2
18	56	1
14	14	5
3	64	1
136	138	1
23	23	1
96	98	1
13	15	1
120	120	2
30	43	1
12	15	1
39	39	2
21	25	1
80	80	1
62	64	1
111	113	1
71	73	2
33	53	1
95	96	1
67	118	1
100	100	1
137	145	1
102	105	1
7	11	1
79	85	2
35	35	1
26	26	1
46	46	2
50	52	1
50	51	1
143	143	2
28	29	1
69	74	1
96	96	1
62	63	1
100	102	1
85	119	1
153	153	1
26	44	1
92	93	1
13	18	1
62	62	1
29	29	1
38	54	1
31	44	1
38	63	1
31	53	1
75	76	1
125	125	1
19	57	1
78	80	1
129	129	1
7	8	1
133	141	1
24	45	1
20	21	1
124	125	1
26	27	1
119	129	1
36	63	1
97	130	1
88	91	1
