58	58	7
96	96	5
39	71	1
106	110	2
67	67	6
175	182	1
61	62	2
160	160	3
6	7	2
101	120	1
127	128	3
45	46	1
73	139	2
126	126	8
175	176	3
35	35	1
23	23	7
128	128	7
10	122	1
11	13	1
120	120	4
23	113	2
167	179	2
157	157	6
194	194	9
189	189	2
16	185	1
53	53	6
179	179	6
114	114	5
178	178	2
129	131	1
187	187	6
55	65	2
41	41	4
47	47	3
76	76	5
26	26	6
38	118	1
59	59	3
48	48	7
45	45	7
177	177	10
44	45	2
42	119	1
70	70	4
115	115	1
153	153	4
32	32	5
83	83	1
17	20	2
52	52	5
183	184	2
122	131	1
185	186	3
10	10	2
118	118	2
10	11	2
38	39	3
62	62	2
193	193	6
173	173	6
98	98	2
105	105	7
149	149	12
2	3	3
142	142	6
9	14	1
31	31	4
8	8	3
136	136	3
171	172	3
132	133	2
29	60	2
123	123	4
15	15	4
138	138	6
43	43	3
37	37	5
51	61	2
71	71	3
160	161	4
23	24	3
5	5	7
129	129	6
100	100	9
39	39	3
22	22	6
152	152	10
175	175	4
3	3	3
54	72	1
25	138	3
12	12	4
116	116	5
28	28	5
171	171	6
147	147	2
21	21	3
178	179	2
141	141	5
29	29	2
23	57	2
49	49	9
54	54	5
118	119	1
44	44	9
144	145	2
78	78	2
33	33	7
14	14	2
90	109	2
16	16	4
72	72	2
34	34	4
4	4	5
19	21	1
75	76	1
64	64	3
7	8	2
46	46	5
22	121	1
144	144	3
102	102	4
39	53	1
127	127	4
4	5	1
139	140	1
196	196	5
82	82	3
84	86	1
29	51	2
106	106	5
191	191	5
176	176	2
105	166	1
31	32	4
69	69	4
97	161	2
123	125	2
188	190	2
29	58	1
197	197	3
0	0	4
18	18	3
176	177	3
174	174	3
57	57	5
188	188	4
140	140	6
88	88	2
167	180	3
195	195	5
178	187	1
181	182	1
40	159	1
89	89	5
142	148	1
134	134	2
67	81	1
12	25	2
9	9	3
167	168	4
151	151	4
146	146	1
112	112	3
4	73	1
119	119	3
123	127	2
36	36	3
81	82	1
47	124	1
114	123	2
143	143	4
105	167	1
52	57	2
3	4	2
108	109	3
113	113	7
66	66	2
2	2	5
38	119	1
107	107	3
13	13	3
130	131	2
20	21	1
114	115	2
108	108	4
183	187	1
131	132	1
144	150	1
107	112	1
167	169	1
133	141	2
168	193	4
102	115	2
72	139	2
185	187	1
2	117	2
156	156	4
99	100	3
162	162	3
55	55	6
183	183	3
128	196	1
30	30	3
167	190	2
63	63	5
40	40	5
93	93	1
95	95	3
62	68	1
47	48	1
128	129	1
97	97	3
150	150	3
187	188	2
184	184	5
32	72	1
167	167	3
87	88	1
172	172	7
153	154	2
186	186	2
97	100	1
108	111	1
126	138	3
103	154	2
173	174	1
159	160	3
12	34	1
24	27	1
137	137	5
10	14	1
99	99	5
124	124	2
180	180	3
96	111	1
133	134	2
122	122	1
192	193	1
134	135	1
139	139	2
61	61	2
145	146	1
39	69	1
50	51	2
136	151	2
132	132	3
9	11	2
41	42	2
38	38	3
1	1	2
11	11	2
121	122	1
22	23	1
155	159	1
86	87	1
119	126	1
116	120	1
130	196	1
136	137	1
107	108	3
174	175	1
54	65	1
96	97	1
172	174	1
146	148	1
101	101	5
120	176	1
54	66	1
42	54	1
112	113	2
9	72	1
194	195	3
28	30	2
68	68	2
67	79	1
49	50	1
102	104	1
109	109	1
154	154	1
11	12	1
182	182	3
124	127	1
98	108	1
158	161	2
25	25	2
141	142	2
20	120	1
80	80	2
151	152	2
166	180	1
159	159	2
153	155	3
0	1	1
135	151	1
133	133	1
105	106	1
55	56	4
48	49	1
125	125	1
23	121	1
111	111	3
179	180	2
120	151	1
73	74	1
96	110	1
142	143	2
13	14	2
42	42	3
47	53	1
159	162	2
56	56	4
101	104	1
169	169	2
9	10	1
86	86	3
135	135	1
51	51	3
55	139	1
85	86	1
10	12	1
155	157	2
130	130	1
73	73	4
52	53	1
97	157	1
20	20	2
158	158	1
2	115	1
182	184	1
56	67	1
95	97	1
155	155	6
58	59	2
51	129	1
95	158	1
15	16	1
62	86	1
119	120	1
166	166	1
162	164	1
146	149	1
9	122	2
181	181	4
81	88	2
25	73	1
170	170	1
65	69	2
112	151	2
7	7	1
35	112	1
79	79	1
94	94	2
59	60	1
192	192	2
27	27	2
18	121	1
24	24	2
147	148	1
77	77	1
5	8	2
20	121	1
96	99	1
60	60	2
17	18	1
28	144	2
172	178	1
94	96	1
71	72	1
59	88	1
28	31	1
106	167	1
58	140	1
23	25	1
42	53	1
128	144	1
179	188	1
170	171	1
196	197	1
38	46	1
146	147	1
5	115	1
17	17	2
106	111	1
37	38	2
148	148	1
4	118	1
159	169	1
135	136	2
31	62	1
137	138	1
8	37	1
69	72	1
115	118	1
149	150	1
39	40	2
56	139	1
103	103	1
130	137	1
168	170	1
96	151	1
158	159	1
88	93	1
183	188	1
98	157	1
179	185	1
116	117	1
65	65	1
176	183	1
19	114	1
100	101	1
190	191	1
26	75	1
95	96	2
131	131	3
33	112	1
97	121	1
63	70	1
113	118	1
3	8	1
17	155	1
175	181	1
79	94	1
43	44	1
167	172	1
25	80	1
63	68	1
75	138	1
6	87	1
35	36	1
22	79	1
121	121	2
8	88	1
100	106	1
19	20	1
191	192	1
48	52	1
6	6	1
155	156	1
111	112	1
30	31	1
159	161	1
18	120	1
19	19	2
161	161	1
40	41	1
47	125	1
74	139	1
77	78	1
64	79	1
72	73	1
3	117	1
94	163	1
76	82	1
27	39	1
125	126	1
