151	151	3
68	68	5
37	37	2
144	144	5
0	0	1
102	111	2
170	170	2
0	24	1
181	181	1
148	162	2
96	96	2
174	185	1
70	70	3
115	115	2
9	180	1
185	186	2
4	5	2
158	161	2
138	138	2
84	84	3
118	118	3
33	194	1
166	173	1
1	1	3
39	41	1
106	106	2
45	48	1
143	173	1
114	115	1
80	146	1
127	140	1
145	145	1
8	133	2
14	14	3
124	124	2
15	15	2
49	49	7
146	146	3
148	193	1
53	53	2
161	173	1
5	5	3
137	138	2
159	159	3
142	151	1
82	83	2
103	103	1
7	18	2
120	120	2
191	191	3
135	135	1
117	176	1
155	155	3
183	183	3
173	175	1
126	157	1
178	178	2
9	38	1
120	126	3
129	129	1
78	78	2
76	77	2
108	108	3
140	140	2
123	123	3
3	19	1
46	114	1
64	64	4
51	51	2
20	20	1
19	19	1
31	31	3
136	136	2
95	95	1
94	94	1
9	69	1
108	111	1
171	171	3
142	142	1
142	183	1
39	39	1
37	76	1
167	167	5
143	143	2
66	66	3
33	149	1
64	86	1
94	95	1
107	107	4
188	188	1
2	2	3
175	175	1
133	133	7
132	132	1
67	68	1
26	76	1
21	21	5
168	169	1
158	172	1
192	192	1
32	32	5
185	185	3
197	197	2
68	84	1
182	182	4
128	128	4
109	116	3
9	9	3
129	133	1
177	178	1
145	146	1
134	134	2
99	99	1
134	139	1
116	116	3
12	12	1
77	77	4
121	122	1
25	25	2
174	175	2
11	185	1
33	41	1
85	85	3
70	71	1
55	55	3
57	57	2
165	180	1
147	148	2
25	27	1
119	132	1
67	67	1
59	86	2
117	164	1
136	137	1
43	46	1
48	48	4
5	7	1
167	188	1
79	79	2
10	10	1
34	34	3
191	192	1
8	94	1
150	150	2
139	197	1
4	4	2
69	69	2
26	26	2
50	50	2
62	62	1
65	166	1
150	161	1
102	102	1
36	58	1
52	52	1
176	182	1
63	68	1
76	76	4
132	161	1
12	47	1
90	90	1
117	117	1
161	161	2
78	79	2
137	137	1
147	147	3
9	24	1
63	167	2
44	44	3
177	177	1
63	63	2
184	184	4
174	182	1
5	41	2
68	74	1
20	21	1
113	175	1
123	136	1
69	70	1
98	121	1
77	120	1
157	157	3
148	151	1
125	138	1
13	59	1
97	99	1
125	128	1
93	93	2
108	116	1
98	98	5
130	196	1
153	161	1
35	35	3
193	193	3
182	184	1
2	3	1
116	135	2
17	17	1
18	18	5
17	23	1
124	134	1
72	72	1
24	30	2
40	41	1
74	75	2
98	119	1
121	121	3
196	196	1
160	177	1
13	13	1
150	151	1
93	153	1
15	16	1
66	71	1
100	143	1
87	88	1
14	188	1
54	61	2
38	45	1
18	23	1
84	85	1
162	162	1
133	134	1
141	141	2
32	132	1
179	179	3
61	122	1
140	150	1
45	49	1
58	58	2
120	121	1
61	67	1
11	11	3
77	78	1
106	107	1
163	174	1
175	176	2
45	45	4
64	65	1
180	180	2
169	169	1
122	122	1
102	104	1
4	55	1
131	138	1
61	61	2
47	47	2
60	60	1
116	120	1
46	46	2
95	96	1
164	192	1
131	131	3
9	48	1
105	105	1
190	190	1
110	154	1
32	33	1
103	144	2
58	59	1
187	187	2
6	157	1
138	139	2
2	5	1
139	140	1
88	88	2
96	106	1
189	189	2
58	72	1
166	167	1
83	186	1
87	158	1
163	163	1
127	149	1
81	86	1
33	33	1
24	61	1
47	66	1
28	29	2
53	54	2
26	27	1
110	110	3
176	176	2
172	172	4
6	7	2
127	127	1
100	159	1
109	109	5
21	22	2
30	30	1
17	38	2
163	164	1
102	160	1
111	111	3
107	108	1
20	38	2
1	151	1
13	167	2
85	104	2
42	46	1
154	157	1
83	83	1
32	193	1
12	17	1
82	84	1
144	147	2
181	182	1
17	46	1
62	89	1
74	74	1
41	41	1
168	168	2
39	86	1
25	26	1
73	73	1
87	87	1
74	110	1
33	69	1
78	83	1
163	165	1
20	26	1
56	56	2
70	72	1
65	65	2
37	186	1
3	151	1
141	197	1
54	54	2
148	178	1
1	2	1
142	172	1
12	46	1
38	38	1
187	190	1
89	89	3
53	144	1
103	111	1
169	182	1
83	87	1
101	101	1
145	154	2
7	7	2
126	126	1
147	159	1
166	190	1
162	164	1
132	135	1
130	130	1
103	104	1
79	80	1
9	29	1
40	42	1
105	106	1
47	182	1
119	119	1
149	149	1
67	70	1
100	102	1
145	148	1
99	178	1
158	158	1
15	45	1
14	167	1
28	94	1
31	33	1
81	81	1
9	47	1
109	110	1
171	183	1
17	18	1
16	16	2
136	142	1
139	139	1
152	173	1
82	104	1
16	34	1
47	101	1
141	184	1
142	143	1
83	103	1
22	22	1
157	191	1
176	177	1
38	44	1
