117	119	1
75	77	1
1	87	1
95	95	2
84	85	2
115	115	7
124	124	2
23	23	3
114	120	1
118	118	7
82	82	6
13	13	5
114	114	2
108	108	3
113	113	7
101	124	1
96	96	7
74	74	6
80	123	1
88	88	2
76	76	2
102	102	5
37	38	3
8	22	1
83	87	1
32	32	3
35	37	1
19	19	4
121	121	5
103	104	1
84	94	2
110	132	1
96	97	1
101	101	3
37	37	6
135	135	7
129	129	4
94	111	1
105	105	2
1	76	1
111	111	4
21	21	4
125	125	2
132	132	5
83	121	2
89	99	1
84	116	2
100	100	7
84	87	1
4	79	1
4	4	6
95	97	2
17	18	2
106	106	4
122	122	4
19	71	1
10	12	1
16	17	2
95	129	1
84	84	5
15	15	4
116	120	1
90	94	2
6	94	1
97	100	1
8	8	3
10	13	2
78	78	1
28	80	1
77	77	2
38	38	12
137	138	3
21	22	1
22	22	7
99	101	2
36	37	2
6	6	5
12	28	1
101	102	2
89	91	2
36	36	6
127	128	1
4	115	1
22	23	3
6	32	1
20	20	5
124	129	1
114	133	1
5	6	2
77	129	1
130	130	3
100	101	2
89	90	2
75	76	2
99	99	2
29	29	3
83	118	1
91	94	2
94	94	4
11	12	1
33	111	2
9	9	3
93	93	5
115	116	2
4	128	2
16	18	1
21	32	1
14	15	1
131	131	2
139	139	4
83	83	3
128	128	5
26	27	2
86	86	3
16	98	1
132	133	1
35	36	1
127	127	4
87	112	1
96	131	4
7	7	8
16	73	1
87	87	4
92	93	3
13	17	1
134	138	1
134	134	6
112	112	4
126	126	5
138	138	1
72	72	1
18	18	5
27	27	4
136	136	1
3	3	4
98	98	4
16	110	1
85	96	1
27	31	1
75	75	5
26	123	1
7	12	1
81	81	3
105	116	1
123	123	5
73	78	1
15	31	1
116	116	5
32	129	1
2	3	2
130	131	1
7	26	1
110	111	3
26	32	1
96	132	1
21	71	1
131	132	1
0	0	4
10	30	1
71	112	1
85	110	2
108	111	2
17	17	3
34	34	7
110	110	4
25	25	2
90	90	5
87	104	2
119	119	3
28	28	4
33	34	2
81	120	1
75	81	1
132	135	1
114	124	1
4	16	1
91	92	1
107	107	2
140	140	2
9	24	1
72	84	1
129	130	1
28	75	2
133	133	1
128	129	1
16	16	4
108	110	1
35	35	1
18	21	1
120	120	2
121	122	2
5	5	3
18	29	1
112	115	1
28	29	1
79	133	1
34	96	2
18	19	3
116	118	3
2	8	2
12	31	1
80	97	2
105	106	2
19	21	2
73	74	2
26	77	1
71	71	5
86	113	2
14	14	6
7	13	1
31	32	2
110	117	1
97	97	3
79	79	6
10	82	1
7	20	1
17	78	1
109	121	1
23	27	1
11	11	1
5	21	2
12	16	1
133	134	1
27	77	1
17	105	1
22	29	1
31	31	2
11	20	1
7	22	1
24	24	2
125	127	1
74	75	2
8	13	1
11	25	1
124	138	1
34	35	2
130	134	1
76	84	1
16	20	1
97	98	1
6	116	1
7	25	1
93	94	1
117	120	3
20	21	1
80	80	4
80	81	1
82	110	1
33	33	2
85	92	1
109	109	1
90	104	1
10	11	1
15	18	1
26	121	1
86	103	1
82	85	1
77	80	1
8	27	1
92	119	1
10	10	3
84	86	1
9	10	1
35	129	2
32	33	1
117	117	2
102	111	2
27	28	1
103	103	1
20	124	1
124	126	1
73	73	3
76	83	1
104	122	1
91	118	1
88	89	1
113	114	1
81	116	1
119	123	1
119	120	1
135	138	1
101	116	1
28	30	1
91	91	1
26	26	1
120	121	1
82	107	1
20	113	1
3	4	1
4	15	1
75	78	1
126	127	1
137	137	1
15	104	1
104	105	2
25	72	1
25	26	2
12	32	1
3	9	1
29	122	1
34	132	1
78	124	1
19	95	1
104	107	2
108	116	2
6	28	1
102	103	1
9	25	1
78	82	1
68	75	1
77	78	1
15	21	1
91	95	1
2	25	1
112	116	1
107	108	1
11	24	1
0	1	1
125	126	1
32	102	1
114	130	1
31	120	1
