85	85	3
121	121	1
13	13	1
73	73	3
133	134	1
78	93	1
94	95	1
9	9	5
6	6	3
109	112	2
29	88	1
129	129	3
127	127	2
10	10	1
51	55	1
73	77	1
107	107	1
119	120	1
83	83	5
69	69	4
14	15	2
105	105	1
98	98	1
22	23	1
62	63	1
102	128	2
44	44	2
121	122	1
119	119	5
26	26	4
63	63	3
61	61	4
105	106	2
20	20	3
90	90	3
27	27	3
117	117	2
103	126	2
14	14	1
3	3	1
65	65	4
126	127	2
122	122	2
116	116	3
109	111	1
72	73	1
128	128	3
65	118	1
4	24	1
111	111	1
108	108	5
124	124	5
45	45	2
71	71	2
7	9	1
79	81	1
64	64	2
17	17	3
75	75	4
34	34	3
131	131	2
89	89	3
21	21	4
33	33	3
82	108	1
84	85	2
19	19	2
16	17	1
84	84	1
20	61	1
115	115	5
60	76	1
59	59	6
43	88	1
66	66	2
4	4	1
80	109	1
123	123	2
109	109	2
130	130	5
70	71	1
36	87	1
5	5	2
77	85	1
9	17	1
80	81	2
116	117	1
48	57	1
1	1	1
7	7	6
21	22	1
25	84	1
104	104	3
19	20	1
37	37	2
118	118	2
85	86	1
34	77	1
78	78	2
76	77	1
62	62	3
133	133	1
126	126	1
94	94	1
60	106	2
95	95	2
111	117	1
35	35	1
36	36	3
92	92	1
46	46	1
20	21	2
76	76	1
63	64	1
74	74	2
110	110	1
79	79	1
46	61	1
29	32	1
38	38	1
106	107	1
112	112	1
90	92	1
43	43	1
56	57	1
129	134	1
69	70	2
22	25	2
71	116	2
93	93	3
20	57	1
0	0	1
28	28	1
35	78	1
61	118	1
38	109	1
32	77	1
114	114	2
81	82	1
77	77	1
4	5	1
77	82	2
87	88	1
16	16	1
8	38	1
35	77	1
57	57	2
93	121	1
39	39	1
46	47	1
101	102	1
94	126	1
95	97	1
22	107	2
70	70	1
57	58	1
18	18	2
48	109	1
79	92	1
11	11	1
78	79	1
31	31	1
122	123	1
105	110	1
110	111	1
94	96	1
101	101	2
106	106	1
32	32	1
28	34	2
22	22	1
81	81	2
20	31	1
8	8	1
27	33	1
24	25	1
93	105	1
83	85	1
78	98	1
87	87	1
132	133	1
96	97	1
44	47	1
18	19	1
57	93	1
47	47	1
43	124	1
44	121	1
78	86	1
100	109	1
68	68	1
