59	59	4
58	58	4
121	121	3
138	138	1
51	51	2
141	142	1
168	168	3
2	28	1
30	30	1
178	180	2
191	197	1
195	196	1
146	147	2
127	127	1
112	113	1
158	159	2
154	154	3
110	110	2
82	82	3
190	196	1
33	33	6
170	170	1
189	189	2
20	20	4
119	119	2
149	197	1
113	114	1
182	190	1
162	163	3
19	88	1
145	147	1
105	105	2
8	8	3
66	66	2
122	122	2
121	125	2
116	118	1
18	85	1
17	17	2
140	140	2
162	162	3
94	94	1
12	12	2
110	113	2
8	192	2
149	183	1
148	154	3
153	161	2
20	21	1
58	70	3
151	151	2
112	112	1
65	70	1
29	29	3
133	133	3
109	109	5
24	24	4
166	168	1
196	197	1
150	150	1
184	184	1
181	181	3
147	148	1
5	5	3
101	101	2
126	170	1
27	150	1
185	186	2
110	118	2
156	156	2
179	180	3
28	150	1
52	107	1
77	77	2
147	165	1
46	46	1
19	158	1
4	30	1
3	3	4
4	4	1
152	152	2
64	71	1
84	84	2
18	71	1
116	138	1
107	107	2
116	117	2
183	183	5
60	60	2
50	50	1
128	128	2
10	10	1
190	190	2
68	69	1
161	164	1
83	84	1
148	150	2
114	123	1
39	39	2
111	112	1
81	81	4
180	180	3
5	22	1
127	130	1
182	183	1
10	14	2
81	85	1
78	78	4
9	9	3
57	61	1
171	172	1
193	193	3
38	39	1
69	69	4
53	58	1
11	11	1
24	29	2
144	168	3
19	79	1
55	57	1
28	29	1
76	77	2
148	149	2
45	183	2
74	76	2
146	157	1
67	76	2
174	174	2
103	114	1
137	137	3
148	148	1
98	98	1
100	100	2
78	79	1
192	192	1
19	26	1
68	68	2
53	53	1
36	84	1
85	85	1
40	42	2
35	35	3
118	119	1
103	115	2
96	96	1
55	55	1
29	30	1
172	185	2
179	179	2
132	132	1
185	185	3
9	48	2
191	191	2
54	55	3
52	52	4
175	175	2
17	173	2
22	22	2
193	194	1
24	175	3
64	66	1
149	149	2
9	32	3
36	36	2
21	26	2
61	69	1
194	195	1
163	164	1
117	117	2
77	78	1
21	21	2
12	125	1
88	89	1
108	109	1
48	121	1
12	13	1
56	73	2
79	79	1
31	31	1
93	97	1
158	158	3
136	136	2
129	129	1
54	54	1
164	166	1
17	83	1
19	36	1
64	64	2
16	18	1
80	80	1
127	180	1
61	61	2
25	25	1
71	71	3
65	65	2
74	74	3
97	97	2
173	193	1
128	139	1
2	2	1
37	73	1
44	44	1
0	2	1
67	67	1
59	69	1
137	139	1
14	16	2
180	181	1
172	173	2
78	88	1
14	14	1
41	41	2
19	21	1
111	122	1
184	185	1
156	160	1
44	45	1
145	146	1
0	0	1
48	48	1
114	155	1
28	28	2
153	153	2
182	182	4
18	18	2
76	78	1
178	179	1
162	165	1
142	156	1
130	130	3
106	108	1
187	187	1
163	163	1
17	61	2
128	135	1
107	119	1
73	73	2
144	145	2
191	192	1
114	115	1
25	26	1
73	77	2
115	118	1
34	34	1
181	182	2
164	164	1
131	131	2
75	75	1
26	172	1
43	43	2
23	24	2
194	194	1
149	151	1
181	194	1
12	72	1
120	120	2
50	51	1
143	143	2
62	62	1
165	166	2
115	115	2
115	172	1
87	90	1
111	119	1
152	153	1
195	195	1
25	80	1
38	38	1
147	164	1
27	27	3
157	166	1
114	114	1
145	145	2
47	47	1
102	103	1
7	7	1
131	133	1
83	116	1
129	131	1
135	139	1
186	186	1
87	87	4
197	197	1
125	125	1
116	116	1
50	132	1
166	166	1
32	32	2
70	70	2
141	188	1
151	154	1
80	81	1
183	189	1
196	196	1
84	85	1
83	83	2
18	25	1
3	6	1
27	29	1
165	173	1
99	99	1
165	167	1
142	143	1
8	21	1
22	24	1
89	89	1
20	22	1
19	24	1
