118	118	1
71	80	2
16	16	1
90	90	3
80	86	2
22	22	2
128	128	2
57	57	3
94	95	1
115	124	1
82	82	1
36	36	6
75	108	1
118	131	1
86	86	1
23	23	5
133	133	1
63	63	5
0	0	5
28	57	5
21	21	1
25	25	4
63	78	1
73	73	3
4	12	2
71	71	2
130	131	2
64	64	2
24	24	1
1	1	4
58	59	2
77	77	1
33	104	2
5	5	3
123	129	3
78	78	1
72	72	4
13	35	1
80	122	1
14	34	1
91	94	1
105	105	1
74	74	5
57	106	1
75	75	1
102	102	1
12	12	4
130	133	1
100	116	1
35	35	1
80	80	6
23	60	1
88	88	1
81	81	3
56	57	1
60	110	1
98	101	3
20	20	4
97	97	1
70	135	1
31	31	2
49	49	1
19	21	1
59	59	3
61	61	2
122	122	3
93	93	3
24	26	1
133	134	1
7	7	3
115	115	2
89	89	1
115	133	1
103	125	2
47	51	1
57	58	2
84	84	2
127	127	2
63	68	1
104	106	1
20	23	1
96	97	1
111	115	1
97	98	1
109	109	3
134	134	2
101	101	2
122	127	1
88	123	1
6	6	2
106	106	1
33	33	2
126	126	2
76	76	3
28	29	2
98	98	1
15	15	1
43	43	1
28	30	1
83	83	3
37	38	1
55	55	1
26	26	2
50	93	1
95	95	2
67	68	2
87	87	2
2	2	2
71	79	1
38	42	1
131	133	2
8	8	2
130	130	3
107	107	2
108	108	2
3	5	1
107	108	1
111	111	1
132	132	1
25	55	1
30	70	1
123	130	1
121	121	1
131	131	2
42	77	1
12	98	1
66	67	1
52	75	2
82	95	1
8	11	3
104	105	1
50	135	1
18	18	3
79	98	1
31	62	1
4	4	1
129	129	1
7	11	1
43	105	1
45	45	1
100	100	1
79	79	1
44	44	2
23	31	1
124	124	2
35	36	1
62	62	1
59	66	1
66	66	1
129	132	1
54	66	1
64	72	1
116	116	1
89	90	1
114	114	2
25	53	1
126	127	1
85	87	1
62	65	1
36	37	1
77	79	1
59	67	1
10	10	1
74	75	1
27	28	1
53	54	1
14	14	2
22	30	1
103	103	2
5	11	1
29	29	1
33	96	1
16	17	1
116	132	1
135	135	1
83	84	1
83	86	1
25	38	1
20	21	1
17	17	1
58	68	1
52	56	1
19	55	1
77	110	1
6	15	1
67	67	1
129	130	1
26	31	1
30	69	1
