46	48	2
71	72	1
145	145	3
12	14	2
149	149	1
155	155	2
21	25	1
148	148	1
27	27	5
45	46	3
10	10	1
100	101	2
112	115	1
19	19	2
147	147	2
79	79	3
33	34	3
73	73	6
122	141	1
13	14	3
4	4	2
11	11	3
134	134	5
70	71	1
133	140	2
62	63	1
76	76	1
86	134	1
93	94	1
130	130	4
113	115	1
21	22	1
107	107	1
28	54	1
12	12	1
72	72	2
17	17	8
109	111	3
140	140	1
98	98	2
139	139	1
21	24	1
12	49	1
25	25	3
154	158	1
7	7	1
107	157	1
94	133	1
20	24	1
115	115	4
33	33	2
92	92	2
82	86	1
109	109	2
77	78	1
29	29	7
84	84	1
17	20	1
150	150	2
91	109	1
101	101	1
80	91	1
55	65	1
49	51	1
99	99	2
64	79	1
132	132	1
21	21	3
133	134	1
100	106	1
26	26	5
87	87	2
1	3	3
24	24	2
151	151	1
44	44	3
68	69	1
41	41	2
11	12	1
35	35	2
95	96	1
28	29	1
94	95	1
154	154	1
91	91	1
118	124	2
46	46	4
106	106	2
67	68	1
50	56	1
51	78	1
47	75	2
77	77	1
127	128	2
84	115	1
68	68	1
52	52	3
31	31	4
143	143	1
6	6	2
49	49	3
48	48	1
38	38	2
8	14	1
98	135	1
22	23	2
120	120	2
26	28	1
158	158	2
157	157	4
23	23	2
64	64	3
80	80	2
7	10	1
125	126	2
63	64	1
119	126	1
97	126	1
100	100	1
51	52	1
26	27	1
96	97	1
48	49	3
52	54	1
0	0	3
37	39	1
4	5	1
128	128	3
144	144	3
0	1	1
87	94	1
54	55	3
116	116	1
30	30	1
131	133	1
39	39	2
37	37	1
91	100	2
107	130	1
135	135	3
43	43	1
112	114	1
148	152	1
11	33	1
75	81	1
129	129	3
78	78	4
110	144	1
75	75	2
16	34	1
122	122	1
111	112	3
14	14	1
40	43	2
117	117	2
119	125	1
113	113	1
38	39	1
48	50	1
145	146	2
33	43	1
95	103	2
57	153	1
97	112	1
7	8	2
88	115	1
85	85	1
123	123	1
62	64	1
37	107	1
90	90	4
119	121	1
78	80	1
22	49	4
97	134	1
23	24	1
18	18	2
40	78	2
12	20	1
48	78	1
103	103	1
24	106	1
114	114	1
28	28	3
36	36	1
104	104	2
97	97	2
34	34	3
24	25	1
123	135	2
95	95	1
152	152	1
105	107	1
5	70	2
4	51	1
9	9	2
137	137	1
97	138	1
13	104	2
21	42	1
147	148	2
48	56	1
51	51	4
57	57	2
110	110	3
123	137	1
15	15	1
106	110	1
31	32	1
146	146	1
27	69	1
56	56	1
23	30	1
82	82	1
128	131	1
108	108	1
34	125	1
83	83	1
19	20	1
52	53	1
129	139	2
20	20	1
121	121	2
124	124	2
153	153	2
53	53	1
118	118	3
134	145	1
94	94	1
111	111	1
67	72	1
14	108	1
46	85	1
17	18	1
8	13	1
54	54	1
123	125	1
30	150	1
81	81	2
134	135	1
65	87	1
112	112	1
13	107	1
136	137	1
110	111	1
48	55	1
86	86	1
153	154	1
89	90	1
114	115	1
89	89	1
119	120	1
85	91	1
16	17	1
49	52	1
22	34	1
32	111	1
74	74	1
22	22	1
26	135	1
