20	20	1
107	107	1
24	43	3
86	86	1
119	119	3
87	87	3
145	145	2
101	101	1
124	124	2
11	11	1
127	128	1
86	87	2
12	15	1
67	94	1
41	41	1
30	30	4
63	116	2
84	84	2
139	140	1
63	63	2
25	25	5
27	27	3
117	144	3
47	149	1
64	125	1
151	151	1
63	118	1
77	78	3
12	12	1
125	135	1
71	71	2
96	96	5
66	93	1
104	104	1
122	146	2
112	134	1
7	141	1
41	43	1
65	65	1
21	75	1
128	128	1
36	36	4
125	142	2
116	116	1
125	145	1
50	50	1
13	13	1
43	43	2
119	121	1
118	127	1
114	117	1
142	142	1
24	112	1
125	138	1
93	100	1
44	54	1
15	15	2
39	39	1
121	130	1
39	40	1
64	64	1
38	63	1
136	148	1
35	103	1
67	68	2
30	44	1
137	137	2
102	102	2
5	7	1
65	133	1
78	78	2
4	4	2
114	114	1
24	110	1
57	57	2
13	18	1
42	42	3
32	32	1
132	132	2
33	45	1
76	150	1
100	100	1
53	57	1
111	111	3
115	143	1
3	8	1
72	72	1
42	47	1
85	101	1
17	17	1
153	153	2
41	46	1
47	48	1
82	146	1
21	21	2
26	27	1
129	132	1
54	57	1
122	126	2
53	54	1
45	149	1
107	108	1
74	74	1
39	149	2
81	81	2
38	38	1
40	40	1
68	68	2
95	95	1
129	129	1
73	88	1
7	7	1
131	132	2
35	35	2
148	148	3
149	149	1
87	104	1
82	82	1
73	73	1
64	68	1
152	152	2
43	45	1
75	79	1
86	88	1
18	18	2
135	135	3
118	137	1
10	10	1
23	105	1
137	142	1
138	138	3
135	149	1
16	37	1
123	138	1
106	106	1
117	118	1
108	133	1
46	78	1
38	54	1
39	42	2
141	142	1
39	76	1
98	135	1
137	139	1
93	93	1
93	130	1
121	144	1
48	54	1
66	82	1
129	131	1
35	81	1
85	86	1
100	102	2
19	100	1
123	136	2
45	45	1
140	143	1
16	24	1
13	14	1
67	67	2
109	109	1
62	62	1
150	152	1
26	26	2
144	146	1
44	44	1
111	112	1
48	49	1
125	125	1
12	129	1
24	25	1
69	69	1
144	144	1
139	144	1
42	43	1
54	63	1
73	106	1
4	80	2
114	115	1
106	107	1
98	149	1
6	7	1
130	130	1
115	115	1
8	8	1
90	90	1
115	132	1
10	25	1
102	151	1
79	80	1
44	45	1
57	110	1
127	138	1
67	69	1
112	112	1
34	34	1
27	32	1
145	146	1
121	122	1
92	92	1
6	6	1
51	123	1
53	53	1
3	12	1
55	55	2
54	142	1
32	38	1
80	80	1
127	127	1
99	99	1
83	83	1
147	147	1
74	85	1
