140	142	1
154	157	1
22	24	1
156	157	2
10	10	6
27	27	1
38	38	3
90	114	1
133	151	1
92	108	3
80	83	2
86	111	2
44	66	1
0	1	3
97	97	2
62	62	1
162	162	3
85	85	2
20	20	1
72	72	1
17	48	1
113	113	3
18	18	1
142	143	2
161	165	1
56	56	2
114	114	5
63	106	1
34	34	4
132	132	5
126	126	9
113	114	1
12	12	6
110	110	2
78	78	1
6	6	2
6	50	1
68	73	1
2	22	1
110	111	1
96	96	1
5	5	2
67	76	1
8	8	1
47	71	1
81	90	2
111	154	1
136	138	1
85	86	1
102	103	1
74	74	1
91	114	1
92	114	1
94	94	2
114	115	1
117	117	1
19	19	5
138	148	1
116	116	2
119	119	3
42	42	3
83	119	1
47	47	2
69	70	1
87	88	1
11	12	1
88	89	2
90	91	3
111	116	1
115	133	1
104	104	1
34	36	1
12	13	1
50	50	1
7	52	1
18	161	1
149	149	2
42	43	1
119	168	2
101	101	2
12	21	1
64	88	2
134	134	1
112	135	1
23	23	3
111	111	5
4	5	1
71	73	1
160	170	1
24	24	1
88	88	4
4	4	4
164	164	1
86	91	2
42	108	1
71	71	3
65	68	1
17	17	1
22	134	1
162	163	2
62	63	1
144	154	1
98	98	2
166	166	2
169	169	2
9	19	2
70	86	1
100	100	4
119	148	1
154	154	2
104	105	1
165	165	4
36	116	1
37	42	1
47	75	1
41	41	3
14	14	6
78	79	3
36	37	2
13	13	2
109	109	1
22	22	2
107	107	2
105	105	1
86	87	1
48	48	2
34	35	1
45	98	1
75	76	1
95	114	1
81	81	1
75	75	1
140	140	3
141	142	1
143	143	2
9	9	2
89	89	4
3	54	1
101	102	1
16	16	2
35	35	3
28	28	2
52	52	2
135	143	1
78	88	1
46	47	1
158	158	1
63	69	2
67	67	1
44	44	1
37	37	1
2	2	3
69	69	1
155	155	4
135	135	3
75	96	3
106	106	1
40	40	1
149	155	2
84	85	1
86	110	1
112	112	3
84	86	1
26	26	2
23	94	1
130	132	2
161	161	1
150	150	2
19	23	1
142	142	1
35	36	1
44	45	1
136	136	3
39	39	2
96	98	1
73	74	1
66	66	1
21	21	2
136	143	1
150	151	1
92	92	1
66	74	1
81	82	1
20	134	1
55	57	1
49	55	1
86	127	1
112	156	1
51	52	1
49	49	1
170	170	1
27	28	1
52	53	1
124	124	1
34	112	2
168	168	2
102	104	1
36	36	1
129	129	2
147	147	3
79	107	1
150	159	2
143	144	1
92	93	1
15	18	1
54	54	1
147	153	1
107	108	1
39	40	1
145	145	1
43	44	1
130	131	1
92	104	1
85	90	1
95	120	1
40	41	1
128	128	1
17	167	2
11	11	1
56	94	2
90	90	1
99	99	2
95	96	1
94	133	1
53	54	1
93	165	1
17	162	1
136	137	1
148	154	1
7	7	1
99	100	1
153	153	1
93	166	1
157	158	1
97	98	1
83	83	1
64	64	1
65	67	1
33	33	1
1	2	1
80	98	1
55	55	1
20	170	1
64	71	1
10	12	1
95	136	1
129	130	1
109	110	1
140	141	1
78	143	1
