61	62	1
176	176	4
91	103	1
24	24	4
99	99	3
16	16	3
80	80	3
74	74	6
73	86	1
6	8	1
11	16	1
125	126	3
35	95	3
109	153	1
75	75	7
1	2	2
41	41	6
91	94	1
6	6	6
130	130	4
94	94	3
28	56	1
178	188	1
33	35	1
93	93	6
0	190	1
77	77	5
149	149	3
183	183	4
182	183	2
88	88	5
95	100	1
82	147	2
134	134	2
115	122	1
22	22	3
188	188	3
58	59	1
157	157	5
145	146	2
9	68	1
26	26	4
134	167	1
73	92	1
123	123	4
79	84	1
89	107	1
35	35	4
159	159	4
36	38	2
175	175	2
115	115	3
100	106	1
71	71	3
154	154	3
117	118	2
62	63	1
147	147	6
20	20	2
24	25	1
15	64	1
182	189	1
189	189	4
113	114	1
126	126	3
40	40	2
90	102	2
186	186	2
140	140	4
12	12	4
39	39	5
1	143	1
144	181	2
100	107	1
138	138	2
114	123	2
158	158	5
122	139	1
93	116	2
162	162	7
173	173	4
10	11	3
80	84	1
164	164	4
174	175	3
112	115	2
187	187	4
86	88	2
104	104	5
76	76	2
100	137	1
103	103	3
16	17	1
129	190	1
168	168	4
150	152	1
14	14	2
93	94	2
127	127	8
62	62	3
32	34	1
95	113	2
144	144	5
152	153	1
4	5	1
169	169	3
121	121	3
127	128	1
94	109	1
54	54	3
38	38	5
139	139	6
140	141	3
180	181	2
171	172	2
53	53	8
89	89	4
178	179	1
177	177	5
136	145	1
16	47	3
173	174	5
106	106	2
99	100	3
81	81	1
10	10	4
102	111	1
84	84	5
97	163	1
160	160	5
101	102	1
84	99	1
146	146	6
70	184	1
110	113	1
117	117	3
59	61	1
36	36	5
102	102	4
111	111	7
184	184	5
11	11	6
132	133	4
133	133	2
179	186	1
151	155	1
75	76	2
37	40	1
36	57	1
141	187	2
45	45	2
124	142	1
133	134	3
112	114	1
111	124	2
145	145	2
129	129	2
84	94	1
119	119	3
108	108	2
79	80	1
71	89	1
159	161	1
94	97	1
72	73	1
141	176	1
105	129	1
61	61	2
57	57	1
166	166	2
190	190	2
151	152	1
147	148	1
131	131	4
25	25	4
135	150	1
129	130	1
98	136	2
93	96	2
20	21	3
45	46	2
114	114	5
38	74	1
48	48	7
13	14	4
19	59	1
171	171	2
12	37	1
95	95	4
59	59	2
108	120	2
167	183	2
110	110	5
174	174	4
2	2	1
63	67	1
179	179	5
142	175	1
79	79	4
120	121	2
85	85	2
21	25	1
101	104	1
85	117	2
135	136	2
42	43	2
116	128	1
0	0	1
2	76	1
5	8	1
29	53	1
91	91	2
115	139	1
3	3	1
153	153	4
4	6	1
97	97	2
48	74	1
7	32	1
28	28	5
53	185	1
87	175	2
122	122	4
15	15	2
99	113	1
73	161	1
27	30	1
156	156	2
67	67	3
34	34	1
184	186	1
27	27	2
182	188	1
60	60	1
124	125	2
114	117	1
72	161	2
83	84	1
61	63	4
121	131	1
65	66	3
152	152	4
53	55	2
78	79	2
57	59	1
85	93	1
76	78	1
110	116	2
137	138	1
114	115	1
172	172	2
56	69	1
96	96	3
65	70	1
41	43	2
32	32	3
7	41	1
56	56	3
33	34	2
107	111	1
15	47	1
118	119	1
100	100	2
47	56	1
36	76	1
104	183	2
130	132	1
136	136	3
47	94	1
115	123	2
125	131	1
20	68	1
90	90	3
70	75	2
101	101	5
7	17	1
112	112	2
109	110	1
72	72	2
161	165	2
125	125	2
142	142	1
82	82	2
33	33	2
74	76	2
42	63	1
187	188	1
70	70	1
123	176	1
37	37	2
30	32	1
174	177	1
170	174	2
43	43	4
7	7	5
40	42	2
12	64	1
58	58	3
70	97	1
18	18	4
73	91	1
131	133	1
148	148	1
65	65	2
29	29	3
180	180	6
155	156	1
73	90	4
74	75	1
120	120	2
22	189	1
34	59	2
167	167	1
141	171	1
108	109	1
8	10	1
104	105	2
112	124	1
59	62	1
17	65	1
115	121	2
131	134	1
161	161	1
115	120	1
46	46	2
109	109	1
2	3	1
103	130	1
121	125	2
122	130	1
75	171	1
160	165	1
170	170	3
42	42	1
58	68	1
168	187	1
118	118	4
28	32	2
169	170	1
141	166	1
148	149	2
135	168	1
98	98	3
37	47	1
29	30	2
68	68	1
75	87	1
12	23	2
148	153	1
78	78	3
105	105	1
181	181	2
86	86	3
117	119	2
92	138	1
70	167	1
71	140	1
174	188	1
162	167	1
14	15	2
143	143	2
71	72	2
124	135	2
159	164	1
151	178	1
161	172	1
11	14	1
3	10	1
12	18	1
134	135	2
178	183	1
149	150	1
182	182	3
63	69	1
6	16	1
24	61	1
19	30	1
68	70	3
163	163	2
75	100	1
116	116	3
132	132	1
122	123	1
166	168	1
146	151	1
5	13	1
168	170	1
18	46	1
19	19	2
12	13	1
177	188	1
143	144	1
78	132	1
33	47	1
96	99	1
36	37	2
8	9	3
89	110	1
166	171	1
42	123	1
162	163	1
179	188	1
141	141	4
143	168	1
21	28	1
18	42	1
28	33	1
138	139	1
122	127	1
10	21	1
30	30	4
64	165	1
136	137	2
141	156	1
165	165	2
58	78	1
100	104	1
103	108	1
113	113	1
165	168	1
38	39	3
77	143	1
20	25	1
157	175	1
23	44	1
80	81	1
125	156	1
23	24	1
46	56	1
118	171	2
159	174	1
20	96	1
173	187	1
158	160	1
99	119	1
97	99	1
126	127	1
91	98	1
9	19	1
111	122	1
102	103	1
164	165	1
86	87	1
132	182	1
26	37	1
28	44	1
66	66	2
62	115	1
21	24	1
108	117	1
142	143	1
64	64	1
23	28	1
26	27	1
5	6	1
64	78	1
5	7	1
144	145	1
137	141	1
106	107	2
21	21	1
107	108	1
156	164	1
159	169	1
134	137	1
97	128	1
85	101	1
108	111	1
174	185	1
185	185	1
153	154	1
156	159	1
73	89	1
120	140	1
128	129	1
107	123	1
128	128	1
22	23	1
185	186	1
155	157	1
4	4	1
55	60	1
3	12	1
111	133	1
46	85	1
129	180	1
128	159	1
24	43	1
31	31	2
170	183	1
11	19	1
35	37	1
127	129	1
92	94	1
33	78	1
95	96	1
111	139	1
109	116	1
83	83	1
70	71	1
108	112	1
72	142	1
86	153	1
164	175	1
137	175	1
9	96	1
104	118	1
71	153	1
