56	97	2
13	52	1
155	155	1
4	4	3
119	120	1
114	115	1
71	78	1
54	54	1
44	44	1
51	122	1
64	64	1
104	131	1
102	102	1
130	130	1
2	14	1
82	82	1
126	126	1
131	131	1
53	53	1
6	6	2
54	121	2
117	117	2
118	120	1
143	143	1
78	135	2
114	116	1
7	75	1
1	1	1
105	105	5
149	149	4
134	134	1
26	27	2
94	94	3
76	76	3
111	111	2
143	144	1
23	125	1
100	100	3
11	106	1
27	27	2
108	108	2
24	25	3
71	99	1
99	99	1
71	93	1
67	156	1
104	117	1
10	12	1
159	159	2
52	134	1
93	94	1
154	154	1
38	38	2
157	157	1
48	48	1
51	51	3
50	50	2
145	146	1
140	140	3
6	7	2
19	23	1
90	90	2
71	71	2
14	14	1
74	74	1
105	145	1
74	75	1
99	125	2
101	145	1
141	141	1
18	123	1
158	158	3
10	66	1
132	133	3
110	110	1
45	45	4
112	112	1
128	128	2
69	69	2
3	3	1
0	1	2
22	22	2
133	134	1
63	84	3
135	135	2
5	5	1
101	144	1
38	45	1
96	96	1
85	86	2
14	15	2
70	98	1
105	121	1
38	39	3
12	12	3
7	8	1
23	23	1
96	127	1
72	100	1
85	85	2
20	24	1
36	36	3
124	124	3
95	99	1
9	9	1
9	48	1
7	79	2
19	19	2
42	43	2
87	116	1
123	123	3
77	80	1
9	104	2
152	152	3
95	95	1
96	109	1
57	57	1
121	122	2
93	132	1
11	13	1
85	94	1
154	162	1
75	164	2
125	125	2
68	156	1
34	34	1
152	153	1
92	99	1
145	145	1
13	14	1
71	103	1
125	133	1
167	167	1
156	166	1
151	151	1
25	25	1
144	144	1
69	70	1
39	39	1
50	52	1
41	42	1
137	137	3
42	42	1
142	142	2
20	22	1
107	116	1
139	139	2
138	138	1
140	141	1
49	49	2
149	150	1
97	126	1
97	97	1
161	161	1
93	93	1
104	104	2
154	155	1
153	153	1
127	127	1
78	78	1
10	10	1
150	150	1
106	107	1
98	98	1
46	51	1
11	11	1
8	92	1
125	128	2
75	106	1
123	124	1
47	128	1
119	119	1
91	91	1
166	166	2
43	43	1
48	144	1
150	151	1
63	63	1
101	102	1
93	115	1
119	123	1
52	52	1
14	106	1
115	117	1
69	123	1
103	104	1
47	170	1
40	40	1
128	129	2
18	18	1
105	133	1
89	89	1
88	88	1
83	84	1
96	98	1
7	113	1
81	81	1
24	24	1
77	135	1
155	160	1
17	22	1
78	79	1
26	26	1
132	132	1
19	20	2
36	43	1
109	115	1
133	133	1
68	88	1
7	7	1
47	112	1
83	83	1
