107	125	1
98	98	3
125	126	1
30	30	2
47	47	2
88	88	1
102	102	2
63	63	7
69	69	1
27	28	3
28	28	3
52	53	1
83	83	2
142	143	1
102	103	3
99	100	1
90	90	5
72	72	2
2	6	1
36	37	1
81	82	3
54	55	1
114	115	1
92	92	2
40	40	1
33	33	4
104	105	1
79	81	1
59	59	1
42	42	6
104	104	4
14	14	2
0	12	3
11	11	5
56	70	1
21	21	3
58	58	4
41	41	5
74	74	4
61	127	1
53	53	1
146	146	2
134	134	4
66	66	1
99	99	1
35	37	1
57	59	1
39	40	2
93	107	1
101	125	1
66	67	1
13	13	3
4	4	2
67	67	1
56	56	1
29	29	1
128	129	2
15	15	1
38	39	2
142	142	2
131	131	2
10	10	3
92	93	2
93	93	2
56	136	1
6	114	1
60	127	1
43	47	1
124	124	2
37	38	3
103	142	1
135	136	1
40	41	1
119	119	3
31	32	1
125	125	3
17	17	3
31	31	1
61	61	2
79	80	2
37	37	1
29	30	1
110	110	1
118	120	1
139	139	3
129	129	1
103	103	3
96	96	2
0	0	1
55	55	1
19	19	2
95	95	1
71	71	1
140	141	2
76	76	1
64	64	1
120	120	2
74	75	1
27	27	1
2	2	1
68	96	1
20	20	2
3	114	2
101	101	3
56	102	2
100	100	2
57	58	1
16	16	1
68	68	3
19	75	2
67	79	1
78	96	1
18	18	1
60	62	1
8	9	1
115	115	1
80	80	1
60	60	1
132	133	2
49	53	2
85	87	1
135	138	1
60	84	1
107	107	1
43	101	1
5	40	1
30	80	1
122	124	1
89	89	1
13	14	1
89	90	1
1	3	2
84	84	2
87	95	1
49	49	1
87	109	1
13	71	1
77	77	1
57	57	1
97	97	2
82	82	1
14	34	1
119	137	1
139	140	1
97	98	1
78	79	1
130	131	1
71	72	2
47	48	1
39	39	2
145	145	1
129	130	1
60	80	1
22	22	1
85	85	1
108	111	1
82	85	1
87	87	1
51	88	1
107	111	1
8	8	1
51	52	1
113	113	1
98	135	1
80	87	1
80	82	1
132	132	1
122	122	1
93	106	1
123	125	1
62	63	1
128	128	1
66	86	1
64	65	2
38	38	1
133	133	1
23	23	1
2	3	1
9	10	1
121	121	1
144	144	1
20	21	1
