160	176	2
20	99	1
66	72	1
108	108	2
130	130	1
66	67	1
24	109	1
35	35	1
38	180	1
148	148	1
20	45	1
167	167	3
56	77	2
105	105	4
175	179	1
25	25	3
74	137	1
66	66	2
156	157	3
3	4	3
84	112	1
86	137	1
46	53	2
54	57	2
19	20	1
51	103	1
161	161	3
170	170	1
95	95	5
154	164	4
2	3	1
32	33	1
23	38	3
3	3	2
51	143	1
78	94	2
4	6	1
94	123	1
83	84	1
4	12	2
107	107	5
27	27	1
157	159	1
19	19	1
6	100	1
179	179	2
85	170	1
37	77	1
26	29	1
162	177	3
124	124	2
112	130	1
65	65	2
76	77	1
160	162	1
17	86	1
129	129	3
163	163	1
53	55	1
178	178	2
15	15	1
110	110	1
21	22	2
8	153	1
89	89	1
113	113	2
84	85	1
93	93	1
33	33	1
62	128	1
132	134	1
138	138	3
20	22	1
159	160	1
136	142	1
78	78	2
173	173	3
126	151	1
82	82	2
156	156	1
5	6	1
143	143	4
75	75	1
133	133	2
101	101	3
118	118	3
164	166	2
123	123	1
116	116	3
91	97	1
178	179	2
132	133	3
64	64	2
0	0	1
28	72	1
111	111	2
37	157	2
59	59	1
71	71	3
60	153	1
102	102	3
144	147	1
119	164	1
9	120	1
39	40	1
117	117	2
95	130	1
15	117	2
122	141	1
151	151	2
75	77	1
150	160	1
106	106	1
79	80	1
28	29	1
143	144	1
91	92	1
128	128	1
23	32	1
56	147	1
107	110	1
45	45	1
93	94	2
65	94	1
76	76	2
61	84	1
136	136	1
89	94	1
103	109	1
112	112	1
17	18	1
5	7	1
72	72	2
82	110	1
44	44	1
27	28	1
153	162	1
60	61	1
104	167	2
31	32	1
29	29	2
80	80	4
38	38	1
25	106	1
11	13	2
17	19	1
38	96	1
19	35	1
4	5	1
100	161	1
107	171	1
3	116	1
86	88	1
21	23	1
135	137	1
131	131	2
28	28	3
173	174	1
16	16	1
160	160	3
176	176	1
165	167	1
171	172	1
126	127	1
172	172	3
52	109	1
54	54	1
57	58	1
153	178	1
52	53	1
157	157	1
24	164	1
18	19	1
94	94	2
13	13	1
114	114	1
141	141	1
94	112	1
119	119	2
58	58	1
2	2	3
122	122	1
55	55	3
116	143	1
56	130	1
9	30	1
4	8	1
41	42	1
168	168	1
20	36	1
143	167	1
57	57	2
125	125	1
10	11	2
158	158	1
142	142	1
77	96	1
145	145	1
139	139	3
57	140	1
84	86	1
110	149	1
22	32	1
20	21	1
12	13	1
13	18	1
81	81	1
127	158	1
67	67	1
51	97	1
24	24	1
8	81	1
170	172	1
164	164	1
25	155	1
61	61	1
12	12	1
111	112	1
5	5	2
31	31	1
14	35	1
52	170	1
25	100	1
130	151	2
41	114	1
2	135	1
42	44	1
79	133	1
88	90	1
99	130	1
153	154	1
88	88	2
77	78	1
83	83	1
70	72	1
96	96	1
72	73	1
4	4	1
21	21	1
98	98	1
68	68	2
8	9	1
2	9	1
0	1	1
44	45	2
153	153	1
51	51	1
103	104	1
62	62	1
83	91	1
58	59	1
36	36	1
118	122	1
55	138	1
117	118	1
116	117	1
75	124	1
95	120	1
103	103	1
66	132	1
101	114	1
