60	76	1
117	117	3
111	111	1
110	111	1
60	60	3
40	41	1
109	109	2
16	16	1
37	38	2
99	100	1
31	32	2
131	131	5
69	69	1
25	25	4
13	92	1
10	16	1
102	102	2
57	102	1
81	100	1
44	44	1
35	38	1
121	122	1
11	44	1
64	68	1
112	126	1
76	76	4
14	14	2
24	24	2
22	22	4
81	86	1
75	75	1
81	85	1
30	30	2
16	49	1
122	122	6
37	37	1
4	23	2
101	101	2
10	10	4
119	119	2
68	68	1
58	58	2
36	45	1
11	11	2
70	70	5
93	93	2
94	115	1
118	119	1
31	50	1
94	95	2
104	104	4
34	35	1
32	32	2
87	87	1
47	47	3
64	64	3
21	21	3
9	9	1
87	93	2
17	46	1
109	110	2
33	33	1
23	23	4
20	20	3
84	97	2
66	66	1
124	124	2
74	74	2
65	66	1
32	46	2
46	46	2
25	26	1
59	59	2
127	129	1
94	94	2
44	45	2
83	95	2
110	113	1
31	31	2
19	30	1
43	43	3
35	58	2
41	41	3
4	6	1
110	124	1
7	7	1
83	85	1
96	96	1
19	95	1
79	122	2
24	96	1
119	120	1
98	98	1
65	65	2
8	8	3
24	25	1
35	35	2
41	114	1
36	39	1
17	44	2
92	94	1
130	130	2
91	91	2
19	19	4
110	110	2
121	121	3
105	105	3
11	12	2
39	40	1
44	72	1
55	55	1
3	3	2
72	72	1
91	98	1
87	100	1
42	42	1
39	80	1
67	67	2
38	38	3
99	99	1
34	34	2
63	63	1
26	91	1
13	14	1
28	28	2
58	90	1
21	22	2
117	118	1
85	86	3
4	30	1
76	93	1
48	112	1
79	86	1
115	116	1
36	36	1
11	93	1
110	119	1
96	97	1
33	35	1
133	133	2
23	27	1
45	45	1
85	85	2
11	24	1
84	85	1
39	39	2
26	28	1
80	80	1
82	83	3
79	105	1
68	69	1
14	15	1
4	4	3
86	89	1
62	62	1
28	29	1
2	2	2
92	92	1
15	16	1
116	116	2
48	50	1
81	81	1
120	120	2
113	113	1
79	81	1
108	108	1
82	97	1
6	6	2
27	35	1
103	104	1
15	90	1
101	102	1
61	61	2
118	118	2
5	10	1
40	42	1
29	107	1
59	61	1
119	121	1
73	73	1
86	87	1
37	41	1
111	112	1
12	12	1
15	15	1
90	93	1
84	116	1
57	57	1
82	100	1
103	103	1
77	77	1
63	79	1
26	56	1
83	83	2
43	56	1
1	6	2
38	45	1
59	90	1
82	117	1
114	114	1
73	75	1
73	74	1
107	107	1
33	34	1
19	20	1
55	88	1
