171	193	1
35	246	2
109	173	1
46	210	1
224	232	1
155	181	1
73	73	3
62	62	1
92	92	1
173	173	2
172	172	2
211	212	1
91	91	1
39	204	1
72	116	1
223	223	2
201	201	1
87	87	2
50	50	1
163	163	2
88	88	5
168	168	5
41	41	2
204	204	2
177	187	1
180	186	1
54	54	1
36	45	1
77	77	3
207	207	2
67	67	1
225	231	1
167	167	1
79	79	1
39	39	2
213	242	1
90	92	2
196	196	3
55	55	1
185	185	1
200	200	3
29	31	2
145	187	1
28	28	1
29	30	1
52	52	1
166	167	1
5	5	2
16	17	1
237	237	2
164	164	1
34	34	3
166	248	1
215	240	2
200	247	1
100	100	2
176	176	1
35	203	1
178	234	1
191	192	2
114	119	1
101	102	1
107	107	2
47	65	1
38	39	2
48	48	3
226	226	1
228	228	1
153	153	3
189	189	2
98	100	1
160	209	1
208	212	1
1	12	1
210	221	1
111	112	1
80	88	2
22	22	1
165	165	3
211	211	3
193	195	1
45	112	1
118	118	3
152	152	1
66	66	1
231	231	1
203	203	3
224	224	1
218	218	1
183	184	1
42	42	3
35	35	3
66	190	1
71	71	2
18	18	2
206	206	1
197	241	1
186	186	2
46	50	1
165	212	1
209	209	3
157	160	1
56	56	1
160	160	1
61	61	1
29	29	2
58	58	1
146	146	2
33	34	1
172	177	1
146	147	1
175	175	1
96	155	2
202	203	1
116	116	1
177	177	2
37	162	1
210	210	2
49	49	1
106	114	1
50	175	1
184	184	1
238	239	1
111	111	2
180	213	1
101	101	1
23	23	2
158	158	1
227	227	4
233	233	1
37	174	1
48	115	1
236	236	2
61	77	1
12	12	2
60	60	1
198	198	2
48	49	1
171	171	2
208	208	3
214	222	1
187	188	1
222	222	2
1	51	1
112	112	1
60	62	1
152	153	1
167	168	1
221	221	2
76	77	1
214	214	1
155	155	1
234	234	1
10	42	1
181	182	2
214	248	1
162	162	1
95	97	1
90	90	2
171	205	1
187	187	1
27	27	1
18	30	1
15	199	1
43	58	1
225	225	2
103	104	2
7	13	1
150	150	5
87	90	1
14	16	1
95	228	1
45	45	2
64	69	1
9	9	2
8	45	1
190	196	1
14	20	1
192	192	1
244	244	1
240	241	1
60	61	1
156	156	1
205	205	1
105	105	3
47	226	1
20	21	1
114	208	1
91	238	1
116	240	1
232	232	1
171	174	1
221	222	1
106	108	1
154	154	1
107	108	1
63	69	1
246	247	1
57	57	2
4	5	2
182	200	1
21	21	2
175	226	1
37	37	1
102	102	1
216	216	1
44	44	1
188	195	2
218	220	1
30	30	2
176	178	1
215	220	2
99	99	1
89	89	2
105	106	1
215	215	2
82	91	1
70	70	1
92	203	1
25	25	1
74	76	1
194	194	2
64	64	1
194	195	1
178	178	1
105	116	1
181	210	1
176	187	1
76	79	1
112	113	1
10	10	1
16	16	2
172	205	1
86	157	1
249	249	1
6	6	1
162	243	2
1	1	1
24	25	1
110	110	1
26	152	1
95	106	1
26	39	1
34	35	1
96	96	1
101	165	1
5	20	1
90	91	1
47	47	1
157	157	1
28	113	1
153	154	1
202	202	1
20	20	1
7	7	2
151	151	1
237	238	1
165	175	1
182	182	1
22	23	1
54	101	1
86	86	2
61	118	1
238	240	1
217	244	1
173	175	1
143	160	1
157	184	1
109	231	1
205	206	1
62	148	1
206	222	1
245	245	1
10	15	1
78	78	1
96	97	1
215	217	1
169	178	1
147	173	1
222	228	1
181	184	1
172	175	1
177	179	1
162	215	1
85	85	1
220	220	1
216	225	2
35	71	1
227	240	1
164	194	1
115	115	1
198	199	1
190	192	1
89	91	1
119	151	1
177	190	1
83	83	1
18	35	1
241	241	1
21	22	1
93	187	1
177	224	1
120	180	1
27	28	1
8	8	1
232	233	1
63	63	1
228	229	1
35	211	1
142	142	1
59	59	1
