174	174	3
80	80	5
207	207	1
78	78	1
116	116	4
7	114	1
92	93	1
111	111	1
91	92	1
44	44	2
71	72	1
21	31	1
14	14	1
95	95	2
65	65	2
115	156	1
220	220	2
76	76	1
48	49	3
157	158	2
90	100	2
209	220	1
54	68	1
31	166	1
203	203	1
86	86	2
200	200	3
42	42	2
19	19	3
31	31	3
17	31	1
200	201	1
167	168	2
43	43	3
198	198	3
21	23	3
195	197	2
70	71	1
33	33	2
172	184	1
73	80	1
14	66	1
164	164	2
114	114	2
199	218	1
83	102	1
28	204	2
162	162	2
91	91	3
79	116	1
11	11	1
20	30	1
55	55	2
181	181	2
183	183	3
63	63	2
23	24	1
215	241	3
163	164	3
219	219	2
165	165	3
87	87	1
15	15	2
93	94	2
237	237	3
158	158	2
59	59	4
88	107	1
117	117	2
190	238	1
168	169	1
53	53	2
9	9	2
2	2	2
48	87	1
110	110	1
86	180	1
39	39	1
184	237	1
64	84	1
93	181	1
199	199	3
170	170	2
12	12	1
234	243	1
198	199	1
78	101	1
70	101	2
87	181	1
237	239	1
101	108	1
212	213	1
89	89	3
168	168	4
57	60	1
189	190	1
17	43	1
180	180	1
46	53	1
52	53	1
92	92	1
232	232	1
101	101	4
16	16	4
214	240	1
38	38	2
109	110	1
157	157	2
48	107	1
96	102	1
226	226	3
47	207	2
40	40	2
208	208	3
18	18	2
86	109	1
199	213	3
192	192	1
10	114	1
190	190	1
86	92	1
70	98	1
203	205	2
223	223	2
36	37	1
37	37	1
27	27	4
47	92	1
66	66	4
97	98	1
186	186	4
175	175	2
189	226	1
240	240	2
159	167	1
55	57	1
179	179	2
232	245	1
85	100	1
81	81	2
156	180	1
205	209	2
90	91	3
187	222	1
214	245	1
96	97	2
218	219	1
62	62	3
209	210	1
45	45	3
245	245	5
158	191	1
166	178	1
208	227	1
213	213	2
18	41	1
73	73	2
48	162	1
226	227	1
20	29	1
23	23	2
153	153	2
163	163	1
39	101	1
55	72	1
64	64	1
49	75	1
239	239	1
86	116	1
93	93	2
81	99	1
48	71	1
195	195	3
214	214	1
229	229	1
102	102	3
30	30	1
14	15	1
214	218	1
95	106	1
52	52	5
70	70	1
115	115	1
54	59	1
53	103	1
201	201	1
173	173	2
92	102	1
79	79	1
65	74	1
33	34	1
96	96	1
163	177	3
113	113	1
54	54	1
23	62	2
83	84	1
116	157	1
150	155	2
209	209	2
225	225	1
77	110	1
6	6	2
244	244	2
66	171	1
186	201	1
199	216	1
48	48	1
191	191	1
152	177	1
215	221	1
74	82	1
83	83	2
188	193	1
238	239	1
177	205	1
175	189	1
118	118	2
99	100	1
187	189	1
156	156	3
227	232	1
231	238	1
3	4	1
159	178	1
169	169	2
178	229	1
20	184	2
58	60	1
180	196	1
22	23	1
245	246	1
237	238	1
235	236	1
61	73	1
221	222	1
161	182	1
51	51	1
15	63	1
48	58	2
208	209	2
151	151	1
185	185	1
193	196	1
45	51	1
236	237	1
230	230	3
64	99	1
0	0	1
85	86	1
112	112	1
4	5	1
218	218	2
216	244	1
56	74	1
30	181	2
222	222	1
55	56	1
187	240	1
86	90	2
36	36	2
67	67	2
111	112	1
165	179	1
58	73	1
25	25	1
34	234	1
91	97	1
205	205	1
20	20	1
88	184	1
193	200	1
25	26	1
204	204	1
197	197	1
61	69	1
234	234	1
229	230	1
57	57	1
60	63	1
73	74	1
49	79	1
200	229	1
10	10	1
237	243	1
199	229	1
69	70	1
159	159	1
180	197	1
109	109	1
58	58	1
150	150	1
91	108	1
197	198	1
71	71	1
181	228	1
3	3	1
37	38	1
6	7	1
23	46	1
98	98	1
72	113	1
161	161	1
203	217	1
185	243	1
69	88	1
117	118	1
39	41	1
119	120	1
216	217	1
60	60	1
190	191	1
84	85	1
49	49	1
94	94	1
223	229	1
162	163	1
100	100	1
217	238	1
160	160	1
238	238	1
31	184	1
160	161	1
57	163	1
