143	144	2
153	153	5
79	80	2
1	1	2
21	21	2
130	181	1
13	44	1
72	72	2
45	139	1
151	151	1
45	45	3
158	160	1
47	138	1
64	64	1
85	100	2
67	67	4
160	160	3
108	146	2
6	135	3
170	170	3
62	82	4
8	142	1
142	142	1
175	175	4
1	3	2
29	30	2
63	71	1
187	187	4
38	38	3
169	170	1
157	158	2
56	57	1
157	157	5
194	194	4
62	63	2
182	183	3
174	174	1
125	125	1
135	135	5
193	193	1
62	74	2
82	83	1
50	50	2
141	147	1
162	164	1
147	178	1
85	104	1
150	153	1
68	71	1
106	110	1
112	112	3
56	122	1
3	4	1
50	51	1
78	79	1
152	153	1
177	190	1
98	98	2
155	162	1
29	29	1
36	105	1
177	178	4
167	168	2
95	97	1
99	101	1
108	111	1
124	128	1
31	32	1
111	111	1
27	28	1
27	27	1
115	115	3
183	183	1
21	24	2
94	100	1
14	14	2
41	41	2
34	99	2
29	35	2
41	42	2
19	20	1
53	62	1
172	174	1
164	190	1
12	13	1
68	102	1
42	43	2
154	165	1
56	72	1
28	35	1
65	73	1
58	62	1
64	125	1
64	65	1
51	73	2
96	96	1
67	68	3
128	128	1
138	138	1
166	173	1
73	126	2
71	108	1
26	26	2
184	184	1
109	109	1
85	128	1
20	20	1
136	136	2
136	184	1
63	123	1
119	119	4
190	193	1
104	104	2
110	110	1
150	150	1
31	31	5
121	121	3
189	189	4
165	165	1
55	88	1
137	137	3
105	159	2
22	61	1
95	95	1
88	88	1
18	147	1
54	60	1
181	182	2
178	178	3
5	7	1
155	155	1
76	78	1
100	132	1
10	10	2
183	193	1
58	58	1
113	160	1
170	172	1
15	15	3
103	106	2
132	132	2
47	50	2
115	154	2
35	35	4
54	54	1
3	3	2
116	116	2
25	26	4
65	77	1
8	20	1
34	34	2
13	125	2
195	195	2
8	16	1
172	173	3
140	177	1
54	112	1
74	75	1
86	87	1
159	159	2
36	37	1
136	149	1
90	151	2
26	29	3
62	79	1
84	126	1
117	117	1
12	137	2
71	71	3
156	159	1
175	178	1
156	156	4
119	137	1
110	111	1
58	192	3
186	186	1
70	77	1
143	145	1
155	156	1
40	40	2
161	166	1
122	122	2
133	134	1
94	142	1
103	103	1
0	2	1
105	105	3
81	81	1
99	99	1
13	57	1
109	153	2
33	34	1
179	180	1
151	160	1
141	141	1
89	90	1
186	189	1
113	113	2
159	187	1
172	172	4
167	167	1
86	86	2
172	189	1
154	168	1
149	149	1
147	147	1
76	76	1
27	60	1
5	5	1
61	61	2
43	64	1
124	124	2
106	106	1
71	72	2
0	0	1
114	114	3
11	11	1
17	18	1
55	55	1
89	130	1
169	169	1
111	113	1
145	188	1
87	110	1
115	117	1
42	184	1
30	31	2
19	19	1
129	179	1
47	47	2
7	19	1
146	155	1
9	57	1
190	191	2
70	70	1
71	77	1
42	42	2
26	41	1
112	114	1
95	96	1
83	83	1
181	181	1
25	27	3
135	158	1
64	73	1
69	70	1
148	165	1
190	190	1
135	146	2
65	80	1
143	170	1
129	131	1
41	43	1
5	9	1
139	139	1
9	9	2
107	172	1
5	8	1
61	88	1
160	163	1
129	129	2
25	36	1
109	110	1
173	190	1
88	110	1
159	160	1
4	4	1
49	49	1
70	72	1
23	141	1
3	39	1
187	189	1
82	82	1
179	179	1
167	191	1
69	71	1
20	26	1
134	134	1
44	94	2
84	85	1
122	176	1
77	78	1
106	111	2
153	154	1
84	106	1
24	103	1
40	108	1
2	2	1
36	36	1
37	113	1
62	62	1
145	146	1
76	95	1
168	168	1
47	49	1
162	162	1
17	17	1
162	190	1
28	60	1
52	52	1
81	94	1
84	84	1
30	33	1
123	156	1
140	166	1
126	127	1
7	7	1
48	48	1
138	139	1
8	8	1
39	140	1
101	149	1
63	63	1
63	66	1
155	180	1
102	106	1
12	12	1
191	191	1
3	29	1
94	151	1
126	150	1
27	29	1
66	66	1
173	173	1
7	26	1
128	130	1
6	6	1
169	189	1
110	120	1
129	130	2
4	26	1
50	55	1
40	41	1
156	189	1
16	18	1
131	131	1
67	102	1
