88	96	1
134	134	2
114	141	1
40	40	2
111	112	2
85	88	1
8	9	3
94	97	2
34	43	1
120	123	1
85	124	1
128	131	1
26	27	1
37	37	2
121	141	1
78	79	2
82	85	1
43	43	1
81	82	1
66	118	1
57	92	1
81	116	1
23	23	3
85	85	1
3	6	2
70	70	4
112	136	1
141	141	3
109	109	3
10	35	1
94	130	1
27	35	1
17	18	1
127	127	4
50	50	1
153	153	1
29	55	2
70	71	1
82	82	3
63	63	1
47	47	2
104	135	1
11	11	1
121	121	1
139	143	1
137	137	1
91	91	1
15	15	3
24	24	3
113	113	2
8	67	1
129	129	1
130	138	1
115	128	1
123	123	2
28	28	1
53	68	1
46	139	1
27	27	1
8	8	3
114	114	1
6	6	2
119	119	1
14	14	3
111	149	1
68	104	2
84	130	1
63	67	2
132	132	2
117	150	3
69	129	1
45	45	1
141	142	1
31	31	3
118	120	2
98	98	1
12	13	1
138	138	1
48	48	3
10	10	2
146	146	2
105	105	1
105	107	1
68	146	1
135	147	1
64	66	2
25	25	3
21	22	2
49	49	2
26	26	7
69	70	1
89	91	1
79	79	1
24	25	1
11	28	1
117	117	3
13	81	1
68	68	2
135	149	1
19	21	1
67	99	1
9	9	1
131	135	1
73	75	1
114	125	2
56	56	5
122	125	1
104	104	2
16	116	1
93	95	1
22	22	1
114	119	1
106	106	2
20	93	1
111	111	3
81	93	1
119	129	2
83	84	1
119	136	1
143	143	1
73	74	1
92	151	1
114	116	1
130	140	1
95	95	1
104	105	1
111	118	1
41	42	1
29	33	1
17	17	3
147	147	2
48	129	1
77	77	1
121	122	1
8	145	1
70	146	1
110	110	1
116	142	1
57	57	3
116	123	1
33	33	3
100	102	1
87	87	2
22	26	1
131	146	1
26	30	1
104	145	1
38	39	1
44	44	2
143	145	2
107	107	1
109	110	1
144	149	1
127	138	1
7	64	1
5	5	1
66	70	1
148	148	3
149	149	1
151	151	1
75	79	1
92	92	1
78	102	1
144	148	1
150	151	1
93	93	1
80	104	1
33	34	1
42	42	1
30	76	1
42	106	1
73	73	1
80	80	1
126	143	1
23	24	1
78	78	1
47	78	1
55	76	1
135	142	3
52	73	2
131	131	1
15	99	1
37	38	2
34	38	1
32	107	1
101	102	2
16	18	1
19	19	2
131	133	1
68	116	1
133	133	1
108	110	1
66	66	1
46	47	2
99	100	2
9	83	1
76	87	2
96	96	1
69	69	2
149	152	1
131	141	2
110	131	1
122	141	1
4	136	1
58	58	1
95	98	2
21	21	2
61	142	1
45	83	1
122	122	2
115	117	1
34	40	1
67	67	1
78	82	1
43	44	1
54	54	2
35	35	1
101	101	2
56	69	2
139	151	1
102	102	1
98	99	1
67	139	1
64	64	1
11	12	1
108	108	1
37	105	1
95	99	1
64	114	1
122	124	1
145	146	1
18	19	1
45	56	1
87	88	1
97	104	1
54	83	1
36	53	1
34	74	2
77	93	1
79	147	1
53	71	1
66	109	1
55	65	1
130	130	1
112	112	3
42	43	1
82	83	1
128	136	1
128	151	1
83	110	1
28	29	2
23	68	1
3	56	1
122	126	1
102	131	1
109	113	1
53	53	1
5	8	1
136	139	1
85	86	1
80	84	1
79	80	1
3	8	1
25	109	1
17	51	1
52	78	1
40	42	1
21	24	1
