164	165	1
131	143	2
24	24	3
75	174	3
58	136	1
9	12	2
154	155	1
94	99	1
3	5	1
149	149	2
81	81	1
26	26	2
112	112	5
61	61	3
105	109	1
128	130	2
16	17	1
132	132	6
33	33	2
38	38	2
104	104	4
82	84	1
65	65	2
142	142	2
137	137	3
74	75	4
30	30	1
12	41	1
52	131	1
3	3	1
163	164	4
140	140	4
36	36	1
53	90	1
71	71	4
31	31	5
160	160	1
156	156	4
73	78	1
134	134	4
126	127	2
15	15	1
53	59	1
153	153	1
78	78	4
97	97	2
116	116	2
41	42	1
96	100	1
132	133	1
102	103	2
6	6	2
178	178	2
66	66	2
124	124	2
173	173	2
55	56	2
165	165	3
115	116	1
145	145	5
105	105	2
18	18	1
107	107	3
133	133	5
124	125	1
166	166	1
90	94	1
82	144	1
141	141	3
170	170	3
9	44	1
29	30	5
85	85	4
144	145	2
90	90	1
52	56	1
119	120	3
157	157	1
84	86	2
110	110	2
159	159	1
176	176	1
44	51	2
72	142	1
38	40	1
167	167	1
39	39	1
162	162	4
52	52	1
41	41	1
104	109	1
155	155	1
50	159	1
126	144	2
54	54	2
22	25	1
166	167	1
129	165	3
121	121	4
27	44	2
43	43	2
11	13	1
28	28	2
55	130	1
156	157	1
79	79	2
19	19	1
93	93	2
56	59	1
29	29	3
139	139	3
22	39	1
18	20	1
138	138	2
127	128	1
135	136	2
49	88	1
75	75	2
58	177	1
74	74	2
58	58	1
58	59	1
89	89	2
121	122	1
4	15	1
174	174	1
127	127	2
146	146	3
118	118	2
29	35	2
105	106	2
27	27	1
114	116	1
2	2	3
5	5	2
153	171	2
122	122	2
8	8	1
6	7	1
112	169	2
66	67	1
136	136	3
131	132	1
111	117	1
7	7	4
92	118	1
95	95	2
172	172	5
109	114	1
6	11	1
57	57	1
131	131	2
94	94	4
137	160	1
82	82	2
12	84	1
25	26	1
99	143	1
37	38	1
107	110	1
151	154	1
140	143	1
177	177	1
113	115	1
135	137	1
88	88	1
112	113	1
139	140	1
7	32	1
83	83	2
75	121	2
171	173	1
119	170	1
115	115	1
59	59	2
59	61	1
17	17	1
26	36	1
78	159	1
37	37	1
92	92	1
79	88	1
121	148	2
151	151	1
32	32	1
129	129	1
21	23	2
131	156	1
169	169	1
81	82	1
62	63	1
18	24	1
77	78	1
118	171	1
61	86	1
52	72	1
84	85	1
64	64	2
171	171	2
51	58	1
144	148	1
141	142	1
114	114	1
174	180	1
154	154	2
58	143	1
120	121	2
59	60	1
9	10	2
108	108	1
68	68	1
129	166	1
132	134	1
157	160	1
11	25	1
98	98	1
101	101	1
143	145	2
137	138	1
130	165	1
34	34	2
113	113	1
150	171	1
76	77	1
86	86	2
136	174	1
128	128	1
87	90	1
109	109	2
119	119	2
40	41	2
73	73	1
94	102	1
137	149	1
117	117	1
158	180	1
39	40	1
67	87	1
75	118	1
18	19	1
153	156	1
121	129	1
2	16	1
52	125	1
148	149	1
33	40	1
99	99	1
105	107	1
25	31	1
106	106	1
100	100	1
52	87	1
14	14	1
67	67	2
144	144	1
130	166	1
57	62	1
95	121	1
132	141	1
92	102	1
102	109	1
102	107	1
