28	28	5
65	65	3
52	52	3
75	139	1
128	128	4
122	122	5
41	42	1
163	166	1
136	150	1
48	48	4
24	42	1
21	24	2
62	63	3
140	140	1
195	195	1
53	53	1
159	159	1
188	188	3
101	101	1
133	133	3
23	23	3
64	64	4
7	7	2
139	139	3
16	16	2
158	192	1
47	47	5
68	73	1
51	51	3
49	49	3
196	196	3
59	59	2
175	175	3
105	105	2
177	177	2
62	134	1
40	40	2
25	25	4
33	33	3
103	103	1
64	83	1
165	165	3
10	10	2
6	21	2
132	132	1
164	164	2
138	138	3
80	80	2
180	180	4
81	81	2
88	88	1
183	184	1
58	64	2
158	167	2
168	191	2
84	85	1
9	10	1
76	76	5
182	183	1
39	39	2
2	3	1
62	144	1
70	70	2
185	185	2
79	79	1
5	5	1
0	79	2
66	66	1
179	180	1
168	168	4
125	125	3
3	87	1
26	26	3
37	37	3
86	86	3
83	83	3
174	174	2
108	109	1
36	37	1
176	176	2
82	82	2
36	50	1
83	87	2
197	197	2
4	16	2
134	168	1
111	112	1
181	182	1
145	146	1
153	153	1
186	186	3
61	61	2
144	144	1
117	118	1
187	187	2
194	194	1
156	156	4
2	4	1
20	24	2
151	152	1
19	117	2
4	18	1
100	119	2
54	54	1
95	95	3
14	14	3
99	99	3
36	69	1
150	167	1
18	19	1
153	165	1
5	21	1
105	161	2
98	100	1
80	84	1
152	176	1
109	109	1
120	120	2
160	160	3
77	77	3
107	107	1
141	141	1
64	65	1
67	73	1
13	13	1
139	145	1
110	110	3
135	147	1
194	195	1
41	81	1
74	137	1
117	117	1
11	11	2
6	62	1
34	35	1
102	120	1
85	85	2
41	41	4
149	149	3
18	18	2
121	122	2
80	81	1
50	50	1
148	148	1
190	190	2
44	55	1
3	3	1
27	27	1
153	190	1
142	142	2
136	136	1
150	150	2
55	56	1
36	68	1
94	97	1
85	86	1
79	154	1
116	117	2
61	113	1
151	151	2
63	82	1
60	60	1
72	72	2
183	183	1
13	20	2
97	97	2
115	115	3
32	32	2
148	168	2
78	78	1
95	153	1
129	129	1
27	41	2
55	55	1
15	15	2
45	45	1
172	172	1
187	188	1
178	178	2
4	4	1
7	35	2
65	80	1
63	68	1
132	186	1
3	73	1
44	45	1
12	12	1
63	63	1
35	35	1
139	140	1
55	69	1
42	42	1
192	192	1
165	166	2
171	171	1
78	79	1
112	112	1
93	93	1
123	123	1
35	36	1
1	1	1
127	127	1
58	143	1
6	7	1
154	154	1
116	116	1
102	102	2
109	110	1
15	23	1
1	2	2
46	46	2
21	21	1
75	88	1
110	166	1
105	107	2
106	144	1
43	43	1
173	190	1
81	88	1
34	34	1
173	173	2
58	186	1
168	169	1
105	106	1
130	130	1
81	83	1
19	19	1
41	59	1
67	67	2
158	158	2
146	147	1
8	28	1
134	134	1
153	155	1
24	34	1
95	100	1
170	190	1
61	67	1
15	145	1
147	147	1
169	170	1
19	20	1
190	193	1
135	140	1
63	145	1
2	26	1
71	73	1
142	143	1
60	64	1
0	18	1
6	6	1
130	137	1
98	99	1
75	76	1
157	158	1
38	48	1
42	62	1
31	31	1
22	22	1
106	106	1
135	164	1
138	139	1
5	9	1
48	49	1
35	86	1
70	94	1
24	63	1
