63	63	3
30	30	6
32	32	3
111	111	4
120	131	1
82	83	3
1	1	4
118	120	1
61	61	4
105	105	2
80	126	1
120	121	1
17	26	1
76	76	2
43	44	1
36	37	1
20	25	1
73	73	5
53	54	1
68	68	3
108	112	1
72	72	4
83	85	1
67	67	1
107	117	1
43	43	3
0	97	2
9	59	2
11	121	1
69	69	5
81	82	2
33	33	3
7	7	2
49	49	1
68	81	1
75	129	1
5	7	1
101	101	4
71	72	1
21	21	5
79	79	7
129	129	5
100	100	4
87	87	1
122	123	1
119	131	1
29	29	4
118	118	1
5	6	1
114	118	2
65	78	1
29	32	1
107	107	2
80	90	1
92	118	1
94	95	1
77	78	1
78	78	2
10	11	1
125	125	4
112	112	2
60	109	2
21	36	1
122	122	3
48	119	1
111	112	1
133	133	3
71	71	3
44	44	1
92	107	1
49	52	1
15	15	4
71	77	1
1	2	2
53	62	1
4	4	2
48	48	1
53	53	3
124	124	2
71	80	2
103	107	1
130	131	2
28	29	1
60	60	1
27	27	1
90	90	1
47	47	1
12	13	2
76	98	1
65	66	1
130	130	2
113	113	2
121	121	3
127	128	1
75	104	1
11	13	1
58	82	1
92	92	1
90	107	1
102	102	3
43	119	1
16	17	4
98	116	1
17	36	1
12	12	2
37	37	2
3	3	2
97	98	1
97	97	1
28	28	2
72	103	1
85	85	2
0	0	3
9	18	1
16	16	3
96	96	2
88	88	1
22	22	1
25	28	3
116	116	3
69	78	1
20	20	2
34	60	1
72	74	1
80	80	2
99	99	2
92	106	1
3	14	1
110	110	2
15	16	1
48	50	2
10	10	2
111	133	1
24	24	2
125	126	1
114	114	1
52	62	1
2	2	1
56	127	1
70	70	2
70	71	1
93	105	1
132	132	1
26	26	2
2	22	1
81	81	1
127	127	4
77	77	2
113	114	1
118	123	1
61	67	1
64	64	1
81	83	1
83	83	1
52	115	1
91	92	4
7	29	1
9	15	1
106	106	1
1	131	1
59	82	1
31	31	2
114	115	1
20	22	1
128	128	2
5	5	2
34	34	1
84	84	1
120	120	1
135	135	1
11	11	2
74	75	1
74	74	2
31	32	1
35	35	1
64	79	1
108	108	1
52	53	1
89	97	1
111	128	2
95	95	1
38	58	1
17	17	1
32	33	2
14	15	1
17	18	1
121	122	2
134	135	1
8	106	1
133	134	1
82	82	1
78	121	1
66	66	1
109	109	1
19	20	1
52	64	1
84	107	1
104	104	1
75	76	1
60	65	1
57	87	1
6	7	1
27	28	1
0	20	1
65	65	1
86	87	1
