22	22	1
96	133	1
53	53	1
43	44	1
54	54	2
23	23	4
104	140	2
123	123	2
4	4	2
105	136	1
50	97	1
39	41	1
5	8	4
116	117	1
136	136	2
81	81	1
39	39	2
21	21	1
12	81	1
26	26	2
95	95	1
37	43	1
8	8	2
12	12	2
38	68	1
130	130	1
153	153	2
28	28	2
150	151	1
140	142	2
30	30	2
57	57	3
113	133	1
67	67	1
16	16	1
37	49	2
82	84	1
71	77	1
92	112	1
115	116	1
139	144	2
99	99	4
41	81	1
70	71	1
116	152	1
128	129	1
31	31	3
101	109	1
14	14	4
12	14	1
8	74	1
83	94	2
3	4	2
141	144	1
139	139	1
56	56	2
84	136	1
112	112	1
51	52	1
139	140	1
104	104	1
74	131	1
21	104	1
74	75	1
124	124	1
138	149	1
21	22	3
83	83	1
19	19	2
42	80	1
34	34	3
24	95	1
142	143	2
9	85	1
48	48	1
120	126	2
79	79	1
88	88	3
30	63	2
120	129	1
110	110	1
100	139	1
10	65	1
85	85	1
9	15	1
18	18	2
22	69	2
32	92	1
32	32	1
107	107	1
108	108	2
23	57	1
67	68	1
94	94	2
49	49	1
134	134	1
11	11	2
103	112	2
150	150	2
33	33	1
119	120	1
74	74	1
11	14	1
47	73	1
12	29	2
100	101	1
53	119	1
75	84	2
27	64	1
95	139	1
127	127	1
96	96	1
120	120	2
78	79	1
54	55	1
6	6	1
79	88	2
10	10	1
82	82	1
121	129	1
114	114	1
71	71	2
15	19	1
46	71	1
105	128	1
38	39	1
99	134	1
98	132	1
118	121	1
11	83	1
133	133	1
76	77	1
94	105	1
34	47	1
73	73	1
18	19	1
81	94	1
40	42	2
75	100	1
141	141	1
94	95	1
144	145	1
5	5	1
143	143	1
38	48	1
107	108	2
119	152	1
96	97	1
83	84	1
144	144	1
31	78	1
80	82	1
32	47	1
9	9	1
29	30	1
49	56	1
50	50	1
101	102	1
106	106	1
3	16	1
118	118	1
27	27	1
50	52	1
36	36	1
97	133	1
98	99	1
51	51	1
63	63	1
69	69	1
104	138	1
119	119	1
93	97	1
6	8	1
104	105	1
35	35	1
115	115	1
30	31	1
51	53	1
21	100	1
89	89	1
105	122	1
16	17	1
152	152	1
118	123	1
13	93	1
26	27	1
37	99	1
35	36	1
56	116	1
84	98	1
41	41	1
122	127	1
28	82	1
13	39	1
