67	70	2
120	120	5
51	51	2
116	116	4
43	44	2
59	59	4
70	70	4
99	99	3
49	99	1
78	79	2
110	110	11
57	57	5
13	13	4
112	113	6
12	14	1
80	80	3
76	76	6
9	10	4
11	11	2
50	50	8
108	108	6
0	0	5
102	102	6
100	100	4
61	63	3
14	14	1
107	107	2
5	5	8
116	123	2
6	6	5
132	132	2
66	66	3
94	94	6
70	76	1
2	2	2
81	81	4
34	34	1
110	111	1
92	92	3
47	100	1
47	48	2
79	79	3
122	123	2
52	53	3
76	77	3
117	117	2
47	47	3
97	97	3
16	16	3
24	25	2
124	124	2
99	100	2
18	33	1
118	120	1
4	10	1
86	97	2
115	115	4
96	96	1
12	12	4
105	105	3
72	72	5
6	7	1
113	118	1
56	56	6
65	65	7
11	17	1
124	125	4
2	5	2
72	87	1
107	108	1
107	109	1
59	60	1
119	129	1
103	103	2
75	75	2
1	1	1
91	91	5
126	127	2
109	109	4
17	18	1
119	119	3
101	101	2
74	74	2
86	86	4
93	93	2
89	90	2
87	87	6
66	67	1
60	62	2
108	109	2
2	74	1
106	106	4
60	61	1
109	123	1
32	33	1
131	132	3
104	104	3
111	116	1
112	112	4
115	116	3
23	39	1
102	103	5
48	48	3
126	126	2
133	133	2
21	22	2
25	41	2
82	82	3
93	94	1
42	42	4
90	90	3
27	56	1
104	105	3
49	49	5
31	31	1
87	110	1
29	30	1
18	18	3
112	121	1
49	54	1
58	68	1
53	53	4
23	23	4
8	9	3
74	87	2
46	46	5
19	20	2
52	52	2
10	10	2
82	83	3
7	9	1
71	73	2
29	29	3
17	20	3
9	9	2
67	67	2
111	111	7
77	77	7
13	22	1
55	89	1
122	122	1
90	107	1
7	7	3
62	64	1
65	66	2
125	125	1
98	98	6
45	45	4
10	15	1
53	54	1
78	78	3
96	97	1
83	83	2
53	63	1
44	45	2
31	33	2
26	27	2
39	39	4
86	87	3
17	17	3
23	30	1
33	33	4
13	15	1
14	18	1
116	117	2
114	117	3
30	31	1
57	64	1
127	130	1
94	95	1
45	66	1
90	91	1
61	61	1
27	27	2
101	104	1
129	129	7
20	101	2
47	102	1
81	84	1
105	106	2
68	69	1
73	74	1
75	76	1
4	4	3
84	84	2
88	88	2
30	30	1
64	64	4
106	107	2
62	62	2
0	5	2
9	27	1
128	128	4
28	28	2
123	123	2
85	85	2
29	40	1
25	25	3
44	44	2
60	66	1
69	69	3
8	8	1
128	130	1
109	112	1
33	74	1
58	58	2
84	85	1
40	40	2
16	112	1
91	93	1
54	54	1
0	6	1
18	19	2
67	68	2
23	29	1
43	43	4
13	68	1
7	8	4
32	32	2
15	16	3
68	68	2
70	71	1
98	104	1
117	118	2
104	106	1
82	86	1
68	104	1
127	129	1
80	81	2
3	3	1
66	96	1
32	122	1
130	131	1
12	69	1
54	76	1
8	15	1
79	80	1
64	67	1
113	113	2
61	62	1
16	17	1
64	66	1
114	114	3
60	60	2
21	21	1
41	44	2
126	130	1
44	46	1
103	104	1
99	101	1
63	63	1
39	40	1
24	24	2
121	121	5
101	102	1
1	2	1
83	84	2
48	56	1
24	47	1
31	32	1
69	108	1
120	123	1
42	44	1
113	116	2
45	47	1
65	68	1
24	61	1
127	127	1
77	78	1
40	44	1
9	14	1
71	72	1
65	74	1
92	93	1
98	99	1
52	54	1
55	55	2
40	41	1
118	118	1
25	26	1
114	116	1
57	76	1
109	110	1
95	95	1
20	20	1
126	128	1
130	130	1
104	131	1
89	89	1
