50	50	4
47	48	2
8	8	1
114	129	1
32	32	6
3	4	4
10	10	7
105	110	1
130	130	6
17	17	2
24	24	5
151	151	2
27	27	6
150	150	4
25	25	3
102	102	1
29	29	2
10	67	1
77	77	3
69	74	1
111	111	3
52	52	3
96	123	2
83	116	1
3	3	3
43	43	3
40	40	2
110	111	4
23	23	6
41	41	2
107	107	8
9	31	2
82	82	3
78	78	2
39	39	2
69	70	1
49	49	1
6	6	4
30	30	5
18	31	1
144	144	3
110	110	5
79	79	1
55	94	1
95	96	1
117	117	4
119	119	2
106	107	1
4	56	1
43	81	2
131	131	1
31	31	1
108	108	2
124	124	4
57	57	1
14	15	1
80	80	3
42	122	1
85	94	1
96	96	4
15	86	2
97	97	1
41	124	2
51	51	2
135	135	3
50	55	2
71	71	3
81	81	1
94	94	2
54	54	5
130	151	1
128	149	2
81	82	1
104	116	1
123	124	2
58	65	1
115	115	1
137	137	1
119	141	1
8	43	1
5	54	1
122	123	1
74	74	1
113	113	2
101	139	1
13	13	2
112	113	1
108	121	1
93	95	1
15	80	1
116	116	2
134	140	1
7	54	1
132	146	1
146	146	6
4	4	4
36	36	1
24	25	2
109	109	7
15	48	1
88	88	1
9	136	1
15	95	1
19	19	2
13	15	1
2	2	1
12	67	1
148	148	1
133	133	2
55	55	4
142	150	1
122	122	5
67	121	1
84	84	4
87	121	1
28	28	2
10	99	1
95	109	1
68	68	2
34	34	2
112	112	3
46	50	1
105	142	1
104	104	2
27	83	1
87	87	1
72	72	1
6	9	1
56	85	1
27	97	1
21	21	1
22	22	2
48	64	2
21	22	1
79	147	1
83	83	1
92	92	1
38	38	3
135	136	1
66	66	1
129	129	4
10	15	1
104	150	1
64	120	2
85	86	1
31	32	1
6	8	1
83	85	1
29	30	2
20	31	1
134	134	4
12	12	5
8	12	1
7	8	1
26	85	1
128	128	2
12	55	1
38	78	1
6	127	3
3	27	1
132	148	1
7	7	2
69	69	1
105	105	3
101	101	1
68	71	2
14	14	5
16	16	2
45	45	4
26	83	1
75	78	2
64	65	1
100	100	3
142	142	1
63	63	2
67	67	2
154	154	2
73	73	4
149	150	2
37	37	1
17	41	1
11	12	1
48	51	2
90	114	1
66	67	1
127	127	1
98	98	1
101	102	1
19	65	1
139	139	3
8	9	1
75	77	1
8	146	1
132	133	1
68	85	1
2	3	1
25	26	1
102	103	1
52	102	1
13	70	1
136	136	2
22	40	1
100	138	3
62	62	3
115	132	1
26	26	2
41	64	2
4	6	2
35	35	3
64	153	1
123	123	1
16	25	1
95	110	1
130	144	1
46	56	1
47	55	1
65	100	1
120	146	1
65	67	1
46	46	3
45	46	2
100	135	2
12	74	1
12	66	1
120	120	1
98	99	1
76	76	1
33	34	1
129	130	1
42	44	1
5	6	1
48	48	1
20	20	2
57	106	1
34	35	1
12	14	1
141	142	1
100	131	1
132	145	1
26	86	1
38	79	1
132	132	3
49	123	1
12	114	1
80	81	1
77	139	1
9	118	1
65	65	2
20	21	1
70	70	1
18	26	1
86	86	1
134	135	1
130	137	1
104	107	1
9	24	2
3	9	1
3	29	1
75	106	1
17	18	1
38	40	1
99	134	1
9	48	1
131	133	1
88	121	1
5	5	1
114	114	1
97	98	1
5	26	1
14	26	1
116	137	1
77	78	1
106	106	1
113	139	1
93	116	1
66	94	1
130	142	1
44	45	1
55	92	1
109	121	1
152	152	2
153	153	1
32	36	1
53	54	2
106	145	1
30	32	1
22	24	1
63	82	1
123	127	1
96	110	1
33	38	1
