172	173	1
127	135	1
105	106	1
106	106	2
12	20	1
99	99	3
31	32	1
144	165	1
132	134	1
5	5	1
95	95	11
4	17	5
13	15	1
44	44	1
145	165	2
107	107	2
52	52	5
24	26	2
6	6	3
143	145	1
71	71	1
37	39	1
126	126	1
80	81	2
4	4	6
150	150	2
144	144	4
113	113	3
151	151	1
116	116	2
134	135	1
8	8	2
75	76	2
165	166	1
163	163	3
0	0	6
93	93	2
37	38	2
99	101	2
61	63	1
119	119	1
36	36	1
91	91	1
43	43	1
127	127	2
41	41	4
96	96	1
99	165	1
148	148	4
167	168	1
132	132	4
108	108	3
116	172	1
106	122	2
91	92	1
134	134	2
55	57	1
63	63	4
57	60	1
179	179	2
53	53	3
102	102	3
168	170	1
68	167	1
68	71	2
136	136	2
92	92	3
78	81	1
90	90	3
64	64	1
122	124	1
153	153	2
113	124	2
123	123	1
25	25	1
152	152	2
18	19	1
112	146	2
37	37	1
157	180	1
83	83	3
112	112	5
82	82	1
139	167	1
3	3	2
119	120	1
169	170	2
73	132	1
22	22	2
149	150	3
104	120	1
28	28	2
26	26	3
103	121	1
115	117	1
147	148	1
127	129	1
171	171	5
166	167	1
35	51	1
131	131	2
76	76	2
79	79	3
104	106	2
8	22	1
164	164	3
60	92	1
24	25	3
152	153	2
65	86	1
60	60	1
38	39	1
87	87	1
160	160	1
51	52	2
15	62	1
32	37	1
100	120	1
90	100	2
11	11	2
139	140	1
111	115	1
35	37	1
109	109	1
142	142	2
174	174	3
108	109	2
163	164	2
170	171	2
33	37	1
18	18	3
52	91	2
22	51	1
137	137	1
149	149	3
162	162	1
20	56	1
145	145	2
99	107	2
138	139	2
114	114	1
149	159	1
73	73	1
27	27	1
175	176	1
15	15	2
54	54	1
22	23	1
83	84	4
94	94	2
144	167	1
128	128	3
144	146	1
14	35	1
31	59	2
3	30	1
12	13	2
156	156	1
81	81	1
124	124	1
49	49	1
21	29	1
2	2	1
164	165	1
147	147	2
29	32	1
180	180	3
38	38	2
86	87	2
124	168	1
110	163	1
98	128	1
118	118	2
114	166	1
113	158	1
115	159	1
24	24	3
157	157	2
10	10	3
101	102	1
82	83	1
144	145	1
9	10	2
0	14	1
115	115	4
111	112	1
35	36	1
26	27	1
161	162	1
15	16	1
12	12	1
78	78	1
57	57	5
49	50	1
61	61	1
9	9	2
130	171	1
67	68	2
138	138	1
118	120	3
166	168	1
98	106	1
98	176	1
45	46	2
123	125	1
98	103	1
63	152	1
45	45	1
129	129	1
74	78	1
40	40	1
103	103	1
116	122	1
115	123	1
88	88	1
135	135	2
104	104	1
130	130	2
32	32	2
66	66	1
143	143	1
17	17	3
177	180	1
13	31	1
136	166	1
96	97	1
101	101	1
128	129	1
127	171	1
34	74	1
121	121	1
67	67	1
142	160	1
77	77	2
19	19	1
65	65	1
66	149	1
142	143	1
126	127	1
77	95	1
154	154	2
16	18	1
158	158	1
40	126	1
50	50	1
140	140	1
142	152	1
133	134	1
20	20	1
130	166	1
76	78	1
97	128	1
59	59	1
68	68	1
28	44	1
139	139	1
36	41	1
56	60	1
52	95	1
80	80	1
42	42	2
71	171	1
175	175	1
1	1	1
141	142	1
34	34	1
34	115	1
119	161	1
135	143	1
125	131	1
55	56	1
13	13	1
144	155	1
168	168	1
166	166	1
99	100	1
164	166	1
15	22	1
172	172	1
134	160	1
135	156	1
177	178	1
62	63	1
2	4	1
31	31	1
85	163	1
37	58	1
117	159	1
