206	206	1
133	134	1
4	95	1
71	71	2
213	214	5
79	79	2
103	103	3
108	108	1
15	15	2
185	185	2
224	224	4
217	236	2
221	221	3
183	183	4
29	29	3
221	222	1
149	149	4
48	48	2
45	45	3
10	10	3
31	32	1
79	117	1
127	127	1
153	154	2
137	137	2
80	81	3
216	216	2
61	65	1
188	190	1
238	239	2
20	21	2
219	219	4
203	203	1
68	69	2
231	231	1
191	192	2
24	24	2
157	157	2
233	233	2
21	22	2
107	107	2
88	88	1
96	96	2
204	204	3
95	97	1
151	154	1
8	9	1
154	167	1
110	159	1
153	173	1
165	165	3
164	205	2
118	118	4
16	16	2
189	189	1
60	120	1
45	47	1
156	156	2
41	41	1
55	91	1
42	42	2
174	174	2
183	184	2
136	137	1
180	180	2
125	127	1
85	85	1
22	22	1
159	160	2
27	27	4
62	74	1
124	125	1
111	111	1
40	40	6
216	217	1
215	215	5
77	78	1
86	86	1
71	121	1
133	133	2
10	11	1
64	64	2
175	206	1
170	170	2
72	72	1
162	162	1
142	142	4
186	186	2
171	171	2
34	34	2
20	20	3
28	28	4
199	199	1
169	169	1
144	169	1
191	191	2
166	180	1
192	193	1
146	176	1
226	226	1
149	152	1
138	138	1
166	181	1
131	131	2
39	41	1
80	80	1
168	199	2
35	35	1
227	228	1
50	50	4
20	29	1
200	200	1
167	167	1
52	52	1
49	69	1
190	191	3
40	41	2
202	202	1
50	80	1
7	7	2
71	72	1
202	203	1
56	58	1
97	97	2
99	99	1
16	17	1
34	38	1
104	104	2
95	95	2
148	148	1
211	215	1
2	3	2
2	65	1
75	75	3
157	160	1
224	225	2
38	38	3
73	74	1
213	213	4
169	170	2
42	128	1
130	130	1
184	184	3
150	151	1
55	55	3
33	43	1
176	177	1
66	66	2
22	23	1
148	192	2
16	18	1
163	177	1
227	227	2
1	4	1
138	139	1
117	117	1
19	19	2
72	113	1
208	210	1
35	41	1
14	15	1
69	113	1
135	135	1
18	18	2
115	115	2
46	46	2
156	160	1
220	220	2
162	163	1
8	8	1
58	59	2
181	183	2
20	25	1
17	17	1
148	152	1
176	176	2
36	36	2
48	66	1
207	208	1
195	195	1
157	158	1
3	3	3
102	103	1
58	58	1
33	76	1
26	28	1
57	57	1
132	132	1
38	39	1
83	83	1
193	193	1
130	133	1
211	211	1
228	228	2
32	32	1
56	56	2
49	67	1
105	105	1
223	223	3
51	51	1
11	11	2
159	159	1
153	153	2
62	64	1
119	119	3
125	126	1
110	110	1
31	31	2
203	206	1
110	113	1
136	136	3
201	201	1
188	188	2
197	197	2
80	138	1
6	6	1
171	172	1
68	68	2
9	9	1
214	214	1
22	40	2
217	218	1
239	239	1
121	121	1
79	80	1
53	53	1
99	142	1
117	118	1
158	173	1
158	158	1
18	21	1
210	210	1
71	233	1
148	149	2
122	122	1
43	43	1
51	76	1
25	25	2
39	40	1
225	225	1
180	226	1
150	174	1
242	242	1
183	209	1
50	51	1
136	171	2
112	170	1
137	139	1
109	109	1
214	215	1
113	113	2
98	98	2
100	101	1
65	157	1
175	175	1
222	222	1
181	222	1
67	69	1
65	65	1
166	166	1
236	236	1
154	168	1
141	142	1
76	76	2
57	67	1
205	207	1
81	124	1
198	198	1
72	84	1
45	71	1
186	187	1
205	205	1
217	217	2
7	225	1
175	204	1
56	57	1
10	69	1
179	179	1
108	109	1
139	145	1
169	200	1
134	135	1
137	145	1
60	60	3
237	238	1
116	117	1
70	73	1
20	23	1
6	12	2
171	192	1
105	108	1
239	240	1
23	101	1
74	74	1
192	192	1
26	26	1
49	49	1
158	167	1
139	139	1
64	228	1
230	230	1
144	145	1
8	225	1
195	196	1
194	214	1
67	67	1
139	174	1
196	196	1
