148	148	3
0	3	1
7	17	1
121	121	6
171	172	1
168	168	4
123	123	1
194	194	1
221	221	6
43	43	3
143	143	5
23	23	3
213	213	6
212	227	3
192	192	2
121	216	2
39	39	3
83	83	4
41	41	1
140	189	2
115	216	1
52	53	2
7	109	2
33	34	1
201	201	2
15	16	1
232	234	1
158	176	1
200	201	3
181	181	4
182	182	3
37	38	2
127	127	6
9	9	4
27	27	3
45	45	2
55	58	1
213	218	1
78	78	2
178	178	1
176	179	1
163	163	1
1	1	1
150	150	1
170	171	1
25	30	2
169	170	2
139	140	1
220	224	2
72	72	3
35	35	1
161	162	4
75	75	7
140	156	1
147	147	4
71	182	2
54	58	2
136	136	3
37	37	1
18	19	3
230	230	2
85	85	2
6	6	4
191	191	3
218	218	3
23	24	1
144	144	3
8	8	2
220	222	2
28	28	3
222	228	1
5	14	1
77	77	1
30	32	2
165	166	1
211	211	3
169	169	3
98	98	1
99	99	3
12	13	1
54	54	2
205	205	5
145	213	2
0	144	2
215	215	5
186	186	10
76	76	4
151	151	1
225	225	5
2	196	1
55	55	3
80	83	1
76	78	1
116	124	1
170	175	1
79	79	1
34	36	1
49	50	3
216	216	5
217	217	7
61	61	3
182	237	1
214	214	6
197	234	1
133	133	5
155	155	3
6	7	2
80	82	1
84	84	4
97	97	3
51	51	2
29	32	1
106	203	1
26	26	3
128	128	2
81	81	1
203	209	2
102	102	1
162	162	1
149	205	1
60	60	5
209	209	3
188	188	6
121	131	1
18	18	2
116	116	5
5	83	1
47	47	1
221	225	1
69	75	1
106	238	1
140	167	1
195	195	4
48	48	3
101	101	2
34	34	1
103	104	1
58	58	3
219	219	1
2	2	3
22	22	1
165	165	1
105	105	2
145	211	1
128	129	2
228	228	4
14	143	1
225	226	1
43	64	1
58	67	1
3	8	2
190	190	4
62	62	2
214	238	1
19	19	1
113	113	3
207	228	2
199	211	4
131	131	2
42	42	5
149	149	2
69	69	3
104	104	4
70	74	2
171	171	2
102	110	1
242	242	2
172	172	3
199	199	5
52	52	5
49	49	5
57	77	1
108	108	1
54	107	1
12	12	3
24	25	2
63	67	1
233	233	1
207	207	3
89	194	1
46	238	1
173	205	1
234	236	3
233	234	1
222	222	1
86	86	2
171	201	1
163	164	2
197	242	1
119	120	1
7	7	5
204	204	5
79	157	1
104	227	1
197	200	1
44	44	1
123	229	2
10	109	1
172	173	3
125	126	2
1	74	1
173	174	2
82	83	3
73	73	2
40	50	2
174	174	2
95	95	3
158	158	2
164	164	2
187	187	3
4	5	1
40	40	2
4	4	5
197	197	3
135	135	3
102	104	1
64	70	1
13	14	2
34	40	1
13	15	1
58	63	2
226	227	1
223	223	2
65	65	4
237	241	1
222	226	3
121	122	1
175	175	5
144	145	1
99	101	2
5	8	1
48	50	1
171	240	1
193	194	2
55	56	1
104	111	1
164	168	1
32	32	3
120	120	1
122	123	2
195	211	1
150	151	1
148	149	2
227	227	4
17	17	1
177	177	1
156	156	2
109	109	2
74	74	3
134	134	1
114	125	1
51	52	4
142	142	2
185	192	1
14	15	5
124	129	1
17	19	1
25	55	1
220	220	2
179	179	3
217	218	1
129	129	2
170	240	1
229	229	3
104	105	1
115	118	1
0	0	2
55	57	1
237	237	1
9	99	1
71	71	2
102	109	1
173	177	1
159	160	4
72	134	1
119	119	1
200	200	2
108	162	1
101	102	1
78	80	1
55	128	1
162	163	4
211	213	1
75	176	1
19	41	2
70	70	2
118	122	2
100	191	1
14	14	3
202	202	3
24	29	1
115	214	1
225	227	2
134	192	1
142	144	1
160	161	1
145	145	2
29	29	1
153	187	1
67	67	2
62	64	1
3	15	1
31	31	2
57	57	2
59	59	1
33	33	2
212	219	1
102	223	1
56	58	1
165	194	1
176	177	1
0	1	1
172	226	1
146	146	3
23	30	1
74	85	1
118	132	1
184	185	1
171	182	1
96	96	2
80	80	1
135	136	1
112	198	1
170	197	1
106	106	2
48	124	1
20	21	1
102	163	1
2	84	1
166	169	1
81	82	1
46	46	1
80	84	1
24	232	1
210	211	2
87	90	1
180	180	1
117	117	1
10	27	1
27	85	2
36	36	1
236	236	2
170	170	3
122	122	2
10	10	2
139	147	1
206	206	2
141	141	1
17	52	1
103	106	1
193	193	1
4	215	1
73	79	1
201	202	1
4	6	1
2	145	1
209	210	2
25	25	1
11	11	1
185	188	1
180	181	3
198	198	1
208	209	1
10	11	2
28	29	1
208	208	1
154	167	1
189	189	1
224	224	2
163	188	1
151	152	1
48	49	2
159	200	1
30	96	1
155	168	1
136	137	2
167	167	1
207	208	1
204	207	1
38	44	1
197	198	1
133	176	1
166	166	1
70	71	1
32	33	1
210	210	3
241	241	1
20	20	1
122	124	1
77	83	1
173	173	1
226	226	1
126	126	2
240	240	1
227	228	1
42	45	1
7	100	1
231	232	1
1	5	1
130	130	1
159	164	1
196	196	1
233	241	1
10	102	1
152	153	1
239	240	1
231	231	2
228	231	1
53	53	2
230	231	1
218	219	1
161	180	1
239	239	2
56	56	2
24	48	1
228	229	1
50	182	1
153	153	1
6	14	1
154	154	2
168	183	1
235	236	1
23	29	2
182	183	1
159	159	1
33	76	2
76	79	1
62	63	1
76	77	1
215	216	2
131	164	1
119	234	1
204	205	1
112	210	1
199	200	1
105	211	1
5	5	2
118	127	1
184	184	1
168	227	1
14	67	1
133	134	1
57	102	1
206	210	1
129	188	1
2	5	1
64	64	1
176	176	1
115	235	1
119	142	1
66	66	1
224	225	1
62	69	1
46	88	1
123	124	1
78	79	1
142	193	1
212	226	1
28	30	1
134	180	1
21	21	1
157	157	1
201	242	1
58	59	1
105	107	1
9	33	1
185	185	1
115	115	1
66	238	1
205	206	1
224	228	1
179	182	1
10	28	1
