76	76	2
79	79	7
68	68	7
104	104	2
88	89	1
59	59	3
21	26	1
43	43	1
76	88	1
40	42	1
55	55	2
45	103	1
50	50	8
93	98	1
46	46	2
41	41	1
62	64	1
98	98	5
94	94	5
69	70	1
38	41	2
77	77	5
31	31	5
71	71	5
87	99	1
100	100	3
65	65	6
77	78	2
52	52	3
63	86	1
68	69	1
66	67	3
103	103	2
42	51	1
50	61	1
93	93	5
24	24	4
64	64	1
26	26	3
58	58	2
28	29	1
74	74	3
40	40	1
45	45	2
26	58	1
82	83	1
24	31	1
100	103	1
88	88	4
70	93	1
95	95	7
63	64	2
70	70	2
28	39	1
54	54	3
36	37	3
39	39	6
73	73	4
22	24	2
56	98	1
75	89	1
85	85	3
42	88	2
25	26	1
61	61	2
27	27	3
30	63	2
102	102	2
46	83	2
37	63	1
91	93	1
68	72	2
92	94	1
21	24	1
37	62	1
53	57	1
33	33	4
105	107	1
90	90	4
78	83	1
52	91	1
57	57	2
34	34	4
38	99	1
30	30	4
29	29	1
84	104	1
92	92	2
66	66	3
84	84	4
37	43	2
89	89	1
38	38	1
20	29	1
96	98	1
55	70	1
82	85	1
20	20	1
63	63	1
93	94	1
67	68	1
76	77	1
45	59	1
26	31	2
70	71	1
46	48	1
50	58	1
21	35	1
33	34	2
101	101	1
76	82	1
35	36	1
53	54	1
75	75	3
40	102	1
50	51	2
97	97	3
72	72	1
71	74	1
89	92	1
91	92	1
33	43	1
105	106	1
67	67	3
60	60	3
80	80	2
51	52	1
23	23	3
81	81	1
31	64	1
35	35	1
42	42	1
58	74	1
94	96	1
32	35	3
38	40	3
81	82	1
69	69	2
59	68	1
80	89	1
58	59	1
49	49	5
86	87	1
21	72	1
78	78	3
32	32	3
61	97	1
25	25	1
53	53	2
90	91	1
23	59	1
47	47	2
36	48	1
41	43	1
41	72	1
56	88	1
70	77	2
56	84	1
100	102	2
85	87	1
22	22	4
81	84	1
73	78	1
80	87	1
54	55	1
56	56	1
23	24	2
96	96	4
37	38	1
98	99	2
83	83	1
25	30	1
35	64	1
58	60	1
28	28	2
51	51	1
39	40	1
42	44	1
50	77	1
99	106	1
72	73	1
26	78	1
52	54	1
39	45	1
58	62	1
20	76	1
32	91	1
52	78	1
36	36	1
94	95	1
87	87	1
50	53	1
78	79	1
105	105	1
61	71	1
30	40	1
34	62	1
81	89	1
21	21	1
86	86	1
77	104	1
40	41	1
