137	137	3
69	69	1
109	152	1
31	33	1
16	16	3
41	63	1
121	122	4
36	36	3
3	4	3
10	10	1
74	74	1
144	144	2
15	15	2
131	131	2
20	36	1
49	51	1
26	26	1
22	22	5
85	85	2
9	9	4
5	5	2
91	91	2
136	136	1
140	140	2
48	48	1
149	149	1
107	108	2
132	132	3
138	157	2
22	23	1
100	100	2
102	152	2
64	144	1
79	81	1
31	116	1
49	49	1
49	50	1
44	44	4
135	147	2
92	93	1
19	19	4
56	57	2
40	42	2
77	77	2
116	116	1
46	46	3
119	119	3
118	146	1
102	102	1
41	43	2
43	134	1
118	125	1
13	13	1
153	153	3
86	91	1
146	153	1
96	108	1
37	37	1
109	110	1
43	43	4
154	155	3
79	79	1
120	120	1
112	121	1
5	43	1
27	138	1
31	31	1
138	138	3
41	41	2
27	54	1
39	39	2
73	73	2
136	144	2
105	106	1
107	130	1
20	20	2
37	41	1
108	109	1
81	97	1
29	55	1
14	25	1
54	54	3
109	123	1
105	142	1
89	113	1
126	126	2
129	129	1
25	25	3
13	35	1
107	112	1
82	154	1
47	47	1
12	12	1
93	93	4
62	90	1
116	120	1
4	57	1
130	130	1
157	158	1
35	55	1
76	76	1
3	49	1
71	71	4
134	134	2
33	33	1
68	68	3
92	107	2
90	90	2
64	93	1
27	27	2
0	0	2
0	2	1
14	14	1
154	154	2
49	52	1
8	123	1
9	11	1
75	87	1
125	125	2
68	105	1
135	137	2
1	4	1
131	132	2
92	92	2
31	35	1
118	118	2
156	156	1
94	110	1
70	70	2
7	8	2
112	112	1
87	88	2
116	117	1
71	78	2
123	123	5
26	27	1
3	3	1
134	135	1
34	34	1
30	30	1
66	67	1
56	56	3
68	88	1
26	80	1
152	158	1
25	31	2
38	38	2
104	119	1
100	151	1
45	45	2
152	152	1
115	141	1
150	150	2
80	93	1
52	55	1
71	87	1
84	85	1
117	148	1
137	138	3
102	104	1
66	68	1
124	125	1
85	86	1
1	1	1
80	123	1
48	51	1
123	144	2
149	157	1
6	6	1
121	121	1
148	148	2
2	3	1
67	68	1
142	142	3
115	146	1
16	20	1
110	110	1
101	101	2
71	122	1
107	137	1
3	9	2
80	80	1
48	49	1
29	30	1
30	48	1
21	50	1
110	132	2
120	123	1
31	48	1
111	111	1
50	50	1
89	89	1
42	42	1
32	32	2
118	124	1
75	75	1
123	151	1
83	83	1
136	145	1
57	57	1
28	28	2
11	12	1
27	34	1
4	56	1
107	107	1
42	90	1
39	90	1
21	21	1
108	124	1
111	112	1
69	129	1
101	132	1
28	30	1
158	159	1
146	147	1
81	81	1
119	124	1
77	95	1
127	138	1
105	105	2
95	95	1
131	134	1
67	67	1
13	47	1
3	10	1
84	93	1
121	127	1
103	103	1
89	91	1
18	18	1
39	41	1
52	52	1
107	111	1
7	7	1
0	19	1
133	133	1
69	87	1
90	91	1
32	35	1
1	2	1
35	35	1
25	26	1
102	154	1
139	139	1
15	143	1
152	156	1
17	26	1
99	99	1
80	104	1
94	95	1
57	63	1
147	147	1
23	23	1
141	142	1
2	45	1
