95	95	2
107	134	1
116	117	1
98	98	3
26	26	2
124	126	1
91	91	7
116	116	1
35	36	1
90	92	1
95	97	1
46	46	2
42	42	4
87	91	1
150	150	2
97	133	1
79	80	2
6	6	2
36	37	3
139	146	1
5	6	2
104	104	2
3	3	2
142	142	3
141	141	2
5	5	3
107	107	2
14	15	1
148	148	1
66	66	3
105	105	1
16	16	4
154	157	1
31	31	2
80	80	3
108	108	3
34	34	2
44	44	1
134	134	1
128	128	3
121	122	3
77	80	1
28	29	2
2	2	3
42	45	3
152	152	1
98	123	2
94	96	1
9	9	4
158	158	3
125	125	2
75	78	2
48	48	4
32	32	1
50	50	3
8	8	1
67	129	1
158	159	1
56	56	1
103	133	2
155	158	1
100	100	1
121	121	2
147	147	2
94	107	1
110	110	2
93	93	3
4	4	2
82	82	2
110	112	1
122	122	1
130	131	2
29	30	1
153	154	2
28	28	3
106	141	1
109	111	1
146	147	1
39	39	1
38	38	1
149	151	1
119	119	2
145	145	1
34	35	3
119	120	4
92	142	2
8	9	1
114	114	2
154	156	2
94	94	5
7	8	1
144	144	2
42	101	1
53	53	1
48	96	3
78	78	3
134	135	2
43	43	2
134	136	1
124	124	2
107	131	2
27	41	1
65	65	4
93	111	2
0	0	2
54	55	3
19	19	2
92	92	1
131	132	1
107	108	1
130	130	3
56	57	1
23	24	1
50	57	2
106	106	1
155	156	1
22	22	3
12	12	1
138	141	1
16	27	1
38	82	1
98	99	1
127	127	2
101	105	1
107	136	1
127	133	1
28	52	1
111	111	1
81	83	1
8	37	1
0	1	1
137	137	1
93	154	1
151	151	2
46	52	1
23	23	1
91	92	1
110	113	2
45	45	2
122	126	1
49	49	1
123	124	1
83	83	1
48	49	1
7	47	1
133	133	2
106	107	1
117	117	1
133	150	1
11	11	3
150	151	1
25	25	1
93	94	2
136	136	1
131	131	3
129	130	1
21	22	1
51	52	2
13	95	1
104	105	1
75	95	1
81	120	1
69	81	1
85	85	2
105	106	1
156	156	5
97	97	1
76	77	1
101	102	2
67	68	1
35	35	1
82	109	1
33	33	1
139	139	3
30	30	1
70	71	1
27	28	1
155	155	3
42	43	1
16	17	1
139	150	2
17	17	1
62	62	1
29	39	1
19	20	1
92	93	1
43	45	1
115	115	2
26	30	1
55	67	1
68	69	1
8	11	1
90	91	1
49	50	1
151	152	1
154	154	1
132	132	1
137	139	1
24	24	1
17	75	1
21	21	1
51	51	1
13	94	1
123	123	1
87	87	1
6	45	1
152	153	1
95	96	1
87	88	1
36	36	1
46	47	1
86	86	1
112	112	2
16	20	1
91	108	1
132	133	1
99	99	1
4	6	1
88	88	1
45	48	1
72	73	1
135	135	1
37	39	1
36	39	1
138	139	1
117	134	1
62	63	1
129	132	1
157	157	1
17	36	1
107	141	1
