167	168	1
45	45	5
167	167	5
193	193	3
27	28	2
143	143	2
40	44	1
143	148	1
151	152	1
33	35	1
28	152	1
115	115	3
30	63	1
146	146	3
23	23	2
51	51	1
162	163	2
34	34	1
162	173	1
0	64	1
26	27	1
68	68	5
110	110	3
33	33	2
136	136	2
128	128	2
125	125	3
7	8	1
48	48	1
29	29	2
64	136	2
134	138	2
127	171	1
192	192	2
181	182	1
183	183	3
2	2	6
7	7	1
31	98	1
187	188	1
64	75	1
96	96	3
140	148	1
79	80	1
71	72	2
151	151	3
27	96	1
118	118	3
123	123	1
100	100	1
142	143	1
53	53	2
7	95	1
41	41	1
53	55	1
157	157	1
9	12	1
161	176	2
128	129	1
4	4	1
113	113	3
17	71	1
181	181	1
26	28	1
59	61	2
78	78	3
149	150	1
5	5	2
24	101	2
32	32	1
137	137	1
111	140	2
20	20	1
37	38	2
121	121	1
192	193	3
173	173	3
72	72	4
93	97	1
8	8	2
1	2	1
112	121	1
93	93	2
60	61	1
30	97	2
103	103	2
43	45	1
35	85	2
112	132	1
120	120	2
137	167	1
18	18	1
152	152	1
114	169	1
123	126	1
0	62	1
189	191	1
153	155	2
170	170	1
46	46	2
81	81	1
36	36	1
180	180	4
67	67	1
1	7	1
124	124	1
115	143	1
63	63	1
62	135	1
22	22	1
108	108	2
79	89	1
174	175	1
33	71	2
139	139	1
25	26	1
95	95	1
97	97	3
171	171	1
61	150	1
158	158	1
18	19	2
1	1	1
55	56	1
21	22	2
67	68	3
33	40	1
135	135	3
34	86	2
122	122	1
10	13	1
130	130	2
11	64	1
107	107	1
28	30	1
42	46	1
8	69	2
144	158	1
153	153	1
24	24	3
21	21	1
67	76	1
129	135	1
0	75	1
196	196	1
189	190	1
130	131	1
134	134	1
172	172	1
13	13	2
89	89	1
76	76	1
47	47	1
42	42	1
20	21	1
132	132	2
179	180	2
182	183	1
80	96	1
23	24	1
16	107	1
17	17	1
148	148	2
15	15	1
14	14	1
55	165	1
108	163	1
9	14	1
61	82	1
98	98	3
159	159	2
159	186	1
138	138	1
112	112	1
3	4	1
60	60	1
40	42	1
144	144	3
149	169	1
176	176	1
168	168	2
114	134	1
36	40	1
65	76	1
177	177	1
31	31	1
39	40	2
87	89	1
17	125	1
95	152	1
100	107	1
156	158	1
164	164	2
43	44	1
35	36	1
43	43	3
95	157	1
128	187	2
62	62	2
38	38	2
85	85	1
69	71	1
39	39	1
4	5	1
43	129	1
44	44	1
187	187	1
54	54	2
149	149	1
95	192	1
95	96	1
165	167	1
1	80	1
59	59	1
171	183	1
182	182	1
183	184	1
65	66	1
114	114	2
1	3	1
140	140	1
78	79	1
50	50	1
99	152	1
22	26	2
1	71	1
160	160	1
96	161	1
83	89	1
7	83	1
121	136	1
11	11	1
81	82	1
180	188	1
57	57	1
70	70	1
161	162	1
108	118	1
22	88	1
126	126	1
45	99	1
25	25	1
119	119	1
114	115	1
121	137	1
7	64	1
70	77	1
169	169	1
196	197	1
113	118	1
142	142	1
184	184	1
79	79	1
35	35	1
49	57	1
