116	116	6
7	9	3
125	128	3
79	79	4
17	17	2
14	14	4
14	25	3
26	146	1
105	105	3
169	169	1
20	22	3
144	145	2
11	12	4
139	139	3
117	118	3
160	169	1
7	7	6
11	11	3
120	136	1
144	144	3
159	160	3
150	150	5
37	37	7
49	50	2
86	86	5
146	148	3
52	52	6
116	117	1
142	144	3
50	81	1
111	111	2
26	26	7
136	136	5
86	100	1
96	117	2
129	129	4
36	36	4
74	140	2
82	82	6
138	138	7
129	130	7
137	137	6
164	165	2
166	166	9
62	68	1
80	80	2
5	5	2
103	103	1
40	40	4
21	21	3
57	62	1
72	165	1
36	37	3
132	136	4
42	42	5
74	74	2
157	157	2
87	87	4
69	69	2
73	82	1
41	41	3
34	34	2
131	132	2
127	127	3
109	109	4
45	45	3
89	90	3
112	112	4
66	66	3
70	70	4
87	88	3
114	114	5
125	127	1
51	51	4
17	18	2
151	154	1
53	53	4
39	40	3
71	124	1
35	35	8
4	4	3
129	133	1
154	154	1
145	145	1
11	139	1
84	84	2
9	113	2
160	160	1
131	131	1
73	73	6
18	40	1
14	15	3
119	119	3
6	6	4
170	170	3
99	100	3
10	42	1
76	169	1
53	56	1
1	109	1
1	1	6
75	111	1
115	115	2
8	8	4
90	90	3
2	2	4
38	38	2
155	157	2
97	98	1
3	3	5
82	83	1
118	119	3
156	157	2
72	92	1
113	114	2
12	78	2
76	80	2
125	125	2
48	63	2
8	23	1
55	55	1
162	167	1
98	98	2
61	63	1
45	66	2
143	143	1
106	106	4
56	56	8
0	1	3
49	112	1
33	35	1
67	68	2
94	94	1
106	107	1
58	58	1
161	161	1
21	22	1
101	104	1
167	168	1
40	58	2
73	145	1
130	149	1
36	151	1
54	63	3
41	43	2
4	24	1
15	16	2
97	97	1
4	69	2
133	133	2
154	155	2
159	159	3
45	153	2
8	9	1
84	85	1
48	48	1
49	113	1
153	153	1
18	18	1
64	73	1
86	108	1
141	141	3
106	158	1
0	2	2
71	71	4
25	25	4
90	91	4
53	126	2
122	122	3
102	103	1
101	103	1
23	23	3
26	56	1
14	24	1
89	89	1
124	124	2
56	69	2
52	53	1
140	140	1
56	160	1
1	68	1
162	165	2
6	7	2
27	27	1
50	50	1
68	68	2
22	80	1
99	99	1
126	126	2
94	96	1
149	149	2
62	62	3
150	151	4
119	120	3
167	167	1
17	78	1
98	164	1
23	94	1
47	151	1
58	161	1
151	151	3
73	105	1
79	130	1
58	102	2
163	163	4
149	153	1
58	64	1
146	156	1
101	102	1
70	71	1
53	70	1
134	151	2
67	75	1
118	126	1
55	71	1
8	113	1
44	44	4
26	54	1
34	47	1
56	57	4
126	128	1
134	134	2
47	89	1
165	165	1
78	78	3
89	139	1
77	77	2
146	146	3
158	159	2
22	23	2
42	43	1
85	85	1
10	10	6
47	47	2
93	94	1
157	159	2
64	64	2
83	83	2
94	115	1
46	46	3
163	164	1
53	71	1
9	10	1
15	41	1
108	112	1
128	145	2
114	116	1
168	168	2
119	124	1
149	151	1
22	22	4
21	49	1
107	107	2
88	88	1
72	72	2
45	159	1
10	23	1
5	17	1
137	144	1
20	21	2
95	95	1
119	125	1
4	43	1
167	169	1
130	130	1
117	117	3
10	12	2
128	128	1
154	161	1
12	77	2
144	153	1
148	148	1
57	57	1
118	118	2
86	87	3
105	106	2
71	137	1
147	161	1
49	62	1
110	150	1
73	132	1
26	156	1
43	44	1
157	158	3
105	130	1
126	127	1
132	133	1
40	41	1
44	168	1
109	111	1
73	74	1
93	93	1
114	147	1
9	89	1
132	132	1
55	56	1
72	73	1
19	19	1
100	100	2
43	43	1
15	15	1
45	130	1
17	24	1
85	87	1
11	18	1
130	146	1
76	76	1
13	14	1
38	45	1
11	23	1
142	142	1
161	168	1
113	113	1
84	101	1
14	107	1
11	13	1
40	66	1
10	11	2
87	119	1
107	108	1
42	98	1
10	81	1
65	142	1
120	121	1
12	12	2
112	114	1
91	93	1
163	165	1
6	13	1
33	33	1
11	166	2
20	23	1
63	63	1
37	38	1
3	4	1
152	152	1
125	126	1
9	20	1
152	153	1
104	104	1
66	72	1
77	78	1
103	149	1
28	28	1
16	25	1
81	81	1
164	168	1
112	136	1
110	111	1
147	147	1
149	150	1
6	12	1
142	167	1
164	164	1
62	63	1
107	158	1
45	56	1
2	108	1
39	39	1
55	130	1
158	158	1
58	170	1
36	38	1
53	119	1
108	108	1
