99	108	1
3	3	4
178	178	3
18	65	1
27	27	1
12	140	1
147	148	1
110	110	3
51	137	1
2	2	2
135	135	6
28	29	1
194	194	1
73	103	1
78	78	1
169	181	1
4	4	4
94	94	1
192	192	3
5	5	2
181	188	1
138	138	3
155	155	3
119	119	8
186	186	3
99	100	3
156	156	2
143	145	1
119	154	1
176	176	2
113	124	1
158	158	4
160	160	5
72	72	3
114	132	2
58	59	1
103	103	3
60	60	2
19	27	1
37	37	2
36	36	1
145	189	1
79	79	3
100	100	3
104	104	1
50	50	6
195	195	2
32	32	4
2	143	1
1	8	1
172	172	3
116	116	1
174	174	2
105	105	4
107	107	3
18	18	2
13	13	2
55	55	2
109	109	1
146	147	1
94	180	1
101	101	4
12	71	1
95	95	2
140	140	3
51	52	2
47	48	3
120	121	1
152	152	3
75	80	1
17	17	2
11	11	1
10	10	2
166	166	1
191	192	1
136	136	2
161	161	1
160	161	2
30	30	1
145	145	2
28	28	2
84	84	1
179	179	6
25	25	3
168	168	2
39	39	1
154	154	2
56	56	2
9	9	3
50	51	2
133	133	2
0	102	1
49	52	1
28	32	2
64	64	2
89	89	2
129	130	1
71	72	1
24	24	4
165	165	1
175	175	1
48	53	1
131	131	3
129	129	2
14	14	3
127	127	2
179	180	2
134	134	4
97	98	2
70	70	4
35	93	1
39	76	2
197	197	3
69	69	1
98	98	2
97	130	1
115	115	1
101	122	1
190	191	1
125	127	1
0	1	1
54	56	1
169	169	2
21	26	1
121	121	2
191	191	3
113	113	1
124	129	1
108	110	1
178	179	1
139	139	1
2	3	1
0	153	1
161	164	1
167	167	1
67	68	1
43	43	1
51	51	1
60	125	1
57	57	2
36	37	2
34	34	1
40	42	1
135	136	1
2	19	1
77	77	2
117	117	2
125	125	1
49	49	3
147	147	2
54	54	1
12	12	1
186	192	1
53	53	3
161	180	1
23	69	1
154	174	1
97	191	1
74	75	2
22	26	1
28	77	1
153	153	5
124	124	3
101	155	1
86	86	1
69	109	1
162	164	2
140	188	1
187	187	1
155	156	1
16	17	2
105	175	1
35	36	1
10	141	1
7	8	2
31	190	1
82	83	1
141	141	3
134	135	2
185	185	3
64	66	1
26	26	2
112	112	1
4	23	1
26	30	1
121	122	2
144	144	1
177	177	1
146	146	1
102	109	1
187	188	2
14	58	1
23	23	3
98	99	2
157	157	1
65	65	2
126	126	3
104	120	1
114	114	1
124	126	1
102	115	2
20	24	1
193	193	1
75	114	1
161	163	2
171	171	1
181	181	2
183	184	1
142	143	1
40	41	1
106	106	3
120	120	1
21	21	1
40	40	2
76	80	1
47	47	3
42	42	1
32	33	1
52	52	2
46	46	3
81	81	1
85	85	1
73	74	2
44	44	1
122	122	1
16	16	3
128	128	1
41	41	1
120	181	1
6	6	1
59	59	1
160	164	1
39	47	1
164	164	1
94	96	1
169	171	1
38	38	2
188	188	1
118	118	2
134	142	1
143	143	1
157	166	1
173	173	1
53	56	1
196	196	2
15	72	1
150	150	1
4	5	1
31	33	1
1	1	1
141	142	1
8	19	1
162	162	1
87	87	1
87	88	1
181	182	1
182	183	1
88	88	1
149	149	1
185	194	1
121	183	1
64	65	1
133	135	1
71	71	1
54	76	1
16	71	1
82	84	1
29	29	1
130	135	1
79	80	1
174	191	1
60	61	2
93	94	1
9	12	1
154	155	1
123	124	1
100	130	1
23	113	1
