7	30	1
142	142	1
97	119	1
145	145	2
161	161	1
157	157	2
146	146	2
133	141	1
168	169	1
66	68	1
124	124	1
164	170	1
23	23	2
62	63	1
57	87	1
64	94	1
42	42	1
132	159	1
38	157	1
137	147	1
103	103	3
44	60	2
72	73	1
8	18	3
36	36	1
169	169	3
119	119	2
102	102	3
93	93	1
126	126	3
130	144	1
98	98	1
109	119	1
114	118	1
107	109	1
162	162	1
37	37	4
65	65	1
109	120	1
6	10	1
8	8	1
77	77	2
63	63	4
95	95	1
81	82	1
27	27	1
80	125	1
104	114	1
59	72	1
9	26	2
9	9	1
175	175	2
121	121	1
118	118	1
107	108	1
78	78	3
58	58	1
156	156	1
16	44	1
9	33	1
81	81	3
114	114	1
125	125	1
84	147	1
155	155	1
54	54	1
125	147	1
143	144	1
76	79	1
143	143	1
9	62	1
139	141	1
130	130	1
49	74	1
72	72	1
54	82	1
144	168	3
90	90	1
168	168	2
160	161	1
82	114	2
112	112	1
101	101	3
117	117	1
141	141	1
1	1	1
44	44	3
130	131	1
132	166	1
51	51	2
84	85	2
24	62	1
60	60	1
40	41	1
159	159	2
115	117	1
80	80	1
84	91	1
32	32	1
131	135	1
171	171	1
151	153	2
134	135	1
9	37	1
43	43	1
153	153	1
39	61	1
35	80	2
35	78	1
79	79	2
78	90	1
142	145	1
106	127	1
165	166	1
109	109	2
30	30	1
85	87	1
17	23	1
9	23	1
71	71	2
53	71	1
123	123	1
150	150	2
6	7	1
122	141	2
107	111	1
132	133	1
55	55	1
59	60	1
140	140	1
15	15	1
129	129	4
155	156	4
124	125	2
156	164	1
110	110	1
113	163	1
173	173	2
128	130	1
31	31	1
134	134	1
27	41	1
63	73	1
108	109	1
176	176	2
113	113	2
49	50	1
21	80	1
28	28	1
71	145	2
133	136	1
152	175	1
38	55	1
31	57	1
139	139	1
105	106	1
149	149	2
108	164	1
0	1	1
174	174	1
84	166	1
115	115	1
104	116	1
113	117	1
13	22	1
97	97	1
56	57	1
110	172	1
13	13	1
122	122	1
89	90	1
172	175	1
73	73	1
53	55	1
35	35	2
166	167	1
111	118	1
59	61	1
95	129	1
68	68	1
11	14	1
14	37	1
21	109	1
160	160	1
144	174	1
158	168	1
14	15	2
154	154	1
53	53	2
57	145	1
137	137	1
64	64	1
12	40	1
136	153	1
56	56	1
105	107	1
94	94	1
177	178	1
119	122	1
98	121	1
85	85	1
28	62	1
138	138	1
