88	88	1
182	182	3
69	69	3
23	23	1
209	209	2
51	52	1
163	183	1
5	22	1
134	134	2
138	138	2
2	59	3
218	242	1
30	30	1
220	220	4
214	214	3
143	147	1
18	101	1
56	56	1
80	80	2
188	189	1
239	239	2
225	225	3
11	11	3
74	74	1
235	239	1
113	113	1
164	211	2
99	99	2
24	24	2
128	128	1
61	74	1
143	144	1
221	222	1
70	70	3
4	6	1
184	184	2
198	220	2
137	137	3
51	51	1
105	105	1
32	208	1
158	158	1
75	83	1
139	139	2
83	83	4
151	154	2
241	241	2
145	146	1
24	219	2
187	187	1
0	107	2
38	38	2
240	240	1
140	141	2
162	171	1
236	236	1
102	102	2
119	134	1
219	219	4
117	117	2
215	215	1
16	17	2
218	218	3
9	233	1
15	72	1
178	180	1
55	55	1
30	31	1
36	36	1
106	121	1
154	155	2
4	4	4
27	27	3
21	22	1
85	85	5
80	81	1
206	210	1
122	122	3
193	196	1
147	149	1
226	229	1
11	24	1
206	211	1
54	54	4
82	82	4
0	6	1
217	217	2
232	232	1
139	141	1
177	177	4
205	241	2
1	118	1
42	42	3
18	117	1
144	146	1
19	207	1
26	26	4
211	211	2
157	157	1
45	219	1
47	47	1
43	43	3
108	115	3
3	3	1
205	205	2
186	186	1
1	104	1
213	214	1
21	216	1
100	101	1
216	216	4
214	222	1
59	60	1
143	143	3
2	2	1
188	192	1
10	61	2
175	175	3
46	46	5
69	70	1
176	176	2
195	195	1
153	153	2
224	224	2
61	61	2
79	79	1
235	236	1
127	127	2
53	53	1
63	63	2
32	32	4
172	172	3
121	121	1
148	148	2
37	40	2
3	40	1
174	174	3
203	203	1
23	134	1
189	190	2
156	157	1
218	219	1
6	21	1
71	71	3
16	72	2
207	207	3
216	217	2
51	209	1
98	130	1
43	191	2
67	67	2
145	145	1
233	233	1
206	206	1
138	141	1
140	187	1
167	167	2
230	230	2
28	69	2
20	20	2
237	237	1
160	160	1
16	16	1
149	150	1
29	30	1
4	5	1
59	59	1
45	217	1
111	111	1
58	59	1
22	115	1
95	95	2
17	17	3
75	75	1
235	240	1
5	116	1
51	68	1
129	129	2
11	30	2
231	231	2
221	224	1
85	86	1
110	124	1
107	107	1
191	192	1
64	64	1
140	140	1
98	98	4
173	173	3
126	126	2
183	183	3
35	35	4
202	202	1
105	107	1
5	5	2
28	28	1
97	97	1
220	221	1
176	185	1
164	164	1
104	105	1
211	215	1
160	198	1
178	196	1
238	238	1
43	233	1
149	151	1
130	138	1
149	149	2
106	106	1
36	172	1
4	35	1
170	170	2
10	10	2
184	186	1
204	204	3
11	220	1
62	62	1
199	199	1
239	242	2
66	66	2
129	138	1
188	188	4
18	19	1
78	79	1
127	147	1
39	39	1
165	178	1
197	197	4
58	58	1
5	21	1
186	188	1
140	188	1
154	154	1
2	3	1
68	187	1
228	230	1
159	162	1
115	115	1
100	100	1
125	125	1
235	235	2
217	218	1
71	130	1
55	58	2
187	188	1
179	212	1
192	227	1
207	216	1
136	136	2
229	230	1
181	181	1
69	173	1
118	206	1
12	12	1
237	240	1
174	178	1
23	108	1
177	178	1
192	196	1
78	107	1
35	36	1
202	231	1
116	116	1
198	198	1
152	152	2
27	74	1
25	26	1
166	187	1
12	100	1
52	52	1
182	226	1
0	115	1
4	21	1
49	228	1
170	184	1
105	139	1
196	196	1
179	179	1
166	166	1
125	145	1
109	109	1
78	78	1
48	74	1
60	61	1
165	204	1
60	60	1
13	18	1
34	35	1
73	73	1
169	197	1
44	44	1
178	178	1
123	123	2
230	231	1
213	213	1
27	110	1
47	48	1
223	223	1
55	67	2
65	122	1
156	156	2
50	50	1
183	189	1
46	109	1
135	135	1
182	225	1
160	234	1
206	209	1
165	187	1
242	242	1
147	153	1
142	186	1
126	163	1
