93	93	3
82	82	1
107	108	1
76	76	1
96	96	5
101	102	1
12	13	1
136	136	4
94	138	2
107	107	2
38	38	1
27	27	2
34	35	1
73	89	1
13	23	1
32	38	2
128	129	2
78	104	1
72	100	1
74	116	3
12	12	2
19	19	1
14	27	2
86	118	1
119	119	2
18	18	3
1	2	1
103	111	1
77	77	3
115	115	1
131	131	1
28	83	1
104	105	1
35	35	2
38	113	1
109	109	2
28	28	1
71	113	1
92	92	1
31	31	3
127	127	2
30	30	1
101	101	1
4	4	3
2	87	1
36	136	1
7	7	5
109	122	1
71	71	3
89	101	1
111	112	2
72	73	2
76	85	1
135	135	4
83	83	1
13	13	2
113	113	2
79	98	1
30	31	1
11	73	1
126	126	2
20	20	4
91	111	1
120	120	3
18	22	1
90	120	1
74	74	2
11	11	2
22	22	2
106	106	4
86	106	1
37	117	1
99	99	4
94	94	3
129	129	1
108	108	2
6	112	1
29	29	1
9	10	1
115	116	2
78	78	2
120	121	4
94	95	2
94	136	1
79	79	2
121	121	2
6	6	6
17	23	1
37	130	1
122	122	4
10	12	1
125	126	1
1	27	1
14	14	2
84	84	2
37	37	5
126	127	1
97	98	1
83	105	1
0	0	1
72	108	1
25	28	1
21	22	1
24	28	1
9	17	1
11	12	1
104	104	1
105	105	5
23	25	2
80	80	5
113	118	1
76	83	1
78	79	2
124	124	1
123	123	4
98	98	1
123	125	1
96	98	1
93	124	2
17	17	1
16	16	1
4	5	1
15	15	1
1	1	3
14	15	2
84	114	1
89	118	2
75	75	1
10	26	1
36	36	2
3	4	1
124	127	1
135	136	1
23	23	1
139	139	3
29	78	1
77	113	1
117	117	2
118	119	1
105	107	1
76	94	1
90	90	1
116	116	1
130	131	1
32	32	1
77	104	1
27	122	1
128	128	1
11	17	1
87	87	1
7	9	1
33	33	2
13	14	1
121	124	1
72	93	1
33	37	1
78	116	1
103	113	2
113	114	1
110	110	2
21	25	1
109	111	2
95	96	1
88	106	1
81	81	1
91	97	1
104	114	1
14	30	1
26	30	1
80	98	1
18	23	1
94	96	1
74	113	1
74	75	2
130	130	1
73	75	1
89	89	1
4	107	1
85	85	1
5	6	1
75	106	1
21	21	1
12	19	1
36	37	1
129	130	1
137	137	1
104	118	1
19	21	1
35	129	1
1	107	1
25	25	1
8	31	1
75	112	1
