143	143	4
34	35	1
56	146	1
9	72	1
39	39	1
109	109	1
81	81	2
14	15	1
47	52	1
87	115	1
82	82	1
103	103	3
3	71	1
12	12	3
163	163	1
101	102	2
4	4	1
15	15	4
50	148	1
107	107	2
48	49	1
8	18	1
131	132	2
89	89	4
78	80	1
112	112	2
96	96	2
103	104	1
128	170	1
160	160	3
23	23	2
111	111	4
123	123	3
149	149	2
56	87	1
66	66	1
161	165	1
133	133	3
12	17	4
147	170	1
95	98	2
98	98	1
72	73	3
68	68	2
117	118	1
76	76	1
57	57	1
37	37	1
5	5	3
1	1	2
19	63	1
144	144	1
65	67	1
19	19	1
159	159	1
2	2	2
71	74	1
113	113	2
41	41	1
119	119	2
3	3	4
18	24	1
91	94	2
72	72	1
135	137	1
132	132	2
26	26	2
127	152	1
21	21	1
71	71	2
50	50	1
125	125	1
90	91	1
107	108	2
116	119	1
48	55	1
97	98	1
6	7	2
37	106	1
86	86	2
153	153	3
7	20	1
40	40	4
120	120	1
44	45	1
6	6	1
112	158	1
11	137	1
100	100	1
90	90	1
53	54	1
47	145	1
76	78	1
76	79	1
151	151	1
24	25	1
7	8	1
137	137	2
115	115	2
93	102	1
21	24	1
95	95	1
150	150	2
81	95	2
91	103	1
63	87	1
44	44	2
52	52	2
68	75	1
104	113	1
83	84	1
65	65	2
102	121	1
119	159	2
120	121	1
88	88	1
0	0	2
105	105	1
27	27	1
4	68	1
97	97	1
57	152	2
21	22	2
77	77	1
10	74	1
62	66	1
121	163	1
151	152	1
168	168	1
71	75	1
62	86	1
77	80	1
21	85	1
155	155	1
84	119	1
22	23	1
140	140	1
144	145	1
99	99	2
17	17	1
47	47	1
62	87	1
162	162	2
54	56	1
85	85	1
139	139	2
46	46	1
154	154	2
56	56	1
67	77	1
43	43	1
58	85	1
2	86	1
101	119	2
0	1	1
159	160	1
54	54	1
24	24	1
112	137	1
83	160	1
126	126	1
67	67	1
100	152	1
16	16	1
85	87	1
52	54	1
55	55	1
150	151	1
25	25	1
127	127	1
118	118	1
128	154	1
36	36	2
124	124	1
16	17	1
23	65	1
80	81	1
79	79	2
163	164	1
126	155	1
