3	3	4
192	192	1
70	89	1
212	223	1
10	10	2
114	114	4
151	152	2
30	30	2
56	69	1
187	187	1
7	200	1
100	112	3
243	244	2
71	72	1
217	223	1
204	229	3
28	28	2
62	64	1
81	81	3
241	242	1
7	7	1
197	231	1
214	230	1
182	182	4
78	112	1
184	184	4
73	73	2
11	11	1
224	237	2
72	73	3
99	99	3
88	88	3
231	231	1
176	221	1
74	75	2
57	61	1
57	57	2
85	85	1
173	173	4
237	237	4
68	68	2
100	100	3
240	240	4
79	79	2
78	78	4
71	71	1
72	72	4
193	193	2
64	64	3
116	152	1
202	202	3
7	10	1
175	179	1
116	116	3
159	166	1
215	241	3
149	149	1
22	27	1
16	205	2
154	154	1
26	26	3
147	194	1
98	99	1
86	86	3
176	202	1
36	36	5
215	217	1
61	61	2
159	241	1
189	199	1
46	46	1
195	195	4
157	157	2
217	217	2
39	151	1
1	1	2
45	46	1
188	188	5
155	156	1
232	233	2
85	99	1
4	222	3
203	203	4
184	186	1
87	90	1
210	210	1
35	35	1
38	213	1
91	92	2
43	43	3
37	52	1
20	20	3
203	226	2
98	102	1
240	241	2
221	221	2
80	80	2
178	178	1
55	63	1
39	39	4
216	216	4
32	32	3
63	116	1
29	30	1
97	177	1
167	226	1
56	56	4
219	224	1
201	202	1
108	110	1
1	17	1
31	34	1
115	116	2
227	232	2
191	192	1
165	165	2
176	176	1
241	247	1
33	33	5
168	168	1
87	210	1
152	153	1
51	52	2
152	152	1
195	197	2
35	61	2
161	161	1
9	9	3
112	112	3
244	245	1
223	235	1
150	150	3
61	105	1
25	66	1
218	219	1
159	159	5
236	236	2
110	113	1
161	227	2
248	248	1
44	156	1
185	185	1
60	60	2
66	66	2
173	227	1
31	31	2
226	229	1
191	191	2
155	155	1
237	238	1
169	169	1
158	201	1
109	109	1
173	174	2
82	82	2
30	101	1
172	173	2
83	83	1
185	215	1
96	235	2
40	112	1
37	39	1
181	181	1
113	114	2
106	106	1
34	34	1
9	16	1
95	95	1
200	211	1
11	15	2
78	79	1
21	21	1
207	207	1
88	106	1
75	75	5
42	42	1
162	162	3
183	184	1
53	55	1
9	10	1
98	105	1
185	227	2
102	102	2
115	115	1
52	52	1
190	190	2
45	89	1
44	44	1
43	151	1
3	5	1
215	215	3
54	54	2
223	223	5
41	41	2
158	158	3
6	6	6
113	113	3
204	204	1
93	93	4
34	48	1
58	62	1
55	55	2
153	153	1
110	110	2
87	87	1
184	201	2
118	118	2
185	195	1
198	226	1
93	94	2
65	177	1
247	247	1
58	60	1
166	166	2
13	13	1
206	206	2
37	38	1
33	235	1
163	163	1
100	116	1
44	118	1
232	244	1
37	37	3
50	50	3
107	107	2
235	236	1
77	77	2
203	234	1
160	160	3
241	244	1
189	190	3
225	225	2
167	171	1
179	182	1
164	164	2
190	248	1
190	241	1
110	111	1
48	52	1
204	224	2
183	191	1
43	44	1
32	52	1
246	246	2
27	27	4
187	188	2
14	14	2
65	65	2
214	220	1
48	95	2
205	205	6
86	211	1
160	200	1
39	61	2
189	194	1
41	43	1
15	15	2
34	35	1
186	227	3
29	29	2
34	61	1
18	19	2
203	204	1
38	38	1
171	172	1
170	170	1
76	78	1
219	221	1
239	239	1
222	222	2
237	241	1
101	226	1
145	212	1
72	94	1
111	111	2
180	180	1
97	98	2
8	16	2
27	28	1
193	237	1
59	59	1
186	186	1
19	19	1
177	181	1
89	89	2
62	62	1
103	103	1
96	96	2
156	156	1
235	235	1
56	58	1
213	213	1
91	167	1
69	69	2
222	223	1
49	49	1
17	17	1
178	228	1
54	169	2
170	229	1
76	160	1
65	85	1
209	209	2
53	53	1
224	224	2
195	199	2
80	83	1
171	171	1
212	237	1
80	245	1
151	151	2
19	24	1
227	227	1
201	214	2
30	31	1
197	197	1
96	163	1
204	246	1
196	240	1
91	211	1
64	67	1
105	119	1
177	177	1
100	113	1
43	152	1
219	219	1
2	205	1
7	41	1
95	99	1
41	99	1
177	180	1
4	179	1
202	204	1
80	81	1
61	79	1
3	27	1
74	74	2
10	63	1
8	8	1
94	94	3
89	117	1
189	237	1
54	213	1
86	96	1
100	114	1
192	233	1
91	91	1
109	113	1
213	238	1
96	106	1
5	5	2
167	167	1
109	218	1
119	119	2
106	107	1
208	208	1
45	211	1
28	67	1
179	179	1
179	220	1
61	102	1
185	219	1
184	205	1
75	77	1
149	150	1
233	237	1
242	242	2
81	82	1
175	175	2
166	245	1
56	95	1
49	83	1
170	217	1
4	4	1
51	51	2
165	168	1
232	235	2
12	12	1
91	111	1
55	212	1
214	215	1
199	199	1
18	18	1
19	160	1
74	86	1
48	48	1
11	12	1
54	228	1
8	33	1
15	26	2
241	241	1
99	101	1
242	243	1
118	119	1
77	84	1
211	213	1
176	177	1
233	234	1
154	208	1
43	182	1
64	108	1
229	229	1
86	87	1
220	220	1
