154	154	3
129	134	1
27	70	1
40	40	6
102	103	1
116	116	1
55	55	2
141	141	4
68	71	1
112	112	4
65	65	2
129	129	5
148	148	5
143	143	5
100	106	1
44	44	3
147	147	5
104	112	1
32	33	4
23	24	1
150	150	5
13	21	1
13	13	4
118	127	1
85	85	5
130	130	2
135	153	1
101	102	1
96	127	2
103	137	1
8	13	1
136	137	2
52	52	3
113	113	2
49	49	4
51	53	1
145	147	1
22	23	1
43	43	4
80	80	1
120	120	5
145	145	3
116	152	2
10	10	5
51	52	1
46	146	1
81	91	1
87	87	4
28	28	6
93	101	1
42	42	4
157	158	1
117	118	1
2	2	3
8	8	5
158	158	1
128	128	3
5	5	5
63	63	1
135	135	4
24	25	1
77	77	4
20	21	2
83	83	6
106	106	3
49	55	2
30	30	7
45	45	2
11	22	1
112	121	1
101	101	4
97	97	1
118	119	2
36	46	3
36	37	2
123	123	1
15	16	2
110	144	2
82	82	2
24	24	3
71	80	1
26	28	2
98	98	5
17	17	4
53	53	4
73	73	4
131	131	2
3	46	1
19	21	3
46	46	3
156	156	4
80	109	2
26	131	1
141	158	3
11	11	3
117	117	2
84	84	3
156	157	1
12	12	2
121	143	2
137	138	1
111	111	2
149	149	1
7	8	2
53	119	1
79	79	2
49	115	1
35	35	1
126	126	4
110	123	1
98	141	1
71	82	1
21	21	3
139	140	1
41	41	1
78	78	2
124	127	1
89	90	2
121	152	1
125	126	1
23	23	2
9	46	1
20	20	3
146	146	1
112	113	1
140	140	4
133	133	4
26	26	3
102	102	2
6	22	1
99	99	4
0	0	2
86	86	1
120	152	1
36	36	1
32	32	3
133	134	1
132	132	6
14	17	1
91	91	3
118	118	2
26	100	1
147	148	1
134	135	3
137	137	4
105	105	2
68	68	2
41	71	2
12	50	1
119	119	3
110	124	2
122	122	1
24	157	1
100	100	2
136	136	2
111	138	2
66	67	1
155	156	1
130	131	1
88	88	3
115	137	2
38	38	1
103	103	1
98	100	1
122	123	1
107	127	1
71	71	4
55	86	1
3	4	5
5	147	1
22	22	1
115	116	2
125	125	3
41	43	1
142	142	2
37	38	1
10	24	2
113	114	1
9	9	1
114	114	3
148	149	2
2	104	1
51	54	3
7	9	1
17	18	1
13	14	1
65	142	1
9	12	1
121	121	1
78	141	2
109	109	5
1	2	1
152	152	2
50	116	1
11	21	1
101	105	1
67	70	1
150	151	1
9	40	1
135	136	4
69	127	1
50	50	3
139	139	2
153	153	1
121	122	1
97	147	1
64	64	2
8	15	2
31	31	2
134	134	7
62	64	2
127	127	4
87	89	2
70	71	2
25	25	1
33	39	1
51	51	1
93	93	2
107	107	2
7	7	1
115	115	5
123	141	2
30	78	1
65	68	2
126	137	1
116	151	1
97	156	1
7	17	2
48	49	1
0	41	1
34	97	1
92	92	1
39	40	1
9	11	1
33	34	1
111	140	1
54	54	2
68	69	1
1	98	1
18	18	2
57	57	1
88	89	1
6	6	1
92	93	2
86	90	1
104	139	2
157	157	2
64	71	1
121	134	1
23	28	1
29	29	3
94	94	2
104	104	1
90	135	1
119	143	1
44	139	1
26	30	1
83	153	1
84	85	1
83	84	1
15	15	2
70	70	2
108	110	1
56	56	3
67	67	1
56	83	1
69	70	1
14	95	1
48	65	1
108	108	2
3	3	1
138	144	1
113	115	1
8	16	2
39	117	1
90	90	1
86	112	1
106	116	1
104	105	1
14	14	1
66	85	1
109	116	1
126	127	1
54	70	1
78	115	1
135	139	1
67	68	1
131	132	1
55	56	1
84	91	1
70	110	1
79	91	1
14	35	1
155	155	1
111	112	1
127	131	1
19	19	1
11	13	1
81	81	2
138	138	1
4	45	1
94	95	2
65	83	1
90	115	1
113	123	1
40	75	1
34	35	1
103	104	1
27	27	1
48	48	1
85	86	1
53	71	1
123	124	1
93	95	1
68	127	1
2	156	1
27	28	1
12	46	1
17	38	1
