176	213	1
185	186	1
175	175	2
188	188	1
45	65	2
153	153	5
225	228	1
27	27	1
150	150	3
37	37	2
0	1	1
223	223	2
56	56	2
233	237	1
67	67	1
53	53	1
183	184	1
89	89	1
51	57	2
9	9	4
71	72	2
32	32	2
144	199	3
114	116	1
70	70	4
152	154	2
184	184	3
241	241	2
16	16	1
8	8	2
159	159	2
198	201	1
80	103	1
87	90	2
228	228	1
221	221	2
21	27	2
85	85	1
46	46	2
237	237	3
215	225	1
111	111	3
45	45	1
195	195	1
68	70	2
218	220	2
82	99	1
34	39	1
207	207	5
104	104	1
234	234	2
111	112	1
110	114	1
69	73	1
233	233	3
119	119	3
92	118	2
110	112	1
231	231	1
18	18	1
226	226	2
74	79	1
44	44	3
174	174	2
98	98	1
248	248	1
70	169	1
47	49	1
66	66	2
35	36	2
20	20	3
192	192	1
35	42	1
69	69	2
5	5	2
14	15	1
158	158	2
24	24	1
75	75	1
36	36	2
84	84	2
164	170	1
204	205	1
221	222	1
173	173	1
17	18	1
243	244	1
94	94	2
4	4	3
200	200	3
180	187	1
47	82	1
245	247	1
230	230	2
97	97	5
155	155	1
195	197	1
38	56	1
113	113	2
10	10	3
23	23	2
246	246	3
87	87	3
74	78	1
208	212	1
58	58	1
44	45	1
48	48	1
105	106	1
97	98	1
192	210	1
55	55	1
26	26	1
64	69	2
191	196	1
50	50	3
36	43	2
68	68	1
89	90	2
35	41	2
97	101	1
174	227	1
28	28	1
93	93	1
215	216	1
208	210	1
234	235	1
48	97	1
61	68	1
210	210	1
203	203	2
193	233	1
172	172	1
30	30	2
34	35	1
179	229	1
235	236	1
201	201	1
209	209	2
162	167	1
173	197	1
34	37	1
174	182	1
158	159	1
206	206	1
178	231	1
65	198	2
66	69	1
145	145	3
47	162	1
171	171	3
76	79	1
215	242	1
225	225	1
86	87	1
156	156	3
195	214	1
164	164	1
96	96	3
155	156	1
242	245	1
90	91	1
76	119	1
157	157	1
52	52	2
57	57	1
165	165	4
181	181	1
74	74	1
51	55	1
100	101	2
82	86	1
211	211	3
187	187	2
97	107	1
72	72	1
33	33	1
233	234	1
23	25	1
157	158	1
60	163	1
144	158	1
152	162	1
73	74	1
218	218	1
59	59	1
152	152	1
95	119	2
160	160	1
92	92	1
100	103	1
244	246	1
43	45	1
151	151	1
63	71	1
14	14	1
197	197	2
85	86	1
101	101	1
93	109	1
102	102	2
86	86	1
34	56	1
79	79	1
152	166	1
99	99	1
76	80	1
177	177	1
95	95	1
170	170	1
147	147	2
61	61	1
96	104	1
30	31	1
243	248	1
7	7	1
109	113	1
33	40	1
202	202	1
83	83	2
91	91	2
118	119	1
65	170	1
19	19	1
88	88	2
199	234	1
80	121	2
175	176	1
199	199	1
25	39	1
50	68	1
94	96	1
6	6	1
101	115	1
165	166	1
199	200	1
47	47	1
219	231	1
214	216	1
76	76	1
214	214	1
118	118	1
185	185	1
180	180	1
222	222	1
19	38	1
183	183	1
178	178	1
226	227	1
28	31	1
107	107	1
160	166	1
44	65	1
39	39	1
192	196	1
247	248	1
169	170	1
186	231	1
235	235	1
175	185	1
228	229	1
2	2	1
224	224	1
192	228	1
29	29	1
73	73	1
66	68	1
80	94	1
190	190	1
