134	135	1
61	61	1
113	116	1
117	123	1
139	139	2
20	20	1
78	78	5
74	74	5
63	63	1
89	89	3
33	97	1
141	141	2
65	94	2
134	134	3
132	138	1
21	27	1
16	36	1
76	76	1
94	94	2
106	106	2
85	86	3
8	8	2
30	126	2
70	71	2
105	138	1
40	40	4
70	70	2
69	85	2
144	144	1
42	42	5
85	85	4
113	124	2
90	90	3
130	130	2
39	39	4
125	125	2
4	35	2
56	118	1
113	123	1
60	60	3
84	84	2
98	98	2
117	135	1
99	99	1
142	143	1
9	9	3
22	22	6
86	86	1
92	92	2
31	36	1
71	71	1
77	77	1
105	106	1
65	66	1
47	47	3
30	30	4
10	11	1
73	73	4
96	96	4
83	83	1
11	11	2
100	100	1
113	113	1
4	4	2
73	74	1
128	128	1
117	117	2
91	91	1
21	136	1
25	83	1
48	48	2
27	27	2
88	88	2
38	38	1
67	67	1
97	98	3
66	66	3
31	31	2
62	63	1
11	60	1
119	119	5
31	33	1
17	36	1
61	62	1
133	133	1
143	143	1
95	95	3
79	79	1
29	115	1
73	75	1
29	29	1
104	134	1
93	93	2
137	137	1
102	102	1
29	119	1
56	65	1
114	114	2
23	24	2
26	26	3
77	78	1
17	17	1
13	13	3
57	58	1
104	104	3
23	23	3
111	111	2
80	81	2
110	125	3
18	18	1
126	126	1
132	133	1
109	109	1
81	82	1
107	107	1
140	140	3
41	68	1
124	124	2
3	4	1
108	109	2
37	37	1
21	21	2
131	131	2
110	110	1
16	16	1
145	145	3
61	113	1
120	120	1
46	46	1
118	119	1
111	125	1
4	14	1
41	42	2
15	15	1
2	2	2
90	91	1
101	101	2
72	137	1
65	65	2
121	123	1
57	57	1
83	84	1
145	146	1
104	106	2
51	51	1
38	89	1
54	54	1
121	126	1
128	129	1
74	119	1
10	10	1
25	25	1
62	64	1
87	87	1
75	76	2
75	83	1
49	50	1
49	52	1
72	73	1
75	75	1
96	98	1
71	72	1
30	37	1
28	29	1
110	111	1
52	52	1
57	83	1
118	118	1
103	103	1
6	15	1
59	60	1
4	5	1
33	33	1
105	124	1
119	122	1
24	24	1
54	70	1
28	28	1
115	115	1
14	14	1
23	26	1
19	19	1
30	85	1
13	56	1
121	121	1
79	86	1
51	52	1
23	99	1
93	110	1
