116	117	2
110	110	2
118	118	3
100	101	2
92	92	3
102	102	6
130	130	4
35	37	1
119	121	2
3	36	2
129	129	3
116	116	3
23	23	1
18	18	5
14	14	2
96	120	1
96	97	1
86	106	1
8	21	1
112	112	2
109	109	1
15	17	2
11	11	1
20	20	3
13	17	1
6	135	1
2	4	1
120	121	1
3	14	1
80	118	1
12	28	1
73	74	2
2	6	1
80	85	1
20	21	2
137	138	2
34	34	3
92	101	3
5	5	3
113	115	2
37	37	2
27	27	4
66	100	1
2	8	1
8	16	1
1	1	3
84	86	1
128	128	3
21	21	1
29	32	1
115	116	1
13	13	5
120	122	1
104	104	3
125	125	3
123	123	3
71	71	5
15	15	4
4	14	1
93	93	6
101	101	3
72	72	3
108	108	1
99	99	2
122	122	3
91	112	1
19	19	7
129	138	1
117	118	1
77	81	1
111	111	2
31	31	2
35	35	4
127	127	2
87	87	2
4	20	1
75	75	1
13	71	1
7	7	3
0	0	2
6	6	1
4	19	1
79	79	3
118	121	1
108	111	1
84	84	3
16	16	3
85	85	3
129	135	2
16	73	1
5	32	1
15	19	1
113	113	1
131	133	1
78	78	2
95	95	4
139	139	2
131	131	3
115	122	2
27	28	3
0	9	1
135	137	1
136	136	1
125	128	1
9	21	1
126	127	1
94	94	2
140	140	3
71	123	1
121	122	2
123	134	1
29	29	1
4	4	2
134	134	1
22	22	2
116	129	1
16	23	1
10	11	1
120	120	2
5	119	3
73	73	2
96	96	1
27	31	2
129	130	1
9	16	1
115	115	1
131	132	1
103	103	1
133	133	2
76	84	1
99	104	1
83	84	1
3	3	1
11	12	1
114	114	4
100	100	2
0	11	2
36	36	1
74	75	1
99	101	1
12	71	1
97	97	1
102	103	2
138	139	1
126	126	1
23	24	1
86	86	1
103	104	1
89	89	1
74	88	1
108	123	1
132	132	2
71	100	1
113	119	1
89	90	1
111	125	1
96	137	1
30	30	2
4	37	1
133	136	1
92	94	1
25	78	1
76	76	1
119	120	1
94	97	1
80	80	2
4	9	1
90	90	2
121	121	1
119	119	1
89	105	1
98	98	1
71	88	1
91	91	1
113	114	2
71	72	1
135	135	1
2	2	2
15	18	1
118	120	1
112	113	1
33	33	2
12	12	1
93	94	1
82	82	1
90	97	1
79	80	1
28	28	1
90	91	1
