58	58	3
176	178	1
11	11	2
41	67	1
9	9	5
187	191	1
155	155	1
72	73	1
130	132	1
111	170	1
154	154	3
158	159	1
113	115	1
60	61	3
117	117	1
42	42	6
95	96	1
167	187	1
176	176	2
46	46	3
0	0	3
154	155	1
14	14	2
15	15	1
1	96	2
186	186	3
115	118	2
21	21	1
196	196	1
120	120	3
10	10	2
188	192	1
34	35	2
3	4	1
47	48	1
133	134	1
93	95	1
70	70	2
4	4	1
183	183	2
131	131	1
56	56	3
35	35	6
17	17	3
54	135	2
45	45	3
83	83	2
177	177	1
88	90	1
30	35	1
8	8	1
136	136	2
64	65	1
25	25	4
150	156	1
34	70	1
80	100	1
123	126	2
171	172	2
123	123	1
28	28	1
25	26	1
171	171	2
149	149	3
43	122	1
51	51	1
127	130	1
40	61	1
126	126	1
88	88	1
179	191	2
191	191	4
60	60	1
50	50	4
6	6	2
94	95	2
0	2	1
112	112	4
160	160	1
151	151	1
68	68	2
194	194	4
44	45	1
160	167	1
5	7	1
182	182	3
100	100	2
49	50	1
13	14	2
119	120	2
197	197	2
38	38	3
5	5	2
106	106	1
132	132	2
124	124	4
121	183	1
174	177	1
119	152	1
47	47	3
172	172	2
15	16	1
150	176	1
73	73	2
102	107	1
110	110	4
36	37	3
13	13	3
141	141	2
169	169	2
72	99	1
56	57	1
118	118	2
44	44	1
169	170	1
77	109	1
161	161	5
12	14	1
142	142	1
179	193	1
69	71	1
53	53	3
44	112	1
31	32	2
41	43	1
192	192	1
132	133	1
181	182	1
188	188	2
87	88	1
12	12	2
127	129	1
55	135	2
133	133	2
131	136	2
167	167	2
54	120	1
182	183	1
37	37	1
152	152	1
193	193	1
40	41	1
153	153	2
65	65	3
156	156	2
15	17	1
163	164	1
137	140	2
16	16	3
185	185	1
23	23	2
54	54	2
11	58	1
154	166	2
168	168	4
114	114	2
9	193	2
0	5	1
110	111	2
69	69	1
181	181	2
94	94	1
195	195	3
43	43	1
161	168	1
157	157	1
80	80	1
144	145	1
7	7	2
81	81	3
104	104	1
101	101	3
39	39	2
149	167	1
129	129	2
122	122	1
196	197	2
185	186	1
15	131	1
11	14	2
108	172	1
128	128	2
178	189	1
46	76	1
115	115	4
134	134	2
190	190	1
139	139	1
126	141	2
90	90	1
144	144	1
57	57	1
49	49	3
19	19	1
67	67	1
140	140	3
140	141	1
41	113	1
54	60	1
183	184	1
27	28	2
125	126	1
31	88	1
160	164	1
153	154	1
33	33	1
58	98	1
122	123	1
139	140	2
105	105	3
72	76	1
130	130	1
166	167	2
1	3	1
145	145	1
52	52	2
119	119	2
147	148	1
48	48	1
34	87	2
54	182	1
1	35	1
127	127	1
127	128	1
109	110	1
109	109	2
58	64	1
135	135	1
89	89	2
59	62	2
161	163	1
18	158	1
189	189	2
184	185	1
178	187	2
27	27	1
0	4	1
97	108	1
182	192	1
63	64	1
34	34	1
174	175	2
73	75	1
71	71	1
5	33	1
16	17	1
79	97	1
98	98	1
37	38	1
0	43	1
187	188	1
37	61	1
147	165	1
173	175	1
77	77	1
116	116	1
138	138	1
11	12	1
165	166	1
3	39	1
119	129	1
10	12	1
150	150	1
22	22	2
135	136	1
94	97	1
78	78	1
1	1	1
148	148	1
21	144	1
162	163	1
170	171	1
178	178	1
113	113	1
41	41	1
108	111	1
42	46	1
60	62	1
97	146	1
1	88	1
62	65	1
188	189	1
52	128	1
137	137	1
95	115	1
