124	124	2
139	139	3
74	89	1
116	117	1
93	94	1
16	16	6
48	48	1
141	149	1
139	179	1
153	185	1
171	172	2
115	115	3
149	149	1
170	170	1
33	34	3
163	163	2
179	179	4
108	108	3
100	100	2
23	23	4
77	78	1
180	180	3
98	98	3
75	75	2
188	189	1
165	165	2
97	97	3
64	64	1
17	24	1
96	98	1
150	151	1
115	158	1
29	30	1
53	54	3
34	34	1
41	89	1
18	40	1
19	20	1
150	150	2
114	114	3
144	144	2
3	3	6
5	5	2
160	169	1
182	182	1
37	37	2
47	47	2
153	153	1
73	73	1
66	75	1
138	152	1
158	158	2
68	68	4
95	123	1
66	76	1
70	70	2
66	67	1
102	102	3
68	69	1
57	58	1
6	6	3
68	78	1
76	76	1
40	41	1
30	31	1
120	181	1
41	45	1
142	190	1
56	56	3
94	102	2
53	53	1
10	52	1
52	54	2
105	106	2
154	154	4
148	173	2
71	71	4
54	54	1
126	177	1
11	55	2
168	168	3
145	145	1
107	107	1
55	94	2
58	58	2
83	83	3
30	30	2
10	48	1
156	156	1
184	185	1
89	94	3
121	121	2
117	117	3
85	85	4
116	116	3
8	8	2
62	62	2
48	53	1
22	62	1
90	128	1
92	93	1
2	2	1
173	173	3
99	100	1
15	16	1
127	128	3
181	181	1
116	121	1
140	140	2
95	95	1
82	83	2
120	120	1
14	14	1
56	57	1
95	110	1
94	94	1
159	159	12
151	151	1
120	159	1
91	92	1
183	183	3
128	128	1
22	23	2
185	185	1
96	99	1
65	79	1
57	147	1
137	138	1
167	167	2
168	169	1
18	18	1
6	8	1
113	113	2
146	146	3
79	79	3
13	13	2
18	20	2
186	186	2
95	96	2
88	88	1
35	43	1
136	136	2
20	20	3
129	130	2
35	35	3
102	104	1
87	89	2
42	42	1
125	126	1
160	161	1
172	173	2
48	73	1
100	104	1
187	188	1
155	156	2
10	86	1
134	135	3
62	64	1
128	176	1
6	39	2
40	40	2
86	156	1
11	12	2
5	7	1
166	166	2
116	160	1
106	106	1
130	148	1
144	146	1
152	152	3
63	63	3
61	62	1
1	2	1
108	121	1
18	31	1
10	10	2
160	160	1
143	143	1
41	41	3
43	43	2
87	87	1
77	77	1
132	182	1
66	66	1
28	28	3
32	33	1
86	86	2
161	161	1
145	147	2
125	125	2
123	123	2
89	89	1
5	8	2
109	113	1
187	187	1
76	77	1
17	56	1
112	112	2
74	75	1
181	182	1
63	75	2
88	91	1
26	55	2
24	38	1
44	44	1
36	57	1
17	55	1
122	123	1
174	174	1
104	104	1
23	31	1
13	24	1
46	54	1
80	151	1
142	142	2
18	47	2
146	174	1
118	118	1
45	45	1
11	14	1
59	59	1
82	82	1
0	0	1
17	17	1
35	36	1
131	133	1
36	36	1
9	10	1
34	35	1
94	95	1
12	12	1
26	27	1
100	101	1
186	187	1
76	106	1
72	73	1
183	184	1
116	170	1
130	130	1
91	91	2
22	22	2
95	139	1
67	67	1
135	137	1
141	141	1
99	99	1
115	116	1
154	155	1
94	98	1
63	64	1
90	145	1
103	103	1
162	163	1
119	169	1
142	148	1
101	102	1
75	89	1
24	24	1
81	151	1
169	169	1
80	90	1
90	90	1
15	42	1
148	148	1
21	21	2
91	126	1
18	19	1
55	56	1
184	184	1
25	25	1
10	11	1
