53	75	1
121	131	1
107	119	1
80	80	1
17	17	2
138	138	3
16	16	5
164	164	1
89	89	4
69	71	1
98	98	2
25	25	1
111	116	1
26	26	3
37	46	1
67	67	1
136	137	2
0	83	3
136	144	1
0	0	2
19	118	1
66	67	1
69	87	3
64	64	4
108	110	1
124	124	1
55	56	1
93	102	1
147	147	1
49	49	1
6	6	1
40	40	2
107	107	2
34	34	6
27	35	2
160	162	2
140	140	1
91	131	1
110	136	1
47	105	1
65	65	1
75	75	2
154	154	1
54	54	6
78	78	1
11	56	1
167	167	3
113	144	1
128	128	4
127	128	1
126	127	3
84	84	2
41	48	1
133	133	2
61	61	2
25	153	2
22	51	2
74	74	3
158	158	2
107	111	1
170	170	4
145	145	1
46	46	2
67	77	1
55	55	3
159	159	1
57	57	1
152	152	7
42	157	2
47	103	1
12	14	2
93	94	1
105	106	2
156	158	1
168	169	1
111	111	5
26	27	1
51	51	1
142	142	1
3	3	2
7	7	2
145	149	1
101	104	3
163	163	1
70	80	1
122	123	1
63	65	1
66	66	1
148	150	2
131	134	1
126	126	3
14	14	3
112	112	2
54	56	1
38	40	1
103	103	1
125	125	6
163	164	1
63	92	1
47	48	3
4	4	2
104	105	1
115	117	1
8	8	4
52	56	1
114	114	3
9	140	1
166	168	1
87	88	2
103	104	1
152	154	1
145	147	3
111	112	3
137	167	2
97	97	1
7	23	1
110	110	3
102	102	1
20	128	1
112	124	1
45	45	2
88	88	4
0	3	1
145	166	2
135	140	1
103	105	1
8	140	1
46	145	1
144	144	2
123	123	1
71	74	1
169	170	1
11	140	1
85	85	3
79	79	1
133	134	1
34	35	1
35	35	2
149	149	1
116	154	1
99	99	1
49	56	1
16	20	1
3	6	1
91	91	3
92	92	1
42	42	2
155	157	1
122	128	2
27	27	3
21	21	1
136	136	1
2	2	2
109	109	1
18	166	1
77	79	1
50	56	1
156	156	2
166	166	3
112	114	1
109	110	1
83	85	1
100	104	1
71	73	1
101	102	1
143	143	2
146	157	1
23	23	1
33	36	1
9	10	2
24	154	2
58	58	1
69	70	2
148	163	1
115	115	1
17	18	1
151	152	1
102	103	2
152	157	1
37	37	1
22	22	1
73	78	1
9	9	3
159	170	1
116	116	1
108	109	1
43	43	1
21	110	1
117	117	3
122	122	2
63	69	1
160	163	1
75	86	1
119	119	1
137	138	2
97	100	1
97	101	2
18	142	1
90	134	1
33	34	1
139	168	1
131	132	1
0	1	1
21	22	1
100	105	1
133	163	1
86	87	1
78	87	1
24	62	1
50	50	1
106	106	1
162	162	1
139	140	2
96	97	1
132	133	1
95	95	1
116	117	1
89	117	2
19	23	1
106	107	1
117	118	1
152	153	1
80	81	2
63	64	1
120	120	1
82	82	1
133	149	1
19	21	1
55	84	1
110	167	1
82	88	1
46	47	1
120	146	1
111	126	1
12	15	1
17	49	1
77	77	1
125	126	1
134	135	1
5	169	1
63	87	1
166	167	1
72	72	1
56	63	1
20	22	1
161	161	1
57	62	1
68	68	1
150	150	1
106	154	1
5	6	1
70	70	1
71	71	1
99	100	1
45	46	1
19	19	1
113	120	1
120	121	1
66	77	1
89	92	1
151	151	1
106	152	1
63	63	1
47	101	1
37	43	1
93	93	1
36	36	1
6	7	1
112	146	1
