48	48	7
111	111	2
132	170	1
97	97	1
63	66	1
17	17	4
2	2	4
136	137	1
119	123	1
119	120	1
13	23	1
155	155	2
25	29	1
45	73	3
168	168	1
94	94	4
58	119	1
179	179	2
161	161	1
129	129	1
100	100	4
112	112	2
92	101	1
159	185	1
93	135	1
113	113	2
155	163	2
10	10	2
176	176	2
30	117	1
165	166	1
6	6	3
151	151	2
85	85	2
104	104	3
78	78	4
18	19	1
134	134	1
183	184	2
131	131	2
60	61	1
28	38	1
57	57	3
96	116	1
54	54	2
133	169	1
98	98	3
167	167	4
108	108	2
97	134	2
90	91	1
187	187	1
184	184	2
20	20	4
37	122	2
60	60	2
163	163	3
177	179	2
168	171	1
159	160	1
91	104	1
179	180	2
164	164	2
130	130	1
183	183	1
114	115	1
14	14	2
102	102	3
24	29	1
15	23	1
185	185	3
41	41	2
59	114	1
58	62	1
121	121	3
150	150	1
24	24	1
53	53	1
76	76	4
147	147	3
181	182	1
143	143	4
122	122	3
190	190	2
81	84	1
177	178	2
142	149	1
114	184	1
45	46	1
46	46	2
58	59	1
158	189	1
160	176	1
91	92	2
162	162	1
132	132	2
152	152	2
19	19	1
35	35	3
40	40	1
148	148	1
101	104	1
58	58	3
144	144	4
128	149	2
116	116	2
86	121	1
59	127	2
149	178	1
69	70	1
11	14	2
131	174	2
154	154	1
78	122	1
92	92	1
26	29	1
84	84	2
46	92	1
169	169	3
56	56	2
159	159	2
172	173	1
150	182	1
81	81	1
83	83	3
62	115	1
12	12	2
59	59	2
160	177	1
183	186	1
72	72	3
123	124	1
48	116	2
128	128	2
4	4	2
28	28	2
128	129	1
110	111	1
137	137	2
30	30	3
33	34	1
174	174	2
47	47	3
94	95	1
17	19	1
66	68	1
39	39	2
93	93	2
73	74	2
79	79	6
2	6	2
135	135	1
86	86	3
61	62	2
23	24	1
116	118	2
62	64	1
12	13	2
97	102	1
188	188	1
125	130	1
172	172	1
182	183	2
182	182	3
8	8	1
12	45	1
178	180	1
175	175	1
20	28	1
166	176	2
156	156	1
133	133	1
160	160	1
159	162	3
103	109	1
53	122	1
105	106	1
126	129	2
26	56	1
118	118	2
73	73	3
91	102	1
96	96	1
34	130	1
183	188	1
25	25	1
40	41	1
3	3	1
108	162	1
64	112	1
17	18	1
75	75	1
103	103	3
52	52	1
99	99	1
186	186	1
114	114	1
152	153	1
36	54	1
124	124	2
38	38	2
112	114	1
157	157	1
26	26	2
160	161	1
101	101	2
89	153	2
116	120	1
109	111	1
86	90	1
178	178	3
189	189	1
21	22	1
44	48	1
96	97	2
171	171	4
175	177	1
127	127	2
170	172	1
142	142	4
141	175	1
123	125	1
103	113	2
62	62	1
127	177	1
113	114	1
27	28	2
91	112	1
126	126	2
153	153	3
146	146	2
145	145	1
31	32	1
104	105	1
119	119	2
61	61	2
10	57	1
83	128	1
6	7	1
88	88	2
167	169	2
43	43	2
177	177	1
141	141	2
11	11	1
74	75	1
131	155	1
187	188	1
31	43	1
7	8	1
14	30	1
131	171	1
170	171	1
87	87	1
141	146	1
9	10	1
77	77	1
85	151	1
62	63	1
16	16	1
44	44	3
118	119	1
180	181	4
145	146	1
141	150	1
79	87	1
105	105	1
85	86	1
46	55	1
135	136	1
115	121	1
113	132	1
22	22	1
60	68	1
109	109	2
74	95	1
5	6	1
32	33	1
165	165	1
138	140	2
0	1	1
140	140	2
162	189	1
106	107	1
93	148	1
102	109	1
25	32	1
83	124	1
123	123	1
35	61	1
63	63	1
24	26	1
110	110	2
126	127	1
62	67	1
13	22	1
158	159	1
82	83	1
174	175	1
47	60	1
24	30	1
64	65	1
158	158	1
21	21	1
101	102	1
154	155	1
112	119	1
26	28	1
70	71	1
168	170	1
35	36	1
174	176	1
40	93	1
65	66	1
5	5	1
156	158	1
