8	9	1
115	116	2
6	6	2
4	4	2
83	83	4
92	92	1
3	3	3
126	127	3
34	34	2
28	28	1
2	2	4
74	74	1
40	62	1
71	77	1
88	88	1
81	83	1
13	13	2
107	107	3
96	96	4
1	2	1
53	53	1
33	33	2
62	63	4
104	104	2
100	126	1
75	75	2
125	125	2
72	72	1
102	102	6
48	48	6
14	49	1
47	47	2
26	27	2
104	125	1
93	107	1
62	62	2
13	18	1
50	50	5
63	63	4
113	113	4
40	41	2
92	93	2
7	7	2
18	19	2
20	30	1
120	120	2
110	110	3
82	84	2
69	80	1
0	0	2
19	19	1
91	91	1
42	132	1
116	118	1
105	106	2
69	69	3
99	129	1
76	76	3
99	100	4
86	86	2
5	105	1
43	43	1
52	53	4
45	99	1
30	30	2
20	22	1
67	67	2
112	112	3
21	22	2
61	61	4
59	60	2
45	47	1
126	126	1
94	94	2
74	75	1
15	15	2
32	32	1
39	39	1
79	79	6
88	98	1
71	71	1
69	70	2
71	72	2
70	71	1
115	118	1
90	90	1
99	99	1
89	89	2
87	100	1
114	117	1
133	133	3
77	90	1
97	97	1
59	73	2
117	117	1
128	128	1
65	65	1
123	123	1
2	57	1
66	66	3
14	14	1
39	63	1
101	101	1
121	121	1
23	23	2
52	52	3
11	11	2
119	119	2
111	111	2
122	122	1
8	8	1
46	47	1
45	45	1
46	46	2
40	40	2
85	87	1
98	98	1
128	129	1
24	24	1
63	64	1
80	81	1
87	87	1
28	46	1
17	17	1
20	20	1
81	81	2
116	128	1
69	71	1
4	11	1
51	51	2
117	118	1
32	33	1
85	100	1
49	49	2
84	84	1
82	82	2
126	128	1
55	55	2
11	13	1
105	105	2
57	58	1
93	93	1
131	132	1
53	108	1
95	108	1
123	125	1
114	115	1
103	103	4
14	15	1
58	58	1
95	95	2
56	56	1
70	70	2
4	5	1
114	114	2
97	98	1
95	99	1
92	120	1
18	20	1
49	100	1
10	10	1
25	25	1
31	31	1
39	40	1
122	123	1
77	77	2
16	18	1
114	118	1
78	79	1
42	42	2
5	7	1
72	78	1
44	66	2
96	97	1
68	68	1
80	80	1
25	26	1
27	27	1
21	30	1
106	106	2
89	90	1
108	108	1
78	78	1
45	49	1
90	106	1
113	116	1
6	105	1
91	92	1
64	64	1
