4	32	1
69	69	2
76	96	1
47	47	4
10	38	2
20	20	2
129	129	3
53	86	1
133	135	1
125	125	3
46	49	2
68	68	6
119	119	2
146	147	1
15	15	3
112	137	1
114	115	1
127	130	1
74	74	2
100	100	6
71	71	5
57	65	2
108	108	2
17	18	1
93	99	1
24	47	1
139	139	5
141	142	3
112	113	1
10	10	1
46	46	2
31	32	1
48	48	4
66	110	1
114	114	2
48	51	1
9	9	5
144	144	3
132	137	1
84	84	1
14	14	3
34	35	1
123	131	1
152	152	2
41	67	1
16	22	1
107	107	2
18	18	3
27	33	1
107	109	2
76	78	1
57	57	7
45	122	2
17	73	1
118	118	4
117	117	3
55	91	1
36	101	1
12	13	3
45	49	1
41	41	1
40	53	1
51	51	2
64	64	7
64	110	1
83	83	2
21	32	2
135	135	2
2	120	1
144	145	2
110	110	6
33	65	2
120	154	1
124	136	1
103	107	1
147	147	3
11	38	1
103	103	6
53	53	6
4	42	1
25	33	2
54	54	2
127	127	1
102	102	3
22	34	1
80	80	3
25	25	3
4	8	1
87	88	2
65	66	2
151	151	1
110	123	1
43	44	1
33	95	1
16	103	1
15	40	2
71	93	1
4	4	2
139	142	2
38	69	1
127	128	2
33	64	1
81	130	2
40	44	1
143	147	2
95	95	1
122	122	5
65	94	1
131	131	6
66	66	1
82	98	1
115	115	3
121	121	2
104	127	1
140	140	1
106	107	2
27	32	1
113	117	1
55	55	1
95	99	1
121	122	1
30	30	4
29	38	1
98	100	1
46	47	1
37	38	1
150	151	1
77	78	1
13	20	1
11	11	3
49	49	1
148	149	1
70	80	2
54	55	1
15	16	1
96	96	1
14	24	1
153	153	2
85	86	2
67	69	1
43	43	8
70	70	2
103	119	1
109	116	1
102	117	1
98	98	2
27	27	4
119	127	1
17	17	3
146	146	2
8	8	2
76	76	2
112	112	1
48	63	1
9	17	2
137	137	3
75	84	2
118	128	1
116	116	2
88	88	1
63	64	2
121	130	1
13	15	2
133	133	1
49	50	1
79	79	1
7	25	1
87	87	2
38	38	2
19	19	3
7	26	1
135	136	1
141	141	1
37	37	2
90	106	1
13	72	2
124	125	1
47	57	2
117	118	1
6	6	3
93	93	2
72	72	1
84	85	1
94	94	2
101	102	1
130	130	1
19	20	2
34	66	1
29	30	2
37	56	1
21	30	1
47	130	1
123	139	2
82	82	2
93	146	1
105	105	1
31	36	1
32	35	1
16	16	4
20	30	1
115	144	1
142	142	1
94	99	1
21	21	2
7	7	2
92	102	1
40	40	4
98	99	1
149	149	1
13	41	1
128	136	3
87	154	1
95	97	1
97	102	1
145	145	2
138	138	2
28	106	1
18	23	1
16	21	1
124	124	2
19	78	1
11	40	1
120	151	1
32	33	1
7	116	1
133	136	1
65	65	5
78	78	2
27	30	1
89	112	2
35	36	1
83	84	1
94	137	1
38	39	3
17	24	1
94	101	1
15	130	1
30	31	1
19	75	1
129	130	2
66	81	1
118	125	2
136	136	2
128	128	1
41	84	1
26	63	1
145	146	1
35	40	1
68	148	2
124	135	1
120	121	1
77	77	1
97	97	1
135	142	1
140	143	1
3	4	1
109	109	2
98	131	1
15	22	1
122	144	1
24	24	2
34	34	2
5	13	1
50	57	1
134	136	1
132	132	3
92	93	1
2	3	1
28	30	1
14	16	1
44	46	1
10	14	1
126	126	1
93	105	1
9	31	1
18	62	1
73	99	1
24	46	2
123	123	1
108	109	2
63	82	1
44	45	1
24	68	1
99	99	1
5	28	1
104	107	1
84	86	1
23	24	1
70	121	1
111	111	1
154	154	1
49	51	1
14	151	1
35	35	1
104	104	1
19	21	1
62	62	1
3	3	1
34	36	1
26	26	1
12	12	1
40	50	1
21	23	1
67	126	1
140	147	2
133	148	1
121	143	1
74	75	1
39	39	1
120	152	1
115	149	1
13	40	1
41	42	1
141	143	1
42	42	1
63	63	2
52	70	1
30	53	1
120	127	1
142	143	1
81	81	1
12	112	1
66	147	1
93	98	1
