64	65	1
152	159	1
21	21	1
89	90	1
105	105	1
70	70	3
11	12	1
134	134	3
127	127	3
115	115	4
22	46	1
92	93	1
88	89	3
105	116	1
109	109	4
26	26	3
143	143	2
51	76	1
27	27	3
12	14	1
55	55	2
119	120	1
166	166	2
83	121	1
93	93	3
144	144	3
103	103	2
116	116	2
11	11	2
147	153	1
43	43	3
15	15	2
118	142	1
142	142	2
128	155	1
163	164	2
160	160	1
165	165	3
159	159	3
77	78	1
162	162	3
85	115	1
84	84	1
44	44	3
167	167	1
100	100	1
130	130	6
46	47	2
163	165	1
24	24	4
80	127	2
77	88	1
94	94	2
76	76	2
105	106	3
43	106	1
156	156	3
152	152	1
46	46	3
47	80	1
86	120	1
128	128	2
87	87	3
97	97	2
13	13	3
86	86	2
139	139	2
27	88	1
38	38	2
150	150	2
114	114	3
72	72	1
21	24	3
67	67	2
110	145	2
19	19	2
118	120	2
116	164	1
82	83	2
47	47	1
8	18	1
73	73	1
36	36	2
133	133	1
146	146	1
106	107	2
50	56	1
128	148	1
147	147	1
39	40	3
76	77	1
151	151	4
160	162	2
79	80	1
39	39	3
47	51	1
41	41	3
70	126	1
71	118	2
148	148	1
26	27	1
78	78	1
35	35	1
88	88	1
2	4	1
87	129	1
37	37	1
82	82	3
57	57	2
139	156	2
33	34	2
126	126	1
47	49	1
69	70	1
113	113	1
108	108	1
108	112	1
136	136	3
162	169	1
67	68	1
5	6	3
143	144	1
20	20	1
14	14	3
90	90	1
132	133	1
14	15	1
155	155	1
25	25	3
34	34	1
149	149	1
137	137	2
91	91	4
67	96	1
76	149	1
132	132	2
56	94	2
44	45	2
115	164	1
8	8	2
137	138	2
111	111	1
156	157	1
54	68	1
119	119	4
6	6	1
9	9	1
8	9	1
5	12	1
121	121	1
96	96	1
138	139	1
69	99	1
99	100	1
74	80	1
160	168	1
122	122	2
99	99	2
36	37	1
169	169	1
154	154	1
42	43	2
167	168	1
134	135	2
5	5	5
4	5	1
56	56	1
93	103	1
100	102	1
106	106	1
13	14	1
107	108	2
8	11	1
40	40	4
40	41	2
45	45	1
25	75	1
69	126	1
97	98	1
150	160	1
97	100	1
37	38	1
71	143	1
85	85	1
51	51	1
102	102	1
2	2	1
82	152	1
117	151	1
22	92	1
149	150	1
15	21	1
124	124	1
64	83	1
18	18	1
7	8	1
89	89	1
112	112	1
101	101	1
91	97	1
123	125	1
76	79	1
129	143	1
40	64	1
