106	106	5
121	147	2
34	34	3
20	20	3
148	148	1
18	19	1
9	9	5
82	83	2
137	137	1
146	146	3
125	126	2
85	87	4
11	12	1
34	36	2
114	116	1
54	54	2
86	86	2
32	32	2
75	75	3
150	150	1
33	33	2
130	130	1
23	23	1
93	94	2
55	55	3
22	37	2
4	4	2
17	53	2
39	40	2
15	68	1
64	64	4
72	75	1
27	28	2
126	132	1
21	21	2
21	30	1
132	133	2
28	28	1
21	39	1
79	134	2
129	130	1
76	76	3
71	98	1
17	17	5
53	55	1
82	95	1
85	85	2
17	49	2
34	35	1
68	72	2
109	109	1
7	7	2
20	122	1
13	13	3
38	41	1
122	123	4
67	68	3
29	29	3
96	122	3
78	78	4
24	31	1
73	76	1
128	131	2
71	71	3
109	148	1
17	20	2
132	132	3
100	100	2
132	145	1
131	132	2
47	47	1
139	139	1
95	95	1
111	127	1
83	83	2
49	53	1
82	82	2
8	11	2
66	66	3
37	37	4
39	39	3
50	52	1
133	134	2
112	131	2
118	136	2
127	130	2
53	53	2
135	135	1
110	111	1
94	94	1
114	114	1
30	123	2
133	133	3
26	27	1
35	133	1
103	104	2
17	41	1
31	31	2
115	125	1
99	99	3
121	144	1
118	118	1
120	120	1
102	102	1
96	96	1
76	149	1
113	114	1
40	44	1
114	117	1
9	10	2
116	119	2
22	22	2
49	50	1
74	80	1
22	26	1
79	79	3
25	69	2
3	3	2
136	137	2
154	154	2
76	77	2
136	136	3
65	65	1
130	133	1
30	122	1
121	135	1
21	25	1
7	30	1
70	73	1
48	65	1
138	138	1
40	40	3
93	103	1
50	50	2
96	144	1
23	37	1
76	96	1
43	43	1
38	38	3
16	49	1
124	124	1
88	88	1
41	42	1
47	50	1
129	129	2
19	19	1
50	51	1
18	68	1
78	98	1
32	36	2
5	5	3
82	84	1
77	77	1
32	43	1
20	21	1
46	46	4
24	41	1
33	34	2
109	132	1
14	14	1
141	142	1
109	131	1
99	101	2
56	56	1
84	84	2
139	140	1
41	43	1
125	125	1
22	119	1
117	117	3
68	134	1
20	63	1
96	103	1
30	120	2
152	153	1
14	15	1
113	113	1
78	144	1
78	81	1
94	95	3
51	51	2
56	58	1
76	78	1
110	110	4
105	105	2
125	137	1
5	7	1
56	69	1
2	2	2
38	50	1
65	137	1
93	93	2
12	12	1
68	68	2
131	131	1
111	112	4
121	137	1
22	28	1
142	142	2
36	36	1
115	119	1
83	84	2
66	114	1
12	13	1
24	53	1
81	81	1
4	5	1
103	103	2
69	72	1
147	147	2
2	3	1
119	119	1
115	115	1
16	48	1
107	107	1
121	121	1
62	115	1
102	108	1
42	42	2
84	93	1
16	16	1
78	100	1
94	97	1
84	85	1
10	10	2
53	72	1
61	67	1
88	90	1
131	136	1
15	74	1
74	76	1
15	18	1
69	71	2
114	121	1
149	149	1
36	37	1
143	143	2
126	126	1
75	149	1
83	93	1
149	152	1
26	28	1
94	98	1
66	126	1
8	9	1
90	145	1
92	93	1
101	115	1
95	96	1
98	98	1
57	57	1
145	146	1
108	108	1
97	98	1
69	69	1
96	101	1
