100	100	2
79	80	2
84	84	3
37	37	4
35	42	1
50	50	3
96	105	2
65	65	3
103	104	1
88	88	2
35	35	3
24	24	2
101	101	1
122	122	6
124	124	3
9	9	2
106	107	1
20	51	2
12	12	1
90	90	5
125	125	1
16	17	1
104	104	3
94	110	2
8	8	3
57	57	1
55	56	3
60	82	1
33	33	1
118	118	3
116	116	3
18	98	2
39	42	2
96	96	3
21	21	3
18	18	4
23	23	6
126	126	3
66	67	2
106	109	1
5	7	2
72	72	2
114	114	1
91	91	3
91	92	2
59	60	2
2	2	4
68	69	2
71	71	1
23	24	1
47	47	7
60	60	4
46	46	2
103	103	1
27	29	1
16	16	2
95	95	1
24	91	1
109	109	2
58	58	3
20	21	2
39	45	1
44	44	4
63	64	1
28	28	1
36	36	2
32	32	2
56	57	1
63	63	2
113	113	1
77	77	4
3	4	2
37	43	1
48	48	3
39	39	1
73	73	2
57	78	1
13	14	2
27	90	1
101	110	1
36	41	1
38	41	2
22	22	2
55	55	2
11	11	6
67	67	2
119	120	2
30	30	1
6	6	5
62	62	3
34	34	3
120	121	2
93	93	1
17	17	1
121	123	2
38	40	1
127	127	5
13	15	1
64	64	3
49	49	1
61	134	1
42	42	1
44	46	1
130	130	2
83	83	4
120	125	1
20	20	1
105	105	2
86	86	2
56	56	1
120	120	2
13	13	3
1	46	2
43	55	2
92	102	2
13	43	1
3	3	3
10	10	2
39	41	1
121	121	3
112	112	1
62	64	1
102	103	2
127	128	2
101	103	2
83	128	1
78	79	1
61	68	1
10	11	1
112	113	1
84	85	1
22	89	1
78	78	2
34	35	1
80	80	1
95	96	2
76	76	3
101	104	1
18	46	2
117	125	1
113	114	1
38	38	1
61	63	1
110	110	1
126	129	1
128	128	1
80	81	1
103	105	1
70	70	1
86	87	1
15	16	1
119	119	1
43	43	1
81	81	1
2	5	2
9	11	1
66	66	1
117	117	1
129	129	1
79	79	1
97	97	2
132	132	1
99	99	1
33	35	1
15	29	2
2	4	1
12	13	1
98	98	1
0	0	1
46	111	1
94	95	1
81	82	1
118	120	1
5	5	1
75	76	1
78	106	1
44	132	1
92	92	1
2	3	1
114	116	1
115	116	1
122	123	1
59	124	1
