11	11	4
67	70	1
4	64	1
24	29	1
68	70	2
26	28	1
1	24	1
28	28	3
48	48	4
35	35	4
64	64	6
67	68	2
55	55	3
75	76	1
71	71	9
29	29	5
8	8	1
43	44	2
47	55	2
19	29	1
37	37	4
74	74	4
1	4	2
61	61	5
77	77	4
0	68	1
33	33	3
0	58	1
32	32	5
6	20	1
65	65	2
22	23	3
37	38	1
45	45	6
23	31	2
49	49	2
59	59	2
25	50	1
70	70	4
12	13	1
43	43	4
39	39	3
57	57	6
19	22	1
29	31	2
61	62	1
33	34	2
34	34	2
38	38	3
68	68	4
24	24	4
46	47	1
59	63	2
12	12	2
20	20	5
34	53	2
50	50	3
8	26	1
14	14	1
53	54	1
27	40	1
67	67	4
56	57	1
61	65	1
30	30	4
51	51	7
39	61	1
62	62	4
48	54	2
72	73	1
10	13	1
35	36	1
3	5	1
26	32	1
10	10	2
60	60	1
41	41	5
48	49	3
18	18	6
76	76	4
40	40	3
26	26	4
30	33	1
32	52	2
52	54	1
47	47	3
53	73	1
29	65	1
27	38	1
9	9	4
25	26	2
25	25	1
13	13	6
44	67	1
48	55	1
73	74	1
66	69	1
44	44	3
7	28	1
55	56	1
26	30	1
1	1	3
22	33	1
12	40	2
21	21	4
0	0	5
73	73	1
58	65	3
58	64	2
4	4	6
66	68	1
40	52	1
49	50	1
36	36	4
3	41	1
27	27	4
63	65	1
74	75	1
52	68	1
20	48	1
35	51	2
7	7	3
26	27	1
69	69	2
56	56	3
66	66	4
29	55	2
19	23	1
5	5	3
49	53	1
54	54	1
5	6	1
63	64	2
8	9	1
22	34	1
56	60	1
52	52	1
14	46	1
18	50	1
7	32	1
19	19	1
61	72	1
32	33	1
47	48	1
25	31	1
42	42	2
42	43	1
4	37	1
58	58	3
66	67	1
46	46	2
61	63	2
6	12	1
36	51	1
6	6	2
6	8	1
1	41	1
20	33	1
32	37	1
61	70	1
53	69	1
51	52	1
57	67	1
62	65	1
62	68	1
18	27	1
35	45	2
41	42	1
7	8	1
18	22	1
69	70	1
24	62	1
19	20	1
11	12	1
10	11	2
71	72	1
23	57	1
42	44	1
51	65	1
3	3	2
41	43	1
15	29	1
59	71	1
10	23	1
39	40	1
38	39	2
58	59	1
39	56	2
53	55	1
23	24	1
18	31	1
23	23	1
42	57	1
2	53	1
24	39	1
2	3	1
9	56	1
29	30	1
48	57	1
46	57	1
69	76	1
7	33	1
