96	97	1
99	99	4
1	86	1
125	125	2
63	118	2
69	69	2
21	21	2
25	28	1
71	71	3
35	35	3
3	12	1
30	52	1
107	124	2
120	121	2
3	6	1
21	97	1
79	82	1
114	114	1
89	91	3
13	13	3
87	134	1
17	17	1
88	116	1
55	56	2
130	130	3
82	135	1
95	95	2
106	116	1
67	94	1
117	118	3
38	38	2
116	119	1
55	55	3
110	110	2
37	38	1
64	64	5
110	116	3
115	131	1
34	34	3
36	135	1
54	54	2
108	108	2
26	26	2
105	105	3
20	20	2
52	54	4
23	116	1
31	31	3
11	11	2
24	67	1
94	95	2
78	78	4
76	76	1
16	16	2
93	105	2
95	111	1
72	75	1
113	121	1
74	74	3
4	4	2
12	74	1
59	59	2
132	132	1
56	57	2
44	44	1
102	105	1
99	100	1
68	68	4
129	129	4
1	3	1
61	61	5
85	86	1
113	114	2
2	95	1
114	119	1
98	125	1
24	68	2
128	128	1
127	127	2
86	86	2
34	57	1
49	49	2
72	72	1
111	111	2
29	79	2
28	28	1
14	14	2
33	33	2
15	15	2
53	62	1
7	28	1
60	60	3
53	54	1
82	82	2
114	115	1
86	129	1
112	112	2
83	83	1
36	37	1
36	36	2
37	59	1
33	130	1
35	118	1
88	122	1
106	106	3
126	126	1
75	75	3
94	112	1
129	134	2
102	102	3
117	117	2
77	77	5
108	109	1
116	117	1
9	36	1
122	132	1
71	105	1
30	30	2
114	126	1
30	127	1
133	133	3
89	90	1
29	29	2
47	50	2
8	8	3
125	126	2
24	34	1
97	98	1
77	83	1
104	104	2
123	127	1
119	120	2
45	45	2
15	26	1
47	51	1
23	52	1
129	131	1
119	119	2
61	100	1
45	80	1
62	106	1
12	12	1
22	26	1
0	1	1
30	33	1
113	113	1
86	92	1
70	70	2
56	56	1
91	91	1
128	132	1
61	62	1
111	127	1
60	82	1
132	135	2
90	90	2
110	111	1
33	83	1
11	26	1
28	29	1
84	84	2
85	85	1
2	2	1
9	9	1
25	25	1
43	134	1
131	131	1
91	96	1
73	73	2
34	35	1
109	109	1
70	71	1
65	66	1
1	7	1
49	50	1
115	115	1
17	22	1
10	36	1
65	65	1
68	134	1
16	66	1
88	88	2
6	6	1
66	68	1
83	127	1
94	94	1
89	89	1
18	18	1
79	79	2
37	37	1
52	52	1
1	1	2
2	20	1
33	54	1
95	112	1
87	87	1
100	100	2
11	56	1
3	3	1
27	103	1
97	97	1
91	92	1
132	133	1
26	27	1
50	114	1
125	131	2
15	31	1
122	122	1
98	98	1
111	113	1
63	63	1
50	50	1
31	117	1
1	95	1
0	65	1
