77	89	1
131	131	5
173	173	1
105	106	2
93	94	1
166	166	1
122	148	1
156	156	5
64	64	1
10	13	1
121	121	1
74	74	4
56	59	1
8	8	2
119	120	2
0	0	1
162	162	3
60	136	2
22	23	3
113	113	2
149	149	1
1	54	1
97	98	3
23	23	2
163	163	3
85	86	2
10	11	2
0	10	1
96	96	4
9	61	2
78	78	3
77	77	3
41	42	1
95	96	1
4	6	1
176	177	1
37	174	1
110	164	1
84	152	1
128	128	3
117	117	2
165	165	6
118	118	2
178	178	1
87	87	4
145	146	2
116	116	3
175	175	4
55	55	2
158	159	1
119	119	2
17	27	1
27	30	1
39	39	2
96	97	2
158	158	2
101	101	1
92	93	1
172	173	1
26	27	1
135	135	2
38	38	1
56	56	2
177	177	1
124	124	1
94	107	1
22	84	1
67	67	2
13	14	1
29	90	1
122	125	1
5	5	2
168	170	1
129	130	1
120	120	2
26	28	2
100	100	4
129	129	1
153	155	1
110	110	3
179	180	1
13	13	1
44	44	2
121	128	1
50	50	1
26	29	1
32	32	3
6	6	3
42	42	2
1	53	1
127	127	4
41	41	1
28	146	1
107	107	3
2	17	1
36	36	2
9	38	1
125	126	2
98	98	2
36	37	1
14	14	4
98	100	1
151	151	4
91	149	1
95	95	1
35	35	1
142	142	3
102	110	1
154	154	3
86	153	1
115	169	1
143	143	1
97	97	1
138	138	1
140	140	1
90	109	1
57	128	2
8	9	4
147	147	2
153	153	3
133	133	1
130	130	2
30	30	2
50	51	1
9	35	1
2	19	2
61	61	3
134	134	1
52	53	3
87	89	1
71	71	2
149	154	1
65	65	1
22	22	2
34	39	1
4	27	1
105	105	1
59	59	1
79	79	1
126	126	1
176	176	1
168	168	2
145	145	2
80	80	1
161	161	1
3	4	1
9	9	3
2	2	1
60	61	1
133	134	2
83	83	2
10	10	2
60	60	5
93	93	2
73	73	1
18	62	1
101	104	1
63	63	2
141	141	1
84	84	2
33	33	1
102	164	1
58	58	3
66	67	1
103	103	1
49	49	1
115	115	1
109	166	2
130	131	2
57	58	1
160	160	2
43	44	2
121	125	1
15	15	1
152	152	2
19	19	1
136	136	4
85	85	1
31	31	1
22	24	1
174	174	3
99	103	1
109	110	1
63	128	1
114	114	4
59	60	1
170	170	1
159	159	3
37	37	2
28	30	1
72	72	2
11	12	1
11	11	1
90	90	2
169	170	1
81	81	1
19	22	1
150	150	2
62	62	1
107	109	1
65	85	1
124	157	3
106	107	1
155	155	1
137	142	1
57	57	2
45	45	1
132	142	1
32	33	1
110	114	1
94	94	1
52	52	1
91	91	1
108	108	1
31	148	1
146	146	1
71	72	1
56	57	1
102	102	2
60	119	1
7	7	1
125	125	2
38	148	1
37	38	1
96	158	1
100	102	1
31	35	1
95	102	1
82	82	1
112	112	1
81	82	3
22	25	1
54	54	1
85	87	1
51	51	1
131	132	1
122	122	2
164	165	1
175	176	1
154	160	1
88	88	1
179	179	1
143	144	1
37	39	1
77	78	1
121	123	1
159	161	1
172	172	1
60	159	1
165	167	1
86	86	1
20	24	1
172	174	1
58	61	1
126	144	1
