167	168	1
134	150	1
86	86	2
43	43	4
132	149	3
115	115	1
68	68	3
4	71	1
3	4	2
74	74	5
156	156	5
20	22	1
63	63	2
36	38	3
54	55	5
150	150	2
108	108	1
20	20	2
8	17	1
58	67	1
92	92	2
135	172	1
79	82	1
140	140	2
29	29	3
14	14	1
105	106	1
139	139	2
9	13	1
121	121	3
177	178	1
103	103	1
112	112	3
144	157	1
74	139	1
111	120	1
79	80	1
57	57	4
93	93	3
89	94	1
100	110	1
173	173	3
176	176	6
42	42	2
24	24	3
170	170	1
72	129	3
76	106	1
122	122	4
53	53	1
179	179	4
136	136	3
118	118	2
12	16	1
79	88	1
26	55	1
50	50	4
134	134	2
29	30	5
121	122	1
68	122	1
153	153	2
66	66	3
123	123	1
135	135	1
3	3	4
133	176	1
176	179	2
40	40	2
126	127	1
100	100	1
0	73	1
177	177	1
80	154	1
78	78	1
160	160	5
172	172	1
180	180	2
13	15	2
71	71	3
42	136	1
0	0	1
26	28	1
137	137	3
160	161	3
54	54	1
34	35	1
113	159	1
158	158	3
8	8	3
39	42	1
109	140	2
170	171	2
10	16	1
17	17	2
75	75	1
10	11	2
72	72	1
19	19	1
122	128	1
70	70	1
67	67	2
86	119	1
84	85	2
37	38	1
156	180	1
105	105	1
62	62	2
108	112	1
34	38	1
98	115	1
79	79	1
27	28	1
17	18	2
130	131	1
11	11	4
125	125	2
103	109	1
27	31	2
44	44	3
142	154	1
85	180	2
111	111	2
10	10	2
84	105	1
85	89	1
73	122	1
166	166	4
76	76	1
128	128	2
87	87	2
113	113	3
67	68	1
119	119	2
68	70	1
152	152	2
146	177	1
163	179	1
0	2	3
58	58	1
154	155	1
111	159	1
6	6	1
107	109	1
167	167	4
144	144	2
17	44	1
117	117	1
38	39	1
3	60	1
36	36	1
134	151	1
65	65	2
79	132	1
81	82	1
159	159	2
16	16	3
171	171	1
129	129	1
98	99	1
142	142	2
35	35	2
44	50	1
28	54	1
110	114	1
32	50	1
135	176	1
173	176	1
38	38	2
55	150	1
19	20	1
114	138	1
15	15	1
73	73	4
87	95	1
138	139	1
23	23	1
16	17	1
175	175	3
132	173	1
32	60	1
160	164	1
52	103	1
105	107	1
104	105	1
149	149	2
145	146	1
25	26	2
133	133	2
135	174	1
57	61	1
75	84	1
77	106	2
156	160	1
106	106	1
56	56	1
30	30	1
92	164	1
12	21	1
86	104	1
115	152	1
26	26	1
163	164	1
5	6	1
32	32	2
18	108	1
138	156	2
41	41	1
158	171	2
31	59	2
31	36	1
85	130	1
42	152	2
15	16	1
143	150	1
168	171	1
132	132	4
176	178	1
120	120	1
63	122	1
159	167	1
77	77	2
127	141	1
107	108	1
103	132	1
45	45	1
96	96	1
113	114	1
76	108	1
29	31	1
98	103	1
71	72	1
140	164	1
25	25	2
139	140	1
142	143	1
151	151	1
4	4	1
141	141	2
2	2	1
163	163	1
0	1	1
147	152	1
114	151	1
27	58	1
37	37	1
72	151	1
18	18	1
178	178	1
84	84	1
10	73	1
9	9	1
144	167	1
134	178	1
73	78	1
157	158	1
162	164	1
143	143	1
5	25	1
5	5	1
89	89	1
74	75	1
174	174	1
118	119	1
135	168	1
168	168	1
9	131	1
94	118	1
116	116	1
88	116	1
8	122	1
26	29	1
102	102	1
148	148	3
103	136	1
163	167	1
12	71	1
27	27	1
6	7	1
161	161	1
51	68	1
85	152	1
130	130	1
117	118	1
55	55	1
22	23	1
156	163	1
