38	60	3
155	155	1
38	44	3
174	174	3
76	77	1
179	180	2
105	105	3
0	0	1
78	78	2
32	128	1
150	150	3
66	80	1
55	55	1
147	148	1
32	79	1
107	108	1
121	132	1
159	169	1
116	117	2
51	51	2
96	96	4
170	171	2
163	163	1
80	89	2
142	142	4
56	56	3
92	92	1
113	113	3
122	122	2
53	61	1
121	121	1
36	36	3
111	111	3
102	147	1
158	158	1
37	38	3
125	148	1
27	27	4
109	109	5
104	105	1
127	141	2
8	8	3
34	45	1
132	133	1
54	55	1
38	38	1
31	31	1
118	118	1
180	180	3
81	81	1
126	128	1
91	91	4
133	133	9
115	115	4
44	59	1
87	87	2
151	151	1
67	68	2
62	62	3
89	89	2
148	148	1
129	135	2
167	167	1
137	137	4
164	164	4
30	38	2
178	178	1
151	153	1
165	165	1
41	130	1
173	173	5
11	11	1
60	155	2
166	166	1
33	33	3
156	156	2
102	114	1
97	99	2
90	90	4
74	74	2
153	153	2
169	169	5
18	18	1
169	170	2
53	96	2
108	108	2
15	15	2
93	94	1
139	139	5
6	7	1
72	73	2
14	53	1
10	14	1
58	58	2
5	59	1
73	73	1
132	134	1
12	18	1
85	85	1
4	16	1
144	145	2
8	10	1
54	54	3
113	152	1
126	169	1
148	151	1
98	98	1
138	179	1
59	59	2
118	143	1
41	41	1
24	24	2
157	157	5
19	19	5
11	14	1
2	4	3
107	107	5
126	126	2
149	149	1
97	109	2
59	137	1
41	42	1
141	141	2
22	37	2
20	127	2
172	172	4
29	29	2
147	147	2
175	175	2
85	86	1
28	29	1
13	15	3
23	23	1
119	141	3
113	121	1
2	2	1
64	64	2
72	72	1
116	127	1
57	159	1
42	44	1
95	95	2
79	95	2
83	83	1
128	128	2
166	168	1
124	125	1
106	106	1
75	75	2
91	93	2
130	130	2
7	8	2
84	84	1
35	35	3
5	134	1
58	168	1
9	9	1
157	158	1
102	102	3
146	146	6
80	80	2
162	162	2
50	50	2
2	24	2
116	116	1
138	145	3
13	13	2
88	88	1
85	94	4
40	40	3
57	58	1
65	89	1
116	145	1
66	67	1
71	71	1
50	57	1
12	21	1
29	51	1
66	68	1
32	32	1
42	42	2
160	160	1
16	43	2
103	103	1
84	85	1
20	24	1
26	128	1
27	29	1
54	102	1
143	145	2
66	66	1
65	65	2
113	114	1
16	39	1
28	28	2
158	159	1
78	79	1
26	40	1
112	112	2
145	146	2
140	140	2
1	1	1
77	107	1
4	27	1
18	21	1
31	35	1
159	159	1
102	160	1
144	144	4
160	161	1
61	62	1
43	43	2
124	124	1
22	22	1
152	152	1
12	12	1
57	61	2
85	93	1
163	169	3
154	160	1
61	61	1
64	65	1
154	154	1
91	92	1
150	155	1
26	29	1
164	168	1
125	144	1
3	3	1
52	88	1
136	136	1
127	128	1
79	79	1
130	131	1
64	77	1
90	99	1
168	169	1
106	111	1
110	114	1
12	62	1
68	68	2
132	140	1
147	165	1
30	30	3
115	126	1
93	93	2
19	21	1
14	15	1
4	5	1
86	87	1
168	168	1
6	6	1
50	52	1
77	78	1
97	97	1
29	135	1
179	179	1
3	4	1
15	16	1
63	63	2
21	21	1
14	55	1
4	4	1
123	123	1
119	119	1
25	25	1
4	31	1
60	60	1
111	112	1
60	61	1
10	11	1
129	130	1
96	104	1
149	151	1
86	172	1
