71	71	3
95	95	4
108	108	1
120	120	1
101	138	2
1	2	1
11	11	3
139	139	8
43	44	2
105	105	3
48	48	3
34	34	1
143	143	3
97	97	2
129	148	1
125	125	3
90	90	1
8	9	1
103	104	3
122	122	4
44	45	3
127	127	2
154	155	1
130	130	3
68	68	1
55	55	3
47	57	1
147	147	2
104	104	5
109	112	1
45	50	2
100	101	2
118	118	1
79	80	1
46	46	1
8	8	1
2	2	3
37	151	1
144	144	3
119	119	2
136	136	3
145	145	2
52	55	1
89	90	1
146	146	1
56	56	1
21	21	2
78	79	1
135	137	2
4	4	3
28	28	1
157	158	3
8	82	1
123	123	1
112	116	1
76	76	5
16	16	2
10	14	1
111	111	2
33	84	1
135	140	1
81	116	2
19	20	1
134	148	2
12	12	1
38	38	3
42	42	1
40	41	1
50	50	5
128	128	3
38	39	1
116	116	1
47	49	1
92	97	1
28	94	1
27	27	3
15	16	1
82	82	2
94	94	3
47	135	2
75	75	1
86	86	1
91	91	4
109	109	3
57	57	1
66	66	5
87	87	2
153	153	1
96	97	3
53	53	2
1	1	4
99	100	1
133	135	1
22	28	1
88	89	2
36	107	1
18	19	2
116	149	1
87	89	1
23	24	3
108	110	1
0	45	1
83	83	1
156	156	2
78	78	3
85	85	1
129	129	1
63	64	1
20	21	4
15	79	1
10	10	2
24	24	1
138	138	2
78	83	1
107	149	1
96	96	1
115	117	2
141	141	1
136	137	1
13	13	2
39	39	3
31	31	2
61	85	1
33	33	1
89	89	2
135	135	1
73	73	1
90	109	1
51	51	1
132	132	2
83	84	1
99	99	3
140	140	4
9	12	1
82	83	1
1	4	1
117	117	2
130	131	1
17	17	2
112	112	2
81	81	1
69	69	2
47	53	1
52	53	1
10	12	2
79	79	2
55	69	1
95	153	1
13	14	2
107	107	2
43	43	5
36	36	1
103	103	1
100	100	2
123	124	3
22	22	2
29	29	1
70	70	2
86	92	1
142	143	1
31	32	1
26	26	1
111	118	1
14	39	1
40	43	1
20	20	1
28	44	1
142	142	2
125	126	1
131	131	2
79	82	1
7	7	1
43	134	1
138	139	1
33	34	1
156	157	1
64	64	1
135	136	1
134	143	1
88	88	1
92	127	1
34	142	1
3	52	1
3	3	3
129	155	1
2	93	1
113	113	1
41	43	2
83	119	1
115	116	1
67	68	1
62	63	1
98	139	1
69	70	1
78	80	1
19	19	1
30	154	1
151	151	1
9	9	1
37	46	1
46	140	1
21	158	1
149	149	1
5	151	1
121	121	3
40	48	1
7	8	1
25	25	1
5	5	1
54	63	1
132	133	1
141	145	1
33	35	1
148	149	1
110	110	1
50	51	1
97	139	1
52	52	1
135	142	1
17	18	1
83	85	1
34	89	1
110	118	1
49	49	1
