149	149	3
65	65	2
118	118	1
163	163	1
6	7	1
150	151	2
140	153	1
131	131	1
57	57	2
22	22	1
90	91	1
6	6	1
169	169	3
45	77	1
11	11	1
42	42	1
81	89	1
173	173	1
39	41	1
142	142	3
145	147	2
177	177	2
96	96	1
82	82	1
132	132	2
123	123	2
57	104	1
172	172	1
100	100	3
58	103	1
95	107	1
12	82	1
132	157	1
153	179	1
5	5	2
136	136	4
170	170	2
146	158	1
36	36	1
44	55	1
167	168	1
81	81	2
25	25	2
120	125	1
15	21	1
89	90	2
7	7	1
122	164	2
141	175	1
3	3	2
76	76	1
110	110	1
76	122	4
99	99	1
84	134	1
89	89	2
77	77	4
80	81	2
6	27	2
67	67	1
149	169	1
150	174	2
19	19	4
116	116	2
107	144	1
127	127	1
110	112	1
120	120	1
150	150	1
139	139	2
70	70	1
9	11	1
151	153	1
33	33	1
78	78	2
105	117	1
9	9	1
121	121	1
61	63	1
138	140	2
166	171	2
91	91	2
58	101	1
165	166	1
89	105	1
64	64	1
117	117	5
156	158	1
87	89	1
30	30	1
86	86	2
100	127	1
6	41	1
50	51	2
92	138	1
171	171	1
38	39	1
143	145	1
168	168	1
94	95	1
153	153	1
80	80	1
120	121	1
104	104	1
30	58	1
102	102	2
135	135	2
96	140	1
134	157	1
41	41	3
106	152	1
129	129	1
159	167	1
132	139	2
38	38	1
61	73	2
145	167	1
26	26	1
160	160	1
63	63	2
115	115	3
113	113	1
76	97	1
153	176	1
117	129	1
137	137	1
142	144	1
154	155	1
58	71	1
128	128	2
132	167	1
112	112	2
85	85	2
50	50	1
53	53	2
75	75	2
108	129	1
172	174	1
102	148	1
61	98	1
14	14	2
146	146	1
67	82	1
34	34	1
4	30	1
56	56	2
55	55	2
130	131	1
110	118	1
105	129	1
105	105	1
129	173	1
9	13	1
58	86	1
66	71	1
54	105	1
131	132	1
25	105	1
12	12	1
22	58	1
160	161	1
79	82	1
71	71	1
8	33	1
178	178	1
131	138	1
123	125	1
12	15	1
155	155	1
73	73	2
145	145	1
77	118	1
154	154	3
142	177	1
50	52	1
176	176	1
0	5	1
147	147	1
148	154	1
107	107	3
146	169	1
79	79	1
65	67	1
72	72	1
65	94	1
31	39	1
10	10	3
1	1	1
117	148	1
66	66	1
52	52	1
114	168	1
159	159	1
23	23	1
75	81	1
36	74	1
16	16	1
128	149	1
96	128	1
156	157	1
130	153	1
13	159	2
111	117	1
32	70	1
58	59	1
84	85	1
152	152	1
75	76	1
35	35	1
11	13	1
37	38	1
103	103	1
174	176	1
140	140	1
59	59	1
27	59	1
31	43	1
156	156	1
127	128	1
