80	80	2
5	61	1
78	82	1
10	92	1
101	101	1
153	154	1
179	179	2
4	6	1
163	163	1
3	15	1
187	192	3
212	243	1
33	43	2
177	177	1
63	63	1
98	194	2
161	161	5
66	71	3
59	59	1
172	222	1
49	224	1
19	185	1
62	62	2
181	181	3
100	100	3
232	239	1
41	41	4
7	7	1
212	213	2
157	246	1
51	51	1
16	62	1
76	76	1
59	107	1
249	249	3
117	117	3
20	20	3
82	82	1
36	36	1
203	203	1
154	154	2
26	27	2
23	23	3
233	233	1
16	40	1
14	24	1
172	172	2
214	220	2
47	77	1
94	94	2
173	176	1
30	30	2
5	5	2
187	187	3
171	171	1
244	244	3
190	190	2
247	247	2
45	45	3
197	197	2
171	172	1
223	235	1
183	183	2
119	164	1
97	97	2
91	99	1
57	57	1
6	6	2
243	243	1
95	95	1
19	151	1
29	29	2
160	220	1
165	246	1
183	220	1
211	211	2
102	102	4
23	207	1
189	190	1
218	218	3
173	173	2
208	208	2
229	229	2
22	34	1
216	216	1
44	44	1
180	180	1
166	170	1
79	79	3
245	245	2
152	158	2
19	19	1
78	78	2
84	84	1
10	10	1
190	196	2
114	114	1
119	119	1
77	170	1
226	227	1
50	203	1
185	225	2
176	238	1
54	54	2
210	210	1
234	234	2
178	178	1
209	209	1
77	78	1
43	43	3
72	77	1
86	114	1
194	194	3
91	188	1
238	239	1
215	215	1
156	156	2
181	232	1
233	234	1
37	37	1
74	74	2
35	59	1
120	145	1
240	240	3
55	159	1
225	225	1
242	242	1
102	164	1
107	119	1
217	225	1
39	52	1
176	192	1
109	109	1
226	230	1
219	219	2
3	3	1
185	201	1
168	169	1
64	64	1
24	24	1
19	30	1
52	54	1
205	205	2
178	246	2
22	31	1
113	117	1
58	58	1
42	44	1
10	11	1
70	114	1
22	48	1
209	210	1
20	81	1
89	89	3
12	12	2
26	26	2
27	48	1
40	40	1
97	98	1
213	213	2
204	204	1
118	118	1
188	188	2
99	196	1
91	94	1
203	248	1
47	47	1
14	14	1
69	83	2
171	185	1
164	164	2
210	211	1
14	41	1
152	167	1
70	115	1
8	9	1
76	85	1
189	189	1
75	170	1
151	151	1
99	100	1
25	25	1
52	52	1
159	159	1
50	50	2
118	119	1
12	37	1
232	237	2
70	70	2
158	158	1
19	248	1
186	192	1
22	22	1
211	212	1
51	54	1
34	34	1
214	214	2
52	56	1
55	55	1
147	147	1
92	92	1
111	119	1
27	27	1
30	55	1
55	79	1
94	225	1
217	217	1
42	42	4
103	103	1
116	116	1
9	9	1
146	146	1
39	39	1
199	227	1
11	11	1
197	233	1
224	224	1
183	188	1
177	221	1
198	247	2
72	237	1
35	35	1
176	176	1
75	118	1
67	67	1
213	214	1
36	100	1
78	84	1
47	48	1
38	38	1
177	222	1
169	191	1
222	222	1
182	182	1
68	68	1
32	32	1
216	218	1
104	104	1
7	17	1
144	166	1
237	239	1
73	73	1
145	152	1
49	56	1
97	192	1
191	191	1
214	232	1
77	77	1
28	28	1
116	119	1
187	200	1
103	191	1
186	186	1
162	210	1
184	184	1
170	170	1
241	241	1
207	207	1
8	145	1
51	52	1
186	195	1
