14	14	1
159	159	3
190	190	3
100	101	1
9	133	2
80	80	3
99	99	4
7	7	1
122	128	2
124	133	1
128	129	2
124	124	2
11	11	2
117	118	2
41	42	1
193	194	4
122	122	2
187	188	1
112	113	2
162	163	2
89	89	1
74	78	1
126	126	4
197	197	1
175	175	1
109	110	1
180	182	2
193	193	3
78	159	1
127	127	4
41	41	1
88	112	1
108	108	1
107	107	3
36	36	3
101	171	1
15	15	2
121	121	2
34	34	2
125	125	1
174	174	3
38	38	3
16	16	3
163	163	2
49	49	1
12	12	2
191	191	1
56	117	1
150	154	1
23	23	2
3	3	1
194	195	1
186	186	1
139	140	2
176	176	1
97	184	1
16	128	1
67	67	1
130	130	4
8	11	2
72	72	2
148	187	1
71	71	1
71	73	2
86	110	1
159	160	1
72	73	2
53	53	2
84	84	1
87	106	1
64	64	1
185	185	1
37	38	2
126	127	1
10	11	1
173	174	1
115	151	1
56	56	1
184	185	1
150	150	2
183	183	2
133	133	1
68	69	2
126	151	1
35	134	1
96	97	1
19	21	1
181	181	3
66	66	2
48	48	2
31	32	1
136	136	3
134	134	3
42	42	3
44	155	2
180	180	1
112	112	2
104	104	2
50	50	2
13	13	3
46	46	1
123	123	1
40	42	1
80	110	1
125	126	2
106	106	1
89	94	1
36	37	1
38	141	2
195	195	1
150	151	1
180	181	2
192	193	2
12	14	1
89	95	1
127	128	1
140	140	1
60	61	1
115	190	1
10	10	4
167	168	1
150	152	1
64	65	1
31	53	1
20	21	1
158	158	1
58	58	1
76	76	1
85	108	1
24	25	3
17	17	2
139	139	1
33	33	1
98	98	1
189	189	3
178	178	1
151	195	1
24	182	1
171	171	4
151	152	1
141	141	2
85	86	1
114	115	1
28	129	1
169	177	1
132	132	2
117	174	2
145	145	2
130	131	1
4	119	1
160	160	1
113	113	1
20	20	1
101	101	1
155	156	1
37	37	1
42	52	1
182	182	3
27	140	1
164	165	1
80	82	1
161	161	1
30	30	2
45	45	1
6	25	1
153	153	1
188	189	1
113	190	1
26	27	1
8	9	1
59	61	1
107	144	1
163	164	1
185	186	1
194	194	1
192	196	1
143	143	1
120	120	1
113	180	1
142	142	1
156	157	1
156	156	1
84	85	1
94	96	2
184	184	1
26	130	1
134	135	1
27	28	1
159	172	1
22	24	1
163	165	1
165	165	1
166	166	1
115	115	1
179	179	1
0	0	1
26	26	1
85	85	1
114	114	1
39	39	1
60	70	1
1	28	1
50	182	1
138	138	1
49	50	1
149	158	1
45	47	1
177	177	1
187	187	1
152	154	1
