33	33	4
149	150	2
139	139	5
5	125	1
36	37	1
3	4	2
149	151	1
12	12	3
151	151	2
101	101	2
77	77	3
66	66	4
114	116	1
25	25	2
95	97	2
106	106	5
108	111	2
141	145	1
13	13	5
135	135	3
37	37	3
23	23	4
119	119	5
145	145	10
98	106	1
7	32	3
112	116	2
0	0	2
48	48	1
107	110	2
96	96	8
22	22	1
147	148	1
114	114	5
150	150	7
73	73	6
116	117	3
87	90	1
31	31	4
35	37	1
43	43	3
106	108	2
26	77	1
70	77	1
129	129	5
103	104	1
89	91	3
26	26	5
6	6	3
43	44	1
104	104	6
36	50	1
27	27	2
105	105	4
91	91	3
133	136	1
94	94	6
129	130	4
75	75	2
2	2	4
70	70	3
61	110	1
138	138	2
70	71	2
123	123	4
49	49	5
95	95	6
11	11	4
128	128	3
92	92	5
17	36	1
68	69	1
15	18	1
29	29	2
12	14	1
113	115	2
93	93	6
100	100	7
102	103	1
124	147	1
48	49	2
62	62	1
90	151	2
136	136	5
24	24	3
101	102	1
84	84	2
84	87	1
108	122	2
141	142	2
5	5	6
143	143	7
147	147	5
132	133	3
94	118	1
137	137	1
10	10	2
112	112	4
31	34	1
132	132	2
4	4	1
53	53	2
41	41	9
49	50	1
118	118	3
54	54	1
117	117	2
119	120	3
90	90	2
1	1	3
44	45	2
9	21	1
106	107	1
33	36	3
37	43	1
82	82	3
19	19	3
105	106	4
140	141	5
86	87	2
128	130	1
138	139	1
6	24	1
113	113	2
31	39	1
107	107	3
18	18	3
134	134	2
12	13	2
119	122	3
30	31	1
133	134	1
16	16	1
155	157	1
122	122	2
83	83	2
86	122	2
153	153	6
25	132	1
25	39	1
34	34	3
99	99	5
49	83	1
21	21	4
36	36	6
29	76	1
51	62	1
137	149	1
149	149	4
134	150	4
71	71	2
26	27	2
15	115	1
79	79	5
53	54	2
36	38	1
150	151	2
9	39	1
139	140	1
142	142	4
30	63	1
111	111	2
45	45	3
13	14	1
63	63	1
39	40	2
108	108	4
41	42	1
151	154	3
83	86	1
44	44	2
46	56	1
107	133	2
156	156	5
69	69	2
27	28	1
124	125	2
144	144	1
137	138	1
47	47	2
95	96	2
94	95	2
38	39	1
14	15	2
46	46	2
109	111	1
42	42	4
7	7	2
138	150	3
119	121	1
104	105	1
67	67	1
99	101	1
52	54	2
135	148	1
152	152	1
109	109	1
35	35	3
146	147	1
9	9	2
35	70	1
97	139	1
18	41	2
61	71	1
81	81	3
52	52	2
8	9	2
14	14	1
88	88	2
57	57	1
130	130	2
81	143	1
122	123	1
138	147	2
78	78	2
33	34	1
34	35	1
6	27	3
73	75	1
46	47	3
38	38	2
118	119	1
122	125	1
90	91	1
124	124	1
154	154	2
154	157	1
84	85	2
79	87	1
49	51	1
158	158	1
43	138	1
157	157	2
17	18	1
78	79	4
86	86	1
10	12	1
152	154	2
83	85	1
85	122	1
120	121	1
137	158	1
16	18	1
103	103	2
153	157	2
97	97	1
146	146	3
103	119	1
76	91	1
19	21	1
85	85	1
65	65	1
131	132	1
28	29	2
45	46	1
112	113	1
118	136	1
42	43	1
148	150	1
136	145	1
87	87	2
54	114	1
66	67	1
56	56	1
8	8	2
111	150	1
110	154	1
3	41	1
96	109	1
37	150	1
116	116	1
113	114	1
131	131	1
36	84	1
18	19	1
94	158	1
52	71	1
67	71	1
44	47	1
55	65	1
98	98	2
57	71	1
139	142	1
126	128	1
33	48	1
51	52	2
140	140	2
41	43	1
16	37	1
30	30	1
141	141	1
93	94	1
17	17	1
11	39	1
103	107	1
131	133	2
9	31	1
20	20	1
80	80	1
107	131	1
32	32	1
109	136	1
79	118	2
32	134	1
95	107	1
67	68	1
37	38	2
32	33	1
50	50	1
54	55	2
103	151	1
126	126	1
147	150	1
96	102	1
135	144	1
107	141	1
108	110	1
106	140	1
25	26	1
148	149	1
100	101	1
46	54	1
82	83	1
132	138	1
9	20	1
64	64	1
20	35	1
40	40	1
7	8	1
55	56	1
