20	20	5
23	23	3
22	109	1
58	61	1
74	74	1
209	209	3
116	119	1
103	106	1
236	236	2
47	47	1
204	204	2
109	109	3
53	53	4
60	61	2
44	44	1
169	210	1
193	193	4
43	43	2
58	58	4
79	79	1
23	24	1
205	205	3
76	209	2
119	119	5
92	92	2
221	222	2
213	213	1
189	189	1
172	193	1
190	190	1
207	207	2
155	155	4
52	52	6
31	31	5
62	62	4
216	217	2
210	211	1
202	202	1
218	218	2
33	33	3
222	223	2
67	67	2
56	71	1
227	227	4
104	105	1
153	159	1
102	102	1
28	28	2
11	11	2
209	210	1
96	113	1
81	81	1
51	72	2
90	92	1
25	26	2
241	241	1
81	82	1
108	108	1
31	32	1
46	145	1
59	59	5
78	79	1
61	63	1
166	217	2
116	116	2
86	94	1
179	247	1
179	216	1
176	177	1
96	97	2
167	167	1
70	71	3
16	16	2
28	29	1
191	192	1
174	174	2
228	228	2
99	99	3
174	175	2
98	99	2
57	74	1
42	42	2
186	186	2
46	120	1
162	162	1
147	190	1
81	85	2
113	115	1
172	172	1
230	249	2
221	245	1
66	80	1
215	215	2
183	183	2
171	172	2
162	163	2
188	188	1
11	33	1
182	182	4
73	73	1
64	64	1
211	213	1
146	147	1
196	231	1
69	77	1
190	199	1
228	229	1
41	41	2
193	195	3
181	181	3
30	30	1
240	240	1
185	185	1
221	237	1
197	197	1
8	8	2
71	72	1
231	246	1
219	219	3
114	114	3
32	32	2
93	93	2
49	49	4
238	238	2
94	94	1
245	245	4
206	207	1
26	26	1
102	107	1
161	162	2
164	164	1
178	178	1
233	233	1
231	231	1
201	201	1
151	151	1
116	117	2
21	21	2
212	212	2
58	60	3
220	220	1
190	193	1
106	106	1
35	35	2
191	196	1
27	27	4
86	86	3
26	27	1
97	98	1
27	153	1
24	24	1
115	115	2
214	214	1
117	117	2
89	95	1
196	196	1
153	153	1
211	211	1
15	15	1
63	63	2
76	77	1
0	0	2
56	56	1
246	246	2
160	161	1
18	18	1
62	101	1
198	198	1
107	107	1
197	198	1
21	113	1
146	165	1
92	219	1
5	5	1
24	27	1
177	177	1
239	239	2
179	179	1
92	93	1
7	7	1
118	118	3
63	64	2
104	104	1
6	6	1
25	150	1
232	232	1
12	15	1
149	222	1
10	10	1
154	154	1
68	68	1
113	244	1
151	154	1
224	224	1
36	36	1
67	77	1
216	216	2
51	52	1
78	163	1
161	161	1
100	219	1
198	239	1
22	115	1
88	98	1
25	25	2
218	248	1
166	167	1
40	40	1
233	236	2
231	232	1
202	204	1
84	84	1
152	152	1
64	72	1
17	112	1
64	65	2
77	163	2
171	171	1
22	114	2
169	169	1
206	206	1
84	86	2
2	3	1
77	77	1
113	114	1
91	91	1
37	224	1
166	166	2
66	66	1
211	238	1
170	208	1
200	200	1
52	55	1
72	72	1
86	95	1
120	120	1
57	58	1
199	230	1
176	176	1
65	65	2
73	177	1
146	163	1
67	72	1
26	153	1
171	206	1
48	85	1
12	12	1
225	225	1
100	111	1
64	82	1
65	68	1
164	176	1
4	4	2
217	217	1
230	230	1
73	170	1
42	248	1
84	113	1
237	237	1
54	54	1
100	101	1
244	244	1
186	214	1
218	219	1
162	195	1
191	191	1
189	193	1
70	70	2
202	203	1
2	4	1
196	200	1
3	5	1
175	175	1
173	173	1
26	54	1
50	83	1
103	104	1
66	69	1
169	170	1
