208	208	3
180	180	5
47	47	5
28	28	6
24	24	5
116	116	3
31	33	1
237	237	1
77	78	1
205	206	1
186	186	2
224	224	1
152	152	2
145	145	2
63	64	1
41	152	1
100	101	7
34	34	5
227	227	2
191	191	2
11	44	1
245	245	5
38	38	4
47	48	1
27	27	5
12	12	6
82	82	2
114	115	1
204	205	2
47	110	1
225	227	1
19	19	3
156	156	4
159	159	1
209	209	5
59	59	4
152	153	1
101	102	1
10	10	5
233	233	4
63	63	2
90	90	2
173	173	3
93	93	1
60	81	1
55	55	1
113	113	3
49	49	1
46	46	1
37	37	2
161	162	2
222	222	6
205	205	2
95	98	1
80	80	1
73	73	1
206	207	1
7	7	2
227	233	1
216	217	1
56	87	1
236	236	4
210	211	1
61	66	1
97	97	2
226	226	2
207	208	1
201	203	3
106	108	1
20	20	2
207	207	4
91	91	2
21	21	5
247	247	2
227	228	1
110	110	4
229	229	2
98	99	1
43	43	2
170	213	1
169	169	2
202	223	2
78	78	4
161	161	1
199	237	2
5	5	1
219	220	1
191	211	1
22	22	1
52	52	2
188	209	2
235	235	3
29	30	1
44	44	4
112	112	4
230	231	1
218	219	1
201	201	2
153	158	1
3	3	3
92	93	1
58	58	4
40	40	1
225	225	2
69	69	2
196	199	4
30	31	2
164	165	3
42	42	4
150	150	1
50	63	1
75	75	1
88	88	2
161	168	1
182	182	5
86	86	1
154	154	1
51	51	2
67	87	1
216	219	1
32	32	2
18	18	2
112	113	1
37	38	2
33	33	1
68	68	4
58	93	1
155	183	1
219	244	1
10	50	2
199	209	1
197	197	1
106	107	1
81	81	1
160	201	2
144	144	1
192	192	3
11	231	1
221	221	2
84	85	1
8	8	4
31	31	2
213	213	2
1	11	1
26	26	1
203	203	8
64	65	1
94	95	1
53	54	3
181	181	2
115	146	1
186	214	1
9	10	2
21	22	1
110	111	1
23	23	7
157	158	1
163	163	1
109	110	2
162	166	1
153	154	2
208	218	1
150	154	1
114	114	4
26	27	1
199	200	1
57	57	3
206	206	2
248	248	3
204	204	2
228	228	4
223	223	1
57	58	1
167	167	1
11	11	2
172	172	5
35	36	1
118	159	1
153	153	3
16	111	1
61	62	1
227	229	1
184	186	1
197	199	1
199	199	2
89	89	1
105	105	1
64	64	2
4	5	2
87	87	2
70	70	1
174	175	1
41	41	3
29	29	1
106	106	1
50	50	3
75	77	1
65	65	1
170	209	1
193	194	1
87	88	1
13	15	1
147	156	1
201	204	1
159	160	1
16	16	3
179	225	1
215	215	1
179	179	3
53	53	1
183	183	1
227	234	1
233	234	1
231	231	1
211	231	1
220	220	1
178	178	1
240	240	3
116	165	1
101	101	1
51	119	1
202	202	2
190	190	1
25	31	1
16	151	1
104	104	2
54	55	1
98	98	2
60	60	2
109	109	2
47	245	1
246	246	1
4	4	1
89	94	1
9	9	1
190	191	1
177	177	1
100	100	3
56	59	1
1	1	1
228	229	1
36	37	2
119	119	1
39	39	2
3	5	1
229	230	1
84	84	2
45	46	1
216	216	3
65	66	1
65	108	1
51	52	1
229	231	1
63	208	1
76	78	1
61	61	1
112	114	1
210	210	1
214	214	1
160	160	2
46	109	1
200	200	2
180	181	1
217	217	1
156	157	1
83	83	1
30	30	1
198	198	2
115	115	1
184	184	1
187	212	1
6	9	1
50	57	1
105	106	1
217	218	1
26	29	1
20	34	1
230	230	1
66	66	1
242	243	1
168	168	1
242	242	1
21	62	1
166	166	1
111	111	3
46	117	1
157	157	2
30	34	1
225	226	1
12	43	1
2	5	1
43	44	1
244	244	1
174	174	1
85	86	1
43	154	1
2	2	1
99	99	1
85	85	1
35	35	2
183	236	1
150	235	1
162	182	1
158	158	1
36	36	1
212	212	1
12	44	1
