16	16	3
92	93	6
80	80	7
114	114	4
52	52	5
77	77	1
72	76	1
98	98	5
129	129	2
65	65	7
30	30	5
104	104	6
6	51	2
49	50	2
45	46	3
67	67	4
57	57	4
6	52	1
23	23	2
19	19	7
17	17	3
58	58	6
113	113	5
100	100	3
5	5	6
14	14	4
72	90	1
19	21	2
59	62	2
5	6	1
90	90	9
57	78	1
78	78	2
18	18	3
102	102	3
88	88	6
95	95	3
1	1	2
108	108	3
20	20	5
19	20	1
13	14	3
117	118	1
73	74	1
6	6	5
1	31	1
125	128	1
130	130	6
33	33	6
47	47	2
119	119	1
101	101	6
120	120	5
16	41	1
110	110	5
48	48	9
4	4	3
91	92	1
107	107	4
31	31	1
41	41	4
97	97	4
12	12	4
51	52	2
16	43	3
117	117	5
68	68	6
21	21	3
72	128	1
16	17	4
93	93	4
89	89	4
24	24	5
92	94	1
75	75	2
40	41	1
11	12	2
25	26	2
29	29	5
38	98	1
92	92	5
83	127	1
7	52	1
56	56	3
126	126	5
25	25	6
61	61	6
28	28	2
109	109	3
118	119	2
108	109	3
50	50	6
94	94	10
19	41	2
49	49	4
82	83	3
1	2	1
128	128	2
45	45	1
54	54	1
24	29	1
124	124	3
123	124	1
96	96	3
45	61	1
87	88	1
122	122	3
26	92	2
104	105	3
111	111	5
63	63	1
70	70	3
132	132	2
87	87	3
64	64	4
93	124	2
83	84	1
21	23	2
112	112	4
121	122	1
82	82	2
115	115	2
56	80	2
73	73	3
99	99	1
99	100	2
48	49	1
118	118	6
8	8	4
9	10	3
85	85	4
39	39	3
120	133	2
125	126	1
110	111	2
73	91	1
20	48	1
45	93	1
96	97	1
55	56	3
101	103	2
1	32	3
69	69	6
121	121	6
28	29	1
114	115	1
60	64	1
2	2	6
60	65	1
66	66	3
93	96	1
81	81	1
43	45	1
71	71	2
133	133	2
62	63	1
10	102	1
61	62	2
106	106	1
125	125	5
14	15	1
28	32	2
130	131	2
42	42	2
117	120	1
40	40	1
13	13	7
99	101	1
72	72	3
15	15	8
90	92	5
26	26	2
78	79	2
18	41	2
131	133	1
29	32	2
131	131	3
94	133	1
21	22	1
23	24	1
9	9	6
22	22	5
26	82	2
10	10	2
89	90	1
51	51	3
59	59	1
60	60	2
9	99	1
71	90	1
76	76	5
87	89	1
116	117	2
115	116	1
0	0	3
57	122	1
11	11	3
74	75	2
57	93	1
83	83	5
14	89	1
77	78	1
44	44	5
27	27	2
100	103	1
96	99	1
20	39	1
10	98	1
65	66	1
68	69	2
19	42	1
32	32	3
122	124	1
53	53	2
93	94	2
62	69	1
30	32	1
127	127	1
71	89	2
91	91	1
7	7	2
47	48	2
102	111	1
38	38	2
85	86	2
113	114	2
39	40	1
83	93	1
25	27	1
54	56	2
80	81	1
58	90	1
62	62	2
20	40	2
67	68	1
103	103	2
58	59	1
41	42	1
86	90	1
129	130	1
55	55	2
128	129	1
58	75	1
22	23	1
116	116	6
69	70	1
73	126	1
32	33	2
60	62	1
57	76	1
112	113	1
101	102	1
127	128	1
17	18	1
25	82	1
7	8	1
79	79	1
26	93	2
118	120	1
95	133	1
71	88	1
131	132	1
68	72	1
43	43	1
109	110	1
79	80	1
52	53	1
123	123	1
120	132	1
64	70	1
27	29	1
99	108	1
3	3	1
66	87	1
63	68	1
111	112	1
