171	171	12
0	3	1
146	147	4
53	53	4
59	65	1
100	101	1
61	62	3
44	45	2
54	54	9
131	131	2
16	16	8
83	83	6
8	36	1
201	223	2
107	107	3
80	80	9
184	198	1
240	240	1
122	137	1
153	189	1
137	137	7
173	173	6
231	231	9
161	225	2
158	207	2
84	84	7
145	205	1
152	153	2
153	154	3
58	58	8
156	156	5
53	56	1
161	162	1
124	124	7
144	188	1
190	190	2
125	125	5
163	163	7
101	101	6
199	199	4
143	143	2
149	149	6
117	188	1
133	133	2
43	47	1
15	15	2
136	136	5
38	38	3
202	202	3
143	183	1
198	198	4
7	50	2
81	183	1
8	13	1
96	128	1
11	11	4
197	197	10
186	186	4
157	187	1
170	170	2
177	177	12
5	5	2
117	167	1
79	80	1
42	47	2
78	151	3
19	26	3
6	6	6
59	60	4
107	110	1
217	218	2
159	159	3
75	113	4
102	102	3
191	191	2
107	108	3
223	223	4
12	14	1
174	174	1
32	32	2
31	31	6
70	70	5
34	37	1
50	53	1
2	130	1
98	182	2
218	239	1
56	68	2
68	73	3
161	165	3
99	99	5
123	132	3
178	207	1
42	42	3
43	44	2
237	237	6
232	232	6
165	179	1
66	134	1
230	231	5
214	215	2
66	67	1
135	136	2
52	52	6
62	132	1
234	234	7
220	220	2
142	142	3
40	49	1
25	25	5
220	229	1
127	127	6
3	223	2
193	206	1
175	197	2
57	84	2
128	129	1
225	225	9
151	152	1
181	239	1
65	65	12
218	218	6
186	191	1
85	85	7
152	216	1
172	172	3
231	232	2
139	140	2
165	165	1
172	218	2
146	146	3
235	236	4
128	128	6
114	172	1
211	211	5
36	36	5
194	194	8
203	224	1
241	242	2
122	123	2
64	64	8
210	211	2
174	199	1
154	154	5
76	76	2
151	151	6
74	74	6
189	190	5
188	188	1
35	35	5
179	180	1
130	135	2
113	114	3
68	68	5
34	34	5
65	85	1
126	126	5
22	134	2
8	8	2
109	110	2
101	218	1
2	2	6
80	180	3
221	229	2
236	239	1
53	81	1
55	57	1
158	158	7
193	194	2
86	86	4
207	207	8
223	224	1
199	237	1
157	157	7
122	200	1
159	169	2
85	206	1
143	146	6
161	161	4
189	227	1
203	203	5
181	181	4
43	43	4
63	69	1
0	1	3
200	200	6
6	84	1
167	189	1
7	86	1
129	130	2
164	164	9
235	235	5
49	49	4
224	226	3
104	154	1
120	120	3
214	214	3
60	60	5
27	27	4
180	180	2
196	196	5
153	153	8
4	48	1
107	198	1
185	185	4
115	145	2
165	181	1
187	187	2
0	0	1
127	151	2
167	167	3
164	181	2
18	35	2
152	152	1
1	4	1
169	169	8
155	156	2
6	23	1
26	67	1
47	48	2
20	20	5
45	46	2
49	215	1
139	139	4
28	28	6
40	40	5
54	210	1
159	160	2
117	117	2
238	238	4
72	109	1
209	209	2
173	217	1
2	8	1
88	88	5
80	207	1
23	24	1
23	23	1
189	223	1
103	103	9
116	116	5
101	102	1
193	210	1
193	193	3
189	189	3
228	232	2
61	61	4
54	55	1
1	1	6
96	96	4
152	154	1
134	134	5
128	178	1
62	66	1
17	28	1
57	138	1
217	217	3
39	41	2
55	55	5
196	229	2
7	51	3
227	227	5
4	4	6
109	109	2
75	75	5
170	171	1
241	241	2
66	80	1
199	227	1
111	111	3
142	143	3
3	85	2
100	163	2
88	120	1
11	12	1
171	199	1
47	47	11
236	236	6
150	152	2
206	207	1
102	104	1
39	39	2
209	210	2
136	189	1
19	19	11
62	62	4
180	181	2
176	176	4
125	127	3
226	226	2
112	112	2
194	210	1
97	240	1
37	43	1
173	175	1
143	222	2
26	26	4
154	235	1
190	199	1
203	205	1
72	72	4
156	157	1
120	122	1
9	33	1
46	47	1
12	12	3
209	213	1
179	179	2
18	18	5
65	201	1
224	224	3
233	233	3
129	129	2
98	98	3
104	105	3
18	41	2
29	29	4
195	215	1
56	56	7
3	3	4
79	79	1
137	187	1
196	197	3
191	193	1
44	46	1
228	228	4
81	81	1
4	167	1
107	197	1
208	222	2
141	142	3
141	141	3
157	158	4
190	192	1
18	19	4
30	44	1
160	160	8
166	166	3
148	148	3
121	121	2
37	37	6
104	104	5
180	194	1
242	242	5
184	184	2
148	189	1
150	241	1
153	155	2
218	227	1
18	22	1
105	230	1
0	141	1
88	128	1
132	132	4
192	198	1
39	223	1
197	198	1
191	192	1
71	73	1
106	106	4
98	178	1
107	214	1
184	242	2
183	183	4
22	22	1
207	208	3
230	230	8
36	45	1
36	78	1
114	141	1
152	161	1
77	82	1
105	105	1
41	41	5
125	150	1
118	122	1
22	36	1
150	150	2
125	129	1
144	144	5
24	237	1
72	133	1
138	138	3
208	224	1
31	33	1
96	114	2
220	236	1
97	174	1
96	135	1
164	168	1
138	139	1
16	17	2
208	209	1
154	162	2
145	145	3
201	202	3
17	75	1
178	178	2
45	45	3
50	147	1
65	68	2
208	208	4
33	35	1
216	231	1
121	205	1
156	187	1
182	182	4
233	238	1
178	200	1
171	219	2
155	155	1
4	21	1
117	205	1
37	39	2
103	235	1
71	71	4
240	241	1
159	207	2
75	106	1
52	53	1
119	119	4
30	60	1
99	128	1
204	207	1
33	33	4
31	80	1
222	229	3
51	51	4
20	24	1
102	160	1
29	30	2
192	192	6
211	212	1
59	59	2
106	109	1
190	191	3
67	102	1
74	75	1
103	104	1
141	151	1
210	210	2
11	62	1
239	239	2
195	196	1
140	142	1
124	125	1
44	44	3
233	242	2
174	175	2
21	48	1
102	103	5
212	214	1
168	181	1
206	213	1
24	25	2
192	193	1
217	241	1
171	186	1
33	37	1
32	69	1
143	212	1
157	188	2
215	215	3
162	231	1
152	162	1
71	72	2
150	175	1
131	134	1
77	77	1
76	102	1
57	58	3
69	69	6
170	186	1
201	201	3
32	36	2
122	132	1
17	17	5
121	204	1
48	48	2
61	75	1
155	198	2
80	81	4
30	31	1
210	228	1
188	212	1
77	126	1
227	228	1
16	69	1
213	213	2
189	192	1
222	222	5
159	235	2
146	152	1
14	14	3
138	226	1
145	146	2
73	74	1
202	207	1
26	40	1
41	49	1
226	227	1
38	215	1
200	207	1
96	108	1
97	97	2
102	106	1
184	186	1
184	197	2
44	55	2
72	205	1
97	112	1
152	204	1
0	139	1
166	184	1
200	208	1
100	237	1
82	82	3
31	32	1
221	221	1
115	115	2
64	65	2
77	80	1
114	115	4
128	130	1
10	11	2
178	189	1
162	173	1
199	200	3
37	44	1
175	175	2
206	208	2
84	108	1
95	95	1
145	227	2
169	170	1
190	220	1
54	57	1
228	229	2
104	107	1
51	191	1
84	85	3
189	229	1
124	127	1
184	236	1
66	137	1
150	208	1
130	131	1
135	135	1
140	141	1
152	225	1
142	205	1
15	18	1
108	150	1
193	195	1
46	60	1
140	140	1
8	224	1
37	42	1
153	212	1
117	158	1
184	187	1
224	229	1
204	204	3
63	63	3
168	168	3
100	100	1
184	188	1
27	66	1
46	46	1
140	233	1
147	211	1
155	184	1
186	188	2
172	173	2
187	189	1
234	235	2
63	84	1
219	219	4
50	50	1
229	229	1
163	168	1
126	236	1
151	174	1
36	165	1
131	179	1
162	162	2
108	108	3
57	59	1
21	23	1
153	190	2
25	242	1
221	222	1
234	236	2
66	83	1
72	186	2
66	66	2
212	212	1
49	50	1
9	54	1
175	212	1
22	81	1
21	42	1
17	19	1
8	55	1
140	221	1
226	229	1
3	13	1
153	159	1
236	237	1
122	122	1
107	199	1
30	30	2
10	10	2
156	175	1
127	237	2
220	237	1
69	70	1
168	188	1
192	197	1
45	216	2
83	115	1
205	205	2
67	68	1
28	43	2
157	198	1
118	164	1
38	99	1
76	104	1
153	199	1
43	51	1
157	161	2
27	120	1
146	149	1
154	158	1
129	136	1
73	132	1
6	217	1
128	137	1
36	162	1
206	206	3
109	219	1
19	43	1
48	49	1
85	207	1
227	231	1
232	236	1
143	165	1
21	22	2
200	229	1
106	107	1
62	85	1
102	135	1
55	59	1
95	134	1
147	164	1
213	214	1
104	148	1
221	237	1
24	33	1
55	180	1
7	9	1
175	233	1
28	66	1
9	42	1
147	150	1
184	185	3
163	182	1
233	234	1
72	121	2
106	167	1
5	6	1
152	211	1
81	84	1
99	200	1
77	78	1
34	35	1
68	76	1
23	37	1
106	111	1
13	13	1
7	8	1
145	147	1
11	23	1
144	200	1
58	82	1
120	121	1
59	161	1
21	21	2
106	146	1
147	234	1
20	23	1
35	36	1
16	20	1
225	231	1
46	62	1
187	216	2
114	168	1
96	105	2
175	176	1
225	228	1
99	152	1
73	73	1
39	42	1
158	161	1
131	189	1
70	175	1
76	77	1
143	180	2
120	233	1
96	179	1
143	169	1
24	24	1
114	132	1
165	167	1
40	80	1
59	69	1
203	207	1
143	158	1
58	63	1
74	231	1
1	16	1
22	67	1
13	145	1
130	222	1
215	241	1
72	82	1
43	152	1
103	228	1
106	115	1
203	204	1
46	198	1
133	134	2
54	181	1
160	183	1
161	220	1
57	57	1
177	178	1
76	103	1
184	189	1
173	174	1
13	18	1
62	64	1
100	111	1
125	126	1
44	69	1
67	83	1
73	125	1
223	229	1
60	62	1
4	5	1
12	42	1
210	212	1
139	227	1
152	192	1
89	89	1
67	79	1
91	91	1
9	9	1
4	6	1
178	181	1
123	123	1
69	204	1
100	102	1
57	73	1
4	49	1
5	15	1
31	239	1
12	18	1
