29	30	2
105	106	1
101	101	3
124	124	2
115	116	2
108	108	1
75	75	2
125	125	3
29	29	2
71	99	1
120	131	1
110	111	2
98	98	3
71	71	5
85	93	3
23	23	2
100	125	1
123	126	2
106	128	1
94	107	1
17	23	3
100	100	5
16	17	2
12	12	1
123	123	2
133	133	2
5	7	2
114	114	4
24	25	1
9	14	1
98	111	2
15	15	1
8	8	3
102	102	3
37	38	2
84	104	1
105	105	3
92	92	2
121	121	4
78	78	1
32	88	1
81	81	2
84	84	1
113	113	6
36	36	1
27	27	4
22	22	2
87	87	5
127	127	2
28	29	1
3	30	1
134	134	1
95	118	3
109	109	2
91	122	1
0	0	6
112	112	2
28	89	2
72	72	2
78	105	1
111	111	2
105	121	1
78	91	1
79	80	1
27	28	2
93	108	2
77	85	1
128	128	1
8	9	1
20	32	1
76	76	1
126	127	1
140	140	3
95	95	2
37	37	2
97	97	1
88	104	2
86	100	1
3	114	1
72	112	1
96	96	1
16	16	2
32	32	3
104	104	2
3	4	2
13	13	3
75	80	1
75	123	1
122	122	2
116	116	5
0	1	1
115	115	1
34	99	1
9	9	1
81	105	1
130	130	2
98	99	1
38	38	2
19	22	1
10	25	1
138	138	1
72	74	1
131	131	1
17	36	1
132	132	1
20	20	2
94	94	2
118	118	1
85	85	1
97	117	1
74	100	1
126	135	1
76	77	1
91	91	2
14	89	1
72	120	1
101	134	1
94	96	1
135	138	1
102	111	1
89	96	1
93	93	1
137	137	1
19	19	1
83	85	1
34	34	1
117	117	2
74	75	1
87	89	1
16	20	1
79	79	2
73	73	2
74	76	1
13	136	1
86	86	1
23	77	1
82	89	1
83	83	1
135	136	2
105	108	1
80	81	2
32	102	1
86	124	1
112	113	2
19	20	2
7	7	2
75	79	1
77	77	2
81	82	1
18	23	1
31	31	3
20	21	1
10	10	1
17	17	1
96	97	2
23	28	1
6	6	2
7	76	1
38	95	1
126	126	1
129	129	3
33	33	1
31	91	1
129	130	1
23	29	1
132	133	1
86	117	1
119	121	1
24	24	1
119	119	1
79	86	1
95	96	2
30	96	1
84	106	1
28	28	2
89	89	1
87	88	1
88	89	1
77	78	1
135	135	2
78	79	1
102	105	1
93	137	1
106	106	1
100	103	1
71	75	1
14	14	1
113	114	1
86	87	1
16	106	1
29	33	1
35	35	1
3	3	2
77	96	1
113	116	1
14	25	1
3	31	1
89	90	1
108	120	1
15	16	1
28	37	1
120	121	1
5	5	1
14	23	1
84	86	1
25	36	1
3	21	1
86	88	1
1	1	1
