152	152	1
139	139	4
84	84	2
60	60	1
110	113	1
142	142	3
85	129	1
91	92	1
172	172	3
101	178	1
122	126	3
121	123	2
21	39	1
52	53	1
55	55	1
141	142	2
43	44	1
153	158	1
82	83	1
5	5	2
39	39	4
23	23	1
30	93	1
51	51	2
77	77	1
90	90	1
87	93	1
106	107	1
59	60	1
123	123	5
175	175	1
96	107	1
85	99	2
159	160	1
32	33	3
73	73	2
107	108	1
94	94	6
59	71	2
25	40	1
15	15	4
19	19	1
166	166	2
173	173	3
84	85	1
67	68	1
73	74	1
110	129	2
165	165	1
88	88	5
11	23	1
11	11	6
13	14	2
21	32	1
17	127	1
102	102	4
132	132	3
154	169	5
128	128	2
104	105	1
91	91	3
109	143	1
84	87	1
178	178	6
150	150	3
4	5	1
57	57	2
145	172	2
56	56	4
63	66	1
143	143	3
107	107	5
92	127	1
131	132	1
125	134	1
87	87	2
101	101	4
81	81	6
6	6	6
8	10	1
166	167	2
66	67	2
153	177	1
155	162	1
113	113	1
43	125	2
174	174	2
16	16	3
150	151	1
61	61	4
106	106	2
111	111	2
44	44	1
31	39	1
108	118	1
15	16	2
17	17	2
141	141	2
13	13	2
158	159	1
130	156	1
37	43	1
65	76	1
108	109	2
153	153	5
155	155	1
171	178	1
118	134	1
164	164	2
2	3	1
154	158	3
121	122	2
53	53	4
22	22	1
49	53	2
21	176	1
103	103	2
155	157	1
22	26	3
160	162	1
151	151	5
92	92	2
148	149	2
29	30	1
65	65	4
74	74	3
50	50	1
75	75	3
122	122	3
37	37	2
171	171	6
54	54	2
113	115	1
65	66	2
137	137	1
111	112	1
25	26	1
83	129	1
130	152	1
135	135	3
96	96	1
5	6	5
55	71	1
108	108	3
59	59	2
34	99	1
118	118	2
11	28	1
72	72	1
96	102	1
66	66	3
168	168	2
65	78	1
169	169	4
140	140	2
96	109	2
45	45	1
145	145	2
119	147	1
148	148	2
80	136	1
62	63	2
54	56	1
85	85	2
125	125	2
169	176	1
28	29	4
157	163	1
53	58	2
37	61	1
148	154	1
21	141	1
84	119	1
165	166	2
63	63	1
133	133	3
11	12	2
148	153	1
134	134	1
124	142	1
35	61	1
104	122	1
50	51	2
57	58	1
4	63	2
136	153	1
5	16	1
138	138	3
67	67	1
100	100	1
127	128	1
161	161	1
6	7	1
80	83	1
154	154	2
100	101	1
86	143	1
122	125	2
139	172	1
174	180	1
139	142	2
4	4	1
120	120	1
24	24	2
99	101	1
7	7	2
157	170	1
154	156	1
97	97	3
58	61	1
179	179	1
29	29	1
38	39	1
16	18	1
128	129	1
153	154	1
71	71	2
57	61	1
2	4	1
35	35	1
129	129	1
7	11	1
169	174	2
134	148	1
80	93	1
138	153	1
129	152	1
43	71	1
167	168	1
99	99	1
12	44	1
125	145	1
1	7	1
91	104	1
128	151	1
176	176	1
168	172	1
144	144	2
126	127	1
96	146	1
109	109	1
12	13	1
112	156	1
112	113	1
36	36	1
91	95	1
18	18	2
123	125	1
28	28	1
53	81	1
98	126	1
75	76	2
40	40	1
0	0	2
23	25	1
12	14	1
99	107	1
17	19	1
119	130	1
115	115	1
146	146	2
155	180	1
20	21	1
25	45	1
160	160	1
19	20	1
124	124	1
75	85	1
24	114	1
82	82	1
16	125	1
136	140	1
136	137	1
42	67	1
126	126	1
56	70	1
144	146	1
7	25	1
96	97	1
179	180	1
103	110	1
60	84	1
8	15	1
169	170	1
33	34	1
96	106	1
157	157	2
14	14	1
94	112	1
158	158	1
30	30	2
93	94	2
77	78	1
115	119	1
84	86	1
26	30	1
71	109	1
133	134	1
131	131	1
27	27	1
89	101	1
88	94	1
127	134	1
95	95	1
10	10	1
5	41	1
78	78	2
64	64	1
113	114	1
1	14	1
136	136	1
1	1	1
53	54	1
39	40	1
26	26	1
170	170	1
161	162	1
18	45	1
20	44	1
117	117	1
102	166	1
