137	137	4
72	73	2
166	166	5
105	106	3
79	161	1
142	142	5
105	105	11
130	130	4
89	89	6
54	54	3
48	48	4
17	42	2
7	7	3
18	18	4
5	6	3
52	53	2
1	1	5
84	84	5
155	156	4
47	48	1
157	157	2
143	143	3
19	172	1
163	163	2
162	162	1
153	154	2
128	128	4
23	30	1
64	64	1
127	127	2
150	150	4
2	3	1
123	123	2
25	34	1
164	164	1
37	59	1
68	68	3
156	156	2
131	133	1
137	186	1
157	162	1
132	144	3
121	173	1
1	2	2
3	3	2
113	123	2
176	176	4
13	13	4
80	92	1
22	34	1
53	53	1
61	122	1
180	183	3
60	144	1
88	88	3
20	20	4
47	47	3
72	72	2
1	154	1
155	155	5
6	6	4
119	119	1
81	99	2
34	59	1
162	163	1
42	42	1
17	67	1
58	90	2
26	26	3
22	24	1
147	147	2
97	97	1
187	187	2
68	104	1
169	169	1
145	145	7
172	172	8
163	182	1
95	95	1
81	81	2
73	94	2
112	112	3
24	24	1
44	45	1
16	34	1
27	27	4
28	30	1
98	113	2
15	16	1
182	183	2
100	100	7
134	134	2
23	26	1
58	58	1
96	189	1
38	38	3
63	119	1
140	140	4
45	45	4
28	28	1
125	130	2
115	115	3
10	10	2
87	88	2
92	93	1
182	182	5
43	64	1
14	14	2
11	11	4
122	122	4
56	56	3
154	154	1
78	104	2
107	180	1
151	154	1
131	131	2
107	108	1
76	77	2
164	178	1
82	82	5
148	148	5
168	169	1
25	25	1
186	186	2
14	110	1
5	5	3
28	52	2
21	84	1
13	14	2
140	141	1
152	152	3
114	114	1
108	109	2
62	62	3
87	131	2
117	119	1
156	157	2
106	106	4
74	74	3
91	125	1
26	27	1
126	127	1
141	141	4
2	2	4
12	13	3
175	176	4
91	91	3
60	89	4
71	71	2
139	139	1
124	124	3
66	68	3
29	29	4
73	73	5
80	80	5
183	183	5
97	98	1
53	54	1
2	15	1
182	190	1
85	85	5
90	90	4
94	115	1
129	133	1
12	37	2
116	116	1
30	30	1
3	25	2
162	165	1
158	158	5
149	149	2
117	118	1
36	36	3
180	180	2
151	151	3
101	101	3
2	57	1
11	44	1
0	84	2
75	76	1
92	92	2
178	178	5
105	107	1
121	142	1
135	135	4
114	138	1
185	185	2
90	117	2
77	77	3
15	15	3
17	30	1
127	150	1
118	118	1
79	109	1
65	65	3
128	187	1
32	32	1
57	58	1
38	39	1
117	117	1
75	75	3
82	96	1
184	184	1
171	171	3
40	54	2
156	188	2
109	109	3
168	168	2
111	112	1
75	89	2
165	166	2
20	44	1
36	37	1
38	48	1
66	66	3
78	113	2
6	8	1
91	92	1
37	37	3
130	164	1
90	126	1
150	159	1
60	60	4
160	160	3
92	105	1
60	61	1
17	17	1
97	190	1
106	116	1
5	13	1
14	15	1
138	138	4
163	181	2
8	13	2
0	111	1
165	165	3
136	185	1
33	33	1
79	79	1
58	63	2
134	136	1
120	120	2
152	153	1
161	161	1
31	112	1
78	78	3
61	119	1
129	129	1
39	39	1
11	20	3
181	181	1
21	21	1
102	102	4
63	73	2
68	75	2
77	102	1
101	125	1
110	184	1
99	117	2
125	127	1
141	142	1
93	93	1
127	177	1
10	62	1
177	177	5
19	19	1
18	36	1
31	31	2
75	107	1
109	110	1
99	119	1
94	94	2
46	46	2
9	10	1
70	70	1
119	162	1
144	144	2
21	81	2
90	186	1
146	146	4
170	170	2
113	116	1
176	179	1
41	41	1
22	27	1
55	55	3
104	105	1
162	181	1
173	173	1
169	170	1
35	35	2
23	23	2
18	19	1
104	104	4
134	135	1
40	139	1
133	133	2
145	146	1
43	44	1
98	98	2
9	46	1
153	153	2
41	122	1
101	102	2
81	83	2
90	133	1
120	163	1
129	161	1
22	23	1
135	136	1
89	128	1
85	89	1
70	71	2
181	183	1
101	103	1
145	174	1
146	165	1
1	73	1
80	111	1
34	34	2
17	18	1
30	31	1
111	111	3
164	165	1
138	139	1
16	42	1
168	189	2
76	76	1
39	124	1
80	160	1
110	110	2
107	107	2
55	58	2
86	86	1
71	123	1
120	158	1
94	131	2
143	177	1
61	63	1
142	155	1
147	152	1
67	68	1
143	147	1
78	101	1
122	128	1
181	184	1
146	177	1
62	63	1
117	150	1
152	154	1
58	62	1
112	115	1
165	181	1
8	8	1
136	136	1
72	104	1
78	79	1
34	43	1
92	120	1
40	53	1
68	69	1
32	45	1
176	183	1
87	98	1
25	36	1
4	5	1
136	174	1
20	34	1
166	174	1
