101	179	1
140	140	2
85	85	1
115	182	1
114	114	1
3	197	2
181	181	3
121	124	2
143	172	2
95	95	6
25	25	6
139	141	2
159	191	1
151	151	4
135	135	3
39	39	6
113	113	3
63	63	3
7	102	1
191	192	1
104	104	3
155	156	1
67	113	2
121	121	5
189	189	2
185	185	4
13	13	1
97	97	4
149	153	1
162	162	5
121	132	1
143	171	1
101	101	3
28	70	2
132	132	3
60	85	1
131	131	3
61	61	2
116	116	3
94	144	1
184	188	1
180	181	2
4	4	2
39	41	1
2	31	1
41	54	1
173	173	1
179	180	3
119	119	5
80	80	3
40	97	1
80	85	1
118	155	1
47	47	1
2	2	1
175	177	3
103	103	6
46	46	2
64	68	2
133	133	2
59	61	2
62	63	1
109	135	1
37	37	1
140	182	1
0	0	7
156	158	1
44	56	1
44	44	2
84	103	2
165	165	4
161	162	1
3	3	4
79	88	2
158	158	1
22	23	3
55	62	2
119	120	3
180	180	2
82	87	1
117	118	2
174	175	1
160	160	1
49	196	1
41	41	2
0	89	2
57	123	1
38	84	1
110	110	1
65	65	2
35	35	2
13	61	1
118	122	1
142	152	1
159	159	4
68	141	1
128	128	1
53	53	3
85	89	1
126	196	1
178	178	5
108	109	1
130	130	3
121	126	1
39	57	2
143	143	1
59	59	4
106	106	2
80	84	3
3	195	1
77	78	2
194	194	2
112	112	3
98	116	1
105	105	2
147	147	1
68	69	1
9	9	4
145	165	1
72	72	4
134	134	5
105	186	1
0	136	1
166	175	1
99	99	3
19	19	2
182	182	3
94	94	1
142	150	2
114	156	3
196	197	1
46	47	1
66	68	1
21	21	1
24	24	2
48	48	3
50	50	2
79	147	1
97	98	2
59	82	1
49	49	2
45	45	3
135	163	4
16	16	3
23	27	1
37	38	1
183	188	2
79	164	1
115	115	1
137	137	2
52	53	2
4	119	2
5	6	3
96	100	1
124	124	2
170	172	1
113	122	1
23	26	1
174	174	1
129	169	1
10	13	2
180	185	1
75	84	1
34	37	1
125	127	3
196	196	2
66	66	2
74	96	1
109	109	1
134	181	1
190	191	2
179	179	3
27	27	2
170	170	4
192	193	2
109	162	1
87	87	1
84	86	1
67	68	1
190	190	2
71	72	2
56	56	2
33	84	2
10	140	1
60	81	2
84	170	1
148	156	2
76	76	2
78	146	1
78	145	2
54	54	2
144	145	1
58	58	3
184	184	3
0	1	2
101	106	1
150	173	1
99	102	1
161	161	1
150	169	2
36	36	2
120	120	3
153	153	1
19	24	1
153	174	1
124	125	1
138	138	1
96	96	3
107	108	1
118	118	3
11	132	1
58	64	1
54	56	1
193	193	2
102	102	1
151	153	1
97	99	1
172	172	3
175	176	1
32	33	1
128	138	1
195	195	2
54	69	1
52	52	4
96	133	1
21	77	1
102	105	1
11	130	1
148	148	3
122	130	1
164	167	1
18	19	1
67	67	1
195	196	2
120	124	1
13	14	1
18	18	1
125	125	1
135	136	1
48	196	1
35	85	2
64	65	2
31	38	1
165	166	1
43	43	1
120	123	1
149	149	1
146	157	1
169	169	1
138	140	1
73	150	3
55	139	1
7	8	1
88	169	1
45	47	1
77	120	2
188	188	3
111	111	1
32	32	1
141	141	2
70	70	1
14	16	1
31	31	1
63	64	1
39	40	1
184	192	1
14	14	2
103	110	1
163	163	2
79	79	2
10	10	4
103	170	2
179	181	1
82	145	1
72	86	1
60	61	2
136	159	2
57	57	3
20	102	1
15	16	1
117	117	1
111	135	1
174	176	2
90	99	1
3	4	2
81	81	1
125	131	1
149	197	1
10	11	1
187	187	1
181	182	1
96	97	1
149	174	1
81	85	1
18	25	2
42	127	1
42	42	4
182	183	1
46	132	1
98	98	1
63	65	1
130	132	1
10	70	1
1	1	1
53	56	1
2	3	1
19	22	1
106	130	1
151	170	1
139	139	2
150	150	1
141	151	1
68	68	2
20	20	2
5	8	1
187	188	1
136	136	1
24	79	1
142	142	2
2	34	1
35	65	1
73	74	1
69	69	1
177	177	1
122	122	2
15	26	1
140	142	1
40	40	1
145	145	1
73	151	1
98	99	1
163	173	1
159	160	1
33	33	2
7	163	1
19	140	1
16	17	2
71	71	1
108	108	1
28	28	1
75	75	1
37	157	1
152	154	1
64	64	1
60	60	2
36	191	1
116	149	1
99	185	1
183	183	1
44	69	1
54	118	1
70	116	1
101	103	1
142	176	1
78	79	1
75	83	1
21	22	1
74	118	1
125	140	1
51	51	1
165	182	1
172	174	1
79	165	1
127	127	1
147	155	1
135	138	1
9	185	1
