152	152	6
118	157	2
176	176	2
160	160	3
85	85	5
77	78	2
192	192	5
141	141	2
145	208	3
203	215	1
109	109	1
218	242	1
181	198	1
118	118	3
198	198	5
17	31	1
188	188	2
15	15	2
196	196	3
49	56	1
220	221	4
212	212	1
2	20	1
6	7	1
114	142	2
84	85	3
106	128	1
183	184	1
205	205	1
8	8	4
146	147	2
31	31	2
231	231	3
30	33	1
84	84	3
165	165	3
22	51	2
42	42	5
50	50	1
218	232	1
152	159	2
210	210	1
160	225	1
36	36	2
4	5	2
208	208	4
236	236	2
106	106	6
163	163	4
16	16	5
39	39	5
114	114	3
72	72	4
119	119	2
104	117	1
55	56	1
237	237	4
49	53	1
66	98	1
123	124	2
160	196	1
206	206	2
1	2	1
54	54	3
119	120	1
82	82	1
184	184	4
185	229	2
150	150	2
59	72	1
44	46	1
70	70	5
120	120	2
74	74	4
186	187	2
120	121	1
242	242	2
191	192	1
144	144	1
136	138	2
35	35	2
47	64	1
172	178	1
34	41	1
187	187	2
41	41	5
153	165	1
163	194	1
174	175	1
219	219	7
118	128	1
16	20	1
173	174	2
128	128	4
82	84	3
214	215	1
181	205	1
225	225	3
210	229	1
228	234	1
9	10	1
147	147	1
3	11	1
153	153	4
20	20	3
33	33	2
114	177	1
66	175	1
225	238	1
53	53	1
195	195	5
63	70	1
146	146	2
88	88	3
13	13	5
205	209	1
65	66	1
115	115	3
59	60	1
101	101	3
62	67	1
106	107	1
72	98	1
151	237	1
60	60	3
167	167	5
177	177	3
52	52	2
18	30	1
227	235	1
227	227	3
130	130	3
144	146	2
32	55	1
191	191	3
207	208	1
145	145	2
111	154	1
226	238	1
6	6	4
133	146	1
102	102	1
105	109	1
127	127	3
45	45	4
158	158	2
75	75	2
193	193	2
161	161	2
170	174	1
76	76	1
180	180	1
231	234	1
213	213	3
155	167	1
65	67	1
68	68	5
218	220	1
25	25	6
22	22	3
29	29	3
4	7	1
210	225	1
58	58	3
59	67	1
77	77	1
73	73	4
148	148	7
35	80	1
16	22	1
72	137	1
190	191	1
234	234	2
162	163	1
17	17	2
41	42	1
34	153	1
203	203	3
96	96	3
62	120	2
181	181	1
214	225	1
169	175	1
202	202	2
64	220	1
47	105	1
79	106	1
110	110	1
136	136	3
220	220	1
101	102	1
7	7	5
174	174	5
2	53	1
160	166	1
238	238	4
31	46	1
47	47	3
171	171	3
107	107	4
179	179	2
114	145	1
221	223	2
21	21	2
133	133	5
131	131	2
183	183	3
147	148	2
144	158	1
184	185	1
173	173	4
15	127	1
124	130	1
78	78	3
216	216	2
48	48	2
33	66	1
178	202	1
157	158	1
176	188	1
205	206	1
178	196	3
57	72	1
103	104	2
67	67	2
150	151	2
19	19	3
61	62	2
169	196	1
25	43	1
171	173	1
34	34	1
145	146	2
1	1	2
121	121	2
49	49	1
56	56	1
132	132	2
18	18	1
79	79	5
66	66	3
7	182	1
213	232	1
170	170	2
62	62	2
0	0	1
224	227	1
185	185	2
109	143	1
219	220	1
240	240	2
238	240	1
46	88	1
128	175	1
113	113	2
9	21	1
45	54	1
20	85	1
199	200	1
149	149	2
98	107	1
4	4	1
38	38	1
105	106	1
230	230	3
126	126	2
183	194	1
56	72	1
224	229	1
139	139	3
16	215	1
10	15	1
6	89	2
21	137	1
98	112	1
80	80	2
9	9	3
44	44	2
208	216	2
100	100	3
221	226	1
71	71	2
81	84	1
204	204	1
129	183	1
132	139	1
207	207	2
86	86	4
182	183	1
138	138	2
224	224	2
156	156	2
67	68	1
172	172	2
26	26	3
151	151	5
201	201	1
122	122	1
167	168	1
88	99	1
36	122	1
96	97	1
202	204	1
163	167	1
209	209	1
215	215	2
175	179	1
194	196	2
50	207	2
27	27	4
13	14	2
160	165	1
164	164	2
169	169	1
143	159	1
206	230	1
105	133	1
104	104	1
51	56	1
65	65	2
52	66	1
133	134	1
239	240	1
134	134	3
28	28	2
10	10	2
57	57	1
105	128	1
197	197	2
64	64	2
217	217	2
122	124	1
177	186	1
2	2	1
33	36	1
24	24	1
98	98	2
171	172	3
66	67	2
139	140	2
132	133	1
125	125	1
3	3	2
186	186	3
30	31	1
24	39	1
107	108	1
213	229	1
61	61	1
175	175	2
106	139	1
232	232	3
43	44	1
190	190	1
20	65	1
99	99	3
122	164	1
199	199	2
129	129	2
111	111	2
80	177	1
154	156	1
204	206	1
119	184	1
128	129	2
204	205	1
80	184	1
164	165	1
14	39	1
117	117	1
74	223	1
161	162	1
42	43	1
112	112	1
6	237	1
39	69	1
96	110	1
178	179	1
162	177	1
194	194	1
79	96	1
61	121	1
155	156	1
195	196	2
1	23	2
105	137	1
18	19	1
123	123	1
84	143	2
189	226	1
6	67	1
35	49	1
226	226	1
141	142	1
44	45	1
68	119	1
11	11	1
7	9	1
83	83	1
46	47	1
214	214	1
15	101	1
233	233	1
144	145	1
97	97	2
43	43	3
223	223	1
33	46	1
56	59	1
64	66	1
108	108	1
101	137	1
185	186	1
226	237	1
54	55	1
172	242	1
51	116	1
110	135	1
206	212	1
14	14	1
206	209	1
13	38	1
85	161	1
166	166	2
106	163	1
67	79	1
71	73	1
31	38	1
229	236	2
30	30	1
155	155	2
23	23	2
7	204	1
231	232	1
126	127	1
159	159	1
105	105	1
73	196	1
12	16	1
83	117	1
241	241	1
38	46	1
0	41	1
137	138	1
109	116	1
58	102	1
147	161	1
235	235	1
206	208	1
1	150	1
25	26	1
191	196	2
14	15	1
12	13	1
17	226	1
149	152	1
194	199	1
200	200	1
103	222	1
38	39	1
135	136	1
