162	162	1
142	142	2
94	94	3
148	148	1
169	171	1
88	88	3
65	67	1
54	55	3
112	114	3
122	150	1
116	117	1
25	73	1
37	37	1
139	176	1
119	119	1
170	170	4
55	55	6
43	43	1
143	143	1
102	103	2
44	46	1
64	64	3
10	10	2
72	73	1
92	92	1
34	35	1
29	57	1
54	54	4
3	3	2
149	149	3
1	1	1
44	58	2
137	139	1
36	36	1
15	16	3
141	173	1
11	12	1
154	154	2
123	123	2
134	134	3
56	57	3
15	15	4
75	75	5
39	39	2
163	163	3
4	4	2
101	101	1
168	168	5
59	59	3
150	150	3
180	180	2
135	135	3
171	171	1
11	11	1
134	140	1
127	127	1
169	169	2
78	78	1
138	139	3
161	165	1
106	106	2
118	120	2
103	103	2
35	35	2
164	164	1
83	130	1
144	146	1
62	65	1
17	17	3
66	66	2
133	133	3
111	111	1
98	98	1
137	137	3
110	110	3
143	145	1
144	144	3
43	52	1
176	176	2
158	158	2
160	169	1
8	8	1
2	2	1
92	113	1
136	137	2
178	178	3
90	92	1
2	4	2
96	112	1
132	133	1
141	142	1
117	152	1
7	51	2
40	40	1
41	41	2
73	73	1
7	22	1
139	159	2
19	19	2
22	26	1
125	125	1
8	10	1
161	161	1
167	167	2
135	136	1
24	24	2
117	117	4
12	29	1
115	115	1
40	41	1
128	128	1
0	34	2
96	96	2
139	139	3
6	6	3
126	128	1
16	16	1
153	154	1
119	120	1
45	46	1
10	31	1
71	84	1
18	18	1
72	93	1
155	155	1
98	100	1
93	93	1
131	131	2
118	118	2
29	29	2
146	146	1
52	53	2
61	68	1
71	72	2
87	87	1
16	73	1
154	156	1
135	177	1
171	172	2
12	13	1
174	174	1
82	85	1
28	29	1
124	166	1
13	13	1
124	124	1
152	152	1
61	62	2
89	89	1
25	26	1
5	6	1
30	31	1
20	23	1
172	172	1
159	159	2
132	132	1
178	179	1
126	126	1
107	107	1
60	61	1
179	179	1
157	157	1
78	137	1
136	136	1
140	152	1
170	171	1
141	141	1
88	89	1
45	45	1
173	173	2
112	115	2
35	36	1
160	160	2
42	42	2
65	65	1
110	129	1
105	105	2
68	68	1
30	30	1
46	46	1
175	176	1
66	90	1
77	77	2
40	151	1
152	153	1
169	176	1
151	151	1
103	117	1
104	104	2
53	78	1
3	49	1
0	0	1
164	167	1
121	121	1
60	60	1
23	23	1
150	151	1
43	44	1
81	81	1
33	33	1
91	92	1
136	147	1
