49	50	1
63	63	3
25	25	1
140	140	3
87	91	1
91	96	1
83	84	1
63	70	1
38	38	1
27	58	1
84	84	2
6	97	1
55	83	1
116	117	3
139	139	1
137	138	2
134	134	2
102	103	4
100	124	1
20	21	3
76	77	1
112	113	1
2	2	1
114	115	1
121	121	2
51	62	2
56	56	4
88	140	1
111	114	1
15	15	1
24	24	1
90	90	2
13	13	2
104	138	2
14	14	2
66	107	1
109	109	4
109	131	1
70	70	1
42	42	3
142	142	3
24	128	1
91	91	2
26	26	1
81	82	3
5	5	1
62	63	1
64	98	1
71	71	1
70	71	3
38	112	1
96	96	1
108	108	1
53	56	1
43	43	1
65	97	1
1	58	1
105	133	1
62	129	1
37	38	2
32	32	2
88	89	1
113	116	1
10	10	4
129	129	1
39	39	1
129	130	1
61	61	3
85	132	1
2	49	1
78	78	1
47	47	1
123	123	3
68	69	1
40	40	3
8	8	2
115	115	2
87	89	2
131	131	1
16	16	4
120	120	1
94	94	1
95	96	2
34	35	1
23	127	2
14	30	1
114	114	2
6	48	1
73	75	1
79	79	1
102	102	2
117	138	1
72	72	2
77	77	1
70	114	1
39	43	1
17	18	2
61	135	1
17	26	1
67	67	2
12	21	1
59	59	2
35	35	1
78	84	1
22	22	1
31	31	3
29	29	4
123	125	1
64	70	1
73	74	1
93	93	2
124	124	2
3	16	1
108	109	1
58	59	2
13	14	1
12	12	1
80	81	3
21	23	1
77	78	1
132	133	3
93	94	1
37	50	1
86	98	1
91	97	1
27	29	1
68	68	1
67	76	2
125	125	2
67	72	1
63	128	2
58	58	2
37	37	1
54	54	2
57	57	1
70	113	1
136	136	1
9	9	3
1	1	2
9	102	1
78	115	1
101	102	3
125	126	1
111	111	2
145	145	1
15	37	1
99	103	1
36	97	1
134	140	2
31	40	1
3	9	1
60	60	1
3	13	1
137	137	2
131	132	2
74	74	1
146	146	1
76	115	2
14	15	1
101	101	1
51	137	1
111	112	2
122	139	1
4	4	2
27	27	1
97	97	2
143	143	1
100	100	2
21	24	1
28	28	1
99	99	1
40	41	2
128	128	2
110	110	1
97	126	1
42	43	1
64	64	1
118	118	1
104	104	1
2	52	1
95	95	1
41	41	2
36	36	1
128	129	1
6	53	1
64	137	1
106	107	2
21	38	1
86	86	1
81	81	1
8	9	1
53	53	1
61	81	1
103	103	1
2	32	1
66	117	1
64	118	1
66	66	1
34	36	1
79	121	1
50	113	1
80	80	1
112	112	1
130	130	2
19	19	2
105	105	1
90	99	1
136	143	1
25	127	1
136	140	1
107	107	1
96	134	1
49	85	1
73	83	1
98	101	1
145	146	1
98	99	1
90	96	1
89	119	1
5	35	2
3	3	1
27	33	1
101	120	1
56	59	1
118	119	1
