133	133	2
109	109	5
93	93	5
42	54	1
59	59	1
37	38	2
67	85	1
135	139	2
17	17	1
58	58	3
27	27	3
141	141	3
68	68	2
93	94	1
25	25	2
89	89	4
56	56	1
121	121	1
18	69	1
73	74	1
110	110	2
114	114	2
139	139	1
3	15	2
87	121	2
0	1	1
81	103	2
55	55	2
68	112	1
129	131	1
76	90	1
42	53	1
36	36	3
96	98	1
133	134	2
119	130	1
97	97	2
1	1	2
87	104	2
112	112	2
103	105	1
121	122	2
99	99	4
127	127	3
134	134	1
18	18	3
0	18	1
61	61	1
9	65	1
61	62	1
33	35	2
69	71	2
119	119	1
32	35	1
65	65	1
128	128	2
69	88	1
5	5	2
129	129	3
123	123	3
66	66	2
84	84	3
5	31	1
12	35	1
102	107	1
29	29	5
117	119	1
81	81	4
122	133	2
91	91	2
38	38	2
42	42	1
108	108	3
49	54	1
90	90	3
41	61	1
4	5	1
88	88	1
10	10	4
106	106	3
97	140	1
55	58	2
11	11	1
23	26	2
114	132	1
67	67	2
95	95	1
73	75	1
58	60	1
103	103	4
117	117	1
4	4	2
140	140	2
69	69	2
36	57	1
24	25	1
136	137	1
35	36	2
117	118	1
108	118	2
72	73	1
139	140	1
63	63	2
15	15	2
23	24	1
137	137	2
96	96	2
126	126	2
15	16	2
3	4	1
116	117	2
129	130	1
143	143	2
120	121	2
79	79	1
59	121	1
21	21	3
104	104	3
39	39	1
132	133	2
34	35	1
28	28	2
68	69	3
39	40	1
79	84	1
49	53	1
71	99	1
36	49	1
41	41	2
60	84	1
72	72	3
47	47	1
107	107	2
131	131	1
102	103	1
113	114	1
31	33	1
142	142	2
3	3	1
30	30	2
48	48	2
37	37	2
60	60	1
102	102	1
54	54	1
122	122	1
105	105	1
9	9	1
15	63	1
2	2	2
62	62	1
112	114	1
115	117	1
74	86	1
113	113	1
136	136	2
100	100	3
124	124	2
104	105	2
132	132	4
23	23	1
67	84	1
72	98	2
130	130	2
22	22	1
105	107	1
2	3	1
48	55	1
55	56	1
40	40	1
41	55	1
130	140	1
75	78	1
101	101	2
70	70	1
74	119	1
126	131	1
70	111	1
5	43	1
94	94	1
76	76	2
51	51	1
31	101	1
40	89	1
120	120	2
127	145	1
82	83	1
18	126	1
114	115	1
16	17	1
98	99	1
35	49	1
60	66	1
50	50	1
29	37	1
115	116	1
71	72	1
105	113	1
79	81	1
32	32	1
