192	214	2
220	221	2
221	221	1
120	120	3
202	239	1
170	170	2
172	172	2
179	187	1
103	119	1
227	227	5
59	59	1
140	176	1
154	158	1
217	217	2
165	166	2
182	183	1
56	56	1
201	219	1
203	203	2
232	232	2
161	161	4
134	135	1
24	177	1
52	52	1
27	86	1
127	128	1
57	57	1
71	71	3
138	138	2
228	228	3
85	85	3
155	181	1
150	150	1
173	173	1
241	241	4
36	36	4
86	86	1
5	15	4
106	106	5
3	3	1
28	85	1
76	134	1
143	143	2
15	16	1
195	196	2
85	86	2
24	188	1
142	163	1
148	149	1
183	185	1
1	2	2
180	180	4
35	35	1
25	198	1
175	175	2
34	200	2
39	39	1
124	124	1
160	161	1
144	144	1
18	192	2
190	215	1
105	105	5
55	55	3
210	211	2
205	205	3
10	10	4
55	198	1
175	209	1
18	18	2
134	234	1
204	204	1
205	206	1
16	17	1
139	139	1
70	70	3
156	156	1
54	54	2
17	17	1
57	59	1
154	154	1
77	79	1
142	145	1
104	104	1
172	182	2
150	163	1
109	109	2
6	6	2
75	75	4
146	146	1
43	43	5
10	25	2
7	8	2
69	69	2
153	153	1
201	201	1
32	32	1
16	16	2
202	202	2
27	27	1
79	79	2
122	140	1
129	129	1
14	185	1
176	179	1
44	71	1
169	169	4
45	45	7
99	99	1
238	238	2
188	188	1
58	58	2
53	53	2
147	148	1
192	217	1
100	100	3
33	79	1
4	5	1
83	83	2
107	107	2
70	71	1
49	49	1
208	219	1
197	198	1
102	102	3
126	126	3
196	196	2
103	103	1
40	41	2
177	177	2
180	187	1
210	210	2
226	227	1
234	235	1
113	113	1
14	18	1
133	163	1
167	167	2
61	61	1
151	155	1
46	46	1
164	206	2
193	194	1
151	151	2
176	177	2
115	117	1
231	231	2
31	36	1
27	29	2
51	119	1
125	125	2
214	215	3
199	199	2
13	15	1
135	135	2
141	141	3
7	7	2
12	36	1
136	136	1
167	169	1
114	114	1
38	38	2
152	152	1
29	61	2
25	25	1
48	171	1
78	78	1
176	176	2
215	215	1
205	223	1
212	213	2
97	97	2
30	34	1
239	239	1
127	127	2
14	14	1
19	19	2
73	73	2
112	112	1
230	235	1
24	24	2
31	31	1
159	170	1
1	40	1
8	8	1
189	217	1
33	33	1
72	72	1
11	11	1
223	223	1
62	62	1
15	15	1
160	204	1
206	206	1
242	242	1
4	4	2
47	134	1
8	9	2
196	214	1
12	12	2
149	149	1
95	170	1
194	194	1
22	23	1
115	115	2
187	187	2
233	233	1
50	50	1
191	191	2
84	84	1
217	218	1
204	205	1
100	101	1
133	134	1
173	174	1
105	118	1
200	201	1
111	111	2
219	219	1
57	58	1
82	82	2
209	209	1
41	41	1
107	108	1
22	79	1
61	63	1
117	119	2
181	181	1
168	229	1
1	5	1
2	21	1
147	147	1
168	227	1
2	2	3
163	166	1
37	37	2
222	223	1
158	158	1
172	181	1
225	226	1
240	240	1
64	64	2
208	208	2
106	119	1
71	72	1
218	218	2
7	9	1
8	198	1
148	151	1
169	170	1
95	233	1
38	54	1
75	76	1
27	28	1
110	112	1
197	197	1
60	220	2
150	151	1
79	199	2
212	212	3
130	130	1
56	78	1
75	140	1
186	189	1
117	117	1
77	78	1
139	150	1
61	85	1
40	40	1
17	41	1
22	81	1
29	30	2
144	145	1
198	198	2
67	67	1
24	179	1
125	126	1
81	81	1
234	234	1
122	237	1
137	137	2
23	23	1
82	83	1
107	126	1
154	156	1
116	117	1
34	35	1
21	21	1
115	125	1
123	123	1
25	32	1
9	9	1
195	195	2
30	30	1
95	123	1
28	28	1
118	118	1
178	207	1
123	124	1
34	34	1
203	204	1
