33	74	1
78	79	2
108	109	1
11	32	2
8	120	1
12	13	1
95	96	2
29	29	2
95	95	4
18	100	1
114	114	3
135	135	3
3	3	7
14	14	2
73	73	3
29	30	1
108	110	1
73	93	1
129	130	2
10	10	1
84	84	2
26	26	1
112	113	1
136	136	3
124	125	1
18	32	1
96	96	4
116	123	1
20	20	3
0	124	1
111	112	1
117	117	4
120	122	5
102	102	3
139	139	3
132	132	1
71	73	1
22	22	1
134	134	5
86	99	1
112	118	2
121	122	2
10	15	1
101	101	6
111	111	4
75	98	1
9	9	2
94	95	2
24	25	1
101	103	1
131	132	2
84	85	3
108	108	1
129	129	5
114	116	2
83	111	1
106	106	2
72	73	1
21	22	3
92	92	6
24	24	4
79	79	3
128	128	4
37	37	2
134	138	1
90	91	3
103	103	4
126	126	8
0	0	1
115	116	1
129	138	2
77	78	1
130	130	4
139	140	3
127	127	2
17	114	2
119	119	2
109	113	2
35	35	3
26	27	1
6	6	6
81	82	3
77	77	2
71	71	6
86	88	2
23	24	2
72	72	3
28	78	1
28	31	3
17	18	1
6	33	2
131	131	3
87	88	1
83	84	2
89	90	2
13	14	2
87	87	3
73	74	2
23	23	5
113	115	2
132	133	1
97	98	2
0	1	3
74	75	1
5	37	2
94	94	1
21	27	2
110	111	1
128	129	1
11	22	1
120	120	8
76	76	3
121	121	3
82	82	3
105	105	2
14	36	1
28	28	1
93	93	1
112	112	1
80	86	1
1	2	4
117	118	1
133	134	1
12	19	1
25	25	6
25	89	1
118	118	3
27	27	1
11	12	2
96	97	1
99	99	1
2	2	5
98	98	2
83	85	1
8	8	2
86	86	3
88	123	1
75	104	1
85	118	1
124	124	3
137	137	2
34	34	2
116	121	3
79	84	1
15	22	1
83	83	3
15	15	2
100	126	1
0	79	1
11	16	1
71	126	1
138	138	2
79	92	1
117	119	1
85	85	1
33	33	3
32	33	1
29	32	1
101	108	1
113	113	1
82	84	1
107	108	1
140	140	4
115	115	1
18	19	1
86	115	2
4	5	2
98	100	1
81	81	1
32	32	1
113	121	1
88	89	1
7	8	2
73	81	1
11	11	1
8	21	1
5	6	1
119	120	1
92	112	1
125	125	1
26	29	1
18	18	1
79	88	1
84	92	1
116	117	1
28	29	1
76	123	1
2	15	1
74	74	1
25	32	2
91	93	1
122	124	1
97	97	1
103	104	1
5	5	1
20	21	1
36	36	2
91	122	1
19	19	1
67	82	1
75	115	1
104	104	1
86	124	1
30	30	1
76	77	2
75	75	2
34	38	1
80	80	1
101	102	1
14	15	2
16	16	2
78	103	1
133	133	1
103	122	1
27	29	1
109	109	1
89	91	1
91	110	1
91	91	2
88	90	1
7	12	1
4	6	1
99	101	1
78	106	2
102	103	1
22	24	1
28	104	1
105	106	1
123	129	1
19	103	1
98	101	1
1	4	1
114	121	1
75	126	1
130	131	1
17	17	1
74	77	1
122	122	1
12	14	2
36	37	1
27	28	1
