110	110	1
26	26	2
43	44	1
66	66	1
120	132	1
129	129	2
46	47	1
116	119	1
91	91	3
114	115	1
130	130	3
82	82	3
18	19	3
15	76	1
89	89	2
82	83	3
67	67	3
65	65	6
82	86	1
22	78	1
20	20	4
27	27	3
31	33	3
32	95	1
64	64	2
118	118	1
79	98	2
93	94	2
1	1	4
86	103	1
106	107	1
107	107	2
56	56	3
87	88	2
41	41	4
15	15	3
46	60	2
106	106	2
127	127	8
14	26	1
85	85	3
53	53	3
90	90	4
59	97	2
131	131	1
13	31	2
72	72	5
81	96	2
59	96	1
95	95	1
64	72	1
63	63	4
45	87	2
59	62	2
101	102	1
66	67	1
95	96	2
17	17	2
46	46	4
79	80	2
87	87	4
116	117	2
44	44	3
2	103	1
1	2	3
50	50	2
3	3	2
29	29	3
29	131	1
47	47	2
40	40	2
120	121	2
88	89	1
55	56	1
74	128	1
19	20	1
24	24	4
68	68	3
30	30	2
39	39	2
122	122	2
109	109	1
65	76	1
107	111	1
5	20	1
82	84	1
119	130	1
114	114	2
133	133	2
29	128	1
124	125	1
104	113	2
14	14	3
104	104	1
72	86	1
78	81	2
32	93	1
15	17	2
112	112	4
18	18	1
111	118	1
97	97	1
123	123	1
17	18	1
72	77	1
115	115	1
120	120	1
45	45	4
111	111	2
82	88	1
42	65	1
31	32	2
76	96	1
2	3	1
108	108	1
109	114	2
125	125	1
2	2	2
67	76	2
75	81	1
115	130	1
32	32	1
70	70	1
23	23	2
11	12	2
121	121	1
13	15	1
42	90	1
48	49	2
100	101	1
105	105	2
68	104	1
116	125	1
29	30	2
5	53	1
98	98	1
49	49	1
24	38	1
13	27	1
128	129	1
38	130	1
124	124	3
71	84	1
113	116	1
19	19	1
102	102	1
45	46	2
12	12	1
40	130	1
28	29	2
42	125	1
22	25	1
90	91	2
62	62	1
34	128	2
116	116	1
39	40	2
42	42	2
42	118	2
27	28	1
38	38	1
69	101	1
27	31	1
119	119	1
71	71	1
57	58	1
21	21	1
42	45	1
48	131	1
96	96	1
28	28	2
17	55	1
117	117	1
66	107	1
83	83	1
90	94	1
48	76	1
44	48	2
74	85	1
71	85	1
61	61	1
2	48	1
124	132	1
22	22	2
73	99	1
70	83	1
74	129	1
103	103	1
105	106	1
52	52	1
84	84	1
19	126	1
103	131	1
119	125	1
68	83	1
69	70	2
69	69	1
96	99	1
53	109	1
15	18	2
80	93	1
63	64	1
72	73	1
115	127	1
32	92	2
129	130	2
58	104	1
40	51	1
98	108	1
18	20	1
119	128	2
115	116	2
80	102	1
94	94	1
67	90	1
80	80	2
71	82	1
9	10	2
30	126	2
79	97	1
47	130	1
39	130	1
65	66	1
105	116	1
61	131	1
74	98	1
6	6	1
60	114	1
23	41	1
10	68	1
103	104	1
101	101	1
60	60	1
0	1	1
56	108	1
