8	8	5
126	126	3
63	63	3
98	104	1
33	35	1
52	53	1
22	22	2
69	69	1
85	88	1
75	86	1
58	58	1
37	37	7
27	38	1
73	73	3
136	137	2
125	133	2
79	111	1
11	11	6
134	134	2
0	1	2
131	131	1
31	31	3
40	40	4
115	137	2
79	79	2
32	75	1
103	103	2
24	24	2
50	53	2
79	108	1
29	29	7
20	20	6
74	74	4
49	101	1
60	60	4
23	23	1
108	108	1
27	28	1
87	87	3
109	109	4
56	56	4
99	101	2
80	80	3
76	76	1
32	32	3
75	76	2
137	137	1
1	2	2
96	98	3
67	68	1
2	2	1
27	27	2
52	52	1
100	100	3
41	96	1
99	102	1
135	135	2
1	1	6
100	101	2
57	58	1
51	52	1
144	144	1
68	97	2
63	64	1
118	118	4
38	38	2
28	29	1
122	122	4
91	92	2
107	128	1
96	96	3
25	25	2
28	42	1
104	105	1
6	6	3
90	90	2
133	133	1
55	55	2
30	33	1
74	75	4
9	9	2
113	113	2
22	23	3
118	119	1
80	109	1
30	30	1
102	103	4
51	51	2
58	129	1
120	120	3
65	66	2
117	120	1
28	28	2
128	130	1
83	83	2
110	111	1
101	101	2
78	78	1
21	43	2
125	125	6
112	112	1
88	88	2
5	5	2
53	76	1
35	35	1
81	81	2
132	132	1
142	142	1
117	117	3
82	95	1
0	0	2
10	10	2
105	106	4
121	123	1
9	10	2
8	20	1
39	39	1
37	53	2
77	77	4
76	86	1
61	61	1
83	94	1
10	11	2
65	65	2
14	16	1
48	48	2
14	50	1
13	13	4
4	14	1
50	50	2
41	41	3
140	140	2
131	132	1
18	18	4
33	33	1
89	90	1
21	42	1
33	59	1
39	65	1
105	105	2
73	74	1
106	108	2
84	84	3
116	121	1
49	86	1
97	98	1
93	93	2
71	71	3
107	111	2
36	36	1
26	26	1
21	21	1
89	89	3
133	134	1
98	98	1
95	97	1
135	137	2
94	94	1
42	42	2
19	19	1
14	14	3
97	140	1
128	128	2
34	60	1
118	136	1
116	116	2
119	119	2
70	70	3
131	140	1
120	121	1
141	141	2
64	64	1
4	4	1
82	94	1
17	19	1
15	15	1
62	63	1
115	115	2
121	121	1
114	114	1
49	50	1
7	17	1
101	105	2
39	40	1
80	81	1
53	53	5
72	72	3
122	123	1
4	37	1
120	126	1
66	66	2
85	104	1
123	124	1
127	130	1
29	41	1
35	74	1
106	106	1
83	86	1
97	97	2
37	51	1
104	115	1
71	90	1
86	94	1
33	36	1
36	52	1
113	114	1
3	3	1
77	111	1
137	138	1
138	138	1
55	56	1
99	99	1
