209	209	2
152	182	1
31	31	3
6	6	2
49	150	1
221	228	1
45	115	1
66	101	1
222	222	3
160	160	2
203	204	1
219	222	1
28	31	1
234	234	2
189	193	1
216	217	1
109	109	3
14	15	1
112	114	2
27	27	2
239	239	1
84	84	1
50	51	1
101	101	1
54	54	1
76	76	1
33	38	1
238	238	4
2	2	1
105	105	3
37	37	3
207	207	5
116	116	2
227	227	4
88	88	2
24	24	3
33	33	3
230	232	1
154	154	3
80	197	1
58	59	1
223	223	1
118	155	1
87	87	2
21	22	1
105	107	1
52	52	2
198	201	1
163	163	5
220	220	2
241	241	2
67	67	1
93	108	1
247	248	1
40	40	2
8	25	1
67	68	1
35	36	1
189	189	2
179	226	2
233	233	3
53	53	2
213	213	1
100	100	1
57	66	2
0	63	1
97	97	1
73	99	1
235	235	1
169	182	1
171	171	1
225	225	2
73	97	1
164	165	1
60	65	1
160	161	1
180	186	2
226	226	1
57	58	1
156	156	1
192	195	2
92	92	1
62	62	1
22	38	1
240	241	2
110	110	2
75	86	2
12	29	1
112	118	1
222	224	2
15	15	2
206	209	1
121	149	1
176	176	2
51	156	2
48	152	2
48	159	1
163	175	1
204	204	1
80	81	1
34	35	2
41	41	2
71	71	1
245	245	4
115	115	1
168	168	3
146	147	1
231	231	2
184	185	2
62	157	1
3	3	1
180	184	1
214	214	2
7	7	2
73	73	4
172	172	3
196	196	2
118	118	3
224	235	2
65	65	2
174	178	1
178	203	1
82	83	2
55	55	2
167	167	2
159	159	2
90	90	2
163	186	1
43	43	5
181	182	1
210	223	1
230	230	1
55	183	1
88	91	2
1	1	1
203	203	2
29	29	2
19	19	1
221	221	2
99	99	2
166	167	2
185	186	2
205	205	1
186	186	1
64	64	4
84	90	1
103	114	2
66	84	1
157	157	2
199	245	2
194	195	1
103	103	1
8	26	1
35	35	2
50	50	1
214	215	1
9	9	2
51	52	1
153	153	3
22	22	2
43	44	2
240	240	1
117	188	1
159	222	1
246	246	1
215	215	1
92	166	1
219	239	2
232	232	2
103	107	1
145	231	1
13	35	2
75	75	1
170	170	1
80	82	1
5	5	3
48	48	2
110	111	1
80	80	2
20	20	2
11	11	2
45	45	1
25	25	2
34	34	2
208	208	2
94	94	2
166	169	1
233	246	1
114	115	2
202	226	1
176	221	1
197	198	1
159	164	1
155	155	1
196	231	1
81	85	1
168	185	1
88	117	1
50	53	1
168	234	1
219	219	1
144	145	2
178	178	2
175	220	1
27	35	1
171	220	1
170	217	1
186	191	1
228	228	1
112	182	1
8	9	3
152	157	1
114	114	2
182	187	1
189	237	1
164	164	2
157	172	1
67	100	1
150	150	1
42	186	1
72	72	1
100	119	1
200	201	1
6	26	1
223	236	1
191	191	1
25	224	2
116	117	1
190	190	2
49	92	1
232	247	1
66	66	2
201	201	1
187	188	1
204	205	1
108	109	1
9	10	1
180	180	2
113	113	1
99	100	1
30	32	1
195	195	2
177	177	2
85	85	1
57	71	1
19	31	1
213	214	1
78	78	1
162	162	1
105	144	1
181	181	1
121	121	1
198	217	2
25	244	1
169	220	1
151	151	1
77	77	1
88	119	1
51	51	2
234	235	1
53	68	1
78	118	1
98	98	1
60	83	1
161	166	1
57	57	1
177	178	1
86	86	1
8	8	1
229	229	1
199	246	1
246	247	1
32	33	1
55	57	1
68	68	1
212	226	1
192	192	1
37	64	1
60	76	1
17	31	1
202	202	1
10	31	1
199	199	1
43	166	1
30	31	1
39	39	1
20	21	1
176	245	1
2	24	1
53	182	1
7	11	1
200	200	1
221	222	1
