172	172	2
145	145	4
62	63	2
35	37	2
124	125	1
126	136	2
160	163	1
143	144	1
63	63	1
43	44	2
98	98	3
2	2	2
107	107	2
55	55	2
47	47	2
57	57	4
5	5	2
141	163	2
104	104	1
0	1	1
78	78	4
8	8	2
58	58	4
177	178	1
32	32	3
25	25	2
12	12	6
96	99	1
94	95	1
10	10	1
37	37	2
76	77	4
109	109	3
149	149	1
25	27	1
124	124	4
15	15	1
161	161	2
24	27	1
97	97	3
115	115	1
28	66	1
65	139	1
126	126	1
87	169	1
152	152	1
113	113	1
177	177	5
89	89	3
59	61	1
52	53	3
186	187	2
150	150	2
101	101	5
142	142	4
160	160	2
86	87	2
35	36	1
91	92	2
24	24	3
72	129	1
7	8	1
154	154	6
95	168	2
27	128	2
129	186	2
159	159	5
114	114	2
111	111	4
121	121	1
80	80	1
182	182	3
121	124	1
102	102	2
190	190	2
152	153	2
22	29	1
26	27	1
105	106	2
77	84	2
12	14	1
82	84	1
17	18	1
15	42	2
38	38	2
178	178	1
76	76	3
71	71	5
26	32	1
173	173	4
151	164	2
174	174	2
43	115	1
7	7	2
110	110	2
132	132	1
181	181	3
175	175	1
130	131	3
62	62	2
27	30	3
42	42	3
17	26	3
58	121	3
75	133	1
140	140	2
99	99	2
116	116	1
94	94	2
119	119	1
158	158	1
27	27	1
65	77	1
3	7	1
79	79	1
4	92	2
75	75	1
135	136	4
105	105	1
13	14	2
77	78	1
96	97	1
185	185	2
68	68	1
100	100	2
170	181	1
136	136	2
15	44	1
82	89	1
43	43	1
98	143	1
119	120	1
108	109	1
32	33	1
101	102	1
141	141	2
153	155	1
4	4	1
16	16	1
75	77	1
23	24	2
8	37	1
170	174	1
13	13	2
117	117	1
72	72	2
72	73	1
96	96	2
158	167	1
154	180	2
108	108	1
122	123	2
165	165	2
86	86	1
160	188	1
166	167	1
123	123	1
147	148	1
146	147	1
79	106	1
65	104	1
128	142	1
144	144	1
139	139	2
64	128	2
53	53	3
187	189	1
184	185	2
106	106	2
18	18	1
90	91	1
162	162	1
39	39	1
82	82	1
44	44	1
68	111	1
167	169	2
147	149	1
148	148	1
143	143	1
163	167	1
91	91	1
0	0	1
24	48	2
26	26	2
21	21	1
102	103	1
153	153	1
169	169	1
146	146	1
156	156	2
80	81	2
33	33	1
112	112	3
26	123	1
83	83	1
84	84	1
112	113	1
47	48	1
74	78	1
68	74	1
149	150	1
135	135	2
16	24	1
79	83	2
114	115	2
21	27	1
137	137	1
109	110	1
47	87	1
88	88	2
136	137	1
86	128	1
12	13	1
25	76	1
66	66	1
168	169	1
107	108	1
116	117	1
3	40	1
163	163	1
150	151	1
171	171	1
34	34	2
78	140	1
71	73	1
40	40	2
31	47	1
85	87	2
25	40	1
14	14	1
103	104	1
5	23	1
189	190	1
183	184	1
64	64	1
71	138	1
144	150	1
155	155	1
60	60	2
130	130	1
27	29	1
151	151	2
7	15	1
38	39	1
22	34	1
114	160	1
3	3	1
35	111	1
22	22	1
129	140	1
77	148	1
35	44	1
46	46	1
26	40	1
17	20	1
56	56	1
176	176	1
55	56	1
146	184	1
173	174	1
41	41	1
140	148	1
77	77	1
