203	203	5
154	156	1
51	51	2
41	41	5
244	244	7
82	82	6
35	35	3
56	58	1
156	156	3
9	9	6
4	18	2
109	109	8
195	196	1
225	225	8
216	216	7
189	227	1
16	16	4
27	207	1
104	108	1
196	216	2
184	184	5
235	235	7
179	206	1
228	228	4
183	183	5
51	52	1
180	184	1
49	64	1
166	166	6
115	115	3
234	244	1
189	190	1
211	211	4
33	95	2
151	151	7
212	226	1
28	30	1
18	18	6
60	60	6
221	225	1
49	50	1
8	8	4
7	187	1
167	168	3
22	23	2
10	10	6
10	32	1
213	213	5
158	158	2
118	119	1
100	100	3
182	182	9
37	37	5
89	89	6
112	169	1
116	116	4
90	90	4
201	213	2
162	162	4
21	23	4
11	11	8
231	231	8
113	120	1
152	152	4
101	101	4
212	212	6
199	199	2
210	210	5
186	200	1
52	100	1
38	39	1
78	79	2
15	16	1
24	33	1
202	202	5
185	199	3
92	92	4
65	65	8
74	74	2
84	84	5
165	179	1
77	77	5
28	28	2
42	42	4
213	214	2
241	242	2
200	200	7
25	25	3
22	22	6
238	239	3
245	245	4
59	59	4
224	224	3
222	225	3
7	7	5
87	88	4
96	96	1
111	111	9
119	119	5
185	185	4
58	58	6
70	71	1
19	19	7
230	230	7
205	205	6
242	242	4
111	168	2
186	186	3
181	181	4
55	56	3
209	209	5
48	49	1
107	107	3
61	62	1
216	218	1
102	102	3
54	54	4
63	82	2
175	175	5
73	73	3
56	170	1
28	29	1
198	217	3
64	65	2
214	214	6
61	94	2
95	95	3
24	24	2
29	29	1
118	118	4
241	241	9
87	87	3
5	5	3
119	169	1
204	204	9
208	208	3
11	234	1
61	61	4
189	221	1
206	206	2
234	234	4
55	170	1
21	21	9
30	30	7
53	54	1
218	219	1
233	233	7
11	30	1
44	44	5
187	187	4
43	52	1
194	194	2
12	12	5
85	85	6
221	222	4
246	246	6
31	31	4
118	120	1
55	55	5
159	159	12
189	189	5
48	48	5
91	91	2
186	188	1
25	37	1
22	35	1
207	207	1
20	20	5
192	192	6
57	57	3
219	219	3
158	159	3
104	104	2
168	169	1
2	2	1
44	45	1
14	19	1
223	226	3
34	34	6
25	247	1
8	145	1
108	108	4
14	14	5
220	220	8
224	225	1
3	12	1
40	40	2
57	58	3
52	52	3
36	37	3
62	62	5
113	113	5
201	201	3
165	165	3
45	110	1
197	197	2
24	25	2
70	70	4
229	230	1
154	154	3
30	31	1
168	168	4
183	226	1
105	105	1
153	153	3
247	248	3
78	81	1
234	235	5
33	59	1
170	176	2
53	53	2
90	91	1
68	70	1
115	162	1
217	217	2
32	33	1
117	120	1
166	167	4
201	207	1
155	155	6
15	15	5
226	227	3
74	75	2
155	163	1
169	169	3
199	200	3
192	194	1
173	173	7
56	57	2
242	244	1
56	56	1
67	67	6
169	170	2
94	94	4
185	239	1
71	150	1
222	222	3
71	71	3
160	160	2
45	45	6
237	242	2
211	212	3
156	159	2
98	98	4
47	59	1
23	23	5
198	198	9
176	177	1
6	6	2
225	229	1
98	100	2
239	239	1
103	103	1
156	157	1
237	237	3
229	229	3
191	191	1
156	162	2
64	84	1
193	193	4
49	49	2
187	188	2
43	207	1
95	98	1
171	171	5
159	161	1
178	178	1
75	75	3
38	47	1
50	88	1
245	246	2
247	247	3
47	47	9
4	4	2
184	244	1
27	27	2
236	236	1
192	220	1
34	48	1
68	68	8
224	226	1
184	224	2
14	15	1
172	174	1
51	101	3
48	50	3
145	145	1
119	146	2
72	72	2
66	66	2
170	170	4
19	22	1
107	108	1
175	176	2
223	223	6
248	248	3
67	68	2
172	173	2
221	221	4
7	93	3
79	80	1
200	201	1
24	29	1
211	213	1
27	247	1
39	39	3
169	172	1
28	32	1
71	78	1
172	180	1
231	233	1
188	228	1
17	17	2
179	179	2
7	8	2
240	240	2
97	99	1
113	115	1
14	144	1
114	152	1
146	170	2
199	213	1
51	55	1
81	81	3
187	222	1
161	161	1
117	118	1
174	174	1
243	243	3
172	172	3
164	177	1
97	97	4
51	109	1
38	38	1
192	209	1
110	110	5
181	182	2
168	172	1
64	64	1
54	56	1
195	195	2
10	11	1
157	157	2
231	232	1
59	60	2
226	226	1
164	164	3
4	6	2
79	79	1
77	78	2
62	88	1
143	164	1
177	177	2
216	240	1
190	220	1
224	227	1
8	35	1
208	209	3
70	84	1
94	95	1
112	112	4
11	16	1
66	67	3
119	120	1
49	63	1
92	95	2
203	204	2
93	93	3
3	3	1
63	65	1
33	144	1
72	73	1
196	209	1
75	76	1
149	149	1
198	199	1
86	87	2
57	60	1
167	167	1
210	211	2
19	25	1
171	172	2
63	92	1
65	79	1
18	41	1
62	82	2
31	55	1
101	104	1
152	153	1
43	43	4
76	76	1
233	234	2
106	107	1
235	236	2
161	162	2
33	33	3
78	78	2
18	42	1
80	80	2
117	117	4
194	219	1
92	93	1
188	188	2
162	163	1
82	85	1
180	180	3
114	114	3
231	240	1
239	240	1
185	225	1
220	245	1
30	247	1
27	28	1
234	236	1
188	189	1
227	227	2
156	161	1
9	29	1
64	247	1
63	63	2
173	174	1
215	217	2
93	94	2
0	0	1
54	55	1
67	236	1
47	109	1
197	209	1
79	81	1
184	209	1
65	66	1
182	244	1
236	243	1
71	86	1
36	36	1
200	213	1
222	224	1
183	231	1
99	99	1
184	200	1
178	179	1
238	238	1
216	239	1
70	78	1
242	243	1
26	28	1
73	75	1
221	223	1
108	109	1
231	234	1
60	99	1
220	225	1
57	245	1
108	185	1
220	229	1
163	179	1
159	160	1
60	61	1
79	82	2
32	32	1
69	72	1
6	12	1
154	155	1
81	82	1
84	200	1
193	219	1
48	79	1
80	81	1
149	164	2
170	177	1
62	63	1
184	241	1
15	28	1
