188	188	1
22	22	2
118	118	2
173	173	3
60	80	1
3	9	1
77	110	1
116	118	2
97	97	1
92	133	2
138	149	1
121	159	1
35	36	1
101	102	1
30	74	1
143	143	3
180	185	1
150	150	1
5	6	1
187	190	1
165	166	1
137	138	1
56	85	1
43	43	3
125	125	4
64	66	1
161	161	1
152	152	2
39	48	1
187	188	1
123	123	1
101	101	1
57	60	1
11	14	2
44	44	2
5	9	1
53	63	1
115	116	3
122	122	2
11	11	2
108	108	1
125	126	3
178	178	1
41	41	4
29	31	2
66	66	2
88	88	1
184	184	2
187	187	2
40	40	2
175	175	1
20	20	2
171	171	2
11	12	2
73	74	1
155	155	3
32	32	3
57	57	2
169	170	2
136	150	1
165	165	2
10	27	1
93	94	2
82	82	3
37	37	1
58	104	1
12	16	1
22	23	3
34	36	1
154	154	1
101	113	1
107	153	1
81	81	2
120	181	2
28	28	1
110	110	3
117	118	3
15	16	1
159	159	1
6	6	3
90	115	1
53	55	1
13	14	3
161	180	1
100	100	1
26	26	1
162	165	1
143	149	1
121	130	1
21	49	1
117	117	1
8	8	1
47	80	1
79	80	1
116	119	1
33	33	1
48	48	1
23	24	1
67	68	1
183	183	2
14	16	2
60	90	1
174	183	1
147	148	1
66	112	1
188	189	2
134	190	1
173	174	1
4	4	5
3	3	3
85	85	2
52	52	1
151	151	1
39	39	3
96	97	1
183	184	1
53	88	1
176	176	1
24	25	1
10	10	2
94	96	1
64	64	3
189	189	1
140	140	2
61	66	1
47	81	2
137	137	2
59	59	2
107	107	1
36	83	2
25	25	4
66	81	1
103	103	2
64	94	1
84	85	2
29	29	1
71	79	1
38	38	1
91	98	1
71	71	3
14	14	1
27	28	1
17	21	1
43	60	1
114	115	1
175	188	1
180	180	1
112	114	1
2	3	1
109	109	2
134	135	1
12	12	2
23	23	1
17	17	2
99	99	3
68	71	1
156	156	1
138	170	1
138	138	1
30	30	2
147	147	2
5	5	1
15	24	1
160	160	1
112	113	1
71	73	1
42	42	1
124	124	2
23	43	1
69	72	1
87	87	1
190	190	2
75	76	1
9	30	1
169	178	1
82	83	1
145	172	2
92	93	2
126	126	1
133	166	1
116	116	1
100	101	2
164	165	1
119	166	1
88	90	1
188	190	2
79	79	2
7	8	1
182	182	3
93	93	2
60	89	1
137	139	2
47	47	2
164	169	1
21	22	1
56	56	1
123	157	1
78	83	1
131	132	1
2	99	1
80	81	1
105	105	2
91	114	1
9	9	2
177	177	1
12	13	1
124	128	2
139	149	1
115	117	1
90	90	1
114	117	1
140	177	1
83	83	1
162	171	1
129	181	1
146	147	1
170	186	1
10	11	1
185	185	1
156	157	1
102	102	1
158	158	1
131	181	1
37	38	1
184	189	1
153	153	1
43	101	1
144	144	1
63	107	1
160	169	1
85	86	1
104	104	1
130	181	1
115	157	1
76	76	1
54	55	1
