40	40	3
64	96	1
31	77	2
100	108	1
111	115	1
36	36	1
4	85	1
125	128	2
3	17	1
86	86	2
14	73	3
168	169	1
169	169	4
172	172	1
153	153	1
39	39	3
41	41	3
95	95	4
139	139	3
125	127	1
44	44	2
66	67	1
8	57	2
45	45	1
131	132	1
89	89	2
98	101	2
37	37	1
80	81	1
60	65	2
3	3	5
55	80	1
158	159	3
93	134	1
10	14	1
106	108	2
3	4	3
25	27	1
30	140	2
142	164	1
94	94	2
176	176	5
22	62	2
108	140	1
78	79	1
110	113	1
167	167	3
8	8	5
127	127	3
76	77	2
43	53	1
18	18	1
129	129	2
6	6	1
115	115	4
41	56	2
136	136	3
140	140	2
114	147	1
63	63	1
149	150	1
33	33	2
148	165	1
158	158	2
159	159	3
67	67	2
30	43	1
111	111	3
50	51	2
74	74	1
13	13	2
122	125	2
15	15	2
43	85	1
81	81	3
29	29	5
121	130	1
44	120	1
122	122	3
107	129	2
136	158	1
10	16	1
17	24	1
168	168	1
82	116	1
6	10	1
23	23	3
117	117	2
82	117	1
161	161	2
25	28	1
50	50	1
14	14	1
9	9	4
75	77	1
53	53	1
161	163	1
148	148	1
43	43	1
139	158	1
58	61	1
58	58	2
4	6	1
141	141	3
11	12	2
66	79	1
3	20	1
77	77	4
138	138	4
105	105	2
85	116	1
172	173	1
104	104	3
147	147	2
153	159	2
8	15	1
4	39	1
128	128	4
162	162	2
123	125	1
171	171	2
106	106	1
91	150	1
95	108	2
77	141	1
112	112	3
19	23	2
170	170	2
50	113	1
72	76	1
126	126	3
66	66	4
60	61	2
3	35	3
12	23	1
157	158	1
123	123	1
73	73	2
24	25	3
18	53	1
4	4	3
122	149	1
125	125	1
11	16	2
21	21	1
21	23	1
143	143	4
151	168	1
71	71	1
144	144	2
149	149	3
28	45	1
150	150	3
102	103	1
160	160	1
63	98	1
175	175	2
6	9	1
144	164	1
173	174	1
30	30	1
45	46	2
0	0	3
118	118	3
104	106	1
162	170	1
6	35	1
124	124	3
107	107	1
136	157	1
117	126	1
82	89	1
83	97	2
76	76	1
12	42	2
154	154	1
67	72	1
61	61	1
74	135	1
163	163	2
51	51	1
10	26	1
60	60	1
117	120	1
65	65	2
52	52	1
112	115	1
87	87	2
21	92	1
116	116	1
61	95	1
153	154	1
8	29	1
107	115	1
52	61	1
22	22	1
24	27	1
76	133	1
53	62	1
75	75	1
100	129	1
120	120	1
37	54	1
79	95	1
82	82	1
55	55	1
100	134	1
62	62	1
83	98	2
146	146	4
5	5	3
174	174	1
30	49	1
92	92	1
28	28	2
26	28	2
145	145	3
17	28	1
165	165	1
110	110	2
59	79	1
113	114	2
134	134	1
117	119	1
93	93	1
102	126	1
11	11	1
25	25	1
67	76	1
140	147	1
105	143	1
105	121	1
121	121	1
33	39	1
32	32	2
88	88	1
7	35	1
83	83	2
78	78	1
1	3	1
68	68	1
104	105	1
152	154	1
155	166	1
19	19	1
177	178	1
132	132	1
59	78	1
98	115	1
155	155	1
137	137	1
114	114	1
1	2	1
111	127	1
54	54	1
72	72	1
9	26	1
