90	93	1
8	8	1
71	71	1
0	0	4
113	113	2
62	100	1
98	98	1
104	104	2
90	90	4
77	77	1
33	33	8
123	123	5
129	129	2
67	67	4
94	94	1
41	42	1
108	109	2
107	114	1
131	131	3
63	64	1
62	92	1
116	116	2
108	108	2
3	3	3
73	73	1
125	131	1
24	25	1
75	129	2
99	99	4
75	75	3
103	103	2
77	78	3
50	50	2
57	57	2
54	54	3
84	89	1
88	88	3
59	59	2
40	40	3
118	118	1
48	55	1
41	41	2
81	85	1
75	76	1
114	115	1
55	76	1
23	23	2
72	72	2
91	91	1
78	78	2
85	85	3
25	25	2
121	121	3
121	122	1
24	86	2
69	114	1
53	104	1
6	6	2
93	93	1
94	113	1
96	97	1
79	127	2
15	16	1
14	40	1
80	81	3
109	109	2
97	97	2
65	65	1
30	32	1
61	84	1
24	39	1
58	59	1
56	56	4
45	103	1
26	54	1
15	15	1
126	128	1
88	90	1
2	3	1
123	124	1
128	129	1
131	132	2
87	127	1
29	29	3
6	13	1
91	92	2
17	17	1
21	22	2
16	16	1
16	17	1
12	12	3
55	55	1
23	24	1
120	120	3
100	102	1
118	124	1
7	57	1
95	96	1
80	92	1
58	58	1
76	79	1
39	117	1
106	110	1
38	39	1
42	63	1
112	112	1
64	70	1
4	4	1
122	125	1
20	20	1
64	65	1
31	99	1
125	126	1
87	88	2
45	101	1
122	122	1
46	58	2
50	52	1
97	98	2
49	104	1
13	13	1
74	74	1
100	107	1
61	61	1
42	64	1
20	57	2
99	100	1
8	22	1
70	70	1
26	26	1
115	115	1
43	43	1
71	116	1
56	76	1
79	79	2
111	111	1
59	60	1
43	88	2
22	22	1
67	68	1
1	1	2
49	92	1
80	80	1
51	51	1
15	51	1
47	83	1
33	77	1
28	28	1
128	128	2
27	28	1
43	60	1
52	119	1
74	79	1
29	30	2
47	63	1
27	27	1
10	10	2
94	111	1
3	50	1
100	100	1
47	48	1
101	132	1
132	132	1
82	82	1
53	53	1
78	128	1
83	85	1
92	92	1
42	43	1
22	39	1
49	49	1
127	127	1
117	117	1
30	61	1
6	10	1
19	20	1
32	107	1
21	21	1
73	108	1
105	110	1
125	125	1
