126	128	2
27	27	3
13	13	5
63	63	2
59	59	3
50	50	2
89	119	1
3	3	2
41	41	2
5	13	1
13	40	1
104	106	1
61	61	3
95	95	2
24	24	3
129	129	2
109	109	3
12	12	3
25	26	1
18	25	2
10	10	2
32	32	2
62	62	2
93	93	5
47	47	2
100	101	2
17	17	1
88	88	3
78	82	1
60	62	1
82	82	4
124	124	2
70	70	1
44	44	1
2	2	7
51	51	2
104	107	1
38	38	1
96	124	1
1	11	2
115	115	2
125	125	3
46	62	1
95	106	1
68	68	2
78	79	2
73	73	2
98	129	1
116	118	2
90	90	2
123	124	2
97	98	3
69	69	3
56	56	4
48	49	1
109	113	2
2	115	1
16	38	1
16	16	1
86	86	4
83	83	2
57	57	1
121	121	1
41	71	1
64	64	4
76	76	1
62	64	1
52	52	3
58	58	3
64	65	1
80	80	1
38	39	1
77	78	1
1	1	1
67	77	1
3	109	1
19	19	2
3	4	1
112	112	2
11	11	2
76	78	3
15	15	3
60	60	1
81	127	1
127	127	1
9	9	2
5	5	4
45	45	3
4	4	2
39	39	4
23	28	1
128	128	5
108	108	1
126	127	2
41	42	1
88	89	1
79	102	3
89	90	1
97	97	4
58	59	1
6	6	2
54	54	4
70	73	1
106	106	1
93	94	2
107	107	1
5	10	1
65	65	1
81	84	2
2	4	1
42	47	1
102	102	2
46	46	3
29	30	1
80	81	1
75	75	2
123	123	1
105	105	1
48	48	2
14	15	1
92	92	1
100	100	1
40	40	2
8	8	1
87	87	3
40	70	1
14	39	1
84	84	1
122	122	2
16	17	1
18	18	2
53	76	1
85	86	1
117	117	1
28	74	1
79	92	1
61	62	1
14	94	1
29	69	1
38	65	2
71	72	1
27	68	1
131	131	1
54	56	1
101	102	1
86	88	1
98	99	2
20	20	1
31	32	1
26	26	2
112	131	1
69	87	1
96	106	1
6	117	2
74	74	1
111	111	1
7	7	1
126	126	2
102	103	1
67	67	2
95	96	1
118	118	1
128	130	1
53	53	1
30	30	1
15	17	1
77	77	1
10	131	1
87	97	1
105	107	1
41	59	1
91	91	1
96	96	1
40	41	1
52	53	1
133	133	1
26	116	1
120	120	1
2	3	1
82	84	1
113	113	1
