93	93	5
13	15	2
107	107	5
43	43	2
96	96	1
12	13	3
106	106	4
75	75	5
89	90	1
109	109	2
77	78	2
102	102	4
11	11	5
99	106	3
128	133	1
16	16	1
132	132	3
70	70	1
65	85	1
79	129	1
21	29	2
64	64	3
4	4	6
123	123	1
5	5	4
77	77	3
115	115	3
20	23	1
21	28	1
107	109	1
12	12	2
34	34	4
31	43	1
61	63	1
92	92	1
117	117	2
92	132	1
73	73	2
78	78	4
5	6	2
55	55	2
31	31	7
35	35	3
7	7	1
67	67	2
95	95	2
65	75	3
80	127	1
105	106	2
57	57	2
8	9	1
74	75	1
57	58	1
51	96	1
28	28	3
35	68	1
111	123	1
97	99	1
120	120	4
112	112	1
95	100	1
131	131	2
55	79	1
98	98	1
8	132	1
75	81	1
31	60	1
108	109	2
111	111	7
6	6	3
115	116	1
6	7	1
45	47	1
88	127	1
122	122	3
38	40	1
99	101	2
58	58	2
13	77	1
72	72	2
74	74	2
124	124	1
28	29	1
18	18	2
129	129	2
121	121	1
30	30	1
134	134	2
83	83	1
120	121	1
130	130	1
126	126	2
32	32	1
42	42	3
10	10	5
69	120	1
61	67	1
37	38	1
82	83	1
60	94	1
24	26	1
129	133	1
62	62	2
133	134	1
18	63	1
100	100	4
75	76	1
12	44	1
46	125	1
19	19	2
13	84	1
68	121	2
39	39	2
102	128	1
94	94	2
114	114	3
88	88	1
1	1	1
77	85	1
66	66	1
121	128	1
13	91	3
123	128	1
82	128	1
17	17	1
90	92	2
67	94	1
63	64	1
118	119	2
7	13	2
76	107	1
103	104	1
34	35	1
62	66	2
65	118	1
59	59	5
106	122	1
125	125	2
13	13	6
36	36	2
33	33	2
119	119	2
93	96	1
106	121	1
112	113	1
4	8	1
17	18	1
113	113	2
82	133	1
84	115	1
48	48	1
50	50	2
18	19	1
71	71	1
10	46	1
27	27	2
64	66	1
95	101	1
95	96	1
12	17	1
85	85	1
76	76	1
116	116	3
61	61	2
76	77	1
101	101	1
82	82	2
3	3	1
124	125	1
65	65	2
75	78	1
41	42	1
99	99	1
0	2	1
20	20	1
131	133	1
86	86	1
14	14	1
72	73	1
68	69	1
87	87	1
24	39	1
86	111	1
9	9	1
33	42	1
128	128	1
23	23	1
60	60	1
44	44	1
63	63	1
44	45	1
91	104	1
97	103	1
73	94	1
24	24	1
61	62	1
0	1	1
