166	166	2
31	69	3
53	55	1
95	96	3
49	49	8
119	122	2
190	190	5
70	70	5
116	117	4
13	13	8
101	113	1
177	192	1
113	113	8
48	49	2
67	67	3
31	31	6
17	17	5
73	98	2
43	43	10
133	133	10
71	71	2
110	110	3
171	171	5
1	1	5
26	26	4
169	178	1
192	192	6
179	179	5
54	54	3
123	123	5
62	62	1
127	127	8
71	72	2
60	63	1
45	45	6
101	101	7
108	108	3
169	169	7
11	11	7
186	186	9
157	157	5
96	98	2
34	34	3
22	30	1
178	178	9
196	196	4
23	23	7
5	5	8
51	51	5
3	3	4
32	32	6
168	169	2
174	181	3
107	107	9
28	123	1
41	161	1
61	64	1
118	121	2
117	117	4
169	170	2
79	80	2
149	158	2
3	28	1
14	14	6
68	68	8
127	130	1
183	195	1
81	81	2
44	48	1
150	151	2
185	185	10
148	179	1
165	165	4
26	28	6
109	110	1
168	168	9
176	187	3
99	173	2
102	147	1
115	162	1
175	180	2
39	39	7
136	136	3
162	170	1
38	38	4
73	73	6
119	119	3
149	149	3
12	13	1
44	159	1
151	169	1
183	183	10
129	134	1
126	160	1
142	142	3
63	63	6
172	172	5
81	82	1
15	33	1
146	146	4
118	118	3
129	129	5
115	116	2
161	161	6
75	75	3
125	126	1
130	130	3
152	152	4
76	77	2
9	9	5
31	67	1
143	143	3
71	135	2
58	59	4
125	127	1
193	193	5
69	125	1
73	80	1
134	134	4
39	40	4
48	48	6
4	15	1
115	115	3
182	182	6
175	175	5
127	128	1
76	76	7
121	121	5
147	147	1
159	167	1
60	66	1
2	76	1
153	166	2
145	151	1
179	181	1
62	63	3
157	158	2
73	78	1
119	120	3
165	166	5
163	175	2
24	24	6
116	116	5
72	72	11
170	170	9
171	182	1
109	109	6
57	58	1
192	193	2
100	101	3
194	194	9
139	139	2
8	8	6
59	59	3
180	180	3
89	89	3
2	2	5
25	26	1
0	75	1
10	10	4
132	132	3
167	167	3
30	34	1
61	61	7
62	65	1
83	83	3
71	111	3
3	6	1
56	57	3
85	85	5
87	87	1
64	74	1
100	126	1
51	61	1
122	123	1
10	40	1
39	98	1
11	20	2
60	60	5
173	173	2
44	45	2
152	153	2
79	86	3
187	187	3
103	103	3
33	33	5
162	162	2
4	5	2
30	30	4
112	112	2
64	120	1
28	28	2
69	69	8
58	70	2
70	73	1
55	62	1
134	158	1
7	44	1
47	47	3
101	163	1
155	155	6
46	48	1
140	140	1
159	192	2
60	113	2
79	79	4
35	80	1
74	82	1
191	191	8
133	134	1
109	161	1
120	120	7
184	184	7
0	166	2
124	124	4
116	173	1
173	175	1
43	44	2
149	152	1
132	136	2
67	71	1
95	95	3
50	50	5
156	156	4
105	110	1
180	185	1
115	177	3
57	57	7
160	160	1
8	56	2
19	19	6
193	194	2
3	27	1
122	122	7
58	126	2
167	168	1
27	27	4
102	175	1
128	128	6
46	46	10
52	52	6
131	132	2
0	1	3
16	18	1
41	41	3
66	121	1
36	83	1
147	157	2
55	55	2
11	13	1
82	82	6
58	58	1
22	24	2
150	150	3
67	68	3
16	16	3
103	104	2
65	65	3
104	104	3
98	172	2
32	39	1
191	192	1
29	29	7
53	197	2
63	67	2
115	192	1
99	99	2
77	77	5
111	111	3
101	142	1
48	142	1
42	42	10
94	164	1
110	164	1
36	99	1
66	66	2
75	77	1
11	197	1
112	113	1
177	191	1
110	161	1
130	155	2
100	100	8
157	187	1
98	98	5
195	195	1
174	175	2
28	83	2
20	20	6
149	157	3
59	61	1
94	103	1
40	40	4
56	56	5
3	5	1
189	189	6
175	176	2
177	178	4
67	161	2
57	66	1
78	82	1
129	139	1
50	140	1
102	104	1
126	127	1
45	46	3
197	197	1
65	66	2
105	105	5
159	159	6
86	86	5
56	67	1
132	133	2
154	154	5
18	21	1
31	79	1
94	95	2
141	142	2
0	0	8
5	29	1
37	79	1
167	187	1
74	99	1
163	176	2
100	155	2
24	79	1
173	174	1
171	189	1
82	83	1
81	94	1
151	152	1
40	42	1
133	140	1
59	173	1
131	131	2
70	74	1
100	106	2
12	12	3
32	88	1
118	119	2
102	103	2
138	138	6
10	44	1
142	178	1
11	45	1
144	144	3
12	84	1
97	97	1
161	177	1
96	96	4
62	66	1
182	184	1
76	146	1
15	18	1
106	107	2
14	19	1
122	194	1
4	4	4
177	177	2
71	113	1
37	61	1
24	74	1
15	15	4
171	186	1
24	27	1
84	155	1
96	106	1
163	174	1
54	65	1
141	141	5
83	109	2
131	187	2
95	97	1
39	97	1
16	124	1
174	174	5
181	181	2
37	37	2
126	126	4
80	86	2
17	20	2
110	111	2
70	111	2
110	171	1
44	44	3
145	174	1
193	195	1
101	102	1
42	179	1
187	188	1
61	118	1
61	78	1
66	78	1
102	102	3
155	167	1
8	9	1
188	188	3
94	94	2
173	179	1
144	146	1
70	71	2
3	34	2
99	107	1
148	150	1
155	158	1
45	53	1
107	115	1
140	141	2
147	148	2
37	38	2
21	79	1
4	14	1
105	106	2
135	135	5
36	150	1
43	76	1
108	110	1
8	71	1
130	132	1
0	69	1
97	98	2
155	156	2
114	114	3
83	84	1
45	136	1
143	144	1
52	72	1
32	33	2
88	88	1
3	193	2
84	86	1
131	133	1
101	149	1
94	154	1
16	33	1
166	167	1
114	116	3
11	12	1
94	98	1
22	22	3
87	89	1
120	153	1
125	125	3
82	94	1
47	151	1
79	89	1
26	178	1
6	7	1
158	159	2
164	164	3
184	185	1
35	35	2
142	185	1
167	170	1
176	179	1
27	103	1
28	29	1
80	80	1
81	114	2
113	140	1
136	137	1
82	101	1
16	79	1
15	16	2
68	90	1
5	69	1
30	79	1
36	70	1
145	161	2
168	188	1
150	168	1
121	122	2
72	114	1
105	150	1
172	190	3
42	45	1
107	108	1
141	143	1
2	17	1
180	181	1
164	173	1
153	153	4
163	163	2
38	50	1
161	163	1
84	84	1
78	79	1
168	170	2
77	79	1
4	25	1
144	148	2
130	131	1
18	19	1
16	17	3
74	79	1
11	14	1
156	157	1
16	25	1
144	145	1
164	175	1
2	145	1
24	35	1
19	20	1
99	133	1
115	150	1
2	3	3
21	21	2
136	172	1
27	177	2
53	53	2
3	79	1
128	185	1
148	148	1
38	45	1
9	40	1
189	192	1
70	83	1
33	34	1
33	36	1
152	155	2
26	32	1
33	40	2
97	149	2
55	86	1
133	154	1
161	162	1
94	97	1
169	177	1
13	39	1
104	195	1
24	25	1
82	85	1
8	69	1
107	117	1
159	165	1
104	110	1
84	100	1
36	80	1
5	87	1
135	191	1
98	102	1
51	62	1
150	156	1
17	45	1
25	178	1
68	97	1
104	106	1
134	135	2
3	19	1
63	127	1
80	97	1
151	151	1
138	141	1
81	83	1
127	138	2
140	190	1
149	172	1
96	97	1
166	168	2
62	80	1
78	78	2
132	186	1
30	37	1
95	149	1
106	106	1
40	41	1
47	48	1
145	172	1
170	171	1
173	191	1
36	36	1
88	89	1
74	80	1
14	31	1
71	126	1
119	128	1
33	96	1
153	154	1
75	76	1
59	62	1
1	2	1
162	163	1
0	178	1
25	25	1
98	99	1
12	14	1
37	149	1
113	114	1
7	7	1
47	128	1
196	197	1
37	99	1
158	158	1
58	165	1
42	72	1
80	85	1
72	74	1
172	174	1
5	6	1
26	78	1
47	183	2
108	165	1
84	157	1
2	33	1
74	74	1
117	151	1
94	112	1
152	168	1
19	51	1
160	181	1
5	7	1
67	69	1
38	51	1
48	52	1
41	168	1
8	89	1
19	37	1
143	185	1
