150	150	2
76	82	1
119	132	1
115	115	4
80	139	1
57	58	1
124	138	1
96	96	3
117	117	2
1	84	1
107	107	4
51	51	1
109	109	1
164	165	2
136	140	1
121	138	2
114	114	3
158	158	2
34	36	2
46	52	1
105	105	2
46	47	1
124	131	1
13	13	3
123	125	1
53	80	1
118	118	3
113	113	3
44	81	1
117	140	1
106	106	3
10	10	4
143	155	1
139	139	4
89	89	3
153	154	1
0	0	1
92	93	1
121	121	2
111	111	4
15	15	6
90	151	3
76	84	1
140	140	2
139	141	2
108	108	3
50	50	4
138	139	1
79	79	1
6	6	5
154	154	3
132	136	1
160	161	2
24	56	1
0	5	1
147	147	5
76	76	5
52	52	3
64	105	1
125	132	1
126	153	2
40	40	3
112	112	2
63	63	5
102	102	5
57	57	2
131	133	2
44	52	1
47	47	2
152	152	5
70	70	2
74	74	2
142	142	2
16	28	1
100	100	1
131	131	3
131	152	1
115	122	1
109	111	1
25	25	3
27	27	3
145	145	2
83	84	2
137	137	3
124	164	1
116	116	2
4	4	3
33	33	3
95	97	2
66	76	1
92	92	3
17	20	1
82	82	1
130	143	1
114	118	1
11	11	4
34	34	2
128	164	1
11	104	1
5	5	3
35	35	2
80	80	3
18	18	6
88	88	1
120	120	1
104	105	1
134	138	2
25	157	1
111	112	1
37	37	2
153	153	4
78	78	5
151	153	1
160	160	4
49	49	3
119	119	3
138	143	1
149	149	1
133	133	2
86	86	3
155	155	4
81	81	4
119	128	2
125	125	3
127	144	1
43	44	1
93	104	1
151	151	4
2	2	1
84	84	2
123	124	1
123	123	1
33	34	1
42	42	5
27	89	2
23	23	3
141	143	1
69	69	4
97	97	2
45	140	1
83	83	3
6	143	1
91	91	1
129	129	4
135	143	1
112	121	1
167	168	1
67	67	1
165	168	1
147	156	1
6	7	2
9	9	1
150	151	1
85	99	1
130	130	1
135	135	1
77	77	2
39	78	1
1	2	2
99	99	2
5	16	1
134	140	1
12	12	5
148	148	3
73	130	1
18	19	1
120	143	1
0	1	2
122	122	3
127	130	2
119	125	2
127	127	1
24	24	2
146	146	2
87	87	4
58	66	1
136	136	1
19	19	1
141	169	1
35	36	2
143	143	3
36	36	4
1	7	1
126	148	1
163	164	1
92	139	1
3	3	3
100	101	1
157	157	2
118	122	2
7	7	2
124	124	2
23	24	1
166	170	1
71	71	1
54	55	3
5	7	2
90	91	1
161	161	2
167	167	2
74	80	1
16	16	5
80	86	1
162	162	1
78	79	2
129	143	1
64	64	1
79	86	1
110	121	1
139	140	1
138	138	2
115	116	1
21	21	2
15	107	1
52	54	1
41	41	2
8	8	2
93	95	1
39	56	1
48	76	1
65	65	2
73	73	1
75	75	1
14	15	2
97	98	1
1	1	3
3	45	1
154	155	1
13	36	1
45	45	1
81	82	2
66	66	1
20	21	1
4	6	1
20	20	2
105	110	1
99	105	1
159	159	3
149	150	1
85	85	1
15	16	2
91	99	1
141	168	1
111	129	1
54	54	1
165	165	1
112	113	2
8	10	1
49	50	1
142	168	1
145	151	1
108	109	1
157	158	1
14	14	4
125	133	1
146	147	1
17	40	1
122	126	1
38	38	2
110	110	1
91	95	1
8	53	1
114	115	1
156	161	1
134	135	1
70	76	1
54	115	1
144	144	3
46	75	1
5	14	1
94	141	1
116	124	1
156	157	1
43	90	1
123	127	1
168	168	1
154	162	1
58	58	1
136	139	1
5	6	1
19	55	2
118	119	1
153	170	1
82	121	1
122	123	1
48	48	1
69	91	1
132	137	1
81	99	1
42	70	1
21	22	1
109	110	1
126	126	2
104	104	1
102	142	1
102	127	1
163	163	1
51	84	1
68	69	1
159	160	2
52	61	1
130	131	2
46	46	1
121	128	1
22	23	1
46	49	1
15	17	2
110	125	1
37	38	1
63	69	1
154	165	1
152	153	1
126	127	1
155	159	1
25	63	1
44	45	1
112	116	1
101	113	1
115	167	1
156	163	1
120	122	1
147	148	1
56	66	1
139	148	1
