93	93	2
152	152	3
68	68	3
134	134	4
11	12	2
159	164	1
3	6	1
5	6	1
137	137	1
156	157	2
101	104	1
87	166	1
97	97	3
63	63	1
177	177	1
26	26	2
39	95	1
105	106	1
172	172	3
154	155	2
173	173	3
96	96	5
140	140	1
58	59	2
25	25	1
87	87	2
94	94	1
112	112	1
115	115	3
66	66	1
67	67	1
52	109	1
133	173	1
158	158	1
55	64	1
100	100	1
2	2	2
26	35	2
55	59	3
16	16	3
41	42	1
37	37	7
7	7	1
61	61	1
24	24	1
156	173	1
113	114	1
57	57	2
56	56	4
127	127	1
116	117	2
59	59	1
170	171	2
123	123	1
74	75	1
100	101	1
146	177	1
107	107	5
128	128	3
88	88	4
38	38	2
3	3	4
14	14	4
89	89	3
72	72	1
49	49	1
86	89	1
42	42	2
13	13	1
174	174	2
44	93	1
139	139	3
30	30	2
45	45	1
109	109	1
166	166	4
32	32	3
52	158	1
51	52	1
159	159	1
57	113	1
139	174	2
137	171	1
179	179	2
153	157	1
80	80	5
145	146	2
27	27	2
164	165	1
113	113	1
118	119	2
125	125	3
139	143	1
23	31	3
136	136	1
149	160	1
110	110	1
97	151	1
61	62	1
86	86	3
71	71	3
10	10	1
123	125	1
21	21	2
71	75	1
61	65	1
65	88	1
24	31	1
109	110	1
51	51	3
96	153	1
102	102	1
116	116	2
119	121	1
74	74	1
33	33	2
84	85	1
65	65	1
176	176	2
156	156	1
167	167	1
21	22	1
51	146	1
56	117	2
80	156	1
85	85	1
77	94	1
27	97	1
36	36	2
123	124	2
114	118	1
8	8	1
93	95	1
163	168	1
169	170	1
17	18	1
33	39	2
8	9	1
161	162	1
126	126	1
88	89	1
144	144	1
58	58	2
165	165	1
39	97	1
175	175	3
142	143	1
163	163	3
2	4	1
141	141	3
53	54	1
144	148	1
98	99	1
41	41	1
82	85	1
155	155	1
124	124	1
162	165	1
114	114	2
91	92	1
101	103	1
91	166	1
168	169	1
161	163	1
57	58	1
64	65	1
15	15	2
78	78	1
146	146	2
1	14	1
20	21	1
107	108	1
52	176	1
18	19	1
135	135	1
22	22	1
6	16	1
94	105	1
95	95	1
86	167	1
120	121	1
54	56	1
143	144	1
145	145	1
64	64	1
171	171	1
160	160	2
135	136	1
150	150	1
40	40	1
34	41	1
117	153	1
133	150	1
77	77	2
164	164	2
96	98	1
82	126	1
91	150	1
62	62	1
83	84	1
133	154	1
105	105	1
132	132	1
170	170	1
168	168	1
101	106	1
128	149	1
108	109	1
110	111	1
140	170	1
