214	218	1
230	248	1
211	212	3
76	108	1
226	226	2
180	180	1
75	75	2
37	37	4
68	68	3
4	4	3
47	47	6
112	113	1
112	117	1
106	106	2
75	76	2
6	6	3
236	236	3
191	191	1
59	61	1
35	35	1
52	52	4
67	67	7
72	72	6
203	203	2
210	210	3
11	11	1
36	36	2
39	39	2
212	213	4
90	92	1
86	86	2
16	16	1
228	228	1
215	215	3
95	102	1
164	171	1
20	21	1
167	202	1
63	212	1
193	199	2
168	174	2
189	243	2
224	224	1
68	103	1
235	235	2
73	73	3
177	177	3
189	197	2
241	241	2
238	238	1
176	176	2
178	180	1
206	207	1
196	197	1
101	101	2
41	41	2
229	229	4
113	113	5
96	96	2
115	115	2
28	28	3
205	216	1
242	242	2
161	161	1
181	181	2
53	54	2
215	218	3
214	214	3
33	34	1
193	196	1
14	38	1
110	111	2
19	19	3
1	183	1
198	199	1
68	89	1
242	247	1
173	173	1
233	233	2
84	116	1
167	209	1
228	229	1
216	216	5
189	189	4
199	199	1
208	222	1
95	221	1
65	66	1
49	49	1
243	243	2
43	43	5
53	53	2
49	92	1
7	7	2
110	110	3
30	30	2
150	150	2
58	58	2
152	152	2
54	54	2
195	195	2
46	46	1
90	90	4
162	162	2
234	234	1
151	201	1
185	185	3
44	44	3
195	200	1
187	187	1
164	164	3
194	194	3
50	50	1
7	24	2
118	118	4
105	105	2
183	183	2
186	186	1
82	87	1
74	80	1
158	232	3
94	94	3
49	70	2
51	52	2
41	202	1
50	56	2
8	8	3
78	78	3
49	90	2
85	85	5
66	66	1
176	181	2
92	93	1
63	65	1
114	114	2
57	59	1
38	67	1
98	103	1
81	81	3
74	75	1
201	201	3
241	242	2
213	213	2
205	205	1
119	192	1
193	193	1
228	233	1
196	199	1
231	231	4
61	98	1
240	241	1
92	98	1
186	187	2
179	222	1
145	224	1
245	246	3
212	246	1
111	111	5
27	28	1
154	154	1
164	214	1
31	31	4
25	25	1
62	68	2
227	244	2
156	156	2
222	248	1
59	59	2
38	38	3
100	101	2
93	93	3
217	243	1
169	169	2
231	233	1
181	182	2
204	204	4
185	186	1
161	179	1
209	209	1
200	209	1
50	54	1
69	69	1
244	245	1
37	117	2
230	230	1
79	81	1
225	225	2
29	29	1
194	243	1
5	15	1
157	157	1
108	114	2
36	38	1
232	237	1
223	229	1
25	26	1
227	228	1
21	21	1
170	175	1
146	146	1
158	158	3
18	18	2
62	62	1
14	23	2
42	42	2
207	208	1
10	10	1
207	207	3
12	12	2
200	200	2
175	175	2
87	87	1
225	238	3
3	4	1
73	106	1
16	25	2
163	164	1
80	82	1
96	97	1
58	64	1
60	62	1
5	5	2
34	34	5
211	230	1
176	221	1
1	1	1
187	217	1
194	196	1
245	245	1
88	89	1
40	40	1
117	118	1
182	182	2
3	3	1
77	77	2
107	107	1
103	103	1
243	249	1
151	151	3
232	232	3
246	246	4
190	190	1
191	219	1
243	244	1
237	237	1
168	169	1
38	39	1
158	164	1
20	20	2
66	100	1
9	63	1
70	70	2
203	235	1
71	79	1
187	195	1
80	80	1
166	168	1
227	227	2
80	113	1
228	242	1
233	245	1
221	222	1
170	171	1
24	24	2
4	216	1
33	33	3
181	237	1
101	103	1
12	20	1
56	165	1
114	115	1
171	171	2
115	208	1
88	90	1
156	157	1
98	115	1
218	218	1
99	99	1
55	56	2
239	239	1
35	59	1
150	155	1
93	212	1
63	63	1
202	225	1
205	228	1
171	173	2
99	101	2
66	68	1
47	55	1
26	28	1
2	2	1
6	37	1
194	199	1
22	22	2
192	223	1
240	240	1
92	92	3
59	60	1
47	50	1
3	20	1
146	159	1
27	27	1
100	100	1
189	217	1
65	208	1
51	51	2
220	221	1
71	83	1
199	200	1
15	15	1
60	61	1
34	89	1
1	53	1
84	85	1
80	104	1
165	168	1
29	31	1
156	161	1
172	172	1
50	68	1
9	10	2
87	89	1
99	215	1
217	217	1
159	159	1
64	177	1
117	117	1
188	188	1
188	195	2
164	208	1
147	156	1
163	163	2
161	203	1
26	26	1
77	81	1
48	61	1
225	227	1
209	211	1
170	170	2
78	227	1
17	17	1
85	87	2
63	64	1
99	102	2
58	59	1
193	195	1
217	240	1
42	43	1
17	58	1
82	82	1
193	194	1
174	174	1
220	220	1
36	116	1
56	56	1
234	235	1
160	160	1
196	214	1
81	84	1
167	167	1
205	223	1
237	242	1
65	198	1
77	211	1
173	174	2
188	190	1
14	14	1
155	209	1
64	64	1
214	215	1
210	217	1
73	98	1
74	74	1
14	15	1
120	228	1
163	228	1
98	98	1
32	32	1
184	184	1
89	101	1
10	11	1
30	44	1
192	221	1
72	78	1
57	57	1
234	247	1
14	34	1
76	76	1
160	161	1
236	237	1
11	65	1
167	175	1
79	116	1
63	66	1
104	104	1
29	30	1
4	14	1
104	152	1
112	112	1
41	212	1
202	202	1
198	198	1
13	13	1
94	95	1
32	59	1
10	61	1
33	93	1
115	116	1
82	84	1
180	181	1
108	108	1
41	42	1
71	191	1
55	55	1
218	237	1
48	57	1
171	175	1
153	155	1
120	120	1
74	220	1
55	57	1
