105	156	1
82	83	2
214	222	1
171	171	3
226	227	2
142	147	1
123	123	4
166	166	2
138	139	1
236	237	1
54	72	1
32	32	3
220	242	1
169	181	1
236	236	5
37	37	4
57	84	1
101	102	2
15	103	2
52	52	4
208	208	1
226	226	1
237	239	1
190	195	1
74	74	3
107	107	5
182	187	1
10	11	2
178	201	1
103	118	1
193	227	1
178	178	1
128	130	1
22	22	4
192	221	1
66	67	1
203	218	1
149	149	2
228	228	3
113	113	1
214	214	2
234	234	3
21	22	2
221	222	6
195	195	2
199	228	1
152	152	1
186	186	1
0	0	2
125	125	5
191	191	6
124	193	1
2	2	6
129	129	3
84	84	2
198	198	3
105	105	2
230	230	2
145	145	2
100	100	4
101	101	6
16	16	3
166	168	1
4	5	3
72	72	3
25	25	2
172	172	3
4	52	1
59	81	1
136	136	3
21	21	2
219	219	4
225	226	1
29	29	3
39	39	5
103	103	4
8	8	4
125	127	1
240	240	2
227	227	3
62	165	1
177	177	1
49	49	3
57	66	1
9	10	1
67	67	1
70	70	2
19	19	2
168	183	1
217	217	5
181	181	1
45	210	2
120	191	1
124	131	1
23	23	2
9	11	1
183	183	1
147	147	3
210	211	2
152	208	1
6	80	2
190	190	4
176	176	1
6	6	1
47	47	6
193	193	1
45	45	1
97	97	2
68	68	2
215	229	1
14	14	1
61	61	2
0	80	1
70	71	2
133	133	1
145	187	1
161	161	2
128	128	3
2	42	3
5	5	3
102	105	2
155	155	4
35	212	2
215	215	2
224	224	3
114	114	2
54	54	3
164	164	1
115	115	1
96	109	1
147	148	1
172	173	1
142	192	1
238	238	1
69	69	1
220	220	1
183	200	2
144	149	1
0	45	1
138	152	1
130	130	2
48	182	2
96	121	1
75	75	1
162	163	1
141	142	2
232	232	1
6	13	2
74	75	1
137	137	1
3	108	2
144	144	2
79	79	1
33	66	1
13	13	3
140	166	1
134	159	1
142	143	1
48	48	3
28	29	1
15	15	1
28	28	3
58	59	1
86	86	4
197	240	2
10	10	2
206	206	3
59	77	1
103	115	1
50	60	1
23	71	1
47	73	1
40	179	1
216	216	1
101	107	1
101	148	1
122	122	2
143	143	2
42	42	3
26	26	3
24	32	1
78	81	1
7	101	1
189	190	1
137	169	1
18	18	1
225	225	3
20	33	1
151	177	1
201	201	3
186	187	1
165	168	1
41	41	1
4	4	1
213	213	2
113	129	1
148	148	1
190	200	2
204	217	1
178	229	2
231	231	4
7	8	1
57	57	2
167	167	4
235	236	1
124	124	2
139	231	1
27	27	7
187	190	1
98	98	1
32	33	2
192	192	1
106	106	2
205	205	2
42	198	1
195	196	1
15	18	1
12	12	2
56	56	3
124	126	1
137	143	1
24	45	2
118	231	1
187	199	1
126	127	1
30	30	3
64	64	4
123	124	1
0	206	1
184	189	1
72	76	1
182	192	1
127	127	2
0	1	1
11	53	2
156	156	2
209	209	2
210	210	1
141	148	1
99	99	1
60	60	2
76	76	2
118	121	1
65	65	2
55	55	1
140	140	1
221	221	1
4	7	1
58	58	1
223	225	1
118	134	2
177	195	1
39	81	1
160	160	1
174	174	2
63	63	1
102	201	1
83	83	1
30	70	1
234	237	1
140	143	1
156	163	1
127	128	1
33	40	1
108	108	1
144	145	1
222	234	1
15	16	1
201	202	1
3	3	2
196	196	2
67	83	1
201	208	1
45	115	1
138	142	1
179	179	4
174	175	1
126	138	1
134	137	1
232	236	1
200	200	3
170	170	2
106	145	1
169	169	1
223	223	3
199	224	1
115	117	1
107	181	1
111	113	1
141	141	1
175	175	2
182	182	2
241	241	1
71	71	1
219	241	1
183	236	1
115	118	1
80	216	1
151	181	2
99	101	1
143	169	2
187	187	1
139	139	1
235	242	1
237	241	1
43	95	1
156	157	1
125	126	4
18	48	1
96	96	3
38	38	1
73	80	1
150	211	1
120	122	1
107	147	1
129	135	1
13	15	1
60	99	1
133	134	1
234	236	1
146	146	2
104	138	1
85	85	1
142	162	2
33	33	2
80	80	2
65	68	1
154	167	1
6	16	1
48	200	1
63	168	1
127	145	1
120	145	1
78	79	2
116	116	1
150	150	1
149	151	1
9	9	1
121	121	2
207	208	1
7	105	1
66	66	3
164	212	1
191	230	1
81	81	1
95	95	1
233	233	1
126	129	1
86	191	1
99	113	1
127	149	1
73	74	2
194	196	1
184	184	2
123	125	2
224	225	1
136	144	1
110	159	1
142	142	1
39	42	1
36	36	2
25	26	1
141	160	1
129	141	1
154	157	1
122	230	1
102	102	1
201	204	1
177	206	1
129	134	1
39	48	1
77	82	1
59	59	1
117	117	1
97	173	1
58	60	1
229	230	1
174	184	1
44	44	5
111	168	1
150	169	1
161	163	1
166	171	1
181	182	1
188	188	1
10	68	1
117	123	1
54	71	1
161	162	1
134	136	1
76	193	1
215	216	1
186	189	1
59	75	1
51	68	1
6	83	1
155	180	1
133	146	1
178	230	1
239	242	1
138	169	1
140	142	2
125	214	1
242	242	1
125	136	1
173	174	1
167	169	1
158	165	1
129	211	1
189	189	1
109	134	1
238	239	1
101	109	1
182	235	1
27	216	1
10	58	1
95	108	1
122	135	1
225	233	1
203	203	1
64	97	1
157	175	1
167	168	1
159	159	2
149	171	1
135	136	1
152	154	1
151	169	1
163	163	1
7	9	1
59	155	1
140	141	1
60	62	1
45	58	1
132	159	1
124	133	1
75	76	1
37	216	1
17	17	1
127	224	1
143	146	1
96	161	1
46	46	1
81	82	1
197	199	1
33	35	1
35	35	1
162	162	1
77	78	1
143	155	1
146	210	1
109	109	1
1	229	1
184	209	1
95	109	1
