222	224	1
8	8	4
164	165	1
66	71	1
209	210	1
56	60	1
71	71	2
29	30	3
10	10	2
3	7	2
19	20	1
28	28	2
165	244	1
85	86	4
64	64	3
187	188	1
241	241	2
202	202	3
231	232	2
12	12	6
98	98	1
118	118	2
6	6	1
95	95	2
14	75	1
27	27	4
209	209	3
45	46	3
69	72	2
175	175	3
100	100	3
238	239	1
193	214	2
52	52	2
208	209	1
36	36	4
91	91	1
8	32	1
4	4	1
114	115	2
3	3	6
79	80	2
210	210	1
81	99	2
109	109	2
219	248	1
78	78	1
198	198	1
212	212	3
232	232	6
74	74	3
185	185	1
26	26	1
205	205	1
242	243	1
235	236	1
59	59	4
214	215	1
186	190	1
33	33	1
219	219	1
152	158	1
153	153	2
104	119	1
58	58	2
84	85	3
221	221	3
187	210	1
210	217	1
96	96	1
81	81	3
14	48	1
32	32	3
112	112	1
73	115	1
16	16	2
10	38	1
120	120	1
105	105	4
217	217	2
246	247	3
233	233	1
193	208	1
56	83	1
181	184	1
21	21	2
223	223	1
7	8	2
86	87	1
49	50	1
29	31	2
238	238	1
1	6	1
158	159	3
106	106	2
115	115	3
220	220	3
181	182	1
19	19	3
9	9	3
160	174	1
175	206	2
169	169	2
152	159	1
77	77	1
173	210	1
5	7	1
152	171	1
191	191	1
88	88	3
69	76	1
201	226	1
73	73	1
156	156	2
244	244	1
192	193	1
235	235	2
168	170	1
15	15	1
59	60	2
41	41	4
46	182	1
17	17	3
61	61	4
37	177	2
170	200	1
57	57	2
162	163	3
145	145	2
42	42	3
23	23	3
179	187	2
237	238	1
203	203	1
67	67	1
145	180	1
11	19	1
181	181	1
37	38	1
199	199	1
79	79	1
226	226	3
40	40	2
219	226	1
229	229	3
52	184	1
116	144	1
48	50	1
31	31	2
159	159	5
23	30	1
107	107	1
70	70	1
108	108	2
58	75	1
45	45	1
86	86	1
248	248	3
183	183	2
35	55	1
25	26	1
161	161	2
39	39	2
224	224	1
67	68	1
226	229	2
236	236	2
57	76	1
111	171	1
25	25	2
21	22	1
191	195	1
87	87	3
89	91	1
210	223	1
97	97	2
179	180	1
88	99	1
26	33	3
182	182	3
219	222	2
99	99	1
49	49	1
43	44	1
89	89	1
51	51	2
214	214	3
239	246	1
197	198	2
151	167	1
163	164	1
113	113	1
14	14	1
85	85	3
62	62	1
216	218	1
75	75	1
8	9	1
24	24	3
49	78	1
48	48	2
98	100	1
234	234	2
228	229	2
116	116	2
241	248	1
165	165	1
245	245	2
194	212	1
29	29	2
190	190	2
55	56	2
76	76	1
71	72	3
47	48	2
200	200	2
190	192	2
90	109	1
1	1	1
39	51	1
93	94	1
110	110	1
225	225	1
150	150	2
93	93	2
194	207	1
4	7	1
38	39	1
64	65	2
10	11	1
104	105	1
2	2	3
188	188	1
11	11	1
194	194	2
67	174	1
202	226	1
173	173	1
167	167	2
117	117	1
46	46	1
172	172	2
40	54	1
150	151	1
56	65	1
213	213	2
216	217	1
188	189	1
222	243	1
66	66	1
37	37	1
9	10	1
153	183	2
174	175	1
96	104	1
197	212	1
215	215	1
160	163	1
82	82	3
14	59	1
81	89	1
3	40	1
90	90	1
192	192	1
96	97	1
27	28	1
186	186	1
152	152	1
106	108	1
157	157	1
191	218	1
231	231	1
216	216	1
63	63	1
30	30	1
195	195	1
247	248	1
98	219	1
170	170	1
64	112	1
240	240	1
220	234	1
229	231	1
96	98	1
6	33	1
163	163	1
11	14	1
26	29	1
218	240	1
184	184	1
218	219	1
177	177	1
196	196	1
