89	89	4
5	24	2
80	86	1
134	134	6
5	12	4
141	141	2
23	136	1
80	91	1
88	89	2
144	144	2
131	131	6
72	72	3
87	120	1
17	17	5
13	36	2
79	80	4
55	69	1
52	52	3
26	27	2
13	13	2
59	59	4
26	26	4
91	93	1
15	55	1
74	74	4
132	133	3
105	105	2
99	111	1
124	124	4
82	82	3
96	96	7
132	132	10
67	67	7
102	103	2
58	67	1
114	114	6
93	94	2
82	117	1
117	122	2
33	33	2
32	32	5
9	10	1
83	83	6
3	3	2
130	141	1
19	22	2
55	55	3
48	48	8
25	30	1
137	138	4
30	30	5
76	76	3
88	88	3
90	92	2
9	61	1
50	51	4
57	57	5
104	108	2
79	79	5
93	93	4
96	97	3
66	80	1
71	71	2
76	110	1
65	92	1
40	40	4
69	69	3
112	121	1
85	85	4
108	111	1
95	96	2
104	104	1
71	88	3
105	130	1
22	30	1
49	72	1
131	132	4
23	24	2
95	104	1
117	119	1
22	142	1
124	132	1
121	122	1
52	53	1
6	11	1
23	79	1
50	50	1
28	28	5
111	112	1
133	133	2
68	70	2
31	31	4
49	58	3
38	38	6
16	24	1
10	46	1
142	142	4
129	129	4
39	80	1
145	145	2
11	71	1
6	6	1
27	61	1
49	51	1
10	119	1
20	40	1
37	37	3
96	109	1
20	20	3
136	137	1
70	70	1
81	81	6
32	108	1
126	126	7
120	120	3
15	18	1
11	11	3
121	139	1
66	66	3
96	101	1
3	43	1
119	120	3
23	23	2
112	112	3
108	109	1
124	125	2
66	117	1
122	136	1
20	22	2
8	98	1
65	66	2
86	88	1
90	90	1
94	94	2
20	38	1
114	126	1
125	125	3
39	43	2
143	144	3
38	41	1
61	62	3
12	39	1
123	128	1
113	113	3
92	93	1
120	132	1
50	52	1
58	58	1
94	95	1
83	112	1
14	14	2
120	128	1
144	145	1
23	81	1
72	125	1
65	75	1
1	1	3
13	34	1
98	98	3
32	41	2
127	133	1
62	108	1
117	130	1
19	19	6
81	97	1
29	74	1
73	108	1
55	64	1
102	102	4
86	86	3
127	127	1
62	62	2
23	76	1
140	140	3
136	142	1
9	9	2
109	109	1
43	53	1
60	60	4
31	32	1
116	116	4
88	137	1
41	41	2
8	20	1
19	20	2
58	62	1
77	78	3
23	80	1
75	75	5
15	15	4
86	116	1
78	83	1
119	123	3
130	130	8
8	28	1
42	42	5
128	128	6
118	139	1
135	135	2
22	22	1
113	116	1
29	29	3
77	77	2
24	24	1
40	41	1
50	113	1
108	108	1
2	2	2
35	35	1
123	124	1
100	103	1
139	140	1
5	5	3
111	127	1
80	89	1
53	94	1
68	68	2
90	106	1
137	137	2
59	60	3
35	40	1
130	131	1
91	91	3
63	63	2
9	119	2
135	136	1
21	52	2
117	128	1
48	68	1
50	69	3
36	36	2
49	92	1
19	33	2
100	119	1
75	91	1
56	56	3
54	54	5
20	24	3
67	70	1
125	126	1
113	117	1
10	52	2
74	80	1
82	109	1
120	140	1
40	56	1
53	55	1
18	109	1
8	8	3
65	86	1
117	117	1
79	106	1
88	138	1
88	90	1
53	57	1
48	49	1
122	122	3
30	76	1
49	56	2
142	143	1
80	80	1
89	114	1
107	121	1
110	111	1
49	49	2
123	138	1
92	134	1
1	41	1
15	35	1
87	134	1
18	64	1
106	106	1
69	70	1
133	135	1
92	92	1
36	50	1
140	141	2
78	78	1
103	103	4
17	38	1
20	53	1
79	127	1
118	128	1
24	25	1
27	27	3
31	33	1
112	139	1
61	61	6
110	117	1
52	141	1
71	72	1
10	41	1
2	4	1
25	27	1
53	53	1
26	79	1
20	23	1
143	143	3
80	81	2
126	139	1
124	131	1
100	100	2
75	83	1
76	78	1
21	23	1
111	111	2
65	91	1
0	0	1
87	88	1
24	60	1
119	141	1
17	31	1
75	86	1
21	21	1
58	59	1
20	21	2
99	120	1
25	62	1
10	11	2
65	68	1
36	83	1
122	140	1
2	33	1
77	108	1
119	121	1
102	123	1
84	106	1
65	65	1
34	34	1
97	110	1
28	29	1
26	33	1
55	56	1
63	65	1
101	101	1
39	39	1
107	107	2
85	86	1
74	79	1
32	64	1
79	123	1
114	115	1
30	66	1
78	123	1
74	75	2
53	60	1
66	67	1
4	4	1
10	10	2
54	55	1
5	32	1
136	136	3
80	87	1
73	73	1
77	113	1
84	84	1
85	109	1
87	87	1
19	36	1
17	37	1
32	79	1
38	117	1
100	101	1
131	135	1
121	121	1
93	112	1
41	99	1
14	47	1
113	114	1
16	17	1
40	50	1
13	27	1
99	99	1
81	82	1
72	124	1
97	97	1
53	65	1
67	75	1
98	99	1
16	16	1
76	82	1
31	83	1
64	64	1
29	33	1
71	73	1
8	42	1
89	121	1
83	98	1
13	43	1
83	90	1
32	73	1
34	36	1
