135	135	2
169	169	5
79	79	3
41	42	2
128	161	1
80	108	1
26	27	3
66	67	2
10	10	2
112	112	5
114	114	5
146	147	2
103	105	2
133	133	2
60	123	1
36	36	3
155	155	1
89	89	3
24	24	3
152	152	3
64	67	1
13	25	1
157	157	4
37	38	3
130	165	1
26	68	1
80	80	4
93	94	4
75	108	2
74	77	1
51	67	1
124	124	4
100	100	3
1	1	6
57	151	2
32	32	2
88	89	3
41	41	3
146	146	3
107	116	4
3	3	2
164	166	1
93	100	1
139	139	4
107	107	3
94	101	2
37	37	5
117	117	4
123	124	2
33	36	1
140	140	3
145	146	1
147	163	1
97	98	1
5	5	4
177	177	2
119	119	2
172	172	1
61	109	2
91	91	2
105	105	1
8	8	5
63	64	2
57	80	1
2	2	2
134	134	6
17	19	1
153	153	5
167	168	2
119	121	1
144	145	1
56	56	7
16	22	1
85	86	1
11	11	4
14	21	1
142	143	2
83	143	1
53	179	1
16	16	1
78	128	1
106	107	1
52	57	1
31	37	1
92	92	5
55	55	4
0	0	1
157	176	1
144	144	5
90	90	2
29	51	2
20	20	1
118	118	3
49	121	1
117	143	1
18	18	2
75	77	1
156	156	1
35	37	2
86	86	3
178	178	2
14	14	2
101	152	1
147	147	2
147	157	1
122	127	1
6	11	1
4	44	1
1	2	1
5	7	2
95	95	1
51	113	2
58	87	1
23	23	3
98	125	1
39	39	2
72	76	1
101	101	2
25	25	1
28	29	1
159	159	5
55	56	3
122	122	3
160	160	2
104	104	3
61	153	2
34	34	5
64	64	8
108	108	2
77	80	1
67	67	2
35	35	5
87	87	4
64	88	3
155	156	1
142	142	4
63	63	4
166	166	2
115	144	1
136	136	4
140	147	2
170	170	2
83	99	1
89	103	1
59	59	1
121	123	1
36	38	1
96	96	2
52	55	1
60	61	2
83	83	2
136	141	1
9	9	2
138	138	5
152	165	1
109	126	1
93	93	3
54	80	1
96	97	1
30	30	1
167	167	2
82	83	1
51	52	1
80	81	1
148	148	2
145	145	3
129	129	2
81	81	1
132	147	1
110	110	2
27	27	2
180	180	2
127	127	2
51	51	2
130	131	1
85	85	3
75	75	1
158	159	2
19	19	1
151	166	2
175	175	2
158	158	3
151	151	2
91	101	2
68	68	3
103	103	1
66	66	2
88	88	7
157	158	2
109	111	1
39	58	1
129	163	2
99	119	2
111	180	1
141	141	6
61	68	1
70	70	1
78	79	3
84	84	1
27	28	1
71	75	2
33	33	2
176	176	3
35	89	1
53	53	6
132	132	1
97	108	1
128	134	1
24	67	1
76	76	2
165	165	3
11	12	1
3	7	1
11	30	1
95	100	1
53	54	1
97	97	2
111	111	3
64	68	1
4	24	1
77	179	2
4	4	2
137	137	1
71	71	9
28	28	1
61	61	2
35	66	1
31	169	1
128	128	5
23	30	1
45	54	1
165	169	1
31	31	2
39	85	2
58	58	1
116	116	6
50	51	1
63	67	1
17	17	2
174	174	2
9	11	1
98	98	2
159	161	1
74	74	2
62	106	1
34	93	1
29	29	1
63	113	1
168	169	1
125	140	1
62	62	1
3	4	1
14	115	1
60	79	1
84	86	1
26	26	3
154	154	1
22	30	1
43	43	2
58	141	1
118	119	1
62	104	1
76	107	1
104	105	2
15	15	1
130	130	1
115	143	1
42	42	1
106	106	1
18	23	2
107	109	1
173	173	2
20	36	1
138	153	1
44	122	1
102	103	1
15	33	1
50	50	2
97	107	1
116	117	1
156	157	1
111	112	1
21	23	1
63	107	1
131	131	1
60	60	2
113	114	1
83	85	1
54	54	2
126	126	1
8	11	1
169	175	1
74	75	1
39	40	1
51	125	1
52	52	1
68	128	1
34	42	1
152	164	1
79	80	1
65	142	1
125	164	1
82	82	1
115	115	1
52	53	1
113	113	2
95	97	1
168	168	1
162	165	1
125	125	3
83	118	1
134	169	1
38	38	2
99	99	3
59	153	1
172	175	1
169	170	1
151	154	1
161	161	1
160	161	1
117	127	1
40	40	1
33	34	1
90	101	1
108	109	1
91	92	1
163	163	2
109	112	1
6	6	1
13	41	1
61	64	1
176	180	1
124	143	1
128	129	1
115	128	1
100	103	1
145	150	1
140	141	1
4	50	1
64	148	1
64	113	1
34	37	2
120	128	1
24	30	1
64	65	1
110	111	1
4	57	1
4	45	1
131	132	1
107	112	1
147	148	1
89	105	1
10	11	1
