79	79	6
26	26	3
129	129	6
77	77	5
0	0	3
119	119	8
24	24	3
20	20	4
118	125	2
43	43	4
83	83	4
61	61	10
9	10	4
87	87	7
8	8	1
11	12	1
122	122	6
16	16	4
71	71	5
46	46	5
113	113	4
95	96	3
65	66	1
109	111	2
88	88	2
133	133	8
101	101	1
110	111	1
69	69	3
100	100	7
111	111	3
92	92	1
128	128	7
111	112	1
118	119	3
41	43	3
115	115	7
12	12	3
131	131	1
80	81	1
58	58	4
73	73	6
124	125	4
76	76	4
17	36	2
77	78	2
84	84	3
38	39	1
2	7	2
75	75	6
8	18	1
134	134	2
45	45	8
47	126	1
123	123	4
117	117	6
70	70	3
103	103	3
72	72	5
44	45	2
75	77	1
44	44	3
35	35	3
32	116	2
54	54	1
7	7	3
32	32	4
7	8	1
110	110	5
10	10	1
94	94	4
9	9	2
47	47	7
46	47	1
30	30	6
60	60	5
102	102	5
130	131	1
127	127	4
116	116	8
106	106	2
40	40	2
108	108	6
27	28	2
95	95	3
57	93	1
90	91	5
20	21	2
72	73	1
122	130	1
3	6	1
116	130	1
100	101	2
36	36	2
42	42	1
31	31	2
17	17	3
121	122	4
109	109	2
78	78	5
27	27	3
76	111	1
8	10	1
93	93	1
56	57	1
118	118	3
74	74	4
34	34	4
114	114	3
6	6	4
114	132	1
4	4	4
7	27	2
121	125	2
63	63	2
22	22	5
125	125	3
94	95	1
16	36	1
86	86	6
5	5	3
68	68	1
132	132	8
107	107	1
125	131	1
101	102	2
33	33	2
11	75	2
1	1	2
87	121	1
120	120	2
13	13	7
103	104	2
55	56	1
18	18	1
121	121	2
128	129	1
25	36	1
14	15	2
25	25	4
47	57	1
78	80	1
96	99	2
34	35	1
104	104	5
21	21	1
75	92	2
120	122	1
6	73	4
91	91	2
15	25	1
51	56	1
62	62	5
56	56	1
15	15	1
82	83	2
79	106	2
64	64	3
47	134	1
10	76	2
33	34	1
99	99	2
2	2	1
49	50	1
130	130	1
16	26	1
19	20	1
67	67	1
131	132	1
19	19	1
58	59	1
76	77	3
14	14	1
11	11	3
38	38	2
37	37	1
34	75	1
79	105	1
36	38	1
65	65	2
32	33	1
41	41	3
97	97	1
80	80	1
97	99	1
28	29	1
9	46	1
35	36	1
96	96	2
115	116	3
6	7	1
77	110	1
124	124	2
112	113	2
87	88	2
29	29	1
46	110	1
22	43	1
22	23	1
38	40	1
96	100	1
40	43	1
34	120	1
13	22	1
82	82	1
115	117	1
67	68	1
94	101	1
105	105	1
39	39	1
85	87	1
112	112	2
5	27	1
10	75	1
108	109	1
98	99	1
98	100	1
59	59	1
17	35	1
96	98	1
80	101	1
133	134	1
127	132	2
73	74	1
81	94	1
102	103	1
108	112	2
122	125	1
116	117	1
28	28	1
15	59	1
89	89	1
3	3	1
57	92	1
10	45	1
93	94	1
90	92	1
13	16	1
82	98	1
31	33	1
56	85	1
