9	55	1
76	76	3
67	75	1
28	28	3
38	38	4
126	126	3
103	103	9
101	101	2
21	21	3
88	89	2
125	125	5
33	33	3
18	18	3
129	129	4
136	136	1
38	47	1
13	94	1
142	142	2
119	119	2
9	9	1
2	3	1
26	26	2
89	89	1
48	48	3
42	42	5
50	50	2
84	84	2
127	128	4
138	138	1
10	10	1
134	134	3
123	123	4
100	101	1
52	91	1
100	100	2
21	27	1
34	34	2
80	80	3
68	68	4
84	85	1
32	32	2
141	141	2
5	34	1
71	71	2
74	128	1
32	33	1
79	130	1
37	37	3
17	81	1
124	126	3
88	88	1
122	122	2
2	2	2
12	119	1
91	91	1
77	109	1
93	93	6
29	56	1
117	117	3
57	60	1
118	118	2
107	107	5
54	54	2
65	65	2
106	108	1
36	36	1
41	41	3
6	6	1
13	13	1
27	27	3
2	15	1
83	84	2
123	136	2
0	0	1
8	8	3
102	102	1
58	58	3
82	82	2
99	99	1
55	140	2
95	96	4
38	54	2
81	127	1
118	124	1
115	117	1
47	48	1
124	124	1
66	137	1
90	90	1
22	22	2
139	139	2
108	108	1
131	131	3
85	109	1
71	74	1
127	129	1
96	96	1
24	39	1
105	105	2
63	63	1
79	79	2
134	135	3
4	4	1
83	86	1
143	143	1
41	128	1
25	31	1
121	121	3
129	138	1
35	35	1
49	49	1
24	36	1
75	75	2
120	120	3
83	114	2
4	5	1
33	50	2
39	99	1
43	47	1
80	110	1
95	99	2
17	17	4
104	104	1
77	77	1
30	30	1
99	121	1
57	57	3
68	69	1
19	119	1
97	103	2
113	113	1
1	1	3
75	86	1
92	92	1
72	72	1
125	130	1
14	14	2
25	25	3
82	125	1
32	69	1
125	129	2
127	142	1
54	55	1
64	68	1
95	119	1
126	135	2
135	135	1
137	137	1
118	119	2
26	69	1
73	73	3
128	128	2
37	144	1
78	83	1
141	142	1
49	63	1
33	38	1
12	96	1
66	66	1
133	133	1
2	4	1
57	88	1
118	131	1
3	15	1
83	97	1
98	99	1
74	74	2
144	145	1
144	144	1
2	30	1
52	53	2
40	41	1
86	86	2
80	81	1
109	109	1
76	103	1
36	37	1
62	98	1
58	59	1
49	121	1
127	127	2
87	88	1
24	24	1
39	41	1
95	95	2
38	39	1
23	23	2
97	97	1
53	53	1
96	109	1
53	57	1
115	115	1
78	79	1
94	95	1
17	25	1
20	20	1
28	33	1
69	69	1
81	81	1
69	70	1
83	83	1
50	84	1
65	91	1
6	9	1
59	60	1
87	108	1
132	143	1
4	34	1
138	139	1
39	39	1
92	115	1
79	122	1
112	112	1
9	54	1
