121	122	2
77	77	3
45	51	1
81	110	1
97	125	1
16	30	2
30	30	1
30	35	3
8	8	1
90	90	6
29	29	1
100	100	4
117	117	4
68	68	2
70	70	4
84	88	1
89	126	1
127	127	1
129	134	1
93	93	1
84	84	4
125	125	2
59	60	2
14	94	1
109	109	2
122	122	2
103	103	1
27	30	1
92	125	2
60	106	2
81	81	1
37	54	1
94	96	1
118	119	1
76	93	1
7	7	2
14	14	3
79	119	1
114	119	1
23	24	1
93	95	1
48	48	2
10	14	1
50	50	1
108	108	1
65	65	2
0	0	4
113	113	3
129	129	4
25	28	1
69	74	1
106	106	2
17	17	1
76	119	1
32	32	2
88	109	1
4	10	1
31	31	1
66	119	1
75	112	1
86	125	1
64	64	2
114	114	2
10	10	3
19	34	2
119	127	1
22	23	1
116	116	2
35	36	1
43	43	1
132	132	4
11	12	1
57	60	1
14	28	2
66	118	1
115	115	2
74	75	3
26	26	2
55	65	1
110	110	1
53	56	1
79	80	2
80	80	3
24	24	2
107	107	1
29	53	1
131	131	3
60	60	1
95	96	1
118	118	5
93	109	1
22	22	1
104	105	1
13	13	3
96	96	1
88	88	1
18	71	1
122	123	1
33	34	1
5	5	2
53	53	3
4	4	1
62	62	2
10	19	1
54	58	1
86	86	3
52	52	3
122	130	1
34	106	1
73	73	3
15	15	1
134	134	1
14	35	1
63	66	1
105	105	5
101	101	3
18	18	2
120	120	2
17	30	2
72	105	1
124	124	2
56	56	3
2	8	1
20	68	1
77	82	1
50	51	1
105	124	1
102	104	1
53	119	1
16	18	1
57	57	1
36	37	1
74	112	1
60	108	2
66	68	1
61	80	1
124	125	1
27	27	1
112	112	1
56	57	1
45	46	1
54	113	1
53	54	1
89	97	1
36	59	1
30	31	1
97	112	1
33	58	1
61	61	1
126	131	1
109	110	1
35	35	1
74	74	1
10	24	1
19	19	2
23	113	1
18	122	1
128	128	2
45	60	1
50	104	1
14	24	1
7	11	1
58	58	3
78	84	1
25	32	1
87	88	1
25	25	1
5	6	1
91	105	1
129	131	1
43	60	1
21	22	2
55	55	1
20	21	1
89	110	1
67	67	1
11	18	1
67	69	1
15	30	1
118	129	1
34	34	1
107	122	1
116	122	1
127	135	1
111	111	1
80	111	1
9	9	1
