157	157	3
87	91	2
32	32	4
47	47	4
109	110	4
24	27	1
178	178	3
41	41	5
104	104	1
141	144	1
93	119	4
57	57	2
23	23	4
126	126	3
14	15	1
40	47	1
117	117	3
72	91	1
170	177	2
12	31	1
144	155	1
136	143	1
0	21	1
58	72	1
1	6	2
115	138	2
186	186	1
35	36	1
10	85	1
168	168	2
184	184	1
189	189	3
132	133	1
188	188	2
128	131	1
24	25	1
153	153	1
114	115	1
53	157	1
99	99	1
101	101	1
4	4	1
5	6	2
92	92	2
118	119	1
138	138	1
177	177	1
92	138	1
134	134	1
89	133	1
164	165	1
146	147	1
130	161	1
27	27	3
79	79	3
11	11	3
3	5	1
13	27	1
90	95	2
17	18	3
43	46	1
30	48	2
58	59	1
78	78	2
116	116	1
147	148	2
123	125	1
188	189	1
159	159	1
105	105	1
98	98	2
136	136	3
113	113	1
62	122	1
122	123	1
156	157	1
139	139	1
156	156	2
151	151	1
37	47	1
164	164	1
42	45	1
6	6	1
130	178	1
125	126	1
174	174	4
53	53	2
163	163	2
115	116	1
62	121	1
12	22	1
88	88	1
149	158	1
162	162	2
12	12	3
128	128	1
83	113	1
70	91	1
62	118	1
160	163	1
10	10	3
74	74	2
175	175	1
114	114	1
145	152	1
71	71	2
25	25	2
4	7	1
21	22	1
169	169	1
39	39	3
45	45	3
134	149	1
107	178	1
94	115	1
40	40	1
160	181	1
165	168	1
131	131	1
70	147	1
150	150	1
97	97	2
119	120	1
41	42	1
146	146	1
82	82	1
110	116	1
5	10	1
53	58	1
119	119	1
107	108	1
149	149	3
140	141	2
144	144	1
91	92	1
170	170	1
15	15	3
38	38	1
66	80	1
74	80	3
58	74	1
149	150	1
152	153	2
135	135	1
84	127	1
92	97	1
143	144	1
159	162	1
85	127	1
88	89	1
12	33	1
85	152	1
22	32	1
142	162	1
124	124	1
132	132	1
115	115	3
65	66	1
58	58	3
84	85	1
24	30	1
154	154	1
81	81	2
34	41	1
73	73	1
181	181	1
148	148	3
160	161	1
120	140	2
158	158	1
13	13	1
89	152	1
59	112	1
29	33	1
54	54	1
137	137	1
10	24	1
52	53	1
106	106	1
28	28	1
116	117	1
175	185	1
145	146	1
87	87	1
183	186	1
111	111	1
33	41	1
141	189	1
169	182	1
12	13	1
123	123	1
0	1	2
117	118	1
176	176	2
19	19	1
8	8	2
110	134	1
42	42	1
31	33	1
67	94	1
86	86	1
95	95	1
57	74	1
5	5	2
125	125	2
75	75	2
90	91	1
187	187	2
106	113	1
16	148	1
72	100	1
127	131	1
26	26	1
20	20	1
20	37	1
79	81	1
43	44	1
135	152	1
115	156	1
92	117	1
76	76	2
60	60	1
107	107	1
142	142	1
185	185	1
127	150	1
56	56	1
17	42	2
30	30	1
138	161	1
46	47	1
68	68	1
134	135	1
179	179	1
144	177	1
125	129	1
177	178	2
83	84	1
105	108	1
30	33	1
34	34	1
169	183	1
166	166	1
11	13	1
35	58	1
19	20	1
128	130	2
4	15	1
118	118	1
171	171	1
76	146	1
100	100	1
93	93	1
166	168	1
127	127	1
3	4	1
127	171	1
22	22	1
44	46	1
147	147	1
27	29	1
101	102	1
178	181	1
