65	80	1
106	106	2
128	128	3
109	111	1
123	123	2
35	36	1
120	133	1
124	130	1
45	47	1
133	133	1
90	111	2
114	114	1
22	22	1
107	107	1
44	60	1
130	130	3
13	13	4
97	97	3
24	24	3
59	88	1
11	11	3
82	82	4
5	11	1
88	88	2
45	45	5
131	131	1
66	66	1
94	95	1
105	105	4
23	24	2
26	26	4
33	34	1
73	73	3
107	112	1
116	116	2
98	98	1
69	69	1
29	29	2
17	17	4
95	95	2
129	133	1
102	102	3
86	119	1
0	1	1
37	37	3
67	85	1
83	84	1
4	4	1
72	72	1
127	127	1
18	23	1
54	54	2
12	13	3
6	6	1
96	96	2
4	5	1
134	134	2
109	109	2
49	49	3
71	71	3
4	34	3
35	35	3
87	111	2
15	15	2
30	30	1
108	110	1
65	65	2
8	20	1
125	125	3
94	94	2
91	92	1
48	102	1
129	129	1
112	112	2
20	32	1
57	57	2
90	90	1
43	43	3
18	18	2
27	27	1
28	28	2
3	14	1
81	81	2
8	28	1
1	21	1
119	119	1
45	68	1
29	30	2
57	59	1
100	100	2
3	6	1
14	14	4
7	9	1
61	61	2
79	79	1
62	62	3
79	119	1
124	125	1
67	72	1
111	112	1
76	76	1
0	29	1
58	108	1
89	89	1
31	31	1
7	7	2
37	38	1
54	57	1
86	129	1
58	86	1
103	103	2
96	97	1
52	52	1
85	119	2
99	99	1
32	32	2
118	118	3
1	11	1
25	25	1
2	13	1
10	10	2
94	99	1
87	87	3
108	108	2
122	124	1
5	26	1
53	53	1
44	44	2
15	17	1
126	126	2
90	97	1
49	50	1
104	104	1
84	85	2
50	92	1
115	115	1
91	91	2
83	83	1
13	14	2
7	11	1
122	122	3
19	19	1
26	29	1
126	127	1
59	59	1
55	55	1
57	58	2
112	127	1
78	78	1
28	29	1
3	24	1
0	0	1
33	33	2
104	105	1
89	112	1
72	73	1
61	62	1
44	45	2
18	20	1
87	108	1
16	16	1
51	52	1
0	30	1
50	50	4
27	29	1
44	59	1
106	114	1
48	71	1
70	72	1
63	109	1
133	134	1
23	25	1
20	20	1
80	113	1
135	135	1
3	3	1
92	92	1
111	111	1
9	24	1
8	25	1
113	113	1
117	117	1
