91	91	3
35	36	1
39	39	1
85	134	1
16	18	2
19	19	6
54	54	1
19	20	1
18	18	3
46	46	2
16	16	6
63	72	1
117	117	3
107	107	3
30	37	2
127	131	1
86	86	1
97	103	1
131	131	4
33	33	2
116	116	1
31	31	2
45	45	1
112	112	1
24	24	5
6	6	1
61	61	1
79	116	1
120	121	1
85	85	1
110	110	1
0	0	2
14	14	1
108	108	3
0	131	1
30	30	2
73	74	1
11	11	5
72	86	1
64	64	3
130	131	1
127	127	1
15	15	2
90	90	1
113	113	2
37	37	2
42	43	1
13	15	1
17	18	2
5	65	1
104	109	1
86	87	1
16	19	1
23	23	3
103	105	2
54	55	1
58	58	2
64	65	2
16	86	1
69	71	1
12	12	2
36	37	1
24	39	2
75	75	1
74	74	2
65	65	2
40	43	1
121	121	4
12	17	2
73	73	2
66	66	3
123	123	2
107	112	1
72	72	1
98	98	1
95	95	3
125	125	2
113	116	2
15	102	1
5	5	1
92	92	3
37	38	1
6	7	1
23	29	1
60	102	1
82	82	1
81	81	2
87	88	2
128	128	2
1	2	2
32	32	1
41	41	2
70	70	3
60	60	2
93	94	2
95	96	1
114	127	1
88	90	1
28	29	1
36	36	1
72	73	1
20	20	1
46	47	1
27	56	1
133	133	1
122	122	3
129	129	1
22	22	2
44	44	2
25	25	3
90	104	1
39	56	1
127	129	2
13	13	1
14	15	1
58	59	1
63	63	1
34	75	1
23	25	2
77	77	1
39	42	1
103	103	2
132	132	1
24	27	1
40	40	1
115	115	1
27	28	2
67	67	1
47	47	2
99	99	1
76	77	2
118	118	1
28	39	1
63	117	1
5	85	1
126	127	1
3	20	1
110	112	2
33	61	1
20	25	1
17	17	2
27	42	1
18	28	1
67	68	1
20	21	1
59	77	1
44	78	1
8	8	3
68	69	1
93	93	1
71	71	1
41	43	1
121	125	1
89	89	1
39	40	1
112	113	1
124	124	1
48	82	1
51	55	1
68	74	1
129	130	1
9	9	1
57	87	1
75	78	1
47	60	1
79	79	1
56	88	1
116	117	1
48	48	1
5	6	1
1	1	1
46	70	1
75	76	1
38	38	1
98	103	1
114	125	1
110	111	1
128	134	1
27	27	1
120	120	1
41	42	1
94	95	1
60	76	1
