111	111	2
8	35	1
105	143	1
129	129	2
88	125	1
141	141	1
78	83	1
5	5	1
102	102	1
30	30	1
100	100	1
67	67	5
48	100	1
41	43	2
9	11	1
46	46	2
122	123	1
84	84	1
149	150	1
42	42	3
53	53	3
54	54	1
54	55	1
142	145	1
47	68	1
43	43	2
24	24	1
17	17	1
95	95	3
72	72	1
4	30	1
15	15	1
13	70	1
77	79	1
24	69	1
27	27	1
55	141	1
84	88	1
62	62	1
22	57	1
94	134	2
35	35	2
34	37	3
42	70	1
148	148	1
28	40	1
50	65	2
72	75	1
77	77	2
45	45	1
16	17	1
67	70	1
64	66	1
122	122	2
79	126	1
73	78	1
123	145	1
106	122	1
88	92	1
83	84	1
150	150	1
3	17	1
21	22	1
72	124	1
26	26	1
53	54	1
85	154	1
69	69	1
18	148	1
7	7	1
56	56	1
4	4	1
81	102	1
118	126	1
135	137	5
65	79	1
83	83	1
127	127	1
138	138	1
40	40	2
79	79	1
145	150	1
126	126	1
69	121	1
95	103	1
27	28	3
67	82	1
94	107	1
92	107	1
44	85	1
115	117	1
101	117	1
64	64	1
43	45	1
128	128	1
71	135	1
3	3	1
16	52	1
72	103	1
75	77	1
136	136	2
118	118	1
38	38	1
9	20	1
42	73	1
19	19	2
110	110	1
50	50	1
152	152	1
100	103	1
11	11	1
21	21	1
120	137	1
49	65	1
34	44	1
133	135	1
142	142	1
27	29	1
44	44	1
47	47	1
33	37	1
66	66	1
131	131	1
83	103	1
101	118	1
139	144	1
135	135	1
14	14	3
119	119	1
8	8	2
76	76	1
23	23	1
55	67	1
48	53	1
120	131	1
66	80	1
31	117	2
14	19	1
102	103	2
72	93	1
9	9	1
131	141	1
78	78	1
6	6	1
117	118	1
74	153	1
70	70	1
87	87	1
139	145	1
137	147	1
94	105	1
39	39	1
50	71	1
87	99	1
44	73	1
23	106	1
64	67	1
13	13	1
115	115	1
84	86	1
11	13	1
132	132	1
73	107	1
121	121	1
41	52	1
127	128	1
43	130	1
51	51	1
107	109	1
132	139	1
3	27	1
109	109	1
114	116	1
73	73	1
76	127	1
22	23	1
35	36	1
16	21	1
64	101	1
74	95	1
138	139	1
