19	19	2
152	154	1
230	239	1
180	180	2
15	15	4
233	233	4
23	51	1
119	208	1
3	3	1
228	228	3
153	153	2
139	143	1
1	161	1
102	102	3
22	31	1
46	46	5
56	56	2
6	28	1
98	99	2
143	144	2
145	145	3
27	27	5
157	157	2
59	66	1
241	241	1
182	182	6
11	11	2
12	134	1
39	39	4
21	36	2
222	234	1
108	108	1
22	22	1
67	67	1
141	142	1
219	222	2
95	105	1
23	23	3
148	148	2
177	193	2
220	224	2
134	150	2
54	134	1
169	187	1
40	40	3
133	153	3
100	140	1
30	56	1
65	65	3
121	121	2
217	218	1
215	215	2
70	71	1
51	83	3
127	128	1
124	124	1
173	173	1
99	177	2
207	230	1
143	200	2
135	135	3
188	188	1
235	236	3
187	211	2
85	85	1
88	89	1
134	134	3
190	190	2
13	14	4
183	194	3
127	127	1
72	72	4
83	150	1
178	178	4
141	156	1
155	155	2
123	123	4
164	184	1
97	175	1
49	51	2
123	124	2
16	221	1
85	206	1
207	212	1
200	201	2
103	103	3
197	213	1
14	48	1
29	85	3
235	237	1
162	164	1
194	197	1
143	143	1
181	183	2
24	238	1
134	158	1
162	203	1
0	1	2
43	43	4
104	105	2
118	118	1
164	165	2
175	176	1
181	181	2
162	162	1
83	83	1
172	172	1
33	66	2
220	225	2
236	238	1
16	53	1
64	64	1
142	148	1
117	121	1
156	161	2
14	14	2
226	226	2
44	158	1
209	211	1
40	47	1
168	168	3
174	174	2
137	138	1
28	28	1
40	48	1
59	59	1
237	237	2
186	187	1
1	67	1
140	145	1
68	68	3
157	168	1
125	126	1
100	100	1
149	159	1
221	221	3
201	220	1
205	211	1
80	80	1
52	77	1
170	170	4
62	84	2
129	129	2
231	231	2
10	10	2
176	176	1
69	69	3
219	219	5
72	73	1
7	16	1
188	190	1
235	235	1
95	95	1
116	126	1
78	79	1
204	209	2
25	84	1
122	122	3
58	58	3
59	60	3
45	45	2
106	107	2
80	84	1
141	141	3
12	12	2
23	36	1
201	205	1
223	223	2
145	146	1
5	5	1
168	181	1
8	8	3
34	129	3
102	191	2
106	106	2
207	211	1
225	225	1
218	218	2
138	139	2
171	171	1
58	81	1
53	53	2
147	155	2
2	2	2
47	47	2
75	104	1
118	119	1
61	61	2
21	39	1
31	56	1
177	177	1
37	37	2
70	70	2
122	124	1
29	83	1
111	112	1
7	8	1
138	167	1
19	34	2
73	103	1
212	212	1
43	120	1
48	48	4
223	224	1
52	52	3
74	74	2
15	39	1
218	229	1
197	198	1
65	85	1
99	99	2
121	188	1
177	186	1
33	52	1
39	141	1
54	64	1
39	52	1
86	86	2
26	26	3
235	239	2
235	238	1
75	75	1
1	66	1
42	46	1
154	154	2
175	175	1
39	41	2
125	125	4
238	238	2
104	104	1
37	57	1
116	116	1
197	197	1
156	209	1
116	121	1
240	240	3
115	122	1
170	171	1
191	191	1
201	201	1
42	48	2
163	163	2
17	32	1
32	38	2
100	105	1
67	68	2
34	36	2
66	66	3
77	80	1
172	177	2
82	84	1
174	183	1
131	131	1
176	177	1
114	114	2
208	209	1
107	107	1
21	59	1
144	144	1
33	238	2
208	230	1
109	111	1
9	9	1
31	31	1
162	172	1
209	210	1
107	115	1
131	144	1
34	47	1
172	175	2
201	202	2
69	80	1
110	113	1
16	16	1
232	232	1
220	220	1
0	0	3
196	200	1
152	152	1
112	112	2
96	96	2
171	228	2
199	199	3
211	221	1
195	195	1
198	198	2
3	59	1
101	101	2
81	82	1
129	130	1
181	182	1
89	167	1
205	218	1
206	206	2
24	24	2
85	86	1
30	30	1
168	182	1
99	207	1
194	194	1
180	182	1
17	17	1
226	228	1
15	22	2
78	146	1
60	79	1
207	208	2
216	216	1
20	110	1
69	131	1
13	17	2
65	70	1
118	138	1
62	62	1
164	168	2
157	173	1
218	221	1
109	109	2
10	99	1
97	219	1
139	140	2
103	131	1
220	226	1
111	111	1
213	213	1
36	144	1
130	130	1
119	136	1
6	6	3
41	58	1
4	4	1
120	121	1
0	77	1
208	208	1
211	212	2
12	39	1
103	124	1
237	238	2
106	157	1
51	51	1
20	55	1
135	136	1
164	164	1
2	3	2
190	191	1
82	82	2
199	205	1
105	159	1
136	136	2
18	19	1
44	45	1
104	185	1
63	89	1
8	44	1
155	156	1
227	227	1
78	88	1
170	172	1
191	192	1
7	10	2
203	203	1
35	35	1
240	241	2
143	190	1
163	180	1
19	30	1
122	178	1
210	210	2
130	132	1
107	113	1
168	194	1
210	215	1
83	98	1
33	72	1
9	85	1
196	196	1
72	76	1
14	96	1
204	207	1
73	73	2
32	33	1
131	218	1
76	76	1
24	97	1
10	26	1
95	129	1
78	85	1
147	147	1
15	20	1
136	149	1
103	216	1
56	76	1
173	227	1
179	179	1
54	101	1
160	160	1
146	151	1
25	26	1
41	41	1
29	29	3
25	27	1
104	130	1
229	235	1
76	83	1
150	150	1
143	180	1
33	207	1
154	158	1
218	231	1
215	216	1
195	196	1
10	83	1
1	1	3
57	57	1
14	15	1
117	118	1
207	224	1
217	226	1
215	219	1
19	20	1
34	40	1
149	150	1
7	7	2
50	50	1
18	21	2
57	58	1
115	116	1
199	200	1
2	36	1
165	167	1
166	181	1
8	9	1
236	239	1
120	122	1
155	193	1
120	176	1
196	240	1
230	235	1
137	137	1
167	192	1
177	185	1
164	179	1
155	157	1
158	158	1
25	29	1
97	97	1
68	69	1
223	236	1
202	202	2
46	123	1
156	167	1
131	141	1
161	164	1
9	45	1
139	139	1
141	215	1
185	206	1
41	52	1
126	127	1
54	63	1
155	200	1
78	145	1
140	205	1
82	83	1
228	229	1
