31	31	1
152	152	2
48	59	2
192	192	4
40	40	3
143	190	1
227	227	4
38	39	1
42	81	1
203	204	2
236	236	1
173	174	1
218	218	4
30	69	1
5	58	1
181	181	3
122	122	3
15	15	2
20	23	1
114	115	1
75	76	1
48	48	1
189	211	1
73	73	1
120	129	1
58	58	3
28	28	3
116	116	3
199	202	1
42	42	3
33	35	1
24	43	2
12	12	1
181	198	1
11	24	1
108	108	1
32	36	3
121	198	1
231	231	4
241	242	1
128	128	2
62	118	1
40	41	1
205	220	1
80	80	4
25	25	2
82	84	1
194	195	1
76	78	1
231	235	1
148	148	3
75	75	3
44	44	3
139	182	1
150	150	2
233	233	3
184	184	1
51	52	3
149	149	1
127	127	2
111	115	1
217	217	1
121	127	1
114	114	2
204	204	4
86	86	2
220	220	1
46	47	2
96	96	1
147	147	1
83	83	1
101	102	2
20	20	3
200	200	3
45	45	2
199	218	1
64	65	4
23	86	1
19	19	1
12	15	1
223	223	1
3	10	1
81	81	1
163	187	1
81	82	1
68	69	1
154	155	2
49	49	1
164	167	1
226	227	1
54	54	4
19	20	3
168	208	1
175	175	2
11	11	2
114	180	1
198	198	2
90	122	1
43	43	1
164	164	2
225	225	3
123	229	1
11	39	1
164	168	1
161	161	3
99	99	2
123	123	3
190	211	2
109	153	1
191	191	2
212	213	1
224	224	3
21	21	3
237	237	2
55	55	2
65	65	4
239	239	2
118	126	1
36	36	1
35	35	2
206	206	2
228	228	3
24	24	3
116	118	1
178	179	1
42	86	1
178	178	4
8	10	1
76	77	1
172	172	2
238	239	2
109	110	1
111	111	1
133	160	2
143	143	2
138	182	1
27	27	4
166	166	2
3	3	1
213	213	2
118	147	1
199	199	2
16	16	3
10	10	3
144	145	1
109	109	1
26	26	2
117	137	1
233	234	2
55	56	2
41	218	1
56	56	2
104	105	1
135	135	2
50	191	1
6	7	1
236	237	1
118	119	1
18	20	1
159	226	1
43	74	1
170	207	2
230	230	3
29	74	1
105	107	1
18	18	1
187	228	1
60	122	1
107	164	1
129	129	1
214	214	3
102	117	1
113	113	6
181	182	4
32	32	2
134	134	2
88	128	1
82	82	3
51	60	1
2	15	1
35	36	1
155	156	1
3	60	1
105	105	1
84	84	1
167	167	1
151	152	1
145	145	2
158	225	1
139	139	1
238	238	2
240	241	1
70	70	1
8	8	1
208	208	2
46	60	1
102	109	1
43	44	3
85	85	1
148	150	1
38	38	2
52	52	1
27	28	1
17	17	2
165	166	1
196	197	1
125	125	1
240	240	1
40	67	1
13	35	1
174	174	2
129	146	2
108	210	1
20	96	2
182	182	1
169	169	2
42	44	1
57	192	1
158	159	2
215	216	1
29	46	1
56	76	1
22	41	1
232	234	1
221	221	2
53	54	1
162	162	2
167	168	1
119	119	1
121	121	1
61	61	1
54	55	1
227	237	1
98	111	1
0	1	1
139	144	1
106	108	1
124	130	1
207	207	2
9	201	1
102	102	2
48	76	1
196	196	1
201	201	2
126	126	1
216	216	1
7	9	1
148	197	1
161	163	1
171	172	1
100	105	1
42	43	1
0	3	1
157	157	1
160	190	1
6	6	1
59	59	1
201	203	1
97	97	2
118	118	1
232	232	1
175	176	2
58	66	1
180	180	1
187	187	1
115	115	1
183	184	1
26	27	1
50	58	1
141	141	2
114	181	1
121	122	1
185	185	1
195	195	1
166	167	1
130	130	1
39	40	1
147	155	1
170	170	1
30	30	1
191	192	2
201	218	1
172	173	1
159	199	1
33	33	1
222	222	1
120	120	1
21	22	1
163	222	1
183	183	1
116	124	1
193	193	1
112	113	1
46	46	1
74	74	1
200	224	1
29	29	1
159	159	1
11	12	1
54	154	1
40	69	1
163	163	1
203	203	1
103	103	1
106	107	1
113	114	1
171	184	1
99	100	1
69	69	1
138	234	1
148	160	1
188	189	1
202	205	1
202	209	1
0	2	1
133	133	1
39	181	1
127	128	1
177	238	1
88	88	1
137	137	1
41	41	1
