71	71	2
7	7	4
141	176	1
46	46	2
61	61	4
47	48	1
26	26	3
89	151	1
114	114	6
23	43	2
179	179	2
20	50	1
159	159	4
80	86	2
44	44	2
124	124	3
172	172	3
70	81	1
13	13	4
166	166	4
21	175	1
87	87	2
100	119	2
136	142	1
20	20	4
104	104	1
94	94	1
117	117	2
152	172	1
129	129	6
103	121	2
24	25	1
18	65	2
174	175	1
95	96	1
145	150	1
113	113	2
110	110	2
36	36	2
85	98	1
0	67	1
181	181	5
197	197	1
9	9	4
54	56	1
59	60	2
66	67	1
50	82	1
59	59	2
100	100	2
7	8	4
112	129	1
179	180	1
135	135	1
105	142	1
63	63	1
99	118	1
141	141	2
49	52	1
178	178	1
73	73	2
12	13	1
68	68	2
15	161	3
182	188	1
67	67	1
15	15	5
178	180	1
146	146	1
147	147	1
121	122	2
105	114	1
165	165	1
75	77	1
194	194	1
155	155	2
186	187	1
45	45	6
57	127	1
41	137	1
27	77	1
53	67	1
0	74	1
20	28	2
65	65	6
14	26	1
151	151	3
11	18	1
180	182	1
178	187	1
25	32	2
4	4	3
70	75	1
107	107	4
64	65	2
98	98	3
183	183	2
81	81	3
93	93	1
135	138	2
150	151	1
136	136	3
100	101	3
132	132	3
38	38	4
28	38	2
76	76	6
40	40	2
70	70	6
28	28	4
48	48	1
169	169	3
187	187	6
53	57	1
36	67	1
35	41	1
9	10	2
167	179	1
84	84	1
102	102	3
156	156	2
32	32	6
53	64	1
1	1	3
177	180	4
13	29	1
83	117	1
12	12	2
171	171	2
119	143	1
145	145	3
159	181	1
27	27	5
88	89	2
61	111	1
96	96	2
145	146	1
167	167	2
168	168	1
18	18	2
155	170	2
54	55	1
121	121	2
177	177	3
4	12	1
79	79	2
60	60	1
43	43	1
115	115	4
53	53	1
47	185	1
61	113	2
165	168	1
105	105	4
195	195	1
33	36	1
88	88	2
49	49	3
139	139	6
52	52	3
122	122	2
139	150	1
36	87	1
22	22	2
170	170	5
35	55	2
85	86	1
50	51	2
21	28	1
148	169	1
161	179	1
157	158	2
24	24	3
86	86	2
142	142	1
153	153	2
107	112	2
48	50	1
5	5	2
35	35	1
16	18	1
183	184	1
16	16	2
31	31	2
39	39	4
85	85	1
83	83	1
9	13	1
74	75	1
137	137	1
131	131	2
3	3	4
187	188	1
64	82	2
54	60	1
10	10	1
1	2	1
125	127	1
144	144	2
78	82	3
66	78	1
14	14	1
33	40	1
118	118	1
114	144	1
57	171	1
13	14	1
58	58	3
80	80	1
33	33	4
14	45	1
94	97	2
140	140	4
40	79	1
27	44	1
79	80	2
48	49	2
150	185	1
161	161	5
29	34	1
132	133	1
196	196	2
39	40	1
150	150	2
27	28	1
142	156	1
93	94	1
174	174	2
99	111	1
148	154	2
184	184	2
114	115	1
30	30	1
163	163	1
7	136	1
30	34	1
158	158	5
97	97	1
156	184	1
180	193	1
55	55	4
43	44	1
132	140	1
55	70	1
110	115	2
7	86	2
159	175	1
130	133	1
120	172	1
35	47	1
119	119	1
175	175	2
161	162	2
164	165	2
65	66	1
186	186	1
87	172	1
134	150	1
57	57	2
152	181	1
74	74	4
128	128	2
193	194	2
79	90	1
61	85	1
25	26	1
123	125	1
80	176	1
1	175	1
94	132	1
111	111	1
168	169	1
112	112	2
103	103	1
26	42	2
77	78	1
118	154	1
9	12	1
190	191	2
174	181	1
71	72	1
20	137	1
64	96	1
157	157	2
144	145	1
127	127	2
73	82	1
22	37	1
193	193	1
2	2	2
119	159	1
18	190	1
143	144	1
51	51	2
9	29	1
78	106	1
176	177	1
30	75	1
38	134	1
126	127	1
184	185	1
120	120	1
170	171	1
6	93	1
89	97	1
34	62	1
178	179	1
176	187	1
1	18	1
170	173	1
177	181	2
34	34	1
108	108	1
37	57	1
113	130	1
84	96	1
8	88	1
5	8	1
64	66	1
8	8	3
116	117	1
182	182	2
189	189	1
29	31	1
130	130	1
149	164	1
27	190	1
73	81	1
68	69	1
185	186	2
136	188	1
85	97	1
59	61	2
110	149	1
106	113	1
13	80	1
104	106	2
23	23	2
110	117	1
31	166	1
196	197	1
64	72	2
65	82	1
5	6	1
147	152	1
32	62	1
169	185	1
107	108	1
57	138	1
145	147	1
16	17	1
60	78	1
138	150	1
133	146	1
70	113	1
51	52	1
191	193	1
89	89	1
158	174	1
27	65	1
58	60	1
157	172	1
60	61	1
24	26	1
80	144	1
134	148	1
169	171	1
27	51	1
112	113	1
182	185	1
109	110	1
42	42	1
69	69	1
139	146	1
9	75	1
84	110	1
33	39	1
24	40	1
98	107	1
51	132	1
108	149	1
65	67	1
76	86	1
