31	39	3
24	26	1
110	110	1
37	37	2
32	35	1
8	10	1
9	9	2
29	79	1
112	131	2
83	96	1
74	74	2
45	46	7
6	32	1
57	62	1
34	35	1
8	47	1
93	111	2
63	63	4
123	124	6
105	105	4
117	117	3
62	62	3
51	51	1
27	27	4
116	116	3
74	76	1
8	36	1
104	107	1
78	78	3
90	90	1
82	93	2
4	4	3
68	68	2
111	124	1
11	11	4
58	122	2
13	46	1
15	15	1
47	47	5
20	20	2
4	11	1
79	115	1
66	66	4
67	75	1
25	107	1
86	95	1
40	49	1
128	128	1
97	97	2
126	126	2
92	92	1
4	125	1
101	103	1
25	25	4
83	85	1
87	88	2
79	110	2
39	39	2
29	55	1
43	44	2
79	79	3
65	65	1
127	127	2
118	118	2
4	5	4
129	129	2
92	109	1
35	35	3
128	129	1
96	96	2
120	120	1
111	111	1
44	45	2
134	134	1
80	80	2
36	36	4
70	70	2
8	8	2
84	84	2
119	130	1
100	100	3
88	133	1
24	24	1
37	38	4
76	77	1
120	121	1
103	103	3
39	41	1
94	113	1
64	64	5
131	133	1
103	104	2
98	98	1
132	132	3
124	124	1
26	36	1
125	125	3
23	23	1
78	121	1
107	108	2
117	119	1
45	49	1
101	105	1
84	86	1
121	122	1
87	87	3
71	72	1
110	126	1
101	102	2
4	77	1
57	73	1
73	77	1
86	87	1
43	43	2
22	22	1
6	7	1
1	2	1
12	15	3
17	19	1
57	57	5
93	112	1
50	50	1
45	45	2
109	109	1
27	38	1
67	67	5
106	106	1
32	39	1
99	106	1
95	96	1
55	81	1
91	91	2
107	107	2
91	113	1
79	89	2
102	102	1
7	7	2
61	61	1
86	86	2
78	112	1
95	95	3
122	127	1
18	18	4
81	81	2
7	8	1
36	38	1
29	31	1
129	130	1
23	24	1
76	76	1
133	133	2
73	73	2
45	79	1
6	20	1
94	97	1
75	75	2
93	93	1
74	75	1
21	21	1
41	42	2
118	121	1
57	76	1
77	78	2
96	105	1
26	41	2
123	123	1
22	23	1
59	59	1
31	31	2
33	34	1
30	30	1
96	106	1
125	129	1
67	92	1
26	26	1
104	104	1
63	111	1
48	48	1
106	119	1
113	115	1
44	70	1
19	20	1
35	36	1
97	107	1
44	57	1
38	38	1
34	34	2
108	120	1
20	86	1
88	88	1
115	115	1
33	33	1
89	89	1
106	107	1
29	29	1
105	106	1
34	62	1
79	81	1
40	40	1
13	14	2
35	77	1
87	111	1
46	46	2
124	125	1
120	122	1
51	55	1
119	119	1
82	83	1
26	27	1
78	79	1
1	47	1
81	114	1
16	17	1
60	60	1
7	20	1
127	129	1
100	132	1
26	31	2
131	132	1
99	99	2
88	90	1
82	90	1
36	115	1
125	126	1
122	123	1
71	71	1
44	44	2
7	10	1
69	69	1
114	115	1
63	65	1
85	85	1
23	57	1
93	130	1
25	28	1
85	86	1
5	134	1
21	25	1
105	123	1
36	40	1
42	43	1
