27	27	7
90	90	3
107	107	4
132	132	4
84	84	5
81	81	2
140	140	2
125	125	3
26	26	3
120	120	3
137	137	5
34	35	1
101	112	1
128	138	1
88	89	2
116	116	7
35	35	7
17	17	2
97	98	1
95	95	2
77	78	1
86	86	1
102	102	4
104	104	3
130	130	4
29	30	1
124	130	1
129	129	6
83	83	5
73	73	5
21	21	1
139	139	3
2	2	3
113	114	2
24	26	1
16	16	5
19	37	1
124	124	4
103	104	2
131	131	2
128	129	1
113	116	1
89	89	3
103	103	3
74	74	3
112	112	7
73	74	1
96	96	2
72	72	4
133	135	1
90	122	2
30	30	1
121	121	3
113	113	3
32	33	1
99	99	4
74	112	1
20	21	1
108	108	3
135	135	2
5	5	3
95	99	1
73	80	1
71	79	1
128	128	2
31	31	2
26	27	1
21	30	1
109	109	4
7	8	1
21	33	2
117	117	1
90	95	2
105	105	1
91	116	1
3	3	1
7	7	2
97	97	2
123	140	2
117	118	2
10	12	3
32	32	5
75	76	1
11	12	2
126	126	6
101	101	4
79	79	2
98	98	3
20	20	2
78	78	2
118	118	3
87	89	1
88	88	4
29	29	3
80	80	2
100	111	1
17	23	1
129	130	1
87	87	4
1	1	4
91	124	1
119	119	4
23	24	1
75	75	3
72	73	1
100	101	1
90	99	1
18	26	1
36	37	2
78	80	1
33	33	3
130	131	1
120	122	2
114	114	4
111	111	3
4	4	2
83	122	1
14	14	3
17	18	1
92	92	6
81	82	1
22	26	1
114	115	2
89	138	2
104	105	1
34	34	4
87	122	2
23	23	1
24	25	2
1	2	1
15	31	2
77	80	1
38	38	1
91	91	2
13	13	2
117	119	1
76	76	1
2	32	1
90	91	1
89	90	1
100	100	2
19	20	1
72	99	1
11	11	1
24	24	1
80	81	1
107	117	1
123	123	2
104	108	1
122	123	1
92	93	1
103	107	1
92	116	1
77	77	1
122	122	1
138	138	2
136	137	1
93	94	1
0	31	1
33	34	1
19	19	1
22	24	1
74	75	1
97	100	1
86	97	1
76	78	3
37	37	1
14	16	1
33	35	1
17	121	1
4	5	1
16	17	1
107	114	1
0	32	1
104	106	1
81	85	1
127	127	1
118	122	1
110	110	1
28	29	1
8	75	1
132	133	1
8	8	1
79	80	1
108	124	1
116	118	1
121	123	1
14	43	1
1	6	1
82	82	1
97	99	1
10	10	1
37	38	1
115	115	1
