72	128	1
47	47	5
21	105	1
110	110	1
69	69	2
92	92	5
139	139	3
98	98	3
40	40	2
55	55	1
66	69	1
45	45	5
67	152	1
4	4	2
14	16	1
32	33	1
27	27	4
56	56	2
35	36	3
30	36	1
65	65	2
44	44	2
94	94	1
95	95	1
8	8	5
126	126	1
68	68	5
6	7	2
34	82	1
38	38	3
127	127	4
32	32	2
48	48	4
71	71	1
46	46	2
46	67	1
99	99	4
66	67	2
75	98	1
122	122	3
131	133	2
117	141	1
158	158	1
90	90	1
103	120	2
105	105	1
140	140	5
30	30	4
31	43	2
96	96	2
72	98	1
30	75	1
99	103	2
116	116	4
54	54	2
1	1	2
124	124	2
84	85	1
43	43	5
150	150	1
9	24	1
54	55	1
70	71	2
154	154	5
3	3	4
118	119	4
19	19	6
72	72	1
83	83	2
16	18	1
36	37	1
40	42	1
73	73	3
129	129	2
137	138	2
14	14	2
81	81	4
77	77	1
132	132	2
15	16	1
82	82	2
148	148	1
16	19	2
153	154	3
120	120	1
89	89	1
144	153	2
2	2	3
141	141	2
130	130	3
94	144	1
5	5	6
80	80	2
117	117	1
63	64	4
31	103	1
56	67	1
64	64	1
2	111	1
136	136	2
28	28	2
150	154	1
100	100	3
5	6	1
111	111	5
6	6	1
133	134	1
37	37	2
85	85	2
129	130	1
70	70	3
55	57	1
0	0	3
135	152	1
157	157	3
103	104	3
87	96	1
113	113	2
155	155	2
93	94	1
73	128	1
87	87	4
108	108	2
75	75	1
144	144	2
18	18	2
99	100	1
18	75	1
8	24	1
104	130	1
53	55	1
102	107	1
13	14	1
52	53	1
87	89	1
77	116	2
48	49	1
157	158	1
142	142	1
125	125	1
38	86	1
112	112	1
121	122	1
18	50	1
90	91	2
35	35	2
66	66	2
3	21	1
146	146	1
137	137	1
111	115	1
26	26	2
86	86	2
134	134	1
50	53	1
15	15	1
14	111	1
104	129	1
109	110	2
93	93	2
16	16	1
25	25	1
138	139	1
113	122	1
26	30	1
41	41	1
7	7	2
79	123	1
152	153	1
31	31	4
106	106	2
42	42	1
27	28	1
131	144	1
151	151	1
139	140	1
91	144	1
152	154	1
4	8	1
12	12	1
126	143	1
13	15	1
18	55	1
107	107	3
33	33	2
126	156	1
84	116	1
33	34	1
100	107	1
140	141	1
110	118	1
138	138	1
39	150	1
15	111	1
101	101	1
147	155	1
111	113	1
149	150	1
39	39	2
3	8	1
11	88	1
30	39	1
156	156	1
71	158	1
143	144	1
141	143	1
50	56	2
79	79	1
131	132	1
7	40	1
57	57	1
16	17	1
25	26	1
52	67	1
105	123	1
36	36	1
103	123	1
87	92	1
53	54	1
20	21	1
129	132	1
88	88	1
77	123	1
24	24	1
22	22	1
97	107	1
26	27	1
123	135	1
11	31	1
91	92	1
