71	72	4
72	72	3
53	69	1
5	5	4
25	25	3
30	30	4
45	69	1
32	64	2
127	127	1
123	123	1
14	78	1
3	3	6
64	134	1
120	121	1
126	126	2
1	4	1
4	4	1
12	12	2
124	124	5
16	16	2
31	31	3
34	34	2
18	18	1
63	64	2
85	85	3
70	70	2
114	114	2
95	96	1
84	84	1
34	35	1
33	33	1
0	1	1
104	105	2
69	69	4
88	89	1
59	60	1
8	9	2
87	87	1
95	95	2
52	52	4
109	109	1
132	132	4
26	26	2
96	99	1
117	117	2
116	118	1
132	133	2
101	102	1
24	24	2
35	81	1
69	70	1
21	30	1
57	59	2
27	28	1
71	71	4
72	96	1
78	87	2
11	15	1
127	128	1
13	14	2
118	118	1
14	14	1
15	109	1
11	11	3
62	62	4
131	131	2
15	15	4
119	119	4
37	37	1
122	123	1
22	24	1
121	121	3
112	114	1
79	79	5
95	97	2
122	122	3
116	116	3
96	97	1
125	129	1
91	92	1
108	108	1
80	80	2
125	127	1
82	109	1
69	105	2
109	110	1
63	63	1
1	1	4
112	112	4
115	117	1
117	123	1
29	29	1
99	99	1
87	88	1
60	60	1
92	92	4
5	6	1
101	101	1
30	63	1
12	15	1
129	129	3
76	79	1
50	50	2
10	10	1
82	82	3
92	100	1
102	102	1
22	22	1
78	79	1
33	95	1
27	27	1
33	36	1
111	112	1
21	22	1
12	13	1
78	110	1
133	133	1
64	64	2
54	113	1
10	11	2
23	29	1
62	63	1
44	44	1
26	27	1
73	74	2
81	95	1
125	125	1
1	77	1
6	6	1
92	101	1
38	38	1
122	129	1
61	61	2
88	88	1
35	35	2
19	20	1
80	124	2
44	45	1
126	127	1
13	126	1
96	109	1
60	61	1
16	37	1
70	105	3
6	44	1
104	104	2
49	49	1
65	65	1
91	91	2
24	25	1
80	88	1
89	89	1
81	85	1
114	115	1
75	75	1
97	98	1
80	96	1
25	27	1
31	111	1
45	81	1
90	90	2
12	104	1
68	68	1
83	83	1
103	103	2
57	85	1
67	67	1
72	73	1
79	80	1
96	96	1
84	127	1
28	28	1
28	29	1
90	91	1
115	116	1
48	112	1
44	111	1
113	114	1
8	10	1
