5	10	2
16	16	4
174	174	3
79	94	1
173	174	1
57	58	2
129	129	2
1	31	1
130	130	7
114	128	1
154	154	5
12	12	4
85	92	1
133	133	5
95	96	2
107	107	2
8	38	1
62	62	3
1	1	3
159	159	5
37	96	1
102	102	3
20	26	1
143	143	7
139	153	1
122	123	1
68	68	4
126	140	1
116	117	3
25	73	1
8	13	2
80	80	1
58	58	4
169	171	2
35	44	1
106	106	1
155	162	1
90	90	3
13	13	2
119	120	1
3	12	1
151	152	1
37	66	1
170	173	1
59	60	1
125	125	2
114	129	1
45	45	2
101	101	3
91	109	1
115	115	2
92	92	4
83	83	2
108	108	3
80	93	2
76	76	1
74	74	5
3	3	1
134	134	3
107	122	1
123	123	4
113	113	3
41	79	1
152	162	1
128	128	2
142	168	1
64	64	4
15	15	2
97	97	7
3	4	1
83	118	1
148	148	4
85	119	2
14	14	2
161	161	2
105	105	1
164	164	1
16	113	1
9	9	3
110	110	1
107	116	1
36	36	4
37	37	4
63	63	6
2	2	2
61	61	4
72	73	1
9	23	1
126	126	1
147	147	2
168	168	2
91	91	3
10	33	1
163	164	1
10	10	1
103	104	2
6	20	1
41	41	3
100	100	1
133	176	1
152	152	2
108	126	1
84	84	3
56	56	2
23	23	1
31	32	1
2	21	1
10	13	3
121	122	2
148	159	1
37	68	2
93	104	1
95	101	2
34	34	3
20	20	1
3	29	1
145	146	4
41	49	1
104	104	2
116	121	1
27	31	1
139	139	3
155	161	1
127	127	5
41	44	1
158	158	4
16	38	1
23	143	2
72	72	2
7	15	1
5	5	2
117	125	1
44	44	6
112	134	1
117	119	1
160	160	4
9	10	1
1	2	1
111	111	4
6	6	1
49	50	1
164	178	1
145	149	1
135	141	1
58	87	1
55	57	1
77	77	1
108	109	1
146	146	4
114	118	1
153	153	4
5	6	1
150	150	2
166	167	1
87	87	2
92	103	1
40	40	1
142	156	1
4	177	1
117	117	3
54	100	1
64	67	1
76	79	1
12	23	1
118	118	1
142	142	2
106	172	1
21	44	1
88	88	3
149	149	2
29	29	1
78	79	1
96	154	1
94	103	1
54	75	1
172	172	7
7	7	1
122	122	2
98	180	1
140	140	3
59	59	4
33	33	2
157	178	1
52	53	1
31	31	4
123	151	1
65	76	1
81	135	1
124	124	4
142	145	2
73	73	3
79	80	1
75	75	2
28	29	1
53	81	1
112	112	4
66	67	2
139	154	1
91	144	1
33	131	1
152	155	1
162	162	5
0	1	1
5	34	1
18	19	1
54	55	1
54	104	1
62	79	1
80	90	1
169	170	1
128	144	1
138	138	1
158	159	1
11	11	2
94	121	1
110	111	1
176	176	4
27	39	1
111	162	1
96	96	4
111	112	1
38	38	2
131	132	1
16	18	1
124	125	1
80	86	1
114	114	2
53	55	4
85	85	2
103	115	1
134	136	1
119	143	1
10	95	1
115	118	3
94	94	1
87	102	1
151	151	2
60	60	1
83	100	1
171	171	2
167	167	1
34	35	1
65	65	1
0	0	2
96	149	1
135	168	1
157	157	6
8	15	1
20	33	1
71	72	1
52	52	1
51	53	1
179	179	3
59	84	1
121	121	2
159	161	1
120	121	1
2	9	1
136	136	1
42	65	1
148	151	1
41	97	1
50	50	1
151	157	1
167	178	1
73	74	1
144	163	1
121	128	1
147	151	2
95	149	1
142	175	1
180	180	3
147	148	1
168	169	1
6	10	1
68	84	1
134	135	1
144	144	1
131	131	2
138	141	1
19	19	1
54	72	1
135	135	1
4	4	3
35	39	1
0	131	1
165	165	1
136	137	2
166	166	2
78	78	4
90	109	1
170	170	1
43	43	2
95	95	2
143	144	2
149	150	1
9	25	2
155	155	1
32	59	1
137	138	2
55	55	1
86	86	1
9	59	1
142	143	2
42	44	1
20	165	1
84	122	1
50	51	1
13	30	1
62	63	1
118	160	1
176	177	1
11	13	1
35	45	1
139	143	1
159	160	1
17	42	1
22	22	1
49	49	1
1	3	1
104	105	1
150	179	1
22	39	1
66	66	3
103	103	2
145	145	1
85	97	1
169	169	1
67	71	1
132	133	1
39	40	1
79	79	1
86	87	1
38	54	1
155	156	1
39	39	1
57	140	1
85	88	1
144	164	1
176	179	1
111	158	1
120	120	1
83	157	1
113	114	1
26	30	1
143	145	1
152	153	1
173	173	2
122	124	1
92	101	1
1	9	1
96	97	1
1	44	1
166	180	1
115	178	1
157	164	1
93	94	1
8	180	1
81	104	1
103	125	1
99	99	1
159	175	1
137	137	1
27	40	1
89	89	1
72	79	1
30	52	1
17	22	1
127	163	1
11	22	1
36	37	1
127	128	1
82	82	1
2	17	1
27	29	1
106	107	1
162	172	1
61	62	1
65	135	1
18	18	1
25	27	1
