134	134	2
112	112	7
135	135	2
79	79	3
81	123	1
122	136	1
26	26	5
92	119	1
23	103	1
60	62	2
38	38	2
27	27	3
11	39	1
4	35	1
101	101	8
95	95	1
90	91	1
112	116	1
17	17	3
97	98	3
99	120	2
59	59	1
56	56	2
34	34	4
111	111	5
0	134	1
8	25	1
144	144	3
12	110	1
42	42	2
93	94	2
47	47	3
13	19	2
85	85	1
116	116	1
72	78	1
6	13	1
140	140	2
26	118	1
12	32	1
13	43	1
22	22	4
53	66	2
67	74	1
115	115	2
21	25	1
132	132	2
86	87	1
58	58	1
10	19	2
49	74	1
40	106	1
77	77	5
57	93	1
50	123	1
20	20	4
21	21	2
99	99	4
63	80	3
17	85	1
13	33	1
64	64	2
94	94	3
39	65	1
110	110	2
11	11	2
130	130	1
37	55	1
69	94	1
65	65	1
66	66	4
23	24	1
75	75	1
72	72	4
18	19	1
37	37	2
8	11	1
69	105	1
27	93	1
60	106	1
146	146	1
117	117	2
76	76	2
125	125	4
92	108	1
111	133	2
79	80	2
80	81	1
22	78	1
33	35	1
119	121	1
13	17	1
95	101	1
15	16	2
122	122	2
9	87	1
102	102	1
6	6	2
61	61	2
25	25	1
96	96	2
64	103	1
18	18	4
97	97	8
10	22	1
15	17	1
100	104	1
120	132	1
109	109	1
82	82	1
73	73	1
125	126	1
84	84	3
108	108	2
87	87	2
18	63	1
29	131	2
123	131	1
56	63	1
64	91	1
17	24	1
70	70	2
69	69	1
55	57	1
95	121	2
80	85	1
104	141	1
53	54	1
36	36	1
81	81	3
124	125	1
52	52	4
126	126	3
99	101	1
62	62	1
56	79	1
57	59	1
3	3	1
8	8	3
141	142	1
15	15	1
15	89	1
11	18	1
110	117	1
68	70	1
130	131	1
67	70	1
120	121	1
60	60	2
78	83	1
24	26	2
31	40	1
91	91	3
137	137	2
66	82	2
133	133	4
122	128	1
65	66	1
122	125	1
20	25	1
9	42	1
27	28	1
64	115	1
10	26	1
15	18	1
58	93	1
40	40	1
26	80	1
106	110	1
145	145	1
10	10	1
19	39	1
132	134	1
107	107	1
129	131	1
138	138	1
127	130	1
5	5	1
39	39	1
121	136	1
13	13	1
92	92	2
133	135	1
58	59	1
37	39	1
62	68	1
91	92	1
119	119	1
8	66	1
77	78	1
27	135	1
4	4	1
120	120	2
68	91	1
81	87	1
41	41	1
94	95	1
23	23	1
17	18	1
139	139	2
54	102	1
32	32	3
11	29	2
39	41	1
127	131	1
14	73	1
54	66	1
96	97	1
79	96	1
71	71	2
19	91	1
10	23	1
124	124	2
64	118	1
119	127	1
95	116	1
11	27	2
127	135	1
82	129	1
39	40	1
93	93	1
129	129	1
23	27	1
53	53	1
76	77	2
30	30	1
107	125	1
74	102	1
70	102	1
94	98	1
113	113	1
54	54	1
118	120	2
142	142	1
131	133	1
15	88	1
82	128	1
32	35	1
51	111	1
89	90	1
42	71	1
27	67	1
55	55	1
16	16	1
123	123	1
106	106	1
128	129	2
71	72	1
66	69	1
94	134	1
131	135	1
54	75	1
54	72	1
74	74	1
81	98	1
90	116	1
59	106	1
136	137	1
57	76	1
18	50	1
12	34	1
35	37	1
14	100	1
33	33	1
85	127	1
63	79	1
