47	48	1
15	15	3
166	217	1
146	152	1
154	154	3
238	238	1
231	236	1
245	245	4
205	205	4
212	245	3
192	192	3
106	106	2
26	26	7
40	40	4
186	188	2
71	71	2
116	116	1
29	52	1
23	29	1
165	195	2
117	117	7
209	211	1
215	215	2
201	201	7
50	50	2
63	73	2
155	155	2
169	169	4
179	193	1
44	44	6
60	60	11
78	78	2
115	116	1
61	82	1
112	112	3
20	20	3
74	74	4
43	43	2
242	242	1
207	211	1
63	64	3
230	230	1
152	152	1
0	111	1
33	36	1
5	5	3
154	156	1
33	33	2
213	213	1
212	212	8
189	190	2
82	82	7
72	72	3
110	110	2
176	176	2
86	86	2
157	213	2
170	171	2
75	103	1
228	231	1
190	191	1
240	240	3
225	231	2
105	105	2
9	11	1
7	7	5
176	178	2
12	12	5
198	198	3
200	238	1
223	233	1
70	70	4
63	63	3
100	102	1
67	67	4
23	60	1
216	216	2
180	181	4
58	61	1
203	203	1
228	229	1
101	101	5
175	177	1
41	42	2
171	171	7
162	183	1
179	179	1
27	27	4
80	81	2
87	87	3
34	36	1
10	10	4
218	219	4
32	32	4
180	180	4
175	204	1
177	177	4
241	241	3
39	39	2
34	34	2
110	111	3
79	79	5
239	239	2
84	85	1
114	114	1
222	223	1
149	149	1
42	43	2
28	28	5
69	69	6
156	157	1
228	228	1
146	146	2
73	73	4
63	150	1
193	240	1
235	236	2
211	212	2
31	211	2
170	170	2
47	50	2
161	161	2
24	24	5
61	61	2
23	23	7
22	22	3
98	98	3
66	66	3
191	191	3
17	17	3
18	18	3
65	65	4
183	183	2
120	145	1
234	244	1
108	108	3
224	224	2
93	93	1
165	166	2
115	118	1
88	88	3
178	178	3
32	38	1
21	21	3
111	111	3
199	199	5
158	209	1
4	4	3
51	153	1
236	236	3
6	6	3
103	104	1
145	145	3
51	52	1
195	195	4
76	77	2
59	60	2
31	33	1
102	102	3
231	231	4
56	98	1
208	208	1
59	86	1
187	188	3
32	33	1
185	186	3
7	94	2
193	193	3
57	57	1
89	89	2
76	76	3
115	115	5
229	229	4
25	213	1
38	39	2
30	221	2
2	2	2
119	119	4
187	187	3
234	234	3
58	106	1
38	38	2
156	160	1
94	94	3
100	101	4
37	48	1
2	7	1
84	84	2
17	37	3
150	151	1
166	166	2
156	156	3
247	247	1
177	181	1
200	200	5
37	37	2
175	175	4
246	246	4
48	113	1
8	8	3
29	35	1
183	184	2
32	160	1
232	232	4
164	164	1
109	109	2
58	58	3
230	244	1
181	182	1
173	173	1
80	80	3
210	211	2
221	221	7
204	204	1
47	47	2
70	161	1
51	51	4
116	117	3
14	15	2
48	56	1
45	45	4
99	99	1
237	237	1
56	57	1
181	181	3
188	190	1
185	185	2
153	153	2
9	9	2
218	218	2
233	233	3
47	94	1
45	47	1
3	3	1
114	168	1
82	83	1
42	42	1
216	217	1
69	70	1
171	173	2
15	28	1
187	193	1
220	220	2
186	186	2
64	64	2
188	188	5
229	230	1
162	162	3
1	3	3
112	205	1
26	27	2
19	19	2
207	207	2
227	231	1
93	94	2
68	72	1
91	91	3
106	107	1
31	31	1
100	100	5
168	168	2
81	81	2
158	168	1
214	214	1
83	83	3
77	77	1
36	41	1
104	105	3
240	241	1
16	48	1
60	104	1
118	118	2
147	150	1
97	98	2
159	159	1
162	167	1
198	199	1
85	86	1
56	56	3
57	58	2
172	172	1
52	52	2
160	160	4
165	165	2
204	216	1
48	48	3
67	84	1
165	171	1
204	212	2
225	225	3
66	67	1
65	105	2
62	64	1
243	243	1
211	211	2
112	113	2
10	27	1
14	14	3
92	92	1
9	12	1
11	11	1
30	30	2
220	236	1
196	196	2
96	117	1
244	244	3
25	101	1
43	159	1
72	96	1
169	171	1
248	248	1
174	207	1
25	25	1
75	75	2
151	154	1
202	203	2
203	205	1
90	90	1
46	46	2
46	47	1
226	226	2
213	214	1
18	20	1
247	248	1
232	233	3
30	218	1
194	194	1
190	190	3
29	29	1
36	48	1
169	193	2
175	176	1
80	119	1
114	115	2
239	248	1
53	53	2
41	41	1
171	172	2
118	160	1
220	222	2
42	47	2
97	99	1
234	236	1
210	210	1
172	173	2
63	72	1
106	115	1
72	102	1
239	240	2
150	150	1
78	79	1
41	222	1
35	36	1
121	121	2
29	90	1
36	44	1
49	96	1
14	17	1
19	115	1
86	187	1
43	44	1
222	222	3
39	40	1
1	1	3
174	176	1
68	68	2
152	157	1
94	100	1
14	51	1
202	202	2
70	72	1
95	95	1
29	30	1
184	185	1
23	26	1
195	196	2
113	113	1
196	230	1
228	241	1
57	114	1
55	56	1
209	209	1
158	158	1
15	46	1
215	225	1
59	59	1
57	62	1
3	4	1
11	12	1
81	82	2
87	88	1
24	27	1
149	207	1
31	32	1
43	46	1
36	197	1
221	222	1
56	84	1
197	197	1
36	36	1
204	210	1
220	223	1
46	53	1
55	59	1
232	245	1
65	66	1
89	90	1
152	153	1
19	112	1
99	105	1
65	68	1
39	45	1
163	173	1
167	246	1
215	216	1
107	107	1
217	220	1
199	201	1
201	202	1
213	221	1
158	177	1
