75	75	4
32	32	2
231	238	1
230	232	1
18	37	1
187	219	1
71	72	1
194	194	5
21	22	3
112	112	1
30	37	2
4	4	3
0	0	1
96	96	1
201	201	4
83	83	1
142	199	2
204	204	4
103	104	3
124	124	1
7	7	2
24	234	1
63	224	2
26	71	1
105	105	2
233	233	5
10	10	2
234	234	5
147	147	1
238	238	2
31	31	5
175	175	4
178	178	2
80	84	1
32	33	1
132	135	1
55	55	2
149	149	2
15	127	1
84	86	1
23	23	3
12	12	2
199	199	4
231	231	6
203	203	6
143	144	1
137	137	3
139	139	2
229	230	1
98	98	3
188	204	1
143	143	1
24	24	2
171	171	3
205	206	2
217	218	2
41	49	1
49	49	2
237	237	3
58	59	2
5	5	2
109	204	1
26	27	1
98	99	2
241	241	2
165	165	7
0	185	1
180	180	1
29	29	8
219	219	2
130	130	3
25	25	3
62	178	3
27	96	1
225	227	1
158	158	1
80	80	2
103	103	6
17	17	2
47	48	1
49	50	1
115	116	1
205	205	4
16	49	2
134	134	3
227	228	2
174	175	1
16	16	3
129	129	3
106	121	1
240	240	4
19	19	5
26	219	1
146	147	1
14	15	1
90	115	1
57	57	1
178	179	2
195	195	1
35	60	1
2	2	2
113	114	1
173	176	2
21	21	3
215	216	1
145	158	1
0	3	1
52	52	1
11	11	3
167	198	1
116	117	2
61	61	4
88	88	3
242	242	4
71	111	1
63	179	1
64	64	1
240	241	1
142	142	3
13	60	1
152	152	1
14	24	2
153	153	2
122	123	1
103	237	1
84	120	2
28	28	1
108	108	2
54	119	1
100	101	1
140	140	1
174	195	1
170	177	1
8	8	3
184	227	1
164	164	2
196	196	3
230	230	5
200	200	2
19	69	3
121	121	1
15	15	1
55	122	1
123	124	1
144	144	3
62	221	1
64	69	1
148	148	1
192	194	2
18	18	3
42	42	5
50	50	1
69	126	1
223	223	1
38	49	1
159	160	2
50	51	1
227	227	3
100	100	3
33	169	1
102	102	1
53	53	2
3	5	1
233	234	2
27	27	2
229	229	1
47	47	3
170	186	1
113	135	1
43	45	1
184	189	2
65	65	3
40	40	2
23	237	2
131	131	3
110	110	1
101	101	2
108	137	1
176	177	3
41	41	2
30	30	1
207	207	2
20	20	2
84	84	2
138	139	2
197	201	1
27	54	1
155	156	1
156	156	2
14	14	2
27	65	1
206	207	2
135	135	2
217	217	2
13	180	1
119	119	3
220	220	4
144	153	2
209	210	1
42	205	2
26	26	2
137	138	2
179	180	2
64	217	1
160	160	3
104	107	1
42	53	1
99	99	2
190	193	1
38	38	3
109	110	2
66	66	4
106	106	2
56	220	1
118	152	1
183	183	1
210	211	1
235	235	1
76	76	2
175	177	1
118	118	1
114	114	2
52	53	1
145	147	2
43	47	1
114	115	1
104	104	1
77	77	1
120	120	1
30	42	1
71	71	2
64	111	1
225	225	2
132	166	1
182	182	3
157	158	2
185	185	2
85	86	1
170	175	1
174	174	2
202	202	3
105	127	1
67	68	1
72	72	2
37	39	1
188	198	2
206	206	2
22	33	2
180	184	1
34	34	2
59	211	1
178	231	1
40	117	1
12	189	1
210	210	1
169	169	2
224	225	2
222	222	2
191	191	3
70	70	1
126	126	1
45	45	1
198	200	1
43	43	3
207	227	1
80	81	1
232	240	1
173	173	1
158	161	2
171	172	1
154	154	1
162	162	1
44	44	4
53	78	1
73	77	1
161	199	2
149	225	1
34	35	1
179	218	1
109	109	2
99	102	2
89	91	1
37	118	1
63	180	1
127	127	2
84	88	2
168	168	2
125	125	1
170	170	1
193	193	2
150	150	2
155	155	1
234	235	2
10	219	1
60	60	1
216	216	1
228	228	1
159	159	1
82	82	1
95	95	2
148	164	2
12	210	1
48	48	2
168	184	1
181	181	1
180	214	1
19	34	1
73	98	1
166	166	2
13	70	1
188	188	1
28	31	1
113	175	1
128	173	1
15	16	1
187	195	1
1	4	1
108	141	1
31	32	1
106	134	1
146	146	1
61	233	1
168	186	1
68	68	1
174	190	1
204	237	1
189	189	1
179	179	2
74	74	1
15	17	1
71	75	1
232	232	1
36	36	1
123	123	1
67	79	1
128	131	1
27	53	1
168	169	1
24	30	2
207	219	1
48	49	1
138	138	1
56	57	1
31	41	1
165	167	1
151	151	1
23	69	1
9	9	1
113	113	1
10	238	1
197	197	1
145	157	1
198	198	1
129	130	1
