84	85	3
127	131	1
92	92	5
57	57	3
100	107	2
21	21	4
105	105	5
135	135	1
129	129	6
98	98	4
16	18	3
120	120	3
103	120	1
25	25	3
107	111	1
43	43	3
127	127	3
14	16	2
80	80	8
63	64	2
72	72	5
48	48	1
134	134	2
68	68	3
88	117	1
24	25	1
84	84	2
97	98	2
9	9	4
91	91	2
28	77	2
126	126	3
108	108	3
52	52	4
73	73	4
123	123	4
19	19	4
51	51	1
65	118	1
100	100	2
38	38	1
37	37	2
45	45	3
88	88	3
100	122	1
69	69	2
7	8	1
77	77	3
72	73	1
5	16	4
112	125	1
116	117	2
107	107	5
21	22	2
66	66	1
95	96	1
86	86	2
81	81	2
32	32	4
115	115	2
123	134	2
67	67	3
62	63	2
129	130	2
66	67	1
109	110	1
68	69	3
119	119	3
43	118	1
118	118	3
102	102	4
101	116	1
59	59	2
31	35	1
101	101	2
131	132	1
56	56	3
61	91	1
97	97	3
113	113	2
110	110	3
50	50	2
36	36	3
128	129	1
128	128	2
73	85	1
70	71	1
116	116	5
26	53	1
100	106	2
13	16	1
88	98	1
13	35	2
76	76	3
54	62	1
77	78	3
31	31	1
50	52	1
62	62	1
124	124	4
30	30	5
112	112	2
31	32	1
79	79	4
27	27	4
33	33	1
34	34	3
132	132	2
18	18	1
16	16	2
70	70	2
64	64	4
4	4	3
20	21	2
14	14	3
100	109	2
93	93	1
82	99	1
26	26	2
0	6	1
17	17	1
131	131	1
13	14	1
9	18	1
92	102	1
15	15	2
53	54	2
49	50	4
95	95	1
91	122	1
44	44	2
103	103	3
12	12	4
122	122	2
117	120	1
82	82	2
106	117	2
111	113	1
122	123	1
0	32	1
61	61	4
133	134	1
90	94	1
55	56	4
2	16	1
2	132	1
94	94	4
49	49	2
31	34	1
78	78	3
105	120	1
83	99	1
129	133	3
32	33	1
106	110	2
54	117	1
20	20	2
13	13	2
44	67	1
94	111	1
129	132	1
63	63	3
100	101	1
85	85	3
46	133	1
84	105	1
55	117	1
99	99	2
90	90	1
116	134	1
62	82	1
85	100	1
6	7	2
23	23	3
19	20	1
25	67	1
109	109	2
85	87	1
50	51	2
71	71	1
82	86	1
97	99	1
87	87	2
83	86	1
83	83	3
59	60	1
108	109	1
77	95	1
123	124	3
1	1	1
79	80	1
127	128	1
11	21	1
126	127	1
8	115	1
86	87	2
106	106	1
125	125	1
10	10	1
25	26	1
62	77	1
127	130	1
120	121	1
4	5	1
99	120	2
65	65	1
24	53	1
7	7	3
29	80	1
11	11	1
51	108	1
60	90	1
30	31	1
61	64	1
2	30	1
22	22	2
0	53	1
3	3	3
55	55	1
130	130	3
67	121	1
52	54	1
108	110	1
72	98	1
1	26	1
94	103	1
23	25	1
106	107	1
26	28	1
29	81	1
28	28	2
60	60	1
9	10	1
0	1	1
2	69	1
28	95	1
35	38	1
58	59	1
91	93	1
117	117	2
101	102	1
73	104	1
60	107	1
104	105	2
62	84	1
85	114	2
14	15	1
33	59	1
24	99	1
64	127	1
102	103	1
23	99	1
127	132	1
79	94	1
8	99	1
5	6	1
75	75	1
24	24	1
54	57	1
64	122	1
134	135	1
