25	235	1
41	89	1
166	236	1
42	42	1
32	32	9
83	104	2
60	60	4
207	207	8
45	45	6
31	32	1
72	76	2
190	190	3
70	75	2
151	152	2
192	193	1
193	225	1
57	61	2
23	40	2
219	219	4
28	28	3
238	238	5
167	167	6
15	177	2
187	192	1
95	95	1
67	67	6
197	199	1
66	88	1
171	171	8
187	187	2
94	113	1
74	74	6
60	62	1
49	49	3
17	19	2
76	76	3
84	84	2
213	225	1
170	170	6
212	212	9
158	158	6
12	14	1
47	209	1
38	38	9
196	223	1
237	237	3
54	54	6
43	228	1
223	223	9
63	65	3
56	57	4
48	48	6
21	21	7
242	242	3
180	181	4
62	62	5
1	67	1
22	22	8
87	88	2
152	214	1
23	23	8
117	117	3
216	217	1
55	55	6
16	16	5
80	88	2
112	112	12
177	179	1
96	96	5
59	60	4
163	163	5
15	93	1
215	219	2
215	215	6
243	243	2
240	240	4
199	199	1
3	7	1
6	156	1
200	207	2
22	201	1
1	1	4
194	194	3
118	118	3
73	73	4
7	30	1
241	248	1
20	20	4
20	23	1
10	10	7
0	1	1
191	210	1
172	172	8
173	173	12
101	187	2
20	58	2
188	189	2
220	221	1
26	26	5
102	102	2
118	184	1
72	72	5
69	75	2
111	111	4
179	219	1
59	59	4
97	101	1
94	224	1
82	82	5
224	224	8
98	98	4
236	236	5
106	118	1
87	87	3
26	37	1
106	106	6
221	222	1
65	74	2
161	161	7
25	25	3
52	52	7
152	153	2
180	180	8
182	182	6
24	91	1
25	26	1
37	37	3
9	9	4
33	33	8
7	160	2
53	53	6
195	195	2
155	155	3
69	121	2
119	119	2
58	60	3
81	87	2
67	68	2
15	54	2
2	2	1
198	230	2
51	53	1
110	110	4
169	169	5
241	241	2
9	20	1
174	174	12
200	200	7
94	213	1
93	160	2
202	202	2
19	19	8
6	6	2
42	85	1
5	6	1
45	156	1
194	195	3
154	154	7
153	153	5
234	235	3
205	206	1
45	89	1
222	223	1
80	99	1
178	178	3
157	159	2
233	233	7
181	181	2
99	99	3
2	167	2
8	9	2
10	28	1
168	168	5
218	218	5
188	239	1
187	189	1
228	228	9
66	66	4
68	68	4
179	179	8
156	156	4
238	239	1
91	92	1
196	199	2
232	232	1
219	220	1
160	160	10
70	85	1
80	103	2
18	18	4
192	192	4
46	46	10
204	204	6
100	110	1
173	174	3
199	208	2
230	231	3
183	183	7
43	44	2
50	50	4
15	239	1
56	56	4
186	186	5
75	208	2
39	40	2
201	202	5
239	240	1
184	200	1
60	169	1
76	77	1
188	222	1
187	188	2
57	57	2
33	63	1
160	161	1
174	175	2
43	43	8
12	93	1
29	29	4
32	217	1
109	109	4
216	236	1
78	78	7
21	22	2
36	37	1
168	170	1
30	30	7
44	45	1
164	165	1
38	235	1
75	77	1
44	72	2
198	198	2
153	192	1
87	89	2
150	207	1
216	216	2
39	39	5
69	69	5
6	7	2
14	14	4
248	248	5
3	120	2
159	160	1
109	110	1
108	108	3
151	151	4
226	227	1
208	241	2
206	206	2
229	230	1
23	62	1
175	175	4
169	192	1
157	158	1
38	39	4
168	179	1
103	104	1
231	231	5
196	196	3
44	204	3
247	247	1
221	221	6
184	184	2
223	224	1
69	179	1
229	229	5
35	35	2
226	226	7
218	219	1
157	157	3
61	61	3
225	225	3
209	209	7
193	194	2
28	54	1
45	46	1
211	212	2
198	199	1
19	198	2
15	31	1
233	234	3
216	230	2
245	245	6
61	169	1
186	239	1
89	89	7
54	145	1
44	147	1
116	116	4
201	201	1
34	152	1
235	235	6
168	169	6
231	232	1
15	16	1
79	81	1
101	101	1
96	98	2
156	221	1
17	17	4
101	102	2
208	208	4
53	54	1
33	34	2
5	203	1
18	43	1
75	91	1
77	77	4
116	118	2
210	211	1
160	203	2
157	184	3
185	186	2
166	167	2
50	74	1
105	105	2
86	86	3
241	242	3
176	177	3
107	107	4
202	203	2
40	203	1
83	84	2
160	168	2
166	215	2
40	41	1
48	75	1
193	234	1
214	214	4
80	80	1
212	213	2
24	43	2
28	92	1
59	61	1
3	3	3
234	234	4
77	98	1
14	91	1
193	211	1
193	193	2
115	115	3
19	20	1
93	214	1
221	223	1
71	106	1
58	58	3
77	86	1
51	62	2
182	183	1
28	31	1
114	114	3
177	177	4
65	66	1
7	7	1
15	178	3
182	223	1
51	52	3
234	245	1
216	240	1
49	50	2
4	4	4
200	201	1
78	85	1
47	47	2
27	28	2
120	120	2
83	83	3
75	75	2
85	85	5
12	12	2
54	59	1
93	93	5
4	5	2
159	201	1
79	210	1
72	73	1
225	237	1
81	81	2
104	106	1
11	16	1
67	215	1
160	177	1
238	248	1
71	71	1
155	156	3
155	210	1
244	244	3
10	31	1
88	116	1
40	212	1
86	89	1
68	69	1
44	44	3
205	205	3
46	208	2
171	172	3
100	101	2
214	215	1
64	104	2
150	150	1
211	218	3
246	246	4
60	61	1
33	154	1
172	228	2
20	21	1
6	160	1
36	151	1
183	184	3
78	79	2
191	232	1
52	117	1
85	104	1
52	61	1
244	245	1
180	184	1
172	173	1
90	91	1
213	214	1
68	76	1
92	92	3
203	203	4
149	246	1
166	166	4
95	96	2
169	170	1
168	215	1
211	211	3
31	31	9
41	42	1
113	114	1
154	155	1
21	75	1
26	27	1
191	218	1
57	58	1
16	108	1
91	91	2
237	239	1
30	145	1
1	10	2
207	208	2
51	91	2
94	214	1
34	35	1
57	90	1
222	222	3
9	26	1
13	13	2
72	75	1
76	89	1
39	41	1
25	110	1
8	10	1
37	38	1
79	80	1
65	65	1
159	161	1
88	88	3
147	147	2
88	96	1
181	229	1
199	200	1
70	70	3
93	94	2
50	60	1
78	212	1
189	189	3
64	118	1
2	5	1
87	117	1
217	217	7
191	191	2
102	170	1
10	11	1
7	11	1
203	204	1
216	218	1
230	230	2
213	219	3
229	237	1
40	40	5
210	210	2
152	152	3
111	112	2
22	23	2
208	225	1
170	205	1
99	109	1
217	247	1
185	196	1
196	238	1
63	63	2
11	19	1
46	47	1
189	220	2
240	241	1
207	235	1
215	222	1
40	42	1
86	104	1
112	200	1
180	228	1
92	93	2
213	213	2
34	116	1
70	119	1
25	87	1
54	152	1
47	63	1
150	179	1
41	62	3
18	23	1
237	248	1
47	112	2
146	146	1
188	188	4
183	201	2
157	225	1
119	149	1
183	234	1
102	105	1
8	8	4
210	244	1
149	149	2
114	176	1
235	236	3
75	114	1
162	181	2
41	43	1
145	160	1
35	155	1
80	83	1
245	246	1
186	194	1
108	120	1
84	103	1
34	34	3
71	74	1
113	212	1
159	159	1
90	90	2
114	157	1
91	93	1
181	185	2
26	203	1
195	213	1
55	71	1
21	52	1
71	102	1
19	23	1
164	164	3
68	110	1
185	225	1
77	78	1
36	36	2
150	168	1
239	239	1
204	243	1
162	162	3
27	27	4
145	145	1
58	62	1
36	110	1
6	10	1
212	235	1
171	173	1
109	242	1
11	11	1
114	185	1
48	115	2
48	49	3
54	55	2
185	185	1
156	165	1
5	5	4
86	105	1
181	182	1
69	177	1
193	195	1
36	154	1
178	207	1
62	63	1
96	97	1
228	229	1
32	33	1
71	234	1
12	19	1
103	103	3
112	227	1
78	211	1
72	98	1
243	246	1
82	83	1
66	102	1
66	106	1
36	46	1
39	116	1
236	237	1
15	15	4
110	112	1
170	171	1
24	36	1
186	196	2
176	176	2
12	35	1
158	160	1
1	6	1
69	92	1
97	97	3
227	227	1
237	240	1
152	200	1
59	89	1
216	220	1
85	86	1
64	65	1
182	184	1
4	64	1
228	238	1
81	82	1
68	216	1
113	113	2
189	190	2
34	111	2
78	223	1
98	99	1
68	75	1
11	17	1
90	119	1
49	228	1
80	81	1
2	215	1
5	64	1
38	174	1
62	115	1
100	100	2
217	219	1
73	93	1
14	15	1
106	115	1
51	51	2
57	76	1
5	48	1
75	76	1
48	70	1
110	111	1
111	115	1
87	105	1
39	224	1
3	179	1
16	36	1
95	170	1
16	22	1
150	200	1
100	102	1
204	209	1
226	247	1
42	87	1
26	44	2
94	94	1
50	69	1
62	198	1
82	84	1
197	198	1
224	225	1
116	117	1
22	152	1
56	70	1
12	160	1
197	197	1
0	0	1
2	208	1
104	105	1
44	117	1
159	188	1
188	192	1
74	89	1
21	26	1
155	201	1
92	94	1
204	205	1
185	189	1
188	196	1
70	210	1
187	190	1
42	170	1
119	120	1
4	166	1
198	219	1
95	111	1
109	146	1
78	221	1
184	185	1
47	98	1
55	72	1
58	70	1
180	183	1
79	79	1
242	244	1
201	204	1
17	20	1
114	230	1
171	195	1
149	163	1
146	163	1
99	101	1
221	229	1
165	165	1
236	240	1
106	107	1
49	120	1
238	240	1
