95	95	3
67	93	2
69	77	2
32	33	2
96	96	2
118	118	4
31	34	1
18	18	4
107	107	3
81	81	2
71	72	2
12	12	3
143	144	4
4	6	1
28	30	1
30	103	1
138	138	2
51	57	1
50	50	4
93	93	1
3	3	3
94	94	2
127	129	2
126	126	2
54	54	1
142	142	3
90	113	3
75	119	1
141	142	2
70	73	1
124	124	2
48	48	2
36	36	3
118	120	1
101	102	5
89	89	1
77	77	3
81	82	1
11	11	2
13	13	3
70	70	2
145	145	3
112	136	1
137	137	4
60	62	2
83	122	2
67	67	2
13	15	4
58	58	2
121	121	3
2	2	1
91	91	2
84	84	5
59	61	2
16	120	1
65	117	1
115	115	5
65	65	3
112	112	1
17	17	3
26	26	2
36	37	1
23	23	7
32	63	1
64	64	5
42	103	1
106	106	3
49	49	1
68	110	1
76	83	1
48	99	1
56	56	4
136	137	3
60	60	4
22	126	1
136	136	1
20	36	1
92	92	1
53	53	8
15	15	3
105	105	5
83	91	1
31	32	1
97	97	2
66	109	1
40	40	3
125	126	2
83	83	4
73	74	1
61	61	3
73	76	2
62	63	1
19	52	1
3	4	2
96	97	1
14	17	1
87	90	1
6	6	7
9	9	2
78	78	6
51	51	2
93	125	2
130	130	2
47	47	1
121	124	1
33	33	1
15	16	1
38	38	2
139	139	4
16	16	2
8	11	1
37	102	1
74	74	2
61	98	2
29	29	2
63	63	4
4	5	3
73	73	2
128	128	6
17	139	1
17	18	1
32	32	3
19	19	1
90	90	2
88	91	2
41	41	2
97	116	1
39	39	2
37	37	4
143	143	2
140	141	2
22	22	5
81	128	1
69	69	3
124	126	1
85	85	1
109	112	1
65	69	1
31	31	4
144	144	1
70	76	1
140	140	2
5	19	1
20	20	3
42	102	1
102	102	2
36	86	1
80	80	1
2	35	1
39	40	1
1	1	1
99	99	2
34	34	3
102	103	1
5	5	4
42	42	1
128	139	1
135	135	4
127	130	1
28	28	2
35	35	2
77	83	1
86	87	1
101	101	2
37	48	2
64	65	1
74	135	1
104	144	1
18	140	1
25	25	2
93	94	1
18	22	1
120	121	1
86	122	1
134	134	3
26	39	1
30	30	5
108	108	3
24	24	2
132	132	5
51	108	1
79	79	3
14	14	1
48	101	1
84	90	1
12	19	1
89	138	1
92	93	1
129	130	2
62	91	1
10	10	4
33	70	1
69	79	1
50	87	1
142	143	2
33	49	1
83	84	1
27	27	2
125	125	2
55	55	2
14	15	1
50	51	1
72	72	1
87	87	1
22	23	1
66	108	1
137	139	1
88	89	1
126	134	1
28	31	1
39	70	1
123	123	1
0	0	3
112	137	1
124	130	2
67	68	1
119	120	1
29	30	1
88	88	1
55	56	3
26	27	1
84	85	1
68	68	1
124	144	1
131	131	1
24	75	1
120	133	1
55	57	1
110	110	2
47	48	1
64	113	2
124	125	1
129	129	1
68	114	1
80	113	1
51	107	1
66	66	1
5	15	2
68	121	1
118	119	2
4	4	2
140	143	1
59	71	1
51	52	1
78	85	1
127	128	2
72	73	1
63	64	1
37	61	1
19	75	1
33	85	1
85	90	1
131	133	2
25	26	1
113	117	1
74	75	1
137	138	1
93	97	1
56	57	1
113	113	1
59	60	2
76	114	1
37	74	1
94	98	1
104	105	1
88	106	1
12	13	1
78	79	1
69	85	1
22	38	1
37	49	1
10	39	1
21	139	1
119	119	3
117	117	1
105	106	1
70	91	1
26	29	1
21	21	1
3	16	1
33	48	1
