108	109	1
74	74	6
71	71	2
120	125	1
18	18	1
119	124	1
26	26	4
101	101	1
18	49	2
185	187	2
92	92	2
174	185	1
138	141	2
127	128	1
171	172	1
48	48	1
95	95	2
35	35	2
93	114	2
61	66	1
88	92	1
99	99	1
8	25	2
156	160	1
92	97	3
20	47	1
69	74	1
148	148	4
133	136	1
171	171	1
2	2	2
146	146	2
73	73	3
74	75	1
88	91	2
80	81	1
107	109	4
85	85	4
7	7	1
13	13	2
134	137	2
72	121	2
100	100	3
131	131	1
75	76	1
183	183	4
130	130	2
57	122	1
105	105	1
144	156	1
31	31	1
124	125	2
46	46	1
143	146	1
33	33	3
161	161	4
22	22	5
143	156	2
142	142	1
87	96	1
163	163	1
90	118	1
180	180	1
12	12	1
61	61	1
99	101	1
13	53	1
47	47	1
23	23	3
56	57	1
5	5	2
19	19	1
91	130	2
130	134	1
21	21	4
163	178	1
81	81	2
124	124	3
137	138	2
90	111	1
44	44	2
42	71	1
68	77	3
83	128	1
38	48	2
52	52	1
11	11	1
46	47	1
84	84	4
77	77	2
176	186	1
60	95	1
140	140	3
63	63	1
82	82	1
11	21	1
36	36	1
185	185	2
151	165	1
150	169	1
154	169	1
40	41	2
157	157	1
160	160	3
37	141	1
174	174	1
3	4	1
108	108	1
106	106	1
142	143	2
98	109	1
113	151	1
11	12	1
129	136	1
97	97	1
37	164	1
153	153	2
151	169	1
141	141	1
98	100	1
68	70	1
13	14	1
147	147	1
40	40	1
182	182	1
89	89	1
39	39	1
168	173	1
83	85	1
28	29	1
137	143	1
88	88	1
21	25	2
104	104	1
147	148	1
72	72	2
9	13	1
102	121	1
155	156	1
187	187	1
184	188	1
152	152	1
117	118	1
19	20	1
27	28	2
36	37	1
45	45	2
189	189	2
183	184	2
154	154	3
10	24	1
32	32	2
186	186	1
21	45	1
1	3	2
20	21	1
158	158	1
155	181	1
146	147	1
154	156	1
181	181	2
167	168	1
70	70	1
56	56	1
60	66	1
166	174	1
159	159	1
94	136	1
121	121	2
4	4	1
77	78	1
119	129	1
188	188	3
171	185	2
176	176	1
145	150	1
55	56	2
145	145	1
85	86	1
28	45	1
109	110	1
143	143	3
107	107	2
169	169	3
53	67	1
115	115	1
24	27	1
134	135	1
96	109	1
79	80	1
55	59	1
103	103	1
120	124	1
59	62	1
188	190	1
120	120	1
122	122	1
38	38	1
19	47	1
168	168	1
128	129	1
103	148	1
28	28	2
34	163	1
151	151	1
168	175	1
117	117	1
61	80	1
114	115	1
43	43	1
29	37	1
94	99	1
130	131	2
96	96	1
64	64	1
148	166	1
75	75	2
175	175	1
9	24	1
103	104	1
169	170	1
112	135	1
19	49	1
75	77	1
56	125	1
111	111	1
116	116	1
65	67	1
148	156	1
16	16	1
113	115	1
30	37	1
80	80	1
53	54	1
94	95	1
68	68	1
56	59	2
175	179	1
66	67	1
169	171	1
13	47	1
90	90	1
159	161	1
74	122	1
38	152	1
155	184	1
153	154	1
41	41	1
80	83	1
143	149	1
83	83	1
117	129	1
70	71	1
107	121	1
66	66	1
139	139	1
44	46	1
93	93	1
54	59	1
0	0	1
