103	103	2
47	47	5
61	64	2
110	111	3
124	141	1
167	167	1
175	177	1
17	18	2
93	133	1
45	45	3
160	160	2
27	31	1
38	38	3
28	28	2
132	140	1
73	136	1
149	161	1
139	139	1
2	2	2
25	56	1
112	112	4
165	165	1
139	177	1
119	119	3
131	156	1
4	13	1
92	92	3
140	141	1
10	10	6
148	148	2
117	149	1
94	111	1
132	145	1
40	42	1
3	3	2
134	135	2
14	14	4
160	161	1
176	177	2
97	99	1
58	138	1
132	133	2
179	179	2
7	21	3
80	88	1
80	80	3
105	105	1
108	108	3
164	164	3
57	63	1
77	78	1
96	96	3
17	89	1
163	163	1
4	4	2
136	136	1
19	22	1
53	185	1
79	122	1
154	172	1
137	164	1
61	61	1
169	169	5
157	157	2
20	20	4
159	181	1
75	80	1
31	32	1
37	39	2
30	30	2
123	123	3
97	98	1
125	125	2
6	6	3
60	65	1
91	111	1
138	138	6
148	179	1
25	57	1
102	162	1
98	98	2
152	155	2
9	10	2
163	164	1
56	56	2
138	179	1
67	83	1
8	12	2
164	171	1
188	189	2
110	110	2
158	158	3
177	177	3
189	190	2
91	94	1
180	181	2
85	85	1
12	43	1
180	190	1
101	102	6
150	150	3
130	170	1
16	19	3
95	102	1
127	138	2
175	175	4
108	170	1
76	76	1
67	67	1
16	17	1
102	138	1
81	81	2
5	5	2
130	130	1
180	189	2
95	169	1
131	132	1
93	96	1
150	153	2
180	180	1
171	172	1
74	74	1
13	17	2
53	53	3
12	13	2
57	76	1
5	58	2
30	31	2
29	48	3
23	23	5
26	26	2
66	68	1
172	177	1
140	165	1
27	28	1
183	183	1
68	68	2
109	112	1
40	41	1
154	154	1
46	93	1
116	116	2
29	47	1
88	92	1
40	40	2
111	111	2
101	101	1
118	128	1
93	124	1
57	57	2
5	43	1
120	120	2
84	139	1
91	93	1
182	182	2
181	181	3
41	47	2
26	48	1
107	110	2
177	178	1
32	32	2
25	114	1
12	12	3
106	189	2
112	119	1
71	72	1
55	55	1
91	91	1
147	147	2
107	107	1
184	188	1
106	175	1
17	17	2
30	32	2
56	129	1
24	37	1
21	21	2
34	35	1
113	114	1
133	134	1
178	178	2
41	41	3
129	129	3
64	70	2
117	119	1
73	73	1
3	53	1
59	59	3
80	83	1
64	142	1
138	139	1
185	185	2
113	113	1
114	115	1
74	129	1
91	95	1
13	13	1
18	20	2
11	11	1
64	129	1
136	182	1
14	15	1
24	168	1
133	157	1
87	87	2
166	166	1
174	174	2
121	122	1
135	135	2
22	22	2
70	70	1
66	181	1
46	46	3
126	126	1
141	162	1
46	47	1
99	103	1
162	187	1
159	159	1
40	47	1
28	29	1
66	66	1
43	184	1
60	60	3
190	190	2
115	116	1
4	7	1
83	83	1
55	95	1
129	156	2
82	95	1
111	112	1
44	66	1
140	140	3
48	48	1
27	27	1
114	114	1
151	156	1
104	104	1
100	100	1
77	77	1
72	148	2
3	113	1
62	62	2
19	19	2
14	16	1
167	169	1
7	93	1
118	118	1
31	41	1
96	98	1
34	62	1
60	61	1
92	93	1
109	110	2
110	138	1
159	182	1
16	16	4
97	100	1
13	28	2
112	141	1
26	27	1
39	39	4
157	158	1
165	166	1
78	82	1
152	152	1
98	190	1
93	93	1
79	79	1
38	39	2
148	149	2
126	176	2
137	144	1
74	89	2
24	24	2
134	137	1
79	81	2
157	165	1
182	190	1
141	147	1
5	6	1
9	9	1
151	151	1
16	20	1
95	95	2
148	150	1
10	18	1
133	133	1
52	63	1
30	155	1
186	187	1
179	180	1
151	153	1
153	153	1
61	188	1
57	60	1
62	77	1
25	25	2
117	118	1
9	53	1
52	52	1
34	34	1
137	154	1
136	169	2
37	82	1
127	184	1
81	84	1
105	174	1
10	186	1
106	106	1
156	157	1
5	22	1
106	156	1
154	191	1
45	94	1
19	185	1
137	167	1
102	108	1
155	156	1
116	129	3
74	88	2
102	102	3
76	84	1
184	184	1
180	182	1
31	31	1
171	171	1
44	44	1
23	35	1
36	152	1
53	55	1
9	27	1
128	136	1
139	149	1
4	8	1
25	38	1
23	140	1
100	172	1
161	180	1
71	71	1
143	143	1
27	30	1
32	155	1
105	106	1
97	97	1
79	80	1
15	134	1
111	114	1
94	94	1
54	55	1
59	104	2
16	18	1
72	121	1
86	131	2
84	84	1
125	129	1
63	63	3
94	161	1
131	158	1
109	109	1
61	63	1
53	66	1
35	35	1
68	73	1
18	21	1
13	24	1
12	17	1
23	54	1
71	139	1
72	72	1
31	43	1
141	141	1
82	82	1
84	92	1
129	131	1
155	155	1
81	97	1
167	168	1
127	127	1
32	36	1
135	136	1
155	189	1
146	146	1
105	162	1
33	33	1
109	111	1
