79	81	3
65	77	3
11	11	5
73	73	5
13	13	3
110	110	2
91	91	5
7	7	5
18	21	3
120	120	2
74	75	1
6	6	5
89	90	2
61	61	1
10	10	5
124	124	2
57	57	4
30	96	2
32	32	2
130	131	3
3	3	4
55	56	1
35	35	1
115	115	2
15	16	2
70	114	1
37	38	3
99	99	2
52	52	4
120	121	3
15	24	2
60	60	7
59	59	3
62	62	2
129	129	6
97	97	3
70	70	6
134	135	2
88	88	4
100	100	4
85	85	1
129	130	1
73	74	1
110	111	5
98	99	2
14	14	3
12	12	4
104	104	9
34	35	2
87	124	1
8	8	1
74	74	3
3	44	2
36	36	2
118	118	2
17	25	2
72	72	3
62	63	3
4	4	8
58	59	2
119	120	1
2	2	3
49	49	6
127	127	2
93	113	1
75	75	1
2	3	2
19	29	1
109	109	3
24	24	1
100	101	2
124	125	3
23	23	7
27	27	4
17	26	1
0	0	2
103	103	6
113	114	1
81	82	2
114	114	2
89	89	5
54	55	3
86	124	1
30	31	1
80	80	2
18	18	1
38	38	1
44	44	4
66	66	3
19	20	2
132	132	1
5	5	3
113	113	4
106	106	9
1	71	1
7	8	3
47	47	2
25	25	2
71	71	2
112	112	2
78	78	4
121	121	7
83	111	2
95	95	2
116	116	3
9	10	2
32	122	1
9	9	1
105	105	3
87	87	1
94	94	3
56	56	3
30	36	1
7	10	1
96	96	4
3	4	4
52	117	1
47	94	1
130	130	3
108	108	6
93	94	2
8	82	1
84	84	2
35	36	2
22	22	4
22	23	1
109	110	2
21	22	1
119	119	3
77	77	1
131	131	1
7	81	1
77	78	1
84	85	1
98	98	6
1	1	1
9	83	1
50	50	1
76	88	1
55	55	1
33	33	2
94	95	2
50	51	1
35	76	1
93	93	1
69	69	7
64	64	2
101	101	5
95	96	3
90	90	6
99	119	1
53	53	2
108	109	1
108	110	1
86	86	1
15	25	1
45	45	2
27	28	2
11	12	1
99	100	1
93	95	1
48	48	4
86	118	1
123	123	1
67	67	1
46	46	1
6	12	1
91	92	1
90	91	1
57	58	2
15	15	3
11	122	1
68	68	2
43	43	1
52	116	1
21	21	3
70	97	1
127	129	1
79	79	2
81	81	2
89	127	1
13	24	1
103	126	1
103	125	1
83	84	1
108	114	2
28	28	1
63	63	1
117	117	1
102	127	1
114	115	1
122	122	1
29	30	1
82	83	1
135	135	2
30	30	1
50	109	1
17	17	2
44	101	1
76	76	1
87	94	1
17	23	1
5	93	1
82	113	1
10	117	1
102	103	1
88	118	1
58	65	1
62	98	1
70	112	1
52	53	1
29	29	1
12	13	1
104	124	1
70	80	1
62	95	1
67	68	2
84	106	1
64	65	1
107	110	1
50	73	1
44	45	1
54	58	1
0	1	1
19	19	1
106	109	1
1	3	1
31	32	1
83	83	1
119	121	1
24	25	1
107	107	1
26	26	2
126	127	1
126	126	2
5	13	1
31	31	1
125	125	1
82	82	1
79	105	1
16	25	1
128	128	1
45	101	1
63	86	1
14	77	1
59	60	1
58	64	1
127	131	1
31	97	1
29	43	1
6	7	1
133	133	1
