76	78	1
34	35	4
9	9	4
152	167	1
89	89	4
75	75	6
165	165	4
67	67	2
52	71	1
144	144	3
160	161	1
8	8	7
113	113	3
128	153	2
17	20	2
26	137	1
148	148	2
5	5	6
125	125	2
78	80	1
146	146	3
25	25	2
107	143	1
157	157	5
145	145	3
113	143	1
71	72	2
69	69	1
1	52	1
90	90	4
167	168	1
96	100	2
36	45	1
18	18	6
119	120	1
12	12	8
132	134	1
129	130	2
102	105	1
126	127	2
159	159	3
138	138	3
116	116	8
32	32	1
72	72	2
94	94	1
84	84	4
88	89	2
113	114	2
112	112	4
64	64	3
26	26	1
143	163	1
23	23	7
116	117	3
1	3	1
161	165	1
42	42	3
96	96	4
82	82	4
156	156	5
99	99	6
111	111	4
13	13	3
46	46	3
75	101	1
73	73	3
161	161	3
90	91	4
125	129	1
145	152	2
132	135	2
127	127	5
151	151	2
168	168	3
67	69	3
135	135	3
146	161	1
122	123	3
57	57	1
132	132	3
50	51	1
133	133	5
37	37	6
103	103	4
55	55	1
8	10	1
68	68	2
81	85	1
15	15	3
38	57	1
145	146	1
21	21	3
46	47	1
52	52	3
16	110	1
50	50	3
80	80	4
167	167	2
154	154	4
34	34	3
35	35	2
122	122	4
39	40	2
113	142	1
66	66	2
123	123	4
142	142	2
155	155	2
147	147	2
38	39	1
126	126	2
49	75	1
136	160	1
54	58	1
159	160	1
112	113	3
49	49	6
136	136	4
160	160	3
119	119	5
2	70	1
7	7	1
72	85	1
56	56	3
114	114	2
10	10	6
27	27	4
127	130	1
121	151	1
55	88	1
94	96	1
169	170	4
93	95	1
143	143	6
45	45	5
38	38	4
13	18	1
140	152	1
96	98	2
98	98	3
96	162	2
139	152	1
150	151	1
118	119	3
64	78	1
79	79	2
13	17	2
133	137	1
18	19	2
121	122	1
44	45	1
163	164	3
82	92	1
160	162	1
90	113	1
75	76	1
91	92	6
9	10	1
12	50	1
146	152	2
7	11	2
3	4	1
170	170	2
100	106	2
48	48	2
91	93	1
38	41	1
40	40	2
16	17	1
149	150	4
39	39	4
53	87	1
152	166	1
41	41	1
109	109	3
1	28	1
102	102	3
77	78	2
122	144	3
27	43	4
154	161	2
128	128	1
169	169	4
129	129	4
75	99	2
68	69	2
151	161	1
166	166	5
55	57	1
48	54	3
138	142	2
111	112	1
134	135	2
93	93	5
149	149	2
24	25	1
94	95	1
150	166	2
132	160	1
48	49	2
43	43	3
2	2	4
71	71	3
20	23	1
102	104	1
14	16	1
140	140	1
118	118	3
87	89	3
50	75	1
100	105	1
4	4	3
16	16	3
70	70	2
0	0	2
36	36	1
9	22	1
37	43	1
66	67	2
51	51	4
82	83	1
0	40	1
35	36	2
91	122	1
150	150	1
11	11	5
98	110	1
96	144	1
116	119	1
131	134	1
95	95	2
3	3	3
2	62	1
43	44	1
71	85	1
13	25	1
163	170	1
72	74	1
104	105	1
109	110	1
19	22	2
28	28	3
148	149	1
86	86	2
76	76	2
92	93	1
139	139	4
139	140	2
162	162	2
131	131	1
147	151	1
117	119	1
14	26	1
100	100	2
121	121	2
137	138	1
110	110	2
45	46	4
92	92	3
54	54	2
163	163	2
53	66	1
130	130	1
6	12	1
100	102	1
149	151	1
92	102	1
89	136	1
142	145	1
53	53	4
134	136	2
145	147	2
19	44	1
88	88	2
22	23	2
27	41	1
87	96	1
10	144	2
91	94	1
20	20	1
2	52	1
135	138	1
164	164	1
21	24	2
107	109	2
1	1	2
17	17	1
83	96	1
78	78	3
140	141	1
48	50	1
17	119	1
124	165	1
125	126	1
120	120	1
117	118	1
11	12	1
62	63	1
6	6	4
107	107	2
14	14	3
112	114	1
113	117	1
166	167	2
14	15	1
62	62	1
150	156	1
74	74	2
137	144	1
130	144	1
44	44	1
132	133	1
117	117	1
108	133	1
137	137	4
87	87	1
123	133	1
153	153	1
5	98	1
108	164	1
67	68	1
136	137	2
26	27	2
107	110	1
44	56	1
21	22	1
107	108	1
86	89	1
104	104	2
5	64	1
120	121	1
22	22	2
79	80	1
106	107	1
89	137	1
103	104	2
101	105	1
85	115	1
93	130	1
42	43	1
53	55	1
83	86	1
20	21	1
118	120	1
47	47	2
12	13	1
116	118	1
168	169	1
149	155	1
33	34	1
101	101	1
161	162	1
63	63	1
130	131	1
161	169	1
100	103	1
58	61	1
141	141	1
16	117	1
89	90	1
133	134	1
100	108	1
124	129	1
136	162	1
41	42	1
152	152	1
1	2	1
91	95	1
67	102	1
144	145	1
81	82	1
47	53	1
37	47	1
62	69	1
124	124	1
0	149	1
58	77	1
165	166	1
11	17	1
13	15	1
95	96	1
