223	224	1
242	242	3
60	60	2
16	16	3
29	29	3
54	55	1
23	23	3
30	30	5
184	184	1
187	187	2
198	217	1
62	194	1
182	182	2
9	10	1
107	115	1
89	90	1
2	55	1
171	171	5
82	82	5
201	203	1
1	1	2
117	117	2
67	67	4
66	238	1
204	204	2
3	3	5
152	154	1
106	107	1
111	111	2
234	235	4
64	66	3
172	173	1
58	58	3
196	215	5
156	156	6
44	44	4
75	75	3
214	215	1
161	211	2
38	58	1
174	174	2
152	152	4
22	25	1
199	233	1
72	72	3
219	219	1
166	166	3
224	226	1
112	112	3
40	112	1
154	154	3
168	169	1
75	76	4
57	57	2
90	90	2
237	237	2
48	48	1
222	223	1
6	34	1
195	195	4
5	26	1
65	171	1
106	106	1
9	9	3
42	42	2
185	186	1
69	69	4
218	218	3
10	231	1
15	63	1
210	210	2
59	59	2
178	178	3
109	109	4
20	20	5
12	12	3
5	7	1
213	221	1
180	180	5
63	63	4
165	165	3
77	81	1
60	63	1
101	101	2
35	35	2
185	185	1
215	215	4
204	246	2
77	77	3
18	19	1
79	79	5
222	229	1
193	196	2
229	231	1
74	74	4
197	197	5
161	167	1
19	19	4
225	236	1
100	100	5
186	186	3
176	224	1
171	185	1
92	92	3
7	34	1
40	40	1
185	189	1
162	208	2
170	187	1
89	89	3
95	110	1
102	102	4
212	212	4
19	28	1
209	209	2
54	63	1
97	98	1
196	196	1
162	163	1
80	80	3
11	11	3
71	72	3
170	171	1
47	208	1
43	43	3
225	225	1
99	102	1
175	198	1
65	68	1
79	80	1
114	174	1
226	226	3
24	66	1
92	93	3
93	93	3
53	53	1
8	8	5
164	175	1
26	26	4
64	64	3
65	65	3
4	4	6
11	12	1
166	167	3
31	31	2
155	155	4
33	33	3
157	162	1
195	212	1
54	54	2
221	222	1
5	17	1
110	110	2
160	160	3
169	170	1
78	78	2
108	117	1
179	179	3
95	99	2
116	116	3
12	46	1
68	68	3
231	234	1
185	194	1
192	209	1
91	91	4
203	203	1
28	29	2
45	45	1
186	187	1
163	164	2
71	87	1
180	191	1
177	179	1
67	71	1
222	222	2
52	52	2
217	217	2
86	86	1
201	201	1
229	230	1
164	164	1
46	46	5
159	163	1
223	230	1
73	73	3
19	55	1
237	239	1
14	14	4
71	71	2
7	61	1
183	210	1
96	96	2
230	230	1
180	210	1
161	172	1
233	233	1
105	105	2
170	177	1
231	231	1
169	185	1
147	157	1
243	243	1
18	18	5
181	181	4
152	170	1
197	200	2
39	39	2
81	81	2
199	199	3
66	66	1
170	170	2
58	70	1
84	88	1
214	214	3
4	5	2
21	21	2
195	197	2
198	198	1
82	83	1
159	226	1
76	95	1
91	109	2
55	55	3
48	110	1
234	234	4
114	115	3
62	63	1
15	203	1
151	151	2
152	153	1
62	62	1
232	232	2
213	213	3
208	208	2
108	108	4
15	15	2
110	112	1
103	103	2
56	71	1
8	31	1
109	168	1
73	186	1
79	81	1
170	242	1
216	238	1
1	8	2
49	86	1
218	240	2
248	248	2
34	34	2
241	247	2
75	119	1
103	114	1
24	161	2
63	67	1
75	81	1
19	41	1
4	232	2
166	179	1
103	106	1
176	176	1
51	57	1
157	157	1
67	81	1
9	18	1
93	100	1
203	204	1
1	50	1
77	78	1
3	16	1
82	85	2
21	23	1
221	221	2
27	27	2
60	163	1
31	39	1
218	219	1
228	228	5
18	59	1
40	41	1
236	236	4
183	244	1
41	55	1
167	168	2
150	150	3
51	51	4
162	167	1
70	102	1
56	59	1
245	246	2
164	165	1
230	231	1
247	247	2
167	167	2
189	221	1
232	233	1
63	89	1
159	159	2
78	171	1
213	214	1
87	87	4
175	176	1
43	44	1
2	5	1
193	193	2
114	114	2
20	21	1
22	54	1
243	246	1
88	88	2
206	207	1
89	92	2
50	50	2
218	231	1
85	101	1
97	112	1
244	244	2
205	205	3
210	213	2
119	119	1
2	28	1
25	27	1
117	164	1
17	17	1
84	84	1
84	86	1
118	118	4
41	41	1
36	51	1
69	96	1
229	244	1
227	230	1
161	208	1
87	88	2
219	220	1
145	199	1
59	69	1
92	118	1
146	146	2
189	200	1
200	200	3
236	243	1
206	206	1
37	37	4
145	145	2
10	16	1
162	162	2
89	244	1
194	196	1
23	24	1
158	158	2
45	46	1
163	163	1
83	83	1
86	87	1
115	115	2
47	47	1
225	229	1
243	244	1
70	70	2
66	234	1
98	165	1
172	172	1
159	204	1
56	56	1
28	28	2
244	248	1
51	52	1
2	6	2
42	43	1
182	227	2
189	224	1
5	5	2
5	213	1
21	22	1
172	187	1
186	200	1
68	69	1
76	78	1
104	104	1
93	98	1
160	179	1
64	67	2
246	246	2
12	55	1
30	49	1
15	22	1
228	231	1
95	176	1
165	166	1
76	76	1
4	34	1
10	10	2
173	173	2
62	91	1
24	181	1
169	184	1
204	210	1
106	222	1
196	198	1
194	195	1
215	223	1
204	219	1
192	192	1
48	65	1
26	41	1
220	220	1
164	176	1
107	107	1
7	14	1
30	40	1
175	175	1
111	112	1
205	236	2
218	232	1
88	91	1
6	66	1
240	240	1
67	210	1
180	201	1
99	99	2
183	183	1
224	224	1
3	35	1
84	85	1
237	247	1
49	49	1
61	62	1
199	227	1
207	207	1
24	24	1
24	52	1
211	211	1
103	104	1
208	233	1
238	238	1
210	244	1
217	229	1
230	235	1
32	32	2
97	97	1
176	189	1
15	52	1
202	202	1
0	108	1
171	174	1
173	174	1
