149	149	5
26	28	1
30	30	1
118	118	4
24	63	1
163	167	2
76	79	1
174	174	2
169	169	2
160	160	1
114	115	2
144	144	4
132	161	1
176	176	3
105	106	1
172	174	2
148	148	1
137	145	1
98	99	2
112	112	5
108	141	1
57	66	1
46	46	1
154	154	3
104	104	1
159	159	3
127	127	2
123	123	2
5	5	2
95	95	2
108	110	4
32	32	3
142	143	2
132	132	4
166	168	1
57	84	1
154	156	1
93	94	3
110	110	2
103	126	1
155	155	2
97	97	1
107	109	1
9	9	4
139	179	1
113	114	1
78	78	1
15	15	2
100	101	1
59	59	2
137	137	4
75	132	1
153	153	2
12	26	1
120	120	1
55	55	3
79	79	4
138	180	1
8	12	1
96	96	5
53	54	1
138	138	4
156	156	4
94	127	1
103	160	2
131	131	2
71	71	2
76	76	2
80	80	1
72	73	4
114	114	1
67	67	3
2	2	4
54	54	1
84	85	1
137	138	1
103	159	1
123	125	2
12	13	2
179	179	3
68	71	2
115	115	2
171	172	1
67	126	1
67	102	1
107	108	2
112	139	1
55	75	1
17	27	2
158	159	1
71	132	1
143	144	1
82	86	1
61	61	3
15	24	2
81	81	2
21	25	1
94	102	4
52	52	2
133	133	3
134	149	1
4	4	2
8	8	2
40	40	1
44	53	1
96	125	1
170	170	1
136	154	1
107	116	1
146	146	3
118	120	1
29	30	1
64	64	2
71	72	1
93	129	1
157	157	1
171	171	2
65	66	1
160	167	2
71	158	1
38	57	1
88	88	2
31	36	1
88	89	1
95	100	1
9	11	1
121	123	1
18	18	1
63	64	2
98	102	2
3	4	1
99	99	1
51	52	2
31	31	1
141	141	4
78	79	2
89	89	1
31	32	3
59	129	1
86	86	2
122	126	1
117	117	2
24	24	2
66	87	2
136	177	1
139	139	2
16	35	1
98	98	4
7	7	2
28	28	1
20	21	1
8	32	1
163	163	4
147	147	2
34	37	1
4	45	1
36	38	1
25	25	1
14	14	3
107	110	1
6	13	1
66	66	1
16	16	2
38	38	2
159	160	1
39	39	1
6	6	1
38	39	1
127	128	1
106	164	1
77	77	2
33	33	3
85	86	1
20	24	1
90	90	1
41	41	1
58	59	3
37	37	1
111	111	1
17	18	1
35	35	1
108	108	2
114	163	1
66	68	1
65	65	1
50	50	1
20	20	2
173	174	1
130	130	1
57	57	1
128	128	2
60	60	1
173	173	1
35	36	2
21	21	2
18	26	1
102	102	2
8	9	1
0	0	1
159	170	1
45	45	2
152	152	1
142	142	2
9	26	1
144	145	1
162	163	1
166	166	1
167	167	3
36	36	1
75	75	1
23	23	1
163	168	1
94	131	1
42	42	1
73	73	1
80	81	1
3	3	1
3	5	1
136	136	1
44	45	1
117	118	1
95	101	1
68	68	1
148	170	1
86	88	1
150	151	1
114	158	1
62	62	1
66	72	1
50	51	1
151	152	1
29	29	2
51	51	1
51	106	1
33	35	1
165	165	1
159	169	1
76	173	1
134	134	1
161	161	1
137	142	1
77	78	1
145	145	1
34	34	1
96	126	1
126	126	1
18	24	1
9	16	1
158	158	1
113	113	1
73	96	1
156	157	1
24	118	1
33	37	1
167	175	1
74	76	1
108	118	1
84	91	1
124	124	1
140	142	1
70	70	1
11	98	1
87	87	1
68	168	1
110	120	1
