152	152	2
4	15	2
61	73	2
122	123	1
43	43	2
75	76	4
91	129	1
171	171	2
50	72	1
113	114	4
30	30	2
14	14	1
140	140	6
52	56	2
177	178	2
61	61	4
50	50	6
128	159	1
55	55	8
134	134	8
172	172	11
67	106	1
79	80	2
157	157	1
15	15	9
145	159	1
121	121	5
133	133	5
80	80	2
109	109	1
26	28	2
156	159	1
77	105	2
57	58	1
117	117	3
83	84	1
173	173	1
101	101	3
24	24	3
80	86	1
52	52	3
165	165	4
67	91	1
32	103	1
90	123	1
78	78	6
7	41	1
148	148	4
95	171	1
102	102	9
105	105	5
2	4	1
31	43	1
53	54	3
80	100	2
64	65	1
89	89	5
75	75	5
154	154	3
32	32	5
127	150	1
162	162	3
65	102	1
33	33	6
173	174	3
104	169	1
92	92	2
49	53	1
164	165	1
56	122	1
129	129	4
124	166	1
123	125	1
178	179	1
116	116	3
131	131	3
107	107	4
16	17	2
110	110	4
176	176	4
122	122	4
15	16	1
153	154	1
5	6	5
55	59	1
79	79	8
107	111	1
3	31	1
45	155	1
32	43	2
58	58	2
108	108	5
70	70	1
179	179	3
81	81	6
106	107	2
155	155	3
112	179	1
35	35	4
31	44	1
174	174	1
113	113	5
132	132	1
169	169	5
161	162	2
73	73	2
153	153	4
1	105	1
158	158	4
64	64	3
135	135	3
32	42	2
95	95	7
5	5	5
143	144	1
57	57	2
52	54	1
139	139	3
167	167	2
6	6	5
141	141	2
129	130	1
77	77	1
138	138	6
118	118	2
21	106	1
41	41	4
76	76	3
35	42	1
65	65	3
77	118	2
170	170	3
27	29	1
58	94	1
38	56	1
137	178	1
68	68	2
120	122	2
8	21	1
85	85	1
12	12	2
80	93	1
112	112	2
113	126	2
152	160	1
147	147	3
114	114	3
14	42	3
136	136	3
98	98	2
42	42	2
134	166	1
9	9	3
9	10	1
53	53	3
17	17	1
84	84	1
38	86	1
150	150	4
59	59	2
174	175	1
10	10	2
37	37	4
51	57	1
121	142	1
12	13	1
38	38	3
93	93	5
54	55	1
164	177	4
56	56	1
147	152	1
1	1	6
67	67	4
145	146	3
78	104	1
13	13	8
63	63	1
171	176	1
120	120	5
134	148	1
149	149	4
111	127	2
161	161	4
40	40	4
62	62	2
72	72	3
52	113	1
84	114	1
56	96	3
143	143	2
175	175	2
82	82	2
117	128	1
72	83	1
2	2	6
26	37	1
159	160	1
161	163	1
19	22	1
37	65	3
146	146	4
105	120	1
25	26	1
27	27	2
91	91	2
64	66	2
3	5	1
111	111	2
142	142	1
73	76	1
28	28	4
34	34	2
130	130	1
151	151	3
83	83	2
91	92	3
169	170	1
152	155	1
121	122	1
56	103	1
84	129	1
124	124	4
115	126	1
18	18	2
97	100	1
44	110	1
75	111	1
177	177	3
26	26	3
156	174	1
7	7	1
10	14	1
31	115	1
101	103	1
16	32	1
146	147	2
74	74	2
166	167	1
67	158	1
163	163	4
142	143	3
140	150	1
66	67	1
127	127	3
123	123	1
5	16	1
160	160	2
125	125	3
6	12	1
120	129	1
156	156	2
62	100	1
174	180	1
106	106	2
152	159	1
116	123	1
167	168	4
57	62	1
108	134	1
10	15	1
125	136	2
32	53	1
116	119	2
130	140	1
127	129	1
50	52	2
175	177	1
146	162	1
60	60	3
138	139	3
162	163	2
0	0	2
37	38	1
63	84	1
15	33	1
115	115	1
67	99	2
141	151	1
138	149	1
157	164	1
34	35	1
127	128	1
90	90	1
104	104	1
56	76	1
90	91	1
21	24	1
180	180	1
65	74	1
6	13	1
26	66	1
163	165	1
22	22	2
71	71	1
179	180	1
175	176	1
20	20	1
141	148	2
11	11	1
40	46	1
178	178	3
29	30	1
31	32	1
164	164	1
123	141	2
30	114	1
167	174	1
13	24	1
168	170	1
52	53	1
154	156	1
135	136	1
150	151	2
118	119	1
11	43	1
8	97	2
117	119	1
59	104	1
85	103	1
119	144	1
15	22	1
8	9	1
33	42	1
168	168	1
103	103	1
56	57	1
102	103	1
159	159	2
147	148	1
170	175	1
59	73	1
97	97	1
172	174	1
132	133	1
106	109	1
16	23	1
126	126	1
72	74	1
144	144	2
86	144	1
159	163	1
4	4	2
67	159	1
3	3	1
24	26	1
54	54	1
117	125	1
73	106	1
106	163	1
60	61	1
104	115	1
151	152	1
23	23	2
51	51	2
76	77	1
18	21	1
167	171	1
4	29	1
37	40	1
81	97	1
96	97	1
85	106	1
44	44	2
104	114	1
31	31	1
100	100	3
86	147	1
145	145	1
85	127	1
66	66	1
148	158	1
143	146	1
39	40	1
100	101	1
58	95	1
88	88	1
168	169	1
161	165	1
121	125	1
