101	102	2
25	35	1
157	157	2
23	23	2
76	76	1
23	24	1
167	170	1
163	182	1
148	148	5
193	193	4
94	95	1
122	122	1
34	81	1
59	64	1
172	172	4
99	114	2
118	118	4
42	42	3
137	140	2
155	155	3
67	67	6
104	106	1
136	136	4
70	71	2
132	148	1
158	159	5
146	149	1
47	47	6
187	187	4
132	135	1
189	189	3
96	97	1
41	55	2
115	116	1
98	98	2
47	52	1
161	161	6
55	56	2
173	173	2
128	196	1
7	62	1
65	76	1
44	44	6
192	192	8
191	191	3
155	165	3
194	195	1
50	50	2
176	176	5
6	6	7
109	109	2
139	139	3
181	182	2
190	190	5
172	173	4
20	27	1
105	105	3
44	183	2
119	121	4
2	2	6
0	2	1
104	105	1
108	146	1
102	102	5
54	54	2
26	26	1
29	29	4
70	70	4
150	150	3
56	56	4
180	182	1
83	87	1
59	59	2
156	159	2
154	155	3
67	70	1
49	49	2
115	115	2
17	18	1
69	70	1
24	25	1
108	113	2
36	140	1
139	141	2
148	149	2
1	4	2
38	53	1
26	35	1
104	104	3
37	37	3
136	152	1
8	188	1
126	126	3
61	62	1
151	151	4
100	100	3
80	81	1
55	55	7
93	161	1
171	171	3
50	193	1
21	22	2
142	181	2
144	144	1
10	10	1
174	174	3
36	75	1
108	108	1
81	81	3
168	169	1
12	15	2
98	99	1
137	142	1
96	174	1
9	52	1
188	189	3
54	55	3
3	3	4
192	193	2
112	112	3
37	56	2
116	116	2
197	197	2
180	180	3
143	144	2
139	169	1
25	25	2
161	162	2
67	68	3
167	167	2
43	43	3
98	154	1
71	71	4
135	140	1
23	81	1
9	9	5
63	63	1
131	131	2
62	62	2
86	86	1
103	106	4
17	78	1
46	46	4
175	175	1
43	44	4
159	160	1
165	165	3
145	145	3
53	53	4
119	119	5
182	182	4
149	149	4
37	38	1
146	146	9
178	179	1
153	153	3
72	72	3
6	169	2
191	192	1
83	83	5
174	183	1
177	180	2
180	191	1
177	177	2
5	6	1
188	188	5
15	15	3
30	30	3
69	69	2
127	127	3
36	103	2
79	79	3
10	62	1
122	123	1
118	119	2
194	194	4
143	143	4
170	170	4
85	87	1
56	57	1
135	135	4
147	148	1
193	194	2
136	137	2
59	61	2
178	186	1
141	141	2
113	113	2
14	14	2
156	157	1
120	120	2
17	59	1
36	36	4
114	134	1
12	12	1
87	103	2
110	110	3
87	87	2
160	160	1
134	134	2
133	148	2
196	197	2
184	184	4
128	128	3
140	141	3
27	75	1
87	88	2
130	130	3
88	104	1
123	123	3
30	75	2
95	95	2
110	163	2
12	13	2
43	57	1
48	48	1
20	20	1
6	179	1
28	28	1
35	36	1
35	35	1
60	61	1
39	39	2
94	94	2
5	31	1
68	69	2
142	142	2
26	83	1
149	150	1
174	175	1
89	89	1
74	82	1
1	3	2
64	64	4
152	152	3
34	35	1
140	165	1
160	161	1
171	178	1
66	67	1
183	183	4
190	193	1
55	57	1
186	188	1
0	0	1
163	163	2
32	32	5
169	170	1
152	154	1
62	63	1
29	30	1
115	185	1
20	21	2
84	84	2
51	51	2
115	174	1
17	88	1
26	62	1
4	4	4
78	79	1
132	132	2
46	47	1
14	15	1
167	188	1
179	179	1
118	120	1
60	60	2
24	26	1
114	119	1
169	178	1
68	84	2
191	194	1
43	45	1
125	125	1
89	130	1
16	16	3
124	124	3
179	180	1
185	185	2
39	53	1
13	13	1
64	161	1
101	101	1
122	124	2
48	49	1
143	175	1
196	196	4
178	178	1
33	182	1
122	178	1
59	174	1
103	145	1
82	82	1
45	45	3
8	9	1
147	147	1
107	107	3
87	89	2
17	17	3
130	133	1
155	156	1
81	85	1
18	18	3
58	118	1
105	106	1
180	190	1
189	192	1
100	146	1
65	65	2
1	2	2
68	68	1
162	162	1
18	71	1
59	60	1
38	38	1
140	140	4
97	97	2
175	176	1
128	194	1
106	107	1
100	145	1
60	76	1
188	190	1
88	102	1
125	134	1
27	71	1
162	165	1
184	186	1
160	179	1
31	31	1
107	108	1
0	56	1
4	14	1
121	157	3
117	117	1
137	137	2
38	64	1
186	186	1
32	173	1
41	41	2
63	64	1
53	58	1
30	31	1
125	150	1
159	159	2
152	153	1
2	94	1
121	121	2
189	196	1
150	155	1
85	85	2
108	127	1
68	135	1
7	7	1
77	80	1
96	96	1
148	152	1
12	93	2
52	52	2
45	46	1
173	174	1
93	108	4
62	126	1
3	25	1
138	155	1
184	185	1
4	18	1
57	57	1
166	188	1
16	17	3
108	109	2
40	114	1
88	88	1
16	60	1
26	116	1
114	115	1
156	156	1
157	158	1
7	191	1
80	80	2
41	73	1
71	74	1
99	99	2
99	101	1
24	24	1
32	43	1
133	133	1
158	158	1
159	161	1
135	136	2
31	145	1
133	139	1
179	190	1
88	89	1
42	45	1
129	130	1
89	145	1
146	147	1
77	85	1
27	27	2
74	89	1
55	62	1
123	125	1
169	169	1
189	191	1
89	173	1
166	166	1
138	138	2
74	90	1
57	58	1
55	113	1
162	164	1
119	120	1
58	58	1
