9	9	3
34	87	1
81	81	1
78	78	4
35	35	2
21	26	1
74	74	3
16	22	2
45	45	2
32	32	4
109	109	1
64	65	1
113	113	2
69	69	3
23	58	1
119	120	1
105	105	1
75	75	2
16	16	4
32	33	1
66	68	1
70	70	2
5	5	3
125	125	2
31	31	3
29	30	1
122	122	1
123	123	3
115	115	2
53	53	1
92	92	4
34	34	5
98	98	1
3	3	2
1	1	2
101	101	3
113	117	1
76	77	2
101	102	1
127	127	2
62	64	2
21	22	1
7	50	1
111	111	1
30	30	1
57	57	1
25	25	3
4	26	2
54	57	2
83	107	1
124	125	3
108	109	2
19	19	1
55	56	1
63	63	1
82	82	3
108	108	2
98	99	1
67	67	3
11	11	3
73	73	4
36	36	3
95	95	3
133	133	1
110	118	1
67	68	1
114	114	1
129	131	2
97	97	1
110	111	1
129	130	1
94	94	2
24	24	3
49	50	1
107	107	2
79	79	6
64	64	1
27	27	1
26	28	3
27	28	1
1	50	1
62	62	3
110	110	2
80	80	4
120	120	4
117	117	2
22	22	1
18	18	3
119	119	2
116	119	1
33	35	1
121	122	2
0	6	1
93	93	1
112	112	2
71	71	4
28	28	3
126	126	4
3	6	1
76	76	2
84	85	1
57	59	1
71	72	1
67	111	1
50	50	1
91	91	1
65	65	2
106	106	1
22	23	1
79	80	1
36	37	1
111	112	1
97	114	1
7	7	4
118	118	2
135	135	3
33	33	3
10	10	2
21	105	1
55	55	2
6	17	1
101	104	1
121	121	2
12	13	2
14	14	3
70	77	1
124	124	2
2	2	3
51	51	2
1	2	2
0	0	1
100	101	1
6	97	1
35	36	2
52	52	1
87	87	2
61	61	1
116	120	1
22	27	1
84	84	1
77	77	1
72	72	2
23	23	1
48	48	2
33	36	1
31	32	1
27	35	1
63	64	1
116	118	2
7	8	1
88	88	1
132	133	1
85	85	3
86	86	1
96	96	1
47	51	1
8	9	1
103	103	3
15	15	1
125	126	1
17	17	1
91	93	1
118	119	1
20	20	1
122	123	1
96	97	1
83	83	1
7	22	1
36	38	1
9	10	1
127	129	1
49	88	1
49	97	1
62	63	1
87	130	1
6	6	1
30	87	1
21	21	1
113	114	1
92	93	1
45	61	1
69	111	1
