28	108	1
19	19	2
83	84	1
86	87	2
5	5	3
92	94	1
87	88	1
106	107	2
40	79	2
98	108	1
29	29	2
127	128	2
86	86	5
78	78	4
105	105	2
79	80	2
122	122	2
40	41	1
23	25	1
92	92	2
55	56	3
145	145	2
81	81	3
70	71	1
15	15	2
31	48	1
155	155	2
37	37	2
38	39	1
28	129	1
68	68	1
45	45	1
110	110	3
136	136	4
20	21	2
91	92	2
100	100	2
134	134	3
17	43	2
16	17	2
2	66	1
132	132	3
157	157	5
101	101	2
127	134	1
31	50	1
14	15	1
40	83	2
95	96	3
31	41	2
20	20	4
55	55	3
103	103	1
29	101	1
66	70	1
48	48	5
111	111	2
154	154	1
24	24	4
44	44	5
84	84	2
98	98	6
88	108	2
1	2	3
46	54	1
87	87	2
88	88	3
49	49	2
82	83	2
27	111	1
11	15	1
17	18	1
12	13	1
108	108	2
125	126	2
75	75	2
114	115	3
115	115	1
3	3	3
133	133	1
99	100	1
53	95	1
113	120	1
83	83	4
37	38	2
119	119	3
116	117	1
77	78	1
7	7	1
46	46	2
104	108	1
41	41	1
106	106	1
64	93	1
28	29	2
66	67	1
85	86	1
141	142	1
149	151	1
38	86	3
36	71	1
102	104	1
94	94	4
10	10	2
138	138	2
11	11	1
30	30	3
28	28	3
37	39	1
113	113	1
8	8	5
118	118	3
44	69	1
100	103	1
14	17	1
84	89	1
6	6	1
42	42	1
52	52	1
123	123	1
24	25	1
9	10	3
17	34	1
43	43	3
56	56	1
9	16	1
139	139	3
80	80	2
102	102	1
93	95	1
120	120	2
34	36	1
137	138	1
90	91	2
152	153	1
119	125	2
93	93	1
82	82	1
22	22	3
121	142	1
4	4	1
52	54	1
107	108	1
156	157	1
63	63	2
0	0	1
50	50	3
116	116	3
109	109	2
96	97	2
96	96	2
112	113	2
133	140	1
77	77	2
103	106	1
128	128	1
89	89	1
137	137	1
155	156	1
36	36	3
149	150	1
90	92	1
134	135	1
110	126	2
18	19	2
148	148	1
16	35	1
154	155	1
72	72	1
38	38	1
149	156	1
131	131	2
121	121	2
140	142	1
62	62	1
158	158	1
12	12	1
100	101	1
71	71	2
122	123	1
1	1	2
23	30	1
36	46	1
117	117	1
113	114	1
149	149	1
127	127	1
130	130	1
137	151	1
132	133	1
99	156	1
5	101	1
130	131	1
70	70	2
27	27	1
31	31	3
146	152	1
17	32	1
27	29	1
29	105	1
97	97	1
4	70	1
81	135	1
128	129	1
14	14	1
23	23	1
103	104	1
34	34	1
11	16	1
16	77	1
66	66	1
2	3	2
123	124	1
62	157	1
56	61	1
73	73	2
26	29	1
2	2	1
88	90	1
25	25	1
42	70	1
13	14	1
134	139	1
105	106	1
64	64	1
