106	106	5
135	143	1
34	156	1
11	11	3
161	161	3
128	129	1
40	40	8
19	19	1
17	17	2
5	5	2
62	64	1
122	122	2
168	169	1
97	112	2
134	147	1
110	110	5
138	138	4
146	146	1
83	109	1
0	136	1
91	91	5
91	149	1
18	23	2
99	145	1
118	118	3
91	92	2
14	23	1
36	36	3
142	142	2
113	113	3
162	163	1
128	128	3
119	119	3
1	1	4
117	118	1
22	23	2
16	17	1
74	75	1
109	110	2
47	47	3
136	137	1
111	114	1
71	71	3
47	122	1
84	84	1
141	141	1
33	42	2
102	123	1
6	44	1
45	46	2
20	20	6
81	81	3
156	156	7
22	22	4
38	49	1
18	18	2
48	48	1
139	165	2
148	149	2
50	50	3
54	75	1
49	50	1
37	107	1
75	75	1
132	137	1
69	69	1
10	10	2
2	7	1
8	132	1
139	155	2
97	111	1
9	9	2
14	14	4
96	97	3
0	1	1
55	58	1
66	72	1
139	154	1
170	170	1
13	13	4
77	77	1
74	76	1
167	167	3
111	116	1
109	109	1
14	16	1
129	129	1
8	8	3
158	158	1
6	6	6
129	133	1
73	133	1
70	70	3
3	4	1
164	165	3
78	127	1
66	94	1
144	144	3
84	99	1
55	93	1
90	90	7
56	103	1
157	158	1
107	107	3
21	21	1
101	113	1
53	102	1
43	43	3
89	89	3
39	40	2
72	72	2
102	104	1
79	79	1
163	163	3
56	56	3
125	125	2
103	103	1
81	104	1
82	87	1
51	56	1
42	42	6
152	152	1
27	27	2
55	55	3
152	164	1
40	90	3
53	53	2
143	153	2
73	73	2
108	110	1
66	66	1
56	57	1
139	160	1
44	46	1
52	52	2
101	102	1
84	86	1
87	158	1
16	44	2
22	90	1
25	56	1
115	115	3
125	158	1
16	24	1
41	42	1
145	146	2
17	25	1
80	80	1
8	9	1
101	112	1
3	3	4
16	21	1
25	26	1
114	115	1
151	151	4
114	114	1
96	96	1
23	23	2
16	16	3
10	12	1
135	135	2
45	47	1
117	117	2
97	98	1
45	45	3
40	79	1
137	137	2
100	100	1
38	106	1
36	38	1
63	63	1
44	44	3
98	98	2
9	12	1
0	0	2
15	24	1
34	139	1
148	150	1
116	116	3
103	122	1
124	128	1
38	41	1
39	39	1
57	74	1
65	66	1
2	2	2
148	148	2
153	154	1
97	97	2
157	157	2
100	104	1
136	136	4
38	38	1
36	127	1
149	149	2
139	140	2
84	85	2
86	109	2
24	24	2
166	168	1
108	109	1
103	146	1
12	12	2
6	43	1
9	77	1
4	4	3
65	65	1
130	130	1
89	90	1
105	133	1
151	156	1
102	146	1
91	154	1
130	166	1
139	143	2
2	13	1
37	143	1
34	34	2
108	108	1
98	120	1
144	151	1
21	24	1
54	55	2
17	18	1
26	77	1
123	145	1
82	85	1
129	143	1
26	27	1
96	122	1
7	7	1
68	68	1
78	79	2
164	164	5
71	78	1
131	131	1
133	146	2
62	62	2
92	101	1
118	119	1
50	154	1
145	145	2
37	37	3
83	163	1
161	165	1
166	166	1
87	88	1
105	127	1
76	77	1
163	164	1
143	170	1
124	132	1
7	25	1
38	163	1
121	134	1
88	88	1
121	121	1
123	124	1
105	155	1
77	94	2
80	124	1
76	118	1
92	92	1
33	33	1
2	53	1
155	157	1
37	41	1
49	49	2
99	99	1
133	137	1
76	76	1
92	94	2
100	101	1
126	126	4
97	99	1
43	51	1
97	152	1
149	158	1
140	140	1
25	25	3
64	105	1
92	130	1
113	114	2
46	48	1
50	68	1
35	155	1
112	112	2
160	162	1
150	150	2
99	143	1
51	68	1
87	141	1
85	85	1
5	52	1
97	100	1
102	103	1
73	79	1
83	83	3
86	90	1
67	68	1
41	41	1
162	162	1
109	126	1
123	142	1
54	69	1
65	148	1
48	49	1
136	147	1
111	112	2
144	158	1
58	66	2
169	169	2
91	119	1
21	27	1
94	94	2
58	68	1
55	56	1
141	146	1
64	64	1
9	17	1
63	67	1
36	134	1
84	100	1
46	47	1
20	24	1
43	111	1
88	167	1
22	116	1
17	47	1
108	113	1
82	82	1
87	89	1
4	164	1
100	111	1
139	139	1
116	130	1
156	157	1
105	148	1
49	54	1
127	127	1
43	47	1
