144	144	1
96	96	4
47	54	2
29	31	1
193	193	5
228	228	1
155	155	4
153	155	1
38	38	3
104	108	1
176	177	1
94	94	2
115	115	4
169	169	4
115	117	1
54	55	3
76	76	3
28	28	6
236	236	3
80	80	1
229	229	4
158	159	2
25	26	2
201	201	3
20	162	2
13	14	1
18	19	3
152	170	1
195	195	4
75	76	1
158	158	5
232	240	1
232	232	2
101	101	4
21	21	1
53	235	1
177	177	4
91	91	1
43	52	1
203	203	4
244	247	1
176	180	1
176	176	1
88	89	1
202	233	1
212	212	2
90	94	2
245	245	1
91	95	1
19	19	2
202	202	1
43	212	1
13	13	1
196	196	1
170	170	3
99	101	1
38	111	2
47	53	1
86	86	1
34	34	4
58	96	2
24	24	3
33	33	1
180	181	1
172	189	1
239	245	1
19	29	1
44	45	2
210	210	3
100	162	1
244	245	2
167	167	2
182	182	3
162	162	3
80	83	1
74	118	1
2	2	1
64	65	1
232	233	2
181	181	4
14	18	1
61	61	4
219	219	2
211	211	2
57	60	2
198	199	2
107	107	1
15	240	1
46	46	1
54	54	4
79	79	2
7	18	1
87	87	3
83	84	1
87	88	2
166	166	3
39	87	1
35	35	4
82	90	2
95	95	4
18	18	2
228	230	1
214	214	2
161	161	2
193	216	1
244	244	6
70	94	1
225	230	1
44	44	4
172	173	1
163	164	1
6	6	2
189	189	3
23	162	1
63	63	2
41	109	1
35	36	1
195	198	2
179	241	2
60	61	1
36	36	4
186	190	1
10	100	2
35	37	1
47	48	1
208	208	1
91	198	1
33	204	1
46	103	1
17	17	1
56	56	5
203	204	1
57	57	1
193	242	1
119	163	1
86	89	1
74	106	1
200	200	3
213	213	2
245	246	5
17	19	1
12	12	1
195	219	1
218	231	1
21	22	1
117	117	2
78	79	1
24	25	1
25	25	3
170	237	1
238	238	1
150	152	1
69	69	4
15	206	1
57	187	2
215	215	3
88	88	2
88	91	1
9	9	2
241	241	2
187	187	1
175	175	3
156	156	3
188	189	2
218	218	2
58	59	1
60	62	1
92	92	3
194	194	1
154	154	4
209	232	1
209	209	3
46	114	1
146	147	1
23	23	1
178	178	1
102	104	2
91	118	1
52	52	2
198	198	1
207	208	2
49	55	1
118	118	3
61	62	2
56	57	1
243	244	1
63	67	1
20	20	3
29	29	3
105	105	3
4	5	2
94	98	1
36	66	1
185	185	2
58	58	3
164	164	1
1	59	1
116	116	4
90	199	2
213	245	1
1	192	1
5	51	1
98	158	1
163	163	5
85	85	2
85	88	1
210	240	1
205	205	2
113	119	1
66	67	3
62	62	1
113	113	1
240	240	2
165	165	2
173	173	3
81	90	2
34	45	1
103	103	2
114	114	1
18	28	1
208	232	1
90	97	1
66	66	3
30	30	2
191	196	1
159	159	1
81	81	1
78	81	1
119	119	2
190	190	2
68	68	4
165	218	2
88	119	1
6	151	2
65	65	2
7	7	3
39	39	1
224	224	1
9	110	1
100	241	1
4	13	2
80	82	1
12	14	1
60	60	1
77	77	1
154	155	1
98	99	1
184	184	3
42	42	2
110	111	1
66	69	1
220	242	1
106	106	1
233	236	1
41	41	1
53	93	1
180	180	1
187	190	1
102	102	1
56	234	1
78	78	1
82	117	1
226	226	1
75	75	1
20	54	1
174	174	1
244	248	1
233	233	2
35	45	1
99	103	1
164	237	1
18	30	1
167	214	1
4	4	2
31	31	1
45	46	1
160	160	3
13	34	1
223	248	1
247	247	1
112	112	2
14	15	1
45	58	1
41	42	2
189	191	1
54	64	1
176	188	1
246	246	1
231	231	1
192	192	1
159	162	1
208	213	1
33	36	1
26	27	1
33	78	1
195	225	1
51	51	2
88	96	1
7	143	1
48	48	1
81	82	2
186	211	1
101	161	1
71	72	3
212	215	1
43	43	1
146	146	2
8	8	1
38	39	1
27	165	1
218	242	1
52	198	1
204	205	1
174	176	1
191	191	1
163	190	1
207	207	1
117	149	1
0	0	1
152	153	1
222	223	1
81	214	1
93	201	1
22	22	1
157	232	1
57	72	2
104	104	1
97	236	1
218	219	2
168	169	2
27	28	1
193	235	1
37	37	2
234	234	1
96	187	1
151	151	2
74	109	1
222	222	3
112	113	1
83	157	1
174	224	1
218	233	1
159	238	1
1	1	2
227	227	1
119	152	1
116	239	1
108	108	1
26	26	1
100	100	1
227	234	1
32	32	3
181	182	1
238	239	1
238	247	1
245	247	1
235	236	1
57	78	1
91	211	1
80	240	1
180	241	1
59	59	1
70	70	1
88	215	1
8	204	1
171	172	1
247	248	1
209	211	1
227	230	1
204	204	1
106	108	1
209	210	1
177	243	1
30	33	1
160	161	1
82	84	1
11	67	1
242	242	2
52	100	1
191	192	1
47	50	1
220	227	1
0	245	1
16	42	1
92	94	1
225	225	1
208	209	1
90	90	1
150	224	1
65	222	1
111	111	1
2	156	1
18	29	1
72	74	1
14	24	1
18	23	1
50	83	1
101	180	1
170	175	1
248	248	1
164	216	1
30	31	1
28	52	1
240	241	1
229	230	1
230	230	1
153	153	1
20	235	1
23	59	1
195	197	1
220	221	1
119	160	1
45	45	1
47	114	1
215	233	2
