149	149	2
177	178	2
79	79	1
72	72	3
0	53	1
86	87	2
185	185	1
125	126	2
182	182	5
142	144	2
171	172	1
56	56	2
113	113	1
115	115	1
141	141	2
134	135	1
104	113	1
187	188	1
47	48	3
20	22	2
31	31	1
139	140	2
47	47	2
146	146	4
73	73	1
78	100	1
89	185	1
108	109	2
66	67	1
170	170	3
138	174	1
76	122	1
58	60	1
155	155	1
12	13	3
153	154	1
6	6	2
111	119	1
8	8	3
111	111	2
139	139	3
113	174	1
62	62	2
96	127	1
11	12	2
184	185	2
29	36	1
38	38	1
3	3	1
56	105	1
40	41	2
120	120	3
41	41	3
188	188	3
112	112	3
11	11	3
172	175	1
19	62	1
140	183	1
135	150	1
116	116	1
189	190	2
28	44	2
184	184	1
187	187	3
119	149	1
186	186	1
125	125	2
171	171	2
144	144	1
64	64	1
36	37	3
42	44	3
147	147	2
128	130	2
166	168	2
13	18	1
97	128	1
129	130	1
54	54	2
7	7	4
86	90	1
182	186	1
97	97	1
25	25	2
133	133	3
138	138	1
12	34	1
40	40	1
107	107	2
124	124	1
169	170	2
130	184	1
90	90	1
176	176	1
62	63	2
94	95	1
89	89	3
148	148	1
21	22	2
90	96	1
78	78	3
22	22	2
151	151	1
164	164	5
56	100	2
122	122	1
114	170	1
84	113	1
77	78	1
124	183	1
103	126	1
17	25	1
84	117	1
28	28	2
118	121	1
70	70	1
23	23	2
128	128	2
117	117	1
99	101	1
16	36	1
92	94	1
71	71	2
149	169	1
55	55	1
2	2	1
64	65	2
37	37	1
136	136	3
147	148	1
22	53	1
13	13	2
71	72	1
104	104	1
18	19	1
165	165	1
137	137	2
94	112	1
151	153	2
68	74	1
8	9	2
75	76	1
149	188	1
58	73	1
142	142	1
24	24	1
19	19	1
114	114	1
103	103	2
107	108	1
30	32	1
129	146	1
54	55	1
102	102	1
110	110	1
67	67	1
87	87	2
107	172	1
190	190	2
35	35	2
10	10	1
163	163	1
34	34	1
41	84	1
46	46	1
70	150	1
53	53	2
144	145	1
87	88	1
129	129	2
22	49	1
64	113	1
148	149	1
57	57	1
136	163	1
173	177	1
91	92	1
126	127	1
121	150	1
157	158	2
67	109	1
86	86	4
34	36	1
152	153	2
27	28	1
140	140	1
135	137	1
84	84	1
132	132	1
96	98	1
19	27	1
18	24	1
11	15	1
67	111	1
33	33	1
26	26	1
95	97	1
15	15	1
173	173	1
36	36	1
74	75	1
119	119	1
71	160	2
77	84	2
132	137	1
4	25	1
109	109	1
109	125	1
92	92	1
8	10	1
5	5	1
6	7	1
10	16	1
129	137	1
145	175	1
104	107	1
124	178	1
12	14	1
93	94	2
162	162	1
135	188	1
77	77	1
71	95	1
131	132	1
58	90	1
44	47	1
19	20	1
42	42	1
172	172	1
179	179	1
166	166	1
62	99	1
124	126	1
138	166	1
167	170	1
136	188	1
72	75	1
115	118	1
164	165	1
159	159	1
189	189	1
188	189	1
