116	116	1
4	6	1
54	54	1
58	60	1
41	88	1
4	10	1
94	129	1
179	179	2
104	106	2
110	140	1
88	88	3
137	138	1
84	84	1
159	160	1
18	92	1
79	79	1
77	101	1
9	52	1
100	184	1
109	183	1
182	182	3
165	166	1
124	124	1
48	48	3
41	87	1
35	46	1
124	127	2
182	190	1
27	27	1
94	94	5
144	185	1
3	3	2
119	120	1
107	129	1
93	119	1
155	156	2
63	63	2
22	167	1
85	129	2
118	118	2
67	74	1
64	164	1
117	117	2
93	93	3
82	83	1
1	19	1
180	182	1
186	186	2
185	185	3
99	100	2
147	147	1
84	148	1
107	109	1
174	174	3
176	176	2
80	80	5
114	114	5
10	21	1
169	169	4
4	4	2
168	168	3
80	81	1
129	176	1
173	173	2
182	183	2
32	33	1
2	2	2
110	110	3
188	188	4
125	173	1
61	63	1
182	187	1
6	38	2
32	148	2
159	159	2
150	151	2
31	31	3
66	114	1
13	14	1
169	170	1
73	73	2
178	178	1
71	71	1
136	137	1
93	179	1
174	184	1
179	182	1
28	28	3
100	100	4
95	95	1
92	149	1
150	150	2
41	41	1
131	132	1
99	99	4
62	133	1
40	152	1
92	92	1
100	110	1
27	28	3
190	190	4
79	163	1
25	25	6
13	15	1
119	119	2
74	74	3
165	165	3
138	174	1
83	83	2
151	184	1
16	16	3
77	77	4
38	38	1
68	68	1
86	147	2
85	149	1
133	136	1
130	135	2
64	65	1
132	171	1
18	20	3
72	72	3
35	35	3
2	78	2
140	140	1
18	18	1
140	152	1
61	61	2
4	186	2
53	54	1
91	91	2
160	168	1
103	156	2
85	85	1
86	86	2
17	17	1
10	10	2
144	144	2
5	5	4
142	142	2
39	39	1
68	72	1
32	32	2
0	9	1
154	154	1
42	107	2
163	188	1
141	153	1
187	187	1
2	6	1
75	75	2
143	150	1
189	189	1
19	19	2
134	134	2
13	13	1
39	40	1
97	139	1
106	109	2
120	120	1
40	40	2
107	107	3
89	91	1
25	26	1
91	190	1
21	21	1
97	97	1
47	48	1
140	141	2
188	189	1
143	143	1
32	34	1
45	46	1
6	53	2
135	135	1
64	64	1
111	131	2
40	68	2
29	29	1
117	118	1
135	136	2
56	58	2
113	113	2
178	179	2
163	164	2
76	76	1
11	12	3
152	186	1
95	98	1
16	23	1
110	111	2
96	112	1
98	98	1
149	149	1
180	180	4
78	79	2
156	187	2
17	175	1
98	165	1
128	180	1
138	138	2
103	143	1
43	43	1
112	112	1
109	153	1
14	23	1
48	49	1
100	101	1
151	151	4
144	175	1
46	101	1
70	70	1
40	54	1
133	133	1
87	103	1
101	154	1
59	60	1
21	22	1
1	26	1
81	81	1
58	58	1
7	7	3
125	125	1
60	60	1
129	169	1
163	165	1
172	172	1
141	141	1
80	82	2
172	174	1
163	163	1
66	66	2
13	22	1
41	45	1
23	24	1
109	127	1
47	47	2
36	150	2
137	162	1
53	55	2
58	59	1
167	167	1
68	101	1
102	106	1
181	183	1
91	93	1
58	108	1
83	87	1
100	128	1
62	63	1
134	144	1
9	10	1
45	176	1
160	185	1
87	101	2
153	153	2
65	66	1
89	90	1
18	189	1
11	11	2
67	67	1
129	129	4
183	183	3
36	36	1
87	87	1
187	188	1
22	23	1
78	129	1
119	134	1
80	98	1
42	42	1
90	187	1
36	45	1
156	177	1
27	46	1
43	44	1
171	172	1
68	108	1
89	89	2
91	174	1
24	24	1
6	6	2
27	29	1
23	23	1
94	163	1
106	106	1
141	145	1
1	178	1
130	131	1
109	109	2
29	31	1
146	146	1
157	158	1
147	183	1
90	145	1
70	72	1
142	164	1
130	160	1
96	96	1
181	181	1
33	33	1
149	150	1
53	126	1
87	145	1
146	147	1
114	118	1
97	103	1
143	171	1
110	151	1
15	16	1
189	190	1
101	101	1
65	65	1
62	80	1
152	152	1
162	165	1
157	157	1
