30	30	4
25	25	5
39	39	2
60	61	1
80	80	2
10	10	2
75	76	2
114	125	2
129	129	3
29	32	1
14	14	4
53	53	3
76	77	1
18	18	5
31	31	2
32	32	1
121	121	3
79	79	5
44	70	1
12	12	3
91	91	5
92	92	6
52	52	2
132	132	2
89	89	1
67	98	2
100	101	1
4	4	2
119	129	1
117	121	1
102	102	1
33	72	2
65	65	2
48	48	3
50	50	2
65	68	1
3	4	2
75	75	1
15	55	1
84	84	2
58	58	1
98	117	1
33	33	3
124	124	3
80	95	1
23	27	1
64	64	2
56	56	2
45	45	2
88	88	1
63	63	5
95	97	1
47	47	3
8	8	3
42	42	3
126	126	4
9	9	1
112	112	4
43	43	3
97	97	4
118	118	3
1	1	5
131	131	1
103	103	2
3	5	1
15	20	1
46	46	4
95	95	5
26	27	1
68	68	3
11	91	1
48	95	1
43	62	1
73	73	4
12	13	1
20	127	1
39	58	1
5	5	4
34	79	2
133	133	2
82	127	1
64	111	1
21	21	4
32	34	1
18	31	1
74	81	1
17	17	2
106	106	1
82	82	3
129	130	2
22	22	1
114	115	1
48	106	1
79	91	1
87	101	1
51	56	1
122	122	5
128	128	3
123	123	3
126	128	1
6	8	1
54	54	3
96	97	1
105	105	1
63	70	1
24	24	6
80	89	1
115	115	2
102	110	1
0	0	2
94	106	1
91	92	1
89	106	1
17	20	1
44	44	4
76	76	1
52	53	1
11	11	1
3	3	2
62	71	1
108	109	2
13	21	1
94	94	4
42	99	1
71	71	1
111	111	2
120	120	2
86	95	1
115	127	2
104	104	3
62	62	1
117	117	3
121	122	1
24	25	2
72	80	1
119	119	3
61	76	2
127	127	3
98	98	2
49	51	1
4	7	1
66	66	3
105	106	2
105	117	1
61	61	3
65	66	1
96	98	1
40	40	1
96	96	5
18	61	1
115	129	1
13	13	3
8	66	1
38	40	1
23	59	1
99	99	4
4	5	2
85	85	2
80	81	1
55	65	1
70	70	2
108	108	2
74	74	2
29	29	4
85	98	1
107	107	2
60	60	1
93	93	2
113	113	5
100	103	2
110	110	1
107	116	1
40	41	1
120	123	1
99	101	2
7	7	2
125	125	4
47	78	1
81	81	1
15	15	1
59	59	1
62	78	1
24	29	1
28	28	1
0	1	2
17	21	1
58	62	2
78	78	1
72	72	1
60	72	1
19	24	1
53	60	1
90	91	1
86	86	1
6	106	1
124	125	1
115	119	1
51	51	1
8	31	1
79	80	1
0	3	1
29	33	1
20	20	1
30	34	1
84	86	1
69	70	2
23	24	1
57	57	1
2	2	1
3	109	1
101	102	1
87	87	1
71	72	2
109	110	1
23	28	1
115	131	1
77	77	1
79	119	1
117	118	1
84	103	1
102	103	1
107	109	1
53	54	1
126	127	2
42	61	1
113	117	1
64	65	1
58	67	1
66	77	1
55	55	1
103	104	1
38	39	1
82	90	1
61	70	1
101	101	1
73	87	1
83	83	1
98	99	1
60	62	1
1	2	1
