143	144	1
68	74	1
123	125	1
33	66	1
17	23	1
101	150	1
121	137	1
102	103	2
127	128	1
90	90	1
137	144	2
80	85	1
137	138	1
150	152	2
87	87	4
75	75	2
76	76	3
116	130	1
34	45	1
125	125	3
131	132	1
43	43	3
84	84	2
32	32	3
85	85	4
78	151	1
68	84	1
62	62	5
129	129	4
113	144	1
115	115	4
26	26	2
57	57	6
86	86	1
48	48	7
107	107	3
55	64	1
44	44	3
9	9	1
66	90	1
145	145	1
68	68	2
103	103	4
32	35	2
83	83	4
13	14	2
28	28	3
39	39	4
15	15	2
149	150	3
14	25	1
81	81	1
24	24	3
37	53	1
96	96	2
41	41	4
74	74	2
120	120	1
78	78	3
106	106	2
138	138	4
37	56	1
47	56	1
128	128	3
25	26	1
81	82	2
122	123	1
18	28	1
121	130	1
56	56	1
107	110	2
108	149	1
139	139	2
73	73	1
39	40	5
92	93	2
43	45	2
35	71	1
94	94	2
123	123	3
146	146	1
37	39	1
93	99	1
66	67	1
101	136	1
99	107	1
93	93	3
24	68	1
14	14	4
99	101	1
79	82	1
31	31	1
3	6	1
105	133	2
17	17	8
13	13	3
95	121	2
104	138	1
13	43	2
33	33	1
143	143	1
144	147	1
133	133	7
134	134	1
100	112	1
67	67	1
50	50	1
19	20	1
136	136	2
28	83	1
26	104	1
18	19	1
43	96	1
106	115	1
89	89	1
9	17	1
107	111	1
135	148	1
35	35	1
31	42	1
46	46	2
43	57	1
51	51	4
40	40	3
43	54	1
127	131	1
40	41	1
109	153	1
80	80	2
116	116	1
42	42	3
85	86	2
12	12	3
88	145	1
126	126	1
21	21	1
114	115	1
124	134	1
109	109	2
117	127	1
25	25	3
122	122	2
75	76	1
84	114	1
63	63	3
13	41	1
41	120	1
69	69	1
18	18	2
139	146	1
34	35	1
20	21	2
10	10	2
4	4	2
2	3	1
102	109	1
124	125	2
11	32	1
100	100	1
103	104	2
150	150	2
113	113	2
72	72	2
61	61	1
44	48	1
85	123	1
7	7	1
97	97	4
128	136	1
103	117	3
121	150	1
64	64	2
19	19	2
126	127	1
109	123	1
83	139	1
27	83	1
135	154	2
8	10	1
27	27	2
149	149	1
27	28	1
34	36	1
8	8	2
125	126	1
92	92	3
83	96	1
25	36	1
134	135	2
38	38	2
2	2	1
108	108	1
8	57	1
22	37	1
85	87	1
81	83	1
119	119	3
23	23	3
62	63	1
21	23	1
65	65	1
111	111	1
95	96	1
49	110	1
24	26	1
9	23	1
35	51	1
152	152	1
151	151	2
110	111	1
76	80	1
119	121	1
80	101	1
6	7	1
90	112	1
131	131	1
26	30	1
106	130	1
34	34	2
133	134	1
117	151	1
37	38	3
19	39	1
98	98	1
135	138	1
47	49	1
144	144	2
19	75	1
40	43	1
36	36	2
66	151	1
110	113	1
70	70	2
43	56	1
11	20	1
66	87	1
34	103	1
55	56	1
118	150	1
104	104	1
4	6	1
11	11	1
80	140	1
90	97	1
62	72	1
24	30	2
56	70	1
68	148	2
106	120	1
154	154	2
26	94	1
113	126	1
14	15	2
124	136	1
101	102	1
124	127	1
96	97	1
121	126	1
26	27	1
65	99	1
39	42	1
140	140	1
109	110	1
49	61	1
6	6	1
36	38	1
92	94	1
57	80	1
47	47	1
33	38	1
11	52	1
147	154	1
45	45	1
114	127	1
152	154	1
87	110	2
38	51	1
47	48	1
17	18	1
35	45	1
64	65	1
13	23	1
44	45	1
30	32	1
20	20	1
142	142	1
63	64	1
49	50	1
101	126	1
105	105	3
5	7	1
5	5	1
123	128	1
45	70	1
31	32	1
119	120	1
31	53	1
42	98	1
111	145	1
9	13	1
88	105	1
100	123	1
49	49	1
111	129	1
87	90	1
88	126	1
118	118	2
137	137	1
11	27	1
95	109	1
117	117	1
113	114	1
93	94	1
