127	132	2
65	65	1
10	33	2
126	126	2
10	10	1
109	125	2
64	108	2
37	37	1
138	138	3
50	51	1
129	129	1
58	60	2
80	80	6
94	94	2
20	25	1
3	13	1
9	40	2
99	100	1
79	79	2
12	13	1
15	15	1
131	131	1
107	117	1
0	5	2
142	143	1
112	132	2
80	82	2
2	2	4
9	9	1
52	53	1
104	104	2
82	82	2
71	71	1
136	139	1
53	53	1
104	115	2
78	78	3
93	93	1
16	16	4
88	88	5
28	28	3
42	42	1
125	125	1
118	118	1
6	6	1
94	95	1
17	62	1
2	11	1
22	22	1
109	111	1
24	24	2
145	145	1
12	34	2
20	20	1
97	97	3
90	91	2
140	140	3
111	111	2
56	56	1
107	107	1
80	113	1
49	53	1
128	128	1
117	117	3
75	105	1
70	83	1
54	54	3
107	108	1
110	110	1
54	108	3
29	29	3
0	34	1
57	57	3
71	118	1
16	32	1
30	30	1
86	86	1
19	19	2
71	73	1
55	55	1
50	50	1
141	141	2
127	127	2
21	21	4
26	26	2
52	52	2
38	38	3
68	68	1
115	120	2
144	144	1
35	35	1
81	81	3
17	17	1
31	31	1
71	130	2
58	64	1
82	91	1
89	90	1
79	80	1
132	133	1
88	89	1
136	137	2
38	41	1
79	83	1
8	107	2
123	123	1
87	140	2
132	132	2
70	120	1
115	115	2
12	32	1
73	74	1
58	59	1
14	15	1
113	113	1
65	132	1
106	106	1
76	79	1
94	112	2
4	13	1
130	130	2
22	54	1
51	51	3
103	103	2
76	76	1
14	14	1
95	95	1
133	134	1
115	117	1
0	0	3
119	119	1
52	57	1
6	136	1
121	121	4
89	89	2
106	107	3
1	1	1
13	13	3
139	139	1
119	142	1
120	122	1
75	75	1
137	139	1
127	130	1
106	126	1
17	18	1
8	8	1
109	109	2
99	99	1
72	72	2
118	119	1
33	40	1
18	24	1
80	83	1
23	23	1
18	18	3
106	108	1
145	146	1
2	73	1
11	11	2
75	87	1
43	43	1
83	87	1
84	84	1
48	83	1
4	5	1
54	56	1
17	30	1
41	41	1
101	101	1
40	40	1
143	143	1
10	20	1
87	87	1
6	32	1
61	61	1
83	83	1
81	137	1
68	72	1
96	96	1
90	90	1
116	116	1
38	39	1
20	24	1
70	70	1
50	58	1
70	118	1
49	49	1
112	124	1
49	88	1
39	39	1
116	131	1
67	67	1
