41	41	7
134	141	4
132	132	24
120	120	13
34	34	9
133	134	4
30	30	8
4	6	4
133	133	18
66	66	7
48	50	4
77	96	1
146	147	4
101	101	17
3	34	3
128	128	14
126	126	12
141	156	4
12	12	5
83	84	8
106	108	3
32	33	3
75	75	21
85	86	2
13	145	3
102	103	2
87	88	3
84	84	10
20	20	9
40	41	7
149	151	5
82	82	12
6	6	11
115	115	22
43	43	13
148	156	1
25	25	13
37	37	16
16	16	9
118	133	4
49	50	3
67	68	7
15	15	18
62	62	4
22	23	7
125	148	2
17	17	11
123	125	5
14	14	12
88	104	1
117	137	2
130	154	4
122	132	1
0	0	17
109	111	2
116	116	13
99	99	21
74	74	2
80	80	11
46	46	22
107	107	22
145	145	12
110	110	18
18	18	12
134	134	10
4	36	2
77	77	4
21	22	9
142	143	6
138	138	23
27	27	8
23	23	11
11	16	4
69	77	3
139	156	2
3	3	20
110	111	11
36	37	6
37	128	1
10	69	4
10	10	4
13	16	1
28	28	18
113	118	3
139	139	29
67	67	27
122	122	6
14	15	7
124	125	3
11	11	5
21	21	15
136	137	5
121	121	21
5	5	12
44	152	2
2	3	7
92	92	22
10	68	2
87	87	12
65	65	7
70	70	13
86	86	9
105	105	16
98	126	7
129	130	7
26	123	2
113	113	21
34	122	5
95	95	16
10	51	3
97	97	18
129	129	9
34	35	3
28	122	3
147	147	21
70	71	2
112	112	13
31	122	3
109	109	8
56	56	5
121	122	1
69	69	13
91	91	9
20	21	7
57	57	6
136	158	2
81	84	2
52	52	1
144	145	13
36	45	2
11	30	2
72	72	12
67	69	4
84	86	1
150	150	16
8	8	11
148	148	14
23	79	1
144	146	6
36	120	3
36	36	26
136	136	21
3	4	6
80	105	1
46	49	5
50	51	3
9	50	1
33	33	8
149	150	2
28	29	7
98	98	18
44	44	12
99	102	3
114	114	10
140	140	4
73	73	16
29	30	10
151	151	11
103	103	6
8	9	4
9	9	4
131	131	12
105	154	1
78	78	12
37	158	3
128	137	2
85	85	10
42	43	9
141	143	2
123	123	13
37	148	2
84	102	6
103	151	4
149	153	7
83	83	3
25	26	6
93	93	7
18	19	3
108	108	7
94	94	6
103	153	10
16	17	2
14	67	3
115	120	1
130	130	9
99	143	1
114	115	7
137	138	4
104	105	7
143	144	2
90	91	3
147	153	4
57	73	1
7	7	10
158	159	5
53	53	15
19	19	8
4	5	2
31	31	20
141	141	14
133	138	2
38	38	8
153	153	9
109	113	2
159	159	1
44	45	2
42	42	11
90	125	5
124	124	21
19	124	4
35	36	7
140	156	5
85	128	2
41	95	6
119	119	5
101	102	2
39	39	12
112	113	3
61	62	4
135	135	13
117	118	7
89	90	2
123	124	4
128	129	2
42	158	1
44	151	5
39	50	3
132	140	3
12	14	1
47	71	2
96	96	9
12	13	4
96	97	3
104	153	6
98	120	3
54	54	13
88	88	6
38	39	1
48	49	5
77	78	5
144	144	13
158	158	19
0	1	3
71	71	13
47	47	11
25	96	6
106	106	11
79	80	11
63	68	4
127	146	1
135	137	4
105	106	5
146	146	8
56	64	1
112	122	3
5	6	5
143	143	3
4	4	11
89	118	3
79	79	4
83	85	8
131	132	15
117	117	15
43	98	2
142	142	5
2	2	9
47	67	1
99	100	2
21	24	6
152	152	17
55	55	5
106	112	1
29	29	9
40	40	18
71	78	1
111	111	14
68	69	5
102	102	2
119	131	6
113	141	6
45	46	3
148	149	2
37	157	3
52	53	7
36	39	3
103	104	2
154	154	5
32	32	6
4	46	1
36	131	3
92	155	6
41	128	10
87	116	2
152	153	2
23	137	2
26	26	12
137	137	13
13	13	13
10	11	6
125	125	8
109	114	3
24	24	9
10	21	3
121	148	3
1	1	8
77	98	3
145	146	2
81	81	14
68	68	15
31	123	4
50	50	12
118	118	8
125	126	3
119	120	4
136	141	5
143	145	2
90	123	3
157	157	4
43	49	1
97	116	1
155	156	3
23	24	2
48	48	7
100	100	14
109	110	4
31	32	5
36	151	2
32	74	3
77	81	1
117	128	7
106	110	4
153	154	4
33	149	1
142	153	1
137	154	1
73	94	1
124	149	2
103	154	4
12	90	1
2	5	1
4	42	2
135	146	2
80	85	1
13	103	1
7	42	6
52	100	1
6	7	1
123	148	4
105	156	5
4	13	1
11	12	8
109	122	1
19	20	1
28	31	1
100	101	2
42	151	5
15	16	3
18	23	4
49	49	12
104	104	4
134	135	4
49	52	3
4	157	4
38	67	1
127	127	5
75	94	1
104	115	1
1	2	6
7	8	4
19	88	1
64	64	7
77	101	2
122	123	3
134	152	3
35	43	1
22	22	6
13	14	4
7	40	5
24	25	4
48	51	2
35	35	6
92	95	5
36	134	4
33	34	2
4	16	6
45	109	3
108	112	5
126	127	1
149	149	8
64	66	3
3	42	2
54	55	1
97	117	3
137	152	3
49	53	1
37	52	1
12	16	1
66	90	2
22	87	2
106	107	3
27	110	1
157	158	2
81	139	1
108	111	8
56	57	1
115	118	1
48	53	6
55	75	3
12	126	2
19	27	2
132	147	2
62	68	1
39	108	4
69	71	4
65	68	4
156	156	12
4	34	2
80	83	1
113	115	5
69	70	6
11	67	1
140	157	2
27	95	1
45	127	1
4	35	2
82	85	5
26	95	2
31	112	2
130	137	1
0	159	3
136	154	4
9	65	1
84	101	3
17	28	5
120	121	2
84	91	1
16	67	1
84	85	5
116	117	2
131	133	4
107	109	2
116	119	2
73	91	2
94	95	2
145	148	2
155	155	10
66	70	1
9	20	2
106	109	4
91	98	2
64	71	4
119	121	1
41	42	6
35	149	2
119	134	1
148	151	2
109	112	2
117	127	1
92	96	3
35	146	3
45	45	5
16	23	1
5	7	2
149	154	2
7	22	2
47	48	1
86	90	1
131	139	5
79	81	3
46	47	3
38	51	1
136	142	1
118	126	5
135	141	1
34	43	3
11	20	5
133	141	5
15	21	1
31	111	3
89	98	1
93	94	4
42	49	2
31	150	1
83	86	1
35	144	1
55	71	1
44	148	1
81	92	2
35	143	1
79	138	3
95	96	2
140	141	3
81	138	3
36	158	1
17	18	2
9	71	1
108	109	2
86	87	5
98	115	1
25	30	2
45	50	1
11	19	1
0	29	1
73	90	2
103	156	2
82	86	2
12	24	1
73	74	2
23	141	1
143	146	2
9	21	1
87	90	2
83	139	4
134	136	1
43	44	2
66	71	2
87	103	1
8	50	1
41	43	1
123	153	2
25	29	1
5	25	3
144	154	1
122	146	2
37	129	1
131	135	3
36	42	2
111	112	1
95	152	2
4	43	1
108	110	1
118	119	4
65	66	1
154	155	2
145	147	4
96	126	1
23	25	1
47	79	5
13	19	2
4	93	3
31	110	2
10	12	1
54	78	1
132	134	1
22	83	1
139	140	1
86	95	1
52	54	3
107	108	2
41	129	1
142	150	1
124	126	2
38	156	2
115	132	3
98	99	1
131	147	1
71	76	2
118	134	2
3	10	1
101	138	1
8	38	1
80	81	1
132	133	3
72	100	1
76	96	1
50	71	1
15	55	1
25	27	1
57	63	1
27	131	2
89	125	1
40	97	1
35	132	1
30	122	1
136	146	1
77	80	1
67	71	1
23	103	2
44	48	2
138	141	1
2	26	2
31	92	2
89	89	1
80	101	2
39	109	1
48	76	1
71	72	2
142	152	1
52	79	1
141	155	1
116	137	3
24	29	1
17	25	1
56	89	1
68	71	1
14	38	1
119	126	1
12	17	1
38	56	2
90	90	3
123	150	6
153	155	2
156	157	1
17	44	1
56	66	1
143	147	2
118	125	1
85	91	1
104	131	1
8	10	2
123	149	2
61	61	1
54	85	1
16	40	1
25	28	1
37	130	1
107	142	1
11	33	1
4	127	1
46	79	1
45	47	1
129	139	1
38	146	1
5	127	1
51	51	1
105	129	1
137	140	1
53	56	1
16	18	1
40	128	1
12	91	2
127	145	1
114	116	1
147	156	1
91	120	2
89	123	1
135	136	2
90	120	1
133	148	1
30	33	1
102	135	1
13	142	1
28	30	1
68	70	1
51	101	1
78	82	2
138	139	1
7	45	1
126	157	1
113	117	1
26	27	1
13	55	1
16	21	1
62	64	1
11	21	1
53	54	1
115	141	1
130	131	1
0	4	1
