20	36	4
73	73	7
113	113	6
233	233	3
9	9	7
86	86	13
228	228	9
26	26	10
217	218	5
69	69	23
138	172	2
61	62	1
236	236	5
221	224	4
75	75	6
60	60	11
233	234	2
224	224	2
148	148	7
21	21	7
66	66	6
37	37	14
39	39	15
237	237	6
14	41	3
207	207	5
172	204	1
30	31	2
27	27	19
170	180	4
227	227	4
38	38	5
228	230	3
55	55	5
136	138	3
44	135	4
23	23	10
212	213	3
177	177	5
121	121	3
65	65	10
144	145	3
209	209	4
19	19	7
137	137	7
11	11	3
62	62	6
43	43	13
180	180	6
64	64	3
77	77	2
203	203	5
79	115	4
208	209	2
101	101	6
144	144	4
29	29	9
18	31	3
110	110	2
31	34	2
230	231	1
194	195	2
223	223	5
42	43	3
210	210	6
138	143	4
155	158	2
8	8	8
135	136	1
194	194	4
24	24	4
150	150	3
15	15	4
41	41	2
238	238	6
182	182	5
35	36	4
136	151	4
166	169	1
61	61	4
149	196	1
178	202	4
208	210	1
201	203	1
215	230	4
192	193	5
83	83	6
137	143	1
25	25	6
45	46	3
190	190	3
119	129	1
131	131	3
195	196	2
205	205	7
45	45	17
167	168	4
80	83	2
47	47	11
208	228	1
146	147	5
143	143	4
176	177	6
232	232	8
79	80	3
193	229	1
183	183	1
7	7	4
230	230	16
44	44	5
3	3	13
46	46	12
221	221	3
35	35	8
174	174	4
216	216	6
234	236	1
11	58	4
116	116	2
30	30	5
40	40	6
16	16	11
54	54	10
38	46	4
8	9	3
163	163	2
71	71	4
105	105	7
198	207	2
100	101	1
127	127	3
13	39	1
202	202	6
208	208	3
151	151	2
112	112	3
102	102	5
152	153	2
12	12	6
64	138	2
146	146	5
0	16	1
146	187	2
191	191	10
53	53	2
74	74	11
35	52	1
118	128	2
187	187	6
4	5	7
120	121	3
76	76	4
215	215	6
47	48	2
13	14	3
104	105	1
4	4	7
23	63	1
139	139	1
42	42	8
32	32	6
60	65	2
101	105	3
126	126	3
68	68	2
148	149	2
0	0	8
195	195	3
172	172	4
151	152	1
123	123	3
14	15	2
201	201	5
164	164	2
182	192	2
122	122	4
29	61	3
217	217	5
81	82	1
188	188	8
20	21	4
175	175	7
206	206	2
162	163	3
107	108	4
160	161	1
142	143	1
105	106	1
102	103	1
234	234	2
158	158	6
19	38	1
198	200	3
229	229	4
133	133	3
24	69	1
88	88	2
159	159	12
49	49	7
179	179	3
49	51	1
218	227	1
139	141	2
220	224	3
173	175	1
69	71	2
58	58	7
226	226	3
37	38	1
28	28	7
102	105	1
123	130	1
171	202	4
194	196	3
14	14	3
40	41	3
190	195	2
213	214	5
140	143	5
140	141	1
175	177	2
97	102	4
141	141	2
169	169	2
154	154	2
86	96	2
136	136	2
211	211	3
114	164	1
169	170	4
45	55	1
218	228	1
77	84	2
1	2	1
64	65	2
115	115	3
11	39	2
33	33	1
143	144	2
100	100	3
70	71	2
58	59	3
25	26	4
114	114	3
16	54	1
175	178	1
67	85	1
218	218	4
17	17	4
10	10	8
66	67	1
28	37	2
141	142	2
76	78	3
128	128	1
68	69	2
196	196	2
27	45	2
79	79	2
57	57	1
149	237	1
20	20	1
28	29	2
53	78	1
125	125	1
19	33	1
99	111	2
52	52	2
79	108	1
80	80	2
166	166	1
84	84	5
165	166	4
21	23	1
12	18	3
76	84	1
34	34	3
28	57	5
16	17	6
115	117	3
74	75	4
111	111	1
151	166	5
61	219	1
76	77	1
170	183	3
197	197	10
155	156	2
3	17	1
34	35	4
122	123	3
98	98	1
28	56	2
210	214	1
138	139	1
5	7	2
138	138	2
99	100	2
12	13	4
63	217	3
10	133	1
10	38	2
191	192	1
173	173	9
45	62	2
31	31	2
1	1	3
185	199	1
207	217	1
145	145	4
155	155	2
69	70	1
110	163	1
137	173	1
50	54	1
109	114	1
203	208	1
210	211	2
129	129	3
238	241	4
120	120	1
168	168	1
10	25	2
42	45	2
85	85	6
167	177	3
99	99	2
140	142	3
240	240	4
200	206	2
37	47	2
178	178	3
168	169	1
103	104	4
27	28	1
198	206	1
108	108	3
60	64	2
97	97	7
225	225	2
128	129	2
164	196	1
152	154	1
56	56	1
48	74	1
52	53	4
165	182	1
11	159	2
157	157	6
38	39	3
61	135	1
222	222	4
242	242	1
173	174	2
106	106	3
17	20	2
118	118	1
22	23	2
204	204	2
56	57	3
220	222	1
0	1	1
70	70	8
67	76	1
144	154	1
192	192	2
13	13	4
139	140	1
157	190	1
145	188	1
73	74	3
7	8	2
182	201	2
140	150	2
199	200	1
220	221	1
51	62	2
181	181	1
6	8	1
144	155	1
226	227	2
58	60	3
69	73	1
95	96	2
236	238	1
176	208	1
231	231	3
5	10	2
2	3	4
134	135	2
153	154	1
20	69	1
221	222	3
155	167	1
67	67	3
52	54	1
72	72	1
17	18	1
110	111	2
206	208	1
214	216	1
40	54	3
32	36	1
171	179	1
3	6	1
161	161	1
2	2	3
63	219	1
123	124	2
184	184	2
55	232	1
193	196	1
141	189	3
113	114	1
116	119	2
34	62	1
51	51	2
214	214	2
78	101	1
199	199	1
6	6	1
56	58	2
174	175	1
207	219	1
7	37	1
78	78	5
112	136	1
59	124	1
27	160	1
41	42	1
166	168	1
72	73	1
171	180	2
186	188	1
35	37	2
241	241	1
49	50	1
122	124	1
200	207	1
117	117	1
34	37	1
44	45	1
32	35	1
221	223	1
202	203	1
28	36	2
54	55	1
199	213	1
239	239	2
152	152	3
11	111	1
170	171	1
208	211	1
23	68	1
46	47	1
137	138	1
177	179	2
214	215	1
57	69	1
50	64	1
69	72	1
12	39	1
5	5	1
73	135	1
157	188	1
134	134	1
36	36	1
9	21	1
46	53	1
212	217	1
25	79	1
66	234	1
128	172	1
207	210	1
225	226	1
133	134	1
28	191	1
18	18	1
148	192	1
38	61	1
59	60	1
124	124	1
