22	23	5
103	103	10
55	56	4
26	26	5
66	67	2
116	116	11
89	94	2
125	125	11
89	89	4
54	55	2
34	34	10
87	92	3
118	118	8
62	62	6
134	134	7
73	73	6
30	31	3
21	52	3
117	118	5
112	112	3
99	99	14
130	130	10
132	132	6
21	115	6
119	119	8
29	29	4
71	71	7
102	102	5
65	65	5
123	123	5
48	48	3
55	55	8
126	127	7
84	84	5
112	113	9
107	123	4
88	88	2
90	95	2
36	36	3
108	111	4
21	21	3
32	70	3
28	28	1
126	126	8
116	120	5
69	69	4
64	65	3
45	45	10
16	16	4
62	63	7
68	68	6
128	128	6
127	127	6
76	77	4
97	97	16
77	77	5
58	68	3
11	11	8
14	14	6
118	129	4
33	33	8
114	114	4
79	79	8
78	78	8
57	59	1
69	87	1
81	87	2
37	118	1
49	50	7
31	31	4
95	95	5
33	34	8
53	53	3
91	91	6
75	75	7
67	67	6
24	24	2
118	130	3
65	67	5
124	127	2
91	96	4
63	63	3
82	83	1
85	85	5
80	128	3
60	60	2
38	38	4
113	113	7
92	92	6
44	45	8
103	104	4
93	93	5
80	80	3
58	58	5
10	11	5
9	11	4
10	10	6
3	4	1
35	37	3
74	75	2
117	117	7
91	92	3
23	23	2
21	126	1
106	106	3
115	128	3
19	20	3
79	80	3
121	121	8
82	85	2
57	60	2
105	106	5
86	86	6
64	64	3
83	86	1
59	59	4
33	35	2
115	115	4
87	88	3
122	131	2
93	95	5
47	47	3
37	37	4
107	109	4
111	121	1
74	74	7
101	101	4
85	99	2
120	121	4
97	99	2
96	98	1
129	129	1
98	101	2
102	103	2
109	109	10
30	30	1
8	8	3
52	52	4
56	57	2
57	57	5
81	81	1
44	44	5
97	98	1
2	2	9
56	56	1
63	67	1
119	120	2
84	85	1
104	104	13
25	25	5
19	21	1
20	20	2
60	67	2
83	85	1
76	76	7
120	120	3
110	110	4
78	110	2
15	16	2
116	118	2
19	19	5
7	10	1
86	87	2
28	29	3
120	123	1
21	22	2
17	59	1
107	107	6
50	50	4
93	94	1
99	101	1
131	132	2
116	121	1
124	124	4
116	128	1
64	115	3
15	24	3
4	4	2
122	122	3
22	22	9
113	114	1
3	3	2
113	126	2
62	68	3
94	94	5
14	15	4
53	54	2
72	72	5
17	17	2
68	69	2
58	59	2
19	49	1
100	100	1
15	15	1
133	134	4
130	131	3
119	122	1
108	109	1
76	78	1
94	95	1
131	131	4
113	134	2
90	91	1
43	69	1
54	54	2
57	58	2
31	32	2
70	71	1
104	105	4
135	135	4
73	79	3
122	130	1
66	68	2
70	73	2
111	111	6
12	12	3
108	108	5
3	12	1
132	133	3
133	133	6
69	70	3
107	111	3
17	62	2
61	61	6
25	26	1
97	108	2
112	135	3
48	50	2
65	66	3
7	13	1
118	119	1
73	77	1
9	10	1
81	88	2
89	99	1
77	78	2
113	124	1
114	134	1
86	95	2
58	63	1
98	98	4
1	1	2
108	110	1
70	70	1
35	35	2
88	89	1
105	105	6
96	100	1
66	66	2
6	9	1
79	119	1
53	116	1
82	82	6
127	129	1
47	51	1
84	87	2
38	39	1
36	37	1
107	119	1
122	123	4
114	132	2
20	21	1
124	133	2
18	18	1
100	101	1
105	121	1
45	52	2
79	99	1
96	96	1
15	25	1
62	70	1
2	3	2
16	17	2
84	86	1
86	88	1
27	27	2
6	7	1
43	43	1
53	58	1
109	110	1
121	122	1
109	111	1
20	23	1
121	123	1
119	121	1
57	61	1
123	124	1
9	9	1
42	43	1
118	132	1
73	102	1
79	122	2
73	76	1
71	74	1
67	68	1
81	82	1
