54	54	11
57	57	11
37	37	16
55	55	19
39	71	4
27	27	6
78	78	6
49	49	22
48	48	17
58	58	17
10	11	10
70	71	5
60	60	7
10	10	18
41	41	11
5	5	11
50	50	11
32	32	16
7	7	17
58	61	2
79	79	11
28	29	7
60	61	2
68	68	14
30	33	2
26	26	11
75	76	10
74	74	7
31	33	5
59	59	12
49	54	2
80	80	17
64	64	7
3	4	5
9	10	7
41	42	4
36	36	6
53	53	15
58	59	6
61	61	24
17	17	4
65	65	13
18	18	5
66	66	8
56	56	11
20	20	5
75	80	7
63	63	7
31	31	13
14	14	12
2	30	2
18	19	1
63	64	7
76	76	12
40	40	14
5	6	13
39	39	5
71	71	16
48	71	5
38	38	4
9	9	11
9	26	4
11	31	2
8	8	13
12	12	12
13	13	20
8	9	5
56	57	5
70	70	23
14	15	8
71	72	13
47	47	11
12	13	7
58	60	4
61	62	3
51	51	9
69	69	7
1	2	11
4	4	11
28	28	10
35	35	21
42	42	6
50	69	6
20	29	5
65	66	3
5	74	1
25	26	4
52	52	5
35	36	1
64	65	8
15	16	1
73	74	6
46	46	7
11	11	10
34	34	11
3	30	1
43	43	4
55	56	16
49	50	1
5	8	2
3	3	4
67	70	6
27	28	2
53	55	4
11	25	2
72	72	8
66	67	7
9	19	2
2	3	6
51	54	2
1	1	9
0	0	7
19	19	9
63	71	3
0	60	2
80	81	2
47	48	8
44	44	1
5	7	2
19	20	5
33	34	1
20	21	7
26	30	2
16	16	8
63	65	3
49	58	1
49	55	1
79	80	3
37	38	6
29	29	6
59	66	1
6	6	4
73	73	5
74	75	1
42	43	3
51	53	2
43	73	1
32	33	2
33	33	10
7	8	3
36	37	1
15	15	6
6	55	1
68	69	2
31	32	3
51	52	1
30	30	7
21	21	1
40	65	2
65	73	2
57	58	4
53	54	2
57	59	2
5	76	1
59	60	1
75	75	5
50	51	1
30	31	1
15	26	2
67	67	3
33	35	1
2	2	6
46	47	4
78	80	2
45	45	5
54	69	1
62	65	2
25	25	1
17	18	1
10	32	1
40	41	1
26	27	1
48	49	1
29	30	2
37	39	2
4	5	1
11	33	2
13	15	2
50	52	1
52	53	2
34	35	1
62	62	4
78	79	1
65	67	2
45	57	1
11	12	1
27	47	1
64	71	2
10	31	2
49	71	1
38	39	5
2	4	1
75	78	1
32	36	1
10	25	1
3	38	1
46	55	2
50	68	2
69	70	2
10	34	1
16	17	1
