99	123	3
15	15	8
26	26	6
80	80	4
78	78	6
181	181	7
145	145	3
77	130	3
32	32	4
130	130	3
61	63	2
43	43	3
156	156	6
162	162	3
189	189	2
118	118	8
105	106	1
36	36	1
110	112	4
105	109	1
174	174	7
19	19	11
150	150	3
101	101	2
105	105	3
135	135	7
22	22	6
98	98	1
134	134	1
132	133	3
77	77	6
17	17	3
145	146	3
80	81	4
29	29	4
70	71	5
93	93	2
30	30	2
67	67	5
60	60	11
140	144	2
120	120	2
174	175	3
62	62	7
114	114	6
1	1	4
166	166	1
121	121	3
64	64	9
41	41	2
157	158	1
86	87	2
125	125	3
155	156	4
112	112	6
28	28	3
96	121	5
149	150	3
58	58	8
84	84	14
182	183	3
7	7	2
2	3	2
85	108	2
11	13	5
85	85	4
79	82	3
40	40	5
165	166	2
14	17	2
109	131	2
81	81	6
76	76	4
4	5	2
101	103	1
98	104	3
167	188	4
68	79	3
165	165	5
97	129	3
24	27	1
168	168	5
53	53	3
108	109	5
64	65	1
155	164	2
149	168	1
8	8	3
97	97	5
124	124	1
146	146	4
23	23	2
171	171	2
149	172	3
3	3	1
12	13	2
155	166	2
152	177	3
32	34	2
184	184	3
31	31	1
139	140	6
70	73	3
47	47	4
46	93	5
122	137	1
132	132	2
86	118	2
68	68	2
5	42	1
14	14	3
85	86	3
48	48	4
116	116	2
119	119	2
29	30	2
154	154	2
45	94	6
131	133	1
182	184	1
4	4	1
169	170	2
28	29	3
109	109	1
58	59	2
6	6	2
185	185	1
88	88	3
186	186	4
104	104	1
74	75	2
128	128	2
21	22	5
56	56	1
180	180	2
138	139	2
138	138	1
77	127	4
61	62	2
106	106	3
158	162	2
66	67	2
115	125	3
83	83	1
57	57	3
79	80	1
5	9	3
111	111	2
36	37	1
38	39	2
122	123	3
71	71	1
47	56	2
158	158	5
12	12	6
106	107	1
148	151	1
182	182	1
11	11	2
147	148	1
172	172	1
60	62	1
20	93	1
0	0	4
27	27	1
149	149	1
55	67	1
26	27	3
70	70	2
75	75	2
73	73	4
157	157	2
110	162	2
25	25	4
141	141	2
101	102	1
95	95	3
130	133	1
113	113	2
117	117	2
149	165	3
18	42	2
91	93	1
140	184	2
45	95	1
90	91	5
178	190	1
20	47	5
23	37	1
65	65	1
94	94	1
117	118	2
42	42	2
39	39	6
53	65	1
15	41	3
92	92	2
58	66	2
9	10	1
166	168	1
167	168	1
82	83	2
122	122	1
144	144	1
24	24	1
54	55	2
100	103	2
52	79	1
84	85	2
10	10	3
153	153	1
134	160	2
59	68	2
21	21	2
23	41	2
155	155	2
102	102	2
86	95	1
96	113	1
89	89	2
173	173	1
18	18	1
150	174	2
13	17	1
54	62	3
117	119	2
119	120	4
38	38	2
27	28	3
2	2	3
63	65	1
99	173	1
148	148	2
166	176	1
168	172	3
190	190	1
72	73	1
171	176	2
69	69	2
5	6	3
87	87	2
68	69	1
69	71	2
131	132	1
42	43	2
136	136	1
34	34	2
10	12	3
100	100	2
176	188	1
126	126	2
156	173	1
140	140	2
105	107	2
28	30	3
81	82	1
46	46	1
169	169	2
53	61	1
177	190	1
127	127	2
74	74	1
23	39	2
84	112	4
58	68	1
33	39	2
32	35	1
180	181	2
123	123	2
151	151	2
16	17	1
85	87	1
43	45	1
55	60	1
131	131	1
131	170	1
148	153	1
115	116	2
83	87	2
97	98	1
126	128	1
60	64	1
72	72	1
98	173	1
6	7	1
10	11	1
129	129	1
112	124	1
96	98	1
34	36	1
156	163	1
