42	42	22
62	73	1
91	91	8
75	77	6
29	96	1
84	84	7
31	31	6
29	47	3
79	80	1
97	97	7
88	94	2
41	42	1
96	96	15
92	92	6
85	85	4
81	99	5
35	35	9
44	62	4
72	72	5
59	59	7
56	56	4
37	38	1
83	89	4
25	25	7
75	75	15
30	93	1
68	71	6
99	99	14
46	94	8
29	94	4
64	64	6
54	66	3
79	82	2
33	33	11
43	74	2
45	45	9
33	94	2
41	41	15
87	88	8
46	55	1
61	91	2
79	87	5
23	28	1
61	93	3
87	97	4
39	71	1
91	92	9
84	88	3
62	63	1
41	59	2
47	55	4
67	95	2
90	90	5
95	95	5
58	58	13
53	61	8
47	71	5
39	73	9
55	93	2
86	87	1
31	92	4
73	82	5
60	65	2
38	38	16
60	60	10
101	101	10
59	76	2
69	69	13
50	51	3
98	98	8
46	47	4
49	49	10
52	56	6
94	94	10
42	43	2
34	34	5
65	67	3
27	27	8
73	73	6
93	93	4
88	88	6
86	86	4
50	50	3
45	60	3
51	53	4
63	63	8
66	66	7
31	32	4
80	80	10
61	61	8
24	24	3
35	49	2
76	76	9
37	37	3
60	96	1
76	77	10
34	35	2
79	97	6
36	36	3
70	100	4
100	100	7
72	81	2
70	70	8
79	79	4
73	74	2
97	98	3
53	55	2
68	68	7
37	84	2
29	29	10
80	87	1
90	91	4
35	84	4
89	89	4
55	55	5
22	25	1
33	34	7
48	53	2
20	22	1
66	87	1
62	62	8
44	51	2
74	74	10
95	96	11
44	57	4
24	25	1
93	94	7
67	67	9
86	92	3
100	101	6
51	85	2
26	27	1
57	57	7
67	68	3
81	100	1
40	57	4
46	54	3
77	77	13
38	53	2
99	100	1
28	56	1
73	80	1
95	97	2
49	50	2
60	62	1
36	81	3
26	38	1
54	54	5
56	57	9
52	57	2
82	82	5
43	43	8
66	67	2
53	80	4
20	20	4
88	97	4
61	92	2
46	46	7
39	39	3
98	101	1
81	97	2
58	59	2
56	68	3
40	40	5
77	78	1
67	83	1
69	83	2
83	83	4
89	101	2
52	65	1
95	100	1
23	23	6
38	72	5
54	80	1
29	38	1
59	85	1
84	95	1
78	78	4
56	71	1
53	53	4
71	71	4
47	61	2
85	86	2
44	91	2
52	54	3
83	84	1
64	65	1
52	96	1
51	80	1
36	37	1
30	31	1
81	81	1
44	44	5
87	87	2
70	71	4
96	98	1
28	28	1
47	47	3
57	91	5
48	48	3
22	22	1
66	100	5
52	52	3
44	60	3
46	101	4
102	102	1
74	85	2
45	64	1
66	90	2
29	34	1
54	68	5
65	65	3
47	48	4
34	86	1
53	73	1
93	101	1
55	76	1
47	84	1
89	102	2
92	93	1
74	80	1
75	83	1
78	92	1
43	49	1
62	72	1
89	92	1
67	93	1
29	97	1
65	66	2
53	54	3
80	83	2
29	95	1
37	92	1
46	53	1
71	91	1
