49	92	3
109	110	6
71	71	8
96	96	3
76	80	5
79	80	2
107	111	2
62	62	1
69	69	2
93	93	4
79	88	2
7	15	2
88	88	4
83	84	3
114	114	11
19	20	3
23	23	5
52	53	4
25	25	8
111	111	7
76	76	6
84	85	3
34	36	5
50	52	3
102	102	10
60	60	2
74	74	3
49	49	9
31	31	3
112	124	5
7	9	6
52	52	5
10	10	7
51	69	1
95	96	1
104	104	7
111	112	2
115	115	3
133	135	2
88	95	4
132	133	2
106	106	2
79	132	3
134	134	7
123	131	1
69	84	1
24	24	3
45	59	2
14	34	2
68	68	4
61	85	1
79	79	3
97	99	5
110	110	2
5	5	8
91	129	2
99	99	11
103	103	8
128	130	2
38	43	5
62	63	3
80	123	1
75	76	2
43	115	2
47	47	2
82	118	2
119	120	1
94	94	3
65	66	4
114	115	5
100	101	2
15	26	3
101	101	7
122	122	4
17	24	4
119	119	6
58	58	6
56	59	2
68	86	3
43	65	2
46	51	1
22	22	2
95	129	6
7	26	1
16	16	2
133	133	2
6	26	4
56	56	5
130	130	1
112	112	6
122	123	1
70	71	3
64	64	3
66	111	4
84	95	1
78	78	1
49	62	2
18	25	2
16	21	2
32	32	3
15	15	5
77	77	4
107	107	1
23	24	9
97	97	4
112	113	1
51	92	2
127	128	10
12	12	2
7	7	1
108	109	2
87	87	5
52	54	3
83	86	3
67	95	3
18	18	3
65	65	3
89	90	2
60	62	1
73	73	1
105	105	1
45	55	3
1	1	2
22	23	3
125	130	1
57	57	3
109	111	3
129	129	2
128	128	2
43	61	3
16	34	1
6	6	2
118	118	5
21	22	1
64	65	2
83	83	8
16	22	3
49	50	2
106	131	2
77	130	3
72	72	4
98	98	3
129	130	1
57	58	4
82	82	2
65	69	3
120	122	2
55	55	8
21	21	1
65	108	3
70	75	3
77	123	1
30	32	2
109	109	3
117	122	4
50	50	3
53	90	1
19	19	1
53	53	4
107	109	1
83	117	3
82	119	1
66	116	3
30	30	3
88	112	1
92	94	2
110	117	1
43	43	3
83	110	2
25	27	1
68	69	1
95	95	5
73	74	2
113	113	4
100	100	4
77	107	1
81	81	1
120	120	4
2	2	4
30	35	2
123	123	4
50	56	1
6	7	1
90	91	1
8	8	2
14	14	3
5	29	1
52	56	2
123	125	1
37	37	2
97	110	2
65	67	2
2	3	2
60	127	1
131	133	1
19	21	1
45	99	1
34	35	4
26	96	1
94	95	3
4	4	2
121	121	1
95	115	1
97	106	1
86	86	1
53	57	2
82	134	1
26	125	1
77	120	1
20	21	2
27	27	3
60	61	1
26	26	1
7	70	2
118	132	1
29	29	1
117	118	1
68	74	1
102	112	2
14	70	1
74	75	1
59	59	1
43	96	1
119	122	3
66	66	3
108	119	1
124	131	2
78	79	1
106	107	1
90	116	2
91	92	1
59	60	1
78	124	1
89	89	1
36	36	1
14	15	1
76	123	2
85	93	2
31	32	1
85	85	1
54	92	3
28	28	2
124	126	1
51	61	1
78	108	1
88	121	1
67	67	1
67	111	1
110	129	1
84	84	1
