59	60	11
37	38	1
1	1	25
35	35	14
11	11	12
20	20	5
48	48	16
18	20	3
20	70	2
10	10	15
38	39	14
46	46	16
76	77	6
74	75	2
5	6	12
71	71	9
18	18	2
37	37	22
26	26	22
70	72	3
13	52	2
2	2	6
49	49	22
26	27	5
4	4	27
58	58	14
61	61	13
76	76	11
40	40	11
9	15	2
55	55	26
30	48	2
0	41	1
8	8	13
54	54	21
3	4	7
75	75	18
26	52	2
30	30	11
47	47	10
42	42	27
73	73	22
79	79	12
74	74	16
77	78	6
12	12	10
53	53	12
69	69	11
34	35	12
41	41	22
39	39	12
51	52	12
12	13	2
62	80	1
67	71	4
64	64	24
1	2	6
68	68	12
66	68	8
57	57	11
78	78	10
45	45	13
12	16	4
1	3	3
14	14	13
2	3	4
59	59	8
12	49	2
49	55	5
72	72	19
58	59	5
11	14	7
9	9	9
14	15	4
18	19	1
13	13	7
32	34	3
29	29	6
50	51	6
73	74	3
22	22	3
70	70	9
69	70	15
32	32	17
17	17	15
4	5	3
66	66	18
77	77	9
67	67	13
63	70	1
62	62	7
50	50	11
60	61	7
56	57	2
51	54	2
33	34	6
0	0	15
40	41	10
21	26	1
5	5	15
54	55	5
8	10	1
6	6	8
34	60	1
16	16	15
38	38	8
70	71	5
3	3	15
28	28	10
47	48	2
65	65	8
68	70	3
7	7	9
52	53	4
36	37	5
56	56	5
34	34	8
16	17	5
50	69	5
26	31	2
27	27	9
25	27	4
51	51	7
27	28	5
26	49	1
60	73	3
33	33	6
41	59	3
9	12	2
21	21	5
32	33	2
63	64	5
29	31	2
20	21	4
27	30	4
41	42	5
65	66	7
11	13	4
80	80	7
31	32	13
60	60	5
61	62	3
19	54	1
11	12	2
10	15	1
44	44	8
43	43	5
51	53	2
31	31	6
59	67	1
25	25	8
0	1	2
15	16	1
36	36	5
8	9	3
10	11	2
63	63	4
19	19	9
62	64	2
28	30	2
12	33	2
30	52	2
80	81	2
81	81	1
5	13	3
26	80	1
32	50	5
58	60	1
4	7	1
11	57	1
46	47	4
62	65	3
68	69	4
50	53	2
75	76	2
6	14	3
5	8	1
62	63	4
79	80	1
78	79	5
32	38	1
42	43	2
39	40	1
7	9	3
28	49	1
13	14	9
16	30	2
55	56	2
52	52	8
17	18	1
10	13	1
43	79	3
19	20	1
49	51	1
63	65	4
15	15	3
67	70	1
11	53	1
36	41	3
56	58	1
28	29	2
10	12	2
61	66	2
72	73	1
35	36	3
30	31	2
34	49	1
2	4	1
66	72	1
66	67	3
8	12	1
59	74	1
34	36	2
48	70	1
52	61	1
72	78	1
38	60	1
77	79	3
49	53	1
64	65	1
12	15	1
49	50	1
71	72	3
48	55	1
9	10	2
14	16	1
53	54	1
19	53	1
65	72	1
