130	130	12
29	29	28
52	53	5
127	130	15
108	108	8
135	137	2
10	10	23
50	51	1
69	70	7
110	114	1
102	102	7
143	143	14
73	73	22
53	53	11
139	139	10
125	125	16
96	98	5
43	43	3
72	72	22
17	17	16
54	63	5
120	120	16
66	67	4
76	76	14
126	126	15
82	90	2
27	28	11
81	82	3
104	106	6
72	73	9
137	138	19
11	11	12
117	117	11
91	91	8
18	18	8
24	25	4
106	106	8
93	93	19
67	67	14
109	110	3
100	101	6
129	130	13
127	127	14
56	56	13
28	50	2
123	123	11
37	38	8
131	133	5
62	63	11
39	39	18
8	8	16
41	41	9
121	121	20
88	102	3
34	36	3
85	88	1
113	131	1
1	94	3
65	68	4
138	138	18
118	119	12
84	84	11
136	136	32
132	135	3
112	112	7
101	101	15
58	58	12
29	30	3
60	60	21
54	127	1
141	141	11
134	134	16
114	114	8
93	94	11
83	83	16
94	94	10
82	82	30
15	16	5
109	126	2
76	79	7
144	145	3
113	114	19
129	129	16
73	74	11
117	118	6
124	124	17
9	10	5
16	30	2
40	40	17
47	47	13
125	126	6
3	3	10
90	90	6
133	133	21
25	25	5
81	81	7
49	51	3
142	144	2
70	70	8
49	54	3
35	35	18
123	124	5
114	115	2
119	120	6
15	15	5
114	118	1
90	104	1
8	19	1
76	80	1
52	52	9
113	116	2
38	38	16
135	138	3
2	2	15
6	6	12
95	95	14
117	130	3
14	16	9
51	52	6
16	16	23
61	61	14
136	143	2
37	37	13
140	144	4
21	21	9
27	27	11
3	14	4
33	33	5
103	103	18
122	122	12
97	97	17
136	137	4
18	37	2
75	75	18
26	27	10
74	74	15
89	89	14
118	118	16
55	55	11
96	96	12
0	0	19
104	104	13
50	50	10
133	134	5
115	115	11
69	69	11
60	62	1
64	64	15
1	2	5
39	41	8
65	102	1
122	124	4
13	13	12
99	103	1
98	98	9
33	34	3
34	34	4
62	62	12
64	65	4
9	29	2
140	140	15
99	99	4
36	37	4
19	32	1
40	41	4
132	132	24
141	142	19
144	144	5
28	29	3
49	50	3
24	24	8
54	57	2
128	129	4
32	32	11
107	107	8
60	63	2
105	107	3
115	118	2
83	98	4
57	60	1
119	119	22
118	120	5
110	110	10
124	126	1
19	29	1
86	86	10
134	135	9
68	68	8
60	68	3
103	118	2
70	74	2
77	77	11
78	79	11
123	131	2
3	4	4
97	99	2
57	58	4
76	97	1
142	143	2
66	66	9
1	1	12
130	131	8
52	119	2
72	138	2
93	96	1
105	105	12
48	48	4
123	125	1
88	89	4
0	8	2
100	100	9
130	142	1
115	116	6
142	142	5
71	71	19
68	69	4
19	19	9
94	95	4
4	4	10
31	46	2
121	125	2
42	43	1
88	88	11
97	98	2
109	109	14
50	52	3
113	113	6
135	135	6
18	95	2
121	123	6
89	90	3
53	63	5
32	33	1
79	80	9
54	55	5
71	72	10
33	46	3
117	141	2
65	73	1
4	5	4
52	120	1
63	64	2
111	116	3
65	65	5
112	113	3
104	112	4
82	87	6
53	60	1
36	36	11
4	32	6
5	5	13
85	85	12
78	78	5
80	80	3
53	54	5
100	103	2
57	63	6
126	127	2
21	31	2
20	20	8
131	131	12
120	121	10
99	105	1
39	40	6
77	139	1
21	96	2
14	14	6
83	84	2
134	140	2
98	99	6
23	23	10
75	103	1
23	24	2
116	116	4
75	90	1
5	25	2
117	144	3
22	22	6
75	77	4
75	89	1
75	98	1
83	85	8
30	30	29
135	136	4
31	31	6
111	112	3
29	49	2
133	135	4
111	111	5
76	78	13
75	101	4
112	115	3
32	94	1
14	15	10
3	6	1
21	48	1
10	11	3
48	49	3
9	9	7
65	66	1
86	93	2
9	67	2
75	76	7
23	25	2
91	92	2
49	49	10
87	87	7
21	97	3
128	128	10
82	99	2
140	141	3
40	42	3
43	57	5
41	42	4
28	28	8
107	111	1
99	100	8
71	73	1
105	106	4
21	39	1
26	28	1
102	105	1
30	31	3
38	39	4
18	19	2
59	62	2
86	96	2
56	122	2
88	90	6
59	63	1
137	137	8
120	123	3
74	75	2
63	63	12
135	144	2
70	72	3
84	86	4
118	121	3
59	59	8
109	111	1
90	114	2
8	17	2
42	62	1
95	135	2
146	146	3
120	131	1
109	127	1
22	25	1
89	91	6
116	133	1
77	78	5
57	123	1
54	56	1
139	142	2
6	27	2
76	77	5
136	138	4
51	51	7
31	32	4
49	96	3
122	123	14
87	88	3
85	86	4
59	60	2
42	42	4
78	81	2
143	144	8
102	103	3
95	96	3
3	33	3
24	58	3
107	108	5
64	73	2
106	130	4
56	64	7
117	127	1
62	64	2
111	132	3
127	131	4
20	95	1
47	97	4
58	64	1
92	92	4
145	145	3
58	59	3
110	111	4
131	132	1
99	118	1
35	43	2
25	26	6
126	128	1
95	119	2
8	9	4
37	39	4
104	131	1
25	66	2
14	30	5
30	33	3
134	137	1
96	104	1
70	102	2
43	47	1
70	71	3
47	53	2
121	124	2
124	125	6
105	133	1
84	98	2
90	115	3
82	120	1
101	143	2
54	54	6
70	106	1
125	135	1
24	31	3
6	32	4
3	5	3
75	79	1
17	19	3
118	131	1
36	38	1
106	108	4
57	57	2
24	26	2
90	91	5
5	26	1
6	12	2
56	60	1
46	47	1
74	93	1
0	10	3
4	27	2
79	79	2
88	92	1
140	142	2
2	3	1
31	35	2
20	120	1
6	31	3
119	142	1
52	63	2
105	108	2
103	104	2
106	109	3
57	59	4
100	102	1
134	139	3
53	62	1
132	133	1
60	123	1
119	127	1
134	143	3
87	89	2
135	139	2
59	61	1
11	13	2
34	35	5
107	140	4
71	107	2
71	74	1
51	53	1
117	133	1
20	96	1
25	37	1
57	62	1
0	12	1
1	18	1
119	121	3
87	97	1
81	83	1
125	143	1
52	64	1
6	10	1
60	64	1
29	51	1
88	104	2
80	81	1
75	99	1
55	59	1
0	2	1
32	65	2
109	134	1
138	139	7
73	103	1
77	81	2
109	125	1
133	140	1
137	139	2
130	134	1
87	108	1
8	18	1
48	54	2
6	28	1
141	143	1
36	39	1
93	108	2
66	75	1
63	73	1
9	11	3
102	106	2
12	13	1
127	129	1
6	9	2
109	116	2
17	34	1
20	31	2
66	68	1
96	99	1
120	141	1
23	50	1
133	138	1
12	12	1
58	62	2
24	32	1
114	116	1
111	114	1
136	139	2
19	20	1
57	64	1
107	127	1
49	53	1
35	57	1
25	33	1
140	143	2
55	56	1
26	26	2
20	38	1
117	119	1
36	58	1
20	63	1
117	131	1
134	138	1
60	61	2
110	112	1
112	114	2
113	115	2
3	130	2
79	81	2
82	83	1
85	87	2
48	51	1
32	47	1
98	121	1
103	120	1
115	135	1
102	110	1
120	122	2
87	96	1
132	139	2
25	67	1
101	102	4
12	14	1
90	100	1
72	105	1
6	7	1
93	107	1
67	68	1
27	31	1
79	85	1
12	86	1
116	117	1
82	85	3
124	127	1
77	92	1
130	143	1
31	34	1
99	114	1
0	1	2
37	41	1
42	46	1
24	71	1
33	52	1
139	140	1
61	69	1
81	85	1
59	64	1
50	119	1
86	91	1
100	134	1
