65	65	32
107	107	6
76	76	23
66	66	7
51	60	4
85	85	12
42	51	2
54	55	4
62	62	34
73	73	21
104	104	23
27	28	7
26	81	2
50	50	32
21	21	13
47	47	3
28	29	5
37	38	16
34	34	30
105	105	30
35	35	32
53	59	4
37	37	15
101	102	11
93	93	18
94	94	11
53	53	23
68	68	31
93	95	2
59	59	32
70	70	19
32	33	5
43	57	2
27	27	11
56	56	20
46	48	6
46	47	5
63	63	19
33	33	14
91	91	24
36	96	5
39	53	1
101	101	14
23	23	13
68	69	19
40	41	6
39	39	21
83	83	6
77	79	5
96	97	3
54	54	16
25	26	3
76	77	9
33	34	8
90	90	11
74	74	18
99	100	7
31	33	9
40	46	2
91	92	9
99	99	20
74	75	8
38	38	20
81	88	7
55	55	34
26	26	7
72	72	16
24	24	23
100	100	14
31	81	1
106	106	4
43	50	2
52	53	5
55	56	7
79	80	8
30	30	17
25	27	2
50	51	20
61	61	24
73	74	6
51	52	14
42	48	1
87	88	6
78	80	2
88	90	4
94	96	6
82	82	24
75	76	3
46	49	1
80	81	7
75	75	23
62	63	6
83	84	6
40	56	1
60	60	11
101	103	7
69	69	21
95	96	4
100	101	8
49	50	10
81	81	12
89	97	7
92	93	5
61	62	3
57	57	8
67	67	15
29	30	5
44	44	8
43	51	1
70	73	5
47	48	9
85	89	2
32	32	25
89	90	14
93	94	7
105	107	3
90	92	3
86	86	4
65	66	8
42	42	13
28	31	3
82	84	3
88	88	13
31	31	23
67	68	7
41	47	4
64	64	35
36	36	17
77	78	6
77	77	22
70	71	4
47	61	4
40	42	2
45	45	18
76	99	2
56	58	6
103	103	9
93	100	1
40	50	2
24	34	1
95	98	5
46	46	3
71	102	4
72	73	5
39	40	3
97	99	2
94	95	3
21	22	9
85	95	3
83	85	5
27	31	3
102	102	15
91	105	3
25	25	10
92	92	19
59	60	9
63	64	4
38	58	4
82	83	12
87	87	10
95	106	1
55	69	1
78	88	2
29	29	9
80	83	2
97	98	8
78	79	7
104	106	1
78	78	14
35	90	4
43	43	3
57	58	10
79	85	2
64	65	8
51	51	10
45	48	6
98	98	15
89	89	8
42	43	13
29	31	3
22	22	4
56	57	1
30	33	3
30	36	2
87	90	2
79	81	4
40	44	1
90	96	3
103	105	1
84	85	1
41	49	4
24	25	5
47	49	1
71	104	5
20	21	2
76	78	7
49	49	12
71	72	9
97	97	5
84	84	3
68	70	2
31	36	4
102	103	2
32	79	1
65	72	1
40	45	3
23	24	1
96	96	3
79	79	5
30	81	1
38	59	3
86	88	4
24	33	1
22	23	5
84	98	2
71	71	7
20	34	2
52	52	18
85	90	3
74	100	6
33	38	1
53	58	2
83	86	1
104	105	7
86	87	3
80	80	6
53	56	2
42	47	3
32	34	1
61	63	1
58	59	3
31	32	7
69	70	3
30	32	2
38	39	4
35	36	2
41	41	5
95	95	10
39	54	1
26	27	3
88	96	3
53	54	7
80	85	2
66	73	4
89	93	1
58	58	3
81	83	1
87	89	2
68	104	3
73	75	2
95	97	1
21	23	3
28	30	2
81	89	1
28	32	1
80	82	3
71	73	2
79	90	2
35	65	2
91	100	1
49	51	1
40	40	3
44	45	3
84	88	1
24	29	1
25	32	1
61	85	2
50	55	1
36	62	3
89	105	3
88	89	3
40	43	2
62	100	1
33	37	2
82	86	2
35	38	2
67	72	3
38	60	5
30	89	1
103	104	2
41	42	1
67	70	2
55	58	1
62	91	2
85	86	1
42	44	1
65	73	1
38	53	2
45	47	2
25	81	3
60	61	1
24	31	1
72	104	1
35	63	1
86	106	1
22	25	3
28	28	1
98	99	2
101	104	1
106	107	3
20	20	1
64	73	2
90	97	1
37	39	1
47	51	1
67	69	1
66	72	1
37	61	1
29	34	1
48	49	1
45	64	1
39	44	1
35	59	1
