129	129	23
56	56	4
75	76	5
141	141	12
89	90	10
55	55	10
76	77	3
70	70	10
118	118	8
118	119	2
128	129	8
126	126	16
8	19	1
130	130	9
14	106	2
84	141	3
104	104	13
34	35	4
59	59	7
85	104	2
13	13	10
143	143	3
123	135	2
122	122	4
18	19	7
61	61	10
2	4	3
135	136	6
139	140	6
54	54	9
94	95	4
48	48	3
136	137	14
33	33	9
60	60	11
137	137	5
142	142	8
101	103	5
82	83	9
134	135	10
53	53	3
136	140	3
111	112	2
88	88	7
116	116	8
146	146	6
127	129	5
11	11	13
123	123	11
82	118	4
119	120	5
51	51	7
117	118	7
78	78	8
66	66	9
125	125	15
9	10	8
99	99	8
26	26	15
73	73	3
133	133	17
138	138	4
21	21	9
85	100	5
3	5	3
144	144	5
99	101	5
2	2	6
107	107	11
137	139	4
124	124	13
137	138	2
26	27	2
62	62	5
83	83	6
116	117	7
68	68	5
57	57	3
131	131	17
37	38	14
52	52	4
111	111	4
102	102	11
22	22	6
132	132	9
127	127	10
10	125	1
85	85	3
67	68	5
90	91	2
113	116	1
25	25	7
1	1	7
91	91	12
14	14	5
117	117	10
97	97	9
2	5	1
48	49	2
28	28	4
94	94	12
121	140	1
30	30	12
71	71	4
65	65	11
26	131	1
74	74	7
90	90	7
116	118	3
87	90	2
29	30	5
1	17	1
106	113	4
41	41	5
134	134	6
120	120	5
108	109	5
114	114	5
2	138	1
83	119	1
98	98	4
21	22	5
41	42	5
8	8	3
96	96	6
132	133	8
31	33	3
33	34	4
27	27	6
115	139	2
20	20	4
110	110	9
73	74	5
92	92	4
18	18	5
112	139	3
13	17	4
95	96	4
63	89	6
93	93	5
109	109	12
31	32	3
95	95	5
87	87	4
65	73	2
36	37	2
142	143	2
58	58	8
127	134	4
54	55	2
69	72	1
120	124	1
73	75	2
82	82	4
101	101	12
57	58	2
35	35	4
29	29	14
32	32	6
64	64	4
9	9	9
19	33	1
91	98	1
70	71	3
128	141	2
34	34	5
58	65	3
125	126	1
49	51	2
135	135	4
43	43	3
84	84	4
113	113	5
75	75	2
16	16	8
40	40	5
24	24	7
15	15	7
23	23	7
99	102	6
93	94	3
103	121	3
77	77	8
38	38	3
85	117	2
18	60	1
66	67	5
15	17	2
126	137	2
126	127	11
72	72	4
57	61	4
15	16	1
49	49	5
78	94	1
106	107	1
68	93	3
55	56	1
141	142	1
122	123	6
86	87	2
100	100	10
35	36	4
57	68	5
132	134	3
50	50	3
18	75	1
81	81	3
90	92	1
17	17	3
51	52	1
10	10	1
118	131	2
128	128	3
49	52	1
95	99	2
80	81	1
126	132	2
20	33	2
131	132	2
96	97	4
105	105	7
16	71	2
59	64	1
20	24	1
27	94	4
111	139	1
118	132	2
59	60	4
105	107	1
123	124	2
102	103	4
49	58	2
133	134	9
131	133	1
130	131	7
79	79	5
121	121	8
11	127	2
84	121	1
60	62	2
17	18	2
121	128	1
96	98	2
140	140	6
37	37	2
119	119	6
47	47	2
50	51	3
133	135	1
137	141	2
20	21	2
10	21	2
4	4	3
58	73	1
77	78	2
6	21	2
104	140	1
24	25	1
5	5	3
144	145	1
52	81	1
58	59	4
39	40	2
12	12	3
115	115	3
121	134	2
137	140	2
74	75	1
51	53	2
57	65	2
79	80	1
89	91	2
118	120	1
97	98	1
108	108	2
133	138	2
16	17	1
117	120	3
32	33	2
118	130	2
85	86	1
145	145	3
122	135	1
42	42	6
140	141	4
75	89	1
20	96	1
106	106	3
52	54	2
100	124	2
2	140	1
16	20	2
12	13	3
10	19	2
30	90	3
61	62	2
40	62	1
9	131	1
69	69	4
11	21	1
114	128	1
145	146	1
71	88	1
63	63	2
9	12	1
127	138	1
127	128	1
27	28	1
88	89	2
113	114	1
123	126	1
124	132	1
103	103	3
13	15	1
108	136	2
139	139	1
23	25	1
67	67	2
108	118	1
113	135	2
112	112	1
56	57	1
19	19	1
62	63	1
4	10	1
110	112	1
6	11	1
66	73	1
5	6	2
33	62	1
10	11	2
67	72	1
129	134	1
41	61	1
121	141	2
19	23	1
99	100	2
41	63	1
136	136	1
122	140	1
80	80	2
1	6	2
89	110	1
25	26	1
100	101	1
61	63	1
18	29	1
28	29	1
40	41	1
124	125	2
31	31	1
79	81	1
24	29	1
109	111	1
76	76	1
53	54	1
0	0	1
127	130	1
