8	8	8
86	86	15
90	91	6
17	17	16
13	77	1
41	43	7
49	49	30
91	95	4
12	12	19
98	98	12
129	129	10
82	82	17
102	104	2
31	32	7
56	56	7
124	124	15
89	96	5
60	70	7
97	98	14
16	41	14
59	61	5
59	60	4
46	47	13
13	13	6
75	76	2
86	87	3
32	32	12
105	105	6
68	68	17
87	87	10
102	102	17
44	45	4
46	46	19
125	133	3
77	78	2
21	26	1
50	50	20
111	112	3
48	49	7
78	97	4
41	97	3
122	122	8
120	120	13
114	119	3
125	129	6
97	97	6
118	119	2
78	108	2
132	132	14
47	47	16
0	0	12
107	110	7
121	121	14
108	115	8
116	116	6
129	130	2
69	70	3
118	118	11
107	107	6
108	114	3
3	38	4
84	85	7
75	77	2
110	111	5
62	62	11
15	15	5
18	18	12
73	73	13
16	17	6
49	57	3
52	52	13
17	18	4
91	92	8
65	67	1
11	53	2
20	20	8
6	6	6
62	92	2
53	53	10
106	126	1
51	52	4
105	106	4
113	113	9
121	124	6
39	39	10
50	51	12
44	54	3
1	124	6
75	102	4
104	105	2
111	111	8
126	129	7
72	72	20
75	75	20
54	54	21
42	44	3
3	126	2
21	33	3
33	79	4
92	92	6
30	30	16
117	117	17
100	100	17
14	14	11
74	74	4
74	76	3
60	60	18
56	123	4
26	26	12
108	108	10
63	63	10
9	9	3
101	101	21
57	121	3
104	104	9
45	45	5
90	90	5
84	84	11
52	53	6
14	15	7
67	67	13
93	93	12
34	34	6
71	114	1
21	21	9
59	62	2
70	70	6
58	59	2
3	4	6
10	11	5
114	114	12
88	91	7
20	95	4
43	43	15
49	109	5
3	129	5
41	42	4
109	110	4
82	84	4
49	50	9
77	77	7
18	33	3
99	99	4
42	42	9
34	125	1
30	31	5
74	107	4
77	125	2
38	39	3
99	129	5
67	118	4
128	129	3
91	91	5
1	5	1
3	24	2
7	7	13
41	41	8
66	66	21
71	71	4
16	30	3
80	84	1
31	31	6
101	119	8
103	103	7
5	7	1
4	5	3
14	33	2
130	130	10
16	16	9
51	51	18
16	97	4
28	28	8
19	19	8
82	83	6
104	120	2
76	76	17
33	33	18
101	108	1
48	48	12
65	66	5
78	78	13
95	96	5
82	85	1
59	59	12
72	73	2
130	131	3
7	26	4
85	85	6
89	89	4
40	58	1
44	44	12
92	116	1
29	29	12
127	127	7
123	123	11
62	63	5
14	65	1
2	2	12
109	113	6
56	106	2
76	130	3
53	56	1
119	119	10
72	112	2
0	1	1
24	125	4
61	61	11
5	5	11
126	126	9
106	116	2
15	58	4
131	132	1
21	38	1
77	98	2
15	97	2
115	115	8
26	30	2
101	117	1
80	80	8
43	54	2
69	69	13
112	112	9
120	132	1
101	118	1
132	133	1
85	131	5
7	24	2
28	29	6
128	128	7
43	73	3
110	110	7
17	98	1
32	33	1
131	131	9
95	95	7
18	81	2
13	14	4
99	115	2
103	104	4
24	24	5
27	27	6
109	109	15
22	22	8
17	82	8
38	38	7
60	117	2
97	104	2
87	88	1
133	133	5
79	82	1
3	3	2
44	113	1
94	94	4
64	64	8
79	79	7
106	106	5
14	67	4
12	132	4
102	103	9
96	96	8
25	25	3
6	7	3
20	116	1
77	114	5
57	96	2
69	120	2
66	108	3
21	81	1
100	101	3
21	22	4
69	104	1
72	74	1
68	115	3
43	72	1
55	55	15
81	81	11
5	41	3
126	128	1
88	89	2
89	97	2
17	44	2
64	65	1
123	124	3
38	97	2
108	126	2
68	119	4
72	116	4
116	120	2
44	112	2
82	112	1
57	57	7
9	81	2
65	65	15
117	120	4
108	109	5
25	26	6
5	68	3
76	128	3
115	127	1
78	79	6
46	75	3
92	93	2
76	127	2
103	108	1
11	125	1
51	62	1
107	127	1
84	88	2
60	61	1
83	83	18
25	79	1
51	91	1
13	50	5
76	116	4
106	121	4
125	125	3
14	68	1
88	88	4
9	11	3
19	34	1
79	81	1
67	116	4
45	46	6
10	10	8
27	28	3
68	93	1
77	97	1
40	98	5
17	45	5
121	125	2
87	107	2
39	52	2
43	45	2
44	55	2
115	116	1
73	74	2
26	28	1
1	1	5
24	25	4
4	71	1
33	34	1
99	100	2
102	113	2
43	44	6
31	33	3
40	40	6
94	95	2
38	40	1
107	113	2
7	33	3
85	87	2
75	103	4
32	66	1
7	132	2
57	71	2
59	64	3
65	83	3
68	83	3
68	69	1
48	67	2
78	133	2
20	87	2
83	86	2
77	115	1
58	58	5
77	130	6
9	90	1
20	91	2
75	100	2
33	59	2
77	99	4
15	115	1
26	32	2
7	22	1
39	97	1
63	83	4
42	45	2
16	19	2
19	20	5
24	83	2
68	116	1
72	128	2
71	72	1
48	89	1
56	122	3
79	89	2
131	133	1
60	62	1
67	83	1
61	130	1
29	30	2
43	119	1
127	128	1
43	75	1
116	117	3
62	64	6
4	130	1
68	85	2
20	86	4
110	113	2
83	84	4
78	126	3
14	51	1
4	4	2
110	122	2
74	104	1
20	92	1
5	130	1
47	48	1
67	104	1
80	82	1
121	122	2
32	76	1
7	23	2
81	83	2
9	111	2
11	89	3
45	114	4
67	85	3
12	89	3
3	97	2
40	44	1
56	57	1
9	30	1
125	131	1
114	116	1
17	39	1
52	87	1
93	94	2
79	80	2
22	23	2
80	81	2
14	17	2
46	120	1
47	56	1
109	114	1
11	25	2
5	13	1
101	128	1
2	126	1
57	69	2
21	62	1
44	46	1
81	97	1
17	81	3
16	98	1
26	132	2
42	43	2
13	66	1
65	82	1
22	79	1
78	101	2
62	117	1
42	98	1
88	90	1
87	111	4
13	61	1
125	126	1
30	33	2
107	126	1
15	16	1
20	80	1
98	99	1
80	129	1
9	10	1
71	115	3
11	13	1
107	129	2
91	125	2
18	19	1
65	69	1
119	128	1
63	112	1
115	117	1
19	80	1
63	92	1
25	131	1
15	57	1
18	24	1
115	119	1
89	90	1
39	43	1
96	108	1
54	56	1
19	21	1
29	32	1
3	96	1
106	107	1
8	9	1
15	67	1
40	41	1
33	130	1
33	82	1
107	125	1
60	92	1
44	77	1
