36	36	17
123	124	3
76	77	6
87	87	7
53	59	1
93	93	8
4	4	11
140	141	8
139	139	15
43	43	4
59	59	19
117	117	16
53	53	9
25	59	5
11	26	2
66	66	12
18	18	24
5	5	12
90	90	15
61	62	3
133	134	5
54	56	3
141	142	10
76	76	10
13	13	20
28	28	8
64	64	11
114	114	7
129	129	18
71	71	5
85	85	10
103	103	9
14	14	13
24	120	1
129	130	16
49	49	8
115	116	10
75	76	7
65	65	15
119	119	4
1	2	4
105	105	14
48	48	7
56	56	7
0	11	5
96	96	8
124	125	9
133	135	1
28	29	11
132	132	14
30	30	21
17	17	19
70	72	1
12	12	10
124	126	5
74	75	6
118	118	12
67	68	4
139	140	3
28	54	1
23	23	15
20	21	5
88	88	14
112	113	2
126	126	8
70	74	1
3	3	6
25	27	2
79	79	18
98	127	1
52	82	1
32	32	9
33	33	4
111	111	2
38	38	7
125	130	8
75	75	7
64	97	5
42	42	5
34	35	7
122	123	4
104	104	17
0	0	8
100	103	5
95	95	8
29	29	18
78	78	7
19	19	10
116	119	3
100	100	5
91	91	11
63	63	10
42	43	3
135	135	5
103	138	2
22	23	4
99	99	17
137	139	6
78	100	3
22	22	15
55	55	14
108	109	7
83	83	9
133	133	15
141	141	4
112	115	5
109	109	10
68	74	1
107	107	17
108	110	5
39	39	8
90	91	4
138	138	13
111	115	8
145	145	2
105	108	3
96	98	1
131	132	3
106	106	13
19	26	1
131	131	14
102	102	11
138	139	6
80	80	8
69	69	9
97	99	3
136	137	3
35	37	2
75	84	3
140	140	9
94	94	6
113	113	3
27	27	7
93	95	1
93	98	4
61	61	8
2	2	3
32	33	3
10	13	1
56	57	3
17	18	2
132	134	5
87	88	6
32	41	1
13	14	1
74	74	5
64	65	7
68	68	7
119	135	4
110	112	3
92	94	4
69	70	9
92	92	6
89	89	14
37	37	13
132	133	12
93	94	10
130	131	5
112	114	5
50	60	5
127	127	7
24	25	6
116	116	6
125	128	3
125	125	3
137	137	4
24	24	4
10	11	5
33	36	1
47	65	5
31	33	5
104	105	4
62	63	9
113	115	3
89	94	3
119	130	2
117	132	2
38	40	5
4	6	2
37	38	10
62	62	4
98	98	4
106	108	1
30	31	4
50	82	1
101	102	9
101	101	6
50	52	3
73	74	5
67	70	3
118	119	7
72	72	5
133	138	1
38	39	3
120	131	2
81	81	8
116	118	3
91	106	4
76	79	4
30	32	2
8	8	4
53	58	3
110	110	12
101	103	3
130	130	5
121	129	6
128	128	11
139	142	4
142	142	11
36	37	4
32	39	2
137	138	13
97	97	7
134	136	2
112	122	4
27	28	3
16	17	5
69	71	2
126	131	1
61	63	6
128	131	9
127	129	4
123	123	5
39	40	6
67	67	4
79	80	4
8	12	5
51	51	11
77	77	5
50	50	3
71	72	4
63	64	5
119	120	7
76	81	2
133	139	2
118	120	4
106	107	3
12	13	1
81	82	5
88	91	4
12	20	1
54	54	6
134	135	8
109	111	2
54	55	3
9	12	1
60	61	4
1	1	4
131	139	3
26	26	10
60	60	4
9	9	9
52	52	6
92	93	7
87	92	3
6	6	15
0	1	5
15	16	2
33	39	3
68	70	2
85	109	2
53	54	2
145	146	2
134	134	2
58	58	4
25	25	8
13	16	5
18	24	2
18	20	5
58	59	10
83	106	1
132	135	3
1	11	2
74	83	3
54	86	3
70	70	1
136	136	9
10	10	1
19	20	4
88	89	4
41	41	6
107	108	2
94	120	2
77	78	5
98	99	3
18	19	2
124	124	9
81	112	2
132	139	1
131	133	3
99	100	1
110	113	2
21	22	2
66	72	2
39	41	2
75	77	1
54	68	1
126	129	2
40	40	5
112	112	2
55	58	2
31	31	13
35	35	2
26	27	3
16	16	1
35	38	3
51	52	2
139	143	2
9	10	1
96	97	3
73	73	5
125	129	2
142	143	1
104	110	2
55	56	3
143	143	3
60	62	1
108	108	9
77	103	1
144	144	1
103	104	1
87	90	4
79	103	2
78	79	2
114	117	1
14	16	9
120	120	2
21	27	2
57	57	5
122	124	5
83	111	4
68	69	2
122	122	5
48	65	4
62	86	1
57	58	4
116	136	1
25	26	6
84	84	6
11	25	1
30	60	2
125	126	2
115	115	4
58	60	3
83	85	1
74	77	2
32	63	1
11	11	3
33	64	1
48	52	1
126	128	2
49	50	4
35	36	2
105	121	1
21	24	2
14	35	1
111	113	3
82	82	4
75	83	1
96	109	1
122	130	1
109	110	1
89	90	1
4	5	2
80	82	3
120	121	1
89	93	1
23	25	2
51	56	1
86	86	2
67	75	1
97	126	2
15	17	1
21	21	4
10	12	1
113	114	3
34	37	1
28	30	3
105	106	3
59	61	1
63	85	2
121	125	1
114	115	1
117	134	1
91	137	1
68	72	3
128	129	1
19	41	1
79	81	1
34	34	3
121	123	1
76	86	1
89	95	1
140	143	2
78	143	1
8	9	3
76	83	3
112	118	1
90	93	4
20	20	5
82	91	1
18	42	3
55	88	1
14	15	1
77	79	2
53	60	2
79	82	2
111	112	2
97	109	2
77	84	2
74	82	1
56	83	1
15	15	2
116	120	2
80	81	1
38	41	1
33	35	1
14	18	1
9	41	1
121	121	1
136	139	1
116	117	2
34	38	2
29	54	1
72	83	1
47	47	1
3	4	1
120	130	1
10	28	1
91	135	1
30	57	1
52	53	1
131	137	1
16	37	2
126	130	1
15	36	1
83	107	2
130	134	1
41	42	2
89	92	1
51	82	1
13	15	1
28	31	1
113	119	1
87	109	1
23	24	1
5	6	1
36	38	1
