108	108	1
122	122	10
183	183	4
46	46	2
163	164	2
98	116	3
165	165	8
39	56	3
71	71	2
36	36	7
9	9	6
190	191	10
18	18	8
102	114	2
153	153	4
97	98	2
13	127	1
16	18	5
150	170	3
109	109	11
82	82	1
151	151	3
102	102	3
70	70	6
136	136	12
53	83	5
109	110	2
164	165	1
4	4	4
38	120	1
95	105	4
160	160	10
105	119	1
147	147	6
15	15	6
18	75	5
56	56	7
68	68	2
117	117	3
48	53	1
146	146	6
184	188	4
55	57	1
19	19	7
100	120	2
158	158	1
144	145	2
37	39	4
2	2	4
197	197	2
23	23	6
135	149	2
58	58	2
125	147	3
33	33	3
53	53	6
113	127	5
160	161	2
147	150	1
20	22	4
158	167	3
168	168	5
27	27	5
167	167	7
17	17	7
51	51	5
139	140	4
157	158	2
116	117	2
39	111	2
152	153	3
29	29	5
69	70	1
35	35	2
155	155	8
15	16	2
44	55	2
45	46	2
161	161	2
176	176	16
34	34	6
56	57	2
49	49	4
8	77	2
28	28	5
150	164	3
98	162	2
110	152	2
101	106	3
60	61	7
99	99	5
107	161	2
112	113	2
190	190	3
45	45	7
14	14	10
88	88	1
193	194	4
165	166	3
168	169	3
39	39	11
35	36	2
133	197	2
9	62	3
116	116	3
156	156	2
6	19	4
26	27	1
95	149	1
195	195	2
174	175	3
109	152	3
164	164	2
125	126	3
166	166	6
72	72	3
57	57	6
112	128	1
100	111	2
187	187	5
163	163	9
126	126	1
5	183	1
13	13	12
140	140	8
83	83	2
185	185	3
17	37	2
139	139	2
24	59	1
142	197	2
10	10	3
22	22	4
99	116	2
107	107	3
42	42	7
78	78	2
141	169	1
41	41	2
177	177	3
145	145	5
90	90	5
144	144	1
113	115	3
52	52	5
32	32	2
54	118	1
83	104	5
167	176	1
162	163	3
178	178	4
148	157	3
1	3	1
189	189	7
48	81	3
148	148	4
104	105	1
194	194	1
171	187	1
40	40	3
138	182	2
95	122	1
186	186	8
96	97	5
158	168	1
34	40	2
43	43	6
7	7	6
148	150	2
0	0	1
156	178	2
124	126	2
45	53	2
150	193	1
97	149	1
196	196	4
131	133	2
60	60	2
74	74	3
7	19	1
172	172	5
188	191	1
98	98	3
54	54	4
26	26	5
157	157	5
130	142	1
149	149	3
174	189	1
136	148	2
37	37	4
34	35	3
129	129	3
21	22	3
106	106	4
20	87	3
34	36	1
169	169	10
150	150	2
37	38	3
10	14	1
142	142	4
95	101	1
8	22	3
149	150	3
51	57	2
21	21	6
182	182	4
155	157	1
170	170	3
107	127	2
111	111	7
107	157	1
70	74	1
159	169	1
174	174	2
49	172	1
135	135	6
184	186	3
182	183	1
141	144	1
172	173	1
1	1	2
112	112	3
127	138	3
117	118	1
20	21	1
123	123	3
94	149	1
8	8	2
65	65	1
16	16	3
173	173	3
158	190	1
11	11	4
104	104	2
40	42	2
113	113	4
32	84	3
105	105	1
123	124	2
104	106	1
141	193	1
169	170	4
143	143	1
89	89	3
44	44	2
97	97	3
106	107	1
176	177	2
163	165	1
127	194	1
170	171	3
1	2	1
191	191	6
138	138	3
74	75	2
78	81	2
50	50	1
110	134	1
189	194	1
191	192	4
31	31	3
94	94	4
76	77	1
135	173	1
171	171	2
151	158	1
54	104	5
128	128	6
152	152	2
55	55	1
6	6	1
124	125	2
7	62	4
2	87	1
2	78	2
67	67	3
124	124	7
25	25	4
136	172	1
48	48	1
154	154	3
119	119	2
112	169	1
107	111	2
184	184	3
61	61	3
18	121	2
107	119	2
5	9	1
130	130	1
155	166	1
159	159	2
167	168	2
159	160	4
118	157	1
39	119	1
69	69	1
20	40	2
108	110	1
19	20	1
181	181	3
135	145	1
129	130	3
59	59	2
143	168	1
97	118	1
9	36	1
5	127	1
193	193	3
8	9	1
146	147	3
95	102	1
12	27	1
53	57	1
187	188	1
112	118	1
49	52	1
103	124	1
159	161	1
153	154	1
131	143	1
105	106	3
31	32	3
35	37	1
12	12	3
29	30	1
127	127	3
96	96	1
93	93	1
143	144	1
151	152	1
166	169	1
16	19	1
71	72	1
13	128	1
38	39	1
2	76	1
151	162	1
152	182	1
113	181	1
99	176	1
72	86	1
100	100	1
6	20	2
5	5	1
121	121	2
141	141	1
110	110	1
40	41	1
32	82	4
156	157	2
6	37	2
128	149	1
111	118	1
46	49	1
127	197	1
28	30	1
10	111	1
163	173	1
36	37	1
130	131	1
77	77	3
11	15	2
48	183	1
60	62	2
114	114	1
54	55	1
1	110	1
103	103	1
188	188	1
183	189	1
13	14	2
77	79	1
11	13	1
127	159	1
113	128	1
94	95	1
120	121	1
62	62	1
