28	28	11
11	11	14
76	76	20
27	27	23
60	60	18
81	81	12
25	25	20
51	51	30
11	20	6
52	52	25
49	49	3
85	85	17
80	82	3
58	58	17
47	47	5
65	78	5
25	26	11
14	14	8
68	69	10
19	19	33
12	13	11
77	77	16
86	86	19
10	10	14
53	53	17
64	64	10
50	51	2
23	23	20
63	63	18
77	78	3
50	50	9
75	75	12
9	31	4
7	7	15
29	29	1
82	83	12
22	70	1
61	61	20
52	53	2
80	81	4
30	84	1
0	0	11
48	48	16
73	73	17
84	84	20
68	68	24
65	79	4
3	3	27
90	90	5
46	46	10
79	79	11
4	4	18
13	14	2
82	82	19
50	61	2
48	53	3
88	88	6
55	55	17
16	17	3
79	80	11
26	31	1
81	83	3
69	85	3
88	89	8
67	67	19
69	69	13
8	8	12
57	73	3
76	77	8
7	8	2
30	30	12
59	60	7
16	16	2
5	20	3
61	62	8
8	80	4
3	24	1
20	20	12
5	35	4
65	66	6
80	83	4
18	19	3
22	22	11
56	56	24
83	83	11
87	87	12
8	9	8
23	25	1
78	78	11
9	9	21
34	48	6
58	60	3
77	79	5
52	61	5
18	33	1
19	20	3
5	80	11
19	80	2
2	2	11
80	80	9
21	33	1
33	33	2
65	65	5
89	89	11
62	62	4
52	60	3
78	79	6
34	34	9
13	13	24
74	74	4
58	69	3
14	19	2
77	82	1
17	18	1
1	2	12
5	7	7
53	57	3
15	15	10
60	64	3
72	72	8
74	75	4
53	54	8
56	62	2
10	26	4
23	80	2
7	51	2
71	71	6
24	30	4
4	68	3
1	1	6
52	54	7
8	56	2
9	75	1
18	18	1
6	47	2
76	79	2
31	31	9
63	64	3
49	54	3
8	47	2
22	89	1
22	25	1
20	23	2
17	17	8
58	62	4
46	58	1
54	54	16
12	12	10
19	21	1
25	27	2
57	57	12
15	23	4
50	53	2
17	27	3
60	62	1
67	74	3
86	87	4
62	63	2
73	77	2
5	65	6
71	74	2
6	6	4
78	81	2
10	23	2
24	24	13
21	22	3
89	90	1
66	66	9
26	26	11
62	65	3
6	33	2
7	9	3
70	74	1
9	10	2
66	67	4
28	31	1
67	81	2
21	84	2
67	69	2
49	53	2
60	63	2
15	16	8
20	61	5
24	25	3
22	23	1
5	48	2
6	7	3
5	5	6
6	8	3
59	61	3
84	88	1
59	63	1
27	31	1
9	11	1
21	21	4
49	50	1
53	55	4
68	86	2
64	66	3
81	82	4
4	11	1
59	59	6
70	70	2
78	83	1
85	86	6
46	75	1
51	52	6
11	83	1
73	74	1
25	32	1
65	76	4
64	67	2
27	28	1
20	31	1
7	31	1
76	78	3
55	56	2
58	75	2
75	76	2
57	58	2
20	21	2
71	72	1
3	4	1
46	79	2
5	6	4
13	19	1
28	87	1
66	89	1
20	68	1
46	63	2
50	74	1
28	29	1
14	86	2
17	87	1
27	82	3
58	63	2
12	18	1
11	30	1
19	66	1
26	27	1
3	11	2
4	5	1
10	24	2
19	84	2
64	89	3
29	30	1
22	24	1
58	59	2
80	84	1
51	54	5
6	9	1
87	89	2
75	77	1
51	74	2
64	65	1
2	10	2
52	59	2
23	27	1
56	61	2
6	46	1
48	50	1
63	65	1
59	65	1
17	25	1
54	57	1
55	62	1
47	58	1
16	23	1
10	22	1
