123	123	9
109	117	7
71	71	9
87	87	5
131	134	3
130	130	14
119	119	11
26	26	4
32	35	6
12	13	9
139	139	3
93	94	4
74	75	3
74	74	6
145	146	7
4	12	2
10	10	17
39	39	14
125	128	8
24	34	2
41	41	7
73	73	6
92	92	10
66	66	4
53	53	13
40	40	12
137	138	5
104	104	5
131	131	9
25	30	5
32	33	6
135	149	3
75	76	2
100	100	7
11	11	21
36	36	5
94	98	3
143	143	1
128	128	5
47	49	12
52	52	2
63	64	5
72	72	11
80	82	1
76	92	4
75	77	3
67	67	7
112	112	11
148	148	8
145	145	10
129	129	15
108	111	1
137	137	7
132	132	4
64	66	4
6	6	3
50	51	4
70	70	10
37	38	5
84	86	7
99	99	2
80	80	3
23	24	5
68	68	6
9	9	18
78	78	6
43	46	1
107	107	8
90	90	5
78	82	1
8	8	10
153	153	10
122	135	3
63	63	4
15	53	2
65	67	5
25	26	6
28	29	8
118	118	5
99	100	5
35	35	7
53	54	4
3	5	8
141	142	8
34	34	6
26	29	6
133	133	9
47	48	9
27	27	9
121	122	5
77	78	4
109	109	5
48	48	3
29	29	9
104	110	2
119	121	4
7	11	3
65	65	24
4	4	13
18	18	11
117	118	4
19	20	3
85	85	10
8	11	1
34	36	4
17	17	16
94	95	3
71	80	2
30	30	4
135	135	10
14	14	6
83	84	7
126	126	5
113	113	10
120	120	5
82	95	1
15	16	9
36	37	2
6	8	6
90	92	7
49	52	2
122	123	4
77	77	10
19	19	5
87	96	6
7	7	8
149	150	5
45	45	5
58	69	2
80	84	1
33	34	2
150	154	3
120	121	8
38	38	7
117	117	3
23	23	12
103	103	2
42	42	3
31	31	2
24	25	10
75	75	7
33	39	1
95	95	9
64	67	3
9	10	3
103	105	1
83	83	1
22	22	9
109	116	1
64	65	1
120	122	2
46	46	11
92	93	6
66	67	2
77	94	5
54	54	10
4	5	6
147	147	1
102	110	3
115	117	3
82	86	1
123	130	5
13	13	5
150	150	7
108	108	7
28	28	7
4	6	4
127	127	3
149	149	4
150	151	2
105	105	2
142	142	4
144	146	4
49	49	2
84	88	8
52	55	1
37	37	3
3	9	1
39	41	3
141	143	1
64	64	6
96	96	1
115	115	4
110	117	2
154	154	4
108	109	2
104	115	1
20	20	11
135	148	1
82	82	1
25	27	10
146	148	2
5	5	1
44	44	5
104	106	2
11	14	7
151	152	3
76	76	4
78	79	2
121	121	4
135	136	5
40	42	4
68	69	2
31	34	3
43	45	2
25	36	2
44	45	6
143	145	4
39	40	7
10	11	2
47	47	12
42	43	2
41	42	4
47	53	1
33	37	4
136	148	1
140	140	1
133	134	1
12	12	5
9	49	2
134	135	4
22	23	7
67	68	1
5	25	4
80	83	2
79	83	1
114	114	5
24	28	2
76	77	2
14	15	1
7	27	1
5	27	2
37	39	1
41	43	3
24	24	5
131	132	1
132	134	1
97	97	5
50	73	1
127	128	2
37	40	1
15	15	4
136	137	5
84	84	6
153	154	1
87	92	1
86	86	3
79	79	1
11	13	3
81	82	2
146	146	5
41	77	1
101	101	1
78	95	2
64	90	3
152	152	11
62	87	5
129	151	4
94	94	10
113	116	4
31	32	3
32	32	6
75	79	1
46	47	4
48	49	2
43	43	2
123	128	3
29	30	2
116	116	3
115	153	1
69	69	5
56	57	2
83	93	3
123	125	1
87	88	3
30	31	6
102	104	1
13	14	4
18	19	8
9	12	2
129	150	2
106	108	2
74	77	3
143	147	1
38	39	2
7	8	2
85	87	6
129	154	1
134	144	1
67	70	1
107	108	3
150	152	2
71	100	1
43	44	1
90	118	3
16	16	4
11	12	5
122	122	7
45	46	8
143	146	4
128	150	1
65	66	1
88	88	3
33	33	1
106	106	1
136	138	2
130	133	2
109	114	1
71	115	1
95	132	1
106	107	3
110	114	4
118	119	1
129	132	2
9	23	2
112	115	1
119	134	2
30	34	1
138	138	1
141	141	4
122	130	2
71	112	1
104	105	1
13	15	3
48	53	2
10	14	1
49	72	1
69	71	1
17	25	1
108	117	2
147	149	1
77	80	2
85	97	2
69	70	2
104	111	2
81	86	1
38	74	1
82	83	1
132	133	3
26	30	1
24	29	1
97	98	1
81	85	1
148	150	1
123	127	3
112	113	1
76	79	2
75	92	1
136	141	1
54	57	1
127	145	2
118	129	1
111	111	1
16	19	1
124	127	1
79	80	1
8	9	1
57	72	1
134	134	1
110	111	1
136	147	3
56	69	1
57	57	2
71	93	1
132	145	1
100	105	1
24	30	1
25	29	1
110	110	1
101	102	1
135	138	1
129	130	2
16	17	2
20	22	1
128	129	1
18	24	1
76	78	1
72	73	1
124	124	1
4	36	1
7	29	2
127	132	1
62	93	1
119	120	1
27	30	2
81	84	1
21	24	1
51	51	1
84	87	1
49	82	1
123	135	2
26	27	1
125	125	1
20	23	1
63	93	1
43	56	1
