26	28	1
5	5	6
26	26	5
154	155	7
114	114	8
21	22	5
98	99	5
90	91	6
36	36	13
80	80	8
141	145	4
74	77	3
20	22	8
88	88	6
44	44	7
107	107	5
129	145	1
150	151	8
169	169	4
12	12	8
13	13	13
86	87	3
152	157	3
66	73	4
40	40	12
67	68	3
90	90	7
101	102	5
155	156	1
34	35	3
101	111	1
155	155	6
115	116	1
81	81	6
79	79	8
103	111	3
151	151	9
18	18	9
149	160	2
98	98	5
152	152	5
62	62	5
63	63	1
122	128	2
121	158	6
50	51	2
91	98	3
146	146	2
7	7	5
119	119	5
21	21	13
149	150	2
109	110	5
111	112	6
15	15	7
115	115	12
92	92	8
118	124	8
39	39	14
55	56	4
106	106	4
62	116	2
57	132	1
117	123	2
42	42	3
131	143	2
69	69	8
109	109	6
133	134	4
100	100	4
63	65	1
22	22	9
157	157	4
76	77	3
33	33	9
135	135	6
9	48	1
57	57	9
27	27	6
124	124	4
38	40	1
128	128	8
50	50	11
122	124	2
117	121	5
135	147	2
140	140	2
127	127	6
58	71	3
9	9	8
49	136	1
7	44	2
129	141	4
69	71	3
84	84	5
95	95	5
42	44	1
6	93	1
50	90	1
165	165	2
161	165	1
6	6	4
116	116	5
134	135	7
122	159	1
6	7	16
54	54	11
42	43	1
56	56	4
2	2	6
159	159	6
65	65	3
144	144	12
17	17	13
41	41	5
8	9	4
113	114	9
147	149	2
37	37	7
112	112	10
116	117	4
104	104	1
140	141	2
127	148	2
150	150	3
145	145	8
93	93	6
137	137	8
68	68	4
34	109	3
129	140	1
17	18	8
5	41	3
25	46	1
23	24	3
102	103	2
160	160	5
13	24	1
71	71	4
130	130	6
159	168	1
162	163	2
9	66	3
133	133	1
168	169	2
64	111	1
75	75	4
9	159	4
97	98	3
135	136	2
126	127	3
136	138	2
20	20	3
48	48	4
154	154	6
25	25	8
63	83	2
70	70	5
71	72	1
167	167	2
118	161	1
9	47	1
24	24	7
157	158	1
14	14	6
56	63	2
47	49	1
130	131	3
55	57	1
169	170	3
142	147	1
53	53	4
99	105	3
38	100	2
112	113	5
101	104	2
64	65	2
35	36	5
4	4	6
163	163	6
65	66	6
19	19	8
147	151	2
38	38	8
3	97	1
46	46	9
125	126	1
105	105	7
83	83	3
53	54	1
132	132	6
70	73	1
156	156	1
37	38	4
5	6	12
119	144	2
1	1	4
139	139	1
149	149	9
102	102	10
78	80	1
73	78	2
138	139	3
57	61	1
62	63	3
57	70	1
62	67	3
93	95	2
119	121	2
52	52	5
54	112	1
57	69	3
34	39	3
100	101	6
107	132	2
120	153	3
69	70	1
96	96	2
53	100	1
166	166	3
118	118	1
84	86	1
107	124	4
62	132	3
34	34	6
141	141	2
56	66	1
16	17	4
130	142	2
120	120	6
34	110	2
94	94	2
73	73	3
109	111	1
69	117	3
122	122	7
10	11	3
55	55	7
45	45	3
64	64	4
149	158	3
49	51	3
85	85	3
83	93	2
5	46	1
49	49	6
54	67	2
11	13	2
51	115	1
89	89	9
3	27	1
63	112	1
91	92	2
20	24	3
142	142	3
57	63	1
18	19	1
123	130	1
47	47	7
103	103	3
79	80	2
151	160	3
113	113	2
3	3	5
148	148	1
91	91	6
48	49	1
84	85	1
8	18	3
14	15	2
118	144	4
13	20	1
63	111	1
6	39	3
8	8	3
119	123	2
51	116	1
110	110	5
139	140	3
39	40	4
118	137	1
74	76	1
122	125	1
119	137	2
162	162	3
8	15	2
12	19	1
134	134	2
123	123	1
129	129	2
143	143	1
10	10	4
86	86	3
11	12	1
35	35	12
107	117	2
111	111	2
113	115	3
76	79	3
54	55	3
36	45	1
168	168	2
2	3	3
62	131	2
117	147	2
51	51	2
43	44	1
142	161	1
51	63	3
112	116	1
35	42	2
38	39	2
80	81	1
113	116	1
5	97	1
3	45	2
108	108	3
44	45	3
82	82	2
123	159	1
14	18	1
81	82	1
0	0	2
67	70	2
120	121	1
25	27	3
160	161	1
164	165	2
107	118	1
74	74	4
15	164	1
123	124	3
119	120	1
91	94	3
11	11	3
162	164	3
112	115	1
136	136	2
6	99	1
124	125	2
120	150	1
156	170	1
156	158	1
117	117	3
126	132	1
77	87	2
18	47	1
85	94	2
22	23	2
61	132	1
77	77	1
101	101	5
9	153	3
66	67	1
2	43	2
144	166	3
131	142	3
132	154	2
19	20	2
26	27	2
65	67	1
121	121	1
70	107	1
48	50	1
147	147	2
10	66	1
8	13	1
23	23	1
117	118	3
78	79	3
105	106	1
56	57	2
141	142	1
126	133	1
142	143	1
4	5	1
74	75	1
144	145	1
5	8	1
10	17	1
88	89	1
99	99	1
138	145	1
1	2	1
14	16	1
38	41	3
144	146	1
170	170	1
110	111	2
138	138	1
77	78	1
16	24	1
25	26	1
143	161	1
72	72	1
41	54	1
111	116	1
72	73	1
10	14	1
75	76	1
77	84	1
18	20	1
3	4	1
78	78	1
46	50	1
36	42	1
