42	42	3
110	110	6
10	10	5
48	48	3
21	21	4
144	144	4
20	21	2
119	119	7
122	122	7
6	6	1
36	36	5
1	1	3
55	55	11
142	142	6
15	18	2
95	100	5
152	152	14
97	98	2
93	93	1
138	138	5
54	54	5
33	33	3
158	158	5
35	42	2
63	76	1
133	148	4
161	163	1
92	93	4
154	154	1
24	46	2
132	132	1
82	82	9
89	90	2
90	98	1
49	49	6
115	115	6
24	24	4
160	160	2
98	99	7
37	37	9
23	23	2
50	50	5
9	9	3
4	18	3
104	104	5
26	28	2
116	116	1
133	133	1
44	44	5
125	125	7
118	118	3
165	166	2
18	18	6
63	66	1
21	22	4
85	85	1
157	161	4
92	99	2
111	111	11
58	58	3
109	109	5
69	69	1
73	73	6
27	27	4
167	167	6
72	77	2
94	94	3
86	87	4
14	14	2
45	46	2
22	23	1
16	16	2
107	107	4
14	15	6
107	108	2
66	66	5
4	4	9
105	106	1
99	99	4
163	163	8
104	168	2
0	1	2
19	19	3
103	103	7
159	164	4
63	108	5
3	3	5
12	12	6
4	5	2
124	124	6
155	155	3
113	113	6
5	16	6
140	141	2
102	103	2
68	68	1
150	150	8
143	144	3
149	151	1
47	49	3
144	145	2
41	41	1
148	149	2
71	77	1
96	96	6
132	133	2
37	38	1
149	150	2
125	126	2
151	154	3
25	50	3
156	156	4
40	40	3
51	52	1
118	123	1
51	70	1
128	128	1
105	105	2
141	166	2
8	69	2
24	55	1
126	155	2
88	88	1
24	25	3
142	166	2
157	157	3
87	88	1
67	69	2
35	35	14
5	5	4
56	56	3
97	97	6
103	104	2
17	17	2
93	106	4
127	127	1
26	26	1
74	76	2
76	76	2
69	80	1
21	23	1
126	126	4
108	109	3
27	44	2
4	6	1
95	158	2
90	91	3
168	168	1
65	65	1
102	102	1
15	56	2
117	117	3
75	75	2
112	113	7
57	57	6
133	147	1
78	79	1
120	120	1
74	74	3
11	11	2
44	45	1
143	143	2
113	136	1
66	67	1
34	89	1
38	38	2
7	7	2
166	166	3
4	20	2
34	34	2
52	52	4
45	51	1
98	98	3
86	89	1
134	134	3
50	51	2
100	100	5
7	12	3
96	99	2
95	99	1
137	137	1
95	105	1
161	161	1
83	83	2
169	169	1
94	147	1
5	20	2
126	127	2
55	56	1
77	77	2
22	24	1
28	28	2
45	45	2
84	84	1
151	151	1
12	13	1
93	148	1
92	94	1
2	2	2
141	141	1
58	62	1
108	108	1
81	86	2
147	148	1
116	144	1
67	68	1
113	144	3
90	135	1
128	129	2
118	120	1
142	144	1
8	110	1
86	91	1
170	170	1
16	17	2
100	117	1
