59	59	3
15	15	22
102	107	2
135	135	24
92	94	6
109	109	9
157	157	13
155	155	17
81	81	9
98	117	3
80	80	9
143	143	6
166	166	10
21	24	4
117	118	17
136	136	16
93	151	4
2	2	27
130	130	18
82	82	10
35	36	10
0	5	3
141	141	14
127	127	12
38	39	6
131	131	11
162	162	2
11	11	35
9	10	6
35	41	5
84	84	12
77	77	6
30	31	17
91	106	2
32	32	18
118	118	12
40	41	11
13	13	26
94	95	10
75	75	12
42	42	16
72	102	2
129	130	1
146	146	9
36	37	12
44	44	14
17	17	28
56	56	13
17	37	6
19	26	4
70	72	2
89	89	10
29	29	38
5	16	1
45	45	20
8	11	1
86	86	8
0	0	18
165	165	20
108	135	6
35	35	31
10	10	27
43	43	15
17	21	5
106	107	2
37	37	32
27	29	4
144	144	8
52	53	15
127	137	3
123	123	12
156	156	6
24	24	19
172	172	13
36	36	23
152	153	2
5	5	60
121	121	14
9	9	22
120	120	9
178	179	13
1	6	4
116	117	7
125	148	2
173	174	9
158	161	4
41	41	15
91	94	3
117	117	5
8	8	28
7	9	7
138	138	14
9	163	4
50	51	9
140	140	12
156	174	1
18	19	16
52	52	19
14	31	5
3	4	17
79	117	3
168	168	10
171	173	2
159	160	7
61	61	14
5	15	6
104	105	4
31	31	23
24	32	2
126	126	15
83	85	9
179	179	3
93	93	5
79	79	23
30	30	21
119	119	6
86	88	9
23	24	13
3	3	22
19	32	5
1	10	3
27	27	16
132	134	2
124	125	9
105	107	1
55	55	11
20	20	10
80	81	4
8	9	6
103	104	12
167	167	25
83	83	5
163	163	12
63	63	5
19	27	6
153	153	10
94	94	11
26	29	3
92	92	13
102	102	10
7	7	23
10	11	7
66	66	15
121	122	1
53	53	9
22	23	10
130	151	2
116	154	2
160	160	4
25	25	29
16	16	27
159	161	3
29	30	7
101	101	10
4	4	27
2	11	3
66	67	3
6	6	23
114	114	8
108	108	17
56	57	13
157	169	1
21	22	9
110	110	4
19	19	15
71	71	6
134	134	7
28	28	13
143	144	2
171	172	7
32	33	6
125	125	8
14	17	2
169	169	10
14	14	31
103	103	5
131	135	4
155	167	6
51	51	5
60	60	10
136	153	3
2	4	8
122	122	10
148	148	16
133	133	14
33	33	27
5	7	1
150	167	1
64	65	7
100	110	4
154	154	14
74	76	4
117	121	1
5	6	8
100	100	4
99	100	1
131	132	6
27	30	1
21	21	6
34	34	9
127	128	6
29	31	2
75	76	1
142	142	13
39	39	17
89	90	2
101	106	6
115	154	7
107	109	5
34	38	3
87	87	12
22	22	17
60	71	1
91	91	9
68	68	6
62	62	7
169	174	1
152	152	8
122	124	3
7	49	3
84	85	3
161	161	16
50	50	7
173	173	11
106	106	3
1	2	3
114	157	3
26	26	25
10	16	2
15	16	15
20	21	5
145	168	3
15	19	3
18	20	3
43	44	11
6	42	3
17	18	9
54	54	8
76	86	1
6	31	2
95	97	1
56	68	2
147	152	2
111	111	11
85	85	7
23	23	33
111	112	11
177	180	1
73	73	15
76	77	5
139	140	3
38	38	37
98	120	2
20	23	8
88	88	14
88	89	5
145	145	6
84	86	3
115	115	4
145	146	8
129	161	1
104	106	4
5	17	1
137	138	4
7	163	1
7	10	9
4	6	5
94	126	4
126	153	1
77	78	9
42	44	2
101	102	10
143	145	4
74	74	13
107	107	18
149	149	18
4	5	6
63	67	2
112	120	5
103	145	4
19	22	2
120	154	3
64	64	9
141	142	4
2	3	8
24	35	2
132	132	7
26	28	8
3	6	3
112	112	7
113	113	8
28	29	7
60	61	8
177	177	4
95	95	14
107	108	5
76	108	2
139	139	4
76	76	10
171	171	7
73	75	4
123	125	2
151	151	6
27	28	7
90	107	2
1	1	7
128	128	2
163	164	6
168	170	2
98	118	1
137	173	2
14	15	2
115	118	4
129	163	2
53	54	3
18	18	8
7	12	4
65	66	7
90	90	2
140	169	2
116	116	23
157	158	13
113	114	5
147	147	12
118	121	4
137	137	7
102	104	6
124	124	10
6	7	7
7	8	2
159	159	9
174	174	7
4	8	1
114	158	3
12	12	19
151	152	1
67	67	5
55	56	9
91	92	2
113	115	3
132	133	5
95	96	1
68	73	4
5	11	2
13	15	6
150	150	8
118	119	4
161	162	1
129	129	9
135	136	3
63	64	2
115	116	12
148	149	3
78	80	1
165	167	2
58	60	3
176	176	3
170	171	7
74	75	1
23	25	7
105	105	11
128	130	3
147	153	1
178	178	4
71	74	3
114	115	4
13	44	1
131	137	1
33	34	3
6	14	2
9	11	3
15	21	3
165	166	7
102	130	2
75	82	4
12	15	2
62	63	2
57	57	10
151	153	6
83	84	3
9	39	2
42	43	7
65	65	7
151	154	1
0	103	1
31	43	3
168	171	2
101	130	1
168	169	3
67	68	2
144	146	3
61	78	4
29	140	1
113	122	2
41	43	1
11	18	1
18	22	7
8	10	9
78	78	5
178	180	5
12	14	1
109	111	7
10	12	3
6	39	3
24	25	10
115	119	2
14	22	1
70	71	3
176	177	3
153	154	7
92	93	8
150	154	2
39	40	7
96	97	1
24	41	2
40	40	6
89	109	2
11	12	4
177	178	1
90	91	6
111	113	2
124	126	2
98	98	4
108	109	1
20	25	1
111	115	5
34	35	3
12	13	12
169	173	4
62	67	4
172	173	1
76	81	3
164	165	1
4	45	2
37	38	4
158	158	5
52	54	1
16	35	1
71	72	3
33	38	2
110	144	3
32	35	4
58	58	1
26	27	9
93	143	1
11	14	1
99	99	8
8	40	7
31	33	1
10	14	3
85	108	3
113	124	1
15	42	4
134	137	4
128	173	1
24	26	2
128	151	2
19	20	3
158	159	3
20	22	3
83	109	3
121	147	2
99	144	1
115	121	2
154	155	3
65	68	1
130	175	4
122	170	1
18	21	4
1	9	1
169	170	1
4	7	2
10	37	1
61	62	2
90	93	1
144	155	2
112	117	2
58	80	1
10	81	1
174	175	4
96	96	12
68	71	2
166	167	5
103	106	5
91	101	2
15	31	4
144	145	1
55	57	3
84	100	2
122	125	2
63	66	2
51	91	2
76	85	1
145	154	1
72	72	6
15	18	1
128	150	2
7	31	2
104	104	5
41	42	4
40	45	1
119	121	2
44	45	7
142	145	1
81	82	4
39	42	1
13	14	3
10	124	3
16	18	1
9	34	2
25	26	6
162	175	1
20	32	1
11	138	1
156	157	2
15	32	1
14	32	1
125	147	2
65	94	2
17	30	3
73	82	1
28	33	1
121	146	1
170	170	10
106	108	3
38	40	4
36	143	4
11	31	1
1	5	1
25	29	1
145	152	1
98	130	2
124	148	1
126	151	1
86	87	2
147	148	3
122	153	1
133	134	1
25	27	1
66	68	1
92	121	3
110	111	2
35	39	2
76	105	1
91	115	1
5	33	3
174	180	1
4	10	1
93	111	1
101	107	1
142	144	2
164	164	7
147	150	3
15	22	1
130	145	2
51	54	2
134	136	1
49	50	2
98	115	2
118	157	2
7	11	2
102	103	2
1	4	2
112	142	1
95	146	2
149	167	2
20	26	4
8	35	1
1	12	1
28	58	1
148	150	3
11	13	5
9	13	1
175	176	3
141	166	1
0	43	3
58	59	1
142	170	2
76	84	1
15	30	1
6	9	1
129	146	3
111	117	1
15	17	1
132	138	2
160	161	1
90	92	1
10	13	1
9	12	1
116	118	1
114	166	1
71	102	1
33	41	3
111	156	1
10	62	1
4	49	1
120	121	2
7	38	1
167	169	2
5	9	1
94	125	1
4	95	1
97	97	4
99	109	1
142	167	1
4	11	3
9	35	2
16	23	1
180	180	2
155	156	2
17	20	1
15	37	1
16	17	1
89	98	2
131	148	1
9	33	1
65	67	1
126	128	1
142	143	2
148	168	1
12	133	1
17	36	1
19	24	1
4	15	2
152	154	1
12	20	1
14	102	2
14	16	2
83	86	3
62	65	1
56	58	1
0	6	1
167	173	2
31	143	1
8	33	1
11	23	1
61	66	1
16	22	2
23	54	1
157	161	1
6	44	1
10	15	2
5	12	1
79	80	2
93	108	1
135	142	1
116	119	1
43	45	1
120	140	1
130	131	1
110	143	1
119	122	1
36	38	1
78	79	2
31	32	1
13	25	1
64	96	1
126	154	1
164	168	1
8	163	1
129	158	1
19	21	1
135	137	1
128	129	2
2	8	1
110	112	1
77	80	1
128	153	2
84	88	1
88	98	1
7	46	1
5	44	1
64	67	1
9	36	1
95	128	1
17	19	1
160	162	1
59	68	1
159	162	1
136	145	1
158	162	1
32	38	1
