2	2	15
11	14	2
132	132	3
8	9	7
8	8	10
49	49	17
121	121	19
4	4	16
55	58	4
115	116	11
26	109	2
41	41	17
81	82	6
38	39	1
75	75	11
23	41	3
1	111	1
102	128	2
95	95	2
93	93	19
59	59	13
13	17	6
53	53	9
39	94	1
6	6	5
88	88	9
65	66	5
102	118	4
109	109	10
57	109	2
14	15	5
39	40	4
130	131	3
77	77	9
116	116	11
106	106	15
9	9	3
26	26	16
100	103	4
92	92	19
133	133	2
123	123	9
76	76	8
78	78	6
34	97	3
52	53	6
71	107	1
126	129	2
62	62	10
52	52	15
79	103	3
66	66	11
94	94	11
79	79	11
104	104	15
123	132	2
122	122	6
127	128	9
93	97	1
31	31	19
108	108	6
28	28	4
102	109	2
83	83	5
27	27	14
57	57	6
110	110	7
24	24	16
114	114	12
33	33	5
30	30	13
90	90	3
73	74	1
129	131	6
106	107	1
26	27	5
50	110	2
40	43	2
12	12	5
97	119	5
29	33	1
32	40	3
29	29	4
4	61	1
106	116	3
100	120	1
112	112	11
125	125	12
68	68	6
70	71	4
89	89	10
120	120	17
62	89	5
74	74	11
61	62	11
107	112	3
86	95	7
22	22	5
51	122	1
103	103	5
19	123	1
102	102	12
60	85	1
80	106	5
10	10	10
15	15	10
39	39	11
0	72	4
124	132	1
43	43	10
115	115	4
25	26	3
7	7	14
64	65	1
131	131	11
121	122	2
118	118	6
84	85	4
48	48	6
4	15	2
94	95	3
48	49	5
126	126	11
11	12	1
77	80	3
80	91	5
73	73	8
75	76	7
96	96	1
16	16	8
44	83	4
105	105	6
0	0	14
72	72	2
67	116	1
98	98	4
61	61	6
5	5	9
78	79	3
77	102	2
127	127	11
69	69	5
44	44	15
18	19	2
51	53	2
3	3	10
33	34	1
88	89	6
70	70	6
38	38	2
23	28	2
91	91	4
129	129	3
63	80	2
99	99	6
25	42	6
1	64	2
86	88	2
67	67	9
40	40	6
65	65	3
51	51	11
39	101	1
91	119	1
90	91	2
93	94	1
101	101	7
47	47	9
85	85	14
100	123	1
42	42	6
66	67	2
109	110	8
117	117	5
27	123	7
85	110	2
104	114	2
81	91	1
74	75	6
116	118	2
124	124	2
102	103	1
23	33	4
102	133	1
42	43	3
13	13	12
101	114	4
17	25	1
0	1	7
67	104	4
25	112	4
10	12	3
32	33	6
74	78	1
45	45	15
17	17	6
15	24	2
84	84	4
83	84	4
13	14	3
107	107	11
82	82	5
50	50	11
59	68	3
54	55	2
47	48	1
65	118	3
111	113	3
114	117	2
69	94	2
37	37	2
63	91	2
113	113	10
18	24	1
4	5	3
39	98	1
56	57	3
23	90	4
62	103	2
21	52	1
120	121	2
96	117	3
80	131	1
77	97	2
107	108	2
60	107	3
40	41	2
72	73	6
81	83	3
18	54	4
34	34	2
28	29	2
87	133	1
83	108	3
29	115	1
14	14	3
60	65	1
1	1	5
2	5	3
46	95	2
113	114	3
97	98	5
128	129	7
40	99	1
79	102	3
77	110	2
16	19	3
17	18	5
109	133	3
26	119	2
75	78	3
21	21	5
73	78	3
72	129	2
46	46	7
119	119	5
21	81	1
0	38	2
100	100	3
13	95	1
5	7	2
124	129	2
60	60	5
101	120	1
23	24	1
26	99	1
67	130	1
42	45	2
28	48	2
40	68	3
46	47	3
27	133	1
39	68	1
31	32	4
83	111	1
81	98	2
129	130	1
3	5	2
64	121	1
2	6	4
33	44	2
105	106	1
54	54	5
84	128	1
118	119	3
25	90	1
128	128	9
116	117	1
111	129	1
130	130	3
55	55	1
89	90	2
61	87	1
11	25	1
107	118	3
50	51	3
62	88	1
103	118	1
63	63	2
76	78	4
32	32	1
97	97	3
58	66	4
111	111	3
43	66	1
86	87	3
1	2	1
8	10	2
71	72	4
55	119	1
59	60	1
99	101	2
86	86	1
90	103	1
52	70	4
79	80	2
53	69	2
78	128	1
99	109	1
50	57	1
38	58	1
83	128	1
23	23	3
73	82	1
96	97	3
11	11	2
66	74	1
123	124	2
74	130	1
54	116	2
92	93	1
18	26	1
92	119	1
56	56	3
0	7	1
27	32	2
49	53	1
34	72	2
14	21	1
9	11	3
67	119	1
75	92	1
80	81	2
54	106	2
84	129	1
123	125	3
68	79	1
59	91	1
76	81	1
18	18	1
61	89	1
104	105	1
20	20	2
58	58	1
38	51	2
64	64	2
113	116	2
108	109	1
19	19	1
13	96	1
71	71	2
87	87	1
15	63	1
13	16	1
22	96	1
12	95	1
41	42	1
94	109	1
48	54	1
59	67	2
26	125	1
44	45	2
56	81	1
31	69	1
57	58	1
90	101	1
68	73	1
9	10	1
39	52	1
119	127	1
20	32	1
42	100	1
80	107	1
3	17	1
79	130	1
25	25	1
21	22	1
53	106	1
