61	62	18
25	25	30
70	70	35
55	55	41
28	29	9
67	67	53
5	5	32
0	0	26
49	51	7
54	54	27
86	86	31
74	74	29
58	58	36
15	15	30
79	79	25
56	56	44
2	2	39
78	78	11
3	3	49
23	24	10
72	73	18
24	25	9
4	4	25
88	89	7
65	65	18
13	13	45
7	7	19
66	67	10
85	85	43
1	1	37
68	68	41
88	88	24
10	10	41
27	27	23
57	57	29
13	14	3
22	22	29
59	59	29
76	84	3
89	89	39
84	84	30
1	68	1
34	34	13
50	52	5
73	73	32
58	66	3
26	26	24
56	57	18
85	87	2
60	61	10
60	60	33
19	19	21
8	8	21
30	30	30
75	75	37
10	24	2
61	63	3
11	11	49
76	77	14
55	56	7
69	69	30
24	24	31
52	52	29
16	17	5
81	81	26
65	66	9
56	71	2
29	29	23
77	77	31
15	24	1
80	82	1
83	83	17
86	87	11
72	72	33
82	83	11
80	80	59
8	9	13
14	14	14
66	66	23
20	20	14
53	54	12
64	65	1
61	61	17
6	9	2
8	26	3
81	82	10
10	12	4
54	67	3
76	76	22
67	68	11
15	16	7
62	62	12
52	53	9
64	64	27
59	61	3
6	6	26
69	70	7
71	71	21
0	1	5
51	51	12
49	82	5
29	66	4
17	17	16
19	31	2
59	64	4
54	55	9
0	2	2
67	74	1
59	60	11
5	13	4
12	13	9
47	47	30
18	18	8
0	4	2
75	80	2
78	79	6
77	78	3
48	51	4
62	63	7
87	88	8
21	21	9
57	58	20
62	65	6
53	55	5
50	51	4
80	81	12
48	72	1
30	31	4
47	48	5
68	69	11
62	64	6
82	82	25
5	6	12
15	20	2
85	86	3
28	28	21
49	50	12
25	26	7
22	23	9
21	22	6
9	10	18
79	83	2
51	52	17
52	63	1
87	87	34
69	71	2
49	61	6
23	27	6
79	80	18
50	50	19
84	85	6
23	23	25
49	49	17
57	75	4
31	31	29
62	81	1
2	3	3
6	7	9
7	13	3
13	26	3
52	54	3
63	65	8
31	62	5
48	53	1
4	58	1
3	15	1
63	63	14
53	53	20
63	64	7
5	8	2
0	3	3
58	78	2
51	53	2
2	22	1
82	84	3
12	12	18
54	81	2
49	60	1
12	22	6
54	56	3
48	48	12
75	84	1
8	20	2
60	62	3
48	49	5
11	12	3
61	72	4
8	10	5
48	61	6
58	71	2
56	68	3
49	65	3
6	18	4
77	80	4
58	75	5
55	85	2
50	66	4
66	78	2
55	78	3
58	62	1
24	27	2
18	32	1
81	83	4
3	57	2
63	66	5
11	19	2
48	64	1
70	86	1
19	20	6
67	81	1
35	35	2
14	27	2
75	76	1
30	66	1
16	16	5
61	64	5
1	22	1
27	46	2
14	24	3
68	84	1
71	74	3
46	47	4
68	82	2
26	51	1
80	84	7
49	63	1
70	71	4
70	72	5
10	25	2
55	79	3
69	86	2
55	58	2
59	62	3
89	90	6
59	65	5
5	12	1
60	63	3
27	28	3
66	69	2
7	9	2
1	2	11
73	74	1
16	25	3
25	57	1
50	57	5
17	19	1
60	64	2
31	76	1
9	9	8
11	25	1
90	90	3
32	33	3
6	50	1
4	11	4
9	14	1
58	82	1
12	18	1
3	4	3
47	60	2
85	88	7
75	81	1
47	49	1
5	11	3
4	15	1
20	21	2
27	54	3
71	72	3
7	27	2
56	84	1
73	78	3
19	64	1
80	83	1
56	74	2
2	57	1
9	81	1
74	80	4
49	52	1
47	67	1
55	57	2
46	46	4
10	50	1
11	15	3
57	67	1
16	28	2
10	27	2
10	11	1
34	48	1
59	74	1
16	24	4
61	76	2
3	22	3
33	51	2
9	12	1
4	19	3
58	59	1
17	56	1
9	19	2
78	80	3
23	28	3
16	19	2
21	67	1
62	66	1
66	73	2
48	62	1
50	54	2
74	75	3
5	19	1
3	55	1
11	24	1
52	59	2
51	63	1
25	27	2
47	72	1
3	23	1
7	26	1
55	71	2
50	65	2
17	18	2
47	61	1
29	89	1
69	89	1
86	88	1
7	23	2
63	80	1
66	81	1
47	76	1
68	87	1
26	52	1
58	60	1
6	10	1
65	73	1
34	35	1
66	71	2
28	30	2
10	14	1
5	18	1
7	8	2
4	5	1
31	50	1
29	30	1
32	32	1
17	58	2
81	84	1
