112	112	3
96	96	3
44	45	8
35	35	13
52	52	7
88	88	17
151	153	4
69	70	5
51	65	2
42	43	7
73	106	2
94	94	16
1	1	21
3	3	8
135	136	5
80	84	3
144	145	7
113	113	12
121	122	11
50	65	2
46	48	1
90	90	14
7	11	4
124	124	12
67	67	13
31	31	11
132	133	9
78	78	15
2	2	5
52	53	10
37	37	3
7	150	1
45	46	10
92	95	2
83	84	5
30	30	5
40	41	15
80	81	9
38	53	2
42	42	11
131	132	3
22	31	6
66	67	2
18	18	8
4	5	6
12	12	6
47	102	1
141	145	2
101	133	1
57	57	5
127	127	14
103	103	13
138	139	16
24	24	22
149	150	8
51	51	14
46	46	14
34	34	15
18	19	9
157	157	8
27	27	9
102	104	6
86	87	10
158	158	9
114	117	4
128	129	9
77	78	11
44	44	14
155	155	5
93	95	5
47	47	9
151	152	4
28	28	9
7	7	13
134	134	5
17	18	3
53	64	3
93	97	2
16	16	21
102	102	3
26	26	11
132	132	20
93	93	18
144	144	5
117	117	14
100	100	11
82	82	8
116	129	5
19	20	12
32	34	3
116	118	2
91	91	8
7	8	6
126	127	4
92	96	3
63	64	3
77	77	12
128	128	9
155	156	5
142	142	4
85	85	10
32	32	11
92	92	8
115	115	12
137	137	7
126	126	5
6	6	5
110	123	4
136	138	3
5	5	5
140	140	5
133	133	13
130	131	10
98	98	13
111	113	1
84	85	3
80	80	13
114	114	5
44	97	7
131	131	11
8	8	14
12	17	2
81	84	3
55	55	5
95	96	6
40	43	1
25	26	4
50	50	5
62	63	3
20	117	4
81	81	18
68	68	6
17	17	7
111	112	1
2	148	3
67	69	5
51	52	6
53	53	8
33	34	6
65	65	4
113	158	2
24	25	3
143	143	3
25	27	6
112	116	2
26	27	2
12	24	3
111	157	1
150	153	4
136	136	6
101	101	6
83	83	12
114	115	5
21	21	3
151	151	7
142	145	4
123	123	11
12	23	6
36	36	12
87	88	2
140	141	8
125	125	7
15	15	6
129	129	6
43	43	5
79	80	6
107	108	4
109	109	2
115	116	5
117	132	1
99	100	1
63	63	6
134	137	3
118	120	1
135	135	3
23	24	5
111	111	10
4	4	6
37	54	1
75	75	6
24	32	3
139	139	17
9	9	6
118	118	4
154	154	6
41	41	7
62	62	3
31	34	2
19	19	3
150	150	7
120	120	11
104	123	3
127	139	1
81	92	1
121	148	1
16	18	1
14	16	6
153	155	3
25	31	2
25	25	9
103	148	2
116	116	12
0	0	6
95	95	9
148	148	8
17	22	6
37	38	5
153	153	2
15	16	4
133	134	2
71	92	1
16	46	2
86	86	5
125	126	4
147	147	9
23	23	9
38	38	1
145	148	2
9	12	5
24	29	3
138	138	7
29	29	1
55	56	2
79	79	5
15	45	2
135	137	7
7	43	1
89	89	5
125	127	3
97	97	8
95	111	1
127	128	4
87	87	3
39	40	1
114	118	4
73	73	4
33	42	1
45	45	1
48	49	2
143	157	3
110	110	5
49	49	8
106	106	6
76	76	11
81	82	4
129	131	4
75	77	5
68	69	1
152	152	8
151	154	1
8	10	3
48	117	2
113	114	2
110	144	2
100	101	3
67	68	4
82	90	5
32	36	2
112	133	3
123	124	4
21	117	2
145	145	1
113	115	4
34	36	1
14	15	6
20	22	3
21	22	2
55	71	2
49	67	2
64	71	1
23	30	3
30	31	3
46	92	2
46	53	3
31	32	2
49	71	4
38	42	1
75	97	1
48	72	1
105	105	2
66	73	1
141	143	3
8	9	2
104	104	8
29	33	2
0	1	3
32	33	5
108	109	2
130	130	3
3	35	1
22	22	5
2	3	2
131	148	2
46	71	1
109	110	2
116	117	2
92	93	2
120	140	1
33	33	4
122	122	7
130	134	1
131	153	3
134	139	3
22	23	1
36	37	1
123	125	1
54	54	1
41	67	1
19	22	2
156	156	1
4	32	2
153	154	5
77	85	2
80	88	2
110	111	1
78	81	2
4	31	1
51	117	2
72	73	4
78	82	1
94	95	3
104	106	3
146	146	2
63	66	3
115	121	3
96	97	1
71	72	1
41	42	3
142	155	1
56	56	8
52	54	2
74	146	2
45	47	3
48	48	5
47	50	1
131	133	1
54	55	3
103	121	3
99	99	2
10	10	2
112	135	3
152	153	1
70	71	7
75	76	1
139	141	2
128	134	3
71	71	2
23	66	1
39	39	9
22	30	1
148	157	4
135	138	3
93	111	1
141	141	5
105	106	1
66	66	1
27	29	1
46	47	6
119	121	1
13	13	6
31	65	2
142	143	1
20	20	6
142	157	1
130	145	3
82	88	1
129	130	4
36	54	2
38	88	1
119	120	1
120	121	1
29	31	1
3	4	2
37	53	2
34	35	3
0	129	1
29	30	1
18	20	1
116	146	2
26	152	2
118	130	1
110	115	2
129	132	2
84	84	4
137	138	3
124	137	1
87	92	2
5	6	2
17	47	3
157	158	4
100	102	1
73	107	2
118	119	1
64	64	1
57	62	1
14	14	1
27	28	1
151	156	2
23	149	1
122	123	1
85	92	1
48	66	1
19	145	1
115	120	2
124	125	1
104	105	2
90	91	1
113	120	1
143	144	1
93	94	1
149	149	1
20	21	1
106	127	1
24	36	1
52	56	1
53	54	1
139	140	2
133	135	1
20	47	1
119	119	1
3	34	2
40	40	2
134	135	1
9	10	1
136	137	1
50	51	1
36	38	1
17	33	2
109	112	1
14	17	1
134	153	1
107	107	1
66	69	1
105	124	1
