98	98	4
81	81	8
29	29	6
46	46	3
103	103	9
86	86	13
101	105	2
52	52	9
71	71	11
54	54	4
44	44	10
96	96	7
76	77	4
48	48	11
68	68	12
64	74	4
78	92	2
51	52	8
91	91	6
60	60	11
63	63	3
92	92	7
47	106	3
30	30	8
22	22	4
86	88	3
76	76	6
55	55	7
87	87	3
90	99	3
102	102	9
62	63	5
77	78	2
31	31	8
97	99	5
42	44	5
83	84	3
48	49	3
70	70	10
39	42	1
65	84	1
104	104	12
85	85	10
96	99	5
47	48	3
56	56	4
89	90	1
63	64	2
59	59	9
83	83	4
75	76	2
39	39	3
65	66	3
74	74	5
81	84	2
22	31	3
42	42	3
33	48	4
21	21	9
27	27	6
23	61	1
50	73	5
100	100	8
32	32	3
28	28	4
88	90	2
26	27	1
91	92	2
34	50	3
88	88	3
41	41	3
38	39	4
25	25	9
99	100	1
79	81	4
92	101	5
79	79	3
80	80	6
82	83	2
64	65	1
69	69	7
23	23	3
89	89	3
106	107	4
97	98	3
46	48	1
47	47	6
30	44	4
55	75	3
24	24	6
35	36	1
21	55	4
61	61	4
50	50	8
57	58	2
66	66	10
20	58	1
38	56	1
40	57	3
90	91	2
21	75	2
34	34	3
89	99	2
94	95	1
31	32	2
43	70	1
82	96	2
61	62	3
95	95	3
51	51	6
79	86	1
45	45	4
66	83	1
90	90	4
62	62	5
70	77	1
95	99	4
78	78	6
40	40	5
49	49	2
40	42	3
25	26	2
105	105	3
30	33	1
82	82	6
39	45	2
36	36	7
25	37	4
37	37	7
88	99	1
78	79	4
41	70	1
32	51	2
22	46	2
56	57	2
29	30	1
25	44	1
86	90	3
53	55	2
65	65	5
84	85	3
33	59	2
58	71	1
55	56	1
21	74	2
45	71	1
33	70	1
82	86	1
26	40	2
22	27	1
31	38	2
36	37	2
56	58	3
43	47	1
67	67	4
57	90	1
24	37	1
24	61	1
91	100	2
64	64	5
58	90	1
21	53	2
26	26	4
52	75	2
50	65	4
45	46	5
39	46	1
20	21	1
27	30	1
73	73	4
77	92	2
45	50	1
51	75	1
53	53	2
64	68	1
72	72	1
83	85	4
71	72	1
99	99	4
24	36	1
84	84	3
50	80	1
93	93	1
44	45	1
93	95	1
65	85	1
40	46	4
58	84	1
52	105	1
94	94	2
75	75	3
49	61	2
27	28	1
87	94	1
81	88	2
35	47	1
32	59	1
27	53	1
104	105	1
87	88	2
66	95	1
38	38	3
32	105	1
92	100	2
79	80	1
97	97	3
61	100	1
84	97	2
46	71	1
47	49	1
21	52	1
93	94	1
24	48	1
33	33	2
43	44	3
42	43	1
23	77	1
29	37	1
68	70	1
55	100	1
77	77	1
40	45	1
58	59	2
91	102	1
22	106	1
60	70	1
69	73	1
78	87	1
23	55	1
98	99	1
