78	117	1
36	37	5
112	113	14
99	122	9
164	182	3
183	183	1
227	227	7
35	35	3
51	51	4
107	107	3
198	199	1
188	199	3
107	167	2
70	71	3
80	81	1
77	78	5
60	80	3
30	30	4
101	101	3
188	189	5
83	90	1
226	226	9
20	20	8
76	76	5
17	18	3
233	233	7
2	205	4
114	158	2
187	221	5
217	221	2
98	101	7
219	238	2
73	74	8
54	54	4
223	224	7
96	121	5
64	64	13
7	7	12
55	55	7
232	233	4
213	218	2
25	26	2
82	82	2
50	63	5
13	13	7
21	21	13
100	100	5
139	139	5
10	10	5
102	112	5
175	175	7
28	175	1
171	217	1
7	29	2
157	157	8
140	140	3
100	102	5
18	18	7
131	131	2
64	84	7
180	183	5
238	238	3
116	116	1
50	68	1
103	103	7
134	168	1
69	69	11
70	70	5
130	130	9
22	23	2
128	128	5
231	231	3
66	66	4
51	52	5
17	33	2
36	36	5
26	26	1
1	1	5
149	155	5
102	109	3
113	113	4
43	86	1
214	214	5
189	190	1
129	129	2
216	216	4
3	3	5
20	21	2
46	46	2
222	239	1
235	235	3
29	29	11
8	8	9
113	121	1
208	208	3
64	65	3
10	11	2
118	118	2
101	109	3
28	28	7
177	177	2
50	67	1
81	81	4
6	6	2
143	143	1
155	155	2
103	107	7
25	25	5
229	234	1
204	206	3
41	41	4
227	228	3
14	21	2
33	59	1
45	47	3
58	58	4
59	59	1
217	218	6
21	23	2
206	206	2
224	225	4
198	198	4
49	59	1
44	47	3
49	49	5
107	123	3
86	173	1
34	34	2
239	239	4
38	39	4
2	16	2
188	190	4
196	196	2
6	29	4
116	145	3
51	62	1
3	30	2
209	210	5
151	151	8
89	99	5
210	212	3
31	32	6
22	33	2
134	134	4
59	76	4
48	61	1
220	220	3
75	81	3
82	119	3
16	207	2
160	160	2
38	45	1
12	12	1
86	86	3
235	242	2
69	133	2
193	199	4
82	83	8
156	156	3
71	72	4
44	44	1
2	31	4
144	145	2
159	177	7
130	166	4
74	82	5
8	20	2
139	142	1
203	204	2
96	96	2
104	104	2
206	233	2
123	137	3
187	187	5
213	215	4
0	20	1
138	139	1
79	79	1
10	151	4
32	39	1
133	172	1
77	118	6
115	120	2
24	24	6
201	203	4
5	13	4
40	41	8
139	140	1
42	219	5
32	32	5
164	164	3
62	75	3
207	234	2
85	85	6
164	166	1
145	146	2
109	109	1
79	115	1
53	53	1
211	211	7
207	207	4
10	26	2
174	174	1
65	65	1
76	78	1
228	228	6
150	151	4
30	32	2
182	182	3
18	48	1
210	210	1
119	119	6
34	40	3
207	232	2
61	61	2
176	176	6
171	171	3
37	37	9
100	106	5
56	56	9
124	125	3
52	52	3
2	18	1
116	117	6
8	22	2
86	88	3
38	48	2
105	105	4
98	122	1
172	172	4
219	223	1
48	69	2
12	34	1
173	174	1
32	38	1
148	148	2
102	121	2
80	155	2
199	199	3
5	5	3
126	126	1
222	222	5
38	38	7
6	12	2
5	15	1
51	53	4
138	138	5
59	60	3
102	102	1
234	234	5
217	217	7
128	129	1
136	136	4
95	98	1
22	22	2
153	154	2
107	129	2
43	43	1
193	193	2
134	135	11
157	184	1
54	74	1
33	34	3
59	62	1
84	84	4
164	179	1
0	18	2
219	242	1
99	99	2
62	63	1
17	42	1
77	122	1
67	67	1
212	213	3
78	158	3
80	80	6
59	79	2
197	198	2
33	197	1
161	191	2
44	220	2
3	11	1
4	6	3
232	232	3
57	58	2
162	169	1
100	105	3
147	147	3
3	8	7
149	151	3
76	139	2
2	207	1
133	133	3
61	99	1
7	12	4
74	75	4
178	178	2
152	153	1
208	212	1
170	171	6
79	107	1
98	99	2
205	206	1
48	48	3
106	106	8
233	234	3
20	50	1
122	122	3
80	98	1
80	82	1
26	27	1
39	49	1
37	38	7
187	188	1
16	16	1
66	67	1
13	14	1
224	224	1
27	27	10
74	74	1
174	177	1
0	0	7
42	42	1
86	87	1
118	127	1
11	11	3
26	148	2
76	83	6
119	120	1
110	135	1
180	184	1
63	63	5
65	67	1
158	158	3
241	241	2
78	83	2
163	163	1
157	169	1
144	144	3
152	152	6
235	237	2
192	192	3
240	240	1
59	81	1
33	33	2
218	218	7
157	159	1
213	213	4
60	60	1
53	57	1
228	230	1
221	221	4
199	214	3
170	176	1
203	203	1
4	4	1
4	31	1
229	229	1
35	36	2
4	33	4
101	102	2
150	150	6
120	120	1
47	47	2
241	242	1
141	141	3
159	161	2
140	141	1
60	98	1
218	236	1
4	5	2
82	153	1
43	45	2
88	88	1
108	108	2
42	43	1
31	41	1
168	168	2
72	72	3
77	77	3
144	154	2
215	215	2
79	81	2
237	237	4
223	223	1
13	15	2
111	112	1
185	197	1
156	218	3
11	30	1
197	197	3
67	118	1
97	98	2
71	71	2
31	43	4
100	130	2
91	119	1
7	8	1
89	122	1
81	84	2
97	97	1
77	149	1
242	242	1
180	182	1
78	79	1
55	61	2
194	219	2
225	225	2
177	180	2
108	116	3
32	37	1
128	176	1
184	184	2
41	42	1
26	75	1
204	234	1
23	23	1
7	31	2
31	31	3
78	78	2
21	56	2
48	85	1
103	115	1
108	123	1
75	96	1
18	41	2
136	137	1
24	29	1
63	69	1
204	204	1
161	161	2
81	100	1
163	169	1
125	125	1
115	117	1
200	200	1
100	133	1
14	22	1
18	21	1
50	56	1
39	39	1
34	36	1
2	3	1
208	223	1
12	14	1
236	236	2
195	195	1
143	181	1
48	62	1
120	136	1
16	18	1
146	146	1
210	223	1
75	100	1
84	139	1
201	202	1
1	14	1
