106	114	1
118	119	5
75	75	14
119	119	16
129	133	5
122	122	8
55	56	1
132	133	13
0	1	4
72	72	20
88	88	10
55	55	10
95	113	4
104	104	22
76	76	24
117	117	13
121	125	3
97	122	4
10	10	7
24	25	10
95	95	9
125	126	7
31	31	14
92	92	16
85	111	8
79	80	5
123	125	5
109	114	3
113	113	6
101	102	8
52	54	6
108	108	17
82	82	6
78	78	9
85	95	5
8	8	14
26	26	14
60	60	6
65	67	1
73	73	11
43	43	12
70	71	3
78	83	5
44	51	2
1	1	10
119	120	16
31	73	6
69	71	5
100	106	2
113	115	3
126	129	4
109	109	13
19	21	2
24	27	5
28	28	14
69	70	3
49	49	9
19	31	6
4	4	2
70	70	7
115	115	9
114	114	16
102	102	15
107	108	8
111	111	26
97	98	3
57	57	4
34	34	6
88	125	4
64	66	3
23	23	6
21	25	5
112	112	20
4	5	1
18	18	8
124	125	6
63	64	6
88	89	4
87	87	6
110	110	16
83	86	3
83	84	17
101	101	20
13	13	11
65	66	7
57	59	2
102	104	1
69	79	3
126	126	12
133	134	2
96	114	1
129	129	5
121	121	14
131	131	9
106	106	7
82	84	1
90	92	2
16	16	14
125	125	14
129	130	8
86	86	13
22	22	12
37	39	1
22	34	4
83	83	13
67	67	11
100	108	2
17	34	4
43	45	3
57	58	4
24	24	4
92	93	1
35	36	2
118	118	12
103	103	8
85	85	13
3	3	5
80	115	5
20	20	12
110	111	8
48	48	13
97	97	17
90	90	7
105	105	16
28	29	12
112	113	4
128	131	4
50	50	7
81	81	6
73	125	1
68	68	9
50	56	2
95	96	8
66	78	1
62	62	18
20	21	8
31	32	1
11	14	1
31	81	2
92	94	2
104	105	6
33	33	13
52	52	11
60	82	3
61	62	7
91	91	7
57	61	1
33	34	7
3	34	4
91	92	5
84	88	5
116	118	3
98	98	13
2	27	2
53	53	9
66	66	14
15	15	4
102	115	2
49	50	12
127	128	7
45	45	12
9	10	7
80	80	16
79	79	13
84	84	9
108	109	3
111	112	1
123	123	13
38	38	8
44	44	16
44	45	3
91	105	2
69	69	11
117	119	4
71	71	3
100	115	3
100	100	5
7	7	10
98	122	4
127	129	3
58	59	7
58	58	3
92	98	1
17	17	7
54	55	6
116	116	10
116	117	11
14	14	13
33	35	4
122	123	3
52	53	11
0	2	6
133	133	6
90	91	6
11	26	3
2	3	4
1	3	1
32	32	8
35	73	2
27	28	6
12	13	3
99	99	17
110	114	3
80	86	2
27	27	2
26	90	2
74	75	1
1	38	1
113	117	1
74	74	4
75	76	1
20	23	2
63	63	3
78	102	4
6	8	1
106	107	3
94	94	9
61	61	8
131	132	3
112	114	1
134	134	17
95	97	3
112	132	2
80	81	6
46	51	1
36	36	2
50	52	3
121	130	1
11	11	3
6	11	2
126	127	10
63	65	2
80	85	4
93	94	5
47	51	2
94	126	3
31	75	3
43	44	7
5	5	10
77	78	9
76	77	3
117	118	7
62	64	5
29	29	7
65	78	3
62	63	9
124	124	14
105	106	3
49	52	3
54	57	2
87	100	2
64	64	9
36	44	2
45	51	2
19	19	8
112	115	5
45	48	1
100	101	2
38	80	1
56	56	5
26	27	1
6	6	6
130	131	4
31	79	2
121	123	4
21	21	5
21	23	1
114	115	6
72	73	1
60	61	4
135	135	4
38	70	3
45	47	1
47	47	3
128	128	5
119	121	2
14	15	3
9	11	1
80	96	3
120	120	7
127	127	6
69	84	2
82	85	2
101	116	4
50	54	2
2	2	6
30	34	4
130	133	5
99	122	3
130	130	6
104	108	1
65	65	8
96	96	7
103	107	5
59	60	4
8	11	1
93	93	10
59	66	3
22	23	2
107	118	4
132	132	6
10	11	1
98	99	4
58	111	3
25	25	4
20	83	2
3	45	1
27	103	1
132	134	4
94	123	2
19	82	1
38	44	4
37	37	3
90	119	2
66	67	2
42	44	1
87	124	1
25	122	3
115	121	2
87	88	3
86	97	2
12	12	3
77	77	6
91	97	1
84	100	6
107	111	3
32	33	5
106	110	1
80	97	3
66	68	3
19	20	4
133	135	2
92	97	2
14	26	1
16	98	2
20	91	3
73	74	2
120	121	1
107	117	1
13	15	1
113	134	1
107	107	2
92	96	1
16	97	1
62	66	2
42	45	1
50	55	1
59	59	7
8	9	1
116	119	1
100	102	1
71	72	2
85	86	1
98	114	2
91	93	2
16	17	3
123	134	2
104	124	1
6	7	4
30	30	1
42	42	2
68	78	2
89	90	3
84	85	1
3	73	1
122	125	1
113	114	1
54	54	5
15	35	4
64	65	1
42	43	4
99	114	1
71	73	1
23	24	2
78	82	2
96	98	3
2	43	1
3	4	2
86	87	2
87	121	4
17	18	1
0	0	2
94	95	2
94	98	2
30	31	1
109	111	1
29	30	1
131	133	3
70	77	1
60	90	2
110	117	3
86	121	2
28	71	1
84	106	1
3	5	1
101	104	1
96	97	1
58	60	2
9	9	1
103	104	1
19	87	2
66	83	1
60	91	1
95	98	1
23	126	1
16	20	1
78	80	1
83	85	1
102	111	1
99	121	1
125	127	1
26	124	1
56	82	1
121	122	1
69	76	1
77	79	1
68	69	1
19	110	1
67	77	1
129	131	1
74	76	1
