119	119	6
32	32	6
210	210	5
15	21	6
186	187	3
45	45	10
40	42	5
59	59	14
25	25	7
181	181	7
3	3	10
145	145	16
6	6	6
166	170	3
127	127	5
39	42	1
150	152	2
227	227	3
4	14	4
220	220	5
3	14	3
84	84	19
165	166	2
183	184	4
111	112	1
155	156	4
163	169	3
7	8	2
219	219	10
6	13	6
66	67	7
35	37	2
152	152	8
24	24	11
31	31	8
231	231	8
70	71	7
176	176	3
204	204	9
212	212	15
19	20	3
237	237	9
195	196	3
80	80	9
9	9	10
26	26	11
86	86	14
173	174	5
27	27	12
59	60	11
69	71	2
197	198	2
17	17	9
115	115	6
169	169	14
189	189	6
184	184	5
0	64	2
5	6	6
193	194	2
156	158	4
53	54	4
40	40	7
193	193	4
211	212	12
158	159	2
61	62	7
56	56	13
221	221	12
207	207	7
182	194	8
74	75	4
118	118	15
230	230	7
100	127	4
11	25	2
17	18	13
170	170	8
205	206	4
0	0	13
236	240	7
38	39	2
15	15	10
65	65	6
73	73	8
123	124	1
111	111	9
133	133	5
20	20	7
163	166	3
73	74	1
187	187	7
188	189	13
211	215	3
109	158	4
37	37	9
11	11	7
239	241	4
68	69	5
168	168	13
99	99	6
78	79	10
236	236	12
40	41	3
141	143	3
46	46	15
12	12	13
64	64	7
180	180	8
16	16	4
43	43	10
8	8	3
203	203	14
197	197	4
70	70	4
231	232	3
72	73	4
88	88	5
182	182	3
23	23	4
45	46	3
226	227	5
176	177	2
207	208	6
55	55	7
108	114	4
225	227	1
53	53	10
30	30	8
76	76	10
149	149	3
39	45	3
122	122	2
80	81	5
222	222	5
104	106	8
141	141	3
167	167	7
56	184	1
190	190	6
168	189	2
163	199	5
160	160	6
211	213	3
161	161	3
130	130	3
4	79	3
17	48	3
168	188	2
223	223	2
14	116	5
201	202	3
120	120	6
124	125	7
79	80	3
1	1	6
192	192	6
65	99	1
98	100	1
138	138	9
159	159	3
188	190	4
49	105	1
135	137	1
153	153	2
39	39	7
148	149	4
202	202	11
165	169	1
224	230	2
21	22	7
2	4	4
50	52	3
234	234	7
105	105	7
69	69	6
7	7	16
241	241	14
34	34	10
140	140	4
102	102	6
96	96	7
19	34	2
134	134	10
162	162	3
127	128	5
128	128	7
181	182	2
178	178	15
71	72	1
136	139	3
54	54	7
107	171	7
48	53	5
10	10	8
4	11	6
52	52	5
42	42	9
139	143	4
147	147	5
190	191	3
141	142	6
183	186	6
183	183	6
29	29	10
61	61	7
140	142	7
19	19	14
114	114	3
121	121	4
81	81	6
221	223	2
159	160	3
240	242	3
196	196	1
218	220	2
218	222	1
42	45	1
64	66	1
51	53	3
48	80	4
166	166	4
190	197	1
131	131	7
58	78	1
67	67	10
7	115	1
57	58	6
32	33	4
203	204	2
154	154	5
126	130	3
212	213	2
62	62	12
218	223	5
39	40	2
121	122	5
235	235	4
82	84	9
146	146	5
1	2	6
82	82	6
111	113	4
209	210	6
215	218	5
77	77	2
97	97	13
210	212	5
57	57	7
12	48	2
14	115	2
111	121	2
2	2	14
89	89	1
58	61	3
52	53	9
188	188	6
101	101	7
24	25	5
209	209	6
33	38	3
36	36	3
134	135	9
83	83	3
4	5	6
102	103	6
44	44	5
9	10	2
206	207	1
36	40	4
144	147	2
148	152	4
165	198	2
41	41	9
18	19	4
74	74	6
157	190	3
21	35	4
50	53	3
107	119	4
163	188	1
153	157	2
44	179	2
225	225	5
2	3	2
14	21	2
0	1	2
28	28	6
80	82	2
47	47	4
51	51	3
28	225	3
84	85	1
31	39	1
6	7	4
98	98	2
191	191	6
58	58	8
66	69	2
78	78	6
186	186	7
109	112	1
200	201	2
26	74	1
39	43	4
151	151	1
142	142	3
123	123	7
222	223	1
31	41	1
68	68	6
230	231	4
50	50	4
10	11	3
5	7	3
125	125	1
49	49	6
56	57	7
205	205	7
138	139	2
143	143	6
174	181	5
96	97	1
18	18	3
48	48	6
192	198	1
192	193	3
191	194	3
233	234	3
178	179	1
216	217	1
79	79	5
213	213	8
140	141	2
108	108	4
25	26	1
63	63	5
13	14	4
214	214	4
224	224	3
34	35	4
211	211	6
156	157	4
136	136	5
13	13	7
63	64	3
174	174	6
21	23	1
219	220	6
62	99	1
43	45	1
111	115	1
106	106	5
60	60	1
186	194	2
17	115	2
216	216	4
195	195	1
200	200	2
120	121	2
43	44	4
54	55	2
116	116	6
234	235	3
22	35	3
41	227	1
35	35	3
45	59	2
12	51	1
204	205	3
129	129	3
222	230	1
117	117	5
33	33	2
4	13	2
56	75	3
72	72	6
109	109	3
223	224	1
75	75	6
25	47	1
150	150	3
4	118	1
229	230	1
179	204	1
171	172	2
77	78	4
161	162	2
0	46	3
184	185	1
108	161	3
117	118	1
34	36	7
30	31	1
125	126	1
37	39	1
21	49	3
33	36	2
108	116	1
31	34	2
136	137	4
11	51	4
107	107	1
125	127	1
194	198	2
7	9	3
8	11	1
134	136	3
155	155	3
21	21	2
241	242	4
8	102	2
215	216	2
21	34	3
133	135	1
64	65	5
103	104	2
197	209	1
15	16	6
208	208	4
228	229	4
19	21	1
51	52	1
0	109	1
23	37	4
199	202	2
4	6	3
65	67	1
154	155	8
135	136	1
38	38	5
47	48	1
129	130	5
106	114	1
158	162	2
37	38	3
7	12	3
100	100	7
47	230	1
172	172	3
28	72	1
6	115	1
185	185	1
242	242	1
154	156	1
218	218	4
157	157	3
86	87	1
179	185	3
11	15	2
46	76	3
66	66	1
198	198	1
6	11	2
1	226	1
202	203	4
85	85	3
175	176	1
158	158	1
232	232	1
228	228	2
131	134	1
164	165	3
165	165	1
2	5	2
23	33	1
53	161	1
147	148	1
233	233	3
238	238	3
27	28	2
7	69	3
109	159	2
7	29	2
153	154	2
14	14	3
146	147	1
97	99	1
50	51	1
52	55	1
162	195	2
217	217	4
22	22	3
102	104	1
123	125	2
213	216	4
164	164	2
206	206	3
22	34	2
105	106	2
56	59	1
115	125	1
65	66	3
239	239	1
48	49	1
113	113	1
199	200	1
109	118	1
217	218	4
144	144	2
57	60	1
136	144	1
211	224	2
104	104	2
187	188	1
144	148	1
0	118	1
30	37	1
229	229	3
201	212	2
37	242	1
15	20	1
16	50	2
126	136	1
64	67	2
240	240	2
13	16	1
176	181	1
5	79	1
223	229	4
133	139	2
44	45	2
101	102	2
163	163	1
2	6	1
82	85	1
116	119	1
59	88	1
0	2	3
179	179	1
212	215	1
13	79	1
63	72	1
22	23	1
16	18	3
49	50	1
1	12	1
137	139	1
71	71	2
177	177	2
62	63	2
213	217	2
150	151	1
83	84	1
28	29	2
60	96	1
232	234	2
4	4	1
204	218	3
82	83	1
124	126	1
67	73	1
148	148	2
33	37	1
161	163	2
4	7	1
162	163	2
41	42	1
236	237	1
205	208	1
223	225	2
6	15	1
239	242	1
209	212	1
95	102	1
108	117	1
0	9	1
9	118	1
115	117	1
144	153	1
86	240	2
119	120	1
60	61	1
29	31	1
206	217	1
4	78	1
33	41	1
51	101	1
215	215	1
235	236	1
4	8	1
