74	74	14
6	170	5
18	33	1
138	139	3
71	101	3
183	183	26
70	71	9
12	53	12
143	178	3
171	171	21
148	149	1
47	47	15
194	194	25
6	150	2
68	68	8
6	18	7
115	115	29
85	86	6
106	106	11
143	173	2
157	158	14
193	193	29
43	43	29
140	143	2
37	37	21
4	14	3
177	177	12
176	176	26
46	46	20
139	139	19
186	186	22
162	162	14
21	21	9
153	153	24
69	69	15
176	177	13
22	22	13
62	62	22
33	33	20
149	150	4
27	27	15
135	135	21
7	8	5
9	9	27
127	127	8
116	118	9
19	41	2
95	95	8
120	120	15
31	44	2
72	72	6
35	35	10
53	53	16
28	28	11
96	97	6
19	19	10
166	167	2
104	104	9
149	151	5
36	37	8
10	144	1
107	107	13
23	23	19
115	130	2
11	186	2
105	106	2
49	49	28
14	14	19
32	38	2
44	45	6
110	110	4
38	38	29
0	3	3
141	141	16
150	150	21
192	192	15
8	8	8
50	50	9
32	32	17
82	82	19
159	160	2
59	59	21
161	184	2
179	179	26
54	55	9
148	159	6
159	159	19
188	188	13
89	90	6
81	88	1
114	114	17
132	132	9
188	189	10
121	123	2
24	24	19
81	82	10
172	172	16
158	159	5
96	96	3
119	119	18
165	166	5
56	56	15
151	151	21
157	157	4
67	67	2
41	41	20
160	160	16
19	20	4
32	33	2
7	7	24
73	75	4
99	99	8
121	122	6
84	84	18
44	44	15
178	178	26
43	44	5
79	79	8
126	126	9
113	124	5
55	55	6
140	140	4
197	197	22
12	12	15
107	111	3
31	31	13
173	173	35
167	167	15
170	190	7
162	163	1
143	176	2
154	155	4
6	7	4
173	176	7
9	12	2
117	143	12
35	83	2
181	181	26
155	155	9
26	26	15
174	174	6
161	161	15
51	51	5
166	168	6
168	168	10
187	187	35
162	165	5
122	122	13
196	196	25
15	31	2
67	78	2
94	94	11
147	148	12
10	10	7
18	21	5
158	158	11
156	158	4
18	18	14
16	28	4
58	58	18
195	195	20
124	125	4
113	127	3
85	85	7
185	187	9
1	3	4
113	159	1
143	144	14
164	168	2
18	34	2
185	185	26
139	140	5
74	75	3
64	66	6
190	192	4
13	13	12
144	144	26
1	2	8
17	24	1
100	100	19
88	88	13
187	188	1
150	151	10
178	180	3
82	83	6
175	175	10
124	126	2
120	121	2
86	86	6
6	156	4
170	170	24
15	15	25
102	102	5
136	137	4
111	149	2
16	16	12
4	4	23
11	11	13
38	73	3
36	36	17
6	6	9
151	152	18
11	15	3
8	9	4
99	100	5
147	147	11
118	147	1
0	0	8
182	190	5
190	194	3
157	187	4
187	194	3
165	167	6
70	70	2
190	190	20
98	98	4
180	180	10
177	178	8
105	105	7
62	63	4
164	164	16
97	98	7
179	180	7
186	187	2
3	7	5
71	71	10
155	178	3
180	181	5
94	96	4
70	73	4
142	190	3
132	181	1
54	54	10
95	115	4
181	182	11
25	26	11
54	197	1
184	184	15
144	145	9
48	48	12
154	154	7
138	138	8
160	162	7
111	142	1
175	176	3
175	177	4
76	77	1
28	30	5
159	164	5
135	136	2
15	16	10
165	176	3
67	68	3
82	85	3
12	31	5
132	185	2
5	5	7
132	133	4
87	97	4
56	57	1
182	182	14
129	132	3
187	189	2
10	11	2
30	104	1
6	25	6
25	25	9
61	61	16
153	155	5
129	159	1
76	79	7
103	103	10
66	66	15
2	2	10
148	148	13
133	133	15
124	124	16
180	182	8
160	163	2
160	164	1
23	162	3
161	163	5
191	191	28
113	113	20
152	157	3
134	134	7
112	127	2
143	143	3
78	78	13
58	62	2
116	116	8
130	190	2
30	38	3
5	14	1
59	61	7
150	155	1
87	87	8
130	130	4
145	162	3
146	147	4
14	16	1
149	149	14
170	171	4
52	52	8
156	160	3
137	137	11
196	197	8
156	157	4
34	34	10
16	17	8
145	145	1
20	20	15
14	15	2
165	165	14
0	2	4
71	80	1
1	1	27
191	192	10
124	160	2
87	99	2
10	14	2
72	79	3
183	195	2
106	107	1
116	173	1
107	108	3
138	142	3
38	39	3
152	152	14
41	42	3
189	189	13
130	131	1
186	190	1
168	169	12
121	124	1
184	185	4
40	41	13
117	117	12
121	121	13
129	129	8
193	194	3
33	35	3
172	179	3
20	21	5
123	123	5
45	51	2
163	163	3
151	160	3
81	81	1
166	166	15
153	158	2
148	155	3
77	78	5
165	178	2
103	105	2
155	157	3
143	186	2
24	27	4
169	169	13
109	140	2
60	62	2
130	191	1
40	64	2
190	193	3
41	82	1
190	191	1
155	156	3
141	181	1
143	163	5
4	54	1
134	135	9
4	55	2
128	128	3
120	141	2
110	111	3
36	58	2
67	83	1
116	174	5
145	186	4
38	82	1
58	60	2
19	40	2
101	101	13
89	177	4
34	35	7
171	172	1
35	37	1
125	125	5
23	57	2
145	158	1
54	63	3
113	114	2
112	112	10
39	39	8
112	119	1
11	183	1
80	81	3
125	126	3
17	27	3
23	24	6
114	115	2
117	131	2
103	104	1
118	118	6
20	22	3
57	57	11
119	125	2
172	191	2
2	3	1
83	83	3
146	146	4
57	82	4
139	177	1
29	29	10
113	122	4
33	125	4
21	25	1
131	131	10
34	39	4
141	142	1
11	12	6
38	56	2
164	167	3
73	73	3
83	85	4
133	134	2
83	84	1
130	133	2
64	64	6
45	45	4
172	180	3
185	186	5
65	65	6
108	108	4
103	107	2
150	158	1
47	48	3
11	43	2
76	76	2
162	166	3
126	127	3
159	181	7
147	149	3
53	54	3
93	115	3
57	58	3
111	111	8
26	27	2
97	99	3
37	57	2
41	62	2
13	32	3
167	192	3
11	32	4
163	181	2
130	184	2
123	182	1
29	33	2
115	116	1
93	93	5
18	80	2
102	103	3
21	24	1
63	63	5
172	173	2
53	55	3
8	56	5
142	143	1
167	179	1
173	175	6
121	135	1
167	168	7
59	62	3
133	185	3
40	40	3
39	40	5
142	142	9
170	184	3
156	163	3
37	56	7
101	102	2
116	130	2
117	123	4
1	157	1
181	183	1
90	90	1
71	81	1
113	158	1
142	154	2
136	141	2
169	170	2
5	193	2
152	177	4
146	154	1
94	95	1
151	170	3
154	159	2
148	160	3
152	153	4
154	161	3
112	142	1
66	76	1
108	110	1
66	67	7
18	19	7
39	42	1
146	166	4
77	77	6
100	101	5
59	60	3
163	164	9
5	6	4
43	100	2
143	165	3
146	165	1
59	64	1
189	190	5
108	141	4
131	181	1
153	154	3
151	162	1
146	156	1
42	43	4
22	23	9
109	109	5
38	75	1
68	78	3
168	177	2
34	179	6
182	187	1
162	167	1
64	73	2
139	143	2
74	81	2
118	119	2
8	36	1
10	13	2
19	23	4
162	164	1
17	37	2
98	99	1
111	195	1
24	25	1
159	161	4
20	24	2
137	138	3
117	146	4
16	30	1
135	182	3
39	74	3
135	148	3
114	132	1
185	189	3
50	52	3
140	141	2
154	156	6
34	62	4
156	156	2
159	165	1
72	73	2
39	171	2
70	77	6
160	168	4
15	111	1
123	127	3
73	74	1
45	46	3
37	39	1
116	117	2
143	155	1
146	152	1
150	153	1
27	28	9
133	139	2
74	131	1
105	111	2
143	159	2
26	56	1
155	174	2
170	192	3
69	100	2
75	75	1
135	137	4
152	161	4
87	88	3
127	128	4
67	69	1
183	194	1
134	138	3
114	121	1
116	192	1
21	26	1
195	196	2
0	1	1
42	42	3
119	142	3
132	159	1
134	142	3
116	131	2
115	132	1
10	50	3
9	35	1
78	101	1
78	79	1
21	22	3
22	37	2
173	178	5
179	190	5
138	140	1
137	140	1
142	181	3
55	56	1
178	182	2
154	165	1
114	123	3
158	179	3
117	144	1
119	120	2
58	64	2
145	147	1
143	145	3
17	56	2
13	14	1
89	89	2
136	136	3
183	190	2
38	74	1
115	118	1
109	110	3
109	111	2
120	169	1
45	50	1
150	152	2
152	155	2
152	166	2
188	190	2
13	16	1
182	193	2
146	148	2
41	56	2
63	64	1
81	83	4
120	122	1
124	149	4
134	137	2
156	175	1
5	8	3
147	152	2
152	163	3
7	53	3
191	193	1
172	177	2
113	120	2
37	62	2
114	124	2
131	180	1
117	118	1
84	85	1
14	143	2
108	109	1
2	7	2
101	114	1
2	4	1
130	170	1
71	73	1
81	101	1
54	56	1
114	116	1
114	177	1
50	51	1
62	80	1
16	71	1
93	146	1
117	185	1
76	78	1
56	60	1
64	74	1
145	146	2
35	39	1
120	146	1
103	133	1
172	192	1
42	168	1
101	197	2
121	127	2
40	42	2
17	17	2
7	193	1
109	123	1
80	80	1
166	179	2
62	64	1
99	104	1
71	102	1
2	163	1
94	101	1
123	137	2
137	139	1
104	132	1
104	106	1
0	25	2
144	165	1
101	103	1
178	179	2
3	3	1
54	61	2
78	96	1
27	57	1
147	164	1
104	137	1
171	184	1
29	30	1
86	137	1
65	76	2
37	58	1
123	124	1
73	76	1
117	140	1
108	140	1
157	159	1
177	190	1
