37	37	17
63	63	23
1	1	13
71	72	4
8	8	20
56	56	16
41	41	16
39	39	3
9	10	7
67	67	11
57	58	5
30	30	10
50	50	14
14	14	8
13	13	16
62	63	6
5	5	12
55	71	3
72	73	6
57	63	7
45	47	6
0	0	16
63	67	4
22	64	1
59	59	12
62	62	7
19	19	8
7	8	15
18	19	10
35	35	7
24	24	3
46	49	6
72	72	9
29	29	10
10	11	8
3	6	5
76	76	16
1	4	1
55	55	15
25	25	16
27	27	12
20	20	22
6	6	29
26	28	6
9	9	11
77	77	15
41	42	5
40	40	4
49	50	2
2	3	6
54	54	13
53	53	13
71	71	17
31	41	4
73	73	19
52	52	7
75	75	12
32	32	8
62	64	7
37	38	10
10	10	6
38	40	1
3	3	16
70	70	14
51	51	12
4	13	2
60	60	11
36	36	8
9	11	3
57	57	15
23	38	2
7	7	19
42	42	15
59	60	2
6	10	4
2	2	18
14	30	1
47	48	16
58	59	4
20	21	6
68	69	5
12	12	21
26	27	1
73	74	9
57	74	4
26	57	3
49	49	7
64	64	11
58	58	10
21	23	2
46	46	32
64	65	16
2	4	5
35	64	3
61	61	13
47	47	7
55	56	3
74	75	3
11	11	11
65	65	12
8	9	1
31	36	1
35	50	3
62	67	4
57	59	3
35	49	2
48	48	7
22	23	3
70	72	1
38	38	12
44	46	2
26	26	4
37	39	1
18	18	7
12	26	2
38	39	2
74	74	14
9	33	2
44	45	4
51	68	2
68	73	2
36	37	6
35	45	2
31	40	5
32	33	5
0	2	2
60	61	5
3	5	2
46	48	1
44	47	1
66	67	9
43	44	1
33	34	4
65	68	1
19	22	5
35	40	2
66	66	6
33	46	2
45	45	1
76	77	7
50	53	1
68	68	2
31	31	7
48	52	4
19	20	18
19	21	3
69	69	6
44	44	6
34	49	2
23	27	2
34	36	3
56	57	2
33	33	8
30	53	1
67	68	4
21	24	4
4	5	3
0	7	3
30	31	6
52	57	1
55	57	3
3	4	8
21	21	6
52	53	3
62	66	3
47	49	2
12	30	2
28	29	2
22	22	13
34	34	4
51	53	1
42	43	5
69	72	3
2	28	2
28	28	4
43	43	2
61	62	1
4	4	2
53	54	2
56	69	4
22	58	2
27	28	2
26	36	2
1	2	5
51	54	2
12	13	2
59	62	3
23	23	3
33	44	1
54	55	1
6	7	2
75	76	1
39	44	8
50	51	4
43	45	1
12	19	1
26	58	2
30	33	2
70	71	1
29	30	2
6	8	1
11	12	1
32	41	1
18	22	1
55	58	1
34	44	2
1	22	1
65	66	2
34	35	1
41	43	1
69	70	3
23	24	1
64	66	1
34	37	1
60	62	1
52	60	1
6	12	2
7	9	1
25	27	1
32	47	1
