70	70	15
72	72	13
63	63	17
66	66	18
42	43	8
51	52	2
91	91	6
94	94	9
80	86	2
84	84	7
45	50	4
48	51	3
62	62	10
64	64	8
73	73	6
57	57	5
41	41	6
89	89	6
90	90	5
53	53	13
48	48	20
65	89	1
74	74	17
60	93	1
67	67	5
86	87	4
69	70	8
60	101	3
97	97	4
49	49	9
56	56	15
36	36	13
20	20	2
92	93	5
78	78	15
93	94	7
79	90	3
57	58	7
60	60	11
69	69	9
94	98	2
101	101	7
26	26	5
25	25	10
60	61	11
76	77	2
61	80	2
48	49	6
62	84	2
77	78	5
44	44	13
59	59	13
92	92	5
54	54	13
82	82	5
51	51	16
82	85	4
50	50	8
75	75	10
24	24	6
47	80	2
39	39	7
63	64	4
65	65	7
96	97	3
56	57	11
98	98	7
80	81	5
61	61	10
37	38	5
38	38	5
86	86	11
52	52	14
33	33	8
80	80	5
47	47	1
87	87	7
93	93	10
70	101	2
56	64	5
79	79	11
58	59	7
97	98	6
61	81	2
49	50	8
99	100	6
45	45	5
65	66	6
68	68	11
41	43	3
85	96	1
83	83	1
46	86	3
42	42	16
87	101	2
35	35	7
79	80	1
78	82	2
51	53	1
71	71	7
76	76	10
29	30	2
101	102	2
46	46	5
99	99	4
40	40	12
37	37	1
55	58	1
92	99	2
91	92	3
85	91	1
88	88	5
96	96	4
85	101	1
77	77	4
46	87	2
62	87	1
100	100	10
100	101	3
86	89	4
23	35	1
63	76	1
81	81	6
67	68	3
87	93	1
88	89	2
50	51	2
48	50	1
69	71	1
59	90	2
90	91	2
35	39	2
70	71	2
40	41	4
89	90	1
30	31	1
85	85	3
25	26	1
31	31	5
62	89	3
46	88	2
39	40	1
46	48	1
58	58	4
24	38	2
46	47	1
95	95	3
67	69	1
55	55	4
44	45	1
22	23	1
78	79	1
83	84	5
52	57	3
95	98	1
43	44	5
27	27	3
34	34	1
98	101	1
71	72	1
87	88	2
74	75	3
22	22	1
72	75	2
29	29	3
52	58	1
48	52	3
24	27	1
85	92	2
62	63	2
63	89	1
84	93	1
35	36	2
35	37	1
43	43	6
54	56	2
46	94	3
68	71	2
74	76	1
66	68	2
32	33	4
59	101	3
42	45	2
91	102	1
46	57	1
88	92	2
76	78	1
52	74	1
74	77	1
64	65	1
57	64	1
94	95	1
81	82	1
33	41	1
32	32	1
36	83	1
95	100	1
