41	42	7
13	13	21
35	37	2
20	20	23
31	33	6
31	32	8
24	24	16
8	9	9
18	18	9
40	46	3
73	73	8
57	57	19
19	20	7
27	29	6
47	49	2
25	31	3
70	71	4
23	23	19
5	5	16
27	27	13
31	53	5
42	43	8
19	19	23
10	10	29
6	8	5
43	43	15
61	62	6
9	9	20
69	69	11
4	5	10
31	31	12
29	29	19
21	21	13
9	10	6
33	33	18
22	22	19
7	7	16
1	1	17
57	58	2
53	53	14
46	46	10
54	54	12
39	39	6
24	25	7
41	41	9
63	71	3
53	54	9
24	26	3
4	4	20
1	2	29
66	66	7
11	11	25
35	38	4
66	70	2
32	32	11
12	12	33
71	71	2
22	25	3
70	70	16
50	53	10
76	76	12
3	4	13
36	38	7
37	37	6
0	0	12
39	40	2
25	25	23
35	35	13
68	68	12
48	51	5
54	55	2
18	20	4
2	2	23
20	21	4
30	32	3
7	8	7
60	68	6
74	74	19
55	55	22
62	62	16
37	41	6
30	33	3
44	46	3
60	60	12
36	39	4
52	52	6
52	61	4
30	30	11
51	52	7
64	64	5
25	27	3
58	59	8
10	11	20
75	76	6
3	3	19
42	42	18
48	48	14
77	77	5
75	75	12
8	12	2
28	29	6
6	12	1
55	60	3
29	44	3
5	6	16
44	60	1
59	59	26
22	23	8
65	67	6
61	63	2
58	58	6
36	36	4
49	51	4
53	58	1
44	76	6
46	47	10
2	4	5
47	47	14
69	70	2
45	55	2
49	49	10
11	57	5
13	37	7
1	23	3
71	76	2
13	14	5
56	57	10
39	54	6
0	2	5
55	76	1
63	63	9
45	45	17
38	38	2
59	73	2
27	28	9
10	12	3
26	27	3
29	31	2
59	60	5
56	56	20
8	8	8
43	44	19
5	7	4
23	24	14
42	48	3
23	30	3
9	12	1
40	40	17
30	31	3
31	51	3
72	73	5
7	10	1
24	28	5
6	6	21
11	12	8
54	75	3
67	67	17
45	46	1
34	35	6
51	71	4
46	56	6
50	51	3
28	28	4
63	64	4
30	47	3
18	52	4
19	54	2
2	29	2
53	61	5
74	75	3
62	63	3
38	42	2
51	51	8
21	22	5
33	38	1
62	66	3
44	45	7
0	1	1
51	58	1
7	11	4
49	68	2
47	48	5
38	39	7
61	68	4
45	76	6
51	54	1
12	13	4
0	4	1
63	67	1
12	61	2
55	56	4
23	27	1
61	61	9
54	76	1
44	44	1
22	24	2
49	58	2
61	72	2
76	77	8
19	48	1
65	65	4
58	60	1
34	34	5
2	3	5
46	55	2
39	41	1
64	65	3
28	30	2
72	72	8
34	56	1
33	34	4
35	44	1
67	68	3
22	41	2
40	42	2
14	14	4
44	47	4
56	61	2
42	44	1
32	33	1
38	41	1
26	28	1
50	50	1
48	68	2
55	57	2
21	34	3
35	36	1
52	53	1
13	19	2
43	47	2
48	57	3
39	48	2
46	48	1
42	49	1
68	70	4
29	55	3
33	39	2
23	26	3
22	52	4
65	70	1
64	71	1
32	34	2
35	39	2
27	30	1
59	75	1
57	60	1
65	66	1
45	47	1
34	46	1
40	41	2
58	61	1
68	69	1
43	45	1
31	35	2
60	62	3
26	26	1
18	21	2
72	74	1
50	73	1
18	19	2
25	42	1
53	70	1
66	67	1
