108	108	7
11	11	14
22	23	7
0	0	14
55	56	6
8	9	13
45	45	23
35	41	3
141	141	10
73	73	14
74	132	3
25	26	11
143	145	8
146	148	6
110	110	14
157	157	10
163	164	3
16	16	15
10	10	21
142	142	14
3	39	1
6	7	3
50	66	4
71	131	3
24	25	24
8	8	13
34	34	4
113	113	14
27	29	2
44	45	3
155	155	14
103	103	9
54	55	8
138	138	8
160	160	13
13	14	2
167	170	3
123	124	10
97	101	5
31	31	27
6	6	24
24	24	17
95	95	13
118	124	2
132	132	8
139	141	3
10	11	22
35	35	26
41	41	18
167	167	12
125	125	8
21	21	8
13	13	22
30	30	24
17	18	15
153	155	3
133	133	15
99	110	9
94	95	8
129	160	4
5	5	16
126	126	14
96	117	1
141	163	1
60	106	6
92	92	5
14	14	22
38	38	24
163	163	9
23	27	7
36	38	2
43	45	2
40	40	23
20	20	5
14	40	2
80	94	4
104	105	3
79	94	5
176	176	21
109	109	13
51	115	3
2	3	10
61	61	14
168	169	1
165	165	19
15	15	24
164	165	4
25	25	17
53	54	6
77	77	9
152	152	3
65	75	4
128	129	13
145	145	9
86	91	2
61	81	6
121	121	7
154	154	3
79	79	8
74	121	4
123	123	12
74	74	32
44	44	19
162	162	6
169	174	4
86	126	1
136	137	4
143	144	6
28	28	20
72	159	4
117	117	10
24	29	4
4	9	2
37	37	33
23	26	6
56	57	5
119	119	9
124	124	12
40	42	6
36	61	4
130	130	7
88	88	9
98	100	6
81	96	2
66	66	9
50	51	2
139	139	7
110	130	1
71	137	1
67	67	10
170	171	1
29	31	10
51	51	9
86	87	4
101	111	1
5	7	3
97	98	1
93	93	12
7	10	5
75	75	7
36	36	25
159	159	11
39	39	21
0	36	2
7	41	2
136	136	4
82	82	11
16	18	9
99	117	6
12	12	24
81	90	4
157	158	1
111	111	7
18	18	12
130	131	1
149	172	4
23	25	5
7	8	9
42	42	16
144	144	9
2	11	1
3	3	22
140	140	8
36	37	15
108	109	4
56	145	5
146	146	19
16	17	6
166	166	22
127	127	8
22	22	9
164	164	13
64	64	7
12	32	2
37	38	18
73	74	5
83	83	8
33	34	5
148	158	3
147	147	5
54	57	3
12	13	12
175	175	4
57	57	19
90	90	13
39	40	15
16	20	2
80	138	6
79	134	2
37	39	3
151	151	4
75	175	3
165	166	6
76	169	2
63	86	3
63	68	2
4	4	15
158	158	11
40	79	3
87	87	9
153	153	11
85	85	10
52	53	7
9	9	17
38	39	6
45	46	3
115	115	11
23	66	1
142	164	3
29	29	13
19	19	23
120	120	5
49	49	2
99	99	9
32	43	1
70	135	4
63	116	2
76	141	2
160	162	1
5	16	2
67	92	3
151	154	3
148	148	10
22	37	4
100	100	7
129	130	4
114	114	7
50	50	6
25	28	5
15	170	4
26	26	15
96	99	2
101	110	1
129	166	2
112	112	7
5	8	2
153	159	3
2	2	12
96	102	8
147	148	1
29	41	1
14	15	5
101	102	4
27	27	17
109	110	1
25	27	5
63	67	4
3	4	11
137	138	1
162	163	1
113	114	4
117	124	3
108	110	4
86	89	6
112	114	6
92	94	2
174	174	5
78	140	2
179	179	9
131	174	4
53	53	6
83	152	1
122	122	5
150	150	7
32	32	13
170	170	9
81	82	5
156	158	5
116	116	7
78	78	10
155	160	1
59	59	7
171	171	16
130	173	1
81	81	12
17	17	25
26	28	2
18	34	3
7	7	17
76	76	9
5	15	1
62	84	1
19	32	1
168	168	5
52	52	1
146	147	9
99	101	7
52	54	3
94	120	2
22	24	5
108	112	1
108	126	4
58	58	3
58	149	3
65	65	7
114	126	2
151	153	8
42	43	5
66	152	7
21	75	1
15	16	3
169	169	11
98	99	6
71	71	4
137	137	3
2	4	14
96	108	2
41	81	2
139	143	11
51	118	1
101	101	4
130	139	1
2	8	2
84	106	2
121	124	1
23	23	19
72	146	1
142	143	3
6	10	3
32	37	3
29	30	8
85	87	4
53	115	1
3	46	5
27	28	5
94	94	5
64	65	7
13	28	4
128	128	3
143	143	9
118	120	2
135	135	6
105	105	5
11	40	2
128	130	6
62	62	3
105	106	7
98	98	9
19	21	2
80	80	5
43	43	15
70	71	2
17	26	1
160	164	1
88	134	1
97	97	6
155	156	4
92	93	6
84	84	10
123	125	2
86	94	7
161	161	5
61	113	2
12	28	3
106	107	6
82	96	3
134	134	19
74	163	1
84	99	2
11	12	7
83	84	1
78	79	3
10	16	3
85	86	7
3	9	4
70	167	2
62	115	2
173	174	1
17	171	1
128	150	4
84	85	5
91	93	3
129	129	4
154	156	3
110	127	2
28	29	4
104	104	5
21	68	2
1	6	1
115	124	1
143	169	1
15	171	2
65	110	1
33	33	12
2	10	2
5	6	8
32	33	4
158	159	4
15	19	4
28	30	4
110	111	1
93	95	2
75	78	3
88	111	1
9	12	3
171	172	5
76	142	4
58	59	3
178	178	6
19	20	5
60	60	6
60	61	5
45	128	4
176	177	2
62	63	5
173	173	9
54	54	7
107	107	3
68	92	2
73	147	4
26	38	4
148	149	2
57	58	3
84	89	3
21	22	1
71	136	1
2	9	4
116	118	2
178	180	1
49	117	2
30	31	5
131	131	12
102	102	6
68	68	3
59	60	3
71	139	1
4	8	2
66	126	2
95	96	5
5	39	1
6	14	4
43	44	6
33	35	3
57	139	2
42	81	2
131	140	1
88	89	5
89	94	2
96	113	3
17	19	2
97	113	2
18	21	1
174	178	1
89	90	3
71	135	4
24	26	2
13	32	1
165	169	4
6	39	1
165	175	2
10	14	1
142	149	3
133	162	2
149	149	4
105	110	3
54	133	2
79	80	4
71	143	1
124	125	4
6	16	5
8	10	2
133	163	2
118	118	7
16	23	1
167	175	1
82	83	5
20	23	2
21	24	3
140	143	1
74	114	3
90	93	1
24	66	5
117	118	3
88	136	2
88	101	2
89	89	3
165	177	2
78	169	3
172	172	8
28	33	5
9	31	1
11	13	3
63	84	3
21	23	3
87	89	2
180	180	3
23	24	2
35	44	4
23	28	2
18	28	3
91	92	1
7	21	3
57	59	1
19	24	3
91	136	3
42	121	1
16	45	2
4	5	4
154	159	1
99	106	5
9	28	1
116	119	1
31	38	2
168	176	2
56	79	3
9	11	2
75	76	4
129	163	2
1	13	1
95	121	1
156	156	6
103	104	3
68	76	1
58	61	1
38	61	2
68	119	1
8	12	4
16	75	1
153	162	1
42	44	2
99	100	1
115	116	3
136	138	1
11	45	1
16	27	2
24	30	2
134	137	7
151	156	1
81	153	1
89	126	2
51	82	1
106	106	3
136	152	1
67	76	1
96	97	1
64	85	3
75	77	2
68	70	1
1	1	3
80	152	2
127	128	1
153	158	2
44	119	2
166	168	3
153	156	2
42	130	1
63	118	1
107	110	5
41	42	4
153	154	2
88	153	1
26	27	2
56	91	1
161	162	4
45	120	1
118	119	3
141	173	2
128	168	1
61	117	2
140	145	1
77	78	2
140	174	1
79	82	1
54	112	3
7	16	2
112	113	4
158	162	2
122	123	1
38	75	2
11	33	4
58	83	1
120	121	2
79	138	2
22	38	2
96	126	1
12	15	1
36	80	2
170	174	1
16	44	1
100	103	1
177	177	4
7	9	2
91	91	5
176	179	3
4	100	1
61	83	1
168	175	2
72	137	1
102	132	2
152	159	1
169	175	1
70	89	1
148	159	1
54	134	1
153	169	1
57	96	2
5	17	2
133	150	3
132	134	2
67	68	1
133	142	2
139	144	1
40	41	1
144	169	4
177	178	4
4	7	1
90	94	3
169	177	1
82	99	2
109	113	2
56	56	4
122	125	2
0	1	1
87	91	1
131	148	4
139	176	1
20	29	3
57	66	1
6	22	2
81	152	2
75	150	1
142	144	1
10	34	1
160	161	1
102	133	1
50	64	1
100	106	1
80	81	2
132	174	1
145	166	1
63	63	1
96	96	1
38	46	1
145	161	1
132	133	1
144	165	1
154	158	1
40	130	1
111	113	1
121	122	2
3	8	2
76	143	1
81	138	1
6	41	1
55	55	3
89	127	1
3	7	1
19	30	1
34	36	1
77	137	1
140	144	1
57	112	2
72	72	1
114	115	2
61	136	2
7	11	1
72	118	2
4	34	1
35	40	1
97	109	1
1	2	1
141	176	1
28	67	1
83	103	2
95	124	1
154	155	1
156	157	1
120	124	2
29	38	2
61	68	1
149	159	1
98	113	1
131	175	4
126	130	1
18	38	1
40	43	1
116	117	1
109	130	1
154	157	2
9	33	1
162	179	1
135	136	1
75	129	1
72	73	1
168	174	1
22	75	1
80	87	1
115	120	2
1	5	1
31	32	1
117	120	1
88	90	1
38	40	1
103	105	2
56	124	1
7	12	1
63	64	1
75	153	1
81	91	1
66	67	1
50	52	1
