10	11	6
55	55	22
40	41	3
64	68	5
9	9	10
60	60	16
52	52	8
74	75	14
69	69	4
21	21	45
11	11	36
3	21	4
12	12	18
30	30	8
56	56	7
49	49	19
0	44	2
71	71	6
42	42	7
28	37	2
24	24	5
7	8	7
59	59	7
41	42	7
25	25	5
6	6	19
50	53	4
3	6	3
20	21	12
2	2	19
61	61	17
31	31	11
54	54	11
53	53	5
20	20	28
48	48	8
11	19	9
33	33	16
36	53	2
39	39	9
50	50	7
73	74	8
26	26	14
52	61	3
58	59	11
30	40	1
7	7	19
46	46	22
62	64	3
62	63	7
46	59	3
66	66	7
63	64	6
18	18	12
40	51	4
77	77	13
20	33	3
41	41	10
63	65	3
58	58	6
13	13	10
47	47	18
22	22	8
9	10	1
55	56	2
14	73	3
64	65	8
42	43	11
42	74	1
74	74	9
25	30	4
23	74	2
72	73	8
25	26	3
35	37	6
75	76	8
66	70	2
65	66	3
38	44	8
3	3	33
62	73	4
29	29	9
27	35	2
39	40	3
19	20	8
43	43	6
73	73	6
45	74	2
32	33	4
19	19	16
50	52	2
70	70	7
55	66	1
22	24	3
34	35	2
35	35	8
47	49	2
51	72	4
45	45	9
5	6	6
18	19	4
36	36	4
3	4	7
27	30	2
13	23	1
27	27	7
5	5	8
44	63	2
67	68	3
28	28	8
11	12	3
23	36	3
57	58	4
35	38	3
0	1	6
18	40	2
63	70	4
30	50	5
0	0	13
30	74	1
23	23	12
31	32	4
35	36	6
60	66	4
38	38	11
32	32	10
67	74	2
5	19	2
60	61	5
46	47	3
23	30	1
18	66	3
44	44	6
56	57	3
67	72	2
44	45	10
13	36	2
10	10	11
18	42	2
75	75	3
65	65	4
50	51	4
23	24	1
41	45	1
56	60	2
40	40	1
25	35	1
8	8	8
49	50	2
30	31	9
48	49	8
13	59	3
76	76	3
4	4	19
57	57	3
72	72	6
45	52	2
13	25	3
22	30	2
28	30	3
32	35	3
12	13	3
6	8	2
2	11	1
38	41	1
62	72	1
36	37	2
4	36	3
22	23	5
6	34	1
5	34	3
31	73	1
3	48	2
3	23	4
20	77	2
43	44	3
4	8	3
70	71	4
61	64	3
13	74	1
24	25	3
42	70	2
26	35	1
33	34	3
51	59	2
2	3	3
40	53	4
44	56	3
40	50	1
37	37	5
13	31	2
21	34	1
46	55	2
37	38	1
60	77	1
44	74	2
4	35	4
26	39	2
34	34	4
64	64	2
48	66	2
72	74	1
39	41	3
44	46	1
21	32	1
59	67	2
12	47	1
1	2	2
9	11	2
25	73	1
64	70	3
62	62	3
28	29	4
9	22	2
48	52	5
68	70	3
2	33	1
51	73	2
66	67	4
23	25	1
67	67	2
60	69	1
51	52	2
39	42	2
44	55	1
36	48	2
42	65	1
45	54	2
26	30	2
13	41	1
53	54	1
41	71	1
22	25	1
46	50	1
36	38	2
68	72	1
49	51	1
24	51	1
48	60	1
41	70	1
54	73	1
29	33	2
51	51	3
68	68	1
24	35	2
10	12	1
77	78	1
12	19	1
61	63	1
5	27	1
63	63	1
45	46	1
37	44	1
