52	52	5
133	133	6
24	24	1
49	49	8
23	23	3
91	91	15
93	94	10
125	125	15
106	109	3
143	143	1
124	124	8
16	16	3
43	43	5
62	63	2
25	25	3
127	127	19
33	87	2
137	137	1
54	54	13
118	118	11
116	117	9
37	42	5
76	76	2
9	10	4
121	121	6
120	120	17
28	28	4
16	74	4
142	142	6
118	127	3
131	132	6
71	109	7
30	32	4
117	117	9
31	31	2
102	103	5
59	59	5
5	5	6
8	8	8
41	41	6
68	68	12
38	88	2
0	0	5
3	3	8
18	18	6
32	32	17
58	58	10
134	134	8
47	48	1
77	77	3
140	140	7
5	15	1
105	105	7
43	47	1
33	38	2
84	84	3
122	122	18
93	93	4
57	58	2
101	101	13
97	98	5
96	121	1
94	94	4
123	123	7
126	126	8
13	13	6
129	129	6
111	127	2
42	42	7
59	70	1
142	143	3
59	82	3
51	52	6
26	26	6
82	103	2
100	113	1
125	136	2
35	35	5
116	116	5
30	30	7
55	55	3
63	63	1
17	18	2
138	138	7
103	130	2
28	39	3
20	35	1
81	109	3
89	89	1
139	139	12
80	82	2
99	99	3
79	82	1
11	11	1
69	78	5
25	38	3
83	84	2
55	56	4
105	112	1
113	113	4
65	66	3
115	118	2
51	51	3
115	115	1
72	72	3
53	54	1
22	117	2
26	33	1
33	33	1
73	73	10
85	85	5
102	102	5
77	78	8
72	73	2
136	137	8
75	75	3
48	48	7
35	36	1
23	24	5
39	39	1
54	55	2
67	79	3
131	137	1
22	22	16
87	87	2
8	17	1
96	108	2
119	120	1
66	66	9
80	80	2
57	57	5
15	75	1
138	140	4
139	143	2
10	10	1
49	56	4
94	126	6
39	40	6
141	144	1
130	130	5
1	21	1
99	129	2
88	88	5
87	88	3
19	20	5
53	58	10
130	137	6
34	34	2
71	104	3
14	21	7
146	146	1
87	142	2
85	104	3
61	61	2
86	86	1
109	109	3
63	69	2
119	119	7
110	110	10
64	65	2
32	56	2
135	135	1
143	144	1
89	90	4
74	78	1
41	47	3
69	70	1
141	141	3
78	79	8
113	114	1
123	124	1
37	37	3
32	34	2
19	19	3
57	62	2
95	95	4
65	65	1
106	107	3
131	131	8
98	130	1
27	27	2
81	81	1
67	121	1
40	40	6
35	71	1
62	62	2
133	135	2
137	138	2
105	106	3
21	146	3
108	109	1
82	85	2
78	78	6
104	109	1
66	116	9
3	5	3
111	111	2
82	82	2
4	34	1
40	128	4
75	102	2
69	69	2
22	23	1
138	139	5
32	37	2
14	65	2
9	25	2
122	129	2
67	126	3
62	64	2
20	41	2
130	131	2
69	107	2
69	108	2
38	72	1
48	54	2
106	106	3
26	36	2
3	34	2
84	119	1
54	71	3
79	79	1
128	128	6
126	132	1
100	100	4
90	90	1
17	17	2
15	16	2
73	87	1
74	74	3
120	121	3
56	56	1
132	132	4
29	30	1
86	98	4
144	144	2
91	93	1
1	1	3
141	142	5
99	128	1
21	21	4
53	56	2
71	71	3
38	40	3
53	53	1
41	42	4
112	112	4
29	82	1
24	26	1
124	131	1
59	63	1
83	83	3
84	85	2
68	109	3
130	133	1
136	138	1
75	97	1
121	126	3
20	20	3
115	116	1
60	60	2
124	132	1
114	114	1
70	71	1
108	108	1
59	131	1
133	136	1
14	17	1
114	120	1
37	38	1
28	100	1
116	123	1
68	69	1
74	75	2
111	112	1
96	97	1
124	125	1
61	85	1
114	140	1
111	118	1
92	133	1
113	129	1
21	35	3
121	123	1
5	10	1
97	97	1
55	57	1
112	129	1
61	111	1
139	140	1
15	64	1
145	145	1
98	99	1
47	47	2
72	91	1
64	64	1
