78	78	3
97	97	6
116	116	9
13	13	4
121	121	3
90	90	3
74	74	2
51	104	2
43	83	2
22	23	2
132	132	6
25	31	1
49	54	5
17	21	1
15	15	1
50	50	10
40	97	2
8	133	4
29	30	7
114	114	4
63	69	1
49	49	9
75	75	6
54	92	2
111	111	5
94	94	1
58	65	2
55	55	8
23	23	4
128	128	5
77	77	6
51	52	4
68	68	2
53	53	4
19	60	2
30	30	5
105	106	6
83	84	1
6	6	7
27	91	3
70	70	4
129	130	1
69	69	5
84	132	5
115	130	1
52	52	2
101	101	3
39	39	5
56	89	2
21	60	1
118	119	2
82	85	3
93	93	4
44	73	1
91	114	2
3	98	1
21	25	3
104	107	1
67	67	3
52	112	3
48	48	1
58	58	7
110	111	1
39	75	3
112	112	2
107	108	4
78	94	2
90	91	3
33	33	1
107	113	6
114	130	2
89	89	1
128	129	5
115	116	2
65	66	2
14	14	3
26	26	3
22	34	3
24	24	7
100	106	4
61	63	2
2	4	3
32	32	4
28	28	3
30	34	1
102	102	3
117	125	1
92	92	2
100	101	1
56	56	6
114	124	3
31	31	2
41	97	1
96	115	1
25	32	4
0	0	2
97	98	1
61	74	1
16	18	1
24	30	1
55	70	2
84	84	5
131	131	3
53	56	2
42	83	1
17	17	3
90	107	3
60	60	1
115	115	1
131	132	2
42	43	2
91	91	2
3	4	3
76	124	2
96	123	1
19	43	1
64	64	3
65	68	2
55	78	1
123	124	1
124	124	1
43	43	2
70	71	4
2	5	5
0	92	1
4	4	1
129	129	1
40	41	2
52	53	1
120	120	1
118	118	1
71	71	2
97	129	2
53	104	1
92	96	2
1	1	1
13	14	2
104	104	6
101	102	1
26	29	1
65	65	3
45	88	3
97	100	1
73	82	4
71	77	2
79	81	4
64	74	2
87	87	3
8	9	1
100	130	1
20	20	5
86	86	4
44	44	2
46	46	1
12	78	1
72	72	1
76	76	2
44	51	2
88	89	2
98	115	1
13	27	1
7	7	5
66	66	3
31	32	1
122	122	3
82	82	1
91	92	2
30	31	1
41	126	2
100	100	1
47	47	2
65	100	4
80	107	5
43	44	1
67	73	1
73	74	1
80	81	1
28	92	1
116	125	1
70	88	1
103	103	1
69	70	1
88	88	1
44	62	1
112	116	1
21	63	1
76	80	1
126	126	1
40	66	1
5	116	1
41	41	3
45	45	1
40	43	1
42	44	1
58	59	1
22	64	1
11	11	1
25	25	1
57	57	1
96	97	1
57	70	1
127	128	1
37	38	1
8	11	1
99	128	1
115	127	2
89	121	1
51	76	1
