43	44	6
67	77	7
90	90	19
103	103	14
52	52	22
86	86	12
73	73	11
28	28	7
81	82	7
20	20	11
21	21	20
41	42	8
76	77	4
99	99	24
50	56	2
72	72	14
40	41	5
98	99	8
24	38	5
65	67	2
69	69	13
26	26	19
47	47	28
101	102	7
92	101	12
62	62	7
38	38	15
68	69	5
27	29	2
78	79	11
39	41	10
92	100	3
71	72	7
67	67	26
43	43	11
44	44	19
71	71	3
84	85	7
91	91	12
90	91	2
25	26	16
66	92	4
75	75	13
79	79	14
59	59	25
36	36	9
88	88	16
24	24	12
43	45	6
62	64	5
48	49	5
53	53	18
35	35	22
54	54	20
80	85	3
55	92	5
104	104	14
26	30	5
23	60	7
96	96	22
81	81	13
97	97	10
78	78	17
97	100	2
102	102	22
76	76	15
65	65	12
74	74	12
98	98	10
59	62	3
46	46	7
93	99	2
105	105	9
63	68	7
89	89	11
49	49	22
86	87	4
95	95	17
79	82	1
31	31	25
45	45	3
57	57	14
79	91	3
58	59	5
48	50	7
54	58	1
51	51	20
32	32	26
74	76	7
37	37	7
27	27	7
31	32	4
24	57	1
33	33	8
77	77	13
23	79	2
84	84	15
66	67	6
20	37	2
30	30	14
88	106	6
48	63	7
42	42	10
27	32	3
27	34	5
60	60	27
70	70	16
64	64	18
50	51	3
89	93	5
97	98	11
40	40	10
63	63	14
34	105	2
35	36	7
23	23	14
61	61	5
82	82	16
56	56	33
25	25	19
85	86	4
58	58	13
100	100	13
25	32	1
88	96	3
26	29	3
67	78	1
55	55	17
97	101	3
65	66	12
58	105	3
86	93	3
63	64	2
26	27	4
58	60	2
23	61	2
25	27	4
89	90	5
30	31	3
33	37	2
93	98	2
49	63	2
83	83	17
80	81	7
69	71	4
59	60	7
47	81	2
66	83	3
22	22	9
31	75	1
83	107	2
20	45	2
57	82	3
34	40	5
96	97	2
69	70	4
70	102	1
35	75	2
87	93	1
80	80	9
87	88	7
67	68	4
85	85	14
36	37	3
92	92	16
51	63	3
97	102	2
61	62	5
41	107	3
46	49	5
95	96	4
101	101	3
94	94	11
50	80	1
68	76	4
42	43	1
48	48	7
37	38	3
78	93	2
30	49	2
104	105	1
55	59	1
39	39	9
21	45	5
68	72	2
22	71	1
55	100	2
87	87	7
55	68	4
58	100	1
28	46	3
22	92	1
69	75	1
83	85	1
38	45	1
52	62	1
50	50	6
80	83	3
24	107	1
68	68	5
87	91	3
84	86	3
66	78	2
93	93	12
76	78	1
55	81	2
29	58	2
94	95	3
57	60	10
29	30	5
86	99	2
82	83	2
24	32	1
46	97	2
53	87	1
88	89	1
50	99	4
32	38	1
79	85	4
86	92	2
88	92	1
47	48	1
32	42	3
57	101	1
38	48	1
79	84	1
77	91	2
20	21	3
100	103	1
43	99	2
23	83	2
38	39	1
41	41	5
106	106	3
20	27	1
73	74	3
61	63	1
58	93	1
59	61	1
30	32	1
62	100	3
55	58	3
79	80	2
34	34	2
24	58	1
50	68	3
29	29	6
22	72	1
53	54	3
66	66	2
59	82	4
60	61	2
78	81	1
53	69	1
23	31	2
51	65	1
57	58	3
51	68	1
91	93	1
62	63	2
28	29	1
54	90	1
24	45	1
49	57	1
24	60	1
100	102	1
66	82	1
52	54	1
54	76	2
58	85	2
51	52	2
87	94	1
30	34	1
23	81	1
24	62	1
65	80	2
63	78	1
77	80	1
81	83	1
57	92	1
83	84	3
61	78	1
69	74	1
39	42	2
20	39	1
94	99	1
70	72	1
22	35	1
29	46	1
23	59	3
51	76	1
66	79	1
23	24	1
103	104	1
58	107	1
94	96	1
26	43	1
26	41	1
