28	29	3
76	77	4
17	17	2
82	82	9
20	34	5
134	136	6
103	103	3
86	87	3
38	38	2
135	136	8
131	131	11
31	31	5
118	118	17
126	126	6
129	130	4
122	122	5
89	89	6
5	5	6
14	15	4
19	19	8
17	21	2
120	120	7
22	38	2
109	110	7
95	95	9
104	119	2
77	103	1
137	137	3
130	130	12
25	25	6
90	90	10
36	37	3
15	15	2
71	72	6
123	124	6
79	79	10
106	106	4
85	85	10
23	27	2
23	23	4
89	90	4
76	103	4
0	1	3
116	117	1
77	79	5
110	110	11
112	117	4
11	13	2
102	102	3
33	33	8
120	121	3
124	125	10
35	35	5
1	1	9
126	129	2
11	11	4
87	92	5
31	32	6
100	100	5
29	29	8
129	129	23
110	118	3
72	73	6
109	109	8
128	128	8
27	30	3
12	12	8
134	134	13
140	140	7
25	26	6
4	9	5
84	84	11
131	133	3
94	94	6
1	2	2
80	80	7
5	6	10
78	78	14
115	115	8
30	30	6
83	85	2
26	27	5
133	133	10
130	131	2
102	103	3
131	137	4
130	132	5
7	9	1
136	136	10
127	127	8
96	96	4
116	116	11
86	86	2
18	81	2
79	80	2
104	110	3
18	18	9
79	87	1
4	27	2
17	18	4
75	77	1
4	4	11
125	125	5
0	0	6
95	96	3
22	22	4
127	129	5
97	111	1
87	87	2
117	120	2
121	122	6
21	34	1
111	112	1
4	16	2
9	9	6
139	139	6
22	23	5
119	119	4
93	93	5
131	132	6
20	20	8
75	75	8
10	11	3
71	71	9
20	21	7
80	95	1
104	104	5
12	14	1
27	37	1
37	37	2
137	138	5
129	140	2
135	135	6
96	125	1
101	123	1
113	113	8
110	111	4
119	120	2
13	13	1
34	35	4
123	140	1
112	113	1
124	124	14
130	139	5
16	21	1
10	10	4
93	94	4
112	112	5
103	104	3
28	28	2
77	80	3
111	118	4
12	13	10
111	111	5
88	88	6
74	74	4
12	38	1
35	36	1
75	79	1
77	78	3
87	95	2
97	97	3
132	132	10
128	140	2
3	3	5
127	128	3
119	123	1
81	81	11
89	91	4
34	34	6
138	138	5
128	129	3
76	76	6
114	116	4
129	139	1
121	121	4
126	127	3
33	90	2
123	123	8
114	115	2
98	98	10
101	101	10
83	83	5
96	97	1
73	73	2
87	96	3
92	108	1
84	85	5
19	20	6
103	138	1
8	8	1
72	72	3
107	108	2
139	140	2
19	21	3
30	32	4
16	19	1
3	4	1
107	107	4
20	22	1
108	108	3
97	98	6
108	109	2
76	94	2
13	23	1
114	114	4
132	133	5
22	24	2
80	81	2
27	27	6
5	27	2
3	9	1
118	122	2
23	29	1
13	14	1
14	22	2
108	110	2
104	105	4
71	74	3
105	108	4
125	126	2
27	28	1
103	116	1
122	123	1
24	24	4
9	10	1
97	112	2
16	16	2
135	138	4
26	31	1
36	36	4
78	79	1
17	19	1
3	7	2
91	91	2
82	83	1
121	123	2
26	26	2
88	89	1
101	102	2
14	16	1
117	117	3
112	114	1
79	81	2
117	119	1
104	107	2
8	9	1
4	32	3
15	19	1
106	107	3
16	18	2
76	104	2
102	139	2
138	140	1
5	21	1
36	81	1
21	21	3
127	134	1
102	120	1
30	31	2
29	37	4
14	20	1
105	105	2
117	118	1
130	136	2
103	115	2
96	107	1
2	2	4
33	35	2
4	5	2
32	32	3
105	106	1
104	118	1
6	6	3
85	87	1
120	122	2
113	119	1
9	66	1
90	97	2
35	38	1
105	112	1
95	112	1
7	7	1
29	30	1
116	125	1
99	99	1
92	92	1
