20	21	5
176	177	18
45	45	40
44	46	6
26	27	9
34	34	24
50	119	5
62	62	20
119	120	15
144	145	6
178	178	29
157	182	8
42	42	23
168	169	15
14	14	28
53	54	10
187	187	44
100	100	20
8	9	6
25	25	21
168	168	20
1	4	3
100	121	2
120	121	9
186	186	24
184	185	14
65	65	12
101	103	2
50	50	19
88	88	28
165	165	32
171	171	26
81	82	14
181	181	30
15	15	10
82	83	6
18	18	27
36	38	7
145	145	24
20	20	21
182	182	29
12	16	1
167	167	15
47	48	8
132	132	30
156	192	4
107	107	18
27	28	12
157	157	38
192	192	22
9	9	47
42	90	6
2	111	6
159	169	4
24	24	28
162	162	32
56	58	6
139	168	3
173	173	17
194	194	52
99	99	23
47	47	20
126	127	15
147	147	21
68	68	9
30	30	28
176	176	21
23	25	3
149	151	4
163	164	23
48	48	21
57	63	5
173	174	30
40	40	14
118	118	23
2	2	19
131	131	14
154	155	11
189	189	38
33	33	31
119	119	25
46	46	13
51	51	20
22	22	11
133	134	7
49	49	17
38	38	24
11	12	8
31	31	30
181	183	4
124	124	28
111	111	27
169	170	5
99	107	3
108	132	3
53	56	5
2	113	3
99	100	10
153	153	25
142	145	2
190	191	14
122	122	10
150	150	35
129	129	21
176	178	11
22	23	5
185	186	16
151	152	17
37	137	1
52	53	10
32	33	13
57	57	16
44	45	7
107	133	2
58	58	26
180	180	18
197	197	23
24	25	11
94	94	21
187	188	20
132	133	12
166	166	31
56	56	15
115	115	23
93	188	4
138	138	29
16	16	31
123	123	29
37	37	19
158	192	2
175	176	9
148	148	22
44	70	2
159	166	3
195	195	21
103	103	24
139	140	13
49	50	1
17	17	33
59	59	11
0	1	17
5	7	10
44	44	17
8	8	24
102	102	14
121	121	14
180	182	4
48	49	5
36	37	11
101	101	15
155	155	23
126	192	2
39	40	7
109	109	15
160	160	31
146	147	4
140	140	16
83	83	11
76	76	6
147	148	6
185	185	31
95	97	4
14	17	1
43	43	33
71	71	11
34	36	2
72	73	8
105	105	17
6	6	19
143	144	5
191	192	16
40	41	21
53	55	13
125	126	8
102	103	6
132	135	2
188	188	25
190	190	21
143	143	17
34	39	2
35	35	20
175	175	21
128	128	39
161	161	33
137	138	8
29	29	17
67	67	6
23	23	30
171	172	28
186	188	5
170	170	26
160	179	7
5	5	15
116	117	6
155	156	16
164	164	10
195	197	1
104	104	20
23	33	1
78	89	6
11	11	36
139	139	23
177	177	40
5	6	13
173	175	2
161	162	21
165	166	30
188	190	1
0	0	16
83	84	5
66	67	4
159	159	49
69	69	6
164	165	2
172	172	22
28	28	29
58	59	23
26	26	24
52	52	19
162	164	9
196	196	17
126	128	3
191	191	20
108	108	12
163	163	9
6	7	7
163	166	5
27	27	9
73	73	14
150	151	7
74	74	4
23	24	12
160	178	4
97	97	6
173	178	4
32	32	15
133	133	30
125	125	20
0	2	2
154	154	24
190	192	6
12	12	23
39	39	29
104	107	2
172	173	15
108	154	1
81	98	2
38	42	2
151	151	35
174	174	17
184	184	38
116	153	2
96	96	7
134	140	1
55	56	7
93	97	2
114	114	15
65	66	3
98	98	6
4	5	6
141	141	17
141	182	1
158	158	16
106	106	19
179	180	10
183	183	33
18	19	3
4	112	5
113	113	21
148	149	8
137	196	2
7	8	5
28	38	1
10	11	7
41	42	5
142	143	6
138	139	6
10	10	15
59	61	2
56	57	19
35	159	3
146	146	13
116	116	11
36	36	19
160	182	3
108	131	1
82	86	1
41	41	14
194	195	5
54	55	14
53	65	1
21	21	18
166	197	1
10	125	1
182	193	2
149	184	6
169	169	26
82	85	6
31	32	9
134	136	6
55	55	12
143	157	9
151	171	2
135	137	14
151	167	2
166	168	3
64	64	5
135	135	12
160	192	2
120	120	12
157	158	12
25	26	11
7	19	3
130	131	17
178	191	4
63	63	13
161	167	1
152	152	24
134	135	13
88	89	5
54	54	8
180	181	6
100	101	10
168	183	2
160	168	1
15	16	13
61	74	4
186	187	9
102	117	2
179	179	15
149	150	6
63	64	5
94	97	1
13	13	21
81	81	8
152	153	14
81	88	2
161	165	4
129	148	1
170	171	14
195	196	6
131	132	7
167	179	3
7	7	16
144	144	7
192	193	10
4	23	1
130	130	14
127	128	15
80	81	9
158	159	12
108	109	7
168	179	5
13	14	8
19	19	14
8	121	1
130	137	5
77	77	13
28	31	4
183	184	12
133	136	7
187	194	4
3	3	9
125	127	7
11	127	2
143	178	1
149	149	21
28	33	3
127	127	20
3	8	8
134	137	2
4	85	2
86	86	6
114	115	11
90	90	9
1	1	11
98	115	1
95	96	14
171	174	2
136	136	19
168	177	1
50	120	1
113	124	1
19	22	2
59	60	1
125	130	3
193	193	19
19	20	11
34	159	2
20	23	3
29	30	1
50	51	3
30	31	13
83	93	1
101	102	4
179	181	4
166	167	9
45	46	17
112	113	11
167	168	9
9	10	5
4	83	3
151	170	3
112	112	11
40	42	2
105	151	3
4	56	1
112	157	7
105	107	2
82	82	7
151	153	1
62	66	4
75	80	1
98	106	6
134	134	13
61	61	8
181	182	15
66	66	9
116	121	3
130	145	6
26	37	5
113	116	1
17	18	3
162	163	4
47	69	2
184	197	1
146	148	8
171	185	1
123	124	6
186	190	2
103	104	2
20	22	2
117	117	6
79	81	10
150	153	9
42	73	2
109	113	3
129	134	1
181	192	1
78	78	12
28	29	5
87	87	4
89	94	5
20	111	9
0	3	3
77	89	4
61	66	1
156	157	8
95	95	7
176	196	2
183	185	9
146	149	1
145	147	3
124	128	2
3	5	5
159	160	4
162	166	1
174	175	6
26	39	1
187	190	2
106	155	3
110	150	1
170	176	4
100	197	1
27	33	3
38	39	2
27	31	4
64	66	7
155	158	3
53	53	19
78	79	5
111	112	6
163	165	9
169	197	2
137	137	12
25	27	1
135	143	1
144	154	3
50	116	1
23	32	1
93	96	6
173	182	5
111	122	2
71	72	3
81	83	1
121	123	3
161	166	1
85	85	13
9	34	2
173	176	1
89	89	15
43	44	8
175	193	1
84	84	9
126	126	2
109	110	18
29	37	2
98	99	5
9	130	1
189	190	6
160	161	4
152	172	3
150	177	1
122	123	4
53	108	1
93	93	5
175	194	1
51	116	1
186	192	1
118	153	2
167	175	2
132	134	5
146	150	1
187	189	3
26	28	2
78	83	2
3	35	4
124	125	10
156	156	25
86	87	4
99	102	4
43	45	1
40	140	2
8	16	1
184	196	4
175	177	1
94	95	3
5	111	3
152	154	3
135	136	9
51	121	1
12	15	1
182	183	9
131	134	1
5	82	2
10	14	4
81	85	2
118	119	6
132	144	1
100	154	1
68	69	6
116	118	6
160	162	5
21	22	5
76	77	2
34	35	11
30	136	2
2	4	1
110	137	3
37	124	1
57	66	3
74	76	3
75	76	1
72	72	12
119	121	3
176	182	1
2	112	1
33	35	2
28	40	4
104	112	5
29	39	1
8	34	6
80	80	4
3	4	5
41	101	1
61	73	2
137	140	5
50	71	5
11	126	1
4	6	7
153	181	2
110	112	3
172	192	5
103	108	4
107	108	1
193	194	5
1	112	2
142	142	10
167	169	2
186	195	1
51	71	1
102	105	1
15	111	2
4	15	3
61	65	3
86	90	5
51	52	7
50	70	4
60	60	4
83	89	4
103	105	1
37	38	9
4	4	10
63	73	1
21	25	1
46	48	9
93	94	7
7	22	2
16	17	8
57	58	3
93	160	2
182	185	2
0	5	2
143	145	2
109	111	5
110	110	6
35	37	2
152	155	1
141	143	2
2	3	1
102	104	8
95	116	2
99	123	2
160	164	4
52	54	4
70	72	1
2	19	1
75	75	4
70	70	10
81	84	1
77	78	1
59	64	1
85	112	1
74	75	5
62	63	2
44	123	4
25	44	1
20	31	1
16	84	4
130	135	1
159	192	2
105	106	7
152	165	1
61	62	2
173	177	3
164	193	1
10	15	1
0	13	3
167	181	1
138	140	3
188	189	2
50	52	2
161	164	2
185	187	7
41	137	4
97	115	4
33	38	2
190	193	5
0	18	1
113	120	2
118	121	3
3	6	2
77	101	1
58	70	3
99	171	1
36	159	2
79	79	11
167	171	2
28	30	5
160	180	7
58	89	2
106	107	6
89	90	3
64	65	3
149	167	3
22	24	2
39	42	2
164	177	2
108	110	2
181	189	3
72	76	1
177	178	4
113	148	2
79	82	1
169	172	2
116	146	4
62	76	1
69	70	4
63	74	1
54	56	3
99	131	1
34	37	1
101	141	1
166	169	2
42	44	2
121	145	1
94	96	1
196	197	8
162	174	2
17	23	4
192	195	4
73	76	1
138	151	2
178	179	6
1	7	1
16	34	1
139	167	2
16	22	2
117	120	1
6	55	1
173	179	2
150	152	6
60	64	1
1	8	1
8	10	3
9	13	5
168	170	2
37	39	2
188	193	5
157	159	1
69	72	2
87	94	1
172	193	1
153	154	5
115	156	4
59	99	2
35	96	4
1	6	1
71	87	2
51	53	1
150	160	2
159	180	2
184	186	2
136	137	4
15	17	5
114	126	2
169	180	2
114	116	1
145	146	3
50	118	2
181	190	2
98	153	2
131	193	2
144	164	1
150	155	2
193	195	2
16	28	2
165	182	2
185	190	2
12	13	5
30	33	2
45	47	3
8	53	1
99	101	1
4	80	4
42	43	3
46	47	1
117	122	2
126	171	1
26	35	1
139	143	2
175	178	2
41	43	1
96	97	1
3	18	2
167	183	1
9	18	2
6	19	2
160	181	1
149	160	1
87	95	4
137	139	3
3	82	1
29	31	2
50	55	1
157	180	2
140	155	3
18	23	1
156	158	3
66	70	1
165	168	1
80	85	2
19	73	1
118	148	1
136	139	1
114	122	1
94	112	1
96	98	1
61	90	4
140	141	1
86	89	1
172	174	1
67	68	2
70	71	5
113	114	3
176	179	1
147	160	2
125	189	1
10	127	3
76	78	1
6	8	2
137	143	1
181	193	4
17	21	2
188	192	2
104	106	2
187	193	2
161	163	1
132	148	2
158	182	3
156	168	2
35	36	1
130	171	1
104	105	1
80	88	2
35	61	1
107	118	2
27	41	1
142	152	1
0	6	1
144	146	1
64	67	1
83	85	1
9	11	2
119	168	2
3	166	2
68	75	1
11	13	2
122	125	1
161	179	3
10	35	1
186	194	2
127	195	1
142	156	1
22	37	1
121	122	1
60	73	1
10	13	1
100	105	1
28	39	1
4	12	3
75	99	1
1	107	2
30	32	1
149	194	2
63	70	3
96	157	1
115	165	1
133	135	1
67	69	1
134	193	1
151	174	3
129	151	2
151	184	1
78	96	2
177	179	1
93	111	2
54	77	1
47	58	1
104	136	1
155	157	1
32	45	1
79	80	1
94	100	1
69	71	1
87	93	1
95	118	1
103	109	1
146	154	2
103	106	2
153	155	1
151	165	1
152	173	1
144	148	2
18	22	1
24	37	1
105	197	1
140	143	1
100	130	1
99	180	2
83	163	1
87	116	1
5	54	1
100	140	1
98	179	1
185	193	1
100	102	1
18	76	1
120	123	1
8	21	1
163	179	2
65	69	1
97	98	1
117	171	1
112	116	1
122	124	1
110	111	1
85	86	1
15	47	1
8	78	1
160	183	1
12	14	1
8	36	1
16	18	1
128	194	1
131	144	1
27	29	1
160	169	1
134	192	1
111	115	1
3	17	1
192	194	1
