58	59	8
100	100	17
11	11	11
45	45	8
19	20	7
115	115	12
25	26	3
4	4	5
46	46	16
60	61	5
116	116	4
83	88	4
53	54	5
93	93	4
30	31	1
98	99	5
57	57	8
76	76	13
52	52	22
55	56	6
124	124	6
91	92	3
22	22	7
65	65	10
11	12	16
44	44	9
95	95	13
29	71	3
53	53	10
3	3	7
20	110	3
70	70	4
117	119	1
48	49	4
78	79	9
24	24	5
72	75	1
123	123	9
109	109	4
90	98	2
105	105	8
102	102	11
68	68	5
97	97	13
13	13	11
20	20	1
45	46	8
119	119	6
90	91	3
5	5	4
52	53	3
77	77	14
59	59	4
39	40	3
17	17	10
99	99	15
88	89	2
90	90	5
18	18	5
23	23	17
107	115	1
6	6	10
49	49	13
40	110	1
2	3	3
12	12	7
59	60	2
56	59	2
117	117	2
41	42	5
27	28	3
18	71	4
14	14	6
19	22	4
34	34	10
106	116	3
59	61	4
127	128	7
103	103	5
58	58	10
121	121	3
106	106	5
101	127	3
83	85	2
122	122	14
29	29	8
95	100	1
28	28	14
47	47	7
114	115	9
41	43	1
74	74	4
77	118	4
15	51	1
115	116	4
16	17	3
31	32	2
13	15	3
31	31	4
124	125	4
126	126	2
60	87	1
98	98	5
73	73	10
75	91	1
40	41	3
105	106	13
16	18	5
94	99	4
75	76	2
1	3	4
79	79	10
70	71	4
63	64	3
28	29	5
69	69	8
89	89	8
48	48	15
91	91	11
83	83	6
41	41	6
94	95	4
103	104	7
19	19	24
72	73	3
96	96	8
58	83	1
84	84	14
128	132	3
21	21	5
29	30	9
66	115	3
5	6	2
24	25	2
130	130	7
67	67	12
40	40	7
47	48	12
111	111	15
120	120	5
94	94	7
2	2	7
75	77	3
109	124	3
28	49	2
125	125	10
55	131	1
8	8	2
50	50	20
33	34	6
95	96	5
23	25	1
118	118	10
16	20	1
104	104	9
113	116	1
17	19	3
75	75	16
10	10	9
49	121	3
113	113	7
80	81	4
86	88	7
32	32	9
54	62	5
71	72	7
107	108	3
107	107	17
87	87	6
42	42	14
82	83	6
25	27	2
78	78	10
20	76	1
54	114	1
88	92	3
128	130	2
112	113	5
102	103	2
117	118	4
64	64	7
90	105	4
46	47	7
116	118	4
128	128	4
101	101	9
110	110	7
115	118	5
19	21	5
61	61	1
9	10	1
41	44	1
81	81	7
131	131	6
85	86	3
51	51	6
83	84	3
55	55	10
89	90	3
112	112	3
78	81	3
126	128	4
34	68	1
66	66	8
56	56	5
95	97	1
2	7	1
79	80	3
129	131	2
8	9	3
14	16	2
10	11	11
132	132	3
123	124	3
7	7	9
108	109	4
125	126	2
13	14	2
65	66	3
113	125	2
27	31	3
18	19	4
1	2	3
76	87	3
16	16	2
77	102	3
104	105	2
21	32	1
55	115	1
2	5	1
114	114	5
63	82	1
125	131	1
4	7	1
108	108	5
39	39	9
85	85	5
44	45	4
87	122	5
84	85	1
49	56	1
108	114	1
44	60	2
63	66	1
1	1	2
62	62	1
113	114	4
55	66	1
73	129	3
43	43	3
33	33	3
97	98	1
27	27	6
93	94	1
74	77	3
101	103	4
1	10	1
68	69	1
78	84	2
18	21	1
92	93	2
26	26	3
133	133	1
23	24	5
63	63	5
0	11	2
54	54	3
42	43	2
25	25	4
71	71	3
88	88	1
0	2	3
108	115	1
132	133	2
92	92	4
62	83	1
3	5	2
81	85	1
17	67	2
130	131	3
129	130	2
10	61	3
50	51	4
128	129	6
60	62	1
14	15	1
38	40	1
127	127	2
32	42	5
43	44	1
70	95	1
22	23	1
72	72	3
42	85	3
120	121	2
72	74	1
73	107	3
125	128	1
73	74	3
75	78	1
56	119	1
18	30	2
17	24	2
47	68	1
86	86	1
70	116	1
38	39	1
129	129	2
15	20	1
109	110	1
5	7	1
69	71	2
72	76	2
94	97	2
114	119	1
87	88	3
38	43	1
58	60	1
49	68	1
111	122	1
79	121	1
55	61	2
113	131	1
78	125	2
117	125	2
122	123	1
56	61	1
109	116	2
47	61	1
20	21	1
13	16	1
4	5	1
82	82	1
114	117	1
34	41	1
126	127	1
26	27	1
24	94	1
110	116	1
118	120	2
126	131	1
14	22	1
30	30	3
118	119	1
39	72	1
55	62	2
45	69	1
71	111	1
99	104	1
22	41	1
6	7	1
39	44	1
100	101	1
66	67	1
45	47	1
20	122	1
113	115	1
