63	63	2
54	72	1
77	77	17
1	2	7
34	34	4
19	19	3
56	56	7
89	90	1
2	2	10
10	10	17
50	50	2
58	59	6
67	67	15
58	58	10
75	77	3
87	87	9
56	57	1
23	58	2
82	82	13
71	73	4
30	31	2
54	54	13
70	70	4
71	71	14
86	86	23
50	57	2
57	57	9
61	62	4
20	20	9
4	4	6
69	70	1
69	69	19
7	7	18
74	74	6
25	25	7
19	20	2
65	65	15
54	56	8
0	0	9
81	81	6
47	52	1
57	58	15
24	25	6
47	48	2
49	73	3
82	83	10
17	19	6
7	8	2
5	65	3
79	81	4
48	57	6
47	47	3
74	75	2
26	26	4
50	51	13
8	17	7
27	28	4
22	23	2
80	80	16
6	7	2
78	81	2
55	55	3
71	75	3
79	80	14
49	49	3
88	88	10
30	30	11
13	17	3
53	71	1
79	79	21
12	12	8
52	52	14
46	55	1
8	8	5
53	53	10
49	50	10
83	84	3
72	73	12
10	13	6
23	25	1
20	21	8
11	11	10
14	14	6
68	68	13
23	30	3
76	77	9
67	68	7
86	87	9
8	9	6
12	17	1
59	59	3
12	16	2
78	78	2
9	14	4
47	56	4
26	59	1
14	17	2
66	66	10
27	27	8
72	72	9
84	84	10
55	63	1
62	62	9
22	65	1
5	66	1
64	64	5
51	51	3
10	12	8
89	89	10
59	77	3
68	69	5
50	58	1
85	85	4
12	15	1
76	76	11
88	89	4
75	76	9
81	82	5
17	17	3
12	13	7
21	22	2
13	13	4
7	30	1
65	66	6
15	15	7
26	62	1
70	74	2
23	23	11
73	76	1
9	9	4
66	68	4
17	20	1
55	58	4
52	63	4
62	63	1
0	65	4
24	24	6
17	18	3
60	60	1
12	18	2
55	60	1
6	6	5
52	55	5
4	13	2
48	71	3
67	69	2
3	3	6
23	24	4
6	8	3
54	55	4
73	73	7
0	86	6
77	79	1
51	53	3
5	5	3
7	65	2
9	13	3
72	74	3
68	73	1
1	1	2
60	61	1
59	60	1
16	18	2
31	77	1
16	17	2
75	78	1
28	28	2
10	11	1
86	89	2
83	83	7
71	72	3
75	75	4
26	27	3
22	22	2
5	6	2
61	61	1
34	35	3
2	3	3
15	16	2
0	1	1
14	18	1
34	73	1
80	84	2
52	53	2
4	10	2
58	60	1
81	83	2
48	67	3
16	16	1
61	65	1
31	31	1
48	48	1
49	51	3
21	66	1
46	47	2
62	64	1
73	75	2
76	78	1
79	82	1
25	27	2
53	72	1
21	65	1
3	30	1
85	86	1
53	55	1
74	76	1
69	72	1
59	75	1
77	78	1
82	84	1
23	26	1
64	65	1
20	65	1
