99	100	16
4	4	16
36	36	19
105	105	17
126	126	26
127	128	5
89	89	25
108	109	9
100	100	15
133	133	13
10	10	10
122	122	44
73	73	9
80	80	23
116	116	18
82	82	7
132	132	27
72	80	1
118	119	4
79	79	9
27	27	10
116	135	1
130	130	34
98	98	29
11	11	8
1	2	12
113	114	8
97	97	10
3	5	2
94	94	18
87	88	9
8	105	3
37	37	26
25	26	13
117	118	10
123	123	26
122	123	2
135	135	24
129	140	4
7	7	9
99	99	17
33	33	28
23	23	14
0	0	14
22	23	1
87	87	16
107	107	13
96	132	6
110	110	16
132	133	6
10	32	6
81	93	4
92	92	14
114	114	27
35	36	2
119	121	1
103	103	17
125	125	21
101	101	22
83	84	5
18	18	12
26	32	1
24	24	4
108	108	7
81	117	4
13	14	9
19	19	17
107	108	2
77	80	4
96	96	16
34	35	9
81	81	18
135	140	5
32	32	13
95	95	26
118	118	12
111	111	9
74	75	15
75	75	22
138	139	14
91	91	16
77	108	1
137	137	26
102	106	2
30	30	10
121	122	13
128	138	3
6	6	14
71	71	19
139	139	34
6	7	2
16	16	15
30	32	2
5	5	17
138	138	8
125	126	8
77	77	8
38	38	13
18	40	4
102	102	18
19	25	5
81	84	6
136	137	5
16	17	5
134	134	26
18	23	1
71	108	1
28	28	13
22	103	2
91	95	2
85	96	1
112	112	11
24	25	5
29	29	14
20	28	4
113	113	9
74	81	2
127	127	35
94	95	5
88	89	7
86	87	11
103	104	10
26	27	1
26	36	2
109	109	13
124	124	33
21	21	14
80	99	5
131	131	24
119	119	19
34	34	8
17	17	14
84	84	15
82	83	6
12	13	3
117	117	22
86	86	10
122	124	8
22	22	9
88	88	7
12	108	2
135	136	6
140	140	23
78	78	14
20	119	2
1	1	7
115	115	18
14	14	13
28	30	2
124	125	7
84	85	16
85	85	4
35	35	29
87	109	1
71	73	1
121	121	7
93	93	14
77	91	2
97	112	1
80	93	5
37	38	2
101	102	3
2	2	12
103	106	4
31	44	1
106	106	7
31	31	20
112	114	4
20	22	3
83	83	19
136	138	5
70	71	2
7	12	3
15	15	5
72	72	6
90	90	9
125	130	6
76	76	7
120	120	23
139	140	7
128	128	23
123	125	4
130	140	1
20	38	3
28	29	2
74	74	20
102	103	2
26	26	10
94	128	2
98	128	2
105	120	2
76	78	2
3	3	4
78	122	1
136	136	18
100	112	1
20	21	4
90	94	2
73	74	4
29	30	2
9	10	5
134	140	2
17	19	5
29	31	5
129	129	22
131	132	7
74	83	3
96	97	1
72	79	2
78	79	1
116	129	5
10	11	8
84	92	4
128	129	11
100	106	3
25	25	7
95	96	4
77	78	2
105	106	8
22	26	1
87	102	2
119	122	2
11	12	5
107	122	2
104	105	2
78	93	4
80	119	2
0	12	1
8	13	1
122	125	5
127	129	3
27	30	2
118	120	1
89	90	5
96	134	8
133	134	6
13	27	6
21	22	4
97	114	3
104	104	9
120	122	3
72	73	3
96	102	4
86	88	4
0	68	2
110	111	4
121	123	2
89	112	1
91	110	2
93	94	4
83	85	4
84	109	3
33	34	2
120	121	5
126	127	5
2	3	5
72	76	5
126	134	2
30	31	2
82	84	6
126	129	2
88	113	1
127	130	5
12	12	3
129	130	4
18	35	2
95	101	5
118	123	1
112	116	5
114	115	11
87	93	4
119	120	7
79	106	2
90	104	1
25	44	5
9	9	3
116	117	2
13	17	1
8	8	1
9	11	1
123	124	4
13	13	7
84	130	2
97	98	1
12	74	1
20	20	2
130	131	2
12	17	2
3	4	6
2	13	2
78	81	1
126	137	2
101	103	4
19	33	1
109	110	1
11	32	2
120	123	1
8	76	4
106	112	3
88	93	1
98	100	1
13	107	1
102	125	2
17	18	3
79	80	2
18	20	1
12	133	1
98	106	2
13	15	2
72	122	1
5	6	1
16	36	2
96	126	1
15	16	4
112	138	4
91	92	1
100	124	1
19	21	3
97	130	2
111	118	1
15	19	2
21	26	2
80	81	2
130	139	3
92	94	2
103	121	2
24	26	3
8	10	1
78	88	1
8	9	3
110	129	2
118	131	1
109	120	1
23	26	1
7	78	2
109	112	1
118	122	2
104	106	1
96	124	2
85	86	2
105	109	3
69	83	2
72	121	1
5	26	2
81	82	2
77	79	1
106	107	1
10	23	1
5	36	2
26	105	2
3	33	2
7	9	1
130	133	2
75	98	1
134	135	3
125	134	1
88	91	1
11	15	3
132	137	2
79	82	1
94	96	1
27	29	1
10	12	3
80	104	1
5	116	1
73	92	2
129	131	1
100	117	1
128	130	1
76	79	1
82	87	1
19	20	3
82	116	1
110	120	1
96	123	2
6	14	3
14	15	2
96	133	2
8	16	1
108	128	1
110	114	2
25	29	1
33	90	1
103	107	2
8	69	1
11	13	1
101	108	2
100	101	1
129	135	3
115	129	1
32	37	2
111	112	2
92	98	1
33	88	1
105	107	1
36	37	2
7	30	2
119	123	1
80	88	1
96	108	1
74	100	1
88	108	1
5	15	1
5	10	1
72	120	1
75	76	1
104	120	1
107	109	1
