21	22	5
5	7	3
84	84	4
135	136	11
0	0	6
146	148	4
163	163	7
36	36	11
134	134	7
4	6	1
26	26	15
138	141	7
42	42	15
19	21	2
19	49	3
90	91	6
14	15	6
17	42	3
34	34	8
1	4	1
128	129	2
44	47	2
51	51	6
83	158	3
100	104	1
125	125	10
135	135	5
145	145	5
15	15	18
20	20	4
47	50	1
45	45	9
43	43	8
118	118	5
99	99	5
55	55	12
58	65	1
1	9	3
44	44	8
18	18	6
163	168	3
93	95	2
81	81	9
71	72	4
137	138	4
104	145	1
49	49	10
75	76	8
7	56	1
69	77	1
147	149	5
10	13	3
69	70	5
27	27	14
41	42	2
160	160	3
47	47	6
152	156	2
158	158	12
72	88	3
110	114	6
143	145	4
18	51	2
91	114	4
28	28	5
1	1	5
0	1	5
39	39	12
21	46	4
84	119	2
64	64	6
66	66	5
37	39	1
115	115	1
3	3	15
84	113	3
98	98	11
165	165	7
63	63	4
46	50	2
50	51	8
139	141	2
164	164	4
101	106	2
5	5	11
39	54	4
129	131	2
169	169	7
9	10	7
7	7	14
54	54	8
37	38	4
147	147	2
150	151	1
92	92	5
5	6	5
159	161	6
22	22	6
2	2	11
41	41	14
145	165	4
70	71	4
13	13	12
108	108	7
114	114	9
147	148	3
4	4	10
91	91	5
85	85	2
14	14	9
106	127	6
70	70	1
127	127	3
111	111	20
82	82	3
143	144	3
139	139	3
8	10	6
16	24	3
116	116	3
158	170	7
153	155	3
76	76	5
14	18	1
110	110	5
39	46	3
54	72	6
148	148	9
103	103	5
10	12	2
2	42	2
144	154	6
23	23	4
151	152	3
23	44	1
8	9	12
50	50	12
13	14	5
19	19	3
103	105	6
156	157	3
11	11	13
37	76	2
44	123	1
124	124	3
90	102	3
94	94	5
146	162	6
119	119	2
131	132	1
140	142	5
94	114	1
76	77	3
71	71	5
97	99	2
27	28	5
92	93	7
143	143	9
12	14	2
113	113	9
110	118	2
81	121	4
53	53	12
153	153	10
48	49	6
97	97	6
109	109	10
170	170	9
159	159	2
79	79	8
17	17	9
39	50	2
146	146	6
74	74	2
124	125	5
3	4	4
105	106	3
112	112	7
128	130	2
9	9	9
18	22	1
131	131	4
149	149	8
16	17	7
16	19	5
104	105	9
157	157	2
18	21	1
142	143	5
89	89	1
140	140	5
42	43	6
6	6	4
66	69	2
24	24	13
25	25	7
113	134	2
53	55	3
12	13	3
154	156	4
33	33	3
162	162	6
92	116	2
126	126	1
104	149	5
152	153	4
95	114	5
148	149	2
16	16	16
23	50	2
159	163	1
106	149	5
80	82	2
73	73	7
8	8	6
137	139	4
7	17	2
145	163	6
56	56	5
52	53	1
38	39	4
110	112	4
130	131	4
167	169	2
166	166	9
134	135	8
128	128	10
21	23	1
154	160	3
46	49	2
106	106	7
104	106	1
162	165	2
65	65	1
84	85	7
157	159	2
19	20	4
142	142	4
110	145	2
95	112	3
62	62	6
63	71	2
42	56	3
102	104	1
55	116	4
93	93	2
81	94	1
151	151	10
161	161	3
126	129	4
100	100	2
38	38	6
129	129	2
165	166	2
146	161	1
132	133	2
46	122	5
69	69	7
117	117	6
132	137	5
168	168	2
146	147	3
50	120	1
133	135	3
8	13	2
76	78	1
120	121	4
97	98	5
92	94	3
2	3	7
54	71	1
139	144	1
106	107	2
125	126	4
12	12	4
86	87	2
75	75	1
38	56	4
57	57	3
22	49	1
10	10	2
20	23	3
87	116	1
50	54	2
136	136	6
63	69	3
88	88	8
137	140	2
47	49	4
56	57	4
36	37	2
89	90	5
21	21	3
3	32	1
65	67	1
122	122	5
90	90	2
167	168	1
90	113	3
54	65	3
101	102	3
52	52	9
138	138	6
85	89	3
72	92	2
15	16	5
117	118	3
62	74	2
133	134	1
87	87	4
95	95	8
22	23	5
102	102	2
95	96	1
39	136	1
98	116	1
80	83	2
11	12	1
77	79	4
55	56	9
103	148	2
102	125	1
1	137	1
80	80	3
38	43	2
42	44	5
54	122	4
46	46	8
40	41	7
88	103	1
132	132	7
133	133	1
80	85	1
1	2	2
105	126	1
20	21	3
3	134	3
68	68	5
35	36	3
35	35	5
89	116	2
156	156	4
40	40	2
81	104	1
90	114	2
91	94	2
47	48	1
144	144	4
87	89	3
67	80	1
34	35	1
11	14	2
80	81	1
141	141	2
166	168	4
92	113	3
152	152	3
95	101	1
110	111	2
155	157	1
137	137	4
154	155	3
27	48	1
123	123	3
40	42	3
136	137	3
25	45	1
143	152	1
81	83	1
54	55	3
100	123	1
112	113	1
151	153	3
44	45	1
109	110	4
147	153	2
64	74	1
104	104	3
19	25	1
112	114	1
37	37	2
0	138	5
155	156	3
48	48	5
50	124	1
57	61	2
144	145	1
73	75	1
7	21	1
66	98	2
18	50	1
64	98	1
159	169	1
99	100	5
62	63	1
37	44	2
85	117	1
121	121	2
35	154	2
107	108	2
64	77	1
157	158	5
44	49	2
45	46	2
107	107	1
57	62	2
90	110	1
92	134	1
86	86	2
157	167	1
86	89	2
129	130	3
138	139	2
117	119	1
55	57	1
34	36	1
20	26	3
141	143	1
93	113	2
23	52	1
54	58	1
66	67	1
96	98	3
118	123	2
105	105	1
102	115	3
77	82	1
78	78	1
19	51	1
4	57	1
0	92	2
166	167	1
108	166	1
48	50	1
20	52	1
23	25	1
6	16	3
53	121	1
4	5	1
103	127	1
95	98	1
8	12	2
101	105	2
167	167	1
57	58	2
93	116	2
8	14	1
91	92	1
44	48	1
136	140	1
6	7	1
83	114	1
150	150	1
102	124	1
55	64	1
20	38	2
58	58	1
78	79	1
155	155	2
108	109	1
45	47	1
120	120	1
21	53	1
65	66	1
56	58	1
