144	150	3
127	128	8
187	187	9
111	111	4
190	191	5
151	164	2
25	25	11
172	179	2
50	50	1
139	139	26
38	38	17
45	45	3
122	122	16
103	105	2
193	194	3
16	16	3
186	187	7
114	115	3
152	152	10
50	123	2
46	46	1
124	169	7
5	5	6
159	159	12
48	48	5
116	116	5
59	59	7
170	170	6
58	58	4
77	87	1
96	177	1
115	115	4
184	184	7
175	175	6
22	22	8
94	94	3
11	14	2
196	196	11
190	192	2
46	47	2
13	13	6
32	32	3
61	64	1
115	133	2
12	12	12
42	117	4
178	178	11
53	57	4
125	125	6
27	28	3
27	54	3
71	71	4
10	10	10
28	29	5
19	20	3
24	46	2
0	2	2
162	164	7
136	137	1
1	1	10
171	171	11
17	160	4
149	154	4
108	108	4
191	192	6
59	62	1
56	56	3
98	99	7
155	155	2
103	121	3
67	75	1
169	193	1
173	173	12
177	178	2
15	15	11
26	26	9
172	173	1
73	74	3
115	154	6
172	172	8
113	113	7
176	178	13
100	101	2
53	53	11
47	47	6
2	2	6
35	35	11
15	16	8
109	109	5
34	36	3
21	21	5
0	0	1
4	155	3
160	160	18
9	9	15
95	184	2
100	102	1
192	192	12
189	189	10
20	40	1
110	112	4
142	142	5
40	40	2
188	188	8
168	180	4
20	20	16
169	169	3
72	72	6
54	55	4
2	23	3
161	164	2
112	133	3
104	104	6
164	180	2
151	153	5
143	143	3
180	180	10
65	98	1
148	184	2
161	161	7
149	187	2
152	153	7
64	74	5
80	80	3
65	110	1
40	42	2
133	133	6
62	62	4
128	128	5
112	112	5
177	177	8
134	136	4
77	78	5
19	19	7
158	158	10
165	166	3
55	55	4
12	13	2
119	120	2
36	36	9
195	195	6
183	183	6
120	121	1
64	79	2
195	196	6
78	79	3
7	7	3
77	77	3
183	185	1
19	131	4
95	95	3
86	86	2
156	164	2
144	144	5
165	179	1
156	156	9
147	147	13
122	123	2
157	158	6
153	155	5
58	62	1
86	87	2
23	24	3
148	148	12
155	156	3
141	141	4
131	131	7
174	174	7
18	18	7
150	150	8
186	186	8
111	183	3
122	186	3
33	34	4
158	171	3
52	52	6
118	121	4
105	140	9
1	192	1
170	171	3
76	76	2
17	18	2
101	101	2
24	24	3
194	194	3
3	7	1
57	57	3
165	167	5
126	138	3
87	87	4
69	69	4
23	188	3
153	153	3
146	151	4
176	176	4
67	72	4
171	182	3
144	154	3
21	132	3
68	68	5
61	66	1
127	127	6
64	64	6
132	132	7
158	162	1
64	67	1
75	75	2
126	127	7
153	162	3
93	96	3
126	126	5
191	191	12
43	43	4
156	157	8
109	193	3
48	50	1
182	182	6
167	168	9
26	28	1
129	129	2
5	47	4
31	31	1
56	59	1
111	115	2
184	186	1
102	102	2
65	109	1
106	106	5
109	111	2
98	98	3
2	3	6
170	195	3
192	193	1
151	163	2
107	108	3
80	81	2
0	3	2
3	3	3
7	20	5
130	130	3
105	105	1
197	197	2
167	167	4
149	149	6
11	11	3
45	46	2
157	166	4
45	113	2
16	17	2
157	160	1
67	68	1
145	157	2
10	51	3
7	21	1
160	171	1
115	155	5
14	14	9
33	33	7
82	82	2
35	43	1
81	81	2
141	149	2
18	19	1
152	168	1
161	162	4
94	95	2
23	23	3
69	70	2
24	25	5
100	100	4
0	1	1
89	89	3
190	190	9
187	188	4
141	144	3
41	41	4
66	69	1
154	154	3
60	61	2
138	138	8
170	174	1
30	31	2
193	193	3
124	124	4
1	2	3
120	120	7
34	42	1
123	171	2
130	150	1
115	116	1
54	54	6
128	129	2
132	135	2
44	45	2
161	194	3
110	171	2
179	179	4
110	110	2
27	36	1
48	189	1
59	63	1
126	141	4
164	164	1
148	149	1
146	146	2
84	85	4
190	194	1
4	4	5
174	175	2
9	15	3
44	76	2
185	186	3
41	104	1
108	123	5
37	37	2
159	175	1
151	151	1
6	132	4
189	190	3
145	146	2
26	37	1
85	85	2
161	163	2
99	101	3
4	5	6
74	74	2
25	26	1
27	42	1
185	188	4
145	148	2
4	21	2
167	182	2
119	119	4
6	6	1
95	96	4
53	54	4
76	116	1
70	70	5
154	156	1
140	140	4
38	39	2
49	49	2
143	147	3
36	37	1
121	125	1
176	177	3
9	14	2
158	159	2
32	45	3
177	191	2
100	119	4
97	97	4
150	151	4
124	125	1
33	115	1
131	132	6
118	118	3
20	35	1
129	132	3
155	167	1
32	120	3
59	86	4
138	140	1
114	136	1
116	154	2
98	118	3
25	36	1
168	168	1
172	175	1
133	135	1
171	172	2
20	21	1
125	126	6
27	29	1
181	181	1
113	122	4
112	179	2
154	158	2
51	52	2
117	117	4
114	122	1
135	135	1
56	57	6
10	20	3
195	197	1
99	99	1
48	49	2
111	130	1
159	161	2
21	25	1
104	105	1
134	135	3
8	8	2
9	10	4
160	161	3
166	166	4
40	41	1
57	58	2
44	44	4
39	39	4
83	83	1
116	118	3
8	9	1
177	179	2
109	110	1
136	136	3
145	145	3
131	133	1
169	170	1
157	162	1
78	78	3
66	66	2
70	71	2
169	183	1
73	73	2
169	190	1
129	152	1
162	180	1
39	40	1
27	39	4
144	145	1
45	114	1
170	172	1
157	157	1
84	84	4
130	174	2
10	50	2
63	66	1
170	181	1
107	107	1
103	104	1
105	194	1
80	82	1
173	178	2
55	71	1
109	123	1
59	77	2
37	38	1
28	55	1
30	30	2
123	124	1
74	116	1
150	153	2
24	26	3
149	182	1
170	184	1
29	30	1
10	12	1
23	114	3
111	119	1
189	193	1
27	116	1
174	193	1
40	43	1
15	148	1
180	191	2
143	145	1
123	123	1
130	131	2
137	137	2
42	45	1
159	177	1
114	116	1
135	137	4
187	189	1
130	133	4
58	68	2
42	42	1
185	187	1
112	114	1
27	27	2
143	154	1
16	19	1
79	79	3
167	170	1
147	148	1
42	115	1
22	23	1
85	86	1
76	88	1
150	152	3
34	34	2
196	197	2
51	51	1
177	190	2
135	144	1
154	157	1
19	129	1
89	90	1
59	64	2
81	102	1
31	32	1
104	106	1
113	114	1
114	114	2
101	119	1
147	155	1
173	175	1
43	46	2
67	69	1
93	94	1
137	138	2
67	77	1
52	55	1
108	109	1
105	107	1
158	172	1
106	107	1
