70	70	18
130	130	9
38	68	1
72	72	10
38	49	3
73	77	2
74	75	11
13	14	2
85	87	1
81	82	4
77	77	18
56	57	1
4	5	10
35	35	10
16	16	12
93	94	6
71	71	15
32	33	11
9	9	16
97	97	8
68	68	17
53	53	7
122	122	4
120	129	1
88	98	3
27	28	7
24	24	10
61	61	2
77	87	3
117	129	2
87	87	10
150	150	8
141	141	10
83	83	11
8	11	3
15	15	20
42	46	2
93	97	1
74	74	14
122	137	1
66	87	1
85	85	9
22	22	9
46	46	15
49	49	18
136	136	14
144	147	5
25	27	2
35	36	7
50	50	17
68	70	2
25	29	3
87	92	3
145	145	8
98	98	12
71	82	1
94	94	15
106	111	5
56	56	8
36	36	21
49	50	7
100	100	14
4	4	8
12	12	10
80	80	8
40	40	23
131	131	3
145	147	5
108	114	7
13	13	14
17	18	2
82	82	7
129	129	4
65	66	13
144	144	13
6	61	4
54	54	12
62	62	6
11	12	6
138	138	6
24	149	5
29	30	6
4	26	1
92	92	7
54	56	3
57	58	7
38	71	3
77	113	2
5	11	3
106	107	8
67	67	11
8	20	1
17	17	20
18	19	3
81	83	3
68	73	3
57	57	7
133	133	6
132	132	14
8	8	29
70	71	3
76	76	13
128	128	12
63	86	4
95	95	7
39	39	11
95	98	6
63	77	1
80	95	2
47	55	3
34	35	4
134	153	5
35	37	5
119	139	3
115	122	1
11	11	14
116	116	5
37	71	3
103	103	11
147	147	5
78	79	4
32	32	5
64	64	10
6	98	1
25	36	4
146	147	5
115	115	2
99	99	13
45	45	18
47	47	17
5	5	14
79	79	12
18	18	8
126	126	9
44	44	13
9	10	7
36	37	1
26	99	2
80	81	10
133	152	3
142	144	3
132	133	2
121	122	11
10	10	13
120	121	4
44	45	12
151	151	11
27	27	6
95	99	6
78	84	3
38	38	14
54	55	2
12	14	4
64	66	3
87	93	3
108	108	9
39	40	6
80	82	4
28	33	6
35	74	1
19	19	13
139	139	13
79	82	2
6	7	7
42	50	4
26	32	3
150	152	7
149	149	19
21	21	5
122	123	3
102	103	3
69	69	11
98	99	9
23	29	1
6	9	8
41	41	8
25	26	4
33	35	4
146	146	5
3	12	1
90	91	7
139	149	2
68	144	3
76	77	3
124	126	14
93	96	1
102	102	7
37	37	4
4	82	5
51	51	5
46	48	1
121	121	8
153	153	13
96	96	6
47	48	8
107	116	2
117	117	5
84	84	11
125	126	4
4	11	2
4	99	3
32	83	2
80	86	3
33	34	6
150	151	3
6	109	3
8	9	9
21	37	2
42	43	4
119	128	1
39	101	3
12	32	2
80	83	5
133	135	5
110	147	3
137	139	1
58	78	3
107	108	3
143	143	6
43	43	8
77	84	1
49	67	5
23	23	2
68	69	6
15	16	4
17	23	1
13	22	3
78	78	14
106	109	9
109	109	6
107	109	1
103	104	5
33	38	3
134	135	2
149	151	3
139	152	2
50	66	3
91	95	3
112	124	2
51	57	2
75	76	5
34	34	6
76	84	1
66	68	2
97	98	3
42	70	7
75	77	7
94	97	2
108	109	3
18	24	1
81	88	2
137	138	2
55	55	13
28	28	9
49	65	1
106	113	3
7	7	5
66	66	6
45	53	5
100	101	2
29	31	5
53	54	6
62	63	4
102	108	1
143	144	4
73	73	9
129	137	1
53	55	3
48	63	1
30	30	12
51	75	1
25	38	3
12	16	3
43	46	1
26	51	2
135	135	12
20	22	2
19	20	3
43	45	5
120	122	4
20	21	6
118	119	2
22	86	2
47	51	2
81	81	7
134	134	7
118	118	3
131	145	1
31	31	3
26	28	3
5	6	3
142	142	4
42	42	5
6	6	9
14	93	2
65	87	2
106	106	7
30	31	3
72	76	1
24	30	2
34	43	1
85	86	4
57	77	1
21	22	4
20	24	3
136	138	6
112	114	2
86	86	5
133	134	5
31	82	1
70	129	2
75	79	2
110	110	6
140	141	3
104	105	8
14	30	5
141	142	2
24	77	1
61	62	1
152	152	3
29	37	6
67	99	1
75	75	4
115	117	3
21	65	3
66	72	1
14	14	7
96	98	3
21	24	4
112	113	4
7	9	3
36	56	3
83	84	5
148	148	10
77	78	5
101	101	7
45	49	4
125	125	8
97	102	1
115	116	3
92	93	2
6	106	1
121	148	1
48	56	2
112	112	8
38	39	3
43	44	4
12	73	1
31	32	1
18	23	2
75	78	2
118	125	1
37	55	2
69	143	2
55	80	3
93	93	5
55	57	1
23	24	2
63	78	1
132	134	2
93	98	3
119	127	1
138	148	2
144	145	7
110	113	1
3	5	3
17	24	3
65	67	4
18	21	4
25	25	8
38	54	1
54	62	1
68	99	3
36	41	1
108	112	1
92	95	1
87	88	4
26	68	3
92	94	4
25	28	3
30	34	3
88	93	2
13	21	2
127	128	2
39	73	1
141	146	3
94	99	1
3	26	1
21	23	5
105	116	3
12	29	1
151	153	1
136	137	1
95	96	5
95	97	4
114	114	1
22	23	1
5	98	1
52	52	1
137	137	5
23	28	2
122	147	1
106	115	2
77	82	1
42	62	1
58	58	8
19	41	3
103	105	2
64	65	8
41	77	2
20	48	4
49	57	1
134	146	1
62	64	3
71	72	1
13	15	6
126	132	1
51	76	3
103	108	5
107	107	9
76	79	5
66	67	13
127	138	1
82	99	2
131	133	1
128	149	2
132	137	6
65	65	2
41	43	4
147	148	3
83	86	2
113	113	6
78	80	3
119	123	3
61	82	4
67	68	5
28	29	6
78	83	1
38	69	1
76	83	3
105	105	4
119	122	2
12	15	2
31	34	2
148	150	2
46	57	2
20	20	4
149	152	2
138	139	2
88	108	2
15	36	1
127	147	2
79	86	2
119	120	2
123	123	3
5	108	1
91	97	1
3	11	4
4	8	1
78	81	1
110	111	2
73	93	1
139	153	2
34	36	1
114	117	3
90	90	1
132	138	5
63	64	6
88	90	1
10	13	1
136	139	1
102	109	1
16	17	1
138	154	3
121	129	4
145	148	1
3	19	1
111	113	2
104	104	2
78	82	2
26	26	3
27	29	1
39	45	1
20	148	2
65	120	2
44	70	1
88	95	1
79	84	1
111	128	2
19	37	1
5	8	1
96	97	1
137	145	1
100	116	1
116	130	3
84	148	2
64	120	2
37	56	1
29	29	5
34	49	2
64	76	1
12	30	1
4	6	4
7	12	1
68	76	3
34	39	1
63	63	3
27	30	1
122	125	1
116	117	2
131	137	2
19	22	1
52	54	1
143	147	2
88	113	2
48	53	1
29	33	2
40	42	1
33	81	2
35	69	5
123	125	1
36	49	1
107	115	1
63	74	1
55	58	1
6	8	2
33	42	2
126	147	1
10	11	1
154	154	3
32	34	1
41	83	1
33	33	2
41	86	1
82	85	3
5	86	2
26	29	3
123	128	1
48	48	1
36	84	1
111	111	1
66	73	2
111	112	1
14	28	1
26	27	2
81	95	1
97	127	1
45	46	1
71	73	2
23	25	1
110	114	1
63	66	1
94	96	1
22	55	1
119	119	3
32	76	1
82	84	1
42	54	1
37	47	1
39	48	2
45	57	2
111	114	1
5	93	1
91	91	1
125	127	1
108	110	1
109	110	2
22	65	1
26	54	1
99	110	1
88	89	1
55	56	1
132	136	1
53	56	1
16	94	1
41	82	1
34	38	1
91	92	1
6	25	2
64	121	1
28	31	1
24	53	1
76	86	1
33	68	1
45	73	1
144	146	1
37	39	1
19	23	1
68	71	1
101	102	1
