77	77	2
3	3	14
80	80	20
125	126	12
101	101	5
24	24	6
119	133	10
106	122	4
16	16	10
18	20	6
99	99	13
125	125	23
91	93	3
88	89	4
4	4	7
106	106	7
68	68	12
30	30	11
94	94	9
8	8	4
118	119	3
32	62	5
122	122	26
107	107	6
87	87	21
119	119	10
118	118	11
0	65	2
61	61	16
28	29	1
80	94	2
8	53	3
82	85	5
1	3	2
91	91	16
74	74	14
56	56	5
72	72	7
9	9	4
73	74	5
105	122	4
96	96	5
132	132	8
63	63	5
66	78	1
78	78	17
45	45	4
120	122	1
21	21	5
14	19	4
27	29	4
88	88	12
73	73	17
121	122	2
98	98	8
65	65	13
10	11	4
58	59	3
6	57	2
52	53	5
95	95	14
17	17	7
103	103	6
119	121	8
123	123	18
6	6	10
5	5	5
2	2	13
114	114	13
134	134	11
1	2	3
9	10	3
23	29	1
110	110	8
82	82	2
46	46	6
79	87	1
64	64	30
49	49	6
0	0	15
71	71	6
121	121	16
61	62	4
131	132	3
135	135	4
58	58	10
43	43	5
98	100	2
60	60	10
107	109	3
26	26	2
37	37	2
104	105	13
31	31	11
92	93	3
99	101	8
53	53	2
90	101	5
105	105	18
89	89	1
109	127	3
68	81	2
34	51	2
12	13	3
43	44	2
116	116	16
106	108	4
109	111	2
129	130	6
91	95	3
97	97	20
17	56	2
33	35	1
127	127	14
92	92	12
62	62	11
109	109	9
120	120	9
66	69	1
114	115	3
34	34	7
117	117	6
108	111	1
4	6	3
59	59	4
123	131	3
44	44	7
82	83	3
81	81	7
112	112	13
69	69	6
36	36	6
98	101	5
66	66	8
20	21	8
126	128	1
13	13	5
127	128	9
90	92	6
109	110	2
124	126	2
57	57	3
129	129	14
75	103	1
79	79	13
21	22	3
119	120	6
108	108	13
124	124	9
86	86	7
27	27	1
111	111	10
50	50	7
31	32	2
23	23	3
20	20	9
75	75	5
7	11	2
116	117	10
32	32	11
115	115	12
130	130	6
85	86	2
108	110	2
100	100	5
83	83	11
84	84	4
16	53	3
12	12	7
10	12	3
48	65	1
20	23	5
122	123	5
15	15	12
14	14	10
54	55	2
80	81	6
9	11	2
67	68	5
8	9	3
99	100	3
110	111	5
98	99	10
25	25	6
55	55	6
128	129	5
71	72	1
86	87	3
119	134	2
22	25	4
72	78	6
93	93	6
70	70	9
85	85	6
78	83	2
60	80	3
74	76	3
76	76	2
87	88	3
104	104	9
90	90	3
133	134	4
45	50	2
124	125	7
96	101	5
103	104	2
83	86	1
97	101	6
97	125	4
100	101	2
52	52	5
107	121	1
79	80	8
0	1	7
111	114	1
91	92	7
49	103	1
1	1	3
56	57	3
96	97	5
128	128	9
125	132	3
37	56	1
27	59	5
22	24	1
50	51	5
106	107	4
18	21	1
26	27	6
11	11	11
95	97	1
120	121	3
66	67	4
97	100	9
50	62	3
112	114	3
14	22	4
103	111	3
89	92	1
55	56	2
62	63	5
124	127	1
103	133	3
107	125	3
113	118	5
68	87	1
69	70	1
50	52	1
104	124	4
89	90	5
8	58	3
56	58	2
76	79	1
121	128	4
14	15	3
97	107	2
91	101	1
54	54	1
133	133	2
74	75	2
63	65	2
45	48	4
28	28	8
7	9	1
122	133	1
67	67	6
111	112	4
113	114	2
18	19	7
107	108	3
44	45	6
117	121	3
73	76	2
10	10	5
33	33	3
49	64	1
38	67	1
24	25	1
92	94	2
3	4	2
22	22	3
126	130	5
76	77	2
7	7	1
119	132	1
95	96	3
28	54	2
43	69	1
131	131	3
32	33	1
19	22	1
126	126	4
81	87	2
38	38	2
101	102	8
28	35	1
104	119	2
101	103	2
44	49	2
67	71	4
117	119	1
77	78	1
93	97	1
6	7	2
76	99	3
107	133	2
90	91	1
83	84	1
102	103	4
28	30	3
84	92	4
33	34	4
57	58	2
18	18	5
101	126	3
0	2	1
78	84	1
129	133	1
25	50	1
93	94	2
17	18	4
34	35	1
78	96	2
106	124	1
15	28	1
127	131	2
78	85	4
112	119	2
49	50	2
102	102	10
70	71	1
110	112	1
92	96	1
48	49	3
116	128	1
103	134	1
130	131	2
7	10	1
83	103	2
44	50	1
67	69	3
39	66	2
36	64	2
106	113	1
80	89	1
106	115	1
42	68	1
111	120	3
20	22	2
29	29	5
69	71	1
88	99	1
23	24	2
51	52	3
35	36	1
112	116	2
35	35	2
62	103	1
51	64	1
105	106	1
112	113	1
79	90	1
101	130	2
68	69	3
129	131	2
15	17	3
123	127	1
22	23	2
49	63	5
65	66	1
96	98	3
27	28	1
120	131	1
78	91	2
16	18	1
102	105	1
60	61	1
105	110	1
83	87	2
37	39	1
72	73	1
57	61	1
122	124	2
72	74	1
64	65	2
11	12	1
125	128	1
111	113	3
134	135	1
2	3	1
94	95	1
85	91	1
87	90	1
15	36	1
43	68	1
70	72	1
62	64	1
47	47	1
59	60	1
127	129	1
96	102	1
99	104	1
27	81	1
13	14	1
8	48	1
78	79	1
