7	7	1
122	122	7
100	100	7
13	13	11
26	26	7
99	99	5
109	122	3
110	111	12
78	83	2
128	128	4
127	127	14
89	89	15
131	136	2
122	126	4
79	79	2
84	84	12
72	73	1
100	118	4
101	116	3
5	6	1
87	87	5
106	111	1
37	37	4
125	126	6
131	131	12
15	18	1
122	124	4
111	111	11
134	134	11
135	135	6
103	103	4
73	77	1
114	115	6
32	32	3
19	19	4
125	125	5
138	138	8
0	7	3
110	110	10
101	101	5
24	24	4
33	35	3
17	17	1
80	80	6
6	6	5
81	122	1
103	112	4
28	29	1
34	96	2
91	117	3
11	11	5
124	124	11
16	16	12
38	66	4
91	126	7
97	97	6
20	20	2
120	120	10
129	129	10
130	130	16
123	123	9
92	92	3
31	32	2
12	12	3
11	23	4
95	95	7
114	114	2
136	137	3
136	136	5
33	33	10
105	122	3
24	72	3
71	72	3
135	138	8
74	75	4
13	14	4
131	132	10
23	23	3
80	81	4
123	124	1
0	0	1
20	33	2
81	84	1
0	38	1
137	137	4
121	121	5
76	93	2
132	132	10
8	8	1
14	14	6
133	134	1
93	94	1
80	85	3
107	109	5
90	90	11
115	115	4
31	31	2
22	22	1
2	7	4
73	74	7
79	80	2
128	129	1
101	104	1
31	81	2
109	109	5
73	76	1
139	139	1
2	2	4
28	28	3
117	129	2
111	117	1
105	105	4
20	34	2
100	103	3
88	88	5
116	136	4
141	141	3
30	30	2
34	35	4
91	91	3
25	25	5
86	87	3
9	25	3
82	94	5
21	24	2
125	130	2
102	103	1
72	72	5
107	107	4
22	23	1
117	123	1
126	126	9
97	115	6
137	138	3
72	116	2
5	5	3
133	133	5
30	31	2
13	16	3
71	71	2
123	126	3
27	27	5
3	75	2
121	126	1
35	35	9
119	129	1
20	21	1
15	15	5
37	38	1
91	112	1
3	76	4
102	102	2
99	102	1
21	21	6
73	75	1
104	129	2
29	102	3
90	127	3
116	116	7
13	15	2
78	92	5
115	116	4
24	26	1
113	113	9
104	118	2
80	103	1
104	104	8
99	113	4
94	94	2
10	10	2
138	140	3
140	140	4
88	90	1
91	92	1
121	124	3
11	17	4
113	114	2
36	36	1
89	93	1
81	81	3
21	33	1
85	85	1
16	18	4
135	136	2
74	74	2
72	103	1
108	109	2
4	10	2
4	5	1
18	38	1
75	81	4
3	44	1
101	119	2
107	111	2
116	117	1
119	119	5
14	15	2
117	117	5
115	117	1
128	138	1
73	86	1
104	105	3
96	97	2
79	84	1
96	96	1
106	107	3
76	76	2
123	140	1
99	115	1
7	24	3
73	81	1
19	21	1
4	4	1
1	2	1
3	4	2
19	25	1
81	82	1
107	119	1
106	106	1
80	94	1
72	90	1
108	108	1
11	18	1
105	107	1
83	85	3
118	119	1
19	20	1
82	82	2
10	11	1
73	73	1
33	34	1
76	83	1
136	138	1
84	85	1
118	122	1
8	12	1
75	75	1
101	114	1
