9	133	4
123	123	2
12	12	6
186	186	8
79	79	10
152	152	5
84	84	6
148	148	13
107	107	8
44	44	2
120	120	1
64	68	1
63	63	5
99	99	2
115	115	8
54	55	1
36	36	3
98	98	1
158	158	8
76	77	2
157	157	5
132	132	3
48	48	2
144	144	7
6	6	3
71	72	4
2	2	9
117	118	5
93	93	5
150	150	2
100	100	15
97	98	9
26	26	6
83	83	7
1	1	4
125	125	3
178	178	2
120	123	2
82	104	3
55	55	7
141	141	6
44	45	2
146	146	6
65	66	5
95	98	1
70	70	3
114	114	3
147	147	8
162	163	1
77	77	10
46	46	1
40	84	3
112	112	3
149	149	6
117	119	2
32	32	2
181	181	1
37	48	1
3	3	3
60	60	9
60	61	4
8	74	5
14	14	4
56	56	4
166	166	3
78	79	6
25	34	2
115	120	1
29	30	4
176	176	2
53	73	1
161	161	10
188	190	6
35	46	2
148	149	4
119	119	2
179	181	2
65	67	4
25	25	2
145	145	6
13	13	4
38	38	5
142	144	3
75	75	3
164	164	3
28	52	8
103	103	3
149	156	4
95	95	2
101	102	5
66	79	1
126	131	5
81	92	1
42	42	3
13	112	2
178	179	1
18	20	3
159	189	5
17	17	13
62	62	6
156	158	3
43	43	5
153	154	2
15	96	1
65	65	5
116	117	1
23	77	4
12	13	4
59	60	1
39	39	6
35	37	1
130	130	4
36	46	2
188	188	4
183	184	5
53	53	6
163	163	7
71	75	4
153	153	3
31	31	4
131	131	2
76	76	5
11	70	1
124	124	3
6	7	1
122	122	6
109	118	1
107	109	3
81	81	8
86	86	7
106	106	3
93	116	2
162	162	3
113	113	4
177	177	1
102	103	3
92	93	2
137	137	8
165	165	4
152	172	1
124	125	2
160	162	4
8	8	4
16	16	5
155	159	2
57	58	3
21	22	4
181	189	1
141	142	1
106	107	1
19	20	1
89	89	4
187	187	2
163	164	2
87	87	3
88	90	1
133	134	1
121	121	4
126	127	3
189	190	2
168	168	4
109	109	1
40	40	2
34	34	2
96	100	2
82	113	5
20	29	1
156	156	4
85	85	5
75	76	2
161	162	2
189	189	2
9	10	1
15	107	4
119	121	3
41	103	4
107	108	3
11	11	4
167	168	3
129	134	3
23	23	2
10	10	1
141	143	1
15	15	4
122	169	2
7	7	4
64	64	2
20	21	2
144	148	3
117	131	1
19	54	1
66	66	1
152	153	4
44	100	1
161	164	2
111	111	1
68	68	1
174	174	1
119	120	3
86	114	2
130	132	2
84	85	1
73	73	2
183	183	1
0	47	1
16	17	4
169	183	1
24	24	2
136	136	3
170	171	1
151	151	3
30	30	2
155	155	5
83	101	2
180	180	1
156	177	1
75	80	2
45	45	3
156	157	2
116	116	2
114	115	5
27	36	1
29	29	4
172	173	1
44	47	1
138	138	1
74	79	2
121	169	1
20	22	2
33	34	2
134	134	1
173	173	1
98	100	3
119	129	1
94	94	1
36	37	2
171	173	1
28	30	3
74	74	1
88	88	2
115	116	1
0	0	2
86	108	1
67	80	1
141	145	2
19	21	1
81	113	1
104	104	3
35	35	3
13	14	2
54	54	1
153	173	1
142	143	1
88	140	2
28	28	1
99	126	1
101	101	5
20	20	1
137	139	1
86	87	4
58	73	2
120	134	1
27	28	2
139	139	1
132	134	1
23	39	1
32	33	2
108	108	1
156	161	1
13	111	1
24	39	1
12	60	1
71	71	1
82	111	2
56	57	2
159	159	1
89	90	1
30	31	2
27	29	1
162	175	2
57	59	1
182	182	1
131	132	2
173	174	1
164	165	1
128	128	1
82	92	1
120	121	1
40	41	1
26	54	1
82	82	1
118	118	1
175	182	1
122	124	1
136	137	1
171	171	1
125	126	2
140	140	1
37	40	1
18	18	1
184	184	1
6	81	2
155	156	1
46	47	1
117	117	1
