146	146	8
125	125	4
121	121	7
159	159	1
147	147	1
88	103	3
92	92	3
116	116	4
73	73	5
127	141	2
82	82	5
43	43	4
155	155	1
64	64	2
145	145	4
67	67	3
14	14	4
45	47	1
55	55	6
5	11	1
40	42	1
33	147	1
98	98	4
9	10	1
50	50	2
31	31	3
32	32	3
68	69	1
113	113	2
66	91	2
127	154	1
16	53	2
7	7	1
8	9	4
15	15	3
103	106	3
23	23	5
65	65	5
120	120	3
25	26	3
112	112	3
122	122	2
100	107	1
116	130	1
38	39	3
88	88	4
3	4	1
3	3	2
82	90	2
47	47	4
70	71	3
79	79	3
95	95	1
22	22	3
121	124	4
20	20	6
8	8	4
33	33	1
38	49	3
85	85	1
17	55	2
116	129	2
41	43	2
44	47	2
80	81	1
87	87	4
107	107	1
142	142	1
49	49	6
152	152	1
129	129	2
42	43	3
110	110	5
40	40	1
57	57	3
111	111	1
148	148	3
136	138	2
42	140	2
138	138	4
0	0	2
55	81	3
29	29	1
134	135	2
101	101	3
50	51	3
71	71	4
131	131	4
28	28	3
100	100	5
150	156	3
54	55	1
113	119	2
21	35	2
140	141	3
26	27	1
52	52	4
12	12	10
24	26	3
132	150	2
36	36	5
21	22	2
111	112	1
146	147	2
105	105	1
96	96	2
72	72	1
51	51	2
17	17	1
41	41	1
119	119	2
17	41	3
42	42	2
129	137	3
27	27	4
75	110	2
158	158	2
24	24	2
89	104	1
6	6	2
17	23	3
102	102	2
27	28	2
104	105	2
114	114	3
16	18	2
31	32	1
68	68	1
18	18	6
9	19	1
115	115	5
108	111	3
66	67	1
149	150	1
87	91	2
85	86	1
4	4	2
75	75	1
95	148	5
62	62	3
115	116	2
65	66	2
39	40	4
98	102	1
67	70	1
127	152	1
66	106	1
54	54	6
121	122	2
70	70	2
124	124	1
50	63	2
14	16	1
117	117	1
26	26	1
116	117	1
117	139	3
55	61	1
24	158	1
81	82	2
13	14	1
51	52	1
103	104	1
50	119	1
155	156	1
81	117	1
20	26	2
53	53	1
27	46	1
38	38	4
150	150	1
18	19	1
2	2	1
109	110	1
90	90	2
89	90	1
0	43	1
124	154	2
12	14	1
105	110	1
93	93	1
81	81	2
39	39	1
144	144	1
34	34	1
99	99	1
131	142	2
34	38	1
84	84	1
106	107	1
16	16	1
21	21	1
123	123	1
108	108	2
84	88	1
150	151	1
44	44	1
105	106	1
96	149	1
125	126	1
127	143	1
