86	86	6
96	97	8
33	35	3
76	76	7
54	54	8
27	43	10
19	25	2
58	59	4
106	107	3
87	89	4
76	78	8
110	110	6
44	44	6
63	63	6
99	101	4
70	70	6
47	48	3
28	28	12
78	106	4
66	66	4
66	67	14
62	62	9
28	32	3
37	37	5
109	110	2
69	106	2
113	113	6
67	68	11
79	79	6
28	30	1
83	91	3
35	35	4
59	59	10
68	69	5
80	80	8
45	45	7
77	81	3
90	94	5
43	46	2
55	67	3
40	40	2
22	25	1
73	73	10
89	90	2
27	42	2
74	91	1
69	69	3
48	49	10
55	55	5
103	104	5
99	99	9
70	113	1
38	38	7
51	53	5
86	87	5
77	107	3
72	75	4
84	84	2
83	84	11
82	91	3
97	97	7
103	103	4
95	95	1
47	51	2
79	80	7
88	88	14
27	46	4
105	105	16
75	75	10
26	30	1
21	21	5
98	99	8
84	85	2
27	28	4
83	83	4
91	91	13
92	92	9
44	48	1
27	27	6
42	43	5
77	77	9
112	112	5
31	36	7
78	78	8
53	54	5
73	74	5
94	94	3
108	108	5
52	52	4
63	64	6
50	50	4
101	102	10
111	111	10
89	91	2
87	91	1
91	97	2
40	41	3
82	82	6
103	106	3
44	45	1
24	24	5
29	30	2
82	88	3
89	94	3
106	108	5
107	107	2
115	115	13
102	102	16
44	46	1
19	19	3
102	103	13
113	114	6
51	51	8
25	34	1
31	32	2
34	69	1
69	104	2
81	87	3
35	64	4
25	25	5
53	53	7
82	83	2
77	78	3
100	101	5
86	88	3
89	89	4
85	86	4
39	53	3
26	26	6
37	66	1
61	61	4
55	68	5
100	100	7
40	54	2
49	49	2
87	87	9
31	31	2
46	46	3
71	72	5
101	101	4
59	60	2
68	68	3
83	98	1
34	35	2
98	98	4
102	107	1
43	43	5
101	103	3
30	30	10
80	92	3
81	81	1
96	96	4
49	50	2
27	29	1
59	61	1
85	85	8
109	109	2
37	53	5
87	88	2
80	81	3
80	97	3
33	34	4
32	32	5
42	42	3
64	68	1
57	59	3
33	33	4
20	23	3
93	96	2
90	96	2
65	65	4
26	53	1
26	31	5
105	107	4
54	55	5
81	83	3
27	31	3
37	39	1
104	104	5
42	44	4
93	93	1
70	71	1
83	85	1
32	35	3
72	72	3
56	56	5
107	108	4
58	58	8
28	29	4
96	99	1
114	114	3
34	34	4
106	106	2
65	105	3
55	62	1
108	109	2
62	72	1
60	115	1
95	96	1
77	103	1
83	100	1
45	46	1
64	64	1
56	69	2
47	47	4
71	71	4
56	57	1
30	35	1
93	94	2
39	39	1
35	69	1
100	104	2
36	37	2
26	28	1
20	24	2
81	82	1
21	22	6
75	79	2
28	31	1
30	31	1
93	103	2
59	79	3
112	113	3
94	95	1
76	77	2
97	99	1
74	75	1
40	51	1
36	53	1
31	54	1
69	108	2
32	33	1
22	22	2
60	75	1
91	93	1
22	36	1
100	103	2
93	99	3
37	55	1
83	96	2
25	36	3
68	72	3
29	32	1
97	98	2
105	106	2
25	60	1
110	111	2
34	68	1
71	111	1
60	63	2
104	106	1
61	65	1
65	82	1
91	92	1
99	100	1
92	97	1
