128	128	4
84	122	4
28	28	7
109	109	9
25	25	2
135	136	2
23	23	7
127	127	4
143	143	3
83	89	3
129	129	2
64	137	2
4	4	2
99	100	1
113	160	1
21	23	3
17	19	3
22	22	6
154	154	3
21	150	1
113	113	3
9	9	11
96	96	4
79	80	2
21	22	1
131	148	2
73	74	2
166	166	1
124	124	20
18	49	3
43	43	4
14	15	2
41	41	7
167	167	3
146	146	1
141	142	3
84	89	1
116	116	4
138	138	4
114	159	1
76	96	2
117	117	1
77	78	1
100	100	5
161	162	2
90	90	6
92	104	4
112	112	4
42	42	5
2	82	5
11	11	9
17	151	3
165	165	5
19	19	4
54	140	2
141	141	3
33	33	1
47	47	3
43	44	3
92	92	6
106	106	4
134	135	2
3	3	5
142	143	1
73	86	2
63	63	7
0	1	4
13	13	2
132	133	1
119	119	2
9	11	2
49	49	6
35	35	4
118	118	14
93	151	2
53	53	4
48	48	3
79	79	2
20	21	1
132	132	5
5	6	2
27	27	7
77	77	4
20	20	1
67	67	2
111	131	3
22	23	2
44	44	6
34	34	4
25	26	2
88	88	3
4	23	2
0	0	4
128	129	5
153	153	3
140	141	6
155	155	8
52	53	1
7	8	2
56	56	7
156	157	4
48	50	2
153	159	2
141	158	2
71	71	5
137	137	3
157	157	3
72	72	2
136	136	2
107	128	3
51	51	4
74	74	2
71	86	4
20	25	3
147	147	3
84	85	1
164	164	3
18	25	1
107	108	3
140	159	4
7	7	4
12	12	3
104	105	2
126	148	2
37	169	1
52	52	4
48	65	3
147	149	3
131	131	3
169	170	1
122	122	1
10	10	4
126	126	4
101	101	5
120	121	3
8	8	4
73	73	6
38	38	1
64	135	2
144	144	1
150	150	4
153	154	1
6	7	3
109	126	3
136	137	1
110	119	2
17	17	3
108	109	4
86	86	1
16	16	4
111	112	2
164	165	3
134	134	2
120	120	1
81	81	7
113	114	1
170	170	2
132	166	2
35	36	2
15	15	4
54	54	2
55	56	3
1	1	3
99	99	4
82	83	4
137	138	4
24	24	3
9	10	3
4	5	1
48	49	4
139	139	1
110	110	4
165	167	1
28	40	1
14	14	7
50	51	1
1	3	1
84	84	2
140	140	3
88	130	2
147	148	1
156	156	8
125	166	2
69	70	2
160	160	1
21	21	3
86	88	3
107	107	4
145	145	3
2	3	2
75	75	5
54	55	4
67	118	1
109	110	1
140	142	2
93	93	2
110	111	4
75	77	1
34	169	1
97	98	1
37	37	4
127	133	1
20	39	3
76	77	1
112	118	1
129	130	1
133	134	2
127	165	1
130	146	2
78	96	3
51	52	3
112	113	2
26	26	1
18	18	4
76	76	5
123	123	3
149	154	2
105	106	2
148	148	2
152	152	3
90	129	1
123	124	2
138	139	1
1	2	1
41	42	1
64	64	2
154	159	2
151	151	4
26	27	1
168	169	1
36	38	1
38	39	2
27	35	1
81	82	2
91	91	4
108	126	1
110	132	2
139	140	2
65	111	1
149	149	3
47	48	2
108	108	4
148	150	1
97	131	1
24	25	1
155	156	3
0	2	1
111	141	1
68	69	2
159	159	1
62	62	2
108	130	1
134	170	4
46	49	2
40	40	1
55	79	3
80	80	1
115	117	1
128	164	2
133	133	1
13	15	1
100	157	1
92	93	1
66	66	1
104	104	5
11	14	1
98	100	1
89	89	3
48	110	1
36	37	1
2	2	2
24	113	1
104	106	1
102	103	1
45	55	1
142	145	1
151	152	1
91	147	1
50	50	1
11	12	3
97	128	1
34	35	2
144	158	1
115	116	1
111	111	1
62	63	1
65	65	1
57	57	1
84	125	1
109	119	1
