103	104	8
70	71	4
13	72	3
67	67	10
79	79	20
74	76	5
26	26	11
107	107	6
29	29	9
52	70	10
54	54	11
104	104	13
120	120	9
87	88	10
123	123	12
91	93	6
93	93	23
134	134	9
83	84	7
90	91	4
98	99	4
82	82	6
45	45	11
64	64	5
129	129	6
76	76	15
46	46	5
82	83	2
27	28	3
73	126	2
71	71	20
94	119	4
86	86	7
101	105	2
127	127	17
108	131	3
112	135	3
79	80	16
86	96	1
57	57	6
14	14	8
74	74	7
122	122	17
87	87	9
63	63	17
57	129	1
48	71	5
102	102	7
118	118	13
78	130	1
129	130	7
97	98	5
48	72	2
43	53	4
78	83	9
90	115	4
11	15	6
30	30	15
94	94	21
90	116	3
112	112	17
95	95	9
71	122	4
15	15	11
49	50	7
12	12	8
114	114	10
92	92	15
120	127	1
54	58	1
115	115	8
32	32	3
91	92	3
119	119	11
96	96	11
128	129	5
121	121	4
91	96	3
20	25	5
58	59	3
21	22	3
93	94	6
70	70	20
44	44	10
57	119	1
72	72	11
69	126	1
122	123	15
125	125	11
124	125	1
131	131	10
75	75	13
15	18	5
63	106	2
43	43	12
77	78	5
69	69	18
7	7	9
100	100	7
120	129	2
80	93	3
28	28	3
88	109	5
108	108	12
4	32	2
83	83	6
112	125	1
65	74	7
55	55	11
106	106	8
130	130	14
88	96	3
86	95	4
62	63	3
45	52	11
84	84	4
84	85	16
6	19	2
71	121	2
49	58	8
113	115	2
107	108	5
55	57	2
0	1	7
121	122	7
113	124	3
1	1	4
7	9	3
59	59	7
3	3	17
94	125	1
33	33	1
92	98	6
63	69	3
55	64	2
80	94	5
56	56	7
68	68	12
58	58	12
101	101	14
52	52	6
126	127	2
18	20	3
30	35	4
78	78	5
60	60	6
53	54	1
19	19	4
22	23	3
72	80	1
80	80	9
0	0	13
91	91	9
61	132	2
33	34	11
65	65	3
21	21	11
97	97	14
23	25	5
108	109	7
73	73	13
62	62	10
65	85	1
35	50	1
2	2	5
97	99	4
49	55	3
61	61	6
99	99	15
8	10	2
85	85	11
89	90	3
86	117	1
109	109	21
72	81	1
31	31	6
27	27	14
65	91	1
95	110	2
90	90	18
125	126	3
9	10	2
103	105	1
60	62	2
65	67	3
133	134	5
66	67	10
133	133	3
111	111	11
29	30	2
126	126	4
8	11	2
15	16	3
88	88	12
132	132	18
77	105	2
110	125	2
33	97	4
117	117	6
72	73	2
34	34	3
10	10	2
47	48	4
62	85	2
111	132	2
110	110	14
93	126	2
62	130	2
34	96	2
116	119	4
36	36	10
73	74	3
124	124	5
6	6	10
50	50	3
108	123	1
80	115	3
54	55	2
65	92	6
80	113	1
65	73	4
11	11	3
35	97	2
11	22	3
12	54	2
77	77	4
86	87	2
113	113	8
38	86	2
35	35	3
48	48	3
32	33	2
72	129	5
56	132	2
128	128	5
83	107	4
3	4	4
89	89	2
117	118	4
16	16	8
13	13	12
63	77	1
55	56	3
76	80	3
6	31	1
49	49	5
47	130	3
24	24	2
103	103	7
79	108	1
131	133	5
116	118	1
73	81	5
38	38	1
92	97	1
106	109	2
25	25	9
62	73	1
70	78	1
119	120	5
64	77	2
90	94	7
65	78	3
25	26	5
53	58	2
18	44	2
118	119	3
8	26	3
56	119	2
53	53	6
19	21	2
18	19	4
132	133	4
60	61	3
107	131	3
7	43	5
7	11	2
27	32	2
85	86	2
61	62	2
57	58	3
61	81	3
9	44	2
107	111	4
105	105	11
105	111	3
62	120	2
79	115	3
98	98	4
54	84	1
22	22	4
116	116	8
19	20	3
47	47	5
130	131	4
114	121	1
61	72	1
45	53	3
8	8	6
80	81	1
120	121	4
25	27	3
5	5	4
12	14	2
78	106	2
112	113	6
86	130	1
87	113	3
47	66	2
78	82	5
26	32	1
110	111	3
89	123	1
99	100	2
56	63	1
68	69	3
57	60	1
81	81	2
26	79	1
108	110	3
109	110	4
9	9	4
66	66	4
14	15	2
86	113	4
93	115	1
31	36	3
30	96	2
106	107	3
56	65	2
102	103	3
121	123	1
42	43	2
92	117	1
5	6	2
14	17	1
35	37	1
78	84	4
131	135	2
10	19	1
78	79	2
78	108	1
37	39	2
90	99	2
61	67	1
106	108	2
14	73	1
116	117	3
49	53	1
81	82	4
7	19	1
30	74	3
71	72	1
53	76	1
82	107	2
74	88	3
44	78	1
23	23	2
26	27	3
7	8	1
77	130	2
101	124	3
44	45	8
62	80	2
79	116	2
38	87	2
18	18	2
111	118	1
99	105	1
37	38	1
86	104	4
7	18	2
78	117	3
77	101	2
63	75	1
15	17	2
65	79	3
30	32	1
78	109	1
118	130	2
94	95	1
96	125	1
77	131	2
67	97	3
4	24	1
129	133	1
38	97	2
4	4	1
9	11	2
24	25	2
65	66	2
71	131	2
64	68	5
94	124	1
73	101	2
55	101	1
0	72	1
45	46	1
107	110	2
42	78	2
63	64	1
17	17	2
77	109	1
57	118	1
112	123	1
20	21	3
75	76	1
6	27	2
14	31	1
10	44	1
63	88	1
71	135	2
112	124	2
86	134	1
12	75	2
85	105	1
116	134	1
18	77	1
48	66	2
46	47	1
114	115	1
69	70	1
16	44	1
2	3	1
34	97	1
90	103	1
61	86	1
66	77	1
112	131	2
36	95	1
91	99	1
102	105	1
71	78	1
62	132	1
91	118	1
108	111	1
64	67	1
101	102	1
99	101	1
106	133	1
85	132	1
113	117	1
62	111	1
78	80	1
122	124	1
111	112	1
