68	68	10
38	39	3
46	46	21
76	76	7
65	65	6
54	54	14
49	49	10
4	4	3
28	28	6
8	8	4
53	53	10
55	55	10
12	13	5
72	72	10
130	133	3
0	0	11
82	84	2
103	103	10
45	46	4
90	90	4
112	113	2
81	81	1
43	43	5
14	14	3
15	15	11
104	104	9
102	103	1
25	26	7
41	42	3
76	77	1
52	52	10
82	82	8
93	93	11
2	2	9
124	125	5
1	1	5
51	52	7
123	123	4
105	109	2
18	19	2
94	124	3
108	114	2
17	22	2
65	68	3
78	78	9
129	131	6
88	89	3
64	64	14
95	95	9
109	110	2
39	39	5
78	79	5
0	2	2
60	60	1
79	79	2
83	98	3
125	125	5
45	45	6
56	56	11
84	86	4
130	131	7
7	12	1
56	57	6
85	86	6
112	112	10
98	99	4
84	84	4
58	72	2
92	93	3
59	60	2
71	71	6
61	61	13
115	117	2
58	58	2
41	41	6
107	107	4
111	111	10
92	92	2
126	126	3
44	44	9
119	120	2
70	70	4
9	9	2
90	95	1
5	6	5
110	111	1
128	128	4
131	131	4
65	66	4
33	33	8
101	101	13
57	57	16
1	12	1
118	118	7
94	94	3
53	54	2
113	113	5
20	48	1
77	77	4
122	122	18
54	68	1
23	45	2
125	126	2
24	24	2
80	80	5
50	50	12
5	5	2
87	87	4
83	97	1
87	88	6
55	56	1
21	21	6
128	131	1
7	32	2
19	19	6
82	85	2
124	124	9
48	48	15
7	11	3
78	80	5
17	21	3
27	34	1
128	129	4
89	89	5
119	119	4
6	6	11
111	112	1
95	96	4
108	108	8
104	110	2
126	130	2
47	48	3
26	26	9
104	132	1
83	83	2
75	75	3
87	89	1
118	130	2
105	105	7
66	66	5
127	128	4
12	12	10
10	10	6
129	129	3
29	30	4
20	20	10
7	9	1
0	1	3
99	99	5
48	53	3
64	76	2
51	51	8
6	34	1
7	47	1
39	40	4
81	82	2
76	80	1
104	105	2
3	3	5
27	27	8
63	63	8
70	71	1
39	47	2
30	30	5
7	7	5
11	11	8
127	127	2
100	101	5
51	57	2
47	47	15
16	16	1
123	124	7
34	34	2
97	97	5
59	59	1
17	17	2
69	69	1
117	117	1
91	91	3
94	123	3
101	103	2
110	121	6
7	8	1
96	96	4
57	58	3
19	20	7
66	67	3
117	118	1
114	115	3
13	29	3
89	90	4
50	51	1
56	59	1
37	37	1
85	85	6
52	53	2
120	120	2
32	32	3
103	115	1
118	119	5
110	110	9
102	102	5
26	46	1
61	62	4
40	41	3
42	42	2
13	14	1
109	109	8
115	116	3
104	125	4
122	133	1
16	17	1
13	28	2
43	44	2
28	86	1
13	13	6
91	92	3
42	43	3
94	98	1
51	53	1
69	70	5
132	132	5
114	117	5
24	31	1
73	73	5
105	106	2
10	13	3
23	23	1
126	128	1
40	40	4
68	83	1
88	88	4
22	24	4
60	61	2
105	108	2
11	13	2
86	86	4
43	46	3
7	10	6
82	130	2
70	84	1
127	130	1
89	91	2
58	60	1
79	81	1
23	25	1
121	121	5
106	106	1
4	5	1
121	122	1
86	89	1
67	68	2
63	78	1
99	101	1
18	18	1
22	23	1
10	12	1
62	62	7
22	25	2
67	67	2
41	44	2
125	130	1
108	109	1
21	38	2
44	45	3
54	55	2
122	123	2
115	115	7
4	25	2
108	115	1
83	86	1
17	18	1
116	117	2
84	88	1
114	114	1
130	130	1
73	74	2
8	9	2
14	18	3
50	56	1
95	117	1
78	130	1
52	55	1
73	75	2
16	110	1
122	124	1
28	30	2
46	110	1
54	56	1
19	109	1
46	47	1
104	127	3
3	5	1
114	119	5
98	106	1
48	49	1
23	34	1
116	116	1
99	102	1
65	71	1
31	31	5
51	56	1
68	78	1
32	33	2
55	67	2
85	88	2
100	113	2
58	61	1
99	100	1
39	45	1
49	54	1
106	110	1
74	75	1
98	101	1
52	56	1
8	10	1
82	86	1
84	85	1
23	24	1
106	107	1
52	54	1
107	108	1
95	125	1
39	42	1
28	33	1
29	29	3
26	29	1
104	115	1
11	12	1
