158	158	10
149	149	28
14	14	28
9	9	22
107	107	11
118	118	4
70	70	13
81	81	10
19	19	22
5	5	22
15	17	4
6	6	19
159	160	6
3	166	5
110	120	1
53	53	15
144	145	4
63	63	15
132	158	2
108	109	6
5	11	4
105	105	10
96	96	22
52	52	16
120	120	4
57	57	8
82	82	16
7	7	14
130	131	8
8	8	4
85	85	10
134	134	15
151	151	9
131	131	20
164	164	17
17	17	16
69	69	11
147	147	9
41	41	20
157	157	13
156	157	3
70	100	1
38	38	12
94	94	10
71	71	7
24	28	3
28	28	7
111	111	20
4	7	4
108	108	10
3	3	13
96	130	4
77	79	4
141	141	18
160	160	6
128	128	12
42	53	4
90	168	1
40	49	3
136	136	5
16	16	19
79	79	9
21	23	1
141	142	3
21	22	5
18	18	23
53	99	3
34	34	19
5	7	3
2	2	20
2	37	5
15	15	11
1	1	21
168	169	6
38	44	5
129	129	3
6	13	1
169	169	6
21	24	1
12	12	22
110	111	2
155	155	13
100	110	1
26	26	18
20	20	16
109	110	5
48	48	9
22	24	4
140	140	13
117	118	8
39	40	9
83	83	12
64	64	11
18	22	1
133	135	2
93	94	8
55	55	10
65	66	6
86	86	15
112	112	5
112	113	3
119	119	12
74	74	14
146	146	16
87	97	2
153	153	20
13	62	7
108	144	3
11	11	13
27	46	4
51	51	12
72	73	4
13	14	3
17	21	1
37	37	8
2	27	3
133	134	11
42	43	3
57	130	1
25	25	20
50	50	11
125	125	9
167	167	7
72	88	3
35	35	17
148	148	6
88	88	9
87	87	19
102	102	11
56	56	10
150	150	12
76	79	5
49	49	13
27	27	9
157	158	6
74	75	2
147	153	2
92	93	5
166	166	11
53	54	7
55	123	5
21	21	8
44	75	4
113	113	8
44	44	10
65	123	1
45	45	18
72	74	1
47	47	15
1	2	9
93	93	7
36	36	16
24	24	11
58	62	3
68	69	6
110	110	15
163	164	3
64	69	1
20	24	3
135	143	5
144	144	15
116	116	11
114	130	3
17	52	1
4	5	5
40	40	8
167	168	5
152	152	11
17	50	3
35	36	6
39	39	8
147	148	10
101	102	6
22	22	19
123	127	3
91	94	1
104	105	7
0	0	14
97	97	2
113	122	4
140	143	3
115	116	1
19	20	7
125	126	9
132	132	13
36	56	1
76	76	12
161	161	6
166	167	1
22	23	4
133	160	2
158	159	3
99	115	1
91	92	6
106	106	15
8	10	6
165	165	6
50	69	1
43	43	21
129	130	15
20	46	1
17	18	2
34	35	4
57	62	1
67	67	8
124	127	2
42	113	3
78	81	2
110	113	4
83	84	4
45	47	1
105	128	2
10	10	19
106	107	3
13	13	6
18	19	1
24	25	13
16	70	2
10	13	3
143	144	6
25	39	1
10	26	6
68	68	4
66	86	4
50	55	4
8	20	4
135	137	4
91	91	11
163	163	7
39	57	3
99	99	12
144	146	2
15	56	2
4	4	6
117	117	8
4	6	2
54	54	15
100	100	5
74	111	2
135	135	15
114	114	13
72	72	7
46	47	1
138	139	5
139	139	9
17	19	2
133	133	9
8	9	3
44	56	1
89	89	9
42	42	10
138	138	10
64	68	3
114	166	3
106	110	2
19	86	1
71	147	2
84	84	7
104	104	3
120	122	5
115	115	10
81	140	3
168	168	5
126	126	19
66	112	3
142	142	10
156	156	2
141	143	3
153	156	3
109	109	5
80	81	1
90	90	7
47	56	2
159	159	3
80	90	4
75	75	4
0	1	8
0	88	3
89	90	3
117	122	1
127	127	10
129	146	1
148	165	2
8	90	1
7	8	5
121	122	2
53	106	1
67	122	1
148	149	4
128	129	6
162	162	9
142	143	4
57	63	8
122	123	3
135	136	10
70	87	4
88	89	1
75	118	1
66	107	1
96	97	6
122	122	8
46	46	16
137	137	8
95	95	7
35	44	1
15	155	1
64	66	2
23	23	3
9	11	2
24	38	2
14	15	12
161	162	4
8	22	1
123	123	7
77	77	3
73	73	10
140	141	8
53	100	2
132	133	9
7	152	1
126	135	1
118	119	11
3	7	4
130	130	9
47	48	3
139	146	4
34	36	5
5	6	3
37	38	1
123	126	2
65	100	2
6	7	3
13	155	4
161	164	1
44	45	5
124	125	3
73	84	2
157	159	1
100	103	1
24	45	1
73	74	2
88	90	2
19	24	1
56	69	2
107	109	2
119	144	3
111	112	5
149	151	3
44	46	4
20	22	2
149	150	5
151	160	2
33	44	2
100	101	3
86	87	3
6	21	3
138	143	4
7	35	3
90	91	3
96	114	3
27	28	8
69	70	2
145	145	5
58	58	4
76	77	4
16	17	3
92	96	2
47	49	4
67	68	3
76	80	2
113	114	4
14	52	3
52	53	3
133	151	1
107	126	2
114	122	2
62	63	1
170	170	2
114	119	1
156	162	3
162	165	3
16	89	1
27	143	3
98	99	2
80	80	7
136	137	5
115	149	2
142	145	2
54	68	1
23	24	4
92	92	9
103	103	3
124	148	1
64	87	4
145	155	1
2	26	2
98	98	2
122	131	2
70	83	3
123	124	4
98	103	2
154	154	2
64	67	2
17	24	3
54	56	1
15	26	3
139	140	3
4	89	1
40	41	3
49	50	1
154	155	1
87	93	3
152	153	1
34	134	3
18	84	2
80	82	2
121	121	6
9	12	1
66	66	4
169	170	4
139	166	1
50	51	1
118	121	3
11	13	1
6	14	2
22	46	3
107	110	2
153	154	1
47	57	2
3	4	3
78	79	1
131	132	1
3	42	3
163	165	1
54	55	5
37	41	3
48	49	3
20	21	2
66	91	5
110	117	2
81	139	1
143	146	1
79	81	1
55	131	2
57	68	2
38	39	1
136	140	1
124	124	4
26	41	1
9	10	2
160	165	1
114	167	1
81	119	2
35	53	1
45	143	1
109	111	1
138	157	1
94	95	6
162	163	4
155	158	1
44	53	1
105	106	2
33	33	1
35	140	2
16	22	2
65	65	1
38	46	2
134	158	1
23	86	3
142	150	1
14	18	2
48	56	2
114	145	2
34	42	1
53	56	1
84	85	1
104	114	1
11	21	1
85	86	3
11	28	2
27	40	1
145	146	1
116	117	2
70	85	2
65	108	2
41	148	2
98	119	2
130	146	1
15	153	2
107	108	2
40	56	1
49	111	1
143	143	1
41	56	3
38	66	1
73	113	2
38	40	3
119	120	3
8	13	2
151	155	2
134	135	2
136	138	1
161	168	1
2	3	1
90	93	1
78	78	2
18	21	1
24	47	1
134	139	1
114	115	1
94	96	1
140	170	1
142	146	1
16	21	1
137	168	3
105	112	2
81	120	1
146	154	1
86	113	1
5	55	1
51	52	2
33	35	1
99	103	1
52	58	1
116	128	2
49	52	4
16	150	1
101	101	1
55	56	1
11	167	1
66	67	3
37	42	3
91	96	1
139	149	1
146	149	1
98	100	2
152	155	1
35	42	1
23	37	1
71	83	1
131	147	1
141	158	1
74	80	1
126	133	1
17	42	1
21	38	1
