91	91	13
27	32	1
37	73	1
123	123	31
10	11	5
106	106	5
23	26	3
94	132	1
131	131	10
134	134	11
93	93	19
78	79	7
125	141	3
82	83	6
51	56	2
0	0	7
38	73	6
115	115	15
119	120	5
130	130	10
28	28	10
3	3	6
125	130	6
98	98	4
52	53	5
79	80	9
30	31	6
30	30	25
15	17	1
109	116	3
97	107	5
59	59	12
62	62	7
63	63	5
19	27	3
40	40	17
33	33	11
14	16	2
93	95	5
140	142	5
27	28	6
62	63	5
112	114	1
39	39	20
127	130	10
36	37	2
125	126	12
105	140	6
59	60	12
74	74	18
58	82	2
145	145	9
22	23	3
48	48	13
15	16	2
61	63	2
84	84	5
34	34	9
58	58	6
133	133	8
28	64	4
38	38	16
75	75	9
28	38	2
125	125	15
23	24	7
94	94	12
117	117	22
8	8	13
105	106	6
25	27	5
54	81	1
17	18	7
139	140	8
135	135	7
23	23	3
99	102	1
99	100	5
2	5	3
32	32	11
86	87	3
89	90	6
25	25	20
29	30	8
129	129	9
76	77	7
80	80	7
143	143	17
55	55	6
113	113	4
37	37	14
61	61	11
17	19	3
109	109	7
118	120	9
97	97	8
39	40	6
96	97	9
128	130	8
18	18	9
104	139	2
40	42	1
90	92	3
107	107	9
49	51	5
119	119	31
117	120	2
144	144	8
11	11	14
121	121	19
22	22	5
122	122	9
40	41	15
31	64	4
107	108	4
83	83	7
76	78	4
54	96	10
124	125	3
126	126	22
71	73	5
42	42	10
76	76	12
112	112	7
132	132	14
8	30	2
54	55	10
17	17	7
9	23	2
64	65	3
30	32	3
114	114	4
53	53	17
124	128	5
120	120	25
120	122	2
27	27	13
16	16	14
39	42	6
61	62	1
69	69	3
118	119	9
99	99	7
102	103	11
124	124	20
78	80	1
116	117	3
89	96	2
109	112	1
101	127	6
113	137	6
84	110	4
36	36	18
24	25	12
131	134	2
56	82	4
136	140	2
29	29	15
31	31	6
128	128	21
128	129	5
35	35	6
75	77	2
73	87	5
49	50	5
106	140	3
141	141	10
79	79	11
118	118	29
24	53	3
100	100	1
103	103	10
8	31	7
98	107	2
18	20	2
81	81	8
82	82	6
18	49	2
67	68	2
37	38	8
5	5	10
140	140	15
63	82	3
136	137	3
55	96	4
75	76	3
6	6	6
50	52	4
31	62	1
21	27	2
131	135	2
6	17	3
68	110	2
38	98	3
12	12	3
47	47	7
24	24	12
54	54	8
58	59	1
95	95	5
14	17	3
87	88	6
126	127	2
106	107	2
70	70	6
68	68	4
53	56	2
53	54	2
19	19	9
34	35	6
19	20	6
104	105	3
136	136	9
127	127	7
121	122	3
73	89	1
81	83	6
40	52	1
57	58	1
102	140	1
73	75	4
1	1	2
104	140	3
108	114	1
31	32	5
33	34	4
134	135	7
92	92	7
47	48	6
67	67	6
40	97	2
16	17	5
41	42	4
99	101	2
57	57	6
5	6	4
104	104	4
142	143	2
88	88	7
41	41	5
110	110	6
87	102	1
87	142	2
77	77	7
23	27	3
2	4	2
108	108	6
8	9	7
65	70	4
70	79	2
134	136	2
83	88	4
50	51	3
121	123	3
72	135	2
111	111	7
132	133	3
8	23	3
125	134	2
132	139	1
134	139	5
70	111	4
35	36	5
90	90	7
142	142	8
86	140	2
43	43	5
129	130	2
67	72	2
65	65	5
2	3	7
121	132	4
133	134	9
15	98	3
51	55	4
114	117	4
10	22	1
66	66	13
70	71	2
15	15	7
127	131	4
68	70	2
84	95	2
56	56	2
101	101	11
139	139	11
33	52	2
93	94	3
101	131	4
83	84	5
141	142	7
81	89	1
38	39	3
26	26	3
29	98	1
105	107	1
18	19	6
6	16	1
83	114	1
111	112	8
2	2	8
33	36	1
131	133	3
41	100	2
131	140	1
28	59	3
125	131	2
0	36	2
115	116	1
32	33	10
32	58	1
100	101	2
122	123	1
76	79	3
136	139	4
120	129	1
10	10	2
52	97	2
52	81	4
126	130	6
141	143	1
64	64	10
4	4	7
114	116	1
51	98	3
131	136	4
36	62	1
132	141	2
12	13	3
26	28	2
49	49	3
143	144	2
96	96	7
72	72	5
123	133	5
123	131	6
88	90	3
105	105	5
25	26	5
131	132	4
76	88	4
74	75	2
20	21	5
74	77	1
106	108	1
20	49	1
125	127	6
82	114	1
79	81	1
24	27	1
25	32	2
87	87	3
123	124	3
137	137	8
13	13	5
60	62	4
57	61	3
21	21	8
132	134	5
135	136	4
89	89	2
141	144	2
56	64	3
70	138	1
115	117	2
117	133	4
28	29	2
21	22	3
32	51	3
113	115	2
80	81	3
78	78	1
114	115	2
120	121	4
20	20	11
72	73	3
113	114	4
117	118	2
36	43	3
109	137	2
123	125	1
3	11	1
72	76	1
116	122	3
62	66	2
108	109	2
102	104	2
73	74	6
70	73	3
91	92	3
21	50	1
100	129	1
5	15	1
9	9	5
66	67	8
140	141	11
14	14	1
46	47	1
102	102	5
80	87	1
63	65	2
71	71	6
52	52	2
55	82	2
58	96	1
96	98	2
106	122	2
65	66	3
105	108	1
56	83	2
125	128	2
94	96	1
23	52	1
129	142	5
106	137	1
3	54	1
121	124	2
81	95	1
90	94	1
86	144	1
8	10	1
69	137	1
9	37	2
5	25	3
79	82	2
81	84	1
133	136	1
138	138	3
120	130	2
121	133	1
53	55	3
118	123	1
3	4	5
30	62	2
138	140	1
31	59	2
46	46	1
41	99	1
27	30	1
55	56	1
48	49	2
146	146	3
38	49	2
142	144	1
123	137	3
59	96	1
1	2	2
134	140	1
9	10	1
77	79	2
124	140	1
26	62	1
8	19	1
116	116	5
21	24	3
69	80	1
115	120	1
91	93	3
133	142	1
39	41	1
0	35	2
60	60	1
62	64	1
73	86	2
4	6	3
38	97	2
112	113	2
103	142	1
53	82	2
94	95	3
77	78	1
60	61	2
145	146	1
2	13	1
83	115	2
88	89	2
71	72	2
81	90	1
60	63	1
38	41	1
26	27	1
20	23	1
100	131	1
19	126	1
81	82	1
15	18	1
119	121	2
32	50	1
108	112	1
144	145	1
3	33	1
130	131	2
104	109	2
55	59	1
65	67	1
110	112	1
73	73	2
24	51	2
65	71	2
35	48	2
3	6	1
104	135	1
124	134	1
86	110	2
112	115	1
36	38	1
137	139	1
89	95	2
116	120	1
92	93	1
72	139	1
104	106	1
134	141	1
105	131	1
22	50	1
19	40	1
100	102	1
52	54	1
