68	68	3
197	197	11
165	165	14
3	3	5
176	176	4
55	55	1
104	104	3
132	133	6
176	178	5
65	75	3
67	67	6
147	162	4
12	12	7
116	116	3
191	191	9
101	101	7
25	25	3
111	111	8
14	15	3
172	172	13
137	138	4
183	183	14
161	161	2
33	33	7
154	178	3
10	11	1
151	151	7
142	148	2
157	157	5
77	79	2
185	185	17
106	106	1
58	58	7
84	84	2
50	51	4
123	123	3
51	51	3
10	10	5
21	21	8
118	118	5
105	131	3
13	39	3
27	30	5
132	144	3
54	54	10
195	195	6
120	120	5
43	43	6
67	69	3
46	77	1
181	181	8
139	173	1
182	182	5
187	187	9
52	53	5
27	27	8
99	122	2
124	125	4
25	38	9
30	30	8
190	190	9
180	180	4
141	151	11
130	133	1
125	125	2
113	119	5
173	173	5
147	151	1
46	46	2
152	153	3
189	194	2
148	148	6
23	25	4
196	196	6
8	40	5
2	2	6
42	43	3
1	2	1
168	168	4
29	29	10
113	113	3
153	160	2
9	9	6
188	188	5
137	137	8
26	27	4
31	31	2
47	48	3
157	158	4
135	136	3
175	178	8
3	8	3
119	119	3
89	89	2
22	24	8
94	94	6
178	179	3
87	87	2
159	159	11
149	149	14
34	34	9
113	120	1
104	114	3
175	175	3
64	64	5
136	136	5
176	177	11
28	30	1
158	158	9
35	35	8
20	20	8
70	72	6
179	179	10
57	57	9
130	131	1
173	179	3
194	194	5
55	56	6
160	160	6
103	103	7
163	163	11
86	88	6
140	140	10
166	167	4
83	83	7
169	172	2
145	145	10
60	60	1
77	77	3
63	63	4
65	65	1
1	4	3
6	6	5
138	175	2
105	105	4
184	186	4
80	80	2
144	144	4
102	106	1
23	23	4
17	29	4
4	5	4
153	153	5
104	106	6
100	100	6
150	150	9
17	18	4
116	117	8
171	171	6
186	187	3
196	197	3
141	171	2
82	82	4
96	96	4
127	127	7
163	164	5
164	164	5
101	110	1
19	19	5
158	159	2
46	50	4
32	37	2
33	34	3
79	79	4
121	122	1
11	11	15
0	2	3
85	85	3
131	131	7
78	78	4
108	135	2
172	189	5
134	144	5
179	180	1
107	107	8
41	42	2
143	143	2
155	155	3
115	115	3
11	12	4
130	130	6
192	192	2
141	141	1
173	180	3
42	42	8
52	52	3
36	36	2
195	196	1
189	189	10
182	193	2
72	72	4
176	188	4
108	108	7
140	161	2
95	95	1
39	41	1
147	147	8
4	6	2
56	56	7
117	117	4
135	135	1
1	1	3
28	28	6
18	18	3
61	61	3
44	44	3
31	38	2
26	28	3
150	151	2
6	7	3
142	142	3
86	86	3
22	22	4
37	73	5
20	21	4
122	122	2
70	70	3
32	32	6
113	122	4
147	154	2
83	84	1
45	45	3
94	97	1
62	62	2
184	187	2
26	26	1
131	144	8
9	39	2
156	156	4
147	153	4
171	172	3
0	0	1
136	197	1
134	140	2
179	181	2
181	182	2
174	174	1
100	101	3
118	187	2
69	69	1
114	114	1
67	68	1
31	53	1
141	185	2
4	4	3
14	14	8
147	158	2
128	128	2
90	90	1
113	126	2
59	62	1
135	143	1
139	139	7
168	169	3
190	192	1
128	129	7
53	54	2
105	106	2
158	160	3
44	45	1
30	34	1
53	53	1
172	187	1
184	184	5
19	29	3
17	75	1
126	136	5
5	5	3
170	170	5
148	185	2
93	96	2
137	154	1
129	147	1
29	30	2
148	149	8
81	81	1
34	36	1
186	186	1
147	167	1
132	142	1
27	28	2
142	197	2
170	172	2
126	126	5
45	46	5
7	40	3
0	3	1
110	110	7
10	13	1
38	39	1
31	42	2
134	143	2
1	3	2
93	94	1
189	190	2
151	152	6
193	193	5
34	43	2
140	154	2
103	104	2
149	150	5
41	41	6
102	102	1
16	17	2
150	154	1
130	132	2
84	85	2
37	39	1
185	188	4
134	146	1
13	13	1
178	178	2
108	109	2
22	27	3
133	153	1
133	133	3
46	152	1
139	190	1
97	97	4
107	151	2
34	56	2
104	105	2
96	97	2
119	121	2
133	134	1
8	11	1
172	173	2
168	188	1
37	37	1
40	43	2
194	195	1
16	16	1
109	109	2
190	191	2
78	81	1
134	134	3
71	71	2
183	193	3
175	176	1
24	25	2
132	164	1
138	143	1
89	90	1
188	189	2
169	169	4
129	129	2
162	162	1
47	47	1
42	44	1
144	145	1
134	147	1
34	35	1
186	188	1
134	135	1
17	17	2
134	137	1
25	26	1
7	8	1
138	142	1
59	59	1
154	154	1
4	7	1
159	160	1
125	127	1
29	31	1
177	177	1
134	153	1
146	146	1
189	193	1
143	145	1
160	161	2
7	7	1
99	99	1
107	108	2
189	195	2
170	191	1
39	39	1
102	103	2
138	138	1
123	124	1
169	174	1
79	85	1
88	88	1
