116	118	4
132	132	17
47	47	5
120	120	7
130	130	10
74	74	11
128	128	7
67	107	4
91	91	4
7	7	2
91	115	3
87	87	6
31	85	4
57	118	2
4	4	7
116	116	2
73	101	2
22	22	5
53	53	4
98	98	5
6	7	2
80	85	4
69	69	3
23	37	4
71	81	1
132	133	3
131	131	11
124	124	4
70	126	5
126	126	4
63	63	6
60	68	2
127	127	5
115	115	3
97	97	8
66	66	3
117	118	4
1	1	4
35	49	1
101	101	8
50	50	14
89	90	7
23	36	4
121	125	2
64	64	12
59	59	9
111	125	2
43	43	4
83	83	4
77	78	7
70	73	4
120	121	5
134	134	5
105	105	6
128	129	2
96	97	6
76	100	2
90	90	2
82	86	3
3	43	4
133	133	4
121	121	9
13	16	6
58	100	4
107	109	4
24	24	3
107	107	6
26	34	1
119	122	2
82	83	7
92	97	3
60	60	4
7	11	2
112	113	3
7	9	1
88	98	1
84	121	2
106	106	3
114	114	3
103	103	4
83	122	1
124	130	3
1	2	7
71	72	4
29	29	4
61	87	2
72	72	2
10	34	2
116	128	2
35	35	1
122	131	5
26	44	3
85	87	3
79	79	3
31	31	1
52	57	3
123	123	4
82	82	1
25	25	8
113	113	5
95	130	1
30	30	5
16	16	5
3	3	3
125	130	1
88	134	2
28	28	2
69	70	3
3	4	1
114	122	2
126	127	2
5	30	3
134	135	5
23	23	3
77	79	3
70	70	12
119	134	6
50	55	5
20	20	4
92	92	6
111	111	3
52	53	3
86	87	2
33	34	1
68	69	5
2	2	4
75	75	2
21	23	1
65	65	3
34	54	1
14	14	2
88	88	7
4	28	2
86	86	7
72	100	1
0	0	1
64	95	1
38	38	1
54	54	4
10	10	5
57	57	2
64	134	1
64	65	5
15	16	1
63	85	2
70	74	3
32	32	7
11	11	2
95	95	5
77	77	5
44	44	3
84	85	7
94	132	2
67	68	4
117	117	4
113	122	2
22	32	2
7	12	2
21	33	3
80	132	1
8	8	8
107	108	1
3	5	2
78	78	1
33	33	2
35	36	1
83	84	3
91	94	2
62	62	4
102	102	3
72	119	1
119	124	3
5	43	1
25	30	3
45	55	2
121	122	1
122	123	2
60	61	4
71	71	3
94	94	3
15	15	3
61	82	4
78	132	5
109	109	1
46	47	2
56	56	7
5	5	2
26	26	3
82	84	1
19	19	5
82	106	3
111	132	1
72	95	1
58	59	2
80	126	1
60	78	1
91	118	3
45	53	2
83	130	1
55	55	3
72	99	1
80	80	1
99	105	3
96	96	1
94	95	2
101	121	2
44	86	2
119	121	1
18	20	1
109	130	1
62	63	3
14	15	1
110	118	1
19	20	1
88	89	1
49	55	3
36	36	1
81	124	3
71	73	1
45	45	2
24	60	3
125	129	2
97	117	3
65	77	1
122	122	2
15	35	1
84	84	2
24	37	2
63	121	2
43	44	3
112	112	1
97	100	2
112	119	3
60	91	2
23	24	1
73	74	1
61	61	1
19	21	2
14	16	2
66	80	1
77	86	2
92	94	1
120	122	1
122	124	2
115	119	1
68	68	5
89	89	1
81	81	3
110	130	2
118	118	1
100	101	2
58	58	1
89	134	1
17	17	3
127	129	2
5	12	3
110	110	1
124	134	1
78	79	2
130	131	1
43	76	2
31	84	2
25	29	2
50	96	2
125	125	3
28	46	1
95	97	1
73	73	1
54	55	1
105	132	1
98	99	1
125	126	1
79	84	1
99	103	1
14	50	1
69	79	1
90	120	1
122	130	1
69	77	2
42	76	1
113	117	1
113	131	1
14	24	1
18	24	1
45	46	1
121	123	1
