139	140	6
88	105	3
73	73	14
128	128	30
74	74	8
27	27	3
117	117	20
136	136	11
97	97	17
91	91	6
13	15	2
131	133	1
125	126	5
76	76	6
68	69	5
15	15	8
5	5	4
121	121	1
69	69	5
18	19	8
128	131	1
66	66	7
129	129	11
126	126	19
58	59	7
86	86	14
65	65	4
105	107	1
135	140	4
1	1	4
101	101	15
42	42	1
49	49	10
104	104	6
100	100	4
95	96	1
97	98	5
82	82	10
131	131	15
72	72	9
98	100	3
111	111	11
53	54	4
54	54	10
62	62	14
22	22	13
68	98	5
83	86	9
124	126	3
2	2	2
28	29	3
114	114	3
124	125	8
55	55	7
24	25	1
132	132	16
40	40	12
117	119	3
15	16	3
38	38	14
122	122	10
20	20	13
80	81	7
108	132	1
111	113	6
36	36	6
34	36	4
142	142	11
113	123	2
93	93	4
71	71	7
131	138	2
132	133	8
88	88	6
113	113	6
57	57	5
137	137	5
137	139	4
61	63	1
104	105	10
23	23	28
50	50	11
124	124	6
95	98	2
82	83	2
138	138	5
23	119	3
141	141	18
2	4	4
21	21	10
99	99	7
118	134	1
119	120	10
112	112	2
53	53	6
120	120	20
26	26	7
58	58	14
68	68	10
103	103	9
109	111	1
37	37	7
56	56	4
12	12	4
18	20	1
3	4	4
145	145	6
84	84	8
99	100	4
68	94	1
94	94	3
54	55	1
115	115	6
60	60	7
72	139	3
18	18	9
132	134	1
10	22	2
19	19	13
126	134	3
114	123	3
4	4	6
112	113	3
106	106	3
51	51	4
39	41	2
3	13	3
24	24	8
138	139	6
105	106	5
81	110	1
17	17	6
47	77	1
87	87	7
8	8	4
101	102	6
87	96	3
131	134	4
134	140	1
144	144	21
139	139	13
3	3	2
125	125	17
127	127	12
6	7	1
59	59	4
113	118	3
22	118	4
75	75	2
108	112	3
118	118	4
85	85	7
80	80	12
81	81	5
31	32	3
47	47	1
96	96	10
35	36	4
98	99	3
108	108	4
133	133	6
43	52	1
79	79	2
48	48	6
66	95	3
110	110	8
50	71	1
32	32	3
111	112	4
76	119	2
140	141	1
103	104	3
23	25	3
83	83	3
41	41	7
66	83	4
78	79	1
126	141	4
79	80	4
129	130	1
105	105	5
119	119	7
119	129	1
92	92	3
4	5	3
122	123	2
126	127	2
143	143	8
103	106	1
102	102	7
114	117	3
51	52	7
0	2	3
134	134	11
62	63	2
77	78	2
119	141	1
104	106	2
128	130	2
35	63	1
48	58	6
56	57	1
81	84	3
117	137	1
89	90	13
57	58	1
11	11	6
39	40	5
135	135	10
64	84	1
50	51	1
37	38	1
95	95	7
32	33	1
42	61	2
73	74	4
130	135	2
63	63	8
76	77	3
2	20	2
120	121	4
143	144	2
5	9	7
64	65	2
67	67	5
82	87	1
117	144	3
90	90	1
70	70	6
112	119	2
144	146	3
123	124	5
116	117	3
136	137	3
118	119	6
77	77	4
135	139	3
25	25	6
115	117	1
38	39	3
14	14	1
78	78	4
92	93	2
107	111	4
119	123	3
80	102	2
10	25	3
130	130	6
87	90	2
23	24	2
76	78	1
25	27	1
107	110	3
70	71	2
22	23	2
61	61	2
36	39	4
123	123	3
64	64	3
16	17	3
128	133	3
107	107	4
66	67	3
94	95	3
10	10	3
53	60	2
81	90	2
33	33	1
75	76	2
131	136	3
0	6	1
90	128	5
142	143	4
36	37	2
79	84	1
146	146	1
127	140	2
79	91	1
115	118	1
49	50	2
83	87	5
29	29	7
137	138	2
16	16	4
11	49	1
79	87	2
121	133	1
111	116	4
29	30	1
9	9	2
137	140	1
117	118	3
62	65	1
94	98	1
77	97	2
42	43	2
118	140	3
104	135	1
17	24	1
88	90	3
13	14	4
91	104	2
0	1	1
30	30	3
19	22	1
74	131	1
136	138	2
132	144	1
33	35	1
136	139	1
138	140	2
142	144	2
123	125	2
59	61	1
73	118	1
24	117	2
89	89	3
108	109	1
88	89	1
99	126	1
41	50	2
98	98	2
56	58	1
67	124	1
55	56	1
24	26	1
124	141	3
56	59	1
119	126	1
1	22	1
71	72	1
10	20	2
121	122	2
4	13	1
69	70	1
33	36	2
30	31	1
61	62	1
12	14	2
114	118	1
26	27	1
105	109	1
39	39	2
1	2	1
110	119	1
77	119	2
67	76	1
28	28	2
79	82	1
116	118	2
128	129	1
106	128	2
80	85	2
67	71	1
130	132	1
70	102	1
114	115	3
87	89	1
140	143	2
129	133	1
20	21	2
84	86	2
75	127	1
81	92	1
65	108	2
96	97	1
122	134	1
85	109	1
140	140	1
106	107	1
133	136	2
35	35	1
25	26	1
5	25	1
9	20	1
137	141	1
53	55	1
100	101	1
9	11	1
92	94	2
115	116	1
65	67	1
74	118	1
102	105	1
10	17	1
22	28	1
102	104	1
5	6	1
32	36	1
13	13	1
113	114	1
4	11	2
107	120	1
12	25	1
