95	98	2
7	7	8
137	137	5
108	108	3
71	71	9
78	81	6
132	133	10
132	132	3
2	5	3
125	126	4
144	145	7
97	97	9
51	51	2
70	71	1
117	139	2
4	5	6
27	27	5
24	44	8
67	70	1
43	43	11
69	69	2
99	99	10
36	37	2
98	128	6
46	126	3
110	110	10
30	30	4
122	123	4
157	157	9
63	63	4
130	130	6
24	24	5
150	150	3
83	85	3
74	74	2
148	148	2
96	123	1
23	84	2
89	90	7
17	37	1
107	108	3
29	53	5
67	68	2
15	33	2
39	42	4
89	89	2
50	50	15
120	123	1
147	147	7
32	48	1
158	158	5
3	4	5
155	158	2
14	15	5
105	105	4
123	123	2
84	84	5
135	135	7
121	121	1
77	77	5
9	11	3
89	109	2
52	54	1
110	113	5
120	121	2
138	139	2
32	34	2
95	95	7
18	18	3
142	143	1
37	37	3
12	15	5
26	26	5
54	54	3
75	76	1
89	123	1
145	146	1
28	28	4
40	41	2
111	113	4
87	87	2
66	69	2
64	69	1
100	132	4
41	41	8
131	145	4
80	80	4
29	157	3
62	62	1
116	116	11
85	85	2
122	142	4
42	42	2
128	128	7
118	118	5
100	100	4
115	116	1
35	35	2
56	56	3
146	146	1
66	67	2
24	25	1
7	10	1
98	98	2
137	138	1
151	151	8
8	8	1
95	103	2
65	66	6
17	17	3
145	147	2
75	75	8
22	87	2
150	158	4
29	29	1
102	140	2
135	139	5
25	38	1
143	143	15
33	33	5
43	44	6
20	20	11
156	157	5
152	152	4
31	67	4
14	14	2
44	44	3
46	46	5
120	120	3
0	0	3
34	34	4
31	35	1
96	97	1
109	110	2
3	18	3
96	96	2
38	39	10
123	124	4
108	113	2
50	52	2
15	41	2
145	158	1
65	137	9
73	73	5
121	127	1
139	139	6
101	101	7
78	78	3
106	106	11
108	111	2
9	10	8
116	133	3
113	142	1
90	91	3
86	91	1
95	97	3
11	92	4
153	154	3
54	55	5
48	153	2
87	117	1
21	40	1
23	23	3
85	87	1
66	66	1
110	141	2
22	22	3
2	3	2
55	55	3
77	78	4
11	11	4
32	32	1
12	14	1
125	125	2
157	158	2
27	33	5
5	26	3
134	134	3
144	144	2
29	30	2
94	94	5
138	148	1
73	74	7
44	104	2
129	129	7
3	52	2
2	2	4
27	104	1
114	115	3
142	142	1
120	149	2
32	37	2
36	88	2
127	127	3
140	140	3
47	155	2
84	86	4
2	11	1
122	122	2
81	81	7
102	102	5
149	155	2
84	95	5
152	155	1
133	140	1
48	49	2
93	94	3
159	159	1
150	151	2
69	103	1
126	126	5
129	130	3
36	36	2
2	52	1
112	113	2
109	111	2
88	88	3
104	105	3
119	120	2
97	147	1
41	42	2
21	21	10
90	112	2
115	115	3
66	119	2
2	4	1
112	112	7
123	127	1
124	127	1
66	71	1
86	111	2
89	108	3
1	2	2
144	147	1
82	82	1
93	93	3
120	122	1
135	138	2
99	101	2
91	91	1
138	138	1
109	113	1
119	140	1
4	4	2
87	90	1
86	86	1
128	158	1
90	126	2
111	111	6
15	15	2
131	133	1
104	104	1
17	148	3
123	126	2
114	114	1
92	92	1
49	49	1
135	136	1
64	64	5
53	53	2
54	64	1
81	82	1
115	158	1
77	85	1
3	3	2
117	117	1
45	45	2
131	131	3
124	124	2
65	65	1
26	100	1
128	129	2
11	15	2
25	25	1
83	83	1
90	90	2
32	57	2
116	137	1
147	148	2
107	107	2
126	127	1
53	64	3
1	1	3
34	36	1
23	24	2
70	70	1
110	111	1
0	158	1
79	120	1
148	149	1
96	98	1
156	156	1
5	5	2
123	125	1
122	147	3
31	32	1
22	43	1
148	154	2
152	154	2
55	99	1
127	154	1
25	36	1
103	129	2
117	134	3
62	63	2
115	140	1
134	135	1
124	125	1
119	119	1
116	117	2
0	2	1
6	6	1
97	99	1
78	82	1
13	37	1
133	145	1
113	113	1
79	81	1
53	71	1
9	9	1
55	56	2
113	121	2
13	33	1
75	80	1
27	30	2
115	127	1
89	96	1
52	53	1
133	137	1
112	129	1
107	145	1
118	119	1
0	19	1
