100	100	4
22	106	2
73	73	7
44	44	2
78	90	3
63	63	11
35	70	2
120	121	2
12	12	6
118	118	2
114	114	3
87	87	3
89	90	3
11	60	1
15	16	3
4	4	2
108	109	3
82	83	4
64	64	3
45	71	4
49	55	2
26	27	6
131	132	3
38	101	3
66	66	5
132	133	1
44	45	1
127	127	1
78	79	2
55	55	3
71	71	1
74	74	2
68	69	3
32	32	4
107	107	4
23	24	1
96	97	8
9	9	5
102	102	1
26	82	1
79	79	6
90	98	2
130	134	4
126	126	2
87	88	2
93	93	7
7	26	1
116	116	3
62	72	4
120	120	2
81	82	2
18	19	2
121	121	4
113	113	3
109	109	7
57	57	8
4	5	4
44	74	1
109	116	1
96	96	3
41	42	2
13	13	3
43	49	1
82	82	3
112	116	1
28	97	4
38	38	2
7	31	2
19	19	5
15	15	3
119	134	2
124	125	1
28	28	6
79	81	3
56	56	4
36	36	4
85	85	2
21	22	1
76	77	2
36	42	1
84	95	1
75	76	3
119	119	4
131	131	4
91	91	2
97	97	1
111	115	1
59	59	4
63	68	2
19	60	3
88	88	4
115	115	3
83	94	1
117	117	2
80	80	5
76	112	1
22	22	1
39	45	1
8	47	2
105	134	1
83	108	1
25	25	1
7	11	2
107	126	2
34	34	1
51	51	1
38	39	2
90	92	2
74	75	2
2	75	1
18	18	4
108	133	1
12	86	1
5	5	2
130	132	1
31	31	2
5	15	4
21	91	3
17	17	2
61	61	3
10	98	3
41	43	2
81	81	6
87	89	2
91	92	4
10	11	2
37	38	1
40	40	2
12	29	2
92	97	1
11	14	1
50	50	1
125	125	1
97	98	1
67	67	1
84	84	3
106	133	1
106	106	3
104	110	1
73	74	1
60	60	3
20	106	6
70	70	2
59	60	1
111	111	2
12	99	1
62	62	1
122	122	4
92	93	3
128	128	4
83	90	1
94	94	3
27	27	1
11	11	3
130	131	1
20	91	1
42	49	3
35	36	2
60	62	2
23	26	1
5	48	1
121	122	2
92	92	1
20	59	2
3	3	1
37	42	1
27	97	3
115	121	1
35	35	2
16	16	5
66	75	1
97	99	1
90	90	1
41	90	1
20	97	2
4	30	1
6	43	1
11	92	1
63	69	1
120	122	3
30	45	3
75	75	2
99	99	1
115	116	2
9	25	2
68	68	1
69	69	2
111	112	1
30	30	2
85	92	1
129	129	1
130	130	3
45	45	4
116	119	1
79	80	1
95	95	1
38	90	1
98	100	1
22	103	1
121	130	1
104	104	1
61	62	1
125	126	1
108	108	1
5	14	1
36	100	1
3	75	1
103	110	1
6	57	2
3	74	1
2	2	1
23	23	2
20	21	1
98	101	1
21	130	1
20	20	1
83	83	1
59	81	2
76	76	1
25	101	1
26	26	1
56	90	1
24	83	1
126	134	1
11	33	1
42	43	1
27	95	2
113	116	1
114	115	1
17	59	1
112	112	1
44	47	1
