59	62	1
44	45	11
102	102	12
44	44	15
62	63	4
20	20	22
104	105	10
32	32	17
72	72	15
23	28	2
83	83	23
38	40	2
37	37	8
85	86	12
107	109	3
107	108	9
108	109	4
97	97	25
85	85	22
71	71	11
62	62	20
87	87	12
78	79	5
22	26	2
51	51	3
26	29	5
21	22	4
39	39	11
57	58	4
75	75	20
65	67	10
48	83	2
106	106	13
57	57	4
26	26	9
25	26	4
33	36	1
111	111	12
97	98	4
109	110	3
82	83	9
35	36	3
43	44	11
28	28	13
101	101	11
89	89	23
108	108	21
45	46	4
21	21	16
81	82	5
109	109	15
34	35	9
63	66	6
40	40	14
53	79	7
65	65	19
63	63	6
77	77	18
21	25	3
68	68	14
41	41	18
59	81	6
65	68	4
98	99	7
64	79	4
88	88	8
79	80	12
25	25	10
86	88	3
90	90	12
50	79	4
67	67	7
60	60	11
58	59	10
105	107	4
96	98	1
64	67	2
106	107	5
19	19	2
100	100	13
71	79	2
101	103	3
76	77	3
72	73	7
24	24	9
95	95	9
69	77	3
49	49	18
110	110	21
48	48	12
94	94	4
33	34	5
68	98	5
19	43	2
32	39	4
76	78	7
61	61	10
80	80	18
53	53	12
38	39	13
110	111	14
31	31	14
38	38	3
47	47	24
95	99	6
96	96	17
36	37	11
113	113	10
104	106	6
103	103	21
111	112	3
98	98	11
53	81	1
73	75	5
82	82	14
36	38	5
55	81	2
43	43	10
77	97	2
85	88	1
45	45	13
105	106	17
47	48	13
66	66	9
66	93	1
28	32	1
42	42	14
19	38	2
70	77	1
112	113	2
58	58	11
30	31	3
75	112	3
104	104	11
77	96	2
28	35	1
56	56	9
34	34	12
59	61	4
66	78	3
36	36	3
88	89	9
91	96	4
55	59	1
86	86	14
100	101	4
35	39	6
74	74	16
74	75	6
63	65	10
95	96	2
70	70	15
40	41	10
64	100	2
22	22	10
112	112	10
94	98	2
79	79	14
63	92	1
60	62	4
54	61	3
33	33	17
29	39	4
84	85	10
46	48	2
76	112	2
57	65	2
101	104	3
55	55	13
64	64	5
93	97	5
39	41	6
39	40	4
50	51	4
70	98	3
26	27	6
51	53	8
21	45	2
48	49	12
72	75	3
92	94	1
27	27	8
27	35	2
63	80	1
73	73	6
61	62	3
65	66	6
21	29	1
115	115	2
69	69	10
34	42	5
54	54	8
81	81	4
46	46	8
20	21	4
90	94	1
69	70	8
89	91	5
64	65	4
50	50	7
76	76	14
54	78	4
52	70	3
29	29	9
97	99	1
101	102	6
48	86	1
93	94	9
47	49	8
31	40	1
40	70	1
53	63	4
96	97	5
59	59	11
22	112	2
92	96	2
75	76	2
22	34	2
63	64	13
19	26	3
87	88	5
20	28	1
78	78	10
23	23	5
99	99	6
96	101	2
45	113	2
54	55	3
30	30	7
54	63	1
41	53	1
94	97	4
107	107	5
47	50	2
83	84	4
92	93	4
106	110	1
31	75	2
21	74	1
68	69	13
71	72	4
54	56	1
52	61	2
73	74	4
63	99	2
77	88	3
91	91	4
62	66	4
70	99	1
51	52	4
54	60	1
55	60	3
90	91	4
49	50	2
80	81	7
64	102	1
35	35	10
67	99	2
75	108	6
67	110	1
61	78	6
66	67	6
82	84	4
56	57	1
64	66	4
19	25	2
37	39	3
20	29	2
49	97	3
86	87	6
60	65	3
92	92	10
30	113	2
67	111	2
26	40	2
104	107	2
94	95	2
84	84	5
113	114	2
91	94	4
67	78	1
89	90	3
22	32	1
24	25	3
22	29	4
103	107	1
22	72	1
46	112	3
37	38	1
61	97	1
52	52	5
102	103	5
63	98	2
20	25	2
52	66	1
29	30	1
30	51	1
93	93	7
63	100	2
56	96	4
21	46	2
68	77	3
99	100	1
87	89	5
64	93	1
29	73	2
52	73	1
47	111	1
39	58	1
30	32	5
20	22	1
43	45	3
71	73	4
36	39	1
105	105	6
100	112	3
24	31	1
100	109	1
37	41	2
114	114	5
65	69	1
82	85	2
20	45	1
28	29	3
74	76	1
54	82	1
95	98	1
91	92	3
26	32	1
72	113	1
53	82	1
30	71	2
105	108	2
41	74	2
93	100	3
62	81	1
27	28	1
74	113	1
78	81	1
59	60	2
83	85	1
44	46	1
24	26	1
22	30	1
62	65	2
31	74	4
91	93	1
27	75	1
79	97	1
93	99	1
89	94	1
20	43	1
38	58	1
24	29	1
81	86	1
52	60	1
99	112	1
32	34	1
63	97	1
61	81	1
24	47	1
71	75	2
95	100	1
40	42	1
29	31	1
69	72	2
31	32	1
50	52	1
73	76	1
59	64	1
108	110	1
55	63	1
19	23	1
30	72	1
26	28	1
52	53	1
92	100	1
22	47	1
54	59	1
62	64	1
58	62	1
79	81	2
22	25	1
75	77	1
22	46	1
68	71	1
