29	29	7
15	15	26
68	68	5
11	12	4
150	151	3
24	24	12
150	160	2
111	112	2
145	145	14
4	4	19
68	96	6
27	28	3
149	174	1
145	151	5
101	134	1
7	8	6
1	4	2
2	3	17
64	64	8
85	85	9
22	23	12
152	152	5
25	25	28
52	52	8
34	34	10
1	1	7
116	117	5
3	3	14
44	44	17
75	75	5
41	41	17
109	109	6
43	43	9
18	18	9
175	175	8
41	42	12
36	36	16
38	38	16
176	179	2
2	4	8
12	12	12
166	166	4
148	148	9
149	150	8
128	128	2
86	86	4
105	166	1
140	140	5
176	176	4
157	157	7
9	43	1
4	5	8
98	98	4
13	13	8
35	35	20
26	28	4
106	122	3
55	57	1
103	105	4
62	63	3
42	42	20
117	117	5
107	108	6
11	64	2
147	162	5
19	20	9
53	54	4
85	86	3
5	6	8
125	125	6
148	149	5
5	15	2
78	78	11
173	174	5
32	44	2
72	74	3
10	13	1
17	17	16
32	32	19
64	65	2
3	4	7
6	6	10
44	45	3
113	114	4
33	33	23
98	103	3
33	45	4
44	46	2
39	39	12
28	43	2
28	40	2
12	13	13
63	64	3
130	130	10
97	97	11
40	40	13
14	34	1
90	90	4
50	50	19
110	118	1
9	9	8
101	106	2
151	157	3
129	129	7
169	169	15
2	25	1
157	159	6
31	32	4
7	9	5
121	121	7
44	50	3
39	40	6
157	164	2
150	152	1
107	129	2
6	7	2
108	142	3
63	67	4
127	168	1
95	95	4
132	133	4
97	100	1
11	11	12
28	28	10
46	46	1
94	94	7
62	62	4
115	115	5
24	26	4
0	0	17
37	38	10
5	20	2
114	114	10
103	104	5
16	17	6
23	23	7
157	158	7
14	14	15
8	13	2
22	22	8
35	36	4
171	171	10
55	55	8
30	40	1
110	111	5
109	110	2
17	18	9
102	103	1
24	27	2
26	26	11
1	26	3
164	164	4
10	10	14
168	168	4
30	30	14
16	18	2
34	36	4
147	147	5
179	179	2
136	137	1
119	121	3
144	144	8
127	147	2
165	166	6
133	133	7
170	171	1
52	53	1
83	84	4
62	73	4
180	180	7
105	144	3
138	138	5
53	53	3
68	80	1
145	155	2
176	178	2
21	22	2
96	96	6
32	33	5
160	162	6
141	141	6
65	66	2
104	104	5
123	124	4
99	99	4
37	37	10
23	25	3
133	134	2
149	149	3
134	134	4
138	139	2
99	100	1
20	34	2
60	60	4
11	19	3
66	66	14
6	20	1
76	76	2
34	46	1
145	165	1
118	118	3
21	32	3
132	132	2
71	72	2
108	134	2
92	92	2
27	27	7
165	165	3
120	120	3
84	84	10
124	124	4
63	75	2
102	102	9
153	158	1
81	82	6
119	119	10
161	163	1
155	171	3
43	46	2
18	19	2
119	120	3
134	135	1
26	76	2
136	138	2
127	129	2
8	10	1
86	102	1
18	22	2
21	25	1
152	153	2
162	162	7
136	168	1
2	2	10
81	96	2
172	172	5
67	68	7
78	93	2
27	76	1
59	59	5
107	107	3
167	168	2
107	119	2
160	160	9
114	115	4
139	139	3
42	43	4
12	20	3
8	8	9
142	142	3
11	25	2
93	140	2
113	113	9
62	65	2
127	128	1
73	74	1
159	160	4
7	7	12
74	75	1
18	21	3
135	135	7
101	101	6
82	82	5
32	34	1
1	3	3
78	90	1
5	5	13
71	71	2
155	170	2
93	94	2
61	61	7
36	37	8
8	9	10
155	155	1
16	16	18
56	56	5
21	21	5
63	63	5
81	81	9
139	140	1
18	23	2
19	19	7
29	31	2
95	96	3
37	43	1
15	16	3
116	116	3
58	59	4
77	77	3
37	40	3
58	58	3
174	174	9
89	98	1
10	14	3
177	178	4
166	167	3
104	105	8
152	154	2
25	76	2
123	123	4
60	74	2
174	175	1
8	45	1
156	158	1
91	92	3
88	90	1
170	173	4
104	138	1
51	51	3
111	111	7
12	26	4
29	30	5
112	113	1
20	22	1
43	44	7
62	67	3
7	35	3
9	10	1
79	79	4
142	143	5
15	17	2
11	13	2
19	21	4
19	23	1
109	126	2
36	43	2
167	167	2
131	131	4
11	15	1
112	112	1
4	9	3
137	137	3
25	26	6
108	121	1
75	76	3
89	89	2
7	13	1
20	23	4
179	180	2
7	20	1
20	20	3
170	170	3
126	127	3
111	118	1
57	57	6
159	159	4
34	45	1
153	153	4
67	67	1
24	25	2
73	73	6
35	37	1
149	159	2
108	132	1
150	150	4
95	121	1
87	87	2
38	39	2
122	122	6
87	88	6
28	30	1
108	108	2
82	111	1
126	126	7
136	136	1
53	59	1
56	61	1
31	31	9
2	32	1
131	132	4
80	81	2
45	45	3
109	111	1
91	91	3
1	2	2
146	146	2
68	71	1
105	105	2
72	72	2
158	161	2
146	156	2
66	67	1
55	56	6
158	159	1
103	103	2
122	126	2
164	165	1
158	174	2
87	89	1
109	129	3
156	156	4
74	74	2
154	154	2
40	42	4
76	77	1
83	83	4
156	171	1
15	21	1
49	51	1
88	88	3
80	80	2
168	169	1
34	35	5
157	174	2
102	106	2
151	151	4
61	67	1
117	118	1
33	44	1
126	128	6
163	164	3
155	156	1
4	147	1
163	163	2
98	102	2
127	127	1
14	26	1
71	124	1
97	99	2
26	30	2
106	106	2
146	151	3
80	83	1
92	93	1
27	41	2
92	94	2
108	133	2
56	57	1
5	18	1
0	5	1
105	143	1
13	14	1
77	121	2
83	87	1
31	76	1
14	17	1
14	15	1
10	12	1
124	130	1
38	65	1
125	137	2
5	7	1
130	151	2
4	6	1
178	178	2
45	50	1
83	85	1
11	43	2
20	21	1
108	109	1
177	177	1
0	37	2
24	28	1
63	89	1
56	59	2
1	5	1
13	52	1
95	143	1
106	143	1
28	29	2
36	44	1
89	90	1
13	25	2
38	43	1
122	134	1
54	54	2
77	79	1
123	125	1
45	46	1
29	40	1
22	24	1
11	30	1
160	161	1
22	28	1
111	113	1
60	66	1
143	144	1
96	143	1
128	129	1
154	155	1
26	78	1
147	148	1
30	31	1
157	161	1
23	27	1
65	65	1
110	116	2
14	18	1
61	63	1
167	172	1
88	89	1
147	150	1
6	10	1
78	79	1
126	129	1
108	122	1
162	163	1
