57	66	3
27	76	1
120	121	4
117	133	6
97	97	5
27	27	6
145	145	3
137	139	5
28	28	2
36	36	2
18	19	2
93	93	5
78	79	1
16	77	2
52	52	1
109	109	3
135	135	2
66	66	4
37	37	4
57	86	2
17	17	4
79	79	5
144	144	5
34	34	3
132	138	1
14	14	4
39	88	3
134	137	9
121	121	5
61	70	5
66	80	2
40	40	1
3	4	2
1	1	4
120	120	1
114	118	4
37	41	1
126	126	10
22	112	1
32	32	7
29	29	2
143	143	3
87	87	10
91	91	5
50	50	2
5	5	1
38	38	4
123	123	5
125	125	7
94	94	5
15	15	7
63	63	4
132	132	8
98	98	1
110	110	8
129	129	3
73	75	2
91	92	3
108	108	8
47	47	3
136	136	6
142	142	3
89	89	3
27	38	1
98	100	1
134	134	5
12	12	3
78	78	5
99	99	5
107	107	4
115	115	4
102	104	4
138	138	5
8	8	1
117	117	4
123	135	5
67	70	4
18	18	4
0	10	2
117	119	3
122	122	2
89	92	1
82	85	1
25	25	4
113	113	2
8	38	2
80	80	9
129	130	3
25	26	2
13	13	1
26	29	1
4	5	2
81	81	1
54	54	3
137	138	4
60	60	6
122	130	2
70	72	2
116	117	2
96	96	3
55	69	1
67	67	1
100	100	2
76	79	1
62	62	2
73	91	1
62	142	2
128	128	1
49	50	1
5	12	2
35	36	4
130	130	6
43	50	2
96	97	1
60	78	1
12	14	1
42	42	4
121	122	1
83	83	3
57	83	3
37	57	1
97	139	1
74	74	4
119	119	1
92	92	4
122	125	3
48	49	1
53	53	1
134	138	3
104	104	3
76	84	3
118	118	3
11	35	2
9	61	1
51	82	1
71	128	2
55	55	3
121	124	1
57	57	3
13	14	2
124	125	3
88	88	3
75	76	5
19	26	2
64	66	1
130	144	2
36	133	1
141	141	3
112	112	5
40	58	1
125	126	2
65	86	1
107	111	2
65	71	1
135	140	4
6	26	1
127	127	4
90	90	2
38	39	1
95	95	2
108	112	1
52	55	1
20	107	2
101	102	2
69	70	1
22	102	1
10	41	1
92	95	1
0	0	2
86	96	1
8	62	1
121	123	1
77	77	1
48	48	1
62	63	1
136	137	1
26	26	1
127	130	2
105	105	2
31	35	3
89	91	2
72	72	3
103	103	2
81	82	1
124	124	5
95	96	4
56	82	3
113	138	1
5	8	3
4	4	1
138	139	2
17	18	1
126	131	1
101	101	3
35	35	1
114	115	1
26	27	1
116	123	1
132	136	2
61	61	1
23	28	1
115	116	1
74	75	1
59	72	2
69	69	1
68	68	2
106	109	2
8	61	1
125	127	1
129	133	1
137	137	1
38	81	1
56	56	1
131	133	1
4	6	1
133	133	1
92	94	1
27	107	2
127	138	1
66	88	1
3	5	1
