27	27	12
25	26	6
91	91	15
39	39	5
40	43	2
43	44	7
95	106	10
70	70	13
65	77	1
101	101	8
47	48	5
95	97	3
83	87	5
66	67	4
46	46	2
47	47	13
53	54	12
33	34	9
67	73	3
79	79	9
26	30	2
40	45	1
36	36	6
65	65	23
27	29	6
45	48	4
62	62	14
97	104	3
26	41	6
77	77	15
58	58	9
39	81	2
103	103	20
80	80	21
31	31	8
30	45	2
44	44	13
41	45	5
98	99	6
82	86	7
45	45	4
88	88	14
92	92	14
84	100	1
32	36	1
100	101	3
98	98	8
48	49	8
90	90	11
67	67	6
61	61	11
41	43	8
25	79	8
26	49	1
51	52	5
54	54	8
74	74	16
29	29	6
63	63	14
36	38	6
81	89	3
95	95	15
89	89	8
26	43	2
50	104	9
24	24	2
40	40	14
26	47	2
22	22	11
21	21	10
29	83	4
86	86	7
68	68	19
90	94	2
96	96	11
36	37	3
33	82	3
50	103	5
26	26	12
52	52	14
25	25	10
37	45	3
37	38	2
62	63	3
85	85	15
55	55	13
22	89	2
71	102	2
99	105	3
83	83	2
46	47	8
69	69	5
28	28	9
30	99	1
76	77	6
58	59	1
43	50	1
26	31	2
40	41	5
86	87	5
39	75	2
90	93	7
32	32	9
26	78	3
100	102	1
97	97	5
65	66	5
23	23	8
60	60	11
105	105	2
58	61	1
20	28	2
93	94	1
35	46	3
95	96	2
19	34	3
28	88	8
72	79	1
84	84	9
67	77	3
34	103	4
106	106	2
24	103	2
71	100	4
103	104	1
41	44	2
56	56	5
90	91	2
42	45	3
67	76	2
86	88	2
92	95	1
80	94	2
45	83	1
82	82	7
50	50	8
43	43	8
91	92	1
61	73	1
81	101	4
81	97	3
45	49	3
100	100	10
74	76	3
23	24	1
50	51	2
94	94	17
69	70	1
31	97	1
20	21	3
34	34	8
44	45	1
30	39	1
79	80	5
64	64	3
57	58	2
25	41	3
89	90	8
30	30	11
40	44	8
34	83	4
78	78	5
65	76	2
93	93	4
53	53	1
33	33	7
99	99	11
74	77	4
71	71	8
57	57	6
97	100	3
104	105	2
62	64	2
80	89	1
41	41	5
50	77	2
96	100	1
36	91	2
61	62	4
21	65	2
66	78	4
51	54	2
38	39	4
42	44	1
87	87	5
51	51	12
69	103	5
81	81	8
95	102	1
70	71	3
52	101	2
82	85	4
38	58	3
66	66	3
40	81	1
49	60	2
68	70	3
76	76	7
88	93	3
104	104	4
57	59	2
71	73	1
30	98	3
23	100	3
72	72	2
73	92	2
38	38	3
85	86	2
23	89	2
21	22	1
68	69	1
71	72	1
23	103	1
56	58	1
35	35	7
82	83	1
20	20	3
31	90	1
60	78	1
22	100	2
68	73	1
56	57	2
26	98	2
83	86	3
37	37	3
78	79	1
102	102	4
32	38	2
44	50	5
59	59	2
79	81	2
82	84	2
72	93	4
75	75	8
35	36	3
24	25	1
96	97	2
67	69	1
50	69	1
84	85	3
32	37	3
89	94	1
91	93	1
94	101	1
42	56	1
58	79	1
73	74	1
73	73	1
30	31	1
48	48	2
52	53	2
71	96	1
27	93	1
29	39	2
28	29	1
32	33	1
38	60	1
21	24	1
41	76	2
89	91	1
87	107	2
88	92	1
47	89	1
96	105	2
26	27	1
67	75	2
47	71	2
24	93	1
28	30	3
38	80	2
72	76	1
32	34	1
38	76	1
30	82	1
99	102	2
70	102	3
97	105	3
61	65	1
42	43	1
59	60	1
59	80	1
