110	117	2
83	83	16
16	96	1
35	35	5
113	113	3
94	98	1
55	67	1
27	28	3
104	104	14
96	97	3
101	101	5
7	9	1
128	130	1
118	118	4
84	87	4
125	125	6
31	32	2
61	61	13
57	74	1
106	106	12
107	113	2
27	27	2
30	30	7
9	9	6
102	102	12
54	62	4
18	20	2
56	57	3
64	64	9
122	130	4
84	84	6
112	114	1
9	10	5
45	77	1
81	81	4
99	99	15
130	130	3
44	45	3
80	97	2
12	12	8
4	4	13
47	47	8
97	97	7
103	103	11
106	107	8
10	54	2
58	61	9
112	112	6
127	128	7
87	87	6
80	80	7
38	55	1
3	3	9
78	78	6
15	15	2
126	126	5
116	116	8
101	102	2
81	87	2
23	24	3
108	108	2
63	63	8
110	111	8
119	119	7
71	71	14
83	87	2
66	66	6
60	107	4
2	2	8
57	58	7
37	43	1
94	118	3
4	6	2
95	96	4
57	60	3
76	76	15
1	1	2
84	86	3
55	55	8
72	72	22
70	70	5
3	4	6
67	67	6
105	105	5
91	92	4
65	65	16
14	14	4
85	85	8
13	13	8
82	82	7
19	25	3
92	93	3
24	25	2
50	50	22
132	133	11
100	100	9
52	53	2
6	25	1
92	92	13
20	20	5
58	82	3
107	107	3
28	28	3
33	35	4
127	129	1
88	88	13
10	15	1
62	63	2
134	134	12
122	122	12
93	93	7
117	117	4
14	15	3
120	120	3
54	54	10
75	85	1
90	91	2
31	31	16
59	59	8
115	115	5
13	99	3
91	129	4
20	21	8
27	29	3
45	116	4
130	132	5
62	62	4
25	33	2
83	106	1
30	59	2
121	121	8
115	116	2
118	130	1
122	125	2
121	126	2
131	131	10
61	65	1
91	97	2
96	98	1
59	85	2
44	106	4
54	67	1
73	73	8
55	56	4
53	53	10
26	27	1
88	101	2
32	32	15
128	129	3
84	109	3
6	6	8
109	113	3
19	19	9
86	87	3
74	75	2
53	66	1
86	86	3
18	19	1
5	22	3
33	33	8
112	113	5
60	60	2
61	64	1
84	117	3
89	89	5
74	74	8
21	23	4
98	98	6
58	58	2
86	92	5
13	44	1
77	77	2
45	45	6
82	85	4
29	30	4
104	105	2
57	57	7
25	26	1
66	83	4
65	88	2
128	128	8
129	130	2
121	122	2
36	103	1
109	109	7
44	44	5
119	120	4
110	110	4
91	118	2
3	5	2
50	51	6
22	23	1
24	24	5
38	38	1
133	133	8
108	110	6
67	78	2
66	67	5
129	132	2
45	55	2
63	70	1
10	11	1
63	95	2
95	95	10
17	17	2
81	82	1
126	127	2
56	56	1
105	106	1
60	73	2
117	118	5
65	67	2
0	79	5
22	22	1
61	62	2
79	87	1
72	73	3
30	38	1
134	135	1
126	135	4
108	109	7
78	87	1
54	55	5
113	114	1
81	86	2
79	79	5
21	22	3
70	94	3
11	11	5
125	130	4
68	68	1
111	111	4
63	64	1
133	134	2
14	16	3
125	128	2
49	51	2
77	79	3
97	107	1
77	78	2
114	114	9
132	132	3
108	111	3
78	109	1
86	106	2
83	95	1
96	108	4
131	132	2
124	124	5
38	97	2
10	10	2
97	99	2
43	43	7
118	119	2
89	90	1
107	110	1
107	111	3
117	123	1
60	62	2
83	100	1
14	18	1
111	122	2
124	125	1
53	58	1
102	103	3
19	20	1
124	130	2
70	71	2
126	133	2
64	95	1
86	96	1
88	90	3
123	123	1
5	5	1
60	61	1
23	26	2
0	70	3
51	51	1
121	123	1
98	101	5
38	59	2
82	92	1
24	26	3
84	85	2
112	133	3
52	52	1
127	127	2
90	99	1
38	85	1
77	87	2
124	134	1
75	76	1
109	110	5
13	16	1
67	131	1
1	4	2
3	71	2
59	91	2
69	69	5
83	86	1
86	117	1
93	100	2
11	55	1
45	47	2
12	15	1
93	116	2
20	45	2
20	34	3
100	101	1
82	83	3
16	19	1
90	90	2
31	33	1
103	104	2
46	51	1
94	94	3
34	34	2
116	118	1
31	71	1
78	79	1
52	54	1
59	60	2
32	33	2
68	70	1
72	114	1
54	89	2
116	117	1
33	34	2
122	123	1
7	60	1
37	37	3
58	107	1
98	100	1
7	8	3
78	81	1
109	111	3
58	59	2
128	132	1
79	86	1
25	25	3
91	91	3
26	35	2
119	132	1
21	21	1
92	112	1
49	49	1
72	75	1
77	80	1
18	18	1
123	132	1
106	108	1
6	8	1
129	129	1
43	44	2
60	92	2
96	96	1
99	121	1
97	98	1
3	24	1
64	65	1
58	60	1
120	121	1
82	121	1
15	16	1
87	92	1
109	116	1
29	29	1
50	72	1
42	42	1
68	69	1
70	72	1
115	120	1
8	9	1
84	92	1
105	121	1
0	3	1
69	92	1
