85	85	6
125	125	4
90	90	3
101	101	1
110	114	1
65	65	5
86	86	5
113	113	7
59	59	2
58	58	13
117	119	4
92	95	2
129	129	7
101	102	2
84	84	8
44	44	5
71	72	2
13	13	2
132	132	2
12	13	1
100	100	3
67	67	1
36	37	3
111	111	3
99	128	1
135	135	3
118	118	6
64	64	5
106	108	5
126	126	1
62	81	4
5	5	3
110	110	8
47	47	3
77	77	7
62	64	2
88	88	5
80	121	1
50	50	2
52	53	2
49	50	2
93	95	3
2	9	4
27	27	3
27	28	2
32	32	3
0	0	1
25	25	1
73	73	5
14	14	1
84	100	2
63	63	2
76	76	2
87	87	4
124	124	6
117	117	6
4	4	1
45	45	2
68	69	5
106	106	5
91	91	5
80	80	9
112	112	4
118	119	3
62	88	3
18	20	2
60	88	2
3	97	2
114	114	1
132	133	2
127	127	4
116	118	2
52	71	3
96	120	3
56	56	2
72	72	3
122	123	7
61	61	4
115	125	4
69	69	7
133	133	4
66	67	3
6	11	3
19	22	2
23	26	4
123	123	3
78	78	6
43	45	1
93	93	3
57	59	2
114	115	8
29	29	2
19	19	4
17	27	4
94	94	2
120	120	2
122	122	2
9	9	1
13	15	4
9	11	3
37	37	4
69	70	2
20	20	5
62	62	5
128	128	3
74	74	5
89	89	1
108	111	1
17	19	1
34	34	2
82	82	2
31	31	2
47	121	3
106	131	2
17	17	2
11	43	2
16	18	1
79	79	1
12	60	1
105	105	1
107	107	3
95	95	2
89	103	1
45	46	1
16	20	2
102	102	1
50	52	1
108	108	1
3	4	2
7	48	1
97	97	5
108	109	1
113	114	2
83	83	3
1	43	2
15	16	1
18	27	2
1	2	5
60	62	1
75	75	1
83	86	2
30	30	2
10	10	1
12	18	2
53	53	2
90	112	1
83	84	1
43	43	2
81	81	1
105	112	1
61	84	3
60	60	2
129	132	1
131	131	3
119	124	1
16	16	2
70	70	2
68	68	1
103	103	3
130	130	1
68	78	1
121	121	6
54	55	2
21	26	1
8	8	1
77	78	1
104	104	2
30	31	1
28	29	1
112	114	1
106	107	1
88	100	1
134	135	1
99	99	1
52	57	1
116	116	1
109	110	2
13	43	1
134	134	1
115	115	1
47	48	1
33	33	1
