92	92	4
100	120	5
51	51	7
39	39	15
106	106	5
115	115	5
43	71	1
24	24	10
32	32	4
15	15	7
8	23	2
53	53	15
134	134	4
67	68	1
123	124	1
54	54	7
9	9	12
93	93	6
64	100	5
84	84	9
84	85	4
32	35	5
94	94	10
102	118	2
98	98	9
40	45	3
149	152	1
5	28	1
103	105	5
16	16	14
14	14	9
21	21	9
85	86	9
83	95	2
34	34	7
49	49	14
31	49	3
42	42	6
72	72	2
104	104	4
46	47	7
23	23	3
55	55	11
109	109	3
133	134	4
27	28	7
141	141	7
8	8	8
40	40	9
108	131	1
80	98	2
25	25	11
154	154	10
70	70	4
86	86	9
5	22	3
68	68	6
94	97	1
23	61	2
81	82	1
34	45	2
45	45	15
103	142	3
139	145	1
4	4	3
62	63	1
65	65	3
26	27	4
7	8	6
3	3	6
36	36	6
21	26	2
145	145	2
5	5	7
52	71	2
76	77	2
6	6	6
70	73	1
142	142	2
76	123	4
100	113	7
63	63	4
11	11	11
16	98	3
18	41	3
33	34	7
22	23	4
69	121	6
140	141	6
28	33	2
65	66	4
26	50	2
28	28	5
50	62	1
17	17	12
47	47	4
42	43	2
30	31	4
44	44	8
102	110	1
81	111	5
43	43	3
49	55	4
19	40	3
150	151	8
121	121	9
118	118	10
22	22	8
62	74	6
95	97	2
41	41	6
144	145	3
77	114	2
73	113	7
150	150	7
73	78	5
68	75	4
119	119	6
99	99	5
10	28	1
63	64	5
90	96	3
93	99	3
57	57	2
98	99	1
33	33	12
73	74	6
17	64	2
15	64	1
55	137	2
5	48	3
77	77	8
73	105	1
20	20	2
80	80	7
110	113	3
34	36	2
138	139	3
143	144	5
19	19	4
80	84	5
73	76	1
97	127	2
81	81	2
102	102	2
7	7	6
27	30	5
97	99	3
28	46	2
34	35	4
127	127	1
153	153	4
48	54	3
146	146	2
6	7	4
100	101	4
94	133	5
138	138	5
15	16	3
47	92	3
41	76	4
116	116	3
103	141	4
12	23	3
83	86	4
45	142	1
13	15	3
137	137	5
149	149	3
39	40	1
103	103	3
137	138	2
79	79	7
4	9	4
75	75	1
28	29	7
22	26	1
126	128	1
38	38	10
114	132	1
111	112	3
104	147	2
132	133	1
135	148	1
35	35	2
147	148	2
111	111	4
69	122	4
66	68	2
112	128	3
46	118	4
132	132	2
15	98	2
48	95	3
129	130	6
13	13	4
136	137	1
18	18	12
93	131	1
29	29	8
50	50	2
64	65	3
120	122	3
78	98	2
66	66	3
48	48	4
24	54	2
85	87	1
4	6	4
21	30	2
17	73	1
10	10	3
104	105	2
7	10	1
40	55	1
34	46	5
139	139	7
93	98	1
82	97	5
45	46	2
17	71	5
80	82	3
48	134	1
124	126	1
25	26	1
126	127	1
112	132	2
81	128	3
128	128	1
100	129	1
78	133	6
123	123	2
50	126	3
65	73	5
52	52	1
131	131	4
67	67	4
134	150	2
96	96	5
57	61	2
46	46	7
53	54	1
106	115	2
119	122	2
92	97	2
84	111	1
31	31	5
27	27	3
4	11	2
12	12	5
29	50	3
74	105	2
131	133	1
93	100	1
5	6	2
12	29	1
71	71	6
88	95	2
15	63	3
119	124	2
8	9	3
78	82	1
37	38	1
100	100	1
115	116	1
130	130	2
120	120	4
10	19	1
15	55	1
80	128	2
25	30	4
54	55	1
105	106	3
117	117	2
86	94	3
112	113	3
15	57	1
56	96	2
30	30	3
6	10	1
82	82	4
118	119	1
58	58	2
30	43	1
3	5	3
41	42	3
94	127	1
74	112	3
64	64	1
111	121	4
83	93	2
75	76	1
85	85	6
47	102	1
151	151	2
136	138	1
56	56	5
87	87	2
73	77	3
146	149	3
73	73	2
110	110	3
147	147	2
23	30	8
26	34	2
55	133	2
4	5	4
62	62	1
83	83	3
25	27	2
74	74	2
49	84	2
69	76	3
94	95	1
5	11	1
12	15	2
2	2	2
78	78	4
135	140	1
82	126	1
4	16	1
63	125	1
81	98	1
122	122	2
100	135	1
75	123	1
125	125	5
144	144	3
129	133	1
108	108	5
105	105	1
144	146	3
55	98	1
11	20	1
28	36	3
82	83	1
115	119	1
76	114	2
69	70	1
57	126	1
104	116	1
75	114	1
85	93	3
38	39	1
49	81	2
36	40	1
83	127	1
124	124	3
72	73	1
148	151	1
74	110	1
4	23	1
22	25	1
17	18	1
80	81	4
140	145	1
133	133	4
119	132	1
10	41	1
52	55	1
112	112	2
56	83	1
88	88	2
48	49	1
145	146	1
3	43	3
79	128	1
69	71	1
97	97	2
56	61	1
43	131	2
100	133	1
95	95	1
106	133	1
76	76	2
16	25	2
55	94	1
10	18	2
102	109	1
70	109	1
143	143	1
12	13	2
74	75	2
14	92	1
140	142	1
63	73	1
55	56	1
69	117	1
137	146	2
107	107	1
76	78	1
32	34	1
82	125	1
26	26	1
9	10	1
13	14	1
97	114	2
57	98	1
101	126	1
69	69	1
68	122	1
