100	100	13
96	97	2
18	18	10
132	132	12
135	135	8
27	29	2
109	111	4
130	130	14
29	29	6
122	122	12
110	110	6
120	120	7
115	115	6
138	138	12
133	133	16
114	115	2
111	111	16
7	26	6
90	90	5
139	139	16
113	114	4
8	11	1
118	119	6
3	20	2
116	125	7
74	89	3
0	1	5
5	5	4
88	88	4
132	134	5
128	128	15
74	86	4
89	89	12
121	122	3
77	77	6
37	94	6
13	13	12
100	101	7
1	3	3
92	92	5
81	81	7
122	123	5
134	137	5
112	112	21
98	98	10
4	100	2
107	115	3
24	25	4
99	99	11
9	15	4
101	101	13
94	95	10
27	27	1
103	103	4
17	17	7
98	99	5
123	123	13
20	21	2
113	113	11
38	38	3
87	87	7
72	73	4
83	83	7
22	22	6
121	121	9
6	7	1
26	26	5
4	5	2
136	136	7
126	127	9
118	118	1
3	3	4
84	86	1
112	113	2
6	23	2
114	114	10
82	82	8
109	112	2
128	129	2
140	140	8
0	0	7
129	129	10
124	125	3
123	124	12
2	2	3
134	134	11
79	79	6
137	137	2
129	135	4
95	134	1
35	35	4
4	4	8
10	11	4
114	125	1
133	135	3
76	76	2
125	130	2
100	107	4
102	102	1
127	127	13
82	85	4
125	126	10
71	71	7
42	91	2
102	106	1
23	23	3
76	77	1
5	7	1
123	127	4
80	80	3
117	122	2
108	108	2
101	102	1
25	25	2
129	130	1
125	127	4
119	119	2
20	20	3
19	20	4
99	100	1
103	106	4
85	87	2
90	91	2
25	30	4
95	95	3
131	132	6
94	94	2
2	3	1
78	81	1
102	107	1
76	78	1
6	6	8
95	96	5
129	134	3
104	104	7
11	19	2
80	81	1
80	110	1
84	84	3
8	9	3
84	103	1
8	8	2
124	124	6
75	76	2
28	33	4
105	108	3
119	120	3
117	117	4
34	34	4
131	131	8
135	136	2
11	11	2
14	14	2
74	74	5
85	85	4
17	18	2
14	28	2
123	125	2
21	21	5
132	133	2
84	85	2
75	110	1
31	31	4
29	32	3
93	93	4
123	126	1
18	21	2
96	96	5
116	116	6
15	28	1
91	91	8
75	75	2
127	128	8
116	117	1
106	106	2
36	37	4
7	7	1
33	33	6
110	111	5
134	135	1
28	29	1
32	32	3
107	108	1
19	19	1
125	125	8
36	128	4
27	32	2
92	93	1
8	101	3
126	129	2
4	128	1
16	37	1
15	15	1
10	10	1
107	107	3
29	30	4
126	126	5
35	36	2
129	133	2
34	35	1
73	73	5
88	89	3
86	86	1
111	112	1
83	84	4
4	17	1
75	77	3
95	108	1
136	137	3
127	131	1
93	103	1
15	16	1
83	85	2
120	122	1
109	109	2
7	23	1
36	36	2
5	6	2
128	133	1
117	124	2
91	92	3
2	18	1
109	110	1
104	111	1
77	82	1
23	24	2
4	20	3
134	136	1
139	140	1
24	120	1
106	107	1
111	122	1
91	93	1
5	12	1
104	107	1
71	107	1
94	101	1
12	22	1
114	117	1
117	118	1
124	126	1
133	134	1
114	130	2
103	107	1
97	97	1
22	26	1
6	26	1
