57	57	3
26	26	15
90	92	2
30	30	14
109	114	4
35	55	3
104	105	5
86	87	3
25	26	7
46	47	11
66	66	7
109	109	14
55	55	4
80	80	12
111	112	2
36	36	13
38	38	10
98	98	16
30	34	4
48	48	7
28	28	9
64	64	3
77	77	7
110	110	14
29	29	9
95	96	8
93	97	4
39	39	14
97	97	20
19	19	9
59	59	6
34	35	1
44	44	13
55	57	4
111	111	16
91	91	12
100	109	3
83	83	8
95	95	23
90	91	3
28	29	8
109	110	9
47	48	10
58	58	8
46	46	11
110	112	2
53	60	1
112	112	4
79	79	14
22	22	15
31	31	11
105	105	11
90	90	14
27	32	5
50	50	7
89	91	8
26	27	9
67	67	9
34	53	1
51	51	4
103	103	10
35	35	5
98	99	3
108	108	11
75	76	8
73	74	8
76	77	8
47	49	2
111	113	6
101	103	2
32	32	14
42	42	8
94	94	9
72	72	9
70	88	1
68	70	2
38	39	6
40	40	11
49	49	11
82	82	17
41	70	2
24	25	1
113	113	6
24	24	3
99	99	7
104	107	7
52	52	3
25	25	4
33	34	15
104	104	11
34	39	4
77	78	4
63	64	2
53	53	5
47	47	8
89	99	1
74	74	8
107	109	2
91	95	1
36	68	4
81	82	4
68	68	11
78	103	3
81	81	11
105	106	5
102	103	3
74	76	4
36	57	1
63	63	7
102	102	15
84	92	3
114	114	16
71	71	9
99	103	6
32	60	4
101	102	5
54	55	6
96	96	12
66	73	3
20	21	2
33	33	10
50	51	5
49	50	11
77	79	3
35	36	7
92	92	3
108	109	3
100	100	11
70	71	3
26	61	1
100	101	8
22	24	4
39	40	15
94	95	4
85	91	4
60	68	1
41	41	5
35	51	1
69	69	8
100	110	1
69	71	2
42	45	4
101	110	3
43	43	11
84	84	6
107	107	8
33	61	1
82	84	5
21	21	6
36	37	3
40	41	1
61	61	11
89	89	6
47	50	1
107	108	5
46	51	2
92	93	7
86	86	1
98	103	3
53	64	2
58	59	1
73	73	8
72	73	7
67	72	1
64	67	1
37	38	4
76	76	11
31	32	6
27	28	9
88	88	6
113	114	4
44	45	3
78	78	5
31	52	2
38	44	1
71	72	2
36	38	1
32	50	4
41	42	9
33	42	3
101	104	3
30	31	5
70	74	2
68	82	4
51	63	1
94	96	3
34	34	9
93	94	4
61	62	2
48	50	3
48	49	5
71	80	1
106	106	1
68	69	4
59	60	3
43	44	3
56	57	1
93	95	2
45	45	6
33	39	3
23	23	1
44	48	2
85	85	3
71	79	3
62	63	1
93	93	8
91	93	2
19	22	2
70	87	2
66	67	5
103	104	3
96	98	1
84	86	2
105	108	1
94	97	1
60	62	1
70	70	3
75	75	8
62	62	1
92	97	2
40	70	2
37	39	3
96	97	3
89	90	1
101	109	1
85	86	2
38	42	3
43	45	2
56	61	1
62	74	1
87	88	1
29	30	3
37	37	6
66	72	4
34	38	2
35	74	2
52	69	4
79	110	1
67	69	1
99	100	3
81	84	1
71	89	4
83	84	6
95	97	5
103	108	1
80	90	2
22	23	1
82	85	4
101	101	9
33	40	1
24	26	1
97	98	4
33	52	1
34	58	2
97	103	1
44	50	3
63	65	1
33	58	2
80	81	2
82	83	2
78	85	1
97	99	1
72	79	2
67	73	3
27	27	4
88	91	2
57	58	2
34	60	1
62	65	2
87	87	2
85	92	1
45	51	1
78	79	1
42	43	1
73	75	1
69	70	3
65	67	1
33	35	1
112	113	2
32	33	2
93	96	2
56	56	2
35	75	1
67	68	1
23	24	1
94	98	1
25	28	2
45	46	3
91	96	1
80	95	1
35	38	1
25	27	1
84	85	1
74	75	1
78	88	1
38	43	2
64	65	1
81	90	1
60	60	2
78	86	1
32	51	1
74	79	1
40	80	2
100	103	1
32	61	1
79	80	1
75	77	1
88	89	1
