11	12	4
33	34	9
90	94	2
120	120	5
12	15	2
30	30	18
95	96	7
6	6	10
76	77	8
63	63	16
132	132	4
10	10	10
4	6	10
19	19	14
85	85	19
64	64	6
109	128	2
26	26	20
8	9	2
22	22	5
35	35	11
46	46	10
8	8	4
93	93	19
122	122	8
81	82	7
62	63	3
34	35	9
57	57	5
71	71	8
47	47	11
24	26	2
14	15	2
101	101	16
24	24	12
63	64	3
13	13	3
102	117	1
16	16	1
94	94	12
5	8	2
28	28	8
66	66	8
68	68	12
14	21	3
17	17	12
70	70	9
18	18	20
65	66	7
97	97	5
46	78	2
33	33	8
117	118	1
71	72	9
23	25	7
13	14	4
59	61	1
31	31	7
11	11	14
65	65	10
107	107	5
130	130	11
20	21	5
100	100	7
108	108	2
87	87	4
45	46	4
21	84	2
111	113	2
28	29	3
7	8	7
109	120	2
89	91	3
115	115	5
96	96	11
90	91	5
133	134	3
48	48	8
37	37	9
24	74	5
127	128	3
3	3	17
29	29	11
72	72	8
83	96	3
73	73	17
70	71	2
29	48	6
111	111	6
45	45	9
77	77	8
61	61	9
116	116	9
78	80	5
75	75	17
119	120	6
80	80	3
113	114	5
36	36	3
34	34	15
44	44	11
58	58	7
0	1	1
75	76	7
109	109	6
92	92	10
79	79	7
81	81	7
9	9	15
127	127	4
56	56	1
67	67	15
79	80	6
32	32	10
40	77	1
42	43	7
12	46	2
59	59	10
73	74	4
82	82	5
5	5	3
60	60	15
24	83	3
123	123	7
17	47	1
0	0	7
82	84	3
25	26	5
12	12	15
117	117	3
121	129	1
47	49	2
83	84	4
82	83	3
84	85	2
15	20	1
9	29	2
118	118	4
73	122	1
42	123	2
51	55	4
20	23	5
67	69	3
87	88	2
110	130	2
8	10	1
99	100	6
25	25	4
129	130	4
121	121	7
60	77	2
129	129	5
121	122	5
111	112	5
40	40	1
95	95	16
32	34	1
86	87	1
26	27	4
41	41	3
29	32	2
116	117	2
128	128	1
39	82	1
125	126	2
97	99	1
64	65	5
84	84	6
27	81	4
16	28	1
12	13	6
101	109	1
57	78	1
86	86	5
77	78	10
27	80	3
113	113	11
26	43	3
14	14	1
110	110	3
35	36	4
83	83	6
105	105	3
108	109	5
85	86	3
78	79	2
30	32	1
67	68	2
78	78	8
43	43	7
71	78	3
109	129	4
28	35	2
26	78	4
56	82	1
38	99	2
33	35	1
3	4	5
93	94	6
121	123	2
7	15	1
66	67	2
20	20	3
102	110	2
111	117	2
125	125	6
77	105	2
39	39	1
94	95	2
10	14	3
33	60	1
43	45	1
114	115	4
46	61	3
69	69	5
19	20	4
46	47	1
103	108	1
47	61	2
84	94	3
25	78	4
72	73	2
134	134	3
48	92	2
124	124	3
126	126	3
85	120	2
84	95	2
128	129	3
5	6	4
11	93	2
70	76	1
102	130	3
59	60	3
76	76	6
42	125	2
18	19	1
133	133	2
91	91	3
96	97	2
31	87	4
68	70	1
84	86	3
102	127	5
68	73	1
27	27	4
23	24	2
89	93	1
27	47	3
16	37	1
29	59	3
96	98	5
38	40	4
131	131	1
66	75	1
68	69	1
60	70	1
90	90	1
15	15	4
88	88	1
24	25	2
37	39	1
60	61	3
27	36	1
9	10	7
57	85	1
45	71	1
115	116	2
94	96	1
60	74	2
16	20	5
114	114	3
78	82	1
62	62	2
42	122	2
58	59	2
63	66	1
112	112	2
25	47	2
101	116	1
11	13	2
15	40	2
31	32	2
102	114	1
16	17	2
87	124	1
102	102	2
24	41	4
1	2	2
8	36	1
21	21	2
124	129	1
89	94	1
119	119	3
26	92	1
71	73	1
1	1	1
47	48	1
24	49	1
88	91	1
42	42	1
120	121	2
20	22	1
23	23	2
110	120	1
16	48	1
63	70	1
74	74	1
33	47	1
62	67	1
10	19	2
4	12	1
35	61	1
4	5	1
45	64	1
15	16	1
45	75	1
104	126	1
41	43	1
55	56	1
58	78	1
122	123	1
32	33	1
112	113	1
14	72	1
93	102	1
87	123	1
124	125	1
84	123	1
110	111	1
85	94	1
90	92	1
