102	107	2
152	152	5
121	121	4
105	105	6
180	181	1
7	7	7
98	98	7
36	37	2
39	39	2
167	169	2
84	84	2
146	165	2
72	75	1
42	42	2
75	76	3
55	85	2
54	54	7
33	34	3
28	29	2
80	82	1
32	32	2
131	133	1
185	185	1
155	156	2
188	189	4
87	93	2
31	36	2
146	177	5
12	13	2
59	76	2
62	62	5
164	166	1
127	128	5
145	159	1
35	36	1
109	110	3
166	166	7
149	149	9
94	94	18
13	14	2
173	174	2
74	87	3
28	28	1
127	127	3
100	107	6
188	188	1
101	101	2
162	163	3
161	161	4
12	12	9
138	157	2
38	38	2
148	148	5
131	175	2
145	145	8
132	132	3
137	139	3
45	45	2
103	109	1
5	5	2
130	130	3
123	123	7
21	22	1
138	139	2
122	122	8
97	98	1
34	35	6
14	19	2
2	2	1
0	1	2
83	83	4
11	11	3
62	66	2
59	59	4
74	74	14
22	22	4
103	103	5
115	115	4
135	137	3
96	96	5
147	166	4
147	147	6
100	103	1
97	97	1
183	183	2
82	82	4
4	4	3
72	72	4
130	133	2
123	128	1
100	100	3
138	138	4
79	79	2
157	159	1
155	155	5
16	16	5
44	45	7
18	19	1
23	47	2
25	25	3
31	31	8
13	13	2
147	169	1
64	64	2
179	188	5
182	183	1
59	63	1
134	136	1
160	160	5
38	102	2
170	170	7
104	113	1
114	114	4
66	66	4
176	176	1
67	67	2
177	177	5
47	49	2
107	107	2
140	141	1
106	107	1
68	68	1
5	57	2
111	112	1
35	35	2
17	17	3
140	140	3
156	156	7
19	19	3
10	10	8
120	120	6
158	158	6
63	63	4
59	60	1
105	106	1
126	126	1
62	63	1
92	92	2
103	104	1
88	88	8
64	72	2
104	107	2
171	171	1
91	108	2
125	125	2
30	30	4
89	89	3
22	23	1
76	85	2
48	48	5
65	91	1
27	45	1
179	179	4
23	28	2
15	15	1
163	164	5
85	85	5
156	157	1
30	33	1
38	156	4
119	123	1
102	102	3
133	189	4
5	58	2
137	138	5
102	103	1
184	185	1
104	104	1
136	136	3
116	127	3
181	190	1
6	33	1
18	20	2
180	188	1
173	175	2
37	46	1
109	141	1
32	44	2
76	76	1
16	17	1
90	90	5
33	35	1
153	153	2
146	166	1
32	47	1
106	112	1
170	176	2
43	43	1
58	58	2
75	75	1
37	42	1
78	78	1
30	41	1
190	190	3
150	150	5
20	21	5
56	56	4
162	162	1
101	102	1
28	44	2
117	117	3
119	120	3
62	65	2
129	134	1
58	59	2
29	30	1
73	73	1
53	54	3
116	116	1
123	124	3
75	78	2
61	62	3
41	41	2
46	46	3
112	113	1
133	133	2
29	29	1
124	124	4
115	117	1
101	103	2
167	167	2
100	101	1
11	13	1
106	106	1
132	133	1
110	110	5
174	174	1
131	131	2
139	139	1
114	119	2
173	173	1
121	122	1
10	44	1
73	74	3
72	84	2
47	47	1
21	21	1
108	108	1
56	57	2
31	43	1
81	81	5
141	162	2
124	125	2
171	172	4
130	131	1
58	99	2
145	146	2
27	30	1
18	18	2
114	138	3
36	36	1
5	55	1
53	92	3
83	124	2
91	160	1
119	119	3
112	112	2
106	113	1
180	180	1
80	81	3
114	115	3
175	175	1
80	80	2
187	187	3
143	143	2
178	178	1
131	176	1
52	68	1
86	86	1
68	69	1
41	48	1
26	26	1
77	113	1
30	36	1
3	153	1
104	105	2
53	53	2
96	97	3
168	168	1
37	37	3
70	70	1
27	27	1
129	129	1
73	81	2
56	101	1
4	5	1
154	154	1
115	137	1
64	65	2
149	150	1
0	2	1
43	44	3
54	66	1
14	14	1
27	29	1
40	40	1
134	135	1
8	9	1
7	48	1
92	160	1
120	122	1
57	148	1
74	81	1
60	60	1
86	112	1
164	188	1
64	81	1
165	165	1
109	112	1
66	68	1
116	119	1
189	189	1
186	186	1
44	44	1
170	175	1
99	99	1
53	95	1
154	181	1
134	134	2
60	62	1
90	91	1
182	189	2
146	146	1
21	47	1
86	87	1
142	143	1
108	109	1
140	175	1
137	137	1
55	55	1
168	188	1
58	64	1
171	187	1
