54	54	8
48	48	7
128	128	11
27	27	16
93	94	5
18	18	12
22	22	19
93	93	13
1	1	16
111	111	6
42	43	4
134	134	11
112	112	17
82	82	4
112	113	12
96	96	14
12	12	9
99	114	1
6	7	9
25	120	2
49	49	8
79	80	6
63	63	15
153	153	15
42	42	15
138	143	5
120	127	2
40	40	23
99	99	12
102	102	19
138	139	2
137	137	4
133	134	7
147	147	16
92	92	10
136	136	4
39	40	3
72	103	2
113	113	5
97	97	13
113	114	9
107	107	8
94	96	5
18	19	7
168	170	2
52	83	3
66	67	1
73	103	4
109	109	7
157	157	10
110	110	12
8	10	1
154	154	11
50	50	5
95	95	7
106	106	14
139	139	7
33	33	11
38	38	5
80	80	6
164	164	9
149	149	13
143	143	11
122	123	3
86	86	10
28	28	10
9	169	6
155	155	4
110	114	4
12	13	3
26	26	13
139	140	4
132	142	1
2	3	9
140	142	2
50	81	2
149	153	5
104	104	6
84	84	5
3	3	11
18	147	3
75	75	10
101	102	2
55	55	11
159	161	3
57	57	3
64	64	4
43	43	17
84	86	2
162	162	8
135	137	9
102	106	3
130	132	3
56	57	6
23	23	12
64	76	4
153	158	4
122	122	13
114	114	15
50	76	6
62	62	6
7	7	7
3	4	2
147	148	4
20	20	14
10	10	10
97	99	2
131	131	6
20	21	4
41	41	6
0	0	11
50	82	1
6	6	4
151	151	19
126	126	10
41	166	2
105	106	11
169	169	4
159	160	3
89	89	3
110	119	3
38	159	2
5	5	16
159	159	4
135	136	3
104	105	6
71	73	2
121	123	3
160	160	11
5	40	1
16	17	9
125	126	7
142	142	3
34	34	10
34	35	7
27	108	6
46	46	16
41	43	5
36	36	11
67	67	7
84	85	11
126	127	13
81	83	5
21	22	5
120	120	12
148	149	3
140	140	8
124	124	10
75	82	7
125	125	8
52	77	1
25	27	4
107	108	5
69	70	5
83	83	6
47	108	4
24	24	6
146	146	10
119	119	14
14	14	13
76	76	9
0	1	6
130	131	3
22	23	12
19	19	7
25	25	12
157	158	3
47	136	2
39	39	14
100	100	10
101	120	2
56	56	7
66	66	10
22	150	5
97	100	2
45	45	9
8	8	12
52	87	2
150	152	7
13	15	1
23	24	3
47	47	5
158	159	2
15	15	8
14	15	11
51	51	9
73	73	4
52	78	2
16	23	5
63	66	2
116	121	2
10	168	2
11	11	15
116	116	4
168	168	11
69	69	6
127	127	5
16	16	12
137	138	6
166	166	6
44	44	7
144	144	11
150	151	3
5	6	5
170	170	10
15	17	3
25	119	3
53	53	12
131	133	2
89	111	4
149	152	4
20	23	4
1	41	1
67	68	2
138	138	6
126	128	2
5	7	5
36	37	5
72	72	4
129	129	3
44	51	2
91	94	2
9	9	7
68	68	4
75	76	3
132	133	3
20	22	5
15	16	2
154	156	2
24	25	3
145	145	5
139	142	3
18	20	4
78	79	1
85	85	5
16	18	1
81	88	2
131	144	2
154	155	2
130	133	2
98	99	2
51	77	2
17	17	6
106	107	3
163	164	4
99	115	4
119	125	3
85	86	5
113	121	2
63	64	2
76	78	2
115	115	7
161	161	2
3	10	2
20	166	2
96	97	5
168	169	1
47	49	3
103	103	3
101	101	1
91	106	3
42	83	2
88	91	1
123	123	7
77	77	2
108	114	3
73	75	1
35	35	7
4	5	9
45	46	7
10	11	3
41	42	1
105	105	4
161	162	2
121	121	4
78	78	2
40	167	1
129	133	4
148	148	3
118	118	6
121	124	2
21	21	3
91	91	8
92	93	3
156	156	6
150	154	3
24	26	2
40	41	2
94	94	2
64	66	1
13	13	7
19	37	1
54	55	1
158	158	3
48	107	1
77	80	1
108	108	6
65	65	2
0	3	1
88	88	2
37	37	7
37	38	5
66	107	3
82	83	1
79	79	1
106	108	1
6	8	2
4	4	4
48	116	3
166	167	4
141	141	2
81	82	5
119	136	1
70	70	6
43	57	3
74	74	2
44	45	3
58	71	2
133	133	9
46	47	1
132	132	2
165	165	5
111	113	2
77	78	5
150	150	7
140	141	4
147	166	1
100	104	2
6	10	2
9	10	4
34	158	3
123	153	1
142	143	1
114	115	3
127	128	2
39	131	1
38	40	2
81	92	2
89	91	1
64	65	1
17	18	3
55	57	2
87	87	4
155	156	1
116	117	3
121	122	2
112	114	4
44	46	4
86	103	3
165	166	1
98	98	4
151	152	5
135	135	5
167	167	4
19	20	1
26	27	4
163	163	7
152	152	3
81	81	6
25	109	2
117	118	1
27	28	4
8	170	2
90	91	6
47	48	7
105	107	4
55	56	5
62	69	1
83	89	1
14	23	1
108	133	2
91	93	3
65	113	1
57	58	2
9	11	2
8	9	2
141	142	1
146	147	1
110	111	2
40	83	3
167	168	1
153	161	1
77	79	1
45	81	1
72	96	3
169	170	1
153	154	2
129	130	6
108	109	5
91	92	2
73	74	2
2	2	3
57	117	3
70	107	1
102	103	2
115	116	2
50	51	5
35	37	1
71	72	1
111	112	3
18	131	3
141	155	1
85	87	4
4	167	3
110	113	2
99	104	1
152	154	2
153	157	2
109	110	2
52	52	2
42	166	1
14	131	1
42	53	2
87	103	2
54	118	1
5	41	3
165	167	1
51	52	1
90	90	4
144	145	1
150	153	2
133	135	2
102	105	1
115	120	1
129	131	1
56	111	1
139	141	1
101	110	2
20	138	1
88	89	1
141	154	1
98	112	1
88	126	1
130	130	5
128	129	2
39	164	2
13	14	2
101	105	1
45	76	1
93	95	1
71	71	2
83	88	1
3	42	1
35	36	1
15	167	1
17	19	1
74	75	1
16	39	2
39	51	2
87	100	1
126	145	1
37	40	1
101	113	1
50	56	1
70	71	1
76	77	1
33	34	1
57	62	1
143	144	1
141	144	1
80	81	1
18	37	1
139	154	1
38	50	1
58	58	1
