85	131	2
17	23	2
79	79	8
16	16	9
17	17	10
85	85	1
74	74	8
32	33	3
73	76	4
8	14	2
72	72	2
63	64	7
134	136	2
99	99	11
32	32	5
120	120	4
18	19	5
84	84	1
28	28	22
138	138	6
92	111	2
92	93	3
68	71	4
105	107	7
66	85	3
132	139	1
131	131	5
122	122	13
33	33	3
24	24	6
77	77	9
67	67	3
78	78	1
118	119	10
105	116	2
42	42	1
100	100	12
36	36	7
0	17	1
124	124	10
134	137	2
76	76	6
21	21	7
104	105	5
39	39	15
6	15	2
137	137	4
106	121	3
119	119	4
34	35	2
126	129	1
114	127	5
134	134	9
14	15	10
26	26	1
118	118	13
101	102	6
75	75	7
68	70	5
22	22	3
126	126	12
128	128	5
75	76	2
11	11	1
129	129	2
123	123	6
114	114	6
3	3	8
127	127	2
0	1	7
49	50	5
121	137	1
8	38	11
75	98	2
101	101	4
71	71	6
128	130	2
100	101	6
49	49	11
135	136	11
65	65	1
87	98	3
51	51	4
130	130	4
69	72	3
2	3	6
6	133	2
73	74	6
86	86	7
111	112	1
5	5	9
81	82	2
138	139	1
35	35	1
41	41	9
112	119	3
51	52	3
81	81	6
54	54	5
53	55	5
49	51	1
88	108	2
123	124	4
142	142	2
102	103	1
105	105	4
48	48	1
124	141	1
58	58	3
85	98	4
2	4	2
136	136	4
30	30	8
141	141	12
89	91	1
4	4	13
66	78	1
86	98	1
118	144	5
55	57	3
129	130	2
29	128	3
131	133	4
11	37	2
59	75	1
125	125	5
13	16	2
121	123	7
1	1	3
9	13	2
70	70	1
15	15	3
13	14	2
108	109	3
134	135	4
59	59	2
145	145	2
64	64	3
115	115	8
22	23	1
131	132	4
74	80	3
6	14	4
25	25	4
60	61	2
106	106	3
27	27	12
59	64	2
107	118	3
102	102	4
21	37	1
133	136	1
120	121	3
53	53	2
128	133	1
2	36	3
97	97	5
132	134	2
83	84	1
143	143	3
121	121	3
8	9	2
6	6	3
29	29	4
23	23	8
15	16	1
114	115	2
89	90	4
2	2	2
124	142	5
133	133	1
77	78	4
18	18	3
93	93	4
38	40	3
92	94	1
19	19	1
100	126	2
20	79	3
68	68	2
31	31	2
98	98	2
58	60	2
24	69	4
105	110	3
109	132	2
21	33	1
120	134	1
4	33	1
132	138	1
4	34	2
14	14	4
18	21	2
5	12	1
21	24	3
110	110	1
88	90	1
96	133	1
103	107	1
135	135	2
16	77	3
139	139	2
81	131	1
1	15	1
126	143	2
50	51	2
111	111	8
126	127	2
140	140	7
112	112	2
116	116	2
9	9	2
106	123	1
10	10	1
92	96	1
54	79	1
128	143	1
56	56	1
116	126	2
61	61	1
93	111	3
79	80	2
25	42	2
132	132	3
8	8	2
96	96	2
73	73	1
50	50	3
66	66	1
144	144	3
63	63	1
52	66	2
30	32	1
57	75	1
94	138	1
69	70	2
58	61	1
82	83	2
19	20	1
47	47	1
133	134	2
6	20	1
127	130	1
103	103	2
133	140	1
136	137	1
8	10	1
113	113	1
127	128	1
92	92	1
126	130	1
3	37	2
95	95	1
5	11	2
51	55	2
115	116	1
60	62	1
127	133	1
107	107	1
52	52	1
55	55	1
82	82	1
91	91	1
109	109	1
25	69	1
58	77	1
57	61	1
105	127	1
59	62	2
114	119	1
87	87	1
95	96	1
134	138	1
129	131	1
0	0	1
20	80	1
111	129	1
