111	111	20
105	105	14
19	20	9
83	83	6
74	74	10
71	74	3
38	38	15
53	53	6
57	57	18
182	183	10
115	115	13
67	67	10
54	56	3
184	187	4
34	34	17
167	168	5
71	73	3
93	93	12
80	81	4
176	188	1
151	151	9
7	7	16
102	152	6
23	24	6
187	187	5
154	154	13
58	58	25
53	149	3
114	115	9
78	78	7
54	54	9
97	98	8
175	175	7
54	143	3
118	118	5
47	70	1
13	14	7
72	72	9
147	149	1
176	180	4
173	173	12
95	149	3
45	46	5
41	42	4
56	80	2
116	118	2
138	138	7
85	85	17
166	168	3
58	59	4
68	71	3
74	75	3
170	170	14
44	45	9
103	103	16
93	94	5
7	30	1
13	15	2
13	13	4
184	188	2
117	118	4
182	182	15
68	68	12
112	112	6
99	99	10
29	33	1
106	107	9
140	143	1
140	140	14
163	163	9
15	15	13
18	18	14
109	148	4
114	114	6
113	114	6
5	6	2
123	123	18
30	30	7
142	175	5
88	89	6
88	88	5
145	145	10
120	120	9
84	84	3
10	12	3
20	20	14
54	55	12
4	4	10
82	82	11
59	59	9
115	117	6
92	118	5
165	165	7
122	122	14
10	10	6
57	109	1
171	171	15
110	110	7
116	117	4
100	108	2
8	31	4
107	111	3
104	190	1
137	137	7
91	91	6
135	138	4
78	81	6
188	188	13
24	169	2
135	135	9
76	76	12
82	83	4
104	104	28
151	160	3
89	137	2
54	82	2
185	186	9
181	181	5
24	24	11
35	35	14
190	190	11
57	79	1
21	21	10
14	15	4
155	155	14
14	14	16
107	107	19
92	94	2
77	77	14
27	28	7
120	122	3
22	53	3
60	60	2
141	141	9
102	103	9
41	41	8
80	80	13
189	190	4
139	140	11
94	94	9
172	172	10
71	71	10
26	30	4
87	88	3
81	81	15
170	186	1
136	136	11
106	106	6
127	127	12
70	70	10
158	161	1
29	29	16
42	56	2
65	66	2
152	152	10
90	91	7
7	25	1
27	27	14
148	148	9
17	17	11
146	146	6
42	42	13
5	5	12
67	68	8
105	187	4
1	2	8
55	56	3
131	133	5
78	79	3
171	173	7
96	96	13
66	71	7
11	11	9
144	144	7
153	153	12
188	190	1
95	95	6
101	101	6
19	19	5
100	101	11
75	76	7
59	62	3
103	104	6
15	16	4
144	146	4
1	1	7
108	109	6
80	92	2
129	134	3
151	152	3
93	121	1
79	79	7
99	100	4
69	70	3
37	37	6
169	169	7
143	143	8
149	149	9
45	45	6
36	36	9
162	164	2
86	87	4
136	138	4
17	18	4
35	36	4
189	189	7
61	61	9
46	46	7
178	178	9
32	32	11
188	189	6
130	131	2
8	25	2
90	90	18
63	63	2
98	98	10
175	176	1
108	108	14
46	47	2
23	23	5
157	161	3
92	92	15
139	139	9
42	43	4
142	142	8
162	174	3
155	156	3
39	39	10
113	113	15
33	36	1
59	60	2
30	31	8
172	173	7
121	122	4
2	2	6
91	102	1
44	44	17
26	26	9
184	185	7
156	156	1
89	89	10
34	36	6
125	134	2
141	144	2
100	100	10
152	186	1
22	23	5
12	13	6
29	30	4
134	135	7
180	180	3
20	87	1
111	113	8
41	48	1
8	8	5
53	54	4
38	40	2
164	165	3
168	168	6
166	166	10
177	177	10
64	64	4
187	189	3
105	135	1
56	56	5
176	176	2
73	73	5
56	78	2
11	12	6
147	148	3
109	109	10
32	35	4
48	48	17
121	121	8
131	131	6
44	80	2
75	75	12
167	167	15
52	54	2
25	26	1
38	39	5
33	33	14
53	55	3
174	174	8
127	135	2
138	139	3
8	26	5
2	3	4
77	78	6
40	41	9
31	33	3
68	70	1
90	94	5
43	43	4
59	61	3
29	34	1
65	65	12
90	102	3
46	60	1
47	47	10
79	89	4
62	62	10
25	25	5
2	77	5
110	175	1
52	52	1
22	86	4
86	86	6
150	150	2
40	40	6
73	74	2
102	109	1
11	14	1
129	129	6
164	164	5
24	25	1
80	96	4
92	93	4
113	151	1
97	97	7
129	130	2
16	16	8
79	80	3
183	183	7
179	180	2
6	6	7
152	187	2
102	102	3
44	74	1
138	171	1
143	173	1
101	172	2
111	133	1
93	103	1
136	137	6
174	175	4
37	61	1
175	177	3
73	76	2
133	133	5
128	130	3
152	153	2
127	128	4
124	125	2
28	33	3
18	20	1
134	134	10
161	161	6
135	137	1
36	42	1
48	66	1
22	22	11
83	84	11
65	70	3
64	65	1
11	13	1
55	55	3
89	92	2
172	174	1
125	125	7
109	110	3
28	28	5
84	85	6
187	188	6
121	164	1
116	116	10
12	12	4
176	177	4
105	107	1
99	111	4
119	119	9
130	130	11
166	170	1
85	98	5
115	116	3
72	73	3
43	44	1
184	184	2
77	79	2
150	159	1
16	24	1
186	186	6
3	3	7
144	145	2
62	63	5
110	111	2
20	21	5
142	143	3
146	149	3
125	133	2
7	8	5
114	153	1
42	53	1
101	107	2
94	96	2
36	37	3
98	108	2
122	123	3
132	133	1
22	54	2
66	66	3
21	22	1
141	142	4
28	29	2
33	34	2
116	140	1
126	127	3
99	101	2
56	110	1
81	118	1
81	93	5
124	124	5
49	49	1
173	174	1
82	84	1
56	57	3
52	55	2
3	77	1
182	187	2
28	30	1
155	181	2
143	147	5
6	7	5
104	105	2
76	78	1
170	173	3
162	162	5
158	158	4
103	174	1
160	160	2
103	109	1
47	61	2
53	81	1
112	115	2
121	166	1
109	150	1
147	147	6
143	145	1
66	68	3
81	94	1
156	157	4
32	33	4
37	42	1
59	73	1
0	1	1
101	102	4
112	113	6
91	92	6
108	139	1
95	96	3
174	184	1
102	110	1
110	129	1
14	23	1
61	62	3
123	124	1
154	173	2
158	160	1
109	111	2
103	173	3
24	27	1
16	17	4
128	128	2
18	30	3
28	31	1
174	177	1
107	108	2
113	145	2
16	18	1
142	173	3
125	126	1
25	38	1
67	71	1
111	112	2
187	190	3
177	178	2
166	167	3
119	134	2
22	36	1
12	21	1
140	141	2
12	14	1
107	110	1
148	149	5
66	67	3
106	108	2
132	132	2
153	172	1
142	174	2
23	33	2
146	148	5
108	141	1
159	159	1
93	124	1
98	99	3
126	137	1
180	181	2
147	168	2
149	150	1
34	38	1
131	134	2
124	138	2
129	131	1
39	40	2
104	116	1
89	119	2
101	113	2
26	27	1
46	70	2
87	87	1
34	35	2
138	140	3
185	187	2
156	182	3
82	118	1
31	31	2
181	183	1
90	93	1
80	169	1
30	35	2
112	129	1
153	170	1
159	160	3
43	45	1
73	75	1
65	142	1
65	72	2
12	35	1
108	145	1
81	82	3
7	39	2
78	94	1
31	35	1
102	172	2
135	139	1
33	35	1
113	189	1
124	134	1
74	142	2
13	40	1
56	81	1
37	38	2
63	64	3
60	76	1
119	120	1
44	81	1
42	48	1
108	112	4
127	137	1
99	112	1
76	94	1
157	158	1
183	184	3
76	87	3
163	164	2
150	151	3
90	95	1
42	58	1
12	186	1
48	53	3
182	189	1
88	139	1
134	137	1
149	160	1
37	41	1
139	141	2
183	188	3
102	124	1
147	161	1
168	169	2
71	72	1
69	69	1
182	184	1
17	22	1
100	103	2
18	19	1
47	48	2
95	97	1
37	58	1
37	59	1
77	94	1
65	67	1
13	22	1
164	184	1
101	170	1
92	102	1
14	42	1
73	79	1
2	4	1
48	74	1
157	157	1
89	93	1
154	155	1
102	125	1
114	152	1
76	91	1
9	9	1
