73	73	2
80	80	12
118	120	3
115	115	18
12	14	1
27	27	4
130	130	10
57	57	9
6	6	9
10	10	9
95	104	2
40	43	3
100	101	1
19	19	14
20	85	5
72	72	6
106	106	9
17	24	4
6	57	2
59	59	14
5	5	7
108	113	1
101	107	1
100	100	7
103	103	6
86	86	20
116	117	3
99	100	3
49	49	9
92	92	8
15	34	3
97	98	4
27	28	1
124	124	3
69	69	9
66	66	6
22	22	9
122	122	8
75	75	8
67	69	3
91	92	6
63	63	6
87	87	11
101	101	12
46	46	10
28	28	15
16	16	16
129	129	9
78	78	9
18	19	9
43	46	2
34	34	5
50	50	13
41	41	9
14	33	4
95	95	9
33	33	5
64	75	2
30	30	12
56	56	14
68	68	6
17	17	7
2	5	3
91	109	4
42	43	10
50	88	2
9	9	1
25	67	2
102	102	11
67	67	11
19	25	1
3	4	3
105	105	7
7	7	7
67	81	1
96	96	5
85	86	3
90	90	10
119	120	6
58	58	8
84	84	6
76	104	5
82	82	6
79	79	14
20	20	6
11	12	3
67	68	3
18	62	1
52	52	19
10	11	7
2	2	11
88	88	8
22	23	5
98	98	8
25	25	6
120	120	3
11	11	4
38	40	2
53	53	8
118	118	12
131	132	4
67	100	3
26	65	6
13	14	4
82	83	6
47	47	8
1	1	15
85	85	4
123	123	9
109	109	12
128	128	2
121	122	2
51	51	10
131	131	7
4	5	6
86	88	1
100	102	1
76	106	6
81	81	6
50	52	4
15	15	1
126	127	8
133	133	3
65	65	5
121	121	10
78	79	1
132	132	4
96	99	2
6	20	1
44	84	6
77	77	12
64	82	1
39	39	13
43	45	1
74	74	5
28	29	4
50	51	5
44	44	10
32	32	4
40	40	5
103	104	6
24	24	7
23	23	3
33	34	2
91	91	9
112	120	2
64	81	2
16	17	3
62	62	4
54	54	8
13	33	2
29	49	1
114	114	4
111	113	4
96	102	1
26	26	8
57	58	2
38	38	9
0	0	3
126	126	4
61	86	7
14	15	5
100	116	1
15	17	1
64	64	6
72	73	2
44	87	1
49	89	2
103	117	5
45	45	4
41	44	2
14	32	2
97	114	1
19	20	3
8	14	1
114	116	4
38	39	6
112	112	5
3	20	5
42	42	7
119	119	12
48	48	5
128	130	1
78	99	2
113	113	4
92	109	2
111	111	4
90	91	3
15	16	5
76	76	6
63	64	1
126	130	2
49	112	3
104	105	1
93	94	3
67	101	1
128	129	6
81	84	2
99	99	8
61	62	2
96	97	1
93	109	5
95	120	1
94	94	2
129	130	5
54	55	3
13	13	2
20	25	3
22	24	4
71	71	8
71	72	4
18	18	8
89	89	4
117	126	1
96	111	3
17	23	2
66	67	2
61	61	5
57	120	1
12	12	4
58	59	2
125	125	4
111	124	3
87	120	1
23	24	1
77	105	2
89	116	1
104	119	2
59	118	2
86	87	2
8	8	3
57	69	1
32	33	3
87	89	5
59	60	3
62	63	7
25	26	8
74	76	9
4	4	2
99	131	2
14	14	5
62	73	1
106	128	1
100	126	1
114	117	3
60	60	3
56	86	4
66	104	2
99	116	1
26	64	1
53	54	2
71	113	3
29	29	2
48	63	1
20	22	2
73	75	1
41	43	3
126	129	2
52	56	2
66	68	1
127	127	4
78	81	1
124	125	2
107	108	1
125	126	2
55	55	7
96	101	1
0	1	3
21	85	1
46	78	1
97	102	2
65	66	1
48	49	1
81	113	2
5	8	3
92	95	3
88	105	1
105	106	2
42	44	2
3	5	3
102	103	1
118	125	1
59	63	1
78	108	2
68	69	4
127	128	1
106	127	2
108	108	3
72	104	3
81	82	3
104	104	4
21	21	2
26	44	1
41	42	4
19	24	1
6	8	1
74	78	1
70	70	3
97	100	1
108	116	5
39	43	2
48	116	1
39	44	3
108	109	1
69	94	1
3	3	2
23	25	5
83	84	2
97	97	2
83	115	2
68	72	2
93	93	2
55	84	1
77	81	1
41	45	2
31	38	2
99	108	2
64	74	1
56	57	1
49	58	1
21	56	2
48	70	1
24	25	1
6	10	4
80	95	1
6	27	2
70	132	1
20	88	2
117	117	2
111	120	1
31	31	1
82	84	2
26	56	1
63	77	1
130	131	2
88	95	1
10	12	1
102	127	2
61	85	1
9	29	1
19	26	1
87	105	1
117	118	1
47	76	1
111	112	1
24	67	2
56	101	1
25	27	1
109	110	1
42	45	1
29	30	2
94	95	1
99	114	1
125	131	1
66	115	2
120	132	1
101	106	1
127	131	1
46	47	1
52	53	1
