232	232	5
67	68	3
217	217	4
203	208	4
226	227	3
99	99	8
74	74	7
235	235	17
200	200	7
21	48	5
16	22	7
103	104	4
13	13	16
5	5	5
35	227	3
198	198	3
196	196	2
183	183	6
18	36	3
15	15	5
155	155	5
195	195	2
181	181	4
11	11	12
42	42	14
36	36	10
79	79	6
4	6	5
29	30	4
56	56	8
68	69	2
42	43	5
177	177	5
190	190	1
49	49	9
130	130	9
121	121	5
147	147	3
159	159	8
48	48	9
104	145	3
13	15	4
72	73	3
72	84	4
192	192	7
61	62	3
44	67	2
228	229	6
153	153	5
70	72	3
14	14	9
102	125	3
171	171	12
65	65	7
28	28	11
233	233	1
230	230	9
206	209	4
228	228	6
198	199	2
8	30	2
158	158	3
60	66	2
208	230	1
118	119	2
34	35	4
104	104	2
118	118	10
65	66	2
62	64	2
169	169	10
86	86	9
102	106	1
102	102	11
61	61	7
24	25	5
20	20	10
27	27	11
224	225	3
221	221	8
111	111	1
156	193	5
40	42	2
141	141	3
180	180	8
218	218	3
25	25	3
207	208	3
190	191	5
97	97	2
173	173	3
55	55	7
46	46	17
65	67	3
209	212	3
40	41	2
117	123	3
66	66	8
149	149	3
26	26	7
152	154	2
9	9	13
63	204	3
189	189	3
4	4	6
45	45	11
58	204	1
31	31	7
186	186	13
7	7	10
1	1	8
4	7	3
51	56	1
18	18	1
210	210	3
223	223	11
238	238	4
45	71	3
151	151	10
101	101	7
85	86	5
9	10	3
215	215	2
117	117	4
37	37	7
88	88	2
38	38	4
204	204	6
60	60	2
7	8	4
70	70	4
162	163	6
139	140	1
179	180	2
73	74	8
51	51	5
233	238	3
33	33	14
167	167	4
159	193	2
193	193	5
197	197	5
55	56	4
32	33	3
59	206	2
95	95	3
30	224	1
13	23	3
21	21	5
182	183	11
199	199	6
15	16	1
11	16	1
103	105	3
184	185	2
58	59	1
124	125	1
163	165	1
77	77	3
220	220	3
100	100	3
84	84	4
136	137	2
231	231	11
142	142	9
33	56	3
52	53	6
8	8	10
19	22	1
30	30	11
33	35	3
205	205	8
180	183	1
152	155	5
176	176	4
202	215	2
73	73	9
192	193	8
143	143	2
14	15	3
45	46	4
59	59	4
15	23	6
3	3	12
91	122	2
138	138	3
13	14	6
75	75	7
186	189	3
43	43	6
154	154	6
14	22	1
104	105	4
174	192	4
15	37	3
171	172	4
51	54	3
85	85	7
12	14	3
21	22	4
200	223	2
82	82	3
175	192	3
56	58	3
29	31	3
207	209	4
133	133	9
44	44	4
67	67	9
217	223	1
18	49	1
32	32	4
58	206	3
98	98	1
123	126	3
139	139	6
98	101	4
192	196	4
44	46	5
178	178	4
148	148	4
240	242	1
234	234	5
1	3	1
202	202	3
33	34	2
207	207	5
177	182	1
143	146	1
12	12	3
66	67	7
101	102	1
166	168	3
18	19	2
224	224	2
115	118	2
128	128	5
9	29	3
180	181	5
1	227	2
184	184	3
59	60	4
219	219	8
216	216	3
174	174	2
91	91	1
37	38	6
69	126	3
81	81	7
71	71	5
204	206	5
33	224	3
187	190	2
64	65	5
144	144	1
191	191	8
6	9	1
75	85	1
11	36	1
225	228	2
239	239	8
65	69	3
142	143	3
5	6	2
238	239	1
148	152	2
18	22	2
212	212	6
131	131	3
169	170	6
242	242	2
102	103	7
57	59	3
226	226	9
50	51	5
181	184	4
213	227	1
17	17	7
115	115	3
11	30	1
1	2	3
222	222	1
127	127	3
211	212	1
185	186	2
83	84	3
2	8	2
160	160	2
6	6	1
103	103	5
225	225	4
36	37	4
74	75	2
175	175	3
80	80	6
74	85	3
237	237	6
113	113	5
60	126	1
69	69	5
34	34	7
165	165	5
4	19	1
240	241	1
28	29	1
54	54	3
46	98	4
158	193	2
0	0	3
112	112	3
116	116	3
58	58	6
64	64	4
183	187	1
67	72	1
68	68	1
123	123	3
6	8	1
29	29	3
53	53	4
47	99	3
160	161	2
165	186	4
105	105	2
201	201	2
62	63	1
211	211	5
164	166	1
174	175	2
66	127	1
115	116	3
215	216	1
75	171	1
208	208	1
179	179	2
203	203	1
10	10	5
115	117	3
125	127	6
109	109	3
158	194	1
81	82	2
79	82	3
34	49	2
26	27	3
216	223	1
25	26	2
8	9	1
103	149	3
209	231	1
47	47	10
23	24	2
212	225	1
138	140	1
144	146	1
235	238	1
162	162	1
34	36	1
24	24	5
40	82	5
78	114	1
23	236	1
57	57	2
200	224	4
70	73	2
199	200	1
38	39	1
129	130	2
80	82	2
160	165	2
43	44	3
29	48	1
39	54	1
75	109	1
44	68	1
81	84	2
75	77	1
133	135	1
137	138	2
236	236	1
208	209	3
137	139	1
19	21	7
145	145	3
204	205	1
106	107	2
109	118	5
174	176	3
152	241	2
199	217	1
129	129	1
17	18	3
14	16	2
165	169	1
87	87	1
80	114	3
226	228	2
63	64	3
45	66	3
129	134	1
42	71	3
234	235	1
166	166	4
57	60	5
39	39	3
154	156	3
172	172	4
216	218	3
11	31	1
4	33	4
157	205	1
62	62	4
0	1	2
45	72	2
214	216	1
188	188	2
125	126	1
58	60	1
122	122	4
209	210	2
8	62	3
22	22	1
103	107	2
43	45	1
107	107	3
136	136	1
10	234	2
118	120	1
50	50	3
65	68	2
106	121	2
229	229	2
49	125	1
24	26	3
30	61	1
164	169	4
161	161	5
50	58	2
181	182	2
75	114	3
36	227	2
56	57	1
23	23	2
19	36	1
125	125	1
203	209	1
195	196	2
210	211	2
0	15	1
200	201	1
16	17	2
35	35	5
120	141	2
144	147	1
192	194	1
213	213	2
70	71	1
135	135	2
6	7	2
204	209	1
39	49	1
139	142	1
38	57	1
21	47	1
176	178	2
199	223	1
14	17	2
41	48	1
66	68	1
31	62	1
95	97	2
43	46	2
193	194	1
75	82	1
113	165	1
176	182	2
208	210	1
203	204	1
158	205	1
8	32	2
76	76	1
20	21	1
141	142	2
42	47	2
166	196	1
200	222	2
206	206	1
139	143	1
75	127	1
97	198	1
181	197	1
120	120	1
130	195	1
119	119	1
144	148	1
114	114	1
60	67	1
64	68	1
140	140	1
70	74	1
220	221	2
82	101	1
162	165	1
55	70	1
40	40	3
219	220	1
15	48	2
75	126	1
154	157	1
11	29	1
48	54	2
63	63	1
2	3	1
177	178	1
164	164	1
146	147	1
152	152	1
112	114	1
218	220	1
156	157	1
101	240	2
119	167	1
230	231	1
18	23	1
46	47	1
227	227	1
178	180	1
165	170	1
159	168	2
150	150	1
9	30	1
185	185	1
0	2	2
237	238	1
179	181	1
194	194	1
30	33	1
5	229	1
39	42	1
52	52	1
37	40	1
8	23	1
41	54	1
156	205	1
38	67	1
31	60	1
105	125	1
194	196	1
