117	118	3
76	76	4
152	152	7
14	14	3
126	129	4
62	62	3
44	57	2
137	137	5
19	21	2
58	58	10
73	74	5
12	15	3
151	172	7
177	177	6
41	41	11
6	7	6
28	29	1
150	151	3
18	18	3
16	17	8
97	97	4
77	78	5
16	30	4
114	115	1
100	100	4
120	121	4
5	8	2
98	98	3
36	37	6
11	12	5
112	112	4
79	80	2
8	8	6
138	138	16
4	5	5
38	39	4
55	55	14
78	78	12
170	170	6
164	167	8
136	138	3
71	71	7
103	103	6
80	81	3
173	173	1
153	153	2
75	75	11
26	30	3
34	34	7
83	83	6
59	59	4
111	111	8
178	181	5
67	68	9
152	170	1
89	90	8
172	172	5
110	110	11
59	60	2
190	190	10
128	143	2
129	129	13
31	32	3
187	189	2
122	171	5
137	138	1
86	86	4
91	92	10
139	145	3
0	0	6
166	166	5
144	144	13
160	160	4
125	125	9
23	24	8
53	68	2
168	168	9
65	66	3
87	87	9
90	90	4
53	53	5
74	74	13
25	28	6
184	184	5
114	114	4
1	1	6
44	47	2
189	190	6
168	169	5
117	117	4
60	61	1
87	96	3
105	105	3
7	7	8
158	158	2
127	127	7
144	146	4
165	168	1
54	55	3
149	149	12
29	33	6
5	22	2
172	173	2
84	86	3
46	47	3
56	57	5
102	102	4
40	40	6
30	30	1
2	2	7
156	162	3
134	134	7
175	178	2
177	183	2
151	151	5
23	23	6
73	73	3
141	141	7
91	94	2
91	91	8
26	27	3
124	125	8
136	136	4
41	42	3
39	40	6
37	37	9
118	119	2
94	94	10
102	104	3
22	24	1
23	25	7
150	150	8
82	82	9
43	43	4
38	38	10
30	31	3
17	17	6
175	177	5
13	14	4
31	35	2
142	142	2
85	85	4
96	96	5
57	74	1
23	31	3
31	31	3
183	185	4
86	90	1
154	155	5
156	157	7
117	132	5
169	169	6
116	116	3
135	137	3
126	126	1
119	119	3
185	185	13
154	154	5
180	181	4
139	139	4
10	10	4
123	140	4
16	24	1
127	129	1
13	17	3
46	58	2
122	124	9
66	86	1
32	34	2
175	175	6
25	25	4
39	42	4
77	77	2
20	20	1
173	174	2
43	57	2
78	79	2
122	122	5
2	25	1
3	24	1
156	156	8
5	6	2
109	109	3
143	144	1
143	143	7
42	42	3
3	6	4
174	174	2
164	164	4
42	71	3
171	173	4
36	36	6
21	21	6
54	54	3
63	63	10
57	84	5
13	15	8
73	106	1
147	150	1
147	148	3
99	99	6
56	72	5
169	170	1
90	96	1
104	104	1
89	89	14
113	119	3
19	20	2
68	68	9
152	153	9
1	2	2
128	128	3
0	1	1
161	164	4
174	175	3
161	165	2
53	57	4
101	101	5
166	169	1
148	148	3
10	12	4
67	67	4
83	84	7
145	146	6
126	143	1
27	33	1
122	128	2
113	114	4
85	86	5
11	11	2
6	6	2
48	48	3
99	100	8
14	15	4
176	176	6
88	88	4
130	131	2
173	175	3
101	102	3
56	56	4
42	57	2
139	141	5
16	45	1
106	106	6
74	83	1
141	144	1
108	108	2
187	187	1
188	189	8
68	86	1
178	178	16
74	82	1
108	117	3
81	81	6
128	138	3
16	16	3
182	183	3
157	157	2
145	147	2
185	186	5
151	171	1
116	118	7
166	167	1
188	188	2
113	113	4
155	156	2
183	184	3
60	65	1
71	74	1
60	60	5
178	179	2
183	183	6
47	48	3
179	179	4
94	95	5
158	160	3
58	60	2
5	5	3
176	177	1
61	71	1
35	37	2
186	186	4
138	139	3
57	57	6
139	140	1
133	138	3
103	105	2
35	35	2
106	107	1
189	189	1
161	161	8
45	45	10
95	96	3
146	147	1
93	94	2
122	130	2
55	56	2
105	107	3
64	65	1
128	129	2
100	101	2
158	159	4
21	22	3
171	171	2
66	67	4
133	133	6
40	41	1
75	76	3
159	159	3
61	61	2
147	147	8
109	110	5
163	163	6
181	181	5
99	110	7
43	58	2
140	140	4
84	84	8
74	134	1
110	111	2
87	88	2
181	183	1
90	91	2
115	115	2
142	144	3
15	16	2
61	62	4
22	22	1
44	72	2
43	44	2
0	2	2
93	93	5
123	123	3
179	180	1
108	113	1
132	136	1
175	176	3
74	103	3
98	99	3
98	100	3
120	120	1
76	136	1
108	109	3
23	38	3
148	151	1
115	117	2
156	158	2
92	93	1
113	128	2
95	95	4
136	137	2
99	102	3
155	155	2
64	68	5
88	90	8
31	33	1
154	160	1
125	126	3
52	55	2
40	43	2
46	57	2
130	130	4
185	187	2
132	132	3
64	64	3
146	146	1
96	97	3
159	160	2
14	37	3
3	3	3
53	54	2
20	28	2
19	19	1
30	32	1
172	177	1
0	38	1
11	105	1
30	36	1
118	120	1
116	117	1
182	184	1
43	48	1
66	66	1
12	13	4
24	24	2
7	39	1
71	84	1
23	37	1
104	105	1
71	72	3
39	39	3
29	30	3
182	182	2
124	124	5
46	46	1
103	104	1
53	55	2
165	165	2
133	136	1
111	112	2
122	125	1
9	10	2
20	27	1
6	8	1
5	24	3
109	113	1
115	116	3
80	80	1
111	114	2
32	32	2
36	38	2
23	30	4
6	10	1
126	127	1
13	13	1
142	145	1
17	30	2
127	130	1
107	121	1
147	149	2
47	57	1
87	90	1
12	14	2
10	107	1
133	135	2
9	9	1
183	187	3
86	92	1
6	39	1
44	71	3
87	92	1
140	144	1
11	22	2
84	85	1
63	70	1
106	127	1
145	145	2
184	185	2
16	37	1
162	162	2
148	153	1
72	73	1
92	92	1
142	143	1
14	89	1
91	93	1
112	113	1
107	119	1
187	188	2
7	8	1
58	66	2
138	143	1
18	20	2
40	42	2
33	37	1
156	159	1
123	125	2
104	129	1
0	23	1
89	93	1
146	148	1
27	30	1
46	72	1
129	130	2
68	69	2
78	143	1
155	157	1
0	5	1
58	65	1
97	98	1
24	25	1
37	38	1
46	71	1
4	4	1
170	171	1
3	8	1
79	81	1
1	25	1
171	172	1
8	13	1
119	120	1
160	163	1
98	104	1
33	33	1
131	132	1
177	178	1
148	149	1
