39	41	9
34	40	2
71	71	39
95	95	58
26	28	3
81	81	52
26	29	1
78	78	88
56	67	1
68	69	34
67	67	56
105	105	48
27	28	7
95	97	6
54	77	2
77	77	71
57	72	7
85	85	39
59	59	32
52	52	45
88	94	4
93	93	39
54	59	4
25	28	5
24	31	7
57	57	54
74	74	58
67	68	17
72	72	59
87	87	64
45	46	8
65	65	50
60	60	53
64	64	50
62	66	2
41	43	8
83	84	21
97	97	42
91	91	48
94	95	6
33	33	56
40	40	46
26	30	8
40	48	1
79	79	65
25	27	15
46	48	14
66	66	65
53	98	2
55	93	8
90	90	46
80	81	18
43	43	83
89	90	31
47	47	28
30	34	6
82	86	5
94	94	44
23	35	3
23	77	2
29	30	25
99	99	56
73	105	3
39	39	48
101	101	44
36	37	34
45	73	1
73	73	68
38	39	22
55	55	54
46	46	35
28	31	3
20	49	2
68	68	62
100	100	60
84	84	50
70	70	59
53	54	20
89	89	47
101	102	21
36	36	54
58	59	10
29	29	51
51	61	1
25	25	26
45	82	7
32	32	65
64	77	2
35	101	2
36	38	2
88	89	22
35	74	4
53	53	68
92	92	62
28	30	7
41	88	10
95	96	12
52	76	3
46	49	5
31	31	58
26	26	36
39	45	2
40	42	4
61	62	28
20	21	21
58	58	62
81	91	2
27	30	3
90	91	19
79	82	5
21	21	32
76	76	74
82	87	8
103	103	45
84	85	21
42	44	16
71	72	26
55	56	11
69	69	56
61	61	65
22	22	42
98	98	59
30	30	25
91	100	2
25	46	4
34	34	57
60	61	25
88	88	42
85	86	21
102	103	14
33	34	11
82	82	43
41	41	42
37	96	5
33	72	2
42	42	35
65	66	19
69	70	21
21	53	6
96	96	51
75	75	99
26	27	32
64	65	6
24	24	38
51	51	54
39	42	8
44	107	3
31	32	7
37	37	54
23	75	1
83	83	29
63	64	23
46	89	3
72	84	2
97	98	37
36	40	5
60	66	3
32	35	3
52	57	1
28	28	30
82	83	35
27	29	14
23	23	75
48	76	3
62	62	81
80	80	73
49	49	34
47	79	1
91	96	4
77	78	14
59	60	12
30	87	3
93	94	11
86	86	40
20	57	2
68	78	1
37	38	21
63	63	37
79	80	28
56	56	55
25	82	4
40	41	23
83	85	16
40	44	8
44	44	25
76	90	3
33	95	3
81	93	8
87	88	13
85	87	5
91	92	4
70	73	6
58	94	3
102	102	73
40	49	5
43	45	2
31	89	1
78	79	15
35	35	45
25	33	8
86	87	30
80	87	2
21	22	10
75	76	24
79	92	5
54	54	56
105	106	5
100	101	19
50	51	10
43	81	1
25	93	1
38	65	3
54	65	1
59	80	4
55	77	6
38	38	47
48	49	26
35	100	2
25	45	6
28	29	9
66	92	1
36	100	2
27	27	53
48	48	39
23	24	8
99	100	4
33	37	1
50	50	64
44	49	2
39	49	4
25	49	2
89	91	3
95	103	2
68	71	1
59	74	1
44	82	2
100	102	12
73	75	12
45	45	50
32	33	9
80	86	1
83	93	1
28	56	3
31	33	13
74	75	10
31	81	1
77	91	3
80	82	1
65	77	6
65	67	9
38	48	5
82	85	3
45	48	1
33	47	1
24	25	17
107	107	7
52	53	10
68	70	2
82	88	13
81	86	4
41	42	17
47	49	18
25	26	9
80	85	1
35	80	3
53	60	6
35	36	21
70	76	3
57	94	6
73	103	5
51	100	2
63	67	4
62	65	5
57	73	4
43	61	5
30	41	3
20	41	2
44	51	4
66	67	18
98	99	15
36	90	7
70	75	2
72	79	1
56	94	2
92	105	2
21	77	3
66	71	5
29	31	2
65	69	3
29	90	5
24	35	5
20	20	27
32	60	6
54	67	8
62	72	1
54	55	8
35	38	2
82	98	1
51	52	8
45	68	1
56	93	3
103	104	9
84	86	7
62	63	15
54	98	1
22	49	3
77	105	3
27	52	3
61	69	1
96	97	15
65	70	4
25	94	3
56	57	8
24	55	2
104	104	42
39	84	1
55	95	1
94	97	8
92	104	1
53	103	2
59	67	8
70	71	8
47	48	21
73	74	7
91	105	3
72	105	3
51	78	4
65	79	1
59	61	3
39	65	3
82	95	2
97	99	5
46	50	1
21	31	3
25	34	3
36	44	2
83	88	3
41	48	3
56	95	1
36	62	2
65	84	1
94	99	3
77	103	1
38	40	3
81	87	4
30	57	2
37	41	3
106	106	38
45	49	7
73	107	1
81	97	2
34	86	4
27	97	7
71	84	3
90	94	6
83	87	8
39	43	3
91	102	4
54	66	4
25	107	6
77	100	3
88	99	4
37	95	5
62	71	3
21	56	4
37	51	3
24	73	6
47	56	4
42	43	14
22	23	3
82	84	4
38	51	2
58	99	2
27	45	2
76	77	9
55	69	2
49	94	1
95	98	2
67	74	3
22	80	2
73	77	1
94	96	8
90	100	1
61	77	2
52	58	2
31	59	4
50	80	2
36	45	2
25	41	4
52	65	2
75	100	2
26	45	1
23	78	2
58	60	3
29	45	3
41	44	1
33	35	2
73	98	2
39	74	2
101	107	4
55	83	2
78	101	2
42	51	2
22	25	1
71	91	2
89	92	3
53	106	3
81	101	5
43	44	17
21	78	3
92	93	7
33	85	1
30	40	3
35	56	2
92	94	11
36	75	3
23	105	1
20	22	1
90	95	7
41	51	4
79	93	3
61	63	5
24	102	1
54	97	2
67	73	2
91	97	3
26	49	4
69	74	3
27	31	10
39	68	2
44	46	4
25	29	7
34	39	1
61	65	8
76	78	2
33	107	3
71	74	5
41	45	11
55	91	5
54	99	1
81	90	4
104	105	14
31	71	2
61	81	1
56	58	8
104	106	1
66	93	1
77	94	3
23	62	1
43	71	4
87	89	1
37	39	6
79	90	2
62	64	4
49	85	6
75	84	3
91	93	5
31	78	3
20	45	1
35	50	1
86	97	1
53	70	2
37	79	1
33	44	1
32	62	3
86	106	10
48	83	2
27	105	2
25	43	3
51	99	1
36	96	1
80	95	4
36	39	5
57	66	2
89	103	3
90	98	3
65	68	5
46	98	2
62	70	1
30	31	4
77	99	2
35	63	1
76	100	3
48	88	1
66	95	1
44	74	1
86	98	2
57	58	13
49	97	3
28	34	3
40	96	5
49	55	1
80	92	2
40	43	5
79	81	16
66	86	1
42	45	2
28	37	2
72	101	1
78	99	2
40	46	4
60	62	6
79	99	2
50	91	3
37	66	1
88	95	2
82	97	3
80	97	2
58	70	3
24	105	2
60	72	2
49	78	2
69	73	4
43	59	1
59	63	2
68	74	1
80	83	2
30	93	2
58	83	2
66	83	2
52	54	5
24	27	2
21	43	2
36	94	2
31	56	3
39	83	2
37	94	3
81	89	2
71	102	1
69	81	1
51	71	1
59	65	2
41	97	2
20	106	2
78	95	3
55	100	2
81	96	5
81	98	4
35	92	2
94	101	3
47	72	2
67	83	2
35	68	1
80	84	4
40	102	2
65	101	2
21	48	2
49	80	3
49	99	2
31	77	3
24	33	1
78	80	5
100	104	4
47	57	1
58	82	1
41	50	2
21	26	3
25	30	4
64	70	1
25	61	3
53	62	1
69	77	2
96	98	2
55	57	5
47	88	3
26	57	1
81	107	1
78	82	3
106	107	7
81	83	1
21	106	4
78	81	5
72	73	7
68	75	1
34	81	1
55	81	3
68	76	1
37	55	2
39	52	2
47	89	2
53	73	1
31	57	2
32	69	4
29	55	7
71	76	5
50	77	4
27	106	2
96	106	8
51	70	1
44	48	3
52	59	3
44	45	12
91	101	1
28	90	3
98	104	1
24	58	3
42	54	2
39	73	1
86	95	3
33	83	2
83	86	6
46	88	2
79	89	7
79	83	4
57	97	2
44	88	1
50	55	1
33	105	2
45	98	1
24	99	2
28	92	3
35	45	2
96	99	4
61	64	3
43	65	2
45	102	2
96	104	4
65	91	1
33	38	3
69	71	2
41	61	1
41	96	2
71	101	2
36	97	1
22	24	2
60	73	7
52	85	3
34	75	1
22	62	2
57	79	1
24	63	2
39	40	3
26	62	4
48	81	2
67	93	1
33	103	2
24	77	3
93	95	2
89	97	4
40	88	3
34	50	1
50	59	1
45	61	3
35	86	1
61	73	1
67	76	1
50	61	1
54	78	1
43	46	4
26	93	1
32	34	6
28	43	1
52	66	1
57	60	4
63	103	2
56	59	2
49	50	2
26	59	1
28	94	5
22	34	1
35	62	2
73	90	1
65	81	2
66	105	2
55	101	1
29	48	1
48	93	1
86	89	3
29	105	1
54	56	1
87	90	1
20	100	1
92	96	3
58	66	3
70	98	2
28	105	3
77	97	1
24	81	2
34	74	5
54	60	1
77	81	1
87	100	1
83	99	1
63	65	2
67	70	2
25	38	1
90	92	6
60	102	1
52	62	1
40	65	1
19	40	3
94	98	2
54	106	1
65	71	1
38	81	2
22	79	2
38	101	1
29	41	1
20	38	2
52	64	1
51	53	2
52	80	1
33	58	2
66	107	1
30	43	1
78	87	1
56	78	1
70	72	3
93	101	1
41	46	3
72	91	1
50	53	1
25	56	1
63	71	1
58	78	1
85	93	1
34	88	4
24	79	1
47	58	2
60	67	2
22	30	2
70	89	1
84	92	1
53	75	1
71	73	3
66	94	1
39	86	2
22	90	1
49	98	1
49	66	1
72	86	2
59	107	1
80	93	1
73	87	1
86	96	1
52	56	1
49	58	1
60	74	1
47	94	1
32	70	1
45	90	1
42	60	2
53	68	1
29	53	1
39	58	1
66	70	1
45	50	1
75	93	1
31	36	2
42	64	1
92	95	2
71	106	1
37	52	1
45	62	1
39	62	1
47	75	1
25	62	1
53	78	1
48	106	1
102	105	1
35	85	1
31	55	1
64	102	2
77	92	1
78	98	1
77	86	1
21	54	1
60	63	1
46	97	2
86	91	1
34	35	2
40	92	2
24	54	1
79	106	1
73	86	1
35	55	1
58	76	1
28	78	1
40	60	1
100	103	1
55	58	1
90	102	1
66	68	1
53	63	1
28	36	1
66	84	1
31	37	1
46	47	1
22	105	1
41	92	1
69	76	1
73	95	1
