128	128	13
18	19	15
172	173	11
37	38	8
18	18	16
178	178	4
84	85	9
133	149	3
8	8	3
24	25	8
25	30	5
16	17	10
28	30	5
44	44	11
146	146	21
14	14	40
2	16	3
24	29	6
87	87	14
2	3	5
164	166	4
22	23	17
56	58	5
125	125	5
158	158	15
9	11	14
141	141	14
137	137	19
60	61	6
9	9	31
80	112	3
71	72	10
116	116	8
91	93	4
43	43	25
5	34	5
93	93	23
2	4	8
3	4	12
2	9	9
135	136	12
19	22	8
85	85	2
111	127	3
138	139	3
106	107	3
36	36	27
143	143	9
11	13	4
27	27	11
61	61	10
3	7	6
10	10	29
120	120	5
133	133	15
1	6	5
31	31	14
59	59	3
27	28	3
122	122	3
104	104	10
24	24	16
115	115	12
159	159	9
166	166	2
163	163	9
34	36	2
30	30	7
19	19	7
131	131	14
51	64	1
168	168	16
11	11	29
107	110	1
35	35	30
134	134	16
150	150	22
89	90	5
71	71	1
3	3	6
67	96	3
33	75	2
7	22	2
63	64	3
155	156	5
21	23	8
132	132	11
60	60	14
144	146	5
14	150	3
38	38	28
66	66	2
151	151	6
5	5	12
91	91	7
170	170	15
125	132	4
179	179	11
126	126	22
10	18	1
50	51	8
52	52	15
141	142	7
162	167	1
114	128	1
55	55	12
98	98	11
79	124	2
39	40	10
64	96	2
137	138	10
23	23	18
16	16	12
63	67	5
7	7	4
28	28	3
64	64	8
131	139	2
177	177	6
175	177	2
72	136	2
33	40	5
20	20	6
29	29	12
150	151	5
33	33	17
173	173	13
112	114	1
67	93	1
133	136	7
123	123	11
76	85	4
93	94	2
41	44	6
2	29	1
129	130	4
139	139	12
10	11	15
118	118	12
18	20	8
92	92	8
151	152	10
88	89	2
53	53	6
42	43	8
79	79	7
36	37	9
25	25	20
160	164	2
22	22	8
82	82	5
121	121	5
80	80	7
41	41	19
164	164	13
13	13	16
9	15	1
26	28	3
60	123	1
32	32	16
56	56	6
39	39	29
147	147	18
95	95	12
140	140	13
60	149	5
7	20	3
5	8	6
103	104	5
15	15	22
137	176	1
0	1	5
107	107	5
51	51	21
10	16	3
165	167	6
157	157	9
26	29	8
130	130	6
133	134	3
103	105	3
160	169	2
70	70	3
101	101	7
102	102	4
10	24	2
109	111	1
169	179	2
107	108	1
72	72	17
176	176	21
37	37	29
147	148	4
12	22	2
113	113	2
21	21	9
39	44	2
61	63	6
86	86	8
23	26	1
4	19	2
114	114	6
9	12	2
4	4	16
17	24	3
5	29	1
40	40	14
104	108	2
3	9	2
10	17	1
77	77	4
1	4	4
1	2	2
18	21	4
128	133	3
94	102	3
167	167	16
156	157	12
149	149	17
65	155	7
57	94	3
111	112	9
153	153	9
43	44	4
145	156	2
152	153	10
154	154	3
64	123	3
5	6	8
37	40	2
38	39	3
61	62	12
89	89	18
50	52	5
132	133	5
115	123	4
42	45	3
56	57	10
89	127	4
84	84	3
13	14	7
28	31	2
8	10	3
175	175	5
108	108	11
39	43	3
124	141	2
44	45	9
121	123	10
86	87	8
116	141	1
160	162	2
161	162	7
94	95	2
171	171	12
144	144	15
140	141	7
113	117	1
115	155	5
57	59	5
0	0	12
2	2	28
121	122	1
37	39	4
3	21	1
160	168	2
134	138	3
7	9	5
130	146	4
15	16	12
34	34	15
109	110	12
39	41	7
163	164	1
72	89	2
142	142	19
15	18	2
85	87	8
64	65	2
110	129	1
140	173	2
26	26	7
147	156	2
21	25	1
122	123	2
148	173	3
61	76	2
157	175	4
81	110	4
108	109	1
76	133	2
13	17	1
169	170	1
90	94	4
75	77	5
109	109	8
146	147	3
12	14	3
46	46	3
111	111	9
139	140	4
167	173	5
118	119	6
10	14	7
96	96	3
136	139	7
3	23	3
130	132	2
6	6	19
127	127	9
172	174	3
14	15	8
29	36	5
17	17	8
75	76	1
31	35	11
90	95	1
154	156	2
80	81	1
25	27	8
122	129	2
62	64	3
122	140	3
6	8	11
81	84	2
152	152	10
169	169	12
77	132	2
127	132	2
42	42	10
11	12	17
111	131	1
19	20	6
95	134	5
7	8	12
148	149	3
1	1	13
146	153	2
24	40	10
30	32	1
143	144	9
138	138	12
16	20	2
5	18	1
23	28	1
30	76	1
168	171	5
136	137	11
124	125	2
172	172	16
90	93	3
29	42	2
114	115	11
63	68	7
160	160	3
33	89	3
12	12	5
152	161	1
117	117	8
3	8	2
17	18	3
33	74	1
23	24	6
34	35	3
73	73	5
121	148	1
138	149	2
19	25	2
136	136	5
5	9	2
85	89	4
155	155	7
97	97	2
90	90	10
30	31	1
58	59	4
78	78	1
102	105	2
167	168	2
130	131	5
65	121	2
141	143	5
58	58	5
175	178	2
36	172	2
41	42	4
123	125	1
83	84	5
149	154	2
135	135	4
35	36	11
41	53	2
142	143	12
121	139	1
89	93	3
167	172	2
80	87	3
76	102	2
5	14	3
6	7	12
106	108	8
154	155	1
159	162	5
113	114	3
73	135	2
149	167	1
77	78	6
94	94	9
77	83	7
108	110	1
110	110	8
90	91	14
57	58	7
104	105	3
31	33	4
61	101	3
80	82	3
26	31	4
112	117	6
20	23	2
137	139	5
62	62	5
159	161	6
83	85	8
24	26	2
32	33	4
67	130	1
87	90	4
58	141	1
120	121	2
8	28	4
149	153	4
155	157	2
6	10	3
178	179	3
29	32	3
177	178	6
105	105	2
119	119	11
57	173	3
40	41	8
139	142	1
151	153	2
97	98	2
4	20	4
148	148	7
133	138	1
128	129	2
10	35	2
97	130	3
130	138	1
112	113	1
81	87	2
88	88	6
4	28	2
19	21	2
17	21	1
180	180	4
169	180	2
53	54	1
103	106	2
123	124	7
154	160	3
21	22	4
62	63	1
76	77	5
36	38	7
95	96	4
158	160	1
0	37	1
66	127	3
83	108	1
78	92	3
54	54	3
103	103	2
158	161	4
67	68	3
149	150	2
74	74	2
1	11	2
4	15	2
76	76	2
33	58	2
134	135	3
124	124	1
59	60	6
125	126	4
95	97	4
80	100	1
106	106	2
10	15	3
33	34	2
93	148	1
162	164	2
134	136	2
1	5	1
65	67	3
54	55	4
71	86	4
27	29	2
56	176	2
75	75	8
41	43	6
12	150	4
131	132	2
142	145	1
31	32	1
30	33	5
127	130	1
98	109	1
84	86	1
62	102	2
43	45	3
25	26	2
86	88	1
63	63	4
90	92	2
72	90	3
33	81	1
4	7	5
40	45	1
4	23	1
4	5	4
54	134	1
95	150	2
21	33	1
78	82	2
1	14	3
150	152	4
62	100	3
44	57	1
118	120	1
38	41	3
0	22	2
133	139	1
68	101	3
145	145	5
3	6	4
115	117	3
156	156	7
166	167	1
156	158	2
65	65	14
12	13	2
13	15	2
27	39	1
165	166	3
118	141	2
9	10	3
4	6	2
94	173	1
50	50	7
56	92	1
2	5	1
115	118	1
171	172	2
105	106	4
175	176	1
171	178	1
118	143	1
6	21	1
160	161	3
3	22	1
113	118	1
112	131	2
35	71	2
67	67	2
0	93	1
164	165	2
119	121	1
13	30	2
143	146	1
57	60	1
142	147	1
92	93	2
45	45	2
144	147	2
118	121	2
131	133	1
77	96	2
119	120	3
145	146	4
112	112	8
105	107	1
74	75	2
15	21	1
92	94	2
85	88	4
29	30	4
81	81	2
21	26	1
127	133	1
73	111	2
8	9	2
58	61	1
110	117	1
57	93	1
5	26	5
141	145	1
86	125	2
75	107	1
105	108	1
5	28	1
161	161	2
102	103	2
173	174	4
139	146	4
88	90	1
109	112	1
32	36	3
40	94	1
12	30	1
109	126	2
78	79	4
68	68	3
127	128	1
106	125	1
115	158	1
165	165	3
96	133	2
112	115	1
4	27	1
129	129	1
10	13	2
143	150	1
83	83	1
5	7	4
65	176	1
168	173	1
33	35	2
173	175	2
35	39	2
31	34	1
78	132	1
131	140	2
150	166	1
73	75	1
116	118	2
7	15	2
142	148	1
155	160	1
9	20	1
122	134	1
110	111	1
26	27	1
99	102	1
93	111	1
21	32	2
68	71	1
25	28	1
7	12	1
2	122	1
143	173	1
31	40	1
26	35	1
117	118	1
56	173	2
8	16	2
66	68	2
8	11	1
154	157	1
158	159	2
157	160	1
27	30	1
162	162	1
100	100	3
115	162	1
163	167	1
40	43	2
135	143	1
55	58	1
96	143	2
157	161	2
116	117	1
16	33	1
152	154	1
27	41	1
121	140	1
98	100	1
168	169	1
32	39	1
110	126	1
2	7	1
24	28	1
132	135	1
76	134	2
57	57	2
22	26	2
97	146	1
33	38	1
22	27	1
16	18	1
155	163	1
17	34	1
65	139	1
95	98	1
