70	70	13
20	21	11
57	57	14
125	126	6
106	106	33
163	163	6
154	154	20
48	48	21
14	14	20
16	17	9
117	117	7
42	43	7
167	167	6
39	40	13
39	39	13
14	15	20
46	46	35
144	144	4
114	114	8
105	105	16
153	153	12
96	96	22
85	85	21
149	150	6
33	34	16
157	158	9
80	80	24
27	27	8
146	146	11
57	73	5
143	144	7
25	25	23
68	69	10
75	75	17
126	126	24
87	88	12
74	75	9
134	134	15
100	127	1
15	15	18
108	108	22
74	94	3
160	167	3
12	12	10
1	1	35
116	116	15
34	34	31
138	138	21
15	39	3
144	145	7
37	37	30
90	90	29
8	8	26
159	159	11
135	135	23
13	13	33
24	24	15
48	49	11
88	88	12
72	72	19
134	135	19
151	153	1
126	127	11
113	113	8
158	158	21
20	20	6
157	159	1
4	4	10
114	116	1
7	7	37
91	93	4
82	109	3
92	94	3
89	89	29
156	156	9
86	86	11
81	81	9
19	20	8
46	49	4
148	167	2
18	19	8
1	2	23
43	44	17
110	110	14
47	47	19
160	160	11
104	104	16
12	13	4
50	50	11
10	11	5
35	35	23
28	28	16
166	167	3
95	98	2
21	21	9
111	111	12
102	102	14
49	50	6
6	8	1
6	6	21
85	86	3
74	107	1
136	137	5
71	72	14
24	25	10
131	131	15
76	76	17
127	128	3
117	118	4
99	99	23
142	142	9
149	149	18
43	43	18
92	93	3
163	165	2
18	18	21
83	99	3
142	143	3
127	127	8
93	95	1
3	83	4
37	46	3
107	108	11
56	56	30
113	114	4
143	143	16
112	120	4
11	12	14
101	102	4
151	151	17
49	49	31
64	91	1
57	63	5
85	89	4
148	148	8
107	117	1
10	10	16
69	69	20
52	53	4
122	123	9
0	1	7
82	82	34
5	5	10
108	109	13
53	54	5
16	16	20
125	128	3
41	41	8
58	92	10
100	100	22
33	33	14
124	124	17
155	155	9
44	157	2
168	169	3
98	118	2
103	160	2
52	52	18
93	93	14
0	76	3
38	40	4
166	166	7
3	7	2
83	124	2
25	44	2
40	40	4
5	6	12
105	116	2
16	85	2
11	11	10
1	3	5
53	56	3
3	3	25
87	87	11
2	2	28
114	115	10
73	73	16
167	168	2
64	69	4
147	148	2
107	107	15
123	123	13
45	45	19
51	51	12
68	68	4
90	93	2
3	134	1
132	132	4
89	118	8
145	145	11
99	127	7
106	110	5
35	150	3
103	105	1
136	136	12
109	109	26
119	119	15
84	84	12
148	150	1
121	121	7
98	99	4
112	112	32
64	64	15
113	125	1
17	17	16
118	118	18
135	136	14
157	157	22
151	152	8
147	147	6
130	130	9
150	150	15
83	83	36
150	151	3
147	149	1
78	120	2
44	44	16
123	124	5
19	19	13
62	62	5
45	136	12
111	112	19
143	168	2
125	125	13
2	24	3
122	127	5
42	42	32
84	85	3
53	53	12
25	26	7
44	46	10
50	87	3
105	106	10
63	69	5
99	100	5
21	24	1
2	3	12
106	111	1
68	86	1
21	22	6
77	85	5
2	46	1
144	165	3
47	49	5
8	13	2
7	8	4
82	83	6
9	11	2
106	107	3
41	73	2
6	7	11
22	23	5
68	87	3
44	45	8
162	163	7
102	103	2
140	141	5
91	91	15
55	55	10
94	96	2
58	73	2
133	133	7
145	146	8
77	83	5
49	141	1
37	71	1
106	115	4
115	115	4
112	114	1
11	16	5
26	27	1
139	139	8
7	37	4
22	22	8
4	5	3
144	146	5
80	81	8
86	119	5
96	126	7
77	77	10
97	100	3
79	79	9
169	169	6
67	79	2
9	9	18
22	85	2
78	78	12
138	139	5
27	117	3
15	19	6
74	74	20
122	122	9
76	79	6
6	132	3
66	66	13
50	52	3
65	65	3
39	48	2
155	157	3
34	35	19
141	141	8
19	23	6
91	92	6
161	164	4
40	85	1
165	167	3
101	150	5
35	36	7
169	170	8
23	23	17
46	47	5
69	70	3
36	49	3
47	48	2
71	71	18
6	14	2
17	18	6
129	129	8
73	74	10
152	152	16
58	58	2
92	92	7
40	73	1
102	134	4
97	145	3
97	97	11
38	38	11
38	45	3
65	66	1
36	36	26
141	142	4
128	128	10
140	140	7
6	131	3
0	0	16
90	91	7
36	142	2
54	55	10
66	88	3
161	162	3
137	138	13
51	78	1
145	166	2
38	47	2
36	37	10
0	2	1
165	165	7
45	46	11
137	137	7
81	82	8
8	9	4
68	70	3
142	149	5
61	62	1
106	113	3
50	51	8
70	89	2
158	159	3
168	168	9
4	90	2
119	122	6
133	134	7
7	12	4
131	134	1
112	113	2
76	84	5
128	131	3
161	161	7
98	98	18
54	73	2
18	21	3
78	80	3
67	78	1
23	39	1
67	67	2
72	73	3
7	11	6
120	120	7
109	110	7
48	50	3
75	104	5
159	160	4
3	5	4
40	41	1
77	78	7
117	119	2
163	164	8
117	170	3
76	77	3
89	94	5
158	160	3
14	20	4
97	118	2
40	72	1
37	44	2
57	62	2
1	134	2
139	150	1
36	43	1
89	93	1
20	23	1
8	89	3
57	64	7
83	84	4
19	22	1
26	26	7
96	97	5
164	166	1
82	170	1
82	90	4
37	45	3
110	111	4
99	113	1
69	87	1
102	163	2
119	120	2
95	95	5
95	97	2
34	157	2
152	169	3
129	131	1
67	74	4
132	134	3
47	137	1
7	38	3
88	90	1
78	79	4
92	95	2
94	97	1
47	139	1
79	80	1
122	169	1
13	21	2
94	127	3
78	85	6
56	95	5
65	73	1
14	16	1
122	124	1
53	57	2
88	89	2
54	54	6
103	103	7
144	167	2
62	63	3
27	28	5
161	163	1
106	109	2
165	166	6
63	63	9
162	165	3
135	137	4
83	101	1
53	67	2
22	83	1
82	108	2
130	132	4
160	164	2
134	137	1
164	164	7
113	140	2
120	121	1
110	112	3
3	4	3
109	111	1
86	87	5
142	144	1
5	114	2
66	67	1
115	118	1
162	162	4
128	129	4
153	154	2
94	94	7
17	22	1
170	170	1
125	138	3
36	143	2
119	124	1
78	83	3
125	127	1
130	131	4
76	86	2
68	74	2
75	76	1
63	67	1
42	77	1
103	104	2
6	151	1
143	145	5
104	134	2
48	110	1
102	131	1
85	88	4
57	74	3
107	125	1
15	38	1
94	95	3
98	126	1
70	86	1
93	127	1
100	103	1
75	77	4
57	72	1
35	45	1
25	45	1
9	16	2
37	38	1
126	128	2
157	166	4
54	56	4
2	47	1
67	69	3
18	23	1
95	127	4
133	135	1
67	68	3
102	104	3
106	108	2
45	140	1
37	72	1
101	103	2
67	88	1
95	96	2
124	125	3
42	45	1
96	129	6
66	68	1
64	90	2
107	138	2
121	122	1
34	149	2
87	141	2
10	17	2
74	76	1
69	72	1
160	161	2
38	51	1
101	118	1
107	122	2
97	126	6
112	139	2
2	36	1
6	134	1
56	74	1
100	118	1
49	111	2
9	10	2
101	101	3
77	84	1
45	47	2
143	146	2
43	49	1
131	132	1
115	116	1
69	88	3
23	24	2
38	46	1
83	97	1
54	64	1
56	66	1
55	67	1
57	61	1
13	14	6
101	104	1
62	73	1
56	92	1
113	116	1
18	20	3
126	131	1
107	123	2
85	87	1
6	13	1
162	164	2
44	52	3
0	133	1
41	76	1
115	117	1
39	50	3
78	87	2
49	110	2
97	98	1
57	85	1
6	11	1
40	71	1
57	58	1
127	129	2
51	67	1
89	90	2
100	137	1
114	118	2
65	67	1
25	82	1
101	127	1
4	112	2
105	142	1
15	16	2
101	137	1
21	85	2
78	119	1
69	86	1
100	101	1
55	56	2
5	131	1
46	158	1
97	116	1
49	135	1
80	82	1
58	91	1
104	105	1
152	153	1
