82	83	5
15	15	18
148	149	13
126	127	8
114	114	8
83	83	4
10	10	17
31	31	21
23	25	5
118	118	14
122	122	10
152	153	9
79	79	13
99	99	18
151	151	7
53	54	5
88	88	10
49	51	2
126	126	18
111	111	19
6	6	10
64	65	1
114	115	9
18	18	11
110	110	18
69	69	3
138	138	11
73	73	20
14	24	1
20	20	4
121	121	4
155	157	5
36	36	16
108	108	5
26	27	4
144	144	22
144	145	13
37	37	14
1	1	13
87	92	4
135	136	10
36	55	3
8	8	11
13	81	1
98	98	10
45	45	10
156	156	28
32	32	8
2	2	18
51	70	3
128	128	5
100	100	21
54	54	10
154	154	5
38	38	6
36	39	11
110	111	5
106	106	19
113	113	9
24	24	9
77	77	5
117	117	4
133	133	7
91	91	8
106	107	1
42	42	10
103	105	7
100	130	4
72	72	2
78	79	7
33	34	11
13	14	2
139	139	7
25	25	12
26	26	16
102	102	9
117	150	3
62	62	5
132	132	3
48	49	3
11	11	8
125	125	14
155	156	2
35	55	5
73	74	10
129	130	5
119	119	7
20	21	11
47	47	9
42	43	8
78	78	14
135	135	18
68	68	5
22	22	12
2	3	1
133	135	1
14	15	3
95	95	9
114	137	6
7	7	15
134	134	9
4	4	13
64	64	6
118	119	3
135	149	2
57	61	1
109	109	17
85	85	12
82	82	18
4	35	2
152	152	13
141	141	18
137	149	2
67	67	17
91	94	1
29	29	14
83	91	6
116	117	4
30	71	6
123	124	9
24	25	9
1	2	2
52	53	3
140	140	8
43	43	13
120	121	1
131	131	20
3	4	4
65	65	4
70	70	8
112	115	5
49	49	11
19	19	3
36	37	2
127	127	30
115	115	4
134	135	3
87	87	1
133	134	2
129	129	3
115	116	7
145	146	6
3	3	8
81	81	7
2	4	7
5	5	11
149	149	5
96	96	11
31	32	5
125	126	4
51	51	17
122	123	3
142	142	9
123	123	5
84	84	10
39	54	2
31	34	3
91	106	6
141	142	5
141	145	1
84	85	5
36	54	4
67	69	1
33	48	2
116	152	1
107	123	3
128	155	2
36	40	5
136	136	4
114	121	5
101	101	15
116	116	10
37	38	6
26	29	3
32	65	2
81	82	8
63	63	6
155	155	15
94	95	3
41	43	3
87	88	3
92	92	17
103	112	5
77	79	2
146	146	5
107	107	8
46	46	7
139	140	3
0	0	11
124	124	2
94	94	19
108	110	4
29	30	6
31	33	1
21	21	7
28	28	10
17	17	2
15	24	2
27	27	5
0	1	4
123	125	2
38	39	4
50	50	10
32	34	1
67	68	2
106	111	1
55	55	13
17	18	3
121	122	6
97	109	6
105	105	8
27	28	7
114	120	1
30	39	2
21	22	4
11	12	4
123	142	4
96	98	2
23	24	6
35	35	3
158	158	13
64	68	5
143	143	7
113	114	6
97	97	5
48	48	11
123	126	1
145	145	5
30	31	3
71	71	11
40	41	2
45	46	5
41	41	5
16	16	12
40	40	2
86	91	1
105	106	6
135	154	1
147	150	2
96	104	4
147	147	9
39	42	6
93	94	11
88	89	2
66	66	4
157	157	11
115	151	1
10	11	9
83	84	7
114	122	3
90	92	5
43	44	1
100	101	2
65	81	1
39	39	4
7	8	3
153	153	4
12	12	6
50	52	1
14	14	3
30	33	3
70	71	2
130	131	1
93	95	2
41	42	2
130	130	4
46	47	2
130	157	2
86	87	5
12	13	3
157	158	2
137	140	1
112	112	10
89	90	2
115	153	1
77	78	4
80	80	11
40	42	5
150	150	1
40	51	4
29	31	3
109	110	3
94	97	1
119	120	2
4	5	4
44	44	4
24	100	2
5	6	1
116	124	2
150	153	1
34	34	7
104	104	9
10	84	1
120	120	7
33	33	7
90	90	2
103	103	12
97	105	3
26	71	1
114	124	2
74	74	1
152	154	2
153	154	2
121	123	1
132	133	8
109	112	2
156	157	1
32	67	5
71	72	4
75	75	6
57	57	1
97	98	2
131	157	4
41	47	2
17	41	3
63	64	2
135	150	2
93	93	10
105	107	1
114	125	6
37	78	1
95	151	2
56	57	2
127	138	2
65	66	6
91	92	2
0	4	2
56	56	2
133	136	3
148	148	5
95	96	6
107	109	1
35	36	3
108	109	1
108	111	3
50	51	5
39	40	4
34	35	1
33	66	1
137	138	2
79	82	1
72	84	2
146	147	3
124	127	1
23	23	5
34	39	1
86	92	2
154	155	2
30	32	1
87	89	3
115	126	2
34	71	1
96	103	2
111	112	3
32	38	2
115	149	2
8	9	1
140	141	1
9	9	5
43	45	2
62	69	3
40	48	1
51	52	1
16	17	4
123	143	1
34	55	1
23	34	1
115	123	2
141	144	1
37	39	1
133	137	1
102	104	1
47	50	2
90	91	1
144	157	1
66	67	1
41	53	2
92	93	2
104	105	2
69	70	2
124	125	2
153	155	1
89	89	2
85	86	2
116	151	2
124	126	1
52	52	3
153	157	1
87	90	4
98	106	1
114	117	3
67	70	2
107	108	4
103	117	1
20	22	1
29	71	1
150	151	1
73	75	1
101	151	3
112	121	1
13	13	3
112	113	1
96	120	2
15	18	1
154	157	1
25	26	1
115	117	1
110	146	1
131	133	4
136	137	2
55	56	1
123	127	2
52	56	1
147	148	2
83	92	2
38	54	1
45	124	2
151	152	1
7	12	1
42	81	1
28	29	2
67	71	1
112	125	2
25	28	1
103	104	1
138	147	1
27	104	1
98	99	1
97	107	1
119	121	1
143	144	1
53	53	1
137	137	1
114	147	1
129	131	1
134	136	1
54	55	1
138	140	1
54	57	1
30	30	1
113	115	1
138	151	1
92	96	1
127	128	1
131	132	1
18	19	1
