141	141	6
87	87	1
90	91	3
119	142	5
91	91	6
132	132	5
26	26	3
17	18	8
116	117	4
18	18	10
45	45	5
99	99	3
105	105	3
114	115	6
150	150	7
38	38	8
145	146	6
67	70	4
3	4	2
64	64	5
29	112	2
107	107	7
37	81	2
121	121	4
75	75	5
23	24	3
149	149	8
88	89	3
30	30	9
108	108	3
14	15	8
50	52	8
123	123	8
9	49	4
15	35	3
45	47	6
11	11	7
37	37	8
109	111	4
88	88	11
23	23	8
148	148	8
70	70	8
14	14	10
35	113	2
50	51	4
18	32	6
50	86	6
117	117	4
12	15	3
124	126	1
110	114	3
140	140	5
116	116	3
63	64	4
66	71	2
129	130	3
17	17	9
22	112	1
2	15	3
111	116	2
53	82	3
71	72	3
29	30	2
43	43	2
154	154	2
71	71	5
33	33	5
123	124	2
141	146	3
134	134	2
120	120	9
117	120	3
50	75	1
10	11	8
19	32	3
28	28	5
94	105	1
48	51	1
2	5	5
120	121	4
98	131	4
123	154	1
47	54	1
36	37	2
153	153	4
80	81	2
132	156	1
7	80	1
44	45	1
134	156	2
11	82	2
93	93	2
77	77	4
114	116	2
34	35	4
112	114	1
54	54	5
35	35	18
39	39	4
151	151	9
30	45	2
124	124	5
49	49	3
80	80	7
82	83	1
148	153	1
40	40	2
156	156	6
57	63	8
137	137	4
122	122	3
122	150	3
127	127	6
110	121	1
12	12	6
113	113	5
30	31	1
50	87	1
36	39	3
17	23	1
96	98	2
155	155	5
48	120	6
70	71	2
16	19	1
68	70	1
81	81	1
10	104	1
125	126	1
11	13	2
135	135	5
52	52	3
38	40	2
144	144	2
35	107	1
12	51	3
111	113	1
93	114	2
46	46	5
89	146	1
51	55	3
144	149	3
8	8	3
14	16	3
145	153	3
43	44	2
97	97	1
138	139	2
32	34	4
125	125	3
17	86	3
13	13	2
114	114	5
15	48	1
56	56	4
36	64	1
150	154	2
85	85	6
95	95	4
89	90	2
9	9	2
39	40	6
13	32	3
51	85	2
22	108	4
142	142	2
86	86	3
13	29	5
19	22	2
13	84	1
138	138	5
73	73	7
92	93	3
102	114	2
1	1	1
39	41	3
117	118	1
100	100	2
148	152	3
101	101	2
51	51	1
54	72	3
117	147	4
15	15	4
6	6	1
49	52	2
111	111	5
35	36	3
117	146	2
21	21	3
36	50	1
7	14	3
2	3	3
154	156	3
94	94	5
11	25	2
68	68	3
11	12	1
140	154	2
31	42	3
148	149	6
9	10	1
28	48	2
13	14	2
37	57	3
24	25	1
152	153	3
95	96	2
133	134	2
84	84	2
52	55	1
120	127	3
98	98	2
23	28	2
32	32	2
135	137	1
78	79	2
7	7	3
20	20	4
57	61	2
109	112	1
106	107	3
42	42	9
91	106	1
99	155	1
34	34	3
7	8	5
133	133	3
47	75	2
12	82	1
53	83	1
55	55	2
31	31	4
128	128	2
34	49	3
51	53	1
158	158	2
137	138	4
15	47	1
3	100	1
140	151	1
147	148	3
120	142	1
25	26	3
65	65	1
134	135	1
38	82	1
7	76	2
27	30	2
128	150	1
19	19	1
135	136	1
131	138	3
57	57	1
83	84	1
32	38	3
92	115	2
22	22	1
47	47	2
110	118	3
123	126	2
39	48	2
109	109	6
121	141	4
122	156	1
132	136	2
139	139	2
82	82	1
112	113	2
82	91	1
41	41	1
55	56	1
115	116	2
97	101	1
147	147	3
103	103	1
119	119	5
85	111	3
142	148	1
135	141	1
32	42	3
32	47	1
96	96	3
52	82	1
143	143	2
0	0	4
76	77	2
136	136	4
99	101	2
48	89	1
145	145	1
140	141	1
27	111	1
25	25	2
52	80	2
29	29	1
96	97	1
38	42	2
102	102	1
27	27	1
41	43	1
99	158	1
127	150	1
130	137	1
5	5	2
108	111	2
99	105	1
18	38	1
31	40	1
157	157	4
44	44	1
90	97	1
15	39	1
2	100	1
110	110	1
158	159	1
78	80	1
146	147	1
155	157	2
132	133	1
51	83	1
70	72	1
131	143	1
94	97	1
12	33	1
32	39	1
36	62	1
98	99	2
51	121	1
2	2	1
99	104	1
109	116	1
105	107	1
29	34	1
106	106	1
51	78	1
120	148	1
123	150	1
28	36	1
50	50	1
26	27	1
16	16	1
99	137	1
93	94	1
94	95	1
7	107	1
