220	226	2
187	188	9
207	208	4
223	224	6
16	16	5
13	13	3
207	207	13
30	31	6
135	143	3
206	206	1
17	21	1
218	218	6
220	224	2
3	3	6
54	54	10
104	104	11
5	7	1
98	98	9
32	32	7
209	229	2
70	70	7
52	52	6
137	137	1
22	22	10
76	76	7
25	26	4
10	25	7
73	73	2
55	55	10
77	77	6
65	71	1
15	15	4
116	116	7
163	163	3
35	35	4
159	203	2
20	20	8
171	192	1
192	192	4
240	240	12
101	101	7
150	151	6
192	193	3
109	109	7
1	1	5
176	176	8
187	187	3
160	160	11
185	185	3
216	216	2
175	175	3
41	41	5
221	221	5
40	53	1
42	42	12
61	61	10
39	39	10
43	43	6
3	8	5
178	180	5
178	178	15
159	202	4
152	152	4
75	75	6
8	8	4
33	33	6
16	17	2
28	28	7
44	44	3
5	5	6
136	136	8
63	63	7
88	106	2
197	197	2
75	78	1
72	72	11
181	181	4
24	24	2
74	74	7
130	130	3
15	16	8
88	88	5
72	76	2
184	184	3
56	56	7
75	82	3
53	66	2
176	177	4
0	0	7
68	69	2
17	17	6
69	73	4
154	154	6
78	78	9
170	170	4
204	204	4
161	197	1
141	141	1
180	180	4
126	126	4
16	23	1
35	36	9
159	159	4
57	57	5
6	6	7
184	186	1
104	105	9
162	162	9
134	134	12
159	178	2
131	131	4
66	67	4
166	166	6
40	40	5
4	4	9
146	146	4
97	97	8
154	159	2
95	95	4
193	208	2
56	57	4
66	68	4
49	50	3
163	183	5
21	21	7
59	60	2
210	212	1
164	165	1
85	85	6
57	75	3
81	82	5
64	64	5
129	129	3
159	189	1
57	66	2
140	140	5
82	82	8
124	125	1
30	30	7
217	217	8
172	172	4
75	83	4
115	116	5
49	49	8
174	174	8
29	29	2
162	195	2
99	102	3
127	128	2
177	177	9
222	222	5
71	75	1
102	102	8
153	155	2
162	185	3
227	227	2
119	119	7
120	120	2
12	17	2
167	168	1
124	124	6
215	216	3
25	25	5
46	46	4
138	138	4
158	179	3
108	125	3
52	53	4
33	34	4
96	96	3
1	8	1
170	181	1
80	82	1
54	74	4
237	237	6
7	8	2
22	23	8
5	6	4
241	241	7
27	28	1
199	199	11
88	89	2
167	169	8
238	239	1
195	198	1
4	18	5
116	117	3
160	180	4
36	36	4
193	193	1
50	51	4
99	99	2
11	11	4
58	119	1
113	113	5
50	53	7
198	198	5
67	67	2
224	224	3
108	108	6
4	5	5
65	65	5
12	13	2
214	214	3
20	21	5
233	233	6
80	80	9
200	200	3
49	53	3
205	206	10
47	50	1
31	41	1
38	38	5
0	16	3
226	227	1
47	55	1
35	117	1
201	201	6
63	64	5
79	79	8
234	235	2
83	83	2
151	188	1
64	65	2
62	62	8
159	204	1
45	45	4
16	20	1
174	175	1
184	185	1
31	53	4
156	158	1
51	52	5
232	232	4
25	154	1
53	54	3
26	39	1
196	196	3
37	37	3
39	119	1
27	27	7
133	135	6
28	141	2
82	83	4
4	7	4
76	78	4
189	191	2
60	79	2
86	86	6
149	150	1
182	182	5
9	9	4
31	31	15
229	230	1
52	75	2
96	97	2
211	211	2
116	119	2
84	84	5
23	23	7
212	231	1
242	243	1
165	165	4
45	53	2
126	133	6
193	194	1
9	20	2
182	183	3
106	128	1
144	144	3
223	223	5
220	220	5
186	186	1
208	208	6
140	141	3
12	12	5
123	154	4
110	110	2
72	84	2
228	228	2
54	55	5
7	7	3
151	151	3
40	41	5
102	104	1
165	180	1
107	107	5
71	71	9
231	231	1
0	21	3
103	107	1
234	234	4
202	202	7
58	58	4
199	200	2
133	133	5
114	114	4
34	34	4
212	213	2
103	118	2
169	170	2
61	62	2
219	234	3
121	124	2
139	139	5
51	51	3
21	23	6
31	35	2
124	126	3
103	104	4
71	72	4
58	59	3
142	142	6
57	58	1
135	135	3
153	153	2
180	181	1
168	168	5
9	15	1
0	201	3
6	7	4
230	230	3
14	15	6
215	215	2
66	66	2
210	210	1
242	242	4
118	118	2
229	229	6
42	61	1
25	152	2
219	219	6
171	171	7
4	6	4
153	154	4
122	123	4
123	124	2
31	43	1
197	234	2
178	179	1
12	16	1
162	183	1
53	67	2
50	50	2
226	226	3
60	73	1
238	238	5
118	138	2
129	137	1
184	198	1
129	130	1
12	30	2
128	174	2
59	59	1
155	156	7
167	170	1
204	205	1
161	161	5
166	167	2
18	18	5
173	173	3
185	186	3
28	121	1
4	12	2
0	24	1
220	222	1
21	156	1
81	81	2
80	84	2
67	68	2
75	88	1
155	158	1
161	187	1
168	170	3
44	135	1
222	224	2
203	203	1
164	175	2
96	106	4
73	74	1
31	40	1
40	42	2
188	188	2
134	153	3
16	21	2
0	23	2
169	169	1
157	157	2
68	68	2
179	179	3
196	207	3
2	2	1
89	89	1
147	147	2
105	108	2
5	29	1
165	176	1
125	127	1
65	69	2
216	217	4
151	191	1
99	100	2
36	44	1
149	191	1
139	140	2
41	47	1
32	47	1
19	19	2
112	112	2
115	115	2
148	148	4
8	23	1
196	197	1
10	10	4
26	26	3
106	106	1
105	105	6
14	14	1
25	205	2
88	95	1
10	38	1
131	134	2
37	61	1
117	117	4
48	48	5
235	235	2
102	105	3
30	33	1
157	191	1
190	190	3
23	28	2
84	86	2
8	30	1
18	19	4
138	140	1
241	242	1
194	197	7
138	142	1
210	211	3
148	191	1
217	218	1
70	73	1
60	60	4
22	30	3
126	127	3
31	33	1
67	70	1
104	129	2
12	14	4
13	14	3
143	144	1
36	175	2
167	167	1
88	105	1
186	188	2
47	47	3
51	76	2
31	32	1
74	75	2
213	213	2
141	143	1
205	205	3
8	29	1
210	215	1
123	155	2
60	78	1
39	86	1
175	180	1
146	147	1
197	198	3
144	145	3
137	138	1
106	108	1
145	145	1
200	205	2
100	100	2
222	223	1
70	71	1
239	239	4
164	164	1
40	58	1
237	238	1
140	143	1
156	156	2
213	220	1
37	47	1
164	183	1
58	63	1
214	217	2
136	139	2
220	225	1
77	78	1
211	212	3
7	30	2
212	212	1
3	14	1
79	82	1
181	182	1
143	143	4
64	73	1
45	46	1
53	53	2
122	127	1
8	22	1
20	24	1
32	69	1
239	240	1
170	171	1
194	194	1
9	42	1
52	76	2
99	112	1
55	58	1
181	183	2
194	205	1
55	56	1
232	233	1
36	53	1
201	204	1
29	47	1
102	103	3
107	108	2
195	195	2
183	185	1
191	192	1
118	119	2
7	19	1
171	186	1
4	17	1
207	209	1
142	171	2
236	236	4
200	213	1
195	205	1
158	159	1
75	99	1
69	69	2
120	135	1
205	214	1
191	191	3
31	48	1
125	125	2
83	84	1
34	35	2
117	118	2
122	122	2
39	54	1
98	102	1
85	97	1
226	229	1
214	215	1
72	73	1
43	44	1
33	40	1
98	99	1
28	150	1
75	79	1
29	33	1
24	25	1
81	83	1
14	29	1
65	73	1
149	149	1
41	49	1
188	194	1
35	37	1
51	53	2
109	143	1
228	229	1
174	186	1
209	209	1
23	27	1
38	99	1
202	203	1
29	42	1
40	56	1
145	146	1
140	142	1
10	11	1
