48	60	2
37	37	6
67	67	8
73	73	6
86	86	4
31	51	2
54	54	5
51	92	1
30	37	4
52	52	3
69	69	2
63	64	9
92	92	4
73	74	2
19	46	5
84	85	3
25	25	2
90	90	19
38	39	2
95	95	7
48	54	1
44	45	5
61	61	12
104	104	6
43	43	4
49	96	5
42	43	13
29	31	3
51	51	12
47	99	4
96	96	8
36	36	12
61	62	3
98	98	13
23	23	7
83	84	3
31	31	15
35	53	5
64	66	2
101	102	3
25	27	2
86	87	3
49	98	1
65	65	8
20	20	5
78	99	1
42	49	1
74	74	11
76	76	2
25	26	2
40	43	3
33	50	1
71	71	3
47	48	6
34	34	8
83	83	9
101	101	11
105	105	10
72	72	2
35	38	2
21	68	1
59	59	5
33	36	2
94	95	4
52	53	6
41	41	8
63	63	6
95	96	4
65	66	4
21	21	11
75	76	5
47	49	3
73	77	3
87	87	13
68	68	2
97	98	4
46	48	1
26	28	4
58	58	9
41	48	3
56	56	7
85	85	6
36	37	5
58	93	2
33	33	2
54	89	2
99	99	5
34	35	2
89	89	9
85	86	2
24	53	10
78	98	2
84	84	4
82	86	1
83	85	2
33	34	1
39	44	4
42	56	2
64	64	11
62	99	1
62	63	6
107	107	1
69	71	4
59	60	6
53	53	4
71	72	2
30	51	2
80	80	5
103	103	8
91	91	8
22	22	5
78	79	1
49	49	3
24	24	5
47	47	4
63	99	5
38	38	5
23	24	5
24	31	4
88	88	2
20	21	1
29	57	1
70	71	5
75	75	7
70	70	1
82	82	5
34	38	1
93	93	4
76	79	2
102	102	5
41	92	2
41	42	1
57	58	1
29	29	2
52	91	6
31	35	1
79	79	5
91	92	3
43	50	4
79	81	3
32	32	4
28	28	7
55	55	1
95	105	6
100	100	2
45	60	1
77	77	1
97	97	2
51	93	2
98	99	1
62	65	1
68	69	5
30	58	3
29	58	1
67	68	1
95	101	3
103	105	2
40	46	2
46	49	1
92	99	1
26	27	2
43	45	1
43	48	2
26	26	5
56	57	3
64	101	1
62	62	2
81	81	5
39	39	1
89	90	6
27	27	4
51	52	4
42	44	1
93	94	2
30	33	1
96	99	3
77	99	1
98	101	1
60	60	2
79	80	2
96	102	1
78	78	1
87	88	1
54	90	1
35	36	2
66	66	1
82	83	2
70	76	1
44	44	2
93	95	1
65	102	1
84	86	1
78	97	1
42	42	2
