10	10	40
129	144	3
54	55	8
94	94	8
35	35	45
6	62	2
41	41	27
104	104	9
120	136	6
164	164	19
73	73	14
0	1	3
55	55	9
76	76	21
15	15	28
114	116	2
44	44	22
83	83	14
88	89	4
80	80	17
95	95	19
87	100	3
126	155	3
103	103	12
5	5	23
39	39	10
110	110	20
28	28	15
97	98	11
1	1	18
11	11	22
16	16	20
9	9	32
147	147	24
65	72	2
6	42	1
17	19	3
154	167	4
88	88	14
140	140	12
14	14	23
152	152	26
36	36	24
40	40	21
139	139	7
111	111	6
22	23	7
78	78	18
99	100	13
173	173	28
31	31	22
71	91	2
162	162	13
145	145	25
71	130	2
30	30	26
6	10	4
128	129	7
13	16	5
56	59	6
115	116	7
36	61	4
156	156	11
135	137	4
21	21	17
28	29	6
50	51	5
29	30	7
2	35	2
170	171	2
29	29	14
128	136	2
172	173	5
160	160	19
19	19	16
121	121	15
36	38	5
108	108	11
44	45	3
2	31	6
23	24	6
138	138	7
136	161	3
4	4	11
137	137	14
8	13	4
18	20	3
134	134	5
2	5	8
91	92	9
13	14	13
92	92	21
51	52	4
38	38	26
149	149	20
5	39	1
102	102	9
136	136	10
146	146	7
26	28	8
171	172	11
176	176	15
43	43	16
72	74	6
8	10	6
177	177	10
37	37	20
5	7	7
18	19	12
50	50	8
90	90	8
120	120	11
180	180	4
62	62	5
120	143	6
10	11	14
117	145	2
132	132	6
116	118	5
20	20	18
133	134	7
170	170	14
30	35	2
89	89	17
173	174	4
25	25	16
107	107	4
165	165	15
53	71	5
10	79	3
3	3	20
166	166	5
73	81	2
3	43	2
0	37	5
59	61	3
67	67	9
128	128	5
114	114	7
164	165	6
33	33	16
60	61	9
53	128	2
72	72	12
81	81	15
81	94	2
142	144	2
124	124	13
7	29	2
30	31	7
103	104	21
14	77	3
109	113	6
53	53	17
127	135	3
40	43	5
125	125	19
2	2	11
109	109	23
133	133	8
51	51	6
135	135	7
101	101	3
148	167	1
179	179	5
144	144	12
169	177	1
103	105	6
79	139	1
87	87	23
58	58	7
120	121	2
130	141	9
45	80	2
167	176	2
38	39	4
148	149	6
22	33	5
8	8	27
65	65	21
63	85	4
168	168	19
118	121	3
111	112	6
73	74	5
17	17	19
135	140	3
59	59	5
81	90	3
151	151	25
122	125	6
119	119	8
24	24	20
103	106	2
94	102	4
77	77	16
148	148	29
68	68	8
77	78	2
129	129	10
159	159	7
45	45	17
35	36	5
83	85	4
3	5	6
26	29	2
86	86	15
42	67	2
6	6	16
131	132	5
159	179	6
54	54	19
19	23	2
86	89	2
158	163	2
13	13	10
17	18	2
76	77	2
143	143	6
115	151	1
1	9	3
174	174	12
2	3	8
75	75	6
164	169	3
67	68	4
93	93	18
151	162	4
42	42	22
59	114	9
85	95	2
154	154	5
171	171	10
51	125	1
169	169	9
8	9	9
79	79	9
32	32	21
123	124	5
45	97	4
78	80	6
172	172	6
9	20	4
113	113	8
32	35	3
2	41	4
62	63	12
117	117	7
27	63	4
19	20	9
63	63	3
26	26	25
171	176	2
92	118	3
70	71	5
116	116	17
21	43	6
39	40	15
60	60	9
27	65	1
87	89	1
99	99	9
153	158	5
165	169	3
110	111	9
74	78	1
71	71	22
105	105	13
91	91	11
115	139	1
163	169	2
125	141	2
12	12	9
84	85	1
122	123	1
46	46	3
141	141	12
27	27	17
7	7	23
32	33	6
56	56	12
12	30	1
148	177	5
178	180	1
125	145	5
170	174	4
167	169	2
165	166	10
116	128	3
82	82	12
7	28	3
106	106	10
39	41	2
45	96	3
49	67	5
112	114	4
61	61	11
85	86	1
142	142	15
40	41	6
62	118	2
161	178	3
52	52	23
85	85	8
34	35	4
12	13	11
1	36	3
76	78	3
130	130	4
155	155	14
14	15	2
5	6	4
150	150	9
37	160	2
11	14	3
96	96	19
163	163	10
25	27	2
117	147	6
151	153	8
152	158	4
158	168	3
127	127	4
162	171	3
160	165	7
98	99	4
71	72	2
73	85	2
16	17	4
147	148	1
166	167	8
3	12	1
31	42	3
21	22	2
31	39	2
25	79	6
88	120	2
123	125	1
78	139	2
160	177	1
130	131	7
29	31	11
0	0	9
23	51	3
129	130	9
31	32	7
6	9	3
28	30	2
153	159	6
6	71	4
128	146	1
11	12	4
115	120	1
24	25	9
167	167	2
11	73	1
135	148	1
122	122	3
18	18	6
34	34	15
26	61	1
127	130	2
53	54	2
96	97	5
0	14	2
52	53	2
54	61	3
108	110	1
24	26	6
112	112	12
10	97	5
74	74	10
18	21	3
29	75	3
33	44	4
154	162	4
23	23	21
6	72	2
19	29	2
28	31	3
142	149	2
41	42	10
179	180	4
133	138	1
124	131	3
95	101	7
169	174	2
100	100	7
25	26	5
102	106	1
158	158	6
169	178	3
55	57	2
63	64	2
57	57	6
145	147	1
139	140	1
154	177	5
7	11	1
10	13	7
7	19	2
97	97	8
84	84	13
152	153	6
115	115	10
136	137	2
166	171	4
151	152	12
33	35	10
56	127	1
0	36	3
12	33	8
66	67	4
64	65	2
6	7	2
162	164	5
160	161	3
37	38	5
175	175	3
146	155	1
10	18	1
81	82	6
156	178	1
3	31	4
131	131	12
30	33	1
143	154	3
93	123	3
148	154	2
147	150	3
137	147	3
53	96	2
118	148	2
19	26	1
16	19	1
178	178	6
13	18	1
102	103	8
170	176	1
12	14	3
96	98	2
58	59	2
153	153	7
22	43	3
6	31	1
7	8	3
15	20	3
176	179	5
25	28	3
118	118	11
5	30	2
126	126	7
114	135	2
57	58	2
11	13	5
134	141	2
106	135	4
141	142	8
117	130	1
91	103	2
91	94	2
134	137	3
154	155	1
119	129	1
38	44	2
141	145	2
91	141	1
100	115	1
121	123	3
146	147	1
76	94	1
7	41	3
144	146	2
27	28	7
148	170	1
137	141	1
104	110	1
143	144	2
74	85	2
145	146	4
173	175	4
55	132	4
15	16	3
108	111	1
123	123	11
37	39	3
161	174	1
143	145	2
174	176	2
108	148	2
50	65	2
15	17	2
22	22	7
9	11	2
21	27	3
157	158	9
3	32	2
35	44	5
33	43	3
112	140	3
166	173	2
174	175	10
155	178	3
113	114	8
131	141	4
111	113	2
132	133	3
31	33	4
124	125	3
32	36	4
169	170	4
127	128	2
19	32	4
31	34	5
7	9	4
62	67	3
83	84	6
161	161	3
153	161	2
43	44	3
142	146	4
155	158	1
86	87	6
150	173	2
127	145	1
14	25	1
18	80	1
75	96	1
116	136	3
10	15	5
10	12	4
127	131	2
14	17	1
159	162	6
153	163	2
128	130	2
177	180	2
1	2	4
78	92	2
109	110	1
15	67	4
26	62	1
6	41	6
157	157	4
148	180	1
113	155	1
158	169	2
23	31	3
104	105	2
26	27	1
13	63	2
27	29	3
114	115	2
42	45	3
74	134	4
143	147	1
75	88	1
177	178	2
87	107	2
140	141	2
116	150	3
2	15	1
70	70	7
145	180	3
101	103	1
10	44	3
166	175	4
116	137	1
45	46	2
64	64	5
98	115	2
1	56	3
9	13	1
27	33	1
66	76	1
57	59	2
9	46	2
49	50	4
42	43	8
18	36	1
81	99	2
65	66	5
133	139	1
168	170	3
144	154	2
151	170	3
117	118	1
172	179	4
7	31	1
61	62	1
136	140	1
121	122	1
10	21	1
11	83	1
132	180	3
159	160	2
9	16	2
96	111	1
167	168	1
87	90	1
80	85	2
112	113	3
12	25	3
142	154	1
32	54	1
89	90	2
99	113	2
4	33	3
10	16	1
2	4	1
95	96	2
118	135	4
139	141	2
118	119	3
173	176	1
12	31	2
52	85	1
106	107	1
29	34	2
178	179	2
1	5	1
38	52	1
168	169	3
155	156	3
53	83	1
24	63	2
109	111	1
154	156	1
35	37	1
60	139	1
108	114	1
8	11	1
35	42	1
73	82	1
146	153	2
30	43	1
118	152	1
9	21	1
8	19	2
62	68	1
142	155	1
101	115	3
7	22	2
24	27	1
98	98	3
63	83	2
17	51	2
128	135	1
14	79	2
20	21	2
114	117	1
23	52	1
25	59	1
114	120	1
16	20	1
170	172	1
17	40	1
119	148	3
23	34	2
107	109	1
71	79	1
12	46	2
13	51	1
146	154	1
175	176	1
18	22	2
17	122	1
11	16	2
10	14	3
5	36	2
111	147	2
17	21	1
32	81	1
30	36	1
120	144	2
17	27	1
105	118	1
20	37	1
22	49	1
54	81	3
10	19	2
5	73	3
37	57	1
149	157	1
13	35	2
153	157	1
134	135	1
98	100	1
127	147	1
176	177	3
164	166	1
5	10	2
52	75	1
91	145	2
3	4	1
94	108	1
164	174	1
10	17	1
55	56	2
159	168	1
2	7	1
70	139	1
66	66	3
119	121	3
8	21	3
52	96	1
87	101	2
4	34	1
94	101	1
3	45	2
97	108	1
6	21	1
73	75	1
5	45	1
4	19	1
8	16	1
72	172	1
143	153	1
102	147	1
37	41	1
119	120	2
1	39	1
138	139	1
9	10	1
118	139	1
29	41	1
61	74	1
164	168	1
30	160	2
6	40	1
2	9	1
22	24	1
79	93	1
177	179	1
14	78	1
3	13	1
4	12	1
129	145	1
101	110	1
12	15	1
2	22	1
158	165	1
