102	102	7
71	71	4
128	129	3
10	11	4
91	91	2
116	117	3
122	122	1
57	57	10
12	12	16
124	124	4
3	3	7
8	8	10
60	60	7
86	86	9
64	64	14
25	25	1
10	10	10
19	19	6
89	89	2
81	81	5
6	6	6
87	99	4
71	121	3
79	80	4
72	72	7
63	67	3
4	6	2
129	129	8
47	57	3
100	124	6
9	9	13
104	105	3
119	120	4
17	17	19
112	113	3
118	118	8
20	22	3
93	98	2
100	134	2
65	66	3
61	61	7
65	65	14
21	21	8
46	47	6
93	93	3
19	89	1
4	4	3
21	90	3
31	79	2
43	58	2
67	67	7
97	97	2
110	113	1
77	77	8
30	31	3
42	42	1
66	66	10
92	92	5
125	125	5
27	78	1
29	98	3
90	106	3
79	81	5
74	123	1
100	100	5
19	20	3
5	27	1
13	18	3
21	22	1
17	31	1
33	33	9
89	99	1
11	11	6
44	44	5
94	94	7
5	29	7
10	81	3
31	31	3
128	130	1
62	75	4
118	120	4
59	59	7
79	79	8
8	9	2
85	85	7
118	134	2
85	101	2
98	98	4
63	63	4
83	83	11
26	26	5
13	35	1
82	82	9
7	11	2
27	101	2
46	46	4
70	130	3
87	87	4
40	40	7
103	125	1
85	111	2
10	43	1
47	47	5
38	56	2
118	133	1
110	133	7
90	90	4
71	79	2
130	134	2
128	128	4
75	75	11
125	126	2
110	110	4
35	36	3
87	91	2
62	62	4
45	45	6
34	34	3
41	41	3
110	111	1
56	56	2
76	77	2
34	35	1
35	70	2
24	24	5
38	46	1
32	76	3
73	73	14
18	18	1
26	80	1
6	45	2
26	27	10
69	70	1
127	132	3
88	93	2
85	113	2
40	41	5
47	79	2
10	28	1
129	134	3
132	132	5
133	133	4
92	114	2
113	131	1
96	99	1
11	22	2
27	93	5
34	63	2
68	68	4
87	88	5
80	80	3
37	37	1
21	82	1
101	126	1
126	130	6
111	111	3
91	97	3
116	116	6
30	30	1
40	97	2
84	84	8
114	116	3
50	50	3
78	78	2
29	30	6
23	74	2
28	28	4
49	51	2
79	82	7
36	36	1
95	95	2
112	133	2
0	0	2
112	131	4
113	113	4
91	110	2
73	75	1
68	72	3
15	37	2
119	119	7
35	35	2
69	69	4
4	70	2
101	124	3
12	41	2
20	27	1
49	50	2
121	121	1
76	76	2
38	38	2
28	64	2
18	19	1
92	95	1
37	98	2
90	91	3
101	101	8
64	66	2
23	24	3
80	124	3
21	31	4
47	83	1
3	5	2
85	87	2
32	77	3
109	109	3
124	125	3
84	124	3
75	76	3
5	5	5
15	35	2
70	71	2
36	60	2
55	55	7
6	7	9
108	109	1
39	97	2
2	2	7
33	61	1
19	22	1
76	78	1
106	119	2
25	26	2
6	60	2
116	126	3
48	55	2
108	108	4
106	106	1
126	126	3
96	97	2
123	124	2
36	38	1
11	45	4
4	5	1
33	35	1
31	78	2
45	77	1
110	116	2
105	105	3
22	22	1
29	29	2
69	120	1
90	109	3
43	44	1
105	109	2
85	86	1
97	98	1
49	49	2
91	106	2
14	14	5
106	131	2
5	7	1
16	16	1
96	96	1
119	133	2
12	13	1
77	122	1
7	7	2
103	131	2
44	63	2
72	73	4
45	69	1
45	67	2
56	58	1
37	83	2
132	133	2
121	134	2
42	55	2
112	112	2
79	107	1
99	108	1
117	126	1
58	85	1
57	85	1
101	111	2
68	69	1
12	44	2
106	117	2
39	39	2
16	104	3
55	81	1
45	71	1
8	36	2
28	80	2
62	63	2
64	70	1
82	83	1
2	90	3
114	133	1
28	44	1
71	123	1
24	27	1
2	62	1
123	125	1
63	68	1
5	98	1
54	54	1
30	55	1
39	40	1
91	112	1
83	92	1
36	76	1
34	62	1
14	60	1
41	112	2
74	74	1
121	122	2
9	10	1
75	77	1
32	32	1
2	4	1
21	56	1
28	29	1
4	98	1
115	115	1
122	123	1
70	70	1
