71	156	1
150	150	13
8	53	1
148	148	5
46	46	12
70	70	4
26	26	13
42	49	3
38	39	1
48	103	3
92	92	1
87	87	5
28	28	8
75	75	5
139	139	8
43	43	9
96	96	5
83	83	1
98	123	4
126	126	8
105	105	8
70	71	3
42	42	8
87	88	10
16	24	2
93	93	4
107	107	4
69	69	6
47	47	5
128	128	3
36	36	5
88	88	4
94	95	4
77	77	2
113	119	1
123	151	1
71	154	3
118	118	13
6	6	4
156	156	3
137	137	4
37	37	7
54	54	7
124	125	7
113	113	8
140	145	3
7	8	1
2	2	7
94	105	5
40	41	7
43	47	1
140	141	9
135	135	5
113	115	1
78	78	1
97	97	3
153	153	2
12	13	2
23	23	4
55	55	5
44	45	3
127	127	3
82	82	4
100	100	11
130	130	7
105	124	1
131	135	3
28	31	1
138	138	2
50	56	3
124	124	2
128	129	1
151	151	5
5	5	7
12	37	3
145	145	6
89	89	7
4	8	4
69	118	4
155	155	8
123	123	5
17	17	3
10	31	1
7	57	1
119	119	2
81	148	2
110	110	5
115	115	7
14	37	3
33	33	2
85	85	1
91	91	12
14	14	3
133	133	5
98	98	2
86	120	2
90	121	4
27	27	9
30	51	1
13	37	4
12	23	3
116	116	8
141	142	6
86	86	3
133	142	2
69	143	2
41	41	8
0	134	1
103	103	6
107	113	1
11	11	2
112	112	6
138	139	1
125	125	4
4	4	9
11	36	3
77	78	7
50	50	7
25	25	2
117	117	7
120	120	11
62	62	2
84	86	1
33	34	1
8	13	2
29	29	5
68	68	3
133	134	3
95	95	1
118	119	4
40	93	3
121	121	6
127	145	3
2	47	1
13	13	6
52	52	3
90	90	2
20	20	7
24	24	4
104	106	1
9	13	5
146	147	3
1	1	6
53	56	3
12	12	4
14	34	4
9	47	3
144	144	3
109	109	5
18	18	2
146	150	3
158	158	4
147	147	2
15	15	2
7	7	4
45	45	3
42	67	2
38	38	8
81	81	3
129	129	6
30	30	1
144	151	1
3	3	5
10	16	2
106	106	1
12	36	2
19	19	4
108	108	3
142	142	4
93	95	3
48	48	7
7	36	1
119	120	10
105	123	1
50	51	3
114	117	1
70	122	1
67	142	3
25	31	1
107	108	1
117	118	2
8	8	5
16	31	2
109	111	1
40	40	2
67	123	1
8	42	1
73	73	3
44	44	4
10	11	1
17	46	1
72	159	2
146	146	2
50	52	2
114	114	5
134	134	4
24	28	2
119	122	2
23	30	2
2	9	2
62	63	3
99	99	2
45	46	4
131	131	3
68	142	1
5	6	2
2	30	1
66	66	4
35	35	1
15	28	1
143	151	1
46	158	1
9	28	2
154	154	7
82	119	1
51	51	1
118	120	2
141	141	1
19	20	2
20	21	3
80	80	4
2	49	1
41	42	4
35	47	1
13	14	4
132	132	6
111	115	1
2	150	2
66	71	1
111	111	1
75	77	3
16	151	1
3	4	1
56	64	4
109	112	2
88	111	1
57	70	1
0	0	2
15	153	1
46	99	3
135	137	1
82	108	1
114	115	1
112	113	3
54	55	1
65	65	1
49	53	1
68	136	1
86	121	1
118	123	1
22	29	1
89	97	1
91	110	1
123	124	1
69	148	1
20	24	1
0	92	1
10	10	2
48	49	1
8	9	4
103	126	1
67	70	2
16	16	2
132	134	1
31	31	2
22	22	3
3	48	1
131	132	1
82	83	1
13	53	2
14	31	1
80	81	1
143	143	1
81	109	2
2	157	1
40	42	1
104	122	1
137	138	1
16	19	1
62	158	1
69	146	2
8	47	1
90	94	1
42	43	1
57	57	1
3	57	1
100	101	1
84	102	1
151	157	1
45	48	1
96	113	1
56	56	1
85	86	1
2	45	1
111	118	1
150	152	1
125	127	1
19	35	1
26	104	1
34	34	1
153	154	1
87	151	1
149	150	1
39	39	1
86	107	1
55	102	1
92	93	1
154	156	2
23	24	1
