25	25	3
116	126	4
10	10	3
95	95	2
41	41	12
158	182	1
63	64	7
80	80	3
165	165	1
105	105	12
17	17	15
100	100	1
27	27	3
77	77	7
114	114	4
11	19	2
77	78	2
19	20	3
120	120	1
22	23	3
75	76	7
133	134	1
166	166	4
84	84	3
113	118	4
85	85	1
73	73	3
25	26	2
14	14	3
128	129	2
110	119	3
45	45	4
31	31	5
153	153	5
127	127	2
151	151	5
128	128	2
61	62	2
37	38	1
138	139	2
168	171	1
69	74	2
42	43	5
189	189	1
35	38	3
39	39	2
79	79	2
87	87	3
42	42	1
158	159	1
1	1	4
11	11	3
173	173	1
164	188	2
82	84	1
158	158	5
142	143	3
148	148	3
168	168	1
162	162	5
97	111	2
66	66	2
70	71	1
0	1	4
169	169	9
124	125	2
164	164	3
58	58	3
18	18	4
146	147	2
38	87	2
11	12	4
80	81	3
114	115	6
47	48	11
110	110	9
154	154	4
52	54	4
63	63	3
24	25	4
147	147	3
129	141	3
83	84	2
37	37	4
139	139	8
107	107	7
160	160	5
132	132	1
136	137	3
146	146	5
133	133	8
57	66	4
13	14	2
124	127	1
144	144	2
3	3	9
14	49	5
74	74	1
2	2	5
7	8	4
161	163	2
39	40	3
28	28	3
113	113	3
33	36	1
126	134	1
2	38	1
180	180	2
156	156	7
103	103	6
48	48	3
43	83	1
29	42	1
182	184	3
104	104	2
57	57	2
90	110	1
5	6	1
21	21	2
72	72	5
105	106	1
101	137	1
117	117	3
141	141	2
94	154	2
90	90	4
38	38	8
34	34	1
71	73	1
62	63	3
19	19	1
26	26	3
97	120	1
154	155	2
13	13	1
129	129	8
18	21	3
140	141	4
42	48	5
126	126	6
138	138	3
115	115	7
150	150	4
56	56	3
1	39	1
185	185	3
86	86	2
156	190	1
68	68	4
123	123	2
20	20	2
90	92	1
115	118	1
137	138	1
3	6	1
123	124	2
40	40	2
163	189	3
104	149	2
111	112	2
20	22	1
82	82	3
149	150	3
15	15	10
88	89	4
157	157	3
155	155	3
7	7	2
27	28	3
130	138	4
22	62	2
134	135	2
8	8	4
6	6	6
32	32	4
109	112	1
139	140	1
78	78	6
152	153	2
106	107	1
82	83	4
164	165	1
75	75	5
26	34	3
0	0	2
29	48	4
12	20	3
108	140	1
7	25	1
131	131	1
137	137	2
178	178	1
98	98	4
109	118	1
87	90	1
110	139	1
152	152	2
122	122	1
4	36	1
59	59	2
52	53	2
28	29	3
93	93	4
116	116	1
5	5	2
190	190	2
136	136	1
30	43	1
76	76	2
143	143	4
114	117	1
127	130	1
88	88	1
41	42	1
170	180	1
11	17	1
96	96	1
76	80	3
28	30	1
89	89	1
4	5	2
24	24	3
22	22	1
177	179	3
113	164	1
12	13	1
54	82	1
4	30	2
89	90	1
135	135	1
8	48	1
135	136	1
1	2	1
157	162	3
9	10	3
188	188	1
64	65	2
117	118	1
26	42	2
167	167	2
83	83	3
53	53	2
31	33	1
22	25	3
74	95	1
170	170	1
162	163	2
92	92	1
7	36	1
76	77	1
120	121	1
99	99	1
98	103	1
91	95	1
183	183	2
150	151	1
75	82	1
131	132	1
32	36	1
14	28	1
92	93	1
151	157	2
16	16	1
160	161	1
103	143	1
163	163	2
124	124	1
125	125	2
91	92	2
177	178	1
78	79	1
71	92	1
71	72	1
102	102	1
40	77	1
167	170	1
98	105	1
93	96	1
95	96	2
130	133	1
181	181	1
107	108	1
139	170	1
116	119	1
177	177	1
113	119	1
172	173	1
142	145	2
24	84	1
166	169	1
76	82	1
38	39	1
135	137	1
119	119	1
168	169	1
56	58	1
109	110	1
11	18	1
70	70	1
96	110	1
81	82	1
