145	154	12
125	125	7
138	138	8
47	47	9
95	95	9
11	81	3
155	155	7
29	30	2
136	136	10
153	153	10
87	114	12
48	48	2
45	47	6
22	22	11
8	8	18
151	151	19
91	91	8
125	126	3
17	80	5
9	9	13
13	13	6
145	146	8
131	132	2
86	86	10
123	123	11
94	95	10
122	155	3
19	22	9
134	134	12
21	21	9
67	67	7
7	26	2
17	17	10
104	104	7
104	109	2
144	157	2
80	80	20
93	94	9
0	1	1
102	102	7
52	52	7
106	106	7
89	113	2
62	63	3
92	95	1
40	40	5
14	14	10
30	36	2
107	107	7
127	127	11
11	11	10
120	120	5
77	77	12
90	111	4
142	142	11
45	53	1
92	92	7
7	7	17
110	110	4
145	148	3
126	126	17
8	10	12
109	110	10
109	109	10
132	132	9
62	62	4
23	24	7
77	78	1
85	85	9
19	19	14
66	68	2
53	53	12
16	16	4
94	101	5
42	42	13
117	118	2
70	71	1
51	51	5
67	69	2
69	71	4
47	54	9
50	52	3
43	43	13
135	135	19
48	53	9
105	105	16
16	18	2
116	117	3
116	116	3
83	154	2
90	91	6
20	20	12
113	114	3
79	79	8
121	121	10
101	117	2
3	27	1
50	50	12
10	10	11
76	106	2
150	150	9
131	155	1
100	100	6
99	99	19
46	46	11
106	108	6
98	98	9
2	2	11
111	112	6
90	90	11
86	87	1
24	25	3
123	132	1
77	149	5
48	52	6
4	4	10
154	156	6
22	52	4
129	130	9
14	15	3
152	152	14
19	20	4
68	154	1
22	23	6
31	31	8
3	4	8
105	106	4
88	113	2
69	70	4
0	0	12
55	55	10
38	38	7
17	23	2
133	135	1
77	145	3
134	135	7
131	131	12
96	97	12
28	28	4
54	54	7
52	54	9
118	118	6
25	25	8
79	81	4
11	17	1
1	1	8
155	158	1
30	30	6
124	125	5
26	26	15
66	66	9
97	121	2
10	11	2
145	145	8
110	111	3
123	124	4
4	29	4
31	32	6
49	49	4
156	156	6
88	88	8
22	44	3
127	128	3
88	126	2
89	89	9
75	75	6
18	18	11
130	130	6
42	43	3
54	55	4
20	26	3
82	133	4
84	85	2
23	78	2
19	53	2
154	154	6
96	96	7
43	46	3
27	66	2
49	68	1
122	122	19
108	109	5
35	54	2
157	157	6
133	140	2
133	133	4
78	83	2
103	103	16
30	32	1
102	138	2
148	148	9
91	96	1
73	73	5
136	137	3
81	83	1
23	23	12
114	114	7
144	152	3
107	138	4
81	82	6
130	131	2
21	22	3
144	144	7
92	93	2
4	31	1
37	37	14
51	52	5
76	102	2
69	69	6
44	44	6
94	139	4
40	41	8
36	36	8
97	97	6
0	12	6
91	93	1
83	83	8
87	87	9
50	51	5
107	139	1
134	136	7
108	108	9
105	127	1
158	158	3
81	81	16
140	141	5
63	63	1
9	15	3
77	111	1
82	154	2
138	139	7
6	7	2
29	29	6
18	20	4
132	134	4
33	33	4
150	154	1
84	84	4
116	120	1
71	71	3
152	155	4
119	119	8
118	128	4
98	129	3
104	126	1
70	140	4
107	134	1
92	157	5
35	35	9
41	41	8
11	12	2
130	152	4
135	138	1
140	140	3
131	156	4
110	121	1
7	8	2
89	91	3
27	29	2
111	111	4
3	3	10
121	155	3
93	93	5
82	119	2
91	154	3
39	39	7
97	112	3
19	21	5
70	70	7
12	17	3
16	29	2
23	129	3
128	128	2
82	82	8
56	56	5
43	47	2
110	112	1
134	139	4
146	146	6
12	12	9
114	115	2
38	55	1
88	89	4
144	145	2
5	5	9
72	72	10
84	86	1
148	149	1
44	45	4
46	48	2
140	143	1
32	32	6
115	116	5
97	120	7
25	28	1
106	107	5
85	86	8
30	31	2
48	54	2
117	124	2
95	96	1
129	129	6
45	45	5
57	63	1
101	101	13
115	115	6
137	138	10
146	147	9
6	6	9
86	90	3
9	10	3
1	2	1
104	123	3
3	28	3
18	55	1
86	92	1
33	34	3
11	28	2
91	94	1
154	155	2
34	34	5
9	12	5
85	96	2
36	48	2
125	128	1
87	116	1
17	85	1
98	99	3
36	63	3
26	30	1
127	135	6
68	69	3
84	143	2
53	54	1
15	38	2
46	52	1
104	105	2
117	117	6
7	46	1
106	133	1
38	50	2
31	49	1
82	85	2
116	143	2
150	151	4
31	38	1
112	112	4
122	140	2
113	113	8
138	140	2
72	73	3
28	32	3
2	3	1
147	148	2
77	82	1
57	57	2
30	116	1
80	81	4
27	27	3
42	64	2
21	29	2
14	30	3
109	117	1
97	111	1
155	157	1
91	116	1
79	80	2
123	125	2
39	51	1
144	154	2
49	56	1
34	54	1
10	28	2
153	154	1
47	52	2
22	48	2
10	12	1
137	137	8
32	36	1
18	66	2
68	68	5
36	40	1
106	136	1
152	153	1
56	65	1
102	103	2
133	134	1
43	45	1
26	28	2
94	94	1
15	29	1
78	133	2
67	155	2
87	117	1
21	26	1
54	73	1
85	142	1
86	95	2
24	24	5
155	156	3
67	122	3
65	66	2
133	143	1
50	69	3
30	39	2
103	105	3
25	29	4
132	133	2
95	97	1
21	39	3
122	133	1
15	15	2
42	62	2
77	132	1
103	122	1
18	19	3
83	157	1
149	150	2
75	137	1
75	76	1
82	155	1
83	85	4
32	40	1
17	18	1
103	104	3
109	114	1
88	104	3
118	119	2
153	156	1
121	125	1
111	127	1
24	154	1
49	54	1
147	147	1
109	113	1
28	29	1
26	27	1
91	121	1
79	86	1
21	86	1
67	70	3
117	120	2
38	40	1
8	17	1
41	55	1
139	157	1
87	111	1
13	14	1
88	145	1
49	53	2
76	78	1
120	128	1
67	68	1
109	121	1
121	122	1
22	55	1
101	129	1
34	39	2
9	16	1
89	126	1
72	135	1
28	31	1
71	134	1
41	56	1
39	40	1
139	155	1
132	156	1
85	95	1
20	29	1
118	120	2
97	98	1
77	80	1
141	141	1
89	90	1
82	83	1
65	65	1
8	15	1
78	78	1
88	90	1
