99	100	12
120	120	13
31	39	6
138	138	6
145	145	15
29	29	20
55	55	9
62	62	22
48	50	1
63	63	14
114	114	5
119	133	1
109	109	5
144	144	14
101	102	10
8	9	4
141	142	5
123	123	13
52	52	6
111	111	9
15	17	2
61	62	6
16	54	4
10	10	5
43	43	7
17	17	37
80	80	6
26	26	11
29	30	5
114	116	1
69	69	13
133	134	7
96	97	2
101	101	21
122	122	7
84	84	7
132	132	8
118	119	15
38	38	22
2	6	2
27	27	25
3	3	7
42	42	17
18	19	12
86	86	4
97	110	3
102	102	14
116	116	10
9	11	2
63	64	10
65	65	4
103	103	12
77	79	6
92	92	4
8	8	10
130	131	8
86	106	3
78	78	9
106	108	2
134	134	24
134	135	7
104	104	8
10	87	3
133	133	5
112	112	14
131	132	3
107	107	5
116	139	1
128	135	3
81	83	1
121	126	6
56	56	11
19	19	14
28	31	1
140	141	4
53	53	14
75	77	2
4	4	3
117	117	28
66	67	4
76	76	9
131	131	19
70	71	2
89	89	10
28	30	5
83	83	7
16	16	10
113	113	11
95	95	6
59	59	6
127	127	13
19	20	8
67	67	15
13	15	6
99	99	18
142	142	13
110	110	5
85	85	1
27	28	8
93	94	4
66	66	5
71	72	5
25	25	14
72	72	7
0	0	10
24	24	7
55	56	2
117	118	6
125	125	18
60	60	12
17	18	4
84	86	4
94	94	7
129	129	12
138	141	2
128	129	6
136	138	5
4	6	1
99	125	1
84	85	7
9	9	12
100	101	2
24	25	3
113	115	3
17	19	4
50	50	3
137	138	3
1	62	4
1	1	16
39	39	6
49	49	11
122	123	5
13	14	6
139	140	8
126	126	21
139	139	13
115	116	1
23	26	2
89	90	9
59	60	5
96	111	5
68	68	11
38	39	5
34	35	4
109	112	2
126	127	2
22	31	2
33	35	1
93	93	7
83	84	2
56	57	3
47	47	4
91	91	5
19	131	1
140	140	11
135	135	8
13	54	2
86	87	5
119	119	7
37	37	9
17	134	1
66	78	2
4	5	3
41	41	12
17	25	2
111	140	1
140	142	2
55	57	2
6	95	2
14	53	3
113	142	1
35	39	2
6	6	3
125	137	2
105	108	4
37	90	3
23	94	2
89	105	4
32	34	4
114	134	6
22	22	9
127	128	5
141	141	14
23	23	18
18	18	15
94	98	1
32	32	11
124	124	10
30	37	4
48	48	7
142	143	7
25	26	6
14	15	4
73	75	3
83	104	5
59	61	1
12	12	2
35	35	5
143	144	8
78	79	2
40	129	1
96	96	5
143	143	7
24	89	1
119	127	5
92	94	6
11	11	5
88	89	6
2	62	1
119	128	2
24	91	1
77	77	2
74	75	1
89	91	2
79	79	2
52	53	3
117	132	2
73	73	7
81	85	1
65	79	6
49	52	1
30	30	8
92	138	2
80	89	3
62	68	1
124	143	1
16	18	1
81	107	1
61	61	2
28	29	6
137	137	7
58	59	2
19	28	2
59	80	5
20	28	3
35	37	4
14	14	5
126	129	3
64	64	13
81	81	5
67	68	2
13	13	6
9	10	6
91	100	3
125	126	4
100	100	4
117	130	4
90	90	4
5	6	3
67	74	3
128	128	15
82	82	8
20	20	6
121	121	3
136	136	8
68	69	2
21	21	5
70	98	1
105	105	5
64	65	3
99	128	3
83	85	10
16	55	3
37	38	7
18	20	1
10	11	12
21	22	4
88	88	3
42	102	1
80	107	2
18	122	1
97	99	2
99	131	5
115	117	2
127	138	3
23	24	1
70	70	3
21	144	1
27	133	1
114	115	4
1	2	2
80	104	4
58	58	3
28	28	9
47	51	1
129	130	5
114	117	1
12	16	4
87	88	1
98	98	5
136	137	5
146	146	3
100	125	1
102	103	4
31	32	1
91	92	5
124	142	2
119	120	8
79	80	1
73	74	2
132	133	4
35	36	2
71	71	6
57	57	3
33	36	5
116	118	2
41	101	1
145	146	3
108	110	1
33	33	5
82	95	4
49	50	3
66	77	6
112	113	6
36	38	2
29	42	2
54	54	1
34	34	3
9	90	1
106	106	6
38	41	2
15	16	6
40	41	1
80	105	2
75	76	2
54	57	1
118	118	13
22	121	3
60	80	1
90	91	1
97	97	9
62	82	2
20	21	3
118	120	1
108	108	6
105	106	2
98	122	1
108	109	2
103	125	3
24	56	3
42	43	1
40	40	8
42	101	2
103	113	1
138	139	4
98	109	1
87	90	1
121	122	4
36	36	3
68	104	1
68	71	1
95	96	1
50	52	2
107	108	3
70	97	1
113	114	2
120	134	2
127	139	1
116	135	1
120	122	1
129	137	1
122	143	1
25	27	1
89	92	2
135	141	1
20	27	1
108	139	1
0	2	1
75	75	3
48	126	3
31	31	3
62	83	1
119	134	1
115	115	2
142	144	2
70	72	2
130	130	6
29	38	1
106	118	2
64	81	2
53	54	2
112	117	2
107	124	3
134	140	1
27	126	1
50	51	3
65	77	3
123	124	2
15	15	2
131	134	1
65	66	6
90	140	2
48	49	6
13	31	1
79	105	1
113	117	1
92	133	1
103	104	1
62	63	1
18	119	1
17	38	1
112	121	2
76	79	1
46	50	1
73	104	1
60	82	1
19	136	2
16	17	6
34	37	1
135	136	4
129	131	2
128	144	1
2	3	2
18	30	2
117	131	1
102	106	1
11	16	1
8	103	1
97	98	1
114	146	1
121	128	2
31	33	2
80	123	2
22	23	1
121	125	1
84	109	1
81	104	1
125	127	1
87	89	2
63	66	1
126	137	1
91	106	1
141	143	1
88	90	2
124	125	1
28	38	1
57	58	1
81	82	1
59	81	1
3	4	3
0	3	1
60	62	1
107	110	1
89	110	1
82	124	1
67	97	1
24	55	1
36	37	1
125	128	1
14	34	1
136	140	1
1	16	1
97	122	1
115	129	1
41	95	1
77	80	2
99	101	1
137	139	2
5	5	2
22	28	1
130	135	1
69	87	1
104	107	1
11	61	1
74	74	3
26	90	1
122	142	1
33	34	3
39	40	2
104	105	1
124	128	1
95	99	1
87	87	1
125	129	1
100	102	1
81	105	1
26	40	1
103	127	1
127	129	1
