106	106	8
129	129	12
132	133	4
11	21	2
51	90	1
49	49	7
98	98	10
59	59	14
91	111	7
86	86	15
47	54	6
25	25	10
47	47	14
57	57	5
29	29	8
38	38	3
97	97	1
107	108	6
84	85	4
75	75	5
27	27	7
50	50	19
44	124	4
43	43	9
82	83	9
134	134	10
17	28	2
131	131	16
56	56	20
119	119	13
116	135	1
61	61	17
76	115	5
44	110	6
122	122	10
125	125	16
105	105	9
77	78	9
19	19	11
45	106	2
58	58	3
109	110	4
122	132	3
83	83	11
85	85	20
73	76	7
23	23	6
113	114	1
119	132	3
102	102	13
25	32	3
91	91	12
96	96	12
15	42	2
67	86	2
23	24	11
107	107	3
95	95	9
2	5	2
114	114	8
98	128	6
28	71	2
15	15	4
55	55	10
114	115	2
126	126	6
2	2	10
34	34	13
17	61	1
93	94	1
130	130	11
105	107	3
126	134	2
13	18	8
78	83	3
70	70	8
121	121	5
88	88	12
120	120	10
94	94	11
71	71	9
130	131	5
45	45	3
3	3	5
100	123	3
99	116	4
66	67	3
94	104	4
87	87	6
50	54	2
77	82	2
82	85	10
27	71	2
83	113	1
65	66	2
85	117	2
54	54	5
55	59	6
131	133	5
21	21	5
92	92	6
90	115	7
45	83	6
66	66	12
74	74	27
65	68	1
49	50	10
81	81	3
86	100	3
52	53	2
124	134	3
118	121	5
53	53	3
58	59	11
85	88	2
78	78	8
76	76	8
68	68	12
48	49	7
36	36	1
78	81	2
7	20	4
80	80	15
81	84	1
133	133	4
64	64	7
15	16	1
24	25	5
123	123	10
119	120	6
62	62	6
25	26	5
0	1	1
104	104	15
100	100	10
75	99	1
11	11	6
7	7	1
90	90	12
94	102	2
74	127	1
110	111	2
132	132	9
84	84	7
69	69	12
91	92	3
73	73	12
133	134	4
37	37	5
123	133	6
97	109	3
120	122	7
74	75	2
116	129	2
59	61	1
14	15	1
93	126	1
108	123	1
55	64	1
33	33	6
115	115	4
10	45	1
125	126	4
97	103	3
17	62	3
34	35	5
51	79	3
80	81	3
117	121	3
12	12	1
79	80	2
42	43	2
86	117	2
83	84	7
110	110	4
86	107	3
127	128	10
117	122	2
23	35	1
67	67	8
9	9	5
11	33	3
30	30	3
77	77	9
10	10	5
96	112	4
121	134	1
93	93	15
54	57	2
22	27	6
106	111	1
22	22	5
0	0	1
109	109	7
60	60	9
56	57	4
112	114	4
112	112	9
82	84	4
122	130	4
101	102	4
1	1	7
94	95	1
117	119	4
93	124	3
116	120	2
5	6	5
99	99	4
14	19	1
26	26	7
89	95	1
82	82	4
5	9	2
99	109	1
19	26	2
131	134	4
127	127	5
60	65	4
72	120	2
4	4	9
6	6	4
105	106	2
33	34	3
28	28	1
94	115	2
60	61	7
62	63	12
67	68	2
118	125	3
23	43	3
92	95	4
116	116	5
5	5	5
126	128	1
101	116	2
18	19	2
81	106	4
123	124	1
122	124	2
29	30	2
26	36	2
100	131	2
102	103	6
13	13	3
14	14	3
98	105	3
21	70	1
101	101	7
54	84	1
101	104	3
8	8	10
86	105	3
102	104	1
88	121	3
108	108	3
32	32	1
31	31	2
16	16	1
126	127	2
91	106	3
50	52	3
1	4	3
28	30	2
27	36	1
79	85	1
111	128	1
0	72	5
103	103	4
105	111	2
101	123	2
20	20	2
1	2	2
88	91	1
30	31	1
108	109	4
59	60	1
35	35	5
65	65	1
53	69	2
117	118	1
77	79	5
81	82	1
80	134	2
125	129	1
54	55	2
110	114	1
113	122	1
70	74	1
117	117	3
16	17	3
10	39	1
124	124	2
100	106	3
44	44	2
63	77	2
19	21	1
115	116	1
101	103	2
18	18	2
121	122	3
109	111	1
87	88	2
55	58	2
117	125	2
118	118	1
3	4	1
73	102	2
58	77	4
53	61	2
113	113	3
100	108	1
37	38	2
120	121	2
128	130	1
103	104	2
0	104	1
105	127	1
18	21	2
55	57	2
120	123	1
75	115	1
90	98	1
118	128	1
73	74	1
72	72	4
13	16	1
48	48	2
79	79	5
89	89	2
15	17	2
114	135	2
93	99	2
118	120	1
46	47	1
108	130	1
128	129	2
118	119	3
17	17	2
52	60	1
112	113	1
91	97	1
122	123	1
107	110	1
21	22	1
68	74	1
84	113	1
128	128	2
12	43	1
23	27	1
114	127	1
97	129	1
104	126	1
109	129	1
96	123	1
59	63	1
96	97	1
110	125	1
99	102	1
92	99	1
9	10	2
44	109	1
64	120	1
111	111	1
88	93	1
100	103	2
89	92	1
30	74	1
53	67	1
106	107	1
45	98	1
88	102	1
