81	127	2
29	29	2
103	119	2
37	37	3
128	128	3
90	92	4
95	99	4
98	99	3
21	21	2
25	25	8
31	31	1
100	100	2
137	144	3
68	69	4
99	114	6
123	147	2
17	17	3
132	132	2
68	78	1
122	124	4
65	65	1
21	42	1
108	108	3
14	15	4
114	127	2
106	106	5
146	146	14
116	116	2
55	55	1
112	115	2
83	86	1
144	145	3
47	47	3
4	4	4
66	84	1
21	22	1
86	87	3
103	111	2
68	98	4
99	122	4
69	69	2
96	127	1
103	114	1
118	118	2
139	139	2
76	76	1
133	137	4
115	142	2
97	97	6
136	136	3
10	11	4
94	111	1
93	94	1
71	78	1
3	7	3
14	14	4
138	146	1
87	88	4
72	73	2
7	7	1
126	138	2
111	114	2
40	40	2
121	121	1
33	33	1
80	83	1
58	58	3
51	52	4
119	119	3
141	141	2
5	56	2
93	111	2
41	41	1
118	119	1
27	27	2
13	13	1
11	43	1
40	41	1
81	83	3
61	61	2
22	22	4
20	21	1
85	85	3
90	114	3
87	87	2
124	138	2
94	103	2
57	57	1
35	35	4
125	136	1
63	82	1
11	39	6
133	133	2
98	111	2
32	32	5
26	26	2
20	20	4
27	28	1
149	149	8
54	57	2
38	76	1
139	140	1
15	22	2
8	8	2
75	76	5
65	66	2
84	84	1
117	143	1
85	142	3
32	43	3
103	110	3
79	79	1
65	67	3
53	53	6
37	53	2
112	145	4
107	107	3
54	74	1
71	71	1
67	67	2
39	40	1
97	103	1
94	94	1
113	113	2
70	78	2
2	4	1
124	145	1
114	117	4
85	138	2
150	152	1
148	150	1
6	6	3
64	65	2
109	109	1
75	75	2
75	128	1
144	144	2
13	16	2
92	92	1
62	84	1
73	73	2
5	5	4
147	152	1
99	115	1
130	130	1
50	50	2
15	44	3
82	82	1
28	28	1
24	41	1
36	51	1
110	110	2
147	148	2
125	125	1
16	16	1
36	36	1
68	79	1
38	38	1
106	107	1
93	95	1
107	108	2
13	79	1
42	43	1
152	152	1
4	75	1
80	80	1
88	95	2
4	6	1
103	103	2
15	29	1
106	116	1
25	42	1
74	74	1
78	100	1
94	95	1
