52	52	11
70	70	19
63	64	4
94	95	9
53	53	5
57	57	14
37	38	2
36	36	16
61	71	3
51	51	16
33	33	16
80	80	10
52	54	6
95	95	14
48	48	20
81	81	14
28	61	3
65	66	2
78	78	9
67	69	1
25	28	4
81	82	3
84	97	1
74	90	1
103	103	11
86	86	12
54	57	1
84	84	12
102	102	22
51	52	3
25	81	6
27	27	9
48	49	5
97	97	15
97	99	9
57	59	5
56	56	11
42	45	4
94	94	8
58	58	12
67	67	13
54	54	6
69	70	7
82	82	16
41	41	15
68	69	9
39	39	12
26	29	3
82	83	13
20	84	5
50	51	13
99	99	14
106	106	8
33	34	8
54	55	10
106	107	1
81	94	3
38	39	6
78	79	4
68	68	22
69	69	18
55	55	10
79	82	2
87	87	11
92	92	13
44	44	10
42	43	8
31	49	1
59	59	9
40	41	1
37	37	8
45	50	6
47	49	3
77	78	6
42	50	1
27	28	6
101	101	16
50	57	1
62	62	11
37	39	1
80	85	2
100	100	14
76	93	1
58	84	1
39	40	2
31	31	7
81	84	2
65	65	5
96	96	17
104	104	16
20	28	3
105	105	12
66	67	9
42	42	10
97	106	8
59	60	13
91	91	20
101	105	3
74	75	5
58	60	8
78	84	1
84	93	1
51	64	1
84	85	6
79	79	9
83	83	9
99	106	1
38	38	2
100	104	2
104	105	4
24	79	2
37	40	2
66	66	13
28	28	8
58	59	4
99	100	4
50	50	14
30	31	3
60	60	9
26	26	10
83	84	12
76	92	2
82	85	5
21	21	12
72	73	9
24	24	8
23	23	5
95	96	11
64	93	1
54	64	1
29	72	1
91	92	8
37	49	3
93	99	2
25	30	2
49	49	8
95	97	8
22	29	2
85	85	15
95	99	1
46	47	3
93	94	3
89	98	1
65	74	5
92	93	4
98	98	10
51	56	2
35	35	5
88	89	10
51	95	1
30	40	2
72	72	8
22	28	2
88	88	12
61	63	5
40	40	4
64	64	8
75	75	14
65	67	2
95	107	1
52	53	3
27	30	3
103	104	3
61	61	10
32	32	18
73	73	7
96	98	6
86	87	6
53	66	2
63	63	14
93	93	9
71	71	15
47	47	10
76	77	3
20	62	2
50	74	2
51	58	3
89	89	17
62	63	3
65	68	4
71	72	2
55	56	2
29	41	3
79	80	5
37	45	1
78	94	2
96	97	7
20	60	2
97	98	6
57	76	1
29	58	7
79	81	8
27	29	1
20	25	1
49	50	3
46	50	1
100	101	1
46	46	2
64	65	5
40	46	1
97	100	1
77	77	9
70	92	3
87	89	3
76	76	14
103	105	1
84	87	3
101	102	3
56	57	5
86	88	1
89	90	4
43	44	5
93	95	3
30	30	1
62	84	1
25	25	4
29	30	1
47	48	1
59	72	2
29	59	3
87	88	5
67	68	5
62	85	2
22	22	9
54	66	2
36	41	2
41	48	10
19	29	1
79	99	1
83	85	4
55	59	4
105	106	1
101	104	4
74	74	13
23	27	3
70	73	3
34	34	9
90	91	5
98	99	7
39	50	4
90	90	5
23	30	2
66	68	4
77	81	1
102	104	1
43	43	4
23	32	1
53	54	3
26	91	1
93	97	3
63	66	3
56	90	2
44	45	2
45	47	4
29	49	1
45	45	3
28	29	1
24	30	2
39	41	2
22	23	2
52	102	1
23	24	2
54	58	1
57	58	2
22	47	2
67	73	1
41	47	3
61	62	2
82	93	1
48	99	2
62	93	2
80	81	2
54	72	1
25	27	1
65	69	2
82	86	2
92	98	1
77	80	1
102	103	3
25	32	1
83	88	1
54	77	1
57	61	1
83	86	1
39	46	1
25	78	1
63	65	1
84	99	1
29	29	1
21	27	1
71	73	1
52	55	1
52	71	1
72	91	1
58	88	1
23	45	1
75	103	1
68	70	1
21	28	1
53	72	1
95	106	1
64	91	1
86	92	1
