39	51	2
23	23	24
53	54	8
46	48	8
31	31	10
18	19	7
37	39	5
58	60	3
46	47	7
44	44	15
49	49	11
59	59	20
42	49	4
52	52	31
14	16	6
37	41	1
9	10	7
41	56	3
6	6	17
47	47	28
35	36	11
11	12	15
42	42	31
50	50	22
55	56	7
37	50	3
56	56	16
12	12	11
38	38	20
43	43	29
34	36	2
3	52	4
57	57	18
8	8	8
53	55	2
5	5	16
39	40	12
62	62	24
35	40	2
31	54	6
38	51	3
16	16	17
46	46	16
38	58	1
53	53	10
43	47	2
58	59	6
60	60	12
38	39	10
33	33	30
30	30	23
45	45	23
31	44	1
32	33	11
55	55	23
61	61	21
36	36	23
15	16	6
45	47	4
10	11	11
40	40	21
19	19	7
22	22	8
22	23	6
49	50	6
30	35	5
54	55	4
54	54	17
7	13	3
20	20	11
32	34	5
34	34	59
44	45	3
43	44	6
21	21	16
58	58	12
42	52	5
48	48	55
35	35	46
24	24	9
22	42	2
3	3	13
45	46	7
37	37	19
1	2	5
33	34	7
13	13	11
9	9	22
17	17	9
41	41	12
52	60	2
40	51	4
22	41	1
19	22	4
54	60	2
2	2	16
10	12	4
18	18	7
22	45	2
4	7	2
14	25	3
41	45	5
44	54	2
32	32	23
37	38	3
61	62	9
10	48	6
11	11	12
15	15	10
10	10	14
8	13	3
31	45	3
13	14	1
11	13	3
56	57	9
30	42	2
19	36	3
17	24	2
31	32	2
50	51	3
50	54	1
48	55	1
0	7	5
59	60	8
48	49	7
51	53	6
36	37	9
43	49	2
7	7	3
34	37	1
13	16	5
56	58	3
9	12	3
45	57	2
17	18	4
37	40	1
31	40	7
51	52	1
8	16	5
25	25	14
53	58	4
4	4	5
6	8	4
47	48	4
41	54	3
39	60	5
37	52	4
29	30	2
40	41	7
38	40	7
49	60	4
1	1	9
31	36	2
9	14	2
41	44	3
44	61	3
0	0	3
31	56	1
17	46	3
18	23	5
12	13	3
39	61	3
36	43	5
19	23	2
39	39	6
32	50	1
9	15	1
19	21	5
9	19	2
51	51	13
36	60	2
25	30	5
5	6	3
43	56	1
32	55	1
30	31	4
52	53	7
14	14	4
42	44	4
30	52	4
37	58	2
38	59	1
30	50	3
20	44	1
44	49	6
3	5	1
20	21	2
50	59	1
14	15	5
42	58	2
12	16	4
60	61	8
21	42	2
39	41	2
41	42	3
21	44	1
55	57	7
46	57	3
32	43	2
22	44	1
34	35	1
38	49	2
47	49	4
31	33	1
23	24	2
8	15	2
2	3	2
54	58	1
31	60	3
24	38	2
20	39	3
40	55	2
5	15	1
5	7	2
7	9	1
6	7	3
50	57	1
31	46	1
57	58	2
45	48	2
23	41	1
0	1	2
43	46	1
52	57	1
29	29	1
1	5	1
38	41	1
4	5	2
20	22	1
34	49	3
42	50	2
13	15	1
8	9	1
39	42	2
36	50	2
24	41	4
7	48	1
33	36	1
46	49	3
32	35	1
41	57	1
30	49	1
22	40	1
42	43	1
35	43	1
57	60	2
1	3	1
20	42	2
52	55	1
21	22	1
21	43	1
7	8	1
21	23	1
38	61	1
31	49	1
3	25	1
43	45	1
45	51	1
37	56	1
42	56	1
31	47	1
3	4	1
