86	86	15
108	108	5
106	106	15
29	29	10
114	114	10
69	70	5
68	68	7
103	104	5
28	31	2
33	49	5
83	84	7
101	101	15
43	49	6
64	96	10
89	89	7
60	60	2
47	47	14
63	72	3
34	34	7
78	78	11
68	94	3
44	44	22
79	79	15
31	31	4
68	69	4
104	104	13
76	76	8
72	72	15
30	30	5
102	104	3
22	54	5
36	37	3
91	91	18
47	48	10
77	111	4
82	97	3
59	68	1
89	91	1
109	110	8
58	58	7
86	87	5
52	52	8
63	65	1
51	51	5
38	38	12
76	79	1
80	80	12
34	35	3
75	76	8
28	41	7
49	49	8
50	50	8
69	69	14
65	65	17
34	52	1
88	88	8
98	98	12
22	22	5
45	45	14
62	98	1
56	56	11
73	76	5
33	33	11
41	41	7
70	72	2
50	56	1
22	23	12
44	111	5
74	83	6
103	103	11
76	77	8
39	54	3
25	25	1
43	47	2
90	90	8
93	93	7
107	107	7
67	70	4
85	86	4
26	26	7
77	77	12
29	30	5
58	59	10
62	62	7
35	35	4
96	100	3
83	83	15
67	67	6
73	73	15
92	92	7
76	78	11
52	53	10
62	66	7
61	61	17
59	59	16
55	59	3
39	40	7
44	49	8
45	48	2
113	114	3
83	85	3
85	85	8
66	67	13
96	96	13
82	82	11
21	21	2
62	63	2
54	54	16
109	109	10
28	34	2
71	71	13
20	20	6
75	75	16
40	40	10
63	68	1
75	82	4
77	78	3
36	36	4
65	66	2
90	113	4
71	72	6
88	89	5
24	24	4
66	66	5
28	33	3
40	41	1
78	79	4
23	53	4
71	93	5
37	37	3
102	102	8
61	76	1
110	110	12
37	38	5
34	36	2
55	55	6
39	39	4
111	111	4
74	75	5
68	81	2
100	100	7
81	81	2
93	94	3
74	74	1
42	42	8
96	106	4
113	113	9
80	81	6
102	103	1
27	28	1
23	46	2
38	76	2
94	95	5
28	28	6
74	107	1
94	94	3
69	72	2
90	91	6
48	48	4
65	87	3
84	99	2
70	70	5
49	50	2
100	104	2
105	105	10
89	97	3
37	41	4
29	40	2
74	76	2
99	99	11
89	90	7
59	60	3
55	56	1
57	57	10
50	51	1
27	27	6
73	79	3
95	98	2
61	62	1
25	30	1
38	39	2
43	43	3
105	106	4
29	46	1
107	108	5
106	107	7
72	87	3
104	107	2
81	94	3
47	56	4
81	93	2
99	102	1
96	97	4
60	62	2
35	83	5
97	97	6
64	64	3
109	111	3
84	84	7
64	65	1
84	100	1
95	101	1
33	39	2
80	85	5
97	98	1
23	52	2
53	53	2
41	42	2
46	53	1
23	24	2
22	57	4
63	63	2
60	87	1
62	67	1
63	93	1
46	52	1
95	95	4
32	32	6
54	55	1
58	69	1
101	102	1
71	97	1
88	96	1
37	39	1
23	37	1
55	86	1
76	108	3
23	23	4
21	41	3
46	47	1
68	71	1
29	33	4
24	29	1
53	69	1
61	65	1
95	97	1
62	64	2
27	30	1
60	64	1
112	112	1
62	69	2
61	97	2
42	48	1
69	97	1
74	78	2
98	99	2
108	109	1
55	57	2
80	83	1
57	58	1
54	69	1
48	49	1
75	81	1
61	71	1
19	19	1
72	84	1
47	60	1
56	79	1
