60	60	13
57	59	5
64	64	7
49	49	9
69	70	1
9	9	7
68	69	2
23	54	3
11	12	6
58	58	8
29	29	6
69	76	1
38	38	12
57	58	6
35	35	9
3	4	8
33	33	4
24	24	14
42	42	20
42	43	3
19	19	11
75	76	6
41	42	4
28	28	7
18	19	5
1	4	2
50	50	11
31	31	11
13	13	16
41	41	2
48	48	10
53	53	4
12	37	2
55	56	2
19	21	1
37	37	8
46	46	13
56	57	1
7	8	6
64	66	8
21	21	12
25	25	5
62	62	3
69	69	9
47	47	6
32	33	8
10	11	13
2	2	9
34	35	7
54	55	8
30	33	6
25	46	1
2	29	4
51	51	9
74	74	7
20	20	10
53	54	8
27	30	1
8	8	9
23	23	5
62	63	3
56	56	11
4	4	14
48	50	3
54	54	9
6	8	1
25	26	1
52	53	6
43	43	5
22	22	8
61	61	4
55	55	9
19	20	6
19	38	4
30	30	7
67	67	4
40	40	7
52	52	10
28	30	5
65	66	2
28	29	15
10	12	5
68	71	2
38	53	5
63	63	6
53	57	10
63	66	3
62	64	2
49	51	7
12	12	7
38	45	2
72	73	1
9	11	2
74	77	2
1	1	5
27	38	2
77	77	5
61	62	3
48	49	4
26	26	4
44	44	4
71	71	3
31	32	3
3	3	10
70	70	6
66	68	2
37	48	3
39	40	1
59	59	2
68	74	1
46	66	1
72	72	9
34	36	5
61	65	2
64	68	2
67	68	1
40	50	2
73	74	3
32	32	10
3	6	2
23	24	8
70	71	2
38	48	4
1	2	3
53	76	2
39	50	3
20	21	1
55	60	1
65	65	5
51	72	2
60	61	5
7	7	4
9	10	6
26	30	2
57	57	2
39	39	7
24	31	1
51	53	1
37	39	2
53	62	2
45	65	3
36	36	2
12	13	6
2	3	5
55	57	2
52	54	1
66	67	7
18	18	1
47	48	5
44	45	4
22	77	1
68	68	6
76	76	4
50	51	3
45	45	7
66	66	3
6	6	4
74	75	1
22	23	1
2	23	1
11	11	6
32	34	2
26	27	2
77	78	1
8	9	4
73	73	12
34	34	1
35	36	3
46	54	1
0	0	3
33	34	4
43	44	4
75	75	5
23	26	5
38	39	1
48	72	2
0	1	1
13	35	2
37	38	3
13	22	1
23	61	1
29	30	1
31	33	5
58	59	1
13	14	3
69	71	1
5	6	4
47	49	3
39	51	2
25	27	1
14	39	1
59	60	3
10	10	1
26	50	1
49	50	2
55	74	2
55	70	1
25	30	2
26	49	1
45	53	1
12	21	1
56	60	1
47	66	1
54	57	2
27	27	2
6	36	1
51	71	1
50	72	1
3	34	1
40	41	1
40	49	1
39	42	1
22	35	1
27	50	1
39	49	1
36	37	1
