121	122	5
113	113	23
191	191	2
234	234	9
32	32	5
60	60	1
47	47	6
128	128	2
162	164	3
9	9	8
11	11	15
26	27	2
15	28	1
175	175	4
196	219	1
77	77	4
178	178	6
56	79	4
136	137	3
154	154	7
52	52	5
69	69	8
100	100	6
76	76	3
236	236	4
4	4	10
191	207	4
85	85	12
24	24	7
142	142	6
52	53	2
17	17	5
21	21	8
55	55	4
48	48	7
7	56	2
59	59	3
215	215	1
135	135	2
186	186	5
70	70	5
3	65	2
18	18	4
53	53	6
67	196	1
37	37	5
79	84	1
196	238	4
209	209	1
71	71	1
166	175	2
46	46	15
25	25	5
193	193	7
219	219	3
170	178	2
20	20	7
67	67	7
24	72	6
98	102	3
22	22	9
118	118	10
0	49	3
112	113	2
34	35	4
1	2	3
38	38	5
217	217	2
8	8	11
125	126	2
27	28	1
18	21	3
184	187	2
82	84	3
51	52	2
97	97	1
46	47	1
216	232	5
34	34	4
38	143	2
77	123	2
61	61	3
187	228	2
235	235	5
159	159	2
74	74	2
174	175	2
27	27	6
41	137	2
13	23	1
78	78	3
158	158	4
15	15	14
42	43	4
175	231	4
214	214	2
194	194	6
46	174	6
56	74	2
169	170	4
16	16	4
125	125	7
208	208	4
16	18	5
29	30	5
158	182	2
197	198	2
54	55	5
72	72	7
64	67	1
220	221	5
57	78	3
230	230	4
80	81	1
31	225	1
44	45	2
21	23	2
153	206	3
160	207	3
36	190	4
99	112	5
103	105	2
122	122	5
26	42	4
20	25	5
22	23	2
183	198	3
68	68	5
4	17	3
28	28	3
221	221	9
231	231	2
96	96	1
90	103	3
227	228	3
43	197	3
146	146	10
13	13	6
116	116	4
173	174	10
223	223	2
39	136	4
134	134	4
6	56	7
29	29	4
71	72	2
218	220	2
174	174	4
21	22	2
68	82	2
3	14	1
73	73	4
79	81	6
129	130	4
32	231	3
112	112	2
108	108	6
101	102	2
184	186	5
229	229	7
127	127	2
56	57	5
44	44	7
173	173	7
7	7	2
185	185	5
3	3	10
38	61	2
58	69	1
102	113	2
30	59	2
203	204	2
150	152	3
225	225	2
9	10	2
221	222	3
97	112	1
28	29	2
10	19	1
153	153	8
40	41	3
70	85	3
128	152	3
196	196	1
228	228	8
216	218	2
0	20	1
191	219	4
140	140	6
115	125	4
86	86	5
14	14	1
150	230	3
50	51	2
6	16	1
202	203	2
201	201	5
102	103	2
110	110	2
40	40	2
191	197	3
129	129	2
102	102	3
131	131	5
187	187	5
119	128	1
190	191	3
40	137	1
147	147	4
68	69	4
16	17	2
186	187	4
51	51	2
157	160	1
5	6	2
169	169	5
2	2	4
81	81	4
209	216	1
12	12	3
2	14	2
43	213	3
26	28	1
141	141	5
106	107	2
150	165	1
48	60	2
7	8	3
242	243	1
118	120	3
215	216	2
50	50	8
192	192	2
165	180	1
135	166	1
32	34	2
10	10	8
176	176	1
120	120	2
160	160	8
151	151	4
167	167	3
63	63	2
67	68	2
23	23	6
0	1	3
171	171	2
236	237	1
182	183	1
156	165	1
21	223	1
66	116	4
218	218	2
10	11	1
54	56	1
36	36	4
73	74	1
83	83	2
240	240	6
43	43	4
55	75	1
99	99	6
59	60	3
205	205	11
184	185	4
82	85	2
82	102	1
58	59	3
58	58	2
190	229	1
67	69	2
181	182	2
70	215	1
9	66	1
21	24	2
121	121	4
237	237	6
106	106	6
54	54	4
87	192	4
152	152	3
62	62	1
103	103	1
88	88	3
26	26	2
82	83	3
67	116	3
64	64	2
45	70	1
176	178	4
42	42	5
117	117	1
86	87	6
15	16	2
104	104	4
133	134	4
155	156	2
101	101	1
137	137	4
25	26	3
203	203	1
61	62	3
69	217	1
20	21	2
153	155	1
123	123	2
179	180	1
172	172	2
40	42	1
210	210	2
49	49	2
192	194	1
3	144	2
197	229	2
171	172	3
65	65	1
232	232	5
193	194	2
201	231	1
199	221	3
219	231	1
159	171	3
49	50	1
84	85	1
20	32	1
8	31	2
43	211	1
104	105	1
199	199	5
241	241	2
126	127	3
170	170	1
16	50	2
224	224	2
24	25	3
64	70	1
33	33	1
66	67	2
75	75	5
41	41	1
177	177	1
175	198	2
150	150	3
41	42	3
45	236	2
64	65	1
19	19	1
50	53	2
224	225	2
199	200	2
180	182	1
143	143	1
27	42	2
95	95	1
119	119	2
154	155	1
238	239	1
153	170	1
31	31	1
233	233	1
238	240	1
107	125	1
35	60	1
185	186	3
190	216	1
1	1	2
216	216	4
0	48	1
177	179	2
183	183	3
206	207	4
1	24	2
35	36	1
1	16	1
145	146	1
56	56	4
227	227	3
23	24	1
85	86	2
162	165	1
52	186	2
30	60	2
51	54	1
29	33	1
235	236	1
5	14	2
20	23	2
181	181	2
192	232	1
29	48	2
88	96	1
194	214	1
42	183	2
17	199	1
1	18	1
0	14	1
32	58	1
21	40	1
211	226	1
160	171	1
55	70	1
166	179	1
45	45	2
8	32	1
189	189	1
206	206	1
239	239	1
160	161	1
155	158	2
145	145	1
123	124	1
4	146	1
37	38	1
119	120	3
148	149	2
28	42	1
207	207	1
198	220	1
27	38	1
204	204	2
137	138	2
109	110	1
69	188	1
80	104	1
115	116	1
74	121	2
39	39	1
157	157	1
154	170	2
136	164	1
74	114	1
99	100	1
228	229	1
25	36	2
114	114	1
9	67	1
167	170	2
182	182	1
87	113	1
124	125	1
149	149	1
165	165	1
45	46	1
211	211	1
79	79	1
140	142	2
162	162	1
97	113	1
223	224	1
119	122	1
80	105	1
