126	126	12
45	45	4
97	98	1
127	127	6
36	37	5
119	119	4
123	124	3
0	0	7
101	104	1
145	145	3
167	167	6
96	96	7
73	73	7
5	35	2
111	111	4
162	162	2
110	110	2
42	42	5
52	53	1
179	179	1
79	79	5
124	125	3
6	20	5
133	137	5
4	63	3
38	38	17
157	157	13
133	147	8
74	88	4
87	109	5
19	19	5
152	153	4
46	83	1
18	19	1
126	127	2
133	134	2
188	188	2
29	31	4
138	138	7
7	7	3
88	102	1
30	30	1
29	35	2
34	35	7
135	135	4
154	161	2
31	112	1
80	80	2
75	93	2
70	70	1
60	64	6
35	36	2
76	85	2
130	130	5
137	137	5
17	17	5
116	116	9
1	2	1
154	164	1
142	143	2
98	98	5
39	39	3
139	140	1
151	151	7
7	8	3
115	115	3
102	102	4
40	40	5
9	9	1
129	129	6
78	135	2
68	82	2
159	159	5
16	25	1
13	13	2
64	64	3
30	31	2
6	9	2
48	48	6
78	78	2
110	111	3
128	128	1
37	124	2
106	134	4
103	120	3
23	24	2
139	139	7
59	59	1
82	82	6
28	28	5
96	118	2
26	27	4
106	106	6
62	62	1
20	20	9
84	86	4
4	48	3
10	10	3
98	187	1
174	176	1
31	31	1
164	164	1
63	136	3
129	170	2
134	134	1
117	137	2
89	103	4
57	57	2
67	67	7
20	149	5
141	153	1
155	155	2
177	181	1
67	79	1
121	121	2
89	101	2
23	23	11
124	126	2
96	100	1
87	87	4
10	26	1
139	166	1
104	136	2
156	189	2
68	78	3
134	135	1
31	32	5
53	53	3
19	21	2
85	85	4
11	11	2
142	142	3
44	98	1
60	130	3
21	22	3
123	123	3
46	46	4
11	12	4
68	83	2
61	61	4
17	18	2
13	16	2
186	186	3
55	55	2
12	29	1
61	62	1
2	2	4
3	25	4
150	150	4
87	107	1
12	31	1
108	109	2
72	75	4
63	64	2
114	114	2
71	75	2
77	77	3
97	187	2
158	165	2
103	103	3
134	138	1
7	16	3
185	185	2
91	91	1
58	158	1
1	1	2
135	136	1
16	16	3
109	109	3
36	126	2
21	21	2
35	37	3
18	18	2
182	183	5
58	58	1
72	72	2
6	7	1
33	33	9
32	32	3
169	169	3
20	21	2
36	36	5
4	24	1
182	182	8
89	107	2
61	163	2
104	105	1
132	133	3
141	142	3
104	104	2
21	27	2
96	130	1
71	72	3
97	99	4
29	29	4
68	68	6
71	71	2
101	107	1
93	93	1
43	43	3
83	83	2
24	24	4
57	69	1
92	92	5
17	24	2
122	124	2
41	83	1
95	97	5
112	149	2
95	156	2
42	100	2
148	165	2
92	93	3
84	87	4
130	135	2
63	81	1
58	70	2
96	99	3
39	40	4
133	136	2
47	85	1
52	52	2
140	184	2
27	27	3
65	87	1
118	150	1
91	92	1
118	118	2
26	28	5
31	118	2
140	157	1
137	156	1
57	58	3
97	100	3
113	149	1
131	181	2
90	90	8
35	167	2
25	25	1
18	20	2
14	22	1
132	155	3
161	165	1
156	156	1
91	125	3
108	158	1
56	56	2
54	54	6
64	65	1
3	3	2
153	153	2
45	46	1
105	106	1
15	24	1
174	174	1
89	136	1
114	148	1
81	81	1
0	1	1
144	144	3
6	6	3
122	122	2
20	22	1
142	145	1
98	156	3
16	17	1
40	139	1
132	136	1
130	182	2
183	183	1
94	94	1
97	113	1
35	47	1
74	74	1
0	53	1
112	150	1
8	8	1
172	172	1
140	141	1
113	116	3
141	141	1
46	66	2
154	154	2
89	89	2
91	103	2
32	34	1
64	132	1
11	29	1
117	179	1
146	146	1
58	59	1
65	65	1
88	88	1
55	57	1
75	79	1
33	34	1
62	63	1
120	120	1
148	148	1
43	100	1
165	165	1
12	12	1
44	48	2
90	95	1
85	108	2
70	134	1
119	189	1
43	98	1
100	100	1
150	151	1
131	149	1
