76	77	3
51	52	4
39	39	3
119	125	1
102	102	11
75	84	1
16	16	16
1	1	7
80	80	5
4	4	12
82	83	4
42	43	4
128	129	3
115	134	1
131	131	6
81	81	10
120	141	1
2	2	8
73	76	4
120	121	3
145	145	6
24	25	2
61	63	1
65	68	3
114	122	2
9	9	6
2	31	1
99	99	5
58	59	1
118	138	3
61	61	4
142	144	3
31	31	5
52	53	4
89	89	7
22	22	9
38	38	5
42	42	5
48	49	5
57	57	5
19	19	9
10	11	2
142	142	17
60	61	3
129	130	6
104	104	9
111	112	4
125	125	6
11	11	6
121	122	3
21	21	5
12	13	2
96	96	7
4	6	1
75	75	10
127	127	1
0	0	5
68	68	5
34	36	1
76	76	5
75	76	2
114	118	3
43	43	1
60	60	9
104	105	2
97	140	1
29	29	14
107	131	4
107	123	2
48	48	4
13	20	3
24	24	14
108	109	1
61	80	2
117	119	1
6	6	1
15	23	3
11	32	2
69	117	1
70	108	2
37	37	4
72	72	4
139	139	11
117	117	5
94	94	13
120	134	1
95	130	1
135	135	8
26	27	1
126	128	1
129	141	2
132	132	17
63	65	2
97	101	3
71	74	3
47	47	2
66	66	3
116	118	1
124	125	2
119	119	6
93	93	7
119	120	3
133	133	14
98	98	6
53	54	6
135	138	2
108	108	3
28	28	3
88	89	1
97	97	7
10	10	5
69	70	2
15	15	4
1	3	3
128	134	3
126	127	3
49	125	1
53	53	7
136	137	2
34	34	12
53	55	1
79	81	3
94	96	6
142	143	5
40	53	1
9	25	2
12	12	2
50	50	2
49	49	6
38	40	3
143	143	5
62	62	5
61	62	4
126	126	7
56	56	7
30	30	3
62	63	5
116	116	3
14	14	6
100	101	3
122	142	2
59	60	8
114	116	1
40	40	8
123	124	4
105	105	9
35	35	2
109	110	1
78	78	10
9	10	2
77	77	1
20	20	5
67	67	3
23	23	3
62	64	3
18	19	4
140	141	3
123	123	9
29	30	1
22	25	1
94	101	1
101	101	11
127	130	2
64	64	6
137	137	7
117	137	2
96	111	1
74	100	2
9	26	3
105	109	3
50	51	1
139	140	2
84	84	7
114	114	7
138	138	4
136	136	6
80	82	3
26	26	4
64	66	3
89	90	2
125	126	3
105	107	2
120	124	1
74	74	7
1	19	1
87	87	4
141	141	20
116	117	7
95	98	1
2	4	2
3	3	3
140	140	4
112	113	2
112	115	5
122	122	7
64	65	1
91	119	3
91	91	7
101	104	2
18	18	6
113	116	2
49	50	6
112	112	5
70	117	1
95	96	3
100	100	1
32	39	1
131	132	6
53	81	2
91	127	2
124	124	11
130	130	8
83	84	7
90	91	4
27	27	13
2	3	5
70	72	1
36	36	3
58	75	1
2	5	2
84	86	2
97	98	2
120	135	2
62	103	4
144	144	6
21	30	1
107	107	6
56	81	2
58	58	3
71	80	2
105	106	2
109	131	2
129	129	6
115	115	2
11	12	4
134	134	3
15	28	2
116	119	4
91	100	2
100	104	3
12	106	3
5	5	3
75	77	1
118	118	8
93	133	3
99	101	2
109	132	1
90	90	1
111	140	1
95	95	2
17	60	1
124	131	3
141	143	1
81	82	1
84	85	1
20	21	1
83	83	2
111	115	1
54	54	7
120	120	3
95	140	2
125	128	4
109	109	2
77	83	2
36	37	1
113	114	2
65	65	8
70	70	2
42	55	1
127	128	2
103	103	6
63	63	7
101	102	1
6	56	1
93	132	2
110	110	6
128	128	6
88	102	2
129	145	2
71	71	2
36	117	2
121	121	5
58	71	3
117	138	1
32	33	3
37	42	3
83	85	3
54	55	3
3	4	1
25	25	3
92	92	7
89	111	2
138	140	1
88	88	4
133	136	2
10	20	1
90	125	1
130	142	2
107	108	1
18	29	1
122	125	1
39	40	5
86	86	1
92	93	1
128	143	2
59	59	7
119	142	1
50	55	1
50	52	2
121	133	1
138	139	2
17	17	2
15	16	1
133	137	1
79	80	2
17	27	1
94	132	4
71	73	2
94	110	1
51	51	2
55	56	3
131	133	1
13	13	1
31	34	1
69	69	7
72	73	2
118	119	2
85	104	1
121	123	4
89	112	2
78	79	1
96	104	2
71	75	1
82	126	1
84	115	1
52	52	2
121	135	3
79	82	4
65	82	1
96	109	1
73	73	4
132	133	2
141	142	1
54	70	1
75	100	1
21	23	1
132	134	1
88	108	2
27	54	1
92	130	1
0	19	1
59	84	1
110	141	1
6	8	1
53	74	1
82	82	1
117	118	1
31	36	1
17	18	1
51	85	1
92	94	2
137	139	3
22	24	1
99	100	1
32	32	2
79	79	1
41	41	2
91	92	1
48	66	1
56	57	1
35	36	1
71	72	2
57	63	3
77	86	1
5	14	1
118	134	2
19	29	1
66	67	1
6	36	3
0	10	3
32	53	1
118	124	3
86	128	1
32	47	1
145	146	1
132	138	1
119	139	1
82	85	2
36	51	1
68	70	1
121	124	1
30	41	1
25	26	1
111	111	2
65	66	2
134	135	1
66	68	1
115	117	1
64	99	1
90	93	1
73	83	1
106	107	1
23	30	1
110	111	1
123	134	1
73	75	1
66	69	1
55	58	2
33	33	2
94	98	1
27	30	1
85	85	1
146	146	1
98	99	1
4	31	1
96	97	1
33	51	1
122	133	1
10	42	1
55	71	1
75	79	1
90	141	1
