130	130	10
3	3	10
101	101	37
92	95	4
68	72	4
7	7	17
34	34	22
29	29	28
12	111	2
120	120	8
126	126	12
36	77	6
122	122	22
48	48	31
85	86	9
35	35	13
63	63	24
26	26	21
41	41	7
70	70	34
85	85	30
111	111	25
78	78	18
62	68	4
65	65	30
124	124	22
102	102	5
4	4	24
25	25	31
114	134	1
68	68	21
20	20	30
119	119	14
2	3	5
13	35	3
16	106	1
47	62	1
38	39	4
71	74	5
61	74	3
99	123	2
12	13	8
74	74	30
32	32	15
71	71	25
98	98	8
13	14	7
126	127	2
86	88	3
6	42	1
66	66	35
33	34	5
62	63	11
9	9	34
2	36	1
119	122	1
13	13	23
45	62	11
27	27	44
118	118	19
3	95	4
80	80	7
129	129	7
51	54	3
82	83	9
30	32	4
45	46	3
67	67	15
12	12	42
57	57	19
33	33	32
115	116	6
83	86	11
67	68	7
16	17	4
117	117	10
72	72	18
123	123	19
21	21	13
87	90	5
9	10	14
46	61	8
61	61	17
19	19	24
19	20	3
77	77	38
73	73	23
36	36	19
109	109	14
73	75	5
78	81	2
130	132	3
94	95	6
41	42	13
82	82	10
11	11	25
10	10	23
68	69	3
26	27	7
42	43	2
37	39	3
93	93	15
22	37	3
96	96	14
132	132	12
90	90	15
44	45	14
64	64	10
80	82	4
81	82	10
95	96	10
112	112	7
20	31	9
26	47	7
39	39	8
121	121	8
47	48	8
37	37	5
63	64	3
55	55	4
60	60	11
84	84	9
97	97	11
64	65	3
75	75	24
96	123	4
99	99	11
69	69	9
16	23	2
76	77	14
134	134	4
113	114	5
43	43	9
61	62	5
26	29	3
58	85	2
41	43	5
78	79	10
10	74	5
108	108	12
93	94	8
38	38	9
92	92	8
116	116	14
115	115	5
15	16	10
46	71	5
102	103	5
95	113	3
107	107	11
87	87	19
65	72	1
111	112	11
14	14	10
46	72	2
20	21	7
95	95	15
47	47	30
27	80	1
72	73	11
36	37	12
11	12	7
27	95	5
11	93	17
21	25	1
114	114	13
56	56	10
46	46	20
5	27	3
57	58	4
21	83	3
62	62	18
59	59	10
83	83	14
8	8	13
8	122	1
21	106	5
6	6	4
115	131	3
133	133	4
114	115	4
25	100	5
6	25	6
28	28	9
21	24	3
103	103	11
81	81	4
5	43	2
112	113	12
25	99	1
47	121	3
71	75	2
45	45	15
15	15	7
79	79	11
73	77	7
32	33	7
90	91	13
92	97	3
22	22	5
55	56	6
69	70	16
88	90	5
34	35	11
75	76	14
94	94	14
108	109	5
2	2	10
86	92	2
119	120	2
24	24	1
44	44	22
58	59	3
87	100	2
59	62	2
8	57	2
6	7	6
18	18	14
76	76	15
1	1	8
9	11	2
72	76	6
63	75	3
0	0	4
72	75	6
113	128	4
63	65	3
90	116	1
97	101	4
66	68	4
48	49	2
83	85	3
45	63	5
84	85	8
39	40	3
13	34	1
23	25	5
125	125	4
86	86	8
76	78	2
4	5	8
70	71	8
77	78	8
32	98	1
29	47	3
45	76	1
30	30	7
26	92	2
88	88	3
26	98	3
75	104	1
5	7	3
8	20	2
114	132	2
110	110	16
23	24	7
35	36	7
10	14	1
29	30	6
77	121	1
99	112	2
17	17	14
66	83	3
68	70	5
113	113	17
30	33	4
11	44	2
3	4	4
82	84	4
5	6	6
100	101	13
12	16	2
45	89	5
39	60	3
17	18	7
40	41	1
110	114	4
8	47	1
21	85	6
89	91	3
106	106	10
74	75	6
35	77	4
10	12	2
17	19	3
109	110	8
25	47	4
6	26	2
61	82	2
46	47	9
38	40	4
2	34	1
118	119	10
10	11	5
99	100	2
68	80	5
27	92	4
0	3	1
94	125	7
24	82	2
73	74	8
13	108	3
25	26	6
61	65	4
31	33	4
113	115	2
15	56	3
61	77	1
34	101	2
49	49	5
45	47	3
113	116	8
105	111	2
24	26	2
3	59	3
5	97	2
24	25	6
42	42	9
110	111	1
14	21	2
100	100	3
127	128	2
40	40	2
13	111	5
79	81	2
85	87	1
93	100	1
104	105	4
4	43	1
8	10	1
116	117	1
105	105	6
92	93	3
123	124	2
107	108	5
109	134	6
21	77	1
101	102	2
108	111	3
91	91	3
121	122	1
25	79	1
21	22	1
36	39	4
49	50	2
19	73	5
66	67	4
109	114	1
65	93	2
8	17	2
72	77	2
10	21	3
62	74	1
25	27	5
80	93	5
70	77	1
34	65	1
97	98	6
5	5	7
47	49	2
89	89	2
106	107	3
131	132	4
73	86	2
62	123	3
87	93	1
71	72	3
11	86	2
24	35	1
109	132	2
61	63	3
34	102	4
28	79	3
65	67	1
31	32	11
19	74	3
7	8	6
28	29	3
16	16	12
70	73	3
78	80	2
7	15	1
23	23	4
98	99	1
80	83	3
65	71	1
58	58	5
12	27	2
106	108	2
14	15	6
10	45	2
86	87	4
46	122	1
9	121	3
20	83	3
12	44	1
39	42	1
102	104	1
83	122	3
96	100	2
104	104	11
57	59	4
21	84	2
122	123	1
36	38	2
48	56	1
127	127	2
8	9	2
12	47	2
131	131	4
42	61	3
2	24	2
2	101	1
26	28	1
43	44	3
43	72	2
7	35	2
112	116	2
17	33	3
23	74	1
70	116	1
44	60	1
95	114	1
5	42	1
22	27	1
87	88	3
24	62	2
79	80	4
31	31	3
128	128	5
27	82	1
3	125	2
105	106	3
115	132	1
61	64	2
13	36	1
15	107	1
111	134	2
45	60	1
20	22	1
106	109	3
26	82	2
3	45	1
87	91	1
7	33	1
5	65	1
82	122	4
21	37	2
65	66	2
34	77	3
131	133	2
87	92	1
13	110	1
33	35	3
3	48	1
15	50	1
88	91	2
38	42	1
1	2	1
18	19	1
47	72	3
35	46	1
80	81	2
22	35	1
3	98	1
91	92	1
10	76	2
28	75	1
105	110	2
124	131	1
24	78	1
89	90	1
123	126	1
9	46	2
67	73	1
71	73	1
29	46	1
28	31	1
29	107	1
45	68	1
81	83	1
42	49	1
2	45	1
9	14	1
117	118	1
60	61	1
62	67	3
80	123	1
63	74	2
123	129	2
70	120	1
28	90	1
113	117	2
22	23	1
83	84	2
56	57	3
2	82	1
8	13	2
105	107	1
3	44	1
28	80	1
86	94	1
18	73	1
8	36	1
128	130	1
74	89	1
112	134	1
30	31	1
79	84	2
63	72	1
0	1	1
75	83	1
27	28	1
36	76	1
9	45	1
34	62	1
128	129	1
34	78	1
95	125	1
129	130	1
62	75	2
86	93	1
