99	99	4
14	14	15
71	71	10
137	137	16
19	20	7
7	7	17
22	22	6
131	131	19
138	138	19
131	133	2
127	127	15
118	118	17
27	27	19
121	121	19
124	124	40
123	124	12
11	14	1
23	23	11
120	123	1
80	101	3
23	24	4
33	33	21
128	129	8
73	73	24
140	140	18
7	8	5
110	110	6
110	111	16
122	122	44
130	130	23
102	102	15
98	98	19
122	136	2
130	140	8
112	112	17
71	77	9
26	26	8
0	13	4
107	109	4
132	133	5
95	95	11
134	135	10
105	105	15
4	6	5
90	95	2
28	28	9
68	68	2
111	111	6
11	12	2
21	21	12
86	128	2
78	78	7
72	73	6
4	14	4
114	114	13
10	10	14
96	96	22
36	36	14
72	108	4
134	134	26
116	116	13
129	129	12
16	19	2
123	123	36
136	136	15
87	118	5
109	109	17
84	85	10
3	7	10
135	135	18
117	117	12
4	5	3
105	106	3
16	18	4
126	126	23
16	16	10
72	74	8
72	72	6
104	106	4
106	106	11
87	87	18
89	89	9
86	100	7
0	0	17
82	82	10
79	79	9
128	131	5
87	88	2
133	133	15
28	29	4
9	9	3
19	21	7
25	26	4
94	94	14
34	34	12
81	82	9
1	10	4
76	77	6
107	110	1
37	37	19
24	37	5
128	128	21
30	68	3
29	29	14
8	8	5
96	97	2
100	139	2
15	15	10
75	76	5
93	94	3
28	31	1
3	23	1
131	132	5
9	12	2
104	105	3
138	139	9
110	140	3
137	138	11
118	119	5
124	135	2
97	97	8
104	104	15
123	134	4
86	86	7
124	137	10
12	12	1
101	122	1
88	89	5
100	100	10
18	18	6
8	9	5
91	91	12
117	128	1
80	80	12
120	121	8
132	138	3
129	130	14
119	122	3
13	14	17
106	107	8
20	20	17
27	29	6
1	124	8
80	126	1
21	81	4
81	81	5
122	123	6
17	17	7
94	102	3
77	81	2
122	128	2
89	90	6
1	1	6
106	123	4
92	118	6
25	35	2
76	76	7
16	17	2
4	4	14
13	15	1
98	103	2
2	3	4
34	35	5
139	139	8
78	80	3
11	11	7
11	23	2
1	26	2
35	35	14
14	22	1
125	136	2
87	108	2
113	113	12
122	125	3
75	75	5
101	112	2
32	33	4
78	79	7
125	125	11
102	105	3
83	83	11
122	138	3
88	95	3
7	9	5
24	24	4
71	73	2
132	132	10
79	87	2
30	31	6
71	72	3
93	93	10
97	101	4
5	68	2
75	77	3
38	38	2
101	101	6
99	100	5
22	23	2
107	107	10
12	68	1
31	31	4
2	15	4
94	118	1
126	127	4
2	25	3
74	74	6
108	122	3
125	128	2
3	3	15
102	103	8
115	115	10
3	6	3
91	94	3
108	109	4
98	104	1
2	4	3
18	19	4
117	121	2
104	119	4
32	32	1
130	131	9
74	75	4
86	135	1
125	126	7
139	140	2
126	128	8
21	23	1
13	13	2
85	85	10
30	30	8
92	93	2
84	84	5
101	102	4
121	122	10
2	2	10
87	120	3
20	21	6
83	84	12
71	74	3
127	134	2
10	106	2
99	101	3
6	6	5
14	19	1
88	97	1
127	128	6
88	88	12
4	19	2
9	22	1
76	120	2
0	1	2
123	129	2
3	12	5
112	116	3
86	93	1
125	127	2
105	107	1
22	24	2
92	92	4
122	124	1
103	104	9
3	14	1
88	90	2
104	121	1
129	138	3
108	108	3
79	84	2
25	25	7
81	116	2
37	38	2
5	5	4
18	21	3
100	101	5
1	24	4
86	118	1
88	129	2
85	86	2
111	112	3
26	27	1
90	90	4
103	103	5
96	100	1
2	68	2
89	139	3
97	102	2
104	120	3
1	38	4
98	99	1
3	4	2
31	32	1
82	83	2
89	96	4
19	19	5
29	34	5
92	119	1
14	21	2
80	100	2
80	125	2
76	116	1
133	140	2
71	116	1
17	18	2
119	129	1
80	81	2
127	136	1
135	137	1
80	139	1
73	74	4
115	117	1
20	115	1
9	13	3
6	8	2
123	125	2
1	23	5
119	119	3
95	96	3
122	139	1
125	137	1
10	12	2
112	113	1
136	137	1
36	37	5
80	82	4
124	125	3
74	117	3
14	18	2
12	23	1
94	123	1
111	119	2
28	32	2
71	75	2
109	120	1
115	138	3
120	120	2
18	126	1
86	136	1
11	24	1
98	102	2
71	81	1
135	136	2
102	109	1
88	130	2
90	91	4
78	106	1
134	138	2
11	25	1
88	126	1
8	14	2
30	32	1
24	29	1
80	84	1
124	126	1
87	94	1
78	83	1
119	121	2
6	21	2
126	130	1
12	26	2
138	140	1
27	28	1
87	109	1
2	14	1
103	122	2
114	115	1
97	98	2
81	102	1
88	115	1
134	136	1
109	110	1
124	134	1
33	34	1
41	73	1
