12	12	6
141	141	7
88	88	5
58	58	3
91	91	11
10	10	3
52	52	9
27	27	8
152	152	4
40	41	2
78	78	2
167	167	4
74	74	2
73	75	5
59	64	2
30	31	3
77	77	5
128	128	6
34	34	3
156	159	2
1	5	1
39	40	7
81	81	3
11	11	3
32	32	9
8	8	5
16	52	3
6	13	1
113	113	3
2	2	12
7	7	7
22	22	7
71	72	1
24	24	5
163	164	4
142	142	4
134	134	3
5	8	3
173	176	1
76	76	7
11	12	3
45	45	3
2	8	1
100	100	2
70	72	2
126	126	2
153	156	4
19	20	5
140	140	10
43	46	4
66	67	6
29	32	2
26	28	5
135	137	6
123	123	6
95	96	3
15	15	8
150	151	3
53	53	3
90	90	2
26	26	3
171	171	6
45	46	2
20	21	1
33	33	8
6	6	15
172	173	2
11	14	3
164	164	6
154	155	2
1	1	9
3	3	11
66	86	3
4	15	2
154	156	2
14	17	1
31	31	7
37	37	11
84	85	2
179	179	8
88	89	5
15	20	3
35	39	2
52	53	4
175	175	5
33	41	3
120	121	2
29	30	1
63	63	1
37	77	1
41	41	16
1	36	2
154	154	5
73	73	2
157	157	1
31	32	5
43	43	3
39	39	9
4	4	6
160	160	2
153	153	5
132	132	4
22	23	7
93	93	3
63	66	1
25	43	2
11	13	5
109	156	2
117	118	2
0	0	6
6	7	3
135	135	3
125	125	3
148	148	2
56	56	6
89	90	2
180	180	1
148	149	1
36	37	1
23	27	1
162	162	1
112	146	1
9	9	8
66	66	1
51	52	3
23	23	3
42	42	6
103	103	1
72	72	4
54	55	2
38	44	2
3	15	1
138	138	4
9	11	1
0	1	4
102	102	1
133	155	1
136	136	8
30	30	2
115	117	3
93	102	5
36	36	3
160	162	1
55	55	1
7	9	3
28	28	7
88	176	2
38	38	5
171	173	2
146	148	1
125	126	2
35	35	3
98	101	1
137	138	2
95	95	3
168	168	1
114	114	2
96	96	4
3	4	3
62	62	2
169	169	5
101	102	3
44	44	3
7	8	1
94	176	3
75	123	2
31	33	2
29	29	3
4	18	3
3	19	3
133	133	2
14	14	4
146	146	2
17	17	7
43	44	2
16	17	2
83	83	1
96	97	4
38	39	5
173	173	5
28	29	4
170	171	1
76	77	5
104	104	1
61	62	3
0	168	1
27	28	2
13	61	2
49	50	2
16	16	4
155	156	2
177	177	1
168	180	1
2	4	2
7	17	3
54	54	3
5	7	3
44	45	3
171	176	1
37	43	1
112	112	1
35	36	3
85	85	1
150	150	2
19	35	1
26	27	1
11	41	3
84	84	1
59	59	3
91	111	3
37	38	3
19	19	3
166	167	2
124	150	1
166	166	3
152	153	1
74	76	1
138	140	1
108	108	2
122	122	4
153	180	1
120	120	4
119	127	1
3	8	1
129	130	1
155	155	2
139	139	4
10	11	2
115	116	1
123	125	2
98	98	2
82	82	1
5	5	2
142	143	1
151	151	2
71	71	1
18	18	2
40	40	3
65	105	3
119	120	2
136	147	1
5	10	2
143	144	2
75	75	1
97	141	2
72	73	1
168	169	1
99	116	2
52	54	1
25	25	3
9	10	2
92	92	1
144	144	1
9	43	1
156	156	1
172	172	1
90	93	1
127	127	3
67	68	1
81	82	1
89	92	1
126	137	1
92	102	1
37	39	1
56	58	1
7	15	1
91	94	1
1	32	1
101	101	1
80	80	2
24	27	1
131	132	2
159	160	1
23	24	1
158	158	1
150	153	1
