190	190	13
36	37	7
73	79	3
62	63	2
21	21	9
152	152	14
32	32	9
12	12	16
178	178	9
5	5	11
138	138	15
108	108	12
111	111	9
155	158	1
50	51	6
125	125	10
177	177	18
55	56	6
170	170	17
172	183	2
47	47	22
186	186	23
146	146	10
192	192	11
196	196	11
16	16	7
117	117	2
171	171	16
188	189	1
154	154	10
112	112	16
29	29	6
13	13	8
177	178	7
194	194	16
39	40	6
33	34	2
149	150	8
43	43	16
151	159	3
35	35	15
77	78	4
63	66	1
59	59	10
34	34	18
39	39	13
68	68	11
116	118	3
69	70	2
148	148	16
183	183	17
103	106	2
28	30	1
175	175	3
147	147	21
12	31	5
188	188	13
78	195	2
44	44	12
41	41	9
65	67	1
114	114	8
159	160	1
156	160	3
162	162	8
51	51	14
159	159	22
100	110	6
146	162	2
186	187	5
7	7	9
98	98	12
165	182	2
31	31	13
136	136	11
170	172	6
190	191	2
110	110	7
165	166	6
52	52	4
180	181	8
14	14	13
132	132	7
113	113	17
52	53	3
40	40	5
9	188	5
142	142	16
79	79	11
180	180	9
105	118	2
158	158	15
133	133	16
145	145	6
140	140	16
122	122	10
12	13	9
18	42	2
104	106	1
24	26	1
169	169	15
135	169	2
18	18	6
79	80	16
8	8	4
156	156	10
109	110	6
63	64	3
24	35	3
131	131	16
141	147	2
0	1	6
156	192	4
25	25	10
130	132	5
193	193	9
3	3	9
134	134	10
135	136	6
143	143	4
129	130	4
49	49	12
45	45	9
107	133	7
106	142	3
172	173	6
157	157	15
35	37	1
106	106	7
163	164	3
50	50	10
149	149	13
106	107	10
142	143	6
41	44	2
0	0	18
64	64	1
20	29	3
26	27	7
145	148	1
157	158	3
113	114	7
78	78	7
185	185	22
182	183	2
152	156	2
20	20	6
56	56	5
94	94	6
54	55	11
19	19	3
83	84	1
100	101	3
44	45	4
105	105	11
121	121	11
165	167	2
99	119	2
48	49	2
5	173	2
164	164	7
53	53	6
72	72	2
139	154	3
139	139	10
130	131	6
140	141	3
176	177	8
10	10	15
154	155	6
100	100	5
118	118	8
161	161	8
83	83	4
133	134	6
179	179	8
55	141	1
61	61	2
187	188	13
139	143	3
30	31	10
53	129	4
55	129	1
4	189	2
141	141	13
15	15	7
147	148	7
80	80	9
173	174	2
151	166	8
31	32	6
168	168	11
181	182	2
23	23	11
55	196	5
152	172	3
77	77	1
6	6	10
169	172	5
153	153	10
34	35	1
22	23	4
33	33	8
107	107	11
7	8	8
167	169	2
74	74	3
42	44	1
197	197	12
144	145	2
34	44	3
155	155	17
148	149	4
33	44	2
189	189	18
135	135	10
84	85	5
184	184	14
16	40	2
137	138	7
18	19	5
154	191	5
173	173	11
28	28	5
156	157	6
47	57	5
151	151	7
140	147	1
36	182	2
181	181	6
162	183	2
170	171	4
112	113	3
123	123	5
23	28	3
174	174	5
171	193	3
134	135	3
34	43	1
189	190	7
51	52	3
19	21	1
67	86	2
194	195	6
59	63	4
133	141	4
182	182	10
179	181	1
168	169	8
55	55	5
57	66	1
161	169	1
102	103	3
25	26	7
163	163	8
82	83	2
76	77	1
164	191	5
62	62	1
127	128	8
24	25	6
71	71	10
9	9	14
22	22	4
109	109	5
54	54	10
109	111	1
172	172	16
28	29	3
5	30	1
146	147	11
115	115	8
69	69	9
151	152	8
10	11	3
176	176	6
150	150	15
65	66	2
38	38	6
57	58	4
97	99	3
168	172	2
130	133	2
135	153	2
106	111	4
84	84	1
162	164	6
188	194	2
88	89	9
1	1	9
144	144	12
187	187	8
17	42	5
134	150	7
150	193	2
101	101	6
120	120	13
17	17	9
123	188	1
184	185	2
27	27	4
128	128	8
158	159	2
165	165	3
152	153	14
57	57	7
67	71	1
42	42	6
52	195	2
43	44	1
58	58	11
166	166	8
97	97	7
117	118	5
40	41	10
23	25	2
195	195	12
87	87	2
119	119	4
82	82	6
1	33	1
3	176	4
8	9	2
121	126	3
27	34	2
19	20	1
38	70	2
126	127	3
127	127	8
69	197	4
132	134	3
22	24	3
159	162	2
47	54	1
93	93	2
125	126	4
70	70	7
191	191	5
46	46	9
130	130	11
160	160	8
13	14	7
149	194	2
124	124	9
139	155	3
4	175	2
15	94	5
168	190	3
81	81	13
5	8	2
102	102	10
155	156	6
16	37	1
93	94	1
136	137	1
86	87	6
149	192	2
107	108	2
61	143	2
111	112	3
98	112	3
38	39	6
116	116	7
65	65	5
71	75	1
171	172	2
166	167	4
22	25	2
4	30	3
162	163	2
2	2	3
131	156	1
123	124	5
34	42	1
170	184	2
97	98	1
11	12	4
37	37	4
47	48	3
32	33	3
90	90	2
85	85	1
24	24	3
15	186	3
48	48	5
113	121	4
169	175	4
4	36	2
30	30	11
81	82	1
13	45	3
94	96	1
15	33	6
67	67	1
58	142	1
141	142	4
17	57	4
129	147	2
172	176	1
2	3	1
135	152	4
113	120	1
34	36	1
149	159	5
87	88	2
159	166	1
0	2	3
173	175	4
170	190	2
5	6	1
97	101	1
63	63	2
165	168	2
164	165	1
107	109	1
190	192	1
17	32	2
37	38	1
21	22	3
151	156	3
99	99	4
3	4	1
126	126	4
152	155	2
26	26	6
146	159	2
73	73	6
71	72	8
97	113	2
42	43	3
137	137	7
18	23	1
147	164	1
179	180	2
195	196	1
173	179	1
192	193	3
110	111	2
51	131	2
64	65	1
20	21	4
80	81	5
18	40	2
124	125	3
187	192	1
153	154	4
59	62	1
6	8	3
35	182	2
4	4	4
95	95	3
27	28	2
129	132	2
80	82	1
11	11	6
4	5	3
186	188	1
103	103	4
143	179	1
88	88	5
129	129	1
129	188	1
174	176	3
105	106	2
89	89	2
17	19	2
0	8	1
33	42	1
94	95	1
193	194	5
9	187	3
138	139	5
132	133	1
150	181	3
131	155	2
54	56	2
184	194	1
59	61	2
185	186	3
150	151	1
46	47	1
150	157	3
174	175	3
72	87	1
50	52	1
152	165	1
72	86	3
45	46	1
153	155	1
37	69	2
99	100	1
9	32	1
78	79	1
13	15	2
165	169	1
34	37	6
120	121	2
81	83	1
18	20	1
30	32	1
96	96	4
20	28	1
86	86	3
131	193	1
159	161	1
129	196	1
16	17	4
9	40	2
96	97	1
23	24	1
25	27	1
101	102	2
79	83	2
189	191	1
44	46	1
143	176	1
84	86	2
160	161	2
36	59	1
17	18	1
15	24	1
17	38	1
196	197	2
76	79	2
16	41	1
5	36	1
67	146	2
67	68	1
9	10	3
183	184	1
134	148	1
102	106	1
10	13	2
133	138	1
53	137	1
71	85	1
171	190	2
133	137	1
171	173	1
23	30	2
22	41	1
184	187	1
80	84	1
143	144	1
108	133	2
119	120	3
163	166	3
48	51	1
104	118	1
169	170	1
135	138	1
6	27	1
1	50	1
108	109	1
139	141	1
82	84	2
57	141	1
169	194	1
105	107	1
130	193	1
84	89	1
56	129	1
140	146	1
132	165	1
140	162	1
24	27	1
155	168	1
148	197	1
161	162	1
25	37	1
19	42	1
156	182	1
33	41	1
133	150	1
167	168	1
106	109	1
3	37	1
10	53	1
114	115	1
151	184	1
14	42	1
169	188	1
73	74	1
64	66	1
