3	47	1
58	58	17
37	84	1
13	62	2
13	15	3
119	119	6
61	61	8
4	4	4
16	16	2
64	64	11
139	140	4
28	28	7
36	37	5
90	90	4
57	62	4
125	125	8
105	115	7
59	60	3
63	63	5
130	130	6
120	120	4
19	84	1
111	111	4
47	47	4
56	62	4
108	108	7
36	122	3
68	73	2
39	39	5
122	122	5
72	72	3
17	67	2
117	129	5
93	93	8
117	139	1
17	36	2
108	112	3
92	92	8
139	139	9
110	110	6
126	128	3
124	124	19
10	10	8
143	143	11
129	129	8
78	78	4
71	72	6
118	118	15
15	16	7
78	79	3
121	121	9
15	15	8
134	138	1
23	48	1
84	84	3
118	119	8
141	142	2
125	126	6
128	129	7
42	42	10
127	133	1
130	142	1
132	132	11
88	88	6
104	106	3
26	26	3
4	13	1
115	115	1
105	105	4
107	109	2
117	118	3
37	37	21
135	135	8
77	80	2
67	67	7
54	82	2
117	117	8
97	97	2
76	79	4
49	49	9
54	105	5
49	50	3
6	6	6
55	56	3
54	59	1
27	27	6
106	106	8
35	56	3
3	40	5
30	30	7
14	14	9
13	14	5
66	74	3
61	107	1
142	142	5
36	36	4
32	32	12
52	52	3
123	123	4
50	50	6
100	100	9
25	41	1
17	17	10
77	78	4
16	66	1
66	66	3
141	141	5
137	137	4
89	90	3
128	128	7
68	71	2
107	108	7
9	9	12
86	86	6
109	110	2
116	116	9
54	70	3
120	126	6
9	10	2
109	109	8
114	114	6
81	81	1
106	114	1
121	122	2
84	85	3
113	114	1
1	6	5
83	83	2
88	114	1
71	140	2
133	133	7
31	31	4
23	23	8
142	143	3
136	136	6
96	96	4
37	142	1
40	40	3
76	77	3
48	48	8
12	31	1
98	98	11
51	51	8
74	108	2
21	21	2
76	76	4
4	5	3
38	39	7
32	64	1
0	28	1
137	138	2
134	134	9
132	134	2
97	107	2
63	132	1
65	95	1
70	99	3
25	25	1
105	113	7
69	141	3
38	38	5
3	83	1
5	61	1
61	66	5
146	146	1
34	52	2
66	107	3
20	21	2
8	8	9
131	132	3
127	127	8
144	144	3
0	47	2
11	11	5
113	113	1
3	33	2
29	29	6
51	52	2
47	85	3
59	59	8
62	62	5
71	71	6
8	10	1
75	75	7
5	5	3
68	68	3
55	71	4
87	87	8
70	70	10
73	73	2
21	23	5
88	92	1
91	91	7
102	102	5
41	41	6
124	125	4
101	141	3
2	2	1
53	54	2
19	19	13
85	85	7
4	85	1
18	18	8
109	111	3
66	72	2
5	6	2
5	56	2
65	66	4
129	133	2
93	94	1
86	90	1
54	55	1
22	23	2
127	128	2
95	95	3
41	84	2
116	117	3
32	85	1
31	80	1
126	126	8
135	136	2
134	137	1
138	139	2
31	32	1
68	70	2
49	63	3
107	107	3
132	133	2
93	98	3
82	85	2
63	65	2
81	108	1
112	118	2
74	75	1
2	3	1
2	31	3
0	0	1
71	73	1
14	15	1
56	58	1
56	56	1
3	6	1
144	145	1
112	112	5
20	22	4
62	66	1
20	50	2
89	89	7
30	39	3
22	22	2
111	130	1
18	49	1
122	127	1
34	36	1
99	99	4
94	94	4
6	9	2
106	117	1
94	109	3
88	90	2
141	144	1
1	9	5
21	24	2
25	26	2
0	6	1
69	69	5
98	141	3
67	93	1
69	70	2
53	53	4
136	137	4
123	125	1
58	60	1
19	32	2
110	113	1
60	80	1
114	122	2
105	106	4
126	127	4
34	95	1
43	43	4
119	127	2
34	34	2
2	84	1
73	76	2
31	52	1
113	115	1
75	88	4
13	52	1
107	115	1
77	77	1
32	84	1
15	63	2
135	139	2
72	74	1
127	130	5
123	124	1
58	65	2
70	120	1
55	63	1
117	130	2
104	105	1
95	120	1
60	60	4
54	54	2
19	30	1
111	118	1
143	144	1
23	24	2
91	95	1
22	114	2
33	34	2
12	12	3
37	41	3
100	131	1
137	139	4
34	35	1
107	116	1
26	35	1
96	120	3
73	74	1
134	135	1
65	65	4
71	75	1
79	80	1
133	139	1
76	80	1
80	81	2
103	104	1
68	81	2
30	82	2
20	20	6
3	13	1
82	82	1
18	30	1
39	40	2
60	81	1
121	137	1
79	79	1
53	55	1
119	128	2
2	41	1
140	140	2
85	114	1
65	71	1
19	28	1
35	53	1
129	144	1
75	107	1
70	98	1
55	58	2
13	13	1
26	36	1
38	41	1
61	70	1
74	74	1
3	12	1
33	33	4
103	103	1
38	120	2
124	141	1
70	75	1
94	96	1
77	79	1
114	116	1
91	92	1
57	57	1
131	131	1
2	85	1
19	26	1
64	104	1
27	42	1
93	109	1
57	88	1
4	31	2
64	103	1
50	52	1
17	62	1
32	80	1
101	101	1
72	132	1
129	130	1
