13	13	10
43	43	7
67	67	7
60	60	8
76	76	22
0	0	5
16	16	4
50	50	9
34	34	9
73	78	4
54	63	2
37	43	4
41	41	9
42	42	17
35	35	9
39	39	10
6	6	10
63	65	5
64	64	20
63	63	13
11	16	2
20	21	8
10	14	1
38	38	7
74	74	8
73	73	7
47	47	8
20	20	2
5	73	2
26	27	4
76	77	1
15	15	8
80	80	13
71	72	3
28	28	15
46	46	10
1	1	11
26	26	12
19	29	1
64	65	4
70	71	4
35	56	4
59	59	4
68	68	4
31	31	11
53	53	8
56	65	1
11	11	1
44	45	4
62	72	3
51	51	6
49	49	9
54	54	8
11	14	1
65	65	7
6	7	1
14	15	5
10	10	10
1	2	2
50	52	3
62	62	5
45	46	1
3	3	1
7	7	8
5	37	4
72	72	5
36	36	3
28	29	8
56	57	4
48	49	1
57	57	11
22	22	1
5	6	4
9	9	4
73	74	4
51	54	3
68	70	2
63	64	5
59	60	9
25	25	3
55	58	7
37	38	1
38	39	2
58	59	5
64	66	1
33	36	1
45	45	10
33	34	6
66	67	4
15	26	3
54	55	4
0	1	2
13	14	9
18	18	4
27	48	3
30	52	1
12	12	1
79	79	5
27	28	3
8	8	14
53	54	2
68	69	5
5	5	6
53	63	3
2	7	1
78	78	10
2	2	9
9	10	3
32	53	2
5	7	2
40	40	6
55	56	4
33	33	8
59	65	3
49	50	4
46	47	2
29	77	2
71	71	9
52	52	4
49	53	3
17	17	8
21	21	5
56	70	2
8	21	5
61	61	5
14	14	5
19	19	5
28	44	4
5	9	2
19	26	2
64	73	1
78	80	4
70	70	11
29	29	2
60	61	3
77	77	3
58	58	4
50	67	3
56	56	1
4	6	2
27	27	3
37	39	1
74	75	1
48	48	5
54	61	4
10	11	2
50	63	1
47	74	1
65	66	3
30	65	1
41	79	4
29	30	3
62	66	1
1	3	1
7	8	2
52	53	2
55	55	4
50	51	2
75	76	2
26	63	1
32	32	6
19	20	2
51	53	4
34	48	2
3	4	1
66	66	3
4	4	2
51	52	2
34	36	1
67	71	1
75	75	3
72	74	2
30	30	9
32	56	1
63	72	2
37	37	4
34	35	1
37	40	1
69	69	4
40	41	2
49	66	1
4	80	2
31	49	2
33	52	1
4	5	1
30	49	1
67	68	3
49	71	1
19	21	1
11	12	1
77	78	1
51	56	1
26	31	1
54	58	1
47	80	1
15	25	1
1	78	2
27	29	1
22	31	1
68	71	1
34	60	1
79	80	1
