205	205	3
199	213	2
12	12	19
192	192	1
160	160	10
106	106	3
136	136	11
71	71	6
98	99	1
27	28	5
115	115	2
74	74	10
0	2	4
84	84	7
34	34	6
55	56	3
70	70	12
166	166	1
16	16	7
116	117	6
209	209	3
132	133	3
41	41	5
225	226	4
197	198	2
226	226	7
23	23	5
202	204	1
88	88	24
75	106	1
232	232	12
6	6	11
223	223	4
24	175	1
49	57	2
11	13	1
186	187	2
29	29	10
55	69	1
22	177	3
54	54	16
166	219	1
241	241	7
196	196	3
219	219	20
35	36	4
169	235	2
17	17	13
6	7	4
201	201	7
27	27	21
210	210	13
46	47	3
168	168	9
171	182	2
96	97	3
40	40	9
72	173	3
30	30	15
77	78	2
154	157	3
32	32	8
7	7	7
9	9	11
237	240	6
174	174	11
85	85	11
178	191	2
49	49	8
19	19	5
36	36	11
227	227	4
105	105	7
52	53	2
171	172	4
196	201	1
215	215	8
182	182	6
58	59	4
169	169	1
46	46	18
50	51	5
73	135	5
206	206	7
167	168	2
117	117	2
155	156	1
22	23	3
157	235	1
12	15	3
180	180	4
184	184	8
36	68	1
57	60	3
121	121	1
13	14	4
47	47	9
148	149	6
148	148	2
119	121	4
15	15	6
55	55	7
28	28	15
177	177	4
13	13	3
50	52	2
207	207	8
129	129	9
173	174	6
67	68	6
14	16	4
68	68	3
42	46	2
238	239	5
55	97	2
25	25	6
86	86	10
215	216	8
53	55	3
37	37	10
153	153	2
5	12	3
20	23	3
126	126	5
231	231	10
145	145	4
154	155	2
228	228	5
203	203	4
133	133	5
66	66	5
231	232	2
208	220	2
129	157	2
214	214	1
113	113	4
224	224	8
38	38	13
62	62	8
116	148	2
200	201	1
172	172	5
21	22	5
105	109	1
188	188	2
118	119	3
156	157	2
71	75	4
50	72	3
234	235	5
100	100	3
36	47	3
195	228	2
237	237	10
49	59	1
1	20	2
51	52	8
219	224	2
64	64	3
138	138	10
2	3	2
1	2	1
143	143	9
134	134	5
9	10	2
53	54	8
29	30	4
39	65	1
200	200	4
7	18	1
125	125	4
100	105	3
127	128	2
101	101	4
73	73	9
10	10	8
204	219	6
242	242	4
38	64	1
171	171	6
65	65	8
181	181	7
167	169	4
208	208	5
196	215	2
83	83	7
234	234	5
202	202	3
102	102	4
59	59	12
158	160	2
36	41	1
53	53	13
18	31	6
137	137	4
69	69	15
66	67	3
113	114	2
45	46	2
214	215	1
193	193	5
48	67	2
42	66	1
4	5	6
2	2	3
71	72	3
35	35	2
135	138	1
28	153	3
4	4	3
14	14	4
221	222	2
220	220	11
78	126	4
181	202	2
11	27	3
7	19	1
34	35	2
59	60	8
14	15	1
65	67	4
144	144	2
233	233	8
203	206	1
63	63	2
11	11	9
69	70	2
42	42	12
159	159	6
1	1	2
20	20	11
54	55	1
135	136	3
198	198	2
45	45	8
128	131	1
127	127	5
225	225	11
31	32	3
238	238	1
168	170	1
57	57	8
52	52	12
39	39	4
211	211	11
43	55	3
4	6	5
213	218	4
58	58	7
16	17	5
72	72	4
162	162	12
204	204	5
125	212	2
115	128	3
84	85	3
139	140	4
128	218	2
78	78	5
115	116	1
224	229	1
149	149	1
18	18	7
211	232	7
34	36	1
161	190	1
9	153	1
156	159	1
109	109	4
179	203	2
77	80	1
23	24	4
23	214	1
40	77	1
193	194	5
30	32	5
83	84	1
8	29	1
236	236	1
3	124	1
25	26	4
235	235	7
169	210	1
187	191	2
44	44	8
109	118	2
125	127	4
98	98	6
179	180	5
8	8	3
179	179	2
1	3	1
60	60	7
56	59	1
12	17	4
3	3	2
173	237	2
216	216	6
38	61	2
62	63	1
8	9	2
61	61	14
197	219	2
198	201	2
147	147	1
151	152	4
63	65	1
135	135	4
134	136	3
95	96	3
173	173	3
115	119	1
177	178	3
121	122	3
189	189	4
8	27	2
155	157	1
178	178	3
202	220	4
56	57	3
176	177	6
222	222	1
240	241	4
211	212	6
56	62	2
43	73	3
76	76	4
97	97	10
236	237	3
49	67	1
140	140	7
4	125	2
61	74	1
195	224	2
146	146	5
11	122	1
158	159	1
183	183	3
141	141	6
57	59	1
79	84	2
184	186	2
120	120	4
95	104	1
28	47	2
87	88	2
41	46	1
241	242	3
33	33	5
175	177	3
129	130	1
212	213	1
48	48	4
22	176	1
52	98	1
99	99	1
143	144	5
113	142	2
157	157	1
199	200	1
146	147	4
2	5	4
111	112	2
74	212	5
58	61	2
159	172	2
128	128	2
172	205	3
23	25	1
67	67	4
195	195	3
60	63	1
12	13	1
59	63	2
167	167	2
67	69	1
152	153	2
112	112	4
228	229	3
188	189	1
10	11	3
75	75	7
5	17	4
138	139	7
57	71	1
103	103	2
111	111	3
20	57	2
176	176	2
174	191	1
230	230	6
185	186	3
81	104	1
239	239	2
0	0	2
227	229	2
89	89	1
150	150	1
5	9	1
102	103	4
104	105	1
158	158	1
190	201	2
79	80	3
5	5	2
83	188	1
206	218	3
8	11	1
68	69	1
221	221	3
210	211	1
82	104	3
227	228	4
27	67	2
182	183	2
139	142	1
139	141	1
197	197	4
26	233	2
240	240	1
11	12	2
72	78	2
191	191	2
142	143	1
124	125	1
186	186	3
42	43	1
126	127	1
234	237	1
73	74	5
41	42	1
33	34	2
220	221	2
119	120	4
132	132	1
26	26	10
220	222	1
171	175	2
79	100	1
88	96	1
144	159	2
80	80	1
43	43	9
31	31	3
112	143	2
82	82	1
81	81	2
10	44	1
119	119	1
49	50	2
192	203	2
152	155	1
24	25	2
156	156	2
16	190	2
115	118	5
28	239	1
54	97	1
20	21	3
63	72	2
122	127	3
9	115	1
147	148	1
133	150	1
73	138	1
24	24	2
25	30	1
175	182	1
5	25	1
39	40	1
166	167	4
0	3	2
52	163	1
160	165	1
164	183	1
37	39	2
47	53	2
226	227	1
79	79	2
39	41	2
198	227	2
5	36	1
95	95	2
26	27	1
188	190	1
75	76	1
38	39	2
82	130	1
5	23	2
74	79	1
101	111	2
127	141	1
205	206	1
8	20	1
21	21	1
144	146	4
3	4	1
18	20	2
199	212	1
204	206	1
195	196	2
2	13	2
51	53	1
217	217	3
209	211	1
56	60	2
16	20	2
164	164	1
145	147	3
124	124	2
70	71	2
100	101	1
123	123	1
184	187	1
6	12	1
25	100	1
80	81	1
30	31	1
8	183	1
191	235	1
215	222	1
85	86	2
63	66	1
96	120	1
3	7	1
48	62	1
225	227	3
202	206	1
20	37	1
133	134	1
76	78	2
73	77	1
42	61	1
44	45	1
187	188	1
50	50	2
149	150	1
202	203	2
96	96	1
24	143	1
76	77	1
218	218	1
192	194	1
139	150	1
8	24	1
170	170	1
143	154	1
108	108	1
112	113	1
187	187	2
198	199	1
56	56	1
37	38	1
153	160	1
69	72	1
155	155	1
113	129	2
43	45	1
43	56	1
42	44	1
136	144	1
135	137	1
66	68	1
154	163	1
161	161	1
159	166	1
101	103	1
141	142	1
205	207	1
105	107	1
64	91	1
77	77	1
160	190	1
197	200	1
126	139	1
212	212	1
81	103	1
187	200	1
140	143	1
116	118	1
131	133	2
128	211	1
204	205	1
189	190	1
80	83	1
