46	46	12
88	88	4
71	71	5
64	64	5
81	81	2
41	42	5
92	92	10
46	51	1
47	47	9
49	49	4
73	77	1
67	67	9
86	88	6
77	77	13
52	52	6
63	78	2
44	44	8
52	62	3
79	79	14
63	63	8
27	28	3
81	82	1
48	50	2
29	29	9
73	73	5
81	88	1
98	98	11
37	38	3
62	62	8
39	39	2
87	88	9
32	32	1
83	84	2
42	93	2
62	63	2
65	65	5
59	59	5
45	45	7
44	60	2
51	51	7
60	60	3
59	85	3
89	89	11
87	87	5
66	67	4
76	77	5
84	84	3
51	52	5
94	95	4
99	99	5
31	32	5
39	80	3
61	61	13
93	94	8
85	88	5
56	57	6
31	34	1
33	33	8
94	94	7
57	58	2
83	88	2
57	57	7
34	35	1
91	91	8
69	70	9
38	38	2
71	72	3
50	50	4
85	85	2
40	41	5
59	64	1
55	56	5
42	42	8
47	61	2
43	84	3
85	86	5
48	48	9
23	23	4
74	74	3
63	64	4
67	75	2
86	86	3
63	68	1
78	78	3
34	38	1
89	98	1
36	36	5
50	52	3
38	40	2
72	72	3
66	66	4
36	37	9
75	76	3
60	61	5
45	53	2
55	55	2
100	100	7
48	53	1
72	85	4
49	50	4
61	68	2
33	79	2
42	58	2
70	70	5
49	86	1
45	50	2
41	41	3
65	81	2
77	89	2
82	95	6
28	28	3
47	48	1
49	51	2
58	58	4
80	80	8
43	43	5
95	95	12
79	80	1
74	75	4
25	53	1
25	55	2
93	93	4
78	79	3
35	37	1
56	56	2
65	66	3
90	91	1
53	54	3
56	58	1
54	54	4
89	90	2
73	74	2
82	82	4
86	87	3
29	40	4
33	82	2
35	36	3
47	62	2
41	67	1
25	25	2
29	58	2
53	53	2
65	79	1
31	31	2
60	64	1
69	69	5
33	42	1
76	76	2
42	43	2
75	75	7
99	100	1
50	63	2
68	68	6
87	97	2
25	48	1
90	90	4
29	30	3
102	102	4
60	62	2
86	89	1
94	97	1
95	96	1
55	78	2
24	26	2
74	88	1
45	54	2
45	46	1
61	62	1
64	65	1
88	89	3
80	81	1
51	53	1
83	83	3
88	98	2
43	74	1
101	101	2
27	27	3
58	85	3
37	37	2
49	97	1
79	93	2
64	69	1
23	24	2
40	40	1
77	78	2
46	64	4
34	34	1
54	55	2
43	44	1
54	81	1
69	71	1
61	65	2
52	53	1
67	68	1
79	81	1
29	68	1
39	40	2
46	54	1
52	63	1
77	80	1
46	47	1
82	84	1
28	29	1
90	92	1
22	23	1
45	56	1
