156	156	3
49	49	3
74	74	7
9	51	2
98	98	11
105	128	1
1	1	18
65	65	2
135	136	4
113	114	1
128	131	7
159	159	3
85	87	2
123	162	2
101	101	10
94	94	11
92	92	16
73	73	6
1	2	8
52	54	3
23	23	11
8	8	11
160	160	13
34	35	1
128	165	3
91	92	2
53	53	10
114	163	2
143	143	12
90	90	11
26	26	11
61	63	2
57	63	3
43	44	6
86	87	3
68	68	8
133	133	10
93	110	1
148	148	10
48	49	5
55	56	4
111	111	17
57	57	3
53	79	2
122	156	5
131	161	2
83	90	3
24	25	5
39	51	5
131	131	3
45	45	24
64	68	2
167	169	1
92	111	1
43	43	3
7	7	16
5	6	3
124	163	9
49	52	1
97	98	3
79	79	10
71	71	6
48	48	12
80	88	3
101	104	3
20	20	3
122	122	13
73	74	7
18	18	14
108	108	11
126	126	11
66	66	5
112	113	4
99	99	6
102	114	3
125	125	4
27	27	10
49	58	5
147	148	6
83	83	11
42	42	7
66	67	2
72	72	11
166	167	2
93	93	6
139	139	5
100	100	7
168	168	4
120	120	3
78	79	3
51	97	1
155	158	4
162	162	3
54	56	3
78	78	3
95	95	8
142	142	3
11	20	3
84	85	8
161	162	1
56	56	8
167	168	3
121	121	8
0	1	6
132	132	4
51	58	5
34	34	7
50	52	4
89	94	1
21	22	4
36	36	21
86	86	6
102	102	8
102	103	2
123	163	1
124	124	6
145	145	4
120	121	2
134	135	6
134	134	3
87	96	3
63	63	14
133	134	2
15	17	3
96	96	1
84	84	9
50	50	11
131	145	2
68	69	10
25	42	3
72	91	5
114	114	12
2	2	8
163	164	2
114	125	1
22	153	2
14	14	7
115	115	1
165	165	1
123	123	5
25	25	17
118	162	4
114	116	2
10	10	7
80	80	5
151	151	2
41	41	3
39	50	2
112	112	6
70	90	5
116	116	8
27	40	6
131	165	2
123	132	4
47	50	1
40	40	17
116	118	1
16	16	8
85	85	11
113	113	7
17	47	1
161	161	3
92	108	6
66	68	2
165	166	5
79	80	2
42	43	2
126	166	2
69	70	4
6	6	8
153	153	8
8	9	3
146	146	8
70	70	7
52	53	3
150	150	9
46	46	5
82	99	2
159	160	4
94	152	2
103	103	2
77	78	2
70	71	3
65	80	4
143	144	2
1	25	2
105	105	5
121	134	2
52	52	2
107	107	5
97	97	8
106	106	6
155	156	2
107	112	1
101	102	2
20	147	3
119	120	2
3	3	24
95	154	1
104	105	3
10	11	3
164	164	7
4	4	9
127	127	9
91	91	4
106	158	2
118	120	1
80	81	2
44	44	8
62	62	8
104	130	3
141	142	1
110	110	7
128	128	4
115	167	2
65	66	1
138	138	6
153	154	1
116	163	1
157	157	7
23	148	2
64	67	2
114	122	1
118	118	9
126	128	7
107	108	7
5	5	4
169	169	5
104	104	8
121	122	3
77	77	4
139	141	2
167	167	2
115	161	3
19	19	5
166	169	1
87	99	1
119	166	2
118	165	1
160	163	3
118	155	1
120	141	1
50	70	4
113	120	2
25	56	2
20	22	3
45	50	2
168	169	2
122	125	2
163	163	5
144	144	5
49	57	1
116	125	2
115	117	3
35	35	9
15	15	2
152	153	1
37	38	3
35	37	2
17	17	3
105	109	1
91	93	7
70	75	4
109	110	1
89	89	2
81	101	1
13	13	4
54	54	1
38	40	3
111	112	4
137	137	10
81	81	7
50	63	3
12	16	2
161	163	3
83	114	2
21	39	3
46	47	2
111	134	1
70	97	1
148	150	1
28	28	4
136	136	5
4	66	2
69	69	4
99	101	5
11	11	3
170	170	2
17	22	1
147	147	2
39	39	3
164	169	5
98	99	1
81	102	3
83	84	1
119	119	4
118	153	2
24	24	5
155	157	2
3	8	2
102	116	1
18	19	3
12	12	2
76	147	1
71	72	3
76	76	5
51	51	8
133	135	1
135	135	5
88	89	3
64	65	1
166	166	8
99	102	1
108	149	1
158	158	4
103	130	1
38	38	3
110	111	1
149	149	3
75	75	1
109	109	5
130	164	1
37	37	2
23	153	1
74	75	1
155	155	3
6	7	5
86	151	3
15	16	1
11	52	2
117	117	1
131	168	3
22	23	1
104	168	2
104	155	3
81	82	3
106	115	3
125	126	1
23	146	2
13	15	1
149	150	1
41	42	1
71	73	2
1	62	1
89	95	3
57	61	3
130	160	4
146	153	1
5	7	3
94	95	2
131	162	1
27	150	1
21	42	1
157	160	1
22	147	1
160	166	1
93	94	1
57	99	3
8	15	1
9	10	6
62	63	2
99	161	2
112	114	2
91	96	6
84	151	2
18	46	3
80	91	2
119	160	1
114	130	1
145	167	1
107	109	3
118	148	1
127	142	1
103	104	1
108	110	1
9	9	5
130	130	1
47	51	5
24	89	2
113	142	2
45	52	3
156	157	1
153	155	1
87	87	3
25	54	1
64	64	5
38	39	1
112	126	2
15	18	1
113	144	1
105	165	1
48	50	1
129	129	1
9	18	2
1	36	1
84	87	1
124	128	1
37	55	1
120	148	1
15	23	1
118	170	1
75	148	3
11	12	4
152	152	1
148	149	2
12	13	1
86	152	1
93	150	2
45	48	2
106	109	2
55	76	2
52	58	1
97	148	2
160	167	1
91	99	1
103	163	1
88	150	2
104	167	1
79	154	1
16	48	1
120	122	2
69	82	1
82	82	2
24	41	1
102	105	1
87	167	1
92	99	1
128	129	1
96	99	2
114	123	1
87	88	1
78	108	1
58	58	1
150	151	1
55	81	1
0	0	1
83	89	1
95	158	1
24	148	1
89	150	1
40	44	1
