107	135	3
54	55	3
71	71	8
56	56	3
48	48	5
66	67	4
52	52	4
5	6	6
106	106	10
112	127	1
55	55	6
33	34	3
39	50	2
119	120	2
94	95	4
94	94	9
107	107	2
20	20	5
46	46	8
118	121	4
98	99	9
135	135	3
73	73	9
125	134	1
139	139	6
16	16	12
105	141	2
115	116	5
161	161	3
37	37	13
149	149	11
128	129	5
37	38	2
87	87	9
78	78	12
151	151	3
99	132	4
19	19	2
12	15	1
113	113	7
36	122	2
14	14	5
40	40	3
47	47	4
21	21	11
90	91	8
44	44	5
12	12	5
114	114	4
85	86	2
155	155	7
23	24	3
4	4	9
23	159	4
100	102	11
43	43	3
41	41	3
124	124	8
74	82	6
86	86	2
28	28	2
148	156	3
116	116	10
92	94	3
140	140	4
36	36	12
80	80	4
56	57	4
91	91	8
54	54	6
157	158	2
76	76	1
69	86	1
153	153	8
134	149	4
111	167	1
48	49	8
10	10	6
25	25	10
52	56	3
0	1	8
104	104	5
44	45	4
80	85	2
121	121	6
101	101	3
97	97	4
70	70	9
17	18	4
141	141	6
160	160	5
100	160	5
64	67	2
36	43	1
123	123	3
47	49	4
158	158	7
124	125	3
45	57	2
20	22	2
153	163	1
9	18	2
143	151	2
82	83	4
105	105	9
89	89	3
44	46	5
8	8	3
50	57	2
109	109	7
95	95	3
12	13	4
115	115	5
112	112	6
157	157	3
137	150	2
117	147	1
6	7	3
143	143	5
5	7	3
14	15	4
125	125	1
1	2	4
76	79	3
120	120	8
128	128	1
147	147	9
84	84	5
69	69	1
156	166	2
110	111	4
92	92	7
45	109	2
113	114	6
25	39	4
115	123	4
136	136	3
76	89	2
70	71	1
136	145	1
168	169	5
8	17	4
87	88	3
70	96	3
44	47	2
88	99	3
35	38	4
51	51	3
127	130	2
57	57	2
130	165	3
164	165	4
121	123	4
77	77	13
1	1	3
79	80	2
79	82	3
24	40	5
126	161	3
26	26	3
15	20	1
71	72	5
23	23	10
35	139	1
74	74	5
17	17	7
55	56	1
96	96	6
63	63	5
102	102	7
126	127	3
138	146	7
75	75	4
53	74	3
133	134	1
110	110	6
2	24	2
62	73	2
169	170	2
41	42	5
125	126	1
67	67	7
129	129	14
80	118	1
10	23	1
0	0	13
12	26	2
161	162	4
147	154	4
2	3	2
16	17	5
146	146	1
112	126	1
107	109	1
20	53	3
85	85	4
114	161	1
92	105	1
82	82	3
65	66	4
159	160	4
123	137	4
88	88	5
166	166	5
15	16	1
165	166	1
142	142	5
95	97	5
127	129	2
34	34	6
26	41	2
163	163	3
49	56	3
67	72	2
144	148	2
148	166	1
13	36	2
12	16	5
167	168	3
3	3	6
130	130	8
117	123	2
45	45	4
18	20	2
46	66	1
77	81	1
76	92	2
83	83	6
63	91	1
94	126	1
120	135	2
81	87	4
94	104	4
119	119	8
120	124	2
121	135	5
58	58	5
156	156	5
38	38	5
67	68	2
81	81	1
161	164	3
7	7	3
90	90	6
39	52	2
35	125	1
90	104	2
124	138	2
141	142	1
36	37	1
2	2	1
13	55	4
114	120	1
114	115	2
76	78	2
49	58	3
71	96	3
2	45	2
24	24	3
74	75	5
73	96	1
71	81	2
34	35	2
114	124	1
73	86	3
27	28	4
146	157	2
46	52	1
129	130	2
138	149	2
101	103	2
68	69	3
113	161	1
83	93	1
133	133	7
150	151	5
15	22	2
6	6	2
154	154	1
84	115	1
37	53	1
141	166	1
35	35	4
107	116	1
83	108	1
9	160	1
134	138	2
119	146	2
121	130	2
122	123	1
121	131	2
104	105	1
20	21	2
161	163	3
64	64	5
70	88	3
100	100	6
74	112	1
11	14	3
91	129	2
47	65	1
38	39	2
45	47	1
101	128	3
105	118	1
2	5	1
150	150	4
97	98	1
170	170	5
3	4	1
133	137	2
50	50	2
81	86	2
100	116	3
51	52	4
13	13	1
153	154	1
122	163	2
27	27	1
53	53	3
35	36	1
2	27	1
18	46	1
3	16	2
7	11	2
83	87	1
137	137	1
77	103	1
111	111	1
62	78	1
21	40	2
49	50	3
18	24	2
135	138	3
111	112	4
99	100	1
10	83	1
143	144	3
114	153	3
86	89	1
131	162	1
109	114	1
34	36	2
121	122	1
106	135	2
124	162	3
128	133	1
38	161	3
42	42	3
138	141	2
82	109	1
133	140	1
128	130	5
44	50	1
145	145	1
4	13	3
133	138	1
118	119	1
152	152	4
144	145	5
69	97	1
125	147	1
145	157	1
34	44	2
148	148	3
49	55	1
95	96	2
119	156	1
45	100	1
160	161	3
120	121	2
159	159	3
147	148	1
18	160	1
166	167	1
20	27	1
71	135	1
14	69	1
8	55	2
101	102	1
78	79	5
22	23	2
14	16	2
26	110	1
13	14	1
140	142	1
63	133	1
39	51	1
11	20	2
65	65	1
73	83	1
119	135	1
97	99	1
25	75	2
36	38	2
112	113	1
149	166	1
100	125	1
168	170	1
98	98	1
18	47	1
157	159	1
90	105	1
93	93	4
100	101	3
24	25	2
11	12	1
91	95	1
117	133	1
73	74	1
81	82	1
50	51	1
18	18	4
93	141	2
88	93	1
108	111	1
23	40	1
46	47	1
27	101	2
86	113	1
126	150	1
127	127	1
93	94	1
151	152	1
150	159	1
155	156	1
15	15	1
76	87	1
1	5	1
111	133	1
125	153	3
123	124	2
125	164	1
53	54	2
152	153	1
99	99	1
15	46	1
8	13	1
108	108	1
37	41	1
20	23	1
115	120	1
1	6	1
12	25	1
69	70	1
122	122	1
47	55	1
113	166	3
138	138	1
17	20	1
98	121	1
22	22	1
93	95	1
40	163	1
