14	14	6
115	116	2
236	236	1
103	103	6
57	57	7
39	64	1
219	220	5
30	30	5
201	208	1
29	29	9
197	198	3
11	11	8
31	31	12
2	12	7
136	138	4
8	8	6
144	144	7
164	236	3
171	171	5
15	214	5
36	36	3
34	34	4
108	207	5
233	234	3
194	196	2
34	52	4
159	167	2
70	70	3
44	44	13
23	23	2
13	14	6
152	172	2
50	51	11
197	197	2
239	242	6
85	85	3
9	9	2
21	103	4
45	45	3
164	165	1
6	13	2
228	230	2
241	241	3
204	204	5
205	205	4
100	100	4
106	106	8
199	199	3
42	42	5
27	27	6
135	135	4
236	237	2
53	53	11
143	166	5
15	41	4
150	150	3
54	55	1
173	173	1
204	206	3
22	79	4
99	100	7
38	92	2
59	210	2
68	149	2
146	174	2
60	184	1
56	74	8
60	189	1
196	196	4
62	62	8
227	227	5
117	117	3
134	134	4
156	209	3
180	190	4
2	2	9
152	240	1
104	104	3
28	213	2
81	81	12
200	200	4
26	26	12
154	155	3
60	60	5
166	167	10
153	154	1
176	176	5
153	153	3
47	47	10
64	64	4
82	84	3
126	127	2
51	51	13
130	139	2
152	239	1
80	80	6
124	162	1
182	233	1
48	48	7
193	194	5
144	145	3
160	160	9
173	196	1
12	29	3
7	7	7
174	174	9
101	101	6
17	17	9
140	229	1
222	224	2
119	125	2
25	26	2
59	106	5
83	167	4
164	166	2
29	36	2
68	68	7
50	50	6
76	76	10
183	183	7
63	63	3
182	191	3
133	148	2
27	46	3
226	226	1
231	231	2
113	114	5
140	147	3
180	180	8
128	128	2
103	104	5
177	178	1
148	148	1
213	215	2
153	235	1
22	23	1
176	177	2
191	201	1
96	96	3
149	149	9
70	74	2
181	183	6
164	238	2
11	213	2
109	109	3
25	138	1
16	17	3
146	146	3
54	54	2
124	127	2
229	229	4
198	198	9
65	66	2
184	184	4
41	41	2
71	71	4
58	109	2
138	138	1
137	137	6
233	233	3
34	222	1
141	141	2
42	45	1
102	102	7
65	65	3
40	46	1
157	169	1
182	229	2
2	4	5
135	136	2
181	181	4
156	200	1
190	191	2
178	178	2
172	173	2
57	84	3
239	239	9
10	10	2
214	214	1
24	196	2
162	230	1
105	105	6
79	79	5
6	6	8
3	3	5
10	26	3
29	30	5
154	164	2
153	198	2
142	143	1
75	75	3
28	54	1
80	81	2
33	33	3
22	186	1
39	39	6
77	77	2
34	35	3
49	59	1
32	32	2
123	123	4
23	178	2
82	82	2
62	74	2
128	157	2
0	0	7
233	242	1
178	213	2
83	83	5
192	193	5
172	172	7
140	199	1
147	148	1
234	235	3
25	25	7
184	185	5
78	79	1
162	162	1
24	24	5
143	164	1
19	29	3
99	99	4
151	151	2
155	155	5
142	179	4
160	161	1
82	166	2
140	140	8
115	115	2
86	86	4
190	209	1
227	230	1
190	190	1
82	83	1
84	203	1
169	169	1
37	37	3
101	102	6
237	237	4
58	60	2
224	224	7
49	58	1
74	74	3
198	200	1
136	136	2
181	182	3
207	208	4
107	107	5
77	79	1
9	47	2
61	61	1
52	53	1
156	168	1
61	106	1
202	202	4
42	236	1
134	135	2
87	161	1
4	14	3
67	69	1
17	30	1
98	98	4
38	38	3
159	159	4
4	4	5
55	55	1
228	228	1
120	120	4
23	78	3
32	33	3
17	40	1
22	31	1
89	122	1
55	58	2
167	167	1
43	43	2
76	79	4
209	209	3
142	142	7
49	50	5
57	88	1
13	215	1
73	74	3
31	183	3
66	66	1
84	84	4
174	175	2
177	177	1
213	213	3
12	12	4
69	73	4
55	56	2
183	207	2
76	183	1
67	67	2
156	157	1
185	185	1
166	166	10
113	113	5
88	88	2
148	149	1
137	140	1
7	8	2
36	38	2
35	35	3
150	152	3
47	54	1
137	138	2
68	146	1
56	57	6
121	121	1
46	46	3
234	234	5
140	142	2
131	135	3
67	71	3
225	225	1
146	147	1
170	227	1
185	209	1
230	230	2
30	40	1
69	69	2
238	239	2
28	28	3
72	72	3
45	234	3
14	18	2
163	165	2
18	19	1
186	199	1
56	60	1
236	238	1
240	240	2
17	31	3
105	115	1
216	216	1
0	95	3
191	191	1
231	232	2
145	145	1
75	76	1
16	18	2
56	56	2
152	152	7
97	97	2
113	115	3
197	231	3
111	111	1
222	222	1
156	156	1
190	205	6
128	134	3
78	78	1
211	211	2
59	59	3
73	76	1
1	1	1
81	149	1
184	210	2
141	142	2
131	131	1
34	36	3
122	122	3
20	20	3
158	169	2
193	193	1
123	124	1
212	214	2
130	137	1
153	238	1
6	7	3
31	181	1
165	166	3
97	112	1
116	119	1
37	92	2
44	227	2
85	86	2
212	212	2
208	208	3
216	217	3
81	167	1
19	176	2
13	13	1
195	196	2
55	84	2
139	139	1
21	23	1
70	112	3
112	112	2
204	205	1
73	73	6
219	219	1
192	192	1
141	143	1
45	47	1
179	179	1
77	78	1
53	54	1
19	19	3
35	60	1
181	196	1
3	103	1
161	161	2
118	118	1
34	41	1
43	69	1
212	213	1
80	83	3
89	89	2
29	31	3
40	41	3
224	225	1
127	127	2
151	152	1
109	110	3
235	241	1
45	46	1
187	187	3
157	157	1
206	206	1
203	203	1
15	16	1
214	215	4
237	238	1
168	169	1
4	6	1
95	95	2
201	202	1
200	209	2
16	16	1
123	154	1
167	169	2
37	42	5
188	188	1
38	85	1
130	130	1
64	65	1
175	214	1
218	219	1
213	228	2
159	160	1
30	52	1
163	168	1
9	46	1
158	158	1
12	13	1
194	194	1
11	71	2
47	106	1
66	205	1
61	208	1
235	235	1
188	189	1
128	129	1
61	219	1
52	55	1
185	187	2
66	67	1
59	60	2
108	109	1
5	5	1
129	129	6
22	22	1
8	15	1
26	106	1
74	75	1
20	21	1
60	105	1
59	184	1
53	65	1
43	44	2
147	147	1
145	213	1
153	173	1
192	194	1
30	48	1
209	210	1
164	164	1
64	68	1
232	232	1
9	14	1
46	47	1
