120	131	1
87	87	3
142	142	4
97	97	13
143	143	4
135	135	5
118	118	6
119	120	3
10	10	8
125	143	1
22	22	3
72	72	5
141	141	11
123	123	5
4	4	8
128	129	3
127	127	2
144	144	7
68	68	5
47	58	3
133	134	2
18	22	1
25	25	4
0	5	3
42	100	3
29	29	7
28	29	3
101	126	2
98	98	2
40	41	3
22	38	4
136	136	7
64	65	7
129	129	4
72	74	4
22	23	2
16	16	1
65	65	2
145	145	3
56	56	2
124	125	3
24	24	4
66	66	7
117	117	10
83	85	6
90	90	3
128	128	10
118	119	1
85	85	6
108	108	5
110	110	5
43	134	7
66	71	1
28	28	5
73	73	6
72	114	3
42	42	11
130	131	1
71	72	1
116	116	2
47	70	2
131	131	8
83	86	1
54	54	5
138	138	2
57	58	2
106	112	3
32	33	5
122	122	13
26	26	3
117	118	1
49	49	3
3	6	1
71	71	1
132	132	6
124	124	5
107	108	1
98	118	5
77	77	5
95	95	4
19	60	1
11	11	2
92	92	3
130	132	2
111	111	1
31	32	5
71	98	2
79	79	13
96	97	4
137	137	5
91	92	2
141	142	2
119	119	11
9	12	3
21	34	1
140	141	3
61	64	2
60	61	3
112	112	2
34	34	6
39	39	1
120	122	3
70	71	1
126	126	8
35	36	4
102	102	5
37	37	7
100	101	2
82	85	2
47	52	3
134	135	3
29	48	2
27	27	9
125	126	5
112	113	2
83	83	2
33	34	3
2	3	2
4	27	1
30	30	5
40	40	7
101	101	5
23	23	9
103	103	11
33	57	1
5	11	1
51	70	1
59	60	3
41	42	2
81	82	2
57	57	7
136	139	4
21	25	2
116	117	1
133	133	1
8	8	6
135	139	5
139	141	5
139	139	4
124	131	1
134	134	3
69	71	1
62	62	2
125	125	5
120	120	4
77	78	1
38	38	9
82	82	2
69	69	5
25	34	2
140	142	1
111	112	1
36	37	1
107	107	2
48	48	1
5	6	3
21	122	2
0	1	2
101	102	2
119	132	4
21	24	1
63	63	4
17	17	6
97	119	2
122	123	3
33	33	1
32	32	5
14	15	2
9	9	3
21	66	1
99	100	2
62	64	1
86	86	1
99	102	3
61	70	1
55	55	1
70	70	3
84	84	2
80	80	4
14	35	2
19	19	5
122	124	1
130	130	3
43	43	1
88	88	1
84	86	2
10	12	1
144	146	1
81	103	2
99	101	4
20	20	2
92	93	3
142	144	3
74	110	2
81	89	1
17	18	1
68	69	1
74	86	2
138	139	1
3	3	8
113	113	2
64	90	3
105	106	2
132	133	1
62	93	1
6	6	2
65	66	3
54	57	3
39	73	2
67	71	2
114	116	1
89	89	2
60	60	1
146	146	1
58	58	3
20	34	1
71	76	1
74	74	1
93	93	4
1	1	6
117	120	1
35	35	3
106	106	1
84	111	1
140	140	3
94	94	1
59	59	1
37	41	1
52	54	1
18	18	2
27	28	1
78	78	1
12	12	1
8	9	1
128	131	1
36	42	1
75	76	2
19	24	1
5	5	1
75	111	2
68	71	3
99	99	1
121	122	2
61	61	1
13	15	1
41	41	1
98	110	1
47	47	2
87	92	1
131	132	3
137	138	1
125	127	1
31	31	1
81	81	1
131	133	1
103	104	1
43	72	1
50	55	1
15	15	2
72	112	2
30	33	2
91	91	3
136	137	1
56	57	1
87	91	1
37	38	1
53	53	1
83	107	1
93	94	1
75	75	1
