85	85	21
12	54	3
67	67	28
53	53	16
17	17	10
7	7	8
52	65	1
23	23	16
1	1	6
46	50	2
76	77	2
76	76	24
20	69	1
72	84	2
6	7	21
89	89	18
10	63	2
4	6	1
52	52	7
26	26	8
49	49	6
10	13	3
13	26	2
5	22	2
6	6	8
4	71	3
59	60	4
81	81	12
4	4	16
87	87	8
64	73	1
61	61	10
10	10	7
9	9	9
5	7	7
82	83	13
48	48	6
64	64	18
69	72	4
78	79	8
68	71	1
57	57	15
14	14	8
30	30	20
25	25	6
76	84	5
3	4	9
24	25	3
71	71	15
2	2	10
86	87	10
76	79	3
54	55	10
7	51	3
11	14	4
78	78	6
34	34	5
58	58	14
62	63	5
19	19	26
80	81	6
72	81	1
5	6	1
25	63	4
73	77	4
86	86	13
3	3	11
84	84	12
51	53	8
65	79	6
0	0	12
54	54	7
47	47	11
53	54	1
6	9	3
68	68	5
75	76	5
60	65	7
5	47	1
59	59	18
83	83	4
50	51	3
80	80	16
15	15	9
8	10	2
16	16	7
11	11	8
72	86	1
63	63	16
79	79	6
16	60	3
7	27	4
29	29	9
12	61	5
63	75	4
55	55	13
17	50	3
64	65	6
75	77	2
17	20	3
88	88	5
82	82	14
51	52	13
66	66	10
3	86	2
60	60	10
62	79	3
71	72	7
9	10	4
75	75	9
28	28	11
66	67	2
34	35	3
57	58	9
17	31	6
51	51	8
73	84	2
20	22	5
51	59	4
65	65	10
72	83	6
4	47	4
68	69	6
62	62	9
5	5	6
17	18	2
74	74	4
1	2	10
87	88	2
77	77	9
88	89	7
20	21	2
70	70	7
50	50	6
17	64	3
69	69	11
7	8	9
73	73	7
56	58	1
78	80	4
12	12	9
8	12	7
12	73	2
52	53	2
22	28	3
60	63	1
49	50	5
77	79	4
56	56	14
59	78	1
24	30	1
25	27	4
73	74	5
59	61	2
54	61	2
23	26	1
14	16	7
9	13	1
6	18	1
58	63	1
65	82	2
27	27	3
67	75	1
21	22	2
31	31	5
55	61	4
29	30	5
73	76	4
6	24	3
46	48	5
21	21	6
11	13	2
61	62	3
68	85	1
25	26	3
9	79	1
3	5	1
72	72	2
8	13	2
25	61	1
7	49	2
65	83	1
77	80	2
26	27	6
60	64	2
85	86	3
3	14	2
62	65	5
71	80	2
10	53	1
8	8	2
56	59	1
19	20	2
18	19	2
4	5	5
12	13	1
81	82	3
72	74	3
31	32	2
63	64	1
6	8	1
71	78	1
0	1	1
63	79	2
13	13	9
18	23	3
57	67	2
17	33	1
77	78	2
23	69	4
23	24	2
48	51	3
22	22	6
6	76	4
22	67	1
17	49	5
6	77	2
84	85	1
16	80	1
17	19	2
69	71	2
81	83	7
72	79	3
32	32	3
8	19	3
50	52	3
20	20	3
51	56	1
31	58	1
66	70	1
19	31	2
8	24	2
19	49	1
57	75	3
48	49	1
49	80	1
34	48	1
65	66	2
24	27	2
66	75	1
76	81	3
60	61	1
20	48	1
14	51	1
56	57	2
55	56	1
69	86	1
63	82	2
28	30	1
57	61	2
5	17	1
63	65	1
8	15	1
12	23	1
5	52	2
12	19	1
74	75	1
89	90	1
24	24	3
49	66	2
76	78	1
64	79	1
24	71	1
31	62	1
51	58	1
17	79	1
35	35	1
10	11	1
