105	106	3
127	133	2
15	15	3
77	77	10
63	64	5
50	51	7
97	97	17
24	40	1
115	123	6
8	8	3
140	141	1
98	104	2
84	84	10
6	6	12
48	49	4
78	97	1
107	108	2
136	138	3
83	84	1
136	136	10
21	21	11
33	33	7
72	73	2
117	118	6
88	88	2
62	68	2
40	40	6
109	109	2
10	10	5
91	95	3
5	5	9
145	145	7
123	126	5
110	110	13
85	86	2
114	114	5
7	8	6
81	82	8
141	142	8
68	69	7
124	124	2
50	50	9
149	149	6
118	149	2
121	121	4
140	140	6
27	27	6
33	35	2
49	49	3
143	143	10
9	10	5
44	44	11
53	53	12
27	28	6
30	30	5
116	120	4
81	81	9
101	101	4
98	108	4
127	149	1
12	12	7
103	103	4
70	70	4
85	89	2
46	46	16
107	107	3
94	94	7
80	80	6
127	127	10
106	106	6
0	0	3
34	39	3
25	27	5
86	94	7
123	130	2
129	129	6
128	128	5
96	97	4
127	143	1
144	144	4
158	158	9
115	115	6
147	147	6
87	88	1
134	134	6
54	132	2
66	95	1
73	73	12
116	117	1
154	154	1
89	90	1
91	155	2
45	45	2
109	114	7
34	35	3
7	151	2
25	25	4
93	93	12
38	39	1
100	100	10
29	30	4
47	47	4
124	125	4
1	1	3
78	96	1
116	116	2
70	71	4
39	39	16
52	67	4
96	96	5
90	148	1
128	130	2
83	85	4
52	54	2
0	1	5
90	90	7
35	37	4
10	22	4
108	118	2
123	129	1
125	153	2
22	22	3
31	31	6
26	26	5
48	48	5
109	110	1
62	67	3
151	151	1
14	14	6
4	81	1
125	137	2
33	64	5
55	55	3
142	145	1
126	126	2
54	54	1
119	119	1
35	39	1
121	122	4
24	24	7
141	141	11
132	132	10
74	74	2
90	153	2
144	145	5
15	31	6
48	142	5
37	37	4
13	13	4
1	29	3
36	37	7
97	98	5
37	41	1
69	70	1
90	96	4
86	86	9
102	102	1
90	156	1
140	142	1
66	131	2
139	139	2
113	113	2
2	2	5
129	130	4
120	120	4
135	135	2
138	138	4
156	156	7
139	142	1
50	90	3
45	46	2
10	11	2
155	155	6
75	75	4
133	134	2
108	108	7
83	86	3
125	125	5
52	53	7
137	137	4
38	38	1
3	4	10
15	21	1
12	22	1
117	120	1
130	130	6
17	17	9
122	122	4
20	20	5
77	78	2
72	72	2
18	18	4
149	155	1
76	79	2
92	94	2
91	103	1
112	112	3
118	119	5
3	12	4
95	95	4
86	89	2
49	156	2
87	87	9
144	155	2
123	123	8
104	104	5
112	118	2
65	65	9
2	3	5
125	126	3
64	64	3
71	71	4
15	16	3
111	112	1
23	23	2
50	156	2
14	15	1
124	129	1
154	155	4
66	70	1
66	71	1
92	92	5
42	42	7
108	122	1
29	29	4
152	152	2
51	52	2
146	146	4
36	36	3
118	122	1
157	158	2
37	50	1
141	144	1
130	134	1
94	100	1
123	124	4
82	82	4
48	53	2
38	43	2
110	111	2
110	114	1
147	148	3
117	117	2
69	71	3
133	133	1
87	132	1
124	143	2
110	115	2
119	120	3
84	85	1
22	24	1
19	19	1
153	153	3
22	23	3
111	111	6
148	148	1
114	156	1
78	79	3
155	156	2
126	127	1
107	111	2
132	133	1
146	153	2
62	62	1
26	27	2
8	11	1
150	150	3
8	10	1
105	105	1
20	21	1
44	65	1
114	144	1
43	82	1
136	137	1
68	68	2
157	157	3
28	34	5
142	142	2
139	140	1
128	129	3
4	5	1
85	85	1
73	94	1
30	36	1
35	38	2
88	89	1
146	148	2
50	53	1
138	139	1
69	123	1
99	99	3
66	66	1
144	150	1
142	143	3
1	2	1
65	66	1
132	134	1
44	45	1
13	14	3
122	123	3
42	43	1
78	103	1
83	97	2
11	11	1
31	32	1
131	131	1
42	133	4
137	142	1
149	150	1
76	80	1
41	41	1
118	118	5
98	98	1
128	143	2
11	56	1
67	71	1
3	3	1
39	54	1
137	138	1
29	156	1
89	89	1
56	56	1
24	94	1
45	47	1
13	15	2
9	9	2
6	7	1
114	115	1
121	134	1
46	47	1
137	141	1
33	34	1
18	122	1
147	154	1
52	52	1
93	98	1
90	121	1
48	131	1
99	100	2
11	12	1
115	116	1
25	35	1
