84	85	2
15	15	5
79	79	8
48	48	3
34	36	1
41	41	7
45	46	2
77	77	5
51	98	2
34	34	4
5	5	4
14	14	5
13	14	1
38	38	4
127	130	1
72	72	7
82	82	4
3	3	8
91	91	2
120	120	5
129	129	3
116	132	1
22	29	4
75	76	3
90	90	6
11	11	7
27	27	3
42	42	1
28	80	1
132	133	2
12	17	1
41	81	3
21	58	3
74	74	5
85	85	3
10	10	1
22	22	2
60	60	3
93	94	6
117	117	5
65	65	7
38	42	1
4	42	3
23	25	2
21	37	1
47	47	8
120	121	5
71	71	4
115	115	3
19	19	3
94	102	2
37	40	1
101	101	4
112	112	7
20	61	4
9	9	4
2	3	2
12	12	8
105	105	4
13	13	4
44	46	4
62	62	7
26	34	3
20	20	4
8	8	3
27	79	3
58	58	2
47	74	1
85	89	2
86	86	6
107	108	3
44	44	4
84	89	1
70	70	4
62	72	1
46	93	2
55	55	3
111	111	2
25	25	4
73	74	2
31	32	6
19	20	3
98	100	2
10	11	1
97	97	3
44	45	1
73	82	2
35	35	9
119	119	2
23	23	5
1	2	2
30	30	6
15	19	1
68	68	7
80	80	6
110	123	1
29	48	1
21	21	1
100	100	3
66	66	2
81	81	8
69	69	5
6	6	7
24	25	3
41	42	5
91	93	1
46	68	2
7	96	3
64	64	3
122	122	1
84	84	4
80	82	3
63	63	2
109	109	4
61	61	2
12	15	3
22	25	3
9	10	4
90	91	2
110	110	2
16	16	3
48	97	4
33	33	10
43	43	4
99	99	4
4	93	2
132	132	2
29	29	7
45	45	2
26	27	2
45	94	2
32	77	2
123	123	1
17	18	1
14	19	2
118	118	1
83	84	2
13	95	1
20	38	2
26	26	1
70	71	6
42	81	2
113	115	1
57	57	1
39	41	2
87	87	3
39	81	1
78	81	4
0	0	1
17	17	4
6	133	1
18	19	2
49	128	1
91	92	4
4	43	1
109	110	1
81	89	2
48	93	1
75	75	6
44	94	1
43	113	1
56	78	1
104	104	4
27	74	2
100	107	1
89	89	2
95	95	1
29	35	1
92	94	1
25	47	3
82	83	2
125	125	2
7	78	1
94	94	4
67	67	6
3	96	3
24	24	1
98	98	4
102	102	1
4	28	1
4	4	9
74	76	1
78	79	1
4	5	3
92	92	4
18	18	1
117	118	1
44	60	1
115	132	1
5	6	2
85	131	1
88	88	1
90	92	1
6	94	2
78	78	3
79	80	5
21	22	1
112	113	2
68	69	1
39	40	3
25	36	1
61	62	1
49	49	2
76	76	4
33	34	1
23	36	1
116	116	1
38	81	3
6	93	1
37	37	1
68	118	1
100	101	1
71	72	3
11	26	2
128	128	1
29	78	1
126	127	1
83	83	2
38	40	1
35	36	1
37	76	1
46	46	2
40	42	1
59	59	2
4	55	1
11	64	1
4	11	1
127	127	2
58	59	1
40	40	1
113	113	1
93	93	2
69	70	2
35	65	1
112	130	2
114	133	1
103	104	2
59	60	1
27	29	1
96	97	1
113	114	1
