99	99	22
25	25	5
86	86	5
79	79	1
53	53	6
20	20	22
15	15	24
138	138	6
34	40	1
25	26	6
40	40	10
68	77	7
71	71	12
37	37	11
121	121	5
42	42	9
23	30	2
72	95	1
106	107	9
10	10	6
100	100	10
73	73	16
124	125	5
32	34	6
40	41	3
57	57	17
22	22	17
80	80	1
128	128	10
55	55	12
9	9	14
39	39	18
39	46	1
132	133	4
32	32	9
103	103	5
13	13	14
48	48	14
122	122	14
127	132	2
77	79	8
15	16	5
28	29	11
95	97	3
73	74	6
19	19	11
11	11	16
24	24	18
119	119	11
40	45	7
83	85	1
130	130	6
65	65	6
139	139	8
68	71	7
47	47	18
77	77	8
39	45	1
36	36	5
29	29	3
50	50	5
8	10	1
18	18	6
133	133	14
147	148	3
16	22	3
148	148	3
134	134	3
76	83	5
67	85	4
16	17	5
26	27	3
129	129	11
25	28	3
70	70	12
103	104	3
18	19	11
43	45	1
3	28	2
63	64	5
14	14	18
19	22	2
41	41	14
47	63	2
120	142	1
136	137	1
11	22	2
23	24	4
33	34	5
85	86	4
117	117	7
88	88	1
137	137	7
41	42	13
49	49	9
148	149	1
127	127	18
121	122	4
127	128	5
129	130	10
124	124	3
123	123	9
97	99	4
65	67	3
145	149	2
20	21	12
41	109	2
87	87	1
142	143	4
5	27	1
135	135	4
93	93	4
135	136	3
34	34	5
3	7	5
62	62	5
109	109	14
12	12	6
67	69	5
97	97	13
6	28	6
72	73	1
82	83	2
126	145	1
122	144	4
78	78	10
23	23	10
142	142	8
77	111	1
112	112	2
117	122	1
16	16	8
52	63	2
82	88	1
45	45	5
66	66	5
120	120	5
84	84	3
56	56	6
126	137	4
44	44	7
106	106	13
6	7	3
110	110	10
78	102	3
35	35	8
44	45	8
116	117	8
48	51	3
107	107	7
31	31	10
43	43	11
102	102	7
47	62	2
10	23	2
66	67	5
37	38	3
125	126	3
150	151	4
66	68	3
46	46	8
131	131	8
76	76	9
101	101	2
30	31	7
54	55	1
146	148	3
107	108	3
10	17	1
124	147	1
108	109	4
82	84	9
2	2	4
6	6	5
74	96	2
77	81	3
109	138	3
78	80	1
17	17	12
145	146	9
131	133	2
13	14	5
96	96	13
121	145	4
153	153	4
43	44	2
26	26	6
132	132	9
113	113	3
131	132	3
109	135	3
21	21	12
144	148	1
13	16	4
128	129	4
47	49	1
33	33	7
24	37	2
74	74	2
11	12	6
12	13	4
111	111	5
18	20	3
54	54	5
13	26	5
66	69	1
49	52	2
152	152	5
67	105	9
108	135	2
126	128	2
116	116	5
132	134	2
106	110	4
69	75	4
7	10	3
28	28	2
94	94	4
76	77	3
72	72	12
105	113	4
133	134	4
132	135	3
16	18	3
141	141	3
126	127	1
38	40	2
93	94	6
24	36	5
14	15	4
147	147	4
35	36	2
123	146	4
67	115	2
13	17	1
20	22	4
4	28	2
43	46	1
41	64	1
85	85	4
10	21	3
83	83	2
49	50	1
78	101	1
101	105	1
125	125	3
154	154	4
70	71	3
118	122	1
150	150	4
51	51	1
8	8	3
90	95	1
33	35	2
119	152	3
5	25	2
68	68	8
146	146	1
17	18	5
98	98	5
120	122	4
19	20	1
5	6	2
67	67	4
102	103	1
86	87	2
138	143	2
87	92	4
48	49	2
120	121	2
132	137	1
55	63	5
132	138	4
127	136	2
78	112	1
25	30	1
47	48	6
8	22	2
57	58	1
113	114	2
7	65	1
4	5	3
91	94	2
69	69	4
76	87	3
104	104	3
140	140	1
49	51	3
5	66	1
81	81	4
118	118	6
4	4	2
67	77	2
27	27	3
38	53	1
12	16	3
27	28	4
82	82	4
51	52	1
38	38	2
79	111	4
123	124	2
94	95	2
92	92	4
68	109	1
68	111	1
80	83	1
119	121	1
79	80	2
116	123	1
3	50	2
9	30	3
7	67	1
50	63	1
58	58	1
84	86	4
130	136	2
108	108	5
45	46	1
127	145	1
13	25	1
105	111	2
3	29	1
77	78	2
82	86	2
64	65	1
34	35	2
144	145	2
110	111	4
76	81	1
67	109	1
21	22	2
138	144	1
144	144	2
3	3	3
7	8	5
115	115	2
38	46	1
110	138	1
8	9	2
126	126	1
148	151	1
136	136	3
100	106	1
114	114	1
88	89	2
62	63	2
52	52	1
82	103	1
7	7	2
61	62	1
53	54	3
78	84	2
87	88	1
73	87	1
30	30	1
77	85	1
74	84	1
77	82	2
68	70	1
105	107	1
123	135	1
5	5	2
127	140	2
5	15	1
49	55	1
69	70	1
35	37	1
112	114	2
49	56	2
89	92	1
77	102	1
117	118	1
92	94	1
116	119	1
137	138	1
130	131	1
81	97	2
83	84	1
22	23	1
5	7	1
110	139	1
94	98	1
103	105	1
47	56	1
11	23	1
4	51	1
111	112	1
