229	231	1
203	203	16
6	9	4
145	145	8
118	118	26
35	35	14
172	178	4
34	53	2
16	67	2
76	76	10
107	107	15
63	63	22
204	204	21
183	183	22
187	215	2
213	213	12
110	110	15
186	214	1
223	225	2
211	247	5
84	84	8
178	178	4
101	101	6
161	161	14
7	8	5
228	228	4
95	95	8
204	206	1
105	117	3
94	95	5
198	200	4
238	238	11
176	177	9
187	191	2
240	240	12
81	81	11
160	160	19
233	233	12
45	46	4
191	214	2
177	177	21
248	248	18
95	116	3
52	52	16
119	119	13
170	171	9
211	211	8
87	102	1
234	234	16
46	46	11
173	207	2
34	35	2
167	167	17
202	203	7
171	171	15
37	38	3
35	38	4
183	184	3
19	19	13
11	11	10
168	169	9
87	87	9
115	115	16
90	107	2
199	199	17
170	170	8
168	168	14
45	45	10
108	236	4
72	119	1
66	66	12
45	91	1
86	87	6
156	156	8
3	3	8
80	82	7
157	157	10
202	202	8
185	185	15
55	55	9
236	236	14
233	238	2
195	195	5
56	56	22
30	31	1
171	172	9
219	219	3
160	169	1
82	119	4
173	173	11
90	90	9
184	184	28
209	212	1
104	105	5
68	85	1
85	86	8
108	109	2
113	115	2
2	4	2
72	72	6
211	240	1
151	151	9
215	216	12
59	59	5
6	6	10
162	167	1
230	231	5
88	89	7
240	247	3
169	169	18
152	152	5
51	121	2
90	106	5
79	80	4
114	115	8
5	6	6
245	245	11
67	67	13
155	156	1
43	44	7
200	200	11
214	239	2
170	181	3
159	159	12
165	166	5
191	192	4
38	42	4
222	223	9
113	113	7
219	239	2
1	37	2
60	60	9
76	77	12
71	71	4
34	41	3
219	236	3
155	155	13
181	208	1
88	88	10
112	112	20
149	182	1
243	243	12
197	197	8
150	150	19
219	240	4
88	99	2
170	183	2
145	156	1
11	12	3
163	163	12
99	99	6
198	240	2
173	178	2
69	84	2
31	32	1
79	83	3
233	234	5
186	186	29
20	20	18
29	30	2
57	57	11
112	244	4
9	9	25
165	165	21
144	144	2
237	237	7
81	82	2
228	229	3
207	229	2
55	56	8
217	217	17
239	239	9
79	79	6
27	27	11
237	238	4
18	19	9
109	109	9
42	43	3
44	44	15
54	58	2
216	216	8
26	26	4
54	54	7
87	88	8
108	117	5
175	177	3
166	166	14
176	176	7
47	47	18
225	225	10
182	182	11
160	163	4
233	236	3
218	218	22
117	117	11
5	51	3
98	98	3
190	190	9
231	231	15
24	25	4
226	226	5
14	15	3
25	25	9
8	9	12
95	98	1
195	196	5
200	205	1
29	48	2
50	50	3
154	154	20
209	237	1
37	37	8
10	25	1
184	190	6
62	62	9
196	197	3
34	34	6
106	108	2
232	233	4
12	12	11
223	232	1
49	144	4
244	244	17
109	110	4
61	72	2
163	165	1
229	229	6
27	155	8
49	76	3
97	118	6
221	222	17
208	210	5
50	53	2
162	162	11
235	235	10
91	91	9
187	187	15
111	111	14
116	116	7
180	181	3
161	162	5
68	68	11
226	228	2
70	70	8
154	162	5
1	2	3
206	207	2
63	64	3
57	60	1
199	200	4
85	85	14
170	216	1
70	71	4
147	152	2
201	201	20
197	198	7
31	31	13
5	5	3
223	223	6
158	159	8
149	149	6
32	35	2
215	215	12
97	101	3
164	166	4
61	62	5
205	206	9
78	78	10
236	238	6
114	114	12
5	119	2
5	112	5
72	74	5
112	119	4
193	193	9
236	237	4
65	65	17
111	113	2
247	247	11
222	222	9
100	100	5
164	165	4
244	245	1
44	45	3
32	32	12
62	70	1
158	158	17
20	21	6
180	180	22
219	248	3
35	156	2
65	66	8
168	170	2
77	77	12
16	16	9
67	92	3
169	170	4
31	74	1
41	43	1
166	171	2
176	222	2
81	96	3
161	212	5
218	220	5
174	174	8
68	70	2
74	74	6
24	24	15
238	240	1
181	190	3
33	33	2
97	100	2
82	82	4
99	101	5
118	179	1
29	29	8
89	89	12
30	75	4
96	96	8
205	205	13
40	43	2
242	244	3
232	236	1
196	196	4
6	7	5
56	57	7
191	213	8
216	217	3
208	208	4
152	159	2
207	207	11
104	104	5
60	61	2
18	21	2
53	54	3
194	195	4
172	172	5
153	153	15
99	100	1
76	78	2
175	176	6
230	230	6
94	120	1
207	225	1
177	223	1
221	224	1
189	189	8
220	236	1
94	94	8
216	218	2
49	198	5
190	209	4
181	181	6
39	41	1
165	167	2
221	232	1
222	224	6
192	193	1
162	211	3
176	192	3
169	171	1
214	214	8
31	52	1
74	93	1
224	229	2
53	53	3
35	47	1
100	101	8
1	15	2
197	241	4
35	36	4
118	120	1
87	100	2
27	28	2
30	76	3
210	210	9
212	212	8
108	108	4
98	101	4
10	199	1
184	185	4
7	7	12
10	11	3
187	214	5
226	227	2
107	112	1
210	240	2
66	67	2
240	248	4
11	25	2
10	10	8
111	243	1
30	30	5
218	219	5
225	226	4
184	224	2
227	227	7
58	58	2
191	191	12
1	1	5
38	38	6
92	92	11
246	246	14
8	8	9
30	49	1
105	105	5
185	186	4
171	190	2
180	190	2
80	80	1
162	176	2
72	73	5
171	192	4
210	211	8
74	77	4
15	67	1
15	15	7
64	65	11
232	232	17
221	221	6
37	48	2
76	79	1
184	208	2
15	69	2
238	239	11
224	244	2
164	164	3
152	153	5
97	98	5
161	165	1
210	248	1
29	78	2
112	113	1
75	75	7
76	180	2
206	206	5
84	85	2
177	178	3
175	175	11
242	242	15
54	79	3
101	104	4
213	214	7
150	151	3
78	79	1
112	116	4
72	76	1
181	187	2
65	186	1
22	23	2
152	157	3
157	158	7
1	3	2
110	112	1
69	71	2
4	4	5
61	75	3
208	209	5
231	232	2
14	14	4
171	219	1
28	28	7
61	61	5
34	38	3
5	34	4
67	91	3
72	78	2
89	90	1
209	209	7
18	18	5
78	109	1
246	247	4
112	183	5
203	231	3
20	37	3
29	43	5
71	72	3
64	64	6
21	26	1
164	170	4
69	69	8
86	86	8
115	117	3
23	23	3
193	195	4
49	49	5
182	183	4
4	14	2
46	78	5
105	106	3
177	184	1
173	179	1
6	46	1
151	152	7
71	119	1
114	116	6
65	71	1
48	49	1
36	36	9
211	243	4
38	39	1
188	188	5
162	163	1
79	82	3
210	213	1
198	199	6
229	234	2
181	218	5
153	154	3
188	214	1
231	233	3
241	242	4
24	28	1
3	34	2
171	208	3
3	4	1
152	154	4
73	74	3
146	169	1
32	33	4
217	239	2
147	147	6
190	191	4
95	96	3
41	41	6
119	120	1
48	48	7
212	213	4
4	5	4
53	55	1
193	194	11
21	21	6
57	58	7
229	230	6
96	97	4
192	194	2
245	246	11
166	181	2
66	89	1
155	197	1
164	237	2
192	192	5
30	61	3
184	191	2
77	78	7
208	237	1
43	43	6
97	97	3
168	171	4
178	185	1
165	171	6
68	69	2
214	225	1
49	83	1
64	68	3
95	99	1
211	213	2
226	243	1
93	93	4
192	213	4
234	235	3
58	59	2
167	168	3
67	68	1
211	212	1
120	120	6
93	94	1
4	6	2
154	158	2
106	107	1
190	213	2
234	236	1
149	151	2
70	93	1
205	207	1
179	180	1
109	245	1
165	212	2
33	66	2
52	54	2
181	183	2
213	239	1
183	191	1
17	17	3
117	245	1
163	175	1
15	16	1
111	112	3
103	103	8
88	100	1
14	112	3
91	93	4
33	35	1
91	92	3
110	247	2
3	5	1
102	102	5
244	247	1
146	147	2
15	111	1
34	85	2
196	198	2
56	58	1
89	93	1
113	114	9
39	42	1
150	159	3
224	247	1
48	50	1
52	62	1
69	86	1
178	179	3
51	51	7
194	196	3
167	234	3
35	81	1
224	224	4
227	228	2
118	158	1
61	71	2
177	214	2
29	51	2
58	227	1
187	189	1
6	8	1
118	119	2
117	118	6
188	225	1
165	176	1
166	168	2
172	173	6
77	79	3
92	102	1
244	246	3
172	197	1
62	72	1
166	169	2
59	60	4
215	240	1
158	160	2
83	83	1
75	79	1
102	104	4
207	249	1
31	76	4
220	220	3
40	42	1
191	209	1
188	215	4
78	80	1
180	202	2
166	177	2
168	178	1
63	71	1
114	119	3
159	160	1
50	51	5
77	85	2
113	116	1
6	33	3
108	111	1
41	180	1
182	184	5
191	193	2
115	116	4
90	91	3
31	51	1
163	164	4
8	155	1
29	32	1
110	240	2
106	106	6
27	45	2
74	76	3
0	0	2
69	120	1
230	232	2
173	216	1
21	23	1
23	24	2
214	238	2
120	157	2
210	238	2
198	198	1
230	235	1
203	204	2
78	83	2
30	74	2
14	60	1
239	248	1
110	237	2
162	226	3
23	26	3
49	199	2
225	246	1
179	179	3
241	241	9
86	88	2
69	70	4
227	230	1
100	112	1
164	172	2
24	26	1
181	182	2
34	42	1
59	74	1
161	169	1
220	221	2
166	192	2
52	53	2
112	241	2
98	99	3
110	111	2
92	93	2
111	236	1
218	247	2
163	174	1
224	225	2
100	102	1
71	73	1
95	97	1
151	154	2
34	47	2
27	33	1
158	230	1
236	239	3
6	53	1
2	34	2
75	76	2
88	91	1
32	41	1
86	103	1
90	108	1
6	26	1
109	117	1
25	26	2
113	117	1
39	40	1
94	98	2
207	224	1
239	240	2
73	156	1
169	172	2
207	236	1
14	119	1
214	215	1
194	194	3
19	20	3
22	25	2
174	175	2
174	192	1
2	2	2
36	52	2
46	47	3
117	190	1
5	43	1
10	13	1
192	195	1
149	180	2
92	108	1
73	73	1
209	210	1
15	30	2
226	229	1
10	14	1
240	241	3
209	211	1
29	31	1
90	104	2
211	248	1
34	48	1
171	186	1
197	236	1
2	5	1
46	58	1
44	52	1
163	168	1
25	77	2
193	199	1
68	86	1
60	85	1
205	235	3
247	248	1
40	40	1
96	101	1
184	188	1
5	35	1
59	61	1
21	67	1
98	102	1
58	60	1
57	59	2
34	82	1
96	103	1
22	22	3
44	78	2
87	103	2
177	217	1
188	189	3
22	59	2
29	59	3
174	176	2
28	29	1
195	197	1
147	150	1
111	118	1
96	98	2
63	67	1
72	158	2
199	205	1
165	169	3
155	196	1
86	102	1
200	237	1
71	157	1
164	213	1
205	224	1
68	88	1
176	219	1
2	70	2
67	161	1
109	111	1
120	186	2
190	194	1
96	119	1
160	161	1
93	117	2
2	3	1
16	63	1
197	199	1
156	157	1
163	211	1
166	167	1
163	166	1
172	219	1
39	39	1
161	176	1
35	51	1
75	80	1
76	80	1
72	85	1
11	202	1
242	243	1
168	172	1
26	32	1
37	42	1
221	223	1
83	84	1
28	156	1
242	247	1
191	210	1
149	213	1
55	57	1
215	218	1
211	241	1
54	55	1
163	170	1
36	38	1
185	187	1
177	188	1
113	193	1
211	215	1
185	189	1
82	83	1
176	178	1
168	174	1
153	157	1
14	61	1
101	112	1
223	233	1
75	107	1
32	46	1
