120	120	12
69	69	13
190	193	3
194	194	30
167	167	26
10	10	32
68	114	2
126	126	11
149	150	8
171	172	23
148	148	27
45	46	7
176	177	2
62	62	8
52	52	22
64	65	7
30	32	3
116	118	3
20	20	11
34	34	11
173	175	7
135	135	14
99	99	13
195	195	28
104	104	12
3	21	4
152	153	2
122	122	28
61	62	8
12	12	30
130	130	16
46	51	8
140	140	13
100	111	2
136	136	27
54	59	6
158	158	16
152	152	15
174	174	22
172	172	37
155	157	3
58	69	5
9	9	28
141	141	14
30	30	18
127	127	16
173	173	27
36	36	17
12	13	5
3	3	14
7	8	12
183	183	43
134	134	20
5	7	7
188	188	23
143	143	16
134	135	12
140	165	2
47	47	41
108	111	3
171	171	29
178	184	4
188	196	6
16	23	1
10	11	8
28	55	5
7	7	18
160	165	2
38	38	19
124	124	38
175	175	11
169	170	10
31	31	13
174	176	27
43	44	23
4	4	26
13	14	8
14	14	21
51	51	17
125	126	9
18	18	12
153	153	20
48	49	4
188	189	13
196	196	31
146	148	4
184	185	5
156	160	2
194	196	5
0	0	15
24	29	4
101	101	15
123	135	4
177	177	24
11	11	12
97	97	18
94	94	10
143	145	1
84	85	2
144	159	6
197	197	15
5	6	2
139	139	12
57	57	25
28	28	16
185	185	26
48	51	2
170	170	16
142	142	23
44	44	20
4	5	10
159	159	22
121	121	15
17	17	6
136	141	8
138	139	6
164	165	8
71	72	7
123	134	2
104	135	1
109	109	7
45	50	1
168	187	9
146	149	5
5	5	13
1	1	13
24	102	3
154	180	7
129	129	21
180	181	8
46	46	18
187	187	28
147	147	7
105	106	9
42	42	28
34	36	4
35	35	3
124	125	7
41	41	8
156	159	1
180	191	5
132	143	4
151	151	11
196	197	7
118	118	14
121	136	2
67	68	4
157	157	14
120	121	3
114	114	28
157	158	6
155	155	6
178	185	6
45	45	19
50	50	10
51	53	6
49	50	6
147	154	2
121	122	9
163	164	22
54	54	14
78	78	22
147	148	16
55	55	6
56	56	22
113	113	9
8	31	1
30	101	2
169	169	28
5	8	3
181	181	16
111	111	5
150	150	19
176	176	19
95	96	6
53	53	21
27	28	2
179	179	14
16	16	4
171	187	7
115	130	3
26	26	25
100	101	3
107	111	1
182	183	9
191	192	6
104	105	1
100	100	9
24	24	13
153	155	3
145	145	16
39	39	7
8	8	14
148	149	7
16	17	2
189	196	1
154	154	17
125	125	9
149	149	20
96	96	10
127	138	2
124	196	4
162	163	7
35	63	1
4	53	3
182	182	17
72	72	19
49	49	35
142	148	2
63	69	4
181	182	9
159	163	4
161	163	2
34	62	5
70	70	12
58	58	26
28	30	5
84	84	10
119	172	3
178	178	14
146	146	8
189	189	13
189	194	4
175	176	3
4	52	4
13	13	29
101	104	2
187	188	9
173	174	4
62	141	1
22	22	10
30	31	10
132	133	3
168	168	20
37	38	4
183	184	9
142	144	7
59	59	14
187	189	2
32	32	20
101	102	6
144	145	3
184	184	7
81	81	4
132	134	2
84	87	3
138	141	2
164	164	13
19	22	3
178	180	2
145	185	3
166	166	14
95	95	11
108	108	9
7	20	3
82	83	3
133	134	9
137	137	14
188	197	3
128	128	15
148	154	1
35	46	6
129	131	6
65	65	4
165	165	21
195	196	12
28	29	8
116	116	6
51	58	3
160	169	2
47	49	1
154	159	3
119	119	20
36	45	2
36	55	4
193	193	28
83	89	4
110	112	2
112	112	16
119	120	10
60	126	3
105	108	7
183	186	3
67	67	1
191	191	18
38	39	4
163	163	8
2	42	3
19	19	7
32	119	3
56	63	6
178	179	13
187	197	4
156	156	8
153	154	7
190	190	19
57	58	6
48	48	34
25	30	1
79	130	8
133	133	21
4	10	10
103	103	12
102	103	12
162	179	1
49	52	3
76	76	17
15	15	32
106	106	8
103	105	2
142	159	6
56	57	4
113	114	3
15	20	5
81	82	6
59	80	1
159	160	8
158	159	8
166	167	7
120	122	4
109	130	1
85	86	4
25	25	8
36	41	6
160	161	2
32	50	1
110	110	13
125	184	4
138	140	14
105	105	12
66	66	1
124	171	10
165	166	9
124	134	1
61	61	4
53	56	1
165	186	1
172	189	10
186	186	22
161	161	7
0	1	3
93	105	1
79	80	6
29	29	9
170	171	12
162	162	4
15	16	3
54	70	5
43	43	10
90	90	3
34	57	2
62	137	3
145	151	3
45	57	2
110	119	3
1	4	8
165	167	10
152	167	1
19	21	2
22	23	9
73	76	1
131	131	6
68	113	4
36	53	2
36	37	9
37	39	5
124	184	2
35	36	11
48	53	4
17	19	2
127	128	3
39	40	7
154	194	1
12	15	5
172	187	1
153	179	6
185	196	1
29	53	4
126	127	5
116	117	1
40	40	3
166	173	2
181	191	3
194	197	3
158	165	4
60	131	4
4	15	3
179	182	2
114	138	5
109	115	2
93	93	2
21	26	3
51	54	2
37	37	14
41	42	5
16	24	7
86	87	4
35	41	2
10	58	2
151	152	10
151	183	2
143	146	5
153	194	1
20	24	3
32	53	2
139	140	6
8	22	7
77	78	10
125	171	2
113	115	6
71	73	1
87	87	7
59	130	3
6	6	7
151	154	5
128	129	5
185	186	8
154	171	6
115	115	9
58	59	5
98	98	4
5	40	1
26	28	1
74	74	8
130	133	2
187	196	8
106	107	2
33	35	2
165	169	2
190	192	2
136	146	3
108	117	2
179	180	11
107	107	1
1	53	11
89	102	4
160	160	11
59	65	3
139	144	1
144	148	4
102	102	7
172	173	1
11	14	2
174	175	2
31	54	4
141	142	2
158	166	3
79	79	5
25	26	3
44	45	4
66	138	1
30	117	2
24	31	2
122	123	2
107	108	6
119	121	2
109	171	2
4	19	2
161	162	11
99	135	1
74	75	8
6	7	3
59	61	4
144	144	1
83	85	2
192	192	9
127	129	4
69	70	2
50	52	4
56	58	1
142	145	3
27	27	4
161	165	3
111	129	2
170	193	2
110	169	2
146	147	4
127	133	1
138	138	7
50	51	3
170	196	2
50	54	3
176	179	2
171	184	3
54	58	2
104	107	1
29	55	1
11	12	1
134	136	2
50	53	1
180	180	8
86	86	5
33	33	9
68	68	8
121	124	3
143	153	1
88	88	8
107	109	2
137	138	1
109	110	4
143	181	1
73	73	5
21	22	5
187	191	2
117	118	3
123	123	4
105	109	2
47	48	6
75	77	1
64	73	4
12	156	4
109	118	4
4	23	2
148	157	1
141	149	3
177	178	3
176	188	3
80	80	3
177	180	2
56	69	1
70	122	1
117	117	7
81	132	2
83	86	3
145	148	2
9	10	4
40	41	3
104	157	1
62	68	2
42	150	1
88	90	2
42	43	2
66	69	3
169	189	1
117	119	4
13	15	3
59	60	2
4	14	4
106	159	1
100	110	1
9	41	2
28	31	3
5	10	1
150	184	4
118	119	2
39	42	3
114	115	4
43	51	1
7	21	1
48	50	1
97	139	1
158	173	2
32	41	3
122	141	1
110	111	2
166	169	2
18	21	1
29	43	6
146	184	1
165	170	3
54	66	6
130	140	4
136	137	2
9	26	3
63	63	4
156	158	1
119	122	2
156	157	2
130	131	2
31	32	4
5	30	2
143	144	3
25	27	1
190	191	3
177	187	3
108	134	1
142	153	2
141	164	1
29	30	2
81	103	5
68	69	1
137	165	1
1	20	1
147	149	3
11	156	2
66	134	1
163	187	1
57	127	3
153	168	1
12	57	2
15	182	1
53	54	5
167	169	2
106	155	1
74	82	2
52	53	3
43	47	2
77	80	3
71	71	8
145	184	2
18	30	2
51	57	1
10	68	1
194	195	3
67	139	4
76	77	2
106	108	2
23	24	2
139	147	3
103	136	2
83	83	2
2	3	5
23	23	5
113	173	2
131	137	2
146	158	3
161	190	2
61	126	1
9	197	3
142	143	1
158	160	2
64	74	1
6	31	1
85	89	1
33	119	2
33	37	3
53	58	1
155	156	3
34	35	5
168	170	2
10	155	3
6	26	3
161	184	1
176	178	1
25	31	2
133	139	1
73	75	2
20	21	2
171	177	1
132	132	2
5	50	1
38	116	1
63	139	1
93	97	1
10	53	1
189	191	1
54	55	3
4	13	2
85	85	3
157	169	1
113	116	3
77	79	1
170	172	2
154	155	1
64	68	1
12	27	1
141	169	1
149	152	3
173	176	3
24	26	1
70	71	1
14	15	1
34	40	1
132	135	1
125	127	1
131	144	1
76	80	1
166	168	1
4	25	1
154	184	1
133	135	1
138	185	1
172	175	2
139	186	2
19	20	1
39	41	1
105	110	1
137	140	1
108	109	2
102	136	1
111	112	1
62	136	1
193	194	1
62	126	1
34	39	1
33	122	1
100	103	1
93	94	1
97	98	1
52	58	1
115	129	1
5	34	1
5	27	1
136	139	1
1	42	1
177	186	2
155	166	1
149	155	1
30	54	1
53	71	1
163	188	1
152	154	1
30	55	1
187	190	1
106	110	1
149	180	1
172	174	1
65	67	1
61	63	1
69	139	1
102	104	1
37	54	1
53	70	1
110	117	1
144	160	1
3	4	1
153	159	1
169	171	1
5	25	1
33	34	1
117	121	1
110	133	1
64	64	1
145	147	1
189	190	1
51	52	1
