128	144	3
95	98	2
64	72	5
76	80	2
138	151	2
164	167	2
114	140	3
61	62	3
111	115	7
103	114	2
124	128	2
154	156	3
101	110	2
15	37	2
117	118	1
75	86	2
77	79	5
108	111	1
84	87	2
34	35	3
138	138	3
80	82	1
87	118	3
92	94	5
40	47	3
88	93	2
0	3	3
40	42	2
9	9	7
54	58	3
62	62	4
141	141	11
7	7	1
139	139	5
133	141	2
136	137	3
11	16	2
105	105	3
87	106	2
42	42	2
7	11	2
37	38	1
162	166	4
134	147	3
34	37	1
129	133	4
62	76	6
118	119	2
85	88	2
23	28	1
38	48	2
42	43	3
127	139	2
1	10	3
11	42	3
20	23	3
156	167	1
153	154	2
69	69	6
8	11	3
54	57	4
137	157	4
88	88	4
168	168	4
108	108	5
72	103	1
70	70	3
72	91	4
97	98	3
105	115	2
6	8	2
41	43	1
126	127	3
144	144	3
150	150	1
25	25	3
114	115	4
131	140	3
17	50	1
157	157	5
106	113	4
134	138	1
84	86	2
23	25	4
24	24	6
84	84	6
102	110	3
100	106	1
80	80	1
106	111	3
12	42	3
94	96	1
124	126	3
82	88	5
89	92	1
80	83	3
14	16	4
121	124	4
92	106	6
108	126	3
19	19	3
76	85	2
152	152	2
117	129	1
18	20	3
163	166	3
113	114	2
107	142	5
53	65	3
162	164	3
49	50	3
143	145	3
81	81	1
70	115	2
53	56	1
115	116	2
134	137	1
137	140	2
101	103	2
85	100	5
70	89	3
105	106	3
116	144	2
138	150	1
159	161	2
101	115	6
15	20	1
110	113	5
164	169	3
157	159	3
139	141	2
52	53	5
3	38	1
107	112	2
115	115	1
76	79	1
131	139	1
63	64	3
88	92	1
148	153	4
109	110	1
162	168	1
53	54	2
150	154	2
17	26	2
144	162	2
44	45	4
122	132	2
76	83	3
140	140	6
85	87	4
46	48	2
16	16	5
97	100	3
99	99	7
20	20	5
41	72	2
90	90	4
160	163	1
67	67	2
6	6	3
102	108	2
117	122	1
135	135	1
1	38	1
82	93	1
107	107	2
68	88	2
143	144	2
149	152	3
102	102	2
149	151	3
84	89	2
1	1	3
154	160	2
2	2	1
138	157	2
13	13	2
43	45	2
7	16	1
38	38	3
45	49	6
94	97	2
107	108	2
91	93	1
13	157	3
78	79	2
79	79	4
23	26	2
6	13	4
156	157	1
72	75	2
19	23	1
112	113	3
115	157	1
137	146	1
154	168	2
56	57	2
149	160	2
78	80	3
11	11	2
86	86	3
7	8	4
159	159	1
73	74	2
48	54	3
86	89	5
127	135	2
46	47	2
123	124	2
126	126	3
133	133	6
116	118	2
104	105	2
99	103	2
83	85	4
62	75	2
47	47	4
27	27	4
97	121	5
142	149	1
101	108	1
9	114	3
72	108	1
76	77	1
20	21	1
84	85	3
159	163	4
36	40	1
52	56	3
77	78	2
112	112	2
68	68	2
77	77	3
106	112	1
103	103	6
140	141	3
148	150	2
77	81	1
128	130	1
4	7	1
136	141	3
21	22	3
120	155	1
127	129	1
74	77	7
34	34	1
92	96	1
69	70	3
78	78	1
157	160	1
15	15	1
116	117	1
64	64	1
5	7	3
93	94	3
42	46	2
69	83	1
110	121	1
70	73	1
66	73	2
125	141	1
123	142	2
97	97	2
130	144	1
153	156	1
155	161	2
75	78	2
49	49	3
89	90	1
109	133	1
76	97	3
123	125	1
43	44	2
63	73	1
154	154	1
109	109	2
156	169	1
56	74	2
127	127	1
71	116	1
0	1	7
131	134	1
130	169	2
102	103	1
42	44	2
18	18	2
120	125	1
114	122	4
10	10	2
41	63	3
105	107	2
43	43	1
85	90	3
73	76	2
108	113	1
123	127	1
148	151	2
81	82	3
162	170	1
83	83	2
5	6	2
143	165	1
35	39	1
108	135	1
80	84	2
136	136	2
26	27	2
142	142	2
23	24	5
151	151	1
22	58	1
68	76	2
43	53	2
134	134	3
90	96	1
0	0	3
108	110	1
106	133	2
146	150	1
153	167	1
14	15	1
66	66	2
4	10	4
146	152	2
39	43	1
72	72	1
46	46	2
89	89	3
162	162	1
75	76	2
62	70	4
63	82	1
88	89	2
71	71	1
80	85	2
101	106	1
1	4	3
120	123	3
105	111	1
129	131	2
57	65	2
28	28	1
79	83	1
100	103	2
9	35	1
158	159	1
21	52	1
111	130	1
82	96	1
164	166	1
162	165	1
113	113	1
125	127	1
100	100	1
149	149	2
15	17	1
162	163	1
13	18	1
22	36	1
130	131	1
147	152	1
69	82	2
138	139	1
141	145	1
15	19	1
98	99	2
85	89	1
165	170	1
61	67	2
126	142	1
160	160	2
144	148	1
99	107	1
37	37	1
54	56	1
101	104	1
12	39	1
152	165	1
129	129	1
134	135	1
78	81	2
102	107	2
3	3	1
22	22	1
102	117	1
107	157	1
163	165	2
81	89	1
82	82	1
163	167	1
43	49	1
110	112	1
2	8	1
109	112	1
104	104	1
20	22	1
49	57	1
27	28	1
12	14	1
161	161	1
126	136	1
98	100	2
144	147	1
35	49	1
4	6	1
13	20	1
0	11	2
159	160	1
89	91	1
