119	119	3
131	131	15
109	109	7
27	27	6
2	5	5
77	77	5
123	124	3
73	74	6
126	127	4
105	106	10
110	111	3
79	79	3
102	102	13
90	92	1
6	6	3
9	9	14
124	126	5
74	106	3
23	23	4
33	33	10
79	80	4
24	24	12
121	122	19
28	28	7
127	128	1
20	20	7
18	19	8
124	124	13
100	100	13
105	107	4
81	81	3
106	113	5
81	82	7
139	139	7
78	78	8
133	133	11
118	118	15
132	132	15
5	5	8
4	4	18
126	126	14
10	10	10
106	106	6
129	129	13
121	121	8
37	37	10
1	1	3
106	107	3
15	28	3
90	117	2
0	1	2
34	34	17
13	30	3
105	120	6
119	120	3
19	20	3
94	95	5
98	125	4
82	90	2
15	19	2
84	84	14
116	116	12
7	7	9
91	91	7
115	115	11
122	122	8
120	122	1
113	113	13
12	14	5
29	32	2
120	120	13
77	78	8
8	9	6
87	87	8
125	125	15
76	76	7
105	105	6
98	98	8
123	126	3
73	73	4
99	99	4
104	120	4
35	35	5
101	101	4
127	127	19
11	11	2
135	138	7
136	136	9
25	26	7
134	134	13
90	123	2
8	8	7
14	14	9
80	80	3
117	117	8
88	123	3
124	130	1
95	95	11
72	72	7
2	3	4
3	3	4
2	71	3
104	119	1
135	136	4
36	37	1
118	122	2
128	128	20
18	81	5
90	116	3
82	83	3
30	30	2
110	110	10
137	138	4
24	25	1
31	31	11
86	86	12
79	87	3
0	0	3
2	2	14
38	38	8
13	69	1
103	103	3
83	83	8
76	77	2
135	135	3
131	132	7
83	84	4
140	140	7
4	71	2
124	129	4
20	21	4
22	26	1
74	112	1
129	130	1
12	13	3
73	106	2
100	110	4
85	85	18
22	23	2
130	130	8
114	114	6
36	36	7
26	26	3
73	79	3
93	93	7
15	29	7
9	23	2
37	38	2
116	124	1
18	94	2
128	129	8
90	90	6
120	123	4
136	138	2
82	88	3
25	25	3
78	85	1
74	75	5
137	137	3
101	107	6
23	24	3
122	123	2
76	80	2
74	74	6
111	111	5
29	30	3
2	72	3
74	115	1
21	24	2
115	116	5
29	29	3
10	20	3
32	32	2
3	135	3
83	85	2
82	87	2
95	98	2
104	104	4
81	83	2
76	78	1
24	32	1
71	72	3
108	108	3
2	74	1
80	114	1
17	17	2
112	112	6
124	127	2
9	12	2
3	4	1
92	95	3
90	91	5
27	28	3
127	129	1
2	4	1
96	96	4
1	4	2
102	110	5
14	20	1
10	15	2
80	87	1
72	102	1
87	112	2
138	138	2
102	103	3
92	120	3
83	109	5
103	107	2
23	25	1
86	87	5
8	116	3
82	89	3
135	140	5
16	19	1
90	115	1
18	18	4
92	92	2
75	75	5
12	12	4
134	135	2
71	71	1
91	120	2
97	97	4
10	12	3
13	14	2
21	29	2
4	5	1
133	134	2
98	100	1
93	94	2
130	136	1
89	89	4
8	24	2
75	106	2
123	123	6
0	130	3
107	107	2
128	130	3
86	88	1
107	116	2
4	7	1
1	2	1
2	11	2
90	119	2
101	119	1
22	22	1
24	26	3
29	31	1
15	15	2
118	124	1
102	117	2
17	18	1
109	111	1
103	112	1
111	112	2
16	18	1
88	88	3
82	84	1
16	17	2
6	9	1
94	94	3
101	102	1
30	31	1
73	77	2
71	78	1
103	109	2
73	75	3
104	118	1
136	137	2
108	110	1
28	29	1
14	31	1
11	12	1
128	132	1
140	141	1
133	138	2
10	11	2
19	19	1
82	82	2
121	123	1
82	119	1
13	15	2
138	139	1
133	135	1
13	13	1
