3	3	2
24	27	2
71	71	2
39	39	6
140	152	2
31	31	7
98	98	2
14	14	7
179	179	1
64	64	8
155	155	5
75	75	3
95	105	3
59	59	6
68	68	4
21	21	5
81	82	5
163	164	2
18	18	4
40	40	6
48	48	5
2	2	7
32	33	3
131	131	10
161	173	1
11	24	1
60	62	1
143	144	3
136	136	5
96	96	6
111	112	3
107	108	3
7	7	6
112	112	7
10	22	4
76	76	1
46	47	5
157	179	5
110	110	3
126	126	9
156	156	4
84	85	4
47	47	3
11	11	9
4	5	3
148	148	7
16	16	11
17	19	1
86	86	6
129	129	8
123	123	4
124	124	3
85	85	5
130	131	2
173	174	7
120	120	5
10	12	1
178	181	3
177	177	7
8	8	3
122	123	5
115	153	5
107	119	2
57	78	1
99	99	10
113	113	1
60	60	5
37	37	8
82	111	1
114	129	1
69	69	2
146	146	6
65	65	6
162	162	6
83	83	2
37	93	3
97	168	3
0	0	1
180	182	3
15	15	5
22	22	5
113	178	1
33	33	3
55	55	3
43	44	3
135	146	2
84	84	11
53	53	3
19	19	1
104	105	3
66	66	4
54	71	1
62	62	3
188	188	5
41	41	7
128	128	6
27	27	3
104	104	2
10	21	1
187	187	8
18	19	2
82	82	5
29	29	5
18	126	1
122	122	3
42	44	1
10	11	4
95	95	1
58	59	2
114	114	6
154	155	1
95	100	4
31	32	2
67	67	1
186	186	3
35	36	3
147	147	3
57	58	2
73	74	3
112	132	4
57	76	2
68	69	6
44	44	5
44	46	1
131	132	3
108	110	2
24	24	1
161	161	3
143	143	1
81	81	5
28	28	6
72	72	3
32	34	1
11	12	2
144	144	3
15	16	1
5	5	4
139	151	1
30	30	5
118	119	5
87	169	2
121	121	6
42	42	2
121	154	2
93	94	2
100	100	4
158	161	1
43	43	10
13	18	2
159	159	4
183	183	5
165	165	2
118	118	1
75	85	2
154	154	3
97	97	2
151	151	2
12	13	8
126	127	3
3	5	3
111	172	2
158	159	1
90	90	1
45	45	3
103	103	1
158	181	2
157	157	3
115	151	1
133	137	1
74	79	1
139	139	1
64	65	1
32	32	2
162	165	1
13	28	3
20	48	1
63	63	5
91	94	3
149	149	4
35	35	2
137	137	1
95	96	3
67	75	1
122	156	1
121	122	4
185	185	2
29	30	4
117	153	1
158	158	1
46	46	2
97	102	1
55	56	1
129	134	2
28	29	2
116	117	1
135	154	2
190	190	2
96	105	1
153	153	7
108	108	1
30	37	2
109	143	1
117	117	2
27	47	1
117	135	1
149	150	3
10	10	1
127	141	1
159	177	1
12	12	2
53	64	1
88	88	1
127	127	3
153	157	1
160	161	1
102	103	1
169	171	1
125	125	2
134	136	1
75	76	2
25	28	3
145	153	2
110	176	3
152	153	1
163	163	2
36	36	2
142	143	3
17	17	3
85	87	1
150	150	1
77	79	1
83	109	3
79	80	1
91	93	1
105	119	2
130	130	1
78	84	2
20	64	2
20	20	1
1	2	4
34	34	1
182	182	1
128	129	1
189	189	1
145	150	1
73	73	1
11	15	1
120	185	1
114	116	1
107	107	1
96	99	2
119	119	2
115	154	2
83	111	1
84	106	1
24	25	1
12	14	2
135	135	1
33	167	2
17	18	1
136	137	1
98	99	1
105	105	1
79	79	1
147	149	1
142	187	1
75	83	1
7	129	1
115	143	1
165	173	1
142	144	1
34	168	2
184	184	1
124	125	1
103	104	1
108	186	1
0	63	1
45	46	1
