105	105	6
161	162	7
14	14	5
118	119	2
24	24	7
95	95	3
73	73	2
125	126	1
69	71	1
20	20	1
3	3	13
46	46	2
138	138	4
136	136	7
11	12	4
14	15	1
20	21	2
35	40	3
109	109	3
100	104	2
1	2	1
34	34	8
45	45	5
66	67	3
6	7	4
49	49	5
110	110	5
48	49	1
86	87	4
0	0	4
108	109	1
9	16	3
5	5	6
55	56	1
51	51	1
76	77	2
4	4	5
66	66	3
43	109	2
92	92	4
50	52	4
120	121	3
150	150	4
146	146	3
2	2	9
134	134	3
126	126	3
96	96	3
54	54	3
13	13	9
100	102	4
159	160	6
148	156	5
99	99	4
147	147	1
50	50	2
22	22	7
77	80	2
89	114	1
83	83	4
128	129	3
44	44	3
143	143	2
27	27	5
39	39	3
2	3	5
133	135	1
63	63	2
107	107	2
116	116	3
119	119	5
121	121	3
37	37	2
128	128	6
132	132	4
126	127	2
21	21	3
36	36	5
125	125	1
18	19	7
103	103	2
124	124	2
45	48	1
57	57	3
96	97	3
165	166	3
64	64	4
57	62	1
43	43	4
141	141	2
79	80	5
1	109	1
144	148	1
0	27	1
135	135	6
140	140	1
74	74	4
78	78	3
152	152	7
68	68	3
107	110	1
112	123	1
115	115	1
54	55	3
8	11	3
127	127	4
24	48	2
160	161	1
114	126	1
22	26	2
114	114	5
0	1	2
70	71	1
72	72	2
43	44	4
111	111	4
155	163	4
113	113	3
150	151	2
11	11	1
154	155	2
101	102	1
25	25	5
7	7	5
26	26	2
41	41	6
33	33	6
137	137	2
53	53	1
56	56	7
104	126	1
166	166	6
53	110	2
92	95	3
76	90	1
21	23	3
10	10	2
18	18	7
78	80	4
101	101	1
90	90	1
167	167	4
94	95	2
118	118	1
24	25	2
83	84	2
148	150	1
48	50	3
55	55	3
151	151	4
46	113	2
100	100	4
87	94	2
48	48	3
131	160	2
110	111	1
157	157	2
58	58	1
1	8	1
168	169	3
97	97	4
161	161	1
139	158	1
27	45	2
9	25	5
37	38	1
151	154	1
39	45	1
8	8	4
41	42	3
101	104	3
16	16	3
6	98	1
112	112	2
156	157	3
134	135	1
52	52	2
71	71	4
35	35	4
10	95	1
170	170	3
102	102	3
152	153	1
138	139	2
46	47	1
62	62	2
35	36	1
7	8	1
42	42	3
62	63	1
163	163	3
137	158	1
69	70	1
101	103	1
131	131	2
149	149	2
12	12	1
159	159	1
89	89	1
24	46	1
70	70	3
142	142	1
26	27	1
104	112	5
64	69	1
23	23	3
15	15	2
85	89	3
85	90	1
6	6	3
88	88	1
38	38	2
11	16	2
105	114	2
71	102	1
68	110	2
53	54	3
156	165	1
101	112	1
86	92	1
158	159	2
58	69	2
86	89	1
143	154	1
155	155	1
40	40	2
9	10	1
155	159	1
88	90	1
144	144	1
98	98	2
17	18	1
111	124	1
148	151	2
10	11	1
116	119	3
1	1	1
78	79	1
145	148	2
12	13	1
105	106	1
141	142	1
68	70	2
104	114	1
149	151	1
12	17	1
57	61	1
130	131	1
84	85	1
165	165	2
112	113	1
108	108	1
133	133	1
22	49	1
119	120	1
44	49	1
82	151	1
