16	20	5
47	47	13
154	154	8
42	42	12
112	114	7
39	40	13
151	151	4
13	19	2
135	136	1
30	30	5
23	33	2
142	144	3
43	43	10
83	96	3
26	36	2
110	112	3
112	113	1
136	136	12
11	122	6
67	67	7
20	20	13
63	63	5
61	62	1
47	123	4
19	19	11
100	100	6
86	87	9
33	33	9
11	120	2
150	150	9
143	143	3
56	56	12
21	21	4
45	75	1
141	142	7
23	23	8
105	105	10
66	67	7
31	31	15
54	55	12
10	13	4
81	82	3
18	18	6
13	13	17
57	57	3
122	122	4
13	14	5
115	142	3
41	42	6
104	113	4
22	22	14
118	118	2
54	56	4
45	77	2
84	97	8
50	50	8
54	54	7
76	77	4
149	150	3
62	62	3
124	125	3
98	98	12
135	135	5
74	74	6
19	46	3
104	104	6
41	41	11
85	85	6
34	56	5
104	112	2
43	44	5
63	64	3
48	48	13
7	8	1
24	54	2
147	148	3
27	61	1
56	58	2
78	135	1
34	35	3
79	97	4
8	8	11
4	4	11
123	131	1
130	130	7
51	53	1
83	83	7
64	132	1
17	17	8
94	94	8
15	15	3
22	23	4
6	28	1
35	35	11
34	36	7
134	134	2
131	132	3
79	80	8
81	81	9
85	86	10
99	104	1
62	75	3
46	75	2
53	53	12
16	46	1
80	83	6
17	20	3
74	75	6
70	70	14
32	34	4
125	145	1
45	46	5
27	43	4
25	26	5
128	131	1
27	32	2
122	129	2
126	127	3
107	107	15
95	95	12
102	112	5
109	110	2
4	6	3
17	18	7
49	52	1
85	113	1
25	25	7
38	38	3
85	104	1
110	110	3
138	143	1
75	132	2
106	116	2
50	51	4
16	16	4
44	44	14
48	53	4
50	127	2
138	138	5
97	100	7
25	28	1
4	12	3
71	71	3
120	120	8
10	41	4
7	24	4
17	46	1
51	57	1
15	145	3
16	37	1
28	34	1
9	113	2
38	54	2
100	102	3
28	28	3
37	37	6
68	68	14
21	22	2
97	97	6
96	96	2
51	52	5
24	32	1
42	53	2
77	78	1
139	139	3
68	73	3
39	51	5
125	125	3
51	54	2
152	152	4
5	5	10
56	64	1
141	141	9
142	142	11
96	97	11
38	52	2
61	137	1
127	128	2
87	91	2
102	102	6
5	12	3
78	78	10
126	126	6
80	80	7
47	48	4
12	13	1
80	114	2
20	23	2
112	112	4
84	93	4
111	111	9
77	85	2
115	118	4
105	111	1
146	146	1
123	123	5
9	9	4
124	127	2
77	138	2
11	11	9
145	146	2
79	82	1
72	73	7
129	129	4
92	92	6
7	56	4
45	45	9
86	86	10
76	76	13
126	129	2
24	24	5
46	46	11
79	79	6
88	98	1
20	53	5
115	138	2
26	26	4
77	98	3
33	54	1
73	73	5
113	113	3
127	146	1
14	15	3
117	117	7
123	127	4
75	128	1
131	137	6
77	77	5
40	40	7
79	114	1
34	34	3
29	32	8
117	154	1
6	6	4
72	72	3
38	51	3
125	129	4
114	114	7
7	15	2
119	121	1
10	136	4
24	45	2
11	14	2
33	55	2
75	75	4
65	68	5
12	122	3
101	102	8
23	24	2
82	82	2
73	74	7
42	43	6
34	54	3
36	36	4
35	44	2
56	73	3
65	66	7
121	121	5
147	150	1
23	25	5
133	135	1
79	84	2
110	111	7
68	69	2
10	12	3
35	67	8
10	10	3
64	66	1
15	16	9
45	76	2
116	117	2
80	96	3
65	78	2
68	70	1
144	144	4
103	103	10
102	103	4
103	140	1
132	132	2
71	77	2
132	143	2
127	127	3
65	65	3
129	133	3
69	132	1
30	42	6
37	40	1
29	29	6
80	97	1
93	93	3
137	137	2
132	136	3
17	152	1
120	121	2
91	92	5
38	99	5
20	56	7
88	93	3
13	15	3
7	16	4
104	111	5
27	33	3
99	99	1
6	7	5
8	33	1
27	28	2
8	145	2
104	105	7
87	96	2
119	119	4
3	4	2
86	99	2
64	65	1
36	37	1
7	32	10
56	152	3
12	14	5
22	24	2
18	19	2
37	38	3
8	152	2
9	15	4
87	89	1
84	100	1
137	139	3
84	86	4
15	20	2
8	9	2
55	55	1
111	112	5
19	23	3
115	115	4
105	113	1
64	135	1
87	87	7
88	88	1
107	109	1
65	77	2
105	107	5
5	24	1
106	114	1
137	146	2
49	49	8
52	52	2
87	94	2
123	132	1
138	139	2
49	96	6
69	70	1
51	69	6
137	145	2
137	138	1
106	106	3
149	149	2
11	12	5
84	95	5
84	94	3
80	93	3
3	28	5
136	137	4
125	127	2
81	87	2
27	27	3
86	104	6
64	64	1
14	14	2
63	68	1
55	67	1
62	64	2
77	133	1
124	124	6
26	27	1
142	143	1
34	64	5
63	67	3
95	113	1
20	21	1
124	128	2
33	38	2
5	7	2
35	71	1
75	77	1
5	66	1
90	93	3
71	72	4
16	17	2
29	43	2
28	32	2
5	6	2
147	147	1
69	72	2
8	146	2
28	30	1
124	143	3
123	124	1
32	32	4
14	31	2
108	113	1
7	20	1
117	118	3
41	53	2
15	134	2
41	54	1
119	120	1
125	126	2
124	142	1
115	116	4
11	135	1
85	105	1
58	58	4
140	141	1
139	140	1
12	12	2
86	97	1
115	120	1
4	66	1
104	106	1
39	39	3
8	26	2
139	143	2
133	133	1
81	99	2
136	144	2
145	148	1
90	91	2
107	120	1
7	7	2
67	69	2
38	50	3
106	119	1
51	51	3
26	34	1
66	66	3
12	120	1
7	30	1
87	95	2
145	145	3
116	116	2
25	57	1
142	145	2
48	54	2
72	132	1
113	114	1
4	26	1
8	67	2
46	73	1
69	75	1
8	148	2
70	88	1
115	140	1
100	101	1
96	99	1
62	63	1
20	22	1
64	73	1
98	131	1
140	140	2
5	25	1
57	58	1
16	36	1
147	151	1
125	128	1
35	54	1
63	70	1
41	43	1
116	120	1
15	18	2
23	50	1
123	126	1
21	46	1
84	84	1
82	83	1
10	33	1
29	30	1
120	122	1
69	69	1
109	131	1
56	75	1
81	83	2
133	134	1
56	69	1
131	141	1
128	128	1
23	152	1
16	122	1
67	72	1
75	126	1
