89	89	6
14	14	19
55	55	17
11	11	14
90	90	24
40	40	17
39	40	10
121	121	8
128	128	9
98	98	17
99	99	9
95	95	10
52	109	2
148	148	22
71	111	1
0	2	6
117	152	3
34	35	4
124	124	7
1	2	5
47	47	15
40	123	4
72	72	8
125	140	4
151	151	3
126	126	20
1	1	22
128	129	6
43	43	23
11	19	2
20	21	4
121	122	5
4	160	1
20	20	11
107	107	13
112	112	29
150	151	5
88	88	10
79	79	18
77	77	15
51	69	1
28	28	13
23	23	13
161	161	11
38	38	15
151	156	3
118	118	13
166	166	15
0	0	8
51	76	5
51	51	10
106	106	12
43	44	1
7	7	16
15	24	1
74	74	6
22	40	9
20	23	2
62	62	10
82	90	2
21	22	7
104	118	4
116	116	25
68	68	14
43	127	1
88	89	5
110	110	12
117	117	17
133	133	17
113	113	10
22	23	5
152	160	3
47	152	5
126	129	3
105	105	9
5	5	13
101	101	3
119	120	2
158	167	1
13	14	5
22	22	12
127	127	6
56	58	4
9	10	6
44	44	28
163	163	7
91	91	4
81	98	2
12	12	9
4	4	7
3	108	3
18	41	2
93	93	8
107	109	2
140	140	9
153	154	5
71	71	6
102	102	9
159	167	1
46	142	2
101	102	6
72	73	6
139	139	9
17	35	1
45	45	5
25	25	21
86	87	4
7	159	3
154	154	9
132	165	2
89	111	4
111	111	14
41	41	6
63	65	4
4	5	7
109	154	3
34	34	10
52	90	4
162	167	3
20	56	2
132	132	8
107	108	5
147	156	1
109	109	7
136	136	11
48	48	9
49	49	15
156	156	4
17	17	7
118	119	6
40	56	1
134	134	5
44	69	3
11	12	2
54	55	5
98	162	2
123	124	2
115	115	12
169	169	8
146	159	3
58	58	2
149	149	11
103	103	6
36	36	25
42	42	15
123	123	9
119	119	7
159	159	24
91	98	3
152	153	1
157	158	5
104	104	27
71	72	7
69	70	5
150	150	2
79	80	4
20	22	7
82	82	8
81	123	2
86	86	3
105	106	3
46	46	5
147	148	2
122	123	4
19	19	15
162	162	7
91	92	2
125	125	2
135	135	17
97	97	5
41	53	5
132	136	4
21	21	13
129	129	9
81	81	11
2	2	21
35	35	9
132	133	5
39	39	8
94	94	6
52	89	1
64	64	9
161	162	1
50	69	1
48	49	11
39	41	3
9	9	14
66	66	9
53	53	9
92	100	3
99	100	4
18	19	2
46	65	1
89	116	6
69	69	16
56	56	14
43	140	2
4	144	3
170	170	10
13	13	12
92	93	4
144	148	3
110	117	3
24	24	8
137	151	1
97	98	6
33	34	5
86	128	2
156	157	11
137	137	7
24	25	5
57	68	7
162	163	3
83	116	2
62	120	3
50	66	4
3	3	16
47	48	3
138	167	2
111	112	2
18	18	6
75	82	2
63	63	4
75	76	5
57	57	8
129	157	7
87	87	4
144	168	2
169	170	6
54	54	17
106	107	2
15	15	16
33	33	6
81	82	2
40	66	7
87	98	3
14	18	5
165	165	3
143	143	7
80	84	4
99	115	8
108	108	19
160	160	8
50	51	4
12	16	4
26	26	7
27	27	13
152	152	8
158	158	5
142	142	6
50	151	5
145	145	5
138	138	7
90	111	9
141	141	2
84	85	2
144	144	3
130	131	5
153	153	4
16	16	12
42	43	3
159	160	4
162	170	2
100	100	13
81	133	3
116	152	2
137	169	11
50	50	2
113	114	2
168	168	6
105	121	1
144	160	1
46	47	5
124	127	3
53	74	3
163	164	2
76	80	1
67	68	3
167	167	6
77	78	4
4	9	2
27	28	2
94	95	3
120	120	4
8	8	6
168	169	1
71	73	7
19	49	1
10	10	16
70	70	5
91	93	3
47	54	10
164	164	8
76	76	3
78	79	4
140	141	3
102	117	1
140	165	1
125	139	1
20	43	2
143	167	2
108	109	7
37	38	5
47	69	2
1	43	2
57	63	3
4	166	1
111	132	1
52	53	1
143	158	4
58	115	2
37	37	3
141	165	1
11	15	2
95	97	1
156	164	2
35	53	1
37	113	2
90	110	5
1	42	3
4	167	2
94	124	2
157	159	2
157	157	2
93	116	1
78	78	6
112	113	3
51	63	3
35	41	1
22	27	2
26	27	3
21	56	3
105	118	2
55	84	1
81	135	1
28	118	2
161	164	2
17	18	6
109	110	2
12	13	1
88	149	4
53	54	3
69	138	3
2	24	1
82	152	1
19	37	2
110	111	6
49	55	3
152	154	4
51	52	2
61	61	3
10	11	1
12	44	4
131	131	4
146	146	2
18	34	1
145	149	1
96	96	13
155	155	2
52	52	8
80	96	1
58	70	2
49	69	4
109	153	3
104	105	2
6	6	8
76	84	3
52	110	3
55	86	2
12	14	1
66	68	2
19	40	3
122	122	3
83	89	1
87	130	1
74	83	2
165	167	1
80	82	3
141	142	2
17	53	3
85	85	2
114	115	1
142	144	1
111	116	2
115	123	2
50	52	1
85	87	1
83	83	9
92	92	3
92	95	5
139	148	2
78	85	1
73	73	4
103	151	2
65	66	3
40	51	1
136	139	4
125	126	3
140	146	1
33	43	1
82	83	1
159	168	1
67	67	7
38	40	1
162	164	2
148	166	1
117	119	2
96	104	1
72	98	2
155	165	2
76	126	2
83	100	4
147	147	2
37	39	4
76	77	1
6	162	2
64	66	1
19	42	1
72	97	1
91	99	1
129	130	1
44	45	2
44	66	1
12	15	2
130	130	3
43	158	1
64	69	1
80	80	6
40	41	2
23	52	1
19	39	1
125	149	2
37	128	1
87	128	3
79	113	4
128	141	2
73	85	2
20	49	2
77	88	1
33	39	1
102	152	3
49	53	1
45	139	1
47	49	2
20	40	1
52	63	2
25	26	1
100	116	1
110	115	2
22	45	2
160	161	2
46	143	2
50	68	1
92	104	2
152	163	1
23	40	1
105	120	2
23	24	1
44	52	2
167	168	1
148	170	1
92	150	1
50	123	1
65	65	1
140	145	1
97	123	1
52	69	2
64	65	2
6	7	2
126	143	2
10	12	2
88	148	1
86	126	2
116	120	1
16	17	1
144	151	1
91	97	1
145	164	2
96	97	3
0	43	2
84	84	2
72	127	1
62	63	2
22	26	1
114	114	1
80	81	1
21	41	1
153	163	2
127	143	2
137	138	1
108	147	2
48	54	1
156	160	1
48	148	2
20	165	1
151	160	1
137	161	1
40	43	1
139	140	1
50	84	1
11	44	1
137	168	1
35	36	1
115	116	1
148	149	1
83	84	1
0	1	1
160	165	1
12	17	1
15	39	1
