96	96	67
61	61	53
63	63	38
67	67	46
55	55	42
99	99	39
85	85	29
42	42	45
38	39	10
88	89	18
97	98	16
38	38	37
83	85	4
72	72	37
76	76	44
92	93	20
44	45	13
79	79	30
65	78	6
52	84	10
79	86	1
56	57	15
46	46	40
41	41	55
58	58	55
43	43	32
84	84	39
60	60	39
94	94	56
79	80	14
100	101	27
51	51	29
37	38	20
23	25	2
92	92	37
89	89	46
96	101	2
77	77	30
53	53	40
54	81	9
48	56	7
68	68	39
70	71	4
44	51	3
63	65	5
33	80	8
82	87	3
74	75	14
39	39	34
88	88	32
35	35	31
87	88	26
49	49	23
52	52	51
65	65	48
68	69	11
86	87	34
57	57	30
78	79	4
64	65	24
66	66	26
33	33	36
90	90	20
39	41	3
36	36	33
48	48	35
62	63	5
75	75	44
48	49	14
85	86	8
43	44	5
89	90	5
65	67	5
46	47	21
51	52	16
53	58	3
97	100	8
59	59	43
36	37	11
31	31	27
95	95	47
55	56	17
71	72	24
56	56	28
70	70	56
65	66	35
95	96	18
44	92	3
101	102	23
37	91	3
66	67	19
37	39	7
32	32	15
80	80	28
69	69	29
46	50	4
92	96	8
81	82	24
47	47	30
71	71	26
20	78	5
93	93	37
96	99	4
81	101	4
36	38	4
26	26	20
82	83	5
84	87	8
25	25	19
97	97	38
100	102	1
45	50	1
61	62	17
76	78	7
44	98	2
57	60	4
74	74	38
102	102	8
77	78	7
53	54	10
44	44	26
94	95	14
22	23	5
62	62	37
50	50	25
33	55	3
27	27	30
91	91	30
87	87	32
75	77	3
64	64	43
36	83	3
54	55	10
95	97	12
50	55	5
81	81	55
20	20	9
40	52	5
60	61	12
83	92	1
73	74	13
51	55	1
26	29	3
76	77	17
75	90	4
69	77	2
45	45	38
101	101	42
24	27	4
92	101	5
47	48	16
86	86	41
50	77	3
23	23	12
38	40	3
93	94	8
52	59	4
37	37	16
25	26	8
83	84	8
87	93	1
71	73	3
98	98	17
47	71	4
58	59	11
59	60	12
96	98	3
49	70	4
80	81	22
67	68	11
63	64	16
53	101	7
31	36	1
41	44	5
45	48	11
34	34	23
100	100	28
87	97	4
79	90	2
54	54	56
83	83	30
49	50	20
96	97	21
53	55	6
32	44	4
59	89	4
20	22	8
88	97	4
81	96	2
29	29	38
44	93	2
43	73	2
24	24	7
34	35	7
37	94	5
89	99	3
42	43	18
66	85	1
69	70	18
35	37	5
27	28	11
73	73	30
35	36	9
55	94	1
78	78	23
46	48	9
40	40	49
84	85	4
22	22	16
67	69	2
58	79	3
48	51	2
42	77	5
88	92	3
48	55	2
90	93	2
81	100	1
50	51	6
51	53	3
33	34	5
84	86	2
79	101	7
52	76	3
86	89	8
79	81	4
40	59	8
85	88	8
55	100	2
66	69	3
71	74	3
94	100	3
91	93	13
43	77	1
81	86	2
26	27	6
92	94	6
43	78	1
34	37	3
77	82	3
33	37	2
28	28	4
68	73	3
86	93	5
30	30	4
48	50	4
91	95	3
44	57	3
98	99	5
57	64	6
25	54	3
94	98	7
52	53	6
91	92	11
83	88	5
82	82	10
85	87	1
44	77	2
57	58	10
83	98	3
26	53	1
93	96	10
52	91	1
77	85	1
50	85	2
72	73	8
41	59	1
24	25	2
94	99	7
85	89	1
46	91	1
20	24	3
65	76	5
47	49	7
43	71	1
74	77	5
60	62	5
75	85	2
46	49	1
53	100	1
35	38	2
31	33	4
39	60	6
93	95	5
56	62	2
25	27	4
54	82	1
92	100	3
61	63	3
64	90	1
62	75	4
41	42	12
86	88	11
60	63	7
89	96	1
45	92	1
95	98	8
62	82	5
45	93	1
50	100	2
92	97	6
42	78	3
46	51	1
62	69	4
45	47	3
51	77	2
69	76	1
89	100	3
26	54	2
44	59	3
58	60	8
70	72	1
62	72	1
83	99	1
75	76	3
34	61	1
55	61	2
94	96	3
51	54	4
83	97	1
65	85	2
52	55	4
50	56	1
24	26	2
59	62	1
51	56	1
80	86	2
81	83	2
45	72	3
32	51	3
34	44	1
40	41	1
33	61	2
52	82	1
54	56	1
88	94	3
87	89	3
32	33	4
84	96	3
51	58	3
43	50	1
24	28	1
45	46	3
72	90	2
77	91	1
99	102	3
34	36	4
99	101	3
42	44	2
44	65	2
62	64	2
66	68	3
98	100	4
31	32	3
84	88	2
96	100	1
69	71	5
54	84	2
90	91	6
43	69	1
20	48	1
29	30	1
22	24	3
99	100	1
49	51	1
60	90	1
38	45	2
82	96	1
39	59	3
24	53	1
45	52	3
86	97	3
44	50	1
64	66	2
47	50	1
45	51	4
27	29	2
65	84	1
94	97	3
50	71	1
53	87	1
66	75	4
59	63	1
55	60	1
74	80	1
46	72	2
85	90	1
55	57	1
66	77	1
22	28	1
49	56	2
30	31	5
39	40	2
55	62	1
90	99	1
91	96	2
58	61	1
73	91	1
31	90	1
91	100	1
87	94	2
77	90	1
47	56	3
56	58	2
23	26	2
91	94	2
85	101	2
57	63	4
33	62	1
29	53	2
22	26	3
95	99	1
67	72	1
84	100	2
54	80	1
27	53	2
57	59	1
45	49	2
47	51	1
40	67	1
46	61	2
43	59	1
65	69	1
90	92	1
64	102	1
23	24	2
90	95	1
53	61	1
80	82	1
82	95	1
51	86	1
71	101	1
35	62	1
73	82	1
72	76	1
51	92	1
67	77	1
60	77	1
81	93	1
72	74	1
41	43	1
36	91	1
45	65	1
63	82	1
65	68	1
33	35	1
