41	41	16
77	77	16
61	61	25
79	79	17
4	77	1
7	56	1
31	32	10
58	58	19
39	39	22
31	31	22
76	76	20
49	49	13
62	62	15
44	74	2
50	50	9
12	12	4
53	53	10
27	28	11
64	65	6
28	28	16
30	30	5
54	55	5
72	72	12
2	3	2
52	52	5
74	74	18
6	6	14
9	9	18
68	69	14
47	47	21
45	45	15
47	48	19
55	55	12
13	14	18
3	78	1
8	8	35
29	29	25
9	55	4
66	66	9
50	70	2
35	35	21
0	0	5
4	4	25
54	54	26
10	69	4
27	27	22
38	38	25
65	66	2
44	59	2
33	34	4
36	36	10
9	54	4
34	42	1
1	80	2
17	17	20
17	35	2
56	56	9
65	65	20
57	57	25
58	59	9
59	59	22
71	71	3
63	63	22
0	37	2
53	54	10
79	80	5
4	5	2
48	56	4
1	1	18
6	8	1
25	25	10
30	34	3
68	71	3
52	53	4
26	26	28
17	18	8
25	26	2
46	46	29
50	52	1
10	10	13
70	70	5
46	47	1
4	30	9
78	78	17
50	51	4
43	43	2
6	33	2
64	64	10
9	10	3
49	52	5
77	80	3
49	55	3
1	2	8
16	16	13
77	78	5
10	11	4
47	73	6
42	42	15
20	20	7
2	2	12
2	4	2
6	29	2
55	72	3
66	67	5
68	70	3
32	32	12
67	67	13
3	4	2
55	56	7
27	29	7
12	15	3
38	40	2
40	40	17
20	21	3
19	19	10
48	54	4
32	34	1
57	58	6
73	73	10
35	76	1
4	31	4
38	79	1
47	79	3
75	77	3
13	13	5
60	60	3
35	36	3
33	33	14
3	3	8
72	73	2
42	45	3
21	21	8
68	68	11
71	72	7
11	11	6
5	7	2
35	72	4
7	38	2
67	68	7
48	48	16
38	41	2
42	43	3
0	2	2
44	44	2
7	8	7
7	37	1
8	55	1
15	15	9
34	35	2
76	78	2
32	33	9
34	34	13
51	52	1
49	63	3
6	7	6
39	40	8
80	81	1
16	17	6
42	72	2
49	54	2
45	46	10
11	14	2
9	11	1
77	81	3
11	51	6
33	54	1
69	70	5
80	80	13
49	50	1
75	75	12
61	62	2
18	29	3
41	42	1
37	40	10
11	35	5
48	49	5
60	61	6
30	33	1
75	78	1
37	37	6
19	59	1
14	15	2
8	9	6
42	46	1
7	7	4
74	75	4
78	79	1
40	41	1
36	40	1
29	30	1
56	57	8
37	38	1
27	74	2
8	17	1
38	45	1
9	38	2
44	75	3
13	52	1
7	40	1
16	62	1
5	5	5
38	39	5
5	6	1
70	71	4
17	19	1
27	30	1
9	39	1
6	28	2
76	77	3
14	20	3
39	41	3
18	18	3
28	40	3
43	44	2
27	58	1
19	20	4
0	80	2
39	79	1
4	6	1
10	12	2
73	74	3
67	71	1
47	81	3
49	70	3
41	46	1
69	69	2
45	60	1
22	22	1
31	33	2
50	69	1
10	35	1
5	33	1
33	72	1
6	9	1
78	80	1
28	29	1
26	27	1
44	45	1
8	26	1
43	74	1
74	77	1
63	64	2
46	74	1
14	14	1
15	16	1
4	32	1
44	47	1
51	68	1
