67	67	1
77	77	1
181	182	1
16	24	3
24	25	5
164	164	1
176	177	9
188	188	3
151	169	1
113	113	3
0	0	2
125	126	2
121	121	2
110	110	1
108	108	2
173	173	6
39	39	3
184	184	4
143	143	6
137	137	7
28	28	1
154	170	5
143	157	2
131	132	5
14	14	10
95	96	4
133	134	1
133	133	4
59	59	6
81	82	3
148	148	4
8	8	2
179	180	5
149	149	7
10	10	3
99	99	4
152	153	6
154	154	3
114	114	1
169	184	4
145	145	4
91	92	1
99	100	5
156	158	5
174	175	2
23	23	5
102	102	7
155	155	13
90	90	9
13	13	5
119	120	3
190	190	5
56	56	1
37	37	3
139	139	6
148	150	1
15	17	1
84	84	2
129	130	4
78	79	5
136	136	8
130	131	2
63	63	5
15	15	7
124	124	5
41	42	2
2	2	15
177	177	3
111	111	3
132	136	2
147	173	5
4	4	4
42	42	6
89	90	3
147	147	2
163	163	2
142	142	1
5	5	7
167	167	2
180	182	2
58	121	1
24	24	2
66	66	6
30	30	1
77	79	1
16	17	1
180	180	2
172	172	1
135	140	2
164	176	3
78	78	2
127	128	3
92	93	1
178	180	3
123	123	6
38	38	8
169	169	6
137	167	2
76	76	3
40	40	2
155	168	3
69	70	3
109	127	2
31	31	2
73	84	3
127	127	2
32	32	2
1	135	2
89	89	2
76	83	2
130	130	1
6	6	4
39	40	1
76	77	5
129	129	5
1	2	2
157	157	7
124	129	4
115	116	4
31	32	3
58	60	4
171	171	2
55	55	4
33	34	6
128	128	1
62	108	2
44	44	1
171	174	2
43	44	2
25	26	2
184	186	1
19	20	3
140	153	2
106	108	1
36	37	3
119	126	2
19	19	4
135	135	4
187	187	3
56	123	3
176	176	3
146	149	1
3	3	3
65	74	1
9	10	1
152	152	3
116	116	1
6	7	1
10	11	1
131	131	1
25	25	4
103	103	1
130	132	4
85	87	1
41	41	2
112	112	2
174	174	2
141	141	5
134	134	1
129	141	1
71	71	2
116	118	1
47	47	4
90	98	1
132	132	2
126	127	1
181	181	2
122	122	3
177	181	1
78	82	3
83	83	2
80	80	1
170	170	2
81	81	3
115	121	2
26	26	4
79	80	1
185	185	2
25	30	1
1	7	1
79	79	1
22	23	2
168	168	2
151	151	3
188	189	1
104	108	3
109	109	2
87	87	2
183	183	2
80	83	2
137	138	1
140	140	1
77	103	1
121	122	3
20	21	1
37	38	1
128	129	1
53	53	2
148	167	1
38	39	1
97	98	2
2	3	2
143	156	1
32	33	4
6	8	1
170	176	2
117	118	2
17	17	2
83	84	1
127	141	2
98	99	1
144	158	1
164	165	1
48	58	1
15	16	2
96	96	1
160	160	3
107	138	1
64	64	2
182	183	1
153	153	1
46	48	1
166	181	2
29	30	1
65	66	1
120	120	2
62	62	1
58	58	3
57	57	2
27	27	4
136	137	4
168	188	1
7	7	1
162	163	1
8	11	2
45	45	1
171	173	2
138	138	1
135	138	1
21	31	2
75	75	1
146	146	3
11	11	1
106	106	1
86	86	1
150	151	1
90	140	1
73	73	1
138	139	1
97	97	1
153	169	1
186	186	1
15	24	1
16	23	2
126	128	1
148	151	1
158	161	2
46	47	1
48	54	1
22	32	2
91	96	1
7	38	2
59	64	1
68	68	2
71	72	1
44	110	1
189	190	1
32	36	1
154	156	1
82	82	1
112	113	1
162	162	1
54	54	1
