35	35	3
133	163	1
72	77	2
106	107	2
66	68	5
103	103	14
158	158	3
68	77	7
36	36	6
106	106	9
121	122	11
75	75	3
107	144	2
94	94	7
93	94	4
81	81	4
77	77	14
83	83	4
41	41	15
45	45	11
45	46	2
112	112	4
10	19	1
62	62	7
90	90	9
61	62	6
181	181	10
150	160	7
16	16	4
139	142	2
95	138	3
124	124	8
150	151	4
175	175	3
12	14	5
157	158	5
117	117	4
105	137	2
76	76	6
145	145	5
2	2	5
179	179	3
149	150	2
44	64	1
120	120	13
166	168	2
10	57	8
40	40	10
38	39	2
19	20	1
152	152	4
114	114	6
150	150	6
134	134	9
22	25	3
0	0	2
58	58	12
4	5	6
6	6	6
108	108	4
115	115	1
44	44	9
47	47	4
176	190	2
137	145	5
100	100	2
177	177	4
184	184	7
159	160	5
98	137	4
166	166	11
169	169	11
48	48	4
113	113	5
37	38	4
13	14	7
183	183	7
139	143	1
34	35	3
154	154	2
45	115	5
132	132	4
134	135	4
142	142	5
185	185	4
178	178	11
125	125	15
27	28	1
5	5	8
57	57	4
96	133	1
108	109	4
28	28	11
43	43	3
155	155	4
27	27	7
140	141	3
122	122	2
54	54	13
20	41	1
159	159	4
23	25	3
187	187	5
25	25	4
148	149	6
82	82	11
91	91	6
182	183	4
64	65	3
14	16	2
22	22	10
184	185	3
104	108	1
89	89	6
188	188	3
90	141	1
143	143	9
42	42	6
19	19	7
17	18	1
163	163	4
161	161	2
125	138	2
20	28	1
132	133	1
171	171	6
70	73	1
180	180	10
74	75	4
99	138	5
153	153	4
67	68	3
4	4	5
169	170	3
67	67	4
177	178	3
121	121	2
64	106	3
151	151	2
23	24	4
84	84	7
141	141	4
115	116	3
103	104	1
78	81	4
85	85	6
30	30	8
38	38	4
140	140	7
127	128	2
173	174	2
168	168	4
179	180	3
176	178	4
80	81	2
5	113	2
21	22	4
91	92	3
147	165	2
122	146	1
184	186	1
126	126	4
183	184	3
95	99	2
181	182	3
167	167	9
15	15	9
99	99	9
31	31	4
48	49	1
66	66	7
77	78	1
96	96	2
29	29	2
10	12	2
88	88	5
182	182	8
17	35	1
58	61	1
37	37	3
97	98	1
135	135	4
101	102	5
99	105	5
127	156	1
39	39	11
85	86	2
96	156	1
110	110	3
168	183	3
136	137	1
138	139	6
42	47	2
95	95	3
152	153	5
1	1	8
94	97	1
80	80	1
130	137	5
53	53	10
166	167	3
105	105	4
63	63	3
130	130	2
167	168	4
96	98	4
60	62	3
18	21	4
26	48	1
124	126	3
74	74	1
175	176	5
17	17	5
34	34	3
97	97	2
22	46	2
46	46	4
32	32	4
97	136	3
105	106	1
159	161	3
105	138	1
96	99	1
103	158	2
6	11	1
131	135	4
148	148	3
24	24	5
171	172	1
16	17	1
58	59	3
36	37	3
74	87	3
10	27	2
107	107	3
169	175	4
87	88	1
157	157	1
60	60	1
68	68	2
16	29	3
20	20	1
129	134	4
86	86	3
129	129	4
147	147	5
93	93	1
6	7	2
56	56	3
96	112	2
120	121	3
179	181	2
186	186	2
27	35	1
55	64	2
174	174	1
116	116	8
172	176	2
134	142	1
10	10	3
59	63	2
117	164	2
172	172	2
128	128	1
129	165	1
82	84	3
165	165	2
11	11	2
155	156	3
87	87	2
170	170	5
92	94	1
53	54	1
97	134	1
26	26	1
19	43	1
56	57	1
55	55	2
139	139	3
156	161	2
24	25	1
72	72	3
138	138	2
175	181	2
65	65	2
32	33	1
101	103	1
143	164	1
126	128	1
133	133	3
127	127	4
3	3	5
15	30	1
33	33	1
18	18	2
189	190	2
33	36	1
96	126	1
167	175	1
164	183	1
18	20	2
179	190	1
110	111	2
150	162	2
61	61	2
93	155	1
142	143	1
13	13	3
43	44	1
147	166	1
45	47	1
79	79	3
25	26	1
115	120	2
101	101	2
123	123	3
92	143	1
176	177	1
78	82	2
168	174	1
79	81	1
146	146	1
97	137	1
68	73	5
119	122	1
144	162	1
68	105	3
55	57	1
164	165	1
147	148	1
123	144	1
189	189	2
66	99	1
39	52	1
21	36	1
131	131	2
9	10	2
115	117	3
55	59	2
170	171	1
44	52	1
28	30	1
128	150	1
92	108	1
136	136	1
97	105	1
70	71	1
29	36	1
96	97	1
75	76	1
72	73	1
20	37	1
137	138	1
90	91	1
144	144	1
22	23	1
164	164	1
73	73	2
133	134	1
15	29	1
93	141	1
180	188	1
92	92	1
130	131	1
23	23	1
