36	57	4
48	48	6
0	1	7
87	87	1
92	93	3
3	4	10
32	42	2
17	21	2
130	131	4
110	113	2
87	108	3
10	11	6
138	138	8
117	118	2
11	11	4
124	125	11
23	102	2
34	34	10
70	70	7
68	68	2
56	73	3
53	53	11
32	32	11
78	79	1
33	47	2
16	56	1
14	75	2
49	49	15
125	125	6
24	24	13
77	77	4
131	131	10
18	32	4
59	59	9
39	39	9
5	6	8
69	69	5
72	72	9
0	0	9
47	51	5
40	41	2
5	5	3
15	19	3
42	42	8
65	66	1
62	62	7
25	25	13
71	72	7
43	43	3
109	109	4
4	4	12
119	120	1
86	86	5
104	104	4
128	132	3
41	41	8
135	135	13
92	104	3
122	123	10
79	79	18
142	144	6
26	26	6
63	63	4
94	94	12
83	91	6
10	10	6
66	67	7
116	116	4
79	80	8
61	61	5
13	18	1
89	90	5
120	120	8
110	110	11
39	43	3
57	63	3
17	17	6
26	33	2
67	76	1
8	21	4
79	139	5
25	27	7
50	66	3
94	95	2
120	136	4
85	139	1
34	61	2
8	8	11
32	37	4
30	30	4
56	66	2
34	65	5
122	122	5
5	17	1
6	26	3
139	139	5
97	97	3
50	51	4
121	121	11
20	66	1
77	84	3
107	108	7
11	21	3
140	140	3
38	38	10
120	121	3
19	20	6
9	129	1
18	18	8
123	123	3
67	67	5
6	6	3
9	55	1
95	130	3
131	140	1
105	105	7
91	137	2
88	88	5
60	60	3
47	47	10
67	82	2
113	117	3
100	100	8
133	133	7
33	33	8
130	130	5
55	55	7
18	28	8
29	29	16
97	110	2
133	135	4
128	128	14
52	53	3
80	82	2
129	140	6
87	88	1
66	69	1
31	31	4
20	20	4
65	67	1
58	60	2
75	87	3
126	126	13
111	117	2
118	121	4
87	91	8
136	136	9
102	102	8
37	38	2
112	132	3
17	89	3
76	80	1
84	96	2
37	37	7
90	90	1
23	51	1
40	40	7
141	142	5
57	57	5
3	14	1
112	112	4
98	134	2
41	54	2
67	68	5
1	26	2
50	53	4
102	104	3
129	129	12
17	81	4
86	87	4
14	24	3
118	118	5
143	143	6
2	4	5
15	15	6
28	28	8
118	120	1
86	91	4
125	127	1
66	82	1
81	81	4
55	56	4
10	97	1
124	124	9
138	139	7
127	128	4
9	11	2
115	119	3
22	95	4
14	26	3
75	92	1
128	129	3
136	140	4
13	13	3
62	75	3
142	143	7
108	119	3
127	127	4
18	52	3
86	88	2
23	74	4
123	130	1
52	64	1
118	119	3
135	137	2
23	23	5
130	140	3
38	40	1
74	79	3
109	133	3
74	74	2
86	105	2
92	106	2
50	52	3
101	102	3
95	98	2
32	33	2
9	9	5
56	56	6
127	130	2
97	104	1
113	113	1
3	3	7
36	39	6
26	27	1
12	21	2
19	30	5
110	118	2
80	81	9
11	33	4
108	120	3
22	22	8
62	63	4
59	61	1
27	27	9
79	93	2
17	30	4
110	116	2
6	8	1
35	36	5
1	2	2
100	101	3
47	49	2
40	50	3
15	93	2
79	82	1
91	91	6
80	80	3
92	92	5
28	94	2
21	21	8
37	39	2
124	130	4
89	92	1
48	53	3
11	31	1
142	142	4
20	33	3
111	112	4
34	64	1
53	55	4
108	140	2
10	50	2
89	94	4
4	47	1
56	62	3
13	15	1
103	103	8
137	137	2
137	138	3
115	118	1
11	12	2
22	33	1
85	89	4
75	76	3
19	19	6
36	36	9
141	141	9
57	64	2
19	27	1
25	35	2
83	138	2
73	82	3
24	113	1
111	111	10
134	134	7
68	83	2
87	134	2
50	50	5
83	122	2
108	108	4
16	16	3
25	28	4
98	125	2
11	25	6
144	144	5
89	89	3
21	65	2
34	35	1
105	109	2
122	128	2
107	107	3
135	140	2
92	128	1
3	75	2
135	136	9
132	141	1
68	86	2
134	135	2
31	35	3
66	66	2
38	39	2
2	66	1
83	130	4
82	82	2
119	119	5
117	121	4
2	2	5
93	132	1
54	55	1
11	23	1
57	58	2
70	76	2
32	63	3
70	72	2
14	14	3
136	138	4
53	58	1
88	89	3
140	141	2
114	117	1
14	92	2
2	20	3
117	138	3
124	136	2
73	73	4
99	101	4
131	133	4
132	132	2
106	106	3
101	101	7
77	79	1
38	41	1
95	115	2
37	42	1
0	21	2
87	98	2
145	145	2
32	57	2
14	16	3
99	100	3
51	55	1
26	35	1
130	138	1
110	133	1
9	10	4
95	95	2
132	133	2
4	6	1
19	101	2
40	97	1
67	121	1
108	109	3
83	83	2
74	87	3
59	63	3
105	108	1
56	59	1
93	94	1
16	94	1
98	99	3
46	46	3
23	26	1
136	137	1
90	91	1
93	107	1
89	91	1
133	136	1
33	38	1
103	107	1
117	132	2
69	71	2
3	47	2
79	84	1
18	89	1
84	85	2
1	1	5
23	146	1
5	13	2
29	42	1
13	14	4
35	35	2
73	131	2
74	103	1
133	134	1
69	122	3
68	80	2
96	96	3
71	140	2
2	14	2
114	115	3
105	106	1
84	97	2
124	127	1
92	134	1
144	145	2
12	124	1
111	133	4
15	16	3
76	138	1
93	95	1
124	129	2
9	48	1
24	25	1
56	57	1
126	127	5
128	130	2
117	117	4
114	114	4
14	59	1
12	13	2
69	74	2
4	8	2
72	130	1
49	50	1
63	70	1
106	107	1
139	140	1
126	128	1
54	54	1
99	118	2
95	96	1
129	130	4
98	98	3
51	51	2
85	85	4
51	54	1
52	55	1
57	61	2
111	116	2
102	106	2
58	63	1
4	15	2
99	99	2
88	113	2
55	58	1
63	65	1
64	64	2
23	24	1
72	139	1
91	136	1
79	83	1
102	103	1
40	106	2
48	50	1
58	62	2
107	118	1
94	107	1
30	41	3
15	53	1
56	58	1
58	58	3
56	69	2
98	106	3
31	64	2
107	109	1
86	104	2
97	106	1
87	89	2
71	71	4
36	37	1
98	135	1
64	68	1
76	76	3
52	52	2
41	49	1
40	54	1
134	136	1
112	138	1
19	55	2
123	128	1
35	145	1
2	75	2
14	90	1
76	78	2
93	93	3
95	128	2
117	127	1
10	16	1
93	98	1
10	27	2
120	125	1
99	102	1
22	23	1
27	30	1
73	135	1
75	75	1
146	146	1
48	49	1
30	71	1
129	133	1
115	116	1
62	67	1
31	36	1
90	93	1
6	99	1
97	98	1
131	132	1
122	133	1
76	124	1
24	28	2
15	24	1
69	70	1
113	116	1
48	61	1
36	40	1
123	125	1
40	52	1
17	60	1
2	3	1
33	46	1
96	112	1
65	85	1
