80	86	3
102	102	7
132	135	6
35	35	5
126	134	1
82	82	3
131	131	10
93	94	5
80	80	6
127	127	4
79	87	1
73	73	8
37	38	5
118	118	10
113	114	7
5	5	5
89	89	12
86	86	4
122	122	1
128	132	1
133	133	13
37	88	1
17	18	9
28	28	5
125	125	8
7	7	4
130	130	9
137	137	7
84	84	9
14	14	7
111	111	3
134	134	4
22	22	1
74	75	4
114	119	2
18	18	4
88	89	2
112	112	4
79	80	1
75	75	5
77	78	3
76	121	2
75	76	8
81	82	3
20	20	5
124	125	3
103	103	6
10	11	1
38	38	2
10	10	2
96	96	6
98	98	5
135	135	9
26	26	4
83	84	2
76	77	3
88	88	6
15	19	6
129	129	3
15	17	1
115	117	3
136	136	11
25	83	2
21	21	1
11	12	5
104	106	6
7	108	3
123	123	13
16	16	6
131	132	4
104	105	1
90	90	3
21	22	3
138	138	5
8	23	1
84	86	1
77	77	3
77	79	1
24	24	3
36	36	3
103	111	3
30	30	2
106	106	3
129	130	1
4	4	6
108	108	2
85	117	3
76	76	6
107	107	7
115	115	2
78	78	7
82	83	1
119	120	8
114	117	1
87	87	8
124	124	3
114	114	1
2	2	2
80	81	2
33	33	3
105	106	2
8	10	2
74	93	1
109	109	1
125	126	4
131	139	2
135	136	3
12	12	3
25	25	2
116	117	5
120	121	3
98	99	2
100	100	2
8	9	3
106	107	1
128	128	9
138	139	1
104	104	7
81	81	6
140	140	5
17	20	1
116	116	4
31	32	1
132	132	3
91	91	3
128	129	4
78	113	2
121	121	2
99	99	4
72	72	1
22	23	3
19	20	1
32	32	3
90	103	6
22	24	1
123	124	5
3	3	4
10	12	1
105	105	4
3	19	3
110	110	1
9	108	1
7	8	1
3	9	2
15	15	2
101	101	2
107	135	1
83	83	3
71	100	2
11	23	4
17	17	1
95	101	3
11	24	1
113	113	2
35	95	1
23	23	2
136	137	1
85	85	1
74	74	1
1	2	2
23	24	2
139	139	2
30	32	1
115	116	1
4	17	1
34	34	5
13	14	2
8	11	1
6	7	2
113	115	1
19	19	3
7	87	1
102	103	1
36	37	1
117	127	5
7	109	2
117	119	1
132	138	1
90	91	2
27	28	2
93	135	1
35	36	1
101	102	1
110	111	1
115	127	1
112	126	1
19	21	2
80	85	1
29	36	1
71	76	1
94	95	2
0	1	1
92	92	1
2	14	1
106	115	1
119	119	1
107	108	1
117	117	1
97	97	1
93	93	1
31	31	1
36	88	1
81	87	1
87	88	1
10	13	1
84	85	1
127	134	2
