67	68	14
29	30	2
60	60	18
16	16	18
31	32	1
33	33	20
60	61	11
73	73	31
45	46	11
3	4	6
27	27	19
18	27	2
1	8	3
72	72	29
34	34	12
8	8	31
55	56	11
46	47	4
34	37	8
25	26	10
0	1	8
36	48	3
31	31	19
71	72	16
29	56	1
57	57	35
43	43	12
68	68	30
20	20	5
64	65	4
75	75	35
4	5	10
76	76	27
21	21	27
13	52	2
45	45	35
62	64	1
41	41	21
31	52	3
46	46	18
28	28	41
47	47	37
11	13	5
3	3	14
57	60	8
14	14	13
7	7	36
56	56	35
48	48	29
59	59	22
13	15	3
54	54	41
67	67	25
47	48	16
37	37	33
54	62	1
66	67	10
39	39	13
71	71	12
42	42	32
55	55	37
49	49	22
63	63	25
18	19	2
37	62	1
25	25	7
37	56	1
77	77	15
25	33	3
0	0	21
69	69	21
69	70	10
44	45	2
40	41	5
10	12	1
79	79	32
26	26	29
1	68	5
39	40	8
40	40	27
77	78	2
31	33	3
12	12	10
17	17	23
66	66	25
1	1	25
6	6	37
2	2	27
3	6	3
61	61	28
9	9	30
58	58	36
48	79	1
26	27	6
10	15	4
4	4	21
80	80	23
74	74	30
6	8	13
53	53	16
11	12	4
71	75	2
11	11	9
62	76	2
35	37	9
10	10	14
40	55	2
72	77	6
33	41	1
42	46	1
78	78	15
30	31	9
63	64	4
65	66	7
63	71	4
72	76	3
38	38	16
10	20	6
39	54	3
5	6	17
75	76	8
30	30	29
18	18	9
35	61	5
10	19	8
17	26	16
50	52	5
9	17	4
65	65	13
36	36	9
5	5	12
11	60	1
70	71	9
64	64	26
35	58	4
28	38	4
32	32	8
32	50	4
56	58	6
59	60	6
49	53	2
29	29	18
70	79	3
7	8	7
13	51	3
33	36	1
51	51	4
13	13	7
53	54	6
34	39	4
39	46	3
39	53	6
72	75	5
15	15	12
27	56	3
4	72	1
41	42	9
62	62	17
15	30	2
0	55	4
35	35	23
1	2	11
19	19	10
73	74	15
33	54	3
16	17	6
68	71	3
70	70	6
63	65	1
19	20	8
72	74	3
56	61	6
4	17	3
54	64	2
50	51	6
79	80	2
80	81	2
37	80	2
28	29	3
56	57	7
37	39	2
35	36	5
38	39	3
4	7	6
31	80	4
5	7	1
22	50	5
27	28	7
63	78	1
10	13	4
64	77	3
36	47	2
10	11	6
34	36	1
33	34	5
35	74	1
12	19	2
35	65	3
34	35	2
57	58	5
26	54	1
8	9	10
42	45	4
35	77	3
57	61	3
73	75	1
67	69	1
54	55	10
66	68	1
32	33	2
25	28	2
36	75	1
9	49	2
15	16	1
12	13	3
20	21	3
50	69	1
31	69	3
18	78	3
39	58	1
67	71	5
26	70	3
75	77	3
12	14	2
1	48	2
42	80	1
54	67	7
37	38	2
8	75	1
21	22	4
26	79	2
38	41	2
74	75	4
41	43	2
7	9	1
8	56	1
26	28	2
9	16	3
27	54	2
52	70	1
30	32	6
11	16	3
78	79	1
36	37	2
63	66	2
40	42	1
4	6	2
12	21	1
68	70	4
49	52	3
58	59	5
39	47	2
12	51	1
56	59	1
73	78	2
15	50	3
33	35	2
52	61	1
26	43	3
63	72	1
17	18	2
40	47	2
50	50	4
38	48	1
61	62	1
39	70	2
16	18	1
42	79	3
48	49	4
49	50	1
14	15	1
26	29	3
38	40	1
42	43	2
29	40	1
14	25	1
6	16	1
32	35	1
17	55	1
9	10	1
22	22	1
30	70	1
78	80	1
71	79	3
39	45	1
32	51	1
39	44	2
61	64	1
6	48	1
38	50	1
34	55	1
56	60	1
30	33	2
71	74	1
30	49	1
39	57	1
11	19	1
31	49	1
25	31	1
2	3	2
17	28	2
13	14	1
21	57	1
30	37	1
27	37	1
33	56	1
32	49	1
