24	76	2
144	144	10
107	109	2
22	55	3
46	49	1
143	143	7
81	81	13
102	103	3
103	103	3
92	117	1
69	123	3
26	26	16
78	78	12
100	102	5
94	95	3
18	46	2
78	79	8
26	28	5
81	82	8
72	72	8
49	49	14
36	36	6
138	138	6
83	83	11
17	17	10
38	106	7
70	70	16
48	48	5
2	2	2
95	97	6
122	150	4
104	104	13
35	35	2
67	84	1
41	47	2
110	113	1
41	41	10
133	135	1
68	79	1
4	4	16
42	52	1
6	7	4
44	45	2
110	110	21
68	75	1
7	7	8
18	24	1
121	121	6
128	128	10
81	104	5
84	85	9
127	132	1
127	136	1
75	75	9
63	64	6
56	56	10
35	44	1
83	84	9
76	123	4
34	35	1
132	133	5
20	20	11
116	116	8
68	68	6
14	14	11
82	82	11
63	79	2
154	154	5
148	151	5
119	119	5
149	149	4
100	118	1
127	128	5
65	133	5
147	147	12
42	42	9
13	13	8
35	61	1
23	34	2
29	29	13
87	87	8
15	15	26
123	126	3
97	99	1
5	6	9
20	102	1
130	130	5
76	76	7
112	113	5
97	97	4
94	104	1
40	43	2
113	113	2
79	79	6
123	124	4
65	65	12
29	30	1
135	135	12
37	37	12
39	39	11
35	36	8
63	63	5
29	43	2
115	117	4
112	112	1
6	6	8
74	120	4
34	34	3
17	18	5
69	69	8
138	142	3
100	104	1
141	143	7
151	152	3
137	139	3
28	28	10
145	146	2
118	118	5
74	94	2
142	143	3
47	47	9
51	51	3
38	39	2
152	153	3
24	24	6
9	9	9
14	27	5
131	131	9
136	136	7
16	18	2
111	114	3
81	130	2
32	55	5
54	54	10
153	153	5
98	98	4
57	57	6
22	22	5
13	14	6
26	27	10
3	5	3
102	102	4
46	46	13
152	152	6
94	94	5
19	20	6
64	80	1
10	11	2
86	92	1
66	66	20
34	75	3
38	38	8
134	134	3
106	132	2
74	98	1
8	44	1
80	81	2
110	112	2
135	137	2
145	147	2
149	150	1
96	96	10
80	80	9
25	26	1
22	23	4
43	43	5
41	42	4
76	96	2
73	106	2
21	21	3
36	37	5
87	145	2
96	97	10
55	55	7
121	145	3
21	25	6
139	139	4
137	137	9
114	114	2
93	127	1
64	64	4
18	19	6
111	112	3
82	137	2
76	134	2
50	50	2
8	8	4
50	123	3
19	19	8
125	125	12
62	62	2
68	84	4
31	31	8
32	32	11
139	142	2
48	49	8
120	138	1
72	73	3
73	73	11
49	57	2
95	95	3
49	82	1
132	132	11
72	80	2
103	104	1
53	53	13
92	93	4
6	8	1
113	114	5
106	107	2
36	41	2
109	109	3
145	145	4
122	122	9
84	84	2
86	86	7
6	66	1
67	67	7
54	56	3
27	28	2
125	139	1
27	27	6
102	104	3
11	11	5
100	108	1
92	92	2
5	7	10
74	116	2
148	148	5
85	85	10
93	146	2
80	108	4
77	103	4
99	99	5
119	149	4
63	84	3
128	131	1
139	143	4
150	151	4
123	136	1
115	119	5
106	106	5
151	151	6
147	148	4
95	96	2
48	53	3
40	40	10
88	128	1
150	150	7
52	70	2
73	107	1
93	93	4
62	63	2
105	105	8
94	97	2
3	3	4
7	8	3
141	141	7
20	26	4
124	126	1
126	127	7
4	5	5
74	96	4
18	18	2
123	127	6
65	137	1
33	88	1
135	149	1
16	19	1
134	135	8
111	111	1
45	47	2
105	106	3
50	51	4
35	37	1
125	128	6
30	30	9
117	117	2
74	142	1
124	124	2
8	10	3
127	127	2
129	130	2
10	10	4
115	115	2
45	49	5
75	108	3
86	94	1
9	10	3
30	119	1
20	58	2
111	123	1
11	12	3
147	154	1
36	43	2
58	58	4
91	91	2
23	23	4
101	148	1
107	108	2
95	107	1
135	142	3
8	9	8
49	81	3
38	64	4
8	37	2
86	108	1
33	42	1
61	62	2
44	44	4
70	71	1
12	12	8
62	64	2
31	45	2
126	126	2
94	98	4
15	16	3
108	114	4
20	21	1
6	9	1
41	44	1
45	45	2
101	101	3
103	112	1
12	14	1
45	46	4
141	142	5
77	137	3
87	88	1
26	31	3
62	78	4
39	40	3
31	36	2
27	53	1
92	99	2
82	125	2
74	74	4
73	74	3
21	28	4
13	15	1
50	88	2
124	127	2
25	95	1
75	104	2
24	26	1
16	28	3
108	108	2
63	95	3
71	71	3
22	24	1
24	50	1
77	119	1
62	98	3
12	28	1
45	79	2
105	114	1
55	56	1
31	32	1
90	92	1
76	84	1
24	25	5
140	142	2
12	35	2
123	150	1
27	31	1
121	138	3
66	67	1
87	97	1
46	81	2
67	68	3
94	142	2
75	77	1
76	77	2
147	149	1
82	84	4
47	66	2
107	110	1
69	70	2
109	110	2
125	136	2
98	99	3
74	75	2
14	30	1
98	148	3
31	43	2
116	145	1
69	98	1
115	116	3
16	24	2
77	77	4
33	33	2
16	23	2
9	63	1
81	83	3
83	85	3
37	38	1
33	39	1
81	125	2
43	44	1
85	148	1
52	52	1
123	125	4
12	50	1
136	147	4
34	36	1
50	56	1
117	118	3
92	96	1
13	26	1
25	31	2
12	13	3
25	25	3
28	29	5
140	145	1
100	100	2
63	80	1
42	118	2
81	101	1
120	120	3
44	70	3
146	146	1
68	69	5
75	76	2
82	83	1
125	126	2
38	73	2
111	121	1
93	99	2
46	50	2
142	142	1
65	80	1
103	128	1
63	67	2
80	83	3
98	103	5
99	102	1
91	146	1
137	138	1
37	67	1
46	70	1
121	140	1
103	117	1
129	129	7
69	72	1
68	116	1
136	137	1
11	38	2
53	54	3
120	148	1
16	46	1
41	71	2
112	114	1
16	38	1
134	141	1
44	46	2
140	146	1
75	142	2
125	127	2
125	143	1
51	55	1
71	72	1
54	57	2
144	145	1
5	5	2
69	86	1
23	24	2
92	111	2
23	56	1
6	68	1
65	103	1
140	143	4
97	98	2
39	41	1
63	93	2
75	83	2
88	143	1
54	55	2
41	117	1
72	75	1
117	134	1
94	99	1
123	123	1
129	131	1
54	68	1
30	31	1
126	132	1
9	13	1
29	34	1
85	86	1
39	42	1
116	117	1
84	95	1
12	21	1
45	64	1
17	47	2
72	145	1
13	30	1
102	108	1
108	110	1
