102	103	6
5	5	20
156	156	15
188	188	21
10	10	7
143	143	4
181	181	7
84	86	2
34	35	3
180	180	11
12	54	5
197	197	13
123	123	15
172	172	22
104	105	2
113	133	1
36	36	13
126	126	17
34	34	10
49	49	6
193	193	21
12	14	1
185	185	11
121	121	9
54	137	1
171	173	1
189	189	9
12	12	13
177	177	14
150	150	25
103	103	4
100	101	3
132	142	4
148	150	2
111	111	13
170	170	23
133	133	9
135	136	1
123	124	5
113	113	12
112	131	2
108	115	2
10	12	2
12	47	1
47	47	18
138	138	18
178	178	7
9	169	2
122	122	18
155	155	5
183	183	21
49	50	3
114	115	8
27	30	1
121	123	7
42	42	11
147	166	2
110	111	7
116	117	5
118	119	2
137	137	11
45	45	14
56	57	5
149	149	17
40	40	12
153	153	10
179	179	6
107	107	15
19	20	2
17	17	3
188	189	5
53	54	6
41	42	4
3	4	4
194	194	18
128	128	15
34	38	4
102	104	2
186	187	3
101	111	3
99	99	10
112	130	1
11	12	10
156	157	3
130	131	1
140	140	17
5	21	4
187	187	10
100	100	8
17	18	3
151	151	21
142	147	5
103	105	8
148	148	14
125	125	6
193	194	4
104	104	3
186	186	13
105	107	2
136	136	9
154	155	5
101	101	11
70	71	6
86	86	12
37	37	18
143	144	3
44	44	9
135	135	13
171	172	10
171	184	1
68	68	1
170	172	7
46	47	5
69	70	3
168	168	5
45	169	2
134	134	8
157	157	4
182	182	8
105	118	1
89	89	4
149	150	5
173	173	8
16	16	16
34	36	1
73	101	2
102	102	4
152	152	21
41	41	4
112	113	9
39	42	8
130	130	9
185	186	18
94	94	8
29	167	1
26	26	2
187	189	1
182	193	4
55	55	11
171	183	2
161	192	4
46	46	13
48	48	3
22	22	4
30	137	3
9	11	1
113	124	2
53	53	10
27	37	2
115	115	18
196	196	7
96	96	1
176	176	9
4	6	2
161	161	12
171	188	3
11	13	3
68	69	9
144	144	13
2	4	5
19	21	4
113	114	1
119	119	15
65	65	4
187	188	10
192	192	5
190	196	3
195	195	15
169	169	21
5	8	3
167	168	9
160	160	31
24	36	1
16	18	7
66	68	5
108	108	4
141	147	2
117	117	9
114	114	7
159	165	2
80	80	2
51	51	9
52	53	4
59	59	5
121	122	2
39	39	3
24	37	4
134	135	3
107	111	2
166	166	11
177	193	2
76	76	10
145	147	7
147	147	9
118	120	3
160	163	3
164	164	2
28	28	6
51	68	6
52	52	6
141	141	8
171	171	8
127	127	6
25	25	11
165	166	6
16	17	7
138	139	1
190	190	4
167	167	3
0	0	1
78	78	2
170	171	5
54	70	3
163	163	8
156	164	3
27	27	9
155	157	4
99	100	5
43	57	1
30	169	1
18	18	4
22	23	3
7	20	4
116	118	2
154	154	5
56	56	9
177	178	5
110	110	7
184	184	9
119	151	1
142	142	7
146	146	5
183	184	4
35	35	7
71	71	7
108	110	6
131	131	17
15	15	7
174	194	2
110	115	3
2	2	11
174	174	5
61	61	3
132	132	12
163	165	3
168	169	12
12	13	1
25	29	1
29	31	3
57	58	1
179	181	3
57	57	14
97	99	3
108	109	1
47	136	1
191	191	6
38	40	2
23	23	7
182	183	2
177	191	1
177	188	3
117	121	1
15	16	4
150	151	2
120	120	11
193	197	7
67	68	3
176	177	7
11	11	9
4	4	13
33	34	1
54	54	8
164	166	3
21	21	7
3	5	3
72	124	2
4	42	3
106	106	9
118	118	8
139	139	6
115	149	1
184	194	3
98	99	2
43	43	6
43	71	2
8	8	13
72	72	6
126	127	18
79	79	15
44	53	2
9	9	8
6	7	2
162	164	9
167	181	2
55	72	4
118	151	1
44	57	4
172	183	1
99	132	3
58	58	7
160	166	1
125	126	3
105	105	4
56	109	1
124	124	3
81	93	2
31	32	2
32	187	2
93	94	4
72	100	3
134	143	3
139	140	4
13	13	10
159	168	4
119	120	5
75	75	3
45	160	5
141	145	5
181	182	2
133	134	7
175	176	3
183	193	1
96	118	4
63	63	3
161	162	6
196	197	11
64	64	2
19	19	3
71	100	4
69	83	4
65	66	3
23	24	6
11	14	1
38	38	7
67	67	7
177	187	3
109	116	5
45	64	2
186	194	2
122	123	3
32	32	3
84	87	1
70	70	5
12	53	2
169	186	2
2	3	2
30	149	1
114	148	1
121	129	3
66	69	2
3	3	5
58	71	2
13	14	4
33	38	3
9	15	1
5	6	5
113	149	1
3	27	2
173	192	4
105	152	1
172	177	1
129	129	5
29	29	5
158	158	3
43	100	1
54	55	6
168	177	6
4	5	6
42	44	3
0	1	2
71	78	1
109	110	2
150	165	2
5	39	1
58	59	6
14	14	1
72	78	3
30	30	6
179	180	1
33	33	6
159	159	12
50	51	3
4	8	1
120	125	1
112	132	2
165	167	1
122	124	2
162	162	2
5	7	1
59	104	2
82	82	1
172	192	2
79	80	1
20	20	7
140	143	3
157	174	2
8	20	1
87	87	6
1	1	2
18	26	1
8	33	2
152	166	3
88	89	2
59	62	4
7	7	1
52	58	1
10	119	1
142	143	2
95	95	1
132	133	2
42	43	3
170	180	2
131	133	2
31	31	4
78	79	6
24	29	1
159	161	1
151	153	2
147	150	2
140	141	1
192	193	2
113	115	3
62	62	2
150	186	2
190	193	1
151	152	8
47	48	2
46	57	2
161	178	2
106	109	1
116	116	3
66	66	1
13	37	2
52	54	1
155	156	1
128	129	1
164	165	2
38	39	6
69	69	2
30	31	2
105	111	4
96	122	2
32	36	2
190	195	1
50	50	6
0	44	1
27	28	4
45	121	2
172	175	1
82	87	1
185	187	4
175	175	7
11	37	2
131	142	1
10	11	2
31	51	2
9	16	1
79	81	3
43	44	2
47	49	1
48	52	2
37	50	1
168	181	2
31	42	1
19	25	3
173	178	3
90	90	1
58	103	1
24	25	2
178	192	1
94	95	1
52	71	1
57	69	4
69	73	2
77	78	1
148	149	2
114	118	1
152	158	2
81	81	3
54	63	1
174	175	1
10	54	1
95	96	2
80	81	1
54	56	3
32	185	2
172	196	2
79	85	1
36	54	2
111	134	1
74	74	2
137	138	4
26	36	1
97	98	2
49	51	1
159	187	2
166	174	1
80	84	2
25	27	1
174	190	4
181	184	3
59	111	2
60	60	3
30	167	1
173	174	1
116	119	1
177	189	1
56	58	3
52	122	3
44	71	2
93	93	1
71	72	1
117	118	2
174	187	1
109	109	3
138	146	1
15	17	2
58	64	1
152	154	2
75	78	1
44	114	1
43	53	2
165	165	1
175	177	1
76	78	1
97	97	1
88	88	1
149	151	3
24	32	1
48	49	2
99	131	2
136	148	2
73	86	3
136	137	1
102	110	3
114	116	1
151	155	1
178	179	1
44	153	1
1	44	1
32	33	1
86	87	1
18	25	1
189	195	1
58	63	1
35	63	1
150	162	1
99	102	2
43	59	1
141	146	1
7	8	2
162	163	2
81	82	1
110	114	1
0	9	1
24	24	2
160	161	1
30	32	1
55	56	2
170	179	1
172	173	1
36	67	2
161	168	1
112	112	1
154	172	1
20	22	1
20	21	1
136	184	1
85	86	1
52	115	1
188	194	1
77	79	1
53	55	1
174	181	1
161	167	1
10	14	1
6	6	1
101	115	1
185	188	1
114	149	1
99	115	1
145	152	1
153	154	1
