139	139	8
137	137	9
77	77	8
138	138	11
134	135	3
87	101	3
136	136	5
128	129	6
0	37	1
9	10	2
117	117	3
0	36	1
134	134	9
36	36	8
33	33	6
131	131	15
5	17	3
18	18	5
106	107	10
139	140	4
35	36	8
91	91	4
20	22	2
129	129	2
122	122	7
7	7	5
126	126	7
37	37	4
84	85	2
101	101	5
19	132	5
4	4	6
100	100	14
89	89	8
79	79	9
31	31	6
24	26	2
121	121	3
19	19	1
130	130	6
125	125	8
12	12	7
1	8	2
32	32	6
11	12	6
124	126	1
6	6	5
7	10	6
7	8	3
3	3	7
77	78	3
10	15	2
11	34	1
114	119	5
83	83	3
90	91	2
135	138	1
20	20	9
129	135	3
132	132	15
118	118	4
88	88	4
133	133	9
128	135	5
15	15	8
112	112	2
27	27	7
34	34	4
1	2	1
116	123	6
127	127	9
35	35	4
93	94	2
1	38	3
140	140	13
87	87	6
106	110	1
130	131	2
106	112	2
91	95	3
112	113	1
102	120	4
4	89	4
9	12	2
7	23	1
121	122	2
131	132	3
123	123	7
17	18	4
99	100	9
124	124	16
99	101	3
12	20	3
10	10	3
23	24	7
107	109	2
34	35	2
73	73	3
14	14	3
78	78	8
3	105	5
78	113	1
31	32	2
103	103	4
11	13	3
129	138	1
0	0	2
74	102	8
96	98	2
96	99	2
127	132	3
29	30	1
124	125	7
1	1	5
108	108	2
13	13	7
114	114	9
26	26	3
13	15	2
11	11	1
132	133	7
81	84	3
111	111	7
118	119	2
105	109	2
94	94	1
98	98	2
15	96	3
123	124	1
22	23	2
93	132	1
5	5	2
81	81	4
86	87	3
79	80	1
81	105	2
131	139	1
115	115	5
30	32	1
107	110	1
76	76	1
30	30	4
93	93	1
122	123	2
107	107	1
22	22	1
113	113	2
112	117	1
85	105	1
95	95	1
4	5	2
25	25	1
80	80	2
71	71	1
72	72	3
114	117	2
1	33	1
97	98	2
76	77	2
8	8	3
110	111	1
23	23	2
22	26	1
109	109	3
21	21	1
17	30	1
8	11	3
24	24	1
93	133	1
104	104	1
90	110	1
108	109	1
2	3	2
14	19	2
8	10	1
29	31	1
128	128	4
134	140	1
30	31	1
21	22	1
82	82	2
71	72	3
15	32	2
95	96	2
71	75	3
3	4	2
108	114	2
12	24	1
131	140	1
21	28	1
74	74	1
132	140	1
97	97	1
81	122	2
29	29	1
17	17	1
110	110	1
2	4	1
87	100	1
83	84	1
128	130	1
102	107	1
116	116	1
106	106	1
76	85	1
75	76	1
2	2	1
86	86	1
14	15	1
16	17	1
119	119	1
137	138	1
