92	99	4
114	114	6
26	26	3
77	77	31
101	108	4
84	84	11
29	29	15
20	38	2
102	102	9
76	76	12
55	57	7
32	32	9
99	99	11
107	108	3
22	41	4
64	79	4
69	70	1
39	39	7
33	50	4
82	84	11
41	41	12
62	62	7
27	60	2
96	96	13
98	98	9
74	74	19
61	61	4
109	109	8
21	21	8
37	93	4
109	110	9
81	84	2
71	72	2
73	73	8
42	43	1
31	31	10
56	62	7
46	46	9
104	106	2
90	90	5
36	36	10
79	92	12
82	83	5
59	59	3
28	28	8
91	95	3
33	33	12
113	114	4
93	94	6
80	80	2
68	68	4
35	35	11
97	97	17
43	43	10
24	24	5
78	78	9
19	20	2
72	93	2
23	23	7
112	112	11
69	69	9
75	75	10
86	90	6
72	72	5
113	113	8
63	66	2
70	70	12
92	95	2
78	79	5
94	94	14
32	33	8
91	104	6
66	67	6
30	30	3
95	95	12
38	38	10
26	27	5
57	57	5
44	44	10
63	65	2
31	32	1
91	91	4
33	34	4
83	83	4
110	110	5
91	93	4
45	45	9
100	101	1
51	51	15
98	100	3
37	38	3
72	73	5
79	80	1
104	104	7
90	91	4
101	102	3
48	49	4
53	53	4
92	92	16
20	20	3
38	39	3
40	42	2
100	110	2
44	45	8
80	95	1
54	56	4
64	64	2
28	45	3
103	104	5
54	55	11
23	25	1
103	103	16
80	81	3
30	31	8
25	27	1
80	96	3
92	93	2
82	82	3
105	107	2
26	29	8
22	22	5
51	52	3
87	87	1
79	79	8
34	35	3
88	90	1
106	108	5
96	97	2
49	49	16
101	103	3
53	55	2
56	61	3
57	61	5
101	101	2
76	77	2
43	90	1
60	60	1
108	108	3
112	113	2
99	100	7
100	100	5
91	94	5
54	69	4
80	82	4
48	48	9
65	66	2
50	51	1
39	40	5
50	50	6
65	65	4
102	110	2
40	41	3
59	62	2
41	42	7
24	37	5
77	79	5
40	40	1
42	42	5
95	96	1
45	46	2
56	59	1
21	22	1
77	97	1
67	67	4
53	68	3
52	52	9
58	58	3
55	61	1
47	47	1
63	68	1
27	28	4
88	88	2
43	44	4
106	109	1
81	81	4
46	47	1
63	63	4
44	49	1
54	71	1
58	59	7
56	56	3
79	85	1
25	25	3
110	111	1
89	91	2
86	87	4
96	110	2
87	89	4
91	92	3
54	64	1
35	65	1
27	27	2
76	78	4
46	51	5
111	112	1
20	32	2
28	44	1
104	105	4
80	110	2
90	108	3
32	50	2
107	107	4
36	53	2
111	111	8
87	88	2
36	37	3
19	23	1
73	74	3
44	62	1
23	27	2
79	81	4
33	53	1
75	76	4
65	67	1
78	95	2
94	109	1
74	110	3
105	105	2
35	64	2
25	26	1
62	63	4
93	93	1
87	91	1
81	82	1
47	48	1
68	88	2
69	87	1
88	93	1
56	58	1
41	43	1
97	98	2
54	62	1
37	37	1
23	37	2
59	61	1
63	64	4
89	108	2
24	26	1
91	108	1
102	103	2
46	50	1
35	53	1
114	115	1
77	95	1
102	109	1
54	89	1
65	82	1
93	99	1
35	37	1
106	106	1
94	95	1
