34	35	8
5	5	33
72	74	3
26	26	9
135	135	22
111	111	21
119	119	18
97	97	20
129	130	9
81	81	15
24	76	3
114	114	47
23	23	19
133	134	8
130	130	42
99	99	12
74	74	43
86	86	7
106	106	15
101	101	36
16	16	19
1	4	1
83	85	3
126	126	17
136	136	29
128	128	52
21	21	27
128	133	7
2	2	11
108	109	13
113	113	20
89	89	38
31	32	12
34	34	26
123	123	32
73	73	9
129	129	40
102	111	1
8	9	18
72	73	12
76	76	25
136	138	5
23	24	8
137	137	19
32	32	19
135	136	7
78	85	4
6	10	2
123	124	10
118	119	10
94	94	16
125	125	29
139	139	45
6	6	28
96	97	2
82	83	13
92	97	3
126	128	5
138	138	31
17	17	8
33	33	31
24	75	2
119	120	9
10	11	9
75	75	46
100	100	37
133	133	41
21	23	2
120	121	8
116	116	29
84	84	2
21	22	10
134	134	69
30	30	10
3	4	4
127	129	6
136	139	2
88	88	18
108	110	2
20	21	5
37	37	8
18	19	11
111	113	5
76	77	13
131	132	12
131	131	44
12	12	8
75	76	11
3	3	17
118	118	21
92	92	6
111	112	5
127	128	28
26	27	7
127	127	33
103	103	9
128	129	30
18	18	25
16	26	3
125	127	3
19	19	21
110	111	5
29	29	18
102	102	29
135	138	2
93	93	18
71	71	16
27	27	19
104	104	20
121	123	8
110	112	2
101	102	7
124	124	32
105	105	13
97	98	6
0	1	13
114	115	21
25	25	13
33	34	11
140	140	31
132	133	11
120	120	17
104	105	5
3	19	1
128	130	2
71	72	14
14	14	17
96	98	2
104	116	6
117	117	9
30	31	5
11	12	2
8	8	17
122	124	9
87	87	12
74	123	2
115	115	22
28	108	3
32	108	4
93	96	2
95	95	8
26	74	8
0	0	13
109	122	4
138	139	13
25	27	4
109	110	7
84	85	12
98	98	19
73	116	2
88	89	6
132	132	28
125	126	7
78	78	28
81	83	6
97	99	9
8	10	3
102	103	6
35	35	39
19	20	7
7	7	20
83	86	2
109	109	10
124	125	11
1	1	7
4	4	17
13	13	14
79	79	12
11	11	12
89	90	5
118	124	2
22	22	20
112	113	2
74	75	7
19	21	3
107	107	19
31	31	11
0	5	4
127	130	1
130	131	7
91	91	6
77	77	9
28	31	3
25	26	15
17	19	1
110	110	10
72	72	7
80	82	4
119	123	5
77	102	4
2	5	3
29	36	3
107	109	2
29	32	2
84	87	5
30	32	7
10	24	1
139	140	5
28	86	3
13	14	8
95	96	7
91	92	2
1	2	7
38	38	10
131	134	2
135	139	1
103	104	2
81	82	10
32	33	12
2	4	7
108	108	3
28	28	11
117	124	3
104	107	1
16	17	7
122	122	17
9	9	5
112	112	8
137	138	11
93	94	12
134	135	7
21	75	4
134	138	2
14	26	3
14	19	6
6	7	10
116	136	2
24	26	2
86	87	3
5	6	5
16	19	2
140	141	1
132	135	1
7	11	3
34	91	2
31	105	1
78	83	1
15	16	7
94	97	4
87	88	2
2	3	7
10	12	3
107	108	7
79	81	3
94	95	11
23	27	2
5	12	1
25	74	2
116	117	8
27	32	1
130	132	4
32	35	2
36	36	15
76	81	2
73	79	3
85	85	8
121	121	11
78	79	7
29	30	5
4	5	2
10	10	3
87	93	5
10	20	2
106	107	5
6	8	1
5	7	1
24	25	1
113	114	8
26	29	1
121	122	3
3	9	2
37	38	1
26	98	6
33	91	2
90	96	5
0	2	4
5	18	2
20	20	7
82	82	6
29	108	1
99	100	2
82	84	2
88	92	2
92	98	2
115	116	7
109	121	2
81	85	1
92	93	4
136	137	6
6	12	1
22	23	8
79	80	1
129	141	2
81	102	3
12	13	5
8	20	2
7	18	1
81	113	1
117	119	1
6	9	1
85	103	2
94	96	1
21	77	2
13	19	1
90	90	5
17	18	8
108	120	6
101	103	1
12	19	1
105	106	2
100	101	3
77	78	4
7	14	2
20	22	2
76	78	3
15	15	3
22	32	2
128	132	4
81	111	4
121	124	1
24	27	1
80	80	8
82	112	3
27	28	1
88	112	1
24	24	7
132	134	1
75	101	2
77	79	2
28	30	1
106	108	1
104	106	2
77	112	1
126	127	9
4	7	2
5	11	7
83	84	2
67	83	3
96	96	4
111	117	1
90	91	1
16	21	4
22	27	2
14	15	5
83	83	4
95	98	2
134	139	1
86	93	1
8	19	1
14	16	2
9	11	2
129	140	1
71	73	2
16	27	3
120	122	1
77	111	2
88	91	1
99	115	1
77	81	2
77	97	1
6	21	2
122	123	2
1	3	2
7	8	2
80	81	2
73	74	2
125	129	2
14	20	1
71	129	1
117	128	1
74	120	1
89	100	2
12	15	1
29	105	1
79	100	2
90	98	1
74	124	1
98	99	1
34	90	2
9	12	1
72	103	1
15	20	2
89	124	1
36	37	1
35	36	1
11	14	1
85	87	1
17	21	1
78	81	1
13	20	1
127	132	2
134	136	1
14	18	1
17	90	1
116	128	1
86	88	1
82	85	1
23	25	2
5	8	1
79	101	1
90	94	1
116	119	1
76	80	1
4	19	1
