137	138	5
38	38	11
51	132	3
38	39	16
141	141	20
117	118	9
136	136	5
18	18	4
131	131	4
44	44	9
122	122	3
149	151	3
38	55	4
75	77	11
86	86	6
23	23	22
20	21	3
103	103	2
29	31	3
88	128	1
93	93	14
118	118	9
34	38	3
106	106	12
149	149	14
78	78	11
26	26	20
120	122	5
73	73	8
19	38	1
77	86	3
8	149	6
120	136	3
12	12	15
75	75	6
68	81	4
86	87	2
69	130	3
153	153	6
83	85	6
128	128	4
16	25	5
11	25	4
126	128	1
7	17	8
120	121	10
33	33	12
68	69	10
35	35	18
90	113	1
76	76	9
66	66	7
24	24	20
55	57	3
29	145	2
142	142	8
132	133	3
154	154	4
46	46	21
21	21	7
16	16	7
56	63	3
121	121	9
26	27	1
121	122	6
112	122	4
117	117	8
27	28	10
90	90	5
147	147	4
9	16	3
151	151	12
125	126	2
19	19	14
97	98	7
8	8	6
13	13	18
145	145	6
22	22	11
41	41	9
15	15	4
67	67	22
81	82	7
131	132	11
39	40	8
31	32	2
36	36	16
126	126	12
4	7	12
106	140	5
95	111	3
88	145	7
92	95	10
47	47	4
116	116	10
102	102	8
4	5	13
68	87	3
55	132	2
63	65	5
68	128	3
86	93	11
37	37	14
29	29	4
104	104	6
136	149	2
6	6	9
50	74	1
123	124	2
118	129	5
135	136	3
64	127	2
17	18	3
27	41	2
52	56	1
85	85	8
65	65	3
71	71	12
36	66	4
68	68	13
140	140	3
4	4	13
20	20	5
10	13	1
32	33	3
63	66	1
17	17	24
21	23	9
114	114	6
137	137	6
5	31	2
9	9	18
119	119	4
54	55	6
3	3	9
138	148	6
25	25	14
73	76	9
69	69	11
44	57	9
95	98	17
6	14	8
99	99	14
42	42	12
105	134	6
83	83	12
64	64	3
14	14	22
74	77	2
126	130	1
55	131	4
18	19	3
41	43	11
35	89	2
26	28	3
49	54	7
125	125	9
124	124	8
107	108	1
120	134	5
132	132	3
48	48	5
14	15	10
109	109	12
42	44	1
87	88	1
121	126	1
22	23	5
80	84	4
93	94	3
98	98	10
97	108	2
30	30	6
32	34	1
87	146	2
115	116	5
66	67	2
31	31	8
57	58	2
30	39	3
72	72	4
64	129	1
7	7	7
11	30	3
94	94	3
76	86	7
78	83	7
105	144	7
74	87	4
51	58	3
64	66	6
102	108	1
48	50	2
74	75	5
41	56	2
45	45	7
128	133	2
85	86	7
5	7	8
4	6	5
148	148	5
130	133	4
48	52	1
96	100	3
38	56	1
64	85	1
40	40	10
131	138	6
92	92	3
17	22	4
96	96	14
58	58	8
10	10	12
5	29	9
78	82	2
112	112	5
50	50	8
82	82	9
27	27	9
75	78	4
51	51	3
101	102	3
145	147	3
45	46	4
83	84	8
49	52	5
84	84	13
9	38	5
25	27	7
49	49	5
39	47	2
16	20	4
72	84	3
77	81	5
108	108	17
77	77	15
141	142	3
18	21	2
78	84	2
69	78	3
48	49	2
30	31	3
136	139	6
34	87	1
143	143	4
35	115	2
130	130	9
111	124	1
66	68	4
122	135	1
6	21	3
46	57	2
18	25	2
40	48	2
5	5	6
39	39	10
2	6	1
28	41	8
97	97	7
66	85	3
6	7	5
79	80	1
127	127	4
5	14	1
87	93	1
28	28	11
34	35	15
105	105	9
7	8	4
53	53	10
84	85	5
43	43	10
150	150	15
131	149	1
63	64	8
95	95	8
20	25	2
4	26	3
33	46	4
38	51	1
149	150	3
102	103	1
145	146	5
55	56	2
69	135	3
108	126	5
8	9	2
16	23	2
11	12	5
57	77	6
37	149	7
28	29	2
29	55	2
109	135	3
81	87	3
29	30	2
39	41	2
129	129	7
106	119	2
71	143	5
153	154	3
44	45	2
79	79	2
65	66	4
5	8	2
32	146	1
53	54	7
35	36	5
70	109	2
40	41	1
19	24	6
122	127	5
123	136	1
97	110	3
32	32	7
80	82	5
15	24	4
90	92	3
109	134	2
41	48	8
43	44	3
99	110	3
34	36	3
47	55	2
26	29	2
115	117	3
96	97	1
65	124	3
104	136	3
72	73	9
23	109	2
38	40	2
129	130	4
129	133	1
5	6	8
87	87	2
62	62	5
101	101	1
56	56	8
110	110	6
73	129	2
115	115	6
144	144	10
54	54	3
100	100	7
61	61	2
26	39	2
30	32	5
94	111	9
98	99	2
74	74	6
137	139	1
96	142	1
135	135	6
46	48	1
95	125	3
71	73	2
53	57	3
63	76	1
33	44	2
47	131	5
120	120	6
18	23	4
77	82	1
76	77	3
57	57	5
45	53	1
67	73	1
74	79	3
139	139	5
33	34	2
55	55	3
34	34	4
111	111	2
146	149	2
23	56	2
47	48	2
113	114	5
50	93	2
106	116	1
150	151	5
69	70	1
11	11	7
66	128	2
77	87	2
83	94	1
52	62	3
39	43	3
152	153	4
82	86	6
37	39	3
81	85	3
30	40	1
29	39	7
94	95	5
79	93	5
146	146	10
30	45	1
100	104	1
103	104	1
150	152	1
34	91	1
134	134	3
32	53	1
31	33	1
70	70	4
67	84	2
4	14	3
68	109	5
109	113	1
79	86	5
81	86	1
24	32	5
85	122	2
50	51	2
56	57	1
76	79	2
33	70	2
147	148	2
49	50	3
68	135	2
14	19	1
76	80	2
94	124	1
110	119	2
37	38	1
81	81	7
82	84	1
103	144	3
41	42	5
111	123	2
148	152	1
9	13	3
112	124	2
48	131	1
84	86	1
100	123	2
131	135	1
63	85	1
76	78	3
95	96	4
47	49	2
25	146	2
80	88	1
20	23	2
6	19	3
96	110	1
70	73	2
63	63	4
108	125	3
47	53	2
133	133	2
76	107	1
78	85	1
9	11	4
94	110	2
109	144	1
90	139	1
123	123	6
53	55	1
73	79	5
120	123	3
73	87	2
25	66	1
95	110	2
67	128	1
113	113	3
50	54	1
101	126	1
112	113	2
26	30	3
66	127	1
29	34	2
3	4	1
31	46	3
93	97	1
112	139	2
69	72	3
20	28	1
28	30	2
42	43	7
111	114	2
119	135	3
21	22	1
152	152	3
2	8	2
19	29	1
93	99	1
146	147	2
138	138	8
77	78	3
75	79	4
106	134	2
29	51	1
101	110	3
12	13	5
112	138	2
56	62	3
93	113	3
13	17	2
33	87	1
107	110	2
140	141	3
105	107	2
77	79	2
65	84	3
55	62	2
111	112	3
80	80	4
119	121	2
33	62	2
97	101	4
124	127	2
16	17	4
10	11	5
64	65	2
67	75	1
133	134	1
80	146	3
23	24	3
21	25	1
112	114	1
131	134	4
34	44	1
84	93	2
19	23	2
96	111	1
64	72	1
31	147	3
18	57	2
37	41	1
141	143	2
56	64	2
30	34	1
127	128	6
18	24	2
92	142	4
39	55	1
103	109	1
62	70	3
64	75	2
88	111	1
51	75	1
51	54	1
119	127	1
66	70	2
51	56	1
88	143	2
66	110	1
66	84	1
141	144	1
28	33	1
100	101	1
38	47	2
20	22	1
86	142	2
62	78	2
68	71	1
106	133	1
111	113	1
119	123	1
52	52	4
27	47	1
62	63	1
69	76	1
40	47	1
71	80	1
144	145	2
54	57	1
19	40	1
96	141	1
14	18	1
94	114	1
95	124	1
106	108	2
34	37	1
136	137	2
126	127	2
142	143	1
36	149	1
30	144	2
9	10	1
3	21	2
102	140	2
9	24	1
3	25	2
111	116	1
28	40	1
50	80	1
103	134	1
106	107	1
136	138	2
86	119	1
74	130	1
82	93	1
13	16	1
7	9	1
95	143	1
51	53	1
68	77	1
71	79	1
121	124	1
74	83	1
75	76	1
112	121	1
