21	21	10
27	27	11
68	68	9
0	38	3
141	141	7
83	84	1
62	67	3
24	25	7
135	135	7
149	149	11
91	91	16
172	172	9
22	27	10
19	19	14
114	115	3
19	43	2
141	160	2
87	87	3
26	30	5
19	171	1
113	114	5
93	176	2
87	88	5
73	73	8
3	5	4
121	136	1
25	25	11
36	45	1
3	3	8
10	10	10
7	9	6
154	154	11
151	151	1
169	172	1
5	27	5
28	28	6
139	139	9
66	140	2
95	98	5
93	94	6
16	19	3
2	15	2
17	17	11
173	173	3
39	40	5
56	56	6
31	31	4
40	40	7
26	28	3
5	6	6
30	30	7
10	11	5
6	31	4
149	172	2
32	35	5
88	89	3
78	78	4
117	117	4
8	8	4
25	26	6
95	95	2
43	44	3
129	129	6
86	86	9
118	119	4
24	24	7
112	112	5
152	164	6
16	17	12
5	7	5
115	115	5
43	43	10
65	66	1
6	7	8
116	126	2
61	61	2
120	121	6
160	161	1
177	177	4
165	166	6
0	0	7
118	118	5
168	168	3
20	29	3
179	179	7
34	34	10
44	44	12
18	19	9
80	86	1
45	45	15
134	134	9
38	43	1
11	11	14
78	79	11
15	15	6
117	118	3
41	41	4
150	163	5
158	158	4
174	175	3
74	75	3
17	32	2
121	132	2
38	38	12
166	166	8
104	104	5
95	125	5
4	4	2
173	174	4
28	29	6
60	60	2
176	176	13
170	170	2
42	42	14
16	44	3
133	133	4
9	9	5
15	18	5
20	20	8
170	171	1
88	88	5
149	150	1
10	12	2
114	114	3
51	51	3
142	142	7
101	103	3
19	20	4
1	21	1
22	26	6
39	39	10
77	125	3
172	173	5
148	148	4
74	109	1
5	5	9
10	25	3
97	129	1
63	63	1
138	138	2
96	96	14
22	22	8
156	158	1
54	77	2
176	177	2
88	149	2
44	45	2
161	161	2
32	42	3
8	9	6
1	1	10
113	113	3
67	68	2
9	15	3
58	71	3
167	167	12
37	37	7
24	170	1
106	106	5
6	11	1
163	163	5
29	31	5
30	32	5
115	121	1
178	178	2
6	6	2
52	53	1
157	157	6
155	155	7
165	165	2
155	156	5
136	164	4
2	2	7
3	7	2
15	16	5
14	34	1
150	153	1
119	119	9
160	160	2
33	35	2
32	33	6
125	128	3
89	90	9
12	18	3
10	14	3
15	19	2
89	89	5
33	34	6
36	52	1
128	153	2
100	106	2
4	11	3
18	18	1
163	164	2
116	116	4
23	24	5
33	37	2
1	9	2
167	174	1
101	101	9
12	13	7
77	77	5
103	103	5
151	153	2
102	102	4
4	46	2
171	171	4
123	124	2
55	56	5
93	171	1
0	16	1
1	32	4
98	99	1
177	180	4
153	153	2
3	4	3
81	84	2
13	18	3
35	39	2
140	140	2
14	14	10
26	27	1
11	27	3
43	45	5
62	66	3
140	174	5
144	144	2
109	109	3
132	150	2
126	126	4
55	55	3
80	80	2
64	75	4
43	53	1
0	39	3
82	87	3
64	64	6
37	38	4
99	100	1
143	143	11
75	110	3
24	26	3
56	57	5
60	61	1
31	32	3
29	29	10
5	126	2
79	79	2
146	146	6
87	89	1
2	3	5
35	37	2
8	23	1
2	4	4
50	51	5
123	123	8
0	102	2
101	104	2
33	45	2
121	121	6
150	150	7
98	98	2
113	115	2
154	169	2
32	32	8
160	169	3
24	30	5
9	11	1
125	125	8
7	8	1
127	127	6
130	131	2
130	133	2
26	26	5
83	87	2
59	59	2
61	65	3
36	36	3
175	175	4
81	82	3
121	140	1
20	23	4
110	111	2
17	44	1
4	12	1
7	33	2
157	161	6
10	34	1
8	22	2
34	36	2
14	50	1
164	168	2
116	152	2
23	23	3
143	153	3
75	78	2
27	28	2
83	121	2
1	7	3
15	41	2
116	117	5
156	156	3
74	101	4
30	31	5
130	150	1
90	90	6
54	54	4
13	13	6
114	116	1
121	137	2
177	178	2
14	15	1
153	154	1
9	35	5
4	22	3
111	176	1
137	137	3
85	106	1
129	130	1
129	144	2
145	168	1
96	97	3
143	162	3
152	165	1
154	156	3
88	104	1
36	170	1
74	108	1
130	130	6
86	88	2
153	164	4
152	152	5
97	97	2
98	102	2
108	108	4
18	24	3
54	76	3
150	179	3
91	92	1
9	31	1
115	126	2
16	16	6
37	168	4
110	110	7
133	158	1
99	136	1
22	24	3
98	129	2
147	147	3
8	35	1
122	142	5
94	94	4
6	8	3
35	35	2
22	23	4
7	7	4
107	107	1
50	50	2
36	37	3
118	122	1
149	171	4
126	140	2
134	135	3
162	163	4
14	16	2
174	174	1
0	1	1
140	141	1
9	38	1
34	46	1
82	120	1
122	148	3
97	113	2
83	85	3
14	23	2
105	105	2
132	174	4
169	169	1
83	133	1
92	156	1
176	179	3
12	33	2
117	137	1
71	78	2
123	159	2
11	13	3
121	126	3
135	143	1
97	98	1
165	167	3
71	72	2
121	131	1
168	169	1
38	169	1
63	68	1
92	92	2
142	150	3
145	146	2
7	13	2
96	112	1
92	105	1
65	65	1
76	76	2
73	74	1
100	100	3
75	76	1
21	24	1
74	74	4
23	29	2
88	93	1
155	164	2
33	41	2
81	81	3
167	169	1
15	23	1
135	145	4
135	136	3
65	71	1
19	25	3
71	71	2
33	33	3
32	45	1
12	12	2
106	107	1
107	112	1
146	147	1
100	101	1
102	103	1
122	132	1
146	150	1
91	133	1
158	160	1
111	126	2
5	11	1
76	77	1
81	121	1
123	134	1
86	96	1
89	102	1
110	118	1
143	163	1
114	150	1
41	42	1
15	21	1
31	41	1
79	118	1
3	8	1
164	164	2
20	21	1
59	61	1
66	66	2
66	67	1
74	76	2
8	26	1
92	100	1
51	60	2
23	28	1
82	83	1
103	106	1
13	22	2
159	160	1
114	123	1
124	124	2
90	119	1
128	128	1
67	67	1
62	63	1
122	137	1
19	22	1
115	117	1
129	136	1
93	93	1
7	10	1
5	16	1
135	153	1
103	104	1
107	108	1
31	40	1
20	31	1
29	30	1
