14	14	12
155	156	2
161	161	18
79	80	10
126	127	4
24	25	2
17	18	1
112	117	1
116	117	9
167	167	5
27	27	8
162	163	3
138	138	12
7	7	6
124	125	10
103	103	8
101	115	1
34	34	1
84	84	5
120	153	3
2	2	10
148	148	6
116	116	4
128	128	6
36	36	12
125	127	2
122	135	2
68	69	1
75	75	2
16	16	17
27	30	1
96	96	6
150	153	3
196	196	10
42	42	6
27	28	7
171	172	7
126	126	4
67	68	13
181	181	5
145	145	6
5	5	10
174	174	6
24	59	1
22	22	8
53	55	2
191	191	10
61	61	8
175	175	6
31	31	6
75	76	3
83	83	6
192	192	9
74	75	6
190	190	2
185	188	4
115	115	4
71	71	8
147	147	10
107	111	4
144	161	1
134	136	3
135	137	5
158	158	18
168	168	6
100	100	5
167	170	2
176	177	15
52	52	7
151	151	8
138	156	4
132	155	2
61	138	3
29	29	3
157	158	8
64	66	3
118	118	3
64	68	3
108	108	5
32	55	1
28	28	5
146	148	7
155	155	9
194	194	15
153	153	15
23	40	2
155	161	2
178	178	7
118	121	1
143	143	6
33	33	9
9	9	8
154	154	6
18	29	1
111	111	4
11	11	6
146	147	3
62	62	4
163	164	2
139	170	1
4	5	3
187	187	11
168	169	6
11	12	2
1	1	19
193	193	7
169	176	1
180	181	4
183	183	14
143	144	5
123	123	9
13	14	1
117	117	3
111	122	1
33	37	2
57	58	8
43	43	3
194	196	2
131	132	4
152	159	2
173	178	4
166	167	4
59	59	6
176	176	10
46	46	8
19	19	9
99	99	3
142	142	10
26	26	6
147	152	3
149	150	2
169	169	7
55	55	11
8	8	7
17	17	5
2	3	3
119	121	1
165	165	9
160	160	7
158	159	4
119	119	11
131	131	8
117	122	5
36	37	1
12	12	5
130	131	4
54	54	4
140	165	3
35	37	3
173	173	6
110	110	8
34	35	6
150	154	3
18	20	2
179	179	15
11	14	4
163	163	11
156	156	12
184	188	3
159	169	2
160	161	6
146	146	4
24	44	1
97	97	8
21	21	4
188	188	9
42	44	3
86	87	2
185	185	14
147	148	5
36	40	4
114	114	15
179	182	3
107	107	10
63	63	6
195	195	4
135	151	1
109	111	1
134	155	2
120	122	2
10	12	3
35	35	8
74	74	2
179	180	3
81	81	3
1	3	2
166	171	1
54	55	11
3	3	6
189	189	11
122	122	6
174	188	2
184	184	6
48	48	9
161	175	1
46	47	5
135	136	2
177	177	9
186	188	10
161	162	3
187	188	6
65	65	4
31	58	1
25	25	8
101	102	8
49	49	4
0	2	2
124	124	4
53	53	3
138	139	6
66	68	1
95	95	11
144	148	1
30	30	12
157	166	2
44	44	5
116	156	2
153	154	8
186	187	6
113	113	5
102	115	2
145	146	4
72	72	4
192	193	5
23	23	3
4	4	4
26	27	6
164	164	3
141	141	9
130	130	10
58	61	1
5	7	5
140	140	1
105	148	1
56	56	10
190	191	2
121	121	6
104	152	2
69	69	3
113	140	1
108	112	3
110	112	3
6	6	6
105	105	2
165	172	3
164	169	1
49	50	1
10	10	5
106	146	1
51	51	2
129	134	2
182	182	6
13	13	7
147	163	2
188	194	3
140	147	1
163	167	1
23	25	3
153	178	2
175	177	5
16	20	4
1	2	4
173	181	3
195	196	2
134	134	7
17	19	1
69	71	5
9	10	3
81	83	1
157	157	11
31	32	3
154	155	2
35	36	1
102	103	2
137	139	1
149	149	2
120	120	3
102	102	11
157	180	3
178	180	1
34	74	1
158	167	2
54	56	4
132	163	2
66	69	1
107	109	4
78	78	2
23	24	5
109	109	4
28	32	1
143	145	3
76	85	4
3	7	2
131	156	2
180	180	5
185	186	7
147	158	1
135	135	4
139	139	3
95	96	2
15	16	2
88	88	2
185	187	2
175	178	2
109	110	1
71	72	3
102	104	2
18	18	3
150	150	11
139	147	3
139	144	1
156	158	2
110	117	4
86	86	2
176	178	4
175	182	1
188	189	1
45	46	4
15	33	1
113	123	1
45	45	9
32	32	2
134	135	11
129	132	2
165	183	1
151	152	3
143	178	1
162	162	1
41	44	1
15	15	5
173	177	4
0	80	2
3	17	1
67	70	1
171	171	5
172	172	2
166	166	2
127	127	7
160	172	6
191	193	2
87	87	2
130	136	2
94	97	1
120	121	1
165	166	3
132	133	6
197	197	3
149	170	1
104	104	3
133	145	3
190	192	1
14	15	1
144	145	6
70	70	1
100	101	2
135	147	2
167	168	1
148	177	1
61	75	1
150	151	4
112	113	2
143	160	1
137	137	2
134	138	2
106	117	2
108	116	3
103	105	2
15	20	3
37	38	3
104	105	2
144	146	2
16	18	4
80	80	3
175	176	3
93	125	1
159	161	2
170	170	2
58	58	1
166	172	2
165	170	4
127	128	1
25	59	1
187	189	2
37	37	7
25	30	1
193	194	1
137	157	5
43	44	2
33	34	1
112	124	3
93	93	3
124	128	1
134	137	1
17	31	1
6	21	2
20	20	1
83	84	4
102	151	2
111	125	1
115	130	1
144	144	1
57	57	2
48	49	2
133	133	3
101	101	4
132	132	3
174	175	3
40	44	1
16	17	1
56	57	4
94	95	3
105	114	1
125	125	3
103	104	1
133	138	3
53	54	1
10	14	1
147	150	1
105	106	1
40	41	3
3	192	1
177	179	1
113	115	1
21	25	2
161	178	1
169	170	1
3	6	1
5	8	1
100	120	3
67	67	3
12	13	1
111	114	3
160	169	3
168	182	2
185	192	1
105	128	1
136	136	3
2	7	1
140	141	1
90	90	1
139	140	1
186	186	4
0	4	1
184	185	3
172	173	3
123	124	1
128	129	1
93	112	1
179	185	1
18	26	1
5	197	1
62	73	1
141	143	1
54	57	4
7	192	2
71	73	1
62	74	1
183	184	3
115	123	1
8	23	3
152	153	2
106	106	4
108	191	2
106	118	1
59	61	1
146	151	1
30	32	2
11	13	3
179	181	2
11	112	1
151	153	3
23	36	1
159	159	2
26	28	1
165	176	1
158	166	2
34	73	2
151	155	1
1	4	1
134	152	1
60	62	1
184	194	1
4	8	1
161	176	1
181	194	1
61	62	1
25	26	1
137	166	1
163	168	1
51	52	1
142	143	2
187	190	1
113	116	1
76	87	1
86	88	2
62	63	1
47	47	2
22	25	1
85	85	2
182	183	1
149	162	1
157	159	1
67	69	1
181	182	1
45	56	1
156	157	1
7	8	2
1	78	1
109	112	1
94	110	1
76	76	1
69	70	1
107	115	1
77	79	1
144	173	1
29	30	1
140	171	1
142	144	1
68	79	1
105	129	1
8	9	1
42	45	1
143	163	1
93	95	1
95	109	1
118	119	1
191	192	1
105	134	1
133	162	1
