87	87	5
85	85	5
22	141	2
4	5	8
29	29	7
63	63	13
110	110	12
30	31	5
145	146	3
20	20	7
113	117	3
25	25	3
9	9	5
42	42	13
132	132	8
88	88	15
12	42	4
19	19	11
66	67	3
144	144	12
116	116	15
60	70	1
23	23	10
98	98	3
106	107	3
122	123	2
109	109	14
140	140	16
9	20	2
137	137	27
113	114	5
107	107	1
121	121	12
58	59	2
70	83	6
128	129	1
35	35	5
27	27	6
137	138	5
39	39	9
97	97	3
75	76	5
131	131	25
18	18	11
60	60	12
130	131	11
125	125	13
51	52	9
105	106	3
30	30	15
127	127	18
52	52	3
58	58	9
34	34	3
112	112	4
37	38	1
33	35	2
65	66	4
134	134	9
143	144	2
70	71	1
61	97	1
132	133	6
12	12	5
125	126	16
109	113	4
26	26	6
123	123	2
115	115	7
66	89	1
141	141	14
139	140	12
53	54	2
111	111	14
133	133	8
40	40	13
91	91	26
95	97	1
136	138	6
4	31	1
21	39	4
118	120	1
69	69	12
83	85	2
120	121	1
2	52	2
99	99	7
109	110	4
23	33	3
101	101	11
4	4	8
121	133	2
126	126	10
75	75	12
130	130	3
81	100	2
92	92	10
120	120	7
61	62	2
94	94	6
77	77	14
108	108	5
35	36	4
99	143	1
68	70	5
93	93	5
33	33	12
37	37	24
47	47	3
110	111	9
101	102	5
71	133	2
102	103	4
14	14	6
134	135	6
78	78	7
11	11	6
31	33	4
80	118	6
39	40	5
9	10	1
117	142	5
5	100	3
2	30	1
118	118	3
8	8	4
6	16	3
66	66	8
55	56	3
76	76	10
6	6	6
122	122	8
129	129	16
9	21	1
35	37	1
94	95	3
38	38	11
57	57	17
22	23	4
54	54	6
48	48	13
114	118	3
54	118	1
136	136	8
114	114	11
70	134	1
10	21	9
79	79	8
138	140	1
109	116	3
96	96	6
59	60	4
13	60	1
73	74	8
17	17	11
119	119	15
73	73	9
118	119	7
93	94	4
104	104	5
31	36	4
73	97	3
0	0	5
62	87	6
13	40	1
80	81	4
64	64	9
90	90	7
90	91	1
66	88	1
31	32	4
23	24	1
123	129	4
5	6	5
43	59	5
117	119	1
83	118	2
126	127	6
62	69	4
132	140	2
107	115	1
36	36	3
15	15	5
106	137	3
71	71	4
10	10	11
65	88	2
32	35	1
138	138	6
118	139	2
124	124	8
104	105	6
17	18	5
47	50	1
72	86	4
103	103	7
94	103	1
136	139	2
41	41	9
142	144	1
121	123	2
120	133	1
19	21	3
86	87	5
26	27	1
138	139	6
1	32	4
13	41	3
68	68	7
142	142	12
124	143	1
16	18	4
117	136	1
139	139	1
116	117	3
3	4	7
32	32	8
8	39	5
77	79	4
1	1	2
120	132	2
74	74	5
110	141	1
105	105	6
8	9	6
89	90	6
28	28	10
99	101	6
14	15	3
34	94	5
23	40	3
49	49	4
77	78	4
36	37	7
108	114	7
86	134	3
90	96	1
72	73	4
22	22	7
84	84	2
56	56	4
89	89	7
1	9	2
81	81	5
69	135	2
3	6	7
113	115	3
107	139	1
50	50	2
87	90	2
65	65	9
43	43	7
68	135	3
128	128	8
55	55	10
3	3	3
108	143	1
89	91	2
109	139	1
114	115	1
80	80	8
88	90	5
13	13	2
119	120	4
102	104	4
26	29	3
49	50	6
5	5	6
141	142	1
108	109	2
2	2	3
143	143	2
40	102	1
117	117	8
0	11	1
48	50	3
1	33	1
116	118	1
102	102	4
112	138	1
83	132	2
76	77	7
57	115	1
98	99	4
133	135	1
53	53	4
22	29	2
56	60	2
129	130	3
64	65	1
127	129	2
125	127	3
35	106	2
51	51	1
104	106	4
100	101	2
59	66	3
130	132	1
25	26	12
61	61	3
59	61	2
16	16	4
18	66	1
24	25	1
69	70	5
101	103	1
17	41	1
74	75	2
63	68	1
132	139	1
33	112	2
114	139	3
114	140	5
76	79	1
48	49	4
110	112	1
111	117	2
2	15	3
72	75	1
109	115	4
31	31	4
1	3	1
5	12	1
95	95	5
106	139	2
111	112	2
137	139	1
92	93	3
70	70	8
135	135	1
57	58	1
95	113	1
61	84	6
123	124	6
83	83	1
136	137	1
99	100	2
83	113	2
87	91	1
114	116	2
82	82	3
124	125	2
92	111	3
16	27	4
19	29	4
79	80	2
94	114	6
102	134	4
21	21	3
88	89	4
16	23	4
142	143	1
50	51	1
33	34	3
55	60	2
63	135	2
103	120	1
106	106	3
59	59	5
5	13	2
83	131	1
110	138	2
14	16	5
92	98	1
135	137	2
30	104	1
62	75	2
81	82	2
70	135	2
131	134	2
113	116	2
112	113	1
133	134	3
80	130	1
31	129	2
113	113	3
87	93	1
41	42	2
13	14	1
85	97	1
39	51	1
122	125	1
100	100	2
16	17	1
121	122	2
127	130	2
74	94	1
34	35	1
119	121	1
20	21	1
87	89	1
132	136	2
56	57	1
119	139	1
46	47	3
1	11	1
24	24	1
86	86	3
55	118	3
125	131	1
103	105	2
61	67	2
135	140	1
63	139	1
101	104	5
49	51	1
107	108	1
22	27	1
95	96	2
72	72	5
119	140	1
43	46	1
13	15	1
21	40	1
118	122	1
134	139	1
88	91	3
15	16	1
76	94	1
92	109	1
76	78	1
9	47	1
145	145	3
91	92	2
125	129	1
22	55	1
117	118	3
5	34	1
66	87	1
71	72	1
2	25	1
35	38	1
140	142	1
3	5	1
4	43	1
105	107	1
55	114	1
72	84	1
21	22	1
28	29	2
28	30	1
66	69	1
96	111	1
5	16	1
62	63	1
62	67	1
87	88	1
100	122	1
135	136	1
62	62	1
63	64	1
