81	82	7
123	123	5
87	140	2
56	56	7
31	32	5
9	9	3
37	37	3
39	40	2
36	36	9
97	104	4
47	47	3
5	5	4
97	98	6
38	40	1
66	69	5
63	63	2
109	109	5
81	81	14
48	64	1
130	130	2
35	36	3
98	121	1
134	134	1
34	35	4
143	143	8
132	133	4
16	17	2
67	71	1
141	141	5
36	38	4
63	64	7
84	84	5
150	151	7
130	133	3
7	7	7
81	93	2
39	39	4
70	86	2
48	49	4
75	76	3
26	26	8
30	30	8
135	135	12
124	124	9
85	90	1
104	113	6
6	7	4
96	98	5
12	12	10
97	97	2
95	95	2
3	3	2
22	52	7
103	103	4
120	120	2
79	79	4
54	122	1
37	38	2
115	115	6
24	31	2
54	56	1
28	44	4
131	131	11
27	28	6
128	129	4
19	19	3
87	88	3
94	94	6
42	43	5
125	126	2
6	6	8
87	95	2
15	31	1
114	114	6
128	148	6
22	25	3
108	108	6
106	106	13
71	71	5
76	86	1
127	137	2
49	49	5
6	11	4
17	17	4
5	23	2
45	45	3
73	76	5
5	11	3
134	139	1
49	51	7
46	46	4
70	70	1
65	69	5
11	12	4
118	119	3
94	98	4
98	104	3
36	37	2
38	49	1
131	132	8
20	22	2
38	38	11
99	99	7
6	149	1
23	23	5
67	96	5
142	142	5
36	65	1
153	153	6
79	80	2
50	50	5
54	83	1
21	21	4
25	29	2
27	27	3
128	132	3
20	20	5
107	109	3
128	128	11
6	21	1
19	20	5
127	127	9
11	11	7
31	41	2
110	110	3
61	69	3
6	8	1
77	77	1
16	33	2
17	18	5
16	16	5
44	44	5
117	129	1
106	107	4
26	28	2
77	84	2
5	17	2
142	144	4
18	19	5
87	87	2
145	145	3
96	96	4
140	140	1
12	13	2
99	120	2
54	73	3
98	103	1
133	133	2
137	138	1
32	32	10
118	120	1
110	134	2
15	15	6
30	31	1
127	148	1
139	145	2
65	66	4
20	21	2
74	76	1
19	31	6
11	13	2
146	146	2
18	18	3
138	139	4
139	143	3
55	56	2
76	82	2
31	31	6
6	13	1
8	9	4
84	85	2
53	53	8
65	65	3
148	148	4
149	149	4
101	101	4
85	87	1
21	75	2
17	29	3
105	108	2
14	33	4
99	108	1
3	4	2
43	43	2
119	119	5
73	73	4
80	81	8
82	82	1
109	118	6
82	94	1
152	152	1
118	118	3
52	56	2
25	149	2
85	85	2
15	29	2
22	22	1
78	83	1
105	111	1
52	75	2
29	30	2
8	8	5
100	102	1
53	54	2
150	150	3
21	26	1
87	142	1
12	36	5
91	91	2
2	3	1
100	103	3
143	144	1
71	72	1
23	24	1
13	35	1
64	65	9
68	70	4
78	78	5
62	68	1
83	84	3
40	41	3
107	112	3
56	96	4
12	21	5
7	27	2
105	105	2
102	119	2
58	66	1
88	96	1
55	81	1
7	8	5
35	35	1
129	145	1
72	73	2
68	68	4
51	55	2
56	57	3
12	14	3
101	106	2
14	15	2
5	63	1
107	107	1
11	23	1
111	111	4
5	7	1
25	25	3
45	53	2
33	34	1
74	77	2
101	104	1
41	41	2
75	81	2
129	129	2
62	85	3
149	151	1
139	142	4
111	113	1
112	135	5
38	39	1
16	18	1
146	147	1
139	139	2
33	33	8
33	58	1
119	123	1
72	72	2
21	52	1
129	146	2
13	13	1
36	39	5
4	4	3
5	44	1
132	132	2
26	29	1
116	125	3
122	122	2
93	94	3
98	98	2
24	24	1
10	11	2
41	42	1
69	69	1
119	121	1
49	80	2
98	105	1
37	94	2
136	138	2
138	143	1
66	66	5
105	107	1
26	27	2
142	143	2
29	94	2
95	103	1
73	87	1
13	39	2
121	121	1
108	109	1
63	68	1
77	78	1
66	68	1
20	23	2
93	93	2
11	38	1
126	126	1
5	6	2
123	124	2
25	35	1
67	67	5
103	120	4
101	102	2
54	54	1
63	67	3
87	141	3
80	80	3
18	27	1
128	130	2
78	79	1
125	125	1
42	44	1
86	86	1
138	138	2
124	136	1
115	116	3
27	31	1
74	74	1
40	40	6
8	10	2
137	139	1
130	131	2
52	52	1
32	33	1
65	68	1
33	36	1
14	28	1
42	42	1
14	14	1
62	84	1
95	97	2
86	87	2
10	10	2
103	105	1
57	57	2
28	28	1
40	67	2
29	29	1
119	142	1
102	102	1
32	56	2
6	10	1
64	68	2
99	100	1
125	136	1
108	111	1
47	48	1
116	117	1
136	137	1
51	51	1
91	92	1
129	148	1
148	149	1
64	64	2
7	9	1
24	44	1
35	92	1
62	63	3
47	52	1
105	110	1
21	23	1
9	10	1
147	147	1
100	100	1
16	28	1
10	13	1
48	66	1
139	140	1
86	97	1
50	51	1
