83	85	1
66	82	4
31	31	3
68	70	1
29	30	2
78	79	8
81	81	4
26	28	1
23	51	4
45	46	1
68	68	14
45	45	13
45	48	6
32	32	11
96	96	12
79	100	3
54	55	5
89	89	6
59	59	15
29	29	6
33	33	3
23	23	5
103	103	3
80	84	3
68	94	1
49	49	6
68	99	1
98	98	9
92	93	3
57	57	5
65	85	2
106	106	7
77	104	1
48	48	3
28	30	1
75	75	3
99	99	5
87	98	2
24	24	4
93	94	4
28	28	5
50	50	3
57	58	8
40	40	2
50	61	1
74	74	3
43	56	1
65	67	2
102	102	4
25	25	5
41	41	2
94	94	9
20	32	1
65	102	3
95	101	4
70	71	1
80	81	5
26	26	4
30	32	2
101	102	1
100	100	4
100	105	2
92	92	5
30	30	2
105	105	6
61	61	10
88	89	7
25	29	1
79	96	3
95	95	7
28	32	1
82	82	5
97	99	1
20	59	1
79	87	5
22	47	2
39	39	5
84	99	1
32	34	4
72	73	1
85	85	4
46	46	2
104	104	3
68	69	2
52	53	4
38	38	7
55	55	2
36	36	2
43	43	6
96	97	1
22	80	1
65	65	2
22	67	1
72	72	6
22	22	3
35	35	3
78	78	4
62	63	2
66	66	5
76	76	5
82	89	2
86	97	1
52	54	1
75	82	2
43	44	5
71	71	7
58	58	7
83	83	2
80	80	6
20	20	2
61	62	2
93	95	3
88	90	2
56	56	5
97	97	5
58	59	1
42	42	4
54	54	6
88	88	5
98	99	2
69	69	5
77	77	3
60	61	1
55	103	3
57	81	1
51	51	2
65	66	2
56	57	2
84	84	1
56	92	1
52	52	4
60	92	3
53	53	3
27	27	5
59	79	3
25	100	1
84	85	1
72	104	3
25	27	1
44	45	2
81	85	1
79	79	2
64	70	1
40	41	1
90	90	6
26	55	3
20	21	3
86	87	3
60	62	2
54	57	1
24	67	1
81	86	1
21	21	3
71	72	1
23	100	2
40	42	3
51	101	1
60	60	3
94	97	1
90	91	3
107	107	1
73	73	4
104	105	1
51	60	1
77	93	2
101	101	3
77	78	1
97	98	2
96	101	1
31	32	1
67	67	2
26	27	1
90	92	1
62	62	2
48	49	1
92	97	3
80	94	2
50	77	1
103	104	2
63	63	1
44	49	1
34	34	1
81	96	1
44	52	1
80	97	1
61	63	1
20	25	2
60	72	1
38	39	1
39	45	1
65	99	3
50	51	1
44	48	1
29	31	1
36	56	1
33	34	1
65	98	1
20	31	1
55	56	1
65	100	1
19	78	1
23	52	1
35	53	1
89	96	1
82	87	1
83	84	1
85	92	1
23	101	1
89	94	1
35	36	1
39	40	1
