192	195	3
23	23	17
63	64	15
86	124	6
61	61	24
183	196	3
146	146	7
62	85	2
207	207	16
201	201	19
20	20	14
85	86	5
17	17	12
35	36	4
18	20	2
195	196	9
11	23	1
131	131	14
177	177	28
63	63	32
11	11	53
19	19	29
190	190	20
144	144	6
86	86	22
209	212	3
24	24	18
228	228	22
20	33	2
79	83	10
3	3	21
23	24	4
67	68	6
163	164	3
241	241	7
171	171	17
67	67	16
102	102	16
127	127	11
103	104	11
76	78	10
46	154	1
75	76	1
4	5	10
168	171	1
40	40	44
126	126	12
73	73	21
110	112	2
28	29	3
80	81	12
98	98	11
104	106	5
24	25	13
149	206	2
174	174	18
21	34	4
31	31	14
102	103	16
30	44	4
146	193	6
43	43	41
11	51	1
105	106	7
188	188	7
118	118	15
1	7	4
29	30	20
157	157	6
34	34	11
1	1	10
178	178	19
46	47	13
203	204	8
79	95	1
215	215	8
207	208	10
214	215	4
54	55	5
229	229	12
68	68	14
69	69	30
27	27	31
0	0	21
221	221	10
200	201	3
52	52	17
9	10	9
72	72	10
34	36	4
85	85	19
143	143	30
54	54	15
21	21	10
153	153	15
236	236	14
54	56	5
158	158	6
220	220	19
155	155	6
54	74	5
32	32	18
31	201	2
234	234	12
49	161	4
7	7	15
142	143	2
182	182	11
18	18	10
111	113	1
5	7	2
165	165	21
4	4	13
49	49	6
100	101	5
46	46	26
70	70	23
144	146	4
181	182	4
61	62	10
120	122	3
17	21	3
173	174	7
217	217	11
105	105	10
84	84	6
172	172	9
37	54	5
159	160	9
113	113	17
43	44	7
151	151	7
55	72	3
35	35	13
44	154	2
221	222	13
103	121	3
149	150	8
223	224	5
75	79	3
167	167	5
237	238	5
74	74	28
1	3	3
187	187	5
162	164	1
6	6	3
189	189	14
70	74	4
196	196	16
162	162	5
231	231	11
176	176	12
59	59	10
208	210	1
177	221	3
61	88	1
185	185	4
136	136	12
190	226	2
28	28	28
149	151	3
37	189	6
211	211	12
153	154	7
165	166	8
164	165	5
140	141	2
0	1	9
10	10	17
16	16	16
55	66	1
183	187	3
26	26	20
193	193	6
183	184	2
15	18	4
139	139	9
142	142	19
137	137	28
19	21	1
191	191	13
183	185	8
17	75	2
64	68	3
44	44	30
36	190	1
135	136	12
184	185	4
114	119	7
168	177	5
215	216	9
224	225	12
74	75	8
213	213	13
104	104	5
42	42	25
8	9	9
21	22	6
80	80	9
55	55	16
36	36	14
123	123	9
71	72	10
210	211	5
182	195	2
219	219	18
133	133	17
117	118	8
22	22	10
53	53	17
232	232	13
136	137	3
152	153	1
135	135	11
225	226	6
210	210	11
25	25	16
5	6	6
179	180	5
182	200	1
56	57	5
23	29	2
194	195	5
39	39	25
242	242	16
10	11	8
44	152	1
56	56	14
175	196	4
149	149	3
57	57	10
48	48	4
223	223	17
166	167	9
71	71	12
116	118	6
212	213	3
106	106	20
0	49	1
211	215	6
218	219	7
99	99	17
162	192	5
110	122	1
167	182	6
115	116	8
135	137	2
154	154	10
1	2	6
64	64	26
179	179	8
39	42	1
160	160	12
100	100	9
37	187	5
38	38	19
205	206	3
224	226	6
202	202	12
197	197	12
170	170	24
203	203	12
180	198	2
109	110	6
198	199	3
77	77	5
172	201	2
117	119	6
38	174	3
7	52	3
161	161	15
59	84	1
164	164	11
29	29	27
218	218	10
173	173	11
219	229	3
163	163	9
78	79	5
45	45	15
83	83	15
44	45	5
33	197	3
181	181	17
40	155	1
138	139	7
122	122	6
60	60	11
60	61	1
37	174	7
103	103	13
51	51	12
17	18	4
134	134	16
97	97	8
192	192	5
148	148	13
106	110	1
88	89	1
15	17	8
39	41	2
43	68	2
51	81	2
9	9	18
128	129	4
106	109	2
178	198	3
80	82	4
62	62	15
47	47	13
2	3	1
188	189	7
120	120	1
19	35	5
2	2	6
172	173	3
153	155	5
39	40	8
16	31	3
34	35	2
209	210	3
212	212	20
187	188	8
99	100	3
223	226	2
208	208	5
77	83	3
116	117	12
60	67	3
206	206	4
175	175	27
3	6	5
62	86	1
122	123	3
203	231	3
190	192	2
9	11	4
109	109	16
180	182	1
184	195	5
175	178	3
55	59	2
138	138	7
104	108	4
217	218	5
209	209	7
125	127	3
41	41	16
133	135	6
8	8	8
129	129	11
226	226	14
198	198	18
198	201	2
174	175	5
11	53	4
81	82	2
121	122	1
50	52	7
30	31	5
170	218	2
81	81	3
75	81	1
10	42	6
124	124	6
225	225	8
235	236	10
125	125	4
53	54	7
130	131	3
148	184	2
171	181	5
105	117	1
69	70	7
197	200	1
12	13	7
101	102	6
238	238	16
204	204	16
235	235	6
84	85	9
113	115	1
159	159	12
240	242	2
82	82	5
9	47	2
115	115	8
170	171	17
59	60	5
166	166	9
109	124	4
54	73	1
74	88	2
158	160	2
191	192	11
133	134	5
128	132	1
186	186	10
45	46	14
91	91	4
216	223	3
169	201	1
150	152	2
21	23	3
55	69	3
232	234	3
88	88	15
96	97	8
36	46	4
223	225	1
99	113	1
13	14	5
128	128	9
171	183	3
101	101	12
12	12	5
226	227	13
37	37	7
57	58	3
13	13	4
217	220	2
237	237	2
182	201	4
152	152	6
137	141	1
98	99	8
66	67	12
38	39	6
0	103	1
78	78	11
37	38	8
175	179	9
112	112	4
186	187	4
6	23	2
113	114	7
227	227	9
107	110	3
12	51	6
240	240	7
216	216	5
127	128	3
224	224	9
230	230	16
199	199	7
216	219	3
46	54	8
16	17	5
171	174	2
200	200	8
100	102	1
68	69	3
51	52	5
119	120	6
47	52	1
157	158	8
208	209	7
65	65	8
27	28	5
29	238	1
14	14	14
44	73	3
77	78	1
96	96	11
205	205	7
10	38	2
184	184	4
20	83	1
97	102	4
154	155	8
165	188	5
44	157	1
97	113	1
201	202	5
186	188	2
107	108	8
211	217	2
145	145	4
107	107	8
19	22	2
48	89	1
195	195	8
161	162	5
231	232	1
172	229	1
222	222	5
129	130	5
20	21	5
3	56	3
6	8	1
167	168	7
32	36	4
169	172	3
76	76	1
76	77	5
169	169	6
50	50	3
201	203	2
63	65	2
111	141	1
66	66	4
79	79	3
239	239	7
0	3	4
41	42	3
1	11	5
110	110	3
26	159	3
32	44	2
58	59	2
30	30	11
120	121	2
104	105	4
2	14	2
157	159	4
232	236	2
53	79	3
121	121	16
33	34	3
50	81	3
73	74	8
202	205	2
208	211	3
156	157	2
74	76	3
218	220	2
106	137	4
5	5	3
108	108	4
127	139	1
15	15	7
48	50	3
111	112	3
194	194	10
12	14	6
156	156	3
140	140	5
147	150	4
229	230	3
23	149	2
160	161	3
82	84	4
55	56	5
58	58	8
11	148	3
1	48	1
31	34	4
21	40	1
70	71	3
129	131	1
128	186	1
75	75	11
111	111	11
204	231	2
16	18	5
20	24	2
239	242	2
43	45	2
130	130	6
114	114	6
65	68	2
232	233	3
31	44	2
158	159	4
2	8	4
108	109	2
39	173	6
86	234	4
109	121	1
20	58	2
239	241	4
204	206	5
175	177	1
49	50	2
166	226	2
20	34	1
171	219	2
149	152	3
76	80	2
56	63	4
135	141	1
174	217	1
25	149	2
31	33	7
7	8	5
239	240	2
203	205	1
119	119	4
141	144	1
25	239	1
56	61	4
80	83	2
53	196	1
169	182	3
150	151	1
168	169	3
193	194	1
141	141	5
151	191	2
89	89	5
194	196	3
111	129	1
194	222	5
13	74	3
50	51	5
33	33	7
153	237	2
178	179	1
202	203	5
125	126	4
48	49	1
203	219	1
49	51	5
124	125	6
190	228	2
25	160	1
60	62	4
14	15	3
117	117	4
186	190	2
170	183	1
16	19	3
86	95	2
193	196	2
170	201	3
37	53	1
2	6	2
214	216	1
58	61	1
188	190	1
169	189	1
17	22	1
198	200	2
150	150	10
181	197	2
35	37	1
160	162	2
37	197	2
103	113	1
19	34	1
3	42	1
26	27	1
27	130	2
112	134	2
196	201	2
16	21	5
217	221	2
112	136	1
157	236	3
32	159	1
16	34	1
40	41	6
33	35	3
15	56	1
143	148	1
183	188	3
118	124	1
209	211	3
20	23	2
64	65	2
34	39	1
22	40	2
37	175	1
0	2	1
95	95	1
184	188	3
179	182	2
123	124	4
171	201	3
41	153	2
195	201	1
180	180	3
103	105	2
190	191	1
36	189	3
113	121	1
9	25	1
18	38	2
57	60	2
60	83	1
186	194	1
15	77	1
85	88	1
27	37	3
38	40	2
1	4	2
45	154	2
29	152	3
72	73	1
10	28	1
56	68	1
203	236	1
83	84	1
209	218	2
207	209	2
60	68	1
2	7	1
233	233	4
209	226	1
19	88	2
37	165	4
51	53	2
26	71	2
168	225	1
216	228	1
145	187	1
62	63	4
37	160	5
206	207	1
65	66	1
48	82	1
26	38	1
126	127	2
74	91	4
62	68	2
145	146	1
103	117	1
197	198	1
191	222	1
154	160	1
100	105	1
74	78	1
114	115	1
96	99	1
53	74	1
191	227	1
168	168	2
122	124	1
36	38	1
97	99	1
59	64	1
14	17	2
204	205	2
134	135	1
219	230	1
9	55	1
20	169	3
3	7	3
164	180	1
167	169	1
60	84	2
30	35	1
243	243	1
120	123	1
142	147	2
209	213	1
132	132	1
57	61	1
46	155	1
2	5	1
47	49	1
42	65	1
82	83	1
100	103	1
36	97	1
183	183	2
82	85	1
192	196	1
161	196	2
220	221	1
11	38	1
99	101	1
36	37	2
184	187	1
74	85	2
176	177	1
2	4	1
48	53	1
219	224	2
214	214	2
235	237	1
5	8	3
24	28	1
159	161	1
230	231	1
219	220	3
241	242	1
42	45	1
240	241	2
147	147	1
113	133	1
103	114	1
148	190	1
199	200	1
175	176	1
11	12	1
207	232	1
12	74	1
10	26	1
7	50	1
146	147	1
177	180	1
7	12	2
1	34	2
232	237	1
190	202	1
28	154	1
77	80	1
137	138	1
3	12	1
156	203	1
31	32	2
148	149	1
3	4	1
53	56	1
61	89	1
175	201	1
153	191	1
