89	90	4
33	34	5
87	87	3
44	44	4
31	31	7
54	64	1
38	38	11
39	39	10
46	77	3
101	101	2
74	75	13
77	77	10
49	50	6
22	22	11
61	62	3
40	45	2
93	94	3
79	79	11
50	50	15
98	98	2
26	26	5
50	77	5
23	51	1
73	73	10
103	103	6
36	37	2
78	78	3
92	92	6
62	81	1
51	52	6
97	98	4
44	45	4
21	21	4
75	75	18
100	100	5
81	81	9
53	54	4
49	79	1
70	76	2
30	30	7
58	58	10
47	49	6
55	55	15
62	62	6
57	59	1
52	52	4
28	28	4
70	70	5
35	35	4
104	104	8
24	24	8
94	94	4
96	98	2
66	67	2
105	105	6
41	41	2
83	83	5
50	80	3
100	102	2
50	51	5
29	30	4
51	51	5
74	74	10
23	24	1
67	67	14
65	65	14
68	68	11
25	25	2
33	33	4
37	38	2
56	56	2
72	73	1
42	42	6
69	69	8
99	99	6
102	102	5
40	41	2
60	60	9
66	66	10
68	69	5
19	19	1
54	54	5
80	81	3
31	32	1
67	70	1
82	82	3
53	53	7
39	44	2
92	94	2
91	92	2
56	57	1
63	63	6
24	25	2
49	49	1
98	99	2
65	66	4
70	71	2
85	85	2
81	92	1
64	64	2
22	23	6
30	47	4
25	46	1
82	85	1
67	69	1
40	40	2
106	106	4
72	99	1
97	97	1
93	93	1
36	36	7
95	95	2
33	49	1
81	84	3
91	91	8
103	104	1
52	53	1
104	105	4
84	84	3
34	34	4
80	80	3
27	28	1
26	29	1
66	72	1
37	80	3
59	59	3
76	76	3
75	77	1
92	93	2
23	23	5
67	105	1
21	88	1
61	61	5
101	102	2
39	50	1
84	86	1
90	90	3
30	33	1
19	88	1
82	86	2
52	91	2
79	80	4
39	42	1
36	39	2
59	60	1
67	68	3
66	70	1
77	78	1
21	24	1
71	99	2
81	83	1
56	60	2
48	48	3
69	70	1
46	46	1
76	77	1
24	40	1
27	27	2
94	95	2
45	45	2
72	72	2
67	71	1
89	89	3
82	83	1
57	58	1
78	92	1
74	100	1
73	96	1
94	96	1
22	32	1
88	90	1
72	97	1
96	96	2
72	90	1
62	80	1
88	88	2
47	50	1
47	47	1
60	61	1
22	29	1
42	78	1
42	44	1
66	69	1
44	85	1
