125	126	4
35	36	4
3	16	1
71	72	4
24	24	9
106	106	7
130	135	4
139	139	7
17	17	9
10	10	10
132	132	9
145	145	6
16	16	15
137	148	1
15	17	3
130	131	1
108	128	1
139	150	4
96	96	10
62	62	5
131	154	7
68	68	7
31	32	2
67	67	14
99	99	6
31	31	8
18	18	5
20	21	9
145	146	3
124	124	4
126	146	2
68	89	1
7	7	4
121	121	6
51	52	3
142	143	2
117	154	3
143	143	3
36	40	1
46	46	8
45	45	1
6	8	2
23	23	7
13	16	3
40	41	5
124	126	3
88	88	4
70	70	7
118	119	5
146	148	7
113	125	4
23	64	2
87	88	3
8	8	10
128	128	8
108	108	5
122	125	1
149	149	5
106	111	2
85	85	2
35	35	3
71	71	8
63	75	3
79	79	5
131	131	10
35	40	1
108	109	2
95	95	6
99	101	1
27	28	4
36	36	6
55	55	6
49	49	3
47	47	8
48	49	3
122	123	4
73	73	9
120	121	2
9	9	4
26	26	4
100	100	6
25	43	3
80	80	3
93	93	9
70	71	1
36	37	4
52	66	4
22	23	4
93	95	2
64	85	1
81	82	4
4	4	10
41	41	8
43	43	3
154	154	8
25	65	1
13	13	2
28	28	7
35	37	1
19	28	4
64	64	12
112	151	3
14	14	8
81	83	3
112	126	6
115	115	3
22	22	5
117	117	8
35	39	3
87	87	4
141	143	1
30	30	2
85	93	2
54	55	7
112	113	1
119	119	5
83	84	3
63	72	3
75	75	8
111	128	1
110	114	2
101	101	2
124	128	1
32	32	4
98	98	2
39	39	7
153	153	6
63	63	3
15	23	2
127	145	3
31	39	5
48	50	1
95	98	2
37	37	3
42	44	3
64	65	4
47	63	1
84	85	2
48	51	2
74	74	3
139	142	4
66	66	2
49	54	1
127	127	11
19	19	4
109	110	1
53	107	3
98	99	4
116	116	9
139	140	3
18	19	1
29	42	2
56	56	4
78	78	2
77	78	2
146	146	3
122	122	5
16	27	2
53	53	4
84	84	7
68	69	2
95	97	1
29	29	1
110	111	2
74	76	3
103	103	1
82	83	1
39	40	4
57	57	2
142	142	2
127	129	4
150	150	1
147	148	5
100	106	2
110	110	8
9	10	2
39	82	7
109	109	5
65	66	3
12	135	4
34	81	1
143	144	3
4	5	4
3	11	1
102	102	3
48	48	2
140	140	2
112	129	2
12	12	4
40	40	11
126	127	1
103	107	1
75	76	3
106	107	1
35	38	1
27	30	1
20	20	3
80	81	1
67	69	1
13	141	1
123	125	1
130	130	2
15	16	3
139	149	2
27	37	1
2	31	1
20	117	3
21	23	4
37	38	2
144	144	4
13	14	2
8	9	9
152	154	2
129	135	2
118	118	2
16	29	2
6	11	1
78	79	1
79	82	3
94	99	3
102	109	1
27	27	4
78	99	1
93	94	3
82	82	2
15	15	6
63	67	3
38	49	1
135	135	2
64	68	2
85	86	3
41	44	2
38	40	1
103	108	1
32	33	3
77	77	3
74	97	4
77	98	1
86	86	3
26	28	3
4	15	1
123	123	2
92	93	1
4	150	1
81	81	3
141	142	1
92	100	1
42	42	6
128	131	1
77	86	1
136	138	2
133	133	2
97	98	1
125	128	2
27	139	2
85	89	1
29	43	1
94	94	5
147	147	1
44	46	1
105	105	4
86	88	1
4	152	1
77	80	1
92	92	2
129	129	1
137	138	4
76	76	3
96	97	3
28	31	1
49	53	1
58	58	1
3	15	1
132	135	2
16	45	1
111	113	1
20	29	1
28	30	2
113	113	2
29	31	1
143	145	1
40	51	1
152	153	2
11	11	2
85	87	4
94	105	1
134	134	2
129	136	1
131	149	1
44	44	1
62	63	1
148	148	1
21	21	1
24	25	1
40	42	1
124	127	1
121	122	1
104	110	1
34	34	1
56	66	1
125	127	1
120	123	1
78	80	1
51	64	1
34	82	1
120	146	1
58	78	1
111	111	1
63	64	1
25	26	1
85	92	1
11	13	1
5	5	1
9	149	1
137	139	1
20	22	1
111	122	1
30	42	1
135	139	1
8	14	1
21	117	1
64	66	1
123	124	1
25	25	1
47	62	1
11	135	1
114	114	1
65	73	1
68	87	1
14	15	1
74	91	1
21	118	1
131	153	1
95	96	1
137	137	1
125	151	1
3	3	3
73	75	1
17	26	1
138	138	2
83	83	1
6	6	1
