120	120	5
153	153	10
162	162	2
91	91	6
231	231	5
156	156	8
104	104	4
172	173	3
177	180	2
41	155	4
165	165	4
117	117	10
59	59	5
53	53	5
55	55	12
169	169	6
28	43	1
198	199	8
187	187	6
89	89	5
56	56	3
180	211	5
220	220	14
14	15	4
211	211	11
210	211	4
175	175	12
54	55	2
111	111	8
17	17	6
196	196	6
172	172	11
155	155	10
87	87	5
34	34	4
158	158	12
160	160	6
109	109	16
54	64	2
239	240	2
207	207	8
99	100	5
11	17	2
238	239	8
227	228	1
189	191	1
221	221	5
48	55	4
212	212	7
4	5	4
59	72	4
200	200	8
24	24	6
163	180	1
212	222	3
25	25	4
41	55	1
149	149	5
240	240	5
182	182	8
144	145	2
191	192	8
63	63	7
45	45	4
180	180	3
247	247	4
47	47	6
85	85	6
159	159	5
229	229	13
191	191	5
55	56	6
2	27	2
55	66	2
177	177	4
112	112	8
168	168	8
238	238	16
64	65	2
59	77	2
60	79	1
177	181	9
194	194	7
108	109	9
241	241	11
23	23	7
179	179	6
36	36	3
86	89	2
65	99	1
150	150	7
185	185	6
96	96	5
60	61	4
84	85	4
149	150	3
33	33	3
49	64	2
174	175	1
172	194	2
92	92	3
72	88	3
37	37	4
71	71	4
223	223	3
171	171	6
234	234	9
171	172	1
16	16	2
49	104	3
49	49	9
187	218	2
41	41	3
184	184	5
30	30	7
145	145	8
186	186	11
205	205	5
157	157	7
17	52	2
19	20	3
208	209	6
48	49	2
198	198	5
232	232	9
159	160	6
217	218	2
188	188	9
164	184	6
51	51	5
118	118	7
21	21	5
167	167	4
226	228	1
237	238	1
11	61	3
75	75	4
19	19	5
94	94	9
81	82	1
244	244	15
76	77	4
11	11	9
180	181	7
191	214	2
32	32	3
2	2	5
154	154	12
197	199	2
163	197	1
153	154	2
76	76	13
208	210	1
199	199	6
10	10	5
77	77	5
85	111	2
84	84	5
228	228	5
119	119	3
222	222	3
230	231	3
1	1	1
12	12	5
195	195	2
115	115	6
35	98	2
164	164	9
208	208	6
112	245	2
109	113	3
207	209	4
209	209	10
93	101	1
90	96	2
60	60	2
79	80	1
83	83	4
108	108	8
145	147	1
54	54	2
48	105	1
52	52	8
197	220	3
79	79	2
189	189	10
215	215	4
73	103	2
68	68	8
175	212	3
39	41	3
245	245	10
59	60	4
188	190	4
37	38	1
213	237	3
25	26	3
42	42	4
100	100	9
171	195	4
7	7	6
193	193	8
11	16	2
69	69	4
102	103	5
1	33	1
116	116	8
169	170	4
192	194	4
111	245	2
225	225	5
70	95	4
229	230	1
233	233	3
146	146	4
161	161	7
57	58	2
237	237	2
95	97	1
94	98	1
29	38	2
241	248	2
10	26	2
107	108	3
47	110	3
173	174	5
218	218	6
39	39	5
82	82	5
75	82	1
216	216	5
206	222	1
230	230	5
183	183	1
235	235	5
9	9	5
47	213	2
65	65	4
199	246	2
81	88	5
239	239	6
8	115	2
79	84	2
227	227	6
217	217	8
175	176	4
81	81	7
77	79	1
177	196	3
240	241	1
22	22	6
89	90	7
163	163	4
173	173	8
190	190	5
179	196	2
105	105	3
156	160	2
6	7	3
197	197	9
106	107	5
66	66	7
214	214	4
156	203	2
88	88	6
156	157	3
199	245	1
197	198	3
17	18	1
242	242	7
215	218	2
98	98	1
70	70	8
95	96	7
237	248	3
96	97	1
203	204	3
243	243	2
114	114	8
205	224	2
4	4	9
199	200	3
184	190	1
46	46	3
58	67	2
80	80	8
208	211	5
27	27	6
32	235	3
97	105	2
165	210	3
210	241	1
215	217	4
91	96	2
181	191	1
246	246	5
176	176	5
174	174	8
26	26	1
24	114	1
94	99	1
94	95	1
46	115	3
151	151	7
216	217	4
20	20	6
58	60	1
200	211	1
101	101	4
6	44	3
38	39	1
81	87	2
86	86	5
147	147	4
35	35	2
48	48	2
57	57	2
203	203	7
7	29	2
74	74	2
102	104	1
26	27	2
1	27	2
8	8	6
83	84	1
157	158	2
114	115	2
93	93	2
8	84	1
95	95	4
66	67	3
165	170	3
219	222	3
107	107	2
67	67	4
201	202	2
225	226	1
14	14	3
40	40	3
163	233	1
43	43	10
179	180	4
70	214	3
247	248	4
175	211	3
23	52	2
90	101	2
158	159	5
196	249	3
204	206	2
226	226	3
157	222	2
58	58	2
82	83	1
9	29	1
73	73	3
117	118	1
185	189	2
118	164	5
192	192	5
218	223	1
181	181	4
201	201	7
223	226	2
242	243	2
213	213	8
145	202	1
166	223	1
166	168	2
243	245	1
244	247	4
79	88	1
55	57	3
165	166	6
110	113	1
163	165	1
88	101	2
206	227	3
90	91	4
145	200	1
23	53	2
97	98	3
164	174	2
202	204	1
170	170	5
34	91	1
50	50	3
81	85	1
84	87	1
48	111	2
2	3	3
80	81	4
219	219	4
170	210	2
193	194	4
62	63	2
6	6	1
29	29	2
172	177	1
224	224	1
163	191	2
76	80	5
104	105	1
81	103	2
57	66	2
68	85	1
236	237	3
210	210	4
180	182	1
185	211	2
174	212	4
86	87	1
18	18	5
51	52	1
49	50	1
119	120	1
93	198	1
166	167	1
71	73	1
52	84	2
57	59	1
29	48	5
176	179	1
169	184	1
45	65	1
113	113	2
198	200	1
73	74	3
53	54	1
162	166	2
213	214	1
78	79	3
106	106	4
169	186	2
68	70	1
62	62	1
42	43	1
162	168	1
78	78	1
214	215	1
152	152	3
224	249	1
61	62	1
234	235	1
44	44	4
196	210	3
221	230	1
99	99	2
192	213	2
58	107	3
55	65	2
202	203	1
77	102	1
116	117	2
202	202	1
143	157	1
47	49	1
190	191	2
197	216	2
85	86	1
116	169	1
214	238	1
236	236	2
184	185	1
155	162	2
219	220	1
36	227	1
7	44	1
190	192	1
171	210	2
15	15	2
166	166	1
180	193	1
7	33	1
43	44	1
222	223	2
192	193	1
218	219	1
64	73	1
166	208	1
28	28	1
17	19	2
63	230	1
107	187	2
28	227	1
216	218	1
50	51	1
168	169	1
22	52	1
238	241	1
10	27	1
63	64	2
72	72	1
110	110	1
220	221	1
119	183	1
69	70	1
154	168	1
204	204	1
112	113	1
95	246	1
152	158	1
14	35	1
169	179	1
38	38	1
82	84	1
108	248	1
243	244	1
68	84	1
150	154	1
75	76	1
188	215	1
