97	98	7
20	20	14
33	34	4
103	103	20
2	24	2
129	129	13
68	68	16
10	10	8
127	127	14
72	72	9
37	37	7
95	95	12
119	126	2
83	84	12
83	87	2
124	125	11
56	87	1
69	69	5
75	75	5
62	128	6
3	4	12
70	70	7
108	108	8
112	112	10
76	76	14
74	74	14
79	79	11
96	98	5
36	38	6
85	85	7
60	60	13
11	11	7
88	88	19
119	120	16
7	7	10
84	85	2
120	121	1
105	105	7
122	123	5
43	50	4
86	86	7
122	122	8
128	128	8
27	27	9
65	65	8
53	53	10
116	132	7
1	1	6
120	120	12
111	118	8
14	14	14
84	84	6
101	101	12
29	30	3
57	57	13
54	54	5
73	73	13
106	107	3
80	82	3
26	26	4
43	43	10
104	104	7
52	55	9
124	124	9
21	22	5
53	130	13
55	134	3
65	106	5
102	127	2
52	52	8
70	72	2
5	5	24
58	87	3
15	16	8
84	86	3
53	99	1
107	107	5
115	115	9
120	124	2
71	72	1
127	130	1
47	47	3
125	125	7
61	61	7
82	83	1
132	132	12
77	77	13
117	117	8
3	3	4
62	63	14
2	2	10
58	58	9
77	126	7
118	118	13
82	106	2
33	33	5
62	62	14
86	87	4
98	101	1
10	11	1
97	97	10
117	130	6
81	120	3
74	75	3
6	6	6
9	9	5
4	4	10
49	49	7
89	89	6
80	123	2
133	133	10
45	45	14
55	55	3
50	128	2
113	116	3
130	130	8
98	98	12
90	92	2
14	15	4
93	94	2
67	68	2
67	67	9
76	89	3
81	94	1
80	80	12
28	28	7
29	29	2
131	131	2
92	92	8
107	109	1
93	93	14
15	21	1
89	95	4
100	100	6
32	32	12
87	87	11
25	26	6
50	50	20
126	126	5
90	90	5
59	127	2
87	88	4
82	82	11
121	121	13
83	100	4
113	113	6
5	28	2
77	112	1
126	127	6
23	23	9
31	31	10
1	2	2
78	78	8
88	102	3
94	125	3
110	110	10
21	21	10
99	99	15
59	60	2
77	78	4
124	130	3
119	119	9
6	7	3
50	51	3
20	22	2
0	2	2
116	133	2
47	100	3
95	107	1
51	54	3
61	103	4
60	102	2
19	21	4
31	32	3
70	71	4
56	57	3
64	64	8
47	51	1
22	23	7
115	117	1
55	56	5
103	104	2
35	35	6
16	34	1
59	59	9
61	81	1
96	96	1
10	107	1
127	128	8
15	33	1
34	34	3
123	123	7
18	20	1
97	111	4
113	114	5
83	83	10
77	89	3
8	8	2
114	114	3
111	113	5
90	126	1
58	83	1
64	65	7
79	113	2
47	52	4
57	58	4
9	36	4
109	111	6
78	127	1
91	91	6
1	3	1
36	36	3
108	111	6
44	44	4
119	132	2
115	129	2
5	6	4
64	68	8
116	117	1
89	126	2
16	16	4
106	124	1
56	91	4
58	79	3
16	33	1
9	37	4
130	131	9
2	3	5
38	90	3
56	56	6
28	30	2
81	99	4
103	128	1
46	52	2
81	125	4
48	99	3
96	107	1
86	89	1
53	93	2
118	130	3
109	109	9
116	116	4
0	48	1
54	55	3
95	99	2
7	52	2
108	109	5
79	82	4
115	116	2
76	77	2
134	134	5
131	134	2
79	81	2
131	133	1
3	80	3
70	121	1
78	79	4
108	110	1
72	112	1
15	20	1
59	62	2
49	50	1
53	54	1
96	102	2
69	109	3
46	46	3
88	120	2
94	94	9
18	18	4
79	131	1
118	119	1
46	47	1
55	64	2
101	126	2
83	97	1
110	118	1
123	124	2
63	63	3
86	133	2
0	25	2
113	115	2
105	106	4
19	19	5
111	111	7
47	59	1
59	95	1
30	31	1
18	34	3
70	74	2
77	79	4
60	116	2
83	96	2
82	85	2
117	118	2
2	5	4
30	30	3
121	122	2
56	81	2
54	56	1
109	135	2
80	115	1
112	113	3
101	124	1
98	99	1
99	106	1
79	123	3
54	66	2
63	65	1
62	81	4
18	27	2
13	13	1
108	132	4
53	57	2
68	114	2
18	19	1
123	125	3
121	132	2
44	45	1
12	12	1
57	88	1
62	104	1
50	78	2
11	97	1
36	117	1
68	84	1
63	66	1
53	94	1
114	117	1
56	58	1
116	128	1
100	106	3
17	35	1
119	133	1
0	0	4
77	125	3
70	75	1
125	126	1
9	10	2
84	98	2
27	29	1
36	37	1
106	106	3
59	61	1
66	67	2
1	4	2
52	54	1
62	101	1
101	128	1
110	111	2
77	124	1
43	95	1
107	123	1
117	131	1
13	35	1
68	118	1
0	24	1
112	123	2
52	93	2
80	81	1
15	15	2
123	129	1
7	9	1
63	64	3
135	135	2
16	20	1
76	90	2
130	133	3
17	17	1
71	71	2
61	127	1
65	67	1
88	104	1
102	126	1
109	110	1
118	132	1
55	66	1
79	80	1
113	124	1
54	88	1
63	127	1
22	22	2
92	130	1
52	53	1
66	68	1
9	109	1
57	59	1
21	23	1
43	44	1
128	130	2
9	11	1
108	117	1
88	106	1
77	127	1
64	67	1
101	135	1
107	108	1
102	102	1
