3	3	16
121	121	9
57	62	9
155	157	1
1	1	10
123	123	12
146	146	16
150	151	9
16	17	4
170	170	6
97	97	19
107	107	8
37	37	7
13	13	4
69	69	7
148	148	15
160	160	18
126	137	3
36	37	4
107	108	4
34	34	11
17	17	17
46	53	1
53	54	5
7	7	18
110	110	9
40	40	17
64	64	23
104	104	5
131	168	1
74	74	9
105	105	16
94	159	2
24	24	7
19	19	9
93	93	4
156	156	11
55	55	10
46	46	14
84	84	21
117	117	20
87	88	1
76	77	9
51	51	3
132	133	2
136	138	5
90	91	10
48	49	2
36	36	15
98	119	2
137	138	2
118	118	19
142	142	7
45	45	14
98	99	6
74	120	2
136	167	3
85	85	14
70	77	2
115	115	15
11	11	16
9	9	11
20	21	1
8	102	2
143	143	20
77	77	5
82	83	1
81	81	14
155	155	12
13	15	1
19	21	2
102	102	11
140	141	3
68	69	2
135	137	1
124	125	9
22	23	6
145	145	4
18	18	15
7	10	1
1	13	3
78	78	6
44	44	8
129	129	6
149	150	3
134	134	10
85	86	3
41	41	12
144	144	8
99	118	2
23	23	8
108	108	15
24	25	5
14	17	5
150	150	18
89	91	2
165	165	9
12	12	3
12	13	7
159	163	1
88	88	9
24	81	7
100	101	4
51	83	3
53	53	12
91	93	2
4	4	5
14	14	14
98	98	2
55	57	3
120	120	6
44	46	2
128	164	2
20	20	7
169	169	7
140	140	5
136	149	2
89	89	17
10	10	7
46	47	6
25	25	7
75	75	4
22	22	8
99	99	8
138	157	3
151	156	2
139	139	19
95	95	6
165	166	12
86	86	9
133	133	2
8	10	3
130	130	6
76	76	10
97	115	2
72	72	9
152	153	1
44	47	3
119	119	6
90	90	5
3	4	4
101	112	1
127	150	2
69	88	1
77	78	4
71	72	9
79	79	6
34	35	3
127	127	16
5	20	1
26	82	2
11	12	4
49	49	15
110	128	3
110	111	8
161	162	2
28	35	4
62	62	5
38	38	9
77	80	1
85	125	2
48	48	5
136	136	8
131	131	5
99	113	1
74	99	2
37	38	4
63	63	6
149	149	11
99	112	2
39	39	6
106	106	9
100	100	5
164	165	6
27	27	10
111	111	4
76	79	4
83	83	13
151	151	7
147	147	8
117	126	1
87	87	6
15	18	2
88	89	5
71	71	6
2	2	11
16	110	1
6	7	1
56	108	3
50	51	4
52	128	2
28	28	10
166	167	4
154	154	5
23	24	1
43	43	8
13	16	1
85	87	2
78	136	2
80	80	14
110	136	3
131	132	2
95	133	3
23	55	5
15	15	8
112	112	5
16	16	9
137	137	8
152	152	4
92	92	4
164	164	7
120	121	4
94	95	3
116	118	1
27	118	3
108	138	4
55	56	2
132	132	10
8	83	1
162	162	8
35	35	6
54	55	1
137	149	1
99	105	1
14	16	4
72	77	1
37	40	1
127	128	3
64	106	2
7	79	4
52	53	3
70	70	9
35	36	5
49	82	6
44	54	3
109	110	8
0	0	3
161	161	3
11	35	1
81	82	3
74	98	2
21	82	4
126	126	4
113	113	6
56	56	9
52	52	13
15	16	3
97	99	5
70	100	1
42	42	19
57	57	7
70	102	1
73	90	2
0	110	2
145	148	1
54	56	2
112	114	3
114	114	5
8	8	15
28	110	3
121	122	2
67	68	5
96	96	6
82	82	15
153	153	6
135	135	6
23	86	5
81	128	1
4	70	2
39	40	3
126	127	3
4	5	1
52	126	1
21	21	11
70	71	1
47	48	3
54	54	9
50	50	6
64	68	2
163	163	7
1	19	5
39	41	3
122	122	5
13	14	2
96	99	2
158	158	5
128	128	7
67	88	2
159	160	1
8	9	4
89	90	6
103	104	2
41	42	3
58	58	1
81	106	1
5	5	6
106	119	1
0	1	2
100	112	1
118	123	3
119	121	2
34	113	5
113	116	1
35	38	2
49	50	5
1	21	2
91	91	3
111	166	2
73	73	9
141	141	2
109	109	8
135	136	5
86	88	3
81	84	4
130	133	2
5	6	2
115	116	5
47	47	14
11	14	2
112	113	6
6	6	5
142	144	1
28	169	2
107	114	2
110	168	1
91	92	2
12	112	1
38	39	2
151	153	1
128	129	1
57	74	3
157	157	4
143	146	3
19	20	2
57	63	2
69	105	1
138	139	9
168	168	4
9	21	3
118	119	1
39	51	2
13	18	2
116	117	4
38	41	3
5	9	1
119	120	3
108	109	3
1	3	1
139	140	3
159	159	4
104	105	2
21	22	2
96	97	1
26	107	2
139	142	1
74	75	2
5	27	2
75	76	2
107	166	1
155	156	2
71	111	1
138	158	4
2	3	3
57	80	1
51	52	2
33	43	2
14	18	1
37	39	3
25	43	1
100	129	2
116	116	6
49	54	1
69	70	3
57	68	5
4	69	1
153	154	2
56	64	1
138	138	3
110	137	2
14	20	1
154	155	1
125	125	4
24	55	1
71	82	3
135	138	1
167	167	1
17	18	1
23	63	1
129	132	2
83	84	5
56	57	1
9	10	2
138	150	1
95	116	3
13	20	2
99	119	1
58	63	1
114	128	2
116	127	1
100	130	2
33	34	1
100	102	2
85	98	1
40	45	2
110	112	1
106	163	1
1	106	1
71	74	1
1	2	2
100	115	2
116	151	2
19	84	1
74	92	2
7	83	3
168	169	2
48	50	2
63	95	3
68	70	2
19	82	2
53	128	2
20	24	1
166	166	1
101	106	2
105	106	1
48	53	1
152	166	1
66	69	1
24	43	1
129	130	1
47	49	1
157	158	1
106	164	1
142	143	2
99	100	1
158	162	1
63	64	1
62	63	2
53	64	2
129	133	1
40	41	1
14	15	1
78	85	1
75	85	1
63	86	1
121	123	1
124	124	1
163	164	1
93	95	1
3	111	1
135	162	1
7	8	2
136	137	1
81	101	1
27	28	1
42	43	1
16	109	1
24	56	1
18	19	1
16	20	1
123	124	1
53	88	1
111	112	1
144	145	1
