72	72	7
59	60	3
27	28	2
70	70	6
49	49	11
25	25	2
69	69	7
35	36	1
94	97	1
43	45	1
85	85	5
54	55	7
98	98	11
61	62	6
76	76	3
56	56	4
43	43	3
88	88	5
35	35	3
36	36	5
45	90	1
92	92	8
46	46	14
74	74	11
58	58	7
56	79	1
99	100	3
50	50	7
36	37	5
38	38	6
90	90	14
99	102	1
85	86	4
42	42	10
73	73	5
101	101	16
33	33	3
65	85	1
61	61	5
67	67	9
91	91	7
71	77	8
75	75	16
33	69	2
64	64	4
48	48	9
54	54	5
69	70	7
90	91	2
39	39	4
68	68	7
89	89	5
90	92	3
23	23	1
53	54	1
28	29	2
48	49	2
66	66	9
95	95	6
97	97	7
63	63	8
60	60	13
25	26	11
65	66	4
33	39	2
68	89	6
101	102	3
78	79	4
45	45	6
23	55	4
40	42	2
62	63	4
94	96	1
96	96	9
44	44	5
90	99	2
52	99	4
47	47	8
26	26	3
55	56	4
34	34	4
51	51	8
58	59	6
55	55	3
95	96	12
32	32	1
86	86	3
68	69	4
93	94	3
57	57	11
87	87	11
65	65	11
37	37	6
22	27	1
41	41	2
99	99	6
81	81	6
35	92	2
33	71	1
71	71	6
47	48	4
63	64	3
33	38	3
20	22	5
66	68	2
28	28	9
80	80	6
82	82	4
57	62	2
56	57	3
100	100	9
30	30	4
77	78	8
52	57	1
62	62	2
59	59	7
53	82	1
33	34	1
86	87	2
34	90	2
51	52	1
22	23	4
24	24	5
86	88	3
64	69	1
22	22	9
70	72	3
87	88	3
84	84	8
52	52	10
57	61	2
53	53	3
73	78	1
52	78	3
29	29	1
79	79	5
72	75	1
92	98	3
42	43	3
62	65	4
92	93	2
24	25	1
26	54	1
71	74	2
23	24	2
53	95	3
78	78	5
40	40	5
66	77	3
81	84	1
94	98	3
77	77	6
70	71	1
83	83	1
60	62	2
36	38	1
49	50	1
79	82	1
36	79	5
74	78	1
46	47	1
81	82	1
53	56	1
58	60	1
81	93	1
34	39	3
28	56	1
21	22	1
80	84	2
93	93	2
41	50	1
66	83	1
80	81	2
26	55	3
33	36	1
54	56	1
51	64	1
52	95	1
39	50	1
76	77	1
74	86	1
38	39	1
69	71	1
68	91	1
61	65	1
71	72	1
27	27	1
94	94	1
58	72	1
97	98	1
75	76	1
20	26	1
91	93	1
