68	79	2
99	100	3
61	61	5
74	74	3
83	83	5
0	0	9
189	228	1
18	19	2
16	16	2
51	51	3
104	122	1
17	17	3
148	148	1
81	82	1
55	55	3
2	2	6
123	123	6
127	127	7
98	98	4
37	37	4
239	239	2
20	20	2
190	191	1
80	81	1
164	164	1
51	54	2
45	45	1
183	183	2
5	19	2
145	145	3
68	68	10
196	196	5
49	88	4
102	102	6
203	203	4
188	189	3
84	121	3
46	46	4
163	201	1
9	9	4
199	199	4
1	1	5
115	115	1
15	15	1
226	227	3
192	193	2
77	79	1
124	124	1
221	221	2
57	81	5
14	14	7
193	200	1
41	41	3
83	227	1
35	36	5
176	179	2
78	78	5
172	206	4
236	237	1
216	216	6
57	58	1
69	69	2
81	81	4
30	142	1
33	35	3
160	160	1
47	47	1
36	36	4
67	67	6
104	104	2
14	50	3
111	130	4
211	211	2
225	226	2
184	188	1
29	85	1
241	242	3
182	183	1
206	206	5
120	120	2
225	225	8
38	38	8
194	194	6
62	75	3
20	22	4
235	235	2
100	204	2
17	18	1
136	137	4
58	58	3
186	222	1
79	79	3
155	155	3
200	200	1
178	178	2
19	20	1
79	104	1
195	195	2
157	157	3
2	20	1
19	19	1
181	182	1
34	36	1
201	201	3
52	52	5
125	125	9
40	40	3
82	228	4
12	26	2
197	197	4
116	116	3
175	175	2
21	21	1
34	34	5
124	126	2
199	200	1
150	152	3
48	48	2
150	150	2
216	223	2
107	107	3
122	169	3
126	126	5
184	186	1
71	71	1
186	186	3
177	177	3
122	122	4
193	193	5
81	118	3
166	195	1
102	105	2
127	200	3
135	135	6
37	157	1
229	229	4
194	196	2
165	165	2
178	183	1
83	139	1
167	167	4
210	210	3
156	157	1
161	161	1
191	205	1
0	1	1
127	199	2
211	228	1
65	67	2
105	110	3
165	200	4
150	151	1
56	56	6
63	75	1
26	26	5
24	30	2
23	23	3
133	134	2
14	18	1
39	39	3
195	196	2
158	158	7
8	8	4
103	121	4
10	10	2
188	188	1
12	12	4
208	208	3
29	29	4
73	73	1
171	177	3
53	96	1
84	84	3
214	214	5
214	215	1
107	125	2
137	137	2
117	130	4
18	37	1
14	16	4
184	185	4
184	184	1
179	188	1
104	123	1
66	68	1
31	31	1
170	170	1
180	183	1
72	125	1
22	22	3
41	107	2
228	228	7
112	112	5
227	228	2
23	129	6
80	80	1
44	45	2
44	44	3
57	79	1
164	166	2
77	84	3
58	91	2
33	162	2
9	241	3
186	187	1
215	216	1
66	66	3
239	240	2
99	99	2
24	74	1
188	223	2
34	95	2
117	118	5
37	44	2
136	136	3
6	6	2
227	227	1
58	60	1
72	72	3
63	63	2
3	34	2
22	23	5
72	73	1
168	169	4
64	74	3
13	15	1
54	54	4
4	4	1
133	178	1
116	117	1
180	180	4
46	71	1
164	165	4
7	8	2
85	85	1
114	114	2
210	212	2
202	202	1
140	140	4
30	32	4
32	32	1
108	114	3
207	207	3
237	237	1
159	159	2
22	127	2
209	209	1
130	134	1
238	238	2
39	40	1
120	121	1
211	217	2
33	33	5
156	156	2
32	33	2
217	217	2
201	232	1
152	153	1
223	223	4
8	68	1
207	209	2
2	33	1
106	118	1
135	137	1
79	80	2
59	60	1
69	206	2
42	43	1
155	156	1
233	234	1
8	233	1
60	72	3
69	74	2
196	197	1
48	102	2
171	172	1
231	231	1
114	125	1
225	227	1
163	163	1
71	74	1
147	148	1
37	38	2
64	64	3
123	142	2
211	225	2
26	41	2
141	154	1
60	60	4
5	33	1
113	121	1
100	100	1
24	24	1
202	233	1
172	172	3
173	179	1
39	96	1
43	43	1
143	143	2
219	219	2
190	190	1
121	121	3
81	142	2
105	105	1
8	14	1
138	138	1
65	65	1
235	237	2
153	153	1
24	182	2
172	191	2
220	220	1
170	185	1
212	213	1
108	118	1
53	55	1
114	169	1
128	198	2
80	82	2
66	67	1
11	12	2
163	166	1
191	191	1
127	198	2
210	216	1
30	30	1
35	38	1
34	35	1
70	70	2
205	205	1
107	114	1
134	134	1
79	103	1
82	82	2
125	126	2
30	31	1
129	129	1
48	49	1
62	62	1
148	151	1
3	17	1
25	25	1
153	162	1
122	126	1
118	153	3
3	16	1
20	192	1
206	208	1
17	32	1
109	109	1
209	210	1
27	28	1
130	137	1
128	128	1
5	6	1
31	32	1
170	199	1
48	101	1
40	124	1
104	105	1
3	25	1
222	223	1
185	185	1
116	130	1
57	82	1
