114	114	7
116	116	4
3	4	2
2	2	8
146	147	1
40	41	5
55	56	3
169	169	6
95	95	4
137	137	6
145	145	5
74	74	2
46	46	6
154	154	9
134	135	4
150	152	2
157	157	10
36	36	20
55	55	9
57	62	1
159	159	7
35	35	10
43	43	4
131	131	3
69	69	3
18	18	4
137	148	2
52	52	8
47	47	7
161	162	6
63	63	11
91	91	4
10	10	7
81	106	1
3	3	12
67	67	1
111	112	1
64	64	6
129	129	5
72	73	5
8	8	6
101	101	2
105	105	4
33	33	1
79	79	7
126	167	4
16	16	4
138	139	1
4	5	4
13	15	2
150	150	7
17	18	8
63	69	2
61	62	2
134	134	6
5	5	5
9	9	18
110	110	4
54	54	6
18	20	1
148	148	5
156	156	11
44	44	6
21	21	4
65	65	3
48	48	7
83	83	8
132	132	11
71	71	3
88	88	10
119	120	2
76	80	1
107	108	3
23	24	1
128	128	4
37	38	4
24	25	6
4	4	12
62	62	5
92	93	4
89	89	7
7	55	2
113	150	3
37	37	7
158	167	5
62	63	3
52	57	4
117	154	1
111	111	6
76	76	4
25	25	6
151	152	3
73	73	3
35	36	4
160	160	3
155	155	5
170	170	3
121	121	10
167	167	7
102	102	5
38	41	1
97	97	5
110	112	2
143	143	6
23	23	5
156	165	3
46	47	4
66	71	3
93	95	4
38	38	5
6	6	8
53	53	4
147	166	2
93	93	1
96	97	2
57	57	2
74	75	1
152	152	11
2	3	2
40	45	1
99	100	1
72	72	1
0	2	1
66	108	1
82	89	3
114	115	3
20	20	2
156	157	5
147	147	2
151	151	2
77	78	3
12	12	2
47	49	2
75	76	3
34	34	4
66	66	4
41	41	4
8	10	1
8	11	1
106	106	4
118	118	11
87	87	3
79	80	2
98	116	1
164	164	9
7	7	3
129	130	3
162	163	4
140	140	4
42	42	7
132	133	6
110	111	3
123	124	1
8	13	5
169	170	2
114	116	1
99	99	3
23	62	2
165	169	2
115	115	3
118	123	2
143	144	1
18	63	4
124	124	2
119	119	2
49	50	3
13	13	2
77	77	1
127	127	3
67	68	1
90	90	5
114	117	1
144	144	3
78	84	1
149	157	3
118	119	4
22	86	1
149	149	3
45	64	4
24	24	4
103	103	3
130	131	3
63	64	3
152	153	2
11	15	2
98	98	1
158	158	4
3	6	1
22	24	3
133	133	2
33	34	1
166	167	2
84	84	1
80	139	1
136	136	6
163	164	1
76	99	1
112	112	5
116	117	2
45	46	2
122	122	1
121	122	2
45	45	9
78	78	3
162	164	2
100	100	3
23	25	2
85	86	1
56	56	1
75	75	2
1	1	2
142	145	2
39	40	2
143	152	1
0	0	2
122	124	1
24	27	1
109	109	4
107	107	6
26	26	2
9	10	2
125	125	2
102	124	4
15	15	3
39	39	3
13	14	1
8	9	2
109	110	1
164	165	2
65	66	3
52	64	1
47	48	1
11	12	2
121	126	2
117	118	2
138	138	1
26	53	1
50	50	2
9	14	3
137	138	1
19	23	1
67	69	1
140	141	1
5	7	3
38	39	2
65	107	1
77	80	1
165	165	2
4	6	2
130	137	3
44	63	1
22	22	1
46	62	2
150	151	1
158	160	1
112	113	3
45	47	2
82	82	2
155	156	1
155	164	1
14	18	2
146	146	1
35	107	1
87	88	1
130	130	2
105	114	2
114	118	1
160	161	1
13	128	2
96	115	1
81	82	1
69	99	1
51	51	1
68	69	1
34	35	1
1	136	1
163	163	1
27	27	1
19	56	1
107	138	2
38	40	1
5	6	2
34	82	1
64	128	1
17	17	3
1	2	1
15	54	2
1	3	2
126	126	1
16	17	1
11	11	1
100	101	1
20	57	1
160	162	1
108	109	1
48	69	1
112	121	1
117	117	2
82	84	1
165	167	1
14	14	1
109	112	1
88	90	2
122	125	1
39	63	2
133	135	1
45	62	1
106	108	1
70	70	3
79	83	1
50	94	1
