126	126	3
15	74	1
118	118	5
36	56	2
80	80	4
119	119	1
104	105	3
4	6	2
14	53	1
32	32	3
30	30	8
23	23	2
77	78	3
4	4	5
68	68	11
153	153	4
28	29	5
15	15	5
81	85	1
75	76	5
93	93	10
78	78	5
114	152	1
43	43	4
17	17	6
136	136	2
73	135	2
37	37	6
24	24	9
130	130	4
94	94	3
100	101	1
103	137	2
53	53	7
55	55	3
149	149	3
62	82	2
75	75	4
85	90	1
113	114	3
138	138	4
135	135	5
77	133	3
144	144	8
74	74	1
65	65	2
21	21	2
12	12	3
128	128	5
84	84	2
54	54	4
113	113	1
57	87	2
78	79	4
144	145	4
129	129	7
4	5	2
7	7	8
13	15	1
76	76	4
107	107	2
5	63	2
50	51	2
103	138	2
148	148	3
86	89	1
31	31	4
57	84	1
48	49	3
19	138	4
39	97	4
19	19	2
40	40	6
11	11	3
66	66	3
63	63	7
67	87	1
96	96	9
34	35	1
15	135	2
115	115	5
22	22	12
47	47	3
102	141	3
81	81	2
13	14	1
29	29	3
131	131	4
34	36	5
87	87	4
12	32	1
124	124	3
98	99	4
41	41	6
121	121	1
44	44	3
4	11	2
26	29	1
39	40	2
145	146	4
108	108	6
61	85	1
69	69	1
20	20	4
95	95	4
66	83	2
8	8	4
46	46	6
50	54	1
111	111	3
137	137	3
16	17	2
138	139	2
103	103	4
6	7	4
9	9	3
85	86	1
49	49	1
36	36	4
73	73	6
43	45	1
38	55	2
145	145	2
125	127	1
17	18	1
117	140	1
123	123	2
27	27	4
117	118	2
55	56	6
23	24	3
128	153	1
109	109	3
13	13	5
26	27	1
95	96	2
106	109	2
122	122	5
121	124	3
110	110	6
111	112	4
37	41	3
43	52	1
33	33	3
72	72	3
94	95	2
148	152	1
57	85	1
15	16	1
9	19	1
19	22	3
7	9	2
131	142	2
123	144	1
136	137	1
16	16	3
132	132	5
29	38	3
128	130	2
154	154	1
53	57	1
88	89	1
38	38	2
30	31	1
18	18	2
64	64	2
150	151	2
43	44	1
51	51	3
115	116	2
5	6	1
37	43	2
14	31	3
114	114	1
35	35	6
112	112	2
7	13	1
70	73	1
83	84	3
121	122	3
45	45	2
34	43	1
133	133	1
25	26	5
3	77	2
76	104	3
114	117	2
69	73	1
40	41	2
100	100	2
57	57	1
90	91	2
83	83	2
104	104	1
42	42	1
25	25	1
142	149	2
70	70	2
110	111	1
56	56	1
6	6	1
144	146	1
39	44	1
71	74	2
151	151	1
87	88	2
10	24	2
14	15	2
116	116	2
8	34	3
106	106	1
15	19	1
105	124	2
137	138	1
97	97	1
102	102	1
39	39	1
68	69	1
62	63	2
12	39	2
67	68	1
119	141	2
62	81	1
64	67	1
70	71	1
139	139	1
80	81	3
5	11	1
16	26	2
72	75	1
78	133	1
42	89	1
122	123	2
14	14	1
80	86	1
26	30	1
63	64	1
65	77	1
41	42	2
13	96	1
108	149	1
120	121	1
67	67	1
45	112	1
105	105	1
101	101	2
109	110	1
110	114	1
43	109	1
