5	5	3
142	142	2
3	101	2
15	90	2
136	136	10
37	37	5
158	158	9
135	135	3
20	25	4
102	102	5
113	113	3
43	43	5
152	152	7
76	78	2
113	130	6
64	64	3
99	99	3
64	73	1
114	115	5
161	165	2
19	19	6
91	134	1
41	41	6
55	146	3
77	77	7
0	2	3
16	22	1
136	156	1
2	35	1
142	143	2
8	8	10
41	44	2
26	27	1
10	39	6
144	144	3
81	83	3
10	10	10
72	72	3
48	49	4
164	164	6
87	90	2
115	116	3
159	159	1
141	141	1
122	122	1
49	49	10
15	15	4
148	149	2
51	94	1
109	121	3
90	90	17
128	128	10
103	103	2
23	24	4
65	68	1
103	104	2
104	104	13
162	162	1
119	119	12
147	148	2
79	79	6
117	117	1
2	170	1
45	46	2
26	26	6
94	94	3
118	118	4
33	117	1
0	1	6
103	143	2
109	109	3
128	131	4
74	75	3
144	145	1
137	137	5
33	34	1
133	133	3
50	50	5
53	114	2
163	164	5
48	48	2
93	93	3
134	134	7
139	140	2
44	44	2
116	116	7
14	14	5
95	95	3
78	80	3
9	9	8
44	45	3
126	126	4
21	21	3
62	62	4
98	99	2
46	124	3
13	17	5
155	155	8
91	94	2
49	68	1
112	152	1
42	43	3
125	125	3
100	100	4
76	76	5
4	35	5
23	23	1
47	49	2
17	17	13
84	84	10
80	80	4
111	111	3
64	65	1
54	114	4
86	86	3
47	47	3
36	44	1
71	71	2
120	120	3
114	114	1
34	35	4
112	112	4
138	138	9
129	131	3
19	20	1
88	88	5
86	87	2
0	35	6
167	167	6
164	165	2
66	75	2
157	158	3
7	7	6
26	37	4
140	140	2
105	105	5
160	160	3
169	169	2
67	67	2
81	81	3
78	78	1
67	69	3
143	144	2
16	16	5
56	57	2
117	136	2
92	93	1
62	63	1
22	22	1
82	166	2
100	101	4
57	83	3
56	56	1
57	89	5
73	73	1
100	160	3
136	138	1
155	160	3
150	150	1
46	84	2
55	55	1
1	1	2
72	73	1
115	115	1
18	22	3
110	111	2
13	16	2
21	22	5
15	73	1
36	36	3
95	151	1
88	89	2
27	27	2
146	146	4
47	68	1
38	39	3
46	46	2
74	74	3
10	24	1
64	81	1
3	3	2
83	83	3
56	94	1
141	158	1
91	91	2
131	169	4
2	2	1
96	97	4
24	24	3
124	125	1
35	170	1
143	143	1
151	151	1
6	7	2
4	4	7
63	84	1
25	25	2
14	15	1
56	89	1
149	149	2
85	85	1
146	147	1
92	130	1
156	157	1
53	53	2
99	115	3
161	164	1
75	75	3
127	127	1
65	65	1
20	21	1
34	34	1
160	167	4
76	77	3
12	36	2
85	91	1
12	13	4
86	137	3
15	16	3
97	97	2
2	105	1
108	108	1
167	168	5
57	62	2
121	121	3
51	51	5
87	87	2
92	92	2
110	110	1
98	114	1
136	137	2
38	38	2
100	159	1
131	131	1
84	148	2
45	124	2
12	24	1
40	40	1
21	160	1
15	24	1
105	108	1
115	170	1
113	157	1
14	17	2
135	136	3
156	160	2
98	98	1
22	23	1
89	89	1
62	115	3
69	102	1
84	85	1
136	155	1
162	164	3
97	103	2
39	40	1
2	5	1
5	24	3
6	6	1
55	154	1
139	139	3
5	6	4
42	44	1
35	35	2
9	44	1
125	127	1
150	151	1
156	156	1
78	85	1
42	42	1
14	51	1
13	13	2
93	95	1
53	56	1
92	94	1
81	96	1
117	118	1
62	98	1
97	98	2
12	40	1
13	35	1
87	152	1
106	106	2
99	109	1
91	98	1
126	127	1
12	12	1
39	39	1
62	95	1
45	45	1
80	90	1
71	102	1
15	51	1
1	2	1
