16	16	14
124	125	3
129	149	2
64	65	5
39	39	12
97	100	3
37	39	2
79	80	2
154	154	2
41	41	8
64	64	13
18	18	12
47	47	8
142	142	3
31	39	4
8	40	2
129	129	7
112	112	4
76	76	9
109	109	6
65	65	4
20	20	12
147	147	9
15	15	10
4	24	4
12	19	1
18	19	7
132	140	5
124	124	5
17	17	7
27	27	6
129	130	7
86	86	7
104	104	4
30	36	2
99	99	2
99	100	6
70	70	10
26	26	4
6	31	3
45	45	8
133	134	1
114	115	5
82	82	3
9	9	5
117	117	7
44	44	4
27	28	5
129	131	5
104	112	2
87	87	3
82	83	2
96	96	7
37	37	15
58	58	5
6	6	4
123	123	15
139	139	2
118	118	6
119	119	5
147	149	2
141	141	5
103	103	2
23	23	11
46	47	5
12	12	4
114	114	2
131	149	5
137	137	6
34	34	1
87	93	2
69	71	4
19	19	4
36	36	3
14	67	1
113	113	1
21	22	2
152	152	5
76	77	2
32	32	5
122	122	7
77	78	5
68	69	4
63	64	6
7	8	2
9	46	3
151	151	2
111	114	2
3	3	8
11	11	6
145	145	4
151	152	2
47	49	5
100	119	1
43	45	2
33	34	1
102	102	4
71	71	13
143	144	2
13	19	1
73	73	7
126	127	1
25	25	6
48	48	8
35	37	5
14	15	6
15	28	1
72	73	3
16	123	3
4	4	11
62	63	6
110	110	5
43	43	10
45	46	9
7	7	4
39	40	1
54	54	1
35	40	4
24	24	5
13	13	5
115	116	4
42	43	3
100	103	3
131	131	12
114	118	1
22	22	6
40	41	4
126	126	3
19	45	2
133	133	5
29	62	3
33	51	2
48	49	1
115	115	2
14	14	2
125	133	2
6	43	3
100	100	3
8	8	5
102	103	6
47	48	1
144	145	2
72	72	4
88	91	2
130	130	1
108	108	10
5	6	3
53	53	6
8	9	2
52	52	3
144	144	3
40	53	4
97	97	2
24	25	1
68	68	3
153	153	2
95	95	7
2	2	1
96	99	4
20	21	2
15	16	3
36	41	4
57	57	1
74	76	3
120	120	1
44	45	6
40	40	6
9	13	2
80	80	1
12	13	5
48	57	1
21	23	2
144	146	2
19	23	3
111	112	6
35	35	3
30	30	2
7	11	2
53	54	2
51	51	3
150	150	2
136	136	4
67	67	5
37	38	2
108	120	2
149	149	4
106	106	7
135	136	2
64	68	1
22	23	2
46	46	4
21	21	1
31	35	3
115	118	4
121	122	3
98	98	1
24	54	1
16	27	1
29	29	5
109	113	1
8	10	3
97	99	2
86	96	3
48	50	1
133	136	3
12	20	1
96	100	1
31	31	3
103	120	1
30	32	1
34	35	2
79	86	2
138	139	4
66	66	2
73	75	2
86	92	3
88	88	5
85	85	3
38	38	2
72	74	1
147	148	2
54	107	4
134	145	1
55	55	1
128	128	3
29	34	1
115	129	2
34	57	3
43	44	2
81	85	1
107	107	2
35	48	1
34	62	1
13	39	2
131	132	1
122	128	2
125	130	1
107	110	3
41	46	3
85	86	3
137	140	1
16	17	1
83	83	2
5	5	5
28	28	2
42	42	2
77	77	2
130	132	2
120	121	2
12	62	2
103	115	2
106	107	6
23	29	2
96	97	1
69	70	2
50	50	3
135	135	2
122	123	2
10	10	1
56	56	1
75	76	1
71	84	2
49	107	1
14	130	1
24	32	1
145	147	1
92	92	1
117	118	2
7	142	1
42	53	1
142	144	1
94	99	2
57	77	1
120	127	1
13	14	2
80	85	1
13	15	1
35	36	1
17	19	1
119	123	1
133	135	5
131	138	1
31	32	1
64	67	1
26	27	1
47	53	2
78	87	1
79	79	1
63	77	1
98	99	1
100	118	1
24	34	1
131	148	1
9	41	1
93	94	1
50	108	1
105	114	1
40	46	1
56	78	1
90	93	2
81	81	1
32	33	1
141	142	1
55	56	1
109	110	1
114	137	1
132	132	1
10	12	1
92	93	1
78	83	1
23	24	1
74	79	1
5	38	1
49	49	2
8	39	1
