83	83	7
97	97	19
132	133	4
92	93	4
120	120	14
88	90	6
0	2	5
126	126	14
107	107	18
52	53	16
106	106	20
129	129	23
85	85	13
64	68	9
8	16	2
114	114	23
27	27	16
49	49	1
119	122	3
123	125	2
33	35	6
76	87	3
103	103	12
82	82	6
91	92	5
92	92	27
4	5	3
94	94	10
79	79	10
9	10	4
31	31	8
121	131	1
79	80	10
123	123	17
35	35	20
26	26	12
98	98	16
30	32	3
108	113	1
63	63	8
89	90	2
0	133	2
43	43	22
65	65	16
95	95	22
122	122	10
133	133	7
6	6	9
25	101	6
53	54	10
108	108	21
30	30	7
65	68	6
36	36	15
60	77	6
104	104	9
106	112	10
34	34	7
100	100	17
91	91	11
93	93	12
17	19	5
21	21	23
5	17	1
60	60	25
116	118	6
116	117	6
1	2	3
15	38	7
121	121	22
131	131	14
28	28	8
118	118	15
111	112	3
57	59	9
50	50	23
3	5	3
71	71	20
2	2	8
117	117	19
13	13	8
82	88	2
50	95	4
95	96	6
89	89	4
24	25	3
31	32	5
134	134	14
87	87	12
101	104	2
59	77	6
49	50	10
57	57	8
109	111	4
72	72	26
59	105	1
104	116	1
96	96	12
99	99	10
61	61	12
114	116	6
32	33	6
107	127	2
132	134	5
82	86	2
65	69	4
126	127	5
107	108	14
89	104	2
54	54	10
7	7	11
128	128	9
83	87	2
133	134	4
77	77	18
110	113	2
26	27	2
76	76	7
44	55	1
90	90	32
123	124	7
117	118	10
42	43	2
119	119	16
114	117	1
32	32	3
21	22	6
84	84	14
73	73	26
35	88	3
18	18	10
110	111	5
131	133	1
100	101	1
75	75	7
10	11	9
107	110	3
4	4	12
112	112	8
105	105	27
53	53	14
111	113	2
72	73	8
64	64	27
66	67	4
9	9	6
46	129	2
68	68	24
86	99	2
1	1	8
22	22	6
109	113	1
25	26	2
24	24	6
130	130	21
115	116	7
115	115	16
98	108	1
125	132	2
86	86	11
11	11	9
131	132	5
46	57	5
110	110	11
43	44	7
44	44	9
19	19	14
6	7	5
109	109	13
102	102	14
58	58	4
93	94	5
20	21	13
15	15	7
88	88	9
52	52	14
94	120	1
45	45	14
108	112	4
78	78	18
104	105	4
8	9	4
127	128	4
80	80	11
121	122	4
66	66	21
18	19	3
111	111	7
112	113	3
124	125	15
44	45	7
111	131	4
43	55	4
129	132	1
3	4	8
130	134	3
114	115	10
118	120	4
74	74	10
128	129	7
59	59	16
10	14	5
81	81	6
56	90	3
125	126	9
77	78	13
14	16	4
96	98	3
47	47	4
38	38	3
14	14	12
67	68	7
58	67	2
8	13	3
113	113	6
45	55	4
75	76	8
119	121	6
95	105	1
127	127	12
57	58	4
15	16	5
67	67	13
45	46	3
12	12	17
119	120	9
7	8	6
134	135	4
56	56	18
33	37	3
31	34	8
20	24	2
33	33	2
19	100	1
132	132	10
53	59	3
62	62	12
24	36	5
51	127	1
53	56	3
129	130	3
46	56	2
55	55	7
124	124	8
122	123	6
82	83	1
70	70	5
65	67	5
82	92	5
113	117	3
56	58	6
5	23	3
50	51	2
97	99	3
113	116	3
89	93	2
55	60	3
17	18	6
65	66	7
66	83	2
130	132	5
14	15	1
51	53	6
116	119	3
3	3	6
35	37	3
25	25	7
48	48	11
89	91	3
109	110	7
63	73	1
74	76	2
60	64	1
45	57	1
10	12	6
84	112	1
37	37	8
122	124	2
32	34	1
87	88	8
78	84	2
83	84	2
56	57	3
10	10	9
96	110	1
61	87	5
97	98	9
103	104	3
54	59	8
55	56	1
79	81	5
71	72	8
88	89	2
76	77	3
101	101	5
85	88	5
61	66	2
126	129	5
5	5	4
23	23	8
28	29	1
10	15	2
130	133	1
83	125	1
79	85	1
50	107	1
69	69	5
18	21	2
63	65	4
37	38	6
96	97	5
50	63	3
107	124	1
62	65	4
98	99	3
127	129	4
69	70	6
49	54	2
94	95	2
2	92	4
8	8	4
36	38	1
79	83	1
62	63	4
75	77	2
120	122	3
87	124	2
38	87	1
29	29	7
0	0	8
54	56	2
44	56	2
99	100	3
2	4	1
125	133	3
118	119	3
116	116	9
36	37	6
14	38	1
2	116	1
8	11	1
64	65	3
16	16	6
114	118	3
84	106	2
53	55	3
38	86	3
114	120	1
60	61	3
66	85	2
55	57	4
53	58	1
82	124	2
47	50	1
96	112	3
50	62	1
83	86	2
0	1	1
111	114	3
70	81	1
125	125	7
47	49	2
66	68	7
105	106	2
62	87	1
99	131	2
64	86	1
33	34	7
11	13	1
9	11	2
118	122	1
118	123	3
125	134	2
105	112	1
108	109	1
5	16	2
28	34	4
81	82	1
116	131	1
57	96	1
121	124	2
108	125	1
111	130	4
32	44	1
31	33	4
108	110	2
50	58	2
90	133	2
47	59	1
84	86	2
43	45	2
80	88	1
1	11	2
108	111	2
129	134	1
68	69	3
61	67	1
99	104	2
22	23	1
126	128	1
2	3	2
108	115	3
52	57	3
34	38	1
61	62	2
64	96	2
121	123	2
42	42	2
109	119	1
107	128	1
101	102	1
81	125	1
112	114	3
118	132	1
38	45	2
130	131	3
43	60	2
135	135	1
0	88	1
102	103	2
57	69	1
45	59	1
38	67	1
59	61	2
19	21	1
27	28	2
117	130	2
9	52	1
53	57	1
115	118	2
110	115	1
129	133	1
38	70	1
88	99	1
101	105	2
106	113	1
84	85	2
52	56	1
25	37	1
17	17	3
19	20	3
38	68	1
52	54	2
120	121	1
24	99	1
28	32	4
123	135	1
59	60	2
79	86	1
116	130	1
60	78	1
93	95	3
20	20	2
105	110	2
96	111	1
6	18	1
45	47	1
62	67	1
111	119	1
55	59	1
86	125	1
95	97	2
64	67	1
108	126	1
76	78	2
30	31	1
102	105	2
105	114	1
35	36	1
106	108	2
44	53	1
96	133	1
26	36	1
23	24	3
43	56	1
63	64	1
106	118	1
58	59	2
107	111	1
107	115	1
82	91	1
103	115	1
78	80	1
2	89	1
21	107	1
93	120	1
115	133	1
13	14	1
70	71	1
6	8	1
37	60	1
