92	93	6
96	101	4
75	76	8
81	81	15
94	99	1
38	38	13
79	79	32
77	77	11
81	101	5
67	67	23
65	68	3
33	33	5
69	69	11
62	62	22
82	84	6
42	43	6
95	95	22
70	70	26
59	59	24
99	99	25
33	38	4
63	63	30
47	53	1
72	79	2
94	100	6
48	48	23
89	90	4
73	73	30
75	75	20
97	97	29
41	43	4
49	49	10
76	78	2
87	88	13
57	57	11
36	37	2
74	76	7
89	92	2
65	65	18
24	24	13
22	23	4
101	101	30
37	39	1
49	69	4
50	50	19
57	58	3
47	47	9
29	34	2
86	86	16
49	50	1
40	40	25
73	76	2
69	70	11
84	84	13
85	85	20
93	93	6
60	61	13
90	90	25
97	98	18
40	41	5
22	22	5
80	80	12
64	65	5
45	45	13
92	92	22
41	41	14
87	87	13
90	91	9
33	37	2
56	56	14
31	31	13
53	60	9
76	77	10
98	98	23
72	72	19
43	44	5
72	73	12
71	72	5
39	54	4
39	39	17
53	53	11
56	57	9
61	92	8
26	61	2
89	89	12
61	98	1
68	68	7
46	46	13
59	65	3
58	59	9
73	74	9
58	58	14
29	32	2
50	51	8
87	94	4
85	87	1
88	88	14
84	88	6
64	79	4
42	42	35
66	66	12
22	92	1
48	57	2
83	90	1
85	88	2
88	93	4
91	91	18
35	36	4
33	35	2
35	37	3
39	40	6
76	76	10
71	71	13
53	87	6
42	44	5
25	28	3
33	34	2
92	94	5
25	92	5
100	100	22
37	37	15
41	48	4
79	81	4
98	99	2
51	88	2
27	27	10
55	55	14
84	93	6
84	96	3
26	26	5
46	47	8
55	56	6
87	89	5
67	68	6
47	48	5
86	88	6
72	74	2
94	94	18
44	45	16
55	85	5
54	56	4
49	64	2
54	54	17
60	65	4
64	64	17
63	64	5
69	75	1
53	54	14
41	42	4
36	36	11
48	49	2
61	61	11
69	71	3
74	74	25
60	60	13
95	96	10
25	25	3
45	65	2
34	99	7
84	95	1
50	52	3
20	101	6
97	102	4
54	55	5
51	52	3
96	96	9
89	101	3
44	77	2
54	57	3
83	96	4
86	87	6
63	65	5
52	52	28
93	94	9
38	52	3
93	96	1
67	71	3
100	101	4
51	51	6
50	72	2
60	97	4
80	81	6
20	21	1
78	78	4
60	98	5
63	79	1
43	64	2
60	89	2
46	91	1
46	52	1
50	75	2
27	92	4
65	66	12
35	38	1
88	89	4
79	80	9
52	67	1
94	97	8
33	36	5
77	79	3
74	83	2
98	101	7
43	43	15
71	73	7
29	57	3
51	79	3
74	75	6
23	23	9
96	97	5
32	35	1
68	69	6
60	63	1
99	101	3
45	57	2
101	102	1
58	89	1
24	27	5
81	82	3
58	60	4
53	55	4
46	48	2
63	90	2
56	60	3
59	60	4
35	35	8
82	82	5
46	51	3
72	75	1
34	37	2
44	44	10
51	86	2
83	83	8
33	96	6
24	26	2
34	40	2
46	89	1
85	89	1
41	59	2
55	91	3
53	80	2
78	90	1
98	102	2
91	92	3
81	88	1
78	79	8
45	78	2
95	97	1
89	93	2
57	61	5
29	61	3
59	75	6
71	78	7
56	89	4
83	89	1
47	58	1
30	30	3
66	68	2
68	71	4
67	69	1
90	101	1
57	93	4
51	84	5
83	84	5
81	83	1
96	98	3
61	91	1
51	89	3
61	62	2
97	99	7
69	78	1
49	91	1
94	95	3
31	33	1
52	53	6
48	69	1
93	100	1
38	54	2
62	100	2
29	29	4
64	68	1
29	30	1
25	26	1
98	100	6
77	78	2
35	98	1
31	36	1
39	55	1
93	101	1
34	34	5
38	39	1
75	77	1
67	80	5
102	102	4
87	96	3
33	89	2
46	49	1
22	100	1
45	100	1
71	74	1
40	55	1
70	73	2
27	28	1
75	80	1
70	72	1
44	63	1
62	92	1
20	22	2
20	20	1
32	33	2
30	59	1
81	93	1
91	95	1
39	57	1
63	66	1
95	98	1
52	85	1
73	100	1
44	66	1
52	56	1
42	50	1
44	90	1
29	31	1
97	101	1
52	55	1
29	37	1
57	84	1
91	93	1
54	87	1
28	29	1
67	77	1
