141	168	1
146	151	4
38	63	4
92	92	10
9	9	10
49	49	10
53	53	9
22	82	1
39	39	9
35	36	2
3	27	1
53	69	1
101	134	2
78	78	13
11	37	1
98	98	9
155	155	8
156	157	1
100	101	1
73	119	2
117	118	11
73	73	3
8	8	19
80	82	1
96	96	18
22	84	3
62	84	6
0	1	5
82	82	8
12	13	4
127	127	7
109	109	6
97	98	1
163	164	5
48	49	8
95	133	5
128	128	6
161	162	5
64	65	8
25	25	14
162	163	4
90	90	9
79	80	10
20	20	8
87	114	6
155	156	2
141	141	5
18	55	2
144	144	8
53	54	2
10	134	3
128	129	2
70	78	3
52	67	2
70	70	19
112	113	3
4	4	8
91	92	4
71	71	3
150	150	5
134	134	11
24	24	3
41	51	3
17	17	6
0	0	7
79	79	8
83	87	5
22	22	15
64	64	3
22	46	1
101	102	5
40	40	12
94	117	3
6	6	9
72	72	5
6	28	1
73	74	9
157	158	4
96	97	3
154	154	3
69	72	3
156	156	2
52	52	7
151	151	5
15	16	5
122	135	2
98	132	4
53	72	5
43	43	3
50	50	8
47	47	13
119	125	1
47	52	1
8	9	5
39	45	1
18	18	14
86	88	6
51	51	7
23	40	1
124	124	8
71	79	5
1	36	3
58	85	1
87	88	3
67	69	1
19	19	6
160	160	6
149	150	1
83	83	8
91	95	3
14	14	9
27	49	6
69	80	5
40	45	2
77	99	2
102	102	9
34	34	15
22	23	2
58	70	2
12	12	7
86	89	4
170	170	5
80	85	4
63	63	4
48	48	11
52	53	2
57	69	1
66	66	8
41	41	7
56	56	2
68	68	7
35	35	6
102	103	3
147	147	7
129	129	4
42	73	1
49	51	3
114	114	10
129	161	1
104	104	7
148	154	1
2	2	9
74	86	2
38	74	6
160	161	5
50	69	1
113	152	1
38	38	8
152	153	5
20	24	4
54	54	6
57	57	8
99	103	4
78	85	4
69	69	5
65	115	4
54	55	3
35	44	4
85	89	3
11	14	1
139	140	3
72	79	14
106	106	5
116	116	11
93	95	1
11	94	3
42	42	6
48	51	4
40	83	4
148	148	1
9	58	2
149	155	5
55	56	1
72	74	1
126	126	11
148	152	5
27	27	15
36	36	4
112	112	14
104	133	3
74	76	1
1	1	5
44	45	8
97	132	5
77	77	8
102	104	3
146	146	9
62	62	1
80	81	5
81	83	1
84	84	6
21	22	1
99	99	4
63	71	1
168	169	6
86	87	8
114	116	3
90	91	4
54	62	2
49	68	2
160	168	2
165	165	2
90	99	3
16	16	7
15	15	14
23	23	7
94	94	10
113	113	7
158	158	14
101	101	9
159	159	2
120	131	2
85	91	4
154	155	1
74	74	7
115	128	1
20	46	2
133	133	6
147	152	2
168	168	4
28	28	3
11	11	6
169	169	8
131	131	2
165	168	3
4	5	1
13	106	1
7	119	2
121	121	3
111	111	5
46	46	5
37	37	4
84	85	5
153	154	1
94	95	3
37	55	1
23	24	4
86	86	2
152	152	3
21	21	6
93	93	6
100	100	3
134	135	3
103	103	1
76	76	7
96	99	2
7	28	2
119	132	2
88	88	6
18	19	5
75	75	3
15	21	1
130	150	4
87	87	3
68	69	2
91	127	3
64	76	1
5	5	5
46	47	1
103	104	8
45	51	3
81	84	3
125	129	2
103	135	1
80	80	9
65	66	4
128	136	1
43	44	3
70	71	3
22	25	2
112	124	1
107	107	4
145	151	2
125	125	1
75	88	2
164	164	2
76	84	1
14	15	5
19	73	2
7	7	4
102	165	1
162	162	3
102	166	3
62	71	3
110	122	1
137	137	3
10	77	2
34	35	2
103	165	1
98	119	2
45	83	1
7	8	2
100	103	3
44	44	2
122	128	1
52	71	2
126	127	1
81	82	2
57	62	2
47	48	4
153	153	2
8	139	2
78	91	1
158	167	1
26	64	2
130	131	3
27	33	1
116	152	1
104	163	1
140	149	2
88	118	5
139	143	5
143	143	5
97	119	1
139	141	2
89	103	2
88	99	1
138	142	4
108	137	1
81	81	1
123	151	2
36	44	1
13	13	4
42	45	2
113	114	1
108	109	3
163	163	1
2	134	1
53	57	1
41	42	3
143	149	1
74	75	1
36	37	1
36	43	1
115	126	1
86	117	1
106	108	4
91	91	2
93	136	1
3	134	2
3	3	5
10	10	1
7	140	2
138	138	8
122	125	1
139	139	2
91	125	1
156	167	1
24	47	1
157	157	3
64	70	1
78	79	1
6	138	1
108	110	1
0	13	1
22	24	1
139	142	1
74	80	2
167	169	2
97	150	1
13	14	1
71	74	1
115	115	2
69	70	1
78	80	1
11	13	2
117	124	1
159	167	1
85	85	6
37	38	1
115	127	2
161	161	7
120	120	2
140	142	1
45	45	2
16	17	5
149	149	3
42	43	3
71	72	1
17	105	1
162	165	2
122	123	3
147	150	1
39	40	2
145	165	2
130	130	2
156	159	1
20	21	3
50	52	2
63	72	3
97	117	2
1	137	1
97	120	2
122	122	3
55	55	1
58	58	2
68	80	1
105	107	1
99	102	3
66	69	1
89	116	3
50	51	1
16	38	1
126	130	1
79	91	1
25	26	1
146	150	1
4	135	3
17	18	1
70	80	1
84	86	1
10	11	1
18	99	1
20	100	1
70	77	1
93	94	1
104	162	1
6	7	2
91	118	2
18	46	1
140	141	2
7	58	1
97	97	2
57	58	1
21	101	1
135	135	2
63	84	1
88	89	1
75	90	1
23	81	1
34	43	1
126	129	1
111	112	1
100	102	1
136	136	1
76	77	3
15	45	1
57	64	1
148	149	1
119	121	1
92	151	1
73	116	1
110	110	2
147	158	1
145	147	1
17	80	1
166	167	1
141	149	1
116	126	1
117	117	1
89	90	1
