78	79	5
127	127	4
80	81	12
133	133	5
148	168	6
43	43	15
28	29	8
122	123	8
71	72	2
172	173	4
33	79	2
14	14	5
6	6	6
121	121	21
15	15	18
40	41	2
136	136	7
158	170	9
53	53	4
161	162	4
76	76	8
11	11	4
32	32	18
36	36	14
172	172	12
115	116	3
147	147	12
21	21	8
178	179	4
91	95	2
3	4	6
51	51	7
25	29	2
139	139	1
6	9	2
9	9	6
142	142	9
27	33	10
97	99	3
176	176	13
38	38	22
71	71	11
118	119	15
34	34	10
114	114	10
19	19	6
39	39	23
76	92	5
113	115	11
42	80	5
10	10	12
136	137	2
111	132	3
89	90	8
67	67	5
37	38	13
25	25	7
19	20	16
16	16	19
123	124	6
0	0	13
87	88	4
71	73	8
18	19	4
141	150	5
84	103	2
96	96	6
30	31	4
13	40	6
42	81	3
112	113	1
4	7	4
117	117	11
77	77	8
148	171	2
86	89	1
98	98	5
32	33	9
42	42	9
125	126	3
74	74	7
169	169	11
154	156	4
152	152	3
62	105	1
55	55	13
92	92	3
140	140	7
29	29	6
93	93	10
125	125	2
171	171	8
33	35	3
8	9	15
70	71	6
131	131	6
13	14	9
152	166	5
73	102	4
131	133	4
14	38	1
115	115	7
54	55	3
44	49	3
135	135	8
65	65	8
101	106	2
30	33	2
89	89	11
72	103	2
102	102	20
152	153	5
25	31	2
40	42	2
101	101	2
163	163	5
64	64	8
90	90	11
125	150	1
150	150	7
111	130	5
97	97	3
18	20	5
20	29	2
137	137	5
111	139	3
72	72	13
161	161	2
33	33	10
123	123	7
10	13	3
159	159	20
138	138	9
52	53	2
44	90	2
57	60	10
158	158	9
126	166	2
122	122	16
154	154	9
44	45	3
58	58	8
31	32	14
91	92	3
4	4	8
43	44	6
105	105	1
94	94	14
158	159	11
145	145	5
170	171	9
123	161	1
166	166	6
132	132	1
147	171	2
126	165	2
86	86	2
32	79	4
35	35	8
125	168	6
143	143	9
33	34	6
82	87	4
163	164	6
44	44	6
167	167	7
10	11	13
23	23	6
107	107	13
159	175	1
34	36	5
40	40	16
1	1	1
149	149	14
78	78	4
170	170	6
175	176	8
104	104	5
113	113	15
180	180	2
36	43	3
75	98	1
127	130	4
158	162	4
10	38	7
127	154	5
90	94	3
168	169	2
81	81	6
52	52	6
93	94	6
130	167	2
5	5	19
54	54	7
12	13	7
13	13	10
63	63	3
59	60	5
148	169	6
78	93	1
78	92	6
14	17	3
44	80	2
8	8	11
156	156	2
17	43	3
79	79	6
26	35	1
102	104	1
164	165	2
11	38	1
40	43	2
129	129	11
92	94	4
159	160	3
109	109	6
143	145	2
148	154	1
50	51	4
116	116	5
160	162	4
83	84	4
68	68	7
57	57	9
37	41	4
164	164	2
103	104	5
173	173	5
24	24	8
82	88	1
148	158	9
168	174	1
77	92	3
36	37	2
150	167	3
151	151	2
41	41	11
142	143	1
117	118	1
131	167	5
53	61	4
146	146	4
39	40	6
62	63	10
21	22	4
151	164	2
26	31	3
158	168	4
20	33	3
7	10	1
126	126	12
112	112	14
174	174	2
134	134	2
75	101	6
62	62	3
162	162	4
61	61	3
151	153	3
162	165	1
101	102	6
111	114	3
142	153	4
178	178	8
95	96	6
31	31	3
141	141	3
25	27	4
109	114	1
82	83	2
73	103	1
32	78	1
153	154	4
64	65	4
119	119	8
59	70	4
15	21	2
130	130	10
50	50	2
2	4	6
122	125	3
148	167	4
53	54	2
75	76	2
131	132	1
45	45	5
27	28	1
2	6	5
113	114	5
20	20	1
17	17	6
82	82	1
95	95	10
94	95	2
55	72	1
151	157	4
12	15	6
137	138	2
83	89	3
57	58	1
149	172	8
51	52	4
73	106	1
111	111	12
23	25	1
5	39	3
158	175	6
56	57	3
62	64	2
158	165	3
179	179	7
72	73	5
6	7	1
152	165	2
53	62	1
22	23	2
171	172	4
27	27	6
63	64	1
128	128	3
56	56	2
133	139	4
121	122	1
78	95	2
82	96	6
99	100	2
31	81	2
175	175	2
4	9	1
160	160	5
56	71	1
8	11	3
106	106	4
46	46	1
77	78	3
41	42	5
163	165	2
74	76	3
51	53	3
55	71	3
10	43	1
177	178	1
10	39	3
129	130	2
148	149	3
3	8	2
2	8	1
178	180	1
24	29	1
12	12	3
91	91	1
26	26	2
124	125	1
110	130	3
85	102	3
85	101	1
155	155	5
74	75	2
59	69	2
43	45	2
112	133	1
77	95	2
133	134	1
74	117	4
114	149	3
3	11	1
165	171	1
159	162	1
148	148	1
150	168	1
30	30	2
5	7	2
3	3	2
114	124	2
111	131	2
128	131	1
169	174	2
12	18	2
83	83	2
98	100	3
140	142	3
56	72	1
133	140	1
16	50	2
22	22	3
26	27	1
164	166	2
5	11	1
2	2	3
4	5	3
66	66	3
26	36	1
118	118	1
99	99	1
0	1	1
150	158	1
74	122	3
171	173	2
147	169	2
117	121	1
112	131	1
124	124	2
144	145	5
24	30	2
61	70	2
42	43	4
56	132	1
96	97	1
37	37	2
70	70	2
102	103	1
19	33	1
126	167	1
103	105	4
61	106	3
140	141	1
26	29	1
49	49	1
73	73	6
74	115	1
110	112	1
25	26	1
159	168	2
77	96	1
14	15	2
165	165	3
108	136	1
20	21	2
107	108	5
149	150	1
85	89	1
79	91	1
140	143	1
34	42	1
162	167	1
76	77	5
92	93	2
83	94	3
89	100	2
60	60	1
16	17	2
74	132	1
126	164	1
28	30	1
116	120	1
34	35	2
100	104	1
167	168	1
65	66	2
155	157	1
127	143	1
173	175	2
148	150	1
108	108	1
120	120	1
151	152	1
9	10	2
13	39	1
168	168	1
55	61	1
60	61	3
111	128	1
80	80	1
2	12	1
5	13	2
137	149	2
130	141	1
24	25	2
87	87	3
84	95	2
128	130	1
100	100	1
54	61	1
148	159	1
75	75	1
6	11	1
57	132	1
2	5	1
153	153	1
52	62	1
66	68	1
10	21	1
71	106	1
6	8	1
52	61	1
169	173	1
151	154	1
145	146	1
29	31	1
59	59	1
15	16	1
119	120	2
106	107	1
37	80	1
80	91	1
34	44	1
157	157	1
84	85	1
90	91	1
19	34	1
6	10	1
132	133	1
