217	217	9
1	1	9
17	18	4
89	170	6
0	0	23
23	56	2
32	39	1
119	119	6
181	181	12
154	155	6
45	46	7
184	207	3
180	180	8
41	125	2
120	120	6
115	126	1
221	221	20
42	42	21
213	220	1
89	89	8
118	127	2
72	72	22
237	237	16
85	85	13
26	26	19
133	133	16
114	115	12
79	81	2
231	231	18
22	111	3
77	77	4
217	218	8
75	75	16
53	53	9
21	21	12
177	177	6
20	20	17
74	74	8
121	171	7
162	162	5
4	12	3
106	128	1
84	85	3
112	112	5
38	38	16
83	84	3
16	17	4
207	208	3
173	239	1
105	106	1
145	145	6
54	54	13
124	124	2
51	53	3
52	54	5
117	118	3
161	163	2
98	99	5
172	172	22
27	27	24
104	104	10
214	214	4
225	225	10
144	144	6
42	45	2
138	138	11
182	182	6
160	182	1
242	242	18
164	164	8
205	206	11
159	159	4
60	60	9
148	149	4
222	222	15
226	226	9
12	41	3
46	46	21
39	50	6
144	145	12
15	15	12
175	207	1
109	109	3
175	175	17
195	216	2
82	82	7
80	119	4
41	60	2
229	229	9
186	187	11
47	60	1
13	14	1
225	228	2
153	154	7
192	192	11
231	233	2
58	59	5
59	60	13
76	76	11
114	114	2
211	225	3
165	166	2
62	62	18
6	83	4
96	102	6
234	234	10
46	47	4
185	197	2
14	14	11
35	35	11
24	24	13
185	216	6
140	143	4
56	120	7
115	115	7
186	186	9
200	200	12
179	179	4
88	113	7
82	83	15
20	128	2
99	99	12
103	106	1
146	146	10
199	199	9
78	126	5
100	101	1
160	160	10
153	153	16
5	17	3
143	189	3
211	211	17
116	116	9
97	97	6
69	69	13
202	202	6
187	218	7
57	121	5
3	82	1
70	70	8
48	48	23
198	199	4
4	14	1
39	41	1
209	211	2
158	167	4
59	59	13
86	121	5
6	16	9
41	41	12
67	76	1
189	191	6
108	116	1
52	53	10
86	242	2
50	50	8
7	7	11
3	121	2
17	19	7
161	161	19
117	117	4
4	80	2
186	192	3
136	137	4
197	210	1
66	67	4
213	215	2
194	194	8
190	190	11
2	173	1
130	159	3
37	47	2
218	218	23
23	30	2
206	206	13
152	152	3
28	28	18
205	223	7
96	99	2
155	157	4
49	49	14
31	31	10
35	39	5
95	101	7
45	45	8
32	43	2
240	240	16
67	85	1
47	48	3
126	126	9
71	72	5
82	95	2
81	81	10
151	152	5
32	32	12
8	8	14
15	17	2
18	18	13
9	10	8
38	46	3
44	44	8
48	57	3
51	51	12
209	209	3
97	113	2
166	183	5
127	127	7
35	36	10
78	125	6
121	122	8
162	172	4
29	48	2
105	105	7
68	68	5
48	64	3
96	198	1
194	195	3
170	170	12
108	109	1
43	43	20
173	175	2
115	119	2
20	23	2
61	61	12
140	140	9
109	118	2
208	208	13
98	104	3
73	73	9
7	49	5
98	98	3
31	39	7
17	168	3
193	195	3
117	126	1
174	174	16
199	200	14
207	209	2
136	221	2
136	136	5
55	55	17
41	49	1
143	145	3
15	16	2
181	182	4
191	235	3
162	163	4
48	55	3
113	113	11
64	64	12
104	108	1
230	231	4
135	135	9
9	9	23
37	38	11
170	171	11
155	155	11
134	158	4
34	48	4
57	59	1
150	150	7
58	62	1
233	233	14
12	12	5
35	37	2
24	29	1
81	88	4
86	86	8
185	187	4
44	45	9
2	2	17
39	48	2
130	167	2
67	68	11
184	184	8
212	213	10
151	151	12
156	158	3
189	195	4
64	65	2
81	105	4
220	220	4
23	23	23
57	120	1
34	34	12
209	210	6
11	68	2
14	79	1
145	194	3
240	242	2
127	129	1
62	65	6
40	40	12
104	105	6
75	77	2
227	227	11
85	86	3
104	114	3
30	31	1
11	24	2
13	16	2
149	149	7
40	42	4
17	169	6
47	47	14
182	183	4
198	198	5
57	60	3
132	133	2
235	235	9
219	220	12
145	146	6
31	108	3
166	181	3
173	173	4
130	135	1
11	85	1
123	124	9
56	57	15
99	100	6
191	191	5
34	35	4
213	223	1
58	58	12
11	71	7
30	30	13
32	33	6
79	116	4
230	230	11
60	62	1
236	236	12
29	105	4
6	7	4
119	126	7
48	49	1
190	191	6
15	55	1
96	101	2
166	166	21
153	193	1
25	25	9
189	218	7
54	77	4
91	91	4
53	55	5
188	218	1
215	216	1
169	170	2
97	239	4
188	217	3
79	79	6
137	137	17
9	72	2
8	29	5
76	88	2
204	206	1
150	152	7
178	178	7
2	175	1
43	44	3
231	232	5
207	207	7
121	163	6
213	213	4
1	3	7
54	64	1
158	158	6
211	212	10
101	101	9
83	83	12
33	39	1
187	188	4
4	5	1
116	124	1
117	124	4
63	69	4
65	65	6
7	8	4
22	22	12
44	46	5
233	236	2
210	210	5
134	134	6
44	74	7
160	161	2
4	4	4
131	159	2
123	123	4
148	148	4
223	224	9
14	17	3
123	125	1
106	106	7
195	236	3
57	57	10
68	70	1
88	100	3
39	39	5
134	156	4
189	189	7
153	155	3
61	62	4
68	69	3
196	196	12
18	59	1
225	227	9
157	157	9
142	202	7
165	165	5
234	235	7
0	11	3
238	239	3
13	41	2
12	38	1
213	231	2
81	100	2
18	19	8
100	100	14
203	203	12
79	119	1
217	231	9
120	171	5
4	78	1
188	188	7
48	105	2
192	194	4
123	158	2
30	88	1
168	168	7
24	170	1
13	13	14
19	57	1
187	187	11
19	19	16
139	141	3
131	131	6
13	15	2
150	151	3
188	196	5
142	143	8
66	78	1
135	138	4
149	150	4
212	223	3
71	71	9
7	126	1
184	185	3
229	232	4
158	159	3
56	58	3
122	122	11
140	141	8
67	67	19
63	63	7
173	174	4
223	223	13
182	196	2
55	71	2
27	28	4
56	56	9
200	201	2
50	57	3
31	33	1
185	186	6
168	169	3
90	126	4
139	139	3
69	70	1
66	66	20
211	238	6
152	166	1
99	204	3
52	52	6
31	118	2
79	108	3
11	23	2
34	60	1
5	7	8
84	88	3
81	82	4
60	67	2
193	193	5
239	240	2
84	84	3
30	36	5
55	143	4
177	179	3
212	212	11
60	61	5
239	239	6
193	214	4
172	208	2
12	21	3
168	175	3
241	241	7
62	103	4
6	49	2
25	39	1
55	85	4
82	84	8
185	185	3
60	119	1
224	224	10
215	233	3
102	102	17
183	187	4
158	189	1
163	163	4
34	37	1
226	227	2
5	16	3
103	119	2
136	153	2
235	236	3
22	58	1
132	141	4
31	32	1
19	20	2
97	98	3
13	84	2
74	121	3
156	156	6
197	216	2
14	105	1
128	128	4
5	18	4
171	171	8
51	52	4
25	113	1
9	55	3
136	151	3
28	70	1
203	221	3
110	110	4
187	216	5
34	83	2
157	158	2
178	203	1
50	53	9
7	13	3
11	67	4
51	76	2
6	22	1
3	80	4
125	170	6
80	80	7
142	201	5
84	96	2
123	156	5
193	194	3
95	103	1
49	66	6
200	221	1
98	105	2
220	222	2
7	19	1
103	114	4
1	30	1
217	234	5
37	37	15
79	117	3
219	219	7
215	215	3
147	147	5
205	208	5
9	24	6
214	229	2
30	80	2
2	31	5
149	151	4
78	79	3
8	65	2
58	60	3
63	64	7
10	65	2
115	125	3
183	183	9
232	232	9
212	214	1
4	15	2
111	112	6
73	112	1
165	172	2
60	103	2
36	36	11
143	143	5
129	129	4
177	180	3
120	121	7
15	121	1
195	196	1
75	76	3
167	167	5
17	17	7
54	63	3
80	82	1
210	211	3
120	131	2
234	236	2
63	65	2
5	5	6
160	183	2
39	42	2
125	125	7
192	195	4
179	181	3
103	103	6
15	120	3
21	23	3
161	162	1
208	209	2
58	61	3
45	73	3
8	22	1
137	138	4
21	63	5
29	29	11
8	21	2
121	121	4
214	215	7
56	75	4
40	47	1
85	87	3
141	142	1
59	103	4
10	44	1
192	196	1
16	49	3
56	66	2
28	43	1
19	58	1
36	37	2
136	143	1
198	211	2
50	51	4
8	31	2
105	113	2
137	148	4
0	56	2
7	134	2
83	114	3
150	153	3
111	111	2
179	180	4
6	82	2
135	136	6
83	104	1
205	205	8
204	204	8
23	29	2
3	5	2
4	16	6
203	219	1
115	123	1
51	57	3
17	20	1
53	76	5
4	126	2
98	109	4
116	126	1
2	3	3
55	56	10
103	104	5
197	211	4
9	61	1
193	238	1
6	13	5
230	236	1
44	73	1
203	206	2
13	21	3
65	102	2
10	10	7
19	33	1
134	138	3
238	240	1
62	71	2
206	207	1
128	242	1
147	148	3
217	219	2
172	173	2
121	164	3
137	154	2
144	147	2
86	106	3
30	40	2
36	44	1
230	232	3
185	194	1
86	87	1
114	122	1
132	157	3
28	143	1
18	168	3
213	216	1
240	241	3
53	65	1
124	156	1
77	80	1
213	214	2
180	181	1
81	85	2
4	6	2
73	74	3
231	234	3
159	183	5
8	126	1
40	41	4
143	144	1
62	76	2
182	190	1
203	237	2
221	222	1
73	75	4
169	175	2
39	40	4
228	228	3
233	235	3
15	21	5
54	55	1
49	50	1
55	120	2
108	128	2
155	156	6
101	102	2
155	181	3
31	127	3
14	15	2
79	123	1
48	60	1
75	80	2
182	192	3
37	44	1
202	220	1
24	200	2
140	191	3
113	121	1
203	204	5
119	120	4
102	119	4
21	58	1
33	33	9
13	35	3
16	16	10
75	78	1
133	145	2
225	226	2
162	164	1
96	96	3
12	91	2
17	91	1
200	220	1
188	189	6
148	152	4
67	75	3
18	78	1
49	125	1
108	119	1
0	1	1
19	133	3
61	63	1
183	186	4
39	58	2
4	8	1
28	29	1
177	178	1
130	139	1
142	142	1
67	71	1
229	231	3
24	25	9
69	102	2
4	34	1
169	169	4
81	96	4
25	68	1
12	14	3
165	167	2
133	134	1
57	76	2
130	141	2
70	71	3
7	9	2
201	201	2
55	121	3
88	88	5
132	135	1
86	241	2
132	139	2
173	219	1
76	113	1
107	107	2
56	113	5
196	219	3
154	154	5
64	102	3
79	105	1
42	46	3
55	77	3
14	124	2
232	233	2
185	188	4
199	201	2
79	122	3
6	6	5
0	12	2
66	75	2
7	116	2
187	193	1
198	239	1
79	107	2
16	20	1
41	47	1
6	66	4
216	216	5
164	165	2
229	230	1
141	178	1
175	176	1
97	238	1
153	183	1
3	3	3
23	31	2
70	102	1
39	57	3
58	142	1
173	184	2
13	83	3
163	164	2
37	45	2
110	114	2
6	79	1
121	124	1
133	147	3
55	64	3
151	153	2
3	6	2
16	19	4
22	59	2
152	164	1
108	108	1
63	71	4
72	73	1
60	75	1
76	77	2
84	100	3
131	156	1
124	125	1
197	198	4
212	225	1
197	221	3
40	78	3
22	23	1
131	137	1
74	84	1
84	170	2
65	68	3
9	25	2
206	208	1
146	193	3
1	2	2
195	219	1
220	221	4
181	183	2
128	129	1
18	32	2
175	184	3
189	190	2
197	197	1
188	215	1
76	80	1
168	173	1
56	99	2
13	36	1
176	176	3
11	11	3
7	14	2
4	13	1
22	60	2
211	227	1
24	62	2
10	25	1
212	226	2
7	127	1
34	36	2
135	139	1
60	66	2
34	66	1
184	197	3
68	76	2
173	204	1
204	216	1
215	222	1
49	51	2
1	23	2
159	160	2
173	185	1
2	22	1
2	105	3
186	188	1
6	14	1
82	88	1
37	57	3
104	115	1
196	217	1
2	60	4
36	38	1
48	126	4
205	222	1
143	174	2
177	202	2
23	41	1
135	151	1
7	80	1
176	177	3
76	78	2
106	107	5
74	75	2
178	179	2
85	143	1
77	78	4
32	34	1
66	68	1
30	106	1
156	157	2
109	121	1
69	143	1
87	107	1
71	73	2
12	13	1
168	182	1
120	127	1
211	228	1
187	196	3
109	119	2
139	142	1
6	12	1
241	242	3
14	16	1
48	54	2
175	183	1
146	147	3
205	209	2
71	242	1
190	217	1
6	108	1
117	167	1
118	170	1
195	195	2
14	123	2
98	101	1
125	126	1
6	31	3
4	17	2
126	130	2
6	117	1
8	118	1
214	232	1
167	176	2
25	64	2
190	196	1
51	65	1
15	37	1
7	16	1
99	136	1
167	177	1
106	127	1
2	35	2
23	60	2
124	130	1
38	56	2
80	81	1
36	57	1
75	109	1
174	175	2
62	67	1
96	113	1
202	221	1
98	100	1
179	221	1
115	116	1
18	169	1
130	130	1
62	70	1
194	211	2
24	28	1
177	201	1
201	203	1
44	47	2
107	108	3
8	37	1
172	180	1
21	56	1
38	39	1
60	64	1
7	66	1
154	159	1
214	230	1
204	215	1
198	220	2
12	126	1
4	118	1
143	147	1
5	89	1
205	216	1
213	222	1
159	165	3
162	165	2
89	171	1
95	119	1
5	80	1
199	206	1
33	41	3
19	150	1
101	103	1
213	229	1
166	168	1
204	213	2
11	35	1
114	125	1
192	240	1
95	109	1
9	23	2
131	136	2
32	75	1
59	119	1
21	22	1
228	229	2
210	223	1
113	115	1
39	47	1
16	120	1
99	105	1
144	163	1
5	14	1
133	138	1
178	202	1
2	107	1
82	123	1
2	6	1
236	237	1
34	39	1
50	60	1
228	230	1
61	64	1
12	52	1
95	121	1
82	105	1
10	72	1
233	234	1
238	238	1
29	31	1
217	235	1
242	243	1
21	64	1
116	118	1
5	78	1
166	167	1
16	22	1
8	75	1
11	31	1
77	92	1
19	22	1
78	78	1
112	113	1
137	139	1
68	88	1
184	212	1
29	103	1
