2	53	2
5	6	5
4	4	13
50	52	3
47	47	6
41	47	4
6	6	8
10	10	14
49	50	2
6	7	7
56	56	8
42	61	4
6	63	6
28	28	11
29	29	7
19	20	11
3	3	21
28	30	7
39	39	3
29	30	7
42	48	5
23	24	8
12	13	3
55	66	7
28	35	1
57	65	4
27	27	7
26	26	15
7	7	7
33	74	6
23	29	1
13	13	10
0	2	6
37	37	2
69	70	5
27	68	2
52	53	2
0	0	5
46	47	3
18	18	8
7	8	4
9	10	4
70	71	2
21	21	17
42	49	4
40	69	6
67	67	7
26	27	1
5	24	4
43	43	13
36	36	12
30	30	9
44	45	2
23	28	3
22	23	7
75	75	4
12	12	6
65	65	16
48	48	12
52	52	14
1	2	9
5	5	8
10	26	4
68	70	6
32	76	6
63	63	16
25	25	27
1	1	4
49	63	4
49	70	1
49	49	15
72	72	8
51	52	6
70	74	2
46	46	16
60	60	10
69	69	4
19	19	6
8	8	10
22	22	9
30	40	3
23	74	3
43	44	2
6	8	3
26	40	5
1	54	3
31	32	1
64	64	4
40	40	8
2	3	3
2	4	2
31	75	1
22	71	1
31	76	1
47	48	6
27	40	3
3	6	2
25	27	3
9	27	3
57	61	6
65	67	2
64	66	5
2	2	13
30	61	1
65	71	3
42	42	18
76	76	29
9	9	7
26	39	7
3	4	3
55	58	2
55	55	10
5	51	4
43	52	2
66	66	6
62	68	2
59	59	7
68	68	8
21	29	2
72	73	7
43	51	1
22	42	4
23	39	3
67	73	1
77	77	10
6	9	3
58	58	10
33	33	3
59	61	2
50	50	14
27	28	4
30	59	1
13	14	1
20	20	8
35	35	11
62	62	10
4	6	6
6	62	1
70	70	12
53	53	6
36	38	3
56	57	2
20	21	3
23	25	1
24	24	8
53	67	3
45	45	6
74	74	11
48	50	7
5	37	4
31	31	5
5	27	2
10	11	7
1	5	4
68	69	2
73	73	3
71	71	5
72	75	1
34	34	9
1	29	3
24	76	1
12	48	1
64	67	1
18	20	2
1	4	3
23	23	4
33	34	9
55	57	3
4	52	5
25	31	1
53	54	6
5	49	5
41	62	2
73	75	1
31	41	1
65	66	6
30	52	2
30	66	1
22	24	1
75	76	1
9	26	2
30	42	3
25	26	2
8	9	1
67	72	2
14	15	4
44	44	1
72	74	3
44	47	1
23	26	1
11	11	7
4	51	3
35	40	1
54	54	5
30	53	1
54	55	2
19	71	1
51	51	6
35	36	1
68	73	4
55	56	1
13	27	1
5	52	1
28	31	6
3	7	2
8	13	3
26	28	3
71	72	3
31	69	3
0	24	1
31	67	1
66	68	1
20	23	2
38	38	3
55	65	1
7	63	2
39	70	2
27	35	2
73	74	4
58	59	1
63	64	3
66	70	2
3	34	2
19	21	2
11	18	3
66	67	2
7	13	1
60	61	5
41	61	1
24	25	2
39	40	3
30	41	2
61	61	1
22	29	2
29	61	1
58	61	2
14	48	1
43	48	1
4	34	1
38	39	2
31	72	2
36	39	3
51	62	2
13	48	2
31	40	1
36	68	1
35	49	2
31	36	1
23	76	1
59	67	1
49	51	2
42	45	1
8	63	1
4	63	1
58	66	1
66	69	1
24	31	1
25	75	1
67	68	3
21	76	1
23	35	1
29	63	3
11	12	4
44	49	1
1	56	1
13	24	2
1	8	1
1	72	1
74	75	3
32	40	1
24	28	1
76	77	1
28	61	1
45	50	1
41	41	2
41	45	1
41	44	1
0	1	2
31	39	1
43	45	1
