52	54	1
29	29	4
101	101	6
65	65	6
76	76	6
68	68	6
57	57	7
96	96	6
57	89	6
40	41	5
40	40	10
106	106	3
71	71	5
74	74	5
38	38	3
33	101	2
81	81	6
34	34	2
29	30	6
21	21	8
59	60	3
64	65	3
34	85	5
89	90	3
56	56	3
95	95	7
86	87	5
107	107	2
85	86	3
87	87	5
22	22	5
94	94	13
59	67	2
39	39	7
70	70	6
44	45	2
69	69	19
104	104	21
77	78	4
80	81	1
33	33	3
77	77	4
66	69	2
91	100	2
39	42	4
92	92	4
46	47	3
31	65	1
85	85	3
95	106	2
28	28	10
25	25	13
66	66	6
26	26	15
86	86	8
46	46	5
99	100	2
88	88	7
46	48	3
47	89	3
90	91	7
42	44	3
55	56	1
102	102	7
66	80	1
51	51	8
55	55	5
61	61	1
84	85	9
27	29	3
35	35	4
42	42	4
38	53	3
37	38	2
73	73	2
58	58	7
94	95	4
84	84	6
68	73	3
62	62	11
98	98	4
83	87	5
57	58	2
29	32	1
75	76	2
54	54	7
75	75	6
25	29	2
93	105	2
20	20	2
49	49	5
47	47	6
91	91	4
52	53	3
82	87	3
93	93	4
37	37	9
79	79	6
45	48	1
23	23	3
59	59	2
91	92	4
31	31	3
49	50	2
56	68	1
40	86	1
84	86	1
86	88	3
82	83	4
60	63	2
45	89	2
52	52	7
26	27	4
72	72	6
50	50	5
79	83	2
90	90	1
62	63	1
98	99	5
80	80	3
78	78	1
29	48	1
44	44	8
37	45	2
61	76	3
42	86	2
106	107	2
80	97	2
105	105	1
78	89	3
26	28	3
79	97	1
32	32	5
97	97	4
97	98	1
34	35	1
85	89	3
53	55	1
47	48	1
97	99	2
48	48	2
93	95	1
63	64	2
61	62	1
64	64	4
60	60	7
79	91	1
39	81	1
27	27	5
66	67	3
93	94	2
33	71	1
35	36	2
61	63	1
67	67	6
43	78	2
46	53	2
35	52	2
71	73	2
43	91	1
89	89	3
100	100	2
82	82	1
36	37	2
30	30	2
88	97	1
76	77	2
31	64	1
65	76	1
40	42	1
71	93	2
24	24	3
42	43	1
37	40	1
36	36	1
70	76	1
20	21	1
58	60	1
25	26	1
39	43	1
37	52	1
49	105	1
58	98	1
97	100	1
65	68	1
53	53	1
63	63	1
54	63	1
23	24	1
27	30	1
68	69	1
83	88	1
32	33	1
