51	130	2
134	134	4
152	152	4
7	7	4
108	169	2
45	58	2
151	152	9
118	118	2
94	94	4
188	189	1
125	125	2
147	147	5
134	135	5
17	17	10
151	151	8
116	116	13
41	133	2
101	101	1
195	196	4
72	72	6
98	98	3
158	158	4
70	70	1
136	136	9
49	49	3
144	147	3
79	80	3
80	80	6
42	42	5
95	119	1
127	127	3
162	162	3
130	146	3
161	161	13
188	192	2
164	164	2
141	142	2
1	2	3
73	74	2
171	171	5
189	189	6
148	156	2
174	174	1
181	181	8
165	165	1
21	21	2
113	114	4
0	0	8
12	12	2
107	107	2
190	191	2
129	178	3
192	193	4
20	74	3
148	148	4
163	165	3
183	183	4
45	45	5
22	35	3
172	172	8
32	57	1
157	157	10
136	137	3
159	167	4
56	56	3
186	186	6
57	85	4
18	18	1
20	38	3
168	168	8
74	74	8
78	78	6
115	118	2
8	8	4
54	55	2
179	187	5
24	24	3
122	150	2
156	156	1
110	176	2
34	34	3
7	23	3
114	115	6
152	176	2
28	28	7
22	102	1
13	16	3
61	62	1
190	190	8
127	182	1
55	55	6
99	100	1
159	159	2
61	136	2
154	154	10
7	22	2
165	166	2
8	68	3
178	178	3
20	20	2
161	164	4
151	157	5
46	46	2
73	73	6
173	175	1
112	115	1
20	26	1
102	103	1
11	11	5
147	149	6
64	64	3
72	73	4
106	187	2
2	2	4
182	182	4
177	177	12
154	181	6
138	138	1
35	35	5
110	111	1
114	114	9
105	106	1
150	188	2
170	170	6
135	158	5
5	8	5
189	190	1
37	38	1
174	175	2
104	179	1
119	119	3
105	105	3
196	196	6
149	149	13
56	101	1
143	143	3
35	131	1
52	52	4
187	187	4
180	180	2
71	72	1
139	139	9
157	180	1
19	20	2
197	197	7
145	145	7
135	139	4
169	169	5
16	29	2
144	161	1
130	130	10
154	157	4
50	50	5
34	36	4
176	176	11
48	48	5
32	32	9
14	14	6
40	40	4
146	146	3
66	66	5
167	167	2
60	62	1
50	51	4
113	115	1
28	29	1
71	71	2
3	8	2
111	111	6
67	69	1
111	140	2
108	145	3
145	146	7
144	144	4
77	78	2
185	186	4
96	115	1
70	71	1
101	105	1
29	29	6
192	192	4
53	53	5
153	153	5
187	188	5
160	172	4
104	104	2
188	188	7
34	35	2
15	16	3
128	144	1
127	180	3
107	108	2
95	95	2
95	96	4
62	76	1
13	13	7
185	185	2
65	65	4
153	173	1
47	47	7
99	99	6
124	192	2
113	129	1
23	102	2
137	137	3
147	152	1
54	54	3
142	169	2
26	27	3
155	155	7
87	87	3
23	23	4
123	123	1
31	31	2
82	82	4
8	67	2
130	147	1
78	82	1
100	101	4
129	129	3
38	39	1
3	3	4
41	41	1
39	39	4
182	183	5
37	54	2
3	5	3
76	78	2
58	58	2
2	67	1
112	114	2
121	121	2
96	96	3
110	110	1
43	189	1
44	63	3
44	44	4
79	86	1
100	100	4
9	72	1
143	144	1
5	5	1
141	191	3
24	25	2
2	3	2
40	42	1
8	24	3
138	141	1
141	141	4
140	140	3
117	117	2
175	175	5
7	17	2
122	122	4
84	85	1
140	153	1
115	115	2
17	69	4
166	166	2
86	86	1
179	179	1
99	180	2
117	132	1
69	69	1
64	65	1
96	97	2
1	62	1
6	6	1
131	147	1
7	24	2
34	39	1
68	68	4
133	134	1
30	182	2
20	21	2
118	151	1
57	57	2
115	136	2
38	38	3
150	150	2
55	57	1
195	195	4
191	193	3
1	1	1
135	135	4
138	139	2
23	37	1
167	169	2
43	43	1
94	95	3
126	126	3
27	51	1
165	180	1
43	190	3
173	173	3
191	191	4
83	83	1
142	142	1
10	28	1
30	30	3
108	108	10
135	140	1
33	33	2
160	160	4
122	188	1
106	173	2
18	44	2
36	36	6
163	163	3
120	120	3
83	84	4
113	113	2
194	194	2
137	139	1
174	187	1
79	82	1
142	146	1
120	121	3
10	11	1
105	179	1
144	148	2
90	140	1
193	193	1
94	150	2
89	190	1
15	15	2
29	38	1
162	163	3
104	114	1
164	167	1
44	141	2
89	90	1
26	26	3
4	35	2
178	181	2
64	137	1
109	110	2
142	172	1
127	163	3
180	181	4
107	112	1
167	174	2
158	175	1
59	60	2
83	85	2
29	102	2
170	188	1
159	189	1
66	73	2
180	191	1
1	67	3
116	131	2
22	179	1
128	178	1
40	41	1
178	179	2
37	37	3
172	182	2
59	87	1
172	173	1
150	151	1
179	180	1
33	49	1
141	190	1
9	9	1
19	19	2
111	132	1
117	178	1
130	131	1
145	175	2
117	118	1
161	163	2
82	83	1
99	141	1
51	52	1
107	148	2
85	85	1
88	90	1
116	162	1
0	75	1
18	22	2
66	75	1
146	170	1
30	31	1
158	178	1
142	143	1
132	133	1
154	178	1
125	181	1
124	124	1
0	86	1
39	40	2
28	31	1
149	152	1
155	158	1
2	44	1
82	85	1
152	156	1
184	184	1
162	164	1
130	154	1
103	103	1
137	138	1
16	32	1
