125	126	9
79	79	8
39	55	1
9	10	20
29	30	2
61	64	3
130	131	9
27	83	2
62	62	15
71	71	10
23	23	28
97	117	11
20	66	2
119	119	28
55	55	14
26	26	20
62	65	3
8	8	22
85	85	28
52	83	1
16	16	27
98	98	13
110	111	21
116	116	18
90	90	16
40	40	32
75	75	20
60	60	31
1	1	14
21	48	4
66	67	10
116	117	12
59	59	26
73	108	2
34	36	11
64	73	3
56	56	19
125	125	25
51	51	17
41	42	9
135	136	18
66	71	4
20	61	1
78	78	19
37	52	2
141	141	33
143	144	3
84	84	10
137	138	6
93	94	13
85	86	6
118	119	14
11	13	2
50	50	7
129	129	35
108	108	26
133	134	14
52	53	9
4	5	15
95	102	4
95	111	6
126	129	5
17	17	36
48	59	6
92	92	24
14	15	10
123	124	19
104	104	12
122	122	24
101	101	15
64	65	9
5	5	14
124	125	8
90	91	4
115	116	11
132	141	5
27	27	22
77	86	5
97	123	2
136	137	10
38	38	31
89	89	21
8	36	2
2	40	6
79	80	7
129	130	14
141	142	12
49	82	4
66	68	3
91	92	8
144	144	25
106	109	1
138	138	41
105	134	3
113	113	20
48	48	16
134	134	35
114	114	6
66	66	30
101	121	3
47	47	12
111	111	28
96	96	11
27	28	6
11	11	16
34	37	3
28	28	20
113	131	3
53	53	13
35	35	9
89	90	16
43	43	10
74	74	16
103	103	17
127	130	4
56	57	5
139	139	27
126	127	9
73	73	19
121	123	4
14	16	6
34	35	5
25	25	19
28	29	12
81	81	27
41	41	22
41	75	3
48	87	3
48	50	5
106	110	9
29	29	28
50	51	7
117	118	10
90	92	2
103	120	2
11	37	3
51	58	3
116	118	3
18	18	28
9	9	22
58	66	5
124	124	25
4	4	7
133	133	30
6	6	10
94	128	1
132	133	6
67	67	20
36	52	4
97	97	9
82	83	9
49	49	13
33	33	23
102	102	21
42	42	18
22	22	19
142	142	21
64	64	26
130	130	40
70	87	1
94	94	27
21	63	4
25	26	7
125	127	4
142	143	11
130	133	3
71	72	8
99	111	2
87	90	1
119	124	4
141	143	9
81	86	1
137	137	23
23	57	11
103	125	2
118	127	2
117	117	23
96	114	1
39	39	18
119	120	14
58	59	18
19	19	24
126	126	24
77	77	33
140	140	17
120	120	23
145	145	18
57	57	19
32	33	5
113	119	2
52	52	20
112	116	5
39	52	4
24	24	15
17	18	2
26	27	12
112	112	13
104	105	15
63	63	15
13	13	21
36	36	15
30	30	21
99	100	16
19	62	1
100	100	35
0	5	5
110	110	18
123	123	29
19	59	2
70	70	12
76	77	19
77	78	4
31	32	9
72	72	15
127	127	11
140	141	1
137	139	1
88	105	3
50	57	3
65	79	4
111	112	7
34	34	13
32	32	20
114	117	2
83	84	11
97	99	1
131	131	21
108	109	6
15	16	8
82	89	3
139	140	17
73	74	15
124	126	5
121	121	28
112	114	3
54	54	15
83	85	5
105	105	7
69	69	21
54	56	2
132	134	1
80	105	3
127	129	6
10	10	8
23	41	2
9	13	3
62	63	7
128	135	3
126	130	4
65	73	2
111	119	2
135	135	20
12	14	5
80	95	4
81	82	12
2	3	2
95	95	16
82	85	8
31	34	7
67	70	6
88	88	21
117	144	4
114	120	1
134	135	17
76	76	16
36	37	6
122	123	14
15	15	18
86	86	11
82	82	13
80	88	6
74	75	5
1	12	3
5	47	4
29	80	2
3	39	2
145	146	1
58	58	9
5	6	4
128	128	21
3	3	10
107	108	9
138	139	11
57	58	6
67	68	4
42	52	1
117	120	4
20	21	6
87	88	5
43	51	4
107	107	14
90	95	6
143	143	18
101	102	6
33	34	8
30	33	2
118	118	27
108	115	1
109	109	18
2	2	22
99	124	5
95	107	1
49	51	2
102	103	16
61	61	24
3	4	3
98	118	2
8	10	1
43	76	2
83	93	2
3	5	6
56	58	4
144	145	4
22	53	2
68	84	3
19	23	1
25	27	3
102	118	2
31	38	1
86	89	2
109	110	15
68	68	10
80	81	6
14	14	12
63	64	7
126	141	8
73	84	3
67	78	1
120	121	7
43	65	3
40	41	10
65	65	15
116	125	1
51	52	3
31	31	13
30	38	1
135	138	4
99	102	5
102	105	2
113	117	8
54	55	10
38	39	2
39	40	5
22	23	6
136	136	14
20	64	2
131	132	12
75	76	6
12	15	2
58	60	4
18	19	4
12	13	11
82	100	2
41	74	1
134	139	2
83	83	16
100	101	1
124	145	2
93	93	14
106	106	22
49	52	7
109	128	2
21	21	16
43	48	6
8	9	5
89	91	6
84	105	2
33	36	1
46	47	1
17	19	3
115	115	11
51	53	2
3	14	6
37	37	28
3	43	3
114	129	1
91	91	22
112	120	5
108	110	7
23	42	2
71	73	2
83	89	3
116	120	1
102	112	3
74	108	2
59	60	7
93	106	4
99	101	6
139	141	2
17	38	1
43	60	2
105	106	7
80	80	11
49	59	1
95	119	2
79	85	1
0	0	16
65	108	2
72	73	4
60	61	6
111	118	6
96	112	1
106	107	6
21	40	1
49	106	1
113	129	1
23	24	6
101	125	3
35	36	2
2	68	1
117	132	2
20	26	2
69	70	7
99	99	8
95	115	1
53	55	2
112	113	8
1	2	4
95	96	7
76	109	2
138	143	3
37	38	9
89	124	2
84	106	5
128	129	9
20	54	3
20	20	13
98	100	2
97	98	7
87	95	3
118	120	6
0	10	2
55	56	4
83	101	2
132	136	4
126	128	10
24	26	2
10	13	3
119	133	6
98	116	2
85	104	2
2	33	1
19	67	2
4	20	2
24	25	3
68	70	2
132	132	11
96	113	2
123	138	1
82	105	3
100	125	6
117	127	1
21	66	2
88	110	4
113	118	2
20	60	4
68	69	4
49	50	2
131	140	3
87	87	6
82	127	4
0	1	5
110	116	2
50	60	4
57	59	3
77	94	6
20	62	2
73	76	1
105	107	1
98	99	3
38	40	5
20	56	2
13	14	3
89	105	2
103	104	9
133	135	2
70	85	3
43	52	2
100	106	2
99	104	1
88	112	3
66	72	3
23	37	5
124	144	3
56	74	2
39	54	2
39	43	1
104	107	5
40	43	6
13	33	2
123	136	1
140	142	2
82	125	2
101	104	1
115	120	1
99	107	1
69	86	1
41	43	1
77	79	4
47	76	3
5	14	1
41	62	3
104	116	5
11	12	1
0	2	1
59	61	5
84	85	1
34	52	2
98	101	4
114	116	3
36	38	2
2	72	3
143	145	1
18	27	2
127	128	3
36	49	2
87	96	1
70	71	4
49	85	4
2	11	1
91	113	1
111	114	2
54	86	1
40	53	1
87	114	2
68	73	1
20	55	4
96	97	7
96	99	1
98	117	1
105	131	2
48	58	5
24	27	1
120	123	2
90	114	1
4	21	1
97	114	2
133	136	3
131	134	1
21	55	1
78	89	3
102	119	1
136	142	1
128	130	3
92	93	6
75	108	1
76	78	2
105	110	2
51	84	1
113	128	3
135	137	4
5	12	1
27	29	3
89	121	5
1	9	2
40	72	1
133	141	2
90	128	1
119	123	1
12	12	5
43	47	1
96	105	2
30	31	1
40	79	1
98	123	2
97	119	2
122	133	1
129	144	2
33	38	1
120	131	3
27	79	2
84	103	1
69	84	2
2	6	1
112	118	3
10	11	4
49	90	1
97	105	4
19	24	1
108	125	2
140	143	1
23	52	2
88	91	2
114	115	1
134	140	4
33	53	3
136	139	2
136	140	1
39	72	1
32	35	1
105	135	1
94	95	2
41	64	1
67	69	1
116	126	1
88	103	3
32	38	2
92	112	1
11	33	2
108	118	3
4	13	2
9	16	1
104	141	2
88	90	2
53	87	1
17	36	1
112	136	1
11	21	1
97	102	3
88	96	3
118	132	1
33	52	2
105	126	1
113	114	2
76	79	4
68	85	1
25	65	2
113	127	1
109	111	2
134	138	1
55	85	1
91	94	2
18	113	1
112	119	1
24	41	1
65	66	1
132	137	1
87	89	2
53	54	2
31	33	1
14	17	1
128	133	2
39	42	1
41	73	1
55	65	1
62	80	1
94	106	1
70	72	2
105	130	1
47	79	1
58	64	1
124	134	1
114	127	1
144	146	1
2	4	1
16	17	4
62	64	3
36	72	1
128	142	1
74	107	1
0	9	1
8	11	1
68	76	1
19	66	2
11	66	1
48	78	1
30	54	1
8	17	1
134	136	2
91	122	1
100	105	1
134	141	1
73	75	1
1	11	1
66	73	1
142	144	1
104	106	2
42	75	1
109	127	1
77	123	1
88	89	1
81	95	1
121	132	1
48	101	1
78	79	1
138	140	1
89	128	1
82	126	1
67	72	2
72	91	1
61	62	1
27	62	2
2	9	1
113	130	2
96	110	1
137	140	1
87	94	1
107	117	1
100	121	1
136	143	1
118	133	1
117	126	2
17	30	1
98	113	1
110	119	1
67	81	1
104	127	1
72	75	2
111	113	1
128	132	1
75	82	1
119	132	1
120	124	1
118	124	1
104	110	1
119	121	1
