122	132	2
21	140	3
102	102	14
51	96	5
29	29	12
114	114	9
38	38	9
74	74	11
40	106	2
72	86	6
133	135	3
146	146	2
114	115	9
132	133	1
134	137	1
41	41	4
138	141	2
60	60	6
68	68	5
10	33	2
90	90	7
2	3	5
71	72	5
9	10	7
49	50	2
47	56	3
113	114	18
0	1	3
16	103	1
116	117	4
125	125	5
145	145	3
121	122	3
6	6	8
98	99	11
142	142	2
62	63	4
131	131	2
49	49	3
9	18	6
51	95	5
119	120	3
70	70	7
123	123	4
106	107	1
136	136	4
85	85	2
65	65	5
81	82	1
34	34	1
82	84	1
120	120	10
14	14	9
58	128	2
23	28	2
73	93	5
114	117	3
24	39	3
92	94	2
100	100	12
116	116	12
118	118	3
82	89	2
0	0	6
57	125	1
67	72	2
40	40	12
16	77	1
28	28	5
39	69	1
16	17	1
19	19	4
105	105	3
72	73	6
31	32	3
67	68	6
39	94	7
26	137	3
10	11	5
26	26	2
135	136	8
53	96	6
83	93	2
31	97	2
134	135	8
98	143	2
79	80	7
103	103	3
51	65	2
133	133	2
132	132	12
22	22	2
105	106	3
71	108	2
98	98	6
56	56	7
21	134	1
55	56	4
35	70	3
67	67	2
76	82	4
55	60	1
117	117	6
47	48	1
49	67	1
17	17	5
47	47	1
115	115	4
130	130	7
34	35	6
37	37	11
27	27	12
101	101	4
106	108	1
8	80	1
10	10	5
135	140	1
144	144	6
107	111	1
128	128	11
110	110	4
70	86	1
50	55	1
64	97	3
79	79	8
27	28	4
104	104	1
82	82	3
53	53	5
53	69	3
76	76	1
126	126	6
94	94	6
62	62	8
109	118	7
39	39	4
96	104	3
73	106	5
24	24	10
111	111	8
71	71	2
15	15	8
58	58	4
66	95	2
120	141	3
88	88	2
39	72	4
16	80	1
134	134	2
63	63	13
129	129	6
99	99	4
113	113	2
6	25	1
61	64	3
53	54	3
85	136	1
101	102	3
48	48	7
81	94	1
40	89	1
112	118	9
75	75	11
35	35	3
30	31	1
91	91	10
49	51	3
20	20	3
9	9	5
3	4	4
13	13	4
21	34	2
77	78	3
118	119	3
127	127	8
85	91	7
125	127	3
107	107	5
89	89	2
137	137	4
121	123	3
22	115	2
86	86	3
1	1	1
108	108	9
75	79	4
138	138	2
75	107	1
22	28	1
104	106	2
1	42	1
55	55	2
85	86	1
59	61	2
106	106	2
81	81	4
20	21	3
19	89	3
83	85	4
36	36	6
112	112	3
12	13	5
109	110	2
112	119	1
130	131	3
99	100	3
87	91	2
124	124	5
24	35	2
99	101	2
49	92	2
71	87	1
122	123	5
94	95	3
75	85	1
89	90	4
143	144	3
53	55	5
57	109	2
30	30	3
21	135	1
37	38	1
13	14	3
72	109	1
135	135	7
95	98	2
31	33	1
59	59	3
119	119	2
96	98	2
0	8	1
131	137	3
86	90	1
57	57	3
84	84	1
6	56	2
31	82	3
32	33	1
73	73	6
31	58	2
144	145	1
122	122	2
87	87	4
66	67	6
128	129	1
140	140	3
71	120	3
80	80	4
143	143	2
136	137	2
0	2	1
129	130	3
69	70	8
94	132	4
8	8	4
112	113	2
50	50	2
49	64	3
84	85	2
141	141	4
124	126	1
25	25	5
91	92	9
103	144	2
18	18	4
23	24	2
66	66	10
11	11	2
139	139	7
32	97	2
124	125	2
134	139	1
109	109	2
52	105	1
73	117	1
33	33	3
43	43	2
69	137	3
4	36	1
2	2	1
23	25	1
97	98	1
76	79	1
4	4	4
93	93	4
76	78	1
141	142	1
115	116	1
20	134	5
96	96	3
68	138	3
42	42	3
10	47	1
70	139	1
21	49	2
105	117	1
11	23	2
123	127	2
32	32	2
18	19	3
69	69	2
30	141	1
132	137	2
87	88	2
33	141	2
72	139	2
96	97	2
58	59	4
95	101	1
74	75	1
31	136	3
20	141	5
84	94	2
69	134	1
92	92	2
99	103	1
69	72	1
123	138	1
24	26	2
68	96	1
75	144	1
16	16	2
21	21	2
24	137	1
17	71	1
123	133	1
39	40	4
9	31	1
136	138	2
76	77	1
52	55	2
2	5	1
140	141	1
17	19	3
103	106	1
77	80	1
66	96	1
1	2	1
109	112	3
31	31	1
0	20	1
142	143	1
2	31	1
81	83	1
25	36	4
4	6	1
131	132	2
72	72	3
67	109	1
126	127	2
121	121	2
108	111	2
90	141	1
21	36	1
54	55	1
52	96	1
18	90	1
34	51	1
73	75	1
109	119	2
3	47	1
74	128	2
95	95	3
64	64	3
99	142	1
21	136	2
92	93	1
113	121	1
113	119	2
56	64	1
1	5	1
10	14	1
122	133	2
64	85	1
86	135	1
80	81	1
9	11	1
127	129	2
0	9	1
133	139	1
74	109	1
73	74	1
96	106	1
105	139	1
30	71	1
50	51	1
96	131	1
100	101	1
102	103	1
9	106	1
