68	68	9
95	96	5
129	130	3
146	146	5
97	98	6
64	65	1
49	49	10
42	43	4
25	25	18
36	36	20
120	120	8
114	115	9
63	63	13
117	117	9
169	169	6
88	88	9
4	4	7
107	107	5
41	41	15
63	66	2
160	160	12
37	37	13
17	24	12
124	124	11
131	131	9
159	159	4
101	104	5
154	168	2
40	40	8
22	22	8
123	124	3
8	8	21
106	106	9
75	75	14
28	28	6
55	56	7
23	23	13
57	57	8
12	12	5
135	135	9
74	74	5
135	136	3
137	137	15
100	100	1
148	148	12
81	94	3
138	138	19
48	50	3
4	6	4
27	27	13
8	9	3
6	6	4
115	115	9
35	35	14
111	113	4
13	15	2
44	44	11
132	133	4
168	170	5
38	38	6
95	95	3
104	104	3
0	1	3
68	70	3
12	39	6
148	150	4
89	89	14
20	20	7
34	34	7
54	55	4
72	72	5
121	123	6
147	148	5
58	58	3
7	7	13
47	48	16
50	123	4
16	21	3
13	13	14
51	51	19
121	132	5
136	136	3
34	37	2
114	114	12
3	4	10
120	121	3
155	155	16
105	105	15
154	155	2
165	167	4
65	69	6
128	129	2
47	47	3
66	66	6
17	18	8
137	140	5
14	154	2
112	114	7
137	138	7
128	128	7
112	113	3
113	113	5
112	112	17
82	82	6
3	7	3
45	46	2
118	118	4
18	19	12
92	92	2
144	145	6
93	93	9
37	38	3
6	52	6
102	110	1
150	150	11
76	98	3
14	14	17
77	78	4
120	128	10
142	142	1
104	105	1
51	146	9
159	160	3
88	89	4
110	112	3
70	70	7
57	76	2
145	145	6
154	154	10
98	98	3
24	24	3
116	116	4
90	91	2
73	73	14
78	79	6
151	151	10
63	64	4
164	166	6
13	14	5
126	126	2
132	132	3
76	78	1
74	82	1
47	49	4
167	169	2
46	48	2
161	161	4
76	80	3
16	16	11
20	21	1
17	17	9
6	7	2
141	142	4
139	139	8
19	19	7
143	143	4
67	67	2
1	1	23
153	153	7
38	39	5
133	141	2
2	2	10
100	101	1
26	26	7
35	38	2
20	170	4
68	69	3
146	163	3
81	81	4
104	109	1
64	64	4
70	71	1
42	42	7
74	75	2
40	45	2
52	52	6
62	62	17
146	147	3
111	111	7
49	137	2
12	16	3
102	137	6
80	118	1
48	48	10
27	28	7
61	62	5
71	71	1
43	44	3
92	99	2
125	125	10
117	118	6
62	108	3
39	40	4
154	160	6
52	53	4
170	170	5
72	74	1
97	99	2
46	46	12
71	137	3
39	39	9
6	22	4
157	158	5
33	37	2
20	22	2
4	38	1
8	10	3
121	121	3
81	82	4
123	123	1
133	135	1
48	49	5
45	45	7
43	43	6
55	55	2
167	167	5
33	33	5
127	127	13
156	156	2
154	163	1
130	161	4
50	50	5
28	56	1
147	151	3
7	26	2
50	51	3
11	12	9
54	54	3
146	158	3
97	97	8
11	17	2
68	80	1
85	85	9
0	38	1
91	99	4
103	105	2
149	151	2
118	119	1
94	94	7
144	144	4
84	84	4
72	95	1
5	6	4
133	133	7
158	158	8
4	5	2
125	127	3
110	111	3
84	96	2
127	128	3
152	169	4
155	156	5
49	53	2
26	55	2
15	16	2
91	91	9
92	96	2
79	79	2
6	112	1
36	65	4
110	110	5
44	45	1
57	84	1
149	149	3
13	16	2
152	152	2
19	23	1
36	37	4
165	165	6
165	168	4
56	56	6
134	134	5
72	76	2
148	149	4
18	18	8
83	83	8
131	132	1
9	10	6
64	69	3
99	99	3
105	107	1
53	53	11
96	96	8
7	27	1
143	144	3
69	69	6
78	80	3
101	102	3
76	76	3
135	137	4
11	150	2
1	2	2
130	131	4
75	81	2
124	125	1
152	170	2
140	140	5
85	86	2
122	123	2
4	37	1
46	47	10
139	140	2
9	9	5
61	63	1
134	139	1
109	109	2
102	102	4
77	83	1
107	108	3
49	108	4
72	73	5
16	17	1
84	85	3
93	94	1
163	163	4
76	114	1
86	90	3
49	115	1
22	23	5
40	41	6
6	8	2
108	114	1
167	168	1
47	116	1
145	147	2
115	117	2
72	122	2
67	69	2
82	83	1
44	46	1
160	162	1
101	103	1
90	151	2
21	22	1
18	167	2
21	21	4
70	95	2
37	42	1
21	24	1
101	108	3
64	150	2
109	110	1
0	148	3
68	76	1
119	119	4
90	90	3
51	124	1
6	9	3
0	0	3
78	78	3
150	151	2
165	166	2
121	145	2
71	73	1
11	22	2
125	128	2
26	27	1
75	121	2
108	108	3
86	88	1
19	20	3
119	120	4
11	11	3
12	13	5
18	20	1
105	108	1
50	52	2
147	147	2
14	23	1
129	129	3
10	10	5
126	127	4
153	154	1
127	129	1
23	24	1
14	15	5
166	166	1
24	25	1
169	170	1
86	86	2
69	70	1
67	68	1
67	107	3
108	109	1
87	112	1
124	131	1
162	162	4
82	136	1
101	101	1
154	156	1
70	107	1
81	121	2
87	89	1
19	164	3
151	152	2
15	17	1
75	91	1
14	24	1
87	87	2
115	116	2
117	119	2
130	130	1
76	84	1
65	66	2
154	165	1
44	66	2
129	131	2
159	161	1
11	15	1
33	34	1
76	85	1
122	122	1
39	45	1
5	8	2
17	23	1
119	131	1
62	64	2
21	23	1
166	167	1
44	54	1
142	143	1
