9	10	3
76	76	7
34	35	1
90	90	6
157	157	9
71	71	7
5	7	6
152	165	4
40	40	7
67	76	4
73	76	3
165	167	2
22	22	9
11	11	10
24	27	5
148	148	4
158	159	4
131	131	8
91	92	1
106	106	2
6	6	8
115	117	1
77	77	6
67	67	2
133	133	2
79	79	7
135	135	8
122	122	3
91	91	6
176	176	5
171	171	10
164	166	2
115	116	2
33	33	15
163	163	7
19	20	8
9	9	6
61	65	1
102	104	1
174	174	9
39	40	4
38	39	3
96	135	3
32	140	2
0	10	1
168	168	10
2	30	4
120	120	3
0	0	2
17	17	3
101	101	4
12	12	19
61	61	8
11	28	6
7	7	9
97	98	2
13	13	3
36	36	8
31	35	4
124	125	3
72	77	3
6	29	1
157	160	2
135	136	3
101	170	2
23	23	7
131	145	5
160	160	6
166	173	1
129	129	7
37	38	3
132	133	8
58	85	3
155	155	3
26	29	2
100	100	3
51	51	4
130	156	6
23	39	3
25	27	2
136	137	6
84	95	2
18	87	5
76	78	3
29	29	11
22	23	2
16	16	12
36	42	2
3	3	3
98	109	4
43	45	4
164	164	1
141	141	6
28	28	22
52	52	4
83	85	2
128	128	17
0	37	4
158	158	9
177	178	3
51	93	5
87	145	2
4	4	13
25	26	6
179	180	5
167	167	5
163	177	1
53	57	6
59	59	11
123	143	2
148	155	2
80	173	4
138	138	6
25	25	3
65	65	5
170	172	3
66	66	10
21	23	3
27	28	1
18	34	4
117	118	2
86	88	1
75	75	16
163	171	2
77	78	2
33	95	4
19	19	3
107	111	3
38	38	10
103	108	3
65	169	2
145	145	1
58	91	2
65	67	7
49	59	5
2	2	9
3	41	1
173	173	15
22	44	2
140	140	5
35	36	5
18	19	2
55	56	8
5	5	7
32	32	7
143	143	2
99	101	4
11	13	4
118	121	2
72	72	9
40	89	1
58	59	2
143	145	4
125	132	3
82	82	2
104	107	1
136	136	4
150	150	3
50	50	4
81	81	3
29	30	2
64	64	8
149	150	3
111	111	2
45	45	3
21	22	2
5	6	3
83	84	5
5	11	2
70	71	3
174	175	2
8	15	1
154	154	6
122	132	3
78	78	2
22	35	3
82	83	2
66	67	1
107	107	2
113	113	1
102	145	2
98	100	1
6	12	2
27	27	4
160	179	2
14	14	4
10	11	6
42	42	7
3	20	4
20	35	3
19	30	1
178	178	6
157	158	4
10	10	4
3	7	6
20	21	3
119	119	2
8	8	7
177	177	2
15	15	9
36	141	2
74	74	4
2	3	3
131	137	1
94	94	2
104	105	1
117	165	1
165	166	10
85	88	3
151	151	2
63	101	3
37	37	5
127	128	5
6	22	2
102	103	3
139	140	3
57	57	2
71	85	2
63	64	4
68	68	4
60	61	4
96	114	2
99	107	2
103	103	3
72	73	2
117	117	1
81	119	1
146	148	2
60	60	2
14	29	1
155	160	3
119	164	1
43	43	4
40	94	8
90	143	2
98	98	2
167	168	1
88	88	6
56	57	1
2	4	2
112	112	4
121	122	2
125	142	3
3	8	2
23	41	1
11	12	2
30	82	2
87	87	3
10	14	2
18	18	6
114	114	3
7	15	2
84	85	3
146	146	2
24	25	3
80	112	5
99	100	3
92	93	1
54	70	2
126	131	1
99	109	2
118	142	3
31	42	2
79	111	1
125	125	1
23	40	2
57	95	1
43	92	1
17	18	2
20	20	6
41	41	6
0	1	1
119	120	4
154	170	2
134	134	2
72	74	3
6	7	2
21	21	3
147	158	2
51	54	2
132	176	1
1	2	4
172	172	5
9	18	1
2	29	1
3	5	1
89	90	5
147	154	3
139	139	3
90	142	3
4	10	2
84	86	5
56	56	5
111	142	1
33	43	2
96	137	1
164	165	3
54	54	1
110	119	2
86	86	4
141	142	1
35	35	1
115	169	2
63	65	1
159	159	2
85	85	4
24	24	3
84	84	3
143	144	2
153	153	3
39	39	4
60	78	1
15	38	1
41	42	1
83	83	3
44	44	4
100	105	2
165	165	3
95	108	2
20	30	2
73	73	2
90	171	3
96	96	1
175	175	2
55	55	2
123	124	3
153	179	1
98	99	1
16	178	1
15	26	1
6	30	1
16	24	1
179	179	2
150	151	2
38	41	1
83	156	1
73	74	2
168	180	1
81	82	3
10	20	1
12	13	3
21	24	1
100	101	1
59	60	1
98	141	1
105	107	1
26	82	1
116	119	1
109	109	1
86	114	2
17	39	1
3	4	1
80	80	3
10	17	1
121	121	1
126	126	1
130	130	3
89	176	1
106	107	1
146	147	2
113	114	1
52	65	1
65	66	2
79	92	1
110	110	2
18	20	1
116	117	1
63	63	1
124	124	1
65	75	1
80	81	1
52	53	1
31	32	1
26	26	1
43	44	2
116	130	1
16	18	1
76	85	1
36	39	1
156	156	1
95	96	1
10	12	2
3	44	1
23	31	1
132	132	2
135	137	1
93	93	1
166	178	1
110	111	2
95	95	1
2	10	1
127	127	1
15	18	1
60	68	1
32	33	1
151	169	1
103	105	1
144	144	1
2	178	1
8	18	1
102	102	3
20	31	1
11	14	1
97	126	1
11	18	2
180	180	1
5	135	1
24	32	1
16	19	1
4	5	1
139	153	1
123	123	1
31	31	1
144	145	1
1	6	1
7	10	1
81	83	1
31	40	1
30	31	1
126	165	1
44	99	1
76	82	1
50	51	1
50	62	1
