190	191	5
140	140	2
129	178	7
106	109	1
2	96	3
114	114	2
140	141	2
171	171	10
174	174	2
37	38	10
156	156	6
16	17	10
14	14	1
213	229	3
168	168	2
227	227	3
18	18	1
9	17	4
30	33	2
125	126	4
211	213	3
186	186	5
117	124	1
88	88	2
201	203	3
84	84	6
11	26	2
217	217	6
121	121	2
95	95	7
228	228	4
65	65	8
6	7	2
167	167	5
194	195	1
82	82	10
164	164	5
148	148	3
127	128	5
213	213	3
80	81	4
83	83	4
30	30	2
18	21	3
43	43	8
205	206	9
216	216	3
159	159	1
8	34	3
97	97	4
37	37	27
224	224	9
68	68	7
14	80	2
231	231	3
196	196	6
42	42	6
78	84	1
67	236	2
134	134	3
34	34	5
204	204	3
41	50	1
120	120	2
180	229	2
143	175	2
74	74	16
184	187	1
157	190	2
49	49	11
69	69	11
63	65	5
230	230	1
179	179	4
61	61	10
81	85	1
51	51	9
15	31	1
2	3	5
123	177	1
141	141	6
8	8	6
115	125	1
3	9	4
82	83	3
189	189	5
69	151	2
79	102	3
7	7	14
44	44	2
28	28	8
202	202	2
200	200	2
14	16	3
62	69	4
100	101	2
27	27	4
220	220	3
158	159	2
181	181	3
99	99	2
9	9	13
54	54	9
4	4	8
58	74	1
35	36	4
60	60	2
122	127	1
214	215	6
229	230	2
161	163	1
208	209	2
201	201	6
118	157	2
236	236	4
18	19	8
137	137	6
48	48	2
46	203	3
43	44	3
3	95	5
214	216	4
139	141	5
36	36	4
136	137	4
218	218	4
221	221	3
148	149	3
49	95	2
175	238	2
121	174	2
70	70	7
20	20	5
207	207	2
59	59	1
77	79	3
54	55	4
167	180	3
184	185	2
221	222	6
225	226	1
220	224	3
73	73	4
64	65	8
219	219	5
125	125	3
176	178	2
155	157	1
109	109	9
45	45	3
46	46	7
53	54	3
32	32	3
107	108	2
17	17	3
187	187	4
165	166	2
147	148	1
76	76	2
21	21	10
26	26	9
43	87	3
55	72	1
39	39	1
83	84	2
180	182	2
149	149	3
29	31	1
203	203	7
23	23	4
56	57	2
69	152	1
22	23	3
164	168	3
31	31	5
154	154	5
142	143	1
98	98	6
190	190	8
0	3	2
192	192	5
46	175	2
103	103	3
160	161	4
177	177	7
19	19	3
53	59	4
1	5	4
147	172	2
21	22	4
122	122	5
25	25	10
166	168	1
48	50	2
146	147	2
74	76	1
234	237	2
61	62	5
209	209	2
61	85	3
35	35	7
56	102	2
129	129	2
12	12	9
195	230	1
139	140	2
226	226	3
3	3	4
170	170	5
176	176	6
163	206	1
12	13	3
142	145	2
106	107	1
173	173	2
108	109	4
172	172	5
67	67	4
100	100	3
163	164	7
65	66	10
16	16	7
133	134	3
40	40	5
197	206	1
19	75	2
215	215	4
180	180	11
51	76	1
55	55	6
13	13	5
163	163	2
106	106	4
29	30	1
170	171	1
205	228	1
208	208	2
158	189	3
240	241	1
195	233	3
205	205	5
64	64	2
75	76	5
39	40	1
223	224	2
118	119	1
232	233	2
4	5	1
120	175	2
77	78	5
42	43	1
0	0	3
159	187	2
237	237	1
206	206	2
28	29	1
9	10	1
237	240	2
24	24	3
154	192	1
151	201	2
38	38	9
15	16	3
52	52	2
1	33	1
150	151	3
20	83	4
62	62	2
33	33	5
118	118	4
162	163	1
71	71	4
97	99	1
55	86	2
50	51	1
2	2	4
211	219	3
155	183	3
1	1	3
3	8	4
207	208	1
113	113	5
1	3	2
166	167	4
57	75	2
116	116	2
170	186	1
0	24	2
49	51	3
58	59	1
224	225	1
233	234	1
235	235	4
104	104	2
144	146	2
122	125	1
211	212	1
138	138	1
217	218	1
114	115	1
0	1	4
211	211	1
105	105	2
43	73	1
39	42	1
7	8	2
232	232	1
201	202	3
132	134	4
236	237	1
49	50	6
14	15	1
106	110	2
75	75	2
68	121	1
136	145	1
78	78	2
45	46	2
95	105	1
212	213	3
10	10	1
79	84	2
226	227	3
178	178	2
155	155	4
36	43	1
15	78	1
219	226	3
48	195	1
47	88	3
32	33	1
52	194	2
128	128	5
11	11	9
215	216	1
81	82	2
79	81	2
52	53	2
30	32	1
9	33	1
210	212	2
229	229	4
13	29	1
22	22	6
133	133	3
24	25	5
127	127	6
41	41	2
144	145	5
139	139	3
58	58	3
207	211	4
166	166	3
158	158	2
11	79	1
15	79	2
102	102	2
80	80	1
49	105	2
77	77	1
241	241	3
2	92	2
223	223	4
238	238	2
172	183	3
185	186	1
40	41	2
190	223	2
188	188	3
47	83	1
30	81	3
167	189	2
175	189	2
235	236	2
132	132	1
75	105	1
181	182	1
69	99	2
89	221	1
54	99	1
162	162	1
208	221	3
57	103	1
30	40	1
8	17	1
54	61	2
153	153	2
233	233	1
160	172	3
25	95	2
157	159	1
155	186	5
25	38	2
29	29	4
152	152	1
197	198	1
222	222	2
71	72	2
222	223	2
195	195	1
160	160	3
71	137	1
198	198	1
53	85	2
182	182	1
168	186	1
154	155	3
3	4	1
78	79	1
142	144	1
27	73	2
89	89	1
28	42	2
145	160	1
75	78	2
86	121	2
162	164	2
33	34	4
124	126	1
213	216	1
130	130	1
55	74	1
145	146	1
159	161	1
194	194	2
86	86	3
159	173	1
181	184	1
110	113	1
63	63	1
57	60	1
185	185	1
30	31	1
72	73	1
119	119	1
168	184	2
70	73	1
10	70	1
81	81	2
87	87	1
10	39	2
112	112	1
0	59	1
88	89	1
5	5	1
115	116	1
105	108	1
191	191	1
61	86	1
169	169	1
62	136	1
192	193	1
46	62	1
34	35	1
239	240	3
209	210	1
183	183	3
66	67	1
29	42	1
48	81	1
47	47	1
79	79	2
81	84	1
160	165	1
184	184	1
56	56	1
180	181	1
211	215	1
75	108	1
13	34	1
137	138	1
41	49	1
149	151	1
190	224	1
104	116	1
