0	0	33
18	19	11
71	71	9
63	64	2
164	164	10
40	40	21
2	2	26
29	102	1
18	18	29
4	6	6
82	82	11
138	138	13
18	22	2
84	85	14
106	106	20
71	72	13
13	13	29
66	67	3
17	17	27
84	86	13
28	31	4
78	79	2
115	115	18
137	137	12
144	144	10
12	12	27
53	55	3
134	140	1
158	160	4
108	108	17
80	80	10
149	149	27
71	80	1
93	93	12
81	82	12
133	134	4
80	93	2
129	129	19
83	83	15
148	148	19
33	54	3
76	77	6
14	14	44
157	157	13
8	8	26
64	64	14
41	41	30
119	121	5
156	156	9
8	9	13
73	73	21
171	171	28
30	33	8
97	104	2
179	179	18
111	111	7
6	6	18
4	4	32
102	102	10
119	126	1
114	114	35
39	39	34
60	60	22
24	27	7
142	143	5
176	176	18
121	143	4
9	9	34
117	117	4
142	142	12
3	3	24
37	37	29
123	123	15
162	162	23
150	153	7
168	168	13
35	36	9
41	42	11
45	45	29
119	119	21
152	154	5
120	120	15
53	54	4
146	171	8
21	24	4
16	16	12
141	141	26
19	20	8
1	1	25
139	139	12
11	11	29
101	101	10
114	115	7
169	172	6
115	120	6
4	15	4
82	88	2
109	136	5
44	46	1
102	105	6
27	27	18
146	146	9
122	123	7
34	34	14
91	98	3
174	174	16
8	12	4
90	90	7
134	135	4
66	68	3
173	173	13
78	78	10
4	7	12
86	86	18
10	22	3
77	79	2
23	23	25
92	93	9
21	22	6
104	104	14
112	112	15
175	176	2
128	128	11
7	7	22
97	103	5
35	35	25
147	147	7
138	139	1
118	120	5
167	167	23
103	103	12
96	96	16
63	65	6
130	130	10
22	22	22
60	92	4
5	9	1
28	29	16
52	52	16
52	53	10
84	84	13
23	24	8
18	40	3
147	153	7
10	19	6
143	143	11
145	145	11
110	112	3
33	34	11
163	163	16
79	80	3
31	31	40
29	29	42
5	8	10
166	166	21
7	8	12
128	129	9
108	109	7
67	67	12
112	117	6
95	105	2
15	20	6
162	163	5
92	92	9
30	35	3
93	102	4
134	134	19
65	98	5
150	152	5
39	44	1
1	7	2
73	75	6
160	161	8
95	96	4
131	131	18
92	142	2
166	168	6
70	72	4
89	89	15
20	20	12
96	97	5
153	153	14
32	32	54
158	158	14
115	121	4
3	4	8
105	105	10
77	78	4
6	9	1
3	6	1
9	10	8
3	18	3
174	175	9
54	54	9
38	38	33
13	15	2
151	154	2
115	116	8
63	63	12
85	85	8
118	118	15
43	43	19
6	8	4
74	74	18
42	42	36
53	53	9
26	28	1
140	148	7
129	130	13
15	15	18
177	178	5
72	72	20
172	173	17
33	35	6
159	163	7
39	41	8
107	107	23
50	50	15
68	71	3
15	16	11
67	97	2
16	29	2
0	1	11
87	87	7
50	51	12
80	83	2
110	110	12
3	19	1
88	89	11
61	61	18
65	65	17
33	33	14
59	59	3
43	135	3
121	124	3
19	21	6
107	166	4
94	94	10
178	180	5
39	61	2
26	27	12
108	118	3
161	161	13
115	151	3
62	62	18
153	154	4
37	38	2
147	148	3
52	65	3
28	30	7
22	23	4
26	26	12
16	17	15
9	11	4
160	160	17
28	28	24
110	114	4
25	26	9
99	104	2
17	23	2
120	122	4
135	135	17
170	170	7
5	5	18
24	25	17
37	39	9
43	44	18
70	71	4
10	11	16
122	122	5
11	20	3
56	57	6
62	116	2
177	180	2
155	156	6
55	55	20
83	84	8
97	98	4
99	99	9
145	146	5
19	19	29
19	64	3
65	68	3
39	40	9
135	136	3
64	67	2
24	88	1
16	41	3
44	44	21
104	106	1
148	149	4
109	109	11
173	175	4
159	165	3
10	15	4
27	94	4
99	103	1
95	95	18
155	165	8
87	89	5
20	39	3
1	2	4
151	151	10
10	10	34
57	59	1
24	24	24
113	117	4
10	14	3
40	68	4
120	121	5
29	31	3
30	31	20
103	104	8
6	16	5
59	108	5
17	21	1
83	146	2
14	15	11
29	30	4
158	159	6
20	23	4
150	157	2
25	25	27
133	133	12
159	162	5
36	38	4
150	150	24
156	169	4
18	20	2
123	124	9
45	46	2
126	126	9
169	169	10
107	108	9
29	96	4
115	117	16
159	159	5
101	105	2
6	17	3
14	16	2
38	58	3
141	145	2
13	14	9
175	175	26
76	94	1
21	28	5
140	140	11
178	178	11
61	66	2
24	26	8
127	127	8
62	67	1
137	159	1
166	167	7
50	54	1
161	162	6
159	160	4
32	35	2
33	36	5
112	116	2
16	18	6
152	152	9
3	15	4
1	35	1
17	31	3
35	41	3
139	140	2
56	56	6
12	13	16
132	133	8
42	97	4
66	66	17
88	88	4
165	165	3
27	31	6
25	92	2
125	125	12
10	12	1
137	148	4
141	149	1
0	37	2
169	174	7
38	41	2
59	60	1
18	23	1
73	93	2
75	75	6
156	157	7
124	125	10
36	37	11
126	128	4
65	97	1
2	3	8
116	117	8
30	30	17
155	160	2
97	99	3
36	41	5
0	32	2
38	95	1
83	86	4
111	144	4
89	120	3
61	73	2
77	94	2
2	52	2
156	173	3
3	5	1
41	43	2
151	155	2
68	68	8
152	153	4
51	51	14
57	57	18
38	40	7
156	168	5
99	102	5
140	147	3
80	84	4
150	151	5
150	172	4
17	60	4
110	131	5
118	140	2
19	65	4
108	147	4
163	166	8
58	72	3
105	139	1
91	91	12
154	154	4
100	100	6
112	142	3
2	15	3
91	94	1
131	132	4
143	145	5
74	75	6
113	116	5
112	114	9
81	81	8
1	26	2
2	7	3
110	111	7
76	76	12
39	68	2
60	61	3
169	171	4
151	152	3
103	105	7
87	88	2
157	178	3
163	164	9
7	10	3
79	81	1
72	132	3
170	173	2
77	77	9
121	121	6
11	12	3
12	15	2
86	88	2
135	144	1
23	25	2
2	9	2
27	30	1
16	23	2
101	102	5
107	109	7
31	32	5
21	21	15
29	39	3
41	62	2
85	89	4
31	40	2
3	9	5
132	132	4
118	119	1
9	12	3
56	65	1
40	41	6
144	145	5
103	138	1
118	121	3
23	26	1
51	67	4
157	158	3
27	91	1
137	163	1
91	92	5
109	111	2
16	40	1
0	38	2
174	178	3
66	100	2
149	153	2
125	126	4
95	102	5
80	89	1
0	2	2
107	127	3
19	42	3
19	24	3
2	14	1
92	147	4
142	145	1
58	60	5
58	134	1
9	16	1
72	73	3
53	64	3
27	28	3
49	50	3
118	128	1
171	172	2
43	45	1
63	97	2
7	18	2
119	120	3
106	163	1
34	41	1
173	174	4
34	35	4
90	98	7
21	23	4
159	176	4
155	155	7
172	172	9
10	16	2
38	44	2
98	98	12
137	138	1
124	124	6
127	129	1
85	87	1
164	165	5
29	35	2
156	170	1
56	58	2
42	43	1
25	28	1
168	169	3
126	127	3
155	157	1
177	177	2
64	65	3
100	107	1
20	21	4
105	106	9
14	64	2
5	14	3
79	79	6
5	7	8
98	101	3
29	44	2
116	116	2
154	169	1
131	134	2
87	101	3
8	10	3
0	35	1
103	106	3
59	93	1
70	79	1
163	167	2
3	8	4
106	108	3
113	113	8
136	147	1
154	163	4
9	13	4
75	76	2
40	43	5
111	113	2
7	11	2
9	15	3
44	45	5
165	168	1
36	42	1
158	172	1
136	136	7
70	77	1
97	97	10
42	68	2
164	166	2
77	143	1
5	22	5
39	52	4
35	38	3
13	21	1
5	33	1
117	151	2
37	41	1
36	36	7
28	95	2
170	171	1
64	101	2
99	100	4
8	18	1
168	173	5
82	83	2
56	59	1
26	30	1
2	5	4
42	45	1
2	4	1
53	66	3
32	65	1
80	92	1
157	159	2
98	99	2
17	18	7
146	147	1
143	144	3
79	92	2
22	103	1
32	33	5
23	30	2
111	112	1
2	11	2
146	170	2
24	130	4
31	42	1
112	133	1
82	85	3
93	133	1
109	117	3
67	68	5
134	139	1
148	153	1
13	58	1
9	22	5
90	91	2
135	147	1
6	26	1
39	42	2
121	127	2
156	174	2
140	170	1
147	154	1
0	36	3
124	133	3
108	132	1
116	122	1
24	28	2
86	87	2
27	100	2
30	128	1
136	146	2
58	59	1
6	7	5
165	166	6
38	39	7
155	158	1
175	178	2
3	10	2
2	6	3
4	5	2
52	54	2
60	93	1
122	124	1
15	29	1
29	32	2
6	19	2
139	145	1
161	178	2
15	25	1
28	89	3
107	117	1
108	134	1
30	32	2
5	6	2
19	67	1
109	110	1
60	149	1
81	127	1
147	169	2
99	109	1
70	70	1
149	150	1
58	58	2
167	168	2
40	42	2
41	96	2
105	107	2
164	167	1
1	114	2
172	176	1
15	52	1
81	88	1
110	119	1
176	177	1
16	138	1
11	15	3
104	105	2
126	129	2
135	148	1
28	37	3
46	46	3
102	103	3
127	128	2
153	169	2
180	180	3
81	83	3
166	169	1
154	156	2
108	131	2
41	68	1
12	14	2
35	44	2
110	132	1
22	29	2
136	144	1
17	45	1
1	16	2
34	37	2
156	165	1
146	161	1
42	44	2
105	109	2
40	45	2
88	90	1
32	40	3
151	153	3
90	94	3
40	52	1
83	85	4
11	13	2
171	173	2
1	18	1
121	141	1
160	162	1
179	180	1
91	93	1
130	131	2
3	11	1
82	89	2
105	117	1
63	98	1
23	29	1
67	96	2
72	75	2
68	70	2
8	11	1
28	44	1
110	117	1
159	164	1
93	94	1
115	127	1
124	141	2
54	55	1
91	95	1
32	54	1
99	105	1
21	31	1
31	35	2
135	142	1
49	51	1
167	171	2
153	155	1
2	25	1
169	175	1
124	126	1
14	171	1
107	128	1
20	31	1
157	164	1
125	127	1
168	171	2
24	82	1
58	76	1
71	88	1
123	125	1
159	169	1
7	9	1
7	26	2
115	148	1
20	22	1
58	90	1
31	64	1
13	17	1
38	52	1
22	25	1
41	45	1
55	56	1
61	75	1
108	133	1
80	82	3
2	20	1
84	90	1
102	104	1
156	161	1
4	8	1
141	142	1
17	44	1
8	15	1
63	66	1
50	53	1
116	127	1
157	160	1
81	89	1
28	43	1
110	116	1
106	107	1
