99	99	18
92	92	41
86	87	6
23	55	6
71	71	24
84	84	9
45	61	3
78	78	40
98	98	21
50	51	3
74	74	24
27	27	24
55	55	12
100	100	16
94	94	13
76	76	19
94	97	6
101	101	16
52	52	28
80	97	10
86	88	4
82	101	4
48	48	19
22	25	3
30	31	2
22	54	1
79	87	6
31	78	1
34	35	7
43	43	25
46	46	15
42	69	5
85	85	11
70	70	35
41	42	2
38	68	1
53	53	19
49	49	17
42	42	22
37	67	3
34	38	2
42	43	16
23	23	12
94	95	6
23	26	3
66	66	22
84	86	6
64	64	25
65	65	23
36	36	20
80	80	29
80	81	8
56	56	19
71	72	4
73	73	19
67	67	19
25	26	3
68	74	1
38	44	2
92	97	1
95	99	1
51	53	8
95	95	9
72	72	13
70	75	5
52	53	6
79	79	20
96	96	23
90	90	24
48	52	3
44	45	4
39	73	5
52	55	5
56	57	12
67	68	14
35	35	13
53	54	8
68	68	23
63	63	13
40	40	19
88	88	20
97	97	27
59	59	22
54	54	15
45	74	8
91	92	5
48	49	6
87	87	18
44	44	17
39	70	3
57	57	16
64	78	3
48	65	10
80	101	1
62	64	2
65	66	14
61	61	36
89	97	5
45	73	3
33	33	27
37	38	8
47	47	20
25	25	10
81	81	17
42	70	3
75	75	28
31	32	6
70	72	7
77	77	11
36	37	4
34	34	9
60	60	14
41	41	28
58	60	11
62	62	5
20	28	7
94	98	5
27	81	1
45	66	5
95	96	4
86	86	31
50	50	16
39	39	15
29	32	6
92	93	7
68	71	4
69	69	14
83	88	5
100	101	1
25	27	2
53	55	3
50	52	1
30	30	11
73	74	2
87	88	12
30	59	5
80	86	2
38	38	7
24	26	3
51	51	7
58	58	25
43	67	3
101	102	9
41	43	3
51	62	1
93	93	14
28	28	2
82	87	3
72	73	3
102	102	3
63	78	1
41	75	4
69	72	3
61	62	13
94	101	6
49	50	13
45	45	17
85	90	6
60	61	3
28	80	3
51	54	4
31	31	9
93	97	3
26	26	14
83	83	5
24	24	8
55	56	8
22	23	3
89	89	13
57	59	3
69	70	12
29	78	3
20	20	2
68	69	14
97	101	3
84	88	5
51	60	3
81	84	4
24	28	4
76	77	4
58	59	4
92	101	2
23	24	4
98	100	2
47	48	2
97	98	4
96	97	10
46	47	11
29	29	15
27	28	2
29	33	4
26	27	5
82	82	4
86	89	3
95	98	5
49	64	3
70	71	8
98	99	7
50	63	3
77	78	2
48	50	2
31	60	3
45	51	2
49	51	2
82	89	5
74	75	3
68	70	4
24	25	5
35	48	4
81	88	3
24	54	3
79	85	4
91	91	18
83	89	2
34	67	1
89	90	2
84	98	3
80	95	3
70	77	2
39	66	4
93	94	6
41	64	3
84	87	2
63	79	2
76	78	2
47	66	2
89	91	1
93	99	1
38	39	5
66	67	2
25	33	3
90	91	2
47	53	7
33	34	4
64	65	3
75	76	4
32	32	6
22	58	2
92	94	3
81	96	1
78	79	3
38	52	1
99	100	6
80	88	1
85	86	2
29	30	6
44	47	2
79	83	2
37	65	3
40	41	4
72	90	2
82	83	3
45	56	1
56	59	1
54	55	3
35	47	4
79	89	2
85	89	2
98	101	2
81	82	4
29	55	1
38	40	2
20	52	1
43	65	3
62	63	3
60	78	6
86	101	1
25	28	4
67	70	3
56	58	5
37	44	1
86	102	2
22	22	4
37	37	3
63	65	1
35	38	2
57	65	2
35	36	5
27	60	2
51	73	2
26	33	1
57	60	2
72	74	3
99	101	1
67	69	1
34	49	1
24	27	1
53	62	2
61	63	1
32	34	1
39	77	2
83	84	3
62	66	2
23	28	4
20	22	2
45	53	1
79	80	3
93	95	2
66	77	1
43	44	1
81	93	1
69	77	2
36	65	1
79	84	1
47	60	1
45	47	2
45	65	1
80	82	1
50	58	1
63	66	1
93	96	1
92	96	2
59	63	1
51	67	1
57	58	1
46	50	1
91	93	1
61	87	1
