67	67	18
80	80	23
99	99	9
74	74	16
104	104	19
59	59	23
94	96	6
10	10	19
120	120	20
36	68	4
122	122	20
100	100	18
33	33	12
87	87	12
25	25	12
96	97	3
0	0	17
42	55	1
95	97	2
7	11	3
102	102	26
54	54	18
71	71	23
99	100	3
131	132	5
58	78	5
46	66	2
105	114	11
56	57	15
112	112	14
55	95	4
91	91	34
132	132	17
16	16	21
121	126	4
128	129	4
96	96	11
130	130	16
128	128	13
107	108	4
59	61	3
108	108	15
97	97	30
55	55	13
120	123	1
99	117	2
78	79	4
98	98	12
94	94	21
89	122	3
94	118	4
31	31	7
88	88	12
64	65	6
84	85	15
106	106	18
90	102	1
116	119	3
78	123	3
47	128	2
65	66	5
92	131	4
6	6	9
110	110	27
18	59	1
44	68	5
60	66	2
3	3	10
105	106	6
7	8	7
126	126	25
55	56	8
115	117	10
111	111	18
117	117	17
83	84	8
103	103	31
107	109	5
129	131	2
14	33	4
107	107	13
77	77	25
82	108	1
134	134	11
27	27	25
77	86	4
11	11	5
107	113	4
58	64	2
57	57	5
82	82	13
121	122	6
13	13	10
127	127	20
57	68	7
30	30	9
28	30	3
24	33	7
62	62	18
5	5	16
19	19	14
0	3	3
98	99	4
26	26	24
74	98	3
129	129	26
60	60	11
113	134	2
79	79	11
20	20	10
105	105	18
50	50	5
127	131	1
5	19	3
92	92	26
29	30	11
58	58	3
6	88	6
17	17	10
64	64	5
124	124	14
7	7	8
10	83	4
22	24	2
71	72	2
36	36	17
43	47	2
113	113	34
109	109	10
75	94	1
70	115	3
1	1	19
122	135	2
98	105	4
4	4	29
72	73	12
62	63	6
79	117	1
10	38	4
53	53	20
17	18	6
66	67	10
131	133	4
93	94	15
33	36	2
48	48	10
131	134	5
131	131	13
44	84	2
70	70	17
23	25	2
119	120	19
50	68	5
29	29	17
115	133	2
3	4	10
85	85	12
115	126	4
49	50	3
68	124	7
49	58	1
83	85	3
32	32	19
11	29	4
9	9	12
43	50	3
56	58	2
34	34	9
5	6	3
95	95	20
66	66	14
65	87	3
132	133	5
68	68	20
119	119	32
122	127	1
14	25	2
133	133	11
50	62	4
35	35	12
81	82	9
28	28	8
116	116	9
9	10	2
90	90	28
101	101	12
2	59	7
110	113	4
114	114	9
8	8	13
18	22	3
86	86	15
122	130	3
95	127	5
99	102	4
110	128	1
119	122	5
135	135	1
78	78	5
129	130	3
118	118	10
74	75	9
86	87	7
80	81	6
25	27	3
8	28	6
49	49	9
106	111	3
121	124	3
106	108	5
12	13	4
23	23	3
117	120	5
7	48	2
79	120	2
92	93	5
27	28	5
36	55	1
94	133	1
72	72	12
108	123	3
9	11	6
87	125	7
21	49	4
106	107	7
106	118	4
75	75	7
123	125	4
95	99	8
36	64	2
125	129	3
57	58	2
115	118	1
69	69	10
126	127	6
120	121	1
5	30	2
36	37	1
52	54	4
111	112	3
34	61	1
31	32	3
43	44	2
121	121	16
37	37	8
23	24	2
56	56	8
115	115	7
112	117	1
71	79	4
94	95	4
72	99	2
73	74	2
73	73	7
108	127	1
13	71	2
71	80	4
0	112	4
111	127	4
7	87	1
114	115	7
48	81	3
112	135	4
71	100	1
34	50	4
53	55	3
18	18	10
35	63	2
125	125	15
123	123	12
29	69	1
18	21	2
19	21	4
20	81	4
13	14	1
18	60	2
78	82	1
87	88	6
25	26	3
25	46	1
70	114	7
11	15	1
21	30	5
58	59	6
102	104	2
24	24	9
81	81	8
84	84	8
96	120	3
57	60	1
18	19	3
11	14	1
69	70	6
2	2	3
15	16	4
52	77	5
15	15	8
96	124	3
26	48	2
109	110	2
59	76	6
52	53	5
72	77	2
8	19	1
15	23	1
8	13	2
74	94	1
33	34	7
66	82	1
93	93	5
24	36	4
116	117	5
134	135	4
43	43	20
91	92	1
112	114	2
53	54	16
44	44	15
13	15	3
70	112	3
14	14	6
24	26	2
127	129	2
108	131	3
116	126	1
60	92	4
110	118	2
5	43	2
45	66	2
82	116	2
106	125	2
111	113	3
104	121	6
61	84	3
60	61	6
20	56	2
83	117	3
65	65	6
110	127	3
7	14	4
83	83	8
9	15	2
76	76	12
83	119	3
26	27	3
89	90	5
10	54	2
54	64	1
117	123	3
33	52	3
78	86	4
100	110	3
21	23	1
88	89	2
107	114	6
56	82	3
105	115	4
57	84	4
65	86	1
71	81	4
61	61	10
33	51	4
21	21	14
95	96	2
34	49	1
54	70	2
130	131	8
12	12	4
105	107	2
19	131	2
20	63	3
87	117	4
67	124	1
1	2	4
52	55	4
54	55	8
97	121	2
45	45	7
123	130	1
76	78	3
73	80	4
91	124	1
85	97	8
29	121	1
66	86	2
97	98	4
6	7	2
14	24	1
83	109	1
8	9	1
130	134	3
9	24	3
77	120	2
14	15	7
55	57	2
127	128	1
117	118	5
129	132	3
109	118	2
50	53	2
116	118	3
52	52	8
68	72	2
59	84	3
118	131	1
13	17	1
0	1	4
122	123	4
83	86	1
80	85	2
12	27	2
32	51	1
62	76	1
89	89	9
81	129	1
75	76	3
123	135	3
122	131	1
17	70	2
71	84	4
37	49	2
17	21	3
109	111	3
94	129	3
80	82	5
6	11	1
59	65	2
89	103	3
15	26	1
115	116	5
80	86	1
91	109	1
28	29	2
61	85	2
60	114	1
53	68	1
94	119	1
50	52	3
106	109	1
75	93	1
96	128	2
10	13	1
17	33	2
7	24	4
58	69	1
47	47	3
61	64	3
47	48	1
97	124	1
26	28	1
106	130	1
74	91	3
7	86	2
25	50	2
87	100	1
9	20	1
7	92	2
96	110	1
118	126	3
63	94	1
72	83	1
78	106	1
121	129	3
8	20	3
14	19	2
81	128	1
64	93	2
63	70	1
65	69	2
80	95	2
67	72	3
97	100	2
57	82	3
108	111	1
18	20	3
113	114	4
82	84	1
45	87	1
62	79	2
107	119	4
117	119	2
101	126	3
35	47	2
10	57	3
55	80	4
19	52	2
4	15	1
9	33	2
63	65	1
59	85	2
44	87	1
20	21	2
10	55	2
12	24	1
63	79	1
70	94	1
43	46	2
124	126	1
101	105	3
6	10	3
104	105	1
100	101	1
73	98	1
76	105	1
123	124	1
92	97	1
14	16	1
71	86	1
6	13	2
79	101	3
83	107	1
28	35	1
95	111	1
61	62	1
9	21	2
112	115	2
30	81	2
120	132	1
31	35	1
97	116	2
76	111	1
70	79	1
102	103	1
77	110	1
91	97	1
14	53	1
9	14	1
33	50	1
24	29	2
113	126	3
77	78	2
54	63	1
61	113	1
58	60	1
57	69	2
64	85	1
66	92	1
87	97	2
130	135	1
63	63	1
128	131	1
19	25	1
63	103	1
106	119	1
50	57	1
75	78	1
127	130	1
93	133	1
86	110	2
66	85	2
49	61	1
112	113	2
29	49	1
58	61	1
82	91	1
111	129	1
20	23	1
5	29	1
19	20	1
101	110	1
110	135	1
118	122	1
79	80	1
12	49	1
124	125	1
78	88	1
63	66	1
59	77	1
62	65	1
125	126	1
50	82	1
13	16	1
97	99	1
108	109	1
112	134	1
109	122	1
105	111	1
21	59	1
8	10	1
120	125	1
51	91	1
