4	5	2
73	76	1
189	211	1
82	100	2
172	173	2
167	167	6
38	50	1
27	27	5
208	209	2
198	198	6
154	154	2
83	83	6
218	218	1
44	45	3
163	163	3
42	42	7
55	55	8
73	73	2
66	66	1
242	242	2
109	109	2
108	245	2
6	18	2
33	33	1
81	81	2
72	72	8
230	230	2
172	172	2
11	11	2
120	120	3
14	31	1
224	235	4
92	92	5
211	211	5
165	165	6
182	221	2
203	234	2
70	70	2
29	29	5
175	175	5
42	43	1
91	91	3
187	187	1
222	222	5
155	174	3
2	2	6
150	150	4
228	228	6
31	47	4
49	49	3
234	234	5
113	113	2
205	205	3
4	76	3
21	22	3
166	168	1
12	15	1
194	196	1
119	119	4
156	156	6
168	197	3
228	229	3
83	84	2
98	99	1
116	116	2
42	242	2
245	247	3
209	209	1
107	107	3
48	49	1
159	213	4
29	30	5
59	60	2
211	213	5
5	5	4
56	56	7
40	45	1
70	113	1
44	46	1
188	188	1
65	65	2
155	156	1
30	49	2
39	39	2
200	201	1
110	110	1
159	160	3
166	174	1
167	183	1
112	114	3
111	111	4
215	215	2
71	75	1
115	115	5
201	201	3
6	6	2
212	212	3
240	240	7
52	115	4
117	117	8
197	198	2
152	152	4
214	214	5
35	44	1
170	171	2
65	94	2
21	28	1
204	205	2
154	173	2
201	202	1
52	52	3
184	184	2
194	194	1
96	96	4
9	9	1
209	213	2
226	226	3
53	53	2
56	57	4
151	194	2
79	80	2
113	147	1
98	198	2
42	219	2
26	26	1
112	112	6
178	184	1
169	174	2
243	244	3
169	188	1
61	61	1
150	151	1
219	219	2
84	84	2
157	158	1
32	32	2
221	221	2
210	210	5
105	106	1
36	225	1
191	209	1
193	193	3
24	24	1
16	16	2
189	190	1
213	214	2
57	58	1
157	157	3
227	227	5
115	150	4
93	93	2
151	189	2
12	12	1
65	66	1
175	189	1
59	59	4
232	232	2
21	21	4
196	197	1
224	224	5
204	204	1
40	40	2
64	64	4
168	168	3
11	44	1
163	169	1
177	177	3
90	91	1
19	32	1
202	203	6
245	245	3
1	1	2
241	241	7
2	46	1
211	231	1
189	189	4
82	82	1
176	176	7
164	164	1
156	172	1
52	64	3
158	158	3
151	151	6
167	179	4
161	162	1
23	23	2
71	74	2
144	144	3
147	147	1
185	186	1
46	46	1
241	242	1
68	68	4
0	1	1
187	190	2
43	43	2
73	74	1
217	217	2
31	31	2
101	101	2
194	195	1
30	38	1
34	34	4
208	208	2
191	242	1
217	227	1
108	114	1
98	98	3
51	58	3
186	199	1
22	22	1
17	17	2
5	14	1
155	155	6
168	169	2
75	75	1
87	88	1
48	97	1
90	90	3
248	248	3
163	177	1
190	211	1
69	111	1
19	19	2
80	81	1
20	33	1
210	213	1
72	73	1
154	155	2
178	179	2
15	15	3
36	36	2
68	69	1
38	38	1
4	4	4
192	210	2
28	28	3
102	102	1
35	70	3
35	35	2
24	27	1
169	171	1
7	7	1
58	58	1
22	24	1
30	30	1
48	48	1
54	54	5
179	179	2
245	246	3
77	77	1
160	213	2
95	99	1
202	202	3
235	235	4
170	170	2
221	222	1
14	69	3
71	71	1
40	112	3
31	51	1
8	8	1
14	237	1
48	86	1
159	159	1
18	18	2
63	84	1
105	107	1
43	44	2
37	37	2
113	114	1
61	81	1
66	67	1
100	100	2
45	45	2
239	239	1
12	13	1
88	88	4
154	159	2
231	234	2
246	246	2
166	171	1
104	104	2
210	211	1
20	21	1
96	98	2
239	240	1
3	3	3
203	203	2
99	99	1
237	240	1
61	85	1
67	67	3
190	191	1
91	92	2
20	20	1
96	97	1
152	180	1
164	193	1
116	237	1
77	78	1
182	222	1
206	206	1
87	117	1
192	192	2
244	244	1
232	233	1
65	87	1
200	200	2
238	245	1
51	52	1
14	14	3
171	171	2
207	207	2
187	188	1
108	246	1
218	219	1
206	207	1
87	87	1
182	182	2
83	103	1
95	95	1
205	206	1
14	15	1
58	71	1
185	185	1
16	89	1
114	114	1
161	161	1
196	196	1
238	239	1
197	233	1
216	220	1
103	103	1
181	181	1
219	220	1
238	241	1
19	21	1
47	99	1
150	168	1
86	95	1
164	166	1
199	200	2
38	39	1
6	35	1
75	76	1
195	198	1
161	212	1
178	178	1
180	180	1
51	51	1
103	105	1
57	68	1
153	153	1
231	233	1
197	197	1
