48	48	37
53	53	32
37	37	37
58	58	23
40	40	29
35	36	15
30	30	26
15	16	1
49	51	2
19	21	6
19	19	20
1	1	20
50	50	25
6	7	10
43	43	36
36	36	26
35	35	29
49	49	12
34	34	33
20	21	10
0	0	12
46	46	16
41	41	19
39	39	33
56	56	27
8	10	3
44	44	39
52	52	16
47	47	22
40	42	2
2	3	11
32	32	24
54	55	17
38	38	32
62	62	27
59	59	20
7	7	12
42	44	6
20	20	7
51	52	7
33	34	15
6	6	24
11	11	8
56	57	11
33	33	35
42	42	34
48	49	6
14	14	18
29	29	4
45	58	2
17	17	19
45	45	26
2	2	15
36	37	5
15	15	9
9	9	20
61	61	30
60	61	8
51	51	30
31	31	20
39	40	11
18	19	7
11	16	1
51	53	6
43	44	13
47	60	4
57	57	37
13	13	15
4	5	8
52	54	3
54	54	18
30	32	2
5	5	10
21	22	4
44	45	7
6	15	1
37	41	2
40	41	18
19	20	7
46	47	3
55	55	16
23	23	7
20	22	2
12	12	14
10	10	9
56	60	1
48	61	2
4	6	3
3	4	6
50	55	3
60	60	15
42	43	3
18	18	17
3	3	14
43	55	1
35	40	2
31	32	9
32	33	4
12	13	8
14	15	12
24	24	9
55	56	4
36	39	2
49	50	11
0	16	2
47	48	2
30	45	4
34	35	6
38	39	22
49	57	2
4	4	6
43	47	2
25	25	7
53	54	11
39	44	2
16	17	6
61	62	7
30	31	7
11	12	5
55	59	1
18	23	1
50	51	7
0	11	1
45	46	10
53	55	4
2	4	2
0	17	1
37	38	5
25	29	2
37	42	2
18	20	1
58	59	10
16	16	10
41	42	1
18	21	3
23	25	1
31	40	1
3	5	1
6	10	3
36	42	2
21	23	2
58	60	1
50	61	2
10	11	4
33	49	2
39	42	2
23	24	4
45	47	2
40	43	4
12	16	1
44	58	10
47	49	1
59	60	2
6	9	3
30	33	4
45	59	3
57	58	3
0	1	3
17	18	4
54	59	1
39	46	1
52	56	1
13	14	2
38	41	2
7	8	2
30	34	5
17	19	2
29	45	1
21	21	4
5	6	1
39	43	2
38	40	3
22	22	3
8	8	7
13	16	1
31	37	1
22	23	4
8	9	2
40	44	2
52	53	3
32	58	1
31	57	2
2	9	2
37	39	1
31	43	1
50	52	1
38	43	1
22	25	1
31	41	1
31	33	1
14	16	1
2	8	1
