58	58	35
54	55	8
59	62	4
24	24	27
5	5	22
80	80	22
68	71	4
21	21	4
83	83	15
82	83	16
48	48	15
29	30	6
75	75	37
56	56	39
31	31	22
2	2	16
13	14	18
12	13	19
86	86	25
64	65	13
32	32	2
46	59	3
70	70	26
67	67	30
66	67	6
6	6	13
77	81	1
15	69	1
3	3	14
19	27	1
65	66	12
30	30	29
7	7	16
14	14	26
47	47	22
26	26	11
69	69	22
8	8	20
67	68	8
22	23	16
55	56	9
49	49	16
56	57	7
80	81	9
68	70	2
72	72	21
84	84	24
1	1	16
79	79	28
7	32	1
25	27	11
64	66	10
48	56	2
19	23	3
11	47	3
57	57	21
11	11	27
73	82	5
13	13	17
69	70	12
9	83	2
10	10	21
53	59	5
0	0	19
15	16	14
72	73	14
66	76	1
30	67	2
87	87	22
67	72	2
5	6	9
74	74	28
66	66	26
18	19	4
76	77	15
81	81	36
19	19	16
26	27	6
3	4	9
10	11	6
71	71	23
51	51	12
8	24	2
51	53	5
0	73	2
53	56	6
22	27	3
50	50	8
4	81	2
3	71	2
89	89	30
49	55	6
10	22	1
75	78	5
53	54	17
57	84	1
5	31	1
1	2	6
31	32	2
7	8	9
55	58	1
77	77	19
46	46	4
19	77	1
90	90	6
66	80	1
16	22	4
9	10	8
85	86	14
10	82	3
61	63	2
63	63	15
79	80	9
12	12	19
12	20	3
86	87	6
25	26	6
27	28	5
13	76	1
16	16	8
82	82	16
4	74	5
76	76	19
62	62	17
65	65	18
59	83	1
23	23	21
4	4	14
85	87	2
64	82	1
8	19	2
52	71	4
9	73	1
76	80	6
48	70	1
61	66	2
88	88	11
60	61	4
11	12	9
52	52	7
20	21	7
10	81	1
85	85	31
5	9	8
6	8	4
87	88	7
50	52	1
84	87	7
10	26	2
13	48	2
47	48	7
9	9	22
51	52	6
34	34	3
48	58	2
55	55	17
20	20	11
29	29	10
6	7	5
86	89	4
4	29	6
10	12	5
18	78	2
68	69	4
50	56	2
6	9	1
69	71	2
60	60	7
53	53	12
78	78	13
85	90	1
61	83	2
4	5	4
69	87	2
81	82	3
12	14	2
20	23	2
12	70	2
57	58	7
11	84	1
64	64	7
58	59	6
62	83	1
17	17	6
27	27	29
77	80	7
25	25	17
56	58	1
22	22	10
59	59	9
15	48	1
68	68	31
31	53	3
52	55	9
53	55	2
61	71	1
11	83	1
54	54	17
65	73	1
75	84	8
84	85	4
81	84	2
50	51	4
28	28	9
47	49	5
73	73	8
74	75	6
58	77	1
75	80	2
48	49	2
60	64	1
60	63	1
62	66	2
72	80	2
0	72	2
15	70	2
9	82	2
81	85	1
77	78	2
46	47	1
50	63	3
13	81	1
74	89	1
53	57	2
78	79	7
53	71	3
4	10	2
23	24	4
21	80	1
8	79	2
56	80	1
15	28	6
11	72	5
30	82	2
9	31	2
62	63	7
9	13	3
16	18	1
21	22	1
84	88	7
61	61	15
75	76	4
80	82	1
12	83	2
83	84	3
13	75	1
77	79	1
5	8	3
9	27	1
48	59	3
23	25	5
48	50	1
47	58	3
60	65	2
54	58	1
52	61	1
56	70	6
66	81	3
63	64	4
51	62	4
62	64	4
19	20	7
12	47	4
13	82	1
60	62	2
14	47	1
81	83	4
61	64	1
80	85	2
14	55	1
63	65	2
79	81	3
49	71	4
74	86	2
47	51	2
1	85	1
61	80	2
58	66	2
74	84	3
34	35	1
54	56	2
76	78	4
88	89	3
68	72	1
13	17	2
6	22	1
12	82	2
17	19	2
8	9	3
1	89	1
71	72	3
9	25	2
22	80	1
75	79	1
73	74	4
61	62	2
65	81	1
24	70	1
10	28	2
18	18	3
74	79	2
48	53	1
0	89	1
53	70	2
0	87	2
59	60	5
19	22	1
47	56	4
10	25	1
31	46	2
31	54	1
81	87	1
5	81	2
50	53	1
52	80	1
15	15	2
56	73	1
29	31	1
78	80	1
65	80	1
10	14	4
12	16	3
30	81	2
60	72	2
72	84	2
9	24	1
21	83	2
74	81	1
16	17	1
11	27	1
28	29	2
60	80	2
24	25	3
76	79	3
63	66	2
59	65	1
11	25	1
77	82	1
50	55	1
24	71	2
13	21	1
75	81	1
2	3	2
67	71	1
12	17	1
1	86	1
5	74	1
23	26	1
84	86	1
13	80	1
52	59	1
