130	130	17
85	85	11
134	138	1
89	90	6
18	18	10
37	37	4
90	90	7
54	54	7
39	39	8
26	26	5
37	38	8
68	69	2
131	132	10
144	144	16
5	6	10
60	60	5
25	26	4
41	41	3
10	10	6
3	5	2
137	137	11
114	115	3
139	139	6
128	128	15
128	129	1
119	120	3
17	17	12
97	97	9
2	2	4
136	137	1
128	130	3
89	89	4
112	117	1
48	48	5
119	126	3
106	113	6
101	102	2
86	86	5
39	40	8
135	136	6
62	62	10
73	107	3
135	135	10
103	103	5
66	66	6
4	34	3
63	63	7
0	21	3
92	94	3
100	100	9
102	102	10
125	133	3
70	71	5
83	108	2
120	124	5
53	53	8
75	75	9
132	136	5
20	20	6
123	123	6
85	87	3
42	42	2
132	132	7
133	133	8
74	76	5
120	120	8
67	70	5
61	62	2
142	143	7
87	90	2
62	63	5
34	35	4
73	105	2
107	107	6
122	123	7
58	61	3
114	117	2
97	98	18
143	143	10
82	82	7
67	68	7
17	31	3
125	127	8
122	122	9
131	131	16
59	59	3
41	42	2
116	117	7
80	82	3
115	115	2
81	82	2
118	118	11
25	25	7
3	31	1
116	144	3
71	113	2
121	121	10
129	131	2
136	138	2
0	1	2
117	118	7
54	55	4
9	10	9
117	143	1
80	80	11
96	97	4
26	27	3
68	68	7
30	30	4
14	14	7
52	52	7
113	113	8
99	99	5
138	138	4
129	132	3
118	130	2
56	56	7
69	69	9
50	58	5
5	5	8
12	13	4
73	75	2
84	85	2
136	140	3
68	80	3
105	106	2
22	22	7
127	127	10
72	73	1
134	139	1
67	72	3
73	106	2
94	94	5
40	40	17
79	141	6
143	144	3
126	126	4
36	48	8
145	146	3
134	134	11
77	78	4
2	4	6
29	29	5
37	39	3
75	84	1
60	61	6
24	26	2
91	91	4
124	125	6
55	55	5
108	108	4
102	103	4
72	72	11
36	36	4
77	93	2
124	124	5
58	60	2
32	32	2
142	142	9
33	33	8
9	9	6
85	109	1
101	101	6
134	136	1
117	144	8
35	36	1
121	122	1
136	136	3
129	129	6
126	130	1
79	105	1
132	133	3
98	98	11
62	64	1
23	27	1
65	66	3
128	131	2
40	41	4
59	62	4
53	54	3
84	84	7
118	119	6
137	138	3
33	38	5
93	94	1
58	58	3
125	126	4
77	77	3
36	37	1
31	39	1
65	65	10
16	16	3
43	51	10
15	16	1
116	118	4
1	1	4
125	125	12
85	108	2
74	74	12
134	135	3
81	81	3
69	109	1
70	74	2
25	30	2
77	94	1
110	110	6
23	23	2
54	58	9
73	73	5
20	24	6
86	112	2
133	136	4
140	140	3
121	124	1
95	95	3
83	106	2
120	121	2
109	109	14
140	142	5
100	102	3
65	84	4
49	60	2
93	93	3
47	48	3
78	78	4
118	120	6
76	78	1
84	108	1
62	77	4
79	114	1
14	15	1
47	47	3
57	58	2
116	116	2
24	25	5
87	87	10
107	110	1
8	8	5
28	28	6
100	101	4
15	15	7
116	125	1
53	55	3
19	66	3
4	5	2
31	37	1
49	49	1
30	41	2
67	86	5
13	15	4
36	56	2
135	142	2
23	24	3
65	67	6
22	23	4
83	84	3
21	24	1
13	13	1
123	124	5
6	6	3
87	88	3
32	33	5
17	33	1
112	116	2
20	33	2
141	143	1
111	112	4
49	56	4
35	35	5
114	114	6
133	142	3
112	115	4
18	20	3
105	105	1
43	52	1
96	98	4
1	12	3
112	112	2
34	37	2
67	67	1
133	137	2
88	89	4
91	92	6
120	127	1
122	124	1
126	127	4
47	52	1
50	50	1
141	141	3
38	38	4
40	79	2
71	73	5
13	14	6
68	72	1
75	83	2
133	134	1
79	80	1
31	32	1
17	18	2
21	21	2
125	144	1
78	140	4
50	51	3
51	52	1
104	104	6
145	145	4
146	146	2
86	109	2
4	4	3
76	76	3
22	61	1
16	32	2
87	89	2
11	28	2
2	3	2
75	76	2
87	107	5
88	92	2
127	134	1
14	16	1
13	33	1
92	92	2
73	84	3
50	54	3
113	136	1
34	36	2
140	141	1
75	79	1
0	3	2
48	49	6
78	104	1
54	56	2
71	74	1
24	24	2
73	74	1
93	95	1
114	118	2
61	61	1
68	70	1
82	86	2
136	139	1
70	113	2
0	2	1
111	111	1
109	110	1
125	130	2
32	35	1
34	34	1
73	99	3
10	11	2
96	96	1
92	95	1
53	84	1
20	21	1
131	137	1
137	139	1
135	144	1
80	81	1
40	60	1
75	85	2
123	141	1
133	140	1
8	28	2
114	116	1
27	28	2
52	57	1
99	100	2
38	79	1
7	10	1
31	31	1
88	88	2
10	20	1
24	27	1
104	105	1
118	121	1
105	112	1
53	61	1
75	116	1
141	142	1
16	22	1
0	30	1
