129	129	43
71	72	4
30	30	11
1	2	3
3	12	1
3	6	5
89	89	21
23	23	3
124	124	43
128	128	27
121	121	9
83	87	3
89	90	5
134	134	40
86	90	7
85	85	8
132	134	2
19	19	22
111	112	17
96	96	30
123	127	3
7	9	2
21	21	22
116	116	23
101	101	38
16	16	12
136	136	26
73	93	4
90	90	2
126	133	1
123	124	10
131	131	48
116	125	2
24	24	9
35	36	5
86	86	9
74	93	2
36	36	24
117	117	10
74	74	23
126	126	27
127	127	48
86	91	1
122	122	35
4	4	16
71	83	7
34	35	21
136	137	11
8	11	8
139	139	31
33	33	15
93	94	15
114	121	2
93	93	4
125	126	5
112	112	10
18	19	9
119	119	15
124	125	9
108	114	1
89	137	4
128	135	3
133	133	38
99	127	2
140	140	30
31	32	6
132	133	9
38	38	3
28	28	21
106	107	8
3	7	1
111	111	10
125	125	27
137	137	21
92	92	4
103	109	5
114	114	25
76	76	14
79	79	6
75	75	29
36	37	3
32	33	11
77	77	3
117	124	6
129	130	20
4	17	1
135	135	18
6	7	6
1	1	9
78	78	14
91	91	22
87	88	2
9	9	10
120	121	15
25	27	4
81	82	4
27	27	29
97	98	12
132	132	47
96	99	1
0	1	3
3	3	8
120	122	7
0	70	3
8	8	10
73	73	24
122	125	14
6	33	7
130	130	49
72	73	3
118	119	10
102	102	12
74	75	3
139	140	4
100	102	2
26	27	4
17	18	4
105	105	15
94	94	12
34	34	13
84	84	11
135	139	5
32	98	1
12	12	11
88	100	5
68	70	3
29	30	5
108	109	1
127	135	1
19	20	15
12	14	2
12	20	2
9	12	7
34	77	2
87	87	10
81	81	9
5	6	4
4	5	11
133	134	8
35	35	29
15	15	15
84	86	2
74	77	3
138	138	21
11	11	7
105	109	3
123	123	60
107	108	10
12	13	10
95	95	12
8	9	5
71	74	1
28	29	6
107	107	6
137	138	5
20	21	12
7	7	8
130	137	6
1	7	1
80	80	6
104	108	1
18	18	13
99	99	14
22	22	14
37	37	22
95	96	1
121	123	12
115	115	19
32	32	12
84	85	9
105	112	4
121	122	4
97	97	25
86	136	8
30	31	4
111	126	7
97	127	3
135	137	4
113	113	9
31	33	1
88	92	5
130	135	1
24	26	9
0	0	20
16	38	2
71	93	2
100	100	24
25	26	4
73	75	2
103	103	5
104	104	8
120	120	7
106	106	9
134	135	19
127	128	5
110	111	8
26	26	7
131	132	17
127	130	3
18	24	2
128	129	7
96	128	7
83	86	3
91	99	2
10	12	8
104	105	3
10	10	4
17	17	10
2	2	4
13	13	8
129	134	6
75	77	1
9	20	1
23	25	5
110	110	16
37	38	10
140	141	2
7	8	14
30	32	10
93	112	2
31	31	5
95	128	1
82	84	1
101	102	5
109	109	5
10	18	1
71	71	3
112	113	4
79	132	1
91	93	1
4	11	1
74	92	1
95	114	3
105	106	3
112	114	9
1	3	4
94	95	7
126	128	4
112	125	2
131	136	1
113	120	2
71	91	5
80	84	2
6	6	7
88	88	6
114	115	14
5	13	2
6	12	2
116	117	5
8	83	3
33	37	1
77	79	4
104	109	3
113	115	8
98	98	4
21	22	1
123	125	1
2	3	1
83	84	13
77	78	3
129	135	4
117	118	3
115	116	10
109	110	7
98	99	1
20	23	1
126	127	11
25	28	2
20	22	2
20	20	6
29	29	7
24	25	5
118	118	15
71	86	2
104	118	1
98	114	2
25	25	4
33	34	1
96	97	3
125	128	3
106	108	6
27	28	6
95	98	5
73	79	3
136	138	7
98	113	4
102	105	2
129	137	4
119	122	6
89	98	6
127	129	5
108	108	9
71	87	6
72	72	5
109	111	4
86	135	3
122	123	4
74	90	2
88	90	1
91	135	3
82	82	2
8	86	1
28	30	1
3	4	4
112	122	1
138	139	7
5	5	6
89	100	1
15	16	3
36	38	1
75	76	1
21	25	1
88	89	1
29	32	2
4	10	3
91	92	2
104	112	1
4	14	3
94	101	1
118	125	2
14	15	6
78	83	1
90	96	1
9	30	1
100	101	2
18	23	3
11	12	2
97	100	3
22	23	5
134	138	2
16	37	1
0	2	1
102	103	3
113	121	4
23	24	2
10	11	2
83	83	5
19	23	2
101	107	1
104	124	1
8	20	1
97	114	2
103	105	1
76	85	1
14	14	2
119	120	1
120	123	1
124	140	1
98	110	2
13	14	1
22	24	1
78	79	1
1	5	1
134	136	1
94	96	1
17	19	1
27	32	3
112	124	1
80	90	1
133	135	1
103	108	1
13	15	1
18	20	2
4	18	1
84	87	2
77	80	1
9	11	1
124	126	1
102	109	3
103	106	1
116	119	1
75	79	1
26	31	2
79	80	1
132	135	2
96	101	1
8	85	1
126	130	1
91	94	1
112	115	2
16	17	2
74	95	1
72	78	1
14	17	1
33	132	1
15	19	1
23	69	1
86	88	1
14	18	1
73	83	1
72	77	1
72	80	1
7	12	1
5	9	1
16	39	1
82	83	1
10	85	2
82	85	1
73	87	1
130	134	1
99	100	1
91	137	1
