103	103	14
79	79	17
74	74	24
25	28	2
64	65	5
60	60	7
32	32	3
20	20	19
123	123	14
91	95	5
69	69	19
124	124	7
94	94	12
62	62	16
115	116	5
128	129	7
14	14	7
60	61	5
127	127	22
73	78	7
121	123	2
99	100	4
92	95	8
29	31	4
105	105	17
28	32	3
89	89	9
96	96	11
21	22	13
101	104	1
23	23	5
87	92	7
17	17	9
77	81	2
5	6	9
33	33	8
3	4	7
15	15	9
24	48	2
53	53	23
76	76	17
69	87	1
91	92	13
111	113	1
78	78	11
119	119	16
0	1	2
126	126	15
91	91	16
24	25	3
18	23	5
2	3	2
115	115	13
55	55	10
66	67	6
97	110	5
102	102	13
54	54	15
97	97	20
117	117	10
90	90	24
81	81	13
73	73	18
71	72	9
69	70	3
27	28	9
80	80	11
30	65	2
99	99	22
9	9	10
34	34	3
43	44	2
29	33	8
117	118	6
61	64	1
63	63	11
92	96	1
108	120	1
65	66	4
62	64	5
65	65	4
72	72	17
92	92	9
104	104	21
75	75	16
109	119	4
65	115	13
61	61	32
49	49	10
93	94	1
95	96	8
114	115	12
116	116	15
16	18	5
113	113	8
122	122	17
56	58	4
68	69	9
22	23	4
133	133	8
109	109	3
11	13	4
50	50	9
29	30	4
21	21	7
102	103	7
76	79	4
86	118	3
95	95	14
29	29	7
16	16	11
92	97	1
111	111	8
115	129	1
123	125	4
135	135	6
43	43	2
104	105	5
105	106	3
122	123	12
56	57	7
26	26	12
79	81	1
28	28	6
79	80	11
75	76	4
25	26	2
2	2	14
53	81	2
88	88	16
110	110	12
64	64	14
106	108	7
93	93	11
1	1	10
111	112	7
31	31	5
132	132	2
108	108	2
129	129	9
98	98	8
42	45	1
56	56	8
6	7	2
89	90	13
100	119	3
13	13	8
25	25	7
116	123	4
123	129	6
107	107	13
3	3	3
28	47	3
21	28	5
17	18	7
22	28	2
32	63	6
53	116	4
61	77	1
19	26	1
106	106	15
85	85	3
118	118	13
44	45	3
90	91	10
107	108	3
94	96	6
96	98	3
47	47	6
48	50	4
57	58	10
0	0	4
24	24	7
26	34	1
12	12	7
59	60	4
7	7	8
82	83	4
120	121	3
78	80	10
36	36	5
91	94	6
116	117	4
35	35	10
98	99	4
133	134	1
119	120	3
133	135	4
54	55	6
82	100	5
50	54	4
58	58	1
26	135	1
100	102	1
76	77	2
4	4	9
0	2	6
118	119	4
100	100	6
52	52	12
114	114	5
127	132	6
88	99	1
12	29	2
70	70	12
90	97	1
65	69	3
68	87	4
68	68	12
70	71	1
21	29	1
103	104	3
87	87	10
16	17	4
125	125	7
19	20	4
87	88	7
15	16	6
112	113	3
86	86	8
50	52	4
127	128	7
49	50	12
106	114	3
33	34	3
129	130	5
71	77	1
128	128	6
37	46	1
59	59	9
101	101	2
121	122	2
18	18	12
92	100	1
88	91	3
61	81	1
7	9	1
63	64	7
48	49	2
0	7	2
5	5	12
121	121	8
111	115	2
23	24	4
92	93	3
30	30	3
99	113	3
71	71	19
134	135	4
120	127	3
69	80	2
72	79	4
98	119	1
106	122	2
82	82	9
70	81	1
67	83	2
120	120	8
22	22	5
12	27	1
0	3	7
134	134	2
130	131	4
124	125	4
27	27	14
37	130	3
58	59	1
71	73	1
126	127	1
123	124	4
95	99	2
88	97	6
19	19	2
53	54	6
91	101	1
69	118	1
66	82	1
105	107	3
11	19	2
23	28	2
34	35	3
72	73	2
94	99	4
101	103	3
95	100	4
43	65	2
107	112	2
67	67	2
44	44	5
24	26	2
87	91	3
86	87	6
85	86	5
102	121	3
17	23	4
112	112	5
37	37	5
54	56	2
14	18	2
43	59	3
130	130	8
76	101	3
20	21	2
77	77	5
101	102	3
55	58	1
8	10	1
21	23	2
94	95	4
60	82	1
47	52	4
8	9	1
55	57	1
96	97	4
98	105	5
65	67	1
48	48	9
30	33	1
103	119	3
68	101	1
55	81	2
7	11	1
6	6	5
113	115	2
52	85	2
13	14	5
99	118	1
55	56	2
113	114	1
60	64	2
8	8	5
64	80	3
10	10	4
115	123	4
33	64	1
35	134	1
72	75	1
71	80	1
111	122	2
11	11	1
19	22	1
70	105	1
47	53	2
69	96	1
18	22	4
95	97	1
132	133	2
56	82	3
66	66	1
57	57	3
131	132	2
73	74	1
72	80	1
70	116	2
66	94	2
35	70	1
104	114	2
93	101	1
129	134	2
114	120	1
52	53	2
45	46	1
77	78	1
100	120	2
73	79	2
68	82	2
53	62	3
131	131	2
78	79	1
60	80	1
82	84	1
73	104	2
96	100	2
119	121	1
52	55	3
43	52	1
10	11	2
108	116	3
110	120	1
76	80	2
88	96	1
91	96	1
108	111	2
84	84	1
30	32	1
77	80	2
46	48	1
69	82	1
20	22	1
83	84	1
61	66	1
35	36	2
9	11	2
108	112	2
38	38	1
23	26	1
83	120	1
118	125	1
59	76	1
93	100	1
42	43	1
48	52	1
