66	66	23
48	49	15
35	35	24
49	50	10
78	79	10
55	55	18
12	12	13
70	70	8
32	32	6
39	39	17
9	15	2
6	6	30
41	57	3
25	25	8
63	63	18
40	40	38
78	78	13
34	34	22
10	11	18
60	60	23
6	34	2
17	17	26
55	56	15
71	71	16
77	78	6
4	4	39
6	7	7
67	68	8
38	38	37
56	63	3
64	65	4
43	43	13
74	74	17
7	18	3
59	60	23
37	37	35
36	36	15
19	19	14
50	50	18
63	64	10
42	42	26
72	73	4
26	27	10
30	31	4
33	33	21
49	49	8
19	20	2
34	70	3
7	7	20
30	33	2
38	39	7
30	30	16
10	10	4
32	33	16
1	1	20
57	57	28
56	56	19
66	70	6
4	7	2
3	3	16
67	70	2
61	61	23
60	61	1
14	14	22
47	60	2
52	52	20
7	47	2
56	57	8
76	76	49
16	17	6
57	58	3
19	57	3
56	76	4
79	79	19
65	65	29
64	66	4
9	10	13
18	18	7
2	30	1
59	59	37
49	53	7
20	21	7
56	59	3
46	47	11
56	58	2
15	15	6
10	32	2
48	48	26
5	5	13
16	18	1
20	20	6
37	38	8
41	41	23
28	28	18
1	2	6
2	2	13
34	35	8
26	26	22
16	16	12
5	6	6
27	55	1
75	75	13
34	71	3
80	80	5
46	46	42
21	37	4
77	77	8
79	80	8
11	13	2
68	69	7
53	54	16
3	78	2
51	51	10
27	27	25
65	71	3
8	9	4
51	52	10
73	73	27
8	8	21
41	42	2
71	72	9
75	77	3
14	22	1
1	9	5
47	47	24
75	78	8
67	69	1
14	15	5
72	72	17
0	1	4
70	71	14
68	68	11
3	4	5
34	72	5
42	43	2
34	37	5
58	58	14
18	20	1
21	21	3
39	40	6
47	48	4
8	15	1
74	75	9
42	48	1
9	9	17
69	70	6
69	69	21
80	81	2
53	53	12
13	13	4
13	15	7
28	29	5
16	33	4
28	62	2
62	62	18
81	81	6
8	16	3
73	79	6
2	4	2
37	62	6
57	59	4
0	77	2
33	47	3
62	63	3
54	54	12
32	71	5
70	72	3
69	71	2
62	64	2
64	64	16
31	31	14
0	37	2
40	53	2
45	55	2
0	0	14
15	16	1
25	29	2
29	29	15
50	51	8
33	41	1
45	45	7
63	65	1
27	30	1
39	41	6
30	37	1
16	31	2
60	62	6
17	18	5
75	79	4
56	60	1
65	66	3
66	67	5
25	33	4
10	14	2
54	55	5
46	73	1
26	54	3
17	32	2
73	74	1
34	36	3
42	73	2
58	73	2
12	15	2
55	77	4
4	79	1
10	17	1
27	42	1
3	79	2
41	73	2
75	76	2
56	64	6
1	55	6
32	34	2
55	57	2
11	11	6
30	32	1
57	60	2
33	34	3
27	28	4
12	31	2
10	15	1
62	73	1
32	70	1
14	30	2
20	30	2
21	22	1
1	8	3
68	70	2
44	44	1
17	21	2
67	67	6
44	45	2
6	8	1
25	30	2
2	56	1
8	10	3
43	74	2
31	34	1
54	58	3
45	46	1
47	56	2
25	26	2
61	62	2
58	59	2
76	78	1
35	40	1
29	30	2
13	14	3
33	36	2
62	70	2
74	76	1
66	68	2
1	47	1
40	41	3
31	32	5
1	3	1
78	80	1
20	25	1
2	27	1
4	42	1
4	5	1
1	46	1
10	31	2
66	71	1
1	7	1
36	37	1
2	41	1
74	78	1
11	12	1
