67	67	5
73	76	2
155	155	8
174	174	9
24	24	6
91	91	5
7	8	6
108	149	1
15	15	2
89	89	5
40	40	8
27	28	6
84	121	5
135	137	2
144	154	2
93	93	7
120	121	10
30	31	2
147	147	10
10	13	2
118	118	4
36	36	9
75	76	4
4	4	4
53	53	5
154	154	10
121	130	3
154	155	5
166	166	2
99	99	4
126	126	2
139	161	4
70	70	2
86	86	10
36	71	2
137	139	3
111	112	6
183	183	9
18	20	3
65	65	8
88	88	12
18	18	12
28	28	7
27	27	2
184	184	5
69	69	4
186	186	6
55	55	3
46	46	7
17	18	2
121	121	14
136	136	3
98	98	9
127	127	12
90	90	11
54	54	7
140	140	12
26	26	15
122	122	6
15	16	5
113	115	2
47	48	1
172	174	2
132	133	8
93	111	1
146	146	9
139	139	10
142	153	2
108	108	4
120	120	4
104	104	10
22	22	10
80	81	5
130	130	5
189	190	2
47	47	9
30	30	10
158	176	3
12	30	4
142	142	2
37	37	13
170	170	4
119	119	6
0	0	5
77	78	3
5	21	2
58	59	2
26	34	2
131	131	5
26	27	6
63	74	5
156	158	1
91	182	1
81	85	1
38	38	5
24	25	2
106	106	1
81	84	2
181	181	4
179	184	2
7	20	1
131	133	1
125	125	5
101	101	11
62	62	5
68	125	2
23	24	2
114	119	2
158	158	2
91	181	4
34	35	5
136	137	6
110	134	2
109	109	4
99	115	2
103	103	2
36	37	2
5	5	11
33	34	5
184	185	6
149	149	10
161	161	8
41	41	4
164	164	3
187	187	10
116	116	10
95	95	6
67	128	1
0	21	3
138	139	3
109	150	1
38	39	5
65	66	6
124	124	3
148	155	3
169	170	2
188	190	1
125	128	1
77	77	3
73	73	6
31	31	2
11	11	8
87	87	2
117	118	4
29	32	1
12	14	1
32	33	4
173	173	3
33	33	2
157	157	5
114	132	4
12	12	4
114	114	6
134	134	4
82	82	7
74	93	2
29	29	7
6	6	5
134	137	2
100	101	3
58	58	2
28	36	1
58	68	1
137	137	3
176	176	1
81	81	4
32	41	1
100	100	4
39	39	6
122	123	2
72	73	5
43	43	5
76	76	1
83	83	6
88	97	2
8	8	3
0	4	4
141	142	4
175	175	2
107	124	4
128	128	2
16	16	5
133	133	3
162	163	2
108	109	2
57	57	2
22	23	2
94	94	3
152	152	3
145	155	3
84	84	3
96	96	2
7	7	1
17	17	2
174	177	4
106	107	2
77	125	1
64	64	1
2	2	2
139	169	2
152	153	1
44	44	1
116	117	2
29	35	1
10	12	5
133	134	1
56	59	3
63	63	2
124	125	4
157	158	1
39	41	1
119	121	1
44	46	4
159	169	2
29	34	3
145	145	6
90	91	2
103	152	3
79	79	5
42	42	5
135	135	3
133	137	3
71	96	2
105	116	2
70	72	2
171	173	2
35	35	3
6	7	1
141	141	5
59	60	2
140	141	1
74	74	1
31	32	4
68	68	1
24	42	1
151	151	3
102	102	5
111	111	2
188	188	4
100	115	3
58	93	1
139	160	1
131	137	1
162	167	1
110	111	2
102	103	4
105	105	2
92	92	1
71	71	2
145	146	3
43	44	1
56	93	2
72	115	1
185	185	1
187	188	1
25	25	4
177	177	5
132	132	1
134	136	2
17	45	3
14	14	3
75	121	2
187	190	1
1	1	3
107	107	3
24	30	3
146	147	2
19	19	8
144	153	1
23	23	4
78	78	7
61	61	2
85	85	3
17	44	1
176	179	2
46	49	2
111	132	2
17	22	1
156	156	3
130	132	2
105	138	1
168	168	2
48	48	5
42	43	2
79	80	1
138	138	3
150	150	3
25	44	4
153	153	3
123	123	2
98	112	1
154	177	2
100	105	1
182	182	1
147	149	5
76	118	1
126	127	3
135	167	1
87	88	4
12	16	1
80	80	5
178	179	1
139	162	1
180	180	3
147	148	4
29	30	2
170	189	1
59	64	1
180	184	1
9	9	2
17	43	3
189	189	1
112	112	1
64	68	2
115	137	1
115	115	2
24	32	1
148	148	5
54	55	1
164	165	2
46	47	4
56	56	5
151	152	2
8	24	1
28	29	1
36	181	2
43	176	3
25	26	2
135	168	2
165	165	3
98	115	2
110	132	3
100	116	3
29	31	1
113	113	2
133	135	3
78	81	1
110	113	2
59	59	2
171	171	1
160	160	1
42	54	1
105	106	4
140	146	2
45	46	1
78	83	2
19	20	1
61	62	2
181	182	1
63	64	2
10	10	7
149	156	1
159	183	2
18	25	2
108	137	1
109	110	1
60	63	1
100	106	1
34	34	2
73	75	1
5	11	1
69	72	1
108	158	1
11	17	1
0	5	2
12	13	2
161	163	1
14	38	2
70	92	1
92	93	2
131	132	1
91	92	2
108	155	2
163	163	2
85	87	2
37	47	1
101	126	1
114	131	1
148	156	2
135	164	1
91	161	1
129	129	1
55	56	1
169	169	1
78	79	1
66	66	1
32	32	1
92	94	1
161	162	3
113	114	1
14	42	1
5	6	1
45	45	1
20	25	1
172	172	1
75	75	1
99	121	1
130	133	2
3	8	1
26	74	1
125	126	1
160	166	1
106	129	1
