165	165	6
105	174	4
183	183	2
143	170	2
80	82	4
162	162	2
142	174	7
131	131	7
11	11	4
20	21	7
143	143	5
188	188	5
124	124	3
88	88	2
140	140	5
77	77	2
91	91	2
103	103	13
117	117	9
109	171	1
156	157	2
106	106	5
124	126	4
67	67	2
1	2	1
83	83	5
112	112	7
56	56	3
180	180	4
1	1	4
142	143	5
108	108	7
78	78	3
63	63	7
39	39	6
120	124	4
136	137	7
9	11	1
106	107	1
37	38	3
29	29	1
79	79	2
35	35	5
3	15	2
107	107	2
137	139	1
16	17	6
93	153	2
133	133	6
125	125	4
4	7	2
58	58	4
6	7	1
30	30	4
22	26	2
36	36	3
125	128	3
139	139	12
74	75	1
148	151	1
44	45	2
31	34	2
67	69	5
129	129	7
97	98	1
71	71	4
27	28	4
113	114	3
2	2	3
119	119	3
118	118	8
128	156	3
137	137	1
52	53	4
29	35	2
142	142	1
40	40	4
45	45	1
122	122	3
22	22	7
153	153	2
116	131	4
81	81	5
109	109	4
42	42	3
72	79	2
151	151	3
35	36	4
53	53	4
107	126	1
14	14	1
84	85	2
110	110	3
99	99	12
94	94	5
70	71	3
182	182	2
127	127	3
132	132	3
186	186	2
164	165	1
16	57	5
38	38	3
142	152	2
96	96	1
120	120	2
130	134	2
84	84	5
163	163	2
55	55	1
105	105	5
29	32	5
149	150	2
21	22	2
141	141	5
68	68	3
15	15	2
141	142	3
64	64	1
91	95	3
95	95	4
144	144	4
70	70	1
19	19	2
184	184	5
101	101	3
80	80	3
86	86	2
108	110	5
114	114	4
99	100	3
167	168	1
97	100	2
87	87	4
61	62	6
140	141	3
39	40	3
4	5	2
178	178	1
65	65	4
117	120	2
23	24	1
37	37	1
19	26	3
138	139	3
42	55	1
78	80	1
138	138	2
167	167	1
62	62	4
48	48	4
91	93	2
111	151	2
121	125	2
37	56	2
60	60	2
4	6	1
10	12	3
30	32	2
74	74	2
61	63	1
152	153	2
116	117	1
145	145	2
98	98	4
161	162	1
10	11	5
111	112	2
114	152	1
23	23	3
16	16	4
14	15	3
120	121	1
89	90	1
46	46	4
152	162	1
148	148	1
21	21	1
156	156	2
121	121	2
74	76	2
82	82	1
121	122	2
155	155	4
11	12	1
147	148	1
130	133	2
179	179	1
152	164	1
143	166	3
10	10	2
110	152	1
31	31	3
8	8	1
12	12	4
97	97	3
4	4	1
147	161	2
7	8	1
145	146	1
90	93	2
73	73	1
22	25	2
89	91	1
130	130	1
150	151	2
30	31	1
128	129	1
157	157	2
70	81	2
64	72	1
112	180	1
162	163	2
164	164	3
34	34	1
169	169	1
17	56	1
45	46	1
115	122	1
136	136	1
40	46	3
114	115	1
113	113	1
117	133	1
33	36	1
13	14	1
162	164	1
4	25	1
112	118	1
177	179	1
