119	119	7
136	136	8
25	25	14
87	87	7
22	22	20
18	19	5
110	110	16
117	117	12
12	12	36
40	40	30
103	106	3
112	126	1
44	131	3
3	6	3
29	29	31
86	92	2
8	9	6
9	10	12
64	64	28
131	132	25
57	57	8
114	114	14
83	84	11
81	84	1
12	13	12
53	55	3
26	26	11
6	6	9
24	24	18
12	14	13
72	77	2
10	10	13
13	134	1
128	128	20
69	95	1
127	127	9
36	36	14
115	115	21
44	44	22
129	129	25
14	14	12
17	17	30
13	14	15
28	29	6
4	4	15
133	134	8
64	68	2
49	49	23
64	65	17
4	5	4
31	31	13
77	77	24
130	130	27
84	86	3
69	69	28
53	94	2
3	19	5
90	97	5
140	142	5
8	8	19
25	151	1
75	76	8
106	107	11
16	16	27
100	101	6
90	90	2
135	139	4
39	39	21
103	103	10
121	121	11
114	118	4
94	94	11
71	99	6
51	63	1
17	18	17
40	41	20
67	75	2
133	133	17
33	63	1
48	51	1
105	105	6
20	20	20
55	55	13
67	67	14
43	43	19
151	151	18
46	46	21
26	27	2
62	62	7
125	128	3
142	142	10
150	151	5
72	73	7
19	72	2
55	130	4
72	99	2
20	23	4
71	71	22
50	50	12
9	9	14
56	57	6
104	109	1
131	133	8
109	109	14
84	84	4
16	17	14
23	23	34
22	23	21
45	46	7
92	92	4
34	34	13
99	99	12
32	32	14
41	44	1
70	70	19
4	7	4
153	153	12
114	121	2
51	51	10
50	133	1
37	38	4
146	146	9
123	128	18
131	134	2
116	116	24
141	141	12
129	131	1
75	75	23
132	132	25
134	134	7
135	135	14
48	48	18
58	58	10
110	113	13
112	114	1
93	93	14
130	134	4
80	81	12
109	117	1
126	126	9
123	123	23
80	122	1
98	99	12
28	28	17
98	98	9
11	11	19
24	25	14
53	54	5
63	63	15
114	122	1
41	41	25
41	42	13
151	152	6
46	47	9
118	118	18
148	150	5
134	135	6
13	13	40
68	68	7
66	66	18
154	154	13
72	95	1
7	7	16
25	58	3
80	80	12
131	131	24
94	121	2
34	35	5
82	82	7
86	97	1
25	26	10
95	99	1
147	147	10
47	47	25
42	44	2
108	108	25
148	149	4
137	137	2
65	65	18
45	45	22
63	64	6
123	129	3
46	54	2
49	50	4
15	15	13
138	138	11
46	50	1
103	104	3
52	53	4
104	104	7
67	68	5
71	76	1
76	77	12
81	81	15
72	72	15
96	120	5
152	153	9
99	112	4
14	15	5
68	69	4
74	74	22
90	100	3
75	77	3
32	95	3
19	77	2
52	55	3
33	33	3
26	58	4
18	18	18
95	96	4
145	149	2
115	116	9
53	53	19
19	20	16
44	129	2
29	30	3
8	15	2
73	73	24
51	56	4
85	97	4
43	44	12
84	85	7
18	24	7
66	67	8
19	19	21
121	122	3
144	144	11
100	126	1
15	16	4
32	33	10
31	32	7
4	19	2
137	138	1
78	78	8
49	133	1
3	3	6
151	154	4
39	40	12
40	153	1
65	66	5
45	148	2
96	100	3
145	147	5
43	45	2
53	122	4
91	120	1
123	140	6
57	58	4
35	42	3
22	25	2
49	87	2
122	122	9
120	124	6
56	56	12
65	68	3
35	35	10
73	74	9
5	10	1
148	148	10
27	27	14
107	107	9
149	149	12
76	76	10
71	74	1
83	93	2
76	112	2
75	87	3
81	82	1
104	106	1
42	42	16
76	80	2
147	148	3
56	58	1
111	114	3
104	105	6
120	120	5
122	141	2
101	120	2
73	77	1
83	86	1
96	97	4
83	83	9
100	124	3
126	127	5
30	30	9
82	83	8
48	49	15
86	86	6
22	82	1
128	129	5
149	150	1
46	131	5
111	112	5
129	130	5
13	152	1
130	148	1
97	97	12
33	34	2
98	113	2
7	11	2
27	30	8
4	73	5
54	54	11
108	109	5
90	108	1
96	96	10
30	31	5
100	100	14
46	130	3
32	94	5
11	12	7
21	21	11
22	80	1
85	87	2
152	152	6
77	78	7
27	149	2
90	120	3
109	147	1
150	150	17
5	5	4
87	88	2
69	70	8
13	16	2
21	22	13
31	94	1
138	139	3
99	100	3
24	40	3
82	103	4
130	133	4
37	91	2
3	23	2
141	144	2
39	41	2
54	122	1
44	73	4
145	145	7
20	21	4
44	45	5
101	102	3
15	24	2
144	145	4
10	11	11
64	66	2
9	77	5
62	64	6
2	24	1
31	34	3
38	40	2
105	107	3
105	106	4
45	133	2
28	63	2
90	96	1
23	24	7
6	7	3
90	93	1
109	110	1
39	54	1
79	80	8
93	120	2
34	43	2
58	84	2
65	76	2
74	76	2
47	51	2
74	83	5
94	96	4
39	56	4
85	85	3
144	148	4
116	117	1
13	41	3
109	115	5
41	149	2
144	146	1
95	97	2
72	74	3
91	91	2
104	126	5
7	9	3
74	79	1
122	123	9
33	64	3
26	29	1
37	37	12
49	150	4
33	35	2
31	95	2
124	127	1
16	18	5
55	80	1
43	46	4
12	28	2
102	117	2
14	29	2
25	27	1
62	96	2
76	79	3
34	85	3
23	40	2
35	36	8
130	131	1
123	125	3
43	145	2
108	113	1
4	10	4
55	82	3
5	8	2
125	126	3
66	96	3
29	149	3
24	28	1
11	28	2
3	18	1
114	115	1
128	130	4
70	87	1
99	125	1
27	28	15
102	103	7
47	53	1
118	147	8
100	103	1
96	98	5
70	76	2
83	85	1
85	86	7
12	17	1
143	144	2
106	106	6
81	98	3
11	15	7
123	124	4
68	92	2
86	89	4
94	95	7
47	48	4
95	98	1
52	57	2
35	37	3
94	97	4
38	41	2
113	114	5
75	95	1
34	36	5
7	77	4
46	71	1
39	55	2
122	128	4
30	42	2
101	101	6
40	69	1
96	99	3
58	69	3
54	56	2
43	73	6
36	58	1
13	30	2
119	135	2
93	96	5
110	111	3
84	87	3
89	97	1
124	124	7
132	147	2
47	69	1
54	55	3
52	52	2
84	92	3
38	135	2
7	12	1
153	154	2
73	76	1
139	141	4
136	138	3
123	141	5
53	82	1
50	64	1
88	92	2
97	99	2
143	143	9
4	6	4
119	124	2
141	142	2
112	112	9
5	7	6
40	42	1
111	111	4
66	68	2
128	133	1
62	67	3
32	38	1
150	152	2
45	131	5
135	147	2
90	91	3
13	18	1
79	79	4
49	66	1
85	89	1
78	99	1
48	54	4
23	31	2
77	79	1
13	77	2
89	119	1
7	8	7
113	113	4
79	82	1
41	43	2
43	138	1
5	15	2
19	23	2
118	146	3
78	81	1
41	46	3
139	140	1
145	150	3
20	72	1
138	142	2
28	151	1
41	134	1
53	121	2
41	47	2
93	94	8
69	93	2
72	75	2
125	125	2
5	6	3
86	87	1
88	97	2
139	142	4
110	112	2
92	93	4
53	129	1
48	57	1
140	141	1
125	127	4
90	112	1
8	10	3
21	23	3
70	71	2
97	126	1
109	111	3
120	127	4
32	138	1
132	148	2
78	98	2
137	139	1
30	41	1
63	66	2
50	52	2
32	42	1
19	26	1
54	57	2
128	134	1
107	108	3
144	147	2
108	111	2
86	114	1
102	102	2
36	65	1
36	37	1
20	77	4
109	116	1
39	42	1
45	137	1
122	142	1
33	138	1
57	68	3
4	12	2
50	51	1
14	18	1
38	66	2
90	95	4
142	143	1
30	149	4
98	112	1
141	150	1
24	26	1
139	139	3
31	78	1
56	65	1
126	128	2
38	39	2
82	106	2
42	46	1
34	137	2
118	123	2
47	67	2
102	105	1
35	77	2
3	92	2
38	38	3
122	132	2
144	150	1
50	53	2
7	53	1
35	95	1
26	28	2
55	56	1
34	88	1
48	150	1
75	84	3
119	121	1
72	76	1
58	65	1
54	82	1
67	69	1
61	62	2
8	20	1
14	72	3
147	149	1
105	110	1
4	14	1
38	56	1
32	41	2
24	39	2
149	152	1
18	64	2
43	64	3
135	136	2
40	54	1
78	80	1
69	90	1
13	71	1
62	63	2
35	39	2
84	146	1
67	95	1
35	66	1
130	132	2
45	132	4
49	154	1
100	106	1
132	133	1
10	15	1
84	98	2
83	92	1
86	112	2
35	45	1
48	53	2
111	113	2
85	98	1
25	28	1
28	149	1
95	95	1
36	43	1
9	76	2
32	87	1
146	147	1
89	102	2
83	94	1
86	88	1
67	96	1
2	2	2
75	98	1
141	143	1
93	121	2
89	108	1
6	8	1
117	118	2
26	82	1
87	114	2
112	113	3
39	43	1
134	136	3
71	72	1
7	20	1
70	75	1
63	65	2
45	145	1
31	137	1
119	120	1
117	147	1
45	147	1
7	10	1
120	121	3
44	57	2
121	124	2
74	77	1
31	38	1
91	92	2
32	37	2
86	98	1
89	99	1
101	117	2
36	136	1
20	78	1
97	112	1
49	67	1
135	137	1
36	88	1
78	85	1
29	83	1
57	69	1
19	73	1
36	149	1
89	90	1
42	45	1
113	115	1
35	58	1
134	146	1
49	51	1
38	50	1
31	135	1
42	43	2
46	51	1
77	96	1
