131	131	6
93	93	15
124	125	7
137	138	8
46	46	11
110	110	17
49	50	3
3	52	1
79	79	32
55	55	10
5	5	14
132	132	28
126	126	17
130	130	9
122	154	3
88	110	3
12	12	18
81	81	14
122	122	21
94	96	1
89	89	11
142	142	10
87	87	12
117	117	15
68	69	14
66	66	5
38	38	9
98	150	1
150	150	12
27	27	12
110	111	3
17	17	7
51	53	1
16	18	4
102	106	1
121	125	6
139	139	19
92	93	9
40	137	1
34	81	5
24	40	2
80	80	10
0	0	10
91	91	9
28	28	6
16	17	8
44	44	11
101	139	5
35	55	1
128	139	2
12	13	2
66	72	2
77	77	13
62	63	5
40	51	2
116	119	1
150	152	4
53	84	2
99	99	12
42	42	18
52	52	11
82	82	12
23	23	7
109	109	17
69	69	6
96	96	9
145	145	7
31	31	14
9	14	5
141	142	11
27	28	7
138	138	12
98	101	4
14	18	3
107	135	2
63	63	8
97	97	8
41	44	3
155	155	9
89	91	2
126	156	4
82	83	4
129	129	23
42	49	3
156	156	14
95	128	6
116	117	10
22	24	1
146	146	13
41	42	2
48	48	10
13	13	11
2	2	11
92	92	7
7	8	5
83	83	6
157	157	15
22	26	1
96	97	12
149	149	3
4	4	16
75	75	3
115	115	4
121	121	22
87	142	1
54	54	15
37	37	5
71	122	2
56	57	6
148	148	18
108	109	1
142	144	4
0	151	1
101	101	20
87	158	1
9	15	1
8	8	7
32	37	2
68	68	11
73	74	3
31	49	6
19	19	6
106	116	4
93	94	4
36	50	2
36	37	6
40	41	4
107	107	10
48	52	2
32	32	6
1	44	3
84	84	12
117	118	3
152	152	16
67	67	15
99	132	1
55	86	2
73	73	17
126	155	2
132	133	8
136	145	2
22	22	7
147	147	10
154	157	2
112	112	15
71	86	2
43	43	17
22	128	2
131	141	3
41	41	13
92	100	4
10	10	6
79	151	3
125	125	11
25	29	1
147	154	3
111	115	1
31	51	3
127	157	6
104	104	8
113	115	1
93	106	1
86	101	4
79	81	2
100	100	21
40	40	10
98	130	3
97	104	1
141	141	11
143	144	1
24	24	17
156	157	1
29	29	9
34	53	2
129	130	4
81	83	3
68	71	6
51	51	9
98	102	4
135	135	18
147	149	1
18	19	2
134	134	12
125	154	2
78	79	8
137	143	1
51	52	6
116	116	16
6	29	2
112	157	1
132	134	4
20	30	1
64	135	2
1	134	3
23	46	2
40	66	1
115	134	3
127	127	18
145	147	8
35	36	1
21	21	12
96	101	3
105	105	16
107	112	2
90	106	3
95	96	7
95	109	3
6	7	4
144	153	3
14	39	2
26	27	10
158	158	10
31	32	3
154	154	15
118	118	10
114	115	7
144	144	4
25	25	14
18	18	13
93	95	6
32	113	1
69	77	2
39	65	2
70	70	7
27	44	2
15	16	5
9	9	3
115	116	5
16	53	1
88	88	18
94	94	16
148	149	2
132	146	3
43	44	2
39	88	1
140	140	16
41	46	4
56	62	3
96	139	1
114	114	10
14	14	17
85	85	6
154	155	4
1	1	13
76	78	1
103	103	7
39	39	13
64	67	4
72	73	8
39	70	1
70	71	6
107	131	1
20	20	8
49	49	8
77	124	2
53	53	8
35	53	2
38	158	2
57	57	2
32	38	4
63	69	2
120	120	11
155	157	4
105	108	2
112	145	1
153	153	8
136	147	2
78	82	3
70	79	4
116	134	2
143	143	1
7	43	2
8	9	3
78	78	12
119	119	16
134	137	2
7	17	3
107	130	2
136	137	4
77	78	5
16	16	12
109	110	4
133	133	9
47	49	4
51	70	1
91	114	2
17	18	7
120	121	6
36	53	2
98	98	17
25	41	2
118	121	2
151	151	7
106	106	11
3	3	13
105	106	2
32	42	3
34	54	2
96	119	5
137	137	16
39	40	2
68	89	2
62	85	1
97	98	4
68	70	3
53	54	3
145	146	2
54	70	5
79	95	4
76	76	3
89	90	4
31	37	2
90	90	9
157	158	7
7	7	21
121	122	10
25	26	6
30	30	2
24	25	6
67	150	2
71	71	18
64	64	4
45	45	6
86	86	2
117	127	2
46	134	2
108	108	12
150	155	1
51	144	1
145	148	3
11	27	3
136	136	5
45	52	1
69	71	3
79	82	3
30	32	3
145	152	1
139	147	1
1	152	4
66	70	4
47	48	2
88	89	7
140	141	10
156	158	6
33	33	11
56	56	3
19	34	2
5	6	11
8	63	3
6	6	10
128	128	10
31	33	6
111	125	5
81	82	7
9	18	1
8	11	1
14	45	1
103	104	2
124	126	2
41	64	2
14	15	11
111	111	6
133	140	2
82	90	1
25	28	1
91	106	1
31	145	7
11	33	1
64	113	2
107	108	2
93	107	1
3	7	4
39	66	1
64	77	1
13	14	4
14	35	3
34	35	1
56	63	5
33	55	2
47	47	14
28	29	6
46	47	4
144	145	9
36	36	6
37	38	5
26	43	2
12	17	5
64	139	1
33	34	4
31	133	2
112	141	5
50	50	4
113	124	1
104	154	3
54	76	2
82	85	3
114	123	5
132	141	1
121	123	2
37	40	8
35	65	1
23	25	2
22	25	2
16	50	2
110	113	2
123	123	8
65	139	1
72	72	4
11	30	1
66	67	2
29	30	2
70	104	1
116	121	2
49	51	2
113	114	5
3	4	7
32	51	2
64	75	3
17	34	2
63	138	1
90	112	3
65	71	1
67	85	2
88	113	2
20	24	2
5	8	1
113	140	3
26	26	6
146	147	7
108	111	1
139	140	1
8	10	4
39	49	2
85	89	3
21	27	1
144	148	2
157	159	2
159	159	1
34	49	1
105	133	1
4	150	4
106	107	6
15	31	1
38	39	3
11	11	4
91	94	1
17	19	1
11	32	2
138	139	1
116	128	2
115	139	2
52	71	4
81	96	1
21	62	2
34	34	5
54	55	4
25	53	4
9	10	8
48	49	3
22	23	1
27	29	4
22	35	1
152	154	1
67	68	1
133	134	3
96	120	1
62	62	2
1	25	1
151	152	2
71	77	6
115	128	3
42	43	1
85	87	1
113	128	2
84	112	3
69	78	3
41	45	1
45	46	1
131	132	2
67	69	4
35	35	6
122	123	2
68	150	2
130	138	1
73	157	2
105	131	3
50	51	7
68	155	2
20	21	2
15	15	2
9	17	4
33	53	1
13	39	1
45	99	1
102	104	3
86	113	1
19	39	2
149	157	1
19	31	1
113	113	7
17	21	1
125	126	1
15	22	2
13	22	1
63	70	2
125	127	2
131	136	1
9	11	1
111	112	6
52	70	1
145	154	1
65	65	4
84	88	3
70	78	2
32	33	3
90	91	3
1	4	3
112	140	2
117	128	1
88	142	3
120	123	1
80	114	3
102	102	2
69	121	1
127	134	1
136	150	1
30	116	1
52	53	1
15	53	2
55	111	2
124	124	7
9	16	2
38	54	2
114	118	2
118	139	1
128	129	1
1	129	1
90	111	4
125	137	2
17	22	1
52	54	2
118	119	6
117	145	2
93	104	1
34	50	3
92	94	5
150	158	1
88	90	2
105	107	2
126	136	2
144	146	3
95	131	1
48	54	1
13	19	1
0	1	3
22	46	1
49	54	1
94	95	2
12	33	1
149	150	1
146	157	1
10	16	3
36	38	2
91	96	4
30	47	3
55	67	1
49	69	3
106	151	1
61	61	2
56	89	1
153	154	6
99	100	3
103	148	1
56	65	1
9	52	1
86	111	1
155	156	1
71	78	2
98	100	1
113	116	1
98	151	1
70	81	2
8	14	1
141	154	1
43	137	2
80	93	2
61	142	1
44	45	1
106	109	2
133	155	1
117	124	4
24	27	1
141	152	3
117	122	2
119	126	1
120	126	2
7	9	1
107	110	1
38	68	1
27	46	1
7	26	1
155	158	2
14	16	2
39	43	2
2	4	1
144	157	1
39	64	3
112	131	1
78	111	1
118	140	1
135	136	2
2	3	3
134	135	1
114	126	1
95	146	1
96	121	1
48	69	1
31	115	2
87	89	2
66	151	3
87	88	4
36	51	2
24	29	2
20	38	1
57	80	1
97	130	2
15	20	2
24	67	2
30	112	1
12	14	3
13	82	1
152	153	2
34	48	1
84	87	2
141	150	2
116	140	2
111	127	3
17	37	2
104	105	1
17	52	1
101	130	1
65	95	1
75	94	1
14	142	1
94	109	1
79	123	2
121	145	1
127	158	1
83	113	1
34	156	2
31	50	1
10	32	1
47	94	1
29	31	1
152	157	2
114	133	1
70	88	3
12	51	1
131	140	1
26	28	1
24	153	2
123	127	1
105	127	1
9	76	1
62	69	1
25	145	1
31	48	1
94	106	1
46	55	1
96	107	3
25	30	1
109	113	2
135	145	1
82	86	1
140	149	1
57	68	1
97	107	1
89	132	1
93	96	1
79	80	2
102	103	2
32	34	1
154	156	1
139	158	1
99	129	1
52	87	1
57	63	2
10	65	1
137	145	3
38	55	1
69	85	2
127	151	1
132	148	1
55	63	1
64	68	1
39	41	2
41	123	1
158	159	4
119	120	1
23	24	2
105	121	1
15	34	1
34	52	1
67	82	3
11	16	1
37	39	1
95	95	2
78	85	1
44	66	1
134	140	1
62	64	1
145	153	1
127	153	1
99	148	1
39	67	2
139	155	1
105	116	1
13	144	1
57	61	1
78	83	1
57	146	1
98	128	1
33	40	1
43	50	1
83	84	1
70	72	1
71	82	1
141	144	1
31	42	1
19	32	1
20	22	2
22	36	1
143	146	1
147	148	1
19	20	2
57	67	1
49	53	1
21	31	1
114	143	1
38	111	1
53	69	2
84	86	2
101	157	1
34	71	1
10	13	1
126	127	1
19	52	1
34	51	1
111	153	1
150	154	1
96	140	1
83	120	1
140	152	1
10	12	1
104	126	1
2	51	1
47	113	1
104	155	1
84	85	1
9	36	1
71	79	1
64	65	1
97	127	1
20	149	1
