79	79	15
55	58	2
44	44	14
60	60	14
32	33	2
73	73	20
98	99	6
38	38	16
97	97	14
101	101	13
49	55	2
100	100	12
90	90	13
95	95	6
49	49	5
22	46	1
84	88	2
55	55	13
30	38	1
88	88	10
96	96	23
95	97	5
53	54	8
87	88	5
48	49	6
58	58	24
48	48	18
41	41	14
33	33	9
35	35	12
40	40	13
27	27	21
27	88	2
36	36	7
68	68	18
46	46	20
72	72	32
33	83	2
31	31	16
60	80	3
69	69	14
56	57	11
43	68	2
92	92	6
53	88	3
35	39	1
40	41	3
77	77	16
50	50	16
82	87	3
52	52	19
50	51	3
45	45	6
77	78	4
81	81	13
78	78	9
61	74	3
59	59	21
67	67	20
50	55	1
35	52	1
24	98	3
65	65	15
47	54	1
64	65	5
60	79	3
37	37	10
54	54	14
94	94	9
25	53	4
87	87	7
35	47	2
76	76	12
51	51	10
66	66	18
71	71	9
61	73	10
82	82	7
25	33	4
62	62	9
57	58	7
27	29	4
61	61	14
76	77	4
99	99	9
47	52	1
68	69	5
43	43	30
53	53	12
37	38	7
59	61	1
86	86	23
24	24	2
45	80	3
44	50	2
63	63	19
20	37	2
92	93	2
60	62	4
90	91	9
64	64	17
47	47	5
91	91	7
97	99	1
26	69	2
29	29	11
92	99	1
83	83	10
79	80	10
46	57	2
57	57	13
65	77	7
44	45	5
85	85	14
93	93	18
51	52	6
34	34	5
38	39	2
88	95	1
33	36	1
39	80	4
39	39	11
48	52	1
62	63	1
87	95	2
49	50	1
76	85	1
74	76	2
80	80	19
27	68	1
42	42	10
69	77	1
81	93	3
41	42	8
56	56	7
70	70	10
80	81	7
65	66	5
83	84	2
85	102	3
55	56	2
25	26	4
97	98	18
88	89	2
55	86	1
96	97	5
66	77	1
86	89	1
61	62	5
35	99	4
50	61	1
55	83	2
24	25	2
35	40	2
81	94	4
75	75	13
48	60	1
46	47	5
56	73	2
26	26	6
80	83	5
38	95	4
86	87	4
35	36	5
57	78	5
31	47	1
35	53	6
82	93	3
42	43	5
48	50	2
34	35	5
28	28	9
80	87	3
47	102	2
102	102	2
34	41	3
53	94	1
89	89	9
83	86	4
37	95	8
77	91	3
32	32	8
65	74	1
52	53	1
85	91	1
31	41	2
95	96	1
63	64	4
21	86	4
71	72	4
88	96	1
33	68	2
56	74	3
100	101	2
74	77	2
34	87	1
34	88	2
47	61	1
54	55	3
81	88	1
65	71	4
60	61	4
27	53	1
74	78	1
72	75	4
26	77	2
24	27	4
73	77	6
63	71	2
44	74	1
53	86	2
74	74	13
56	79	2
47	58	1
62	64	4
55	99	1
34	52	4
87	100	2
73	74	3
61	89	3
91	92	3
35	80	2
81	87	2
89	93	2
81	98	3
81	102	1
35	50	4
23	23	1
29	52	1
37	92	1
51	55	2
37	84	1
33	34	3
36	59	4
37	55	1
57	74	1
47	74	3
58	59	4
98	98	7
30	52	1
20	22	1
73	79	1
79	94	2
60	73	2
93	100	1
55	101	1
45	66	4
35	67	1
79	98	1
89	100	1
47	48	2
26	27	2
36	53	1
82	88	1
31	32	1
87	96	3
53	87	1
42	98	2
20	92	1
32	39	2
59	70	1
24	29	1
54	58	2
26	94	1
53	55	2
81	82	1
25	25	3
85	99	2
56	59	2
93	99	1
29	33	1
86	88	2
34	68	1
84	84	4
37	39	3
73	101	1
99	100	3
46	48	1
72	101	1
39	40	3
64	101	2
33	37	1
76	88	1
62	70	1
75	76	2
67	68	1
78	93	1
64	66	1
82	94	2
74	79	1
34	62	1
47	93	1
46	61	4
95	98	1
31	50	1
55	67	2
35	96	1
38	92	5
70	76	1
45	79	1
72	76	1
93	94	1
85	86	1
24	100	1
24	26	1
36	39	3
87	93	1
39	95	1
66	67	2
85	96	2
37	97	2
47	84	1
39	96	2
23	25	1
59	77	1
46	60	1
51	67	1
101	102	1
44	73	1
91	93	4
92	94	1
87	91	1
83	85	1
23	68	1
33	87	1
88	100	2
74	91	1
89	90	1
43	95	1
30	30	1
72	73	1
75	85	1
44	76	1
33	86	1
53	83	1
61	81	1
70	72	1
88	97	1
22	95	1
86	96	1
96	98	1
29	37	1
51	102	1
26	91	1
