44	61	2
56	56	9
78	78	5
50	52	1
92	93	1
44	45	3
51	53	2
25	25	7
74	74	12
60	60	7
53	75	3
99	99	13
101	101	11
91	93	4
45	45	13
91	92	2
26	26	1
63	63	3
78	95	2
102	102	3
65	66	3
56	57	5
32	32	9
39	40	5
49	49	6
80	80	6
106	106	3
95	96	6
40	44	2
68	68	16
37	73	4
31	32	2
61	95	2
55	55	7
73	73	15
61	61	8
40	41	1
79	79	6
25	38	2
85	85	1
64	64	7
40	40	6
28	29	4
50	50	8
72	73	3
47	50	2
43	44	1
59	59	6
82	82	3
57	67	6
57	57	4
33	33	13
48	48	3
32	34	3
55	56	4
80	81	3
43	43	3
97	106	2
72	72	10
52	53	5
97	97	5
21	21	11
105	105	8
68	69	4
35	36	2
101	102	3
49	54	2
49	50	7
54	54	14
64	65	2
94	99	3
36	36	6
30	41	2
30	30	3
76	76	18
35	35	10
45	52	6
36	38	3
107	107	8
67	67	5
97	98	1
86	87	3
47	49	4
62	62	13
89	97	1
87	87	2
95	95	4
88	88	9
60	62	2
44	44	4
51	52	5
102	103	7
55	64	2
53	53	5
20	20	5
100	102	1
49	78	4
66	66	2
32	40	2
58	61	2
27	29	2
80	82	2
30	32	4
41	41	4
90	91	1
71	72	5
62	64	4
36	37	6
48	78	4
47	48	3
103	103	6
39	44	1
98	100	1
59	60	3
31	31	13
33	61	3
34	34	5
57	58	5
67	106	2
46	47	2
77	77	3
66	67	5
81	81	2
76	101	1
72	75	2
67	69	1
83	83	3
38	39	1
58	58	8
104	104	2
37	37	5
69	93	1
74	93	3
47	47	4
75	92	4
39	39	1
27	27	5
42	42	5
94	94	6
92	92	5
104	105	4
84	85	3
23	23	10
92	106	1
48	58	2
99	101	1
89	89	2
24	24	7
65	65	4
100	101	5
63	64	2
57	64	1
74	75	2
76	105	1
70	70	7
96	100	1
23	24	4
100	100	1
75	75	3
79	95	2
48	49	3
94	106	2
22	71	2
64	73	1
22	22	3
60	61	5
93	94	2
77	96	1
90	90	2
69	70	2
51	51	2
29	31	1
66	93	1
61	94	3
91	106	1
67	97	1
75	105	1
69	69	1
59	65	1
92	105	2
91	96	2
73	74	4
77	91	1
67	78	2
85	89	1
32	63	1
30	31	3
96	96	1
33	36	2
50	55	3
98	98	3
69	75	1
25	26	4
103	104	1
27	30	1
52	52	2
78	79	2
67	75	1
80	83	1
69	102	1
68	77	1
88	90	2
53	54	1
46	53	3
34	41	1
80	87	1
28	28	1
29	29	2
67	99	1
20	21	1
24	26	1
47	56	1
58	59	1
34	63	1
96	97	1
90	99	1
50	68	1
33	34	1
69	76	1
71	73	1
49	90	1
