94	94	10
114	165	2
144	144	12
160	160	19
137	138	7
139	139	3
138	138	15
153	158	3
101	102	12
191	192	9
191	191	11
34	34	11
29	33	1
23	23	5
115	164	2
187	188	15
111	111	8
66	89	2
45	45	10
37	37	4
87	87	1
101	101	4
110	110	9
27	27	10
87	88	4
68	68	10
62	62	2
176	176	13
24	25	8
8	8	7
116	116	3
17	18	3
47	47	24
59	59	8
9	14	7
152	153	3
150	150	17
5	8	5
95	118	4
12	130	2
104	104	5
0	0	5
170	170	13
136	170	1
182	182	16
38	57	3
48	48	18
66	66	8
24	36	1
132	132	19
184	184	19
121	167	9
15	15	7
105	106	7
9	193	1
18	40	3
57	183	1
56	56	19
186	186	6
100	171	3
32	33	2
164	164	25
145	145	5
172	172	17
64	65	2
165	166	6
119	140	1
135	136	11
26	26	11
155	155	16
190	192	3
146	146	9
188	189	3
51	51	14
18	18	10
123	123	14
14	15	1
173	173	15
1	33	4
134	135	7
144	146	2
168	168	18
1	3	1
114	114	7
99	178	4
169	169	8
153	153	12
187	187	12
121	121	6
44	122	2
172	178	3
103	118	1
8	11	5
60	60	9
31	31	14
100	100	8
186	195	6
38	58	2
96	116	3
30	72	4
111	113	4
95	95	12
174	174	9
46	46	21
158	190	4
149	149	7
175	175	11
155	174	3
85	85	5
194	194	22
148	148	10
7	59	2
4	4	21
157	157	16
36	37	3
73	73	9
178	178	9
21	22	8
131	131	18
143	143	6
53	53	19
98	176	2
55	55	8
160	162	1
46	47	2
36	36	23
57	58	2
76	76	5
170	171	5
14	14	16
106	127	1
159	159	4
22	22	7
158	158	17
142	142	3
189	192	5
135	135	16
121	126	2
130	131	5
125	126	9
28	62	2
169	197	4
132	133	1
161	162	4
159	161	1
96	117	4
52	52	17
140	158	4
176	177	2
124	124	16
10	10	1
0	2	3
173	174	6
145	146	3
176	178	2
141	141	6
143	145	3
157	158	12
127	127	6
134	134	12
184	192	3
5	9	4
113	113	11
101	170	2
155	156	8
133	134	4
25	67	2
184	186	3
93	93	6
82	83	3
6	6	13
190	190	11
3	3	6
52	53	4
126	127	4
180	189	1
102	102	9
157	192	5
38	82	1
22	24	3
129	169	7
38	38	17
139	158	2
164	165	5
108	108	13
177	177	4
167	167	9
119	120	1
154	154	6
138	150	3
100	137	1
4	9	1
117	172	3
116	117	11
73	74	6
33	37	8
106	109	1
122	122	18
69	69	7
186	187	2
50	50	12
5	10	2
86	176	6
45	51	6
193	193	21
97	97	10
106	106	9
154	156	4
54	55	10
180	180	4
196	196	9
184	191	3
152	152	11
70	70	9
84	84	6
55	56	4
147	181	3
98	98	4
129	159	3
79	80	5
0	68	3
133	133	7
105	105	11
38	39	5
126	126	8
161	161	18
16	17	9
119	119	7
47	48	3
188	188	6
43	44	3
192	192	14
120	121	6
147	147	7
9	9	24
96	96	4
124	126	1
58	62	1
80	81	5
139	157	3
7	9	1
81	82	4
35	35	16
74	74	9
129	172	3
151	151	11
130	133	1
166	166	9
20	20	9
12	12	11
20	79	3
178	179	2
5	6	2
137	137	6
28	35	1
161	163	5
30	30	11
25	63	3
163	183	2
33	35	2
122	126	1
179	182	1
13	14	3
7	180	2
5	5	6
181	181	5
163	163	9
100	101	3
122	170	2
152	190	4
129	129	5
107	108	2
62	65	4
58	58	15
28	28	6
106	107	2
66	76	4
11	11	11
88	89	10
114	141	7
40	41	5
34	36	4
44	56	4
41	41	5
72	73	4
161	164	1
45	54	5
76	79	6
172	176	2
143	144	1
174	175	3
108	110	5
183	183	19
41	183	1
136	136	10
115	115	12
19	62	1
25	26	8
195	195	8
167	169	10
139	140	3
0	62	2
185	192	1
163	164	9
35	59	2
154	180	1
43	43	11
33	33	5
102	103	6
158	182	2
38	81	2
172	173	6
185	185	13
107	107	3
47	56	1
54	54	3
163	167	2
156	156	16
61	63	2
29	29	7
77	78	4
83	85	2
102	114	5
183	194	4
30	66	1
189	189	2
135	137	4
189	190	3
24	24	6
137	170	1
16	16	3
86	87	4
15	73	1
110	111	4
21	21	7
120	169	1
166	167	2
117	117	8
25	25	3
39	40	4
25	78	2
165	165	10
108	109	2
165	167	1
156	159	2
125	125	4
4	23	1
128	128	14
115	116	5
1	50	2
13	13	3
104	105	1
57	72	2
113	148	4
94	137	3
169	170	5
31	32	5
75	77	1
140	140	7
140	168	1
182	189	2
139	181	1
116	142	2
117	142	1
81	81	4
24	57	2
134	175	3
142	143	5
34	38	3
117	118	3
163	166	3
84	85	3
57	57	6
50	59	2
179	179	12
151	152	1
140	172	4
3	17	4
44	44	6
101	103	2
82	82	1
147	148	6
122	123	5
106	118	1
24	67	1
21	74	1
135	152	5
83	84	1
3	4	3
39	39	2
157	159	1
151	159	1
42	42	10
58	60	1
186	188	1
61	66	1
184	185	8
130	130	4
115	140	1
171	171	8
49	49	6
121	124	6
118	118	6
73	77	3
135	141	1
142	154	2
120	132	3
171	172	3
43	55	2
141	171	1
193	194	3
27	41	2
83	83	7
119	122	2
155	181	1
32	32	5
1	1	5
168	175	2
34	35	1
141	179	1
78	79	5
49	50	1
39	41	1
112	113	1
103	146	5
90	182	2
40	44	3
158	159	3
19	22	2
99	179	2
99	100	4
145	149	5
117	190	4
173	176	6
105	165	4
11	12	2
109	109	6
71	72	4
140	156	1
89	89	3
22	26	1
197	197	4
34	59	1
95	139	5
71	71	5
171	196	1
33	34	2
149	150	5
62	67	1
159	160	2
124	125	1
87	179	3
20	22	1
94	139	2
86	86	5
120	120	10
48	49	2
29	30	1
61	62	3
140	154	2
47	52	1
132	155	1
104	145	1
126	169	1
185	189	2
9	38	1
111	112	5
188	196	4
172	174	1
78	78	4
34	76	2
40	40	6
177	178	5
83	86	3
104	166	1
28	34	3
70	71	2
98	105	1
65	65	4
130	140	1
23	46	3
119	151	1
17	17	3
146	172	3
93	94	1
64	64	1
163	165	4
96	105	2
16	185	3
103	103	3
99	101	3
141	142	4
39	84	1
90	136	1
112	112	4
90	90	5
117	191	1
45	46	2
26	27	2
107	117	2
146	147	2
0	1	1
26	59	2
103	119	1
54	56	1
155	179	1
30	31	5
114	119	2
150	192	7
179	194	5
151	156	2
150	193	1
88	88	5
6	17	1
132	154	1
105	126	1
93	105	2
154	173	2
121	122	1
186	193	1
152	155	1
62	66	4
65	66	3
19	20	4
0	22	2
148	150	1
168	169	3
103	104	4
94	155	1
179	195	2
146	148	3
125	128	2
176	179	1
99	144	4
149	163	1
104	115	2
21	66	1
45	47	1
156	157	2
19	19	2
135	139	1
14	39	1
103	105	2
113	114	1
34	39	1
7	8	2
89	173	1
130	132	1
99	114	1
3	83	1
137	156	3
76	78	1
63	63	3
89	90	2
96	97	6
98	99	2
36	41	2
85	86	2
68	78	1
164	166	1
153	155	2
100	114	1
44	121	1
139	155	1
59	86	2
44	87	2
4	5	1
186	190	1
75	75	1
58	86	1
51	165	1
21	75	1
52	55	3
51	54	1
79	79	1
42	43	1
157	182	1
100	143	2
11	132	2
94	143	1
7	7	1
184	187	1
20	74	3
115	180	2
62	63	1
61	67	1
18	20	1
170	172	2
20	21	1
99	99	5
175	188	1
6	8	1
98	178	3
4	10	1
114	183	1
72	77	1
133	135	2
135	174	1
119	158	2
50	51	1
131	173	1
33	75	1
175	177	2
80	80	2
13	194	1
109	110	1
2	22	1
42	60	1
189	194	1
72	72	2
37	38	1
147	153	1
154	157	1
185	186	1
12	13	1
27	29	1
17	19	1
157	189	2
103	144	1
164	183	1
152	158	1
179	196	1
169	186	2
71	88	1
139	166	1
64	66	1
130	173	1
15	16	1
119	125	1
95	96	1
173	179	1
28	29	1
161	188	1
2	2	1
162	163	1
192	193	1
107	160	1
0	18	1
2	19	1
3	19	1
59	84	1
103	115	1
180	182	1
8	9	1
153	174	1
24	27	1
135	189	1
103	106	1
104	167	1
0	63	1
42	69	1
41	121	1
181	188	1
161	165	1
10	11	1
130	152	2
2	3	1
115	118	1
154	155	1
