124	125	3
23	23	8
109	109	18
30	33	2
93	94	8
115	115	7
59	64	1
67	87	1
115	125	1
29	29	13
73	77	5
80	82	2
49	49	6
119	119	12
5	15	4
101	101	6
80	101	3
72	77	1
16	16	7
81	81	13
105	107	1
13	41	3
111	111	8
30	59	2
112	113	3
17	42	2
94	95	6
98	98	7
5	5	6
77	77	15
43	43	11
99	113	2
103	107	2
13	13	6
110	110	7
12	49	1
79	79	4
15	15	11
86	96	8
95	96	6
32	32	5
73	73	10
42	42	15
21	21	6
48	49	2
26	26	8
7	7	4
33	34	1
63	63	10
6	6	5
88	88	12
45	46	9
97	97	6
65	65	11
27	28	3
56	56	6
57	57	13
44	44	12
11	12	8
83	83	6
104	125	5
33	33	5
128	129	1
112	112	10
14	16	4
90	94	6
69	69	6
104	104	12
58	60	1
56	80	2
105	105	18
10	10	3
82	83	1
72	72	7
99	99	17
75	77	3
74	90	1
27	27	4
2	3	2
28	28	7
70	71	2
68	71	3
82	82	11
96	97	1
14	14	8
13	14	5
40	41	4
126	126	16
96	96	14
123	123	6
105	106	3
117	117	5
75	76	2
53	53	8
76	76	5
43	44	6
47	47	18
22	25	4
94	94	10
80	80	8
52	52	8
64	72	3
18	40	4
71	72	4
56	57	3
45	50	1
12	12	10
77	79	5
113	113	11
4	28	1
19	21	2
14	15	2
107	107	5
90	90	10
90	120	2
87	87	4
38	39	10
13	43	3
48	48	13
102	102	8
58	62	4
95	95	8
114	114	2
74	109	5
24	25	3
59	59	7
68	69	1
59	60	5
11	11	9
64	64	9
65	75	4
1	1	5
2	2	6
39	39	8
51	51	5
76	77	5
93	93	7
21	62	3
103	119	5
131	131	3
13	42	1
12	14	2
71	71	10
89	91	3
61	62	11
68	68	16
115	116	7
65	66	3
60	65	1
62	71	4
108	108	6
54	55	2
132	132	4
41	42	7
40	55	2
58	58	7
66	66	8
24	24	1
46	48	5
4	4	7
46	46	9
129	129	3
130	132	2
124	124	11
41	41	2
54	54	6
122	122	7
78	79	7
69	70	3
79	80	2
125	125	8
55	55	8
66	67	2
64	70	3
7	8	5
85	85	8
56	65	1
25	26	4
105	125	1
120	123	4
5	6	3
111	112	3
20	20	7
22	27	1
34	34	3
71	77	2
30	30	3
38	38	3
106	106	4
74	74	1
78	78	5
99	119	2
91	92	9
100	101	2
87	88	2
39	40	2
25	25	4
31	31	1
118	118	3
49	50	3
112	114	1
102	103	4
52	53	2
84	96	4
100	120	5
84	84	6
55	56	3
62	72	1
60	60	3
76	87	1
82	84	1
103	103	8
98	114	5
50	50	7
61	61	3
21	22	1
13	16	1
45	47	1
67	68	4
71	81	3
84	88	2
22	22	6
79	81	1
3	4	2
16	17	1
75	75	3
47	96	1
31	32	4
0	0	3
129	130	3
23	24	2
17	17	1
6	7	2
117	118	4
109	124	2
120	121	3
19	20	2
99	125	1
70	70	6
110	111	2
91	93	2
46	85	3
97	98	2
86	87	3
67	67	1
62	62	6
83	96	1
101	112	2
84	85	1
90	91	2
50	51	2
46	52	2
89	89	1
96	113	1
28	59	2
71	94	1
100	122	3
40	56	1
99	100	2
21	28	3
20	21	1
28	29	1
40	40	2
46	98	2
89	115	2
4	5	1
96	112	1
71	92	1
65	73	1
29	30	3
130	131	1
120	120	4
97	113	2
104	108	1
18	21	4
19	19	1
17	18	2
1	2	1
83	85	2
67	83	3
46	47	2
116	117	2
10	12	1
73	107	2
121	121	1
98	118	1
108	109	1
28	66	1
79	82	2
66	68	2
71	74	1
133	133	2
117	125	2
98	99	3
18	18	2
110	131	1
69	72	1
47	123	1
12	13	1
108	129	2
80	81	1
86	86	2
92	92	2
49	93	1
83	84	1
130	133	3
9	9	2
20	27	3
98	120	1
8	9	1
16	23	1
88	89	1
42	43	1
72	73	2
104	105	1
96	117	1
22	23	1
130	130	2
127	127	2
46	51	1
60	61	1
77	83	1
4	15	1
51	52	1
100	105	1
75	86	1
61	64	1
65	72	1
74	97	1
125	126	1
113	125	1
90	116	1
