79	85	1
50	50	16
99	100	3
61	62	1
112	114	6
101	101	12
123	123	14
26	27	2
112	113	4
64	69	1
70	70	11
63	63	17
47	47	6
119	129	3
107	107	4
17	17	3
89	89	3
125	126	2
22	22	14
33	34	10
83	83	6
85	85	10
106	106	7
80	80	20
44	44	11
20	20	8
108	120	2
71	71	9
54	55	8
78	78	8
98	98	11
26	26	12
117	117	9
100	133	4
124	126	4
87	87	15
36	36	5
8	8	4
66	67	4
30	135	4
122	125	5
97	97	23
57	78	4
24	24	22
127	128	4
128	132	1
73	74	7
99	99	16
7	7	7
102	102	22
110	110	8
28	29	2
115	115	9
1	1	13
113	113	9
65	65	6
82	82	8
103	103	5
9	9	7
12	12	9
31	31	6
30	30	9
92	94	2
120	121	6
3	20	3
88	88	4
7	48	4
72	72	10
85	113	3
106	112	2
91	91	5
8	9	4
18	18	10
33	33	12
16	16	7
79	80	9
20	21	2
65	67	4
9	10	3
34	34	14
62	62	9
52	52	16
78	79	4
75	76	2
53	54	5
0	2	2
99	101	5
75	75	8
101	102	5
118	118	20
64	65	2
25	25	9
48	49	2
3	3	9
73	75	1
105	105	10
127	127	5
94	95	3
95	96	5
106	107	3
11	47	3
19	19	5
60	61	3
32	32	4
2	2	11
6	7	6
93	94	8
49	49	2
23	23	9
27	27	5
126	126	8
104	104	7
27	28	3
6	6	6
129	129	13
31	33	3
93	93	6
4	31	1
114	114	7
108	108	3
23	25	7
68	68	11
89	91	2
79	89	3
96	96	7
21	23	3
64	66	2
98	103	4
131	131	7
18	19	3
74	74	4
15	15	8
0	0	3
132	132	2
72	74	4
100	105	2
131	133	8
13	14	6
11	11	11
9	13	2
30	53	1
121	121	8
133	133	7
31	36	1
32	33	4
43	47	1
120	120	9
31	32	1
98	99	2
61	61	7
69	90	1
43	45	4
11	12	5
112	121	2
105	120	2
63	64	1
46	50	2
10	11	1
97	98	6
5	5	6
49	50	2
82	118	2
92	92	4
75	83	1
114	115	3
87	96	2
50	51	1
94	99	1
8	123	4
8	13	4
89	116	1
112	112	8
48	52	2
64	64	2
130	131	2
36	49	1
53	53	5
54	116	2
91	103	2
102	103	2
54	54	3
99	133	1
66	70	2
121	122	3
78	114	1
2	3	5
58	58	4
122	122	5
123	124	4
24	25	1
130	130	6
78	81	3
25	27	1
122	123	3
14	49	1
26	101	1
125	131	5
77	77	6
100	100	15
128	128	9
13	15	4
76	76	4
97	119	2
12	15	3
10	10	10
123	125	3
0	4	1
17	18	3
70	71	2
84	85	1
1	4	6
116	116	8
14	15	2
72	73	8
90	90	6
11	14	2
115	118	2
27	29	1
11	15	1
109	109	2
115	116	1
22	23	5
95	95	8
14	14	2
113	114	4
86	87	2
106	108	3
100	122	2
107	108	4
65	90	5
101	126	2
66	66	5
19	20	1
60	60	2
73	73	6
106	111	1
86	86	2
99	120	2
59	60	1
92	93	5
88	89	1
81	120	3
29	29	1
38	38	2
17	21	1
59	59	2
48	53	1
60	62	1
60	117	1
118	119	3
105	135	1
125	125	6
30	31	3
129	130	1
79	79	6
3	4	2
67	68	4
5	7	4
65	75	1
56	59	4
38	122	2
124	129	3
71	72	2
57	58	3
33	35	1
99	119	2
77	78	2
6	8	3
54	57	1
66	68	3
13	13	4
1	3	1
67	67	3
79	81	3
55	59	2
14	115	1
81	81	2
78	91	3
1	128	1
105	111	2
76	90	3
99	121	1
78	82	1
15	17	1
2	124	1
124	124	5
19	27	1
100	131	1
128	129	1
63	91	3
32	35	1
21	21	7
111	111	6
24	26	2
73	76	2
90	91	2
54	56	2
13	24	3
68	69	1
86	95	3
88	116	1
118	120	2
77	90	2
78	89	4
3	29	4
14	94	1
116	117	2
104	105	3
119	131	1
103	104	4
120	134	2
119	120	4
120	129	2
43	46	1
1	127	2
119	119	3
29	33	1
4	4	3
62	69	2
134	134	3
1	123	3
12	95	1
15	16	3
43	43	2
56	57	2
55	55	3
1	8	1
56	56	4
94	94	3
78	97	3
53	59	1
96	97	3
31	34	1
105	106	3
23	24	2
21	53	2
7	12	1
16	17	3
101	132	1
44	45	2
54	65	1
47	49	2
84	86	1
126	127	1
37	38	2
17	30	1
15	26	2
116	125	3
18	30	1
48	48	1
62	64	1
43	58	1
15	99	1
57	57	1
6	9	1
2	23	2
91	112	3
90	98	1
47	48	3
74	125	1
16	99	2
22	26	2
116	118	1
21	22	1
1	2	1
28	28	1
124	125	1
107	115	1
5	28	2
44	61	2
52	53	2
102	134	1
69	69	1
35	36	1
82	83	2
120	131	1
69	71	1
27	99	1
87	88	1
113	123	1
30	34	1
101	134	1
29	30	1
2	25	1
115	117	1
19	28	1
13	26	2
5	126	1
76	82	1
60	64	1
102	106	1
0	1	1
62	63	1
8	11	1
95	99	1
