70	70	9
62	62	18
19	19	3
30	36	3
31	34	3
0	0	11
7	7	9
25	29	4
49	51	2
20	20	3
28	36	1
33	33	7
66	66	1
20	36	1
37	41	4
26	27	4
63	63	3
56	56	6
33	35	5
40	40	7
55	55	16
28	28	5
54	63	4
42	42	14
2	13	2
35	35	4
77	77	9
61	66	2
44	44	11
73	73	20
24	24	24
1	2	3
58	62	2
69	69	10
1	1	5
51	52	10
41	42	8
52	52	8
21	21	7
58	59	1
6	65	3
41	41	9
43	43	4
4	8	2
5	54	1
11	11	8
58	58	12
64	64	11
35	42	5
2	2	6
30	50	4
52	55	4
49	49	9
74	74	1
23	25	2
68	69	6
59	59	9
14	14	2
36	36	7
7	73	5
22	33	4
22	22	5
39	41	5
48	50	6
1	62	3
12	55	6
50	50	6
31	31	1
36	37	5
57	57	11
18	57	2
51	51	6
25	28	5
43	44	2
45	45	6
48	48	3
54	54	3
37	37	8
44	46	6
39	39	9
47	47	9
53	72	5
67	68	2
29	29	10
27	28	2
2	32	3
75	76	5
50	51	3
37	45	4
31	35	2
19	20	6
10	10	2
68	68	6
3	60	8
48	49	4
41	51	4
42	68	3
38	38	6
51	56	4
71	71	4
22	23	4
46	46	6
71	72	4
40	42	2
43	61	2
32	32	14
47	50	1
5	6	3
39	51	3
23	30	2
62	64	2
44	45	4
49	50	1
40	67	1
18	64	4
61	61	6
63	71	1
6	31	1
2	54	3
13	54	2
26	26	5
22	24	1
76	76	2
55	56	4
66	67	1
38	39	3
60	60	2
62	63	1
22	55	1
8	8	2
37	38	2
3	3	6
49	74	4
60	61	2
57	58	3
76	77	2
28	29	3
53	55	4
65	65	1
5	5	1
36	42	2
0	1	4
25	25	1
72	72	2
67	67	4
12	43	2
6	62	2
35	37	1
38	40	2
9	9	1
27	27	2
1	32	1
15	59	1
23	23	1
20	37	1
30	74	4
11	60	1
18	18	1
13	13	3
63	64	1
4	5	1
36	38	2
58	64	2
4	4	2
61	69	2
3	8	1
75	75	2
9	10	1
12	12	2
40	41	1
53	53	1
6	75	1
15	35	1
25	26	1
54	56	1
29	30	1
56	57	1
38	45	2
44	75	1
24	25	1
6	73	2
13	55	1
64	71	2
2	34	1
49	73	1
21	22	1
40	50	1
31	49	2
42	43	1
5	53	1
54	58	1
34	34	1
1	8	1
13	58	1
0	42	1
13	39	1
7	52	2
0	7	1
3	56	1
18	38	1
