98	98	16
67	67	11
45	45	15
71	72	15
78	79	6
36	36	21
80	80	20
84	85	8
55	55	10
102	102	13
73	73	6
75	75	22
31	56	4
23	23	24
42	43	8
63	63	14
60	60	7
46	56	4
40	41	8
24	24	12
76	77	13
58	58	9
103	103	13
86	87	7
50	51	4
21	21	10
75	76	5
79	87	2
66	66	15
94	94	14
75	77	2
57	57	17
87	100	2
96	96	17
63	64	2
64	65	2
83	85	3
94	96	1
62	63	7
84	84	7
86	86	7
87	87	8
39	39	11
25	66	5
22	22	10
24	25	7
30	30	12
101	101	14
26	26	7
27	27	18
43	54	4
58	59	12
49	49	14
37	37	11
39	42	3
54	54	8
104	104	8
87	88	7
45	56	4
89	89	21
48	49	7
48	48	11
31	31	21
68	68	24
46	51	1
51	51	13
68	69	8
53	53	6
81	81	9
70	70	20
41	42	7
40	40	5
46	46	9
47	47	9
97	97	6
63	65	2
25	26	1
39	58	4
75	78	3
99	99	9
85	85	8
41	44	3
30	32	2
61	61	6
97	99	1
65	65	10
80	84	6
92	93	9
95	106	1
25	25	13
38	39	6
45	49	1
69	69	9
80	83	2
88	90	3
43	43	10
71	71	13
46	47	5
95	96	10
83	84	5
64	64	11
41	41	9
42	46	2
106	106	2
100	100	11
77	77	17
83	83	9
39	46	4
45	46	4
54	55	2
101	106	4
81	82	9
91	91	5
82	82	6
92	92	17
55	56	1
93	94	1
88	89	3
104	105	7
67	68	3
42	42	6
20	36	2
74	74	4
82	83	5
99	100	3
70	72	3
37	38	2
45	48	7
91	100	1
21	24	7
59	59	4
35	36	2
52	52	9
35	35	5
32	38	5
93	93	14
44	49	4
94	95	1
35	51	2
56	58	2
46	52	2
90	91	3
97	98	3
42	44	2
76	102	2
78	78	6
62	62	4
107	107	8
47	48	3
24	26	1
34	34	5
24	61	1
28	31	4
62	64	1
56	56	7
97	106	2
38	38	3
82	86	4
77	78	5
105	105	10
101	103	2
74	75	7
50	50	12
33	34	3
27	28	2
42	54	2
54	65	2
29	30	4
62	68	1
43	57	4
93	96	2
28	30	1
26	38	2
57	75	3
57	61	3
51	52	2
49	50	3
31	33	5
57	59	3
32	34	2
28	29	4
95	100	4
96	97	4
69	73	4
90	90	3
95	95	3
72	73	6
79	79	7
23	24	2
20	20	6
56	67	3
88	88	7
50	73	2
42	52	1
44	57	1
20	21	2
96	99	4
80	81	5
33	33	1
73	75	1
20	29	1
58	60	2
32	37	2
59	60	2
28	28	4
61	68	1
47	49	4
79	81	1
30	31	2
69	70	2
76	76	3
36	51	1
103	105	1
32	55	1
53	54	1
52	54	4
49	51	2
65	71	2
44	71	2
27	29	4
72	72	1
54	69	3
79	80	3
20	26	2
22	60	1
56	57	4
103	104	2
61	62	3
39	49	1
95	107	4
43	44	2
55	57	1
47	61	1
64	68	1
27	39	1
41	45	1
36	37	1
24	62	1
31	32	1
67	95	2
66	88	1
27	55	2
50	69	1
94	107	2
32	32	3
35	39	1
40	42	2
65	66	1
62	65	1
35	70	3
106	107	1
52	53	2
98	99	2
56	59	2
101	102	1
70	71	1
39	75	1
32	33	2
29	32	2
49	64	1
53	67	1
44	60	1
35	62	1
44	56	1
42	57	1
85	86	1
26	40	1
89	91	2
87	95	1
22	23	1
60	61	1
32	39	1
57	58	1
22	35	1
46	49	1
