192	192	9
16	16	15
152	152	24
194	194	28
25	25	18
46	46	20
63	64	15
133	148	3
188	188	23
27	27	27
173	175	8
166	167	7
170	170	22
158	158	22
33	89	2
15	16	2
119	119	10
173	173	14
146	161	4
108	109	2
105	113	9
176	177	11
67	68	3
185	185	35
123	125	5
73	80	3
14	14	17
94	94	7
178	179	6
190	190	34
76	123	1
184	184	22
42	42	21
25	39	1
94	95	11
189	189	25
114	114	13
52	52	21
12	12	25
145	145	16
134	178	4
158	186	1
31	31	16
1	2	4
162	163	8
107	107	14
155	155	30
81	81	14
191	191	28
17	17	17
11	11	11
121	121	15
171	171	36
190	194	2
116	183	5
116	117	15
101	101	24
34	34	13
108	108	20
149	195	3
196	196	45
101	102	4
108	186	4
172	172	28
10	10	35
156	156	22
171	174	3
22	59	2
130	130	15
87	88	9
169	188	1
62	63	6
13	13	23
167	167	20
197	197	17
162	162	25
83	84	5
133	133	19
181	182	3
135	135	16
72	72	5
166	172	1
9	10	4
39	39	15
113	113	22
148	148	19
36	36	11
151	151	38
133	134	6
150	163	4
143	143	15
69	69	17
9	9	28
184	194	3
57	57	20
31	32	9
1	1	11
163	163	11
0	20	4
22	22	14
123	123	7
169	169	23
20	22	2
180	180	17
168	168	21
186	186	22
116	116	17
170	189	3
138	139	2
107	186	2
136	140	1
160	160	10
150	150	22
6	6	10
2	2	12
67	85	2
146	147	19
55	58	1
175	176	4
136	136	17
32	133	5
138	138	11
47	47	17
81	82	2
37	37	19
106	107	4
0	9	4
6	7	1
111	117	2
30	53	1
129	153	2
183	183	24
187	187	17
157	157	10
126	126	19
147	170	1
15	15	23
24	24	18
182	182	9
48	48	21
70	71	3
127	127	12
171	195	3
99	111	2
99	99	20
141	144	2
18	18	23
142	142	21
181	191	3
65	65	13
156	178	2
78	78	12
132	182	2
36	135	3
70	70	14
172	195	2
189	190	3
159	185	3
159	159	22
127	138	1
54	54	19
140	140	17
142	143	7
139	140	7
16	17	6
149	149	14
118	130	1
5	79	2
153	153	12
0	14	3
193	193	15
52	53	8
153	154	6
68	69	2
124	124	17
34	35	12
113	144	6
119	160	3
113	119	5
116	182	1
104	114	5
21	21	18
74	75	5
131	131	10
95	95	12
112	112	8
193	194	4
86	88	1
195	196	5
196	197	5
146	146	8
59	59	8
122	142	3
48	49	7
117	119	2
147	147	8
124	125	7
166	166	28
132	132	6
82	82	13
163	164	9
156	160	2
8	8	13
178	192	4
144	144	3
58	58	25
154	154	12
102	102	10
129	129	17
122	144	2
21	22	2
87	87	7
51	58	3
123	126	2
58	112	5
128	128	14
106	109	2
20	133	2
178	189	1
118	120	2
44	58	4
24	187	2
64	66	5
89	89	11
137	137	7
29	30	7
53	53	31
41	41	14
117	117	9
38	38	19
77	77	1
35	64	2
23	23	12
144	145	3
109	109	4
64	64	17
9	57	4
49	50	2
179	179	6
23	72	1
51	51	6
35	35	7
177	178	2
2	4	4
10	53	8
154	155	10
7	8	12
86	97	4
156	167	2
60	61	4
54	178	1
55	56	1
43	67	2
83	83	3
4	4	17
11	16	1
158	161	4
134	139	1
159	184	3
187	196	3
105	105	14
179	193	2
174	174	13
7	9	1
161	164	9
115	115	16
179	180	16
114	140	3
131	181	1
165	165	20
195	195	15
110	163	5
110	111	4
134	134	18
176	176	9
127	128	6
0	0	5
53	84	2
164	164	10
20	21	14
165	166	3
37	38	2
155	183	3
183	190	3
27	38	4
97	98	5
0	17	2
181	181	17
26	69	5
185	186	9
2	59	2
132	133	10
76	76	8
65	121	3
141	141	15
120	133	5
3	3	6
88	88	6
114	115	4
27	28	5
57	78	2
159	160	3
47	99	2
59	65	3
45	45	20
149	151	2
104	104	11
174	175	3
1	3	4
54	55	4
125	125	8
12	46	2
130	131	1
158	164	2
5	5	10
84	84	18
169	185	1
7	7	6
188	189	7
71	72	6
120	120	8
135	153	1
70	79	1
78	82	2
77	78	7
45	151	2
139	170	2
146	148	1
118	118	4
23	41	6
180	185	3
26	26	14
165	183	1
107	110	2
168	197	2
28	28	16
158	162	1
160	168	1
21	26	1
96	97	4
112	167	2
15	17	3
103	104	8
30	30	12
106	106	10
1	4	3
163	167	4
103	186	2
9	18	1
55	61	7
123	124	10
98	98	5
80	89	2
176	185	2
172	173	8
136	137	1
76	88	2
11	31	3
171	172	9
63	63	7
33	33	8
178	178	18
160	183	2
161	161	7
52	57	1
104	147	3
97	97	4
29	138	6
168	176	2
68	68	11
55	55	30
175	175	11
191	193	2
32	32	13
62	65	1
153	190	3
34	55	2
153	176	3
170	195	3
164	165	9
61	64	4
3	4	3
41	42	4
138	166	4
135	136	6
120	123	1
2	63	3
137	138	3
149	150	8
51	52	6
153	191	3
10	11	3
140	142	4
79	80	8
191	192	2
100	100	9
69	81	1
177	177	16
49	49	15
23	42	1
39	50	4
113	132	4
175	178	3
162	168	3
28	29	3
112	113	2
122	122	5
85	85	3
22	120	1
80	90	2
168	169	4
39	40	11
140	147	1
58	61	1
170	171	10
117	118	11
122	123	3
63	140	5
132	178	1
105	128	1
148	151	3
65	66	2
73	74	6
50	50	15
8	16	2
143	145	7
119	143	1
20	41	1
194	195	3
158	159	12
45	46	10
154	157	1
93	93	7
125	168	1
173	174	6
192	197	2
24	29	3
77	82	6
162	164	3
47	48	1
103	103	8
124	146	4
133	136	4
42	44	2
137	139	7
172	174	3
163	165	2
103	105	1
133	135	2
146	193	3
44	44	7
22	23	3
189	193	5
186	189	7
66	130	3
0	18	1
179	182	4
192	193	5
3	7	2
33	34	3
156	171	1
156	175	1
10	140	2
8	39	2
123	141	11
43	69	2
20	20	7
19	19	5
31	105	2
15	23	4
183	195	4
107	108	5
137	140	3
144	166	1
137	155	2
113	134	2
68	74	2
105	106	17
54	66	1
31	56	1
13	14	3
40	40	8
3	27	2
116	188	1
95	96	1
146	167	1
144	163	1
147	148	5
18	20	1
19	21	5
71	71	5
10	134	1
101	106	1
104	105	8
145	146	3
117	140	4
143	180	6
141	184	1
150	196	3
50	51	10
44	45	6
184	187	1
26	126	2
8	17	3
86	86	5
34	40	2
64	68	2
171	194	2
100	101	7
129	152	1
157	158	2
29	29	12
29	32	2
142	150	2
39	42	5
31	58	2
13	25	4
139	139	4
26	27	5
90	90	6
29	77	3
32	33	1
169	170	3
138	140	3
160	161	4
152	153	4
30	32	2
154	173	5
172	182	1
139	142	3
32	52	3
72	73	2
42	69	2
0	4	1
106	197	3
71	87	2
151	152	8
111	112	5
33	38	3
66	121	3
177	179	4
5	102	3
46	49	1
170	184	3
43	55	4
42	46	1
119	120	3
110	110	3
48	50	2
96	96	3
81	148	5
124	151	3
1	19	2
113	122	2
181	193	2
26	28	2
40	42	3
51	53	4
27	32	2
109	110	4
14	15	2
9	11	4
107	123	1
15	44	1
164	166	4
53	187	3
56	56	12
155	156	3
58	59	3
65	74	1
2	18	4
51	79	1
155	172	1
129	132	2
4	37	1
66	66	2
80	80	4
60	60	8
134	142	1
12	13	2
73	73	2
15	52	1
102	181	1
134	138	2
97	99	1
111	111	11
11	13	1
35	88	3
23	73	3
1	52	1
42	47	4
147	160	4
29	50	3
143	144	7
61	61	7
67	67	7
183	184	5
93	94	2
75	75	1
58	62	1
4	5	2
115	148	5
122	186	3
115	136	1
2	20	1
174	176	1
3	20	3
142	169	2
2	8	3
43	43	9
118	139	5
43	44	1
74	74	3
130	150	1
78	89	2
45	55	3
186	187	5
123	138	1
96	103	2
38	40	3
187	188	9
121	125	3
161	163	1
184	188	2
85	87	3
39	84	2
133	138	1
126	127	1
30	31	6
18	21	2
38	55	1
82	85	1
25	26	5
99	141	1
6	119	1
124	160	2
78	81	2
82	90	3
5	17	1
52	124	2
150	185	4
5	8	2
0	43	1
95	117	1
3	119	1
194	197	1
54	56	2
8	37	2
172	176	3
175	177	2
53	151	3
76	100	1
130	140	3
7	19	1
62	62	3
113	133	2
178	180	2
3	120	1
1	55	2
35	36	3
182	194	1
134	135	5
103	106	2
97	100	2
170	174	3
9	56	4
118	192	1
39	41	2
25	69	2
127	141	3
135	138	1
148	150	2
0	63	1
38	39	2
95	99	3
53	104	1
121	142	1
28	79	2
106	113	1
0	1	1
113	120	2
117	135	2
98	99	1
173	191	1
118	123	3
157	159	1
123	147	2
59	61	1
63	66	1
141	142	1
189	192	3
13	69	2
118	154	2
0	2	2
36	50	1
167	168	1
166	168	2
140	144	2
66	72	1
17	54	1
27	50	1
40	41	1
186	193	2
120	121	3
39	44	1
65	71	3
18	59	2
114	119	1
167	169	1
172	179	1
135	178	2
68	83	1
69	78	3
11	48	1
17	133	1
167	178	2
121	122	1
117	127	1
59	68	2
24	40	1
7	159	2
43	49	2
133	142	5
157	160	2
80	86	3
15	45	3
26	36	2
167	170	1
77	139	1
86	90	1
69	70	1
93	95	2
37	55	3
29	64	5
34	38	1
113	189	2
116	118	1
30	66	1
22	42	1
50	60	1
133	173	2
85	86	2
16	24	1
129	150	1
79	79	3
51	56	1
0	40	1
110	134	3
148	179	1
96	102	2
28	30	2
180	181	1
134	149	1
131	133	1
121	139	2
61	68	2
185	194	1
112	114	1
138	141	2
83	90	2
56	95	1
61	67	2
130	134	3
150	151	1
158	181	2
136	157	2
171	190	3
5	6	3
108	115	2
188	197	4
129	149	1
42	83	1
115	116	1
23	56	1
111	125	1
39	43	1
182	183	1
169	171	1
108	135	2
110	189	1
182	190	1
56	65	1
131	132	4
123	128	1
76	77	3
35	49	1
168	172	4
190	191	2
20	67	1
167	183	2
32	72	1
118	125	1
38	47	3
112	173	1
3	56	2
170	187	1
11	12	2
82	84	1
42	45	1
137	156	1
10	12	1
17	41	1
84	85	1
6	121	1
19	20	1
1	56	1
155	157	2
31	89	1
170	173	1
6	120	1
161	162	1
177	192	1
21	28	1
101	103	1
61	62	1
142	149	1
11	15	1
154	158	1
9	37	1
124	147	1
182	191	1
125	150	1
