94	94	4
12	12	5
113	113	13
105	105	13
10	11	9
134	134	8
82	86	7
132	132	8
26	118	2
116	116	9
1	2	6
104	105	3
129	129	12
27	27	3
30	30	7
86	86	8
11	72	3
64	64	17
61	63	4
9	9	5
101	126	3
60	60	3
120	129	9
37	37	4
84	85	5
72	72	7
101	101	2
9	45	2
17	27	1
42	42	3
74	74	8
27	92	1
107	109	2
96	96	14
87	97	1
44	88	2
43	43	10
58	58	9
12	93	3
91	92	1
106	106	14
87	87	7
130	131	7
82	91	2
63	63	8
24	26	8
69	69	8
98	106	6
17	92	1
96	97	2
66	111	2
8	47	3
86	87	2
65	77	1
44	44	4
97	97	11
19	19	4
95	96	5
124	126	2
22	22	8
56	56	5
15	15	9
66	66	8
71	71	9
50	55	2
126	126	9
68	68	6
21	84	5
88	88	3
117	117	6
57	57	11
68	83	6
106	107	1
109	109	13
110	130	4
34	34	9
19	22	2
125	125	14
90	91	2
13	13	6
92	92	11
77	97	2
44	60	1
3	4	7
127	127	4
35	35	5
110	110	6
89	89	7
124	128	4
76	76	17
33	33	9
20	67	1
31	32	2
62	62	5
70	94	4
102	102	6
101	133	4
125	134	2
113	114	4
59	59	6
53	53	13
61	61	14
118	118	11
8	8	13
128	129	3
79	79	9
68	69	11
97	104	2
72	73	4
21	26	2
23	24	4
88	91	3
114	114	4
3	56	2
101	125	3
4	4	10
3	55	1
66	67	5
80	80	5
33	113	3
131	131	10
23	23	7
124	124	4
65	76	2
5	27	5
47	61	3
75	75	14
19	20	3
21	23	1
91	91	12
49	49	13
108	131	3
108	111	5
129	132	2
14	14	4
38	39	3
100	125	2
78	78	5
59	86	3
98	98	5
30	101	1
119	119	8
62	64	4
10	83	1
58	78	6
129	131	6
5	63	3
109	110	10
122	123	2
24	24	7
11	12	1
79	80	1
64	68	1
6	9	2
112	114	1
49	55	2
70	80	2
133	133	6
30	128	2
127	128	11
6	6	9
9	72	4
118	127	1
99	99	3
122	122	4
44	85	3
109	118	2
1	1	5
49	50	1
20	23	7
28	104	2
89	90	2
7	7	5
95	95	20
130	130	4
70	71	2
117	118	3
31	31	5
17	72	2
112	112	6
70	70	6
52	52	4
15	25	4
44	47	3
77	77	3
107	108	1
34	132	2
76	77	4
10	97	2
20	130	1
101	102	1
58	59	2
49	57	1
87	88	4
107	116	2
129	130	1
82	83	5
123	123	1
26	35	5
7	8	1
28	34	2
121	121	6
79	94	1
44	45	3
83	83	3
16	36	1
25	26	1
93	93	8
10	73	2
52	53	3
79	105	2
36	37	2
74	75	3
108	108	8
90	90	7
63	64	2
77	78	6
108	110	2
88	95	1
20	20	2
112	116	2
11	11	11
12	13	1
21	21	2
17	25	1
104	104	6
80	81	3
73	73	4
121	126	2
85	85	12
72	98	3
72	78	2
1	56	1
13	28	2
77	96	1
58	79	2
29	29	8
82	87	4
57	59	1
65	85	5
10	45	3
20	22	3
120	120	3
67	101	1
20	36	2
62	63	3
55	56	1
6	8	5
70	116	1
103	103	8
54	92	3
52	62	1
87	107	3
34	128	1
88	92	6
102	127	3
5	5	7
119	130	2
54	68	2
68	78	2
98	103	1
23	25	2
33	75	1
100	101	3
83	84	1
3	3	2
50	52	2
94	98	1
86	96	2
97	98	2
18	18	2
91	93	2
45	50	1
45	66	2
10	36	1
53	60	5
8	9	1
83	110	5
18	44	2
116	130	1
3	99	1
111	120	4
60	69	3
6	7	2
86	88	1
17	75	1
22	23	1
10	10	4
82	110	3
106	108	1
20	108	2
60	65	1
115	115	2
16	113	3
60	61	6
51	55	1
2	2	2
36	36	3
17	17	3
124	129	1
28	28	2
0	0	3
81	102	2
108	112	1
111	112	1
10	65	1
108	118	1
111	111	4
48	48	2
19	58	5
108	109	1
84	98	3
65	68	1
16	16	4
54	54	5
18	107	1
117	133	4
65	65	4
5	119	1
21	22	1
1	3	1
116	131	1
128	128	4
79	99	3
55	58	1
20	25	1
80	105	1
111	121	1
115	133	2
114	120	1
81	94	1
84	92	1
107	107	3
82	82	5
81	99	1
23	113	1
19	21	1
26	26	2
16	18	2
87	91	1
85	98	1
57	77	1
14	15	1
64	86	3
50	50	2
25	113	1
73	76	3
112	113	2
119	120	1
102	103	1
18	108	2
38	38	4
26	64	1
78	94	1
107	110	2
100	100	4
4	28	2
73	94	3
25	25	3
96	98	1
50	51	1
86	92	2
106	110	1
71	124	1
69	116	2
57	76	1
29	30	2
35	38	2
20	26	4
84	84	3
27	32	2
79	103	1
128	131	1
27	34	2
79	124	1
60	64	1
6	12	1
64	66	1
82	108	2
19	54	1
82	92	1
26	27	1
54	55	1
86	135	1
84	87	1
18	72	1
134	135	1
100	114	1
45	49	1
96	101	1
92	104	1
22	25	1
105	120	1
32	32	1
55	55	1
26	65	1
25	112	2
9	42	1
33	35	1
110	117	1
67	67	2
73	82	1
3	5	1
53	61	1
65	82	1
38	44	1
109	122	2
82	98	1
23	26	3
15	23	3
115	116	1
121	129	1
80	94	1
44	56	1
88	89	1
45	45	1
110	111	1
83	87	1
59	65	1
95	98	1
