67	68	5
23	23	17
139	139	8
23	80	1
8	8	13
18	40	4
55	56	5
134	134	9
18	18	13
109	109	16
117	118	11
135	135	18
145	145	11
110	111	18
93	94	1
97	150	4
56	56	4
48	48	18
69	69	25
6	6	16
64	64	13
13	21	1
117	117	9
102	102	5
48	49	2
127	127	11
27	27	22
64	87	6
82	82	6
66	66	4
18	19	19
32	50	6
107	107	12
32	33	7
54	57	4
42	69	1
32	32	15
137	137	13
3	4	3
137	138	5
128	129	3
132	139	4
104	104	14
151	151	4
16	84	1
28	29	9
123	123	10
70	70	12
100	100	10
22	32	2
19	19	16
35	36	12
152	152	13
11	11	7
83	83	6
40	41	12
47	47	16
93	93	7
12	13	2
53	53	22
38	47	7
85	86	5
80	80	10
27	68	1
16	16	12
39	40	5
17	18	11
28	28	5
113	114	2
108	108	12
35	35	8
73	74	2
68	69	13
108	116	3
41	48	3
63	63	10
44	45	5
33	33	23
98	99	10
36	37	6
53	54	6
103	104	3
46	46	7
84	147	3
69	89	1
84	84	5
36	36	7
67	67	19
115	115	12
12	12	12
106	106	9
37	37	19
8	78	4
22	22	10
17	17	33
5	6	3
133	133	16
51	51	5
74	74	4
28	63	6
29	68	3
26	29	3
65	69	3
148	148	5
7	7	13
111	111	7
55	55	8
110	110	14
112	112	13
10	10	8
68	68	8
118	119	1
9	9	17
62	62	11
63	84	2
141	142	4
24	31	2
49	49	11
13	13	18
27	49	2
7	8	5
129	129	10
21	22	8
34	34	12
103	120	2
94	94	3
29	29	6
22	23	6
14	14	8
50	50	5
103	103	6
98	98	3
31	31	29
122	122	13
30	30	15
4	4	8
56	57	12
131	131	2
30	68	8
4	5	6
69	70	2
15	16	7
147	148	8
38	38	8
64	65	9
30	31	6
36	57	2
79	79	2
114	115	5
65	66	2
80	81	8
153	154	3
67	69	6
144	144	4
138	138	4
26	26	2
22	49	1
83	84	1
19	41	1
11	13	5
127	128	4
57	58	4
9	10	5
78	78	10
8	9	8
78	79	4
43	43	6
118	118	16
63	64	2
128	139	1
40	40	10
65	150	6
86	105	3
65	67	1
118	129	2
107	108	3
95	106	1
33	34	4
37	50	1
25	31	3
66	67	3
57	57	7
131	132	2
88	88	6
144	145	4
85	85	11
114	114	5
80	84	3
56	58	4
116	116	22
44	44	8
96	97	7
17	36	1
150	150	7
42	42	10
150	151	9
104	105	1
10	13	9
18	38	3
77	80	1
46	47	6
2	6	1
16	22	6
5	5	12
63	85	5
97	98	2
83	143	1
25	25	9
39	48	7
146	146	6
117	129	1
34	35	7
138	139	2
84	85	6
72	72	6
98	121	3
77	77	7
39	69	2
7	9	2
50	51	5
25	26	5
86	86	5
81	81	2
47	48	1
111	112	1
95	96	5
131	133	5
101	102	3
140	140	3
104	111	1
90	90	2
120	120	1
147	147	4
107	117	2
95	97	8
75	80	1
153	153	6
5	8	1
41	41	18
71	71	18
76	77	2
103	122	5
20	22	3
41	47	1
113	113	9
14	15	9
39	39	10
65	65	8
123	125	4
27	28	3
64	66	7
2	2	1
110	114	2
94	109	2
65	92	1
109	110	4
102	119	2
126	127	3
108	109	5
16	17	6
121	121	1
145	147	1
12	24	1
72	75	2
45	45	8
39	41	9
20	20	10
12	105	1
58	65	1
23	35	1
5	53	2
69	80	3
27	52	1
131	134	2
97	102	2
128	128	1
90	100	2
34	53	4
37	63	2
38	39	10
41	46	1
99	103	1
103	115	3
136	137	4
24	24	10
107	116	3
12	25	1
122	123	7
89	90	2
119	146	4
66	68	7
23	36	2
28	30	3
43	45	2
84	87	1
9	17	2
95	95	2
62	64	1
6	8	1
106	131	1
64	76	1
41	45	1
112	113	2
110	112	1
107	130	6
70	96	2
86	148	2
17	20	2
18	69	1
133	134	4
96	96	5
8	71	3
97	97	3
79	132	5
123	124	3
61	62	1
77	78	2
77	81	1
94	99	1
27	29	4
15	15	7
125	125	3
130	130	4
18	37	2
21	34	4
135	137	2
124	125	5
130	141	1
19	20	6
146	147	1
119	124	5
31	32	2
58	58	3
144	146	2
25	29	1
39	53	1
38	53	1
113	115	2
32	34	1
6	7	4
63	83	2
148	149	3
87	88	2
55	57	1
73	73	5
31	52	2
54	55	4
142	143	4
16	33	1
52	52	3
43	46	1
87	87	3
13	25	1
29	52	1
140	141	1
75	76	1
23	25	3
149	149	2
9	22	1
19	23	1
48	67	1
141	141	4
76	76	3
103	105	1
24	34	2
95	101	1
17	19	6
36	50	2
10	11	2
42	43	1
31	34	1
106	135	2
64	79	1
132	132	6
94	95	2
80	82	3
132	133	1
77	107	2
109	117	1
21	49	3
99	99	3
152	153	3
21	35	2
86	87	3
92	122	1
103	119	1
142	142	1
78	80	3
101	101	1
124	127	1
73	76	1
31	54	2
125	126	1
41	42	2
23	77	3
69	71	1
73	78	1
3	3	2
54	54	2
30	64	1
18	20	2
20	73	1
81	82	3
13	14	2
23	24	1
17	37	1
26	27	3
3	13	3
125	127	2
133	135	1
68	74	1
102	123	1
136	138	3
24	49	2
123	126	1
16	19	1
129	142	2
100	101	1
41	49	1
21	50	1
21	21	4
120	121	6
31	33	3
79	80	2
82	84	1
24	32	2
124	124	1
37	38	1
61	61	1
76	83	1
86	88	4
48	81	1
119	145	1
106	109	1
120	123	2
124	128	2
129	130	1
11	12	2
91	100	1
28	51	2
106	108	1
116	117	10
130	135	2
26	68	1
119	122	1
53	55	1
102	120	1
135	136	2
124	126	1
48	68	2
93	99	3
73	75	1
85	92	1
119	147	1
119	119	3
115	120	1
85	105	1
40	42	1
99	114	2
3	5	1
119	120	1
72	149	1
26	31	2
94	98	1
95	102	2
106	107	1
19	40	2
43	44	1
6	9	2
4	6	1
49	50	1
7	17	1
20	23	1
5	33	1
75	75	1
154	154	1
34	58	1
99	100	1
102	103	1
26	50	1
72	98	1
26	30	1
27	31	1
