59	61	3
135	135	5
31	31	4
18	18	6
67	67	3
122	122	4
124	125	2
0	4	3
37	37	1
134	134	3
13	14	2
76	76	8
132	132	3
103	107	1
3	5	7
118	119	2
108	136	1
5	26	2
14	19	4
125	125	2
26	26	1
70	127	1
48	48	3
42	42	5
62	62	1
26	109	2
0	0	2
142	142	9
141	141	5
47	47	2
139	140	1
78	78	6
83	83	7
19	19	5
113	113	1
80	80	2
103	120	2
119	119	11
117	117	4
115	115	1
133	140	3
4	5	1
63	63	7
61	61	6
59	126	1
29	89	2
120	120	4
20	20	4
27	28	2
130	130	4
82	134	1
121	121	5
126	127	3
74	127	2
92	92	6
125	127	4
28	28	6
114	115	1
73	73	6
34	34	4
39	40	2
116	117	1
135	138	3
130	136	1
77	78	4
39	41	2
89	90	3
100	100	9
136	136	3
59	72	3
128	128	3
74	74	3
92	94	3
25	26	2
114	114	1
135	137	4
95	95	5
34	54	5
68	97	3
4	4	6
136	139	1
87	87	2
100	102	1
55	60	2
16	18	3
42	43	2
144	144	3
57	57	5
123	123	6
33	33	5
131	141	3
54	59	1
8	9	5
127	127	5
129	129	6
92	134	1
134	135	1
143	143	5
124	124	2
96	98	1
49	49	2
57	58	1
1	1	2
61	62	2
33	34	2
133	133	8
64	87	3
68	70	2
110	110	1
27	27	2
39	39	1
112	116	1
100	101	3
48	50	1
25	37	1
77	79	3
32	32	2
80	119	1
132	138	2
72	72	2
73	74	1
38	38	3
63	67	3
2	4	4
136	137	1
16	104	1
64	66	5
6	11	1
91	91	1
122	137	1
30	41	2
126	137	1
21	21	2
99	99	2
113	115	2
88	88	2
6	6	1
96	99	2
55	56	3
66	67	1
84	84	1
35	36	1
52	52	5
77	77	4
82	82	1
109	129	1
62	67	2
116	139	1
68	68	2
85	85	2
101	101	1
32	33	1
48	49	2
80	128	3
75	126	1
41	42	1
83	85	1
75	108	1
0	27	1
103	103	2
130	133	1
24	30	1
135	139	1
128	132	2
140	140	2
89	89	2
76	116	2
141	142	1
86	87	2
58	63	2
90	91	1
57	125	1
106	108	1
16	16	1
27	48	1
15	93	1
13	13	2
36	36	1
36	94	2
125	133	1
107	136	1
53	54	2
96	96	1
139	139	2
80	120	1
75	89	1
112	112	1
94	94	1
3	4	1
40	64	1
127	129	2
98	98	1
51	51	1
127	130	1
10	10	2
131	131	1
128	130	1
