30	30	9
96	100	4
4	4	11
86	87	4
13	16	3
106	106	8
26	26	3
73	87	8
35	35	14
116	116	21
134	134	15
35	87	2
80	83	7
135	137	4
136	136	17
134	135	14
76	118	1
15	15	8
89	126	5
93	93	11
90	127	3
85	85	4
117	117	13
71	72	6
23	24	4
76	76	6
10	11	4
126	126	22
17	18	6
84	85	3
74	74	10
127	127	25
88	89	7
34	34	4
133	133	15
31	32	2
99	100	9
115	115	9
72	92	2
138	139	11
30	33	4
27	27	18
93	94	12
112	112	12
124	124	10
104	104	2
73	73	7
133	134	4
138	138	14
124	125	7
24	93	5
81	85	3
76	79	3
125	125	9
123	124	5
111	111	7
110	110	16
132	132	8
91	95	3
98	98	22
99	99	7
31	31	6
135	135	7
89	102	2
92	92	3
109	112	1
7	7	15
38	38	10
122	122	18
139	139	8
120	121	3
131	131	20
127	134	4
22	27	2
19	19	11
10	12	4
28	28	9
9	11	8
107	107	5
20	20	19
36	37	1
0	0	10
130	130	35
118	118	17
25	25	14
89	89	12
109	109	10
123	123	25
91	91	12
8	8	5
102	102	16
21	22	6
80	86	1
101	101	14
35	36	8
129	134	3
33	33	16
89	125	3
89	90	14
140	140	18
7	16	3
132	136	4
92	134	3
113	114	2
113	113	3
22	26	1
16	16	7
129	129	15
96	96	13
14	15	6
2	2	10
18	18	9
18	19	4
95	95	13
104	121	4
112	113	10
4	5	1
15	17	3
75	75	8
7	12	1
37	37	11
112	128	2
8	11	3
29	30	5
86	86	5
71	71	7
78	81	2
119	121	5
12	14	6
23	23	9
97	125	4
87	88	1
22	25	2
88	88	7
92	93	3
82	83	4
120	120	5
136	138	2
82	82	6
103	103	6
87	87	7
100	101	2
100	100	4
21	21	10
119	122	3
34	35	6
76	78	1
21	23	6
30	31	5
108	109	3
74	75	10
93	99	1
112	127	1
117	118	7
94	122	1
73	74	3
24	24	3
7	8	5
77	77	3
37	38	1
22	23	4
132	133	2
109	115	3
25	26	5
136	139	2
118	119	7
79	80	1
7	9	1
14	26	1
122	124	1
81	81	4
74	128	1
136	137	5
27	30	3
112	115	2
126	140	2
125	129	1
128	130	1
97	97	8
21	29	1
139	140	2
72	72	4
108	111	1
71	100	2
74	85	2
98	99	3
17	17	14
73	128	2
19	20	5
25	27	1
15	16	5
75	125	1
22	29	5
8	14	1
128	128	10
104	120	1
121	121	7
105	106	2
8	9	5
95	140	1
14	14	3
29	37	3
72	86	1
131	132	2
78	80	3
36	36	6
9	13	3
80	80	2
96	125	1
120	123	1
34	36	1
10	10	3
3	10	3
12	13	3
135	136	2
126	128	4
73	88	2
108	108	3
78	78	1
13	13	3
22	22	10
128	129	5
114	114	5
90	90	3
135	140	3
22	24	1
96	97	2
2	5	2
106	107	3
5	5	4
74	125	2
114	115	8
72	89	1
26	32	2
111	114	5
72	87	3
90	126	2
126	129	2
8	13	2
5	7	2
94	94	4
5	6	6
104	123	3
112	129	2
129	130	3
73	113	4
119	119	5
135	138	2
6	6	6
32	32	2
27	28	1
102	103	5
3	4	3
3	26	1
125	127	6
115	116	2
4	7	2
84	84	3
121	124	1
107	110	2
13	14	2
27	29	2
75	76	4
97	126	2
18	93	2
108	122	1
97	100	1
104	122	1
87	92	3
6	32	1
101	102	5
81	84	3
75	81	2
2	3	1
129	136	1
126	127	2
114	117	1
94	140	1
138	140	2
91	101	2
9	9	2
76	119	4
6	7	1
89	127	3
85	86	2
1	1	1
3	3	1
33	34	1
33	74	2
105	121	1
74	119	2
129	135	1
93	96	1
10	23	1
11	12	1
32	35	1
82	105	1
3	14	1
83	83	1
28	29	1
82	84	1
90	102	1
20	21	2
22	28	2
86	99	1
108	110	1
90	91	2
127	128	1
125	140	1
5	25	1
110	115	2
110	111	1
137	138	2
106	120	1
1	4	2
104	105	1
103	104	3
31	36	1
27	32	1
8	12	1
115	118	2
134	137	1
121	122	1
106	119	1
26	27	1
28	82	1
