7	7	14
28	28	2
78	78	12
87	87	3
102	102	14
16	16	16
71	71	8
18	22	1
99	140	1
137	137	10
15	16	4
111	111	14
72	72	12
6	6	13
138	138	14
99	125	2
86	86	10
136	136	17
103	104	3
132	132	16
130	130	14
73	74	3
92	92	3
117	117	10
131	132	4
113	113	10
103	103	11
71	72	7
4	5	3
133	134	4
31	31	7
33	33	5
116	116	21
135	135	8
131	131	42
134	134	29
90	90	8
105	105	2
107	107	5
80	81	4
24	24	5
125	125	8
134	135	9
98	99	1
23	24	14
114	114	17
97	112	3
124	124	18
121	121	6
73	73	17
22	23	2
110	111	8
15	15	3
12	12	9
18	28	2
91	91	4
93	93	12
109	109	12
101	101	6
75	75	13
36	36	10
139	139	6
29	29	1
18	18	6
131	139	2
127	140	1
118	118	6
78	79	7
108	109	3
13	13	7
14	15	6
79	90	3
127	127	10
114	115	2
123	123	15
86	117	2
94	94	5
123	124	9
138	140	2
3	3	5
101	102	4
135	140	3
95	95	7
9	9	3
12	123	1
16	17	6
78	90	6
129	138	2
79	79	4
76	76	3
137	138	9
88	88	10
20	20	8
26	26	4
19	27	1
98	98	8
116	117	4
96	96	6
82	83	2
21	26	1
8	9	3
97	97	16
19	19	8
112	113	9
115	117	5
86	91	4
85	85	9
116	119	4
135	136	11
7	11	5
22	22	3
82	82	1
101	123	1
122	122	7
89	115	1
79	80	4
21	21	3
94	104	6
77	77	3
22	113	1
100	100	1
133	133	11
111	112	2
17	18	1
84	84	5
5	20	1
1	1	2
12	15	2
137	139	2
32	32	1
81	82	3
129	129	10
77	86	1
113	118	3
128	140	3
120	120	1
112	112	9
37	38	2
90	92	3
126	126	13
94	95	3
99	99	9
6	7	3
126	140	3
119	119	7
28	32	1
138	139	1
81	91	1
20	21	3
140	140	13
89	90	4
38	38	1
31	32	2
128	129	6
84	85	3
5	5	4
128	128	10
136	137	4
34	34	5
105	107	1
124	125	2
132	133	3
125	126	2
28	29	2
121	123	3
29	32	4
103	107	3
10	10	2
90	95	1
116	118	2
109	122	1
25	26	1
5	6	3
93	94	2
127	129	4
7	8	3
73	75	1
131	133	1
108	108	5
104	106	2
4	4	2
101	103	1
3	4	4
27	29	2
17	17	2
139	140	5
21	23	4
102	112	1
8	13	4
88	89	1
115	116	2
115	115	1
121	122	2
5	7	1
81	81	5
26	97	3
2	2	2
104	109	4
85	89	2
74	74	4
19	30	4
119	123	1
110	110	5
19	28	2
100	101	1
106	106	3
126	127	2
130	139	1
18	19	1
71	89	2
89	114	1
35	35	1
84	88	2
95	101	2
102	122	5
87	88	1
11	14	3
10	11	1
19	20	1
12	88	1
102	103	1
107	109	2
97	98	2
104	104	5
0	0	1
115	130	1
27	27	3
120	122	1
92	93	1
5	81	2
104	105	1
119	120	1
86	87	2
20	128	2
130	137	2
133	139	1
99	111	2
129	140	2
122	123	2
28	34	1
8	97	1
11	12	1
110	131	1
84	101	1
105	106	1
89	113	1
125	136	1
103	106	1
114	116	1
36	37	1
127	128	1
109	110	1
14	87	1
83	104	1
118	119	1
17	19	1
