98	98	20
45	45	6
94	95	11
39	39	8
126	127	7
23	24	10
67	69	2
77	77	33
114	114	14
54	55	5
146	146	6
8	9	13
63	63	2
51	54	1
148	149	2
83	95	1
156	156	23
9	9	10
106	107	4
37	37	8
1	4	4
26	27	6
128	129	8
65	65	7
9	135	1
113	114	3
150	150	11
91	91	3
95	95	11
28	28	15
129	129	15
32	32	12
140	140	17
104	105	4
66	66	11
43	43	15
14	15	10
144	154	1
151	151	7
94	94	2
23	116	2
52	52	7
101	101	31
148	148	19
37	46	6
73	73	36
135	136	7
79	79	7
134	134	25
49	49	8
139	139	23
130	132	1
64	69	3
159	159	4
129	130	8
141	141	5
116	116	17
84	85	7
67	67	5
144	144	5
123	123	15
7	7	17
42	42	12
149	149	8
71	71	5
77	78	6
15	15	20
35	35	10
78	78	10
55	55	10
1	1	23
137	137	7
25	28	4
90	90	9
69	70	1
23	73	5
26	26	8
97	143	3
31	31	10
29	29	4
146	148	1
107	111	4
13	14	4
16	22	2
2	4	4
85	85	8
83	83	13
3	3	13
117	122	4
27	30	2
30	37	2
17	17	16
152	152	13
107	116	2
41	41	6
42	43	6
68	69	5
113	113	9
132	133	7
76	76	9
86	86	18
48	48	8
95	96	7
18	18	5
29	30	3
40	54	3
124	126	2
36	36	10
138	140	2
57	57	2
78	79	3
87	91	3
1	139	1
136	136	4
11	12	8
56	56	2
0	0	7
130	130	20
84	84	7
118	118	12
23	23	11
114	115	8
10	88	3
142	144	1
44	44	11
129	158	2
11	11	7
31	32	4
99	99	18
68	68	4
88	89	3
25	25	6
19	20	6
158	158	21
79	83	2
16	29	4
2	2	10
70	71	5
40	40	5
138	138	10
122	122	10
115	115	5
96	106	3
50	51	10
111	112	12
133	133	2
95	123	4
24	24	21
27	27	14
79	80	7
92	92	18
20	20	10
55	56	5
110	110	11
2	3	7
135	137	6
107	107	5
100	148	2
34	34	9
66	131	2
106	146	2
86	87	7
80	80	7
105	105	8
127	127	12
47	49	5
104	104	7
88	88	6
135	135	7
147	147	8
125	127	2
107	119	1
69	69	14
71	97	7
128	128	5
145	145	9
144	151	1
93	93	8
157	158	14
26	30	2
62	63	6
23	25	9
61	69	2
117	118	8
106	118	2
155	156	2
98	100	2
97	107	4
51	51	2
53	53	11
100	100	6
39	40	2
31	35	2
112	142	2
22	22	3
153	154	6
33	33	7
96	97	5
89	89	7
19	19	5
12	12	2
97	98	3
131	131	11
136	137	4
81	85	3
134	138	2
10	77	5
3	131	6
46	46	5
14	14	6
108	108	6
124	139	3
87	88	3
16	16	6
24	29	2
77	79	8
115	116	2
17	80	2
96	96	2
149	150	3
31	67	1
21	21	12
107	114	1
48	50	1
99	130	2
5	5	8
81	81	4
31	40	2
141	147	2
92	149	1
44	48	5
118	119	13
90	95	2
87	87	12
90	92	2
156	157	1
142	156	2
45	46	3
98	99	6
102	137	1
72	72	4
8	8	13
146	154	1
126	139	3
125	126	9
50	50	7
132	132	7
97	97	7
13	13	4
56	71	8
65	66	1
17	23	3
117	139	2
27	115	4
8	12	2
130	131	5
38	38	8
22	24	2
3	66	1
107	108	2
147	148	2
32	34	1
120	126	1
124	124	5
62	76	2
33	51	2
63	70	2
83	84	3
103	103	13
137	138	4
76	77	5
110	111	1
118	147	1
143	143	4
111	111	6
119	120	5
104	142	1
1	3	2
97	128	2
30	66	2
153	153	7
30	30	4
1	2	3
145	147	2
36	66	2
1	130	1
125	125	5
140	141	2
2	131	8
43	48	3
120	120	7
7	8	4
15	16	2
99	114	2
152	153	1
26	28	1
104	143	1
103	104	6
120	121	2
51	55	4
67	96	1
157	157	7
33	34	2
48	51	4
124	125	1
82	84	2
139	140	5
74	74	2
56	72	2
4	4	5
70	70	6
30	39	2
109	109	10
47	48	3
14	16	5
105	106	4
47	47	6
2	130	4
121	121	1
8	10	1
69	71	3
39	55	1
118	120	1
67	70	2
6	8	2
54	54	5
46	47	2
69	95	1
112	117	1
103	105	3
6	6	6
72	73	5
82	82	4
81	82	2
40	41	3
87	89	1
8	11	5
122	123	2
94	152	1
3	4	3
45	47	1
11	14	3
28	30	3
112	112	5
79	81	1
11	69	1
142	142	5
24	25	5
31	33	1
31	71	4
135	141	7
53	55	3
4	132	1
85	86	3
155	155	3
67	68	3
21	29	3
68	70	4
80	82	2
30	36	3
151	152	5
122	139	3
64	64	3
22	23	2
75	75	5
66	130	2
119	119	3
93	94	1
123	126	1
145	150	1
130	133	1
95	141	1
119	145	1
76	82	1
0	7	2
112	113	1
126	126	4
152	154	4
144	145	5
30	46	5
48	49	2
27	28	4
121	122	3
51	52	1
88	119	1
144	147	1
41	53	1
116	151	1
8	34	2
117	117	3
90	91	6
109	112	1
138	139	3
7	23	3
13	30	1
75	76	4
5	7	2
28	29	3
113	148	1
23	55	1
18	20	3
151	155	3
21	25	1
46	48	1
10	11	2
113	147	1
39	46	2
109	138	1
145	146	4
51	53	3
77	96	3
25	29	1
113	142	1
61	61	2
100	101	2
76	79	1
144	148	3
109	111	1
5	26	2
38	55	3
131	133	1
10	10	1
64	72	1
112	116	1
91	92	1
52	71	1
34	56	3
144	152	1
108	109	2
0	6	1
146	147	3
102	140	2
15	22	1
62	69	1
102	104	1
66	111	1
75	77	2
18	33	1
94	98	2
121	123	1
52	69	1
97	101	2
36	37	1
121	127	1
53	54	1
154	154	1
116	117	1
40	42	1
99	100	1
26	117	3
111	113	1
25	30	1
15	79	1
94	97	1
9	11	1
88	91	1
32	33	2
13	15	1
30	67	1
20	21	1
120	127	1
37	38	1
34	35	1
52	53	1
94	123	2
111	148	1
9	136	1
10	87	2
16	21	1
16	30	1
5	6	1
118	121	1
62	67	1
92	98	1
12	16	1
104	116	1
20	83	1
123	124	2
42	47	1
11	114	1
80	107	1
88	90	1
129	131	1
95	154	1
66	75	1
80	81	1
106	106	2
38	39	1
92	93	2
67	97	1
92	100	1
141	142	1
106	110	1
30	40	1
0	1	1
9	77	1
4	5	1
111	116	1
83	85	1
30	31	1
66	67	1
123	134	1
