11	12	10
17	18	9
16	151	5
124	124	9
55	55	9
177	187	2
1	1	2
141	143	2
28	30	6
101	103	3
14	14	11
103	103	5
94	95	4
96	96	15
70	71	8
56	57	13
96	97	20
118	118	15
190	190	7
144	145	1
53	55	4
0	27	1
92	93	9
178	183	2
135	137	3
48	48	6
151	160	5
188	190	1
4	6	2
105	105	4
41	44	3
128	129	6
163	165	10
164	165	8
145	145	5
109	129	1
95	96	9
76	77	4
78	81	4
129	129	16
106	106	11
28	28	8
97	97	26
72	72	11
153	154	8
73	74	1
17	17	12
30	32	5
30	31	8
80	112	3
138	138	23
84	94	7
90	109	6
143	144	5
135	168	5
30	33	2
75	76	7
10	11	10
22	23	5
186	187	3
149	149	11
112	128	3
129	130	4
160	160	4
128	128	7
135	136	3
62	63	5
133	133	8
47	48	6
87	88	4
18	20	10
73	73	7
119	119	13
45	45	15
143	170	6
146	148	9
143	143	13
58	60	4
87	87	12
90	90	9
115	115	15
133	136	5
181	181	5
27	29	10
65	68	8
108	145	2
115	116	5
102	103	9
154	155	2
142	143	7
21	21	10
2	8	1
162	163	4
129	139	2
165	165	11
146	147	2
23	23	17
148	163	2
174	190	4
140	144	1
43	44	7
66	77	2
114	114	27
60	148	5
72	74	7
124	125	11
113	113	9
114	117	3
103	104	1
162	162	11
136	136	19
132	142	1
122	123	5
0	0	10
150	150	7
140	140	2
90	91	5
15	15	4
108	108	8
93	93	13
92	94	2
3	24	5
148	160	4
188	188	2
70	70	11
112	112	10
153	153	6
168	168	7
148	148	11
37	37	17
133	143	2
188	189	5
5	5	14
26	33	3
186	186	5
23	31	4
95	116	1
140	141	12
175	187	1
127	127	8
80	80	8
107	107	9
11	11	8
73	112	1
16	18	2
135	135	6
157	157	12
97	98	10
75	115	3
57	72	1
40	41	3
30	30	11
16	16	20
144	144	3
37	38	5
154	154	14
54	55	8
171	172	3
78	78	7
117	117	4
156	156	11
141	151	2
185	185	4
41	54	5
86	87	3
112	113	7
123	124	8
110	141	2
170	170	12
62	62	13
47	47	8
131	132	7
61	62	4
134	162	1
24	24	16
81	82	8
177	178	3
83	83	19
79	80	11
91	107	2
85	111	4
147	149	1
33	33	6
35	35	2
158	163	6
131	133	7
46	46	8
43	43	7
121	121	6
152	152	14
83	84	3
22	22	6
139	139	13
107	108	4
33	65	2
123	123	13
64	65	4
41	41	18
147	148	2
42	48	2
66	75	3
90	92	2
121	122	8
89	89	8
56	56	15
117	121	2
129	132	4
25	44	2
157	158	5
151	158	2
13	15	7
28	29	5
167	168	2
146	146	22
130	130	14
172	174	2
159	159	6
40	40	11
100	100	15
46	48	2
2	2	9
57	58	3
95	95	6
57	60	4
187	187	8
174	176	3
99	99	5
104	106	3
151	151	13
38	47	1
4	5	2
134	151	2
111	127	4
15	17	3
13	14	4
82	82	16
174	174	3
120	120	5
96	120	2
152	156	3
18	18	7
104	104	5
115	124	2
80	111	2
38	38	22
176	179	1
43	71	1
100	106	3
8	8	11
130	150	2
29	31	1
109	111	2
111	111	12
79	111	1
93	111	2
60	60	5
117	118	6
132	144	2
99	100	2
141	141	14
79	83	4
6	6	15
26	26	7
60	61	6
101	101	8
79	81	5
131	131	9
152	154	2
77	77	5
134	163	2
29	29	5
149	150	8
36	36	7
167	169	1
42	46	7
37	67	2
96	98	10
66	67	13
74	132	1
29	32	2
61	63	3
78	80	1
109	109	6
102	102	6
92	92	1
176	176	4
59	59	5
184	184	2
75	75	12
171	171	7
175	176	1
91	91	5
173	187	2
141	144	3
134	140	3
118	147	3
79	79	4
125	126	5
25	27	1
144	146	2
104	105	5
104	107	2
3	3	5
90	94	7
12	14	4
133	168	3
24	25	1
10	20	2
65	65	3
83	145	3
118	129	2
40	54	6
32	35	7
110	110	4
84	84	10
132	132	5
175	175	14
0	24	3
135	139	4
158	159	2
36	37	10
74	75	2
84	85	6
87	113	3
36	39	1
70	72	4
85	90	2
142	142	9
137	137	11
147	147	8
155	155	9
17	20	2
164	164	18
34	35	8
180	181	3
177	186	3
116	116	3
10	17	1
83	107	3
86	86	4
96	114	2
9	9	1
172	190	1
108	109	2
130	131	4
98	98	13
63	63	1
179	180	2
67	68	6
57	57	14
4	4	9
45	46	7
19	43	1
44	44	3
62	76	1
85	85	8
36	38	2
58	59	9
71	71	11
91	93	3
98	99	4
34	34	5
25	25	6
99	106	2
94	94	4
11	15	2
12	18	2
93	94	3
142	164	2
133	164	2
152	153	3
134	135	12
10	10	6
182	182	5
39	39	9
164	166	1
9	10	2
133	142	1
104	120	1
119	122	2
126	126	4
35	38	3
58	58	10
5	21	4
68	76	1
80	81	5
26	27	3
65	67	8
33	35	4
20	20	1
83	108	4
57	75	3
68	80	1
74	74	4
3	4	2
64	64	2
54	54	6
23	28	2
34	46	8
135	175	1
134	136	3
125	125	10
61	148	4
76	113	1
44	54	2
40	52	2
138	139	5
135	176	1
19	73	1
158	164	2
137	138	3
79	84	1
32	36	2
173	173	3
89	125	1
3	6	2
88	89	4
95	97	2
166	166	5
118	124	3
78	79	4
66	66	4
77	78	6
48	68	2
134	134	6
168	169	1
6	7	1
149	151	1
68	75	2
37	39	1
90	129	1
86	113	7
20	71	3
95	113	2
76	89	1
72	73	5
12	12	5
99	107	1
31	32	4
42	44	3
161	161	3
6	13	4
37	80	1
163	164	1
19	19	6
125	127	1
65	80	1
136	139	1
68	68	2
114	115	7
122	128	4
111	113	3
21	22	5
153	156	3
169	169	3
161	162	2
68	71	1
109	110	2
135	151	1
93	95	1
58	76	7
77	112	4
124	128	1
86	108	2
82	89	3
150	162	1
149	162	1
29	37	1
178	178	4
89	140	1
133	140	3
18	47	2
185	187	5
7	8	5
134	164	3
43	54	2
85	109	2
177	177	4
35	36	6
97	115	1
121	123	1
141	162	1
106	108	2
31	31	7
86	125	1
53	53	8
140	165	2
41	48	3
177	189	1
117	122	4
27	36	2
96	99	3
71	74	3
7	7	2
47	56	2
184	185	2
149	161	2
154	165	5
30	36	1
167	170	3
113	114	4
23	24	2
189	189	2
34	68	2
19	20	3
155	156	3
109	143	1
3	5	1
32	33	3
61	61	4
139	176	3
142	145	2
81	81	12
105	117	1
101	121	1
33	68	4
25	42	1
18	19	8
17	19	2
179	181	1
154	166	2
156	157	1
14	15	3
85	108	4
134	161	3
32	32	4
141	142	2
100	104	1
115	125	2
62	64	1
15	16	2
63	65	1
74	130	1
52	52	3
88	125	2
25	26	1
30	34	1
31	33	2
85	102	1
55	56	1
163	166	3
163	167	4
82	121	1
139	153	1
71	72	4
44	47	1
13	13	4
116	124	1
4	7	1
149	166	1
135	155	4
84	106	2
10	12	1
88	88	4
24	26	1
137	139	1
65	77	2
157	162	2
69	70	1
75	150	2
57	61	2
46	54	1
28	68	2
133	135	2
177	180	2
160	161	2
42	43	2
149	158	1
98	100	1
131	137	1
67	77	1
2	15	4
178	186	1
59	64	3
61	67	2
38	39	7
58	64	1
16	17	3
73	80	2
41	42	4
105	106	2
122	124	2
27	70	1
63	64	4
88	153	2
91	92	2
43	46	1
27	27	1
78	85	1
109	144	1
33	34	4
86	109	1
5	11	1
52	55	1
185	186	1
22	46	2
137	175	2
67	67	3
42	42	3
181	182	1
27	47	1
82	107	1
118	123	1
85	113	6
182	183	1
55	57	1
60	62	1
24	30	1
94	105	1
114	124	2
24	27	1
151	155	1
151	152	1
150	158	2
26	28	1
19	71	1
26	44	2
132	133	2
56	58	1
0	5	1
53	154	1
39	40	2
95	114	1
93	110	1
109	141	1
105	107	1
117	125	3
158	158	3
35	68	2
120	122	1
126	127	1
155	157	1
157	159	1
153	162	1
172	172	4
115	127	3
120	123	1
125	128	1
180	180	2
107	132	2
23	26	2
134	175	2
28	35	2
115	122	2
0	26	2
83	103	3
133	134	1
60	76	1
38	40	1
41	67	1
0	46	1
6	11	2
162	167	2
148	162	1
127	132	2
158	161	1
113	123	1
158	160	1
22	26	1
6	14	2
109	133	1
129	147	1
112	123	1
174	179	1
116	121	2
136	138	1
127	130	1
148	151	1
86	89	1
44	46	1
174	189	1
135	165	1
136	137	1
122	122	1
1	2	1
41	53	1
174	188	1
34	36	1
59	62	1
27	37	1
59	61	1
3	10	1
3	8	1
152	165	1
169	171	1
141	164	1
54	56	1
22	28	1
187	188	1
12	15	1
73	76	1
