86	86	5
69	69	2
157	157	2
98	99	5
149	157	1
187	189	2
142	142	4
111	112	2
101	101	3
152	153	2
153	187	1
150	156	2
27	27	3
75	76	5
23	24	3
2	87	3
117	117	2
90	90	3
130	131	1
14	14	2
100	100	8
153	153	1
32	33	4
25	48	1
62	62	3
121	121	1
92	93	1
156	157	5
134	135	1
45	45	3
72	72	7
31	32	5
185	185	3
52	53	1
126	126	2
97	97	8
64	72	2
57	57	4
6	13	4
28	46	2
150	176	2
141	141	3
3	3	3
25	30	2
16	16	2
15	15	7
55	55	2
115	157	3
158	161	4
19	20	2
122	123	2
112	112	1
148	148	1
67	67	3
8	21	2
102	102	2
116	150	1
72	74	5
61	81	1
34	34	4
162	162	4
23	23	3
132	175	1
65	65	2
18	44	2
76	76	1
60	61	3
12	45	4
9	11	7
44	44	4
102	103	1
27	28	1
116	116	2
10	10	2
13	44	3
13	13	1
8	8	1
46	46	3
43	140	1
155	155	4
79	88	1
1	1	4
129	129	2
26	27	1
83	157	1
114	114	1
125	125	4
63	63	5
127	129	1
103	106	1
149	180	2
160	183	3
131	131	2
184	184	3
54	154	1
33	33	3
78	78	2
30	30	1
31	31	3
88	151	1
140	190	1
118	118	2
189	189	3
58	58	4
96	108	2
60	60	1
19	19	2
149	150	3
43	43	2
177	177	1
103	103	2
131	133	3
31	37	1
36	37	3
105	105	1
73	155	1
20	21	2
10	11	2
163	163	4
10	34	1
38	38	1
24	25	1
109	109	5
28	81	3
137	138	5
130	175	1
93	95	1
154	154	2
154	156	1
41	41	1
146	146	2
73	84	2
100	104	1
17	18	1
96	96	2
147	147	3
162	168	3
32	35	1
53	53	2
122	126	1
75	75	1
39	39	2
124	124	1
14	21	1
88	88	1
40	40	1
5	42	2
120	120	1
13	41	2
94	137	3
13	14	1
80	83	1
86	87	1
12	12	1
187	187	1
2	2	1
56	115	1
96	98	1
92	94	2
17	48	1
42	42	1
32	32	1
82	82	1
97	109	1
117	118	1
139	139	1
135	135	1
169	169	1
4	54	1
111	111	1
119	120	1
126	127	1
159	159	1
