107	107	3
6	6	5
26	29	2
74	74	7
132	132	12
87	87	4
78	78	8
109	109	7
84	84	5
115	115	4
122	122	17
5	5	6
35	35	1
102	102	4
135	135	2
101	101	2
83	83	4
121	121	12
12	12	5
114	114	5
140	140	10
103	107	1
19	23	3
108	108	4
128	128	4
30	31	2
1	23	5
124	136	1
116	116	4
22	106	1
130	130	5
93	93	5
95	96	5
14	15	2
117	117	7
21	21	1
131	132	7
33	33	7
75	75	6
113	114	2
13	23	2
17	19	3
133	133	6
85	110	2
135	136	3
4	5	2
6	73	1
98	98	4
99	124	2
129	129	4
101	102	1
94	95	1
8	8	6
7	107	1
113	125	3
1	2	2
3	3	1
13	13	2
28	29	5
121	122	2
34	34	2
71	71	7
139	139	2
112	112	5
82	112	1
23	23	9
2	3	2
9	9	2
102	103	2
95	128	2
81	112	2
134	135	7
104	105	8
114	121	3
79	91	2
125	125	4
14	14	3
138	138	2
99	99	4
124	124	5
129	130	2
74	75	1
123	138	1
15	15	1
118	119	2
89	89	3
25	25	5
83	84	1
94	132	2
29	29	3
71	134	2
110	110	5
24	25	3
22	22	1
99	100	4
22	138	1
1	80	2
4	4	3
97	97	1
81	83	1
104	104	6
129	134	2
3	4	4
35	36	1
17	29	2
37	38	1
36	36	1
7	7	3
10	12	1
91	91	2
86	86	2
26	26	3
111	111	2
21	25	2
136	136	2
127	128	1
27	28	4
123	123	5
91	92	1
88	89	1
20	20	2
120	121	1
16	16	2
2	23	1
36	99	2
86	88	1
30	30	1
28	28	2
130	131	1
27	27	2
15	20	3
11	14	1
94	94	2
125	126	3
134	134	1
126	126	1
82	83	1
95	95	1
87	115	2
103	104	3
137	137	1
72	74	1
37	37	6
87	88	2
24	24	2
3	5	2
131	131	5
11	11	3
76	76	1
78	87	2
34	35	2
105	106	3
115	116	1
119	134	1
75	76	2
112	115	1
127	127	4
11	12	1
92	93	1
15	38	1
137	138	2
9	79	3
25	27	1
107	108	2
128	129	1
23	123	1
79	84	1
20	26	1
93	94	1
86	87	2
88	90	1
96	97	2
112	117	1
120	120	1
31	32	3
84	85	1
10	105	2
7	36	1
18	18	1
6	78	1
119	119	2
90	90	1
123	135	2
103	103	1
108	109	3
16	20	1
139	140	2
7	8	1
23	24	1
81	94	1
13	14	1
0	4	1
124	125	1
118	118	1
17	18	1
86	92	1
71	72	1
136	138	1
