26	64	2
43	43	4
110	110	12
108	110	3
50	51	2
35	35	11
151	151	10
41	77	3
48	49	3
38	40	2
14	14	18
4	4	12
26	26	6
97	97	3
55	56	6
152	152	3
31	36	2
48	48	10
46	46	4
8	50	1
46	126	4
28	33	4
7	7	12
117	117	16
25	25	19
66	81	2
43	50	5
28	51	4
73	73	8
136	137	5
62	64	6
66	66	7
41	41	21
12	12	3
132	135	1
11	11	7
43	123	4
8	8	8
27	27	5
101	109	2
82	94	1
45	46	4
120	123	7
45	45	10
30	30	17
139	141	5
137	137	12
103	103	4
135	135	6
87	87	10
37	37	8
34	35	6
26	31	1
19	19	7
50	50	14
8	9	8
153	153	16
44	44	8
6	6	21
10	33	2
93	95	3
16	21	2
10	10	8
90	90	5
125	130	6
78	149	1
34	34	11
3	10	2
103	105	1
150	150	8
96	98	1
56	57	4
108	108	19
93	98	6
67	67	14
38	86	3
115	131	2
29	30	9
53	85	2
43	44	8
86	87	5
145	150	3
94	98	2
5	5	7
109	110	1
39	41	3
83	83	10
134	134	14
122	125	3
109	109	24
54	62	2
120	121	7
13	16	4
115	116	19
126	126	10
16	16	15
11	15	3
23	23	9
15	15	12
142	142	6
139	142	3
149	152	5
15	16	5
57	58	2
77	80	2
78	83	3
148	148	7
145	145	5
55	55	14
66	69	2
147	147	9
123	123	6
13	22	5
72	73	4
28	30	3
39	40	8
87	98	1
50	57	5
3	121	4
101	102	3
140	142	3
2	2	2
17	17	15
12	14	2
99	99	4
54	54	19
121	128	5
116	119	2
74	74	7
143	144	6
93	94	10
119	119	3
97	99	2
127	127	9
72	74	1
74	83	1
138	138	3
87	94	2
96	96	7
32	32	6
107	153	2
67	80	4
24	88	3
9	51	2
116	116	5
70	71	4
144	144	10
104	104	14
135	136	5
32	33	3
68	70	5
100	101	1
6	134	4
77	82	3
22	22	9
99	115	3
154	154	10
26	28	2
2	4	1
35	107	6
84	84	11
128	129	2
33	35	5
40	40	10
54	55	6
116	123	2
70	70	9
71	149	4
113	113	7
22	23	5
130	131	3
136	136	10
21	21	7
18	18	9
20	22	1
92	92	11
66	80	1
65	65	10
48	52	3
148	149	3
63	64	2
53	57	1
57	57	13
116	117	3
114	114	4
23	24	5
139	139	1
82	83	6
17	99	4
107	107	3
95	99	2
68	68	15
97	98	2
13	13	7
41	76	1
19	22	5
38	38	13
83	84	3
84	86	2
137	138	9
17	29	2
33	34	4
122	122	5
101	139	2
18	19	10
141	143	1
3	3	3
85	86	3
102	110	1
20	132	2
81	81	5
115	125	5
85	85	4
136	148	1
65	66	2
12	13	2
74	85	1
55	57	4
50	124	4
76	77	10
9	15	1
75	75	6
48	53	6
128	128	11
63	63	6
143	143	2
113	151	5
82	82	11
22	36	2
16	17	1
124	127	2
80	88	1
64	86	2
145	147	4
131	131	5
10	16	3
77	79	8
74	86	1
149	150	3
75	77	6
27	30	1
20	21	3
33	111	4
119	129	3
81	85	2
20	23	8
5	6	5
11	14	6
69	73	4
130	130	7
72	75	3
98	98	2
69	69	5
94	95	4
67	70	1
145	148	2
73	86	2
53	53	14
71	71	10
73	149	4
40	41	10
106	114	2
64	65	5
49	56	5
14	142	2
80	80	8
133	133	9
11	28	2
14	102	4
80	83	1
96	97	5
42	84	4
106	107	2
38	77	2
115	115	2
4	8	2
87	99	2
87	110	2
6	7	3
78	78	7
120	120	4
62	81	3
8	15	2
24	24	15
44	45	4
63	76	1
77	77	2
72	72	1
62	62	5
20	24	1
65	83	5
138	139	3
61	62	6
31	94	1
79	149	1
71	72	1
106	106	5
74	94	7
38	39	8
146	147	8
39	50	3
4	5	3
5	8	2
17	30	2
34	107	2
42	42	3
61	61	2
49	49	4
32	34	4
118	118	9
141	141	4
20	20	5
119	121	2
3	8	1
47	48	3
5	40	1
112	113	2
65	80	1
36	36	14
101	140	2
65	68	1
69	71	2
78	79	3
37	38	2
95	95	6
50	63	1
100	117	3
95	96	7
146	146	6
26	101	3
111	111	4
124	134	4
13	21	2
14	29	4
76	76	10
43	46	2
140	140	5
100	139	5
15	23	2
46	49	2
12	22	1
7	12	2
129	129	5
74	75	3
79	79	2
42	47	2
47	47	10
86	86	3
49	124	1
87	95	1
79	82	3
44	66	1
33	33	11
68	72	2
81	149	1
75	84	2
132	133	5
31	31	8
11	12	7
41	42	6
88	88	3
119	128	2
31	35	3
52	64	1
9	9	10
75	86	1
106	115	3
66	68	2
124	128	2
101	146	2
35	37	4
20	38	1
34	108	7
33	94	1
22	27	2
121	121	1
15	19	2
152	153	1
34	36	3
133	134	2
28	28	4
56	56	12
10	40	3
122	124	2
15	130	1
37	109	1
28	49	1
141	142	3
64	64	4
15	118	1
119	120	1
9	22	3
78	148	3
51	51	7
12	121	2
98	99	6
15	129	4
42	43	2
29	103	2
17	19	2
13	106	1
32	111	2
31	37	3
100	100	6
127	128	1
147	148	4
16	20	1
103	123	2
134	135	3
13	14	5
43	47	2
10	116	2
20	26	2
33	36	4
49	53	1
34	37	2
5	7	1
4	121	1
20	88	3
87	88	2
43	51	3
3	6	1
8	51	1
74	149	2
38	74	1
132	132	6
84	85	1
115	117	1
47	57	2
105	154	2
36	37	3
118	119	3
67	68	5
104	105	1
40	51	2
10	153	2
97	126	2
94	94	2
38	110	2
26	38	2
85	88	2
15	25	2
146	148	3
30	98	1
21	22	2
121	123	1
16	118	2
22	25	1
13	102	2
28	29	3
98	113	1
125	126	1
69	79	1
39	39	6
102	113	3
45	125	3
45	124	3
21	24	2
82	88	1
137	145	1
10	32	1
77	78	1
121	122	2
33	109	1
24	25	3
30	90	1
93	93	1
11	131	2
97	113	2
144	146	1
17	25	1
103	104	2
99	112	2
62	65	2
26	29	2
99	114	2
100	107	1
15	100	2
5	121	1
17	100	3
68	69	3
14	101	1
4	6	1
124	124	2
68	86	1
18	31	1
149	149	3
13	96	1
75	76	1
119	130	1
84	92	1
148	152	1
27	28	2
13	88	1
45	49	1
11	116	2
20	27	1
42	62	1
89	89	1
19	25	1
4	39	2
16	30	2
49	51	1
142	144	2
58	85	1
46	47	2
69	74	2
53	54	2
63	75	2
26	27	1
107	108	1
82	84	1
125	127	1
95	97	1
31	34	1
66	85	2
75	147	3
42	48	1
63	84	1
8	153	1
76	86	1
121	124	1
108	109	1
48	50	1
14	121	1
62	63	1
99	102	1
32	37	1
100	110	1
96	114	1
131	132	1
95	143	1
61	66	1
63	85	1
5	15	1
78	84	1
102	102	1
35	109	1
123	125	1
46	125	1
25	30	2
15	22	1
42	76	1
