22	22	16
21	22	5
60	60	6
55	55	9
96	96	7
130	130	5
59	59	12
25	25	20
122	125	1
136	136	14
30	30	4
162	162	3
98	98	14
6	7	1
181	182	5
110	164	2
46	46	14
162	164	2
169	186	3
65	65	20
17	17	5
174	174	8
144	145	4
168	169	7
40	40	8
127	127	8
10	10	10
108	108	22
138	138	6
140	140	12
45	46	2
88	89	5
5	5	21
81	81	13
152	153	7
7	7	17
163	163	4
13	52	1
146	146	6
118	118	5
75	75	18
13	13	11
20	20	9
122	122	7
91	92	3
188	189	7
181	181	11
107	181	3
165	165	20
43	44	3
87	87	13
146	147	4
104	104	11
115	148	5
65	66	6
94	113	3
177	178	4
61	62	6
1	47	2
15	15	8
166	166	9
18	18	12
71	82	3
142	143	10
44	44	4
163	164	1
114	114	11
139	139	20
61	61	7
149	149	13
117	138	2
135	135	4
183	183	8
6	6	15
129	130	7
128	128	10
77	77	7
159	160	2
16	82	3
153	153	15
30	48	1
148	148	9
171	171	14
80	80	9
117	117	4
19	104	3
142	142	14
93	94	8
123	123	13
131	139	2
61	64	2
107	179	3
88	88	12
34	35	9
35	36	10
125	125	1
155	156	1
100	100	4
72	72	2
130	131	5
82	83	15
159	159	2
58	59	10
182	182	12
94	115	2
149	154	1
38	39	5
137	137	9
67	67	11
74	124	2
67	68	5
126	141	1
33	33	11
76	76	14
18	19	3
10	48	7
162	181	5
167	168	11
97	101	5
8	8	12
180	180	11
57	57	5
147	147	16
107	107	6
68	68	4
32	32	7
86	86	10
27	27	3
19	105	5
176	176	8
77	104	2
41	41	9
79	152	4
184	185	6
46	47	2
107	119	2
189	189	2
121	122	6
105	106	8
134	135	9
34	34	10
92	146	1
10	11	4
187	188	1
111	111	6
79	81	4
129	140	1
113	113	11
126	127	5
122	129	4
23	40	7
179	179	3
155	155	5
21	21	4
114	115	3
78	87	2
112	112	14
87	92	3
168	170	3
90	90	19
43	43	19
164	165	2
22	55	3
29	57	1
99	99	15
11	11	3
82	82	5
124	125	8
58	58	12
22	47	1
70	70	2
23	23	4
48	48	14
22	25	1
116	119	5
101	102	3
71	71	15
47	47	4
104	106	1
4	4	11
184	184	6
93	97	2
0	27	3
133	135	1
132	146	3
36	36	3
130	160	1
14	14	7
56	60	3
179	187	2
35	41	2
86	87	5
85	85	11
182	183	3
130	165	2
35	35	9
1	1	15
167	171	5
33	34	1
39	39	3
113	118	1
190	190	4
78	89	1
126	126	2
152	160	4
106	106	8
145	146	3
188	188	14
74	75	2
103	103	1
56	56	3
19	20	3
52	53	4
32	48	2
3	3	5
17	18	7
10	13	5
73	76	1
129	151	1
73	73	7
74	74	13
92	92	3
10	53	2
32	33	4
110	110	8
164	168	5
134	134	7
170	170	3
176	190	3
91	91	3
61	66	3
131	131	16
24	24	22
155	179	1
84	84	13
53	53	7
94	94	4
130	161	1
58	62	1
2	2	7
106	153	6
185	185	6
31	33	6
179	180	11
189	190	4
168	168	4
12	14	4
152	174	3
1	28	2
175	175	14
157	188	11
170	186	5
91	142	1
89	89	11
45	52	6
15	24	1
38	47	2
97	97	1
122	126	2
118	146	1
12	12	3
132	132	5
23	149	1
26	26	7
178	178	7
155	157	2
45	45	9
102	102	10
10	42	4
103	112	2
162	163	1
105	105	7
18	105	3
150	150	4
42	44	7
169	170	3
108	170	2
31	31	5
27	28	2
142	156	2
29	30	2
84	105	2
152	152	3
144	164	5
161	161	4
181	183	5
187	187	6
101	101	19
15	21	3
97	98	2
172	172	7
83	83	10
143	143	5
157	157	2
169	176	4
12	13	4
16	19	5
173	173	12
59	66	5
131	161	2
86	123	1
109	174	2
133	133	2
77	184	5
128	129	1
177	177	9
108	155	3
141	141	6
103	116	5
121	121	6
145	145	10
108	178	3
93	93	2
28	30	1
37	37	9
39	40	5
173	177	2
158	159	2
3	4	9
82	113	4
34	41	3
136	137	6
62	62	7
140	141	3
84	85	2
54	54	6
91	130	1
186	186	5
29	56	2
106	149	4
10	47	3
53	54	2
120	120	11
129	129	2
150	153	5
119	145	3
156	156	4
119	120	5
13	56	1
55	62	1
35	58	1
0	0	6
37	38	2
11	12	1
164	164	4
116	116	6
22	101	3
117	130	2
22	24	1
124	124	5
9	10	3
62	64	5
40	41	2
20	105	1
79	151	3
93	100	1
72	73	4
74	76	2
24	25	6
131	149	2
169	169	5
78	78	2
16	16	6
77	113	8
19	19	3
124	141	4
180	188	2
45	55	2
11	44	3
92	93	2
164	166	3
175	176	3
23	25	2
28	109	1
169	184	2
95	140	4
20	107	1
28	28	5
114	150	3
154	161	3
49	49	2
65	82	1
106	108	2
64	64	2
33	42	1
25	26	1
171	176	3
26	27	3
117	145	3
66	67	2
149	161	2
45	53	5
165	168	1
78	88	4
20	23	4
167	173	2
44	47	2
35	37	3
186	189	2
116	117	2
106	107	4
63	63	7
160	161	1
150	165	2
12	60	1
142	158	1
101	112	3
87	95	2
107	108	1
173	174	1
43	47	1
162	180	2
74	78	2
63	64	2
56	62	1
92	147	4
134	137	1
147	148	2
5	6	2
151	154	2
161	162	1
135	136	1
19	46	1
80	86	3
158	158	7
117	133	2
130	145	2
52	52	1
131	147	1
69	70	1
75	124	3
61	68	1
172	188	1
23	53	3
42	42	3
109	109	4
115	116	1
93	112	1
54	55	2
118	119	1
57	66	2
115	115	3
162	182	2
148	149	1
104	105	3
96	98	1
167	167	4
131	146	2
99	152	1
75	76	2
73	74	2
144	144	1
19	55	2
154	154	1
116	150	2
0	47	1
82	84	4
41	42	1
59	60	2
29	29	4
114	148	1
160	164	1
117	118	1
143	150	1
10	12	2
79	96	1
111	112	1
16	17	2
143	148	1
117	127	1
4	5	1
140	160	2
101	151	1
157	180	1
153	158	1
151	162	1
33	40	1
9	9	2
134	146	1
12	84	1
105	184	1
130	155	1
95	95	1
95	135	1
107	169	1
161	164	2
44	52	2
45	47	1
125	126	1
73	78	1
38	38	1
33	35	2
36	37	1
114	151	1
100	116	1
66	66	1
107	167	1
123	124	1
30	31	1
156	181	1
177	186	1
109	172	1
161	166	1
172	177	2
107	168	1
106	109	1
44	56	1
87	161	1
38	45	1
96	97	1
151	151	1
132	133	1
