133	133	20
0	0	4
5	5	13
73	73	19
119	119	11
87	87	18
127	127	23
37	37	12
111	116	3
36	36	8
115	115	18
18	19	15
12	15	4
78	78	12
103	103	14
135	140	8
97	98	5
105	108	2
128	129	9
32	32	10
104	105	8
101	101	18
140	140	13
101	113	2
114	114	16
139	139	14
119	120	3
129	130	4
11	11	7
135	135	17
96	96	23
89	89	19
105	107	7
95	95	13
135	137	5
122	123	8
125	126	5
102	102	23
87	88	6
124	124	33
103	119	6
112	112	18
131	131	34
107	107	13
86	87	4
102	103	6
74	74	5
129	139	1
4	5	4
19	19	14
11	13	9
83	123	3
98	98	16
94	94	16
130	130	20
85	85	16
136	138	3
128	128	10
128	137	3
107	113	2
133	134	14
136	136	18
10	10	2
111	113	4
126	126	30
79	80	10
110	111	9
134	135	12
2	4	2
108	108	8
34	34	8
73	74	10
117	117	24
132	132	13
14	15	6
102	117	4
17	37	2
82	83	7
81	81	5
113	129	3
25	86	4
30	31	3
21	21	10
6	28	1
131	140	2
86	86	8
122	122	25
124	127	3
17	18	6
38	38	18
104	104	15
121	121	18
72	72	13
95	113	2
14	14	5
111	111	10
38	128	1
92	92	3
125	125	19
18	18	14
79	79	4
35	35	8
90	122	1
130	136	2
127	128	17
20	21	3
8	23	2
90	115	2
134	136	5
113	113	19
3	4	3
22	25	3
15	15	11
89	90	14
93	126	1
126	128	5
84	85	6
9	9	7
90	90	8
136	137	11
135	136	24
123	125	4
113	136	3
120	122	3
129	140	7
133	135	2
90	91	7
100	114	9
134	134	26
23	24	5
97	97	9
8	10	10
125	140	3
84	84	15
123	123	10
102	119	5
71	71	5
78	80	4
91	91	19
111	112	1
28	28	5
137	138	6
22	92	4
74	79	5
88	116	5
24	24	4
22	22	2
107	111	2
34	35	2
101	108	5
131	132	4
75	75	13
6	97	5
14	16	2
4	94	4
80	80	9
106	106	2
22	23	1
124	126	3
139	140	1
31	32	4
29	30	5
116	116	4
93	101	4
28	33	5
76	120	3
81	85	4
23	26	2
88	88	10
3	3	6
108	117	3
129	136	3
93	93	10
25	25	4
101	102	2
112	113	2
100	100	11
135	138	3
118	119	3
119	123	1
27	27	7
81	84	2
101	125	3
120	120	6
17	20	3
118	118	2
29	29	9
88	90	2
28	32	2
133	136	2
123	124	15
72	73	5
33	33	1
102	137	3
137	137	5
33	34	1
124	125	12
87	92	4
20	20	7
3	16	1
3	5	4
80	123	2
23	139	1
101	116	4
12	12	3
93	94	3
7	7	11
31	31	4
121	122	5
2	14	2
110	112	2
125	128	5
129	129	11
26	91	1
26	27	4
5	6	1
101	126	1
99	99	10
138	138	23
130	131	3
107	108	2
113	137	4
110	135	3
101	109	1
4	4	4
131	139	2
9	12	2
88	89	1
83	85	4
13	13	1
134	137	2
27	28	5
88	140	1
7	10	2
26	29	3
30	30	4
83	84	1
16	16	11
76	76	7
6	6	2
116	125	2
90	97	1
110	113	2
85	87	2
74	75	4
26	26	14
73	127	1
23	23	1
86	88	3
18	95	1
120	121	3
106	109	1
77	77	3
124	138	1
95	117	1
17	17	2
109	109	2
113	114	9
132	133	3
103	117	4
21	90	3
102	116	1
110	110	4
36	137	3
134	140	1
85	86	2
94	95	1
82	82	1
118	120	2
1	4	2
119	122	2
138	139	2
33	134	2
100	101	4
26	90	1
83	83	1
114	115	1
94	97	2
84	105	1
93	95	2
19	20	2
125	136	2
119	121	1
94	100	3
8	9	3
28	91	1
10	12	1
134	139	1
126	127	3
110	114	2
117	118	1
21	23	1
105	106	1
25	26	1
92	93	2
124	137	3
0	2	1
127	137	1
116	117	2
117	124	1
7	9	1
95	100	2
78	79	1
22	93	1
2	3	1
92	94	1
28	29	2
8	8	2
127	139	1
16	17	2
6	21	1
1	1	1
121	123	1
109	118	1
135	141	1
81	82	2
71	72	2
77	78	1
13	19	1
10	11	1
90	92	1
103	136	1
103	104	1
82	127	1
118	121	1
88	96	1
