186	188	4
84	85	2
178	178	19
79	79	18
42	42	39
136	136	17
10	10	13
110	111	5
155	156	28
197	197	17
169	170	26
36	36	30
193	193	23
131	131	35
127	127	30
159	160	15
32	196	4
191	192	24
115	117	3
160	160	15
186	186	28
37	37	13
170	170	27
89	89	4
34	35	9
169	169	21
101	101	15
5	5	28
140	140	21
72	72	9
60	60	5
137	137	20
45	45	18
36	37	11
191	193	10
173	174	24
6	6	27
48	48	16
29	29	16
163	164	22
84	84	19
154	154	32
180	181	6
115	166	4
156	156	46
185	189	3
1	1	18
139	180	3
157	157	50
171	171	50
19	25	2
148	148	29
70	70	20
124	124	27
149	149	46
48	49	8
150	152	7
120	120	16
112	112	17
108	108	13
9	9	22
142	143	22
46	47	11
148	178	1
159	159	31
134	135	9
158	158	34
128	128	39
152	152	18
23	23	23
163	163	28
196	196	38
78	79	6
17	26	3
166	166	28
21	24	1
181	181	15
34	34	25
155	155	30
145	164	4
81	82	18
80	81	5
195	195	26
118	119	6
38	39	8
49	49	9
26	26	22
107	107	25
0	1	23
174	174	23
113	114	9
155	162	2
192	192	34
103	105	2
4	5	5
103	103	21
176	178	14
116	117	7
66	66	11
179	179	36
174	178	2
69	69	22
146	185	5
138	139	4
114	114	24
141	141	16
147	147	44
138	138	19
63	66	6
137	179	5
165	166	13
126	197	1
17	17	26
97	98	1
164	164	18
194	194	27
15	17	2
176	176	41
30	31	7
67	67	8
117	118	6
28	28	21
53	58	9
19	20	19
183	183	46
96	98	6
110	110	24
11	11	13
113	113	32
3	4	19
59	61	3
133	133	24
44	45	13
191	191	27
177	178	4
180	180	13
52	52	35
33	33	15
112	140	2
102	102	28
146	146	30
118	118	14
23	37	2
130	130	17
9	10	14
141	143	9
18	18	23
105	105	13
71	72	13
27	27	15
4	4	37
54	54	25
145	145	26
119	144	1
168	169	23
74	76	3
134	134	29
82	85	3
132	133	8
132	134	3
126	126	22
95	98	5
93	96	3
21	21	33
104	104	14
12	12	24
167	167	33
83	83	22
146	149	5
8	8	31
133	135	9
30	30	17
152	159	2
12	13	6
24	25	7
32	42	1
63	150	1
137	138	12
82	82	16
3	3	25
158	159	17
168	168	38
179	180	18
65	65	7
39	39	19
153	173	7
25	25	22
20	21	13
182	185	3
13	13	14
40	50	1
55	56	8
31	31	28
170	171	7
143	144	10
169	171	6
5	6	8
131	132	4
187	187	22
115	116	6
25	39	6
47	47	17
189	189	25
74	74	7
81	81	7
189	190	14
24	26	1
61	64	1
166	167	9
79	80	7
16	17	11
145	146	14
35	36	9
87	88	2
25	192	2
38	50	5
59	59	26
41	51	6
58	58	17
13	16	8
144	144	16
188	188	37
63	63	4
24	34	4
0	190	2
101	102	7
182	182	26
47	48	3
55	55	25
148	149	10
182	183	8
119	119	22
160	161	5
150	178	6
10	14	8
117	117	12
122	122	12
93	93	9
44	44	18
139	141	1
161	161	22
190	190	27
146	148	4
122	123	3
161	188	6
125	125	14
152	155	1
170	177	3
114	140	1
128	182	1
105	118	4
20	20	21
187	188	30
170	180	1
195	196	2
106	106	28
64	64	9
8	17	5
138	182	3
38	38	22
170	172	7
123	123	25
176	193	5
150	150	37
172	173	8
151	151	25
102	105	8
183	193	5
178	180	3
111	111	22
153	154	9
115	121	2
56	56	22
173	173	29
22	24	6
27	32	3
43	43	26
66	68	5
142	142	12
114	163	4
192	193	10
114	115	16
161	164	3
143	143	26
172	178	1
58	62	1
194	195	9
104	105	7
15	16	22
14	14	28
53	57	6
147	156	1
7	7	22
139	140	10
18	21	2
51	51	24
29	33	1
116	116	19
176	177	19
168	179	4
71	71	23
129	129	18
30	69	2
174	175	4
151	176	6
3	18	5
23	24	8
78	78	20
162	162	12
55	58	3
41	80	2
102	103	8
178	179	20
54	55	13
41	41	26
68	68	14
139	179	7
119	120	15
157	158	37
153	190	1
165	165	22
6	8	3
22	22	13
21	22	13
24	24	8
41	78	4
150	151	9
146	147	10
156	157	12
2	3	7
111	113	5
36	38	2
87	87	15
99	99	13
26	27	9
153	153	19
185	185	26
15	15	25
100	100	26
62	183	1
111	112	15
112	113	8
0	2	6
187	189	2
133	134	8
57	57	15
54	62	1
177	177	37
53	53	14
135	136	7
109	111	8
51	52	12
111	134	2
162	164	19
107	110	6
37	38	6
98	99	3
62	65	1
122	124	2
40	40	20
153	182	9
38	43	5
62	182	3
97	97	8
73	74	3
154	155	11
109	110	6
155	161	3
114	160	2
145	148	8
48	50	6
155	168	2
42	44	3
32	33	12
126	127	6
46	46	16
32	32	16
62	63	5
41	53	3
105	106	3
103	106	10
16	16	34
50	52	1
144	145	8
50	51	8
43	45	1
160	164	6
76	77	7
77	79	7
5	21	3
109	109	18
107	109	3
181	182	7
161	162	6
85	87	3
162	165	2
16	20	3
126	135	1
61	62	3
57	95	2
195	197	6
37	46	2
34	36	5
139	182	3
52	53	5
40	44	3
132	167	3
102	104	10
184	184	21
15	45	4
162	170	2
15	38	1
16	38	2
56	62	3
25	26	11
140	155	1
25	33	5
40	41	7
75	75	1
76	76	1
11	13	2
71	73	8
139	139	11
24	190	2
109	112	1
58	59	12
161	163	7
2	32	3
129	136	3
172	172	10
42	78	4
2	2	14
179	184	3
68	70	3
185	186	21
55	197	3
105	107	3
133	140	2
62	139	9
20	22	2
112	125	4
150	191	4
1	30	2
7	8	12
18	20	9
148	151	6
77	77	8
149	192	1
57	58	4
35	35	20
190	191	8
28	58	2
86	87	4
146	179	5
62	62	8
70	72	3
5	37	4
115	135	2
163	166	9
162	190	4
46	70	1
61	66	4
170	179	2
175	175	12
149	150	20
167	182	3
80	82	1
116	118	3
169	183	3
151	159	8
38	44	10
95	95	15
10	12	5
68	69	2
156	168	4
127	128	2
99	100	4
20	27	3
172	182	1
121	121	18
5	22	4
149	153	4
64	65	6
29	31	5
14	45	2
82	84	5
112	120	6
45	80	4
26	69	5
148	171	4
74	75	4
29	30	4
24	27	4
28	29	11
123	124	6
147	148	11
85	85	8
137	139	2
86	86	7
96	97	9
117	119	4
23	46	5
132	132	3
131	177	9
43	46	3
9	30	1
72	73	11
137	140	9
196	197	11
56	57	2
146	167	3
101	107	2
106	107	6
125	141	1
152	178	3
69	70	9
116	167	1
56	63	4
64	68	5
33	34	5
189	191	3
107	108	9
148	162	4
175	176	7
19	19	20
171	172	7
104	107	8
4	6	3
115	133	1
115	115	14
73	73	7
22	23	7
151	190	1
61	63	1
80	80	8
125	127	5
141	142	7
0	4	3
149	184	1
89	98	1
113	124	3
163	182	3
108	109	3
167	168	1
94	95	11
96	96	4
70	87	1
94	94	10
9	12	1
168	171	2
23	34	3
158	160	5
37	39	1
1	3	3
39	40	3
165	171	10
10	13	2
142	156	4
44	49	1
142	146	1
27	28	4
194	197	5
61	61	9
61	67	3
63	190	4
142	155	3
13	14	5
148	152	2
186	187	19
130	131	3
126	128	6
121	123	7
102	107	6
41	57	2
151	152	6
168	170	1
50	50	10
83	84	6
8	9	5
35	37	2
85	88	2
11	14	4
0	189	1
124	125	4
155	173	1
88	88	11
135	137	4
45	47	2
68	184	3
17	18	7
149	151	4
24	33	4
30	186	2
12	16	2
161	193	1
0	0	8
44	46	1
65	66	6
41	59	1
70	73	1
157	174	2
179	182	3
154	174	2
95	97	1
17	19	3
70	71	3
189	196	1
1	2	14
55	78	1
130	141	2
39	43	8
168	172	4
182	190	2
6	17	3
33	191	1
165	167	8
134	137	3
112	121	2
148	155	2
154	159	1
52	62	3
28	30	2
120	121	3
152	162	1
119	121	1
130	178	3
190	193	4
184	192	2
114	151	5
118	146	1
45	179	2
33	189	2
40	51	4
138	171	1
113	126	4
23	25	4
26	28	1
31	32	5
45	46	9
13	46	1
187	191	1
130	140	2
193	194	6
36	80	1
18	19	7
69	183	1
143	147	3
138	181	3
42	54	1
55	72	1
128	129	1
100	101	7
26	40	2
171	177	2
173	176	7
145	169	4
160	162	1
140	143	1
141	156	3
171	173	5
162	188	4
130	133	2
1	70	4
55	76	1
25	34	2
130	166	1
135	135	2
114	121	1
89	90	4
180	184	3
51	86	2
140	141	5
106	115	2
29	70	5
53	56	2
106	108	1
72	88	2
85	86	2
141	150	3
95	96	1
130	132	6
116	151	3
65	68	5
167	169	1
31	188	3
113	115	3
182	189	2
177	194	2
15	32	3
32	37	4
60	65	2
152	153	7
90	90	3
30	70	1
162	191	3
56	78	2
107	111	3
60	61	2
121	122	5
15	22	2
117	145	2
29	45	2
188	192	2
162	163	4
164	165	1
169	172	2
167	181	3
169	180	1
133	137	2
57	196	2
156	158	1
183	185	3
163	167	6
128	130	2
115	141	2
103	104	2
39	80	3
102	106	2
139	181	1
102	108	4
38	80	4
33	35	2
98	98	2
167	170	3
168	180	6
51	55	2
149	186	3
32	46	3
172	177	2
33	37	1
185	188	2
132	160	1
159	161	4
39	51	1
147	155	3
183	184	1
42	52	2
162	189	1
164	183	5
150	153	1
143	148	3
192	194	2
51	56	1
176	196	1
172	184	5
161	187	2
66	67	2
157	172	1
183	186	1
137	181	2
53	54	4
20	24	1
57	59	2
52	57	1
115	125	2
10	11	3
94	96	2
138	179	4
161	175	3
151	158	2
28	69	1
120	123	5
137	163	1
33	45	1
163	181	1
119	131	2
147	163	1
154	173	4
136	165	1
149	183	2
101	105	1
65	75	1
29	71	1
157	159	4
63	139	4
155	157	3
16	18	2
160	163	2
104	106	2
43	44	3
188	189	4
12	15	2
59	60	2
166	182	3
125	130	1
59	68	2
64	152	2
131	166	1
152	192	1
27	29	2
115	149	4
88	89	4
135	169	4
108	114	1
176	179	1
173	177	3
131	167	3
188	190	4
1	32	2
37	79	1
187	196	1
128	156	1
145	180	1
49	50	1
5	38	1
134	140	1
169	181	1
108	111	2
168	185	1
5	18	2
30	32	2
170	190	1
147	183	1
125	128	1
180	182	2
69	119	3
142	169	1
173	175	1
157	160	1
41	50	1
14	15	1
155	158	2
147	178	1
65	71	1
140	180	2
2	34	2
187	190	1
78	81	1
4	8	1
189	194	1
6	7	3
75	76	2
156	165	1
163	197	1
79	81	2
11	57	1
19	39	1
31	45	2
31	187	2
82	83	1
50	56	2
73	88	1
5	7	1
41	42	1
54	58	1
11	12	1
17	39	2
68	136	1
155	159	1
134	136	2
114	124	1
171	176	1
53	55	1
115	184	1
116	120	2
40	42	2
19	59	1
125	197	1
56	76	1
138	180	1
16	32	1
39	44	2
150	159	1
136	137	1
144	160	1
163	165	1
30	187	1
160	167	1
162	179	1
132	177	1
186	190	1
167	187	2
142	170	1
93	94	1
0	195	1
33	70	2
62	64	1
63	183	1
130	164	1
26	33	1
22	38	1
154	161	1
54	56	1
