106	106	4
90	90	4
82	82	1
62	63	6
104	105	2
75	154	2
91	93	2
150	169	1
26	35	1
37	37	5
169	169	5
158	166	1
36	36	6
4	38	4
87	90	2
5	5	10
31	32	3
30	97	3
29	29	10
91	97	1
174	174	3
108	108	5
6	36	3
61	61	5
70	70	5
160	161	4
176	176	6
51	51	5
174	176	1
75	75	5
11	97	1
61	62	6
81	156	1
46	46	1
124	124	6
40	53	2
113	115	2
13	13	10
101	131	5
83	84	2
160	160	2
66	66	6
63	63	7
21	21	5
99	100	2
138	138	5
153	153	13
157	166	1
72	135	1
180	180	1
52	81	3
4	4	9
81	82	1
172	172	3
24	24	8
116	118	1
8	9	2
25	26	3
10	12	6
121	125	3
41	41	1
67	67	5
123	123	8
38	38	3
179	179	2
135	136	5
24	31	2
1	2	3
1	3	5
153	157	3
107	107	5
15	26	3
111	111	4
39	142	2
30	31	2
36	38	2
17	26	6
155	155	5
168	168	6
149	150	3
29	139	2
5	6	6
80	80	1
137	144	3
167	167	11
45	45	8
41	168	3
78	79	2
33	33	16
161	161	5
39	39	4
84	84	1
90	91	1
40	40	3
15	15	5
89	118	4
87	88	3
172	173	5
62	89	2
1	65	2
57	57	4
9	9	15
43	43	2
85	85	3
31	31	7
12	12	8
20	172	1
97	98	1
172	174	1
178	178	1
23	24	4
18	18	1
136	136	3
112	112	6
2	2	5
141	141	4
126	126	2
39	40	2
92	92	14
102	160	3
78	78	7
141	142	3
36	37	3
30	30	8
147	148	1
109	160	2
4	5	5
44	45	4
136	142	2
108	109	3
91	92	5
91	91	3
26	32	2
80	81	3
131	131	5
8	8	5
19	20	7
8	42	1
2	4	3
5	7	5
73	73	4
95	95	8
63	65	3
32	32	13
3	9	1
3	4	7
86	111	2
3	65	2
167	169	1
168	169	1
7	16	3
97	116	3
13	14	1
57	61	1
16	42	2
32	37	1
65	65	4
51	81	1
154	156	4
29	98	1
25	25	4
34	35	1
1	1	4
80	153	1
119	119	3
51	52	1
6	6	2
53	81	2
120	124	1
63	64	2
11	12	5
87	87	2
137	137	4
32	33	1
120	120	3
132	147	1
105	105	3
165	165	4
75	76	4
20	22	1
153	154	1
79	79	1
139	139	2
90	94	3
80	154	2
150	150	2
103	163	1
7	7	4
67	154	1
87	178	1
28	28	4
32	43	1
124	125	2
149	149	3
162	162	5
86	86	1
23	23	2
118	118	2
161	162	4
49	49	2
142	142	2
83	83	2
162	164	1
30	96	1
146	146	5
30	95	2
31	36	2
26	26	4
56	56	2
145	145	3
72	76	2
107	157	1
28	29	1
26	96	2
114	162	1
35	35	4
15	45	1
99	102	1
17	18	3
19	19	3
27	28	3
87	115	1
71	71	3
62	64	3
89	156	1
162	166	3
16	22	2
63	85	1
68	68	1
108	151	2
28	30	2
89	119	1
104	104	4
10	10	1
149	172	1
60	60	2
152	153	2
77	77	2
142	143	2
74	76	1
113	117	2
17	17	3
130	130	1
3	3	3
28	31	2
10	11	2
122	122	2
117	117	3
72	72	4
127	127	2
23	161	2
44	44	1
88	88	1
105	106	1
62	62	1
56	57	1
111	112	1
118	119	1
16	32	1
94	95	1
175	175	1
147	151	1
134	134	2
165	166	1
20	20	7
59	59	2
143	144	2
128	128	3
104	162	1
140	140	2
44	46	2
9	10	1
115	157	1
27	27	1
12	46	1
99	99	1
49	82	1
137	139	1
151	152	1
81	81	2
171	171	1
55	55	2
135	135	1
17	99	1
74	74	1
94	94	1
4	46	1
125	125	3
21	85	1
110	110	1
146	160	2
100	100	1
97	97	1
145	147	2
53	53	2
77	78	1
29	31	1
152	152	2
114	125	1
11	13	1
120	155	1
39	149	1
113	113	1
11	41	1
109	109	1
1	4	1
35	36	1
21	68	1
144	144	1
166	166	1
143	143	1
2	12	1
16	17	4
5	70	1
14	15	1
129	130	1
135	137	1
26	27	1
21	22	1
9	11	1
148	172	1
112	161	1
154	155	1
18	142	1
151	156	1
1	5	1
155	156	1
133	133	1
