15	15	13
138	138	23
3	37	3
136	140	2
42	72	7
157	165	2
156	165	4
15	40	2
149	149	32
78	78	9
9	9	12
159	159	11
104	105	12
163	163	3
144	144	19
35	36	7
104	104	13
165	173	2
98	99	4
94	94	6
190	190	13
99	102	4
34	34	13
137	137	7
10	10	7
30	31	5
167	169	8
123	124	3
1	6	1
82	82	13
70	70	14
29	160	1
124	133	1
46	46	6
81	82	5
175	176	5
49	50	4
151	152	1
9	10	2
44	44	8
127	184	3
120	120	9
8	8	12
119	138	3
129	129	9
25	88	6
42	182	4
25	25	4
180	180	24
54	54	25
0	62	2
68	69	8
134	144	1
6	6	4
193	193	18
21	21	5
30	30	10
127	142	1
121	121	10
32	160	1
48	48	13
57	57	8
48	56	1
175	175	17
172	172	25
146	165	3
176	177	11
162	162	5
21	22	4
124	124	5
170	170	19
0	32	3
99	99	3
146	147	8
169	169	11
171	184	5
68	73	2
130	130	3
107	107	16
117	135	1
181	181	17
117	118	17
82	85	4
41	57	2
37	38	4
73	107	3
189	189	16
103	104	11
105	106	11
176	176	5
112	112	18
98	118	4
75	75	4
116	118	2
183	183	19
168	168	15
113	113	6
39	39	13
152	182	2
11	11	10
77	77	8
83	83	5
173	179	2
39	40	8
95	95	6
189	190	6
18	18	10
14	14	12
3	3	13
27	27	13
134	154	5
185	185	10
171	171	13
62	62	4
41	42	4
18	99	2
80	80	7
37	37	7
68	68	5
141	142	3
110	110	6
78	84	2
164	165	7
29	196	1
111	111	3
179	179	12
146	146	6
150	150	20
108	108	11
88	88	8
149	164	6
132	132	10
142	157	2
5	5	15
147	148	5
186	186	11
76	76	8
132	133	9
115	115	8
173	174	11
23	29	4
161	182	2
50	50	13
36	36	9
65	65	6
165	165	11
178	178	10
30	106	5
174	174	14
82	83	2
16	66	2
100	107	3
13	54	1
41	41	9
170	171	6
119	142	2
4	20	4
48	127	2
140	140	6
160	160	15
28	30	4
67	67	23
188	188	9
186	187	3
194	194	23
12	12	4
155	156	7
22	34	3
145	147	4
105	105	6
160	163	13
24	25	2
114	149	6
141	149	1
86	86	6
152	152	15
109	174	2
150	164	1
25	61	9
19	43	1
38	39	4
1	1	12
195	195	9
148	197	3
140	181	2
184	184	10
131	131	8
26	26	9
0	94	4
109	109	15
53	53	7
117	117	9
55	55	8
78	79	8
118	118	2
112	158	2
101	101	12
162	164	3
148	158	2
156	156	7
187	189	1
130	131	7
153	153	7
45	46	4
133	139	7
66	66	8
1	8	3
6	7	3
184	185	3
29	29	11
143	161	1
31	31	10
132	140	1
158	170	3
7	8	8
196	197	3
161	161	12
166	179	2
78	82	5
1	17	2
56	56	9
105	117	6
157	161	2
112	113	5
119	169	2
129	138	5
96	96	5
119	119	15
74	74	10
81	81	8
18	19	4
3	97	3
17	17	10
33	98	6
116	119	2
155	155	10
50	51	1
75	76	4
140	175	2
197	197	16
53	120	4
41	64	3
182	182	10
192	192	12
20	133	2
100	111	2
35	35	10
21	55	2
38	38	4
53	54	3
154	159	2
102	104	4
93	125	2
138	139	8
40	40	2
168	169	6
167	167	3
33	33	2
127	127	10
181	182	6
112	139	1
166	166	9
158	161	4
79	79	5
108	169	1
161	168	1
166	167	2
154	154	9
23	24	2
0	1	7
100	112	4
146	163	3
106	106	12
143	143	9
137	138	5
159	161	3
38	131	1
21	59	2
122	122	13
19	19	5
36	43	1
114	150	2
135	136	4
52	52	7
1	2	9
5	6	5
28	133	3
122	138	2
187	187	6
144	157	1
100	101	6
164	164	3
114	114	5
17	34	2
51	51	14
172	179	5
164	168	4
13	13	10
161	193	3
128	128	10
187	188	5
124	141	4
16	32	2
42	179	2
79	80	5
10	14	1
196	196	11
42	44	6
32	42	1
144	145	12
152	154	2
37	78	2
139	140	2
138	185	3
2	2	5
116	117	5
90	90	3
143	185	1
47	48	1
133	138	3
182	186	4
135	187	3
10	13	1
59	59	10
120	153	2
79	143	2
44	45	5
163	164	4
125	196	3
186	188	6
99	101	1
16	16	11
19	63	7
158	159	4
125	125	3
8	42	1
102	103	4
107	168	1
139	139	3
126	127	6
4	4	4
45	45	8
49	49	10
154	160	2
83	84	2
107	108	5
177	182	1
7	7	10
157	157	8
99	106	1
189	192	3
165	166	8
28	28	3
151	151	12
154	155	8
136	136	6
29	30	3
2	7	2
15	51	2
143	146	7
55	88	4
100	181	5
109	111	2
149	156	2
87	87	4
106	171	2
141	141	8
98	98	5
107	135	3
69	69	5
153	154	5
47	47	5
125	126	4
21	28	2
122	124	3
43	44	13
161	163	3
98	130	3
40	51	1
170	185	2
10	16	1
32	32	7
109	172	4
162	195	1
36	59	2
2	3	1
64	64	3
148	148	19
191	191	11
185	186	2
115	119	3
176	178	2
86	87	3
101	110	3
133	187	2
115	139	3
40	41	2
58	58	9
61	66	5
146	167	1
154	157	1
42	55	3
123	135	3
96	97	2
169	174	6
58	186	5
95	96	2
150	151	4
79	81	3
23	23	4
84	84	5
5	8	6
190	194	2
20	21	2
108	116	3
142	142	9
124	184	2
61	61	5
100	100	4
157	158	6
109	110	2
140	152	1
1	39	3
0	0	2
109	116	5
22	23	1
149	153	3
191	192	3
104	106	2
173	182	4
106	118	2
134	134	3
22	24	3
149	160	3
31	44	1
161	164	2
41	63	2
103	115	2
182	183	1
24	24	9
103	103	3
59	60	3
8	39	4
18	30	2
98	172	2
24	28	2
2	58	4
55	58	3
159	178	2
116	135	1
74	180	4
63	63	5
129	135	1
129	131	3
63	67	1
40	73	2
170	173	2
20	20	2
69	72	3
28	29	2
98	168	1
3	39	1
33	37	1
136	151	1
102	102	6
56	57	7
20	30	1
126	126	8
43	56	2
116	152	3
159	160	2
156	157	1
70	73	2
174	176	2
125	184	3
43	137	3
180	185	1
157	167	2
114	125	1
172	177	1
114	171	2
28	170	3
135	153	3
98	119	2
67	82	3
5	7	5
126	196	1
139	155	1
164	173	2
148	179	1
48	52	2
147	147	5
97	97	13
125	183	1
22	130	1
160	162	2
26	38	3
145	145	3
173	175	1
157	164	5
116	134	2
114	121	1
71	73	1
103	159	2
188	193	4
160	161	2
60	61	2
165	170	4
113	121	1
10	11	1
145	153	1
73	73	4
35	43	2
32	169	2
178	179	2
26	60	1
148	156	1
193	194	1
77	78	5
0	2	3
156	158	2
33	34	3
121	122	3
129	132	1
142	158	2
22	38	2
10	41	1
125	185	1
154	182	1
135	143	3
45	47	2
65	67	1
105	121	1
161	169	1
85	86	3
186	194	1
71	72	5
42	43	2
26	27	1
115	183	1
74	75	1
114	115	2
9	20	3
173	173	6
135	135	3
1	5	2
2	21	3
183	188	7
103	116	1
150	159	3
62	84	1
94	95	5
11	12	3
55	56	1
17	65	2
156	160	2
160	176	1
158	158	8
164	169	3
132	134	1
71	80	1
16	17	4
42	42	2
66	67	4
22	22	6
128	183	4
131	132	1
116	116	5
54	57	1
174	181	1
11	14	1
34	35	2
71	71	3
102	118	2
5	65	1
185	188	1
140	154	3
98	102	1
134	136	6
97	98	1
165	172	3
120	125	1
3	4	3
151	159	1
101	103	2
178	180	2
141	151	1
135	142	1
165	167	1
152	153	2
150	163	1
108	111	1
125	148	1
187	193	1
38	56	1
80	81	1
119	145	1
104	131	1
89	90	1
89	89	1
4	35	1
141	150	4
173	176	2
17	85	1
149	197	1
142	148	1
63	64	1
132	139	1
54	55	1
74	87	1
141	190	1
161	162	2
85	85	3
167	168	1
188	189	1
115	150	1
174	180	2
98	185	3
95	97	3
56	125	1
115	116	1
113	187	1
175	177	1
69	71	1
57	58	2
129	147	2
141	172	2
23	31	1
27	28	2
42	51	1
140	178	1
17	18	1
173	178	2
143	145	1
0	23	1
177	177	2
185	196	2
146	161	1
114	142	3
184	186	1
67	69	2
171	187	1
143	160	1
145	146	2
147	149	1
179	183	1
40	64	1
183	194	2
143	151	2
0	191	1
122	126	1
54	56	1
185	190	1
149	163	1
78	192	1
140	165	1
73	76	1
177	178	1
140	182	1
135	137	1
36	61	1
120	197	1
103	118	2
120	146	1
99	118	1
110	158	1
138	170	1
64	115	1
5	20	2
104	111	2
107	116	1
142	156	1
14	15	1
68	71	1
96	112	1
59	64	1
76	78	1
64	76	1
60	62	1
79	86	1
23	26	1
174	177	1
145	159	1
154	161	2
140	148	1
172	182	1
35	58	1
166	169	1
153	172	1
86	89	1
84	85	1
118	168	1
142	143	1
42	108	1
26	40	1
76	142	1
133	133	1
152	163	1
18	33	1
192	193	1
19	23	1
37	39	1
7	42	1
61	64	1
140	164	1
36	40	1
7	40	1
155	173	1
35	189	1
34	190	1
116	155	1
143	144	1
52	53	1
9	16	1
16	57	1
174	182	1
102	117	1
103	105	1
