160	160	9
9	10	4
9	9	5
101	102	4
20	25	7
97	120	1
2	2	10
111	112	4
7	7	13
140	140	2
97	99	12
22	51	2
27	28	4
19	24	3
23	23	13
158	159	4
40	40	5
1	9	1
37	37	5
8	8	9
109	110	5
96	96	7
76	82	1
169	169	9
41	41	5
140	145	4
35	35	8
106	106	5
101	104	1
155	155	4
110	111	2
99	99	13
18	22	3
47	49	1
132	132	8
136	136	4
76	76	2
114	114	6
79	79	9
54	54	4
25	26	2
129	129	4
71	72	5
22	22	6
53	106	4
71	127	1
43	43	6
78	78	3
100	100	6
88	90	3
105	105	10
16	22	5
15	16	2
116	116	10
4	4	4
55	55	6
18	47	1
80	80	4
46	46	8
72	73	3
57	57	11
68	69	3
160	161	4
40	87	1
142	142	9
76	80	4
21	21	2
62	62	8
57	161	2
19	19	11
110	110	7
140	142	2
159	164	1
109	109	5
14	15	14
55	64	2
83	83	8
100	103	5
38	38	10
68	68	4
152	153	2
79	87	2
21	25	4
5	7	1
125	126	4
11	11	12
5	6	3
16	16	12
35	36	2
70	70	9
34	34	8
6	6	7
52	52	15
71	73	1
92	93	3
28	40	1
163	163	4
136	137	1
6	11	3
46	48	5
91	91	5
99	100	4
43	133	7
128	129	1
141	141	3
137	137	7
73	76	2
107	108	5
102	107	1
102	102	8
132	168	4
91	92	3
141	149	2
129	152	1
101	103	2
144	144	3
114	115	3
72	75	1
25	25	8
20	24	2
119	120	5
94	95	3
73	73	6
148	148	6
152	152	6
121	121	7
13	14	3
75	76	1
24	24	5
82	131	4
17	17	5
27	27	14
74	169	1
154	164	1
71	71	2
125	125	4
63	64	3
97	98	3
151	151	2
143	145	2
96	120	1
88	88	11
55	57	1
139	140	1
120	121	5
39	39	4
45	45	2
126	126	7
64	64	3
126	127	4
97	97	5
61	62	4
112	113	1
11	12	3
36	36	7
15	15	7
133	133	8
95	95	3
168	169	4
142	145	1
124	126	2
100	102	4
133	134	3
87	89	1
72	72	6
118	120	1
26	26	6
18	45	2
99	103	2
47	47	2
169	170	4
11	145	3
127	127	8
42	42	9
20	23	5
159	159	5
69	69	2
73	98	5
128	128	6
154	163	3
53	53	5
107	107	5
119	123	2
0	0	4
113	113	4
148	165	3
134	135	2
80	128	2
18	23	1
111	111	7
43	46	1
114	116	1
128	131	2
84	130	6
148	149	1
12	12	4
117	117	2
130	130	4
2	125	2
93	113	3
62	63	4
16	17	3
85	85	7
75	75	11
113	115	2
154	157	1
119	119	5
44	50	2
19	23	4
115	115	6
167	168	2
11	16	1
48	56	1
83	139	1
28	28	7
150	150	6
62	73	1
147	148	4
82	82	2
162	162	3
86	86	5
124	129	1
80	83	5
63	63	6
20	20	4
14	25	1
166	166	2
153	153	9
112	112	3
76	79	2
87	88	2
124	124	2
41	42	2
158	158	1
102	103	9
82	83	3
22	23	6
135	135	2
156	157	4
132	133	1
20	22	1
134	134	4
125	127	5
53	55	1
93	93	2
25	88	1
103	103	2
51	51	4
85	86	1
49	49	4
44	45	3
40	51	3
24	25	3
81	128	1
108	108	5
90	90	6
63	66	1
70	76	2
50	51	1
168	168	4
77	79	2
48	48	4
26	27	6
104	104	5
12	14	2
105	106	2
118	118	4
63	70	3
7	133	2
44	89	2
44	44	2
66	80	1
123	123	2
84	84	1
164	166	1
18	19	2
94	94	1
5	5	2
14	14	2
153	155	2
56	94	2
170	170	3
6	14	1
117	120	1
167	167	1
143	143	5
54	55	2
76	78	2
78	165	2
50	50	2
119	157	4
159	166	3
17	18	2
86	88	3
89	89	5
48	49	2
13	13	6
52	53	2
57	95	3
47	48	1
103	107	1
52	84	2
69	70	2
143	146	1
1	81	1
110	121	1
3	3	1
1	1	5
19	48	1
57	97	1
72	74	1
92	95	2
93	94	2
94	113	3
159	160	1
58	58	1
70	75	1
20	21	6
6	7	1
115	117	1
91	95	1
65	65	3
18	18	1
143	144	1
33	33	3
163	164	1
140	141	2
34	36	2
149	149	4
138	142	1
37	38	1
33	36	3
12	13	1
145	146	2
5	14	1
126	129	1
161	164	2
64	76	2
121	158	1
92	92	1
144	145	2
56	58	2
58	62	1
64	84	2
16	53	2
62	75	2
23	66	1
117	153	1
81	81	4
15	25	1
117	118	2
77	78	1
63	69	2
142	144	1
57	68	1
52	55	1
91	94	1
157	166	1
40	41	1
19	22	1
46	56	1
67	67	2
19	20	1
2	3	1
150	153	1
33	34	3
87	91	1
100	101	2
139	141	1
84	127	1
90	91	2
2	141	1
156	156	2
101	101	3
110	112	1
120	120	1
84	85	1
104	161	1
44	46	1
98	99	1
12	23	1
154	156	1
95	97	3
58	69	1
118	119	1
81	89	1
123	124	1
93	114	1
101	107	1
79	144	1
146	167	1
154	154	2
69	90	1
103	104	1
13	21	1
129	131	1
109	111	1
81	82	1
74	75	1
164	164	1
155	158	1
13	18	1
11	90	1
6	9	1
43	44	1
