36	36	9
43	44	2
169	169	15
25	25	10
115	115	4
105	105	5
163	163	10
54	54	15
141	141	6
65	65	4
156	167	1
181	182	1
134	134	4
99	120	2
102	122	6
99	99	7
161	161	14
168	190	4
135	135	8
167	167	12
101	101	13
151	151	17
86	87	4
55	55	6
39	39	9
116	116	4
1	31	1
102	102	7
123	124	6
94	94	4
24	25	9
106	106	6
58	58	7
51	195	4
162	162	11
22	22	10
9	9	9
14	50	3
160	185	2
143	143	5
104	104	7
190	191	4
113	115	2
141	151	1
194	194	12
154	154	16
152	152	7
3	5	5
119	119	3
114	114	12
103	103	13
148	148	9
48	48	5
136	136	2
155	155	12
152	157	2
105	113	2
18	19	1
79	86	2
110	110	19
144	145	3
191	191	8
130	130	15
45	45	3
142	148	1
157	158	2
128	128	10
181	181	5
43	43	10
21	21	7
23	23	6
122	123	8
165	166	3
165	165	2
162	164	2
180	181	4
30	30	6
63	63	3
79	79	8
64	64	1
177	177	10
71	72	1
168	168	4
3	3	9
115	116	5
111	111	6
41	41	15
47	47	5
173	173	10
28	29	11
176	177	8
160	160	9
37	37	6
122	124	1
68	68	4
59	59	3
150	151	3
14	14	10
112	119	3
172	173	6
90	90	3
172	172	8
1	1	4
67	67	2
196	197	3
174	176	1
13	13	6
173	174	1
53	55	1
171	171	4
78	78	7
127	127	6
142	142	7
171	186	4
104	105	2
70	70	7
123	123	7
31	40	3
183	183	10
11	70	3
58	75	1
184	184	12
132	132	9
185	186	3
12	28	3
46	46	12
106	107	6
35	36	2
108	108	6
176	176	3
31	31	12
42	42	6
153	154	7
0	2	2
145	145	4
168	169	11
161	162	15
156	158	1
107	107	5
41	43	2
27	31	1
1	26	4
174	175	3
69	70	1
2	3	2
126	127	5
146	147	5
192	192	10
169	191	2
42	182	2
32	44	2
93	93	2
149	150	5
11	15	2
38	38	5
93	94	4
190	190	10
62	62	2
2	2	4
61	61	6
182	182	10
102	114	1
43	45	1
6	7	2
159	159	8
72	98	1
113	113	16
9	10	1
129	159	2
17	18	4
104	107	2
14	15	5
167	168	5
102	116	1
115	118	4
193	193	2
139	139	7
169	170	4
179	180	3
186	186	10
185	185	8
39	40	2
5	6	1
18	18	9
8	8	9
179	179	14
33	33	3
106	110	1
164	165	2
120	120	3
24	24	8
27	27	9
26	27	8
121	122	1
164	164	10
25	36	4
31	32	2
64	65	2
125	125	2
147	148	2
124	124	9
47	48	8
95	96	5
158	158	4
178	181	3
108	110	3
103	116	5
195	195	7
160	162	5
1	7	2
19	21	2
51	51	15
40	41	6
26	26	7
115	122	1
10	18	2
5	16	1
53	57	4
67	68	2
121	121	1
129	129	6
96	96	7
146	146	3
116	130	4
150	150	5
62	63	3
189	190	4
29	29	5
104	121	3
101	103	3
69	69	8
6	6	3
53	53	5
99	100	1
131	132	1
117	118	2
189	189	6
38	39	2
191	192	3
50	51	4
7	61	1
83	83	3
151	174	1
184	185	2
107	123	4
155	157	1
34	35	1
188	189	3
17	17	11
26	28	2
134	135	3
105	106	3
178	178	2
131	131	10
171	172	4
131	143	2
187	187	3
26	34	1
122	122	7
120	122	5
31	43	1
194	195	3
89	90	4
146	148	2
27	28	1
132	133	2
192	193	6
137	139	1
80	80	1
52	52	4
133	134	3
155	156	12
157	160	1
180	180	14
72	72	6
153	153	2
112	112	8
133	139	3
53	54	1
111	132	1
104	106	4
143	159	2
156	156	9
166	166	5
98	107	2
165	167	2
78	88	1
170	197	2
85	85	5
150	157	2
152	155	1
135	136	2
174	174	6
45	47	2
157	157	15
149	149	4
76	76	6
30	67	1
114	122	4
118	118	2
142	150	3
190	192	5
32	65	1
103	104	1
49	67	2
2	172	2
106	124	1
40	40	4
28	28	6
102	121	1
170	172	2
151	152	3
50	50	5
32	32	6
109	110	6
100	122	1
110	111	5
104	152	3
12	12	7
1	37	1
98	98	3
114	115	5
5	5	9
176	178	2
23	38	2
13	46	1
100	102	1
177	178	5
141	161	1
128	129	2
18	24	4
136	149	3
77	77	4
34	34	4
101	122	3
103	114	4
118	119	3
128	138	1
107	152	1
148	149	6
13	14	3
43	57	3
167	190	1
150	156	4
123	127	2
101	102	1
137	137	4
59	60	1
132	158	1
30	31	2
182	183	3
7	7	1
85	94	4
40	42	1
135	137	2
42	43	2
86	86	1
100	119	1
104	118	1
112	113	4
2	4	2
163	183	1
50	69	1
114	120	1
161	175	5
28	31	3
164	180	1
36	38	3
160	167	2
159	160	1
97	98	1
188	188	4
54	55	1
73	88	1
156	157	3
23	44	2
82	84	2
10	19	2
194	196	2
94	95	2
174	182	1
95	116	1
36	39	1
135	141	4
144	144	1
9	11	2
141	142	3
173	175	1
125	126	2
160	166	1
112	143	2
118	130	2
149	151	1
19	19	1
161	165	1
4	46	1
156	187	1
186	187	4
197	197	3
127	128	4
144	146	1
16	17	2
152	153	2
109	109	4
44	44	2
11	11	3
20	22	1
0	5	1
164	177	3
10	13	1
130	154	1
158	170	1
36	37	2
138	150	1
15	15	1
126	126	3
153	157	2
1	2	4
136	148	1
49	50	2
1	16	1
130	131	2
85	86	1
71	73	1
3	4	1
119	120	2
0	1	1
10	14	1
0	8	1
158	192	1
6	8	2
0	0	1
102	115	1
65	66	1
57	57	3
124	151	2
170	170	5
185	193	1
55	70	1
20	20	4
138	161	1
4	4	3
32	33	2
169	171	1
68	71	3
97	118	1
25	35	1
78	83	1
30	66	1
105	172	3
8	16	1
1	15	1
10	11	2
100	101	2
140	144	1
140	140	1
56	56	2
105	147	1
33	37	1
159	161	1
73	73	1
143	193	1
7	26	1
2	26	1
5	25	1
43	72	1
149	188	2
196	196	4
145	146	3
166	190	2
108	109	2
62	68	1
37	38	1
133	147	1
175	176	2
117	117	3
87	87	1
58	65	2
170	196	1
49	49	2
16	16	1
88	88	1
115	117	1
166	167	1
180	187	1
153	155	1
71	71	1
30	32	1
28	68	1
133	141	1
111	137	2
106	148	1
37	39	1
134	147	1
8	70	1
154	190	1
10	15	1
159	168	2
176	197	1
147	147	2
99	102	1
27	38	1
72	97	1
105	107	1
169	192	1
164	166	1
143	194	1
133	133	1
25	38	1
42	71	1
142	143	1
184	186	1
107	108	1
10	10	1
178	179	1
136	137	1
