34	37	2
152	153	2
144	145	6
54	54	8
5	6	1
19	19	1
55	55	9
42	42	8
153	156	2
89	89	2
4	4	16
87	89	2
5	5	12
8	8	11
79	79	1
149	149	11
131	131	18
18	18	7
23	23	4
24	24	11
106	106	3
116	117	3
85	85	4
151	151	17
121	122	5
146	147	10
23	27	2
68	70	3
25	27	4
98	98	13
103	106	4
68	69	5
11	22	2
17	17	10
70	70	4
101	102	5
39	39	7
72	72	2
44	44	5
129	129	5
140	141	1
94	94	9
130	130	7
14	14	9
93	139	2
99	100	1
47	47	5
2	2	11
135	135	10
54	55	4
107	107	15
99	99	16
157	158	1
18	19	8
22	22	8
50	50	6
51	51	3
9	13	2
86	87	5
33	33	9
109	109	4
23	24	2
66	66	4
28	28	4
127	127	5
48	63	1
32	32	2
87	87	6
20	20	4
121	121	13
12	12	5
154	154	1
88	89	7
122	122	5
110	110	12
47	157	2
103	103	3
78	78	5
67	68	2
23	25	2
31	31	4
138	138	3
40	40	5
129	134	1
140	156	1
30	31	1
53	54	7
12	13	7
150	150	6
134	135	4
145	145	3
111	111	5
50	76	2
100	100	14
104	105	2
111	112	3
115	115	1
14	28	5
67	67	4
57	71	1
42	43	4
25	25	4
153	153	1
125	125	3
14	16	2
124	124	2
78	96	2
35	36	3
73	73	7
53	53	8
19	125	2
117	117	5
37	38	1
93	93	9
102	102	4
65	66	1
21	25	2
21	21	9
71	71	6
48	48	5
75	75	8
52	52	2
148	148	10
156	157	1
119	142	1
156	156	9
152	152	3
121	123	4
112	113	2
155	155	3
64	64	3
69	69	3
92	93	2
91	91	9
110	112	1
37	37	3
130	131	3
28	37	3
102	107	3
0	0	7
71	72	3
49	49	4
27	27	2
6	6	3
96	96	1
16	16	2
95	95	2
26	53	1
143	143	5
108	109	2
42	45	2
123	123	8
41	41	5
94	95	4
109	110	1
116	116	6
18	22	2
134	134	5
47	51	2
154	156	2
90	91	2
67	69	2
15	15	4
14	15	3
9	21	1
91	120	1
124	127	1
26	32	1
26	26	4
75	152	1
87	88	2
80	91	1
15	18	3
88	88	2
74	74	1
92	92	5
112	112	4
114	114	3
48	54	2
90	90	3
9	10	1
123	125	3
109	119	1
128	128	4
47	79	1
50	51	3
72	90	5
84	84	1
63	63	2
7	7	2
116	119	3
18	53	2
68	68	4
139	140	1
137	138	1
113	113	1
19	22	2
6	7	2
29	29	1
7	8	3
34	45	2
85	90	3
119	120	1
11	11	1
25	33	1
34	34	2
138	139	1
26	27	1
44	45	3
13	14	2
81	81	3
108	108	4
64	65	2
132	133	2
116	132	2
77	78	1
48	53	4
101	148	1
82	86	2
1	1	4
31	32	2
11	41	1
13	21	1
62	70	1
83	85	1
30	30	1
86	86	4
8	40	1
96	107	1
55	72	1
80	80	3
1	3	2
97	97	1
56	57	4
36	86	2
69	70	2
82	82	1
35	35	2
28	29	1
3	3	2
101	101	2
46	47	2
83	86	1
65	65	1
7	13	1
105	105	1
82	83	1
93	94	1
47	48	2
152	155	1
57	57	2
119	121	1
92	121	2
95	121	3
70	71	1
139	157	1
104	104	3
38	39	1
146	146	1
157	157	5
10	10	1
139	151	1
45	45	2
120	121	2
27	124	2
148	149	2
105	148	2
137	137	1
13	31	1
29	30	1
13	13	1
144	144	2
74	75	1
123	127	1
1	2	1
85	86	1
120	120	1
90	124	1
136	137	1
81	82	1
17	33	1
16	86	1
36	36	1
62	67	1
12	21	1
47	80	1
132	132	1
113	114	1
67	70	2
154	155	1
102	103	1
66	71	1
2	3	1
66	72	1
129	130	1
46	75	1
