27	27	14
25	28	3
53	81	1
143	144	6
88	88	6
98	100	4
105	109	2
134	137	5
176	176	6
172	172	7
165	166	8
93	94	3
107	110	4
16	17	3
66	67	8
35	36	4
174	174	9
116	117	3
57	57	2
123	172	1
76	76	2
113	119	3
128	155	2
24	25	14
15	44	6
40	42	1
73	73	3
13	13	11
23	23	13
135	148	1
161	161	1
165	165	6
96	96	4
99	99	7
18	22	3
10	10	12
8	9	6
165	167	3
0	1	3
83	84	3
140	140	10
106	106	4
142	142	14
25	26	4
32	33	9
35	35	15
154	155	1
6	16	1
58	59	1
60	60	4
54	77	4
64	64	4
90	90	7
118	118	9
162	162	6
167	167	8
1	1	13
83	83	14
12	15	1
4	4	4
45	45	6
14	14	2
33	34	2
6	8	2
40	40	5
22	22	6
98	98	2
15	16	8
26	28	2
38	38	12
91	91	2
158	178	3
2	2	10
22	23	5
12	13	2
31	35	2
136	136	6
175	175	6
61	62	6
126	127	2
5	7	4
12	12	3
21	22	2
136	137	2
175	178	6
25	25	6
20	22	3
115	116	4
2	22	1
135	135	5
139	177	3
154	159	2
110	110	2
67	74	2
98	101	2
75	75	4
53	53	7
56	56	8
154	157	3
5	41	2
152	166	1
13	41	3
149	149	3
2	7	3
128	128	4
108	109	1
43	44	4
68	68	2
129	129	11
144	151	2
30	42	5
26	26	13
96	97	6
117	121	5
156	156	5
29	29	8
161	163	2
8	8	6
96	115	1
11	34	3
19	20	8
178	178	3
5	6	7
18	18	7
59	59	4
153	153	7
3	3	13
10	55	3
7	24	2
127	128	3
95	95	4
110	127	1
91	92	3
169	169	9
13	15	2
0	0	3
159	161	1
72	72	4
30	30	7
84	104	1
63	63	2
119	119	2
52	52	4
138	138	2
33	33	13
80	80	5
15	15	22
114	174	7
94	94	5
55	56	4
152	153	6
39	40	1
155	177	3
34	35	5
65	117	3
28	28	6
4	8	7
36	38	9
145	151	2
66	66	8
65	65	3
55	148	5
19	42	1
12	33	3
54	104	3
14	16	4
141	141	7
153	154	4
14	55	3
134	134	7
163	163	4
18	35	1
9	9	8
108	108	1
31	31	7
103	103	4
5	5	4
77	77	3
127	127	6
34	34	9
139	154	3
90	101	1
16	23	5
122	122	12
65	66	4
179	179	4
97	136	5
6	6	9
115	148	3
115	115	1
39	39	10
80	82	4
92	93	3
78	78	10
19	19	4
146	170	1
18	19	4
140	142	3
6	7	3
130	130	5
76	77	4
160	162	1
128	154	3
145	145	2
104	104	3
36	37	2
44	44	7
84	85	7
81	81	10
50	50	3
3	11	2
121	122	3
125	125	3
120	121	2
12	42	2
58	58	8
30	33	5
6	44	2
21	21	3
102	102	6
27	28	2
61	61	3
71	71	5
10	56	1
126	180	7
11	11	4
0	41	7
32	32	6
24	24	4
151	151	3
103	106	4
82	82	3
132	148	2
3	8	4
67	101	1
111	156	1
54	90	3
96	98	2
63	65	7
131	142	2
57	72	1
7	7	5
139	139	2
132	133	1
148	148	5
113	113	3
11	86	1
146	151	2
149	150	6
15	20	1
18	49	3
117	117	2
78	79	5
163	165	1
110	112	2
120	120	9
6	28	2
150	152	1
128	129	2
9	10	1
20	43	4
62	63	3
16	16	3
37	37	5
79	79	3
2	8	3
157	160	2
43	43	2
163	169	1
113	128	2
20	20	4
65	93	2
54	54	4
166	170	4
116	147	4
0	8	2
18	20	1
63	72	1
140	141	2
168	168	2
131	131	4
131	166	5
74	74	4
114	114	5
107	112	1
30	35	3
151	152	1
17	17	4
160	164	1
96	158	3
63	67	2
108	145	5
167	170	2
104	109	3
171	173	1
67	67	1
123	124	5
121	121	2
17	27	2
113	116	2
8	46	2
105	105	3
17	25	2
107	107	2
94	108	1
171	171	2
31	32	4
162	163	1
66	89	3
3	4	2
84	86	1
10	90	1
14	33	4
56	57	2
66	86	1
146	146	2
62	71	1
80	81	2
15	19	2
9	16	1
22	42	1
166	166	2
160	168	1
16	21	1
13	14	2
93	93	7
68	87	1
146	163	1
106	110	4
91	100	1
180	180	1
173	173	2
92	94	1
26	27	1
61	87	2
85	85	5
106	107	1
108	148	5
145	146	1
155	155	3
34	38	2
19	43	1
122	124	1
86	86	2
88	89	4
97	97	3
155	156	4
106	109	3
62	62	1
154	178	1
111	155	2
32	92	1
93	98	1
89	89	1
97	99	3
16	19	3
82	83	2
42	42	2
65	90	1
76	136	2
158	159	2
85	111	2
151	174	1
3	26	1
121	124	5
36	36	4
15	22	4
156	178	2
113	114	1
110	111	3
77	83	1
11	18	1
91	93	1
113	174	2
103	107	1
142	143	1
111	146	3
66	68	1
168	180	2
99	100	1
131	133	1
149	162	1
64	93	2
124	143	1
61	82	3
67	68	2
44	49	1
124	169	1
159	159	1
3	33	1
73	83	2
170	170	2
81	83	1
58	174	1
51	51	1
119	129	1
59	60	1
8	15	1
86	87	1
116	116	2
114	130	1
1	16	1
16	20	1
160	170	1
141	142	1
109	110	1
2	4	3
104	105	1
41	42	1
159	168	1
112	112	1
112	153	1
14	19	1
150	150	1
142	145	1
23	24	1
20	42	1
30	31	1
52	53	1
67	116	1
63	66	1
17	18	1
54	58	1
124	126	1
52	76	1
11	33	1
67	102	1
102	180	1
115	135	1
