67	67	19
52	52	3
71	72	7
5	5	6
81	83	3
6	8	1
73	73	17
83	83	11
50	50	11
28	28	9
6	54	2
20	20	10
59	59	7
9	31	4
85	85	19
25	25	9
26	26	1
75	84	1
47	47	2
64	65	4
54	54	8
17	17	7
49	49	2
47	48	13
10	10	8
72	72	4
3	3	28
51	51	9
9	12	4
56	56	10
31	31	10
49	51	5
35	35	5
73	74	1
80	81	3
24	25	4
20	22	3
55	55	10
7	8	4
27	27	5
1	1	4
2	2	3
69	69	3
8	8	3
9	62	7
59	65	4
66	66	9
50	51	4
23	23	12
9	9	3
8	58	4
89	90	4
16	16	10
11	11	9
87	87	4
0	0	7
53	53	12
65	65	10
68	74	5
55	56	4
78	78	7
61	62	1
62	63	2
61	61	8
2	3	3
8	59	2
75	75	21
9	61	1
46	46	4
79	80	7
80	80	5
58	76	3
86	86	6
82	82	6
21	21	4
81	82	3
19	19	5
19	20	5
64	64	1
25	66	2
64	66	3
22	22	10
84	84	7
48	49	6
50	53	4
81	81	6
57	57	14
28	30	3
26	27	2
79	79	7
72	73	12
76	76	3
68	70	2
89	89	10
78	82	3
6	7	2
78	81	4
3	21	2
71	71	8
48	48	8
9	19	5
58	58	10
68	68	8
12	12	11
71	74	2
23	24	10
85	86	2
54	56	5
54	55	3
77	79	4
60	60	2
62	62	9
29	29	2
24	24	8
1	30	1
11	12	11
16	17	1
86	87	13
59	61	2
11	16	2
14	14	1
77	78	1
13	14	2
59	62	2
60	61	1
7	7	4
63	64	3
78	79	3
4	27	2
66	67	2
12	58	2
4	31	2
4	4	6
82	83	3
47	66	6
27	66	2
10	31	4
75	76	12
8	10	3
51	54	2
59	60	4
25	26	1
52	76	1
7	30	2
13	13	6
3	4	7
27	28	9
15	15	1
63	63	1
76	78	1
59	66	1
83	84	7
30	31	2
58	59	5
58	83	2
26	66	2
53	54	3
70	71	4
67	68	3
7	20	1
74	74	4
70	70	5
30	61	3
76	77	1
21	55	2
1	2	1
46	73	1
6	17	2
3	72	1
9	10	1
51	52	3
28	29	1
12	13	2
55	57	2
27	58	2
5	6	3
21	52	1
30	30	4
88	89	2
25	52	1
18	30	2
9	59	1
88	88	2
9	66	1
20	52	3
6	6	1
11	28	1
22	23	1
3	24	1
49	50	3
51	76	1
56	57	2
84	85	2
29	30	3
10	11	1
48	57	1
24	26	1
5	49	1
7	22	1
52	53	1
12	17	1
74	75	1
48	66	1
8	20	1
9	20	1
63	65	1
68	73	1
