121	122	9
27	27	14
81	83	4
82	82	18
78	78	20
31	31	7
47	47	34
76	76	17
130	131	4
128	128	7
0	1	2
65	65	19
102	102	7
109	110	8
23	25	11
105	105	9
127	131	5
8	9	6
29	29	12
68	68	33
32	32	22
71	71	19
127	127	7
69	76	2
125	125	16
65	66	14
78	80	4
83	83	23
78	95	1
63	64	3
72	72	30
60	60	20
33	34	5
130	132	3
85	85	12
116	117	7
17	17	28
119	119	13
129	129	14
11	11	13
38	42	1
8	8	22
74	74	18
18	18	3
19	19	10
94	124	1
69	69	8
43	43	5
1	2	9
9	9	21
36	37	4
122	122	13
40	40	14
17	44	4
111	111	3
95	112	1
44	44	21
92	93	6
71	75	1
14	14	6
83	85	8
82	86	4
45	45	10
48	90	1
21	21	12
25	25	7
25	30	4
91	108	4
75	75	33
80	80	5
6	6	8
118	118	9
9	33	2
84	84	7
18	72	3
80	81	2
71	119	2
48	48	13
12	12	13
18	44	5
64	64	23
0	0	7
77	77	17
38	38	4
114	114	14
103	104	6
16	16	5
36	36	10
5	38	5
111	118	4
12	13	7
117	122	2
81	81	16
131	132	7
123	124	7
99	100	5
33	33	6
9	10	3
63	63	17
59	114	1
134	134	7
112	113	10
79	79	7
94	95	6
11	34	4
39	81	4
90	90	6
74	75	6
120	120	11
27	28	6
46	46	9
61	61	30
125	126	5
115	115	6
108	108	9
87	87	6
5	5	3
100	100	13
88	96	5
78	85	9
20	20	14
79	80	3
13	28	1
117	117	10
47	99	6
34	40	3
17	26	3
91	91	1
30	113	1
3	3	3
8	58	6
119	122	2
5	7	3
97	100	1
113	113	11
11	48	7
12	36	3
131	131	7
76	77	5
20	31	2
7	62	2
17	45	3
84	86	2
35	43	5
103	103	3
78	83	3
86	86	19
92	92	8
10	71	3
30	31	6
28	28	5
124	124	11
94	94	4
98	98	3
11	33	4
3	4	7
2	8	3
59	59	4
70	70	5
126	126	8
57	58	6
12	73	1
99	99	4
131	133	6
95	95	7
112	112	13
110	110	8
28	94	2
40	41	3
128	130	1
101	101	9
13	35	2
13	13	11
16	29	3
116	131	1
37	37	2
28	116	1
109	109	3
97	97	4
83	87	1
35	35	10
11	35	2
84	85	10
43	101	7
57	57	6
101	102	6
35	45	1
5	6	2
63	72	3
22	36	4
18	32	3
30	32	3
30	30	11
119	120	3
62	62	15
105	109	4
60	61	8
15	15	3
10	11	1
20	22	2
66	66	10
20	81	2
111	112	3
26	26	14
1	1	15
11	113	3
39	42	2
44	45	2
81	82	3
66	95	1
58	58	8
77	82	1
123	123	9
77	85	4
72	73	2
7	7	9
10	10	16
10	60	1
57	75	2
83	84	4
115	133	1
25	61	3
39	43	2
71	72	6
73	73	5
41	48	1
116	116	17
72	74	2
18	64	4
46	47	2
56	56	5
2	102	1
67	67	12
47	48	5
10	83	4
45	46	5
49	49	3
46	71	1
68	76	2
55	56	4
31	112	3
120	121	4
38	103	5
17	36	6
32	33	4
115	116	4
132	133	2
129	130	1
108	118	1
66	86	2
12	46	2
122	123	4
96	99	4
2	2	5
25	48	4
106	107	7
87	88	3
19	36	1
127	130	2
4	7	6
34	34	8
21	22	3
113	116	2
106	106	10
16	17	1
17	37	2
100	101	3
25	108	2
37	38	9
92	125	2
29	30	5
6	58	1
77	78	4
41	50	4
20	42	2
41	43	1
4	4	3
66	67	1
17	18	4
113	114	3
27	99	2
27	47	4
133	134	2
89	92	1
93	93	4
56	57	1
81	85	1
78	79	4
66	87	1
6	8	2
67	68	2
18	19	3
78	86	2
41	41	3
25	26	4
24	82	2
79	82	1
89	89	8
15	23	1
35	36	5
96	97	6
91	92	4
32	102	3
25	47	4
126	127	2
36	46	4
93	121	1
22	22	2
114	116	1
128	131	3
4	6	2
34	37	2
3	101	2
10	117	2
48	57	1
133	133	1
20	28	2
5	11	2
90	91	1
82	83	2
15	60	6
68	69	3
97	98	4
46	63	1
45	99	3
12	45	2
91	96	4
14	15	2
107	107	2
87	95	3
24	24	4
45	100	1
57	61	4
23	73	2
89	95	2
26	80	1
94	121	2
102	103	1
4	22	1
88	92	3
38	39	5
40	42	3
125	130	1
79	81	1
87	94	1
91	93	2
44	76	3
82	84	1
66	84	1
90	92	2
68	75	2
55	55	2
42	42	1
33	102	2
85	86	1
11	93	4
45	77	1
10	19	1
77	96	3
20	21	2
13	14	3
132	132	2
62	74	3
35	70	1
70	74	1
12	74	3
39	40	1
94	96	1
128	129	2
43	44	1
88	89	1
84	123	1
25	100	3
10	101	1
4	101	1
10	70	1
63	75	3
88	94	1
93	94	1
130	130	1
10	45	1
41	54	1
34	35	1
34	60	2
61	72	1
43	45	1
5	36	1
32	36	2
97	99	1
63	69	1
45	64	1
11	103	1
10	85	2
5	89	1
85	90	1
20	37	1
15	26	1
75	76	2
44	46	1
42	43	1
57	100	1
4	11	1
31	33	1
89	94	1
