45	45	8
4	26	3
17	17	13
40	40	23
20	21	10
73	73	10
51	68	1
59	59	10
71	71	12
52	53	2
26	26	16
63	63	12
34	34	8
36	36	8
78	78	11
17	18	2
16	16	11
11	14	1
7	7	20
43	43	4
57	62	2
29	29	12
37	37	31
27	28	5
30	45	2
46	46	7
72	72	11
32	32	7
79	79	12
31	31	8
80	80	10
54	54	14
57	58	6
6	6	20
12	12	8
4	4	20
64	64	23
48	48	15
17	19	1
75	75	10
41	41	16
6	8	8
25	25	5
64	72	6
66	66	31
20	64	2
56	56	11
11	11	6
32	33	19
16	25	3
65	67	2
33	33	21
46	47	4
42	43	4
68	70	2
15	15	16
42	42	16
68	68	10
41	55	3
13	15	1
53	53	10
57	57	18
50	51	5
76	76	6
26	42	2
5	6	4
46	74	3
77	77	11
19	19	8
10	55	4
8	8	5
10	10	14
20	20	6
16	17	5
21	46	2
51	51	3
75	76	5
9	55	1
42	55	5
9	9	12
21	21	11
58	58	9
40	41	4
30	30	12
52	52	7
55	55	14
25	30	2
60	60	5
66	67	7
49	49	11
54	55	5
74	74	16
79	80	3
39	39	24
65	71	6
53	54	9
20	45	5
26	47	1
67	67	11
69	69	10
63	64	1
7	8	3
8	12	2
27	27	15
30	43	2
35	35	5
65	65	10
27	73	4
2	2	7
14	60	1
50	54	5
31	32	3
4	5	2
13	14	10
69	70	5
5	64	5
40	65	2
39	40	5
74	76	4
11	12	12
38	38	11
10	64	6
67	68	13
9	10	2
28	36	3
14	15	4
64	65	6
21	25	2
35	36	4
21	31	4
50	50	11
73	74	7
62	62	9
47	48	5
2	27	3
67	70	2
25	29	3
2	15	1
14	14	11
70	71	7
51	52	5
19	20	6
59	60	1
5	5	6
36	45	3
7	64	1
50	52	8
60	61	5
13	13	12
36	37	1
65	70	1
47	47	5
68	69	5
48	55	3
9	56	2
44	44	3
10	65	2
55	56	4
3	3	11
8	9	5
38	39	5
12	15	2
51	63	4
64	71	4
10	12	7
1	1	1
1	3	1
57	59	1
49	54	1
28	31	3
70	70	5
8	11	2
25	33	3
6	7	1
75	78	2
34	47	4
13	70	3
41	42	1
18	18	6
42	56	1
33	47	1
28	28	7
71	72	3
29	33	2
74	75	2
37	38	3
61	61	5
0	0	2
11	13	1
68	71	1
1	2	3
26	36	2
21	22	2
49	50	1
48	59	1
17	20	1
15	19	1
9	65	2
6	65	1
45	46	1
18	21	1
15	26	1
46	79	1
5	62	1
34	39	1
28	41	2
77	78	2
48	65	1
7	65	1
62	63	1
30	32	1
12	21	1
1	4	1
58	60	1
16	29	1
32	46	1
12	71	1
21	35	1
80	81	2
8	13	1
50	62	1
