104	104	9
32	61	2
84	84	12
82	85	7
83	108	1
26	56	1
56	57	8
52	52	13
61	62	7
48	48	8
42	42	15
43	44	12
37	37	16
86	87	13
88	88	18
77	82	1
66	66	18
28	28	8
79	79	28
73	75	3
68	68	14
100	101	1
96	97	7
35	68	2
85	87	3
34	34	11
50	112	2
61	61	7
67	67	25
55	93	3
109	109	16
89	91	10
78	78	12
65	67	2
27	29	3
92	101	4
30	30	18
100	100	11
27	27	24
95	96	13
112	113	8
76	98	17
26	27	7
24	27	3
45	45	23
37	40	6
85	85	19
44	45	9
64	64	13
54	55	8
54	96	1
82	82	6
97	97	12
106	109	7
53	100	2
72	73	7
104	106	6
26	26	6
29	59	4
108	108	20
112	112	11
106	107	6
58	71	1
86	111	3
85	99	3
70	70	16
47	47	15
61	82	1
113	113	9
55	55	7
102	102	12
110	110	22
36	36	10
93	93	9
66	86	3
64	65	13
102	107	2
32	32	5
60	60	10
29	29	6
38	39	2
75	75	15
78	92	4
58	96	2
63	63	11
34	37	1
103	103	23
22	25	7
56	56	5
31	31	16
55	84	3
90	91	10
46	94	3
51	52	4
57	57	5
108	110	4
62	65	4
35	37	4
82	103	1
76	76	10
43	60	2
36	68	2
87	88	1
63	69	3
58	69	2
35	35	21
90	90	11
25	25	6
107	107	11
96	96	10
50	51	12
101	101	7
62	62	12
35	40	2
46	46	18
51	100	4
40	40	15
100	106	11
48	83	7
65	65	10
48	51	2
44	44	20
81	84	2
89	89	18
54	58	6
71	71	6
94	96	9
50	50	10
58	59	3
46	87	1
23	59	3
78	81	1
38	74	3
100	103	6
95	95	4
38	38	14
78	83	5
54	62	1
81	81	16
27	97	3
65	108	3
30	31	4
55	57	10
20	21	2
59	97	1
29	30	8
44	73	1
73	86	2
69	70	3
71	97	3
24	24	6
82	108	7
59	59	6
74	75	5
23	25	2
53	53	10
88	89	3
80	104	4
73	73	11
99	100	5
65	66	8
87	87	10
48	77	4
80	80	14
68	69	5
97	98	7
104	105	6
66	67	6
46	56	1
32	34	4
40	59	4
41	41	9
114	114	3
23	60	2
20	20	4
81	94	7
74	76	2
59	68	4
37	107	2
58	58	5
80	81	1
94	94	3
33	33	7
28	91	2
46	57	6
44	115	1
48	50	1
59	98	1
37	38	2
88	90	6
58	94	2
22	28	3
59	76	4
27	28	7
58	60	5
89	90	2
72	78	4
50	84	3
25	93	3
47	48	4
50	83	4
77	78	2
22	23	1
106	106	16
78	93	1
51	51	10
77	77	6
35	39	1
60	78	1
49	77	2
40	43	2
59	72	3
53	57	2
22	22	12
43	43	9
54	54	7
74	74	8
105	105	10
101	102	4
105	107	3
21	68	1
76	99	2
69	69	14
50	81	3
88	91	4
56	95	1
27	93	3
36	69	5
91	93	3
65	70	3
43	50	3
38	73	5
96	98	2
47	84	2
62	70	2
32	33	4
109	110	5
74	106	6
29	96	1
29	75	3
55	59	3
39	39	4
94	95	3
36	39	4
110	114	1
60	71	2
99	99	8
51	55	5
97	112	2
53	68	1
52	111	1
49	49	5
67	86	3
23	27	1
54	57	2
83	83	1
50	55	1
98	98	7
75	96	1
73	74	2
28	71	3
86	86	9
56	92	3
92	92	10
51	93	4
86	93	2
111	111	7
103	107	1
30	86	1
47	85	1
52	58	1
46	93	3
108	112	1
26	107	4
70	87	2
57	86	3
83	84	4
54	68	3
84	85	2
41	110	1
97	107	2
77	98	2
25	95	2
36	60	3
48	49	4
79	80	1
48	97	2
54	97	2
80	91	4
22	60	2
70	76	4
85	95	2
79	89	1
73	76	1
33	61	4
73	96	3
70	86	1
63	65	2
23	23	3
99	111	2
91	91	11
82	101	4
63	64	5
21	21	6
56	71	1
85	103	1
60	72	1
45	49	4
83	107	1
102	108	3
60	69	1
35	38	3
25	89	4
80	93	1
82	84	1
52	53	1
36	37	1
53	72	4
47	93	1
55	71	4
59	73	1
35	36	6
110	111	3
60	77	3
99	101	3
35	48	1
42	74	2
92	93	1
85	111	2
38	49	1
50	114	3
30	44	1
95	99	4
100	102	3
75	90	1
82	102	2
70	71	1
64	90	1
63	68	2
58	62	2
47	86	2
41	99	2
59	60	3
29	31	1
20	65	1
78	79	6
53	93	1
107	108	1
53	54	3
31	32	2
55	68	5
51	112	3
55	95	3
55	58	1
98	107	1
24	94	4
69	72	2
22	59	6
19	19	2
28	94	1
24	55	2
102	103	8
32	66	1
85	108	2
33	41	2
93	94	1
100	104	1
43	91	2
85	86	3
41	76	2
49	73	1
57	94	2
67	68	2
105	109	2
30	75	1
90	92	3
47	95	2
72	72	4
61	85	2
44	90	1
106	108	1
46	86	1
74	77	2
47	82	1
88	92	1
40	77	2
72	86	1
55	69	2
111	113	1
47	49	2
30	93	1
40	41	4
79	81	3
54	85	2
52	57	2
71	75	1
75	80	3
68	72	1
76	77	2
104	108	4
39	73	1
74	79	2
32	60	1
39	41	1
105	108	2
60	65	1
40	72	2
51	57	3
83	85	5
56	59	1
67	82	6
86	98	1
95	98	2
52	84	3
63	70	1
70	72	3
69	76	2
42	44	1
109	111	1
111	112	2
47	97	1
57	89	1
22	29	1
47	83	1
32	80	1
30	43	2
25	99	1
21	22	2
30	87	1
34	38	1
42	43	1
67	69	1
37	42	1
73	98	1
53	111	2
98	111	1
93	97	1
114	115	1
34	35	1
74	90	1
33	75	2
57	103	1
54	94	1
32	86	1
101	103	1
41	48	2
60	81	1
43	111	1
86	91	1
76	78	1
73	105	2
54	56	1
37	109	1
92	112	2
58	97	1
81	103	1
63	66	2
24	25	1
74	89	1
81	82	1
107	113	1
43	88	1
81	108	1
27	30	1
46	47	1
53	56	1
44	50	1
23	24	1
97	111	1
59	95	1
81	83	1
96	99	1
52	60	1
51	102	1
