37	37	3
80	80	7
25	31	3
51	51	11
104	104	8
92	92	13
77	77	6
21	27	7
40	40	15
80	81	2
70	71	1
84	84	5
76	76	7
48	48	5
61	61	3
32	34	6
42	44	5
31	31	10
38	38	4
75	75	15
101	109	4
42	42	17
54	57	2
94	94	5
46	46	5
90	90	8
99	99	6
106	106	8
86	86	6
42	49	2
60	60	6
44	44	8
28	28	8
94	95	6
81	82	3
46	68	1
34	34	5
87	87	2
21	21	12
66	69	2
24	24	3
47	48	7
105	105	7
74	74	10
67	67	3
91	91	3
95	95	7
93	93	6
29	29	13
84	87	3
32	32	5
48	109	4
60	75	4
19	20	3
107	107	1
59	60	1
91	104	4
64	66	2
74	75	3
110	110	7
103	103	8
61	80	5
45	45	3
113	113	8
69	69	9
25	26	4
71	89	3
103	107	3
68	69	2
63	63	2
83	83	6
68	68	3
102	102	2
77	78	2
40	42	2
79	79	2
63	104	2
94	98	2
70	70	3
59	59	2
58	59	5
74	96	2
101	101	5
46	47	2
61	62	3
97	97	4
52	52	1
72	98	6
108	108	5
57	58	3
41	41	2
30	30	5
87	88	1
81	81	3
75	98	2
44	45	3
72	72	7
39	41	1
73	76	3
76	77	1
79	81	2
66	66	1
77	79	1
36	36	4
19	19	2
98	99	3
20	24	3
104	106	1
97	98	3
53	55	4
43	48	2
46	74	3
42	46	1
82	83	2
92	95	2
35	41	1
73	75	1
109	109	5
38	39	3
79	87	2
98	98	7
53	53	4
112	112	11
22	24	1
40	41	3
65	65	13
54	54	1
35	35	1
23	23	2
85	85	3
26	27	1
33	33	7
54	55	3
45	100	2
73	74	1
30	31	2
71	72	2
39	46	1
62	66	3
29	30	3
73	73	7
63	68	1
35	46	2
97	103	2
55	55	1
50	50	3
83	85	3
109	111	4
47	50	2
99	100	1
111	111	2
51	52	1
108	110	1
59	69	2
62	64	1
42	97	2
95	108	2
104	108	1
85	92	1
96	96	3
49	49	9
24	28	1
36	109	1
62	62	1
104	107	4
20	21	4
110	111	2
49	51	1
91	95	2
32	33	3
100	100	1
98	100	1
56	56	1
76	91	1
22	22	1
41	42	2
22	27	3
102	103	6
89	89	2
72	75	1
74	97	2
34	37	1
66	103	1
115	115	1
99	108	1
103	105	2
39	40	1
75	76	1
55	58	1
22	33	1
114	114	3
25	25	2
58	58	1
100	102	2
71	73	1
36	74	2
85	87	2
43	43	2
26	35	2
106	107	1
45	46	1
104	105	2
39	39	1
74	91	1
102	107	2
88	91	1
27	27	3
91	96	1
111	113	1
105	107	1
44	46	1
27	29	1
79	80	1
43	50	1
35	39	1
53	54	1
86	91	1
