19	19	2
13	13	12
31	31	4
124	124	4
43	54	4
44	44	4
81	81	8
18	18	10
72	83	5
27	27	4
22	23	4
110	116	2
64	66	3
86	86	6
30	31	7
26	26	17
41	42	6
15	15	11
17	18	3
133	137	8
35	35	5
132	132	3
85	86	1
24	25	7
144	144	6
123	123	6
69	77	3
73	73	4
102	102	2
133	133	2
36	44	1
147	147	1
69	69	9
62	62	2
131	138	3
87	89	1
86	87	2
72	73	2
23	23	9
79	79	6
113	113	1
71	71	5
127	127	5
47	48	1
50	50	3
97	98	11
17	33	2
94	94	8
63	63	2
49	49	5
44	45	1
45	65	3
66	66	4
29	30	4
68	68	9
42	43	5
143	154	2
24	24	5
131	132	7
38	63	5
54	55	4
29	29	10
66	76	5
128	132	2
47	49	4
153	153	8
121	121	7
138	138	5
36	37	2
112	114	5
62	63	2
33	33	3
18	20	1
48	48	8
13	14	4
136	136	5
12	12	5
35	36	2
112	112	2
9	9	2
65	67	3
66	68	1
26	27	8
36	48	2
93	94	2
49	150	3
53	57	1
8	30	2
78	84	3
141	141	3
27	28	3
27	30	1
36	36	4
95	98	6
141	142	2
70	70	7
53	53	7
125	137	3
137	146	2
7	26	2
150	151	1
106	106	4
133	149	5
27	31	4
136	137	2
3	37	3
16	16	7
54	54	4
34	44	2
80	83	2
23	24	1
32	32	3
134	136	1
101	111	1
8	10	2
11	11	9
25	25	4
41	41	6
103	103	3
111	111	3
77	78	1
55	55	5
64	67	1
110	115	2
75	84	2
107	107	3
84	84	5
131	131	1
108	108	7
40	40	3
95	95	2
133	147	2
94	95	5
34	43	1
100	131	2
147	148	6
68	86	2
19	21	2
18	19	8
82	82	1
7	7	1
12	13	3
37	38	1
142	142	3
74	76	2
26	28	2
99	99	5
40	49	2
68	69	3
87	88	3
9	17	3
83	83	3
117	117	2
133	145	2
67	68	2
131	140	4
23	25	1
98	100	3
75	75	3
39	40	2
57	57	7
17	17	2
87	87	4
40	41	1
84	86	6
95	99	2
39	39	2
119	122	5
96	96	3
42	42	6
48	53	1
46	46	2
116	116	2
95	97	2
85	85	3
47	51	2
129	130	2
130	131	2
134	134	2
8	9	3
4	33	1
20	33	1
115	115	1
57	58	1
129	129	2
5	65	2
49	62	2
64	65	1
128	133	1
58	149	1
65	65	2
78	79	2
124	128	4
8	8	3
150	150	5
10	20	2
105	109	1
126	148	4
79	82	1
23	30	2
94	99	3
34	34	1
97	97	2
32	34	1
148	148	1
135	135	3
123	126	1
105	106	3
6	65	1
55	83	4
128	138	3
79	83	2
66	87	1
81	143	1
80	80	1
61	93	2
94	97	7
74	82	2
79	80	2
20	20	2
93	93	1
149	149	1
90	94	3
20	27	1
3	4	2
45	45	3
123	125	2
6	6	1
39	42	1
27	29	2
34	35	3
10	10	5
132	133	1
18	33	2
12	15	1
21	21	2
121	122	1
65	66	2
10	11	2
88	95	2
133	134	1
55	56	2
63	66	1
125	133	1
23	28	1
128	128	1
76	78	1
83	85	1
11	14	1
105	105	1
5	6	1
120	120	3
55	81	2
92	95	1
138	154	1
33	34	2
136	148	1
47	47	1
15	16	1
90	110	1
25	31	1
12	14	1
18	21	1
4	24	1
99	138	2
4	4	1
152	152	1
77	77	1
127	134	1
3	65	1
132	136	1
124	125	1
115	116	1
97	111	1
126	127	1
43	63	1
74	75	1
11	38	1
122	122	1
125	125	1
111	113	1
