102	102	16
122	122	16
101	104	7
98	98	18
20	20	20
34	35	3
103	103	7
27	27	3
34	34	23
113	117	2
87	87	12
123	124	4
111	112	6
23	25	1
73	73	11
22	27	5
37	37	5
130	130	26
128	128	20
136	136	9
36	36	10
104	119	5
131	131	12
132	133	3
36	37	3
26	27	2
126	132	7
125	125	7
28	28	7
95	96	2
140	140	13
123	123	16
14	22	4
109	111	3
129	129	21
127	128	6
103	104	3
10	12	6
120	122	4
21	22	2
127	137	3
97	98	8
97	97	5
133	134	5
111	111	15
129	140	3
2	18	1
91	111	1
130	138	3
91	92	6
106	106	6
14	14	9
105	105	5
136	138	1
25	25	6
126	128	2
126	126	14
108	125	7
120	120	7
8	119	5
138	138	17
9	11	5
75	76	6
101	101	10
139	139	12
127	127	8
86	87	3
121	121	3
129	133	4
71	71	1
92	92	1
114	115	9
119	119	19
17	18	11
113	118	5
74	75	3
108	109	3
86	86	7
0	1	5
29	138	4
128	132	2
133	133	15
9	17	3
82	83	3
112	113	1
37	130	3
126	127	8
135	135	8
20	27	3
134	135	8
78	79	2
115	115	18
94	129	2
89	89	11
81	81	12
32	33	4
84	85	4
72	72	10
137	138	4
74	74	4
32	32	12
90	93	3
6	6	7
90	90	12
7	8	1
103	119	3
110	110	11
107	107	2
81	85	2
138	139	9
83	84	2
83	87	3
19	19	11
17	19	3
23	28	7
4	19	2
131	137	2
79	79	8
75	75	7
31	31	6
117	118	1
92	97	2
71	72	8
128	131	1
106	107	6
16	17	1
85	85	2
90	115	1
4	5	1
33	33	7
20	22	5
88	88	10
97	124	2
100	116	2
85	92	2
101	102	12
109	109	5
109	110	4
93	94	5
113	113	4
131	132	6
124	124	8
7	7	3
118	119	1
1	1	3
91	91	8
99	99	1
88	108	1
37	38	1
33	34	6
6	7	3
136	137	2
29	29	2
105	106	3
10	11	6
35	35	12
6	13	1
84	84	5
20	21	6
107	108	9
139	140	5
119	120	2
95	95	2
93	93	4
5	5	11
112	112	12
10	15	1
4	4	1
117	117	14
122	123	8
14	16	1
94	94	8
0	0	3
94	95	4
125	127	4
34	132	5
118	118	11
124	125	6
119	123	1
100	101	6
100	100	9
11	11	3
85	86	2
96	96	6
14	121	1
8	9	1
18	18	2
21	26	2
38	38	7
129	130	2
12	12	2
89	90	4
115	126	2
103	113	4
127	129	1
17	17	2
133	135	1
37	134	2
105	108	2
15	15	8
132	132	4
18	19	4
108	118	1
108	110	1
22	22	3
13	14	4
107	125	5
125	126	8
23	23	3
137	137	11
110	111	1
116	116	1
130	131	1
119	122	4
119	121	1
73	91	2
127	132	3
11	30	2
14	120	4
119	124	5
126	135	1
112	115	2
9	9	3
11	12	2
27	28	2
8	10	1
28	30	1
137	139	1
32	36	2
79	83	5
83	83	2
25	26	2
134	134	8
5	22	1
76	78	2
102	107	1
3	9	1
91	114	2
8	11	1
90	91	1
76	76	8
21	21	4
16	16	3
2	2	3
73	74	1
77	77	1
7	121	1
71	73	2
116	117	1
100	119	1
135	136	2
26	26	3
11	22	5
14	17	1
3	4	3
37	131	2
79	85	4
132	135	1
3	15	1
6	14	1
107	109	4
115	116	3
10	10	4
79	80	1
128	129	4
108	108	3
129	131	1
84	86	1
13	13	5
71	74	1
30	31	3
121	122	2
33	35	3
113	119	2
107	111	2
28	29	2
104	105	2
120	121	1
91	107	1
89	98	1
29	37	1
128	135	1
15	19	1
98	99	1
101	116	1
128	130	1
6	113	1
3	5	1
114	114	3
90	97	1
101	125	1
82	84	1
17	20	3
124	136	1
78	78	1
12	13	1
91	95	1
36	138	2
13	15	1
126	129	1
92	93	1
27	31	2
87	109	1
122	124	1
138	140	1
29	30	1
127	131	1
125	135	1
106	120	1
88	93	1
12	19	1
6	23	1
77	78	1
1	133	1
