99	99	48
87	87	42
46	51	1
49	50	16
99	102	2
63	63	38
86	88	13
76	77	13
57	58	6
38	38	42
26	29	5
64	64	41
45	90	2
86	86	26
51	51	35
43	43	46
98	99	4
35	35	21
45	45	27
50	51	11
37	37	18
97	97	32
73	73	31
93	93	27
79	80	22
56	56	28
36	36	12
102	102	8
88	88	35
56	57	20
44	44	44
94	97	4
89	89	35
24	27	8
67	68	12
22	22	10
96	96	29
70	70	27
41	41	38
62	85	5
83	83	37
34	34	32
81	81	51
91	91	24
48	48	37
51	69	3
75	75	29
24	26	4
80	80	36
53	58	1
60	60	34
90	90	45
65	66	21
46	46	43
95	95	29
55	55	40
27	27	22
89	96	1
27	33	3
67	67	49
72	72	38
52	53	2
76	76	42
23	23	8
53	53	46
25	27	2
20	22	6
96	98	2
54	64	1
54	54	38
39	39	29
62	62	24
53	55	10
52	52	47
29	29	11
96	97	9
77	77	20
89	99	8
61	61	36
48	84	1
55	89	22
49	49	21
26	26	27
58	58	34
62	64	4
94	94	37
50	50	45
35	36	3
32	32	12
33	33	35
61	84	1
80	100	2
26	34	10
84	84	31
40	41	6
66	66	30
36	37	9
49	64	4
74	74	34
25	25	24
100	100	31
97	98	19
78	78	35
53	54	8
81	89	2
46	47	17
69	69	39
40	48	10
98	98	17
99	100	10
80	93	9
51	59	3
54	55	19
86	87	13
47	81	2
92	92	46
79	97	3
61	62	18
62	99	2
80	101	7
71	71	32
84	96	1
47	85	10
40	44	7
58	59	18
26	27	15
53	56	3
94	95	8
59	59	34
65	65	41
87	88	14
80	85	1
82	82	19
80	81	11
53	88	10
73	74	7
60	61	23
42	42	38
30	30	12
37	81	2
52	55	3
51	53	9
62	78	1
53	90	1
101	101	26
68	68	30
25	29	6
68	69	7
89	91	3
48	60	4
45	51	5
35	99	6
28	28	5
47	47	12
67	75	2
74	76	2
100	101	7
61	98	10
85	85	51
48	49	9
52	87	2
34	101	1
77	78	23
54	81	4
58	61	4
58	60	8
31	84	3
51	54	5
22	24	6
33	34	2
31	31	20
47	48	17
65	69	2
86	99	4
72	73	2
24	24	9
79	81	5
66	68	9
38	81	1
57	57	37
97	99	2
39	85	3
69	77	1
91	93	9
64	65	4
32	33	8
37	38	5
92	93	6
61	100	2
95	96	17
59	64	3
37	54	4
85	86	2
94	96	5
26	28	4
74	75	20
46	87	7
88	89	9
76	79	1
82	83	1
31	83	3
48	57	3
87	93	3
86	89	4
44	45	3
65	70	2
40	78	1
34	35	12
52	69	3
29	32	4
56	90	1
40	40	32
45	59	1
25	28	2
51	52	3
43	44	5
25	26	5
31	45	5
54	90	5
49	59	4
63	74	2
34	51	5
75	76	8
56	86	1
36	38	6
92	101	1
54	88	4
62	97	2
33	47	4
77	79	2
83	84	5
45	58	1
95	98	17
90	91	5
29	78	1
59	90	7
58	85	5
64	89	2
92	98	1
21	24	1
89	90	6
32	83	4
30	32	4
92	94	8
33	87	1
42	69	3
56	66	4
54	100	5
79	79	28
93	94	7
88	96	2
53	91	6
47	89	3
82	89	3
77	99	2
36	95	3
81	82	4
93	101	1
97	100	3
86	97	1
101	102	6
27	28	12
47	82	5
38	39	7
63	65	2
69	71	2
35	95	3
23	24	1
22	26	4
63	73	4
70	71	7
23	26	2
51	58	4
23	27	3
55	100	2
46	92	3
27	36	5
73	90	1
29	30	5
57	59	5
86	90	2
59	63	7
86	93	2
95	99	2
87	89	6
54	94	2
40	74	2
58	75	2
79	84	1
69	70	6
45	56	1
91	92	8
71	72	10
56	58	2
45	49	2
46	57	1
31	46	2
93	98	3
29	79	4
42	56	1
72	94	3
53	80	3
36	97	1
37	58	3
20	25	2
43	48	1
84	100	4
53	57	4
48	50	1
83	102	1
49	51	2
45	50	2
62	63	11
20	20	1
55	101	4
96	100	3
48	64	2
31	52	1
79	100	1
24	25	4
39	55	1
47	84	2
85	90	2
47	68	1
47	56	1
47	99	4
22	23	4
46	74	4
66	67	3
62	71	1
91	99	1
35	37	4
42	43	6
53	101	4
54	68	1
56	99	1
41	68	1
36	57	1
46	53	1
85	100	2
60	63	2
51	91	1
50	55	4
28	33	1
44	91	2
93	96	3
31	48	6
42	63	3
56	64	1
22	29	1
99	101	2
44	90	2
93	95	2
60	69	2
63	82	3
42	49	2
40	86	1
61	67	2
85	89	1
81	92	1
25	73	1
44	89	3
42	65	1
45	46	1
52	56	6
56	79	1
91	94	1
44	50	4
78	79	1
80	98	1
41	74	3
23	25	3
82	100	2
88	93	1
63	64	5
71	95	1
78	88	1
57	79	5
29	65	1
53	87	1
86	100	2
41	42	5
87	99	1
69	83	1
55	82	2
48	79	2
46	76	1
43	66	1
84	101	2
49	85	2
34	58	3
60	85	1
46	49	1
20	21	1
52	88	6
51	89	1
88	91	1
63	76	3
52	54	1
57	71	2
86	95	2
54	67	1
52	57	1
79	89	1
62	100	1
32	80	3
50	66	2
67	77	2
82	91	1
70	93	1
47	80	2
44	63	2
92	99	4
83	89	1
80	94	1
54	82	1
86	91	2
95	97	4
43	47	1
46	48	2
45	87	1
58	62	2
82	84	1
94	98	1
49	74	1
29	77	1
48	87	1
36	100	1
28	77	1
49	90	1
45	62	1
47	53	1
80	95	1
57	81	2
69	72	1
42	72	1
81	93	1
35	59	1
60	81	2
32	37	1
20	37	1
52	66	1
49	56	1
36	96	2
36	39	1
57	60	1
56	83	1
35	97	1
41	101	1
83	85	1
22	84	1
65	85	1
31	65	1
51	95	1
