80	80	3
94	94	13
53	61	2
66	67	2
73	73	6
90	90	7
70	70	2
36	36	7
78	78	3
34	94	1
58	58	8
78	85	3
95	97	4
52	69	2
101	101	13
95	95	12
24	100	1
73	74	4
52	52	13
56	56	10
86	86	12
77	77	5
60	60	12
48	63	4
60	61	6
55	55	4
37	37	9
47	49	3
76	78	7
45	68	3
67	72	4
39	39	3
85	85	4
41	42	1
92	92	9
61	61	9
20	26	1
64	65	6
50	50	4
29	29	3
87	87	10
88	88	9
40	57	2
35	35	6
72	74	2
93	95	5
98	98	13
81	81	7
49	50	3
64	64	24
78	79	1
83	83	4
68	68	3
46	46	11
77	78	4
61	79	3
68	69	5
46	79	3
49	49	17
59	59	17
66	66	3
79	79	10
52	60	1
62	62	17
42	43	4
50	64	1
43	44	4
89	99	2
38	84	1
30	30	5
48	51	2
35	36	1
23	98	2
94	96	3
62	63	4
28	53	2
22	22	2
80	88	2
99	99	10
35	40	1
46	47	3
39	57	1
56	59	1
58	59	2
47	47	4
40	40	9
34	34	3
42	42	7
62	68	2
52	98	1
72	73	2
59	62	2
79	80	3
71	71	11
63	68	2
79	94	1
92	93	3
85	86	1
57	58	3
58	92	3
89	89	8
86	87	1
43	43	7
93	94	1
26	102	1
75	75	6
72	72	4
84	84	2
41	41	8
82	82	2
99	100	1
61	87	2
31	32	2
53	82	2
57	57	6
46	97	1
97	97	6
24	26	4
37	39	2
20	21	2
88	96	2
92	101	1
33	33	16
93	93	3
44	59	1
88	99	1
51	51	2
100	101	1
76	76	4
96	97	1
91	91	3
75	90	2
65	89	1
96	96	1
67	67	5
86	88	2
39	45	5
81	83	1
102	102	1
61	88	2
60	86	3
54	55	3
44	44	3
47	96	1
50	58	1
65	66	2
100	100	3
83	88	2
33	71	2
53	55	3
79	86	2
69	69	3
82	83	1
74	74	1
75	77	3
38	38	3
81	88	1
20	20	1
43	48	2
67	80	1
39	40	1
87	88	1
60	62	1
24	27	2
32	33	2
44	89	2
54	60	2
49	64	1
22	88	1
80	87	2
44	48	2
95	96	2
21	23	1
27	27	2
26	26	1
48	48	2
67	68	2
63	63	5
91	99	2
59	85	1
30	58	2
47	62	3
55	58	1
31	37	1
60	67	1
48	59	1
86	89	1
41	43	1
65	65	2
54	84	1
44	99	1
31	39	2
45	65	2
59	91	1
83	87	2
22	55	1
30	100	1
47	61	2
53	53	1
69	70	1
51	98	1
92	96	1
47	51	2
22	23	1
42	45	1
91	93	1
