56	56	23
62	62	29
40	41	16
38	39	19
51	54	6
55	55	28
37	37	33
50	50	12
45	45	29
29	59	3
52	52	21
0	48	4
35	35	25
37	60	3
40	40	36
6	6	4
42	42	31
43	43	29
32	32	33
1	1	4
48	48	29
46	47	12
33	33	41
49	50	9
46	46	29
19	45	4
32	61	3
54	55	20
30	30	17
9	10	4
50	51	5
57	57	45
58	58	27
56	58	7
44	44	24
49	49	21
42	43	10
36	36	34
37	39	7
31	31	27
1	47	3
49	61	4
29	29	8
49	56	2
24	58	4
59	59	14
52	55	4
34	34	49
19	19	11
60	60	25
54	54	20
48	52	3
9	9	3
30	31	14
47	47	32
12	16	1
15	16	3
39	39	10
5	5	5
58	59	10
13	13	12
0	9	1
41	42	3
32	36	1
38	38	14
49	52	1
16	16	8
32	33	6
39	40	5
61	61	25
47	48	6
10	10	4
13	16	3
39	41	4
8	10	1
52	53	10
1	17	1
51	52	14
13	15	7
1	11	3
40	59	4
55	57	5
57	58	2
33	44	1
14	15	6
39	53	3
31	32	7
51	51	18
35	36	4
39	59	3
43	44	2
49	51	6
0	13	4
33	43	6
46	50	2
55	56	2
35	43	3
36	37	12
22	22	4
0	0	13
9	19	1
0	22	2
48	49	7
44	45	8
4	47	3
31	35	5
29	37	1
32	35	5
5	7	8
0	19	1
34	35	6
20	20	5
18	18	3
39	60	6
8	8	2
45	47	10
44	49	2
7	8	2
40	58	1
41	41	13
53	54	12
38	59	2
13	45	4
21	22	1
53	53	16
56	57	3
17	17	4
11	11	3
61	62	2
14	14	2
37	40	5
18	19	3
35	37	5
33	34	4
31	45	2
15	15	3
34	52	1
47	50	2
8	9	3
45	46	10
12	13	9
34	50	2
48	50	1
23	24	3
55	58	4
56	60	2
57	60	2
19	20	3
38	60	2
33	42	1
57	59	5
38	40	3
15	44	1
48	56	3
44	47	3
29	42	2
38	41	2
31	57	1
0	1	6
59	60	3
2	2	5
24	24	5
37	38	2
31	54	1
38	58	2
32	34	2
53	57	2
56	59	3
3	3	1
4	4	6
46	53	1
0	20	1
58	60	3
60	61	1
38	50	1
13	19	1
25	25	2
50	52	3
46	52	1
36	61	2
53	60	4
2	4	1
20	21	1
52	56	1
12	12	2
30	37	2
23	23	1
29	41	2
30	42	1
2	3	2
19	56	1
54	56	2
36	62	1
30	46	1
41	53	2
14	44	1
13	18	1
41	59	1
30	40	1
39	54	1
37	41	1
3	47	1
25	26	1
