20	20	1
95	99	3
98	145	1
73	73	1
73	78	6
10	31	3
98	99	6
11	28	2
56	56	2
8	8	3
94	123	4
98	144	1
16	16	5
95	95	2
37	38	1
64	64	9
43	45	3
152	153	3
40	40	3
48	48	3
29	29	4
51	52	3
110	111	4
92	92	2
12	12	6
104	105	2
14	16	4
126	126	12
54	54	3
78	79	2
122	129	3
97	139	1
77	83	2
111	111	4
124	125	6
30	38	3
141	141	5
77	77	14
23	23	3
13	15	3
153	153	3
94	138	4
46	46	9
38	38	13
139	143	4
74	75	5
66	68	8
83	85	1
136	136	4
80	80	1
84	84	7
92	99	2
67	67	5
108	110	1
105	112	3
44	44	8
100	100	1
145	145	2
10	16	2
33	33	5
35	35	3
140	142	1
24	117	5
4	26	3
15	26	2
99	105	5
11	11	4
69	69	4
80	83	1
94	97	4
39	39	8
26	29	1
118	119	3
49	52	2
51	57	1
47	47	8
52	77	6
148	148	2
136	138	5
130	147	1
120	130	3
125	127	7
104	104	5
7	8	2
32	32	5
62	78	4
4	4	13
18	18	6
50	50	1
13	13	3
129	130	1
4	6	2
10	10	3
4	5	2
50	55	2
131	131	2
154	154	4
122	126	6
137	138	3
128	128	2
124	124	5
66	87	1
98	98	4
150	150	5
14	27	3
122	122	8
34	34	2
15	16	2
136	137	1
106	106	2
93	93	4
27	28	3
132	132	5
44	45	2
65	72	7
108	108	1
33	34	1
9	9	1
68	68	4
140	140	1
17	18	6
39	40	2
64	69	1
147	147	4
113	132	3
80	81	5
109	109	4
31	34	1
48	49	2
75	112	3
26	95	3
86	86	5
137	146	1
23	24	1
110	110	1
45	45	1
113	114	2
48	53	1
5	6	3
8	10	2
82	83	2
123	124	4
38	39	1
29	30	2
116	116	1
62	62	4
53	53	3
101	128	2
21	21	2
125	125	1
129	129	7
121	125	4
129	133	2
111	113	5
141	142	4
121	122	2
65	76	1
77	78	3
8	22	4
7	7	6
69	72	1
115	115	2
68	73	1
74	74	1
123	128	3
47	48	1
88	88	1
118	118	3
35	36	2
45	46	4
30	31	3
24	24	4
99	99	5
81	83	1
68	69	1
48	51	1
63	64	3
74	76	1
2	24	1
68	85	4
19	19	1
70	70	3
49	75	1
70	77	2
2	7	2
83	142	2
80	144	2
96	97	1
94	94	2
80	97	1
33	113	1
139	141	3
47	57	1
106	107	1
144	144	2
56	110	3
62	65	1
120	120	1
114	136	1
85	85	1
62	77	1
102	102	2
25	57	1
11	12	1
13	18	2
130	130	2
26	26	1
34	37	1
41	43	1
101	103	1
119	128	1
92	93	2
7	19	2
34	35	3
80	84	5
26	51	1
66	66	4
8	44	1
108	109	1
128	129	2
87	88	2
49	49	1
115	116	1
43	43	3
37	55	1
20	21	1
121	126	1
28	29	1
21	26	1
7	22	2
34	56	1
53	54	1
12	21	2
126	148	2
10	11	1
50	56	1
131	141	1
131	133	1
85	87	1
113	113	1
76	76	1
16	17	1
130	132	1
31	31	1
63	65	1
138	138	1
75	145	2
115	117	1
143	145	1
72	73	1
68	72	1
122	123	1
127	139	1
75	75	1
57	57	1
71	71	1
96	96	1
81	81	1
76	113	1
5	5	1
76	112	1
15	15	2
75	78	1
25	25	1
135	135	1
64	68	1
11	22	1
5	7	1
69	126	1
15	17	2
