120	121	8
57	57	6
173	176	2
14	17	3
56	57	11
55	64	2
181	182	1
123	123	7
137	138	2
166	166	6
69	94	5
1	1	13
77	78	13
15	15	3
38	39	2
67	68	7
30	31	6
65	66	5
78	78	6
11	11	5
102	103	3
61	62	3
4	6	3
113	124	4
155	155	4
129	129	5
149	150	4
146	146	5
188	188	8
87	88	6
114	114	5
28	29	10
35	124	4
142	142	4
113	113	7
187	188	3
130	132	4
139	139	16
146	148	2
177	177	1
2	4	6
91	96	2
182	185	3
54	54	6
76	77	8
81	82	2
84	84	1
138	156	1
9	9	3
132	132	3
72	85	2
82	82	7
122	123	3
127	127	7
96	98	3
7	7	5
79	79	11
31	42	2
24	24	14
62	62	4
157	158	4
171	171	1
110	110	2
100	101	3
163	171	3
133	134	1
120	120	8
118	119	4
2	3	1
23	24	3
108	109	3
10	11	2
67	67	3
40	40	3
58	58	4
151	151	13
6	6	4
125	127	2
138	138	4
3	3	5
28	28	2
172	178	1
12	13	4
41	44	3
41	42	2
33	33	4
16	16	2
153	154	2
54	55	8
95	95	2
155	156	1
120	122	1
27	28	4
180	180	5
152	152	3
53	58	4
56	56	2
90	92	4
74	76	7
23	23	4
108	117	2
161	170	4
24	25	6
98	98	2
32	33	3
163	163	3
129	175	4
62	64	1
34	36	4
25	25	3
129	131	4
99	99	10
174	177	1
129	130	5
65	65	6
150	151	2
175	176	3
101	101	5
61	70	2
125	125	2
100	100	2
134	134	10
120	141	3
83	83	6
48	48	5
124	127	4
20	20	1
97	97	3
85	111	1
94	94	4
149	149	2
37	37	4
12	12	2
10	10	3
27	27	3
90	90	2
141	141	5
178	181	3
115	115	5
79	84	2
47	47	2
10	46	6
39	39	2
158	161	3
165	166	2
162	162	6
5	5	1
131	132	1
30	33	2
127	128	2
111	112	1
170	170	2
147	147	4
118	118	2
83	144	1
39	40	3
184	185	2
97	98	4
89	95	1
143	144	2
61	64	2
77	77	4
188	189	2
54	64	2
14	15	5
152	153	1
104	107	1
66	67	4
177	180	2
32	37	5
92	92	1
139	156	4
148	148	8
70	72	1
157	157	3
81	81	3
56	64	4
98	100	1
22	28	1
102	120	4
64	67	4
49	49	2
36	37	2
174	174	3
13	13	1
144	145	3
174	176	1
145	149	1
32	32	2
2	2	4
40	41	2
140	141	1
61	61	1
64	66	3
17	17	3
29	30	10
34	35	1
46	46	4
84	118	2
134	135	3
41	41	11
63	63	6
161	161	1
183	184	1
4	5	1
130	130	4
126	127	1
190	190	1
26	26	1
34	37	2
148	149	3
36	36	3
160	161	3
90	121	1
172	172	2
27	46	1
30	124	2
114	115	1
61	63	4
42	42	2
173	173	4
17	19	1
89	121	2
175	183	2
125	126	3
60	70	3
95	96	1
48	49	1
93	93	1
114	128	1
9	10	1
140	140	6
110	111	1
13	21	1
89	90	1
133	141	1
164	164	2
173	177	1
104	104	6
85	86	3
137	162	1
136	136	1
9	118	1
109	116	1
20	21	2
108	110	1
165	165	3
153	153	2
38	38	3
163	168	1
12	14	1
96	97	1
86	86	1
55	59	2
159	160	1
126	128	1
1	4	1
75	75	4
53	54	1
152	154	4
93	142	2
179	179	1
88	121	1
163	181	3
145	145	3
168	168	2
129	162	3
16	17	1
103	104	5
130	161	1
85	93	2
101	102	1
83	86	1
82	83	2
116	116	2
167	167	4
109	119	2
112	112	1
158	165	1
24	79	2
60	60	1
139	157	1
35	35	1
42	45	1
167	168	1
32	34	2
1	7	1
78	79	2
12	22	1
111	117	1
58	59	1
72	72	3
134	156	1
156	156	2
178	180	3
30	87	1
142	143	1
182	182	1
103	122	1
14	14	1
57	58	1
25	54	1
96	96	1
102	102	1
121	129	2
71	71	1
156	158	1
92	143	1
0	0	2
93	94	1
107	107	1
112	134	1
15	16	2
133	133	1
136	137	1
105	106	1
32	124	1
124	125	1
130	160	1
173	174	1
176	176	1
105	105	1
162	178	1
68	70	1
104	105	1
121	121	1
140	142	1
