104	104	4
74	74	4
55	67	4
46	47	3
114	114	3
54	54	8
89	89	3
60	70	3
132	132	6
79	79	4
1	2	2
0	0	6
99	101	1
5	5	5
52	53	3
124	124	2
69	69	3
46	46	7
127	130	5
9	9	10
4	4	9
17	18	6
110	110	5
89	90	4
122	123	1
115	115	8
70	70	1
57	57	2
86	87	5
91	91	4
0	19	3
127	127	15
60	60	10
7	18	3
80	83	3
105	105	4
114	116	2
38	38	5
62	62	9
118	118	5
52	52	3
108	113	1
132	133	5
108	108	2
122	122	4
107	115	5
41	45	4
73	74	2
93	93	10
30	30	2
92	92	14
7	58	2
28	28	7
67	67	7
96	96	4
1	1	6
16	65	3
61	61	2
101	101	4
11	12	4
71	71	1
57	60	2
45	45	7
76	77	2
123	123	4
63	66	2
58	66	3
90	91	3
51	51	8
76	97	1
113	130	1
88	88	6
64	69	3
128	128	6
115	116	3
96	97	1
108	120	3
102	102	4
20	20	1
99	102	4
42	63	3
107	116	1
109	109	5
126	126	9
10	10	5
97	128	5
11	13	1
99	131	3
89	101	1
99	103	2
84	84	3
26	26	4
85	85	4
20	56	2
70	71	2
85	87	3
30	31	6
15	15	3
27	27	2
30	71	3
23	24	2
17	55	1
98	118	3
31	31	2
23	23	4
25	25	3
72	74	3
131	131	3
95	95	7
73	73	1
47	47	7
41	42	1
29	29	7
24	25	1
21	21	1
48	49	3
4	5	1
83	84	5
67	68	3
76	76	3
82	82	3
16	17	4
72	80	2
48	48	2
72	84	2
87	87	7
99	99	4
96	129	1
109	110	1
78	78	2
16	18	2
120	132	1
98	98	4
8	8	3
12	13	4
49	49	2
3	5	1
22	24	2
53	53	7
34	34	6
63	63	6
121	123	2
33	34	2
41	63	2
13	20	2
13	13	2
42	42	2
43	47	5
107	107	3
22	23	2
103	103	2
58	58	4
118	132	2
117	131	1
102	127	2
41	41	2
28	97	1
40	40	2
85	89	3
84	85	3
45	47	1
90	90	4
126	128	2
19	21	5
21	23	2
50	50	1
129	129	2
74	130	1
66	107	3
59	60	2
50	51	2
96	112	3
88	89	1
56	56	3
16	16	4
81	81	3
24	24	1
75	75	4
97	97	1
54	57	2
77	131	1
39	39	2
81	84	1
106	107	3
123	124	3
54	68	1
120	120	3
38	39	4
98	117	1
117	118	2
72	85	1
94	95	2
128	129	3
43	45	2
78	79	3
84	131	1
58	65	2
126	127	4
106	108	2
77	77	3
113	113	3
70	93	2
4	7	2
28	32	3
30	72	2
64	65	1
117	117	3
107	113	1
43	43	3
111	111	1
97	99	1
108	115	1
55	109	2
86	86	2
119	119	1
99	100	1
44	100	2
41	47	3
106	106	1
64	72	1
66	68	1
112	112	1
111	121	2
80	80	1
2	3	2
75	76	1
101	103	2
8	9	2
62	63	1
6	54	1
93	94	2
64	64	1
18	24	1
103	127	2
7	7	1
41	98	2
100	127	1
100	100	1
25	28	1
66	66	1
114	120	3
116	116	2
94	94	2
1	6	1
6	10	1
114	117	1
3	3	1
5	6	3
28	31	1
49	51	1
43	44	1
90	104	1
54	66	1
12	12	1
96	120	1
