171	173	2
77	77	9
28	28	1
130	137	1
141	151	4
6	6	7
90	134	2
156	156	9
65	65	7
21	59	1
60	60	2
185	185	5
184	188	6
65	82	3
130	130	3
23	23	12
45	46	10
61	61	9
149	149	10
182	182	16
87	87	7
111	111	5
120	120	7
163	165	4
102	102	4
113	117	1
160	167	3
145	145	5
153	153	4
78	79	4
43	44	5
147	149	16
16	17	2
33	35	5
71	71	3
32	32	11
14	43	1
19	20	7
112	113	1
58	59	5
11	11	7
168	168	4
139	139	2
27	48	2
137	137	2
156	157	2
40	40	4
35	35	11
31	35	2
179	182	3
117	119	3
177	178	4
58	63	2
59	60	5
96	98	4
162	162	4
7	7	3
45	45	3
172	173	8
29	29	2
129	130	1
17	18	2
157	158	1
86	96	5
126	126	2
109	124	2
20	20	4
105	117	4
178	178	5
16	16	2
170	170	10
171	171	7
132	134	3
133	133	8
7	8	10
82	82	2
121	122	3
157	159	6
22	43	2
68	114	1
67	83	3
96	118	4
97	98	7
89	89	6
95	95	7
75	113	1
59	59	9
143	143	5
65	69	4
181	181	5
6	7	9
99	100	7
155	155	8
65	66	6
79	83	1
58	58	10
144	144	10
127	138	1
5	76	3
9	10	1
28	70	3
130	133	1
89	91	7
76	78	1
42	43	3
101	101	3
31	31	2
42	42	8
36	36	9
177	179	3
160	169	3
48	48	8
119	121	2
118	145	4
135	135	2
145	147	4
185	189	2
55	57	1
86	86	6
178	179	1
28	29	2
134	134	5
28	32	2
186	186	5
37	43	8
80	99	5
19	59	2
111	131	4
161	161	4
130	131	2
182	183	5
28	60	2
116	119	3
187	188	2
60	61	3
65	67	7
41	41	9
39	40	2
150	150	8
92	92	6
87	88	1
70	70	3
118	146	5
106	106	8
123	123	2
143	144	4
121	121	8
123	124	5
1	2	3
96	101	6
17	47	2
3	7	5
117	117	5
116	116	2
90	94	3
23	24	2
79	79	8
187	187	2
134	137	4
190	190	2
63	64	4
105	105	6
94	94	5
113	113	5
78	78	5
124	126	2
180	180	2
139	149	2
84	84	12
19	19	12
119	122	8
20	26	2
163	185	1
129	131	5
86	124	5
37	37	9
148	149	3
170	172	3
75	114	1
99	105	3
47	47	9
4	4	2
38	38	7
5	5	4
115	115	6
88	88	4
53	53	1
29	30	5
175	175	3
177	177	8
21	22	3
107	108	2
155	165	1
146	157	4
46	46	5
98	103	7
12	14	4
52	52	1
110	126	6
111	169	1
12	67	5
74	74	3
33	34	4
68	68	1
95	101	2
85	85	6
89	101	1
138	138	3
23	62	2
172	172	4
179	179	3
54	54	2
80	80	4
85	86	1
92	94	4
64	64	6
119	144	5
131	131	3
164	165	4
169	169	6
85	120	2
16	46	5
134	135	4
99	107	1
98	98	2
122	122	4
174	174	5
183	183	7
110	110	7
84	85	2
13	13	2
4	38	2
163	164	3
152	152	6
128	135	2
165	165	5
100	100	4
21	21	8
37	47	2
26	26	3
164	164	4
56	56	2
14	14	9
72	72	9
116	117	2
98	104	1
127	129	3
134	180	6
163	163	6
173	173	10
136	136	2
144	145	3
148	154	2
13	14	3
108	108	11
15	15	5
165	189	2
92	93	6
52	53	5
114	129	2
91	93	4
61	63	5
130	157	6
2	2	6
40	41	4
88	101	2
184	184	8
99	104	4
4	8	5
183	184	2
126	128	1
55	55	6
110	116	1
155	156	2
21	24	1
178	190	3
107	107	4
8	40	2
189	189	2
121	145	2
43	63	2
142	142	5
110	112	1
16	97	8
100	122	1
140	141	4
103	115	2
61	62	3
93	93	5
157	157	8
123	128	4
43	43	2
111	170	3
18	18	8
55	56	4
64	65	3
33	33	2
134	136	2
8	8	3
85	104	3
166	166	4
154	154	9
105	107	1
127	128	2
17	17	4
187	190	2
109	110	2
24	61	1
116	118	1
60	100	1
62	62	5
99	99	4
101	102	1
67	78	2
176	178	2
67	129	2
21	62	2
189	190	1
167	170	1
125	127	1
119	119	1
110	111	4
145	156	1
183	185	1
69	69	1
146	147	1
138	139	4
8	54	1
39	41	2
120	121	3
66	79	1
109	109	7
169	175	2
132	132	1
66	67	5
122	128	5
90	90	2
141	142	3
188	189	4
153	157	1
161	169	1
140	140	3
97	101	4
34	34	1
81	82	3
155	175	3
86	122	2
35	36	2
26	27	3
87	125	1
10	10	2
91	95	2
24	24	3
83	83	3
140	151	2
104	104	1
115	116	2
75	75	2
127	127	4
126	127	1
48	54	1
67	67	1
46	67	1
32	34	3
170	177	1
57	57	2
172	175	2
188	188	3
24	25	3
142	143	3
166	189	1
26	37	3
155	157	3
114	114	1
112	169	2
173	174	3
3	6	3
71	90	1
18	93	1
22	63	1
118	118	2
165	166	1
17	46	2
129	138	1
8	57	2
13	76	1
77	78	3
9	11	1
137	138	2
22	23	2
31	37	1
175	180	1
147	148	1
96	96	1
11	55	1
18	29	3
81	81	1
25	25	4
7	77	1
151	151	2
64	72	5
166	177	1
113	114	7
167	168	2
147	147	2
92	137	3
139	153	1
131	154	4
151	152	1
151	153	2
12	12	3
108	125	4
73	73	1
44	46	1
89	90	1
83	85	1
70	81	2
0	7	1
13	15	2
168	174	2
80	81	1
28	36	1
63	63	3
59	61	1
27	29	2
44	64	1
6	9	1
26	28	2
176	176	1
132	133	1
170	171	1
3	3	1
172	174	1
156	165	1
149	152	1
129	129	2
24	64	1
68	83	1
121	131	1
119	120	1
27	73	1
117	149	1
105	106	1
123	125	1
17	27	1
67	68	1
111	113	1
24	43	1
72	73	2
91	91	1
39	62	2
92	96	1
144	147	1
1	1	1
163	184	1
112	112	2
164	185	1
94	95	1
27	28	1
28	30	1
136	137	1
109	118	1
82	97	1
81	85	1
174	179	1
145	146	1
86	115	1
175	176	1
166	168	2
120	137	1
5	8	1
