15	16	6
125	126	7
124	126	16
76	76	14
51	56	2
30	32	4
110	110	17
81	84	2
136	137	4
3	15	3
32	32	6
72	73	7
134	134	6
100	100	10
21	21	9
131	131	7
114	115	1
122	122	14
150	151	5
104	104	14
37	37	11
34	36	2
29	30	3
84	85	5
65	66	5
41	41	11
93	94	2
88	92	4
55	55	7
24	37	4
6	6	18
135	135	10
127	127	10
152	152	12
138	140	5
85	85	9
140	142	1
38	39	1
19	19	19
78	78	8
120	126	2
118	154	1
85	86	10
44	44	18
8	8	13
51	52	1
39	39	12
102	102	17
47	47	13
18	19	6
20	20	12
18	18	25
74	83	4
117	126	2
82	137	3
129	129	25
124	125	7
31	31	14
74	74	9
24	24	23
42	42	20
110	126	3
129	131	5
96	96	11
132	132	26
16	16	15
107	107	12
57	57	9
138	138	5
15	44	2
126	146	5
81	98	1
6	7	7
5	5	5
128	132	4
146	147	4
71	71	17
67	67	18
25	30	1
12	13	6
118	118	16
93	93	3
96	102	1
120	122	12
17	22	9
125	128	1
129	149	5
28	29	4
117	117	18
83	94	2
39	41	5
68	68	15
105	105	4
48	48	19
42	45	1
132	134	8
40	40	35
131	142	3
144	144	3
87	87	5
33	33	17
4	4	2
151	151	11
53	54	4
5	12	2
43	43	8
7	9	7
3	6	2
62	66	4
14	16	7
126	145	1
97	99	2
125	127	6
56	56	11
21	43	1
142	142	6
139	139	6
16	24	2
95	96	2
10	10	17
13	13	21
109	109	12
70	70	15
115	115	7
51	51	5
14	14	10
57	66	2
89	91	4
113	114	7
145	145	4
24	25	5
117	122	4
74	75	4
83	83	2
99	101	4
109	126	1
53	53	21
9	9	18
35	36	14
11	12	7
145	146	6
99	100	7
88	88	7
77	77	12
46	46	14
4	42	3
79	79	2
99	99	8
130	130	7
66	66	3
43	47	3
49	49	9
43	44	3
114	114	6
16	100	4
63	64	2
5	7	2
17	24	3
140	141	5
78	86	1
12	12	27
23	23	11
32	33	13
83	84	4
17	18	3
93	98	1
7	15	3
8	9	16
112	112	4
70	71	2
79	80	5
131	149	5
65	65	14
33	38	1
104	105	2
62	62	12
125	125	1
69	69	4
107	108	3
101	101	3
22	22	15
20	21	1
75	80	2
135	139	5
11	11	10
76	78	10
66	73	1
28	28	4
49	56	1
138	145	5
154	154	12
106	106	12
5	10	1
63	63	12
82	84	2
80	80	14
72	72	5
115	116	5
141	148	7
102	104	3
111	115	3
82	87	3
39	49	1
43	109	2
50	56	4
34	34	10
19	21	1
5	6	4
87	88	3
5	15	3
117	118	2
68	69	4
27	29	3
79	83	7
15	15	15
67	68	4
66	67	3
41	42	1
102	114	3
103	103	12
21	22	6
106	107	11
133	134	2
28	82	2
150	150	9
143	144	3
108	109	9
85	87	5
66	79	1
82	82	4
123	123	8
36	38	1
148	148	1
8	41	4
133	133	8
141	142	1
137	137	3
30	31	3
103	104	3
10	13	1
111	112	3
17	17	12
139	147	6
100	101	4
19	20	5
144	147	4
46	117	6
45	46	6
136	136	7
86	87	4
123	124	5
26	27	3
22	23	5
4	11	2
77	99	1
30	33	4
109	114	6
118	119	3
45	45	5
27	27	6
109	113	5
16	17	13
64	64	4
120	124	2
4	5	7
76	77	4
9	10	5
122	123	6
95	95	7
26	36	3
17	21	3
57	58	8
50	50	10
57	63	1
110	123	6
147	148	3
128	146	1
54	54	5
29	29	3
94	94	8
100	102	2
41	44	2
5	11	5
124	124	4
102	103	8
58	58	3
73	73	9
6	13	6
13	15	3
30	30	3
153	153	12
57	65	1
126	126	8
40	45	1
105	107	1
128	129	8
7	12	2
78	85	1
134	151	1
101	102	3
152	153	1
24	27	1
100	114	4
111	111	2
146	146	1
145	147	2
90	90	1
4	40	2
24	77	2
112	129	1
7	7	11
96	97	3
72	76	1
33	34	1
35	35	5
63	93	4
16	32	1
99	102	1
140	140	4
134	152	2
33	42	2
47	48	1
147	149	5
31	34	3
21	41	2
10	31	2
55	56	2
26	26	4
92	92	2
109	110	9
4	38	3
57	67	3
138	149	2
39	40	11
137	150	3
56	57	1
42	43	6
14	15	7
97	97	3
128	128	16
113	129	3
24	76	2
86	86	9
144	146	2
113	113	3
141	143	3
143	143	3
25	25	2
103	123	3
148	149	1
143	146	2
131	132	4
94	97	4
84	86	2
127	145	1
34	35	3
64	65	1
62	63	1
105	144	3
132	133	2
81	81	5
143	147	3
4	12	2
39	108	1
116	118	2
5	21	3
136	138	4
51	70	1
141	141	3
19	22	3
16	33	1
99	109	3
106	111	2
119	122	6
126	127	2
29	32	1
27	28	1
83	137	1
78	79	1
38	40	1
82	83	3
49	77	1
46	48	2
10	11	3
69	70	6
3	3	2
68	75	1
144	145	1
4	6	4
40	41	2
149	149	4
31	33	1
86	143	1
151	152	2
17	25	1
83	111	2
109	117	1
73	75	3
75	75	3
52	52	6
80	81	1
106	115	4
51	152	1
119	128	2
108	110	4
2	2	1
105	111	3
98	98	1
77	78	2
49	58	1
3	20	1
33	36	1
119	154	1
134	153	1
89	89	2
81	83	1
94	96	1
42	108	1
27	32	2
108	108	3
26	30	3
95	97	1
103	115	1
80	93	1
112	113	1
8	10	1
119	119	3
49	53	2
48	53	1
48	54	2
66	75	1
121	121	2
36	37	5
142	143	2
112	143	2
98	99	4
131	133	1
16	23	3
57	92	1
26	28	1
121	122	1
120	121	1
127	128	1
116	128	2
135	140	3
15	100	1
56	65	1
26	50	1
28	33	1
147	150	1
66	99	1
71	73	1
64	66	3
110	111	1
44	100	1
10	43	3
103	110	1
46	47	2
103	108	2
92	93	2
84	120	1
104	116	3
84	84	1
127	132	2
41	49	1
43	103	1
64	72	1
82	95	1
94	95	1
22	43	1
103	106	1
12	23	2
122	127	1
83	95	1
33	40	1
7	8	1
57	62	1
128	143	1
20	27	2
57	64	1
128	148	1
58	96	1
27	79	1
92	95	1
82	94	1
44	45	1
30	82	1
109	111	1
13	17	1
54	64	1
