37	81	2
47	77	1
108	108	2
19	20	8
84	96	2
88	88	3
128	128	5
67	67	10
61	61	10
40	43	5
82	83	2
98	99	3
77	118	2
66	83	6
37	37	10
15	22	3
127	127	2
63	63	8
74	75	3
131	131	6
20	21	3
57	57	5
64	64	10
15	15	13
92	92	6
37	41	6
98	98	2
76	76	15
114	114	3
103	134	2
34	35	10
8	69	1
35	36	7
30	32	5
11	93	3
38	39	7
74	74	9
27	27	7
10	10	10
72	72	10
47	47	16
75	75	12
50	50	4
62	63	6
117	120	3
28	30	1
133	134	5
18	18	7
19	85	3
87	87	4
69	124	3
14	14	9
21	21	17
3	3	10
35	35	12
47	50	1
45	45	7
118	118	13
120	121	2
102	102	6
80	128	2
29	29	5
41	81	1
100	101	8
11	11	19
28	95	1
31	49	2
117	125	2
106	106	3
85	85	7
5	32	1
129	130	2
19	75	5
126	127	3
46	46	10
72	75	5
4	32	4
15	39	3
6	46	1
97	97	4
104	104	6
70	71	2
7	7	16
91	91	1
44	45	2
15	17	2
81	81	5
40	40	6
97	100	9
23	24	4
26	78	4
79	80	4
31	32	3
66	66	6
84	87	2
48	48	7
78	78	7
26	27	2
130	130	1
125	125	4
127	129	4
130	131	5
38	38	5
100	100	11
25	25	9
111	112	2
128	131	4
91	97	1
61	75	4
73	75	4
56	56	6
51	99	2
109	109	1
95	97	1
90	97	2
116	116	3
9	10	4
65	65	10
20	20	6
10	11	10
132	133	3
32	32	3
26	26	6
81	86	3
102	120	3
21	22	1
22	22	3
83	84	5
9	9	12
55	56	2
15	23	4
4	5	5
62	62	8
7	29	2
10	83	1
91	92	4
0	0	3
106	113	2
93	93	4
87	88	8
112	112	4
90	90	10
98	100	2
110	110	7
40	42	2
4	27	2
105	131	1
56	58	3
30	30	6
46	47	3
68	69	5
101	101	6
28	91	1
26	82	3
134	134	5
109	111	5
39	44	1
59	59	2
80	80	7
93	107	1
94	107	1
41	44	2
77	116	1
33	35	2
25	82	2
41	41	2
113	115	4
8	8	4
8	36	1
26	93	2
12	12	8
113	113	4
4	28	1
29	75	3
99	101	1
17	17	10
14	23	2
108	109	5
84	84	4
51	56	5
23	73	1
27	92	2
4	99	2
94	100	1
93	94	3
5	5	1
28	28	2
94	94	4
7	114	2
18	43	4
108	115	1
70	70	5
103	103	2
59	60	3
108	110	1
64	65	2
45	82	1
89	93	1
8	62	4
79	79	3
43	43	3
99	99	1
18	61	1
4	80	1
37	38	1
11	69	5
99	100	3
132	132	5
122	122	6
27	29	2
8	41	1
20	49	3
71	71	3
45	46	1
38	81	1
48	49	1
10	12	1
24	26	1
33	33	3
39	81	2
21	51	1
68	68	4
39	82	2
69	69	2
29	32	2
104	105	1
1	1	4
93	100	5
29	31	3
90	91	1
116	129	5
94	96	2
129	131	1
77	77	5
36	73	2
84	85	3
17	25	1
116	127	1
13	14	2
60	60	7
27	28	3
119	119	3
104	107	4
126	129	1
33	34	3
83	83	1
60	61	2
91	95	4
30	31	3
60	94	1
6	30	1
6	6	3
55	55	3
61	67	1
121	122	1
78	88	2
60	74	4
100	102	1
7	80	1
130	133	3
72	73	13
7	97	3
15	33	2
32	33	1
4	4	4
79	81	1
58	58	2
126	126	3
102	132	2
2	2	1
102	104	1
48	89	2
124	125	1
63	64	4
117	117	1
73	73	1
9	78	1
31	48	2
42	44	1
39	43	2
3	101	3
112	114	3
80	115	3
114	115	2
94	127	2
12	70	1
86	86	1
82	82	2
73	76	1
7	75	1
123	123	4
27	82	1
36	74	2
116	117	3
29	33	1
128	130	1
67	68	3
43	84	1
81	88	2
103	105	1
8	94	1
23	23	3
124	124	1
24	24	1
112	117	1
20	59	1
60	76	1
127	132	1
23	26	3
54	55	3
65	66	2
6	23	1
95	96	2
16	17	1
119	120	1
7	40	3
73	74	1
120	122	1
19	19	1
49	49	1
95	95	4
128	129	1
7	45	3
89	90	1
120	120	1
96	96	3
89	89	1
92	95	1
61	62	2
121	124	1
8	44	2
12	13	1
22	26	1
44	44	1
85	92	1
16	72	2
88	101	3
33	76	1
47	48	2
110	111	1
8	43	1
46	62	1
39	40	1
37	75	1
98	101	1
56	57	2
13	13	1
104	106	1
6	101	2
68	80	1
86	87	1
75	83	1
94	95	1
105	118	1
124	126	1
32	34	2
80	100	1
117	129	1
27	80	1
38	45	1
96	97	1
112	116	1
47	64	1
76	77	1
90	104	1
20	60	1
116	120	1
64	121	1
88	89	1
125	126	1
8	9	1
