82	82	7
75	76	7
12	13	4
19	19	15
47	47	26
91	91	4
87	87	4
71	72	5
28	36	1
45	45	9
15	15	8
86	86	15
31	32	5
116	116	1
19	20	4
9	9	8
4	4	6
109	109	6
81	82	3
94	94	7
23	24	2
23	23	4
4	95	2
27	31	4
7	7	16
58	58	16
41	42	6
32	32	3
56	56	4
100	100	6
125	125	1
11	92	3
123	123	8
85	85	8
64	64	10
13	13	4
121	122	2
6	6	11
66	66	7
9	10	2
104	104	10
25	25	6
46	46	16
24	24	1
11	13	10
5	5	4
72	72	6
44	44	5
80	80	5
17	58	1
92	95	2
81	81	9
106	107	1
59	59	8
110	115	4
91	99	3
73	73	8
62	67	2
28	40	2
60	60	11
74	74	12
27	92	1
118	119	1
22	35	3
29	31	4
59	96	2
62	63	2
132	133	4
13	14	5
128	128	7
29	29	7
119	120	1
33	33	15
110	110	3
77	80	2
41	114	2
103	103	3
117	118	2
96	98	3
41	43	1
77	77	8
12	12	3
25	32	3
55	56	3
83	83	10
78	101	2
15	16	8
38	38	4
48	48	6
32	57	4
11	11	11
36	36	16
26	92	4
95	95	9
89	91	2
100	101	4
15	17	2
17	61	1
92	92	5
134	134	3
57	58	6
122	122	3
93	93	3
62	62	3
35	35	3
17	17	5
61	61	3
25	44	2
9	17	1
10	10	8
129	129	5
11	93	1
43	43	9
99	99	2
78	78	3
60	75	3
84	84	3
75	75	1
45	46	4
30	95	1
101	102	4
56	57	4
90	90	10
59	61	2
108	109	3
101	105	3
16	16	3
76	77	2
26	26	13
10	19	1
21	82	2
7	25	1
56	78	3
108	108	3
37	39	2
22	37	1
7	75	2
102	102	3
120	120	4
8	8	5
97	98	3
96	96	4
127	127	2
36	37	3
58	114	2
112	113	2
84	85	2
133	133	1
16	22	1
38	39	4
111	111	8
3	3	3
115	115	3
26	27	1
125	133	2
20	35	1
78	79	1
33	34	3
3	91	1
79	79	6
131	131	5
65	65	5
46	47	7
122	124	1
47	59	5
25	60	2
80	81	2
34	34	7
89	92	2
11	12	5
79	80	5
2	12	7
94	95	1
14	14	5
92	94	2
93	94	4
42	42	6
36	77	1
22	23	1
27	77	2
67	67	4
24	25	1
124	124	6
101	101	5
93	101	1
76	76	5
4	5	1
35	36	4
11	27	5
26	104	2
48	127	1
26	107	3
70	70	1
30	30	6
105	105	3
127	132	1
92	93	1
70	71	1
114	114	2
21	21	2
126	126	1
131	132	2
77	78	2
110	111	2
83	84	1
61	62	1
43	44	4
93	95	5
40	40	1
112	112	3
127	128	1
32	60	1
20	20	6
63	63	4
85	87	1
116	124	3
86	102	1
68	72	1
2	2	4
8	83	1
113	113	2
111	113	2
125	132	1
71	71	2
62	71	2
101	106	3
107	107	2
21	76	1
30	31	1
49	49	1
14	15	1
23	74	3
16	20	3
3	60	1
58	90	1
35	39	1
40	42	1
25	75	1
5	6	1
32	48	1
85	86	3
130	130	2
25	47	1
38	40	1
109	110	1
3	99	1
44	75	1
47	48	4
97	108	1
112	119	1
26	93	1
68	68	1
115	116	1
46	77	1
6	7	1
29	48	1
97	97	1
93	98	1
17	18	1
38	81	1
5	105	1
103	104	2
91	96	1
18	19	1
27	28	2
27	97	1
6	26	2
25	26	1
27	29	1
31	47	1
50	50	1
3	33	1
27	79	1
26	47	2
12	93	1
35	38	1
96	123	1
66	83	1
