107	160	6
51	51	4
107	167	2
127	127	9
135	135	3
154	156	2
36	36	4
134	134	7
133	133	2
10	10	6
41	56	1
170	170	4
40	40	7
53	53	15
66	66	2
107	107	3
13	13	2
137	137	8
116	116	3
1	1	2
149	149	2
24	24	2
57	57	5
157	157	2
26	26	3
87	87	8
12	84	3
104	104	1
142	143	4
155	156	2
25	44	3
6	6	8
50	50	3
146	147	2
48	48	5
72	72	4
49	57	2
109	110	7
100	100	3
78	79	3
18	18	7
9	9	7
64	65	3
37	128	1
11	11	5
34	35	7
4	4	2
13	15	2
63	126	1
76	76	9
54	54	3
101	102	1
58	138	3
22	22	3
153	154	7
11	12	2
91	132	1
108	108	3
16	16	3
58	84	1
118	118	5
10	49	2
156	156	12
105	112	1
17	17	3
39	39	11
35	46	1
55	55	7
43	43	4
82	82	2
42	42	5
94	94	5
148	150	1
53	56	6
152	153	6
151	151	6
111	128	1
138	138	3
62	62	2
126	131	1
98	98	6
112	114	3
108	118	1
64	64	5
20	53	2
8	8	9
123	123	1
78	80	1
117	144	2
18	164	1
128	128	4
26	41	2
102	103	2
81	81	3
158	158	5
2	42	3
27	47	2
120	120	2
5	5	2
75	75	6
12	86	2
100	161	1
166	166	5
65	66	2
73	73	2
117	155	3
98	99	2
123	124	1
53	54	4
115	115	4
6	109	1
20	40	1
103	103	4
5	46	2
5	6	4
15	58	1
131	170	5
51	54	1
145	145	4
49	49	1
1	55	1
127	131	1
3	3	5
83	94	1
12	41	2
34	34	6
89	166	2
139	139	4
91	91	2
122	124	2
33	34	2
1	42	1
80	80	3
53	55	1
39	127	1
93	138	4
33	33	2
19	19	3
70	70	1
70	71	3
101	169	1
147	149	1
81	96	1
14	15	1
139	159	2
23	23	7
129	130	2
131	131	4
76	79	1
36	37	2
8	9	1
152	152	6
43	159	2
142	142	3
129	129	4
18	35	1
110	119	2
143	143	2
41	41	4
13	43	1
124	124	4
53	94	2
13	62	1
105	106	2
121	121	4
14	14	4
47	47	4
114	155	1
84	98	2
109	109	3
143	155	2
6	126	2
10	141	1
19	45	1
88	116	3
7	64	5
113	136	1
146	146	1
79	89	1
140	140	2
7	12	2
128	129	3
117	117	1
141	141	1
167	167	6
18	19	1
84	84	6
112	112	4
145	146	2
13	16	1
111	111	3
133	138	3
93	93	1
150	150	2
44	44	4
2	2	1
9	10	3
119	119	4
132	132	2
25	25	5
7	7	6
38	39	2
95	131	4
163	164	1
16	33	3
89	89	1
94	95	1
139	141	1
52	52	3
114	114	1
104	111	2
157	158	2
27	27	2
120	123	1
77	77	1
35	35	2
146	149	1
38	38	1
12	88	1
7	159	2
119	122	2
106	106	1
96	98	2
63	65	1
159	159	3
79	79	3
114	165	2
144	144	2
35	36	1
147	147	2
130	130	2
57	72	2
107	166	2
83	83	2
136	136	2
15	16	2
110	110	2
44	45	2
122	122	1
47	48	1
11	56	2
69	99	1
91	92	1
78	88	2
68	68	2
116	155	1
105	107	3
121	124	2
39	52	2
149	150	1
126	127	3
166	167	1
112	136	1
79	83	3
26	27	1
119	123	2
6	7	1
114	116	2
109	113	2
143	152	2
164	164	2
64	121	2
24	37	1
14	124	2
46	72	1
81	82	1
0	158	2
99	114	1
70	76	1
12	12	1
69	69	2
57	58	1
12	39	1
86	86	1
64	84	2
21	21	3
5	18	1
19	20	1
21	22	1
7	17	1
92	93	1
57	63	1
94	131	1
63	130	1
39	57	1
113	113	1
58	58	1
65	65	1
74	147	1
63	63	1
90	90	3
76	149	1
160	160	3
45	45	1
55	56	1
5	165	1
66	126	1
20	20	1
15	15	1
45	46	1
40	115	1
86	87	1
99	99	1
37	37	2
135	136	1
71	71	1
79	88	1
112	113	1
96	97	1
13	26	1
10	11	1
12	80	1
68	69	1
63	96	1
143	151	1
38	54	1
74	75	1
97	97	1
95	145	1
96	96	1
80	87	1
105	109	1
20	55	1
3	111	1
46	46	1
28	42	1
