17	19	6
18	18	2
148	148	8
17	18	5
19	20	6
142	142	5
126	127	3
112	112	5
125	127	2
118	118	4
11	138	2
140	140	11
151	151	7
33	33	4
12	36	3
157	157	2
77	77	2
23	23	2
22	22	1
86	86	2
147	147	6
49	49	2
82	113	1
68	68	4
152	153	1
139	142	1
29	71	1
121	122	2
112	119	3
31	37	1
133	134	4
50	154	3
85	85	8
92	92	4
10	14	3
98	98	5
104	104	2
101	101	6
17	17	6
130	131	7
136	145	3
31	31	5
105	137	3
7	57	3
122	153	1
48	128	2
129	130	1
47	48	1
81	82	1
88	95	1
6	6	4
80	80	3
128	128	1
52	52	8
121	136	1
45	48	1
23	24	2
75	75	9
24	116	3
32	130	4
14	14	5
116	120	2
110	110	4
153	154	2
1	1	1
104	130	2
141	141	2
105	105	3
149	149	7
109	141	1
89	90	1
22	134	3
97	98	2
73	73	5
122	122	4
2	3	5
126	126	4
37	52	1
34	50	1
144	144	4
51	54	2
27	27	4
103	104	3
12	13	5
127	127	6
10	15	2
46	46	2
25	45	1
37	133	3
11	77	3
158	158	9
105	107	4
37	40	3
33	34	4
117	117	4
90	90	5
11	11	2
123	123	3
105	106	4
72	92	2
80	82	1
32	32	3
28	28	5
69	69	1
29	29	1
7	32	2
78	78	3
83	89	2
105	133	2
24	25	4
120	120	2
43	43	3
53	53	1
71	71	3
95	95	2
104	108	1
15	33	8
21	22	2
39	39	2
88	88	2
13	32	1
48	48	6
116	116	1
7	7	1
88	112	1
44	44	5
145	146	1
150	150	2
124	124	2
54	54	1
131	131	4
28	125	2
96	97	1
25	26	1
152	152	2
16	17	1
19	21	2
111	111	1
121	121	3
128	132	1
38	39	1
39	40	2
63	70	1
61	62	2
158	159	1
103	103	2
13	13	2
95	120	4
131	132	4
138	138	2
30	30	1
84	84	2
89	156	3
136	136	1
123	124	4
115	121	2
156	157	2
13	29	1
0	0	1
153	153	4
9	9	2
25	25	1
33	80	1
36	36	2
56	56	2
110	122	1
67	67	1
106	106	1
90	106	1
122	140	1
20	20	2
114	114	1
36	133	1
31	32	2
76	76	1
28	29	1
107	111	1
18	19	2
93	93	3
29	93	1
88	90	2
133	157	1
91	92	1
86	124	1
125	126	2
26	155	1
90	91	2
63	71	4
37	38	1
36	49	1
75	76	1
112	113	1
93	106	2
132	133	1
134	134	2
16	16	1
137	137	3
126	140	1
5	23	1
110	112	1
106	110	2
41	48	2
16	57	2
65	65	4
34	156	1
8	10	1
120	144	1
117	119	3
144	145	1
84	87	1
82	82	1
48	120	1
40	41	1
55	148	1
16	30	1
62	62	1
113	116	1
10	10	1
76	78	1
7	48	2
124	145	1
19	19	1
132	132	1
126	157	1
22	135	1
84	117	1
24	24	1
143	143	1
129	129	1
1	2	1
83	83	1
32	34	1
21	21	1
88	93	1
155	156	1
19	22	1
129	132	1
118	119	1
