103	103	6
100	107	3
104	106	3
57	57	5
21	21	6
78	79	7
98	98	5
59	59	3
67	70	3
33	33	10
96	96	6
28	28	8
82	82	10
68	68	9
22	23	2
111	112	1
61	68	3
76	77	5
77	98	1
71	73	2
40	40	5
93	94	4
54	58	3
51	51	2
72	72	4
74	74	5
60	60	3
28	48	3
86	87	2
20	20	6
61	61	13
90	91	7
73	73	9
43	43	6
32	34	5
58	58	11
99	111	3
56	56	7
110	110	3
79	79	4
29	30	2
37	39	3
86	86	6
97	98	4
113	113	3
109	109	4
66	66	4
84	84	7
89	90	4
44	44	4
50	50	3
107	107	6
112	112	8
82	83	4
61	71	2
91	91	7
62	62	9
108	108	6
64	67	4
65	65	9
81	82	2
76	76	8
99	99	3
71	71	10
78	78	8
55	56	1
109	110	2
38	39	1
77	77	8
75	79	1
33	50	3
114	114	4
104	107	3
90	90	6
52	52	3
22	22	3
77	79	1
88	89	4
106	106	9
53	54	2
87	87	2
73	74	4
102	102	7
71	75	1
83	84	4
105	113	2
111	111	3
105	106	5
70	70	3
79	81	1
30	30	3
81	99	1
96	97	8
89	89	4
47	47	4
73	81	1
40	41	1
39	40	1
77	78	2
49	49	7
97	97	1
62	63	3
31	31	1
71	74	5
67	67	6
29	29	4
24	24	4
68	69	4
81	81	2
63	64	1
94	94	5
75	75	3
63	63	1
26	26	3
69	70	2
60	62	2
31	34	2
46	47	4
105	105	7
85	86	5
48	48	3
42	42	3
38	38	4
95	95	1
87	95	3
104	104	4
53	55	1
98	110	3
87	88	1
59	62	2
80	81	3
83	83	1
91	100	2
103	104	2
62	65	3
76	81	5
56	61	1
54	54	3
79	80	1
92	93	3
46	46	3
100	109	1
80	80	2
24	67	1
33	45	1
54	55	1
37	37	1
85	85	1
107	108	1
64	66	1
65	66	1
100	105	2
86	89	2
64	64	1
56	57	1
36	36	1
62	71	2
83	87	2
65	69	1
62	72	3
35	37	2
100	100	1
100	101	1
24	56	1
61	62	1
34	35	2
34	92	2
31	32	1
90	113	1
58	71	2
84	98	1
102	103	1
95	97	1
67	69	1
82	94	1
25	25	1
70	71	1
21	23	1
62	70	1
24	43	1
95	96	1
