105	105	29
96	97	9
98	98	52
72	73	11
23	23	26
80	81	15
75	77	12
22	23	5
43	44	10
19	23	3
92	92	53
70	70	47
99	99	56
35	35	38
89	89	20
72	72	48
108	108	40
69	69	40
94	94	35
97	99	8
34	35	12
60	73	5
90	90	36
30	30	29
43	114	2
97	97	56
24	25	3
77	84	5
107	107	38
93	93	20
106	107	14
59	60	24
65	65	22
106	106	58
62	62	34
58	60	6
74	112	1
54	54	30
41	41	33
102	102	41
19	19	3
55	97	3
91	91	47
88	89	16
44	45	7
45	45	54
32	33	6
103	104	14
114	114	30
76	76	37
112	112	21
28	28	24
80	80	30
104	104	38
27	32	4
100	100	43
30	51	6
110	114	1
79	79	43
27	27	34
63	98	5
54	55	9
110	110	36
111	112	7
83	89	2
105	106	25
63	63	44
111	111	41
107	108	15
40	40	31
82	83	24
67	67	48
60	60	51
73	73	25
22	22	33
66	66	26
102	103	23
87	87	33
33	33	23
30	60	2
53	54	14
68	69	18
88	88	26
38	39	17
37	51	2
27	28	11
49	49	27
27	46	4
71	77	1
80	109	6
112	113	17
93	94	13
20	20	8
114	115	2
74	74	48
72	75	5
68	68	37
61	62	20
83	86	8
61	67	3
42	42	23
44	88	5
41	42	8
36	36	28
80	110	7
104	106	10
71	74	6
61	95	1
101	104	5
81	81	38
113	113	48
86	88	10
77	79	12
85	85	30
57	59	7
68	71	4
66	67	27
95	112	1
70	71	27
85	88	3
34	34	31
73	74	22
75	75	24
109	109	32
24	27	5
26	27	13
81	82	14
55	55	23
65	66	14
97	98	26
82	82	39
87	88	18
37	37	26
48	79	3
78	78	34
37	41	4
83	84	15
51	51	38
99	102	1
44	44	30
47	49	2
25	39	4
63	64	16
39	91	6
103	103	47
66	68	5
95	95	56
83	83	35
64	64	55
52	52	24
24	26	3
32	32	29
90	91	15
38	67	7
19	24	1
59	74	4
71	71	46
40	41	10
82	84	8
99	100	11
29	30	6
29	29	46
52	53	6
58	58	45
55	56	11
58	61	10
50	51	7
77	77	31
54	82	1
46	46	39
104	112	3
67	90	5
42	43	15
85	89	9
101	102	20
63	69	4
58	59	15
94	98	5
43	43	26
64	71	1
81	84	3
62	64	11
82	89	1
20	43	3
109	110	13
29	31	8
88	93	2
61	61	30
101	103	12
74	75	13
54	57	10
21	21	39
39	39	24
76	77	20
101	101	22
77	91	4
98	99	16
26	26	8
69	79	5
32	36	3
96	96	24
31	32	19
50	50	22
59	59	18
68	79	2
87	89	12
86	87	6
64	66	6
103	109	11
80	91	2
92	93	20
48	51	3
67	69	11
84	86	5
63	68	2
59	71	7
57	58	5
66	69	5
93	97	13
77	78	16
21	22	3
25	101	2
56	56	24
113	114	16
56	94	4
64	65	12
101	107	2
78	79	22
60	74	5
73	76	9
60	77	4
65	67	5
26	28	4
47	47	25
74	76	6
81	90	4
51	52	6
85	86	15
95	96	19
103	110	1
83	115	1
71	72	24
23	24	4
78	81	2
49	99	1
104	107	8
34	36	10
109	111	9
34	40	6
84	84	42
40	47	2
67	68	12
82	86	4
83	88	2
55	58	4
24	46	1
104	108	9
82	95	3
88	91	5
52	64	2
103	105	2
36	39	3
99	101	3
47	71	3
76	81	2
34	43	1
35	39	2
42	50	1
69	72	8
23	56	2
64	67	6
65	68	1
58	86	1
25	27	10
102	104	6
75	76	7
78	108	3
44	50	2
50	53	3
30	32	11
49	50	4
29	34	1
33	34	6
76	78	6
94	97	6
72	76	2
20	38	2
80	82	9
75	83	3
70	105	2
58	106	5
83	85	9
73	103	3
22	36	4
48	48	14
46	53	2
56	112	1
104	105	5
44	49	2
35	42	7
29	33	2
69	71	4
28	29	11
75	104	4
65	108	1
32	62	3
95	107	5
22	26	6
96	102	1
47	105	1
31	31	21
97	113	6
91	94	4
24	24	19
62	66	3
20	67	2
91	93	3
61	104	3
25	25	18
62	63	17
28	38	1
56	59	5
24	39	8
37	48	7
63	82	1
73	97	3
92	106	4
60	78	10
61	68	6
78	96	4
77	99	6
105	107	10
30	52	4
108	109	5
55	62	6
67	87	2
64	81	3
60	61	7
33	44	1
38	38	11
84	85	15
49	100	1
85	92	2
19	39	2
107	109	1
30	31	14
32	54	7
77	85	1
105	108	2
97	106	3
110	111	5
36	37	7
48	52	1
56	86	1
46	102	4
99	110	1
74	108	5
28	68	3
46	51	2
47	77	2
59	81	1
20	21	4
69	70	10
37	38	7
88	90	7
100	101	12
72	74	3
95	98	5
39	40	4
96	100	3
94	95	15
37	47	1
89	90	11
49	52	2
78	93	4
82	85	4
61	71	6
21	70	3
53	53	18
79	80	3
102	107	3
67	74	2
70	87	5
62	93	1
20	73	5
55	63	1
89	91	7
95	106	3
24	37	5
27	54	2
91	92	1
55	57	4
46	47	2
100	102	7
23	54	3
46	60	4
93	96	1
33	35	4
24	32	3
35	49	2
102	108	4
53	57	4
80	92	1
103	106	16
57	69	2
51	53	2
92	96	8
23	36	1
29	46	3
79	90	4
47	113	3
85	87	1
79	88	1
57	57	14
93	95	5
57	65	1
76	79	5
73	83	4
103	111	2
55	84	1
44	52	5
106	109	1
79	81	7
22	29	3
56	77	2
58	72	3
73	110	4
23	77	2
96	98	6
75	82	3
19	20	4
86	86	12
61	110	1
44	60	3
61	78	2
55	90	5
59	111	1
87	91	8
26	54	5
48	49	9
65	78	1
93	98	1
84	92	1
26	30	3
22	46	2
77	106	2
28	30	2
60	98	3
62	75	1
73	75	4
61	79	5
42	86	1
91	112	1
80	86	3
102	110	1
22	38	1
29	98	1
47	48	18
71	75	3
41	52	3
67	80	1
62	95	2
24	53	4
60	69	1
45	52	5
48	90	2
68	99	5
63	67	5
24	28	4
24	54	1
98	102	1
25	40	2
60	81	3
34	55	1
21	99	3
61	94	4
62	69	3
97	111	1
56	57	8
29	39	2
28	53	2
83	100	2
79	107	4
65	70	3
80	90	1
41	48	2
30	48	4
25	26	3
30	34	2
103	107	2
82	92	3
26	32	2
96	107	1
33	51	5
60	79	3
31	59	5
76	93	1
35	36	8
92	95	7
33	39	3
63	71	1
62	77	3
79	94	1
76	80	1
79	82	5
61	97	2
74	77	5
59	82	1
56	67	3
39	53	2
59	72	2
80	107	1
47	53	2
76	112	3
20	22	2
25	35	1
30	50	1
95	103	1
22	54	2
71	112	1
92	97	3
29	32	1
45	47	1
59	75	3
62	71	1
55	59	11
55	78	1
81	98	2
79	108	2
47	55	1
46	106	2
99	103	1
68	70	2
97	101	3
80	84	2
26	46	5
39	41	3
83	87	2
95	97	10
56	72	3
34	49	2
31	41	3
27	60	2
25	41	1
82	90	2
24	42	1
50	108	2
57	75	2
26	51	1
106	108	5
60	71	2
75	115	1
25	29	3
45	59	2
42	44	2
82	87	2
56	78	1
43	50	1
42	90	2
71	73	2
56	104	1
63	84	1
52	81	1
63	74	1
59	61	4
90	92	3
85	90	1
78	105	1
110	112	3
63	65	3
99	111	1
75	113	1
97	108	1
105	110	3
19	22	3
45	90	3
22	24	2
95	101	1
62	81	1
55	66	1
28	32	1
70	73	2
42	49	4
23	38	2
67	91	3
74	90	2
38	60	1
38	41	2
81	109	1
64	84	2
85	91	1
20	44	2
53	58	1
32	53	2
81	97	1
103	108	2
76	83	1
63	66	2
80	96	1
38	40	1
57	81	2
33	47	1
46	103	2
73	100	1
97	102	1
31	46	2
70	97	2
31	34	1
42	88	1
86	110	2
62	72	1
21	25	1
53	55	1
98	107	1
23	33	2
35	37	1
44	76	1
80	87	1
36	46	1
20	40	1
75	85	1
70	77	2
35	114	1
21	45	1
58	97	1
70	96	1
57	109	1
70	111	2
61	73	1
43	45	3
44	101	1
25	31	1
48	50	1
90	95	3
84	98	2
45	73	1
45	46	4
78	112	1
30	73	1
22	51	1
64	83	1
57	79	1
20	24	1
50	56	2
61	63	1
33	65	1
85	98	1
56	79	1
75	84	1
33	43	1
51	56	1
35	56	1
65	107	1
111	113	1
27	66	2
40	58	1
60	106	1
64	82	1
65	84	1
79	105	1
84	89	1
56	88	3
78	85	1
41	45	1
37	46	1
86	89	1
82	93	1
101	110	1
95	105	1
64	69	3
27	51	2
59	104	1
25	47	1
64	73	1
60	70	1
38	45	2
19	21	1
81	95	2
80	85	1
54	59	1
40	76	1
87	90	1
75	78	1
94	96	1
74	80	2
59	77	1
32	34	1
70	72	1
88	94	1
46	48	1
77	80	1
54	58	1
53	56	1
54	80	1
96	99	1
43	49	1
19	32	1
