36	36	8
3	3	12
215	215	5
75	82	3
94	95	3
199	199	5
32	32	5
42	46	5
205	207	1
242	242	8
187	187	5
91	91	8
149	149	4
7	7	6
201	220	5
171	171	12
211	211	6
174	174	7
56	57	3
87	95	1
238	248	5
18	241	6
60	75	3
71	71	9
245	245	15
222	235	2
15	15	4
58	58	8
183	184	1
27	27	4
195	195	7
6	7	3
84	84	10
156	164	2
64	64	11
10	10	9
109	109	17
34	34	9
86	178	5
212	212	5
151	151	15
217	217	3
176	181	2
207	207	2
162	163	3
82	118	1
231	231	8
12	12	6
93	93	2
147	147	6
157	157	8
169	169	1
66	175	1
179	180	2
202	203	4
198	231	3
239	239	8
205	205	5
15	185	1
112	189	1
219	219	13
24	24	6
184	216	2
156	156	16
70	73	3
57	60	1
182	182	9
76	83	1
78	78	6
76	80	3
69	69	15
170	172	4
157	158	8
22	23	4
177	177	6
171	180	4
4	5	5
40	40	15
88	96	4
173	173	8
98	98	6
7	9	3
159	159	10
53	53	5
50	62	2
238	240	4
217	247	5
76	76	9
45	45	8
54	54	4
158	219	2
79	80	8
75	75	8
233	234	6
202	202	9
90	110	2
152	152	10
39	39	7
206	206	8
167	167	1
232	232	5
159	168	4
9	9	3
193	233	4
188	188	3
150	150	5
172	175	4
43	202	3
31	32	4
18	19	7
229	230	2
196	196	7
221	222	6
189	189	11
227	227	4
29	29	11
236	236	12
12	40	2
104	118	3
214	219	4
62	63	5
14	65	5
193	193	6
81	81	8
176	177	2
63	63	6
190	217	1
99	99	6
209	209	10
30	31	3
68	97	2
43	44	2
26	26	5
185	185	6
155	169	3
222	222	3
159	166	2
113	113	2
194	210	1
174	175	3
160	183	1
223	224	5
8	8	11
48	48	11
56	56	7
146	146	5
245	246	4
28	28	4
175	175	18
67	70	8
223	236	2
244	244	7
89	90	4
204	204	8
180	180	11
183	183	8
47	243	3
201	202	7
102	102	4
216	217	2
247	247	2
212	213	7
31	31	4
161	161	4
212	214	3
112	115	3
210	239	3
18	18	7
170	179	1
165	165	6
190	194	1
1	1	15
86	111	3
3	35	4
166	166	12
16	16	9
192	213	3
102	106	1
55	178	1
78	79	5
103	103	4
62	64	4
196	199	1
200	201	1
37	37	6
152	181	2
60	219	3
153	178	4
114	114	10
41	41	5
241	241	4
62	62	1
158	158	3
115	115	5
172	173	5
91	93	2
88	89	2
243	243	3
157	166	3
86	86	1
78	116	2
169	179	2
77	77	1
154	154	9
230	230	5
162	162	5
67	175	2
79	79	8
83	83	10
111	111	11
214	215	2
231	233	2
95	96	2
19	20	1
211	238	4
110	110	6
23	23	2
194	194	2
21	21	10
180	184	2
50	242	2
83	90	4
238	238	5
2	2	4
72	73	2
145	145	7
5	5	3
83	84	3
51	51	9
94	94	10
17	56	3
160	160	7
1	43	3
154	155	1
206	223	1
107	108	2
85	113	1
20	20	11
164	165	1
167	175	4
117	120	2
44	45	4
184	184	6
211	216	3
120	120	4
240	246	1
225	225	4
70	105	2
55	66	1
246	246	1
86	101	8
25	27	2
208	209	4
155	155	6
63	107	2
163	163	5
35	36	2
90	90	2
223	237	5
221	221	5
66	67	1
223	223	8
82	84	5
36	40	1
168	168	6
181	191	2
50	50	1
119	119	4
232	234	1
170	170	9
73	73	4
237	237	1
33	33	9
149	150	2
15	63	1
46	46	3
89	96	2
118	118	8
194	195	3
220	234	2
173	174	3
101	111	2
89	95	1
152	153	1
78	81	3
248	248	4
58	119	1
68	173	3
25	26	2
176	176	7
88	88	2
19	19	13
6	28	1
189	192	4
206	225	4
26	27	1
191	191	3
96	96	2
242	245	2
24	25	3
157	160	3
59	60	1
70	177	2
228	229	1
112	244	1
15	175	2
104	104	5
35	41	1
189	190	5
152	163	6
38	40	4
34	44	3
226	226	6
171	173	2
213	213	6
94	96	3
108	108	2
35	35	1
92	93	2
87	90	2
119	120	2
54	189	2
239	240	5
181	181	5
213	239	1
114	115	1
200	200	4
180	181	1
214	214	1
55	120	1
191	192	7
63	67	2
14	14	4
157	218	1
14	31	1
193	194	3
198	198	6
74	74	2
229	229	3
90	96	1
235	235	4
110	240	1
247	248	5
18	34	1
210	211	2
156	168	1
81	118	1
235	236	2
75	101	2
72	72	3
99	112	1
201	201	4
219	226	1
220	220	4
107	107	1
69	70	2
57	58	3
65	65	1
208	211	2
60	60	2
67	67	3
183	233	5
226	227	1
70	71	1
159	179	4
14	18	2
63	64	1
211	214	1
55	55	2
197	199	1
47	47	1
44	44	5
100	101	1
187	188	1
233	233	3
66	66	4
190	190	6
42	42	2
210	214	1
186	186	1
197	197	7
74	82	2
64	65	3
7	30	1
208	208	2
106	106	1
192	192	1
242	247	1
48	50	3
216	216	3
116	116	3
71	82	1
240	240	5
105	105	2
59	61	4
154	174	4
17	73	1
184	210	1
57	62	1
199	200	5
9	10	1
187	196	1
144	145	2
75	83	1
61	62	1
153	177	1
164	164	2
84	94	2
210	210	2
3	47	2
112	112	3
162	185	1
211	212	1
211	233	2
85	85	3
178	179	3
208	210	2
43	43	5
61	61	2
184	217	2
68	161	1
11	11	1
168	169	6
224	224	3
218	241	3
237	240	1
186	197	1
167	229	2
49	58	1
5	38	1
186	187	1
178	178	2
2	39	1
170	201	2
62	68	1
29	31	1
228	239	1
245	247	1
33	55	1
5	22	1
69	177	1
76	81	1
34	35	1
45	46	1
155	235	1
6	6	1
55	57	1
242	243	2
41	42	1
22	22	2
47	48	1
4	4	1
176	187	1
159	214	1
80	80	2
95	95	1
54	181	1
120	238	1
217	218	1
244	246	1
72	74	4
41	46	1
208	213	1
33	35	1
172	172	2
150	159	1
236	237	1
163	182	2
3	4	2
168	171	1
19	47	1
203	229	1
40	41	1
204	207	1
209	211	1
25	25	2
80	111	1
6	8	2
84	85	2
115	116	1
211	232	2
85	117	1
12	39	1
48	58	1
77	119	1
153	153	2
193	195	1
195	196	1
181	185	1
62	70	1
17	145	2
225	248	1
73	74	1
233	239	3
76	77	1
202	204	1
233	235	2
216	245	1
30	33	1
242	246	1
101	101	1
89	89	1
228	228	1
183	185	1
200	202	1
32	38	1
14	17	1
179	179	1
166	167	1
