81	83	2
88	88	7
186	186	3
126	126	5
99	99	4
162	163	3
152	152	4
147	155	4
23	23	2
13	59	2
54	54	2
56	56	4
17	108	1
135	136	3
94	94	2
150	150	1
156	157	3
132	134	1
78	87	1
72	72	1
71	73	3
177	177	2
131	131	6
171	171	3
147	147	3
13	13	2
126	127	3
98	98	3
136	137	1
82	104	5
114	115	2
178	183	2
22	22	2
163	163	2
140	142	4
125	139	1
113	113	2
81	81	5
104	104	7
92	104	2
68	69	2
138	138	1
44	68	1
97	97	4
24	25	2
57	73	1
102	103	3
86	140	1
48	48	2
78	141	1
41	41	4
25	25	2
13	63	1
156	158	2
73	73	4
1	2	2
83	83	1
7	55	1
118	119	1
64	70	3
142	143	4
142	145	1
75	97	4
156	156	3
32	79	4
178	178	6
62	63	1
84	84	3
157	157	1
109	109	2
6	8	2
32	36	1
185	187	1
182	182	1
160	160	2
20	30	3
49	59	3
92	95	1
134	134	1
53	57	2
111	124	2
110	114	3
121	121	1
90	103	2
25	26	2
14	14	3
122	122	4
10	35	1
168	170	2
13	14	3
6	6	4
11	81	1
46	46	1
159	163	4
77	141	2
21	60	1
47	47	1
137	137	1
66	66	1
146	146	4
138	163	1
26	26	5
55	56	1
64	65	2
45	45	2
117	117	2
156	159	3
30	30	1
70	70	1
70	71	1
158	158	1
20	21	1
66	67	4
90	106	2
90	99	1
148	149	1
148	148	4
120	120	1
130	131	2
130	130	2
44	73	2
28	30	1
149	149	1
2	2	3
58	104	1
19	20	2
15	15	2
123	123	4
139	139	1
58	58	1
67	68	2
0	56	1
37	83	1
58	61	1
155	158	1
40	40	1
164	164	2
0	53	3
80	80	2
105	105	2
8	8	3
33	34	1
141	141	2
24	24	1
43	43	2
90	91	1
132	132	2
105	106	1
185	185	1
155	159	2
38	38	1
87	87	1
114	114	1
20	20	1
180	180	1
151	151	2
79	115	3
32	32	2
169	169	1
41	43	1
112	112	1
79	140	1
78	78	1
103	103	2
181	181	2
165	165	1
87	90	2
154	155	1
61	61	1
75	75	1
119	129	1
78	145	1
91	91	2
183	184	1
9	9	1
58	63	1
19	19	1
170	170	1
146	147	1
71	71	1
65	65	1
101	101	1
