7	7	6
151	151	5
20	21	1
3	3	5
132	133	2
91	91	4
62	62	1
144	146	3
47	47	1
110	129	1
4	4	5
78	78	9
81	81	3
115	115	6
69	119	1
50	50	1
85	85	3
124	124	5
48	49	3
31	32	5
45	47	4
13	94	2
75	75	9
76	106	3
10	10	8
145	145	4
39	56	2
137	137	9
89	97	1
56	56	3
39	83	2
122	122	9
21	21	7
7	11	1
106	106	4
26	26	6
131	131	5
142	142	7
8	9	4
136	137	2
127	127	2
0	26	2
125	125	6
46	46	6
18	31	2
111	111	3
123	123	8
25	27	4
71	71	3
6	6	2
119	119	4
19	36	5
109	110	2
137	141	3
44	45	1
153	153	1
114	114	9
103	103	5
156	158	3
36	36	5
12	66	5
20	20	1
32	97	3
81	82	6
93	94	2
99	99	7
157	157	5
44	44	2
96	119	1
119	142	1
86	87	5
57	71	1
101	101	2
85	112	4
32	32	1
97	97	2
107	107	6
116	116	3
31	31	5
143	143	1
140	140	3
113	114	6
141	152	1
68	140	2
118	142	1
100	100	1
7	8	2
135	136	5
131	148	2
0	29	3
38	38	3
117	120	2
48	104	1
98	98	3
31	53	3
139	139	5
95	131	1
111	112	3
35	36	2
67	144	2
158	158	2
12	13	2
24	25	1
9	49	2
116	117	1
69	147	1
29	30	3
139	140	2
123	134	3
50	51	3
133	133	6
84	84	8
13	16	2
77	113	6
105	105	2
149	149	3
145	152	1
5	5	6
13	13	7
43	77	2
110	146	1
113	113	4
12	12	6
83	86	1
79	126	4
115	116	1
146	146	4
110	110	5
51	52	3
37	38	3
86	86	2
70	70	2
21	37	4
154	154	3
131	132	3
77	77	2
104	123	3
151	152	5
150	150	9
138	138	5
34	37	1
126	156	3
25	25	4
95	134	2
137	156	4
112	113	1
23	24	3
118	119	1
9	9	3
2	47	6
26	27	4
124	125	2
72	72	1
142	144	2
112	112	4
130	130	4
103	107	2
0	2	2
93	115	2
120	120	3
123	150	1
63	63	3
28	28	3
129	129	1
128	128	7
16	55	2
80	80	2
38	41	1
45	45	1
53	53	4
76	85	2
156	156	5
83	112	1
30	30	2
89	119	4
152	152	8
87	87	1
69	69	1
141	156	1
4	5	1
19	32	1
90	116	2
43	43	3
30	53	3
18	32	2
144	147	6
133	148	2
132	132	1
51	51	1
135	135	5
157	158	2
67	68	1
141	142	1
92	92	4
102	103	3
112	144	1
86	147	5
24	26	1
51	53	1
67	67	4
88	89	2
17	31	3
107	108	2
56	77	2
43	109	1
18	18	1
77	79	1
121	142	1
42	42	1
93	93	1
121	155	1
8	35	4
129	130	1
20	22	4
1	1	2
9	32	3
98	100	1
29	29	1
79	83	1
68	120	1
71	122	3
16	16	2
41	41	1
96	97	1
50	104	1
107	127	1
19	19	1
142	146	1
13	20	1
146	147	1
109	109	4
114	116	1
30	33	2
147	147	3
18	19	1
99	107	1
82	82	1
65	66	1
37	57	2
78	104	3
8	8	3
118	120	1
124	126	1
51	103	2
141	141	3
18	20	1
91	98	2
121	121	1
87	97	2
48	53	2
91	108	2
2	2	1
37	37	1
137	138	2
11	103	1
79	104	1
121	122	1
69	108	1
108	108	1
70	103	2
37	48	2
103	104	2
55	72	1
57	61	1
22	22	1
99	100	1
33	37	1
40	40	1
12	51	1
145	154	1
73	73	1
67	141	1
16	17	1
117	117	1
9	10	1
14	14	1
42	43	1
17	17	1
90	90	3
159	159	1
69	71	1
35	35	1
108	111	1
38	54	1
76	76	1
97	116	1
55	55	1
