1	48	2
5	5	37
58	58	19
55	56	16
48	49	15
69	69	24
6	6	33
53	53	28
42	42	33
16	16	11
66	66	22
19	20	6
68	71	1
8	10	6
17	17	40
13	13	24
59	59	30
16	17	4
79	79	31
5	6	15
61	61	23
28	28	44
73	73	43
19	19	32
31	33	11
45	45	34
14	14	32
3	3	29
58	60	2
77	77	21
7	7	42
49	50	5
38	53	5
63	63	41
35	35	24
51	51	18
8	9	16
40	40	33
74	76	11
67	67	23
13	14	34
56	56	20
78	78	51
48	48	22
32	32	32
3	20	1
21	32	1
61	62	7
0	0	21
68	69	5
76	76	38
50	52	6
30	30	28
80	80	26
54	54	27
1	1	29
11	15	9
41	42	10
74	74	24
64	64	33
62	62	18
4	4	24
6	8	4
33	33	21
51	68	8
55	55	34
76	77	10
39	39	19
72	72	58
65	65	40
9	9	35
10	30	5
47	48	15
30	31	20
43	43	5
70	71	12
0	18	3
20	20	14
49	49	14
26	26	24
50	50	25
34	49	4
50	67	2
36	48	2
77	78	7
10	10	21
39	40	7
31	31	15
75	75	20
58	59	9
34	55	1
37	38	4
59	60	17
46	46	42
67	68	16
48	65	2
12	14	11
6	7	6
12	13	3
41	41	27
54	55	5
2	2	16
46	47	23
11	12	20
32	33	18
45	46	12
74	75	9
9	10	13
29	29	20
37	37	54
57	57	32
8	8	37
74	77	5
56	57	13
70	70	20
26	30	2
63	64	14
27	27	45
31	32	6
1	57	2
33	51	1
78	79	7
1	2	12
12	12	28
1	7	1
51	54	1
36	36	11
66	67	16
65	72	3
2	34	5
28	29	22
40	41	12
70	72	4
69	70	12
25	25	19
52	52	33
69	72	6
31	50	1
42	62	8
73	76	1
21	26	5
51	53	3
11	11	27
64	65	7
26	35	1
0	1	8
51	52	13
35	36	10
34	34	8
49	53	8
59	78	3
32	50	3
71	72	13
21	22	2
76	79	3
27	28	12
21	30	2
4	5	16
28	59	3
57	58	3
72	73	12
52	70	2
49	51	2
44	45	7
34	48	3
21	21	8
1	76	2
30	32	3
68	68	25
18	18	14
60	61	20
7	9	3
56	65	1
71	71	22
31	53	6
51	67	2
10	16	3
62	64	4
3	5	6
9	34	3
38	38	22
47	55	3
74	79	2
36	37	2
38	39	8
60	60	15
3	29	1
63	65	4
20	21	4
53	54	5
47	47	16
12	25	1
21	25	2
2	4	2
50	51	4
79	80	10
37	61	3
20	35	2
52	53	9
53	55	3
15	15	10
2	3	7
7	43	2
7	81	2
14	15	5
46	49	3
54	71	1
31	63	1
73	80	1
28	36	4
0	2	3
44	46	1
34	35	1
9	11	3
25	26	5
67	71	1
3	6	2
21	51	2
58	75	3
8	12	1
6	27	4
62	63	4
10	12	4
10	15	2
27	29	3
26	27	8
54	56	2
35	45	2
65	66	6
12	15	2
33	34	6
22	22	2
76	78	3
65	73	1
3	27	2
40	57	1
22	70	3
17	18	3
10	11	11
33	48	1
16	18	1
49	52	4
35	40	2
15	16	1
5	12	1
11	63	1
12	21	3
52	68	2
75	76	9
3	4	6
29	35	1
10	13	2
40	43	1
55	64	2
57	64	3
68	70	3
47	65	1
37	40	4
66	68	1
73	74	2
11	16	6
29	73	1
20	26	2
36	39	3
33	49	2
48	50	1
59	61	2
1	13	2
53	67	1
53	66	2
9	27	4
41	60	1
12	16	1
8	73	2
17	25	1
44	44	2
67	70	7
27	38	1
63	73	1
4	35	1
8	32	1
2	57	3
32	53	1
41	43	1
62	74	1
2	5	1
32	70	1
8	27	1
25	28	1
18	64	2
28	61	5
55	63	2
49	54	1
47	56	2
53	70	2
20	30	1
7	8	6
48	66	2
36	38	1
21	69	1
31	36	2
45	64	1
36	40	1
27	37	1
46	48	1
42	43	1
47	57	1
59	62	2
10	14	1
17	79	1
0	80	1
21	54	1
34	36	2
36	42	1
45	65	1
50	53	1
55	71	1
56	73	1
11	18	1
59	66	1
11	26	1
2	6	1
44	47	1
15	17	1
25	30	1
33	53	1
0	17	1
12	31	1
