30	30	2
78	78	3
113	113	4
179	180	2
109	109	6
89	91	1
150	150	3
86	91	1
246	246	1
171	171	3
167	176	2
208	208	2
104	105	3
85	85	1
236	236	7
229	229	3
204	204	2
16	16	2
64	67	4
88	89	1
95	100	6
28	28	7
101	104	1
198	200	2
10	11	4
45	45	3
194	195	2
156	174	4
170	209	4
24	24	2
67	68	3
190	196	2
216	220	1
65	89	2
55	55	6
172	173	8
40	41	2
53	53	4
64	64	5
156	156	5
185	186	1
39	230	8
10	10	3
34	55	1
151	151	10
241	241	2
69	69	1
193	193	11
82	82	1
31	107	1
161	162	1
164	164	8
17	17	3
117	117	3
212	212	5
217	218	1
159	159	2
220	220	3
175	175	4
191	192	3
213	213	3
175	176	4
19	19	7
217	217	3
64	65	2
160	161	1
165	166	3
195	195	7
111	111	14
234	234	3
187	188	1
95	96	2
90	90	2
158	181	1
96	103	4
173	195	1
38	39	2
157	158	1
215	215	5
92	93	1
4	5	1
32	109	2
178	180	1
25	25	2
214	214	3
65	66	2
49	225	2
60	68	3
114	115	4
177	184	3
244	246	1
119	119	3
155	155	2
210	247	1
244	244	1
162	162	2
170	196	1
49	79	2
3	4	1
111	120	3
7	7	1
210	211	6
228	228	9
20	20	4
65	65	2
247	248	1
114	114	3
229	241	2
209	209	1
24	25	1
41	41	3
29	31	1
197	201	1
108	108	4
56	56	4
189	189	3
179	179	6
182	182	1
79	84	4
231	231	11
242	242	2
197	197	2
33	33	6
147	183	2
205	205	3
178	178	2
207	207	1
152	152	6
93	93	1
37	37	1
153	153	1
33	119	7
202	203	2
207	231	1
171	186	2
67	67	3
31	109	3
180	180	2
107	107	1
206	207	2
245	248	1
209	211	1
194	214	5
98	98	2
169	169	3
86	86	2
120	120	3
74	94	2
8	11	1
240	247	2
72	84	1
80	80	2
237	237	5
8	8	1
196	196	3
23	23	6
23	47	3
50	50	3
26	41	6
115	115	2
233	233	5
188	189	1
234	235	2
102	105	1
210	210	2
211	211	4
164	177	1
116	116	3
150	151	2
41	44	2
222	222	1
160	180	3
158	158	4
215	242	2
81	81	6
150	156	2
215	217	2
15	15	2
240	240	4
165	165	1
6	61	1
192	192	2
51	51	2
185	185	5
77	77	1
12	115	5
11	11	3
245	245	3
62	64	3
8	16	2
211	213	2
12	12	1
111	112	2
202	202	2
112	112	2
186	188	1
39	39	2
232	232	3
237	238	1
221	222	2
160	176	1
169	220	1
154	154	1
210	219	2
169	179	1
206	206	1
32	33	3
209	214	2
173	173	3
35	36	4
110	226	1
223	223	2
44	45	2
211	212	1
80	82	1
42	43	1
165	195	2
118	118	4
66	68	4
116	117	1
13	13	1
197	198	2
36	36	2
42	42	1
233	234	1
54	55	1
109	247	1
150	184	1
197	199	1
147	147	2
46	46	2
217	240	1
209	210	2
60	61	2
38	38	2
44	44	4
17	116	1
72	94	2
21	21	2
208	214	1
13	14	4
73	103	1
161	161	3
114	116	2
87	91	1
74	74	2
84	84	1
199	200	2
184	184	1
61	86	1
50	51	3
189	193	1
159	165	1
180	181	1
39	40	1
157	193	1
178	202	1
34	50	1
52	55	3
191	191	1
61	62	1
181	202	1
189	190	1
168	170	3
235	236	3
93	95	1
195	196	1
103	103	1
79	79	4
45	46	2
72	72	2
112	113	1
152	196	2
52	52	2
216	247	4
89	89	2
112	118	1
239	241	1
95	95	1
200	201	2
64	118	2
63	74	1
52	115	2
57	58	1
99	99	2
199	199	2
69	94	1
235	235	1
176	176	1
190	213	1
171	172	1
190	192	4
0	182	1
63	119	1
91	91	3
100	100	1
87	106	1
182	184	1
183	201	1
47	48	2
178	179	1
216	218	1
49	49	2
234	247	2
205	211	1
66	67	1
150	200	1
229	230	1
81	82	1
113	189	1
9	9	1
172	174	1
168	168	1
214	218	1
181	181	1
102	102	1
11	109	1
155	186	1
99	101	1
183	183	1
168	169	1
37	38	2
238	240	1
172	181	1
81	83	1
27	27	1
57	57	2
84	226	1
85	86	1
211	218	1
74	149	1
247	247	1
181	182	1
195	211	1
58	58	1
110	110	1
97	97	1
