25	25	14
53	53	14
90	91	3
15	15	15
46	46	15
22	23	7
108	108	11
95	95	9
20	22	3
159	160	4
36	36	18
41	41	22
46	57	6
45	46	8
106	106	19
57	57	25
5	6	13
128	128	8
82	111	1
44	44	20
114	114	16
49	50	2
72	72	9
136	136	17
162	163	3
79	79	12
33	36	1
1	1	12
87	96	1
39	39	25
134	134	20
129	131	7
89	89	11
2	2	14
34	34	12
52	52	23
88	88	21
70	70	17
22	22	15
87	87	27
98	98	12
99	154	3
4	4	15
136	137	4
102	103	6
12	12	13
17	17	16
53	54	7
155	155	8
138	138	8
157	157	6
37	38	3
140	140	12
165	166	6
7	14	3
94	95	3
65	65	12
108	109	9
93	125	1
145	145	24
100	101	6
118	118	17
66	66	24
163	165	7
119	119	7
166	167	3
100	100	14
94	165	1
8	8	11
56	86	1
130	130	8
92	92	14
73	73	18
96	96	16
5	18	4
37	37	16
99	99	13
19	19	7
142	142	10
149	149	26
22	76	2
16	26	8
93	93	12
147	147	8
137	138	7
133	144	3
34	35	2
26	27	9
14	14	16
56	158	4
40	46	2
50	97	5
93	94	9
9	10	3
134	135	2
54	54	12
158	158	12
20	20	8
111	113	3
75	75	18
56	57	2
122	122	5
51	51	4
161	162	4
56	56	25
49	49	16
141	141	14
152	152	16
39	41	4
12	13	7
113	113	7
11	11	14
9	9	6
78	113	3
21	23	4
107	107	13
88	89	4
13	149	3
140	141	4
66	115	4
57	121	2
166	166	4
121	121	5
0	0	3
147	149	3
6	6	23
168	168	13
6	120	1
111	111	27
67	67	18
139	140	2
121	122	10
119	131	6
16	19	2
124	125	2
143	143	19
38	41	2
101	103	2
117	118	1
71	71	17
78	80	2
7	7	18
114	116	3
110	110	17
150	162	4
129	129	7
85	85	6
133	133	9
5	111	3
21	46	1
153	153	15
144	144	18
80	81	5
39	40	3
120	120	13
38	38	10
85	86	4
44	45	1
81	81	5
42	92	5
26	44	1
43	43	21
39	153	5
63	78	2
151	151	10
21	21	13
165	165	4
90	103	7
164	165	2
23	23	11
64	72	3
58	62	2
12	44	2
98	102	2
12	34	2
35	35	20
13	14	1
38	113	4
130	131	1
96	97	15
50	50	14
86	89	4
109	138	4
45	45	7
48	48	23
13	13	18
13	15	6
5	5	9
80	114	2
76	76	8
16	28	6
65	66	4
11	12	9
123	123	4
68	68	3
84	89	5
134	155	1
120	121	7
24	24	6
117	129	2
77	77	20
4	14	2
4	5	3
167	167	9
100	102	3
96	119	3
47	49	1
25	151	2
38	39	1
97	97	7
118	129	1
151	152	4
50	51	1
63	63	5
156	156	7
102	102	7
159	170	3
83	90	3
137	137	12
86	86	20
161	161	7
104	104	9
84	85	3
146	146	6
109	109	17
159	159	7
22	110	1
26	26	9
103	103	11
101	102	2
93	116	1
123	131	3
16	16	7
90	90	9
21	22	5
105	107	3
114	115	3
17	81	3
93	126	1
132	132	9
160	160	13
169	169	12
69	116	3
7	21	3
163	163	7
164	164	12
105	105	19
55	55	7
38	80	1
139	139	8
138	139	6
27	27	8
74	74	8
79	80	4
147	148	3
94	94	10
18	28	3
168	170	3
2	12	2
62	62	5
33	33	4
5	44	2
43	116	1
4	56	1
98	99	11
99	100	4
100	154	1
47	47	13
135	135	14
112	114	4
38	155	4
102	105	1
79	92	1
8	9	6
127	167	1
14	15	7
8	12	3
122	162	4
150	150	7
57	78	2
82	82	18
152	160	1
1	2	3
103	104	3
83	83	13
91	93	3
48	49	12
75	157	2
21	24	1
112	112	14
103	105	1
84	84	10
21	77	2
72	156	7
78	78	7
78	79	11
131	131	7
99	104	2
73	74	3
170	170	2
66	72	1
69	115	3
3	3	12
10	10	9
108	120	3
87	101	2
54	91	1
154	154	9
85	107	2
54	56	5
156	158	12
17	20	1
55	158	2
139	141	1
62	63	10
126	146	1
108	113	1
119	121	4
69	69	4
50	62	2
122	163	1
109	122	2
20	23	4
92	93	5
40	40	9
50	56	1
2	36	2
88	96	1
51	71	3
91	104	2
57	62	3
76	77	1
41	118	1
24	28	4
115	116	2
111	112	6
83	84	5
5	110	2
115	115	9
125	125	6
19	124	1
5	11	2
132	169	1
5	42	6
16	27	1
0	3	2
57	87	2
127	127	7
0	50	2
61	62	2
91	91	9
166	168	4
142	143	1
69	164	1
57	80	4
97	98	5
58	64	2
86	87	7
50	63	3
98	103	3
118	130	5
2	58	1
18	18	8
40	50	2
71	115	1
72	73	2
27	76	4
41	120	1
96	154	1
37	109	2
2	37	2
17	25	2
17	121	2
71	74	3
66	114	1
98	100	3
56	128	2
107	108	1
66	67	2
15	16	1
28	110	3
33	34	5
28	28	5
113	114	3
0	49	3
100	104	6
146	158	3
150	161	1
126	143	1
26	45	1
126	126	5
50	57	1
36	37	3
109	133	5
25	41	3
25	82	1
110	111	6
119	123	3
97	99	1
82	84	1
116	116	1
2	3	2
123	124	3
37	43	1
37	44	1
72	114	3
23	24	4
16	110	4
116	117	1
49	128	2
5	19	2
13	25	1
80	80	3
37	113	6
48	50	1
41	42	3
66	68	1
108	116	3
10	11	1
55	144	2
23	110	1
0	16	1
47	48	4
53	108	2
163	164	1
2	132	3
92	94	1
16	17	1
17	153	2
34	46	4
105	106	2
12	20	3
38	93	1
20	21	2
41	47	2
74	159	2
95	129	2
148	149	12
6	14	2
17	27	1
125	126	1
24	26	1
140	143	1
91	100	3
82	83	1
69	71	1
86	106	1
150	151	2
34	43	5
57	64	1
58	96	2
19	153	1
21	110	1
124	124	4
17	26	1
76	114	2
48	52	2
121	160	1
2	134	1
76	78	1
64	113	4
39	63	1
83	108	2
40	49	3
40	41	3
42	42	11
2	115	1
39	50	1
120	122	3
120	131	1
52	81	1
2	4	2
35	46	1
27	75	1
162	165	1
1	19	1
132	136	1
97	106	3
4	53	1
143	144	2
42	56	1
42	110	1
153	154	1
22	24	1
56	169	1
101	101	3
144	145	1
64	86	1
49	79	2
104	105	2
78	90	1
37	112	1
96	99	1
129	163	1
148	148	2
97	117	1
37	42	1
126	127	1
67	68	1
35	36	1
58	58	1
106	107	2
12	24	1
114	133	1
94	116	1
64	64	1
51	57	1
54	126	1
2	16	1
50	79	2
162	162	1
6	7	2
4	111	2
52	53	1
57	100	2
81	82	1
68	104	1
50	73	1
38	116	1
13	26	1
167	168	1
38	85	2
85	103	1
87	100	1
117	130	1
43	44	1
65	72	1
80	120	1
127	166	1
