65	65	6
150	150	8
64	70	3
107	107	22
14	109	2
119	119	7
47	48	3
144	145	15
103	104	15
120	120	8
136	136	10
38	39	9
142	144	2
8	16	3
114	115	6
14	15	12
15	15	3
82	83	11
80	81	5
8	10	3
93	93	10
126	127	12
6	6	4
54	54	6
135	136	9
109	110	7
78	78	8
129	131	6
15	16	6
131	131	11
86	86	9
90	90	9
99	99	10
26	26	9
91	91	17
49	49	3
23	64	2
38	38	11
153	154	8
82	82	9
9	9	4
55	55	12
11	12	4
121	122	4
29	30	2
127	127	7
155	156	5
105	107	2
102	102	1
100	100	4
67	67	7
142	142	18
120	121	3
31	32	1
50	50	4
106	107	5
94	94	5
88	88	8
12	12	3
138	155	1
139	141	6
87	88	1
46	52	3
155	155	10
51	51	6
71	71	6
87	87	4
143	143	7
138	138	12
91	92	8
122	123	3
132	133	8
39	39	13
32	32	12
141	141	13
79	82	1
117	117	4
78	80	4
151	151	13
121	121	7
77	77	7
103	106	3
33	35	2
128	129	4
89	89	7
116	116	9
98	98	3
106	106	7
108	109	5
21	22	2
105	105	4
17	27	4
109	109	17
31	31	4
11	11	5
80	82	3
17	28	2
145	147	2
140	140	3
24	24	3
126	126	15
16	16	13
63	64	2
62	70	2
146	146	7
147	147	13
28	28	4
22	22	3
123	139	3
97	97	6
6	7	2
111	113	1
101	101	13
50	51	11
47	47	4
95	96	9
122	122	7
68	68	9
144	144	14
9	11	1
62	63	2
108	108	13
96	96	8
27	28	2
48	62	4
63	63	1
35	36	5
76	77	2
155	157	3
132	132	10
62	62	3
130	130	13
1	3	6
150	152	3
133	133	6
78	79	5
78	81	1
75	76	4
139	139	11
54	71	6
53	53	7
25	25	4
133	134	3
117	119	2
4	26	2
0	0	6
44	44	6
23	25	2
56	69	1
123	123	7
43	49	2
20	21	1
79	79	10
134	137	2
147	148	2
103	103	11
87	89	4
62	68	2
41	41	9
111	129	1
130	143	4
69	89	3
20	20	4
3	5	3
134	135	1
4	5	1
114	114	12
137	137	6
154	154	5
119	120	6
1	1	5
104	104	10
50	52	3
111	111	6
18	20	1
86	87	7
108	112	2
158	158	9
156	156	3
36	37	3
137	138	3
117	118	3
131	132	2
92	94	4
88	103	3
125	126	5
2	123	1
94	95	5
137	144	3
150	153	3
17	17	6
153	153	2
3	3	6
105	106	2
83	83	5
108	111	2
124	125	5
48	48	5
87	113	1
129	129	5
52	52	7
94	114	1
73	73	8
71	73	2
125	125	4
123	125	2
23	23	4
52	57	5
40	40	9
118	118	8
61	61	2
85	85	6
31	37	1
132	135	2
18	18	4
14	14	3
142	148	3
37	38	1
152	152	7
69	70	2
48	49	1
53	56	2
125	127	7
129	130	4
112	115	1
33	33	4
84	84	7
124	124	6
57	57	4
140	141	7
9	12	4
8	8	1
103	108	6
21	42	3
70	70	1
69	69	3
33	34	3
110	110	3
104	105	5
149	149	3
81	82	2
127	129	1
115	115	9
135	154	3
128	128	3
148	149	1
76	76	2
116	118	2
17	23	1
135	135	9
134	134	6
88	115	3
65	66	2
75	99	4
113	126	1
71	72	1
112	112	3
148	148	5
80	80	6
111	141	2
113	113	1
131	141	1
28	29	1
154	155	1
10	10	3
143	144	1
2	2	3
92	92	5
152	153	1
111	139	1
83	85	2
132	153	1
74	74	3
127	128	3
93	114	1
139	140	1
83	84	4
36	36	4
21	21	1
145	145	2
142	145	1
96	97	2
42	42	5
81	81	2
115	122	1
72	72	2
34	35	3
37	37	4
35	35	1
76	79	6
85	86	7
66	66	3
117	121	1
93	94	2
132	134	2
141	142	6
156	157	8
9	10	7
7	7	1
43	43	1
75	75	8
123	124	4
23	24	1
8	9	2
127	143	3
29	29	2
98	99	3
138	139	2
5	5	1
9	57	1
152	156	2
84	85	2
34	34	4
92	93	1
114	137	2
45	45	2
90	91	2
141	148	1
45	46	4
116	121	2
64	64	2
92	138	1
32	34	1
11	64	2
67	70	1
17	18	2
126	132	2
30	30	5
49	56	2
146	147	2
107	108	1
13	15	1
81	83	3
4	4	1
151	152	3
47	70	1
75	77	1
17	20	1
74	94	2
1	2	2
42	45	1
32	33	3
87	104	1
47	49	1
46	46	2
90	106	1
49	67	1
126	144	1
108	130	1
151	156	1
126	128	1
53	54	1
150	154	1
109	142	1
153	156	1
5	6	2
77	82	2
12	19	1
137	141	1
70	71	2
55	69	1
44	45	2
106	113	1
110	130	1
157	157	1
7	8	1
116	117	1
134	154	1
37	39	1
111	122	1
128	130	1
102	105	1
67	68	1
10	11	1
123	145	1
136	137	1
46	47	1
145	146	1
7	156	1
