207	207	18
53	53	12
154	154	24
151	151	17
42	42	6
213	213	11
37	37	8
95	96	1
198	200	5
160	160	12
101	111	1
113	113	13
88	88	8
22	22	11
215	216	3
171	172	2
162	163	2
43	43	12
156	156	7
150	232	4
162	162	9
210	211	6
237	237	9
237	239	1
226	226	14
36	36	4
53	65	1
112	112	9
12	49	3
83	84	3
111	119	4
164	164	5
238	249	2
185	204	1
49	49	8
218	218	7
171	171	8
161	185	2
68	75	3
112	119	3
68	72	3
170	170	17
93	114	5
158	158	4
152	184	4
245	246	6
204	205	2
116	116	12
60	60	8
183	183	10
152	152	4
238	248	1
248	249	1
145	145	7
178	185	3
78	118	5
80	83	1
209	209	20
166	166	6
213	214	17
44	44	5
24	24	12
231	231	7
80	80	5
219	219	13
246	246	8
102	103	6
221	221	8
243	243	13
150	151	4
169	169	5
17	44	4
176	177	7
217	241	6
194	194	8
191	191	12
45	46	2
12	12	6
204	204	11
68	69	2
202	202	7
96	97	1
87	87	5
92	92	7
82	105	5
168	169	1
17	43	2
203	203	11
93	110	5
104	107	2
114	114	15
234	235	3
208	209	3
241	241	11
241	242	4
159	159	14
37	147	2
67	70	2
157	184	2
101	102	1
44	45	3
193	193	12
146	146	3
90	91	2
60	61	7
118	118	6
157	157	9
5	5	8
84	84	13
165	165	7
57	57	7
240	242	8
103	103	6
153	153	12
205	205	10
87	88	7
21	21	5
75	75	12
161	174	2
216	216	8
239	240	2
56	57	2
200	200	3
77	86	1
10	10	4
244	244	12
46	46	4
21	23	1
57	58	5
40	40	4
37	38	3
10	38	3
238	247	2
3	6	4
183	184	5
8	9	4
223	223	9
50	50	8
83	83	3
82	82	13
198	201	1
222	222	4
14	237	4
96	96	6
214	215	4
95	95	6
178	178	6
111	111	5
226	227	2
247	248	1
162	207	2
159	246	3
100	100	5
184	184	13
171	175	2
215	219	2
217	218	6
4	4	3
47	47	3
181	183	3
237	238	5
229	229	5
194	213	2
60	63	1
8	93	1
115	116	3
47	48	10
9	52	1
54	54	5
166	182	2
105	105	2
166	167	1
62	62	5
177	177	15
202	224	2
54	186	6
107	183	3
167	167	4
61	61	3
49	63	5
232	232	11
64	64	1
188	188	7
235	235	7
233	234	1
168	168	8
91	157	1
89	89	7
38	39	3
108	116	2
155	155	7
246	248	1
78	78	6
5	187	4
175	176	6
242	242	11
147	158	8
211	211	10
67	168	6
183	192	1
59	59	1
79	95	2
89	91	3
176	176	11
208	215	4
179	233	3
180	180	9
35	35	5
3	4	1
218	219	4
237	241	4
151	185	1
31	32	3
34	34	1
30	31	4
222	223	4
104	104	1
119	119	11
38	38	6
5	61	1
197	198	6
5	50	4
182	236	3
213	235	1
179	179	13
106	183	5
195	195	1
11	12	2
210	210	3
79	82	2
63	65	2
76	76	3
9	15	3
85	85	14
90	173	2
196	196	8
19	81	4
17	53	3
183	219	1
36	37	3
153	155	2
106	106	2
101	101	4
182	182	6
189	195	1
167	179	2
68	68	5
233	233	3
187	188	2
37	152	4
70	168	2
54	55	1
6	47	2
59	64	1
186	193	1
199	229	1
157	158	5
196	197	2
19	94	6
197	197	4
156	185	2
81	84	5
35	146	4
201	201	7
234	234	4
31	31	9
168	186	2
7	7	3
230	230	6
119	241	1
228	228	4
48	97	5
173	173	3
236	236	14
238	239	4
48	49	10
192	197	4
70	70	2
215	215	3
210	245	3
181	181	6
62	68	5
172	172	5
119	120	1
10	54	2
72	74	1
59	61	4
189	189	4
16	18	1
32	187	1
186	186	7
46	190	1
153	160	2
36	38	3
115	115	9
227	228	1
224	246	2
11	11	4
62	74	1
116	144	1
110	110	3
45	193	2
175	175	8
6	6	3
212	212	11
37	83	3
201	202	2
202	203	1
13	13	2
93	103	2
210	214	2
28	52	1
166	213	4
240	240	5
152	187	3
163	208	2
90	164	2
108	108	1
18	20	6
185	185	6
51	51	1
238	238	3
102	116	4
247	247	5
51	61	1
238	240	3
144	149	2
77	77	1
1	44	4
116	117	5
22	23	1
144	144	3
118	119	2
58	58	7
80	81	2
8	36	2
224	224	1
29	169	3
167	168	2
95	118	1
81	81	4
102	170	2
105	108	2
216	240	2
185	224	2
74	74	3
9	9	5
200	209	3
210	248	2
98	98	6
183	191	1
183	197	1
84	170	3
194	196	2
174	174	6
192	193	1
186	188	1
235	236	3
149	149	2
187	187	5
166	218	6
66	66	5
206	206	3
79	80	5
192	192	1
40	231	2
31	93	3
93	94	3
203	225	1
48	48	4
49	50	1
46	233	3
245	245	7
26	26	3
101	118	3
32	33	6
63	64	3
17	17	5
90	90	6
199	199	4
150	150	3
83	171	2
67	67	2
18	18	3
211	238	1
41	41	1
151	235	1
198	198	1
180	249	2
99	99	4
214	218	2
213	215	1
15	15	1
181	182	1
16	16	4
195	215	2
58	89	3
97	98	1
107	107	4
158	172	2
214	214	5
52	52	3
227	227	3
45	45	3
33	33	5
159	169	2
120	120	2
80	226	1
20	20	2
158	159	1
109	109	2
93	168	1
163	173	3
55	56	3
12	13	1
211	244	1
77	78	2
55	55	6
72	72	1
28	28	7
14	14	3
184	197	3
103	113	4
166	193	3
188	189	1
91	92	4
176	180	1
70	71	2
180	181	5
189	190	5
240	241	2
41	150	3
145	154	1
45	192	1
29	31	1
65	65	1
27	27	2
53	54	1
5	60	1
190	191	1
104	116	1
229	230	2
246	247	2
86	86	2
5	48	1
160	163	3
87	163	2
81	169	2
193	194	4
29	95	1
158	169	1
39	91	2
171	239	1
163	163	2
107	108	2
208	208	5
173	174	1
64	65	1
168	188	1
172	173	1
1	1	3
161	161	5
89	90	1
216	217	1
191	193	1
29	29	2
79	79	4
19	19	1
97	145	2
50	71	3
217	217	2
94	97	1
56	56	4
50	85	1
7	66	1
59	60	1
32	32	4
221	222	2
63	90	2
207	208	1
70	90	2
220	227	2
91	91	1
3	190	2
75	82	2
43	44	1
6	11	2
179	206	1
186	191	1
86	101	1
170	183	2
100	101	5
243	244	1
67	93	1
2	3	1
48	77	1
38	91	1
23	23	1
44	153	2
212	213	1
14	48	1
210	215	2
67	71	1
111	113	1
76	99	1
230	231	2
160	183	1
41	43	1
19	20	1
236	238	1
106	107	1
93	93	2
152	194	1
80	90	3
57	59	1
69	71	1
199	200	1
90	163	1
162	173	1
163	165	1
213	218	1
76	78	2
8	39	1
74	75	1
94	95	1
56	66	2
117	117	4
29	30	1
3	48	1
76	167	1
19	198	1
73	73	2
196	198	1
89	162	2
197	207	1
58	59	1
26	28	1
15	16	1
47	97	1
16	20	1
150	155	2
63	63	1
211	215	1
198	199	1
157	170	1
72	73	2
200	226	1
166	195	1
66	76	2
180	215	1
89	158	1
191	195	1
200	228	1
232	233	1
104	119	1
84	85	1
57	90	1
12	28	1
203	204	1
15	58	1
224	225	1
232	234	1
155	156	2
165	166	1
167	195	1
6	7	1
25	25	1
99	100	1
165	190	1
26	27	1
10	53	1
7	92	1
152	157	1
