120	120	20
27	29	3
58	58	10
117	117	27
128	128	6
116	116	11
62	62	20
124	124	12
125	130	3
66	66	7
20	20	13
113	118	2
112	112	26
7	7	12
115	115	12
21	24	9
46	47	26
41	42	4
16	16	11
70	70	27
99	101	2
102	102	10
55	118	5
0	0	17
105	106	9
131	131	19
43	58	5
56	56	8
51	51	18
69	69	12
45	46	6
49	49	28
9	9	13
30	30	9
14	14	13
69	85	2
50	50	20
127	128	4
60	60	11
121	122	3
9	10	5
50	51	15
8	8	10
24	25	4
88	88	11
109	109	17
81	81	16
127	129	3
42	42	7
85	126	4
17	17	9
70	123	3
3	3	10
124	125	5
111	111	8
48	48	29
10	12	1
118	118	8
51	52	7
84	86	10
80	81	4
117	118	20
86	86	9
52	52	15
108	108	25
102	127	2
4	4	8
65	65	14
105	105	21
131	132	10
97	98	8
98	98	11
24	24	10
108	110	2
19	20	2
91	92	4
58	73	5
123	123	11
19	21	8
13	13	19
22	24	3
85	86	12
125	126	2
116	117	11
84	85	3
63	63	17
98	101	4
43	48	2
83	83	14
104	105	5
101	102	4
70	78	1
94	94	8
102	107	1
2	2	17
55	55	8
73	73	8
122	122	10
26	26	15
3	29	2
17	18	1
42	43	3
18	23	7
71	71	35
20	26	2
89	89	20
114	115	4
69	70	3
41	41	12
123	124	1
92	93	6
84	84	11
121	123	3
32	48	4
5	90	3
6	7	4
46	48	7
64	64	12
74	74	15
101	101	9
57	57	20
55	119	3
20	21	4
88	89	6
10	10	15
87	88	12
85	120	4
56	57	1
25	31	4
45	45	13
68	79	3
92	92	15
91	91	5
22	22	5
121	121	16
125	125	12
99	99	14
54	54	15
97	97	16
85	85	10
48	112	4
53	53	25
115	118	2
83	87	3
126	126	15
55	117	3
30	31	5
55	108	10
33	33	17
78	79	12
120	122	7
3	4	9
32	32	12
99	126	2
96	97	7
2	14	1
113	113	10
44	104	2
76	106	4
130	131	3
21	26	6
99	113	4
62	64	3
31	31	5
122	123	3
102	103	14
127	127	7
18	19	4
82	104	3
52	53	15
81	96	2
15	15	8
19	25	4
107	107	15
98	102	3
29	31	2
75	75	5
47	49	3
96	96	17
47	47	11
14	33	5
96	119	4
5	6	5
96	130	1
86	87	3
57	117	1
119	120	4
19	31	4
5	5	15
85	87	1
83	95	1
119	119	9
104	109	7
120	123	3
38	38	6
89	90	6
26	27	4
33	77	4
58	68	4
21	21	3
16	21	4
104	110	2
62	63	5
81	87	5
18	33	2
111	112	9
27	28	5
5	30	1
79	79	5
104	108	5
8	20	2
0	1	2
106	106	15
15	17	4
70	71	10
16	17	2
8	9	6
106	107	6
71	99	3
97	99	4
109	115	1
90	90	8
97	109	4
130	130	13
68	68	14
48	49	5
113	114	10
46	46	7
44	44	21
112	113	4
77	77	2
29	30	1
15	16	3
76	76	17
95	122	2
6	19	2
61	62	6
1	1	11
66	67	3
23	23	8
44	45	10
1	12	2
29	29	5
33	43	3
86	88	9
114	114	1
16	33	2
126	127	4
109	110	1
32	63	4
0	2	2
132	132	2
53	54	1
43	44	2
43	43	11
81	82	5
72	118	4
110	110	9
38	40	3
43	45	4
129	129	5
103	103	10
61	61	5
79	80	3
80	80	6
104	104	17
71	72	4
81	84	1
39	40	8
19	19	5
117	130	2
45	47	1
103	104	7
133	133	2
93	93	5
120	121	5
47	48	8
54	110	1
85	119	6
60	121	2
72	72	8
59	59	6
101	108	5
53	93	1
21	25	4
95	120	1
2	4	2
126	129	2
123	125	3
49	57	1
114	120	1
15	33	1
54	113	1
64	122	1
12	13	1
93	106	4
22	23	3
125	131	3
113	119	2
28	91	3
108	109	1
90	92	3
67	96	1
100	100	4
28	28	8
69	99	3
72	73	1
57	114	2
56	110	2
94	95	2
110	111	5
82	83	3
12	15	5
124	131	1
83	84	3
75	76	4
15	28	2
76	77	4
67	68	3
20	27	1
82	82	1
132	133	1
40	40	9
96	99	2
11	11	8
70	76	2
12	12	7
110	112	2
4	5	2
55	57	1
25	25	7
27	27	1
87	87	1
45	48	2
1	6	2
78	106	2
32	125	5
68	86	2
69	123	1
83	86	1
69	100	3
95	95	7
68	69	1
82	84	2
116	119	2
2	5	1
56	102	2
22	33	1
7	12	1
75	77	4
18	18	2
2	28	1
71	92	2
67	67	2
6	6	5
66	68	1
80	96	1
31	32	3
65	100	1
59	69	1
28	92	2
100	131	1
91	93	2
76	122	1
118	131	1
126	132	2
73	74	3
3	30	1
3	6	2
115	116	1
116	132	2
71	76	2
76	101	2
128	130	1
64	65	3
126	128	2
87	118	2
82	87	2
118	126	2
60	70	1
7	86	1
62	70	1
57	58	2
54	55	3
101	103	1
43	46	2
131	133	2
2	3	4
84	92	1
4	6	1
7	9	1
2	13	2
44	108	1
68	99	2
55	107	2
99	100	1
65	68	1
40	44	1
60	62	1
90	93	1
111	113	1
23	34	1
28	30	1
55	102	1
19	22	2
50	69	1
39	39	1
128	129	1
51	65	1
27	89	3
73	115	1
104	107	2
74	102	1
83	85	1
32	33	1
58	74	1
95	121	2
56	58	1
99	121	1
38	39	1
118	119	1
5	105	1
54	119	1
113	117	1
100	101	1
71	98	2
89	91	2
1	19	1
54	106	1
14	63	1
42	44	2
97	103	1
28	33	3
30	32	1
1	13	1
125	129	1
14	27	1
46	49	1
10	13	1
12	28	1
55	126	1
113	115	1
69	71	1
129	130	1
114	117	1
11	12	1
60	61	1
20	64	1
77	80	1
