60	60	13
225	225	27
199	199	17
52	53	6
20	20	13
217	217	20
163	209	1
200	200	14
166	167	3
194	194	16
42	43	15
178	178	19
198	199	6
106	106	17
86	87	9
185	186	15
32	51	1
93	93	6
35	35	26
159	161	3
73	73	7
117	117	15
31	52	5
227	227	23
186	186	14
190	190	7
236	236	17
209	209	32
237	238	6
84	87	2
165	208	5
87	88	8
184	185	8
100	100	13
27	28	3
66	66	20
213	213	22
212	212	21
10	25	1
168	169	18
118	118	12
38	40	7
192	196	6
47	48	7
4	4	8
38	38	24
221	227	7
160	168	1
188	189	4
211	243	5
92	93	18
174	174	21
113	114	12
93	94	4
173	173	19
180	180	19
54	54	8
94	94	21
151	151	25
215	217	5
113	113	18
160	224	6
193	240	6
45	46	1
114	119	2
29	29	9
208	209	12
157	157	14
204	204	29
115	170	3
236	237	6
177	189	2
158	159	6
121	121	5
0	1	2
74	78	6
85	85	14
152	152	19
51	51	8
234	234	19
189	189	17
78	79	10
246	248	1
34	107	5
207	213	2
5	5	20
153	205	6
162	163	5
59	238	3
170	170	19
32	33	4
10	26	2
214	214	17
174	185	3
50	58	1
240	240	20
18	18	11
213	214	9
49	68	1
203	229	3
79	81	4
62	68	4
205	205	13
31	31	11
212	246	8
194	241	1
164	169	6
76	77	6
147	184	1
247	247	7
104	106	6
12	12	9
150	150	17
6	8	3
195	195	19
246	246	24
170	171	5
59	59	12
173	183	2
6	38	3
219	220	3
177	181	5
173	200	8
57	57	8
7	7	18
107	108	4
112	242	2
42	114	2
220	220	7
51	55	3
169	170	5
159	216	6
191	192	5
245	245	29
85	86	5
67	70	4
231	232	8
94	100	2
158	223	4
29	39	5
152	192	4
243	243	15
242	242	5
229	229	16
7	182	2
177	177	19
44	44	20
24	24	5
79	85	3
18	90	5
92	113	2
174	183	1
63	68	6
186	189	3
188	188	5
146	231	4
228	228	12
117	119	3
165	182	1
26	26	17
199	226	1
11	11	14
95	95	25
154	154	27
15	30	4
90	104	1
233	233	21
4	33	2
118	119	6
74	74	5
162	162	15
162	208	1
184	184	14
81	87	1
248	248	7
165	165	23
83	83	12
187	187	9
46	243	1
163	164	15
150	151	11
3	33	3
156	202	3
180	181	5
181	181	12
179	179	13
218	218	4
72	74	2
23	25	2
30	34	3
197	197	14
170	184	4
101	102	1
192	248	2
15	37	2
28	28	19
222	222	10
5	39	7
218	219	7
65	66	4
184	186	2
202	203	4
203	204	12
235	235	11
77	77	8
241	241	22
90	91	3
164	164	11
104	105	5
236	242	1
83	84	2
17	17	20
48	50	4
204	207	4
111	204	5
43	43	15
101	101	14
78	80	1
197	214	2
196	196	15
108	108	15
161	234	4
64	64	9
91	91	8
189	190	6
177	178	7
96	121	1
107	170	2
199	200	10
237	237	15
202	202	21
49	50	3
230	230	8
110	111	4
98	98	13
238	241	4
12	39	6
34	34	12
111	180	4
183	187	1
232	233	9
213	215	6
52	87	2
106	107	9
58	58	12
162	164	6
96	102	3
171	171	14
3	20	1
150	249	1
22	35	2
76	83	4
16	31	2
29	38	6
146	146	9
84	91	4
172	182	4
167	167	23
57	77	3
198	198	12
4	197	4
19	19	16
193	193	17
22	61	5
152	153	10
5	105	2
9	11	4
84	84	11
22	62	1
80	103	2
12	43	8
12	15	3
92	92	9
3	3	9
210	211	5
116	116	9
2	203	6
9	9	18
32	32	30
178	186	3
39	48	1
43	156	5
209	215	4
159	159	25
97	97	10
112	112	16
10	15	1
214	216	2
117	118	4
206	206	5
236	239	3
175	175	15
213	238	3
30	30	8
187	188	2
67	67	6
60	75	1
15	16	2
239	244	2
95	99	4
219	232	3
147	147	3
51	52	12
69	74	1
14	14	12
37	39	6
185	185	8
178	179	3
194	195	8
182	182	4
38	114	4
96	96	15
182	183	3
165	166	8
75	105	2
118	120	3
65	65	13
203	203	11
172	172	38
99	99	9
176	176	20
12	55	5
6	6	25
115	115	25
81	89	2
69	69	18
47	47	5
32	193	2
230	231	2
70	71	5
150	200	4
41	41	25
155	155	26
212	213	3
92	116	3
210	248	1
75	75	8
36	101	1
11	12	5
181	184	2
83	91	1
41	46	4
217	241	1
239	242	4
119	119	14
156	221	2
49	66	1
144	144	2
150	206	6
144	145	3
45	45	10
99	121	2
159	222	3
81	81	11
157	158	5
29	31	2
19	20	5
147	224	5
63	63	12
33	34	4
212	243	2
42	42	15
243	245	4
238	239	7
151	207	1
237	239	7
33	35	4
61	71	7
242	244	3
101	106	6
95	106	1
28	29	5
34	50	1
224	225	6
110	116	7
96	98	2
193	196	3
30	37	6
201	201	17
175	176	6
50	51	1
156	237	1
159	223	1
190	198	1
68	68	5
95	96	4
89	89	12
220	233	2
27	27	17
74	75	4
59	107	3
57	58	8
8	9	4
37	38	4
197	198	9
186	191	4
36	36	11
49	49	14
23	27	4
63	70	2
3	237	4
101	118	7
109	109	13
207	207	8
114	118	3
181	182	4
174	175	1
241	242	11
50	82	2
119	144	3
77	248	1
105	105	4
107	107	17
71	71	17
53	53	9
18	20	4
204	206	3
33	40	1
211	211	16
5	42	2
228	229	5
46	46	7
120	248	6
171	172	8
80	81	14
6	7	8
8	8	20
11	15	3
10	12	1
153	153	15
77	101	5
115	159	9
201	218	2
14	20	3
77	78	5
111	111	13
4	32	4
168	174	1
109	160	2
169	171	4
37	37	21
21	21	13
46	50	4
239	239	11
1	19	1
54	55	9
97	98	9
2	2	4
7	203	4
69	72	4
109	114	1
31	32	3
5	10	2
216	216	10
24	25	4
95	113	5
33	37	1
169	169	17
112	181	6
185	197	1
146	167	2
220	221	4
39	39	8
163	179	4
171	186	1
44	156	4
244	244	21
81	84	2
47	64	2
82	87	1
103	105	3
76	103	2
204	229	4
50	74	3
189	192	4
183	196	4
245	247	2
167	182	1
238	240	3
187	248	1
99	101	1
33	33	10
18	19	2
110	110	19
76	84	5
245	246	8
189	210	1
57	171	4
226	227	13
1	1	6
233	234	8
47	58	1
26	27	8
116	152	2
48	55	2
4	35	1
161	216	2
83	86	5
10	11	1
161	167	3
82	88	2
116	143	2
156	156	22
163	171	2
226	226	10
102	103	5
220	231	4
12	17	2
95	105	2
27	41	4
189	196	5
213	237	8
105	106	4
229	231	3
211	242	2
233	237	2
94	95	2
188	191	5
40	40	12
200	201	2
215	215	11
83	85	4
162	166	4
44	45	6
183	183	19
116	118	2
86	99	1
50	84	2
30	38	5
1	230	2
10	31	4
102	104	6
219	229	6
23	23	8
99	100	5
59	62	4
50	50	9
25	238	4
20	90	2
92	111	2
60	179	2
166	166	14
151	159	1
171	174	4
194	214	2
242	248	2
1	2	5
77	79	3
81	83	1
120	120	5
231	231	17
41	110	7
169	176	1
28	55	1
179	184	1
203	207	2
93	113	3
102	102	11
10	39	1
214	215	10
51	64	3
14	37	1
90	90	2
28	39	2
48	49	4
61	61	5
69	71	2
31	74	3
30	50	1
244	245	8
149	150	4
82	83	3
56	56	11
48	58	1
82	82	8
21	90	2
229	230	5
86	86	9
168	171	3
191	191	6
80	80	7
203	217	3
159	191	1
84	85	6
221	221	7
35	76	1
7	53	1
160	167	2
73	74	3
67	193	4
214	217	5
59	60	1
215	216	1
187	191	3
220	234	3
7	28	2
33	81	8
198	200	5
66	68	7
183	191	1
18	92	2
168	183	3
227	229	1
9	111	2
170	188	2
55	109	3
29	110	1
28	93	3
110	237	3
149	165	3
150	202	1
158	158	8
18	21	3
219	219	13
195	198	2
58	60	4
242	243	2
98	99	4
39	40	2
75	83	1
79	79	7
192	193	4
176	183	1
65	67	2
22	57	1
195	196	4
6	28	1
163	163	14
163	165	2
149	188	1
91	93	2
5	6	6
58	247	5
12	30	1
160	161	2
50	73	5
52	89	3
238	238	7
191	199	4
3	15	7
18	91	2
14	15	2
77	104	2
236	248	3
100	101	4
110	112	2
160	160	10
22	23	2
87	89	1
173	174	4
114	116	4
76	101	2
92	99	2
109	110	2
196	198	3
192	192	12
84	86	3
167	188	5
72	73	1
163	208	2
101	107	1
6	178	2
145	145	10
93	103	4
168	188	2
32	156	5
58	61	6
183	184	2
168	168	10
154	205	2
70	198	2
208	247	2
240	241	2
84	99	3
175	178	2
112	180	1
149	167	1
52	52	15
71	72	3
114	158	2
14	109	1
205	241	3
26	202	3
72	72	7
53	54	6
215	240	3
192	200	3
162	187	2
184	188	5
158	224	3
48	57	3
78	100	5
6	53	7
146	225	3
75	78	1
208	241	2
51	65	3
19	89	3
189	213	1
3	31	1
96	100	3
212	248	1
243	247	3
211	212	10
111	112	6
18	44	1
55	56	4
215	242	2
146	176	5
13	114	3
67	68	3
197	213	2
210	210	11
49	58	1
160	226	2
22	59	5
204	216	1
76	76	10
159	225	3
161	161	6
219	234	1
11	25	2
7	54	2
9	10	3
176	187	1
81	85	1
231	234	3
112	119	2
232	232	5
175	203	2
213	217	3
79	97	1
189	191	1
214	242	4
69	93	2
224	224	7
167	195	1
244	247	2
179	236	1
180	218	1
57	105	1
177	183	4
70	70	10
104	104	7
166	189	2
18	30	5
15	101	2
100	105	3
28	33	1
79	238	1
88	89	3
103	103	3
172	174	3
169	174	4
237	241	1
249	249	3
10	76	3
16	16	9
53	230	3
85	90	2
150	153	3
18	32	1
88	88	11
75	77	2
60	246	3
114	114	14
20	22	1
162	181	2
84	100	3
108	236	1
188	192	3
31	38	2
154	202	1
182	193	3
116	119	2
48	48	5
216	218	2
96	101	1
21	22	4
67	192	3
233	235	1
162	237	2
150	212	1
119	239	1
178	181	1
6	54	2
22	22	9
156	222	3
177	184	5
213	243	3
40	109	1
205	226	4
161	162	4
200	209	1
153	155	4
153	154	2
70	92	2
55	62	2
221	226	3
22	26	1
38	61	1
151	154	2
2	4	1
74	81	2
2	64	2
183	192	2
236	238	4
193	194	4
165	188	2
153	165	2
212	235	4
76	100	1
179	181	2
227	228	6
17	23	1
234	235	1
120	212	4
204	217	4
47	242	1
62	63	4
63	195	2
150	204	2
175	189	1
189	207	2
166	169	2
3	64	2
23	57	1
59	236	4
216	217	3
162	183	3
199	227	4
169	192	1
207	209	4
151	201	2
144	167	1
158	180	1
219	231	3
146	166	3
71	73	2
184	191	5
63	69	2
169	204	3
172	173	7
205	206	2
171	177	3
193	195	1
112	120	4
217	233	1
10	10	6
111	113	1
194	208	1
25	25	9
37	47	4
37	75	1
36	222	3
201	209	3
239	240	5
114	115	4
64	65	1
116	153	1
39	62	1
216	231	1
173	208	2
15	150	1
15	15	6
74	197	2
39	114	2
174	186	1
151	152	4
207	216	1
49	72	4
30	47	1
162	220	1
214	241	2
206	207	7
173	184	2
68	70	1
237	242	4
114	159	1
15	38	2
23	24	3
77	84	2
11	19	1
165	167	1
57	59	3
220	223	1
152	196	3
171	176	2
238	244	1
204	228	1
48	80	1
13	34	1
4	105	2
179	196	1
35	50	3
209	211	3
49	51	4
153	200	1
231	233	1
29	34	1
27	112	1
49	69	2
162	165	2
60	248	1
9	202	2
7	39	3
3	16	2
80	82	3
240	247	3
97	99	2
156	226	1
149	181	4
172	190	4
8	16	2
47	156	1
31	150	2
110	113	5
223	223	9
100	106	1
62	62	2
167	183	2
38	39	1
243	244	6
81	82	1
6	109	1
163	166	1
89	90	4
67	197	2
154	155	1
248	249	1
186	187	2
67	71	3
55	55	4
193	201	1
102	107	3
9	27	1
161	242	2
178	183	3
5	56	2
164	166	2
154	161	2
35	37	1
215	243	1
225	226	2
215	238	2
172	179	1
22	92	5
14	64	1
198	207	4
37	71	1
219	235	2
79	98	3
52	81	2
18	152	2
180	182	2
6	113	3
194	197	2
152	159	4
149	154	1
79	83	1
212	214	6
225	229	1
102	111	3
158	160	3
105	107	3
170	176	1
179	188	1
235	237	1
194	196	4
3	12	1
110	200	1
96	118	1
59	61	5
208	208	7
235	236	3
193	246	1
152	154	1
55	180	2
151	165	2
197	201	1
6	22	2
71	75	2
187	190	1
18	45	1
78	78	2
35	36	3
223	224	1
83	89	1
116	160	2
115	116	2
196	197	1
2	3	1
223	226	2
48	81	3
16	17	1
10	49	3
182	202	1
222	234	1
120	145	1
209	210	1
28	158	4
160	176	1
166	188	1
62	74	5
190	195	5
156	175	1
205	232	2
247	248	4
160	169	2
45	204	2
173	179	1
40	48	2
17	19	2
45	152	1
41	75	1
175	179	1
236	240	1
87	87	5
9	29	1
16	25	1
201	202	2
70	73	2
168	178	3
108	237	2
212	215	1
49	60	1
197	205	1
176	177	2
176	178	2
4	5	2
8	10	2
167	213	3
29	37	1
48	65	2
119	210	4
178	180	1
34	59	1
173	189	1
10	40	1
223	225	1
146	229	1
61	72	1
47	65	1
112	113	2
163	234	2
92	97	1
159	160	3
108	109	1
95	197	3
100	120	2
32	52	1
204	205	1
50	65	1
154	201	3
27	109	2
2	112	1
157	223	1
96	105	1
159	221	3
202	205	3
187	192	1
76	107	1
3	165	1
222	242	1
214	243	1
218	240	3
14	34	1
193	241	1
31	155	1
82	85	3
225	230	2
160	166	2
227	232	1
31	34	2
181	203	1
110	239	3
69	70	1
199	201	1
115	160	1
241	245	1
111	116	2
31	48	3
13	42	1
60	61	2
208	216	1
172	175	1
22	60	1
19	29	2
15	77	1
165	169	1
19	30	1
192	194	2
42	46	2
47	247	1
104	171	2
64	68	1
169	188	1
158	192	1
182	184	1
165	175	1
225	233	2
55	172	3
61	62	1
88	94	1
40	93	1
13	14	2
155	205	1
214	236	1
236	241	1
14	102	1
191	196	1
12	14	2
194	198	3
47	193	1
23	115	1
222	223	1
180	220	2
111	239	1
224	247	2
219	222	1
165	170	1
208	215	1
21	46	1
84	101	2
95	97	2
68	197	1
120	153	1
34	35	2
9	26	1
20	32	1
119	120	1
164	191	1
198	213	2
103	111	1
163	167	1
218	233	2
172	200	2
56	57	2
76	79	1
224	233	1
24	33	1
245	248	1
30	31	1
158	219	1
175	180	3
12	40	2
157	216	1
213	216	1
93	118	2
178	195	1
176	230	1
112	238	1
173	178	2
151	153	1
164	183	2
0	0	1
160	177	1
2	30	1
47	59	1
211	213	1
73	78	1
207	237	1
111	237	1
56	172	1
69	106	1
162	173	1
40	44	1
246	249	1
2	53	1
77	80	1
55	63	1
107	169	1
9	28	1
149	184	1
100	190	1
185	194	1
47	73	1
213	235	2
61	155	1
30	39	1
147	231	1
11	30	1
246	247	1
78	103	1
111	238	1
30	36	1
6	176	1
11	32	1
147	187	1
152	208	1
146	230	1
165	181	1
117	239	1
120	144	1
145	165	1
206	231	1
101	119	1
48	60	1
60	79	1
4	57	1
170	183	1
237	240	1
