44	44	7
0	1	4
148	148	4
2	2	18
14	15	7
125	125	10
123	123	7
113	154	3
105	105	3
68	68	8
69	69	3
5	5	5
42	42	28
43	43	9
91	92	5
22	23	3
62	62	20
159	159	14
162	162	4
139	140	7
67	68	4
50	50	13
75	75	4
73	73	11
111	111	14
23	23	14
41	49	4
39	50	5
3	3	5
48	48	12
150	150	11
65	65	8
11	11	27
1	2	2
44	95	3
71	71	9
70	70	4
126	127	4
64	64	3
49	49	2
41	41	29
138	138	8
132	137	5
93	94	3
87	87	6
83	116	2
114	114	14
25	168	1
74	159	4
116	116	7
63	64	2
13	13	10
130	130	14
19	19	18
34	34	3
56	56	1
34	35	7
20	20	9
6	142	1
96	116	3
77	80	2
121	141	2
27	36	3
95	95	7
66	98	5
54	54	11
113	113	9
132	136	7
2	129	1
89	90	1
97	97	17
102	102	10
65	66	20
74	75	1
151	151	12
17	17	9
46	46	18
9	9	14
133	134	3
35	35	18
24	24	14
48	49	4
15	15	16
11	12	8
15	16	4
73	74	2
164	165	4
10	10	12
75	148	1
21	21	8
142	165	3
109	109	5
86	134	3
38	39	3
127	127	6
133	133	21
166	166	8
163	165	7
113	166	4
79	79	9
103	104	2
80	80	3
121	121	4
120	120	3
26	26	4
6	6	11
91	94	4
110	111	7
40	40	10
108	108	16
94	94	10
96	98	7
124	125	5
94	96	4
50	66	2
4	4	11
142	143	2
57	108	3
76	76	7
105	106	2
145	145	8
8	8	10
145	146	6
120	121	7
63	63	7
69	71	3
54	55	5
136	138	2
132	132	16
22	55	2
169	169	6
6	141	1
55	56	6
160	160	12
2	111	5
86	86	2
53	53	9
143	143	3
168	170	2
50	52	1
73	124	8
10	25	2
96	131	4
100	129	3
6	7	5
36	36	15
111	113	3
164	164	9
92	92	3
112	112	11
27	27	18
157	157	11
7	7	5
45	46	3
5	109	2
3	16	6
99	130	6
45	45	6
104	104	5
7	35	6
70	89	2
102	103	8
25	112	1
146	146	10
142	144	8
6	17	5
68	69	4
144	144	16
149	149	7
5	17	3
38	38	14
68	100	2
137	137	9
33	35	1
87	88	1
62	87	6
39	39	6
92	95	2
77	78	6
85	85	19
161	164	2
33	33	3
119	119	3
13	109	3
47	47	5
147	147	7
81	81	4
100	101	4
47	48	5
138	142	1
141	141	8
38	50	3
37	37	9
66	66	12
10	11	6
70	84	1
3	102	4
161	161	6
156	156	7
41	47	4
154	154	6
57	57	4
37	38	3
155	156	2
89	98	3
152	154	1
115	115	7
79	96	1
49	79	3
155	155	5
4	91	1
47	83	3
84	84	7
3	4	7
120	163	1
50	53	2
76	89	3
90	132	1
121	158	1
145	147	1
125	133	3
89	89	9
7	119	2
56	78	4
5	108	7
11	162	1
8	10	10
82	86	1
4	5	6
43	44	4
110	110	11
85	91	1
33	34	2
1	1	13
127	128	1
78	78	5
157	158	4
111	112	1
22	22	4
145	168	1
77	79	1
101	102	5
1	151	3
122	122	4
85	86	6
4	113	2
146	147	3
123	124	2
107	120	3
54	126	1
51	52	4
12	69	7
143	158	3
27	170	5
129	129	6
18	19	4
125	147	2
27	41	1
3	141	3
167	167	1
25	25	8
136	136	4
26	27	3
62	63	2
108	139	3
83	84	7
18	18	7
142	142	6
94	95	2
88	168	1
93	128	3
131	131	10
131	133	1
116	124	2
112	116	1
56	80	1
19	20	3
13	54	3
8	11	3
109	110	2
116	133	1
4	11	6
100	100	7
124	124	12
68	96	2
122	123	1
3	55	2
84	85	4
87	91	2
0	0	9
134	134	8
18	24	1
98	99	3
135	136	1
90	106	1
79	82	2
36	42	1
96	96	3
162	164	1
64	65	2
120	147	1
139	152	1
121	146	1
79	80	5
57	89	2
18	55	6
17	41	2
88	88	2
6	111	2
51	51	3
135	135	6
2	150	1
28	28	1
75	88	2
23	167	1
118	118	8
67	67	6
88	93	2
119	124	3
12	12	7
137	138	5
73	160	3
49	76	3
18	20	1
158	158	2
135	138	1
115	125	1
82	83	3
74	74	5
152	152	2
6	108	1
71	157	2
12	56	2
17	18	2
24	36	1
26	149	2
58	153	4
130	131	3
69	70	3
19	49	1
56	127	1
5	142	2
128	129	2
75	83	1
12	165	3
53	54	5
16	16	5
52	52	7
136	139	1
37	80	1
102	104	1
120	148	2
4	8	2
128	128	4
14	14	4
53	55	4
5	7	2
1	40	1
168	168	1
143	144	3
21	24	1
1	90	1
2	36	1
14	52	2
101	101	2
113	114	2
21	22	2
104	157	3
8	9	1
44	45	1
51	64	1
67	77	1
99	99	7
57	88	1
81	82	3
165	165	2
119	123	3
13	17	1
116	117	3
125	128	3
108	109	3
23	168	3
90	90	5
50	51	3
161	162	1
117	118	1
16	24	1
126	126	5
103	103	2
150	151	8
119	159	2
107	107	4
93	93	2
117	131	3
114	153	1
98	98	3
21	76	1
110	112	1
140	141	3
16	17	2
154	156	2
97	116	2
134	137	2
125	126	1
82	82	1
49	100	1
117	125	1
56	57	2
58	62	2
74	109	2
2	18	1
3	5	2
62	77	1
13	15	1
120	124	1
96	132	6
122	158	1
113	168	1
24	25	1
117	117	2
145	166	1
46	90	1
152	158	2
166	167	2
15	51	1
44	46	2
127	160	1
112	149	2
170	170	1
138	139	4
42	43	2
95	96	1
147	148	3
80	84	2
22	52	1
115	116	1
35	36	1
143	145	2
68	108	1
114	124	3
5	6	1
139	139	2
6	144	1
17	26	1
61	62	3
71	79	1
5	54	1
19	55	1
5	8	2
37	47	2
83	83	2
140	158	1
97	133	1
21	57	1
118	131	1
141	142	1
97	169	1
51	66	1
76	77	1
48	96	1
2	57	3
21	25	1
98	169	1
55	55	2
168	169	1
153	153	2
106	114	1
9	10	1
66	99	1
119	146	1
69	82	1
140	140	1
8	169	1
10	146	1
123	151	1
62	76	1
88	91	1
39	40	1
119	125	1
40	48	1
