110	110	28
46	48	2
69	70	17
56	56	32
124	125	10
101	103	2
29	29	8
106	106	14
18	18	15
0	0	11
83	83	19
109	109	30
17	18	3
91	91	27
0	1	9
3	3	20
7	7	31
49	49	27
127	128	11
4	5	6
111	112	6
46	47	8
16	16	12
68	69	7
28	28	15
90	93	2
93	93	28
75	75	18
108	108	18
6	6	19
3	4	12
33	40	1
131	132	8
58	58	20
117	117	15
34	34	21
68	100	4
46	46	30
47	48	4
62	63	3
77	89	1
7	9	2
109	110	4
87	87	8
54	54	29
70	71	8
57	57	35
5	30	5
52	52	21
39	39	8
69	69	29
8	9	4
132	133	5
4	4	23
40	41	5
5	5	21
39	44	1
65	65	22
113	113	19
94	94	19
20	20	24
30	30	24
20	22	5
9	9	12
71	71	13
5	31	2
61	62	4
74	74	15
45	46	3
126	126	20
40	40	27
63	63	20
88	88	17
85	85	15
55	55	21
80	80	27
29	31	2
118	118	10
104	104	10
83	84	9
23	23	15
96	96	14
22	25	1
64	64	27
80	86	5
1	1	8
43	44	10
76	76	16
48	48	23
67	68	13
72	103	1
133	133	9
129	129	13
87	88	6
122	123	11
13	13	15
62	62	6
48	49	4
90	96	2
79	80	8
8	8	11
92	96	6
103	103	14
42	42	18
11	12	10
131	131	25
100	101	15
14	25	2
14	20	6
83	87	2
107	109	1
118	120	4
57	95	2
117	118	8
102	102	17
78	79	10
14	15	13
70	77	4
51	51	23
108	109	6
111	111	29
116	116	7
70	70	16
115	115	13
21	22	6
41	41	24
92	92	16
38	39	11
113	117	7
96	99	1
45	45	9
15	19	3
1	3	1
10	10	10
80	85	3
0	2	3
25	28	7
82	84	3
42	45	5
96	97	10
98	100	8
77	77	16
29	30	10
45	47	4
99	100	6
22	27	5
39	106	2
31	31	8
42	43	13
39	40	11
116	128	1
53	53	19
32	32	15
82	83	11
78	78	11
101	101	11
5	6	6
47	47	16
100	100	2
123	123	16
93	94	11
72	73	2
65	66	14
43	43	28
116	117	5
81	81	10
94	110	3
91	92	5
105	109	4
128	129	9
89	98	2
97	99	5
122	122	10
12	12	10
104	105	9
21	42	2
50	50	25
97	97	12
115	116	5
24	24	9
83	86	1
88	90	2
41	42	3
3	28	3
132	132	13
34	39	10
79	107	2
81	84	10
77	81	2
69	89	3
114	114	18
31	32	1
79	79	16
127	127	8
66	68	3
118	119	10
121	121	15
97	98	8
57	58	7
14	17	1
72	72	16
82	82	13
54	56	7
121	123	4
127	133	4
11	11	9
128	128	7
94	98	1
102	104	2
100	126	4
84	99	2
125	125	7
51	52	18
122	124	4
84	85	4
76	77	8
0	4	2
54	70	4
32	34	3
49	50	4
67	67	29
113	114	2
28	29	7
71	79	2
105	105	23
128	130	5
80	81	7
71	77	2
67	69	1
72	74	9
44	44	14
74	75	1
89	90	2
52	53	7
86	90	1
74	76	3
59	59	10
14	43	2
98	107	8
129	130	10
7	8	6
22	23	5
29	42	1
66	91	1
66	66	12
10	11	7
21	21	10
22	29	5
58	61	4
109	117	3
26	26	11
6	7	4
61	61	4
23	24	6
2	6	4
90	90	16
107	107	12
130	130	18
15	15	11
127	129	2
59	61	12
73	73	17
26	40	2
109	131	4
23	26	4
95	95	7
72	75	4
119	119	17
2	2	17
60	60	14
23	25	7
10	12	4
22	22	20
98	98	2
25	25	5
61	63	3
94	96	2
17	32	3
104	106	4
9	10	7
112	112	8
12	26	2
40	79	2
1	2	3
64	65	4
12	25	5
123	124	7
21	30	8
99	99	13
62	65	2
121	122	5
59	60	7
70	105	2
68	68	12
72	104	3
84	84	3
20	27	3
124	124	14
17	31	4
102	103	19
75	76	5
94	95	7
113	118	3
41	101	4
119	128	2
33	33	11
63	64	1
120	120	17
71	78	3
89	89	7
33	34	6
39	42	3
39	47	4
126	127	12
120	121	1
106	107	3
81	104	3
114	130	2
17	17	5
98	99	11
8	61	2
77	82	1
73	74	4
56	66	1
55	127	2
26	28	2
30	32	1
25	26	4
27	27	11
118	130	1
19	19	2
17	21	3
81	86	2
39	41	4
41	43	9
44	101	3
90	91	4
14	14	9
18	19	3
51	53	3
6	63	2
3	29	2
24	32	2
108	131	2
42	74	7
110	111	6
44	45	5
58	59	4
54	55	3
37	38	3
69	71	5
26	27	7
38	40	2
60	103	1
96	98	2
125	133	3
79	82	3
88	89	5
71	105	1
21	29	4
111	120	1
19	21	1
21	78	3
18	43	1
68	70	1
117	119	2
114	116	3
96	117	1
43	54	2
15	16	6
130	131	3
103	104	1
114	115	5
82	87	1
86	88	9
37	37	3
126	128	1
60	61	2
42	44	2
41	45	2
28	30	2
14	39	3
102	108	3
14	22	3
119	130	1
39	43	3
58	63	2
105	106	2
2	3	1
18	21	1
124	130	5
109	130	1
55	66	3
30	40	3
92	99	4
121	124	2
66	67	5
27	29	3
73	99	2
65	67	3
116	118	2
26	43	2
95	96	4
52	54	1
41	44	2
129	131	2
72	126	1
6	132	1
114	118	1
28	32	1
19	20	4
32	33	2
91	93	1
65	71	1
119	129	1
126	129	1
5	133	2
77	88	2
33	41	3
61	102	1
25	31	1
110	113	1
34	38	3
24	25	6
85	87	4
114	119	3
81	83	1
19	24	1
99	103	2
57	62	3
73	127	1
18	30	3
125	131	1
16	17	1
31	33	2
38	38	3
62	67	1
81	105	2
74	108	1
68	77	4
75	77	1
67	97	1
115	119	1
40	44	1
14	18	2
49	52	1
15	45	3
83	85	4
86	87	1
53	76	2
77	103	2
34	41	1
50	53	3
112	113	3
67	89	1
86	86	1
53	118	1
88	96	2
58	67	1
5	28	1
105	107	3
115	118	2
24	51	1
114	117	1
113	115	1
117	131	1
59	63	1
16	33	1
41	72	1
76	84	1
124	126	4
13	15	1
2	5	1
108	130	1
27	28	1
11	13	2
51	121	1
77	108	2
3	27	2
20	21	1
119	120	1
40	43	1
13	25	1
79	81	1
12	13	2
117	120	1
71	72	2
125	126	2
81	82	1
25	27	1
60	99	2
112	119	2
107	108	1
71	104	1
4	27	1
56	72	1
99	101	1
