34	34	5
111	111	18
235	235	11
177	177	7
94	94	10
145	145	4
192	197	1
180	180	20
194	194	22
5	5	2
232	232	7
109	109	14
219	219	10
196	196	12
210	210	6
186	192	2
240	240	9
186	200	3
197	197	10
157	157	15
183	192	2
200	216	7
101	101	3
89	90	2
47	48	2
53	53	13
161	161	6
214	214	31
44	45	11
174	174	6
230	231	6
193	194	3
163	164	4
103	103	6
185	186	10
80	81	1
208	208	15
9	9	9
108	109	5
183	183	15
247	247	13
64	64	11
151	151	12
211	211	9
193	193	4
88	88	12
43	43	5
245	245	10
184	184	1
162	162	15
119	119	9
167	167	18
115	115	8
172	172	3
18	18	11
67	68	4
22	22	13
61	62	2
31	31	6
70	70	10
241	242	6
109	164	1
29	29	6
35	35	6
202	202	16
227	227	2
239	239	16
73	73	4
200	200	16
48	48	5
65	66	8
209	211	4
15	36	1
189	191	3
51	51	6
76	82	7
114	115	2
10	10	7
68	68	8
75	83	1
102	105	3
212	212	9
97	99	6
227	228	2
113	113	6
221	245	4
163	163	10
94	107	3
156	157	4
196	198	7
36	36	3
172	175	1
74	74	10
76	76	5
187	188	6
36	38	1
176	177	2
17	17	6
82	82	9
165	165	12
57	78	1
66	66	8
208	209	8
193	195	1
231	232	7
211	217	2
62	62	11
91	91	4
14	21	3
225	225	10
224	224	5
213	213	25
27	27	6
216	216	7
46	46	13
204	205	3
48	57	4
31	32	2
229	230	9
54	94	3
206	207	6
156	156	15
245	249	2
160	160	8
152	152	10
203	203	3
165	166	5
152	158	6
204	206	2
189	189	13
205	205	15
244	244	8
110	110	10
41	41	4
77	77	1
63	64	3
95	95	9
193	196	2
20	241	4
183	184	3
19	113	1
28	28	16
60	60	3
199	216	3
21	21	2
182	187	4
175	175	8
30	37	4
220	220	7
189	190	1
112	112	12
211	215	4
107	107	8
191	192	6
38	38	11
147	168	1
206	206	5
24	26	1
55	55	8
239	241	1
59	59	2
186	187	3
219	220	4
115	116	4
4	32	1
215	215	13
72	72	3
201	201	9
100	100	5
155	155	22
19	19	7
39	62	1
10	21	1
106	106	1
170	178	5
246	246	15
15	15	5
181	181	8
78	78	10
248	248	12
45	45	9
32	32	8
63	63	6
192	192	11
201	202	3
14	245	4
247	248	6
23	23	5
117	118	7
81	82	7
76	164	5
15	63	1
11	12	2
8	8	4
111	244	3
2	2	3
94	106	1
241	248	2
242	245	3
53	109	3
190	210	2
47	47	2
244	245	2
55	56	7
241	241	9
3	5	6
221	222	2
175	179	6
87	88	3
189	192	1
171	172	11
209	224	3
72	82	3
60	61	6
161	162	1
118	118	7
116	116	11
182	203	6
43	47	5
59	70	2
14	14	4
58	83	3
12	12	10
230	230	7
37	71	1
162	164	2
155	156	2
80	80	5
72	73	5
168	168	12
188	188	12
99	99	13
95	96	2
37	37	8
225	240	2
3	3	3
49	49	3
17	18	2
192	193	2
152	160	1
25	25	2
92	93	2
84	84	5
49	60	5
30	30	6
67	67	6
204	204	5
223	223	5
120	120	9
151	164	1
187	190	7
194	195	13
61	61	6
83	83	3
236	236	17
167	168	2
150	150	8
242	242	9
241	245	3
237	237	10
62	200	2
226	227	5
243	243	4
18	22	3
86	86	3
60	62	1
29	30	4
42	42	4
106	107	6
41	42	3
190	191	6
179	180	1
44	44	6
233	234	5
50	50	8
180	193	1
58	58	3
94	95	3
207	212	3
222	230	3
200	201	2
217	233	2
79	79	13
211	233	1
170	170	7
246	247	1
40	40	3
34	57	1
173	173	4
117	144	2
113	114	5
28	29	4
98	98	6
69	69	4
16	16	4
117	117	4
54	55	2
196	244	1
115	150	3
93	93	1
56	56	2
24	24	6
57	57	9
167	169	4
225	235	3
199	219	1
217	219	3
59	248	3
207	207	3
199	199	7
218	219	11
217	217	8
112	113	1
8	24	3
162	163	3
54	178	2
104	104	1
171	171	1
212	232	1
97	97	2
1	1	6
166	167	1
169	169	9
223	231	1
71	72	2
214	216	4
179	181	1
101	111	1
15	30	2
11	11	2
201	205	4
64	65	1
195	195	2
164	179	4
174	219	1
214	215	4
174	178	2
192	194	1
185	185	10
114	114	3
102	114	1
39	39	4
89	89	4
203	204	6
112	115	4
179	214	1
185	225	3
198	198	8
217	218	4
118	119	1
229	229	10
92	92	4
22	23	3
216	218	10
108	108	9
193	230	5
3	28	2
209	209	9
87	87	5
147	231	1
93	94	6
63	65	2
90	90	7
217	241	1
82	84	2
226	226	3
12	64	6
85	86	4
151	156	4
234	235	1
219	227	1
233	233	4
231	231	7
19	20	5
49	62	2
33	34	4
96	97	5
164	164	9
108	249	2
166	166	10
20	20	3
172	174	1
159	159	4
185	198	2
245	247	3
180	191	2
197	198	1
14	15	2
188	190	3
114	117	2
72	78	3
7	7	5
187	187	5
178	178	4
103	104	3
180	184	2
72	91	4
211	212	4
182	182	4
163	182	2
196	213	3
234	234	6
39	40	4
178	179	1
238	238	2
197	211	2
154	155	3
211	232	2
181	182	4
168	169	6
210	211	1
70	71	2
164	165	1
187	189	2
64	70	3
81	81	1
159	160	1
176	176	3
246	249	2
99	100	1
224	225	4
5	183	1
2	27	2
237	238	3
192	198	1
183	185	3
65	79	2
38	39	4
43	44	1
159	204	2
191	191	3
48	49	3
220	231	1
152	153	6
64	69	5
175	176	2
232	233	1
173	174	1
121	144	3
29	33	2
225	226	3
195	196	2
244	246	1
108	111	1
36	54	2
53	55	2
119	157	1
76	78	3
218	218	4
6	6	2
199	200	2
79	102	1
200	204	2
75	248	2
172	173	2
19	33	1
54	54	1
214	240	4
4	5	1
38	72	1
189	236	1
158	158	5
66	161	1
43	97	1
173	175	1
72	86	1
243	244	2
174	175	2
36	37	1
96	96	2
112	117	1
195	242	1
74	77	2
220	222	1
2	3	1
56	59	1
110	111	4
17	28	2
186	186	2
223	224	2
102	102	2
213	214	1
71	77	2
190	190	2
86	87	1
7	29	2
68	69	1
51	74	1
65	67	1
47	59	1
227	236	1
33	33	1
211	219	1
85	85	1
102	112	1
39	92	1
177	178	1
41	47	1
12	33	1
7	23	1
158	159	1
215	216	1
182	183	1
71	76	1
66	234	1
98	100	1
178	180	1
59	71	2
66	68	1
62	63	1
30	31	1
198	212	1
12	35	1
149	149	2
101	109	1
238	239	1
90	91	1
73	74	1
183	203	1
163	170	1
109	110	1
57	72	1
198	215	1
150	233	1
239	240	1
182	213	1
174	183	1
221	225	1
12	65	1
4	7	1
184	185	1
101	102	1
225	231	1
77	78	1
230	235	1
119	120	1
5	53	1
55	68	1
