83	83	19
85	85	25
82	83	8
53	55	6
6	6	3
27	27	22
24	24	16
22	22	9
4	5	9
50	50	12
69	69	26
72	73	16
12	12	15
3	3	8
49	49	13
56	57	11
20	20	8
15	16	5
55	56	2
81	82	6
66	67	6
8	8	18
8	10	8
2	2	10
75	76	7
76	76	23
26	27	12
68	69	3
74	74	11
60	60	17
30	30	21
57	57	23
53	53	14
58	58	14
7	46	2
52	52	16
8	9	8
29	30	5
67	68	13
9	9	12
73	73	16
87	88	5
68	68	27
14	14	6
6	50	1
24	25	5
74	79	3
32	33	3
46	66	1
19	19	10
15	15	5
66	66	19
75	75	21
62	62	12
54	54	8
86	86	8
13	13	12
79	80	10
84	84	9
48	49	7
61	61	1
31	49	7
1	1	10
78	78	10
59	59	19
51	52	8
65	66	4
47	47	15
58	59	10
10	12	2
80	80	13
3	11	2
70	71	6
59	60	2
5	6	3
89	89	10
52	53	10
6	8	5
17	17	11
48	48	12
55	83	2
85	86	10
74	75	1
48	65	5
82	82	19
63	63	4
11	11	12
34	34	4
47	58	2
75	82	4
48	66	10
23	24	12
25	25	12
64	65	1
16	16	3
8	19	1
31	31	14
53	59	3
67	67	11
77	77	15
9	11	4
88	88	11
75	77	4
81	81	18
63	64	3
56	56	15
54	55	4
78	80	6
87	87	9
31	66	2
26	26	10
72	74	2
3	4	3
79	79	25
70	70	10
77	80	4
5	5	13
65	65	20
0	0	8
72	72	16
22	23	2
31	32	2
55	55	9
51	51	2
24	26	2
52	58	2
52	57	1
48	67	3
67	70	2
23	23	11
73	74	6
74	85	1
47	50	6
90	90	5
54	56	1
48	51	1
27	28	4
61	62	7
19	20	4
14	15	2
81	84	1
31	50	1
3	48	3
71	71	7
33	46	1
49	50	10
79	81	1
79	82	1
57	69	2
12	46	1
62	63	3
88	89	2
64	64	9
74	86	1
60	63	1
75	78	3
71	73	5
18	19	2
17	20	4
67	89	2
52	61	1
20	22	2
0	1	1
28	29	2
68	89	2
57	58	7
47	69	5
0	58	1
68	84	2
62	69	1
83	84	5
82	84	2
80	81	4
27	56	1
54	82	1
60	61	2
86	87	3
4	9	1
22	24	2
78	79	7
53	58	7
67	69	1
4	4	6
13	20	1
46	50	2
21	22	5
13	14	1
69	70	2
54	72	1
4	12	1
10	10	9
12	13	2
14	19	1
31	65	1
76	77	7
8	11	1
10	11	2
53	54	7
12	14	1
67	87	4
14	16	5
58	76	1
59	82	3
13	16	3
53	56	1
27	59	2
61	63	1
48	64	1
77	78	3
28	28	3
71	84	1
80	82	3
5	7	2
9	10	1
48	50	1
6	7	5
29	29	2
71	72	1
89	90	2
25	27	2
46	46	1
74	81	1
23	25	1
52	60	4
20	21	1
66	89	2
7	7	2
21	21	1
52	59	2
34	35	1
2	3	1
68	70	2
55	58	1
84	85	2
50	65	1
80	83	1
15	17	1
3	17	1
71	74	1
68	86	1
16	17	1
47	62	1
