95	130	3
171	171	4
126	162	1
25	50	3
203	204	3
60	60	4
169	169	3
38	38	7
209	209	4
109	110	2
128	128	3
204	204	3
129	129	4
66	66	6
70	86	1
67	67	2
37	37	3
142	143	2
206	214	4
137	137	12
24	58	2
140	140	5
212	213	6
138	138	2
48	48	2
106	106	5
7	8	3
58	59	3
129	219	3
80	84	5
217	217	8
51	51	6
207	241	1
207	207	3
0	8	3
16	16	4
199	199	3
142	142	2
174	208	1
194	194	2
99	99	6
44	44	3
102	191	4
24	24	5
62	63	3
4	4	7
17	88	2
16	17	3
67	68	3
109	109	3
187	187	11
144	144	4
143	180	1
63	63	4
171	211	1
61	61	2
19	31	2
113	113	5
41	41	7
185	185	2
117	117	2
202	202	8
207	213	2
145	150	3
116	167	1
64	69	3
164	164	6
220	220	1
104	124	1
157	157	5
175	176	7
64	65	3
81	81	12
146	146	4
44	69	4
89	89	1
231	231	1
219	219	11
120	120	2
42	42	4
175	191	2
206	227	1
111	230	1
123	123	2
50	50	7
39	40	1
124	124	1
196	196	7
116	117	3
226	227	3
204	215	2
0	0	5
238	239	3
39	39	8
136	136	4
22	23	4
221	221	5
36	36	3
46	46	1
79	79	10
62	62	4
43	43	3
22	22	3
208	208	3
84	84	2
177	178	5
121	122	1
223	223	2
148	148	5
78	78	2
185	186	3
239	239	1
9	10	4
154	154	3
210	211	1
229	230	1
59	76	3
12	117	1
237	237	2
151	194	3
71	71	3
105	105	3
14	30	2
214	214	4
40	40	3
135	135	5
105	107	2
30	130	3
168	170	2
2	31	1
66	67	6
35	78	2
115	115	4
7	7	9
123	127	3
79	80	8
218	223	3
13	13	3
15	15	4
76	88	2
26	26	7
114	160	2
200	202	1
131	131	4
135	136	3
0	23	1
206	206	3
102	125	1
57	75	1
126	127	1
119	119	1
52	52	2
34	35	5
134	134	3
168	168	4
90	92	1
45	54	1
227	227	4
210	210	2
56	57	2
177	177	1
85	85	8
10	149	1
26	27	5
28	28	2
45	46	2
65	65	3
25	39	4
125	129	1
138	139	2
141	153	1
187	188	2
35	35	5
242	242	9
83	83	2
25	25	1
44	45	7
21	21	2
192	192	2
16	83	1
6	9	1
176	176	3
104	106	2
3	56	1
5	22	2
235	236	2
9	9	3
34	34	2
214	216	4
211	211	2
69	69	2
55	55	5
3	36	1
147	147	3
50	51	1
15	60	1
119	122	2
101	101	7
77	77	6
174	175	1
48	49	4
99	135	1
18	18	2
196	235	3
74	75	1
100	100	5
11	54	2
21	124	1
60	89	4
73	73	4
63	64	1
22	58	2
51	227	1
4	167	2
129	130	3
32	32	6
8	8	8
59	59	6
225	232	1
82	84	1
37	76	3
77	78	4
170	170	3
4	5	3
6	6	5
86	86	4
56	56	2
228	228	2
18	57	1
172	173	3
75	75	6
137	139	2
176	236	1
81	82	1
12	14	1
118	118	1
221	222	3
68	69	2
3	3	3
12	12	3
153	194	2
70	70	3
14	14	7
80	80	2
167	167	1
59	60	3
172	198	2
47	91	3
208	211	3
119	124	2
178	198	1
191	191	8
115	116	1
81	127	1
71	73	1
23	33	1
18	83	1
236	237	1
25	62	1
198	199	1
147	180	1
48	59	2
47	48	1
29	29	2
30	30	4
171	217	1
157	159	1
157	184	3
235	235	2
64	66	3
54	54	2
17	17	5
186	228	3
3	237	1
205	205	1
5	166	1
166	166	1
19	19	3
78	79	2
130	130	3
2	117	1
111	111	1
24	46	1
6	115	2
232	238	3
229	229	2
33	33	1
17	29	5
69	142	2
63	72	1
82	83	1
14	15	2
179	179	2
127	128	2
161	161	3
17	19	1
69	140	2
164	165	1
176	224	1
213	213	1
193	200	1
19	23	1
182	182	1
206	208	2
16	19	1
181	181	3
216	216	1
104	104	4
139	139	2
156	159	2
54	55	2
236	236	4
190	190	1
80	95	1
194	195	1
121	121	2
121	222	2
110	110	2
174	174	1
179	184	1
173	174	2
135	238	2
108	237	1
66	84	1
51	52	3
42	43	1
30	31	6
64	67	2
76	76	2
147	228	1
149	149	1
27	28	3
222	222	2
36	53	1
224	224	1
226	226	1
88	88	1
140	141	1
163	200	1
49	49	1
155	155	2
95	96	1
102	126	2
1	49	2
71	129	1
61	63	2
175	184	1
122	227	1
126	126	5
146	147	2
180	180	4
18	80	2
112	136	1
177	231	1
74	74	3
4	14	1
95	95	2
25	28	1
148	150	1
24	30	1
133	133	1
188	228	1
3	58	2
159	159	2
82	82	1
32	33	1
0	49	1
1	1	1
5	5	1
161	226	1
23	36	4
47	47	2
41	42	1
81	237	1
112	112	1
160	160	1
83	84	2
18	56	2
2	49	1
5	167	1
106	166	1
167	168	2
63	68	2
6	13	3
76	77	2
17	20	1
202	203	1
65	70	1
8	24	1
197	197	1
125	126	1
21	123	1
207	216	1
119	157	1
20	20	1
72	128	1
155	203	1
114	114	1
6	52	1
97	97	1
55	128	1
10	10	1
193	193	1
209	210	1
203	203	1
181	182	1
45	45	1
107	107	1
50	52	1
59	89	2
186	186	1
4	8	3
169	218	1
57	57	1
80	82	1
137	138	1
80	115	1
178	178	1
20	42	1
64	64	1
179	215	1
13	15	1
211	216	1
75	76	1
64	68	1
173	173	1
137	140	1
179	230	1
155	225	1
33	35	1
