128	128	17
77	77	52
80	80	24
70	70	23
132	132	26
63	107	2
30	30	26
26	77	9
7	7	40
39	40	4
42	42	22
14	16	5
47	48	9
132	134	4
15	15	22
20	121	2
0	64	3
67	67	47
35	35	28
9	9	37
57	58	6
63	63	16
19	19	18
62	62	25
17	73	2
78	103	2
4	4	16
100	101	9
111	111	22
82	82	38
14	14	16
90	91	23
90	92	14
13	25	4
100	100	33
59	60	11
103	103	22
14	15	7
85	85	26
120	120	13
25	55	9
95	96	21
125	126	9
123	124	4
79	128	2
83	83	28
6	6	28
97	97	21
109	109	40
17	17	40
97	100	4
3	3	27
94	94	21
105	105	22
114	114	21
124	124	17
44	44	30
4	15	1
91	92	4
96	99	13
86	86	18
36	36	26
11	93	14
31	31	21
21	22	8
93	93	51
107	107	28
112	116	1
18	18	22
68	69	8
46	46	33
40	40	30
10	10	35
4	6	4
12	36	7
16	17	2
47	47	47
27	28	15
16	16	25
98	101	3
58	82	7
106	106	31
42	83	3
29	29	31
4	5	25
39	80	4
75	77	5
56	58	6
131	131	15
98	99	7
57	57	18
89	92	2
30	73	1
72	72	56
91	91	28
107	116	6
110	110	11
66	66	30
69	69	35
33	82	4
55	56	12
129	130	9
5	5	19
65	65	47
73	73	54
10	35	5
29	62	3
8	8	28
10	11	1
25	25	26
92	92	33
115	116	4
82	84	7
113	113	24
61	61	38
35	65	3
87	87	22
108	109	7
26	26	36
33	33	17
104	104	15
94	95	20
94	105	3
22	56	2
127	127	19
12	13	8
41	42	10
118	119	3
113	117	5
59	59	30
46	93	1
63	70	1
28	28	36
0	2	4
116	116	30
67	69	3
58	58	15
81	81	24
95	95	22
99	99	24
27	30	7
13	13	18
5	6	7
77	78	8
49	56	2
119	119	21
12	14	3
84	84	27
107	112	7
18	128	6
59	127	2
12	12	52
85	93	3
33	34	5
127	128	4
19	100	2
76	76	33
112	113	14
75	75	26
28	91	2
85	86	17
124	125	14
25	26	10
79	80	15
41	109	2
71	71	32
133	133	15
74	74	39
43	43	12
117	117	21
129	129	17
37	42	4
78	78	32
120	121	12
9	10	7
29	83	3
11	11	44
9	70	4
123	123	19
78	81	1
97	98	9
98	98	16
120	132	1
27	27	33
51	51	4
31	32	10
95	97	6
122	122	14
88	88	18
109	110	3
24	24	16
36	37	7
26	27	17
34	34	38
114	116	2
102	102	19
45	48	2
115	115	26
101	101	22
24	25	12
60	127	2
75	76	10
18	22	2
56	56	10
85	90	4
48	49	3
78	79	19
2	2	13
76	77	5
131	134	7
73	74	15
30	31	6
18	62	1
28	31	4
25	81	5
114	119	3
60	123	5
70	71	7
76	85	3
49	49	8
80	81	5
39	56	2
4	101	1
23	23	25
90	90	24
20	132	3
3	14	1
114	115	6
96	97	5
4	79	5
96	96	18
62	63	4
20	21	9
35	36	17
1	2	5
86	102	3
5	81	4
69	70	6
19	21	3
77	80	7
79	79	27
57	63	2
109	129	2
45	45	33
40	41	19
41	41	20
60	60	28
89	90	2
38	38	15
104	106	5
11	12	11
61	75	5
10	20	3
6	7	9
21	131	2
4	28	1
18	59	2
20	127	4
25	75	5
32	32	33
126	126	18
24	82	1
59	61	12
128	132	4
20	20	21
81	82	14
107	108	12
104	107	1
100	133	6
117	134	4
99	100	12
110	111	13
64	64	39
87	101	3
5	8	4
4	29	3
124	134	2
39	39	14
112	112	14
38	39	4
21	21	13
124	133	10
79	103	3
77	83	2
92	96	3
3	26	2
24	57	1
126	130	3
68	68	21
92	93	10
91	97	6
93	96	4
19	105	2
59	130	2
3	102	1
130	131	7
121	123	5
1	3	5
119	120	17
109	111	6
45	118	3
118	118	16
61	73	3
130	130	19
13	17	2
44	46	3
12	24	2
89	89	2
57	81	5
34	77	2
125	128	2
117	122	6
96	102	1
41	43	9
67	70	2
134	134	20
126	131	3
80	128	1
29	31	7
60	106	1
31	75	2
65	67	3
36	43	1
108	110	7
19	28	1
10	121	1
8	74	3
13	61	2
45	116	1
29	82	2
8	28	1
133	134	5
55	55	13
131	132	16
102	121	6
32	79	2
71	72	10
87	94	3
78	126	2
84	114	2
115	132	1
67	68	7
47	63	2
34	35	10
40	56	2
74	75	6
87	88	10
27	66	1
79	133	1
2	46	3
25	83	2
84	85	3
13	16	10
103	104	4
84	132	2
121	122	8
90	94	1
48	48	5
22	82	5
32	83	3
14	39	4
20	62	6
59	112	1
37	56	3
36	42	1
116	117	1
32	33	5
104	105	18
93	94	6
82	83	9
20	36	6
128	130	9
44	45	11
10	36	3
108	132	1
102	103	1
87	89	1
108	108	12
37	38	5
10	17	1
37	41	2
60	118	3
2	5	2
21	37	3
88	89	2
1	1	10
41	81	3
99	101	3
22	24	11
79	81	2
46	73	1
17	62	1
59	123	1
89	94	2
9	33	2
34	36	2
29	133	4
123	130	3
17	18	2
81	109	5
125	125	11
91	95	4
32	63	1
40	43	6
44	56	2
23	24	9
29	30	6
60	78	4
19	20	10
132	133	4
37	37	12
3	8	8
3	12	4
85	104	3
87	90	1
0	0	7
90	101	1
72	83	1
2	6	1
89	96	4
103	105	2
91	98	1
123	134	2
110	113	1
73	94	1
63	64	2
37	39	4
78	80	4
96	98	3
93	115	1
28	80	1
49	69	1
97	123	1
24	75	2
117	118	3
33	72	4
88	94	2
66	67	2
13	15	1
100	102	4
85	100	1
116	132	1
43	46	2
102	122	6
5	29	3
26	84	1
117	120	1
35	74	5
56	128	1
121	121	14
126	127	5
42	43	3
89	91	1
20	22	2
51	54	3
76	83	1
12	75	1
29	47	1
13	14	3
3	9	5
19	42	1
28	29	4
83	84	5
40	50	2
8	17	2
29	81	2
51	55	2
86	128	1
82	86	3
57	102	2
71	78	2
5	101	4
32	45	3
37	82	1
95	100	2
88	97	1
48	61	1
71	77	2
18	20	1
29	49	2
108	123	3
85	101	2
26	30	4
25	47	3
35	85	1
45	64	1
48	51	1
125	127	1
80	102	1
102	131	3
54	54	1
57	123	1
41	46	2
86	92	3
60	94	2
115	134	2
92	101	1
28	82	4
24	26	3
35	73	3
117	125	2
4	7	1
88	99	2
46	47	3
3	4	2
90	96	4
49	50	1
86	87	6
12	44	1
71	123	2
85	88	1
86	101	1
47	100	1
92	97	2
23	27	1
78	82	1
61	74	1
58	123	1
45	46	2
84	86	3
101	102	1
120	128	2
21	36	3
27	79	1
69	116	1
23	63	2
15	16	8
56	57	3
62	78	2
58	87	1
12	102	2
86	123	1
116	124	3
8	9	3
77	118	2
43	50	2
72	73	1
5	7	1
20	23	1
35	84	2
116	118	1
45	89	5
7	79	2
45	61	2
100	132	2
31	71	2
7	17	3
22	132	2
33	73	1
25	77	1
111	113	4
33	83	1
20	71	2
16	36	1
69	113	1
25	45	1
66	83	1
33	76	4
15	31	1
61	63	1
27	29	2
131	133	6
22	22	7
99	102	3
105	106	1
57	103	1
48	50	4
85	133	2
72	102	2
61	62	1
47	66	1
60	126	3
108	133	4
15	81	2
8	35	2
24	55	1
60	104	4
4	38	2
10	99	1
27	91	1
72	110	1
33	124	3
47	56	1
62	64	1
29	61	3
16	18	4
127	131	1
118	122	5
63	80	1
15	17	1
45	79	1
36	124	1
47	92	2
5	17	2
60	124	1
10	120	2
77	119	1
35	77	1
33	75	1
29	48	1
63	67	2
80	126	1
91	93	2
10	18	1
58	105	1
69	71	3
26	47	3
22	23	2
63	68	1
64	120	2
19	102	1
34	110	1
59	113	1
84	88	1
22	127	1
50	50	1
116	125	2
59	124	1
110	116	1
42	48	1
6	8	2
106	107	4
84	93	3
79	82	1
30	32	1
50	56	1
26	103	2
68	70	1
38	40	1
60	105	1
43	44	3
64	65	4
60	61	3
11	99	1
127	134	4
86	100	1
97	99	2
9	74	1
94	104	1
93	97	1
87	92	1
38	81	2
7	55	1
59	79	1
82	130	1
36	82	2
111	116	1
59	81	1
61	94	1
80	123	1
84	108	1
13	46	1
124	128	1
26	82	1
111	115	1
128	131	1
108	121	1
32	133	1
62	66	1
9	24	1
42	72	1
60	107	1
