144	182	4
125	126	4
107	108	1
37	37	2
81	81	1
11	11	7
142	143	1
122	154	2
106	128	1
62	66	1
120	120	5
194	194	11
187	188	1
97	97	2
113	113	6
177	177	10
138	138	7
181	193	2
70	150	7
143	180	1
193	193	4
146	179	6
101	101	9
45	53	6
173	173	8
154	154	8
12	12	1
165	167	4
41	41	5
187	187	3
18	18	3
189	189	3
23	23	2
161	161	9
7	7	1
12	14	5
47	47	4
170	170	3
172	172	3
160	160	2
135	135	6
115	120	5
4	90	1
134	145	1
34	34	6
56	56	1
42	78	1
129	129	4
139	141	2
151	151	7
155	155	11
174	192	5
50	50	3
109	109	5
171	171	5
9	39	3
144	144	5
167	167	4
184	184	2
169	177	1
12	51	4
188	188	3
155	157	3
66	75	2
89	89	3
122	129	2
161	165	1
79	79	1
62	76	1
175	192	1
3	3	3
10	10	2
20	66	2
118	118	2
168	168	9
117	146	3
95	95	1
142	142	3
99	99	8
174	188	6
5	7	3
39	39	1
175	175	9
124	124	2
175	176	3
150	150	4
150	153	3
165	192	2
67	67	2
30	31	2
124	179	3
2	2	2
100	100	3
58	59	2
169	170	1
156	162	1
20	20	4
183	197	8
40	41	1
195	196	2
154	167	2
35	35	5
65	73	3
179	183	3
2	127	2
122	122	6
1	36	2
146	158	1
21	22	1
52	52	4
5	13	6
190	190	6
102	102	1
158	169	2
24	26	3
160	161	5
146	146	3
114	115	2
30	33	4
157	167	2
27	27	1
19	35	1
88	88	4
64	65	2
43	43	3
38	38	3
76	78	1
22	22	5
33	34	3
0	0	1
172	178	1
119	142	1
181	181	7
5	151	4
48	48	3
66	66	2
139	139	2
137	137	5
164	168	3
83	84	2
156	156	4
22	23	3
58	62	2
133	133	2
191	191	3
134	134	2
126	126	2
46	47	1
131	131	6
114	141	1
149	178	2
45	48	1
130	130	1
33	33	4
154	180	1
30	30	2
172	173	1
5	5	6
165	165	1
185	185	3
45	46	3
13	188	4
158	158	1
2	65	2
165	166	5
193	194	1
119	119	1
29	29	1
157	157	4
104	104	1
46	46	6
169	169	3
123	180	2
149	149	2
140	140	6
197	197	1
154	157	1
130	131	1
111	182	2
151	152	3
21	21	2
99	107	3
146	147	1
40	40	3
70	72	1
179	179	2
26	26	3
52	169	1
60	78	2
2	36	2
192	192	3
61	76	2
80	94	1
149	151	1
30	125	1
28	29	1
39	66	2
32	33	2
182	183	3
180	180	5
6	7	2
136	136	4
58	58	2
118	145	2
87	88	1
64	64	3
171	184	1
171	172	3
114	146	1
155	159	5
45	51	1
149	150	1
108	108	1
14	39	1
72	72	1
164	164	1
130	143	1
152	166	2
43	44	4
28	34	2
143	143	2
99	155	2
21	57	2
15	15	2
177	178	2
147	148	1
137	160	1
55	56	1
156	157	2
13	13	2
152	152	2
122	130	1
41	67	1
196	196	1
127	127	4
148	149	2
44	45	1
153	153	2
146	148	1
32	32	2
93	93	2
135	136	2
14	187	2
182	191	1
106	106	4
123	123	1
10	12	2
191	192	1
124	177	2
44	44	1
164	165	1
51	51	1
31	31	3
55	55	1
191	193	1
16	58	1
120	183	3
65	65	2
81	94	1
45	57	1
147	152	1
40	76	2
140	156	1
42	42	2
24	27	1
45	85	1
78	78	1
178	178	1
99	102	1
46	183	3
182	182	1
14	15	1
119	145	1
80	81	1
84	84	1
21	66	1
11	12	1
28	58	1
56	57	1
159	160	1
54	54	2
161	164	1
161	162	2
106	107	1
146	154	2
167	168	1
163	164	1
139	140	1
109	152	1
59	59	1
137	157	1
162	164	1
100	114	1
1	1	1
144	155	1
176	176	1
166	166	2
159	166	1
14	14	1
12	23	1
176	197	1
