77	79	4
89	89	21
16	16	9
47	56	4
20	20	18
19	19	10
26	26	12
67	67	42
50	61	7
47	47	14
27	50	1
84	84	11
80	81	5
22	23	15
73	73	7
69	69	28
68	68	40
31	31	22
81	81	34
74	74	18
49	49	16
66	66	41
70	81	3
46	47	3
56	56	20
27	27	19
1	1	9
75	75	35
30	30	15
8	17	3
52	52	17
3	3	22
55	56	13
25	27	3
88	88	17
7	8	3
4	4	40
68	69	3
78	79	4
66	67	11
74	76	1
53	80	9
54	56	6
55	55	10
17	18	13
25	25	11
82	82	23
83	83	7
17	17	9
87	87	29
11	11	14
80	80	32
23	23	16
14	16	4
26	27	3
73	74	4
14	14	24
81	82	8
32	32	3
24	24	15
51	52	9
58	58	41
2	2	14
34	34	3
74	75	6
28	28	7
85	85	21
33	33	9
64	64	9
18	18	5
14	53	8
72	72	6
61	70	2
9	9	16
64	74	6
70	70	28
75	77	6
6	6	5
1	3	5
71	72	13
62	62	11
5	5	15
29	30	8
61	61	9
53	53	4
57	57	17
11	15	2
88	89	10
51	51	10
7	16	8
63	64	8
87	88	4
72	74	4
77	78	4
24	25	3
15	15	19
53	72	7
48	49	8
49	50	9
9	10	4
22	22	5
58	63	1
65	65	13
54	54	26
17	20	2
52	60	2
50	54	5
79	79	5
76	76	13
49	51	4
23	24	10
60	61	5
13	13	17
8	8	16
71	71	19
48	50	6
29	29	12
73	75	3
48	48	7
8	9	5
14	15	9
5	12	1
53	81	6
3	4	10
12	12	13
68	72	3
75	76	2
23	25	11
90	90	6
62	64	4
69	70	9
55	63	2
50	50	10
27	28	6
13	14	2
71	81	1
10	65	3
9	66	4
7	17	3
58	60	3
21	22	9
22	24	2
20	21	4
7	7	4
68	70	1
4	90	1
86	87	13
77	77	12
4	5	2
50	51	1
16	19	3
63	73	6
0	2	7
46	46	6
85	87	3
83	84	1
85	86	5
0	1	6
0	0	12
65	66	9
59	61	5
31	33	2
12	13	4
52	55	2
7	9	4
6	17	2
63	65	3
67	69	4
60	60	8
4	54	2
79	80	3
57	58	10
54	55	2
1	2	3
5	17	1
10	10	12
19	20	8
86	86	7
49	55	3
53	55	5
15	30	1
52	63	1
78	80	1
50	62	3
53	54	6
21	24	3
59	60	2
9	65	1
1	4	1
4	51	2
63	63	1
50	53	1
76	77	3
54	72	1
12	16	2
49	52	2
79	87	1
67	68	2
5	19	2
78	78	2
71	75	1
7	63	2
10	51	2
82	83	2
8	18	1
74	85	1
52	54	2
47	48	1
84	88	1
66	70	3
64	65	2
67	75	1
48	64	1
6	9	1
11	12	1
46	49	1
12	14	1
89	90	2
21	21	2
52	62	1
51	60	1
72	75	1
70	71	1
56	58	1
51	61	1
64	80	2
56	59	1
84	85	1
78	82	1
62	63	1
23	26	1
76	79	1
30	31	1
17	19	1
85	88	1
53	57	1
31	34	1
