108	108	3
159	159	4
83	83	1
189	190	3
108	109	3
14	14	2
148	150	2
169	169	3
108	155	2
15	16	3
5	5	4
6	21	1
157	157	5
141	141	6
136	155	10
160	160	1
150	155	3
19	19	7
20	20	12
52	53	1
24	24	6
148	152	5
180	181	7
35	35	6
38	47	2
13	17	7
97	97	2
95	95	3
65	71	5
72	72	14
28	30	4
116	116	4
96	96	4
120	130	2
55	55	6
57	117	1
94	94	8
177	177	3
4	4	10
138	139	1
25	25	4
144	145	5
93	93	3
91	92	2
128	129	4
0	21	3
117	117	4
46	47	6
30	53	2
151	151	1
104	149	2
110	116	4
174	175	4
154	154	2
38	38	7
104	150	3
91	91	3
131	132	4
86	122	3
142	142	1
31	31	9
44	45	1
150	150	3
75	76	2
40	40	2
109	115	5
107	108	5
107	107	4
57	57	6
84	88	1
4	21	4
77	77	9
121	121	1
36	43	4
8	8	2
99	99	9
98	158	2
112	112	1
45	47	1
133	136	1
3	3	2
120	120	1
56	57	1
64	65	2
76	76	2
130	131	4
144	144	5
115	117	3
189	189	5
88	154	3
26	26	3
119	121	1
102	103	2
3	10	1
123	123	1
4	5	3
152	152	5
75	75	2
124	124	5
92	93	6
129	129	1
20	21	3
82	82	4
187	187	1
79	79	1
33	33	1
23	24	4
88	88	4
32	32	5
74	129	2
20	55	4
89	89	4
156	157	6
114	115	1
53	55	3
72	108	1
104	137	1
82	96	3
61	63	1
149	149	3
87	87	3
158	158	6
137	137	2
5	6	2
37	37	2
80	80	2
30	30	5
135	135	1
2	70	1
69	69	4
11	12	1
9	19	1
70	107	6
59	63	1
65	65	3
139	140	1
131	131	3
42	42	3
61	61	1
66	66	2
43	47	1
111	114	2
59	60	1
7	8	1
16	17	3
71	71	3
6	7	1
148	148	2
23	23	2
86	86	2
37	59	1
64	155	1
24	26	1
27	27	1
159	186	3
134	134	1
15	17	1
140	140	1
21	21	2
113	163	1
48	48	1
127	130	1
181	182	1
44	44	1
146	147	1
34	36	2
139	139	3
73	77	5
109	109	4
80	121	1
71	72	1
9	11	3
77	78	1
16	59	1
33	55	3
16	16	1
147	183	2
145	154	4
61	64	3
58	109	1
163	163	1
45	45	2
177	178	2
28	55	1
156	161	3
15	15	3
104	104	3
102	102	1
70	141	1
112	113	3
70	91	3
143	143	1
128	144	1
115	115	1
116	135	1
19	20	2
131	133	1
86	100	2
18	18	3
6	22	2
84	122	3
41	41	3
76	129	1
21	45	1
161	161	1
6	6	2
79	115	4
55	56	3
130	130	1
22	23	1
113	113	1
103	103	3
96	97	1
18	58	1
38	39	1
43	43	1
119	119	5
25	26	1
36	42	1
21	28	1
24	147	1
80	81	1
186	186	1
47	47	1
147	148	1
72	78	1
35	36	3
90	90	3
53	53	1
76	77	3
17	17	2
184	184	3
68	151	1
153	153	3
86	88	1
9	10	1
111	163	1
70	70	1
117	118	1
100	101	1
3	4	1
156	162	1
2	12	1
28	46	1
36	47	1
119	131	1
168	168	1
171	171	2
56	56	1
162	163	1
73	75	1
139	158	1
29	43	1
111	136	1
100	100	1
84	87	1
13	13	1
45	46	2
37	42	1
5	7	1
22	22	1
19	21	1
173	173	1
146	146	1
62	63	1
98	98	3
78	78	1
143	144	1
180	180	1
10	14	1
47	53	1
167	168	1
7	7	1
64	64	1
101	129	2
46	54	1
154	158	1
106	107	1
2	2	1
92	92	1
120	132	1
133	134	1
3	9	1
58	58	1
17	21	1
157	163	1
95	97	1
