50	51	5
76	77	3
73	73	15
77	77	8
89	89	7
87	87	7
69	69	4
22	22	10
100	101	3
109	109	9
54	54	5
56	57	2
63	69	3
29	29	11
68	69	4
113	114	4
22	23	2
67	68	2
30	30	9
84	84	5
90	109	1
96	97	2
95	98	2
78	80	4
104	109	2
43	43	7
114	114	6
58	58	4
66	67	1
76	76	11
26	26	1
35	35	1
46	46	5
107	107	6
107	112	3
73	108	5
41	41	4
41	42	2
52	59	1
82	108	5
51	51	10
43	44	5
91	91	4
85	106	3
76	108	1
79	81	2
38	38	5
102	103	3
89	90	3
84	106	2
79	79	10
34	34	7
59	72	1
36	37	2
92	113	2
21	21	5
62	63	2
45	50	1
19	29	4
89	100	3
75	75	12
101	101	2
49	50	3
73	74	3
65	65	1
66	100	3
92	92	3
70	70	4
45	45	10
109	111	3
80	85	2
40	40	9
77	79	1
112	112	2
86	88	1
92	94	5
20	21	3
72	110	3
111	112	1
77	78	6
68	68	4
105	105	6
94	94	5
75	76	3
81	81	5
67	85	1
86	86	2
39	41	3
82	86	2
95	95	1
53	54	1
87	91	2
99	99	7
76	107	5
53	56	2
47	57	1
39	39	5
80	80	3
110	110	4
22	31	1
113	113	7
25	25	7
88	88	1
102	102	4
87	88	2
28	28	5
62	62	6
47	49	1
103	103	4
43	48	1
66	66	3
85	86	4
75	107	5
37	38	1
44	44	9
32	32	3
31	36	1
36	36	3
63	63	7
64	65	2
86	107	2
53	53	1
94	95	2
49	49	4
38	40	2
95	111	1
86	89	2
60	60	7
31	53	3
47	47	6
109	113	1
78	78	4
27	27	1
97	97	3
23	26	1
103	106	2
93	93	1
74	74	5
59	59	3
33	34	3
47	48	3
85	85	2
68	87	4
41	53	2
99	101	3
53	58	5
60	73	1
48	73	1
62	64	2
41	44	7
66	69	1
45	46	1
23	25	3
26	28	2
67	90	3
29	38	1
40	41	2
95	97	2
98	101	1
78	79	5
62	86	2
49	114	2
48	48	2
23	23	6
27	33	3
111	111	3
29	30	4
74	76	2
37	37	1
24	29	3
108	108	3
57	57	2
59	60	2
100	100	1
50	114	3
44	49	2
70	87	1
72	72	3
63	74	1
82	82	1
50	50	2
29	60	2
32	34	1
97	98	1
33	33	4
35	37	1
112	113	3
42	42	1
76	82	1
103	107	1
51	52	1
57	58	2
86	92	3
95	96	1
27	28	1
24	24	3
78	108	1
66	70	2
42	44	1
96	102	2
61	61	4
114	115	1
104	104	1
61	65	1
82	85	1
99	100	3
98	98	2
88	89	3
27	29	2
68	70	2
63	64	1
26	84	2
65	67	1
52	52	1
99	113	1
72	73	1
80	104	1
83	83	2
41	43	1
111	113	1
109	110	1
96	96	1
108	109	1
