27	29	1
62	63	4
17	17	14
102	114	2
74	74	13
67	68	7
108	108	3
52	137	4
63	63	5
114	116	4
123	123	13
111	121	1
11	11	4
26	27	1
24	31	2
74	75	4
107	107	6
140	140	9
30	30	6
119	119	11
49	50	7
75	75	14
18	18	8
125	125	8
116	117	6
69	70	1
8	8	8
8	9	2
41	41	3
136	137	6
87	88	3
131	131	7
92	92	2
57	89	3
83	123	1
109	110	4
93	94	1
94	95	5
142	142	8
26	31	1
84	84	2
126	126	10
96	97	3
110	134	3
65	65	3
15	15	3
12	12	9
96	98	1
114	114	2
35	39	4
59	59	4
81	81	4
128	129	2
130	131	4
37	37	1
141	141	23
136	138	2
121	122	2
129	131	1
120	120	9
73	74	4
78	78	4
6	6	7
24	24	5
18	30	6
13	14	2
103	106	2
25	25	4
95	99	2
124	124	4
76	77	2
69	69	5
99	114	1
131	134	2
122	122	8
6	21	2
124	127	1
95	96	2
95	108	5
134	140	3
127	127	5
62	105	2
58	79	8
61	61	3
119	120	9
103	108	1
140	141	4
128	128	9
94	111	2
1	1	6
118	141	4
118	120	4
3	3	4
33	33	7
143	144	1
94	94	6
62	103	2
139	139	4
4	5	3
104	104	3
39	40	2
17	41	3
35	35	5
107	128	1
21	21	5
9	10	3
54	55	4
133	141	1
132	132	4
101	102	3
56	56	3
83	85	2
51	53	5
72	72	2
3	6	1
25	31	1
60	60	8
43	43	1
13	16	1
37	41	4
82	85	3
77	77	4
77	78	5
19	19	4
116	116	4
118	118	10
62	90	2
5	6	2
115	128	4
22	22	5
0	0	5
87	87	5
53	54	7
130	130	9
34	34	3
134	134	5
82	124	1
99	99	5
103	123	2
125	127	1
23	24	2
117	117	3
58	58	2
129	132	2
69	88	1
113	113	3
10	128	1
82	97	1
135	135	14
138	139	3
27	27	3
25	27	3
47	47	6
107	108	3
102	102	7
138	138	5
48	58	2
3	4	1
137	139	1
102	128	1
48	48	5
139	140	3
40	49	3
79	80	2
143	143	4
127	138	1
124	125	3
129	130	2
61	90	2
133	134	1
9	11	5
1	10	2
135	139	3
115	118	1
27	30	1
89	90	4
86	86	5
25	26	5
80	84	2
79	79	5
141	142	2
40	40	8
57	57	8
82	82	3
121	121	4
91	91	5
31	31	6
48	130	3
129	129	9
123	124	2
88	91	1
90	91	2
113	134	4
120	125	1
135	136	2
10	127	1
63	66	2
9	9	2
140	142	1
59	60	3
42	66	2
68	68	9
36	37	1
137	138	1
57	59	4
83	83	3
136	136	3
134	135	1
75	94	1
58	60	3
10	10	5
51	51	1
128	130	6
34	35	1
17	24	1
111	112	2
101	123	1
70	71	4
110	110	4
53	53	5
96	96	2
118	119	2
36	36	4
115	115	4
40	41	7
8	62	3
80	81	3
105	105	6
23	23	5
17	18	5
24	25	4
114	118	1
74	93	2
98	98	5
91	104	1
76	76	1
51	52	1
101	101	5
29	29	5
54	54	5
60	103	2
71	71	4
30	31	1
86	87	1
103	103	7
142	143	2
99	109	1
9	126	4
14	14	3
125	126	2
54	56	2
38	38	3
30	128	1
115	129	1
108	114	3
133	133	4
67	67	1
80	80	2
28	28	1
26	133	2
103	125	1
55	140	1
15	16	3
29	30	4
132	133	1
73	73	4
70	70	1
82	83	3
31	32	4
96	103	2
120	122	1
128	141	3
62	81	1
131	133	1
66	66	4
57	58	3
1	13	2
111	111	2
9	64	2
18	19	2
60	89	1
28	30	2
89	89	6
74	96	2
97	107	1
55	55	4
109	109	5
104	106	1
120	140	1
64	65	2
24	26	1
53	91	1
51	117	1
75	92	2
71	72	3
49	49	4
58	59	2
107	121	2
94	112	3
131	136	1
96	117	1
52	52	2
49	141	1
49	140	1
117	118	1
112	113	1
61	62	2
91	92	1
112	112	2
120	135	2
50	50	3
2	4	1
71	90	1
64	64	2
113	115	1
38	40	1
125	134	1
50	52	1
126	127	2
35	41	2
117	125	1
60	75	2
97	108	1
2	2	3
27	28	3
127	132	1
120	136	1
105	106	1
64	67	2
130	138	2
13	15	1
31	40	1
82	121	1
134	141	1
62	62	3
88	88	1
59	102	2
95	104	1
16	16	3
5	5	4
134	138	1
22	23	1
27	53	2
61	102	1
98	121	1
75	76	1
11	23	1
140	143	1
120	121	1
97	106	1
21	25	2
85	86	2
120	137	2
144	144	3
118	133	1
106	107	2
104	123	1
105	108	1
16	17	1
39	39	1
142	144	1
32	32	1
