102	130	4
70	71	2
104	105	2
50	50	11
12	12	3
54	99	4
11	11	6
126	126	5
81	81	1
97	108	1
117	117	8
87	87	10
44	44	2
98	99	2
101	101	13
124	129	2
77	78	5
45	45	8
74	74	11
61	61	6
69	81	3
127	127	4
36	37	4
120	120	10
107	115	2
56	57	1
36	36	1
58	59	5
65	69	3
64	69	3
122	122	6
49	50	6
27	28	4
82	82	2
105	106	6
5	5	12
111	130	1
6	6	3
80	80	7
128	133	1
83	83	2
72	121	2
14	15	1
105	111	2
2	2	6
118	118	4
124	133	3
86	87	4
77	77	5
35	35	6
16	16	6
107	117	6
58	58	8
26	27	2
75	75	7
123	123	8
99	99	7
113	113	15
80	90	2
67	67	2
92	93	6
26	26	6
55	55	2
25	26	11
61	62	2
7	8	1
117	118	3
102	102	9
108	109	3
4	4	5
105	109	4
57	57	10
121	121	6
29	31	3
131	131	6
62	63	2
112	117	9
3	3	7
125	127	3
89	89	7
71	72	12
119	119	5
129	133	5
22	32	1
118	119	4
20	20	3
108	114	1
133	134	2
71	71	7
102	103	1
73	73	5
124	124	1
28	29	2
127	128	6
133	133	4
8	13	2
104	104	3
107	130	2
29	29	2
120	121	1
8	8	3
77	96	3
70	72	1
120	124	2
0	0	10
18	22	2
53	53	7
34	34	5
113	115	1
106	106	3
118	122	2
132	132	3
95	95	4
69	69	1
22	22	1
30	30	1
96	97	6
74	75	2
12	13	1
66	66	3
75	76	1
47	54	3
99	103	2
24	126	3
123	124	4
95	134	1
15	16	5
129	129	1
67	68	1
64	65	9
77	79	3
124	128	1
126	128	6
27	69	1
109	132	2
91	93	3
79	82	3
61	69	1
95	133	4
85	99	3
73	121	3
10	26	4
112	112	8
124	127	2
93	93	5
103	103	6
15	22	2
21	21	1
98	98	11
6	13	5
128	128	4
96	98	1
115	117	2
126	127	6
1	1	3
93	94	1
1	2	5
100	107	5
19	19	2
86	86	1
14	14	5
112	114	1
17	34	3
113	129	4
15	15	4
15	127	2
110	110	5
108	116	2
98	100	1
87	88	2
63	63	4
103	104	2
78	92	4
97	97	2
82	88	5
33	34	5
0	3	1
3	11	2
100	100	2
49	49	3
78	78	1
132	133	5
111	112	4
130	131	2
76	76	2
52	52	1
18	23	4
28	28	12
63	84	1
99	135	1
116	116	2
46	49	3
50	111	2
129	134	5
62	62	4
18	18	1
73	74	3
131	132	2
33	33	3
77	108	3
110	131	3
92	110	5
10	10	7
72	72	3
43	43	4
72	73	1
37	38	1
106	130	5
107	107	4
82	84	2
57	66	3
31	31	5
30	31	1
52	112	1
110	111	1
128	129	2
90	91	2
52	116	1
79	79	3
37	37	2
48	48	3
105	105	6
13	13	1
97	107	1
118	125	1
98	106	3
82	85	2
130	132	3
50	51	1
78	79	2
6	7	2
109	115	1
92	92	2
13	14	1
84	85	2
14	17	1
25	101	1
102	105	3
119	133	2
44	45	5
88	88	2
17	25	1
70	70	2
101	102	3
130	130	7
99	105	2
27	35	1
85	85	1
110	114	1
75	93	1
52	53	4
125	131	1
127	129	1
91	91	2
62	86	2
45	56	1
64	81	2
42	43	1
19	25	1
101	120	1
134	134	1
87	107	3
125	125	1
24	102	2
24	24	1
123	126	2
60	60	1
25	25	1
124	126	3
114	114	1
57	58	3
63	83	1
80	93	1
122	123	1
17	17	2
32	32	1
37	68	1
112	113	1
56	56	1
100	106	1
99	100	2
81	82	1
79	80	1
38	45	1
125	129	1
53	54	2
23	23	2
54	54	2
20	24	2
114	115	1
59	59	1
73	109	1
92	94	1
38	38	1
106	107	1
68	79	1
84	88	2
2	32	1
66	67	1
68	80	1
85	92	1
65	65	1
