27	27	11
16	16	4
42	45	1
58	58	4
32	38	2
72	74	4
47	76	4
46	80	1
54	67	1
30	39	8
6	7	10
32	39	1
15	18	2
48	78	2
35	46	5
0	1	3
19	20	2
13	17	6
35	40	1
70	70	6
28	29	3
48	48	3
53	57	3
2	5	5
17	37	4
74	75	5
72	73	1
41	47	3
10	10	6
28	28	3
3	3	5
32	74	1
33	74	6
40	40	5
61	61	4
76	77	1
65	70	2
80	80	5
58	70	2
3	13	3
73	78	6
56	56	5
4	4	5
67	73	7
67	71	2
17	20	4
59	63	2
17	29	3
1	1	1
55	58	2
33	33	4
67	68	1
7	10	2
41	41	2
60	62	3
8	17	3
64	76	3
17	19	3
1	39	5
78	78	2
6	6	4
63	63	2
1	17	2
2	4	4
49	81	4
1	3	2
35	36	9
67	69	3
54	57	2
66	66	2
30	30	3
12	13	3
43	43	2
33	40	2
11	11	1
65	68	1
42	44	1
38	38	3
32	33	7
28	34	4
55	57	2
21	21	2
25	35	1
25	26	1
15	15	1
56	68	3
71	72	2
49	49	3
45	45	4
60	60	2
53	54	1
69	70	6
64	64	2
14	28	2
47	49	1
55	59	2
64	81	2
29	32	1
63	69	1
34	37	3
9	10	2
30	32	2
6	9	6
54	58	1
49	67	3
61	62	1
45	46	5
53	53	2
12	12	5
8	10	2
79	79	5
49	50	1
72	77	1
4	6	2
58	74	2
76	78	1
8	11	2
66	72	2
51	52	2
76	76	4
7	12	1
65	67	2
77	78	2
40	50	1
63	80	3
28	30	3
61	65	1
1	2	2
27	30	2
2	2	2
77	80	1
19	19	7
41	45	2
0	2	9
69	69	1
71	73	2
37	47	1
47	47	2
39	71	2
68	69	4
20	21	2
72	72	6
77	79	1
46	46	2
28	31	2
13	14	7
34	34	1
46	61	1
14	17	2
52	65	2
9	9	6
68	68	2
0	0	2
17	17	5
32	47	3
48	50	3
64	78	3
38	46	1
67	67	2
1	6	1
45	47	1
29	35	1
26	26	2
33	35	3
75	76	5
68	71	4
31	31	2
60	64	3
60	71	2
45	52	1
38	58	3
76	79	1
12	16	1
33	39	1
27	31	1
50	51	1
72	75	2
47	57	1
15	20	2
37	64	3
0	4	1
35	35	2
27	38	2
27	28	6
52	59	1
34	53	1
5	6	1
72	76	5
57	60	1
30	33	3
78	79	1
52	53	4
44	49	2
38	62	2
42	42	2
11	12	3
71	71	2
19	21	3
48	74	1
49	51	2
59	60	2
73	73	2
39	60	1
66	69	1
8	12	1
27	57	1
29	29	1
39	41	4
10	11	1
42	46	2
18	21	1
49	52	2
51	59	2
1	5	1
64	72	2
27	39	1
27	34	1
58	62	1
54	55	2
31	34	3
52	60	1
38	52	3
73	74	1
54	59	1
42	47	1
55	56	3
77	77	1
26	55	1
51	51	4
4	11	1
56	58	1
10	13	1
16	18	1
25	25	1
37	38	3
29	33	1
54	66	1
64	65	1
57	63	2
12	15	3
36	47	1
74	74	1
0	5	2
27	47	1
57	57	4
16	19	1
31	36	1
63	64	1
21	52	1
28	42	2
8	14	1
64	69	1
26	54	1
65	65	3
55	55	2
30	31	1
54	61	1
52	52	1
52	57	1
51	73	2
62	62	1
63	75	1
61	72	1
36	39	1
38	40	1
35	39	1
41	42	1
51	56	2
36	42	1
17	18	1
48	52	1
4	5	1
7	8	1
