98	98	5
28	28	7
74	74	2
39	39	6
100	100	10
27	28	7
67	81	1
27	29	5
90	90	8
57	88	5
65	65	11
67	85	1
50	50	6
82	82	6
83	83	8
71	71	3
75	75	8
64	64	12
93	94	5
51	51	13
35	35	15
53	54	5
26	26	7
95	95	17
68	68	7
79	85	1
85	85	15
59	87	3
97	99	1
42	42	3
84	87	3
23	23	6
81	82	7
61	61	7
53	53	6
21	25	6
70	72	3
55	55	6
49	49	4
96	96	7
102	103	6
51	52	7
37	37	6
101	101	7
45	90	2
41	42	3
78	78	10
97	97	5
91	91	6
73	73	3
72	73	4
102	102	9
24	24	10
24	25	1
100	104	4
32	32	9
27	40	2
52	52	10
94	94	11
47	47	10
28	38	1
68	69	4
52	54	1
33	33	5
30	40	2
36	36	9
22	22	8
88	88	12
56	56	12
57	57	6
31	34	1
92	99	3
70	70	4
83	86	3
77	78	3
99	100	1
36	37	6
81	81	5
28	35	1
70	74	1
103	103	6
82	89	1
69	69	5
79	79	20
43	60	3
55	56	5
89	90	4
41	44	6
21	23	2
25	44	2
32	61	1
20	20	3
71	72	2
52	53	4
38	38	5
21	21	2
54	54	8
56	57	1
25	106	2
87	87	9
93	93	6
60	60	2
62	63	2
30	30	9
84	84	2
21	22	2
75	76	2
59	59	1
77	77	5
45	46	5
25	25	10
101	102	5
42	44	1
29	29	1
38	39	3
56	79	1
40	70	3
89	89	3
100	102	3
29	34	2
76	78	2
86	87	1
64	65	5
62	68	3
62	66	5
25	30	1
55	57	3
31	67	1
27	27	2
41	41	3
58	58	4
62	62	5
27	90	1
43	44	1
48	48	1
90	91	3
22	31	2
57	107	1
45	45	7
31	31	5
63	63	1
61	62	2
56	80	2
105	105	3
51	72	3
46	46	3
104	104	3
22	78	3
31	80	2
98	99	4
92	97	1
99	99	2
82	94	1
82	98	1
33	34	3
63	88	2
60	61	1
74	88	2
73	92	1
29	30	4
23	76	1
81	83	1
105	106	3
91	92	2
59	65	3
86	89	1
74	75	4
58	59	1
66	66	4
42	48	1
93	106	3
83	84	1
40	45	1
55	60	1
84	85	2
48	89	2
80	81	2
88	99	2
80	80	2
91	98	1
79	80	2
40	40	2
69	70	1
26	56	2
39	40	1
63	95	1
86	88	1
95	98	1
73	96	1
27	36	1
92	94	1
72	72	2
23	77	1
94	104	2
67	83	1
87	88	1
34	34	1
50	66	1
22	70	1
42	43	1
91	96	1
95	103	1
95	99	1
58	60	1
