64	78	2
131	132	3
111	111	7
68	68	6
61	79	1
40	40	2
107	107	6
51	51	15
113	114	1
109	109	12
7	7	5
60	60	4
92	92	2
39	41	2
103	128	1
50	69	2
33	33	9
87	87	7
42	42	7
98	103	2
101	109	2
71	71	2
99	99	4
58	62	3
54	54	10
4	4	10
124	125	3
116	116	12
98	99	1
131	131	8
66	66	8
18	26	2
88	88	9
69	76	2
98	98	3
7	12	1
52	52	5
44	45	4
8	8	5
74	74	3
90	90	5
19	19	3
77	77	8
16	16	2
15	15	7
55	55	3
26	26	5
43	68	2
18	18	6
82	83	4
42	43	5
46	46	10
59	62	6
91	93	2
63	63	6
80	80	9
100	125	1
24	25	5
58	58	1
91	91	5
85	86	5
76	76	4
50	50	6
57	57	9
90	91	3
82	82	4
61	62	1
112	112	4
6	6	7
126	126	4
14	44	5
93	96	1
126	128	8
73	81	1
110	110	5
53	53	14
44	44	9
59	59	4
67	69	2
60	68	2
78	80	5
98	114	1
57	71	2
10	27	2
113	113	8
3	13	1
106	106	15
39	39	6
83	91	2
119	119	8
99	101	5
13	13	11
30	30	12
27	29	4
14	15	3
17	18	1
44	77	1
38	38	4
107	118	1
52	53	1
70	70	7
64	64	8
83	84	8
114	114	6
2	2	3
103	108	6
19	23	1
62	62	8
116	117	4
18	47	2
22	22	7
45	46	2
84	91	2
70	71	1
128	128	3
41	42	1
85	85	11
29	29	9
0	10	2
18	81	3
3	5	4
57	58	2
24	24	6
130	130	7
96	125	1
96	96	5
123	123	6
5	24	1
102	103	4
117	118	5
60	61	2
95	111	2
4	6	1
58	74	1
49	49	10
127	128	2
97	98	3
23	23	5
31	32	1
107	108	2
132	132	4
10	10	6
100	100	6
47	47	6
3	41	3
46	63	2
113	118	1
79	79	2
108	108	5
29	30	4
63	72	2
28	28	9
7	19	2
43	43	9
1	1	4
120	120	11
122	122	6
114	116	3
89	89	3
43	67	2
110	113	1
72	74	4
112	121	1
16	47	2
94	95	6
97	97	8
119	129	3
111	112	1
49	53	1
12	12	10
16	45	1
117	117	3
95	95	4
15	16	1
78	78	4
101	103	4
103	103	7
54	133	1
75	76	3
81	81	4
43	45	2
7	8	2
69	70	1
6	22	1
104	130	1
65	66	1
105	106	3
84	84	1
124	124	4
114	131	3
86	88	2
96	104	3
110	111	4
86	86	5
48	48	4
29	49	1
76	82	1
104	105	4
6	9	3
107	109	1
84	115	1
16	44	2
25	25	5
9	10	1
105	105	1
59	63	1
114	115	2
89	90	2
12	21	1
88	91	1
105	107	1
41	41	5
89	97	2
101	102	1
3	3	1
67	67	3
14	41	4
123	124	3
56	86	1
129	129	3
69	69	5
44	73	2
31	31	3
125	125	4
116	118	2
97	114	2
93	93	3
99	114	1
86	87	4
1	4	2
111	121	1
102	102	7
118	119	1
9	9	3
5	6	2
73	75	2
57	120	1
73	73	1
22	34	1
73	74	3
12	20	3
25	26	3
122	123	1
75	78	1
60	71	4
19	65	1
101	101	1
8	9	1
40	66	2
21	21	1
127	127	4
17	43	1
7	53	3
10	50	1
55	56	1
125	126	1
94	94	3
32	32	4
45	45	5
43	44	1
5	5	2
4	16	1
38	40	1
12	13	1
109	125	2
20	20	1
65	65	1
23	24	4
77	98	3
12	14	1
17	34	1
58	59	3
1	2	1
46	47	3
40	41	1
19	39	1
13	46	1
1	51	1
40	64	1
16	17	2
56	56	3
61	61	2
61	73	1
39	45	1
5	25	1
26	27	1
82	100	1
93	94	2
45	75	1
34	34	2
44	69	1
72	72	2
118	118	3
100	108	1
13	14	3
126	127	2
76	79	1
103	104	2
100	101	3
47	51	1
23	61	1
49	70	2
46	79	1
33	66	1
18	19	1
14	16	1
83	86	1
58	102	2
43	66	1
47	71	1
104	104	2
27	27	2
80	81	3
17	26	1
67	68	2
49	52	1
66	67	1
97	116	1
89	98	1
102	104	2
88	89	1
12	45	1
48	53	1
3	24	1
38	39	1
112	113	2
96	115	2
79	82	1
17	21	1
9	64	1
95	96	1
120	131	2
59	81	1
89	96	2
117	120	1
17	17	2
60	77	2
93	95	1
56	57	1
95	109	1
75	77	1
11	11	1
23	79	1
14	14	1
84	85	1
21	39	1
21	72	1
38	64	1
10	12	1
87	88	1
96	116	1
25	27	1
71	72	1
81	82	1
78	82	1
6	15	1
123	125	1
