107	107	5
3	49	1
41	41	10
137	155	1
43	43	8
149	150	4
104	104	4
34	144	3
26	27	3
88	146	4
139	139	9
92	92	17
77	77	13
104	155	1
14	14	1
55	55	4
136	147	1
126	126	1
88	89	3
8	8	11
19	21	1
128	128	5
105	140	3
39	39	5
101	153	4
148	148	5
81	81	10
97	97	3
48	69	1
5	5	6
0	1	4
124	124	10
94	94	4
33	52	3
99	99	4
82	82	10
21	21	7
40	40	6
10	10	2
42	42	3
90	90	17
65	102	3
63	63	3
11	17	2
45	68	2
13	33	1
146	146	3
3	4	5
52	52	8
55	56	2
140	140	8
47	48	2
44	44	7
67	67	2
109	112	3
126	127	4
28	42	2
65	98	4
83	83	2
68	68	5
0	0	6
27	27	9
113	114	1
135	136	9
51	51	1
7	7	2
105	105	6
100	101	3
116	116	15
98	98	6
109	110	2
77	79	3
112	112	3
105	106	2
33	34	3
20	20	7
114	114	2
87	87	9
108	155	1
29	29	4
141	142	5
110	143	5
107	113	2
11	15	3
107	122	3
32	32	5
110	111	3
32	33	2
26	26	4
102	115	1
135	137	3
77	85	1
12	30	2
138	138	2
74	74	4
24	24	9
108	116	1
5	6	3
80	80	8
12	12	4
142	142	1
115	115	5
134	134	8
88	148	2
122	122	4
72	72	4
137	158	2
47	47	3
9	125	1
43	52	2
34	34	2
151	152	3
8	9	9
78	78	9
7	115	1
91	91	9
16	16	3
27	28	5
45	45	5
1	2	5
131	131	4
2	2	9
13	14	4
120	120	1
34	36	1
16	17	1
33	38	2
137	137	6
85	85	9
50	50	4
128	129	1
85	90	2
19	19	2
93	93	4
147	147	4
46	46	3
15	15	6
45	51	1
21	22	2
27	82	1
7	8	3
95	96	1
63	64	3
28	28	2
100	100	2
18	19	5
43	50	2
8	42	2
6	6	5
129	130	2
6	93	2
77	80	2
19	26	4
93	140	1
35	35	2
122	134	1
57	70	2
96	96	1
122	150	4
6	14	4
32	90	3
127	127	8
121	121	9
70	70	8
9	9	9
141	141	3
38	40	6
69	69	3
88	116	2
7	141	1
86	144	1
130	130	1
95	150	1
123	123	4
135	135	3
124	125	1
105	152	3
83	84	1
154	154	6
115	117	1
7	46	1
6	7	2
111	113	4
114	117	1
139	140	2
124	126	3
110	110	4
57	57	1
49	50	1
66	66	3
93	95	1
6	8	4
135	157	1
90	92	2
108	112	1
86	86	3
136	136	6
76	77	1
79	79	2
25	27	1
125	125	2
87	91	1
2	44	2
37	38	5
25	25	4
38	39	7
123	125	3
82	83	4
125	148	2
100	157	1
20	25	1
128	156	2
93	94	4
144	144	5
73	73	7
38	38	2
24	25	2
36	37	3
64	153	2
97	122	1
31	32	2
20	23	2
81	84	2
23	24	4
101	101	2
103	104	2
48	68	4
116	117	2
2	30	3
95	98	1
153	154	5
78	79	8
131	132	1
2	73	1
50	51	3
155	156	2
35	144	1
111	119	2
118	118	3
68	69	2
112	118	1
85	91	2
98	131	1
150	150	2
37	37	3
81	82	1
4	64	1
31	34	1
20	130	3
56	64	1
151	151	5
152	152	1
106	107	3
66	71	3
11	11	3
111	111	4
75	75	4
18	22	2
35	36	2
31	36	6
132	156	4
109	124	1
97	98	2
31	31	3
35	37	1
46	47	1
106	106	2
26	28	1
15	16	1
41	49	3
1	1	3
129	129	5
65	65	3
144	152	2
156	157	1
117	117	3
57	61	2
64	65	1
17	17	3
54	54	2
116	154	1
11	35	2
23	128	3
112	113	1
129	136	1
151	155	2
50	66	1
123	124	2
49	68	3
21	27	1
155	155	1
33	39	3
14	17	2
11	19	1
155	157	3
132	142	4
30	30	3
40	41	3
97	107	2
150	157	2
75	150	1
102	102	1
98	139	2
153	153	2
133	133	2
158	158	3
57	68	2
33	37	2
10	11	1
3	3	2
45	47	1
53	53	3
72	73	1
107	143	1
132	132	1
75	76	1
136	146	1
32	86	1
9	11	1
107	109	1
0	2	2
106	108	1
157	158	3
12	13	1
71	71	1
7	44	2
56	56	1
99	149	1
16	23	1
89	114	1
54	63	1
48	48	1
130	131	1
127	142	1
108	108	2
115	147	1
131	139	2
141	143	1
45	53	1
30	53	2
61	71	1
14	123	2
124	127	1
108	110	4
14	15	1
69	70	1
157	157	1
25	26	1
156	156	2
31	51	1
131	133	1
30	51	1
4	4	1
47	66	1
20	21	1
27	79	1
95	110	2
30	32	2
29	55	1
151	156	1
114	115	1
121	123	1
118	119	1
86	87	1
64	64	1
8	10	1
113	113	1
