94	94	24
102	102	23
74	76	6
92	104	8
91	92	8
83	83	15
63	65	3
31	31	22
51	51	23
49	52	7
33	34	18
38	40	1
68	68	26
26	26	4
105	105	11
65	93	4
99	99	20
33	35	1
100	107	3
92	92	25
53	54	8
66	66	23
82	86	1
94	95	4
104	104	12
85	85	7
75	75	17
62	64	5
87	87	10
80	81	22
33	33	19
53	53	24
80	80	27
25	41	2
26	29	4
36	39	4
69	72	3
57	57	10
60	62	5
67	68	2
32	32	23
20	21	3
26	28	1
64	64	19
71	72	20
79	91	9
35	35	25
25	25	29
62	62	23
103	104	10
82	82	17
59	59	25
58	58	18
47	49	7
47	47	14
105	106	1
96	96	12
27	27	5
23	23	26
68	69	20
25	40	1
34	35	6
82	83	9
97	98	15
102	103	12
78	79	12
72	76	5
32	33	6
43	78	6
55	56	16
71	71	26
44	44	19
85	89	3
103	103	23
75	76	7
22	22	19
70	72	4
46	46	12
79	79	18
30	30	17
34	34	16
83	84	11
56	57	8
89	90	9
28	29	8
50	51	5
61	62	9
82	90	3
91	91	25
36	36	11
74	77	1
93	93	15
66	70	5
70	74	2
88	88	4
21	21	10
79	90	3
43	44	2
104	105	3
92	93	7
98	99	7
79	82	3
40	40	21
54	54	16
61	61	22
97	99	1
49	49	20
86	87	5
63	63	11
90	90	25
22	23	8
106	106	14
37	39	5
77	78	5
58	59	9
52	54	6
77	77	14
91	93	4
72	73	13
59	60	5
54	57	3
73	73	24
51	52	4
78	78	7
95	99	2
55	55	29
95	96	6
69	69	14
24	24	24
57	59	4
70	73	6
34	36	6
58	60	8
95	95	24
52	52	6
50	50	17
72	72	16
63	67	1
50	75	2
99	106	2
21	24	6
31	32	6
88	89	12
29	30	6
79	81	10
24	64	4
101	101	22
92	94	10
74	74	14
89	96	2
86	90	5
76	76	24
70	70	8
85	90	1
61	76	1
21	22	3
20	20	4
60	60	19
37	37	15
39	39	14
64	65	16
41	41	4
100	102	5
38	38	7
84	84	16
81	81	33
90	91	8
66	67	3
40	41	1
97	97	17
93	101	1
76	77	4
42	43	5
39	50	4
91	95	2
80	82	7
57	58	13
62	66	9
30	34	6
28	38	2
57	60	4
33	36	3
106	107	3
52	58	1
55	57	2
39	40	1
61	66	3
29	41	3
61	65	6
36	40	3
86	86	9
56	56	15
67	67	15
93	94	5
38	48	4
63	70	3
101	106	3
84	86	1
54	58	2
79	94	1
30	32	1
72	75	4
84	85	1
74	75	2
81	90	3
66	68	1
26	27	3
79	80	17
60	61	6
80	95	7
99	100	2
41	44	6
49	51	6
57	66	1
51	77	3
99	101	5
98	106	4
52	53	7
103	105	1
51	59	3
40	59	4
66	73	1
73	75	5
68	75	5
96	97	5
45	45	9
70	81	1
73	74	5
90	94	6
98	98	8
39	57	1
44	45	7
40	42	5
59	61	5
38	43	3
28	28	7
43	43	3
46	47	9
41	42	2
59	62	1
24	25	4
90	95	3
97	107	2
54	62	2
51	67	2
42	42	3
63	64	6
38	49	2
56	80	5
82	95	1
90	93	6
29	29	13
97	101	1
22	24	1
62	63	7
89	89	9
38	39	4
51	76	3
87	93	1
100	101	9
102	104	2
28	31	5
54	55	2
81	82	5
29	38	1
70	78	1
83	90	2
39	51	1
49	50	2
70	77	1
68	72	1
45	79	3
65	66	10
94	96	2
66	72	3
56	60	2
25	38	3
90	92	3
27	28	1
88	90	1
65	65	10
53	56	3
30	31	3
26	38	1
55	62	3
61	63	1
28	30	3
72	77	1
25	26	3
95	97	2
86	94	2
100	100	4
95	98	3
32	36	3
65	71	4
35	52	2
46	67	1
54	60	1
45	46	3
30	44	1
23	51	1
99	102	1
99	107	3
29	36	2
87	88	3
36	37	3
37	38	1
25	37	2
70	75	3
83	85	4
61	75	1
70	93	1
41	59	4
55	101	3
89	91	2
39	43	5
47	48	4
71	75	2
80	100	1
85	86	3
26	36	1
49	58	1
41	57	4
64	80	3
93	96	2
54	76	1
95	106	1
61	69	1
23	52	1
100	105	1
61	68	2
82	94	1
25	36	3
24	38	1
27	29	1
91	96	1
30	33	1
33	59	1
78	80	2
23	24	1
86	88	1
48	51	2
86	93	1
96	98	1
71	78	2
58	64	1
63	66	1
101	102	1
31	90	1
86	91	1
64	81	1
71	73	1
43	50	1
39	42	1
43	46	1
