113	130	2
10	10	10
85	85	5
94	96	1
94	94	4
68	78	2
119	120	1
99	99	7
119	130	3
6	7	4
71	72	5
86	89	2
3	7	2
110	110	1
112	112	8
111	111	10
113	129	2
51	51	11
78	79	3
129	129	1
47	47	4
127	127	10
27	27	1
126	128	3
45	45	6
49	49	7
96	105	5
124	124	9
83	84	4
23	34	1
19	20	5
54	54	3
102	102	2
21	21	5
109	110	4
105	105	8
112	113	2
24	43	1
91	91	4
2	2	13
82	82	4
99	111	2
111	113	8
55	126	1
98	98	7
104	104	4
56	56	5
85	87	2
96	96	3
3	3	6
107	107	7
49	119	2
39	39	2
8	8	10
20	20	3
49	117	1
43	50	2
54	89	2
6	6	4
42	42	6
118	118	9
113	113	7
105	117	1
107	113	2
57	105	1
34	98	4
42	104	3
64	69	5
48	48	11
126	126	10
27	65	5
125	125	3
118	119	4
117	117	5
14	14	1
115	115	14
47	54	5
41	42	1
66	66	8
30	30	3
108	121	1
84	84	4
46	46	5
100	100	9
124	125	1
52	52	2
25	25	10
95	95	8
24	24	10
125	126	2
93	93	2
54	106	1
89	89	4
31	92	1
44	44	3
9	10	10
70	70	2
70	71	1
56	57	4
47	48	5
28	29	2
97	98	9
100	114	1
12	18	2
59	59	4
75	75	8
28	28	4
104	105	2
122	122	4
4	5	3
59	60	4
102	103	1
121	121	4
34	34	2
77	80	1
13	14	1
26	26	6
109	109	6
101	108	2
5	17	2
97	97	9
124	126	2
114	114	3
80	80	3
6	96	4
33	33	2
60	100	3
40	42	4
4	4	2
14	16	1
101	130	2
43	128	3
86	86	3
104	111	4
123	123	6
106	106	4
116	117	6
31	31	2
65	96	2
17	18	3
120	125	2
106	133	2
73	74	4
49	53	1
11	12	4
119	129	1
74	74	1
65	114	3
69	69	6
46	48	2
40	69	1
9	11	4
67	103	2
128	128	2
67	68	3
2	14	2
88	88	4
6	40	2
96	97	5
79	80	6
16	17	2
62	70	1
59	61	1
107	111	2
38	39	4
102	104	1
92	92	1
132	133	1
21	93	1
83	85	2
116	116	1
53	53	3
90	96	2
27	28	1
113	114	2
0	27	1
126	127	1
4	91	1
68	73	4
57	57	5
44	91	3
66	75	1
58	59	1
43	43	4
22	22	3
67	67	7
15	16	1
127	128	1
108	108	2
131	131	3
37	37	1
57	58	6
101	101	1
132	132	2
120	121	4
90	90	1
55	55	2
59	62	1
14	15	1
85	88	5
47	124	1
41	55	1
88	89	1
99	103	1
50	50	4
76	96	1
95	111	3
105	106	1
46	47	1
70	80	1
7	7	2
105	123	1
50	63	1
0	32	1
77	85	1
5	5	2
16	16	1
71	71	4
15	15	2
9	56	1
38	38	4
117	118	1
58	63	1
3	4	1
131	132	1
88	91	2
69	70	1
66	115	1
125	128	1
130	130	1
31	119	3
21	88	2
115	130	1
21	22	1
44	46	1
65	79	1
40	62	2
44	118	2
104	108	2
108	124	1
54	56	1
100	103	1
58	58	1
0	1	1
107	108	1
113	124	1
46	120	1
41	41	3
53	94	2
30	118	1
100	107	1
17	60	2
120	120	2
60	60	1
34	103	2
5	98	2
29	43	1
61	61	2
61	116	2
107	131	2
38	91	1
11	11	2
40	53	1
103	103	2
106	107	4
76	76	1
23	42	1
16	18	1
128	130	1
100	119	1
39	91	1
87	87	1
101	122	1
122	133	1
93	95	1
101	117	1
65	72	1
78	78	1
61	62	1
48	49	1
14	33	1
