111	111	17
156	157	7
83	83	3
8	244	1
35	35	7
97	97	5
110	110	14
234	234	6
154	154	21
158	158	6
153	153	7
69	70	3
200	207	1
117	117	2
27	41	5
118	118	5
244	244	3
19	19	8
71	71	10
206	206	9
164	182	1
112	112	3
159	159	12
77	79	1
220	222	2
27	27	7
4	4	7
57	65	9
64	64	12
222	222	6
57	58	5
167	212	2
52	52	5
11	11	9
157	163	1
3	3	4
91	91	8
88	90	1
156	192	1
191	191	6
155	155	7
113	114	7
76	78	2
152	153	8
208	209	2
236	237	4
46	46	9
245	245	3
212	213	2
8	8	15
7	8	1
181	181	8
201	201	10
37	37	8
189	196	1
208	208	11
2	2	10
34	36	2
80	80	9
222	223	3
175	175	1
161	247	8
233	234	2
194	195	3
229	229	7
41	42	5
74	74	6
145	145	6
233	233	11
152	152	17
93	94	8
227	228	3
156	156	14
180	191	6
202	202	7
238	246	1
237	237	8
215	215	11
160	160	5
0	0	14
71	72	2
219	219	12
212	214	1
109	109	23
175	176	4
213	213	8
188	188	3
54	54	12
55	57	9
93	93	8
7	7	14
232	233	1
159	226	1
146	146	4
177	177	11
35	40	5
41	43	2
23	23	20
5	210	1
101	102	4
29	30	6
119	119	9
94	94	4
71	74	1
81	81	3
162	162	18
49	49	5
204	204	14
42	43	2
214	214	3
75	118	3
54	55	3
5	5	15
0	1	4
193	215	1
186	186	3
53	78	1
195	195	5
164	165	5
28	28	14
47	48	1
44	44	4
47	47	10
62	62	10
180	180	17
12	20	2
48	48	7
179	179	20
15	15	19
244	245	4
150	150	9
17	17	13
36	36	3
172	173	6
100	100	6
184	185	2
193	193	7
89	89	5
221	221	9
168	168	6
221	223	5
236	240	3
169	169	10
160	243	3
173	173	17
95	95	21
235	235	7
26	26	2
224	224	4
197	197	9
166	208	4
200	201	5
154	155	5
196	197	5
215	218	5
50	50	1
211	212	7
15	16	2
113	113	18
21	22	1
65	65	5
8	20	7
183	183	6
25	25	6
46	226	6
9	10	3
4	5	3
214	216	5
97	98	2
23	242	1
39	39	8
203	203	6
96	96	8
9	9	18
51	64	2
43	44	2
77	78	9
61	63	4
78	78	9
113	117	2
1	223	3
151	151	5
225	225	4
248	248	4
95	96	6
31	32	7
116	116	7
25	26	2
230	230	3
216	216	5
20	20	10
217	218	3
66	66	18
13	14	3
98	99	3
30	30	10
56	56	16
55	55	10
172	172	1
16	16	5
63	113	2
49	50	1
189	189	6
236	236	7
22	22	10
165	165	4
37	38	1
151	171	2
207	207	11
170	208	2
59	82	1
192	192	1
177	196	3
69	69	8
232	236	1
220	221	2
175	177	6
241	242	3
115	115	8
21	21	4
211	211	5
223	223	4
185	185	10
221	222	5
75	75	9
88	91	3
199	200	3
241	241	9
157	174	3
184	184	6
43	43	9
88	88	2
234	235	3
38	39	1
174	177	3
14	14	7
39	40	5
92	92	4
20	55	2
163	165	5
72	72	8
190	190	4
111	112	6
110	168	1
225	227	3
10	11	7
82	82	9
180	183	1
94	96	1
18	20	3
91	92	1
83	84	1
169	171	3
16	17	1
195	197	4
111	113	4
75	76	3
50	78	3
176	176	3
108	109	5
12	12	7
196	196	2
211	213	2
6	6	9
212	212	8
145	150	2
90	97	1
24	24	12
58	59	1
184	190	2
31	31	17
167	167	4
20	34	2
44	45	2
157	157	5
15	20	2
17	18	8
171	171	1
200	200	7
68	68	7
53	53	9
12	34	1
163	163	5
243	244	3
146	147	4
161	161	4
205	207	3
32	32	5
246	247	2
214	215	1
171	181	2
114	115	8
224	225	3
166	166	4
11	32	2
57	57	6
71	75	1
247	248	2
78	79	3
42	42	5
29	31	5
113	201	1
164	164	2
204	206	1
4	242	1
211	214	4
69	71	3
98	98	2
41	41	11
44	176	2
218	218	7
153	167	2
114	114	6
60	62	3
112	113	2
2	3	3
226	226	10
167	168	7
40	40	7
107	107	3
84	84	4
158	178	3
7	27	2
246	246	4
221	232	3
58	58	1
14	15	3
22	26	2
199	206	1
120	182	1
187	187	3
8	61	3
6	7	3
242	244	3
29	29	8
63	63	3
187	188	2
72	73	2
48	75	5
235	236	2
88	112	1
99	99	2
55	56	2
51	51	2
38	40	3
201	202	5
170	170	1
206	223	2
159	214	3
148	148	3
30	68	1
213	214	4
1	1	7
160	162	3
1	2	2
38	38	8
12	121	1
153	197	2
32	110	1
218	219	1
165	166	3
102	106	3
85	86	2
70	70	2
57	212	2
34	35	3
70	79	1
77	77	1
166	167	2
226	227	2
243	243	4
29	41	4
238	238	3
178	180	3
79	79	5
76	77	2
64	65	2
205	205	12
195	199	2
216	218	1
60	60	6
153	154	8
215	244	3
198	222	2
161	163	2
18	18	3
188	189	3
45	45	6
48	107	4
206	220	2
170	171	4
61	61	3
240	240	2
174	175	3
242	248	2
158	159	4
236	246	2
147	147	1
66	68	2
167	208	3
86	90	1
174	174	2
76	76	1
105	105	3
182	182	7
19	32	2
87	87	1
217	217	1
190	237	2
210	213	1
108	108	2
225	233	2
225	226	2
115	116	2
24	25	1
115	145	1
236	245	1
152	223	1
37	39	4
51	52	1
171	172	1
6	16	4
162	179	1
103	104	1
102	102	2
18	19	2
84	99	1
166	187	1
53	54	3
95	98	2
56	88	1
157	164	2
24	56	1
0	223	2
86	86	1
198	198	1
212	232	1
240	241	4
247	247	2
3	6	2
110	114	1
167	196	2
90	93	1
69	79	2
173	223	2
235	237	1
203	204	1
167	172	1
3	5	2
104	105	4
151	198	2
177	218	1
210	211	2
159	160	3
30	34	1
1	221	1
50	51	1
7	239	2
158	181	2
155	156	2
85	87	1
4	37	1
73	78	1
168	185	1
212	226	1
11	12	2
187	214	2
193	195	1
160	184	1
47	222	1
84	101	1
71	102	1
230	231	2
26	27	1
15	39	1
33	34	1
220	220	2
176	187	3
10	40	3
164	196	1
33	33	1
198	199	1
3	19	1
199	199	4
231	235	1
104	104	3
68	69	1
222	227	2
36	62	1
176	197	1
30	63	2
9	20	1
68	95	1
227	227	2
247	249	1
27	31	1
6	54	1
98	101	2
168	169	1
59	61	1
16	39	1
156	215	1
197	198	1
187	213	2
177	178	2
232	232	2
114	214	1
117	118	1
194	194	2
30	31	1
54	160	2
245	246	1
219	220	1
229	230	1
10	32	1
24	33	1
193	196	1
164	174	1
110	116	1
223	227	1
22	23	1
52	157	1
209	209	1
58	238	2
89	90	1
185	194	1
95	97	1
44	110	1
67	67	1
85	96	1
47	64	1
87	88	2
183	184	1
229	231	1
156	201	1
241	243	1
63	114	1
83	85	1
116	117	1
