14	14	3
17	17	2
65	65	7
31	32	3
56	56	6
66	116	3
29	67	2
14	16	4
54	54	9
118	127	2
52	52	6
19	20	6
24	25	3
117	117	5
127	127	8
78	78	4
99	108	5
107	108	1
44	44	6
20	20	4
28	67	2
98	100	2
88	88	11
120	120	4
29	29	8
50	50	12
116	118	1
48	48	10
98	98	2
103	126	2
77	77	4
38	39	2
44	118	1
107	107	7
83	83	5
55	55	10
5	5	6
21	77	3
56	100	1
85	105	2
8	8	2
3	3	4
124	124	3
116	116	5
69	69	6
106	106	4
126	133	1
113	113	7
102	102	7
106	107	1
62	62	4
54	55	3
115	115	13
19	34	1
39	66	1
79	103	3
80	80	4
129	129	5
28	28	3
81	81	2
47	89	2
11	117	2
32	32	3
70	71	5
100	101	1
43	43	2
60	60	6
128	128	5
82	82	6
70	70	2
125	130	2
43	82	5
97	104	2
76	76	9
42	42	10
13	13	10
132	132	5
5	11	2
77	79	6
52	53	2
31	132	2
33	33	3
23	23	3
77	78	1
21	22	3
7	7	7
72	74	3
63	63	5
57	57	7
45	131	3
65	66	3
61	62	1
114	114	4
30	30	4
44	85	1
86	86	6
1	1	5
122	122	3
4	15	4
122	123	2
96	97	2
126	127	3
54	85	1
15	15	2
71	71	10
72	72	12
90	90	6
82	87	2
112	112	8
60	61	13
3	15	1
51	51	8
19	22	6
72	73	3
73	73	4
3	18	1
99	99	2
0	1	4
18	82	2
59	60	5
49	49	8
125	132	3
15	21	2
102	104	1
14	32	3
104	125	2
72	75	1
58	58	5
68	69	1
25	25	3
28	54	3
99	103	5
109	109	11
22	22	4
99	100	4
113	129	4
18	18	1
12	12	10
4	4	1
71	95	1
2	2	12
96	96	1
4	42	2
16	16	6
121	121	8
1	20	4
88	101	6
25	34	1
97	97	3
85	85	6
94	95	6
65	67	2
63	64	3
52	76	3
127	128	4
59	59	4
47	47	9
97	98	1
27	27	2
41	41	2
6	6	6
83	84	2
95	95	8
46	53	2
11	11	10
81	86	1
119	120	3
45	45	8
110	110	3
25	29	2
68	102	3
94	94	4
133	133	1
15	16	3
62	63	7
45	46	2
0	0	1
33	42	2
11	124	1
38	86	2
65	123	1
54	97	1
80	81	6
5	107	3
18	99	3
57	64	3
107	116	1
74	74	5
33	108	1
112	120	2
114	127	3
85	88	3
58	59	3
79	104	1
45	117	3
93	93	6
105	105	3
113	114	2
84	84	2
129	130	2
32	127	5
44	74	3
108	108	7
10	10	3
104	104	4
75	75	4
46	46	5
108	117	2
112	113	1
25	111	3
69	88	2
108	113	2
103	104	4
78	79	3
39	56	2
84	133	1
125	125	1
123	123	9
9	9	2
40	40	4
27	28	1
87	87	1
32	62	1
104	105	1
37	41	2
61	61	5
29	30	3
103	103	2
2	6	1
32	61	2
23	24	1
2	13	2
56	65	2
40	41	1
48	75	1
48	55	2
8	13	2
118	118	6
128	129	1
90	101	2
110	120	1
119	126	3
26	26	6
17	18	2
23	25	1
80	82	2
53	53	4
13	55	1
3	17	1
8	15	2
3	16	3
11	12	1
63	87	2
122	130	1
68	78	2
100	129	2
52	111	2
89	90	3
131	131	4
5	15	1
67	68	2
84	85	1
66	66	1
49	51	1
46	104	1
97	99	2
86	101	1
86	87	2
118	119	1
89	89	1
91	91	2
45	75	1
8	10	1
48	120	1
81	82	1
4	5	1
109	117	3
111	113	1
49	50	1
24	24	1
77	114	2
94	99	1
79	90	2
0	106	1
67	67	3
70	97	1
97	113	1
53	123	1
86	88	1
110	112	2
119	131	1
110	124	1
90	91	1
61	129	1
84	102	1
110	111	1
17	51	1
33	34	1
69	72	1
21	21	2
124	125	1
68	68	1
126	126	1
115	117	1
55	98	1
39	79	2
38	40	2
57	122	1
98	99	1
46	75	1
111	111	1
93	95	1
