7	7	6
161	161	5
1	2	2
161	162	2
28	28	6
155	155	6
164	164	8
169	169	4
17	17	6
79	79	3
0	0	8
77	77	2
141	141	4
127	127	2
3	3	3
41	42	1
71	107	1
116	117	4
10	11	8
6	6	10
16	18	5
95	118	2
132	132	2
96	98	6
159	159	4
128	129	4
67	67	10
114	118	2
175	175	5
100	100	6
179	179	10
21	23	1
15	15	4
140	142	2
108	108	6
109	109	9
107	107	8
91	93	4
32	33	7
146	148	1
43	44	3
95	95	5
127	128	1
62	94	3
16	16	5
101	101	7
142	142	10
80	81	6
18	19	4
102	117	2
126	127	3
154	156	3
118	118	8
27	27	17
79	113	2
11	11	9
112	113	3
107	114	1
35	44	2
81	81	3
2	5	6
142	143	1
167	167	2
81	83	3
30	31	4
149	149	10
176	176	4
32	32	4
64	88	2
26	92	3
33	33	15
150	158	1
8	8	10
57	78	3
72	72	9
125	147	1
138	138	10
52	52	6
83	83	2
37	37	7
4	4	8
138	142	1
30	30	10
92	96	2
31	31	2
136	158	2
56	56	6
78	78	1
55	55	5
121	121	2
32	43	1
59	61	2
36	36	10
160	160	3
99	99	6
110	110	5
39	43	3
35	35	3
154	154	4
16	21	4
66	66	3
18	20	2
122	122	5
91	91	4
119	120	2
108	114	4
33	34	7
23	28	2
129	129	1
166	166	4
83	93	2
65	67	4
68	68	2
15	39	3
6	9	2
133	133	6
41	41	4
20	20	1
139	139	6
76	77	3
140	140	7
25	25	6
163	163	4
170	170	3
40	40	5
76	76	2
131	131	5
10	10	15
4	9	2
88	89	3
62	63	3
80	83	2
24	29	4
13	15	2
5	5	2
44	44	2
74	74	4
37	38	2
91	92	4
159	160	2
22	23	2
130	130	3
153	153	2
96	96	1
107	108	1
97	100	1
117	117	2
1	5	2
21	33	1
26	26	1
68	70	1
14	14	4
171	171	4
134	135	1
34	34	1
13	14	3
93	93	3
62	62	4
61	94	3
66	103	2
178	180	2
28	29	4
28	31	1
11	13	2
25	42	2
70	70	2
158	158	8
89	126	2
39	40	3
117	119	1
81	90	2
142	170	3
80	80	4
61	62	3
60	60	1
177	178	6
12	14	2
31	32	2
64	64	3
178	178	1
23	23	6
3	4	4
103	104	1
9	15	3
113	116	1
94	115	1
43	43	3
177	180	1
38	38	1
123	123	2
82	82	2
9	9	6
107	110	2
84	84	1
19	22	1
19	20	4
162	162	3
86	86	2
71	99	1
125	128	1
29	29	6
40	41	1
10	43	4
124	171	3
103	130	1
125	125	2
31	34	1
98	98	1
160	161	1
12	12	2
151	151	3
156	160	3
105	105	2
105	114	1
88	88	2
108	140	4
124	124	1
74	135	2
111	111	1
96	116	3
20	21	4
141	142	1
151	156	2
3	5	1
85	86	1
156	162	1
79	80	1
53	61	1
107	151	2
155	157	1
51	99	1
79	132	1
6	7	2
7	9	2
168	170	2
145	145	1
135	135	2
150	151	1
1	1	5
126	147	2
124	145	2
2	4	1
173	173	4
3	19	1
20	27	2
24	42	1
146	158	2
147	148	1
104	106	1
31	51	2
150	153	1
66	67	1
73	75	1
62	64	1
106	106	2
98	101	2
174	175	1
50	51	2
172	172	2
102	102	1
137	138	3
17	21	1
148	148	1
37	107	1
137	137	3
29	30	3
59	59	1
44	45	1
5	6	1
20	25	1
59	60	1
63	64	1
165	165	1
21	21	2
3	14	2
159	164	1
121	122	1
3	18	1
144	148	1
174	174	1
26	27	1
110	157	2
43	46	1
8	12	1
58	58	1
89	89	1
96	97	1
94	94	2
11	12	1
5	7	1
27	28	1
179	180	1
2	2	1
165	168	3
39	39	1
8	14	1
33	44	1
76	78	1
8	9	1
69	112	1
63	65	1
7	8	1
134	134	1
62	65	1
15	16	1
97	97	1
4	7	1
2	7	1
