61	137	3
141	141	7
116	118	1
62	62	2
26	26	10
35	35	6
8	9	9
122	122	6
23	24	3
126	162	3
36	36	3
6	6	8
55	59	3
149	149	5
155	166	1
179	179	6
94	94	4
5	5	12
29	29	11
152	170	2
137	137	7
43	43	12
129	174	3
87	87	10
11	32	4
40	41	1
41	115	1
108	108	4
158	159	7
38	38	13
50	50	4
103	105	2
32	33	4
167	167	2
61	61	5
12	12	14
25	26	5
52	61	2
9	10	4
45	62	4
6	11	1
53	53	9
116	116	14
84	84	4
26	27	4
42	42	8
93	94	1
5	7	3
51	51	3
98	108	5
18	19	5
41	41	3
30	30	4
105	105	4
3	8	8
81	91	6
56	56	9
155	155	6
92	98	3
2	3	7
44	44	6
176	176	4
75	75	9
12	32	2
81	81	7
145	146	1
79	79	9
2	2	5
125	125	5
30	33	1
36	107	3
104	106	5
2	7	1
80	80	6
16	16	19
1	1	4
52	52	5
145	148	1
24	24	8
133	141	1
140	176	2
164	166	4
10	42	3
160	160	4
11	12	4
3	3	5
99	99	3
91	91	17
10	11	11
163	164	4
147	147	6
63	66	2
28	99	3
33	33	6
4	5	5
43	75	2
121	121	3
131	131	8
168	168	5
0	0	8
138	142	2
97	106	1
37	37	12
64	64	8
137	145	3
29	33	3
101	101	6
19	19	4
165	166	3
19	41	4
9	9	6
110	111	6
60	130	2
83	83	7
66	66	2
102	102	6
3	4	7
4	4	18
23	23	7
103	103	4
53	54	1
160	170	1
165	165	4
28	28	4
50	62	2
120	121	1
25	25	8
128	130	1
1	4	1
117	117	1
56	57	3
8	11	2
4	9	1
20	22	2
62	64	1
166	167	1
155	156	4
67	67	7
14	15	4
28	32	2
98	128	4
18	18	9
126	127	3
16	41	2
52	53	1
178	178	5
55	55	10
153	153	6
162	166	4
6	7	4
55	58	1
24	25	2
8	18	1
116	117	4
31	31	6
14	14	7
92	92	3
88	89	5
92	141	1
141	144	5
5	31	1
168	169	4
1	32	4
91	102	3
60	60	11
51	105	3
114	163	3
45	151	2
7	10	3
143	155	3
171	171	5
115	163	2
88	88	6
33	111	2
32	32	7
105	106	9
114	114	2
61	72	2
54	140	1
150	150	2
152	168	3
44	60	1
24	27	1
121	122	1
90	90	7
118	161	2
83	85	5
163	163	5
97	97	3
60	114	2
8	8	14
154	171	1
44	45	3
7	7	5
119	119	8
143	143	2
107	107	1
15	15	6
137	146	3
62	63	3
174	174	2
118	118	2
123	123	6
144	144	5
63	63	1
168	174	3
13	13	4
166	166	6
16	19	4
7	11	2
90	91	3
136	151	3
83	86	5
55	56	3
132	132	7
17	21	2
145	145	12
6	17	2
146	146	2
83	84	5
24	26	5
109	109	7
11	16	1
21	40	2
74	82	4
32	140	2
97	151	6
19	39	3
17	17	7
82	113	1
51	61	3
4	19	1
95	95	5
20	33	1
106	106	2
81	102	3
161	161	5
27	27	5
8	15	2
87	97	2
163	178	1
115	115	7
76	76	3
33	34	5
150	152	2
141	142	3
37	38	5
71	72	1
66	67	6
172	172	1
112	112	3
80	146	2
162	178	4
169	169	3
53	94	2
133	149	5
22	22	4
136	136	3
2	4	1
131	132	7
89	89	3
29	30	4
150	153	3
156	156	3
102	103	2
106	126	1
99	102	6
110	110	3
2	10	2
142	142	6
66	124	1
50	117	1
100	102	1
20	24	2
30	31	2
26	31	1
31	32	1
8	22	1
53	55	1
65	95	2
93	93	6
173	175	2
133	133	4
107	118	3
61	70	2
6	10	2
123	124	4
154	156	2
90	93	3
104	104	7
157	158	8
157	159	1
113	113	2
23	26	4
20	20	2
147	148	3
34	35	2
140	140	2
54	60	1
73	75	1
42	43	2
4	8	1
108	109	5
142	148	2
7	30	2
14	16	1
87	88	1
29	31	2
66	68	1
160	174	1
57	57	4
169	178	5
72	72	4
157	157	5
80	91	5
11	11	2
26	28	1
158	158	6
36	38	1
83	87	4
128	128	4
152	153	3
159	167	1
17	18	3
68	68	3
152	152	5
22	41	1
11	13	6
45	45	2
42	97	2
150	158	1
12	13	3
99	129	1
139	139	1
162	179	2
71	71	2
177	177	4
96	96	1
24	29	1
142	143	2
145	150	2
124	124	4
129	130	1
98	101	1
101	102	6
103	104	1
67	87	4
10	10	3
129	129	5
4	33	1
21	27	1
73	84	2
78	78	2
74	74	2
30	32	1
8	28	4
138	138	6
98	98	2
27	32	1
175	175	1
151	153	1
107	109	4
100	100	3
78	79	1
170	170	2
151	152	3
123	125	1
160	161	1
126	126	1
21	22	1
170	179	2
31	34	2
87	89	1
9	29	3
130	174	6
159	162	1
79	93	1
121	166	1
54	54	2
27	37	1
3	16	2
7	13	1
50	107	1
57	61	1
136	173	4
59	60	1
20	30	3
28	29	1
51	67	1
173	173	2
65	65	2
46	46	3
127	162	1
15	19	1
124	125	2
161	162	1
121	125	1
39	39	3
130	130	1
21	31	2
36	37	1
91	92	1
39	40	1
119	120	1
159	159	3
132	133	3
77	77	1
5	13	1
33	109	5
180	180	1
156	157	1
58	59	3
10	14	1
172	173	1
57	108	2
84	110	1
120	120	2
29	36	1
92	103	1
13	14	1
104	105	2
111	111	1
15	16	2
43	74	1
135	158	1
81	86	1
2	11	1
55	108	1
18	26	1
134	158	2
116	129	1
16	28	1
133	134	1
99	100	1
86	106	1
34	38	1
97	110	1
152	167	1
60	103	1
34	107	1
130	165	1
59	61	1
25	31	2
163	166	1
46	97	1
19	20	2
34	34	1
82	82	1
33	35	1
90	92	1
67	125	1
22	119	1
11	14	1
91	107	1
80	82	1
111	147	1
42	153	1
156	173	1
8	14	1
136	155	1
68	94	1
115	166	1
88	110	1
118	119	1
60	115	1
128	174	1
16	17	1
16	23	1
8	20	1
100	153	1
76	77	1
22	23	1
0	32	1
135	155	1
