177	177	1
155	155	1
56	118	2
157	157	4
40	43	2
147	147	10
65	66	2
97	97	3
133	137	1
44	47	3
126	126	5
40	40	3
96	97	5
106	107	4
21	21	1
145	148	2
86	90	3
170	170	4
162	163	1
39	39	7
53	55	2
152	152	2
87	87	5
27	27	1
41	66	2
37	40	1
166	177	2
127	128	2
6	6	5
130	132	1
102	102	7
42	43	4
100	101	3
31	33	2
65	65	3
160	162	2
141	141	2
28	28	3
12	64	1
187	187	2
45	45	1
99	104	3
73	73	2
98	103	6
128	129	3
46	46	4
61	63	2
155	156	4
146	146	5
7	8	3
100	100	1
8	70	2
139	139	4
173	173	1
88	103	6
138	138	4
177	179	2
114	150	1
99	99	6
79	79	6
24	24	2
132	133	3
53	100	2
56	56	2
103	103	1
5	8	1
83	103	2
25	25	5
78	78	1
110	113	1
91	92	1
35	36	5
111	111	1
62	70	4
59	59	2
25	80	2
72	72	2
110	157	2
80	103	7
44	44	7
84	84	2
35	35	4
7	92	1
14	14	3
156	156	1
31	31	3
24	29	1
146	147	1
98	98	3
143	143	1
54	54	4
163	163	1
75	75	1
120	120	2
184	184	6
10	10	1
63	64	2
80	80	1
108	187	2
60	60	4
124	124	6
76	76	2
55	55	4
48	74	1
96	96	1
132	190	3
113	130	2
140	140	1
12	65	1
112	112	1
20	20	1
143	144	1
29	29	2
18	18	2
129	130	1
101	101	6
70	70	1
36	36	2
95	96	2
16	17	5
84	85	3
126	127	2
70	73	1
175	176	1
144	147	2
94	95	2
69	136	1
74	76	4
53	53	2
5	5	1
108	108	5
164	164	1
41	48	3
188	188	1
53	149	1
133	157	3
118	118	5
66	125	2
188	190	3
5	21	1
168	180	2
61	61	1
122	122	1
115	115	1
13	14	2
108	189	2
117	117	1
56	57	3
183	183	2
58	81	1
57	75	1
60	62	2
48	48	1
3	3	1
89	89	1
110	110	1
131	132	1
74	88	1
177	178	2
125	130	2
17	17	1
142	142	1
28	29	1
155	182	1
91	91	2
92	93	2
154	154	3
125	125	2
60	63	1
128	128	2
32	66	1
151	151	1
138	143	1
58	58	1
70	105	3
18	20	1
127	127	1
167	167	1
29	30	1
33	33	1
42	47	1
156	157	1
95	95	1
43	43	1
18	28	1
55	57	1
63	63	1
