77	77	5
85	85	1
108	114	3
130	130	2
81	82	4
129	130	2
53	54	1
150	152	3
94	94	4
104	113	1
13	14	1
157	157	11
62	62	2
59	59	2
156	186	1
157	158	5
151	152	3
36	37	9
182	182	3
46	46	5
92	111	1
42	42	4
61	61	7
52	158	3
131	131	5
86	95	7
172	173	3
6	12	1
78	153	1
115	117	4
94	132	2
126	127	3
44	154	3
139	139	1
60	60	3
40	65	2
43	43	10
152	153	4
35	35	6
22	23	2
186	187	1
140	143	3
58	58	8
19	19	7
30	30	3
148	148	3
159	159	4
38	38	10
115	115	6
15	15	5
66	67	2
119	119	2
185	186	4
16	17	2
158	161	5
86	86	3
100	100	10
48	48	1
17	17	2
103	103	12
116	116	6
10	11	2
87	87	4
44	44	5
64	127	2
6	6	4
52	186	3
22	22	6
123	123	6
170	173	2
28	28	3
64	186	3
16	16	3
33	35	1
47	127	4
82	82	5
136	136	7
26	26	4
58	162	4
163	164	2
177	177	2
65	65	8
107	107	1
168	168	4
142	143	8
60	63	1
141	142	1
108	108	4
90	90	4
149	150	2
124	124	6
73	95	1
171	172	3
84	84	2
34	35	7
64	159	1
82	143	6
29	29	6
71	71	9
73	74	2
96	96	10
63	183	3
156	156	6
12	12	4
55	164	3
10	10	12
66	66	6
27	45	6
105	114	1
117	117	7
132	133	4
31	32	2
40	154	2
7	25	2
31	31	3
135	135	1
99	117	1
72	72	2
185	185	3
188	189	2
78	78	5
142	147	2
154	155	4
136	138	1
33	36	3
37	37	8
132	132	1
160	160	5
161	161	4
55	55	2
134	134	3
84	87	1
117	118	3
80	81	3
24	24	2
174	174	3
112	112	5
111	111	4
31	40	3
56	159	1
0	0	1
98	98	4
138	139	6
54	55	3
81	81	4
19	48	2
92	92	7
76	76	7
89	89	5
16	91	1
23	25	2
86	88	2
151	151	5
133	133	8
82	83	2
5	37	3
166	167	3
55	64	2
55	158	3
13	13	3
149	149	6
36	36	2
21	22	4
68	68	6
91	91	8
77	114	1
71	72	1
105	105	2
33	33	2
140	140	1
18	19	1
165	165	1
21	21	3
90	91	1
60	176	1
74	74	7
134	136	1
54	94	4
144	148	4
172	172	1
6	7	2
154	154	5
32	33	2
74	76	3
138	157	3
146	146	5
143	143	2
58	167	1
137	137	6
97	139	3
121	123	3
187	187	2
8	66	2
17	89	1
17	63	4
71	85	1
79	82	2
127	127	4
2	2	4
178	179	4
162	162	3
34	34	1
60	61	2
91	95	2
92	93	1
69	69	3
72	96	2
53	53	4
166	166	3
90	117	7
26	42	1
47	47	1
159	160	3
110	113	2
63	64	1
95	96	2
59	65	2
111	112	3
121	121	2
122	122	1
131	133	3
13	15	1
142	146	3
99	99	5
80	138	4
93	95	2
20	21	1
85	139	1
101	102	3
67	67	1
153	153	2
33	34	2
109	109	1
125	125	6
27	29	1
97	97	4
37	38	2
118	118	4
9	10	2
28	29	2
48	95	2
40	48	3
57	57	7
139	141	2
138	156	1
17	18	3
110	110	3
19	20	5
142	142	3
158	158	2
14	14	2
89	90	2
3	3	4
105	106	2
10	12	2
112	185	3
63	176	1
65	68	1
46	122	1
110	111	1
120	120	1
62	63	1
136	137	1
90	93	1
107	111	2
152	152	2
79	79	4
59	64	1
162	164	1
20	28	4
4	4	3
5	5	2
104	104	2
64	65	1
88	88	1
57	62	1
65	154	2
58	59	2
54	54	5
122	123	2
36	38	1
97	130	3
78	109	1
175	175	1
5	36	1
72	105	4
29	30	1
42	43	1
143	152	1
167	167	1
133	136	1
85	86	1
145	145	1
106	107	1
38	39	1
151	154	1
74	75	1
4	37	2
58	61	1
81	143	1
128	128	2
137	139	2
30	45	5
113	113	1
61	62	1
56	70	1
131	134	2
56	56	1
71	82	1
133	134	1
60	179	1
143	144	1
114	114	1
111	113	1
44	121	1
76	83	1
184	184	1
101	101	1
