112	191	2
176	184	3
27	28	2
71	71	19
77	87	8
221	223	4
214	218	3
49	213	3
93	94	2
158	159	1
196	209	2
99	99	12
170	171	5
159	166	2
5	57	1
172	172	27
102	119	1
85	118	1
68	68	5
243	243	9
209	209	30
50	58	1
240	240	22
191	192	9
59	60	9
60	60	17
216	216	22
181	181	16
9	21	2
29	29	9
193	193	18
182	185	2
152	154	3
194	194	19
217	238	2
211	211	20
112	112	10
59	59	14
50	51	2
189	190	5
35	35	22
86	86	15
23	97	3
110	110	15
230	230	15
100	100	7
164	164	20
72	73	4
247	248	11
222	222	9
194	195	6
118	118	17
84	180	2
43	43	18
36	36	9
208	209	13
116	116	30
31	32	10
61	61	7
159	159	15
111	114	4
223	223	14
226	226	9
33	33	12
156	156	18
231	232	2
210	210	5
62	62	17
51	51	6
168	227	4
6	6	17
197	198	21
200	201	4
225	225	16
155	155	34
85	86	2
232	233	12
55	55	13
149	245	4
81	111	2
182	215	2
15	15	8
180	180	11
210	238	1
38	39	9
9	9	20
166	167	5
158	158	19
202	202	13
37	59	3
61	63	2
170	170	20
239	239	18
42	42	17
48	51	2
175	175	19
110	120	1
63	64	2
157	160	7
200	203	3
95	95	3
163	166	6
4	5	6
205	205	14
197	200	1
43	63	1
241	241	19
203	204	5
189	192	2
44	44	9
83	83	4
198	199	11
56	56	13
59	99	1
5	6	3
232	232	12
201	201	24
30	35	2
48	50	4
216	217	12
168	168	26
24	24	24
62	87	1
84	84	20
226	231	2
214	215	4
229	229	11
242	244	6
5	29	2
113	113	21
153	153	16
114	115	3
108	108	13
236	236	20
212	213	3
17	17	10
179	179	5
12	12	11
186	193	5
85	85	12
150	150	18
213	223	1
240	242	4
152	152	9
231	237	1
32	32	25
19	19	19
217	218	4
222	223	4
14	14	10
115	115	20
157	157	17
178	178	22
191	191	13
9	10	3
22	22	13
19	20	6
213	214	14
207	207	28
163	164	14
105	105	11
161	161	16
88	89	2
4	4	20
204	204	20
74	74	15
167	167	19
88	88	9
219	219	13
168	175	4
175	190	1
44	52	2
54	54	9
167	171	1
165	177	5
244	244	14
192	192	15
219	237	3
87	87	8
171	171	19
165	165	17
238	239	7
95	102	1
208	208	28
102	112	2
171	217	1
229	231	1
181	185	3
238	238	19
221	221	30
102	105	2
235	237	3
7	7	13
25	177	2
183	186	5
8	44	1
83	87	1
85	98	2
64	64	19
70	70	16
8	8	8
240	241	7
104	105	2
163	163	16
96	101	5
21	21	23
236	237	4
83	95	3
214	214	13
89	89	16
166	166	15
16	28	1
57	58	12
67	67	22
176	182	6
151	151	25
177	177	13
58	58	21
6	7	10
119	119	19
52	52	4
146	146	9
71	74	7
79	79	17
41	42	5
91	93	2
106	107	13
109	110	6
241	243	1
169	171	5
82	82	9
183	206	2
215	215	18
187	192	1
92	92	7
107	107	9
188	188	15
115	116	3
212	222	2
242	243	4
31	31	15
166	178	1
79	91	2
79	223	2
67	99	2
63	63	26
75	75	14
23	25	4
50	50	11
91	118	7
237	237	17
1	1	3
10	10	8
84	90	1
114	118	1
222	226	2
6	35	5
77	77	12
186	214	5
203	203	14
185	186	10
72	77	2
91	92	3
90	173	3
65	66	9
87	118	3
109	109	12
183	183	12
108	111	4
92	117	2
14	15	5
167	168	3
217	217	9
169	169	27
96	98	7
173	173	16
47	49	4
104	104	15
175	182	2
98	98	5
27	27	17
69	69	12
227	227	8
189	189	4
237	238	9
230	231	4
90	90	17
69	75	3
115	119	8
181	184	5
78	79	5
219	246	2
110	218	1
184	217	1
184	185	8
173	174	4
20	20	10
111	115	1
166	170	4
167	172	1
60	62	4
20	89	1
246	246	28
150	172	2
34	37	4
154	165	2
102	102	13
80	98	2
42	43	6
160	160	21
233	233	12
111	111	18
66	66	2
72	74	4
225	226	3
4	34	3
211	214	2
94	94	8
4	19	1
196	197	6
167	174	5
75	86	2
64	88	1
181	182	7
21	24	1
190	190	19
220	220	10
106	106	12
26	26	14
56	57	6
53	53	6
185	185	11
70	89	4
48	48	10
83	86	3
245	246	6
185	193	2
145	145	4
161	206	4
104	108	1
114	177	2
242	242	17
181	186	1
178	206	2
234	234	12
176	177	10
184	184	12
152	160	1
175	176	13
67	68	3
13	14	5
65	65	7
186	186	14
35	75	1
46	46	8
235	236	7
239	241	4
36	38	2
98	109	5
165	211	2
206	212	1
100	101	1
55	57	5
224	224	6
198	211	2
57	57	7
182	237	4
112	238	5
177	179	3
38	38	8
160	181	1
22	36	2
198	198	14
113	114	7
49	50	8
187	187	11
209	213	3
147	147	7
64	242	5
80	80	4
37	37	14
174	187	1
114	114	8
231	231	10
111	116	2
86	118	4
97	98	5
101	102	6
199	199	12
29	30	6
91	95	1
152	159	1
212	217	3
46	55	2
52	114	1
15	18	1
212	237	1
24	25	4
93	93	6
224	247	1
162	163	6
190	205	2
212	246	1
30	31	3
19	35	1
181	192	1
18	29	1
49	72	2
76	83	3
159	160	8
93	202	1
218	219	3
57	61	3
232	245	4
172	182	3
65	71	1
239	240	4
218	241	1
162	162	14
74	75	1
171	172	7
113	157	1
182	182	17
30	30	8
105	107	3
17	22	1
152	153	5
158	188	2
234	235	5
159	164	3
111	148	1
47	47	11
176	176	24
173	198	3
249	249	2
167	207	1
1	6	3
40	57	2
229	230	10
175	188	3
10	11	2
45	45	10
49	49	4
67	69	2
16	16	8
154	154	10
192	193	1
226	227	12
67	87	2
19	60	3
227	228	1
70	85	1
76	76	6
120	120	8
245	245	14
12	39	1
169	170	7
77	82	3
193	205	2
61	62	6
159	165	2
22	26	3
6	21	1
223	224	4
108	237	1
190	191	1
121	121	3
247	247	5
186	187	5
169	180	1
215	239	3
23	23	14
195	197	2
234	237	1
241	242	4
171	187	3
165	170	2
170	175	7
195	195	5
13	15	1
16	32	1
64	108	1
76	77	5
217	236	1
64	65	7
7	37	3
196	196	4
150	183	2
37	39	1
196	210	3
117	117	13
163	181	3
154	228	1
147	152	4
237	239	5
113	116	2
56	60	3
186	190	3
188	191	2
53	58	2
165	180	2
62	91	1
25	25	9
150	156	8
109	227	1
88	203	1
223	225	1
87	88	5
48	70	2
187	189	5
213	213	10
176	216	2
212	212	21
91	91	8
112	118	1
119	120	5
155	156	10
79	92	3
11	11	9
181	216	3
92	110	1
200	200	9
160	161	1
99	108	2
5	19	3
235	235	9
183	193	1
188	192	1
168	169	5
7	8	6
80	81	2
192	194	4
212	228	2
103	103	10
11	15	1
165	167	5
28	28	4
153	175	3
174	175	4
18	18	8
93	112	2
208	214	1
118	241	3
84	121	3
170	192	4
75	82	2
171	173	4
213	241	3
188	190	1
2	3	4
160	169	7
39	40	3
208	215	1
28	63	1
78	80	3
21	204	4
52	53	9
52	63	4
163	177	1
215	238	3
21	22	2
199	200	12
22	45	1
80	113	1
107	237	2
172	173	6
166	179	1
218	218	11
222	224	1
41	43	10
38	65	1
197	197	6
72	90	1
184	208	4
64	102	2
38	191	1
68	98	2
205	206	1
105	109	1
32	33	3
8	10	1
161	162	1
111	245	1
39	39	9
149	150	5
196	213	3
155	207	4
99	106	2
185	192	2
117	118	5
174	198	2
37	89	1
86	119	1
58	88	3
161	207	2
184	198	1
11	231	2
120	245	1
68	85	1
118	119	2
215	216	2
6	36	4
66	67	2
49	89	1
94	120	1
73	82	1
67	221	1
174	174	3
106	119	1
78	78	7
193	194	3
101	101	11
221	222	7
149	149	4
95	119	5
196	208	2
48	49	6
184	186	1
62	65	2
96	96	4
102	107	1
84	85	3
98	112	1
41	41	11
165	181	1
97	97	3
172	174	2
153	163	2
7	238	2
189	196	1
83	99	1
101	233	1
170	172	1
47	232	1
2	2	4
71	73	3
238	241	3
96	103	3
180	183	2
14	18	1
198	205	4
34	48	2
174	225	1
20	21	2
50	75	2
180	182	2
210	214	3
165	208	2
207	208	5
144	144	3
98	99	2
215	218	1
240	247	3
66	68	1
2	5	1
73	73	4
219	220	2
220	226	1
159	190	2
81	82	3
182	184	3
225	247	3
160	180	4
65	86	1
178	180	5
149	179	2
145	157	1
54	56	2
49	76	2
156	157	2
53	55	1
81	81	5
159	179	3
163	195	1
164	168	1
213	215	3
66	90	3
172	186	1
3	3	4
9	31	2
79	97	1
217	221	3
94	95	4
206	207	7
194	227	2
190	192	4
146	147	4
14	228	1
183	184	4
60	74	1
97	99	2
110	111	6
4	14	3
54	90	1
101	107	2
158	182	3
73	84	2
168	233	1
30	49	1
111	112	2
7	9	2
167	197	2
34	38	1
102	120	3
239	242	2
70	71	3
215	217	6
29	48	1
17	19	3
13	13	2
231	234	4
12	14	4
101	224	2
73	83	1
57	88	1
158	166	2
206	206	2
3	4	2
169	206	2
8	203	2
6	38	2
22	28	1
233	234	1
39	45	3
97	104	5
248	248	4
63	67	1
211	229	1
76	172	1
64	67	2
194	196	1
153	154	6
174	191	2
40	40	6
8	9	3
40	59	5
202	212	2
3	5	2
174	176	1
96	97	9
164	165	1
110	114	7
211	216	1
53	54	3
161	179	1
157	158	3
211	212	2
5	18	1
73	74	4
182	183	3
166	171	1
178	231	2
183	204	1
57	214	1
96	104	3
219	225	2
63	66	1
69	71	4
228	228	5
107	119	3
105	106	4
2	12	2
34	34	4
193	195	4
177	178	1
94	112	2
217	245	2
77	79	2
82	83	2
203	205	1
154	162	2
101	231	1
39	65	2
20	58	2
164	167	1
71	75	1
75	76	1
18	34	2
76	120	3
35	58	2
2	18	1
188	189	1
108	109	2
232	247	2
177	237	1
118	177	2
154	235	6
10	22	1
69	74	4
154	155	1
110	217	2
119	147	1
210	211	2
202	204	1
163	167	2
170	188	3
163	197	1
96	100	1
212	219	1
48	58	1
38	47	1
55	56	5
162	189	1
10	93	1
104	116	1
232	241	2
105	112	1
179	182	1
46	47	1
221	246	3
175	178	2
172	193	1
70	72	1
150	226	1
52	55	3
95	109	1
180	196	3
58	60	1
90	91	1
61	90	2
56	62	2
217	219	1
179	181	5
7	21	1
33	34	2
169	211	3
187	188	4
84	86	2
203	206	1
110	238	1
66	71	3
76	91	3
164	195	1
39	77	2
207	212	1
146	160	1
213	232	1
245	247	4
183	208	1
210	216	1
19	22	1
88	91	2
28	32	4
118	120	1
109	188	1
165	176	1
22	23	3
115	118	2
163	182	2
180	190	1
195	203	1
115	117	1
192	195	2
213	240	4
112	236	2
102	103	2
170	196	2
157	159	1
114	178	3
104	112	3
75	233	2
111	246	1
91	119	1
180	193	4
79	82	1
5	12	1
72	72	2
10	27	3
98	111	1
173	186	1
160	242	1
112	113	3
112	240	2
87	93	1
150	151	1
5	245	1
23	202	1
176	178	1
76	79	2
37	38	2
165	194	1
226	228	2
66	224	1
194	197	1
166	173	1
95	96	1
151	153	1
198	212	1
180	181	2
72	87	1
81	91	1
237	242	4
118	236	1
51	52	2
48	53	1
12	38	1
71	72	2
90	222	2
169	175	2
215	222	1
183	198	1
236	246	2
95	98	3
229	244	2
11	12	3
233	241	1
20	34	1
150	173	1
168	208	1
45	46	2
214	237	2
201	203	1
23	26	1
244	245	1
156	160	1
110	153	1
144	145	1
62	90	1
31	33	1
14	49	1
237	248	3
95	118	1
44	45	1
239	244	2
218	236	1
177	195	1
18	20	1
105	108	1
90	98	1
96	119	1
62	112	1
198	202	1
68	69	1
180	225	1
107	112	1
34	35	1
8	41	2
198	200	1
154	156	1
29	32	2
197	229	1
159	188	1
92	97	2
224	241	1
120	242	1
171	184	1
198	203	2
67	222	1
171	216	1
62	63	1
7	237	2
190	196	1
213	237	1
238	242	1
221	224	1
169	177	1
151	155	1
16	58	1
214	233	2
39	59	1
168	189	1
77	174	1
41	44	2
213	224	2
7	38	1
153	160	2
9	11	2
71	91	1
181	187	1
20	22	1
6	20	2
2	7	1
185	191	1
21	56	1
39	170	1
38	244	1
69	98	1
17	33	1
215	240	1
47	51	1
86	89	1
177	191	1
168	172	1
54	55	1
40	47	1
101	103	3
168	209	1
216	238	1
150	155	1
104	110	1
26	27	1
21	46	1
4	12	1
30	48	1
154	227	1
173	203	1
58	59	2
5	34	1
181	190	1
114	116	1
41	79	2
224	225	1
178	179	2
79	80	1
71	85	1
159	168	2
3	19	1
71	76	1
156	159	1
64	66	1
242	248	1
68	70	2
17	32	1
185	198	1
172	175	1
163	170	1
179	191	1
61	73	1
88	119	1
28	33	1
193	227	2
92	94	1
168	171	1
216	237	1
200	208	1
66	153	1
177	188	1
58	87	1
53	115	1
184	194	1
40	41	1
161	164	1
109	115	1
49	69	1
47	233	1
230	234	1
67	98	1
154	163	1
103	112	1
59	62	1
209	214	1
66	73	1
35	36	1
78	92	1
169	192	1
197	202	1
186	205	1
205	207	1
169	207	1
146	176	1
165	175	1
96	198	1
44	57	1
29	31	1
84	87	1
