134	134	12
82	82	8
18	78	1
86	138	2
88	90	2
77	79	1
17	17	3
105	121	1
112	112	5
64	65	2
90	90	4
78	78	4
27	27	2
132	132	4
120	120	6
22	29	2
130	130	8
100	100	10
102	102	7
16	16	5
134	138	3
129	137	4
42	42	6
1	2	2
121	125	5
29	33	1
113	113	4
118	123	1
51	51	2
21	21	7
73	74	3
18	18	4
97	97	6
69	87	1
5	5	6
114	116	4
83	83	4
33	72	3
34	106	2
66	134	3
117	119	1
142	143	2
74	74	4
0	25	3
111	111	5
117	117	11
140	140	9
52	52	6
37	37	8
137	138	7
27	28	4
123	123	6
121	121	10
135	135	3
20	20	3
37	141	3
38	38	4
139	139	9
20	64	2
146	146	3
129	130	4
98	98	9
69	139	1
79	80	4
17	125	4
143	144	8
2	3	4
5	31	2
11	19	2
54	54	6
35	106	1
101	102	1
133	143	1
88	132	2
96	106	4
129	129	4
127	128	7
29	29	5
4	6	2
0	21	2
95	97	2
2	34	1
135	136	4
28	28	6
30	60	1
42	67	1
48	49	1
119	123	1
68	72	2
60	60	2
84	138	3
119	119	2
53	53	1
62	63	3
139	140	2
128	142	4
0	0	1
74	75	1
52	88	1
80	80	6
89	89	4
128	128	5
106	106	4
118	119	4
34	35	2
68	68	3
103	103	4
145	145	3
10	131	2
92	134	2
125	125	4
21	64	2
141	141	1
87	91	7
41	41	5
99	99	3
63	63	4
39	39	12
55	56	3
84	84	5
9	9	1
88	88	1
15	15	5
118	118	3
23	23	1
119	132	2
33	34	6
101	101	2
25	25	2
109	110	1
19	19	4
104	121	6
133	133	4
61	61	2
120	121	1
93	94	5
42	43	2
1	36	1
89	141	2
76	77	6
125	126	1
25	142	1
124	124	3
104	104	1
5	120	1
43	70	3
108	108	4
70	72	1
131	131	3
67	67	4
50	129	3
72	104	2
62	125	2
58	85	1
1	22	2
58	60	2
59	60	1
50	50	2
2	2	2
6	6	4
96	103	1
65	65	1
21	69	4
105	105	4
10	20	4
19	22	2
20	75	1
13	13	4
99	107	2
52	129	1
51	72	1
14	14	5
83	84	2
142	142	3
110	110	2
66	67	4
48	48	3
109	109	2
104	105	1
66	69	2
98	112	3
81	81	8
96	96	3
49	49	4
134	143	2
71	71	3
143	143	3
127	127	5
0	11	1
48	89	1
50	72	1
59	61	2
85	85	1
26	42	3
28	79	1
132	133	2
95	95	1
1	1	8
89	143	1
52	62	2
116	117	2
127	131	3
64	64	3
104	122	1
4	5	3
36	106	3
123	124	1
66	133	1
11	11	3
28	29	1
22	22	6
60	61	1
108	111	5
144	144	5
88	126	1
24	25	2
94	94	2
93	123	1
103	104	1
62	62	1
17	19	1
137	137	2
47	47	2
1	40	1
96	97	1
118	121	1
107	107	5
69	69	2
42	141	1
59	62	1
10	14	1
123	125	1
13	14	1
32	32	3
126	126	1
30	30	1
87	88	1
138	138	2
134	135	1
86	86	3
3	5	1
56	56	3
125	133	2
14	20	1
64	124	1
77	77	2
40	41	1
51	52	1
17	18	1
108	123	1
36	36	3
136	136	3
103	121	2
113	128	1
21	22	1
98	140	1
14	16	1
119	120	1
2	5	1
25	26	1
55	55	2
11	26	1
105	110	1
89	144	1
133	134	1
2	13	1
34	41	1
102	103	1
97	98	1
43	43	1
13	97	1
123	139	1
133	138	1
84	85	1
122	122	3
10	21	1
37	39	1
60	75	1
91	91	1
120	131	1
75	75	1
56	85	1
11	36	1
76	76	1
15	132	1
115	125	1
50	70	1
94	105	1
26	26	1
92	92	1
12	61	1
20	63	1
36	37	1
125	128	1
127	133	1
26	27	1
49	75	1
