123	165	4
54	54	7
150	150	10
94	95	7
143	158	2
114	126	2
113	113	15
135	135	13
76	116	5
96	97	2
176	176	11
5	6	3
185	190	1
45	47	3
127	128	11
153	153	12
40	41	5
154	161	3
34	34	17
40	40	18
152	152	5
120	122	4
161	187	3
22	40	2
167	193	8
181	181	5
177	178	7
11	11	10
189	189	4
61	61	7
194	194	11
103	103	25
50	50	7
78	79	2
16	16	3
130	130	14
48	48	14
173	175	8
24	24	10
126	127	7
126	126	24
146	146	1
123	147	2
127	127	6
192	192	14
19	58	5
88	130	4
119	119	7
102	102	16
135	137	2
161	180	2
149	149	26
33	33	12
168	168	5
26	26	17
169	190	4
1	1	6
9	9	18
142	143	2
63	63	4
114	114	21
25	35	5
19	19	9
118	118	8
34	35	8
27	27	2
25	25	8
50	54	5
5	72	3
51	51	11
5	5	9
141	141	10
20	21	4
43	43	9
151	151	18
13	15	1
99	99	6
24	130	6
179	186	2
45	45	9
144	144	2
43	45	2
155	156	8
0	0	3
185	186	2
191	191	5
10	11	7
190	190	12
124	125	2
168	192	4
182	182	11
15	16	8
101	101	3
166	166	6
64	65	6
20	20	14
37	38	4
111	111	8
176	177	6
192	193	12
135	149	2
112	112	10
176	178	1
66	70	3
5	18	5
49	58	1
58	58	10
147	147	20
168	169	6
106	125	1
80	80	7
67	67	14
86	87	8
52	52	14
21	21	12
1	56	2
163	164	7
133	135	4
77	77	4
174	175	8
28	29	6
13	13	6
42	42	2
60	61	1
94	94	10
156	156	11
104	105	7
169	192	5
86	86	9
30	30	7
173	173	9
3	3	3
140	140	10
7	51	2
113	157	2
81	81	4
154	176	3
37	37	7
27	35	4
138	139	8
133	133	11
184	184	7
47	82	1
169	169	4
15	15	6
178	178	3
106	188	1
158	180	2
149	160	3
145	169	2
150	189	1
125	125	7
182	183	5
183	183	12
59	60	5
106	106	11
107	111	8
16	27	5
120	120	4
165	166	6
167	181	1
155	155	11
57	57	9
179	179	12
146	147	7
104	104	14
44	44	9
37	123	1
64	66	6
65	65	5
74	74	8
186	186	11
108	108	9
22	76	2
83	83	6
70	71	1
39	89	2
185	188	1
160	160	10
163	163	15
12	15	6
82	82	14
163	166	2
10	10	6
55	55	5
164	164	9
171	190	2
23	100	4
171	171	11
109	161	1
15	182	5
44	46	2
106	114	2
88	88	9
24	63	4
138	138	15
10	17	3
100	101	4
28	28	7
70	70	12
158	158	6
22	41	4
56	56	14
23	23	10
160	185	3
84	84	3
197	197	9
27	29	1
154	154	7
175	176	9
112	113	2
7	7	10
170	172	5
16	17	2
123	123	5
134	144	2
54	149	1
166	188	3
157	157	6
44	45	2
136	136	7
14	14	11
113	146	1
6	33	1
133	160	1
41	42	9
35	35	4
148	148	11
21	56	1
36	130	1
115	115	5
12	54	4
184	193	4
89	89	1
164	165	1
3	71	2
172	172	13
6	8	3
131	135	2
64	64	10
8	69	2
172	173	6
161	161	8
128	128	5
23	33	1
10	52	1
181	182	6
111	112	7
22	23	2
73	74	5
194	195	6
152	153	10
29	30	3
99	145	4
161	166	1
57	72	1
134	134	7
68	68	8
157	158	7
98	98	5
131	131	4
188	189	2
2	2	5
133	134	5
47	50	4
49	50	5
9	56	6
105	105	7
193	193	15
63	64	1
42	121	4
127	135	5
151	152	3
53	57	2
4	4	10
12	12	11
78	78	8
187	188	6
189	195	1
101	142	1
52	53	3
37	124	3
4	8	2
143	143	8
51	60	1
33	34	2
149	188	2
5	57	2
38	42	1
37	57	3
106	109	2
24	25	4
164	178	3
38	46	4
3	4	2
159	159	4
85	85	2
146	159	3
131	132	6
57	66	1
109	111	1
116	117	7
184	186	2
85	87	4
39	39	6
2	4	1
57	58	2
32	32	2
88	89	6
5	87	3
38	45	6
174	174	4
165	165	9
30	31	3
187	187	12
106	161	2
9	50	4
8	8	5
122	122	11
18	18	4
82	83	1
100	100	6
168	174	3
106	107	3
155	177	1
79	80	2
18	82	4
132	149	3
57	81	1
166	169	2
168	191	1
135	143	5
31	113	4
36	36	3
103	104	5
121	122	4
145	164	2
186	187	1
139	140	6
47	47	10
139	139	4
127	138	1
110	111	8
38	39	3
101	102	3
106	135	5
49	49	4
25	63	1
132	139	2
101	114	5
34	131	1
184	185	2
93	152	2
107	108	3
90	90	1
170	170	13
82	84	2
196	196	4
9	55	5
29	29	3
22	25	2
21	22	2
17	17	7
105	106	6
167	167	4
152	162	5
96	96	4
25	99	1
41	113	1
37	88	1
145	160	1
48	171	3
53	53	8
2	64	1
142	158	1
175	192	3
117	117	3
4	58	5
6	152	1
6	62	2
62	64	4
51	79	3
180	180	4
12	32	2
110	110	8
62	62	7
59	64	1
41	41	3
97	97	5
73	73	1
143	160	2
181	192	2
116	116	7
193	194	4
84	85	2
177	177	10
41	76	2
147	186	2
2	25	5
98	159	4
99	147	1
189	191	3
161	188	5
150	151	3
85	86	1
31	31	8
122	152	1
17	54	1
4	18	1
7	63	4
38	48	3
56	156	5
72	72	2
94	161	2
171	176	2
87	87	5
167	168	4
15	177	3
151	153	1
159	180	2
93	93	4
148	187	2
10	13	2
161	164	6
188	188	3
167	191	1
56	72	3
34	36	2
69	69	5
23	24	3
155	167	1
39	79	3
183	184	4
14	15	1
37	43	2
59	59	10
115	154	1
107	107	5
71	71	5
157	192	3
22	77	1
179	190	2
154	155	1
170	171	4
20	77	1
6	6	9
7	151	2
45	148	2
134	147	1
131	143	2
105	107	2
7	21	2
195	195	6
22	22	4
155	160	2
137	137	5
109	110	3
45	151	3
101	146	2
39	42	4
12	13	1
2	3	3
167	177	2
10	12	6
165	180	4
51	56	3
71	72	1
129	130	1
177	194	1
67	68	5
190	191	4
110	120	2
11	15	1
53	56	1
9	16	2
17	18	3
179	197	1
30	51	1
159	160	1
184	187	2
121	121	5
15	37	1
134	136	2
145	145	4
143	144	2
150	154	1
129	129	4
161	162	2
41	119	1
124	124	9
65	66	1
119	121	1
154	173	1
21	105	3
7	20	1
9	58	1
28	30	5
175	175	3
20	85	4
117	155	2
159	161	3
50	75	1
178	193	2
185	185	6
38	57	1
154	156	1
3	19	3
61	63	1
76	79	4
148	149	3
130	131	1
56	81	1
34	59	1
111	119	3
59	61	2
19	35	2
132	135	1
22	99	2
182	195	2
106	164	2
46	51	5
159	181	2
32	161	1
3	26	3
39	78	1
172	179	1
20	131	4
36	37	2
80	86	3
35	36	1
54	55	3
66	69	2
26	42	2
36	131	3
162	188	2
16	54	3
57	64	2
98	99	2
18	35	1
18	19	3
15	35	3
96	115	2
177	185	1
0	12	2
26	27	3
22	28	3
160	161	3
95	95	3
25	28	1
33	42	2
7	80	4
34	37	1
40	42	2
102	123	1
61	62	3
19	20	1
153	157	1
1	2	1
51	123	1
53	54	3
83	84	2
39	44	3
71	179	3
101	119	2
134	146	1
9	18	1
116	159	1
20	55	2
130	132	1
162	162	5
164	166	1
120	121	6
108	112	1
135	136	1
109	109	1
107	110	1
166	190	1
76	76	3
30	162	4
167	172	2
47	149	1
140	156	1
119	120	1
76	80	1
170	191	2
0	17	1
100	133	1
5	56	1
161	184	1
42	76	1
98	106	1
15	17	1
153	170	1
173	174	3
111	185	1
108	109	2
107	109	1
9	57	1
89	90	1
101	144	1
149	151	3
13	20	1
137	140	3
117	118	1
9	78	1
170	178	1
119	152	1
113	114	2
179	180	1
103	142	1
105	126	1
154	158	1
146	161	3
41	102	1
116	130	1
13	31	2
69	70	1
101	113	1
21	76	1
98	101	1
112	161	1
169	172	1
178	191	2
39	88	1
150	168	1
49	128	1
107	155	1
38	44	1
156	161	1
5	51	2
182	193	3
133	139	5
93	97	2
13	14	1
4	72	1
13	19	1
159	174	1
38	38	1
153	174	2
103	105	2
117	153	1
6	9	1
79	79	2
162	164	2
186	188	1
106	132	2
116	118	2
175	181	1
95	96	2
151	154	2
73	80	1
106	111	2
164	180	2
163	167	1
20	35	2
94	158	1
103	106	1
179	182	1
177	193	1
153	154	1
60	64	1
60	60	2
180	186	1
53	82	1
36	100	1
38	130	1
58	66	1
142	142	1
174	177	1
105	176	1
40	44	1
31	163	1
43	48	1
102	103	1
189	190	2
25	43	1
20	56	1
136	137	1
95	97	1
158	159	1
26	43	1
50	74	1
66	67	1
178	181	1
44	48	1
147	148	1
125	136	1
25	71	1
158	179	1
24	99	1
180	189	1
47	49	1
142	160	1
22	195	1
