48	48	5
0	2	3
100	101	3
11	14	3
63	63	8
65	68	1
95	122	2
66	66	8
22	22	11
60	60	4
98	98	7
92	92	20
61	61	16
3	3	5
124	124	15
109	111	3
11	11	9
109	132	5
10	11	7
91	116	5
68	68	24
121	128	2
133	133	5
20	47	7
131	133	8
44	44	7
32	32	8
36	36	15
97	97	7
58	62	2
28	30	1
72	72	10
74	75	2
75	75	20
129	129	8
77	78	10
105	106	3
115	115	5
11	50	1
71	71	10
73	73	4
104	104	11
54	56	5
8	9	1
77	77	11
100	112	5
116	133	2
88	88	17
13	15	9
25	25	5
74	74	8
110	111	1
52	53	7
122	123	6
113	113	17
116	117	8
84	84	9
111	111	8
89	90	2
33	34	7
25	53	3
70	70	11
107	107	4
118	118	6
23	26	3
7	8	2
80	80	11
111	131	3
121	121	5
27	63	2
54	54	9
130	133	2
15	15	17
34	38	2
118	119	1
103	103	20
100	118	1
46	60	4
64	64	5
4	4	6
50	50	7
128	128	15
87	92	1
26	65	5
65	106	6
99	99	9
82	92	3
43	43	11
132	132	6
4	5	2
108	110	2
127	128	6
87	87	10
108	131	3
23	53	1
95	100	2
67	67	4
106	107	10
93	111	2
45	46	2
29	30	1
2	12	2
71	72	3
77	102	3
83	83	14
53	54	3
15	17	3
90	90	11
101	112	4
134	134	16
9	11	3
100	130	2
13	13	8
78	78	8
119	119	9
91	115	9
121	131	3
114	116	2
78	79	4
69	70	3
131	131	13
109	110	3
5	5	2
12	12	5
30	30	2
60	66	5
14	15	1
1	2	5
126	126	6
3	75	1
57	57	6
56	57	2
128	131	2
114	115	2
117	117	4
106	106	5
87	88	8
28	28	5
18	18	3
27	27	4
86	86	11
53	53	19
125	125	10
109	109	7
21	21	5
61	78	1
96	97	3
79	79	31
94	94	6
112	112	5
113	134	2
133	134	3
96	96	11
33	75	6
29	70	2
108	108	6
26	68	2
80	128	6
110	110	9
81	86	3
102	102	8
76	76	19
100	102	2
98	120	2
24	24	6
100	111	3
119	120	6
52	52	9
89	89	6
53	62	5
62	64	4
31	32	2
98	99	6
59	59	16
19	20	6
69	69	10
95	95	5
44	45	2
68	129	4
26	27	1
109	129	1
55	68	4
93	93	7
131	132	2
109	122	1
64	67	1
84	85	6
116	116	1
111	126	3
6	6	15
97	123	5
19	19	6
29	29	1
78	102	1
123	123	5
95	128	2
6	19	3
106	123	2
7	13	1
101	101	4
91	91	7
114	114	6
97	98	2
88	89	5
62	77	2
33	33	4
18	21	3
8	8	6
89	93	1
81	81	6
0	0	5
58	67	2
127	134	2
99	100	12
57	60	2
130	130	6
130	131	3
72	94	3
93	94	6
10	10	7
26	26	10
28	48	1
127	127	9
112	113	2
108	123	4
23	23	2
27	28	2
107	108	3
108	129	1
97	99	1
9	9	4
58	58	4
82	82	12
99	127	2
56	56	5
105	105	4
132	133	2
65	65	3
30	32	2
34	34	6
97	129	1
34	35	3
66	67	6
54	84	1
82	88	3
54	55	2
132	135	4
32	33	2
98	119	2
31	31	4
55	61	1
17	17	1
122	124	4
55	56	2
67	69	1
120	120	7
64	65	4
3	4	8
83	84	1
70	72	2
58	59	3
82	83	3
18	24	1
61	65	2
45	45	5
99	101	3
26	53	4
10	54	3
72	74	1
7	18	1
14	14	3
62	62	2
3	5	1
0	6	1
109	121	1
61	62	2
63	69	1
19	36	5
51	73	1
86	92	1
125	126	2
37	50	1
100	100	6
90	133	2
58	68	1
63	64	3
37	37	2
122	122	5
68	120	1
104	105	1
108	122	5
61	63	1
35	35	1
66	68	2
3	47	1
18	19	2
0	62	1
4	13	4
35	43	2
37	38	1
135	135	2
55	55	4
25	38	1
22	23	2
18	35	1
2	5	2
88	91	2
26	67	1
96	122	2
9	50	1
83	88	1
25	63	2
118	131	2
81	97	1
54	65	1
102	103	1
93	95	3
85	85	2
110	122	2
91	92	1
45	67	1
22	69	4
89	98	1
116	118	1
72	95	2
110	131	1
49	49	2
84	86	1
96	120	3
103	104	1
100	117	1
70	71	2
31	102	1
100	129	4
24	52	1
46	46	1
7	10	1
9	10	1
96	123	1
63	79	1
86	87	1
13	14	1
20	21	1
117	118	2
63	65	1
94	96	1
77	79	1
122	129	1
59	85	1
86	88	1
59	87	1
57	59	1
20	20	1
43	68	1
25	36	1
75	76	1
