2	3	2
17	17	11
97	99	2
4	25	1
35	35	5
50	51	3
103	107	2
122	123	13
128	128	7
85	85	3
21	22	6
22	22	18
132	132	4
11	95	4
53	53	9
7	70	1
108	108	11
35	37	2
136	137	12
42	42	10
32	32	11
122	122	11
113	114	9
93	93	17
42	44	4
54	54	11
113	113	4
13	13	13
11	11	15
45	46	10
131	134	4
25	31	1
13	14	8
29	29	16
56	56	5
102	102	17
49	49	7
64	65	5
141	141	5
93	94	11
21	21	14
79	81	3
8	8	6
67	104	3
23	23	20
118	118	6
80	80	15
88	96	1
111	114	3
143	143	10
71	82	1
124	125	3
76	106	2
67	67	12
80	81	9
140	141	5
46	46	4
43	43	13
65	65	19
111	111	7
25	25	7
119	119	7
75	75	8
116	147	3
26	31	7
91	92	1
66	66	6
50	50	17
25	27	2
103	104	7
134	140	3
20	21	10
71	71	9
62	96	1
78	80	2
123	124	8
139	147	3
71	79	1
125	125	7
98	98	3
39	39	17
47	48	2
76	77	4
38	38	19
109	109	6
29	66	2
154	154	6
79	79	9
34	90	3
86	96	2
55	55	11
152	153	3
73	73	11
81	81	10
103	103	8
45	45	9
72	76	2
40	44	3
36	53	1
101	101	7
23	31	1
82	82	9
153	153	6
86	87	5
83	83	5
28	28	4
43	44	1
24	24	8
62	62	6
26	26	8
115	115	6
47	47	16
120	120	10
11	12	4
35	56	1
104	132	1
95	95	9
144	145	1
23	24	7
56	57	7
57	57	9
8	9	11
147	150	2
74	75	7
107	107	8
5	6	3
82	83	4
24	26	1
44	48	2
31	32	5
96	97	5
74	74	5
105	124	4
131	132	2
53	54	3
70	70	12
76	78	1
148	150	1
93	98	1
72	74	3
28	29	2
10	107	2
124	126	2
72	72	7
116	116	10
126	126	11
147	148	5
76	76	2
15	15	13
18	19	2
40	41	12
39	44	1
102	103	3
27	27	5
114	114	5
123	123	11
29	65	2
133	133	4
131	131	10
68	97	3
40	40	7
100	108	1
148	148	8
129	129	9
128	130	1
69	69	11
12	13	5
84	85	5
29	30	5
140	142	3
44	44	6
81	82	3
16	16	4
137	137	6
130	139	1
17	18	2
109	110	8
133	136	1
54	57	1
104	104	19
10	11	3
36	36	8
20	20	9
139	139	4
127	128	3
64	64	8
112	113	5
15	16	6
117	117	8
97	98	7
129	133	3
30	31	6
138	138	8
105	105	5
92	93	2
51	56	3
37	37	6
32	65	4
6	6	7
148	149	4
129	139	2
102	107	2
48	50	1
146	146	4
84	84	6
9	9	7
147	147	7
49	51	4
99	99	3
142	142	3
41	41	8
31	31	6
95	97	6
133	147	1
11	13	1
77	77	4
30	30	4
72	73	2
24	25	3
125	127	3
19	19	7
119	120	1
66	86	4
105	107	5
124	124	1
10	14	1
19	20	3
18	18	9
145	145	4
42	43	9
63	63	7
7	36	1
87	87	3
75	77	7
51	52	2
130	130	4
34	57	2
112	112	7
69	109	1
82	84	2
102	106	7
149	149	8
107	108	5
48	48	8
106	107	2
57	90	1
21	31	1
44	47	1
151	151	5
69	70	4
129	130	2
14	16	3
69	83	3
35	36	6
90	90	2
108	109	10
96	96	3
63	65	2
84	100	2
142	144	3
43	45	3
4	4	2
48	54	4
78	105	1
62	77	2
117	118	4
17	116	1
119	147	1
98	99	5
41	43	4
55	56	1
68	104	4
71	74	2
100	101	1
94	96	3
73	75	3
50	63	2
22	23	5
6	64	2
135	138	1
39	42	1
137	138	4
136	139	2
134	136	5
25	28	2
110	111	2
139	142	4
63	64	2
68	68	7
104	105	2
3	3	1
62	79	3
66	85	1
142	146	1
6	7	4
133	140	2
17	115	1
48	53	6
70	74	4
4	52	1
91	91	2
17	19	3
15	35	1
68	106	1
131	147	3
88	88	5
7	7	6
41	42	1
94	94	2
57	58	3
137	139	2
127	127	5
110	112	1
11	63	1
68	69	2
72	82	1
48	49	3
86	86	1
71	80	3
29	31	1
24	30	2
70	71	2
22	36	2
97	100	2
57	66	1
30	86	2
76	86	1
138	139	3
93	96	2
4	50	3
75	78	1
69	108	2
121	126	5
134	135	1
85	86	3
10	10	1
71	109	1
70	109	1
80	105	3
110	110	5
99	100	1
5	5	1
128	129	4
16	34	2
71	73	1
140	140	2
34	102	1
87	95	1
121	144	2
62	97	1
104	112	1
34	35	2
123	126	3
9	57	2
78	78	4
115	119	3
78	79	1
87	88	2
116	117	2
135	135	4
16	112	1
66	75	1
32	33	2
135	137	3
146	147	2
46	47	1
133	134	1
121	121	2
14	14	1
150	150	7
57	68	2
134	134	2
114	116	4
53	55	3
26	32	2
116	118	1
41	45	1
49	50	1
27	28	1
51	55	1
27	95	1
67	106	2
135	136	1
79	115	2
142	147	2
119	148	1
24	31	1
56	72	2
68	101	1
55	74	1
23	50	1
144	144	1
33	33	1
111	113	2
73	74	1
106	108	1
97	97	2
11	22	1
142	143	2
131	137	1
83	84	1
136	151	2
74	80	2
8	64	1
126	127	1
123	129	1
77	78	1
18	67	1
70	108	1
136	136	3
67	101	1
65	66	1
26	27	1
5	25	1
92	99	1
132	134	1
69	101	1
75	79	1
139	146	1
61	78	1
67	68	1
131	135	1
46	69	2
51	63	1
25	26	2
92	98	1
152	152	1
52	53	1
15	31	1
41	47	1
52	52	1
79	80	1
147	149	1
130	132	1
37	38	1
4	64	1
141	142	1
51	51	1
