135	135	3
75	75	21
124	126	6
43	43	13
82	84	3
106	107	8
14	62	2
126	126	17
59	60	1
2	4	6
66	66	9
37	38	8
118	118	21
63	65	2
45	45	14
115	115	17
109	110	5
62	90	6
95	95	26
101	101	28
56	65	2
120	120	18
24	24	23
64	64	20
18	18	3
113	135	2
59	59	7
49	51	2
61	113	4
111	111	16
132	133	5
57	108	6
101	102	2
83	86	5
16	34	3
73	73	31
7	8	4
46	47	2
80	80	28
0	0	15
121	121	23
102	102	11
62	62	10
117	117	14
101	104	1
125	134	1
125	125	10
91	91	15
44	44	18
48	54	3
77	77	23
31	31	8
70	70	22
94	94	13
80	95	5
96	123	4
6	8	2
49	49	14
62	63	7
110	110	5
1	1	5
10	10	11
33	33	23
111	112	6
61	82	8
74	74	25
79	123	4
17	17	15
110	111	18
35	35	12
99	99	19
67	67	9
9	20	5
112	112	29
50	50	23
31	32	7
36	36	8
15	24	1
70	71	7
61	61	27
79	80	6
124	132	11
92	117	1
25	25	11
44	45	14
69	69	16
119	120	8
9	9	9
132	132	11
43	131	9
15	15	23
130	132	2
98	98	14
97	97	20
21	21	13
116	116	14
123	126	3
52	52	29
54	56	7
48	48	2
131	131	17
30	31	5
58	59	11
84	84	18
54	54	10
53	54	10
69	90	3
14	14	24
32	32	8
33	34	2
2	3	4
93	93	16
65	66	5
85	85	17
108	108	12
47	47	8
44	62	2
13	15	8
57	58	13
87	88	2
71	76	5
87	87	5
11	11	20
129	129	17
65	65	10
123	124	3
43	45	9
123	123	15
56	56	17
114	114	30
133	133	8
58	123	2
95	96	3
121	124	3
108	109	7
13	13	10
22	31	5
71	71	19
27	28	4
76	76	19
26	26	9
75	76	1
23	28	3
122	122	25
92	92	5
52	53	6
86	87	4
134	134	13
126	133	2
127	128	10
118	126	2
100	100	17
119	119	29
93	126	3
104	104	16
90	93	3
82	100	5
55	55	21
84	86	5
95	134	1
115	116	3
30	34	1
90	98	1
111	131	8
79	79	16
49	88	1
34	34	23
24	25	3
69	108	2
71	72	4
82	82	10
72	72	13
128	128	12
97	100	2
117	118	10
5	23	2
81	82	7
113	113	24
60	60	13
20	20	11
98	135	1
27	27	14
49	130	5
38	38	2
38	120	1
50	55	4
58	58	11
3	3	10
6	6	19
93	94	8
1	2	6
55	57	3
103	103	6
70	99	1
5	5	21
10	11	2
102	103	9
122	130	1
90	103	1
124	125	11
57	57	14
68	68	9
67	68	7
97	123	1
30	30	18
122	123	9
68	85	4
126	127	2
69	135	2
77	79	3
6	7	7
63	121	3
19	20	10
62	124	1
105	105	17
70	108	3
37	39	1
114	115	4
53	53	18
64	82	4
43	47	3
42	43	5
68	69	2
83	100	2
68	131	2
29	29	19
128	134	5
8	8	13
45	108	3
86	86	19
44	128	1
63	63	17
125	132	5
125	126	4
132	134	4
66	67	9
106	106	17
86	88	2
44	134	1
124	124	22
12	13	1
122	132	1
78	78	24
99	101	7
27	73	3
90	90	9
91	92	6
47	66	2
90	91	4
81	81	11
11	14	1
16	16	8
28	28	12
96	96	4
114	127	2
117	122	3
109	111	6
8	11	3
50	54	2
100	101	2
130	130	5
131	134	2
12	28	4
121	125	1
48	49	3
9	19	1
82	83	13
71	104	4
66	86	7
0	6	3
15	18	1
4	21	3
95	117	2
118	133	2
127	127	12
54	55	5
22	23	4
109	113	3
22	22	3
96	97	2
21	27	2
3	4	4
101	115	2
104	105	2
45	52	3
60	61	5
11	29	2
12	104	2
46	46	5
22	38	1
95	118	1
18	19	1
24	28	2
78	86	4
38	125	2
5	12	2
88	88	13
69	70	1
83	106	2
61	65	2
85	99	1
12	12	7
102	126	4
65	80	2
50	52	5
44	129	2
129	133	2
109	109	9
42	66	5
72	73	7
66	129	1
100	121	2
130	131	8
48	50	2
4	4	11
89	90	10
70	103	1
99	102	8
2	2	9
55	69	1
108	110	1
50	51	7
83	97	2
13	28	2
8	51	1
107	107	19
80	114	1
79	97	2
64	80	1
56	66	5
31	35	3
119	124	1
44	68	2
66	68	2
88	134	2
43	53	3
28	30	1
84	85	1
83	83	7
83	85	6
43	108	2
89	105	1
9	105	1
27	36	1
69	77	2
74	115	3
76	80	1
65	68	3
106	108	1
23	23	4
67	123	5
50	106	5
50	122	1
44	111	3
28	31	2
79	125	4
62	65	1
83	84	5
92	133	2
86	133	2
76	77	5
98	99	2
10	24	2
99	100	1
14	63	4
64	69	1
50	108	2
14	120	4
24	35	2
118	120	1
7	7	10
74	75	2
87	92	1
59	65	7
99	104	2
107	108	4
97	122	1
129	134	1
42	42	3
59	70	3
89	89	7
15	20	2
81	85	1
4	5	5
51	55	3
97	130	2
60	113	5
11	12	2
16	17	2
79	106	2
57	68	2
121	130	1
130	134	5
63	76	2
19	25	1
92	118	1
96	134	2
8	48	3
9	10	1
47	55	1
44	106	1
59	96	3
58	61	1
70	89	2
93	95	2
70	72	2
37	37	1
30	32	3
43	44	4
55	56	2
68	122	3
23	35	1
103	104	3
92	93	1
79	124	1
118	127	1
34	35	1
22	28	1
8	9	3
81	111	2
60	109	1
69	116	1
17	18	2
49	134	6
16	19	1
4	47	1
44	66	1
112	113	3
69	78	4
49	50	3
65	67	1
121	122	1
60	114	2
29	30	3
95	121	2
121	131	3
95	135	1
129	131	2
48	131	2
66	82	3
115	127	1
64	77	2
44	52	1
11	112	1
96	105	3
59	108	3
10	38	1
19	31	3
116	123	4
18	38	1
112	114	2
55	106	1
17	34	1
112	135	1
0	1	2
77	78	5
94	126	1
83	101	2
19	19	2
81	133	2
131	132	2
102	125	1
23	31	1
71	99	3
97	118	1
45	78	3
7	9	1
10	20	1
79	84	2
61	68	1
97	116	1
116	119	1
66	131	1
83	133	1
42	44	1
95	104	1
81	132	1
81	86	1
97	121	1
57	106	1
95	126	1
59	61	1
15	16	1
78	79	2
94	95	2
83	113	1
85	100	1
56	60	1
8	49	1
68	81	1
42	67	2
65	77	1
65	129	2
62	64	2
14	22	1
47	51	2
88	116	1
117	130	1
73	99	1
119	129	1
23	38	2
100	108	2
14	15	3
23	25	1
36	37	1
60	63	1
71	102	2
56	61	1
69	84	2
119	121	1
87	95	1
65	122	1
68	129	1
25	26	1
114	116	1
63	64	1
11	105	1
69	92	2
15	23	2
79	121	1
70	113	1
106	110	1
27	35	2
128	129	2
57	62	2
116	122	1
85	86	2
9	112	1
56	62	1
134	135	1
6	23	1
115	119	1
64	65	2
51	51	1
98	101	1
113	134	1
58	108	1
93	99	1
101	103	1
25	27	1
65	113	1
29	31	1
111	113	1
28	29	1
75	104	1
