66	66	9
86	110	1
72	73	5
78	81	3
68	68	14
50	53	1
18	18	14
54	56	1
114	114	22
77	78	10
100	100	6
41	41	9
67	67	13
53	53	13
109	110	6
78	119	1
30	30	12
57	57	11
22	22	7
36	57	3
44	44	18
43	44	11
131	132	5
94	94	5
102	102	5
42	43	3
72	72	11
40	40	23
149	149	11
106	106	6
146	146	6
8	9	9
136	136	1
41	47	1
73	74	3
17	17	10
144	144	8
91	92	3
75	75	2
129	129	13
38	40	1
43	67	4
130	130	4
23	23	9
32	32	13
43	43	7
85	85	21
124	124	6
134	135	4
10	10	17
54	55	1
71	114	1
11	11	13
123	125	3
37	38	6
45	45	19
24	24	15
42	42	10
20	20	9
50	50	11
46	46	14
108	108	6
23	24	8
103	105	2
39	39	13
48	48	10
138	139	2
110	111	2
41	80	2
83	83	13
95	96	5
64	66	4
125	135	2
146	147	5
126	126	1
19	19	8
149	150	2
8	8	14
38	38	7
29	30	4
54	54	13
117	118	2
39	40	4
73	77	5
31	33	2
105	105	7
65	65	8
78	78	13
28	28	3
76	76	9
5	5	7
142	142	11
140	151	1
77	77	10
82	82	9
125	126	1
21	21	14
14	14	16
136	137	6
35	36	6
29	29	8
32	33	7
135	135	6
12	12	16
141	142	4
119	119	2
110	112	6
92	93	1
8	31	3
10	18	5
49	149	3
122	122	17
84	84	6
9	9	8
13	15	6
13	13	5
35	35	5
143	148	1
74	74	6
36	36	6
13	24	4
119	120	3
99	99	10
110	110	10
16	16	10
7	7	11
17	18	6
33	33	3
94	95	9
56	57	3
11	24	2
69	69	8
97	98	14
86	112	3
118	140	4
150	151	3
104	104	13
38	78	1
115	115	7
74	102	2
37	39	3
64	64	12
22	24	3
10	11	13
89	91	2
88	88	8
103	131	5
141	141	6
57	58	1
110	113	3
96	97	1
61	63	3
51	52	4
41	57	2
30	31	8
91	107	2
43	46	1
153	153	7
19	31	2
73	75	2
95	95	3
10	27	3
134	134	11
134	137	1
128	130	5
18	19	5
117	117	4
125	125	5
11	12	4
146	148	2
84	85	3
15	15	20
140	150	1
10	31	2
121	121	7
71	103	1
106	114	1
25	25	6
87	87	4
16	21	1
95	97	6
81	135	1
49	49	3
109	113	1
75	76	2
93	95	1
131	131	11
4	4	10
76	77	4
93	93	10
100	101	2
36	39	1
105	106	1
152	153	3
22	23	6
31	31	11
116	116	10
78	79	4
50	51	1
120	122	3
62	64	3
64	65	5
3	3	1
99	101	5
79	79	4
10	39	2
96	96	5
132	133	9
106	107	2
67	68	7
17	19	1
26	29	3
38	79	1
41	75	1
128	128	4
77	83	3
87	102	1
126	130	2
103	103	5
127	127	11
122	129	2
86	86	4
20	21	3
150	150	1
81	81	7
7	24	2
73	115	2
12	27	1
12	15	2
33	34	3
38	39	5
26	26	3
30	33	1
142	143	1
124	125	5
19	20	4
47	47	6
144	145	7
108	109	1
62	62	4
9	27	1
34	35	7
9	10	8
69	76	2
4	5	2
45	46	7
109	109	8
25	26	8
62	63	3
87	88	3
121	124	1
41	42	6
112	112	2
93	98	3
66	67	1
127	135	1
15	16	4
6	7	2
120	120	2
71	73	1
90	92	1
43	47	2
16	17	2
150	152	1
37	37	1
151	152	3
12	13	1
139	142	1
53	54	2
119	125	1
43	51	1
14	76	3
52	54	1
103	104	3
92	92	2
48	52	3
44	47	2
63	66	2
124	128	2
122	124	1
107	107	4
66	68	4
35	37	3
13	76	2
28	29	5
55	56	2
115	116	2
34	34	9
32	34	3
75	83	2
27	27	3
52	52	2
43	45	1
140	141	1
137	139	1
125	127	1
33	35	3
41	108	1
46	67	1
111	111	1
75	85	2
109	114	4
13	14	2
82	136	1
140	140	1
63	63	2
97	99	1
43	109	2
70	70	6
13	77	2
137	137	3
67	73	2
73	73	5
103	132	2
101	101	1
133	146	1
118	118	3
76	84	2
69	71	1
79	81	2
148	150	2
41	126	1
152	152	1
53	55	2
43	116	1
30	56	4
81	82	6
11	78	1
70	71	1
122	130	4
10	13	2
154	154	4
113	113	1
108	115	4
99	100	2
2	2	1
148	149	2
36	37	3
6	8	3
74	76	1
51	51	3
101	102	3
55	55	2
75	78	1
49	50	3
133	133	3
11	13	1
55	57	2
107	108	1
123	123	2
132	132	1
128	129	4
5	28	3
31	83	2
85	86	1
136	145	1
145	146	3
93	94	3
37	48	1
96	99	2
25	31	3
140	142	2
136	139	1
6	6	3
148	148	1
5	6	1
28	30	1
80	81	1
32	62	1
85	111	2
71	71	4
132	150	1
47	49	1
8	10	1
24	29	2
46	70	1
11	25	2
12	80	2
46	69	1
69	70	1
80	80	2
98	98	2
78	139	1
85	109	1
122	123	1
64	67	1
38	64	1
90	90	1
31	32	2
83	137	2
42	54	1
77	79	1
64	79	1
129	130	1
145	145	1
74	75	2
7	8	1
98	99	1
21	22	1
10	30	1
145	147	2
67	83	1
134	150	1
57	91	1
141	144	1
83	84	1
46	54	1
32	36	1
47	48	2
