76	76	32
9	10	7
55	68	1
9	9	12
71	71	7
75	75	5
47	47	5
70	70	8
74	74	15
53	54	3
73	74	2
42	42	36
47	48	5
64	65	3
53	53	5
63	63	16
57	57	13
27	27	25
41	41	22
46	46	11
1	1	16
61	61	18
31	31	8
17	17	15
67	67	4
3	3	9
5	13	3
12	12	8
39	39	11
7	7	12
60	60	8
56	72	1
56	57	1
58	60	1
59	63	2
14	14	8
43	43	9
54	55	1
77	77	8
69	71	3
45	45	7
38	45	1
21	21	4
25	26	7
8	8	13
58	58	6
40	40	21
66	66	19
31	32	6
55	73	1
16	33	3
14	15	3
67	68	11
73	73	23
54	54	9
10	52	2
28	28	14
37	38	1
13	14	7
80	80	17
32	32	6
78	79	4
70	71	9
14	35	2
50	50	8
4	4	11
21	46	4
68	69	3
13	13	10
59	62	3
71	72	6
16	17	1
72	73	5
38	38	16
48	48	16
3	9	1
46	47	1
29	29	9
55	55	16
33	33	16
0	80	2
27	79	2
8	21	2
35	36	1
69	69	8
35	35	3
52	52	13
41	48	1
36	37	1
2	2	8
25	25	7
0	0	7
30	30	9
50	51	6
62	62	5
34	35	2
51	52	5
26	26	13
48	57	3
59	59	8
79	79	10
6	6	12
13	15	4
56	56	4
72	72	5
78	78	4
60	61	12
9	17	2
37	37	6
30	49	1
32	33	4
14	51	4
48	49	7
7	10	2
57	59	1
11	11	7
45	48	1
70	72	1
36	36	4
6	19	3
4	17	2
49	49	4
45	46	2
6	8	3
64	64	14
65	66	1
38	39	6
14	16	2
8	11	4
30	47	2
1	16	1
49	60	4
80	81	1
41	42	3
62	63	2
36	49	6
66	67	1
11	13	3
12	14	2
16	16	4
59	61	2
56	75	3
69	70	4
15	15	4
58	59	3
20	20	3
34	34	4
5	6	4
57	60	1
29	30	2
28	29	2
6	13	2
3	4	1
11	12	1
50	54	1
51	53	1
68	68	5
0	1	1
42	43	2
7	21	4
57	75	2
59	65	2
5	10	5
0	9	1
5	5	3
65	65	5
51	51	1
73	79	1
11	14	2
60	66	1
49	66	2
28	59	1
49	50	2
34	66	2
61	62	3
8	12	3
9	18	1
40	41	4
1	2	1
4	7	1
38	46	1
46	60	1
8	10	3
25	50	1
55	64	3
63	64	2
33	34	1
57	58	2
68	70	4
50	52	1
27	52	1
26	27	1
34	51	1
30	45	1
19	19	1
47	62	1
15	20	1
66	68	1
57	74	1
18	18	3
9	16	1
36	50	1
15	16	3
3	46	1
74	75	1
9	21	1
25	54	1
6	7	1
37	41	1
53	60	1
22	22	1
12	35	1
31	53	1
30	68	1
6	9	1
3	47	1
