6	6	4
58	58	13
131	131	12
77	82	2
83	83	7
69	69	6
95	95	5
102	102	2
121	123	5
79	80	5
126	126	4
126	127	3
137	137	5
85	85	10
53	54	2
63	71	1
143	143	3
65	65	6
35	35	4
92	92	8
36	36	11
93	93	9
141	141	3
99	100	6
22	22	6
26	26	10
129	129	8
54	54	10
25	51	2
121	122	2
55	59	4
94	104	2
80	80	2
119	120	7
38	41	4
103	103	4
82	90	1
108	109	1
68	82	1
139	139	6
15	93	1
125	125	8
74	94	3
118	132	3
124	125	1
134	135	4
13	35	3
89	90	5
26	27	3
123	124	7
118	118	10
140	140	3
24	24	20
132	137	3
8	22	1
17	39	3
13	88	5
105	105	3
76	76	3
104	105	5
101	101	14
102	103	9
118	119	4
129	130	2
29	29	6
120	123	3
92	111	1
87	87	5
55	56	10
90	90	8
68	68	8
31	38	3
28	28	2
63	63	3
100	101	2
0	1	1
9	9	4
133	133	9
31	36	3
84	88	3
62	62	1
104	106	2
23	23	6
14	14	6
131	136	4
49	49	3
37	41	2
91	91	4
34	35	4
40	61	2
64	64	2
8	8	8
146	146	1
137	140	2
87	92	3
41	41	4
34	98	1
17	22	2
51	52	5
48	48	4
119	119	3
56	57	2
128	128	12
81	81	2
27	28	2
75	75	4
122	122	5
141	142	1
69	84	2
34	34	5
122	123	3
124	124	2
25	25	7
11	31	2
143	144	1
19	19	6
130	130	13
116	116	2
42	141	2
62	64	1
2	2	11
96	111	2
10	10	5
75	127	2
84	84	5
133	134	1
145	145	2
54	86	6
75	87	1
55	67	5
58	106	3
56	67	1
113	136	1
134	134	5
101	102	1
126	131	1
25	28	1
69	70	6
40	40	1
138	138	3
82	82	4
33	34	2
2	13	3
98	108	3
132	133	5
31	86	4
144	144	3
17	17	5
110	110	5
3	3	1
10	60	1
99	102	2
97	97	8
118	121	4
97	104	5
131	133	3
84	108	2
121	121	4
60	60	4
107	107	2
142	142	5
99	99	5
127	139	6
73	88	3
136	136	4
127	127	3
108	108	7
57	66	1
20	81	1
127	129	3
133	140	1
86	87	5
105	111	5
20	20	7
32	32	1
3	5	2
109	135	3
79	122	1
94	94	2
80	87	3
51	98	1
128	138	2
27	69	1
86	86	1
57	74	4
6	42	3
88	88	4
37	37	2
15	16	2
67	68	1
48	62	1
48	68	1
10	13	2
1	19	1
32	41	2
79	79	2
75	76	2
20	48	1
18	18	3
52	80	1
19	31	1
57	57	6
16	16	3
13	13	1
55	55	8
42	42	7
87	94	1
93	94	2
112	114	1
71	71	2
73	73	2
138	139	1
89	125	1
113	132	1
63	104	2
134	136	1
59	60	2
11	11	1
38	38	2
97	98	2
32	109	1
57	59	1
144	145	1
58	60	1
128	129	1
83	85	3
83	114	1
66	85	4
118	140	1
77	77	4
39	40	2
68	71	1
112	112	4
76	91	2
98	99	1
40	70	1
61	71	3
99	122	1
111	124	1
135	135	3
107	108	2
12	13	3
56	66	6
99	101	1
117	117	3
115	115	3
38	40	1
100	117	3
57	92	1
135	136	1
98	111	2
72	72	2
56	56	1
124	127	2
126	133	1
41	42	2
102	144	1
58	59	1
73	74	1
62	63	2
20	37	1
14	124	1
109	139	2
76	77	1
4	4	1
76	112	2
48	94	1
8	24	2
82	84	1
53	56	1
49	53	3
32	33	1
102	120	1
67	67	2
123	123	2
74	74	1
109	109	1
68	73	1
100	100	1
78	79	1
100	143	4
136	137	2
39	39	1
50	51	3
30	30	1
135	139	1
42	71	1
52	52	1
20	24	1
22	23	1
56	65	1
4	25	2
63	82	1
96	96	2
119	131	1
0	0	1
94	98	2
66	66	2
60	61	2
133	137	2
25	39	1
138	141	1
87	104	1
113	137	1
26	73	1
38	61	1
26	42	2
32	35	1
21	48	2
6	15	1
115	116	1
61	62	1
31	43	1
20	39	1
