98	98	16
100	100	10
76	76	7
48	57	3
64	64	16
95	95	12
36	61	3
33	34	1
37	61	1
52	52	9
87	87	12
51	51	21
62	62	16
67	68	6
72	73	6
74	74	15
86	87	3
39	39	17
69	69	17
27	77	6
35	35	17
73	73	12
88	88	5
78	78	13
50	50	18
102	102	5
56	65	1
58	58	10
51	55	2
77	77	10
70	70	15
59	59	18
93	93	16
55	55	4
54	55	4
54	94	3
56	57	2
56	67	4
81	82	6
80	80	9
84	87	4
85	85	4
55	94	1
57	62	2
41	41	19
60	61	8
57	57	14
50	56	3
38	39	3
45	45	6
40	40	15
63	63	19
86	89	1
49	50	13
84	84	9
86	86	17
36	36	11
54	54	6
67	67	28
68	69	8
97	98	7
49	49	6
83	83	10
101	101	13
22	22	5
87	88	4
86	88	6
53	53	23
71	71	7
35	38	1
63	84	1
92	93	5
23	26	2
43	43	14
82	82	12
31	31	4
45	51	1
61	81	2
42	42	15
50	55	2
64	65	4
37	37	22
40	90	1
89	89	15
26	96	1
25	27	2
39	40	3
96	96	8
47	100	1
47	48	11
79	80	6
66	66	11
79	79	19
80	81	4
53	95	1
69	70	5
53	88	1
33	33	9
82	86	5
47	63	1
54	97	3
60	60	14
46	46	4
61	61	15
91	91	8
26	26	5
81	83	4
29	92	1
80	92	2
68	68	13
40	41	4
59	77	1
62	63	8
69	72	1
53	93	1
26	27	2
31	79	5
66	72	1
31	92	1
52	60	2
81	81	4
31	33	2
44	44	13
24	24	6
34	34	3
94	94	5
51	56	1
75	75	10
27	27	11
53	54	3
72	72	7
30	52	3
73	74	4
56	56	12
45	100	1
42	75	2
57	58	3
97	97	10
29	37	2
89	101	3
65	65	10
91	98	1
61	62	4
65	78	3
50	76	3
25	25	9
52	53	1
23	24	1
38	38	3
70	71	5
72	74	3
93	94	3
48	48	14
83	84	4
29	33	4
22	33	2
90	90	13
96	97	2
72	98	3
88	89	3
37	38	1
48	51	5
25	26	5
31	47	1
36	37	2
86	98	6
91	92	2
32	32	10
35	36	2
74	75	3
44	50	1
40	51	3
46	98	4
44	52	1
31	80	2
95	96	4
99	99	3
20	20	4
45	86	3
35	56	2
52	62	3
100	101	2
56	78	1
96	98	2
32	98	3
47	51	2
79	93	1
42	43	2
51	52	3
23	83	1
54	96	1
29	31	3
81	98	1
53	58	3
50	85	2
71	72	2
94	95	2
52	56	3
65	101	1
60	83	2
31	45	1
32	33	3
41	42	5
46	48	1
59	63	3
32	92	1
46	47	7
101	102	2
45	47	2
60	84	1
24	26	3
87	89	3
51	59	1
53	84	3
67	69	1
82	83	2
43	44	1
64	78	1
52	93	2
39	51	1
45	46	1
48	95	1
48	49	1
89	90	2
92	92	1
28	28	1
22	25	1
29	30	3
55	58	2
47	99	1
49	57	1
36	39	1
38	54	2
23	27	1
65	66	2
57	76	1
58	80	2
94	96	2
63	67	2
29	97	2
50	51	2
61	82	1
40	77	1
99	100	1
83	86	1
24	25	1
55	93	1
90	101	1
61	76	1
31	65	1
29	32	1
55	95	1
78	90	2
44	45	1
52	80	1
30	30	1
76	80	1
66	67	1
