43	44	6
65	65	15
72	72	9
33	34	1
71	71	8
33	33	7
70	73	2
63	63	8
92	92	3
85	85	11
85	91	3
50	51	5
91	91	6
33	83	2
106	106	17
102	103	8
95	114	1
105	106	3
22	25	2
72	73	5
76	76	10
103	111	2
64	64	8
34	34	5
84	93	5
98	103	3
101	101	5
78	78	4
25	25	8
59	105	2
88	88	1
82	82	3
77	78	8
28	28	5
69	102	2
100	103	3
104	106	3
40	40	4
98	98	3
58	58	10
112	112	13
29	111	1
110	110	9
114	114	3
28	52	4
32	32	7
37	37	3
59	72	4
29	56	3
56	56	6
34	36	3
68	68	5
107	113	1
45	45	9
75	75	4
57	57	4
81	81	5
81	97	5
88	89	10
35	104	6
41	41	5
55	55	7
30	110	1
38	38	6
40	44	2
80	81	15
88	109	2
25	26	7
103	107	2
67	69	2
110	111	2
60	61	4
53	53	3
21	21	4
23	23	7
61	62	9
108	108	8
60	60	11
78	91	1
41	42	2
80	80	8
115	115	1
113	114	1
92	95	2
77	77	11
112	113	5
113	113	4
102	102	5
89	91	2
114	115	6
103	103	10
99	99	5
100	100	8
85	95	2
87	93	2
107	108	2
93	93	4
72	75	2
33	111	2
66	66	5
27	27	13
104	104	3
39	39	3
103	104	8
23	24	4
70	70	6
89	89	6
31	40	2
28	53	1
36	36	3
84	84	6
73	74	9
52	52	9
61	75	6
71	73	1
79	79	3
61	76	2
38	39	3
71	72	3
68	71	7
94	103	2
85	86	5
45	47	1
61	78	1
96	111	5
47	48	4
105	105	9
106	111	3
67	71	4
31	111	1
53	55	5
36	37	3
61	61	3
109	109	3
97	97	8
47	47	1
65	66	1
70	76	3
19	19	1
48	49	3
30	30	4
107	107	4
94	95	7
31	92	2
26	26	1
90	91	3
111	111	8
48	113	1
43	43	3
94	94	2
104	105	2
68	69	4
63	113	2
29	29	2
110	113	2
31	31	3
78	79	2
83	83	2
106	107	3
79	103	2
29	54	1
75	76	1
99	102	1
68	79	1
95	95	2
87	87	3
100	101	1
83	84	1
51	51	2
62	62	4
20	20	5
96	96	4
26	28	1
49	49	1
63	77	3
87	101	1
95	97	1
72	74	1
99	100	3
86	95	2
74	74	2
30	113	3
62	110	3
93	94	3
46	58	2
37	107	2
46	46	1
54	59	3
100	105	2
32	33	1
59	60	5
64	75	1
73	73	3
56	74	2
81	91	1
39	40	1
83	85	2
61	64	1
61	63	3
44	45	2
86	87	4
71	75	1
54	55	1
35	37	1
111	113	1
54	58	1
66	67	1
31	39	1
90	90	1
56	57	1
24	24	2
70	96	1
104	107	2
44	44	1
109	110	2
99	108	2
86	86	2
63	64	3
55	56	1
27	57	2
64	109	1
109	111	1
28	54	1
54	54	3
77	88	2
53	79	1
66	79	1
67	67	1
101	102	1
67	73	1
62	78	1
34	104	1
35	35	1
33	96	1
65	67	3
33	36	1
58	59	1
78	82	1
30	33	1
93	101	1
69	70	1
31	89	1
56	73	1
64	66	1
50	50	1
