11	12	4
236	236	1
209	209	1
203	230	1
185	186	2
210	210	5
231	231	3
120	123	5
8	8	6
200	207	1
20	20	5
242	242	10
41	41	5
80	80	4
11	11	11
169	181	1
140	143	5
212	212	6
70	70	1
221	221	4
235	235	5
109	180	5
46	46	7
153	155	3
148	148	4
106	106	7
52	202	2
226	226	10
37	38	4
49	50	5
30	31	11
4	7	2
192	192	1
2	2	4
66	66	2
29	29	5
53	150	2
85	86	7
61	78	3
25	25	12
80	81	9
85	85	11
121	121	5
74	74	7
219	219	9
173	173	1
113	153	1
197	197	8
18	19	1
233	233	7
29	52	1
171	178	3
54	54	5
177	178	3
97	97	9
169	169	5
95	97	1
205	205	1
29	30	2
24	25	1
5	5	10
168	168	5
58	59	5
9	11	3
203	238	5
77	77	2
128	190	1
135	136	4
62	62	2
6	18	4
238	238	3
215	221	2
37	40	4
204	206	7
26	27	5
32	42	4
81	81	8
115	115	2
100	218	5
105	106	3
53	53	1
139	159	3
119	133	6
17	18	5
65	66	6
171	197	3
130	130	2
192	215	2
34	36	3
78	78	4
45	78	1
163	163	2
25	47	3
3	46	2
202	202	2
51	52	2
154	154	4
143	144	2
64	68	1
52	52	12
208	210	2
170	170	4
43	43	8
211	213	2
14	18	4
132	132	2
136	138	1
49	82	2
220	221	3
188	199	5
58	60	2
118	118	5
103	105	4
162	162	5
125	125	4
4	6	5
184	184	3
104	106	2
191	210	3
52	53	5
191	191	1
6	7	2
99	219	5
55	55	6
2	185	1
220	220	15
0	0	3
109	110	2
60	60	5
62	69	1
127	143	1
21	22	2
81	82	11
1	56	3
57	57	6
51	156	4
33	41	2
135	135	3
173	183	1
183	183	10
82	82	2
133	134	2
48	75	2
47	47	6
151	151	6
159	160	4
103	107	4
24	74	2
235	237	2
174	174	7
40	40	7
32	186	1
228	228	2
19	20	1
241	242	2
29	199	1
161	161	4
194	195	5
29	78	1
202	232	1
32	128	1
0	42	1
64	64	3
32	33	1
1	46	2
174	182	1
47	54	4
50	50	7
152	158	3
133	133	3
240	240	4
27	64	1
197	230	2
113	201	3
15	103	3
120	120	2
15	15	3
17	17	5
203	204	1
6	23	2
226	230	1
31	31	1
204	204	7
201	201	2
186	186	4
12	12	2
165	165	6
147	150	5
65	88	1
36	36	3
29	46	1
0	13	1
1	3	1
203	203	2
179	179	4
97	148	3
225	226	4
19	19	3
44	70	3
14	74	1
66	67	3
48	192	2
157	157	7
107	217	2
66	68	5
73	73	2
208	208	4
211	212	3
203	211	7
9	9	4
3	3	2
222	229	2
63	64	2
197	208	4
207	207	8
237	237	2
215	223	2
28	29	5
217	217	4
35	39	3
140	140	2
165	175	2
58	75	2
187	187	1
119	120	1
177	177	1
45	63	2
142	142	1
211	211	1
13	14	1
137	206	2
25	211	3
111	111	1
174	208	4
76	76	3
182	182	1
138	138	4
187	188	3
20	70	1
198	198	1
47	48	1
193	195	2
113	113	4
114	114	2
218	220	1
58	58	3
126	126	1
21	21	5
41	90	1
190	216	4
144	144	2
104	105	2
72	72	2
77	78	1
199	199	2
68	86	2
24	35	1
88	88	1
221	229	2
48	57	1
39	75	1
205	206	1
13	16	2
50	100	2
61	61	1
224	233	1
113	175	3
25	26	1
96	102	1
84	84	3
24	24	3
48	201	4
86	86	2
61	242	2
228	230	1
146	146	1
4	35	2
218	218	2
16	16	4
126	129	1
54	65	1
78	156	1
46	73	4
207	209	2
116	156	1
28	191	1
26	26	1
230	230	1
4	5	4
187	192	2
100	133	3
164	165	1
59	59	2
24	76	1
0	2	2
189	189	1
42	42	4
127	127	1
39	80	1
163	166	4
118	168	1
123	123	3
126	152	1
69	69	3
20	73	2
226	227	5
50	82	1
38	43	1
185	185	3
109	109	1
126	153	1
159	159	2
137	138	2
167	167	1
241	241	2
33	91	1
122	122	1
226	228	1
78	79	1
2	44	1
51	51	2
48	48	1
24	197	1
105	105	1
135	183	2
67	68	2
202	236	1
30	30	1
103	103	1
44	88	1
176	189	1
27	27	2
9	187	1
179	182	2
224	224	2
16	46	2
29	43	1
44	46	4
39	44	3
178	178	4
22	22	1
188	189	2
128	129	2
56	56	2
122	123	2
23	31	2
180	180	2
213	213	2
80	83	1
238	239	3
203	205	2
45	45	2
100	103	2
211	216	2
53	61	1
135	149	1
51	53	1
62	67	1
173	174	1
67	138	3
150	150	1
56	57	1
145	145	1
149	149	1
185	215	1
79	79	4
22	212	2
176	176	2
190	192	1
18	18	1
28	28	3
65	65	2
225	242	1
138	175	1
33	33	2
166	166	2
10	98	2
147	147	1
31	48	2
142	143	1
49	49	1
122	124	1
193	194	3
156	157	1
1	15	1
99	100	1
232	232	1
131	131	1
64	66	2
232	233	1
199	210	1
3	45	1
156	164	2
92	153	1
63	63	1
119	122	2
131	179	1
225	225	1
30	35	1
9	48	1
140	142	1
31	197	3
229	229	3
96	96	1
43	45	1
117	117	1
222	223	1
77	213	1
192	202	1
215	217	1
133	190	1
169	207	1
171	171	1
104	104	1
67	67	2
81	83	1
1	1	3
27	82	1
152	187	2
12	101	1
153	158	1
2	3	1
100	101	1
134	134	2
36	39	1
214	216	1
26	47	1
9	49	1
46	62	1
139	140	1
14	14	1
32	32	1
