11	11	4
23	23	4
38	113	4
32	32	5
71	71	7
128	128	10
95	98	4
31	102	2
125	125	2
30	44	1
52	52	10
69	69	21
7	7	4
48	48	8
59	59	10
118	122	3
113	114	8
45	45	7
95	95	10
42	43	2
47	47	12
56	109	5
97	97	5
13	13	15
107	107	7
28	28	11
23	25	3
51	54	3
52	54	2
41	59	1
42	42	9
29	44	2
46	46	6
43	97	2
57	57	7
73	73	8
124	124	12
1	1	9
53	54	3
103	129	4
19	19	8
84	89	6
121	121	15
50	50	5
5	45	1
129	129	2
21	21	3
117	120	4
5	6	1
32	55	2
24	24	5
61	126	4
67	67	7
89	89	5
10	10	5
75	76	2
7	40	1
86	88	4
43	44	3
29	29	4
130	130	9
62	62	10
96	127	2
76	77	4
7	9	5
47	48	2
12	12	6
112	112	14
72	72	5
54	117	4
98	98	14
33	33	6
117	118	6
108	108	12
64	64	2
53	53	7
109	109	5
6	6	4
82	127	1
18	18	4
106	108	3
44	44	10
22	27	4
75	75	2
11	25	1
80	80	5
25	26	3
95	126	3
114	116	7
89	95	2
7	8	1
125	126	3
46	47	2
66	66	6
51	51	7
3	3	6
116	116	7
4	4	3
107	130	2
1	12	6
119	119	9
39	41	2
127	129	1
114	114	8
6	11	1
128	129	1
96	97	1
55	62	2
101	101	11
117	117	4
107	129	1
82	84	1
4	5	2
39	82	1
9	9	3
1	20	2
40	40	5
21	27	3
5	5	12
126	126	1
81	117	2
31	31	6
68	77	4
58	58	2
47	110	1
11	12	9
43	43	7
41	73	1
20	51	1
20	20	4
56	56	4
32	65	2
90	92	3
105	106	3
91	116	1
61	115	6
18	52	4
120	122	1
97	129	1
50	51	2
118	118	3
0	0	8
106	107	2
59	60	2
131	131	3
65	65	5
5	31	2
9	25	1
55	55	2
41	41	7
26	27	1
86	87	2
39	118	4
33	34	4
88	99	1
59	70	3
46	48	2
55	80	1
39	39	7
38	40	1
61	62	6
76	76	4
63	71	1
42	126	1
85	86	1
24	44	2
41	42	1
27	27	4
43	73	1
54	54	8
68	68	4
26	26	8
39	117	5
55	85	2
79	80	3
94	94	3
40	41	3
34	34	4
49	49	8
112	113	1
83	83	4
69	125	2
109	132	3
20	45	1
13	40	1
14	14	7
78	78	4
104	107	3
49	53	1
82	82	2
93	93	5
128	130	4
40	47	1
84	85	2
113	113	6
88	88	4
103	103	2
69	123	2
23	43	3
15	16	1
2	6	3
89	94	1
127	127	1
20	21	2
59	62	2
81	109	1
79	79	1
74	74	3
78	79	2
111	111	2
44	49	6
4	30	1
102	102	3
26	86	1
32	75	2
94	127	1
19	20	1
54	86	1
83	87	1
70	70	1
87	112	3
1	81	1
44	45	2
111	125	1
25	55	2
15	15	7
110	110	1
54	56	1
65	66	1
12	64	1
0	28	1
96	120	3
38	38	5
72	125	1
86	86	3
116	117	2
100	112	1
67	113	2
67	69	1
91	92	1
132	133	2
90	117	3
60	60	2
44	126	1
54	116	1
99	118	1
64	65	1
16	16	1
81	81	4
10	16	1
122	122	4
98	118	3
115	115	2
109	110	1
1	32	1
17	17	4
93	117	2
104	104	1
22	22	1
16	23	1
30	30	2
127	130	1
49	52	3
62	133	2
122	124	1
29	30	7
100	106	1
66	71	1
33	108	1
72	73	1
105	109	2
79	109	2
21	22	2
96	117	3
110	112	2
118	119	3
28	29	4
77	77	2
106	106	3
74	79	3
52	77	1
83	84	2
23	24	2
21	23	1
15	63	1
104	105	1
30	31	1
69	81	2
126	130	2
133	133	2
41	68	1
70	108	1
68	78	2
3	33	1
105	105	5
104	113	1
80	81	2
53	65	1
120	120	2
0	7	1
82	85	3
51	120	1
14	133	1
2	2	2
30	103	1
120	121	2
24	29	2
60	120	1
88	98	1
48	50	3
31	32	1
66	86	1
15	64	1
63	65	1
17	18	1
3	4	1
48	56	2
129	130	1
52	53	1
82	83	1
82	108	2
3	7	1
26	46	1
58	115	2
95	96	1
99	99	1
91	98	2
20	52	1
108	129	1
38	41	1
42	88	1
126	127	1
58	60	2
85	85	1
68	69	1
113	119	1
100	102	1
91	91	1
74	78	1
88	102	1
67	126	1
66	113	1
1	3	1
110	111	1
46	88	1
65	69	1
58	118	1
42	84	1
44	100	1
