185	186	6
192	192	7
183	183	3
175	176	6
51	72	1
139	171	4
172	172	9
160	160	5
147	148	1
167	167	2
110	110	2
176	178	4
47	48	1
103	103	1
182	182	2
42	51	1
168	169	2
147	147	2
175	178	3
189	189	7
10	33	3
195	195	9
30	69	2
12	12	4
79	79	1
171	171	6
194	195	1
188	188	4
59	67	3
16	16	5
100	100	1
184	186	2
160	169	3
135	135	6
68	68	7
150	150	3
159	161	4
149	149	8
43	43	8
21	21	10
13	37	2
40	41	2
56	56	4
24	38	5
107	173	2
107	107	4
178	179	5
179	189	1
53	53	7
194	194	9
94	153	2
27	41	3
136	138	2
18	74	1
67	67	3
33	33	3
8	47	4
62	73	3
195	196	2
178	178	7
131	142	3
16	37	4
43	44	1
154	154	3
131	131	6
106	107	1
136	136	5
54	55	3
125	127	4
184	184	4
61	74	2
166	166	8
13	13	5
184	195	3
161	165	3
90	90	1
166	178	1
145	148	2
41	41	9
50	50	5
54	56	2
22	29	2
63	74	5
137	138	2
76	76	4
120	120	1
154	161	1
117	118	2
106	106	1
29	30	4
80	81	4
137	137	3
108	108	4
123	123	4
98	98	2
161	162	2
152	152	6
125	126	2
4	38	1
61	68	2
7	7	2
35	35	8
66	68	2
161	161	3
139	140	1
42	42	5
94	95	2
37	37	5
4	4	2
160	163	1
114	114	1
135	143	2
35	39	5
86	86	4
18	18	3
105	152	1
109	109	3
169	169	2
32	33	2
134	152	3
105	105	6
157	159	3
149	150	4
23	23	1
93	93	3
177	179	1
168	168	2
36	36	8
64	65	1
59	63	2
51	51	1
113	154	3
0	0	4
144	144	1
121	121	6
139	139	1
15	15	2
72	73	1
12	23	1
80	117	4
148	149	3
19	19	1
106	111	3
144	146	1
131	134	1
177	177	2
156	157	2
164	175	1
170	170	1
19	24	1
179	180	1
191	192	4
35	37	2
56	89	2
28	28	2
124	124	3
29	29	2
38	38	1
3	3	2
152	155	2
117	117	9
21	22	5
28	29	2
156	156	2
88	88	2
27	27	2
30	31	1
17	19	1
90	193	1
34	35	1
187	187	5
190	190	1
131	143	1
11	12	1
8	42	2
142	147	1
44	73	2
55	63	1
159	159	3
17	17	5
119	141	1
196	197	2
126	126	2
49	49	6
171	185	1
142	142	1
132	141	1
94	94	8
151	151	3
81	81	2
106	114	1
45	45	1
3	11	1
0	1	2
122	122	1
63	66	1
30	30	2
121	122	2
72	134	1
44	46	1
168	179	4
48	48	2
129	132	2
133	133	5
50	51	3
48	49	3
33	39	2
154	155	3
148	148	1
87	87	4
103	104	5
107	112	3
58	58	2
163	164	1
193	194	1
146	146	2
111	168	2
108	110	2
187	188	3
102	102	1
122	138	1
6	8	1
180	182	2
104	104	2
99	99	3
84	84	2
132	135	1
18	37	1
61	67	1
183	185	2
43	66	1
32	32	1
107	110	2
119	122	1
9	9	4
62	79	1
19	21	1
128	136	2
80	80	1
107	178	2
96	97	2
186	186	2
156	161	2
60	60	1
55	55	1
157	180	1
63	138	1
173	175	1
186	187	1
3	6	1
44	44	3
145	145	1
112	154	1
155	156	1
102	150	1
96	187	2
158	159	1
97	98	1
162	162	1
40	40	2
176	176	2
83	83	1
113	145	1
132	144	1
77	77	1
130	132	1
115	123	2
14	14	1
158	175	1
97	97	1
102	105	1
28	36	2
105	115	1
119	119	1
179	181	1
127	127	1
113	123	1
173	174	1
47	47	1
123	137	1
164	191	1
34	34	1
101	103	1
96	99	1
154	191	1
42	69	1
17	72	1
165	166	1
9	42	1
193	193	1
