14	14	4
74	75	5
39	40	6
152	153	4
4	63	1
78	78	5
34	34	3
88	94	3
66	66	9
140	144	4
46	46	7
102	114	5
56	57	6
68	68	1
84	94	3
65	66	2
42	42	3
54	54	7
17	17	10
31	31	9
92	96	3
63	97	2
107	110	2
131	131	6
81	84	3
58	58	2
13	13	15
137	137	2
69	69	3
127	128	2
82	83	3
107	107	6
78	79	2
81	82	4
99	100	4
40	40	5
16	19	2
70	70	2
90	95	1
103	103	5
67	67	8
110	110	10
83	84	1
120	121	3
105	106	3
3	3	4
12	77	2
7	8	4
122	122	5
28	28	3
35	35	3
117	117	6
12	12	4
122	123	7
82	82	4
95	99	3
133	133	2
95	95	3
115	140	1
42	43	3
51	125	2
23	23	4
99	99	4
43	44	1
109	109	6
10	10	2
74	74	4
129	129	7
18	18	2
136	136	2
18	30	1
135	140	2
113	113	1
119	120	2
65	65	2
41	41	7
84	106	2
96	97	1
125	140	3
18	19	2
56	56	2
64	66	1
130	130	3
101	138	2
102	102	4
134	134	4
124	125	2
135	135	5
45	45	1
71	71	6
19	19	1
68	78	1
48	49	3
101	101	2
88	92	7
116	124	2
112	112	9
39	39	2
20	22	2
38	38	2
113	114	3
153	154	3
108	109	2
151	151	3
43	43	2
102	103	2
73	74	2
80	136	4
20	20	2
126	126	5
110	138	1
48	113	2
142	142	3
82	137	2
68	77	3
22	23	2
125	125	3
37	37	1
62	86	3
97	98	2
30	30	2
107	108	2
36	134	1
95	96	2
121	121	1
27	27	3
33	35	1
16	16	3
117	118	2
141	141	1
106	107	4
8	9	1
128	128	1
33	34	4
87	95	3
93	93	2
132	132	4
103	105	2
4	4	1
105	110	1
112	141	3
146	146	1
100	102	2
32	32	6
34	40	1
49	49	7
108	117	1
50	53	3
25	25	1
77	79	1
149	149	2
86	86	1
118	118	6
153	153	1
20	21	2
63	63	2
76	76	2
65	86	1
34	35	3
127	127	4
95	97	1
44	44	2
102	139	2
9	12	2
51	51	3
144	145	1
47	47	3
21	21	1
12	26	4
8	25	2
66	67	1
49	123	1
148	148	2
128	129	3
29	30	1
150	150	1
25	28	1
20	130	2
26	26	2
64	65	1
53	53	3
11	12	2
7	134	1
83	105	1
19	20	1
96	96	1
141	144	1
48	48	3
32	34	1
22	22	1
151	152	2
82	84	1
66	84	1
88	88	1
36	44	2
50	51	1
140	141	1
5	6	1
21	28	1
73	73	5
100	100	1
11	13	2
101	149	1
111	111	1
14	16	1
124	127	1
8	8	2
124	124	1
131	133	1
126	127	1
29	29	1
91	91	2
3	9	1
116	122	2
116	117	1
106	106	1
55	55	1
15	16	1
76	77	1
81	81	1
36	36	2
143	144	1
84	84	1
4	6	1
86	122	1
77	77	1
152	152	1
73	84	1
57	58	1
55	97	1
94	94	1
129	134	1
17	18	1
65	74	1
146	147	1
7	63	1
9	128	1
113	116	1
72	72	1
82	86	1
104	104	2
84	86	1
116	118	1
99	101	1
114	144	1
99	154	1
41	42	1
102	108	1
11	11	1
125	126	1
65	85	1
31	42	1
