177	180	1
44	89	2
14	14	2
92	92	11
19	20	4
67	67	3
72	80	4
31	31	4
149	149	11
183	183	4
174	175	3
105	112	3
174	174	2
144	168	2
108	118	5
60	64	1
14	22	4
107	186	2
84	84	1
170	170	3
23	24	2
32	83	1
18	18	4
158	158	5
186	186	4
58	58	1
141	142	3
58	59	5
133	133	2
65	65	4
57	57	3
75	100	3
123	123	4
34	34	3
66	67	2
47	47	4
52	53	3
118	118	1
120	121	3
12	12	2
116	116	3
25	27	2
20	20	4
19	19	5
165	165	2
125	139	4
46	46	4
45	45	5
87	87	3
53	88	4
27	47	3
65	68	2
101	101	4
22	31	2
157	157	2
53	75	2
144	144	3
98	98	2
14	25	2
94	94	5
182	182	6
37	37	7
105	106	1
22	22	5
44	76	3
59	59	4
13	13	5
100	100	2
84	85	6
92	94	7
66	66	5
127	181	3
121	155	1
130	131	3
166	166	4
64	81	1
115	115	3
82	83	2
3	4	2
89	89	4
60	60	5
185	185	6
88	88	3
156	157	3
26	141	4
110	142	2
122	142	1
156	163	1
150	176	1
37	57	2
43	102	1
104	104	1
117	119	1
136	182	2
106	106	3
137	139	4
61	61	4
112	112	4
42	80	5
145	145	1
172	173	1
183	184	1
174	176	1
21	21	8
4	4	1
31	32	4
165	170	2
107	119	1
103	153	1
25	25	2
67	68	1
76	76	5
1	2	1
53	53	1
35	36	6
156	156	1
117	121	1
153	153	2
141	141	1
163	173	1
173	173	1
21	22	1
18	21	2
28	28	1
3	48	1
189	189	3
85	85	4
40	40	2
58	60	1
127	133	1
72	72	4
105	123	2
5	5	3
13	55	3
27	46	1
53	89	1
113	113	5
89	95	2
131	131	2
179	180	2
83	83	3
102	103	1
152	152	1
2	2	2
62	62	2
75	75	1
143	147	3
106	108	1
83	91	1
125	135	2
108	108	1
98	120	2
155	155	2
131	132	4
52	89	1
7	7	3
18	22	2
154	161	1
62	64	2
177	178	2
114	114	4
130	133	3
42	100	1
16	16	1
31	35	1
37	63	1
162	162	1
11	11	2
164	164	2
24	26	1
82	82	2
155	156	4
121	121	2
94	95	1
74	74	1
17	18	1
96	98	2
27	76	2
40	41	1
161	161	2
179	179	1
94	97	1
111	111	2
53	76	1
179	188	1
93	93	3
34	81	3
135	183	1
76	109	2
123	149	2
42	111	3
60	63	1
43	44	1
135	136	1
29	33	5
9	59	1
48	48	3
69	78	2
121	186	1
170	174	4
9	37	1
49	56	1
157	175	1
167	167	1
26	26	1
115	118	2
159	159	1
70	70	1
153	154	1
6	7	1
87	153	2
56	56	1
77	77	1
29	29	1
139	141	1
168	181	1
90	90	1
63	65	1
65	67	1
150	151	1
30	30	1
144	147	1
178	178	1
27	45	2
53	54	1
132	133	1
180	180	2
143	143	1
156	176	1
106	107	1
138	181	2
70	72	1
148	148	1
19	88	1
52	131	1
134	136	1
139	139	1
147	147	1
27	27	1
171	172	1
95	95	1
37	73	2
6	8	1
109	109	1
107	115	1
