68	69	1
25	25	7
24	24	10
114	114	6
142	143	1
42	42	6
9	13	5
138	138	8
21	23	3
4	110	2
116	116	2
44	46	1
119	119	11
57	57	10
18	20	6
35	36	1
8	8	2
145	145	5
19	19	7
36	36	8
73	73	5
51	58	1
23	23	3
81	81	7
143	144	3
121	122	2
53	53	6
119	121	1
110	118	1
126	126	2
105	112	7
91	93	1
152	153	2
41	41	4
162	162	9
128	128	4
147	147	6
37	37	8
54	54	8
40	45	5
18	18	8
143	148	4
4	4	8
15	15	1
25	45	4
120	121	2
113	126	2
123	155	2
99	99	7
115	118	3
6	6	6
39	39	6
127	127	7
50	50	9
25	27	5
16	16	1
64	64	11
124	125	2
103	168	4
169	169	2
120	120	4
71	71	6
132	133	2
75	82	1
47	48	2
142	153	2
48	48	2
129	130	4
38	38	8
37	38	3
163	165	1
118	118	1
20	53	2
34	34	11
13	13	7
38	39	2
157	157	5
136	137	1
79	79	7
156	156	1
37	47	2
158	158	2
9	9	5
69	70	5
113	114	1
79	97	3
1	2	12
100	100	4
2	7	1
63	63	2
91	92	1
38	47	3
140	151	4
149	149	4
0	17	4
103	104	3
97	97	7
97	98	5
170	170	2
155	155	1
77	77	2
14	14	3
8	37	4
111	111	6
44	49	1
124	143	1
114	131	3
122	122	1
112	112	5
86	86	4
53	167	2
27	27	7
45	49	1
150	150	5
81	98	1
115	115	4
24	25	1
123	153	2
75	75	2
67	68	2
5	5	3
108	116	2
88	88	7
166	166	9
21	21	2
124	124	3
130	130	3
17	20	3
49	49	2
40	40	8
107	107	3
159	159	6
47	47	1
49	50	4
76	76	6
47	49	1
3	3	3
64	98	3
113	113	2
106	106	6
120	161	1
38	44	2
78	78	2
64	107	4
39	44	1
70	70	2
134	134	2
15	51	1
11	12	3
88	107	2
148	149	1
4	7	1
20	20	1
22	22	8
68	68	2
43	43	3
131	131	7
106	107	1
118	122	2
125	160	2
117	118	1
155	156	2
131	161	2
68	110	1
87	87	3
144	144	2
133	133	4
39	46	1
26	26	5
10	10	3
0	8	1
44	44	2
17	17	1
1	1	1
117	167	1
62	101	1
51	51	5
84	85	1
135	135	5
151	152	2
4	43	4
6	9	2
164	164	6
56	56	8
83	83	5
69	69	7
154	154	1
88	89	1
112	113	1
85	85	1
92	93	1
105	105	3
2	56	1
44	47	2
14	15	2
34	35	3
9	45	2
84	135	3
71	72	1
5	6	2
143	147	2
104	104	2
111	122	2
74	74	1
23	24	3
12	139	4
49	51	2
81	82	3
48	49	4
46	48	1
136	136	2
67	67	1
86	87	2
111	112	2
153	156	3
148	148	3
82	90	4
62	168	2
140	140	1
110	110	1
130	167	2
132	132	1
16	43	1
5	54	1
96	96	1
41	44	3
39	40	1
41	46	2
102	156	1
142	142	2
63	64	1
22	23	1
166	167	1
124	162	2
24	39	3
55	55	2
65	109	1
13	14	1
48	58	1
118	169	2
90	143	1
57	62	1
10	11	1
7	36	1
92	92	1
146	147	1
12	13	2
33	34	2
45	45	1
65	66	1
127	147	2
11	38	1
139	140	2
117	117	1
88	154	1
12	24	2
95	95	1
129	129	2
110	112	1
66	66	2
1	10	1
125	125	2
119	123	2
41	42	1
34	36	1
8	45	1
126	127	1
111	113	2
2	3	1
143	143	2
1	20	1
155	160	1
8	9	2
75	80	1
102	103	2
101	128	2
146	146	2
90	91	1
108	108	1
33	33	3
66	109	1
33	36	2
93	93	2
161	162	2
164	165	1
163	163	1
83	89	1
3	43	1
67	109	1
5	48	1
141	141	2
62	63	1
168	168	1
20	22	1
90	90	1
2	2	1
64	73	1
123	123	2
121	121	2
101	101	1
9	16	1
15	21	1
62	62	1
165	166	1
8	12	1
1	42	1
46	46	1
