43	43	8
74	74	17
69	71	4
76	77	9
48	48	6
33	33	13
51	51	16
50	69	4
5	5	10
56	72	4
75	75	13
20	20	4
67	68	6
69	69	14
17	17	22
47	47	18
34	34	9
28	28	17
2	2	17
19	19	15
54	64	4
55	55	16
54	54	23
41	41	25
9	9	13
64	64	21
36	37	4
74	75	4
35	35	18
51	52	5
2	3	7
59	60	9
30	45	2
55	59	3
51	69	5
16	16	11
42	42	32
65	80	7
39	39	21
14	14	32
4	33	6
9	15	3
52	52	20
61	61	25
11	11	11
69	70	6
62	62	17
37	37	14
40	40	18
12	12	21
29	29	15
8	8	12
4	4	14
14	21	5
26	26	15
47	48	8
29	35	3
46	46	15
63	63	17
27	27	21
50	50	13
3	3	15
32	33	2
79	79	12
49	49	9
3	6	5
12	13	2
32	32	15
58	58	21
37	38	2
56	56	18
1	2	4
59	59	20
78	78	9
15	15	12
67	67	14
21	21	8
7	7	16
70	70	18
75	76	3
38	38	23
5	33	3
80	80	7
49	50	4
54	74	1
25	25	17
76	76	11
34	35	10
53	63	3
13	15	4
64	65	6
68	69	5
13	13	10
30	30	9
6	6	8
33	59	3
35	75	4
19	26	3
53	53	18
13	33	2
52	61	6
26	80	2
45	45	11
18	18	5
10	12	2
48	49	2
54	55	3
50	52	5
29	64	4
56	57	4
77	77	15
44	44	5
11	12	7
66	66	20
45	46	1
71	72	9
68	68	8
0	0	14
9	36	2
38	40	1
1	1	11
63	66	1
66	67	6
71	71	4
78	80	2
16	17	2
60	65	1
54	62	4
17	18	1
6	31	4
49	65	2
31	31	13
70	71	6
6	7	8
25	26	4
62	66	2
56	62	5
73	75	2
65	65	2
58	59	1
30	31	3
52	53	1
3	33	1
60	69	1
73	73	15
0	1	3
43	61	2
55	58	2
72	72	5
5	6	7
36	36	7
51	71	1
30	33	1
14	15	1
13	14	6
2	56	3
0	74	4
46	47	3
50	51	6
72	74	2
25	71	1
26	38	1
9	11	3
27	28	5
44	54	1
34	63	4
55	64	3
75	78	4
63	64	9
31	32	3
53	74	1
73	74	3
57	57	5
45	75	1
53	64	2
31	51	1
56	74	2
68	70	1
79	80	2
6	57	1
10	10	3
39	41	2
63	77	2
41	42	2
26	27	1
13	49	1
45	55	1
56	59	4
14	36	1
65	76	1
78	79	2
63	65	2
29	30	4
60	62	1
32	53	4
52	68	1
27	35	1
33	63	5
30	46	1
21	49	3
27	29	2
30	36	3
49	57	1
63	70	1
13	21	1
58	60	2
3	4	2
72	75	1
50	60	1
77	78	1
6	41	2
13	70	4
11	13	2
10	11	2
3	42	1
7	27	2
42	43	2
16	29	1
60	60	3
28	41	1
14	67	1
25	64	2
69	80	1
52	59	1
16	18	1
4	44	1
7	8	1
66	79	1
5	59	1
39	40	1
8	9	1
30	75	1
73	76	1
15	70	1
55	56	1
13	68	1
50	61	2
65	66	1
44	64	1
38	39	1
14	20	1
8	15	1
19	47	1
