9	9	15
159	159	11
165	165	7
1	1	12
108	108	5
197	197	3
124	124	8
30	30	13
195	195	20
189	190	8
138	139	2
67	67	6
3	3	12
167	192	5
180	181	6
100	100	3
10	10	5
106	106	8
18	37	8
8	46	3
194	195	5
152	186	3
56	56	12
170	171	7
109	109	5
71	71	10
156	169	5
131	131	7
160	160	15
107	107	12
150	150	5
104	106	3
147	148	2
77	79	2
55	55	12
132	132	16
102	102	7
123	123	12
113	113	15
181	181	12
43	58	2
137	137	5
18	19	9
157	158	3
141	141	6
82	85	2
157	190	3
132	137	1
110	110	7
46	56	3
103	103	7
108	111	5
119	119	7
175	176	3
36	36	13
23	23	6
11	45	2
160	167	2
189	189	21
146	146	6
101	101	10
95	95	8
90	90	2
49	49	13
121	121	6
106	113	1
101	105	3
175	175	4
157	157	6
54	55	1
52	52	9
118	118	3
120	121	3
184	184	16
139	148	3
2	2	3
165	168	7
40	40	10
149	149	18
115	139	9
56	57	5
147	160	3
33	52	1
169	169	14
5	5	14
28	28	6
12	12	9
180	182	3
5	87	1
129	129	6
162	170	1
88	88	11
184	190	4
188	188	6
82	83	2
142	142	4
37	41	1
3	18	7
69	95	1
74	89	4
70	71	3
51	51	6
79	79	9
190	195	1
57	57	13
165	166	8
172	174	3
158	159	6
148	148	12
63	63	7
19	19	5
31	31	6
62	63	4
180	180	5
28	36	6
173	173	13
15	15	5
27	27	11
102	103	5
0	9	3
7	46	4
114	114	4
50	50	9
70	88	1
99	99	4
193	193	14
139	139	2
89	90	3
4	37	1
187	187	9
85	86	3
185	186	4
35	36	6
134	134	8
163	164	12
166	167	4
101	115	2
101	102	6
64	67	3
143	143	7
84	84	5
196	196	5
105	105	3
29	30	2
178	180	7
166	166	11
188	189	11
29	29	6
151	151	2
96	97	3
130	130	6
27	44	8
34	34	13
77	78	1
26	26	3
46	46	5
182	182	6
164	164	5
65	65	1
15	44	4
183	183	16
152	153	3
108	110	7
144	144	14
174	174	5
183	185	3
177	177	10
62	75	6
139	180	6
94	95	1
187	188	5
149	171	2
123	124	7
104	112	2
142	143	3
111	141	5
122	122	2
135	135	17
171	172	10
103	143	5
58	62	3
41	41	12
30	32	2
118	139	1
34	64	6
59	59	3
167	169	5
108	143	5
176	181	5
176	176	13
170	170	8
106	132	4
155	155	16
115	130	3
45	45	8
134	137	1
138	138	10
191	192	3
32	32	9
24	24	12
194	194	7
39	42	1
183	195	3
184	189	2
154	161	4
182	183	3
76	82	1
20	20	6
63	64	7
156	156	6
100	106	1
35	35	9
156	190	1
30	33	2
169	170	11
0	2	2
126	129	4
104	104	10
78	95	4
17	185	3
157	166	1
112	112	5
73	94	1
17	17	3
62	80	4
144	145	4
145	146	10
32	33	3
167	167	2
126	127	3
60	60	3
186	186	1
18	18	5
44	44	5
19	21	2
48	48	10
87	87	5
154	155	3
162	182	5
153	154	2
69	69	6
6	7	5
100	133	5
6	6	5
121	122	4
79	80	4
37	42	3
190	190	6
40	42	2
119	120	2
6	18	3
137	138	2
47	47	4
21	22	3
0	0	4
36	37	7
173	174	1
114	115	3
115	118	2
168	168	16
69	70	2
111	112	1
165	197	4
172	172	5
128	128	6
39	39	3
158	158	5
103	112	1
18	38	2
3	4	4
141	160	1
107	153	1
106	129	1
154	163	3
70	70	4
59	73	2
178	178	2
53	53	6
14	14	11
15	17	1
111	111	5
25	25	12
150	171	1
103	104	10
4	30	3
57	58	2
153	153	16
149	150	5
67	68	7
108	109	3
115	115	5
58	59	3
7	77	1
83	83	1
150	151	5
26	27	2
136	136	5
66	66	1
5	6	1
167	174	6
97	97	3
191	191	13
60	76	4
86	96	1
113	133	1
109	110	2
50	185	1
54	54	1
104	114	2
162	164	4
160	169	6
172	197	3
25	26	2
4	4	7
56	128	1
28	35	5
158	193	5
143	155	2
47	48	2
147	155	1
141	142	1
126	128	1
126	126	3
136	142	3
5	16	1
81	81	2
96	96	4
22	39	4
104	105	3
12	13	3
39	43	1
61	76	1
116	117	2
43	43	4
16	16	16
154	189	1
33	33	2
147	147	2
22	34	1
68	68	3
82	82	9
129	145	2
174	175	4
62	62	5
162	167	3
185	185	5
193	196	1
117	117	6
171	171	4
105	106	3
192	192	5
86	86	2
181	182	2
58	58	3
7	7	5
16	24	1
145	145	3
162	176	2
120	120	5
164	165	3
37	43	2
152	157	1
7	152	1
49	50	3
168	189	1
127	127	4
24	71	1
27	46	3
163	165	1
59	131	1
78	78	7
102	118	3
125	126	1
151	152	3
116	116	3
9	10	2
108	150	1
130	155	2
54	58	1
175	178	3
87	107	4
169	190	1
20	44	2
0	17	3
37	38	1
161	161	6
156	191	2
172	184	2
162	193	1
134	135	4
142	158	1
102	115	1
38	38	3
73	73	4
99	119	2
22	22	1
101	108	1
179	185	4
10	11	1
19	37	2
156	158	3
191	193	2
77	77	8
38	41	3
11	12	2
174	179	6
144	155	1
32	56	2
160	164	1
163	163	3
136	137	1
28	29	2
13	31	2
1	152	1
58	130	1
118	134	1
37	37	5
139	141	1
161	163	2
17	22	3
0	41	1
193	197	1
155	161	1
85	87	1
35	37	1
168	169	3
173	178	1
173	175	2
135	137	1
164	176	1
79	82	1
107	140	2
93	93	2
167	179	3
166	193	1
139	140	2
80	80	4
3	28	2
148	149	1
76	78	1
154	154	4
127	129	2
161	166	3
145	155	1
63	67	2
25	36	1
82	99	1
89	96	4
25	62	1
32	80	1
64	68	2
179	179	5
193	194	1
63	116	1
11	11	5
75	76	2
76	76	1
157	168	1
150	163	1
112	113	1
125	125	1
158	166	1
105	133	1
146	156	2
42	42	1
93	94	3
3	6	2
23	30	2
23	39	1
83	89	1
9	19	3
148	188	1
180	192	2
28	37	1
46	47	1
21	27	1
85	105	1
157	174	1
135	136	1
89	89	2
163	171	2
50	184	3
82	84	1
132	138	1
6	77	2
155	163	1
13	13	3
119	121	1
172	177	1
163	176	1
74	74	1
59	78	2
94	140	1
138	146	1
160	161	2
20	21	2
99	188	1
184	185	1
116	121	1
41	62	1
105	107	2
159	166	2
24	25	1
159	160	2
167	191	1
132	134	1
113	136	1
143	146	2
152	152	1
131	132	1
105	138	1
120	133	1
98	98	1
9	184	1
16	19	2
84	86	1
94	97	1
20	58	1
28	31	2
117	119	1
25	80	1
110	111	1
71	73	1
139	144	1
15	57	1
143	154	1
68	78	1
32	150	1
152	167	1
108	138	1
133	133	1
16	17	1
45	46	1
173	179	1
190	191	1
178	179	1
179	180	1
76	77	1
85	85	1
12	45	1
134	140	1
