50	50	2
68	68	4
114	114	8
33	33	4
37	37	5
85	91	2
24	24	10
101	101	12
75	75	4
22	23	4
113	113	10
85	85	11
78	78	16
48	48	9
37	39	2
99	99	12
23	32	2
30	31	8
63	63	3
22	22	9
51	87	1
87	87	10
90	90	10
26	26	8
49	77	2
98	98	17
39	39	6
83	88	1
102	102	9
81	81	8
20	22	1
61	61	3
85	87	2
88	90	2
53	59	2
96	97	11
21	21	9
44	44	7
28	28	6
33	34	5
38	39	5
66	66	11
21	25	2
95	96	6
90	91	6
107	108	4
56	78	7
27	27	9
30	30	7
94	95	4
24	25	4
35	35	12
105	109	1
36	37	9
103	103	12
84	84	3
70	70	12
74	74	7
48	50	2
59	59	12
104	106	7
47	48	7
88	91	2
47	47	18
62	62	14
65	65	3
80	80	6
91	92	2
96	96	9
75	76	4
108	109	4
89	89	1
101	102	8
79	81	3
83	83	7
54	54	15
77	77	9
43	43	4
94	94	7
22	24	3
100	100	7
72	74	3
97	98	7
99	100	3
54	61	5
109	110	4
41	44	5
112	112	2
70	71	1
92	92	8
65	72	1
64	65	10
45	45	8
37	38	8
88	105	7
65	66	3
109	111	1
71	71	2
49	49	9
95	95	10
23	23	3
83	85	3
93	94	3
86	91	3
34	34	6
26	27	4
25	25	7
65	67	3
34	35	4
40	42	2
74	75	7
108	108	16
88	88	6
58	58	8
60	60	4
112	113	8
29	31	4
42	45	3
28	29	2
51	52	5
75	79	3
106	107	9
84	86	2
66	67	5
76	76	2
87	88	10
24	26	1
110	110	8
42	42	1
25	28	1
105	105	4
92	95	1
64	66	4
31	31	3
106	106	7
93	102	3
72	73	5
46	46	2
79	79	7
76	77	2
31	33	2
104	109	1
40	41	7
86	87	1
67	67	7
36	36	2
52	52	4
97	97	5
54	57	2
21	22	1
50	51	1
107	107	7
82	84	2
36	42	2
41	42	3
23	24	4
99	101	3
20	23	1
110	112	1
100	101	4
48	49	4
29	29	3
47	83	1
69	73	1
49	51	1
99	106	2
73	73	7
57	57	1
79	80	1
55	55	2
96	111	1
34	36	1
76	78	1
83	84	1
69	69	6
46	48	3
89	90	4
94	96	2
78	79	1
80	83	1
45	60	4
104	107	3
104	108	5
32	32	5
111	111	6
111	112	2
98	99	3
107	110	3
54	55	4
105	106	1
29	40	3
109	112	2
109	109	1
93	93	3
87	89	1
44	45	2
87	90	2
69	72	4
41	41	5
51	51	2
32	33	5
110	111	3
47	49	4
38	38	8
47	84	1
104	104	1
20	20	1
91	107	1
45	46	1
85	86	1
35	36	1
86	92	2
91	93	3
43	45	1
89	91	1
108	110	1
34	55	1
27	33	3
26	32	1
58	60	2
20	21	1
49	50	1
80	85	1
102	103	2
80	81	1
55	56	1
56	57	1
105	107	1
19	23	1
56	60	1
43	44	2
51	73	1
103	104	1
27	28	3
91	91	3
71	72	1
47	82	2
82	85	1
115	115	1
107	109	1
63	65	1
106	109	1
86	86	2
28	30	1
