113	113	1
101	101	2
9	9	8
10	101	2
51	51	2
47	47	8
120	120	6
62	63	2
11	11	26
45	45	7
16	16	3
27	27	17
114	119	3
21	21	3
17	17	3
58	128	2
24	25	4
33	33	3
94	95	2
133	133	4
77	77	4
7	29	1
0	0	3
108	108	8
92	93	3
12	12	10
36	36	4
6	100	1
80	80	6
57	101	1
24	101	1
15	15	8
96	97	3
127	127	5
84	84	12
6	99	3
40	40	3
112	112	5
59	59	4
121	121	1
103	103	6
117	117	4
61	62	3
132	133	5
15	41	2
58	58	1
108	124	2
108	109	7
81	81	6
28	28	5
82	83	4
118	118	6
47	48	2
26	26	5
32	32	3
21	85	2
69	70	1
63	63	6
6	6	8
33	102	1
123	123	4
134	134	8
106	106	3
76	129	3
90	91	5
13	13	9
100	107	6
18	61	5
23	24	2
88	95	2
31	61	3
29	36	5
129	129	5
19	62	3
6	93	1
25	64	4
102	102	6
20	34	1
10	10	7
21	89	3
113	126	3
104	104	4
67	68	1
11	14	2
74	74	14
24	24	3
100	100	6
91	91	8
95	95	3
126	133	3
25	26	4
48	49	2
75	75	3
60	60	5
39	39	6
57	58	2
41	48	4
19	19	7
90	90	3
5	21	3
10	69	2
14	82	5
130	130	2
26	93	3
27	82	1
89	90	4
97	97	6
26	27	2
128	128	4
17	18	5
112	129	2
129	134	2
15	74	1
76	84	1
116	116	1
12	13	1
100	101	6
82	84	3
82	96	3
92	92	4
101	107	4
94	94	9
125	125	2
35	75	1
69	69	4
43	43	1
83	96	5
93	94	2
93	93	10
7	7	6
122	123	4
48	50	2
87	89	1
20	45	5
116	121	8
8	13	1
8	8	4
6	92	1
114	114	4
26	30	4
81	122	2
79	79	5
34	34	3
94	126	1
40	42	2
7	100	2
35	35	2
4	5	2
76	76	6
29	29	5
57	57	2
65	65	6
95	99	1
46	46	4
30	30	6
73	73	6
82	95	4
31	32	1
76	77	3
13	101	2
42	42	8
14	14	1
114	133	2
96	99	1
15	60	4
14	55	1
6	7	1
56	56	1
70	70	2
85	86	2
24	83	2
103	105	3
119	124	1
27	94	2
58	83	1
19	107	1
55	101	1
109	109	1
33	46	1
4	91	4
88	88	6
69	76	3
33	34	1
71	71	1
101	102	1
131	132	2
82	97	2
126	127	1
41	41	5
104	122	2
25	38	2
87	87	2
110	110	7
29	31	4
4	88	1
62	62	2
82	82	3
48	48	2
125	126	2
4	4	3
73	74	2
72	72	2
26	82	1
19	21	2
32	106	1
79	81	1
68	68	3
66	66	1
101	106	2
5	7	3
95	96	1
7	59	3
50	50	1
99	99	7
44	44	1
131	131	2
5	99	2
10	75	1
23	23	6
16	45	1
18	44	1
5	6	3
30	32	1
11	26	2
86	86	4
41	42	2
29	60	1
99	110	1
3	3	4
2	102	1
90	93	2
76	111	2
46	121	1
5	19	1
35	36	1
47	92	1
32	75	1
39	40	2
110	111	1
48	56	1
102	103	1
55	56	1
51	55	3
56	57	2
81	82	2
67	67	1
4	30	3
33	61	2
95	98	1
22	59	2
108	121	1
3	104	1
5	5	2
29	30	1
108	110	1
9	47	3
56	87	2
4	26	1
98	98	1
11	84	2
56	101	1
8	15	1
4	43	2
55	55	4
122	122	1
64	64	5
83	86	2
85	104	1
121	122	1
21	94	2
54	54	1
26	28	1
28	80	1
25	101	1
59	111	1
60	62	1
56	96	2
2	18	1
72	73	1
119	119	3
22	39	2
107	110	1
107	107	2
26	47	1
124	124	5
7	83	1
85	94	1
114	115	1
83	83	1
27	43	1
106	107	1
78	80	1
65	66	1
11	12	2
0	35	2
95	97	1
41	57	1
33	45	1
109	110	1
129	130	1
70	122	1
6	19	1
23	25	2
18	18	1
48	93	1
8	95	1
80	129	1
14	97	1
55	90	1
41	44	1
38	38	1
17	39	1
58	82	2
114	116	1
6	11	1
8	9	1
83	87	1
25	25	1
21	81	1
123	129	1
30	48	1
47	62	1
15	17	1
78	78	1
87	90	1
74	75	1
48	79	1
6	90	1
8	47	1
