1	125	5
83	83	10
4	86	2
5	6	2
9	9	4
129	130	3
14	14	3
117	120	3
10	56	1
67	67	4
48	51	2
82	84	5
92	92	7
85	85	5
71	71	3
102	102	11
21	21	1
120	141	4
53	53	7
76	76	8
56	74	1
111	111	6
68	74	3
96	96	7
118	118	3
123	125	1
23	23	11
130	130	7
57	57	6
139	139	9
130	135	4
60	60	6
50	50	1
30	30	1
70	70	5
114	139	3
77	78	3
35	35	8
17	41	2
14	21	3
108	108	5
135	135	5
76	144	2
124	124	8
103	142	2
25	26	2
2	4	2
127	128	5
28	108	3
128	129	9
38	38	10
47	47	3
22	22	2
143	144	7
61	61	13
77	90	1
114	119	3
68	68	4
62	62	16
128	128	8
0	56	1
99	101	3
13	13	9
54	66	2
61	90	4
81	81	13
114	115	2
80	80	5
129	129	9
40	40	11
97	104	2
131	131	7
15	20	2
27	27	2
56	124	8
103	103	1
35	36	1
134	134	7
110	112	3
55	55	10
82	82	6
63	63	8
120	120	9
12	12	4
132	137	3
34	35	3
29	29	14
66	66	6
59	60	9
107	107	6
19	27	2
139	140	3
85	94	4
89	89	4
27	30	3
104	104	2
113	130	3
122	122	5
19	38	1
91	91	6
9	52	2
101	101	6
117	134	7
9	57	5
65	65	2
18	18	2
105	106	2
5	133	5
116	121	4
70	84	7
79	79	18
90	90	1
136	136	7
71	120	2
78	78	5
25	25	5
4	35	1
71	72	4
140	140	6
67	82	4
2	135	3
135	138	1
127	132	3
69	70	2
122	144	2
52	52	4
87	87	6
104	117	3
49	49	8
36	36	3
99	99	5
55	60	1
136	138	2
39	39	3
131	132	2
87	95	3
125	125	5
94	94	7
15	15	6
132	133	5
72	109	1
55	58	2
69	69	4
100	100	3
95	95	6
99	100	1
50	87	1
85	125	4
40	41	1
10	10	10
92	94	1
123	123	2
110	110	7
12	13	1
15	16	8
19	19	9
141	141	4
103	131	1
70	88	2
115	115	5
42	42	2
124	125	2
108	125	2
129	143	2
144	144	4
4	47	1
79	87	3
85	127	2
93	96	1
64	66	2
93	93	3
18	25	1
34	34	8
43	43	2
90	91	2
32	32	5
31	32	3
4	14	1
13	14	1
135	136	2
74	74	10
65	70	6
89	129	1
11	26	3
119	119	4
11	56	1
113	113	4
12	35	2
15	34	2
134	135	3
138	138	7
33	34	4
107	132	6
119	120	3
17	17	6
26	26	2
43	50	1
88	88	3
61	74	3
113	116	1
6	6	4
33	33	4
116	116	3
132	132	5
128	130	1
6	16	2
138	139	6
97	105	1
92	93	5
112	112	2
121	121	3
117	117	2
8	16	2
8	8	3
109	109	4
4	34	3
110	111	3
78	128	2
9	10	1
28	28	4
76	78	1
100	101	5
72	86	1
63	117	4
8	117	2
64	64	4
98	140	1
85	91	3
95	139	1
97	97	5
40	140	2
125	131	4
118	137	1
29	101	4
88	90	1
5	5	5
72	72	7
49	50	1
65	91	2
106	106	1
47	49	1
39	41	2
9	11	1
55	56	1
137	138	1
136	140	3
59	59	5
86	92	1
142	142	1
20	20	8
31	31	3
0	41	1
56	56	2
21	37	1
118	119	1
127	135	1
65	82	2
80	84	1
3	6	3
62	78	1
1	1	1
24	24	1
3	33	1
48	53	2
16	21	1
64	65	3
51	52	2
73	73	3
58	140	2
41	41	6
104	107	3
108	109	1
50	52	2
127	127	1
83	105	3
43	47	1
92	140	1
3	3	3
131	133	4
19	20	2
111	115	1
17	18	3
1	53	2
11	25	1
31	35	2
74	75	1
111	112	5
21	32	1
47	50	2
105	108	1
145	145	1
2	2	2
98	103	2
112	116	1
83	121	1
104	116	2
72	73	2
107	108	1
96	97	1
124	138	1
1	2	4
2	3	1
58	129	1
143	143	2
1	33	2
126	126	3
91	97	1
62	63	2
99	131	1
76	77	3
125	126	1
75	96	1
103	141	1
54	62	1
20	24	1
101	102	2
83	84	1
86	88	1
59	63	1
100	123	3
6	11	1
46	47	1
10	11	1
113	127	1
91	93	1
56	57	2
9	51	2
136	139	3
64	70	1
14	20	1
103	140	1
14	24	1
80	81	1
4	16	3
137	137	2
125	132	1
134	136	2
16	26	1
109	110	1
105	105	1
129	144	1
84	84	1
16	16	1
99	134	1
126	143	1
75	75	1
66	77	1
111	135	1
21	143	1
96	107	1
39	40	1
69	119	1
81	142	1
138	144	1
19	37	1
3	4	1
125	134	1
10	41	1
