97	100	2
68	70	6
90	90	3
36	37	3
77	77	7
32	33	2
85	86	3
98	99	5
30	30	2
53	61	1
68	68	5
30	31	2
21	22	1
66	66	4
47	47	9
38	38	4
22	23	3
82	82	10
23	23	7
83	83	6
78	78	11
113	113	4
64	67	4
54	54	3
28	28	1
44	44	2
99	99	5
95	99	2
47	48	2
71	71	7
84	84	9
73	73	5
35	36	6
55	56	6
89	89	10
109	110	8
62	62	5
48	48	3
72	72	7
57	57	2
95	98	3
53	60	1
100	100	3
37	74	2
97	106	2
76	76	8
81	83	3
21	21	7
74	74	6
89	102	1
28	48	2
84	98	2
91	91	15
79	79	3
110	110	12
97	97	7
70	70	10
63	70	3
53	54	3
75	75	2
101	101	5
53	55	2
58	59	1
50	50	7
81	81	3
50	51	4
103	104	3
101	103	6
20	20	2
24	24	7
107	107	2
59	60	2
78	79	3
115	115	2
55	55	3
106	107	4
95	95	2
82	88	2
63	69	6
23	26	1
61	61	6
102	102	4
56	56	2
89	90	3
30	32	2
111	111	8
95	97	3
80	80	1
112	112	1
27	27	3
104	104	2
83	85	3
22	22	1
60	60	9
23	53	2
102	103	3
66	67	1
104	108	1
74	75	4
67	67	4
32	32	5
64	64	3
58	58	6
97	98	3
63	64	1
103	103	6
57	59	1
34	34	4
105	107	4
41	41	1
33	33	6
57	58	2
104	105	6
51	51	4
91	93	1
65	65	2
49	49	5
59	59	4
101	102	2
90	91	2
76	78	4
110	111	3
98	98	4
34	55	1
62	63	1
20	24	1
76	77	5
32	100	1
101	104	1
91	92	4
54	55	1
45	45	1
87	87	8
53	58	1
112	113	1
86	87	4
96	96	7
64	65	1
55	62	1
108	108	6
84	99	2
96	103	2
85	85	1
102	104	1
21	23	1
31	32	1
41	76	2
56	57	1
28	29	2
69	70	2
93	94	1
109	109	1
80	81	6
42	44	1
71	75	1
90	110	3
77	78	1
92	94	2
31	84	1
38	68	3
88	90	2
76	108	1
92	92	2
100	101	2
57	61	1
34	36	3
79	81	2
62	65	1
88	89	1
51	52	3
45	47	2
48	49	1
31	31	1
105	106	1
26	27	1
113	114	1
43	90	1
93	93	1
25	91	1
69	69	2
42	43	2
39	39	1
87	88	1
72	79	1
95	96	1
63	63	2
44	48	1
43	43	1
100	108	1
39	40	1
75	77	1
26	26	1
82	83	1
26	53	1
27	90	1
