22	22	5
110	110	12
90	90	12
37	97	5
5	5	4
8	9	2
96	96	6
16	18	1
132	132	13
127	127	10
88	88	8
20	20	8
133	133	14
137	137	15
37	37	3
124	124	13
126	126	11
95	95	9
85	86	9
134	134	9
136	136	14
100	100	4
88	90	1
91	92	4
72	78	2
108	108	3
103	103	11
113	113	11
33	33	4
107	107	13
128	137	5
114	114	10
21	21	8
125	125	9
36	36	8
77	77	3
99	105	2
117	117	6
17	17	1
114	136	4
129	131	2
116	116	11
137	140	3
119	120	7
138	139	5
117	118	5
103	109	2
15	22	3
103	108	3
71	72	8
111	112	2
6	6	5
130	130	20
74	75	5
12	76	1
121	121	8
138	138	8
136	139	2
139	139	4
6	7	3
78	78	5
114	115	4
17	18	5
131	131	18
14	14	4
128	128	12
118	118	7
12	12	1
95	96	2
119	119	6
79	79	14
111	111	1
3	4	2
105	105	2
75	75	6
27	29	2
101	102	2
112	112	11
15	16	1
7	7	5
72	73	4
91	91	5
132	133	6
127	139	2
2	15	4
135	135	14
85	85	9
26	26	6
81	81	5
97	114	1
73	73	5
116	117	6
140	140	5
28	29	3
92	92	5
101	101	11
29	30	5
123	123	9
124	125	2
120	120	13
2	2	4
74	74	8
129	129	7
104	105	1
78	79	2
126	128	3
87	87	9
32	32	7
102	103	2
102	102	10
94	94	3
3	3	2
0	15	3
23	24	1
107	108	3
31	31	3
76	76	14
5	7	2
13	14	1
89	90	3
98	98	8
122	122	13
106	107	1
26	27	5
97	97	12
130	131	1
12	13	2
99	99	4
82	82	3
25	25	5
86	86	1
89	89	7
101	107	3
79	80	2
12	23	2
122	123	3
11	11	1
23	23	5
35	35	2
117	124	3
27	27	4
126	127	2
71	71	3
81	83	3
16	16	4
86	89	1
94	95	1
93	93	1
98	101	5
18	18	3
120	121	1
124	126	1
16	17	4
104	104	5
27	28	3
128	129	2
74	78	1
99	100	4
118	119	3
110	111	1
123	124	7
23	32	3
112	113	1
13	22	3
19	21	4
129	137	1
93	94	2
72	72	5
84	111	1
89	91	2
125	126	2
72	82	2
121	122	3
109	109	2
90	92	1
19	19	2
19	20	2
137	138	3
3	17	1
131	132	1
127	128	5
135	136	1
71	73	1
3	7	3
84	105	1
34	34	3
85	87	1
38	38	4
87	88	1
32	33	2
98	100	3
85	121	2
101	108	1
105	106	2
115	115	2
107	109	1
84	85	1
100	115	1
73	82	1
84	84	2
0	0	1
124	127	1
108	110	1
8	38	4
80	80	2
115	126	1
13	13	1
14	15	1
114	129	3
108	109	1
140	141	2
6	37	1
4	16	1
137	139	1
115	116	1
116	124	1
20	21	1
