65	65	3
42	43	1
131	131	9
106	114	3
96	96	11
120	122	1
117	117	7
5	5	3
132	132	2
87	87	10
76	76	7
112	118	1
108	121	5
52	89	2
59	59	3
98	100	2
122	122	5
83	95	1
77	80	3
97	97	7
60	60	10
47	59	3
48	48	4
11	11	11
106	106	7
56	64	3
74	74	6
44	44	7
54	54	16
69	70	1
8	9	3
101	118	3
90	90	11
21	22	2
126	126	2
36	36	4
79	117	3
62	63	11
99	99	7
120	120	5
114	114	5
91	92	6
25	25	7
59	60	2
124	126	4
78	96	1
123	123	11
98	98	3
61	61	4
87	88	2
100	106	5
0	0	2
122	123	5
1	1	3
121	131	4
72	72	4
29	29	9
20	21	1
68	68	4
111	111	11
89	89	2
86	87	2
112	113	4
78	81	2
116	116	8
94	94	3
54	60	1
110	110	2
107	111	1
11	12	2
94	95	6
113	113	8
17	17	6
95	96	1
15	36	1
49	49	10
104	105	2
80	80	4
14	15	1
69	69	5
62	64	9
22	22	11
67	67	4
121	121	8
87	95	3
89	105	3
128	128	5
27	28	5
28	70	3
50	50	2
115	132	4
45	47	1
71	71	5
33	33	4
95	95	6
106	107	2
105	106	5
52	53	1
92	92	8
129	129	4
12	12	4
77	77	4
130	130	4
125	125	9
77	81	2
70	70	2
30	32	2
53	53	5
87	94	2
88	88	3
71	72	3
103	104	2
82	83	2
33	34	3
105	105	6
114	115	2
6	7	2
121	133	1
79	79	3
113	115	3
35	35	2
58	58	1
135	135	4
35	36	2
107	114	1
73	77	1
56	56	4
122	124	3
119	119	3
81	81	3
83	84	3
95	97	2
124	125	3
14	14	2
104	104	2
22	43	2
79	80	1
76	77	1
7	7	3
93	93	8
124	124	7
108	109	4
107	117	2
57	64	4
121	126	2
127	129	1
106	112	2
5	6	1
34	34	1
63	64	1
60	63	1
15	16	4
126	127	2
134	134	1
133	134	5
43	43	5
86	86	5
0	1	2
27	47	1
63	63	8
82	93	1
35	38	2
106	117	2
78	78	8
2	2	5
97	99	2
27	52	4
129	130	3
83	83	1
72	73	2
85	85	5
24	25	3
77	78	4
42	44	1
45	45	3
15	15	2
14	31	1
23	24	4
56	58	4
118	120	2
55	86	1
130	131	1
128	131	3
123	126	1
5	7	4
26	26	1
24	26	3
8	8	1
129	133	1
62	62	5
127	127	2
14	33	2
20	43	3
15	47	1
85	117	1
115	115	7
20	20	1
95	113	1
103	103	6
102	102	4
84	84	4
59	64	1
18	18	1
66	66	1
30	30	2
100	120	1
78	80	2
29	32	1
23	23	3
52	52	3
127	128	3
24	24	2
101	101	3
97	125	1
26	27	1
60	62	2
38	38	1
55	55	1
84	85	1
26	29	3
84	118	2
14	34	1
107	107	3
105	118	1
61	64	1
112	112	3
17	18	4
112	114	1
31	32	2
70	71	2
90	91	1
23	44	1
129	131	1
57	57	3
84	86	1
107	109	3
92	96	1
27	27	1
102	134	2
106	122	1
21	21	2
82	94	2
77	89	2
60	61	1
43	44	1
68	82	1
112	115	1
100	100	3
16	16	1
37	38	2
1	2	2
117	120	1
126	128	1
21	23	1
28	34	2
123	124	1
13	13	1
68	69	1
7	9	1
96	97	1
115	131	1
89	90	3
65	67	1
28	28	1
42	45	1
93	94	1
118	121	1
28	29	1
132	133	1
28	63	1
69	89	1
113	114	1
7	11	2
120	121	1
65	66	1
85	92	1
118	118	2
10	10	1
47	47	1
81	82	1
106	110	1
82	87	1
31	31	1
131	133	1
