78	79	5
108	108	4
46	47	5
144	149	1
68	70	2
111	112	5
54	54	7
80	80	19
8	8	12
151	153	1
136	136	11
126	144	3
111	111	9
20	20	3
100	101	10
9	12	5
3	17	1
48	49	8
127	127	16
1	1	14
21	21	7
141	141	13
115	116	5
140	140	8
28	28	6
84	84	8
7	7	20
16	16	9
128	139	2
155	155	3
103	103	4
17	17	10
33	33	18
24	27	1
22	108	2
70	78	6
116	151	3
105	105	13
99	99	13
112	112	13
132	132	10
119	119	13
124	124	10
73	73	13
22	22	5
153	153	16
152	153	3
148	148	22
5	5	16
27	27	26
143	143	6
120	124	2
137	137	7
90	91	13
69	69	7
56	56	8
32	32	11
113	153	6
2	4	5
151	151	4
81	81	9
135	135	18
42	42	10
28	29	5
2	5	4
38	38	7
14	33	3
103	104	8
68	68	7
115	124	5
77	78	6
115	127	3
87	87	5
52	53	6
92	92	8
45	150	2
70	71	8
32	39	4
2	2	10
117	144	4
4	5	4
20	38	1
146	157	3
120	144	4
118	119	4
117	117	9
131	131	13
116	157	4
94	104	6
110	110	21
134	154	5
48	50	5
116	140	4
10	10	5
76	76	9
21	37	1
137	138	2
113	154	3
55	55	8
45	45	9
150	150	8
4	4	5
96	96	11
41	41	11
134	134	17
33	41	1
6	8	4
123	123	10
102	102	2
82	82	10
33	36	8
70	70	7
128	128	8
40	40	5
91	91	4
137	149	1
123	124	2
25	26	3
144	145	3
11	11	12
36	36	10
64	64	4
13	14	5
140	141	6
157	157	13
34	35	2
55	91	1
61	62	1
121	122	6
31	31	12
19	19	6
84	86	1
112	118	1
13	13	9
49	49	6
40	80	3
138	138	14
22	109	2
69	71	2
79	89	3
34	34	5
52	52	8
89	89	11
7	8	4
35	35	6
44	45	3
2	3	4
134	136	2
100	100	4
53	53	8
88	89	10
37	37	14
141	142	8
83	85	4
39	40	5
43	43	3
120	121	4
87	88	5
95	96	4
129	130	8
118	118	7
31	32	6
1	2	5
15	15	6
156	157	4
40	95	3
129	129	4
85	85	7
29	29	8
54	55	4
77	80	4
88	88	7
115	117	4
147	147	10
43	106	5
144	147	2
126	126	13
94	95	2
133	133	7
8	9	2
0	0	15
13	15	3
30	30	9
9	9	5
154	154	6
85	91	5
136	138	1
124	125	3
51	51	4
26	26	7
72	72	11
23	23	9
34	51	2
63	64	2
48	48	15
104	104	5
95	95	2
116	117	5
104	105	2
3	3	12
156	156	13
135	137	2
147	148	7
20	22	2
115	115	8
71	77	1
27	92	1
109	109	4
139	141	4
39	39	1
86	87	1
94	149	1
35	41	4
30	32	3
47	47	12
114	115	4
38	82	3
33	37	1
158	158	6
109	110	3
75	76	6
116	127	3
18	18	11
25	25	13
105	107	2
119	140	3
32	33	7
46	150	3
43	44	7
145	145	7
97	97	5
1	8	2
67	69	4
90	92	5
46	46	5
69	70	9
98	98	6
121	121	4
48	82	2
65	107	2
24	92	2
94	105	2
67	67	13
127	151	4
27	28	1
63	63	5
93	93	7
114	116	2
122	122	4
142	142	4
38	39	6
83	84	3
44	44	7
6	19	1
144	144	11
76	107	3
132	133	2
29	30	2
116	120	2
90	90	4
93	94	6
5	6	2
106	138	2
39	91	3
71	71	2
136	137	7
34	41	3
41	76	2
14	14	4
86	88	1
9	10	8
130	130	6
138	156	4
120	120	4
117	118	2
112	113	4
86	86	8
113	124	1
115	135	4
6	6	5
8	18	1
3	154	1
12	24	4
146	147	11
64	66	2
40	41	3
125	134	3
79	108	4
37	39	1
40	75	2
38	96	1
19	154	2
119	121	2
22	107	1
120	147	3
24	25	4
67	71	2
14	16	1
29	31	1
146	156	4
3	28	2
12	12	6
101	106	1
127	150	4
24	24	10
8	25	1
41	55	1
114	127	3
50	50	7
8	10	1
155	156	1
142	143	5
35	38	3
38	85	1
20	21	2
123	125	2
121	143	2
119	120	1
3	112	3
1	7	3
62	63	1
83	83	9
106	106	3
82	83	1
66	70	1
34	102	1
149	149	1
42	78	3
14	37	1
66	66	9
149	154	2
33	34	2
12	13	2
5	122	1
67	68	2
137	140	1
70	77	2
143	144	2
66	72	2
146	146	2
133	134	1
122	123	3
94	100	4
81	152	5
15	16	2
23	25	3
130	131	2
21	38	2
145	154	2
45	46	7
4	137	2
139	152	1
103	127	1
18	19	4
123	133	3
18	20	1
94	94	2
102	105	1
126	127	2
120	126	1
154	155	1
22	38	3
79	81	1
53	152	1
123	137	2
84	85	3
107	107	2
51	52	1
78	88	1
112	117	1
9	15	1
26	28	2
8	17	1
113	113	3
67	70	1
33	35	1
3	4	2
144	146	3
125	125	3
65	71	1
139	139	4
48	88	1
42	71	1
80	82	2
96	97	1
113	118	1
120	148	1
56	67	1
116	131	4
82	90	1
114	119	1
146	148	1
145	146	1
51	82	1
157	158	1
3	108	2
107	108	1
138	148	1
79	79	3
85	86	1
0	1	1
50	51	2
0	8	1
147	152	3
131	132	1
129	136	2
90	101	1
65	65	1
77	77	2
78	78	2
37	38	1
0	156	2
51	53	1
13	16	1
125	128	2
35	36	1
65	66	1
39	77	1
128	129	1
97	98	3
121	141	2
101	101	2
19	26	1
112	124	1
14	26	1
135	136	1
47	56	1
16	96	2
47	49	2
103	138	1
124	134	1
49	81	1
82	87	1
35	47	1
121	144	1
22	25	1
116	116	2
16	24	1
36	79	1
143	145	1
124	144	1
71	72	1
22	23	1
5	8	1
