40	133	3
11	11	12
91	92	3
128	128	5
17	29	3
118	118	1
46	46	4
86	86	2
63	63	16
25	25	10
39	42	1
68	72	3
88	88	2
27	90	2
15	17	4
56	56	1
35	36	1
108	109	2
25	57	1
80	81	1
17	17	3
16	16	3
20	21	6
55	56	2
90	91	10
58	90	3
124	124	4
74	74	2
32	32	3
43	45	2
33	72	2
49	78	2
14	14	3
73	74	5
37	37	1
77	110	2
70	70	12
21	55	4
83	83	12
77	77	4
92	92	12
5	5	8
90	90	6
7	29	4
75	76	6
46	47	2
10	10	11
0	0	3
19	19	1
4	4	7
25	93	1
36	37	2
39	126	1
95	99	2
4	60	3
67	67	3
44	45	2
69	69	5
81	82	2
28	94	1
47	47	4
3	3	2
4	35	2
129	129	2
115	116	1
6	6	7
63	76	1
55	55	6
87	87	7
48	48	5
9	94	1
68	68	6
33	33	1
31	31	6
35	35	5
57	74	2
97	97	2
27	27	3
57	82	2
21	21	6
16	20	2
92	115	2
80	80	3
64	64	7
107	107	2
76	77	6
99	101	2
29	49	3
34	45	1
87	88	2
71	71	3
38	38	1
91	96	1
101	101	8
73	73	3
61	61	3
7	45	3
61	63	2
101	124	1
8	8	7
67	70	2
125	125	4
8	16	1
65	65	4
91	91	2
22	36	4
21	84	6
42	74	3
49	93	4
82	82	2
74	81	1
134	134	7
7	85	4
83	87	2
18	18	3
98	98	3
65	72	2
103	103	1
78	110	2
72	72	6
2	2	1
8	10	2
127	132	1
15	16	2
112	112	5
100	100	2
114	114	1
78	80	1
74	123	1
78	81	2
102	102	3
6	7	1
27	32	3
75	75	4
30	30	6
86	87	2
126	128	1
15	55	1
99	100	1
29	29	4
79	80	3
1	1	1
62	62	4
78	97	1
20	22	1
7	7	3
89	89	1
115	115	1
99	99	3
78	125	2
43	43	2
90	98	2
39	81	1
7	27	3
42	42	1
56	104	1
27	28	3
15	21	1
17	30	2
128	132	1
110	111	2
84	125	1
23	24	1
45	45	4
108	108	1
9	9	2
58	62	2
27	80	1
132	132	2
72	73	2
84	86	2
19	20	1
107	111	2
93	94	1
31	32	1
89	91	1
61	62	1
11	86	3
104	104	2
95	95	3
21	58	2
73	122	1
25	48	1
21	49	2
93	93	2
111	112	1
15	32	1
112	114	1
23	23	1
42	58	2
8	9	2
28	43	1
7	65	1
33	38	2
35	46	2
117	118	1
25	82	1
78	79	1
46	71	2
11	14	1
10	11	2
60	60	1
11	84	1
60	61	2
57	58	2
121	121	1
45	97	2
20	61	1
18	19	1
84	84	2
82	125	1
22	76	2
102	123	2
79	82	2
87	124	1
58	58	1
14	25	1
45	46	1
45	64	1
114	115	1
59	59	1
68	69	1
70	73	1
28	28	1
90	107	1
21	25	1
41	41	1
8	91	2
100	101	1
14	15	1
57	126	1
26	27	1
