94	95	1
67	77	1
72	72	15
95	125	2
91	92	7
60	60	4
92	93	3
34	43	3
130	130	10
71	72	9
79	87	4
82	83	4
92	92	10
83	83	5
13	13	5
115	130	2
93	93	12
22	23	1
21	25	3
10	20	2
84	84	4
92	96	2
4	5	5
5	5	10
66	66	6
21	21	5
109	129	1
12	12	7
57	58	3
43	79	1
58	59	6
95	95	3
131	132	3
35	80	6
124	124	3
115	116	1
112	113	7
131	131	4
90	90	12
14	14	5
91	91	6
97	97	5
9	9	9
28	28	5
127	129	2
95	96	1
135	135	4
116	120	6
125	128	3
15	19	4
93	94	3
95	109	3
76	76	14
127	127	8
71	71	11
85	85	5
55	81	5
29	69	1
81	81	9
54	79	3
30	30	6
18	25	2
115	124	4
55	62	1
23	48	2
88	88	12
77	124	3
125	125	9
132	133	1
45	45	8
39	39	2
98	107	2
9	19	2
67	109	3
65	77	3
87	89	3
99	104	2
132	132	11
56	56	11
105	115	1
52	54	4
114	114	8
7	7	14
86	90	1
37	82	1
99	99	7
25	25	12
4	4	6
74	74	11
120	120	6
116	118	1
122	122	7
62	78	2
6	18	2
126	129	1
89	90	6
120	123	5
26	26	4
104	104	18
18	18	2
115	120	1
122	123	2
80	82	1
59	59	8
1	5	3
62	111	4
58	62	1
8	9	3
66	91	2
81	132	2
94	94	7
55	79	3
19	19	8
108	108	5
69	133	3
129	129	4
86	121	3
75	75	13
113	126	4
24	24	7
69	69	7
115	115	14
78	78	3
102	102	18
6	6	2
54	54	4
117	126	1
112	112	7
34	44	1
105	105	6
123	123	13
79	79	5
50	51	5
21	23	6
109	109	7
63	63	6
11	13	4
133	133	2
83	85	4
33	34	6
78	109	4
0	2	2
119	120	2
22	22	2
67	122	1
16	16	5
10	10	5
68	68	5
67	67	4
79	82	3
65	67	6
38	38	4
54	81	2
50	50	10
29	29	3
75	76	2
114	125	6
119	119	11
49	50	12
118	118	6
14	35	3
53	135	2
120	121	5
49	49	3
82	82	11
64	64	10
58	58	9
3	4	4
93	105	4
27	70	3
18	20	3
67	78	1
62	62	5
111	111	5
36	36	2
15	15	8
43	44	2
73	100	3
53	53	15
110	111	2
81	133	2
56	59	3
33	33	4
100	100	11
6	134	2
98	102	1
27	27	2
67	68	1
84	87	1
92	114	1
77	80	4
33	35	2
2	2	4
30	32	1
29	30	1
130	131	3
37	44	1
46	69	2
78	80	1
60	61	2
47	47	1
127	128	2
57	57	7
84	85	3
65	65	5
54	58	4
23	26	2
106	106	6
76	80	2
32	33	2
61	61	6
113	115	4
34	34	6
98	98	8
8	8	3
98	110	3
53	54	4
73	73	5
86	87	3
101	101	4
114	126	1
9	20	3
19	22	1
52	61	3
66	109	3
96	96	4
122	129	2
8	20	2
107	109	1
73	101	2
17	19	3
25	26	4
107	107	2
99	101	5
50	81	2
26	27	2
101	111	1
126	127	5
112	132	1
70	100	1
123	130	2
60	62	3
113	113	7
20	20	1
117	117	10
43	43	3
49	86	1
73	103	1
115	126	4
107	108	1
98	101	1
9	16	3
25	50	2
69	132	2
7	28	1
35	35	3
70	70	8
119	122	5
96	123	1
16	17	3
80	80	5
33	36	1
50	82	1
97	98	4
68	84	1
108	111	2
51	51	2
92	129	2
47	59	1
18	21	1
86	94	3
49	82	1
116	116	9
12	28	2
106	108	4
0	0	4
28	42	3
20	25	1
77	77	4
117	121	2
28	59	1
121	121	2
38	80	5
1	1	7
83	84	1
64	65	2
126	126	5
17	18	1
55	56	2
96	106	1
44	46	3
110	110	4
67	107	2
26	34	3
54	55	2
50	52	1
37	37	1
114	115	3
87	87	3
48	48	1
86	89	1
35	37	1
14	19	3
56	57	1
122	130	2
79	80	1
86	86	13
10	19	1
95	102	2
69	87	2
13	15	1
3	3	1
25	85	1
56	62	1
44	44	1
69	96	1
89	89	6
92	97	1
99	100	1
99	102	3
24	25	5
31	31	7
70	71	2
78	79	1
95	100	1
27	32	3
45	46	1
97	100	1
64	108	2
84	110	1
47	80	4
124	126	1
55	64	1
38	45	3
9	11	2
75	93	1
52	79	1
42	43	2
50	56	1
78	123	1
7	13	1
107	111	2
85	86	1
78	85	2
36	37	2
26	58	1
65	124	2
77	79	3
103	103	3
19	23	2
82	84	2
1	2	2
90	121	1
28	29	1
128	128	3
8	14	1
68	77	2
73	74	2
134	134	1
94	128	2
7	8	2
124	125	2
23	23	2
98	99	1
2	4	3
102	103	1
52	52	1
62	114	1
85	95	1
78	83	3
65	76	3
73	75	1
69	95	1
84	122	1
100	102	1
48	50	1
118	122	1
129	131	2
15	20	1
65	97	1
8	15	1
21	22	3
56	78	3
78	114	3
48	83	1
20	21	1
43	87	1
44	49	2
90	92	1
86	117	1
55	135	1
125	132	1
63	69	1
49	83	2
124	131	2
13	14	1
10	11	1
34	37	2
128	129	1
66	87	1
59	60	2
125	134	1
54	57	1
77	132	1
32	32	1
114	133	1
26	37	2
58	80	1
124	134	1
108	109	1
109	111	1
12	13	1
6	7	1
14	15	1
