88	88	9
114	114	17
57	82	2
25	26	10
36	36	12
49	49	11
121	122	7
47	47	14
124	124	16
22	22	13
145	146	5
18	19	7
1	3	1
115	115	11
38	38	9
11	11	9
50	51	5
136	137	9
33	35	2
146	146	7
65	65	18
41	42	6
3	4	8
113	113	7
73	73	14
25	28	7
120	124	5
127	146	2
4	4	12
19	19	20
52	52	12
115	126	1
128	128	20
117	123	5
89	89	13
106	121	3
71	89	6
42	42	18
29	29	12
45	53	5
96	96	8
37	51	3
54	54	4
134	135	2
112	113	5
100	100	21
129	130	5
30	73	5
34	34	12
12	22	1
141	141	10
30	136	2
80	80	8
17	17	9
23	23	18
138	138	8
90	138	1
71	97	2
142	142	5
72	121	2
15	78	2
52	54	8
51	52	9
148	148	9
87	89	3
73	75	4
145	145	10
12	12	13
82	82	15
108	108	12
64	138	4
92	92	11
127	144	1
79	79	15
43	43	13
21	21	14
121	121	12
18	18	10
37	50	6
86	86	20
97	97	3
156	157	5
44	44	18
103	103	10
121	140	2
20	20	9
130	136	5
73	101	5
24	24	3
123	123	7
64	69	1
48	48	14
4	20	2
123	125	2
1	1	34
139	140	7
93	93	24
157	157	11
23	158	2
3	14	4
8	8	16
110	110	4
68	77	2
16	23	1
26	26	10
3	20	2
152	155	1
146	148	3
94	95	9
62	63	10
153	153	12
101	101	17
124	125	4
140	151	3
133	133	13
8	9	6
125	159	3
16	16	8
12	16	4
2	2	5
39	115	3
4	8	1
117	120	7
117	117	19
82	83	5
5	5	18
118	131	1
56	56	2
46	46	21
95	104	2
70	70	21
68	68	14
106	107	3
111	112	5
131	131	14
99	99	8
15	15	15
21	30	1
68	70	8
90	90	18
27	27	6
146	147	7
31	55	2
71	71	6
45	47	3
133	134	5
62	62	4
112	112	9
13	22	4
50	50	8
37	37	6
114	120	6
137	138	6
125	127	5
0	0	13
25	25	12
122	122	12
143	150	1
129	134	1
78	78	11
13	17	5
41	41	12
79	80	3
91	93	2
91	91	9
98	98	27
26	27	5
69	111	2
105	105	16
136	136	11
119	122	3
64	96	3
28	29	13
42	91	3
111	111	28
9	9	6
146	153	3
122	123	2
120	120	13
28	92	2
43	53	2
30	30	12
95	95	15
116	116	4
112	122	1
126	126	3
134	134	10
12	30	6
148	149	11
151	151	14
95	108	2
28	28	9
110	111	4
85	85	13
36	37	17
62	64	2
86	87	4
7	7	25
78	121	4
110	115	4
48	49	5
156	156	8
131	133	3
77	79	4
41	46	1
40	40	6
154	157	2
87	87	8
70	71	6
106	106	17
57	57	6
65	66	5
90	112	3
147	147	11
10	91	1
5	17	2
36	51	3
14	14	17
110	118	1
104	104	15
35	143	3
141	146	2
107	107	11
71	95	4
14	32	5
107	151	1
18	25	1
144	145	6
54	55	3
3	3	13
117	119	2
152	152	6
89	90	4
76	78	3
139	139	24
106	124	2
104	105	3
144	146	7
6	6	12
80	81	2
7	55	1
19	20	6
132	132	7
118	122	3
2	4	1
13	13	12
66	67	4
98	108	3
69	70	3
24	77	2
129	129	7
72	72	9
67	69	4
105	106	1
147	149	5
88	89	8
30	55	1
30	50	1
86	90	2
83	83	8
135	135	11
117	147	3
26	83	2
8	10	5
77	77	12
56	57	2
32	35	2
76	77	8
107	114	2
102	102	3
76	82	4
140	140	10
84	84	3
94	94	8
96	97	2
150	151	4
119	138	2
68	71	3
158	158	12
131	143	2
115	117	2
38	106	1
131	132	6
7	43	1
85	94	1
123	124	5
75	75	11
53	54	8
130	130	20
119	120	2
49	56	2
127	127	4
40	41	4
135	142	1
8	51	2
90	92	3
84	90	1
49	124	4
116	130	6
66	69	2
130	150	3
46	47	7
93	94	3
39	41	3
38	39	5
152	154	2
53	53	7
64	64	3
3	39	1
137	137	8
23	24	5
66	116	1
132	133	9
34	38	2
24	25	6
48	53	3
117	155	2
95	97	2
127	147	2
31	31	3
72	73	1
52	53	8
130	131	6
128	129	5
14	85	1
76	76	7
69	141	2
16	21	1
125	126	5
55	55	5
118	118	8
73	80	3
34	37	2
131	134	2
78	79	10
130	133	2
10	10	7
149	149	5
107	108	2
123	156	3
105	150	3
108	113	3
19	57	2
118	145	2
30	31	1
8	41	4
122	157	2
33	33	3
42	43	2
81	82	3
11	21	3
31	32	7
125	139	1
79	82	2
154	154	7
120	145	3
121	156	2
26	55	1
20	21	3
6	35	3
36	38	1
52	92	2
157	158	1
47	137	2
49	50	7
54	63	3
43	48	4
1	64	6
45	45	6
147	148	1
66	68	1
32	32	13
105	115	3
63	64	2
61	61	2
39	40	7
78	82	4
67	89	1
75	76	2
30	44	2
100	101	10
67	70	1
1	138	1
117	132	1
150	152	2
141	142	1
9	88	4
33	34	7
21	43	6
31	136	2
15	18	4
7	8	4
15	30	2
20	22	3
67	91	1
103	104	4
144	157	1
114	115	5
108	112	1
113	115	4
144	148	1
97	158	2
83	86	1
83	88	1
109	111	3
118	125	2
3	21	3
67	67	1
10	12	1
77	115	3
10	43	1
127	131	1
99	100	5
149	150	2
27	28	1
32	33	7
110	117	1
127	156	2
39	39	3
117	122	3
150	150	16
84	87	2
4	6	1
53	90	1
83	89	4
8	11	1
155	155	6
69	69	6
111	155	1
3	15	1
13	31	1
41	44	6
141	158	2
132	156	1
109	109	3
25	53	1
9	14	4
119	119	7
126	127	2
34	43	1
8	23	2
68	78	2
9	11	2
106	151	3
120	123	2
37	141	2
37	113	2
83	85	5
72	142	2
45	46	2
0	10	1
0	2	4
19	25	4
115	116	2
92	95	3
15	31	2
66	77	1
144	155	1
94	126	1
84	86	2
17	30	3
65	159	3
90	111	3
125	125	8
116	117	4
4	22	1
62	68	2
146	155	2
116	131	2
145	148	3
117	131	3
154	155	2
84	85	2
56	70	1
13	15	1
47	50	3
43	82	1
13	14	3
29	30	4
35	89	1
2	3	2
6	14	1
135	136	5
35	52	1
4	5	4
96	111	1
8	12	4
113	114	1
46	51	1
143	145	2
51	51	7
87	97	2
92	98	1
142	146	2
95	105	2
128	134	1
64	124	2
108	157	1
88	122	1
144	152	1
105	126	1
85	96	1
16	17	1
9	10	6
104	106	1
42	104	2
4	12	3
98	128	1
21	22	6
65	68	1
77	83	1
84	93	1
47	48	2
84	89	1
101	102	4
30	48	2
8	13	1
69	80	2
32	36	1
63	63	4
34	157	1
143	154	3
134	158	1
121	146	1
91	92	1
18	29	1
14	21	2
144	144	1
31	141	1
141	147	4
12	26	1
15	26	1
141	153	1
117	154	2
2	43	2
84	91	1
63	65	3
91	94	2
93	139	2
28	33	1
24	44	1
57	62	2
104	156	1
112	118	1
134	147	1
15	21	1
111	115	3
143	143	7
142	150	2
108	109	1
23	55	3
155	156	3
96	120	1
24	121	3
118	120	1
42	57	1
2	47	1
35	53	1
139	148	1
23	83	1
123	135	1
103	154	2
106	110	2
96	138	1
10	15	1
35	37	1
114	148	4
0	6	1
10	11	2
53	79	2
90	97	1
116	120	1
152	153	1
137	142	2
33	49	1
50	52	3
66	109	1
65	138	2
34	35	2
78	83	2
108	110	1
17	41	1
117	145	1
56	83	2
40	49	1
147	158	1
109	114	1
153	154	1
141	155	1
104	109	2
117	133	3
35	38	1
135	137	1
114	123	2
44	45	1
118	119	1
113	151	1
54	67	3
118	156	1
75	101	1
68	158	1
110	113	2
114	116	1
132	157	1
2	20	2
4	38	2
35	56	2
19	56	1
3	26	2
0	16	1
14	20	1
117	121	1
38	42	2
7	11	1
111	125	1
61	159	1
11	12	3
43	110	1
33	54	2
11	13	1
140	142	1
19	138	1
20	25	1
21	54	1
15	17	1
53	88	1
61	121	1
40	48	1
25	52	1
113	150	1
66	66	1
122	134	1
6	29	1
53	65	2
44	56	1
3	5	2
107	115	1
68	111	1
32	55	1
145	147	1
121	126	1
105	138	1
72	101	1
136	142	1
9	34	2
15	19	2
48	125	1
3	25	1
54	78	1
33	157	1
21	39	1
0	1	1
6	10	1
32	48	1
98	100	1
