110	110	15
56	56	9
39	39	22
83	83	20
120	120	7
68	72	4
126	126	15
87	88	7
136	136	13
79	79	9
145	145	6
129	129	28
90	91	5
132	140	7
27	38	1
91	117	7
135	135	17
39	41	2
67	81	3
53	118	4
108	111	5
21	21	12
80	80	9
26	26	5
29	29	13
109	111	3
140	140	21
39	100	4
9	9	6
22	22	11
99	101	2
134	135	9
102	102	8
119	119	5
93	93	10
145	146	5
18	18	2
57	57	6
24	24	8
104	104	11
123	123	9
117	117	13
41	41	11
107	125	8
128	128	14
77	78	2
99	99	7
47	47	6
8	42	1
14	14	4
117	129	2
6	6	1
94	115	1
12	12	7
127	127	17
140	142	2
28	28	12
15	15	8
16	29	1
116	116	5
49	49	8
27	27	4
109	109	5
53	53	10
10	11	8
133	133	15
1	4	2
36	135	2
97	97	5
127	137	3
116	117	8
11	11	11
107	107	4
82	83	4
30	30	7
125	125	15
40	40	3
114	114	5
108	108	6
118	119	5
61	63	3
73	73	6
61	61	3
63	94	1
62	62	7
18	20	3
19	19	8
24	27	2
2	2	10
4	4	6
123	126	2
23	23	6
6	82	3
20	20	6
120	121	3
73	83	4
48	48	16
38	38	14
8	8	10
94	94	12
58	58	6
143	143	15
141	144	2
30	31	5
37	37	15
139	139	14
63	63	4
32	32	8
105	105	11
64	64	4
94	101	3
108	128	1
91	92	1
87	87	3
85	85	1
141	141	10
137	137	8
139	140	5
101	101	10
134	134	14
115	116	4
67	67	9
107	126	2
118	118	8
39	40	5
1	1	7
16	16	18
131	132	8
95	101	2
70	73	2
131	140	2
38	39	2
103	105	4
129	132	1
70	70	2
31	31	7
99	100	2
3	3	2
22	23	3
130	131	7
15	16	7
59	61	2
52	52	10
137	138	4
10	10	7
108	109	3
119	123	6
90	92	3
96	96	6
72	72	19
70	72	1
28	29	5
24	33	1
89	90	1
131	131	11
91	91	5
26	66	2
92	92	4
51	89	10
32	57	3
119	128	5
10	35	2
25	26	2
98	99	2
66	67	5
74	82	2
54	57	3
36	36	6
8	9	8
65	65	5
143	144	2
24	32	1
135	139	2
59	59	8
98	135	1
91	108	1
37	38	1
96	98	1
80	113	5
73	129	1
95	96	2
106	106	2
141	142	4
16	55	1
126	127	4
76	76	6
129	130	6
67	68	5
122	122	4
33	36	1
0	2	3
125	126	8
117	130	1
122	123	1
81	81	2
56	106	2
98	98	11
112	112	2
35	35	4
21	22	1
69	72	2
107	122	1
124	124	8
19	102	4
5	5	2
119	120	6
0	1	8
103	103	5
36	37	4
126	138	4
34	35	2
86	86	2
25	29	2
142	142	11
105	119	2
74	74	6
107	109	4
100	101	3
1	2	4
17	17	3
36	41	3
68	68	1
73	75	1
95	95	4
125	141	2
43	43	10
83	112	1
128	130	4
140	143	2
57	75	5
29	32	1
63	64	3
29	101	1
33	33	10
15	19	3
54	54	3
142	143	4
68	70	1
101	102	1
95	128	3
14	15	1
92	123	1
57	61	4
33	35	4
4	5	4
144	145	4
90	98	5
49	62	1
140	141	1
94	95	2
39	55	2
100	100	3
82	82	3
81	82	2
58	66	1
13	13	3
138	138	11
91	123	6
10	142	2
73	74	3
63	66	3
40	55	2
51	108	1
105	121	4
42	42	4
138	140	4
35	36	1
115	115	2
26	27	4
25	25	3
60	61	1
125	127	3
83	86	2
118	123	1
111	112	1
20	25	6
63	81	7
19	119	2
117	118	3
27	30	4
34	63	5
41	42	3
78	79	1
52	53	1
83	85	4
136	137	1
75	75	4
51	51	3
111	111	8
61	62	3
1	65	1
90	124	1
133	135	1
68	82	2
80	81	6
19	28	2
107	123	1
24	26	3
58	59	3
123	124	2
28	30	1
54	120	1
0	0	3
99	135	2
62	66	5
32	54	1
129	136	2
132	132	1
90	90	4
130	130	1
35	69	4
54	56	3
102	103	3
33	39	2
103	104	4
29	38	1
80	112	3
14	16	1
79	80	2
106	107	2
125	132	1
111	113	1
144	144	6
117	122	1
9	60	1
18	128	2
132	133	1
93	94	2
6	65	2
131	139	2
52	54	1
49	134	1
121	121	1
49	50	3
71	83	1
126	130	1
50	50	2
95	125	1
76	90	1
68	69	1
71	71	4
23	26	1
19	20	2
121	122	1
12	102	1
87	90	2
66	87	1
5	6	1
23	24	1
69	71	2
20	21	1
75	116	1
128	129	2
43	48	1
55	56	1
53	55	1
109	110	1
127	128	1
83	84	2
40	41	3
64	65	1
23	37	1
56	108	1
142	144	1
0	22	1
66	66	3
1	11	1
85	110	3
133	134	1
66	68	1
146	146	2
127	130	2
60	60	1
73	130	1
