157	157	2
146	146	9
73	73	10
93	93	9
84	84	5
112	112	4
108	108	7
0	0	1
70	70	7
100	101	5
75	111	2
50	58	3
22	22	2
64	64	6
36	37	4
54	56	4
7	7	3
81	81	3
107	107	7
130	160	1
131	167	2
34	35	2
16	16	11
50	62	3
119	119	5
21	21	1
83	103	4
55	55	6
12	12	3
109	122	2
161	161	6
142	143	1
89	124	5
66	73	2
4	44	2
16	17	4
132	132	2
124	124	5
154	154	3
161	162	1
163	166	1
164	165	5
97	97	17
8	8	3
83	84	5
123	152	2
54	55	5
104	104	9
148	148	2
24	24	6
85	85	8
83	83	4
17	17	10
98	115	2
45	45	5
102	102	5
117	117	3
149	151	2
164	164	8
150	165	3
43	43	7
4	103	1
125	125	5
11	12	9
20	20	5
52	52	4
5	5	1
98	98	4
5	73	3
14	55	2
21	22	3
17	25	3
100	114	3
21	23	2
94	96	1
18	21	6
48	48	2
12	64	4
148	150	5
38	41	3
47	47	5
57	57	2
119	123	6
110	111	3
13	13	6
168	170	2
21	24	7
160	161	2
9	13	1
53	53	9
122	123	3
92	100	1
68	68	16
65	65	5
109	110	2
138	142	3
121	122	1
8	13	4
125	126	4
153	153	4
75	75	5
20	23	1
9	10	6
75	109	2
79	84	2
26	26	3
71	71	1
10	10	6
143	143	3
162	163	5
80	80	2
165	165	4
79	79	1
92	93	2
85	98	1
77	77	2
126	126	5
17	21	1
76	80	1
62	62	3
3	3	7
145	147	2
15	23	2
143	146	2
8	9	2
69	69	7
160	160	6
156	156	1
68	73	1
91	95	8
36	38	3
145	150	2
39	39	4
115	115	2
149	150	2
110	110	1
151	151	1
55	56	2
3	17	1
107	108	3
33	33	2
149	149	7
44	44	5
35	35	7
166	166	1
0	1	3
103	103	2
1	1	2
50	50	9
40	40	2
144	144	9
2	2	5
44	45	2
76	83	3
162	162	2
103	104	7
80	81	2
163	165	1
81	98	3
92	92	4
46	47	2
47	48	3
77	78	2
87	87	2
45	107	5
144	149	1
6	6	7
116	116	10
82	82	5
41	42	4
86	88	4
12	39	1
85	115	3
129	129	4
24	25	2
56	56	2
130	130	1
145	154	1
101	102	2
93	94	1
131	165	2
34	34	2
14	14	4
94	94	2
88	89	2
94	112	3
137	137	1
124	125	1
35	36	1
156	162	1
95	95	4
15	21	1
169	169	1
72	73	3
42	42	1
18	18	4
151	152	1
18	20	1
97	99	2
19	19	1
46	74	2
0	4	1
74	107	3
53	55	1
24	26	1
118	170	3
109	109	2
3	4	3
101	104	2
98	99	2
81	82	4
78	78	3
78	81	1
157	158	2
9	58	1
23	23	3
163	164	2
147	147	2
50	51	1
12	13	1
138	138	1
93	112	2
129	160	1
108	109	3
13	14	2
72	72	3
107	111	2
14	15	5
163	163	1
105	105	4
128	128	3
10	13	1
49	49	2
6	7	2
139	139	1
158	158	3
35	112	2
65	116	1
99	100	1
45	46	1
7	22	2
96	96	2
145	148	2
147	164	1
88	88	2
170	170	2
159	159	1
133	135	5
168	168	3
155	155	3
120	120	4
106	106	1
89	91	2
91	99	2
27	27	2
15	15	1
141	141	1
40	41	4
84	101	3
84	85	1
57	63	1
84	102	2
161	163	2
4	4	3
96	97	1
115	116	4
111	111	1
89	90	2
18	39	2
5	71	1
76	98	1
11	67	1
90	90	1
74	74	1
53	54	2
77	79	2
18	95	1
28	28	1
159	162	1
76	81	2
121	121	1
138	143	1
150	151	1
84	86	1
46	46	1
87	89	1
7	11	1
135	135	1
152	162	1
81	132	1
22	23	2
19	22	1
19	23	1
121	170	1
15	16	1
129	143	1
101	101	1
38	38	1
