188	188	3
157	176	4
49	102	1
177	177	15
210	210	5
18	18	21
78	78	6
7	7	4
155	155	19
198	199	2
161	161	9
57	70	5
248	248	2
114	114	8
191	192	4
63	93	3
29	31	5
202	203	8
28	30	3
192	192	5
171	171	2
178	178	9
160	160	14
232	238	1
167	168	4
203	204	7
221	221	9
213	244	1
206	206	5
12	15	2
222	223	2
163	179	3
94	98	4
228	240	2
53	53	9
94	94	10
55	55	5
27	27	5
64	68	4
178	181	5
226	242	2
50	247	1
168	172	2
109	109	5
31	31	2
108	112	1
108	109	6
189	191	2
52	72	3
106	106	9
82	82	4
150	150	7
245	246	7
235	235	12
111	112	5
9	9	9
166	166	6
211	212	9
214	214	21
68	68	5
97	97	9
24	24	7
43	43	9
51	51	14
185	185	5
208	208	15
28	28	8
200	203	4
64	65	2
119	119	1
206	239	2
228	229	1
208	211	2
99	99	4
64	64	1
241	241	12
200	200	13
167	167	4
101	101	7
8	9	4
246	246	6
233	233	7
54	55	3
224	227	3
240	240	5
46	47	5
198	198	5
201	201	6
110	110	3
183	183	9
2	2	3
227	227	1
0	0	5
173	173	14
57	57	4
213	213	3
154	154	9
151	151	13
153	171	1
236	236	1
206	207	2
73	73	10
26	26	6
102	102	6
104	108	5
14	15	5
193	193	8
145	145	3
66	66	6
226	234	6
30	31	1
54	54	6
163	163	6
189	189	9
40	40	15
113	113	7
245	245	7
90	91	3
85	85	5
173	186	1
25	25	2
202	202	5
110	150	1
1	1	3
181	181	4
102	111	4
66	67	1
110	111	7
192	195	2
226	226	6
176	177	2
95	95	9
217	217	4
199	240	4
87	88	7
42	42	3
1	17	3
209	209	10
145	213	1
188	190	2
161	166	1
44	45	3
116	116	11
209	213	2
224	224	1
242	242	4
44	245	2
117	117	2
51	52	4
4	4	3
101	107	1
39	39	8
234	235	2
36	36	2
80	81	3
38	38	2
57	58	6
101	103	2
87	87	6
212	212	8
176	176	2
59	59	4
213	214	3
23	23	4
6	6	3
187	187	12
62	220	2
70	70	4
166	167	1
218	218	8
239	239	6
186	189	2
146	247	1
178	179	1
168	168	10
159	159	3
241	242	2
157	157	4
229	230	5
37	37	5
164	164	11
9	26	2
30	30	2
169	169	8
81	82	1
88	89	4
247	247	2
69	69	2
223	223	2
238	238	4
8	8	3
221	246	4
83	83	3
16	16	6
197	197	4
195	195	1
33	34	3
80	80	2
56	56	3
45	45	4
14	14	6
223	224	2
112	112	2
207	211	3
8	200	3
58	58	4
204	204	3
236	238	3
175	175	11
197	235	4
190	214	5
96	96	2
167	246	2
183	184	4
75	76	4
33	89	2
156	156	5
76	76	7
162	162	8
193	194	1
98	98	5
162	177	1
59	60	5
69	70	2
12	12	1
216	217	2
180	180	7
31	70	1
184	184	2
220	220	10
210	214	2
72	73	3
216	216	4
209	249	1
75	77	2
179	182	1
152	247	2
85	109	4
100	101	4
31	32	2
86	102	2
211	211	4
165	165	6
63	63	3
118	120	2
228	228	2
47	76	2
118	118	5
229	229	4
5	5	2
94	99	1
169	173	2
6	197	1
26	234	1
36	52	1
50	50	7
179	180	4
43	44	2
231	231	6
76	84	2
61	62	1
48	48	2
219	241	2
171	174	2
237	237	10
112	119	3
196	196	2
84	84	6
113	114	3
21	23	4
108	108	4
212	213	2
21	22	1
205	205	4
74	220	5
48	52	1
88	90	2
234	234	2
110	120	1
162	186	2
11	44	1
44	44	5
86	86	4
67	67	1
184	185	2
182	182	4
190	190	1
97	119	2
15	15	2
244	244	5
9	10	2
185	245	1
41	41	1
6	43	2
96	119	4
183	188	1
31	41	2
5	107	3
105	105	4
186	187	1
34	71	3
66	219	1
199	200	3
194	195	5
120	120	1
104	104	3
203	203	1
174	174	2
104	105	4
170	171	3
10	109	1
75	75	1
227	228	1
96	97	2
16	23	1
21	202	2
4	5	1
94	114	1
115	115	3
41	44	4
221	234	3
186	186	2
41	42	2
56	57	1
75	98	6
190	191	2
103	103	4
68	70	3
215	215	3
174	178	1
172	172	3
33	37	1
17	17	4
100	115	2
150	151	1
242	243	3
175	239	1
23	24	2
157	158	1
107	107	3
111	111	2
159	247	1
222	245	1
243	243	1
15	234	1
160	165	1
222	234	2
23	195	1
48	183	1
10	10	3
170	175	2
64	66	2
243	244	1
61	64	2
74	74	2
97	118	1
153	153	2
47	226	1
99	100	1
62	68	1
82	83	1
180	181	2
246	247	1
78	80	2
20	20	2
82	90	1
90	90	2
22	23	1
77	77	1
73	88	1
167	183	1
61	69	1
195	196	2
19	19	2
119	241	2
181	210	1
161	167	1
230	231	1
63	65	1
81	81	3
59	62	1
18	232	1
181	182	2
101	118	1
179	248	1
3	31	2
168	249	2
177	178	1
163	176	1
209	240	3
247	248	1
148	155	1
171	175	1
21	21	1
118	119	2
192	193	2
176	179	1
225	225	1
102	165	1
62	92	1
30	39	1
34	34	1
230	235	1
18	39	1
22	22	1
89	98	1
57	80	1
35	35	1
79	79	1
26	27	2
97	98	2
193	195	1
1	2	1
210	215	1
147	152	1
42	222	1
207	233	1
190	212	1
68	69	1
205	226	1
85	86	1
0	1	1
102	104	1
89	95	1
60	64	1
218	219	1
152	152	1
184	187	1
162	185	2
52	98	1
