190	192	5
106	106	7
197	197	9
39	39	7
74	74	5
71	73	3
116	116	15
46	47	1
158	158	4
247	247	4
67	68	6
188	188	2
72	72	3
75	75	8
1	1	2
165	175	6
80	80	6
223	224	3
179	179	2
231	231	5
64	65	4
34	34	7
31	92	1
67	67	6
85	100	1
114	114	5
85	85	11
186	186	2
195	205	3
226	229	4
169	246	1
79	79	13
230	230	2
68	69	6
100	101	3
68	110	3
92	93	1
201	201	7
211	211	3
197	224	5
190	191	3
50	76	1
62	100	1
207	208	2
47	47	1
174	212	1
213	245	2
83	83	5
111	242	1
205	205	7
158	160	1
6	6	5
62	62	1
59	59	12
160	166	2
80	82	4
101	101	11
212	212	4
163	164	1
234	234	3
170	170	12
34	35	4
228	228	1
55	57	6
105	105	4
181	184	4
95	95	4
63	70	2
212	237	1
118	118	7
156	156	8
226	226	6
65	94	2
170	171	1
219	219	5
23	23	3
158	195	1
145	145	7
97	99	2
203	203	5
162	162	9
76	77	11
210	210	2
245	245	8
92	244	1
15	15	9
171	172	2
220	220	6
199	199	2
208	209	1
167	168	3
29	30	4
238	239	6
28	28	4
38	38	4
101	102	6
31	32	4
173	173	4
57	58	1
237	237	6
196	197	7
34	113	2
161	161	7
94	94	5
35	71	2
189	189	5
152	152	5
44	44	3
202	202	4
169	177	3
199	244	1
191	191	2
112	152	4
115	115	6
50	50	4
9	9	4
73	73	3
101	119	5
166	167	3
84	94	1
175	176	2
25	25	5
172	182	2
100	120	1
230	231	3
27	27	5
54	55	1
236	236	6
112	112	5
111	111	6
84	84	4
88	93	4
60	60	1
17	17	5
207	207	6
22	22	2
6	239	1
71	71	4
85	147	5
89	91	1
1	2	1
104	104	3
224	224	11
118	119	2
77	78	6
35	78	2
214	215	9
187	188	3
78	79	2
224	225	7
108	108	2
51	81	2
100	100	6
153	153	5
109	109	2
158	159	2
56	56	5
208	215	1
37	37	1
185	185	6
244	248	4
3	55	1
51	192	1
246	247	1
232	232	3
180	180	3
221	222	1
80	81	4
77	77	3
187	187	10
174	175	5
163	175	3
51	51	3
154	154	2
242	243	2
57	57	6
151	151	9
175	196	1
63	64	1
165	166	2
8	8	3
191	209	1
116	118	1
169	228	1
171	171	6
88	88	1
243	243	1
218	219	5
109	117	3
162	232	3
211	212	3
82	82	8
240	248	2
178	179	2
166	175	1
19	19	4
244	244	9
164	164	5
69	69	1
89	89	3
30	30	4
65	65	2
170	181	1
177	177	6
172	186	2
109	110	4
60	61	2
18	42	2
74	75	6
213	213	3
206	207	10
38	39	1
104	107	2
167	167	2
51	110	2
162	163	4
160	160	8
234	235	1
78	78	4
217	217	1
31	41	2
192	192	1
160	197	1
190	190	3
115	153	1
32	32	1
117	117	2
181	188	3
103	103	4
240	240	7
111	119	3
239	240	2
192	209	3
208	208	2
165	165	5
182	213	3
186	202	2
175	175	1
195	195	3
14	58	2
10	10	1
115	120	1
80	86	1
146	146	2
16	16	2
74	111	1
49	49	3
229	229	3
172	172	2
159	191	3
115	116	3
61	62	3
210	214	1
106	107	6
76	76	2
157	159	2
232	247	1
87	87	1
86	86	6
111	118	1
112	160	1
155	155	8
178	178	8
209	209	6
2	3	4
53	53	1
45	45	1
41	41	3
200	200	2
70	110	4
242	242	3
162	229	1
110	118	1
217	218	1
89	90	1
209	218	1
177	218	1
87	94	3
35	58	1
14	15	3
12	12	3
110	110	8
157	157	2
13	57	1
163	163	4
20	21	1
181	181	1
24	25	3
184	193	1
61	61	1
120	120	3
192	195	2
3	3	1
168	168	6
246	246	11
241	241	3
166	166	3
197	231	1
70	70	5
24	32	1
153	161	1
184	184	7
209	210	2
196	196	3
103	104	1
176	178	3
99	99	1
198	200	1
5	5	2
91	91	6
157	158	1
201	211	1
233	233	2
114	115	2
29	29	5
45	202	1
242	245	1
63	65	1
64	85	3
182	182	3
37	42	2
198	198	1
111	115	1
33	36	2
235	235	1
81	81	2
30	39	2
158	249	2
216	216	2
248	248	1
149	149	3
107	107	2
158	210	1
102	102	1
176	176	3
62	68	1
229	230	2
185	238	2
79	80	1
116	117	1
159	159	3
4	4	1
169	188	1
71	76	1
215	215	1
55	55	2
208	213	1
34	48	1
22	41	1
74	82	1
169	208	1
20	20	1
64	64	1
31	31	2
108	243	1
227	227	2
90	92	2
150	150	2
26	26	5
92	94	2
211	229	1
66	66	1
198	213	1
93	93	3
169	169	1
4	12	1
223	223	2
40	40	1
87	88	1
14	14	1
46	46	1
238	238	1
177	178	1
230	233	1
119	119	4
58	58	1
197	198	1
21	21	2
238	242	1
193	196	1
193	193	1
57	77	1
112	236	1
97	97	1
172	173	3
11	11	1
33	33	4
202	204	1
111	244	1
214	214	1
174	174	2
176	177	1
51	52	1
115	118	1
200	201	1
65	66	2
83	84	1
194	196	1
96	97	1
49	50	1
239	239	1
107	109	1
177	209	1
79	81	1
194	247	1
19	20	3
10	11	2
161	162	1
7	53	1
248	249	1
204	204	2
194	225	1
43	43	1
64	66	1
170	218	1
61	68	3
75	77	2
24	107	1
5	6	1
168	211	1
16	17	1
16	32	1
157	241	1
193	194	1
167	195	1
185	189	1
176	189	1
212	213	1
51	107	1
