16	29	1
12	14	5
167	167	3
68	68	4
26	32	6
84	84	3
129	129	3
142	143	4
141	142	3
154	168	1
165	165	1
76	76	3
155	155	6
59	59	4
164	164	7
110	111	1
14	16	4
33	33	2
93	134	3
87	108	4
161	161	3
95	95	5
136	136	8
25	25	6
135	137	1
40	88	4
144	144	2
4	4	9
31	44	2
160	160	7
61	61	7
10	10	8
99	99	2
29	31	1
45	45	14
41	41	17
169	169	2
75	75	4
98	99	1
140	170	5
14	14	6
42	42	5
149	149	2
57	58	2
165	174	2
44	44	7
130	134	1
153	174	2
114	158	4
138	138	5
31	35	3
132	132	8
16	17	3
54	54	5
65	67	2
26	28	4
66	66	2
112	113	6
5	6	4
1	6	1
108	109	6
119	119	5
22	22	12
130	130	8
90	121	1
150	164	1
101	101	14
91	92	5
101	111	6
12	12	7
5	31	1
64	76	5
84	112	2
39	88	2
3	33	2
87	88	4
32	64	2
97	97	5
29	29	7
52	52	7
169	174	3
53	60	1
3	34	5
23	23	11
39	39	13
76	77	6
35	45	5
134	179	2
102	102	3
73	76	2
63	74	2
96	96	6
10	11	7
106	153	1
154	156	3
21	27	4
24	25	5
51	51	9
13	13	11
11	11	3
32	33	3
3	4	8
97	101	2
139	139	6
97	100	3
108	108	7
88	89	1
164	165	2
119	121	2
21	21	6
154	154	8
21	23	3
98	98	2
37	37	1
31	31	4
84	85	3
57	57	4
34	36	1
67	67	6
20	32	1
25	26	3
170	170	2
105	105	7
168	168	7
54	55	2
143	143	5
116	142	2
19	20	1
33	67	2
163	164	8
112	152	2
34	34	2
106	106	6
124	124	7
107	107	8
18	26	2
156	175	2
151	152	3
24	26	2
159	166	1
89	89	6
85	85	2
83	85	1
113	113	5
6	11	5
35	35	9
88	88	3
96	98	1
131	131	3
40	41	5
39	121	5
11	13	8
151	151	1
102	119	1
123	123	1
9	9	2
173	173	11
59	88	2
104	152	2
112	112	17
153	153	10
66	72	2
94	94	1
40	40	6
74	74	5
20	20	4
3	3	4
5	5	3
32	32	9
36	37	1
50	51	4
121	121	3
43	45	5
1	1	9
120	122	1
54	65	2
147	168	5
66	67	7
96	97	4
64	64	1
147	147	5
90	92	1
19	19	5
3	15	3
81	81	2
159	161	2
83	83	3
126	168	3
60	61	2
61	73	2
8	44	1
150	150	8
18	18	12
176	176	8
99	170	1
111	111	2
24	27	7
135	155	1
118	119	1
150	176	1
172	172	2
27	29	2
38	79	2
122	122	11
73	73	4
163	163	11
173	174	1
46	46	2
161	162	4
33	40	1
136	160	2
6	9	1
150	169	2
151	153	3
87	87	3
162	162	2
146	146	3
72	72	6
19	32	1
86	89	2
22	23	2
123	124	3
49	49	3
2	7	6
118	118	6
5	20	2
133	133	3
55	60	3
7	11	3
129	130	2
114	114	2
101	106	5
23	25	1
129	146	3
39	40	4
86	86	4
157	158	1
33	41	1
134	158	5
16	16	2
133	179	2
8	8	6
43	43	2
109	109	3
170	171	2
83	84	1
35	44	3
79	85	2
21	24	3
105	107	2
43	44	5
31	32	4
160	165	1
140	140	1
104	104	5
38	38	6
0	0	11
137	137	2
4	19	2
140	171	2
36	36	3
99	100	2
30	30	6
7	9	3
77	77	5
82	82	4
120	120	2
7	7	5
155	156	3
104	107	1
135	136	1
0	53	1
26	26	4
71	149	1
158	159	2
94	96	2
152	153	1
175	175	3
17	17	3
38	39	1
158	158	3
112	138	3
14	15	4
141	141	3
29	30	4
53	61	4
85	124	2
134	134	2
80	80	1
7	15	2
154	173	2
96	118	1
132	179	1
103	103	2
130	150	2
29	34	1
87	126	1
76	85	1
22	28	3
110	112	1
126	126	5
8	9	2
93	93	4
26	27	2
24	24	2
68	74	1
50	50	2
25	29	1
96	131	1
65	65	6
24	168	1
79	79	4
25	27	2
166	166	1
27	27	3
15	41	1
62	63	2
154	171	5
112	114	2
174	174	2
122	123	1
86	108	3
35	75	2
150	162	2
99	104	2
112	159	2
91	93	1
10	14	1
120	121	5
108	128	2
116	117	3
71	72	1
3	19	2
35	42	1
146	147	3
129	165	1
78	78	1
127	127	4
140	174	2
167	171	1
125	125	2
148	148	2
82	83	2
126	130	1
71	71	1
1	24	1
170	176	1
14	42	1
7	8	1
156	156	3
89	110	1
145	163	1
165	168	2
17	18	1
157	157	3
91	149	3
124	125	2
54	59	2
16	33	1
9	174	1
102	175	1
9	11	1
177	177	2
92	92	4
81	115	2
101	102	1
56	56	1
92	94	2
30	31	3
87	104	2
100	151	1
17	27	2
106	107	1
96	129	2
2	2	2
64	69	2
65	66	1
16	18	1
7	62	1
111	127	1
106	124	1
91	91	2
59	78	1
54	56	1
2	4	1
157	175	1
33	44	4
17	25	2
171	174	3
137	138	1
49	51	1
165	166	1
100	100	2
0	80	2
58	79	2
11	51	1
60	60	2
107	108	2
72	74	2
6	7	4
167	169	1
58	58	1
120	123	2
85	110	1
115	116	1
122	124	1
148	149	1
153	154	1
105	106	1
74	77	1
171	171	1
23	29	1
113	128	1
55	59	1
2	3	1
179	179	2
114	116	1
128	168	1
81	82	1
62	65	1
110	127	1
95	124	1
6	32	1
143	147	2
37	38	1
163	167	1
31	38	1
23	42	2
155	170	1
13	15	2
