44	58	5
85	94	2
103	103	18
0	2	3
123	131	2
96	101	1
44	44	25
111	111	14
65	65	21
12	12	16
109	109	16
28	28	12
98	98	29
49	49	7
25	64	2
110	111	12
53	59	5
93	94	3
101	101	19
112	112	15
2	2	15
85	85	9
80	80	22
126	127	6
8	8	9
118	119	7
122	122	18
100	132	4
60	64	2
97	101	3
10	10	5
105	105	10
54	54	12
101	109	2
3	3	9
29	29	18
112	113	4
45	45	7
1	4	4
21	22	4
117	118	4
101	114	1
121	121	50
81	81	9
31	31	12
83	83	18
103	105	7
33	33	13
127	127	25
99	99	35
101	108	1
129	129	14
112	114	1
102	102	15
25	26	10
60	60	8
53	53	29
32	32	14
68	68	8
56	68	4
119	120	6
69	69	9
30	30	25
126	126	19
51	51	3
77	77	11
29	70	3
56	57	8
22	67	1
44	45	4
73	73	41
99	102	3
75	76	10
106	108	3
75	75	26
73	74	9
130	130	10
113	113	13
133	133	10
125	126	4
117	117	20
93	93	40
107	108	7
83	84	4
85	86	5
92	92	15
70	70	12
43	44	3
85	92	9
35	59	5
90	90	35
66	67	6
107	123	6
119	119	11
50	60	2
52	52	3
24	25	8
62	62	11
58	58	4
79	79	9
55	67	3
72	72	11
108	108	18
125	125	5
18	18	8
77	83	7
116	116	21
27	91	2
91	91	22
36	56	6
14	14	15
36	37	8
23	23	14
96	96	10
95	97	3
11	12	2
114	114	6
3	5	2
9	9	3
49	50	4
20	80	3
132	132	21
110	110	5
50	50	19
89	90	10
0	1	3
108	109	6
128	128	10
131	131	12
119	122	6
79	95	12
55	55	6
99	100	3
68	69	5
76	76	14
67	67	12
59	61	3
107	122	8
24	26	3
31	33	6
27	27	6
12	54	3
44	61	3
35	35	17
97	97	14
70	105	3
12	74	3
9	10	7
13	18	1
17	17	4
130	131	7
48	48	2
134	134	15
57	67	1
55	58	4
88	88	13
95	95	1
133	134	11
129	134	4
36	38	4
26	26	11
8	24	2
105	121	4
124	124	15
83	91	3
2	3	10
22	23	2
115	121	1
81	82	11
55	57	8
119	124	2
26	89	5
47	48	2
8	9	4
47	50	6
74	76	2
28	35	3
62	63	4
118	127	1
122	123	6
94	95	6
99	101	7
89	89	7
106	106	8
106	111	3
114	115	7
101	116	3
21	106	1
14	20	4
88	133	3
37	37	4
19	19	8
130	132	3
6	50	1
100	100	4
104	105	2
57	57	9
50	54	2
3	4	4
45	46	3
118	118	8
14	78	6
116	123	2
69	70	10
5	5	8
105	107	1
113	114	10
111	112	2
36	36	7
79	94	2
32	33	4
113	122	3
103	104	4
63	64	5
120	120	7
78	84	2
98	99	11
121	122	2
112	118	2
74	74	18
86	87	14
55	62	3
118	122	3
43	88	1
82	82	16
98	120	1
104	104	16
30	31	7
78	80	3
68	101	2
106	109	5
81	108	1
126	134	3
84	85	5
71	94	2
78	83	2
11	11	15
70	71	5
80	92	5
87	87	13
4	4	7
96	97	6
16	16	6
25	25	9
92	93	3
86	86	15
6	7	4
77	80	3
95	105	6
88	90	3
6	6	8
62	103	1
28	74	2
132	134	6
42	42	4
59	69	6
121	124	4
9	20	1
64	64	12
35	60	3
15	15	3
71	71	10
53	54	7
127	128	9
47	51	5
52	53	8
22	94	1
1	1	11
32	62	2
91	92	8
57	59	4
7	8	1
123	124	2
49	66	3
59	59	16
126	129	7
15	16	5
55	56	1
97	121	2
42	45	4
132	133	7
47	47	3
0	0	3
23	24	4
88	101	1
29	30	6
43	43	6
42	43	7
22	22	3
108	114	1
84	84	6
74	75	3
115	115	3
56	56	6
111	123	2
115	120	1
80	81	2
13	14	3
76	79	3
54	57	3
65	66	1
60	61	3
18	80	2
58	59	6
56	65	4
68	96	1
95	111	5
7	26	4
123	126	3
50	61	2
66	66	4
31	127	1
114	116	2
125	129	1
78	78	9
53	69	1
63	101	1
95	110	2
52	68	3
116	117	5
84	92	5
13	13	4
7	50	1
56	60	2
20	20	2
85	121	2
101	102	7
95	96	2
76	93	2
109	110	3
79	80	3
116	134	2
83	85	6
21	105	2
61	61	8
21	88	2
11	13	2
71	73	3
94	97	1
31	37	4
106	110	4
37	58	4
50	51	2
79	99	1
33	62	4
69	101	8
74	93	1
129	130	3
135	135	4
9	11	4
76	94	1
74	79	3
14	79	3
32	34	1
123	123	13
88	93	1
106	122	2
89	93	1
104	121	1
101	107	2
10	20	2
84	107	2
94	134	3
77	78	4
91	105	1
93	104	1
34	63	1
4	5	2
34	34	2
97	108	1
72	94	1
43	46	2
94	94	2
74	77	4
78	82	1
108	110	2
14	25	2
12	19	1
7	11	1
90	91	2
63	63	7
43	47	1
80	82	3
31	63	3
80	87	1
82	88	3
120	121	3
35	65	3
45	47	2
69	102	3
11	18	2
37	38	2
12	24	1
1	62	3
13	24	1
23	64	3
88	108	2
35	37	5
72	91	1
23	25	2
17	18	4
75	93	1
7	7	5
29	102	1
112	119	2
88	89	1
43	56	2
110	123	1
113	115	3
9	12	1
66	68	1
52	54	1
88	105	1
100	123	2
116	124	4
99	120	4
100	101	2
107	107	4
110	133	1
105	106	4
19	81	3
14	15	3
107	109	1
34	65	2
72	93	1
89	99	1
11	14	1
64	68	1
67	68	2
53	63	1
101	112	1
62	66	2
106	107	1
26	27	3
27	28	1
11	25	1
1	2	2
65	71	2
127	130	2
81	90	2
7	53	2
43	60	3
122	124	1
131	132	1
12	76	1
38	38	1
70	102	1
52	67	1
129	131	1
117	125	1
102	103	1
46	49	1
33	34	1
36	39	1
14	21	1
15	22	1
64	72	1
70	74	1
45	51	1
20	110	1
56	66	1
127	129	1
116	126	1
124	126	1
113	128	1
124	129	1
85	87	1
1	3	1
113	123	1
86	110	1
82	83	1
80	91	1
94	96	1
81	86	1
99	134	2
71	72	1
123	132	1
80	85	2
42	57	1
101	105	1
56	59	1
