105	106	1
49	49	26
81	81	48
68	69	38
84	86	8
84	85	32
77	77	35
97	99	19
91	92	9
36	36	38
23	23	45
48	49	16
57	57	38
37	58	4
80	85	8
48	48	45
30	31	13
63	63	39
89	89	67
26	26	49
56	56	75
92	92	44
96	96	38
67	68	11
91	103	9
84	84	60
79	80	27
32	32	60
97	97	57
42	93	1
41	60	2
37	37	57
61	62	16
20	20	23
27	28	17
84	87	6
32	34	7
95	95	51
90	90	26
88	88	32
78	78	28
50	83	1
82	82	22
60	60	48
82	85	6
78	94	4
80	82	3
58	58	60
75	75	66
34	34	83
94	94	59
28	36	3
99	99	49
23	24	5
76	76	64
91	91	46
42	107	3
70	70	47
73	103	5
44	44	43
21	21	40
25	25	31
39	39	54
68	68	73
43	44	13
42	75	1
31	33	5
72	72	57
38	38	45
38	63	6
49	56	9
38	39	31
50	50	64
31	31	59
30	30	35
39	40	6
74	74	57
35	35	65
102	103	22
88	98	2
75	76	8
102	102	55
50	51	9
95	100	3
42	42	32
61	61	48
75	77	3
47	47	58
25	44	2
22	22	34
83	83	48
71	71	28
29	29	53
25	26	22
86	106	1
97	106	6
23	52	1
86	88	13
33	33	23
54	54	70
104	104	74
23	34	3
62	63	30
52	52	65
107	107	9
66	66	42
26	30	4
57	61	2
97	98	19
38	59	6
105	105	38
59	85	4
29	44	2
41	44	9
26	78	1
73	104	7
29	30	17
53	54	13
78	81	4
52	53	20
49	78	5
62	62	42
45	45	41
51	52	17
69	102	3
24	24	66
55	104	1
39	87	2
58	61	4
53	53	56
70	71	3
85	85	44
57	58	13
80	81	9
63	65	1
28	38	1
50	104	4
106	106	29
87	87	39
40	40	63
65	107	2
83	85	11
43	89	6
42	43	21
64	64	53
44	45	15
73	74	10
73	76	14
25	30	3
94	95	34
69	69	41
41	41	17
106	107	1
59	66	5
101	102	19
22	26	5
85	87	6
25	27	8
51	56	9
21	22	11
48	83	2
73	73	27
47	89	4
101	101	54
98	98	68
36	56	2
59	60	10
30	34	5
86	87	28
65	65	44
33	85	5
96	98	3
55	56	28
61	93	5
46	48	4
80	80	41
62	76	1
92	93	15
64	94	1
56	59	3
103	103	64
101	104	2
45	47	4
28	28	31
29	66	5
29	67	2
79	93	3
61	66	11
39	89	5
26	44	1
99	101	3
79	85	2
50	81	1
41	42	6
85	88	3
51	89	7
23	36	1
50	53	2
36	84	3
83	86	7
20	21	19
70	72	4
29	32	2
83	84	13
21	77	4
39	45	4
100	100	37
33	34	22
90	93	10
83	88	6
71	88	5
36	65	4
33	36	1
25	49	7
70	75	6
20	24	6
86	86	27
67	80	5
98	99	24
65	67	5
71	72	27
51	65	2
46	46	47
90	91	18
84	91	2
75	82	1
50	64	3
60	61	13
78	88	1
51	58	4
55	55	32
71	107	1
59	59	63
89	94	7
26	34	2
51	51	53
88	89	10
71	75	3
24	25	10
49	85	3
55	60	6
80	88	2
61	67	2
22	23	12
24	34	2
27	27	19
93	93	42
49	83	2
90	95	4
21	97	5
24	95	2
103	104	7
94	100	3
50	88	2
75	103	4
33	72	2
22	24	5
91	99	2
26	27	24
72	93	2
47	48	20
94	98	5
83	91	1
40	47	4
96	99	8
51	62	3
38	86	1
50	77	5
58	65	1
69	71	3
43	47	5
40	46	3
69	70	8
42	44	10
50	103	4
77	78	11
37	45	3
27	35	3
82	99	7
46	47	25
52	54	4
38	40	8
38	81	3
45	78	7
80	93	1
54	55	8
75	79	8
36	37	14
66	68	4
72	103	3
76	77	10
90	102	1
89	90	16
22	25	8
39	50	4
82	83	17
41	43	8
80	106	1
81	85	2
32	35	2
80	90	4
26	29	7
96	101	4
50	52	1
39	67	3
25	43	2
37	82	1
40	48	2
28	45	3
32	33	16
47	91	1
79	79	29
72	79	4
68	72	3
40	42	6
50	100	3
31	32	16
93	107	4
87	88	22
35	37	1
25	46	4
43	83	5
21	31	3
72	73	6
73	75	1
21	34	3
36	38	6
88	97	2
74	75	12
25	28	8
53	56	3
34	35	6
25	29	5
23	31	4
23	93	4
41	61	2
79	101	2
28	44	1
40	84	3
93	94	12
67	67	26
45	46	19
79	81	15
32	76	1
64	65	10
78	79	12
52	91	1
70	79	2
30	33	12
56	61	2
62	94	4
36	83	3
47	49	12
46	97	2
49	90	5
40	41	22
86	91	3
54	66	6
33	107	1
81	86	3
83	89	2
76	80	2
58	59	10
58	67	2
56	57	3
76	106	6
55	57	3
69	98	3
20	106	1
58	98	3
24	39	3
20	25	2
78	80	3
68	73	4
56	85	3
61	65	2
51	104	5
62	66	2
67	71	1
75	87	1
51	93	1
30	41	1
60	106	2
45	98	2
52	82	4
28	31	4
37	38	14
44	83	4
96	97	2
26	28	11
81	84	5
24	33	2
44	48	1
76	101	4
63	86	1
31	46	3
35	36	4
41	85	5
20	72	1
41	78	1
39	82	5
83	87	6
102	104	6
64	85	3
49	50	6
76	78	2
62	73	1
56	84	2
43	43	16
25	34	1
58	60	1
94	99	8
26	79	2
72	91	2
84	92	2
52	66	3
38	43	1
70	91	4
53	65	9
95	102	3
77	80	3
47	88	3
85	86	10
57	93	5
97	100	3
93	97	4
58	78	3
71	73	11
27	49	2
44	84	1
46	82	3
60	75	3
68	70	2
71	92	2
22	27	1
40	49	1
22	94	2
96	107	2
66	67	7
46	71	4
45	79	2
54	57	5
65	66	11
31	76	2
95	96	8
46	83	2
32	84	1
102	105	1
62	67	7
53	57	2
63	66	4
28	32	1
22	40	2
61	63	5
68	74	5
28	29	8
67	87	1
39	93	8
98	101	1
58	66	2
100	104	2
68	103	2
54	68	5
30	66	4
78	84	4
67	76	1
69	96	2
36	64	2
65	75	5
95	97	9
99	100	2
36	48	2
39	79	4
88	101	4
45	52	3
28	67	1
25	97	3
28	68	2
50	70	3
73	94	2
37	60	1
24	56	4
39	59	1
58	90	2
24	46	1
21	106	5
76	91	3
43	46	7
62	64	2
21	23	5
25	40	1
53	55	4
22	29	4
61	94	1
90	100	6
26	67	7
40	45	3
93	95	5
79	84	1
56	72	2
50	58	2
96	102	1
95	101	3
81	94	3
32	36	1
36	107	2
64	93	4
89	106	1
102	107	2
81	92	2
25	31	2
29	42	7
21	32	5
58	68	1
47	106	1
27	67	1
92	94	2
41	95	1
88	107	1
60	86	2
100	102	4
70	81	8
46	49	9
58	75	4
44	89	2
58	95	4
21	27	1
50	54	2
46	106	2
49	53	2
27	29	2
83	96	3
51	77	2
40	67	1
56	80	3
25	45	1
81	82	8
71	91	1
47	59	3
51	54	5
100	103	1
50	73	2
24	93	2
39	90	1
54	78	4
75	90	1
43	56	2
24	52	2
73	79	1
77	102	1
60	67	1
65	102	4
41	46	1
77	106	5
61	64	4
59	61	4
82	86	1
70	77	2
58	93	4
52	58	2
51	70	1
41	58	1
100	101	8
74	77	1
19	34	1
61	100	1
24	35	2
33	88	4
52	80	2
21	26	1
44	46	5
42	45	4
22	30	4
94	106	3
48	82	5
20	23	3
69	77	2
52	57	2
90	92	3
47	98	2
41	48	4
32	72	2
41	45	2
37	47	3
47	60	1
78	106	1
81	104	3
36	63	5
95	105	2
37	62	3
55	106	1
64	84	2
78	100	2
60	62	3
67	69	3
49	52	5
36	41	1
29	38	2
46	98	2
69	79	3
75	93	2
19	98	1
44	82	6
29	31	2
60	101	1
57	72	1
59	87	2
58	72	2
33	83	3
40	43	6
40	79	2
19	20	2
24	69	3
40	92	3
78	90	3
82	88	2
75	78	2
44	96	1
53	78	3
59	67	1
25	38	1
31	34	3
78	92	1
35	56	1
96	106	4
35	79	1
46	94	2
44	49	2
98	107	2
53	86	2
26	57	1
57	66	1
60	63	2
63	102	1
72	86	3
49	82	1
80	89	1
40	44	2
45	64	2
66	76	1
36	66	3
58	73	1
44	47	1
78	101	1
52	68	1
33	38	2
50	67	1
66	79	1
96	104	1
59	84	1
50	65	1
24	31	1
72	77	2
59	77	2
66	101	2
53	101	1
50	102	1
94	105	1
42	46	4
37	46	2
35	53	2
90	96	2
34	36	1
47	80	2
34	49	1
37	39	1
36	95	1
71	99	4
47	90	2
42	85	2
50	78	1
51	55	2
26	85	3
80	83	2
79	98	2
20	22	4
25	81	2
63	67	1
33	35	1
51	72	1
20	34	1
39	64	2
102	106	2
25	52	1
43	106	1
88	92	2
66	106	1
49	73	2
43	85	2
42	84	1
78	93	1
33	76	2
54	86	1
81	90	2
58	82	1
85	89	2
32	81	2
78	89	1
29	40	1
41	49	2
89	99	1
67	99	1
36	43	1
69	80	4
51	66	3
69	72	3
81	93	3
88	100	1
46	100	1
28	30	1
57	79	1
56	68	1
37	59	2
70	104	1
25	107	1
72	94	2
20	45	3
82	84	2
52	59	1
95	99	4
31	105	1
72	95	1
51	78	2
73	92	2
34	73	2
70	92	2
104	106	2
32	78	2
35	105	1
51	82	2
104	105	2
75	106	2
60	92	1
78	97	1
30	37	1
77	101	4
47	107	1
27	42	2
58	77	2
61	103	1
76	87	2
59	99	1
55	80	1
24	32	1
27	85	1
43	45	1
42	79	3
35	65	2
55	69	1
19	47	1
55	93	2
92	106	1
47	97	2
71	93	1
72	96	1
21	45	1
90	98	2
28	42	1
21	75	1
74	76	1
56	99	1
21	25	2
33	86	3
41	77	1
30	38	1
57	81	1
51	53	2
48	96	1
45	57	1
99	104	1
21	92	1
91	95	1
96	100	1
53	94	1
49	89	2
94	96	4
94	97	1
73	95	1
70	84	1
43	107	1
63	87	1
51	91	2
95	106	1
64	66	1
58	83	1
64	69	1
51	79	1
58	100	1
100	105	2
37	89	1
49	97	1
67	81	1
33	37	1
25	48	1
91	105	1
88	106	1
67	102	1
27	30	1
37	40	1
91	93	1
34	40	1
43	79	1
25	39	1
81	87	1
37	57	1
63	64	1
45	102	1
82	100	1
79	89	1
77	103	1
26	37	1
58	87	1
64	105	1
53	61	1
94	101	1
37	55	1
20	76	1
52	61	1
89	107	1
37	91	1
74	84	1
36	54	1
34	76	1
22	31	1
