68	68	21
69	70	6
94	95	9
44	44	19
15	15	17
111	111	7
23	23	8
15	16	4
119	121	3
90	90	9
7	7	11
22	22	3
20	31	5
3	3	5
54	55	2
43	43	11
30	60	2
60	60	15
76	76	18
92	92	8
72	72	30
85	90	3
47	61	3
80	80	12
77	77	17
41	62	2
35	36	4
116	117	5
35	35	15
20	24	3
34	34	11
88	95	2
95	95	11
9	9	10
71	71	17
0	0	4
83	112	6
19	19	9
120	122	2
129	130	5
63	63	12
25	83	2
108	109	8
89	89	3
64	64	29
130	130	5
100	100	21
63	64	13
27	91	4
91	92	7
79	80	20
70	124	2
101	101	10
47	47	27
59	59	8
61	61	26
20	20	9
97	97	11
10	10	33
121	122	5
46	46	34
27	27	27
126	126	5
36	37	5
27	96	4
65	65	32
96	97	3
128	129	6
10	21	2
74	74	31
66	67	2
55	56	10
28	91	5
38	81	7
81	81	18
18	19	2
73	73	27
119	119	15
4	36	8
58	58	8
48	48	14
56	56	5
91	91	6
42	42	6
62	62	21
12	12	20
88	88	9
65	66	6
55	55	9
119	120	1
118	118	14
108	108	8
11	58	2
74	78	4
45	45	12
103	107	1
100	108	2
62	63	6
9	12	7
107	107	6
16	16	18
17	18	1
90	91	12
17	36	4
134	134	7
28	28	9
122	124	3
120	120	3
4	4	10
3	4	1
70	71	7
14	15	1
6	7	8
21	21	19
102	102	13
12	61	1
49	49	5
48	49	5
70	70	11
21	22	9
8	60	1
8	8	14
85	85	16
11	33	3
6	95	2
78	79	15
111	112	5
129	129	8
11	14	1
86	86	10
124	124	10
28	30	2
106	107	4
92	133	3
45	46	3
92	127	2
110	110	15
4	5	6
30	30	16
35	63	2
83	83	6
68	70	3
131	133	1
87	88	2
32	32	20
19	27	3
78	81	4
57	57	9
9	66	3
19	45	3
9	96	2
58	59	3
51	55	7
12	13	6
132	132	17
113	114	5
113	113	12
11	11	26
18	18	12
57	59	1
11	36	1
93	93	18
99	100	9
2	8	3
31	31	8
126	127	1
34	63	5
92	105	1
36	41	6
114	114	10
8	74	2
11	12	3
38	38	5
21	75	3
115	115	2
39	40	15
10	11	7
114	115	9
26	27	4
109	109	7
40	40	5
16	36	7
123	124	4
46	47	3
18	45	3
73	74	2
77	78	3
114	116	2
6	6	7
84	111	5
19	36	2
17	17	9
25	25	10
48	101	4
4	30	3
26	32	11
28	33	1
66	66	36
36	106	1
69	69	7
23	30	1
7	11	1
78	78	15
84	84	12
96	96	4
42	43	3
37	37	10
31	32	4
72	73	1
67	67	12
93	94	4
39	81	6
27	47	2
7	87	2
28	79	3
133	133	9
18	27	4
90	92	2
30	31	4
29	29	6
112	112	1
125	129	1
10	61	3
93	131	4
26	26	18
75	75	5
19	44	1
121	121	5
112	113	3
98	98	7
60	81	1
25	28	1
104	104	13
33	33	13
88	93	1
36	46	3
23	29	1
7	45	2
106	131	3
79	79	8
46	62	3
87	87	3
2	2	7
24	24	6
37	38	1
103	103	4
125	125	3
99	99	6
21	44	2
47	92	2
84	108	2
5	5	9
5	6	3
27	92	3
40	41	3
11	28	1
132	133	3
42	44	1
43	46	6
101	103	1
28	80	2
29	62	4
31	33	1
109	120	2
76	77	9
58	84	3
16	26	1
94	107	2
34	35	8
110	111	2
83	84	8
82	82	10
22	32	3
27	97	8
46	61	2
28	78	2
102	118	2
85	114	1
57	83	2
105	105	2
7	88	3
66	85	1
39	82	1
95	96	6
57	58	7
131	132	5
73	75	4
39	39	3
4	6	1
10	72	1
41	43	2
103	104	1
11	93	2
43	44	2
60	61	2
20	37	3
67	70	1
35	75	3
33	34	2
49	50	2
117	117	5
20	22	2
24	25	3
27	28	1
47	62	5
97	98	2
36	56	1
20	25	4
90	106	2
13	13	1
10	13	2
103	105	1
108	110	2
33	86	1
123	123	4
24	83	2
90	126	1
5	55	2
29	76	2
36	36	8
40	42	2
127	127	4
11	133	2
98	99	2
7	31	4
65	89	1
80	81	4
90	123	3
95	98	2
85	113	3
70	130	1
25	47	2
44	75	2
112	116	2
23	31	3
67	68	1
91	93	3
107	108	2
86	87	4
3	65	2
116	116	6
1	1	1
81	113	3
93	107	2
128	128	8
67	74	3
108	120	2
26	31	3
8	48	1
3	24	3
23	24	4
92	125	3
104	105	4
1	2	4
65	92	2
96	98	1
17	33	2
9	43	1
115	116	2
101	105	1
47	76	3
49	92	2
27	78	2
100	101	2
2	18	3
85	86	3
94	94	12
22	31	2
36	45	2
7	22	1
2	19	3
28	31	1
45	83	3
37	40	1
30	56	1
3	6	1
61	82	2
6	36	1
99	107	1
92	93	3
47	65	1
9	99	1
95	101	1
102	104	2
25	26	2
92	102	1
26	29	2
101	102	2
13	14	3
14	16	1
29	30	1
18	26	1
12	95	1
93	100	1
26	47	1
10	122	1
45	69	3
29	47	2
56	57	4
89	92	1
16	17	1
131	131	3
47	48	1
13	58	1
8	36	2
5	65	3
61	66	1
101	107	3
84	85	3
3	45	1
76	81	1
6	94	2
12	18	2
82	83	1
26	30	2
30	48	1
11	23	1
24	30	1
83	104	2
86	93	3
106	106	2
0	2	1
68	69	1
24	37	2
22	36	1
28	90	1
25	82	2
72	87	2
57	60	2
4	31	2
8	17	2
45	70	1
26	82	1
25	30	1
122	122	2
67	73	1
29	63	1
17	19	1
68	71	3
122	123	1
76	85	1
9	34	3
10	64	2
21	55	4
3	93	2
61	73	1
100	102	2
6	32	6
7	25	1
7	20	1
97	99	2
39	42	1
38	40	1
29	31	1
13	95	1
33	74	2
39	41	1
84	110	1
6	100	1
15	95	1
88	89	1
95	97	1
118	119	2
93	95	1
70	72	1
34	65	2
35	74	1
117	118	1
89	116	1
78	80	1
9	122	1
20	45	2
85	104	1
102	110	1
12	96	1
13	48	1
71	130	1
120	121	1
113	116	2
27	109	1
96	99	1
9	33	1
107	120	3
56	90	1
88	90	1
3	95	1
125	126	1
41	42	2
33	82	1
91	115	1
86	112	1
20	35	1
117	119	1
32	80	1
5	31	1
