46	46	15
132	132	8
106	107	3
30	30	13
109	111	1
143	144	9
107	110	6
54	55	12
10	10	17
151	151	20
122	122	22
66	72	2
122	123	6
45	50	3
171	172	5
94	94	5
151	192	2
29	29	12
44	45	4
17	18	8
172	175	4
45	45	19
182	182	3
196	196	9
134	134	11
154	154	11
143	143	13
186	186	23
47	47	10
6	24	9
174	175	6
108	111	2
107	107	9
172	189	4
14	14	17
163	163	8
178	179	6
131	131	12
51	51	17
26	27	2
142	171	4
99	120	2
103	103	5
166	166	6
73	73	5
152	152	9
28	28	5
10	11	13
83	117	3
73	94	2
36	36	7
51	169	2
189	190	6
148	150	3
71	71	9
17	17	11
33	39	2
18	35	4
185	185	14
139	139	6
165	165	13
181	181	17
20	21	8
159	159	15
35	35	17
56	56	10
138	140	3
145	170	3
88	89	4
127	127	14
12	24	2
112	112	13
172	173	8
155	155	17
144	159	4
171	196	3
145	146	5
41	42	8
168	168	12
192	193	4
68	68	4
48	48	23
188	188	17
109	110	7
23	23	13
163	164	2
135	173	2
32	32	7
191	191	20
87	87	9
100	100	7
55	55	15
1	1	3
120	149	4
78	79	4
21	21	6
100	160	5
30	38	1
183	184	5
149	150	8
189	189	16
197	197	21
172	172	16
170	197	11
113	132	4
118	118	15
113	128	9
193	194	7
125	125	9
194	195	3
142	158	1
174	186	1
72	72	6
15	15	6
155	179	2
183	183	25
62	62	1
111	188	3
192	192	16
156	156	25
108	109	3
31	32	6
53	54	8
79	79	10
49	49	19
31	31	14
101	101	12
114	115	9
0	0	17
172	197	1
150	150	7
185	186	11
63	63	4
190	190	12
22	22	4
151	152	6
119	120	6
124	124	11
101	110	4
158	158	9
157	157	24
2	4	2
70	70	4
109	109	4
5	5	14
50	50	13
89	89	3
43	44	5
13	13	17
19	29	1
127	128	10
39	39	7
187	187	12
3	4	4
135	135	9
9	9	13
179	189	3
95	96	7
7	7	4
23	24	3
37	38	5
172	174	2
10	52	6
108	108	15
142	159	5
3	3	9
26	26	8
8	8	5
180	181	3
10	49	3
37	37	16
60	62	3
162	163	5
119	135	1
151	160	3
1	3	5
184	184	12
170	172	1
136	136	7
180	180	12
95	95	5
188	194	2
177	177	11
41	41	7
130	130	13
103	108	2
193	193	15
137	142	2
120	120	3
121	134	6
19	19	7
155	156	11
101	114	1
20	26	2
59	60	4
36	39	1
115	130	2
170	170	27
96	97	5
157	158	8
151	154	1
5	6	1
142	142	4
33	33	6
102	102	16
190	192	2
64	69	4
194	194	16
47	48	5
37	191	5
12	13	1
123	124	10
21	22	2
14	163	1
164	164	8
72	73	2
46	47	5
115	115	15
11	11	17
38	38	4
149	149	22
9	15	2
77	77	5
187	188	7
175	176	8
139	140	6
43	43	12
12	12	12
119	122	2
153	153	3
57	57	12
163	166	6
103	104	9
5	24	6
67	67	1
133	134	2
105	110	3
177	179	1
76	78	2
32	33	1
52	52	8
106	106	4
16	16	13
114	114	11
6	38	1
184	189	1
176	176	15
125	126	1
141	149	1
136	137	5
173	174	5
56	57	2
176	182	2
59	61	3
167	167	12
6	26	1
58	58	15
133	133	16
105	105	5
110	110	2
169	169	15
72	78	1
175	175	5
145	174	3
48	49	3
165	166	5
1	21	1
107	140	1
13	14	1
132	133	5
116	119	4
42	42	11
85	85	3
61	61	6
23	45	1
195	196	4
107	173	2
160	161	6
189	193	2
27	27	8
171	178	2
50	57	3
169	170	2
113	113	11
176	177	3
69	69	10
124	126	2
124	125	8
147	177	3
9	170	1
71	72	2
36	37	4
138	138	19
99	100	1
182	183	7
141	142	3
18	18	4
13	50	5
42	53	1
82	82	2
137	137	15
107	108	3
25	25	3
190	191	7
123	123	10
170	171	6
160	160	13
4	4	8
10	12	1
83	119	1
159	164	2
23	32	3
167	168	3
159	160	8
120	121	2
54	54	6
2	21	3
44	44	16
176	179	4
158	159	6
3	34	3
150	151	1
112	137	1
99	99	4
104	104	12
175	185	2
2	2	4
174	176	6
34	34	4
51	188	4
142	151	1
118	119	1
136	145	3
154	155	6
30	31	2
148	148	25
86	86	2
161	161	3
141	171	1
175	180	1
51	57	1
5	150	2
145	145	9
163	167	2
117	118	10
5	25	1
24	25	6
147	148	2
21	23	4
126	127	1
23	38	2
184	185	3
117	117	8
57	58	6
22	23	1
71	77	2
45	51	2
39	41	3
101	102	6
53	53	8
111	111	11
141	141	8
137	138	2
42	45	1
102	103	3
179	180	7
178	178	6
150	160	3
136	142	7
102	105	2
148	149	4
105	106	1
62	63	2
82	94	1
158	172	2
12	45	5
97	97	4
151	161	1
121	121	6
34	37	3
149	153	1
127	141	2
114	135	3
147	147	6
146	147	1
156	157	3
60	60	4
134	143	1
128	128	11
123	138	1
26	42	3
144	144	5
177	190	1
161	162	6
107	176	1
23	27	1
12	15	1
104	105	4
7	8	6
84	84	1
168	169	4
119	121	2
5	38	3
132	137	4
164	165	2
126	126	7
17	19	1
191	192	2
172	185	3
114	157	2
138	139	3
21	27	5
140	141	3
189	191	6
42	47	2
179	179	5
3	160	2
47	50	3
158	176	3
116	116	10
100	106	2
35	36	6
85	86	3
169	179	1
186	188	4
17	30	3
76	76	3
122	127	4
63	73	1
9	47	2
163	171	2
6	40	3
30	35	1
174	174	3
102	108	2
175	177	3
24	39	5
158	173	2
50	51	4
103	106	1
130	131	1
19	21	4
146	146	6
28	29	2
74	88	5
127	129	3
171	186	1
188	189	2
72	74	3
38	39	1
72	184	1
33	38	1
40	40	2
65	68	5
142	143	2
3	43	2
20	20	2
171	171	8
1	34	1
17	20	1
69	71	2
84	85	1
77	94	1
19	36	1
76	77	1
195	195	9
70	71	3
21	30	1
45	46	8
161	164	1
53	184	2
28	41	4
102	114	2
113	129	1
113	127	1
66	66	1
103	161	4
51	52	1
139	142	1
114	129	2
20	31	1
105	166	1
4	8	1
140	140	4
31	44	1
135	157	2
133	137	1
139	155	1
81	82	2
99	194	1
15	33	1
136	172	1
152	192	1
1	24	3
98	99	1
138	154	3
80	81	2
154	156	2
156	185	4
87	89	2
14	15	1
55	56	3
123	137	1
179	182	2
180	190	1
64	64	4
16	34	3
107	172	2
123	136	1
102	135	2
145	163	1
181	182	1
135	136	2
5	26	1
25	42	3
156	164	3
111	193	1
18	30	2
196	197	1
148	160	1
135	137	1
20	30	1
139	167	1
143	159	2
8	9	3
39	45	2
168	170	1
90	90	2
36	38	1
186	187	4
94	98	1
183	195	2
102	107	1
40	41	1
25	26	2
162	169	1
75	75	1
101	136	1
43	45	3
183	185	1
10	50	3
15	169	2
152	153	2
101	113	1
20	29	2
116	134	1
29	35	1
15	16	1
135	138	1
11	12	3
119	129	1
106	133	1
133	136	2
123	195	1
184	194	1
161	163	1
74	76	3
45	47	1
166	168	1
13	55	1
185	192	2
176	190	1
83	120	1
128	156	1
0	160	1
116	118	1
2	24	1
77	78	1
29	30	1
24	24	4
111	140	1
135	145	1
155	158	1
162	162	1
128	129	1
141	196	2
14	30	1
71	120	1
146	178	1
146	177	2
65	65	2
178	180	2
101	193	1
80	86	1
110	111	1
9	10	1
56	88	1
188	190	1
134	173	1
119	119	2
112	193	2
34	36	1
31	46	1
50	124	1
147	160	1
129	130	2
172	179	1
169	188	1
20	36	1
151	170	1
140	142	1
2	22	1
6	7	1
115	116	2
172	186	2
101	141	1
100	194	1
37	39	1
156	197	1
13	54	1
122	137	1
53	56	1
18	19	1
59	59	1
13	169	2
49	50	1
116	117	1
23	39	1
66	67	1
167	197	1
5	43	1
121	137	1
113	114	1
50	173	1
