90	90	9
91	91	7
95	147	5
22	23	6
36	36	4
65	65	4
89	90	11
13	14	6
84	84	3
104	104	8
151	151	1
87	87	4
37	37	1
74	74	3
17	18	2
38	75	1
130	130	4
63	63	6
19	19	1
41	41	9
50	58	1
62	62	5
127	129	4
57	62	4
71	87	1
168	169	4
112	113	1
153	153	2
86	90	3
125	125	8
23	24	6
24	24	7
80	80	4
35	35	5
16	160	2
19	40	2
11	11	9
150	150	1
123	123	4
139	140	1
68	68	3
4	6	3
94	125	2
137	137	8
6	6	7
79	98	1
21	73	3
8	8	3
120	122	2
105	107	3
39	39	6
70	85	5
126	126	1
110	110	10
78	119	1
122	122	18
6	169	1
3	3	4
83	83	5
88	90	2
101	105	4
5	6	8
33	33	2
105	106	5
53	62	1
70	70	4
40	40	5
106	106	8
62	63	1
120	120	2
14	14	10
57	58	2
76	77	3
93	94	1
20	22	4
138	138	11
11	17	1
107	130	3
100	106	3
133	133	3
89	89	4
115	115	5
23	72	2
6	7	6
20	20	2
46	46	7
147	147	6
126	127	3
77	77	4
51	51	5
34	34	6
46	56	3
39	40	2
17	24	1
162	162	5
86	86	2
100	100	8
21	22	3
103	103	5
129	129	5
100	104	2
97	97	2
127	127	2
134	134	4
114	116	1
76	79	6
26	26	5
49	49	3
117	119	1
154	154	3
69	69	3
157	157	3
78	95	4
11	21	5
8	9	8
78	78	11
93	95	3
52	52	2
132	132	5
22	22	8
140	165	5
141	141	10
23	58	1
67	80	1
109	110	5
166	166	3
114	114	5
106	107	1
18	18	1
23	45	2
113	113	3
23	23	5
102	102	7
38	38	7
43	56	1
100	131	3
65	67	1
145	146	3
148	164	2
155	155	6
162	163	1
17	17	2
9	9	4
39	41	1
43	43	3
168	168	2
97	99	1
96	97	2
105	105	2
55	55	3
40	41	1
17	20	2
13	13	3
7	11	3
92	92	4
69	84	1
2	25	3
69	96	3
56	57	2
5	5	1
119	119	3
156	169	1
152	153	1
36	117	2
27	27	5
41	42	2
16	16	5
15	15	2
69	70	2
92	138	2
7	7	2
35	64	5
108	109	1
65	113	3
124	124	4
128	128	5
127	128	2
95	95	8
63	66	2
42	42	4
114	125	1
37	114	4
117	118	3
96	125	2
4	17	1
104	113	2
1	3	2
10	11	3
96	124	2
148	148	5
10	10	3
14	18	2
117	117	4
1	2	1
54	56	2
136	136	3
47	48	3
86	87	1
25	84	1
82	101	2
156	156	2
71	71	2
64	64	1
25	26	1
103	116	2
53	53	1
82	82	2
4	4	2
77	130	3
3	158	2
103	123	2
22	64	1
160	160	4
88	89	5
9	18	2
35	43	2
48	48	7
99	99	2
56	56	5
167	167	1
131	131	2
49	54	1
11	12	1
102	104	1
126	166	1
75	78	1
108	132	1
143	143	1
71	72	1
98	98	2
42	83	2
118	143	1
81	81	2
57	57	2
151	154	1
35	135	2
2	2	1
152	152	2
50	50	2
21	21	1
73	73	2
128	129	2
100	101	1
141	164	1
148	165	1
73	153	2
157	159	1
54	54	2
144	144	2
65	66	1
146	146	2
111	111	4
151	153	1
83	84	1
129	149	2
161	161	1
45	45	7
42	43	1
165	165	1
158	160	1
67	69	2
25	25	1
158	158	1
4	18	1
92	137	2
92	93	2
66	66	1
109	111	1
20	24	2
146	148	1
52	112	1
0	1	2
72	72	4
3	24	2
34	36	1
138	142	1
136	137	1
126	147	1
12	15	1
127	134	2
94	94	1
126	136	1
67	71	2
75	137	1
4	7	2
101	102	1
86	96	1
125	126	1
149	149	1
87	88	1
159	159	1
164	165	1
133	134	1
140	140	1
8	75	1
11	41	1
4	21	1
54	55	1
74	78	1
82	135	1
67	67	1
92	94	1
