170	171	4
154	155	3
23	23	12
178	178	9
224	224	14
168	168	4
18	106	4
10	183	4
129	129	3
99	113	2
126	126	1
196	196	10
203	203	5
231	231	17
212	212	16
133	133	6
235	235	10
26	26	15
183	183	21
150	168	1
46	55	2
219	219	12
24	24	8
143	143	15
211	212	5
215	215	4
69	69	13
45	45	22
29	31	1
26	27	9
174	174	6
103	105	7
198	198	8
88	89	8
73	74	4
78	79	2
6	7	10
138	138	10
116	185	3
43	43	14
11	54	2
12	13	6
70	70	24
190	190	11
19	19	13
137	137	19
213	214	6
12	15	2
239	239	11
41	49	2
218	234	5
39	43	2
38	38	14
15	17	1
10	40	5
55	55	19
72	72	13
27	27	12
34	36	5
2	3	3
97	97	7
82	83	2
126	127	2
54	54	20
11	11	12
178	179	2
140	140	10
165	208	1
222	222	12
140	141	5
31	31	4
64	72	1
152	153	1
16	16	13
66	67	6
225	225	4
175	178	2
21	21	20
116	117	4
24	25	10
34	34	4
171	171	4
15	15	5
66	108	2
12	12	19
100	114	4
202	210	3
107	107	7
201	201	18
156	157	4
122	122	8
135	173	1
209	210	4
32	33	7
241	241	8
42	103	5
9	55	1
81	81	5
134	135	2
176	178	3
21	22	13
102	102	2
9	183	1
136	160	5
5	107	2
194	194	5
242	242	2
39	39	21
3	3	6
206	207	5
146	148	6
153	153	18
44	45	1
227	227	5
123	124	1
5	184	2
70	97	4
75	75	8
167	168	10
116	116	6
138	156	3
41	42	2
8	84	2
159	159	7
165	165	11
33	33	10
14	14	5
231	232	3
152	160	2
29	91	1
102	103	7
202	203	2
53	53	19
234	235	3
142	143	2
158	158	17
208	225	5
151	163	5
131	198	1
40	40	5
74	74	27
148	148	6
11	12	1
4	4	15
176	176	5
37	37	6
100	100	2
229	229	2
43	78	1
110	110	6
219	220	4
216	217	4
78	78	7
197	218	2
191	191	7
96	96	6
4	5	2
20	25	1
62	62	13
233	233	8
207	207	4
79	79	9
221	221	8
46	46	13
136	136	14
2	2	7
105	105	11
101	101	9
10	10	7
21	23	5
118	118	6
238	239	2
36	36	13
205	205	5
20	37	1
13	13	4
217	218	6
208	209	7
144	144	2
204	212	8
240	240	14
156	237	1
125	127	5
104	106	4
162	162	2
120	120	4
89	89	4
142	142	6
56	56	16
120	121	5
23	37	6
119	119	2
29	29	27
5	76	4
241	242	4
208	208	10
24	28	3
102	105	1
24	27	5
176	177	6
73	73	14
170	170	2
59	60	12
207	208	4
213	213	6
18	19	1
57	154	2
136	161	4
42	42	19
213	228	1
194	195	1
8	8	7
53	70	2
44	64	3
57	57	18
220	220	6
98	98	4
17	100	3
71	73	3
166	212	1
182	182	14
76	76	7
209	209	7
195	195	8
122	123	5
22	22	9
111	111	5
156	156	3
0	1	4
45	46	10
207	209	8
152	152	12
129	189	2
173	232	6
155	155	1
114	115	12
0	178	5
64	64	6
32	32	5
44	44	6
59	59	4
155	156	2
200	201	8
19	20	3
88	88	11
130	189	4
130	130	4
58	58	7
234	234	3
40	179	2
225	231	4
86	86	10
128	190	2
213	217	1
10	11	1
11	174	2
197	197	10
33	34	3
79	80	2
60	60	9
205	206	8
75	76	4
50	50	5
197	225	6
179	180	2
172	172	6
61	61	12
180	180	10
99	99	4
8	13	3
115	125	1
71	71	7
174	175	8
166	166	6
34	35	8
48	48	5
9	42	2
37	38	7
113	113	5
190	228	9
8	9	5
202	204	3
2	5	3
198	218	3
191	192	5
135	135	2
20	23	2
179	181	3
137	139	2
169	171	1
28	28	5
141	146	1
137	183	1
1	1	5
54	61	2
221	231	1
237	237	6
204	204	9
181	181	7
9	9	8
226	226	4
134	134	12
206	206	8
73	97	3
20	21	7
106	106	7
167	169	3
201	216	2
138	153	2
38	39	5
84	84	23
122	128	1
127	127	9
173	173	3
159	160	6
143	144	4
109	110	5
141	142	3
121	121	6
153	155	1
216	216	4
169	169	4
117	117	1
67	67	6
184	184	2
157	157	5
217	217	5
145	145	4
36	37	1
104	105	6
0	41	1
173	230	3
151	152	2
124	131	1
35	85	2
211	211	5
150	163	1
0	0	8
3	16	2
59	140	2
47	55	2
67	86	2
218	218	4
154	154	2
18	29	1
174	190	2
131	131	2
26	37	2
71	74	5
179	240	1
203	210	10
238	238	4
54	55	4
133	193	1
74	75	3
97	100	1
125	126	7
30	30	1
102	104	2
80	80	3
201	211	2
6	6	7
29	54	2
148	170	3
153	154	3
142	173	4
77	77	1
68	68	7
53	56	1
83	84	3
4	7	1
139	139	3
115	116	5
135	234	1
151	151	1
48	49	6
186	186	4
32	77	2
162	163	2
219	231	2
82	84	1
212	221	4
224	228	3
120	128	1
20	20	3
42	48	3
125	125	7
213	215	2
1	179	2
214	216	3
50	145	1
40	41	1
177	177	6
175	177	3
103	106	2
4	6	5
223	224	7
51	138	2
149	151	2
228	228	8
22	23	4
47	47	7
117	118	1
133	135	4
42	44	2
210	210	5
147	148	1
65	65	9
7	15	3
228	231	1
226	227	2
36	63	7
121	122	1
217	219	1
232	232	3
175	175	7
80	82	5
41	41	4
183	230	2
232	242	1
79	84	3
188	188	3
150	178	4
61	237	3
202	202	1
64	65	4
8	37	4
172	226	1
184	185	1
161	191	3
151	236	1
107	108	1
83	83	1
53	82	3
48	57	2
105	106	1
28	62	1
0	133	1
236	236	1
9	81	1
225	226	2
154	232	1
5	5	2
39	42	1
226	232	4
216	225	2
48	51	2
6	14	2
187	187	4
137	138	2
150	169	1
223	223	5
198	201	2
161	163	1
123	125	2
31	32	3
3	41	1
131	148	2
0	15	5
39	40	2
189	189	2
150	182	1
16	84	4
68	69	2
49	49	8
25	25	4
195	196	3
115	117	2
184	187	1
174	176	1
35	81	1
28	29	2
221	222	1
18	102	2
44	140	1
11	86	2
65	67	2
20	130	1
157	158	1
18	50	5
115	115	1
9	41	2
81	84	2
63	64	1
122	129	1
33	56	1
30	31	3
11	47	3
16	144	2
198	217	1
95	95	2
43	239	1
72	138	2
76	77	5
136	154	1
69	70	2
38	79	1
193	193	4
9	79	1
128	129	2
118	126	3
124	125	2
18	105	2
161	162	1
153	158	1
147	147	3
85	86	3
9	83	2
27	28	1
115	129	3
48	76	1
47	78	2
135	136	1
149	167	3
187	228	3
163	163	2
171	190	1
139	140	1
201	224	2
56	57	2
108	109	1
117	225	4
100	101	1
182	183	3
61	62	2
148	149	1
9	29	4
7	8	1
183	231	2
76	78	1
38	42	1
63	63	2
214	214	1
24	54	1
65	74	1
115	184	1
201	210	1
9	10	3
28	61	2
103	103	3
54	85	2
128	128	1
119	120	1
175	176	1
8	15	1
53	83	1
109	109	1
132	149	2
186	230	1
136	216	1
8	41	1
133	134	5
127	128	2
25	26	4
205	207	1
0	171	2
136	137	1
167	167	2
10	226	1
16	17	1
85	85	3
189	190	2
7	14	3
51	51	1
57	58	1
230	230	3
61	227	2
51	52	1
101	102	1
164	165	2
197	219	1
136	138	1
200	208	1
11	181	1
4	77	2
35	77	1
32	37	2
7	7	1
3	42	1
68	76	1
185	185	2
60	61	2
6	105	1
22	78	2
21	39	1
18	18	1
123	123	1
10	47	1
74	139	2
85	136	1
215	216	1
180	234	1
239	240	1
101	106	1
45	47	1
99	100	1
200	200	1
28	30	1
39	58	2
21	84	2
77	79	1
106	107	1
15	16	1
48	141	2
35	35	1
74	108	1
166	219	1
31	80	1
188	190	1
203	204	1
25	27	1
16	30	1
8	21	1
65	66	1
135	154	1
169	170	1
159	236	1
22	40	1
208	214	1
79	82	1
41	177	1
42	43	1
99	112	1
48	61	1
53	153	1
2	16	1
10	15	1
18	22	1
95	98	1
160	237	1
16	83	1
162	164	1
