46	69	7
173	173	13
62	67	5
111	111	12
183	183	17
178	178	13
41	41	12
163	164	19
188	188	22
197	197	11
181	181	22
139	139	8
47	47	15
106	106	8
136	136	14
45	45	15
166	181	7
148	148	15
8	10	2
146	146	15
22	24	8
5	40	4
117	192	6
29	29	16
73	74	5
114	114	13
156	157	10
14	19	7
138	138	17
110	110	12
119	119	17
166	166	19
171	171	22
80	132	1
128	129	2
19	41	12
155	155	14
124	124	20
54	55	4
28	42	5
24	24	8
109	110	15
176	176	9
185	185	19
103	103	14
44	44	11
34	34	7
19	22	3
161	162	5
12	13	1
7	64	4
73	76	3
20	21	4
49	49	12
30	30	17
189	190	6
187	187	16
128	160	6
161	161	23
155	179	2
40	40	15
127	127	25
36	36	2
85	85	3
157	159	2
94	95	10
152	162	4
99	115	4
114	118	3
8	26	4
35	53	7
57	57	10
1	2	12
44	53	2
14	15	6
149	150	10
187	188	15
32	33	8
132	132	16
51	52	6
75	75	3
179	180	13
62	77	2
150	194	7
128	128	16
179	196	3
150	161	2
115	115	9
3	3	13
88	88	13
144	144	14
137	137	14
184	184	21
9	10	7
0	41	6
80	80	6
195	196	16
153	154	7
165	166	9
119	122	1
159	161	3
156	156	14
22	26	3
75	77	2
135	175	2
61	61	5
130	168	2
69	69	26
51	51	8
194	194	12
191	191	15
80	85	3
126	126	13
84	142	3
196	196	21
25	25	12
163	166	3
127	194	2
139	141	2
11	14	1
190	191	5
28	28	13
150	157	5
173	178	3
175	176	4
134	168	11
173	175	8
159	176	4
131	132	6
107	108	7
180	180	13
18	18	7
178	179	7
99	99	12
178	180	3
36	76	3
58	116	8
160	160	24
43	43	11
137	147	1
113	113	16
157	157	16
77	78	4
153	153	15
19	20	3
59	65	3
76	86	3
67	70	3
155	156	14
7	59	3
108	112	1
132	180	2
125	178	4
157	164	2
142	142	9
31	31	16
87	167	2
121	121	9
147	147	18
106	108	5
100	100	17
83	84	6
150	150	21
135	135	5
93	93	12
88	132	5
169	170	10
170	170	29
68	75	3
38	38	1
133	133	16
186	187	9
96	96	10
135	137	1
0	0	8
189	196	5
58	58	6
189	189	8
55	56	6
81	162	2
16	16	20
109	111	2
143	144	2
23	87	3
159	159	6
190	190	18
115	145	5
114	144	2
163	163	8
186	186	12
124	126	3
64	66	1
64	64	6
152	190	1
165	165	12
36	37	4
80	81	5
25	38	3
103	104	3
95	96	7
113	141	7
192	192	8
178	190	3
122	127	2
70	70	11
158	163	5
59	59	8
4	5	5
9	9	8
141	141	6
121	143	4
66	66	4
106	176	1
167	167	11
193	193	10
111	150	3
4	9	2
20	20	10
195	195	10
140	163	2
167	190	6
182	182	5
6	40	1
94	94	18
37	58	1
146	152	4
139	140	10
69	70	4
64	69	2
19	46	3
71	71	4
173	186	2
77	77	8
73	73	5
182	183	16
29	30	3
62	62	16
135	136	5
174	174	8
180	194	2
149	149	34
53	53	25
13	14	2
13	97	2
164	165	9
169	169	13
181	182	7
157	160	4
176	177	4
72	72	15
123	123	10
113	190	1
83	83	5
81	113	2
170	197	1
23	32	2
150	151	6
89	89	12
157	158	8
189	194	4
178	186	3
94	104	2
113	189	1
2	96	4
23	23	11
23	24	4
39	39	7
37	37	12
188	189	8
67	67	11
65	68	1
114	132	4
174	175	6
158	158	7
94	96	10
154	167	2
177	177	14
85	86	2
105	105	6
21	63	1
104	106	9
136	181	6
129	129	7
105	106	8
174	179	6
134	179	2
5	5	8
154	154	13
116	116	6
172	179	1
168	169	3
55	55	14
179	179	7
25	56	3
168	191	2
63	88	1
130	153	2
24	54	2
130	157	4
26	43	3
104	105	6
13	13	20
140	145	2
23	88	4
9	13	2
172	172	7
122	123	4
172	184	6
21	21	12
40	96	2
5	52	1
177	178	5
36	68	2
160	161	4
150	196	4
27	27	8
163	177	2
27	30	1
102	158	2
125	127	1
6	13	2
159	160	5
128	194	5
48	48	15
162	163	12
4	22	5
16	42	6
17	17	10
20	28	1
47	48	1
138	139	3
78	79	5
125	126	4
134	134	13
35	77	2
98	98	2
139	145	3
34	36	8
131	149	2
4	49	3
26	27	3
35	35	7
90	154	4
112	141	3
31	52	3
102	102	9
84	179	3
111	190	2
52	52	9
50	50	14
108	108	4
173	174	6
117	117	6
5	6	4
179	186	7
9	30	2
81	83	9
167	168	5
37	51	1
122	145	4
9	101	6
105	160	1
130	169	4
155	161	2
125	125	5
48	49	5
56	56	7
29	42	5
38	63	1
54	54	27
35	60	3
93	100	4
175	178	5
2	97	3
133	178	4
0	95	3
118	118	8
180	186	5
149	155	1
146	172	1
11	38	2
49	50	3
162	162	11
116	117	1
132	182	1
46	46	18
22	63	1
26	26	12
186	192	1
61	62	5
117	153	2
190	193	7
55	57	7
4	97	1
170	172	9
12	32	5
71	76	3
116	151	2
168	168	15
87	87	8
4	4	7
27	28	4
138	170	4
88	167	2
43	53	3
108	111	5
74	76	2
140	140	3
166	178	5
129	170	1
52	55	4
132	175	2
7	36	4
25	55	1
74	75	3
183	184	5
79	80	4
1	35	1
55	70	2
103	172	4
79	84	2
9	11	2
155	157	6
114	115	9
59	62	1
192	193	8
136	137	2
40	41	13
12	23	3
134	136	4
130	131	4
109	109	4
99	107	4
70	71	12
62	75	1
164	166	2
146	151	3
152	153	4
79	82	3
7	7	3
169	171	1
0	2	4
74	74	4
81	132	5
7	18	4
156	191	2
1	1	3
122	171	2
113	164	1
23	30	4
58	117	4
172	187	1
147	148	9
19	29	9
180	182	3
121	130	1
12	12	7
145	145	4
137	161	4
87	130	3
83	88	4
3	40	1
8	8	2
160	162	5
138	151	2
60	61	1
15	15	4
102	103	11
122	122	10
52	54	1
34	35	3
97	97	11
138	192	1
180	181	8
12	39	4
37	54	3
30	31	2
77	79	4
157	176	1
126	134	3
10	17	2
89	90	6
126	139	5
33	33	5
191	192	7
9	48	1
149	172	3
194	197	6
151	151	17
44	100	4
78	78	3
95	106	2
93	94	1
144	145	5
166	167	5
30	163	5
35	75	3
31	32	1
192	194	2
15	17	4
6	45	2
46	68	5
146	149	2
193	194	8
154	157	1
171	192	1
169	191	1
7	8	2
33	38	2
27	45	2
59	82	2
18	54	1
28	30	6
41	42	4
19	75	3
130	166	3
19	21	5
176	178	2
60	60	4
18	27	1
62	118	1
176	182	1
143	179	2
36	38	4
160	163	1
131	158	5
74	78	1
7	65	2
102	172	2
143	186	1
2	44	4
137	181	2
108	109	1
169	186	1
99	103	1
34	111	1
139	180	4
53	54	1
36	107	2
57	69	3
159	178	2
0	3	4
64	107	1
172	180	1
118	131	2
81	81	5
11	11	5
58	62	1
112	112	7
125	155	2
93	108	3
58	90	1
33	37	11
177	180	3
149	173	1
175	175	6
13	36	1
3	25	2
188	195	1
85	87	2
79	79	2
82	118	1
103	105	1
5	63	1
10	10	13
155	176	2
175	179	2
111	113	1
0	97	1
8	59	3
164	164	9
171	188	2
131	175	1
35	59	4
57	84	2
133	176	2
8	58	4
19	19	3
6	38	1
121	142	2
20	22	6
66	108	1
106	154	1
70	84	1
25	37	2
0	1	3
59	72	1
46	76	2
146	188	2
90	155	6
172	175	2
160	173	2
32	32	2
132	140	1
107	195	2
137	192	2
86	166	1
21	74	3
87	88	2
24	40	1
18	71	3
150	172	1
120	120	11
80	82	1
124	125	3
107	107	6
6	7	4
170	171	3
33	34	2
158	159	7
145	177	3
46	60	1
21	110	1
44	56	4
148	187	1
171	189	1
38	39	4
136	167	1
152	152	9
21	24	1
19	34	4
74	85	2
99	148	2
8	64	3
5	19	2
88	129	1
103	164	2
79	86	1
167	191	1
65	153	1
27	43	4
73	75	1
8	11	1
171	179	4
130	130	3
35	36	5
193	197	1
168	186	3
156	176	2
21	22	4
174	180	3
137	138	1
36	74	1
118	119	2
59	60	3
75	76	2
162	164	2
84	84	3
103	108	3
154	176	1
89	130	2
120	121	1
59	113	2
115	116	2
162	171	3
83	132	1
134	169	6
37	38	2
66	68	2
18	41	4
166	190	1
130	179	1
33	35	1
68	70	2
82	133	2
146	147	6
114	162	2
63	63	3
11	39	1
122	197	1
173	176	3
174	176	1
152	154	1
50	194	1
18	35	1
178	181	2
134	135	5
18	38	2
175	183	2
133	159	1
95	97	1
138	141	1
18	40	2
67	68	6
99	183	3
51	53	2
131	179	3
134	137	2
63	113	2
86	86	2
126	127	1
149	151	2
114	156	1
61	117	3
166	168	2
101	102	2
84	85	5
14	14	7
50	51	2
132	163	1
84	86	3
104	104	4
121	122	3
87	132	4
59	88	3
45	63	1
129	159	1
7	68	1
5	8	1
4	23	1
79	81	2
116	153	1
194	195	4
15	16	6
36	50	1
189	195	1
86	117	3
102	108	1
19	40	1
24	25	3
38	53	3
85	133	2
153	156	1
43	44	2
168	190	2
74	109	1
150	183	1
39	40	2
179	182	3
95	95	2
126	144	1
27	29	1
149	194	1
5	7	2
71	75	2
20	38	3
134	177	2
59	117	2
129	132	1
135	176	2
113	150	2
39	45	1
141	156	2
14	78	1
117	118	1
171	172	1
111	112	2
4	39	7
67	89	1
184	194	3
129	146	1
58	59	1
113	128	2
42	93	1
172	185	1
62	72	1
24	26	5
93	97	3
154	163	1
45	53	1
58	88	1
14	32	1
134	174	2
6	6	1
39	44	2
76	76	2
168	180	1
61	116	1
132	133	1
109	115	2
14	66	2
102	174	2
166	197	2
2	2	2
111	114	1
192	196	1
3	39	1
62	63	2
99	108	1
52	56	3
28	29	3
4	25	1
27	42	1
126	138	1
167	186	1
142	181	1
8	9	1
173	177	1
120	145	1
65	65	2
175	180	2
42	42	2
10	11	1
1	47	2
22	22	1
177	181	1
123	127	1
125	179	1
161	167	1
8	28	1
82	83	2
131	168	1
2	7	1
163	174	1
169	192	1
100	146	1
23	107	1
60	107	1
3	7	1
105	119	2
140	152	1
138	145	1
10	12	1
25	26	1
191	193	1
5	59	1
102	104	1
10	19	1
121	145	1
1	24	3
8	96	1
123	124	1
62	78	1
69	73	1
150	189	1
45	51	1
143	178	1
35	73	1
34	59	1
97	98	1
176	179	1
133	135	1
137	180	1
185	196	2
65	73	1
16	40	1
41	96	1
119	120	1
17	67	1
169	197	1
140	144	1
127	128	1
0	28	1
13	126	1
16	43	1
64	76	1
167	197	1
37	104	1
116	120	1
170	188	1
82	82	1
64	153	1
33	78	1
