8	8	19
3	7	1
60	60	9
76	76	17
25	25	16
30	43	1
55	55	11
4	4	9
33	34	3
27	27	21
7	9	2
9	29	1
8	71	4
68	68	2
44	44	2
57	57	4
38	50	3
48	48	8
63	64	14
60	61	6
24	24	12
45	45	12
5	6	6
66	66	13
11	11	8
33	33	13
53	58	4
23	23	16
64	66	1
5	5	9
7	7	7
64	64	15
58	73	4
20	20	17
12	30	1
37	42	5
13	30	1
29	29	7
30	30	12
69	69	4
9	9	19
44	45	7
35	35	13
25	71	3
22	22	9
27	29	6
31	31	17
3	3	13
62	62	6
25	26	11
50	51	6
7	46	3
11	12	6
70	72	1
29	30	2
52	52	7
34	35	2
28	28	14
21	21	25
69	70	11
61	61	7
19	19	12
6	6	10
10	10	15
22	52	6
41	41	7
65	65	8
13	13	18
71	71	9
57	58	5
8	9	9
0	0	11
70	70	4
12	12	17
26	26	13
32	33	3
59	59	5
72	73	5
49	49	4
66	68	4
24	25	7
35	36	3
9	10	10
53	53	10
5	50	1
18	52	1
52	54	1
18	18	3
30	36	3
36	36	6
70	71	2
42	43	4
68	70	2
46	46	7
47	48	4
23	24	7
28	29	9
40	40	5
27	28	3
40	51	1
54	54	5
20	21	9
43	55	5
49	51	1
43	45	8
10	11	12
67	68	1
47	47	7
63	65	1
51	52	2
4	5	9
73	76	2
32	32	2
19	20	7
38	39	5
39	39	7
75	76	4
2	2	3
61	65	4
7	33	1
6	7	1
42	42	5
49	50	6
31	50	2
22	23	3
1	2	7
58	58	8
43	43	3
34	34	4
43	47	2
30	31	4
0	22	3
10	23	1
69	73	1
53	54	3
10	55	3
40	50	2
7	8	3
22	24	2
37	38	2
63	63	4
0	23	1
65	66	5
29	42	3
71	72	3
56	56	4
4	51	3
74	74	3
61	70	4
26	27	8
44	56	1
67	67	2
35	41	1
35	73	3
57	59	2
72	77	2
8	46	2
6	32	1
31	39	2
23	25	5
10	30	1
52	53	2
65	67	1
7	22	1
38	38	1
64	67	2
56	59	1
45	57	6
8	69	1
74	75	1
5	47	4
63	67	1
3	48	1
2	4	1
50	50	2
29	31	2
6	48	2
31	32	3
66	67	1
68	73	3
3	4	1
21	22	1
74	76	2
42	44	2
0	2	2
42	51	2
9	45	1
9	70	2
9	26	1
30	51	3
13	14	2
49	54	3
13	53	3
14	14	3
46	47	2
26	28	4
43	44	4
26	68	1
75	75	2
45	49	2
2	3	1
36	41	1
1	1	2
77	77	2
51	51	6
37	74	2
56	58	1
45	46	1
26	29	1
10	25	1
65	68	1
48	49	1
36	73	1
38	51	1
64	65	1
34	41	1
61	62	3
31	62	1
7	71	2
37	39	1
10	12	1
56	57	1
65	74	1
27	30	1
36	40	2
11	13	1
62	67	1
39	51	1
54	56	1
