18	18	21
103	103	9
11	12	7
102	102	20
94	99	2
37	37	23
89	89	25
1	3	3
85	85	18
74	75	6
71	72	7
80	80	10
117	117	14
86	87	10
124	124	41
35	36	5
11	11	17
128	129	16
108	108	11
90	91	10
127	128	10
110	110	11
113	113	15
121	123	4
2	2	19
91	91	31
88	88	14
138	138	26
27	29	8
29	31	5
131	131	31
125	125	32
109	110	5
28	29	11
74	77	7
34	34	22
72	72	23
21	21	4
19	21	8
132	132	16
35	35	19
97	97	27
104	104	4
22	23	8
3	3	13
95	95	19
79	79	17
113	114	10
115	125	3
127	127	19
125	128	5
8	24	2
136	136	19
121	122	6
115	115	14
140	140	27
102	103	2
21	22	3
126	126	45
36	36	6
79	80	8
138	139	10
94	94	14
96	96	29
105	105	5
123	123	19
110	111	15
34	35	7
81	82	7
129	130	6
128	128	42
109	109	20
100	100	12
120	120	9
82	82	14
112	112	14
35	114	6
30	121	11
133	133	32
118	118	16
111	111	16
21	25	7
87	87	14
9	9	7
130	132	2
77	78	5
5	5	33
97	99	3
12	12	6
134	135	19
98	99	5
114	114	22
1	1	19
8	8	20
75	76	7
134	134	32
8	9	6
121	121	17
93	93	12
27	27	8
87	88	1
123	124	17
99	99	14
77	77	16
85	87	10
84	84	10
129	129	38
10	11	6
130	130	36
16	16	11
73	73	12
111	118	5
13	14	11
1	20	2
78	79	5
120	123	6
35	38	2
26	26	13
20	20	17
11	23	1
28	30	4
19	20	6
4	4	21
119	120	11
95	96	4
22	26	7
127	140	5
28	28	8
90	90	5
74	74	13
106	106	10
126	130	1
116	116	23
122	122	11
86	86	12
78	78	20
119	119	5
139	139	25
92	93	2
6	7	4
99	100	2
33	33	15
71	86	4
7	9	6
116	117	16
33	34	7
3	5	3
102	121	3
117	123	6
137	138	15
22	24	3
89	90	9
100	101	5
124	125	10
14	15	9
111	112	6
100	113	1
37	38	6
105	106	4
136	137	7
135	135	34
101	102	3
1	12	3
6	6	18
102	108	5
20	21	3
31	31	5
73	78	4
34	38	4
16	21	3
36	37	4
5	6	8
81	81	15
98	98	11
0	1	10
83	83	10
30	30	9
73	88	1
76	76	7
14	19	3
25	26	7
24	26	5
13	13	13
104	119	1
83	84	4
84	85	8
11	25	3
137	139	2
76	78	2
27	30	5
38	38	5
21	23	4
137	137	23
94	95	4
91	93	2
81	83	4
25	25	10
131	132	16
120	121	2
126	127	11
93	94	14
0	0	5
115	116	5
30	31	13
15	16	1
80	86	4
15	24	2
71	74	3
139	140	3
22	22	8
14	18	2
126	128	7
2	16	2
16	17	3
101	103	4
102	109	4
75	77	5
14	14	6
12	13	5
73	77	5
7	7	12
107	108	5
4	5	5
105	122	1
27	28	4
114	115	8
102	123	4
101	101	13
96	99	2
100	125	3
116	123	1
72	73	4
17	17	20
15	15	7
32	32	11
109	112	4
109	119	5
122	123	9
85	103	5
119	122	4
124	127	6
75	75	6
7	8	8
107	107	7
19	19	6
126	129	6
73	74	5
3	4	10
85	86	4
71	71	9
120	122	5
123	125	4
10	10	5
106	107	4
118	119	6
1	9	3
132	133	15
36	113	1
27	32	3
14	26	1
118	120	5
4	71	3
121	126	1
85	88	1
7	22	4
14	16	7
17	19	5
110	117	2
135	138	1
96	98	3
88	89	4
110	122	3
140	141	6
134	136	7
16	26	2
97	98	4
71	87	1
131	138	2
80	84	2
74	79	5
116	125	4
23	23	4
118	123	3
74	78	3
71	79	2
2	3	2
92	92	3
29	30	2
80	81	2
108	109	2
82	83	3
8	10	2
18	21	1
135	137	1
79	82	4
104	108	1
125	126	4
130	131	3
72	89	3
86	88	3
105	120	1
119	121	2
127	129	2
16	19	2
9	11	5
89	91	5
128	130	3
110	123	1
141	141	1
106	114	2
91	111	1
36	112	3
117	122	1
110	112	2
136	138	4
6	72	4
135	136	8
31	32	6
21	28	1
21	27	1
87	106	1
106	108	1
1	2	2
71	78	1
27	121	1
15	17	1
113	117	1
115	117	1
79	84	2
7	11	1
72	78	1
76	77	6
133	134	8
86	107	1
23	24	3
77	79	2
24	24	3
81	86	1
72	88	2
0	7	1
24	25	1
21	24	1
36	98	2
30	32	1
103	104	1
101	122	4
113	116	1
94	96	1
114	116	1
101	123	1
101	109	1
123	126	1
0	9	1
102	106	1
26	27	2
83	87	1
101	117	1
131	133	2
102	104	1
17	18	1
68	88	1
101	104	1
129	140	1
112	120	2
78	80	1
88	91	1
29	29	1
