51	52	11
72	73	35
31	31	38
54	55	27
50	51	15
10	10	19
75	83	2
52	59	3
26	26	17
61	65	5
86	86	32
21	21	8
61	61	14
73	73	28
61	62	18
78	78	19
54	54	30
69	69	24
81	82	16
56	66	4
65	83	4
52	55	7
79	79	40
67	67	39
12	12	24
62	62	18
80	80	45
75	75	26
68	68	31
87	87	44
23	24	25
53	54	18
23	23	26
76	76	38
53	55	26
51	51	27
81	81	41
57	57	54
78	79	20
27	27	18
6	83	11
77	79	5
3	3	47
70	71	6
86	89	4
76	77	21
9	13	2
63	63	15
66	66	48
49	49	28
46	47	16
9	9	27
58	59	5
64	65	15
20	48	5
90	90	4
1	1	25
3	23	5
84	85	16
34	35	10
50	50	33
59	59	25
52	56	7
27	28	12
28	28	10
12	13	8
47	47	7
8	8	9
3	4	11
72	72	25
49	53	1
1	2	11
25	25	15
21	22	10
83	83	26
73	74	8
9	60	7
17	18	5
82	82	30
65	65	28
29	29	9
88	88	8
58	60	8
48	48	28
49	55	4
4	4	19
15	15	31
0	89	1
74	78	4
16	16	7
64	64	34
63	64	9
77	77	19
56	64	2
17	17	33
5	9	2
5	5	26
50	78	2
49	79	1
75	76	6
47	48	13
5	6	7
85	86	7
58	58	22
24	24	17
67	68	10
19	22	6
53	53	17
30	30	35
71	73	7
89	89	16
12	19	3
71	71	40
52	52	33
7	7	24
25	27	11
54	75	1
7	8	13
6	26	5
48	56	1
70	70	20
56	56	20
21	24	4
20	21	17
22	27	2
78	80	8
55	55	24
15	67	2
5	27	3
76	80	5
84	84	34
0	0	9
60	60	14
4	27	3
9	12	1
18	19	9
66	67	20
86	87	16
11	11	14
46	46	14
50	58	2
7	34	3
24	26	3
2	14	1
27	84	1
59	63	6
19	19	27
20	20	11
56	58	3
50	54	3
71	72	7
34	34	10
19	49	1
6	6	9
51	56	1
5	82	2
17	49	2
9	54	1
19	28	1
26	79	2
13	13	31
53	61	1
12	17	3
7	9	8
85	85	29
58	80	6
59	60	13
52	53	7
65	66	9
9	10	14
61	63	1
8	9	14
15	21	2
22	22	20
26	51	3
50	52	8
14	80	2
59	61	5
14	15	1
8	11	3
13	21	2
9	20	4
83	84	3
48	49	20
61	66	1
65	76	1
65	75	3
10	12	4
52	54	9
22	23	9
49	59	4
87	88	9
67	87	1
18	18	7
23	53	1
19	20	6
5	17	7
8	12	2
5	10	1
80	83	2
88	90	2
10	54	5
50	62	1
64	66	4
67	75	3
29	30	6
80	81	11
12	14	1
49	50	6
17	20	1
8	82	2
18	20	8
66	82	1
34	50	4
15	16	5
15	17	5
14	14	32
60	63	4
3	47	3
66	75	2
24	25	9
75	78	3
2	2	14
85	87	3
8	10	3
57	66	1
49	84	2
49	56	3
54	56	3
85	88	1
6	8	10
79	80	9
51	55	3
21	23	3
20	26	1
5	23	6
57	58	5
74	80	3
78	81	2
69	71	2
2	3	3
7	32	4
62	63	9
68	69	5
50	56	7
19	27	6
79	83	4
7	12	2
11	12	2
68	85	2
26	27	5
79	81	10
24	28	2
59	62	12
78	83	4
49	77	4
74	74	9
60	61	8
50	59	1
56	57	5
25	26	4
21	80	3
51	77	6
57	89	2
75	81	2
7	33	1
23	25	3
16	17	6
79	82	3
13	66	1
4	23	3
26	82	1
13	50	5
59	64	1
55	56	7
26	80	6
84	86	6
81	84	1
6	32	2
47	49	1
68	72	1
59	79	2
16	20	4
5	83	2
82	84	3
12	55	4
87	89	2
26	28	5
3	5	2
4	5	2
7	10	1
82	83	6
62	65	5
4	24	1
60	62	7
6	84	5
52	77	3
81	83	1
52	79	3
6	7	1
71	85	4
11	13	2
14	18	2
65	82	2
72	74	4
74	75	3
63	65	3
78	82	1
35	35	8
86	88	1
68	87	1
1	87	1
62	76	4
10	11	1
75	79	2
68	84	3
19	48	2
49	54	1
56	78	4
9	61	2
13	83	3
4	28	2
59	76	1
12	61	2
50	84	2
53	69	2
88	89	2
77	80	2
89	90	2
13	17	1
27	50	1
52	61	2
51	53	3
65	77	2
17	19	3
30	31	1
77	78	3
75	77	1
55	61	1
11	14	5
15	19	2
49	51	2
16	19	1
68	71	1
31	47	1
33	49	1
13	14	1
9	62	1
80	84	1
76	83	1
84	87	1
10	17	1
50	65	1
69	73	1
53	56	1
8	83	1
13	55	1
58	77	1
74	81	1
62	79	1
6	82	1
22	26	1
3	31	3
50	57	1
3	77	2
27	85	1
48	51	1
25	29	2
25	46	1
66	74	2
71	74	1
5	26	1
5	65	1
55	79	1
5	84	1
53	58	1
34	59	2
80	82	1
27	78	1
49	78	1
31	83	1
8	84	1
52	80	1
52	76	1
48	83	1
21	25	2
13	20	1
49	57	1
10	20	1
51	76	1
49	52	1
31	84	1
2	5	1
48	62	1
46	66	1
28	29	1
