88	88	9
75	75	12
55	55	12
6	7	4
81	81	18
13	13	8
79	81	2
11	11	9
74	74	11
20	20	7
54	54	7
27	27	9
25	27	4
75	77	3
46	63	3
12	13	3
50	51	3
66	75	1
19	19	13
84	84	20
16	16	4
68	68	11
80	80	6
76	76	10
52	52	11
51	51	10
63	63	2
79	79	6
17	17	5
57	57	15
65	77	1
66	68	5
73	74	8
86	86	18
77	77	3
27	56	1
54	56	4
6	6	8
6	10	1
53	53	10
63	64	7
23	23	7
21	21	5
9	10	11
51	54	3
81	83	5
53	54	5
17	54	1
3	3	7
5	26	3
22	22	12
24	24	8
13	86	4
1	1	13
80	81	13
67	67	13
49	53	5
58	61	5
7	7	5
65	67	2
25	87	2
55	59	2
89	89	11
10	10	3
66	66	7
19	24	2
72	72	13
2	2	10
62	62	10
85	85	5
63	66	1
26	26	7
51	62	1
80	83	4
25	26	6
78	79	6
18	18	11
59	62	8
59	59	11
34	34	4
28	28	8
60	61	4
83	83	6
25	25	6
70	70	6
47	47	9
11	53	3
1	24	2
65	66	2
60	62	6
15	15	2
60	60	6
17	22	2
72	74	1
56	56	10
82	82	19
50	50	8
64	64	5
71	71	6
52	61	1
59	69	3
49	49	8
48	48	14
69	69	7
29	30	7
89	90	2
14	14	5
25	55	4
58	60	5
87	87	6
46	46	2
5	6	4
57	58	4
27	28	7
30	30	19
4	4	10
5	8	1
56	60	1
64	65	2
17	20	2
26	55	2
26	27	2
61	62	3
59	78	1
71	72	6
53	69	4
51	52	5
82	83	4
54	55	2
0	2	3
20	21	4
55	56	3
53	56	1
6	8	1
76	79	1
78	78	5
75	76	4
8	8	2
50	52	1
84	85	3
78	82	2
16	28	1
0	0	4
58	62	1
23	24	2
11	13	2
29	29	3
59	60	5
72	73	3
9	9	6
46	55	1
49	50	7
56	57	4
73	73	4
58	58	5
17	27	1
65	79	2
32	32	1
65	65	4
81	82	2
18	20	1
12	12	9
31	31	2
61	69	2
66	87	1
59	61	1
88	89	3
47	48	2
13	48	1
3	74	1
52	54	1
52	55	2
12	49	2
68	74	3
11	50	1
22	87	3
21	23	1
11	12	1
7	8	1
57	84	1
31	46	1
28	30	1
79	82	2
65	83	3
72	81	1
0	1	2
53	61	1
5	48	1
22	23	1
23	27	2
46	47	1
2	67	1
46	59	1
28	29	1
31	49	1
22	24	1
80	82	1
19	25	1
75	84	1
35	35	1
65	76	1
59	63	1
54	61	1
64	76	1
20	25	1
55	79	1
