95	95	14
10	32	2
25	25	6
95	98	4
110	115	1
67	67	5
16	18	1
29	31	5
8	8	6
83	83	19
12	69	2
62	62	7
65	65	8
13	14	3
34	45	2
23	76	4
47	47	9
21	21	7
96	118	3
128	129	2
27	32	3
63	63	6
78	88	3
94	131	1
100	100	4
4	32	4
72	72	7
93	93	7
120	120	2
103	103	4
114	132	4
27	98	3
66	66	8
125	125	1
76	76	4
19	19	5
73	93	1
32	93	1
37	45	2
40	40	4
9	93	1
30	30	9
11	31	1
57	78	3
30	108	2
0	0	2
4	8	2
81	81	10
24	25	6
11	25	3
16	16	10
31	31	5
78	78	7
8	94	1
84	84	17
8	10	1
17	18	4
4	5	4
77	77	9
111	111	4
101	101	6
33	33	12
110	110	2
7	7	8
132	134	1
86	87	3
84	85	5
104	105	1
28	28	3
118	119	2
85	85	4
101	102	5
119	119	4
18	18	14
75	75	1
71	73	3
94	94	8
65	118	1
34	34	6
46	46	8
61	61	7
48	48	4
27	35	2
90	90	10
69	70	1
86	111	1
91	91	16
68	68	8
60	79	4
35	35	7
88	88	6
94	95	1
5	56	1
4	4	4
29	29	8
87	88	3
73	74	1
45	47	2
112	112	4
55	55	4
59	79	6
45	71	2
37	37	2
102	102	1
113	114	3
41	41	3
122	122	7
59	60	3
105	105	7
3	3	11
99	99	7
59	59	3
26	26	8
19	23	4
13	13	2
20	45	2
94	96	2
7	40	2
110	112	1
94	97	6
15	15	8
8	35	3
128	130	3
79	79	4
23	91	1
10	38	3
117	117	3
22	22	3
130	130	6
32	32	2
45	59	3
74	92	2
106	117	2
96	96	2
11	94	1
15	17	2
33	70	2
95	99	2
27	27	4
91	107	2
28	29	3
107	107	1
35	123	2
13	18	1
30	92	2
4	10	3
59	85	3
97	97	4
58	59	2
15	26	3
113	113	9
112	134	2
62	70	1
78	79	2
79	88	3
17	17	5
38	39	1
9	9	7
128	128	9
36	38	3
54	56	2
65	92	2
82	86	2
46	98	2
10	11	9
11	11	13
36	36	3
66	67	1
79	81	3
28	91	1
105	122	2
74	74	2
134	134	1
76	132	1
16	17	1
129	129	3
83	85	2
8	9	3
45	45	6
29	78	1
60	60	8
48	79	2
56	89	1
18	28	2
98	106	1
89	93	4
91	92	1
125	127	2
49	49	4
82	82	3
96	98	1
132	132	1
6	15	2
19	21	3
14	35	1
90	129	1
64	64	7
94	107	2
95	132	3
123	123	3
31	107	5
79	114	1
62	86	2
100	101	2
78	97	1
72	102	2
27	81	1
5	101	1
36	43	2
114	114	3
47	48	2
10	21	1
57	57	3
58	58	3
123	132	2
70	70	2
20	20	4
87	87	1
64	67	3
69	75	1
66	75	3
71	71	7
112	113	5
69	69	5
110	113	1
23	24	4
44	44	3
73	73	3
2	101	1
14	15	2
15	16	3
12	47	1
45	49	1
83	84	2
118	118	2
7	92	3
2	26	2
68	69	3
3	92	1
79	93	3
9	10	3
80	80	3
38	38	1
6	6	6
115	115	3
60	82	1
23	124	1
66	74	2
82	85	2
10	10	2
93	94	2
33	35	2
92	93	1
70	71	1
48	55	1
116	116	1
86	86	7
133	133	2
84	114	3
30	31	2
92	92	2
102	107	2
56	56	3
10	14	1
39	39	1
45	60	1
13	28	3
12	32	4
43	45	3
89	127	3
61	71	2
104	104	1
76	77	1
98	98	1
14	14	3
21	59	1
82	111	1
118	131	1
77	97	1
6	93	1
23	41	1
27	36	3
131	131	1
86	107	2
55	134	1
108	108	1
101	128	1
57	58	1
11	35	1
61	83	1
56	86	1
103	104	1
29	81	1
57	114	1
83	131	1
18	66	1
42	42	1
48	90	1
31	32	1
96	97	2
108	109	1
100	104	1
12	12	1
29	35	1
124	130	1
8	49	1
114	115	1
42	79	1
89	107	2
72	73	1
14	31	1
103	120	1
43	43	1
26	32	1
61	75	1
94	133	1
123	133	1
49	91	1
63	79	1
84	111	1
6	29	1
12	17	1
20	66	1
7	22	1
45	48	1
