15	15	6
138	138	7
140	140	6
126	127	9
152	153	4
147	148	5
77	77	19
102	113	2
32	32	22
136	136	9
122	122	7
148	151	3
35	36	7
85	85	14
107	107	26
64	64	16
117	117	5
34	34	13
118	119	9
21	21	20
150	150	10
152	152	12
4	8	3
94	97	6
53	54	3
120	121	1
20	21	9
5	13	5
67	69	5
70	82	4
42	45	1
5	5	17
72	72	13
93	109	4
139	139	8
53	53	20
3	7	4
66	66	17
34	35	13
4	7	3
101	101	5
147	147	5
14	35	4
3	3	4
112	112	13
34	36	4
33	33	13
84	88	1
22	22	25
26	26	15
37	37	11
102	103	3
94	98	2
62	62	11
62	66	1
128	128	7
85	86	5
10	15	1
97	120	1
69	71	3
115	123	1
15	16	11
8	9	5
88	89	5
62	63	7
128	130	4
103	110	3
47	49	4
144	146	6
106	107	4
132	134	4
148	150	1
4	11	4
97	111	3
64	67	2
137	147	6
104	111	1
127	127	19
86	86	10
20	20	14
146	146	11
31	31	19
8	8	8
57	57	10
74	75	11
81	81	7
28	33	2
78	79	11
13	13	19
84	85	8
131	131	16
132	132	10
96	122	1
107	131	2
141	153	3
138	143	3
50	51	11
39	40	5
38	39	5
143	144	8
68	69	3
68	84	1
69	69	10
70	70	18
130	132	1
76	77	4
6	7	9
3	5	4
31	32	3
97	97	9
24	35	1
39	39	25
27	27	11
102	102	5
58	125	1
107	133	1
12	12	11
5	15	2
153	154	1
69	79	4
48	48	8
135	137	3
119	120	5
66	150	1
129	132	2
2	3	9
7	12	3
88	94	3
93	94	3
81	82	2
43	47	4
113	114	4
29	29	10
18	19	12
41	48	1
55	56	3
149	149	10
110	110	10
142	144	1
6	6	12
51	51	9
25	33	1
46	46	15
7	7	7
145	145	5
52	52	4
21	22	5
107	108	8
99	99	7
10	28	2
57	63	8
10	33	9
28	30	1
49	50	2
137	139	5
65	66	4
68	68	17
87	94	1
72	73	2
149	150	5
25	27	6
103	105	5
113	113	1
28	28	23
35	35	5
83	87	4
95	99	3
154	154	8
134	135	1
54	54	10
141	141	8
108	110	9
100	101	4
78	78	6
91	92	2
30	30	10
95	95	1
16	16	4
54	66	5
71	71	12
11	20	2
18	18	23
111	111	6
105	105	3
48	49	4
108	113	2
83	83	8
90	90	3
130	130	10
96	96	6
111	112	5
22	52	2
118	118	10
85	87	4
144	145	1
42	44	5
56	56	5
44	44	9
135	136	5
19	20	5
104	106	6
104	117	4
65	82	3
106	106	14
12	32	2
37	38	4
47	47	21
92	95	1
91	97	5
102	104	2
75	98	2
102	107	3
38	47	4
92	92	4
133	133	4
43	44	8
104	132	2
112	116	5
50	66	1
127	128	3
13	24	2
48	50	3
13	15	4
38	40	2
55	55	9
75	75	8
49	49	6
143	143	5
12	24	4
8	13	5
13	25	1
105	151	5
80	80	5
141	152	2
66	75	1
104	104	6
52	56	1
84	84	8
137	137	9
115	118	1
38	79	2
106	125	2
56	58	5
82	82	9
17	17	11
137	138	13
13	27	3
121	121	7
14	14	12
67	68	3
9	9	15
107	134	4
125	130	6
5	6	6
3	31	2
15	20	1
58	58	5
123	123	11
148	148	3
30	33	6
136	139	4
124	124	1
73	73	10
79	79	16
135	135	15
46	47	4
120	127	4
106	108	3
25	26	4
67	80	1
55	63	2
126	126	5
108	109	2
7	8	3
103	103	10
14	20	1
99	104	2
10	10	13
28	29	4
24	24	12
14	26	2
119	119	8
79	80	5
33	36	4
121	122	5
132	151	3
120	122	1
11	11	16
6	13	1
10	29	1
41	41	12
90	92	3
115	116	11
146	147	1
99	115	2
39	53	1
16	17	3
27	28	16
86	98	2
19	19	21
48	51	2
54	153	3
93	122	3
30	32	6
138	142	2
22	23	2
50	50	1
66	84	5
18	37	2
4	19	4
5	8	3
34	37	1
72	81	2
129	130	8
144	144	3
115	121	4
116	124	6
116	116	10
76	76	7
115	115	8
9	33	1
9	37	3
40	40	13
66	82	1
102	114	6
13	28	2
45	45	26
69	70	7
72	77	3
76	98	1
93	99	1
42	42	12
100	100	6
93	93	2
54	63	3
139	147	4
87	93	5
86	87	4
36	36	5
11	12	6
151	151	4
71	72	2
134	134	3
117	119	3
65	67	4
25	25	8
67	67	3
26	28	3
137	145	3
93	114	3
74	74	4
124	127	4
108	130	2
132	133	5
114	114	8
30	31	3
17	19	1
22	25	3
38	51	3
16	38	1
108	111	3
55	57	2
143	146	2
44	45	4
6	12	2
53	142	1
66	67	3
15	28	4
23	23	9
85	93	8
112	113	3
87	87	4
129	129	4
78	81	2
86	88	3
8	10	1
29	30	6
64	66	1
75	90	1
50	56	3
82	90	1
57	58	4
68	76	2
130	131	3
4	13	1
95	98	1
125	126	2
38	38	5
37	39	1
82	83	2
77	78	1
32	33	3
42	43	4
115	117	3
102	112	3
64	65	7
122	123	2
109	109	7
66	68	4
89	92	2
68	151	3
62	65	3
20	24	2
126	128	1
61	62	3
96	123	2
24	72	1
94	121	2
47	48	7
49	96	1
70	71	2
116	121	3
24	25	2
142	142	4
75	79	5
96	97	3
45	46	6
21	23	5
43	43	8
6	15	2
63	65	2
46	48	1
103	127	3
87	88	2
75	76	5
9	10	7
128	131	3
51	56	2
77	96	1
105	116	3
140	142	1
63	75	1
41	42	2
11	28	3
44	47	1
100	114	1
12	13	2
56	57	2
47	53	2
96	121	1
8	37	2
131	132	1
120	120	4
35	79	3
98	98	1
6	11	1
95	123	1
10	11	11
38	41	1
96	98	3
63	66	3
12	25	3
103	109	4
97	116	1
87	96	1
33	35	1
119	121	2
11	32	1
125	125	4
4	5	8
12	14	2
8	35	2
99	114	2
73	81	2
77	80	3
9	27	3
49	53	1
128	129	2
48	54	4
5	10	2
97	99	1
105	124	2
65	65	7
83	86	3
95	124	1
51	54	2
86	94	1
43	45	3
11	33	1
61	61	1
93	95	1
14	27	2
148	149	3
94	94	5
82	84	1
19	21	3
13	32	1
99	102	2
80	82	1
7	35	2
103	112	1
129	133	1
64	81	2
74	114	2
14	15	1
20	22	2
133	134	1
63	63	2
99	112	1
16	28	4
125	128	1
16	19	1
90	91	1
149	151	1
99	108	1
20	23	1
140	144	1
110	113	1
8	36	1
132	138	1
21	25	1
76	82	2
40	43	1
16	29	2
119	130	1
97	98	1
67	83	1
104	119	1
94	99	1
53	56	2
133	146	1
144	147	1
41	51	1
26	33	2
80	84	2
62	84	3
107	115	1
136	137	1
150	151	2
22	26	4
84	92	1
88	121	2
26	27	2
57	64	1
40	41	2
14	16	3
11	26	1
109	111	2
140	141	1
37	52	1
13	23	1
82	112	1
37	79	1
88	88	1
95	116	2
102	105	2
3	4	2
42	51	1
64	80	1
69	152	2
6	8	1
93	96	1
141	144	2
51	55	3
122	124	3
71	73	1
4	4	6
85	94	2
51	52	2
139	142	1
121	127	1
104	109	1
139	141	1
75	103	1
138	139	3
26	32	1
3	32	1
9	12	2
153	153	2
143	150	1
57	62	1
70	72	1
15	17	2
67	105	1
133	135	1
106	116	1
13	14	1
114	120	1
52	54	1
12	23	2
41	43	1
75	83	1
139	146	1
107	130	1
82	94	1
95	126	1
33	34	1
31	35	1
72	74	1
50	64	1
79	81	2
123	124	1
7	9	2
124	129	1
15	23	1
118	124	1
74	84	1
104	105	1
62	124	2
84	96	1
145	151	1
51	64	1
69	151	1
86	124	1
103	104	1
103	113	1
69	78	1
106	129	2
73	74	1
66	81	1
92	102	1
52	87	1
38	76	1
4	6	1
