45	45	17
23	23	9
61	61	7
49	49	10
55	55	14
20	21	4
46	46	15
50	50	8
33	33	18
36	55	4
57	57	11
3	3	9
11	22	3
47	47	9
30	47	1
19	19	7
58	58	12
50	52	4
51	59	2
40	46	4
36	37	1
8	8	12
32	32	12
56	57	3
1	7	2
56	56	12
5	9	1
41	44	1
58	60	4
14	14	4
6	7	11
38	40	3
9	9	10
48	48	7
35	35	6
6	6	9
54	54	9
51	53	2
4	5	5
2	56	3
42	42	5
61	62	5
9	10	3
54	55	3
4	4	7
41	41	19
16	16	5
9	13	2
38	38	13
36	36	16
21	59	4
44	44	15
40	40	8
38	39	8
20	20	19
19	24	9
51	56	4
30	30	9
48	54	3
43	43	9
30	32	2
40	53	1
7	10	2
52	52	5
5	5	8
39	41	9
10	17	2
30	31	7
59	59	14
1	1	17
42	53	1
8	9	5
15	15	2
31	31	8
34	34	19
57	59	1
10	12	4
25	25	5
22	22	12
62	62	12
0	0	4
45	51	1
21	43	1
50	51	5
13	13	4
4	17	1
51	51	14
10	11	4
3	59	2
40	41	6
37	53	4
2	2	10
55	57	3
7	7	7
22	23	1
39	39	15
12	23	3
18	18	8
0	7	1
37	56	1
8	11	2
53	59	1
14	34	3
19	20	4
25	26	2
51	58	1
52	53	10
37	37	8
6	21	2
0	4	3
10	10	5
60	61	3
13	14	1
52	55	2
42	43	5
0	33	2
33	34	1
29	29	1
37	39	8
41	45	1
1	2	2
38	47	2
14	43	5
6	8	2
20	60	1
31	40	2
5	22	1
53	53	11
44	45	4
43	45	1
38	54	1
1	30	2
16	17	2
47	57	1
32	37	2
60	60	5
30	61	3
39	46	2
42	49	1
9	24	1
9	18	4
5	6	3
43	44	2
16	37	1
46	58	3
4	7	1
51	52	3
12	13	6
11	23	2
54	56	1
5	7	4
11	12	3
47	48	2
24	24	6
20	23	2
57	58	2
18	20	3
42	45	3
16	19	1
6	24	4
53	54	1
2	31	1
15	16	5
17	17	8
2	7	1
7	8	6
11	11	4
31	32	1
16	25	1
18	19	1
21	21	3
37	38	1
37	41	1
0	1	1
51	55	3
33	51	1
32	33	1
7	9	2
54	60	2
31	43	1
29	58	1
4	24	2
49	53	1
36	48	1
34	56	1
17	18	3
44	59	4
58	59	1
57	60	1
9	44	1
50	59	2
35	36	2
50	53	1
45	59	1
17	25	1
17	37	1
39	40	1
12	12	3
49	55	1
40	42	1
33	43	1
43	53	1
19	58	1
49	50	1
5	23	1
29	57	1
36	49	1
