25	26	6
4	4	7
89	89	16
36	36	8
128	128	7
11	11	4
134	134	13
17	17	5
94	94	6
19	19	1
131	131	18
11	25	2
2	123	1
128	130	3
107	108	1
123	123	2
140	140	27
105	122	2
127	127	5
26	26	7
116	116	4
73	75	3
110	110	3
35	35	7
1	1	7
83	83	2
129	129	3
118	119	3
120	122	2
14	14	5
3	3	15
86	87	2
93	127	2
125	125	7
121	122	2
139	139	18
130	130	9
102	102	6
23	31	3
86	102	2
16	16	4
112	112	8
136	138	5
121	121	6
37	37	2
92	94	4
20	37	2
87	87	9
120	120	3
137	137	10
98	125	3
109	111	1
35	37	4
93	104	1
134	136	3
109	109	7
111	111	6
15	131	2
138	139	5
9	9	6
84	94	4
88	88	3
0	0	12
101	116	2
138	138	9
90	90	6
73	74	8
20	22	2
18	19	3
107	115	3
122	122	5
13	32	1
127	128	4
81	83	2
18	18	3
4	5	4
131	132	4
91	124	4
115	115	2
100	100	5
30	31	2
92	92	5
108	108	3
77	120	2
100	104	3
85	86	3
21	22	3
10	24	2
116	117	2
2	8	2
105	105	1
135	137	3
20	20	4
80	83	2
78	80	1
91	95	3
106	107	2
84	84	5
22	22	3
30	30	2
120	121	4
98	98	3
12	13	2
136	136	4
2	2	5
132	132	10
97	97	7
84	85	1
118	127	4
93	94	1
105	106	3
136	137	6
106	106	1
134	135	2
80	80	2
137	138	2
105	107	3
84	133	2
80	99	1
13	13	3
113	113	2
93	93	5
101	101	6
100	132	1
10	10	2
5	5	3
130	133	3
118	118	2
85	85	3
119	121	4
7	7	3
78	78	6
74	74	4
38	38	4
77	77	1
13	14	5
103	103	1
71	74	1
31	31	2
21	21	2
81	81	3
126	126	5
72	74	1
133	134	2
37	73	1
79	79	1
2	3	3
12	12	5
131	134	1
4	18	2
34	35	7
117	117	4
0	28	6
91	91	4
73	73	3
117	118	1
72	73	4
24	25	3
124	124	4
107	118	3
72	103	3
25	25	6
34	34	5
32	32	3
6	27	1
78	111	1
104	106	1
19	22	3
77	80	2
72	72	6
82	82	3
104	104	1
3	8	2
107	107	5
135	135	4
6	25	2
133	133	6
36	37	3
129	130	2
99	100	2
73	81	1
71	71	2
1	25	2
7	9	1
15	32	3
18	21	1
78	79	2
27	27	1
95	95	1
66	66	1
102	106	2
9	28	2
110	115	1
130	131	3
81	82	2
23	23	4
11	12	1
90	91	1
29	31	1
106	124	1
92	93	1
125	126	1
89	98	1
6	6	1
9	25	1
89	92	1
10	11	1
99	99	1
34	37	1
14	21	2
97	140	1
17	19	1
76	80	1
86	86	1
114	114	1
110	117	1
87	88	2
105	113	1
115	127	1
139	140	1
111	114	1
