74	74	10
21	21	3
60	60	3
36	36	3
75	76	5
35	35	4
103	107	3
33	33	7
94	95	6
70	70	3
49	50	2
77	77	4
62	62	4
99	100	2
69	69	8
53	53	2
97	99	1
93	94	2
26	26	7
113	114	6
91	91	3
95	95	8
92	93	2
104	107	2
80	81	1
109	110	3
47	48	1
104	104	14
94	101	2
106	106	6
86	86	2
84	84	4
110	111	1
79	88	1
100	109	2
63	63	6
96	97	3
108	108	5
94	94	3
98	104	1
55	67	4
59	59	8
100	108	2
32	32	5
57	57	2
102	102	7
86	92	2
32	40	2
64	65	3
49	49	5
28	29	2
99	101	1
115	115	1
88	88	5
104	105	1
88	91	2
80	80	4
79	79	3
103	103	8
41	41	7
20	20	5
112	112	5
27	27	6
44	44	6
43	44	3
60	77	1
40	40	3
75	75	3
71	74	1
34	35	6
107	107	4
44	47	1
44	45	4
25	113	4
22	39	2
70	79	1
85	85	5
113	113	1
23	26	1
101	103	2
56	56	2
32	36	4
29	29	2
81	95	3
23	23	1
57	58	3
27	28	2
71	72	4
83	92	1
110	110	6
100	100	1
96	103	3
101	101	6
66	66	4
25	25	1
54	54	5
51	51	12
26	78	2
31	31	2
105	105	3
58	61	2
73	73	3
61	79	1
35	36	1
47	47	1
62	64	2
43	43	2
43	49	3
68	68	6
70	71	6
39	39	3
50	50	3
55	58	2
36	37	1
74	75	2
92	92	2
70	73	1
101	108	2
19	22	1
40	41	5
83	83	3
51	52	2
88	110	2
89	89	1
64	68	1
78	78	2
81	89	3
48	48	3
91	95	1
19	19	3
65	65	3
65	95	1
97	104	1
42	50	1
58	60	3
73	74	1
75	77	1
71	71	3
83	88	3
82	83	1
72	72	1
88	89	2
79	96	1
45	45	4
23	39	2
111	111	8
46	46	1
78	79	2
42	42	1
107	109	1
86	91	1
76	76	1
55	56	1
71	77	3
42	44	5
38	44	2
39	47	1
29	30	1
55	84	1
102	103	3
108	109	1
69	70	2
89	90	1
93	96	2
65	66	2
33	42	1
67	70	1
41	88	1
54	71	1
53	59	2
37	37	3
98	98	1
99	99	3
26	29	1
76	77	1
90	90	2
57	68	1
98	102	1
80	97	1
65	91	2
64	80	1
30	30	2
82	82	2
22	22	2
101	102	1
90	91	1
91	94	1
78	81	1
30	31	1
71	79	1
38	38	1
114	114	1
25	111	1
85	113	1
21	22	2
34	36	1
55	55	1
96	100	1
103	104	1
100	101	1
96	96	2
76	79	1
72	79	1
98	103	1
60	83	2
21	80	1
58	58	1
40	51	1
24	24	1
78	80	1
59	71	1
