115	115	7
62	62	5
190	190	13
119	119	7
99	99	15
155	155	10
11	11	13
106	128	1
145	158	3
16	16	3
113	140	4
30	31	3
132	132	4
122	122	2
173	175	8
185	185	6
25	26	2
54	54	8
46	46	7
45	45	6
58	58	7
48	48	5
39	39	4
146	150	3
196	196	5
143	144	9
3	3	4
128	128	6
35	36	1
116	116	5
133	133	7
93	103	3
194	194	7
158	158	2
55	55	7
195	196	2
77	78	1
136	150	1
141	141	5
44	45	6
98	99	3
118	119	3
122	124	1
146	147	2
0	0	7
111	111	7
156	156	5
145	165	4
144	144	6
32	58	2
2	3	6
2	2	4
154	154	8
186	186	3
152	154	1
173	179	2
143	143	8
155	156	3
138	138	5
189	189	8
161	161	6
6	6	4
4	4	8
44	44	8
193	193	5
9	9	15
81	87	2
188	188	5
96	96	11
20	21	8
140	141	8
132	170	2
120	121	4
115	134	3
118	118	7
50	50	7
30	32	3
131	140	2
113	113	7
27	27	2
155	175	5
164	194	2
178	178	4
93	94	1
38	39	7
142	142	2
31	33	3
16	17	1
5	5	6
16	21	8
94	94	5
7	7	3
47	47	6
28	29	7
10	10	5
37	37	3
173	173	6
126	126	3
168	168	4
136	136	6
166	173	1
192	193	2
100	100	11
129	129	6
29	29	3
111	149	2
141	196	2
130	157	4
154	173	1
123	123	10
107	107	6
41	41	3
135	135	1
103	106	1
156	171	3
177	178	12
127	127	14
148	149	2
22	22	3
97	97	2
171	171	7
121	121	2
135	136	7
46	47	3
197	197	6
54	56	2
169	170	3
177	177	4
68	68	3
169	178	1
191	191	5
17	39	1
122	123	1
32	33	1
52	52	2
181	182	5
53	53	4
64	65	4
82	83	4
145	146	4
12	14	3
158	159	4
145	159	2
144	145	3
98	98	3
1	1	6
146	146	4
172	176	2
64	66	4
70	70	6
131	131	4
160	160	3
108	108	2
140	146	1
195	195	4
162	162	3
149	149	13
133	140	2
6	29	1
97	139	3
12	12	4
31	31	1
185	192	1
33	36	1
187	187	6
94	95	1
125	126	4
51	51	6
152	152	2
3	4	1
178	180	1
10	11	2
125	125	1
110	110	1
150	192	1
141	142	3
13	13	5
95	97	3
103	103	5
14	14	2
17	18	4
179	180	1
136	137	2
57	57	2
81	81	2
176	176	4
163	165	2
170	171	4
19	41	1
36	36	3
64	64	2
147	147	4
34	34	4
166	166	3
40	41	1
164	191	2
124	125	1
28	28	1
29	38	1
111	113	4
115	150	2
3	17	1
166	168	3
99	100	1
51	54	4
80	80	4
26	26	1
183	183	1
4	19	4
0	1	2
130	143	4
1	2	4
121	122	3
27	33	1
169	169	2
33	33	1
163	164	3
109	111	2
41	42	1
137	137	1
124	124	4
144	158	2
150	150	1
113	143	3
25	39	2
43	43	2
95	96	2
172	172	2
74	74	2
35	35	3
167	185	2
139	139	2
186	187	1
95	142	1
81	82	2
108	109	2
6	7	5
147	148	1
161	192	1
174	174	5
149	172	1
164	164	1
88	111	1
166	167	3
97	98	2
143	157	3
126	129	1
29	31	4
185	186	6
162	166	3
27	30	1
112	113	1
127	128	1
174	175	1
99	132	1
99	101	2
116	118	2
171	179	2
11	12	1
15	16	1
167	167	1
117	117	2
71	72	1
63	77	1
146	148	2
49	49	2
101	101	1
35	41	1
70	89	1
112	117	1
5	6	2
83	83	1
15	15	4
101	102	2
154	177	1
25	25	1
139	140	3
23	42	2
98	130	1
153	153	1
161	162	3
69	69	2
65	65	1
78	79	1
60	60	2
159	159	2
153	175	1
163	163	2
120	120	2
171	195	1
13	56	2
184	184	3
119	127	1
181	181	1
167	179	1
156	157	2
49	50	1
95	95	1
24	24	1
134	139	1
140	140	3
72	72	1
175	196	1
56	57	1
154	156	1
195	197	1
23	23	1
110	111	1
4	8	2
111	112	1
157	158	1
42	42	1
193	194	1
134	135	1
114	114	1
4	5	1
7	38	1
175	176	1
182	182	1
116	117	1
9	15	1
