25	25	5
137	137	7
57	57	1
175	175	4
100	141	3
48	48	10
153	153	9
32	32	3
149	150	3
184	184	19
166	166	13
38	38	7
181	182	4
7	58	1
31	31	5
5	5	2
171	176	1
51	51	3
89	89	6
159	159	12
4	4	12
17	17	5
189	190	5
83	84	4
172	173	2
66	69	3
150	150	10
11	15	1
118	120	2
162	163	4
103	103	7
26	26	4
34	34	5
151	152	1
59	61	3
135	135	4
177	197	1
169	169	7
173	173	8
76	90	1
102	102	5
131	159	1
60	60	1
141	141	7
190	190	7
177	178	5
85	86	3
125	125	5
187	188	3
9	18	1
163	163	2
190	191	4
104	110	3
164	164	2
165	165	7
81	82	3
124	174	1
106	106	4
35	35	2
158	158	17
2	2	2
193	193	9
98	102	3
105	172	3
174	175	6
108	108	3
85	85	5
29	184	1
191	192	7
9	9	1
23	57	1
96	107	1
143	145	2
139	139	8
181	181	9
40	41	1
173	174	3
126	128	1
180	183	1
109	109	3
80	80	4
90	90	2
145	145	11
3	7	2
147	147	3
145	146	5
156	156	8
26	27	3
143	144	4
9	32	2
77	88	1
83	83	2
183	183	13
196	196	4
134	135	3
120	120	12
160	162	2
102	103	3
97	97	1
176	195	4
13	13	2
89	90	1
127	168	4
76	77	2
50	50	4
171	172	3
147	180	1
94	141	2
179	183	3
128	128	4
70	79	1
142	142	6
144	144	6
105	106	3
72	72	2
174	174	4
195	195	2
78	78	3
36	36	12
187	187	10
132	132	5
35	36	6
45	45	5
157	158	5
182	182	2
140	140	5
15	15	7
161	161	5
192	192	8
133	133	5
187	191	1
132	135	1
174	176	2
25	26	4
123	186	1
22	23	1
20	21	2
142	156	2
40	40	7
154	154	6
116	117	5
18	18	8
152	152	4
99	107	1
138	161	2
30	156	1
88	89	1
34	194	2
153	178	1
58	58	2
134	180	2
65	75	1
115	124	1
69	88	1
112	112	3
44	44	4
138	167	1
126	126	4
172	172	4
62	62	6
117	184	1
113	114	2
178	179	6
12	12	7
90	174	1
11	11	2
64	66	3
37	43	1
149	164	3
173	191	5
16	17	3
20	22	3
5	60	1
127	128	2
113	113	5
114	114	4
158	183	3
115	115	5
8	37	3
98	173	1
82	87	1
185	186	1
108	153	1
177	177	7
194	196	1
170	170	5
167	185	1
19	19	9
63	66	1
135	136	4
54	55	4
64	73	2
170	171	2
63	63	1
110	110	4
148	148	4
129	129	2
138	138	3
146	146	4
41	87	2
124	124	3
0	1	1
76	78	1
152	175	1
43	44	4
100	100	2
81	81	2
107	108	1
87	87	5
162	168	1
3	3	3
194	194	4
55	56	4
107	179	2
84	84	1
152	153	3
167	169	3
9	29	1
172	175	1
24	182	2
56	58	1
178	178	7
116	116	7
147	148	3
10	39	3
146	147	2
154	172	1
171	171	5
187	195	2
68	68	7
170	172	2
55	55	10
74	74	4
109	110	1
159	162	1
52	53	1
18	19	1
4	55	2
176	177	1
123	123	6
138	139	2
27	27	4
135	144	1
196	197	1
64	64	4
160	168	2
31	43	3
62	64	2
43	43	2
98	178	1
23	25	1
131	158	1
162	162	3
147	185	2
192	193	2
86	86	3
63	64	2
50	68	1
146	154	3
65	65	1
6	6	11
156	188	3
177	182	1
97	178	2
54	54	5
143	155	1
189	193	2
165	166	4
108	109	2
131	131	1
16	16	3
80	81	2
121	133	1
48	52	1
104	180	2
153	154	1
46	46	4
186	194	5
135	146	2
42	45	1
49	49	2
188	189	2
27	28	4
180	181	6
56	56	1
157	159	2
93	99	4
70	70	4
93	148	1
20	20	3
6	7	1
168	168	5
174	191	1
59	60	2
94	139	1
197	197	4
129	177	1
99	99	3
160	160	3
100	196	2
160	174	1
195	196	2
186	186	7
96	103	2
10	25	1
132	133	1
155	155	1
69	70	2
24	25	4
39	42	3
11	36	4
57	58	2
93	185	1
4	22	2
151	151	2
5	6	1
142	158	3
95	136	1
119	119	6
126	127	2
132	180	1
98	99	3
63	127	1
154	155	1
105	105	2
53	57	1
160	161	2
161	164	3
93	94	2
102	107	1
130	130	4
76	76	2
111	111	1
161	177	2
155	156	1
122	122	1
59	59	2
7	42	1
9	12	1
104	104	1
45	54	1
27	41	1
47	47	2
8	8	3
101	101	1
42	42	2
182	185	2
59	77	1
0	21	1
144	160	2
156	157	1
161	165	2
69	71	1
71	71	2
132	148	2
178	180	1
9	10	1
186	187	3
73	73	1
118	118	1
189	189	2
185	185	4
97	179	1
106	111	1
24	24	1
127	195	2
3	56	1
13	43	1
1	1	1
52	52	4
154	156	1
150	151	3
166	175	1
180	180	1
20	56	1
139	140	2
192	194	4
94	94	2
130	156	1
148	175	1
104	105	2
105	110	1
10	10	1
56	59	1
116	128	2
15	30	1
134	134	2
5	18	1
20	25	1
95	95	4
191	191	2
1	34	1
79	79	1
138	177	1
33	33	1
37	37	1
48	81	1
177	179	1
15	33	1
48	49	1
139	142	1
67	67	1
99	105	1
12	34	1
173	193	1
150	152	1
30	30	1
146	158	1
19	61	1
53	53	1
15	32	1
101	140	1
46	47	1
179	179	1
38	50	1
137	145	1
138	142	1
15	35	1
99	177	1
194	195	1
132	136	1
41	41	1
39	40	1
122	133	2
21	21	1
38	39	1
48	146	1
69	89	1
81	83	1
162	164	1
10	14	1
