109	109	6
21	21	5
89	91	5
97	98	3
79	109	3
72	73	7
41	49	1
76	98	1
55	59	3
86	86	7
101	101	10
92	111	1
80	80	7
95	98	2
45	46	5
43	43	7
49	50	1
29	29	4
95	95	4
95	109	2
91	93	2
56	56	4
59	84	6
113	114	6
76	78	1
89	89	4
88	109	7
104	106	2
40	40	9
30	30	5
87	90	3
72	72	7
82	109	2
102	102	9
49	49	8
66	68	4
28	28	3
99	100	3
97	108	4
87	87	8
50	50	4
29	59	3
82	83	1
38	38	1
69	69	6
51	51	6
52	52	8
100	100	7
94	95	5
91	91	2
72	91	4
46	47	2
111	112	3
58	58	1
85	99	1
104	104	1
114	114	3
96	108	4
71	71	6
46	48	1
71	72	3
85	85	2
42	50	2
75	102	3
33	33	3
67	67	4
62	62	5
103	103	6
60	60	3
45	45	1
111	111	5
85	86	5
68	68	3
57	62	4
39	40	2
90	91	5
48	66	2
74	74	3
96	97	1
97	97	4
23	26	3
47	47	5
66	67	8
22	22	3
67	80	6
81	82	3
65	65	4
75	75	3
76	76	2
60	62	4
37	37	3
95	96	4
104	105	4
20	20	2
99	99	7
32	33	2
42	42	1
72	90	1
73	73	2
105	107	1
110	110	3
26	26	4
77	77	3
73	74	2
106	106	2
74	90	1
24	24	3
63	66	3
42	43	3
51	52	6
33	88	1
63	65	2
21	26	2
85	102	1
96	100	3
34	35	1
62	67	1
91	110	1
48	49	3
32	32	5
78	78	1
44	44	2
31	31	2
75	76	3
51	53	3
41	41	2
68	69	5
20	28	1
56	58	3
55	62	1
74	109	1
33	34	1
56	68	1
80	81	1
52	65	1
107	107	2
29	30	3
74	75	3
27	28	1
57	58	2
55	55	2
83	84	1
35	35	2
79	79	2
77	80	1
53	56	1
90	90	2
54	54	1
67	68	1
58	61	1
98	98	1
80	83	1
83	83	2
36	37	1
33	69	1
108	108	1
103	108	1
93	93	3
78	95	1
74	88	1
77	78	1
93	94	1
34	34	1
92	92	1
84	84	2
49	68	2
44	51	1
96	96	2
100	102	1
86	87	1
64	64	1
70	78	1
105	105	1
84	86	2
112	113	2
104	108	1
113	113	2
22	26	1
53	57	1
23	24	1
33	53	1
80	91	1
36	36	1
101	102	2
72	93	1
56	59	1
43	44	1
95	113	1
92	93	2
105	106	1
47	66	1
78	82	1
46	46	1
27	27	1
