84	88	2
32	147	4
105	106	3
55	56	2
78	78	7
33	130	5
27	28	5
11	11	7
17	45	1
87	87	2
108	113	5
105	108	4
12	12	5
73	73	5
135	137	2
80	129	5
137	137	11
26	26	8
5	6	5
70	71	4
84	133	1
48	48	4
5	5	12
10	10	5
12	20	1
83	83	11
15	15	18
98	99	3
73	130	1
110	113	5
31	32	3
121	121	9
109	110	5
144	145	9
31	144	2
122	122	3
28	29	4
51	69	1
105	107	2
84	84	4
6	6	3
137	138	5
68	70	4
28	28	4
77	78	6
112	113	4
104	104	9
85	86	2
37	37	3
125	125	5
114	114	4
93	93	6
130	130	7
34	35	3
44	44	6
80	87	1
23	23	9
71	73	2
65	71	1
110	112	1
135	136	5
81	82	2
92	96	2
118	145	3
13	17	1
82	83	7
31	58	3
13	13	6
124	124	7
20	20	6
90	97	1
35	35	10
19	19	3
132	132	4
125	127	5
14	14	5
65	69	1
154	154	2
66	68	5
93	94	7
79	79	3
47	47	6
3	5	2
138	138	2
55	55	9
17	17	12
10	11	6
74	74	9
77	77	7
18	18	3
102	102	7
16	16	7
41	41	3
147	149	5
69	69	5
63	67	1
99	99	8
78	79	9
80	109	1
85	87	3
34	34	4
4	4	11
82	82	9
75	75	5
44	46	2
133	133	1
77	83	1
126	130	4
96	96	6
144	149	4
30	31	3
111	111	3
128	128	5
22	22	3
79	80	2
32	33	3
111	113	3
19	25	3
142	142	6
98	98	7
8	10	2
118	118	7
149	149	6
9	9	17
90	90	4
140	142	2
134	134	6
97	98	3
83	101	2
116	116	2
142	143	3
68	68	7
26	27	2
30	148	2
27	27	5
91	102	4
31	57	1
3	3	4
56	57	4
30	145	1
115	115	3
78	127	3
104	143	8
23	63	1
82	88	2
5	13	1
36	37	2
62	65	1
106	108	5
27	29	2
75	77	1
39	71	2
100	101	7
44	45	2
64	64	6
30	73	3
80	83	1
94	94	7
36	36	6
45	46	8
66	66	3
57	57	4
31	38	4
103	103	9
84	90	2
76	130	4
93	96	2
68	69	2
131	131	5
63	64	6
110	110	4
50	50	9
40	40	6
72	73	5
24	129	4
76	76	7
97	102	1
64	93	2
25	25	8
95	95	2
74	75	2
144	144	6
56	56	3
86	89	2
152	154	1
109	129	2
35	73	2
119	119	7
95	98	2
30	32	2
64	77	3
25	26	3
47	55	3
81	81	2
17	18	4
33	34	7
107	107	6
43	43	10
146	146	4
85	109	3
35	37	3
109	109	3
19	46	2
17	29	2
53	70	2
40	44	2
63	63	2
120	120	2
20	22	2
37	47	1
23	26	3
108	129	3
12	66	1
39	40	1
34	58	3
25	147	2
148	148	2
118	144	1
92	98	3
53	53	4
88	88	7
3	13	2
32	56	1
49	49	6
63	137	2
117	117	7
5	14	2
68	74	2
53	54	1
77	96	1
18	22	1
99	100	1
39	39	5
51	56	1
6	127	1
35	62	2
51	51	7
106	107	4
63	65	2
145	145	6
141	144	1
110	114	3
52	66	1
151	153	2
86	87	3
140	141	2
77	82	2
153	154	1
37	119	1
30	33	1
78	124	2
31	94	2
8	8	3
127	127	1
97	97	4
6	13	2
93	99	1
6	69	1
33	125	3
140	140	2
31	33	2
14	15	5
71	71	7
104	105	1
75	130	2
29	30	1
112	112	5
81	93	3
32	55	1
46	57	3
32	94	1
151	151	2
77	84	2
46	46	1
62	62	2
86	103	2
70	70	4
112	139	1
78	84	1
141	141	3
30	30	4
25	148	1
45	45	4
101	101	5
12	15	3
78	90	1
42	42	7
146	148	3
146	147	1
41	43	1
65	67	1
82	104	1
70	76	1
42	68	2
82	101	1
58	95	2
11	12	3
30	149	1
94	98	1
20	21	2
116	117	2
150	150	1
31	72	1
55	67	1
125	131	2
45	152	3
78	83	1
133	134	1
6	7	4
126	126	2
108	108	5
24	24	2
29	29	2
77	95	2
97	123	1
111	112	3
24	46	1
61	64	1
32	32	1
65	66	2
3	6	1
50	54	1
47	53	1
38	38	3
51	57	1
64	76	3
32	125	1
21	21	2
39	69	2
27	150	1
24	25	1
62	69	1
103	104	1
32	34	1
34	73	1
78	80	2
85	85	1
85	122	1
94	97	1
79	110	3
86	102	1
90	92	1
33	33	1
122	123	1
121	127	1
7	18	1
103	128	1
118	147	1
141	142	1
67	67	3
20	65	4
67	78	1
110	119	1
118	119	1
29	150	1
120	121	4
115	116	3
123	123	1
79	83	3
111	130	1
106	106	2
61	62	1
90	93	1
58	58	2
7	7	1
66	67	1
71	72	1
31	146	1
48	49	1
152	152	1
67	68	1
31	130	1
145	147	2
38	71	2
42	43	3
41	42	3
7	68	1
65	72	1
8	9	1
7	17	1
127	130	1
24	35	2
4	8	1
2	67	2
18	19	1
46	152	1
104	115	1
85	103	1
64	66	1
129	130	1
15	16	1
43	44	1
87	98	1
109	119	1
136	136	1
153	153	1
96	97	1
139	139	1
76	128	1
92	93	1
113	113	1
23	24	1
53	69	1
120	122	1
119	126	1
65	73	1
105	105	1
65	76	1
135	135	2
