136	136	8
108	109	2
90	92	1
8	8	8
153	153	11
18	23	1
69	85	2
53	53	10
96	96	6
45	53	8
75	80	5
34	35	5
45	45	12
62	62	5
51	58	3
49	49	16
64	98	1
83	83	10
131	131	10
44	45	2
150	150	10
75	75	6
48	48	14
4	18	4
6	74	4
109	113	3
93	99	2
132	132	12
69	69	10
56	56	4
137	138	6
99	99	6
44	44	12
114	114	12
19	21	2
23	23	17
85	85	12
134	134	1
122	122	19
103	103	6
9	25	3
130	130	6
130	134	2
3	3	9
12	12	19
54	54	8
22	23	2
63	64	10
13	14	13
31	32	6
40	40	31
146	146	26
11	11	14
38	38	15
142	143	3
10	11	13
101	101	2
117	117	17
48	54	2
12	13	9
135	147	5
12	14	5
88	90	3
87	87	3
135	136	6
105	105	11
149	150	3
70	71	1
10	10	17
154	154	8
129	129	8
117	118	1
24	24	22
22	29	5
82	82	10
52	53	1
112	113	3
100	100	7
105	147	2
137	146	6
38	49	9
45	46	5
67	67	6
125	125	4
152	152	12
28	30	1
18	18	9
98	99	2
149	149	7
86	86	4
43	43	9
20	24	1
46	46	12
21	21	10
67	71	4
42	42	5
116	117	6
72	72	9
141	141	8
124	128	1
56	57	3
14	32	3
41	43	6
15	15	9
34	34	12
5	6	5
137	137	13
86	96	4
21	23	4
35	36	6
106	107	9
118	118	1
139	145	6
64	65	5
28	28	13
37	37	8
15	16	4
26	32	2
127	128	4
14	14	14
63	65	2
57	76	1
4	4	7
37	38	6
65	65	14
77	79	4
79	123	3
81	81	8
32	32	3
70	70	6
31	31	10
143	144	5
109	109	8
88	88	1
79	79	2
34	37	1
18	51	3
25	32	1
112	112	2
100	106	2
70	87	3
124	125	9
29	38	6
33	34	8
106	108	6
95	100	1
38	54	5
123	123	10
99	109	1
113	114	1
19	19	10
75	76	2
127	127	9
8	9	2
87	88	3
17	17	12
55	56	1
20	21	11
127	131	5
138	146	1
68	76	2
63	63	5
124	124	5
6	7	1
129	131	4
93	94	1
41	42	2
138	138	13
50	52	1
3	9	1
36	36	6
143	143	3
82	93	3
95	98	4
4	6	3
104	113	1
101	103	6
18	19	6
20	20	6
108	108	11
126	127	1
51	53	2
38	39	2
80	80	9
84	93	1
9	9	7
5	25	2
144	146	2
124	126	4
16	16	12
27	40	4
13	13	25
23	25	3
66	67	3
77	77	7
47	47	7
67	68	7
106	106	4
120	120	2
71	99	2
96	102	1
39	41	2
4	97	3
53	54	7
125	131	3
25	25	19
102	102	13
107	107	8
7	18	1
97	98	7
11	12	5
78	79	5
133	133	6
6	6	16
95	95	5
54	55	10
142	142	3
46	47	1
50	50	7
17	22	2
9	10	2
15	45	2
65	67	3
133	135	2
5	147	2
133	134	7
144	145	4
74	76	2
94	94	11
14	25	3
119	119	18
35	35	1
97	97	11
64	64	5
74	75	2
39	40	8
78	123	1
84	86	7
14	15	1
4	29	2
25	26	4
8	30	2
74	97	6
48	50	2
8	11	2
115	115	5
103	104	1
25	35	2
91	91	2
20	144	1
55	55	3
30	30	6
125	126	5
4	9	1
14	16	1
73	93	2
27	28	1
29	29	6
83	93	3
21	22	2
18	73	2
87	96	2
66	66	9
148	148	8
123	128	3
147	148	2
42	43	1
94	95	5
88	98	1
56	63	1
141	142	2
149	153	5
93	105	1
43	44	4
74	79	1
145	146	1
91	92	3
130	152	9
79	83	2
78	78	2
62	64	3
65	123	2
23	39	1
39	39	7
110	115	4
4	80	1
86	87	8
72	73	3
41	41	6
34	149	4
54	97	2
62	77	1
96	118	2
38	42	3
50	51	4
146	147	3
63	78	1
95	96	4
85	86	3
68	68	7
30	32	2
139	139	2
118	127	3
98	98	6
58	58	3
96	129	1
110	110	2
75	78	1
51	51	2
84	94	1
102	103	2
3	42	3
93	93	1
97	99	3
105	108	3
48	53	2
85	95	2
25	27	1
36	39	3
35	53	1
125	137	3
95	107	2
113	113	4
27	29	1
31	53	2
29	30	1
105	148	2
151	151	7
33	35	3
39	84	2
135	135	1
116	116	5
15	76	1
30	31	1
104	105	1
26	26	4
5	74	1
128	128	3
41	51	2
5	15	2
13	76	2
3	56	2
4	5	1
5	5	2
150	151	1
99	100	5
76	76	3
78	128	2
16	55	1
19	24	2
111	111	1
20	23	2
115	116	2
71	71	9
16	18	2
74	74	5
41	114	1
117	132	1
147	147	2
24	48	3
5	80	2
29	39	1
149	154	1
69	91	2
15	57	3
133	138	2
12	16	1
82	85	1
87	112	3
72	78	2
73	73	8
17	18	1
126	132	3
43	109	3
58	76	2
81	82	4
24	40	1
81	93	1
25	47	1
94	125	2
101	102	4
7	7	2
57	58	1
77	78	1
2	50	1
17	24	2
25	36	1
76	78	2
6	75	2
119	124	1
80	82	2
62	65	1
81	83	2
152	153	1
58	78	2
68	79	1
110	111	1
125	127	2
83	84	2
24	25	2
126	128	2
22	22	2
46	152	1
13	15	2
7	73	1
67	76	1
54	56	1
84	85	1
104	104	1
82	98	1
120	121	1
28	29	2
75	85	2
17	19	1
53	57	1
65	66	2
8	73	4
113	118	1
144	147	3
72	94	1
41	45	1
92	92	1
121	121	2
82	86	1
33	33	2
6	73	1
61	66	1
133	139	1
84	84	2
69	70	1
64	123	2
71	84	2
61	63	1
36	37	1
76	77	2
26	27	2
62	63	1
77	142	1
88	89	1
47	53	1
27	27	1
128	129	1
23	24	2
52	56	1
123	124	1
57	57	1
141	144	1
