48	48	8
81	81	7
89	89	13
76	76	5
74	74	10
92	92	7
58	59	10
72	73	2
59	59	15
91	92	10
61	61	18
34	34	6
56	56	7
69	69	12
78	78	9
72	72	12
50	85	2
94	94	13
49	51	2
91	91	20
51	51	11
97	97	10
50	50	7
101	101	8
75	75	12
70	70	17
24	97	1
85	85	9
74	75	5
90	90	12
31	44	2
35	65	4
37	37	15
80	80	17
67	67	10
71	71	4
57	57	11
84	84	14
31	32	5
63	63	15
86	86	6
88	88	7
42	42	10
65	65	11
95	95	9
51	56	1
47	48	11
92	93	6
71	72	6
33	34	4
60	60	9
62	62	12
64	65	4
99	99	14
39	40	2
95	97	2
68	68	4
77	77	16
80	81	11
32	32	10
93	93	7
30	30	6
60	71	1
92	99	1
79	98	2
49	49	13
64	64	9
62	63	5
87	87	7
52	52	16
23	79	4
92	98	1
96	96	10
91	93	5
98	98	9
27	27	6
30	35	1
33	33	8
38	38	6
52	53	3
101	102	6
48	87	1
29	30	1
37	38	2
58	58	13
68	69	5
85	86	3
43	43	9
45	48	2
39	39	11
53	53	7
40	41	2
46	47	2
61	62	10
43	48	1
73	74	2
35	35	4
45	45	16
45	47	5
82	82	2
35	36	3
83	93	1
65	78	2
38	39	1
66	67	5
89	90	2
27	92	2
59	75	1
73	73	14
74	78	6
97	98	4
58	61	2
95	96	6
57	72	2
86	88	3
69	70	3
80	99	1
53	54	4
55	56	4
100	100	9
51	52	6
100	101	1
93	100	1
33	75	3
86	87	2
57	58	4
41	42	1
94	95	7
94	96	2
36	37	3
20	20	1
77	78	4
44	44	10
40	42	2
55	55	7
29	96	5
78	89	2
49	50	4
25	25	5
57	59	1
44	49	2
58	60	2
36	36	2
66	66	9
63	68	1
96	97	3
41	41	4
79	82	3
63	64	4
99	100	1
79	95	1
44	48	6
76	102	1
47	47	6
29	97	2
60	61	2
29	35	2
65	75	2
70	71	3
84	86	2
25	97	1
46	46	1
26	26	4
26	27	2
79	79	2
54	54	4
85	95	2
25	26	1
27	28	4
93	95	1
29	29	2
26	97	1
67	68	1
29	94	2
73	77	2
54	56	1
43	44	1
33	37	1
34	35	1
48	56	1
64	71	4
88	97	1
22	22	1
44	46	1
77	90	2
65	66	1
38	40	1
33	49	2
31	31	1
84	89	1
40	40	1
47	60	1
42	43	1
72	75	1
75	76	1
51	53	1
