122	122	8
35	36	8
38	38	22
156	160	2
5	8	2
13	15	4
12	13	17
133	133	11
12	12	17
2	5	4
165	165	9
44	44	12
39	39	14
38	39	7
27	27	20
18	19	18
36	36	16
138	176	6
107	108	4
157	157	7
29	29	19
43	43	15
149	149	14
108	108	12
82	82	8
103	103	5
150	151	7
137	139	3
17	32	5
121	122	3
32	32	23
125	125	8
53	53	16
171	172	4
0	142	2
156	156	11
50	80	1
128	128	14
23	145	4
52	52	20
23	28	5
170	175	2
104	104	6
75	75	8
156	157	8
175	175	6
23	23	17
167	167	10
144	144	6
89	89	5
158	168	2
36	37	3
71	71	24
31	45	3
143	143	9
14	39	2
122	123	3
33	33	32
6	8	2
42	98	2
174	174	10
129	129	9
30	30	12
84	84	10
18	31	1
45	46	2
133	134	3
115	116	2
16	17	5
42	42	18
111	111	9
100	100	6
52	57	1
116	160	2
111	124	3
37	40	4
151	153	2
11	11	22
35	35	14
15	16	9
8	9	6
26	26	15
37	37	8
71	102	3
98	98	6
123	123	23
3	3	32
144	146	3
73	94	3
20	20	17
31	31	12
18	21	4
16	143	3
22	23	1
92	92	15
152	152	13
1	1	12
38	43	4
166	166	14
171	171	13
40	40	14
45	45	16
22	142	4
44	45	7
159	160	5
25	25	25
54	54	9
19	19	21
146	146	18
133	139	2
147	147	13
5	5	24
151	152	10
60	97	4
31	32	4
21	21	12
39	40	5
30	31	5
22	22	9
32	33	7
14	14	16
73	96	5
121	121	11
26	29	4
158	158	9
170	177	2
99	99	6
26	31	3
151	151	3
138	138	22
75	79	1
3	8	8
115	115	8
126	126	4
7	9	4
2	97	2
177	177	8
127	127	7
170	171	2
154	154	11
33	34	14
172	172	7
12	42	1
54	55	3
80	96	2
96	96	4
83	84	9
10	10	13
18	23	1
83	83	4
67	96	1
136	136	4
23	25	1
23	24	3
26	27	6
161	161	7
18	119	2
174	178	1
50	50	11
41	41	10
140	140	7
41	98	3
118	119	3
76	79	1
57	167	1
98	99	8
24	24	31
148	151	2
115	162	1
113	117	2
18	18	9
81	86	4
67	79	1
94	94	5
157	159	3
75	87	1
170	178	4
16	22	2
61	61	10
55	55	16
7	14	5
110	110	11
101	104	1
14	15	6
105	106	6
14	18	2
41	45	4
154	155	5
120	120	8
32	84	1
180	180	3
1	3	6
46	46	2
1	2	2
4	4	19
159	159	7
119	120	2
7	8	4
15	15	16
4	45	1
142	142	10
11	110	4
41	44	4
10	16	5
4	15	3
101	128	1
86	179	5
9	11	11
90	119	6
17	80	1
77	79	2
118	118	4
2	2	10
12	84	2
51	51	7
106	110	1
97	97	4
29	38	1
168	168	7
67	87	2
163	166	1
53	54	8
45	61	2
76	76	7
125	144	4
113	113	8
127	155	2
164	164	5
53	58	19
175	176	2
9	63	2
5	6	3
154	156	1
3	54	4
157	158	2
135	137	1
116	118	1
113	139	4
68	75	2
17	17	12
39	43	2
113	114	3
168	169	9
87	87	1
14	27	3
169	174	1
174	176	1
148	148	12
95	112	2
164	166	2
73	73	10
90	92	3
0	0	16
56	58	1
37	129	2
34	34	13
135	136	3
95	95	5
62	62	5
27	28	15
114	158	4
76	77	7
3	22	3
112	112	8
136	142	2
43	128	2
123	124	7
145	146	4
22	38	4
56	57	5
12	25	1
176	176	6
171	179	6
17	18	9
28	28	14
7	7	4
155	160	5
86	88	2
79	79	8
26	108	2
158	159	5
24	26	5
132	132	2
141	148	1
150	153	2
4	5	6
10	17	1
123	153	1
65	65	10
120	121	5
7	15	2
12	26	1
4	33	4
3	15	4
147	148	5
155	155	3
85	85	4
74	74	4
143	144	2
155	161	2
110	130	1
156	168	2
131	154	2
6	6	16
70	72	2
116	116	6
0	94	1
14	36	1
2	3	6
93	93	5
19	21	2
68	72	3
134	136	9
57	75	2
71	74	1
3	4	5
145	145	10
63	75	5
179	180	4
19	28	3
50	51	6
16	16	11
9	9	11
107	107	15
81	81	3
111	136	3
8	8	3
38	40	3
109	109	17
134	141	2
15	23	2
177	180	4
88	88	4
134	150	1
106	130	1
163	169	1
5	16	1
118	162	2
34	35	5
11	22	1
86	91	2
13	14	4
121	136	2
24	60	2
173	173	6
110	124	1
9	12	2
79	93	2
60	60	7
63	101	3
14	20	1
89	91	1
141	141	3
68	73	4
66	66	4
26	79	1
150	150	9
28	29	9
124	124	3
127	160	1
97	99	3
79	149	1
82	84	1
99	102	3
153	153	8
86	180	1
45	135	3
45	101	3
152	156	4
82	85	2
79	102	4
2	9	3
119	119	4
97	115	2
63	63	8
72	72	12
80	80	3
178	178	5
76	78	6
5	42	2
11	12	4
131	132	4
19	20	3
1	31	1
67	101	2
99	100	4
137	137	3
85	130	2
12	41	1
4	42	1
129	130	1
109	120	3
161	162	7
22	24	1
83	85	1
126	128	2
87	98	3
36	90	1
40	43	1
18	22	2
139	139	13
32	39	3
148	153	2
132	179	3
90	90	4
72	95	2
33	85	1
23	37	5
114	114	9
10	12	5
25	30	1
6	7	5
78	78	5
33	35	2
13	13	16
160	161	2
55	56	3
152	155	4
90	91	4
37	38	4
51	80	2
38	94	2
121	123	3
5	14	3
177	178	2
159	167	1
3	5	2
62	66	1
82	83	3
137	138	4
45	59	1
91	91	3
130	130	12
29	96	2
8	45	1
28	39	1
64	64	5
66	67	4
59	60	4
117	117	4
5	7	3
147	149	2
11	15	3
135	135	2
3	9	1
10	11	7
34	44	3
56	77	2
84	85	3
5	21	3
54	97	1
89	90	2
25	26	3
17	21	4
105	125	1
26	28	6
85	120	1
64	65	6
131	131	1
8	12	1
2	6	1
170	170	6
5	28	1
159	176	1
106	106	2
138	139	1
23	126	1
61	133	2
63	67	1
139	172	1
19	121	1
99	101	1
31	33	1
21	22	4
68	68	2
82	131	5
29	41	2
67	67	13
105	105	3
172	176	4
31	38	1
57	57	9
5	15	5
14	43	4
85	129	2
14	24	3
136	137	1
21	23	4
155	156	2
7	10	3
73	74	1
132	180	7
56	74	1
82	133	2
56	56	4
8	15	1
149	179	1
118	128	2
59	59	4
0	1	3
23	117	2
102	131	1
30	42	2
86	130	3
21	39	1
144	150	2
136	138	2
151	154	1
163	163	4
145	147	1
116	117	3
120	123	1
156	169	2
114	138	1
124	126	2
79	80	6
174	177	1
94	95	1
103	104	4
162	163	2
11	17	2
116	157	1
156	180	1
85	92	2
13	19	1
160	160	4
98	115	2
65	71	1
13	34	2
65	87	2
170	180	2
102	105	2
17	154	1
1	23	1
29	42	1
63	79	1
4	18	1
1	5	1
28	31	2
26	102	3
178	179	2
32	36	3
115	144	1
178	180	2
104	129	1
24	29	1
141	142	3
68	131	1
27	40	2
40	44	2
24	104	1
96	98	6
158	161	1
80	123	2
134	134	6
35	129	1
31	41	1
169	169	7
160	180	3
119	166	1
144	157	3
10	15	1
43	44	4
162	166	4
13	45	2
102	102	1
36	38	1
17	39	1
77	77	2
110	111	1
83	126	1
80	81	4
40	104	2
124	127	1
21	117	2
86	118	1
14	21	2
74	108	3
24	25	3
21	128	1
130	153	2
73	112	1
74	75	1
88	119	1
1	59	1
42	153	3
51	105	2
20	21	4
21	40	2
16	31	1
155	157	1
156	162	2
49	50	1
78	80	1
60	71	1
15	38	1
18	152	2
119	161	2
19	22	2
12	15	1
162	162	2
179	179	3
127	128	1
38	68	1
84	119	1
120	163	1
167	169	1
42	107	3
58	58	1
62	63	1
29	74	1
41	42	1
122	132	1
22	33	2
14	22	2
54	59	3
143	145	3
127	129	1
153	154	1
11	13	1
111	112	1
169	170	1
1	4	1
150	154	1
8	10	3
34	40	2
3	110	1
166	167	1
122	153	2
107	111	3
108	109	1
2	4	3
136	178	1
144	158	1
4	30	1
65	66	1
26	147	1
35	44	1
66	88	3
114	115	1
29	30	1
32	35	1
29	31	1
20	22	1
10	23	1
3	45	2
30	99	2
118	126	1
64	94	1
7	39	1
51	52	1
43	45	1
117	129	2
2	7	1
2	38	1
42	150	2
145	148	1
66	86	1
52	53	1
12	46	1
113	127	2
82	132	1
68	102	1
6	9	1
42	43	1
40	62	1
75	91	1
81	82	1
4	6	1
42	44	1
138	159	1
134	135	1
135	178	1
5	9	1
107	122	1
29	73	1
26	104	1
2	23	1
38	46	1
52	65	1
64	70	1
19	119	1
66	102	1
108	127	1
41	153	1
19	26	1
157	162	1
97	142	1
71	111	1
130	152	1
65	72	1
128	129	2
21	107	1
88	89	1
118	166	1
101	102	1
77	81	1
91	92	1
3	10	1
90	93	1
154	160	1
102	103	1
92	133	1
125	180	1
154	178	1
3	7	1
142	143	1
22	26	1
