234	234	5
112	112	3
212	212	7
204	204	16
60	246	4
161	162	5
169	169	10
73	73	4
28	28	6
155	155	6
202	222	4
86	86	5
10	10	8
4	5	8
155	167	7
161	161	7
203	203	1
145	149	3
222	222	6
165	169	2
191	191	4
170	170	20
228	235	4
187	188	7
98	99	3
180	180	17
5	5	5
175	176	8
233	233	8
33	33	14
1	1	4
21	21	11
69	71	6
3	22	1
171	172	3
210	210	5
46	92	4
195	196	5
48	48	13
64	64	9
234	235	3
36	36	4
179	179	15
246	247	1
9	10	1
181	181	8
209	209	7
211	211	4
194	197	5
231	231	12
43	43	11
156	184	3
93	93	7
206	207	8
247	247	20
52	52	6
70	71	5
247	248	6
84	84	4
197	197	17
30	43	3
217	236	5
171	182	1
150	154	4
230	231	4
9	9	8
165	166	5
15	64	6
26	27	3
220	220	9
102	102	10
150	151	2
221	222	2
166	181	3
39	39	3
199	200	3
108	108	10
108	248	2
86	95	4
246	248	2
63	64	2
62	63	4
119	119	8
207	207	7
223	224	3
244	244	8
212	213	9
216	218	1
69	79	3
106	107	5
88	88	5
73	103	2
227	227	1
156	156	11
120	147	2
187	187	5
242	242	7
44	45	3
57	57	8
220	222	1
152	152	4
102	103	4
159	160	7
34	34	3
224	225	2
218	218	12
159	170	5
201	201	19
77	80	2
11	29	4
21	22	3
228	228	2
118	118	11
232	233	6
158	159	6
171	171	5
13	14	4
178	179	1
173	173	9
58	58	8
159	159	4
190	248	1
69	70	4
54	172	4
145	202	2
95	98	3
5	14	3
48	80	6
205	205	4
189	190	4
224	224	5
155	160	3
24	24	2
117	117	8
202	202	4
189	221	5
184	185	4
188	188	7
163	164	3
238	238	9
177	178	3
192	208	7
66	67	3
41	42	9
6	11	5
239	240	1
193	197	2
46	47	3
199	199	12
186	190	3
94	95	5
28	109	2
85	92	1
159	180	1
182	182	13
246	246	5
38	115	2
49	50	3
71	82	3
89	90	1
3	3	8
200	200	2
23	24	3
85	85	8
49	176	3
95	95	4
208	208	10
239	239	5
79	82	3
235	235	4
90	90	6
236	237	7
76	76	9
117	118	2
96	96	4
235	237	3
108	249	3
213	214	10
85	102	1
187	189	7
233	234	2
210	211	8
159	168	4
160	165	5
108	111	6
159	183	3
158	158	12
236	236	8
181	184	3
176	177	2
217	218	4
59	59	8
48	49	6
2	5	4
154	162	2
60	60	4
71	75	2
50	50	3
216	216	4
116	116	12
241	242	5
241	241	6
49	100	5
159	167	1
39	40	5
189	215	1
72	74	1
150	150	11
147	204	5
15	62	1
42	42	7
221	221	4
184	189	3
55	55	7
167	167	9
163	167	5
192	195	2
33	110	2
177	196	2
71	71	11
153	154	2
160	200	3
72	72	3
116	117	2
192	210	1
11	14	3
187	190	3
94	201	2
179	236	2
225	225	9
169	170	7
154	154	10
11	11	10
58	70	3
75	75	7
144	145	3
49	49	8
96	171	1
194	195	4
224	229	4
70	74	1
165	165	8
70	73	5
214	217	5
23	23	2
90	92	3
63	65	8
101	101	4
170	247	1
147	154	2
179	180	3
208	209	4
81	82	6
206	206	4
37	114	3
68	68	5
242	246	1
240	242	7
161	199	3
151	151	5
94	94	4
38	39	4
248	248	6
163	165	2
5	13	1
238	240	3
188	190	6
84	90	2
97	97	1
32	174	1
223	223	1
27	27	4
96	102	3
71	83	1
38	40	2
151	207	3
202	208	1
165	181	1
54	54	5
231	232	2
146	152	3
219	221	2
216	219	6
157	209	1
74	74	2
103	103	7
16	16	6
57	58	2
7	7	6
168	226	4
208	210	1
62	62	7
72	73	3
119	242	2
22	101	3
11	93	2
82	83	3
183	185	2
88	99	5
6	7	5
218	219	5
56	59	2
113	113	6
145	236	1
63	63	4
33	42	1
191	192	3
213	213	3
153	177	2
182	184	3
226	228	5
229	229	9
111	111	7
203	206	2
6	43	4
240	241	6
4	34	1
215	215	6
20	20	12
32	32	7
48	55	3
175	208	5
190	190	3
214	214	7
178	178	5
243	243	6
167	170	3
216	217	1
167	169	2
12	14	3
85	100	4
64	65	9
179	181	4
29	145	1
33	43	1
181	192	1
17	17	1
185	185	2
233	235	2
88	98	4
110	110	8
56	56	2
114	114	7
245	246	5
51	51	4
29	90	3
61	81	9
79	79	7
97	99	1
29	30	2
50	101	1
33	34	1
18	18	2
72	76	3
40	41	7
29	29	5
67	82	1
172	172	3
6	230	3
184	186	2
10	11	4
117	119	3
22	22	4
61	62	5
189	189	4
70	102	2
167	180	5
44	44	6
105	106	2
98	98	10
168	168	2
190	191	4
186	186	2
55	56	6
177	198	2
87	88	2
90	91	3
15	15	3
166	196	4
192	192	6
75	76	2
157	158	2
2	4	2
201	204	2
99	100	2
156	162	2
104	107	5
108	109	6
3	6	1
96	97	2
13	64	5
146	147	1
67	68	1
93	94	2
77	77	5
219	219	1
194	194	6
115	115	5
84	86	3
167	173	3
156	157	4
162	170	1
245	245	4
192	196	4
120	120	3
30	42	2
62	91	1
69	74	1
186	188	3
104	106	3
28	43	5
96	105	4
180	236	2
68	71	2
104	105	1
18	200	1
183	183	10
162	167	1
80	102	1
48	77	2
2	46	1
205	247	1
174	175	3
26	26	6
61	61	4
120	221	1
26	42	2
164	164	4
170	171	1
200	201	1
217	217	4
158	170	2
14	14	4
16	26	6
177	177	11
183	184	4
114	115	3
35	35	2
192	212	1
166	179	2
216	226	1
167	187	4
109	246	2
245	247	4
193	194	2
59	60	4
151	153	4
66	66	1
56	57	3
15	32	2
195	199	2
208	237	1
78	78	7
84	85	2
1	33	4
98	171	1
38	38	5
106	106	3
175	175	13
206	247	1
85	98	1
157	157	2
67	67	7
171	196	2
104	104	2
219	224	1
177	197	4
7	8	3
165	167	1
28	145	1
25	25	5
210	213	3
230	230	2
22	233	1
160	171	3
160	160	5
242	243	2
52	53	2
99	99	4
195	195	4
210	212	2
201	202	3
241	245	2
208	242	4
95	110	3
177	214	5
176	176	4
26	36	2
66	73	1
31	41	3
211	213	2
14	34	2
92	92	2
226	226	1
82	82	6
118	119	2
194	215	2
54	55	5
46	46	7
212	230	2
84	98	2
8	45	2
19	19	11
41	41	3
80	101	2
29	31	3
166	166	3
169	196	1
70	70	2
172	179	1
37	47	1
30	32	4
232	232	4
87	87	2
18	37	1
48	173	1
40	40	2
22	67	3
205	246	1
96	211	3
153	153	3
31	32	2
14	15	2
244	247	3
107	107	3
100	100	1
193	193	3
190	193	1
243	245	2
21	23	1
55	64	1
17	150	1
184	184	1
237	237	3
221	229	2
119	120	1
186	187	1
19	26	1
175	209	2
8	9	3
240	240	2
31	31	1
57	75	1
41	57	1
169	246	1
97	174	1
42	43	2
30	30	7
158	162	3
163	242	3
70	77	2
119	247	1
163	163	2
28	38	1
200	203	2
93	100	1
39	46	1
110	112	2
180	231	1
103	104	1
214	216	1
53	212	1
102	114	1
55	59	1
68	82	1
98	104	1
196	198	1
51	101	1
37	37	1
161	200	1
195	216	1
165	244	1
73	74	2
196	199	1
159	177	2
215	216	1
74	75	3
9	11	1
178	184	1
212	214	1
86	87	1
190	222	3
237	238	2
45	45	2
201	203	3
15	22	1
227	228	1
177	183	2
147	147	1
152	164	2
229	230	2
203	207	2
77	78	1
18	20	1
12	31	1
47	48	2
157	160	1
50	102	2
166	167	1
2	12	1
171	194	2
211	214	1
183	192	1
163	182	1
19	100	1
57	61	1
159	166	1
52	78	2
47	56	1
168	170	1
109	109	1
88	91	1
209	210	1
31	33	3
80	81	1
19	20	1
182	183	1
162	162	2
203	204	2
146	146	1
191	216	1
60	165	2
58	246	1
96	195	1
144	146	2
213	219	1
105	105	1
23	25	1
192	218	1
40	247	2
174	174	1
100	101	1
61	67	1
180	181	1
89	89	3
73	76	1
95	211	1
15	16	1
61	227	1
155	161	3
91	91	1
232	234	1
243	244	1
172	193	1
21	30	1
198	198	1
56	77	1
29	109	1
224	228	1
164	215	1
87	95	2
224	246	1
152	153	1
10	155	1
192	219	1
157	169	1
45	47	1
70	83	1
39	44	1
167	179	1
12	12	1
183	190	1
49	102	1
36	65	1
204	247	1
81	81	1
238	245	1
213	239	1
186	189	1
