128	129	2
19	19	5
82	91	5
13	16	4
55	55	6
117	118	2
45	74	3
20	20	3
116	118	5
21	21	6
73	103	1
99	114	1
118	118	8
80	81	3
92	92	5
97	97	3
10	10	9
117	119	4
4	5	8
125	126	5
91	91	4
70	70	4
63	75	1
110	110	7
115	128	3
98	103	6
114	117	2
4	55	1
104	104	6
105	105	7
102	102	7
49	49	10
112	117	4
57	80	1
128	130	1
62	62	3
52	52	4
16	16	2
45	45	3
57	57	3
113	113	5
60	60	4
127	129	2
46	47	6
2	2	2
43	43	1
29	30	3
41	41	2
12	12	3
47	115	5
97	98	1
121	128	2
45	99	1
6	6	9
47	47	5
51	51	3
101	102	1
17	33	4
32	32	5
59	67	4
115	115	4
13	13	4
80	82	3
26	26	8
66	68	2
12	13	2
34	39	1
27	27	5
38	38	2
14	14	6
50	50	14
41	42	3
93	93	4
61	61	8
54	54	6
3	5	5
72	72	11
28	34	1
106	107	1
76	77	1
11	12	2
112	112	3
48	117	2
108	109	1
78	78	5
31	31	3
110	132	3
7	7	9
11	11	7
56	56	13
117	132	1
53	53	6
5	16	1
62	64	3
68	68	3
107	112	1
23	24	1
24	24	3
64	64	9
67	68	4
43	72	3
23	23	1
29	29	3
67	67	8
114	118	2
81	130	5
114	114	4
81	81	2
109	109	2
130	130	5
75	78	3
50	51	2
82	82	4
123	123	3
2	5	6
105	106	5
83	83	1
129	130	3
18	19	3
78	86	1
108	108	9
77	78	4
89	95	2
1	1	6
92	94	6
94	95	7
100	100	1
86	86	4
111	111	4
45	46	2
46	48	2
47	114	2
54	107	2
43	75	2
16	34	2
13	14	5
15	39	1
132	133	2
51	52	3
52	53	2
48	120	4
65	120	1
121	121	11
28	28	7
97	103	7
19	20	2
79	80	2
101	101	1
122	122	5
74	108	6
73	73	4
13	18	3
25	118	3
50	52	1
61	62	1
42	43	2
111	112	2
59	59	2
48	95	3
62	70	1
5	5	3
21	38	2
76	76	3
45	66	2
75	100	3
102	113	1
88	88	9
7	14	3
66	66	2
107	108	1
44	44	2
24	34	1
131	131	2
64	66	2
124	131	4
79	79	1
115	116	2
74	84	2
86	87	1
101	126	3
68	69	2
113	117	2
120	120	2
32	119	2
27	29	1
25	26	5
42	42	3
25	25	4
117	117	1
43	92	1
9	9	1
65	66	1
70	71	4
70	124	3
2	4	2
71	71	5
39	55	1
95	116	2
39	39	6
4	4	3
95	95	6
15	15	3
100	101	2
75	76	1
76	100	2
91	94	2
127	128	3
15	41	1
30	30	1
63	78	1
73	75	4
38	114	1
10	11	2
87	87	1
74	81	2
43	74	1
48	49	4
125	131	2
69	69	7
114	119	2
42	45	2
33	33	2
0	0	3
19	21	1
73	97	2
80	80	2
125	130	2
17	17	5
128	128	2
100	103	2
51	108	2
25	31	1
18	24	1
3	3	1
125	125	2
40	40	1
18	22	1
14	15	1
58	58	3
42	44	1
92	93	2
67	72	1
2	15	1
20	56	1
126	127	2
55	78	1
97	118	1
39	40	2
109	111	1
60	72	1
20	27	1
75	75	2
45	72	1
39	48	1
8	8	2
52	76	3
48	113	1
59	68	1
23	64	1
127	127	1
106	106	2
64	69	1
3	34	1
27	30	2
132	132	2
71	74	1
4	6	1
49	50	1
98	99	1
67	70	1
31	32	1
77	87	1
9	12	1
28	30	1
102	103	1
103	116	2
101	118	1
106	109	1
