160	161	3
131	132	11
78	79	2
170	171	7
196	196	14
112	113	4
31	31	4
82	118	6
190	190	10
125	125	6
107	107	18
116	117	6
141	141	7
21	22	8
97	98	2
19	19	2
58	58	12
185	194	3
94	95	1
47	53	3
53	54	1
47	47	3
196	197	4
115	116	3
147	147	2
154	155	1
139	144	4
174	174	10
67	67	7
89	89	5
195	195	5
51	169	4
25	36	2
109	109	5
153	153	8
156	156	3
61	61	5
136	145	2
163	166	2
115	121	1
163	164	1
12	12	7
37	45	2
161	162	17
37	37	2
128	128	15
194	194	8
110	110	3
161	164	3
173	173	13
2	20	1
69	69	3
97	97	3
23	24	4
5	6	6
178	178	5
18	26	4
28	28	3
34	34	10
169	169	2
3	4	3
138	138	8
175	175	3
164	167	5
134	134	1
45	47	4
171	171	10
94	96	5
187	187	2
144	144	13
95	95	4
0	0	5
100	100	9
9	9	6
134	135	5
153	163	3
108	109	3
180	182	2
100	101	3
70	70	6
107	108	7
149	155	1
192	192	7
144	145	2
176	187	1
64	64	6
45	45	5
17	37	3
165	179	1
87	88	1
37	41	3
59	59	4
119	129	2
151	175	2
193	194	6
168	169	7
44	44	1
25	26	13
139	139	4
86	86	2
3	3	9
66	66	2
167	168	5
181	182	3
93	94	1
94	99	3
186	187	2
186	188	3
123	124	1
146	147	3
102	106	2
156	158	7
132	133	8
168	170	5
5	42	3
4	40	1
55	56	3
102	102	8
193	193	9
105	106	3
183	183	9
55	55	12
17	17	4
35	35	2
1	1	7
154	154	6
159	159	1
104	104	9
70	71	1
11	11	8
116	119	4
9	14	3
13	14	4
42	50	4
104	148	1
146	148	1
153	154	5
150	150	7
129	129	6
143	143	2
157	158	3
67	75	2
103	137	1
182	182	3
176	178	2
7	20	2
61	158	4
52	52	3
21	21	5
42	43	2
122	122	8
45	46	4
113	113	1
135	135	9
102	149	8
109	110	11
165	166	12
59	64	3
168	168	5
51	51	5
173	174	3
161	161	5
20	21	1
6	9	1
65	65	6
161	173	1
101	101	15
162	162	8
127	127	2
158	158	2
130	131	3
27	30	3
142	142	13
189	189	8
179	179	3
10	12	3
167	167	4
39	39	8
5	7	3
74	77	1
108	108	2
125	126	3
156	157	2
165	165	5
38	38	3
72	72	10
30	30	5
188	188	10
187	188	2
192	193	1
165	174	5
151	151	10
20	20	2
51	52	5
113	114	2
8	9	5
154	165	2
180	180	2
190	193	1
177	191	3
63	63	5
126	126	8
124	124	2
99	101	1
110	111	2
189	190	2
15	23	1
78	78	7
128	129	1
81	81	1
33	33	9
164	172	1
2	34	2
58	59	2
48	48	7
176	177	8
185	186	1
133	133	2
119	119	5
103	105	1
0	1	5
38	43	2
103	103	4
148	148	10
79	85	1
173	175	8
84	85	3
7	9	2
170	170	2
10	11	1
130	133	3
164	164	2
164	187	2
97	107	2
163	163	1
8	8	2
178	179	4
153	175	2
13	36	1
116	118	4
50	51	4
42	51	2
26	26	4
178	180	3
2	19	1
111	111	4
18	30	2
15	15	3
83	119	2
2	2	6
183	188	1
137	147	4
46	53	1
140	140	4
155	155	4
159	160	4
105	105	5
18	20	5
40	41	3
122	123	7
3	10	1
7	7	2
7	8	3
22	22	2
118	119	2
56	56	4
96	97	2
83	114	3
38	46	1
16	16	4
150	182	2
44	46	1
62	157	1
160	160	2
174	178	1
74	76	2
6	6	5
176	176	3
2	21	1
32	32	5
109	111	2
141	191	1
166	166	4
112	112	2
181	181	4
19	39	2
40	42	1
64	65	2
150	151	4
85	85	2
148	155	2
27	29	1
121	121	8
113	122	1
72	156	2
37	38	1
149	151	1
121	122	2
46	46	3
101	102	3
117	117	4
142	160	1
2	3	3
24	25	1
65	66	4
151	152	1
146	146	3
5	8	2
136	136	3
18	18	1
177	177	2
152	180	1
1	139	1
135	137	2
152	153	2
85	118	3
3	31	2
190	191	1
13	13	1
53	53	2
76	88	1
54	55	5
79	88	2
1	2	1
83	83	1
131	131	4
60	155	2
19	23	1
191	191	3
14	14	2
40	40	5
36	38	1
20	24	2
73	73	4
41	41	3
106	118	3
195	196	1
9	10	2
104	134	1
88	89	3
81	107	1
67	72	1
74	74	2
147	159	1
34	41	1
147	149	2
18	19	1
197	197	3
13	35	2
156	182	1
12	14	2
71	71	1
126	127	1
148	149	1
140	144	1
79	80	1
154	181	1
15	45	1
132	132	3
116	116	1
162	173	1
63	66	2
142	143	1
120	120	1
81	82	1
156	159	1
103	150	1
98	98	6
87	87	2
172	173	1
102	138	1
95	96	1
137	138	2
36	36	2
54	56	1
43	44	1
116	130	1
49	49	2
162	164	2
77	77	1
157	157	2
41	167	2
172	172	2
4	4	2
152	152	1
35	36	2
38	164	1
133	134	1
134	137	1
123	123	2
154	159	1
148	161	2
66	75	1
186	186	1
38	173	1
30	31	1
24	28	5
52	53	1
138	140	1
58	62	1
159	161	1
180	181	2
15	16	1
27	27	3
10	10	1
185	185	1
154	160	1
170	183	1
9	23	1
155	156	2
83	107	1
164	166	1
147	148	1
59	181	1
94	94	1
62	63	1
142	164	1
39	43	1
11	12	1
27	28	1
161	169	1
71	72	2
59	60	1
160	186	1
161	166	1
9	11	1
99	99	1
117	118	2
158	159	1
25	25	1
96	96	1
140	141	1
168	171	1
82	83	1
46	120	1
