42	67	3
75	75	4
14	14	6
103	103	9
187	187	2
59	65	5
74	76	3
74	74	12
114	114	8
153	155	1
44	44	2
118	119	1
55	56	2
32	56	6
41	75	1
168	169	5
112	113	5
167	168	9
88	88	15
45	45	5
146	146	6
39	39	10
39	42	1
109	112	3
82	82	6
84	84	2
135	135	1
16	17	3
169	169	8
34	35	3
71	71	3
123	123	9
180	182	2
40	41	3
33	33	5
43	63	4
75	76	4
93	94	6
25	25	7
67	68	3
91	91	7
4	4	2
70	70	2
7	8	3
59	62	5
29	29	7
88	89	3
170	171	1
95	96	5
188	188	6
147	147	5
185	185	8
11	11	1
116	118	1
17	45	4
47	56	3
84	85	8
2	3	4
87	93	3
13	13	8
43	44	5
114	116	1
5	82	1
151	153	2
79	79	6
48	48	10
30	32	2
177	177	4
18	22	1
30	30	6
85	85	4
12	15	3
2	2	5
144	145	2
31	32	3
26	26	5
45	47	2
40	40	10
141	141	8
132	132	4
81	82	5
28	28	7
34	36	2
45	76	4
111	111	6
130	138	2
4	10	1
152	152	3
174	174	11
140	140	2
87	87	12
136	163	1
144	146	1
68	70	8
78	79	3
20	20	5
149	149	8
143	144	6
148	148	3
42	42	9
35	46	2
175	175	1
186	186	6
57	91	2
23	23	9
153	154	2
65	65	1
10	12	4
126	126	3
82	84	1
95	95	14
92	92	3
102	103	2
56	56	11
42	43	3
103	104	5
83	84	6
60	60	5
182	183	1
77	77	4
187	189	2
152	153	3
31	31	4
154	154	4
45	46	6
68	72	6
189	189	1
79	119	1
104	104	4
40	44	2
14	15	9
0	0	4
99	100	1
41	41	8
24	25	5
72	72	4
164	165	2
96	96	7
163	164	4
141	142	3
165	165	10
141	144	2
106	107	2
53	54	1
134	138	5
161	161	1
42	47	3
1	1	3
158	159	1
78	78	4
73	73	5
138	138	7
24	27	3
167	167	1
83	83	10
86	86	6
48	59	1
36	36	3
47	61	2
113	113	4
172	172	3
90	90	2
3	3	7
76	76	2
105	105	1
13	80	2
151	151	4
185	186	2
102	102	2
22	24	3
7	7	8
107	107	2
120	151	1
17	17	5
68	68	3
139	141	3
24	26	3
8	8	4
186	188	2
148	149	7
4	5	4
61	154	6
60	61	3
168	168	2
89	89	4
60	64	3
147	148	3
61	62	2
57	57	10
140	141	6
74	79	2
144	144	5
12	12	2
106	108	4
108	108	3
41	42	1
23	26	2
186	187	3
93	93	1
132	134	1
155	156	1
166	166	3
142	142	3
54	54	4
71	72	2
30	76	2
164	164	8
15	15	2
60	63	2
37	37	4
61	61	2
12	13	4
170	170	2
70	71	1
74	86	3
15	23	2
138	139	1
58	59	2
8	15	2
129	130	1
5	5	3
25	37	1
105	117	1
19	19	3
145	145	7
153	153	2
44	63	1
99	99	3
17	19	1
21	21	4
80	107	1
156	156	2
15	18	1
184	184	2
9	9	1
183	184	2
6	10	2
169	170	2
23	24	3
3	13	2
121	121	5
163	163	5
34	37	2
159	160	3
173	173	4
103	110	2
166	169	2
11	109	2
59	66	2
130	130	1
19	20	3
0	1	1
39	48	1
6	6	4
107	108	3
87	89	1
84	86	1
32	45	2
122	123	1
104	118	2
109	122	1
181	181	1
127	127	1
92	93	3
25	72	1
160	160	3
37	38	1
187	188	1
69	95	2
111	120	1
172	174	1
26	74	2
42	77	1
45	59	1
131	131	1
42	44	1
59	64	1
110	110	3
58	58	1
184	185	1
39	78	3
88	123	1
139	139	2
30	31	3
127	128	1
94	95	4
178	179	1
101	103	1
109	110	2
62	63	1
24	24	3
118	118	1
173	174	4
143	143	1
80	80	1
87	88	3
74	75	1
131	139	1
100	100	2
13	14	1
183	183	3
79	104	1
190	190	1
47	47	1
157	157	1
119	119	4
129	129	1
133	133	1
146	148	1
56	62	1
56	57	1
139	140	1
10	11	1
22	22	1
181	182	4
74	93	1
115	115	1
11	29	1
96	97	1
188	189	1
38	38	3
49	49	1
168	171	1
25	26	1
109	109	2
38	39	1
136	138	2
149	150	1
33	34	1
78	103	1
76	77	1
57	65	1
174	177	1
110	111	1
164	185	1
133	152	1
41	77	1
166	168	1
136	137	1
6	8	1
31	34	1
22	23	1
136	136	1
20	24	1
103	106	1
