117	117	14
139	139	18
132	132	21
36	37	4
33	95	1
133	134	20
72	72	12
2	2	4
2	4	4
71	71	5
83	83	7
95	96	1
15	16	4
24	24	5
20	22	6
127	130	5
138	138	12
31	31	7
111	111	18
131	131	26
125	126	7
99	99	11
107	109	6
113	114	3
5	5	10
85	85	5
93	93	12
101	111	6
121	122	14
128	128	25
135	135	13
125	125	26
108	108	8
91	91	3
4	4	9
34	35	2
101	101	18
136	136	14
21	21	9
102	102	8
103	107	3
73	73	12
95	95	14
107	114	2
28	29	8
116	116	4
124	124	18
81	85	4
20	20	12
78	81	1
106	106	7
74	74	14
14	32	6
118	119	5
127	127	16
37	37	11
96	96	21
80	87	3
130	131	6
134	134	18
100	100	14
25	26	4
27	27	7
35	35	21
113	113	13
137	139	3
126	127	4
89	110	5
33	33	18
86	87	3
129	130	6
140	140	26
25	83	2
11	11	8
121	121	13
97	98	10
89	89	5
18	18	10
0	1	3
33	90	3
114	114	8
20	129	1
16	17	9
31	32	16
72	73	11
26	26	10
116	117	10
6	7	17
119	122	3
15	18	4
94	94	4
134	135	8
18	19	8
81	83	9
25	27	6
104	121	1
115	119	5
21	26	1
86	86	4
6	6	11
87	87	3
14	14	5
120	121	5
72	75	4
29	77	2
94	95	6
134	136	2
81	82	4
120	122	4
14	15	5
96	98	4
130	130	14
13	13	3
137	137	13
103	104	5
36	36	14
7	14	1
109	109	3
129	129	18
38	38	1
88	88	6
89	99	5
98	98	8
27	29	4
99	100	6
86	112	5
1	1	6
83	85	3
116	118	4
130	132	4
124	125	3
19	22	4
34	34	9
78	78	13
126	126	18
9	9	5
92	92	3
83	113	4
120	120	2
18	20	4
137	138	7
21	33	1
102	103	6
34	36	2
132	133	6
123	123	16
92	94	2
75	76	11
29	29	11
135	136	3
77	77	8
104	107	1
105	105	5
30	30	4
25	85	1
21	22	5
7	7	5
94	114	6
7	8	2
105	107	2
3	7	2
32	32	6
22	22	13
97	99	3
89	95	1
87	88	4
101	103	1
0	0	1
115	124	3
27	30	3
13	32	3
76	76	6
128	129	9
106	113	2
16	16	4
29	30	6
81	81	11
4	6	1
20	21	5
91	94	7
119	120	4
73	75	7
17	17	9
139	140	4
78	79	1
114	115	4
98	115	3
118	118	9
72	74	8
88	90	2
26	32	3
82	113	3
80	112	1
89	91	3
102	122	1
107	108	7
2	3	2
131	133	7
132	135	3
10	12	4
101	102	7
106	110	2
104	105	4
80	80	7
119	121	9
106	107	1
92	93	3
74	75	1
19	19	7
138	139	10
19	20	4
77	78	1
122	122	11
35	36	3
121	123	2
23	23	11
23	85	2
105	106	7
10	10	2
8	12	3
72	76	2
133	135	7
112	112	10
112	113	4
119	119	4
24	26	2
97	97	3
84	110	3
84	84	10
127	128	3
23	27	2
115	115	7
104	104	4
4	5	3
5	130	1
131	132	7
75	75	3
73	74	1
83	88	1
112	115	4
93	94	4
7	11	3
84	85	1
90	92	1
28	28	2
8	10	2
3	3	1
133	133	11
10	15	1
4	131	4
1	2	8
23	25	2
88	104	2
109	111	2
90	91	3
12	18	3
22	23	5
133	140	1
118	124	1
5	6	2
80	113	4
74	76	2
133	139	1
3	132	1
80	82	1
103	103	4
85	88	3
24	27	1
90	90	3
135	137	1
136	138	3
21	23	1
29	33	1
12	32	1
93	95	1
79	80	3
17	19	1
79	79	4
5	8	1
80	93	1
84	136	1
128	130	3
111	112	3
80	84	2
30	31	4
35	126	1
83	87	1
107	107	2
24	25	1
91	93	1
136	137	2
6	13	1
1	9	1
98	117	5
79	82	1
13	31	1
33	34	2
129	138	1
3	4	1
3	11	1
7	10	2
25	31	1
15	15	3
27	28	1
104	106	1
108	120	1
11	12	5
97	127	2
28	32	4
126	129	1
88	93	2
123	127	1
20	116	2
8	30	2
123	124	2
105	109	3
8	9	6
108	109	1
85	86	1
14	18	1
109	110	1
38	73	2
118	123	3
17	18	1
127	132	1
101	106	1
109	112	1
20	130	1
37	38	2
117	118	2
35	96	1
136	139	1
11	15	1
14	22	1
88	91	2
26	84	1
127	131	1
5	7	1
74	89	1
33	35	1
7	13	1
0	2	1
