12	14	4
99	100	4
2	7	5
73	73	10
28	33	2
81	83	1
5	8	1
80	83	1
3	4	3
132	132	8
29	32	3
129	129	4
92	93	3
134	134	9
125	128	2
119	122	2
34	34	6
115	115	5
9	11	2
98	100	2
25	26	4
4	5	4
84	135	1
131	135	1
134	137	4
126	127	4
134	136	4
77	78	2
137	139	1
86	86	6
13	13	9
105	105	6
110	111	2
136	137	6
97	118	2
79	79	5
74	75	2
4	4	8
93	97	1
128	139	6
129	132	5
102	113	3
117	124	2
74	74	3
102	102	2
28	28	3
27	28	2
132	139	2
125	132	4
13	17	2
107	111	7
24	24	5
32	37	2
138	138	8
112	112	5
89	91	2
131	140	5
101	110	3
111	112	2
94	106	2
94	101	6
10	12	1
13	19	2
12	13	1
1	20	6
91	92	7
0	16	2
88	111	1
98	135	4
5	18	2
76	76	2
104	107	3
9	10	6
89	90	2
86	87	4
33	34	3
123	123	10
9	12	4
124	124	6
95	95	7
88	93	1
73	74	3
71	71	4
10	11	1
106	106	1
133	139	1
114	116	3
87	95	3
126	134	2
84	87	5
101	101	1
125	127	5
92	102	2
30	36	5
93	98	1
75	75	2
85	90	1
134	135	4
119	124	2
14	16	2
99	108	3
94	95	1
101	107	4
109	110	2
27	31	1
126	128	5
125	126	3
22	27	5
112	118	5
14	23	1
116	136	5
86	96	2
37	71	3
29	31	3
103	103	1
7	13	1
71	104	1
74	87	3
4	17	2
78	90	1
110	113	3
117	121	2
96	100	2
90	91	3
7	28	1
128	128	1
121	135	4
113	128	3
135	135	2
35	36	2
26	26	2
135	136	6
86	98	3
108	115	1
96	96	2
32	34	1
111	114	3
14	14	5
124	129	1
114	130	2
19	20	3
7	8	3
8	11	3
130	131	2
92	137	3
98	103	1
13	16	1
117	123	5
83	83	1
123	128	9
127	127	5
92	94	2
116	117	10
85	86	1
124	126	1
85	94	2
127	129	2
21	23	1
100	100	4
82	84	1
103	105	1
113	120	1
85	85	3
91	93	3
77	77	1
36	37	7
12	12	2
140	140	3
111	113	2
103	106	2
34	35	2
106	112	2
108	123	3
38	68	1
116	119	2
20	22	2
128	133	4
139	140	2
82	91	1
123	124	1
119	130	5
82	109	2
115	118	2
22	22	3
124	125	2
126	126	3
126	132	2
2	2	1
109	123	1
2	3	1
81	82	2
110	115	1
0	0	3
91	91	3
29	30	5
18	19	3
101	104	2
4	6	2
17	20	6
132	138	1
20	24	1
120	122	3
87	87	10
89	92	1
7	7	3
20	26	1
93	124	1
81	121	2
119	127	1
92	92	2
75	77	3
30	31	3
107	109	1
135	137	2
133	136	1
21	22	3
97	101	2
136	136	2
14	21	1
77	80	4
6	23	3
29	36	1
36	36	3
78	78	1
101	109	2
20	25	4
6	6	2
37	37	1
118	123	2
106	115	1
121	125	1
14	15	1
72	75	3
111	111	2
16	19	1
28	32	1
82	119	2
1	14	1
8	10	1
121	136	3
118	134	2
80	114	2
137	137	5
133	133	2
81	81	3
0	4	2
5	13	3
79	87	1
96	110	5
6	28	1
109	109	2
90	94	1
21	25	2
129	131	2
5	6	2
112	114	1
109	125	2
85	89	3
72	73	1
81	114	2
139	139	1
137	138	4
94	99	1
38	38	1
24	28	2
1	4	2
30	30	2
91	96	1
96	111	1
121	123	1
114	115	1
131	133	3
12	25	3
118	121	2
11	12	3
108	109	2
110	133	1
123	135	1
23	25	1
79	108	2
16	23	1
17	18	1
22	24	1
112	115	1
130	135	2
72	99	2
110	134	1
0	2	3
116	116	1
34	36	1
17	17	2
5	5	2
136	140	1
77	81	1
104	109	1
79	81	1
84	101	1
117	129	1
112	128	1
98	99	2
133	134	1
86	108	1
126	129	2
136	139	1
121	122	2
85	99	1
100	101	2
112	119	1
125	125	2
4	7	2
122	127	1
88	91	1
114	119	1
5	10	1
22	23	2
128	129	1
3	3	1
6	7	2
99	99	2
86	130	1
132	133	1
120	126	2
114	123	1
100	102	1
91	100	1
99	124	1
121	127	1
121	121	2
31	32	2
118	124	1
15	19	2
88	99	1
89	89	1
97	97	1
80	80	2
90	90	2
8	8	1
73	98	1
121	124	1
119	123	1
136	138	1
12	15	1
89	97	1
11	13	1
89	93	1
105	113	1
92	125	1
74	79	2
111	115	2
81	99	1
131	131	1
18	20	1
68	85	1
77	79	2
95	103	1
0	18	1
97	110	1
84	125	1
10	19	1
6	24	1
1	13	1
19	19	1
122	123	1
115	116	1
109	111	1
93	93	1
116	139	1
35	35	1
118	119	1
110	110	1
98	117	1
17	22	1
15	124	1
2	4	1
98	101	1
