107	107	4
108	108	4
154	156	7
167	167	4
146	170	1
128	128	2
137	139	5
45	45	7
5	5	9
206	206	7
209	209	1
86	114	3
195	195	10
81	81	9
85	85	9
4	4	9
162	162	3
4	184	1
127	128	2
148	150	3
89	89	3
39	39	5
82	82	10
145	145	5
3	22	3
25	26	4
67	67	12
102	103	3
10	10	9
7	8	4
16	16	6
4	7	6
16	23	3
191	191	4
136	136	9
64	65	4
234	234	3
177	177	5
2	2	6
203	204	9
18	18	6
13	13	13
230	230	5
145	192	4
125	126	2
32	32	9
25	25	7
98	98	5
204	205	2
238	238	10
231	231	2
7	21	1
72	72	11
8	8	2
122	123	1
83	83	3
173	173	3
207	208	7
200	200	2
174	174	3
242	243	2
63	63	6
26	26	7
65	65	3
34	34	7
29	31	2
189	210	2
70	70	7
0	0	11
8	18	4
65	66	5
37	38	2
40	41	1
73	73	8
69	70	4
42	66	1
101	105	3
62	62	9
47	47	8
124	124	5
8	25	2
169	184	4
24	151	4
116	195	1
108	161	2
32	54	4
35	35	8
161	161	3
156	157	1
66	67	10
238	240	1
198	198	7
163	163	9
24	24	5
63	64	5
211	211	8
80	85	4
50	54	2
123	123	2
118	119	3
242	242	5
164	164	8
158	158	8
21	22	2
51	51	5
51	52	11
60	154	6
104	104	2
95	96	2
31	31	5
19	19	4
154	195	1
224	227	3
215	215	8
146	146	4
226	226	2
51	206	1
41	41	5
224	224	13
31	35	2
104	105	1
122	122	6
4	21	1
146	147	1
42	164	3
194	196	2
22	23	5
113	119	3
22	22	6
71	71	7
156	156	3
142	142	5
155	155	2
74	75	7
134	134	1
170	171	2
186	187	11
37	37	4
166	166	2
20	102	4
113	129	5
157	163	2
202	238	1
9	12	1
209	212	4
61	61	2
66	66	6
17	17	7
196	197	2
18	19	2
126	127	2
20	21	3
20	76	3
208	208	5
187	216	4
43	43	10
34	36	1
140	140	5
219	219	8
69	85	1
7	7	4
97	97	3
40	40	6
9	9	7
217	217	8
139	139	9
172	172	13
86	86	9
127	127	9
96	96	3
80	80	2
206	215	3
202	203	3
1	1	8
171	197	3
152	153	6
60	60	3
145	146	4
23	38	4
75	75	5
202	202	4
173	175	1
192	192	4
209	210	8
53	53	9
61	82	2
99	99	6
179	179	3
203	203	2
221	221	1
237	237	7
232	232	3
109	109	2
133	159	1
30	30	1
175	175	4
198	199	1
52	52	4
200	201	4
49	49	5
9	30	1
20	20	6
168	192	5
55	55	8
197	198	4
101	103	2
170	196	2
5	49	2
14	184	3
1	2	1
95	95	3
15	33	1
239	239	12
136	137	6
117	117	5
157	157	3
225	225	2
5	6	1
27	28	3
218	220	2
11	12	1
193	194	4
168	183	2
236	237	3
152	152	5
162	166	1
41	165	2
76	76	2
197	197	6
148	165	1
216	216	7
126	126	3
41	52	1
71	73	2
59	59	6
217	218	1
165	166	2
77	80	1
223	223	1
220	220	2
50	50	3
190	212	3
199	199	1
222	222	4
24	150	3
3	15	1
159	159	2
125	125	3
214	215	5
200	205	1
153	153	4
239	240	1
60	61	3
3	3	9
36	36	1
182	183	1
43	44	2
75	84	1
236	236	3
77	77	3
6	50	1
154	196	2
204	206	3
32	67	1
167	169	4
128	129	2
148	157	3
2	18	4
6	6	1
176	179	2
40	164	3
9	11	3
11	11	2
33	34	2
240	241	1
28	30	1
182	182	1
0	84	3
102	102	5
138	138	4
69	75	1
66	68	3
50	51	2
143	160	1
48	48	7
228	228	1
144	144	3
12	16	3
86	101	1
44	44	7
177	178	5
170	170	2
56	56	3
74	85	1
218	219	2
69	69	2
148	148	2
59	60	5
53	64	2
103	103	3
165	165	3
141	142	1
88	127	2
42	53	4
42	42	1
23	23	1
15	15	3
105	105	1
201	201	4
46	46	4
98	99	1
101	101	4
151	151	2
103	105	1
66	79	3
84	84	1
194	197	3
121	122	2
38	39	2
49	50	3
54	54	2
34	35	2
204	204	2
76	84	1
201	207	1
15	18	1
158	163	1
226	227	1
205	205	1
68	68	5
46	47	2
171	171	1
141	141	4
131	131	4
39	40	1
100	105	3
234	235	1
14	14	3
74	74	1
213	213	3
121	121	1
39	42	1
228	229	1
147	156	1
148	149	1
184	198	2
135	136	2
50	166	1
111	111	2
169	169	1
103	104	1
84	85	2
68	74	2
38	38	2
1	11	3
33	33	3
189	189	3
178	184	1
146	192	2
196	196	1
210	211	1
202	214	1
12	14	2
58	74	2
23	24	1
151	178	1
193	193	3
227	227	4
36	37	1
112	112	2
8	154	3
30	31	1
31	33	3
194	194	2
185	185	1
57	76	1
64	64	1
189	194	1
26	27	1
133	134	1
150	151	1
78	85	2
235	236	2
106	107	1
217	219	4
29	29	2
99	100	1
3	23	3
54	56	1
176	198	1
137	137	1
107	108	1
16	25	1
113	113	5
188	212	2
66	84	1
235	235	2
151	153	2
212	214	1
59	61	1
175	180	1
45	46	2
56	68	2
220	221	2
185	186	2
27	27	1
192	196	2
12	12	1
212	212	1
145	147	2
78	125	2
75	80	2
124	128	1
66	85	1
24	25	1
106	106	1
62	85	2
15	41	1
159	160	1
187	187	1
227	228	1
153	154	1
172	232	1
57	58	1
42	161	1
140	141	1
53	63	1
130	130	1
15	150	1
8	49	1
139	157	1
69	74	1
88	122	2
52	55	1
155	156	2
17	18	1
87	88	1
16	17	1
174	175	1
184	185	1
