145	145	5
148	150	4
15	16	4
56	56	5
140	140	4
62	62	10
134	147	2
107	108	4
187	187	2
22	23	5
54	54	5
14	14	6
103	105	5
1	1	4
29	31	4
70	70	3
34	34	5
208	208	9
121	127	1
133	133	5
32	33	4
50	51	4
52	53	2
35	66	5
66	68	4
152	155	5
164	164	6
104	104	8
45	45	5
23	23	7
40	40	5
70	72	3
123	123	9
45	46	2
58	58	11
147	186	4
239	239	2
66	66	8
169	169	4
5	13	5
182	182	3
38	45	1
156	156	7
82	84	4
33	33	10
187	197	1
161	161	3
81	81	5
79	80	3
61	64	1
113	113	3
151	151	5
2	3	3
11	34	3
51	53	2
55	55	14
136	144	3
169	170	1
102	102	6
29	29	7
71	71	9
194	194	4
174	174	1
7	7	5
68	68	8
141	143	6
144	144	4
24	117	8
21	21	5
122	122	5
190	190	2
9	9	5
69	69	6
193	193	1
168	168	9
214	214	1
111	111	1
96	96	4
211	213	5
239	241	5
11	20	1
162	162	3
89	109	5
228	228	5
31	31	8
159	160	2
85	86	2
221	221	11
128	128	6
99	128	4
131	156	2
37	37	2
150	152	4
148	148	6
150	150	3
208	209	7
17	18	7
35	37	2
101	103	5
143	143	3
170	170	2
61	61	4
3	4	2
213	215	6
100	100	6
212	212	5
150	151	2
224	224	9
121	122	1
3	13	1
15	22	1
134	134	4
39	39	14
101	102	1
222	229	1
41	42	2
20	20	14
136	136	8
116	152	2
63	74	1
75	75	5
49	49	5
171	172	3
85	85	4
199	199	2
211	211	7
35	36	4
55	56	5
151	182	2
24	25	4
21	22	6
22	35	6
185	186	7
26	27	1
27	27	9
25	26	4
149	149	1
139	139	6
82	86	1
78	79	2
218	218	4
215	231	1
36	40	2
225	225	9
32	32	4
58	59	6
77	77	2
160	160	3
80	80	4
73	74	5
104	105	2
50	52	4
66	67	2
53	53	3
210	210	4
197	198	3
2	2	4
62	85	2
220	220	3
141	181	3
72	72	8
56	77	2
62	233	2
77	78	5
188	188	5
230	230	1
0	0	6
178	223	3
86	86	2
98	99	4
118	120	1
91	105	4
166	167	1
164	165	3
11	12	3
48	48	4
99	99	5
210	220	3
157	157	7
5	18	3
209	223	3
46	68	3
233	233	10
172	172	20
51	51	5
206	206	5
37	47	1
17	198	5
114	167	1
110	110	3
156	157	1
200	203	3
180	180	1
180	182	5
82	83	3
193	195	3
130	156	3
160	166	4
153	153	6
137	137	1
154	155	2
195	195	4
43	43	2
38	40	2
8	199	4
209	220	5
188	210	3
80	84	6
42	42	7
194	198	3
240	241	1
216	216	3
12	13	3
82	82	10
238	239	1
106	127	2
131	131	1
25	25	9
186	221	3
51	52	3
196	196	4
2	12	2
187	200	2
103	103	2
211	212	3
63	63	5
219	242	4
184	184	6
38	38	3
57	57	3
133	138	4
58	60	4
16	16	5
76	76	4
31	33	2
173	175	2
70	71	4
40	41	3
216	224	1
140	144	1
203	204	3
192	193	3
238	238	5
29	30	3
219	220	4
5	14	2
39	41	2
84	84	2
19	187	4
166	166	3
114	114	1
226	227	3
60	60	2
210	211	2
7	8	5
57	78	1
32	43	1
107	107	6
212	216	1
43	46	4
126	126	1
83	84	1
75	78	1
22	22	2
46	46	6
130	130	3
204	204	2
47	47	3
229	229	1
32	38	3
175	175	5
99	100	2
109	118	1
181	183	2
215	221	4
198	198	3
103	165	4
120	124	1
118	161	5
9	18	4
134	135	2
123	124	3
52	52	5
26	26	4
158	159	6
10	10	3
83	83	3
30	30	6
227	227	8
142	142	7
208	221	1
48	52	1
59	60	2
5	15	2
42	47	1
101	114	2
155	157	1
39	42	1
117	161	1
182	183	2
3	3	3
138	139	1
139	140	3
137	138	2
228	229	5
54	57	1
234	235	2
233	239	1
71	72	1
43	45	4
207	207	4
30	49	1
29	40	1
173	174	1
223	223	5
149	195	4
144	206	1
217	218	5
106	106	2
183	203	5
14	15	2
13	14	3
171	171	2
235	236	1
189	190	6
233	234	2
189	228	1
8	8	3
20	210	1
195	196	2
14	16	1
42	43	3
175	185	1
110	118	2
158	158	2
21	46	4
159	159	5
57	60	3
118	118	4
59	61	1
56	57	6
115	117	2
192	200	2
15	15	5
80	123	1
235	235	2
4	7	1
135	135	1
211	216	4
35	35	1
159	161	1
28	29	1
109	161	1
200	200	1
214	221	2
4	4	3
64	70	2
223	225	1
20	21	1
37	40	1
226	226	2
198	199	1
221	222	2
154	154	1
147	148	5
103	122	2
217	217	1
67	164	1
201	201	3
127	127	3
213	213	2
146	201	1
103	119	1
232	242	1
155	155	1
39	45	3
138	141	2
19	19	2
191	191	6
181	181	4
178	196	3
3	9	1
219	219	1
214	217	1
146	146	2
150	210	1
85	97	1
153	179	1
24	24	2
163	166	1
168	180	5
189	189	4
241	241	2
17	17	2
160	161	2
65	66	2
141	141	2
30	48	1
174	175	1
5	5	3
38	39	1
105	105	1
34	35	1
140	142	1
4	13	2
16	17	2
109	109	3
202	202	1
231	231	4
13	22	1
107	125	1
165	165	2
119	119	2
197	199	1
98	98	2
11	85	1
14	17	2
54	77	2
137	149	1
63	76	1
39	76	2
28	28	2
213	223	1
225	226	1
147	147	1
103	162	1
234	234	3
101	101	4
224	225	1
206	207	1
115	165	1
44	45	4
182	224	1
62	63	3
65	70	2
97	99	1
11	11	6
60	62	1
237	237	2
65	65	3
125	125	2
3	176	1
32	39	1
203	206	1
215	222	1
142	143	1
79	79	1
59	59	1
120	128	1
15	171	1
108	159	2
146	185	1
133	134	1
152	160	1
136	137	1
81	84	1
55	57	1
38	44	1
67	67	1
4	12	1
26	32	3
236	237	2
73	73	1
180	200	2
105	180	1
144	145	2
38	47	1
52	54	1
239	240	1
209	209	1
104	125	1
74	85	1
41	41	1
159	163	1
179	179	2
19	22	1
2	4	1
232	232	2
12	14	2
12	12	1
186	186	1
15	173	1
129	129	1
170	171	1
178	184	1
116	116	1
105	106	1
163	163	1
68	74	1
153	182	1
11	40	1
50	50	2
10	12	1
80	81	1
156	158	1
78	78	1
75	80	1
165	166	1
153	157	1
65	67	1
237	238	1
187	188	1
49	50	1
42	64	1
84	86	1
13	13	1
97	98	1
78	84	1
132	132	1
