27	27	4
107	107	14
2	2	2
84	84	6
46	46	8
12	12	8
29	29	6
29	32	1
47	47	6
93	94	6
14	16	1
115	117	1
5	52	2
3	8	5
83	83	7
49	62	3
70	70	6
125	127	2
3	3	12
5	13	1
59	67	4
120	120	3
67	67	4
102	102	2
62	65	1
77	77	7
123	123	10
110	111	5
64	65	7
97	97	8
62	62	4
94	96	1
106	106	3
39	40	5
20	20	3
45	47	4
10	11	1
9	13	1
110	110	6
72	73	7
98	126	1
41	55	3
86	86	15
116	116	2
30	31	4
19	19	4
88	88	12
14	40	1
104	104	4
68	68	11
32	32	6
114	114	2
131	131	4
21	44	2
48	48	7
17	17	5
34	40	1
74	74	6
102	103	2
71	71	5
6	6	7
80	81	4
83	87	5
101	125	2
54	70	1
13	13	3
33	33	5
89	91	2
11	32	2
79	79	6
69	70	1
82	90	2
130	130	3
23	23	3
81	86	2
51	52	3
7	7	3
100	100	9
32	34	2
90	101	3
54	54	6
2	5	5
50	50	3
109	111	1
113	124	1
82	84	3
109	109	13
105	106	5
49	49	5
34	97	3
58	62	3
119	119	6
124	124	3
122	122	5
53	64	1
82	82	5
71	75	3
1	15	3
80	80	3
44	45	7
90	90	5
38	39	1
16	66	1
56	56	8
14	14	3
28	29	4
93	93	4
120	121	1
5	18	3
60	60	3
81	82	2
0	1	1
8	8	5
115	115	6
52	52	7
22	22	4
13	14	1
10	10	4
61	61	4
110	112	3
82	86	2
67	68	3
45	45	2
129	129	1
104	105	3
111	111	2
48	50	1
116	117	7
96	96	9
94	114	2
112	132	5
109	110	2
101	101	2
43	43	2
76	76	3
133	133	4
65	66	4
105	105	2
20	71	4
131	132	2
41	42	2
132	132	2
41	44	1
25	25	7
66	66	1
124	125	3
29	30	4
96	98	1
103	103	7
81	81	4
117	118	2
0	68	3
91	93	2
103	129	2
106	108	1
5	44	1
88	89	4
53	53	2
14	39	1
97	99	2
113	113	3
91	91	2
40	40	2
70	72	5
114	119	2
11	11	2
19	25	2
86	87	2
30	30	2
101	103	1
121	125	2
126	126	1
63	63	1
22	25	4
46	48	1
5	5	6
59	60	1
113	129	2
42	43	3
65	67	4
117	129	4
100	113	2
125	131	2
27	29	2
0	0	2
27	31	3
79	80	3
22	131	2
116	133	1
39	39	6
128	129	1
94	94	8
78	78	4
111	112	2
76	77	3
69	69	4
125	125	3
15	15	5
84	85	2
44	44	1
113	131	3
21	21	1
100	101	3
82	100	1
118	118	2
64	64	2
19	44	1
16	16	1
1	13	1
41	60	1
89	97	3
77	78	1
95	95	2
121	121	3
101	130	2
41	41	1
79	87	1
72	126	1
26	26	2
24	24	2
60	69	3
112	112	1
90	98	1
40	41	2
51	51	3
88	94	2
117	117	2
11	34	1
118	119	2
5	21	1
66	105	1
43	61	3
72	125	1
109	124	1
33	61	1
13	15	1
55	62	1
31	32	1
65	65	2
89	89	3
19	66	1
19	23	1
78	79	3
71	72	1
57	57	1
23	24	1
130	133	2
57	61	1
89	90	2
66	107	1
112	116	1
6	8	1
54	55	1
37	37	1
10	24	1
11	12	1
46	47	1
47	67	1
9	10	1
57	60	1
28	28	1
20	27	1
31	31	1
115	116	1
