3	4	3
165	165	5
147	147	1
56	57	2
3	6	5
156	161	5
96	96	1
198	217	1
208	208	6
98	98	2
114	115	1
73	73	4
50	50	2
197	217	4
115	115	9
14	14	5
47	47	3
34	34	9
227	227	5
87	88	1
222	239	3
91	91	2
1	1	6
203	207	5
181	182	2
144	169	1
208	248	2
57	57	10
207	207	3
171	197	3
28	28	7
236	236	3
39	39	5
61	61	2
61	62	2
214	238	4
17	18	1
203	203	19
205	205	1
197	197	2
109	117	3
247	247	2
242	242	4
108	108	2
163	167	1
52	52	2
158	158	5
162	171	2
165	166	1
165	168	3
238	240	2
24	25	5
12	12	2
16	26	1
200	201	2
114	114	7
7	7	1
100	164	1
64	90	1
85	85	5
178	189	1
219	219	6
170	170	3
211	212	2
223	223	3
38	52	1
151	151	3
1	2	1
56	59	3
55	56	2
210	210	4
204	205	1
184	184	4
213	214	7
89	102	3
115	116	3
151	199	5
160	160	6
180	187	1
182	191	3
51	51	1
214	214	5
202	229	3
19	19	6
199	199	4
216	216	3
156	156	6
72	73	2
206	207	2
152	152	6
95	96	1
102	102	1
43	116	3
84	85	3
152	163	1
94	94	3
2	2	1
118	118	2
190	190	6
77	77	3
54	91	2
65	65	5
169	170	2
30	31	2
10	43	2
45	45	2
231	245	1
154	154	3
174	179	2
78	80	1
96	108	2
39	62	8
175	175	2
99	99	2
89	119	1
215	215	4
113	113	5
150	151	1
228	229	3
59	91	4
171	171	6
26	26	5
192	195	4
162	162	2
60	61	2
200	200	1
211	211	4
193	194	2
33	40	4
186	186	4
74	75	1
75	75	2
93	94	1
201	229	7
38	38	4
221	222	3
188	188	4
189	189	2
87	87	4
246	246	2
172	172	2
186	191	3
121	121	3
209	211	1
119	158	3
117	117	4
86	108	2
164	164	6
18	20	3
6	25	1
31	58	2
69	69	2
198	198	3
86	86	4
196	196	1
153	153	4
234	235	1
46	46	2
32	32	4
37	56	1
83	83	3
86	106	4
100	101	1
41	41	1
67	67	5
179	185	2
48	48	4
177	177	5
169	169	2
212	212	12
145	145	2
163	163	1
221	221	4
35	35	4
47	48	1
105	106	1
88	88	2
192	192	1
41	46	2
113	114	1
246	247	4
155	155	1
231	231	3
17	19	2
222	227	2
228	228	1
199	200	2
10	10	2
238	239	3
157	157	3
202	202	6
56	56	1
46	114	2
234	234	4
54	54	3
247	248	4
22	22	1
84	84	1
180	180	2
172	182	3
66	245	1
103	103	3
173	173	4
248	248	2
15	15	1
112	112	4
99	100	1
72	72	3
74	98	1
159	165	1
96	181	2
166	166	3
109	109	2
40	46	1
95	112	1
71	73	1
64	64	3
11	22	1
209	209	1
71	71	2
185	185	3
23	23	1
14	65	3
95	95	2
59	59	2
17	20	1
159	159	6
235	235	3
58	58	1
106	107	4
48	57	3
158	159	1
157	196	2
151	161	1
65	66	4
226	226	1
241	241	1
196	199	1
110	110	1
27	27	1
190	192	2
111	111	2
93	110	1
152	216	1
102	103	2
217	217	2
90	90	3
233	233	2
66	66	1
197	198	1
166	167	1
78	78	1
182	182	1
167	167	3
43	43	2
213	213	4
119	238	1
221	227	1
150	150	2
97	97	1
109	115	1
183	183	2
18	18	2
228	231	1
211	218	2
119	159	1
245	245	4
220	220	1
161	161	3
149	149	1
235	236	2
184	198	1
103	104	1
4	5	1
90	102	1
3	53	1
239	239	2
210	211	1
105	105	3
204	224	1
118	166	1
89	116	3
31	32	1
14	29	1
150	155	1
54	115	1
193	198	3
21	22	1
176	177	1
112	236	2
44	44	2
220	221	1
73	81	2
53	53	1
240	240	2
62	65	1
37	40	1
96	182	1
48	50	2
21	21	1
37	37	1
189	192	1
244	244	1
237	237	1
93	93	1
74	97	1
114	116	2
204	210	1
31	31	1
44	45	1
5	5	1
191	192	1
62	62	1
