5	7	3
135	135	8
116	116	1
13	48	2
71	71	4
84	85	3
47	47	1
4	5	2
5	50	6
133	133	5
51	54	1
4	4	4
11	51	3
127	127	4
20	20	2
34	38	1
131	132	1
139	144	5
132	132	2
118	118	7
46	46	11
26	26	6
130	130	2
3	3	1
96	96	3
123	124	1
85	86	5
144	145	1
19	19	3
9	9	2
126	126	3
34	36	3
31	32	3
49	50	2
87	87	4
18	20	2
3	4	1
133	134	1
87	124	1
153	153	7
115	116	2
144	144	1
99	99	4
5	5	2
43	107	4
119	119	6
145	147	2
10	11	3
150	151	4
42	43	6
63	64	1
131	131	11
75	76	1
6	8	3
68	77	1
77	78	1
87	88	3
98	98	2
11	12	4
64	64	2
16	16	2
25	29	2
111	111	1
15	16	4
37	37	7
149	150	2
129	130	1
120	121	5
36	36	2
57	57	2
66	66	4
33	34	1
22	22	3
95	98	7
25	33	3
42	42	3
35	36	2
84	84	2
124	126	3
147	149	3
43	43	1
72	72	3
43	108	1
148	148	5
7	7	1
125	127	2
51	51	3
107	117	1
100	100	1
10	10	2
104	104	1
121	122	3
79	79	2
64	66	3
55	56	2
12	13	2
93	94	1
95	96	1
80	81	3
40	48	1
45	46	1
49	62	1
147	147	1
63	63	1
120	120	4
45	45	4
48	48	3
98	114	2
86	87	1
107	108	2
25	26	2
78	79	1
11	11	2
53	55	1
33	33	1
24	25	3
19	116	1
12	12	2
77	77	1
129	129	1
17	17	4
21	21	1
134	137	2
39	40	2
102	102	1
81	82	1
46	47	2
141	146	4
16	21	1
14	110	1
115	117	3
67	68	2
65	66	2
82	82	2
51	55	1
36	47	2
13	15	1
3	6	1
139	139	1
146	146	1
151	151	4
84	111	1
38	39	3
106	114	2
118	119	1
142	142	1
92	93	1
131	147	1
114	114	1
79	80	3
67	67	1
90	90	1
24	24	2
89	89	2
109	109	1
79	81	1
109	112	1
39	39	2
2	2	1
107	107	1
116	117	1
76	76	1
15	123	1
13	109	1
36	38	2
134	134	2
81	81	1
23	23	1
152	152	2
94	109	1
96	99	1
65	65	1
85	85	1
5	9	3
148	149	1
111	121	1
38	38	1
135	136	1
49	49	1
75	77	1
44	108	1
13	13	1
