64	64	9
34	34	11
31	32	2
49	100	2
84	84	5
50	50	10
73	73	17
31	31	8
105	105	8
94	94	12
101	101	4
35	93	6
101	104	4
98	98	9
48	49	10
78	79	11
47	71	3
25	25	11
23	81	1
92	93	2
79	84	4
79	79	6
23	24	3
77	77	5
33	33	13
38	39	5
26	26	7
76	93	3
86	98	4
84	86	1
99	99	5
54	54	17
85	87	6
91	91	12
71	72	5
52	52	7
57	57	8
86	87	5
23	23	13
43	43	6
76	76	6
59	59	5
44	44	5
97	98	8
62	62	15
65	65	28
90	90	6
51	51	11
101	102	3
84	87	3
96	96	8
102	102	7
65	66	3
27	27	3
41	47	4
56	56	10
79	80	22
71	71	10
78	88	6
76	80	3
87	87	4
75	75	10
100	100	16
82	83	5
63	65	3
103	103	17
33	54	2
83	96	2
77	79	3
88	88	11
86	86	4
21	21	6
25	47	7
36	37	3
28	28	5
100	101	1
70	70	7
81	81	2
70	71	4
28	42	1
35	35	4
78	78	6
79	95	4
57	58	5
25	26	3
29	30	3
47	50	2
39	39	3
87	89	3
46	46	7
25	29	2
46	47	8
68	74	2
74	91	1
66	66	10
38	38	2
60	60	11
24	24	15
26	49	3
49	49	3
95	95	4
74	74	11
57	59	3
72	72	4
53	53	8
32	32	7
60	61	3
73	86	1
61	62	2
42	42	5
95	96	6
69	70	4
51	52	9
47	48	2
90	91	1
59	60	4
46	48	1
34	37	6
64	66	2
58	59	3
27	29	7
83	83	2
29	29	5
58	58	11
62	63	2
68	68	1
97	97	2
26	30	2
52	56	4
63	63	7
61	61	5
75	81	1
53	54	4
89	89	2
25	46	7
35	39	4
104	104	3
55	55	8
92	92	6
59	65	3
47	70	1
67	67	2
76	77	4
85	86	1
96	106	7
92	94	3
93	94	1
66	67	1
55	69	1
69	69	5
29	99	1
82	82	4
40	40	1
85	103	2
107	107	3
24	28	5
32	64	2
68	70	2
67	68	1
63	87	1
41	41	3
53	55	3
74	75	3
70	101	2
68	104	1
35	53	1
44	72	3
100	102	2
22	22	3
37	38	3
49	51	3
21	61	1
80	80	3
20	21	4
65	70	5
81	87	1
82	86	5
36	36	3
41	42	2
61	75	1
88	89	4
97	106	1
43	50	2
26	27	5
51	71	1
30	30	2
88	90	1
41	44	1
102	103	2
42	44	2
63	67	2
97	99	1
26	47	1
77	91	1
34	38	3
43	44	1
28	30	1
39	51	3
47	47	1
81	93	1
67	70	1
77	78	1
104	105	1
95	97	1
78	87	1
70	94	2
91	104	1
25	38	1
67	86	1
33	34	2
79	94	1
50	73	4
54	55	1
85	85	2
44	45	2
106	107	1
39	50	1
25	37	1
96	98	2
67	71	1
30	37	2
78	93	1
45	46	2
97	101	1
77	94	1
55	56	1
38	44	1
57	68	1
84	96	1
78	94	1
34	93	1
32	92	1
98	107	1
20	89	1
20	20	1
64	67	2
45	45	2
27	28	1
64	65	2
40	41	1
76	79	1
97	100	1
49	50	1
