22	22	2
83	84	2
94	96	2
124	125	7
91	91	2
43	44	5
97	97	3
10	10	4
113	115	4
122	122	5
88	88	10
49	49	2
110	110	9
56	56	4
67	68	3
89	89	6
9	9	2
93	93	4
19	19	2
134	134	5
112	112	6
15	15	2
46	102	1
105	105	4
92	92	7
124	124	2
11	13	1
68	68	10
121	121	3
68	100	3
97	98	10
21	21	4
99	99	6
87	117	2
128	128	4
132	133	3
130	130	1
83	83	6
69	69	1
3	4	2
126	126	3
115	116	4
67	67	5
130	131	3
118	118	10
113	113	3
76	80	2
24	24	4
79	79	3
61	62	4
86	87	2
99	120	1
70	70	5
15	20	2
19	24	2
73	73	5
120	120	6
72	72	6
133	133	5
3	3	5
123	124	2
28	29	7
104	104	6
100	100	2
77	77	5
125	125	3
119	119	5
53	56	1
49	100	3
50	100	3
75	75	7
7	7	7
31	32	1
114	114	8
58	58	10
52	53	4
72	94	3
117	117	7
28	28	2
58	65	3
107	107	6
116	116	1
79	81	5
105	112	4
96	97	4
54	55	1
101	103	1
87	87	4
122	123	2
121	122	1
74	75	3
20	44	4
107	108	3
50	52	3
8	9	3
74	74	3
55	56	1
4	4	2
44	44	8
50	50	2
23	23	2
102	102	4
101	101	8
89	90	2
119	121	6
65	65	7
66	66	3
106	107	3
14	15	2
8	11	1
94	94	1
25	75	5
62	64	3
53	53	3
116	119	2
132	132	1
96	130	3
6	12	1
45	45	5
82	99	4
127	127	6
129	129	2
114	115	2
94	95	2
108	127	3
90	90	5
15	25	2
78	78	3
8	15	2
12	12	4
98	98	3
86	86	2
38	38	3
85	86	2
34	34	2
120	121	3
98	119	3
103	104	2
108	108	1
123	123	5
77	78	2
43	43	3
81	85	1
75	76	2
127	129	1
30	30	1
13	13	5
115	115	4
62	62	5
52	52	1
37	38	1
116	118	1
68	69	5
5	5	2
92	125	1
12	13	2
82	82	5
11	11	3
111	112	1
61	61	4
54	54	3
72	74	2
62	63	2
80	80	2
0	3	1
101	102	1
63	74	1
105	106	5
63	63	1
16	18	3
34	52	2
52	54	2
6	7	2
95	96	1
35	44	4
80	83	3
95	95	3
1	3	2
32	62	1
5	6	1
105	127	3
42	42	2
63	64	1
85	85	1
96	96	1
34	80	1
133	134	2
109	109	1
44	77	1
71	71	1
98	99	3
70	71	1
23	24	2
106	109	2
79	95	2
135	135	1
108	125	1
49	50	1
84	100	1
82	95	1
35	36	1
111	111	1
99	101	1
60	60	1
59	60	1
44	45	1
79	99	1
117	118	1
60	62	1
87	88	1
29	133	1
82	83	1
85	87	1
64	65	1
76	76	1
84	84	1
