71	71	6
120	121	6
75	80	1
14	14	8
62	62	5
102	104	1
4	31	3
74	74	6
60	61	4
126	126	12
32	32	4
111	114	5
50	50	9
104	104	13
76	76	5
89	89	9
118	134	2
119	119	7
64	64	3
122	122	11
105	105	5
1	3	1
75	75	9
97	124	3
126	127	9
120	120	8
68	68	9
18	18	10
62	64	5
95	95	13
99	99	9
65	65	5
98	98	12
15	16	5
122	124	3
112	114	4
49	49	5
85	85	6
103	103	11
91	91	12
86	86	7
90	90	5
94	94	12
34	34	19
96	96	5
109	111	1
124	134	6
61	61	7
67	68	3
28	29	3
77	105	2
114	117	3
101	101	9
124	124	2
1	2	7
73	73	6
102	102	3
47	52	2
12	12	2
129	129	12
79	79	15
20	37	4
63	63	5
115	116	5
31	31	4
128	129	3
2	2	2
115	115	10
63	80	3
84	109	3
120	122	6
113	115	4
49	54	3
24	25	6
60	60	4
45	45	12
82	95	2
114	114	9
108	108	11
22	22	7
6	7	4
84	85	8
82	84	3
80	80	11
29	29	9
116	118	5
11	11	6
134	135	8
132	132	2
111	111	3
92	93	8
59	60	1
5	5	6
121	121	6
132	133	7
96	97	2
16	17	4
127	128	22
113	113	11
95	97	3
5	6	2
125	125	9
131	131	1
61	64	5
83	83	2
82	109	2
112	113	1
78	78	4
77	88	1
71	72	6
133	134	3
9	9	4
117	118	8
53	53	4
66	67	6
47	47	3
21	23	2
69	69	10
35	36	3
20	20	9
52	52	5
111	112	3
38	44	3
56	56	1
53	59	3
80	81	2
53	54	4
7	7	3
59	59	4
107	109	6
132	134	2
56	57	3
33	33	2
130	132	3
82	86	1
36	36	2
70	70	7
85	125	2
15	15	10
130	131	1
62	79	4
13	14	5
76	105	3
6	6	3
84	110	3
100	101	3
78	86	2
100	100	3
125	130	4
81	114	3
125	127	3
128	133	2
26	26	3
107	111	1
60	80	1
86	122	1
13	15	3
23	25	4
59	61	2
50	123	1
73	74	3
131	132	2
112	112	3
24	26	1
27	29	2
57	58	5
98	99	2
55	86	1
24	24	6
126	130	2
82	106	2
75	76	3
83	84	5
123	123	4
107	107	3
110	113	5
110	118	1
61	62	2
82	114	3
65	107	1
128	128	5
75	101	2
99	102	5
55	55	4
97	98	5
8	8	5
27	28	4
3	4	6
77	106	1
63	85	3
11	25	2
25	25	2
118	119	2
71	73	2
9	26	4
95	124	1
116	116	3
113	114	7
100	119	1
11	13	2
21	21	1
87	108	1
45	47	2
71	76	1
19	23	5
70	71	1
87	87	9
107	108	2
26	27	1
5	8	2
126	133	1
30	31	2
4	4	3
93	93	5
126	134	5
54	55	4
92	121	1
117	117	2
106	110	1
111	113	3
131	133	2
78	106	1
90	92	2
8	9	3
53	57	1
50	80	3
13	13	1
34	35	3
83	110	2
85	108	1
14	16	1
71	80	1
67	107	3
10	37	2
127	127	3
30	30	5
88	89	1
77	77	5
45	61	1
75	77	1
31	34	1
82	83	2
106	106	6
48	48	2
114	115	2
69	87	2
86	87	1
10	38	1
7	24	2
118	118	4
82	82	3
52	53	1
95	112	1
68	108	2
87	109	1
0	1	4
97	97	2
49	52	2
94	97	1
66	106	1
44	44	3
123	124	8
58	87	4
74	103	3
87	97	1
57	57	3
118	122	1
55	56	2
122	123	2
106	109	1
38	38	3
134	134	2
89	93	1
91	92	1
58	59	3
68	69	3
135	135	1
109	115	1
116	117	2
48	49	1
66	66	1
0	0	1
87	125	1
106	107	2
81	81	2
117	122	1
112	115	1
57	59	2
121	123	1
86	110	2
72	76	1
30	69	1
19	25	1
27	27	1
14	15	1
7	26	1
77	79	1
75	131	1
69	107	1
107	110	1
43	44	1
130	130	1
57	83	1
0	3	1
