30	30	1
191	191	5
56	57	2
33	112	3
25	27	1
52	52	4
40	40	4
83	83	4
80	80	1
41	66	2
56	82	6
73	228	4
138	138	3
19	20	4
52	103	5
78	78	2
66	75	1
79	79	3
107	107	5
163	180	1
39	44	1
29	29	6
12	12	11
2	40	1
168	168	8
51	81	4
49	50	1
47	47	6
144	144	5
28	29	1
1	2	2
220	220	3
71	105	2
138	139	1
66	66	4
31	35	3
60	78	1
42	42	5
162	179	3
66	78	4
23	24	6
5	30	2
215	216	3
181	182	4
50	53	6
176	177	5
189	189	4
46	47	2
202	203	5
45	45	4
217	217	3
181	181	7
174	174	1
85	85	4
10	40	4
180	180	5
125	125	4
60	60	8
210	224	6
141	141	1
101	102	1
156	204	2
81	81	1
67	67	5
224	224	3
86	86	10
6	7	1
59	59	7
154	154	1
18	36	1
223	223	9
41	67	1
202	202	4
56	56	4
31	33	1
211	211	4
1	1	4
38	38	6
142	142	2
152	154	3
197	201	2
60	84	1
58	83	5
129	129	1
12	35	3
157	157	5
64	65	4
21	21	2
6	176	2
26	73	2
234	235	1
220	221	5
207	208	3
213	214	2
230	230	6
51	51	7
101	101	4
180	185	3
34	34	1
50	50	6
25	25	2
118	118	2
78	79	1
4	4	3
151	151	3
133	134	4
74	74	2
99	99	9
187	187	2
102	102	1
51	52	2
135	135	3
166	166	3
122	123	1
3	29	5
214	231	1
4	56	4
75	75	6
14	100	1
175	175	2
229	229	4
222	222	3
12	15	2
219	219	4
8	15	4
8	8	1
10	43	1
164	182	1
65	67	2
153	154	3
159	159	2
158	206	3
16	17	1
50	69	1
172	173	2
30	49	3
128	128	4
99	138	3
0	0	2
27	28	2
158	170	2
3	86	2
68	68	4
225	225	2
227	227	2
11	135	4
36	36	1
195	195	1
82	82	1
103	103	3
155	155	2
88	88	6
231	231	1
36	174	3
177	177	1
58	123	2
237	237	3
156	207	8
7	18	2
196	196	4
117	117	5
36	106	4
175	196	4
6	6	7
0	41	1
3	7	3
11	89	3
208	226	3
54	55	2
10	10	2
149	150	2
14	15	2
119	119	2
161	161	1
17	53	2
214	214	4
212	213	2
210	210	2
176	176	2
13	17	3
211	227	2
77	78	1
202	242	1
183	191	1
143	147	2
53	53	5
22	22	2
28	28	5
62	85	1
208	208	3
16	16	3
23	23	1
39	39	1
53	64	2
149	174	1
5	5	1
52	109	1
35	80	1
170	170	9
157	201	2
141	147	1
113	113	1
105	105	1
103	118	1
8	173	1
73	138	3
158	158	1
56	101	3
62	74	1
213	213	1
182	182	5
18	31	1
106	106	3
203	203	2
9	9	5
235	235	5
2	2	1
152	155	1
27	27	3
64	64	1
155	156	1
162	162	5
52	53	2
44	45	2
51	78	1
18	18	1
60	209	1
171	171	2
194	195	3
178	178	3
165	165	3
21	22	3
146	146	4
143	144	1
19	117	1
193	193	1
18	19	2
161	163	4
11	11	1
170	178	1
47	48	2
228	229	2
200	200	3
1	4	2
84	100	2
62	62	1
45	46	1
28	39	2
41	46	3
114	118	1
39	150	1
149	149	2
168	196	1
23	123	1
236	236	1
151	152	1
110	112	1
4	6	1
11	105	1
221	221	1
217	240	3
70	70	2
186	186	1
133	133	2
160	170	2
7	7	1
210	212	1
188	188	2
51	77	1
24	24	3
13	15	1
161	166	1
240	240	1
68	69	1
51	103	1
44	44	2
104	119	1
122	122	2
182	190	3
81	82	1
215	215	1
70	76	1
163	163	1
5	8	1
239	239	1
83	151	2
212	221	1
3	4	1
17	33	1
160	169	2
131	131	2
242	242	2
136	136	1
14	50	1
17	48	1
48	48	1
240	241	1
98	98	1
168	184	1
115	115	1
121	121	1
25	74	1
3	12	2
52	54	2
29	30	1
61	61	1
46	56	1
42	81	1
27	97	1
97	98	1
76	76	1
229	230	1
199	210	1
167	168	2
63	63	2
71	71	1
112	112	1
211	222	1
105	114	1
9	70	1
116	116	1
