91	98	2
10	33	4
34	34	35
54	55	3
12	13	13
60	60	50
77	77	34
13	13	20
62	63	11
20	20	24
90	94	1
35	45	9
98	99	9
104	105	13
26	26	29
95	95	27
83	83	48
17	17	18
37	38	8
104	104	11
73	73	37
85	85	35
61	61	26
100	101	15
2	2	27
44	84	4
29	29	43
59	59	18
9	94	2
34	35	12
123	123	38
25	26	12
34	82	2
63	63	37
26	62	2
68	68	25
64	64	37
22	22	11
30	60	10
35	35	40
132	132	10
7	101	4
124	124	17
35	36	23
85	86	14
45	45	59
131	131	9
39	39	10
21	36	4
14	14	32
83	84	9
67	67	19
132	133	8
16	16	23
47	57	1
118	118	25
115	115	11
27	27	25
111	111	22
84	84	19
37	37	11
33	33	39
76	76	36
102	102	18
129	129	24
5	91	2
120	125	9
114	115	6
72	73	15
72	72	39
47	96	1
65	65	26
17	74	6
3	3	17
46	61	3
32	33	20
41	41	8
47	47	64
13	14	8
18	18	40
33	34	8
93	93	22
31	33	2
89	90	5
128	128	15
40	60	1
94	94	51
20	119	1
46	46	41
46	62	7
98	98	8
16	130	2
106	107	4
90	90	10
71	75	8
78	78	34
97	97	6
92	92	13
32	32	33
102	108	1
29	30	9
36	36	36
57	57	7
125	125	22
6	6	10
13	75	2
44	45	5
62	62	37
117	117	11
31	31	24
33	45	4
70	71	7
119	119	27
10	28	2
121	121	13
74	74	31
11	26	3
44	48	3
75	75	32
57	59	6
133	134	8
20	21	12
94	99	2
82	82	40
21	22	14
16	42	4
19	19	30
105	106	4
65	67	3
109	109	8
131	134	3
81	81	13
75	76	8
121	122	20
62	75	4
43	45	1
125	126	3
28	28	26
78	80	4
96	96	20
7	7	35
122	122	9
118	119	9
69	69	34
86	86	19
15	40	7
12	46	2
41	42	11
63	87	7
91	91	9
39	43	1
87	87	13
49	50	1
70	70	12
48	49	5
100	100	9
23	39	2
59	62	2
66	75	4
28	29	21
116	116	29
30	30	17
88	88	17
36	42	2
8	9	4
40	40	10
51	55	1
78	81	7
105	105	11
11	17	4
102	105	1
60	61	9
2	3	9
18	43	2
127	127	15
55	58	2
27	28	7
25	47	4
44	72	2
38	38	13
64	75	5
40	132	1
111	112	13
45	64	7
58	58	17
101	102	9
58	59	8
66	66	34
11	11	67
75	78	1
48	48	11
14	15	7
45	46	8
15	15	25
6	7	7
108	108	8
40	43	5
27	29	5
46	96	2
12	12	38
121	125	2
82	83	15
38	99	3
18	80	1
80	80	8
102	103	1
0	0	10
17	47	2
43	44	9
71	71	22
24	24	10
5	5	21
57	58	8
3	4	10
36	43	3
93	98	1
27	98	4
29	59	6
21	110	4
17	18	11
29	31	3
67	68	9
29	49	14
99	99	21
25	75	1
68	77	3
19	35	2
8	8	40
13	130	2
84	85	1
99	100	5
36	37	6
66	101	2
11	93	4
35	80	2
4	90	1
21	55	1
54	60	2
35	44	2
110	110	16
96	99	3
84	88	1
37	39	4
107	107	13
126	128	6
34	79	3
35	38	1
63	64	9
46	47	11
69	70	11
65	66	6
5	90	1
21	21	21
43	47	2
56	59	9
50	97	2
130	130	10
126	126	17
13	17	7
94	100	3
108	109	3
10	12	4
43	43	9
14	123	1
93	94	9
83	112	1
9	9	28
45	48	11
42	81	1
19	20	9
21	113	1
71	74	2
116	118	3
4	4	14
71	72	5
63	73	10
46	122	1
30	115	1
46	94	3
23	25	7
34	80	3
67	78	1
55	56	6
49	49	8
2	12	2
35	42	2
77	112	1
27	74	1
68	69	17
57	79	1
39	42	2
77	117	2
113	114	2
15	16	4
95	96	7
112	113	16
27	80	3
77	82	1
84	92	2
26	32	5
4	5	6
40	51	2
106	106	6
26	27	13
25	25	16
40	41	11
21	37	1
92	93	5
64	74	1
113	113	13
27	48	1
128	129	3
7	8	8
25	48	3
9	118	3
31	59	2
83	97	1
92	96	3
86	87	10
77	78	12
38	132	2
96	97	9
58	85	1
8	96	2
20	22	3
23	23	14
130	131	10
105	107	2
46	70	8
4	6	4
126	127	10
103	103	6
112	112	17
64	65	5
78	109	3
27	81	1
4	94	1
41	58	3
80	85	2
74	75	6
10	13	4
74	80	4
70	77	1
47	58	4
123	124	9
5	6	5
119	125	2
124	130	1
110	113	5
11	13	6
49	91	1
47	75	3
27	79	2
56	56	7
67	81	1
54	54	1
10	11	6
15	124	3
81	89	2
90	92	1
120	121	8
76	111	3
76	77	15
39	40	4
5	8	3
123	125	6
23	37	1
24	82	1
87	88	4
0	1	2
88	91	2
42	42	9
83	113	1
44	44	11
98	100	3
97	98	7
38	41	2
76	83	3
133	133	6
31	32	12
25	121	2
38	131	1
56	57	4
83	101	1
20	29	1
69	78	5
101	101	19
120	122	6
93	102	1
86	88	2
109	113	3
74	77	2
79	79	7
10	10	32
24	122	1
64	73	2
70	76	1
47	48	4
78	116	4
77	80	1
104	108	3
26	47	1
11	12	6
81	115	5
55	64	4
109	110	10
82	109	5
59	68	4
35	77	3
89	89	1
17	20	1
27	32	1
9	10	4
84	86	2
11	48	1
33	117	5
131	132	5
81	82	6
94	95	10
104	111	4
104	109	1
78	79	6
36	123	2
28	83	3
110	111	8
41	43	5
62	64	1
80	81	13
134	134	2
101	103	1
12	69	1
116	117	9
121	126	4
17	19	3
111	113	5
28	80	4
22	30	3
30	31	2
119	120	1
4	96	3
7	25	3
3	102	2
40	42	9
127	129	4
33	77	3
2	10	3
66	67	4
48	82	3
16	125	1
68	118	3
88	90	4
10	90	1
104	129	1
32	77	5
2	125	1
129	130	7
127	132	1
20	113	3
68	78	3
115	116	4
2	14	1
61	72	1
16	126	3
26	48	7
28	79	1
24	26	5
39	131	3
101	113	1
63	72	2
51	56	1
1	1	11
60	68	5
72	75	2
25	82	2
66	83	5
70	119	1
28	90	4
83	93	1
41	59	3
0	26	1
11	92	4
20	122	1
18	19	4
27	91	1
68	75	1
12	26	2
45	97	3
27	30	3
103	112	3
78	93	4
103	105	1
3	101	1
7	83	2
32	35	4
45	71	1
84	97	4
117	119	1
24	124	5
62	66	2
79	80	5
2	101	1
122	124	2
80	110	1
118	120	1
48	85	1
26	36	2
3	10	4
3	16	1
103	106	1
21	44	3
70	75	3
29	55	2
131	133	2
120	120	6
26	35	2
25	33	1
10	94	4
17	68	2
16	19	2
73	83	1
59	60	5
117	118	2
3	9	2
27	33	1
44	67	2
92	95	3
39	41	1
44	78	4
62	74	1
16	45	4
68	85	1
45	47	2
124	125	5
17	72	1
73	74	10
2	9	1
76	112	3
42	44	2
46	124	2
114	114	5
85	109	1
25	85	1
88	95	1
28	49	1
61	62	4
13	124	1
35	64	4
29	111	1
4	97	1
60	77	2
90	97	1
1	2	3
22	23	1
23	24	2
29	61	2
43	59	3
110	116	3
16	40	1
95	99	1
66	78	2
49	55	2
36	39	1
77	93	2
95	101	1
76	78	2
49	100	1
61	84	1
76	80	2
77	110	2
123	129	1
30	49	1
27	93	2
126	129	2
83	94	2
33	118	1
70	118	1
92	94	1
116	126	1
2	13	4
105	108	3
18	122	1
120	123	1
29	115	1
7	65	1
85	87	1
16	17	2
109	114	1
45	73	1
57	60	1
26	59	2
20	75	1
37	42	2
62	73	4
3	93	2
45	74	1
87	89	1
7	72	2
31	60	1
91	96	1
82	94	1
66	70	2
19	43	1
28	31	1
5	93	1
93	95	2
68	80	1
10	14	2
64	72	2
27	76	1
17	36	1
72	74	1
115	126	1
127	128	1
41	85	1
102	122	3
2	82	1
58	80	1
64	71	2
106	108	1
35	68	1
117	126	1
78	117	1
60	75	2
55	55	1
20	35	1
80	88	1
95	111	1
37	124	1
4	27	1
51	51	1
82	95	3
5	92	1
82	111	1
6	8	1
58	60	1
35	111	1
77	79	1
103	104	2
82	114	1
69	118	2
55	60	2
56	78	1
48	95	1
17	45	1
26	60	1
15	39	1
79	115	1
96	98	1
74	76	1
45	96	2
70	74	1
76	82	2
12	61	1
59	67	1
35	69	1
50	50	2
8	98	2
121	123	1
20	110	1
7	56	1
130	134	1
109	111	1
47	62	1
81	85	1
128	134	1
46	81	1
26	81	1
9	14	1
30	78	1
20	28	1
112	114	1
32	117	2
72	77	1
28	76	1
77	113	2
90	91	3
10	122	1
129	134	1
96	101	2
23	32	1
36	111	1
101	110	1
13	46	1
85	88	1
26	122	1
66	73	1
78	88	1
19	33	1
82	84	1
47	97	2
82	98	1
83	86	1
35	113	1
24	25	2
34	62	1
22	26	1
3	94	1
45	62	1
116	127	1
14	98	1
60	92	1
21	23	1
73	75	3
126	132	1
25	92	1
32	55	1
1	13	2
17	43	1
83	95	1
18	59	1
16	74	1
49	77	1
7	34	1
24	27	1
63	71	1
18	20	1
36	40	1
113	126	1
21	56	1
95	102	1
3	14	1
9	12	1
91	92	1
7	21	1
8	28	2
77	81	1
89	95	1
5	87	1
26	79	1
12	17	1
6	104	1
16	83	1
44	68	1
34	47	1
35	97	1
39	132	1
98	126	1
59	61	1
9	11	1
17	27	1
28	34	1
28	35	1
4	92	1
