87	87	9
85	97	2
136	137	3
29	31	2
127	127	9
29	34	3
4	4	4
66	66	3
97	98	1
90	90	4
32	34	1
112	113	2
109	121	1
85	85	6
141	141	5
30	31	4
45	77	6
146	146	2
66	148	4
70	70	1
23	98	3
138	138	3
100	100	7
151	151	4
11	56	2
99	105	4
128	135	2
46	46	4
95	95	6
110	111	3
37	37	2
142	142	5
49	51	1
39	50	1
146	157	2
103	107	1
97	97	12
32	40	1
82	97	2
147	147	3
150	150	2
30	30	6
109	110	2
108	117	4
8	8	5
111	112	4
55	72	3
111	111	4
45	45	7
16	16	5
13	31	2
100	101	3
95	101	2
38	38	4
27	54	6
9	10	2
91	127	2
31	49	3
153	153	8
32	52	2
69	70	3
33	33	3
99	100	1
51	101	2
106	108	2
93	95	2
95	96	3
79	79	5
103	103	5
113	115	5
69	132	1
8	38	2
148	148	3
2	29	1
20	21	1
80	80	12
136	136	7
32	32	4
40	40	3
51	61	4
39	133	5
108	113	4
10	10	7
82	82	3
52	132	2
18	26	1
88	122	7
40	41	3
16	28	3
4	65	1
24	24	6
1	1	5
51	52	1
131	131	7
37	38	2
55	55	5
56	131	1
105	105	5
56	56	1
35	43	1
155	158	5
152	154	1
16	38	2
67	67	3
25	46	4
92	92	4
90	91	1
96	96	3
123	142	1
50	78	1
29	29	2
22	22	4
21	53	2
6	6	6
18	18	7
76	77	5
22	34	2
46	47	6
144	144	2
21	21	6
115	115	2
118	118	4
116	117	3
47	47	9
85	89	3
154	154	4
157	157	2
38	42	1
159	159	1
114	114	6
107	107	2
153	156	2
140	140	3
78	79	1
120	123	1
124	124	4
36	36	2
63	63	6
67	70	2
31	32	2
11	12	1
132	132	2
72	104	2
73	73	3
84	84	2
44	45	1
93	93	4
42	51	4
11	16	3
78	78	2
134	134	5
124	149	1
117	117	5
125	125	6
83	83	5
128	128	2
133	134	1
48	76	2
98	98	2
3	3	4
15	37	1
11	11	1
121	144	3
109	109	5
13	13	7
130	130	10
22	53	1
134	137	2
27	50	1
71	71	3
91	91	5
106	106	4
17	17	7
25	27	1
66	121	1
155	155	2
25	95	1
118	119	2
26	40	1
28	28	3
30	44	1
139	139	2
129	129	5
18	19	2
0	1	3
149	149	2
75	158	1
7	7	7
135	135	4
2	2	4
21	25	1
50	131	1
53	53	5
26	46	2
9	38	1
11	14	3
145	158	5
26	27	4
120	120	5
5	5	4
3	150	2
79	126	1
29	32	1
115	130	1
94	94	2
49	49	2
41	41	5
148	158	1
75	75	4
101	101	2
67	155	1
31	31	4
77	78	2
66	123	3
16	30	2
35	35	3
108	125	1
68	71	2
29	43	2
41	42	1
152	152	5
12	57	1
14	37	1
152	153	1
39	39	6
19	19	1
116	148	1
3	13	2
141	150	1
119	119	2
13	36	2
1	48	2
117	123	1
108	108	3
123	141	2
76	76	1
2	11	6
99	99	4
69	69	1
94	95	3
89	89	2
112	112	4
45	150	2
122	146	1
156	156	2
83	84	3
107	108	2
44	44	2
14	18	2
24	26	2
126	127	2
9	9	3
83	85	1
141	142	3
132	134	2
133	144	3
34	54	1
119	120	1
16	17	2
145	145	1
63	103	1
48	48	1
42	42	2
130	131	2
47	55	2
76	156	1
20	20	1
120	126	1
87	88	1
27	34	1
24	25	1
46	76	1
68	153	1
137	137	4
124	126	2
143	146	2
85	86	2
15	16	2
115	116	1
85	127	1
63	68	1
137	150	1
109	122	1
121	126	3
143	143	2
32	50	1
4	71	1
130	151	1
71	95	1
122	122	2
66	69	1
54	54	1
81	82	1
11	38	2
128	134	1
112	119	1
125	127	2
115	123	1
37	75	1
92	93	2
126	126	1
86	86	1
110	110	2
1	29	1
15	15	3
1	100	1
109	113	1
145	146	2
133	133	1
33	40	1
120	121	2
88	88	1
13	18	1
88	89	1
92	94	3
46	77	1
83	111	1
20	29	2
113	148	1
104	104	1
127	130	1
14	15	1
51	148	1
12	12	1
43	43	1
113	113	1
75	101	1
52	52	2
31	48	1
130	132	1
5	29	1
25	25	2
108	118	1
50	52	1
39	56	1
98	99	1
68	69	1
84	85	1
23	23	1
109	126	1
1	2	1
155	157	1
144	145	1
