98	111	1
63	81	1
17	18	3
54	54	5
139	139	1
24	24	6
11	15	2
105	105	1
53	53	6
77	77	2
22	22	3
39	39	5
79	79	3
24	25	2
47	48	1
13	15	1
19	19	2
129	130	1
112	115	3
77	78	2
56	71	2
5	11	1
112	112	2
50	53	1
3	3	2
147	148	4
16	16	4
86	86	1
69	69	2
18	18	1
8	11	3
113	130	4
152	153	3
124	138	1
4	10	2
35	36	1
41	41	2
31	32	3
129	129	2
81	99	1
92	92	1
8	8	5
97	99	1
110	111	6
146	146	3
47	47	3
82	110	1
10	10	2
69	71	1
141	142	1
94	94	2
122	122	1
92	138	1
57	57	3
21	21	5
132	132	2
73	73	6
28	28	2
84	85	2
88	136	1
49	49	4
124	125	4
99	99	4
70	70	3
42	42	3
10	21	1
107	107	1
121	121	1
131	132	3
126	128	3
124	124	3
128	128	5
75	77	2
5	5	5
39	40	2
48	48	3
7	8	1
110	110	1
113	113	1
29	32	2
108	108	3
83	120	1
82	99	1
98	112	2
14	14	1
72	72	1
28	29	2
114	114	1
37	37	6
50	50	2
94	99	1
120	120	1
74	77	2
102	111	1
62	62	2
24	26	1
127	127	1
23	23	3
85	86	3
147	152	1
106	109	1
68	70	1
102	102	2
93	112	2
42	43	2
123	123	1
30	30	4
101	102	2
27	42	2
84	87	4
81	82	2
67	67	1
95	95	2
107	111	1
71	71	1
78	78	3
50	64	3
75	79	1
131	131	1
134	134	1
51	61	2
148	148	1
45	45	3
23	24	1
107	110	2
98	136	1
103	104	1
56	62	1
96	113	2
120	122	1
38	38	1
34	34	3
88	88	1
29	29	2
75	75	1
100	101	1
133	133	1
64	65	2
140	141	1
120	125	2
109	114	1
51	51	1
12	25	2
100	100	3
150	150	1
4	4	2
90	128	1
68	68	1
137	144	1
38	40	2
125	136	1
86	87	1
76	76	1
130	130	2
142	142	1
9	9	1
31	31	1
97	97	2
51	57	1
80	83	3
74	114	1
63	63	2
111	112	1
140	142	1
64	64	1
43	45	1
83	142	1
73	74	1
65	65	1
12	12	1
132	133	1
25	27	1
29	37	1
25	26	1
147	151	1
51	62	1
