15	16	5
36	36	27
154	155	6
63	63	13
102	102	9
16	27	3
11	11	24
24	25	5
156	157	10
143	143	9
46	47	10
150	151	7
138	138	14
109	109	20
67	67	9
22	27	3
126	127	8
3	4	4
66	108	1
147	148	3
14	14	15
108	108	12
22	23	8
135	135	10
118	119	5
10	11	8
105	105	9
73	73	17
23	23	7
104	104	3
107	108	11
140	140	4
145	163	3
87	87	19
10	10	19
80	81	5
42	42	10
97	97	6
113	113	13
52	120	2
166	166	12
84	84	13
13	13	17
37	37	17
81	81	4
136	136	9
84	85	12
69	70	6
92	110	1
64	64	14
8	9	8
42	43	14
131	131	7
75	76	4
62	87	3
156	156	9
45	45	13
170	170	18
20	20	22
79	79	8
27	27	24
163	167	4
43	44	20
17	18	13
98	98	29
67	68	6
133	133	16
84	116	4
53	53	18
9	10	14
40	40	15
7	8	9
127	127	12
101	104	1
153	153	8
93	93	10
38	38	33
169	169	11
163	164	7
82	82	8
168	168	14
153	155	5
120	120	5
118	118	6
63	69	2
115	115	4
130	130	11
126	126	7
129	129	7
72	73	8
50	52	2
44	44	12
164	165	6
99	99	7
41	41	8
48	48	18
109	110	4
4	5	6
63	64	6
39	41	5
1	1	13
7	9	2
159	159	17
133	135	3
5	7	2
62	63	2
141	141	5
39	39	26
116	116	24
62	68	6
2	2	18
101	101	5
44	46	10
140	144	5
149	150	9
107	107	19
21	21	18
43	43	25
20	22	6
101	103	3
119	119	7
19	19	7
163	163	5
76	76	2
9	9	13
128	129	3
7	7	40
94	96	2
3	3	22
79	107	1
83	84	11
26	26	16
122	122	6
38	40	2
51	58	5
34	34	27
65	65	5
51	123	2
8	10	8
8	8	28
49	49	11
146	146	8
33	34	5
52	52	14
105	106	3
123	124	5
24	126	2
2	3	2
148	148	14
4	4	21
114	115	4
33	35	8
134	134	14
110	115	4
152	152	5
86	87	4
164	164	9
47	47	19
11	12	12
111	112	13
160	163	2
88	88	15
152	156	5
95	95	2
80	80	4
137	138	10
46	46	12
153	154	2
77	90	1
0	2	5
149	167	2
166	167	6
53	54	2
51	51	5
124	124	17
25	25	14
51	120	4
101	102	11
136	137	15
76	77	10
19	124	1
5	6	5
142	154	10
128	128	6
19	23	7
161	163	1
86	88	3
119	122	3
133	134	7
112	112	14
15	96	2
52	53	8
114	114	13
15	27	6
68	70	3
157	169	3
89	95	1
137	155	1
47	124	1
75	79	4
73	89	3
16	17	4
5	5	14
39	117	1
24	127	2
54	54	7
142	142	2
136	139	4
58	115	2
50	50	4
21	23	3
63	66	1
39	40	9
67	69	3
154	154	9
22	22	12
89	96	3
49	50	4
89	113	1
150	150	20
129	130	2
38	42	6
17	17	20
24	24	14
100	100	17
98	99	3
151	153	5
65	66	6
91	97	1
143	145	3
71	88	4
35	35	11
121	121	7
140	141	3
122	123	6
38	39	7
45	46	4
160	161	4
108	109	7
132	132	4
17	56	1
137	137	6
90	90	11
74	78	4
23	24	5
74	74	6
48	55	3
18	19	3
162	162	3
16	44	7
126	130	4
69	72	2
147	147	7
9	20	2
0	0	9
123	123	4
12	12	3
139	139	27
16	16	10
74	76	10
36	126	1
6	6	7
26	74	4
125	126	5
91	91	12
20	25	2
70	70	7
126	128	3
39	124	1
104	105	4
8	13	4
111	113	3
152	153	4
127	129	2
167	167	12
54	55	15
104	106	1
62	62	9
103	104	4
44	45	4
20	21	4
26	27	2
162	163	5
48	51	2
14	15	9
106	107	3
40	123	2
56	56	9
49	121	2
69	115	4
64	66	4
111	111	15
103	103	1
37	38	6
0	1	8
66	66	7
24	100	1
17	20	4
102	104	7
70	71	3
34	35	9
113	114	14
37	41	2
69	69	8
125	125	6
79	80	6
157	158	2
83	83	7
33	33	4
8	11	1
90	91	8
117	118	2
135	136	4
106	106	6
151	152	1
110	110	12
104	132	5
83	91	2
82	83	3
103	105	2
62	69	1
97	99	2
41	42	6
165	166	4
158	158	13
85	85	5
68	68	4
13	15	5
71	87	3
71	71	14
117	117	15
37	44	4
77	79	4
146	149	2
14	116	1
11	21	3
9	11	2
140	142	8
155	157	1
131	132	5
47	49	4
114	119	4
142	143	8
116	118	3
161	162	4
35	36	7
93	98	3
14	115	2
21	22	11
112	114	1
96	97	2
94	94	1
138	139	4
165	165	10
145	145	4
50	51	1
63	68	1
1	2	3
149	169	1
55	68	2
151	151	12
115	116	1
146	147	6
38	41	2
54	56	4
55	55	8
132	133	5
73	74	4
18	18	9
146	167	2
40	41	4
87	88	5
62	65	1
13	25	3
126	155	3
100	101	3
116	152	4
92	94	1
96	100	6
92	99	4
63	115	7
110	114	2
126	129	2
97	98	5
19	21	1
149	149	13
127	130	3
145	167	4
19	22	1
57	57	4
160	160	11
135	137	3
91	94	5
19	20	3
110	112	5
122	124	2
55	56	2
50	118	2
127	128	3
82	84	2
129	132	1
86	86	5
110	111	4
139	140	1
92	92	3
78	78	4
48	53	2
139	158	3
92	97	2
53	55	2
18	115	1
96	99	3
61	65	1
27	28	5
120	121	3
56	57	7
16	25	8
50	119	2
144	145	3
20	23	3
92	96	1
15	15	2
92	95	2
90	94	2
28	28	2
144	144	5
72	72	3
160	165	3
44	122	5
26	44	1
112	113	2
4	6	5
51	66	3
93	95	2
105	107	2
130	131	4
63	65	3
25	27	2
57	120	3
7	28	2
48	49	5
6	7	3
77	99	1
64	67	1
36	37	4
49	122	6
69	77	2
9	12	4
118	120	2
77	77	3
117	124	3
91	93	1
22	25	1
107	110	2
131	133	2
75	75	2
71	72	3
102	132	5
44	47	1
12	24	4
67	70	2
154	167	1
50	57	2
57	65	1
106	111	2
12	13	1
157	157	1
50	67	1
57	67	1
165	167	4
10	12	2
104	142	1
161	161	11
3	5	1
68	69	3
91	92	1
96	96	1
54	72	1
155	156	3
14	16	1
48	162	1
125	132	2
169	170	3
102	105	2
158	159	2
75	77	1
159	160	2
167	170	1
8	12	1
167	168	1
162	164	2
168	169	1
138	140	2
77	78	4
142	163	1
76	78	2
65	68	2
54	58	1
15	25	3
134	165	2
45	47	2
50	159	1
39	87	1
49	123	1
74	75	1
93	100	1
58	62	1
157	159	1
90	99	1
13	14	3
120	123	1
0	3	1
85	86	1
109	111	1
37	40	1
40	118	1
112	116	1
139	141	1
42	65	2
128	130	1
55	58	1
50	120	1
57	63	1
58	58	3
67	161	1
134	135	1
86	89	1
91	100	2
93	94	1
94	109	1
24	28	1
102	106	1
50	53	1
95	99	1
3	6	1
23	25	1
80	82	1
50	162	1
