3	135	1
10	11	12
4	4	2
82	94	1
31	51	2
6	6	4
125	126	8
37	37	5
108	113	2
31	32	5
110	135	1
16	16	6
40	40	8
115	141	1
139	139	2
43	43	6
129	135	1
11	11	3
116	116	8
146	147	8
23	46	3
70	70	11
64	64	3
51	51	2
32	32	5
139	144	1
132	132	2
76	82	1
109	114	5
19	19	6
39	53	3
68	85	1
49	50	4
48	96	1
93	93	6
136	138	4
73	84	7
26	26	10
21	23	2
120	120	7
13	14	2
41	41	3
36	36	4
10	15	2
151	152	2
87	87	5
94	94	15
127	130	1
37	38	3
33	33	3
127	128	1
21	39	1
12	13	5
8	15	1
139	147	2
18	18	19
121	122	2
20	20	5
3	3	8
37	44	5
78	78	5
154	154	3
75	94	4
76	76	3
95	96	1
100	101	2
47	47	9
129	129	2
36	38	5
74	75	2
77	78	6
152	152	2
111	136	1
39	39	10
115	115	2
14	14	8
143	150	2
84	84	5
35	35	10
104	105	5
98	99	9
22	23	8
63	63	8
136	137	8
23	42	1
9	49	3
46	46	11
5	5	5
38	38	7
131	131	2
129	130	1
2	24	1
120	122	2
141	141	2
20	21	7
120	149	1
128	129	3
8	8	13
111	134	3
119	119	4
69	69	3
124	124	2
14	15	4
48	48	7
96	96	10
54	56	2
56	56	10
150	150	14
139	142	3
113	113	2
48	53	3
13	13	8
12	12	8
62	63	2
72	86	1
65	66	4
49	54	3
5	6	4
85	85	5
55	55	9
94	95	6
30	32	1
147	148	3
119	124	1
105	105	7
24	24	11
96	97	7
61	66	3
18	19	8
32	99	3
144	147	3
115	117	5
103	146	2
133	134	2
144	145	3
81	87	2
123	123	5
98	100	1
138	139	4
45	45	8
144	144	4
71	73	1
113	114	4
15	15	1
41	42	1
103	103	10
66	69	1
138	138	1
144	146	4
67	67	12
89	94	4
118	153	2
79	79	3
130	130	3
75	75	3
66	67	2
97	97	4
80	80	5
22	28	2
42	42	1
56	72	4
143	147	1
47	71	4
131	135	4
116	140	4
126	146	3
106	111	1
4	104	2
10	10	3
93	99	8
36	62	3
141	152	2
57	71	1
99	110	1
74	74	1
121	121	2
75	90	4
102	124	4
27	29	1
90	90	4
106	123	2
109	113	5
118	118	8
81	93	2
83	97	3
111	111	5
82	108	1
30	30	3
10	27	3
151	151	8
153	153	1
134	136	3
29	29	2
28	28	1
13	47	4
130	146	4
53	53	5
83	83	3
100	117	1
15	17	1
38	43	2
62	75	1
106	122	3
44	46	5
135	136	3
71	71	1
39	43	3
81	81	1
54	68	3
150	154	2
111	145	2
148	148	4
111	124	2
139	141	1
82	82	4
92	112	4
48	64	1
30	31	5
50	50	6
73	83	1
31	31	4
103	141	2
114	114	2
25	69	5
7	24	2
135	135	7
5	27	2
46	47	3
9	9	5
18	21	2
119	122	2
85	86	1
73	87	1
109	109	2
41	43	4
77	83	1
123	125	1
73	85	1
81	88	2
149	149	4
7	25	2
69	71	2
94	97	1
42	43	2
97	98	4
7	7	4
14	17	1
32	34	1
98	112	2
141	142	1
65	65	2
54	54	3
99	101	1
49	51	5
117	150	3
44	44	1
96	111	1
133	133	2
62	64	2
78	82	2
127	127	1
87	94	1
73	73	1
73	74	1
107	107	5
70	96	5
124	134	2
143	144	1
49	53	1
112	113	3
33	80	2
21	21	2
26	43	1
44	133	1
121	124	2
46	131	2
21	31	1
82	83	2
77	79	2
137	138	2
36	54	1
93	97	1
38	72	2
17	17	4
78	83	1
134	134	3
72	73	2
109	110	1
53	55	2
8	26	1
117	130	2
92	99	1
66	66	2
139	145	2
110	111	2
41	149	1
89	90	2
129	133	1
50	52	1
90	99	1
112	112	1
147	147	2
95	98	2
68	83	3
49	49	3
64	88	2
92	98	1
124	127	2
67	75	3
108	122	2
7	20	2
50	51	2
65	72	1
68	68	3
56	57	1
80	82	1
109	118	2
34	34	3
142	142	1
28	29	1
19	20	1
108	109	3
99	99	1
65	73	2
22	37	2
63	67	1
32	33	1
17	18	2
89	92	1
83	86	4
8	27	2
64	76	1
25	25	1
54	55	3
5	7	1
126	126	2
64	73	1
72	72	4
49	101	1
100	100	1
58	67	1
4	26	2
81	82	2
137	137	1
9	47	1
11	12	1
46	71	1
33	93	1
134	135	1
24	46	1
4	146	1
111	137	1
7	18	1
8	9	3
47	69	1
69	70	1
102	129	1
110	128	1
92	92	2
114	128	2
142	150	1
42	134	1
122	122	1
21	38	1
73	118	1
105	113	1
99	108	1
110	110	1
8	18	1
10	25	1
75	79	1
114	141	1
15	16	1
23	38	1
111	143	1
57	58	1
47	55	1
114	117	1
137	139	1
86	119	2
140	154	1
103	104	1
51	58	1
