58	60	7
47	47	79
102	102	59
42	42	41
44	45	29
6	7	24
90	92	7
55	55	45
11	93	16
100	100	56
80	82	9
32	120	1
27	93	4
86	86	46
84	84	41
93	94	17
61	61	91
130	131	13
82	82	76
44	69	3
78	89	2
76	76	57
61	75	2
5	122	1
48	48	28
118	118	42
73	73	67
6	32	1
31	32	33
63	112	1
51	51	5
6	57	3
97	97	40
95	96	27
101	101	41
105	107	4
85	85	75
90	90	48
109	109	37
8	8	70
113	114	19
17	17	40
3	76	2
10	10	72
131	131	32
61	116	4
13	13	55
107	107	36
27	27	60
20	20	47
125	125	36
47	95	2
71	71	30
57	58	14
38	40	11
114	116	5
103	106	9
13	39	1
81	81	54
28	98	6
34	35	11
26	26	95
54	57	7
59	59	78
28	28	60
6	6	63
112	125	3
45	45	85
80	80	66
22	29	7
64	101	2
85	86	22
40	51	2
97	98	25
43	45	1
5	5	44
49	49	27
116	116	33
2	9	5
112	118	4
18	28	6
126	126	49
90	91	32
31	49	1
58	58	58
19	19	68
23	24	31
62	62	42
14	14	50
46	46	65
93	93	106
79	81	10
15	15	47
42	43	17
36	79	3
78	79	19
120	120	35
63	63	62
77	77	63
78	78	62
36	38	3
31	31	62
27	28	24
28	79	3
60	78	6
41	41	44
45	113	1
4	83	1
29	29	58
98	98	35
85	126	2
105	105	29
90	128	3
14	15	13
70	70	69
74	74	54
45	90	4
57	71	1
16	16	48
13	14	10
3	3	45
59	60	16
122	122	32
9	10	22
128	128	32
65	74	4
106	107	25
36	36	50
16	23	5
5	12	1
15	16	39
28	47	4
94	94	61
105	116	2
36	39	3
25	25	76
29	54	1
25	29	3
33	33	73
39	83	1
43	43	32
106	106	41
5	18	1
11	11	100
43	44	7
86	87	12
95	95	37
10	73	3
66	66	71
61	73	2
27	79	5
81	90	2
91	92	24
82	83	32
87	88	11
32	84	1
121	123	1
25	33	4
10	84	8
86	88	7
124	125	8
35	35	48
110	112	3
75	97	3
62	63	26
32	32	57
11	17	1
13	84	2
2	12	3
75	75	79
107	108	15
122	126	6
68	68	75
7	7	65
67	67	64
21	22	11
59	134	3
11	49	4
66	94	4
25	72	5
38	80	4
94	96	15
101	102	9
57	57	70
62	64	18
60	62	2
88	88	31
96	97	23
39	39	17
98	100	10
7	75	2
127	127	43
64	78	3
18	18	36
113	113	38
47	120	4
92	92	33
40	40	15
37	37	22
131	133	3
68	70	6
30	30	58
66	68	7
17	18	19
84	112	2
30	31	17
83	84	28
39	64	1
65	68	3
55	56	17
133	133	35
33	70	7
22	32	6
91	121	3
33	77	8
87	89	7
65	65	82
90	112	3
81	83	13
62	82	1
48	49	7
39	41	6
112	128	3
69	69	49
40	44	3
111	111	34
83	87	8
9	115	3
80	93	3
4	5	40
8	11	9
0	1	7
5	15	1
103	103	29
99	99	50
115	115	36
119	120	9
110	110	48
16	17	5
74	75	16
94	98	3
130	130	36
6	40	2
31	33	2
25	28	3
8	12	3
13	15	8
30	38	3
74	88	5
123	132	1
72	73	11
69	71	3
72	76	6
34	34	62
34	77	6
73	74	6
134	134	35
112	131	3
91	107	3
96	96	30
77	78	41
5	95	2
129	134	4
117	117	27
31	39	4
72	72	39
123	123	52
33	125	7
50	55	3
15	79	7
15	44	2
12	62	1
14	16	1
19	45	4
9	9	75
117	120	12
7	83	4
94	95	28
11	12	14
8	9	12
6	14	4
91	91	47
43	94	6
60	60	52
98	102	2
46	73	2
70	71	15
16	20	3
12	12	53
7	38	2
16	18	10
20	40	2
4	94	5
22	40	1
58	78	3
23	74	5
124	124	45
72	77	2
99	100	44
2	2	41
58	106	2
37	41	6
33	45	6
77	94	3
21	29	5
68	76	4
66	75	4
49	81	2
22	22	32
92	112	4
76	77	32
92	133	4
30	39	1
34	74	3
28	31	4
1	1	26
36	37	18
131	132	5
30	77	4
10	11	24
117	118	14
20	22	7
8	76	2
34	78	4
35	72	2
63	78	2
23	25	7
119	119	24
59	61	4
8	123	2
98	99	31
1	2	2
107	119	2
16	21	5
80	81	5
100	102	2
30	36	4
49	50	4
133	134	8
7	90	2
27	29	15
12	98	3
24	82	2
64	64	51
112	112	39
49	91	1
132	132	26
21	84	1
10	16	3
111	112	15
56	56	35
14	49	3
7	113	3
6	29	12
126	130	4
0	0	32
7	15	9
93	126	10
28	77	1
29	30	20
109	111	9
59	127	3
112	113	29
4	88	6
110	120	3
72	126	1
70	82	4
22	78	3
28	116	4
112	115	10
85	87	9
65	66	20
35	76	5
45	97	2
38	38	30
90	95	11
30	59	4
102	103	10
10	13	3
46	95	1
38	56	2
79	108	3
116	124	3
68	69	23
24	63	7
55	128	1
24	24	32
26	29	5
48	90	5
46	47	22
55	95	2
12	44	1
26	27	41
99	101	7
129	129	30
19	83	2
87	87	42
27	43	3
23	23	34
85	88	11
127	128	10
21	21	77
71	77	3
96	101	7
91	98	2
6	15	3
16	48	2
42	130	1
72	75	2
106	111	4
39	131	4
8	13	1
11	27	3
81	82	9
41	132	3
12	13	17
39	82	2
91	127	1
45	46	14
64	65	11
20	21	24
107	118	6
35	36	35
46	62	8
29	58	8
114	114	26
79	80	38
93	121	1
97	127	3
5	7	9
83	91	2
27	49	3
97	101	6
89	89	21
23	72	1
78	81	9
79	79	62
26	78	1
54	56	1
112	116	11
21	77	1
114	115	6
91	93	2
58	88	2
10	62	2
33	34	18
14	29	3
38	39	7
102	129	2
19	20	31
4	20	4
103	127	2
46	71	3
83	83	52
45	81	6
19	60	3
121	121	19
19	21	3
93	99	6
109	110	11
113	116	6
90	97	13
37	43	5
92	93	16
44	104	1
4	56	4
75	76	24
11	45	1
24	113	1
27	30	1
116	126	9
92	126	7
22	42	2
50	121	1
45	71	7
26	93	13
37	71	1
100	101	22
11	84	5
15	74	1
92	97	1
21	39	7
11	98	2
1	23	3
67	68	18
46	76	5
79	82	7
21	31	2
78	80	11
32	33	19
118	119	8
123	124	8
28	91	7
20	23	1
39	81	5
110	114	7
89	101	2
41	91	5
104	105	16
95	99	7
45	119	2
30	37	1
104	104	16
60	71	2
71	72	10
30	55	3
10	27	1
26	47	10
6	82	10
91	95	9
21	27	1
5	27	1
30	61	1
83	86	5
4	127	2
45	131	1
67	70	2
45	112	3
88	100	1
128	130	3
117	121	6
64	71	2
18	33	3
19	33	3
111	113	2
126	133	5
30	81	3
97	103	1
67	76	1
108	108	30
45	95	3
15	90	2
64	69	3
78	114	3
6	16	2
90	109	1
77	81	3
20	78	5
31	34	2
119	121	7
26	62	7
110	111	7
22	25	3
15	19	3
82	91	2
69	70	9
45	96	1
13	30	6
17	74	1
29	43	1
39	49	2
46	65	3
89	90	14
60	79	5
33	60	8
36	76	5
45	87	3
110	125	2
5	6	18
43	63	2
63	82	2
40	42	14
60	61	5
24	26	8
20	25	1
34	36	6
56	57	4
84	97	4
39	40	25
38	131	2
19	36	2
116	117	9
15	80	2
117	119	6
4	6	2
20	29	1
13	31	2
16	28	4
20	81	8
44	70	4
84	87	9
5	42	5
19	124	1
29	120	2
10	29	4
39	84	5
11	100	6
18	32	6
11	14	5
3	94	4
3	4	8
66	76	3
19	56	1
41	92	5
55	60	2
41	42	18
19	29	3
88	94	3
10	122	1
17	47	3
55	79	4
29	59	3
67	74	3
25	82	4
32	36	5
7	8	12
19	28	1
93	114	3
97	102	1
45	67	3
22	87	3
41	125	3
108	116	4
21	42	1
45	78	3
121	122	7
85	112	2
28	29	11
13	114	2
59	106	4
30	60	3
5	121	3
11	13	16
64	103	3
84	100	1
64	73	1
66	67	14
34	42	2
44	44	40
132	133	8
20	84	1
84	85	11
26	49	8
38	72	3
97	100	4
25	48	1
118	120	2
103	105	14
79	89	3
15	43	5
30	82	2
61	62	7
83	85	7
48	64	1
78	86	1
48	59	2
32	73	4
83	89	2
46	63	1
27	92	2
37	42	5
45	48	7
23	35	1
4	4	52
64	75	1
23	29	3
25	83	5
65	75	2
77	93	1
15	37	4
126	134	1
4	101	2
27	66	2
8	35	1
84	86	2
49	85	1
27	31	4
55	58	5
81	97	3
21	37	9
23	83	1
27	97	11
119	126	5
96	98	11
58	59	15
17	19	2
115	116	10
20	62	2
31	86	4
21	55	3
50	50	9
101	126	4
32	93	2
21	26	2
25	45	3
56	92	1
20	85	1
116	120	3
88	91	9
5	84	3
18	44	2
76	107	3
22	37	4
8	127	1
4	28	4
26	92	1
49	51	3
115	130	2
13	16	4
22	36	2
80	83	1
98	110	5
124	129	7
36	42	1
5	60	2
63	80	2
4	82	3
58	115	2
93	98	8
35	38	1
49	55	1
18	47	6
0	13	2
62	77	2
19	37	3
46	97	3
51	55	7
89	97	4
36	73	3
35	79	5
40	93	2
99	103	2
87	90	3
28	95	5
7	41	3
128	129	12
82	84	11
19	32	2
45	64	11
89	94	1
121	124	4
63	115	1
62	114	1
64	72	1
41	95	2
37	38	16
5	55	1
40	114	4
24	25	19
16	49	3
111	126	3
91	101	1
93	115	6
108	109	10
61	85	8
11	24	2
64	112	10
23	45	3
10	86	2
38	81	2
40	49	2
6	30	2
16	58	3
82	85	1
23	42	1
21	85	2
22	56	2
124	126	1
31	51	2
80	128	2
32	75	3
7	11	7
15	26	3
3	5	3
39	43	1
109	115	1
38	42	4
49	97	3
45	70	7
40	41	6
95	100	2
40	73	4
27	98	2
126	128	4
0	67	3
29	61	3
94	106	3
3	59	5
121	125	1
20	60	4
33	75	1
47	63	2
103	107	2
24	83	4
5	21	3
21	43	4
25	73	4
24	109	2
93	132	1
12	31	1
0	30	3
76	122	2
106	109	5
20	42	4
30	32	2
33	73	4
59	93	2
44	61	5
115	125	2
26	101	2
12	41	3
98	124	2
60	95	9
122	123	12
47	69	6
92	116	1
95	112	1
17	82	2
64	68	3
15	36	3
22	43	5
32	39	3
16	32	1
115	127	2
58	75	2
68	124	2
63	114	2
123	125	3
105	114	2
7	35	4
61	84	4
35	120	1
31	78	2
74	118	1
25	26	11
38	50	2
108	126	2
102	106	3
30	78	2
59	83	4
45	69	3
26	31	3
4	41	1
42	50	2
34	43	3
15	21	5
16	82	2
83	99	3
85	98	5
56	82	2
62	66	1
80	84	2
38	43	1
56	80	1
47	62	5
125	132	1
110	123	3
34	60	2
91	96	3
14	128	5
94	126	2
69	72	1
122	125	1
43	51	1
112	134	1
120	121	9
59	78	1
48	94	1
84	88	2
10	95	2
92	95	3
31	76	4
18	20	7
91	131	9
8	80	4
12	46	3
20	36	6
41	49	1
62	71	1
14	17	2
47	48	3
37	92	5
36	133	1
27	44	1
4	7	7
63	101	2
58	83	4
90	101	2
76	80	1
95	127	2
36	72	2
3	6	2
11	36	1
66	98	1
49	90	1
65	83	2
21	60	5
17	20	3
3	17	1
8	36	6
13	27	2
45	60	4
27	91	4
48	92	3
118	124	1
129	130	4
7	100	2
130	134	3
42	134	1
17	42	1
49	79	5
31	47	1
15	48	1
125	126	8
27	45	1
25	93	5
127	134	2
19	35	2
54	115	2
91	132	5
108	128	2
46	61	1
18	19	11
23	41	1
10	21	2
6	11	2
92	101	3
37	39	14
31	38	4
15	60	1
26	57	1
13	93	2
120	125	1
48	83	3
6	9	2
4	39	3
2	18	4
7	40	1
115	132	1
48	74	1
27	78	9
30	75	2
61	63	2
80	85	3
1	66	1
28	101	7
98	101	10
89	92	1
86	111	2
56	58	7
31	73	1
95	134	1
31	77	1
61	93	4
15	40	2
72	114	1
95	108	2
26	46	3
104	107	3
84	95	3
57	59	8
105	111	2
38	82	5
50	60	2
84	131	2
44	60	2
4	80	2
35	61	2
6	8	7
40	81	2
44	46	1
93	101	1
13	46	3
90	94	4
89	105	1
100	105	3
26	28	2
107	114	2
2	3	1
48	113	2
44	117	2
9	11	5
30	48	2
3	97	4
20	99	2
25	62	5
80	92	1
4	46	5
33	35	4
27	80	3
43	74	1
9	12	5
41	81	3
32	35	2
29	86	2
63	71	10
81	84	3
63	64	3
31	48	3
40	82	1
49	54	1
33	92	2
61	69	3
12	17	1
3	11	6
91	97	3
79	93	1
38	127	1
32	78	1
3	89	1
36	126	1
84	127	1
88	89	11
83	106	1
29	49	1
8	58	2
55	78	1
12	76	5
62	70	6
72	81	1
17	41	2
46	94	1
125	128	3
60	131	1
110	127	4
100	104	2
45	62	3
30	91	2
45	63	4
47	118	4
33	61	2
4	92	1
105	106	2
117	125	2
19	42	1
18	122	4
88	92	1
28	80	3
8	71	1
27	133	1
72	85	4
68	72	1
63	77	5
35	60	3
132	134	1
57	122	2
11	47	4
29	33	1
20	68	2
13	94	5
56	60	2
34	101	1
24	81	2
109	113	1
84	93	1
68	71	2
31	37	1
73	76	2
48	134	4
93	117	1
32	38	2
43	93	2
85	89	2
41	43	8
47	83	4
12	24	5
33	82	3
32	82	1
21	75	2
8	72	1
93	102	4
50	59	1
4	78	3
96	99	2
30	49	1
48	63	2
21	49	3
11	21	2
48	97	1
40	120	2
35	78	3
21	81	1
103	104	3
40	43	3
94	104	1
26	125	2
15	46	1
48	98	3
31	35	3
74	81	1
58	126	1
107	112	1
69	76	2
57	60	4
35	75	7
71	113	1
12	70	5
102	128	1
120	131	3
56	90	5
44	80	2
57	70	4
28	97	1
36	44	3
24	76	3
99	105	2
1	29	2
77	123	1
39	94	7
105	115	1
78	133	1
5	66	3
104	106	6
7	101	2
31	36	4
37	40	4
59	76	2
113	118	3
126	127	8
49	78	1
112	133	1
92	111	3
45	124	1
20	28	5
43	85	1
116	123	2
26	38	2
3	101	1
47	64	2
78	91	2
60	91	1
46	72	4
49	114	3
31	56	2
20	109	1
94	105	1
14	61	2
58	82	1
12	61	1
32	34	2
117	124	2
95	111	1
59	115	1
47	68	1
58	94	2
29	85	3
22	109	2
79	86	2
18	72	1
93	95	2
7	44	1
93	100	3
21	82	4
49	82	2
11	29	6
81	95	1
41	114	1
31	46	1
80	115	2
69	73	2
24	46	2
13	89	1
32	64	1
27	96	3
43	102	2
104	112	2
26	30	4
60	75	1
50	58	1
76	86	2
40	58	1
43	100	1
45	100	4
41	47	2
72	74	1
110	133	2
29	48	7
29	60	2
77	85	2
128	132	2
27	36	1
82	102	3
58	96	2
63	65	5
124	133	1
93	97	1
34	75	3
27	35	1
95	102	1
67	100	2
21	40	1
125	133	2
43	119	1
36	40	1
57	94	1
17	60	1
81	85	1
64	70	2
5	9	3
33	72	1
33	67	2
10	12	8
35	73	1
87	134	1
40	56	1
23	27	2
108	123	3
7	10	2
127	131	2
29	32	7
63	70	3
129	131	2
6	93	1
75	82	1
65	86	1
3	93	3
14	19	1
39	128	3
120	122	2
90	132	3
101	104	1
34	61	1
57	65	3
55	115	2
22	27	2
96	113	2
112	126	3
42	129	3
8	96	4
12	34	2
46	87	1
91	103	2
17	45	1
68	75	1
55	114	5
47	84	1
100	108	1
92	132	1
21	59	2
1	116	3
59	112	1
61	66	1
31	74	2
64	66	1
59	87	5
85	118	1
19	41	1
106	114	1
56	116	3
23	65	5
17	61	2
4	50	1
104	110	3
7	20	3
66	100	2
91	134	2
37	91	1
5	25	1
9	46	1
107	115	2
38	99	1
50	51	2
92	130	2
41	119	2
19	121	1
97	105	2
107	113	2
120	124	4
22	88	2
61	71	1
60	114	3
42	80	4
60	99	2
109	129	3
7	62	2
94	101	3
15	22	2
49	120	3
113	115	4
81	115	1
71	76	1
46	123	4
73	77	2
45	83	2
48	91	1
18	36	4
112	117	1
102	105	2
55	93	2
117	126	1
21	25	2
16	26	1
90	106	1
12	22	1
12	86	1
82	100	1
39	45	1
117	122	1
42	125	1
0	118	3
32	67	2
2	98	1
80	130	1
50	126	2
104	126	1
11	60	3
93	127	4
3	19	2
36	78	1
82	104	1
5	14	3
55	125	2
113	134	1
60	70	1
113	126	2
75	123	2
43	129	2
32	46	1
77	80	3
102	122	2
40	100	1
22	23	2
11	85	1
45	123	2
78	131	2
40	84	3
3	61	1
79	133	1
44	49	2
40	76	1
65	70	1
37	126	3
31	54	3
63	66	1
11	26	1
129	133	2
33	80	1
63	113	2
93	128	2
118	125	3
7	72	3
51	91	1
32	74	1
14	22	1
14	39	1
20	61	1
38	41	1
29	78	1
50	84	1
11	20	1
1	76	2
4	99	1
26	79	2
88	102	3
10	61	1
105	113	1
61	79	1
35	40	2
96	102	2
90	96	2
31	57	2
89	114	1
0	12	1
36	130	4
50	125	2
33	100	2
107	128	2
46	78	2
38	130	2
67	69	2
71	97	2
66	128	1
31	100	1
43	96	1
102	104	4
27	32	1
18	55	1
116	134	2
38	109	2
91	111	3
17	34	1
12	47	2
6	92	2
109	133	1
45	49	3
66	83	3
59	94	3
10	75	1
83	133	4
49	101	1
88	113	2
46	124	2
90	127	2
56	81	1
48	55	1
33	62	1
21	30	2
4	121	2
106	133	1
60	67	1
45	88	2
94	103	2
95	128	1
105	108	2
4	21	1
29	62	2
37	82	2
17	26	1
65	96	1
95	98	5
7	95	2
127	130	2
59	90	1
50	83	1
4	42	1
25	47	1
42	124	2
58	81	1
27	101	3
43	61	1
61	67	1
99	102	3
91	113	1
111	117	2
23	26	3
13	49	2
36	90	1
6	12	1
28	68	1
79	84	2
92	121	1
92	103	2
58	79	3
19	31	1
92	94	2
37	89	2
14	32	2
91	119	3
8	108	1
21	36	1
28	45	1
26	96	1
111	120	1
99	129	1
36	45	3
45	72	1
48	56	2
94	134	1
27	82	1
126	131	4
10	20	2
43	73	1
46	117	1
62	86	1
4	11	1
78	90	1
29	39	1
4	13	1
90	93	1
6	39	2
73	85	1
125	131	1
1	112	1
41	62	1
58	66	2
122	124	2
38	45	2
106	116	1
36	43	2
24	78	1
1	3	1
87	132	1
47	73	1
48	93	1
16	78	1
8	27	3
65	76	1
76	78	2
35	101	2
4	37	1
78	134	1
24	64	1
70	72	1
79	92	1
12	68	1
108	113	1
79	129	2
39	85	1
56	94	2
56	93	1
82	103	2
23	64	2
78	83	1
22	51	1
11	115	1
78	82	2
4	10	1
42	81	1
107	132	2
62	67	2
13	29	3
40	102	1
67	95	1
66	86	1
96	100	1
5	13	1
108	111	1
27	95	1
36	122	1
131	134	1
90	107	1
9	17	1
63	100	1
57	62	1
70	74	1
40	121	2
59	98	1
107	116	1
110	113	1
0	76	2
20	27	1
40	78	2
35	110	1
4	131	1
44	120	1
6	101	1
19	81	2
47	131	1
11	70	1
21	28	1
35	47	1
10	33	1
46	48	2
38	55	1
36	62	1
6	65	1
56	115	3
117	129	1
35	74	1
17	36	1
20	39	1
10	14	1
8	77	1
61	124	1
98	105	1
59	80	1
62	74	1
63	129	1
63	102	1
60	69	1
21	110	1
15	18	1
62	83	1
10	99	1
71	73	1
21	23	1
37	98	1
29	31	1
89	93	1
18	56	1
91	115	1
5	8	1
97	106	1
23	38	1
62	98	1
97	130	1
31	80	1
75	78	1
78	115	1
125	130	1
37	131	1
78	107	1
95	97	1
17	28	1
16	107	1
22	30	1
39	103	1
81	91	1
