205	206	7
94	109	3
82	82	3
48	70	5
185	185	10
28	28	5
115	115	12
10	11	2
159	172	6
70	70	10
196	196	12
114	114	11
147	157	4
111	111	14
12	14	3
58	103	1
235	235	8
165	165	3
12	12	6
163	163	5
188	188	10
173	188	2
42	42	8
181	181	4
183	183	7
205	231	1
84	84	5
96	96	6
50	50	2
207	208	2
153	153	8
200	200	11
211	214	1
147	147	1
29	29	10
3	223	2
165	166	2
239	239	10
179	179	2
180	237	1
192	192	6
203	203	5
60	100	6
8	8	10
208	208	12
79	80	6
54	54	3
114	156	3
92	93	2
46	194	2
44	44	9
237	249	2
210	214	3
218	218	7
193	193	8
98	99	4
230	230	13
99	99	5
158	158	4
77	77	14
163	164	1
209	210	4
87	88	7
167	168	2
98	98	5
111	112	2
85	85	9
71	71	2
214	214	5
218	220	3
60	101	1
212	212	11
182	184	3
157	247	4
90	95	3
34	111	2
87	87	2
197	197	5
211	211	11
65	76	1
62	80	3
93	93	1
184	191	2
103	104	5
178	178	3
99	101	6
173	175	1
194	194	14
65	79	1
47	47	9
35	49	4
217	224	3
179	182	3
243	243	5
205	205	7
18	19	8
210	211	8
225	225	5
155	155	20
108	108	4
42	43	3
174	174	10
246	246	4
88	88	6
220	221	1
61	99	1
171	177	3
195	195	1
209	211	2
32	32	3
240	240	9
173	173	8
9	9	8
67	67	9
19	24	2
151	151	4
112	113	1
56	57	3
7	7	7
3	226	3
62	82	1
106	108	1
40	40	12
209	239	3
24	24	3
43	43	3
116	118	4
6	6	10
210	210	3
193	194	9
61	61	3
56	58	1
38	53	3
190	190	3
165	177	2
151	157	3
170	177	3
147	158	2
94	98	1
11	11	6
175	177	1
46	46	11
176	176	8
97	99	5
19	34	3
56	60	3
66	210	2
16	16	7
184	199	1
247	247	6
182	231	1
66	69	1
202	203	5
65	65	7
159	159	3
199	199	6
154	158	2
213	214	7
169	169	1
71	72	5
187	189	4
232	232	7
52	53	3
243	244	1
16	17	2
228	228	7
58	92	1
172	183	2
241	243	1
2	19	3
244	246	1
10	10	4
190	192	7
43	63	2
62	63	3
19	19	5
101	102	1
170	170	3
244	245	1
208	209	3
172	172	2
245	245	10
159	160	3
164	175	1
117	117	2
157	158	5
180	180	6
174	190	2
20	22	3
212	214	2
172	174	2
78	78	6
91	91	8
187	187	1
107	108	6
87	89	3
49	49	4
187	225	2
36	38	2
193	204	2
103	103	1
89	89	5
186	186	7
159	164	3
221	221	9
212	223	1
69	69	5
245	246	1
118	119	8
36	36	7
209	209	6
112	112	8
201	201	5
112	244	1
238	238	7
204	204	4
27	27	15
22	23	7
1	10	1
77	78	4
223	223	3
94	94	3
60	99	2
209	213	1
110	111	3
73	73	8
47	48	2
191	191	4
215	237	1
236	236	4
26	26	7
221	222	4
58	60	2
226	226	7
233	234	2
219	219	5
57	57	8
152	152	3
213	213	2
164	164	4
209	212	1
109	110	3
163	177	3
200	205	1
146	147	6
208	210	2
71	88	5
65	66	7
191	218	2
241	241	4
104	104	3
186	187	2
67	68	2
198	198	4
234	234	6
25	26	4
150	150	10
177	177	7
3	18	2
97	98	1
20	21	3
49	50	3
181	184	1
145	145	2
101	101	3
156	156	10
110	110	3
18	23	1
14	211	1
215	215	5
74	74	2
192	193	3
100	107	3
58	58	3
34	37	3
114	115	3
37	38	3
170	171	2
116	116	5
176	182	3
89	92	3
72	72	4
237	237	3
208	244	10
171	171	5
64	71	1
97	97	6
162	162	4
76	76	10
4	5	2
74	79	2
84	86	2
208	211	3
167	167	4
216	218	5
66	203	2
35	36	1
37	55	2
106	106	1
236	237	7
170	173	4
116	119	3
33	35	2
189	189	11
63	63	7
32	33	2
65	67	2
101	104	4
68	68	6
152	153	2
180	206	1
2	20	1
191	195	1
105	105	7
184	185	4
95	95	3
218	219	5
184	184	12
222	223	5
207	224	2
182	182	6
53	55	2
96	97	6
30	30	3
80	81	6
106	107	6
180	181	1
198	199	3
164	173	2
20	20	2
113	113	8
107	113	1
146	146	3
120	145	1
39	40	2
183	184	6
181	199	5
102	104	3
182	183	3
148	241	1
166	166	4
192	216	3
157	157	3
61	63	1
211	212	3
178	242	2
5	90	1
22	22	2
109	111	1
61	62	1
83	83	3
192	242	1
149	150	2
238	239	3
34	34	6
7	8	2
211	213	3
152	159	2
162	163	7
206	229	4
189	192	1
62	62	2
242	242	4
55	56	4
201	202	1
17	17	3
102	102	7
60	103	2
173	186	2
184	193	1
239	240	3
192	194	5
25	25	2
209	225	2
75	75	4
222	225	1
90	90	3
179	180	1
88	89	4
45	45	3
207	207	4
95	98	5
92	92	8
160	184	1
101	107	2
1	2	4
113	118	2
100	100	4
86	86	3
52	52	7
163	172	1
226	227	2
48	51	3
185	191	2
223	224	3
3	3	2
188	190	3
53	54	2
229	229	2
22	24	1
216	217	4
222	239	1
144	145	2
48	191	1
2	2	3
100	101	1
175	175	5
64	64	3
228	229	1
87	90	2
248	249	1
2	3	1
185	196	3
6	8	1
51	51	2
21	21	1
65	210	1
178	179	4
120	120	2
220	220	3
79	79	1
229	231	2
28	155	1
51	52	1
194	216	1
60	60	1
59	59	4
231	231	3
165	172	2
48	69	1
227	228	4
1	1	2
150	151	1
37	54	1
194	246	1
14	15	2
37	37	5
111	113	2
56	56	1
104	109	2
235	237	2
144	144	1
229	241	1
185	227	2
217	217	3
49	77	4
24	25	2
193	207	1
190	191	2
169	170	2
55	55	4
198	209	3
120	237	1
81	82	1
181	230	2
153	156	3
113	114	3
30	62	1
243	246	1
27	86	1
68	69	3
2	223	2
31	31	2
119	119	1
107	107	3
224	224	1
162	165	1
23	23	1
68	215	1
222	222	3
114	154	1
166	167	2
191	192	2
56	59	1
206	207	2
106	109	2
215	216	2
35	38	1
44	45	1
233	233	2
38	38	1
63	100	1
28	41	1
110	114	1
74	75	2
111	120	2
80	80	2
176	191	2
56	61	1
107	109	2
62	106	3
240	241	3
172	173	2
158	159	2
36	59	1
73	75	1
73	78	1
217	218	1
61	107	1
199	201	3
103	106	1
197	218	1
65	202	2
197	210	1
61	97	2
38	39	2
41	66	1
190	221	1
224	225	3
86	87	3
21	22	1
166	174	1
194	196	1
113	119	1
237	238	2
234	242	2
14	65	1
181	242	1
4	12	3
85	96	1
37	39	1
118	118	3
168	168	1
109	117	1
186	210	1
15	15	2
93	94	3
204	231	1
84	85	1
198	205	1
154	154	1
213	215	1
53	53	1
63	64	1
76	77	1
237	241	1
4	67	1
247	248	1
240	242	1
47	195	1
112	152	1
55	57	1
38	50	1
223	226	1
179	230	2
174	175	1
175	181	1
59	216	2
3	228	2
111	153	1
186	214	1
93	193	1
18	18	3
5	34	2
66	66	1
21	23	1
4	4	2
160	161	1
62	83	1
199	200	1
161	161	1
242	244	1
176	192	1
107	119	1
20	24	1
48	49	1
112	117	1
65	77	1
168	169	1
172	189	1
69	70	1
60	61	1
107	112	1
27	52	1
196	197	1
41	41	1
204	207	1
40	80	1
163	204	1
48	71	2
227	227	1
239	241	1
54	193	1
153	154	1
