85	85	15
91	92	8
99	99	35
118	118	13
117	119	6
34	34	18
12	12	21
80	80	20
27	27	5
78	79	4
116	116	29
32	32	11
33	33	12
30	30	27
79	79	20
59	59	21
87	107	2
83	84	20
119	120	6
119	119	14
87	87	21
2	25	5
63	63	15
120	120	14
9	84	1
108	108	10
100	100	29
95	95	25
16	16	13
91	91	22
114	118	4
70	70	21
127	131	5
35	93	2
112	112	29
127	127	23
71	71	7
120	121	9
23	23	17
74	74	28
114	114	18
73	74	19
111	112	11
121	123	9
35	35	19
99	100	6
64	64	20
97	101	3
66	68	8
94	94	9
11	11	13
58	58	12
104	105	6
123	127	4
28	61	1
81	81	24
117	117	11
32	33	13
134	134	23
77	77	27
99	102	1
125	126	3
82	83	18
43	49	10
8	8	3
69	70	6
68	69	2
47	47	12
30	31	2
28	28	9
112	113	10
16	20	1
76	76	41
88	106	1
103	128	4
54	54	3
126	126	16
52	64	4
44	44	19
94	118	13
116	133	3
89	89	9
106	106	23
5	5	21
79	80	6
62	63	14
49	94	1
60	60	15
52	52	7
129	129	14
55	55	2
107	107	10
0	0	4
97	97	22
127	128	9
55	61	2
95	134	3
73	73	16
98	98	30
17	17	10
18	18	9
55	57	4
68	68	22
65	68	5
102	102	17
117	123	1
105	106	3
128	130	5
72	72	20
65	66	8
135	135	4
96	97	7
88	88	14
47	120	6
59	102	2
55	60	3
56	56	11
23	24	7
24	26	10
104	104	21
36	43	1
61	61	8
62	62	15
104	134	3
125	125	10
84	84	6
83	85	5
21	22	2
14	15	9
90	90	42
7	8	2
24	24	13
128	128	11
31	31	17
133	134	4
50	50	21
93	93	21
88	89	9
83	83	10
92	118	1
124	124	17
67	67	5
95	118	2
1	2	4
43	43	12
47	72	3
105	107	4
120	124	1
42	42	3
74	76	2
86	86	8
113	113	18
71	73	4
67	117	2
21	21	28
25	25	15
46	120	1
106	110	5
78	78	13
119	122	1
96	100	2
72	73	3
106	109	1
122	122	11
117	130	2
91	114	2
13	33	7
3	3	5
111	111	24
6	6	14
32	35	2
83	87	4
126	134	3
133	133	24
116	121	5
14	37	3
35	89	3
19	19	9
115	115	18
92	126	1
101	101	29
66	67	6
36	44	3
49	66	1
69	69	7
86	87	2
48	70	3
75	76	2
110	111	21
60	62	2
21	24	1
97	124	6
4	5	8
64	65	8
121	121	11
49	71	4
51	69	2
103	103	13
84	85	6
9	86	1
23	89	3
114	115	8
54	56	6
36	36	9
16	29	2
123	123	14
57	57	5
13	13	16
25	27	4
106	122	4
105	105	10
48	48	4
115	116	4
53	57	1
130	131	11
60	61	6
132	133	7
69	101	2
17	29	1
65	65	11
36	94	4
77	79	6
74	93	2
1	1	12
18	27	1
29	61	1
117	118	9
103	104	5
18	20	2
45	45	7
67	119	2
76	77	3
128	129	15
112	114	1
22	24	3
15	15	19
133	135	5
67	85	6
20	20	6
50	51	2
22	22	5
8	9	3
75	75	19
64	112	5
100	135	2
92	95	1
66	66	12
0	12	3
131	131	9
95	133	5
21	79	3
100	131	4
123	125	5
13	36	2
103	127	4
100	101	7
94	95	2
103	105	1
82	84	3
38	38	4
37	37	9
128	131	3
117	122	3
63	64	2
10	10	4
7	7	12
21	23	1
42	43	1
75	77	3
34	35	4
43	70	1
29	29	19
27	28	3
92	105	4
109	110	5
124	125	6
103	115	3
54	60	3
57	76	4
97	102	2
44	45	7
61	80	1
24	25	5
98	99	3
113	114	6
4	4	8
106	112	3
87	120	1
82	82	3
92	92	5
49	69	2
26	26	3
6	12	4
43	51	1
82	87	2
14	18	2
108	129	2
29	32	3
120	123	4
49	49	2
50	62	4
91	132	1
2	2	7
46	47	1
97	98	5
71	72	5
126	127	11
92	120	2
75	88	1
90	91	1
54	55	3
69	93	2
105	126	2
56	76	1
101	102	4
108	131	1
80	81	6
6	71	3
16	17	4
38	96	1
127	129	7
45	69	6
96	96	9
51	51	1
37	43	6
2	3	2
49	59	1
28	29	3
35	36	1
118	120	3
43	44	2
52	53	7
118	123	1
91	130	1
57	58	3
96	125	3
111	119	3
70	74	1
14	23	3
3	5	3
64	68	5
105	112	2
53	54	3
38	92	3
50	61	1
7	13	1
107	122	1
56	57	5
130	130	6
29	30	3
36	69	1
6	7	5
17	62	5
82	85	1
87	88	2
120	122	1
32	71	1
38	68	1
31	87	4
53	53	10
37	38	5
68	94	1
106	115	1
102	103	6
101	105	1
74	77	2
95	120	1
80	108	3
110	110	6
101	127	2
122	123	4
75	84	1
51	52	3
0	1	3
106	108	1
13	14	3
127	130	2
113	116	2
101	103	2
13	30	2
45	46	5
50	59	1
116	117	3
80	106	4
63	75	1
92	103	1
109	109	5
64	81	2
43	73	6
131	134	1
37	94	3
30	33	2
132	132	6
77	108	1
66	82	2
99	101	2
63	69	1
122	126	1
92	93	3
15	16	2
25	26	2
131	132	1
22	23	2
26	27	1
15	27	2
56	59	2
10	11	3
98	120	2
111	118	1
50	63	2
117	126	1
58	59	1
8	33	2
108	122	2
19	49	1
109	132	2
12	33	1
68	85	1
107	108	2
92	130	2
117	132	1
54	79	1
92	122	2
93	105	1
111	124	1
12	13	3
89	90	5
30	32	2
61	62	3
107	115	1
49	50	4
14	14	1
11	12	1
95	96	2
92	102	1
36	42	2
1	13	1
84	87	2
129	130	2
101	120	1
101	130	1
85	88	3
19	20	1
47	51	2
31	33	1
15	59	1
101	119	1
21	33	1
49	51	1
62	64	2
60	76	2
90	93	1
93	102	1
64	67	1
92	117	1
95	100	2
14	34	1
0	2	1
122	124	1
96	98	1
131	133	1
122	125	2
13	15	2
95	117	2
65	67	1
33	34	1
33	71	1
91	103	1
107	109	1
105	127	2
108	109	1
99	120	1
53	60	1
22	89	1
89	93	2
118	119	1
36	45	1
64	77	1
63	87	1
