88	88	6
2	2	5
110	110	3
120	120	3
112	112	13
28	28	8
20	22	1
74	74	7
50	50	8
15	15	5
49	50	7
26	26	7
82	113	1
82	100	3
91	91	5
120	121	1
124	124	9
20	21	1
29	33	2
87	87	11
0	0	2
67	67	2
86	87	4
53	54	2
78	78	7
90	90	7
53	53	7
37	37	4
105	106	1
60	60	13
130	130	3
81	100	2
71	71	13
84	84	4
80	80	6
35	35	5
47	49	6
93	93	14
102	102	1
24	47	1
6	30	2
22	22	1
47	47	7
94	95	5
93	104	1
1	1	4
43	43	5
116	116	7
75	75	9
77	77	6
113	114	3
56	57	1
101	101	8
133	133	7
28	29	3
89	90	3
79	79	5
30	30	5
27	27	2
121	122	3
42	42	3
55	56	2
51	51	3
48	54	4
76	104	2
4	4	2
70	70	7
123	123	4
72	72	2
134	135	3
52	52	2
79	96	3
44	47	1
38	38	1
29	105	4
66	66	4
28	63	1
100	106	1
78	79	5
6	6	4
106	106	2
128	129	1
111	114	1
18	18	2
32	33	1
68	68	4
82	82	4
45	45	1
79	80	5
93	103	1
73	73	5
95	96	7
113	113	3
71	74	2
10	10	4
57	57	1
69	70	2
100	100	4
81	82	2
64	64	2
115	115	5
26	65	2
2	3	1
12	22	1
131	131	2
122	122	4
119	119	3
20	20	3
94	94	2
4	7	1
3	4	1
114	115	2
34	35	2
15	26	1
105	105	8
48	48	1
59	60	5
11	11	1
63	63	4
72	73	2
119	123	1
132	132	2
112	115	2
119	124	1
132	133	1
52	53	5
76	76	5
73	74	4
6	29	2
49	49	2
95	95	3
135	135	2
114	114	2
92	92	5
25	25	2
8	8	1
80	101	3
71	93	2
126	127	3
38	62	2
118	118	4
103	103	6
83	98	1
84	91	1
63	67	2
24	25	2
99	99	1
19	19	5
95	104	3
107	107	1
5	7	1
11	24	4
44	44	1
78	109	3
113	115	2
44	53	6
91	92	3
77	78	3
16	17	3
55	59	1
111	111	4
69	69	2
85	85	1
69	76	2
23	23	3
108	108	1
36	37	1
91	115	1
79	97	3
96	96	2
11	13	2
61	63	1
7	8	1
60	61	2
62	64	1
100	113	1
13	13	2
36	36	1
27	45	1
15	25	1
56	56	2
129	130	2
90	104	3
117	123	1
101	106	1
121	121	4
67	68	1
80	99	1
128	128	1
124	125	1
29	30	1
80	81	4
3	5	1
106	107	1
28	33	2
33	33	1
55	55	1
50	52	1
85	86	1
7	36	1
91	93	1
77	80	1
11	33	1
134	134	1
117	117	2
17	17	1
104	104	3
25	29	1
124	129	1
70	71	3
119	120	2
129	129	1
89	115	1
125	125	1
81	81	1
32	32	1
62	62	1
106	109	1
23	27	1
16	16	1
45	47	1
83	108	1
