81	81	13
48	48	19
33	34	4
36	38	1
53	86	5
65	65	6
69	69	14
60	60	19
87	88	8
63	99	3
100	100	12
89	90	1
45	61	4
39	39	9
86	86	11
61	61	14
41	41	32
46	98	5
96	96	17
31	31	12
92	92	13
38	38	7
71	71	14
80	80	10
59	60	10
35	35	11
64	64	21
83	83	11
45	56	2
73	73	13
62	100	1
68	68	14
29	29	6
79	102	3
77	77	28
23	23	2
72	72	12
89	89	11
24	25	1
53	87	5
93	93	14
46	52	3
63	63	19
57	57	20
78	78	17
99	99	21
99	100	8
62	62	10
44	65	2
96	97	4
45	45	15
79	79	14
44	44	16
51	51	12
44	55	1
50	50	12
70	70	19
30	38	4
22	22	8
54	54	14
95	95	15
67	67	27
70	71	5
52	52	15
62	63	6
51	78	2
87	87	6
79	80	7
62	79	3
82	93	2
44	63	4
53	53	17
58	58	24
55	86	1
84	84	14
40	40	7
56	56	8
97	98	4
43	43	8
27	97	1
83	84	8
74	74	22
43	67	3
92	93	4
90	90	12
34	34	3
85	85	2
76	76	9
59	59	8
47	53	1
95	96	5
72	73	7
66	66	13
35	101	7
31	32	1
32	77	2
77	78	5
58	59	2
58	77	4
37	80	2
50	62	1
55	55	9
85	90	1
36	36	7
76	77	1
55	100	3
75	75	15
78	79	7
26	28	5
53	80	1
86	97	2
26	26	18
27	28	4
44	51	4
27	27	16
37	83	2
67	91	2
47	47	4
35	48	2
41	42	3
40	99	1
37	37	1
25	45	1
91	91	15
44	62	2
36	54	4
101	101	11
83	88	1
58	66	1
37	38	7
45	53	2
41	60	1
81	94	4
83	93	2
98	98	8
85	96	2
25	25	4
68	70	8
45	90	2
46	53	10
61	62	5
24	24	5
94	98	3
88	89	3
35	58	1
42	42	4
94	95	9
26	98	1
49	50	3
98	99	5
41	64	4
25	99	1
100	101	2
97	97	1
46	46	3
34	78	3
94	94	4
73	74	3
23	29	1
64	65	2
85	86	1
24	78	1
30	48	1
70	91	1
45	52	2
99	102	2
64	70	2
49	90	3
91	92	1
72	74	2
81	92	1
66	68	2
65	66	3
36	99	2
45	85	2
92	96	1
56	57	4
40	41	3
80	81	2
85	91	4
65	101	1
52	54	1
47	87	3
26	45	1
39	86	2
49	51	3
82	82	1
45	55	1
32	37	2
32	33	3
52	60	5
39	99	2
26	47	3
86	87	3
53	79	2
53	83	3
28	89	2
67	68	4
25	100	2
57	99	2
57	71	3
49	49	3
51	52	3
67	75	2
102	102	1
81	82	1
62	101	2
41	57	2
84	97	1
52	59	4
35	60	3
40	93	2
84	92	1
53	54	4
81	83	1
56	59	2
57	78	3
41	59	1
23	28	1
92	98	1
56	63	2
55	56	1
63	64	3
20	20	2
69	72	1
73	77	2
34	36	1
63	78	1
35	37	2
39	87	2
48	49	5
36	46	1
49	55	1
33	33	2
68	69	2
46	47	1
47	48	1
45	89	1
25	26	3
90	91	1
87	89	3
40	92	1
45	46	1
54	55	1
65	70	1
38	55	1
34	35	1
47	62	1
80	99	1
45	99	1
