103	103	6
69	70	4
32	32	12
126	127	9
140	146	3
31	33	4
143	143	3
117	117	6
98	105	1
8	9	2
25	26	1
105	117	2
55	82	1
133	133	13
67	67	11
81	81	7
105	105	6
138	138	8
15	33	1
40	47	3
70	70	12
97	98	5
56	56	3
83	83	5
18	18	6
87	87	5
65	106	3
113	117	2
66	66	2
20	27	2
85	117	1
114	114	10
106	106	5
79	79	11
5	5	7
123	123	12
112	112	8
97	109	4
128	128	9
34	40	1
98	99	4
92	94	3
17	17	8
24	32	2
15	15	7
102	102	2
136	136	16
104	104	4
134	134	6
93	94	6
25	25	12
93	109	3
121	121	10
63	70	3
91	91	4
65	65	4
137	140	1
144	144	3
63	63	3
141	141	5
24	24	7
99	100	2
29	29	13
136	139	1
85	112	6
131	133	2
11	11	2
64	64	10
122	122	14
60	115	4
113	113	4
71	81	5
96	96	12
33	123	1
40	40	4
110	110	3
124	124	12
41	47	2
66	70	3
111	111	8
119	119	10
56	59	1
13	33	1
142	144	1
38	59	3
55	58	3
142	143	4
68	69	3
14	14	5
27	27	8
23	28	1
98	98	4
111	117	1
67	68	4
61	62	4
137	137	3
59	59	6
41	122	1
84	84	8
97	97	5
69	69	6
140	140	8
86	86	1
139	140	2
0	38	4
6	9	2
23	31	2
131	131	7
135	139	3
39	40	1
127	130	2
14	15	1
1	40	2
140	141	4
57	58	2
102	144	4
52	53	3
65	66	3
118	119	7
36	36	10
138	140	2
13	16	3
121	124	1
23	24	7
2	32	4
19	19	4
130	130	6
42	42	7
41	105	3
74	74	4
54	54	2
43	43	3
9	9	7
8	8	1
78	88	1
10	10	6
109	112	4
49	49	6
38	38	9
95	96	1
117	121	4
72	72	4
2	2	2
47	47	3
121	122	3
23	23	6
116	118	1
56	66	1
96	106	2
132	132	3
73	73	1
72	74	3
116	117	2
37	37	4
66	74	2
95	95	6
79	80	3
1	1	6
3	36	4
20	26	2
57	57	4
139	139	1
101	101	4
113	114	3
15	16	3
120	120	5
14	27	5
92	92	3
28	28	1
123	124	1
121	123	1
50	50	8
89	89	5
66	67	1
116	127	4
52	123	2
75	75	6
18	19	2
8	36	3
20	23	2
68	123	1
88	138	4
56	65	2
48	48	3
127	127	3
14	26	1
11	34	2
65	109	5
41	42	1
26	26	4
62	62	2
133	135	1
40	41	1
8	19	2
99	99	4
34	35	2
134	135	1
53	125	2
82	85	2
4	4	2
34	38	1
48	89	1
50	51	5
136	137	3
3	35	2
107	109	1
76	77	6
50	131	1
80	89	2
90	90	10
109	110	3
60	64	3
33	35	3
104	134	1
51	51	7
3	33	2
0	0	4
85	85	6
145	145	1
111	129	1
100	100	3
20	20	8
125	138	2
85	86	2
91	108	1
21	26	2
5	32	4
71	71	3
10	119	1
98	118	1
33	33	3
82	99	2
32	33	1
0	68	3
108	132	1
114	115	1
118	118	3
66	102	1
92	136	2
62	84	1
65	133	1
31	31	1
32	121	1
126	131	3
30	30	2
39	39	2
4	5	2
115	116	4
36	39	1
13	13	5
114	125	1
56	62	1
75	85	2
111	112	1
73	74	2
136	138	1
70	71	1
76	76	2
30	56	2
130	134	3
94	96	2
84	85	1
94	95	1
66	95	4
58	66	2
21	21	5
68	71	4
111	132	3
36	37	2
1	3	2
92	137	1
79	84	4
135	135	3
83	84	2
67	115	1
78	79	1
59	125	1
93	136	2
58	59	1
110	111	2
10	11	3
135	136	3
12	16	1
8	42	1
35	35	3
22	22	3
112	114	3
107	136	1
56	63	4
69	110	1
132	133	1
34	48	2
37	54	2
12	13	1
140	143	1
0	51	2
109	109	1
8	10	1
143	144	2
3	3	1
126	134	1
3	118	1
9	34	1
88	93	1
6	6	3
126	144	1
58	58	2
14	130	1
52	54	1
16	16	2
126	141	1
125	126	1
125	125	1
135	137	2
0	10	2
115	118	1
86	115	1
41	41	1
141	143	1
79	129	1
62	119	1
73	106	1
75	79	1
107	126	1
93	96	1
80	80	2
107	107	2
98	109	1
75	76	1
68	68	1
58	76	1
83	87	1
107	108	1
82	82	1
126	126	4
27	28	1
59	60	1
2	6	1
78	78	1
73	76	1
137	138	1
88	88	1
141	142	1
