107	107	2
63	69	4
42	42	6
86	86	2
93	93	7
38	38	2
53	53	8
111	111	11
36	36	6
71	71	15
89	91	1
89	93	2
94	94	5
49	49	10
90	95	1
40	50	2
82	83	7
56	58	12
82	87	3
78	78	6
104	104	12
71	110	4
66	66	7
21	21	10
83	106	2
103	103	7
90	91	11
27	27	8
105	105	10
34	35	6
104	105	5
91	91	11
50	51	2
99	101	5
101	102	7
74	74	13
90	90	11
70	70	10
107	108	5
28	28	4
61	72	6
108	108	9
81	81	2
65	74	3
87	89	5
31	31	4
67	67	11
110	110	17
48	48	3
114	114	5
80	81	2
100	100	3
97	99	3
82	82	9
57	57	6
95	95	12
39	39	1
94	95	5
85	100	1
88	88	2
96	97	11
75	76	4
59	89	3
77	77	7
72	72	10
93	96	1
76	77	3
64	64	4
76	78	8
104	107	5
33	34	4
106	107	5
71	74	3
69	69	13
70	73	1
83	84	8
19	24	3
84	95	2
61	61	4
67	68	3
102	102	1
108	109	1
96	96	4
22	22	9
103	107	2
63	64	6
109	109	9
45	45	8
59	60	8
80	95	2
20	24	2
76	76	9
91	93	1
72	79	4
92	97	2
56	56	3
41	41	3
73	73	14
97	97	10
92	92	10
54	54	4
59	59	5
60	60	4
93	94	6
84	84	2
24	38	2
44	44	8
112	113	3
29	29	2
67	70	5
65	65	7
100	113	2
32	32	7
48	92	9
113	113	9
29	30	4
46	46	4
92	96	2
110	114	5
72	77	1
85	87	2
85	90	2
66	85	1
112	112	11
37	38	2
58	89	3
27	28	11
94	96	2
43	44	5
73	75	1
25	25	4
47	47	12
22	23	1
36	55	1
61	62	6
62	62	3
78	109	4
27	34	3
52	52	9
21	23	2
105	107	3
66	67	5
113	114	2
82	86	2
59	88	1
30	31	2
92	100	2
53	56	2
69	70	3
109	110	6
22	40	1
88	101	4
98	98	7
68	69	2
99	99	14
79	81	1
50	50	6
106	106	2
20	20	5
26	28	6
75	75	4
74	75	9
44	49	3
111	113	3
29	32	3
26	37	3
38	68	1
110	111	2
89	89	4
79	79	8
94	97	4
87	87	9
64	65	1
103	106	2
80	84	2
23	24	4
97	98	6
46	47	3
71	72	2
76	96	2
81	82	4
30	30	1
62	63	4
62	89	1
85	86	2
43	43	1
26	29	4
54	55	2
100	102	9
101	101	4
57	86	2
96	98	1
63	65	5
83	86	1
87	88	1
85	96	4
28	29	3
24	24	3
55	56	3
24	39	4
74	76	2
54	58	1
48	50	1
106	108	1
32	33	8
62	66	2
83	83	4
87	91	1
47	48	2
26	26	6
105	106	4
63	63	3
79	80	4
99	105	1
78	98	3
73	76	1
78	79	1
85	85	1
26	31	1
33	33	4
73	74	3
57	60	1
101	108	3
69	71	1
48	49	2
19	19	1
102	106	3
82	85	1
95	96	2
68	68	1
40	40	1
92	93	2
21	22	3
103	108	2
34	34	2
91	94	2
19	54	1
87	90	1
81	84	3
52	54	1
94	98	1
22	41	1
63	66	1
62	64	2
65	66	1
88	89	1
27	29	1
42	50	1
63	68	1
56	57	1
72	73	1
51	51	2
35	36	1
84	85	1
82	84	1
43	46	1
68	70	1
