3	10	1
41	43	2
57	57	20
35	35	17
68	68	15
5	8	1
46	46	17
3	3	26
67	68	3
58	58	25
33	33	14
23	24	13
73	73	15
21	21	31
23	23	16
34	34	11
61	61	13
9	9	15
42	74	1
28	28	19
41	42	11
28	29	9
25	28	5
44	44	16
36	36	9
8	8	22
70	70	21
76	76	11
42	42	14
53	54	11
59	59	14
50	51	10
6	6	16
13	13	18
77	77	8
10	11	12
74	74	16
20	20	8
65	65	17
22	22	22
29	29	20
45	45	7
25	26	8
52	52	10
63	63	10
2	2	14
72	72	30
39	39	15
47	47	8
43	43	16
27	27	12
62	63	6
62	62	12
66	68	1
66	66	2
31	36	4
30	31	6
56	58	5
53	53	9
41	45	2
12	12	18
24	24	27
5	5	16
19	20	9
13	54	4
27	47	3
54	54	17
60	60	10
29	30	15
68	69	12
31	31	14
58	73	5
25	27	5
25	25	9
76	77	1
27	28	6
21	31	1
38	39	5
39	42	3
55	55	3
50	50	14
26	26	10
75	75	17
51	51	12
67	67	9
12	13	5
59	71	2
48	48	13
28	30	5
27	32	1
37	38	8
0	0	20
26	29	5
22	23	15
40	40	9
65	66	15
37	37	13
26	40	1
22	24	7
59	72	3
4	4	19
31	33	1
69	69	18
5	6	13
7	7	24
8	9	15
30	30	13
5	24	1
64	73	1
11	19	1
39	72	3
3	7	5
4	5	6
49	49	14
10	10	6
39	40	1
37	39	3
9	10	6
25	35	1
30	32	2
36	37	4
3	4	8
20	21	3
71	72	3
27	63	7
26	35	5
31	32	4
55	56	12
1	1	18
32	32	11
18	19	11
18	25	1
50	53	2
5	32	2
9	11	2
72	74	5
1	5	3
59	60	7
38	40	3
0	3	2
3	9	5
42	43	1
36	39	3
6	19	2
51	53	6
49	61	5
40	67	1
63	64	2
59	73	3
0	2	4
48	61	5
7	10	1
19	19	14
61	68	4
54	55	14
24	29	1
8	10	3
28	46	5
24	28	8
25	37	2
51	52	3
48	49	3
1	2	9
64	64	9
2	4	2
39	73	3
58	59	8
56	56	8
68	72	1
36	40	3
2	3	6
60	73	3
42	75	2
4	14	1
26	27	13
45	46	8
11	13	1
49	66	3
49	50	3
19	54	1
71	71	7
54	56	2
43	44	3
61	65	1
24	41	1
72	73	7
11	11	10
35	37	1
26	30	3
52	53	5
31	40	5
14	14	6
61	69	2
57	58	2
41	41	8
7	8	2
1	9	1
11	12	5
60	65	3
34	35	7
49	51	2
73	75	4
62	64	3
67	69	9
50	62	2
18	18	10
50	64	1
58	60	2
52	74	1
65	67	2
5	9	2
28	33	4
44	45	6
32	34	1
0	1	5
7	9	2
72	77	1
23	25	3
15	15	3
73	74	2
2	5	1
46	65	1
40	44	3
61	67	4
40	75	3
68	70	2
64	65	2
51	54	4
19	21	4
74	75	3
70	71	5
26	28	1
35	36	2
7	14	1
35	38	1
74	77	1
44	66	3
7	31	2
72	75	4
38	38	6
22	30	2
25	39	1
13	14	4
63	75	1
8	12	1
47	62	2
3	5	3
21	22	1
14	15	1
26	33	1
49	59	1
43	73	2
40	41	4
63	74	2
56	57	3
69	70	3
6	7	1
25	65	4
66	67	1
47	51	1
4	6	1
31	34	1
61	63	2
24	26	1
62	65	1
27	64	1
48	56	1
52	54	1
52	65	2
20	52	1
48	59	2
1	7	1
58	72	1
28	40	1
62	72	1
13	19	1
49	65	1
11	20	1
62	66	1
26	52	1
0	4	1
