57	57	10
36	36	6
24	24	9
6	6	7
45	45	4
104	104	6
34	34	18
98	98	11
59	62	2
85	85	8
93	93	10
124	124	11
81	88	3
6	47	3
11	15	3
4	5	2
64	70	2
101	101	7
21	40	2
31	32	2
46	46	9
64	64	5
15	16	5
12	12	3
48	78	1
68	69	2
29	55	1
13	13	2
126	127	2
3	39	4
27	27	12
11	26	4
132	132	7
18	120	3
51	55	2
41	41	6
79	89	1
95	96	4
59	131	2
75	76	6
91	92	1
61	61	12
68	68	4
113	113	5
21	21	3
59	59	4
17	123	3
48	48	3
115	116	1
41	43	4
72	72	3
71	72	3
70	71	1
5	5	1
72	73	2
81	94	1
119	119	1
73	73	5
8	19	1
133	134	6
46	119	2
26	49	2
128	128	1
9	10	2
38	84	1
11	23	3
29	30	2
28	36	1
15	15	4
81	81	6
85	103	4
69	69	2
101	126	1
123	123	1
66	66	12
10	10	6
40	44	1
47	47	4
81	85	3
89	92	3
3	3	4
56	129	6
42	42	5
76	76	2
80	111	4
15	121	4
96	96	4
105	105	7
5	6	1
44	45	2
127	127	3
39	39	2
109	109	6
80	106	2
81	82	2
24	29	1
102	104	2
60	71	2
60	131	1
65	77	1
91	91	14
97	97	2
100	100	7
86	101	1
95	95	7
28	112	3
45	74	2
25	48	4
83	102	2
79	109	2
46	61	3
27	80	1
15	37	3
32	32	2
20	22	2
26	30	1
118	118	3
18	74	1
57	58	1
90	98	1
14	35	2
78	78	5
79	79	7
30	45	3
89	89	3
94	96	6
31	31	3
46	62	2
84	84	7
83	83	3
130	130	3
7	93	1
78	125	2
107	128	2
83	88	4
111	113	2
60	60	5
11	20	5
3	41	2
69	111	1
8	46	1
29	29	5
11	11	3
11	84	1
51	51	1
88	88	6
90	90	1
114	114	2
51	65	1
7	31	1
73	74	1
95	98	1
48	126	1
48	101	2
126	126	2
38	93	3
93	98	3
25	25	4
20	36	3
19	126	2
2	2	2
65	65	5
10	101	4
78	84	2
43	46	4
11	33	2
77	104	1
26	31	3
11	13	1
125	125	1
23	24	1
55	55	1
15	94	1
28	38	3
4	74	1
74	74	5
57	62	4
98	99	2
86	86	7
70	70	4
37	37	10
45	95	4
20	26	2
114	128	1
46	98	1
78	98	1
7	41	1
80	86	1
126	130	2
43	60	1
120	120	1
56	59	2
9	9	5
107	107	5
94	98	5
38	46	1
113	114	2
103	103	5
64	75	1
77	133	1
82	90	1
68	74	1
116	116	1
77	77	3
4	4	2
36	58	1
108	108	3
111	111	2
93	94	2
56	56	7
32	93	1
83	87	1
84	87	1
37	38	1
80	80	1
68	70	1
74	101	3
30	32	5
90	91	3
66	73	1
26	26	5
99	99	5
27	91	1
45	94	4
47	101	3
77	126	1
38	38	3
40	55	2
79	82	1
79	80	1
35	35	4
28	90	1
62	63	2
47	63	2
5	99	1
28	28	2
3	29	2
71	92	1
46	114	1
74	75	3
9	68	1
58	59	1
50	50	2
129	130	1
28	88	4
121	121	3
17	17	1
134	134	1
106	106	2
81	87	1
112	112	2
102	128	2
19	19	2
104	105	3
44	44	1
16	16	1
61	62	1
30	30	2
104	107	1
118	122	1
72	96	1
76	77	1
31	34	4
40	41	1
14	14	1
15	41	1
42	43	1
102	102	1
58	58	3
32	34	1
44	46	1
131	133	3
70	74	1
96	99	2
83	98	1
25	26	1
12	66	1
61	66	1
66	67	1
80	93	1
55	56	5
11	14	1
35	36	1
0	0	1
17	72	1
3	79	1
87	88	1
26	44	2
5	15	1
39	92	1
26	93	1
83	94	1
87	87	1
36	41	1
23	23	1
31	36	1
16	35	1
69	70	1
80	81	1
28	39	1
11	32	1
34	36	1
110	111	1
107	121	1
18	59	1
97	99	1
11	12	1
84	85	1
62	62	1
20	62	1
107	108	1
34	35	1
5	7	1
55	91	1
36	37	1
7	7	1
28	29	1
27	38	1
8	45	1
29	38	1
29	31	1
75	75	1
