35	35	12
46	46	24
53	53	23
5	7	10
62	64	3
43	43	11
50	73	1
3	3	15
60	60	10
58	59	13
25	25	22
57	57	22
37	55	2
57	58	8
55	55	21
43	44	8
45	47	2
20	21	1
61	63	4
75	76	8
4	8	3
27	27	10
26	26	20
38	39	4
42	45	3
74	75	9
77	78	4
24	24	4
37	38	8
47	48	6
49	53	2
31	32	5
76	77	2
59	59	18
39	40	7
7	7	7
57	59	2
68	68	20
21	21	15
31	64	3
43	45	3
32	32	19
49	49	24
11	13	1
63	63	32
1	4	2
32	33	6
72	72	16
6	6	8
54	66	3
27	28	8
73	74	3
55	65	3
70	71	8
40	40	26
67	67	11
65	68	4
31	31	3
37	37	26
62	62	8
29	30	4
64	64	13
56	57	10
39	63	2
73	76	4
49	50	3
61	62	6
56	56	17
41	42	6
18	18	7
6	8	5
10	10	8
11	11	5
9	9	12
72	74	3
8	34	1
39	39	16
54	67	2
62	63	15
65	65	7
19	19	29
51	51	12
71	71	15
52	53	1
52	56	1
7	10	3
47	47	11
59	71	2
12	12	12
23	25	3
53	54	6
33	33	17
2	3	10
51	52	6
48	48	21
59	70	2
1	1	8
46	47	7
54	55	1
76	76	13
66	67	6
71	72	7
28	28	22
73	73	20
42	42	17
4	5	2
29	29	10
66	66	12
25	27	1
61	67	3
48	77	8
77	77	19
54	54	9
8	8	13
70	70	12
41	41	16
58	58	11
55	56	6
36	40	4
26	30	4
22	22	13
4	4	10
3	8	1
44	44	10
71	73	2
10	11	3
74	74	19
61	70	2
61	61	18
45	46	3
31	62	1
7	8	5
59	60	5
68	69	12
59	69	1
52	52	14
30	30	10
25	26	5
20	20	6
65	66	5
34	36	2
13	72	3
23	23	7
74	76	3
26	28	4
0	4	1
75	75	10
60	69	1
63	65	3
1	2	2
69	69	6
35	73	1
24	25	6
5	5	7
51	56	1
32	34	3
63	64	6
39	43	2
27	29	1
35	36	3
0	0	11
51	53	4
48	72	2
36	36	19
69	75	1
2	6	2
45	45	8
38	44	1
24	29	3
8	9	1
34	35	4
26	66	1
67	68	3
51	72	2
48	52	5
11	14	1
27	65	2
42	43	3
34	34	6
47	54	2
13	20	1
11	12	4
0	2	3
4	70	6
36	37	7
50	50	3
18	19	4
24	28	2
64	65	7
33	34	4
2	2	9
72	73	5
42	44	1
70	75	2
37	40	2
50	58	2
37	54	1
19	35	2
7	32	1
6	7	4
29	32	1
70	74	1
42	46	1
31	33	1
38	38	8
13	19	1
7	33	2
72	76	2
47	56	1
48	49	5
22	66	1
64	66	2
3	4	2
32	65	1
13	13	6
7	9	1
4	35	2
22	23	4
54	56	1
37	39	1
20	36	1
21	22	3
69	70	1
39	42	4
9	10	2
62	67	2
12	13	2
63	66	1
44	45	3
65	69	1
35	37	2
38	72	1
9	11	1
25	28	1
36	58	1
1	68	1
23	24	2
41	44	1
66	68	1
52	70	1
19	38	1
67	69	2
52	73	1
36	43	1
13	14	2
24	26	1
34	38	1
39	41	1
59	68	1
12	19	1
28	29	2
3	31	1
5	6	2
10	13	2
30	67	1
18	34	1
60	71	1
47	74	1
40	41	1
33	39	1
1	5	1
46	74	1
