3	15	4
78	78	19
16	18	1
72	73	4
73	73	16
118	118	18
89	89	4
77	77	11
14	14	11
106	106	7
81	81	8
17	19	2
59	59	16
32	33	6
67	68	13
95	95	20
123	124	5
6	6	4
3	3	22
86	86	33
17	17	9
5	5	9
99	99	15
96	97	11
94	94	8
109	110	6
71	72	3
63	63	16
26	37	5
4	31	3
59	60	15
6	7	6
132	133	3
25	27	3
26	47	8
100	104	3
11	13	2
97	97	13
41	42	10
56	56	4
129	130	1
1	58	4
22	22	8
15	40	2
130	131	5
18	18	20
114	115	3
13	16	2
11	11	24
74	74	11
17	45	5
9	9	20
17	36	7
25	25	12
75	75	21
72	72	17
90	90	12
102	103	4
41	41	9
121	121	4
103	104	3
45	45	18
101	102	8
95	96	3
30	30	14
42	42	5
36	37	3
4	5	5
3	47	2
88	89	3
14	42	4
76	78	4
100	100	10
131	131	5
109	109	9
40	40	15
13	13	8
3	5	1
64	64	17
41	47	4
60	60	21
5	7	3
84	128	3
47	47	38
113	113	6
103	103	3
33	33	13
32	32	10
98	98	13
100	103	4
57	115	5
32	47	2
62	62	21
7	7	9
58	59	5
44	95	7
3	4	3
0	64	2
26	82	4
10	10	13
124	124	10
82	86	4
5	6	9
98	102	4
20	85	1
65	65	16
68	68	9
97	104	3
111	111	20
11	93	4
114	114	3
76	76	12
81	82	7
61	62	3
39	39	5
117	117	6
37	37	10
113	117	4
73	74	9
66	66	30
93	93	12
70	72	5
112	113	8
95	113	3
69	70	4
34	35	2
30	31	7
82	82	14
69	71	2
106	107	5
87	90	2
83	84	4
130	130	5
19	22	1
1	1	3
15	16	3
79	79	19
69	69	5
25	26	5
27	28	10
8	10	2
107	117	4
4	41	5
48	49	5
91	92	4
83	83	19
1	2	6
85	85	8
28	44	3
31	31	10
96	96	11
12	12	11
38	38	2
58	58	7
43	43	4
38	42	3
27	27	18
23	23	8
37	47	1
95	125	1
91	91	10
79	81	4
15	42	6
110	110	13
64	65	4
55	57	1
67	69	2
24	24	16
29	76	1
25	83	1
45	89	1
34	34	9
107	107	11
7	91	4
20	21	2
16	17	4
28	89	4
28	28	9
109	129	1
116	117	6
79	80	2
43	46	2
26	26	24
70	70	3
90	91	4
46	46	19
101	109	2
29	54	2
46	111	1
45	63	3
18	46	1
42	109	3
80	80	8
119	121	5
25	93	4
78	80	5
91	94	2
8	9	3
12	13	2
37	39	2
30	32	2
49	49	5
108	108	12
41	109	1
115	115	5
36	39	1
102	102	9
44	45	8
111	129	2
34	48	1
61	61	12
122	122	5
66	83	1
71	71	5
60	69	2
24	38	1
82	83	4
15	47	1
127	127	2
128	133	1
133	133	7
29	70	2
51	51	3
94	95	10
0	0	8
99	100	4
21	56	1
19	19	7
92	93	1
92	92	4
93	94	4
83	85	3
111	112	1
45	62	9
8	105	1
134	134	7
8	76	2
27	93	1
111	117	4
75	76	5
117	118	5
94	122	2
13	93	1
46	61	2
74	77	5
88	88	7
14	58	1
48	79	2
28	95	1
101	101	10
119	134	2
84	90	1
47	48	4
84	84	5
87	87	6
50	55	2
16	16	17
94	115	2
37	38	5
110	116	1
13	14	4
55	56	1
93	99	2
129	133	2
5	26	3
28	69	2
125	126	5
18	19	1
91	98	4
8	8	19
36	36	4
119	119	7
9	10	5
11	12	1
113	116	1
48	48	6
100	102	2
37	101	5
29	30	2
59	77	4
123	123	14
66	91	3
24	26	3
21	21	5
87	88	4
41	43	2
28	34	2
4	7	3
33	77	1
89	92	1
20	20	7
39	40	1
14	15	1
78	81	1
96	104	2
31	32	2
77	78	3
126	128	8
11	15	2
108	109	5
102	105	2
29	31	2
47	94	3
44	46	1
105	106	1
27	47	4
89	94	3
6	65	1
67	67	9
114	117	1
96	111	3
20	37	1
57	57	2
126	126	4
8	12	3
43	45	1
70	71	3
93	95	5
119	120	2
38	40	3
12	46	2
35	75	1
26	27	4
16	48	3
128	129	1
8	34	2
35	35	5
98	99	1
29	83	1
122	126	1
110	111	2
28	80	2
47	88	1
81	87	1
23	24	3
2	3	2
96	106	2
2	2	5
73	75	3
26	56	4
128	128	2
115	117	1
28	29	2
129	131	2
73	98	1
14	24	1
91	101	1
35	36	3
7	56	3
133	134	6
51	55	1
26	51	1
4	4	7
109	132	3
12	17	1
33	34	3
112	112	2
11	82	1
116	116	2
92	101	1
12	74	2
86	87	3
34	36	3
104	104	4
7	86	1
108	129	2
47	96	3
29	29	1
120	129	1
24	82	1
45	98	1
20	34	1
121	132	1
118	119	2
25	78	1
42	45	1
6	26	3
94	124	1
27	57	1
2	59	3
7	8	1
40	45	3
22	56	1
76	77	6
60	61	1
1	64	2
66	72	1
73	93	1
59	74	1
26	93	2
24	101	3
130	132	1
78	79	5
82	85	3
105	105	4
45	64	2
38	43	1
55	55	4
105	129	1
96	110	3
39	41	2
13	47	1
33	36	2
4	6	1
6	56	2
113	115	1
21	55	2
115	130	1
65	66	3
63	64	2
95	103	1
90	112	3
131	133	5
124	125	2
126	127	1
20	23	2
97	98	3
81	89	1
15	15	1
37	41	1
41	45	2
77	83	1
44	44	2
40	41	2
3	90	1
101	104	1
127	128	1
20	31	1
25	29	2
83	90	1
83	86	2
12	104	1
125	125	2
33	44	1
131	134	1
24	42	1
120	120	2
46	47	2
102	104	1
44	47	1
89	101	1
54	55	2
29	36	2
123	125	1
132	132	2
28	57	1
104	106	1
17	18	2
4	90	1
103	127	1
94	125	2
35	42	2
40	81	1
68	69	1
108	112	1
94	103	2
120	130	1
20	38	2
95	97	1
93	100	1
44	62	1
45	46	1
24	25	1
45	93	1
91	112	1
10	105	1
16	47	1
90	92	1
73	85	1
88	100	1
94	104	1
94	128	1
30	70	1
88	102	1
74	75	1
46	62	1
89	103	1
104	105	3
85	86	1
7	25	1
94	129	1
57	58	1
36	75	1
31	33	1
90	93	1
48	78	1
44	48	1
48	84	1
112	116	1
10	86	1
43	82	1
33	47	1
10	56	1
19	43	1
