91	91	35
134	134	20
98	98	29
53	54	10
125	129	9
122	123	4
118	118	19
116	117	7
49	51	2
75	76	1
123	123	32
99	105	3
100	101	4
101	103	7
104	104	19
64	64	33
72	72	44
65	66	11
81	81	16
32	32	16
72	73	11
102	102	23
92	92	20
110	111	17
113	113	30
131	132	13
43	57	2
24	25	4
55	56	15
78	78	9
13	24	4
116	116	26
59	59	18
125	125	17
112	113	9
106	106	31
56	57	13
88	88	8
61	64	3
48	48	6
96	96	18
66	66	16
100	131	6
50	57	2
33	33	8
67	68	15
85	85	19
82	82	17
5	63	1
118	119	11
99	100	2
95	99	4
110	117	4
76	76	23
118	122	1
74	76	5
62	62	20
56	56	11
58	58	24
28	28	7
54	54	12
53	53	13
79	79	27
55	55	16
63	64	10
75	135	7
15	15	6
77	77	27
25	25	3
128	129	3
111	111	7
44	45	14
43	43	6
110	110	17
132	132	26
95	95	21
109	109	17
45	45	31
130	130	16
63	63	19
2	85	1
31	32	1
38	58	4
124	124	20
17	17	2
106	111	2
44	44	25
68	68	27
65	68	4
36	36	12
42	55	1
73	98	2
47	47	6
38	53	2
9	11	6
118	129	1
1	1	17
30	30	15
69	69	14
34	34	22
74	74	12
80	80	41
10	10	8
47	114	3
57	58	7
87	93	6
59	63	2
103	104	11
94	105	1
3	73	3
19	24	5
95	110	2
98	109	2
85	96	3
20	23	2
9	10	4
100	110	3
13	34	2
101	101	17
83	96	2
43	121	2
6	128	3
128	130	1
27	27	17
112	114	9
23	23	8
29	29	12
63	111	1
112	112	28
70	70	20
65	85	5
36	43	3
73	73	23
4	61	1
84	85	16
69	83	4
88	98	2
120	120	21
71	74	7
93	93	16
52	55	7
124	126	3
8	10	2
121	121	14
30	31	2
67	83	3
135	135	6
3	3	9
94	95	5
12	12	7
84	101	5
10	11	7
0	78	3
52	54	4
8	34	4
1	2	5
77	82	3
86	86	24
72	76	2
130	131	5
119	120	12
97	121	6
50	50	27
97	97	20
127	127	18
4	89	1
117	117	12
11	11	7
96	109	3
92	108	4
2	71	2
8	8	9
67	67	29
34	35	1
76	98	2
37	38	3
43	45	3
61	63	4
43	59	2
4	4	8
2	2	13
35	35	3
107	107	14
92	100	2
44	52	2
10	25	3
57	57	7
54	65	2
35	59	4
62	63	7
115	115	10
67	69	6
70	74	6
96	97	4
19	19	10
95	96	2
21	21	10
129	133	6
121	122	8
75	75	12
114	114	20
52	85	1
31	31	8
105	105	7
74	80	3
122	122	16
104	105	8
60	60	30
54	85	3
98	132	2
79	80	8
94	98	9
129	129	15
77	110	1
83	83	19
23	24	1
49	49	14
90	105	2
119	119	25
65	65	9
65	69	1
99	99	17
98	115	1
71	80	4
106	107	7
86	113	4
4	5	2
71	72	13
93	118	1
100	124	1
13	13	9
83	86	2
90	90	13
11	32	1
103	103	16
87	87	23
123	132	2
132	134	9
61	61	22
61	85	6
59	89	2
126	126	9
98	121	4
89	89	8
79	86	1
100	117	5
6	7	8
80	94	1
100	115	2
96	119	1
94	94	25
57	113	1
115	123	4
54	82	1
109	110	6
77	78	13
86	107	9
63	75	4
107	109	1
100	130	3
47	80	4
100	100	18
43	53	1
70	77	1
70	71	3
73	115	1
93	116	3
97	122	2
25	120	5
124	125	2
93	125	1
108	108	15
92	93	4
87	92	4
131	131	8
95	98	6
9	60	1
95	97	2
127	129	4
18	18	5
68	85	3
84	117	5
105	125	3
5	5	9
117	118	6
89	91	2
80	90	5
89	90	11
50	67	5
20	37	1
87	88	5
89	120	1
54	57	4
79	82	2
52	52	7
21	55	3
43	44	2
52	69	1
9	23	4
101	104	2
25	27	1
49	50	4
71	71	10
51	90	2
125	128	2
24	24	2
89	97	1
3	5	4
59	80	2
111	122	2
63	94	2
119	133	1
3	90	1
102	114	3
8	89	5
79	81	4
65	67	1
21	23	1
80	89	3
93	101	1
7	28	1
108	109	6
125	133	2
128	132	1
20	21	2
45	50	1
133	133	12
68	69	10
84	84	7
59	68	4
113	116	2
2	3	7
99	107	4
58	67	2
102	103	3
54	55	15
132	133	2
81	84	4
58	66	3
117	120	2
100	113	2
11	24	1
66	83	1
57	65	2
26	26	6
6	6	6
128	133	2
101	102	1
73	75	4
8	9	4
94	101	4
77	84	1
60	85	5
54	58	2
65	90	2
21	22	2
53	68	2
9	26	2
70	75	6
43	49	2
16	16	4
66	107	3
20	24	3
114	115	6
78	83	1
45	49	2
101	131	3
123	127	2
22	23	6
114	132	2
7	7	7
74	77	2
43	50	4
93	99	2
79	96	2
57	64	3
105	115	1
58	85	4
46	46	6
86	109	4
57	87	1
90	91	3
128	128	14
126	127	4
78	79	4
78	86	4
90	96	4
97	105	1
43	51	2
12	13	3
57	67	2
9	20	3
108	110	4
38	38	9
67	76	2
70	73	1
60	67	4
16	18	2
104	112	1
48	50	1
105	121	1
9	105	2
15	19	5
3	4	4
20	22	2
110	113	7
49	94	2
107	108	5
118	131	1
63	76	1
52	92	4
105	112	1
13	14	1
106	120	3
60	63	1
58	64	3
121	129	1
109	113	5
66	67	4
54	56	3
42	42	3
97	101	3
5	6	2
3	13	3
62	66	3
76	80	2
9	9	3
121	131	3
38	55	1
101	127	2
106	109	1
11	12	3
123	124	3
45	46	2
83	84	5
72	89	1
1	65	4
104	133	1
79	113	4
12	25	2
13	27	3
0	0	3
76	94	1
33	34	2
37	56	3
106	122	2
4	63	1
114	125	1
102	120	4
14	14	8
69	116	2
59	86	4
88	103	1
85	123	3
92	99	2
85	92	2
78	82	1
61	65	2
53	69	4
86	87	4
6	27	4
104	127	4
49	69	1
42	132	1
38	52	2
93	124	1
98	99	5
64	65	1
92	109	1
95	102	3
3	96	1
66	92	1
6	29	1
111	118	2
108	111	7
112	129	3
90	120	1
55	57	2
69	74	1
16	19	1
129	130	1
50	56	2
108	122	2
25	26	1
62	65	1
44	46	1
83	87	2
71	76	3
42	43	2
84	86	4
82	84	3
89	123	1
120	122	4
5	115	1
4	13	1
68	81	2
96	122	2
83	85	2
74	75	1
59	81	1
108	114	1
22	22	3
82	83	3
97	118	1
45	47	2
44	50	3
69	78	2
111	113	2
115	128	2
6	125	1
65	71	1
58	59	2
120	121	2
93	94	2
114	120	2
28	29	2
110	119	1
80	112	3
99	127	1
88	107	1
69	112	3
118	121	2
111	123	1
13	23	3
38	42	1
83	123	1
112	120	2
54	64	3
61	62	1
63	79	1
92	97	1
16	25	3
104	126	2
70	79	1
49	52	1
75	112	2
7	128	2
115	120	3
124	133	1
26	27	1
70	92	2
23	26	3
106	108	2
25	32	2
13	25	4
57	68	2
52	65	1
71	79	2
105	133	1
14	27	2
111	112	1
52	53	1
82	85	5
67	82	1
55	62	1
92	110	1
51	53	1
111	114	2
89	111	1
120	130	1
78	109	1
20	20	2
1	73	1
118	120	1
95	104	2
106	110	1
61	74	1
59	64	1
101	132	1
3	62	1
97	123	2
126	133	1
91	92	1
47	48	1
105	111	1
44	55	1
66	75	2
50	63	2
95	105	2
69	119	1
49	57	1
70	114	2
36	37	2
97	108	1
12	105	1
71	75	1
56	58	2
50	51	1
23	34	1
81	91	1
64	69	1
7	11	1
13	18	1
45	53	1
121	123	1
6	30	1
124	132	1
64	78	1
81	83	1
43	73	1
84	95	1
105	106	1
6	34	1
87	125	1
44	49	1
5	12	1
93	100	1
18	19	1
67	93	1
42	57	1
102	121	1
78	122	1
109	114	1
100	118	2
114	134	1
70	72	1
134	135	1
81	90	1
13	16	1
127	128	1
14	21	1
34	58	1
60	65	1
84	116	1
72	90	1
64	87	1
113	114	1
109	118	1
43	83	1
88	91	1
69	85	1
47	49	1
97	131	1
101	123	1
15	16	1
57	84	1
108	121	1
46	90	1
