44	46	1
51	52	4
41	41	26
133	133	34
79	79	22
33	33	17
22	22	17
69	69	20
67	68	16
53	54	6
149	149	3
142	142	21
17	17	13
17	36	4
119	134	5
77	79	8
113	113	11
55	55	9
100	100	21
67	67	21
108	108	23
128	128	18
88	88	12
16	49	8
99	99	11
32	32	12
33	37	2
120	120	6
34	34	17
36	38	1
153	153	24
152	154	3
66	66	10
49	49	8
110	110	21
70	113	2
102	102	6
97	97	23
51	51	17
127	127	15
157	157	18
112	112	13
148	148	21
155	156	11
27	28	3
93	94	5
90	90	14
129	129	6
66	70	3
145	145	7
130	130	7
31	31	19
140	141	2
64	148	5
124	126	5
3	3	10
140	140	11
134	134	27
136	137	7
126	126	11
64	150	3
19	28	2
20	20	16
14	14	13
68	141	2
52	53	8
50	50	10
135	135	16
70	70	17
147	147	22
58	58	5
20	22	7
47	47	23
81	82	4
155	155	6
104	105	4
104	106	4
98	98	14
30	36	7
154	154	17
19	20	8
70	72	2
124	124	22
102	104	1
36	36	17
82	82	14
123	123	18
18	19	1
43	43	13
116	116	22
8	8	11
138	138	12
139	140	4
53	53	10
1	1	23
92	107	7
7	7	30
6	6	15
140	143	3
130	159	2
79	90	1
15	15	7
150	150	25
101	101	15
122	122	20
56	56	3
117	117	23
106	106	18
156	156	9
13	13	9
40	40	7
81	81	6
139	139	13
21	21	17
18	49	3
125	125	24
104	104	8
63	114	2
119	119	10
39	53	2
17	20	4
14	16	5
90	93	6
151	151	18
71	121	4
46	46	7
26	46	3
87	120	3
10	10	8
144	144	18
93	93	8
80	80	20
142	143	2
51	54	3
96	117	7
9	9	4
35	36	1
37	37	13
84	84	4
29	30	1
82	84	10
42	42	15
146	146	18
15	20	8
115	116	7
105	105	15
43	44	4
16	19	6
94	94	18
122	146	6
71	71	31
35	35	11
73	103	2
142	153	6
135	136	8
57	57	7
123	143	2
141	142	7
124	140	3
3	4	2
109	109	16
4	4	19
145	147	4
135	142	1
37	56	1
124	138	2
45	45	14
76	76	7
91	91	3
87	87	10
79	112	5
87	110	4
86	86	7
138	152	3
40	41	1
139	154	1
77	120	4
152	152	7
137	137	14
78	82	2
23	23	15
132	132	5
2	2	13
107	110	1
14	47	3
68	68	18
127	144	4
56	83	3
50	51	8
9	140	2
75	75	10
32	52	4
62	62	6
84	114	2
128	151	8
75	87	1
11	57	1
121	145	4
78	78	13
47	48	2
107	108	1
16	16	19
0	25	8
33	34	3
92	92	21
16	18	5
83	83	6
91	92	8
108	110	4
5	5	6
64	64	6
93	104	2
29	29	8
1	2	1
95	95	7
5	41	5
21	22	7
66	156	6
66	155	2
106	107	6
87	117	3
92	93	3
72	72	7
80	92	6
13	14	2
141	141	13
0	0	17
38	38	13
48	49	7
14	32	1
11	37	4
48	50	2
103	103	8
123	155	4
13	39	2
30	30	5
44	44	15
27	27	4
18	37	3
121	122	4
123	125	3
95	97	1
14	15	1
117	118	2
143	143	2
88	118	4
106	114	3
91	104	2
26	26	6
50	52	3
96	97	5
4	5	5
107	107	17
67	69	5
11	11	20
115	115	9
23	24	6
52	52	10
64	65	2
79	98	5
84	85	6
12	12	11
121	121	13
54	55	5
81	97	1
105	151	1
16	31	3
65	65	12
72	121	1
142	154	7
44	45	5
55	56	3
86	91	3
17	18	1
96	96	2
20	21	6
123	141	3
78	97	2
126	127	10
16	17	2
158	158	5
138	139	1
151	152	2
153	154	6
118	118	6
45	50	3
63	77	3
109	119	2
140	156	1
77	78	1
136	136	16
34	35	1
4	41	2
19	19	14
48	55	5
49	55	1
66	94	1
7	8	6
152	153	2
114	138	1
128	139	4
23	25	3
87	90	5
7	33	2
54	54	19
25	25	5
135	144	1
71	105	2
89	89	6
37	55	1
105	149	4
105	106	4
67	71	2
64	71	3
77	112	1
142	145	3
33	47	2
37	38	4
138	151	3
45	47	2
71	106	1
132	133	2
111	120	2
8	33	3
146	147	5
6	7	3
68	70	6
74	74	4
73	73	9
145	146	1
98	102	6
111	111	11
89	117	6
79	84	3
114	114	11
98	116	5
67	70	3
5	11	3
18	18	12
30	35	4
32	50	4
89	90	1
82	83	2
86	87	11
131	131	11
15	29	1
85	85	11
112	113	1
13	36	3
48	48	4
9	10	5
134	135	7
8	11	3
38	39	2
68	69	7
13	49	1
105	150	5
17	49	1
11	12	1
126	144	1
11	65	1
22	23	4
158	159	2
148	151	1
88	120	1
95	96	3
65	112	2
7	42	1
91	157	5
63	63	7
23	29	1
108	109	4
7	12	1
137	153	2
24	24	7
15	28	1
120	143	2
52	54	9
122	123	3
5	6	3
69	123	2
62	144	2
28	28	12
30	54	1
15	48	5
91	93	2
70	71	2
42	53	2
39	39	8
144	149	4
105	124	3
113	114	2
83	85	2
36	37	4
80	84	3
28	30	2
130	158	2
100	101	2
121	156	3
77	77	3
88	117	1
67	72	1
8	9	3
69	120	2
100	104	1
9	38	1
145	149	2
140	154	1
90	126	1
66	69	2
41	42	5
134	151	2
12	15	3
139	149	1
75	94	3
123	127	2
33	46	2
82	97	1
93	111	3
156	157	5
37	53	2
39	158	2
7	45	3
75	106	1
81	98	2
107	125	1
62	64	3
114	115	3
65	155	2
2	28	2
86	111	1
7	23	1
28	29	5
87	91	1
75	76	3
147	148	5
38	54	1
62	63	2
118	119	1
36	46	2
90	91	5
108	120	2
44	75	1
137	152	2
17	33	1
81	116	1
87	88	2
133	134	8
124	141	2
68	139	4
110	125	1
85	117	1
64	113	2
124	125	1
20	29	3
120	121	1
2	3	4
71	88	1
76	81	1
69	70	4
143	155	2
102	128	2
119	120	3
99	105	1
43	70	3
64	149	1
51	53	1
145	148	2
50	55	1
93	103	2
40	42	1
123	145	1
19	108	1
149	150	1
105	139	2
148	149	2
143	144	2
2	30	2
78	85	2
30	47	1
15	31	1
104	154	1
88	89	2
24	25	3
73	100	1
64	112	2
9	17	1
43	154	1
46	47	1
10	118	2
8	10	1
40	54	1
41	43	3
131	158	1
42	54	2
125	126	1
137	139	1
38	56	1
29	135	1
35	45	2
33	108	1
85	86	1
136	138	1
138	140	2
66	67	1
33	149	1
32	54	2
73	74	1
154	155	1
43	50	1
135	141	1
49	50	1
8	56	1
13	107	2
28	50	1
15	50	1
42	55	1
4	52	1
83	117	1
42	43	1
28	32	1
13	37	1
65	66	1
10	22	1
39	42	1
144	145	2
104	134	2
120	141	1
