25	25	25
66	66	47
6	7	33
8	8	50
118	118	33
62	63	14
75	75	38
72	72	45
10	10	35
3	100	9
123	123	31
121	122	6
103	103	16
16	48	2
120	121	11
105	105	12
119	120	9
68	68	51
45	45	38
7	26	1
74	74	41
45	46	9
130	130	30
43	59	1
31	58	4
94	96	9
11	11	59
33	33	36
56	56	24
9	10	25
25	83	3
27	29	9
65	65	44
87	87	21
67	67	35
123	124	12
30	32	4
95	95	46
9	9	43
5	5	45
39	41	4
73	73	63
11	26	3
125	125	31
129	134	8
45	64	3
79	80	31
84	84	15
6	6	48
46	47	15
44	48	3
113	113	16
117	118	10
79	79	44
19	20	14
41	41	10
13	27	1
68	69	36
66	93	1
83	83	40
80	80	34
45	97	1
127	127	16
12	34	5
17	17	33
7	7	47
34	47	7
44	44	35
12	12	50
15	15	31
61	62	21
21	21	21
18	18	31
116	116	16
87	96	4
28	28	29
35	35	32
69	69	36
96	100	1
122	122	11
35	40	1
78	79	16
24	42	2
18	23	3
32	46	1
95	96	9
85	85	31
101	101	42
58	58	27
106	106	22
100	101	9
78	80	9
67	71	4
64	64	64
38	38	10
31	31	34
93	93	40
88	88	33
42	81	2
71	72	11
130	131	9
15	19	9
70	72	2
4	95	1
111	111	14
16	18	2
61	61	66
93	94	17
86	86	32
20	20	37
96	96	34
11	93	6
20	22	7
31	77	1
126	128	6
30	48	2
63	63	63
25	61	3
11	44	1
55	114	5
29	32	2
21	56	2
32	33	8
128	130	2
98	99	17
36	39	1
26	26	50
82	82	51
34	34	48
62	66	3
77	116	4
89	90	8
30	38	2
84	101	5
94	94	37
56	58	6
30	30	30
34	36	6
99	100	8
12	27	6
37	38	6
33	34	9
108	109	8
5	7	6
35	74	1
70	70	30
37	81	1
81	81	25
48	50	2
40	40	12
15	17	7
49	49	9
44	45	11
62	62	45
16	17	4
67	69	4
128	128	14
131	134	3
36	42	2
13	15	7
48	48	18
45	89	6
3	3	11
47	47	62
38	43	4
119	119	28
36	36	35
26	46	4
6	36	4
6	90	4
102	102	24
60	60	30
19	19	32
47	77	4
6	43	2
110	110	12
133	133	12
43	43	33
30	82	3
25	26	12
75	77	5
117	117	15
59	59	35
71	71	26
103	107	4
132	133	21
77	79	2
12	13	16
22	22	10
8	51	1
12	71	4
97	97	21
75	105	7
36	38	4
108	108	15
112	112	8
7	35	8
13	20	3
74	80	6
105	122	2
90	90	16
65	66	25
57	57	31
61	75	3
85	86	14
87	88	15
113	114	6
37	37	16
55	55	8
14	15	11
23	74	10
78	78	50
131	133	3
23	23	15
93	100	6
57	58	10
64	65	9
86	87	9
83	84	12
99	99	19
82	83	6
72	73	6
28	80	5
32	32	41
13	48	3
4	101	5
90	92	10
8	9	15
56	59	14
20	21	11
26	82	5
25	85	2
21	25	3
16	19	6
121	121	19
96	97	11
92	92	12
11	13	14
108	112	2
119	123	1
27	27	49
5	83	5
17	19	7
94	116	4
43	44	18
35	37	8
46	74	2
15	23	2
25	93	3
28	90	3
41	43	3
26	27	16
17	73	1
0	0	10
17	55	3
2	2	18
74	75	4
9	100	5
20	86	2
79	82	12
29	29	36
57	59	2
75	78	1
31	62	1
58	59	11
20	32	2
114	115	10
69	134	1
14	36	2
130	134	2
42	43	20
116	131	5
35	68	3
76	77	14
112	113	16
6	83	2
16	16	31
58	60	7
36	40	3
83	134	4
4	20	3
98	98	34
109	109	26
22	36	2
20	55	3
75	76	7
27	28	20
45	85	1
33	77	10
12	92	1
18	74	1
72	74	4
17	18	10
18	19	7
2	3	9
13	13	23
15	114	3
99	131	3
30	31	16
91	91	17
107	107	27
47	48	17
42	42	6
84	85	11
73	74	12
105	123	4
73	83	5
131	131	16
49	81	1
16	114	3
129	129	14
7	92	1
126	126	22
124	124	12
60	63	4
93	95	6
5	6	5
104	105	12
23	25	3
4	4	24
26	41	2
100	100	23
69	70	14
33	80	6
29	62	2
14	14	27
0	1	4
4	45	1
8	35	6
94	95	12
27	93	3
38	44	1
126	131	1
77	77	21
62	71	4
59	60	7
64	67	3
1	1	10
120	120	21
34	37	6
92	96	3
35	45	5
84	86	6
90	91	9
14	16	2
10	46	3
85	93	5
125	127	3
104	104	11
4	6	10
6	100	3
31	33	3
56	57	3
70	134	1
77	120	2
28	36	5
80	116	1
92	93	7
9	11	1
15	16	14
27	80	6
34	35	9
25	48	2
7	14	1
126	132	4
11	19	5
27	82	1
46	61	4
4	11	2
26	28	6
8	14	1
70	71	8
24	25	3
36	41	2
94	100	3
35	78	1
112	120	3
25	94	1
86	93	1
107	108	6
9	47	1
13	26	2
77	93	1
54	54	2
11	61	4
20	56	2
6	11	5
12	46	2
131	132	5
13	14	17
83	85	4
125	126	2
69	76	2
25	27	4
101	103	3
97	129	3
30	79	2
47	93	7
88	93	1
28	91	3
7	16	5
111	113	4
10	11	7
89	89	3
102	104	3
30	33	6
7	96	1
33	76	5
25	60	2
27	75	3
76	76	35
54	55	3
63	66	3
26	93	6
56	79	5
3	101	4
25	29	1
124	125	10
68	71	4
46	46	21
123	125	2
127	132	5
8	76	2
29	31	1
93	101	3
4	7	3
103	134	2
132	132	6
84	116	1
98	100	6
5	102	4
7	36	4
28	98	1
29	49	6
23	24	4
114	114	10
105	113	2
7	115	2
2	86	1
17	47	2
115	116	5
115	115	21
3	4	6
122	124	4
95	113	3
31	32	33
86	111	1
120	128	1
8	48	1
89	92	1
41	42	12
79	81	7
7	93	3
103	104	6
28	84	2
82	86	3
85	113	7
71	74	2
29	30	10
74	77	1
103	127	2
64	70	3
57	78	3
70	74	1
28	31	1
20	57	2
97	98	8
12	18	2
37	39	4
55	79	1
8	79	2
101	102	2
9	64	4
35	69	1
47	65	5
37	41	2
105	106	7
98	101	1
22	23	3
13	93	3
97	99	3
74	78	2
25	46	1
14	20	4
39	39	8
42	112	3
47	75	2
38	39	6
66	104	1
47	62	3
14	91	2
26	30	1
107	128	3
45	71	4
133	134	4
23	27	2
117	134	2
21	30	1
5	48	2
129	133	2
45	74	4
35	39	1
88	90	1
81	82	11
62	74	2
55	80	3
90	124	1
68	72	2
81	84	1
76	78	10
45	70	5
10	12	1
24	24	20
11	48	4
132	134	4
55	57	1
89	134	2
68	70	6
115	128	1
12	21	1
130	133	2
8	10	3
69	71	7
77	117	3
14	35	2
29	92	1
40	44	4
28	29	9
8	36	1
107	125	2
67	68	1
78	115	1
111	112	12
48	78	1
21	39	2
10	14	1
48	49	4
12	16	1
13	16	4
116	117	3
66	67	4
116	125	3
6	50	1
128	129	7
21	29	3
30	49	2
95	100	3
22	26	5
25	84	2
12	96	5
83	88	2
3	99	2
110	111	5
55	56	4
39	40	3
95	103	3
126	129	2
102	103	3
19	74	3
35	36	18
26	47	9
10	85	3
14	99	1
11	46	1
63	64	2
4	42	3
8	12	3
88	91	2
21	27	2
40	42	5
66	83	4
4	17	4
90	93	1
61	73	3
64	74	2
33	74	4
62	70	4
129	130	5
55	78	1
7	11	3
92	109	1
118	121	2
28	45	2
8	117	3
122	123	1
116	128	7
115	134	2
29	48	6
62	64	5
4	90	2
21	22	2
81	123	1
116	123	1
63	65	3
126	127	1
10	18	2
48	59	2
20	30	2
33	63	1
6	115	1
118	124	2
3	9	1
127	128	3
11	96	2
57	111	3
116	124	2
51	51	3
62	68	4
16	25	2
9	99	1
70	116	1
13	36	1
20	102	3
5	91	2
72	83	3
11	71	1
30	39	2
68	74	3
23	42	1
106	107	5
29	60	3
28	79	2
21	83	2
9	61	2
36	82	2
4	93	1
134	134	8
82	85	5
8	28	1
81	115	2
22	30	1
95	97	4
104	106	4
7	8	2
73	77	3
6	93	3
49	57	1
17	104	1
11	12	7
108	114	3
15	20	3
93	98	1
115	133	2
63	70	2
99	101	4
5	41	2
33	43	3
46	72	4
46	100	2
6	97	1
91	92	2
96	104	2
35	60	1
11	27	1
64	68	1
129	131	2
60	61	6
36	75	2
38	55	2
29	47	2
118	123	2
35	77	2
8	13	4
115	124	1
31	78	2
94	108	3
6	91	2
99	104	2
33	79	1
102	105	1
35	70	5
11	49	1
28	75	7
91	93	1
109	119	2
47	101	3
4	55	2
94	98	1
22	60	1
119	122	1
6	35	2
20	40	1
48	95	1
21	26	2
43	84	1
20	26	2
77	78	8
18	20	3
14	18	3
84	113	5
26	90	1
6	16	1
126	130	1
120	122	1
17	86	2
83	100	1
27	76	3
79	116	2
63	77	1
36	69	2
16	23	1
38	81	3
50	50	4
11	17	2
26	39	1
12	47	1
27	41	1
8	83	1
116	134	2
11	59	2
7	48	2
13	89	1
86	102	1
95	106	1
28	74	1
32	76	3
108	125	1
36	37	4
78	82	5
95	101	1
11	43	1
75	79	1
111	114	1
60	75	1
93	118	2
88	89	1
16	94	1
113	129	1
38	40	3
6	13	1
9	76	1
84	88	3
109	110	2
76	105	2
63	71	1
13	45	1
46	63	2
6	8	2
11	21	2
78	81	2
84	100	1
14	87	1
2	9	2
10	16	1
71	75	2
118	119	2
11	45	1
23	26	2
22	24	2
27	46	1
6	12	2
34	73	1
29	44	1
71	105	1
25	73	2
107	109	2
32	36	1
96	98	1
33	41	1
35	41	1
4	100	3
88	94	2
56	71	1
16	35	2
40	112	1
112	121	1
6	20	1
26	79	1
59	65	2
25	47	2
87	94	1
6	30	1
11	29	1
93	108	2
64	66	1
76	92	1
9	98	1
27	92	1
11	101	1
88	92	2
7	114	2
32	47	2
5	12	2
117	120	1
4	5	3
28	32	2
90	111	1
115	117	1
93	126	2
78	114	1
38	78	1
61	71	1
5	9	1
88	108	1
4	91	1
10	13	1
76	104	1
83	94	1
31	37	1
4	96	1
27	77	2
103	125	1
89	91	1
29	93	1
6	88	1
30	47	1
11	97	1
89	100	1
122	125	2
83	114	2
7	12	2
8	75	1
21	32	2
95	112	2
21	62	1
7	43	2
91	97	4
26	61	1
88	100	1
14	19	1
62	94	1
20	24	1
81	83	1
21	60	1
76	82	1
109	112	1
110	112	3
13	19	1
7	59	1
28	78	1
65	99	1
112	114	1
119	121	4
15	32	1
29	59	2
49	50	1
130	132	1
76	120	1
90	99	1
102	119	1
78	117	1
27	30	1
36	43	1
31	36	1
8	65	1
22	85	1
7	64	1
39	81	1
10	71	2
33	35	1
62	72	1
25	82	1
77	83	1
92	94	1
28	46	1
35	71	1
80	81	1
6	60	1
125	128	1
70	88	1
4	16	2
45	90	1
127	129	1
99	112	1
36	78	1
13	43	1
19	85	1
26	77	1
114	118	1
1	2	1
59	62	1
13	32	1
42	58	1
28	48	1
79	115	1
11	92	1
