34	34	7
4	4	13
14	17	3
123	123	13
111	117	1
85	85	9
60	61	2
18	18	7
86	91	3
11	11	4
81	111	3
45	45	10
109	110	4
91	91	5
126	126	9
105	107	2
30	30	20
46	46	4
55	66	3
27	99	2
121	123	1
94	94	8
112	114	2
19	19	12
72	72	11
57	57	7
76	76	4
129	129	5
112	112	11
101	101	18
128	129	1
107	108	7
102	104	5
115	115	6
72	74	4
113	113	9
64	65	2
7	7	11
77	77	16
129	131	2
98	98	9
119	119	12
47	47	7
130	130	8
8	36	2
22	23	4
15	85	2
43	43	17
63	63	13
123	124	3
25	25	10
68	69	10
70	70	12
12	12	5
11	13	4
49	49	4
49	50	6
95	120	6
78	80	3
20	20	5
133	134	4
86	133	2
8	16	2
61	62	9
127	127	10
31	31	3
108	108	6
111	112	13
20	21	5
124	124	19
51	65	1
107	107	5
17	17	9
38	59	2
64	64	8
16	16	4
79	80	3
61	61	6
1	1	10
16	21	1
127	129	5
103	103	20
14	14	10
114	115	6
28	28	7
35	44	4
22	22	4
29	29	2
125	134	2
87	87	15
54	54	4
80	80	8
82	99	1
79	79	7
127	128	3
103	105	9
99	99	10
106	106	4
88	88	5
34	35	2
128	128	13
121	121	11
28	29	2
110	110	8
53	54	6
62	62	7
89	90	5
100	101	6
15	15	9
52	54	3
36	36	1
133	133	7
100	102	6
98	99	2
74	74	10
104	105	3
31	32	4
3	4	3
115	116	4
73	73	7
105	105	12
134	135	7
131	131	10
90	102	3
65	66	1
84	86	1
81	94	4
117	117	4
35	36	3
75	75	10
23	23	5
102	102	8
48	48	6
43	45	1
105	106	14
122	122	2
89	89	6
24	25	6
21	21	8
71	113	2
43	44	5
62	65	1
13	13	3
6	8	2
65	65	10
54	70	1
5	5	2
0	1	4
1	3	3
117	119	1
52	52	11
104	104	8
22	27	1
114	125	2
83	83	8
85	86	3
69	69	10
95	96	6
68	68	7
93	93	10
97	97	9
52	53	3
108	109	4
55	67	1
14	15	7
111	111	9
122	123	2
50	50	11
19	20	4
114	118	1
100	100	3
109	118	1
60	60	7
9	11	3
62	64	7
83	107	4
74	76	2
68	109	1
116	116	5
0	0	4
113	115	5
6	7	3
62	63	1
28	63	2
3	3	3
97	98	1
76	81	1
24	24	3
133	135	4
93	94	8
33	34	10
88	90	1
45	46	4
125	125	2
82	82	4
10	11	6
81	101	1
46	49	1
18	21	1
76	77	1
105	112	3
26	26	8
120	120	7
44	44	11
106	107	3
122	124	5
95	99	1
114	114	7
33	33	9
93	120	3
130	133	3
67	67	4
25	28	3
82	106	1
95	95	4
81	102	2
104	116	1
118	118	4
117	118	2
125	126	2
55	57	2
82	84	2
109	111	4
6	6	8
36	45	1
59	59	2
98	100	1
11	12	2
92	93	5
31	33	3
116	121	1
130	131	4
77	78	6
109	109	5
59	60	4
35	35	5
92	92	11
14	92	3
32	32	2
132	132	3
46	47	4
92	95	2
13	14	2
119	120	2
99	100	3
9	9	4
81	103	2
23	24	4
73	75	1
78	79	1
27	30	2
16	22	1
132	134	4
85	87	2
1	29	1
0	4	2
47	59	3
71	71	4
126	127	2
121	122	6
84	85	3
1	2	1
54	56	1
44	45	4
55	56	2
4	29	1
11	14	2
69	70	3
86	93	3
2	2	4
131	132	1
116	122	1
27	28	3
3	30	1
75	76	3
132	133	1
91	92	2
48	50	2
2	29	1
52	61	2
8	13	1
9	10	2
96	96	6
82	85	1
104	123	2
64	113	1
86	132	1
84	84	2
38	38	1
55	55	1
95	100	2
56	60	1
86	87	2
58	59	3
7	36	2
67	68	3
113	114	3
88	121	1
80	118	1
10	10	1
112	113	3
78	78	2
126	129	2
134	134	1
74	75	1
123	126	1
50	52	3
56	57	2
81	81	2
57	58	2
72	73	2
66	66	5
54	66	1
66	69	2
5	90	1
72	130	3
32	33	1
74	127	3
36	59	1
112	116	1
135	135	1
85	101	1
81	88	2
23	27	1
80	81	1
0	2	1
29	30	1
47	48	1
88	89	1
53	53	1
110	111	2
65	67	3
87	88	1
124	125	1
120	121	3
20	23	2
5	66	1
5	63	1
27	101	1
1	70	1
5	6	2
63	91	1
126	128	1
30	31	2
95	97	1
96	97	2
25	101	2
42	42	2
7	11	2
90	105	1
76	79	1
64	69	1
83	84	1
114	127	1
94	95	1
27	27	1
94	119	1
127	134	1
21	22	1
4	28	1
63	64	1
0	70	1
109	112	1
84	100	1
102	105	1
46	51	1
106	115	1
111	118	1
88	93	1
