53	53	24
50	50	31
92	92	26
113	134	6
113	113	27
43	43	15
38	38	15
123	123	14
74	75	7
101	134	1
65	65	18
75	75	22
100	100	14
72	74	2
122	122	12
6	33	1
103	103	17
92	93	11
34	35	3
44	44	14
104	104	18
80	80	28
37	44	1
93	94	2
96	97	7
11	11	9
78	122	2
34	34	17
115	115	16
107	107	15
126	126	39
56	56	7
91	91	16
98	99	4
79	79	21
67	74	1
97	97	12
29	29	8
13	65	1
20	21	1
62	62	11
6	34	3
63	63	28
123	126	7
90	90	23
102	102	24
108	108	5
22	22	21
9	10	8
2	5	5
99	99	19
47	108	2
130	130	27
73	119	1
74	74	16
45	45	9
70	70	10
93	93	12
2	2	8
60	61	8
54	54	12
19	25	2
66	66	18
114	114	14
76	76	18
44	92	6
112	112	16
101	101	26
127	127	12
42	42	5
7	127	5
108	131	1
125	128	4
88	88	15
109	110	9
21	101	6
126	127	2
134	135	4
52	59	4
7	7	10
84	84	11
105	105	20
98	98	21
86	86	6
85	125	2
117	117	10
0	28	2
60	60	12
94	94	32
59	59	13
28	28	12
4	105	2
33	34	14
121	121	16
48	48	1
72	72	22
47	113	1
128	129	8
68	68	14
132	132	18
119	120	6
120	120	23
31	32	2
118	118	21
16	16	20
55	55	7
109	109	11
14	14	14
34	114	1
64	69	3
89	104	1
49	49	5
73	74	6
65	69	3
69	69	14
10	10	8
116	116	11
91	98	1
45	46	1
31	31	9
126	133	1
64	64	23
65	106	2
82	82	8
24	83	3
62	63	8
72	73	13
114	128	3
127	128	13
44	64	2
71	71	14
113	114	7
88	95	3
22	23	8
110	111	8
32	32	15
89	99	1
89	89	9
24	24	9
81	81	21
87	88	4
78	78	3
0	1	3
125	125	13
7	18	1
79	87	1
77	77	20
134	134	10
94	95	5
19	20	8
79	80	15
2	3	7
66	130	3
46	49	3
44	122	3
19	36	2
58	86	3
123	124	6
116	127	1
5	5	13
44	108	1
120	121	3
116	117	7
36	38	6
130	132	3
107	117	1
50	110	2
21	21	10
23	23	8
126	135	2
95	95	18
124	124	26
95	101	3
55	57	4
122	123	3
61	67	2
132	133	9
10	11	4
6	12	2
14	36	2
72	102	4
16	18	7
107	118	4
129	129	18
125	129	1
67	68	3
68	69	3
131	131	4
76	77	6
59	60	1
133	133	10
81	82	4
13	38	1
79	88	1
77	92	2
114	127	1
56	68	2
12	12	9
15	16	3
77	78	6
131	132	5
57	57	7
56	82	1
35	36	1
25	26	4
89	90	6
73	73	15
83	111	5
52	53	7
96	96	15
18	19	3
16	17	5
87	87	18
94	98	1
110	113	1
0	102	2
51	60	1
66	67	7
62	126	4
33	33	15
107	109	3
85	85	17
0	0	5
54	56	1
59	86	1
4	4	3
106	106	6
56	58	1
73	114	1
6	6	12
53	55	4
50	51	3
64	65	6
58	58	4
1	1	7
55	85	1
54	108	3
85	86	1
37	37	16
97	120	3
29	30	7
97	99	4
109	116	4
56	107	2
84	85	7
4	124	1
82	131	5
84	112	2
20	20	6
47	47	4
89	97	5
79	82	1
28	29	4
89	94	2
32	33	5
8	8	5
111	111	15
135	135	6
78	106	4
84	130	1
128	128	9
14	19	1
86	87	3
71	72	8
66	111	4
118	119	3
26	26	10
46	47	4
47	52	1
104	105	4
58	59	2
10	24	1
58	108	1
102	103	5
114	123	4
35	93	1
71	80	2
99	102	1
9	9	4
34	49	1
16	39	2
61	69	1
3	4	4
13	13	6
76	128	1
64	96	4
130	133	3
50	130	2
0	3	1
44	45	5
5	6	3
30	31	2
121	126	2
101	102	4
61	61	7
110	124	3
14	117	3
112	117	2
57	58	2
70	71	2
100	104	1
19	19	3
0	130	5
34	126	1
52	52	5
110	110	6
67	67	5
8	9	3
118	133	6
119	119	4
48	52	2
107	108	4
126	134	2
105	106	5
83	84	1
114	115	8
54	110	4
110	132	2
113	117	3
25	27	1
44	59	3
43	135	1
1	102	2
13	123	6
97	123	1
13	15	1
30	30	13
118	120	3
91	92	6
35	94	1
66	97	4
84	90	1
108	109	3
24	25	2
108	110	6
57	64	1
0	93	2
11	13	1
121	122	3
58	87	4
129	130	1
95	96	2
112	125	1
73	103	1
91	96	2
53	54	1
61	64	3
79	98	1
24	47	2
115	116	4
102	104	1
35	35	8
84	131	1
50	99	1
24	26	4
125	126	4
61	106	2
47	57	2
111	124	3
83	83	3
55	84	1
109	117	1
69	70	3
88	89	2
36	37	2
69	88	2
62	114	3
76	105	1
59	95	2
19	21	4
82	83	3
130	131	3
81	116	1
4	107	1
46	46	3
117	121	1
97	117	1
25	25	4
51	71	1
0	101	1
67	69	2
71	99	1
88	104	1
78	79	3
123	132	4
17	17	2
128	133	1
112	113	3
25	83	2
82	85	2
122	132	1
60	109	2
59	92	3
12	17	1
113	116	1
14	17	1
111	132	2
10	15	5
3	3	5
66	84	2
73	75	1
65	113	1
1	2	1
120	123	3
66	69	1
99	100	3
45	50	2
14	15	1
63	92	1
88	90	2
106	107	4
19	22	2
113	115	1
72	80	2
85	129	2
78	96	4
27	27	4
35	114	1
75	76	2
44	53	1
99	101	1
52	115	1
89	100	2
60	106	1
10	16	1
50	59	1
74	104	1
50	71	1
17	21	1
49	54	1
5	31	1
108	117	3
61	65	3
81	134	1
45	80	1
55	56	2
45	122	4
9	117	1
15	15	2
12	101	1
21	22	2
13	74	1
13	17	1
56	57	4
44	116	2
17	18	1
115	133	2
6	7	2
76	85	1
63	69	4
116	118	1
92	97	2
17	26	1
129	131	1
90	91	1
92	98	1
70	80	1
109	128	1
81	86	1
109	111	3
7	8	1
115	128	1
106	109	2
65	66	1
54	55	2
43	122	1
68	109	1
10	68	1
78	111	2
36	39	1
63	116	2
77	115	1
71	103	1
42	69	2
107	110	1
29	94	2
59	119	1
82	87	1
12	102	1
77	123	1
94	99	2
7	98	1
79	106	2
72	103	1
55	115	1
81	91	1
50	132	1
110	117	1
58	113	2
97	107	1
50	98	1
85	112	1
63	64	2
112	126	2
74	90	2
34	113	1
61	76	1
0	2	1
125	130	1
9	26	1
72	101	1
2	101	1
7	11	1
50	80	1
96	98	1
22	35	1
44	77	1
46	51	1
14	111	1
1	75	1
64	73	1
12	114	3
124	126	2
49	108	1
121	123	1
52	116	1
43	45	1
9	24	1
55	110	1
54	58	1
66	101	1
34	43	1
47	60	1
43	93	2
54	115	1
72	93	1
60	118	2
1	95	1
50	60	1
25	43	1
47	98	1
94	102	1
70	72	1
59	113	1
