35	36	4
17	51	7
81	81	8
105	105	1
123	126	2
12	12	6
169	169	3
151	151	8
164	165	6
27	28	4
46	46	13
73	74	1
207	208	7
84	84	5
52	52	5
0	0	7
43	44	2
63	63	6
77	78	3
154	218	3
223	223	7
138	142	1
75	75	21
218	218	6
173	222	2
214	214	5
208	208	4
97	97	5
117	217	1
219	219	6
177	177	1
109	192	2
37	37	12
198	200	2
194	196	1
213	214	2
118	119	1
34	34	4
40	40	8
216	216	4
5	9	2
161	161	11
175	195	4
14	34	1
187	206	1
14	15	4
169	170	9
96	97	10
159	160	3
186	189	4
70	70	11
198	199	7
144	144	11
143	143	6
125	218	1
133	133	1
227	227	4
45	47	3
114	115	1
129	138	5
198	214	3
208	210	2
82	82	7
21	23	2
137	170	2
115	116	7
166	166	6
10	11	4
2	2	9
144	165	4
183	204	2
1	2	4
102	102	3
15	31	2
203	203	7
126	158	2
224	225	8
28	28	11
108	108	5
43	43	9
236	236	6
235	235	2
80	88	1
190	190	3
64	65	4
149	150	4
44	45	2
7	7	3
20	20	11
179	200	2
204	204	1
74	74	13
124	139	2
240	241	3
62	62	13
125	125	8
35	52	5
123	123	13
48	50	3
32	40	3
76	84	3
147	148	3
81	82	6
234	234	3
24	24	10
67	67	8
159	159	4
49	132	2
225	226	3
26	26	6
144	190	1
53	54	1
138	141	3
50	50	6
65	66	9
131	219	3
186	191	4
208	228	4
150	150	3
3	3	5
85	85	3
137	138	8
9	14	3
141	142	7
126	127	4
116	117	1
46	99	7
200	200	1
99	107	3
193	195	4
23	23	3
68	124	5
238	239	2
147	147	11
9	9	16
31	51	4
99	99	4
54	54	3
98	107	3
83	83	2
84	85	1
140	140	3
61	61	10
103	166	1
176	176	5
11	12	6
203	204	2
42	42	11
104	104	7
58	58	9
241	241	4
21	35	2
172	226	1
170	214	2
68	81	2
124	124	2
2	3	5
31	77	4
78	78	9
60	127	4
10	44	3
137	137	6
22	50	3
79	79	13
174	175	6
162	162	3
206	206	7
144	145	3
183	184	3
199	199	1
217	217	3
211	211	3
13	13	2
133	134	5
29	29	8
74	80	1
174	174	2
111	111	1
160	160	4
15	15	1
146	146	4
181	181	4
36	48	5
135	135	3
58	70	1
184	189	3
16	16	3
23	24	3
50	78	4
116	116	3
129	130	4
41	41	11
19	50	1
47	51	3
106	106	4
112	112	4
13	31	3
202	203	1
40	41	3
158	158	4
129	129	3
145	162	3
7	45	1
222	227	1
41	42	2
7	8	5
33	33	8
229	229	6
59	59	7
139	140	2
8	8	11
9	15	1
88	88	4
6	6	5
223	224	4
18	30	3
175	175	1
1	1	3
103	103	6
63	207	5
55	58	1
0	2	5
210	210	6
223	229	2
32	32	4
73	73	2
3	6	2
5	209	1
5	7	2
81	83	3
220	222	2
82	83	1
62	64	2
157	157	3
137	142	2
27	62	1
25	25	7
47	47	3
12	17	2
140	170	1
76	76	6
104	108	1
178	199	2
114	114	2
208	213	2
6	50	2
141	141	5
165	167	2
212	213	6
164	164	8
20	30	3
147	174	2
124	125	4
216	218	1
48	74	3
4	5	1
191	191	5
145	145	4
61	65	2
209	209	4
76	88	5
209	211	1
80	80	1
59	60	5
86	86	2
0	45	2
45	46	2
111	115	4
14	81	1
31	57	1
69	72	3
83	105	3
39	39	2
1	45	3
242	242	2
189	191	2
20	37	1
130	130	2
76	78	1
192	192	5
163	199	1
212	212	2
135	136	3
170	218	3
220	220	3
96	96	2
97	98	4
222	229	4
61	64	3
188	193	2
4	12	3
116	200	1
154	160	2
20	41	1
55	55	1
149	164	3
138	138	1
82	159	1
62	63	2
232	232	1
10	10	8
104	158	3
172	242	2
65	228	1
153	154	1
58	66	2
120	122	1
64	64	2
59	66	4
177	178	2
125	127	1
117	119	3
167	167	1
68	96	1
187	187	5
27	27	3
8	9	2
165	165	2
15	17	2
18	48	1
134	134	5
18	19	4
36	36	1
148	163	1
169	214	1
21	21	10
75	84	1
158	159	1
224	224	5
6	7	3
46	128	2
44	133	1
106	143	5
5	36	1
57	57	3
128	128	5
237	237	4
180	181	4
198	198	1
239	239	2
7	48	2
102	174	2
30	30	5
19	30	1
214	215	4
148	148	6
199	210	2
68	68	4
35	35	7
139	139	7
145	146	2
48	107	3
22	41	2
37	38	1
75	88	4
221	221	4
200	202	3
32	33	4
154	161	2
43	61	1
104	105	3
95	111	2
127	202	1
23	33	2
103	121	1
17	48	1
80	81	2
5	5	2
128	143	5
205	206	2
11	11	3
4	4	3
19	42	2
238	238	3
156	156	6
173	173	9
44	221	2
157	159	2
222	223	1
176	222	1
152	152	1
72	72	6
7	53	2
162	167	1
41	49	2
185	185	5
148	177	1
47	48	1
178	202	2
134	175	3
30	31	2
0	156	5
11	28	1
234	235	2
43	54	3
78	80	1
233	233	3
162	166	1
20	21	1
104	147	2
155	156	1
20	88	1
200	201	1
148	169	1
196	196	3
205	205	1
130	178	1
115	121	5
107	108	3
208	211	2
240	240	1
17	17	2
5	6	3
184	184	1
221	227	1
131	131	2
194	194	4
113	113	1
202	202	6
45	45	5
31	31	3
135	175	3
219	226	1
101	101	6
201	201	1
103	155	1
114	186	1
180	180	2
230	231	1
154	154	3
112	113	2
47	128	3
79	84	3
163	165	3
105	129	1
38	38	6
8	123	2
185	186	3
222	222	2
13	34	1
239	240	2
22	22	1
118	118	2
164	200	1
228	228	4
84	88	1
16	17	1
77	79	2
38	39	3
68	80	1
159	161	4
55	64	2
51	52	3
18	22	1
20	50	2
63	64	3
140	167	1
125	217	1
66	66	2
122	126	3
174	195	1
36	37	1
215	216	1
117	118	1
114	169	1
3	48	2
44	44	1
31	41	2
71	71	4
231	231	1
7	49	2
142	143	3
65	71	1
162	218	1
13	14	1
181	182	1
6	35	2
20	34	1
123	127	2
107	107	2
55	69	2
101	103	4
11	46	2
25	52	3
117	130	7
48	49	1
68	69	2
31	60	1
109	109	1
149	149	3
9	10	1
83	154	2
178	178	1
174	242	1
119	119	1
69	179	1
136	137	2
121	121	2
159	170	2
105	169	1
16	49	1
18	18	2
49	49	3
155	159	1
6	79	1
103	168	2
172	172	2
69	69	1
108	113	1
234	239	1
233	235	1
71	127	1
172	174	1
76	77	1
14	221	1
18	49	1
4	13	2
32	88	1
56	58	1
159	218	4
197	212	1
138	139	2
140	144	1
33	34	1
20	105	1
115	115	1
22	89	1
237	239	1
162	168	1
13	75	2
227	228	1
65	65	3
182	183	2
82	158	1
195	217	1
10	128	1
162	213	3
51	51	2
35	48	1
123	124	2
152	242	1
19	38	1
140	141	1
80	85	1
183	201	2
12	29	1
120	121	3
56	56	3
19	19	1
103	174	1
29	81	2
66	67	1
166	168	1
186	186	1
117	117	1
20	24	1
10	20	1
50	52	1
95	211	1
85	86	1
95	95	1
136	150	1
216	230	1
72	73	1
154	219	2
13	17	1
5	78	1
140	169	1
109	113	1
19	23	1
175	243	1
81	84	1
8	129	1
159	162	1
130	163	1
111	114	1
162	214	1
0	1	1
80	103	1
83	161	1
195	195	2
175	179	1
50	53	1
19	20	1
179	179	1
193	215	1
106	128	1
