130	131	5
101	101	31
22	22	12
116	116	7
31	31	17
2	3	1
157	157	10
44	44	13
36	37	18
123	124	15
88	88	13
135	137	5
62	62	4
135	143	1
132	133	9
33	34	6
145	154	4
8	33	3
100	101	11
130	130	10
114	114	9
115	121	1
129	130	10
156	156	13
147	147	11
67	82	2
7	7	24
1	1	8
104	104	17
26	26	10
82	82	4
105	158	6
93	93	12
130	135	2
16	17	5
128	151	5
148	150	5
75	116	9
128	128	19
73	73	11
145	145	3
80	80	12
106	107	9
3	3	10
102	104	2
150	150	16
50	52	4
105	105	18
44	73	3
22	54	1
21	21	9
119	119	15
108	129	5
2	2	11
129	129	30
99	99	17
131	134	3
99	101	2
104	130	3
107	108	6
108	109	11
119	120	4
95	95	17
12	43	1
24	24	11
77	87	4
98	101	3
138	138	35
19	34	2
109	111	5
96	96	11
20	21	6
104	105	9
106	106	10
81	82	5
53	54	5
50	51	19
4	67	3
10	11	12
43	43	15
112	112	6
40	41	11
46	52	1
136	136	19
120	120	5
78	84	8
33	37	3
16	16	6
19	22	2
38	38	2
25	25	17
22	23	2
45	45	17
68	69	16
123	123	10
113	123	5
43	51	3
19	19	14
0	3	4
85	107	4
32	48	3
75	75	11
4	28	4
0	0	19
71	71	10
103	137	4
146	146	10
4	5	8
77	77	13
118	154	4
76	121	2
131	131	11
124	124	7
32	36	4
87	91	3
134	134	20
26	27	4
109	138	10
127	127	20
17	17	19
112	140	1
139	139	9
87	87	8
73	82	4
64	84	5
121	121	12
154	155	10
136	137	11
109	113	3
154	154	15
6	6	15
67	67	5
17	25	2
105	131	3
28	30	6
38	39	10
7	8	8
96	122	3
69	69	4
11	11	4
117	117	15
23	23	25
42	43	5
97	97	11
86	94	5
147	148	12
79	83	2
1	98	1
17	39	3
71	72	1
103	158	4
110	110	7
19	20	2
89	89	9
123	127	1
90	134	2
46	46	11
109	110	2
95	97	1
140	140	6
24	30	1
131	132	10
155	157	2
15	16	4
51	51	29
40	55	4
36	44	3
152	154	8
25	27	4
57	57	5
5	5	17
64	65	5
120	121	14
79	80	12
93	139	1
118	118	11
140	141	7
103	103	4
138	139	7
86	88	3
27	27	15
118	119	7
70	71	2
33	33	3
113	113	8
13	13	4
137	137	12
8	11	3
41	41	11
126	141	2
18	37	1
20	20	12
18	34	1
144	147	5
151	151	9
10	10	14
158	158	16
78	78	14
66	72	1
150	155	2
32	37	1
119	121	1
55	55	16
24	25	8
13	14	1
117	118	11
134	135	4
56	65	4
94	94	18
1	4	6
28	28	16
17	18	4
42	42	13
92	117	1
1	2	7
34	34	2
114	115	6
27	28	3
55	56	7
107	107	10
121	123	5
122	122	14
4	4	14
2	4	8
98	98	12
41	55	1
54	55	6
156	157	9
18	53	2
102	102	7
92	92	6
72	81	2
48	48	10
85	139	1
115	115	16
40	48	1
53	71	2
94	158	1
56	56	8
2	98	5
49	50	3
65	65	5
37	37	11
67	71	2
155	158	1
125	125	14
66	66	5
44	47	2
108	110	8
133	134	3
122	123	1
112	138	3
81	118	1
50	50	7
111	138	2
30	30	9
80	82	4
56	57	4
83	84	5
0	2	4
67	69	2
83	117	1
95	156	1
103	125	2
13	19	2
112	141	5
5	24	2
14	14	14
54	54	14
70	70	1
148	149	5
150	157	3
142	153	1
18	18	12
146	147	5
152	152	6
118	120	5
12	13	2
84	139	2
84	84	4
69	70	4
42	49	1
71	82	1
36	36	5
9	9	4
127	141	3
126	126	11
93	94	2
108	108	12
77	84	1
90	91	8
139	151	1
39	42	4
42	51	2
8	32	1
23	24	3
44	45	17
64	64	3
9	11	3
85	90	3
73	99	3
53	53	8
148	148	9
66	68	3
149	149	4
105	157	2
16	39	2
155	156	7
8	34	2
29	122	1
91	91	21
99	100	5
112	127	1
135	135	7
45	46	3
22	55	4
42	68	2
115	116	10
94	100	1
103	126	3
109	115	4
121	122	1
52	52	7
109	109	5
81	81	3
17	35	3
142	142	6
133	133	12
143	143	4
116	117	4
84	86	2
141	141	2
111	111	4
111	125	4
85	138	6
12	31	2
87	88	7
68	70	4
117	141	6
12	12	3
153	154	13
157	158	2
39	40	1
37	70	1
144	145	5
90	135	1
28	31	5
107	150	2
8	17	2
100	100	5
47	49	3
33	76	4
144	144	11
35	77	3
16	41	1
7	10	3
105	106	3
33	35	1
129	138	2
28	29	2
43	129	1
92	115	2
90	137	2
15	15	6
0	98	3
85	85	5
6	24	2
145	146	2
32	76	2
137	138	3
11	42	1
47	48	3
126	144	1
49	49	7
43	46	1
50	53	3
7	17	2
150	151	4
106	144	2
7	30	2
70	99	1
25	28	3
42	48	1
32	73	2
66	96	4
76	77	1
7	15	3
129	133	1
86	92	3
115	122	1
155	155	7
32	33	2
3	69	5
35	35	9
81	121	4
107	141	1
6	8	1
31	32	9
24	92	1
29	29	13
22	31	3
128	132	2
76	76	1
18	35	1
147	149	1
19	21	2
88	91	3
6	11	2
17	36	3
92	93	1
85	87	3
48	49	1
38	42	1
94	95	2
127	145	1
48	51	1
52	53	3
124	125	4
111	112	1
142	143	3
90	90	6
52	54	1
134	136	2
77	78	5
111	116	5
26	28	3
53	72	2
47	47	11
94	97	4
104	149	2
39	50	1
126	127	5
66	70	2
29	30	3
113	122	1
0	1	2
36	54	1
110	148	1
128	139	4
73	75	4
113	115	5
86	86	5
105	107	1
153	153	3
81	84	2
43	67	1
8	8	2
43	54	2
9	13	1
148	152	1
13	30	1
75	136	2
7	122	2
92	116	2
48	50	2
36	70	2
27	29	2
2	84	1
79	79	5
132	135	1
3	4	3
74	74	3
30	31	3
15	18	2
83	83	1
84	107	1
125	126	4
110	111	1
93	156	4
10	15	1
45	47	3
134	137	5
40	40	2
88	89	2
39	39	1
95	96	3
37	49	3
124	126	1
12	16	1
17	23	1
144	154	1
19	52	1
123	125	1
92	127	1
43	47	3
132	132	3
53	69	2
36	41	1
144	148	1
32	32	7
5	27	2
43	53	1
137	142	1
79	82	1
41	48	1
38	67	2
38	43	1
129	158	1
84	85	2
23	44	1
56	63	2
17	19	3
19	56	1
72	80	3
85	86	2
87	94	1
109	145	1
72	72	2
2	97	1
89	134	2
51	52	1
6	26	2
16	44	1
43	55	1
17	42	1
91	120	1
80	81	2
105	138	1
110	138	2
8	10	1
97	98	1
103	150	1
46	73	2
127	128	1
67	68	3
7	13	1
46	47	1
152	156	2
106	145	1
36	50	1
42	55	1
152	153	2
114	123	1
97	142	1
136	142	2
145	147	1
89	135	2
11	12	1
16	38	1
111	127	1
64	87	1
78	83	1
66	80	1
55	67	1
65	66	1
49	51	1
116	139	1
32	50	1
102	130	1
111	139	1
73	74	1
87	117	1
136	143	1
130	138	1
72	73	1
111	141	1
142	154	2
111	124	1
86	87	1
95	158	1
18	23	1
65	128	1
88	107	1
