57	57	9
55	55	2
47	47	12
10	10	17
125	125	11
108	108	3
117	117	6
24	26	2
8	34	1
151	162	2
121	121	4
161	161	8
44	46	9
165	167	1
12	13	4
93	94	9
156	156	3
102	102	1
173	174	4
11	11	8
54	55	4
123	123	4
62	62	4
2	2	3
33	35	5
71	71	4
87	107	1
13	13	11
29	33	3
137	138	1
18	18	7
109	111	2
30	30	9
99	99	8
21	21	3
18	37	1
154	154	8
45	45	5
44	44	2
155	155	7
38	38	15
109	126	1
151	151	4
169	170	6
149	149	7
143	162	3
38	65	4
60	62	2
86	104	1
174	174	5
128	128	3
22	22	4
125	126	3
48	48	11
137	137	5
16	16	3
147	147	10
72	72	7
31	31	13
58	62	2
3	3	6
2	3	2
33	33	1
77	77	10
127	127	13
19	24	1
74	83	1
115	115	2
178	183	5
63	63	2
68	137	3
132	133	4
87	97	1
90	100	2
167	167	2
166	167	5
17	20	2
15	15	5
8	8	10
90	125	2
130	130	5
7	40	1
123	141	1
136	138	1
34	59	2
93	93	5
72	109	2
181	181	3
91	98	9
123	126	3
157	157	11
131	131	4
73	104	2
99	108	4
29	29	1
138	138	3
90	90	7
28	29	4
89	106	2
6	6	2
26	30	3
94	95	6
170	170	2
163	164	4
27	33	3
118	118	5
173	173	1
153	153	5
111	112	1
104	104	7
101	101	7
19	20	5
139	139	4
134	134	3
73	73	3
142	153	2
129	131	3
96	96	2
136	136	4
90	127	4
133	133	3
4	4	2
34	34	8
190	190	1
81	105	4
95	150	2
28	28	1
113	113	6
70	70	2
21	22	8
79	79	7
141	142	6
41	60	2
53	138	1
171	171	2
183	183	4
32	35	1
38	39	4
56	62	1
81	81	6
177	183	2
76	76	2
140	140	4
133	148	3
113	129	1
130	131	6
9	10	3
19	26	3
145	145	7
165	165	3
83	83	1
68	68	1
120	120	6
155	156	2
84	84	1
66	67	3
176	176	1
124	125	2
126	126	3
45	46	1
148	148	7
56	57	1
150	150	6
36	36	7
7	7	7
27	27	8
100	128	1
107	107	5
27	29	1
19	19	5
53	53	3
105	106	1
59	60	2
119	119	2
24	24	5
97	125	4
66	79	3
116	116	3
126	150	2
89	89	2
54	54	5
111	111	3
189	190	4
120	121	1
13	15	1
179	180	2
83	110	2
14	15	3
87	140	2
75	82	1
114	114	5
131	133	1
14	14	4
71	133	2
75	75	1
26	26	5
141	141	6
146	146	2
144	144	2
82	83	1
141	143	2
142	142	1
56	56	1
36	37	1
10	12	1
132	150	2
86	87	6
103	130	5
40	40	1
11	13	1
126	133	2
129	129	3
96	98	2
112	112	5
145	164	2
34	35	3
180	180	3
46	46	7
110	110	1
85	85	1
185	186	2
25	25	3
138	139	6
111	165	2
188	189	1
37	37	4
160	161	1
64	64	3
182	182	1
145	146	1
78	78	3
87	87	1
164	165	3
158	159	3
26	41	3
104	131	2
97	98	2
65	65	1
56	103	3
180	181	1
17	17	3
128	129	2
33	37	5
146	147	1
71	102	1
81	82	3
34	38	3
97	97	4
7	8	2
165	174	2
82	82	7
153	157	1
56	88	1
35	35	2
12	12	3
145	147	2
162	174	1
61	103	1
88	89	1
122	125	1
98	100	1
88	88	3
159	160	1
72	83	2
133	134	1
30	31	1
158	158	2
142	144	6
144	146	1
105	105	2
39	39	1
134	137	1
55	61	2
67	67	1
115	120	2
5	5	2
135	135	3
188	188	1
91	109	2
17	26	3
28	31	2
132	132	1
70	71	1
60	60	3
186	186	2
73	107	1
94	94	2
42	59	1
4	41	2
1	1	6
177	177	3
17	21	1
95	95	1
148	153	1
174	175	1
153	154	1
103	103	1
22	23	1
38	134	1
52	52	2
17	19	1
164	164	1
143	143	1
35	36	1
180	182	2
101	126	1
66	66	1
91	94	2
62	68	2
148	154	2
43	43	5
74	121	2
11	26	2
92	93	2
113	114	1
42	46	1
110	111	1
88	116	3
159	174	2
20	67	1
179	179	2
148	151	1
27	30	3
152	152	1
179	183	3
13	16	7
41	41	1
166	166	3
91	92	1
30	35	1
59	61	1
58	61	1
36	133	1
122	122	2
20	20	1
73	106	1
86	86	4
92	109	1
82	139	1
121	130	2
140	164	1
67	80	1
133	136	1
20	21	1
30	36	1
121	122	1
80	105	1
156	161	2
135	137	1
106	112	1
120	122	1
167	184	1
159	159	2
171	172	1
61	61	1
54	87	1
149	150	1
169	169	2
110	112	1
13	14	1
75	81	1
91	91	2
152	153	1
157	160	1
175	175	1
166	185	1
93	101	1
84	85	1
15	65	1
177	178	1
96	97	1
90	110	1
57	62	1
130	132	1
42	42	2
0	16	1
138	140	1
5	6	1
59	59	1
46	47	1
168	173	1
175	183	1
157	158	1
57	66	1
