5	108	2
27	27	7
20	20	6
129	129	35
29	31	4
95	95	10
100	102	1
75	129	4
17	17	7
108	108	3
109	117	1
92	92	9
80	80	10
114	115	5
101	101	11
5	8	3
27	36	5
38	38	3
36	37	4
88	89	2
102	103	1
128	128	16
102	102	11
131	140	1
110	110	15
19	19	15
73	73	6
17	22	5
124	124	19
15	15	17
137	137	18
113	113	9
18	19	5
118	118	12
134	135	11
98	98	13
89	89	13
99	100	1
97	98	8
127	127	12
3	3	12
134	134	14
122	123	6
12	12	23
118	119	2
21	21	14
131	131	21
122	122	23
126	127	8
114	121	2
37	37	1
80	81	9
35	35	12
125	125	21
9	23	6
135	136	8
116	116	16
123	123	16
76	76	21
94	94	9
91	91	11
34	34	11
2	4	5
110	111	9
79	79	8
12	15	5
85	85	3
78	78	10
130	138	2
96	111	5
7	7	15
20	88	1
5	5	3
6	6	8
84	84	5
10	11	8
89	113	1
111	111	16
99	99	1
133	134	12
4	4	5
100	100	15
135	135	10
120	120	11
105	105	5
102	109	4
1	2	5
112	112	11
16	16	5
126	126	12
81	82	5
94	105	2
114	114	14
138	138	4
85	109	2
32	33	8
73	74	14
24	24	4
115	115	7
22	26	3
93	96	3
97	97	6
139	140	4
121	121	2
8	9	4
116	117	2
132	132	16
136	136	17
87	87	10
104	104	6
84	86	4
19	20	7
88	88	10
25	25	7
28	28	7
88	90	4
120	121	6
139	139	10
81	81	6
124	125	6
76	77	3
96	96	10
4	99	5
13	13	13
123	124	2
86	86	7
33	34	1
79	80	3
113	114	10
32	32	9
140	140	10
101	104	5
36	36	8
22	22	7
109	109	4
0	0	9
14	14	4
103	103	5
93	93	6
24	25	5
28	29	7
17	18	8
9	9	4
67	71	1
117	119	4
129	130	7
75	75	10
5	97	2
7	9	5
130	130	17
109	114	3
135	139	1
93	94	6
99	116	1
130	131	12
121	122	2
16	18	1
33	33	8
18	18	13
6	7	3
101	103	2
77	77	4
0	1	3
131	132	11
131	139	1
11	11	2
3	4	4
14	15	3
15	25	5
119	120	8
31	32	3
115	128	4
117	117	7
133	133	9
104	105	3
11	22	3
25	26	6
15	126	1
82	82	6
98	99	3
136	137	1
20	21	2
36	76	4
20	38	3
31	31	5
84	101	1
90	91	8
101	102	1
8	22	2
26	26	3
120	122	5
108	109	3
93	105	3
95	116	2
29	29	2
80	83	4
10	10	5
103	107	4
81	84	1
17	21	1
89	91	2
105	106	6
82	83	2
71	72	2
90	90	3
124	126	4
91	92	1
107	107	6
94	117	1
30	126	1
107	112	3
1	1	3
21	22	1
102	112	2
127	131	1
13	14	2
8	35	1
8	8	5
104	106	3
103	109	3
136	138	1
91	110	1
109	111	2
132	133	2
133	135	1
127	128	4
83	84	1
104	107	1
27	28	3
129	134	1
129	137	3
126	130	1
72	72	3
23	24	1
83	89	1
71	71	5
97	110	1
96	97	2
119	119	1
128	129	3
81	83	1
3	115	1
30	32	1
95	100	1
125	127	1
4	5	2
116	127	1
34	36	1
137	138	1
114	127	2
99	128	2
131	133	1
96	129	1
102	104	1
82	84	1
27	29	1
134	136	1
97	135	1
100	101	1
106	111	2
74	75	1
112	113	1
16	26	1
94	95	4
16	17	2
109	110	1
90	111	1
87	88	2
129	138	3
9	10	3
86	87	1
92	129	1
74	76	1
114	116	1
128	136	1
66	69	1
125	131	1
2	2	1
80	87	1
100	113	1
12	27	2
79	90	1
5	32	1
8	12	1
96	112	1
23	23	1
135	138	1
98	123	1
1	4	1
118	120	1
