21	21	6
125	130	2
45	45	6
36	36	17
44	44	6
90	90	11
6	6	9
64	66	3
118	123	2
129	129	5
117	117	4
85	117	1
26	26	4
77	114	2
55	57	4
70	70	6
122	131	2
17	17	5
98	98	5
60	65	1
83	117	5
61	112	2
123	123	7
99	100	3
106	107	7
115	120	2
121	135	8
0	1	3
28	28	2
77	81	5
82	84	4
83	83	8
11	14	1
105	106	5
49	49	2
125	125	4
65	66	5
116	116	4
31	32	3
11	11	4
84	110	3
108	108	8
105	111	8
3	3	10
126	126	6
5	13	2
110	110	4
46	47	2
79	79	3
107	107	5
63	63	3
114	115	6
66	66	7
78	87	1
87	119	5
51	87	1
100	128	2
61	117	4
75	75	7
16	16	8
117	122	2
48	48	4
10	11	1
53	54	7
55	56	1
8	42	4
57	61	5
122	123	5
52	52	6
13	13	1
102	102	20
87	87	1
68	68	8
34	34	8
53	53	14
89	103	5
38	38	4
24	24	1
128	129	5
50	80	1
9	9	2
64	64	5
116	126	3
88	88	8
86	117	2
73	73	3
1	1	2
31	104	3
132	132	4
62	62	9
12	12	2
1	2	7
27	27	4
92	92	6
79	100	1
74	74	13
52	53	4
67	68	2
77	78	6
54	55	1
72	72	3
10	10	7
70	90	2
37	38	1
84	84	5
56	56	4
125	132	8
64	76	2
77	77	2
105	127	2
20	21	2
124	129	4
68	80	5
115	115	3
80	80	5
45	66	2
0	0	11
23	34	5
108	115	3
89	89	3
96	97	3
114	114	4
91	92	4
121	125	2
125	128	3
97	97	3
83	84	3
101	102	2
121	121	11
60	60	2
63	102	2
82	87	6
131	132	2
130	131	2
93	93	3
85	85	7
68	100	4
99	99	2
67	67	4
93	94	1
53	59	2
77	79	3
69	69	7
110	113	2
14	14	2
133	133	1
56	67	1
19	19	3
110	111	3
91	103	3
33	58	7
35	35	9
104	104	9
82	120	1
103	104	3
49	101	1
58	86	2
57	57	9
105	105	2
57	67	3
87	110	2
106	109	2
62	84	2
90	97	1
124	124	6
5	6	1
54	54	5
58	109	2
81	81	2
128	128	3
35	43	2
2	2	3
78	79	2
118	118	8
50	100	2
95	97	2
103	103	3
130	132	1
30	30	6
14	15	2
106	106	4
106	111	2
59	59	5
71	71	3
102	103	5
61	62	3
33	33	3
91	91	7
82	82	2
115	116	1
89	90	6
4	5	4
94	94	3
100	100	1
131	131	1
72	75	1
99	101	3
83	110	5
108	122	3
26	27	7
119	129	2
68	69	1
6	7	1
55	55	2
103	121	1
105	108	1
118	119	4
84	106	4
82	86	3
112	112	2
21	27	1
48	50	1
61	61	5
25	33	1
92	113	4
54	57	2
135	135	1
106	128	1
109	109	3
117	118	4
26	28	2
88	93	4
112	115	4
102	104	2
96	100	1
35	36	1
127	127	3
108	109	3
12	14	1
59	61	1
20	20	6
69	70	1
132	133	1
65	68	2
8	8	3
43	43	3
62	63	1
45	53	2
31	90	2
48	66	4
33	34	2
64	111	3
92	112	3
120	120	2
87	120	1
62	64	1
121	122	1
130	130	1
66	69	3
97	100	2
29	29	4
86	86	3
96	96	2
109	110	1
4	4	3
101	101	1
134	134	2
30	32	1
62	112	1
127	131	2
90	102	1
76	76	2
65	65	3
61	118	1
84	85	2
49	56	2
71	72	1
107	112	1
95	95	1
75	76	2
21	24	1
23	25	1
53	56	1
42	54	1
66	67	1
106	124	1
58	58	1
23	27	1
19	21	1
45	46	1
93	105	1
108	113	2
129	133	1
3	4	1
23	24	2
78	78	1
122	126	1
21	22	1
89	91	1
131	133	1
43	44	1
