116	120	3
136	136	5
27	27	14
132	132	1
84	114	4
6	6	4
162	162	3
141	141	6
41	41	3
109	109	3
79	79	5
32	32	3
59	64	4
79	80	1
169	170	5
1	48	3
154	155	2
45	45	5
99	100	4
57	57	4
52	52	2
185	185	3
20	20	2
148	148	2
69	70	1
188	188	11
63	69	2
62	62	4
24	24	5
47	96	2
19	19	8
179	179	5
9	9	4
73	73	4
141	144	5
19	48	4
76	76	2
122	122	5
63	78	4
163	163	7
44	46	3
121	122	3
62	63	3
26	26	1
85	85	4
184	184	4
118	118	7
187	187	2
101	101	1
48	48	6
115	137	5
119	119	3
54	68	5
121	121	1
59	59	7
155	156	1
3	4	1
85	86	4
166	166	3
145	145	7
171	174	1
180	187	1
18	18	7
122	147	1
89	89	5
180	180	1
142	142	3
101	103	4
138	143	3
58	59	1
146	146	1
102	102	3
57	58	1
66	66	4
93	114	3
88	88	2
63	65	1
71	71	5
175	176	6
74	74	5
42	47	1
82	82	3
185	186	2
55	93	1
55	55	5
160	162	3
144	170	3
97	97	2
167	169	3
92	93	2
39	39	5
75	75	3
130	136	2
174	174	5
61	61	6
186	186	7
53	53	7
7	7	2
66	94	2
100	100	2
116	117	4
135	135	4
59	83	3
86	99	2
76	94	3
93	103	1
35	35	5
153	153	4
1	1	1
174	175	5
8	8	1
58	58	1
36	37	3
46	46	8
38	40	4
149	150	2
82	164	3
115	130	3
81	114	2
90	143	3
34	34	2
91	91	3
190	190	2
80	85	2
149	149	3
100	103	2
74	86	1
151	166	2
175	187	3
70	87	3
169	169	3
40	41	2
182	182	2
152	152	8
56	56	1
140	140	1
154	160	1
107	116	3
66	68	2
43	43	1
71	121	1
142	170	2
126	127	5
64	80	1
116	132	1
175	175	3
161	161	1
2	39	1
22	22	4
87	88	2
17	22	2
25	25	3
11	11	2
86	86	1
143	143	3
165	165	1
162	179	1
126	126	1
112	112	1
133	133	3
92	138	1
95	95	2
165	183	3
66	67	1
171	171	1
40	40	2
171	172	3
163	165	4
3	3	1
176	176	1
0	0	3
38	38	5
17	19	2
123	123	2
99	99	1
137	137	1
189	189	3
177	178	2
54	54	1
119	120	1
81	81	1
146	163	1
170	183	4
114	114	2
22	35	1
21	21	3
86	87	2
70	82	2
105	105	2
172	173	1
189	190	1
152	153	2
130	140	3
11	13	2
176	182	2
154	154	1
140	141	2
88	89	2
168	168	3
58	61	1
77	77	3
28	28	1
108	109	1
186	187	2
67	84	1
155	155	1
26	29	1
5	5	1
84	84	2
100	106	2
146	168	1
86	135	1
91	92	1
36	36	1
165	181	1
90	91	1
111	111	2
82	165	2
37	38	1
98	98	1
144	169	2
108	108	1
22	23	1
25	40	1
74	79	1
173	173	1
61	62	1
158	158	1
39	40	1
