107	107	6
82	157	1
94	95	4
10	12	3
108	108	2
33	33	9
86	148	2
110	151	5
1	71	2
68	70	7
111	111	4
137	137	8
36	36	3
26	37	2
116	136	1
47	47	14
43	52	3
49	52	5
63	63	7
134	142	2
132	136	2
99	101	1
100	100	7
13	13	4
98	98	7
5	5	6
24	24	5
132	132	13
52	52	2
136	155	5
4	8	3
24	25	6
106	106	6
131	137	2
46	46	11
105	155	4
110	110	8
16	16	8
121	121	5
35	36	4
20	20	7
65	107	9
20	33	2
33	34	5
124	124	1
120	120	8
134	134	5
39	45	1
40	43	2
38	118	2
137	146	2
81	82	2
33	35	6
16	19	1
103	103	1
31	41	2
48	52	1
125	125	5
6	6	3
101	101	5
117	117	6
123	124	2
126	143	3
136	152	2
53	53	4
152	152	11
150	150	3
17	18	5
129	130	2
154	154	2
35	35	5
79	80	3
108	109	2
50	50	2
62	67	4
2	3	4
90	104	2
113	113	3
43	45	5
99	99	8
81	81	2
77	77	8
23	91	3
140	140	5
126	146	2
142	156	1
88	89	1
151	151	5
94	96	2
2	2	6
97	97	4
86	86	4
112	154	3
70	70	6
127	127	10
148	148	7
37	37	2
118	147	2
50	78	2
151	156	2
5	6	1
146	146	4
155	157	1
32	32	4
141	141	1
109	141	2
38	38	1
25	39	2
102	103	1
52	54	4
31	31	4
1	1	7
89	90	2
13	14	1
132	133	1
93	95	1
54	81	3
21	40	3
44	44	5
87	87	2
19	19	2
66	66	9
22	55	2
3	3	2
22	22	5
126	126	2
94	94	4
5	77	2
69	69	8
18	21	3
102	102	1
88	127	2
45	54	2
25	77	3
26	50	1
115	116	4
27	77	4
13	43	2
118	118	4
31	40	2
13	15	4
133	133	7
9	9	2
49	61	3
18	40	1
36	44	4
135	137	2
55	57	1
25	28	5
14	14	7
144	150	2
78	88	2
75	75	4
99	100	3
106	155	2
43	44	2
15	15	3
96	96	1
68	68	6
39	88	7
46	48	2
129	129	4
72	72	3
31	67	2
23	23	3
121	136	4
78	78	2
40	41	2
156	156	2
55	55	3
36	54	2
2	27	1
84	84	3
114	135	1
104	148	3
141	142	4
23	24	1
41	52	1
4	4	7
22	38	2
20	21	2
12	12	2
83	89	2
3	51	1
54	54	8
128	128	7
139	141	2
79	90	3
121	145	4
108	133	3
109	112	2
24	44	2
8	8	2
126	136	2
22	36	2
49	49	3
30	30	3
51	51	1
140	154	1
120	121	2
143	143	4
87	88	1
0	0	3
121	122	4
9	21	3
106	131	3
40	40	2
29	38	4
7	7	3
144	147	3
74	74	2
136	136	4
95	95	2
67	67	3
42	42	4
138	138	6
39	39	1
3	6	3
34	35	1
112	112	3
110	111	1
83	84	2
91	145	1
147	147	11
139	139	8
127	156	1
63	77	3
158	158	1
123	142	2
104	105	1
155	155	5
77	91	1
43	55	5
67	70	2
96	97	1
29	29	3
27	95	2
91	91	4
113	147	1
77	104	2
63	64	3
84	89	2
122	122	1
82	82	1
130	130	2
25	25	1
149	149	2
48	49	2
56	56	2
6	44	2
113	127	2
43	48	1
92	92	2
107	108	1
152	157	1
65	65	3
8	37	2
114	126	2
51	53	2
72	73	2
22	31	4
31	51	1
54	55	3
25	78	3
21	41	1
35	71	2
80	107	2
131	134	2
106	126	1
27	27	4
117	118	5
50	55	2
26	26	2
43	50	1
131	151	1
56	77	1
21	22	1
139	155	1
97	146	1
115	115	2
10	48	1
110	112	2
43	46	2
64	64	2
45	55	1
32	33	1
104	104	3
105	105	1
30	36	2
48	57	1
28	28	1
14	16	1
140	141	1
131	131	2
17	17	3
101	102	1
42	43	1
16	17	1
23	44	2
2	55	2
85	97	1
142	142	1
28	32	1
142	148	2
126	144	1
28	33	1
127	139	1
81	145	1
15	19	2
93	94	1
78	82	1
145	145	1
85	86	2
108	122	1
10	38	1
26	27	1
6	12	1
37	38	1
22	40	1
97	98	1
88	88	1
7	8	1
21	21	1
133	153	1
8	30	1
31	42	1
33	36	1
4	5	1
122	123	1
