12	12	14
100	108	3
127	127	7
121	121	12
30	117	1
44	44	32
70	71	8
132	132	17
42	42	17
87	88	12
92	92	21
47	47	15
3	4	11
113	117	5
16	22	4
109	110	4
56	56	13
43	129	1
115	115	10
31	31	13
93	93	22
38	38	15
65	106	3
105	125	2
117	118	5
5	5	8
62	63	8
80	81	9
118	126	2
67	67	10
58	58	8
75	75	7
20	20	18
90	93	2
57	57	15
16	25	3
80	83	5
7	7	13
50	50	15
25	25	16
85	104	1
77	77	6
108	114	4
39	39	5
106	106	18
6	6	9
16	16	4
10	10	13
97	118	1
31	32	4
126	127	2
19	19	4
17	17	7
98	130	4
104	104	13
22	22	15
51	51	15
41	41	21
18	21	3
85	85	11
3	24	3
59	59	7
54	54	10
87	87	3
1	1	8
105	105	23
128	128	7
62	62	6
64	64	12
99	126	2
46	46	19
23	23	15
73	73	22
45	131	3
112	112	18
48	48	11
83	83	17
82	82	24
18	22	2
116	117	2
24	26	3
13	14	7
116	116	6
40	40	20
102	104	7
18	18	9
44	54	1
34	34	6
19	20	8
63	76	5
61	61	6
15	16	4
91	125	5
102	102	14
30	30	10
96	97	1
71	71	17
44	66	3
49	49	17
79	80	4
105	109	5
18	19	8
93	94	4
42	106	2
12	13	4
52	52	15
75	76	4
130	130	11
27	27	12
43	104	5
122	122	3
41	44	2
78	83	5
84	84	13
45	45	23
11	47	4
97	99	13
109	109	4
85	86	13
113	114	3
51	52	4
14	15	4
78	78	10
26	26	13
76	76	13
115	116	3
11	11	19
119	119	6
114	114	17
86	86	12
4	4	25
40	42	4
115	120	1
123	123	6
108	108	15
23	74	3
129	129	3
99	99	5
79	83	1
40	43	3
5	15	5
107	108	7
63	63	19
124	124	9
91	91	3
13	118	2
100	100	17
53	53	7
90	90	13
3	3	8
12	54	2
55	55	7
50	67	7
47	48	4
102	103	5
104	105	2
91	92	5
29	58	3
43	44	5
109	111	5
74	74	7
23	24	1
82	83	6
58	59	3
28	29	6
58	62	2
11	46	2
48	49	5
107	107	10
72	72	9
13	13	10
117	120	8
0	0	7
114	115	3
28	39	5
117	117	13
88	89	3
110	110	11
83	85	1
69	69	6
54	117	5
89	90	3
32	33	4
20	116	4
29	29	8
113	119	6
50	93	2
45	78	1
111	111	8
38	80	3
128	129	1
124	125	2
15	15	10
129	130	4
49	92	1
96	96	7
73	133	2
32	32	2
43	43	9
60	60	3
127	128	6
92	124	4
59	60	7
97	98	2
41	43	4
24	24	12
2	2	10
13	70	2
99	101	1
80	80	3
90	91	2
77	101	1
72	73	5
77	78	7
132	133	4
14	14	9
86	87	5
94	95	3
41	109	5
118	118	14
120	129	5
98	99	6
70	70	5
97	97	6
16	18	2
42	43	4
10	48	4
21	22	4
81	82	6
9	9	13
65	66	1
8	9	3
104	106	2
117	119	3
16	24	2
17	23	1
10	63	1
121	122	4
113	113	5
8	8	4
118	119	3
19	21	5
66	67	3
40	96	1
81	83	4
94	94	6
45	63	1
126	129	1
51	120	1
125	128	4
125	127	4
125	125	4
89	89	3
28	28	3
65	73	3
17	18	3
25	26	5
65	124	1
41	102	3
46	63	1
68	69	1
85	87	4
106	107	3
131	131	2
61	62	2
12	69	2
52	53	5
120	120	6
45	99	1
53	54	6
54	72	2
7	30	1
62	80	1
10	51	3
52	58	7
29	87	1
32	39	2
95	126	2
101	114	2
98	100	1
40	69	2
64	70	4
105	106	1
29	100	1
100	107	1
33	75	1
67	68	3
126	126	2
119	120	3
14	118	3
14	104	3
96	101	2
48	80	5
63	64	5
4	129	4
98	129	3
82	85	2
113	118	3
2	3	3
22	23	4
98	98	4
125	130	3
32	106	2
101	108	3
46	47	4
118	120	3
7	8	3
83	84	8
108	109	5
5	6	1
5	16	1
76	77	2
6	120	1
42	67	2
68	68	5
54	83	1
54	73	2
101	107	1
67	94	1
72	131	3
33	33	2
94	109	3
69	93	4
57	94	4
12	124	1
89	93	4
69	70	3
98	127	3
78	79	3
44	63	1
22	25	1
129	133	3
39	43	2
31	89	2
12	92	2
4	17	1
68	97	1
106	109	1
88	88	5
59	61	3
8	52	2
77	81	2
83	86	2
39	107	1
12	65	1
9	10	1
38	39	2
103	103	3
67	74	1
119	130	1
97	116	3
98	119	2
4	24	2
33	39	1
10	11	2
66	66	1
13	127	2
13	33	1
55	56	1
76	133	1
73	74	1
30	120	1
83	87	2
97	101	1
99	125	1
95	96	2
33	34	1
81	81	5
125	133	3
114	116	4
101	101	3
57	58	2
42	107	1
107	113	2
6	22	1
14	61	2
10	60	1
94	96	1
78	87	2
107	109	2
123	124	2
79	84	2
41	42	2
112	113	1
65	65	4
48	79	3
45	77	1
100	101	1
54	96	1
29	30	1
101	113	2
10	59	1
30	31	1
39	42	2
99	100	1
126	128	2
95	95	1
44	45	1
61	81	1
96	117	1
119	128	2
88	91	1
31	49	1
125	129	1
39	78	2
4	21	1
52	93	1
51	109	2
127	131	2
96	104	1
131	132	1
133	133	2
92	94	1
40	82	1
43	64	1
122	124	1
51	121	1
39	41	1
89	91	1
