19	25	5
91	92	17
89	90	6
65	90	2
105	105	21
84	108	1
134	134	19
7	7	13
123	123	8
127	127	29
116	117	3
90	90	20
120	120	11
28	29	5
122	122	5
22	22	12
77	77	27
74	74	30
58	58	10
65	65	18
58	60	1
33	33	14
11	11	10
14	16	10
10	10	3
99	99	30
34	34	7
8	8	15
69	79	3
87	87	35
54	58	4
96	96	13
14	15	1
64	64	19
0	0	25
81	99	7
121	130	3
64	86	4
45	45	6
0	1	5
4	4	5
115	117	6
98	98	23
100	101	3
96	107	1
21	23	5
97	98	9
76	76	20
68	83	1
33	34	8
15	15	14
129	129	24
100	100	16
79	80	10
19	19	15
114	114	21
93	93	23
110	110	16
45	59	1
66	66	11
78	78	15
76	116	4
119	122	2
65	99	6
129	131	4
133	133	13
14	14	7
29	33	3
21	36	4
101	101	16
78	125	4
97	117	6
96	106	4
97	109	1
109	129	2
72	72	15
3	3	15
61	62	6
25	62	4
118	122	11
71	125	1
91	91	17
53	54	4
102	103	17
32	32	12
95	96	2
15	16	7
13	13	4
96	109	2
53	53	19
74	125	1
47	51	4
132	132	29
87	88	6
62	63	8
68	69	10
67	67	17
128	128	15
28	30	5
125	125	14
52	52	31
82	107	5
69	103	1
7	9	2
121	121	9
50	50	7
26	26	23
17	39	3
16	16	9
28	28	9
84	84	14
89	89	14
44	45	8
119	129	2
55	84	1
55	77	4
9	9	9
55	60	1
113	113	25
16	17	8
42	52	2
119	119	24
21	94	2
117	118	8
29	29	5
84	110	4
106	106	21
88	91	1
73	73	8
18	18	11
55	82	5
69	69	16
2	2	11
95	104	1
107	116	3
90	94	6
62	92	5
46	58	3
87	99	6
96	111	3
85	97	9
124	124	11
63	89	4
3	4	7
54	57	2
62	62	9
25	64	5
79	79	23
35	35	7
86	107	1
57	58	11
68	68	15
131	132	1
131	131	14
111	112	4
80	80	11
49	73	3
91	96	3
7	8	9
85	113	4
60	60	17
78	83	1
2	28	1
91	94	2
57	57	15
4	53	4
12	35	2
102	102	9
49	50	7
116	116	8
107	110	5
122	133	4
82	83	3
31	31	12
70	129	2
39	69	1
71	71	13
55	55	15
126	126	10
65	105	1
11	13	5
108	108	7
103	104	8
117	121	1
109	109	6
12	12	8
54	61	4
115	115	12
45	78	1
109	111	3
107	107	4
82	86	2
64	65	17
38	38	7
80	82	5
72	77	2
1	2	8
92	92	9
25	67	3
25	61	4
22	23	3
94	94	14
51	87	4
97	122	1
104	104	23
96	97	2
119	121	6
24	24	19
52	83	3
30	30	24
6	36	9
85	85	14
112	113	5
130	132	4
126	132	1
56	83	3
132	133	8
111	115	7
29	30	3
77	78	1
35	55	3
22	34	2
56	56	14
95	95	27
117	129	1
57	67	2
122	130	2
101	102	4
63	63	14
56	67	7
34	35	4
69	70	5
126	127	8
13	35	2
5	12	5
119	120	4
8	10	6
117	117	10
130	130	11
47	47	5
82	82	17
123	124	2
58	59	25
63	99	5
124	125	4
44	88	2
56	57	9
133	135	4
30	71	5
6	7	4
53	55	1
81	81	2
131	134	5
90	93	2
91	99	3
10	11	2
83	83	5
129	130	5
8	11	1
48	48	11
118	134	2
61	61	15
71	74	6
20	21	6
17	56	2
135	135	5
107	108	1
111	111	7
88	88	20
120	134	2
77	87	4
103	103	23
83	107	7
112	112	6
108	110	3
86	86	8
84	112	1
109	112	5
67	87	1
81	119	2
27	27	5
64	66	6
31	102	2
44	44	13
55	56	4
1	1	9
21	35	6
36	36	8
127	128	7
114	115	5
6	6	15
54	54	7
71	72	1
17	36	3
65	68	1
19	20	2
97	106	1
25	25	9
116	131	2
130	131	11
82	106	4
78	107	3
118	118	5
12	13	3
88	95	3
66	67	9
70	70	12
30	31	4
18	20	1
100	117	7
5	5	6
54	65	1
85	94	4
118	119	7
8	25	1
86	108	3
54	79	2
94	102	4
65	85	2
93	104	4
97	97	5
71	128	2
101	116	2
102	127	1
63	69	3
105	114	1
46	46	4
78	79	2
106	107	16
122	128	2
52	53	8
19	99	1
68	79	6
7	36	2
45	47	1
77	114	1
20	20	9
57	65	2
17	17	9
97	108	2
62	91	2
35	36	4
37	37	2
127	132	2
61	63	1
42	42	6
99	101	4
56	58	4
5	6	2
97	110	1
23	23	7
75	75	12
65	69	2
9	10	6
57	59	4
9	37	2
70	124	1
94	97	2
53	64	1
72	118	1
5	11	1
64	87	1
68	87	4
36	56	1
88	131	2
102	105	6
85	106	2
91	98	1
19	24	2
91	100	2
69	93	1
88	98	2
4	60	1
82	84	2
92	93	6
4	5	2
22	35	3
21	25	2
16	26	1
79	92	2
55	58	2
45	57	1
24	26	1
91	95	1
21	99	4
43	43	6
49	49	9
73	77	3
74	78	3
38	66	3
83	96	5
2	47	3
110	111	3
123	130	1
42	43	3
108	111	1
76	77	2
92	104	2
70	71	4
98	99	4
115	129	1
120	123	2
21	22	2
120	129	2
56	65	2
80	115	2
54	102	2
21	21	3
39	87	1
3	5	2
66	68	2
53	83	2
16	34	1
77	92	1
61	66	1
124	128	2
72	73	8
84	100	2
102	126	2
125	134	2
24	25	3
85	86	2
52	132	2
64	119	1
49	55	1
77	111	2
89	93	3
11	14	2
79	83	2
116	119	1
71	126	4
34	53	2
124	126	4
133	134	3
91	93	2
45	46	2
94	105	1
76	115	1
108	109	2
24	99	3
84	111	1
43	86	2
38	56	2
60	62	1
114	118	4
32	33	6
94	95	3
44	78	2
26	100	1
22	94	1
73	74	1
125	126	6
12	86	1
17	22	5
91	115	2
112	114	2
43	67	1
57	83	2
18	34	1
124	127	2
86	129	3
100	129	2
84	85	3
31	33	1
109	113	3
122	123	1
121	131	1
23	24	1
65	87	1
65	100	3
60	61	4
81	121	1
57	68	2
31	32	3
84	106	1
25	26	1
49	51	1
84	96	1
16	42	1
117	122	2
19	36	3
73	116	1
60	66	2
126	134	3
118	133	2
67	79	1
20	99	1
20	36	2
80	81	1
20	24	3
109	114	1
45	49	1
65	70	1
46	47	2
80	126	2
79	104	1
10	29	1
128	129	1
48	49	1
65	66	1
10	37	1
63	87	1
72	76	1
27	29	1
76	93	1
44	52	1
70	101	1
0	70	1
96	108	2
54	103	1
43	90	1
66	87	1
83	84	1
121	129	2
102	128	1
2	33	2
111	117	1
83	86	2
48	86	1
21	93	1
81	118	1
131	133	1
28	33	1
54	85	2
109	123	1
15	44	1
52	55	1
4	27	1
116	126	1
75	124	2
93	98	1
44	77	1
80	116	2
83	120	1
79	84	1
81	129	1
37	38	1
17	57	1
62	65	1
46	49	1
118	121	1
45	51	2
59	64	3
98	101	1
98	114	1
27	36	1
17	27	1
9	11	1
13	14	3
68	78	1
34	134	1
66	78	1
36	37	1
120	121	1
12	65	1
6	14	1
59	59	1
11	12	1
93	103	1
23	26	1
38	53	1
95	124	1
86	110	1
104	105	1
75	76	1
11	15	1
85	87	1
84	86	1
