57	63	4
2	3	3
42	42	27
71	72	12
48	48	22
28	28	17
43	43	10
19	19	13
26	26	7
63	64	2
9	10	6
54	54	10
57	57	16
41	41	17
27	27	19
7	7	15
6	6	12
50	51	3
51	52	6
15	15	11
26	27	2
14	30	5
25	31	3
53	53	12
33	34	9
49	67	11
19	20	4
61	61	16
49	49	13
49	52	4
80	80	9
68	69	11
56	56	16
51	51	9
14	15	9
46	46	12
78	78	23
12	14	5
13	31	5
68	70	2
25	27	9
59	59	20
30	33	3
33	33	16
55	56	11
11	13	5
54	55	12
64	64	15
46	47	5
16	17	8
2	2	6
70	71	7
76	78	2
37	37	15
20	20	3
71	71	4
66	66	14
53	54	7
17	17	11
70	70	15
52	54	7
10	10	12
79	79	10
75	75	11
1	1	9
34	34	3
55	55	11
9	9	9
18	18	4
67	67	19
10	12	3
45	45	14
47	47	16
8	10	5
36	36	5
63	63	16
3	3	5
68	68	16
60	60	3
7	29	1
4	4	8
75	77	4
4	5	3
36	38	1
14	31	4
42	43	1
73	73	11
8	8	6
11	11	17
29	29	11
50	52	6
30	30	9
14	14	5
58	58	12
75	76	3
50	50	8
40	40	13
69	72	2
13	13	15
65	65	21
66	68	3
13	14	14
15	16	4
55	73	4
64	65	3
38	40	2
58	59	10
69	69	10
74	74	6
12	15	5
61	66	1
60	61	7
38	38	7
49	53	1
65	66	8
58	60	1
4	75	2
16	16	9
6	80	3
73	74	6
50	67	1
59	60	6
10	11	3
56	57	8
12	12	9
31	32	3
21	21	9
5	20	1
53	73	2
69	70	2
34	35	3
27	28	3
52	69	2
25	25	5
31	31	10
0	1	6
39	39	22
49	71	2
62	62	6
32	32	1
5	6	6
50	53	4
76	76	13
74	75	3
0	0	2
28	29	2
17	19	1
49	50	1
66	67	3
1	2	3
52	52	8
32	34	2
11	12	2
44	45	5
61	65	1
17	18	2
37	40	7
32	33	1
52	53	2
40	41	2
12	13	5
36	37	4
49	66	2
5	5	5
72	72	11
76	77	3
79	80	2
38	39	3
20	21	6
78	79	1
35	35	4
57	58	1
56	64	1
47	48	4
29	30	3
48	49	2
72	73	2
6	7	4
45	73	4
32	35	2
49	54	1
4	9	2
18	19	1
48	66	1
77	78	2
6	74	1
45	79	3
8	30	1
61	63	2
42	45	1
37	38	2
8	9	6
75	78	1
66	73	2
4	6	2
70	72	1
9	11	1
58	78	2
25	26	1
67	68	1
29	37	2
62	65	1
67	69	1
36	62	1
59	61	1
66	72	1
19	21	1
