193	193	5
17	18	3
9	11	4
0	22	2
17	17	7
138	138	3
5	15	7
27	27	11
156	156	12
8	9	3
42	42	7
167	167	6
184	184	13
85	85	2
130	130	5
178	178	13
24	24	8
186	186	6
8	8	4
185	186	13
195	195	6
53	53	3
187	187	9
80	81	7
89	163	1
157	157	13
189	191	1
99	100	1
19	20	5
48	48	10
87	87	4
3	3	3
112	112	5
155	156	8
59	59	7
139	139	8
87	107	4
172	172	14
187	191	1
20	20	3
6	8	6
110	162	3
2	2	7
134	135	2
39	44	3
101	101	3
155	155	14
163	163	3
189	189	3
130	144	4
121	144	2
40	41	4
100	130	4
181	181	4
18	40	5
188	188	6
64	64	7
170	171	3
34	34	9
44	45	12
130	139	4
116	116	1
89	89	4
143	143	5
35	79	1
144	144	9
15	16	5
55	55	8
0	0	7
119	122	2
47	48	5
117	117	6
97	166	1
58	59	4
27	57	5
157	192	5
40	40	3
52	52	4
134	176	1
140	144	1
147	147	18
146	147	6
38	38	10
46	46	5
31	31	10
142	148	1
109	110	13
94	94	5
176	177	10
79	80	8
171	195	6
146	166	3
50	53	3
169	169	4
4	4	11
116	139	2
15	15	8
190	190	8
42	44	5
35	35	5
65	65	5
183	183	6
151	151	16
164	166	7
186	187	7
180	181	2
179	181	7
43	44	4
114	119	2
63	63	3
103	103	6
171	172	8
54	55	1
93	95	5
120	121	3
177	177	9
102	102	8
170	170	11
114	114	7
47	47	12
38	48	1
99	99	5
18	24	5
48	49	1
155	175	2
117	130	3
111	196	1
9	16	2
105	106	4
10	23	2
21	40	8
153	153	12
36	36	7
171	171	13
190	191	1
188	189	3
106	124	1
81	184	3
114	138	4
192	193	7
14	14	2
158	158	13
29	29	5
152	153	2
182	182	8
4	53	4
19	41	1
157	158	1
18	18	4
16	54	4
16	35	5
119	119	12
28	55	1
179	179	2
88	197	2
18	21	1
124	124	9
124	125	5
45	45	5
114	115	10
94	96	1
173	178	2
191	191	5
134	155	3
170	195	2
11	11	5
5	5	2
34	36	4
58	58	5
180	191	4
161	161	6
17	31	1
121	123	2
168	169	5
98	164	4
39	72	1
159	159	12
121	143	2
133	133	7
26	26	15
13	13	4
25	69	1
0	1	3
168	168	14
62	62	4
196	196	15
148	189	3
176	180	1
77	77	3
42	43	4
151	171	3
7	7	3
140	140	10
9	9	9
53	88	1
184	185	2
121	121	1
173	173	6
116	140	1
93	109	3
28	66	1
106	108	9
16	42	5
69	69	7
108	115	3
38	39	4
52	53	3
109	109	7
151	165	2
128	128	8
11	12	1
175	176	2
137	137	2
1	1	9
14	52	2
66	76	1
28	28	2
98	98	3
127	127	7
3	4	5
131	143	5
28	64	1
73	73	7
55	56	3
129	129	2
166	166	8
160	187	4
68	68	6
79	82	1
6	6	4
50	50	3
70	70	3
115	115	5
186	193	1
146	146	4
132	132	6
181	185	1
158	159	2
138	139	4
97	98	6
57	57	6
67	67	3
41	41	2
152	152	10
126	126	5
22	22	8
192	192	3
88	88	4
106	106	6
9	15	1
56	56	7
160	160	13
86	108	1
96	97	2
37	37	4
105	105	12
122	122	13
84	84	5
71	71	3
160	186	2
136	136	1
15	33	2
149	149	10
145	147	1
49	49	10
191	192	7
52	58	7
67	68	7
175	175	6
113	119	3
123	123	7
119	148	1
118	143	6
11	15	4
87	168	1
93	118	2
189	190	3
174	174	17
139	176	4
101	104	1
98	109	2
44	44	4
116	137	3
107	108	4
31	78	1
65	73	3
81	82	3
54	54	3
161	163	2
3	16	1
105	108	2
26	62	5
66	66	5
55	76	1
34	37	1
129	151	1
145	145	6
122	140	4
154	154	4
51	55	1
53	62	1
19	19	8
137	146	3
134	134	5
18	20	1
118	119	2
155	192	2
165	165	3
41	42	2
150	170	2
191	193	2
117	156	4
51	51	6
179	180	3
140	181	2
77	78	5
187	188	2
107	107	4
17	35	2
25	25	4
29	31	1
181	182	3
81	181	2
162	185	1
41	69	1
62	66	3
81	81	6
36	81	3
20	21	4
78	78	3
151	196	2
2	3	1
4	8	2
180	180	8
25	40	2
151	152	9
78	83	1
96	111	3
146	148	2
106	107	1
0	5	1
148	149	1
137	158	3
150	175	1
99	115	1
161	162	1
110	110	3
2	11	3
58	69	1
167	188	1
153	154	4
72	72	2
154	155	1
100	105	2
101	103	1
20	41	4
145	193	1
11	16	1
135	135	7
29	76	2
111	111	6
145	158	3
35	80	1
16	17	1
114	116	1
167	186	2
73	75	2
19	35	1
21	21	2
23	23	4
108	110	2
189	193	3
140	141	2
60	62	2
94	95	3
30	30	4
142	142	1
77	83	1
19	61	2
15	54	2
166	167	5
82	82	4
36	62	2
4	5	3
14	15	1
189	194	3
124	131	2
65	70	1
176	176	2
173	175	3
102	107	1
70	72	1
51	52	1
140	146	4
144	181	1
145	146	3
111	112	1
79	79	4
138	176	3
51	70	1
33	33	4
80	80	2
93	93	3
111	118	1
61	62	1
12	12	3
103	120	1
131	133	2
99	143	1
95	110	4
113	113	4
45	46	4
128	129	1
39	39	3
64	65	1
190	192	1
150	150	2
108	116	2
136	197	1
51	54	1
95	161	1
194	194	4
142	149	2
149	172	3
4	32	2
78	79	2
148	150	3
117	154	2
125	125	2
169	170	2
148	148	1
132	151	1
157	174	1
169	182	1
140	183	1
133	184	1
16	16	2
120	120	3
88	96	3
162	164	3
60	61	1
165	173	1
29	30	1
18	19	2
96	98	3
177	178	1
118	118	3
151	153	2
131	140	1
32	32	3
36	38	1
69	76	1
138	143	2
136	158	2
64	69	2
50	54	1
162	166	1
123	158	2
10	10	4
139	184	1
4	17	1
59	60	1
139	140	1
165	176	1
101	102	1
107	165	2
28	54	2
87	190	1
142	157	1
49	52	1
158	193	1
141	141	3
27	63	2
50	55	3
40	75	2
179	190	1
169	195	1
94	97	1
197	197	2
150	152	3
88	103	1
110	159	3
54	88	1
128	171	1
78	90	2
154	158	1
7	8	1
120	144	1
50	56	2
74	93	2
96	109	1
46	47	1
133	157	1
13	14	1
137	138	1
196	197	1
185	185	5
163	176	1
151	193	3
27	33	3
141	157	1
172	177	1
100	100	2
54	57	1
98	143	1
160	192	1
113	148	4
174	175	1
163	177	1
113	116	1
28	30	1
135	160	1
162	162	1
81	83	1
170	194	1
5	9	1
147	148	1
152	158	1
174	176	1
155	158	1
11	38	1
31	56	2
4	15	1
100	148	1
104	105	1
154	157	1
156	192	2
121	131	1
73	74	1
54	78	1
97	116	1
59	61	1
167	168	1
135	157	1
117	118	1
3	8	3
117	135	1
5	18	1
143	149	1
26	67	1
147	187	1
155	157	1
148	188	1
74	74	3
161	178	1
20	82	1
48	193	1
171	183	1
147	149	1
100	101	1
172	173	2
19	44	1
109	164	1
191	197	1
169	194	1
152	155	1
115	131	1
102	105	1
7	22	1
108	108	1
147	183	1
9	10	2
129	140	1
95	112	1
176	184	1
128	163	1
