74	74	6
142	143	2
90	90	10
42	42	13
31	31	20
53	55	3
8	10	5
36	36	13
18	18	8
33	33	18
19	19	6
88	88	2
106	107	6
141	141	2
59	59	6
155	168	2
67	75	2
6	11	3
132	154	8
8	18	1
152	154	2
21	21	20
98	99	4
34	34	5
10	10	4
35	35	12
4	4	18
30	30	15
70	71	1
126	126	4
38	38	15
173	173	11
13	13	9
7	7	9
39	40	8
2	11	2
26	31	5
146	146	11
62	63	5
12	13	10
134	134	4
89	91	2
25	25	19
99	100	8
2	2	9
159	159	2
140	140	6
55	55	8
131	131	8
0	0	16
13	16	3
128	129	1
46	46	5
24	24	10
4	25	4
147	148	4
11	42	4
138	138	14
36	37	10
59	61	1
44	45	10
15	21	5
67	67	2
108	108	9
57	57	2
23	23	8
115	115	7
166	166	3
139	152	1
155	156	9
91	92	2
45	45	10
139	139	8
52	53	3
27	28	14
161	161	6
11	13	2
108	109	8
40	40	14
127	127	13
129	132	4
164	164	7
134	141	3
147	147	10
2	3	7
13	14	3
22	23	13
77	78	5
130	130	11
155	155	4
91	91	2
81	81	3
37	37	15
41	41	16
117	118	9
116	116	9
137	137	10
142	142	7
135	140	3
12	12	17
154	154	9
1	2	8
27	27	6
129	130	3
168	174	3
170	170	5
63	64	3
145	145	8
122	122	3
159	160	3
132	132	4
103	136	1
26	30	1
1	32	3
64	73	1
130	162	4
32	33	8
117	117	5
3	3	12
150	150	9
171	171	7
12	15	4
56	57	6
146	147	2
9	11	5
160	161	1
2	5	3
32	32	7
9	9	5
151	154	2
50	50	9
6	6	9
30	31	4
114	114	4
169	170	1
157	157	11
29	60	5
104	104	7
5	5	21
71	76	1
107	107	6
93	93	4
43	43	10
118	125	1
44	44	10
1	18	2
148	148	6
153	175	3
19	88	1
33	34	2
23	26	3
22	22	10
149	162	4
51	51	5
105	105	5
156	173	2
20	20	6
86	87	3
160	160	3
116	120	1
162	162	3
158	158	10
16	16	13
137	138	2
156	174	2
39	39	17
68	68	5
25	57	2
64	64	4
6	8	3
90	91	3
100	105	2
154	162	2
16	20	1
133	133	4
167	167	3
147	153	4
99	115	3
12	42	2
90	94	4
14	14	11
143	144	1
15	15	8
168	169	3
141	142	3
106	111	1
160	169	2
130	146	1
2	31	5
176	176	5
124	124	5
53	53	6
19	20	2
179	179	4
58	60	1
120	120	6
8	9	4
60	61	2
148	149	4
6	7	5
103	103	8
128	128	2
23	106	3
14	17	6
43	44	17
28	29	3
77	77	7
45	50	3
80	88	4
76	76	9
11	11	6
89	89	4
63	63	11
158	159	9
153	153	2
113	113	5
18	20	4
4	5	8
133	141	2
66	71	4
126	132	5
143	143	6
163	163	11
165	166	3
151	151	5
138	139	1
42	43	4
104	121	1
132	133	4
24	108	1
8	22	3
27	44	1
29	29	8
3	7	2
28	62	3
95	95	5
126	156	2
12	25	5
8	8	9
78	79	2
104	105	2
14	39	1
91	93	3
4	7	5
66	66	1
54	54	2
94	120	3
176	177	1
127	128	3
173	175	1
97	97	1
135	136	5
13	33	3
139	151	1
24	25	5
24	110	4
56	56	7
87	87	5
122	123	1
101	102	2
154	159	1
29	31	2
101	101	3
129	129	8
154	155	2
75	75	4
52	62	2
127	129	3
40	41	2
177	177	8
84	85	5
7	8	3
129	131	1
13	17	2
97	102	2
10	11	2
95	123	3
136	136	3
100	107	2
55	57	2
52	55	2
101	103	3
152	152	3
165	167	1
93	112	5
25	26	2
70	70	6
165	165	4
21	22	5
178	180	2
169	175	2
36	40	3
118	119	2
15	16	3
50	51	7
126	128	1
91	94	2
169	169	7
141	143	2
94	94	4
160	162	1
123	123	3
109	109	1
107	108	1
23	27	3
72	74	1
20	28	1
102	102	1
95	119	2
106	109	2
88	89	2
28	28	8
163	167	3
26	28	3
73	75	2
29	45	4
22	43	2
123	124	5
72	75	1
29	30	3
17	18	1
100	101	2
85	86	1
91	96	3
97	99	3
149	149	12
79	79	6
166	169	1
136	152	3
11	12	3
152	155	3
177	178	5
112	112	6
114	115	2
34	36	2
6	22	2
172	172	7
150	152	2
148	158	3
60	60	1
98	100	1
65	65	3
79	97	1
38	39	1
96	96	3
61	61	2
90	102	3
131	141	1
10	41	3
165	169	1
7	19	2
59	60	1
2	8	3
111	113	2
4	40	1
139	140	3
111	111	7
86	100	3
17	17	6
76	93	1
57	58	1
174	175	2
168	170	3
14	15	3
10	15	1
25	34	1
84	84	2
75	82	1
144	144	1
172	173	4
135	135	7
152	153	3
79	98	1
110	110	4
26	26	2
13	15	2
38	40	2
151	155	1
21	24	1
80	81	1
62	62	2
34	35	2
92	92	1
161	162	2
170	176	2
9	15	1
161	166	1
82	82	3
28	61	2
16	17	1
136	151	1
1	1	4
33	35	4
165	168	2
130	141	1
25	88	1
124	125	3
129	152	2
4	35	2
22	31	2
22	26	1
52	52	2
7	9	2
6	10	2
97	98	2
10	43	1
44	51	2
31	32	2
130	134	1
25	29	1
142	173	2
175	175	1
145	146	1
53	54	1
147	168	1
137	139	2
95	96	3
35	63	1
23	24	2
78	100	3
173	174	1
142	174	1
168	168	2
100	100	1
129	163	1
171	172	2
179	180	2
130	131	1
94	101	1
97	104	1
147	158	1
1	7	1
9	16	1
43	45	3
123	125	3
126	163	1
149	150	1
156	159	2
2	4	1
131	132	1
10	67	1
106	106	2
15	18	1
174	174	2
37	38	1
140	145	1
142	168	1
64	65	1
98	98	2
136	137	2
180	180	1
86	86	1
9	84	3
157	158	1
125	125	3
103	105	3
144	145	1
90	93	1
66	74	3
12	14	1
81	82	1
173	179	1
163	164	2
118	118	2
5	35	1
88	118	1
121	122	1
1	71	1
14	16	1
10	40	2
11	15	1
79	116	1
178	178	1
121	121	1
126	127	1
5	20	1
110	111	1
70	72	1
115	116	1
153	161	1
9	82	2
167	168	1
133	138	1
127	152	1
86	98	1
102	109	1
3	4	1
151	152	1
21	98	1
75	87	1
73	74	2
