63	164	1
205	207	3
183	183	6
36	36	12
216	216	8
48	48	4
246	247	5
198	198	11
189	219	4
188	190	2
59	60	12
97	98	3
232	232	3
150	156	2
195	195	21
243	243	4
3	8	3
220	220	13
3	3	6
201	201	30
225	235	3
196	196	13
163	166	6
159	160	4
74	75	2
52	52	16
185	185	14
145	145	10
200	201	7
166	175	2
173	173	3
68	68	10
191	196	5
208	233	4
43	43	20
81	85	1
56	56	10
170	170	12
4	4	10
10	16	2
182	182	12
95	95	10
0	0	4
42	42	3
218	218	10
166	166	14
222	222	11
82	83	4
100	100	5
39	39	9
41	54	3
37	37	9
190	211	5
235	235	6
40	178	2
24	24	13
240	240	8
210	210	28
102	103	10
221	227	1
187	187	16
48	49	2
6	6	7
2	2	7
18	19	2
39	121	3
32	37	2
165	170	2
154	184	1
110	110	11
79	162	4
109	109	22
184	184	9
208	209	8
235	236	4
178	210	3
77	77	9
73	74	3
23	31	2
193	194	6
29	227	2
177	178	2
242	242	8
14	50	2
175	179	3
51	56	1
174	178	8
116	116	16
234	234	5
167	167	8
186	186	17
120	144	7
246	246	11
104	104	2
44	44	8
225	225	14
57	57	13
214	217	4
10	11	4
223	223	17
163	163	11
1	1	19
190	200	2
66	67	4
106	107	10
231	231	8
16	16	4
110	112	3
66	66	14
88	88	6
30	30	7
110	238	4
9	9	9
150	150	15
83	83	4
213	214	6
177	179	3
169	182	3
200	200	13
229	229	16
11	11	10
26	26	15
241	241	11
120	120	4
5	5	7
175	177	1
64	64	6
202	202	20
154	154	11
181	181	18
60	60	16
165	165	34
203	203	8
10	10	5
4	5	9
118	118	16
53	53	14
159	159	27
91	92	4
196	197	9
79	79	15
97	97	9
209	209	10
150	153	2
224	224	15
47	47	8
221	221	10
78	79	3
20	20	12
56	58	8
192	192	9
233	234	10
185	194	2
78	78	5
213	213	21
33	40	4
80	80	8
168	169	4
213	220	2
244	244	6
119	119	6
155	155	10
55	56	5
165	199	1
174	174	14
77	86	1
19	20	8
212	212	11
16	18	1
144	144	3
218	219	6
36	47	4
162	166	5
210	211	6
190	190	6
60	62	3
215	215	3
27	27	6
4	37	4
25	25	4
38	225	2
77	81	4
54	54	8
86	87	2
35	35	9
84	85	7
101	102	3
189	190	2
96	96	12
41	41	5
28	230	3
193	193	21
94	95	3
46	46	12
15	15	14
110	111	4
238	238	11
214	214	21
156	156	19
71	74	4
172	174	3
45	45	16
211	214	2
67	67	13
168	178	4
162	162	19
197	198	7
23	23	10
6	9	5
153	153	5
237	238	3
72	74	3
178	178	13
56	62	2
176	177	1
230	231	11
40	56	1
237	237	8
114	115	10
65	200	2
204	204	14
168	168	4
191	217	2
92	92	7
169	170	5
151	151	14
15	16	2
44	45	3
11	16	2
65	66	8
113	113	9
42	53	3
227	228	7
206	223	2
59	59	16
211	212	3
23	24	3
217	217	7
172	173	3
18	37	1
26	53	3
27	202	2
227	227	12
236	237	5
228	228	16
245	245	6
241	242	3
112	241	2
61	61	16
232	233	2
197	211	2
218	230	4
6	208	1
157	157	9
99	99	4
240	241	5
201	202	7
60	61	3
71	71	6
45	46	4
61	62	1
31	31	12
191	192	4
207	207	12
5	105	6
206	225	2
53	54	1
161	162	1
58	58	5
172	172	7
112	112	9
68	77	1
40	41	2
202	203	2
65	65	7
230	230	10
208	208	13
204	205	4
85	85	13
168	176	4
65	92	3
107	107	8
21	21	5
242	244	2
30	39	6
245	247	6
115	116	4
43	44	4
64	65	10
61	195	3
20	28	3
226	226	24
14	15	6
81	81	5
25	26	5
64	190	1
224	235	2
43	46	2
161	161	10
111	112	7
175	175	19
90	90	5
245	246	2
209	215	2
229	230	4
94	94	11
171	173	1
213	247	1
160	171	2
180	182	3
33	33	9
87	87	8
187	188	7
74	74	2
233	233	2
174	176	1
179	181	7
54	55	2
151	203	2
17	17	6
70	106	3
178	179	9
64	161	2
19	19	17
162	163	2
63	63	3
188	189	2
234	235	10
208	210	2
12	15	4
197	210	5
212	235	2
18	18	11
117	119	3
146	147	4
6	7	5
164	170	2
31	38	4
43	45	2
34	34	11
101	104	2
185	189	3
90	91	4
70	71	4
32	211	1
181	190	2
97	100	4
98	99	3
165	166	3
175	210	4
69	69	8
171	186	3
41	42	10
172	208	1
117	117	10
199	200	10
163	164	6
168	213	5
180	191	4
28	201	1
210	219	1
233	237	2
55	237	4
179	179	8
205	205	5
165	167	2
51	51	16
231	232	2
168	185	4
212	233	1
73	77	2
101	101	10
180	211	4
214	215	7
76	85	1
62	62	5
3	12	2
207	208	3
82	82	1
223	235	1
226	227	7
176	176	13
20	51	1
105	106	2
164	164	13
163	169	6
115	115	8
191	191	5
111	111	12
105	105	7
152	152	4
184	197	2
97	99	3
171	171	8
42	43	6
73	76	1
86	86	3
36	236	1
7	7	12
194	194	9
187	190	2
206	208	2
34	35	4
114	114	6
23	30	1
54	63	1
239	239	5
34	38	3
184	190	2
26	45	3
147	147	13
80	81	3
64	112	1
157	159	1
108	109	3
75	76	1
73	73	5
24	52	1
62	66	2
219	220	5
163	165	2
50	50	6
210	215	6
50	68	2
110	114	1
102	102	2
47	150	2
180	183	3
216	232	1
69	70	6
193	195	1
207	209	6
173	174	1
169	169	4
221	222	2
33	37	2
39	40	3
40	42	1
55	55	5
206	207	3
239	240	1
178	180	1
103	104	1
248	248	4
185	188	3
24	26	1
220	221	4
50	150	1
171	172	5
193	197	1
108	110	3
225	226	3
62	97	1
85	144	1
199	199	4
192	209	1
226	228	1
246	248	2
210	238	3
40	59	1
228	229	3
22	22	2
195	196	1
30	31	3
152	160	2
119	243	2
87	88	3
88	89	3
219	219	5
237	239	2
95	96	9
152	221	2
22	46	1
244	245	1
158	159	4
227	236	1
40	40	9
101	103	3
217	218	1
160	160	7
155	156	1
180	180	9
48	64	1
150	151	1
216	217	2
59	236	2
57	81	3
225	227	1
20	22	2
205	206	3
216	218	1
8	8	8
32	38	4
222	224	2
77	88	1
147	149	1
28	28	4
178	181	1
93	109	4
81	82	2
91	91	6
181	187	1
18	29	1
59	81	1
19	40	1
234	237	1
62	63	2
201	228	3
197	199	5
179	197	2
222	226	2
100	101	5
192	217	1
211	213	1
211	211	8
10	22	2
75	77	4
108	108	4
38	38	6
189	189	4
205	211	1
14	14	5
32	33	1
35	47	1
12	12	4
58	59	6
198	199	5
109	111	1
36	40	3
24	25	2
29	29	5
51	53	2
186	189	2
211	246	2
41	65	4
160	161	1
109	113	2
166	167	3
94	96	2
175	176	8
10	36	1
215	216	1
89	90	3
194	197	2
72	96	1
32	32	8
220	223	2
200	205	1
62	164	3
36	233	1
31	32	3
22	23	2
34	37	2
201	246	2
217	223	1
84	84	12
247	247	2
73	88	1
198	222	1
48	66	2
36	58	1
117	118	1
171	185	2
247	248	1
39	57	1
146	146	2
69	71	1
170	175	2
83	84	2
64	174	1
27	41	1
24	44	3
42	92	1
113	144	2
219	233	1
21	24	1
238	239	1
99	101	2
1	11	2
249	249	2
190	191	2
194	195	1
201	204	1
215	219	1
206	206	4
121	121	1
99	100	1
57	58	3
193	196	1
58	60	4
184	198	1
197	236	1
30	195	1
96	108	1
11	17	1
59	61	3
174	183	1
106	106	1
92	93	1
155	229	1
12	47	2
235	245	3
85	86	1
176	178	1
64	67	2
8	9	2
199	245	2
112	246	2
145	149	1
214	238	2
244	248	2
25	96	1
164	166	1
184	219	1
145	169	1
46	47	6
232	235	2
113	114	4
39	41	2
15	48	1
119	120	4
154	155	3
20	21	1
36	37	2
155	203	1
236	236	5
196	199	2
55	67	1
220	222	2
24	153	2
158	158	5
177	177	5
28	31	1
64	66	1
66	94	2
96	97	2
15	19	1
43	63	1
118	157	1
42	44	1
38	235	1
26	28	1
188	188	2
36	65	1
224	225	1
77	78	1
213	223	2
89	89	3
53	55	2
41	55	4
221	229	1
68	71	1
79	161	1
1	2	2
49	49	1
93	94	4
56	66	2
24	32	1
146	154	1
40	78	1
77	95	1
82	173	1
11	12	1
217	237	2
67	68	1
151	205	1
4	12	2
110	233	1
144	205	1
191	193	1
2	34	1
20	46	1
184	238	1
98	98	2
38	39	2
42	46	1
163	170	3
184	185	1
14	245	1
168	172	1
180	230	1
177	182	2
173	178	1
151	154	1
48	65	1
55	60	1
72	77	1
164	165	2
152	153	1
197	197	4
16	51	1
186	187	2
3	5	1
167	168	1
248	249	1
93	93	2
22	28	1
179	180	1
52	53	2
64	163	1
213	217	1
179	198	1
108	240	1
75	75	1
15	29	1
183	221	1
185	192	1
111	244	1
12	14	1
170	198	1
89	91	1
221	226	1
26	202	1
49	65	1
192	225	2
151	214	1
104	105	1
16	25	1
21	26	1
39	58	1
234	241	1
76	78	1
171	210	1
151	152	1
197	245	1
106	109	1
14	20	1
149	149	1
70	70	1
204	211	1
180	181	1
