60	61	2
143	143	14
141	141	13
27	27	13
144	144	9
118	118	9
135	135	8
116	117	7
85	119	2
76	77	13
128	128	9
63	100	2
5	5	4
134	135	5
0	5	4
68	70	10
33	60	1
25	25	3
77	77	16
38	38	13
133	133	12
92	93	10
125	125	16
59	61	2
15	17	2
50	51	7
124	124	17
8	16	4
2	2	7
73	73	14
40	40	9
12	14	2
105	105	3
56	57	4
62	62	8
23	24	3
117	129	3
20	20	2
113	131	2
72	145	2
127	127	7
14	14	5
110	135	2
82	82	2
100	100	6
88	88	13
8	8	3
73	74	2
56	83	2
125	127	3
1	1	7
17	20	2
139	140	5
24	24	11
129	129	3
43	43	1
138	138	3
58	63	4
124	134	2
26	27	5
3	4	2
57	57	6
6	6	1
66	68	3
117	117	7
91	91	6
49	144	1
0	1	2
103	128	1
55	55	12
142	143	3
68	68	7
47	69	2
12	13	5
96	96	4
2	69	3
54	55	6
17	27	2
29	29	8
90	91	2
91	114	1
29	30	2
87	87	4
58	67	2
137	137	7
94	94	11
35	36	8
126	126	11
19	21	2
16	16	6
72	75	2
11	11	4
23	68	1
71	72	3
93	93	6
56	69	7
23	23	11
108	108	10
103	103	4
104	126	1
93	132	1
81	102	2
74	74	4
87	131	1
132	132	6
102	104	2
13	53	3
114	115	3
61	62	6
36	36	1
83	119	1
66	66	7
61	64	6
15	15	6
22	22	5
126	130	2
34	34	4
53	84	2
8	9	2
32	32	7
48	48	4
71	71	9
84	85	8
18	18	11
51	52	6
54	54	6
134	134	17
5	21	5
70	70	6
134	137	1
105	109	1
0	0	1
102	102	6
33	33	4
61	61	5
145	145	4
113	113	5
56	56	3
20	22	1
115	115	6
111	112	2
99	99	7
28	29	1
86	86	11
93	94	2
116	116	4
104	131	4
84	84	9
107	107	2
126	127	8
2	3	2
95	143	5
51	53	2
133	134	2
119	120	5
96	123	4
13	75	3
32	35	3
124	125	4
67	67	8
80	108	3
58	58	12
15	16	3
49	49	3
132	138	1
27	31	8
80	80	2
27	51	2
112	113	13
91	116	2
59	124	2
86	88	2
59	60	6
63	110	3
74	83	4
110	110	8
36	37	3
119	119	7
135	136	6
13	13	1
1	5	1
41	41	8
102	133	1
89	114	1
120	120	5
80	83	5
6	10	1
59	59	8
50	73	1
114	114	3
19	101	2
79	79	6
73	131	1
60	60	7
127	130	1
42	42	4
27	134	1
108	109	4
130	130	6
38	39	2
42	73	2
85	85	5
66	67	1
101	102	5
135	142	1
131	131	1
34	35	5
11	133	3
133	135	2
48	120	1
87	90	4
106	107	1
52	108	6
52	53	2
101	144	1
132	137	1
66	71	2
111	139	6
95	95	11
10	23	3
40	41	1
4	20	1
139	139	6
114	122	6
131	133	5
122	123	2
76	76	3
25	26	1
65	70	1
71	73	5
80	86	1
95	96	2
100	124	2
2	27	1
121	121	4
17	17	2
89	105	2
92	92	7
104	104	2
51	51	1
97	123	1
103	104	3
131	135	1
142	142	5
4	4	5
83	84	4
9	10	2
9	24	2
97	97	5
8	145	1
109	109	4
86	106	3
42	106	2
16	18	1
129	130	3
90	105	1
19	19	3
88	119	3
30	37	4
81	103	2
140	141	1
83	83	4
123	123	3
39	105	1
41	42	1
37	130	4
79	84	2
19	27	1
69	69	2
135	144	1
5	70	1
116	133	2
103	141	1
54	69	3
50	50	4
103	124	2
127	129	3
57	141	1
9	9	3
82	86	5
136	140	4
65	65	2
64	65	1
53	57	2
89	90	4
8	12	2
74	75	1
125	126	1
108	112	4
85	107	2
3	83	2
37	37	8
120	122	2
33	122	2
61	66	1
64	64	3
39	39	1
90	92	4
55	121	4
127	133	2
31	31	1
74	84	3
60	131	1
92	94	2
5	31	1
31	34	1
13	16	1
118	119	2
28	28	4
35	118	3
14	15	1
113	114	3
76	79	2
49	83	2
70	109	1
53	56	4
70	72	1
105	118	1
93	141	2
76	86	2
14	19	3
53	97	1
97	104	1
99	107	2
98	98	1
72	72	4
124	140	2
122	122	2
102	107	4
135	139	2
77	78	2
112	112	1
62	64	3
92	96	1
125	135	1
59	78	2
98	110	1
109	110	3
20	43	2
127	132	2
10	10	2
10	11	2
70	107	1
78	82	2
104	105	1
106	106	1
42	48	1
48	95	2
43	58	2
33	36	2
88	90	1
126	135	2
41	130	1
125	131	2
75	76	2
12	15	1
136	138	2
76	90	1
59	131	1
30	30	1
114	121	2
107	136	5
37	51	1
90	90	5
53	54	1
56	134	1
83	85	1
74	86	1
86	91	1
26	26	2
51	54	1
10	85	1
127	134	2
55	84	1
3	3	1
116	128	1
81	81	2
128	130	3
67	113	1
65	69	1
123	136	1
28	33	1
125	133	1
111	111	1
29	33	1
19	143	1
0	35	1
89	89	1
32	33	2
14	16	1
103	110	2
39	40	1
137	138	1
95	140	4
20	42	1
75	75	2
2	6	1
128	129	1
13	126	1
140	140	1
26	124	1
115	122	2
54	64	2
3	10	1
58	59	3
115	132	1
67	141	1
102	103	2
141	142	1
128	132	1
5	6	2
146	146	2
1	19	2
118	146	2
105	106	2
25	68	1
106	136	1
100	115	1
25	33	1
62	63	1
98	123	1
68	114	3
131	132	1
17	93	1
79	96	3
112	114	1
110	134	1
136	136	3
19	40	1
56	135	1
117	144	1
55	143	1
59	63	1
5	43	1
11	70	1
140	142	1
58	95	1
27	30	1
91	92	1
3	20	1
3	47	1
0	71	2
74	95	1
110	132	1
78	123	1
91	98	1
52	52	1
93	95	1
87	88	1
20	21	1
66	128	1
21	93	1
33	84	1
123	134	1
27	28	1
24	25	1
53	55	1
21	22	1
26	67	1
33	34	1
