22	50	3
73	73	12
38	38	9
100	100	7
80	82	3
106	106	7
91	91	6
48	48	6
160	160	3
21	21	5
116	116	6
107	136	3
50	50	13
162	165	4
72	90	3
7	15	2
53	54	5
109	109	7
46	46	7
150	152	1
117	119	8
114	114	6
115	115	12
135	136	4
86	86	10
88	89	4
26	26	2
110	111	3
84	85	1
112	112	3
27	75	2
132	134	5
138	138	3
98	98	3
140	145	2
94	94	5
139	140	3
40	40	10
99	100	6
49	51	4
150	150	2
122	122	5
3	3	5
15	36	2
18	18	6
54	109	1
44	46	4
9	9	3
143	146	2
78	169	2
92	92	9
41	66	2
96	96	5
64	64	4
77	77	13
95	95	6
75	75	6
146	147	2
43	44	1
96	97	2
10	75	3
1	38	1
162	163	2
53	53	7
73	169	3
83	85	1
2	2	8
78	79	5
0	4	2
72	169	3
89	90	1
2	92	4
8	8	9
145	145	3
93	152	2
88	88	9
107	107	3
54	54	7
162	162	7
14	15	2
61	70	3
80	80	8
6	7	7
129	131	4
69	123	4
165	165	6
112	114	4
62	63	3
80	81	2
36	36	10
26	27	3
82	82	8
4	77	2
22	24	2
103	103	3
7	8	7
153	163	2
39	40	3
63	69	4
78	78	3
15	15	9
79	84	2
13	24	6
127	151	1
107	108	4
20	41	1
27	47	1
87	87	10
77	85	2
81	83	6
87	88	3
81	81	5
34	34	11
11	12	1
152	152	5
93	128	1
121	131	2
156	156	2
133	138	1
96	129	2
85	85	3
143	143	5
1	1	7
159	160	3
38	84	1
140	141	1
169	169	8
157	157	3
47	105	3
97	97	2
95	96	3
65	65	4
22	23	1
146	146	1
97	100	1
8	89	3
52	74	2
55	55	12
44	45	9
72	74	2
3	4	3
110	110	6
128	128	5
118	118	8
66	66	2
47	51	2
98	118	1
91	95	1
119	119	5
141	147	4
20	39	3
18	19	6
49	49	5
81	82	10
86	87	6
119	120	3
151	152	1
93	95	2
91	137	3
23	40	4
162	164	4
124	150	6
120	120	9
38	53	1
101	101	2
43	43	13
163	163	2
129	151	3
94	139	2
11	13	3
166	166	4
70	72	1
39	39	4
111	113	1
168	169	2
24	24	7
51	58	1
62	64	1
134	134	4
56	57	3
136	136	5
15	26	2
82	83	8
73	85	2
76	170	7
141	141	7
107	109	2
25	25	5
70	70	4
147	147	9
49	50	1
102	105	1
93	94	1
12	69	5
102	103	1
53	84	3
57	57	2
164	164	4
101	102	5
66	70	1
10	10	5
91	108	1
68	68	4
62	67	2
106	112	2
11	11	6
33	34	3
20	21	5
124	124	1
22	22	8
130	131	2
132	133	3
125	125	1
131	132	3
16	17	8
143	144	6
92	104	1
74	75	1
64	65	2
52	52	4
22	40	2
5	6	2
141	144	2
97	98	3
14	18	3
77	78	1
149	149	3
161	161	5
48	50	6
167	167	3
2	86	1
63	63	5
153	153	1
93	93	3
133	133	3
98	117	1
104	104	9
130	130	2
70	71	1
2	3	1
37	56	1
48	116	4
27	45	2
16	22	5
159	159	3
101	104	4
27	27	3
105	105	3
5	5	4
92	93	5
137	137	4
144	144	5
21	22	2
135	138	1
70	75	1
74	74	2
37	37	2
47	117	2
17	19	1
159	165	2
101	103	1
56	56	5
93	151	2
6	25	5
72	72	4
132	132	2
90	90	5
8	9	1
161	163	1
79	79	1
14	14	6
133	134	3
105	106	3
6	15	2
90	137	3
122	131	1
46	133	2
47	122	1
55	158	4
119	122	2
48	117	5
159	162	2
108	108	4
108	136	1
100	102	2
147	148	3
143	150	1
86	91	6
54	123	2
92	122	2
5	52	2
66	125	1
23	69	4
67	67	1
102	102	5
45	45	4
2	56	2
42	42	9
155	156	5
109	110	2
155	155	6
137	149	1
64	67	2
139	147	1
1	17	2
5	51	2
72	77	1
139	141	2
21	53	3
101	131	1
105	107	4
124	161	1
13	13	4
113	113	5
126	126	3
13	19	1
46	47	1
111	111	3
90	91	2
20	24	3
7	7	6
151	151	3
50	68	2
84	168	1
16	53	1
84	84	6
7	135	1
55	56	2
5	64	4
48	49	2
34	35	1
35	36	2
71	72	2
89	89	4
24	25	2
25	37	2
5	25	2
44	44	2
17	17	6
4	4	5
153	166	1
58	70	2
13	20	1
8	15	1
65	66	1
168	168	3
47	76	1
112	113	5
124	151	1
122	129	1
99	99	5
124	160	1
76	80	1
12	72	3
47	47	4
71	71	3
103	151	2
19	19	4
131	131	1
118	119	1
9	10	1
158	158	2
83	83	1
57	63	2
131	151	1
87	90	1
0	2	1
5	71	1
24	37	2
21	101	1
154	166	2
76	77	1
87	91	2
142	146	3
4	5	1
25	113	1
88	90	1
26	28	2
160	165	2
131	167	1
154	164	1
57	84	2
104	106	1
44	122	2
50	71	3
117	117	3
19	22	1
123	164	1
87	169	1
164	165	3
129	130	1
5	70	1
49	67	2
129	165	2
19	20	1
17	37	1
52	58	1
124	152	1
124	125	2
42	43	1
69	70	1
6	6	2
126	127	1
39	157	1
163	165	1
94	145	2
101	120	1
50	51	2
1	86	1
25	114	2
68	69	1
71	91	1
114	115	1
12	13	1
128	129	1
68	99	1
101	119	1
103	105	1
17	18	1
1	53	1
98	99	2
105	127	2
6	64	1
51	51	1
57	58	1
115	116	1
63	123	1
64	66	1
39	155	1
148	150	1
7	48	1
93	130	1
4	135	1
23	23	1
121	121	2
68	97	1
0	0	1
118	122	1
5	37	1
84	86	1
54	156	1
39	96	1
25	43	1
166	170	1
43	134	1
49	118	1
72	75	1
119	161	1
