128	129	4
6	6	14
129	129	32
111	111	25
116	128	4
88	89	3
75	75	26
50	50	27
99	100	8
132	150	6
133	133	14
128	128	13
50	103	5
35	35	8
6	82	1
155	156	5
106	106	12
8	11	4
32	65	2
36	36	19
10	11	5
50	53	3
83	84	12
54	54	21
119	119	7
30	30	15
123	123	16
73	73	19
5	5	10
67	67	7
135	139	6
116	116	39
24	30	1
130	130	20
23	24	12
154	154	5
137	137	27
40	41	21
96	126	2
97	100	5
0	1	8
12	17	3
53	53	8
2	2	41
103	103	22
148	148	19
11	14	3
42	43	5
82	105	4
134	134	27
89	89	29
12	12	23
14	19	3
98	98	29
146	147	5
33	33	18
66	67	5
150	150	14
10	10	6
156	156	15
28	28	14
46	46	19
37	37	16
109	110	3
95	96	5
84	85	12
147	148	5
138	138	18
131	131	28
136	136	7
25	25	12
6	73	5
120	120	8
129	130	12
149	149	11
143	143	4
108	108	13
51	51	24
6	83	2
118	119	5
107	107	31
41	41	15
77	77	10
81	82	11
44	44	38
94	94	28
124	124	13
92	92	23
96	100	1
38	38	18
130	133	6
148	154	5
14	14	10
32	32	27
71	71	15
21	21	15
126	126	9
46	66	4
121	122	3
100	100	23
3	4	3
49	49	12
48	50	4
131	132	9
151	151	12
101	107	1
113	113	8
88	88	14
158	158	22
99	99	13
66	72	2
13	16	3
29	29	15
94	98	1
102	102	6
40	44	2
117	117	13
107	116	4
81	81	24
69	71	2
117	134	5
80	80	16
139	139	20
20	20	5
7	66	2
43	43	10
45	45	14
156	157	4
93	93	15
3	6	2
142	142	13
140	142	1
117	120	5
146	146	5
50	51	3
156	158	3
8	9	9
62	63	4
97	98	5
67	69	3
7	7	19
39	40	4
87	88	6
91	97	3
147	147	11
37	39	3
13	14	14
29	31	4
57	57	8
136	137	10
98	100	3
23	23	26
96	97	8
111	112	7
51	105	3
64	64	4
24	25	10
18	19	11
116	117	10
124	126	2
137	139	3
72	72	12
121	146	2
116	122	2
135	135	16
122	122	5
4	4	10
31	31	12
91	95	1
142	147	5
153	153	8
95	97	16
140	140	12
148	149	9
17	17	22
104	104	10
30	31	1
47	47	20
85	86	6
119	120	3
53	70	2
138	141	1
141	141	18
113	114	1
153	154	4
151	154	2
66	68	2
65	66	5
47	55	2
65	65	28
148	155	2
45	46	3
127	127	8
123	125	7
82	84	9
79	102	3
88	91	3
16	27	3
144	147	3
77	79	5
52	53	4
95	95	30
112	112	17
137	138	14
144	148	3
105	106	9
46	48	5
39	39	8
118	118	9
97	97	7
8	13	6
36	46	6
115	128	2
78	78	3
109	109	10
114	114	19
151	152	6
17	18	13
100	101	7
82	83	3
87	87	16
91	96	2
48	48	14
39	50	3
46	47	11
5	84	3
87	126	5
66	66	10
134	135	6
105	105	10
140	141	12
155	155	6
47	48	4
130	131	13
25	27	3
66	71	4
12	16	6
8	8	17
157	158	3
53	54	5
114	115	2
139	143	3
14	26	5
49	51	3
149	150	5
35	55	2
135	138	2
110	110	17
81	116	4
6	80	3
83	83	16
157	157	12
2	25	1
16	16	24
84	92	5
92	127	2
110	111	13
144	145	8
152	153	2
80	81	4
91	92	3
106	133	3
9	112	3
98	99	3
7	8	6
68	68	2
22	23	3
30	32	1
0	0	10
8	19	1
108	110	2
79	79	12
9	10	2
134	138	3
110	116	1
101	101	11
3	3	3
1	99	1
37	38	6
122	123	1
18	32	4
34	34	7
3	5	4
86	86	11
34	48	1
38	46	2
20	22	2
84	84	8
63	67	9
140	158	1
36	37	6
48	51	3
22	22	14
26	29	3
75	102	2
150	151	5
63	63	10
22	24	3
107	128	2
26	26	10
125	126	2
70	71	16
107	108	4
31	63	3
135	156	2
79	110	3
72	73	2
20	21	2
48	49	7
108	109	9
8	10	2
64	71	2
15	15	9
82	82	7
118	120	2
47	56	6
124	127	6
56	56	6
115	115	5
90	94	2
70	70	6
79	81	4
28	29	6
21	22	5
1	2	9
7	73	4
126	127	6
91	98	1
96	96	3
55	55	7
78	79	2
44	45	5
25	26	3
29	30	9
50	105	1
148	156	3
75	84	3
27	27	8
51	52	10
117	119	3
145	146	3
79	80	5
92	94	3
91	93	1
19	19	6
2	3	5
11	20	1
146	148	2
9	9	9
123	124	5
83	86	8
32	39	7
124	125	1
34	36	3
136	138	2
129	131	4
135	137	3
125	125	7
8	70	5
14	15	2
104	106	5
16	20	2
132	133	2
67	70	1
120	121	11
75	77	1
141	147	3
103	108	3
154	156	2
23	25	2
48	52	3
121	121	13
1	1	8
150	153	3
1	3	6
140	159	2
69	69	5
46	54	5
52	54	9
40	40	3
118	121	2
98	101	5
12	14	1
42	42	14
24	24	14
135	136	3
114	127	4
6	22	3
18	18	11
83	85	4
98	129	6
7	19	6
2	6	2
68	69	6
106	107	10
7	10	1
91	91	11
34	38	1
135	149	2
26	27	5
23	33	4
54	55	17
142	144	5
39	44	4
129	138	2
13	13	6
154	158	2
138	150	1
6	81	1
51	103	4
76	78	5
57	61	7
87	108	3
45	47	1
52	52	4
152	154	7
121	123	2
139	142	2
73	74	1
93	94	9
27	29	2
87	89	1
55	57	2
86	87	1
131	133	2
81	123	2
92	129	1
39	46	1
19	20	2
34	35	3
127	128	2
32	33	3
90	97	1
79	82	2
31	32	2
145	148	1
155	158	3
121	145	3
11	11	15
33	54	3
33	34	5
149	151	2
155	157	4
144	144	2
105	107	2
111	113	2
7	11	1
26	30	3
93	95	2
119	138	2
77	78	3
143	144	2
43	46	1
48	57	1
34	37	5
118	138	1
56	57	1
47	50	1
139	140	1
35	36	4
1	101	2
91	112	5
115	116	8
74	74	1
28	66	1
91	94	3
94	95	1
89	94	2
90	91	3
40	51	1
8	53	1
87	95	3
114	120	1
116	130	2
68	71	3
89	108	3
19	22	1
101	102	1
76	76	4
52	55	1
5	27	3
43	45	2
82	85	1
159	159	3
152	152	4
84	86	2
85	85	5
11	12	3
76	77	1
4	5	3
38	39	2
78	103	1
8	55	2
147	149	2
157	159	1
104	105	3
83	125	1
90	90	4
81	85	1
4	23	1
132	132	2
16	18	5
9	63	1
81	120	1
102	109	2
89	91	2
47	49	1
109	134	2
103	104	2
116	129	2
116	148	1
49	50	2
41	43	3
17	19	1
121	124	1
34	53	1
40	43	1
13	19	2
117	118	1
115	134	2
27	28	1
16	88	1
62	62	3
24	35	1
38	40	1
102	103	2
15	16	1
1	4	2
56	71	1
116	134	1
2	82	2
97	99	1
7	17	1
16	17	2
12	15	2
131	150	2
90	96	1
54	68	2
120	122	1
37	47	1
109	111	3
90	113	2
106	132	2
42	50	1
145	145	2
47	57	1
87	134	1
138	139	1
8	12	1
103	131	1
62	72	1
5	94	1
143	146	1
84	125	1
16	19	2
125	128	1
145	154	2
122	150	1
56	61	1
120	158	1
63	70	1
15	89	1
18	65	2
50	55	1
43	80	1
105	108	1
89	126	1
8	50	1
128	148	1
37	54	1
