32	38	4
46	55	8
66	66	5
56	56	7
79	79	8
61	64	1
27	28	10
104	104	5
98	98	9
74	74	12
94	96	5
36	80	3
81	88	2
25	36	4
91	91	2
37	37	2
92	92	9
22	22	12
54	54	2
82	82	2
45	49	1
85	85	6
23	23	5
25	47	3
51	51	6
61	61	7
93	93	7
103	103	6
29	30	6
34	34	8
68	69	10
59	59	4
58	60	2
42	44	2
20	20	7
88	88	3
69	69	6
33	33	4
52	52	14
31	65	2
38	98	3
31	32	3
64	64	2
47	49	1
77	77	2
54	55	3
31	66	2
82	87	5
31	49	1
32	34	1
73	73	9
40	40	10
88	89	11
98	99	1
76	78	3
81	81	3
71	71	9
53	54	5
38	55	1
57	57	8
63	63	2
82	83	7
55	56	2
86	90	3
78	78	4
21	24	1
70	70	3
101	102	5
79	80	3
22	63	1
84	84	2
95	95	7
79	81	3
25	25	13
65	66	2
100	100	6
58	64	1
93	94	4
30	44	3
47	88	3
33	41	1
101	106	2
83	87	1
50	92	1
27	66	2
31	31	6
21	22	1
81	85	1
61	62	2
88	98	2
58	58	3
51	52	2
42	42	1
71	72	1
71	85	1
70	73	3
102	102	4
29	42	7
55	55	6
94	94	13
44	44	2
32	32	4
67	67	4
87	87	6
49	56	2
33	51	2
90	90	6
91	99	5
100	101	4
96	96	8
89	89	4
21	21	4
105	105	4
33	40	3
50	51	4
37	38	1
29	47	4
35	35	6
72	81	1
82	89	1
80	81	2
22	23	3
30	46	1
66	70	1
39	98	2
67	78	3
99	99	5
95	96	2
27	29	1
38	40	3
60	61	1
34	35	3
50	50	3
83	89	3
101	101	3
39	39	3
92	93	1
83	84	1
30	65	2
64	67	3
80	80	1
51	71	8
106	106	2
56	57	1
77	79	1
20	43	4
54	92	1
68	68	6
45	45	5
86	87	4
78	82	1
76	76	4
32	36	1
33	34	3
53	53	3
72	72	2
88	94	3
94	95	3
30	30	2
26	26	2
38	39	2
82	86	3
60	60	2
89	90	1
86	86	1
77	100	1
25	67	1
76	79	2
33	53	2
39	43	2
31	39	1
33	83	1
30	66	2
89	98	1
83	86	4
45	55	1
97	98	3
41	94	2
28	58	2
27	30	1
87	90	1
64	65	1
37	39	2
73	92	1
84	85	1
40	107	1
62	63	1
22	64	2
62	72	1
70	102	1
51	55	1
31	38	1
49	49	1
91	92	1
62	62	3
41	42	1
36	36	3
80	83	1
50	55	1
44	45	1
29	33	1
