27	27	18
61	72	3
75	76	7
20	73	2
23	115	4
74	74	12
46	46	19
4	5	3
109	112	1
107	107	5
71	71	14
14	70	4
31	31	17
55	90	1
74	75	2
65	72	6
26	92	2
11	11	16
63	64	7
72	76	6
70	71	10
113	113	3
62	62	19
122	122	12
26	93	2
44	44	18
67	67	13
87	133	1
25	26	4
73	73	21
94	94	13
24	32	2
116	116	16
47	49	3
8	9	10
110	118	3
46	47	7
8	102	2
122	125	1
17	17	18
132	134	3
81	81	8
10	123	8
19	19	17
51	56	2
18	18	15
65	65	23
56	56	10
63	63	8
28	28	11
57	57	21
42	43	1
19	20	7
82	83	8
45	45	10
128	128	11
121	123	6
66	66	19
32	32	12
33	33	14
69	69	7
72	75	5
82	82	7
86	86	12
84	107	7
92	92	7
126	126	4
38	38	3
60	60	12
55	56	1
35	36	3
64	64	16
127	127	7
90	91	6
9	10	7
103	105	4
68	68	15
4	8	3
132	133	4
95	100	2
65	66	4
8	10	3
61	61	9
132	132	4
23	30	1
69	71	2
8	8	20
28	80	4
42	42	2
21	21	17
66	67	2
13	13	11
33	34	12
43	43	5
16	21	4
106	107	7
10	127	2
125	125	9
72	73	2
32	33	12
47	47	16
48	48	15
61	75	2
102	103	12
70	70	12
57	59	4
3	93	2
133	133	9
4	4	9
34	34	28
30	30	11
109	110	7
35	37	2
76	76	19
101	101	19
68	72	6
120	120	17
61	69	2
5	5	7
29	60	3
14	23	4
26	101	2
107	108	6
40	40	6
4	93	2
72	72	3
76	77	8
43	44	2
88	88	7
87	87	11
12	13	5
4	7	2
105	114	2
28	29	3
34	67	2
27	79	6
14	18	2
129	129	7
118	118	3
10	10	26
131	133	7
15	16	13
75	75	26
29	29	18
86	87	12
83	83	12
78	78	14
33	36	5
84	84	16
35	35	17
98	99	11
26	26	25
100	100	6
30	31	5
110	110	7
103	103	6
69	70	7
7	50	3
102	102	5
80	80	3
45	124	1
11	13	5
38	40	1
40	43	4
15	15	8
27	97	2
130	130	7
115	115	3
21	26	5
1	1	10
48	93	2
90	90	16
23	23	9
130	131	2
41	41	1
105	113	2
21	37	1
8	22	2
93	93	23
25	47	2
94	95	7
18	32	2
6	83	3
34	68	2
124	125	8
116	117	2
94	102	2
36	36	19
3	29	3
5	6	1
20	32	2
102	105	3
36	40	1
96	96	7
113	114	4
93	95	8
101	102	3
15	23	6
96	100	5
99	99	8
77	77	9
51	51	1
76	81	3
25	97	1
114	115	4
13	14	6
107	111	2
34	35	4
8	59	2
21	24	1
78	88	2
48	49	5
4	126	2
3	3	13
79	81	6
27	29	1
87	88	7
96	97	6
108	108	8
76	78	7
45	49	2
2	2	2
12	12	8
28	82	1
97	97	4
6	7	3
45	90	5
7	127	1
105	106	3
78	87	2
11	93	3
3	49	4
104	104	5
12	17	2
85	85	6
16	26	4
60	61	3
9	11	3
14	14	3
29	30	4
29	31	2
37	37	11
6	127	5
26	27	7
68	121	1
65	67	1
78	79	6
121	121	2
59	59	12
103	104	5
125	126	1
49	55	5
18	38	3
31	32	1
121	122	5
110	112	3
7	8	2
7	15	2
12	57	1
90	92	1
26	48	2
61	82	4
16	16	11
55	55	9
98	98	7
58	59	5
93	94	7
65	70	1
111	111	7
71	72	1
38	39	3
7	7	10
44	46	2
69	74	5
112	112	6
108	109	8
6	6	6
27	47	4
84	85	8
73	119	3
128	130	1
0	0	7
113	116	2
98	129	4
9	9	7
28	46	1
26	31	4
58	58	17
20	20	12
20	21	8
68	69	3
41	42	1
109	109	6
27	30	2
43	45	4
46	69	1
21	30	3
49	49	4
63	72	1
104	105	4
59	61	1
29	93	2
80	84	4
12	71	3
27	92	5
86	134	1
16	17	7
62	121	2
110	111	1
49	97	2
81	85	2
105	105	4
24	46	1
117	119	2
78	81	1
21	45	1
99	100	16
8	27	1
83	108	2
24	81	2
68	70	1
20	35	2
91	92	3
129	130	3
64	71	3
83	84	3
73	74	7
40	41	5
68	119	2
37	38	2
70	74	4
60	62	1
91	94	2
5	127	1
28	48	1
17	24	1
70	73	3
36	38	1
19	46	3
98	101	6
6	86	1
11	12	1
114	114	8
23	114	2
58	130	3
120	121	4
121	124	1
119	119	11
131	134	2
22	37	2
92	93	1
27	95	2
64	67	1
94	99	1
109	111	4
11	26	1
90	103	3
25	32	1
57	58	2
70	119	1
40	42	2
62	76	2
117	117	4
9	125	5
23	26	1
88	115	5
67	68	2
131	131	4
134	134	3
14	39	1
127	128	1
41	43	2
61	67	1
12	73	1
85	86	4
26	49	2
7	128	2
100	102	2
50	50	1
12	29	1
98	100	3
2	3	3
89	90	2
39	83	2
23	25	2
39	39	2
97	98	2
71	73	5
95	95	2
63	75	1
45	62	2
59	60	4
4	6	2
20	22	2
28	91	1
25	30	3
103	106	2
46	62	4
56	57	1
18	34	4
17	19	1
77	78	3
46	110	2
24	24	3
43	84	1
74	76	3
91	97	3
15	108	1
45	64	1
20	36	1
104	130	1
25	25	6
66	68	3
91	91	1
63	67	2
45	74	1
8	76	1
13	48	2
78	82	1
35	72	1
69	73	1
36	84	1
27	67	2
37	43	1
85	87	3
47	48	3
87	106	1
10	72	1
6	85	2
78	83	5
78	86	2
33	35	1
123	123	3
24	25	2
45	46	1
77	82	2
47	93	3
64	66	1
112	116	1
79	80	1
123	124	5
79	79	2
48	97	2
43	61	1
93	114	1
128	129	5
22	22	1
8	21	3
78	80	1
0	10	2
26	47	1
20	23	1
75	85	2
15	39	1
111	113	1
8	26	2
8	36	2
84	86	2
2	50	2
64	65	1
93	99	2
7	11	3
89	115	1
71	117	1
47	61	2
15	55	2
9	13	1
17	62	1
25	29	1
14	27	1
60	129	1
21	43	2
34	64	1
8	126	1
11	30	1
100	101	3
106	106	2
41	74	1
39	81	2
112	113	3
24	26	1
47	94	1
125	127	1
108	110	1
48	60	1
118	119	2
74	118	1
95	96	1
94	101	1
4	127	1
122	123	1
98	102	1
57	75	2
120	122	1
63	86	1
27	28	2
10	21	1
81	83	2
17	31	1
81	82	2
111	112	2
26	78	1
11	126	1
68	71	1
57	61	1
133	134	1
17	18	1
63	77	1
12	14	1
107	109	1
34	43	1
9	97	1
102	128	1
25	48	1
25	95	2
10	12	1
25	28	3
7	14	1
2	6	1
69	72	2
17	20	1
3	99	1
24	114	1
18	45	1
25	81	1
8	37	1
125	132	2
13	28	1
57	60	1
68	76	1
105	119	1
42	45	1
12	61	1
40	82	1
11	101	2
84	104	1
29	48	1
34	36	1
93	98	1
27	80	1
62	63	1
29	84	1
34	65	1
