181	182	3
155	158	1
16	106	3
153	153	3
71	73	1
31	32	3
8	88	5
3	4	1
101	101	3
139	139	5
28	44	3
172	172	3
19	20	4
200	219	2
72	73	4
200	200	5
56	56	11
9	10	4
76	77	3
108	166	2
115	166	4
85	85	6
27	27	9
77	77	9
52	53	4
240	241	1
193	213	3
102	102	5
8	11	1
131	131	3
224	225	2
117	117	1
48	48	5
162	162	6
68	68	3
20	23	6
223	223	1
106	106	2
222	223	3
215	215	5
168	168	3
122	164	2
238	239	3
60	60	5
28	28	6
187	204	7
238	238	3
123	163	2
66	66	9
127	221	2
59	60	11
149	149	4
58	58	8
228	228	1
165	166	1
145	145	5
129	129	7
79	80	8
115	115	5
175	178	2
174	175	1
43	43	2
174	181	6
214	215	6
21	22	1
85	86	1
51	53	2
66	227	2
5	6	7
71	71	6
51	108	1
126	126	7
178	179	4
151	151	7
32	32	7
81	81	7
22	23	4
236	236	4
140	160	1
22	22	2
58	59	2
0	19	2
76	76	1
34	34	6
82	82	2
36	37	3
168	186	4
118	119	1
143	143	6
5	5	2
32	99	1
25	30	4
197	198	3
45	45	3
178	178	11
180	181	4
189	190	3
6	103	2
28	29	2
68	136	7
162	163	3
219	220	1
37	48	1
25	25	4
10	74	2
230	231	4
183	183	1
115	124	1
140	140	2
105	105	3
34	58	2
7	8	4
66	129	3
88	88	2
158	158	4
12	12	5
4	6	4
198	199	3
68	80	6
114	123	2
11	88	2
182	182	1
26	26	3
51	52	3
25	46	1
122	158	1
215	234	3
29	61	2
8	117	5
79	79	3
72	72	7
179	179	4
39	51	4
180	180	1
77	78	3
51	51	4
75	76	4
40	117	2
89	90	2
200	221	3
133	133	1
53	109	1
2	9	2
225	225	1
13	16	5
13	13	2
127	127	5
80	80	3
204	212	1
10	10	3
39	39	3
11	201	2
52	52	4
148	165	3
124	165	2
138	138	3
86	86	3
235	235	5
33	34	5
38	39	5
107	107	2
24	24	5
123	124	5
130	159	3
168	169	2
20	20	1
198	198	2
83	83	1
55	55	1
13	14	2
18	18	3
53	53	4
175	175	2
28	48	3
177	178	1
78	78	4
20	88	1
19	19	4
73	74	3
45	46	5
118	118	5
203	234	2
50	176	1
209	209	3
22	60	8
73	73	5
102	179	3
17	81	1
2	2	4
159	159	1
192	212	4
233	233	9
33	83	3
183	188	2
33	41	5
22	103	2
35	84	2
6	104	2
46	72	3
65	65	1
74	113	1
220	221	3
15	15	3
136	136	3
106	109	3
208	209	4
38	38	1
201	220	3
119	120	4
66	67	3
57	59	5
24	56	1
193	212	1
58	150	1
2	47	1
21	58	3
192	215	1
21	130	1
49	50	4
3	3	2
8	118	2
3	6	1
62	63	2
160	160	2
164	164	1
0	0	4
173	173	3
1	2	1
174	174	2
96	96	2
33	33	1
201	201	2
185	185	1
29	29	3
33	48	3
17	21	4
212	212	1
1	19	3
46	172	2
40	40	3
4	7	3
70	73	1
167	167	2
37	49	1
241	241	2
236	237	1
9	9	2
161	161	4
102	103	2
216	216	1
6	6	3
128	128	2
61	62	3
104	104	2
103	103	2
198	216	1
58	60	1
2	7	2
63	63	1
97	97	2
1	12	1
30	30	3
83	84	2
146	224	1
213	213	2
74	74	4
61	63	1
230	230	2
65	68	3
208	208	1
30	31	4
111	111	2
135	136	1
45	47	2
14	21	2
8	80	1
155	155	7
37	85	1
202	214	1
126	129	1
67	67	2
58	76	1
127	128	3
70	70	2
140	141	1
148	148	1
16	16	4
121	121	4
12	18	2
37	37	1
149	150	2
47	47	3
4	18	1
184	186	2
154	155	1
37	38	3
141	141	1
35	70	2
202	202	7
185	186	5
64	65	4
157	158	1
91	91	2
137	137	1
31	31	1
15	16	2
208	216	1
58	155	2
240	240	1
53	171	2
7	126	2
205	206	2
47	77	1
186	217	1
75	75	3
80	84	1
143	161	1
192	196	2
147	223	3
227	227	1
173	174	2
11	11	1
11	12	2
69	70	1
33	135	1
119	126	1
171	171	3
169	169	4
42	42	3
25	73	2
147	148	3
145	146	1
20	156	2
155	157	1
170	170	2
61	119	4
14	14	1
25	29	1
193	193	1
120	128	1
116	116	1
144	144	4
59	59	1
26	27	1
156	159	2
14	15	2
24	58	1
4	8	2
142	143	1
42	75	1
3	9	1
61	61	1
37	56	1
199	199	1
201	239	1
108	108	1
124	124	2
195	198	1
152	169	2
146	146	1
6	56	1
4	12	1
138	175	1
3	81	1
110	110	1
62	62	1
98	134	1
18	19	2
4	4	1
13	15	2
16	17	1
69	225	1
86	88	1
114	219	1
68	95	1
195	196	1
177	200	1
201	204	1
242	242	1
204	204	1
150	151	1
74	102	2
42	76	1
128	129	1
23	58	1
239	239	3
106	107	1
56	57	1
203	203	1
192	193	1
184	184	1
219	219	1
233	234	1
38	128	2
187	187	1
12	16	1
7	17	1
22	28	1
36	58	1
