42	42	21
76	76	33
55	56	11
29	31	11
85	85	7
41	44	4
6	6	42
14	17	4
171	171	32
26	26	29
112	113	9
1	1	26
150	150	21
4	4	41
32	38	2
80	174	2
75	113	5
94	105	2
122	128	2
38	38	62
13	15	5
32	32	34
87	88	13
175	175	12
87	87	18
162	162	9
13	13	50
170	170	21
33	41	5
7	9	6
39	40	18
91	92	6
90	90	23
40	40	50
157	157	18
4	116	3
4	16	2
90	91	6
36	37	10
152	153	8
173	173	40
132	132	23
113	140	1
123	123	26
10	27	2
44	44	25
4	5	24
163	165	3
66	66	16
109	109	12
68	73	4
114	114	11
8	10	5
100	100	7
17	17	25
111	111	15
88	89	7
78	78	7
81	84	4
140	150	4
21	22	12
126	126	13
165	167	3
36	36	30
146	175	2
23	25	6
12	13	23
41	41	26
59	59	13
137	143	5
108	109	5
122	122	29
4	15	7
81	82	11
179	179	23
57	77	2
18	38	4
81	87	3
95	141	2
52	52	10
148	148	20
1	4	4
26	27	12
103	103	4
31	31	32
91	108	6
165	168	2
3	9	3
33	33	34
0	172	3
131	131	34
149	150	6
102	102	8
118	118	26
24	24	26
165	165	16
7	7	25
164	164	12
82	84	3
61	62	4
23	23	31
125	130	5
45	45	22
37	38	25
176	176	23
0	0	46
120	120	7
34	34	14
72	72	12
167	168	7
57	57	10
73	73	26
68	68	14
104	106	2
94	95	7
158	158	15
116	117	6
141	142	5
81	85	3
98	99	5
50	65	1
144	144	12
80	80	19
11	11	41
92	92	13
82	82	31
21	21	14
37	37	49
37	43	4
23	24	9
29	30	9
56	56	19
27	27	34
18	18	14
10	30	2
9	9	37
49	96	2
146	146	21
154	157	2
80	81	4
25	31	8
19	19	18
163	163	12
97	101	2
61	61	19
58	58	9
18	22	6
10	10	56
118	120	7
112	112	14
86	86	2
101	101	16
19	20	17
40	41	7
56	70	1
2	2	20
83	83	15
138	138	15
8	9	24
20	20	17
133	133	22
98	144	2
140	140	27
134	153	2
14	16	5
67	68	9
5	14	2
50	50	15
5	18	1
1	6	3
38	39	6
39	39	44
148	149	2
178	178	15
171	172	8
99	99	10
168	168	14
104	104	14
36	38	3
149	149	24
120	122	3
128	128	6
7	26	1
23	37	4
163	167	2
124	125	2
89	89	21
25	26	11
11	14	7
94	94	22
15	18	4
97	97	8
81	81	15
130	130	17
80	96	1
126	128	4
169	169	17
88	88	5
104	105	2
77	170	4
35	41	4
64	64	14
43	43	17
85	86	3
180	180	8
105	105	18
13	14	7
136	136	14
2	10	2
4	6	5
161	161	6
100	157	2
87	90	2
103	104	6
8	8	30
19	21	7
108	108	14
130	145	2
65	65	24
60	60	14
16	16	28
141	141	14
131	132	7
95	95	16
158	159	3
147	148	6
3	4	10
121	122	3
3	15	3
63	87	2
13	32	4
117	117	8
31	32	12
119	120	14
139	139	21
76	77	8
125	125	21
115	115	4
3	3	34
134	170	4
82	85	3
7	10	1
107	109	5
127	127	20
62	86	2
2	5	2
61	89	1
150	151	4
109	110	2
132	149	3
97	116	3
58	95	2
49	49	4
51	51	19
7	8	19
72	85	3
138	171	2
20	21	5
79	79	10
153	153	25
67	153	2
30	37	4
29	29	40
141	176	7
14	14	77
25	25	21
93	138	2
154	154	7
81	102	2
5	5	23
4	8	4
99	101	1
98	98	3
122	123	2
18	35	4
12	14	4
67	151	2
159	159	10
91	91	20
9	12	6
30	31	10
1	5	7
79	80	4
93	93	20
143	144	9
172	172	10
64	65	5
166	166	9
154	158	4
62	63	11
32	36	4
113	114	6
136	137	7
106	106	15
30	30	16
27	30	2
30	34	3
54	54	10
27	28	12
13	29	2
99	100	4
71	71	11
43	44	7
123	124	8
35	35	31
84	86	3
26	176	1
15	16	10
25	29	2
59	79	6
155	156	18
151	152	1
119	119	14
143	143	17
89	113	6
26	28	7
124	126	1
10	13	9
38	40	1
138	142	3
77	100	3
84	84	6
1	10	6
31	43	1
13	16	3
96	97	4
73	172	4
107	111	4
53	53	13
5	6	22
150	167	5
134	134	26
42	44	2
168	178	2
80	171	2
28	66	3
6	10	2
127	129	4
29	42	2
118	121	3
162	164	4
174	174	16
16	78	2
52	53	9
6	14	4
101	129	3
10	11	9
77	77	11
86	87	4
116	116	5
142	142	23
123	170	2
34	41	1
6	7	10
121	129	2
110	110	7
24	27	2
137	138	3
19	30	1
2	29	1
57	80	1
15	15	24
8	43	3
81	171	6
5	7	7
138	148	1
60	153	4
135	135	29
121	121	20
77	78	9
130	148	2
126	127	2
22	38	1
33	34	6
106	118	3
2	4	12
165	174	4
19	23	2
152	155	1
80	102	1
95	96	15
137	137	17
5	40	4
28	28	21
3	16	3
82	108	3
5	8	5
22	22	20
129	129	17
2	3	9
75	75	9
163	164	7
65	112	6
177	178	4
24	25	7
165	170	3
107	107	7
123	131	2
12	22	1
160	160	10
17	40	3
113	113	19
18	44	1
160	163	1
30	41	2
13	17	4
55	55	14
39	55	1
16	17	10
97	109	1
141	175	1
32	33	9
171	180	7
165	166	7
23	28	1
9	10	11
24	26	3
4	11	6
57	104	2
159	163	4
57	90	1
55	175	2
42	45	1
135	155	4
52	80	3
129	130	10
5	45	3
167	167	19
55	59	1
50	51	3
147	147	16
157	163	2
36	40	3
148	179	2
3	161	4
8	44	2
33	127	1
146	151	3
96	99	1
70	71	2
105	106	9
20	22	2
64	157	4
135	136	4
179	180	3
12	30	5
170	171	6
161	163	3
165	172	1
124	124	8
138	139	2
10	14	7
55	63	3
86	172	5
96	112	1
58	94	2
32	45	2
2	7	4
1	15	5
6	120	6
57	72	1
146	174	3
1	9	4
168	169	9
130	150	2
157	158	5
71	72	3
12	12	12
32	39	5
12	25	4
103	155	1
58	141	2
15	31	2
61	63	4
56	58	2
98	150	4
6	8	1
9	45	3
54	56	1
11	26	2
3	10	2
72	74	1
111	112	5
107	108	5
93	180	2
67	67	12
17	24	5
169	180	1
17	22	1
75	76	4
125	148	1
150	153	1
127	146	5
165	178	2
15	42	1
64	116	7
96	101	1
90	92	1
87	116	2
4	117	2
134	136	1
7	13	3
72	139	4
25	38	1
10	78	2
7	78	3
78	81	1
67	152	3
155	155	9
176	177	3
12	19	2
13	36	3
144	145	6
83	86	2
117	146	1
120	121	7
56	118	1
15	17	11
87	113	4
172	174	2
6	22	1
2	9	3
31	42	3
139	149	3
115	127	1
91	94	5
50	62	3
96	96	14
11	16	1
72	73	2
133	167	2
32	37	4
5	41	3
30	44	1
22	23	8
17	32	2
25	43	4
150	177	5
110	111	4
137	149	4
68	100	1
153	174	2
58	77	3
22	28	3
122	124	2
174	175	3
16	22	1
17	19	1
41	42	9
33	39	1
31	40	1
1	2	5
93	94	6
81	83	1
33	36	2
97	144	2
8	31	4
115	117	1
66	179	2
139	140	3
50	100	2
33	37	2
131	145	2
53	54	7
119	129	1
134	135	5
33	38	3
20	40	2
15	30	1
92	93	4
55	142	3
2	11	2
160	177	1
81	95	1
145	145	3
14	32	3
31	36	2
152	152	7
17	18	2
32	42	5
106	107	2
36	39	8
30	43	4
36	42	1
151	155	1
90	96	2
173	178	2
5	140	1
4	30	2
29	34	3
65	152	5
101	106	2
9	11	4
28	29	10
123	126	1
21	30	3
64	74	1
1	16	3
55	81	1
29	33	3
102	121	1
31	33	1
107	133	1
51	52	3
76	94	1
1	34	2
105	107	2
125	126	8
17	75	1
65	66	8
22	25	1
146	158	1
0	14	1
93	96	1
132	133	3
119	121	2
149	176	2
91	93	2
162	175	2
35	39	4
13	22	3
157	178	2
160	164	2
60	79	1
177	177	2
145	146	1
34	35	3
55	61	6
95	132	2
6	13	2
135	158	3
123	125	3
38	173	2
13	44	1
130	131	2
60	61	5
164	165	5
57	59	1
15	46	2
5	22	1
88	90	2
157	159	4
16	32	3
45	62	1
14	25	2
92	115	4
77	118	1
80	83	2
126	131	2
76	91	1
7	42	2
114	119	1
29	45	1
71	95	2
13	31	4
12	21	1
35	36	6
11	13	3
63	154	2
18	19	7
87	101	2
74	74	6
16	20	3
36	41	1
39	54	3
59	61	2
19	22	1
101	102	1
28	30	3
19	41	1
8	18	2
98	102	1
161	162	2
79	173	3
151	151	6
74	90	4
73	111	2
21	29	3
85	104	6
74	77	2
31	44	3
112	116	3
153	154	1
12	17	3
7	19	2
129	131	2
11	44	2
37	144	2
127	128	3
147	176	1
74	126	1
173	174	2
67	86	2
57	58	7
156	156	2
32	60	2
102	103	2
63	126	2
55	174	1
4	9	4
82	87	3
5	33	2
55	80	1
9	13	1
6	33	3
85	88	3
63	63	6
40	153	2
149	180	3
118	129	4
32	172	2
159	160	3
62	62	6
1	3	1
115	129	2
65	94	3
11	31	1
8	15	1
6	41	4
40	43	1
120	130	1
98	149	3
55	64	1
158	160	1
62	87	1
63	64	4
120	126	5
155	157	1
63	65	1
130	170	2
97	152	2
2	6	1
26	45	1
89	153	3
40	42	1
97	166	2
64	68	1
123	169	3
16	23	5
80	95	2
8	26	2
98	101	1
23	44	1
71	86	1
59	91	1
28	36	2
95	97	3
95	98	1
34	43	1
96	100	4
123	143	1
39	44	2
88	116	2
59	60	1
24	81	3
118	148	1
156	157	1
97	151	4
149	167	1
130	132	1
20	31	3
20	28	2
10	15	1
44	45	3
157	164	1
4	44	1
44	46	2
98	131	3
90	93	1
6	32	1
2	33	1
54	64	2
98	113	2
31	34	1
33	35	1
148	150	1
74	75	2
11	22	1
11	15	1
103	105	2
51	85	1
16	29	2
29	39	2
101	104	1
138	147	2
53	135	1
29	40	1
167	172	1
160	165	1
58	73	2
57	137	1
39	123	1
120	147	1
54	55	1
104	114	1
4	12	1
26	44	1
74	106	2
133	134	1
140	152	1
3	40	2
168	171	1
134	137	1
77	105	1
128	156	1
12	16	1
32	44	1
19	24	1
38	77	1
9	41	1
19	34	3
20	32	1
164	166	1
7	11	1
118	119	2
35	40	1
75	100	1
3	5	2
124	130	2
122	127	1
10	132	1
74	76	1
9	16	1
51	54	1
83	99	2
88	141	1
24	29	1
73	95	1
6	79	1
65	67	2
89	117	3
165	169	1
120	149	1
31	41	1
81	173	1
68	81	1
96	98	1
6	43	1
118	127	1
110	142	1
116	118	1
0	171	1
166	167	1
82	99	1
57	149	1
80	84	1
162	163	3
99	116	1
168	177	2
33	40	1
4	162	2
77	107	2
6	21	1
100	101	2
60	138	1
18	31	1
166	169	1
151	157	3
88	112	1
67	175	1
89	90	2
137	139	1
139	141	1
17	39	1
25	37	1
90	94	1
56	57	1
13	43	1
151	167	1
155	159	1
114	127	1
52	65	2
101	103	1
112	114	2
81	86	1
171	179	1
90	95	1
6	24	1
160	162	1
10	44	2
117	121	1
157	160	1
57	95	1
66	68	2
115	118	1
142	143	1
108	133	1
59	141	1
39	43	1
110	113	1
25	46	1
34	45	1
28	54	1
73	74	1
96	102	1
89	91	1
24	32	1
55	133	1
137	168	1
118	146	1
2	12	1
42	43	2
57	169	1
145	152	1
0	1	1
55	62	1
17	78	1
56	72	1
68	95	1
76	111	1
39	41	1
27	39	1
133	179	1
53	174	1
58	59	1
8	41	1
94	148	1
3	18	1
107	132	1
