75	75	6
121	125	2
12	12	7
104	104	10
21	37	1
121	133	1
21	60	2
26	74	4
107	107	4
37	40	5
99	99	9
39	39	5
71	71	3
44	45	4
94	94	11
103	103	5
110	110	11
64	67	2
11	11	6
4	6	2
46	46	5
56	57	1
21	48	6
29	29	8
106	106	4
103	104	1
72	74	3
100	100	7
36	37	4
113	126	3
43	43	1
133	134	1
23	23	2
10	75	2
14	16	2
70	70	6
19	77	1
64	66	1
82	85	2
1	1	3
108	108	4
116	116	7
11	81	6
39	40	2
86	86	6
81	81	3
113	125	2
16	70	2
116	117	4
16	76	1
44	72	1
56	56	11
78	79	5
131	131	3
29	55	4
121	122	2
5	5	4
43	44	3
35	35	9
28	28	6
45	61	3
55	55	3
4	14	1
65	65	6
34	34	17
36	36	5
64	64	5
48	48	6
80	80	8
117	120	1
3	96	1
76	85	1
132	134	3
123	124	5
17	17	4
108	128	6
9	10	1
93	94	3
4	4	7
123	123	4
10	102	3
76	76	2
24	24	4
96	100	5
71	72	2
60	81	5
73	73	6
68	68	9
8	57	3
96	98	1
102	102	1
79	79	7
112	126	7
118	118	10
105	105	5
33	33	2
72	72	11
20	20	3
94	95	4
4	99	6
6	13	4
61	61	5
59	59	6
66	66	9
32	32	7
67	67	7
16	74	3
6	6	5
126	130	1
97	97	3
78	80	2
26	91	5
111	111	1
14	14	4
91	101	3
19	31	5
81	84	1
10	10	3
10	36	2
8	8	3
17	19	2
95	128	1
101	102	3
16	120	4
24	25	4
83	102	4
18	18	1
90	111	2
33	36	1
130	130	2
82	82	7
10	65	1
80	81	5
30	55	1
93	100	2
120	120	1
42	42	4
15	15	8
96	96	6
9	9	3
34	35	7
91	132	2
120	122	1
47	48	2
21	83	2
23	74	3
41	41	2
33	34	2
100	101	7
90	122	1
85	85	6
37	37	1
62	62	3
117	133	4
27	27	5
58	59	3
63	65	3
114	114	6
25	25	7
0	0	1
34	78	4
117	117	3
32	33	1
40	40	10
82	83	4
26	90	3
99	100	1
125	125	4
6	65	6
13	13	2
35	66	2
101	110	4
31	75	5
21	21	6
97	99	4
40	56	2
13	14	2
95	95	3
69	69	4
2	2	7
66	67	4
115	115	2
105	106	5
29	32	3
55	57	2
69	70	2
87	90	2
10	59	4
108	109	3
57	63	1
86	87	3
26	27	5
44	44	10
77	77	5
92	93	6
63	63	4
121	121	3
112	112	5
109	111	3
30	32	5
29	30	4
20	75	2
116	128	1
17	72	4
92	92	8
58	60	1
109	110	2
49	61	3
30	79	1
30	42	5
77	78	1
128	128	3
28	97	2
8	10	1
75	77	3
98	98	6
97	98	1
4	7	1
119	119	2
57	57	4
10	84	1
90	90	1
30	30	3
11	125	3
10	11	1
16	16	3
19	19	4
7	7	4
45	45	3
22	23	2
29	31	3
101	107	1
6	7	5
32	36	2
83	85	2
15	16	2
92	109	1
28	35	1
71	73	2
63	70	1
85	99	1
87	93	2
89	89	2
71	74	2
48	92	2
45	64	2
76	77	3
3	5	1
48	93	1
60	60	2
7	29	1
74	74	2
40	41	1
38	38	1
88	89	2
91	91	4
13	90	3
112	114	2
27	78	1
84	89	1
19	41	2
15	50	5
17	119	1
21	82	1
31	31	2
62	69	2
97	101	2
57	60	2
29	48	2
26	86	1
81	83	1
13	97	1
93	93	1
7	92	1
47	47	3
24	83	1
117	123	3
133	133	3
38	85	1
57	58	2
32	34	2
102	103	1
95	107	3
21	30	1
22	25	1
29	60	1
41	42	1
42	84	3
100	102	1
86	88	1
50	51	3
119	121	1
122	122	1
47	93	1
22	48	1
132	133	1
93	110	2
45	46	2
38	54	1
102	105	1
61	63	2
6	17	1
27	80	3
7	96	1
132	132	1
19	20	1
84	85	1
49	50	1
58	58	1
90	97	1
49	49	1
11	76	1
31	56	2
113	113	1
22	22	1
118	134	1
3	3	1
21	31	1
91	92	1
23	25	1
91	133	1
89	92	1
30	56	1
92	134	2
22	79	1
129	129	2
21	42	1
87	87	1
6	16	1
88	88	1
96	101	1
26	46	1
101	101	1
1	81	2
131	132	1
16	17	1
42	55	1
15	79	1
35	79	1
119	123	1
