27	28	11
137	138	8
74	75	7
111	111	14
34	35	2
139	139	11
119	119	10
89	89	7
9	68	3
37	37	4
9	12	1
122	123	2
136	138	3
22	22	8
2	3	9
77	77	12
75	75	8
71	72	7
84	102	4
120	121	6
80	81	1
133	133	9
115	116	5
85	85	9
100	100	10
25	25	4
80	80	17
135	135	12
115	115	7
17	17	5
106	106	13
30	32	3
88	89	2
128	128	26
19	19	7
16	16	4
112	112	10
119	121	4
75	100	1
4	4	8
26	27	2
1	1	8
19	24	3
79	79	8
95	95	7
18	18	10
116	116	2
117	117	9
118	118	16
103	105	2
1	2	1
28	28	2
24	29	3
98	98	12
121	121	12
21	21	5
34	34	16
113	118	3
103	103	16
5	9	2
102	102	14
38	38	5
136	136	11
84	85	2
82	82	2
13	13	8
127	127	11
132	132	20
72	72	7
21	31	2
110	111	5
31	32	2
36	140	2
17	18	5
104	104	4
29	29	5
85	86	3
97	98	4
36	36	4
123	123	19
19	22	5
77	123	9
12	34	2
1	22	1
128	129	9
93	95	1
23	24	4
136	137	4
134	135	3
11	20	2
71	71	4
9	9	2
17	19	2
35	35	8
126	129	4
138	138	9
123	124	5
124	125	4
100	126	3
16	25	3
29	30	6
103	118	1
0	0	3
33	33	5
75	76	1
73	73	6
107	114	1
135	137	2
130	130	12
27	30	1
137	137	9
92	93	1
11	12	4
121	122	2
19	20	1
74	129	3
129	129	12
7	8	3
106	107	5
122	122	9
108	108	5
11	14	3
120	120	5
131	133	2
79	106	1
12	13	5
24	24	4
1	3	3
78	118	2
126	127	4
109	109	6
32	32	2
11	11	5
8	8	3
3	3	3
127	129	3
84	86	2
125	125	10
131	131	17
80	82	1
97	99	1
113	113	5
104	113	2
28	29	3
92	92	3
20	20	2
95	117	3
23	23	4
71	74	2
93	93	9
7	7	3
86	86	10
114	114	2
87	87	16
78	80	2
124	124	11
5	6	8
28	36	2
15	15	6
90	91	2
33	34	6
83	84	7
108	109	1
100	111	1
102	104	1
6	6	3
8	9	5
22	25	2
26	26	1
28	37	2
72	102	2
74	100	2
25	26	4
6	16	4
76	78	1
125	126	4
90	90	4
99	100	3
12	21	1
134	134	8
0	1	4
87	93	2
93	94	2
2	4	8
116	117	1
10	20	5
78	102	2
85	117	1
96	96	7
88	90	1
8	10	1
110	117	2
88	112	1
11	19	2
75	94	1
76	77	2
93	104	1
83	83	4
105	105	4
15	17	2
81	81	2
123	125	2
12	125	1
6	18	2
110	110	2
83	104	2
77	122	2
98	100	1
94	96	4
20	21	3
104	107	3
117	118	1
76	76	3
98	99	1
13	15	3
13	14	5
78	78	3
101	127	1
13	128	1
88	88	2
118	121	3
66	66	1
131	132	3
103	104	4
95	96	2
101	101	5
109	111	4
1	7	2
79	81	2
96	98	1
91	114	1
79	80	2
75	77	3
3	4	1
78	81	1
126	126	2
15	16	1
108	122	2
82	105	1
5	5	4
0	5	1
86	90	1
133	134	6
140	140	5
27	29	1
127	132	3
95	123	3
103	107	1
96	125	1
10	11	2
72	73	1
94	94	1
37	38	1
77	78	2
12	15	2
113	115	1
30	31	4
100	101	3
84	93	1
10	17	3
24	26	2
81	83	2
87	106	2
102	103	3
12	19	3
135	136	6
89	96	3
31	31	3
24	31	1
0	29	1
114	115	2
113	114	2
14	14	1
71	125	2
80	126	1
118	120	1
82	106	1
7	9	3
74	74	3
89	90	1
109	134	2
22	31	1
16	18	4
112	118	2
35	36	2
92	100	1
6	7	2
74	77	3
125	131	2
115	117	1
109	115	1
27	27	3
22	23	1
138	139	1
20	22	1
93	103	1
130	139	1
105	106	1
87	90	1
14	93	1
102	107	1
94	95	1
99	116	2
9	10	1
108	117	1
91	105	2
30	30	3
86	87	1
123	126	1
91	95	1
119	120	1
29	32	1
85	87	1
107	107	2
90	107	1
87	89	1
112	114	1
78	79	1
81	82	1
92	140	2
