141	141	16
94	94	5
33	33	2
95	95	10
103	103	16
36	37	2
62	62	20
30	30	4
105	105	9
100	100	11
38	39	4
10	59	3
133	133	10
122	122	8
6	6	7
134	134	5
124	124	34
73	74	3
38	38	20
67	67	10
55	55	7
136	138	1
113	114	3
10	10	1
40	41	4
17	26	3
54	54	2
128	129	2
144	144	14
76	79	3
123	123	10
75	75	10
126	126	14
135	135	11
49	49	7
60	60	9
129	129	8
57	62	5
8	8	8
142	142	8
112	113	3
34	34	5
12	13	1
128	128	10
88	88	8
3	3	4
81	81	8
115	135	1
111	111	4
98	98	10
139	139	5
117	144	4
57	57	9
115	115	2
59	59	6
131	133	2
102	102	7
91	92	3
18	18	8
16	17	1
56	62	6
69	70	2
143	143	11
19	21	2
19	19	9
26	26	11
104	104	8
37	38	5
66	78	2
131	131	9
112	117	2
33	35	1
140	141	6
124	134	7
79	80	10
90	90	2
126	144	1
40	42	1
138	138	2
109	110	4
116	116	7
15	17	2
62	71	1
99	99	6
117	119	1
84	85	2
102	103	1
114	117	6
94	95	4
4	6	7
125	125	8
119	121	1
24	24	4
96	103	1
130	132	3
132	132	4
68	68	10
23	24	3
92	92	3
120	120	15
67	74	4
117	117	1
22	25	1
80	80	4
98	104	2
60	61	1
100	101	8
20	21	5
106	107	6
54	57	1
15	15	9
124	142	2
130	130	8
36	36	4
93	105	2
28	28	6
136	137	6
92	93	5
11	11	4
109	109	7
85	85	3
131	132	6
11	74	2
127	127	6
52	53	5
42	42	11
17	17	11
113	131	1
118	118	8
83	86	1
119	120	4
118	119	3
124	125	7
140	140	9
78	79	1
21	25	1
143	144	5
95	96	6
42	58	3
64	66	1
70	70	1
17	18	11
145	145	7
82	82	8
21	21	7
86	87	3
74	74	11
64	65	5
86	86	1
114	115	6
13	15	1
83	92	1
59	60	7
32	33	2
32	32	4
48	48	3
24	25	4
134	141	2
72	73	1
134	135	6
24	26	1
4	5	4
108	108	4
140	142	3
39	39	8
93	104	1
18	19	6
83	83	6
61	64	1
4	4	3
144	145	2
66	66	5
122	123	6
96	99	1
91	107	2
0	9	1
103	104	4
97	104	3
116	117	2
77	78	2
128	131	1
78	78	6
14	70	1
103	110	4
41	41	7
120	138	3
89	143	1
119	138	1
1	1	6
57	58	3
105	106	3
93	94	5
141	142	3
129	130	5
13	17	2
96	96	2
31	31	3
96	100	1
74	75	3
121	121	3
31	34	2
121	122	1
101	101	5
108	109	5
5	5	4
8	16	2
116	118	4
87	88	4
64	64	8
53	63	1
119	146	3
63	70	4
73	80	1
16	16	5
48	53	1
81	83	4
13	14	2
135	136	2
65	66	2
95	105	1
113	113	1
97	97	1
89	90	1
25	26	2
40	40	8
71	72	4
136	136	8
51	52	2
76	77	2
114	114	2
54	62	2
139	140	2
117	118	1
64	69	1
23	23	3
93	93	3
109	116	6
119	119	8
47	56	1
35	35	5
98	109	2
31	60	1
63	71	1
68	69	1
118	120	2
20	20	8
137	137	3
21	24	3
6	12	2
53	68	1
118	143	1
39	41	1
9	9	3
13	13	1
142	143	2
138	139	1
88	92	1
27	27	6
120	123	1
82	91	3
29	29	7
15	16	3
71	71	1
61	67	1
58	58	2
132	137	2
34	43	1
0	1	3
127	130	2
12	12	5
121	139	2
63	63	2
76	76	6
18	28	1
92	107	2
105	108	2
126	127	1
53	67	3
62	63	3
54	55	2
49	50	1
73	73	1
47	47	2
65	65	1
106	106	1
14	14	1
39	40	2
8	9	1
3	4	3
114	116	3
104	123	1
47	48	1
118	132	2
50	53	2
59	61	1
125	126	1
66	67	2
66	73	4
141	145	1
76	80	4
77	77	3
56	56	2
107	107	1
32	40	1
125	131	2
110	110	1
108	139	1
88	107	1
108	141	5
51	51	3
87	87	2
111	112	1
42	43	2
25	25	4
89	89	2
2	3	1
84	84	2
112	114	1
6	86	1
60	62	2
64	68	1
121	124	1
93	108	1
67	68	2
118	121	1
27	28	1
146	146	2
34	37	1
19	23	1
113	116	2
13	78	2
54	56	2
5	88	1
81	82	1
34	36	2
120	146	1
88	90	2
136	139	1
0	0	1
35	36	1
129	134	1
53	56	1
114	118	1
11	24	1
124	126	1
37	60	1
107	140	1
17	29	1
67	75	1
137	138	1
34	35	1
28	29	1
128	138	1
61	61	2
100	129	1
125	143	1
37	37	2
100	103	2
107	108	1
50	52	2
31	52	1
41	48	1
63	64	1
137	139	2
50	63	1
52	52	1
38	41	1
1	4	1
54	63	1
