120	120	7
10	35	2
188	188	6
169	169	2
139	139	15
59	59	4
28	28	13
14	14	9
125	125	7
18	20	2
152	154	1
180	181	2
71	77	3
77	77	22
137	137	1
183	183	3
17	17	2
21	25	1
5	5	6
79	79	18
131	135	1
154	154	7
45	45	2
8	8	8
102	102	4
149	149	8
152	152	9
151	153	1
139	141	4
81	81	3
181	182	2
161	161	8
56	57	12
115	116	2
22	22	4
177	177	6
116	130	1
150	150	9
103	133	2
126	126	4
15	15	4
65	66	7
72	73	4
135	135	5
60	61	2
80	97	1
145	145	12
33	33	7
117	117	5
129	130	2
157	161	5
119	119	6
159	159	16
37	38	4
21	21	6
139	140	2
95	95	9
115	132	1
19	19	2
107	107	10
129	155	2
155	156	4
37	37	16
63	63	1
74	74	17
121	122	9
55	96	8
87	88	4
146	146	5
117	130	4
110	113	1
11	12	5
173	173	8
130	131	2
6	16	8
103	104	4
104	104	13
94	111	2
55	56	5
162	162	4
75	75	10
145	146	4
153	153	10
29	29	4
85	94	8
104	120	2
2	2	18
146	147	1
96	97	4
16	16	21
43	48	2
6	7	5
134	134	4
64	64	5
55	55	5
80	80	7
104	106	2
7	7	12
111	111	7
35	35	1
26	30	2
61	99	3
99	103	4
36	36	21
109	111	1
53	58	4
85	86	3
114	114	11
66	120	5
6	8	3
85	85	7
158	167	6
91	91	2
29	32	8
41	42	6
138	143	2
81	82	2
100	103	3
138	151	2
88	89	2
12	13	1
48	48	12
29	30	10
152	153	8
105	106	3
178	178	4
89	90	5
24	24	18
108	108	4
71	71	12
141	141	8
123	123	9
106	106	6
18	18	10
0	0	9
100	100	8
186	187	2
41	41	23
112	113	5
26	26	5
57	75	1
73	74	2
176	176	11
99	100	4
121	127	3
151	151	7
61	63	1
154	155	5
38	38	6
73	73	15
47	47	6
138	138	13
109	109	8
126	174	3
157	159	3
140	140	12
129	129	10
94	94	6
186	186	11
21	22	1
58	82	3
124	125	4
86	86	4
42	42	21
95	110	2
58	59	6
179	179	4
188	189	3
99	106	1
133	133	2
32	32	6
56	56	10
99	99	9
83	83	8
165	168	2
52	58	4
129	154	3
148	148	10
12	15	2
64	67	2
57	57	1
106	107	4
68	70	2
130	130	4
20	20	3
39	39	9
180	180	2
113	113	9
168	168	2
45	47	4
131	133	6
93	94	3
116	117	2
6	6	7
136	136	6
26	28	1
96	96	4
13	14	5
118	155	2
84	85	3
9	12	4
158	158	1
53	53	6
84	84	13
120	122	3
96	109	1
140	141	5
64	68	2
69	134	7
31	31	5
32	36	2
184	185	1
127	128	3
59	75	3
43	76	3
22	24	2
171	171	8
40	40	5
78	81	1
1	2	3
1	7	1
10	10	4
49	78	2
9	11	6
185	188	2
164	164	6
27	30	4
118	118	5
9	10	10
97	98	3
72	74	2
20	21	5
169	170	6
134	135	1
156	156	1
166	166	1
72	72	5
139	151	3
40	41	7
97	99	3
72	75	1
45	46	3
76	76	4
4	4	3
147	147	10
82	82	3
143	144	3
130	134	2
109	110	5
94	112	4
124	124	3
90	90	8
5	15	3
159	160	2
43	46	2
86	87	5
80	106	4
115	115	3
38	39	3
93	93	2
93	98	4
144	144	3
13	13	11
12	12	2
138	139	6
83	84	1
61	61	9
46	46	1
173	174	2
67	134	1
112	112	7
48	49	5
79	98	3
28	30	1
174	175	3
46	47	5
27	29	1
92	114	1
128	128	6
59	62	2
2	3	7
174	174	5
111	112	1
3	3	3
13	15	4
155	155	5
184	184	6
0	1	1
25	41	3
94	95	3
142	144	5
170	177	2
157	157	2
21	24	1
176	177	2
122	122	5
123	124	2
64	66	1
74	75	5
107	108	5
47	48	7
7	8	5
6	38	1
71	73	3
9	38	1
34	34	4
170	170	1
141	143	2
152	155	3
65	65	3
101	101	3
105	105	5
87	89	3
187	188	3
110	110	7
18	19	4
185	185	8
125	128	2
88	88	4
66	66	5
64	65	1
122	123	2
158	169	1
131	150	2
113	119	2
54	54	2
41	77	2
153	154	1
42	43	2
182	182	4
102	103	3
104	105	2
151	155	1
163	163	2
17	40	3
130	154	1
162	165	2
160	160	1
67	121	1
30	30	7
11	11	7
20	29	1
59	60	2
44	45	3
147	150	1
138	150	1
172	174	3
0	5	2
3	5	1
147	148	1
85	109	2
63	65	2
148	150	1
141	157	2
2	8	1
136	137	2
78	78	5
87	122	1
20	23	1
97	132	2
142	143	2
86	112	4
23	23	3
10	37	1
108	120	2
116	116	1
44	47	2
175	179	1
89	89	2
148	152	2
127	127	3
68	68	1
143	143	1
117	118	1
16	17	3
42	55	1
130	160	2
61	69	1
172	172	2
86	122	2
74	109	2
165	165	3
39	40	2
129	150	1
82	120	2
114	117	1
32	33	2
187	187	4
37	46	2
95	96	1
19	28	1
181	181	4
79	80	2
62	62	1
137	138	3
41	54	1
167	168	3
103	103	1
139	163	3
1	1	1
158	161	1
25	42	1
16	40	2
156	157	1
70	146	1
3	7	1
134	138	3
25	25	2
66	67	3
131	144	2
14	15	2
134	136	1
180	182	2
76	110	2
108	109	2
163	165	2
8	56	1
93	99	1
71	72	1
42	54	1
62	76	1
23	24	2
147	151	1
170	186	1
3	6	3
48	56	1
58	58	1
22	23	1
92	92	1
154	160	1
117	129	1
172	173	2
27	31	1
189	189	1
84	92	1
59	97	1
154	161	1
187	190	1
122	129	1
156	158	1
11	13	1
86	94	1
148	163	1
43	44	1
38	57	1
113	114	1
166	167	1
68	69	1
4	5	1
10	11	1
103	134	1
24	41	1
178	179	1
190	190	2
70	70	1
