89	93	1
103	106	2
91	91	20
97	123	1
4	4	1
88	88	6
79	79	8
76	76	11
86	118	2
7	7	9
13	13	8
52	53	6
134	134	2
8	8	10
72	73	2
45	45	4
106	109	2
37	37	5
125	134	3
29	30	7
37	38	2
34	34	1
61	61	3
85	85	11
18	19	3
112	113	1
10	83	3
54	58	10
128	128	4
107	107	2
104	104	4
100	100	9
103	103	6
19	20	14
118	119	2
19	19	3
78	99	1
68	68	6
14	14	5
93	93	8
86	88	3
78	78	11
11	98	1
26	27	3
80	80	7
113	113	8
44	57	4
64	65	3
50	50	6
123	127	3
79	87	5
3	4	4
77	77	8
87	87	7
106	106	12
43	43	14
12	44	2
70	73	1
2	2	17
82	83	1
54	54	13
66	71	1
11	11	3
69	69	11
96	101	1
18	18	4
63	65	6
49	49	14
36	37	6
82	82	5
33	33	1
92	92	11
99	99	5
69	97	4
77	78	1
61	62	3
22	32	5
27	28	2
21	22	4
21	21	4
23	23	7
30	30	7
28	28	10
52	52	6
122	130	1
96	113	2
83	134	3
116	116	4
84	85	6
115	115	9
115	117	1
8	24	2
62	76	1
124	124	6
89	89	2
72	72	2
64	64	4
118	118	8
71	72	1
59	91	2
117	130	3
121	121	10
2	3	4
90	90	3
98	98	3
81	81	5
114	114	10
80	82	1
116	124	4
109	110	4
70	70	4
12	12	5
123	123	5
32	32	5
9	25	2
62	62	5
48	49	3
125	125	5
108	108	4
128	129	3
6	7	5
59	59	7
129	130	7
30	33	1
99	101	1
129	131	4
60	60	5
47	47	1
127	130	7
85	86	5
95	95	5
53	53	8
105	105	3
66	68	1
75	93	1
67	67	1
122	123	1
83	83	3
131	131	5
66	66	3
94	94	11
129	129	2
90	104	3
73	73	6
97	97	8
15	16	1
50	52	1
135	135	2
98	123	4
74	74	5
111	112	2
9	10	2
117	117	4
31	31	5
101	101	7
44	44	3
128	132	2
106	123	1
92	93	4
126	126	2
3	3	4
106	108	4
89	90	1
8	58	3
82	84	4
63	64	2
121	122	1
62	64	1
117	118	2
63	63	12
87	108	5
11	16	1
78	79	2
62	96	1
113	114	5
118	120	2
132	132	6
124	134	2
44	45	2
85	89	2
108	109	2
127	127	13
116	123	2
13	14	3
5	5	1
8	18	1
105	134	3
2	5	2
24	25	2
111	111	2
38	38	4
102	102	3
54	55	2
9	87	1
1	1	10
6	122	1
70	71	2
17	17	1
9	11	1
61	95	2
15	15	5
0	1	2
127	128	1
100	101	2
74	75	1
59	60	2
71	71	8
106	122	2
15	18	3
122	122	2
96	96	7
109	109	3
115	116	2
89	92	4
114	116	3
107	108	1
86	86	3
33	35	1
114	115	2
91	93	2
131	132	1
29	29	2
106	118	1
97	98	2
97	106	1
35	35	1
17	18	2
99	100	2
49	50	3
5	6	2
58	58	1
45	51	2
11	25	1
22	22	2
8	11	2
75	75	5
76	91	2
1	126	3
102	103	1
62	63	2
63	76	1
97	104	1
36	36	2
116	127	2
43	44	1
120	120	1
5	73	1
109	111	2
69	70	2
104	135	1
110	111	4
55	57	1
112	114	1
126	127	1
61	68	2
23	24	2
86	117	3
6	6	1
87	96	2
50	51	3
81	104	2
22	24	3
94	95	1
75	91	1
123	124	1
29	31	2
16	16	3
87	88	1
31	32	1
108	116	1
47	49	1
66	69	1
93	94	2
71	73	2
132	133	1
12	13	1
10	11	1
46	47	1
25	25	3
106	110	1
99	120	1
119	121	1
81	87	1
56	100	2
113	116	2
111	117	2
76	92	1
65	66	1
57	58	1
55	65	1
88	131	1
