224	224	10
47	47	30
20	38	4
57	57	45
170	170	19
12	16	1
74	74	22
140	140	11
49	49	44
15	15	50
149	150	7
83	83	27
159	171	10
198	200	6
66	66	13
240	240	32
101	101	20
178	178	24
77	79	9
169	169	12
60	61	11
99	99	33
8	9	9
215	216	13
218	218	28
223	223	15
163	163	37
197	198	9
11	11	29
28	28	27
196	196	23
113	113	27
156	157	14
203	204	12
199	199	31
2	2	40
102	102	26
101	102	9
4	4	23
109	109	11
180	206	8
165	165	31
175	175	16
237	237	25
191	191	27
234	234	32
64	65	22
214	214	34
220	225	9
36	36	39
172	172	28
185	185	11
55	55	37
23	23	54
16	17	9
236	236	25
211	212	11
21	21	18
6	7	12
43	44	18
8	8	33
149	149	13
12	14	7
154	154	13
196	197	20
54	54	29
204	204	31
19	20	14
33	33	46
163	165	4
32	32	31
206	206	18
121	121	16
182	182	29
35	36	12
0	3	3
44	44	35
183	183	24
7	7	18
9	9	21
58	58	58
23	24	9
125	125	20
232	232	31
126	129	9
27	27	21
39	39	25
143	145	10
209	209	15
116	118	5
186	186	17
218	224	4
67	67	37
33	162	5
65	65	33
51	57	4
164	164	24
190	231	2
4	17	1
169	170	7
123	123	32
146	146	22
25	26	31
213	213	31
28	29	5
31	32	7
72	73	7
137	138	11
22	22	18
221	221	21
128	128	19
9	15	1
75	82	5
56	57	12
73	73	35
24	25	16
75	75	19
152	154	5
136	137	4
119	119	21
135	136	8
69	85	5
134	135	3
6	221	1
19	19	28
86	86	42
52	52	41
85	85	50
161	161	32
156	156	27
117	118	4
130	134	1
78	80	3
202	202	23
38	38	33
229	229	28
19	205	3
118	118	23
49	58	3
61	63	8
118	120	7
135	135	18
105	105	34
198	201	2
40	40	28
142	142	21
63	67	5
179	180	11
104	105	11
50	50	33
173	173	17
18	18	20
95	141	2
100	100	38
207	210	3
143	143	18
47	48	3
123	124	10
46	46	22
123	143	2
193	193	40
72	72	19
186	187	8
145	145	22
236	237	13
1	2	20
239	239	20
141	141	18
211	211	44
13	18	4
103	103	26
37	37	31
208	209	10
102	221	3
194	194	13
224	226	3
148	149	9
161	165	5
82	83	17
82	82	22
210	210	26
114	115	11
121	122	12
22	23	9
187	187	16
60	60	27
84	84	29
48	48	37
146	147	9
73	74	8
189	189	6
165	166	13
0	0	32
206	208	5
30	31	13
115	118	4
15	16	18
129	130	6
99	105	2
137	137	18
142	143	13
63	63	21
201	201	21
167	167	20
76	77	2
165	170	11
48	49	12
116	116	21
204	218	6
18	56	5
56	56	24
71	73	6
53	53	34
11	13	5
12	31	3
105	106	19
88	88	19
154	157	6
166	166	23
185	187	12
172	202	2
167	187	7
108	109	2
180	180	25
42	42	33
35	35	24
68	68	19
131	131	11
227	227	20
6	6	4
40	41	21
128	131	5
233	234	12
107	107	5
122	122	18
51	51	25
44	68	6
242	242	16
139	139	21
59	59	23
180	181	5
160	160	12
151	151	31
157	167	1
133	137	4
216	216	16
27	28	8
219	225	9
31	31	37
73	83	3
14	15	8
17	31	1
10	11	17
178	199	4
20	21	4
122	130	1
136	136	29
231	231	37
75	133	2
30	30	24
98	99	7
126	126	21
176	176	23
11	15	8
207	207	24
10	28	7
168	168	20
217	218	26
159	159	23
160	174	1
138	140	4
160	161	16
18	19	17
1	1	40
83	84	11
196	237	1
217	217	15
233	233	24
29	30	12
197	197	35
148	156	1
184	184	30
188	189	15
96	96	19
33	35	7
196	234	7
12	12	26
81	88	1
20	20	46
64	69	3
12	35	3
178	179	8
184	199	4
141	142	12
179	230	3
28	220	3
51	78	3
41	41	26
1	63	2
162	162	22
187	188	7
136	138	7
157	157	19
147	147	29
214	215	12
76	76	28
181	182	5
159	160	12
4	5	10
163	164	10
100	115	4
43	43	37
16	16	30
150	150	21
144	147	3
71	71	24
199	200	14
60	66	3
166	198	2
97	133	1
10	33	6
158	159	6
13	14	11
185	186	11
215	215	32
77	77	20
165	198	4
133	145	7
235	235	23
117	117	37
141	194	7
207	208	5
119	120	9
144	146	5
219	219	26
58	59	10
234	236	11
64	64	19
100	118	5
222	222	20
59	60	6
39	41	12
144	144	12
145	146	10
49	96	3
108	108	21
104	104	34
10	10	25
179	200	4
66	73	3
210	213	2
138	139	8
162	163	6
154	155	11
37	38	10
49	50	13
18	59	1
79	79	12
5	6	3
44	66	2
141	143	12
15	18	4
200	200	32
40	53	3
192	192	10
144	145	13
241	242	9
167	168	9
183	185	8
150	151	11
78	78	25
81	85	2
4	16	2
209	215	8
151	152	10
81	81	16
52	53	14
76	117	1
220	221	13
225	225	24
165	171	4
25	25	24
44	45	10
240	241	17
223	224	13
65	68	9
114	119	1
220	220	21
89	89	5
3	3	21
177	189	3
114	114	11
226	226	16
222	223	9
178	190	5
127	129	4
124	125	9
166	171	4
99	102	1
30	38	4
84	85	7
24	24	26
66	67	21
121	127	7
183	187	6
81	106	2
46	47	8
239	240	13
48	66	4
46	66	1
83	85	5
195	195	18
78	82	3
72	74	11
163	192	1
228	228	24
140	142	8
52	84	5
127	127	22
118	119	10
177	177	28
91	97	1
130	132	3
62	64	7
98	98	24
222	224	5
115	115	13
109	110	9
198	198	28
2	3	8
133	146	6
15	17	2
52	55	4
97	99	1
215	221	2
36	37	10
45	45	20
189	193	3
195	237	3
101	103	10
216	218	5
191	192	5
46	63	5
151	153	2
166	170	4
32	34	7
188	192	2
76	79	1
171	171	19
102	108	4
42	46	1
106	106	17
156	158	2
179	179	13
201	205	6
74	84	3
191	195	1
103	104	15
29	29	20
74	82	5
183	203	1
203	203	13
178	208	7
50	88	3
2	5	1
186	199	6
150	152	8
62	62	36
26	26	38
12	13	4
123	125	5
178	198	11
69	69	24
229	230	8
70	70	22
51	52	12
148	148	15
20	198	1
172	174	1
228	229	3
77	78	8
164	165	12
39	42	10
179	224	2
150	155	4
15	22	3
52	83	4
224	227	2
190	190	19
14	14	11
51	80	1
45	46	11
216	217	16
164	172	1
176	231	7
119	133	5
206	207	7
182	183	13
143	186	1
163	175	3
210	211	8
213	214	8
53	56	1
27	201	2
180	218	2
135	149	2
140	141	9
5	5	8
122	143	3
21	23	1
146	148	3
105	108	2
121	123	4
189	190	9
158	158	22
21	32	2
208	208	10
34	35	7
146	169	4
152	153	4
155	193	4
10	36	1
238	239	3
121	128	1
237	238	6
32	33	2
66	68	18
111	112	4
78	79	7
36	44	6
221	222	9
220	222	5
79	82	2
178	197	3
4	7	5
150	153	5
26	27	8
200	201	7
150	170	2
21	22	14
114	116	2
238	238	12
205	206	20
141	195	1
63	64	10
0	214	7
44	65	7
224	225	8
134	148	1
188	188	19
104	106	8
77	80	5
142	147	2
137	170	4
185	188	7
192	193	2
26	233	2
99	134	5
138	138	12
41	42	4
183	184	8
26	232	6
61	61	20
17	17	25
0	1	7
84	105	2
174	240	3
172	190	1
208	213	4
121	129	3
230	230	14
75	83	3
117	132	5
212	212	8
17	18	6
7	8	14
135	138	5
65	67	8
49	51	4
79	83	2
201	202	8
122	142	1
149	162	1
54	55	19
161	164	3
15	53	2
198	199	9
16	31	7
134	143	1
164	166	6
144	170	2
195	196	15
112	113	8
53	54	4
61	70	5
109	114	2
30	32	4
11	33	1
112	112	3
1	5	3
152	152	13
202	203	4
175	176	8
179	199	5
186	196	4
133	133	7
174	175	5
2	4	2
160	175	4
148	153	4
53	55	4
51	82	2
155	156	11
76	80	3
146	171	3
235	236	8
234	235	9
139	196	3
77	85	2
19	22	2
158	171	2
19	37	4
180	231	2
216	223	4
180	227	1
59	66	1
157	168	4
19	76	3
20	37	4
12	29	4
12	15	14
216	219	5
153	153	21
11	217	1
31	204	4
48	67	1
147	148	9
231	232	2
54	67	1
181	184	2
182	202	2
210	212	4
153	154	5
135	151	5
181	181	15
135	137	1
134	137	2
44	67	2
192	237	1
73	75	6
209	214	3
211	214	4
240	242	3
146	172	6
120	121	4
197	201	1
165	197	4
66	148	5
137	139	2
7	12	2
208	214	2
7	36	2
82	84	6
185	196	2
81	82	10
139	140	9
103	106	1
109	128	1
67	68	5
13	222	1
208	215	4
41	58	1
124	127	2
58	61	4
205	205	18
19	38	1
97	97	16
80	80	7
180	205	3
120	128	2
115	117	2
86	87	5
15	76	3
177	210	2
241	241	6
76	78	4
126	127	6
62	63	6
79	81	2
115	116	3
20	74	2
7	13	1
132	132	4
24	96	2
70	71	15
155	155	10
177	190	8
217	219	2
194	195	9
226	227	11
18	60	1
80	98	1
209	223	8
95	96	5
196	236	5
46	64	4
198	205	1
12	220	3
204	206	4
113	114	11
129	129	17
204	205	5
75	119	4
176	230	4
127	128	5
202	234	3
54	56	1
0	2	8
124	138	3
190	191	4
120	120	10
69	103	2
39	40	1
124	124	10
212	213	4
88	99	2
192	195	3
130	130	7
77	106	1
70	72	9
167	184	1
102	103	4
239	241	2
115	119	3
130	131	3
40	42	1
163	196	2
232	238	3
9	10	9
219	220	4
51	56	2
52	56	2
24	97	2
158	177	3
22	168	6
184	185	7
19	21	4
207	224	2
9	11	1
80	81	7
143	165	1
215	218	5
96	97	5
161	162	5
177	178	12
55	56	5
211	224	3
68	69	7
134	134	9
53	84	2
21	34	3
75	81	3
159	161	1
123	146	5
171	187	1
167	182	1
157	192	4
174	191	3
20	22	3
75	86	1
160	182	8
84	86	2
216	221	5
25	160	3
11	14	1
225	227	3
99	133	1
32	40	2
180	230	5
219	226	3
12	22	1
208	210	6
27	202	6
8	36	1
81	83	1
126	156	2
34	34	7
14	21	1
71	72	6
137	142	7
47	54	1
89	129	1
32	203	1
92	92	2
173	175	3
128	129	1
21	36	1
144	171	3
74	76	3
17	60	6
185	195	1
179	206	6
152	161	4
98	100	3
76	86	2
175	240	1
7	15	5
157	175	1
66	69	3
170	171	2
110	110	4
13	21	3
47	50	2
153	155	5
47	53	1
19	28	2
78	83	2
11	34	4
177	199	1
166	186	3
102	157	3
47	55	2
5	7	2
61	62	10
82	99	2
38	42	5
218	222	3
148	234	3
103	105	2
51	79	2
50	51	4
74	75	7
5	17	3
107	108	1
84	104	2
202	225	3
61	69	4
227	229	1
69	225	2
210	221	1
140	143	1
174	174	19
138	170	1
0	66	5
201	206	3
160	162	4
79	85	3
163	172	2
187	199	1
39	62	4
148	150	3
88	132	2
156	170	3
88	97	3
3	216	1
135	150	1
158	186	6
100	101	4
0	48	2
207	213	3
166	199	1
225	226	1
100	119	6
134	145	2
133	139	4
11	222	3
141	146	4
118	138	1
83	104	1
173	191	1
27	64	1
19	35	7
80	133	2
31	34	1
134	138	4
64	68	2
99	100	4
19	75	1
111	111	3
215	223	1
143	196	2
18	20	3
37	44	1
136	169	1
33	34	1
179	182	3
203	205	1
19	166	2
74	78	2
141	144	2
156	166	2
228	230	1
82	133	1
42	47	2
50	57	1
34	40	2
70	73	3
106	107	2
161	169	3
76	135	5
89	164	1
11	203	2
70	78	3
39	58	5
180	200	2
20	55	3
188	191	1
75	114	2
11	12	6
162	164	4
232	233	9
41	52	1
172	196	1
209	210	3
13	15	4
229	231	2
59	65	1
79	107	1
13	13	3
207	214	2
1	3	2
142	195	2
153	161	3
11	95	1
51	53	6
22	24	2
15	30	1
45	68	3
30	35	2
118	132	1
150	162	4
36	42	1
46	54	1
21	95	3
34	36	3
219	223	1
17	22	1
142	151	3
11	27	3
81	92	2
74	83	1
31	38	1
20	24	2
168	182	1
3	5	4
142	149	1
21	65	1
61	76	2
109	113	3
179	207	2
227	230	1
121	125	1
80	82	1
125	126	1
2	221	1
4	6	2
69	70	3
171	199	2
19	167	2
11	32	2
88	96	1
87	98	1
143	173	2
181	183	2
206	215	3
12	217	1
95	95	6
162	192	1
134	136	1
47	66	2
79	116	1
16	30	2
171	197	2
60	65	6
54	57	2
63	65	4
166	167	1
21	24	1
7	9	1
143	144	1
193	194	2
168	184	2
65	66	6
118	133	2
19	57	1
176	177	5
171	188	1
52	54	3
200	207	1
30	203	3
148	194	2
122	170	1
86	151	1
157	176	2
38	39	3
48	50	1
10	32	2
174	190	2
177	179	1
145	172	2
10	17	4
7	41	2
122	127	1
98	102	2
32	39	3
159	162	3
8	35	1
189	197	1
133	172	2
188	199	1
122	123	1
200	205	2
2	220	1
204	224	2
168	169	4
88	168	3
178	200	1
10	217	3
200	206	2
31	37	1
11	216	4
20	56	1
123	137	1
147	171	1
183	186	1
3	8	2
62	65	1
172	197	1
74	85	5
10	47	1
101	221	1
167	185	2
85	105	1
29	31	1
38	62	2
172	173	3
17	205	3
62	79	2
14	23	1
167	169	2
204	219	1
101	128	1
102	106	1
30	217	1
233	235	1
173	196	3
1	221	1
88	89	1
79	103	1
197	236	1
60	69	1
44	46	2
148	151	1
1	214	1
50	91	1
166	168	2
148	171	1
29	217	2
39	43	1
25	65	1
58	65	2
8	11	1
9	18	1
12	222	1
79	80	5
5	8	3
210	224	1
4	8	1
188	190	1
57	60	2
19	56	1
45	69	2
30	37	1
227	228	1
186	195	1
216	220	1
75	76	3
80	107	2
37	95	1
143	195	1
143	158	1
116	117	1
140	145	1
158	176	1
14	222	2
57	78	2
97	98	2
142	186	3
222	225	1
58	77	1
179	229	1
141	148	1
97	164	1
57	58	1
81	84	1
173	174	1
180	189	1
147	233	2
89	99	1
15	36	2
159	201	1
32	38	1
42	43	1
205	217	1
100	135	1
160	163	2
100	133	1
16	25	1
99	104	1
192	194	1
17	206	2
198	208	1
91	91	1
184	207	1
51	54	1
186	190	1
119	127	1
48	96	1
149	151	2
162	182	1
160	170	1
133	134	1
20	36	1
60	106	1
61	106	1
34	41	1
175	223	1
226	228	2
171	172	1
118	134	1
54	86	1
208	231	1
99	135	1
161	202	1
57	59	2
137	140	1
111	113	1
201	203	1
218	223	1
14	22	1
186	188	1
32	91	1
60	62	2
20	193	1
157	185	1
177	197	1
3	4	1
32	95	1
89	91	1
115	131	1
