8	9	3
25	26	8
4	4	43
17	18	5
53	83	4
70	70	20
54	54	24
2	2	5
78	79	14
23	23	21
64	64	19
82	83	26
1	1	6
18	18	7
60	64	6
55	55	12
6	53	2
71	71	12
57	87	4
54	55	4
75	75	10
15	18	2
70	72	4
25	25	11
80	80	18
32	32	2
56	56	10
67	67	23
51	53	8
72	73	6
82	82	9
53	53	9
58	75	2
59	82	3
79	80	7
73	73	10
63	64	5
89	89	12
5	5	12
81	82	12
47	47	7
14	14	4
74	74	8
48	55	2
30	30	14
78	80	4
89	90	4
27	27	8
10	12	7
87	87	16
52	54	3
57	57	9
31	47	2
53	54	12
5	26	3
66	72	3
28	28	11
77	77	14
66	77	3
81	84	5
61	61	18
85	85	13
25	27	5
5	6	8
81	81	10
21	22	7
86	87	8
69	69	21
13	13	16
32	50	1
19	20	2
22	22	9
48	48	11
67	69	7
24	24	7
76	76	4
78	78	11
20	24	5
6	6	7
0	0	21
16	16	5
13	15	1
29	29	13
48	52	1
7	7	10
60	81	3
12	12	13
9	11	2
59	59	13
23	24	6
3	31	1
49	49	4
59	60	3
58	58	13
51	52	6
13	16	1
86	86	20
19	19	10
72	72	13
63	73	1
88	89	2
24	27	5
52	52	10
80	81	7
79	79	11
20	22	1
66	66	17
27	28	2
72	74	10
49	50	6
73	77	4
84	84	14
87	88	6
60	60	2
60	61	3
31	75	2
83	83	8
63	63	6
4	14	1
4	9	2
31	31	10
8	8	3
73	76	2
20	20	4
63	79	1
10	10	7
51	51	5
30	31	2
16	58	5
2	22	1
66	68	5
9	9	12
26	78	3
20	21	2
22	23	3
17	17	12
34	65	2
68	70	1
63	65	3
53	89	2
26	26	14
77	83	5
61	62	6
4	12	2
64	78	1
0	50	1
64	65	3
68	69	2
48	53	2
31	50	1
60	62	5
76	77	11
52	59	3
68	71	2
21	21	8
59	62	3
13	69	2
8	10	1
50	50	8
48	50	1
19	28	2
76	80	1
15	15	10
56	57	4
54	56	2
5	13	3
3	4	6
0	1	1
48	49	4
47	49	1
62	62	2
24	26	1
72	84	1
46	46	3
74	75	4
6	26	3
73	79	2
57	58	2
90	90	2
11	11	8
28	30	3
65	78	4
61	82	1
9	10	2
24	25	2
34	34	4
58	62	1
85	86	1
67	68	5
65	66	2
78	81	2
26	27	8
47	48	5
12	13	3
25	49	5
88	88	7
25	50	1
65	65	4
3	3	6
50	55	1
32	33	1
75	76	2
18	19	1
49	53	5
49	54	4
8	56	2
4	27	1
54	63	4
5	23	1
8	73	1
7	64	3
77	82	2
4	5	1
60	63	4
68	68	8
21	23	1
53	58	2
33	74	2
29	30	1
77	84	1
2	21	1
4	75	1
52	53	2
6	51	1
61	63	1
27	33	2
14	15	1
61	79	2
59	76	1
10	11	2
77	78	1
46	47	3
9	56	1
7	62	2
50	51	2
15	16	1
6	54	1
76	79	2
77	89	1
8	11	1
7	8	1
78	82	2
8	12	2
65	67	1
6	25	1
47	53	1
