17	17	10
99	99	20
29	29	23
65	68	2
63	66	3
121	123	2
86	86	19
94	94	16
72	72	11
25	25	16
137	139	5
134	135	14
51	51	7
9	9	6
24	25	14
143	143	7
12	12	5
104	104	11
23	23	25
53	54	7
80	113	7
34	34	22
53	53	10
125	130	4
35	47	3
70	70	19
59	59	14
65	65	11
124	124	18
58	59	6
126	126	21
92	92	6
117	117	18
19	19	19
81	81	12
112	114	2
123	123	8
144	144	24
142	144	8
140	141	6
3	3	12
88	91	6
133	141	2
6	6	10
121	122	12
128	129	11
64	64	8
99	100	11
74	86	3
55	55	10
73	74	2
116	116	11
67	101	1
82	84	1
134	134	16
140	140	16
36	36	21
57	57	5
101	101	21
76	76	20
115	120	6
8	9	5
48	48	16
61	102	6
106	107	7
21	21	9
90	91	3
52	52	11
120	120	12
87	87	25
96	96	17
34	35	6
30	30	12
61	61	10
5	5	8
134	140	2
81	82	2
106	108	4
132	135	6
74	74	22
122	123	4
77	86	4
123	124	4
70	91	1
28	28	14
131	135	4
39	39	9
64	104	1
103	103	12
83	84	1
77	79	3
137	138	9
69	69	8
36	37	4
98	98	18
59	60	4
89	90	4
129	129	4
26	26	8
114	114	8
71	71	13
62	102	4
109	110	5
20	21	7
3	4	5
142	142	30
35	35	3
47	47	19
79	80	8
12	14	4
91	91	14
2	12	4
127	127	18
118	118	29
18	19	3
97	97	9
97	98	6
135	138	2
100	101	4
22	22	16
122	122	14
119	120	10
27	27	9
63	71	4
26	60	2
24	24	16
8	8	14
136	136	20
80	81	4
72	118	3
58	58	3
63	63	8
20	20	14
67	67	6
114	118	10
118	119	4
108	108	14
32	33	6
139	139	17
120	125	4
113	113	11
49	50	9
31	31	13
129	130	5
84	85	4
90	90	5
64	74	1
10	10	17
132	132	15
107	107	16
68	69	3
66	72	1
74	75	5
82	82	3
28	29	6
56	70	1
0	10	8
91	116	5
49	51	3
69	70	1
32	32	15
0	0	4
50	51	14
83	83	13
3	13	4
107	108	5
82	132	3
39	41	3
0	6	1
67	107	2
66	66	8
1	18	2
131	131	11
68	107	4
135	135	8
80	80	28
48	66	4
35	39	1
68	68	12
106	106	13
4	4	9
87	88	3
51	52	7
76	111	5
13	14	1
136	138	8
63	72	2
25	26	6
121	121	20
74	118	4
14	14	6
128	128	19
67	68	8
56	105	4
136	137	3
89	89	1
110	114	5
13	13	15
57	86	4
66	69	1
21	141	7
47	111	1
65	99	1
105	105	11
38	38	5
11	11	9
62	62	4
74	110	2
127	133	5
73	86	3
16	16	9
133	133	20
17	41	1
111	111	3
125	125	10
5	16	2
27	127	4
58	75	4
50	50	11
106	139	4
3	39	2
130	130	12
119	130	3
18	18	12
36	40	1
33	33	5
108	111	4
60	60	14
64	65	7
0	11	1
133	139	3
78	78	3
93	93	6
37	37	9
35	36	3
133	134	3
49	49	12
4	12	1
42	42	16
75	108	2
46	46	3
22	23	6
24	71	2
114	119	3
62	63	2
114	116	1
124	125	6
2	5	1
92	95	7
37	41	2
49	66	6
124	134	2
29	30	4
134	141	5
109	109	4
20	25	5
48	49	2
112	112	8
131	142	3
23	24	5
12	13	4
72	74	8
102	102	15
64	66	2
128	130	5
84	84	3
119	119	11
68	73	2
90	92	6
81	133	2
104	105	6
3	5	3
138	141	2
76	79	1
115	115	7
91	95	2
15	15	12
73	73	10
111	112	2
48	62	3
72	73	1
141	141	12
38	40	3
95	95	13
66	68	2
26	138	4
110	112	1
78	79	7
88	90	1
1	11	1
66	102	4
83	111	2
94	116	4
41	41	15
54	54	8
117	120	2
27	28	5
125	126	4
136	139	7
26	59	3
73	111	1
75	75	6
141	142	5
6	11	4
22	48	2
25	59	4
63	64	3
1	2	2
15	16	2
28	42	2
56	64	1
37	74	3
10	26	1
93	94	4
76	77	5
146	146	3
23	28	1
1	12	4
14	15	4
71	72	5
100	100	9
64	68	1
13	32	4
57	104	5
33	34	2
108	109	4
135	139	2
104	106	4
25	37	2
80	82	2
48	121	1
139	140	1
67	106	5
112	113	5
73	110	1
3	12	2
85	132	2
145	145	5
79	79	10
18	26	4
137	137	8
34	42	2
56	62	1
21	117	1
5	6	5
55	64	2
90	95	2
116	117	3
87	131	2
109	111	5
55	96	1
142	143	6
82	83	2
64	107	1
140	142	1
98	105	4
26	27	2
23	41	2
21	22	2
126	127	4
86	105	1
92	94	2
76	83	1
92	93	6
48	120	2
106	110	2
63	103	1
47	49	1
40	40	4
33	73	3
98	100	1
114	115	3
79	82	2
65	66	6
42	43	3
49	119	2
56	63	3
115	116	1
85	85	6
16	17	1
62	65	2
58	70	3
75	86	4
8	136	2
82	86	2
76	113	3
24	143	2
64	108	2
47	76	2
135	136	2
20	24	5
113	119	1
123	125	1
99	106	1
120	124	1
123	135	2
127	128	3
107	111	2
64	103	1
51	76	1
56	56	5
125	133	1
131	134	1
113	116	3
87	89	2
101	108	2
18	143	2
135	140	1
14	16	1
88	117	2
83	85	2
56	61	2
87	99	1
41	42	2
138	138	2
27	42	2
132	136	2
110	110	3
71	86	1
17	21	2
121	134	1
117	129	3
134	137	1
68	109	2
1	1	4
76	112	1
77	77	3
121	133	1
64	73	1
119	142	2
95	98	1
19	23	1
64	106	2
81	84	2
48	76	2
98	101	1
139	141	2
101	102	1
119	127	1
32	36	2
31	32	2
0	77	1
88	89	6
4	5	1
24	140	3
55	56	1
59	73	1
25	28	1
18	20	1
9	10	1
89	100	1
126	130	1
82	120	1
9	39	1
99	141	2
10	11	2
2	36	1
127	130	1
73	82	1
32	42	1
64	72	1
81	113	1
99	104	1
63	69	1
120	144	1
0	1	3
118	131	1
92	104	1
59	61	1
130	131	1
107	139	2
87	128	1
39	40	1
5	43	1
118	132	1
57	61	3
75	106	1
77	120	2
137	140	1
38	39	2
94	98	1
22	24	1
26	38	1
57	58	1
88	88	1
105	107	1
124	127	1
67	70	1
50	111	1
99	142	1
131	132	1
15	33	1
3	6	2
34	36	1
68	70	1
34	43	1
75	114	1
62	70	1
60	61	1
59	74	1
70	74	1
64	111	1
120	131	1
