72	72	8
66	67	3
97	98	11
50	85	6
78	78	8
24	54	1
23	29	3
50	50	10
49	49	25
47	47	9
91	91	24
35	35	7
53	53	16
27	28	4
81	84	4
41	41	10
77	77	23
22	100	2
25	52	2
45	45	10
39	39	9
86	88	2
92	93	3
75	75	9
26	26	21
64	64	13
34	34	5
88	89	5
36	36	8
80	80	12
54	54	10
67	67	19
63	63	8
52	52	20
65	65	11
46	46	20
56	56	6
35	36	2
89	89	10
48	48	14
66	66	18
70	70	18
83	84	3
32	33	2
69	77	3
58	58	30
79	92	2
54	55	10
94	94	18
59	59	20
76	76	9
71	71	15
38	38	6
74	77	2
56	57	4
20	20	13
34	35	7
42	44	5
31	31	10
79	79	8
31	99	2
79	99	2
42	42	20
54	82	2
86	86	13
70	72	1
29	30	3
44	47	3
62	92	4
95	96	9
44	75	2
96	96	5
69	70	6
68	70	1
28	30	3
80	83	9
43	44	3
83	83	8
46	49	2
44	44	13
70	73	6
99	99	12
53	54	1
27	27	5
90	90	7
26	27	3
55	57	2
72	73	5
54	98	1
57	57	12
97	97	21
23	97	2
39	44	6
41	42	10
40	40	7
95	95	17
26	92	4
98	98	9
31	32	5
53	55	1
37	37	5
96	97	8
93	95	5
77	78	1
51	86	3
57	58	5
69	69	10
49	50	14
35	97	2
36	98	3
79	101	3
51	51	3
88	88	7
68	75	1
62	62	11
81	93	3
82	98	3
91	92	2
65	66	2
87	88	2
46	52	2
24	96	4
93	93	10
29	29	5
92	92	10
40	41	4
43	78	2
90	91	3
33	38	5
61	62	1
55	55	22
76	77	1
33	33	12
29	98	7
24	27	1
87	87	20
22	22	6
33	37	3
27	99	1
42	43	7
55	82	1
61	61	12
48	49	3
23	23	3
73	73	15
23	24	3
68	68	12
25	25	2
58	59	5
93	94	5
36	97	2
47	49	2
33	39	2
43	43	10
49	55	1
81	81	8
97	99	1
100	100	13
74	74	12
55	59	1
85	86	1
45	52	1
101	101	28
85	100	1
95	97	6
81	82	4
92	99	1
33	53	2
75	76	4
64	72	3
67	68	3
29	48	3
38	55	2
51	52	3
33	34	2
67	78	1
80	81	6
60	61	5
27	37	2
62	63	1
27	33	1
51	87	3
46	47	2
35	55	2
36	45	3
35	39	1
84	84	5
36	81	1
94	96	1
28	28	1
94	98	1
45	62	1
89	93	1
88	92	3
67	74	1
99	100	1
100	101	1
52	53	3
96	99	1
69	72	2
98	100	1
48	85	3
80	98	1
60	60	2
22	68	1
78	90	1
64	65	3
25	93	2
50	73	1
51	88	1
32	32	4
85	85	4
68	69	1
71	73	3
79	81	2
26	94	2
65	75	1
53	80	1
51	55	1
23	25	2
32	55	1
78	80	2
72	86	2
87	96	1
47	76	2
32	34	1
77	93	1
49	81	2
47	88	1
28	29	2
52	55	1
50	90	1
86	87	1
37	38	1
53	102	1
74	75	2
36	47	1
60	102	1
63	64	4
27	29	1
79	80	2
31	41	3
25	26	2
73	74	3
57	70	1
46	53	1
47	48	1
31	62	1
71	72	2
85	96	1
72	77	1
70	75	1
36	37	2
24	24	1
96	98	1
63	67	1
102	102	1
80	97	1
60	62	1
92	95	1
89	94	1
87	95	1
92	98	1
35	95	1
