59	60	4
79	79	19
81	97	1
82	85	2
94	94	6
31	31	6
89	90	14
34	34	9
43	45	2
70	70	5
47	48	4
43	43	8
54	55	6
65	65	12
65	82	4
52	66	5
47	47	8
96	96	6
56	63	1
31	47	1
67	67	12
68	70	8
30	30	16
94	107	4
107	107	10
88	93	6
61	61	3
93	94	7
27	30	1
35	35	12
113	114	3
58	60	3
81	82	3
80	80	11
22	23	4
70	72	3
28	28	8
105	107	2
62	97	2
20	21	2
42	43	7
95	97	4
93	104	1
37	38	3
101	101	8
90	90	4
78	78	2
82	82	10
23	25	5
74	75	13
49	50	5
19	19	3
87	87	8
108	108	7
86	87	5
62	67	1
28	33	4
107	108	1
67	68	4
113	113	12
23	37	3
76	77	4
28	29	2
93	93	6
50	66	3
111	111	10
47	49	4
110	110	17
74	74	8
71	71	11
97	97	5
88	89	3
64	64	5
72	72	7
81	81	8
54	54	9
43	44	4
100	100	9
102	103	12
52	56	5
56	56	5
39	39	9
56	79	1
32	48	3
50	50	4
29	29	9
69	69	16
73	73	4
45	45	7
46	46	10
20	20	5
62	85	1
60	60	3
70	102	2
104	104	5
78	79	3
86	86	10
48	49	11
77	77	5
23	26	4
71	98	2
62	62	4
112	112	9
100	103	6
103	103	8
62	81	7
34	35	9
39	80	7
31	46	1
95	95	9
44	44	8
50	78	1
37	37	11
50	52	4
92	92	6
27	27	3
96	108	2
28	47	1
106	106	6
52	79	5
34	42	2
65	88	2
74	76	1
33	33	12
58	59	5
22	22	6
52	52	7
21	21	7
99	99	5
47	51	10
93	96	1
65	77	2
105	105	6
29	52	3
59	59	3
72	73	1
64	65	6
26	27	2
42	42	4
49	49	8
111	113	4
29	31	3
77	78	5
39	62	2
32	32	8
40	40	2
60	72	1
48	92	2
33	45	4
64	66	3
21	34	1
29	30	1
81	88	4
66	67	4
56	62	1
48	78	2
110	111	3
20	25	3
41	41	6
112	113	2
37	39	2
61	65	4
27	29	1
68	101	2
103	104	2
53	56	1
22	26	4
83	84	6
55	55	5
72	107	5
109	109	6
84	84	2
91	91	3
51	63	1
75	77	2
58	79	2
95	96	2
26	26	5
36	36	4
63	64	2
26	37	1
41	42	3
25	25	3
27	31	1
28	46	1
72	108	6
85	86	2
51	51	3
73	74	1
65	81	1
53	55	2
94	96	2
45	48	2
94	95	1
25	31	2
39	79	3
87	89	1
102	102	2
95	107	1
92	96	2
68	93	2
88	88	3
82	83	4
104	105	2
110	112	1
105	106	5
98	98	4
106	108	2
37	60	1
38	38	3
45	46	4
24	33	2
55	56	2
48	90	2
66	66	1
33	36	1
87	91	1
26	59	1
94	97	3
20	53	4
69	102	1
27	28	1
70	71	2
83	86	3
23	59	2
93	95	2
83	92	1
61	70	1
114	114	4
83	88	2
93	107	2
24	24	3
51	52	1
57	79	1
69	70	3
65	74	3
63	63	2
61	72	3
38	39	1
37	91	1
32	33	2
20	32	2
66	90	1
57	57	2
33	52	3
53	53	1
20	22	1
75	75	7
38	47	1
99	100	2
53	79	1
68	68	1
100	102	1
71	72	1
26	29	1
19	25	1
21	46	3
65	66	1
68	73	2
41	85	2
83	83	2
31	32	1
101	103	1
31	35	1
58	76	1
99	111	1
102	104	2
83	85	1
85	85	1
101	102	2
109	110	2
28	32	2
73	75	1
64	78	1
24	25	2
89	89	1
61	62	1
39	40	1
60	78	1
36	38	2
58	78	1
54	56	1
97	98	1
34	36	1
106	107	1
93	108	1
39	55	1
30	46	2
98	99	1
90	92	1
66	88	1
25	27	2
76	76	1
29	47	1
95	99	1
40	42	1
109	111	1
92	93	1
104	108	1
55	57	1
