79	114	2
102	135	2
33	33	14
139	139	14
28	29	5
137	137	5
77	77	5
91	91	8
7	32	1
117	137	3
123	123	7
93	93	14
90	90	8
135	136	4
18	18	2
4	20	3
91	94	5
136	136	5
91	95	1
100	100	6
116	116	6
28	32	4
20	23	3
106	120	1
33	114	1
103	103	5
9	24	2
109	109	2
15	15	6
135	135	6
104	104	3
132	132	6
8	9	3
80	80	3
7	7	6
89	90	1
79	79	3
1	10	4
29	29	3
8	8	2
36	36	3
105	105	2
140	140	5
129	129	4
113	113	6
124	124	4
78	78	9
73	73	7
27	27	6
74	74	4
24	24	4
91	116	1
98	98	4
37	38	3
96	97	1
17	18	1
130	130	6
14	14	7
122	123	2
77	78	5
125	125	8
83	104	5
26	26	7
130	131	2
89	89	4
0	0	3
76	76	4
112	112	8
118	118	6
100	101	1
126	126	8
121	121	3
17	19	3
72	75	1
112	121	1
13	14	1
115	115	4
136	140	2
25	25	1
95	110	1
102	102	4
23	24	6
90	129	1
84	125	3
81	81	7
25	26	2
125	139	1
117	122	1
35	35	5
129	130	4
80	84	1
134	134	9
10	44	2
124	125	2
119	120	1
14	15	4
10	10	2
108	108	3
1	1	3
90	91	4
44	44	4
83	84	2
19	19	3
114	114	6
99	108	3
34	34	2
94	95	2
26	27	2
1	2	3
8	31	3
128	128	4
21	94	1
83	115	1
122	122	2
117	117	2
127	127	2
115	119	1
80	106	1
9	11	1
1	13	2
98	107	2
96	112	1
2	27	3
130	137	1
83	83	3
132	133	3
99	129	1
71	71	1
16	17	3
87	125	1
2	4	1
86	86	6
75	77	1
133	133	3
77	95	1
120	121	1
30	30	1
28	31	3
16	38	1
81	82	1
100	137	2
117	121	1
16	19	1
112	120	2
121	122	2
94	94	2
12	15	1
105	123	1
81	85	2
7	24	1
75	75	4
12	14	4
7	9	1
29	75	1
25	28	1
127	129	2
108	109	4
109	119	3
1	8	1
111	135	1
101	101	5
72	72	2
110	110	6
120	120	3
131	132	3
74	75	2
106	107	2
6	6	2
2	2	4
102	134	1
96	99	2
17	17	1
28	28	3
93	106	3
112	122	2
22	22	1
77	82	2
10	25	2
104	106	1
133	134	1
131	131	1
115	117	1
86	123	1
78	80	1
83	122	2
112	114	2
8	25	2
9	9	3
111	111	2
139	140	1
100	138	1
86	105	2
3	3	1
10	11	2
31	88	1
32	33	1
16	16	1
37	37	1
22	90	1
15	89	1
13	13	2
80	81	1
86	94	1
92	92	1
95	96	1
96	127	1
119	119	1
103	105	1
141	141	1
0	14	1
21	21	1
34	35	1
94	124	1
3	4	1
