102	102	10
64	64	8
89	105	2
40	40	12
25	93	5
101	101	13
51	66	4
54	57	1
67	67	4
47	48	9
80	81	3
33	33	7
106	107	9
37	37	7
73	74	2
43	44	8
87	87	8
51	51	5
65	65	4
62	62	10
108	108	10
48	49	2
30	30	10
88	88	13
89	89	6
44	44	20
25	25	9
23	23	6
21	22	4
22	23	3
92	94	2
88	89	6
48	48	7
24	26	1
76	76	11
40	41	8
110	110	14
70	107	2
95	95	15
109	110	7
107	107	21
84	84	10
35	35	17
70	74	3
31	31	7
78	78	5
28	28	8
72	72	16
30	58	3
61	79	1
26	92	3
96	99	6
49	49	15
97	98	4
63	63	10
100	101	3
38	39	2
23	24	7
82	83	2
92	95	1
28	29	6
93	93	10
36	36	17
22	38	1
103	106	1
27	27	13
53	56	4
54	56	3
75	75	5
24	27	3
29	29	9
98	99	3
63	66	2
59	79	3
69	71	5
51	109	3
81	102	3
66	106	1
60	60	2
71	72	2
33	34	6
43	43	18
111	112	1
59	60	4
41	41	1
57	58	4
38	109	2
94	94	16
79	79	4
28	32	2
87	88	5
56	56	9
22	90	3
46	46	5
103	105	5
111	111	7
35	36	2
66	66	3
73	102	7
38	38	4
73	73	10
90	90	3
32	44	1
86	86	4
100	100	3
63	65	4
45	45	5
22	37	6
50	68	2
21	21	15
97	97	5
105	107	3
96	97	3
101	102	7
31	32	4
82	102	1
92	111	4
39	39	2
27	28	5
81	103	1
68	69	7
71	94	7
74	77	2
106	106	3
51	63	5
54	54	5
72	74	4
34	39	1
103	110	2
50	106	2
83	84	2
53	53	5
65	70	3
89	90	6
98	104	1
62	63	2
59	59	4
27	46	1
50	111	2
109	109	2
49	50	3
56	59	4
67	68	1
85	85	8
26	26	6
57	57	3
82	104	1
52	52	3
29	84	4
70	73	3
38	40	3
74	74	16
90	91	2
112	112	9
49	103	1
71	101	1
77	77	3
93	94	1
26	53	2
43	100	1
68	68	6
114	114	5
60	80	4
26	82	3
65	66	2
69	69	3
82	82	5
25	53	2
61	70	1
80	80	7
33	78	2
92	92	9
32	32	2
85	108	2
32	77	4
72	73	5
103	103	3
34	35	1
55	55	2
36	38	1
77	78	1
24	24	2
61	61	6
64	70	1
106	108	1
62	70	1
37	40	2
30	31	4
53	54	4
60	78	3
39	41	1
46	51	1
27	31	3
26	34	3
30	93	2
61	64	1
50	50	3
76	77	1
76	78	1
29	30	1
50	51	2
78	79	7
87	92	1
51	79	5
97	101	2
71	71	5
82	89	1
62	75	4
100	103	2
45	49	1
42	91	2
56	57	2
62	69	4
81	81	1
66	92	1
105	106	1
29	32	2
25	114	2
54	55	2
63	70	1
50	105	4
76	79	3
105	105	4
113	113	3
61	62	1
32	53	2
34	34	3
79	80	1
90	93	1
102	107	2
113	114	1
99	100	2
44	45	3
47	47	2
71	100	4
85	86	2
33	52	2
59	97	1
98	98	1
96	98	2
46	50	1
99	99	2
70	71	1
31	44	1
38	68	1
102	103	2
95	97	1
110	111	1
106	109	1
42	51	1
58	59	1
110	112	1
102	104	1
25	92	1
96	96	1
