105	105	2
12	12	4
57	57	9
36	36	2
33	33	4
98	99	4
32	33	2
96	97	3
154	154	6
75	78	3
95	96	5
25	25	1
35	36	2
84	84	5
33	34	3
153	153	7
41	42	2
47	47	9
19	19	1
43	43	2
41	41	2
141	141	2
25	33	1
135	136	2
126	126	5
18	18	7
142	143	3
107	107	8
5	6	9
122	122	3
45	45	3
17	17	11
42	63	3
53	53	8
82	82	8
79	80	7
116	116	1
78	79	2
143	144	4
120	120	7
70	70	8
79	79	3
54	54	1
106	106	3
52	53	1
32	42	3
3	4	1
123	123	3
118	119	6
42	43	2
128	128	5
42	42	5
80	80	2
62	122	4
106	107	6
87	88	2
40	40	3
96	96	1
141	154	1
122	149	3
30	30	3
43	44	1
93	94	1
144	145	4
147	148	1
78	78	2
9	11	4
21	21	2
96	110	2
87	94	1
28	28	1
34	36	3
71	71	5
6	11	2
78	82	4
107	113	4
85	86	1
94	94	1
47	48	6
13	13	9
38	40	3
42	64	3
75	76	4
3	51	2
111	125	2
135	135	2
45	46	8
14	14	2
69	69	1
32	37	1
17	36	1
122	144	6
104	115	4
65	65	2
150	150	5
44	44	3
95	95	7
111	152	4
18	21	2
15	15	5
36	38	4
50	51	3
81	130	2
129	130	3
48	50	1
117	117	4
66	66	4
34	41	3
130	131	1
87	90	4
29	29	2
104	104	1
76	121	4
87	87	2
12	15	1
24	24	7
50	50	6
127	127	3
134	134	4
8	9	3
69	71	1
130	130	2
109	109	6
18	19	1
38	38	3
34	35	2
24	25	1
22	22	3
139	139	2
114	116	2
46	46	6
48	48	2
69	82	2
108	108	2
105	111	1
102	148	1
113	114	1
71	73	1
79	91	1
152	152	1
129	129	3
121	146	1
128	130	1
4	4	3
39	39	3
43	46	1
82	83	2
37	38	1
63	64	1
10	10	2
11	12	2
98	98	2
2	3	1
83	83	1
74	98	1
49	50	2
76	79	1
49	49	8
26	30	1
144	144	2
81	81	1
87	96	1
150	151	1
43	45	3
6	8	3
86	86	5
133	135	1
126	127	1
131	131	2
40	73	1
99	99	1
72	73	1
46	47	3
16	17	4
120	121	2
152	153	2
151	151	3
103	103	2
86	87	1
108	109	2
4	11	3
56	56	1
63	63	2
13	15	1
121	122	1
143	146	1
31	31	2
137	138	2
74	74	3
133	133	4
55	56	3
134	141	1
11	11	2
132	132	1
2	5	1
68	68	1
62	62	1
44	45	1
23	23	1
58	58	1
137	137	1
21	22	1
38	74	1
55	55	1
64	64	1
108	112	1
76	76	1
114	114	2
153	154	1
102	102	1
130	132	1
118	142	1
71	74	2
6	6	1
19	20	1
65	67	2
145	145	1
118	118	1
74	75	2
37	37	2
142	142	1
86	91	2
77	77	1
72	99	1
76	77	2
100	102	1
110	113	1
145	146	1
32	40	2
38	39	1
123	129	1
147	147	1
80	125	1
123	124	1
47	53	1
103	104	1
69	70	1
51	55	1
67	80	1
67	67	2
103	113	1
95	102	2
16	18	1
57	58	1
4	41	1
103	110	1
13	23	1
97	98	1
