67	67	5
65	66	6
34	36	10
6	6	6
19	19	8
32	58	8
50	50	11
70	71	19
65	65	6
34	34	6
18	61	2
66	67	8
6	38	1
72	74	1
51	52	5
40	40	8
56	57	3
51	57	4
8	8	15
34	59	3
35	39	3
62	73	1
55	55	17
75	75	5
60	60	21
1	2	1
22	23	10
35	35	6
35	48	4
73	73	13
62	62	21
12	13	3
29	29	5
1	1	18
44	48	5
28	28	10
51	67	2
68	69	7
61	61	9
43	55	5
57	76	2
49	49	5
24	60	4
33	61	1
32	37	2
64	64	7
4	4	12
43	43	3
54	55	6
26	27	7
42	42	17
66	66	18
30	49	3
58	59	3
41	41	8
44	44	1
32	55	1
37	37	10
39	39	14
0	0	6
22	22	12
74	75	7
66	72	4
7	7	24
63	63	4
29	64	3
75	76	9
62	63	4
27	50	3
14	41	4
56	56	17
74	74	24
24	25	6
76	76	19
39	42	2
57	58	5
13	13	8
5	5	9
30	39	3
20	20	15
41	42	11
57	66	4
36	69	4
55	57	1
77	77	11
20	31	1
36	36	9
70	70	10
34	49	8
24	24	13
30	68	16
68	70	4
68	68	6
27	28	2
29	67	2
22	38	2
23	23	2
59	66	10
53	58	1
12	12	16
0	7	2
32	32	15
58	76	2
58	58	9
33	67	6
58	75	4
55	72	3
65	67	2
53	53	14
30	31	7
44	63	2
54	54	17
71	71	9
30	30	6
69	70	3
57	57	19
40	41	1
42	50	2
31	76	1
53	54	4
7	8	5
48	48	10
31	31	8
67	68	5
36	37	13
46	46	16
62	64	8
47	47	5
21	46	3
43	44	4
11	20	1
42	68	2
61	62	6
21	21	3
52	52	10
59	61	1
33	33	12
51	51	8
26	26	8
69	76	3
21	23	3
3	4	2
18	18	4
0	5	3
68	75	2
25	45	1
3	3	11
74	77	1
32	67	2
24	71	1
0	1	11
34	35	3
49	50	3
37	70	2
28	30	6
25	50	3
9	10	3
24	40	3
29	65	2
4	5	4
39	55	1
39	54	3
56	72	1
33	37	4
34	45	2
50	53	1
18	19	6
10	10	6
59	59	13
25	26	3
2	2	4
6	7	4
38	68	3
27	27	8
69	69	5
8	47	1
72	72	9
35	36	4
3	47	4
55	56	3
34	38	1
59	68	2
29	31	2
15	75	2
39	40	5
64	67	4
19	54	5
45	46	1
19	20	6
31	32	2
25	25	6
47	60	1
37	48	3
33	71	5
31	58	2
27	76	5
47	48	3
41	43	2
2	62	1
2	3	4
45	45	12
21	31	2
59	60	3
70	72	6
5	48	3
60	66	2
69	71	3
23	24	4
0	2	4
48	65	4
28	50	1
3	6	1
51	58	3
32	61	2
32	33	6
8	70	3
10	11	4
21	33	4
5	6	3
23	31	1
28	61	1
3	26	2
35	52	3
22	24	3
9	55	1
8	9	3
56	76	1
7	9	1
26	34	1
20	29	1
27	58	1
28	77	3
72	73	2
37	72	4
48	49	1
72	77	1
22	39	1
20	55	1
38	39	1
35	37	5
33	46	2
61	63	1
67	72	1
63	64	1
4	6	4
48	51	4
41	59	5
41	51	1
40	48	1
35	68	2
34	57	2
23	28	2
7	26	2
14	14	1
11	11	2
3	45	1
60	61	1
0	39	2
3	44	1
73	74	2
43	47	1
23	39	2
64	65	3
35	59	2
54	59	1
74	76	1
1	14	2
36	72	2
70	77	1
57	59	1
22	30	2
13	76	1
41	53	2
2	12	1
34	44	2
19	46	1
37	38	2
0	3	3
33	59	2
25	44	1
11	77	1
73	76	1
60	65	1
44	45	1
5	7	2
28	49	1
0	42	1
77	78	1
21	56	2
69	75	2
28	36	1
40	49	3
37	57	1
43	62	1
29	30	1
38	38	5
36	44	1
43	48	1
2	7	1
1	3	1
12	44	2
20	21	1
30	32	1
0	56	1
22	33	1
42	43	1
40	43	1
1	60	1
30	76	1
