208	209	3
67	226	2
73	110	4
193	193	6
41	45	7
237	237	10
199	216	2
85	85	13
84	84	11
64	157	3
144	145	5
19	19	7
166	171	1
38	38	8
60	60	2
47	49	7
216	217	2
230	231	4
109	109	8
170	171	3
46	52	2
102	102	11
76	76	5
197	200	2
50	50	9
88	88	3
167	167	10
186	186	7
203	203	16
10	10	9
199	233	1
7	7	2
165	165	4
52	52	3
51	51	10
199	224	3
194	195	5
54	54	3
74	103	1
41	42	1
176	187	4
180	180	10
233	233	9
162	168	1
77	80	5
198	200	1
112	112	17
192	240	4
77	77	5
72	77	3
71	73	3
48	48	8
161	161	5
29	29	12
145	145	3
115	115	12
95	96	5
195	195	8
3	94	4
82	82	16
180	187	1
26	233	3
42	42	8
66	66	14
90	90	3
229	229	4
58	58	5
199	200	8
228	229	2
168	168	10
191	192	3
115	116	5
197	244	2
193	194	5
207	207	5
194	194	7
76	77	6
95	95	7
178	178	7
236	242	4
23	24	3
16	16	2
95	104	3
197	198	1
189	189	10
83	83	7
200	200	6
89	107	3
161	173	2
62	62	15
244	244	11
8	8	8
4	4	10
11	11	13
2	22	5
183	183	13
187	187	7
33	36	1
33	230	2
205	205	15
175	211	2
164	164	4
28	28	1
213	213	8
152	170	5
111	145	3
89	89	5
175	176	5
202	202	2
63	207	2
1	1	2
78	78	16
33	33	4
77	99	3
181	181	4
91	91	3
248	248	4
68	68	7
55	55	4
32	32	5
12	12	9
234	235	1
160	246	2
229	238	3
174	175	5
70	70	1
247	247	15
34	49	3
85	116	4
29	34	1
45	117	1
242	243	5
86	107	3
63	63	5
76	103	8
221	222	1
155	155	10
215	215	5
175	175	3
86	86	10
159	159	6
212	226	4
80	80	4
204	205	2
59	59	6
169	187	2
60	117	1
228	228	6
99	99	3
176	176	9
174	174	5
112	113	2
96	96	2
182	182	8
216	216	3
181	210	1
74	80	2
184	185	2
33	47	1
169	169	13
69	71	1
26	26	10
170	170	19
151	151	8
11	241	2
193	195	2
214	216	4
32	44	4
35	51	3
208	208	10
59	79	3
15	15	5
101	116	3
176	183	4
106	106	4
188	191	1
9	20	2
172	174	1
77	106	5
14	101	6
153	153	7
150	224	3
177	177	10
212	212	7
224	225	5
55	56	1
154	205	4
241	241	5
7	23	2
217	217	9
65	65	3
240	240	8
29	31	4
2	17	3
229	230	1
39	40	4
75	75	15
114	114	6
209	209	5
30	231	4
58	72	3
18	189	1
47	50	3
161	162	2
226	226	6
77	82	8
166	167	5
26	53	4
15	48	2
66	67	2
218	219	5
118	119	3
47	116	2
30	30	5
196	198	1
162	162	14
108	108	5
44	66	3
45	45	6
210	210	2
93	93	10
225	225	2
48	50	2
219	219	5
85	107	2
41	109	2
206	207	3
183	210	4
16	110	3
172	172	5
53	55	3
116	116	12
101	101	2
220	220	10
79	80	2
70	71	1
71	74	1
151	153	3
110	110	1
72	72	8
117	186	1
180	200	1
230	230	6
50	69	1
191	191	4
157	174	2
165	166	2
154	154	3
43	43	2
37	38	2
176	177	11
74	75	1
199	199	3
78	81	3
54	63	2
18	19	2
115	169	4
77	105	4
2	6	1
196	196	11
27	28	5
58	59	1
168	169	9
152	152	4
31	31	9
15	110	1
182	183	10
96	151	1
156	156	8
246	246	4
221	221	10
103	104	3
85	102	2
37	50	2
196	216	2
96	107	2
167	170	2
65	66	1
87	87	3
218	218	6
179	179	6
37	37	10
23	23	3
69	215	1
198	199	3
54	55	1
169	241	1
111	114	3
235	235	8
60	61	7
234	234	6
44	45	2
100	101	1
237	238	1
68	212	3
146	147	2
181	222	6
239	239	2
62	65	4
32	33	2
105	105	10
197	246	3
61	61	5
169	210	2
77	111	2
104	106	2
57	57	7
80	104	1
56	70	1
205	207	2
146	163	3
160	160	2
83	84	2
77	78	2
10	11	1
20	20	2
64	66	1
242	242	2
192	192	9
233	234	4
14	14	6
98	98	3
4	114	2
163	165	2
28	196	3
97	97	4
221	224	2
58	60	1
163	164	1
198	232	4
3	72	2
104	104	1
81	81	3
80	105	1
183	184	2
7	16	2
212	214	1
201	201	12
155	156	1
210	247	5
49	50	5
46	49	1
179	190	1
84	85	4
176	211	1
201	227	3
181	182	1
37	47	1
106	107	1
19	40	1
190	191	2
107	107	2
118	118	12
101	105	2
77	112	3
88	89	1
157	159	2
24	24	3
74	74	6
86	87	4
56	60	1
4	5	3
58	69	2
12	239	1
41	202	2
190	190	5
186	191	4
85	89	1
48	217	2
60	118	1
69	113	1
17	17	3
245	245	10
73	74	1
198	198	7
59	60	3
120	120	1
87	94	2
45	46	1
2	2	1
112	171	3
76	78	2
63	204	6
6	6	1
231	231	3
158	158	5
243	243	2
163	163	1
18	18	1
31	34	3
97	98	3
56	56	3
153	154	2
218	247	2
89	201	1
168	196	3
33	35	1
37	61	2
25	25	2
64	205	1
39	39	7
67	67	4
30	37	1
171	172	5
78	100	1
35	35	1
24	64	1
164	166	4
76	107	3
71	75	2
72	73	2
192	243	3
206	235	1
83	102	2
227	227	1
71	82	3
171	188	1
236	243	3
9	9	2
147	147	3
180	220	2
110	113	2
46	46	5
34	34	3
56	59	1
113	113	3
47	56	2
232	232	1
192	197	2
67	68	5
167	168	1
219	221	1
166	176	1
240	241	1
78	83	3
3	3	3
150	150	3
40	40	3
116	148	2
31	32	2
234	239	1
171	171	4
242	247	2
143	200	2
188	188	2
188	189	1
181	184	2
41	41	2
38	41	3
15	234	2
222	222	1
90	109	1
99	104	4
66	117	1
183	213	1
152	214	1
203	228	1
84	102	7
5	5	2
222	233	2
104	105	1
166	166	9
219	222	2
118	247	3
84	96	1
21	22	2
111	245	1
213	214	1
245	246	3
56	61	1
1	2	2
38	39	3
99	100	1
49	49	6
117	117	2
78	79	5
54	203	2
159	201	1
44	44	4
3	99	1
209	239	6
73	111	3
117	169	1
82	98	1
191	213	4
91	92	1
37	40	1
158	217	2
17	18	2
157	163	1
236	236	1
89	104	1
144	144	2
178	186	1
119	119	5
69	70	2
238	238	3
156	172	1
24	25	3
38	113	1
64	64	4
168	186	3
186	188	1
60	62	1
53	53	1
64	65	2
154	204	1
26	31	1
33	216	1
223	223	4
114	211	2
7	8	2
175	224	2
31	232	3
154	156	1
105	106	1
87	88	5
21	21	1
112	161	1
15	49	1
14	15	1
152	153	2
229	234	2
103	103	2
145	163	2
224	224	4
184	225	2
198	220	1
4	111	1
207	236	1
157	158	2
194	231	2
102	103	1
236	240	1
36	36	2
184	184	1
155	212	1
40	67	1
27	27	1
9	69	2
229	243	1
14	116	1
169	171	2
227	228	1
223	224	1
95	166	2
241	249	1
228	231	1
6	113	1
63	64	1
171	191	1
211	211	2
75	114	1
173	173	3
73	113	1
5	111	3
69	75	1
173	174	1
99	103	1
1	20	1
146	146	1
241	242	1
62	63	2
9	109	2
53	54	1
69	69	1
114	115	1
43	48	1
240	249	1
55	62	2
243	244	1
197	197	1
199	246	1
35	50	1
179	180	1
81	106	1
206	206	1
214	214	1
