35	35	16
53	54	6
0	0	7
42	42	14
74	80	1
26	27	1
40	41	1
31	31	9
49	53	1
13	13	18
8	8	18
39	39	25
51	51	14
8	9	8
54	54	12
51	52	4
67	68	7
28	28	14
57	57	14
14	26	3
44	45	1
46	46	21
34	35	5
66	66	7
6	6	14
36	37	4
17	17	15
65	65	24
52	52	12
72	73	3
52	54	4
5	6	2
81	81	7
37	37	12
26	26	16
9	10	8
45	45	9
30	55	3
40	40	18
77	77	4
54	66	1
64	64	13
19	19	13
76	76	11
73	73	13
70	71	12
45	68	3
30	30	11
62	62	10
11	22	3
63	63	14
27	27	10
60	60	11
78	78	14
47	48	6
32	50	1
48	48	21
16	17	4
4	4	11
66	67	1
34	52	1
10	10	5
12	12	12
7	7	13
50	51	6
80	80	6
1	1	12
36	36	4
59	59	15
77	78	12
31	51	1
61	61	11
31	54	2
10	11	6
55	55	8
32	32	3
20	27	4
3	3	10
15	48	3
66	73	2
74	75	10
57	58	3
21	21	10
47	47	23
21	64	1
67	69	3
27	28	1
45	46	4
8	16	2
71	71	15
9	9	3
28	72	2
13	14	7
58	59	4
69	69	12
14	14	8
49	66	4
33	34	2
30	53	2
54	63	1
56	56	12
49	50	8
72	72	3
38	38	14
20	26	3
74	74	4
47	56	2
55	80	3
16	16	10
30	54	1
52	53	4
29	55	1
3	4	2
11	11	11
29	29	11
68	68	6
5	5	6
51	67	4
53	63	1
75	76	1
79	79	1
60	61	3
6	12	1
9	11	7
2	7	2
10	49	1
36	55	2
25	33	2
70	70	6
33	33	5
4	5	3
58	58	13
31	35	2
33	47	4
12	14	1
59	60	8
38	39	2
50	50	5
49	49	3
63	65	3
12	30	2
79	80	4
2	9	2
75	75	5
37	46	1
47	57	1
2	5	2
76	77	4
6	7	4
49	67	3
50	70	3
2	2	14
14	46	1
66	70	1
3	8	1
53	53	8
9	18	4
5	15	3
30	34	2
11	32	3
41	41	11
8	10	2
50	68	1
11	21	1
34	34	5
15	15	3
50	53	2
28	41	1
48	66	2
2	4	1
64	65	4
59	68	2
25	25	1
7	8	2
53	64	2
11	13	3
46	47	4
38	46	4
70	72	1
10	17	1
27	40	1
1	80	1
35	50	1
1	2	3
67	67	3
1	7	3
69	70	2
56	80	1
37	40	1
41	42	4
18	18	3
55	70	1
61	62	1
73	74	1
45	71	2
53	66	1
40	57	1
31	32	5
44	44	3
40	58	1
20	20	1
30	31	1
53	65	1
49	71	1
13	21	1
50	69	2
6	15	2
65	72	1
51	66	1
35	49	1
51	69	1
11	12	1
5	7	1
9	17	1
35	36	1
77	79	1
51	54	1
29	30	1
33	71	1
