37	37	24
113	113	10
41	42	6
24	24	25
26	26	47
42	42	15
3	25	1
234	235	2
139	140	7
109	132	9
10	10	23
40	42	1
59	59	9
46	74	3
44	50	3
207	208	5
177	177	13
203	203	14
220	220	8
161	162	1
89	123	3
146	192	1
39	39	16
199	199	6
174	174	13
36	36	19
231	232	12
208	208	18
55	56	13
238	238	24
86	86	28
23	32	3
25	25	23
149	149	10
220	221	10
30	34	8
46	47	10
121	127	4
47	47	19
9	12	4
82	82	16
137	148	1
53	54	2
202	206	6
158	158	11
204	206	8
33	36	7
184	185	3
7	8	4
134	135	4
209	209	7
184	184	2
73	73	28
56	57	27
167	168	8
236	237	6
199	200	3
133	133	25
75	78	5
33	33	6
129	129	13
149	150	9
44	44	10
65	66	1
47	48	2
170	170	20
41	41	11
175	180	1
217	217	12
138	138	12
69	70	19
142	161	3
50	53	6
70	70	48
96	96	5
237	237	9
6	6	17
123	123	7
102	102	13
195	196	5
121	124	1
172	172	8
214	216	5
17	18	10
43	71	4
74	74	26
45	45	27
223	224	6
215	215	17
164	164	13
96	97	13
49	50	18
27	29	4
62	63	2
181	183	10
43	43	45
99	101	4
0	0	24
16	16	10
98	105	6
239	239	25
80	80	9
48	48	12
155	155	12
181	181	6
170	171	4
103	105	7
191	191	29
120	128	5
135	239	6
1	25	3
77	77	2
72	75	2
178	180	10
200	200	12
151	151	9
227	227	15
26	33	2
107	123	3
210	214	3
141	142	7
63	70	4
85	85	29
145	146	6
27	27	33
106	106	15
135	138	2
137	138	7
61	62	9
65	65	12
66	66	15
82	88	4
236	236	26
98	98	13
32	60	1
88	88	10
140	142	4
11	11	13
202	202	19
190	222	2
38	39	15
160	160	5
126	126	5
156	156	18
55	102	3
44	73	4
77	78	4
115	119	4
204	204	11
112	113	5
67	68	6
130	130	4
9	9	28
44	51	4
62	70	3
68	68	11
112	112	2
103	104	5
40	43	3
219	219	29
69	69	19
154	154	7
137	160	8
197	208	2
71	71	13
97	98	7
34	48	2
72	72	4
54	56	3
42	43	9
232	232	9
142	142	3
12	12	9
44	86	3
75	75	16
16	17	2
7	9	9
239	240	2
5	5	5
39	41	4
21	21	19
166	166	5
6	7	4
152	152	12
39	42	6
111	111	3
159	159	23
128	128	10
189	221	8
147	148	4
22	22	11
57	57	19
240	241	9
173	173	21
32	34	2
15	15	8
82	83	13
23	23	19
10	11	3
14	14	12
15	16	6
25	26	14
46	46	28
20	20	14
205	205	8
96	240	1
179	179	35
16	18	2
56	77	13
50	77	3
204	213	3
13	14	4
122	122	13
228	229	9
28	28	36
230	232	3
182	182	14
157	157	16
7	7	4
69	120	1
155	158	3
9	15	3
116	118	4
11	12	11
224	224	15
143	148	4
2	17	7
40	232	4
235	236	3
140	140	7
114	114	9
201	201	23
127	127	16
175	176	10
124	126	8
50	51	11
159	160	8
71	74	4
118	123	6
213	214	1
123	124	8
61	63	4
118	119	7
110	129	6
42	149	3
147	160	5
151	157	4
40	40	18
72	79	3
230	231	6
56	68	2
3	3	4
144	147	5
24	25	8
62	62	19
196	196	21
139	139	10
180	180	11
34	39	5
138	199	1
99	110	1
12	14	5
185	187	8
136	136	13
188	188	17
207	210	2
131	131	6
83	83	5
2	2	9
167	167	7
226	226	5
24	42	2
46	48	4
192	196	5
8	9	11
63	63	12
144	144	11
29	29	16
171	172	3
47	77	1
71	73	1
18	19	4
97	105	1
73	74	3
99	121	5
63	64	12
80	83	8
214	214	6
102	114	1
161	161	7
187	188	4
46	62	4
240	240	10
142	143	2
193	195	4
182	183	7
9	23	6
6	22	1
205	210	2
104	107	1
121	121	1
54	232	4
163	164	4
14	16	2
105	105	12
21	31	4
84	85	12
176	176	4
156	157	5
152	153	3
73	76	5
54	54	18
203	206	2
20	24	6
64	64	16
124	125	7
110	111	4
153	153	7
17	20	3
18	18	8
28	29	11
186	186	6
32	32	15
211	211	13
133	134	6
88	105	7
61	71	4
76	77	7
242	242	12
51	52	4
21	22	3
87	87	2
84	84	24
190	191	5
1	1	9
119	119	4
205	206	5
158	159	8
212	212	14
221	221	17
234	234	10
189	189	9
173	174	3
95	98	6
43	44	4
132	142	1
204	211	2
39	47	1
120	121	2
230	230	29
27	28	7
207	207	6
3	19	3
61	70	5
164	165	2
30	31	11
168	169	3
103	103	6
190	190	12
64	65	11
228	228	12
177	178	12
216	217	11
220	224	4
55	55	15
218	218	13
137	137	16
165	165	2
210	210	10
99	99	5
32	36	2
69	95	1
45	48	6
56	56	24
192	192	10
198	198	18
120	120	8
67	67	13
151	152	4
180	186	1
128	131	6
49	49	12
162	163	3
233	233	10
17	19	2
172	173	13
162	162	2
241	241	12
195	197	4
73	75	4
138	139	5
78	78	5
225	226	4
3	30	3
20	22	4
100	100	7
119	232	1
197	197	6
148	148	4
162	166	4
82	84	6
167	169	2
71	72	2
211	213	7
124	130	5
213	213	4
100	105	3
136	147	1
30	36	1
3	6	2
10	64	5
59	72	1
20	36	2
17	17	6
181	182	2
34	35	2
184	187	9
61	61	14
0	1	1
31	31	4
141	141	3
37	48	1
188	190	2
197	200	5
1	31	2
226	227	3
101	102	9
80	84	1
145	147	8
97	97	6
28	37	3
146	148	1
126	127	9
104	104	13
213	215	3
110	110	3
50	50	9
158	163	4
143	143	6
88	103	1
114	118	2
81	82	5
192	193	3
155	156	2
25	39	3
36	37	2
163	163	4
27	230	5
129	131	4
79	80	2
139	163	2
44	45	1
175	178	5
38	38	6
51	51	4
231	231	8
163	165	3
218	231	3
45	49	1
124	124	11
197	203	2
222	222	11
2	22	9
2	3	1
160	161	2
22	23	5
106	107	3
68	83	3
9	10	21
52	52	8
238	239	2
215	217	4
160	164	2
134	134	11
37	76	2
225	227	4
98	102	7
202	218	2
50	58	1
78	82	1
70	121	2
7	56	3
189	190	5
209	216	1
19	20	2
29	36	3
54	55	8
138	158	5
107	129	1
40	41	3
229	229	7
81	81	5
183	188	2
45	73	3
201	238	4
48	51	6
204	220	2
10	26	3
6	15	4
137	139	5
176	178	2
44	63	2
52	53	14
79	81	4
117	117	4
108	108	2
34	38	2
143	147	3
115	115	4
114	115	2
40	53	2
193	193	5
179	180	3
45	46	9
145	145	10
20	23	7
170	182	1
76	76	2
159	173	3
223	223	4
5	6	3
26	30	4
203	205	3
222	223	8
109	109	11
37	38	5
83	84	2
107	107	10
118	118	1
137	155	3
160	165	2
57	60	2
46	75	3
4	18	5
169	179	5
211	212	4
171	171	1
132	242	1
70	120	1
29	30	4
168	168	3
4	4	11
46	63	5
18	23	1
7	18	5
78	80	4
218	219	4
49	60	1
179	186	9
60	60	5
73	77	1
26	134	2
79	79	9
27	42	2
198	200	4
154	155	6
45	75	3
154	157	3
108	132	1
30	30	3
1	3	1
159	163	5
188	197	4
216	216	9
225	225	2
32	33	2
162	172	1
85	86	5
20	21	5
19	19	10
45	63	6
149	190	4
65	84	4
101	101	7
26	229	2
214	228	2
24	27	1
18	21	4
188	196	3
197	210	2
104	105	3
233	234	7
11	36	2
123	127	3
169	170	2
31	32	5
107	108	5
210	211	6
19	30	2
24	143	1
203	219	2
198	199	4
53	56	2
193	194	1
136	138	1
12	13	3
15	229	2
229	230	1
153	173	2
66	68	1
140	141	1
26	29	1
15	19	1
188	189	1
144	145	4
67	185	1
101	103	2
215	218	2
221	222	1
148	150	2
80	82	4
171	206	5
21	23	2
8	8	12
67	70	4
109	110	6
58	58	6
195	195	2
13	15	4
23	24	1
14	15	10
175	175	2
227	229	2
219	223	1
108	130	1
42	46	2
1	2	2
200	201	6
205	218	2
70	86	1
43	89	3
114	119	2
214	215	1
184	186	5
69	84	3
4	7	1
56	72	4
197	198	6
155	159	2
205	216	1
178	178	4
0	218	2
224	229	1
41	152	3
151	200	1
115	117	2
34	36	1
62	71	2
196	218	1
183	187	2
148	149	3
13	19	1
75	85	2
67	84	1
135	150	2
75	76	2
227	228	6
3	4	1
35	35	3
56	67	6
44	85	1
69	85	4
55	61	3
113	114	2
166	167	1
201	202	2
10	27	1
79	82	3
235	242	1
6	21	2
13	13	5
123	126	1
135	136	3
150	196	1
51	53	4
42	47	3
136	148	2
35	36	3
171	176	2
167	188	5
218	224	2
57	58	3
196	223	4
189	197	2
26	27	1
150	151	3
48	49	1
41	161	1
204	207	3
189	191	1
6	20	2
23	35	3
189	196	1
12	17	1
103	108	4
79	126	2
78	79	8
149	197	2
159	162	4
53	53	3
207	209	1
145	197	1
121	128	2
203	208	1
149	201	2
45	56	1
81	83	1
186	187	3
218	225	2
159	165	1
8	17	2
140	143	1
4	17	1
4	6	2
149	200	1
58	59	1
164	166	1
152	157	1
99	105	1
194	196	1
157	158	2
99	100	1
39	48	1
60	72	2
69	110	3
118	124	2
18	36	1
182	190	1
0	2	3
70	122	2
63	67	3
182	188	1
132	132	2
18	38	1
53	71	1
204	212	3
169	169	4
80	81	2
235	235	1
86	122	1
15	18	1
146	147	3
125	125	4
118	122	1
162	165	2
54	61	2
206	206	1
183	183	2
2	205	1
101	133	1
193	196	1
48	232	1
100	101	2
65	68	1
136	137	2
203	204	2
184	188	2
72	77	2
117	123	5
57	76	1
31	33	3
58	60	1
153	165	2
208	210	1
180	189	2
0	22	1
200	210	1
69	134	3
234	236	1
223	225	1
185	186	3
220	222	1
180	183	1
192	201	1
52	72	1
165	166	1
191	195	1
32	43	1
68	69	3
56	60	1
151	160	2
29	31	1
211	223	1
182	186	1
13	220	1
125	127	1
105	106	2
172	175	1
12	15	1
70	110	2
19	34	2
231	233	2
66	67	1
7	17	1
33	60	1
150	150	1
145	174	1
209	214	2
146	146	1
150	152	1
4	35	1
89	89	1
0	3	1
136	196	1
36	84	1
39	40	2
81	84	1
13	224	1
47	60	2
84	116	1
12	230	1
66	95	1
41	48	1
181	187	1
70	71	1
65	67	1
100	104	1
48	56	1
4	5	1
174	175	1
10	20	1
101	105	1
102	103	1
134	239	1
43	45	1
0	30	1
167	170	1
205	215	1
3	8	1
