98	98	5
17	33	1
106	107	7
33	34	6
118	118	5
44	44	14
104	104	6
48	48	11
3	3	6
65	66	2
116	117	9
68	95	1
34	34	4
125	125	18
25	25	2
24	29	1
126	127	4
128	128	7
109	109	9
52	77	4
49	57	2
82	82	12
133	133	5
75	76	3
90	90	16
127	128	1
117	118	8
23	23	9
113	113	9
110	110	5
129	129	8
51	51	10
121	121	13
78	78	6
53	104	3
94	95	4
10	11	1
62	62	4
109	113	2
106	106	10
3	19	3
126	126	9
63	63	4
105	105	6
71	71	5
38	38	3
73	128	4
27	27	11
101	101	5
122	123	2
116	116	7
114	114	2
56	59	1
14	14	2
19	24	1
82	83	6
112	113	3
1	1	5
45	46	5
0	0	4
41	41	2
90	102	4
9	10	2
19	19	7
30	31	1
104	109	2
110	111	3
103	103	2
42	75	2
68	68	8
108	108	7
58	58	1
131	133	5
52	53	5
11	32	2
38	39	5
50	50	8
124	124	13
48	49	4
11	11	1
19	20	1
63	120	2
127	127	3
42	42	4
90	91	11
55	55	7
4	12	1
122	122	7
78	102	3
22	34	5
45	45	2
21	23	2
30	30	4
87	87	3
73	88	2
52	56	2
95	95	7
123	123	15
3	32	3
84	84	5
96	96	13
70	70	13
40	40	4
83	83	4
45	79	5
24	24	6
49	49	8
15	15	7
82	125	3
129	130	1
73	75	3
7	7	2
76	76	5
26	26	3
54	124	2
77	78	2
86	104	2
65	118	3
39	39	4
91	92	1
32	54	1
54	54	3
79	79	3
33	33	3
88	89	2
58	98	1
130	130	3
80	81	3
21	22	2
92	92	4
87	88	2
128	131	1
121	122	1
52	52	3
97	97	7
104	107	3
10	10	1
131	132	1
77	77	5
8	9	1
75	75	7
101	102	3
20	20	4
47	47	3
12	12	6
28	28	8
64	65	6
102	108	1
113	117	5
9	9	2
13	13	6
69	69	4
43	43	7
84	112	1
3	5	2
131	131	2
59	59	7
16	34	2
81	100	7
59	65	3
92	93	2
15	17	2
111	111	7
41	43	1
66	66	3
119	119	4
52	76	1
110	116	1
21	21	2
65	65	11
132	132	8
6	6	2
12	32	2
8	8	2
56	56	10
2	2	7
59	60	3
69	70	2
74	74	2
26	31	5
52	111	4
41	74	1
84	85	4
57	103	2
39	42	3
6	26	1
88	93	3
112	112	1
93	93	3
98	99	3
104	118	1
60	61	1
98	103	1
63	119	2
105	106	1
53	53	4
61	98	1
7	59	1
85	85	7
104	105	1
0	21	2
5	14	3
32	32	1
72	73	2
13	53	2
60	60	2
57	57	1
3	6	1
5	5	6
46	47	3
40	41	5
23	24	1
6	108	1
57	58	1
43	77	2
63	110	1
18	22	2
91	91	13
5	108	1
85	123	1
19	21	1
43	45	1
73	74	1
99	99	1
10	13	2
11	12	2
62	125	1
71	133	2
107	107	4
1	40	1
6	7	1
111	112	2
22	22	4
4	4	2
7	8	1
83	86	1
11	15	2
44	45	2
17	34	1
89	90	2
0	74	3
81	81	3
100	100	1
107	108	1
18	24	3
53	77	1
13	14	1
46	46	1
4	45	1
80	80	1
100	108	1
13	28	1
0	1	1
42	78	1
115	115	1
4	14	2
29	30	2
28	29	1
73	73	3
110	114	1
41	73	1
11	14	3
39	59	1
45	76	2
13	38	1
103	128	1
7	108	2
40	42	1
99	100	1
41	42	2
61	61	1
92	94	1
55	107	2
47	68	1
43	72	1
83	84	2
89	93	1
97	108	1
117	117	1
120	121	1
89	91	1
64	64	2
53	86	1
3	23	1
