73	74	8
97	98	13
93	93	18
30	30	12
69	69	16
36	37	6
113	113	33
71	83	4
47	47	12
66	67	7
106	106	29
63	66	2
31	38	4
102	102	15
70	77	6
106	107	9
23	23	14
104	104	13
71	76	3
63	63	15
22	23	2
83	83	21
100	100	15
78	78	11
88	88	12
45	45	14
104	105	4
79	79	14
41	108	3
84	86	4
109	110	6
74	75	5
20	22	5
27	28	4
33	33	6
32	34	9
101	102	7
76	77	12
26	28	2
46	46	17
103	106	2
59	62	2
96	96	17
89	89	13
81	81	12
90	90	13
49	49	11
41	41	10
70	70	9
101	101	19
80	80	15
78	80	16
43	47	1
74	80	4
48	48	6
103	107	5
76	76	13
108	108	12
98	98	13
98	100	8
72	74	5
64	66	7
51	52	9
39	40	3
56	56	4
24	24	5
37	39	4
103	103	4
55	87	5
24	49	5
86	99	3
34	34	13
21	21	6
66	68	2
38	39	2
94	94	19
35	35	9
44	44	9
72	72	12
65	65	16
26	64	2
54	63	2
86	87	9
46	48	2
47	110	2
66	114	6
111	111	23
70	98	1
19	21	2
40	40	5
95	95	15
89	91	7
72	75	1
38	38	7
77	77	11
71	97	8
70	71	16
71	72	7
49	61	2
32	32	5
40	100	2
43	43	5
36	36	11
61	61	15
62	62	3
20	61	1
65	66	11
87	87	11
107	107	10
60	60	5
85	87	4
93	99	4
86	88	7
22	22	6
77	102	2
102	104	6
41	42	2
25	25	16
42	42	1
83	84	9
71	71	16
109	109	11
19	23	6
19	19	10
63	64	9
25	34	2
86	90	1
103	104	9
68	68	14
33	34	15
99	101	2
49	64	1
47	48	4
39	39	12
54	55	6
105	105	16
66	92	5
110	113	4
57	57	7
58	59	7
34	35	6
92	92	13
33	36	3
70	72	2
37	38	3
50	50	8
26	26	10
99	99	17
75	75	5
107	109	2
110	110	6
49	50	5
112	112	10
64	65	3
78	79	17
48	49	1
46	47	4
36	67	3
26	70	6
85	86	7
97	97	13
58	58	7
76	78	11
102	103	9
91	108	2
95	96	10
40	52	1
53	53	5
114	114	18
108	109	3
68	73	4
50	85	1
79	80	4
99	100	6
29	29	4
85	89	2
36	64	2
20	20	14
55	55	12
82	82	5
84	85	5
69	84	2
113	114	4
29	30	7
54	54	5
100	101	6
59	61	4
74	74	14
54	59	3
56	60	2
64	64	7
106	109	4
34	36	2
81	82	9
87	89	1
75	77	1
59	59	8
42	43	2
103	105	3
85	90	3
75	76	8
91	91	5
62	63	8
42	45	5
45	50	4
112	113	2
89	105	3
107	108	1
42	44	3
54	56	1
43	113	6
68	98	1
94	95	5
73	73	10
23	49	1
44	45	5
67	67	4
87	90	1
80	81	3
54	89	3
59	60	1
53	55	7
32	35	2
32	33	2
53	62	1
58	86	5
88	90	3
69	83	2
31	32	4
61	62	13
92	93	6
77	78	6
67	69	2
46	89	1
101	105	2
82	85	3
94	104	5
51	51	4
63	65	1
45	84	2
95	111	2
91	95	8
89	90	4
84	84	4
95	104	2
94	101	1
104	107	2
90	92	4
88	91	4
65	68	2
93	95	2
31	31	11
87	102	1
54	60	3
68	99	3
50	51	8
24	41	2
110	111	7
86	94	4
98	102	4
34	73	3
25	26	3
90	91	5
101	107	4
85	85	11
53	59	2
89	102	2
93	101	1
77	79	2
93	94	8
65	67	4
63	69	2
82	83	4
104	109	1
29	31	2
52	52	15
101	103	1
75	79	1
68	69	3
62	66	1
72	73	1
48	97	1
67	86	1
96	111	1
69	86	1
111	112	7
27	66	2
38	72	2
92	114	1
110	112	4
103	109	5
101	108	1
53	61	2
105	106	6
75	78	1
60	64	2
54	62	2
100	102	3
47	89	1
54	58	1
51	80	2
26	34	2
29	65	2
54	57	1
88	111	1
95	108	1
27	27	4
60	73	1
25	27	2
104	106	1
105	107	2
74	77	1
62	91	1
98	99	1
40	80	2
86	86	1
66	110	5
25	40	4
80	82	1
48	86	1
20	21	2
30	38	2
105	108	3
96	97	2
115	115	2
60	72	1
62	64	2
75	89	4
41	93	1
39	73	1
45	46	1
89	103	3
31	36	1
67	68	1
84	88	3
52	96	2
28	28	4
91	105	1
88	89	2
52	92	4
78	81	3
75	94	1
40	41	1
82	84	1
38	64	2
84	93	1
37	70	1
56	57	2
24	25	4
87	93	2
40	93	2
22	49	1
62	65	1
73	75	1
57	58	3
59	63	1
19	20	1
90	112	1
53	63	1
85	88	1
89	94	1
73	97	2
60	67	2
41	43	1
62	110	1
37	37	3
33	35	1
83	85	1
69	71	1
53	56	2
97	103	1
43	46	2
43	45	1
91	93	2
41	111	2
28	37	1
87	92	1
94	96	1
28	29	2
42	112	1
70	80	1
37	67	1
72	79	1
28	65	1
86	89	1
40	99	1
53	96	1
