97	97	12
68	235	4
176	176	6
152	152	6
189	189	11
52	52	7
90	91	11
194	233	1
49	49	5
38	39	3
188	188	14
237	239	6
109	113	4
26	26	8
32	32	7
227	227	5
157	157	7
236	247	5
149	179	1
182	183	6
62	64	3
99	99	9
44	111	1
174	174	9
94	94	13
236	236	15
107	107	10
50	50	6
195	195	4
170	170	9
245	245	17
111	190	2
73	75	4
106	108	2
167	167	12
38	38	5
238	238	22
51	62	2
186	186	13
25	25	5
214	214	4
165	175	4
170	171	2
160	160	17
11	11	8
49	50	1
89	89	3
162	181	3
17	28	3
210	210	8
115	115	10
114	114	14
240	241	2
182	182	12
202	228	3
200	202	5
119	119	7
9	10	2
207	207	5
164	164	13
222	238	2
57	57	5
79	169	6
163	191	2
156	162	4
212	212	13
114	118	5
209	243	2
62	63	1
215	215	9
236	239	4
184	234	1
172	172	10
10	10	13
57	69	4
92	92	16
51	51	4
114	115	4
44	44	5
207	220	1
32	33	5
4	34	2
79	90	2
112	112	8
62	68	3
187	187	6
9	203	4
63	65	4
145	158	2
183	183	2
247	247	8
117	117	11
239	239	1
17	17	4
116	116	7
226	228	2
116	117	4
219	219	7
209	216	5
190	191	7
199	200	4
22	33	3
210	242	2
187	223	1
76	90	2
81	85	1
19	19	19
150	161	3
145	145	7
199	199	2
195	196	7
166	166	11
71	71	5
187	188	8
58	58	8
30	30	10
243	243	13
85	89	1
164	191	1
43	43	6
96	96	7
72	72	3
169	173	2
3	4	6
18	18	3
78	84	1
64	64	2
175	175	14
184	184	8
29	114	1
205	205	5
74	86	5
156	179	2
230	230	9
188	189	1
115	116	2
69	105	1
153	153	5
194	195	7
98	101	2
208	208	19
109	109	5
234	234	8
230	247	5
244	244	10
70	105	1
193	193	12
168	169	11
174	180	2
181	181	4
91	91	9
43	44	3
82	189	2
26	27	1
60	60	5
216	216	8
63	169	1
53	53	5
179	179	7
28	114	4
103	103	9
221	221	14
3	3	5
78	78	3
189	190	2
183	214	2
166	209	4
52	53	5
194	194	15
35	35	7
63	63	5
12	36	2
204	204	12
154	154	8
160	168	3
235	235	7
237	241	2
110	110	15
11	16	2
120	120	5
168	168	11
149	149	3
4	4	3
186	223	1
221	222	12
14	14	3
70	92	2
195	197	1
37	37	6
110	146	1
118	118	3
211	211	8
6	7	1
211	218	1
146	147	4
198	198	11
245	246	3
97	101	5
193	197	1
74	212	3
44	116	4
156	156	6
202	202	3
165	180	1
198	199	3
203	203	6
41	78	2
232	233	4
155	156	3
237	237	6
151	151	4
18	37	2
54	55	9
184	186	1
246	246	2
93	172	2
197	197	8
80	80	7
24	24	3
190	192	2
172	173	9
149	150	3
86	89	7
94	110	2
87	87	5
53	227	2
75	75	3
146	161	5
64	68	3
6	12	4
31	31	17
171	171	7
105	105	1
61	61	6
157	165	3
211	212	1
9	9	10
80	171	1
51	52	4
186	218	4
79	79	6
185	233	3
191	191	5
191	192	1
167	193	3
20	20	13
215	217	1
236	237	5
76	77	4
94	99	7
196	197	2
48	50	5
80	81	2
82	82	14
56	56	17
179	180	1
5	5	4
57	58	9
70	70	6
81	81	5
158	158	2
40	40	5
22	44	4
98	98	2
161	161	6
149	154	3
101	101	2
60	198	1
57	95	1
64	65	2
59	59	4
229	233	5
81	145	2
158	159	10
173	173	9
74	119	3
23	23	7
78	83	3
166	182	1
194	226	3
196	196	10
144	155	2
157	158	2
1	8	3
62	90	1
182	233	2
35	155	2
176	222	1
100	101	3
61	72	3
158	161	1
62	62	8
242	242	10
159	159	9
162	174	1
34	35	2
69	69	6
222	222	12
45	45	2
72	99	3
193	194	7
1	1	5
8	8	3
15	19	5
185	185	9
239	247	4
206	206	7
209	209	9
190	190	7
34	34	6
201	203	2
31	32	3
248	248	2
73	74	3
38	77	2
147	161	2
149	176	1
33	36	7
27	27	9
49	100	2
152	153	4
178	178	8
220	220	7
204	241	3
226	226	14
63	104	2
16	16	6
197	202	2
239	246	2
48	48	5
49	71	1
73	171	2
164	165	1
201	201	13
212	213	5
55	55	4
175	176	3
192	192	5
36	36	6
89	93	1
15	15	6
40	46	1
163	164	2
101	105	5
217	217	10
151	179	3
182	185	1
89	90	6
67	67	7
113	113	6
68	68	4
184	233	3
158	173	2
40	110	1
214	215	6
84	85	8
97	98	2
160	169	1
102	102	7
50	90	1
107	108	2
106	106	5
84	84	6
47	71	1
85	86	3
241	246	1
71	92	2
157	167	1
240	240	7
208	211	2
72	80	2
16	31	1
162	176	1
167	213	1
203	225	3
95	95	4
56	192	1
73	76	2
224	224	2
41	41	3
207	208	6
42	174	1
47	47	1
84	180	2
200	200	8
193	220	3
242	246	2
23	107	5
33	33	7
149	164	1
84	170	2
78	211	2
8	41	3
238	239	5
49	70	3
159	212	1
118	119	3
71	72	2
108	108	4
69	70	4
171	175	1
209	242	3
52	54	2
201	230	5
99	100	5
46	155	1
177	177	13
165	216	1
100	100	8
88	169	1
228	228	5
87	89	2
86	96	1
152	199	1
22	22	4
117	118	2
145	154	1
160	186	3
150	179	2
233	233	5
212	214	3
212	218	1
169	170	2
213	213	2
164	167	2
180	180	4
6	19	3
82	88	1
60	71	4
157	181	2
54	84	2
161	162	5
231	231	4
73	73	4
178	181	3
153	193	5
205	240	2
165	165	6
176	184	1
86	86	1
58	59	2
146	146	2
76	76	7
66	187	2
210	211	4
150	156	1
241	242	1
196	235	3
192	195	1
74	170	3
179	181	1
227	228	4
102	104	4
169	197	1
166	210	1
1	10	2
33	61	1
159	160	2
163	163	8
68	70	3
226	227	6
212	247	1
33	48	1
229	229	4
169	169	11
203	205	1
54	174	2
213	217	5
208	232	2
159	179	1
154	162	2
3	220	1
223	223	6
61	62	4
74	171	3
93	93	6
208	209	4
59	77	2
121	121	2
46	223	1
184	188	4
186	219	1
48	71	1
14	15	1
82	84	2
16	19	1
184	231	2
159	192	1
231	233	4
109	110	6
197	229	3
235	241	1
232	232	3
205	223	2
196	225	2
183	213	2
199	212	2
186	187	1
233	238	2
177	182	4
206	207	1
153	157	2
47	49	1
150	150	4
175	177	1
106	107	4
15	20	2
95	102	1
208	210	5
105	107	1
151	177	2
17	25	3
161	163	2
4	33	1
166	181	3
243	245	1
167	180	2
172	176	2
22	34	1
14	153	2
45	53	2
39	39	3
115	119	1
145	153	2
65	65	2
71	73	2
38	228	1
2	182	2
241	241	3
151	222	2
77	77	2
169	181	1
51	55	2
20	101	2
74	74	2
43	112	1
18	19	1
147	242	1
57	60	1
23	62	1
222	244	1
53	112	3
75	77	2
58	69	1
177	191	1
70	71	4
154	155	2
7	8	2
187	190	1
221	237	2
155	155	5
162	175	1
111	111	7
247	248	2
161	164	2
4	5	2
151	168	2
162	186	2
185	232	2
149	199	2
104	104	3
45	115	1
48	59	1
111	112	1
2	9	3
46	54	1
2	246	2
46	46	3
154	220	1
230	231	1
52	247	1
89	92	1
40	109	1
43	101	2
37	39	1
238	242	5
183	231	1
242	245	1
81	82	1
54	80	1
183	198	1
63	64	3
75	86	2
168	172	1
211	242	1
48	49	4
21	21	1
2	2	2
97	100	3
162	162	4
46	47	1
150	200	1
150	202	2
7	7	4
218	218	9
145	161	3
24	32	2
151	187	4
173	174	3
85	117	1
39	40	3
238	240	6
150	155	2
209	244	3
183	209	1
54	54	6
7	10	1
60	62	1
145	172	1
237	248	1
85	85	1
32	53	1
78	79	1
199	215	1
240	242	1
43	46	1
36	37	1
48	54	2
72	79	2
208	248	2
96	109	2
93	94	2
50	57	1
57	184	2
178	182	2
197	212	1
12	12	3
1	9	1
159	170	1
225	246	1
113	173	1
50	60	1
51	60	1
74	75	1
244	245	2
212	246	1
84	118	2
173	192	1
150	151	1
176	188	1
225	226	1
172	179	1
45	46	1
212	222	1
59	169	2
167	201	3
158	175	1
29	29	2
6	224	2
86	116	1
29	39	1
83	177	1
19	20	2
105	111	1
105	106	2
95	99	1
120	144	1
176	182	2
193	214	1
3	7	1
74	173	1
6	6	1
41	43	1
45	54	1
80	90	1
46	236	2
58	198	1
213	214	4
212	239	2
112	168	1
57	68	1
66	102	1
166	231	1
62	70	1
222	245	1
224	247	1
205	208	1
166	167	1
37	186	1
185	219	3
2	3	2
55	56	1
67	68	2
100	102	1
56	197	1
28	118	1
88	88	5
82	169	1
90	90	2
28	28	1
28	45	1
92	93	1
42	42	3
152	157	1
185	235	1
172	175	2
221	245	1
160	166	1
109	151	1
176	177	3
28	76	1
49	90	1
161	183	2
1	6	1
75	76	1
69	75	1
41	92	1
225	225	1
189	191	1
178	192	2
22	105	1
163	165	1
121	191	1
207	226	1
168	198	1
102	108	2
46	207	2
153	154	1
58	73	1
71	93	1
62	86	1
69	104	1
98	100	1
33	58	1
36	44	1
246	247	1
47	65	1
31	40	1
166	171	1
30	113	1
243	244	1
158	166	1
212	238	1
