86	100	3
42	42	23
77	77	11
63	63	21
90	90	10
24	25	3
90	99	1
24	26	3
57	57	11
64	64	29
48	54	6
47	48	15
53	56	1
58	58	32
79	80	3
83	85	2
65	67	2
36	86	5
82	89	3
95	95	9
79	79	16
34	35	1
73	73	13
74	74	4
80	87	1
87	87	13
81	81	11
92	94	4
78	78	14
39	39	10
86	86	6
25	25	11
60	60	7
67	68	2
68	68	17
45	88	3
60	79	1
97	97	10
29	29	6
77	78	5
88	88	13
62	93	5
86	97	1
70	71	6
92	92	13
36	53	2
71	71	9
69	69	13
27	60	5
59	59	11
72	72	4
94	95	3
93	100	1
37	38	4
35	48	3
85	85	3
26	55	1
55	55	8
56	59	3
67	67	27
33	33	7
86	95	5
52	53	3
76	76	13
101	102	7
92	98	3
26	54	3
31	57	7
41	41	15
66	67	7
50	50	17
36	37	2
23	23	3
96	96	13
43	91	3
94	96	5
60	80	5
46	46	19
89	89	11
50	52	2
92	99	2
49	50	3
55	56	2
53	54	7
54	55	14
81	84	2
83	83	18
44	52	4
44	64	6
50	68	2
52	52	14
70	70	28
54	61	2
48	48	10
44	44	13
101	101	3
87	89	7
26	26	5
81	82	11
61	61	22
53	61	3
24	84	4
44	75	1
40	52	2
40	40	5
96	97	11
31	31	6
42	43	4
84	84	6
76	77	10
45	69	1
53	60	4
79	83	2
49	52	7
54	83	1
25	60	1
86	91	2
48	50	2
35	38	1
54	54	17
22	58	1
51	52	4
56	56	16
38	38	1
33	34	4
23	47	2
51	51	3
60	61	3
71	73	4
90	91	3
47	47	7
65	65	10
44	78	10
53	53	4
66	66	10
82	86	3
93	94	4
82	83	3
97	98	4
62	63	5
27	54	2
82	82	1
100	100	2
99	99	13
34	34	7
41	42	2
67	70	3
87	88	4
78	87	1
75	75	2
25	28	8
24	24	2
93	98	2
62	62	10
76	78	2
26	60	1
80	81	4
45	50	3
32	32	4
20	94	1
34	96	3
37	98	3
93	93	11
22	30	2
66	72	3
65	73	1
35	56	3
48	49	2
43	44	6
41	91	1
43	43	12
20	20	3
45	54	2
48	89	2
91	91	10
86	88	4
100	101	5
85	86	2
26	27	1
36	36	7
95	96	5
87	102	3
37	37	6
46	58	2
45	45	3
35	37	4
60	62	2
41	57	1
54	84	3
80	85	2
65	76	3
33	93	1
36	62	2
23	26	5
78	96	1
40	92	3
79	82	1
98	98	4
73	86	3
92	93	1
87	99	2
23	24	1
45	76	1
57	58	1
65	75	1
45	64	1
86	87	5
58	91	2
49	58	4
66	74	3
53	57	4
96	98	2
69	70	1
81	98	1
22	26	6
73	74	2
91	92	4
37	99	1
46	47	1
78	79	1
52	72	2
36	99	1
80	80	3
25	53	1
24	47	1
42	77	1
27	27	5
35	36	1
37	84	1
92	95	3
89	90	2
29	59	1
63	78	2
25	46	1
61	94	2
49	49	4
66	68	4
25	27	1
58	84	1
65	66	3
69	86	1
99	100	2
99	101	3
44	45	1
102	102	1
95	102	3
68	69	3
92	96	2
38	78	1
37	41	3
92	101	1
50	64	2
23	45	1
82	84	1
86	92	1
50	59	1
43	75	1
28	28	2
58	59	1
35	35	2
51	79	1
34	41	2
38	96	1
60	84	1
45	51	1
46	53	1
53	55	1
56	57	1
79	91	1
55	81	1
48	92	2
43	76	2
26	81	1
27	28	1
79	81	1
26	79	2
95	100	2
71	72	3
80	83	1
34	91	1
59	62	1
38	83	1
97	100	2
80	102	2
42	69	1
74	75	1
44	68	1
96	101	1
56	79	1
88	100	1
54	58	1
83	86	1
45	53	1
