82	83	7
109	109	15
84	84	27
40	40	19
162	163	14
174	181	2
110	110	11
31	34	4
18	19	4
95	97	4
140	140	16
122	122	24
148	149	7
78	78	16
160	160	6
107	107	7
79	79	18
105	105	6
57	57	32
98	99	2
169	169	13
119	120	5
27	27	17
151	151	30
157	157	8
27	28	2
138	181	1
118	136	7
62	62	8
134	134	12
67	69	4
7	8	3
126	127	4
130	130	16
47	47	25
82	120	5
89	89	16
138	139	9
145	145	7
123	130	2
107	156	3
120	164	2
36	37	8
133	133	7
154	160	4
139	139	12
24	24	16
6	7	4
95	102	1
136	136	8
144	146	3
2	3	3
151	163	2
87	87	9
72	72	19
39	39	16
26	28	5
18	18	6
149	149	18
77	77	23
100	111	3
185	185	4
92	93	6
152	152	9
66	67	11
143	144	11
105	106	5
106	106	9
152	153	16
67	68	14
177	177	11
34	36	2
56	56	18
138	138	22
91	91	13
145	147	5
116	116	5
98	98	10
53	53	16
181	182	2
47	56	5
113	113	5
174	174	14
12	22	1
180	182	6
182	182	5
33	35	2
96	124	2
82	85	4
37	37	15
22	24	8
41	41	15
16	19	1
23	24	4
167	167	9
7	7	13
26	29	3
101	101	15
156	158	3
34	34	7
76	76	13
119	123	4
40	41	12
164	164	10
186	186	18
82	82	6
157	158	7
161	163	7
0	1	6
121	121	19
90	95	3
43	43	17
172	173	10
6	8	2
84	90	6
71	71	17
142	144	2
88	88	15
30	30	5
156	156	8
36	36	9
150	150	21
83	102	3
82	87	2
178	183	3
143	143	17
37	125	2
135	135	10
119	119	6
80	80	8
145	155	2
52	53	1
38	38	14
85	85	6
2	2	13
46	46	4
31	32	5
172	172	1
48	54	3
8	8	10
189	190	7
110	123	3
148	148	8
5	5	4
5	28	4
183	183	6
188	188	17
114	190	2
102	103	9
140	141	8
20	20	7
187	188	4
81	81	9
95	95	27
131	131	7
97	97	1
174	176	10
42	42	13
91	93	3
108	108	13
14	15	7
163	164	7
25	25	14
67	84	3
12	12	8
156	157	6
41	66	1
109	185	2
73	186	1
112	112	7
157	165	4
3	3	12
167	168	4
38	88	2
11	12	7
104	105	4
72	79	4
90	91	7
135	136	2
103	186	4
190	190	8
142	142	15
55	55	7
72	73	8
130	155	4
100	101	1
96	96	4
139	188	5
74	74	7
33	36	4
104	104	6
180	180	4
53	54	4
96	97	3
121	122	8
110	122	5
42	87	1
77	79	1
164	168	4
28	31	2
137	137	9
102	102	2
153	153	17
156	159	2
70	71	1
104	106	5
169	170	3
149	156	4
103	104	4
16	16	24
101	116	2
76	119	3
0	2	7
32	32	11
157	161	2
21	28	3
83	84	6
164	165	8
114	114	7
117	117	1
147	154	1
132	133	5
150	151	5
91	92	4
158	158	18
147	147	10
6	6	17
176	176	5
83	122	3
184	184	10
59	59	3
46	47	5
103	106	3
86	88	4
7	39	2
158	162	4
72	75	9
42	43	5
82	84	1
161	180	1
21	21	9
33	33	12
152	177	6
168	168	8
92	94	2
57	65	6
30	31	4
93	93	6
99	99	7
115	115	12
15	16	2
128	128	3
65	66	3
10	11	2
31	35	3
89	123	2
102	105	3
170	170	6
26	27	7
118	137	4
176	177	1
61	63	3
111	113	1
43	48	5
0	0	10
66	85	1
83	83	6
100	117	3
154	154	7
120	123	1
52	52	4
98	166	1
86	93	3
74	75	6
161	162	4
153	157	2
184	185	3
92	92	9
155	156	8
88	90	4
73	73	6
29	32	4
104	107	6
47	48	6
44	45	3
129	130	7
48	48	14
1	3	1
112	113	6
29	31	1
5	8	4
120	120	12
57	58	6
161	161	9
87	88	1
20	21	4
178	178	3
171	173	2
146	146	5
120	121	4
66	100	4
160	161	5
128	145	4
87	100	1
86	87	9
83	104	1
175	175	7
72	80	3
10	10	9
188	189	5
58	58	5
165	165	3
54	55	1
124	124	9
63	63	4
151	154	4
149	178	2
99	100	6
10	14	5
142	151	2
180	183	3
169	173	8
120	137	2
163	165	10
110	111	4
44	44	8
123	125	2
154	155	2
63	64	1
123	123	3
179	179	2
142	143	5
148	182	1
96	98	5
13	13	10
141	144	2
28	28	11
146	155	4
144	156	3
117	150	4
54	68	4
175	177	1
60	60	1
129	129	7
54	56	2
179	180	3
91	103	1
35	35	10
103	103	9
127	144	1
81	82	5
37	38	2
118	119	8
144	148	1
65	68	2
19	20	3
32	33	4
139	151	1
17	17	2
94	94	5
153	155	1
132	139	1
115	138	3
24	45	2
147	164	3
19	38	1
77	110	8
166	166	8
79	127	2
114	115	4
122	123	2
132	132	8
159	162	1
76	79	4
181	181	5
107	128	3
90	100	1
109	110	7
69	74	3
144	145	1
17	21	1
59	67	4
29	35	2
88	89	2
100	102	7
151	152	1
48	75	2
163	163	1
70	70	2
77	78	7
79	81	5
176	178	2
128	158	1
11	13	1
60	63	1
56	57	9
26	26	5
67	67	5
148	178	3
79	116	2
124	125	3
178	181	5
62	63	1
171	171	4
120	162	3
118	118	6
133	136	7
149	150	3
65	70	3
36	38	1
109	113	4
149	151	2
150	164	3
80	81	5
126	126	10
94	95	6
162	172	2
16	22	4
66	66	5
111	111	4
79	80	3
127	128	2
108	113	1
189	189	5
4	4	3
96	100	3
34	35	7
114	116	2
17	19	4
76	77	4
39	40	3
71	94	4
118	150	4
161	164	4
43	45	1
75	75	7
185	186	4
47	57	1
73	74	2
22	22	1
45	105	2
65	65	2
32	41	2
184	188	2
144	157	1
144	144	2
129	146	1
148	151	3
92	134	1
1	1	3
153	154	4
29	30	2
85	95	1
178	179	2
123	126	1
24	25	3
30	32	1
120	122	2
5	6	1
148	164	2
134	135	3
105	116	3
133	140	1
127	130	2
19	19	1
45	62	1
184	187	1
62	64	1
159	159	6
83	87	5
71	74	2
106	111	3
173	173	2
11	14	1
47	55	5
89	95	4
147	149	3
151	164	3
187	187	3
32	90	2
146	153	1
111	112	3
125	126	3
68	68	3
58	66	3
22	23	1
45	46	2
130	131	3
59	64	4
162	171	3
128	129	1
23	23	3
13	18	1
146	147	3
74	82	2
152	178	3
80	82	1
9	9	4
84	85	1
15	15	4
41	42	3
128	144	1
147	151	1
1	2	4
108	109	2
29	29	2
14	14	7
147	179	1
62	138	1
187	190	1
59	61	4
64	64	2
183	184	1
75	76	3
119	125	2
45	45	2
125	127	1
101	104	1
186	187	1
116	150	1
96	99	1
147	148	2
162	162	3
180	181	2
104	108	2
107	108	2
125	125	3
38	39	4
155	155	2
32	35	1
23	25	2
67	80	4
141	141	2
137	138	2
84	88	1
86	86	3
55	56	3
142	145	1
109	118	1
6	19	2
75	110	1
53	55	4
157	163	3
4	16	1
73	80	1
54	54	4
188	190	1
101	102	1
71	96	1
28	30	3
112	116	3
105	111	2
73	75	1
117	118	2
6	40	1
174	179	3
61	61	1
3	5	1
126	128	2
176	183	2
168	169	1
12	13	4
30	41	2
74	95	1
25	26	1
102	104	2
155	161	2
149	155	4
25	28	1
100	100	2
184	186	2
22	25	1
90	90	4
139	146	1
173	174	1
20	28	1
66	71	1
3	7	2
141	142	1
70	72	1
105	114	1
141	143	1
133	134	1
47	64	1
31	31	2
128	140	3
56	58	2
87	124	2
151	153	1
56	76	1
105	107	1
118	151	1
21	22	1
48	107	1
139	140	1
62	137	2
60	61	1
165	168	2
175	176	1
164	166	1
10	12	1
35	36	1
112	121	1
72	74	1
64	65	1
48	106	1
116	118	2
58	63	1
29	37	2
131	132	1
11	11	1
36	88	1
99	101	1
106	107	1
145	146	1
7	24	1
147	181	1
118	131	1
49	49	1
160	176	1
152	154	1
114	120	1
66	163	1
134	137	1
21	25	1
