28	28	18
57	57	28
112	113	3
128	128	10
225	225	9
60	60	5
225	227	7
72	72	11
140	141	7
85	86	2
13	16	1
59	84	1
110	110	2
147	148	1
138	138	6
105	106	9
215	215	9
76	76	5
204	221	1
55	55	19
82	82	12
52	85	1
37	38	10
183	201	2
4	5	4
102	102	4
46	47	4
81	84	3
164	165	5
183	183	7
219	219	3
9	9	9
14	16	4
184	184	12
154	160	1
23	23	11
183	196	2
36	36	14
69	70	2
181	181	9
6	6	5
194	195	7
204	204	10
215	216	5
165	165	7
50	50	13
239	240	2
223	223	4
47	47	10
82	127	3
156	157	3
107	125	3
3	10	1
59	59	10
0	179	4
9	10	5
61	68	2
85	85	6
118	118	4
138	203	5
63	64	6
133	133	5
72	73	4
2	114	3
22	22	4
202	224	2
139	141	2
104	115	2
122	122	5
24	24	10
172	177	5
191	191	2
32	32	3
96	97	2
211	211	8
61	63	1
82	98	1
37	39	3
196	198	2
108	108	8
103	106	3
117	229	4
97	98	3
4	19	1
214	214	4
75	75	4
23	227	4
136	136	4
58	58	15
71	72	6
8	8	5
205	206	3
61	61	16
22	225	2
21	21	7
67	67	5
233	233	4
69	69	3
211	212	5
199	200	9
179	179	3
101	101	11
146	146	7
46	46	15
50	202	3
186	187	9
220	220	14
188	188	1
88	88	15
0	0	15
84	85	1
26	26	9
45	45	14
21	175	3
107	231	4
104	129	1
147	151	2
135	202	1
19	19	6
16	16	12
80	80	6
189	191	5
30	31	10
195	196	8
34	35	8
89	89	3
191	203	2
143	146	2
141	164	2
237	237	9
137	137	3
84	229	1
241	241	6
54	54	7
127	127	3
74	74	8
42	42	6
57	59	2
6	59	7
78	79	6
177	178	2
172	172	11
79	115	2
58	62	2
106	106	5
157	157	7
4	4	6
83	83	16
116	124	1
203	204	5
30	30	7
66	67	2
123	124	1
229	230	4
206	220	3
228	228	3
167	168	8
73	73	6
132	222	1
85	175	2
125	125	2
166	178	3
170	171	6
174	174	6
214	226	4
125	129	2
27	27	16
73	74	2
115	115	5
11	63	6
155	155	4
242	242	4
20	20	4
9	18	4
31	99	2
35	50	7
99	99	8
161	161	7
29	58	2
235	235	3
226	227	3
130	229	1
41	115	2
49	49	6
175	175	7
109	109	4
68	68	21
169	169	5
34	37	2
104	106	3
14	59	3
32	33	2
44	44	8
62	62	7
48	48	8
64	64	14
23	24	2
162	185	5
160	161	2
57	58	2
153	191	1
176	176	4
208	208	10
42	47	3
105	230	2
7	7	10
224	226	5
190	190	10
24	25	4
192	194	3
159	159	4
33	33	11
135	135	1
184	185	5
147	147	4
100	101	1
34	41	1
16	49	1
5	57	3
161	226	1
3	3	6
201	201	9
119	159	1
15	54	1
181	183	2
84	95	2
42	43	4
41	41	4
162	163	2
15	72	1
99	101	2
170	170	4
170	212	1
50	200	3
0	2	2
193	196	1
8	216	6
0	178	3
15	15	11
17	17	6
8	19	7
123	123	2
31	31	7
65	65	8
51	52	1
121	122	1
25	25	2
2	226	1
162	162	5
56	57	2
149	149	4
103	116	1
158	158	5
6	63	1
18	18	5
96	96	3
160	162	5
59	60	5
117	228	2
192	192	6
154	154	1
106	107	2
178	178	15
4	7	3
58	59	2
135	210	1
4	56	2
15	22	3
45	46	2
31	35	1
198	200	1
163	163	5
39	72	3
2	4	2
195	202	2
199	199	2
221	221	4
227	227	9
66	66	9
86	86	6
8	21	3
40	40	7
104	104	5
118	159	3
81	81	4
48	53	1
230	231	2
213	213	5
218	226	2
136	138	1
30	45	1
104	107	6
15	36	1
171	199	1
38	38	9
39	43	1
126	171	4
19	53	4
126	126	7
119	119	1
114	114	6
187	187	7
17	71	1
5	8	2
7	8	6
117	123	3
198	229	1
48	65	4
39	39	9
150	156	1
71	71	5
120	166	2
152	153	2
16	17	1
123	217	2
5	207	2
217	217	9
78	78	1
224	224	3
159	211	2
43	43	7
24	26	3
202	202	2
234	234	7
210	210	4
177	177	12
149	150	3
21	22	1
196	196	5
53	55	3
56	56	5
117	118	2
143	151	3
99	100	4
97	97	11
180	180	2
26	27	2
16	22	2
15	16	1
170	183	2
176	178	1
15	35	3
205	213	2
83	84	3
103	105	2
24	27	1
54	173	1
34	34	1
123	128	4
40	75	2
81	82	7
11	19	2
37	195	1
11	75	4
6	74	2
105	139	1
123	170	3
63	63	3
51	173	1
18	19	3
53	53	6
226	226	2
41	43	1
37	37	7
25	102	5
83	107	2
40	230	3
21	23	1
189	190	1
200	200	1
225	226	4
1	179	4
103	104	4
212	216	8
147	149	2
145	145	10
171	171	3
70	70	3
130	130	10
70	73	2
185	204	2
203	203	2
29	31	3
52	52	5
0	1	2
49	50	2
206	232	3
206	228	4
153	154	2
130	193	3
0	177	1
66	68	1
1	1	6
144	145	4
4	8	1
22	23	2
5	7	2
133	220	3
147	150	6
51	53	2
67	68	4
84	109	4
14	15	3
142	143	3
139	139	5
158	159	1
13	59	2
35	35	6
223	227	2
201	209	1
143	145	3
125	127	4
197	197	5
40	41	4
142	147	4
194	230	1
36	37	1
153	153	5
118	122	1
77	77	5
13	13	6
203	225	1
168	169	2
164	164	6
223	226	1
52	53	2
51	51	9
107	107	1
134	134	6
91	91	1
165	166	3
214	215	1
200	229	1
7	11	2
13	17	2
137	138	4
100	108	2
50	51	6
80	103	2
8	214	1
191	192	3
53	56	2
209	209	2
49	52	1
9	19	6
26	28	2
29	29	10
139	148	2
40	48	1
205	205	3
222	222	3
173	173	3
238	239	3
13	14	4
43	71	1
11	11	2
185	187	2
121	121	3
14	14	3
185	186	1
188	192	4
150	151	2
136	137	3
229	229	3
44	45	3
18	173	1
140	140	3
46	75	1
80	83	1
9	55	4
237	238	2
65	69	3
67	85	1
24	67	2
141	163	1
18	20	1
128	228	5
16	103	1
55	56	2
230	230	2
81	83	2
167	167	3
0	23	3
56	114	2
108	117	1
207	210	4
120	120	6
180	181	3
194	196	1
1	57	2
231	231	4
43	70	4
152	152	4
241	242	1
216	216	2
189	189	6
193	193	2
237	241	5
135	166	2
120	123	1
168	177	3
228	230	4
100	105	4
62	63	1
13	15	3
192	193	1
109	111	1
48	50	6
1	11	1
218	218	3
148	148	4
42	45	2
117	117	1
135	136	2
224	225	2
162	174	1
110	176	2
12	12	8
10	10	4
4	9	1
183	184	4
122	226	2
47	74	2
70	74	1
188	191	1
15	25	1
103	103	3
135	222	3
37	45	3
233	240	1
27	28	3
144	144	2
85	230	1
68	69	1
104	118	1
33	38	1
232	236	1
98	99	2
19	20	1
12	13	1
192	195	1
100	100	2
82	84	4
36	145	1
63	65	1
82	174	1
152	172	2
167	178	2
107	117	1
159	170	1
202	220	2
36	98	1
131	131	4
89	161	1
176	179	1
30	34	5
161	186	1
215	217	4
187	193	1
70	71	1
23	224	5
157	178	2
3	9	1
170	182	2
15	78	1
20	175	2
198	198	2
14	54	1
80	229	1
16	36	1
188	203	2
201	202	1
39	45	2
106	111	1
234	237	1
39	40	1
105	105	5
233	234	5
187	224	1
173	174	3
91	113	3
169	173	1
23	175	2
178	179	2
118	232	1
142	142	1
171	172	3
6	77	2
172	173	3
69	71	1
50	54	2
233	238	1
218	228	1
178	210	1
174	175	2
78	84	4
238	238	1
158	212	2
101	102	1
1	226	1
238	240	2
62	64	1
4	57	2
4	18	1
179	180	1
35	36	3
20	21	2
137	149	1
98	98	4
236	237	1
160	160	1
55	57	1
95	96	1
105	218	1
239	239	3
15	23	1
58	60	2
132	221	1
183	206	1
84	84	2
4	74	1
31	36	3
132	132	1
21	53	1
84	103	1
208	229	1
82	83	1
164	214	1
240	240	1
117	125	1
50	71	1
145	146	1
124	164	2
150	152	1
154	155	1
116	125	1
143	175	1
117	124	1
96	98	1
206	221	2
5	6	3
107	129	1
131	165	1
116	116	1
143	148	1
206	206	1
181	182	1
60	69	2
160	179	1
64	65	1
7	55	1
209	221	1
2	2	2
21	64	1
47	66	1
186	186	2
31	58	1
12	78	1
47	49	1
2	80	1
124	168	1
105	130	1
154	162	1
80	127	1
48	85	1
182	183	1
83	95	1
47	51	1
188	189	1
88	120	1
234	239	1
61	62	1
125	130	1
11	54	1
5	5	1
196	202	1
122	123	1
210	211	1
166	166	1
23	58	1
185	185	1
1	38	1
101	104	1
