176	179	4
154	155	2
100	163	2
79	139	2
147	147	5
20	41	1
81	81	1
192	192	5
113	175	4
17	88	5
133	163	1
28	29	1
69	69	2
107	107	3
104	141	1
121	121	9
141	141	8
192	193	4
37	38	3
39	40	1
123	123	3
124	125	5
165	165	6
66	67	2
158	179	2
54	54	7
8	8	5
168	197	3
182	182	5
21	39	5
23	76	2
104	104	7
181	187	1
40	40	4
154	154	8
86	86	7
73	74	4
175	176	4
138	155	1
122	122	2
46	46	2
11	11	5
25	28	2
123	124	1
28	28	3
22	22	3
53	53	6
173	173	4
24	24	3
138	141	1
55	71	1
34	34	2
73	131	3
134	134	1
3	3	1
68	68	5
133	133	2
56	101	3
136	151	3
141	148	1
7	7	3
128	140	3
193	193	8
45	45	3
2	3	2
62	62	7
172	172	1
52	52	5
49	49	6
10	10	6
169	195	4
67	80	2
159	159	8
74	74	3
101	101	2
87	87	2
95	101	1
83	83	4
183	185	2
27	76	1
102	102	5
189	189	3
149	149	5
41	41	2
49	50	1
54	57	2
18	18	7
115	116	2
167	167	3
113	113	3
118	121	3
163	163	4
109	111	1
96	107	1
144	144	3
97	136	1
188	188	4
150	150	4
60	60	3
186	187	2
21	21	2
55	56	3
169	171	2
163	170	3
73	73	4
174	174	3
9	9	1
197	197	5
109	109	6
120	122	3
107	121	2
6	18	1
30	31	1
112	112	1
159	161	1
156	158	1
191	191	5
194	194	7
126	126	3
110	117	3
118	191	2
119	120	4
1	1	4
9	165	1
57	57	3
187	187	2
66	73	1
23	23	2
58	58	4
31	31	2
26	29	2
67	76	2
93	93	1
55	55	4
148	149	1
110	110	1
26	26	6
26	27	2
156	157	2
94	95	3
117	118	3
71	72	2
82	82	4
33	33	2
103	130	1
60	73	1
176	176	2
161	163	4
181	190	2
160	160	1
2	44	2
65	65	2
27	27	2
155	155	3
101	180	3
33	38	1
42	42	1
185	185	2
99	99	1
6	6	4
56	56	5
14	104	2
55	101	1
185	186	3
66	69	2
124	124	4
25	26	2
5	5	2
48	48	5
16	16	7
144	168	2
21	40	3
180	180	3
35	35	1
83	141	1
166	175	1
153	153	2
120	128	1
145	146	3
132	136	1
7	23	3
13	53	1
3	4	2
119	119	3
56	86	1
6	152	1
98	98	1
3	17	1
179	179	2
47	47	2
159	180	1
59	59	2
183	183	6
143	145	2
11	69	4
193	194	2
146	146	2
116	134	1
157	163	2
184	184	3
64	65	3
178	178	3
103	103	2
131	131	4
47	90	1
38	38	1
173	174	1
151	151	2
25	25	3
119	134	2
80	140	2
56	65	3
171	175	1
1	3	1
154	166	1
120	160	1
80	80	2
63	63	3
64	67	1
79	79	2
110	118	1
50	148	1
142	142	1
133	134	1
17	58	1
50	134	1
62	98	3
50	88	3
44	44	2
161	161	1
66	66	1
9	152	2
140	140	4
116	117	1
70	71	1
130	130	3
5	7	1
131	167	3
5	6	3
20	21	1
152	152	1
15	15	1
15	94	2
151	152	1
97	97	2
43	43	4
72	72	1
131	132	3
1	78	2
133	164	1
112	114	1
134	152	1
67	67	1
161	164	1
109	110	2
66	68	1
113	176	1
64	64	3
157	157	2
127	127	3
173	176	1
5	152	4
195	195	2
76	165	3
177	177	4
36	36	2
145	145	2
101	194	1
186	188	1
110	111	4
0	2	2
60	61	2
61	61	1
137	138	2
49	141	1
63	64	2
97	107	1
164	164	1
84	84	1
65	69	2
178	179	1
77	130	1
7	152	1
12	13	1
147	148	1
108	108	1
148	148	3
56	72	1
11	31	1
132	134	2
181	181	1
19	19	3
112	132	1
113	166	1
136	136	3
98	99	2
100	100	1
156	156	2
166	166	2
112	154	2
37	37	2
94	94	2
57	58	1
169	169	1
107	175	1
171	171	2
13	14	1
139	139	2
70	70	1
13	13	2
4	6	1
6	8	1
164	165	1
81	84	1
18	20	1
138	138	2
78	78	1
86	87	2
122	123	1
146	174	1
170	170	1
116	116	2
76	77	1
196	196	1
111	111	1
8	21	1
20	59	1
76	76	1
9	58	1
8	36	1
181	192	1
117	117	3
121	193	1
79	129	1
118	119	1
1	87	1
134	166	1
166	167	1
106	106	1
36	72	1
18	68	1
49	90	1
