76	76	25
8	8	22
182	182	34
73	77	1
68	69	17
38	38	20
65	215	1
210	210	32
209	209	30
180	207	9
159	159	39
21	21	21
68	68	39
185	185	36
27	27	26
178	179	13
214	237	6
113	113	20
238	248	2
40	40	24
14	50	5
235	235	24
154	155	4
112	112	41
78	86	1
229	230	22
211	211	24
86	87	5
118	162	2
215	224	1
92	94	3
91	103	2
170	170	35
48	48	13
234	235	4
81	82	19
234	234	23
201	226	2
121	181	1
33	33	27
149	237	1
53	55	3
191	191	19
80	80	21
87	87	19
76	90	5
57	57	22
79	81	4
218	236	2
163	165	6
5	37	1
192	195	4
45	45	31
186	187	13
239	248	3
91	92	3
43	43	21
152	152	26
223	223	15
240	240	26
168	168	37
69	69	24
82	82	9
24	24	24
192	210	5
219	220	5
70	76	2
20	20	15
155	155	35
197	199	3
174	176	8
225	226	18
116	116	21
70	74	5
38	39	5
242	242	14
161	162	8
198	199	17
119	119	30
96	96	12
197	200	11
49	49	27
85	85	43
111	112	14
177	177	44
191	222	5
18	18	26
19	19	16
91	96	3
17	36	3
60	60	8
176	177	17
162	162	20
34	37	3
108	108	33
200	200	32
191	195	1
156	156	38
21	93	2
248	248	19
83	87	4
176	178	2
162	163	5
54	54	31
167	167	25
188	188	13
204	205	3
92	93	14
11	50	1
110	112	2
25	26	4
193	194	16
221	233	5
245	245	18
35	35	13
224	224	25
100	108	2
192	193	7
105	105	16
199	199	20
241	241	23
35	39	4
163	163	29
186	186	41
56	56	22
74	74	18
246	247	9
173	173	38
11	11	9
207	207	26
73	73	20
63	63	23
9	9	24
206	207	13
240	248	1
161	161	17
47	50	4
87	89	3
99	100	12
11	15	2
62	63	6
65	65	18
215	223	2
196	196	31
57	59	3
84	84	18
184	184	20
62	78	2
16	16	31
180	183	1
12	45	2
14	14	17
239	239	38
117	117	24
106	107	2
169	169	31
178	178	26
217	218	7
46	52	10
182	183	8
50	50	26
181	181	27
0	0	6
150	151	7
100	100	23
32	32	7
101	101	18
204	204	30
17	17	17
197	201	3
180	210	2
112	113	17
32	33	4
162	170	2
165	169	1
18	22	1
222	222	21
95	95	28
4	4	23
120	120	20
233	234	14
64	64	33
61	198	3
78	90	1
4	42	1
226	226	20
203	203	29
6	6	14
76	77	20
151	151	45
193	193	25
70	70	25
52	52	35
19	204	7
182	217	3
198	198	28
17	25	4
89	89	24
163	164	10
61	61	14
216	216	22
104	114	5
23	23	25
146	146	6
20	37	2
190	190	22
53	53	15
190	220	1
218	218	24
62	228	2
18	34	4
188	189	4
111	167	5
35	183	2
113	114	12
67	67	28
146	157	3
231	232	16
62	62	18
117	236	4
95	96	3
84	85	8
59	59	27
92	92	26
110	205	1
190	191	6
29	29	13
236	246	2
5	14	6
208	208	28
32	34	1
200	224	5
113	116	3
30	30	19
246	246	32
192	192	34
74	75	11
230	232	3
121	121	1
157	157	15
218	219	19
247	247	21
2	2	14
97	98	6
175	177	7
240	242	1
63	86	4
106	106	31
244	244	23
164	164	35
236	238	2
118	118	40
107	108	14
230	230	17
83	83	11
217	234	2
202	202	45
31	31	28
218	248	2
247	248	14
58	58	15
217	217	18
159	167	6
36	37	15
44	44	22
153	153	25
110	110	37
237	239	3
194	196	10
109	109	21
41	43	4
19	20	3
193	197	3
1	1	9
190	221	9
88	107	5
115	115	33
111	237	8
10	10	15
85	86	12
164	165	3
97	97	16
243	243	19
38	184	1
171	172	11
242	244	8
48	68	1
21	73	3
107	107	14
28	28	29
236	237	5
81	81	8
226	227	10
108	119	1
39	40	15
181	210	4
5	213	2
216	217	13
12	12	16
150	150	34
25	25	20
203	204	11
202	203	10
213	215	6
97	117	1
185	187	6
46	46	12
176	176	18
187	188	26
231	231	25
75	75	17
21	22	5
216	240	6
191	194	7
204	220	1
172	172	23
168	179	3
79	79	26
41	41	22
72	72	13
104	104	7
93	94	7
87	88	7
227	227	10
29	30	6
84	90	2
165	166	6
18	20	1
160	160	15
5	66	3
149	149	11
179	179	20
78	83	6
71	71	12
33	36	2
33	34	11
84	86	5
213	214	20
53	204	1
215	215	25
187	219	1
184	186	5
221	221	17
158	158	25
214	214	28
186	220	3
114	115	15
169	170	15
91	91	24
146	150	1
51	51	27
19	203	1
3	3	9
149	153	3
229	235	4
190	222	4
166	167	16
77	77	19
60	61	11
61	62	10
92	106	3
1	54	4
5	5	21
105	106	14
5	17	6
171	198	4
93	109	3
106	119	3
110	238	1
94	95	7
90	90	23
88	99	1
115	116	19
81	83	4
213	213	17
72	75	1
166	166	28
228	230	5
166	170	6
101	104	1
57	60	1
212	212	20
214	215	5
94	94	20
73	194	6
43	44	12
108	245	1
47	47	18
171	175	4
187	187	17
238	238	16
73	78	2
11	16	7
47	52	1
72	182	4
99	99	17
58	75	5
39	39	21
171	171	15
66	67	14
213	217	2
225	230	2
160	176	2
223	227	4
114	116	3
17	37	1
36	36	8
241	245	3
37	38	4
42	42	24
151	200	1
220	220	15
82	83	3
229	229	16
2	38	3
191	192	17
197	197	34
212	230	3
1	43	1
14	34	1
96	97	2
170	171	7
168	173	4
196	210	1
82	208	3
72	73	9
191	209	2
243	244	8
145	160	1
228	228	9
205	205	23
86	86	15
236	236	8
235	246	2
120	144	5
43	61	5
35	216	2
86	88	4
192	196	7
53	56	3
201	201	40
55	55	20
193	210	6
84	99	2
205	207	2
93	93	18
195	195	16
66	66	18
211	232	2
174	174	12
58	59	2
189	189	22
223	224	5
172	190	3
34	184	2
227	228	6
18	37	2
107	110	2
181	184	5
56	71	1
21	23	3
14	185	4
184	185	11
21	53	4
51	68	3
41	42	6
32	37	3
237	238	7
114	114	25
102	102	14
244	245	9
96	99	4
49	50	7
47	51	2
214	218	2
237	237	24
222	224	1
219	219	19
221	222	11
74	96	1
34	35	3
199	209	7
30	31	1
15	22	2
3	12	5
4	237	2
4	239	4
200	201	13
242	243	3
90	95	3
200	208	3
25	77	1
34	39	2
207	209	1
60	69	9
3	38	3
37	37	23
233	233	11
210	232	2
164	167	1
77	80	2
207	208	2
99	101	2
169	178	2
30	34	2
78	78	21
63	65	2
34	34	16
175	175	20
65	66	17
12	51	3
55	70	3
72	80	1
206	206	12
161	163	3
72	188	1
63	79	3
116	160	4
165	165	23
79	82	2
102	103	8
57	71	4
103	109	1
104	107	4
169	182	3
183	183	27
173	178	3
180	180	20
56	81	2
58	71	1
76	83	1
36	216	4
18	35	6
145	167	2
208	211	6
215	216	3
65	67	4
19	182	4
27	115	3
100	101	13
165	188	5
97	99	3
228	229	4
87	90	1
192	221	2
117	118	6
236	239	7
7	7	18
239	244	4
12	14	6
111	111	26
239	240	9
169	176	1
20	203	5
190	240	1
2	36	2
10	11	11
225	225	10
64	210	1
185	186	16
22	22	15
52	57	2
57	80	3
154	154	17
101	102	6
201	202	5
120	160	2
158	181	4
145	145	8
188	209	2
55	100	1
111	165	2
110	113	5
70	71	8
6	7	15
34	38	3
245	247	8
88	88	12
98	98	14
173	174	10
194	209	1
199	210	1
54	55	7
26	227	1
30	36	3
236	245	1
173	183	2
222	233	4
153	154	5
57	72	2
45	54	1
194	194	15
116	161	5
26	26	20
171	180	1
77	78	3
237	244	3
147	147	7
189	190	12
212	213	4
152	154	3
7	8	4
220	221	6
75	102	2
72	78	4
114	118	1
112	152	3
49	67	1
180	181	2
15	15	11
61	199	1
217	237	8
206	208	5
5	6	6
220	222	3
58	79	4
204	222	2
50	71	3
15	224	1
226	228	2
224	225	5
66	110	3
143	157	5
153	179	3
83	164	2
56	173	1
155	156	3
160	161	3
193	196	2
82	88	3
20	22	4
18	184	6
4	5	9
197	198	7
18	33	2
45	46	8
171	174	2
14	20	1
97	116	3
180	182	2
13	14	4
240	243	4
107	113	2
167	169	2
12	49	1
198	200	3
120	159	2
119	237	4
113	244	8
5	238	3
72	74	6
182	189	5
59	60	14
19	23	1
225	231	1
26	28	3
63	87	2
168	174	1
212	229	1
12	65	1
212	222	2
48	50	13
217	233	2
68	155	4
27	28	5
42	43	7
179	180	6
10	40	6
90	91	7
172	195	6
222	223	4
21	45	2
116	117	10
29	31	5
234	237	2
91	95	2
24	88	1
55	56	5
208	210	2
15	37	3
166	168	3
187	195	3
240	241	8
1	25	1
110	111	5
24	27	5
214	223	4
218	246	1
245	246	8
204	227	2
15	19	2
119	186	3
160	167	3
19	54	4
31	246	1
181	196	2
223	225	1
44	62	1
174	178	2
75	76	9
113	203	1
37	39	2
192	194	4
194	195	14
88	108	2
97	100	5
51	65	2
44	45	1
185	189	3
175	176	4
64	66	2
172	196	2
75	77	7
6	8	6
172	175	2
147	153	1
4	63	2
172	189	3
15	16	6
20	45	3
211	212	3
77	79	4
69	79	4
15	38	3
208	209	7
40	46	1
13	49	1
212	237	2
67	70	1
148	153	2
100	103	4
159	169	2
166	171	4
108	109	7
64	65	12
210	211	2
80	83	3
78	79	3
188	190	4
3	7	2
47	71	4
173	186	1
34	239	2
196	209	1
53	54	3
238	246	6
55	57	2
63	210	2
90	107	1
35	36	1
196	199	8
27	52	3
2	17	1
188	198	3
227	229	6
47	49	3
100	104	1
72	193	2
242	245	4
209	216	1
181	213	1
195	196	3
201	203	2
111	166	1
147	220	1
49	93	3
19	34	2
50	51	3
60	71	2
108	236	1
118	119	9
196	197	5
248	249	2
71	73	3
58	80	5
180	216	2
190	231	1
67	68	4
51	52	7
182	221	1
17	18	5
83	88	4
20	34	2
181	182	6
56	58	3
223	232	2
42	45	2
232	232	2
116	120	1
236	240	2
145	152	1
26	27	11
49	92	1
4	14	2
144	185	2
70	181	3
149	152	2
5	237	2
170	175	2
88	90	1
109	119	1
45	72	1
241	248	2
51	57	1
34	36	1
21	25	1
238	240	3
57	58	8
193	195	4
43	54	2
109	112	2
187	189	3
8	12	1
185	241	1
46	70	1
169	183	3
192	197	2
209	210	5
192	213	3
56	59	5
116	162	4
8	44	5
73	74	3
186	200	1
226	235	2
96	98	4
173	175	4
3	19	4
111	157	4
94	98	2
199	200	9
76	91	2
145	147	4
232	234	6
61	211	2
167	168	7
168	169	6
174	180	2
183	184	5
27	31	1
71	72	5
110	246	1
14	19	2
111	245	2
18	19	3
157	158	1
169	171	5
16	25	1
3	4	2
144	206	2
98	99	11
225	229	2
184	189	3
154	164	1
68	70	5
10	41	1
22	23	2
20	32	2
146	152	3
3	6	2
15	18	4
75	194	4
174	177	2
2	8	1
230	231	6
58	186	6
191	210	2
172	173	9
158	160	2
73	94	1
166	204	3
48	53	4
243	246	1
159	170	2
107	157	2
164	247	2
74	102	5
60	76	2
192	209	3
102	109	2
105	111	2
80	84	1
209	211	1
31	244	1
156	157	1
70	75	2
184	227	5
190	215	3
218	222	2
238	239	5
179	181	1
184	225	3
61	68	2
33	37	1
4	12	1
181	192	2
82	87	1
16	21	2
6	41	3
242	247	2
177	179	3
8	54	1
64	86	3
88	89	6
231	234	3
44	55	1
44	54	1
9	15	1
146	147	1
63	211	2
236	248	3
90	92	1
182	184	4
182	190	1
117	161	3
95	98	2
108	113	5
174	175	1
24	25	3
90	102	2
89	90	5
217	236	3
78	80	3
36	38	1
27	53	2
71	75	8
30	33	2
211	236	2
52	53	7
105	113	2
54	71	1
18	187	4
22	53	1
171	178	2
69	70	2
38	40	2
211	230	1
97	104	1
37	184	1
242	249	1
66	155	2
78	98	6
171	173	1
189	216	3
166	176	1
112	204	1
103	103	4
166	177	2
1	36	2
71	74	1
112	156	1
14	66	2
35	214	2
18	30	2
98	100	2
25	97	1
50	52	2
231	246	1
148	148	1
186	188	2
168	175	1
114	165	1
241	243	4
9	10	3
109	110	2
79	83	1
72	95	2
5	34	1
107	109	4
81	84	2
180	215	2
13	184	1
27	54	1
171	177	2
206	223	1
73	75	1
163	166	1
111	244	1
149	150	2
58	60	1
189	241	1
147	186	1
63	68	2
219	241	1
12	15	2
81	195	2
107	111	2
21	44	1
38	111	1
217	241	1
119	120	1
168	234	1
211	231	1
38	44	1
22	39	3
157	159	2
56	57	3
241	242	5
35	237	1
7	15	2
63	67	1
223	231	1
16	46	1
151	155	1
174	179	4
76	79	1
102	111	2
57	81	2
221	224	1
60	67	4
168	181	1
46	51	2
105	121	1
42	53	3
85	87	1
216	218	2
81	193	3
49	186	1
12	38	1
19	52	1
42	113	2
60	70	1
80	176	2
15	88	1
190	197	3
52	160	1
57	78	3
7	9	1
59	76	2
58	78	2
62	211	2
218	220	4
188	191	2
114	161	2
80	94	1
238	245	1
152	180	2
171	190	1
58	93	1
24	28	3
119	185	2
18	183	1
244	247	2
243	248	2
108	246	2
112	114	1
169	197	1
217	247	1
84	98	1
16	178	1
23	30	2
36	218	1
1	45	2
183	187	2
80	81	1
166	169	2
78	211	1
221	223	2
29	246	1
69	106	1
99	116	1
108	111	1
43	45	4
55	73	1
67	69	2
57	82	1
164	248	2
153	157	2
33	38	2
116	118	1
216	222	1
15	51	3
188	192	3
159	160	2
109	246	1
73	188	2
115	163	1
161	164	2
230	233	2
7	32	1
212	214	1
239	242	1
216	236	2
12	13	1
169	175	1
14	49	3
6	234	1
59	61	2
32	36	1
11	12	1
21	59	2
79	85	1
215	237	1
85	97	2
235	236	1
60	63	1
211	224	2
61	76	1
60	77	1
225	228	1
237	246	4
23	24	1
4	11	5
179	202	2
15	184	2
181	208	1
62	76	2
119	170	3
235	238	1
76	78	1
178	180	2
69	76	1
186	189	2
46	74	1
219	230	1
61	108	2
194	210	2
20	205	1
192	220	1
208	212	2
226	233	1
184	230	1
215	231	2
232	233	1
115	164	1
3	8	1
83	163	1
155	201	2
80	86	1
179	206	1
8	17	1
211	213	1
191	242	1
9	40	1
144	144	1
29	36	1
158	159	2
218	247	1
4	6	1
111	156	1
49	75	1
182	185	3
3	41	1
95	99	1
249	249	4
35	52	1
21	24	1
104	106	1
56	60	3
105	112	1
47	48	4
5	18	2
2	18	2
75	89	1
120	184	1
6	18	1
187	190	2
185	233	1
5	236	1
29	37	1
78	81	2
68	74	1
191	241	1
160	162	1
169	200	2
171	195	1
10	15	1
221	226	1
2	3	2
81	94	2
85	90	1
11	228	1
61	70	1
108	110	1
63	64	1
117	119	2
61	77	1
5	214	1
55	95	1
173	191	1
11	37	2
217	248	1
117	145	1
214	224	1
111	164	1
215	238	1
19	183	2
240	247	1
110	118	1
28	157	1
35	188	1
164	185	2
245	248	1
231	233	1
74	82	1
82	174	2
190	241	1
156	168	1
216	241	1
57	77	1
13	65	1
224	227	1
80	165	1
104	105	1
28	235	1
19	38	1
150	152	1
49	51	1
77	212	1
213	223	1
235	237	1
189	198	1
152	157	1
144	151	1
4	26	1
71	76	1
10	229	1
118	160	1
3	15	1
215	236	1
189	191	1
55	59	1
114	245	1
164	170	1
144	145	1
171	189	1
181	221	2
186	190	1
111	115	1
65	84	1
79	88	1
46	247	1
62	67	1
187	232	1
56	95	1
48	49	1
214	219	1
23	53	1
112	164	1
34	40	1
31	32	1
