32	57	2
104	104	10
100	100	10
66	66	8
96	97	3
45	47	2
32	32	10
93	97	3
76	76	8
96	96	18
44	44	4
70	70	10
60	90	1
68	106	2
42	44	4
36	36	10
79	82	3
105	105	16
83	83	5
40	88	1
83	84	11
53	54	3
51	54	2
81	81	2
52	52	7
79	80	2
86	86	5
23	23	6
96	99	7
74	74	12
56	56	3
98	98	13
101	101	4
43	44	1
28	28	14
27	48	5
106	106	2
68	68	3
82	82	3
64	65	4
91	91	6
101	102	4
46	46	6
62	62	9
53	53	6
89	89	9
80	81	7
50	50	9
50	93	5
54	54	12
29	30	2
95	95	7
36	65	5
69	70	6
84	84	9
68	69	4
93	95	9
90	90	15
102	102	10
97	99	4
31	49	1
23	43	2
22	30	7
35	35	8
86	87	3
61	64	3
63	68	5
45	45	7
103	103	6
55	55	3
91	93	2
98	99	2
70	79	2
23	24	1
31	45	3
38	39	6
32	66	2
39	39	3
59	60	4
80	80	4
82	97	2
91	101	1
43	45	2
69	69	5
63	80	4
97	97	7
44	82	5
43	43	9
85	85	4
77	77	6
78	78	12
61	62	1
25	26	2
99	99	11
60	60	3
61	61	5
88	88	11
63	63	4
49	49	4
95	96	5
46	49	2
75	75	8
92	92	7
37	37	3
51	52	1
52	53	2
40	46	2
46	48	3
66	67	4
64	64	4
93	93	1
37	38	3
79	87	4
48	48	7
47	57	5
67	68	3
41	46	3
76	106	2
34	34	20
84	100	2
57	66	3
95	97	2
26	27	2
24	24	3
69	89	1
51	51	1
94	96	2
41	42	4
104	105	2
87	87	2
65	67	1
40	47	2
33	33	5
82	92	1
93	99	2
60	61	4
67	67	5
79	86	2
26	26	7
41	41	7
93	94	3
71	71	8
22	83	5
73	80	2
42	42	1
22	24	2
59	59	3
40	40	12
83	106	3
44	84	2
84	85	2
89	90	5
55	69	1
53	55	2
50	61	3
31	31	8
27	45	3
72	72	1
54	60	1
47	49	4
27	27	5
91	100	2
94	95	3
85	86	6
62	80	1
72	73	1
85	99	2
55	67	3
47	47	2
93	96	4
50	64	1
22	47	3
32	34	2
25	41	8
81	82	4
50	51	3
73	73	6
73	76	1
69	71	2
71	72	2
33	34	4
22	22	2
90	93	1
83	86	1
26	28	2
82	87	4
29	49	2
45	54	3
72	77	1
102	103	2
21	22	1
57	57	2
60	69	1
20	31	1
23	45	1
54	55	1
33	57	2
30	49	1
61	80	1
65	65	3
35	68	1
97	98	1
26	45	2
91	105	3
94	97	1
20	20	3
58	65	1
30	30	2
96	106	1
78	88	1
36	37	4
93	100	1
57	59	2
84	86	2
39	100	1
72	80	1
21	21	1
94	94	2
55	56	2
100	101	1
29	29	2
58	58	1
90	100	1
32	67	2
47	48	2
86	100	1
72	76	1
53	68	1
39	90	2
56	57	1
62	68	1
21	49	1
22	33	1
61	104	1
