75	76	1
40	40	6
14	14	4
79	79	8
57	85	2
33	33	2
43	44	3
15	15	3
102	102	5
46	46	4
38	39	4
12	12	5
66	66	1
109	109	6
16	23	1
32	33	1
68	68	4
80	80	5
70	71	1
19	19	1
99	100	2
89	92	2
65	65	2
115	131	1
70	70	6
118	126	1
74	74	5
41	43	4
95	95	6
45	45	4
7	7	3
44	44	4
20	29	1
131	131	2
97	98	7
89	91	2
14	15	2
48	48	9
85	85	6
128	128	6
96	96	6
82	92	1
24	24	7
106	106	6
4	13	4
40	52	3
2	6	1
25	26	6
98	108	1
92	92	7
113	113	8
50	70	2
83	83	4
104	104	4
93	93	2
127	132	6
99	99	3
49	49	1
127	128	3
102	106	2
31	31	1
69	69	4
16	16	3
126	126	2
56	65	1
38	76	1
125	125	3
43	43	7
105	105	11
47	48	2
78	98	2
95	96	1
83	86	4
120	120	2
69	87	2
52	52	2
72	73	4
99	101	1
91	91	1
106	107	6
66	67	1
123	123	6
68	69	2
118	118	3
17	18	1
116	117	1
28	106	2
100	100	1
47	47	4
11	27	1
94	95	2
77	77	5
26	26	8
93	94	2
83	84	2
58	58	3
22	22	3
26	29	1
11	11	2
69	91	4
81	81	3
54	56	1
129	129	4
112	114	2
4	4	4
111	111	3
110	110	2
29	33	5
77	132	1
62	63	3
82	114	1
60	63	4
65	66	2
22	23	2
90	91	3
103	103	2
8	8	2
48	49	2
56	56	4
15	22	2
83	90	2
86	86	2
69	80	1
121	121	6
113	131	1
88	88	1
75	124	1
126	130	2
62	69	1
30	46	1
113	129	1
76	80	3
41	41	1
27	85	3
114	114	7
52	113	2
60	72	2
50	52	2
132	133	1
91	92	2
29	32	1
96	109	1
46	48	3
119	119	5
31	83	3
20	21	1
58	59	3
102	103	3
21	21	3
5	5	2
97	97	2
0	0	3
41	55	1
28	28	5
20	20	5
71	71	2
122	122	3
67	67	4
23	24	1
6	6	1
50	50	7
88	93	2
119	127	3
121	125	2
107	107	1
72	72	2
108	117	1
22	33	1
70	87	1
66	126	1
30	31	1
2	14	2
40	41	2
90	90	1
32	45	1
98	111	1
96	110	1
108	108	1
110	111	2
63	63	1
18	23	2
77	96	2
111	130	2
20	70	1
58	63	1
39	39	4
38	40	1
60	60	3
109	117	1
104	105	1
55	55	1
43	45	1
21	107	1
67	86	1
39	75	1
116	118	1
50	51	1
41	42	1
54	55	1
115	115	1
7	23	3
9	9	2
103	108	1
42	42	2
84	133	1
99	129	1
101	101	2
66	79	2
113	115	1
81	97	2
19	24	2
98	98	2
25	25	1
32	32	2
100	115	1
2	2	2
114	115	1
76	76	2
67	68	1
100	111	1
94	94	1
43	46	3
25	27	1
1	12	1
22	34	1
59	71	1
8	9	1
27	83	2
53	132	1
23	23	1
111	124	1
18	18	1
1	1	1
54	54	2
0	6	2
86	88	1
121	122	1
61	63	1
60	79	1
56	57	1
107	108	1
103	106	1
52	53	1
49	50	1
94	96	1
