104	106	2
232	232	5
207	207	7
186	186	12
109	113	4
105	109	3
145	145	3
32	100	2
31	31	2
188	188	17
199	199	7
104	104	1
5	5	9
95	96	4
28	28	17
237	237	9
38	38	15
239	239	4
212	213	2
219	219	11
176	176	10
27	27	6
214	214	10
161	161	5
157	158	5
86	86	15
185	185	12
200	200	14
26	26	5
215	215	7
163	182	2
242	245	2
175	193	1
189	211	5
66	66	8
247	248	4
70	70	3
238	238	11
157	157	9
54	55	9
82	82	5
166	166	5
194	194	7
39	39	9
212	212	9
193	193	9
234	234	5
208	209	7
204	204	12
85	85	13
19	20	4
178	178	5
23	23	4
213	215	7
153	153	3
235	241	2
160	160	9
10	10	9
247	247	6
45	45	5
90	90	7
164	164	12
184	185	2
208	233	2
69	69	12
56	57	1
246	246	6
57	58	2
217	217	6
158	158	13
24	24	6
35	52	3
64	64	1
61	62	3
246	247	3
175	176	2
116	116	10
224	224	8
183	209	2
212	214	2
179	180	3
21	21	4
57	60	3
53	53	10
202	202	10
44	45	1
168	168	2
63	84	3
192	209	4
34	38	2
177	180	5
113	113	2
66	67	4
27	28	3
9	9	6
229	230	2
203	203	5
152	152	2
8	9	3
223	223	9
153	235	3
206	207	7
55	55	10
187	187	5
229	229	6
159	159	7
208	208	8
170	170	5
177	177	8
44	44	12
156	156	3
169	169	7
222	222	6
214	216	2
160	163	1
213	213	6
163	163	2
174	174	9
98	99	2
183	187	3
182	182	15
60	62	1
107	107	5
20	21	5
205	205	5
48	51	3
173	173	8
37	37	9
167	167	9
241	245	1
48	48	3
110	110	5
109	109	4
168	169	4
11	11	4
151	151	6
187	192	7
14	14	10
182	183	4
91	91	12
192	192	6
242	242	7
1	2	2
77	78	4
118	119	1
176	178	2
6	19	6
174	175	2
43	43	5
52	52	7
243	244	2
154	154	6
102	102	6
249	249	1
22	22	3
93	93	2
30	31	4
62	62	5
191	191	16
78	79	1
201	201	10
227	227	11
36	36	8
182	191	2
67	67	5
225	226	3
175	175	2
4	6	2
179	179	15
2	2	6
56	56	4
41	41	7
178	246	1
209	209	7
18	18	3
164	182	2
47	47	1
91	101	3
117	117	5
195	195	4
25	25	1
40	41	3
18	183	1
34	61	2
79	81	3
43	44	3
61	61	2
83	83	1
111	111	9
54	54	6
68	74	2
20	20	3
197	197	5
34	34	3
156	157	2
171	171	3
51	51	3
158	184	2
49	49	2
22	205	1
108	108	2
165	167	2
87	87	4
195	196	5
79	79	5
149	149	2
8	8	2
42	43	1
35	76	4
237	238	2
155	156	3
168	211	3
198	198	5
173	203	4
38	39	2
162	162	6
59	59	3
42	46	4
146	146	3
172	193	1
53	59	1
192	199	2
171	177	1
146	152	3
7	7	5
98	98	3
12	153	2
81	81	3
171	249	2
228	229	1
48	60	1
48	50	4
193	220	2
75	76	2
175	190	3
190	190	6
155	155	4
4	4	2
218	218	1
245	245	1
181	181	2
150	150	3
144	206	1
165	165	4
194	195	1
210	210	7
110	112	2
107	112	2
105	106	2
230	231	5
24	25	4
196	196	6
159	160	2
32	32	5
94	95	1
164	166	2
238	239	2
178	197	1
80	80	2
50	50	4
175	179	3
228	228	2
1	16	1
61	89	3
98	103	1
230	233	3
180	180	4
71	71	1
97	98	1
100	107	2
69	105	5
12	12	2
231	231	5
183	183	1
15	24	1
235	236	1
241	241	2
197	211	2
58	59	3
20	24	1
91	92	1
5	14	1
68	68	2
19	19	2
199	200	4
69	70	3
88	88	1
48	68	2
172	172	4
90	91	4
193	194	2
244	244	3
77	77	7
213	214	2
167	183	2
30	30	4
203	207	2
235	235	1
196	197	1
60	60	2
146	147	5
197	234	3
102	107	2
248	248	4
203	205	3
51	52	2
189	189	3
30	82	3
163	247	1
48	69	3
187	188	2
174	192	3
1	1	1
106	106	1
192	193	2
99	101	3
184	188	1
61	86	2
169	171	1
161	162	4
240	247	2
112	112	1
193	195	2
42	42	3
164	176	2
184	184	4
71	72	2
15	15	1
8	28	1
114	115	2
72	72	6
216	216	5
147	160	1
240	240	3
59	65	1
172	174	1
171	172	1
154	155	1
89	89	4
118	118	3
147	147	3
58	58	1
163	164	1
39	51	2
19	22	1
245	246	3
154	246	2
73	74	1
211	212	3
77	177	2
97	97	4
6	6	1
219	220	2
104	105	2
89	90	1
103	104	2
6	31	1
233	234	1
177	181	4
161	181	1
10	12	2
48	86	1
75	75	1
62	63	1
156	161	1
164	165	1
92	92	2
58	60	1
208	239	1
104	112	1
241	242	2
172	178	1
46	46	1
39	53	1
162	163	1
63	63	1
45	46	1
49	104	2
194	219	1
103	103	1
220	220	2
65	65	1
24	26	1
29	81	1
226	226	1
157	167	1
63	93	1
240	245	1
236	236	1
28	63	1
119	119	2
153	163	1
224	225	1
213	241	1
188	190	1
213	238	1
192	217	1
7	227	1
87	88	1
0	0	1
153	154	1
6	7	1
185	186	1
