71	76	1
39	39	4
38	39	9
90	90	16
66	66	17
94	94	12
31	33	6
56	56	7
104	105	6
73	73	6
72	90	2
58	59	4
38	50	3
46	47	1
43	43	14
75	75	18
96	96	20
30	32	3
102	102	7
65	65	5
41	41	6
67	68	3
53	53	7
47	48	5
32	32	11
22	22	18
52	52	6
37	38	10
76	76	9
99	99	11
46	46	8
106	106	1
56	57	6
101	101	5
100	101	3
37	100	2
50	50	3
71	71	9
30	31	4
74	74	13
85	106	4
35	60	1
36	36	8
80	80	6
80	81	14
20	24	5
67	72	3
25	25	17
73	75	2
33	33	10
92	97	1
79	79	3
77	92	2
79	81	3
20	20	11
35	39	1
62	102	1
68	68	22
98	99	9
38	51	2
51	51	11
23	24	2
77	77	11
89	89	7
66	67	3
79	80	4
40	42	5
95	96	5
72	92	3
44	44	5
89	90	7
96	97	2
81	81	7
31	32	4
45	45	8
85	85	9
91	91	4
40	40	12
20	21	3
65	68	3
51	56	3
30	30	7
63	63	9
28	46	2
64	64	11
78	79	3
67	67	3
104	104	6
39	51	2
92	92	14
57	58	1
22	25	2
97	97	13
29	30	3
50	51	6
38	38	6
90	91	1
22	23	1
72	72	13
21	21	7
78	90	2
80	91	2
93	93	7
44	45	9
95	95	10
55	55	6
31	31	10
61	61	8
29	29	7
81	82	4
93	99	1
26	26	4
101	102	3
60	61	1
47	47	2
84	84	5
57	57	6
70	70	3
92	93	3
52	53	2
35	35	8
59	59	4
75	95	1
100	100	4
83	83	5
78	78	7
34	35	1
59	60	3
35	36	3
82	82	11
106	107	7
93	94	2
70	71	1
58	89	4
23	23	10
76	93	2
63	64	6
28	28	3
30	33	3
34	34	8
97	98	3
62	62	7
73	92	2
45	49	2
29	31	3
70	73	1
63	66	1
24	24	12
98	98	2
54	54	3
85	87	3
67	69	3
60	63	1
51	52	4
36	60	2
102	103	6
46	48	2
101	106	3
60	60	9
84	86	3
50	64	2
48	48	2
49	56	1
63	102	1
86	87	1
27	27	5
62	63	6
67	89	1
32	33	2
40	41	8
49	49	5
39	60	2
35	59	1
73	79	3
34	48	3
48	49	2
41	42	2
77	78	2
68	70	1
88	88	2
74	90	1
69	69	2
55	56	1
76	77	2
42	42	5
68	69	1
61	62	3
103	103	9
45	46	2
30	48	1
58	58	2
73	74	2
68	77	1
88	89	2
105	105	1
69	71	1
79	84	2
54	55	1
55	57	2
71	73	3
43	44	1
37	37	9
67	70	1
84	85	2
21	48	2
39	43	2
64	65	1
78	91	1
82	83	1
39	40	1
67	93	2
38	62	1
76	106	2
32	51	1
30	54	2
87	87	1
52	55	1
100	102	1
87	88	1
66	71	2
99	100	1
77	80	1
22	26	1
62	65	1
50	55	1
72	73	1
61	63	1
86	86	1
