90	90	2
44	54	2
89	90	1
34	39	3
74	79	2
38	48	5
55	60	1
36	42	1
67	67	2
41	72	2
86	88	3
73	73	8
87	89	1
52	52	5
34	65	3
49	49	3
71	94	3
43	44	2
70	72	6
47	57	4
70	94	1
39	39	1
98	99	5
91	96	2
28	29	1
72	72	4
76	88	5
64	70	3
75	75	4
54	73	8
72	77	1
45	49	3
58	71	2
99	101	3
45	66	2
64	69	2
89	89	6
96	96	5
68	69	4
64	64	3
34	36	5
44	46	1
37	43	1
47	50	9
48	59	3
39	50	3
76	77	3
86	91	2
67	71	3
61	61	6
33	33	4
51	51	1
54	54	6
97	99	8
29	46	4
84	85	2
42	43	7
80	80	5
25	46	2
62	101	5
69	69	4
84	86	2
36	36	2
94	94	4
79	80	6
59	88	2
75	78	1
80	83	2
100	100	7
58	58	3
24	58	2
74	77	2
72	73	3
79	82	1
68	68	6
88	90	5
83	84	3
76	89	4
101	101	8
71	71	6
51	55	1
83	83	3
48	78	2
65	68	4
85	88	2
57	58	3
59	66	3
35	37	2
45	46	3
62	66	4
81	97	2
87	87	5
85	86	7
68	70	1
54	55	6
26	26	3
87	88	1
85	85	5
35	36	2
99	99	7
72	93	2
45	47	1
92	93	4
97	97	1
38	38	1
73	90	2
71	82	2
56	59	6
45	77	4
22	22	3
66	79	2
79	86	1
65	69	4
40	40	6
79	79	3
55	80	3
88	88	3
31	33	2
57	62	1
97	98	1
52	54	1
51	53	2
29	30	1
95	95	2
58	59	2
33	46	1
44	76	2
75	80	4
61	63	1
73	93	1
55	62	1
39	80	3
83	87	3
69	77	1
53	54	1
61	88	2
44	44	2
27	45	1
34	34	2
39	41	4
60	62	3
27	30	2
63	64	1
65	66	2
41	46	1
43	43	1
66	67	5
47	51	2
46	48	1
53	58	3
70	70	2
40	77	1
83	86	1
89	91	1
65	88	2
24	26	1
55	57	1
96	100	2
60	60	4
26	30	1
88	97	1
88	92	1
36	38	1
59	59	2
78	79	3
72	74	4
63	63	1
99	100	1
61	65	1
70	74	1
90	92	1
47	80	2
66	70	1
26	40	2
26	35	1
81	87	3
87	90	2
98	100	2
73	75	1
28	28	2
77	80	3
47	48	1
37	53	2
91	99	3
34	35	2
48	60	2
55	89	1
79	87	1
41	43	1
48	81	2
58	60	1
76	78	1
63	67	2
59	60	1
68	71	2
43	78	2
64	65	1
59	81	1
83	90	2
71	74	1
41	41	1
89	102	2
78	101	1
86	87	1
71	93	2
38	51	1
31	31	1
32	32	1
42	46	1
92	97	1
87	93	1
61	68	1
38	40	2
98	101	1
43	45	1
37	38	1
66	91	1
75	76	1
33	34	4
36	45	1
71	98	2
94	95	2
61	67	1
52	53	2
36	63	1
90	97	2
69	71	1
28	38	1
88	89	1
66	66	1
47	62	1
51	52	2
67	90	1
47	53	1
44	53	1
55	58	1
73	94	1
57	59	1
83	88	1
