36	36	12
1	1	6
53	53	11
28	28	11
50	50	3
10	11	5
0	11	5
4	4	12
73	73	13
31	31	4
60	60	10
1	2	6
37	37	13
6	74	4
31	35	2
9	10	5
35	36	4
5	5	7
14	51	1
24	24	13
38	38	12
64	64	10
32	32	23
26	26	12
70	71	2
9	44	1
61	61	2
72	72	9
14	43	2
3	3	7
7	8	8
54	54	10
48	50	5
3	4	3
65	65	7
33	33	12
29	29	15
43	43	6
22	65	2
2	2	12
10	10	2
39	39	12
66	66	13
29	30	3
75	75	5
58	62	5
68	68	7
73	74	4
63	64	4
13	13	3
40	53	2
46	46	1
54	55	4
20	20	12
22	23	5
42	75	5
54	77	2
38	47	2
63	63	6
8	8	5
69	70	5
60	61	3
24	30	5
58	58	13
67	68	1
2	3	3
30	30	10
50	51	1
58	63	4
59	69	3
49	50	1
0	0	6
49	49	8
23	24	3
37	39	1
39	69	1
44	48	1
5	13	3
27	27	5
34	34	4
28	41	1
12	12	5
45	45	6
25	25	5
42	42	7
47	47	7
11	13	1
37	38	2
27	50	1
35	35	5
55	55	3
72	73	5
32	47	3
1	6	2
33	44	3
0	57	3
65	74	3
23	32	1
0	13	4
40	41	2
66	67	7
4	75	4
67	67	9
19	19	6
15	49	1
5	6	1
74	74	11
21	22	5
0	56	2
49	59	2
51	51	10
32	33	5
32	51	1
15	50	1
36	40	4
56	56	7
40	75	1
69	69	6
44	44	1
52	57	1
57	58	4
64	65	6
59	59	2
76	76	1
22	51	3
61	64	3
71	71	6
75	76	8
66	68	2
47	76	1
70	70	6
59	64	1
53	54	2
36	37	5
69	71	1
21	21	9
19	20	4
14	52	2
65	70	1
7	7	10
33	34	3
35	38	4
48	48	5
28	51	2
7	59	1
3	5	1
20	24	2
43	52	1
39	76	2
34	52	2
42	63	1
41	41	2
25	33	3
57	67	2
57	62	4
41	42	5
25	26	3
58	73	3
23	23	4
65	66	3
48	52	1
51	52	3
26	28	1
56	74	1
40	76	1
8	9	1
19	26	1
25	54	2
77	77	2
37	44	1
11	11	3
55	56	2
7	72	1
26	32	1
62	62	3
32	76	3
59	63	1
27	42	2
50	69	1
31	34	1
23	36	2
62	63	3
50	52	1
37	47	2
34	35	4
55	61	3
24	27	1
8	60	1
18	18	2
12	48	1
34	37	1
57	63	1
46	74	1
38	39	2
58	61	1
4	12	1
61	62	1
36	38	1
13	71	1
6	72	1
34	48	5
71	72	1
28	34	1
58	59	1
26	42	1
3	21	1
52	52	1
65	72	1
18	19	1
9	9	3
29	32	1
28	32	1
7	57	1
35	37	4
1	74	1
39	40	1
60	65	1
63	66	1
2	11	1
38	49	1
31	36	1
24	25	1
57	57	1
43	44	1
48	56	3
63	65	1
40	42	1
44	46	1
63	68	1
32	34	1
31	32	1
23	51	1
30	51	1
52	54	1
22	22	1
28	31	1
