42	43	4
166	166	5
102	102	3
173	173	13
41	41	7
160	160	10
171	172	4
154	156	4
0	0	3
44	44	11
157	158	4
62	63	1
54	54	5
5	6	8
134	134	4
71	71	8
152	152	16
170	170	2
124	125	5
97	97	3
11	14	1
14	138	1
146	146	5
135	169	1
64	64	8
141	141	9
40	40	8
78	78	6
170	174	1
100	100	4
36	36	9
150	150	2
26	125	3
66	103	1
171	174	2
106	106	1
11	11	9
18	18	8
26	139	2
10	12	2
42	42	7
1	2	2
17	17	7
113	113	11
21	21	5
122	134	1
61	61	5
12	12	10
89	89	5
123	124	4
148	148	1
54	60	3
107	107	4
36	37	4
105	176	3
97	98	7
143	143	4
123	123	10
102	103	4
116	117	2
146	172	1
86	86	5
166	177	1
45	45	4
2	6	2
26	28	3
85	85	9
6	6	7
76	76	7
132	176	4
24	24	5
167	167	10
139	139	16
91	91	14
120	120	2
13	31	1
15	16	4
37	37	10
3	3	1
1	3	1
178	178	4
32	32	3
35	37	3
133	133	3
122	124	2
20	20	4
25	28	1
82	146	5
34	38	2
135	150	1
36	179	2
18	19	4
57	102	2
15	15	8
31	31	8
119	119	1
174	174	5
121	175	1
129	152	2
88	88	4
86	87	1
30	30	3
126	126	8
163	163	8
137	137	9
38	38	6
158	158	6
58	58	6
136	136	4
30	35	1
68	68	6
112	113	4
166	167	2
151	155	2
51	51	2
129	163	2
15	21	2
6	7	4
2	2	10
128	153	1
128	128	2
28	28	2
60	60	3
122	122	9
79	79	6
147	147	5
170	171	2
5	105	2
56	56	8
162	162	5
124	124	2
35	36	3
10	10	13
45	46	1
8	11	1
39	40	3
31	32	3
160	162	5
8	9	6
64	122	2
83	83	3
19	19	6
43	55	2
151	151	6
35	35	2
126	169	2
130	130	4
158	159	2
103	106	2
81	82	5
77	77	5
22	22	8
24	38	1
14	14	6
98	154	2
18	21	1
127	128	1
29	29	5
29	30	3
165	165	5
23	26	3
134	137	4
5	24	1
60	61	5
118	134	1
101	102	2
8	8	2
52	52	2
16	31	2
14	16	4
44	45	1
145	147	3
93	121	1
155	174	2
5	5	2
117	119	3
118	138	1
21	22	1
72	103	3
9	9	4
115	115	6
16	16	8
18	22	1
118	118	3
94	122	1
165	166	1
57	61	1
160	164	1
104	106	4
92	92	1
153	153	2
179	179	2
51	165	5
127	127	5
24	26	1
152	153	3
73	75	5
104	105	2
84	85	6
26	141	2
135	135	4
86	92	2
33	33	5
73	73	5
10	11	5
129	129	6
135	136	6
125	125	3
159	159	6
169	169	5
110	114	2
172	172	1
39	39	6
163	165	3
99	101	4
81	133	1
155	156	1
52	63	3
17	18	1
179	180	4
55	158	1
50	102	3
145	157	3
53	58	3
140	140	2
100	161	3
94	94	1
66	66	1
2	43	2
60	77	3
118	121	1
109	109	3
112	112	1
58	74	1
7	8	1
175	175	1
96	151	1
68	100	1
7	7	4
28	29	2
75	123	4
77	154	1
87	87	4
13	14	2
19	20	2
117	117	4
130	169	1
77	107	1
146	158	1
41	42	1
61	62	3
97	109	1
57	74	2
14	20	2
64	135	1
108	108	3
151	153	1
159	170	1
98	161	1
24	27	1
1	1	4
132	132	3
163	168	3
25	25	4
72	176	2
43	44	2
27	27	3
107	109	2
31	35	1
30	41	1
57	58	2
77	78	1
0	32	1
86	88	2
13	13	1
90	138	2
103	104	2
14	44	1
177	177	1
110	110	3
59	59	1
168	168	4
110	115	1
88	172	1
115	117	1
39	41	2
131	149	2
25	26	2
56	150	1
152	155	1
96	98	1
34	35	1
99	170	1
76	145	3
65	100	1
65	65	3
23	23	5
95	96	2
145	145	4
24	39	2
121	121	2
120	121	1
114	114	2
13	22	1
55	71	1
26	39	1
147	148	2
67	67	1
138	141	1
63	101	2
40	41	2
111	111	1
18	115	1
153	170	2
171	171	2
72	72	3
56	57	1
106	107	2
95	123	1
154	154	1
119	135	1
114	117	1
32	33	2
90	133	1
101	101	1
82	170	1
17	108	3
116	116	2
121	148	1
125	172	2
22	31	1
5	82	4
84	132	1
157	157	2
111	177	4
9	12	2
109	111	1
12	18	1
64	173	1
51	178	1
56	169	1
99	99	1
176	176	3
144	145	2
156	156	2
46	46	3
138	138	1
89	98	1
64	65	1
26	26	3
11	25	2
101	135	1
8	34	1
96	96	3
163	164	1
11	12	2
106	109	2
13	23	1
24	32	1
111	116	1
86	114	2
16	17	2
17	33	1
4	4	2
151	152	2
103	103	1
75	75	1
30	31	1
94	95	1
133	135	1
118	119	1
161	162	2
154	155	1
53	75	1
137	138	1
17	27	1
18	20	2
102	157	1
43	43	2
22	37	1
55	81	1
55	55	1
76	116	1
81	81	1
2	9	1
61	127	1
153	154	1
144	169	1
177	178	1
109	112	2
144	144	2
78	79	1
72	79	1
143	145	1
1	6	1
154	157	1
25	141	1
68	88	1
105	105	1
92	94	1
180	180	2
24	138	1
66	157	1
12	15	1
26	27	1
63	100	1
142	142	2
38	140	1
97	123	1
111	112	1
45	102	1
104	104	1
85	98	1
106	108	1
