80	80	20
132	132	5
133	134	2
106	110	5
95	96	10
91	91	22
77	77	14
19	19	17
64	64	17
26	26	20
105	105	19
87	87	16
27	27	14
31	31	12
4	4	7
79	80	11
122	122	13
96	96	10
75	76	6
69	69	23
117	117	20
86	86	15
101	101	7
101	102	12
17	17	10
116	116	17
61	64	11
16	16	20
63	63	6
83	83	5
67	69	6
9	11	6
36	36	11
65	65	3
16	18	7
120	120	24
49	49	10
103	131	3
125	125	19
12	12	15
97	97	17
118	119	5
45	45	12
129	131	5
32	33	5
20	21	6
7	8	6
60	61	2
104	104	17
75	75	8
118	118	17
85	85	17
46	73	1
66	66	18
111	111	15
78	78	15
61	61	12
119	120	10
77	82	2
74	74	12
20	22	5
67	67	8
93	93	22
59	59	9
113	113	8
104	105	13
82	82	13
121	121	16
3	4	3
49	50	7
54	56	5
84	84	25
103	104	2
112	112	16
96	97	12
55	55	13
11	11	19
86	88	1
3	3	5
81	81	5
99	99	17
27	30	2
94	95	2
104	111	2
30	31	6
1	2	3
60	60	15
31	32	4
35	37	4
128	128	6
28	28	12
90	91	7
2	2	12
43	44	1
106	114	2
36	37	3
92	93	9
43	43	10
90	90	18
95	95	21
13	13	4
81	82	3
70	70	15
62	62	11
112	114	5
78	79	3
52	53	11
57	59	2
55	65	5
53	53	20
25	25	8
62	64	7
8	8	3
83	84	1
47	48	3
108	109	7
126	126	8
107	107	9
29	29	7
26	31	4
88	88	13
123	123	14
22	54	5
89	90	13
126	128	1
18	18	8
52	52	15
132	133	1
114	115	11
125	129	1
93	98	7
98	98	13
66	67	6
18	20	1
119	121	5
21	22	4
106	108	2
20	24	1
111	122	1
5	5	7
109	110	7
54	55	16
71	71	13
24	25	6
33	34	5
95	98	3
80	120	1
119	127	4
110	121	1
76	76	5
14	14	3
129	130	3
106	120	7
79	79	11
112	116	2
119	119	25
106	106	15
58	58	10
31	34	3
126	127	7
108	108	10
44	45	1
0	0	2
35	36	2
135	135	3
87	88	6
77	81	7
100	100	17
69	85	2
11	53	2
92	116	2
25	26	3
6	6	5
124	124	8
117	122	2
92	97	3
128	131	5
34	34	14
73	74	5
38	38	5
127	129	4
68	68	19
32	32	6
37	37	4
54	54	8
16	63	1
26	27	3
47	47	6
14	15	4
45	49	1
72	77	1
0	1	7
122	123	5
115	116	1
5	6	2
23	25	6
48	50	2
94	94	10
61	63	3
131	131	19
125	126	3
23	23	8
110	110	14
15	15	6
70	124	5
91	92	10
46	46	2
35	35	7
49	72	3
44	44	10
129	129	10
118	120	4
23	24	3
57	58	1
121	122	2
7	7	2
22	22	6
51	51	5
65	66	3
127	127	8
109	109	16
114	114	4
82	85	2
2	3	2
117	118	10
115	115	18
126	129	2
113	114	7
70	71	4
61	69	3
94	96	2
57	61	1
68	79	2
92	94	1
12	62	6
100	110	2
47	51	2
72	72	16
71	72	6
80	123	2
64	65	3
10	10	13
23	28	1
4	5	4
71	84	1
112	113	5
18	19	5
0	2	3
106	107	9
29	30	5
101	108	3
84	85	10
92	92	10
60	96	2
85	87	1
24	24	5
102	102	5
10	11	3
1	1	7
70	72	3
27	28	6
105	108	3
69	70	7
67	68	3
127	128	8
74	130	1
89	89	7
69	90	3
130	130	8
14	44	1
13	52	3
74	75	3
103	103	8
120	122	2
104	112	1
111	120	2
9	9	5
18	28	2
65	70	2
134	134	9
21	50	2
16	17	8
119	123	2
89	119	1
20	20	6
83	85	1
21	26	1
7	12	2
61	62	5
29	31	2
53	56	6
77	78	4
127	130	4
130	131	2
54	59	1
50	61	2
103	130	1
3	5	1
130	132	5
55	56	2
79	81	3
82	116	4
59	60	3
33	33	3
92	96	1
107	114	2
124	125	1
131	132	4
72	73	5
90	93	3
7	9	2
6	7	3
24	26	1
85	88	2
111	112	2
61	68	2
58	59	2
78	80	1
22	23	6
25	27	1
82	87	3
13	15	2
2	4	1
105	114	3
14	48	2
15	16	4
116	117	3
87	119	2
42	43	4
15	45	3
28	43	2
26	29	1
67	78	2
53	54	4
15	44	1
1	3	3
123	124	3
133	133	7
128	129	2
14	16	1
96	100	1
42	42	5
101	103	1
105	115	1
7	11	3
78	122	1
122	125	2
6	8	5
21	21	3
71	73	3
45	47	1
77	79	1
106	111	3
92	95	1
17	28	1
54	57	2
11	12	1
101	130	2
65	67	1
80	115	3
97	100	2
73	73	8
80	119	1
89	112	2
68	70	1
105	106	4
3	29	1
12	98	1
15	43	2
62	63	2
98	99	1
100	101	1
115	117	1
56	56	4
86	87	1
101	129	1
45	46	1
97	98	2
28	29	2
118	127	2
29	33	1
14	50	2
86	96	2
94	118	1
4	12	1
132	134	1
110	111	3
87	118	1
85	86	3
14	33	1
88	89	2
50	50	2
69	76	1
37	38	1
112	115	1
120	121	1
19	20	2
88	115	1
63	75	1
30	32	1
128	130	1
106	109	1
91	93	1
