20	33	6
129	129	12
59	76	1
23	25	1
8	18	2
86	86	20
132	132	14
16	16	6
130	131	1
76	76	23
35	74	2
118	118	12
83	93	4
69	70	2
105	105	7
92	92	10
32	36	1
44	45	5
33	33	19
105	123	7
33	34	12
37	39	3
19	31	2
45	45	13
39	39	7
56	133	2
40	40	1
40	125	2
44	44	2
29	29	13
82	131	2
48	48	11
83	113	4
7	7	12
2	36	4
69	69	7
26	90	1
93	93	6
30	30	8
47	48	4
43	76	1
109	109	8
14	14	11
5	8	4
113	115	5
117	117	5
64	65	4
78	79	1
61	61	13
20	21	10
117	123	5
26	55	1
21	85	2
4	4	11
4	5	15
34	34	17
100	100	10
73	73	18
43	44	5
26	27	11
77	101	2
24	24	8
103	103	7
90	90	20
96	96	8
51	128	3
50	51	4
32	48	2
33	35	8
28	30	2
120	120	4
37	38	9
122	122	6
36	118	3
128	128	6
32	32	9
46	46	20
28	29	7
3	29	2
15	15	13
12	12	10
69	71	4
26	79	1
89	92	1
31	31	13
41	56	2
117	120	2
80	129	6
62	69	1
43	43	5
14	15	1
92	115	6
82	82	9
66	66	9
98	99	3
4	95	4
59	92	4
41	41	17
91	92	4
9	27	3
89	89	12
65	112	2
7	23	3
4	8	8
61	76	1
26	26	12
51	51	1
26	96	3
57	59	2
74	74	4
75	75	12
22	22	9
99	99	9
83	83	14
27	95	2
57	57	17
65	80	1
87	87	17
67	67	4
85	101	4
116	123	1
94	94	25
10	18	3
95	98	1
110	110	9
59	59	8
84	84	10
25	25	7
20	22	1
56	56	2
11	78	1
99	100	8
20	20	14
110	117	3
24	55	4
32	34	1
71	71	5
65	65	17
112	113	6
95	124	6
48	98	2
41	42	6
68	68	5
3	4	7
1	1	7
13	13	14
107	107	4
56	106	1
41	44	5
79	79	8
19	20	7
119	119	10
30	31	4
2	11	2
46	47	3
104	110	4
106	128	2
27	29	3
36	36	9
4	89	3
28	28	6
3	3	15
57	60	1
78	78	9
9	9	25
20	89	2
60	60	5
70	71	6
20	49	1
59	62	3
18	18	9
60	113	2
16	23	3
46	123	1
101	102	4
17	17	3
32	40	1
7	8	1
6	18	2
68	69	6
103	114	3
125	125	8
10	10	10
17	18	6
55	55	9
35	35	9
106	106	6
100	108	2
56	57	5
85	85	5
39	44	3
64	74	1
78	134	3
100	101	3
5	6	1
88	88	2
49	84	2
97	97	7
113	113	10
64	64	9
72	72	19
60	74	4
19	19	7
27	27	6
35	77	1
13	14	1
77	77	16
105	107	3
26	82	1
105	111	5
51	56	1
108	120	1
63	72	4
45	124	2
101	108	3
5	101	1
58	58	2
5	7	6
98	98	8
42	42	7
92	93	6
60	61	3
70	70	12
17	57	1
93	131	4
30	40	3
84	133	4
62	68	4
105	110	3
4	101	2
27	46	1
47	47	16
75	76	3
115	115	10
76	77	5
35	36	5
29	96	1
97	98	3
31	32	4
88	94	2
38	38	10
95	95	6
124	125	4
18	57	1
8	8	14
5	84	2
42	80	3
21	51	3
59	100	3
9	10	4
77	102	1
5	24	2
25	47	2
92	101	1
68	102	2
101	101	12
130	130	10
104	104	6
127	127	1
80	80	4
15	16	5
117	119	4
94	96	1
90	91	7
131	131	6
70	72	1
55	56	5
11	11	10
49	49	4
91	93	3
57	92	3
2	3	4
65	134	1
82	85	1
88	115	2
29	40	1
108	108	2
123	123	8
39	43	2
39	42	3
37	37	5
95	96	4
40	56	2
10	24	3
26	133	2
55	133	5
104	105	2
111	111	2
131	132	3
112	112	6
6	20	8
2	7	1
23	132	1
11	92	2
97	127	2
113	114	3
6	19	2
0	0	4
129	130	2
12	47	3
6	12	2
79	133	1
45	129	2
20	61	3
27	28	3
14	74	1
30	48	3
58	70	4
24	45	3
29	48	5
45	64	1
22	23	3
134	134	6
8	15	1
20	85	1
60	134	1
75	122	1
121	121	1
114	115	2
102	120	2
47	85	1
81	83	2
4	21	1
124	124	2
24	25	1
94	95	6
84	113	1
72	74	1
21	81	3
81	133	3
21	90	1
48	84	3
73	75	3
103	108	1
80	81	2
5	5	5
43	103	1
84	85	4
5	20	3
62	63	2
46	130	1
29	36	2
63	63	4
85	86	5
29	30	1
41	46	2
60	69	2
94	97	3
21	80	1
117	118	1
93	95	2
38	81	4
11	56	1
40	46	1
22	34	1
59	116	1
3	94	1
48	78	2
133	134	1
8	9	2
91	91	4
35	37	2
5	11	2
41	125	2
4	26	1
93	94	1
51	82	1
62	62	7
5	26	2
77	78	4
19	34	3
10	12	2
125	126	1
126	126	3
46	78	1
74	84	1
15	29	1
6	6	3
45	49	2
123	124	3
31	80	1
55	116	3
46	49	1
10	21	2
62	64	1
114	114	3
39	81	4
106	129	1
21	78	1
110	114	1
23	23	1
29	49	2
25	55	3
6	7	1
108	109	3
90	92	2
47	98	2
3	31	3
2	2	1
86	90	3
67	68	6
21	21	4
59	60	1
48	91	1
81	115	1
23	74	2
82	83	1
70	83	1
89	90	2
27	91	1
21	35	3
111	117	2
55	57	1
40	42	1
116	116	3
82	84	1
71	76	1
47	93	1
120	121	3
29	31	2
4	100	2
8	14	1
61	73	1
7	20	1
27	97	1
108	111	1
36	39	4
55	102	1
79	81	3
7	84	1
49	105	1
73	76	1
101	109	1
78	82	2
63	64	1
50	110	1
1	2	1
48	50	1
72	122	2
81	131	1
42	43	2
29	79	1
60	71	1
25	62	2
41	118	1
89	91	1
47	86	1
39	82	1
25	57	1
20	88	1
20	84	1
94	124	1
3	100	1
61	62	1
49	106	2
100	128	1
87	91	1
26	97	1
55	78	1
55	132	1
78	102	1
45	134	1
19	33	1
103	105	1
46	128	1
9	28	1
41	43	1
58	84	1
6	21	2
36	46	1
16	17	1
10	17	1
11	13	1
89	93	1
24	83	1
