129	129	7
38	125	5
65	65	29
97	97	13
25	31	4
36	40	1
47	47	22
33	33	13
84	111	5
83	83	7
112	112	8
4	4	13
3	3	14
96	96	22
16	125	7
85	85	6
26	26	30
21	21	12
79	80	15
61	75	5
25	25	25
73	73	11
125	125	16
111	111	19
20	23	2
15	16	9
15	132	2
44	44	11
92	92	2
99	105	5
67	67	13
29	59	1
11	93	16
69	69	12
28	29	9
74	74	8
23	23	5
84	85	2
128	128	9
81	81	15
37	37	17
82	82	17
7	7	10
3	6	1
8	8	5
93	93	30
42	42	7
34	36	2
79	81	5
70	70	15
107	109	5
106	107	6
72	72	13
80	80	22
114	114	16
84	84	21
28	28	22
78	78	18
29	29	21
123	123	24
45	48	2
40	41	1
64	64	24
121	122	5
87	88	9
90	91	4
36	36	10
79	79	28
29	30	7
59	59	22
1	1	3
31	33	3
74	75	3
25	26	18
108	109	3
110	126	5
40	42	4
130	130	13
73	74	7
27	78	2
94	94	8
68	68	7
105	107	1
107	107	6
106	109	3
8	36	2
90	90	17
85	101	10
124	125	4
10	10	13
43	43	8
11	11	27
75	75	28
34	34	9
105	105	8
110	110	12
31	31	8
131	131	11
120	121	4
89	89	6
76	77	12
6	6	12
45	46	6
20	20	13
113	117	2
24	24	9
32	32	8
56	56	8
133	133	4
35	35	16
29	31	2
126	127	2
6	7	3
95	96	11
38	39	4
76	76	12
5	5	5
108	108	6
56	57	4
55	55	13
86	111	5
29	81	2
103	103	5
12	12	21
115	129	2
95	95	8
66	66	21
116	116	8
99	130	2
104	104	8
90	93	4
88	88	3
63	63	12
20	21	4
82	111	4
32	34	2
103	104	2
33	36	6
3	4	2
124	128	2
92	93	8
121	121	5
61	61	26
26	47	3
12	13	4
14	14	11
112	122	1
114	115	4
78	100	2
104	105	7
101	101	9
109	109	8
96	98	5
44	54	3
13	13	10
45	45	14
95	100	3
22	22	2
110	111	8
36	121	2
119	119	10
118	118	3
132	133	5
39	39	7
16	38	5
64	122	2
28	90	4
38	38	4
40	48	3
43	57	2
93	99	2
4	5	5
94	95	6
98	98	6
115	115	5
35	92	5
25	83	2
101	102	6
27	27	16
124	127	3
25	47	5
99	100	11
4	19	7
28	80	4
87	87	9
115	116	3
16	17	5
62	62	11
47	48	2
112	113	7
71	71	15
44	45	10
30	30	13
83	84	8
5	44	1
45	89	3
48	48	14
9	9	7
47	78	1
81	84	4
82	83	7
39	123	2
28	85	1
41	43	2
89	106	1
126	126	5
81	83	4
13	14	2
115	133	1
102	111	2
48	49	4
91	91	5
10	16	1
15	15	8
13	15	2
99	99	19
106	106	3
45	64	3
116	117	6
49	49	4
46	46	15
1	2	1
20	36	3
62	63	3
96	101	9
91	127	5
80	81	6
96	97	3
26	27	3
24	25	8
21	37	2
39	40	1
10	11	1
19	20	7
32	82	3
33	34	3
105	106	2
102	102	9
17	35	2
122	123	1
88	89	3
60	130	1
132	132	11
85	88	2
93	95	3
28	91	6
127	127	15
12	93	4
103	105	2
34	35	2
61	63	2
27	35	2
127	133	2
67	68	3
46	47	5
14	17	3
58	58	5
33	75	3
100	100	8
22	25	1
72	73	2
122	122	11
113	116	1
57	57	4
29	93	2
95	101	1
93	94	4
129	133	2
75	76	7
80	83	6
12	67	1
41	42	3
81	113	3
36	37	10
40	40	13
98	99	1
117	117	3
20	85	1
27	82	4
14	23	1
2	101	1
8	10	4
93	109	2
37	38	4
0	0	16
55	56	1
36	38	4
27	30	3
70	71	7
78	80	2
11	95	4
96	100	3
42	100	3
35	75	2
64	70	1
19	19	10
31	82	2
45	70	3
102	114	2
60	134	5
45	57	4
66	83	2
111	112	1
16	16	5
60	131	5
2	2	3
128	129	1
30	31	3
93	106	4
8	9	2
77	77	8
42	43	1
20	46	3
58	59	2
44	56	1
72	119	1
17	18	3
46	73	6
97	98	5
113	113	7
85	87	1
114	116	1
33	35	2
63	64	3
78	121	2
117	120	6
71	73	1
51	55	1
95	130	3
31	42	3
127	128	2
4	6	3
97	99	1
35	93	2
68	70	2
60	60	6
27	81	2
134	134	3
97	101	1
41	41	1
124	124	4
97	131	1
49	92	3
130	131	1
118	119	3
18	19	1
4	18	2
21	85	4
25	48	3
26	79	2
18	18	6
36	76	4
42	130	1
59	60	1
108	110	5
116	122	2
10	85	3
8	93	1
49	55	1
13	46	2
41	100	3
47	62	1
120	120	3
72	79	1
14	95	1
45	90	1
100	129	3
22	43	2
28	72	2
30	37	2
51	51	1
21	41	2
25	38	1
10	14	4
31	38	1
128	134	1
27	31	1
119	120	3
65	66	3
131	132	3
35	112	1
28	65	1
77	78	1
82	110	1
22	73	1
0	18	1
95	97	3
63	75	1
47	93	3
27	34	3
4	44	1
71	72	2
117	123	1
6	85	1
86	86	4
23	26	1
97	122	1
45	62	2
17	22	1
28	30	2
125	126	1
26	48	1
23	24	2
5	8	1
62	71	1
27	28	2
98	133	2
26	93	1
42	47	2
78	134	1
101	110	2
18	86	1
3	47	1
65	83	2
31	32	1
93	100	1
78	79	1
11	12	1
17	17	1
92	127	1
94	131	1
69	118	1
43	44	1
98	100	1
32	42	1
26	84	1
