116	116	7
46	46	4
93	93	5
119	120	3
36	38	4
58	58	2
28	49	2
34	34	19
85	86	2
71	83	2
123	123	9
94	94	9
67	122	1
46	47	2
60	60	4
95	98	3
72	72	7
125	125	5
65	66	4
36	75	3
75	75	12
62	63	2
9	76	3
24	25	1
38	81	2
22	23	1
104	105	4
83	83	8
60	61	1
4	4	4
32	33	2
43	46	4
91	91	4
45	45	8
40	40	1
20	55	1
43	43	5
74	75	2
17	19	1
61	61	8
99	99	18
9	9	6
21	32	1
5	85	3
122	122	6
14	14	6
21	26	4
112	112	8
80	80	6
27	27	9
35	35	7
19	33	2
19	19	4
69	69	2
78	78	9
71	72	4
93	94	8
16	46	3
8	86	2
79	79	7
63	63	13
11	11	5
40	41	3
74	77	4
57	57	3
100	100	5
95	95	7
9	10	5
16	16	7
126	126	1
64	64	7
17	17	12
55	55	4
15	16	3
26	36	2
45	63	2
105	106	1
62	62	10
26	27	3
93	95	5
6	7	1
26	26	5
120	123	1
31	32	2
47	47	7
59	59	9
75	76	13
12	13	4
106	106	2
118	118	4
73	73	8
84	84	4
47	48	8
85	87	3
92	92	4
82	82	2
43	44	3
1	1	2
61	76	1
45	47	1
65	65	14
125	126	2
85	85	4
66	66	4
102	103	1
28	28	5
102	102	1
29	30	2
48	48	1
81	81	4
124	124	3
10	11	2
71	74	1
3	3	3
6	98	1
10	12	2
67	67	7
76	76	3
68	68	4
108	108	5
110	111	2
113	113	5
36	36	7
44	44	2
68	69	3
31	61	2
119	119	2
80	81	1
77	77	2
32	32	3
97	97	6
43	82	1
120	120	4
98	98	2
97	98	4
28	47	1
49	49	1
11	45	4
12	12	4
81	82	2
101	101	5
100	101	2
78	79	1
22	22	2
33	34	2
42	42	7
70	74	3
132	132	7
87	87	4
15	15	3
69	77	1
49	50	3
5	5	2
11	12	2
27	31	2
7	7	7
33	33	7
113	116	2
21	21	1
107	107	2
28	79	4
11	26	4
10	10	2
96	96	2
126	128	2
8	47	1
71	71	3
130	130	3
28	30	1
115	115	3
63	69	1
68	86	2
16	17	2
61	72	3
121	121	3
34	45	1
5	6	1
4	83	2
106	107	1
12	61	2
36	44	1
45	61	1
103	103	1
74	74	3
111	111	2
37	37	1
105	105	3
26	84	1
8	8	2
0	3	1
112	117	1
65	67	2
55	56	1
70	71	3
13	14	2
128	128	4
75	78	1
41	42	1
56	56	2
13	13	2
7	8	2
133	133	1
113	115	2
95	96	1
29	29	3
24	24	2
86	88	1
88	88	1
117	120	2
89	89	2
73	74	1
20	47	1
60	62	4
22	45	1
127	128	1
17	20	1
20	20	1
32	74	3
96	97	1
98	99	1
116	117	2
10	70	1
10	13	1
23	23	1
10	118	1
84	95	1
20	62	1
129	129	2
70	70	2
25	26	1
104	104	3
77	93	1
46	61	1
109	109	1
26	48	1
76	77	1
101	129	1
27	79	2
89	90	1
102	117	1
79	81	1
134	134	1
90	90	1
75	77	1
124	125	1
57	58	1
126	127	1
23	24	1
131	131	1
18	18	1
107	109	1
6	100	1
