198	199	5
241	241	12
220	221	3
42	45	2
187	187	21
207	207	20
155	155	13
8	8	22
100	102	2
56	57	3
167	171	2
67	67	15
161	161	4
219	219	18
20	20	15
51	51	11
234	234	22
172	172	8
208	208	18
62	211	4
78	78	4
36	40	3
118	118	7
85	85	14
89	90	8
55	55	10
37	48	3
178	178	10
222	231	2
114	202	3
77	77	9
107	107	6
223	223	15
204	204	20
9	31	5
154	154	14
159	159	18
79	80	8
76	76	3
232	232	4
23	113	3
109	110	7
175	175	10
162	162	9
29	31	1
239	239	18
166	166	11
115	116	7
65	65	10
182	182	21
180	181	10
8	22	3
75	75	14
210	210	6
150	150	12
18	18	12
15	16	5
28	28	6
7	32	3
49	50	5
56	184	5
185	185	21
154	201	3
226	226	16
197	197	16
93	102	1
235	235	20
175	176	9
166	175	2
152	152	13
220	220	14
5	47	1
157	157	21
34	34	5
6	22	3
203	203	8
78	81	2
10	11	5
196	208	2
96	96	8
208	224	4
101	101	7
177	177	10
85	100	1
240	241	2
240	240	9
37	60	2
61	61	13
5	5	16
157	173	2
68	78	5
198	198	9
171	172	7
12	214	5
238	239	6
216	216	16
75	76	6
7	9	3
119	119	31
27	27	6
230	230	9
1	1	4
117	119	2
237	237	25
195	195	10
216	217	1
62	62	14
164	168	1
38	38	11
174	175	2
89	89	8
169	174	6
156	156	11
50	50	4
162	163	12
205	206	2
79	85	2
116	116	3
109	109	14
37	38	12
212	218	1
59	59	4
43	66	2
111	111	12
211	211	11
167	167	9
194	194	8
42	43	12
228	229	8
201	201	18
194	195	6
42	52	3
37	37	4
173	174	8
112	113	11
199	200	4
222	222	4
169	169	9
64	64	5
11	11	8
153	153	11
247	247	1
84	84	3
31	32	2
7	34	2
43	44	3
145	162	2
93	93	16
20	26	2
9	9	5
236	244	2
241	242	9
167	183	2
152	241	4
52	53	10
35	37	1
213	214	3
87	88	9
47	47	7
183	183	13
48	49	1
236	236	13
225	226	9
38	39	6
19	19	14
56	206	3
94	94	9
153	157	3
210	213	6
22	23	4
159	160	4
242	242	8
7	7	7
221	223	3
146	147	5
23	23	12
42	42	11
209	209	7
115	115	12
41	41	14
52	52	10
205	205	10
82	82	8
201	235	5
217	247	2
200	200	19
219	227	2
90	90	5
112	112	21
33	37	4
113	114	5
112	120	5
167	214	1
68	94	2
52	68	1
114	115	11
150	158	1
57	94	2
0	0	2
175	182	1
21	21	12
192	215	1
96	97	3
185	193	3
152	157	3
181	181	20
39	39	9
84	105	2
108	108	13
186	186	14
225	225	8
2	42	3
2	3	4
234	237	1
68	68	9
206	206	4
192	192	20
212	212	18
113	113	4
57	57	1
244	244	13
86	86	4
203	204	4
218	239	6
56	193	1
147	147	7
191	192	1
196	196	11
227	228	7
58	58	5
20	61	5
188	188	9
40	40	16
145	145	4
63	63	9
48	48	9
214	214	6
41	42	4
56	56	14
180	180	9
215	215	2
244	247	2
41	54	1
199	199	4
229	234	2
113	115	5
217	218	5
202	202	9
73	73	6
224	226	1
165	169	5
99	99	7
155	156	4
201	205	2
248	248	3
169	170	5
197	198	9
49	49	6
213	213	17
221	222	1
68	76	4
221	221	9
212	223	5
119	157	4
173	173	8
33	35	3
245	245	3
108	116	2
16	16	12
55	56	5
198	227	3
236	237	3
190	190	3
92	92	9
36	36	10
224	224	11
79	79	9
231	232	2
63	188	6
170	173	4
26	26	6
1	3	2
35	35	15
184	185	5
43	43	7
211	212	4
217	217	7
181	184	3
30	30	6
164	211	1
10	23	2
243	245	2
184	184	11
243	244	4
110	110	14
118	119	7
238	238	5
242	243	2
117	118	4
66	67	8
54	54	3
236	249	1
33	33	10
232	233	5
2	2	1
229	229	13
4	4	2
47	49	3
200	201	3
19	50	1
228	228	2
58	94	2
190	191	7
57	61	3
93	94	5
212	214	3
187	189	5
193	193	17
146	146	2
235	236	6
226	227	3
97	98	3
44	44	5
197	208	2
31	31	6
83	83	10
219	241	3
151	151	14
17	17	7
202	203	6
160	161	1
179	179	9
116	119	2
165	165	11
46	46	4
177	178	2
117	117	4
34	58	1
193	197	4
10	10	5
6	6	5
153	155	4
219	220	4
82	83	7
114	153	1
23	24	2
81	82	2
40	46	2
160	160	8
69	70	1
107	114	3
163	163	7
53	54	3
17	47	4
222	223	8
9	10	3
38	87	5
151	241	5
179	180	2
57	196	4
34	35	11
67	186	1
233	233	5
62	212	4
20	205	1
158	160	3
227	227	6
94	95	4
100	100	4
78	86	1
44	64	1
95	96	4
12	63	4
181	182	4
176	197	2
73	74	2
12	12	6
173	197	2
53	53	5
154	156	4
66	66	10
194	196	4
85	95	2
20	21	7
239	240	3
114	114	11
97	160	1
234	235	1
8	10	5
98	100	1
150	244	2
92	95	1
190	225	2
171	171	6
31	48	1
192	194	2
32	35	8
61	90	3
177	180	1
5	22	2
3	3	4
91	91	8
62	63	4
54	224	2
234	248	1
32	32	2
169	178	1
88	88	8
188	190	2
211	215	6
14	14	11
91	92	5
229	230	1
177	181	3
170	170	7
77	91	3
178	179	6
1	27	4
20	42	2
25	26	4
15	15	7
47	53	1
202	233	2
28	29	7
178	180	4
56	205	3
104	104	4
174	215	2
145	147	1
230	234	3
237	238	3
176	177	2
86	87	4
41	46	4
88	89	7
180	186	1
209	210	5
219	240	1
238	240	5
176	176	4
22	22	5
186	188	5
22	59	2
206	207	4
247	248	3
56	201	1
71	71	12
12	18	3
45	45	10
103	103	2
19	62	1
19	21	1
28	45	1
166	199	5
174	177	3
95	95	7
18	47	3
176	181	2
68	70	3
240	244	2
110	236	1
110	111	3
168	169	7
30	31	4
97	97	5
81	81	7
200	223	1
162	190	1
120	145	2
185	186	3
69	69	3
168	175	2
237	245	3
121	121	2
237	244	5
17	31	2
6	11	1
183	184	3
76	77	4
46	185	3
193	196	2
174	174	4
176	180	1
156	203	1
214	215	5
191	225	2
175	183	1
9	186	2
55	57	6
26	83	3
153	154	4
158	158	2
213	237	2
24	24	3
68	69	1
98	99	5
17	18	7
160	183	1
170	174	4
13	13	3
199	208	1
161	212	1
79	90	3
157	205	2
197	214	2
146	170	4
87	87	7
187	188	3
39	40	3
169	172	1
65	66	2
104	107	3
231	231	4
218	221	1
60	61	2
149	149	2
172	173	3
24	25	3
108	240	1
210	211	7
156	183	2
189	191	1
231	234	1
200	202	3
188	189	2
234	236	2
201	202	3
43	110	5
28	39	2
177	179	1
64	67	1
95	227	1
211	213	1
226	230	1
14	15	3
112	245	1
60	89	1
45	56	5
21	53	1
29	29	5
198	224	2
13	14	1
146	150	1
5	21	5
10	55	2
236	240	1
188	217	1
80	89	3
157	158	2
163	189	4
5	7	1
233	235	1
74	74	6
212	213	4
193	194	5
105	107	1
32	41	2
189	190	5
223	225	1
89	91	4
63	183	1
89	96	2
230	231	2
18	65	1
153	160	2
57	58	2
29	30	3
212	220	2
160	205	1
106	115	1
189	194	4
5	27	1
21	25	1
164	169	3
18	20	1
19	110	1
237	239	1
12	13	1
182	183	3
163	164	1
3	4	2
167	168	2
200	220	1
22	24	3
187	192	1
109	119	1
191	216	2
31	36	1
105	105	1
226	228	1
180	235	3
1	2	3
216	218	3
19	20	1
150	151	4
168	168	5
151	152	1
102	106	1
223	224	3
23	111	1
29	40	2
233	234	2
56	161	2
152	153	1
246	246	4
168	183	3
176	178	1
92	93	3
153	203	1
157	171	1
46	47	1
218	218	3
3	41	2
150	156	1
172	174	2
39	53	3
11	12	3
169	173	4
165	191	1
190	195	1
236	239	1
188	216	2
115	119	4
169	180	1
59	213	3
98	98	5
174	179	2
162	167	1
5	6	1
67	68	2
157	204	1
158	198	5
90	192	1
8	9	2
92	94	4
33	39	2
105	106	2
217	245	3
156	161	1
191	191	1
186	187	1
156	200	1
204	205	4
25	25	2
99	106	2
68	73	1
38	48	2
70	88	1
94	160	1
109	151	1
28	37	1
111	244	1
45	46	1
216	246	1
84	85	1
7	22	1
102	102	2
116	117	1
168	181	1
44	45	2
226	240	2
83	85	2
210	215	1
19	47	1
184	227	2
236	238	1
208	210	1
36	37	1
168	172	1
6	49	1
57	65	1
164	165	2
184	219	1
71	72	3
206	228	1
16	17	1
10	16	2
6	7	1
244	245	1
144	145	1
239	242	1
43	111	1
22	63	1
64	66	2
194	208	2
94	96	1
202	207	1
216	249	2
237	248	1
58	62	1
200	230	1
191	194	1
57	66	1
105	115	1
66	185	2
208	209	1
184	201	1
10	226	1
35	59	1
106	219	1
63	65	2
183	186	1
214	237	1
185	208	1
56	189	1
61	188	1
111	112	1
191	193	1
58	59	1
221	224	1
169	175	1
41	89	1
192	193	1
233	236	1
239	241	1
