68	69	4
97	97	22
156	157	3
39	43	2
51	52	11
47	47	6
135	136	7
17	17	23
142	147	3
71	131	1
98	98	30
128	128	22
106	106	21
89	96	3
46	46	20
107	107	25
112	112	19
87	88	10
19	20	6
26	32	7
109	110	5
106	124	1
142	142	8
149	149	11
19	19	6
41	41	37
115	144	3
75	75	11
61	69	5
75	132	5
116	116	20
70	70	19
124	124	17
151	151	13
38	38	22
104	105	12
63	64	5
92	92	6
12	12	12
36	37	11
108	110	7
32	33	8
136	136	16
90	90	18
155	157	1
152	152	8
84	84	7
48	48	12
96	106	5
137	138	7
129	129	10
123	123	9
109	113	2
8	11	3
144	144	19
103	103	30
120	120	16
136	145	2
69	69	21
111	111	22
131	131	32
54	54	14
10	38	7
126	126	13
113	114	6
12	13	10
111	143	3
77	132	6
93	127	2
122	122	17
67	67	14
18	83	2
119	120	8
159	159	5
132	136	3
118	118	23
134	134	36
135	135	10
24	24	17
18	19	13
17	19	5
140	140	23
128	129	11
131	132	2
142	143	19
22	22	6
96	97	5
94	112	2
121	121	28
81	81	20
100	100	22
114	114	18
127	127	19
45	45	14
67	68	13
103	136	2
44	45	5
25	25	17
35	35	5
6	6	17
88	88	15
26	26	22
93	135	5
81	82	9
86	87	14
109	109	5
152	154	4
11	11	17
138	138	28
62	62	7
101	102	1
89	89	11
79	79	15
30	30	18
87	87	21
24	26	6
115	115	12
62	134	3
102	102	11
92	104	3
35	53	2
109	112	3
31	31	21
94	94	21
55	55	20
44	44	12
50	50	8
106	107	8
51	71	1
99	99	27
150	150	16
95	95	13
22	39	5
28	29	4
8	8	22
9	9	4
145	146	5
108	111	6
132	134	2
41	42	15
90	91	10
91	91	11
52	52	13
38	48	4
0	1	6
150	158	3
108	108	9
148	148	14
122	123	9
137	142	3
107	108	9
3	3	18
61	61	5
113	115	8
127	128	2
108	109	17
53	53	14
51	51	12
66	66	16
103	104	6
118	150	1
80	80	12
38	39	11
120	121	5
40	41	8
118	119	8
36	36	12
151	154	6
83	83	6
154	155	12
85	85	10
101	101	23
25	26	9
37	37	30
119	119	10
22	44	2
139	139	15
63	66	1
88	89	9
51	68	2
134	135	18
86	86	17
141	141	11
97	108	3
90	104	3
75	94	2
47	52	3
145	145	17
76	76	5
133	134	7
125	130	4
43	43	27
1	4	3
21	38	3
127	129	1
156	156	14
122	147	6
73	73	14
113	145	1
141	143	4
93	93	18
13	14	6
90	93	6
17	18	7
110	111	17
77	77	15
69	70	1
68	68	11
99	100	6
120	151	4
78	80	4
12	17	1
157	159	1
2	3	7
155	158	6
138	139	7
76	77	3
16	16	18
116	117	14
134	137	2
5	5	13
7	7	22
7	10	4
15	16	3
137	137	11
95	141	5
2	2	18
108	113	4
155	155	12
96	96	13
8	82	3
46	48	3
64	64	10
21	21	20
144	153	2
10	10	16
105	105	15
143	143	7
37	38	7
147	153	1
82	82	6
130	130	14
108	112	2
97	110	1
99	101	2
49	51	4
158	159	6
154	154	9
10	11	10
7	8	7
4	5	8
50	51	8
93	94	5
16	17	4
20	20	6
21	22	5
51	53	3
20	21	4
139	140	7
92	106	5
33	34	2
82	136	1
146	146	11
52	53	4
133	133	10
150	151	2
100	101	6
141	142	2
105	107	3
53	54	6
42	42	5
84	85	6
89	91	6
40	40	8
80	81	5
80	83	2
22	23	5
24	25	3
158	158	7
125	126	10
78	78	11
125	125	10
11	15	4
144	145	9
0	5	3
57	57	6
55	56	5
84	114	3
131	133	6
29	30	4
117	117	12
27	27	22
102	103	7
115	118	2
65	65	12
34	34	15
7	22	2
157	157	10
4	4	7
1	1	18
122	125	1
34	36	4
34	35	5
133	136	2
97	98	2
33	33	4
124	126	7
83	85	3
13	13	14
104	104	6
47	156	2
19	159	1
88	92	3
14	15	5
1	3	1
98	107	1
109	147	7
151	155	2
28	28	17
41	43	3
65	103	3
144	147	5
131	138	1
26	28	7
50	53	2
86	145	2
124	125	4
63	63	7
20	39	11
94	107	5
132	133	3
23	24	3
81	83	2
9	17	1
92	94	3
96	123	2
121	122	3
90	92	1
32	32	6
5	7	1
9	10	3
48	156	1
123	146	1
113	113	6
9	11	3
39	39	7
85	158	2
105	106	4
129	130	3
35	36	2
19	79	2
139	141	4
22	113	1
123	125	1
26	78	1
118	144	2
14	14	19
82	135	4
74	74	3
107	138	6
50	72	2
6	35	5
56	56	11
123	124	3
26	27	6
0	0	13
20	22	3
91	126	1
81	84	2
42	43	6
110	138	2
8	10	7
120	127	1
29	29	5
112	113	2
105	138	2
26	39	3
91	92	4
10	36	1
45	47	1
50	68	4
1	2	3
83	84	2
45	46	7
154	156	1
15	19	5
94	123	3
153	153	2
87	89	3
2	4	8
24	78	1
148	149	6
88	90	3
21	44	1
147	148	9
75	139	5
18	18	8
105	123	1
47	48	1
51	54	2
42	48	1
113	117	1
3	4	3
70	71	2
92	125	1
86	88	2
64	67	1
23	23	6
7	26	1
116	118	2
84	131	2
71	71	6
132	141	2
147	147	9
16	18	1
3	24	4
112	130	3
93	107	3
143	152	1
155	156	14
81	134	1
40	42	1
133	135	2
34	54	1
65	98	2
8	17	1
7	77	3
109	111	3
126	137	1
67	71	2
31	32	2
48	147	5
84	157	3
93	130	2
89	105	2
119	121	3
69	71	1
33	53	1
33	43	1
118	153	3
78	79	8
117	145	1
32	35	4
136	137	8
92	123	1
132	132	5
107	125	3
8	38	2
49	52	6
154	157	2
97	106	4
82	83	2
3	11	1
24	79	2
21	46	3
109	146	1
50	52	3
5	6	2
5	10	1
16	19	1
98	99	2
1	5	1
50	56	2
151	152	1
143	147	1
126	127	4
95	123	2
23	155	1
49	49	6
115	117	1
10	12	1
48	49	3
72	73	2
118	122	5
86	90	1
50	63	1
41	45	3
30	33	1
71	72	3
51	148	1
95	97	1
113	132	1
0	22	1
82	116	1
83	136	1
66	103	3
15	15	4
10	37	3
55	65	1
85	86	2
81	135	3
94	95	1
89	90	2
10	43	1
112	123	2
56	64	1
79	80	2
153	158	1
117	119	1
49	61	1
93	105	1
40	45	1
118	145	1
25	78	1
96	124	1
75	76	3
93	124	1
45	54	1
55	64	2
113	120	4
95	96	2
7	43	2
98	140	1
62	68	1
114	115	2
143	148	2
110	110	1
14	16	1
145	147	2
121	148	1
11	12	2
21	23	3
102	104	1
8	9	4
93	95	1
114	145	2
12	16	1
46	51	1
111	129	1
120	143	2
84	87	1
57	62	2
76	78	1
55	144	1
35	37	1
78	132	1
143	144	1
49	68	1
90	106	2
6	7	1
123	126	1
21	81	1
65	66	1
111	123	1
25	31	1
111	112	2
18	22	1
84	86	1
66	143	1
151	153	1
30	31	1
36	38	1
119	151	1
149	156	1
143	149	1
144	146	1
87	135	1
117	148	1
