66	66	4
78	95	1
107	173	1
171	171	3
45	45	3
75	95	2
198	199	2
34	34	3
215	215	10
31	62	1
129	129	8
206	206	2
7	60	4
26	26	4
14	16	3
48	68	5
145	147	4
199	200	3
208	218	5
131	131	2
151	151	3
39	39	1
141	142	2
223	223	4
190	190	3
71	71	8
238	238	10
228	229	4
115	117	3
169	206	2
183	236	1
188	188	6
224	224	5
188	189	4
6	16	2
173	174	3
41	49	4
194	194	3
27	27	10
103	117	1
66	67	3
7	34	1
11	20	2
61	62	2
189	205	6
60	60	8
184	184	3
83	83	9
57	57	3
198	198	3
5	16	5
41	42	3
114	115	3
118	118	3
222	223	4
52	53	9
225	226	1
40	41	3
168	205	1
174	174	2
226	227	4
199	222	1
150	151	3
137	137	2
99	177	3
186	200	3
201	202	6
47	47	10
52	52	8
21	24	5
135	135	9
152	152	4
202	202	8
31	31	5
192	192	4
159	159	1
9	53	6
106	106	5
100	101	6
191	224	10
58	60	4
23	31	4
11	11	6
231	231	8
10	78	3
102	172	3
7	22	3
165	166	2
224	225	3
221	222	3
227	227	6
7	59	3
217	218	4
117	210	3
222	222	7
116	116	3
63	63	9
113	113	3
49	53	2
74	74	6
86	86	6
175	175	2
84	84	6
120	198	4
51	53	1
58	58	4
220	226	3
196	196	7
229	229	4
20	20	3
7	7	5
125	126	1
189	189	5
57	83	5
185	185	4
107	123	2
68	68	1
221	221	11
153	153	12
66	79	3
21	23	5
81	81	5
18	18	3
78	80	1
13	14	2
115	137	4
30	30	4
108	116	1
11	17	2
176	176	1
5	21	2
149	149	6
215	216	1
65	66	1
38	51	2
225	225	2
162	162	1
208	208	5
85	136	2
223	224	5
80	133	1
72	72	9
22	36	2
161	161	5
163	166	4
173	173	3
26	27	3
232	232	9
193	194	3
15	42	3
19	19	7
98	173	1
19	30	1
213	213	5
76	76	1
43	44	1
12	17	2
77	78	2
192	195	4
75	75	3
53	134	4
167	168	3
25	25	2
100	100	10
212	213	3
41	51	1
21	21	4
16	21	3
201	201	4
114	118	7
50	50	3
205	206	3
62	62	5
158	158	2
81	82	2
49	49	3
101	101	7
140	141	1
61	61	3
216	216	2
234	234	2
38	38	10
12	12	4
164	165	6
73	73	12
198	212	2
177	177	10
42	47	2
35	36	1
75	84	3
197	197	5
15	16	1
213	215	1
128	128	6
116	124	1
28	28	4
34	59	1
36	75	2
44	45	5
128	138	1
34	60	2
156	169	3
72	101	4
174	185	4
67	68	4
128	129	1
148	148	6
78	81	1
80	80	3
197	225	4
116	123	2
36	36	4
211	211	1
48	100	2
14	15	4
103	103	2
76	85	1
14	14	1
29	29	5
20	21	6
62	66	1
186	186	2
233	233	3
48	54	1
6	6	4
18	35	3
8	10	4
198	220	2
106	107	3
219	219	2
4	57	4
34	35	1
71	73	1
122	122	2
168	211	2
33	33	2
64	71	1
214	214	1
181	181	1
137	139	2
104	115	3
62	63	4
9	9	2
223	225	5
168	207	1
19	20	2
23	23	2
62	176	3
78	86	2
136	136	3
22	22	2
168	198	2
9	58	1
148	149	4
233	240	1
1	32	3
236	236	5
141	141	2
179	188	1
139	139	4
137	141	3
124	125	1
55	55	2
46	97	5
73	74	3
145	201	3
203	203	5
73	154	3
85	86	2
218	239	1
112	126	1
167	167	3
190	231	1
40	49	2
79	79	5
134	134	2
235	235	2
2	3	4
129	130	3
197	198	1
70	99	1
213	229	3
176	181	2
152	203	4
56	56	1
66	72	1
110	115	4
199	199	1
200	211	2
60	62	1
138	139	3
4	66	1
179	180	2
24	155	2
113	127	1
228	228	3
165	216	1
140	142	4
40	90	2
8	9	1
197	222	3
24	24	3
1	24	1
85	89	2
10	38	1
13	13	3
105	105	4
154	154	5
163	163	3
152	154	1
219	239	3
170	173	1
54	56	1
59	59	2
8	67	2
17	58	3
117	143	2
13	34	3
99	100	1
9	23	1
176	178	1
16	99	1
180	181	1
75	133	1
214	215	2
145	145	4
28	101	2
64	179	1
232	239	1
8	19	1
241	242	1
115	115	2
95	95	2
144	145	1
48	75	1
42	86	2
122	123	3
181	183	1
179	179	3
144	144	1
155	155	1
82	105	2
150	150	1
212	212	3
25	42	1
167	177	2
171	178	2
1	3	1
114	114	2
153	176	1
171	207	1
25	74	1
125	130	2
16	16	2
237	237	3
53	53	1
180	180	2
157	157	1
70	70	2
121	121	1
72	73	5
81	83	5
10	10	2
165	165	1
111	111	1
62	87	1
188	205	2
218	218	4
53	57	2
110	123	2
70	101	3
209	209	2
83	194	1
97	97	1
37	101	2
21	22	4
163	207	1
121	150	1
187	187	1
14	17	2
211	241	1
9	55	1
76	77	1
213	214	1
153	164	2
24	85	2
96	96	1
240	240	3
40	40	4
146	236	1
43	43	1
49	50	1
119	119	2
82	127	1
31	32	1
12	21	1
9	20	2
84	135	2
138	159	1
40	42	1
133	134	1
37	43	2
210	213	1
0	7	1
115	116	2
223	228	1
61	65	1
110	154	1
169	204	3
232	233	1
64	153	1
226	226	1
16	98	1
82	157	2
156	171	1
183	238	1
160	161	1
107	108	1
106	176	1
79	80	2
109	133	1
1	1	1
102	103	1
27	34	1
21	56	1
198	204	1
156	157	1
129	132	1
65	107	1
116	158	1
116	159	1
184	198	1
24	28	1
29	32	1
5	17	1
183	234	1
0	44	1
142	142	1
