96	96	9
102	102	11
94	126	4
52	52	4
114	114	6
27	30	1
67	67	8
12	13	8
123	124	3
25	25	3
6	6	6
140	140	15
40	40	11
3	35	3
42	42	20
135	135	17
49	49	7
69	72	2
90	90	9
85	89	2
33	35	5
65	65	4
85	86	8
47	71	1
95	103	2
143	144	3
88	89	4
3	3	6
39	39	7
63	72	1
27	27	6
108	115	4
23	23	9
60	60	15
41	41	8
136	139	2
93	94	9
116	117	4
58	69	1
142	142	11
72	73	5
47	47	16
39	50	1
119	120	7
85	112	1
109	109	5
115	115	9
32	36	4
63	64	9
79	130	2
30	30	12
133	138	1
114	116	4
55	56	8
94	94	9
113	114	10
107	107	13
118	118	8
116	140	2
98	115	1
43	43	2
34	35	5
69	69	7
26	26	10
61	127	3
137	137	11
34	34	6
132	136	6
139	139	12
105	105	7
92	92	12
120	144	2
98	98	10
84	96	1
61	64	3
51	52	7
105	106	7
72	74	2
13	21	1
21	21	6
48	48	3
76	76	7
101	102	7
29	29	6
107	108	6
123	126	2
124	124	18
133	134	3
126	126	14
111	111	13
78	79	7
10	21	1
5	31	4
18	18	9
20	35	4
64	64	6
110	113	1
32	32	12
40	41	7
64	70	1
54	55	1
136	138	8
55	55	12
139	140	10
59	59	10
129	129	6
99	99	10
9	10	1
18	19	6
108	109	1
39	55	6
71	71	13
68	100	2
17	17	6
23	24	9
100	100	14
70	71	3
16	16	1
57	57	8
145	145	8
85	111	10
82	84	1
132	132	9
91	91	12
4	4	4
67	125	4
13	25	3
1	1	4
54	54	5
132	135	2
122	122	2
82	83	4
138	138	6
73	75	3
99	123	2
39	41	3
84	105	1
128	128	21
49	55	1
138	139	11
19	19	10
15	15	6
90	110	2
87	120	3
88	112	2
99	121	1
96	98	3
67	89	3
86	97	5
108	108	9
111	139	4
74	74	16
87	98	2
125	125	11
56	56	9
123	123	17
98	118	3
133	144	3
37	37	4
89	89	9
16	18	6
10	27	1
130	130	7
53	143	2
60	140	4
14	14	5
117	117	11
31	31	3
85	87	1
9	50	2
12	116	2
104	104	4
128	129	5
77	129	4
120	120	6
84	108	4
108	112	4
110	115	5
101	101	5
12	16	3
122	123	9
79	79	3
50	52	8
117	138	5
87	108	3
82	82	10
62	63	4
5	33	1
0	1	2
60	66	1
59	125	2
28	29	4
118	139	2
97	97	10
72	75	3
121	121	12
109	110	3
75	75	11
122	142	5
39	51	3
138	143	1
52	53	2
23	26	2
123	131	1
24	25	2
1	20	3
110	110	6
9	9	14
88	88	12
124	125	10
13	13	7
101	103	1
82	128	1
70	70	6
127	127	9
114	121	2
22	22	5
99	124	2
2	36	1
133	136	3
108	111	2
103	103	6
95	95	6
112	141	1
106	106	7
47	65	2
69	97	1
73	73	9
79	132	4
95	111	2
118	119	10
83	84	3
84	132	1
37	53	1
134	134	4
121	122	3
146	146	3
121	135	4
132	133	4
144	144	4
63	117	2
93	110	2
90	120	2
92	108	2
81	81	5
65	92	3
77	77	5
119	119	11
62	85	2
63	63	5
113	113	9
20	38	1
17	18	1
21	47	1
81	98	4
50	62	1
117	136	2
93	93	16
8	9	4
35	35	6
61	87	1
68	68	8
85	85	3
54	119	2
59	60	4
101	145	2
93	105	2
51	51	1
85	88	2
20	28	1
65	98	1
15	26	2
113	115	2
87	88	3
38	38	10
58	58	8
18	27	3
67	69	1
125	127	3
43	47	4
81	93	4
8	10	5
36	36	1
97	98	3
79	137	4
95	110	6
49	52	3
118	140	2
57	125	2
32	33	3
94	103	2
128	130	1
50	50	3
116	116	13
20	21	4
89	90	2
75	77	7
141	141	12
53	54	6
53	55	2
82	89	1
116	138	3
61	61	4
4	5	2
135	143	3
104	105	8
131	131	5
49	62	1
133	133	2
127	130	4
62	62	4
24	24	8
96	97	4
32	35	3
65	116	1
103	130	4
59	62	1
99	114	2
16	17	2
29	30	4
113	136	4
20	20	5
39	40	2
16	38	1
92	127	4
62	92	2
128	132	3
73	74	2
61	119	1
74	75	2
107	120	2
136	136	4
83	83	6
1	36	4
111	112	3
65	69	2
137	142	4
52	56	3
57	119	2
28	28	2
133	140	1
80	80	3
135	138	2
131	132	2
108	141	1
36	40	3
137	139	4
70	75	1
35	36	2
90	107	2
58	122	1
98	117	3
78	78	5
136	137	5
31	60	2
9	11	1
135	136	2
116	118	3
8	21	4
8	19	3
41	42	3
115	119	2
81	119	1
3	34	5
118	120	2
134	141	2
14	15	3
5	5	2
110	112	2
133	137	1
89	108	1
86	87	1
21	22	1
112	112	6
52	58	3
31	34	1
98	99	2
130	132	3
65	111	1
53	53	5
127	129	1
132	139	1
58	143	2
2	33	1
92	105	2
133	139	4
134	135	2
57	142	2
132	134	2
2	12	2
80	131	3
86	118	1
81	124	1
72	72	1
38	42	1
82	129	1
94	127	2
65	109	2
56	132	2
106	107	4
58	59	2
3	4	1
57	58	1
50	58	5
66	66	2
13	15	2
10	39	2
50	63	1
12	12	2
3	12	1
125	131	1
107	112	2
10	11	1
92	104	3
129	130	4
68	88	2
87	109	1
6	23	2
84	133	3
66	67	2
87	121	2
102	130	3
68	70	2
120	121	2
67	71	1
6	30	1
137	138	2
140	141	1
2	6	3
86	119	1
1	21	2
143	143	4
127	134	2
60	120	1
98	124	5
103	107	2
99	100	2
98	126	5
114	120	3
103	106	2
92	115	1
20	41	2
56	57	1
81	82	1
43	105	2
118	136	1
41	49	2
48	49	1
138	140	1
42	48	3
102	117	1
8	8	7
53	113	1
84	122	1
3	31	2
127	135	2
20	25	2
50	51	2
47	48	1
28	30	2
121	132	2
8	49	3
88	96	2
76	78	3
86	86	1
121	125	1
19	54	1
34	39	3
60	61	3
70	72	1
61	117	2
10	10	3
93	102	1
33	33	1
47	56	2
133	143	1
80	82	1
78	131	2
26	28	1
2	35	1
80	119	1
72	82	1
94	110	4
92	106	1
8	29	2
127	128	1
123	137	2
97	104	3
102	127	1
111	128	1
53	58	1
64	67	1
120	123	2
11	11	3
134	138	1
102	128	1
29	73	1
82	107	3
118	127	2
81	94	2
110	126	1
131	139	1
70	73	2
75	78	3
3	33	2
141	142	4
142	143	1
114	137	4
94	114	1
59	120	1
108	110	1
103	104	1
97	118	1
27	40	1
14	16	1
9	20	1
95	98	2
94	120	1
54	68	1
136	140	1
0	0	1
84	87	1
82	130	1
55	141	1
3	43	1
95	131	1
80	140	1
99	101	1
98	105	1
102	103	1
3	26	1
59	121	1
96	107	2
20	24	1
31	32	1
71	72	1
68	73	1
91	105	1
0	35	1
12	24	1
67	68	1
2	3	1
68	69	1
25	26	1
54	142	1
36	38	1
105	139	1
17	21	3
1	39	1
57	114	1
43	73	1
91	92	1
77	128	1
5	37	1
89	132	1
22	23	1
91	93	1
135	140	1
71	125	1
83	89	1
66	68	1
