29	30	6
49	49	6
5	5	8
44	70	3
95	95	5
10	10	13
74	80	1
3	3	8
69	70	1
45	46	2
119	119	2
41	41	3
22	65	1
54	81	5
57	57	7
65	65	3
53	53	17
68	68	7
44	68	6
52	68	3
8	59	1
87	87	6
97	98	4
56	71	3
28	28	9
111	112	5
7	7	8
115	115	8
116	116	8
83	90	3
59	59	7
51	51	6
99	99	4
117	117	11
12	12	10
126	127	7
64	64	4
11	12	3
39	39	8
14	15	2
0	1	10
101	101	5
132	132	4
109	110	5
112	112	4
14	14	9
71	71	10
9	9	11
83	91	2
44	47	2
58	89	3
4	4	6
34	34	6
33	116	2
93	95	2
115	119	3
23	23	8
93	93	4
129	132	7
30	31	2
131	131	11
44	44	10
75	81	4
52	52	17
96	96	9
94	94	14
0	0	1
26	30	1
118	120	11
18	18	5
24	24	11
11	59	3
56	56	17
11	11	2
23	81	2
100	117	4
127	131	6
15	15	6
89	89	10
78	91	3
20	20	1
3	14	1
99	116	3
12	13	7
25	26	4
2	65	2
93	94	5
19	19	7
84	85	2
60	62	5
126	126	5
81	91	2
25	25	4
31	31	3
68	81	1
83	84	10
33	109	1
54	54	7
107	107	15
49	125	3
39	41	4
1	107	3
124	125	2
109	111	6
130	130	3
48	48	5
129	129	3
127	127	7
22	23	2
80	81	2
98	131	4
16	16	6
52	79	1
92	93	1
56	57	1
62	63	2
4	16	1
133	133	7
92	92	8
130	132	1
47	76	1
13	13	5
66	66	6
33	115	2
105	105	10
0	45	1
41	47	2
102	103	1
3	4	1
10	23	3
59	92	1
5	33	5
31	32	5
66	67	2
108	108	5
7	67	1
21	28	1
24	72	1
75	75	2
27	27	6
13	20	2
113	132	2
63	63	3
38	41	3
67	68	2
91	97	3
118	118	6
27	29	1
51	52	7
78	79	1
62	62	4
78	78	7
1	1	12
29	29	4
82	85	5
5	22	1
79	80	2
46	46	6
113	113	5
61	61	3
33	33	13
103	125	1
46	47	7
109	109	6
89	133	1
50	50	11
124	124	2
127	128	3
32	32	5
47	48	1
56	76	1
2	2	2
79	79	5
38	38	1
22	25	3
75	77	3
132	133	2
22	24	3
110	110	11
106	106	7
5	62	2
61	62	1
18	19	3
18	25	4
128	128	2
99	117	5
17	17	4
42	42	5
39	74	1
52	60	1
129	131	2
34	39	2
16	17	3
114	116	1
60	60	5
3	5	2
6	7	2
32	33	1
100	100	3
74	74	3
67	80	2
20	31	1
43	43	4
51	53	2
19	21	2
31	114	1
125	125	3
21	22	1
49	51	2
40	40	8
76	76	3
47	47	4
72	73	3
84	86	2
98	119	5
19	33	1
49	57	1
45	64	2
60	61	1
84	84	8
2	6	4
112	113	1
65	66	2
45	45	3
72	72	8
94	130	2
7	66	1
111	111	6
68	69	1
26	26	4
90	90	2
120	120	6
47	112	3
104	116	1
16	40	2
51	55	3
124	131	4
7	124	1
106	116	4
91	92	3
67	67	4
120	121	2
104	108	2
103	103	5
0	92	4
124	129	1
129	130	1
99	120	1
97	97	3
63	97	2
6	6	5
17	18	3
101	124	1
122	130	1
95	128	1
73	73	3
69	69	1
108	113	3
41	42	3
76	77	2
90	100	1
82	83	2
61	101	2
63	118	3
111	130	1
100	106	4
120	130	2
57	123	1
52	53	3
115	117	1
113	131	1
42	43	1
8	9	3
99	129	1
46	80	3
9	70	1
112	131	1
13	14	3
61	117	1
59	108	1
98	118	3
40	41	4
110	111	1
113	114	5
88	88	2
121	121	4
18	20	1
50	67	2
51	67	1
65	95	3
0	94	1
50	51	1
82	88	1
45	96	1
103	107	1
80	80	1
108	109	1
86	86	1
39	40	5
44	45	2
81	81	2
85	85	4
1	65	2
22	31	1
18	23	2
107	113	2
55	95	2
84	88	1
74	78	2
83	83	6
37	73	1
53	54	2
87	110	1
81	82	1
126	129	1
123	123	3
61	107	1
64	65	2
8	64	2
118	123	2
107	108	1
40	80	1
42	45	2
117	121	2
50	57	2
2	59	3
98	98	2
22	22	1
51	110	2
70	70	2
97	119	1
131	132	3
64	66	1
55	55	1
12	23	2
66	96	1
28	29	2
61	92	1
8	15	2
79	91	3
75	76	3
109	131	1
118	130	1
106	107	1
9	63	2
15	17	1
58	133	1
19	24	1
77	77	1
114	114	2
5	18	2
5	31	1
60	91	1
30	30	1
73	78	1
104	104	1
107	115	1
107	116	1
128	129	1
58	60	2
14	21	1
91	133	1
115	116	1
101	117	1
16	74	1
64	118	1
29	98	1
107	112	1
70	71	1
9	22	1
20	64	1
83	133	1
55	58	1
121	122	2
82	82	3
108	111	1
62	71	1
64	113	1
2	23	1
18	22	1
2	3	1
62	101	1
8	65	1
96	98	1
21	21	1
62	98	1
110	127	1
