14	14	5
117	117	12
129	131	1
103	103	8
128	128	14
114	118	2
127	127	5
38	38	10
78	78	8
68	69	1
41	43	2
96	96	8
133	133	2
63	64	12
92	92	21
22	22	12
78	79	2
2	2	8
41	41	9
12	12	6
40	43	9
79	79	9
97	97	5
100	101	5
125	125	9
50	69	3
49	49	19
109	110	2
93	93	6
72	72	8
73	74	6
90	90	9
23	23	8
76	76	15
89	95	1
10	10	5
63	88	2
88	88	6
69	69	3
76	84	2
42	42	8
115	115	12
108	108	6
88	118	2
123	123	12
101	103	1
67	78	5
68	78	2
15	15	15
131	131	5
80	80	5
48	48	6
50	51	4
86	88	1
51	51	17
105	106	4
95	95	2
97	119	2
89	90	6
99	99	18
7	15	3
97	100	3
121	121	2
88	89	6
7	7	5
29	29	5
67	67	15
98	98	6
24	33	2
21	26	2
41	42	5
111	111	10
84	85	5
40	40	13
105	105	5
102	102	7
46	46	7
86	86	7
39	39	17
33	33	6
127	128	1
28	28	5
68	83	1
70	70	5
101	101	3
21	21	8
4	20	2
87	87	12
87	97	3
62	63	4
106	106	6
3	3	4
82	83	7
114	114	9
129	129	18
50	50	11
81	81	3
6	8	3
81	88	3
119	119	5
47	47	9
20	20	8
53	53	6
13	14	1
24	24	8
59	60	1
99	102	2
39	56	1
48	49	2
21	25	2
1	1	10
32	33	5
91	91	2
116	117	5
32	32	6
55	55	1
0	55	4
6	6	6
125	127	2
25	25	4
13	13	16
65	65	2
27	32	4
103	104	6
77	77	6
122	122	7
97	98	9
54	54	14
112	112	15
1	39	1
18	18	6
83	83	6
124	128	1
10	12	3
0	1	5
11	12	4
63	75	3
82	82	6
23	24	4
66	66	3
15	39	2
58	58	2
62	62	12
97	99	2
101	102	5
32	34	4
104	104	3
114	116	2
19	19	5
85	86	4
76	77	3
58	59	7
97	127	5
27	27	6
94	94	7
125	130	5
31	31	6
124	124	10
107	108	4
43	43	7
50	76	3
17	17	8
44	44	12
39	44	4
2	4	2
85	87	1
52	52	10
42	77	1
10	11	4
16	21	3
5	5	6
59	59	8
100	100	7
25	26	2
121	122	1
2	27	3
45	45	4
16	16	2
126	127	2
110	110	3
114	117	1
0	0	5
62	72	3
20	40	2
89	92	1
18	22	1
22	23	2
87	88	1
61	61	3
60	61	2
79	80	3
0	2	1
12	14	1
40	41	3
27	31	1
19	22	2
95	131	3
33	34	2
41	46	3
42	43	2
126	126	5
57	58	2
60	75	2
101	104	1
45	46	7
21	44	1
61	62	3
101	107	1
59	78	2
102	103	4
86	89	5
46	47	4
128	129	1
92	98	4
89	89	7
120	120	5
30	30	3
24	40	2
58	72	4
56	56	4
74	74	6
130	130	3
72	76	1
94	95	6
6	12	1
57	57	6
109	109	6
82	84	1
34	34	3
13	39	1
43	44	1
64	64	2
9	10	2
17	23	1
45	59	1
77	78	6
51	53	1
113	114	2
85	85	5
71	71	6
21	23	1
14	15	1
7	14	2
90	93	3
59	62	1
101	126	3
53	54	4
25	27	2
75	75	4
29	30	2
68	77	1
28	29	2
127	131	3
27	33	1
89	91	4
26	26	5
6	7	2
117	118	2
82	86	1
12	13	3
74	75	1
48	122	1
4	4	5
80	90	2
66	69	1
6	9	1
118	118	3
1	3	2
65	77	5
63	63	5
84	84	1
8	8	2
70	72	1
19	21	2
79	87	1
26	42	1
91	96	1
132	133	1
68	68	5
66	81	1
90	91	1
70	71	2
45	48	1
5	6	1
132	132	3
17	22	2
38	63	3
88	99	2
11	11	2
41	59	1
29	34	2
51	52	1
67	93	1
80	102	1
118	119	5
92	93	2
51	95	1
81	103	1
17	19	1
42	78	1
86	87	1
24	25	1
82	90	1
113	113	3
39	41	2
41	44	2
96	98	1
102	104	1
123	124	1
28	32	2
16	44	1
9	11	1
21	39	1
5	21	1
4	5	3
81	87	1
115	116	1
39	64	1
31	32	3
91	92	1
20	26	1
16	38	1
123	125	2
42	44	2
86	120	1
38	39	1
39	66	1
98	118	1
21	22	1
59	61	1
83	84	1
26	31	1
15	21	1
21	97	2
38	40	1
9	9	1
26	39	1
116	116	1
3	8	2
107	107	1
95	100	1
112	117	1
125	129	1
17	18	1
45	47	1
4	9	1
99	101	1
