57	57	18
40	81	1
69	119	3
15	21	7
60	60	16
68	68	14
14	14	8
98	130	3
90	91	12
59	59	17
132	132	7
105	105	19
28	28	21
21	21	20
47	47	37
118	118	18
61	61	8
114	115	2
66	66	13
48	48	5
30	31	6
34	34	14
107	107	6
82	82	18
65	66	4
101	102	3
78	78	19
56	58	2
58	58	9
21	32	2
8	10	4
7	42	1
79	79	14
10	10	13
10	71	4
109	111	7
122	122	7
24	80	6
96	97	5
27	27	13
107	109	3
43	43	9
46	61	3
132	133	7
68	69	5
25	25	11
85	109	3
83	83	13
30	30	24
46	46	25
48	98	1
7	7	16
90	90	9
128	128	9
68	71	1
64	71	1
133	133	8
35	72	2
123	123	12
76	95	2
102	102	15
24	24	1
113	113	8
75	75	24
69	69	18
18	18	11
8	88	3
26	27	1
3	3	14
101	116	1
93	93	17
85	85	8
9	74	1
22	22	11
112	113	2
8	8	16
33	33	17
88	100	2
62	62	9
45	69	2
21	22	1
81	84	1
74	75	1
7	101	1
21	33	4
59	60	13
74	74	16
80	80	11
44	74	1
4	33	2
107	108	3
82	87	1
45	74	1
126	126	13
6	89	2
11	11	16
41	41	11
72	72	21
126	131	4
94	95	6
66	68	2
0	33	4
46	65	1
106	106	10
45	61	1
120	120	8
101	111	1
73	73	9
40	43	1
36	36	13
88	101	1
111	111	10
38	39	2
13	14	2
99	99	6
36	64	1
91	99	3
42	44	6
71	72	6
90	94	1
100	100	17
81	81	8
77	77	11
112	112	5
44	60	1
48	56	3
101	113	2
113	114	6
12	102	1
70	79	2
29	79	3
85	103	2
62	72	4
89	94	5
32	33	8
33	102	1
5	28	1
9	9	27
44	44	9
45	48	2
92	92	18
28	40	2
25	82	2
41	55	1
111	131	4
95	95	13
59	91	1
17	72	3
70	85	7
21	56	1
47	48	2
4	49	2
116	116	8
125	125	7
25	75	3
31	32	7
45	96	2
34	35	2
87	87	11
70	70	10
103	103	14
44	115	2
40	42	3
29	29	23
2	4	1
4	90	1
1	2	2
5	90	2
4	93	1
3	4	6
22	30	2
51	58	1
48	50	2
36	43	1
81	82	4
93	127	2
13	29	1
76	76	3
121	121	23
38	81	4
79	80	10
35	35	18
97	97	11
57	62	2
127	127	6
39	81	4
75	134	1
46	47	3
89	90	2
13	20	1
54	61	3
88	88	6
73	74	3
36	37	1
67	67	7
16	20	2
46	94	1
82	86	1
15	16	1
123	125	2
20	33	3
13	13	16
25	26	2
1	4	2
65	65	9
82	83	7
74	126	2
101	101	13
96	133	4
67	68	5
117	117	7
110	110	3
97	98	1
90	104	4
21	41	2
87	88	2
42	43	5
96	96	10
21	29	4
94	94	7
7	84	2
8	33	1
120	122	1
79	88	1
19	30	1
119	119	19
5	56	6
29	38	2
23	23	4
124	124	8
40	40	12
21	38	2
93	134	1
17	17	11
34	61	1
19	20	6
131	131	11
66	119	5
87	94	1
76	77	2
89	96	3
11	12	1
8	44	1
114	114	5
27	125	1
45	56	1
64	64	3
16	38	1
22	31	4
25	83	2
15	27	2
77	82	3
6	7	2
21	55	2
110	112	2
58	89	2
134	134	7
98	98	11
109	109	6
15	15	20
78	79	3
6	17	1
56	56	8
128	132	2
5	36	1
77	78	5
115	116	4
47	92	3
26	29	7
22	37	3
119	121	3
31	79	3
32	72	1
45	45	15
32	34	1
123	124	4
70	71	4
39	40	8
0	0	3
35	61	1
20	21	5
19	19	11
95	100	1
84	84	10
21	60	4
35	134	2
22	23	1
11	80	1
31	31	9
22	24	3
8	35	1
62	70	5
93	95	2
62	66	5
82	117	2
28	41	3
20	38	3
110	111	3
12	20	1
38	38	4
26	47	2
11	25	3
8	60	3
11	18	3
89	91	3
33	34	9
95	96	4
11	93	3
57	58	6
25	27	2
6	12	3
90	96	3
112	115	1
30	37	2
49	49	6
45	71	2
32	39	1
6	6	6
47	80	2
98	99	3
9	13	1
128	134	2
7	88	3
125	126	3
94	134	1
114	129	1
114	123	3
43	60	3
16	16	8
31	45	1
39	39	6
50	55	2
59	97	1
33	35	6
45	95	1
18	45	2
110	131	4
28	32	2
4	4	7
82	113	2
91	100	1
126	127	6
4	44	2
4	5	3
3	100	3
48	62	3
63	73	1
2	3	1
12	12	21
6	8	3
68	70	3
19	29	1
29	30	3
26	26	8
105	120	5
130	130	10
39	57	2
23	74	1
2	2	10
24	33	1
29	32	1
55	55	14
22	55	2
5	6	7
29	45	1
6	83	2
93	97	1
61	72	3
91	91	7
28	91	4
23	24	6
29	47	2
85	86	6
45	49	2
48	94	1
5	5	11
17	18	1
16	83	4
34	77	1
108	108	8
104	104	6
4	6	5
107	110	1
11	121	2
63	63	4
45	63	3
90	98	2
75	102	2
86	86	9
43	44	2
119	120	3
35	41	1
75	76	8
85	100	4
8	46	1
33	37	1
115	131	2
83	124	2
89	89	4
97	100	5
60	97	3
45	87	1
68	72	3
117	119	2
81	90	1
21	61	2
94	96	1
22	32	1
92	94	1
31	40	2
32	32	10
51	54	1
17	112	1
20	42	1
83	86	1
31	37	1
89	104	1
27	93	3
1	1	4
37	37	2
23	32	2
99	100	3
27	90	3
12	93	2
24	47	2
104	105	2
64	65	1
34	47	1
63	115	1
130	131	5
25	76	1
4	95	1
131	132	2
92	93	2
31	38	2
7	93	4
37	38	4
12	13	2
129	129	5
109	116	2
118	119	6
86	108	2
11	79	2
128	133	2
14	93	1
83	85	2
57	83	2
91	92	3
13	61	4
126	128	1
93	96	4
42	81	2
95	97	2
7	65	1
9	12	3
24	28	1
28	29	3
15	110	1
106	107	3
58	59	1
129	132	2
36	44	1
73	76	1
43	82	1
24	25	3
0	12	1
26	30	6
41	43	1
11	92	1
41	42	4
18	20	1
90	125	3
100	112	2
51	55	1
42	42	5
36	69	1
78	81	2
79	82	2
71	71	8
8	32	2
111	114	1
87	116	2
78	113	1
10	46	2
79	81	3
11	13	1
37	42	1
29	31	4
1	77	2
88	133	1
2	18	2
90	134	2
108	109	4
9	14	1
36	60	1
78	80	3
79	134	1
29	37	2
55	56	3
11	20	2
69	76	2
11	72	4
84	95	1
88	107	3
6	48	1
83	84	3
121	126	2
5	16	1
111	130	1
7	8	1
15	39	1
97	113	4
10	64	1
22	29	2
38	82	1
107	133	1
100	130	3
40	50	1
28	90	2
96	98	2
111	116	1
29	68	2
29	33	2
6	97	1
127	132	2
97	99	1
45	46	1
39	41	2
106	110	2
45	100	1
44	93	1
56	85	1
0	70	1
28	80	1
105	106	1
58	62	4
6	101	2
84	124	1
32	96	1
116	117	2
27	28	1
109	110	4
38	84	1
46	83	1
25	36	1
95	131	2
78	82	2
56	82	1
27	47	2
115	119	1
46	102	4
30	38	2
46	75	2
21	40	1
49	98	1
21	42	1
4	23	2
50	50	1
81	100	1
13	33	1
36	40	1
17	78	2
16	17	3
11	73	8
48	96	1
21	24	2
14	27	1
24	30	1
113	116	1
23	25	1
22	38	2
80	90	2
132	134	1
106	122	1
128	129	1
10	61	2
11	70	1
90	95	1
11	39	1
37	41	1
72	75	1
70	73	1
32	38	1
113	120	1
100	101	2
23	80	1
72	73	3
7	75	1
29	78	1
124	125	1
89	109	1
4	100	2
15	42	1
5	44	2
6	84	2
18	46	2
45	60	1
4	101	1
28	35	1
16	44	3
93	94	3
127	128	1
20	20	2
11	30	1
19	94	1
94	98	1
78	85	1
104	106	1
44	45	2
62	73	1
107	115	1
10	12	1
11	38	2
15	17	1
19	33	2
8	20	2
107	114	2
45	94	1
72	118	1
20	62	1
56	57	1
121	122	3
93	126	1
28	97	1
37	78	2
8	22	3
4	80	2
44	48	1
6	60	1
85	110	1
49	51	1
28	95	1
56	63	1
115	115	3
34	46	1
12	46	1
30	79	1
10	73	1
25	60	1
73	82	1
103	109	1
25	29	2
32	70	1
88	93	1
117	129	1
29	62	1
16	77	1
10	11	1
46	62	1
16	46	1
11	32	1
83	96	1
91	97	1
82	116	1
6	16	1
18	35	1
14	47	1
35	49	1
35	46	1
30	43	1
32	92	2
14	23	2
16	27	1
16	69	1
57	67	1
65	73	1
14	38	1
72	103	1
79	83	1
116	130	1
19	28	2
25	84	1
1	33	1
39	42	1
8	16	1
9	11	1
34	48	1
