34	34	6
122	122	17
81	81	7
102	102	7
31	31	2
104	104	13
16	17	1
90	90	4
138	138	10
110	116	2
83	83	1
112	112	6
74	75	5
118	118	4
131	132	7
4	19	3
37	37	3
134	136	7
31	37	1
106	106	7
109	118	2
11	11	4
8	8	11
137	137	5
127	127	10
129	130	6
134	134	8
92	92	7
26	27	4
98	98	7
3	3	4
97	97	5
132	132	9
81	82	3
111	111	4
79	79	2
139	139	10
114	114	2
94	94	5
0	0	1
101	101	6
30	33	4
83	84	5
116	116	9
133	133	6
87	105	1
83	100	2
21	21	5
103	104	6
124	124	8
110	110	3
17	18	8
6	6	16
131	131	8
105	105	8
117	117	6
82	83	1
125	125	14
80	80	7
33	33	5
121	122	4
124	130	3
35	35	6
129	129	10
30	30	4
71	71	1
77	108	1
21	22	7
25	25	5
113	113	4
75	76	5
75	104	3
19	20	1
29	30	1
88	89	4
137	138	6
76	76	1
11	12	4
111	137	3
15	15	13
75	75	6
119	120	1
106	107	4
130	130	13
7	123	2
121	121	4
23	23	2
130	131	2
106	108	1
16	33	1
109	109	8
123	123	16
136	137	6
4	5	9
88	88	5
38	117	1
73	73	9
96	99	1
28	30	2
83	85	1
99	99	2
9	9	5
105	106	3
85	103	2
27	28	6
19	19	2
74	74	6
7	7	3
16	27	4
15	16	1
14	17	2
128	128	2
12	14	2
82	84	3
115	115	5
18	18	8
93	93	2
14	14	10
5	21	1
32	34	1
5	5	4
4	4	5
76	79	5
13	13	7
100	100	2
104	105	2
80	101	1
16	16	4
128	129	5
122	128	1
84	84	2
72	72	7
120	120	3
23	26	1
126	126	12
12	12	4
124	127	2
90	129	1
28	28	4
100	101	3
90	91	5
72	73	2
138	139	2
82	82	3
32	32	3
5	19	1
12	13	1
32	124	1
9	12	1
110	123	1
91	91	6
135	135	3
96	96	4
36	37	2
1	1	6
111	120	2
119	119	4
36	36	2
30	31	3
10	12	2
38	38	2
39	83	1
140	140	6
73	75	3
37	90	2
79	88	1
130	132	1
6	13	1
107	107	3
103	103	3
2	2	3
82	117	3
22	22	8
78	78	2
72	75	2
8	25	1
91	93	1
7	8	1
130	133	2
76	121	3
84	85	1
87	87	6
114	115	1
79	85	1
117	120	1
99	101	1
89	89	7
17	17	1
117	119	2
8	9	1
1	2	1
86	86	1
94	95	4
10	10	3
8	11	1
109	110	2
23	24	2
86	88	4
95	98	2
28	29	1
81	84	2
77	77	1
109	120	2
5	15	1
94	96	1
136	136	2
111	112	3
92	126	1
26	26	3
24	25	2
93	95	1
16	26	1
108	108	1
90	94	1
20	20	1
3	120	1
120	121	1
118	123	1
82	94	1
87	118	1
93	116	1
122	123	1
109	123	1
