50	50	6
33	61	6
46	46	16
70	70	11
87	87	6
43	43	8
79	79	1
82	82	1
51	51	6
31	64	2
99	101	3
94	94	6
40	91	1
69	75	4
80	90	2
58	59	4
25	84	1
80	83	3
56	56	2
86	100	3
47	47	10
94	101	1
33	36	3
57	57	2
92	93	7
39	71	1
96	96	9
42	42	6
54	81	2
31	32	1
32	32	7
54	54	7
25	25	9
67	68	3
50	62	4
70	71	2
67	67	4
59	59	6
79	81	4
83	83	7
48	49	6
84	102	3
36	36	2
90	90	4
76	76	10
68	68	8
46	47	6
54	89	2
60	60	4
41	41	5
75	75	5
53	54	2
26	28	1
63	63	12
27	27	3
92	92	9
95	97	4
33	33	6
55	57	3
42	47	6
42	51	3
42	46	4
95	95	6
76	77	5
39	39	4
54	55	1
72	73	1
99	99	7
25	26	4
77	77	5
44	44	9
52	52	5
84	89	1
41	81	1
53	53	7
71	71	2
76	90	3
24	26	4
96	98	4
88	88	2
25	50	1
100	101	4
70	76	2
63	78	3
48	48	8
89	89	6
79	80	2
38	98	1
31	31	2
101	102	2
98	98	5
77	80	1
38	38	5
55	98	2
101	101	5
78	78	2
88	94	2
55	95	5
80	81	2
90	95	4
35	35	4
38	42	3
76	99	2
94	95	3
85	102	2
61	68	3
61	61	8
37	47	5
37	39	2
46	101	1
22	26	1
36	37	3
40	41	1
45	45	4
62	62	5
26	26	2
22	22	2
86	88	1
34	34	4
43	44	2
65	68	2
55	55	2
100	100	4
86	86	4
78	79	2
95	96	3
81	81	5
60	91	3
49	49	3
46	48	3
41	52	2
83	93	1
54	85	1
66	67	2
97	97	8
91	91	5
24	25	7
86	87	4
90	92	2
69	69	3
38	40	1
86	90	1
61	92	3
38	47	1
89	102	1
66	66	2
55	86	1
73	73	4
61	90	2
65	65	5
53	86	2
20	92	3
54	88	1
79	100	2
85	89	1
58	58	2
80	80	4
91	92	2
33	37	3
44	91	1
35	60	1
27	29	2
93	93	2
90	91	1
94	98	1
71	72	1
55	79	1
36	56	1
46	54	3
45	46	2
82	86	3
28	45	2
84	84	1
44	56	1
80	101	1
50	90	1
56	57	1
37	48	1
48	53	1
85	85	1
89	95	1
68	69	1
23	29	2
95	100	2
42	43	3
71	78	1
89	101	1
74	74	2
86	89	1
49	90	1
40	51	1
49	62	1
102	102	1
93	94	1
41	90	1
