20	30	1
28	28	13
125	125	9
7	7	10
81	81	10
131	131	5
81	130	3
14	16	4
101	101	13
127	127	13
54	55	8
88	89	13
29	121	3
40	41	6
157	157	10
114	114	11
55	55	19
37	38	3
75	75	14
141	141	13
92	93	2
23	23	17
48	55	2
37	37	7
1	1	17
87	87	16
103	104	7
139	139	19
33	36	1
95	95	11
35	35	3
21	25	5
26	28	5
115	115	20
153	153	2
66	72	3
110	121	2
85	85	9
47	47	8
127	128	1
130	130	15
103	103	11
90	90	13
8	55	8
132	133	3
93	95	1
86	86	22
76	76	8
40	40	10
139	143	2
57	57	2
79	79	10
20	20	21
72	72	2
0	0	11
135	136	15
5	5	8
18	20	5
123	144	4
65	66	3
52	53	1
43	43	9
154	156	2
123	123	18
83	83	10
105	105	10
0	1	5
131	132	3
152	152	2
51	51	17
26	55	4
71	130	2
88	145	3
84	84	8
24	24	12
116	116	13
36	36	17
3	3	8
49	54	9
149	149	7
33	34	13
78	82	2
100	100	25
17	17	9
50	51	12
71	78	5
21	21	5
43	54	4
7	12	7
110	154	7
61	62	2
122	122	13
106	107	5
22	23	3
9	10	3
14	15	5
77	107	4
137	150	3
3	4	3
154	154	6
154	155	7
136	137	5
30	30	11
138	138	6
148	148	11
10	10	4
18	19	1
113	113	31
77	78	4
155	156	3
32	32	12
2	5	4
137	137	9
119	120	8
5	6	5
84	147	4
153	154	3
38	38	5
117	117	23
109	109	9
51	139	2
133	133	13
128	128	15
29	29	9
24	26	2
104	104	13
20	24	5
66	66	9
65	65	7
18	110	5
145	145	3
99	99	13
39	39	7
31	31	11
16	16	4
96	97	3
43	48	7
91	91	8
23	24	6
24	25	3
6	16	3
92	92	8
70	70	7
159	159	1
25	25	5
122	123	5
98	99	2
112	112	4
76	82	1
12	12	19
11	11	7
82	82	14
8	56	1
87	88	10
151	151	9
52	56	1
15	16	2
62	62	12
84	93	3
121	121	5
42	42	4
26	29	3
135	137	8
106	106	13
134	134	14
112	113	4
111	141	1
132	132	9
38	39	5
135	147	6
119	119	3
158	158	9
89	89	10
107	111	1
152	155	3
33	35	2
134	137	3
134	151	1
7	8	3
66	71	3
34	34	4
8	9	5
102	102	8
50	52	4
123	124	1
139	140	13
28	29	5
54	54	10
16	120	3
108	108	6
155	155	15
85	86	11
50	50	24
135	135	8
42	43	7
140	141	1
93	94	6
150	150	5
26	26	14
1	2	7
12	30	7
99	100	3
25	39	2
50	139	2
68	68	8
31	111	2
110	111	6
104	137	3
3	11	7
10	16	5
16	57	2
133	137	1
67	141	1
21	22	5
69	77	2
91	149	2
73	73	11
111	112	3
100	101	3
45	45	12
116	117	7
124	125	7
18	28	4
16	17	13
43	45	5
136	136	8
118	123	2
142	142	4
107	107	12
67	71	7
31	34	7
103	127	4
91	94	1
46	46	9
71	140	1
109	111	6
98	149	2
2	2	7
124	127	8
151	152	3
144	150	2
33	33	20
93	93	6
156	157	3
108	109	3
77	92	4
108	111	6
27	27	15
53	53	6
8	10	4
94	94	6
95	96	5
128	129	3
103	125	1
105	129	1
145	146	3
115	116	3
110	110	6
152	153	2
8	8	6
105	138	4
40	42	2
137	138	6
11	13	4
32	35	3
18	38	2
125	146	1
95	155	1
109	154	2
10	15	4
20	25	6
94	95	5
147	147	6
49	49	11
105	155	4
72	73	4
111	111	6
98	98	12
19	25	1
2	3	1
8	14	4
77	77	15
89	90	3
102	125	3
62	64	5
97	97	6
43	44	2
25	27	1
41	41	18
51	52	5
31	32	3
4	4	8
6	6	8
63	63	1
38	53	4
97	148	2
10	11	4
38	62	1
114	115	5
67	67	9
90	133	6
101	103	1
67	70	1
128	158	2
11	15	1
61	61	4
156	156	5
23	25	4
31	50	4
18	37	2
75	80	1
131	133	4
110	127	2
47	50	1
80	80	8
130	132	6
42	54	1
120	120	8
53	54	2
35	36	3
80	81	3
96	96	6
14	14	2
11	53	2
48	51	1
140	140	7
112	114	2
30	158	1
124	124	3
22	40	1
104	105	2
56	56	4
84	85	5
133	134	8
22	39	2
105	150	5
146	146	2
66	68	1
44	44	6
24	27	1
31	43	1
79	81	2
88	88	2
71	71	7
129	129	7
105	106	2
73	99	2
26	27	3
79	80	7
87	104	2
13	13	6
96	158	1
84	116	2
19	86	1
75	158	1
31	154	1
16	18	1
9	9	2
102	113	2
22	22	2
18	18	3
134	136	4
32	118	1
80	83	1
67	140	1
81	142	1
32	33	9
49	51	2
68	69	2
75	92	1
54	61	1
93	151	3
34	37	1
31	51	1
100	150	1
95	157	1
11	12	1
82	139	2
36	48	1
52	52	4
100	157	1
80	90	4
13	15	1
109	110	6
55	56	3
69	69	2
34	35	1
102	103	1
126	126	4
46	47	1
34	36	2
117	118	5
102	130	1
73	74	1
10	12	1
51	53	1
46	51	1
113	114	1
49	53	1
140	150	1
71	72	1
70	77	1
81	82	1
23	28	1
150	155	1
142	143	1
118	118	3
27	107	1
82	84	2
146	149	1
91	92	4
30	36	1
20	21	1
66	103	1
144	144	1
139	142	1
9	52	1
143	143	5
114	116	1
4	5	2
126	127	1
62	63	1
20	33	2
99	123	1
80	84	1
78	78	5
144	146	1
66	106	1
6	8	1
20	23	1
90	91	2
64	65	1
32	55	1
22	28	1
3	37	1
95	153	1
138	139	2
96	154	1
149	150	3
73	138	1
102	117	1
109	114	2
31	33	1
29	30	1
12	13	1
130	131	1
71	106	2
72	84	1
36	55	2
157	158	1
138	148	1
76	91	1
68	141	1
19	20	3
48	48	7
77	79	1
129	138	1
69	106	1
78	79	1
51	55	1
107	128	1
51	71	1
101	123	1
46	48	1
151	154	1
10	14	1
42	45	1
110	124	2
95	138	1
73	84	1
117	121	1
15	22	1
39	40	1
64	64	1
24	127	1
105	112	1
44	45	1
127	131	1
126	154	1
104	148	1
38	42	1
91	93	1
25	26	1
82	142	1
