118	118	2
25	25	12
138	139	4
119	119	6
143	144	3
23	23	10
6	15	3
70	70	6
114	134	2
15	15	5
49	49	14
53	72	3
120	120	8
48	48	4
9	20	4
14	39	2
105	106	4
124	124	11
66	67	7
94	94	13
47	47	4
73	73	9
136	136	21
64	65	4
33	33	13
21	27	1
20	20	12
65	66	2
33	34	8
19	20	2
55	55	5
19	87	2
8	38	7
17	32	1
52	65	3
54	54	12
133	139	3
135	135	8
123	123	8
33	39	7
92	94	6
138	138	5
110	110	8
85	120	3
72	73	2
132	132	13
60	73	5
30	38	2
83	84	4
134	135	2
107	132	3
73	118	1
5	5	6
126	126	7
51	105	1
92	92	6
27	27	8
0	0	8
104	104	11
77	77	10
69	70	5
97	98	1
21	21	7
22	22	14
116	117	8
83	83	8
96	96	9
39	39	8
121	122	7
103	103	5
1	1	7
4	4	5
38	38	5
62	62	2
81	82	7
35	35	7
125	125	18
119	126	1
140	140	15
80	80	11
18	36	1
80	81	3
16	16	5
123	124	4
27	28	1
41	72	2
104	116	2
9	9	15
121	128	2
14	107	5
100	100	5
29	78	1
57	57	8
24	24	8
68	68	4
56	56	1
114	115	5
99	140	1
121	121	17
2	11	1
126	141	3
81	81	6
50	51	7
78	78	7
15	17	2
102	102	2
101	101	15
98	98	11
107	107	5
91	91	15
71	72	8
29	94	1
106	106	3
79	81	4
82	84	1
114	136	1
11	11	7
56	126	2
27	38	1
109	109	7
50	50	6
11	13	1
20	36	3
136	138	3
95	95	5
97	97	10
146	146	2
13	110	4
86	107	2
92	109	3
31	46	4
51	52	6
29	29	12
0	133	3
130	130	12
88	88	6
3	4	4
59	61	3
71	71	11
85	85	2
4	11	8
90	90	4
129	129	15
118	136	3
113	113	5
62	97	1
84	84	5
75	75	14
75	78	2
13	18	5
16	135	3
118	139	1
31	32	2
118	123	3
72	72	9
134	134	10
121	123	4
20	21	5
5	16	1
42	72	5
111	113	2
93	93	7
34	34	5
49	50	1
40	69	1
128	128	13
42	42	7
132	136	3
66	66	7
105	105	5
116	128	5
99	100	1
53	53	11
60	62	1
137	138	7
28	28	8
40	40	8
144	144	13
89	112	1
65	65	10
12	12	5
18	82	2
41	41	14
8	8	4
115	141	1
26	30	2
126	134	3
32	41	1
18	18	6
133	133	12
13	117	2
82	88	2
4	34	2
27	66	2
74	74	6
58	63	2
60	125	4
34	35	3
99	141	1
30	30	1
17	130	1
127	131	3
122	123	10
86	86	8
0	14	2
18	28	3
22	29	2
59	60	2
15	16	1
122	122	4
46	47	1
18	20	1
115	115	5
67	81	3
143	143	8
79	79	4
103	141	1
89	89	5
126	127	4
61	104	3
13	13	1
2	3	1
3	3	4
36	36	4
22	36	2
104	105	4
104	139	2
26	26	8
35	36	1
32	42	3
114	114	3
63	83	2
27	130	1
75	76	5
121	127	5
62	63	3
50	52	3
82	83	5
10	20	3
108	108	3
77	79	1
59	59	6
102	139	6
61	61	3
6	10	5
107	111	2
53	122	2
71	73	6
137	137	13
10	10	4
97	141	1
127	139	3
31	78	1
55	58	5
84	85	3
18	26	2
2	2	6
31	31	2
85	134	5
109	110	2
145	145	7
39	52	2
127	127	11
24	27	1
52	52	4
95	103	8
128	133	1
128	142	3
99	99	2
58	58	3
110	111	3
6	11	1
37	37	2
55	56	1
139	139	4
129	130	6
73	74	2
17	17	8
91	97	3
51	51	10
63	63	8
142	142	4
117	124	2
97	104	5
105	112	2
117	117	5
67	91	2
8	21	1
127	128	1
71	81	2
21	131	2
55	65	1
96	97	2
131	132	3
19	29	2
101	103	2
41	43	3
48	51	4
32	32	1
17	119	2
12	16	1
81	86	1
141	141	3
43	52	1
113	114	2
110	112	2
125	128	1
61	68	3
141	142	6
8	9	1
91	92	1
46	76	1
88	122	1
127	132	3
87	107	2
135	136	2
138	141	2
131	142	1
36	37	1
6	6	4
88	89	3
87	87	4
114	135	2
101	102	1
59	68	1
123	126	2
118	129	2
25	26	7
115	131	2
60	60	2
131	131	10
142	143	2
86	87	2
55	60	2
118	121	1
117	125	1
23	117	1
66	68	2
5	6	3
16	118	3
68	105	1
23	33	1
65	89	3
110	114	1
96	98	1
50	61	2
116	118	4
21	107	1
17	30	3
106	107	2
41	42	1
47	48	3
17	90	2
18	19	2
66	104	1
14	14	3
132	133	1
137	140	1
60	61	1
35	37	1
61	74	1
40	106	1
3	33	2
140	141	1
10	11	2
100	125	1
42	43	1
105	136	2
31	33	1
4	5	1
69	69	3
19	19	2
119	120	1
111	112	1
69	104	2
74	81	1
114	140	1
21	26	2
94	95	5
12	111	2
135	140	1
91	105	1
73	80	1
129	132	2
29	42	1
25	37	1
10	26	2
64	83	1
28	38	1
32	33	1
66	71	1
23	116	1
118	134	1
62	64	2
48	88	2
103	105	2
137	139	1
120	125	1
36	50	1
64	66	1
24	25	1
4	9	2
109	115	1
40	54	1
48	71	1
128	129	2
76	76	1
88	91	1
2	55	1
134	140	1
68	82	2
36	49	1
11	16	2
57	58	1
28	29	1
50	59	1
117	118	1
53	125	1
3	26	1
133	136	1
25	35	2
12	13	1
64	74	1
91	103	1
19	30	1
93	96	1
107	109	1
25	27	4
76	79	1
90	91	1
130	134	1
133	134	1
22	26	1
104	141	1
127	130	1
4	35	1
10	19	1
9	38	1
139	140	1
69	106	1
5	10	1
118	119	1
43	43	1
29	30	1
6	16	1
52	55	1
120	126	1
22	23	1
40	41	1
85	133	1
64	105	1
58	84	1
55	57	1
70	82	1
38	51	1
20	27	1
26	27	1
1	2	1
19	26	1
