15	15	11
108	108	3
71	71	6
76	76	5
106	125	3
110	110	7
79	79	2
83	86	1
94	94	3
42	42	6
21	21	2
32	39	1
0	19	4
85	87	11
99	127	8
106	126	1
55	63	2
40	41	2
97	98	5
105	105	8
17	83	4
51	51	10
107	107	3
53	53	10
29	29	8
112	112	15
85	86	4
0	1	2
62	62	1
6	6	8
100	100	12
41	42	7
101	101	6
23	23	4
103	103	9
67	68	2
72	77	3
99	99	6
121	121	10
31	31	4
116	116	3
38	47	3
91	92	4
4	4	3
66	67	3
67	67	3
61	62	1
84	84	8
131	131	4
78	81	6
10	10	3
15	16	5
58	59	4
64	64	4
106	106	5
102	103	2
87	88	4
98	98	6
69	69	13
126	130	2
0	2	2
20	20	9
84	87	4
60	115	2
106	109	3
114	115	4
66	94	1
17	17	7
57	57	8
61	61	1
102	102	2
84	85	2
86	87	3
7	7	8
82	82	3
41	43	2
97	97	8
126	126	3
28	28	8
81	81	8
48	48	6
94	116	1
66	66	3
22	22	9
45	45	2
13	13	3
55	55	5
94	95	1
58	71	3
65	86	1
72	81	2
89	89	5
8	11	5
124	124	1
59	61	2
58	66	1
113	113	5
72	72	3
68	111	2
129	129	2
2	19	1
33	33	2
56	56	2
40	40	7
120	120	4
46	47	5
133	133	5
0	0	1
18	19	1
85	91	1
52	52	3
75	75	5
60	60	4
43	44	3
44	45	1
63	63	1
130	130	2
124	125	1
83	83	2
109	110	2
47	69	3
52	53	2
109	109	3
20	70	3
19	20	3
95	95	4
99	101	1
82	84	1
77	77	6
3	3	3
132	132	2
39	39	2
18	28	1
12	12	4
92	92	7
2	2	5
85	92	5
85	85	2
94	110	1
49	50	4
70	70	2
127	127	4
126	127	1
120	122	1
8	69	4
6	11	1
122	122	3
92	93	3
38	38	3
78	79	1
128	129	1
44	44	1
47	47	3
91	91	4
109	118	1
54	54	1
14	21	1
118	118	2
41	41	2
46	46	1
88	89	2
16	16	1
26	26	1
26	27	1
6	95	3
73	73	1
25	25	1
120	121	1
59	59	2
24	24	1
40	42	3
38	39	2
54	56	2
11	12	7
113	117	1
39	43	1
55	56	1
2	3	2
2	21	4
16	17	1
110	111	2
1	1	1
27	28	2
14	16	1
27	27	5
34	39	6
16	33	1
68	68	2
118	122	1
33	34	3
2	4	1
83	84	1
62	64	1
107	124	1
65	65	1
63	74	1
49	49	5
18	18	1
16	19	2
42	43	3
73	74	1
2	8	1
90	98	1
123	123	1
44	59	2
66	68	1
87	87	2
115	115	2
45	48	1
57	58	1
30	30	1
32	32	1
65	66	2
96	96	1
42	66	2
114	119	1
50	50	1
100	101	1
5	5	1
99	100	3
106	108	1
114	114	1
125	128	1
21	33	2
75	77	1
9	52	1
90	90	1
28	29	1
15	88	1
114	117	1
50	51	1
93	94	1
79	80	1
