2	2	7
9	10	5
36	39	4
13	13	14
61	61	3
43	44	22
68	73	3
46	46	7
69	69	4
48	51	4
49	50	7
53	53	7
9	9	13
1	4	1
10	12	5
72	72	8
25	49	3
73	73	11
31	32	5
62	64	1
34	34	4
19	19	11
70	71	1
33	33	10
39	42	1
35	51	2
27	27	11
4	4	13
5	5	5
51	62	4
20	21	3
63	66	4
7	7	9
62	63	3
20	20	6
58	58	6
12	12	16
47	48	3
3	3	26
8	9	7
10	10	6
26	26	6
25	25	12
41	41	9
6	42	2
47	47	22
52	52	8
11	11	6
0	0	2
75	76	5
58	59	9
63	64	7
35	38	1
7	39	1
0	1	7
55	55	7
32	32	2
63	67	1
25	28	3
46	76	4
65	65	16
6	6	14
10	35	2
45	45	6
48	48	13
37	37	10
44	44	7
57	59	6
57	57	8
29	30	3
59	61	1
35	35	7
75	75	12
21	21	5
51	77	1
51	51	10
43	43	8
38	39	1
23	23	7
30	53	1
22	50	4
48	77	1
57	74	3
51	54	3
6	7	1
40	50	2
57	60	4
8	8	6
62	62	3
1	1	4
50	51	3
38	42	1
50	50	16
39	40	3
52	55	2
41	43	5
23	27	2
54	54	16
35	36	5
73	74	2
68	68	4
64	64	5
45	46	4
71	73	4
37	39	4
45	49	4
60	60	8
53	54	4
32	37	2
61	62	1
2	3	2
27	29	1
4	5	4
67	67	1
52	54	3
0	2	1
66	66	2
22	25	3
64	67	5
66	67	1
38	38	2
7	13	4
63	63	6
34	35	3
41	42	3
10	11	3
49	49	5
67	70	2
4	14	2
43	52	5
19	21	2
30	41	1
59	65	2
42	52	5
73	75	3
69	71	4
53	67	1
24	54	1
37	47	1
62	69	5
22	26	2
62	67	2
0	6	2
50	76	1
74	75	1
20	23	2
26	27	3
42	49	2
28	29	1
66	70	1
43	51	1
34	36	1
61	65	1
15	34	1
51	59	2
36	36	4
38	40	1
24	26	3
77	77	2
40	40	2
9	11	1
24	24	4
52	53	4
76	76	6
40	41	3
48	49	2
27	31	4
72	73	1
59	75	2
69	70	1
36	37	3
58	71	1
7	12	1
32	33	1
19	20	1
33	37	1
11	12	3
26	28	3
22	23	4
71	71	1
31	31	1
68	70	1
50	54	1
44	47	2
7	8	2
44	45	2
22	24	1
59	59	3
67	68	2
64	70	2
64	66	1
56	56	2
68	69	3
42	42	2
23	52	1
37	74	1
2	33	1
29	29	1
74	74	3
65	66	1
45	48	2
2	24	1
13	14	1
56	57	1
54	57	1
22	22	2
23	24	2
32	36	1
39	39	3
4	8	1
13	20	1
5	14	1
22	49	1
25	54	1
1	25	1
5	6	1
30	42	1
70	70	1
74	76	1
61	74	1
4	6	1
24	70	1
34	55	1
59	60	1
18	19	1
46	47	1
41	53	1
50	59	1
22	44	1
31	35	1
44	48	1
28	32	1
12	13	1
25	26	1
68	72	1
