112	112	31
14	64	1
30	30	17
90	91	7
11	11	18
3	5	10
117	117	24
120	120	23
8	15	2
84	84	20
91	91	12
20	20	11
32	32	25
38	38	6
105	107	4
14	14	11
75	104	1
126	126	22
101	101	7
44	44	20
124	124	23
51	52	4
48	85	5
63	63	21
48	48	28
108	109	3
2	2	6
21	21	13
5	29	4
93	93	30
81	81	21
39	39	17
52	52	28
115	115	12
121	122	3
7	7	24
114	130	5
19	20	4
55	55	23
99	99	19
96	96	15
104	104	21
101	102	2
127	128	7
46	46	8
125	125	24
8	8	14
103	103	15
109	109	31
132	132	20
13	13	14
61	61	8
25	26	5
46	122	1
98	100	7
78	78	17
3	46	3
58	113	3
83	84	7
22	22	17
11	120	4
54	54	25
16	106	2
67	68	10
45	46	2
54	56	9
53	53	28
113	113	18
10	11	9
3	3	12
23	23	5
40	40	20
27	27	14
70	70	19
77	77	12
57	57	16
110	112	2
79	79	13
103	104	2
26	26	24
72	73	4
128	128	10
22	79	4
32	33	5
49	50	8
75	76	12
123	124	4
24	24	13
9	127	2
39	74	2
38	39	7
80	80	10
112	132	2
60	60	17
12	12	23
29	30	7
100	101	7
133	133	6
52	80	2
29	29	12
81	87	1
41	42	12
76	76	11
118	120	1
50	50	26
66	66	9
124	125	10
9	9	15
107	107	9
20	52	5
123	123	17
31	32	6
84	104	5
111	111	30
79	80	7
28	29	2
83	100	1
73	73	8
116	116	25
3	4	4
71	71	14
40	74	8
107	108	8
42	42	11
18	18	12
48	124	4
131	131	17
3	7	6
15	15	12
102	115	1
10	10	15
45	45	20
106	107	9
119	120	3
47	47	29
114	131	3
6	7	5
49	49	22
75	75	10
94	94	14
69	69	23
65	65	5
104	133	2
86	87	11
100	100	6
67	130	5
66	68	3
92	93	11
106	106	20
90	90	17
88	88	7
131	132	4
67	67	5
116	117	11
0	0	28
31	31	19
28	28	13
96	117	2
40	41	7
87	87	10
118	125	4
79	84	3
33	34	12
41	41	20
98	99	1
27	31	1
13	110	1
74	74	3
15	33	2
119	119	18
69	75	1
80	81	7
82	82	17
84	94	1
58	59	6
4	4	7
28	78	4
60	94	1
65	85	2
126	127	5
110	110	18
32	45	2
27	28	6
43	43	14
102	103	1
130	130	12
97	130	2
38	40	3
65	70	5
68	72	1
92	92	10
126	128	5
50	51	1
127	127	9
108	108	17
20	31	3
91	92	15
27	123	1
89	89	7
93	94	5
27	29	10
95	109	2
57	113	1
23	106	1
46	47	11
47	48	3
2	3	4
68	69	9
132	133	4
68	68	12
120	121	2
65	66	6
122	122	20
72	72	9
64	79	2
121	121	21
47	70	2
82	128	2
31	69	1
4	5	8
33	33	7
85	85	12
46	69	5
9	10	6
64	65	2
86	86	14
101	114	4
11	12	2
19	71	1
0	1	9
22	29	2
2	17	4
56	56	28
16	17	9
65	114	2
86	102	2
72	74	1
87	88	1
19	26	1
102	102	21
51	64	1
20	27	2
34	81	3
86	89	1
42	43	7
65	119	2
17	17	4
94	95	8
82	101	3
43	62	3
80	102	3
51	51	16
51	69	2
96	107	1
53	124	1
105	106	2
1	1	10
97	99	4
13	90	2
93	116	3
70	71	9
95	95	13
25	93	2
106	128	2
48	50	6
10	13	4
43	81	1
57	124	4
84	85	6
16	16	5
65	71	2
58	58	7
18	19	8
56	121	2
42	81	2
20	75	2
19	19	7
129	129	16
58	64	1
60	120	3
89	90	2
1	32	2
40	90	1
58	60	1
105	105	14
118	118	17
2	5	6
5	5	9
104	106	1
39	40	7
51	126	2
83	83	7
2	4	3
2	6	3
13	123	1
97	100	4
12	83	1
6	9	3
114	114	13
14	16	4
6	6	22
113	115	1
54	55	1
58	63	2
12	13	5
27	105	1
10	124	1
14	32	1
117	118	2
71	74	2
44	50	3
55	82	5
1	2	4
59	59	8
129	130	3
14	40	1
40	73	2
122	123	1
90	119	5
121	123	4
44	45	6
96	97	1
23	102	3
78	79	7
130	131	2
12	52	2
56	58	2
20	21	1
80	93	4
104	105	14
22	23	5
11	117	2
87	92	1
21	31	3
68	70	1
41	43	1
17	34	1
93	95	1
74	97	1
17	41	3
47	69	3
74	75	1
13	37	4
13	14	9
42	44	4
25	25	5
113	114	6
40	43	1
90	117	1
69	132	1
97	97	5
19	22	2
30	84	5
60	61	4
78	84	2
109	110	5
16	23	2
40	51	1
88	95	2
62	62	7
69	104	3
92	95	4
71	130	2
67	70	2
99	100	4
96	111	2
77	78	1
61	62	2
10	131	4
26	39	2
64	64	6
29	102	1
80	104	2
52	53	6
45	47	2
63	66	4
15	18	1
86	88	6
72	80	4
112	113	6
53	54	3
25	40	3
85	95	1
81	82	8
97	98	1
30	124	1
125	126	3
97	118	5
6	27	1
13	20	6
88	121	2
68	80	2
59	61	2
99	103	3
20	80	1
22	25	2
52	86	2
51	59	3
68	128	3
26	40	1
11	33	1
89	91	1
56	76	1
104	112	1
101	108	2
7	84	3
63	65	1
48	49	3
28	123	3
110	125	1
76	125	2
61	75	1
48	54	1
66	77	1
22	30	2
128	129	4
124	130	1
68	101	3
108	128	3
95	112	1
114	119	1
108	129	2
10	32	2
83	124	3
57	117	3
11	128	3
68	129	1
98	98	4
87	96	2
61	66	2
118	119	2
11	39	2
19	31	1
62	63	2
15	16	3
113	119	2
76	90	1
110	119	1
82	102	1
18	33	1
109	117	1
17	18	2
85	87	2
59	60	3
88	98	1
65	113	1
11	42	4
13	80	2
26	93	1
83	99	1
57	58	2
16	18	2
42	63	1
19	32	1
2	33	1
40	42	3
7	8	4
16	22	1
25	103	1
14	107	1
65	120	2
103	106	1
67	129	2
97	102	2
43	45	2
65	112	3
50	53	1
23	105	1
82	83	1
12	15	1
74	78	5
52	68	1
40	76	1
33	43	1
32	80	3
49	123	4
64	67	1
14	26	2
14	15	1
126	129	4
120	133	1
114	117	1
1	6	1
111	112	2
2	49	1
1	27	1
46	53	1
58	65	2
118	122	3
56	57	1
39	90	1
39	91	1
83	85	1
17	126	1
122	133	1
58	70	1
114	129	1
94	113	1
51	61	1
89	93	1
46	48	1
21	22	4
9	11	3
15	17	2
22	74	1
50	58	1
28	74	1
53	125	1
100	103	1
84	86	1
31	76	1
122	132	2
20	55	1
105	113	1
8	85	1
31	53	1
44	58	1
8	9	2
60	63	1
14	97	1
125	128	1
1	26	1
85	86	1
34	34	2
10	67	1
75	119	1
93	96	1
20	85	1
88	89	1
32	44	2
109	123	1
2	7	2
13	82	1
0	3	1
69	70	1
22	82	2
96	116	1
100	117	1
114	116	1
115	129	1
116	119	2
73	74	1
76	77	1
55	59	1
65	68	1
69	71	1
5	16	1
73	82	1
82	87	1
25	59	1
95	120	1
62	66	1
2	31	1
20	26	1
55	56	1
43	44	1
82	84	1
14	25	1
5	7	1
73	76	2
26	27	1
78	129	1
42	105	1
19	75	1
87	93	1
39	45	1
109	113	1
59	65	1
