97	97	25
82	86	10
49	49	15
73	104	2
39	61	4
35	35	44
79	79	18
50	50	28
89	89	45
74	74	43
53	53	23
96	96	30
32	35	4
35	36	17
29	29	7
23	23	51
65	65	33
42	84	3
88	88	14
55	55	38
39	39	35
38	43	1
22	22	28
100	100	39
45	62	1
40	40	14
68	68	22
56	83	2
76	76	36
83	83	18
103	103	43
87	88	14
45	49	8
71	72	15
72	72	22
61	63	5
45	45	23
66	67	6
95	95	21
63	63	28
44	44	7
26	80	1
53	54	20
45	47	6
32	32	39
58	102	2
67	68	7
91	91	24
52	52	31
85	85	12
54	54	21
50	84	7
31	33	2
104	104	25
79	80	11
34	35	9
56	95	3
101	104	2
106	107	7
33	33	18
27	98	2
34	34	26
59	94	4
61	64	3
94	94	16
47	47	10
91	92	7
32	40	3
59	59	28
61	61	33
64	64	43
25	46	2
39	40	9
57	57	9
35	50	1
69	69	35
51	51	28
25	26	8
56	57	2
34	38	1
41	42	8
80	81	10
20	21	4
33	36	3
75	75	31
84	85	10
71	71	24
31	31	38
46	49	8
42	42	10
62	63	10
22	52	2
24	24	37
102	103	9
77	77	20
47	48	13
77	78	5
99	99	25
105	105	25
47	50	2
70	71	16
25	25	35
58	58	26
41	41	8
39	57	4
102	102	31
62	62	16
31	50	1
22	25	7
68	69	18
56	56	13
42	45	1
25	27	8
23	92	3
78	78	19
50	93	1
93	96	4
81	89	5
42	43	4
62	66	5
70	73	3
65	66	9
23	24	10
69	91	2
78	90	6
101	101	27
26	28	9
35	62	1
98	100	2
22	23	7
56	60	3
82	83	12
54	55	1
68	92	1
58	59	16
51	55	4
55	60	2
42	44	12
100	101	6
86	88	6
84	84	18
81	81	11
67	67	42
89	90	14
51	52	19
93	93	23
49	99	2
46	51	4
92	97	4
70	70	32
92	92	22
97	99	5
30	82	1
96	97	13
33	60	1
61	62	12
43	43	5
90	90	14
87	87	16
21	21	26
28	28	11
64	65	11
67	81	3
98	98	11
26	26	22
36	36	28
76	77	3
55	56	3
78	79	9
86	86	17
73	73	37
30	30	9
35	88	5
44	45	8
43	78	1
25	28	1
83	84	1
20	20	16
100	102	3
37	37	14
75	76	11
82	98	1
83	87	3
26	27	12
59	61	2
77	89	6
58	60	7
22	47	3
92	99	5
95	100	2
40	60	2
31	32	13
43	44	7
48	48	7
103	104	6
45	48	2
106	106	14
44	46	3
21	22	6
41	43	3
83	94	3
36	38	2
81	84	2
46	46	17
60	60	21
38	39	9
85	88	3
63	64	13
51	53	5
37	44	1
79	88	1
70	92	1
37	39	5
40	42	7
80	82	4
45	46	2
73	74	8
42	61	3
104	105	5
55	68	5
36	81	4
107	107	9
78	92	3
77	81	3
79	94	3
84	86	3
94	107	1
42	89	1
51	104	2
100	105	5
23	25	1
38	38	11
60	61	9
49	50	6
84	98	5
46	48	6
26	29	3
95	99	2
74	75	7
85	87	4
36	37	4
74	76	2
51	73	2
78	82	1
82	85	2
29	30	7
86	87	4
25	39	1
27	27	11
38	59	2
27	28	6
56	68	3
70	91	2
29	48	2
69	93	1
93	106	2
87	90	2
52	53	16
35	84	7
68	93	5
90	91	4
34	93	2
30	31	4
36	45	1
105	106	3
40	41	3
98	99	8
38	41	3
74	105	1
29	42	1
41	44	1
74	103	2
21	55	2
66	66	7
95	98	2
33	34	2
55	62	2
78	81	4
50	51	3
37	43	3
79	81	2
24	25	6
80	80	16
59	68	2
48	49	4
26	79	1
100	103	2
29	40	1
81	87	2
93	94	7
23	58	4
94	96	2
24	39	1
37	42	1
85	95	3
35	39	4
27	29	3
46	47	7
23	45	4
60	68	4
31	43	4
28	30	2
84	95	1
92	93	5
79	82	3
92	95	2
22	50	1
24	31	2
55	76	3
51	54	2
57	78	5
89	93	1
47	66	1
69	82	5
40	44	3
24	56	1
34	36	2
91	100	1
35	37	1
79	86	1
72	73	1
62	64	1
41	48	2
59	60	3
85	100	3
35	57	4
92	96	2
82	87	1
54	57	2
28	32	2
37	38	5
56	58	1
45	50	1
71	73	4
51	75	5
34	77	1
22	36	2
41	99	1
52	54	1
23	54	2
22	46	3
24	50	2
37	58	4
55	57	1
91	101	2
60	63	1
94	101	2
22	27	1
39	56	2
66	71	1
91	98	1
23	91	1
22	26	1
29	49	1
97	98	1
79	87	1
31	55	2
88	89	2
95	96	2
80	89	1
102	106	3
74	85	5
43	77	1
82	82	2
36	39	1
69	74	1
32	34	2
58	93	3
58	69	1
77	80	1
33	35	1
68	70	3
82	88	2
67	75	1
58	61	1
88	99	1
70	72	2
22	37	1
55	96	1
69	70	4
41	45	3
70	74	1
75	91	1
29	33	2
68	71	2
40	78	2
67	70	2
76	102	1
47	49	1
23	102	3
64	70	3
72	76	3
84	101	2
22	55	1
35	61	1
53	68	3
76	91	1
26	47	1
96	99	1
61	95	1
46	65	2
29	31	2
24	37	1
60	82	1
78	104	1
101	105	1
22	54	2
49	93	3
39	84	1
56	70	1
50	74	2
79	83	1
46	52	1
38	54	1
92	94	1
30	81	1
85	86	1
80	91	1
37	40	1
28	31	1
61	67	1
44	79	1
87	89	1
21	24	2
45	51	1
59	81	1
83	86	1
71	77	1
40	99	1
68	103	1
71	74	1
99	100	1
29	87	1
55	67	1
57	102	1
37	56	1
63	65	1
38	42	1
