112	116	2
111	112	4
102	103	5
113	117	4
15	15	6
4	4	6
112	112	12
72	72	8
75	75	20
134	134	14
126	129	2
7	7	14
93	93	13
136	136	13
109	109	6
137	138	4
136	138	2
108	111	5
83	84	8
90	92	7
123	124	8
27	27	10
73	74	2
34	34	23
96	136	1
32	32	12
124	124	35
131	131	22
0	2	2
103	103	6
138	138	12
130	140	1
16	19	1
130	130	23
3	3	10
94	94	7
127	128	9
83	83	3
37	38	8
121	121	19
137	137	16
111	111	6
89	89	19
117	117	15
132	132	14
101	103	1
100	101	11
116	116	13
125	129	2
126	137	2
71	71	5
13	24	1
130	131	3
88	88	22
107	107	9
118	118	14
108	115	2
31	31	13
108	108	20
110	110	16
8	8	2
79	79	5
133	133	14
116	127	4
101	101	18
81	111	1
82	83	3
16	16	12
74	75	11
27	29	5
19	19	14
5	6	10
74	74	24
135	136	3
6	6	12
135	135	21
123	123	24
126	126	19
101	107	1
87	88	3
18	19	14
12	12	8
28	28	12
35	35	12
104	104	4
122	122	22
114	126	2
129	137	2
73	75	6
81	121	2
13	13	8
17	19	3
20	21	7
121	122	6
116	119	2
26	26	17
125	126	16
125	125	18
25	26	11
22	22	3
38	38	7
33	33	12
99	99	6
116	124	4
91	91	14
35	134	2
87	87	16
29	29	8
126	127	3
120	120	10
34	35	4
104	107	5
134	136	1
28	66	6
98	98	12
3	4	9
119	119	20
100	130	3
110	111	8
74	76	7
108	109	10
100	100	19
89	90	3
37	37	5
114	116	2
76	76	9
83	108	4
87	90	1
18	35	2
13	14	4
83	86	1
0	0	11
34	37	5
85	85	3
136	137	5
95	95	10
31	121	4
114	125	3
106	106	5
14	14	6
73	73	9
91	93	3
20	20	22
124	129	2
18	18	16
5	5	32
82	82	10
1	1	10
102	120	4
115	116	5
102	102	16
140	140	11
77	77	10
13	23	3
85	91	3
90	91	4
71	79	5
98	100	1
7	8	5
92	95	1
119	120	1
94	97	1
13	15	4
23	23	4
29	118	3
21	27	7
133	134	10
3	5	6
82	84	6
93	94	5
0	108	3
17	17	7
87	104	5
105	105	1
128	129	12
134	138	2
115	115	17
134	135	10
139	140	1
102	123	6
130	132	2
75	76	1
116	126	2
28	35	3
81	81	5
101	105	2
127	129	5
11	11	3
106	107	4
128	128	10
27	30	4
113	114	3
21	21	7
78	78	12
9	11	7
2	2	7
97	97	4
91	94	2
109	112	1
22	23	1
97	99	4
129	130	11
127	127	14
10	31	2
86	86	10
2	4	3
14	22	1
26	27	1
90	90	9
93	117	4
131	132	7
23	24	4
8	9	2
134	139	4
117	118	2
23	31	3
98	137	1
36	36	11
76	77	4
24	24	7
3	17	1
139	139	13
120	121	2
80	84	2
94	96	1
80	80	20
109	110	3
104	113	1
92	92	5
36	37	4
104	108	3
35	135	1
17	20	1
30	30	4
79	81	2
76	88	1
109	111	4
27	28	4
19	37	1
21	23	3
12	13	3
28	29	6
87	102	1
83	109	1
82	93	1
104	105	4
1	12	3
101	123	1
82	86	1
129	129	19
96	97	2
75	77	1
120	122	4
140	141	1
4	5	2
9	10	5
84	84	4
15	16	4
83	118	5
74	114	3
116	125	1
87	107	3
97	139	2
16	37	6
114	115	1
8	12	4
94	101	4
9	9	6
82	125	3
132	133	2
122	123	3
113	113	7
67	81	3
113	118	2
114	114	7
29	30	2
22	25	2
21	22	7
90	95	1
104	106	2
0	3	2
3	25	4
131	133	6
15	38	1
89	124	1
78	82	1
33	35	2
80	102	2
35	36	1
107	108	1
34	125	1
13	17	1
28	126	2
103	123	1
1	2	4
17	18	7
96	96	1
26	32	1
4	22	2
14	15	3
101	102	4
107	112	2
0	21	1
30	32	2
124	125	2
108	112	4
18	133	1
2	3	1
107	111	1
28	33	4
76	90	2
98	99	3
81	83	1
78	79	2
127	130	1
110	112	1
99	100	2
92	93	3
33	34	1
84	85	2
71	72	1
10	10	1
6	7	1
95	96	3
118	121	1
78	109	1
18	97	3
77	78	1
85	86	1
19	127	2
88	90	2
84	122	1
2	110	2
4	128	2
80	82	3
19	20	1
101	104	1
125	127	1
90	94	1
16	18	1
31	32	1
101	108	1
94	95	1
118	120	1
25	25	2
11	13	1
94	123	1
86	108	1
81	120	1
112	115	1
86	120	1
141	141	1
