88	88	10
2	2	3
63	63	5
102	102	8
66	66	10
133	133	10
95	126	1
22	22	5
118	118	5
13	13	2
74	74	5
84	84	4
111	111	9
95	95	11
94	94	6
16	17	3
1	1	7
70	71	5
113	113	12
20	22	5
8	8	4
106	106	5
91	91	17
29	29	8
26	26	2
107	108	6
21	21	6
99	99	12
45	46	4
121	121	5
79	79	15
3	3	6
18	18	5
87	115	1
100	100	10
111	113	1
92	93	5
126	126	16
98	98	21
114	115	5
61	62	4
67	67	3
6	6	7
58	58	3
112	113	4
78	78	5
54	54	9
30	30	5
106	110	1
15	15	5
81	81	9
18	20	4
112	114	2
32	33	3
46	106	1
29	30	3
135	135	4
20	20	3
59	60	1
80	80	9
117	117	3
75	75	7
93	93	12
50	56	1
23	24	3
105	106	6
77	82	2
21	22	6
67	68	2
94	95	12
5	5	5
76	76	4
68	68	4
27	27	1
87	87	3
107	107	10
123	123	5
92	92	11
11	11	2
114	114	15
4	4	12
56	56	8
62	62	22
59	59	9
110	111	5
71	72	2
62	63	1
52	53	3
113	114	7
133	134	4
20	21	2
26	27	3
110	110	5
123	124	6
98	128	1
119	120	9
54	61	1
129	129	7
103	116	3
86	114	3
33	33	6
44	44	3
10	11	2
25	25	10
126	127	1
16	16	5
70	70	3
43	44	1
103	103	7
106	107	1
98	99	3
95	121	2
124	124	7
128	129	4
120	120	9
50	109	1
24	24	1
97	97	11
96	96	15
60	60	7
89	89	2
92	116	1
75	76	1
1	3	2
55	55	2
104	104	11
112	112	6
54	55	6
43	43	3
127	127	8
61	61	8
98	129	1
66	67	5
88	116	2
104	107	1
93	94	4
131	131	6
116	116	13
0	0	5
25	26	1
83	83	6
125	125	5
80	102	1
102	103	1
122	123	6
64	64	4
90	90	8
72	72	4
7	8	4
82	82	4
119	119	5
114	123	1
63	73	2
57	57	4
17	18	1
65	66	9
56	57	4
12	35	1
128	130	1
89	90	6
127	128	8
49	50	6
19	19	5
32	32	3
55	56	3
121	123	2
73	74	2
121	122	1
85	85	3
109	110	3
115	115	7
50	50	5
105	105	9
95	96	2
63	64	2
73	73	10
0	30	1
54	79	1
23	23	3
102	106	4
53	54	2
116	117	7
128	134	2
123	125	3
101	101	3
86	86	2
47	76	1
77	77	7
18	19	2
37	37	2
3	4	2
108	108	6
31	32	1
4	5	2
69	69	9
122	122	4
14	15	3
94	112	2
109	109	5
53	53	6
100	101	1
14	14	4
78	117	1
50	59	2
125	134	1
115	116	3
35	35	1
71	71	1
90	91	1
45	86	2
9	38	2
77	78	3
94	126	4
96	99	2
72	73	3
31	31	2
32	35	1
6	7	1
118	119	1
30	127	2
134	134	4
30	31	1
1	23	1
11	22	2
107	110	1
65	65	3
107	109	1
27	28	1
51	51	3
28	28	7
130	131	3
76	77	1
36	37	1
89	114	2
108	109	1
35	36	1
52	52	1
97	98	1
120	121	2
114	121	1
64	65	1
12	12	1
81	112	1
77	116	1
99	100	1
43	45	1
132	132	2
75	77	1
50	65	1
34	34	2
103	104	1
125	126	1
123	126	1
2	4	3
124	126	1
14	16	1
5	23	1
104	112	2
130	130	1
46	110	1
99	101	1
62	70	1
99	118	1
104	105	1
121	124	1
0	28	1
96	101	1
24	25	1
8	9	1
21	27	1
50	108	1
101	102	1
0	3	1
