85	85	5
5	5	3
104	105	4
191	191	7
29	29	7
99	99	8
160	161	10
1	1	18
51	51	10
50	51	8
134	134	8
180	180	4
21	26	1
146	147	2
158	158	11
88	88	6
216	216	8
44	62	1
138	177	2
224	224	5
179	180	5
240	240	8
105	105	8
80	80	5
116	116	8
175	175	7
130	131	2
21	22	10
83	84	5
170	170	2
103	103	3
83	83	10
62	62	4
226	226	6
128	128	3
170	182	3
8	8	8
139	139	6
41	41	4
23	23	9
70	73	2
81	82	2
107	107	3
98	98	4
76	76	10
35	35	4
64	96	2
108	108	7
12	13	2
206	206	5
9	9	5
18	19	5
27	28	1
185	186	5
115	115	1
102	150	4
43	43	11
97	97	3
188	188	5
59	60	1
10	11	1
84	85	7
80	82	4
1	2	2
14	14	8
176	179	1
84	84	6
118	118	2
146	146	10
66	66	9
152	152	5
18	29	1
19	19	4
67	67	9
179	179	14
134	167	1
163	163	4
231	236	1
34	34	4
112	151	1
209	209	6
65	112	6
20	20	13
235	235	6
207	207	5
156	157	4
9	69	2
74	74	7
0	7	3
157	157	7
36	36	6
162	163	5
7	7	7
53	53	5
11	11	4
194	194	8
25	25	5
24	25	1
231	234	4
98	100	2
219	219	3
221	222	7
214	216	4
118	168	1
197	198	2
33	36	1
59	59	7
80	90	1
54	54	10
198	198	4
71	71	8
13	13	5
182	182	2
27	27	16
160	160	4
3	3	14
65	74	2
21	34	4
189	196	1
15	16	8
168	169	2
77	78	8
121	121	5
190	196	4
24	24	9
38	38	3
117	117	3
187	189	3
220	221	3
35	78	2
12	14	6
102	148	2
19	20	5
4	4	1
137	137	10
15	15	12
30	43	4
71	72	4
50	50	5
52	52	16
23	33	2
123	125	6
53	57	2
219	222	1
230	230	12
106	106	10
192	193	3
103	118	3
236	236	4
22	41	2
167	167	1
197	197	7
238	239	4
69	69	12
6	6	3
75	75	7
228	229	3
199	215	1
14	16	3
82	83	6
88	178	3
54	62	2
138	140	1
46	46	5
167	176	2
132	178	1
0	14	2
174	175	5
31	31	4
170	174	2
103	104	6
194	195	1
173	174	4
44	44	6
218	218	3
135	135	1
230	237	3
164	164	7
4	14	2
56	56	12
31	33	2
198	200	2
189	189	4
4	16	4
231	231	4
40	41	12
68	68	5
129	129	2
167	169	4
155	156	1
199	199	9
201	201	12
204	206	18
70	70	15
66	67	3
162	164	4
154	155	4
63	63	7
170	171	4
81	81	6
102	149	3
32	33	2
33	33	14
100	103	1
0	0	7
135	167	1
176	176	3
116	155	2
172	173	2
229	229	4
168	171	2
213	215	1
139	141	2
12	12	3
102	102	9
56	57	6
144	144	2
45	45	6
67	68	5
104	116	1
168	182	2
234	234	4
65	65	6
28	42	2
171	172	2
59	61	5
193	194	4
55	55	11
192	216	2
199	214	6
127	139	4
96	96	2
119	180	3
72	72	4
173	178	2
28	28	10
99	100	1
220	220	6
196	196	11
52	57	3
21	21	6
151	152	1
149	150	1
48	49	1
49	50	2
227	227	5
223	223	3
133	133	12
154	157	2
186	188	3
198	220	2
186	186	2
29	33	3
141	142	5
73	73	6
144	146	3
101	101	15
58	59	4
149	149	6
6	7	2
181	182	2
197	216	4
240	241	3
101	103	2
241	241	5
86	86	2
44	45	4
169	169	11
171	174	5
142	142	2
116	132	2
9	13	3
183	183	5
82	84	1
27	29	1
184	184	2
0	39	2
14	15	2
26	153	2
115	118	2
45	83	1
242	242	10
26	26	12
140	140	6
96	110	1
78	78	7
150	150	2
128	152	3
37	37	6
21	23	2
213	230	2
96	98	1
161	161	5
1	3	3
118	178	2
231	232	4
18	43	2
207	208	1
233	233	6
151	151	2
105	150	1
40	49	3
5	14	1
171	176	2
171	171	4
226	228	2
123	126	2
47	47	12
74	75	3
8	9	1
212	213	5
136	147	3
4	11	4
228	228	6
77	77	5
58	58	10
65	66	4
48	48	6
187	188	1
83	85	3
5	230	7
200	200	3
127	129	1
10	10	5
115	116	1
135	136	4
173	184	2
159	159	2
116	118	6
39	40	1
202	202	4
82	97	3
155	155	1
134	135	3
49	49	12
98	99	5
81	83	3
218	223	1
63	64	5
162	162	5
18	18	14
147	147	3
65	67	2
188	189	4
85	86	2
16	19	1
46	82	2
61	61	6
177	177	11
3	14	2
180	182	4
35	36	3
45	46	4
39	74	1
195	196	5
95	105	1
6	16	3
113	114	3
127	127	7
9	10	3
181	188	3
22	22	3
7	9	1
79	109	2
30	30	1
100	101	3
145	146	4
19	24	4
219	223	1
16	68	5
222	222	2
136	154	2
32	32	5
184	185	1
20	21	3
50	106	3
201	219	2
35	44	2
122	225	1
113	113	1
168	176	1
25	154	2
181	181	2
42	42	9
130	130	2
29	31	4
23	69	2
224	225	5
125	125	2
68	72	1
211	212	5
54	73	3
144	165	1
2	14	1
5	7	4
78	108	1
213	213	3
187	190	1
115	117	1
63	112	2
121	122	2
1	8	1
203	203	3
178	178	4
150	151	7
239	239	8
65	104	1
172	172	3
4	5	4
13	45	2
97	131	1
190	190	7
73	74	1
111	111	9
186	187	4
39	39	7
50	52	4
4	39	3
117	119	1
200	229	1
52	69	2
192	213	1
204	204	5
3	29	4
238	241	1
80	116	1
145	150	1
81	117	4
241	242	1
126	126	2
169	176	2
225	225	2
211	211	8
132	132	1
141	165	1
105	129	1
100	100	5
87	87	6
125	179	1
178	179	1
43	69	2
64	65	2
138	138	4
147	148	2
232	232	5
19	40	3
144	145	3
82	82	7
61	62	2
208	208	3
104	104	4
13	17	2
237	237	4
202	227	2
212	218	2
48	159	4
124	127	3
157	188	2
30	37	2
60	60	2
119	119	6
139	140	3
227	228	2
39	43	2
118	121	1
54	65	1
47	48	1
105	116	1
16	41	1
66	68	1
122	122	3
127	138	2
61	69	2
105	107	2
163	166	1
75	106	1
48	53	2
28	29	1
39	42	3
82	117	2
124	126	2
8	36	4
29	50	2
30	31	1
2	16	2
51	54	1
137	162	2
46	47	1
22	23	2
7	30	3
203	206	3
195	195	3
4	40	1
10	68	1
21	221	1
97	98	2
57	71	1
139	142	2
31	109	1
102	103	5
106	128	1
191	193	1
154	160	2
64	64	4
34	56	4
21	48	1
120	120	1
175	178	1
121	151	3
120	148	1
76	109	2
201	224	1
23	60	2
5	6	4
43	47	1
13	14	3
217	217	1
135	188	3
207	210	1
46	49	1
136	136	4
45	84	4
16	16	3
135	158	1
29	46	1
145	175	1
71	73	1
200	214	2
78	110	2
188	193	1
118	119	3
40	40	1
36	219	1
3	8	2
2	2	7
29	71	1
3	229	1
231	233	1
197	228	1
137	232	2
17	21	1
69	153	1
31	49	1
45	54	1
205	208	1
77	79	1
154	154	3
195	211	3
89	124	2
155	159	1
23	40	1
23	222	2
26	27	1
137	139	1
200	217	1
41	42	1
62	74	2
114	114	2
156	156	2
79	79	2
141	141	2
117	120	3
9	207	1
150	152	1
129	136	2
28	38	1
181	187	1
70	74	2
137	140	1
0	1	3
209	211	2
199	200	4
6	41	2
44	83	1
221	221	1
8	10	2
226	227	1
46	53	1
20	227	1
220	222	1
4	7	5
40	42	1
43	45	1
31	35	1
172	174	1
137	138	1
210	210	2
20	22	1
60	61	2
179	184	1
109	109	1
62	64	1
29	44	3
192	192	1
164	165	1
166	166	2
17	17	1
12	15	2
76	77	1
4	6	1
46	70	3
3	7	1
86	224	1
17	65	1
57	59	1
2	29	1
37	44	1
89	89	1
204	207	2
81	84	1
225	226	1
63	113	1
99	183	2
153	162	1
17	19	1
84	133	1
173	173	1
95	95	1
82	86	1
153	153	1
138	139	1
182	183	2
51	52	1
136	165	1
85	133	1
81	128	1
187	187	2
6	8	2
23	24	1
21	41	3
11	230	1
85	118	1
39	41	1
214	215	1
133	176	1
57	57	1
234	235	1
125	126	1
153	154	1
79	80	1
114	121	1
168	195	1
230	231	1
176	180	1
43	44	1
128	129	1
215	215	1
24	42	1
77	196	1
2	3	1
18	23	1
234	236	1
47	75	1
157	166	1
199	210	1
78	111	1
169	189	1
220	224	1
175	176	1
169	170	1
10	202	1
80	81	1
54	55	1
161	162	1
185	187	1
200	219	1
115	150	1
138	141	1
16	66	1
