105	105	3
63	65	1
73	73	1
59	59	1
4	31	3
27	28	5
126	126	8
97	97	6
48	48	8
7	7	5
66	66	5
32	32	4
85	85	7
57	69	3
12	69	2
50	50	3
44	44	4
34	57	3
110	110	8
26	26	12
108	109	12
4	4	2
24	24	1
114	115	1
49	49	4
123	123	4
58	59	2
78	108	3
115	115	4
78	130	3
119	122	3
6	6	1
83	84	1
98	98	7
76	76	8
35	36	2
37	37	4
64	64	5
88	88	5
11	12	2
101	101	4
3	74	2
129	129	2
56	99	2
5	5	7
90	90	8
91	99	2
55	57	2
113	113	4
130	130	1
92	111	1
12	12	2
8	11	3
104	104	9
119	120	4
69	69	8
56	57	3
86	86	3
3	10	3
93	93	3
95	95	5
13	69	2
127	127	7
131	132	3
68	100	1
125	125	1
55	55	8
46	119	3
56	56	7
80	86	5
36	36	3
14	15	1
78	78	7
67	68	1
82	84	4
121	121	4
24	25	3
34	36	1
91	108	4
55	92	2
119	131	1
108	124	3
115	120	3
25	66	5
1	2	2
89	90	2
111	120	8
31	31	2
134	134	1
132	133	5
96	96	5
96	103	1
122	123	2
102	102	8
102	103	1
29	29	8
120	120	3
111	131	2
77	78	5
35	35	1
114	114	3
62	62	2
45	45	4
21	21	5
89	89	7
19	67	1
116	116	6
59	61	2
111	112	3
122	122	3
116	117	2
84	85	2
79	102	4
81	81	1
23	24	1
44	45	1
44	50	4
127	128	1
87	88	2
33	33	2
49	50	5
97	98	1
79	79	4
59	67	5
54	62	1
131	131	4
109	109	3
110	111	2
111	113	1
82	83	3
83	100	1
58	58	4
117	119	1
54	54	2
83	106	1
57	57	4
118	118	4
65	117	1
31	32	2
103	103	1
71	75	2
30	30	3
0	0	4
112	112	3
65	65	3
73	74	2
83	83	7
84	87	1
60	60	2
27	27	2
58	65	2
55	56	1
86	95	1
28	28	6
116	118	3
80	80	3
67	67	3
22	22	3
98	103	3
72	72	2
14	14	1
10	10	2
65	70	3
43	59	1
78	122	2
100	106	3
108	108	4
70	70	5
100	100	1
83	86	1
60	61	3
2	12	2
74	75	1
80	92	1
81	92	1
63	63	2
65	67	1
52	53	3
63	115	2
58	60	2
87	95	2
74	74	3
47	47	1
43	43	1
56	61	2
43	56	1
61	61	2
5	6	1
52	52	3
75	75	5
82	100	1
125	126	2
129	133	1
23	23	2
9	9	2
83	85	2
107	107	1
28	29	1
90	96	1
99	99	2
25	25	2
59	64	1
20	20	1
53	53	1
130	132	1
17	17	1
129	134	2
129	131	4
117	118	3
57	86	2
54	64	1
128	134	2
35	37	3
47	113	1
48	53	2
18	23	1
54	57	2
3	3	2
78	79	2
86	108	1
106	110	1
83	108	2
18	66	1
6	27	1
21	22	3
92	97	2
82	91	3
75	89	1
2	5	1
84	91	2
118	121	2
43	92	1
118	119	1
105	134	1
126	127	1
72	73	1
79	123	2
98	101	1
54	55	1
12	13	1
3	4	1
106	106	1
97	101	1
81	84	1
63	128	1
69	86	1
34	67	1
117	130	3
2	2	1
87	90	1
112	116	1
105	123	1
119	119	2
103	105	1
87	87	1
128	128	1
85	96	1
84	84	1
