88	89	5
86	98	2
68	68	37
42	42	38
39	39	18
76	76	68
79	89	5
30	30	18
92	92	46
69	69	70
91	91	51
71	72	46
90	90	64
41	41	63
48	48	40
74	74	49
77	77	38
62	62	56
88	88	37
61	61	48
45	48	4
85	85	34
24	24	8
55	55	34
28	28	5
64	64	77
56	88	5
67	68	18
94	94	19
56	83	1
82	82	22
66	66	39
93	97	3
60	60	44
85	89	9
87	96	3
79	79	48
92	93	12
65	70	6
101	101	61
86	86	59
95	96	14
35	90	3
50	50	63
25	26	19
78	78	49
52	52	39
47	48	21
51	51	35
34	34	13
100	101	25
61	80	5
36	36	18
56	57	22
31	31	19
40	43	2
26	29	4
96	96	28
84	84	37
50	51	13
79	88	2
97	97	24
99	99	66
83	83	21
73	73	28
29	40	2
59	80	4
58	59	4
85	86	7
61	63	2
47	47	20
45	45	42
86	87	9
61	62	18
37	38	10
44	44	39
59	59	75
49	49	63
84	95	1
80	80	44
67	67	65
43	43	56
56	56	52
57	65	2
94	95	7
81	81	24
48	49	19
75	75	55
85	95	1
63	63	49
98	98	55
59	60	9
93	93	56
46	48	6
62	100	4
70	71	11
97	98	20
81	82	14
68	69	19
72	72	84
87	88	14
100	100	35
78	89	5
65	65	56
53	53	41
74	75	15
57	57	30
102	102	9
92	94	2
43	57	2
64	65	27
84	98	2
65	90	10
70	70	50
96	98	16
101	102	20
89	89	24
72	73	3
41	86	2
87	87	31
94	98	5
44	45	13
26	26	17
20	20	5
35	35	13
79	84	1
41	42	23
95	95	34
50	78	2
57	58	10
86	88	8
71	71	35
58	58	73
59	83	2
61	93	2
66	67	18
20	22	3
93	94	10
24	47	2
33	34	15
99	100	16
69	70	15
89	98	2
40	40	38
54	55	14
27	27	8
87	101	2
90	91	28
79	80	23
44	49	2
63	91	2
63	86	1
77	78	4
22	31	2
76	77	19
46	46	14
83	84	5
49	100	1
52	99	9
63	64	17
59	65	5
37	39	4
27	64	1
36	38	5
20	52	5
36	37	9
40	41	11
30	31	5
67	70	2
66	68	2
52	59	5
52	72	1
66	69	13
42	43	15
80	100	3
47	91	2
86	89	4
51	52	9
96	100	5
51	60	2
89	92	3
55	56	13
49	50	12
56	63	3
52	53	5
25	32	3
33	33	8
93	98	4
45	46	6
54	54	25
38	38	19
41	43	1
91	92	14
98	99	7
84	87	2
37	37	13
62	64	4
91	99	2
95	97	9
69	76	3
80	86	3
29	29	8
64	99	2
62	81	1
100	102	5
53	62	1
82	83	2
24	27	3
66	76	1
23	24	2
93	95	4
57	81	3
53	54	9
23	25	3
51	59	1
58	62	2
54	88	1
81	83	3
32	32	14
46	47	8
62	63	10
50	99	3
80	82	2
94	97	2
78	79	3
48	102	2
53	61	3
25	47	3
40	42	1
43	69	4
33	63	2
23	26	5
65	66	16
95	98	3
29	30	2
42	93	1
24	25	8
96	97	8
65	69	2
60	83	4
32	34	5
28	29	2
66	71	2
61	94	5
81	85	2
49	51	4
32	33	8
99	102	1
59	64	1
46	49	3
89	90	9
59	91	1
83	86	1
65	73	2
86	97	2
94	101	2
24	63	3
93	96	5
47	50	2
52	94	2
33	61	3
35	38	1
88	96	1
40	57	5
79	81	1
79	87	1
50	85	4
42	68	1
38	55	4
86	93	3
25	25	8
51	72	2
86	94	2
66	70	2
47	49	3
30	34	1
68	78	3
58	61	3
31	32	1
80	81	12
99	101	8
81	86	4
51	53	1
49	52	3
39	40	5
22	25	1
45	66	1
64	89	1
43	44	6
45	63	3
93	102	2
26	28	5
43	77	2
61	86	2
44	50	1
49	60	2
98	100	3
35	36	1
33	35	2
52	65	1
57	59	2
49	63	2
33	53	2
31	102	1
56	59	2
57	86	2
46	53	6
62	99	1
36	39	1
80	92	2
22	22	7
56	87	2
66	81	2
86	90	1
84	85	5
60	95	1
72	91	1
75	76	8
61	83	3
80	99	3
66	77	4
70	72	3
49	57	2
60	61	9
84	93	1
60	84	4
53	97	1
59	85	3
34	35	5
89	96	2
56	85	1
68	72	1
64	78	2
64	91	1
46	80	2
65	80	1
40	46	1
63	81	1
32	48	1
64	86	2
53	89	1
82	84	1
37	99	3
63	66	1
81	100	2
73	76	1
71	90	1
52	55	2
34	92	1
87	92	2
53	98	1
52	54	4
64	90	1
60	80	2
64	70	2
64	66	1
57	68	3
85	90	1
86	95	1
65	68	3
41	45	1
90	92	1
50	53	5
55	81	3
22	30	1
91	93	3
52	89	2
79	86	1
82	85	1
23	28	1
59	61	1
37	54	3
58	60	2
55	60	2
41	57	1
26	27	1
22	23	2
38	58	2
69	90	1
23	27	1
57	84	1
84	99	1
31	33	1
68	73	1
71	76	3
59	90	2
59	63	3
64	71	1
63	73	1
44	64	1
50	81	1
58	63	1
33	38	1
62	84	1
51	84	1
49	65	1
52	98	1
23	23	1
68	91	3
98	102	2
38	39	2
24	26	1
84	101	1
64	73	1
65	78	1
77	91	1
93	101	1
65	85	1
82	86	1
34	36	1
94	102	1
29	33	1
58	64	1
87	89	1
25	28	1
96	99	1
27	29	1
48	60	1
