203	204	1
81	81	4
108	131	2
6	7	3
123	123	2
69	70	3
67	69	3
81	85	3
222	222	10
116	116	8
201	202	3
197	198	3
110	139	7
4	4	13
102	184	1
104	105	3
109	109	2
23	77	2
68	68	18
16	17	8
47	47	7
78	79	2
43	44	1
69	69	9
207	207	6
149	150	4
136	136	3
73	73	3
161	175	1
77	77	5
190	190	6
224	224	7
45	45	8
199	199	3
19	19	10
9	29	1
77	78	2
19	40	4
67	67	5
52	53	2
230	232	2
115	115	4
40	40	19
55	55	3
37	38	4
36	36	2
114	116	1
148	225	4
46	46	2
44	53	3
175	176	2
23	23	8
205	206	5
120	121	2
62	62	8
121	141	2
202	202	3
42	42	1
105	105	2
241	241	4
26	46	1
153	153	15
228	231	3
65	66	3
124	125	2
22	120	1
96	97	2
211	215	3
176	177	2
230	231	3
11	29	3
56	56	4
174	174	6
159	160	1
24	25	2
26	26	7
193	193	3
48	48	6
177	177	2
208	208	1
16	16	3
66	67	6
194	194	2
150	156	3
218	219	3
15	15	1
150	150	4
213	216	1
151	152	2
21	21	4
100	100	1
211	213	2
227	227	10
180	182	5
7	7	2
144	144	5
144	147	1
55	57	1
183	183	5
121	121	1
134	134	1
99	118	2
17	17	4
64	64	2
173	174	1
85	170	2
234	235	1
211	223	1
133	133	4
9	9	3
54	54	4
136	181	1
47	48	4
201	201	6
147	148	2
27	32	3
232	233	1
12	14	3
159	175	3
84	95	6
85	85	5
142	142	7
171	171	5
88	88	1
212	221	7
185	186	2
145	188	1
71	71	8
169	169	3
33	35	1
176	179	2
20	21	2
5	14	1
145	150	1
41	41	2
231	231	2
57	63	2
217	217	5
98	101	3
50	50	5
170	170	5
216	216	7
219	219	3
121	123	2
101	105	1
141	190	1
235	235	3
100	101	2
239	239	4
28	28	11
72	72	1
164	164	3
24	24	2
212	213	4
113	113	2
196	196	8
76	76	1
43	43	2
141	142	1
104	104	1
198	209	2
137	137	2
22	22	3
44	47	2
29	36	3
125	129	2
230	230	6
217	218	2
3	29	3
95	95	1
127	127	1
127	137	1
179	198	2
84	85	1
164	173	1
212	212	2
196	197	3
30	30	1
2	32	4
150	151	1
98	98	6
184	184	1
152	152	7
200	200	3
75	78	1
7	8	5
21	22	1
182	182	1
152	153	2
37	37	5
39	39	3
120	128	3
107	132	1
126	134	4
99	128	2
200	201	2
125	125	1
168	171	2
179	180	1
210	210	2
164	165	1
8	8	3
160	161	7
240	240	2
192	192	1
167	167	5
49	50	1
78	78	2
239	240	1
135	135	1
75	77	2
18	22	1
168	168	3
9	122	1
154	155	5
74	74	6
10	10	2
4	5	2
228	229	1
104	107	3
161	162	1
171	172	1
80	92	1
49	49	9
41	49	2
102	102	6
160	160	1
86	86	3
61	61	4
31	31	2
128	129	1
126	126	7
8	12	1
76	98	1
146	147	1
89	102	3
18	18	4
8	16	4
2	2	3
44	45	9
34	36	3
32	37	1
156	156	4
53	65	3
80	80	1
218	218	2
60	60	2
68	77	1
237	237	4
99	103	4
175	181	2
103	105	2
233	239	4
25	25	5
13	14	1
123	124	5
235	236	1
234	234	5
210	213	1
229	229	1
103	117	1
116	125	1
42	75	1
129	129	2
11	15	1
116	117	1
0	29	2
74	122	1
14	14	1
81	83	2
51	51	2
162	226	2
139	139	1
198	199	2
56	57	2
29	29	3
89	89	1
153	187	2
131	131	4
120	122	1
146	146	1
175	219	1
154	154	2
127	128	1
59	60	1
111	114	5
60	76	1
166	210	2
139	141	2
62	63	1
11	11	3
137	138	1
173	219	4
165	176	1
117	117	4
231	233	2
32	32	3
34	34	1
8	13	1
133	134	2
52	228	2
154	192	2
205	208	3
187	187	2
77	103	1
27	27	1
213	213	1
172	172	5
26	124	3
209	209	3
20	24	1
215	223	1
112	112	1
146	211	3
10	11	1
36	57	2
3	3	2
219	220	2
38	38	1
131	230	4
99	99	2
142	143	3
219	225	2
6	6	1
155	156	3
24	30	1
225	226	2
191	191	2
156	157	2
124	127	2
89	98	1
120	123	1
24	36	2
176	178	1
197	197	1
226	228	3
58	76	1
75	75	2
76	77	1
217	219	1
66	68	3
178	198	1
72	75	1
166	166	1
50	53	1
232	232	2
48	100	1
75	95	2
46	47	2
221	221	1
112	113	1
206	206	2
162	163	1
57	80	3
120	120	2
139	140	1
127	130	1
157	158	2
53	53	2
102	106	1
138	138	1
101	101	2
148	149	1
18	19	1
173	173	1
27	28	1
61	62	1
162	162	1
20	20	2
154	191	1
178	180	1
19	20	1
65	65	2
190	192	1
149	158	1
33	36	1
48	49	1
71	72	1
214	214	1
1	1	1
148	216	1
