224	224	6
51	52	10
162	204	1
230	231	6
37	51	3
181	228	2
174	175	3
7	7	15
246	246	10
82	84	6
158	159	5
152	152	12
211	224	1
200	200	10
237	237	27
223	224	9
66	66	11
189	190	2
111	111	17
37	37	8
28	203	1
164	164	19
119	119	7
172	172	15
52	52	12
215	215	19
236	238	2
244	244	8
84	84	8
178	178	7
68	68	12
58	63	6
67	67	5
208	208	10
161	170	3
50	50	13
186	186	4
203	203	19
72	73	2
208	210	3
232	232	14
197	210	3
109	109	10
45	46	2
87	88	3
19	19	15
169	228	2
240	240	16
30	30	9
244	246	2
76	210	1
195	195	4
168	171	4
194	194	11
82	82	18
55	56	11
100	100	16
173	173	8
183	213	2
56	58	5
105	110	1
193	196	3
204	204	9
183	183	7
116	116	13
185	185	11
43	43	13
1	2	4
89	91	5
169	169	10
183	194	6
113	113	11
243	243	5
2	2	4
174	188	2
90	100	4
114	114	9
176	213	4
40	40	8
44	44	9
32	32	10
201	202	3
45	45	8
79	84	2
87	87	4
14	14	12
232	246	2
172	173	7
58	58	10
158	160	2
112	113	2
36	36	12
33	33	8
57	58	6
120	120	9
97	97	4
156	156	9
57	57	17
160	164	2
221	222	7
174	174	17
160	160	3
54	54	7
8	9	4
79	80	10
97	98	5
55	55	5
84	102	2
3	3	4
193	194	5
70	81	1
187	187	6
63	64	8
146	146	3
212	212	17
6	6	8
201	201	22
145	145	8
193	195	10
27	27	16
196	196	5
62	63	2
74	75	3
233	234	2
207	207	13
23	24	3
94	98	3
76	77	11
234	234	9
90	90	4
218	219	9
71	71	8
51	57	3
170	170	9
221	221	14
12	18	6
46	46	13
169	171	12
81	82	7
112	112	18
37	39	1
221	235	6
153	153	6
21	21	8
247	247	6
163	164	7
51	55	2
182	199	1
107	109	5
235	235	7
52	54	1
98	99	3
227	228	3
165	165	17
231	231	6
195	196	3
102	102	4
70	74	2
198	198	9
179	179	9
234	237	8
8	8	4
80	83	2
175	175	9
111	112	9
51	51	30
9	9	10
81	81	9
6	50	3
50	60	2
163	165	5
47	48	4
236	236	18
59	59	10
53	54	5
211	211	6
36	58	2
91	95	1
52	55	1
20	21	2
12	12	3
104	104	8
106	118	2
118	119	6
0	1	4
194	196	2
22	22	13
62	66	2
99	100	2
164	170	1
185	226	5
181	182	1
99	99	7
17	17	7
2	12	1
175	177	3
110	111	2
226	226	11
147	147	5
109	113	4
72	211	3
214	214	10
108	112	7
236	239	1
177	177	8
171	171	6
115	115	7
67	68	4
198	215	2
29	29	11
68	70	3
159	159	10
182	216	4
36	217	2
232	245	3
176	176	13
95	96	3
185	186	4
199	200	7
114	160	2
237	238	3
241	242	4
240	243	1
69	69	6
58	59	2
216	217	2
197	197	15
192	196	4
179	226	1
78	78	7
202	202	7
33	47	4
43	45	1
193	193	5
70	71	5
222	222	4
239	240	7
192	192	5
114	115	5
25	25	10
34	34	9
157	158	1
199	236	2
237	240	3
85	86	6
222	223	7
84	85	10
188	188	3
232	234	10
147	156	1
80	82	6
180	181	1
49	49	14
210	211	7
189	198	3
63	63	11
209	209	6
86	101	2
62	62	16
66	71	2
191	191	15
60	60	11
71	73	4
3	15	3
86	86	5
120	145	5
181	205	1
20	22	2
10	10	2
208	213	3
176	178	4
112	115	1
220	220	17
24	24	14
161	161	3
150	150	8
107	107	3
152	157	3
238	239	3
35	35	6
24	145	3
53	53	7
151	151	5
160	161	2
231	232	1
157	157	13
166	166	9
49	50	7
168	228	2
195	198	2
98	98	7
182	182	15
4	18	3
183	222	3
94	94	8
153	154	3
33	48	4
218	218	6
205	205	6
73	73	8
75	79	4
60	61	3
155	155	11
64	65	3
85	85	4
217	247	2
245	246	7
225	227	4
175	176	4
42	42	9
96	96	8
243	244	3
233	236	2
1	27	1
186	188	4
163	163	4
219	219	5
228	228	2
69	70	3
199	207	3
77	82	2
78	80	1
168	168	7
199	199	5
174	178	1
88	91	2
44	227	1
170	172	3
166	210	1
216	216	7
180	180	14
107	108	5
155	156	4
110	110	15
165	209	3
162	163	6
175	198	2
33	64	3
89	89	12
242	246	2
229	229	10
197	212	4
76	76	5
180	211	3
26	26	12
75	75	6
6	11	1
192	194	1
167	167	3
180	182	1
112	114	1
117	118	2
210	210	7
166	182	6
105	111	5
181	215	2
31	31	7
159	160	5
57	60	1
15	15	12
245	245	5
170	182	1
10	20	5
103	103	2
73	214	2
115	157	3
221	233	2
47	47	1
239	242	7
91	91	4
37	38	5
104	152	1
59	60	1
29	31	6
198	199	2
102	104	1
109	110	5
30	49	2
188	191	2
93	93	11
211	215	1
89	90	3
16	20	1
170	204	2
77	78	7
242	243	8
227	227	9
197	200	3
107	117	1
181	220	1
188	192	4
95	95	7
164	165	2
215	218	2
118	118	2
71	74	2
195	200	2
172	189	2
23	23	13
105	105	4
39	39	6
56	56	7
55	57	1
184	184	9
223	223	3
63	65	2
35	37	2
200	201	11
240	241	3
118	120	2
187	190	4
11	11	4
31	32	2
226	227	4
81	86	1
198	202	1
78	153	4
41	41	7
38	38	13
220	239	1
197	198	3
237	242	1
37	62	4
43	86	1
213	213	5
16	16	8
239	239	4
178	208	1
167	168	1
213	214	6
72	72	9
74	74	2
165	210	2
18	19	4
108	109	1
71	72	2
96	98	2
113	114	2
157	160	1
209	231	2
15	16	3
104	107	2
233	233	6
24	25	1
49	65	3
117	117	5
226	228	5
93	94	7
149	158	1
92	92	2
16	36	2
91	92	5
241	243	1
84	101	2
104	105	2
108	108	3
4	4	2
117	239	2
176	177	7
103	104	3
169	173	3
248	248	3
171	174	2
241	241	5
232	233	7
116	118	4
169	170	4
43	81	2
190	190	6
56	59	2
186	227	1
104	161	1
80	81	1
90	91	1
189	189	6
6	32	1
231	237	2
76	78	3
179	180	3
152	159	3
247	248	2
51	62	2
197	199	3
230	230	6
196	200	1
166	181	4
235	237	1
83	85	1
231	236	1
6	7	2
84	100	1
68	84	1
191	210	1
77	77	6
65	75	1
9	10	4
100	101	1
90	96	2
246	247	3
152	160	3
113	115	1
183	248	5
11	12	2
170	173	3
228	229	2
215	216	3
105	106	4
173	176	2
32	33	1
110	116	2
191	196	1
238	238	2
88	88	7
146	147	1
199	210	2
191	192	6
166	167	1
41	42	1
35	217	4
93	109	1
215	217	5
34	48	1
151	152	1
83	83	2
79	79	8
14	15	3
211	226	1
10	11	1
211	232	2
187	188	5
53	201	1
211	212	4
242	242	2
217	237	1
80	80	5
97	101	4
202	228	3
50	64	1
49	61	2
30	31	1
189	213	3
234	239	2
163	186	2
235	240	2
66	67	3
214	215	1
89	92	3
180	185	4
4	14	1
189	192	3
220	247	1
28	28	6
69	76	3
18	18	10
5	5	5
72	74	1
35	36	2
162	162	3
70	85	1
40	47	1
230	232	1
182	218	2
200	232	1
225	225	5
80	90	1
70	88	2
151	156	1
192	195	1
65	65	3
200	237	1
181	204	1
108	119	1
33	46	1
6	17	1
222	236	1
60	75	1
57	59	2
16	26	3
90	92	2
21	22	2
82	91	5
64	64	3
172	174	1
181	181	3
210	223	1
177	210	1
203	230	1
183	216	1
14	50	1
178	205	1
1	1	1
115	159	1
106	119	1
100	113	1
102	103	1
31	45	1
13	14	2
206	207	2
61	63	2
161	165	1
220	221	3
241	247	1
101	106	3
204	207	2
70	70	2
60	62	2
229	230	2
1	26	2
30	39	1
191	197	1
165	166	4
216	242	2
88	89	1
208	209	3
87	89	2
63	74	1
171	180	1
203	204	2
156	157	1
173	202	1
80	86	1
183	205	2
177	178	2
209	233	1
237	241	2
146	160	1
79	83	1
205	206	2
225	226	1
194	197	1
215	238	1
68	86	1
48	51	1
199	201	1
54	87	1
48	48	5
67	75	1
22	23	1
83	84	1
190	191	3
26	28	2
71	75	1
172	176	1
69	83	2
42	89	1
43	80	1
157	159	2
39	40	1
30	50	2
73	211	1
245	247	1
34	37	1
217	217	2
59	63	3
28	202	1
186	189	1
162	168	1
196	197	1
174	186	1
100	104	1
34	60	1
233	246	1
96	99	1
223	234	1
209	210	2
237	243	1
169	172	1
2	14	1
158	158	1
36	59	1
12	17	1
6	10	2
115	116	1
174	202	1
217	218	1
116	238	2
49	62	1
151	153	1
185	227	1
163	228	1
40	41	1
215	240	1
42	43	2
61	61	1
17	41	1
59	62	2
180	184	2
170	171	1
210	212	1
68	75	1
108	111	1
10	17	1
81	85	1
115	236	1
95	98	1
154	154	1
103	107	1
145	156	1
212	214	1
199	235	1
238	241	1
183	184	1
165	182	1
37	49	1
84	87	1
43	44	1
