92	92	12
3	4	6
58	58	5
73	76	1
93	93	7
117	118	3
13	13	14
106	114	1
12	13	3
81	81	5
79	80	3
111	112	1
97	97	13
66	66	6
106	108	3
6	6	14
25	25	22
44	78	3
108	109	7
82	117	4
62	64	4
114	114	11
110	118	1
90	103	2
125	133	2
35	35	9
15	33	2
55	55	6
119	126	2
67	67	8
107	107	20
103	103	18
36	36	13
53	53	8
115	116	2
18	24	2
88	88	1
15	16	5
101	114	2
46	80	2
29	29	7
11	11	11
96	98	3
106	110	1
120	122	1
66	68	7
52	53	4
65	65	7
57	57	5
127	127	15
100	100	7
71	73	2
21	21	7
66	67	11
132	132	7
27	27	2
83	85	5
49	86	2
20	20	3
15	19	2
108	108	12
26	26	5
117	122	1
109	109	8
8	8	14
115	115	9
113	113	7
131	132	6
90	90	10
5	5	11
123	123	12
43	44	1
72	72	8
83	86	2
96	96	4
128	128	7
94	94	12
54	63	3
84	84	12
10	12	1
56	57	2
77	77	12
105	105	3
78	78	24
87	87	11
104	104	12
98	98	9
7	9	4
86	88	1
15	15	5
49	49	6
45	45	4
107	131	1
20	37	2
96	99	1
23	122	1
71	71	12
47	47	2
84	108	3
99	100	5
88	106	2
21	22	1
16	16	1
125	130	6
105	119	6
129	129	6
95	96	6
52	52	11
55	57	3
43	77	1
1	2	7
99	101	2
99	99	19
0	35	3
59	61	1
123	125	3
49	50	6
28	28	5
10	11	5
130	130	11
43	43	8
121	121	4
95	95	23
97	106	4
34	34	5
4	4	5
116	116	13
43	78	5
31	38	3
57	58	5
100	110	1
7	7	8
10	10	8
73	73	8
80	80	12
106	107	5
104	105	10
91	91	8
23	24	3
6	7	10
125	125	21
50	54	1
55	59	1
68	125	2
55	82	3
131	131	9
64	68	1
79	79	9
0	3	2
59	74	1
68	69	8
43	94	1
117	117	10
134	135	6
10	19	5
106	106	9
126	128	3
59	60	2
120	121	7
11	13	2
131	133	5
127	131	2
54	54	19
117	123	4
32	32	5
86	87	9
50	52	8
69	70	7
57	84	2
8	9	2
114	115	6
56	83	2
118	122	4
61	62	7
59	59	12
24	24	5
101	102	6
110	117	1
79	81	1
58	84	4
60	61	3
38	77	1
112	115	1
38	38	4
52	68	2
54	57	4
134	134	5
56	56	5
69	69	14
33	35	2
129	130	2
52	129	1
76	76	19
3	3	8
111	113	6
71	72	5
126	126	5
113	130	2
120	120	5
50	50	8
63	63	8
122	123	2
13	33	3
64	64	14
62	62	6
55	56	3
71	100	1
64	131	4
30	31	2
101	101	9
5	98	2
113	125	1
116	123	4
48	82	2
33	34	4
111	111	8
81	83	1
1	1	4
124	125	2
43	45	2
116	117	3
63	68	1
102	102	4
55	86	3
25	38	3
84	85	5
13	14	5
123	124	2
75	76	1
30	30	4
121	126	3
70	70	12
28	30	2
33	33	2
62	91	2
27	121	2
130	131	7
85	87	1
111	131	1
85	85	8
116	124	2
79	88	2
74	74	7
55	58	1
81	117	3
85	131	3
62	63	4
61	65	2
0	0	2
5	11	1
84	109	2
122	122	6
45	80	4
64	65	1
58	59	4
43	80	2
108	111	2
89	104	2
93	94	8
58	65	2
44	46	2
47	51	1
95	107	2
24	60	2
80	84	2
98	99	2
37	37	3
75	75	8
92	99	1
106	111	1
56	59	1
119	120	4
9	9	4
86	86	3
61	66	2
87	96	1
0	1	2
1	91	3
7	43	1
39	44	1
95	115	1
14	15	1
58	60	5
19	19	6
100	101	3
78	79	7
72	73	6
12	12	5
67	68	2
22	23	6
80	88	2
89	90	2
107	111	2
110	132	2
95	98	3
18	19	2
4	14	1
118	118	3
0	2	1
91	113	2
121	122	3
46	63	1
79	120	1
36	77	3
118	132	1
53	78	3
78	80	4
119	119	4
45	51	3
46	51	2
81	86	3
6	25	1
86	100	1
123	131	1
28	29	2
112	112	2
133	133	6
102	103	3
100	107	4
79	86	1
89	121	1
17	17	4
108	110	1
105	106	2
68	68	5
101	106	1
119	123	1
77	78	7
24	25	2
121	125	1
52	54	2
86	95	1
2	90	1
94	115	1
110	110	3
34	37	2
128	129	2
88	101	1
19	20	1
53	123	1
52	66	2
31	31	6
108	131	2
54	55	1
89	89	8
125	127	1
22	22	7
20	21	3
37	59	3
127	128	2
18	18	2
4	5	2
87	95	1
107	132	1
67	71	1
2	2	5
45	128	1
45	127	1
44	44	1
105	114	2
54	56	2
55	87	1
91	92	1
132	133	2
117	133	1
74	75	1
99	102	2
44	125	1
19	33	1
76	89	1
124	126	6
111	125	2
32	37	1
27	37	1
80	86	1
34	36	2
77	120	1
71	101	1
124	129	1
107	110	1
82	86	1
87	88	2
45	56	1
86	96	1
48	48	1
87	116	2
60	60	7
16	17	1
70	103	1
53	65	1
126	127	2
92	93	2
105	108	1
9	10	1
9	16	1
5	6	1
6	8	2
124	124	5
59	122	2
23	25	2
18	20	2
36	37	1
79	127	2
87	117	1
47	54	1
14	14	3
94	95	1
31	32	1
60	72	1
70	95	1
70	72	1
73	95	1
23	23	1
45	47	1
113	114	2
65	66	1
6	36	1
46	127	1
132	134	1
103	105	1
57	130	2
62	65	3
37	39	1
53	82	1
53	117	2
81	119	1
68	131	2
129	131	2
34	35	1
56	127	1
107	108	2
56	71	1
113	124	1
104	114	1
105	112	1
32	42	1
61	67	1
9	14	1
73	101	1
110	111	2
60	69	1
127	129	1
11	14	1
4	12	1
26	121	1
122	131	1
68	130	2
88	99	1
43	46	1
42	43	1
95	97	1
25	26	1
66	69	1
50	66	2
69	93	1
128	134	1
65	82	1
54	86	1
42	78	1
42	45	1
77	110	2
119	122	1
110	130	1
96	108	1
57	127	1
97	99	1
83	84	1
56	58	1
118	120	1
97	107	1
81	85	1
7	8	1
75	88	1
118	119	1
82	83	1
83	83	1
112	114	1
