36	36	4
136	141	2
130	130	10
88	88	4
21	21	7
127	127	9
4	4	10
121	121	1
79	79	9
135	135	10
6	13	3
138	138	7
25	25	8
34	34	4
11	13	4
90	90	6
20	20	5
7	7	4
76	76	4
122	122	6
81	82	2
124	125	2
81	85	3
131	131	7
86	86	9
110	110	7
26	27	2
25	26	5
132	132	10
16	17	1
83	88	2
126	126	3
22	22	6
111	111	3
113	113	5
95	96	2
134	134	17
12	12	3
9	9	3
29	30	1
100	100	6
128	128	4
84	84	3
130	139	1
124	124	8
27	28	2
72	72	4
121	123	2
116	116	7
8	10	2
115	115	3
29	29	9
24	24	4
82	86	2
3	4	6
24	30	1
102	119	4
17	17	9
26	26	4
98	98	5
22	25	2
74	74	5
22	24	1
112	117	2
95	95	3
119	119	4
77	104	2
30	30	2
81	83	3
94	115	1
103	103	8
104	111	3
81	81	7
123	123	8
23	24	4
119	121	2
132	139	1
101	107	2
107	126	2
138	139	2
126	139	2
20	21	2
108	108	3
117	120	6
110	111	1
129	129	2
139	139	5
125	125	4
137	138	2
128	129	6
33	34	6
8	9	8
16	16	5
96	96	3
81	91	2
77	102	2
123	124	6
75	75	6
107	111	2
6	6	2
0	21	2
97	97	1
112	112	6
7	26	1
35	35	4
109	117	1
80	86	1
1	12	1
74	112	1
136	136	8
97	125	2
37	37	6
27	27	6
136	138	3
102	102	4
117	121	3
87	88	6
129	138	3
111	112	1
109	109	5
18	18	5
101	101	6
24	26	2
96	97	4
85	87	2
133	133	6
82	82	2
93	93	1
116	124	1
100	135	2
87	96	1
135	140	1
105	107	2
71	101	1
91	91	2
32	32	1
120	123	1
140	140	3
87	87	3
31	31	2
3	3	2
120	120	1
103	106	1
10	11	2
2	2	1
5	5	3
71	74	2
105	105	1
133	137	1
37	38	1
71	71	3
114	114	6
127	128	2
1	1	6
27	37	4
80	85	1
89	89	3
129	136	1
6	71	1
104	109	3
82	83	2
27	34	5
128	137	1
102	118	1
107	118	3
103	134	2
79	81	3
13	19	1
28	29	1
118	118	1
19	28	1
36	37	2
31	38	2
77	77	1
28	28	2
71	72	3
83	83	2
13	13	1
108	118	1
17	18	2
135	136	2
75	76	2
89	91	1
19	19	2
33	33	1
78	78	1
1	32	1
76	77	1
95	137	1
14	14	1
83	84	2
107	109	1
30	31	1
99	99	1
84	85	2
73	75	1
77	79	1
35	36	1
38	38	1
137	137	1
103	116	1
72	73	1
107	107	1
23	26	1
95	97	1
116	126	1
