8	8	13
67	67	17
55	55	8
79	79	11
86	86	5
7	8	5
72	72	7
88	88	9
8	59	1
10	10	9
2	2	13
56	56	15
83	83	10
15	16	4
17	25	4
13	52	2
6	8	1
14	14	7
31	31	9
62	62	2
46	48	3
51	51	7
27	28	5
69	69	11
57	57	6
68	68	6
77	80	3
15	15	3
20	28	5
48	50	2
68	69	3
86	87	4
30	30	6
50	58	6
6	6	12
7	7	10
49	49	11
75	75	8
67	68	1
70	71	6
83	84	9
65	65	6
28	28	1
52	52	3
12	13	5
15	75	5
20	49	2
84	84	5
23	49	2
19	19	11
10	11	1
61	62	3
54	54	6
19	22	2
0	0	5
20	20	7
26	26	13
60	60	4
76	76	8
81	81	9
82	82	8
60	61	3
4	4	13
89	89	9
56	57	1
52	55	2
63	63	16
59	59	6
17	26	4
25	25	11
27	27	10
7	10	2
11	12	4
13	49	2
59	60	2
6	77	1
55	56	3
27	54	1
5	6	5
73	73	9
2	68	3
61	61	4
81	83	4
58	58	5
47	64	1
50	50	9
77	77	4
63	64	1
48	58	1
88	89	1
9	9	8
21	22	1
72	73	5
4	5	6
71	73	2
59	61	1
3	89	1
64	64	7
16	16	9
14	77	1
53	55	1
11	11	4
26	27	3
48	48	5
77	87	4
23	58	2
78	80	4
74	74	5
66	66	7
47	65	1
50	51	1
53	53	7
19	20	6
1	2	5
21	21	2
57	89	3
17	71	1
85	85	8
59	64	2
51	53	1
3	3	9
9	25	2
17	22	2
78	78	10
47	58	1
81	85	2
1	1	3
72	79	2
21	71	1
84	85	2
47	48	3
60	62	3
9	59	3
46	47	1
17	17	1
70	70	5
13	13	1
57	58	1
78	79	2
63	65	2
9	10	3
82	83	1
3	14	2
81	82	1
71	79	3
52	53	3
23	23	4
47	47	1
48	65	2
23	73	1
72	74	1
50	65	3
79	80	2
51	52	5
12	12	4
22	22	4
90	90	1
3	4	1
21	23	3
27	59	4
6	10	1
8	9	2
25	59	1
49	55	1
48	49	1
25	26	2
77	78	5
74	78	1
9	11	1
64	65	2
49	50	1
80	80	3
80	83	1
69	71	3
4	19	1
73	74	1
6	76	1
16	17	1
5	27	1
6	7	2
80	81	2
23	27	1
79	81	2
5	9	1
30	31	5
46	46	2
34	34	1
14	15	2
20	22	2
76	77	1
48	52	1
5	22	1
50	52	1
87	87	4
23	51	1
10	15	1
49	52	1
10	12	1
10	13	1
24	24	1
9	13	1
53	56	1
9	24	2
52	54	1
47	50	1
85	86	1
51	65	1
70	73	1
