24	24	5
71	71	17
106	106	12
0	26	2
18	19	7
65	65	8
122	129	3
74	74	14
56	58	7
125	125	5
133	133	10
22	22	12
72	73	6
45	45	3
69	69	5
28	28	5
69	112	3
0	0	7
49	49	11
50	50	26
89	90	3
54	84	1
127	127	9
3	3	9
83	84	4
101	101	9
2	2	6
114	114	5
25	25	8
129	131	10
63	97	3
98	98	5
72	72	8
91	92	11
94	94	4
53	81	3
99	99	15
84	85	3
7	7	8
62	62	17
124	125	3
16	16	5
97	98	5
28	63	3
79	79	10
15	15	1
84	84	8
4	5	1
85	85	6
52	52	7
33	128	4
3	4	5
56	85	3
66	84	1
74	88	2
6	7	3
44	45	7
60	60	11
6	6	18
43	43	10
18	24	2
6	8	4
31	76	2
32	32	4
127	128	2
79	81	4
106	108	7
107	131	2
110	110	8
120	127	6
103	103	9
77	77	13
8	8	5
73	73	15
7	18	3
66	111	1
59	83	1
11	11	10
102	102	8
8	24	1
128	129	4
68	68	6
53	54	2
45	78	4
7	43	3
33	60	3
83	83	8
60	127	4
19	19	8
96	118	3
4	4	2
85	87	3
83	129	3
57	58	1
113	123	4
21	21	3
75	127	4
55	56	4
62	63	4
134	134	6
80	80	10
66	82	4
9	10	1
91	91	11
124	124	6
75	76	9
86	87	7
118	120	14
50	52	2
19	21	2
132	132	9
130	133	4
60	122	3
105	105	9
124	128	4
64	91	2
109	117	3
109	109	1
12	12	8
114	115	4
100	100	8
7	11	1
99	101	1
108	108	2
82	85	4
93	93	11
75	75	4
94	95	3
116	116	9
90	90	12
96	96	7
27	28	3
14	14	15
15	19	4
56	56	6
117	119	3
86	108	3
76	76	13
54	58	1
50	69	2
111	111	7
82	106	1
5	5	2
9	16	1
83	106	3
35	38	5
58	60	1
126	126	6
82	82	4
78	78	9
89	94	1
65	130	3
11	12	3
88	88	16
53	82	4
113	113	8
38	38	6
79	80	3
22	24	1
8	25	6
96	135	6
53	53	15
44	124	2
48	71	2
54	76	1
77	78	4
120	120	3
116	117	4
58	122	8
36	37	7
64	113	2
23	24	2
27	27	3
112	113	5
122	122	7
34	34	4
86	109	2
35	37	2
43	60	2
126	127	1
10	36	1
123	123	3
1	1	6
111	116	1
92	92	5
42	126	2
10	37	1
70	94	1
66	78	4
130	131	5
83	110	2
37	37	8
25	27	3
23	23	4
56	61	4
55	57	3
129	129	1
101	102	4
21	35	3
58	58	7
73	74	4
84	91	2
95	95	4
106	107	2
97	97	6
131	131	7
31	31	2
49	50	3
87	87	6
45	47	1
29	29	4
114	116	5
86	86	5
131	133	3
123	124	3
63	63	4
124	126	1
133	134	2
115	128	1
117	118	4
130	130	6
118	118	4
85	92	2
92	98	1
0	1	3
115	127	3
123	134	1
85	99	1
107	107	5
58	117	2
16	17	5
13	13	1
36	36	4
25	26	2
113	116	5
53	99	1
120	124	3
13	33	1
20	20	1
96	97	2
63	115	1
66	66	7
87	93	4
109	123	1
119	119	8
73	104	3
99	100	2
12	33	2
101	113	2
86	110	3
125	126	1
59	59	2
61	62	3
52	88	1
98	114	2
65	69	2
52	74	2
26	26	2
128	128	1
83	134	2
13	32	3
95	114	1
104	104	7
101	124	2
42	43	1
44	44	5
22	23	5
35	35	2
57	59	2
94	102	1
29	105	2
132	133	5
80	81	3
112	122	2
94	101	4
48	49	1
18	18	1
48	48	1
71	105	4
102	103	1
120	121	2
44	64	2
67	67	3
68	110	2
115	115	4
53	80	2
116	118	3
50	51	3
114	127	3
51	51	1
61	61	1
59	60	3
81	106	1
55	55	2
66	130	1
21	61	2
57	57	2
115	116	2
69	75	1
81	98	1
105	132	2
112	112	6
1	2	1
50	59	2
50	134	2
52	100	1
93	99	2
45	124	1
80	104	2
19	24	1
68	69	1
60	64	2
50	55	2
30	30	2
15	16	2
33	33	2
17	17	1
68	81	1
82	110	1
109	111	1
122	124	2
135	135	2
5	6	1
107	108	2
64	64	1
81	81	1
67	78	1
66	67	2
61	82	4
46	47	1
8	43	2
70	105	2
56	109	1
81	86	1
117	117	2
76	123	2
108	110	1
19	20	1
31	32	1
106	111	1
95	98	1
63	65	1
114	128	1
67	114	1
9	17	2
64	123	1
124	132	1
16	27	1
4	70	1
62	64	1
85	88	1
59	126	1
24	25	1
72	74	1
3	5	3
29	30	1
60	126	1
92	106	1
97	116	1
64	65	1
100	117	1
46	108	1
8	11	1
120	123	1
120	126	3
83	107	1
111	112	1
59	74	1
89	89	1
10	10	2
61	122	1
54	54	1
48	86	2
79	121	1
14	28	1
64	122	1
68	117	1
58	59	1
29	63	2
118	119	1
70	70	1
94	96	1
69	70	1
70	91	1
