132	133	11
111	111	8
102	102	3
94	94	14
128	128	13
20	20	19
7	7	11
0	0	14
145	147	2
17	17	21
137	137	7
26	28	3
90	90	10
107	107	3
3	3	13
48	52	1
152	153	2
20	21	7
92	93	12
112	112	15
121	121	14
8	9	8
104	105	8
30	30	12
80	81	7
32	35	6
4	4	2
78	78	7
49	50	5
90	91	14
10	10	9
151	152	4
155	155	17
48	48	7
33	34	7
91	92	4
98	99	8
19	20	2
122	142	2
125	125	4
120	120	6
116	116	10
50	50	10
94	95	7
114	114	14
113	114	5
112	143	2
66	66	4
115	115	14
103	104	12
148	148	14
41	41	7
130	131	3
9	12	5
98	98	4
34	35	7
45	47	10
145	145	6
114	115	6
3	154	1
158	158	12
1	158	3
1	1	14
28	28	10
54	131	2
15	30	4
79	83	3
131	131	6
70	70	1
157	157	10
13	13	9
33	33	14
120	121	6
113	113	9
16	84	1
38	40	1
0	1	2
35	37	3
77	77	14
5	5	8
125	126	2
47	47	8
85	88	4
25	25	18
135	136	9
110	111	7
104	104	14
31	31	11
111	140	6
21	22	10
131	133	6
23	24	18
141	141	13
93	94	2
146	146	4
38	39	8
86	86	7
81	105	3
32	32	5
107	117	2
141	142	7
103	103	8
67	75	1
46	46	3
139	139	14
71	71	3
115	116	6
37	37	8
24	24	12
31	34	4
83	83	5
27	50	4
152	152	4
52	81	1
45	45	11
103	107	1
9	16	2
146	147	6
35	35	4
148	149	6
52	53	7
91	91	13
94	133	3
123	123	12
138	138	10
133	133	4
52	152	2
117	117	15
42	42	14
118	118	9
20	22	6
150	152	3
132	132	8
22	32	2
26	26	8
97	98	3
16	16	13
116	117	13
149	150	5
106	106	8
65	75	1
136	150	2
29	30	6
89	89	7
121	122	3
19	19	12
38	38	6
86	87	3
18	18	11
13	22	3
117	118	4
3	98	2
128	129	3
96	96	6
25	73	1
105	105	12
77	78	2
119	119	7
84	85	2
115	138	1
22	22	18
156	157	2
100	100	4
87	92	4
135	135	10
62	62	8
32	38	2
9	21	1
46	138	3
80	86	1
150	150	14
127	127	10
149	149	13
45	48	3
67	67	5
112	113	5
46	47	9
144	144	5
2	2	10
31	32	8
36	144	1
40	41	6
27	28	4
13	15	3
39	39	15
26	141	2
32	33	4
6	32	3
130	132	3
55	55	4
109	109	4
88	88	18
47	104	2
11	20	2
109	110	6
119	120	5
142	150	1
1	3	3
129	129	19
31	39	2
14	24	2
30	33	8
79	80	9
52	52	3
8	20	2
101	101	10
92	151	1
87	87	18
69	70	5
13	26	3
84	84	5
143	148	2
123	124	5
110	155	4
95	95	4
8	119	2
68	68	2
14	14	5
105	106	11
15	15	2
48	71	3
4	5	5
148	150	1
24	25	4
83	87	5
85	86	6
51	51	5
12	16	3
48	51	1
136	136	10
137	159	3
55	56	7
131	134	7
18	20	2
8	8	7
29	40	4
110	110	10
73	73	1
13	14	3
97	97	7
17	102	3
13	30	2
130	130	7
111	141	2
21	35	3
91	135	1
106	107	4
36	38	3
92	92	11
13	17	1
113	116	2
28	39	2
132	134	1
12	12	2
97	129	2
62	135	1
53	70	3
28	92	3
65	71	2
11	51	3
8	30	1
139	140	3
102	103	1
91	151	1
9	9	6
93	93	4
26	140	2
86	96	3
154	154	5
54	54	7
54	132	1
125	127	2
154	155	9
79	79	5
64	64	6
151	151	9
75	75	6
133	157	4
22	27	3
131	132	5
34	34	2
87	104	4
24	73	1
10	12	4
81	81	6
21	21	4
8	11	3
107	154	4
7	29	5
41	42	5
143	149	3
29	50	1
45	71	3
14	16	1
108	108	3
147	153	3
65	65	9
50	138	1
40	50	4
66	70	2
8	16	2
67	68	2
42	43	4
134	158	2
44	44	6
112	115	1
22	23	1
29	29	6
137	139	1
36	37	5
127	129	1
150	151	3
142	142	4
107	123	2
123	143	1
110	114	2
40	40	10
150	153	2
138	141	1
43	43	10
84	86	1
36	36	11
111	122	2
5	7	1
84	87	1
80	80	8
124	126	2
47	48	2
22	29	2
17	18	3
42	141	2
99	100	2
83	84	2
69	71	1
46	67	2
27	30	1
79	157	1
48	49	3
43	143	1
124	125	2
47	66	3
10	19	3
44	45	2
134	159	2
126	126	6
63	63	1
106	111	1
113	122	3
40	43	1
155	157	3
13	32	1
68	69	1
12	13	2
11	12	3
140	141	5
25	31	1
82	82	6
133	159	1
143	152	1
143	150	2
81	82	3
65	66	2
77	90	2
117	148	2
6	6	1
94	134	3
102	104	1
122	123	4
103	117	1
117	121	2
64	65	1
1	2	2
51	52	2
129	130	6
43	141	1
23	51	1
49	49	2
11	117	1
23	25	3
54	56	1
149	152	2
63	64	5
8	10	1
56	57	1
138	139	2
76	76	2
85	85	5
21	26	2
52	54	4
132	138	3
53	135	3
68	72	1
27	152	1
46	81	3
43	51	1
51	152	1
75	76	1
155	156	2
23	23	4
78	79	2
111	155	2
153	153	1
67	72	1
147	147	1
90	92	3
16	17	4
30	40	1
11	11	4
96	98	2
10	11	1
87	88	1
3	4	3
93	95	3
53	114	1
50	51	3
35	36	1
86	97	2
136	151	2
53	53	5
139	141	1
62	68	2
33	139	1
7	12	1
21	27	1
87	119	2
117	142	2
89	90	1
15	16	1
92	95	1
122	122	3
72	73	3
95	134	1
39	40	2
137	138	1
21	32	1
93	113	2
95	96	1
25	30	1
85	87	2
113	143	2
77	79	2
35	54	3
35	38	2
42	149	1
25	142	1
41	45	2
37	38	1
8	36	1
143	143	2
47	49	1
54	55	1
110	151	1
104	123	1
11	17	1
123	142	1
45	46	4
8	21	1
89	91	1
26	27	1
28	29	1
68	70	2
156	156	1
56	56	1
124	124	3
110	136	2
111	112	2
23	30	1
157	158	1
38	54	1
33	140	1
62	69	1
135	137	1
16	18	1
76	77	1
24	28	1
85	157	1
109	111	1
80	156	1
126	128	1
124	142	1
47	71	1
71	72	1
133	134	1
112	122	1
66	67	1
146	154	1
