64	66	2
16	16	5
95	95	7
132	133	17
14	14	5
67	71	1
76	77	3
19	19	3
134	134	4
136	138	6
81	81	7
5	11	3
131	131	15
115	115	13
115	116	2
48	48	10
66	67	10
24	24	7
60	100	4
128	130	1
123	123	3
2	3	6
68	69	4
109	111	3
71	71	12
32	32	3
117	117	4
22	23	1
130	135	2
119	119	9
82	117	3
125	125	7
88	97	4
69	70	7
85	86	11
107	107	6
124	124	7
132	132	8
128	134	8
100	101	5
28	29	2
79	79	14
126	126	11
13	13	4
58	58	6
77	77	3
4	4	8
139	139	4
69	69	3
130	130	3
10	20	3
10	11	3
88	89	2
3	5	3
61	61	3
85	85	3
17	17	3
146	146	7
57	58	5
102	102	3
89	90	5
93	94	2
58	128	2
141	141	10
144	144	7
108	108	1
5	75	6
104	138	1
10	10	8
30	30	10
106	141	4
120	120	6
111	111	3
121	121	9
136	136	7
100	100	6
119	120	3
74	74	6
142	143	4
91	91	2
107	132	1
9	9	3
11	11	3
102	103	7
63	63	2
110	110	9
99	100	8
135	136	4
103	103	7
75	75	8
8	143	7
94	94	5
18	39	1
41	41	1
87	138	3
128	128	8
60	61	1
97	97	7
82	82	8
104	111	3
21	22	2
39	40	2
105	105	1
122	123	3
66	66	3
64	64	8
42	42	3
62	92	2
35	35	3
49	72	4
83	83	3
113	113	5
133	133	5
29	30	4
8	8	11
128	131	1
130	131	1
22	22	4
49	50	1
67	68	5
51	51	6
53	53	6
80	81	1
17	18	3
21	21	3
52	86	2
109	109	5
57	57	6
104	104	4
115	127	4
43	55	1
3	25	3
0	3	3
36	36	4
60	91	2
38	38	5
23	23	6
82	84	1
108	110	2
118	119	7
20	20	3
50	50	5
70	96	1
75	80	1
108	109	4
67	82	2
118	125	3
77	78	2
26	26	2
99	99	6
138	138	9
111	140	1
104	106	2
71	72	4
129	129	12
25	25	5
88	88	3
50	52	4
135	140	1
0	16	6
118	118	9
28	28	16
0	0	1
13	65	3
126	127	1
120	131	1
123	124	2
40	40	2
100	138	4
21	38	4
34	34	5
106	106	3
60	89	3
9	10	5
29	29	4
39	39	2
125	141	1
131	138	2
49	49	7
79	80	1
37	37	2
126	130	1
66	69	4
42	43	1
4	5	4
92	92	2
127	127	2
56	56	3
18	18	3
68	70	2
73	75	2
84	84	4
111	112	4
64	68	2
11	20	4
60	60	8
73	73	1
101	101	5
94	95	1
135	135	2
13	17	1
62	130	3
90	90	2
24	27	1
65	69	2
131	132	3
1	1	10
43	43	6
84	85	2
98	98	5
53	63	1
54	54	2
12	12	1
101	102	2
24	39	5
48	54	3
140	140	3
75	78	7
59	60	3
113	114	3
108	111	1
11	99	1
119	131	1
31	32	1
62	62	2
90	140	2
133	134	5
52	53	1
126	129	1
124	125	4
35	36	1
68	68	4
103	124	1
49	74	1
95	96	2
6	34	2
106	131	1
142	142	2
110	111	1
52	52	1
117	121	2
104	108	1
109	125	1
131	141	1
40	41	3
55	57	1
111	130	1
3	34	1
33	40	1
122	122	3
42	55	1
37	38	1
72	72	2
139	140	3
32	41	1
97	98	2
15	31	2
112	113	2
20	21	2
2	2	2
89	106	4
26	27	1
23	24	1
105	106	2
131	134	1
63	64	1
122	141	1
65	65	1
136	140	2
136	139	1
24	38	1
118	120	2
114	114	1
94	96	1
96	96	2
120	142	1
128	129	1
95	99	2
59	59	1
112	114	1
89	91	1
84	104	1
24	35	1
135	138	2
61	94	1
116	116	4
67	67	1
121	123	1
102	122	2
125	126	1
76	76	1
47	51	1
106	107	1
131	135	3
98	109	1
109	124	1
33	34	2
60	102	1
129	130	3
117	136	1
99	102	1
53	54	2
10	21	1
137	137	1
65	67	1
100	141	1
87	87	1
14	32	1
68	86	1
58	125	1
15	50	1
143	143	1
54	55	1
108	115	1
72	73	1
