34	35	1
62	62	18
20	20	15
47	47	5
116	119	3
30	31	7
106	106	12
38	38	11
61	61	12
101	102	1
15	16	6
79	81	3
28	63	1
13	13	11
42	42	1
32	32	16
62	64	7
15	15	12
74	74	21
87	87	12
125	128	2
1	1	5
10	11	9
27	28	2
53	53	9
25	27	3
79	80	3
29	30	8
122	123	8
64	66	4
78	78	10
126	126	17
127	130	6
112	112	23
57	57	1
101	101	10
78	79	3
81	82	8
67	67	13
52	52	9
125	125	19
55	59	3
115	116	4
87	88	5
81	81	10
85	85	9
69	69	14
11	11	6
109	109	8
26	26	12
113	114	1
84	84	19
26	27	5
49	52	4
105	105	16
101	103	4
93	93	7
31	31	5
87	92	1
71	71	8
3	6	5
96	105	9
78	83	1
80	80	6
43	44	5
110	110	19
57	59	7
74	81	2
30	65	4
102	103	8
79	79	19
16	17	3
21	21	10
90	95	1
7	7	3
50	56	1
120	121	3
90	91	7
61	65	1
31	55	4
50	50	10
94	94	11
28	28	7
107	107	11
17	62	2
56	57	8
55	55	13
62	65	4
122	122	9
59	59	20
121	121	6
126	133	1
61	83	1
11	13	2
99	99	14
91	91	10
68	68	12
9	35	1
26	53	3
6	6	10
116	116	9
1	3	7
88	127	4
114	115	9
24	25	4
129	130	2
43	43	3
83	83	9
132	133	14
9	9	9
19	65	1
119	119	14
83	84	7
63	63	12
112	114	6
16	19	6
130	130	12
3	4	7
54	54	8
9	36	1
111	111	9
118	120	4
128	128	7
6	16	1
17	18	2
80	127	3
23	23	8
118	119	4
95	96	5
118	118	21
0	0	6
82	82	9
103	103	22
1	2	8
99	125	3
129	129	14
70	70	26
113	113	23
124	124	18
127	127	19
80	82	2
131	131	18
114	114	2
35	56	5
117	117	23
106	107	10
108	109	9
115	115	12
36	56	2
38	96	1
113	115	6
28	29	3
96	100	2
92	92	6
65	65	13
77	79	3
44	44	7
36	36	9
130	132	1
90	90	11
125	126	2
5	5	2
19	19	10
118	122	4
103	104	10
58	58	11
93	94	3
96	96	6
60	60	16
45	45	11
89	89	6
106	110	3
63	64	2
22	22	6
100	100	8
74	112	1
7	8	5
27	33	2
12	12	9
81	83	1
57	77	2
35	35	9
123	123	7
25	37	8
84	86	6
133	133	3
92	100	4
62	63	3
56	56	11
33	33	10
102	102	12
114	117	1
58	59	9
32	34	4
71	72	2
63	65	2
71	93	2
89	90	3
63	91	2
30	30	4
72	74	2
66	68	4
11	57	1
3	3	4
9	55	1
57	58	7
84	85	4
134	134	5
52	53	1
105	112	2
49	57	2
72	72	9
86	87	10
98	98	8
43	45	1
98	99	4
54	55	6
20	21	3
121	122	4
125	127	1
24	52	2
86	86	11
27	27	8
119	130	1
64	64	9
8	8	6
73	73	7
77	77	21
43	58	2
31	32	1
112	113	2
75	75	6
60	61	3
66	67	2
66	66	6
16	16	8
16	69	5
21	23	1
135	135	5
132	132	10
127	129	1
72	73	4
76	77	7
17	17	5
82	118	4
82	83	5
24	50	2
45	49	4
54	56	2
24	47	1
94	99	7
27	63	2
29	29	6
96	97	3
14	14	8
97	97	6
2	2	5
19	22	6
104	105	1
14	15	5
77	78	5
5	6	1
37	38	2
46	130	3
106	113	1
3	27	1
119	120	3
31	107	2
46	46	1
123	125	3
4	4	2
15	17	1
3	12	1
2	3	3
102	114	2
105	114	4
45	53	1
95	95	12
33	34	2
0	1	3
10	10	4
104	104	14
95	99	2
61	91	4
59	66	3
75	120	4
34	65	1
122	125	2
18	21	3
6	13	1
22	109	1
18	66	3
77	117	2
87	131	1
12	13	5
87	128	1
76	76	3
83	85	4
35	36	1
92	93	1
110	111	3
5	14	2
24	24	7
37	37	5
17	68	2
68	69	6
69	70	2
2	4	1
59	60	4
105	106	1
119	129	3
19	24	2
74	75	4
18	18	1
98	112	2
58	116	1
49	55	2
6	7	2
100	124	2
42	59	1
49	49	2
78	81	1
124	125	3
107	111	1
4	5	1
10	59	1
120	120	6
18	19	2
49	50	2
11	45	1
90	96	2
6	11	2
74	76	2
12	35	1
73	74	2
73	120	1
91	92	6
87	91	1
60	66	2
64	65	7
2	31	2
92	94	2
131	134	2
108	108	1
88	88	10
8	16	1
60	62	1
99	100	1
43	59	1
90	93	2
43	57	1
53	54	2
55	60	2
118	129	1
62	92	2
22	23	2
25	26	3
44	63	1
8	9	1
94	95	3
44	53	1
111	112	4
116	118	1
107	108	2
21	22	1
85	86	4
87	97	2
61	63	3
126	128	1
123	128	1
88	129	1
84	117	2
87	121	1
106	108	1
18	20	2
8	50	1
44	55	1
126	134	1
79	95	1
129	133	1
9	11	1
117	118	1
38	102	3
62	87	2
25	25	1
67	68	1
130	131	1
19	21	2
127	128	2
34	34	6
11	48	1
95	97	1
75	88	1
115	117	1
79	83	1
123	124	2
98	114	1
110	113	1
53	55	2
21	25	1
96	101	1
102	126	1
43	50	1
50	54	2
109	110	1
58	85	1
77	82	1
117	119	1
11	59	1
0	2	1
116	117	1
99	129	1
18	63	2
42	43	1
114	116	1
9	13	1
