102	103	9
113	113	14
91	91	13
23	23	24
121	121	9
106	106	16
66	67	5
69	70	8
30	31	4
65	65	20
102	102	18
57	58	6
87	87	6
114	120	10
14	15	6
16	17	5
12	13	16
48	48	7
66	80	3
106	110	3
90	91	16
95	96	7
45	77	3
123	123	24
127	128	5
104	104	25
77	79	8
1	2	7
3	3	7
131	133	4
81	83	3
14	14	17
55	112	5
101	102	13
112	113	9
33	33	14
92	92	13
71	72	12
94	95	7
116	116	12
70	70	19
3	4	6
3	30	3
28	28	6
49	50	4
68	117	4
99	99	14
11	11	15
26	26	8
78	78	13
132	132	5
68	68	14
90	90	18
72	73	7
57	62	1
20	20	6
71	71	24
86	129	7
42	42	5
118	122	5
80	80	26
0	0	2
13	13	12
122	122	20
27	27	11
72	72	12
107	110	2
126	126	12
64	64	17
128	129	3
53	54	1
85	86	4
52	52	18
83	83	7
60	60	16
79	79	21
15	15	5
7	7	10
6	7	9
89	120	1
77	77	12
101	101	22
51	51	2
55	57	1
114	114	7
8	8	5
62	62	10
44	45	5
53	100	1
133	134	6
74	75	7
76	76	16
4	4	10
45	45	5
113	114	2
103	104	3
9	11	6
10	11	6
128	128	15
115	116	3
103	103	13
120	120	8
95	95	16
64	129	2
37	37	8
10	10	2
55	58	3
24	24	4
18	22	1
75	75	17
54	55	7
78	79	4
21	21	11
119	119	13
24	26	5
29	29	14
93	93	18
43	44	1
50	52	4
69	69	23
111	111	11
109	109	7
66	107	4
36	36	5
85	85	10
124	124	15
130	131	1
83	96	1
120	121	6
47	103	1
66	79	3
121	122	6
127	127	10
112	112	7
60	61	5
50	50	26
73	73	12
30	30	16
86	86	4
0	1	4
125	125	13
89	89	11
131	131	15
99	100	6
34	34	7
79	80	7
108	108	3
114	115	10
123	124	4
88	121	2
32	32	10
96	96	8
127	129	3
118	118	9
67	67	9
44	44	5
117	122	11
134	135	2
56	56	15
56	112	1
76	120	1
53	109	2
65	69	11
111	113	2
57	57	9
74	74	9
76	79	1
88	88	14
82	83	4
31	31	4
13	15	1
92	97	3
130	130	13
52	53	4
44	100	3
129	130	4
83	95	1
59	82	3
121	125	5
46	46	4
98	98	8
61	61	3
112	114	5
73	74	3
66	78	1
109	110	1
17	17	6
107	108	7
43	43	3
100	100	15
54	54	6
54	105	3
121	124	3
94	94	6
92	98	2
8	10	4
8	23	4
126	127	7
133	133	4
131	132	4
47	49	1
57	69	1
67	70	2
59	59	3
115	115	8
129	129	7
91	93	5
97	97	3
105	107	1
35	35	4
82	101	1
18	19	2
54	57	4
22	23	1
2	2	11
70	71	4
82	84	3
61	123	2
84	84	7
120	122	5
128	131	3
6	6	6
53	53	6
72	74	4
28	29	1
49	59	2
108	110	4
92	93	5
122	124	3
82	82	2
60	76	3
12	12	9
83	109	1
117	118	4
6	13	1
106	109	6
110	111	2
4	6	2
93	94	4
77	78	9
69	131	1
23	24	5
66	66	12
56	57	3
82	111	3
107	107	4
5	6	3
113	116	3
105	109	1
97	98	4
120	123	5
43	103	3
105	110	3
87	88	4
111	112	7
50	113	3
106	107	6
33	34	4
116	119	4
105	105	10
6	12	4
43	64	4
53	73	1
108	115	2
7	8	2
62	63	1
64	65	3
33	35	3
80	81	4
4	5	7
46	103	1
54	56	2
53	74	1
4	15	1
108	111	4
99	102	8
22	22	7
11	23	3
76	123	4
88	89	1
132	133	3
68	69	1
58	59	1
20	21	2
117	119	2
107	115	2
110	110	1
122	123	2
25	25	4
76	77	3
65	68	2
90	99	4
83	84	1
88	123	1
81	95	2
67	68	4
87	95	2
20	23	1
54	114	2
79	106	1
71	105	2
83	86	4
19	19	2
22	25	1
86	87	4
89	90	2
67	117	2
130	133	3
7	11	2
47	47	1
52	116	3
78	108	1
15	22	3
101	105	2
36	37	4
100	103	1
105	106	2
62	126	1
100	102	2
108	109	2
63	92	2
21	22	2
71	73	1
48	49	1
75	105	2
89	122	3
124	129	1
21	23	1
58	70	1
13	14	1
84	91	2
31	32	2
15	27	1
58	105	1
67	110	3
49	49	1
50	102	1
111	114	1
96	99	3
63	63	5
26	27	2
115	118	1
63	64	1
52	73	2
87	129	1
130	132	1
52	54	1
81	81	1
66	69	2
35	36	1
117	117	1
55	55	2
99	101	2
76	114	1
124	125	1
5	5	1
71	75	1
33	36	1
53	108	1
107	109	1
134	134	1
98	99	1
75	76	1
81	85	1
34	35	1
83	85	2
38	38	3
114	116	1
53	115	1
58	62	1
47	112	2
2	31	1
25	27	2
90	94	1
83	110	1
118	120	1
64	128	1
