63	63	10
105	106	8
98	98	19
65	65	14
113	113	17
60	102	2
27	28	8
40	40	25
83	83	22
68	68	21
25	27	4
62	68	5
109	109	16
57	57	21
23	23	14
74	74	19
91	91	16
54	54	10
40	41	2
52	52	22
89	90	7
71	71	17
99	101	3
104	104	17
78	79	6
70	70	29
73	73	24
35	35	11
72	75	6
55	55	10
109	110	15
106	107	11
92	93	4
26	26	8
80	80	31
87	88	12
60	60	17
34	36	5
76	76	15
79	79	24
22	22	7
66	67	19
103	103	21
72	72	34
106	106	6
37	38	1
102	103	12
93	93	13
89	91	9
55	95	4
86	88	1
46	46	17
50	50	11
48	48	25
62	63	4
61	81	3
110	111	13
85	86	15
46	100	4
112	112	24
89	89	15
111	111	16
101	108	7
78	80	4
67	70	4
85	85	23
78	87	1
47	47	4
42	44	10
96	97	15
87	87	15
19	23	1
102	102	11
31	32	2
25	25	10
49	50	15
64	67	3
93	95	9
67	67	30
107	108	10
90	91	7
75	76	5
65	92	4
64	72	3
31	36	1
58	59	21
77	77	9
98	99	13
24	24	5
56	114	3
79	86	3
59	61	12
69	69	6
60	61	5
47	99	6
58	76	1
79	80	8
98	100	4
97	97	12
39	41	1
71	90	2
63	64	5
110	110	15
68	69	5
67	68	8
104	107	4
86	86	8
113	114	6
110	112	3
56	56	18
30	31	15
112	113	11
84	100	5
59	59	12
37	37	8
91	108	5
39	40	3
54	79	2
114	114	18
82	83	7
108	109	6
84	85	3
75	75	10
86	89	2
99	100	4
72	87	3
66	66	13
101	101	13
84	84	17
103	108	17
27	27	7
66	69	6
108	108	10
25	26	1
69	70	4
92	92	9
74	77	5
44	44	13
19	19	8
97	100	3
94	95	8
100	101	9
92	111	7
80	81	15
43	43	14
91	92	10
81	81	15
30	30	18
77	78	2
54	56	2
94	108	6
95	95	25
97	98	11
49	49	23
50	51	8
78	78	25
57	77	2
29	41	4
61	61	25
39	39	9
75	78	4
105	105	10
59	60	9
24	47	3
33	55	2
33	33	4
87	90	3
24	30	2
101	103	2
48	50	2
28	28	12
62	62	14
63	78	2
33	109	2
58	80	4
100	102	2
31	31	9
58	67	2
63	90	1
34	37	1
65	93	2
99	99	16
42	42	14
42	43	5
72	76	7
26	40	3
80	103	2
32	36	2
36	37	2
88	88	4
100	100	21
58	100	2
71	79	7
105	109	1
92	94	3
92	104	2
91	94	1
27	36	1
60	74	4
73	77	3
20	22	13
109	114	2
43	44	2
82	101	5
62	64	8
90	90	7
73	74	3
94	94	9
55	77	1
109	113	1
69	85	2
70	71	6
49	52	2
98	108	1
107	107	2
20	24	2
60	99	1
61	68	1
25	31	3
82	82	5
108	110	3
56	102	2
86	90	1
80	87	3
64	64	12
101	102	7
109	111	3
52	53	4
75	79	3
60	68	3
26	27	1
114	115	2
90	110	2
29	31	7
35	36	5
44	56	2
56	79	2
33	34	4
36	38	1
65	90	4
46	54	5
52	99	2
76	77	7
36	36	5
34	38	1
51	52	2
91	109	4
57	93	1
67	69	3
68	81	1
76	87	3
83	85	1
89	110	1
28	29	3
48	49	3
29	29	1
46	53	2
39	54	3
103	104	3
87	89	3
22	23	4
74	76	6
91	107	3
79	81	2
56	65	1
49	113	1
74	75	9
95	97	6
20	20	2
93	94	8
56	59	1
20	23	1
81	103	1
96	96	4
93	105	1
71	72	2
38	38	2
70	86	2
78	103	1
76	78	6
105	107	2
46	101	1
55	56	3
59	69	1
87	91	2
70	88	1
83	84	8
94	101	2
23	26	1
26	30	1
103	109	2
58	93	4
98	111	2
41	41	4
57	79	1
95	96	2
93	111	3
55	64	2
59	62	5
77	87	2
34	34	3
50	52	2
45	46	1
102	108	1
104	106	6
92	113	2
63	88	1
106	109	3
33	37	1
21	22	3
60	83	5
85	88	1
102	104	4
104	115	2
94	99	1
37	39	3
71	74	1
46	47	2
21	44	1
54	55	3
38	56	1
24	33	1
23	24	1
21	21	1
64	65	6
55	59	1
61	83	1
68	87	1
68	70	1
24	25	3
25	28	1
111	112	2
53	60	1
61	64	1
25	29	4
69	86	2
88	90	1
81	82	1
79	103	2
105	111	2
83	101	3
88	89	2
53	53	6
103	105	2
78	88	1
58	78	2
58	61	2
56	57	3
63	72	1
83	86	1
55	78	1
78	107	1
36	39	1
109	112	2
95	109	4
60	96	2
42	45	2
58	58	2
85	89	1
26	29	2
94	104	1
84	86	2
47	48	4
73	81	5
55	61	1
44	46	2
40	54	1
75	77	1
64	73	3
92	110	2
65	69	1
45	60	1
32	38	1
45	45	5
56	78	1
78	104	2
84	90	3
84	99	1
56	95	1
27	38	1
26	36	2
63	66	2
46	59	2
80	82	1
45	53	2
111	113	1
112	114	1
97	99	1
90	98	1
104	108	1
41	42	3
55	57	3
86	93	1
61	87	2
55	94	1
31	33	1
30	52	1
71	76	1
20	21	1
72	73	2
62	65	1
39	53	1
110	113	2
38	39	2
72	92	1
56	77	1
59	91	1
106	108	1
61	69	1
61	62	1
38	41	1
104	105	1
73	75	1
57	107	1
60	92	1
34	55	1
51	97	2
53	56	1
24	36	1
23	45	1
