69	69	6
90	96	1
74	74	7
79	79	5
56	56	11
35	36	6
26	27	11
94	94	8
73	73	10
78	85	1
26	30	7
77	77	12
95	95	8
22	25	12
68	68	8
59	76	1
79	98	2
43	44	2
71	71	23
48	72	2
49	49	14
102	102	15
105	105	5
24	24	9
102	103	1
39	71	4
65	66	7
99	99	4
51	53	5
31	31	14
67	69	4
104	104	8
101	101	11
23	24	1
81	81	6
32	32	12
70	70	10
43	43	15
24	71	2
57	57	12
87	87	8
56	89	2
85	85	9
25	25	5
60	60	12
73	77	3
75	75	10
30	88	3
104	105	1
82	83	8
27	29	16
69	78	3
98	98	13
53	54	6
20	21	1
82	82	3
83	87	2
29	29	11
73	82	2
86	87	8
30	33	3
72	74	1
97	98	4
93	93	7
83	84	3
34	95	3
76	76	13
39	39	13
55	55	14
48	49	2
41	41	3
64	65	4
97	97	8
52	52	8
62	62	9
29	89	1
33	34	6
21	85	4
83	88	2
103	103	8
80	80	4
68	69	8
96	96	6
64	73	3
56	57	2
27	27	7
61	61	7
83	83	9
19	76	1
36	36	3
73	76	3
30	47	7
40	45	2
31	45	4
31	69	5
29	46	3
38	38	16
87	88	6
78	97	3
100	100	7
51	51	9
72	73	3
56	94	2
65	83	2
40	40	12
90	91	4
102	105	1
64	64	11
21	21	5
84	84	7
33	33	12
99	101	1
46	69	3
53	53	10
48	48	9
88	88	9
37	37	10
30	58	1
45	45	7
27	28	3
47	47	6
45	68	1
63	63	16
25	67	2
100	106	4
37	38	1
58	58	6
57	62	4
26	48	3
50	51	2
89	89	4
51	52	2
90	90	8
59	59	3
22	22	8
30	30	7
50	62	3
95	96	3
28	28	2
46	46	2
54	54	12
50	50	9
68	76	5
66	66	4
65	65	7
86	86	2
66	69	3
51	64	3
61	79	1
72	72	9
34	34	4
69	83	2
47	48	3
98	107	2
89	95	2
42	42	6
71	72	2
50	72	3
25	46	1
79	80	2
92	92	8
61	62	4
61	78	2
36	37	4
38	72	2
39	41	4
27	40	4
37	44	1
33	86	3
106	106	1
25	28	8
25	35	3
28	72	1
41	45	1
46	49	2
44	44	18
24	48	1
25	60	1
67	68	3
82	86	4
58	64	3
70	71	3
89	94	1
49	67	9
51	78	1
86	88	3
29	78	2
27	69	2
89	90	6
39	93	3
50	64	1
99	107	3
31	68	2
107	107	1
26	26	2
79	97	3
51	100	1
45	66	3
20	25	4
38	75	1
28	32	2
32	98	3
101	102	1
98	99	5
33	94	1
91	91	4
23	23	1
82	94	1
31	98	1
58	63	3
67	67	3
78	78	3
35	38	2
34	92	1
43	68	3
41	49	1
62	63	3
81	98	1
38	50	1
75	76	2
105	106	2
56	58	2
53	102	3
106	107	1
26	29	1
59	96	2
27	89	1
74	76	2
35	35	4
20	85	2
33	36	1
47	82	5
96	97	1
21	25	2
51	62	2
85	86	1
22	23	1
73	74	2
78	80	1
25	39	1
52	76	1
84	85	4
38	70	2
58	62	1
41	42	2
38	39	2
28	36	1
25	48	1
92	98	1
72	85	1
49	66	2
56	85	1
46	88	1
54	78	1
28	47	1
21	45	1
59	64	1
59	97	1
55	90	1
91	92	1
37	71	2
70	91	1
44	45	1
46	68	1
54	55	1
22	33	1
76	77	1
100	101	1
59	60	1
37	43	1
41	44	1
50	65	1
89	106	1
31	32	1
38	41	1
69	70	1
24	70	1
42	91	1
66	67	1
90	94	2
38	45	1
45	89	1
65	67	1
