139	143	2
48	48	15
7	136	2
118	118	7
97	98	2
36	36	7
108	108	18
5	5	7
44	44	19
138	169	7
113	114	8
11	11	13
50	52	4
16	39	6
91	95	3
24	24	18
27	27	7
67	161	2
80	80	9
18	20	1
141	141	12
40	40	14
99	99	12
152	153	11
20	24	3
10	12	3
46	76	2
123	123	18
22	22	10
1	1	19
168	168	14
26	26	21
150	150	13
102	105	2
122	123	2
149	150	6
114	114	10
3	3	11
54	67	2
133	133	11
92	92	12
85	99	3
107	107	8
42	42	12
51	63	6
163	163	6
10	13	1
49	73	5
17	17	26
88	89	15
48	49	4
162	162	11
162	163	4
94	94	8
87	97	6
66	66	6
164	164	3
167	167	15
121	121	7
140	141	6
102	102	25
119	119	13
115	115	10
57	57	2
14	15	5
93	94	10
13	13	24
23	23	13
161	161	12
21	22	6
136	136	11
117	117	11
152	152	11
157	158	3
115	124	3
153	153	13
69	69	46
153	154	10
63	64	3
146	146	13
17	38	2
151	152	7
18	18	20
71	71	9
107	108	3
83	83	11
118	119	2
160	160	10
114	115	1
4	4	20
34	35	4
9	149	1
12	12	13
151	151	15
156	162	2
56	56	8
101	101	3
146	148	5
104	105	5
37	38	4
147	147	6
6	7	4
98	98	11
89	89	6
6	6	10
110	111	6
44	45	3
54	54	15
8	10	3
41	41	10
4	5	11
104	104	9
81	82	8
96	102	1
46	46	5
137	138	8
111	111	21
166	166	6
131	131	5
111	112	4
105	105	12
19	19	26
113	113	8
5	18	1
39	40	5
38	40	5
144	145	7
145	146	10
37	37	8
112	135	5
119	120	2
87	99	3
11	133	5
84	84	13
126	126	3
112	154	8
14	16	5
47	47	14
106	117	4
12	13	3
54	56	4
0	21	1
78	78	4
127	128	2
87	87	8
48	53	3
67	67	4
48	160	1
109	109	11
9	9	11
119	122	7
89	93	3
10	11	3
96	96	17
43	44	8
113	120	1
48	52	3
138	138	5
126	127	4
129	130	5
53	54	8
108	109	5
24	25	7
25	25	16
144	144	2
122	122	14
79	80	2
76	76	2
15	24	3
125	147	2
157	157	5
0	6	3
16	16	21
91	93	6
132	132	5
123	162	8
7	7	21
0	0	7
12	15	7
95	95	7
78	81	1
5	6	2
165	165	8
103	103	8
75	76	4
34	34	10
79	79	8
86	86	4
130	130	5
51	51	11
71	86	2
62	62	8
8	12	1
127	129	6
68	163	1
78	79	3
69	113	3
74	74	9
118	125	6
110	110	9
8	13	3
160	161	1
8	9	4
35	43	2
154	155	2
135	136	5
143	143	8
2	3	4
170	170	10
95	96	3
45	46	4
11	12	10
140	140	6
53	53	11
148	150	3
85	85	13
147	148	6
43	43	7
82	82	7
125	126	4
82	84	2
3	7	2
116	116	9
39	39	14
167	168	5
10	10	15
73	73	8
148	169	4
112	112	22
112	119	1
47	49	1
154	154	11
139	154	3
73	74	2
23	24	4
0	1	5
52	52	12
90	90	4
2	2	4
159	159	13
48	67	4
6	14	5
129	129	4
38	38	14
67	69	3
150	152	6
137	137	7
9	12	1
76	79	1
74	75	6
135	135	4
20	21	5
8	14	2
49	50	6
8	8	14
81	81	6
50	50	2
92	93	4
68	162	2
100	100	1
124	124	9
145	145	7
6	12	3
92	94	5
160	162	5
96	103	1
18	19	5
155	156	10
67	68	10
91	91	8
15	16	11
169	169	12
33	33	4
156	156	18
109	110	10
112	113	1
15	17	2
139	140	6
38	45	3
45	47	2
63	63	6
159	164	1
57	58	2
88	90	2
18	150	3
86	87	2
153	161	1
49	63	4
115	116	4
15	15	5
9	15	5
126	128	5
142	143	2
14	25	2
121	122	3
90	91	7
120	120	5
63	65	2
46	165	2
52	53	7
11	26	1
35	35	5
70	72	3
77	79	4
128	128	3
81	83	4
144	149	2
73	77	2
110	116	4
10	25	2
28	28	11
92	98	3
85	88	3
99	100	7
47	82	1
8	23	2
106	106	10
88	88	4
55	55	5
49	49	13
100	107	3
50	73	3
47	84	3
138	141	1
104	106	2
1	2	11
134	134	6
98	114	4
114	165	1
67	120	3
164	169	3
53	64	1
14	14	4
164	165	3
47	50	5
28	41	1
125	125	3
13	87	2
131	132	5
3	4	3
158	166	2
149	149	5
157	160	3
45	45	4
33	34	2
76	80	3
155	155	3
2	4	2
93	93	10
21	21	6
100	101	1
93	95	2
43	58	2
146	147	1
165	166	1
72	73	1
42	111	1
13	134	4
5	10	4
126	129	2
58	58	3
158	158	5
52	54	3
84	113	1
69	107	4
167	169	2
143	144	3
65	65	2
149	152	2
114	169	1
19	20	1
148	168	2
162	164	1
119	121	2
85	86	4
36	37	3
94	96	2
69	162	1
111	159	1
10	26	1
111	158	3
70	70	4
66	67	1
135	140	2
16	17	3
117	118	3
0	5	3
148	148	3
110	112	2
44	136	2
123	124	2
102	103	4
142	142	1
5	16	3
51	71	3
6	40	1
9	10	2
156	160	5
55	56	5
105	107	1
53	75	1
46	47	2
20	20	6
112	115	1
124	125	3
10	133	2
85	97	2
49	112	1
13	129	1
47	48	1
133	134	4
44	53	1
126	142	1
148	149	5
113	154	3
161	166	3
39	69	2
139	142	2
9	148	2
50	76	5
50	72	2
118	124	3
48	68	1
144	148	1
163	164	3
125	127	3
127	127	6
113	118	2
83	84	3
117	133	1
46	50	3
98	99	3
103	104	2
112	160	2
65	151	2
107	159	1
97	99	2
20	22	3
11	167	1
17	93	1
65	66	3
148	164	1
97	97	9
16	21	1
139	139	2
74	88	2
130	139	1
159	160	2
89	100	1
64	64	4
68	68	2
114	116	1
141	145	5
136	158	4
17	19	1
105	106	4
62	63	2
26	27	4
134	135	2
27	28	1
35	36	1
123	154	1
46	75	3
48	73	1
96	97	1
24	143	2
13	135	1
117	134	1
41	53	1
89	94	2
163	165	2
156	157	2
56	109	2
80	81	1
97	100	2
27	140	2
69	120	1
146	160	2
138	142	1
7	14	1
53	108	1
15	21	1
162	170	1
38	41	3
133	136	2
116	152	1
57	61	1
112	155	2
68	119	1
168	170	1
18	92	1
40	65	1
101	103	1
120	163	1
94	95	1
145	162	1
93	111	1
57	63	1
61	62	1
116	117	1
91	94	1
9	150	1
154	156	1
3	81	2
128	131	1
150	151	1
165	169	1
89	105	1
16	130	1
