130	131	2
86	88	4
76	76	9
93	93	3
67	126	7
111	130	6
114	114	10
29	29	10
112	112	5
44	45	2
58	62	7
89	89	8
50	50	19
53	53	17
111	111	8
57	57	5
73	73	3
8	8	7
107	118	3
107	113	1
102	102	6
104	104	3
93	94	1
18	18	4
86	86	6
11	21	1
128	128	2
3	4	2
132	133	2
91	92	5
102	103	5
45	45	6
90	91	4
86	109	3
21	32	2
71	76	1
28	28	8
110	110	7
115	120	2
88	89	3
98	100	7
25	30	2
68	69	5
34	34	7
57	58	4
62	81	1
87	88	7
67	103	3
99	99	14
63	79	4
129	129	7
107	107	4
105	106	3
67	67	9
128	130	4
7	7	9
25	29	5
79	79	8
75	75	3
49	101	3
4	21	4
101	101	5
100	100	4
24	24	13
78	81	2
113	114	2
113	113	11
95	98	6
85	86	5
80	81	4
66	67	9
12	12	7
0	0	9
51	51	12
72	74	3
108	108	10
4	19	1
119	119	2
21	25	2
6	48	3
116	120	1
5	5	4
16	16	6
44	44	6
40	40	10
17	17	7
77	98	1
94	95	8
103	119	1
73	81	6
41	41	10
98	98	2
116	119	3
46	46	19
31	32	1
130	130	12
42	43	2
12	13	2
118	118	7
122	123	3
70	71	7
117	118	4
55	65	4
29	30	5
122	122	9
16	23	3
59	78	3
69	70	2
49	49	9
76	99	5
40	41	8
115	115	11
51	68	2
99	113	1
68	77	4
30	30	5
118	119	5
27	27	4
28	29	2
52	125	1
100	108	2
97	97	1
33	33	6
26	26	4
52	53	4
93	120	4
117	117	4
78	79	10
67	68	2
54	54	18
106	106	8
121	121	4
95	108	4
75	77	1
80	80	5
106	107	3
114	119	2
2	2	4
125	125	3
111	117	1
60	89	1
88	88	4
39	39	5
62	62	1
3	21	2
90	90	2
22	22	7
5	19	1
74	74	6
100	102	1
107	108	6
45	46	3
98	118	2
83	83	7
81	82	1
87	87	2
56	56	9
66	66	3
43	43	11
107	119	2
42	42	3
70	117	2
95	95	6
47	89	2
6	6	2
56	57	4
120	120	4
126	126	5
13	13	7
73	74	5
6	7	1
55	55	4
85	90	4
109	109	6
70	70	6
38	42	2
27	28	3
102	118	3
52	110	1
14	22	5
75	76	3
127	127	5
11	11	2
79	80	2
109	125	2
19	21	3
58	81	3
133	133	2
58	59	5
28	30	5
127	128	1
51	88	1
71	72	1
14	14	2
129	130	7
57	112	1
71	71	15
97	98	5
84	84	6
67	69	2
109	118	1
31	31	2
3	3	3
93	111	4
82	83	1
123	123	4
95	124	2
94	94	8
11	12	1
130	132	1
19	19	1
20	20	4
19	22	2
16	17	1
100	101	4
114	116	2
9	11	2
95	113	1
47	47	5
66	87	1
51	52	1
64	114	1
18	29	1
48	48	6
132	132	2
49	53	5
131	131	3
72	86	2
25	25	7
96	96	4
60	60	3
69	123	4
103	103	1
77	77	2
10	11	1
108	125	2
69	69	5
53	57	5
125	127	3
98	120	1
58	72	1
113	115	1
126	127	2
72	126	3
1	6	2
18	23	3
113	119	4
123	125	1
67	87	1
102	108	1
74	83	6
54	56	1
116	117	3
27	32	3
111	131	1
77	78	1
85	89	3
32	32	3
9	9	2
77	83	2
41	87	1
65	66	3
14	15	3
21	21	1
51	54	1
64	80	1
4	4	2
46	116	2
52	52	3
105	105	5
78	80	1
129	132	3
108	119	1
86	87	2
72	72	2
19	20	1
116	116	1
9	10	2
52	99	1
64	65	2
97	118	1
64	64	1
124	125	1
21	23	1
74	81	2
125	128	1
19	27	1
58	98	1
20	30	1
59	60	2
62	63	2
77	126	1
7	12	2
76	100	4
65	65	2
59	82	1
38	38	1
15	16	1
97	117	1
59	59	2
10	10	1
92	92	1
72	88	1
51	67	1
64	100	2
46	47	1
99	114	1
43	44	1
91	91	3
120	122	2
22	25	1
26	27	2
1	2	1
72	77	1
47	114	1
115	116	1
78	78	2
48	51	3
13	14	1
111	125	1
29	39	1
64	110	1
33	34	1
87	128	1
95	97	1
54	110	1
65	100	1
121	122	2
81	81	1
8	9	1
50	68	1
82	82	1
13	42	1
99	100	1
51	87	1
46	54	1
128	129	1
6	31	1
2	19	1
66	86	1
109	110	1
