101	101	16
99	100	9
13	13	20
59	70	1
133	133	18
130	130	11
61	66	6
125	125	19
96	96	13
63	63	27
8	8	5
26	26	23
43	43	12
11	11	9
3	3	19
4	5	3
124	124	18
124	125	5
0	1	10
106	129	2
106	111	10
26	65	1
127	134	2
70	83	3
116	121	2
93	94	12
104	104	25
59	59	11
126	127	20
33	34	12
2	2	8
135	135	4
50	52	9
116	117	8
94	95	19
100	102	6
89	90	12
34	35	3
91	92	4
51	54	2
117	118	14
77	77	21
92	92	11
95	97	2
101	103	4
17	17	4
82	83	12
12	12	10
79	79	11
18	18	2
108	108	11
71	71	21
20	20	11
131	131	18
29	29	10
90	91	6
44	44	14
103	105	2
59	60	5
5	5	15
119	120	9
76	76	24
10	10	19
16	54	8
128	128	12
100	125	6
19	53	2
83	84	17
50	50	24
80	80	34
110	110	10
58	58	17
53	60	2
115	115	12
54	85	4
90	96	3
47	52	3
110	117	8
106	107	7
34	37	3
131	133	3
48	49	4
68	77	5
123	124	10
23	23	18
52	53	7
33	37	6
74	74	10
16	59	6
116	116	24
120	120	13
111	117	12
101	113	3
78	83	5
102	127	13
55	57	2
99	99	20
73	74	8
121	122	4
77	78	16
103	111	2
15	15	8
123	123	14
55	55	16
119	121	3
118	118	25
68	69	4
101	112	2
66	78	3
106	109	1
95	96	8
99	134	2
45	54	9
19	19	17
85	86	10
83	85	5
96	130	1
64	65	7
100	101	14
71	72	15
11	12	5
24	25	4
31	31	11
37	45	3
86	86	17
111	112	3
97	97	18
35	35	7
1	4	3
51	56	2
27	27	17
15	16	10
32	34	3
130	131	5
111	111	22
10	17	6
87	91	3
69	70	14
114	115	4
134	134	26
74	75	6
97	98	3
54	54	22
72	73	13
132	134	6
13	26	4
20	47	3
104	105	9
110	111	3
70	70	26
58	60	1
23	51	5
120	121	3
50	59	3
73	73	29
67	68	6
23	24	7
52	54	3
127	129	2
117	117	16
86	89	5
66	67	15
122	122	21
92	93	6
25	26	6
114	114	11
83	83	13
79	88	3
80	85	2
42	45	6
127	127	24
73	75	2
92	121	2
69	69	18
56	58	4
109	112	2
14	18	3
63	64	5
62	64	7
86	87	3
67	67	6
46	47	2
65	68	1
91	97	5
37	37	12
24	24	13
4	47	1
75	76	5
129	129	8
89	120	3
13	14	4
50	85	4
77	79	6
7	77	4
87	92	2
86	91	4
112	114	2
82	86	4
118	131	4
123	134	2
127	128	4
103	129	4
98	98	15
66	68	7
16	17	3
112	112	11
126	126	27
81	81	21
93	93	14
82	84	8
87	87	16
4	35	4
120	131	9
65	66	5
47	49	1
25	25	12
87	121	2
52	52	7
52	56	2
90	92	3
53	53	17
103	103	17
115	116	10
96	125	5
78	80	5
49	54	3
14	14	12
25	53	4
132	133	6
92	98	7
99	102	1
118	119	5
61	80	1
90	93	2
38	39	1
100	121	4
54	55	11
90	101	2
44	73	2
82	82	12
50	54	8
106	110	8
117	119	4
80	90	4
7	8	1
61	61	17
90	90	12
33	33	9
119	132	3
105	111	1
63	65	2
44	63	2
77	82	2
4	36	2
43	77	1
21	22	15
22	22	4
109	117	2
3	36	2
98	134	2
16	16	16
108	114	1
49	49	5
8	79	2
43	62	2
99	106	3
9	9	14
100	126	3
7	62	1
55	56	7
109	109	9
7	7	8
85	88	4
88	88	17
65	65	13
134	135	5
105	106	2
126	129	1
16	28	3
29	30	6
101	105	4
116	120	4
105	105	10
94	94	9
88	90	5
50	51	5
132	132	17
97	126	1
28	28	8
108	130	1
80	82	3
84	85	16
102	102	7
20	21	10
102	128	2
43	45	3
15	17	4
78	78	4
57	57	12
35	37	6
70	71	8
106	106	12
23	66	2
66	66	7
104	123	1
100	100	20
27	28	5
108	109	3
56	57	2
72	72	13
124	126	5
129	133	2
82	85	3
62	63	6
10	11	5
75	75	10
84	84	14
2	16	1
3	4	9
107	132	5
112	113	9
115	118	2
78	122	2
57	59	3
1	26	1
117	132	4
104	116	1
1	2	11
98	99	5
62	62	7
52	72	1
28	29	4
30	30	10
113	117	3
21	21	15
68	68	15
121	131	2
36	36	7
32	32	9
99	103	1
96	123	3
25	64	3
22	50	4
47	48	2
17	54	4
45	46	1
36	37	3
89	89	9
44	47	2
67	85	3
5	47	3
45	58	3
85	85	11
64	64	12
91	91	10
79	82	2
29	71	5
121	121	4
1	1	7
18	36	2
80	88	2
18	19	1
62	69	3
108	111	5
113	113	5
60	60	8
107	113	2
100	124	4
100	105	6
32	49	1
80	84	8
100	108	1
122	123	3
105	126	1
29	52	1
25	52	2
91	93	4
119	119	13
113	116	9
79	80	7
6	6	5
73	111	2
90	97	5
80	81	4
61	69	5
67	78	2
7	9	2
87	97	5
51	77	1
96	134	5
51	51	5
81	86	2
62	70	1
8	9	3
48	50	3
71	83	2
50	61	2
30	72	1
64	77	3
55	58	3
112	116	2
129	130	4
92	97	2
109	110	4
60	66	4
44	53	5
47	77	1
45	68	1
37	55	1
37	38	2
52	80	1
95	95	10
3	5	2
100	112	3
31	34	1
102	103	1
7	79	5
121	123	3
2	3	5
45	56	3
8	77	3
122	129	1
80	123	2
81	90	3
56	56	11
130	132	3
46	46	3
102	120	2
26	64	1
109	111	3
14	56	3
30	31	5
43	69	2
95	98	4
45	50	3
3	35	2
116	119	4
32	44	3
31	32	1
89	91	1
122	131	2
44	60	5
23	50	1
48	48	6
22	67	1
107	107	5
4	4	3
67	69	3
131	132	2
126	128	2
105	108	3
130	133	4
54	69	2
79	81	11
30	73	1
47	57	1
19	20	2
79	92	4
127	131	3
70	73	2
72	104	2
24	50	1
60	61	6
21	67	3
45	45	7
42	43	1
44	76	1
122	124	4
24	53	1
48	61	2
124	127	3
61	62	1
125	128	1
88	89	4
97	114	1
123	128	2
69	76	1
49	50	7
71	73	4
45	57	1
99	135	1
70	85	1
13	17	1
86	92	1
54	60	1
27	76	2
100	103	2
82	87	1
93	97	1
31	47	1
65	81	1
91	118	2
50	62	2
128	135	1
102	105	1
38	45	1
45	64	2
43	75	1
54	57	1
47	47	5
38	64	2
66	83	1
34	34	6
57	58	2
80	83	3
22	23	4
33	45	2
33	36	1
128	129	3
122	130	3
25	77	1
108	113	1
20	23	2
129	131	5
60	85	1
112	120	2
98	133	1
24	64	2
9	10	1
32	35	4
107	118	1
35	36	4
6	7	3
44	52	2
133	134	2
20	22	2
96	97	11
107	122	4
107	110	3
48	79	4
110	122	1
123	132	2
107	121	4
106	130	4
33	50	1
43	76	2
7	64	2
106	125	3
52	83	1
103	104	2
10	12	2
108	110	2
32	33	3
2	35	2
13	15	1
22	24	1
2	5	2
70	89	2
123	125	2
125	126	2
98	131	2
27	70	1
79	85	1
64	68	1
128	130	1
104	127	1
89	121	1
118	134	2
55	79	1
14	15	2
88	96	1
64	66	3
95	115	1
71	76	1
18	53	1
107	123	1
114	134	1
81	87	1
92	107	1
28	71	1
5	6	1
44	45	1
34	44	1
119	123	1
19	38	1
111	123	1
82	91	1
8	64	1
0	2	2
78	79	2
123	133	2
81	83	2
36	38	3
50	57	1
128	131	1
113	115	1
60	84	1
13	54	2
95	113	1
38	61	1
34	65	1
113	135	1
101	134	3
35	121	2
88	120	3
118	120	3
82	107	1
113	118	2
98	102	1
60	83	1
90	95	1
118	132	2
116	118	1
52	85	1
118	130	1
96	126	1
68	78	1
3	6	2
113	114	1
65	67	1
69	71	1
55	77	1
38	38	1
58	59	2
51	80	1
14	17	1
79	90	1
87	95	1
75	77	1
54	86	2
65	84	1
106	108	1
86	88	1
61	85	1
53	55	1
112	126	1
87	123	1
28	52	1
105	129	1
10	14	1
56	61	1
14	26	1
