11	67	2
100	106	5
12	12	7
78	84	3
128	128	1
144	145	5
75	145	1
111	111	3
48	48	3
65	67	2
95	95	9
34	34	2
109	109	3
70	70	4
149	149	7
38	38	4
148	148	5
28	29	2
137	137	4
103	107	4
57	57	5
87	87	8
53	53	2
20	23	5
15	15	6
42	43	6
6	7	1
67	70	3
100	107	4
36	42	2
103	112	3
118	118	4
98	99	2
32	35	5
114	114	3
118	128	1
74	74	6
106	106	2
73	73	2
134	134	5
43	43	6
46	46	9
56	56	3
7	7	1
80	80	3
94	94	12
71	71	4
96	96	2
40	40	7
66	78	4
33	63	1
75	134	3
50	70	2
133	133	7
9	9	3
140	141	1
100	119	4
36	36	4
8	8	2
73	74	5
19	22	1
23	23	2
54	54	2
102	102	7
77	117	4
150	150	4
73	141	7
29	29	2
75	76	9
52	52	5
19	19	5
112	112	5
78	137	3
64	64	2
36	37	1
127	127	2
42	42	5
50	50	2
44	86	1
99	99	4
152	152	3
63	63	9
37	37	4
95	101	1
68	68	3
14	14	3
78	85	5
147	147	3
27	28	1
78	83	5
146	146	2
13	13	2
31	31	3
125	126	5
137	139	2
74	81	3
136	143	1
85	85	1
97	97	7
65	65	5
116	116	1
68	75	2
55	56	2
94	95	4
83	110	2
5	6	2
104	126	3
26	28	2
44	45	5
129	129	4
15	16	1
141	143	4
66	77	3
141	142	5
54	68	1
81	82	3
113	113	2
72	73	1
15	37	1
136	144	2
11	11	1
26	26	1
14	26	1
17	17	1
33	33	3
143	144	2
18	19	6
32	32	1
93	93	5
20	20	5
25	25	4
132	132	7
83	83	1
74	83	1
129	139	2
84	84	3
98	98	1
53	54	1
42	62	1
106	128	1
117	117	1
89	98	2
66	66	1
79	82	1
50	56	3
45	46	2
120	121	1
11	12	1
56	57	1
69	69	1
130	130	1
4	4	5
80	83	1
38	39	2
97	98	1
19	38	1
57	58	2
124	125	1
105	112	5
24	32	2
126	126	2
54	70	2
80	85	1
108	108	1
96	99	2
8	9	2
96	98	2
65	66	2
49	76	1
110	126	2
106	114	1
67	67	1
20	21	1
41	43	1
154	154	2
145	146	1
79	81	1
25	26	2
153	153	1
104	104	4
51	51	1
123	123	1
131	147	1
151	151	1
92	92	1
7	12	2
72	72	1
112	113	1
131	131	3
103	105	2
85	86	2
144	144	4
37	93	1
92	97	1
52	67	2
16	16	3
42	44	1
18	18	1
135	136	1
49	49	2
24	27	1
6	6	1
26	27	1
47	48	1
102	110	1
119	120	1
115	142	1
82	83	1
7	16	1
136	136	1
44	44	1
10	13	1
43	53	2
76	77	2
130	147	1
75	111	1
41	42	1
131	132	1
22	23	1
100	100	1
35	36	2
88	88	1
28	28	1
20	26	2
31	32	1
78	78	1
90	90	1
66	68	1
16	17	1
140	140	1
122	133	1
41	45	1
79	79	1
24	30	1
37	109	1
3	7	1
10	22	1
37	40	1
113	152	1
67	68	1
48	49	1
