74	78	3
12	29	2
23	26	4
5	5	11
29	32	7
91	102	3
21	30	1
64	65	1
62	63	4
101	130	2
114	114	4
95	116	3
34	34	6
114	115	2
95	96	3
85	85	8
87	87	16
3	4	4
23	23	2
9	9	6
84	84	13
65	66	2
99	100	8
102	132	2
45	45	7
78	93	2
86	86	9
65	65	12
93	102	2
34	63	7
20	21	1
72	72	6
83	83	6
33	33	5
30	30	10
93	97	1
103	103	2
27	92	1
15	15	13
31	31	2
35	35	5
64	75	2
20	20	11
107	107	4
66	67	6
98	100	2
27	32	3
98	99	7
31	32	7
68	69	5
128	129	4
12	12	6
34	35	9
20	38	3
49	49	8
102	102	7
118	119	6
107	109	5
64	64	3
71	76	4
5	25	4
59	60	4
29	29	4
77	77	9
99	99	5
131	131	5
22	22	1
21	36	2
89	89	3
68	70	1
46	46	5
57	59	1
68	68	10
93	98	1
122	123	2
96	103	3
123	123	4
30	31	3
25	25	5
100	100	8
95	95	6
17	17	2
101	101	7
1	2	5
36	37	2
129	129	3
81	82	1
31	36	3
5	6	5
36	36	4
56	56	4
43	43	3
61	62	4
123	124	2
25	32	3
8	37	2
93	93	14
6	6	11
73	74	3
73	73	6
28	35	1
18	35	2
47	49	3
27	27	8
59	59	5
58	58	8
112	113	1
35	36	6
125	125	5
78	102	1
33	34	5
106	106	5
39	40	3
60	60	4
27	33	1
1	3	2
4	4	6
30	36	2
11	93	3
94	95	1
45	74	3
98	98	2
44	44	5
7	32	1
112	112	5
63	69	1
21	21	4
19	78	3
13	15	2
63	64	3
78	78	13
19	19	6
110	110	2
76	76	9
127	127	4
10	10	4
19	36	6
105	105	4
84	85	3
111	112	2
106	123	1
69	69	1
56	57	1
113	113	2
94	116	3
47	70	1
79	79	3
104	105	3
60	69	4
32	32	13
8	36	1
6	7	4
47	47	4
69	70	4
63	63	6
18	18	2
8	8	5
37	37	1
108	115	1
75	75	4
104	122	1
85	125	3
105	106	1
88	108	1
42	43	3
62	62	8
14	31	3
41	41	2
66	66	7
15	16	4
60	71	3
92	93	1
43	100	1
21	22	2
11	11	5
72	73	2
4	21	2
104	104	2
82	83	2
26	27	2
97	97	4
9	16	3
22	23	1
94	94	7
61	61	3
124	124	4
35	63	1
88	92	6
107	108	3
90	90	1
116	116	1
74	74	5
19	20	8
96	100	3
63	66	2
26	26	4
67	70	3
108	108	3
5	8	3
101	132	1
0	0	3
111	111	5
37	38	1
107	110	1
117	119	3
73	94	1
3	3	6
81	81	2
96	98	2
65	118	1
93	99	3
67	69	1
122	122	2
11	13	1
46	47	4
103	104	2
81	125	1
16	16	2
128	128	3
42	42	2
133	133	3
83	84	1
48	48	6
68	75	1
39	41	2
115	116	3
93	113	1
38	38	2
93	94	1
24	24	3
126	126	4
78	79	3
99	102	3
86	125	2
57	58	2
7	7	2
64	76	1
13	13	5
117	121	1
96	97	3
130	130	2
107	125	1
26	48	1
40	40	1
118	120	3
104	130	1
8	9	2
125	128	2
85	86	4
125	130	1
8	13	1
76	77	1
70	70	2
104	123	1
24	27	1
121	121	4
63	75	1
48	59	1
3	47	1
125	126	2
29	31	2
10	13	2
20	41	4
120	120	1
7	17	1
38	40	1
82	82	5
95	97	3
17	18	3
67	67	1
57	57	4
28	28	1
71	72	1
7	86	1
87	88	2
101	102	2
121	122	1
36	71	1
57	61	1
26	49	1
27	28	1
28	39	2
80	80	1
82	114	1
76	102	1
24	28	1
64	86	1
121	130	1
96	96	1
16	32	1
19	27	1
23	24	3
71	71	1
4	5	1
117	122	1
29	60	1
47	58	1
93	95	1
32	33	2
11	12	2
82	87	1
119	121	1
8	12	1
2	2	1
34	62	1
21	59	1
118	118	1
97	98	2
39	39	1
91	91	2
86	87	1
61	98	2
124	125	1
88	88	1
109	109	1
47	82	1
90	101	1
83	88	1
115	115	1
62	74	1
119	119	1
80	84	1
