33	178	1
129	178	5
171	171	15
55	55	10
109	137	2
154	155	1
187	187	2
31	31	4
193	193	9
172	172	7
146	146	7
127	127	3
17	17	6
33	35	3
6	7	2
111	112	2
170	170	3
151	151	1
15	47	2
29	29	2
41	41	5
168	169	1
140	140	3
66	66	5
30	64	3
114	114	8
157	157	8
111	113	1
155	163	3
32	32	2
169	169	7
152	182	2
64	64	10
70	71	1
22	22	5
84	84	3
145	145	4
161	164	6
42	42	11
155	155	8
165	166	2
166	167	4
162	169	6
51	51	5
39	39	7
4	4	8
67	67	8
124	124	15
46	50	5
117	154	3
184	184	7
98	98	4
188	191	2
165	165	4
12	12	5
40	41	3
109	109	5
63	65	4
117	156	2
134	156	10
103	103	6
45	45	4
166	169	1
158	158	1
16	16	3
133	133	15
34	35	6
107	108	5
174	174	5
186	193	2
115	173	2
133	140	4
182	182	3
149	149	7
48	48	11
106	185	2
9	9	6
53	53	7
180	185	1
30	30	3
96	96	8
159	159	3
139	140	2
95	95	1
153	153	3
44	50	2
8	37	2
125	125	13
79	80	3
61	61	6
41	42	1
133	145	2
85	86	2
134	135	6
23	23	8
38	41	1
5	5	6
58	58	12
107	107	6
164	164	1
65	67	3
176	177	4
34	34	4
87	88	3
195	195	8
25	26	3
114	115	3
110	115	3
96	128	2
55	87	5
15	15	5
57	57	5
180	180	4
125	159	4
192	193	5
38	40	2
110	134	2
66	76	1
149	185	3
115	121	2
11	11	8
21	40	2
30	44	2
8	20	3
166	166	3
5	6	1
54	56	4
152	152	9
134	137	2
54	54	10
190	190	10
173	173	7
155	174	5
160	160	1
52	52	11
86	86	2
68	68	2
111	145	4
126	127	3
183	183	8
43	44	3
52	53	4
7	7	2
121	158	1
120	120	6
173	174	5
123	127	4
74	75	3
18	18	4
5	18	2
98	141	5
38	38	10
112	112	2
83	83	2
47	47	13
72	72	8
121	142	6
1	20	2
21	21	2
196	196	6
194	194	4
162	163	3
185	185	10
0	34	3
121	121	3
35	35	9
123	123	8
110	110	6
59	59	5
58	75	3
183	184	4
130	131	1
134	134	8
145	179	1
119	134	1
175	175	1
0	0	6
113	113	8
13	13	6
183	192	1
34	64	1
85	85	3
142	183	1
33	45	5
21	28	5
70	86	2
156	157	5
108	108	4
57	58	2
43	43	5
42	67	5
14	14	2
177	178	3
138	138	5
2	38	3
114	134	5
0	2	4
81	82	2
23	37	2
29	30	6
10	11	3
140	162	1
3	4	5
161	163	3
33	33	4
25	25	3
117	117	2
122	123	4
70	70	3
90	90	4
149	151	4
40	58	1
37	37	3
29	80	3
176	176	3
167	177	1
108	145	2
89	89	5
189	196	2
112	113	1
189	189	8
124	125	5
159	182	1
143	144	4
81	81	4
162	162	4
111	111	2
19	39	7
34	36	2
142	182	3
180	181	3
191	191	2
28	28	6
133	185	1
173	177	1
181	182	1
167	167	5
30	33	3
154	192	2
115	174	1
51	52	4
4	32	1
76	76	15
23	27	5
111	133	3
100	101	6
197	197	3
138	180	2
78	79	5
34	88	1
71	71	6
55	57	3
1	2	6
46	46	2
22	25	4
191	192	3
150	150	1
144	145	1
49	49	10
170	171	1
117	118	2
11	25	1
5	179	4
20	20	3
107	140	2
32	51	2
21	58	2
178	192	1
187	189	2
73	74	2
24	24	2
29	78	1
155	156	7
187	188	8
132	132	1
48	49	2
8	8	4
141	141	3
78	89	1
113	114	1
113	172	1
38	42	1
103	133	1
129	129	1
128	128	3
8	53	3
129	131	1
195	196	2
99	100	2
36	36	1
156	156	1
188	189	1
188	192	1
49	50	1
81	83	1
106	138	1
83	84	1
132	164	2
167	168	1
86	87	2
95	96	2
93	134	2
192	192	2
64	66	1
65	74	2
88	89	2
19	19	2
62	62	1
144	190	2
161	161	5
139	145	3
26	26	2
77	79	1
40	40	2
99	109	1
78	88	1
10	10	1
28	29	2
115	165	1
17	22	2
186	186	3
131	178	3
147	147	3
108	130	1
28	59	3
39	40	3
171	172	2
27	27	6
132	146	2
106	106	4
146	147	5
179	179	4
160	161	1
147	148	4
164	166	2
163	163	1
130	130	3
27	36	1
145	172	1
59	64	1
122	160	1
157	191	3
77	77	1
63	63	4
68	129	1
57	59	1
35	69	2
119	119	2
100	100	4
87	89	1
139	154	1
82	82	3
119	142	2
138	139	6
0	1	3
73	75	3
56	56	3
6	6	1
99	99	2
31	32	2
21	38	1
82	110	4
32	52	2
142	143	1
105	137	1
94	109	1
58	59	1
35	64	5
98	99	5
24	25	3
109	115	1
135	137	2
189	190	2
17	35	2
19	21	1
83	109	2
143	143	3
142	142	1
156	162	1
35	65	2
181	192	1
22	26	2
18	19	4
128	187	1
147	153	1
147	155	1
4	177	4
34	89	1
7	37	2
148	154	1
19	34	1
118	137	1
181	183	1
135	135	3
124	196	1
137	138	3
13	14	1
116	147	2
8	178	1
180	193	2
131	131	1
47	50	1
82	83	2
44	44	1
153	181	1
161	162	1
50	50	2
189	192	1
37	61	1
38	58	1
104	106	1
117	161	1
42	59	1
139	179	1
8	176	2
60	60	1
133	134	2
119	148	2
30	31	2
99	130	1
126	130	1
157	178	1
66	85	1
140	189	1
140	142	2
148	148	2
2	2	2
87	87	2
178	178	2
34	39	1
98	116	2
123	158	1
18	35	1
1	1	1
105	106	1
51	64	1
112	115	1
173	175	1
175	181	2
2	42	1
99	132	2
178	193	1
42	66	1
55	58	1
80	80	1
143	188	1
172	173	1
83	116	1
94	94	1
55	56	1
193	194	1
