181	181	6
51	51	3
96	96	5
90	91	3
10	10	3
15	48	5
231	231	6
1	1	4
6	6	9
86	216	4
79	105	1
76	78	3
160	242	4
5	20	3
48	48	6
49	50	6
145	158	2
34	34	9
21	51	1
108	108	5
58	117	3
156	168	3
26	26	7
86	120	5
95	99	6
205	205	15
153	160	2
200	200	7
65	66	1
6	7	5
179	179	11
190	190	9
112	112	13
61	62	1
180	180	6
116	247	2
40	212	4
178	178	8
167	167	2
149	166	4
214	215	3
63	74	3
65	65	3
13	24	4
21	21	5
149	149	1
225	225	5
84	89	1
88	89	7
77	77	2
209	231	3
84	90	3
189	189	5
51	53	2
88	112	4
29	37	4
210	228	2
160	161	1
206	206	2
238	240	1
72	95	2
175	175	11
185	218	6
239	245	3
244	245	2
211	245	4
161	185	2
1	19	1
152	153	2
195	195	6
187	187	5
115	115	8
63	63	9
214	214	3
193	195	2
17	17	5
82	82	6
36	38	6
19	19	8
75	114	3
232	232	2
25	45	5
98	100	1
172	172	2
119	119	10
243	243	4
248	248	1
2	20	2
79	103	3
11	27	1
74	80	5
228	228	8
116	116	15
27	27	4
176	176	4
11	45	3
67	68	6
38	38	9
76	77	9
192	217	4
208	232	3
170	170	6
83	83	3
2	2	9
236	237	9
189	216	3
12	18	1
222	224	1
198	198	1
62	76	3
50	50	6
159	159	5
110	110	11
238	238	9
203	203	10
120	120	2
6	28	12
207	207	4
11	11	3
16	17	2
201	201	14
102	102	6
105	105	8
3	20	1
235	236	1
185	203	1
109	109	7
230	246	6
113	113	5
7	8	5
83	116	1
18	18	4
48	83	2
42	43	2
210	211	1
14	34	3
38	39	8
165	166	5
193	197	4
177	179	1
173	173	5
202	204	1
177	177	8
62	62	6
204	205	6
62	120	3
243	246	2
80	81	5
18	31	2
71	84	2
245	248	1
78	78	7
183	183	5
66	67	1
183	225	1
28	28	3
91	92	3
160	160	6
37	69	3
162	162	5
14	30	5
174	176	1
206	207	3
36	36	4
192	192	4
176	177	8
243	245	1
242	246	1
232	233	2
200	201	2
153	154	5
245	245	11
54	54	9
167	168	5
191	191	3
5	34	3
241	242	6
9	9	9
33	33	1
4	5	1
4	4	6
74	74	4
223	223	3
207	228	3
66	66	13
68	69	3
182	182	3
242	242	9
199	200	3
175	179	2
229	229	5
163	163	1
61	61	1
53	54	5
82	105	3
41	41	7
52	52	12
99	165	2
49	77	3
12	62	2
112	246	2
114	114	10
93	95	2
203	226	4
39	39	5
242	244	2
236	244	1
169	169	4
36	47	1
96	100	3
239	239	4
100	100	8
215	215	4
190	196	4
182	183	6
153	153	4
235	235	6
168	178	4
165	165	4
67	67	4
14	18	1
71	71	2
85	86	1
112	117	1
17	18	1
76	116	1
68	68	13
76	76	2
194	199	2
94	94	6
172	174	4
102	105	6
95	101	1
29	30	4
150	150	15
32	32	14
81	82	4
197	197	6
195	200	4
62	71	2
234	235	7
2	10	3
211	218	4
14	14	5
88	88	3
68	84	3
85	85	3
37	37	3
202	202	12
233	235	3
212	212	9
157	157	2
163	195	2
55	56	4
52	53	5
42	42	8
80	82	2
241	244	2
210	231	3
45	46	3
189	215	1
94	95	2
109	151	3
200	204	1
151	151	6
97	98	5
18	62	2
78	79	2
209	216	1
88	117	1
81	223	1
216	217	8
93	93	2
42	81	1
226	226	10
82	83	1
199	199	11
4	30	1
43	43	5
221	221	7
160	163	3
176	185	4
12	24	7
1	27	1
219	233	4
189	214	1
3	4	2
166	166	4
218	246	4
18	38	3
33	38	1
4	22	2
194	196	1
213	248	2
17	59	3
36	56	2
118	119	2
35	37	2
111	115	3
45	45	13
180	224	2
30	35	3
222	222	4
171	172	4
112	152	2
236	236	5
56	56	4
55	62	2
155	155	9
209	215	3
161	161	3
5	25	2
103	104	3
46	65	2
163	164	3
184	184	4
58	58	2
196	196	3
227	228	1
146	147	1
110	111	3
213	213	6
60	61	2
244	249	1
186	209	2
86	86	1
186	230	2
107	108	2
220	231	1
79	114	1
192	227	1
57	60	2
154	154	2
25	25	3
209	209	4
227	227	2
72	72	3
104	105	1
175	176	7
197	199	3
84	84	11
220	220	3
103	103	2
238	245	2
19	20	2
180	213	2
216	216	1
2	3	3
30	30	3
19	50	6
157	170	3
211	237	3
20	92	1
71	75	3
220	236	1
157	181	4
89	90	3
244	244	6
37	56	3
58	59	1
74	101	5
75	75	5
177	183	1
56	61	1
74	81	3
157	175	1
188	189	2
25	56	2
73	73	4
70	70	3
164	164	9
193	193	2
47	68	3
31	31	2
211	212	1
7	221	2
108	112	3
92	161	1
165	181	2
2	25	5
157	183	1
211	238	1
3	3	5
62	82	2
215	241	3
5	5	1
201	241	1
186	186	3
60	65	4
173	176	4
166	181	1
8	8	3
171	243	3
63	64	3
97	97	2
145	145	3
201	203	2
100	107	1
50	54	1
210	240	2
20	20	2
33	39	2
210	213	2
166	170	2
234	234	2
11	228	1
144	147	1
219	219	2
97	100	1
57	59	1
166	178	3
197	198	2
51	89	2
93	94	3
48	54	4
225	227	2
247	249	1
190	230	1
106	111	1
210	236	2
98	173	1
12	12	2
217	234	1
32	38	1
44	44	5
169	170	1
170	184	2
228	229	1
118	118	3
34	38	2
6	10	1
70	73	3
44	207	1
26	27	1
222	226	1
213	215	1
179	180	1
246	247	1
80	80	1
156	156	7
179	181	1
209	234	1
185	185	1
68	95	1
240	240	3
36	37	1
77	78	2
22	22	3
242	243	2
172	242	2
151	174	1
168	168	2
174	174	4
201	202	2
56	58	1
247	247	2
64	64	3
56	57	2
60	86	2
79	79	1
89	89	2
4	20	1
208	208	1
224	225	2
196	198	1
171	173	1
199	243	4
12	30	1
180	203	2
146	146	2
163	176	1
27	203	1
98	98	2
24	24	1
24	25	1
17	44	1
22	23	1
152	152	2
233	234	3
22	29	2
38	40	1
59	59	1
146	152	2
16	229	1
149	165	2
59	60	1
60	60	2
32	34	1
235	240	1
82	115	1
117	117	2
201	228	2
156	157	2
49	49	1
117	120	2
204	207	2
117	118	3
84	85	1
47	50	2
175	194	1
88	95	1
14	31	1
96	113	2
120	172	2
247	248	1
210	210	1
203	204	2
178	189	1
172	173	1
6	26	1
29	29	1
243	244	1
168	203	2
53	53	2
194	195	1
120	160	1
92	92	1
23	23	2
226	227	2
154	155	1
62	87	1
204	204	1
57	57	1
209	210	1
162	163	1
160	198	1
30	205	1
76	113	1
246	246	1
211	213	1
163	193	1
73	217	2
107	107	1
49	94	1
75	101	1
237	237	1
89	118	2
208	210	1
35	36	1
149	150	1
158	159	1
31	32	1
195	198	1
16	16	1
217	247	1
111	236	1
6	212	1
77	82	1
217	217	1
52	54	1
97	165	1
191	217	1
46	46	1
99	99	1
214	239	1
50	77	1
232	239	1
