20	46	3
46	46	12
66	106	1
102	102	4
25	25	9
73	75	2
17	18	3
9	11	4
35	35	14
67	78	3
122	122	3
1	1	4
50	50	11
141	142	3
56	116	2
45	46	1
133	133	9
29	38	1
64	65	2
15	16	5
32	32	5
94	94	3
69	69	8
52	55	5
145	147	6
101	101	8
68	70	3
39	39	5
90	91	3
155	156	1
129	129	5
145	145	6
10	10	3
55	55	9
130	130	6
1	5	2
92	92	2
21	82	1
113	114	4
79	81	2
75	80	2
123	123	10
53	53	2
18	32	4
21	21	10
153	153	5
19	21	2
19	20	11
90	90	5
36	56	2
73	110	1
38	38	3
48	54	1
111	112	5
3	12	2
0	0	11
6	6	6
114	114	6
84	110	1
4	4	1
137	137	8
146	152	2
154	154	1
138	138	4
12	12	11
95	95	6
45	47	4
44	44	6
108	109	1
105	105	3
11	11	4
78	78	3
8	53	3
48	48	13
3	50	3
8	8	7
96	98	1
87	88	2
109	122	3
68	69	2
2	4	4
105	114	3
33	33	9
156	157	3
73	80	1
69	70	2
40	47	5
48	56	1
81	82	1
67	67	1
117	117	8
41	41	6
157	157	2
24	25	1
77	77	3
3	21	2
127	138	4
20	21	6
136	147	3
139	139	5
10	12	2
28	33	1
106	106	4
97	97	2
144	145	1
122	123	6
129	130	3
145	146	3
92	99	2
136	136	8
43	43	4
135	135	1
118	118	5
13	49	2
79	137	4
87	87	6
30	30	7
124	124	5
4	53	5
26	26	2
5	151	1
142	142	3
113	113	5
133	134	3
109	109	2
70	70	6
36	36	3
88	128	1
132	150	1
66	66	2
6	65	3
99	100	1
54	54	4
6	64	1
19	57	4
50	51	3
20	20	4
45	45	8
103	105	5
33	34	2
154	158	2
93	93	8
111	111	6
14	14	3
52	53	1
42	50	1
121	121	5
94	136	4
7	7	6
144	144	1
157	158	6
150	150	6
24	24	5
146	146	4
137	143	1
116	156	1
96	96	1
88	89	3
31	98	2
5	100	3
109	111	5
152	155	2
108	122	1
64	111	3
103	104	3
36	38	1
114	115	2
11	15	1
42	42	2
89	89	3
5	5	3
51	54	3
25	64	3
32	34	5
98	98	4
79	79	5
0	1	3
148	149	1
126	147	2
62	82	1
92	109	2
141	141	1
148	158	1
63	64	3
88	88	3
28	29	3
22	22	2
18	26	2
49	49	7
126	126	4
41	46	2
17	17	4
150	151	4
67	136	1
36	57	1
64	64	3
2	2	4
119	124	2
21	27	1
10	21	1
117	134	1
120	121	1
12	29	1
16	17	3
10	68	1
13	13	2
27	27	3
147	148	4
55	56	1
68	68	1
28	54	1
18	28	2
104	104	1
29	57	1
83	85	2
51	51	1
158	158	2
116	116	7
144	146	3
112	112	1
67	82	1
108	108	2
12	35	4
135	137	1
18	18	5
28	28	3
21	89	2
137	148	1
128	128	4
37	53	1
52	52	1
4	86	1
81	81	1
117	151	2
3	4	1
132	147	1
152	156	1
136	155	1
152	152	1
16	16	1
84	84	3
107	107	1
12	13	1
139	140	1
86	86	1
37	54	1
147	154	1
5	65	1
133	151	1
67	69	1
83	131	3
85	85	1
92	93	1
118	142	2
71	80	1
122	129	2
9	9	4
25	28	2
78	79	2
93	95	1
9	10	1
82	82	3
110	110	1
47	47	1
28	36	1
11	53	2
110	123	2
84	85	1
92	100	1
3	3	2
40	41	1
80	80	1
2	3	2
8	12	1
131	131	2
57	68	1
103	103	1
36	47	1
38	39	1
73	73	1
29	33	1
68	77	1
100	100	1
39	40	1
146	147	2
37	37	1
52	54	1
75	75	1
23	25	1
115	115	1
0	45	1
119	119	1
117	145	1
95	98	1
100	111	1
13	14	1
153	154	1
80	83	1
125	125	1
93	129	1
107	108	1
