0	0	11
1	1	6
34	43	4
112	133	10
78	78	7
73	73	7
89	104	1
49	50	3
84	141	4
112	112	2
97	158	4
108	142	2
91	103	3
67	70	3
5	107	4
123	123	11
115	116	1
9	11	3
6	11	1
128	128	4
41	41	5
6	149	3
152	152	8
117	117	5
13	13	3
106	107	4
7	7	17
143	143	3
40	40	2
109	109	9
70	92	2
100	100	7
137	148	4
140	140	3
113	113	4
149	149	2
128	129	4
19	20	13
106	106	10
28	28	6
7	142	6
151	151	15
79	79	11
111	152	5
9	52	1
154	154	7
96	96	7
110	112	3
42	42	4
95	96	2
84	85	3
98	98	4
8	8	1
125	126	3
135	135	4
32	34	4
93	93	14
31	91	2
54	55	4
19	23	3
31	31	5
82	82	4
48	54	13
24	73	4
45	45	5
89	89	4
101	101	12
132	132	7
148	148	12
84	84	4
115	115	2
12	13	1
55	55	5
33	33	3
99	99	5
90	90	2
108	108	2
64	68	2
57	63	2
70	77	2
127	127	7
149	152	3
88	89	4
121	122	5
35	118	1
145	145	4
67	69	2
80	81	1
80	94	2
11	11	4
77	132	4
131	131	6
110	111	1
94	94	11
139	139	6
17	24	4
122	144	1
48	49	1
121	121	9
86	87	5
67	67	1
12	12	8
56	56	2
114	115	4
104	104	6
14	15	1
37	83	1
1	129	2
29	29	2
123	127	1
26	29	3
38	80	2
27	27	9
112	138	2
110	158	1
145	146	4
110	142	3
95	95	4
5	5	6
119	119	5
91	91	3
126	151	2
25	26	6
77	133	4
64	64	5
49	62	1
44	47	2
61	61	2
66	69	3
16	17	2
113	154	3
102	102	4
30	42	1
30	31	3
108	145	1
18	48	2
79	134	3
124	124	7
43	43	2
110	138	3
48	106	1
39	56	1
41	134	3
116	116	6
17	17	4
15	15	9
32	77	1
150	150	6
70	70	3
103	103	4
146	150	3
99	100	1
2	3	4
34	34	6
35	36	4
33	96	1
21	21	2
150	158	3
11	52	3
40	41	9
125	127	1
126	126	4
25	25	5
51	56	1
148	149	1
36	36	3
138	138	5
153	153	4
46	47	2
127	129	3
27	62	2
51	63	1
107	138	1
57	69	2
155	156	2
118	118	1
57	57	2
62	62	1
3	3	2
150	152	2
20	20	2
31	73	1
112	137	2
24	24	1
110	110	5
18	19	4
90	97	1
147	147	2
108	120	3
67	87	1
71	71	1
35	35	1
146	147	2
69	72	1
54	54	5
125	125	3
40	57	1
149	150	2
13	14	6
26	93	1
129	129	5
156	156	3
144	144	1
69	69	3
76	88	2
56	67	3
153	154	2
64	90	6
38	39	2
18	64	4
63	64	2
47	55	1
33	39	1
111	112	3
77	77	1
99	136	1
20	21	1
76	76	2
17	18	2
4	4	3
46	46	4
117	118	2
107	107	4
16	16	2
63	126	3
8	9	4
136	136	3
142	148	1
142	142	1
88	133	1
111	111	1
123	124	3
63	68	1
41	42	4
61	68	1
34	41	3
15	33	2
39	115	1
3	4	2
33	128	1
17	20	2
147	158	3
33	38	1
96	97	2
70	85	2
112	117	3
62	63	1
22	23	2
95	108	1
50	51	1
6	108	1
24	94	2
4	45	1
51	52	2
80	80	2
21	22	2
9	9	1
90	92	1
100	102	1
93	119	1
141	141	2
67	77	2
88	95	3
19	19	1
30	32	1
28	29	3
6	143	2
2	2	1
23	120	1
51	51	1
136	147	2
52	53	1
63	63	1
68	68	1
122	122	3
16	22	3
14	14	1
144	145	2
81	81	1
17	107	1
143	144	2
50	50	8
34	118	1
36	114	1
55	65	1
26	55	2
92	92	1
53	54	1
138	158	2
96	108	1
23	23	1
15	16	1
97	97	1
48	64	1
10	52	1
8	55	1
44	44	2
94	102	1
10	56	2
109	110	1
100	101	1
87	88	1
6	6	2
108	136	2
47	47	2
152	155	1
38	133	1
157	157	1
39	39	2
83	86	1
10	11	1
138	151	1
83	83	2
101	150	1
25	151	1
80	127	2
34	35	2
122	123	1
69	78	1
130	130	1
155	155	1
81	82	1
111	118	1
104	145	1
87	87	1
48	48	1
134	134	1
116	117	1
137	137	1
14	16	1
99	135	1
145	153	1
19	21	1
112	120	1
159	159	1
133	133	1
1	2	1
90	91	1
117	127	1
152	156	1
7	8	1
99	106	1
88	140	1
157	158	1
