131	131	13
22	23	6
118	118	10
62	65	4
71	71	11
106	107	1
36	36	2
58	58	2
29	29	5
85	85	7
63	121	4
123	123	7
81	81	3
83	84	3
3	3	4
91	91	5
47	99	2
24	37	2
33	33	6
115	115	5
6	13	5
8	15	1
99	99	3
104	104	6
1	2	2
35	88	2
121	121	3
30	30	8
36	38	7
69	69	4
61	61	3
52	78	4
21	21	9
121	122	2
35	36	6
37	37	1
90	90	13
125	125	8
76	76	13
19	19	8
108	131	4
108	108	10
69	70	5
58	112	7
42	44	1
87	87	3
14	14	7
107	107	2
8	38	4
0	0	6
54	57	3
101	101	6
51	124	2
94	95	3
114	114	8
53	69	3
132	132	3
15	16	3
94	94	1
54	54	2
106	106	4
1	1	3
45	45	2
74	74	3
15	20	2
23	23	7
58	64	3
100	110	2
111	111	4
55	79	2
91	92	7
87	113	2
68	68	6
63	63	5
16	16	1
57	59	2
50	50	9
83	83	6
56	131	2
8	8	2
55	57	4
130	135	3
55	55	6
83	86	3
109	109	6
0	80	3
100	100	4
116	116	2
49	50	10
100	101	1
10	10	3
64	122	1
96	131	1
17	17	8
5	5	5
55	132	2
95	95	5
25	25	5
127	127	4
58	65	4
119	119	2
8	16	2
52	52	4
113	113	5
0	45	3
79	131	1
70	71	4
132	133	3
67	68	3
105	105	5
135	135	4
62	62	2
103	103	3
124	127	2
122	123	3
50	78	1
124	124	2
26	80	3
22	38	2
81	134	2
62	63	4
65	67	4
44	44	9
86	87	2
53	87	3
73	73	3
56	77	2
72	72	6
109	118	2
75	75	4
11	26	1
68	69	2
125	130	2
94	110	1
84	84	4
106	112	1
52	84	1
88	88	2
13	13	6
53	88	3
109	110	1
28	28	1
78	82	1
87	92	3
102	102	4
52	53	3
120	120	2
24	24	4
82	82	3
56	86	1
11	78	1
109	130	1
65	72	2
18	61	3
79	79	6
96	129	2
89	104	5
76	78	2
128	128	3
118	129	2
119	129	1
31	32	3
110	110	4
56	58	3
78	78	3
117	117	2
22	83	2
131	133	4
130	131	1
57	57	1
130	130	3
86	108	1
85	92	1
108	110	2
37	38	2
53	53	9
96	96	3
133	133	4
115	127	1
77	131	2
92	93	3
67	69	1
85	129	1
19	21	1
54	130	2
16	17	2
124	125	3
19	47	2
129	129	2
83	107	1
97	97	2
65	65	3
86	96	2
70	70	3
58	120	2
112	112	4
67	67	1
97	98	1
86	86	4
63	64	2
85	116	1
105	106	1
60	63	1
120	121	3
47	47	1
55	56	2
76	77	1
38	38	1
99	102	1
44	45	1
82	83	2
122	122	2
10	11	2
33	34	1
49	49	2
50	125	2
55	83	1
116	128	1
57	66	2
6	7	1
60	60	1
66	66	2
50	133	1
7	8	2
80	80	3
38	83	1
80	104	1
11	11	1
117	132	2
54	84	1
117	118	1
99	101	1
32	33	1
52	117	1
92	127	2
20	20	1
56	56	3
64	117	1
31	31	2
59	59	1
65	130	1
26	26	1
98	98	1
9	10	1
71	94	1
2	2	1
86	91	1
92	92	3
54	116	1
48	50	1
101	110	1
77	78	2
82	108	1
57	117	2
59	60	2
79	114	1
99	117	2
83	87	2
82	87	1
35	35	1
110	129	1
36	37	1
101	105	1
9	11	1
126	126	1
