27	28	4
59	59	4
10	15	5
42	43	4
162	173	2
100	100	4
154	154	2
167	167	11
6	7	9
91	92	8
18	18	7
149	151	2
107	108	1
117	117	4
149	157	3
152	157	2
24	26	7
32	36	4
121	135	1
123	127	1
41	41	13
33	37	5
5	5	4
0	4	2
25	25	9
153	156	2
30	30	4
4	26	3
37	37	5
124	128	5
5	6	10
150	176	4
42	42	4
6	6	7
8	10	6
131	134	3
0	2	4
167	168	4
59	67	1
147	151	1
180	180	7
176	176	5
135	147	2
153	153	1
29	29	6
78	95	2
136	136	8
10	22	2
33	34	1
58	59	5
139	140	1
53	53	6
2	15	1
170	170	1
3	4	6
49	56	3
8	14	5
72	77	4
15	17	3
62	67	3
149	149	5
107	123	1
7	7	10
131	138	3
78	93	4
5	12	3
104	106	4
155	156	2
38	38	7
153	162	5
37	40	1
65	92	6
128	132	1
116	120	2
64	71	6
118	129	3
4	4	5
25	28	2
157	162	2
7	10	3
155	163	2
31	31	4
88	98	3
150	152	3
119	131	5
126	141	3
165	168	2
25	27	7
142	145	4
116	118	3
10	11	4
99	99	3
3	27	2
22	29	1
32	32	6
51	55	1
43	45	1
111	113	4
66	95	2
77	81	1
41	45	3
146	146	6
3	19	2
179	180	2
5	28	5
140	166	2
38	52	1
13	14	3
72	76	7
141	175	2
11	11	7
35	37	3
96	135	2
76	77	3
59	82	1
33	35	9
137	143	3
51	63	2
172	172	7
65	67	2
22	23	2
151	154	3
147	152	3
147	177	2
6	8	3
13	13	6
53	58	5
62	62	2
96	101	4
15	20	2
18	20	5
153	159	4
13	18	2
170	173	1
1	15	1
68	75	4
85	88	6
137	145	1
128	130	1
133	133	7
80	86	3
6	14	4
4	6	4
130	132	1
101	101	5
2	5	1
7	8	8
129	129	3
23	46	5
134	134	2
24	27	3
104	108	1
116	116	3
103	107	2
50	68	2
74	74	8
68	70	5
9	9	12
79	79	4
167	169	1
14	18	3
30	38	3
103	103	3
55	55	7
158	161	1
140	157	3
127	148	3
172	176	7
174	175	5
116	117	1
170	178	1
78	78	6
63	66	1
45	45	4
96	112	4
72	79	3
63	63	4
68	72	1
71	84	2
17	17	6
118	136	1
88	95	2
141	164	1
71	73	4
60	65	4
155	162	1
76	109	2
82	120	1
137	137	2
161	161	3
89	89	2
172	173	3
82	118	4
56	62	4
164	172	1
75	75	3
75	76	2
161	165	6
157	163	2
110	110	1
131	132	2
23	34	4
4	14	1
43	43	4
171	174	2
112	126	1
121	123	1
173	173	9
97	97	1
116	121	2
100	104	1
44	46	1
23	24	2
1	8	3
95	107	3
148	161	2
20	21	4
39	41	6
57	62	4
34	35	3
38	39	1
60	62	4
66	66	5
10	12	7
141	143	1
18	22	1
118	177	2
17	25	2
92	94	2
38	41	5
76	84	1
14	14	9
168	169	4
123	135	1
59	98	4
65	94	2
124	133	4
109	110	2
117	121	3
144	146	2
79	84	1
150	150	4
11	21	4
174	177	2
9	11	1
86	87	2
122	139	2
114	116	4
162	165	5
98	105	3
111	114	3
7	9	1
12	12	6
121	139	2
140	152	2
96	98	2
142	151	3
19	35	2
96	99	2
16	18	6
4	12	1
26	27	1
32	33	4
17	19	1
44	44	5
9	10	1
15	15	9
125	127	1
50	51	1
20	20	7
19	22	2
58	60	4
101	125	2
34	36	2
32	37	1
71	76	2
14	16	3
107	110	1
2	3	2
84	84	3
87	87	4
10	10	2
54	57	2
117	139	1
142	142	1
137	156	2
92	122	2
139	142	5
109	113	2
132	133	4
108	121	1
138	139	1
177	177	3
149	156	6
71	72	6
141	166	2
2	2	5
2	17	3
21	27	2
52	53	5
138	138	3
23	26	5
131	133	4
72	85	3
125	144	1
67	73	1
129	147	3
158	159	3
133	134	3
24	28	3
113	165	6
138	140	1
149	180	1
101	102	1
176	179	2
113	114	4
126	126	5
122	128	1
24	25	2
13	17	1
27	30	1
117	118	1
93	93	1
45	46	2
8	22	1
119	129	2
108	122	1
37	101	2
121	153	1
173	174	3
24	29	2
35	35	4
35	36	1
137	142	2
150	154	1
170	176	3
171	171	2
17	30	2
81	85	1
9	12	1
58	74	1
12	13	3
124	125	3
27	27	3
112	112	2
95	121	2
63	64	6
57	92	2
119	135	4
80	81	5
43	56	4
79	83	2
52	57	1
66	68	2
77	79	3
109	117	3
54	71	2
169	171	1
41	42	2
119	168	1
81	81	4
119	132	2
14	17	2
9	15	1
34	110	1
6	9	4
28	28	1
160	160	1
115	117	1
41	43	3
0	0	8
33	38	2
70	73	1
166	167	1
175	177	1
20	39	3
106	115	4
149	153	3
109	112	2
51	51	3
105	115	1
140	140	1
4	11	2
143	145	2
133	135	2
153	157	3
55	73	1
139	179	3
73	74	2
118	120	2
21	22	3
22	22	2
66	67	2
36	37	2
140	142	2
71	89	1
118	119	4
13	15	2
127	134	2
85	93	1
11	12	6
19	25	4
29	30	3
37	143	2
166	174	6
82	83	3
173	175	2
119	126	3
130	156	3
49	51	1
157	158	1
15	19	3
91	91	2
150	155	1
92	93	2
175	175	1
30	31	1
3	3	5
81	92	2
4	5	1
92	95	4
165	174	6
33	33	5
5	7	1
31	37	5
153	158	4
145	146	3
26	34	1
70	70	3
144	150	1
50	50	2
1	1	4
81	108	1
21	37	3
88	90	2
20	27	1
89	93	2
8	9	3
178	180	1
23	32	1
61	61	3
61	94	2
167	170	2
159	177	5
148	148	5
151	152	2
34	37	1
108	108	2
75	95	1
19	31	2
39	39	5
170	171	5
140	144	3
178	178	1
73	77	1
54	72	2
157	164	1
8	8	5
147	148	1
13	24	1
113	119	2
25	26	2
76	85	1
150	153	2
2	4	2
164	166	1
139	141	2
124	132	1
92	92	1
160	165	2
168	174	4
96	110	1
137	138	1
72	72	1
52	55	1
67	68	4
131	131	1
16	16	5
101	148	3
65	73	6
100	103	1
57	61	1
135	135	3
84	92	2
177	180	1
147	150	4
166	172	1
132	137	2
56	64	3
133	137	1
65	65	1
106	109	2
55	62	2
51	52	2
61	62	2
132	132	1
112	115	2
64	68	1
173	176	2
18	19	1
86	114	1
112	164	3
12	18	3
51	58	2
144	147	1
147	154	1
76	76	1
65	66	1
166	168	2
66	75	1
20	24	3
157	157	1
34	38	3
40	42	1
154	157	1
7	22	3
114	115	1
50	53	1
167	171	2
60	63	1
50	55	1
113	115	2
163	165	1
27	36	1
127	135	1
146	166	1
147	147	1
121	127	1
50	72	1
174	174	2
107	109	2
19	28	2
13	26	1
22	27	1
54	55	1
15	44	1
158	160	1
62	65	4
156	160	1
1	6	1
171	175	3
74	78	1
1	21	1
17	20	1
23	23	2
21	21	3
29	41	1
124	127	1
14	15	1
123	124	3
27	29	2
2	9	1
12	16	1
82	93	1
169	170	1
25	41	1
130	153	1
140	154	1
75	77	1
140	159	1
122	146	1
84	110	1
90	107	2
179	179	1
16	17	1
90	90	1
93	94	1
19	19	2
120	127	1
141	150	1
21	29	1
121	121	1
61	68	1
6	13	1
106	106	2
175	178	1
24	31	1
52	54	3
113	122	1
129	141	2
2	6	2
118	135	1
118	132	1
83	100	2
114	114	2
131	153	2
175	176	1
73	80	1
120	133	1
143	148	1
120	120	1
38	42	1
159	161	1
18	32	1
93	126	1
62	92	1
143	143	1
159	165	1
130	133	1
119	119	1
52	56	1
104	104	3
0	11	1
81	84	1
59	66	2
154	156	1
102	113	2
171	173	1
51	64	1
59	90	1
123	128	1
36	36	2
158	158	1
113	113	2
73	73	1
170	174	1
141	142	3
131	152	1
87	124	1
61	92	1
141	147	1
8	18	1
3	5	1
145	160	1
134	139	1
86	88	1
1	4	1
20	26	1
49	63	1
168	172	1
63	73	1
2	41	1
145	151	1
73	89	1
104	125	1
148	154	1
78	86	1
23	147	1
57	58	1
