66	85	6
25	25	9
31	95	3
44	65	4
78	79	1
126	129	3
63	63	4
32	34	5
12	12	9
43	43	10
22	82	4
75	75	9
101	102	4
78	78	14
102	102	9
20	38	1
126	127	1
68	68	4
30	30	10
72	72	10
46	46	13
96	97	1
24	24	7
112	113	3
26	93	2
73	74	1
7	7	7
66	84	3
1	36	2
26	26	13
44	44	2
94	95	5
83	83	14
127	131	1
5	6	3
28	30	1
21	85	5
69	69	11
4	4	14
9	9	11
64	64	13
11	11	14
62	88	2
97	122	4
99	100	3
123	123	7
93	95	1
11	12	4
76	77	7
10	10	10
48	48	20
29	95	2
57	94	1
14	14	8
113	116	2
68	130	3
129	129	5
6	6	8
8	35	5
62	65	3
62	62	14
47	47	17
20	20	10
79	81	3
90	97	3
97	98	3
79	79	6
119	119	4
32	32	8
25	94	2
110	110	10
82	82	7
3	3	8
57	80	3
23	26	5
4	16	2
84	84	8
93	93	7
93	116	2
25	31	1
16	35	1
23	24	2
124	124	4
32	33	2
122	122	11
35	35	5
31	31	15
36	36	5
104	105	3
77	78	6
114	117	3
12	103	2
80	82	3
70	70	3
19	19	3
60	60	17
24	25	9
114	115	3
39	40	5
58	84	4
21	21	10
8	8	14
111	112	1
27	79	2
36	38	4
4	93	6
4	13	1
100	100	8
64	111	2
132	132	11
113	114	2
9	45	3
49	101	1
34	34	13
14	84	2
121	121	5
66	66	9
117	117	8
38	41	2
22	30	3
93	105	4
40	40	2
101	101	1
124	125	4
107	107	2
87	90	7
111	111	4
108	109	3
16	17	7
92	92	5
60	63	2
60	62	2
94	111	4
4	50	7
133	133	13
76	76	6
83	84	4
43	44	3
7	101	2
99	99	11
64	74	1
104	104	10
29	29	7
71	77	1
77	77	6
68	69	4
21	82	2
72	74	1
90	109	2
95	99	7
70	71	1
5	84	1
131	132	4
98	98	2
37	78	2
112	112	7
106	107	5
12	46	4
13	77	1
46	62	1
2	2	3
78	97	3
59	60	7
11	82	3
127	127	4
108	108	2
106	109	4
37	38	2
71	71	8
43	83	1
27	91	1
116	116	9
49	49	3
22	23	1
6	99	2
66	70	3
5	5	4
4	5	4
93	99	1
125	125	5
90	92	4
29	30	8
45	47	3
45	45	4
65	65	4
7	8	5
129	131	6
59	59	13
115	117	5
82	91	3
20	21	1
27	81	1
40	41	2
69	70	5
20	44	4
7	76	1
33	33	6
80	94	5
70	85	2
26	85	2
6	82	1
5	15	5
103	103	5
4	6	1
5	25	2
62	80	3
56	56	7
86	86	2
109	109	7
29	46	4
27	27	10
126	133	2
19	43	2
128	133	2
61	61	10
41	42	3
47	48	5
128	128	6
0	72	3
43	57	3
9	47	5
4	82	3
7	26	1
62	64	1
110	118	1
55	55	4
90	90	4
11	93	6
26	81	3
89	89	2
80	81	2
57	57	9
94	94	8
58	59	3
113	113	3
25	41	4
35	74	1
8	36	1
57	58	7
9	10	1
122	125	6
95	95	1
87	88	4
22	22	4
73	73	5
36	59	1
130	131	1
42	49	2
20	41	1
130	130	2
91	99	1
134	134	4
36	62	1
125	126	6
4	44	3
82	83	1
81	81	3
13	13	5
38	38	7
66	93	2
118	118	3
88	88	3
3	102	4
87	89	3
92	100	2
14	49	1
26	90	1
6	94	3
5	7	4
19	33	2
58	58	1
82	84	1
62	69	3
54	54	2
15	15	4
28	28	3
25	26	2
93	94	2
41	62	2
61	63	1
79	80	6
68	76	1
108	115	1
57	81	1
31	101	1
8	32	1
114	116	1
4	57	1
46	67	1
95	96	4
3	45	2
47	93	2
116	118	1
67	68	1
92	105	2
80	80	4
4	7	3
78	81	4
22	61	1
109	113	2
7	56	6
0	62	1
61	126	2
4	85	1
17	27	1
39	55	2
60	81	2
106	106	3
127	132	1
75	76	1
7	23	2
42	42	3
84	85	1
27	28	5
11	76	1
30	126	2
6	32	1
17	28	1
85	85	7
61	64	1
21	27	1
91	91	1
37	37	1
100	101	2
26	47	2
5	16	2
37	56	1
96	110	1
120	121	2
86	98	1
47	92	1
20	22	1
20	26	1
21	75	1
33	74	2
46	47	1
63	64	2
66	67	3
15	41	1
91	94	3
31	49	1
3	67	1
8	11	4
89	92	3
26	126	2
78	80	1
68	73	1
56	57	1
84	101	1
57	59	1
111	117	1
19	20	1
120	122	1
14	43	3
60	74	1
6	21	3
80	99	3
94	96	2
21	59	1
74	74	4
44	125	1
13	109	2
65	66	1
13	14	1
44	76	1
16	16	1
11	32	1
39	39	1
3	78	1
131	131	3
11	39	1
36	40	2
37	59	1
3	77	1
72	73	1
9	83	1
128	129	1
0	0	1
45	46	1
33	34	1
45	64	1
31	32	1
6	11	1
84	98	1
128	131	1
116	117	2
44	45	1
46	71	1
4	99	2
26	29	2
61	62	1
17	20	1
89	90	2
41	41	1
4	26	1
120	120	1
17	18	2
38	39	1
18	34	1
91	95	1
131	134	1
85	93	1
76	103	2
85	111	1
44	60	1
4	96	1
55	56	1
11	90	1
28	57	1
33	35	1
18	60	1
