228	228	3
107	108	8
200	201	2
190	190	9
50	54	5
70	71	6
109	109	9
60	60	6
183	183	5
9	10	3
46	46	6
101	101	9
68	106	3
117	117	9
143	143	11
141	141	6
177	178	2
48	48	5
44	44	4
74	74	4
153	160	2
226	226	7
69	70	7
25	25	11
55	55	6
176	177	2
32	32	7
216	216	5
36	36	5
97	99	4
137	138	4
81	81	6
80	80	4
171	172	5
107	107	2
24	24	5
85	85	8
240	240	15
76	133	5
41	41	7
203	223	2
159	164	4
34	36	7
43	43	4
34	35	3
213	213	3
104	105	8
144	144	6
10	10	7
199	199	3
23	23	10
194	194	3
232	232	2
57	57	5
173	173	4
168	168	9
180	180	16
33	33	5
86	86	16
227	227	6
136	138	2
35	36	5
186	214	1
199	209	1
242	242	5
120	120	6
203	203	2
214	217	3
141	143	2
11	28	3
0	0	8
65	65	3
140	141	6
61	61	9
167	179	2
160	160	4
103	104	3
62	152	5
66	66	4
204	221	4
19	19	12
102	138	1
78	78	6
26	26	5
137	137	11
175	208	1
203	227	2
196	196	4
212	212	1
41	144	4
189	215	2
188	188	5
16	16	6
31	31	14
207	208	4
37	37	9
233	233	14
75	76	2
83	84	2
198	229	1
96	169	4
48	53	3
120	133	2
77	129	1
43	140	4
108	108	2
150	150	6
127	148	3
178	178	1
171	171	2
13	17	1
149	149	5
159	159	5
59	60	5
64	64	10
205	206	1
241	241	3
153	173	3
142	142	5
175	178	1
44	45	2
21	22	11
142	151	2
37	55	3
208	208	3
71	71	6
147	147	7
11	44	1
52	52	7
63	63	5
1	29	3
207	207	9
177	177	4
37	48	2
136	136	2
192	192	3
2	2	1
69	69	4
11	11	6
39	39	6
29	29	5
71	72	3
205	205	7
220	220	6
17	17	5
20	20	4
229	229	6
141	142	4
50	128	1
84	84	8
161	161	2
194	228	4
125	126	3
63	160	2
221	221	4
28	28	4
191	191	4
103	106	3
70	70	3
104	104	4
222	222	3
208	211	1
155	155	7
83	83	7
151	151	6
165	165	6
22	23	6
22	22	7
185	187	2
197	206	3
134	135	3
210	211	4
192	193	3
8	8	5
53	53	3
169	169	6
14	23	1
9	9	3
211	211	5
4	12	3
134	134	4
198	228	1
66	67	7
197	231	5
224	225	2
40	40	7
219	219	8
60	139	1
181	215	1
47	242	4
153	153	5
77	77	6
12	12	6
217	217	1
214	214	1
162	163	5
237	237	4
148	148	1
61	72	1
5	14	1
39	40	1
45	45	1
96	96	5
184	185	4
201	201	4
198	205	1
27	83	1
11	13	1
105	106	4
188	189	3
80	81	10
158	158	3
222	228	1
21	21	5
28	75	1
125	155	1
228	229	3
50	51	4
7	14	1
190	242	2
204	204	8
140	159	4
217	218	1
9	11	2
200	200	1
13	13	10
202	202	1
239	239	2
72	72	6
39	41	3
63	118	1
139	139	8
165	210	1
75	85	2
181	182	3
140	143	3
16	17	3
233	234	1
122	122	6
207	229	2
54	54	3
4	4	2
157	177	4
30	30	3
47	47	3
69	71	1
131	179	1
112	152	1
235	235	6
123	123	6
49	49	1
48	49	1
73	73	2
19	229	1
140	140	2
33	48	3
40	41	2
5	16	2
154	174	1
185	185	3
79	79	2
122	127	3
166	166	2
18	34	3
216	222	1
214	216	2
132	170	1
224	224	4
122	123	1
59	59	8
150	151	1
24	231	2
155	157	5
157	157	2
223	227	1
51	51	11
172	172	6
163	208	1
9	26	2
73	97	1
102	102	5
229	230	1
12	14	2
110	110	1
99	99	3
21	25	2
225	225	4
59	61	2
156	156	5
167	167	6
164	164	5
187	187	2
149	150	2
231	232	2
5	7	2
18	18	1
73	74	1
15	16	1
164	211	2
113	126	1
239	240	2
236	236	2
5	5	1
138	138	3
49	50	3
76	89	1
238	240	5
14	15	2
69	73	2
173	180	2
55	61	5
116	122	1
179	179	3
14	14	8
29	30	1
6	7	1
223	223	6
210	210	6
50	50	3
101	102	4
10	11	1
130	130	1
221	222	1
190	213	6
189	190	1
15	17	2
238	238	2
86	147	2
76	76	1
116	117	1
56	57	3
152	152	2
31	34	1
95	105	1
68	73	1
26	224	3
40	42	1
84	89	1
7	18	2
32	33	1
45	54	1
188	190	1
167	168	2
15	15	2
82	82	3
116	116	3
215	215	2
154	154	6
129	130	1
78	113	1
133	133	2
176	209	3
13	35	2
2	22	3
173	202	1
227	230	1
42	53	2
119	119	3
180	181	2
219	226	1
176	176	3
163	202	1
21	23	3
189	189	2
85	134	1
116	118	1
1	1	3
198	199	1
80	83	1
175	180	2
154	155	3
32	53	1
19	35	3
62	62	4
58	59	4
95	95	1
75	81	2
144	145	2
151	164	1
28	30	1
200	209	2
22	230	1
136	137	1
126	141	1
115	115	2
235	236	1
98	100	1
105	114	1
189	217	1
47	52	1
186	216	2
25	232	2
100	100	2
80	109	1
88	88	1
127	127	1
83	133	1
34	34	1
219	220	2
128	169	1
61	165	1
26	27	1
170	170	3
166	207	2
146	147	1
50	57	1
100	120	2
173	174	2
230	230	1
12	18	2
218	218	2
68	68	2
64	102	2
38	38	2
201	216	2
211	212	3
153	154	1
56	70	2
32	88	3
163	163	2
7	8	2
220	221	1
121	152	2
128	128	1
63	69	1
105	105	1
69	84	1
82	134	1
139	140	1
183	196	1
207	220	1
3	5	2
194	196	1
8	13	2
116	119	2
142	143	1
58	139	2
154	173	1
4	6	2
183	211	2
105	112	1
195	195	2
65	68	1
1	2	1
196	237	1
148	149	1
129	129	1
197	198	1
119	154	1
0	2	1
121	121	1
11	220	1
75	77	1
212	231	1
118	118	1
8	48	3
9	33	1
78	96	1
2	5	1
95	158	1
151	152	1
130	163	1
106	108	1
24	226	1
67	67	1
194	195	1
145	145	1
174	180	1
182	182	1
68	69	1
