106	107	9
2	2	16
139	139	39
130	130	33
35	36	6
112	113	6
104	105	3
100	100	19
103	123	3
35	35	29
131	131	39
16	16	24
8	9	26
82	85	6
128	129	21
107	119	4
118	122	1
26	26	19
116	116	21
78	78	13
123	123	29
130	133	1
140	140	31
7	7	18
72	74	3
88	113	2
86	86	19
132	132	36
91	91	10
111	112	10
108	108	11
32	32	24
87	87	23
94	94	25
85	85	16
97	97	18
33	33	21
19	19	22
136	136	35
92	92	11
82	82	14
31	79	2
119	119	15
99	99	16
124	124	39
125	126	11
72	72	16
129	130	8
128	128	35
2	4	3
77	101	3
91	108	2
5	5	29
74	117	3
78	112	1
23	24	9
22	29	5
95	97	5
11	12	12
31	32	10
129	129	44
101	101	19
102	102	21
83	83	24
15	15	10
80	107	1
121	121	21
81	94	4
21	22	6
21	21	25
10	10	25
95	96	8
108	110	1
34	91	6
113	113	31
28	28	8
25	25	28
6	27	3
29	29	8
74	74	10
32	33	6
102	115	1
134	135	15
118	120	4
135	136	12
105	105	19
2	24	2
120	120	17
104	104	18
36	36	26
118	118	9
134	134	48
118	119	6
94	116	2
125	137	2
12	14	6
95	95	22
79	79	26
76	76	3
17	33	2
22	30	6
76	77	12
13	14	19
10	11	12
123	126	3
98	98	11
137	137	17
127	127	38
88	88	12
25	26	8
125	136	2
34	34	36
2	3	5
13	13	19
93	93	8
125	125	39
109	109	19
20	94	3
24	24	26
22	25	5
94	95	4
121	122	7
17	17	17
77	78	6
79	80	1
36	98	2
3	3	18
122	122	29
112	112	13
14	14	34
108	109	10
105	106	7
4	5	10
34	128	3
17	18	15
26	27	5
116	122	4
8	23	1
79	124	8
117	117	25
71	72	1
75	75	13
9	31	6
81	82	6
131	132	10
138	138	22
0	0	17
132	133	3
36	71	1
137	138	12
22	82	3
32	81	1
96	96	20
111	111	12
79	93	1
103	103	20
132	138	1
74	96	2
9	11	2
126	126	36
135	135	25
110	111	19
20	20	12
115	115	21
85	87	3
30	76	5
37	37	21
136	138	1
93	94	3
116	123	3
123	124	7
89	89	42
90	90	7
6	83	2
0	88	3
10	71	2
78	87	4
31	31	12
20	26	3
9	9	14
6	6	22
12	71	2
100	101	4
8	10	11
7	23	9
106	106	6
71	99	2
73	73	15
12	12	15
86	87	2
92	93	2
9	23	1
109	112	2
3	4	14
11	101	1
99	100	4
110	110	19
36	82	2
77	77	16
75	76	9
90	92	1
26	29	2
4	4	18
23	23	11
11	11	14
107	107	7
98	99	2
75	118	1
22	22	21
27	27	21
77	109	3
28	29	7
29	30	4
38	38	7
15	21	1
18	18	14
121	123	5
20	21	8
73	74	1
10	12	3
4	7	2
1	2	6
34	99	1
109	110	3
107	109	2
11	13	2
27	28	7
101	102	8
120	122	5
30	30	10
80	80	9
81	84	2
127	129	7
0	1	7
14	78	3
120	121	8
3	21	2
133	133	36
7	9	2
8	8	15
126	130	2
71	71	11
90	96	2
9	10	3
102	103	7
81	81	5
99	114	2
104	107	5
27	29	2
117	121	1
34	35	8
76	78	5
124	125	8
13	94	1
103	104	2
13	75	2
104	106	5
12	15	2
124	126	2
27	30	3
84	84	8
28	30	1
22	24	4
74	75	4
1	1	6
117	120	1
102	106	1
122	123	10
120	123	4
127	128	10
104	108	2
77	91	2
22	23	1
90	91	9
82	103	1
97	100	1
96	97	3
117	119	5
30	31	6
105	107	3
7	8	8
119	120	9
101	123	1
18	22	1
6	23	3
99	111	2
87	88	9
74	88	1
32	72	6
31	73	2
4	130	2
118	121	3
33	131	1
33	34	2
88	90	1
18	19	2
13	15	6
134	136	2
0	101	3
19	26	4
72	99	1
31	129	1
133	134	4
114	114	11
91	92	1
82	91	1
80	85	1
10	80	1
75	100	2
126	127	6
82	83	5
14	16	1
6	7	3
73	81	2
27	125	1
71	129	1
15	17	3
77	93	1
76	92	6
5	6	4
97	98	2
119	122	5
101	104	1
24	28	2
27	94	1
93	100	10
16	33	1
6	85	2
86	91	4
95	113	2
84	103	1
88	89	1
7	10	2
82	84	2
13	23	1
8	12	2
2	14	3
9	12	3
130	131	4
12	125	2
28	75	3
85	86	3
100	102	3
18	27	2
129	137	2
14	76	1
32	88	1
77	102	3
131	139	5
109	111	1
85	91	1
78	80	3
14	93	1
7	71	1
83	84	5
17	35	3
19	23	3
73	107	2
38	75	1
99	110	2
102	109	1
76	109	9
80	108	2
130	138	1
32	75	2
24	25	2
106	108	4
136	137	3
6	88	1
117	123	1
113	118	1
100	123	1
12	38	2
93	106	1
24	26	1
6	13	1
104	113	7
89	90	4
16	17	1
15	16	3
138	139	3
10	20	2
18	21	1
19	20	4
129	135	1
105	119	6
82	93	2
100	109	2
128	130	1
34	129	1
27	31	2
103	122	1
116	117	2
89	91	3
124	132	1
11	19	1
75	110	1
112	115	2
33	95	1
117	118	1
89	94	1
111	119	2
115	116	3
126	129	2
23	80	1
26	30	1
14	15	2
24	31	2
13	20	1
86	105	2
17	111	1
21	23	1
7	37	6
8	29	1
84	87	3
7	72	1
32	83	2
17	24	1
28	32	2
12	72	3
113	114	3
114	115	3
12	18	2
80	81	1
89	96	2
104	120	3
10	19	1
11	30	2
82	102	1
113	117	1
11	21	1
88	93	1
78	79	1
23	29	1
1	3	1
136	139	1
83	85	1
123	125	1
3	6	1
117	122	1
7	21	2
29	113	2
36	37	2
8	11	1
11	26	1
13	72	1
1	8	1
102	124	1
28	78	1
21	94	1
1	16	1
70	73	2
112	114	3
84	85	1
78	125	1
32	84	1
107	108	2
37	110	1
2	18	1
3	5	1
