175	176	11
138	138	4
38	38	8
6	6	8
22	60	1
15	15	3
14	14	3
118	118	10
78	78	6
23	63	1
82	107	1
13	13	5
87	87	11
162	182	6
57	57	7
32	33	1
93	93	3
35	35	6
129	135	3
97	118	2
137	137	10
169	173	3
74	74	9
11	11	4
84	89	2
75	75	8
106	106	9
5	5	6
82	83	3
181	181	7
56	56	7
133	133	4
189	189	2
177	177	6
24	30	1
140	142	4
43	43	6
59	59	2
87	174	3
27	38	1
53	53	3
154	154	4
44	44	10
69	69	1
25	25	6
45	47	1
17	17	7
53	95	1
114	115	3
101	103	3
44	47	5
113	113	11
142	143	4
88	88	9
61	61	13
190	190	7
2	2	12
129	129	2
65	106	1
149	155	1
171	171	5
62	63	5
156	156	3
135	137	2
77	78	3
43	44	1
176	178	4
161	168	2
37	37	14
157	157	1
39	39	6
89	89	12
162	190	2
137	138	1
140	140	11
182	183	1
129	153	1
149	149	4
159	160	1
173	173	7
1	1	9
127	127	9
46	46	9
170	170	3
158	158	3
160	162	5
23	62	6
109	110	2
114	114	6
77	77	11
163	163	7
165	165	6
9	9	2
48	48	14
58	59	4
81	82	2
134	134	7
119	119	3
30	30	7
93	94	8
80	83	1
80	81	2
11	12	3
79	79	5
0	8	4
62	105	2
78	79	5
68	68	6
8	8	7
117	117	2
86	86	5
27	29	3
64	64	4
84	84	4
80	151	2
61	62	3
156	161	2
138	163	1
123	123	5
139	165	1
123	125	1
19	26	6
140	141	2
29	29	4
136	156	3
94	94	11
20	21	5
56	57	12
127	128	7
142	142	5
165	166	1
0	0	4
100	100	3
40	40	10
36	36	2
89	97	1
130	130	5
8	17	1
72	73	2
135	135	7
21	21	4
162	188	1
5	6	2
60	60	4
102	102	11
126	129	5
101	101	9
127	131	2
82	82	13
55	55	6
108	154	3
126	128	3
84	88	1
135	136	2
142	171	1
24	24	8
90	124	1
4	5	6
90	90	3
75	76	8
155	155	8
97	99	2
161	161	3
6	7	5
99	99	11
128	128	2
19	19	3
92	117	1
60	62	7
147	147	6
187	188	6
143	153	2
182	182	5
112	112	4
110	110	2
33	37	1
14	15	6
139	139	9
148	148	6
22	47	6
145	154	1
96	97	2
159	180	5
10	45	1
61	105	1
164	165	2
84	92	2
66	66	2
90	117	2
108	155	4
146	146	7
72	72	7
26	26	4
141	141	5
62	62	2
122	125	4
42	42	3
7	7	5
37	38	5
61	71	1
109	109	3
133	136	14
178	178	4
77	150	1
16	17	1
92	92	6
76	76	6
109	113	1
80	80	5
22	24	1
180	180	2
19	20	5
83	83	11
41	153	1
12	43	3
161	167	1
116	117	4
152	152	4
21	46	6
12	12	4
184	185	7
114	120	3
63	107	1
21	47	1
54	55	2
124	140	5
27	27	1
1	6	1
156	158	5
153	169	2
22	22	6
185	186	1
131	131	2
64	66	2
145	148	2
125	152	2
79	80	3
130	131	3
104	104	2
24	48	2
147	149	1
77	85	3
95	96	1
95	97	2
110	111	3
0	10	4
44	46	1
184	184	3
174	174	2
20	20	10
0	1	3
26	27	3
133	137	3
4	4	4
28	29	1
12	14	1
137	155	3
107	107	1
32	32	7
107	108	1
148	149	1
96	96	8
3	3	4
64	65	3
47	48	5
86	93	1
28	28	7
80	155	2
129	131	3
73	73	4
120	121	4
120	120	4
81	81	3
71	77	1
157	158	2
33	33	4
121	122	4
65	67	5
79	83	3
152	169	5
158	181	2
143	143	6
18	19	1
5	12	1
147	148	2
73	74	3
122	122	1
144	148	1
145	145	2
185	185	3
83	109	2
31	62	2
162	162	6
24	61	1
91	105	1
31	31	5
102	103	3
80	114	1
153	153	4
71	71	1
59	60	1
45	45	5
28	94	1
108	108	5
10	10	4
145	146	7
58	58	2
23	25	5
85	86	4
144	151	1
91	95	2
122	124	1
188	188	3
124	125	4
106	107	3
148	154	1
116	116	3
175	175	2
58	73	1
136	136	6
121	121	5
41	156	2
36	37	2
102	104	1
12	46	3
182	185	1
40	41	4
74	75	2
27	36	3
91	93	1
152	172	2
4	6	2
23	23	6
44	71	1
77	169	4
21	29	2
186	186	3
91	92	1
45	46	1
176	177	1
123	124	4
41	42	1
16	16	5
55	131	1
95	95	1
63	104	2
152	154	2
34	34	3
62	107	1
73	146	2
68	103	3
63	136	1
74	150	1
66	67	2
37	39	1
34	35	2
146	148	2
164	164	5
163	164	5
23	41	1
0	19	1
28	43	2
23	24	7
142	172	1
54	57	2
2	3	3
6	13	2
85	98	4
84	86	5
53	54	1
69	70	3
159	179	2
103	103	5
168	168	1
140	143	2
107	109	2
142	144	1
22	57	4
118	126	1
118	119	2
125	127	1
72	157	1
57	58	3
75	79	3
101	104	2
55	136	1
31	35	3
17	20	3
146	147	2
114	118	1
24	39	1
65	74	2
5	10	2
71	72	3
182	184	2
17	157	1
141	143	2
74	156	1
131	133	1
63	63	5
82	102	3
132	133	7
131	134	2
65	113	2
187	187	4
113	120	1
55	57	3
34	36	3
128	141	1
88	89	3
31	46	2
46	62	1
90	91	1
61	63	3
58	60	2
84	85	4
100	101	1
41	75	1
121	123	1
150	150	1
33	36	1
96	117	2
18	35	1
55	56	1
139	140	2
57	130	1
161	162	2
44	45	2
24	25	3
52	60	1
46	47	6
63	105	2
160	161	1
144	145	1
105	112	2
188	189	1
167	167	2
117	125	1
95	112	2
125	125	2
119	120	1
25	27	1
166	168	4
104	105	2
68	69	3
15	16	3
31	60	2
5	9	1
38	39	1
42	44	2
85	85	1
72	150	1
178	179	1
58	63	1
167	168	2
161	181	1
119	124	1
31	87	2
162	163	3
91	91	2
61	64	2
3	41	1
124	126	1
125	126	1
186	188	1
65	66	1
4	43	3
118	151	1
52	53	2
124	124	2
138	166	2
23	26	1
67	68	1
31	32	1
142	156	3
27	28	2
170	174	1
108	109	1
165	167	2
4	10	1
99	100	1
115	115	1
62	136	3
98	98	2
93	100	1
125	129	2
176	176	1
89	122	1
83	87	1
30	31	2
76	77	2
53	107	1
103	116	1
68	71	1
4	41	1
179	180	1
33	34	1
77	146	1
127	142	1
23	32	2
11	15	1
166	167	2
5	43	2
39	41	1
186	189	1
94	97	1
35	37	2
54	54	2
129	130	4
169	172	2
147	155	1
23	47	1
33	35	3
134	135	1
127	148	1
18	18	3
43	155	1
152	163	3
53	55	1
172	172	1
95	98	1
42	43	1
69	143	1
162	167	1
174	175	1
96	98	2
95	100	1
151	151	1
155	156	1
42	74	2
177	178	3
157	161	2
22	157	1
83	85	1
39	40	1
30	46	1
58	65	1
13	14	1
169	170	1
134	156	1
4	44	1
117	118	1
132	132	1
105	132	1
97	97	2
152	153	1
130	132	1
136	137	1
9	10	1
88	110	1
64	70	1
140	162	1
158	159	1
