89	90	2
88	99	7
73	75	1
110	110	4
64	65	4
47	65	3
67	67	5
111	112	1
91	94	2
55	86	1
80	81	2
39	39	5
55	56	6
103	106	6
72	72	4
50	50	5
53	80	1
90	90	13
29	29	3
20	20	7
88	95	5
68	68	3
40	41	5
115	115	1
59	59	11
27	27	8
73	74	4
54	56	4
108	109	1
47	47	5
109	109	9
56	58	5
111	111	12
49	49	2
53	84	1
107	107	4
60	60	2
53	54	5
95	97	2
113	113	4
42	43	3
94	109	2
45	96	6
84	84	4
76	76	4
42	42	8
71	71	1
71	79	1
56	56	5
38	39	1
69	70	2
103	103	7
108	108	7
19	56	2
94	97	1
30	31	4
78	79	6
73	73	2
22	22	1
63	63	4
76	77	1
80	80	2
32	32	4
23	23	6
96	97	2
52	53	2
85	86	4
65	65	2
102	103	3
43	44	2
83	84	6
62	63	2
81	82	3
20	52	1
83	83	4
70	70	5
46	46	6
57	57	2
37	37	9
102	102	3
20	51	3
89	89	3
103	105	4
90	97	2
52	52	1
74	74	1
19	19	5
65	67	6
34	34	1
75	75	1
111	113	3
95	95	8
27	28	3
104	106	4
99	110	3
112	113	6
58	59	1
54	57	1
103	109	1
91	91	2
70	80	3
59	61	2
50	51	4
112	112	1
106	106	3
30	30	6
48	49	2
43	43	9
21	21	4
81	83	5
26	26	2
54	97	2
87	87	3
61	61	5
93	93	5
111	114	1
24	24	2
44	44	5
38	38	2
21	53	2
24	61	2
105	105	4
100	107	1
33	33	5
92	92	2
66	67	2
39	40	4
100	104	3
93	109	3
34	38	1
47	48	6
85	85	1
67	85	4
54	58	1
64	64	2
31	31	7
61	62	1
77	79	4
53	69	2
54	55	4
62	62	3
34	35	1
103	107	1
75	76	1
80	109	1
67	88	4
93	94	2
28	28	2
35	35	6
28	29	1
58	58	2
49	113	1
97	98	2
68	86	2
57	59	3
72	90	1
87	89	1
69	69	1
66	66	1
101	101	1
38	41	1
66	75	1
22	25	1
77	78	2
102	108	1
59	65	1
68	69	1
97	97	2
96	96	2
91	95	1
54	54	1
49	65	1
59	101	2
45	45	1
100	100	1
58	61	1
37	38	2
57	61	1
99	99	1
104	105	1
94	94	1
59	60	1
56	68	1
65	66	1
41	41	1
60	62	1
