166	166	6
6	8	4
131	131	10
5	11	6
139	171	1
26	26	9
105	109	5
84	85	3
20	33	2
138	139	7
157	162	4
39	39	5
41	48	4
82	82	3
78	78	6
121	122	3
11	11	2
138	138	9
4	45	3
96	96	4
121	121	3
22	23	2
114	115	4
140	140	7
157	157	1
182	182	10
8	8	3
75	75	2
91	91	5
56	56	2
60	60	4
34	35	2
43	43	3
3	3	7
20	20	6
66	163	5
44	44	6
38	38	4
45	45	4
87	87	10
40	40	1
59	59	2
122	122	5
142	142	2
62	62	10
77	77	3
1	1	8
71	72	3
29	46	3
187	188	1
89	89	2
47	47	5
42	48	2
170	170	3
84	84	2
118	118	6
83	83	1
33	71	5
135	136	5
7	7	9
90	90	9
4	8	2
139	185	2
2	3	3
111	111	4
30	30	5
79	79	3
58	58	6
101	103	1
29	29	10
47	48	4
41	41	11
94	94	3
164	164	5
77	79	3
127	127	9
103	103	8
22	44	1
13	13	4
106	106	3
97	97	6
113	145	1
184	185	1
129	129	2
137	137	3
63	162	4
81	81	10
4	4	2
155	155	4
157	161	1
46	47	4
91	124	4
84	104	3
0	1	2
15	15	5
5	10	2
85	124	4
116	180	3
24	26	1
155	157	1
98	180	2
136	156	1
144	145	4
79	108	4
163	164	1
141	152	3
108	108	13
57	57	2
99	99	4
115	156	1
108	188	2
133	134	2
119	120	3
134	136	1
117	118	1
71	165	1
104	158	3
73	73	2
112	112	2
21	60	3
16	39	1
4	16	3
7	8	1
13	16	4
48	112	1
171	171	2
183	183	5
114	114	5
92	93	1
128	128	2
85	90	2
39	40	1
190	190	1
88	88	6
43	44	3
0	0	5
117	117	5
34	34	4
23	42	1
60	61	2
131	133	1
182	183	1
115	115	2
181	181	2
116	116	3
30	31	2
76	76	1
111	130	1
28	29	2
173	173	1
115	180	2
148	148	2
18	45	1
16	16	1
117	164	1
122	123	5
10	38	3
0	59	1
114	144	2
161	161	2
3	38	5
20	46	7
31	32	1
115	139	1
93	93	3
31	31	3
123	124	4
145	145	1
58	59	1
153	153	2
97	98	1
93	94	1
40	127	1
66	70	4
12	12	2
19	42	2
73	156	1
125	125	4
75	76	3
96	97	3
29	31	1
154	154	3
10	10	4
100	100	2
181	182	1
151	153	1
176	176	1
123	123	4
94	106	3
55	73	3
55	55	3
81	82	2
124	124	1
104	104	2
35	35	3
19	20	3
67	67	2
139	144	1
18	19	3
98	98	4
72	72	1
19	19	4
61	61	4
130	130	3
96	98	1
9	9	1
48	48	4
113	129	4
6	25	1
145	156	6
184	184	1
74	74	2
71	113	1
21	61	2
137	145	2
175	175	1
76	115	1
156	156	1
143	144	3
3	17	1
132	132	1
120	120	1
3	22	1
159	163	1
139	172	1
66	66	1
5	18	1
18	18	1
155	156	3
32	32	1
32	33	1
113	113	1
149	155	2
89	90	1
72	73	1
133	133	3
187	187	1
135	135	1
113	155	1
85	86	1
43	49	2
152	152	1
54	54	1
162	163	1
23	25	1
93	186	2
23	23	1
119	119	1
70	154	1
63	63	1
113	156	1
149	163	1
86	86	4
133	147	1
148	150	1
9	10	1
73	165	1
173	179	1
175	179	1
138	146	1
16	17	1
36	36	1
36	37	1
28	28	1
26	106	2
57	63	1
97	148	1
6	17	1
130	131	1
95	185	1
109	109	1
186	186	1
81	83	1
