90	90	18
93	93	23
51	52	10
72	73	4
67	67	6
70	70	6
52	52	13
64	64	5
94	94	13
100	100	6
87	96	4
90	91	4
68	68	13
99	99	9
91	92	5
32	34	1
22	29	1
66	66	16
45	46	4
65	66	3
70	82	2
67	68	6
63	63	5
42	43	5
106	106	1
63	64	2
60	60	11
22	56	1
57	57	2
49	68	4
98	98	5
31	31	12
53	53	17
60	61	10
39	39	25
38	41	8
71	72	5
76	95	2
59	65	1
72	72	26
33	34	5
78	100	2
41	41	4
102	102	10
50	50	11
57	58	2
45	45	6
77	77	3
53	72	6
33	33	6
27	27	8
78	78	20
20	20	10
38	38	7
25	25	4
36	36	7
73	73	12
43	43	3
20	81	4
80	83	1
82	82	5
40	40	11
105	105	12
68	69	4
31	34	2
27	28	3
92	92	6
37	37	3
104	105	1
47	48	3
75	75	18
77	78	4
22	22	19
94	102	1
88	88	5
34	34	8
97	97	7
91	91	12
49	49	4
51	51	9
43	45	3
21	21	10
51	71	5
52	54	2
93	94	1
23	25	2
35	36	16
98	99	3
44	44	5
95	102	2
60	62	3
76	76	7
56	70	1
75	76	4
74	74	13
97	98	5
47	47	9
77	101	3
30	30	7
59	59	11
71	74	4
29	30	1
58	58	11
97	99	1
32	32	3
58	59	1
103	104	3
48	49	4
79	89	1
71	71	15
101	102	6
24	24	13
64	65	2
90	92	4
34	67	2
33	38	1
35	35	9
79	80	6
46	46	3
70	71	1
95	95	4
55	58	3
26	26	4
78	102	1
80	80	2
55	65	2
101	101	6
53	57	1
62	62	5
72	74	1
79	81	1
59	60	5
40	42	3
54	70	1
40	45	3
78	79	2
96	96	7
62	63	2
47	49	2
56	56	4
55	55	8
56	57	2
35	61	2
36	39	1
66	67	6
28	28	3
29	33	1
32	33	4
61	61	4
50	51	4
74	75	3
26	27	4
85	85	6
69	71	1
69	70	1
29	29	2
54	54	5
58	62	2
80	81	10
46	59	3
21	22	3
68	70	3
37	39	1
84	99	2
101	103	1
44	45	1
103	103	8
82	83	4
83	83	1
65	65	6
72	76	3
87	87	5
64	68	1
49	56	2
73	74	3
61	63	1
87	95	1
96	99	2
54	57	2
83	84	1
69	69	3
85	87	4
41	45	2
20	21	4
23	24	4
52	53	5
104	104	2
36	37	1
95	96	1
53	54	4
31	32	2
46	49	1
86	87	3
31	38	4
84	84	2
45	59	4
91	102	1
76	77	4
73	95	1
89	89	3
36	38	3
78	101	3
22	24	3
23	29	2
26	29	7
50	52	1
20	31	3
62	67	2
100	102	1
70	72	2
38	39	1
55	74	2
107	107	1
71	76	1
78	90	1
94	95	1
34	35	1
89	90	1
84	94	1
39	40	2
79	79	3
54	56	1
55	56	3
84	87	1
48	48	2
55	64	1
82	85	1
23	23	2
81	100	2
73	76	1
100	101	2
34	65	1
24	25	1
71	77	1
51	56	1
23	35	1
22	23	1
81	84	1
