73	73	10
72	73	3
32	93	3
57	59	3
85	85	8
87	87	6
43	64	5
82	82	7
66	66	28
31	31	5
88	88	18
69	73	3
34	34	9
36	36	14
69	69	18
86	93	4
60	61	12
58	58	17
34	45	3
98	100	5
92	93	5
101	101	19
87	89	1
24	25	11
75	75	21
64	64	18
34	35	3
49	49	14
59	59	15
61	61	26
91	94	4
95	95	16
39	39	34
102	102	8
73	74	3
43	43	15
49	50	14
47	47	20
67	67	7
51	51	11
85	99	2
76	76	8
92	92	7
65	66	12
70	70	16
86	88	5
89	90	12
58	62	2
99	100	14
89	89	29
24	24	3
39	98	4
74	74	20
66	68	6
68	68	16
79	80	11
88	89	10
71	72	2
78	78	14
41	42	9
32	32	12
85	91	2
52	58	2
88	96	1
57	58	4
65	74	3
99	99	26
35	36	3
98	99	8
39	40	7
91	92	6
67	68	8
45	45	6
72	72	15
36	37	9
53	53	10
51	53	3
40	40	10
90	90	12
32	63	7
74	76	5
26	28	2
59	60	3
50	50	21
95	98	6
71	78	2
37	38	9
20	20	6
85	88	3
54	54	11
51	52	7
35	35	14
51	84	1
62	62	19
98	98	12
91	91	16
81	81	14
94	94	14
53	54	3
97	97	18
46	46	12
29	29	6
96	96	9
63	63	21
49	58	5
79	86	2
26	27	3
51	56	2
57	57	8
71	71	15
80	80	11
74	75	4
65	65	21
96	97	8
52	52	28
54	55	8
45	47	3
33	33	15
40	52	1
30	30	7
48	50	3
80	81	4
68	69	1
38	38	9
65	68	6
42	65	1
63	64	2
27	27	12
44	45	2
81	82	8
48	49	9
84	84	11
79	92	2
26	26	4
41	41	20
47	52	3
41	49	1
93	93	12
86	86	15
83	84	7
74	80	3
52	83	2
45	64	3
82	83	2
84	89	1
56	56	5
77	77	3
80	85	2
87	91	1
65	72	3
30	100	1
35	39	4
64	65	9
87	95	3
77	78	3
87	98	3
25	27	4
85	86	10
60	60	20
42	42	10
23	26	5
87	88	9
87	97	1
66	71	1
37	61	2
95	97	8
60	93	2
30	99	2
58	60	4
28	28	5
79	79	6
100	101	3
75	76	2
89	92	1
97	100	4
32	59	3
35	43	5
31	100	1
34	46	3
56	65	1
56	57	10
55	55	9
43	44	1
58	72	2
29	30	4
27	53	2
83	83	1
71	77	1
70	76	6
58	61	2
61	62	5
100	100	3
23	23	3
25	25	2
42	44	1
46	47	6
79	91	1
31	51	3
55	56	8
23	25	1
48	48	4
80	86	1
55	87	1
52	63	2
93	96	4
90	91	8
50	64	1
83	89	7
93	94	3
66	73	2
78	83	1
35	41	2
57	90	3
35	60	1
58	59	4
47	48	5
69	70	4
86	92	2
63	77	2
49	57	2
95	102	1
78	79	4
22	25	1
68	85	1
47	80	2
88	92	2
50	51	3
76	77	2
97	98	7
44	44	4
40	48	2
48	81	2
37	37	8
28	29	2
35	38	4
62	83	3
56	59	2
23	35	3
91	97	1
96	98	5
94	96	1
94	98	4
35	55	3
81	96	1
64	73	1
57	86	2
22	22	2
67	78	2
95	96	13
92	94	5
25	26	2
86	87	2
36	60	2
29	33	2
84	97	1
23	27	2
60	63	1
97	99	1
76	78	1
82	85	4
26	53	1
52	62	1
38	39	1
84	94	2
80	83	1
74	77	2
24	27	1
37	46	1
50	58	2
61	81	3
36	38	2
52	53	1
65	67	1
50	57	1
88	91	1
61	84	1
47	79	1
87	92	1
33	54	1
39	45	1
56	83	2
68	72	1
39	59	1
62	78	1
27	28	1
40	41	1
23	24	1
29	31	1
73	76	1
