105	113	1
151	151	10
179	179	9
10	10	4
23	23	6
217	217	6
233	234	4
186	186	5
152	153	1
190	190	4
185	185	1
12	12	11
173	173	5
178	182	2
72	72	7
56	57	4
175	233	2
42	42	3
39	39	2
187	187	4
114	118	2
230	231	3
123	123	8
202	202	3
20	21	2
4	13	1
174	174	2
184	186	1
73	73	11
143	144	6
155	156	2
102	102	9
4	7	5
105	105	1
34	35	7
25	25	3
24	24	5
57	57	3
180	180	8
30	30	2
61	61	5
145	147	3
85	85	6
199	199	4
28	28	1
240	240	3
49	53	3
183	183	8
118	119	2
181	183	5
46	73	1
3	3	5
30	216	2
133	133	5
72	106	6
228	228	5
41	41	7
224	224	4
9	10	2
21	21	7
22	22	3
0	28	1
42	54	2
136	137	1
146	146	5
8	8	7
193	197	3
80	80	7
127	128	1
236	237	4
54	54	5
56	56	7
7	8	1
59	60	6
69	70	1
207	208	3
31	34	3
134	135	3
192	192	6
80	84	3
47	47	3
15	15	4
210	211	2
198	198	5
40	41	4
38	38	6
106	106	3
36	45	1
16	33	3
13	14	4
156	156	3
226	227	4
14	18	2
69	69	3
16	17	8
84	84	5
208	208	7
135	172	1
72	73	6
74	74	11
18	18	1
222	223	1
133	147	1
232	232	7
242	242	10
58	58	2
46	46	11
55	55	5
185	186	3
127	134	1
11	11	2
0	1	2
88	89	2
160	160	8
172	172	2
233	233	7
11	40	2
101	101	5
76	76	3
45	66	3
134	134	6
130	130	1
46	47	3
200	202	2
195	196	1
123	131	1
2	2	2
49	50	7
41	56	2
98	98	8
241	241	1
180	182	1
221	223	1
71	71	2
2	12	2
120	120	7
236	236	1
114	114	6
7	7	6
200	201	4
117	117	4
8	9	3
205	205	4
193	209	3
52	52	2
3	6	2
193	193	1
9	9	12
201	201	7
18	29	2
146	182	3
192	193	2
45	45	3
50	50	4
209	210	2
199	223	1
191	191	1
95	95	1
42	43	3
181	181	4
217	218	9
219	219	4
131	131	5
40	40	4
190	191	4
4	19	4
64	64	9
10	20	3
178	178	1
185	187	1
230	230	2
167	167	4
223	223	9
68	77	4
83	85	2
22	23	3
49	182	2
161	178	1
11	12	1
121	121	2
115	118	2
235	235	9
0	0	3
37	37	1
189	190	2
10	11	1
227	227	8
166	167	3
193	196	2
239	239	2
209	209	3
52	57	4
238	238	3
36	36	8
96	96	2
139	140	1
131	135	2
153	153	5
97	97	4
98	99	1
16	16	2
222	222	3
52	59	1
37	39	1
84	85	1
135	136	1
55	61	4
33	33	3
60	60	2
174	175	2
95	96	1
54	57	1
128	128	2
55	85	1
177	177	2
183	212	1
1	2	3
85	86	2
192	196	1
129	145	7
3	31	1
234	234	3
220	220	3
92	98	2
197	198	2
31	31	6
29	32	1
10	12	1
197	197	1
82	82	3
203	204	4
213	213	1
79	79	7
171	171	1
183	184	1
120	121	4
83	83	3
176	176	4
204	204	3
189	189	4
51	52	2
120	185	1
43	43	5
71	72	2
212	229	1
124	124	1
71	73	2
225	226	2
90	102	1
7	25	1
102	103	2
217	219	2
170	170	5
70	70	2
174	177	2
119	122	3
18	19	2
65	65	6
214	215	1
220	240	1
12	13	2
63	63	4
203	209	2
26	26	1
183	200	2
86	86	3
67	67	1
75	75	1
222	225	1
220	228	1
129	130	1
173	232	1
161	161	1
128	133	2
153	166	4
95	102	1
169	169	2
0	11	1
157	157	1
27	160	3
43	44	2
156	162	3
30	31	1
66	66	3
211	211	2
68	68	2
203	203	1
218	218	3
1	3	2
102	123	1
195	197	1
89	89	3
6	7	2
8	12	1
214	217	2
5	5	4
1	1	2
59	59	2
34	52	1
58	61	2
159	160	2
144	145	1
155	166	1
109	109	1
171	198	1
27	37	1
37	46	1
32	33	1
178	179	4
15	20	1
116	117	3
158	159	2
132	133	1
150	151	1
108	129	1
127	189	2
89	104	1
61	63	1
17	29	2
231	231	2
103	129	2
239	240	2
161	162	2
21	88	1
81	84	1
29	29	4
5	6	1
27	39	1
146	147	7
101	102	1
113	129	2
172	173	3
19	19	1
88	88	1
202	210	1
45	46	3
120	160	1
177	178	1
32	153	1
35	35	1
159	159	1
62	62	3
128	129	1
233	235	1
152	152	2
24	25	1
168	168	2
13	15	3
221	222	2
52	77	2
27	159	1
218	219	4
103	104	2
74	75	1
166	166	1
127	131	1
23	48	2
99	99	1
25	26	1
34	36	1
117	125	2
165	167	1
184	189	2
162	168	1
55	84	1
80	81	1
37	38	1
129	129	2
3	15	1
168	169	1
237	237	1
49	49	1
226	228	2
184	184	2
2	3	1
63	65	1
60	61	1
105	107	1
4	5	2
216	216	2
224	232	1
194	194	1
30	209	1
211	230	1
125	129	2
140	143	1
147	147	1
50	55	1
137	138	1
141	141	2
202	203	2
196	196	1
122	122	1
194	195	1
23	33	1
128	160	1
105	106	3
41	44	1
51	51	1
99	100	1
210	210	1
8	16	1
115	156	1
116	116	1
17	19	1
225	225	1
109	110	1
154	154	1
2	57	1
205	208	1
182	183	1
118	118	1
69	74	1
21	60	1
148	148	1
101	121	1
