151	151	18
21	21	13
131	131	20
82	85	7
45	98	3
111	111	15
146	147	12
118	118	9
79	80	4
142	142	11
100	100	27
141	141	15
122	124	2
88	88	9
8	8	14
141	154	1
130	130	19
104	105	2
19	20	1
40	127	6
135	137	4
50	50	14
93	96	2
123	123	8
11	11	12
55	55	10
137	138	9
113	113	14
7	9	6
133	133	16
66	71	2
25	25	27
80	80	8
9	9	12
13	13	13
8	9	8
67	70	3
5	5	11
0	0	6
146	146	14
3	4	5
47	47	20
155	155	14
118	119	10
98	98	12
17	17	15
51	82	6
6	6	24
17	110	3
50	53	5
147	147	10
11	13	8
112	112	6
35	149	1
108	111	4
106	106	8
1	1	21
19	21	2
36	36	9
76	77	6
23	24	6
148	148	20
24	24	11
87	88	1
20	20	11
152	157	4
12	15	2
104	115	4
14	15	10
35	35	12
108	113	3
22	22	17
108	108	7
32	49	7
38	38	17
135	135	11
81	86	1
56	56	5
44	44	7
126	126	18
16	16	12
119	119	10
53	53	10
64	64	4
68	70	2
34	34	10
107	107	17
136	136	13
139	140	3
45	45	6
3	3	14
27	27	15
122	122	17
29	102	3
82	86	5
88	90	3
31	31	9
40	134	2
67	67	17
39	39	8
113	119	3
67	89	1
48	48	22
32	33	4
77	78	9
40	41	4
138	138	13
80	81	1
22	23	6
7	16	1
61	68	3
143	143	13
84	84	2
7	7	17
102	102	1
111	112	4
6	7	2
121	124	6
43	43	12
24	25	6
101	101	17
52	133	1
49	50	5
40	40	11
51	131	2
107	111	4
41	134	1
99	99	16
128	129	1
121	122	3
73	73	16
37	37	14
40	42	2
130	139	3
142	143	10
139	139	21
28	28	13
85	86	3
19	19	9
75	75	12
79	79	19
26	101	3
49	49	18
2	2	15
125	126	4
23	23	11
30	31	7
95	96	4
117	117	4
17	18	4
78	78	13
124	124	20
90	91	4
38	45	1
26	26	19
158	158	8
65	65	12
152	153	8
131	155	1
93	93	14
105	106	7
18	18	4
145	145	5
154	154	9
12	13	12
33	33	14
115	115	6
69	78	2
90	92	5
94	94	11
122	123	3
52	71	4
68	69	7
84	85	8
97	116	3
18	19	20
32	32	7
108	109	9
153	155	1
52	52	11
81	82	2
129	129	13
108	110	5
85	85	9
28	29	1
105	105	13
92	92	3
73	115	6
109	110	4
118	157	2
97	98	3
132	132	4
12	12	12
41	120	3
115	117	3
38	39	5
144	144	21
104	104	6
87	87	18
34	131	4
21	23	6
42	131	3
36	39	1
38	143	3
13	14	3
118	121	2
47	48	3
127	127	10
117	131	2
62	62	3
51	61	8
137	137	9
125	125	11
24	31	1
151	152	5
4	4	6
111	113	10
96	97	7
102	136	3
137	142	1
30	36	1
138	139	6
112	134	2
86	92	1
96	96	9
136	137	6
77	81	2
90	90	7
148	157	1
89	89	11
128	128	17
63	63	8
149	149	17
98	99	6
122	146	2
91	91	5
112	122	5
80	87	6
139	150	3
111	125	1
10	30	3
123	124	4
95	95	6
148	149	5
150	150	8
51	52	5
40	120	6
83	83	10
30	30	8
155	157	1
86	86	6
87	90	2
67	71	4
109	109	1
33	106	1
81	81	12
110	111	3
66	66	5
152	152	2
31	50	1
9	31	3
129	130	3
22	32	2
124	125	5
144	145	6
114	115	11
63	71	6
121	121	12
70	70	7
129	131	2
22	34	1
134	134	1
29	29	11
41	42	12
116	116	7
52	132	3
23	31	2
130	131	6
89	91	3
88	89	10
26	27	3
82	82	10
21	22	7
157	157	10
156	156	17
150	151	3
15	155	1
123	144	1
46	47	7
45	46	6
110	110	9
42	43	10
37	145	1
64	69	1
96	102	1
145	146	3
51	51	11
0	1	3
141	142	2
50	137	4
61	61	2
147	148	8
14	14	12
41	157	1
95	98	1
71	72	1
16	140	3
140	142	1
13	16	3
132	134	3
119	121	2
18	94	1
54	54	6
14	16	8
157	158	2
149	150	4
103	103	11
99	100	2
111	117	2
140	141	4
67	68	2
89	90	7
38	126	1
82	89	3
77	79	2
122	145	2
39	40	2
11	15	2
33	132	3
28	143	1
47	79	3
112	113	4
131	132	9
109	112	3
127	141	2
52	53	8
97	97	9
108	146	2
91	93	2
114	122	1
54	55	4
3	5	2
57	57	5
38	104	2
54	154	2
113	114	5
118	156	2
112	115	1
108	122	1
53	54	4
96	98	3
65	66	4
13	15	1
45	47	6
126	142	1
49	80	4
71	71	6
41	41	11
96	104	1
28	31	1
77	77	8
33	34	3
111	120	1
103	132	1
27	28	3
116	117	4
35	36	7
25	26	4
26	31	3
46	48	1
27	65	2
4	155	3
15	16	2
84	116	1
135	136	5
118	120	3
78	91	1
10	10	11
85	87	2
74	74	3
9	24	4
29	30	6
96	109	2
114	120	1
5	6	3
140	140	13
153	156	1
31	37	2
23	32	2
134	136	5
79	88	3
15	15	11
93	115	1
86	87	3
40	99	1
132	133	2
92	94	3
38	47	1
96	134	1
34	35	5
153	153	7
39	105	1
22	46	1
134	137	2
114	114	5
10	11	6
35	38	1
11	12	8
42	42	9
82	83	2
94	95	4
39	143	2
119	120	3
117	118	2
19	141	3
114	117	1
72	73	2
45	53	2
1	3	2
4	156	3
6	18	2
42	133	2
4	26	1
109	121	3
73	100	1
96	115	3
102	105	1
141	148	2
109	124	1
103	104	2
44	47	3
120	120	4
64	66	1
67	81	1
32	34	2
24	26	2
38	127	1
23	25	1
155	158	2
62	119	2
141	145	4
18	20	1
36	37	1
40	121	2
25	31	4
36	38	4
140	150	2
146	149	1
22	45	2
46	90	4
150	158	2
20	21	3
68	68	5
143	144	2
91	92	5
127	142	2
10	12	2
147	156	2
23	138	1
40	106	2
79	82	1
95	103	1
95	110	3
101	102	3
76	78	1
37	38	1
125	127	1
97	110	2
111	146	1
87	116	1
40	132	2
39	103	1
8	12	1
25	28	1
150	152	1
39	41	2
129	133	2
142	146	2
44	50	1
70	71	2
44	105	2
33	108	1
23	101	1
1	2	3
34	104	1
85	118	1
34	144	1
132	153	1
106	107	3
22	133	1
46	46	6
63	70	1
128	131	1
123	125	1
48	80	2
69	71	4
154	157	2
82	88	2
43	134	3
2	3	2
122	147	1
115	144	3
29	31	1
120	156	1
32	37	2
69	100	4
30	143	1
108	123	2
139	141	1
116	134	1
16	17	1
50	51	4
96	113	2
20	37	2
100	101	5
147	154	3
56	58	1
152	154	1
148	152	3
9	10	3
113	122	1
114	119	1
16	19	2
14	154	2
69	69	3
51	85	3
50	132	1
72	72	1
112	139	4
36	149	2
53	71	1
26	28	1
84	86	1
8	10	1
31	49	1
56	65	1
7	14	1
42	57	1
4	157	2
21	32	3
55	70	1
46	91	2
127	139	2
141	146	1
7	8	2
95	97	2
84	117	1
45	93	1
22	25	1
3	158	1
79	87	1
48	49	2
11	88	2
146	156	4
41	43	1
78	79	2
4	5	2
4	6	1
31	52	1
130	138	1
43	133	1
29	66	1
125	129	1
43	45	1
98	105	1
146	148	1
39	42	1
90	151	1
83	85	2
69	70	2
31	33	1
36	123	1
144	152	1
67	69	1
50	55	1
50	81	1
50	54	2
7	15	1
156	157	1
21	38	1
98	106	1
123	126	1
85	88	1
106	108	1
23	27	1
8	22	1
33	105	2
57	69	1
49	85	1
