14	14	27
86	92	6
156	157	7
64	64	12
30	31	13
37	44	1
89	89	12
35	35	12
86	87	7
71	71	9
170	170	22
15	16	14
147	148	6
0	32	1
58	59	3
117	117	14
65	65	15
19	20	16
88	89	5
2	2	15
100	100	11
61	61	10
104	107	2
82	82	18
27	27	29
173	175	3
30	30	21
72	76	7
10	10	37
78	78	14
34	34	17
97	97	14
11	22	2
159	159	13
180	180	7
154	155	11
3	3	19
166	170	2
4	4	7
144	144	7
42	42	19
177	179	2
101	101	20
56	57	4
128	128	13
167	167	18
121	123	3
6	7	7
136	141	4
18	18	10
15	15	31
11	11	35
88	96	1
157	160	4
10	16	4
67	71	1
129	129	13
19	76	2
53	53	15
175	175	10
158	176	5
174	174	27
171	171	27
86	86	15
138	138	14
106	107	8
118	143	1
25	26	9
37	38	6
7	7	35
160	161	9
36	85	4
84	117	2
35	68	1
133	134	7
105	105	16
162	180	1
165	165	18
49	66	2
13	13	15
76	76	12
55	55	14
10	11	9
63	64	1
140	140	12
5	5	34
157	157	12
137	143	1
170	171	10
113	113	16
87	87	10
83	84	2
136	138	2
131	131	19
43	45	5
33	36	11
167	170	7
149	154	1
20	20	15
119	119	11
1	6	7
72	72	17
177	177	2
140	152	3
141	141	13
52	52	8
117	153	1
92	121	2
4	6	5
39	60	2
142	143	7
32	32	25
36	36	16
62	66	1
122	122	23
85	85	9
121	121	15
15	22	5
159	176	3
81	81	17
135	136	4
124	124	7
80	80	14
92	93	7
163	165	4
45	45	12
32	33	12
96	97	14
75	75	8
49	64	1
24	25	8
7	9	7
77	78	2
16	16	30
12	12	14
5	10	3
98	100	1
39	39	39
29	40	1
38	61	2
21	23	3
16	23	1
77	77	17
7	11	2
156	156	13
99	99	14
4	8	7
8	23	2
29	29	19
26	26	20
130	130	9
2	3	3
64	66	8
102	102	18
16	17	3
114	114	17
1	1	4
95	95	30
41	68	1
21	21	3
66	66	7
58	58	8
59	59	15
99	116	1
143	144	3
55	59	1
142	142	22
8	9	21
145	146	6
176	176	11
83	83	18
0	26	2
64	88	2
2	4	6
19	23	3
97	98	4
34	36	4
161	168	1
14	15	11
144	145	4
70	70	5
92	92	11
136	180	1
41	41	10
16	20	1
91	109	1
90	91	7
9	9	31
103	121	1
140	162	3
28	28	31
91	92	5
56	59	4
108	135	4
170	175	1
90	90	10
17	19	1
66	83	4
146	147	2
91	93	7
8	8	34
163	163	11
137	137	19
23	23	24
51	52	6
168	169	5
173	173	14
123	124	17
93	94	3
38	38	20
36	65	2
56	56	13
66	73	7
152	152	9
107	109	6
92	103	2
83	115	4
68	70	1
17	17	26
65	73	8
167	168	3
54	54	10
8	16	3
26	28	6
148	148	22
161	161	15
168	168	21
169	170	13
84	86	4
150	150	8
67	67	22
5	6	14
59	60	3
20	21	9
160	164	1
76	78	4
152	157	3
5	29	3
139	139	17
108	108	17
12	28	2
132	132	9
107	108	10
0	0	10
88	88	11
63	63	13
1	17	4
33	33	29
17	77	3
179	179	19
7	8	11
158	163	4
34	41	2
40	44	7
171	172	6
8	11	1
107	107	14
20	44	2
168	178	3
85	89	1
36	37	2
125	125	13
109	110	3
38	39	6
38	57	1
118	151	5
52	55	4
50	63	2
9	10	7
98	99	5
44	44	12
40	40	11
10	33	3
39	40	12
130	163	2
162	164	2
158	158	20
24	26	3
20	33	2
127	128	9
133	137	1
73	74	9
43	44	11
66	84	1
177	178	10
2	19	1
103	103	10
43	43	19
139	142	4
3	8	9
15	17	4
37	37	17
108	112	4
36	43	3
74	74	20
50	50	4
112	136	2
29	30	2
84	107	2
14	34	5
99	100	6
99	101	4
172	172	20
73	82	6
31	31	20
53	54	8
130	154	1
112	113	5
33	78	4
166	166	11
178	178	8
92	102	1
146	162	2
3	6	3
59	61	4
128	130	5
12	13	16
51	51	9
98	98	12
111	123	3
100	102	2
50	53	2
6	6	31
123	123	12
91	91	4
161	162	5
146	157	2
104	105	4
84	87	2
144	151	6
79	95	3
111	111	23
106	106	18
16	27	2
11	12	20
85	117	3
76	77	2
57	57	24
159	168	7
33	38	1
150	151	6
109	113	2
120	120	6
129	154	1
6	13	3
25	25	10
154	156	2
176	179	1
7	34	2
2	33	1
60	60	15
12	14	5
147	150	1
110	122	2
155	157	4
164	165	5
17	18	5
9	15	2
102	107	2
28	30	3
105	107	2
51	67	2
17	177	2
82	83	3
136	136	8
7	36	1
150	156	2
23	24	7
37	39	1
67	68	3
115	116	4
104	104	14
29	31	7
113	117	3
41	42	12
133	133	9
152	180	1
169	169	10
86	88	5
153	153	6
78	124	2
126	126	17
148	172	4
153	154	6
140	143	1
93	93	17
153	157	2
5	9	1
102	103	9
11	45	2
15	33	1
24	24	16
127	127	4
96	96	14
13	14	7
59	65	1
30	56	1
157	162	2
66	67	2
79	79	21
120	121	4
65	71	1
160	167	2
100	106	4
89	100	1
14	43	2
134	134	8
114	115	2
61	64	8
163	164	5
9	42	4
83	85	5
9	29	5
84	84	7
16	61	2
145	145	14
33	35	4
37	46	1
63	96	2
118	120	5
7	35	5
75	76	1
65	66	2
102	104	2
97	111	2
157	167	1
109	109	12
168	171	3
112	122	7
50	51	5
19	21	4
115	115	9
24	28	4
4	41	3
19	19	15
18	73	2
62	73	2
6	11	3
14	16	2
84	85	2
107	112	7
6	10	1
128	129	3
131	139	3
147	147	12
5	32	2
155	155	13
155	156	3
132	133	7
65	67	5
130	131	1
160	163	1
2	57	1
95	138	5
40	43	2
61	67	2
10	21	4
80	81	3
65	83	6
7	12	1
165	166	7
90	147	1
9	20	1
10	57	1
119	120	6
57	58	3
154	154	8
135	135	12
132	139	1
7	15	2
1	8	2
18	20	4
149	149	22
120	126	1
25	36	4
116	125	2
141	150	3
22	22	17
32	77	3
12	41	3
34	35	8
160	165	5
8	29	1
139	148	2
22	51	3
67	85	2
43	53	2
73	73	21
7	10	2
81	85	3
12	21	1
23	27	1
30	45	1
19	22	3
31	49	4
134	145	2
32	64	1
2	6	4
19	49	2
174	175	2
113	120	3
131	135	1
68	68	9
135	145	1
107	113	1
26	31	2
13	19	1
2	35	4
24	41	1
112	112	6
89	111	1
156	158	1
95	97	4
57	96	1
160	160	5
43	76	1
73	76	2
79	92	2
164	164	3
90	106	3
30	39	1
38	52	2
18	19	2
126	128	1
116	117	6
126	131	1
136	154	1
5	7	9
129	130	8
27	28	5
87	114	2
162	162	11
112	129	1
93	122	1
146	153	2
79	173	3
143	147	2
21	57	3
40	41	3
3	5	5
11	13	12
141	145	4
122	147	2
105	120	3
78	79	4
159	162	4
0	1	3
179	180	5
110	110	22
97	108	2
100	129	3
91	103	1
83	109	1
122	142	2
52	53	3
121	122	4
168	170	3
108	109	6
30	58	1
94	94	16
139	140	4
55	60	3
151	154	1
100	101	2
22	45	1
89	92	4
172	173	7
60	61	2
19	32	1
92	105	3
62	63	7
155	158	1
116	119	2
118	119	5
75	129	3
83	130	3
142	171	2
116	116	8
2	5	2
57	64	1
118	123	2
146	156	1
86	90	3
138	139	1
77	79	1
141	148	1
131	145	1
27	53	4
89	90	1
13	16	1
54	61	3
101	136	4
135	180	1
22	23	4
3	16	3
148	175	2
92	123	1
35	38	1
106	129	1
138	141	2
111	116	1
71	100	1
121	142	1
143	170	1
136	151	4
1	37	3
75	128	1
157	158	5
77	94	1
155	180	1
51	61	1
90	118	2
79	171	3
102	108	1
11	15	3
15	35	2
65	88	1
80	168	3
135	152	5
143	143	6
129	141	1
127	136	5
170	173	3
16	138	1
10	15	2
6	39	1
117	126	1
3	33	4
31	36	3
41	44	1
81	82	4
152	153	5
117	120	2
23	26	1
105	106	4
135	142	4
70	72	2
10	29	2
149	150	2
156	165	1
164	167	2
1	11	2
109	123	1
153	179	3
21	29	2
38	40	2
101	109	1
38	82	3
146	146	4
39	41	2
112	121	3
108	116	1
117	128	1
118	118	9
125	164	3
122	125	1
134	146	3
155	166	1
58	60	1
85	86	2
86	93	1
17	42	1
93	108	2
102	147	1
103	106	3
151	153	2
109	118	2
30	33	1
4	5	2
1	9	1
96	114	2
160	168	3
117	155	1
75	82	1
91	94	1
96	98	3
119	161	1
34	45	1
6	16	1
56	60	1
161	176	3
111	128	1
15	21	3
9	18	1
81	87	2
140	141	1
163	166	2
147	168	1
158	162	1
64	83	1
1	3	1
151	152	3
174	177	2
113	114	2
90	128	3
82	120	2
13	34	4
14	72	3
158	161	2
18	30	1
4	26	3
23	36	1
120	129	1
141	142	2
29	35	2
115	117	4
5	8	2
36	87	1
87	110	3
101	102	3
65	86	2
110	111	2
12	36	1
108	110	4
10	44	1
19	51	1
175	176	5
16	25	1
158	159	4
8	10	3
4	7	3
103	105	2
8	45	4
14	35	1
15	34	2
38	42	1
54	118	1
52	124	1
17	27	3
98	112	1
125	126	2
113	115	1
49	63	2
103	104	5
71	97	1
108	115	2
25	28	4
37	43	1
112	114	5
28	29	5
68	76	1
12	16	1
143	145	5
173	176	2
17	23	1
71	76	3
150	173	2
62	75	1
147	149	2
4	9	2
28	65	2
74	75	3
108	118	1
158	174	1
15	19	4
26	27	1
2	9	3
55	56	4
36	72	1
128	136	1
147	154	3
157	168	1
70	71	1
102	105	1
154	158	2
64	112	2
5	39	1
110	114	3
103	137	1
35	36	1
6	8	2
124	125	1
151	156	5
129	144	2
158	168	3
42	44	1
163	167	2
1	2	1
154	157	1
3	45	2
51	53	1
173	174	2
154	179	1
43	80	1
17	33	2
152	161	1
56	88	1
37	67	1
16	41	1
2	61	2
10	13	4
115	121	1
14	19	1
75	97	1
26	53	1
24	38	4
111	126	1
37	40	1
50	64	2
14	44	1
29	75	1
14	166	1
152	156	1
32	65	2
111	118	1
80	95	3
121	124	5
166	169	1
146	171	2
109	115	2
52	60	1
141	173	1
8	26	1
13	20	2
124	139	1
168	173	2
90	116	2
62	67	1
158	167	2
163	169	1
97	99	2
25	27	3
21	22	4
63	83	2
109	120	1
35	65	1
79	97	1
119	128	1
124	153	2
106	117	1
2	41	3
119	130	2
156	180	4
9	13	4
95	105	1
29	57	1
130	138	1
134	143	2
145	157	2
81	84	5
151	151	7
37	41	1
27	44	1
141	149	1
20	30	2
167	176	2
27	31	1
140	153	2
32	38	3
155	168	2
31	96	3
135	150	2
51	63	2
57	60	2
61	72	2
160	169	1
125	133	1
74	77	2
126	127	3
40	54	1
83	108	1
95	119	1
127	130	1
51	58	2
123	140	4
72	127	1
3	7	2
164	170	2
3	4	3
128	152	1
44	45	3
22	67	1
43	68	2
10	40	1
155	160	2
167	180	1
172	176	1
81	116	1
3	9	3
61	62	3
131	140	2
83	86	1
72	74	2
111	180	2
86	96	1
90	92	2
50	67	1
15	173	1
14	40	1
98	102	2
143	150	1
13	30	1
14	45	1
6	38	3
100	136	1
46	46	3
29	169	1
4	16	2
11	14	2
164	166	1
6	25	2
82	84	1
66	86	1
17	168	2
18	33	1
79	88	1
41	75	2
154	165	1
18	22	2
17	174	2
26	32	1
129	136	4
108	144	1
71	75	1
66	91	1
22	26	1
131	132	1
21	50	1
1	5	2
147	172	1
31	44	3
2	38	1
1	19	1
10	14	1
147	164	1
5	44	1
33	34	1
171	176	1
90	127	2
19	57	1
125	127	1
31	33	1
5	12	1
5	38	1
53	98	1
32	113	1
50	58	1
17	45	1
97	112	1
17	38	1
22	28	1
88	91	2
43	50	2
4	20	3
35	66	1
116	155	1
94	95	1
22	31	1
118	150	1
9	43	1
20	25	1
30	62	1
151	171	1
86	89	1
51	75	1
13	86	1
76	80	1
12	15	1
158	164	1
55	57	1
175	177	1
140	159	1
81	89	2
128	144	1
26	45	1
32	35	1
16	26	1
156	176	1
157	178	1
98	111	1
87	89	1
37	62	2
17	32	1
4	11	1
20	94	2
76	103	1
143	156	1
38	172	1
21	42	2
101	119	1
157	169	1
92	131	2
157	159	1
36	41	1
37	57	2
5	15	1
97	113	1
82	119	1
156	178	1
30	65	1
3	21	1
166	167	1
143	148	1
9	37	1
63	87	1
103	118	1
3	35	1
24	31	2
16	62	1
14	114	1
5	14	1
87	111	1
16	44	1
162	166	1
37	59	1
162	165	2
85	130	1
32	68	1
66	82	1
144	153	1
4	21	1
105	137	1
29	39	1
139	146	1
120	159	1
114	146	1
68	88	1
17	39	1
43	56	1
81	86	1
113	121	1
95	98	1
6	9	1
62	62	2
94	101	1
85	129	1
31	51	1
83	97	1
167	177	1
