42	42	9
13	13	4
66	66	4
110	110	3
127	127	13
80	84	1
5	5	9
52	52	7
121	121	6
19	28	6
118	118	17
48	54	4
74	74	3
111	112	1
76	77	2
98	98	2
59	61	1
105	106	4
128	129	3
31	36	1
9	9	6
17	18	2
43	43	1
86	86	1
112	112	4
92	111	4
74	131	3
26	27	3
109	109	8
58	58	15
24	24	8
36	37	3
36	36	3
63	68	1
13	36	2
99	100	3
61	61	2
75	135	1
36	41	2
144	144	4
13	16	1
22	22	10
127	130	2
15	26	5
61	98	4
18	37	1
132	132	5
88	94	3
72	75	2
72	72	5
134	141	1
64	66	3
140	140	4
41	41	3
77	78	2
95	95	6
136	136	6
38	38	7
21	28	1
130	130	6
137	141	1
28	28	3
133	135	5
122	122	5
71	72	1
93	94	6
6	13	1
69	69	3
119	119	6
34	34	7
14	16	1
63	67	6
131	131	6
18	31	3
35	36	2
47	47	10
64	65	2
71	104	4
79	79	7
121	123	1
68	72	1
138	138	2
6	12	4
71	71	3
99	99	2
105	105	5
1	2	2
62	109	2
48	134	1
140	142	1
1	10	1
39	41	3
110	119	5
97	98	1
145	145	1
90	90	5
59	59	3
131	132	5
137	139	3
119	120	4
1	1	3
60	60	3
139	140	11
30	30	4
18	18	8
91	91	2
134	134	8
52	53	1
50	50	1
18	19	5
87	118	1
29	29	3
39	40	2
114	115	2
62	99	7
116	118	1
32	32	11
75	134	1
139	139	3
120	120	3
8	8	3
68	68	6
26	26	1
85	127	1
15	31	1
57	57	10
135	136	2
114	123	5
87	88	3
67	67	7
48	49	1
33	33	5
82	82	4
2	2	8
50	51	3
14	15	2
63	122	1
39	39	10
89	93	5
74	83	4
76	82	2
71	73	4
98	99	2
126	126	5
70	74	3
37	42	3
123	123	2
32	38	2
104	107	3
22	23	2
142	142	1
93	93	2
91	118	6
134	136	3
25	25	1
49	49	4
42	43	2
133	133	4
89	89	5
106	106	9
22	26	1
105	125	1
11	11	1
122	123	1
25	140	1
81	81	3
109	110	2
140	143	1
31	33	1
85	85	3
9	10	5
58	61	1
114	114	1
63	93	1
17	17	4
129	130	3
94	119	1
136	138	1
132	133	2
104	104	6
96	96	5
107	107	3
76	134	3
87	104	2
127	128	2
12	16	2
27	27	3
12	13	4
34	35	3
124	124	3
100	103	2
70	70	4
62	63	2
67	133	2
77	77	1
51	51	2
41	42	2
105	109	1
116	116	2
62	138	1
127	131	4
40	41	1
75	85	2
83	84	5
135	135	5
19	19	6
73	92	1
23	23	4
117	118	3
65	97	1
19	41	2
16	16	1
33	34	4
141	141	3
76	131	4
21	21	4
1	9	2
60	97	1
103	103	1
35	35	2
117	122	3
2	5	2
34	36	2
63	95	2
66	67	1
49	54	2
25	26	1
102	103	2
3	3	3
23	24	1
29	30	1
138	141	1
49	50	1
80	80	3
101	117	1
143	143	1
97	97	1
134	135	2
16	27	1
22	28	5
56	120	1
27	81	1
84	84	2
124	125	1
117	117	3
101	124	1
47	140	1
59	95	1
63	63	1
53	81	1
88	89	2
89	94	1
19	32	1
63	66	1
125	125	2
118	143	3
10	11	2
30	31	1
56	57	1
101	114	1
4	5	1
15	15	2
118	119	1
53	53	1
88	124	2
28	38	2
50	54	1
86	104	1
75	76	1
67	105	1
104	125	1
92	110	2
57	135	1
126	127	1
8	9	1
126	130	1
56	56	1
59	66	1
67	109	1
128	128	1
52	54	1
69	70	1
13	15	1
20	21	2
125	133	1
54	135	1
68	93	1
17	37	1
20	20	1
