51	64	4
49	50	5
92	93	2
54	54	10
75	76	7
102	102	3
95	98	6
86	87	9
49	49	7
65	65	10
76	76	10
52	75	6
89	89	5
74	101	3
22	22	2
62	62	15
85	85	5
74	74	8
25	25	4
48	53	2
72	72	7
46	46	11
50	92	1
78	78	14
64	64	10
98	98	5
84	84	18
59	59	7
68	68	12
58	75	4
41	50	3
84	86	2
94	94	7
98	99	6
45	45	5
71	99	1
86	86	4
88	88	19
48	48	6
69	70	3
52	52	8
91	91	8
56	58	2
79	79	11
76	77	4
33	33	8
27	27	7
100	101	6
63	63	8
60	60	3
73	73	8
101	101	2
55	56	7
89	91	1
27	31	2
49	51	4
48	71	1
26	26	3
60	62	2
89	92	2
46	48	2
42	42	5
69	69	9
22	36	2
87	88	7
81	81	8
95	95	7
61	80	4
38	39	3
66	66	2
56	57	6
93	96	3
63	74	5
32	32	1
25	26	1
30	30	2
40	40	6
47	47	6
53	53	6
58	59	4
90	90	3
58	58	19
81	82	3
51	51	6
25	70	1
44	44	3
80	80	7
80	81	3
38	40	4
67	68	5
49	57	1
55	80	2
53	81	3
70	70	8
83	83	2
71	71	3
36	84	4
34	51	2
64	77	1
42	84	4
61	73	3
92	94	9
99	99	5
57	57	10
38	38	2
39	39	3
48	49	4
66	67	6
97	97	2
80	82	2
61	61	5
93	93	2
41	41	6
67	67	5
27	29	2
54	79	1
46	47	3
56	56	4
32	33	4
46	52	6
30	36	1
75	75	3
37	37	3
43	43	1
97	98	2
57	60	1
36	37	3
47	53	1
24	25	1
70	102	1
99	100	4
23	24	3
22	53	2
59	86	1
33	37	2
40	41	8
89	94	1
96	97	4
41	42	1
32	36	2
35	35	3
41	52	1
43	44	5
96	98	2
68	74	1
57	86	1
57	79	1
74	75	4
97	100	2
86	88	3
87	87	2
41	67	3
34	35	4
82	96	1
38	53	1
88	93	2
90	99	2
51	52	7
81	86	2
29	29	4
45	49	1
77	77	5
60	73	1
85	91	1
90	93	1
39	74	2
83	84	1
54	80	2
26	27	1
61	100	1
37	38	1
57	80	1
50	52	1
80	89	2
62	63	2
90	91	2
92	92	3
62	73	2
43	63	1
57	58	2
48	51	1
55	58	1
86	93	1
94	98	2
88	95	3
23	23	1
47	48	3
96	96	2
80	87	1
76	78	1
44	45	3
85	90	1
72	73	1
61	79	1
52	57	1
50	50	4
45	47	3
82	101	1
49	100	1
81	83	1
58	60	3
27	46	3
92	96	1
66	74	2
68	69	1
43	45	1
36	38	2
26	53	1
39	57	1
100	100	1
95	96	2
31	31	1
70	99	1
95	97	1
85	96	1
46	53	1
22	25	1
49	52	1
52	53	1
70	101	1
