159	160	4
46	46	8
138	139	2
45	47	2
95	95	1
186	222	5
120	160	2
9	147	1
67	67	12
39	40	2
64	64	7
192	192	3
234	234	5
185	223	2
191	211	2
123	129	5
168	168	3
208	208	4
73	74	2
13	13	7
122	160	2
158	158	6
104	107	4
150	151	2
123	123	2
42	42	11
55	85	2
181	182	2
10	10	5
102	239	1
166	166	4
56	56	7
241	242	5
99	99	10
11	11	13
58	60	3
71	71	9
164	188	2
41	49	3
193	214	3
214	216	1
116	116	6
12	13	7
213	213	2
197	203	1
218	218	8
5	5	8
61	103	2
206	206	13
8	8	7
138	138	3
134	134	2
53	53	4
124	137	2
144	144	7
99	181	4
97	97	6
187	188	5
108	115	4
108	136	3
18	161	4
30	31	9
115	115	2
107	123	3
72	72	8
33	40	1
32	32	7
119	119	2
118	127	6
225	227	3
56	57	5
20	20	6
22	34	9
57	57	11
150	204	4
151	151	8
83	83	5
140	228	6
9	9	11
49	49	3
180	184	3
155	155	5
50	51	5
23	23	8
50	50	1
25	25	15
136	136	4
63	63	13
104	104	10
74	76	4
37	37	7
137	139	1
145	145	4
235	235	8
52	53	5
24	25	1
227	227	6
28	28	6
153	153	2
154	157	2
45	45	4
103	119	1
174	174	8
101	102	2
98	99	5
103	105	3
169	184	2
33	49	5
212	213	1
48	50	1
177	178	2
5	12	8
231	231	2
100	238	5
111	112	3
39	39	6
209	211	3
60	60	2
38	39	2
102	201	4
18	19	4
152	152	1
169	169	2
138	147	3
3	144	2
226	226	1
152	232	3
121	121	9
9	10	1
7	8	5
29	30	4
177	177	3
177	180	1
82	83	6
3	7	2
183	211	2
207	208	2
217	218	12
216	216	5
81	83	2
97	241	2
26	27	1
126	126	8
95	158	3
220	220	2
169	196	3
0	68	6
16	16	9
108	134	1
51	51	9
2	144	1
211	211	6
16	19	1
18	84	4
76	76	6
176	176	2
155	227	4
16	17	9
44	45	4
27	27	3
1	5	1
10	11	2
5	11	3
105	105	13
156	157	2
146	146	13
84	84	8
52	52	5
228	228	8
13	14	7
72	79	3
73	73	4
36	37	2
49	50	3
238	238	7
30	173	2
43	43	6
14	16	2
121	122	3
86	86	15
22	68	4
65	66	4
120	122	3
74	74	10
123	124	7
178	178	4
215	216	3
138	177	2
242	242	2
64	65	3
44	74	1
236	237	1
100	100	5
147	147	4
1	31	3
202	204	3
241	243	2
199	218	2
99	105	2
19	19	5
189	189	6
33	89	2
148	215	1
59	84	1
71	72	4
165	228	1
134	135	1
19	84	3
77	78	2
68	69	2
157	157	8
215	215	2
108	167	3
31	31	4
207	207	8
155	156	6
21	31	5
102	102	4
6	6	2
62	63	5
76	78	4
182	183	1
12	12	2
126	229	5
5	7	3
181	181	4
194	194	3
192	193	2
217	217	7
144	153	3
21	66	1
197	197	2
14	14	2
160	160	4
212	218	2
228	229	7
87	87	2
240	240	11
146	210	6
122	182	3
24	24	2
191	193	1
11	12	3
55	56	2
154	156	4
151	204	5
3	101	1
222	222	5
184	185	5
28	29	2
134	159	3
4	6	7
179	179	2
159	195	1
4	9	1
133	138	2
48	82	5
18	18	9
0	62	2
185	187	2
100	176	2
175	188	1
24	55	2
17	18	1
6	7	2
75	76	5
146	147	3
19	30	2
165	165	5
69	69	6
75	75	7
128	164	2
208	209	2
45	74	2
38	43	3
131	131	9
203	237	1
182	226	2
105	120	3
162	186	1
59	80	3
144	234	2
80	80	10
36	38	3
233	233	8
81	81	6
17	17	4
171	230	2
40	40	4
16	104	5
71	75	1
32	37	1
26	28	3
0	0	9
10	44	3
130	136	3
123	127	2
72	88	1
22	22	2
203	204	5
54	54	5
99	101	2
21	21	6
162	162	3
60	67	2
2	5	1
194	196	3
161	161	6
144	200	2
168	229	1
85	86	1
99	100	2
2	3	4
139	139	4
149	149	2
32	53	4
223	223	3
139	141	1
15	76	1
170	170	7
172	172	8
55	55	3
153	155	1
135	135	6
15	15	5
30	30	5
78	88	3
62	88	1
191	192	3
199	199	4
4	4	4
192	200	2
160	226	1
63	64	2
143	143	5
0	74	1
213	214	1
32	91	4
34	34	4
139	140	1
1	12	1
4	29	2
180	181	4
173	173	4
203	241	1
169	225	2
58	58	6
148	170	1
40	41	2
132	160	4
101	103	3
129	129	1
85	85	2
241	241	1
127	159	2
171	236	2
41	41	6
152	202	2
141	141	4
23	31	2
60	74	1
46	54	1
152	153	2
239	239	2
69	70	2
127	127	6
124	184	2
234	235	1
108	135	2
224	224	2
128	128	5
190	190	5
114	176	1
58	59	1
59	60	8
142	142	3
210	210	1
108	187	1
28	202	1
182	210	1
133	133	5
150	150	9
107	185	3
167	229	5
162	163	2
153	196	3
176	183	1
44	44	4
212	212	4
112	113	1
123	126	1
125	127	1
221	222	2
133	135	1
165	227	5
198	217	3
7	7	2
110	122	1
202	203	2
150	152	5
156	156	6
219	221	1
59	59	4
132	182	1
51	54	1
78	78	5
206	207	1
66	66	3
119	158	2
5	6	3
183	183	5
209	210	1
48	48	4
219	219	6
15	81	1
61	102	2
60	77	2
3	3	4
166	213	6
152	171	1
237	238	3
24	46	1
29	29	2
2	29	3
18	66	3
148	148	1
43	47	3
205	205	3
186	220	2
151	207	2
162	227	1
65	70	4
208	238	1
51	52	4
158	171	3
209	209	5
22	23	4
233	235	1
42	81	1
163	211	1
98	104	2
45	46	1
106	106	1
124	124	6
79	88	1
136	137	1
79	80	2
17	201	1
1	11	1
148	165	1
106	127	1
127	138	1
14	82	1
43	85	2
214	214	5
104	122	4
199	217	1
70	71	2
115	162	1
33	33	2
23	38	3
232	232	2
158	169	1
181	212	1
124	179	1
119	224	1
10	32	2
10	29	1
70	136	2
35	35	4
175	175	1
108	186	1
141	142	3
97	109	3
226	227	2
162	206	1
40	55	2
79	81	1
109	139	1
236	236	2
49	52	1
120	121	1
180	182	1
62	105	2
42	61	1
11	20	1
117	117	4
81	88	1
129	132	1
98	98	3
5	33	1
140	141	1
189	190	2
14	17	1
109	130	1
106	107	2
152	197	1
164	164	3
162	224	3
230	230	3
145	146	2
97	121	2
96	97	1
12	76	2
158	159	1
126	127	1
26	26	5
73	81	1
170	171	7
61	62	3
154	225	1
5	32	1
19	22	1
234	237	1
102	103	1
231	233	1
77	79	2
182	182	3
4	76	2
63	73	3
21	46	1
109	109	1
221	224	3
158	160	1
33	35	1
9	145	2
4	5	2
143	149	1
165	215	1
178	179	1
223	224	1
105	131	1
95	120	2
22	31	1
125	158	1
166	168	2
50	52	1
112	112	3
47	47	5
203	203	2
4	7	2
44	47	1
202	202	2
25	45	1
67	77	1
118	181	1
104	105	2
148	175	3
100	183	3
180	185	1
168	170	1
193	193	3
101	101	2
38	38	5
3	19	2
187	214	1
1	24	2
27	28	1
151	159	3
197	241	1
43	68	1
229	229	3
184	210	1
107	138	1
162	166	2
153	154	1
99	102	1
103	126	1
100	101	2
62	62	2
5	35	2
223	230	2
186	189	2
2	7	1
103	103	3
1	33	1
220	222	1
173	174	3
20	91	1
104	132	2
167	167	1
23	53	1
61	61	1
88	89	1
2	2	2
17	23	1
63	70	1
198	242	1
144	210	2
197	198	2
147	199	1
158	199	1
101	238	1
193	200	2
196	197	2
135	136	1
70	70	2
226	229	1
186	187	1
0	101	1
36	36	1
175	206	2
200	201	1
144	145	1
155	158	1
184	186	1
221	221	1
145	200	1
152	233	1
110	141	2
1	85	1
216	217	1
159	169	1
187	187	1
198	198	1
234	236	1
44	46	1
163	163	1
44	50	1
161	164	1
233	234	1
140	142	1
201	201	2
22	89	1
0	1	1
68	68	1
18	88	1
118	118	1
29	50	1
12	14	1
161	165	1
146	166	1
98	242	1
18	37	2
57	59	2
120	120	1
198	199	1
213	215	2
106	120	1
107	126	1
172	174	1
24	74	1
107	235	1
48	190	1
95	96	1
0	23	1
76	77	1
15	91	1
17	105	1
11	99	1
43	48	1
107	107	1
120	127	1
60	75	1
1	86	1
45	73	1
