139	139	14
119	120	8
25	25	15
76	76	11
84	124	1
57	57	4
132	132	14
134	137	1
120	141	2
79	79	15
127	144	3
115	116	5
70	71	2
10	10	22
80	94	6
17	18	4
40	41	11
99	100	4
126	131	2
37	37	12
110	110	12
125	127	4
28	28	13
68	68	24
110	137	3
26	27	1
50	63	8
57	122	4
125	125	16
48	48	2
96	96	5
47	50	3
136	136	9
54	57	2
133	134	5
116	118	1
82	82	12
51	52	1
135	135	14
5	6	6
36	36	3
108	108	4
121	144	3
133	133	22
4	4	4
23	23	21
102	102	21
57	67	2
20	21	7
127	130	13
119	137	3
33	38	1
115	115	8
131	131	22
35	36	4
144	144	14
127	127	25
58	60	5
85	132	3
119	119	10
1	1	5
80	80	14
117	117	14
62	62	8
104	104	16
126	127	6
104	108	2
19	19	19
73	73	9
124	124	15
91	91	16
132	133	5
103	103	19
38	38	13
130	130	21
116	117	7
14	14	3
22	22	10
126	126	15
110	111	8
59	60	4
25	39	3
126	128	2
3	3	6
84	84	6
122	122	11
41	41	10
123	145	2
110	128	3
29	29	9
100	101	1
5	5	18
56	64	2
75	75	6
66	66	14
27	28	4
55	56	2
118	118	18
99	101	2
113	113	4
30	30	12
33	33	6
120	124	1
140	140	14
99	99	7
61	61	18
64	64	10
21	22	6
55	55	14
18	18	7
146	146	7
21	21	24
36	38	2
109	109	11
93	112	3
131	134	2
70	124	1
89	89	6
93	93	5
94	95	9
61	62	6
37	38	3
97	97	15
65	65	9
81	81	15
128	128	24
118	119	10
71	72	8
12	12	6
39	39	5
98	98	11
123	124	2
100	102	2
121	122	6
10	11	11
132	135	2
117	119	3
140	143	1
78	78	7
70	70	10
79	93	1
101	101	13
49	98	11
24	29	1
0	1	1
40	40	18
56	66	3
111	111	14
87	131	1
119	123	2
19	20	13
123	123	13
1	2	4
49	49	11
28	29	17
75	77	3
132	134	2
42	42	27
26	26	11
62	64	4
13	13	7
63	63	2
71	71	2
141	141	8
7	14	1
49	50	2
60	60	4
118	120	7
20	22	3
69	70	8
121	121	6
112	113	2
76	77	2
138	138	1
106	108	5
66	69	4
31	39	3
122	123	4
26	33	1
52	64	2
36	37	1
111	112	2
43	43	7
71	86	6
31	33	5
11	11	9
116	116	18
30	31	3
36	47	2
101	102	3
35	35	2
48	101	1
125	126	3
11	14	2
33	43	1
30	32	2
136	138	8
73	82	1
104	105	3
142	143	8
128	129	4
24	24	4
31	52	2
54	54	4
67	144	3
123	135	3
17	17	10
53	71	3
9	10	3
106	106	11
84	86	1
66	71	2
79	119	6
105	105	6
124	141	2
20	20	8
143	143	4
93	94	5
87	87	6
145	145	3
8	8	5
81	89	9
89	90	11
9	9	4
4	5	2
6	6	8
58	122	2
119	142	1
135	137	5
61	66	2
70	72	7
145	146	3
142	142	10
82	83	4
53	54	3
95	95	3
65	66	1
54	56	2
114	115	2
129	130	4
72	72	3
49	71	5
90	110	4
78	79	5
37	43	5
56	56	4
135	138	1
42	43	1
32	32	7
112	112	7
97	98	4
5	9	4
105	106	2
39	40	2
119	131	4
59	59	4
37	48	2
67	68	1
27	31	7
131	143	1
131	133	2
105	107	4
54	101	1
90	90	4
31	38	4
31	32	2
85	90	1
73	75	4
120	120	7
48	145	3
13	14	3
15	15	4
16	16	6
31	31	5
88	89	2
75	76	3
101	103	3
33	34	3
100	100	4
74	83	1
25	26	8
54	64	6
106	107	5
74	75	1
80	93	2
130	132	1
94	96	2
90	91	2
17	43	1
8	9	5
25	27	2
19	22	3
27	27	19
22	28	3
99	111	1
23	24	3
58	61	4
134	134	3
128	130	9
102	103	4
120	123	4
67	67	7
82	91	7
5	14	1
27	30	3
48	52	1
73	90	5
90	114	1
83	83	5
62	63	6
130	131	6
134	135	1
81	91	2
15	16	1
47	47	12
66	68	3
38	67	2
60	61	4
53	72	1
112	115	2
25	37	2
58	58	6
52	52	2
57	58	4
124	125	4
80	119	2
21	31	1
88	111	1
113	116	1
47	68	1
34	86	1
117	120	1
14	15	4
20	26	3
3	5	3
14	18	5
143	144	2
87	114	3
78	81	3
137	139	3
23	40	1
129	129	7
88	137	1
89	114	2
79	80	7
121	124	1
35	65	2
74	131	3
86	88	1
35	43	1
59	144	4
107	108	2
63	122	1
135	136	4
89	110	2
124	131	1
49	97	1
38	39	3
3	16	3
33	42	1
108	129	3
110	136	2
126	136	1
99	104	1
98	99	1
41	42	5
127	128	4
32	40	1
120	121	2
43	66	1
29	30	1
88	88	2
83	84	4
52	72	2
64	69	2
110	126	1
120	125	3
19	30	1
38	50	2
116	119	1
19	61	2
59	146	1
22	23	1
88	113	4
79	128	1
74	74	3
127	141	1
39	41	1
14	16	3
128	141	1
19	62	3
144	145	2
11	12	3
103	104	1
17	42	2
127	132	2
87	88	2
77	77	3
54	55	2
18	23	2
20	31	2
73	74	2
119	141	2
51	51	1
28	30	1
18	19	1
131	145	1
110	113	1
26	39	1
133	136	1
136	137	1
120	122	1
141	142	1
0	0	2
50	52	1
112	138	1
135	140	1
53	73	1
85	85	2
95	96	2
3	4	1
115	136	1
2	5	1
137	138	1
140	141	2
4	14	1
83	85	1
36	43	1
84	117	1
81	119	1
50	50	3
96	97	1
94	94	1
91	92	2
35	38	2
6	10	1
40	72	1
20	29	1
36	52	1
77	78	2
117	118	1
33	52	1
103	105	1
109	110	1
114	139	1
119	132	1
38	43	1
114	114	4
64	65	3
89	91	1
9	24	1
68	69	1
118	131	1
104	106	1
23	25	1
