61	61	8
132	133	4
112	114	4
58	58	7
66	66	22
22	22	2
49	93	5
42	42	7
125	125	6
77	77	5
29	81	2
46	47	5
68	68	7
17	17	3
113	114	11
44	45	2
97	117	6
20	80	3
33	33	4
70	71	7
82	82	11
64	64	14
82	84	1
105	109	4
96	99	2
64	69	2
99	99	7
72	73	2
76	76	3
44	44	9
127	128	4
65	65	8
102	102	5
107	108	3
64	71	2
10	10	10
7	7	14
21	21	16
92	93	9
32	32	9
40	41	4
7	9	2
84	117	7
47	48	2
44	60	6
8	8	7
102	103	8
64	65	1
19	19	22
106	106	12
90	90	8
57	57	8
81	81	7
108	108	8
17	79	1
23	23	3
37	37	13
60	60	12
8	36	5
121	134	5
129	131	4
67	67	3
22	108	3
21	22	11
79	79	11
12	12	15
116	117	1
14	16	3
27	28	3
111	111	7
93	93	10
69	69	7
91	100	2
126	126	5
75	75	9
45	64	6
36	36	7
35	35	7
93	94	3
71	77	1
4	4	4
94	95	6
15	16	7
28	83	1
15	20	4
34	34	5
83	83	6
92	92	7
10	82	4
36	37	3
14	14	5
129	130	5
44	75	6
127	129	3
32	33	6
101	101	7
21	44	2
3	3	7
97	97	2
109	109	6
25	25	5
132	132	7
113	119	2
115	115	6
4	5	1
16	16	8
20	61	3
102	104	2
47	47	4
102	122	2
77	78	1
85	85	7
85	86	2
131	133	6
86	120	4
91	91	3
58	59	1
117	117	4
101	102	9
64	67	3
98	99	2
104	105	3
129	129	5
54	55	2
15	15	12
76	78	2
46	46	6
73	75	3
21	43	1
62	63	1
12	64	1
78	79	12
59	59	12
104	104	10
62	62	3
83	84	5
130	130	5
87	87	6
25	26	6
99	100	4
57	58	3
105	124	2
121	121	5
28	34	3
7	8	5
28	28	8
103	103	7
98	98	3
55	56	3
75	76	5
22	90	3
20	44	2
131	132	5
130	131	8
72	72	10
20	21	8
25	83	3
3	14	3
31	32	2
65	66	1
36	41	3
9	9	9
49	50	2
19	20	12
16	80	3
78	78	13
100	133	1
20	20	5
95	95	5
31	31	3
118	118	7
126	127	4
94	94	1
105	105	7
17	77	5
134	134	6
57	59	2
59	62	1
16	83	2
109	114	1
99	116	2
45	45	2
73	73	3
128	128	6
97	112	2
114	114	3
0	0	4
49	49	5
63	63	3
25	27	3
17	74	5
127	133	1
114	120	1
13	13	3
38	38	11
24	24	4
16	23	4
79	81	4
6	6	4
11	11	11
92	95	1
16	37	3
28	62	1
116	116	1
120	121	7
16	40	6
107	107	4
133	133	2
45	48	5
18	32	5
17	40	1
119	119	7
78	81	5
32	106	2
115	116	4
115	117	1
15	17	2
29	29	5
79	80	3
21	79	2
91	92	2
80	80	5
125	126	2
18	20	1
89	94	3
9	10	4
76	77	5
26	92	3
100	108	3
113	113	5
41	41	2
68	69	5
125	127	2
12	66	1
108	110	5
84	90	1
24	82	2
89	91	1
104	107	1
95	97	1
96	96	2
81	82	2
30	30	1
67	68	4
16	19	2
33	34	2
34	35	1
50	50	8
123	124	3
74	74	5
87	88	3
74	76	2
110	110	5
84	85	2
56	56	4
23	29	2
19	45	3
14	17	1
40	40	1
73	74	3
131	131	7
28	78	2
18	18	5
18	25	2
70	70	3
3	6	1
6	7	1
31	38	2
30	50	1
35	36	1
110	114	3
14	78	3
109	110	2
89	93	2
24	29	2
19	110	1
98	130	1
46	61	1
84	84	3
72	74	3
120	120	3
46	66	4
59	60	4
63	64	1
39	55	2
120	122	3
30	49	1
8	9	2
89	113	2
125	128	1
27	27	3
86	86	5
124	124	1
62	64	1
17	78	1
81	88	2
88	88	1
18	19	2
33	45	1
118	120	1
31	33	1
5	5	1
109	113	2
122	122	2
22	26	5
28	81	2
8	11	3
31	62	1
107	110	4
75	77	1
83	85	2
74	75	1
63	67	2
9	11	4
41	43	1
71	72	1
100	101	1
86	88	1
30	31	1
119	131	1
87	89	1
103	105	2
14	15	2
45	49	1
24	80	2
112	121	1
5	37	2
101	103	1
13	15	1
112	113	2
28	77	1
106	107	2
101	109	1
22	91	3
82	83	3
89	109	1
86	89	1
71	71	1
100	100	2
4	16	1
58	60	1
43	43	1
0	1	2
97	98	1
31	39	1
23	24	1
96	114	1
119	120	1
3	17	1
100	102	1
58	81	1
20	85	1
96	97	1
91	105	1
62	69	1
108	109	1
31	35	1
90	95	1
8	10	1
