65	67	8
146	147	11
122	123	1
98	98	17
170	170	8
126	126	18
115	138	1
128	128	10
173	173	16
45	47	3
64	65	3
152	152	9
146	146	9
101	102	5
159	159	4
166	167	2
45	48	5
113	113	13
95	116	2
174	174	30
34	34	4
68	166	1
179	180	4
181	182	3
20	35	2
11	11	13
99	99	19
10	10	4
161	161	6
13	13	16
21	22	1
75	80	2
106	142	3
40	40	22
16	16	12
90	90	14
55	62	3
180	189	2
136	151	2
171	173	2
137	137	13
107	107	11
120	120	25
28	28	14
187	187	4
55	56	7
75	75	14
79	114	3
14	14	7
149	149	23
65	68	2
163	163	3
175	175	5
121	121	11
104	104	6
80	112	3
64	79	2
128	129	6
134	138	2
38	38	18
134	135	15
80	80	12
66	66	10
55	55	10
56	56	12
65	66	1
127	128	6
145	145	5
184	185	3
18	19	3
49	53	1
166	166	9
185	186	12
142	142	6
88	88	15
140	155	2
168	168	6
182	183	1
93	93	15
61	62	9
136	137	10
92	92	21
86	165	5
12	53	2
110	115	3
84	84	18
126	154	5
155	157	1
89	89	8
181	184	3
87	154	6
78	78	25
25	25	19
24	25	8
183	183	10
65	99	1
96	96	7
117	117	5
148	148	9
48	48	9
60	64	5
33	33	11
72	80	5
19	23	1
61	61	17
17	18	7
153	154	5
101	121	6
118	118	14
188	189	9
110	110	6
91	92	4
12	12	7
87	159	5
10	17	1
116	118	2
177	177	17
178	180	2
36	37	5
22	48	2
119	132	1
10	21	2
164	164	13
113	115	2
116	117	15
67	67	6
44	44	9
73	73	19
176	176	6
181	181	7
131	132	3
108	109	7
22	22	13
141	141	6
177	178	6
129	145	1
169	169	11
103	134	1
70	70	17
157	163	2
123	123	18
171	172	10
158	158	11
127	127	10
1	1	9
102	102	17
83	83	11
29	34	2
74	78	4
13	15	1
79	144	3
29	30	5
20	27	4
124	125	6
20	26	2
76	76	11
10	12	8
138	152	4
87	140	3
34	37	5
4	6	3
118	165	2
4	4	5
110	138	5
15	15	14
22	112	2
178	179	8
162	162	7
170	184	2
23	24	3
82	82	17
12	13	4
65	65	14
30	30	14
116	116	12
103	110	4
188	188	14
88	134	2
132	132	7
61	63	3
37	37	12
154	154	16
182	184	1
59	59	10
109	109	14
100	100	5
46	46	19
91	91	13
172	172	11
108	108	11
58	59	8
27	27	10
60	62	8
137	138	2
120	169	6
7	7	7
70	73	5
72	81	7
19	41	3
66	67	12
62	63	2
136	136	13
53	58	5
97	98	5
147	147	12
130	158	5
54	55	8
47	47	13
87	87	8
8	8	10
85	85	15
77	78	5
143	143	10
92	178	2
8	21	3
43	45	3
166	174	1
111	111	4
82	83	3
81	81	9
41	41	10
53	54	1
0	0	11
131	140	4
114	114	17
57	57	6
144	144	7
64	80	4
15	95	5
135	135	17
28	29	3
8	48	4
185	185	8
109	110	5
43	43	14
173	174	6
40	41	7
161	162	6
95	114	2
60	61	8
150	150	10
78	81	1
37	45	7
186	186	10
18	21	3
144	145	5
68	69	1
162	184	3
17	17	9
63	74	2
167	171	4
59	64	3
95	95	13
115	158	2
23	23	13
105	105	6
180	180	8
171	171	8
84	85	16
184	184	12
127	154	2
89	90	3
95	157	1
97	112	7
94	157	1
59	65	5
45	45	7
157	168	2
71	72	3
175	176	9
115	115	7
10	11	9
129	129	15
140	140	11
63	63	4
167	168	5
96	97	11
112	112	13
90	98	5
139	139	8
24	24	4
86	87	1
68	81	4
34	35	7
15	113	1
156	157	1
149	150	2
101	153	4
130	131	2
160	160	2
150	151	6
132	133	3
151	151	9
181	189	4
12	54	2
101	101	13
82	86	2
74	74	16
94	94	14
122	153	4
151	185	1
160	162	1
151	175	1
88	135	4
35	35	15
131	131	8
151	155	11
86	86	9
79	151	3
149	186	3
95	145	3
25	26	9
103	103	10
25	82	1
32	32	9
26	28	4
131	133	3
119	144	3
59	60	6
80	81	6
187	188	6
94	119	6
43	44	9
74	82	7
39	39	10
83	86	4
19	42	9
7	40	3
58	58	8
74	83	2
77	84	3
20	21	5
71	71	12
59	61	2
130	130	11
136	139	2
122	126	3
27	28	4
2	2	18
167	167	19
42	42	10
99	103	2
182	182	9
92	93	2
153	153	10
167	170	5
104	125	4
113	125	1
79	81	3
115	139	2
27	29	3
26	26	5
77	77	16
157	158	2
64	99	2
88	89	4
155	175	4
163	164	1
73	80	3
5	5	12
95	111	2
87	101	4
79	79	12
29	29	17
158	159	3
62	62	8
5	6	1
176	177	7
122	122	17
3	41	1
156	156	2
132	134	1
16	17	9
158	161	1
172	173	8
180	182	3
18	18	6
20	20	8
106	106	7
12	28	4
11	12	6
4	42	2
183	184	3
168	169	7
33	34	1
129	130	5
125	125	6
110	112	3
15	31	3
30	31	3
109	115	3
152	153	5
53	53	14
66	85	1
68	68	10
97	100	5
171	174	4
53	55	2
100	111	6
73	83	1
48	49	3
15	16	4
106	108	2
179	179	5
123	136	4
104	108	4
20	47	4
75	78	2
65	70	2
76	77	3
176	179	1
9	10	5
60	60	5
79	115	9
98	112	2
155	155	5
190	190	3
124	124	4
66	120	3
3	3	2
95	104	2
13	54	1
64	81	3
18	27	4
13	56	1
124	136	1
73	74	2
165	165	9
42	46	3
72	72	6
174	175	3
139	165	6
21	21	7
20	37	1
94	156	2
169	170	6
34	44	4
177	190	1
103	114	2
83	85	4
150	177	2
118	119	3
24	95	3
6	6	12
42	43	1
77	102	2
67	70	3
158	162	1
54	54	8
99	100	1
164	166	3
79	131	4
75	104	4
143	144	3
168	170	3
36	36	7
91	97	1
4	5	7
90	184	1
57	66	3
9	98	2
149	154	4
125	133	2
157	157	5
85	158	2
111	112	2
26	110	2
121	173	4
126	127	2
91	94	5
121	136	1
134	134	3
42	44	3
188	190	2
83	84	2
15	30	1
178	178	1
125	126	5
56	162	1
90	91	4
92	146	1
46	47	4
166	171	2
165	170	1
91	93	1
13	14	3
41	57	3
124	126	2
71	84	2
1	8	2
182	187	3
106	146	3
136	140	3
20	42	1
27	35	1
54	57	3
56	62	2
189	189	5
175	186	1
138	139	3
16	60	2
8	9	1
62	65	1
48	56	1
112	113	2
25	158	1
6	101	1
57	89	1
157	162	1
162	163	3
10	13	2
6	43	4
145	146	1
189	190	2
22	23	1
22	44	1
78	79	1
72	83	1
86	158	1
142	169	3
64	64	3
77	153	2
140	141	1
70	85	2
7	57	1
95	96	1
127	152	2
182	185	2
26	38	2
174	184	1
0	48	2
76	83	3
76	81	3
68	152	1
180	181	1
72	73	4
125	187	1
135	146	2
110	111	5
77	79	2
179	190	3
10	15	2
74	102	2
76	108	1
170	178	1
98	99	1
90	153	2
94	95	3
29	31	3
85	143	2
18	20	1
13	55	3
138	138	3
65	98	1
14	15	1
92	116	2
125	138	2
98	105	1
16	18	4
6	7	2
155	156	3
89	156	2
58	68	2
89	97	3
44	45	2
158	163	2
91	98	2
100	122	2
172	174	1
70	72	4
111	113	1
154	155	5
60	65	2
120	174	1
115	133	2
133	133	3
149	175	1
97	97	5
24	114	2
110	113	1
27	36	1
24	144	1
92	147	1
131	137	2
74	77	2
135	136	3
119	119	4
104	169	2
181	188	1
119	166	1
7	38	1
132	136	1
63	73	3
142	143	3
10	53	2
13	27	3
106	129	1
149	190	1
31	33	1
147	178	1
38	56	1
63	72	2
85	90	2
120	166	1
116	129	1
38	39	3
52	53	2
99	104	3
150	186	2
68	90	1
139	140	1
1	53	2
108	112	1
37	44	3
119	136	1
6	115	1
138	173	1
128	146	2
137	165	2
12	27	1
31	32	2
10	52	2
129	177	1
119	159	2
186	187	1
42	47	2
122	152	2
13	62	1
114	119	1
19	35	2
130	142	1
123	153	1
33	37	1
24	94	1
75	76	1
85	86	2
117	118	1
111	116	1
122	172	1
176	186	3
67	157	1
87	112	1
31	48	1
48	55	1
138	175	1
2	3	2
30	43	1
31	31	1
121	154	2
114	115	1
19	19	1
160	161	1
54	58	1
86	155	1
66	90	1
157	169	3
73	82	1
53	60	1
35	37	1
80	82	2
115	130	1
113	116	1
91	178	1
41	42	2
111	154	1
64	75	1
17	27	1
43	47	1
15	57	1
166	175	1
10	18	2
152	185	1
98	110	1
168	175	1
37	38	1
52	52	1
96	100	1
154	170	1
55	64	1
94	117	1
14	101	1
25	101	1
4	13	1
187	189	1
112	116	1
90	148	1
30	91	1
125	130	1
126	129	1
106	107	1
117	155	1
124	135	1
141	142	1
21	27	1
22	25	1
19	22	1
63	65	1
