118	118	11
123	123	14
0	2	4
13	55	1
30	32	4
64	64	7
52	53	9
48	52	4
111	111	30
85	85	8
65	65	8
90	90	17
46	60	4
115	115	1
65	67	3
2	2	8
82	82	2
114	114	23
106	106	11
55	55	9
122	122	11
88	88	13
33	34	2
96	96	12
42	42	12
50	53	2
93	94	1
25	25	17
10	10	11
33	115	3
61	61	6
66	76	3
40	41	5
41	41	5
6	6	14
108	108	14
26	27	4
56	58	3
24	24	9
22	109	2
124	125	12
86	87	7
17	17	15
71	72	3
19	21	6
69	70	7
105	105	13
27	29	6
86	86	4
76	76	12
131	131	15
19	20	3
51	52	7
13	14	6
100	100	7
12	129	1
79	79	9
121	122	3
48	48	9
58	58	13
49	49	26
56	56	10
109	109	7
52	52	20
27	27	9
116	116	13
22	22	7
123	125	4
125	126	1
93	93	15
53	54	6
127	128	7
117	118	12
104	116	3
54	113	3
94	94	13
44	44	14
87	87	5
5	5	7
120	120	11
11	12	6
59	59	7
63	68	4
19	19	11
44	47	2
60	63	2
62	68	1
41	42	16
29	30	4
69	69	15
45	46	11
29	29	11
113	114	4
46	48	5
71	84	2
128	128	14
117	117	13
57	58	2
67	67	11
113	113	8
112	112	14
75	75	7
30	30	10
38	40	3
12	12	8
58	61	1
47	47	17
80	80	11
110	111	11
66	67	1
111	113	4
57	57	12
102	102	15
104	105	4
50	51	9
72	73	5
64	65	4
11	14	4
43	43	4
72	74	6
24	25	4
45	45	11
44	72	3
69	71	4
21	21	10
26	26	14
103	103	8
7	7	10
83	83	3
11	131	1
0	1	8
18	19	10
15	15	7
40	40	7
92	92	12
129	130	5
68	68	8
97	97	14
73	74	4
15	16	2
104	104	12
25	38	1
51	51	17
89	89	10
89	91	4
39	39	6
31	31	4
52	93	4
41	44	1
32	32	6
28	28	14
125	125	12
133	133	4
72	72	8
53	53	12
89	90	2
66	66	1
88	120	3
97	98	4
9	10	1
31	32	8
33	33	7
24	39	6
97	99	2
128	129	2
39	41	4
20	27	3
75	76	1
96	98	4
89	92	1
95	95	12
70	70	8
13	13	9
77	77	9
71	71	11
23	24	6
54	62	2
16	16	8
3	3	17
106	107	5
8	9	2
20	20	5
1	1	10
100	101	4
78	78	2
89	119	1
56	57	2
99	99	5
23	25	1
69	114	4
81	81	5
50	50	13
13	129	2
56	113	1
42	43	5
63	64	4
105	109	2
101	101	12
128	130	1
19	30	1
18	37	1
107	107	7
8	8	9
56	86	3
11	21	1
122	123	4
54	54	8
9	9	10
50	52	2
51	53	3
26	34	3
81	84	4
121	121	6
46	50	1
56	69	1
110	110	14
25	26	7
14	14	1
126	126	14
63	72	1
23	23	1
65	72	3
131	132	6
100	102	2
94	96	2
58	62	1
78	79	7
23	39	1
2	5	2
58	59	5
63	63	5
46	54	8
1	2	2
90	119	5
126	128	1
28	30	3
91	91	1
3	5	5
46	47	6
76	85	1
74	74	5
45	74	1
12	30	2
43	72	1
119	119	8
63	71	1
79	120	3
127	127	8
71	79	4
120	121	9
27	67	3
57	59	1
46	46	9
85	86	2
14	16	4
17	18	3
60	60	3
3	79	1
44	45	3
84	84	4
0	0	4
108	109	4
82	87	5
51	91	1
45	54	2
78	80	2
77	79	1
55	56	2
96	97	1
105	106	4
116	117	3
106	111	1
11	20	1
86	88	3
42	58	1
126	127	4
32	33	4
2	101	2
23	40	1
114	116	2
11	11	6
59	117	1
91	92	2
12	132	1
67	68	2
80	83	2
21	22	2
8	20	2
9	12	2
7	108	2
62	62	3
54	55	4
90	91	2
6	94	2
2	52	3
30	31	2
24	34	2
30	88	1
83	87	5
18	18	8
46	72	3
129	129	6
94	95	6
59	60	1
55	62	2
5	6	2
65	66	2
80	82	1
132	132	5
16	18	6
79	81	2
101	102	10
4	4	4
27	58	1
70	109	2
22	24	2
62	63	4
29	59	1
105	122	1
12	45	3
60	61	6
81	83	1
58	70	1
124	124	10
77	125	2
3	4	1
55	116	1
117	119	2
7	8	3
114	115	2
59	61	1
67	90	4
55	115	2
62	72	1
95	113	3
77	83	6
19	24	1
104	122	2
98	98	7
94	113	2
45	73	2
118	119	1
111	112	5
127	129	2
13	56	1
58	117	1
70	71	1
87	88	3
87	89	3
28	29	6
63	84	4
45	47	1
52	54	3
73	75	5
27	60	1
62	118	1
19	22	3
13	31	2
65	68	1
80	129	1
6	7	9
9	119	1
48	49	1
7	15	1
126	130	1
34	34	2
37	40	1
52	92	1
39	40	2
119	120	2
46	88	1
63	69	1
99	101	3
97	104	1
94	110	4
73	73	3
82	84	2
52	55	2
51	54	4
84	85	1
130	130	5
123	124	4
25	33	1
28	69	1
43	45	1
11	45	1
64	68	2
7	32	4
118	133	1
129	131	2
22	38	3
55	114	1
7	19	2
74	85	1
81	107	2
12	14	1
76	86	1
4	5	3
96	105	3
55	57	1
68	69	1
124	130	3
63	65	1
65	79	3
27	56	1
45	68	2
2	79	2
125	128	1
119	132	3
27	30	1
109	110	1
121	123	1
0	122	1
79	80	3
13	21	1
47	48	2
49	50	1
31	33	1
22	23	1
39	42	1
27	28	3
61	64	1
38	41	1
97	100	1
83	106	1
32	78	1
98	105	3
32	77	1
99	100	1
41	43	1
59	97	1
38	115	1
10	12	2
21	25	1
115	116	2
64	66	2
71	86	1
16	17	3
104	117	1
42	44	1
44	48	1
131	133	1
56	62	1
56	59	2
43	49	1
1	53	1
77	126	1
90	107	2
20	21	1
80	81	1
26	69	1
107	108	1
113	116	1
105	121	1
56	114	1
14	15	1
109	111	1
114	117	1
68	72	1
71	73	1
77	78	1
71	75	1
13	22	1
98	99	1
0	53	1
