99	100	4
27	50	1
107	127	2
64	64	18
108	111	6
75	76	4
10	10	6
66	67	5
59	59	11
123	124	6
91	91	9
85	85	8
131	131	8
114	117	9
88	88	9
69	69	20
45	117	2
4	4	20
77	77	14
114	115	12
132	133	5
71	73	3
36	36	6
19	19	9
62	62	7
56	58	2
2	28	2
71	71	14
99	99	16
34	34	8
103	104	3
115	116	5
96	96	13
56	56	2
101	127	2
72	72	6
57	119	4
15	15	6
98	98	16
54	121	6
43	43	3
69	78	3
42	42	5
110	125	2
78	92	2
36	48	1
61	61	19
90	91	3
97	97	8
70	71	4
6	6	4
79	80	4
119	119	14
89	89	8
117	118	6
122	122	12
91	92	2
89	105	2
87	87	16
130	130	9
92	92	7
81	88	1
1	2	5
90	90	20
107	108	7
121	121	6
65	66	4
78	78	3
70	70	9
37	37	3
129	131	4
110	110	19
9	11	4
64	65	4
3	3	5
15	29	1
55	55	7
84	130	2
55	77	3
17	17	6
73	73	7
54	54	7
76	78	2
28	28	6
124	124	5
13	25	2
112	112	12
11	11	4
9	25	2
72	73	2
60	60	10
106	106	1
83	84	8
93	94	3
110	111	5
84	85	7
65	67	1
63	63	5
66	66	13
30	38	3
108	108	5
95	95	4
47	64	2
76	76	3
126	127	3
86	122	1
55	100	5
60	135	5
22	23	3
6	8	1
58	61	3
64	66	1
69	115	2
57	66	2
114	114	13
134	134	13
86	87	6
100	101	3
57	59	2
84	84	10
101	101	12
65	65	3
50	81	2
14	14	7
113	114	3
58	59	3
85	117	2
60	61	7
93	93	7
120	121	1
91	101	5
20	20	15
107	107	4
24	24	14
49	49	2
58	58	4
2	4	3
116	116	7
115	115	14
44	50	2
38	43	1
118	119	5
68	68	14
111	112	2
52	54	2
84	106	2
88	101	2
63	64	4
58	82	6
67	67	2
14	37	2
97	114	1
57	105	2
43	116	3
135	135	8
25	37	3
86	123	4
90	93	1
73	74	3
81	81	6
100	100	2
8	8	5
30	30	5
53	113	5
14	15	1
45	45	10
106	111	2
86	132	1
112	113	3
50	50	7
117	117	11
71	72	1
5	11	1
129	130	4
13	13	10
130	131	4
97	98	3
55	68	2
26	26	10
82	84	3
126	126	7
105	105	13
120	120	16
127	127	9
69	79	3
25	36	2
131	133	7
80	80	7
102	102	9
116	125	4
8	9	4
94	98	2
5	5	5
55	84	7
73	112	2
19	20	1
91	115	1
125	125	19
102	103	3
125	131	2
7	7	4
45	46	3
103	103	14
23	23	4
18	18	5
128	128	3
44	52	2
104	105	1
63	66	2
44	44	10
77	79	2
13	35	2
7	63	1
83	83	4
4	6	1
82	118	1
83	85	1
133	134	1
58	87	1
88	96	3
23	24	3
96	108	3
84	86	1
74	74	8
45	116	1
9	37	2
9	116	1
83	129	1
105	127	1
78	79	10
109	122	2
105	106	1
129	129	11
115	131	2
118	118	4
4	5	1
8	16	2
88	111	1
94	94	4
79	79	8
118	122	2
106	126	2
43	44	10
98	129	2
67	124	1
7	17	3
83	95	4
121	122	1
86	86	5
111	122	3
113	115	1
20	29	1
12	28	1
111	111	4
49	50	2
60	82	2
53	53	4
52	104	3
127	128	5
81	82	2
25	26	3
10	15	3
104	104	9
1	1	1
61	114	2
125	135	2
56	57	2
12	48	1
122	124	2
67	84	1
55	83	2
0	0	5
126	134	1
64	112	3
16	16	9
75	75	4
101	121	2
106	110	2
108	110	3
64	68	4
109	110	4
29	29	3
95	116	1
12	12	5
61	106	3
56	119	3
59	68	4
63	65	2
110	120	4
1	39	1
3	4	1
44	77	2
113	113	2
28	32	2
23	33	2
33	36	4
20	21	2
60	68	3
47	47	3
124	125	1
109	111	1
122	125	3
23	31	3
105	128	1
89	90	5
87	117	3
99	105	2
54	78	3
22	63	1
31	31	1
26	27	3
22	22	4
12	13	2
13	14	1
67	122	1
102	104	2
0	22	1
92	93	3
15	17	1
97	109	1
88	108	1
21	21	3
28	29	2
95	99	2
132	132	3
57	58	4
25	25	2
36	55	1
55	56	5
109	109	2
60	64	1
97	100	1
62	65	1
33	33	3
54	123	2
96	99	2
57	57	3
60	63	1
61	67	4
36	37	1
9	48	1
11	44	2
109	129	1
9	10	2
35	35	2
99	101	1
96	110	1
18	22	1
82	82	4
7	9	1
99	127	2
115	118	1
50	59	1
67	68	1
9	9	2
51	98	1
102	124	1
56	66	2
38	38	3
104	113	2
54	85	2
11	74	1
46	46	1
51	126	1
2	2	2
83	122	2
79	105	2
70	75	1
77	78	2
5	6	1
91	98	2
82	85	1
19	21	2
66	85	2
123	123	1
33	34	1
95	119	1
84	110	2
56	112	1
80	134	1
97	133	1
48	49	2
107	133	1
76	80	1
16	37	1
54	118	2
69	91	1
111	124	1
119	120	2
18	23	1
84	107	1
52	52	1
27	28	3
92	111	1
45	49	1
94	95	2
62	63	2
53	57	1
82	86	1
38	117	3
92	96	2
3	6	1
61	68	1
58	119	1
44	57	1
112	124	1
68	79	2
58	66	1
11	37	1
11	45	1
36	49	1
85	88	1
87	91	2
8	29	1
96	112	1
95	96	1
44	45	1
67	119	1
69	88	1
111	128	1
82	83	1
69	99	1
127	131	1
87	115	1
31	33	1
52	123	1
106	107	1
94	111	1
44	106	1
55	118	1
98	128	1
70	74	1
61	135	1
