90	90	4
36	36	6
4	26	2
184	185	4
139	139	10
72	137	1
59	60	2
107	108	3
90	91	3
97	98	4
173	182	4
144	144	7
146	146	7
40	40	6
53	54	10
5	6	5
42	43	4
134	134	8
8	8	7
180	180	9
58	62	5
97	97	7
164	164	1
91	135	4
81	82	4
119	119	10
42	42	17
15	16	1
111	111	3
186	186	4
82	97	1
89	92	4
0	0	2
187	190	5
113	113	9
149	149	7
75	75	9
15	15	12
172	172	5
13	13	6
114	114	8
159	159	8
24	148	4
136	136	5
30	148	1
137	138	5
22	33	1
79	79	3
94	94	4
31	31	4
66	97	1
57	57	9
152	152	7
99	155	3
116	119	5
177	178	2
112	112	11
119	150	3
109	109	6
104	104	17
17	17	9
12	12	9
121	121	3
41	41	3
153	159	5
58	58	3
48	48	7
178	178	4
183	183	8
174	174	6
175	179	6
24	24	16
113	152	5
128	129	6
150	151	3
17	18	2
58	59	2
82	83	4
20	22	3
63	63	1
134	135	9
148	148	7
156	157	8
68	70	5
140	140	5
173	185	3
46	48	4
140	141	4
6	6	16
39	39	12
103	103	22
6	7	5
141	142	5
161	161	3
165	171	4
71	71	4
153	166	5
2	2	29
110	110	10
129	129	4
35	36	2
165	188	4
187	187	3
10	11	4
95	95	1
166	167	3
84	84	9
174	176	3
40	41	3
45	45	6
116	117	2
179	179	3
105	105	9
135	135	6
88	88	9
188	188	3
44	122	1
78	78	4
106	106	10
165	172	4
127	127	9
157	157	5
123	123	6
87	87	11
76	76	5
41	163	5
78	129	4
93	94	6
118	118	5
27	30	4
92	93	4
143	143	1
72	132	2
62	65	6
169	169	9
171	172	3
97	114	1
151	151	3
130	131	2
130	130	8
129	130	4
143	177	1
96	96	3
40	163	6
146	148	1
73	73	2
184	184	10
38	38	8
154	189	7
4	9	4
56	56	6
11	11	4
135	136	2
154	158	1
171	171	4
74	76	2
98	98	4
77	78	3
106	108	11
142	142	5
29	30	4
3	3	4
78	79	4
58	82	1
178	190	4
128	128	3
84	87	5
40	161	2
55	56	1
53	56	3
76	77	2
124	124	7
165	176	1
108	108	7
81	81	2
141	143	7
142	144	2
54	54	3
177	177	5
172	173	1
139	140	4
185	185	7
3	4	3
8	16	2
72	134	1
164	165	2
3	7	2
150	150	5
142	143	3
138	138	7
65	65	5
43	141	3
34	36	3
42	185	1
189	190	4
147	148	4
83	83	6
99	99	1
62	62	1
129	140	4
10	10	6
165	165	6
102	102	6
143	144	1
85	85	7
90	96	2
54	103	2
31	85	3
0	1	4
144	168	1
117	118	5
7	7	10
102	103	4
148	170	4
148	150	5
123	148	2
175	175	1
115	115	9
57	112	1
137	139	1
82	82	6
154	154	1
67	97	1
128	140	4
52	56	7
166	166	5
173	173	14
22	22	2
161	162	1
163	163	7
40	42	2
176	176	2
5	5	5
64	67	1
24	25	2
89	89	6
45	109	1
66	66	2
169	170	2
177	181	1
133	133	6
64	64	5
77	77	7
23	24	2
46	46	3
28	28	5
47	47	3
105	188	2
41	173	2
17	20	1
170	170	7
17	30	2
91	91	4
62	63	1
9	10	1
16	16	4
47	48	1
25	25	3
188	189	4
12	13	2
30	31	3
91	94	3
63	64	3
115	116	1
73	75	2
104	112	4
122	122	4
135	158	2
116	150	1
53	53	2
168	168	7
183	184	2
74	74	5
131	131	5
68	68	6
26	27	2
45	111	1
91	110	1
19	20	2
72	72	7
84	86	2
128	151	4
92	92	4
132	136	1
135	137	1
42	109	4
162	163	5
149	150	1
52	53	3
113	169	4
110	111	1
57	58	3
10	13	4
152	153	1
99	103	1
136	137	5
136	138	1
2	3	1
159	185	1
137	137	2
48	106	2
7	38	1
43	109	1
42	44	1
98	154	1
52	143	1
4	19	2
155	187	1
43	44	1
142	178	1
16	34	2
5	9	3
100	100	1
21	22	2
140	175	1
101	103	2
99	100	3
127	148	3
111	112	2
18	35	3
23	23	4
99	111	2
163	164	1
18	18	1
57	113	1
27	27	1
153	153	1
94	95	1
138	139	2
120	120	1
37	38	2
144	148	1
179	181	3
14	27	1
155	155	3
61	62	2
20	57	1
8	25	2
47	188	1
32	33	1
25	30	1
152	176	1
41	42	3
65	82	1
31	148	1
67	68	2
31	32	2
14	15	2
4	17	1
67	122	1
109	110	1
62	93	1
170	171	1
16	22	1
96	107	1
1	1	2
4	4	1
154	155	1
130	137	1
28	29	2
121	122	1
167	167	1
124	125	1
0	2	1
158	158	3
56	57	2
21	21	1
60	60	1
48	114	1
53	104	1
188	190	1
78	81	2
26	26	2
95	96	1
37	37	2
126	171	2
61	61	1
80	80	2
33	33	1
16	17	2
101	104	1
17	24	1
36	37	1
86	86	1
38	39	1
122	123	1
126	172	2
47	64	2
180	181	1
54	57	1
9	12	1
4	6	1
5	8	1
140	173	1
54	142	1
155	156	1
164	169	1
83	87	1
