88	89	3
125	125	17
117	118	4
131	131	17
128	129	5
96	97	5
23	23	5
121	121	6
87	87	13
13	14	1
21	21	3
86	88	2
104	104	5
85	89	1
26	118	5
85	85	4
102	102	9
133	133	14
71	76	2
129	129	7
134	134	8
80	80	9
81	81	14
86	86	9
122	122	11
103	103	9
98	98	10
136	136	4
126	127	6
19	20	5
90	90	6
27	27	3
37	111	4
140	140	8
15	15	11
106	106	3
99	104	5
116	117	3
118	118	12
114	114	10
14	14	9
19	19	20
126	126	12
128	130	2
98	103	2
100	102	4
93	94	10
137	138	11
78	78	11
2	3	2
28	28	9
116	118	4
14	18	5
6	7	1
88	88	15
135	135	17
89	89	6
116	116	10
114	115	11
113	114	5
27	28	5
112	112	15
72	72	17
124	124	21
102	103	2
31	31	14
132	132	17
139	140	3
101	101	6
132	140	3
8	9	6
123	125	2
73	73	13
37	77	3
100	128	1
113	113	9
71	71	8
5	5	8
138	140	3
9	10	3
80	110	1
3	3	8
75	75	6
37	37	2
106	107	5
108	109	4
134	135	12
77	77	5
12	13	5
85	86	3
138	138	6
32	32	5
106	120	1
98	101	1
36	37	5
139	139	5
92	92	5
84	84	6
119	119	10
111	113	2
96	96	15
35	35	5
25	25	1
4	4	9
107	107	8
93	98	2
94	94	9
123	124	4
90	98	1
10	10	3
91	94	5
33	74	2
127	127	4
115	136	2
82	82	4
127	130	1
95	95	10
128	128	10
123	137	2
86	87	8
77	94	2
107	108	9
2	2	6
82	83	1
0	0	1
125	126	5
97	97	6
81	87	2
76	76	4
121	122	1
109	109	17
23	74	2
135	136	3
110	111	10
118	119	3
96	126	2
130	130	11
4	7	4
100	130	2
5	6	1
112	114	1
110	110	8
105	106	3
24	24	2
107	129	3
13	13	3
34	35	5
20	29	1
137	137	9
104	120	2
109	110	3
71	73	1
74	75	5
94	96	1
33	135	4
6	6	2
25	26	2
23	24	2
83	85	3
77	78	4
34	34	4
6	114	2
91	91	2
33	134	1
72	76	3
92	93	4
15	17	2
32	33	2
118	136	2
20	20	7
120	120	8
26	73	1
98	99	1
100	111	1
111	111	5
108	108	6
103	106	3
130	133	2
4	5	4
16	16	4
93	101	1
93	97	1
104	105	3
103	119	5
131	132	6
109	111	3
83	84	3
121	123	2
97	99	2
79	79	2
129	137	2
73	118	2
12	12	4
119	136	1
34	132	2
38	38	1
17	17	5
2	15	1
94	95	2
27	29	2
35	75	2
123	123	9
20	27	2
100	100	3
112	113	4
27	116	1
116	135	1
12	14	1
98	100	1
10	11	1
128	134	2
110	112	3
11	13	2
138	139	2
94	98	2
74	76	3
115	115	8
25	73	4
30	31	3
31	32	4
16	21	1
22	23	2
101	103	4
87	88	2
133	134	1
17	22	2
4	76	1
84	85	3
2	4	1
101	111	1
106	118	1
16	17	4
104	119	2
87	93	2
117	117	5
126	135	1
98	102	1
99	109	3
96	136	1
33	114	1
100	112	3
91	92	2
127	128	4
17	19	1
126	130	2
33	33	1
20	21	3
100	101	1
115	117	1
24	25	1
28	32	2
124	125	5
21	22	2
22	22	1
79	84	1
74	116	1
120	121	3
111	112	4
38	71	1
136	137	1
7	11	1
7	8	1
127	129	1
5	18	2
106	108	2
130	136	1
26	27	1
71	78	1
26	74	2
115	116	1
83	83	1
9	9	1
103	125	1
0	21	2
88	91	2
17	18	1
2	13	1
80	87	1
78	79	1
73	115	1
100	103	1
128	138	3
37	71	1
72	116	3
30	30	1
29	29	1
74	74	2
98	129	1
26	26	1
32	74	1
118	120	1
123	126	1
1	1	1
135	139	1
74	128	1
93	93	1
99	99	1
79	89	1
95	126	1
113	116	1
21	75	1
85	90	1
120	137	1
108	115	1
5	21	1
