36	36	5
149	149	7
11	12	3
23	75	3
119	132	2
23	23	4
34	34	3
119	135	2
78	78	8
39	57	1
136	139	5
36	55	3
123	123	2
96	96	2
47	47	4
86	87	1
98	98	3
73	99	3
107	108	5
41	41	9
29	29	3
9	16	5
42	43	2
17	30	3
29	30	3
108	114	1
145	145	6
57	57	1
22	22	5
67	68	2
150	150	4
24	24	9
62	63	6
39	39	8
123	129	4
139	144	1
144	146	1
49	56	2
11	11	2
67	67	3
8	35	1
9	9	1
81	83	1
48	48	3
71	71	5
56	77	1
33	33	3
136	136	7
12	12	4
10	10	1
134	134	2
48	50	2
25	38	6
122	140	1
126	127	4
26	34	1
22	23	1
147	147	3
3	53	3
96	97	5
55	55	2
27	99	2
76	96	2
32	32	5
10	11	1
150	154	2
84	98	5
153	153	2
94	94	4
154	154	4
65	86	1
71	86	1
109	109	7
51	51	2
37	37	1
83	84	1
25	25	6
130	130	5
44	66	1
7	8	2
95	96	1
40	40	5
86	116	1
8	9	1
56	57	2
20	21	1
105	105	2
124	124	1
14	14	2
54	55	3
108	109	3
35	35	2
80	139	1
49	75	1
146	147	2
14	15	3
99	100	2
119	120	2
152	152	4
128	129	1
77	78	1
5	5	5
44	45	2
106	106	1
40	152	1
11	30	2
68	76	3
107	107	1
131	131	6
86	117	6
78	79	9
125	125	1
27	27	4
66	66	2
6	6	6
28	28	1
95	95	1
31	32	1
135	135	2
132	132	2
27	28	3
8	8	1
130	132	2
54	54	2
84	86	6
129	134	1
112	112	1
45	45	1
47	73	3
119	131	1
16	16	3
73	75	2
123	127	3
115	115	2
80	80	2
89	90	1
21	21	1
151	151	1
142	143	2
53	54	1
31	31	3
53	53	2
126	126	3
42	64	3
46	46	2
52	52	2
15	16	2
26	27	2
70	70	2
19	32	2
110	110	1
122	141	2
45	46	3
11	29	3
79	79	3
77	79	1
13	13	10
153	154	3
70	95	2
36	37	4
116	117	1
128	128	1
138	138	1
114	114	1
143	144	1
100	101	3
66	67	3
77	77	4
23	54	2
140	140	2
67	88	1
86	86	2
103	103	1
64	87	1
44	44	2
56	56	1
82	82	1
80	86	2
116	116	4
100	100	3
27	75	1
148	149	2
107	111	1
30	30	1
88	105	1
129	129	1
65	67	3
65	79	1
8	19	1
69	69	2
63	63	1
64	82	2
129	148	4
46	47	1
6	19	1
73	83	1
48	57	2
105	106	1
102	102	2
37	38	1
134	135	1
8	10	4
75	75	1
18	30	1
113	113	1
9	18	1
49	50	1
76	77	1
50	50	1
120	120	1
37	51	1
106	107	3
141	143	2
17	18	1
76	76	1
64	64	2
42	49	1
132	136	1
133	136	1
68	79	2
49	57	1
40	41	1
31	78	1
133	134	1
111	111	2
144	145	1
80	83	1
6	8	1
52	53	1
109	110	1
122	123	1
85	85	1
108	108	1
16	35	1
57	82	1
42	42	1
26	26	1
93	93	1
28	29	1
137	137	1
17	39	1
84	84	1
25	28	1
83	139	1
133	133	1
93	106	1
121	121	1
47	53	1
42	150	1
