113	113	9
81	81	9
40	40	7
115	115	4
43	46	3
66	67	11
7	11	3
61	61	7
129	129	10
10	10	6
105	105	12
25	27	3
25	25	2
23	24	4
39	41	5
13	13	5
38	38	5
19	21	3
108	108	10
28	29	4
74	74	3
91	91	2
62	66	3
103	103	6
76	76	15
11	12	4
111	132	3
48	48	12
57	57	9
5	6	2
67	67	10
29	30	10
62	62	9
42	42	17
118	119	6
5	5	10
92	96	4
0	131	5
53	53	9
124	124	10
119	119	6
24	24	4
32	32	10
16	16	5
99	99	7
2	2	7
48	56	2
83	83	19
55	55	4
1	7	2
46	47	17
127	127	4
104	104	10
100	100	6
0	113	1
117	117	13
1	1	5
88	89	6
4	5	7
126	126	6
50	50	15
18	23	1
46	46	10
107	107	10
6	6	10
31	32	7
105	106	1
110	110	7
98	100	3
21	21	7
22	96	4
119	130	5
51	51	12
48	54	7
17	117	3
44	44	20
29	29	8
4	4	4
102	121	3
118	118	7
122	122	3
65	123	2
70	70	4
9	11	2
115	116	3
127	128	4
3	3	5
42	61	2
80	81	2
78	78	8
64	67	2
74	107	5
53	54	3
72	77	6
18	18	8
17	18	3
26	26	13
70	71	6
115	118	2
115	127	2
0	13	1
116	117	1
82	82	9
78	81	1
96	96	3
72	74	6
41	41	13
121	121	12
66	66	5
10	88	1
0	0	4
24	29	6
120	132	2
11	11	2
90	90	1
40	53	6
92	93	4
13	15	2
86	87	3
60	69	1
101	103	2
118	128	5
19	33	1
85	85	3
87	89	6
47	47	8
109	109	2
69	69	7
9	9	6
12	12	12
13	14	2
9	20	2
120	120	4
101	101	8
116	116	15
16	17	3
68	68	5
22	22	3
13	122	5
53	90	1
74	100	3
112	112	3
102	102	4
4	101	1
84	86	4
64	64	8
87	87	7
2	8	3
64	75	1
125	127	2
42	53	3
116	129	2
106	106	3
60	61	4
49	50	1
50	51	9
37	54	1
63	79	2
1	17	8
123	123	8
31	31	5
98	98	4
71	71	2
8	8	4
99	125	1
115	129	2
93	93	3
89	90	3
49	49	11
92	92	7
33	38	1
84	84	4
22	24	1
82	87	4
25	26	2
126	127	7
100	118	2
104	122	1
91	92	5
90	91	2
103	123	2
79	79	4
102	107	3
84	85	6
17	17	4
58	60	1
102	120	10
125	126	2
86	86	5
101	116	1
44	103	3
52	52	5
118	126	2
28	28	11
115	128	3
65	65	6
86	124	1
89	89	3
75	75	1
54	61	3
110	112	4
24	30	2
17	116	5
72	73	1
97	98	1
10	46	3
77	77	7
88	88	1
83	84	5
133	133	1
20	71	2
7	101	1
64	76	2
15	15	3
69	70	1
10	11	2
113	131	6
122	124	2
3	131	1
95	95	6
41	115	1
23	23	2
61	74	1
54	57	1
125	125	10
54	54	2
116	130	2
33	33	7
7	7	4
97	99	1
130	130	4
45	45	5
50	80	1
5	118	2
38	39	4
7	8	2
8	9	2
43	114	7
41	128	2
58	59	2
76	86	2
59	59	3
95	122	2
113	114	1
59	60	2
10	97	1
85	87	2
78	86	2
67	68	2
11	117	3
27	29	5
131	131	2
63	63	8
43	43	4
10	44	2
0	1	4
80	80	3
114	114	1
101	102	3
2	5	3
109	112	1
110	133	2
66	77	2
2	3	1
44	45	3
14	15	1
96	97	5
3	101	4
58	61	2
39	39	5
128	128	2
56	56	6
58	69	3
60	60	5
54	105	3
17	19	1
19	120	2
5	128	1
73	73	3
24	27	3
132	133	2
2	9	2
130	131	1
111	114	2
61	62	1
83	86	2
108	109	1
40	54	2
46	51	2
115	119	2
115	131	2
87	88	1
110	117	1
20	119	1
27	27	3
3	100	1
115	126	3
79	80	2
55	77	1
84	99	2
19	19	1
108	115	1
72	72	1
107	108	1
99	126	3
14	18	2
120	127	1
15	16	2
72	81	1
64	70	2
10	47	2
100	101	3
117	126	1
103	104	4
11	16	1
52	53	4
58	58	1
32	39	1
3	4	1
6	112	1
87	96	1
101	108	1
76	80	1
120	125	1
102	104	1
91	93	3
112	123	1
6	17	5
10	82	1
104	105	1
8	20	2
3	117	2
19	116	1
91	95	1
85	100	1
21	23	1
23	25	2
9	88	1
62	68	1
34	34	3
20	20	1
51	52	1
1	4	1
1	11	1
85	86	1
19	34	1
14	21	1
