18	19	3
2	4	4
36	36	19
10	10	23
101	132	1
64	64	4
173	173	4
45	46	8
37	37	15
143	143	6
2	3	8
53	53	2
7	7	8
155	156	5
16	18	5
125	125	4
44	44	17
174	175	1
165	165	3
13	13	30
151	163	1
11	22	3
123	123	9
126	126	5
43	45	1
153	153	6
139	150	1
35	35	16
39	39	11
80	96	3
106	106	7
17	18	6
18	18	29
15	15	19
127	129	5
22	66	2
55	132	1
40	40	19
51	62	3
32	33	3
38	38	14
164	165	2
19	19	10
26	42	4
56	59	1
35	41	1
135	140	1
142	143	2
17	17	11
150	169	5
72	73	7
5	6	5
160	161	1
27	27	6
35	37	3
12	12	10
23	23	12
9	10	6
34	36	3
161	161	3
115	174	6
27	28	2
65	65	8
32	32	8
103	107	3
26	30	1
26	27	6
41	42	12
42	44	3
28	28	20
109	147	5
94	94	2
29	29	12
56	58	3
59	60	3
21	21	13
156	157	4
30	37	1
9	9	11
21	22	1
43	43	12
99	99	3
16	17	1
20	20	5
114	114	3
22	67	1
176	176	8
131	131	2
11	11	12
42	43	2
95	96	3
30	30	23
91	94	2
155	171	1
162	163	1
12	18	3
23	24	3
126	128	1
26	26	9
1	2	2
15	16	4
37	38	6
11	44	6
71	71	5
33	33	14
41	41	12
16	16	11
11	38	3
25	42	2
22	22	17
107	167	3
173	174	5
88	88	2
152	152	4
6	21	3
14	34	1
3	16	1
0	1	3
117	117	11
25	25	9
110	144	2
112	163	5
54	54	6
132	132	3
162	180	4
3	45	4
148	148	4
100	101	1
8	11	3
6	6	8
20	21	8
34	35	4
109	109	5
84	84	4
25	26	7
128	128	3
113	115	1
4	19	1
21	66	3
145	145	4
72	72	4
8	8	12
59	102	1
81	82	1
151	153	3
58	60	2
20	23	1
78	78	4
23	35	3
10	36	1
2	5	1
156	158	1
118	159	2
12	38	4
24	28	1
115	116	1
85	85	2
1	1	3
116	116	4
25	27	1
125	136	2
166	166	1
31	31	14
81	81	6
9	11	1
23	26	2
81	96	3
4	4	8
52	76	2
134	134	7
31	34	1
25	28	1
63	148	1
91	91	5
126	153	4
26	28	8
4	35	4
116	156	2
109	114	1
80	80	1
35	43	1
10	11	2
165	166	1
13	42	1
179	179	6
143	144	1
99	100	1
106	107	2
96	98	3
76	76	2
14	33	1
23	28	3
31	33	5
123	137	6
12	13	7
8	44	1
24	26	8
172	172	8
172	173	1
163	167	4
178	178	5
139	139	4
138	138	4
3	36	3
5	15	1
39	42	1
45	45	6
23	45	4
9	25	4
31	91	5
36	37	2
54	130	3
66	66	11
83	83	3
30	31	8
36	41	4
27	40	1
0	0	22
98	99	2
57	58	3
168	168	2
20	86	4
38	41	1
134	161	1
11	12	11
31	32	4
38	39	5
116	117	1
42	42	4
130	130	3
108	148	5
14	14	3
27	44	1
147	148	1
96	96	1
1	6	1
28	32	2
3	3	3
51	64	3
103	103	3
24	25	8
27	29	3
80	88	1
11	14	2
179	180	4
14	38	4
34	34	3
29	30	4
157	157	7
74	78	1
136	139	3
29	31	2
10	40	4
161	171	2
6	7	5
20	35	3
175	176	2
127	127	5
162	168	1
141	141	3
59	59	3
5	14	1
33	34	7
10	14	3
89	89	2
57	103	2
112	168	2
136	136	6
27	30	1
122	122	4
142	142	1
19	127	3
133	138	1
74	74	3
7	8	3
145	146	2
2	2	13
19	21	1
5	7	1
5	45	7
82	85	2
18	91	4
98	98	2
163	163	2
24	32	1
4	25	1
141	143	2
136	140	1
170	170	5
5	18	1
100	100	2
57	57	1
79	79	2
159	160	1
136	137	4
4	36	1
120	120	5
63	63	2
164	168	1
157	158	2
55	55	4
24	24	6
152	153	3
177	178	4
14	42	1
168	169	3
101	102	1
35	75	1
13	35	2
121	160	2
22	33	1
107	107	1
15	22	2
16	42	3
35	44	4
52	52	5
76	79	4
124	142	2
134	135	8
22	23	3
134	173	2
104	113	2
14	15	2
40	43	1
133	145	1
175	179	1
37	40	1
87	87	1
128	129	1
90	90	1
150	150	5
18	38	1
28	84	2
106	167	1
158	159	4
155	175	1
151	151	4
109	131	3
65	66	2
140	140	2
133	133	2
1	18	1
167	167	3
44	45	1
52	90	2
23	33	1
113	114	1
22	37	5
92	93	2
4	5	2
15	23	2
22	34	1
129	129	4
60	61	3
5	5	9
18	37	3
102	103	2
58	59	3
103	104	1
115	120	1
51	51	1
13	15	1
3	4	7
10	22	1
119	160	1
25	38	1
58	58	2
94	98	3
164	164	2
19	82	1
18	20	2
137	137	2
168	172	1
8	15	1
15	33	1
1	34	1
159	168	2
39	40	3
29	92	1
116	152	5
43	44	1
113	113	2
174	174	2
164	169	3
28	35	2
149	149	2
119	119	1
70	70	2
7	9	2
55	96	1
160	160	2
95	108	1
177	177	1
104	104	1
118	118	1
159	161	1
3	26	1
15	17	3
156	156	1
23	29	2
144	144	2
87	89	1
154	154	1
80	89	1
180	180	2
140	150	5
146	150	2
65	67	1
110	111	1
92	92	2
159	159	2
95	95	2
119	120	1
178	179	2
117	155	2
50	62	1
3	8	3
9	21	1
56	57	1
18	21	2
56	56	4
28	44	1
104	105	1
15	41	1
127	128	1
63	147	1
112	112	2
116	161	2
17	40	1
37	62	2
111	113	1
62	62	1
84	85	3
105	113	1
25	29	1
90	94	3
10	23	3
102	104	2
15	20	5
120	162	3
33	36	2
86	86	1
59	61	1
10	18	1
109	166	2
148	149	2
161	162	2
54	56	1
160	163	2
117	121	2
53	54	1
138	139	2
111	111	2
2	15	1
9	45	1
40	41	1
4	18	1
11	37	1
34	37	1
105	106	1
6	20	3
152	169	2
19	20	3
16	38	1
132	133	3
67	67	1
9	131	1
2	6	1
114	153	1
5	31	1
75	75	2
36	38	1
11	34	1
110	116	2
14	44	1
126	127	1
158	158	1
11	39	1
169	173	1
94	105	2
4	9	2
6	9	1
55	79	1
30	32	1
15	25	1
41	44	1
15	40	1
28	29	1
28	94	1
124	124	1
32	78	1
113	166	1
14	16	1
61	63	1
6	42	1
20	22	1
11	13	1
68	68	1
20	36	1
11	20	1
50	51	1
1	5	1
