115	115	5
8	23	4
2	2	4
43	43	11
94	94	4
13	21	2
137	137	8
154	154	16
152	152	9
16	16	7
85	85	4
105	105	15
34	34	13
157	157	1
38	53	1
112	113	5
165	165	3
68	68	4
90	90	6
53	53	7
163	164	4
125	126	2
93	93	4
6	64	4
109	109	8
25	25	9
23	23	14
77	77	4
84	85	4
83	84	5
4	11	1
54	54	9
48	49	9
97	97	1
151	152	6
66	83	1
117	120	2
128	128	4
116	121	2
50	110	7
91	91	2
82	82	6
36	36	6
158	158	8
147	147	8
71	72	3
88	88	10
38	39	5
123	124	1
12	13	1
148	148	5
139	151	2
116	116	8
6	6	8
17	17	11
110	130	1
11	12	8
142	145	3
146	147	1
18	97	1
114	114	9
19	20	4
21	21	12
93	94	3
27	27	12
8	8	10
111	125	4
69	69	4
125	125	9
17	19	4
5	15	2
33	34	5
37	44	3
146	146	3
72	72	2
76	76	4
34	35	3
123	123	6
40	40	8
80	80	16
126	137	2
5	6	8
41	113	1
100	100	11
141	143	1
38	52	3
7	7	8
99	100	5
7	8	4
45	45	6
39	51	3
48	48	5
98	99	2
131	131	3
62	62	7
37	38	5
35	35	15
19	19	11
87	88	2
119	119	7
33	33	4
95	95	8
2	3	5
164	164	7
10	11	5
143	143	7
8	13	3
118	118	5
134	134	2
91	93	4
156	156	10
132	132	5
128	129	2
44	45	2
112	112	10
70	107	5
69	107	1
96	96	4
99	99	4
145	146	3
85	86	1
12	12	7
170	170	3
40	41	1
154	155	3
166	166	7
20	23	3
46	46	8
41	41	5
71	71	9
111	111	4
54	55	4
20	22	1
10	10	2
10	12	1
34	141	2
133	135	3
3	5	6
145	145	13
18	19	4
22	22	5
143	144	3
140	140	4
51	51	6
0	1	2
156	157	1
129	133	5
86	86	7
17	18	4
55	55	7
98	98	13
57	72	1
81	82	3
69	70	4
139	139	5
142	142	5
39	40	2
15	15	5
49	49	4
44	44	5
24	41	1
20	24	4
39	39	8
160	160	6
142	143	4
6	12	2
90	91	3
3	3	8
52	52	8
86	91	1
108	109	5
73	73	3
92	92	4
118	146	2
123	150	2
88	89	7
89	89	7
24	40	2
46	47	2
14	14	4
73	76	2
150	150	2
3	4	7
87	87	9
161	161	2
76	78	4
52	57	1
149	149	8
73	74	2
35	54	3
113	114	4
62	72	2
0	0	5
144	144	7
169	169	2
21	22	3
135	135	4
11	11	5
122	122	4
122	151	1
129	129	4
94	95	5
140	141	1
147	148	2
45	47	2
20	20	12
50	50	2
51	52	3
127	127	6
138	138	4
26	26	3
74	75	5
9	9	3
136	138	1
18	18	5
24	25	3
65	66	4
41	42	2
106	106	9
101	101	1
54	112	1
67	116	1
47	48	3
90	99	2
112	114	4
126	127	2
24	24	8
121	121	3
159	160	5
141	141	3
114	115	7
151	151	1
127	128	2
167	167	4
130	131	3
106	107	6
149	150	6
56	56	5
5	5	4
70	70	2
56	110	2
70	71	2
122	123	6
85	92	1
130	130	4
160	161	1
64	123	3
72	73	1
64	64	3
49	117	1
124	124	3
57	131	3
75	101	1
103	105	1
129	130	4
4	4	2
89	100	1
38	38	3
131	133	1
169	170	2
8	20	1
57	57	1
121	122	2
85	99	1
44	46	2
25	28	1
25	41	1
153	153	4
26	41	1
113	113	4
136	136	5
23	40	2
37	57	1
74	74	4
117	118	1
107	108	3
36	44	3
80	81	2
17	23	2
104	104	1
137	140	1
80	82	3
25	27	1
68	119	1
61	72	1
13	13	6
37	37	4
117	117	1
16	25	1
14	21	3
37	42	1
53	112	1
47	47	2
110	110	3
81	83	1
10	46	1
82	83	2
162	162	1
6	10	1
1	2	1
4	5	3
36	37	1
14	15	2
42	42	3
77	78	1
139	140	1
163	165	1
85	91	2
61	62	1
64	124	2
26	129	1
148	153	1
79	81	2
67	68	1
99	104	1
8	25	1
120	120	2
104	107	1
42	43	2
51	58	1
71	77	1
5	20	1
126	126	1
157	158	3
68	69	1
10	33	1
166	167	1
138	139	1
83	83	3
64	70	1
42	48	1
109	110	2
84	84	2
8	9	1
108	108	1
89	90	1
159	159	1
35	56	1
110	111	1
142	151	1
112	115	1
74	103	1
148	149	1
119	120	2
78	78	1
89	91	1
25	26	1
111	129	1
113	116	1
1	108	1
8	15	1
118	120	1
105	106	1
99	102	1
111	117	1
86	87	1
131	132	1
163	163	1
63	63	1
13	14	1
141	142	1
148	150	1
119	151	1
149	151	1
78	79	1
133	133	1
7	12	1
134	136	1
