56	56	22
2	2	9
42	44	2
55	55	9
42	43	6
58	58	28
44	45	21
38	38	25
53	54	13
31	60	3
38	39	3
42	42	17
53	53	12
49	49	17
48	49	12
6	6	8
41	54	4
3	42	1
50	50	18
51	52	8
44	44	14
5	5	18
18	19	2
25	25	12
41	58	2
30	30	17
61	61	18
12	12	6
8	8	4
31	31	13
7	11	1
46	46	11
7	7	14
4	4	4
15	43	4
36	36	24
40	40	10
9	24	3
39	40	5
10	11	2
32	48	4
11	12	5
52	53	1
48	48	13
11	11	7
34	34	14
57	57	17
35	35	16
20	21	3
46	48	3
54	54	22
45	45	11
6	7	6
37	49	2
43	43	12
33	33	31
29	29	8
29	59	2
3	3	7
32	32	16
1	1	12
36	37	1
17	17	9
57	58	3
51	51	31
47	48	4
41	42	4
9	10	9
37	39	5
42	46	3
46	58	1
42	47	1
9	9	23
54	58	2
20	33	2
21	21	4
56	58	3
54	55	2
56	60	2
37	37	28
21	41	1
47	47	17
2	3	6
30	37	1
12	52	1
43	44	2
61	62	5
37	59	2
40	41	10
60	60	8
15	15	4
40	53	3
39	39	14
39	53	4
59	59	10
55	56	2
49	50	3
19	34	1
34	35	6
0	0	3
38	41	6
19	54	4
31	34	4
46	49	7
37	43	2
40	42	7
22	22	5
33	34	3
62	62	12
56	57	3
6	30	1
52	52	7
14	14	4
19	51	1
38	40	1
41	41	6
46	47	4
4	43	1
44	49	3
55	57	5
34	36	2
39	46	5
16	51	2
32	34	1
25	30	1
1	4	1
5	6	2
15	53	1
19	52	2
39	59	2
58	59	6
10	10	5
20	51	4
57	59	1
37	60	2
13	13	4
35	36	8
32	33	3
13	14	3
14	16	3
21	30	2
50	52	8
40	57	2
31	32	3
41	43	4
17	21	1
24	24	5
4	6	1
36	39	4
45	47	4
23	23	5
14	50	1
22	24	3
37	40	1
18	18	4
12	55	1
37	44	1
55	58	3
19	25	1
13	15	2
24	25	4
30	31	2
45	46	4
38	55	2
5	30	4
19	19	1
21	38	3
15	23	3
22	25	3
30	60	1
9	12	1
36	40	3
2	4	2
40	54	2
3	47	1
49	51	1
17	19	1
16	16	2
39	42	1
20	30	1
3	4	1
14	37	3
47	50	1
37	45	2
13	54	1
19	20	3
5	10	1
14	17	3
51	53	1
20	20	2
40	59	1
31	37	1
15	16	2
35	38	1
0	31	1
7	10	2
22	23	1
49	52	1
37	46	1
30	34	1
45	55	1
42	57	1
37	42	2
44	60	1
49	55	1
50	54	1
38	58	1
30	62	1
3	5	1
12	43	1
38	45	1
11	23	1
18	23	1
