43	43	54
163	163	28
97	98	15
11	12	39
26	26	110
23	23	92
11	13	7
27	27	72
6	14	1
61	61	33
6	7	15
24	24	82
163	165	3
11	11	60
62	63	15
117	117	25
24	26	2
75	77	9
103	103	24
76	77	17
2	13	3
167	167	46
134	168	3
39	39	25
41	41	47
37	37	38
59	59	39
146	146	28
143	143	24
7	7	58
84	85	4
124	124	36
77	78	18
3	3	29
131	133	9
145	145	33
66	66	27
2	2	58
8	9	42
84	84	18
103	104	26
16	18	21
168	168	33
28	29	27
26	29	5
157	157	31
37	41	9
117	119	1
43	44	28
32	33	22
17	17	42
55	55	28
18	18	54
118	120	8
174	174	23
42	42	51
135	135	38
67	67	63
113	114	8
174	175	22
96	96	48
34	34	39
130	130	15
147	147	40
2	17	7
2	3	22
169	170	13
57	57	25
98	107	2
1	8	4
9	11	8
100	100	29
141	141	32
65	66	13
37	38	47
12	12	35
6	6	68
26	27	29
121	122	19
158	160	12
160	162	7
25	25	66
13	13	111
2	8	11
21	67	3
62	62	36
112	112	44
159	159	50
15	15	59
25	36	7
33	33	47
98	101	4
132	133	8
8	8	52
171	171	28
89	89	28
15	18	2
64	64	47
134	135	13
1	2	26
58	58	26
124	148	19
41	43	9
21	21	46
50	50	28
158	159	12
2	4	10
132	132	18
86	86	29
19	19	29
18	20	7
107	107	19
4	4	33
30	31	40
28	28	55
178	178	39
119	120	10
93	94	8
2	9	2
157	165	1
156	156	29
95	95	39
138	138	30
80	81	20
29	29	60
152	152	20
123	123	42
20	21	2
22	22	52
41	42	33
35	35	43
11	17	2
68	68	21
6	19	2
129	129	26
126	127	12
126	126	43
78	78	34
99	100	20
160	160	19
176	176	30
166	166	25
162	162	38
16	16	56
14	14	58
149	164	3
133	133	47
77	77	50
60	61	32
30	30	59
142	142	35
33	34	15
23	24	11
4	6	8
62	106	7
45	45	60
111	111	20
142	145	17
101	101	21
88	88	39
73	74	12
147	167	16
150	150	27
23	27	5
22	24	7
15	35	6
87	87	39
72	72	36
67	74	8
134	134	39
4	20	6
5	17	4
165	165	16
7	8	11
9	9	63
32	32	48
139	139	33
118	118	32
125	125	42
5	45	3
170	170	25
127	130	11
7	21	2
128	128	36
179	179	23
92	94	6
144	162	2
100	101	12
154	154	18
14	54	1
177	177	23
158	158	30
15	16	21
20	20	49
86	128	7
155	156	10
52	53	24
44	44	61
34	54	3
108	130	5
77	91	1
105	106	11
1	44	2
12	30	2
54	54	26
109	109	23
11	31	5
155	165	3
150	151	2
13	15	13
22	23	31
4	5	20
65	68	1
98	98	31
132	167	1
161	162	23
74	74	23
173	173	40
53	53	22
31	31	58
24	32	5
85	85	33
16	17	24
5	6	27
136	136	29
114	115	6
137	138	13
175	175	25
155	155	25
73	73	52
38	40	10
102	102	40
5	5	50
160	161	11
52	52	38
153	153	36
0	0	28
120	120	26
33	57	5
149	149	26
180	180	16
106	107	11
24	25	34
112	132	4
26	41	2
39	40	22
93	93	35
123	124	10
0	31	2
75	75	44
175	176	16
89	90	8
149	150	9
127	127	25
78	91	5
102	103	12
6	9	10
14	18	5
172	174	1
143	145	10
122	123	6
76	76	29
27	28	28
61	106	4
0	1	6
17	36	9
97	97	39
88	89	8
172	172	28
179	180	6
122	122	34
13	14	7
57	61	11
104	104	16
10	16	1
109	127	3
49	49	14
142	143	13
104	105	15
7	9	18
10	10	57
91	95	3
110	110	36
164	164	23
91	91	29
107	109	8
90	91	9
159	160	8
90	90	43
149	172	6
38	38	58
40	41	14
79	79	20
127	139	4
3	7	4
72	77	6
177	178	8
28	31	5
23	25	6
135	154	2
32	37	4
70	71	8
165	166	13
127	164	2
89	158	1
36	36	81
148	148	67
114	114	29
37	55	5
19	21	10
124	159	4
2	6	7
50	52	7
10	12	3
164	165	11
132	134	4
28	30	3
55	56	32
81	81	20
71	71	23
22	31	1
33	35	4
34	35	11
148	173	1
88	115	8
10	42	6
22	26	6
101	102	12
8	43	5
89	151	11
31	32	2
10	17	7
141	143	3
75	76	10
79	80	14
17	35	4
113	113	24
169	169	16
58	59	13
1	43	2
131	132	12
12	20	2
5	13	2
27	29	4
43	45	11
38	39	12
54	55	12
12	13	27
8	44	2
127	131	3
14	32	2
151	167	4
52	59	4
20	35	3
140	140	27
105	129	3
24	162	2
87	126	6
80	83	5
61	63	6
44	45	12
109	131	9
63	63	29
40	40	23
1	1	30
88	144	2
95	96	18
106	108	2
22	30	4
21	22	13
64	65	9
83	83	20
118	178	2
17	38	3
146	169	2
82	161	3
60	60	20
2	101	3
111	129	2
173	174	10
14	36	2
127	128	17
151	151	25
50	57	1
72	73	15
137	137	31
14	41	7
67	70	2
75	180	2
19	20	9
121	121	39
65	101	1
106	120	2
13	33	10
66	68	5
109	111	2
106	110	1
128	132	3
66	67	18
82	85	2
120	139	1
25	26	21
156	167	1
133	134	17
81	82	18
45	142	6
25	27	5
31	33	5
38	53	2
106	106	27
119	119	39
52	77	1
62	104	2
25	29	3
7	11	3
105	105	15
152	153	12
74	75	12
150	165	3
94	94	10
116	116	19
79	81	4
134	167	2
108	108	32
51	52	14
115	116	7
15	31	1
117	153	3
114	132	4
119	121	4
125	131	3
7	28	1
55	59	1
144	144	39
8	15	4
39	42	11
86	126	1
18	33	3
157	159	6
32	58	2
18	19	23
168	171	7
134	139	1
92	92	6
161	161	26
73	76	6
154	155	10
14	16	13
148	149	7
95	141	1
82	89	6
65	65	36
58	74	6
54	56	8
29	32	3
14	15	11
118	140	1
145	146	3
118	128	6
144	145	22
105	111	4
118	119	15
62	98	1
98	103	3
8	10	3
133	169	4
89	125	3
135	167	5
81	89	5
2	5	3
123	158	4
81	84	2
112	114	5
7	31	2
40	42	3
108	128	1
30	38	5
14	17	6
157	158	9
82	82	34
56	57	2
12	14	1
0	10	6
80	82	10
63	64	15
135	136	14
107	130	4
3	4	12
145	147	3
99	99	16
38	41	3
18	23	3
9	15	2
160	163	1
148	172	10
33	37	2
94	95	11
3	10	4
135	169	3
100	102	5
90	106	4
45	46	3
109	110	7
36	37	7
76	119	13
11	19	2
107	108	9
83	84	15
129	130	8
120	140	2
119	153	2
22	28	5
152	154	1
122	124	4
98	99	1
119	151	2
3	6	14
9	18	3
62	178	2
171	175	3
106	119	5
124	126	4
25	28	10
17	27	1
89	111	7
63	67	5
5	9	6
115	115	18
21	24	4
57	59	3
163	164	5
10	38	2
18	40	3
123	162	2
52	57	1
29	30	9
33	36	3
108	109	5
146	147	11
113	150	2
115	118	3
29	31	5
17	18	7
11	14	8
154	156	4
136	137	8
35	36	2
115	117	3
80	80	18
71	72	15
134	136	1
81	83	7
12	23	5
7	19	2
70	70	7
6	10	2
100	111	3
153	168	1
172	173	13
126	132	6
10	15	3
53	54	4
26	28	7
178	180	6
4	8	1
10	14	6
131	134	2
140	153	2
136	170	2
113	129	8
139	140	3
82	83	8
27	30	2
49	50	5
111	112	4
156	157	17
2	18	1
155	166	7
121	139	2
121	174	2
151	153	6
148	177	2
16	34	3
57	58	4
64	71	1
143	162	6
24	28	3
156	178	1
109	130	3
24	29	8
121	124	4
92	93	6
157	160	2
96	99	4
126	131	1
150	153	8
53	77	1
92	107	3
56	56	10
54	68	1
76	180	1
85	86	9
54	76	6
96	98	10
60	63	6
9	12	4
34	36	5
86	87	7
51	51	31
89	105	6
162	163	4
120	121	8
73	75	12
11	42	7
50	51	20
110	129	7
61	62	3
151	157	4
105	109	2
177	180	3
12	32	1
112	131	1
13	27	4
44	67	2
168	169	6
101	110	2
3	20	6
166	168	2
1	6	3
130	131	10
10	11	21
105	125	2
84	161	1
131	131	31
89	124	2
30	33	9
30	32	6
118	127	2
14	27	6
56	91	2
33	41	3
125	148	4
145	170	2
124	146	4
59	60	9
21	23	6
8	31	1
176	177	2
61	99	3
2	16	2
143	144	6
167	168	12
15	17	5
124	125	2
67	68	2
159	162	6
93	107	8
124	161	3
50	64	1
16	35	7
36	38	2
92	139	2
90	139	4
78	79	5
45	50	1
84	101	1
6	34	3
64	66	8
150	164	2
97	106	3
61	98	1
9	35	3
153	154	2
77	92	3
167	169	4
122	173	3
100	134	3
93	138	1
13	42	5
17	24	5
9	30	2
154	157	3
14	29	3
151	152	4
15	25	1
79	82	4
125	126	7
172	176	5
2	11	4
31	38	1
137	179	1
26	38	7
113	139	2
28	42	6
147	149	1
147	174	1
117	151	1
172	175	2
106	139	2
12	31	4
177	179	6
2	15	3
58	134	4
166	167	4
7	34	3
158	162	4
87	88	7
20	29	1
108	111	1
64	82	5
31	42	2
55	58	2
120	179	2
107	125	1
7	45	1
51	83	3
63	66	1
55	93	3
102	108	3
170	174	3
19	29	1
96	97	7
74	95	3
95	98	2
17	21	4
45	49	3
152	165	6
42	43	6
72	75	7
108	125	3
14	37	1
51	80	3
163	169	2
152	168	2
164	166	7
153	157	3
49	82	2
139	173	3
85	89	3
72	74	1
15	34	4
150	157	4
39	41	8
112	113	7
0	2	1
173	176	3
4	18	1
119	127	5
36	73	1
94	96	3
51	54	5
150	156	2
137	139	1
89	107	2
89	126	1
74	138	2
171	172	4
37	40	3
107	110	4
3	18	3
117	126	1
173	175	2
90	92	5
147	148	12
22	25	2
1	5	2
120	153	1
106	130	2
113	130	1
146	175	1
42	44	2
94	107	2
4	12	3
9	10	1
29	58	2
37	45	4
9	31	4
127	132	3
58	64	2
8	18	7
31	39	2
115	127	2
78	80	1
6	36	1
105	107	3
144	160	1
166	174	1
64	67	3
63	65	7
57	91	4
113	115	1
61	120	1
59	61	4
126	134	2
90	94	1
141	142	1
120	127	1
146	162	2
61	64	5
65	81	1
4	9	2
71	73	2
32	57	1
14	25	2
168	174	6
106	111	2
123	163	1
168	173	1
11	35	2
16	31	1
64	81	3
56	59	2
116	151	1
16	23	1
62	99	1
110	113	3
95	99	1
6	44	2
25	68	1
94	98	1
1	16	4
73	78	2
168	175	1
54	77	4
119	128	2
7	44	1
13	35	2
156	158	3
10	31	2
150	152	1
44	46	1
5	7	1
99	111	1
101	111	1
169	171	3
10	45	2
99	101	2
130	141	1
98	100	1
92	95	1
23	31	1
6	8	1
54	57	1
170	171	1
128	129	6
110	111	4
91	93	1
55	57	2
32	41	1
111	118	1
176	178	1
14	31	1
108	120	2
52	72	2
1	17	3
120	122	3
103	160	1
99	107	1
10	32	2
43	52	1
15	28	1
8	11	1
122	156	1
65	67	1
149	169	1
42	50	1
97	102	1
89	108	3
4	13	2
164	167	1
87	89	4
7	12	2
36	76	4
97	107	2
2	43	2
93	130	1
104	106	1
103	109	2
13	32	1
53	55	3
89	150	1
3	9	1
152	157	1
140	173	1
15	43	1
7	29	5
19	22	1
92	125	1
61	97	2
13	41	2
100	126	1
18	21	2
120	123	2
143	146	1
123	151	1
89	130	1
137	154	2
83	85	1
36	72	2
125	157	2
122	125	1
16	20	1
107	128	1
64	72	1
11	16	1
51	56	1
11	15	2
67	82	1
86	117	1
122	140	2
87	125	2
72	80	3
111	130	6
150	168	1
103	105	3
32	34	2
147	175	2
118	130	1
93	139	1
94	97	2
114	118	1
1	10	1
83	89	1
73	77	2
129	131	2
123	126	1
3	21	1
21	43	1
19	41	1
114	116	2
146	171	1
3	11	1
123	125	2
122	154	1
62	101	1
59	64	1
121	123	1
120	131	1
100	106	1
3	5	3
36	93	2
109	117	1
56	134	4
136	169	1
108	110	2
25	67	1
90	95	2
97	118	1
97	103	1
128	167	1
28	35	1
53	56	1
99	126	1
145	161	1
110	130	1
21	26	2
116	150	1
170	172	1
146	161	1
133	139	1
117	118	2
142	147	2
132	139	1
66	101	1
133	167	1
24	27	1
73	80	1
105	120	1
106	121	1
119	131	1
46	46	1
25	92	1
111	113	1
73	79	1
61	102	1
114	131	1
117	156	1
105	110	1
63	178	1
158	163	1
13	16	1
53	83	1
51	84	2
67	150	2
26	39	1
154	168	1
40	52	1
99	110	1
24	33	1
31	41	1
174	176	3
53	78	1
66	81	2
17	19	1
32	56	1
151	164	1
38	52	1
90	93	1
85	122	3
146	170	1
53	71	1
168	170	1
74	180	2
74	137	1
63	98	1
4	19	4
113	151	1
25	41	1
112	115	1
88	111	1
100	128	1
122	159	2
95	132	1
89	137	1
7	35	1
6	45	1
140	141	2
14	19	1
117	129	1
6	30	1
54	96	1
86	124	1
96	100	1
93	109	1
151	154	1
144	161	1
104	109	1
83	88	1
101	103	1
107	129	1
22	29	1
13	17	1
76	78	1
