162	162	3
55	55	7
190	192	5
191	191	6
190	190	12
194	195	9
101	101	8
188	188	11
52	52	9
74	74	9
30	31	1
35	66	4
12	12	5
108	108	2
130	141	2
74	76	5
176	178	5
136	136	11
98	99	1
50	50	6
165	165	7
145	145	6
21	21	11
147	152	3
127	127	8
72	72	2
114	114	7
36	36	3
180	181	5
22	22	11
155	192	2
47	48	3
12	13	1
9	9	3
16	51	3
5	6	1
94	94	7
103	156	4
6	7	3
38	43	4
58	58	4
109	109	10
57	66	3
173	178	4
118	118	3
132	133	12
149	149	5
99	99	8
195	195	6
44	44	7
186	188	3
102	103	7
70	70	1
23	52	2
160	161	4
49	49	12
40	40	14
82	82	3
69	69	2
35	63	2
79	80	1
153	153	8
129	129	3
151	151	7
1	1	1
119	121	3
130	130	9
100	120	2
22	62	3
117	117	7
52	53	5
192	192	5
168	170	2
166	168	2
2	3	4
170	170	13
120	151	3
59	60	1
9	12	3
115	116	3
105	111	3
144	175	2
6	19	3
35	60	2
120	121	6
41	76	1
180	180	4
13	13	2
48	48	5
2	58	2
21	22	1
105	107	2
58	59	4
186	186	6
121	124	1
82	85	1
41	41	11
64	65	3
4	25	1
35	35	5
95	95	4
164	165	3
176	176	7
146	148	2
141	143	1
182	184	5
129	157	1
104	107	4
138	138	3
13	109	1
109	112	6
57	57	1
131	131	7
76	76	4
71	71	2
189	189	8
161	162	5
38	54	3
16	70	3
11	11	6
119	142	2
133	133	3
97	113	1
49	69	1
89	89	2
54	56	4
12	51	3
96	120	1
20	20	6
113	117	1
175	175	6
134	135	7
137	138	2
103	104	4
19	19	2
112	113	2
185	186	3
192	193	8
81	83	1
163	191	3
155	156	2
144	144	3
113	116	2
149	150	3
19	20	3
40	68	4
166	166	1
176	177	1
159	160	6
137	169	4
15	15	2
147	147	5
31	31	10
129	130	2
85	85	4
53	53	5
78	81	2
135	140	2
112	126	2
39	40	3
9	25	3
147	189	1
9	22	2
139	139	6
183	186	1
142	143	1
127	182	1
163	163	9
10	53	4
17	17	7
137	137	3
10	10	3
27	37	3
30	36	3
39	43	2
168	168	5
169	170	3
33	36	1
115	156	1
196	196	4
193	193	7
80	80	4
45	45	1
178	179	3
132	142	2
98	98	2
178	178	11
156	158	1
179	179	5
167	167	6
156	156	3
59	59	2
103	103	4
179	181	2
106	106	2
140	140	8
17	18	2
148	184	2
161	163	2
93	93	1
148	148	5
185	185	4
7	8	7
16	42	1
24	51	3
109	110	2
18	55	2
1	2	1
104	104	4
133	141	2
16	37	2
33	33	3
15	45	5
5	7	2
42	43	5
148	194	1
64	66	1
7	62	1
158	159	2
188	190	2
100	150	1
177	177	6
117	118	6
3	3	1
14	14	2
99	150	3
63	67	7
154	155	2
70	76	3
4	4	3
106	107	2
28	66	1
37	38	4
37	73	3
42	45	2
38	39	2
26	26	2
46	47	1
120	167	4
113	151	4
88	88	2
170	172	3
32	32	4
152	153	6
54	55	1
108	110	2
181	181	3
8	17	5
155	162	3
77	77	1
132	135	2
173	173	3
183	183	5
131	133	4
11	12	1
1	22	2
76	78	1
139	140	2
21	41	1
13	38	1
24	64	2
119	119	3
32	56	1
148	149	2
102	102	1
19	22	2
135	135	1
29	36	2
97	150	1
27	27	3
84	84	5
177	182	2
143	186	1
20	65	3
110	110	1
121	121	6
24	24	2
100	101	3
45	46	1
107	107	6
29	30	2
15	113	2
119	120	1
39	39	4
172	179	1
10	11	2
143	145	1
28	28	2
179	180	3
122	124	1
19	21	2
154	154	5
29	29	1
96	96	2
141	141	4
3	34	2
31	52	1
128	129	3
113	113	2
37	37	1
3	4	1
161	161	2
82	83	2
3	65	1
127	128	2
11	51	3
79	79	2
118	153	1
37	68	1
181	182	3
120	122	2
116	116	2
2	20	2
122	122	4
146	147	3
134	134	1
4	10	1
155	155	3
17	24	1
138	146	1
57	58	2
15	23	2
3	22	1
163	164	4
144	188	1
104	163	2
189	190	1
147	180	2
150	179	1
171	171	7
187	187	1
150	150	2
21	64	2
0	2	1
196	197	1
67	68	3
105	105	2
78	78	1
157	157	1
174	175	1
28	34	1
177	181	1
0	9	1
156	159	1
53	56	1
162	163	1
36	37	3
116	117	2
2	61	1
34	34	2
24	25	3
156	184	2
10	25	2
73	75	1
56	57	1
77	78	2
169	169	2
37	55	1
0	0	5
182	182	2
155	184	1
14	194	1
9	51	1
1	21	1
2	2	4
11	59	2
120	150	1
36	66	1
126	126	1
132	132	3
143	143	1
142	142	1
66	66	1
83	83	1
160	160	1
86	86	1
30	49	1
187	188	3
17	19	2
183	191	2
99	172	1
121	122	1
9	10	2
184	184	1
130	157	1
134	136	1
112	112	1
38	38	3
68	68	1
84	85	1
159	172	1
152	152	2
43	43	2
154	158	2
116	134	1
3	19	2
167	168	2
67	67	1
67	72	2
59	61	2
7	7	1
165	167	1
31	54	1
184	185	1
114	117	1
164	180	1
114	150	2
30	30	1
13	54	2
9	46	1
4	55	1
124	134	2
78	84	1
43	44	1
111	112	1
104	106	1
57	70	1
31	32	1
16	60	1
119	152	1
172	172	2
123	123	1
40	41	1
123	143	1
135	139	2
55	67	1
18	19	1
168	169	1
47	47	1
2	4	1
146	146	1
96	97	1
