9	11	2
132	133	3
104	104	4
60	60	2
108	111	2
53	53	6
124	124	2
78	78	4
77	78	6
15	15	2
63	63	1
68	91	1
102	102	3
67	79	2
121	123	3
70	70	2
113	122	3
95	95	11
112	112	11
125	125	5
95	97	6
54	131	2
44	44	1
84	107	3
111	129	3
25	26	1
58	58	3
103	103	8
14	14	1
91	91	3
129	129	3
128	128	1
96	97	2
3	4	2
130	130	2
92	131	2
74	74	7
45	45	5
46	95	4
30	31	1
126	126	5
61	61	1
47	82	1
3	3	4
118	118	3
44	45	3
65	79	2
87	111	1
120	120	2
122	130	1
24	24	2
7	130	1
6	6	2
126	128	5
28	29	8
64	79	1
59	59	2
127	127	2
50	82	1
5	5	2
21	33	2
26	26	4
52	55	3
30	30	3
9	10	2
67	68	3
122	122	5
20	21	2
22	22	3
113	113	4
32	32	1
83	84	2
107	110	1
94	94	4
117	117	2
79	79	4
107	108	1
96	131	1
48	87	1
22	23	3
52	135	3
80	81	3
24	37	2
23	50	3
109	111	2
108	108	2
48	130	1
73	98	1
16	20	2
9	9	2
89	89	6
81	81	4
21	21	2
5	128	1
93	93	3
56	56	3
133	133	1
13	13	3
29	29	4
124	125	3
55	69	1
86	87	2
109	110	4
86	92	4
26	27	2
34	34	1
62	115	4
83	119	1
118	119	1
86	86	1
6	7	3
96	96	2
27	32	2
80	80	1
132	132	2
88	93	3
85	85	1
107	107	2
4	50	1
0	0	3
76	76	1
56	57	3
86	93	6
68	82	1
62	97	1
106	110	4
134	134	2
65	65	1
131	132	1
50	109	3
100	100	1
43	43	3
16	33	2
115	115	1
110	110	1
50	50	1
92	123	2
109	109	1
82	82	2
2	2	1
123	123	1
57	58	1
111	112	1
90	91	1
84	84	3
64	64	1
42	43	3
44	55	1
99	99	3
52	52	1
66	133	1
62	64	1
55	130	1
91	106	1
71	71	3
87	117	1
52	53	1
43	90	1
125	128	1
85	86	6
119	119	3
92	92	1
97	97	6
7	8	1
74	75	1
121	121	4
66	66	1
82	84	1
27	27	1
23	49	2
83	83	1
1	1	1
108	121	1
67	78	2
10	10	1
19	19	1
11	11	2
62	62	2
49	49	1
27	28	1
130	131	1
92	106	2
84	96	1
83	132	1
114	114	1
84	86	1
48	53	1
61	88	1
37	37	2
82	86	1
0	68	1
77	77	1
98	98	1
