132	132	13
85	86	4
6	14	3
109	119	5
96	97	6
105	105	5
12	16	1
112	112	3
92	92	11
133	134	3
27	27	14
47	48	8
118	118	11
26	26	12
3	62	2
70	70	9
4	4	10
17	17	11
30	31	2
94	97	6
9	10	6
90	96	2
121	122	7
99	99	21
114	127	1
18	19	1
13	14	1
14	14	1
74	74	17
82	82	9
65	65	15
25	25	10
38	38	3
96	96	9
112	113	7
15	16	6
120	120	4
11	11	4
106	106	5
101	101	8
117	118	1
3	3	17
6	16	3
10	10	12
95	101	1
45	45	8
83	83	8
49	49	4
19	20	18
78	79	2
32	32	15
5	5	7
92	133	3
127	129	1
42	42	3
59	60	1
66	66	3
122	122	4
100	100	14
130	130	4
26	27	7
113	114	5
7	7	23
45	64	4
58	59	6
111	124	3
116	117	4
0	0	3
11	12	7
104	104	7
111	114	3
4	15	4
75	75	17
46	46	21
35	74	3
36	36	10
67	67	8
119	122	1
47	47	9
79	79	14
12	12	7
62	62	5
4	14	2
50	50	3
4	5	11
20	85	5
85	85	15
16	16	14
25	26	1
102	102	4
22	25	5
86	86	11
73	73	14
11	56	2
97	97	8
27	32	4
68	69	8
114	115	3
91	99	2
108	108	7
9	9	10
48	48	7
84	88	4
101	102	4
70	72	5
28	96	4
107	107	6
120	121	4
29	47	1
35	76	1
125	125	7
90	90	6
91	91	7
34	34	6
90	132	3
103	103	3
72	72	16
61	61	8
90	94	3
93	93	4
37	84	3
44	44	11
16	29	2
39	39	6
13	13	10
57	57	4
78	78	3
63	63	10
60	60	10
33	34	3
44	45	2
93	94	2
58	58	7
35	35	4
129	130	3
21	24	2
83	84	2
111	113	3
36	45	1
121	121	6
87	88	4
26	93	6
73	74	5
111	111	4
38	40	2
110	110	6
5	91	5
11	93	3
127	127	8
95	95	9
45	75	1
116	116	5
6	6	7
128	129	6
108	110	1
95	96	1
54	56	2
127	128	2
115	117	3
36	37	1
95	100	3
25	62	4
33	74	2
81	81	7
15	74	1
8	11	1
24	27	1
89	90	1
119	121	2
100	101	7
46	47	2
124	124	8
21	29	2
91	131	2
123	123	8
64	64	13
25	85	2
1	1	6
29	29	3
30	30	2
31	31	6
108	109	2
16	17	8
79	81	1
110	111	3
126	127	2
76	76	10
93	101	4
114	114	8
56	56	20
20	26	3
8	8	11
117	117	8
109	111	2
13	17	1
119	120	1
28	80	3
124	125	2
94	94	7
25	29	2
87	87	5
20	45	2
84	86	1
77	78	1
41	41	1
115	115	4
18	31	2
103	106	3
74	113	4
84	85	2
35	36	8
15	15	6
65	66	1
91	92	1
18	73	1
77	77	16
38	39	7
57	58	2
26	30	2
6	7	4
18	18	6
81	84	6
59	59	4
89	89	3
131	132	4
102	104	2
25	94	2
21	38	4
129	129	6
45	84	1
23	23	9
15	17	1
43	43	3
43	44	5
90	97	4
133	133	2
25	64	1
69	70	1
80	80	4
131	133	1
55	55	8
98	98	2
109	113	2
68	68	7
11	51	2
33	48	1
28	33	1
19	19	5
4	91	2
41	93	1
34	61	2
64	65	1
33	33	2
84	84	5
35	93	3
25	31	3
123	125	1
130	131	8
29	49	5
18	32	3
79	92	1
12	13	1
128	128	3
131	131	2
81	82	5
115	124	6
99	100	4
25	93	2
66	83	1
71	71	1
51	55	2
42	43	6
3	4	1
27	35	1
102	130	1
33	62	2
24	82	1
47	61	1
3	10	2
35	67	2
90	91	2
92	97	3
5	6	2
101	106	1
92	93	2
111	120	5
28	28	2
37	37	3
20	89	1
12	61	1
82	83	4
126	126	2
40	93	1
76	77	1
88	94	1
33	35	1
9	45	4
28	91	1
79	133	2
8	9	1
91	95	1
27	79	1
6	59	2
69	69	5
30	32	6
25	82	2
81	90	1
113	125	2
79	80	2
112	117	3
113	113	1
76	78	2
17	18	1
94	102	4
104	105	1
37	39	1
5	7	3
27	28	1
19	23	1
41	42	2
24	24	1
25	27	2
11	48	2
21	22	1
115	116	1
78	92	2
10	17	1
42	44	2
27	48	3
106	107	1
20	21	3
37	44	1
62	73	2
26	29	1
28	29	5
95	99	1
86	87	2
22	26	1
3	9	1
128	130	1
126	132	2
88	89	1
4	7	1
28	79	1
118	119	1
126	130	1
22	22	2
27	91	1
11	92	2
7	65	1
37	40	4
77	79	1
62	63	1
103	104	1
62	100	1
8	10	1
111	112	1
32	42	2
16	30	2
21	49	2
40	40	2
98	100	2
95	98	1
45	94	1
122	123	1
37	85	1
80	81	1
33	63	1
55	56	2
46	62	1
13	90	1
94	95	1
20	20	1
78	133	1
102	128	1
16	31	1
40	42	1
11	14	2
48	61	1
108	119	1
62	72	1
21	84	1
