126	127	4
167	169	4
160	161	9
190	190	10
4	182	3
216	231	2
154	156	4
37	40	5
37	37	24
11	11	17
68	68	11
232	232	12
27	27	16
173	173	15
178	178	2
111	112	2
139	140	4
117	117	12
210	210	11
202	221	2
18	20	3
157	165	5
127	127	15
57	57	16
229	229	4
53	53	11
190	201	1
236	236	8
172	172	10
52	53	4
168	182	2
85	85	23
104	105	3
171	172	6
32	32	5
153	153	5
72	97	4
1	5	2
214	215	3
219	219	11
67	158	1
103	144	3
41	42	12
45	71	8
75	75	15
21	36	3
213	213	8
16	16	26
170	178	2
28	28	17
124	124	4
81	82	5
241	242	3
215	215	8
62	63	9
183	183	15
41	41	13
44	44	12
140	142	7
227	227	13
55	56	4
10	10	37
239	241	2
166	166	6
4	5	9
3	5	3
43	105	1
7	16	3
71	71	13
231	231	18
149	168	2
10	11	2
105	106	9
160	160	10
71	98	1
54	54	16
152	152	3
177	177	11
5	181	2
240	240	12
194	196	1
81	81	5
3	6	7
80	80	12
140	140	2
26	28	3
15	16	6
146	146	3
196	196	7
139	142	1
133	134	7
12	16	3
123	123	6
65	65	14
81	83	3
45	46	7
216	217	4
56	56	11
20	21	7
158	169	2
119	119	9
20	20	15
195	195	4
217	217	10
39	39	21
29	29	19
121	121	8
23	54	6
8	8	15
194	194	3
46	46	24
158	158	8
129	129	8
33	34	4
49	171	2
217	223	2
238	238	8
210	212	2
212	213	3
74	74	16
36	36	19
45	54	1
161	161	7
12	14	1
29	38	4
74	75	5
97	97	12
221	223	2
42	42	18
103	105	2
15	17	2
60	60	11
130	130	11
27	31	3
63	69	1
22	22	9
47	47	15
51	53	6
107	107	5
31	31	15
17	18	7
69	70	4
54	55	10
86	87	10
172	232	2
8	16	4
60	107	2
233	233	12
69	69	27
227	228	4
43	43	21
157	157	3
18	18	7
83	242	1
26	26	17
35	52	2
217	220	1
209	209	12
218	218	22
211	212	3
48	48	7
24	24	26
55	55	25
67	67	10
153	156	5
8	9	3
234	234	20
197	202	5
238	239	1
198	198	6
79	79	6
173	174	13
86	86	10
134	134	13
24	43	4
145	145	7
157	159	3
107	125	3
154	155	3
223	223	6
179	180	2
166	177	1
47	232	2
69	108	2
73	73	12
9	9	23
135	135	19
58	59	10
220	221	4
57	63	2
159	159	21
26	27	3
69	83	2
59	60	4
128	128	5
104	104	5
13	14	3
62	62	12
202	202	8
7	8	6
72	75	5
234	235	7
63	63	6
50	50	8
13	13	11
4	7	2
52	52	4
143	143	13
86	97	2
99	99	5
176	176	4
89	89	5
47	52	3
51	51	4
70	70	18
204	216	2
105	105	6
78	79	4
77	80	1
188	188	15
77	78	5
228	228	10
180	180	7
42	43	10
12	36	1
206	206	5
208	208	5
50	57	1
59	59	5
25	173	1
96	96	13
195	196	4
193	193	7
198	199	2
51	52	6
72	72	16
70	86	3
100	101	4
43	55	3
98	98	13
137	138	4
6	7	4
77	79	8
164	167	1
150	168	1
57	59	2
199	200	8
45	45	12
188	189	2
55	57	9
123	124	6
19	19	8
102	171	1
11	31	2
163	165	4
17	17	13
9	11	4
237	237	5
124	125	3
38	40	8
227	229	3
115	117	3
185	185	14
100	100	9
142	143	5
37	38	6
191	192	3
49	49	17
179	179	5
176	177	8
204	204	4
17	20	5
38	38	11
42	55	5
77	77	7
238	240	2
201	201	14
66	66	12
225	228	1
24	25	8
153	157	4
177	178	3
24	52	2
200	200	4
61	61	11
224	224	14
1	231	3
4	4	4
6	6	4
216	220	2
7	7	7
190	191	3
25	25	15
203	203	13
168	169	1
80	81	4
139	139	4
64	64	7
162	162	6
183	184	4
240	241	8
116	131	1
80	126	3
5	6	3
71	82	2
96	106	5
186	188	3
147	159	1
36	37	5
172	174	2
222	222	14
223	224	6
0	0	3
88	114	1
187	187	2
76	76	9
202	203	2
168	168	4
147	147	4
152	156	2
181	181	3
197	203	5
218	219	6
21	21	19
161	189	6
48	55	2
28	29	6
231	232	2
27	28	9
84	85	6
189	196	2
72	73	1
121	133	2
118	130	1
34	52	2
205	206	2
110	143	2
162	177	1
165	165	4
125	126	4
217	218	2
40	40	4
38	39	2
126	126	4
109	128	3
224	227	2
150	159	4
23	23	9
127	128	3
174	174	7
239	240	2
116	118	4
162	163	7
44	71	2
122	122	9
169	169	3
152	155	3
15	15	5
0	12	2
230	230	3
239	239	8
233	235	3
80	125	2
164	178	1
242	242	15
164	164	16
64	65	3
48	50	4
49	207	1
184	184	7
34	34	6
120	120	9
0	5	3
84	84	5
96	97	2
66	68	3
241	241	7
211	211	10
18	211	1
214	214	2
109	109	2
9	10	6
164	187	1
167	167	2
11	12	5
2	2	9
182	183	6
156	157	7
142	142	10
154	154	1
161	190	6
25	26	1
189	215	1
74	85	1
113	113	4
127	129	4
31	44	1
136	137	4
64	69	7
88	88	10
145	147	3
197	197	7
13	16	2
197	198	3
78	78	7
212	212	5
98	99	5
194	195	6
114	114	2
102	102	4
136	154	1
84	141	3
220	220	16
199	199	3
106	127	1
167	168	5
34	37	6
19	20	2
136	136	6
226	227	2
133	133	10
148	168	1
171	171	3
191	219	2
182	182	4
228	230	1
33	33	4
29	31	1
125	125	4
6	23	3
6	209	3
190	218	1
27	55	1
14	14	5
203	204	1
185	187	1
201	202	3
52	57	3
175	175	6
91	116	1
192	192	8
45	237	4
35	35	5
60	61	3
196	197	1
159	160	1
125	202	3
193	194	4
161	175	1
191	213	2
1	2	1
13	15	1
122	143	5
131	131	6
184	187	3
42	171	2
0	231	2
115	118	1
2	231	2
102	103	7
14	15	6
102	144	2
84	128	4
33	37	1
84	129	2
23	55	2
48	65	2
221	221	8
204	205	1
225	225	1
58	58	5
70	85	3
60	62	1
154	166	3
174	203	2
201	217	1
143	144	3
30	30	7
161	162	3
75	78	2
29	37	1
8	24	4
82	82	7
31	40	2
148	148	3
56	57	5
235	235	4
181	182	3
214	216	2
103	103	5
116	116	3
66	67	7
112	112	3
40	41	3
53	54	3
21	23	1
169	178	1
12	35	1
212	217	2
169	179	1
146	151	2
210	222	3
152	167	4
108	108	4
201	216	2
211	215	1
44	45	2
83	125	1
175	177	2
65	66	2
73	74	4
216	216	7
11	13	2
136	146	5
1	1	4
134	135	1
209	212	1
186	187	3
34	35	1
226	226	1
11	15	1
14	29	1
141	141	4
3	7	1
200	201	3
210	211	4
152	153	1
151	151	3
12	12	3
48	171	2
16	17	2
13	37	2
24	26	1
0	1	4
107	108	2
205	205	2
31	33	3
138	139	3
38	86	1
129	131	4
212	232	2
127	134	1
169	175	2
127	130	3
108	109	1
146	148	2
207	208	5
46	232	1
39	42	1
175	178	3
109	139	1
172	182	1
107	121	1
184	185	2
156	156	4
135	136	3
63	70	3
103	104	1
170	177	3
48	52	1
98	104	1
105	133	1
3	8	2
220	222	1
33	36	1
74	84	1
68	69	4
149	149	2
109	110	2
174	182	1
233	234	4
45	236	1
155	155	4
19	21	1
224	228	2
121	122	1
71	72	3
43	44	1
118	131	1
30	37	2
209	210	3
164	177	6
58	60	3
122	124	2
213	216	3
68	70	1
212	221	3
190	214	1
105	122	1
173	202	3
178	180	1
29	207	2
172	173	1
18	19	4
146	152	2
191	196	1
104	155	2
96	99	1
9	172	2
46	55	1
59	63	1
172	180	1
180	182	1
44	46	2
172	203	1
185	211	1
228	229	2
122	123	2
42	54	1
3	3	5
147	149	1
124	126	4
70	72	2
150	150	4
163	163	5
159	165	1
46	47	2
79	80	2
236	237	2
48	49	2
8	232	1
123	143	2
60	122	2
46	65	1
150	166	1
50	53	1
30	68	1
149	150	1
206	207	2
84	130	1
101	101	5
163	177	2
200	220	2
188	201	1
138	153	1
50	51	1
39	40	2
106	106	3
147	172	1
217	232	1
103	170	1
184	189	2
235	236	1
122	140	1
39	198	1
201	203	2
11	28	2
7	13	3
5	5	1
9	16	2
99	106	1
145	152	1
68	104	1
137	159	1
163	164	1
9	24	1
61	70	1
51	54	1
120	121	1
137	143	1
221	222	1
159	170	1
174	175	1
137	137	1
32	33	2
173	175	1
9	18	1
143	160	1
36	46	1
26	42	1
52	54	1
13	24	1
219	232	1
207	231	1
20	36	1
57	62	1
211	213	1
25	46	1
1	3	2
166	167	1
178	179	1
84	127	1
82	83	1
122	128	1
208	221	1
151	152	1
32	36	1
173	233	1
63	236	2
43	66	1
127	143	1
22	23	1
99	100	1
194	219	2
201	221	1
76	77	1
144	146	1
162	176	1
0	208	1
145	157	1
16	20	1
