78	81	8
91	95	4
114	114	13
15	16	3
19	19	14
96	96	8
63	67	5
117	126	2
101	101	19
7	7	14
47	87	2
97	97	13
86	86	21
30	30	12
89	90	7
32	32	12
93	99	1
116	125	2
85	88	1
69	69	10
127	128	4
4	4	14
74	74	9
118	118	13
111	111	14
104	105	5
27	27	10
117	131	2
129	131	1
70	70	10
26	27	3
44	44	15
62	62	11
45	47	5
61	63	5
59	60	11
53	53	17
49	50	6
10	10	12
64	64	19
52	53	7
90	90	16
89	92	5
24	25	1
109	109	24
24	24	11
13	13	7
56	64	1
72	75	7
43	43	16
122	122	16
105	105	12
31	31	14
39	39	5
71	71	14
61	85	2
50	50	24
109	110	7
74	77	2
90	91	14
48	48	24
125	126	1
65	65	8
129	130	8
62	104	2
10	11	6
80	81	2
114	117	1
100	113	2
53	54	3
99	100	4
126	128	10
113	124	7
78	78	10
77	77	13
97	118	10
131	131	19
46	46	11
67	68	18
21	34	2
22	23	4
0	0	6
33	33	13
91	91	6
125	125	14
45	46	6
83	85	3
9	9	5
108	108	13
47	48	8
116	116	9
55	55	21
61	61	13
14	14	19
72	112	1
76	76	14
123	123	18
60	60	13
101	107	1
88	89	9
127	127	10
66	67	1
34	34	8
103	104	10
82	82	8
47	47	20
58	58	9
76	100	1
77	78	2
81	84	5
68	68	10
2	12	14
120	120	11
126	126	8
59	59	26
66	66	5
56	56	14
100	100	14
12	12	11
27	39	3
28	32	5
124	125	3
102	102	20
124	124	12
32	34	2
114	125	5
86	88	2
42	55	1
54	56	1
89	89	16
20	20	7
121	121	15
57	57	15
18	18	5
105	108	1
3	3	19
88	92	2
75	81	2
21	21	17
51	51	18
0	1	13
104	104	11
42	42	15
128	129	10
99	99	8
101	108	2
129	129	3
1	10	2
29	29	4
49	49	12
97	119	1
4	11	1
18	19	1
45	55	1
84	87	2
96	97	4
121	122	7
41	41	10
101	102	6
68	74	6
94	96	3
113	122	2
96	98	4
19	20	5
17	17	9
11	12	10
23	24	5
28	28	11
116	118	2
92	92	3
1	1	16
73	73	11
115	115	12
44	45	7
8	8	14
88	88	13
49	70	3
85	85	5
5	5	18
46	47	12
59	62	6
83	84	14
51	52	10
15	15	5
16	16	9
80	80	13
45	45	12
113	115	3
3	5	6
22	22	17
103	103	7
54	54	15
100	108	1
52	52	14
25	27	3
93	104	2
56	71	3
113	125	1
55	66	1
120	128	2
44	55	1
108	113	4
38	38	11
41	61	1
27	28	2
98	99	11
87	88	2
40	45	11
79	79	12
78	79	6
60	61	5
82	84	1
4	21	2
28	29	2
68	72	1
2	3	1
70	71	5
62	66	3
95	95	11
63	63	13
81	81	9
125	127	2
38	59	3
1	32	1
41	58	5
40	40	15
84	84	11
104	108	5
130	131	1
70	72	3
103	108	7
72	77	8
56	57	1
116	117	5
114	124	5
75	75	12
43	60	4
42	43	7
40	57	2
132	132	11
18	21	8
11	11	11
98	98	15
110	111	10
25	25	5
83	83	3
82	83	2
6	6	24
39	40	7
84	85	9
79	81	2
111	121	3
87	87	1
23	65	1
107	107	7
25	33	5
117	125	4
91	92	9
75	78	4
95	96	4
126	129	4
67	67	8
13	14	4
94	95	11
114	115	3
119	119	13
125	131	3
45	86	4
113	113	11
51	53	1
105	121	3
6	8	2
21	22	9
72	72	15
96	99	2
57	65	2
105	116	3
106	106	11
55	56	1
39	56	2
62	63	6
126	133	1
93	93	17
27	49	1
81	90	1
110	110	18
82	85	1
3	14	2
69	76	2
102	103	2
128	128	11
63	64	4
31	32	2
83	89	1
29	31	1
5	6	4
23	23	14
58	59	6
92	93	1
119	129	3
2	2	11
25	26	7
94	94	5
65	66	3
25	43	3
43	61	3
17	18	4
62	102	2
102	109	2
40	66	1
91	111	1
63	102	1
117	117	7
53	88	3
130	130	6
114	128	2
52	110	4
43	45	1
4	5	1
14	15	2
33	34	1
40	65	2
125	128	1
60	85	2
14	16	4
2	4	1
9	10	6
26	26	4
62	67	2
8	9	3
96	130	3
71	72	2
101	104	1
18	31	1
118	119	4
118	129	1
17	21	1
31	33	3
40	55	3
5	7	4
112	124	2
54	64	1
55	65	4
42	44	2
40	43	3
41	42	4
112	112	8
74	75	6
50	110	1
34	66	3
85	87	1
45	71	2
76	77	2
15	17	1
7	9	1
16	17	1
4	13	1
50	52	2
29	34	3
93	94	4
29	30	3
72	99	2
91	94	1
48	49	3
111	113	2
58	61	7
5	22	1
18	24	4
93	95	2
104	109	4
71	98	2
25	40	2
69	71	3
121	123	1
56	59	1
107	108	4
112	122	1
23	43	3
86	87	4
5	24	2
20	28	1
10	69	3
60	84	3
71	76	1
115	116	1
114	126	4
43	65	2
22	67	2
50	51	4
5	25	1
59	65	1
97	114	2
60	63	3
83	87	2
105	106	5
69	70	3
0	27	1
17	19	2
61	68	1
119	130	1
120	121	4
40	44	2
27	29	1
40	41	3
128	130	1
92	111	1
118	120	2
53	69	1
117	127	1
80	84	1
96	115	2
85	86	3
30	32	1
81	102	1
44	78	2
45	48	1
39	42	1
61	64	2
24	29	1
106	108	3
29	56	1
24	26	1
64	65	2
38	39	6
38	61	1
78	80	1
25	53	1
7	72	1
42	58	1
61	62	2
66	75	1
101	103	1
113	128	1
3	4	1
105	109	1
74	84	2
133	133	2
2	5	1
48	50	1
6	7	2
98	125	1
76	79	1
23	68	1
69	95	1
115	119	1
20	73	3
106	107	1
103	120	1
122	123	2
65	69	1
108	114	3
119	125	2
118	125	1
20	69	2
100	101	2
72	74	1
127	131	1
13	15	1
108	119	1
97	98	3
94	125	1
79	80	2
100	104	1
18	22	1
4	17	1
80	104	1
53	56	1
89	91	1
75	79	2
54	68	1
44	82	1
108	109	1
123	124	1
18	32	1
19	23	1
41	59	1
110	122	1
68	69	1
114	118	2
75	76	1
75	95	1
76	78	1
68	73	1
