29	44	1
23	23	5
22	23	4
48	67	3
78	78	5
145	145	4
126	154	1
43	43	3
32	32	2
105	144	3
98	99	2
8	32	2
24	24	4
82	101	1
143	147	2
12	12	4
69	78	1
123	124	3
79	79	3
95	97	2
58	62	1
16	16	1
120	120	1
71	84	1
12	13	1
80	80	2
73	105	2
26	26	3
33	78	3
14	14	1
111	111	6
17	18	1
41	44	3
4	4	2
41	48	1
20	23	1
48	48	3
15	15	3
103	105	1
103	124	1
98	121	2
65	65	1
139	143	1
101	115	1
18	18	4
13	133	1
26	30	3
6	30	3
25	26	3
124	126	6
8	115	1
11	13	4
115	115	4
13	19	3
66	66	1
113	113	1
74	75	2
67	67	4
38	64	2
141	141	2
148	148	4
15	80	1
109	110	3
40	41	2
152	154	3
98	126	2
140	140	1
141	142	1
129	129	3
135	135	7
64	66	4
103	103	1
93	97	1
84	84	1
33	79	4
50	50	2
18	20	1
40	40	2
67	68	5
17	17	2
47	58	2
21	21	3
89	89	1
12	39	3
9	77	5
154	154	3
112	112	2
116	116	3
103	104	4
106	106	2
139	139	2
4	69	1
63	63	5
71	112	3
11	16	1
11	11	2
53	54	1
76	76	1
127	154	3
38	40	5
34	55	3
65	75	2
100	128	5
13	13	2
77	84	2
131	133	2
123	126	1
105	142	3
151	151	4
54	55	4
11	12	1
84	98	1
22	24	2
93	108	4
35	36	3
20	28	2
95	148	2
104	105	3
54	54	1
20	21	1
73	84	1
25	27	1
120	147	2
132	143	1
14	15	2
150	151	2
114	114	2
145	148	1
55	55	1
32	81	1
55	56	2
31	34	1
123	136	2
152	152	2
146	146	3
106	107	1
7	27	2
41	41	2
113	115	1
102	102	1
22	22	4
47	48	4
50	65	1
92	93	1
73	73	5
47	47	2
81	81	1
119	119	1
38	38	1
124	129	1
118	128	1
15	16	2
38	39	1
82	87	1
95	96	3
95	95	2
92	92	1
94	94	1
124	124	3
53	53	1
27	27	2
53	56	1
127	127	1
8	24	1
8	9	1
11	32	1
44	44	1
118	154	1
5	26	1
75	76	1
94	97	1
80	81	1
49	71	2
75	75	1
16	26	1
29	29	1
99	111	1
2	35	1
131	131	2
9	9	1
23	24	1
66	67	2
131	150	1
6	25	1
142	142	1
