109	110	5
28	141	2
95	116	5
105	105	13
93	93	2
73	74	2
18	103	1
18	40	2
142	152	1
54	55	5
135	135	3
144	146	6
9	9	4
11	11	6
147	147	10
101	101	4
77	77	12
32	84	3
17	18	5
55	55	3
91	91	15
34	34	2
23	24	7
79	79	3
23	23	3
128	128	8
123	123	5
10	79	1
151	151	4
143	144	1
34	57	2
125	125	4
87	87	3
21	22	4
21	21	10
137	137	5
157	157	7
73	73	4
28	29	3
46	46	10
127	127	5
39	39	4
51	51	8
112	112	14
35	35	4
67	68	6
121	147	1
3	4	1
132	132	5
110	110	5
156	156	7
47	47	8
19	19	6
12	12	1
145	145	9
110	127	4
79	89	2
69	69	7
116	116	4
18	18	8
54	54	7
16	18	1
90	94	1
149	149	5
102	102	1
131	132	3
141	153	3
17	17	6
36	85	2
120	120	5
45	46	4
141	141	3
83	83	3
30	30	3
45	45	2
20	96	8
82	83	4
152	152	8
33	33	6
50	50	5
151	152	4
41	41	6
22	23	3
136	147	8
103	103	2
148	148	3
106	106	6
128	151	3
124	124	4
131	131	3
114	115	1
110	118	2
3	69	3
14	14	5
113	113	3
72	148	2
15	15	7
27	27	2
119	120	2
141	148	4
37	37	5
117	119	1
126	126	3
70	148	2
40	40	3
82	82	5
0	0	7
112	113	5
38	78	4
142	142	2
36	86	1
83	87	1
126	139	2
145	147	3
150	150	1
10	18	3
10	14	3
45	96	3
115	116	2
48	50	2
12	13	3
133	133	7
49	49	9
99	99	3
1	10	3
33	83	2
45	47	3
83	115	1
25	25	7
96	96	4
10	11	1
67	67	2
139	142	2
77	97	1
36	37	3
124	126	3
7	18	1
31	31	1
155	155	3
67	71	3
52	52	8
121	152	6
48	48	2
37	39	2
4	104	2
114	114	5
145	154	1
100	100	3
89	90	2
3	16	2
94	94	8
70	70	4
11	12	6
26	45	5
16	16	2
37	38	3
68	70	1
109	133	6
114	127	1
71	71	10
15	20	1
143	143	2
139	139	11
95	108	2
140	156	3
128	137	3
91	93	3
18	106	4
91	95	5
146	146	3
80	108	1
92	92	5
129	129	9
119	119	4
121	121	3
90	90	6
7	15	1
15	18	2
134	134	9
50	140	1
146	147	11
21	96	3
91	92	2
1	1	2
130	131	4
19	97	3
125	139	2
8	9	1
21	90	2
6	8	4
33	38	1
134	135	2
7	7	3
96	113	2
47	140	4
31	55	2
13	14	3
142	148	3
5	5	2
26	26	7
99	100	7
2	2	7
141	156	3
153	153	2
131	134	2
12	26	2
86	86	4
122	142	1
36	36	9
137	138	3
16	61	4
46	47	2
138	138	3
42	42	3
76	76	3
51	53	3
56	67	2
20	20	2
146	150	3
66	68	2
84	84	2
63	63	1
40	144	2
43	43	3
112	125	4
108	124	1
75	75	2
32	39	1
108	113	2
65	65	4
67	69	4
105	127	1
10	10	3
70	71	1
106	148	2
116	117	1
31	34	2
89	89	2
9	10	3
106	152	1
135	138	2
68	79	4
82	85	3
24	24	5
155	156	6
62	153	2
30	149	1
147	157	2
98	111	2
138	142	1
80	152	3
123	134	2
121	123	1
53	54	2
51	88	1
23	26	1
9	13	3
44	44	1
47	66	2
26	28	1
30	148	3
23	95	1
155	158	2
91	96	1
139	148	2
39	45	3
144	153	1
118	123	3
42	48	2
135	137	1
62	62	6
5	9	2
85	92	1
26	27	1
117	117	1
140	154	2
104	104	2
111	124	1
68	68	1
24	25	2
106	142	1
9	62	1
107	134	3
13	15	2
104	105	1
121	126	1
122	123	1
152	153	1
49	50	2
118	120	4
5	7	1
158	158	1
3	3	1
51	80	1
27	82	1
70	77	1
95	95	1
88	89	1
8	30	1
29	131	1
108	109	2
19	21	1
37	64	1
100	101	2
119	121	1
94	95	2
7	81	1
29	29	1
63	64	1
115	127	2
96	97	2
113	115	2
98	98	1
31	36	2
66	140	1
8	13	1
77	82	1
130	130	2
87	97	1
4	17	1
49	67	1
40	145	1
86	89	2
149	150	1
140	140	2
125	126	1
78	79	1
33	34	2
4	4	1
71	78	1
104	108	1
68	81	1
70	141	1
31	51	1
77	96	1
22	22	1
41	145	1
48	67	1
82	135	1
145	146	1
30	31	1
124	125	1
141	152	1
82	88	1
