46	46	9
74	74	12
105	105	10
44	45	5
72	95	2
101	102	5
27	30	2
85	86	1
73	73	16
43	44	7
47	47	6
35	36	4
53	53	6
77	78	2
75	80	6
67	67	10
72	74	3
92	92	8
61	61	1
96	96	4
66	100	2
69	70	8
104	107	3
49	49	13
104	104	3
25	25	1
86	87	4
48	48	15
56	58	3
71	73	1
39	61	1
43	43	23
60	60	3
91	91	14
102	102	11
103	103	16
69	69	5
48	49	4
32	33	6
63	64	6
23	23	8
50	51	1
47	48	6
20	30	1
30	30	8
60	76	3
73	74	12
61	70	3
40	40	11
90	92	1
56	56	9
105	106	8
64	91	3
50	50	13
42	42	7
37	37	4
69	75	3
32	32	6
41	44	1
44	44	11
68	68	5
85	87	6
46	103	9
34	35	3
80	86	1
94	94	10
33	33	8
84	84	7
64	68	2
22	24	3
81	84	2
25	27	5
45	45	7
39	39	5
109	110	2
51	51	3
22	23	3
111	112	2
36	36	3
110	110	7
45	46	2
41	41	9
54	56	6
81	81	6
108	109	6
90	91	4
73	76	3
54	54	3
67	101	2
28	28	6
82	82	9
113	113	11
57	57	2
97	98	4
101	101	2
96	97	3
76	77	5
31	31	9
31	70	3
72	82	3
80	80	3
70	71	4
61	62	3
71	71	3
94	95	3
83	83	5
19	19	1
78	87	1
68	69	3
53	54	2
40	89	6
106	106	7
97	97	6
108	108	5
57	60	4
77	77	4
37	38	2
31	36	2
82	83	1
107	107	6
105	108	3
25	28	1
112	112	2
31	32	7
22	22	3
71	72	1
104	105	6
111	111	10
35	35	1
62	72	1
49	50	3
51	52	5
107	108	2
21	21	4
32	35	1
95	95	2
48	52	1
36	37	5
40	41	2
42	50	1
29	29	3
59	59	3
76	76	3
75	75	4
33	34	4
79	79	6
20	34	1
98	98	2
44	87	1
76	83	1
25	26	1
65	87	1
63	99	1
54	61	4
87	87	1
77	79	3
39	55	2
88	88	4
64	65	2
71	86	1
83	84	1
44	84	1
75	93	3
99	102	1
28	29	1
85	85	1
109	109	2
54	57	2
58	59	4
89	89	2
54	55	1
60	62	1
37	66	1
78	79	1
93	95	1
78	78	2
74	90	1
90	90	2
52	52	4
67	68	2
24	24	2
61	98	3
39	40	1
30	31	2
111	113	2
74	92	1
21	30	2
42	73	1
65	90	1
29	30	1
100	100	1
63	70	1
88	90	2
67	87	2
26	26	1
85	91	1
110	111	1
92	93	1
38	39	1
55	57	1
63	63	1
74	75	1
40	53	1
