88	94	5
138	138	2
133	133	4
111	111	5
23	25	1
84	84	3
75	75	1
5	32	1
149	150	2
30	31	2
42	42	7
63	64	6
34	64	2
151	152	3
36	36	4
85	85	2
53	54	1
131	132	4
95	110	2
140	140	1
40	40	5
9	50	1
92	92	2
6	31	2
106	109	3
27	27	1
31	31	2
82	82	5
124	126	2
93	109	2
4	5	4
16	16	1
51	52	1
55	55	3
71	71	1
14	16	3
54	54	5
20	20	9
90	90	2
129	143	1
141	141	4
17	18	2
2	37	1
72	72	9
140	143	2
95	95	9
7	7	5
74	74	4
21	21	3
45	45	2
100	100	1
75	76	3
19	23	1
83	83	3
19	20	5
54	70	3
39	39	2
96	96	2
142	142	3
51	75	1
123	123	2
93	93	1
131	133	1
37	37	3
41	41	7
78	78	3
67	68	2
108	112	2
43	43	1
11	11	1
64	64	1
17	22	1
30	30	6
20	21	3
84	85	1
44	44	4
136	143	1
78	83	1
148	150	2
85	86	3
120	120	1
15	22	1
34	35	3
73	73	3
53	53	4
123	130	4
136	136	2
67	67	3
28	28	1
68	68	5
80	80	1
18	23	1
8	8	4
115	115	2
13	13	4
133	147	3
3	4	2
62	87	2
126	129	2
77	77	4
138	143	2
99	99	2
4	101	1
16	18	1
137	143	2
27	28	2
25	51	2
98	99	2
24	24	3
11	12	2
93	94	2
152	153	1
6	7	2
129	137	1
82	103	1
128	130	1
139	139	1
15	23	3
96	97	2
55	102	1
94	94	2
110	111	2
141	142	1
17	114	1
104	104	2
16	19	1
24	49	4
132	133	4
146	146	2
80	84	1
21	23	1
108	109	2
84	86	2
34	38	3
28	39	1
92	94	1
12	12	1
135	151	2
44	45	3
29	33	1
56	56	2
6	6	2
23	27	1
75	103	1
90	95	2
38	57	2
35	35	3
147	147	1
137	137	3
86	86	1
25	50	1
125	134	1
99	108	1
26	50	1
122	122	2
139	154	2
25	26	1
78	99	1
35	37	2
33	34	1
10	11	1
125	125	1
8	66	1
34	36	1
123	124	1
8	65	2
58	58	1
129	129	1
96	99	1
67	70	1
30	33	1
14	30	1
38	39	2
97	97	1
79	79	1
128	128	2
35	53	1
14	14	2
95	107	1
42	43	1
118	118	1
90	94	1
114	114	1
47	48	1
115	117	1
40	115	1
79	84	1
63	63	2
130	132	1
37	38	1
69	69	1
82	86	1
49	51	1
24	40	1
46	46	1
5	6	1
47	47	1
64	66	1
89	96	1
5	5	1
57	57	2
122	143	1
34	34	1
28	29	1
