29	29	14
68	68	22
47	129	5
26	78	7
35	74	7
80	80	22
18	82	3
109	128	1
75	75	27
20	22	2
41	59	1
19	19	16
47	47	11
16	16	23
62	63	26
128	129	6
100	100	21
98	98	17
94	94	12
79	106	1
77	77	23
63	64	6
97	107	9
77	78	4
103	104	21
95	95	19
26	26	19
6	95	3
114	115	7
60	60	18
122	122	20
126	129	3
82	82	28
70	70	30
101	101	17
82	84	5
96	97	4
56	85	6
33	33	17
67	67	25
4	4	8
91	91	21
111	111	20
10	10	28
73	73	39
83	99	3
15	15	12
65	66	8
9	10	17
29	30	6
76	76	28
115	115	14
5	95	1
79	80	2
66	66	28
64	64	18
22	22	20
92	92	14
27	27	25
32	33	19
83	94	2
93	93	23
36	36	15
75	76	5
12	12	33
126	126	9
108	123	5
24	25	12
131	131	4
114	114	15
78	91	2
69	69	34
5	5	20
46	119	7
124	124	7
58	59	3
20	42	13
63	63	36
32	34	2
46	47	15
45	57	3
20	20	6
39	39	8
61	61	20
30	33	2
43	45	2
79	79	22
31	31	11
125	125	14
99	99	15
30	30	22
9	9	13
12	19	2
15	16	7
134	134	14
27	90	2
84	95	4
123	124	3
27	29	2
92	93	5
84	84	18
87	88	12
40	41	9
90	91	16
45	99	3
7	7	16
83	83	24
62	62	34
74	74	25
47	48	6
32	32	7
107	108	3
78	79	16
14	14	13
12	96	4
108	108	7
11	77	2
4	94	7
27	77	1
116	116	13
132	132	8
8	8	20
65	65	36
11	11	29
23	23	6
35	75	1
37	37	12
48	59	1
11	15	3
37	38	8
6	6	14
48	49	8
70	71	15
21	21	11
28	38	4
72	72	23
29	59	4
115	116	4
85	85	18
18	18	26
11	76	1
81	82	6
28	29	8
71	71	15
125	126	12
21	22	1
96	96	17
59	59	18
34	34	42
106	106	8
84	114	6
102	105	1
45	49	3
30	31	3
87	91	1
110	116	1
68	69	3
13	13	18
113	113	7
18	41	3
19	20	8
59	60	2
96	101	3
39	42	8
55	55	5
105	108	3
50	50	6
25	26	5
83	84	6
96	133	1
35	36	14
25	25	20
82	109	6
46	46	13
16	17	8
47	85	2
36	38	2
57	57	26
90	96	1
79	104	2
16	18	3
16	60	7
97	97	16
17	17	13
103	103	7
39	40	8
28	91	5
49	83	2
112	113	6
72	73	6
58	58	6
44	83	5
100	102	2
86	86	14
11	12	7
33	34	9
106	108	4
1	2	2
10	69	1
7	27	5
16	61	2
46	61	6
20	85	1
48	48	10
4	93	7
12	32	2
29	32	6
38	42	3
2	44	2
100	101	2
38	60	3
27	79	9
39	93	2
120	121	11
76	77	6
99	101	3
123	123	17
78	78	14
91	92	5
14	15	9
43	83	2
98	100	3
95	132	1
108	128	3
129	129	2
62	75	4
60	98	1
46	57	2
43	82	2
10	77	5
122	126	1
94	95	4
2	96	4
38	83	2
56	115	6
93	94	6
75	84	2
51	51	2
11	93	3
81	81	6
47	93	1
0	20	1
17	23	2
39	131	7
122	124	2
11	45	2
96	98	2
76	99	3
24	24	6
2	17	2
3	3	27
25	88	7
69	70	5
26	27	5
86	91	1
40	40	11
100	129	3
82	83	16
11	14	1
43	43	8
128	128	15
91	93	6
35	35	11
48	84	3
94	102	5
29	93	3
56	57	6
79	97	1
78	81	2
110	110	3
8	10	4
5	93	5
102	102	15
88	89	6
74	77	2
95	96	7
45	45	14
27	47	3
111	118	3
111	113	1
97	99	4
55	116	1
109	109	5
28	28	11
38	82	1
79	85	1
78	85	3
5	7	2
26	47	6
90	93	8
27	31	1
118	118	13
22	27	3
10	11	3
40	82	1
105	105	9
98	99	4
40	42	3
90	90	20
26	85	4
88	88	8
117	117	15
67	122	2
5	6	11
49	91	3
45	113	6
33	36	2
92	129	2
120	120	11
108	109	4
27	78	3
6	26	5
27	85	1
0	1	2
13	19	2
2	101	2
2	3	1
83	86	3
31	32	9
117	119	3
69	73	4
67	68	9
12	14	2
0	0	9
130	130	7
13	14	7
50	51	1
127	128	1
92	114	6
63	71	3
18	42	3
21	85	1
121	121	7
26	93	5
41	42	4
28	30	7
18	19	3
61	96	4
119	119	5
77	125	2
113	114	4
34	35	3
33	79	2
118	119	5
38	41	2
15	55	4
68	70	3
38	43	2
103	105	3
124	125	5
87	87	7
58	60	4
74	75	3
35	76	3
48	50	2
27	28	4
119	120	4
6	134	2
79	81	3
45	48	4
25	87	2
47	113	3
22	128	2
54	54	3
2	2	9
104	104	6
105	109	4
62	70	3
69	71	4
57	59	2
44	44	9
65	73	6
4	133	3
8	85	1
114	116	5
77	79	2
38	38	11
84	85	4
3	45	2
3	4	2
112	112	9
70	72	2
11	85	4
14	66	1
6	7	5
37	44	2
23	31	2
20	45	1
13	49	1
6	89	1
15	23	2
15	59	1
28	80	1
18	45	1
96	132	7
49	49	7
37	49	1
24	83	2
5	88	1
11	48	8
3	33	1
65	96	2
31	33	4
62	67	3
21	50	3
7	8	4
20	90	2
25	27	4
8	93	2
40	55	2
125	129	2
35	37	2
104	105	6
4	100	1
40	100	3
105	106	1
126	131	2
113	116	2
42	42	17
30	128	2
23	25	4
89	90	2
89	89	7
126	127	2
64	65	2
123	126	1
95	99	2
22	34	6
41	41	3
3	89	2
25	30	6
102	104	1
36	37	5
10	48	1
44	82	2
19	36	3
30	127	2
2	11	2
106	109	1
11	84	1
62	64	3
80	90	1
81	83	3
73	74	11
99	100	8
2	9	2
131	132	4
44	101	2
85	91	4
56	56	1
28	35	4
51	55	1
60	96	1
4	45	2
127	127	5
26	129	1
8	33	4
97	109	1
117	118	2
107	123	2
22	36	2
122	123	3
85	94	2
42	57	2
99	128	4
101	102	6
4	5	5
133	133	2
44	56	2
9	32	1
19	21	3
10	56	3
126	134	1
97	132	1
8	14	1
40	50	2
26	70	1
8	9	4
17	74	2
32	38	1
85	102	2
38	39	3
95	114	1
78	82	2
19	22	4
47	63	1
130	131	3
34	74	3
79	100	1
82	114	2
21	42	1
49	50	2
61	62	2
93	114	3
57	127	2
51	56	1
1	14	2
87	95	2
47	57	1
21	41	1
55	56	1
93	100	4
10	31	1
98	101	2
24	130	1
27	93	1
44	45	2
67	69	1
89	92	1
71	72	7
89	93	3
1	1	3
84	103	2
85	116	1
23	24	2
86	90	2
93	95	1
20	21	1
9	63	1
29	31	2
37	59	1
89	94	1
29	49	2
40	43	1
9	11	1
97	98	4
42	56	4
27	91	1
43	105	2
20	41	1
81	84	1
132	133	1
46	87	1
97	110	1
17	18	3
46	120	1
110	129	2
94	133	1
26	29	1
133	134	2
12	13	3
111	116	2
41	99	3
17	61	2
37	39	1
96	100	1
77	83	1
43	44	1
38	56	2
82	94	1
26	59	1
74	76	1
15	33	1
76	102	1
111	129	3
84	86	1
29	60	1
21	90	2
46	71	1
36	77	1
111	112	1
43	49	1
78	80	1
45	46	1
45	56	3
23	57	1
9	12	1
121	122	2
76	85	1
3	56	1
88	94	3
37	48	1
98	109	2
40	81	1
77	82	1
49	93	1
26	79	3
91	106	1
0	12	1
3	99	2
107	107	2
27	110	2
12	76	1
8	77	1
57	60	1
8	31	1
11	71	2
8	74	1
118	121	1
21	54	1
37	58	1
29	92	1
56	59	1
85	93	1
98	128	1
3	101	3
61	76	1
41	81	1
101	133	1
86	89	1
4	101	1
42	48	1
5	83	1
5	84	1
93	96	2
102	103	1
22	131	1
57	58	1
93	98	1
61	73	1
3	47	1
79	84	1
7	96	1
13	58	1
100	106	1
23	35	1
85	86	1
21	132	1
