93	94	14
95	103	1
78	78	34
92	93	16
62	62	26
83	83	43
97	99	20
8	9	15
47	47	36
105	105	16
73	74	31
99	101	4
48	48	24
15	25	2
97	97	24
7	8	8
61	61	27
75	76	4
91	91	33
91	93	5
113	113	18
60	60	26
130	130	17
27	34	5
104	104	11
101	102	5
20	21	16
20	58	1
93	93	45
46	91	3
15	15	36
22	37	3
20	20	23
95	99	1
10	19	6
3	3	17
32	32	15
70	71	12
36	36	23
49	81	2
100	100	43
109	111	4
120	121	7
76	81	3
77	82	2
47	82	2
116	116	12
124	125	14
80	80	33
9	10	3
11	11	44
45	45	43
31	93	3
35	35	48
129	129	24
95	98	8
4	4	25
125	129	5
11	27	4
26	26	72
34	80	2
70	70	30
9	9	28
26	93	6
68	69	11
65	65	40
3	100	8
95	95	30
33	34	10
122	122	13
38	39	11
59	59	48
130	131	6
86	86	32
98	98	29
7	7	21
48	56	11
13	13	24
14	61	3
87	88	7
46	69	2
14	16	4
27	27	38
13	88	2
128	128	19
29	30	7
73	73	40
44	45	9
17	17	23
43	43	19
25	25	36
57	58	11
102	103	7
27	97	1
66	66	30
8	30	1
95	96	6
82	85	5
44	44	33
66	89	2
72	72	30
38	38	12
16	17	18
92	92	22
58	58	10
33	33	15
46	46	42
44	62	3
34	34	43
79	79	35
32	34	1
65	66	14
6	6	20
76	77	3
94	95	18
75	75	26
19	20	20
72	83	3
8	8	41
94	94	31
11	12	8
34	36	3
10	10	31
33	119	1
28	28	22
71	71	7
96	96	19
19	70	4
37	37	9
134	134	13
56	57	4
84	84	34
82	82	52
49	49	6
8	37	4
77	77	24
38	43	3
63	63	18
101	101	25
61	71	1
110	110	15
32	37	6
72	73	17
40	40	26
126	126	29
69	70	8
74	74	34
93	98	1
16	16	21
12	12	33
67	68	9
30	88	3
96	99	1
117	117	17
61	62	7
36	37	9
120	120	13
66	71	2
64	64	26
45	61	2
88	88	21
41	41	5
88	91	2
24	26	1
109	112	6
10	77	3
126	129	5
29	29	51
5	28	5
85	93	1
57	57	15
103	103	9
22	22	10
43	44	3
99	99	14
80	87	5
79	88	4
32	33	13
1	2	8
91	97	3
80	83	3
95	97	6
26	47	5
27	28	31
90	91	12
107	108	8
27	46	1
83	116	7
20	22	2
87	87	19
42	57	7
11	13	9
12	61	1
69	69	25
119	119	6
14	20	2
11	16	3
66	67	10
17	60	10
45	46	3
97	100	4
26	48	5
17	75	3
14	14	16
39	39	9
18	18	19
91	92	10
107	107	15
8	78	2
85	85	9
23	23	15
125	125	13
121	121	8
125	126	9
22	23	2
4	6	7
84	88	3
118	121	1
29	57	3
112	112	29
114	114	30
13	17	5
89	89	3
3	18	3
19	19	18
116	120	3
104	105	9
116	121	4
70	72	1
40	41	8
72	75	4
11	48	1
89	92	3
82	114	9
99	100	22
25	26	5
80	82	8
21	60	2
31	32	8
67	67	21
109	109	5
123	123	10
133	134	5
133	133	7
85	89	3
45	71	3
58	77	3
45	50	3
10	11	10
80	81	12
101	103	1
47	48	8
126	128	7
116	130	2
111	123	9
121	122	4
108	108	20
63	64	4
12	86	7
18	60	1
86	87	5
34	35	7
35	36	9
5	6	11
55	55	9
28	32	2
68	68	18
26	92	4
8	32	5
44	46	4
66	83	6
78	93	9
21	22	8
90	90	7
32	35	1
65	68	3
29	59	11
23	74	4
102	102	16
111	111	14
11	26	1
5	5	12
24	82	2
2	17	2
81	81	22
79	80	4
6	45	1
41	42	4
118	118	12
27	79	8
27	93	10
24	25	13
27	43	1
88	89	1
85	86	10
27	80	7
16	20	4
28	45	1
131	134	5
56	56	17
46	61	7
7	27	3
30	31	12
46	47	14
28	80	4
6	7	4
39	40	6
78	79	11
50	54	1
100	101	11
7	45	2
2	10	2
1	1	8
62	63	11
130	132	5
41	44	1
38	44	3
45	47	5
84	94	1
62	73	1
42	79	2
117	118	10
15	16	19
90	92	3
4	84	2
11	93	2
29	39	1
89	91	3
59	61	4
83	115	2
42	43	6
81	82	9
21	76	1
21	21	9
131	131	8
2	18	2
132	132	6
39	43	1
29	49	7
102	104	3
58	75	5
106	106	13
76	76	24
109	121	2
47	71	7
94	100	8
20	37	4
69	71	11
122	124	2
31	31	8
3	92	1
11	47	4
24	24	8
94	101	3
103	106	7
9	14	3
2	93	2
0	2	4
34	67	3
45	62	3
28	29	11
21	85	2
60	61	3
23	24	6
23	26	2
8	28	3
50	50	8
2	19	4
17	18	4
79	89	2
111	112	12
94	96	3
28	47	3
43	58	3
79	128	4
9	11	7
10	28	3
28	79	3
8	36	7
23	25	9
12	14	2
82	83	17
95	101	4
13	27	2
111	114	3
14	27	1
18	76	4
13	76	3
5	25	2
78	89	3
78	82	3
42	42	6
84	90	5
13	26	5
84	85	3
98	99	4
46	48	2
62	70	5
5	23	2
6	49	3
27	29	5
64	71	7
106	107	2
102	113	4
124	124	18
0	3	2
55	56	10
107	109	6
4	5	12
12	66	4
12	85	1
12	19	3
11	64	1
47	70	1
10	16	1
29	48	3
129	130	6
7	28	3
25	75	1
79	87	2
0	0	14
117	120	1
32	36	4
47	56	1
30	30	5
60	76	3
13	75	2
14	17	1
115	115	7
3	4	8
61	74	1
127	133	6
12	88	4
110	112	6
95	102	4
80	84	2
42	45	1
8	11	2
87	93	2
4	23	2
6	28	2
75	102	2
60	75	2
108	120	2
83	84	8
125	128	1
33	35	4
110	111	6
19	37	3
13	14	4
61	63	1
63	65	3
44	63	1
59	60	6
22	25	4
22	31	1
18	19	6
10	13	1
62	64	6
41	62	2
71	72	3
11	76	2
27	35	2
78	85	5
21	84	3
10	74	1
107	122	2
90	99	2
55	81	4
14	15	4
22	36	5
31	33	4
96	98	12
101	104	1
2	2	9
127	127	14
122	123	3
10	27	1
126	130	2
83	94	1
116	117	3
10	85	3
64	70	2
118	119	2
33	38	1
84	86	2
26	49	6
112	117	2
45	91	2
26	77	3
116	134	4
12	13	3
45	69	4
9	27	1
27	92	5
121	123	1
11	92	2
42	77	1
112	113	6
104	106	2
113	114	4
111	121	1
25	48	1
116	124	4
0	1	3
115	116	3
59	92	3
57	81	3
103	104	8
89	90	2
96	97	7
57	73	3
69	73	1
25	35	2
44	69	2
14	77	1
11	15	5
26	28	2
101	125	3
123	124	9
12	26	2
88	90	2
11	80	2
114	115	2
2	11	1
6	97	1
26	27	6
30	39	1
126	132	1
61	72	2
28	38	2
24	47	4
37	39	1
12	24	1
68	70	1
33	36	2
79	81	1
22	35	2
109	120	2
105	122	1
11	89	1
25	47	1
28	91	5
30	32	4
16	24	2
48	93	2
112	120	3
29	35	3
36	38	3
63	71	2
23	73	1
98	100	2
5	15	3
74	75	1
113	124	1
130	133	2
85	87	1
27	61	1
9	16	1
26	80	1
2	3	1
15	21	3
78	84	2
5	14	2
111	122	1
6	8	2
128	129	8
59	78	2
36	76	1
77	78	7
43	79	3
96	105	3
94	105	4
39	41	1
34	72	4
47	59	2
49	56	2
62	72	2
32	45	2
25	27	1
47	49	2
3	93	4
117	121	1
17	19	1
98	101	2
6	29	1
62	71	3
97	98	4
14	76	3
13	23	2
129	132	1
10	18	3
20	84	2
115	134	3
87	98	2
10	62	1
125	127	2
113	116	3
111	124	1
61	73	2
83	86	3
27	78	1
28	36	1
4	19	3
14	99	2
9	34	1
111	120	2
21	23	2
4	99	2
103	105	3
7	88	1
19	61	1
29	31	3
93	100	1
49	50	1
73	75	3
16	23	2
47	75	1
90	93	1
85	99	1
108	113	1
101	128	1
81	128	2
63	74	1
45	63	1
127	131	1
87	99	2
97	102	2
8	75	1
46	65	1
27	101	2
58	62	2
64	66	2
91	109	1
64	65	2
63	70	1
86	96	2
10	14	1
65	67	1
48	49	1
48	50	2
82	99	1
66	74	1
58	59	2
119	120	1
6	90	1
4	101	1
24	27	1
8	76	2
32	80	1
44	70	1
45	60	1
10	83	1
40	42	1
23	84	1
13	15	1
6	30	2
66	73	1
62	87	1
33	37	1
117	119	2
123	125	1
5	90	1
108	123	1
20	60	2
110	113	1
35	80	1
17	61	1
40	43	1
83	101	1
58	76	1
59	62	1
47	119	1
109	116	2
11	101	1
104	107	1
122	134	1
25	58	1
8	29	1
131	132	1
3	91	1
16	59	1
61	75	1
114	116	1
112	115	1
5	47	1
107	120	1
19	21	1
7	29	1
105	106	1
14	47	1
102	116	1
