65	65	3
67	67	1
98	98	2
100	100	7
108	109	1
7	7	8
40	41	6
14	15	5
123	123	7
12	37	6
136	145	2
105	105	12
62	62	1
81	82	7
96	97	1
69	69	3
2	2	4
111	127	2
80	80	4
124	124	8
20	20	4
8	48	4
19	39	2
13	13	4
67	70	3
13	21	2
156	158	2
81	81	3
71	148	1
152	152	4
6	6	6
67	71	2
156	156	8
150	150	11
117	117	7
35	37	2
40	40	5
42	42	6
73	73	11
119	121	2
47	47	6
104	104	6
86	94	4
1	1	10
9	52	2
83	83	5
120	120	2
67	68	3
4	4	3
53	53	5
116	116	5
33	131	1
106	107	3
85	148	1
7	50	1
27	30	4
127	127	6
87	87	4
54	54	13
134	134	7
15	16	1
50	51	2
26	26	4
86	97	5
129	131	2
108	108	3
71	153	1
151	151	8
95	113	4
69	112	1
44	44	2
131	131	2
157	157	1
22	22	11
148	150	2
62	71	3
41	42	2
90	90	6
3	3	6
13	29	2
11	11	2
41	41	5
97	157	2
131	132	7
28	28	4
78	111	2
83	93	2
88	150	10
56	56	6
158	158	4
139	139	10
121	121	3
79	79	4
93	93	5
137	141	3
36	42	2
97	97	8
133	134	3
88	141	3
133	133	5
78	78	1
25	25	4
135	140	2
88	89	1
97	98	4
68	68	4
117	144	1
69	113	5
64	68	4
52	54	1
67	146	2
99	99	4
55	55	6
146	148	3
5	5	9
39	39	6
123	125	4
19	21	5
15	31	1
50	50	4
135	135	3
52	52	5
66	69	1
111	111	1
52	55	2
70	89	2
137	137	3
23	25	2
10	17	2
154	154	6
127	128	1
121	122	1
17	17	3
0	0	2
96	96	4
24	51	3
77	77	5
132	134	3
49	61	2
43	44	4
142	142	6
63	69	3
148	148	7
120	124	2
51	55	3
112	113	1
94	156	3
70	154	1
24	24	7
10	18	3
91	91	4
31	32	1
4	33	1
129	130	1
106	106	3
46	46	2
115	115	3
92	152	3
15	15	1
68	69	3
9	9	5
105	106	6
120	121	2
141	143	1
84	84	4
38	39	1
103	107	5
85	85	4
88	118	2
68	143	2
146	146	4
134	135	2
77	82	3
110	113	3
8	8	3
62	153	1
85	86	2
55	97	1
121	131	1
141	144	1
118	122	2
32	87	3
9	48	1
16	40	1
2	29	2
78	79	2
8	50	1
69	70	3
145	145	6
111	115	2
101	101	8
82	82	5
130	138	1
141	141	8
25	28	4
92	92	1
14	16	3
70	70	3
22	23	3
136	136	5
90	105	1
125	126	1
65	90	1
36	36	2
21	53	2
31	43	1
122	122	8
156	157	3
103	115	1
32	131	3
34	34	1
132	132	3
31	39	1
11	12	2
79	80	5
13	48	1
140	140	4
57	57	1
113	113	3
19	19	1
45	45	1
9	18	1
71	89	1
112	112	4
0	103	2
33	33	3
77	120	1
132	136	1
147	147	10
37	37	1
12	12	1
63	63	4
76	83	3
5	43	1
95	95	1
139	140	1
106	133	6
34	106	1
23	23	4
124	125	5
43	43	4
38	38	3
42	43	3
24	30	1
51	53	2
3	36	2
48	48	2
96	98	1
93	94	2
131	137	1
45	47	3
24	34	1
29	29	6
71	97	1
21	22	2
13	30	1
129	129	1
5	6	3
16	16	2
102	129	1
75	75	1
78	80	2
107	107	3
119	120	3
91	93	2
88	96	1
128	144	1
125	125	4
102	106	3
81	133	2
41	47	1
114	114	1
55	104	2
82	119	1
82	128	1
63	141	2
126	126	3
114	115	2
103	103	4
149	149	2
68	154	2
114	154	1
13	14	1
13	15	1
119	119	2
26	30	2
41	49	1
121	144	2
143	144	1
116	117	3
27	33	2
118	121	5
91	159	1
77	126	1
6	46	1
130	130	2
153	153	2
36	37	1
3	28	1
5	50	1
132	140	1
148	154	1
71	154	2
45	46	1
146	154	1
7	38	1
32	88	1
62	118	3
131	136	1
25	50	1
88	88	1
9	68	1
14	49	1
33	136	1
1	2	1
8	9	1
49	50	1
120	122	1
20	21	1
3	4	1
19	20	1
132	137	1
150	153	1
113	114	2
82	83	1
72	75	1
110	110	2
66	125	1
7	41	1
35	36	1
54	55	1
130	139	1
53	54	1
18	21	1
148	157	1
154	155	1
20	30	1
49	49	1
115	152	1
104	146	1
71	99	1
71	96	1
100	108	1
