12	28	2
8	8	13
148	148	6
74	75	4
99	123	7
99	99	4
43	47	1
149	149	9
126	127	10
11	11	11
79	79	7
100	100	6
97	99	3
151	151	10
103	103	4
123	123	3
144	146	1
24	24	8
74	74	3
114	125	2
77	77	4
66	66	2
116	116	6
53	53	2
81	81	5
58	58	6
81	82	3
55	55	13
128	128	6
139	144	4
87	87	7
23	23	12
12	12	4
32	142	1
118	118	6
24	25	5
95	95	3
106	116	3
32	52	1
130	130	6
30	30	4
131	147	1
22	23	1
47	79	5
153	153	7
31	31	11
18	23	2
49	50	3
34	34	1
141	142	6
33	34	1
9	28	3
79	93	2
4	7	3
96	100	3
43	44	1
29	29	4
82	82	12
19	19	18
67	71	1
5	21	1
102	102	3
15	19	4
14	14	5
40	51	2
137	137	6
47	47	14
74	97	2
40	40	6
79	86	2
150	151	3
18	18	6
39	39	5
43	64	3
138	138	3
16	16	3
65	94	7
129	147	2
111	112	1
82	88	2
13	13	7
136	136	17
152	152	8
127	128	5
4	4	7
35	35	4
10	10	5
104	114	3
21	22	2
75	75	3
46	46	7
109	109	5
65	83	2
43	43	10
102	122	4
6	7	3
28	33	1
64	64	8
49	52	5
154	154	2
67	87	3
11	29	2
80	81	3
5	19	4
4	29	4
28	56	2
10	11	2
61	69	3
68	68	5
86	86	5
81	97	1
84	87	3
78	145	2
125	125	1
15	18	1
41	49	1
14	23	4
104	110	1
27	27	5
46	47	9
73	74	1
99	124	5
75	95	1
102	103	2
112	112	8
41	41	3
121	121	2
33	33	3
71	71	3
11	103	3
92	146	2
135	135	6
34	49	3
141	141	2
133	134	3
41	42	2
91	92	4
29	30	2
132	149	3
38	38	3
111	111	3
20	20	2
51	51	8
105	111	1
86	120	1
106	106	7
54	54	6
4	30	5
110	110	4
9	9	10
145	145	2
25	25	7
7	28	5
134	134	4
83	87	1
76	76	4
91	91	4
37	37	3
99	100	1
69	70	3
17	17	7
79	80	3
142	142	2
74	96	2
45	45	1
73	73	1
6	10	1
8	28	3
47	50	2
8	53	5
107	107	4
137	138	1
149	152	3
63	63	8
7	7	1
13	14	2
30	37	1
50	51	3
110	111	3
97	97	1
139	139	3
87	94	1
25	39	1
70	70	3
51	56	1
98	99	3
113	123	3
135	136	1
27	55	2
32	32	5
22	22	1
94	98	2
93	96	3
5	30	2
83	83	2
3	31	5
23	24	3
16	18	1
66	93	2
122	124	3
19	22	2
136	138	6
2	51	2
11	34	4
85	85	3
132	133	1
9	29	1
101	101	2
109	114	3
115	115	10
144	144	3
103	114	1
146	148	4
129	129	2
3	6	1
67	144	1
125	129	4
67	125	2
64	69	4
76	92	2
77	78	7
101	102	2
80	84	1
35	36	6
132	132	6
119	119	6
18	19	4
11	36	2
96	96	1
117	117	2
25	26	1
94	94	1
139	147	1
13	41	3
148	150	3
5	5	3
10	41	4
127	127	6
5	20	1
11	104	1
7	51	1
76	91	2
26	33	1
16	20	1
57	65	1
103	109	1
135	150	1
21	21	3
75	125	2
93	120	1
125	127	2
19	20	6
86	87	4
5	8	1
102	113	2
49	49	2
95	123	5
122	122	5
105	106	1
4	8	4
129	152	2
76	98	3
37	38	2
133	133	2
106	118	1
5	12	2
61	62	5
14	26	2
134	150	1
82	87	1
48	48	1
47	75	2
38	40	1
5	9	1
117	118	1
95	97	1
72	72	3
42	43	3
6	31	1
43	99	1
125	126	3
37	39	1
102	108	1
77	145	2
5	24	1
106	110	1
92	92	3
147	147	1
7	24	1
65	66	1
93	93	2
34	36	1
56	56	2
145	146	2
66	145	1
106	111	3
35	40	1
6	6	3
78	78	2
16	17	1
120	120	1
129	131	2
92	94	1
14	15	2
125	145	2
135	139	2
37	111	2
104	104	1
114	114	1
131	133	1
150	150	1
87	91	1
16	63	2
13	62	2
27	99	1
9	30	2
66	82	3
151	152	2
58	64	1
4	54	2
5	22	1
131	135	2
104	108	2
86	92	1
19	21	1
10	29	1
151	153	1
126	126	1
7	55	1
57	57	2
132	146	2
135	147	1
67	67	1
12	20	2
32	54	1
98	124	2
88	88	1
20	23	1
4	5	1
9	18	1
102	106	1
81	83	1
66	73	1
85	87	3
79	82	1
75	93	1
13	21	1
40	53	1
44	45	1
4	28	1
134	147	1
56	83	1
69	69	2
75	78	1
56	57	1
45	46	1
84	84	1
75	121	1
131	131	1
106	108	1
50	79	1
6	9	2
98	111	1
120	146	1
34	35	1
