196	196	12
6	237	1
76	77	1
247	247	9
93	93	11
178	193	2
158	158	13
33	171	8
229	229	8
208	208	15
177	177	17
61	61	9
221	222	6
51	52	10
198	199	11
179	194	1
190	192	2
168	168	20
246	246	9
203	203	38
65	66	9
7	7	22
158	159	1
21	32	1
150	151	3
193	194	8
6	246	3
56	56	14
95	96	7
202	203	1
219	238	10
103	103	10
152	160	5
165	165	14
199	199	10
190	190	15
216	247	4
55	58	1
161	161	6
238	248	4
46	46	28
52	53	7
203	207	1
162	162	18
191	191	10
101	103	5
234	235	10
69	70	9
97	98	7
145	150	2
78	78	6
85	85	20
115	116	5
34	34	14
161	164	2
238	238	18
114	114	21
14	14	9
31	31	9
197	197	20
168	169	2
146	146	10
215	215	9
17	17	13
159	165	1
104	105	7
239	239	11
150	175	4
39	42	2
75	76	6
63	63	10
22	22	17
101	101	8
174	174	10
89	90	6
112	112	20
170	171	6
203	204	6
203	213	2
156	169	1
94	94	32
146	147	4
96	96	11
201	206	2
106	107	9
25	25	6
81	81	12
172	172	24
87	87	10
15	15	6
217	217	13
239	247	1
169	175	1
157	183	6
16	16	7
72	74	4
32	32	7
47	47	5
6	44	3
173	174	3
33	33	13
160	176	4
187	188	17
153	186	3
157	159	4
151	151	17
28	28	23
156	156	14
193	207	1
182	183	2
244	244	10
187	187	30
34	38	3
176	177	14
8	10	3
174	182	3
100	100	7
69	72	1
41	41	22
92	92	9
155	155	24
160	161	10
213	213	27
237	237	13
171	171	9
158	160	3
210	210	20
51	51	22
157	157	7
179	179	20
60	67	3
118	120	1
234	234	8
170	170	28
35	35	8
107	108	4
181	213	6
152	153	7
242	245	3
235	235	8
20	20	5
71	71	9
209	209	25
48	48	8
110	111	12
13	14	8
37	37	17
43	200	4
6	6	15
24	24	22
35	36	1
195	195	16
185	185	15
26	27	1
9	24	7
47	87	2
31	100	1
211	212	7
86	86	4
242	242	12
27	27	22
201	201	23
230	230	6
213	214	6
43	222	3
214	214	13
5	43	4
104	104	4
242	246	1
150	150	20
8	43	2
9	9	14
116	116	25
87	102	4
111	153	1
243	243	4
66	66	7
30	36	3
32	41	5
55	55	14
216	217	6
37	38	4
8	8	23
73	73	12
178	178	28
216	216	14
17	42	4
35	117	2
80	80	9
55	56	7
176	176	18
145	147	1
200	205	1
171	185	2
183	183	15
172	173	5
69	69	16
21	42	3
181	181	21
164	164	15
4	4	8
233	233	13
108	109	3
160	160	35
56	57	1
16	109	3
163	164	9
64	64	11
71	76	3
114	213	2
25	29	2
68	68	13
90	226	1
88	88	15
44	44	25
101	104	2
207	207	14
96	106	2
20	88	1
180	181	3
181	182	8
193	193	3
203	235	3
239	240	1
241	241	15
100	101	5
90	91	6
236	240	5
61	62	4
79	79	8
215	218	6
198	213	1
112	244	1
192	192	15
108	108	12
80	82	4
38	52	4
79	81	3
90	95	2
171	209	2
60	61	3
176	178	5
19	19	13
87	88	8
77	77	13
32	149	2
245	246	9
58	58	6
38	87	1
228	228	11
226	226	7
15	116	4
182	182	18
42	42	17
154	207	3
32	33	6
204	205	1
75	75	8
115	115	16
189	189	14
38	38	20
18	25	3
163	248	2
70	244	2
7	235	3
195	196	3
167	167	26
5	5	13
237	246	4
179	180	2
188	188	12
206	206	12
205	205	19
240	240	10
36	39	5
118	118	13
194	194	12
195	237	7
39	39	9
165	182	1
91	107	2
72	72	9
35	59	2
58	119	3
210	211	14
42	228	3
108	239	1
109	110	7
27	28	3
115	161	1
21	21	10
42	202	3
241	244	2
110	110	14
79	82	7
62	62	15
49	99	3
72	75	2
102	104	3
98	98	6
74	74	9
212	212	21
50	50	14
30	31	6
179	182	3
39	50	4
77	81	1
174	214	4
169	169	12
42	43	5
82	83	13
23	24	7
106	106	7
29	30	5
145	145	9
229	230	4
11	11	11
232	232	9
224	224	10
45	45	24
90	90	9
154	154	25
185	186	9
118	168	1
203	233	3
97	99	4
198	200	3
225	226	6
7	223	3
209	213	2
194	195	9
49	60	2
40	41	2
207	209	8
79	80	6
109	109	19
34	47	1
91	91	8
37	110	6
65	67	3
49	49	13
173	173	9
70	70	13
121	170	2
23	23	12
116	169	2
241	247	3
204	204	24
202	202	14
184	200	3
110	112	2
211	213	1
7	65	1
171	196	5
153	153	16
220	220	15
69	71	2
15	115	3
77	80	2
236	241	1
29	62	3
151	152	2
182	211	2
44	65	2
17	212	1
67	67	7
23	25	2
231	231	7
77	78	5
62	155	2
197	237	1
5	204	1
164	248	1
58	59	2
71	119	2
52	55	3
3	3	5
217	247	6
238	240	1
238	239	8
152	152	13
170	192	3
172	174	2
57	58	4
171	238	1
96	97	4
18	19	1
12	12	7
83	83	7
152	248	1
111	111	12
66	220	5
40	40	5
187	216	1
59	236	1
43	52	3
186	186	10
89	89	12
114	115	3
248	248	8
103	104	3
32	52	4
240	241	11
164	166	3
10	10	5
162	163	11
169	195	2
30	30	11
217	219	6
64	218	1
225	225	15
17	18	6
111	112	6
223	223	8
60	65	5
224	232	4
92	113	1
217	218	2
183	203	1
101	108	1
7	30	1
41	226	1
183	215	1
20	40	3
243	244	1
118	119	9
214	219	6
53	53	9
157	196	5
215	219	3
167	171	6
199	202	2
51	119	1
47	75	5
34	35	6
197	198	5
165	170	5
54	227	2
157	158	3
161	184	4
164	165	9
101	105	1
70	208	2
29	44	5
188	189	5
21	38	2
9	43	1
112	117	3
18	18	7
184	184	12
108	112	2
107	107	8
165	166	12
98	99	3
245	245	12
211	211	9
33	36	1
146	158	8
149	160	4
24	25	4
222	244	3
69	90	1
219	219	13
176	179	3
157	181	1
197	211	1
156	158	1
40	46	4
145	173	2
60	119	1
14	214	2
152	184	1
2	2	9
75	77	3
35	60	5
232	233	9
247	248	6
187	192	1
149	175	1
188	241	1
174	213	2
157	170	1
43	43	7
84	84	5
29	93	1
175	175	14
67	68	2
115	117	1
63	247	1
173	178	1
14	81	3
65	65	6
241	245	2
95	95	9
86	91	2
236	236	8
156	226	1
190	191	8
180	180	8
173	208	1
34	37	3
216	219	4
192	196	2
23	44	1
81	82	3
117	117	18
211	227	3
18	47	4
164	210	2
40	93	3
34	85	1
230	231	7
159	159	6
163	168	5
165	214	1
57	57	4
150	235	3
37	39	4
60	60	6
78	102	1
71	118	2
111	243	1
30	112	1
186	188	1
157	209	3
104	106	4
105	105	6
160	169	4
62	67	1
29	29	6
34	48	1
28	42	3
197	208	1
200	200	6
175	176	7
59	59	7
98	116	3
204	241	1
58	171	1
101	102	3
240	247	1
68	69	2
94	104	1
45	61	2
241	243	2
147	147	5
82	84	1
205	206	3
175	184	3
60	223	4
162	212	2
72	90	9
26	26	13
97	97	7
149	149	4
222	222	7
144	144	3
239	248	5
36	36	10
147	152	1
52	52	6
14	15	2
57	59	1
152	209	2
72	73	3
33	94	1
2	11	1
77	82	2
12	16	2
157	160	1
113	113	13
11	63	5
110	118	1
238	249	4
163	163	11
38	41	2
171	175	1
149	236	1
183	184	3
209	210	8
194	213	1
31	116	2
233	234	1
71	75	3
192	193	2
34	105	1
157	185	1
152	176	1
206	207	2
164	176	1
201	202	10
150	239	1
189	191	5
194	196	1
159	160	2
6	205	4
214	218	2
54	54	4
80	83	1
41	197	3
41	42	5
49	71	3
40	88	3
165	185	2
201	207	1
22	23	3
115	171	5
187	189	7
224	242	1
35	84	2
76	84	1
162	164	2
42	85	1
15	162	2
121	121	5
45	222	1
6	12	3
78	81	3
153	174	1
87	94	2
102	102	10
49	246	3
31	32	2
211	241	1
39	47	2
71	101	3
162	165	6
91	92	1
98	101	2
224	226	2
33	155	1
117	118	1
116	145	4
58	242	2
107	109	1
166	166	7
1	10	1
12	24	2
208	209	6
199	200	4
11	12	4
237	238	3
25	26	4
168	180	1
163	165	1
49	50	4
50	51	1
77	84	3
89	109	3
145	153	1
49	89	2
1	1	8
93	101	1
174	175	3
147	244	3
20	21	1
156	207	2
3	6	3
44	222	1
9	21	2
70	87	2
19	21	1
71	106	1
33	55	1
71	208	1
63	101	4
2	230	1
218	218	4
34	108	2
64	65	4
227	227	7
184	185	2
218	220	2
31	115	1
51	82	2
43	45	4
80	81	1
221	221	6
154	163	1
46	146	3
236	237	8
228	233	2
120	246	1
76	115	2
33	46	1
86	153	2
212	236	2
18	30	4
90	104	1
246	248	1
35	61	1
147	181	5
208	211	2
91	100	1
210	212	1
68	78	1
236	245	1
215	216	3
162	210	1
23	26	2
1	228	1
120	144	1
218	219	3
11	230	3
153	163	1
150	162	1
203	206	1
22	24	4
171	172	2
191	196	2
208	212	2
183	198	1
86	144	1
174	197	1
203	212	1
110	242	1
112	119	2
150	203	1
32	46	3
35	94	1
160	232	2
45	64	1
90	116	2
196	217	2
231	234	1
211	235	2
66	78	2
3	7	3
105	111	1
50	59	3
157	162	2
43	44	1
6	7	4
86	104	3
179	195	1
157	167	1
12	85	2
99	99	2
35	86	1
179	235	2
190	216	1
47	118	2
46	86	1
193	237	2
9	42	1
33	34	1
44	46	3
191	192	2
187	218	2
113	114	3
18	87	2
169	170	2
119	119	4
33	85	2
154	186	2
44	155	1
200	201	2
72	95	2
238	245	4
161	168	2
224	227	1
48	49	2
4	5	5
121	230	1
2	3	4
96	101	4
58	60	2
63	67	3
2	5	2
117	212	2
209	217	2
208	220	4
66	77	1
100	114	1
162	166	3
211	225	1
4	11	1
14	238	2
201	203	2
33	101	1
6	228	2
218	238	1
204	206	1
214	215	2
37	87	2
22	98	2
194	237	3
244	248	2
52	85	1
67	79	1
15	182	1
215	217	2
9	11	2
80	234	1
49	248	2
193	195	3
52	147	2
149	158	1
89	245	1
78	86	2
156	222	2
6	204	1
192	195	2
73	74	1
40	45	3
171	179	2
68	85	2
46	52	1
67	92	1
158	166	3
45	62	1
150	234	1
198	198	4
55	172	2
207	208	1
111	115	1
70	86	1
171	173	1
177	178	1
168	205	2
165	236	1
23	205	2
64	245	2
86	89	1
157	182	1
55	160	1
176	214	2
186	203	3
76	83	1
87	91	1
113	183	1
208	237	3
17	31	2
151	245	1
166	180	2
2	34	1
54	223	1
10	33	1
21	24	1
50	82	1
52	222	1
236	239	3
43	51	2
194	197	4
184	213	1
161	167	2
14	18	1
153	159	2
188	191	1
180	184	1
150	179	1
74	83	1
195	236	2
76	76	2
44	64	1
18	46	1
224	225	1
38	39	2
182	209	1
14	112	2
174	179	1
47	49	1
6	89	1
40	235	1
177	184	2
241	242	1
95	97	1
70	95	1
9	36	1
153	155	2
244	245	3
9	16	2
216	240	2
55	59	1
223	226	1
112	113	1
161	218	1
46	59	1
108	246	1
22	204	2
25	31	1
39	145	1
222	223	4
87	109	1
82	115	1
65	118	4
36	55	1
120	120	4
173	211	2
62	64	1
51	58	1
71	86	3
83	86	2
161	202	1
159	175	1
5	243	1
156	219	1
16	17	1
179	191	1
10	11	1
98	121	2
109	120	1
202	208	1
101	107	1
61	64	1
208	213	1
208	217	1
161	183	1
81	235	1
42	226	1
156	202	1
240	246	1
87	93	1
5	6	1
147	226	1
117	168	1
10	17	1
29	244	1
5	50	3
3	5	1
169	196	1
61	63	2
106	120	1
192	212	2
59	229	1
15	21	3
99	102	1
154	155	1
156	218	2
161	180	1
4	57	3
181	183	1
229	231	1
56	70	1
27	159	1
8	33	1
238	246	2
46	235	2
117	155	1
9	112	1
19	38	1
96	99	1
166	167	2
59	60	1
244	246	2
66	67	3
242	243	1
12	17	1
66	72	2
197	199	2
224	228	1
165	178	1
68	72	1
94	95	1
183	216	1
216	218	1
178	212	1
158	184	1
205	245	1
4	38	1
203	234	1
59	61	1
155	228	1
57	60	1
214	234	1
204	235	2
213	236	1
185	201	1
73	95	1
117	238	1
46	82	1
28	228	1
202	244	1
74	75	1
90	112	1
73	75	1
203	237	2
164	173	1
43	89	1
39	48	2
28	29	1
10	22	1
163	166	1
31	34	1
158	210	1
90	119	1
14	213	1
41	46	1
88	245	1
4	49	1
115	118	1
41	50	1
24	66	1
225	241	1
195	238	1
244	247	1
172	198	1
3	66	1
167	229	1
187	195	1
40	61	2
8	25	1
157	221	1
105	120	1
46	83	1
183	185	1
209	224	1
5	60	1
186	187	1
61	240	1
159	174	1
16	234	1
166	181	2
60	66	1
162	178	1
96	107	1
10	36	1
149	177	1
18	20	1
154	156	1
166	184	1
115	168	1
