57	58	7
71	71	26
42	43	8
65	66	4
98	100	8
31	31	16
66	66	28
88	88	13
56	56	15
39	39	12
26	27	11
62	62	30
76	76	15
22	53	5
50	50	37
25	25	12
58	67	4
80	80	15
41	41	27
48	48	22
95	98	7
65	65	29
92	92	29
63	63	59
48	50	10
48	57	4
81	81	34
79	81	8
92	93	5
51	55	6
82	82	13
70	70	38
96	98	3
78	78	18
69	69	18
69	74	2
98	98	15
64	64	21
84	84	4
42	42	21
71	78	1
71	72	13
64	70	1
72	72	15
93	95	3
101	101	30
56	57	19
91	93	2
46	47	7
84	86	4
89	89	15
57	57	25
96	96	24
37	37	3
100	100	7
63	79	2
79	79	20
20	27	7
56	59	1
79	80	21
102	102	10
36	37	14
37	38	6
82	83	6
60	61	9
52	52	19
95	95	47
91	92	7
67	67	20
73	73	30
78	79	8
25	28	4
47	47	10
35	35	31
54	55	8
85	85	18
85	86	8
23	23	12
60	60	32
34	34	15
69	78	2
68	68	27
26	28	2
86	89	6
55	56	9
97	97	11
79	85	5
35	36	5
43	43	14
61	61	15
27	27	12
92	94	7
80	81	12
53	63	4
44	44	23
94	94	20
68	71	2
90	90	11
74	74	22
34	35	5
92	100	3
54	54	10
86	86	11
22	22	4
100	102	4
83	84	4
77	77	21
83	92	3
98	99	6
38	38	12
76	77	8
45	45	19
27	28	2
99	99	26
89	91	4
49	50	13
76	79	3
46	48	4
55	55	22
47	49	1
88	95	10
40	40	23
59	59	16
41	42	12
64	65	7
80	92	1
58	58	24
87	87	19
88	102	1
75	76	6
86	98	3
45	46	7
99	101	6
95	99	4
64	85	5
68	69	6
72	74	1
35	37	7
51	51	15
95	97	4
46	46	19
89	100	2
75	75	22
43	59	3
53	55	7
81	84	1
91	91	16
67	70	1
53	53	18
101	102	4
88	98	1
36	38	4
33	33	21
94	98	6
44	45	5
33	37	4
43	44	14
30	30	6
52	55	1
33	50	5
74	75	5
81	83	4
69	90	2
97	100	3
99	100	5
37	39	1
91	99	2
47	48	7
28	30	1
57	64	1
33	34	5
86	87	2
22	23	1
58	59	6
88	100	2
24	27	4
86	88	5
48	49	2
45	63	2
25	27	4
61	62	6
29	29	7
86	97	2
49	49	13
51	52	3
79	82	3
93	93	14
26	26	12
32	32	3
25	26	3
72	73	6
52	93	1
68	75	2
83	87	1
50	51	8
36	36	8
81	82	8
65	67	2
69	70	5
62	63	5
94	101	1
96	97	16
95	100	3
53	56	2
45	49	4
89	96	4
52	53	2
40	41	4
93	94	7
63	64	4
87	88	4
49	51	3
78	84	2
90	92	1
52	56	6
62	64	3
70	74	1
59	61	2
83	83	5
77	78	2
24	25	3
55	58	1
38	55	1
24	26	1
85	89	5
71	73	3
50	64	2
45	47	2
73	74	2
96	99	2
44	73	1
44	62	3
95	96	4
87	97	2
38	39	6
31	33	1
82	84	1
79	89	2
79	94	1
52	54	5
53	54	3
54	58	3
84	95	1
89	90	2
91	101	3
83	98	1
71	90	7
20	22	2
84	96	1
38	52	1
41	43	3
42	44	1
67	68	4
29	31	1
41	50	1
66	68	1
24	24	3
88	89	1
58	61	2
30	49	2
48	51	2
78	85	1
51	57	2
78	80	1
56	58	1
58	63	1
70	90	2
96	100	2
83	95	1
78	81	1
81	89	2
57	62	1
46	56	2
31	32	2
30	31	1
67	74	1
94	97	1
70	71	1
31	34	1
28	28	1
57	69	1
57	66	1
68	70	1
28	29	1
45	52	1
