49	49	8
65	65	10
56	77	1
47	48	2
60	60	12
49	50	1
38	39	8
41	54	1
28	28	16
4	4	14
57	57	16
17	17	14
0	0	5
8	68	3
42	44	2
46	46	14
34	34	8
37	38	4
34	35	4
78	78	15
27	27	13
45	60	2
19	19	5
35	35	18
80	80	15
37	37	11
39	40	4
33	33	7
76	76	12
30	30	8
26	26	9
73	74	2
79	79	12
3	3	6
51	51	7
2	2	11
69	69	4
68	69	6
63	64	5
56	56	11
62	62	6
73	73	13
75	76	5
9	15	2
70	70	17
67	67	7
35	69	3
32	32	7
3	4	1
54	54	6
71	71	9
13	69	1
4	74	2
77	77	3
42	42	9
53	53	11
67	68	13
74	74	13
2	4	1
43	43	3
7	7	5
45	45	13
36	37	2
47	47	9
50	53	5
41	42	4
55	55	7
29	31	3
14	14	8
11	11	8
39	39	8
56	57	3
5	5	10
55	56	3
5	35	2
41	41	7
38	38	5
10	10	11
29	29	10
75	80	1
25	25	3
48	48	11
50	50	11
4	29	1
39	45	2
77	78	3
9	57	2
35	36	2
16	16	9
37	58	6
27	73	2
53	55	2
16	21	1
2	63	2
6	62	2
40	41	5
3	6	1
33	34	2
1	1	1
63	63	7
58	58	5
66	66	8
59	59	5
1	73	2
72	72	4
9	9	11
10	14	2
65	69	1
40	40	7
75	75	12
5	48	1
61	62	1
8	8	7
37	79	3
54	55	3
27	63	3
13	13	7
10	15	2
6	7	2
52	52	8
30	52	3
18	18	7
2	3	2
49	52	1
78	79	4
12	12	10
41	76	2
18	60	1
0	4	1
74	77	2
9	10	2
32	33	4
6	50	1
74	75	1
31	31	3
65	77	2
34	69	2
30	32	1
66	67	2
71	72	1
66	68	1
28	47	2
73	75	4
25	26	2
73	78	1
6	6	3
42	45	1
61	61	2
50	71	2
51	52	2
42	43	3
35	61	1
56	74	2
27	28	1
11	53	2
47	79	1
15	29	2
31	52	2
15	15	1
55	58	3
1	2	2
36	36	2
2	5	1
21	60	1
33	60	1
31	32	2
46	47	1
14	15	2
55	76	1
7	75	2
30	31	1
49	72	1
31	59	3
25	66	2
48	62	1
13	22	1
40	75	1
32	59	2
21	21	1
31	34	1
49	51	2
64	64	1
68	68	1
69	70	2
11	13	1
55	57	1
9	26	1
18	48	1
55	72	1
75	77	1
31	33	1
