53	53	4
174	205	4
48	51	2
124	124	1
79	79	4
48	55	1
234	235	1
186	187	3
23	23	4
119	144	4
213	229	1
242	242	7
74	102	4
194	196	3
49	51	2
1	1	8
21	22	6
0	0	7
159	162	1
12	12	8
8	8	4
156	158	3
96	101	5
187	187	9
80	80	5
22	66	1
195	196	7
146	201	3
9	11	1
167	180	5
47	134	2
63	64	3
63	96	1
229	229	3
63	63	10
107	177	1
59	60	7
105	126	4
206	206	3
35	78	3
85	102	2
49	50	2
37	37	4
176	176	12
170	170	1
240	240	6
171	171	4
17	69	2
21	40	1
3	67	2
105	119	2
207	208	13
189	189	4
3	3	4
116	117	4
218	218	8
67	67	3
123	124	1
177	177	2
133	146	1
18	75	2
119	126	1
161	161	4
15	76	1
103	104	6
28	56	2
27	28	3
213	213	11
147	147	1
130	168	2
83	187	3
13	13	6
8	105	2
202	202	9
37	42	4
128	159	3
83	167	2
236	236	8
67	75	3
10	56	3
32	32	5
174	175	3
138	139	5
198	198	10
116	116	5
233	234	4
232	232	2
239	239	4
5	5	10
152	152	3
6	6	10
73	73	8
217	218	4
214	215	3
84	167	1
26	27	4
29	29	9
43	177	1
77	77	9
0	1	4
11	64	1
36	37	2
184	185	1
234	236	2
4	5	6
160	160	5
137	137	5
58	172	2
70	70	14
231	231	9
35	35	3
129	130	4
2	60	2
62	62	11
50	50	6
52	52	9
123	123	4
142	143	1
145	146	6
138	138	10
76	77	3
31	31	6
187	193	1
28	28	10
15	15	5
8	56	1
3	77	2
59	59	11
30	30	6
86	102	2
204	204	3
85	85	1
88	88	1
192	192	3
86	86	11
10	102	4
9	13	8
116	124	2
49	49	5
17	99	5
105	108	4
74	74	4
15	30	2
112	207	2
123	130	1
171	172	1
135	135	4
146	156	2
68	68	9
75	76	2
216	216	5
71	71	3
66	66	10
104	105	8
212	217	3
99	99	8
104	125	2
164	164	4
45	45	10
55	55	4
17	17	13
58	58	6
11	20	1
1	2	4
10	10	15
24	25	5
188	191	1
205	206	1
1	5	2
38	42	4
117	186	4
223	223	5
198	239	2
83	83	7
146	146	3
7	7	4
5	59	3
16	16	4
56	81	1
3	30	3
20	68	1
10	64	2
234	234	6
38	38	6
39	40	1
11	24	2
212	229	1
69	69	7
144	155	1
219	227	5
133	150	1
95	96	2
8	13	4
186	229	1
61	64	2
224	224	3
228	229	2
6	79	2
57	58	1
149	149	3
156	157	2
154	154	8
131	132	1
64	64	1
159	159	2
65	65	5
209	209	7
7	14	2
117	117	3
81	81	10
212	213	5
197	197	2
173	210	2
50	51	2
75	75	11
196	196	8
159	172	3
66	67	1
31	47	1
65	67	2
203	203	3
6	80	3
74	128	2
67	68	3
155	195	3
161	162	3
74	88	1
180	189	1
123	125	3
86	103	1
189	190	9
82	85	3
76	80	3
21	21	9
25	25	5
108	222	1
101	101	4
36	180	1
165	165	5
13	68	3
17	65	2
73	95	1
227	227	4
214	214	5
190	190	2
126	126	6
121	121	3
188	188	2
7	8	5
84	84	7
133	133	5
51	51	8
6	50	3
85	167	1
35	36	5
20	22	1
0	59	3
181	181	3
109	109	4
72	72	4
149	151	2
85	150	2
208	208	4
191	191	1
0	76	2
69	70	4
157	158	2
20	20	1
136	137	1
47	47	9
222	222	2
41	42	1
85	170	2
117	118	3
16	44	4
33	36	3
58	84	3
219	228	3
130	130	2
224	225	2
99	111	10
58	82	2
62	63	5
31	60	1
61	61	6
180	199	2
70	71	4
71	72	6
57	57	5
43	43	5
95	98	1
62	197	1
86	173	2
199	199	5
56	56	2
144	158	3
24	66	7
24	35	4
84	85	7
3	74	4
83	84	2
125	127	1
195	195	2
8	12	1
54	57	1
106	106	3
60	60	5
114	162	1
151	235	2
138	140	3
48	48	6
157	157	13
20	21	2
80	100	3
4	4	5
119	171	1
187	232	5
43	175	1
144	147	3
13	31	1
36	36	1
32	52	1
16	22	1
33	33	7
97	210	1
153	154	2
186	186	3
12	49	3
118	118	2
115	117	2
9	9	5
185	186	2
228	230	2
236	238	3
53	54	1
185	194	1
77	78	7
154	230	3
188	189	3
32	55	1
139	139	4
235	235	6
74	75	3
7	49	5
26	65	4
28	29	1
114	208	1
163	163	3
173	173	4
185	185	4
17	18	2
67	238	4
135	151	3
44	99	1
14	51	3
221	221	2
175	177	1
47	50	2
142	142	2
57	60	4
54	54	2
153	153	3
117	133	1
2	12	6
160	161	3
24	24	3
64	204	2
193	193	4
13	14	3
199	200	1
98	207	1
91	115	1
135	136	1
2	2	5
59	100	2
9	30	2
81	168	1
40	42	3
76	76	3
36	51	1
19	19	1
238	238	3
10	63	3
131	131	1
100	101	2
41	49	2
18	68	3
117	211	2
117	128	4
3	80	3
147	148	1
37	38	4
201	201	2
56	83	2
124	144	6
77	79	3
158	159	2
27	32	2
18	23	3
62	65	1
99	163	1
4	7	5
129	129	1
1	22	1
205	205	1
154	155	1
32	59	1
56	57	5
116	119	2
42	49	3
103	103	1
116	127	1
12	14	3
226	226	3
50	53	1
105	105	2
228	228	1
53	74	1
7	13	3
140	141	1
104	118	4
113	167	4
151	151	4
6	8	1
104	104	3
5	7	3
98	99	2
230	230	4
45	46	2
7	9	3
194	197	1
12	52	1
167	167	3
28	45	1
162	162	6
39	39	8
78	78	4
194	195	4
155	155	3
145	147	2
23	65	1
109	178	2
125	125	4
18	20	4
82	82	6
23	37	1
187	189	2
58	59	2
86	95	1
154	157	1
19	20	2
78	80	1
46	46	1
213	214	1
16	19	2
187	188	2
85	87	1
122	169	3
241	241	1
151	152	3
113	113	3
126	144	2
26	26	2
44	45	1
34	34	6
91	91	1
22	22	3
107	107	1
133	215	3
221	227	1
220	232	2
100	100	3
119	119	4
145	148	2
38	43	1
25	69	3
98	185	1
12	108	1
28	99	1
169	169	1
211	229	2
95	126	1
235	236	1
211	217	1
40	40	1
97	97	2
128	128	4
190	223	2
173	206	2
221	225	1
240	241	1
166	166	1
138	141	4
11	106	4
180	180	2
80	198	1
115	116	2
99	100	2
225	225	2
8	9	1
63	204	3
77	182	1
18	18	3
176	178	1
215	216	2
120	120	2
200	200	1
215	215	1
178	231	1
1	109	1
158	158	2
134	134	1
21	68	1
130	131	1
42	50	1
89	89	1
34	57	2
15	31	2
33	50	3
35	58	1
42	42	3
2	51	2
55	57	1
205	224	1
72	194	1
75	102	1
216	220	1
14	15	2
12	104	1
12	103	1
82	122	1
114	169	1
12	210	1
186	192	2
23	25	1
11	58	1
172	172	1
62	64	1
147	155	1
61	83	1
89	106	2
9	49	1
184	184	1
99	207	1
137	138	1
167	168	1
104	127	1
34	35	1
149	150	1
148	148	1
174	179	2
219	219	2
6	7	1
195	209	1
128	173	1
1	200	1
108	108	2
119	130	1
115	177	2
2	15	2
118	230	1
107	115	1
226	227	2
1	90	1
27	27	2
98	98	1
14	14	1
45	97	1
57	83	1
150	150	1
214	228	1
40	207	1
25	27	1
151	175	1
23	40	2
183	186	2
145	179	1
47	102	1
39	43	1
136	136	1
119	125	1
230	231	1
38	39	2
120	127	1
178	178	1
72	73	1
13	209	2
9	16	1
12	30	1
44	44	1
29	59	1
220	223	1
165	181	1
119	231	1
8	29	1
118	176	1
206	207	1
36	224	1
148	211	1
28	62	1
133	134	1
213	228	1
82	83	1
132	156	1
76	88	1
4	80	1
181	198	1
2	80	1
40	43	1
