71	77	5
57	57	5
22	22	4
5	6	4
49	50	2
75	89	4
48	51	4
68	68	4
75	84	2
62	62	7
11	15	1
46	46	4
48	48	7
63	63	9
74	74	8
54	54	10
18	18	2
24	24	10
3	3	9
54	82	2
55	55	8
19	22	3
2	2	8
15	16	2
61	61	6
62	63	6
59	62	1
19	57	1
16	17	1
66	67	2
85	85	5
79	79	2
9	10	3
51	53	3
55	56	4
70	70	3
49	76	2
72	74	2
64	65	1
12	12	6
7	7	5
50	50	5
81	81	8
74	75	4
65	66	4
56	56	5
31	84	3
80	81	5
11	17	2
17	20	6
8	25	3
49	60	5
1	1	6
5	13	1
53	54	5
6	6	7
64	71	2
52	52	7
86	86	4
50	66	5
7	12	1
28	28	4
82	83	2
57	58	4
78	80	1
21	21	4
23	25	2
0	0	2
7	26	1
26	26	2
58	58	4
7	8	3
10	11	2
10	13	6
9	9	2
30	30	6
60	61	4
83	83	4
46	50	3
51	64	2
13	13	10
87	87	3
21	24	1
78	78	5
25	25	3
54	55	5
60	62	3
23	23	1
77	78	4
71	71	11
12	13	1
63	79	2
54	73	2
25	26	4
89	89	6
63	64	2
54	77	3
10	10	5
64	66	2
73	80	1
14	14	5
68	69	4
10	31	1
85	86	5
49	49	6
56	57	4
31	31	3
7	10	2
73	74	2
67	67	7
7	13	5
60	60	4
20	20	6
53	53	6
50	65	2
13	18	1
84	86	1
78	79	8
73	73	9
88	88	1
0	1	2
84	84	9
27	27	2
2	28	2
66	66	1
47	47	3
85	87	1
48	49	4
11	12	3
82	82	5
9	71	1
80	80	7
56	58	1
89	90	1
23	24	2
72	72	4
76	76	4
6	7	3
52	65	1
4	4	2
8	8	2
48	53	2
75	75	8
69	69	3
25	27	1
81	84	1
29	29	2
59	63	2
10	18	1
58	61	1
15	15	5
71	72	2
55	80	1
58	60	4
19	19	1
50	51	1
33	33	1
31	79	1
49	81	1
56	78	1
61	72	1
77	77	2
10	12	1
10	57	1
51	51	1
16	16	1
28	29	2
55	61	1
26	48	1
35	35	1
62	64	1
71	75	1
54	65	1
23	26	3
57	72	1
53	60	1
59	59	3
7	17	1
6	11	1
77	83	1
2	3	1
50	74	1
6	18	1
77	80	1
79	80	3
9	15	1
8	48	1
65	65	1
88	89	1
53	78	1
27	31	1
13	20	1
46	47	1
51	52	1
