11	11	5
110	112	3
40	109	9
107	107	4
68	68	13
98	98	11
79	79	2
39	39	9
20	21	2
31	31	15
116	117	2
8	10	11
87	87	9
76	76	8
132	133	1
9	11	4
67	67	11
19	46	1
21	21	12
149	149	12
64	64	16
128	128	15
38	38	16
107	108	3
104	104	2
75	75	5
40	45	3
6	16	1
123	124	5
8	15	5
44	44	5
20	22	1
34	34	8
101	102	6
70	70	17
38	39	6
13	13	5
57	57	5
48	48	22
132	132	4
8	8	10
22	22	9
71	71	14
74	74	5
129	130	6
10	12	3
138	139	2
16	16	8
130	135	1
77	77	6
84	84	3
76	149	2
103	104	7
49	49	13
75	76	8
17	19	5
52	52	5
66	66	6
26	26	9
93	93	3
40	40	18
104	105	3
58	58	9
75	77	7
31	100	3
66	67	7
25	26	5
18	32	4
98	99	9
17	18	2
18	19	4
99	99	18
76	77	3
73	73	4
35	35	7
116	116	1
103	103	6
41	46	1
106	109	1
82	82	8
81	81	12
20	24	1
80	80	4
69	70	3
27	27	3
18	18	14
64	68	3
14	14	12
125	126	2
119	132	2
151	151	6
37	40	3
118	148	1
85	85	5
124	126	3
133	133	5
97	97	3
73	112	2
131	131	3
102	102	3
70	106	4
26	27	8
120	120	5
136	140	1
45	45	3
106	141	1
96	97	5
10	10	6
6	6	2
85	86	3
51	51	5
41	42	8
153	153	4
78	78	11
106	106	6
4	4	4
25	35	5
137	137	2
96	96	9
19	20	3
5	6	1
72	72	3
80	142	3
3	3	5
120	122	2
92	99	1
122	122	6
83	83	1
36	36	5
67	68	2
139	139	3
7	10	2
124	124	3
41	41	4
141	141	3
92	93	5
65	69	1
23	23	21
22	23	1
56	57	2
19	19	5
69	69	5
69	77	1
147	147	6
71	73	2
54	54	2
141	143	1
6	7	10
115	115	3
113	113	4
13	15	2
50	50	4
9	46	1
146	148	1
65	75	1
135	135	7
133	134	2
9	9	14
39	45	6
94	95	5
65	65	1
24	24	12
149	150	4
109	109	7
47	48	2
21	22	4
53	53	8
33	33	4
92	92	3
129	129	2
143	144	4
94	96	1
40	53	1
126	126	1
7	30	3
138	141	1
4	6	3
46	48	2
119	119	6
40	41	1
55	55	6
152	153	1
148	149	4
4	14	1
28	28	7
116	119	2
43	43	7
36	37	3
83	84	1
46	46	14
8	9	2
34	36	1
154	154	3
7	7	5
95	95	2
64	65	8
37	37	4
112	112	1
4	17	1
38	41	1
127	127	6
31	32	3
42	43	1
94	94	3
23	25	2
2	2	3
95	120	3
62	62	8
95	96	3
56	56	2
70	71	1
124	125	4
39	40	6
152	152	6
14	15	5
15	15	6
12	12	5
65	66	3
20	20	3
10	11	3
10	13	1
113	114	2
16	17	3
24	29	3
94	100	3
102	105	2
57	58	1
49	50	3
46	47	1
68	69	5
64	95	1
29	30	1
81	143	2
76	83	6
75	87	2
143	143	2
42	42	5
45	46	4
145	145	1
7	8	2
106	107	5
122	123	1
96	112	1
56	133	3
34	35	2
73	83	1
71	145	2
123	123	2
17	17	5
39	41	2
23	24	1
136	137	2
13	25	4
9	10	1
47	47	1
3	93	2
100	101	3
101	101	1
4	5	2
130	131	1
86	88	1
62	64	4
141	142	2
64	67	1
32	33	1
55	56	1
12	22	1
3	18	1
148	148	2
108	108	1
33	42	2
125	125	1
66	91	2
30	30	1
9	67	2
30	34	2
57	71	1
46	53	2
24	25	2
38	149	1
95	97	1
93	114	1
96	113	1
99	100	3
12	15	1
39	50	1
33	34	1
130	130	2
72	87	2
39	42	2
144	145	1
11	12	2
2	92	1
24	34	2
54	55	3
41	86	2
106	110	1
69	71	1
33	35	2
121	121	3
117	118	2
110	110	2
13	14	1
19	44	1
142	142	1
12	14	1
34	100	1
46	58	1
82	83	1
31	48	1
109	110	1
36	66	1
55	80	2
54	57	4
40	117	1
55	81	1
41	43	2
34	69	1
104	112	2
12	66	2
43	45	1
44	84	1
4	18	1
62	63	1
91	91	1
43	44	2
111	111	1
63	63	1
81	82	1
136	136	1
97	98	1
73	74	3
41	151	1
77	78	1
121	122	1
86	141	1
66	144	1
123	130	1
4	10	1
138	151	2
112	113	1
9	40	1
86	86	1
5	29	1
25	25	1
4	23	1
