119	119	8
61	62	2
133	138	3
150	150	6
139	144	3
132	139	6
73	88	9
45	45	10
87	98	4
101	101	5
130	130	11
88	88	8
41	41	11
123	127	4
72	72	13
95	114	2
112	127	3
53	53	5
65	66	7
104	106	2
112	113	4
120	127	3
62	85	2
139	139	2
136	137	3
129	129	8
43	50	2
8	9	5
41	53	5
111	111	6
16	31	4
23	23	5
145	147	11
86	86	7
34	38	6
124	144	5
11	11	10
65	65	3
121	124	3
32	33	1
73	73	8
68	75	2
123	123	7
113	114	5
145	145	6
89	105	2
106	106	13
68	69	13
9	9	13
76	76	2
150	154	2
94	94	2
29	29	7
36	37	7
12	12	3
79	79	5
131	131	8
21	21	6
85	85	9
139	142	1
10	23	1
100	106	1
32	102	2
110	113	3
126	126	7
123	141	5
34	67	1
63	64	13
78	78	8
4	4	2
42	42	7
48	48	6
14	14	13
12	13	3
90	99	5
38	54	2
41	64	1
76	77	5
83	83	12
148	149	4
124	124	9
109	109	3
93	93	9
130	131	3
78	84	4
69	71	1
69	70	2
140	143	3
154	154	4
120	123	1
88	96	3
24	24	5
45	46	4
126	145	4
66	75	4
31	35	3
36	36	7
153	153	3
129	131	4
127	128	2
42	43	2
86	98	2
74	84	3
74	76	1
25	122	2
107	108	2
99	99	3
80	84	2
148	148	7
19	19	4
47	53	4
44	49	2
47	49	6
75	77	4
98	99	2
67	75	1
26	123	1
149	150	2
63	63	6
67	67	10
5	5	17
23	26	1
54	54	6
146	148	2
38	40	1
104	111	2
69	77	5
33	33	7
68	68	4
68	71	3
64	80	5
15	16	2
2	5	3
61	67	2
64	64	6
147	148	2
26	27	2
124	138	2
103	104	2
30	32	4
11	12	4
16	20	1
31	32	7
122	122	11
18	19	5
75	75	7
132	132	9
37	37	5
103	105	1
120	120	8
71	71	10
77	77	2
99	105	3
146	146	6
142	144	2
25	25	9
66	67	1
116	116	5
110	111	6
118	118	3
35	35	9
80	83	1
6	122	3
146	147	2
16	42	2
81	81	12
131	140	1
10	11	1
151	151	3
72	75	3
132	136	1
107	107	8
50	50	3
20	20	13
82	82	10
87	92	3
99	104	8
128	128	2
70	71	1
142	142	2
39	46	1
8	8	2
28	29	4
108	108	5
108	114	2
84	84	10
35	68	3
55	62	5
17	28	2
139	148	2
152	153	1
14	15	1
144	145	2
21	29	3
134	135	2
147	149	2
44	44	2
36	38	5
38	38	4
36	66	4
114	114	6
111	114	3
4	5	3
75	87	2
7	7	5
100	101	2
80	80	3
46	46	1
105	112	2
30	30	3
85	110	1
70	70	6
12	14	4
31	31	1
17	17	7
57	57	3
5	8	2
21	22	3
144	144	6
22	24	3
13	16	1
36	68	3
65	67	3
105	106	4
4	7	4
40	41	1
94	97	4
87	87	2
141	141	4
40	40	6
29	30	4
93	97	4
105	105	6
28	31	1
75	76	3
15	15	5
28	122	1
126	127	2
92	92	10
51	57	1
115	115	2
104	108	1
10	24	2
62	74	3
38	57	1
102	102	1
13	13	5
111	112	3
64	65	1
39	39	4
138	138	6
47	47	1
136	138	1
2	9	1
29	121	3
54	55	2
21	31	3
28	30	2
27	31	2
12	24	2
4	6	3
127	127	1
25	121	1
35	36	5
55	55	4
138	142	3
140	141	1
43	43	1
80	94	1
11	140	1
41	52	1
56	96	3
110	110	5
18	18	1
139	145	1
51	63	1
40	65	1
81	83	3
85	104	2
69	69	3
32	34	2
71	93	1
40	43	2
11	15	2
38	39	3
10	16	1
50	51	3
32	32	4
147	147	1
19	20	2
96	97	2
109	115	1
122	141	1
10	10	1
65	71	4
143	143	1
74	85	1
16	16	2
27	29	5
98	98	1
27	28	2
126	128	2
136	136	1
24	25	1
117	118	1
18	30	1
101	103	1
80	96	3
129	133	2
138	139	2
145	148	1
84	95	2
100	103	2
135	136	1
119	123	1
146	150	2
39	40	3
5	7	1
53	54	3
135	135	1
61	61	2
111	115	1
17	18	1
134	134	4
49	51	1
74	74	1
57	58	2
11	14	2
7	8	1
34	35	2
85	88	1
88	98	3
56	58	1
64	66	1
119	120	2
64	76	1
64	67	2
3	7	3
149	149	2
13	23	1
127	132	2
119	141	1
96	99	1
51	51	1
133	133	1
90	90	1
103	112	2
49	49	3
22	22	2
152	152	3
94	111	1
76	84	1
97	99	2
45	47	1
31	33	2
120	122	1
120	124	1
55	56	1
150	151	1
125	127	2
58	58	1
105	111	2
85	87	1
4	8	1
100	100	1
119	125	1
51	68	1
27	27	1
153	154	1
3	4	1
131	148	2
108	110	1
103	103	1
63	80	1
27	30	1
56	61	1
131	152	1
3	3	2
116	124	1
34	37	1
121	121	2
51	64	2
122	123	1
53	96	2
142	149	1
41	47	1
71	72	1
121	126	1
79	86	1
150	152	2
139	140	1
