89	89	8
107	107	5
42	42	7
103	103	7
68	68	9
128	128	6
152	152	16
133	133	4
139	140	7
153	153	12
68	76	3
101	101	7
16	26	3
88	88	17
174	174	6
138	149	1
17	25	2
24	24	7
109	109	12
60	61	2
27	28	4
86	86	5
130	130	7
90	90	9
150	151	5
110	110	10
70	81	5
169	169	6
104	118	3
149	150	5
138	146	2
182	182	7
66	66	5
84	84	10
178	178	4
100	100	6
140	140	12
162	162	7
173	173	6
21	29	1
141	141	20
70	70	5
57	57	8
104	104	6
16	16	10
122	122	5
25	25	9
160	160	1
3	3	9
15	36	2
77	77	12
24	25	10
129	130	1
32	45	1
30	32	4
129	129	9
73	128	3
156	157	7
6	6	13
15	31	2
101	122	3
37	37	4
10	11	5
62	62	3
166	166	9
94	137	3
86	110	3
139	139	12
125	125	3
117	118	2
184	184	7
115	116	1
100	103	1
112	112	9
156	156	6
53	55	1
29	30	4
74	74	8
141	144	2
14	15	6
21	21	3
30	34	2
149	156	1
163	176	3
82	82	5
15	15	10
127	127	13
93	93	5
125	126	4
138	138	7
134	135	5
44	44	3
96	100	3
10	10	3
129	161	3
95	99	2
142	143	4
89	90	1
102	104	1
23	23	20
13	13	8
71	72	2
113	113	6
86	109	2
153	154	1
30	31	4
35	35	3
39	39	8
90	99	4
142	142	4
79	79	9
8	35	1
106	112	2
91	103	2
95	96	1
144	145	2
136	136	2
158	158	8
45	45	2
144	144	5
12	12	1
72	72	3
121	121	6
151	151	6
96	96	2
101	111	2
44	45	3
27	27	7
8	47	1
159	159	4
2	2	3
164	165	1
19	22	4
185	185	3
38	39	6
181	181	6
8	8	4
45	47	4
134	134	4
110	114	1
65	80	1
0	0	1
18	18	4
156	158	3
38	38	8
161	181	1
171	171	5
71	71	4
47	47	3
102	102	5
32	33	2
76	77	5
18	19	4
150	150	5
143	143	8
179	180	4
135	137	4
64	64	7
104	106	2
168	168	4
41	42	3
39	40	1
120	120	5
34	34	8
158	162	2
76	76	3
72	75	2
48	53	1
163	164	7
0	1	6
154	154	10
117	117	4
188	188	2
110	125	4
165	165	4
146	146	7
135	135	4
138	147	5
87	87	5
16	39	1
116	116	4
61	76	3
130	133	6
48	48	11
78	78	6
35	36	2
95	95	9
102	120	1
135	148	2
188	190	2
84	85	2
179	179	3
95	97	3
12	148	2
83	83	16
145	145	6
150	158	3
60	60	3
5	6	2
54	54	2
17	17	2
68	70	3
148	148	5
8	36	2
135	136	3
67	67	6
8	33	1
56	57	3
11	12	4
87	88	1
128	129	2
83	84	2
70	71	8
99	99	4
146	147	1
139	146	2
24	42	4
31	31	6
172	182	1
40	40	9
147	147	4
88	101	1
20	20	2
142	152	1
109	110	3
88	110	4
126	126	5
89	102	2
5	5	4
7	7	7
91	92	4
132	132	5
101	102	1
124	125	3
55	55	3
102	110	3
46	46	9
64	65	1
56	88	2
161	163	1
28	29	3
63	64	2
155	155	5
114	114	4
177	177	4
53	54	5
169	170	1
36	36	2
104	107	1
78	89	2
20	22	2
97	115	2
94	94	2
93	94	1
58	58	4
56	56	3
30	30	4
123	124	1
57	109	2
73	73	2
19	20	1
124	124	3
19	19	4
91	91	5
11	11	1
109	112	2
78	79	1
187	187	5
80	80	2
79	80	2
60	75	3
152	153	3
81	81	4
151	152	2
165	179	2
97	100	1
143	148	1
89	188	1
190	190	3
61	75	1
171	172	3
34	35	2
161	161	1
59	59	1
61	63	2
149	149	2
170	170	2
41	41	6
174	187	1
163	163	4
105	118	2
73	74	2
80	82	3
108	108	1
45	46	1
180	180	1
143	164	1
122	123	1
148	151	2
105	105	2
97	97	2
92	92	3
47	48	2
186	187	2
115	115	1
103	104	2
148	149	1
102	111	1
107	108	2
92	93	2
63	80	3
164	164	3
137	137	2
164	180	3
176	176	3
74	75	2
16	24	1
110	113	1
184	185	3
131	131	2
28	28	2
105	106	3
157	158	3
138	165	3
98	98	2
17	26	1
137	138	3
133	136	1
111	130	2
48	49	2
189	190	4
62	63	1
54	55	2
23	42	1
113	131	1
104	114	2
63	75	2
5	9	1
181	182	1
119	119	1
75	76	2
8	9	3
89	95	1
116	117	2
108	109	1
133	135	1
161	162	1
141	142	3
131	134	2
35	37	1
140	141	1
23	24	4
123	139	2
7	39	2
171	182	1
106	106	4
112	166	1
105	112	1
17	39	1
52	52	1
112	113	1
85	85	1
88	114	1
111	111	1
67	68	2
66	67	1
61	61	1
123	123	2
90	138	1
186	186	1
14	14	1
65	65	1
114	116	1
154	173	1
67	90	1
147	154	1
31	35	1
69	70	1
43	43	1
40	41	1
17	38	1
67	80	1
1	1	2
183	184	1
24	40	2
57	58	2
25	39	2
150	155	1
26	26	1
100	122	2
20	21	1
29	29	1
175	176	2
174	182	1
31	32	1
90	139	1
150	152	1
55	56	1
59	63	1
124	139	1
72	76	1
152	159	1
153	179	1
157	157	1
118	118	1
144	163	1
147	148	1
89	139	1
130	131	1
153	167	1
22	22	1
140	148	1
