17	17	13
48	48	36
32	33	3
66	78	4
25	53	2
13	52	5
55	55	14
66	68	7
63	63	15
73	74	5
40	40	15
11	11	5
50	53	4
60	60	7
10	12	3
62	73	6
5	6	3
9	75	1
45	46	3
12	42	3
67	69	5
21	21	13
53	53	10
66	77	5
8	12	4
64	64	11
73	73	8
14	14	8
37	46	2
20	68	7
67	67	11
20	20	6
28	28	15
50	65	4
57	58	6
72	72	10
71	72	7
26	69	2
21	54	4
8	8	13
70	70	15
37	37	12
32	32	18
55	59	7
1	33	8
49	49	5
0	0	8
5	5	6
9	9	14
12	52	6
20	75	7
0	21	10
54	54	23
39	39	13
81	81	3
59	59	12
59	61	1
34	35	3
3	13	10
8	9	6
49	50	5
79	79	12
74	74	5
48	53	5
8	10	5
55	56	2
57	57	15
15	17	4
77	77	8
51	52	6
70	72	4
6	6	18
33	34	9
48	49	2
33	33	16
8	67	2
47	60	1
78	78	24
26	26	16
12	22	3
63	68	4
36	36	16
61	61	2
4	4	19
46	46	11
45	48	1
25	25	6
19	79	3
66	69	6
2	2	9
61	62	5
56	56	15
0	31	3
41	41	11
18	18	10
37	43	3
12	71	2
55	76	2
67	72	14
16	16	16
55	62	2
30	36	1
35	35	8
21	68	2
33	47	2
75	75	5
29	65	3
0	71	2
58	58	10
27	28	2
53	71	3
19	20	2
56	80	5
31	65	6
79	80	6
52	71	4
65	65	8
18	19	1
34	47	1
12	12	7
47	47	6
6	8	2
42	43	3
53	54	2
4	49	1
41	64	1
8	68	2
11	12	3
75	77	2
46	47	1
49	63	5
13	13	3
10	11	1
14	69	4
30	30	13
50	52	7
69	69	15
66	67	2
26	66	4
42	42	6
50	50	9
15	77	2
25	49	3
34	34	5
29	74	1
15	15	4
38	38	3
4	7	2
31	33	1
3	3	9
66	76	1
26	53	2
62	62	7
38	39	3
76	76	18
35	78	4
52	52	6
16	72	2
51	51	9
10	10	4
3	5	1
69	70	3
0	1	3
64	69	2
67	68	4
31	77	7
7	7	13
29	29	7
14	56	3
27	29	3
20	30	2
80	80	10
0	80	3
30	63	1
9	67	2
31	31	8
54	55	2
21	32	2
3	47	2
31	50	1
53	64	2
44	46	3
26	27	3
49	61	2
30	35	1
37	38	6
66	66	8
53	60	1
19	19	5
9	10	2
36	37	1
1	1	14
4	5	1
56	59	2
1	65	2
22	72	1
75	76	3
7	33	3
62	66	2
29	46	1
9	70	1
30	43	2
27	30	4
34	53	4
12	51	1
20	21	1
50	51	1
48	58	3
6	9	1
54	60	1
5	77	6
3	55	1
41	57	2
49	65	2
1	25	1
31	36	3
0	34	2
54	64	1
5	16	2
5	71	1
34	56	1
29	30	3
4	6	3
51	53	2
1	7	3
27	27	3
7	79	1
40	41	2
61	80	2
31	32	2
49	54	4
71	71	6
6	11	1
63	64	2
0	33	1
34	36	2
6	80	2
64	65	2
5	8	3
52	54	1
45	65	2
62	63	3
13	49	2
12	67	1
59	60	1
42	71	1
12	48	1
25	70	2
63	69	6
31	69	2
49	75	3
3	27	1
21	49	2
9	12	1
2	4	1
68	68	3
60	61	2
44	44	1
80	81	1
25	63	2
46	56	1
47	48	3
73	79	1
38	42	1
35	37	1
68	70	3
13	21	1
26	61	1
10	20	1
31	51	2
74	75	2
11	50	1
78	79	1
35	36	1
32	51	1
0	25	2
45	45	1
32	49	1
28	65	1
59	65	1
3	12	1
15	32	1
72	73	1
4	73	1
41	59	1
39	41	1
