32	32	7
87	97	3
15	15	11
115	130	5
103	103	5
118	122	2
66	66	1
77	84	4
117	117	7
106	106	6
50	50	1
120	120	5
17	18	1
61	62	2
74	74	4
58	58	3
10	10	2
31	31	6
80	80	1
118	118	4
60	60	5
100	101	6
9	9	5
29	30	1
39	40	4
47	47	5
115	115	5
88	89	1
76	104	4
59	59	8
11	12	2
129	129	8
57	57	3
95	96	2
71	71	5
52	52	3
20	89	3
111	124	3
24	24	3
98	98	4
123	123	6
114	114	12
45	45	7
72	72	2
21	21	2
64	64	11
110	110	7
70	70	9
6	32	3
51	51	2
19	19	4
97	97	8
8	8	8
130	130	6
33	33	6
126	128	2
44	44	4
29	29	6
49	49	12
124	124	7
33	43	2
88	88	2
3	3	3
101	101	2
94	95	4
43	43	3
87	96	4
76	76	13
42	42	11
125	125	8
80	81	1
119	128	6
53	53	8
28	31	2
53	58	5
0	2	3
2	2	3
25	25	4
125	126	3
101	109	3
96	113	2
82	82	4
93	94	4
101	107	4
116	118	2
51	57	1
54	85	1
94	105	1
111	132	6
78	79	1
44	68	3
18	19	4
41	41	4
90	90	3
98	126	1
11	11	4
16	16	3
99	99	4
94	94	9
23	23	5
45	68	2
12	40	1
38	38	1
53	54	5
1	12	2
113	124	2
55	55	1
102	102	7
95	95	6
86	86	3
8	9	2
93	93	3
10	11	3
18	21	3
96	117	3
106	107	5
54	54	5
85	85	2
107	133	2
79	79	6
28	28	9
104	106	1
30	30	1
109	109	1
115	131	2
63	71	3
56	56	8
63	63	4
119	119	4
108	108	3
97	98	3
107	107	7
64	67	1
111	111	1
130	131	4
47	72	3
90	105	2
41	42	4
95	113	1
48	48	6
102	103	4
117	130	2
89	89	1
76	94	1
69	72	3
25	78	1
6	6	3
116	131	3
112	113	1
27	28	3
61	61	6
7	7	1
116	117	2
113	113	3
21	39	4
28	29	1
46	46	6
80	89	2
65	66	5
2	7	2
18	18	1
31	44	1
62	74	4
82	83	1
44	45	3
8	31	3
24	26	2
40	96	2
34	34	1
87	89	3
13	13	1
25	27	1
16	77	1
84	85	7
67	67	2
100	100	3
121	121	2
122	122	1
125	130	2
93	95	2
13	14	1
40	40	2
116	116	6
81	81	2
126	129	3
69	69	2
105	105	4
91	91	4
113	114	1
109	110	1
90	91	2
85	86	1
40	43	1
86	87	1
106	115	2
132	132	1
3	29	1
115	116	1
67	68	2
76	80	1
64	69	1
43	116	3
14	14	1
96	97	1
89	91	2
59	60	1
65	65	4
96	96	1
0	45	1
0	3	1
20	20	1
103	104	1
73	73	2
114	117	1
16	17	1
120	123	1
13	15	1
45	48	1
117	124	1
9	10	1
52	53	1
3	30	2
25	125	2
40	87	1
62	62	5
26	26	2
78	78	1
56	77	1
17	17	2
108	109	1
48	49	3
92	112	1
22	24	2
95	131	1
0	0	2
0	1	2
58	79	2
40	88	2
1	1	1
104	108	1
53	108	1
68	68	1
43	73	1
44	72	1
44	118	1
45	46	2
101	103	1
55	57	1
84	84	1
25	79	1
119	120	1
75	103	1
127	127	1
131	132	1
46	47	1
117	125	1
