25	25	11
21	21	24
83	85	2
33	36	5
32	32	10
93	94	5
96	98	1
49	83	4
50	51	6
83	95	4
45	45	4
46	96	1
33	33	17
59	59	21
92	92	21
25	94	6
85	85	8
55	77	2
37	61	5
88	89	2
95	95	16
27	27	13
29	29	21
90	91	5
94	95	5
99	99	17
34	77	4
63	63	10
79	80	8
86	86	12
56	56	16
46	46	6
51	51	8
26	26	14
97	97	16
48	49	8
57	57	16
60	61	7
44	45	8
76	76	11
62	63	7
35	35	22
71	72	6
84	95	4
103	103	7
42	42	5
29	49	6
64	64	17
74	74	11
84	89	3
96	96	10
25	26	2
55	55	10
65	65	6
20	48	4
84	84	13
33	34	1
86	94	4
98	98	24
34	73	4
36	36	5
76	86	1
20	21	3
28	28	9
89	89	15
65	66	6
56	57	8
61	63	4
30	67	4
72	72	5
92	93	4
34	34	8
79	81	1
57	58	3
69	69	11
54	89	1
31	31	15
20	78	1
67	67	5
83	83	11
68	68	10
85	86	2
71	71	32
32	107	1
82	82	3
87	89	2
42	56	1
22	97	5
54	54	14
97	98	13
83	86	2
88	88	7
26	40	3
27	28	2
80	80	11
60	60	10
39	44	1
70	71	7
47	67	6
50	50	9
45	59	2
47	47	8
22	31	9
89	94	1
21	78	2
58	81	2
23	23	10
41	42	2
39	39	21
46	107	2
79	79	14
42	45	3
48	48	17
91	91	13
66	66	12
62	62	10
53	53	19
37	66	6
36	37	3
21	23	2
70	74	4
94	94	4
45	46	2
58	58	7
34	62	1
93	93	10
101	101	21
39	45	1
30	82	3
99	106	5
73	73	13
95	106	3
21	44	1
95	97	8
102	102	10
66	67	8
24	42	1
34	39	2
78	78	9
68	75	2
53	88	3
97	99	4
83	87	1
50	79	3
37	37	9
61	61	10
78	79	7
66	82	2
30	30	5
47	78	8
53	54	8
42	44	5
85	100	1
55	58	2
29	41	3
58	101	1
40	46	1
100	101	6
80	81	1
33	46	2
85	94	6
95	100	2
98	99	3
40	40	10
30	49	5
39	67	1
22	22	14
81	82	2
40	78	2
77	78	2
35	77	1
32	38	1
33	82	2
100	100	5
31	58	1
29	80	1
83	88	3
43	45	2
24	24	5
41	43	1
56	86	1
37	40	2
44	44	3
84	85	8
84	94	1
31	36	4
87	87	11
20	20	8
39	62	3
58	60	1
40	41	6
52	52	6
52	69	2
90	90	14
49	49	7
69	70	2
23	24	2
87	88	2
48	82	1
64	67	3
99	100	2
31	32	2
28	84	2
42	52	1
31	44	3
60	65	2
83	84	4
26	28	5
55	56	4
25	30	2
55	104	3
65	80	2
50	53	4
107	107	7
52	81	1
47	63	3
105	105	4
68	69	8
76	77	1
21	36	1
96	97	3
75	75	4
70	70	6
25	27	2
45	87	1
50	56	2
48	54	3
43	44	1
104	104	3
46	60	2
95	96	4
61	62	12
81	81	4
36	44	5
88	90	1
89	90	2
44	48	2
34	80	1
39	42	1
48	83	3
47	49	2
53	79	2
86	87	2
88	91	1
30	98	1
61	68	2
101	102	1
27	94	2
51	54	2
89	104	1
72	75	1
35	36	2
29	42	2
64	78	3
72	73	2
46	59	1
49	50	1
46	49	3
51	69	3
23	27	1
31	46	1
86	89	1
40	48	1
85	87	1
82	83	2
106	106	2
85	89	4
86	95	1
46	48	1
33	43	2
20	97	2
46	58	1
45	58	1
105	107	1
104	105	4
82	88	2
66	72	1
68	74	1
20	29	1
96	99	1
38	38	3
45	88	2
22	90	2
31	68	3
50	65	3
39	65	1
65	81	1
47	48	2
60	69	1
59	62	1
26	95	1
25	39	2
34	61	1
45	90	2
85	88	3
68	77	1
41	41	2
32	46	1
52	71	2
82	106	1
51	52	1
64	81	1
40	43	1
58	105	2
95	98	2
66	87	1
83	98	2
38	39	2
30	60	2
67	78	1
25	28	1
101	104	1
75	76	1
46	47	1
26	27	3
106	107	2
29	30	2
82	96	1
46	82	1
59	69	1
46	78	1
88	93	1
60	63	1
25	40	1
91	93	1
29	39	1
65	87	2
75	91	1
45	60	1
63	67	1
46	79	1
30	93	1
22	23	1
21	39	1
32	37	1
51	71	1
69	74	1
64	77	1
65	68	1
20	99	1
43	43	1
94	96	1
77	77	1
31	60	2
50	52	1
52	53	1
