83	84	7
160	160	11
8	91	1
198	227	2
45	45	13
149	150	4
62	62	15
210	210	7
194	195	5
8	177	3
11	11	13
144	145	11
52	52	6
83	83	8
152	152	3
134	136	4
29	30	5
30	30	5
48	69	3
224	224	10
50	50	19
161	161	13
128	128	5
151	151	4
88	88	11
219	219	13
146	147	5
186	220	1
76	76	14
136	137	5
25	25	6
191	236	1
241	241	10
20	20	13
135	160	15
118	119	5
66	66	22
133	134	2
147	212	2
122	125	2
4	4	15
124	124	10
167	204	1
31	41	8
42	42	10
80	80	12
64	64	12
16	16	8
51	52	8
42	79	4
156	156	4
136	237	3
48	48	8
100	100	16
80	81	4
137	137	5
179	179	8
70	70	10
71	71	7
208	209	2
45	46	7
40	40	17
60	60	12
174	195	9
20	21	4
138	180	1
53	53	11
71	72	3
144	144	11
58	78	1
43	44	4
39	39	12
184	184	9
165	166	1
85	85	6
191	191	11
171	171	11
79	79	9
21	79	3
99	99	12
116	116	5
129	131	1
203	204	1
121	129	8
205	205	7
71	76	2
191	194	2
1	3	1
38	48	2
186	223	1
105	105	9
163	206	1
235	235	8
134	134	6
61	86	1
177	177	13
95	95	4
25	26	8
30	32	2
81	81	19
29	29	20
7	8	7
35	35	5
72	72	12
2	105	1
198	217	3
213	213	15
207	212	2
198	198	12
10	10	17
154	240	1
221	221	9
136	138	3
150	152	5
9	100	4
78	78	5
163	241	3
3	36	1
21	39	1
155	155	10
117	117	13
129	129	14
227	227	8
101	101	11
86	86	16
116	118	5
88	108	3
52	53	5
215	215	9
74	75	9
79	84	3
27	27	25
67	67	15
88	110	1
179	184	3
3	3	16
55	55	10
8	87	1
122	122	6
233	233	7
200	201	2
186	186	23
32	32	6
119	120	5
162	162	9
218	218	6
199	211	2
43	43	25
25	70	2
120	175	2
24	98	4
34	35	12
184	219	5
176	216	3
107	107	2
227	230	1
123	124	3
181	181	11
201	217	3
65	67	4
203	203	13
33	75	4
121	170	2
58	58	16
29	51	3
184	186	3
161	162	4
0	0	12
136	233	4
14	18	1
133	133	9
65	65	5
23	23	16
17	18	5
59	60	17
56	56	9
172	172	11
114	114	1
189	189	4
115	118	4
141	141	13
54	54	7
31	31	7
190	190	10
15	15	6
217	220	1
102	102	28
6	6	13
189	190	4
238	240	1
203	234	2
28	28	13
18	19	2
73	73	14
181	182	6
24	48	5
180	197	2
24	102	1
18	18	12
9	153	1
187	188	4
168	168	9
136	136	6
42	45	3
118	118	12
140	140	11
216	216	6
46	46	10
80	83	5
137	139	1
153	154	2
191	223	4
125	127	4
214	215	5
144	147	2
63	63	3
21	22	7
68	68	6
135	135	9
206	206	10
56	75	4
21	83	4
173	173	8
208	219	1
221	228	2
225	225	5
119	136	1
200	202	2
195	195	7
140	141	3
49	50	4
57	57	17
211	213	2
12	12	9
97	97	9
13	13	11
24	75	2
148	148	7
11	100	4
224	225	1
8	178	4
57	62	4
167	168	1
61	61	6
16	17	9
112	113	1
204	206	6
169	169	7
125	125	12
36	103	2
30	99	2
237	237	12
37	76	2
126	186	1
29	65	2
153	159	1
12	179	2
128	171	1
11	40	1
4	22	3
11	12	2
75	75	11
84	84	5
29	74	1
0	41	1
164	164	4
208	211	3
187	206	3
177	179	10
158	161	1
125	126	7
232	232	13
56	57	9
19	20	13
22	22	17
170	170	10
22	107	2
45	56	1
176	177	2
149	207	1
188	189	2
100	101	7
232	233	3
19	19	7
238	238	7
33	34	3
29	35	1
84	85	3
7	7	11
217	217	13
5	7	2
199	222	2
187	223	1
86	154	2
138	165	1
6	39	1
128	157	4
120	229	4
188	206	4
146	146	5
8	40	2
22	23	2
55	76	2
142	142	13
149	152	1
7	18	2
8	11	4
73	87	1
102	103	1
154	155	5
19	36	2
3	106	2
184	185	6
62	63	5
6	65	3
107	108	2
116	119	4
73	74	2
119	181	2
75	78	2
24	24	14
9	15	4
130	176	1
201	201	8
51	76	3
197	197	4
38	38	8
150	150	11
182	182	7
13	15	3
77	77	4
41	41	2
20	78	2
74	74	4
81	82	6
35	99	1
104	105	1
192	192	6
53	207	1
42	43	2
96	96	4
165	165	9
49	49	10
18	23	5
187	187	2
34	95	1
231	231	3
120	120	9
188	188	12
121	121	3
200	200	7
51	71	1
31	89	2
223	224	2
21	21	9
96	103	1
44	44	9
64	65	7
12	13	9
212	212	6
122	184	1
138	138	8
119	119	6
229	229	7
32	38	2
226	227	3
139	145	3
1	1	4
207	211	2
153	156	4
54	173	2
185	186	8
31	48	6
108	117	3
208	208	12
57	58	5
233	237	1
148	160	1
120	121	3
222	222	6
69	69	3
11	86	2
164	165	4
27	47	1
193	193	13
226	226	3
59	59	13
9	10	2
55	113	2
169	241	2
124	187	5
36	36	11
220	220	10
78	80	1
77	80	1
63	68	2
21	84	1
9	11	5
200	221	3
17	17	5
174	191	3
13	16	6
10	11	2
134	135	5
204	204	9
110	110	4
198	216	1
39	101	3
159	159	1
195	196	1
77	79	5
154	154	1
113	113	4
128	230	1
51	51	7
48	53	4
14	14	7
221	223	5
129	130	9
15	56	1
240	240	8
210	217	3
12	40	2
2	2	7
66	67	4
230	230	5
106	114	1
103	103	6
9	86	1
214	214	5
34	34	4
203	211	1
191	193	3
239	239	3
63	64	4
157	157	4
206	207	6
122	127	2
75	77	6
47	47	7
184	200	2
41	52	1
211	211	6
109	184	2
1	104	1
6	9	1
61	62	4
147	148	2
166	177	5
213	227	2
10	162	1
20	42	2
64	71	2
104	104	9
163	188	3
153	155	4
143	147	1
106	115	2
236	236	6
184	220	1
167	179	1
141	142	5
200	217	2
26	44	2
178	178	3
174	174	9
95	104	1
5	6	1
142	157	1
134	154	1
72	73	2
60	76	1
166	166	4
145	145	12
121	124	2
135	139	1
210	216	2
148	149	1
49	75	3
48	65	3
26	39	1
9	9	11
67	106	4
0	15	2
143	239	3
70	76	8
88	112	3
24	99	3
150	151	2
34	36	3
70	74	2
46	61	4
130	130	2
122	224	4
65	66	2
39	86	1
36	44	1
23	65	2
158	158	5
217	222	2
33	33	9
19	78	2
238	239	2
154	159	1
18	22	1
8	12	3
139	139	1
157	158	3
9	36	2
28	37	2
47	48	3
26	26	6
127	167	2
131	230	4
143	143	5
23	101	1
184	221	1
116	140	1
40	41	5
96	175	2
185	185	7
214	227	2
81	83	3
106	106	3
50	69	1
176	176	5
3	15	2
5	5	6
223	223	9
203	206	2
161	164	1
137	235	2
226	230	1
59	83	3
14	17	3
199	213	2
115	115	3
12	177	2
128	158	1
124	125	5
29	82	3
19	95	1
214	216	2
153	153	8
162	163	4
6	7	4
11	32	2
172	173	1
117	118	4
121	122	7
158	160	1
123	224	1
137	164	2
37	37	8
8	16	1
21	23	2
9	28	1
103	115	1
178	195	2
32	114	1
13	33	2
176	220	1
166	167	3
131	131	3
109	109	2
15	86	1
55	81	2
24	25	4
119	121	3
32	53	2
127	170	1
201	218	1
49	82	1
215	229	1
167	169	2
209	209	3
216	220	1
41	46	2
0	42	1
168	169	4
5	17	4
31	80	5
201	211	1
14	16	4
174	175	3
54	215	1
167	167	2
0	1	6
38	39	5
54	55	3
1	110	2
20	76	4
46	47	1
242	242	5
207	207	5
123	167	2
190	191	2
218	219	4
38	79	2
219	220	1
15	17	1
44	81	1
211	215	2
26	27	2
58	85	1
160	161	3
32	39	4
180	215	1
124	127	2
48	51	2
12	33	3
82	83	5
190	230	2
53	70	2
183	183	6
69	84	3
50	51	8
117	119	2
231	232	1
40	52	3
239	240	1
120	170	4
78	79	4
62	196	2
174	207	2
143	144	6
188	220	2
15	16	4
18	31	2
0	2	2
66	68	4
51	60	1
51	72	2
117	180	1
68	69	3
31	32	3
176	207	1
37	39	2
153	170	1
28	40	4
32	52	3
193	195	6
29	102	4
32	81	1
67	69	3
51	59	2
175	175	4
125	166	1
20	83	2
154	156	1
72	75	1
42	83	1
96	182	2
5	14	4
91	91	1
142	198	1
82	82	4
122	170	2
9	35	1
128	228	2
225	228	2
121	179	1
41	42	2
147	147	4
58	60	6
51	68	3
112	112	2
0	18	3
6	11	3
98	98	2
53	54	2
7	20	2
127	128	4
136	149	2
4	7	2
49	61	2
7	34	1
47	86	1
9	99	2
23	107	1
201	202	4
98	99	5
76	77	2
190	236	4
159	182	3
139	140	2
159	162	1
137	138	4
30	48	1
99	169	2
183	200	2
164	242	1
185	223	3
24	69	2
44	46	2
48	52	3
14	23	1
48	49	1
54	56	1
75	76	2
119	229	1
115	117	2
27	74	6
169	183	1
42	46	1
180	180	4
36	48	1
85	86	2
3	16	1
212	213	1
57	75	1
114	116	2
221	222	3
19	107	1
52	105	1
209	212	3
186	206	2
38	82	2
36	79	2
103	105	4
48	50	1
113	177	1
205	213	3
57	59	3
169	170	2
30	60	2
25	171	2
160	177	1
202	228	2
152	153	2
40	46	1
58	80	1
146	169	2
201	230	1
7	21	1
13	17	2
156	157	4
5	18	3
79	206	1
77	78	1
35	103	2
7	9	1
228	230	1
215	216	4
110	170	1
187	221	1
8	14	1
31	78	3
149	149	2
65	106	2
20	85	1
58	59	1
1	178	3
50	52	1
3	7	1
21	95	1
202	202	3
73	173	1
166	176	1
2	16	2
65	68	1
24	30	1
126	179	1
11	14	1
178	227	1
194	194	2
156	158	5
201	228	1
55	74	1
123	123	3
111	111	2
186	187	2
17	45	1
56	63	1
59	82	4
200	209	2
178	215	1
179	180	1
65	72	2
23	59	1
126	126	5
224	226	3
173	192	2
163	165	1
217	218	3
139	142	1
5	16	2
58	61	1
44	45	1
228	232	1
19	41	1
180	199	2
55	56	3
133	156	1
48	85	2
22	49	1
170	183	2
0	102	1
121	181	2
168	204	1
35	36	4
30	42	1
65	71	3
103	108	1
43	45	1
136	236	2
27	85	1
4	18	2
196	196	7
211	212	1
30	31	4
38	47	3
204	205	1
147	213	1
9	16	1
20	189	1
181	183	2
59	75	1
11	15	3
213	216	1
192	193	5
97	101	1
135	177	1
29	75	2
210	211	2
228	228	3
225	227	1
228	229	1
134	173	2
159	168	1
18	21	1
160	241	2
138	166	1
193	194	1
70	72	1
145	146	2
3	35	4
180	182	1
187	205	1
199	199	3
128	160	1
76	80	2
79	81	1
40	44	2
61	83	1
234	234	1
137	218	1
106	189	2
220	223	1
1	15	1
205	206	1
202	203	2
96	128	4
110	120	2
1	88	2
207	208	2
187	219	1
167	178	1
3	6	1
209	218	1
157	160	2
190	207	1
44	48	1
198	225	3
49	84	1
194	214	1
98	110	2
220	221	2
134	241	1
5	21	2
213	214	1
142	143	1
197	207	2
105	106	3
134	177	1
158	242	2
95	105	1
67	190	2
28	85	1
8	8	1
44	83	1
159	160	2
63	67	2
190	223	2
60	80	1
34	104	1
79	80	1
61	85	1
202	217	1
57	141	1
60	78	1
108	108	2
36	108	1
11	101	2
103	104	2
150	207	1
46	62	1
224	227	1
65	75	1
116	117	3
29	76	1
119	133	1
56	214	2
96	120	1
105	107	1
26	32	2
132	132	1
182	183	1
81	84	1
200	213	1
33	40	1
6	33	1
217	221	1
159	164	1
25	96	1
104	119	1
37	79	1
174	208	1
120	133	1
68	196	2
24	28	1
0	40	2
1	89	1
37	54	1
70	71	1
45	47	1
14	15	1
52	61	1
203	207	1
170	238	1
154	157	2
9	65	1
37	38	1
136	208	2
177	180	1
33	35	1
3	98	1
1	19	2
48	79	2
71	73	1
163	163	2
113	180	1
30	53	1
118	120	1
178	184	2
71	174	1
23	82	2
221	224	1
135	159	1
36	40	2
67	189	1
113	215	1
45	48	1
122	171	1
225	230	1
138	139	2
61	82	1
185	219	1
209	210	2
48	200	1
184	217	2
22	79	1
7	22	1
52	195	1
153	239	1
130	230	1
137	236	1
57	86	1
5	13	1
82	84	1
110	118	1
64	68	1
214	226	1
52	207	2
33	105	1
188	205	1
14	100	1
216	217	1
51	75	1
58	75	1
69	197	1
30	85	1
193	214	1
4	16	1
