115	115	14
81	82	8
83	83	14
123	123	13
99	99	6
11	20	2
97	134	4
13	13	5
33	79	1
94	126	1
90	95	1
73	73	13
5	5	9
22	43	1
45	45	26
61	117	1
3	3	10
8	81	2
35	35	18
34	34	17
17	41	1
107	107	8
45	64	2
74	74	16
31	43	2
28	49	2
27	82	6
6	6	14
102	102	4
76	77	5
98	122	2
16	23	6
31	31	12
79	79	15
97	97	5
93	93	19
11	29	5
132	133	4
19	21	3
21	21	9
40	41	5
10	11	9
8	12	1
72	72	14
20	38	1
124	124	5
101	101	10
19	19	16
81	114	2
118	121	1
103	108	3
55	56	5
64	64	29
95	95	10
68	68	24
17	79	1
62	62	9
54	59	1
37	38	10
76	76	7
122	127	1
6	32	6
102	104	3
28	47	1
124	127	3
26	112	2
26	26	11
58	79	3
38	38	12
106	106	8
75	75	21
23	23	11
91	94	2
21	42	1
4	81	3
87	89	1
9	9	19
29	29	26
43	43	5
120	120	14
6	7	13
94	94	7
63	63	10
45	89	3
33	76	4
28	80	5
68	74	1
11	92	3
23	24	7
103	103	11
25	47	2
47	47	18
15	15	17
33	42	1
42	42	15
36	43	2
78	79	5
15	17	5
46	98	1
112	112	6
63	64	4
65	67	1
10	10	10
37	37	8
32	32	15
15	78	2
105	105	4
49	84	3
85	85	6
30	30	11
70	70	12
12	12	8
46	87	1
126	126	14
69	69	10
104	105	6
25	25	9
67	72	4
119	119	7
18	18	11
34	35	4
87	88	12
96	134	1
97	98	5
13	14	6
100	100	5
4	20	2
86	86	15
2	2	4
28	29	4
48	48	11
42	45	4
43	81	2
73	74	1
116	116	11
110	111	6
46	46	13
94	99	3
29	49	3
11	11	14
55	55	5
7	11	1
121	121	7
84	84	5
25	26	11
96	96	11
90	90	7
31	44	1
72	77	1
41	42	3
117	119	1
113	113	7
91	91	11
33	44	4
30	31	1
133	134	3
61	75	3
117	117	11
96	97	5
9	26	3
87	87	7
131	131	4
38	39	5
65	65	18
34	47	3
36	36	6
92	92	8
16	17	3
20	81	1
47	63	3
40	40	9
70	84	2
40	81	2
16	29	2
43	46	3
87	90	6
89	89	1
19	104	3
35	37	1
81	127	1
78	78	17
17	17	8
114	127	3
27	27	10
132	132	7
66	66	9
17	94	1
5	15	2
22	22	7
4	4	9
18	26	3
8	129	2
127	131	1
98	98	4
62	66	3
10	30	2
39	39	8
103	104	5
57	57	10
60	92	5
20	20	8
47	96	1
28	28	6
44	45	10
10	94	3
101	103	4
13	25	3
23	26	3
46	47	3
59	59	13
48	55	2
15	26	3
19	67	3
25	27	2
107	111	4
93	94	5
103	129	1
33	34	6
3	93	4
60	67	2
46	94	2
111	116	2
18	45	2
16	16	14
20	93	3
79	83	4
18	32	1
133	133	4
19	20	5
83	84	4
110	110	1
77	85	5
69	71	4
24	33	3
77	78	6
125	126	4
62	73	1
111	119	1
56	79	1
14	16	3
4	5	5
22	105	3
8	8	10
22	48	1
15	16	2
88	88	7
124	130	2
6	11	2
80	112	1
54	133	2
56	56	5
58	58	4
30	45	2
111	111	9
120	122	1
104	104	1
33	33	5
92	93	5
10	118	3
70	71	4
63	108	2
90	91	3
42	43	1
55	95	1
6	25	1
61	61	10
83	101	1
48	131	2
50	50	3
115	116	1
45	59	2
4	94	2
31	32	5
12	22	1
21	29	1
89	90	3
27	79	1
106	107	3
26	82	2
107	108	1
7	7	16
5	11	1
66	76	2
93	102	2
56	81	1
113	114	1
26	27	4
88	90	1
91	97	1
32	39	2
3	19	1
56	98	1
91	92	3
11	12	3
8	9	2
98	100	1
2	11	2
24	25	8
50	91	1
12	20	3
60	60	4
128	128	4
56	59	1
47	130	1
62	64	2
101	102	2
27	35	1
21	38	1
125	125	4
57	58	1
13	130	1
93	96	5
21	50	1
78	82	1
72	73	3
64	65	1
21	79	1
80	127	1
28	98	1
80	108	2
81	81	5
80	134	3
112	131	1
44	44	4
80	80	5
99	100	4
48	95	1
18	31	1
46	82	2
94	95	2
11	86	1
55	94	2
100	101	4
64	74	1
114	114	3
48	80	1
109	109	6
29	32	2
77	77	9
18	71	2
5	6	2
62	63	4
59	66	2
10	21	1
6	8	3
5	38	1
129	129	8
2	3	1
20	21	4
19	31	1
59	69	3
100	102	1
118	130	2
46	73	2
14	15	1
18	19	1
95	96	3
82	122	2
32	33	1
11	37	1
117	123	1
82	83	2
68	69	4
118	122	1
72	117	4
58	59	1
29	30	2
115	131	2
49	106	3
66	67	1
38	81	2
71	71	3
13	17	1
101	134	2
64	70	2
9	10	1
105	123	1
15	74	1
84	85	3
71	82	1
88	106	1
87	101	1
32	35	1
17	44	4
131	132	2
127	127	3
36	39	1
42	57	2
69	74	3
90	92	2
11	93	3
89	91	3
93	114	3
12	14	3
134	134	6
95	97	1
25	98	2
47	102	1
39	40	5
27	28	1
15	55	2
117	121	1
60	131	2
9	76	1
122	122	3
0	0	4
67	67	2
7	91	1
7	36	2
124	125	2
41	41	2
94	98	1
94	96	8
34	82	1
16	69	3
47	71	1
79	107	3
26	40	1
45	47	1
5	27	2
13	93	1
19	35	1
79	86	1
109	114	1
11	87	4
84	89	1
85	87	1
93	115	1
40	101	1
35	36	5
108	126	2
59	75	1
130	131	2
57	59	1
68	92	1
26	93	1
3	4	1
57	101	1
24	24	2
24	83	1
23	106	1
118	123	1
31	60	1
50	55	2
48	78	3
80	81	1
96	98	1
17	73	2
37	41	1
6	43	1
108	108	3
71	72	1
107	126	2
113	115	2
38	46	3
51	55	1
57	97	1
112	128	3
30	32	1
64	68	2
67	68	2
14	14	4
9	43	1
95	100	1
102	134	2
16	72	1
25	33	1
62	78	1
21	93	1
27	47	1
22	37	1
37	39	1
24	123	1
24	106	1
2	119	3
43	44	1
108	109	1
120	134	1
18	29	1
6	33	1
82	82	3
92	115	1
71	111	1
9	12	1
29	100	1
123	125	1
32	60	1
16	71	1
57	75	1
62	86	2
85	102	1
4	21	2
117	120	1
55	93	1
48	49	1
19	44	1
113	116	1
85	128	1
40	82	1
118	118	2
111	112	1
50	51	1
105	106	1
62	70	1
33	73	1
86	88	1
112	124	1
69	77	1
63	70	1
64	80	1
13	32	1
120	121	1
118	119	1
115	126	2
27	64	1
33	69	1
26	81	1
79	81	2
86	122	1
95	114	1
107	109	1
2	17	1
11	26	1
49	49	1
3	61	1
104	115	1
11	62	1
16	30	1
32	66	1
62	100	1
6	56	1
67	70	1
43	57	1
70	78	1
65	78	1
21	22	1
59	101	1
20	22	1
35	76	1
28	31	1
