62	62	2
28	28	5
166	169	4
79	106	3
115	155	3
21	21	11
132	132	4
166	170	2
76	127	2
160	176	3
65	138	1
160	160	8
145	146	3
39	39	11
131	150	2
111	112	7
18	19	7
132	133	7
71	72	3
125	126	6
37	60	2
121	129	1
38	114	3
90	90	16
61	62	1
11	12	4
143	143	6
92	148	2
152	152	5
63	63	5
92	93	6
126	127	3
104	104	6
147	147	1
23	23	6
29	29	6
119	119	4
96	96	13
115	116	2
183	183	10
117	117	6
91	91	1
127	158	1
58	83	5
98	98	8
24	25	2
91	93	4
131	133	5
84	84	8
16	16	10
159	175	2
141	141	4
155	155	14
57	57	3
31	31	4
137	139	3
116	119	3
84	109	4
55	55	5
123	123	7
142	143	3
122	135	3
12	13	7
104	105	2
159	159	8
174	174	6
164	164	7
79	79	3
153	156	3
156	156	9
6	7	3
81	81	1
17	17	6
10	12	4
84	95	4
153	153	2
153	177	2
163	164	4
9	9	3
125	125	8
111	111	9
94	94	5
76	76	2
128	162	1
115	115	11
103	103	5
107	107	3
88	88	3
10	10	7
66	69	1
122	142	6
109	109	2
92	141	1
10	26	3
121	121	8
68	91	1
95	95	18
134	134	2
34	87	1
7	7	7
101	101	3
75	152	4
127	127	3
63	66	4
122	123	2
135	135	9
157	157	3
87	159	7
58	62	1
31	32	2
71	71	2
154	182	5
139	139	3
64	64	8
166	168	2
24	24	9
165	169	2
87	88	2
72	72	3
41	41	1
82	108	3
154	155	4
129	129	6
170	170	3
42	42	15
2	2	9
41	42	4
112	112	4
106	106	6
4	4	3
93	93	5
178	183	1
132	143	4
45	45	16
46	47	5
78	78	11
57	61	2
22	22	7
40	40	6
83	83	4
138	139	1
117	118	3
92	92	3
12	12	7
118	156	1
106	107	5
148	148	7
77	123	2
36	37	1
4	8	2
173	173	6
100	100	2
37	37	5
57	90	5
47	49	1
94	152	1
20	20	2
130	130	1
66	108	3
73	122	3
153	154	2
56	57	3
66	66	5
75	75	7
32	87	1
133	133	5
77	83	1
30	31	2
36	36	6
151	151	3
4	145	2
13	13	7
164	165	1
153	160	4
18	18	14
41	43	3
24	26	1
28	29	2
135	136	1
30	30	2
44	44	5
85	85	2
15	15	2
113	113	5
125	175	1
53	53	6
3	25	5
3	3	8
114	155	4
38	38	4
11	18	2
74	130	4
10	11	3
102	102	5
97	97	5
157	176	1
74	142	2
5	6	4
28	32	4
126	126	3
1	3	1
87	111	10
57	73	7
70	70	5
173	174	1
185	186	1
178	179	2
140	140	3
96	97	3
101	103	3
131	131	2
5	5	6
75	88	4
35	35	2
44	45	7
11	17	2
80	81	2
58	67	2
61	63	2
162	181	6
70	98	1
94	143	3
19	22	1
1	1	3
120	122	4
48	48	2
92	146	3
110	112	3
180	180	4
99	100	3
146	146	1
66	67	1
63	64	1
88	89	4
4	6	1
59	64	3
111	134	2
66	146	2
124	177	1
8	8	2
85	99	1
92	153	2
157	174	2
58	58	4
16	17	1
54	54	1
0	0	5
177	177	1
61	87	2
19	19	10
87	122	3
138	138	5
96	100	1
32	32	2
144	144	5
27	27	2
22	23	5
25	25	6
85	97	2
79	102	1
85	86	1
134	135	1
109	122	1
123	184	2
80	83	1
72	73	3
33	34	2
140	178	1
37	44	1
56	56	2
39	63	1
126	164	1
186	186	1
88	111	1
46	55	3
14	14	1
181	181	2
61	61	6
74	94	3
75	121	1
77	78	2
46	46	7
135	137	3
171	173	2
95	132	4
82	86	4
12	15	1
108	108	1
17	22	2
4	5	3
103	106	2
70	107	1
73	73	3
165	165	2
161	161	1
57	60	3
130	163	2
81	137	1
130	158	1
26	26	7
141	143	1
155	156	2
133	136	4
136	136	1
29	46	1
68	132	2
1	7	1
71	73	4
112	119	6
179	180	2
113	153	1
83	84	5
169	170	1
82	83	4
0	1	2
47	47	1
64	65	1
87	87	3
16	21	1
30	32	3
43	43	4
69	93	1
149	149	7
53	104	3
118	118	2
23	37	1
164	169	2
125	171	1
33	35	1
60	85	2
60	60	1
3	8	2
45	48	1
105	105	3
89	93	1
112	114	2
13	14	2
185	185	1
74	74	3
105	106	1
175	175	1
42	44	1
182	183	1
110	116	1
80	80	2
25	140	1
128	128	1
140	141	1
139	142	2
87	109	2
67	84	1
118	119	2
90	91	3
36	44	1
59	59	1
133	134	2
86	101	2
155	163	1
38	39	2
129	131	1
70	93	2
170	189	1
145	145	3
172	188	1
187	188	2
80	82	1
142	142	2
89	90	3
113	176	1
29	87	1
75	76	1
69	138	1
131	149	1
76	129	1
85	100	1
149	151	1
157	162	1
154	156	1
122	122	2
179	179	1
147	152	1
67	80	2
62	63	1
168	168	1
156	164	1
92	94	2
23	24	1
58	59	1
150	150	1
35	86	1
100	120	2
128	157	1
104	107	1
43	62	1
77	81	1
29	47	1
71	92	2
93	94	1
9	47	1
111	114	1
53	55	1
129	130	1
176	176	1
110	122	1
6	6	1
20	25	1
123	126	1
