18	19	9
58	107	3
121	121	22
6	7	8
71	71	6
112	112	34
105	106	16
89	91	10
101	101	48
47	47	41
64	65	13
131	132	10
116	116	37
10	11	6
114	114	26
77	77	35
103	103	22
69	69	35
103	120	1
19	19	23
43	43	18
108	113	2
79	80	10
103	115	5
47	48	8
93	93	18
14	15	14
48	48	19
12	12	26
14	19	8
90	91	7
56	69	3
27	27	32
95	95	25
29	29	9
105	105	15
99	99	23
60	61	9
115	115	26
62	63	11
48	49	10
131	131	25
102	103	18
80	81	16
106	107	14
30	30	22
28	30	4
97	97	24
67	67	42
74	75	10
63	63	12
89	89	28
87	88	12
93	94	15
70	70	21
104	118	3
80	80	24
45	45	35
65	65	15
101	129	4
2	2	14
58	59	23
86	86	18
41	41	12
111	112	10
53	87	1
18	21	23
64	64	24
54	55	13
40	47	2
30	31	4
76	76	14
38	38	20
39	39	22
65	67	5
83	84	11
5	5	23
31	31	25
119	119	47
11	11	12
1	1	16
0	29	6
29	124	4
126	126	13
44	45	10
33	33	27
92	92	25
116	122	6
81	81	14
108	108	14
57	58	5
18	18	28
101	126	3
19	32	2
60	60	27
17	17	14
3	4	6
7	28	6
4	4	7
73	74	2
0	1	6
91	92	10
4	5	15
59	60	23
2	30	3
47	60	5
22	22	20
46	65	4
85	85	25
43	55	5
72	72	11
9	9	16
114	117	6
42	43	10
55	56	6
39	40	15
74	74	19
46	47	29
5	6	7
14	14	32
62	62	14
7	7	29
69	81	2
44	44	34
76	96	6
10	10	44
6	6	25
12	19	4
117	117	27
87	92	6
125	125	26
112	119	8
55	55	11
113	116	4
15	19	8
82	82	34
73	73	13
40	40	55
13	27	7
57	70	1
127	127	15
24	24	12
91	91	18
111	119	2
103	104	6
79	82	2
57	57	12
78	78	20
120	120	27
87	87	15
50	52	4
21	21	18
106	106	14
56	56	26
14	38	2
88	88	18
98	98	16
104	120	10
20	29	8
2	125	1
83	83	22
13	13	29
11	12	6
105	110	1
50	51	10
67	68	8
79	79	32
81	82	18
104	105	8
19	20	6
125	126	9
111	111	26
51	52	10
32	33	5
61	61	18
81	84	5
101	103	8
110	114	3
48	51	4
23	23	9
15	15	23
33	34	5
24	26	1
77	119	1
46	46	37
41	43	7
122	122	10
94	94	14
38	39	8
85	91	1
90	90	20
71	83	1
25	25	17
40	41	7
125	131	14
41	55	4
109	109	23
59	59	9
121	122	8
96	101	1
12	13	8
16	16	12
132	132	15
107	107	14
11	14	1
85	87	10
75	75	25
114	115	3
54	54	20
74	97	4
49	49	38
29	30	12
89	92	2
60	62	5
99	101	13
50	50	19
128	129	4
133	133	17
21	41	3
123	123	15
22	26	3
25	104	3
22	29	2
66	67	5
108	109	10
97	98	10
22	24	10
76	77	16
88	89	3
13	20	2
27	42	2
104	104	15
3	5	2
1	3	3
100	101	13
48	56	3
113	114	12
124	131	6
25	27	2
127	128	12
96	97	12
4	122	3
78	79	11
102	115	3
116	117	20
132	133	5
104	107	5
64	76	3
118	119	5
115	116	8
52	52	35
85	86	5
24	25	10
110	110	20
68	83	3
67	69	1
128	131	2
53	53	25
48	57	2
69	88	4
90	95	5
99	100	7
58	58	15
72	73	10
70	73	1
89	90	9
86	93	5
32	32	13
26	26	9
127	130	1
63	65	4
1	2	11
84	84	6
63	64	5
51	51	19
119	121	8
130	130	14
47	55	9
96	96	25
113	113	18
17	18	2
124	125	11
90	92	1
86	87	10
92	93	9
33	63	3
34	34	13
42	42	17
95	109	1
124	124	14
80	83	2
23	24	8
27	29	4
116	118	2
45	47	2
4	123	3
40	59	2
83	85	15
62	66	1
129	130	4
118	122	2
58	66	3
19	21	8
122	123	5
0	0	15
44	47	3
71	85	3
0	2	6
63	100	4
72	81	2
80	86	2
52	53	27
7	8	7
107	108	11
51	110	4
66	66	7
118	120	3
96	115	2
84	85	8
94	95	13
71	73	2
70	71	12
68	68	26
123	124	6
21	22	8
55	60	1
74	83	3
8	13	8
100	100	16
71	94	2
96	98	6
3	3	15
126	127	3
131	133	1
102	102	18
49	52	5
130	133	1
2	4	3
110	113	1
13	39	6
56	64	2
54	59	1
107	111	4
66	68	7
18	20	9
120	121	9
58	64	1
14	16	1
20	20	12
126	131	7
15	16	7
68	72	2
59	74	1
8	12	6
86	92	1
82	83	6
113	117	7
90	115	3
28	28	23
76	80	2
44	58	2
90	93	4
29	31	4
78	80	8
87	90	3
8	9	7
108	114	5
85	90	2
96	99	4
125	127	1
84	88	2
16	17	5
27	28	10
71	72	4
75	77	7
19	22	2
80	113	1
43	45	2
43	47	2
77	97	1
43	44	11
109	110	7
26	103	2
98	99	3
102	116	1
102	130	4
31	32	3
97	101	3
123	125	2
130	131	5
110	111	11
28	29	13
75	76	7
24	33	2
55	59	2
50	53	6
78	82	1
46	54	6
47	108	3
113	121	4
86	89	6
54	56	4
39	41	3
56	57	6
108	116	2
28	31	3
112	113	4
71	96	5
7	14	3
107	112	1
70	96	4
107	110	4
118	118	6
57	93	3
65	130	1
59	66	3
83	91	6
88	92	3
48	132	1
128	130	3
7	9	3
64	102	2
84	94	2
72	75	3
86	90	1
51	54	3
12	21	3
23	100	1
93	95	2
92	94	2
22	41	3
54	105	2
53	54	2
99	127	3
103	108	1
86	88	6
71	93	1
81	83	6
60	63	1
10	29	4
69	80	2
56	70	1
126	128	5
128	128	6
26	31	1
96	133	1
65	66	4
14	20	1
87	89	3
64	74	3
107	118	2
4	6	1
13	14	3
104	114	2
42	56	5
4	7	3
69	70	2
107	113	7
11	19	2
94	96	1
108	118	7
58	60	3
72	74	3
74	77	1
79	114	2
9	13	1
102	125	3
23	126	1
42	44	2
40	45	3
6	28	1
26	27	5
12	47	4
70	72	1
99	116	3
129	129	7
82	90	2
5	12	3
108	110	1
65	68	4
61	62	1
49	56	2
41	42	2
49	105	2
115	117	1
48	69	2
113	118	1
42	51	1
85	113	1
68	69	2
62	102	1
13	40	1
43	48	2
46	56	3
51	53	2
111	117	2
8	8	5
114	116	1
106	120	2
12	14	1
65	70	5
46	48	1
111	114	2
10	13	2
11	13	2
95	97	2
111	113	1
97	99	1
49	51	1
69	71	3
113	120	2
117	118	6
91	93	4
12	46	1
119	120	1
45	46	3
9	10	2
25	32	2
48	70	1
101	130	3
80	89	2
110	122	1
13	38	1
102	118	2
126	130	1
30	125	2
49	50	1
101	102	4
105	122	1
78	81	1
88	106	1
72	78	1
88	91	2
107	119	2
7	13	1
97	100	2
71	80	1
25	26	3
64	66	4
13	41	2
46	52	1
103	117	2
98	101	2
48	50	1
104	106	2
115	121	1
41	44	1
24	30	1
111	115	1
22	33	1
51	109	1
125	128	2
10	12	1
125	130	1
23	128	2
109	111	2
71	74	2
82	84	1
14	41	1
81	88	2
118	121	1
99	115	1
83	90	1
21	26	1
75	97	1
3	29	1
40	43	3
49	69	1
46	49	1
76	97	1
120	125	1
60	71	1
69	72	1
62	64	1
24	129	1
76	108	1
27	30	1
14	39	1
100	128	1
81	86	1
9	14	1
43	66	1
103	118	1
95	115	1
77	78	1
56	65	1
102	131	1
128	133	1
129	131	1
111	116	1
8	11	1
20	28	1
14	42	1
