39	53	1
71	71	11
17	17	14
122	122	6
117	118	8
76	76	6
32	34	1
115	115	3
133	133	15
71	76	1
26	26	10
108	111	3
13	13	17
19	47	4
79	84	5
127	147	7
73	73	17
23	23	12
37	37	6
131	132	6
53	53	10
44	44	18
117	117	8
135	135	9
67	68	9
128	128	5
35	35	16
149	149	7
119	123	3
24	24	21
29	29	18
104	138	4
24	25	5
18	18	16
43	43	12
79	85	2
137	137	5
49	62	4
130	130	17
21	67	4
82	100	2
136	136	4
22	22	18
123	123	8
69	69	10
107	108	3
55	62	2
88	88	3
40	49	1
87	87	1
108	108	11
113	119	3
152	152	4
79	81	4
81	136	2
77	77	4
20	36	3
28	95	2
87	88	2
100	100	6
30	30	4
95	95	6
109	109	14
27	28	4
17	23	2
6	6	3
150	150	12
15	15	12
56	56	4
96	96	12
39	40	4
34	34	9
134	134	7
16	16	6
102	102	11
76	85	1
47	48	6
95	124	1
41	64	2
83	83	5
38	38	13
79	136	2
19	19	14
12	41	6
75	76	4
114	114	14
93	133	1
97	98	6
99	99	9
7	10	8
30	32	4
20	32	2
115	116	2
107	107	9
25	25	5
85	85	13
128	129	4
137	138	2
132	132	5
69	71	2
92	127	2
42	43	4
30	68	3
47	49	3
101	102	3
65	65	2
106	106	9
45	45	8
21	21	17
10	10	12
138	138	3
80	93	4
15	21	1
33	33	11
102	140	3
140	145	6
122	135	1
24	68	1
147	147	6
33	34	3
135	136	4
116	116	11
5	5	4
138	139	6
131	133	3
8	8	5
63	63	3
99	110	2
95	97	5
133	134	3
70	70	4
118	118	13
42	42	10
132	143	3
47	47	9
12	12	2
9	16	2
36	36	16
43	44	3
152	153	1
55	55	5
80	80	14
97	113	1
57	57	11
66	67	9
31	31	21
48	49	4
68	68	10
14	133	1
72	73	1
49	52	4
11	11	5
34	35	11
97	99	3
32	42	3
3	13	1
29	30	5
129	130	5
7	7	8
61	64	1
68	69	11
13	35	1
54	54	9
67	67	7
126	143	2
74	84	4
39	39	14
11	13	4
93	93	1
76	78	4
4	13	2
99	140	4
72	126	2
41	42	2
46	46	19
62	63	1
8	10	7
21	22	3
12	20	1
48	48	5
125	127	1
124	130	2
123	146	1
11	30	3
6	11	2
43	46	1
92	95	3
82	93	3
21	23	1
99	103	1
63	64	9
2	47	2
38	72	1
70	73	3
108	114	4
31	55	1
14	24	3
116	117	4
14	14	11
13	38	3
6	12	4
93	111	2
124	127	1
80	82	3
98	99	3
66	108	2
151	151	4
20	20	12
44	46	4
51	51	1
3	7	3
98	101	1
23	84	4
82	82	2
129	129	15
122	123	3
96	97	4
110	121	3
15	22	7
142	142	5
49	49	11
105	106	2
73	76	5
143	144	1
41	41	3
119	119	6
110	110	4
98	98	4
131	131	11
124	125	3
130	131	2
32	32	14
124	124	1
8	9	4
64	84	1
48	54	1
7	39	7
52	52	2
95	96	4
89	90	1
27	27	3
113	114	1
76	77	3
36	37	4
44	45	3
93	127	3
10	129	2
37	38	9
80	81	1
153	153	7
29	54	1
13	14	2
101	101	2
25	51	4
50	51	1
77	123	3
5	134	3
14	15	3
45	46	6
107	109	2
69	118	1
83	84	1
18	34	2
66	66	9
95	130	1
49	50	3
99	100	2
15	25	1
15	20	1
100	101	1
141	142	7
4	33	2
83	97	1
77	78	5
6	7	2
103	113	3
73	74	1
78	95	3
11	29	3
64	65	1
84	84	4
102	141	4
92	92	8
26	27	1
12	38	1
126	133	3
88	93	3
52	54	3
12	13	5
81	94	2
23	29	2
121	121	1
26	51	1
153	154	3
144	144	4
79	93	2
8	44	1
40	41	1
86	86	1
128	130	3
109	122	1
45	50	4
105	111	1
111	114	1
113	113	4
112	121	1
76	125	2
30	69	3
28	56	3
9	10	4
22	24	3
40	53	2
69	70	1
87	108	1
81	85	3
9	9	5
16	19	2
100	110	1
147	148	2
13	34	2
82	83	3
16	17	3
30	54	1
40	40	4
31	32	1
83	85	2
86	97	2
140	150	1
96	115	2
144	146	1
103	103	2
70	71	2
142	144	1
121	136	1
103	106	2
120	122	2
10	32	3
14	25	2
112	112	2
120	131	2
58	64	1
4	7	1
70	109	2
55	56	3
53	63	3
75	119	1
125	126	1
141	141	2
94	94	1
102	145	2
77	81	1
74	76	2
10	43	2
15	19	2
80	95	1
33	65	2
75	75	2
50	50	7
66	76	4
4	4	1
107	141	1
100	107	2
111	112	2
53	55	1
122	148	1
99	109	2
20	21	3
87	92	1
38	51	2
47	54	1
30	33	3
7	11	2
113	121	2
81	125	2
77	128	1
9	130	3
48	129	1
18	23	2
95	123	2
106	107	2
10	11	4
3	3	1
76	118	1
5	6	1
5	28	1
64	64	1
54	55	2
120	121	2
5	92	1
46	47	1
127	143	2
20	26	1
58	58	1
92	93	1
42	46	1
79	80	1
102	105	1
77	118	1
21	30	1
24	54	1
61	61	1
104	112	1
23	128	1
103	138	2
107	114	1
55	63	2
81	82	2
139	139	1
67	108	1
136	137	1
104	113	1
12	67	1
96	123	1
95	127	1
154	154	2
28	28	1
125	125	2
100	103	1
23	24	4
5	30	1
5	7	2
146	147	1
39	50	2
14	21	1
20	25	2
15	16	1
57	58	1
10	142	1
83	94	1
140	140	1
93	94	1
4	5	1
30	34	1
2	2	1
82	84	1
17	19	1
145	145	1
8	17	2
