23	24	8
99	107	1
53	55	4
2	152	1
20	21	10
116	116	14
17	18	3
53	53	12
238	238	8
248	248	3
208	208	16
61	62	12
50	50	9
29	65	1
209	209	13
19	19	31
177	208	1
210	210	6
176	207	1
50	71	2
152	208	1
118	118	8
184	239	2
30	30	10
37	37	12
171	171	8
16	16	10
104	104	8
109	109	9
7	7	15
177	177	6
151	153	9
153	153	8
48	49	4
41	41	6
108	209	5
199	200	4
68	68	13
247	247	6
33	33	2
65	66	3
179	180	1
236	237	7
70	70	16
219	219	12
224	224	12
186	186	19
166	166	14
24	167	2
114	116	2
222	222	3
40	40	9
17	36	4
76	76	10
212	220	2
193	194	2
203	203	17
58	58	14
98	98	17
162	162	9
40	85	1
163	163	11
14	14	11
180	181	2
3	3	4
64	64	7
72	73	3
220	221	2
6	6	7
24	24	13
166	170	3
204	204	13
157	166	3
68	70	1
18	18	14
51	51	8
27	52	3
55	55	16
113	113	12
116	190	1
203	228	7
80	80	13
28	57	1
79	79	23
199	199	19
84	84	7
34	35	5
88	95	2
157	158	3
197	230	3
15	243	4
230	230	6
111	116	1
96	96	3
184	184	12
86	86	6
9	9	4
68	88	7
186	203	4
173	173	11
66	113	6
29	51	7
172	172	22
180	180	3
34	34	12
44	85	2
208	209	14
38	159	1
200	200	5
35	46	3
29	47	5
181	182	8
172	210	3
48	48	11
78	78	4
89	91	6
97	97	9
158	158	20
31	34	3
74	74	15
27	27	3
150	150	28
196	196	8
188	188	7
166	167	1
95	97	13
169	232	2
63	63	12
42	66	2
144	212	3
11	11	10
115	116	4
213	213	17
35	48	6
81	83	4
145	173	1
236	236	6
65	65	9
176	176	3
245	245	8
170	170	11
23	23	15
57	57	10
73	74	3
239	239	11
204	205	5
44	45	4
246	246	8
41	52	1
167	167	5
203	212	3
117	194	4
156	156	9
229	230	1
82	82	4
229	229	3
160	160	7
169	171	12
168	169	1
190	208	3
66	71	2
225	225	6
70	119	10
110	110	12
158	166	2
198	198	8
111	111	15
103	103	7
190	201	1
91	91	9
171	198	3
182	182	13
195	219	2
230	235	2
76	77	15
155	155	12
100	100	9
204	226	8
211	211	11
190	191	10
82	87	2
117	192	5
192	192	7
117	118	2
247	249	2
31	48	2
220	237	5
151	151	7
162	164	13
28	28	11
103	120	2
157	159	8
231	231	4
114	114	4
189	189	8
194	194	3
4	4	14
110	111	8
215	216	8
183	184	4
56	92	4
89	90	2
176	178	5
36	37	3
184	185	4
117	117	18
89	96	2
87	88	3
119	213	2
212	212	19
237	237	9
186	207	1
206	207	2
224	244	1
56	56	10
73	75	1
207	207	8
20	20	8
96	97	3
181	181	12
149	159	1
201	201	22
202	203	2
112	112	4
98	106	1
155	161	1
66	66	6
178	181	5
99	109	1
59	59	8
33	48	3
174	175	2
62	62	5
64	72	3
232	232	20
95	95	5
241	241	14
192	233	5
193	193	15
69	70	2
176	179	2
38	38	5
225	248	1
32	212	2
147	147	10
80	81	8
180	240	8
185	185	11
165	165	8
175	176	3
80	96	2
8	8	8
153	155	3
167	188	3
157	157	11
37	63	3
94	94	9
58	59	1
228	228	9
24	25	2
26	26	3
45	86	2
71	71	7
85	85	7
227	227	7
221	241	3
167	186	2
107	192	2
193	207	3
75	75	11
37	87	2
32	32	16
43	43	7
202	202	6
220	220	5
107	107	8
85	116	2
198	212	4
245	246	3
44	67	2
164	164	5
12	12	13
242	242	9
93	93	5
5	6	2
226	226	3
183	183	14
152	153	1
52	52	4
115	115	7
69	69	15
169	170	3
29	29	3
60	61	4
31	31	11
6	7	5
63	71	1
155	156	2
111	112	9
206	206	4
152	152	3
192	196	4
197	197	2
111	118	1
116	237	2
99	100	2
81	81	3
39	39	9
92	95	3
105	106	2
235	235	4
5	60	3
171	238	2
5	5	6
65	78	4
14	87	5
196	200	2
246	247	1
245	247	2
54	54	3
243	243	7
21	21	4
197	202	3
43	44	3
79	85	2
215	215	5
97	99	2
234	234	11
159	165	1
180	182	3
4	191	2
185	186	4
77	77	6
85	86	2
146	146	2
41	44	2
107	208	3
42	42	4
205	205	5
31	167	1
36	62	1
41	42	1
178	178	5
61	64	4
97	98	7
25	27	1
240	240	11
45	93	1
110	114	5
111	240	4
111	238	3
78	83	3
33	42	2
22	23	2
108	108	10
244	244	3
31	32	2
233	233	7
221	222	11
102	102	10
224	225	6
57	60	2
78	79	3
119	119	11
230	231	2
49	50	6
175	175	10
17	19	1
110	222	1
115	190	2
212	216	4
1	1	4
217	217	5
17	17	3
216	217	3
73	73	6
211	212	4
86	87	5
183	234	4
44	44	3
6	202	1
195	195	6
209	210	1
108	195	1
49	60	1
190	190	6
35	81	2
106	106	4
59	76	6
15	18	1
176	177	4
37	38	1
210	241	4
65	80	1
90	90	8
239	241	3
92	93	2
25	25	4
211	223	4
168	170	1
210	230	1
16	54	1
187	187	12
195	196	2
95	96	2
35	36	1
6	8	2
219	222	2
35	35	4
169	169	7
55	92	2
113	115	7
101	209	8
62	91	3
218	218	7
221	221	8
200	206	1
22	22	6
4	5	1
234	248	1
197	206	1
1	27	2
213	248	4
32	45	1
152	207	1
191	192	5
234	236	1
213	217	3
222	230	6
228	229	2
33	173	2
46	92	2
205	230	2
28	45	2
67	67	2
154	172	1
43	64	3
163	164	3
99	99	2
120	174	3
247	248	4
148	156	1
104	113	1
13	14	3
15	15	5
110	115	4
55	56	1
194	246	1
154	154	8
239	240	4
172	173	1
46	46	2
214	217	1
156	159	2
214	214	5
49	49	9
105	197	1
121	121	4
159	159	9
91	101	2
36	36	6
189	190	7
113	114	2
78	163	3
61	61	2
25	26	4
184	240	4
164	165	1
194	208	3
218	219	3
161	161	5
211	217	4
191	191	7
90	95	2
115	184	2
27	32	3
219	233	4
120	238	2
120	120	3
231	232	1
118	193	3
118	192	2
157	178	3
68	72	2
168	171	2
19	31	2
71	110	1
146	147	1
61	73	4
88	88	8
187	191	1
28	175	5
237	238	3
218	237	1
173	223	1
15	51	5
179	179	4
112	240	2
211	221	3
14	102	2
114	115	1
11	185	1
199	212	1
31	116	1
216	216	4
108	117	3
30	37	4
59	70	1
67	72	2
155	172	1
240	249	1
215	218	1
215	238	4
106	119	1
47	48	1
194	195	1
231	233	3
51	52	3
59	60	4
182	241	1
226	227	2
102	247	1
18	19	2
91	92	2
159	160	1
233	245	1
117	208	2
118	119	1
190	196	2
32	228	1
7	198	1
79	83	1
219	220	1
62	92	1
109	110	2
192	193	1
110	113	3
243	244	1
59	185	1
9	112	1
223	223	4
88	92	3
198	199	3
155	203	3
35	167	2
19	169	2
82	84	2
230	234	1
150	151	2
29	30	1
171	239	2
92	92	5
145	145	2
229	245	1
18	39	1
30	63	2
79	82	1
119	152	1
20	70	2
84	85	1
32	33	1
46	116	1
155	171	1
197	219	3
235	246	1
20	41	1
94	109	2
21	23	5
118	215	1
214	222	1
178	186	3
1	204	1
151	161	2
107	116	4
104	105	1
111	236	1
10	10	7
187	190	1
174	174	9
46	88	2
34	73	3
233	234	2
34	172	1
192	197	1
75	103	2
1	203	2
69	76	2
28	78	3
95	98	2
144	164	1
28	58	1
109	220	2
46	89	1
64	91	2
102	103	4
152	167	1
51	60	1
97	106	1
94	115	1
51	89	1
145	171	1
108	208	1
35	80	1
179	210	1
101	103	1
78	164	2
39	61	2
174	177	1
48	100	1
91	100	3
96	102	2
57	58	5
70	92	1
46	52	1
172	186	2
161	162	2
21	22	2
171	172	2
144	184	1
93	113	2
105	105	1
14	15	2
17	96	2
212	213	1
198	245	2
199	203	1
27	41	3
145	167	1
46	47	1
3	30	4
106	194	3
168	168	2
95	105	1
161	164	1
242	247	1
16	31	1
107	119	1
7	8	2
173	174	1
59	61	1
187	210	1
74	107	1
97	117	1
47	47	3
107	194	1
71	72	1
67	71	2
201	202	2
169	210	2
33	34	2
177	184	3
56	57	1
109	223	1
181	232	1
213	232	1
233	244	2
28	85	1
145	151	1
151	156	1
167	178	2
94	113	1
153	158	1
110	112	2
17	234	1
199	246	1
101	102	1
169	247	1
42	178	1
216	218	2
83	96	1
97	249	1
31	37	1
197	201	1
53	145	1
80	104	1
18	20	1
101	101	1
241	248	1
166	175	1
241	247	1
152	187	2
224	239	3
197	244	1
169	172	1
87	87	2
175	242	2
158	159	1
63	64	3
12	249	1
160	161	2
111	237	1
45	46	1
11	44	1
209	247	1
214	215	2
79	80	2
72	72	2
26	27	1
96	160	1
89	89	2
191	201	1
249	249	2
86	98	1
116	117	2
193	246	1
203	204	1
174	178	1
3	5	1
70	71	1
117	187	1
93	94	2
106	107	1
184	189	1
63	91	1
35	119	1
