26	27	2
104	105	8
162	162	10
0	0	12
166	170	6
75	75	4
12	13	8
125	125	2
54	97	2
6	29	3
9	70	1
81	81	7
149	149	3
116	116	3
98	100	2
88	126	1
46	54	4
55	55	5
3	3	7
23	24	2
4	6	5
49	53	3
40	40	4
38	38	11
160	160	6
19	19	3
168	170	1
135	135	1
50	50	2
154	154	3
88	88	4
186	187	2
0	226	3
62	62	4
104	104	1
195	195	6
197	201	1
22	22	5
8	21	4
192	193	2
163	163	7
58	60	1
67	68	8
65	65	3
169	169	5
75	102	1
242	242	10
163	171	1
119	120	7
72	72	4
25	145	1
236	236	4
89	89	1
16	17	1
182	182	7
27	27	9
159	170	5
36	36	5
181	182	1
176	177	3
128	128	1
17	19	2
174	174	3
64	64	3
13	79	3
212	228	4
178	179	2
61	61	4
97	97	6
79	108	1
8	8	15
14	15	2
234	235	2
235	235	6
21	21	10
234	238	1
31	31	1
76	79	3
238	238	6
81	102	4
177	177	7
76	100	5
29	100	6
16	21	1
47	47	3
8	13	2
180	191	4
35	37	2
105	105	6
12	12	2
13	57	5
58	62	1
214	214	2
44	239	3
35	35	9
180	180	1
57	58	1
16	16	5
141	141	5
235	238	2
76	76	3
103	103	4
138	138	4
33	33	7
207	207	5
51	52	5
150	151	3
184	184	4
4	15	1
145	206	1
167	168	9
140	146	4
103	105	1
232	232	3
73	73	7
220	220	4
57	77	4
168	171	3
14	58	1
100	100	8
13	16	2
61	102	1
30	33	1
46	46	12
101	104	2
200	200	2
141	142	5
44	44	8
160	161	3
157	157	4
173	173	4
119	119	5
136	136	3
138	140	2
178	180	3
210	210	4
36	37	4
206	206	2
106	106	8
1	1	4
48	48	6
49	49	5
39	39	4
166	166	2
65	66	2
198	208	3
193	193	2
64	123	2
9	71	4
54	54	7
21	71	5
227	227	1
147	197	4
142	143	2
192	194	1
43	44	3
25	25	5
218	218	7
198	198	3
20	20	7
9	21	2
32	32	6
237	237	4
3	16	5
174	175	3
181	181	1
153	153	7
49	50	2
222	229	3
158	159	4
23	23	3
48	51	4
219	219	3
5	7	1
53	53	2
4	227	1
156	158	2
90	125	3
59	59	3
86	86	2
14	17	3
69	70	3
216	216	3
74	74	4
219	220	3
96	97	2
229	229	1
48	49	8
120	121	1
199	199	5
134	134	6
15	60	3
186	186	5
180	190	1
71	71	4
47	84	4
51	51	1
125	126	2
118	118	2
128	129	1
163	164	2
9	9	2
6	107	1
7	7	1
63	63	8
226	227	3
18	18	1
82	88	1
224	225	1
1	3	2
171	171	3
224	231	3
98	98	5
144	144	4
56	56	2
78	78	2
79	79	2
24	25	6
78	80	3
223	223	1
215	215	3
188	190	1
139	139	3
114	117	1
30	54	1
147	147	3
145	145	2
221	221	5
7	15	3
17	17	1
151	152	1
24	24	2
68	68	5
63	64	6
219	230	2
170	172	1
209	218	1
167	167	4
99	100	1
209	209	1
15	16	1
5	9	1
57	57	2
154	155	5
102	102	3
158	197	1
179	213	3
47	49	1
184	188	2
185	185	1
80	83	2
62	64	2
172	172	3
37	37	2
183	183	3
69	69	3
117	126	2
200	201	1
123	123	3
5	5	1
85	85	5
168	168	4
82	83	2
53	54	1
31	72	2
182	183	1
25	172	2
25	26	1
68	69	1
18	20	2
151	153	1
162	171	1
104	106	3
184	186	1
34	35	2
0	33	5
34	48	2
107	126	3
60	68	1
55	56	1
156	156	1
3	4	1
30	30	1
45	45	4
32	85	1
176	176	1
14	14	2
234	234	1
215	216	3
115	118	2
30	39	1
117	118	4
80	80	1
10	28	2
3	13	2
7	35	3
82	102	1
3	7	2
220	231	2
26	26	1
188	188	2
42	42	1
224	224	1
29	39	2
28	28	3
80	105	3
67	67	4
121	126	1
239	239	3
51	53	1
156	157	1
180	181	1
203	203	3
116	117	1
15	30	1
24	178	1
217	217	3
173	174	1
208	230	1
58	59	2
225	225	3
113	113	1
135	137	2
211	211	1
22	23	1
87	112	1
145	146	3
31	34	2
50	65	2
191	191	1
197	197	1
5	43	2
188	189	1
219	231	1
171	172	1
82	82	1
49	52	2
45	46	2
33	47	2
29	29	2
46	77	4
211	212	1
212	213	1
101	101	1
2	2	1
194	198	1
158	166	1
174	207	1
62	134	1
38	39	1
71	72	1
112	112	2
159	159	2
56	66	1
72	134	2
42	43	3
7	13	1
11	11	3
133	133	2
192	196	1
228	228	1
3	162	1
105	108	1
122	122	1
143	144	1
233	233	1
222	222	1
52	52	1
13	14	1
16	22	1
