41	44	10
185	185	104
153	154	13
43	43	62
171	185	1
154	155	28
193	194	34
148	148	85
163	163	34
167	168	24
172	173	16
33	33	51
186	190	7
181	182	40
38	38	71
132	132	56
164	164	48
109	110	25
83	85	12
105	121	2
191	191	65
10	11	12
170	170	95
161	163	25
154	173	6
156	157	31
169	169	72
115	115	49
21	21	25
187	194	5
60	62	5
171	171	84
78	90	1
56	57	13
19	22	9
141	141	37
77	90	2
190	191	42
116	138	8
80	80	25
152	152	62
172	172	103
22	22	49
177	178	20
108	108	38
179	190	4
16	16	68
18	23	4
69	70	9
178	178	62
190	190	85
114	157	5
133	134	16
155	155	85
3	4	15
128	128	64
125	126	8
86	86	30
98	98	25
171	172	12
187	187	75
112	113	21
31	32	27
42	43	17
187	188	61
166	171	6
4	4	55
147	147	76
160	182	2
127	128	16
110	121	3
58	58	71
174	174	57
148	149	25
19	19	36
176	177	42
41	42	6
149	149	78
116	117	20
14	43	3
88	88	30
138	138	57
155	156	31
173	173	75
126	126	39
150	150	81
121	121	39
7	8	13
139	172	1
163	164	36
97	143	7
149	150	24
168	182	8
0	0	56
30	32	13
110	113	1
134	172	1
122	170	3
9	9	76
97	97	10
182	183	25
158	164	3
139	140	37
170	171	55
165	166	51
144	144	47
193	193	87
188	188	63
106	106	56
135	136	21
153	153	67
38	39	14
48	48	57
2	2	38
36	40	1
103	104	13
188	189	31
134	137	20
114	114	87
24	25	14
39	40	33
104	122	3
79	80	19
123	132	4
32	32	43
22	44	4
30	30	48
189	190	28
182	182	90
160	160	64
168	168	91
14	48	6
27	28	34
102	102	26
59	60	8
104	106	14
76	178	7
101	103	14
59	59	41
42	195	5
121	125	2
173	176	10
143	143	60
42	42	47
189	189	105
99	99	65
41	41	33
160	189	5
37	38	26
176	176	71
168	169	39
1	18	8
181	181	56
15	15	62
180	180	95
172	182	1
116	118	15
47	47	44
3	3	39
72	81	3
164	165	16
129	131	3
42	104	3
136	137	13
33	36	9
0	34	1
3	38	3
46	46	52
189	194	12
113	137	4
186	186	116
172	190	3
52	52	54
71	72	13
145	146	22
103	118	5
117	117	45
50	50	49
136	168	3
89	95	2
5	26	3
1	1	51
116	116	64
96	97	4
27	27	44
196	196	76
113	113	58
103	103	29
105	106	33
55	55	40
144	163	8
125	125	55
45	45	63
135	138	2
104	125	3
33	56	2
26	66	2
5	5	32
83	89	1
136	188	5
5	8	9
119	120	22
159	159	89
67	68	14
10	101	2
8	59	4
101	101	42
141	142	19
12	12	47
183	183	83
82	157	4
97	132	3
18	38	3
87	87	32
52	53	19
90	172	5
154	182	1
119	119	71
121	156	6
0	177	1
25	28	4
51	52	8
85	85	11
84	85	10
146	147	19
154	157	2
7	7	50
136	153	1
4	5	20
30	111	2
197	197	76
10	17	4
51	51	35
37	45	3
129	129	29
177	177	77
151	151	127
111	111	71
112	112	73
11	11	60
146	146	68
100	114	3
195	195	55
23	23	36
24	24	59
51	113	1
36	36	73
109	112	5
107	108	33
83	83	24
37	37	34
100	127	2
115	118	5
64	64	20
44	45	19
31	31	70
130	131	16
154	154	82
1	2	18
182	185	2
95	95	17
123	126	11
165	167	16
115	137	2
138	140	4
124	124	64
99	100	5
84	144	3
0	125	2
138	139	15
127	127	63
132	133	7
179	179	78
179	180	38
122	124	6
137	138	14
189	191	10
24	29	3
56	56	48
18	18	55
67	67	32
131	134	2
134	134	30
37	64	4
184	184	69
112	193	2
123	123	52
122	123	14
113	141	5
42	58	4
124	125	26
5	7	14
109	109	41
87	88	18
0	38	5
40	40	38
146	158	3
60	164	3
35	36	15
68	68	15
167	167	100
48	87	8
77	80	3
131	131	52
150	154	4
31	33	3
194	194	81
5	11	2
24	44	2
86	87	15
133	139	2
94	102	1
177	179	6
179	193	3
161	164	14
40	41	29
110	111	18
17	17	54
13	26	5
29	29	39
120	120	49
14	14	38
139	144	2
12	16	2
55	56	23
8	9	13
59	61	6
117	118	28
9	12	5
149	183	10
165	165	56
122	122	58
28	30	9
173	175	21
31	55	4
47	48	14
38	40	4
102	103	26
81	82	18
10	10	37
69	72	3
1	39	1
180	181	24
162	162	38
145	145	70
110	110	48
80	82	7
107	107	62
22	66	4
39	39	49
129	195	3
56	60	1
58	59	6
170	174	2
142	142	52
133	162	1
124	152	1
183	190	3
113	114	13
194	196	8
2	5	3
184	185	25
24	26	13
61	61	12
31	111	5
126	127	26
115	116	16
54	54	49
11	29	3
6	6	40
158	158	59
116	182	1
166	173	3
95	96	14
116	173	1
26	26	69
98	156	4
37	66	5
139	141	5
103	108	2
140	140	44
63	63	18
108	116	3
105	107	13
30	69	1
150	156	6
149	195	5
135	135	53
120	153	2
129	137	4
114	121	3
174	180	3
156	156	84
26	86	1
153	159	2
20	21	22
118	155	2
162	180	1
160	178	2
12	15	5
157	183	2
176	183	2
25	80	3
166	167	20
9	10	14
81	83	15
20	25	5
134	135	29
37	43	1
192	193	27
148	150	2
144	181	4
161	161	68
33	34	14
66	66	13
104	104	44
77	77	27
152	154	1
156	172	5
63	66	2
19	86	3
145	154	4
143	153	6
143	145	17
35	62	3
184	189	2
28	44	3
12	17	1
43	72	6
178	180	4
179	182	6
176	181	8
139	139	32
44	44	57
82	85	9
21	25	1
130	130	20
143	146	14
138	172	2
112	115	2
149	181	9
171	186	2
174	175	36
169	172	9
18	35	5
6	64	3
2	3	28
119	194	2
133	133	47
9	14	2
190	193	4
114	171	2
141	143	9
132	149	4
28	28	31
186	187	30
33	35	5
183	184	17
163	167	10
108	110	5
166	176	5
157	188	2
157	157	66
185	195	1
136	136	44
162	176	2
175	175	45
160	161	23
23	63	5
108	111	11
84	84	30
166	166	47
13	16	3
140	162	2
5	6	28
157	163	4
120	150	2
176	190	8
137	137	41
61	64	13
170	172	13
93	93	24
77	78	14
78	195	3
71	71	34
135	184	1
59	132	4
7	9	2
44	54	3
103	106	7
159	160	31
115	131	1
132	136	5
48	49	11
90	90	14
34	37	1
0	19	3
97	130	5
73	76	7
135	137	20
173	177	3
74	84	1
116	130	4
102	104	10
175	176	12
160	185	4
108	109	9
105	105	39
191	192	23
57	57	50
45	46	15
192	192	50
161	162	26
28	29	13
148	152	3
88	89	17
21	149	2
30	31	17
130	133	2
107	111	4
147	180	3
179	181	5
179	183	1
110	197	2
138	149	5
76	77	6
80	81	16
1	3	12
81	81	12
150	153	3
119	157	1
22	26	5
35	35	31
166	190	4
43	44	19
177	182	4
104	105	13
143	159	4
172	179	2
96	96	22
107	166	9
62	62	13
82	82	28
67	86	3
172	177	7
156	169	2
126	128	8
25	25	51
20	20	45
118	119	9
105	161	4
22	23	24
101	102	15
148	151	7
13	47	5
94	133	4
57	58	9
120	184	4
120	195	3
140	141	11
93	134	2
79	79	15
12	53	2
53	53	58
82	83	12
119	121	12
34	34	51
19	28	1
46	134	1
70	70	18
13	14	15
100	165	10
3	36	5
143	144	20
45	47	13
11	120	1
49	49	52
37	39	15
50	52	3
65	73	4
60	64	4
24	27	10
161	191	3
123	125	5
119	188	4
103	109	11
65	65	16
6	17	5
169	170	30
34	35	30
29	46	3
147	169	3
30	44	3
100	100	75
163	172	4
118	158	8
38	65	1
159	186	5
25	27	8
40	68	2
64	65	19
22	144	3
63	161	4
116	156	4
39	149	2
150	151	26
74	74	17
113	194	1
131	133	9
181	189	4
76	76	23
72	72	34
63	154	1
59	62	9
122	128	2
151	153	6
146	157	1
114	120	5
123	174	1
34	61	4
97	99	1
160	167	6
16	90	1
157	158	33
114	115	39
192	195	8
9	186	3
6	8	10
196	197	20
16	17	24
191	193	2
65	89	3
178	179	13
130	132	13
181	184	6
115	187	1
124	133	7
68	74	5
25	75	2
69	69	32
155	193	2
133	160	5
175	178	3
104	115	2
144	145	14
54	55	25
67	69	4
177	192	8
16	36	3
100	121	4
18	19	9
130	140	3
0	156	1
15	16	6
168	178	1
94	95	7
17	18	17
88	172	3
190	192	12
10	14	2
97	104	1
8	21	4
123	171	5
145	147	6
176	178	14
60	146	2
155	159	2
51	53	7
8	8	41
8	33	3
168	191	4
17	19	3
145	156	7
132	187	2
144	173	3
34	64	3
7	22	1
137	140	3
82	84	11
23	24	19
17	39	2
1	23	5
23	182	1
190	196	1
36	43	7
3	97	2
184	195	4
158	159	26
64	68	9
122	189	1
102	106	8
132	137	2
153	172	2
55	58	6
0	126	1
78	128	5
187	189	6
32	33	12
14	32	2
148	172	1
147	179	5
152	153	34
135	140	9
147	148	14
36	37	12
131	132	15
40	43	3
170	183	2
28	87	2
75	75	6
122	153	2
45	54	3
25	26	21
139	147	2
15	17	9
135	152	4
13	45	4
145	175	2
142	147	3
172	176	7
155	158	1
12	13	13
158	161	2
173	178	11
115	119	5
68	69	9
164	168	6
21	22	18
51	122	4
116	181	3
160	186	3
107	115	1
69	73	5
171	183	3
185	186	32
132	138	2
142	156	1
62	63	9
109	111	11
35	39	6
89	89	10
118	118	34
62	178	3
8	32	8
53	54	11
182	197	2
171	179	5
167	169	11
174	178	5
145	153	3
166	196	2
124	126	3
150	171	1
188	193	16
40	42	5
190	194	8
169	171	7
162	168	2
116	149	3
117	145	2
58	68	4
4	8	1
102	108	2
63	178	5
147	174	6
73	75	7
72	73	9
83	88	5
150	152	13
167	191	2
116	140	7
6	7	4
158	180	8
9	11	3
8	73	1
141	196	3
3	20	2
57	80	2
128	129	1
66	69	4
43	45	10
44	73	3
74	75	6
13	54	5
114	128	4
25	37	2
75	150	3
161	166	8
65	68	6
22	25	2
21	37	1
173	174	29
100	110	3
21	162	4
144	151	1
24	138	2
188	191	3
109	171	5
40	63	4
161	169	3
73	74	7
194	195	14
93	94	6
78	79	18
144	152	2
113	115	3
94	94	31
0	65	2
139	151	5
13	13	60
0	28	3
151	175	5
70	71	6
167	177	1
93	96	1
136	150	1
18	160	2
64	76	5
141	157	6
163	173	2
67	79	2
110	114	4
174	177	2
27	147	5
139	174	5
195	196	15
151	152	27
42	44	5
161	165	7
134	143	4
78	78	24
168	179	3
144	155	6
153	155	4
2	19	2
4	7	3
146	152	6
7	21	3
74	82	1
125	135	6
47	49	6
0	1	19
161	172	5
139	179	1
2	127	1
152	178	6
54	56	13
107	193	3
123	124	8
115	144	2
14	44	3
115	133	3
22	24	8
140	145	6
55	61	3
45	66	2
116	155	3
180	184	5
111	155	1
18	112	3
2	32	2
116	144	2
188	190	7
123	188	1
49	51	5
168	170	8
131	167	3
55	63	7
9	53	2
73	73	17
163	166	6
72	78	2
14	15	15
183	185	1
39	41	6
136	140	1
116	119	1
36	64	1
132	135	7
136	171	7
20	22	11
152	167	3
50	54	3
175	180	3
50	51	24
90	147	1
8	29	4
181	185	4
163	175	2
120	136	7
100	101	26
9	23	2
18	20	2
130	173	2
76	104	2
108	129	8
86	186	3
19	26	8
19	41	2
20	63	3
137	169	1
37	74	1
97	98	7
176	179	7
161	178	2
66	68	10
108	191	1
2	8	3
22	64	5
33	37	3
107	119	5
16	37	2
37	41	6
145	148	4
2	84	1
172	178	4
160	169	2
29	107	8
164	166	8
159	196	1
174	176	11
8	126	3
11	69	3
125	127	5
139	142	3
147	157	2
125	195	1
168	177	2
142	148	3
171	195	6
11	12	14
23	191	2
46	47	11
25	38	7
20	36	1
142	143	11
34	68	5
140	143	5
35	40	8
36	38	3
60	60	6
8	46	3
111	148	7
32	45	4
146	153	2
155	157	6
111	112	15
152	172	8
17	137	7
119	179	1
139	163	3
123	170	1
68	78	1
9	63	2
48	79	1
108	115	1
160	197	5
46	50	4
114	137	1
153	156	1
101	194	1
65	66	10
18	89	5
119	155	2
122	129	1
112	154	2
30	84	4
167	176	1
12	28	4
159	170	4
149	151	13
152	155	4
19	35	6
83	84	16
61	63	8
110	154	4
49	50	7
125	190	2
23	41	4
87	89	3
162	164	21
110	167	3
28	41	2
117	131	3
111	113	3
138	151	6
108	117	2
93	118	1
130	150	3
25	36	7
103	105	2
160	170	1
102	118	5
157	159	3
67	88	1
101	115	10
109	154	3
69	89	1
42	150	2
26	27	10
112	129	5
99	106	7
145	149	2
159	178	4
130	137	5
191	197	3
45	126	4
162	163	12
153	158	3
2	60	1
22	50	4
18	26	2
132	191	3
140	151	4
120	124	1
22	35	1
151	155	5
132	158	2
165	172	3
7	15	2
120	121	19
0	39	2
113	187	6
135	144	3
157	176	5
12	18	1
9	187	4
82	132	2
19	21	16
138	153	7
88	90	5
171	182	9
143	154	3
193	195	3
41	45	4
73	86	1
121	131	4
131	147	2
0	27	3
135	139	10
156	158	8
147	153	5
0	2	6
160	162	1
180	188	3
40	51	1
106	110	2
139	153	1
39	80	1
118	131	3
2	69	4
65	74	3
31	37	4
107	112	2
35	61	2
79	85	3
110	144	3
11	119	3
5	12	3
152	164	4
123	128	3
33	60	1
63	75	2
53	55	7
6	11	2
180	183	2
174	196	1
154	167	2
164	167	7
31	100	3
162	189	2
104	107	6
40	108	6
106	107	15
186	195	6
51	76	5
33	110	2
33	64	1
37	42	3
177	184	1
13	51	3
132	134	3
40	87	6
13	81	5
41	103	2
129	130	9
108	114	2
23	31	1
2	4	6
180	182	6
137	172	2
32	66	3
98	100	2
132	173	2
107	182	4
143	155	5
155	194	1
110	116	2
137	155	4
156	159	4
145	163	1
186	188	6
153	174	1
67	74	3
132	162	3
169	188	7
112	114	3
183	186	1
160	175	1
9	76	2
151	178	1
51	54	2
184	187	5
4	33	5
35	102	3
121	186	3
97	116	1
86	89	1
112	121	3
133	138	5
13	66	1
21	41	2
29	190	2
29	31	2
189	193	1
71	77	5
43	56	3
24	40	2
43	68	1
110	137	2
101	122	5
3	37	4
19	20	8
136	139	1
125	136	2
140	167	1
153	175	1
63	76	2
34	60	3
24	41	2
74	76	1
42	86	4
176	194	2
129	185	2
146	148	12
88	113	5
45	52	2
184	193	1
130	154	1
119	171	1
147	154	7
25	46	1
19	59	2
112	128	4
112	185	8
110	112	3
110	155	2
77	155	3
63	134	1
68	72	2
107	128	4
63	64	4
49	52	1
30	70	1
25	33	4
143	176	3
87	109	1
153	161	5
132	142	2
132	152	5
24	43	3
143	164	5
76	112	1
71	81	1
66	67	4
176	187	3
106	115	4
116	193	2
116	192	7
166	183	1
134	139	3
176	180	5
1	34	3
173	179	2
14	62	1
29	88	1
62	155	3
159	164	4
23	42	2
187	193	4
106	142	2
61	62	8
140	164	3
12	51	2
177	181	1
86	169	5
27	79	1
118	120	2
34	38	4
131	192	2
58	69	2
191	196	2
108	153	1
60	154	2
142	145	4
86	90	1
154	161	5
17	139	2
125	142	6
6	87	1
170	177	2
106	109	2
8	99	3
82	96	2
168	172	6
146	176	4
147	192	1
96	151	2
48	122	6
98	99	11
112	131	1
182	188	2
19	27	5
168	180	1
140	163	2
33	184	1
112	142	1
49	96	2
140	174	5
133	136	9
15	187	1
130	159	1
157	192	2
169	195	2
29	197	1
5	46	2
162	167	2
171	177	4
12	57	2
156	161	1
154	158	5
14	46	2
16	20	4
39	51	1
116	132	8
24	75	2
14	23	3
95	134	2
147	158	5
11	13	9
181	183	3
35	43	1
117	154	2
64	77	1
141	145	3
15	43	2
185	187	3
120	133	2
150	179	4
132	166	3
9	13	11
163	165	3
104	181	1
5	20	3
147	164	4
17	80	1
0	6	5
139	181	2
18	36	1
11	16	5
43	124	1
11	30	3
172	174	5
159	166	4
65	78	1
20	40	3
152	181	3
38	66	2
48	97	1
169	182	3
53	56	4
46	55	2
153	178	3
108	139	5
61	66	1
34	74	1
85	87	1
37	95	2
10	75	2
137	179	3
28	57	1
156	160	2
48	195	1
23	25	3
100	108	3
178	181	4
133	147	1
144	175	5
169	174	3
3	5	6
134	152	1
8	71	2
109	117	1
118	133	1
63	68	2
101	106	2
3	156	2
116	161	1
140	144	6
129	171	2
144	154	1
35	64	2
77	87	1
154	175	2
2	64	2
183	187	4
155	164	1
122	183	1
171	188	2
115	117	4
37	51	2
152	177	2
124	190	5
114	116	2
145	177	1
58	61	7
62	78	1
55	57	2
118	150	1
88	180	4
114	164	3
158	160	2
62	154	1
106	140	1
156	168	2
1	57	1
159	176	1
135	150	3
44	46	2
85	86	5
132	197	4
0	3	1
102	105	2
163	171	2
0	64	1
10	12	8
20	130	1
88	99	1
148	153	2
138	156	1
60	61	2
43	113	2
62	64	6
98	102	1
138	148	3
35	38	3
183	196	4
153	181	3
84	86	2
27	93	1
32	79	1
53	57	1
26	37	3
193	197	1
145	155	1
10	45	2
157	189	1
99	117	1
115	192	1
134	140	2
7	26	4
165	178	3
72	76	1
118	122	2
29	30	4
47	50	6
11	14	6
54	61	3
106	112	2
153	177	3
71	73	2
32	42	3
11	15	2
94	97	3
118	130	5
4	19	3
113	172	3
34	36	6
64	66	6
147	150	2
160	165	3
118	164	2
122	125	2
156	192	2
153	167	1
137	154	5
118	123	4
23	62	2
75	182	3
47	123	3
132	150	3
194	197	5
33	66	2
108	118	5
123	130	2
99	101	6
6	21	5
6	9	1
81	88	2
136	143	2
34	69	1
141	165	5
143	152	4
178	184	4
148	179	1
134	136	1
149	172	1
63	78	1
41	43	2
1	177	2
27	44	1
109	151	1
9	31	3
118	159	1
70	72	5
157	162	2
148	177	2
108	144	2
129	141	1
140	153	2
8	119	2
55	59	1
144	161	2
15	53	1
24	39	4
117	134	3
8	23	4
139	158	6
37	84	6
10	59	3
115	190	4
172	183	1
17	23	2
162	194	1
41	75	1
137	139	3
109	192	2
117	181	5
59	64	1
12	196	1
104	128	2
166	168	5
138	191	2
43	122	1
170	178	2
77	85	2
47	109	3
9	52	2
48	51	1
34	39	5
32	50	3
117	168	1
111	137	3
141	195	1
62	161	1
33	53	4
191	194	5
23	74	5
143	166	2
101	121	2
58	62	5
81	113	3
38	41	1
0	40	2
3	59	1
97	190	3
135	154	1
8	58	1
30	97	1
133	137	1
150	197	2
109	186	4
163	183	2
135	143	2
58	73	2
100	102	3
104	127	1
119	129	3
129	196	1
18	22	2
2	83	1
61	173	1
187	195	3
152	171	5
159	161	1
48	50	2
133	143	2
47	53	1
130	147	3
77	136	2
180	185	2
110	176	2
178	193	1
122	142	3
163	168	3
124	188	1
10	47	2
41	108	1
139	178	2
14	16	4
82	112	1
113	138	4
121	124	1
136	138	3
149	157	2
17	88	1
165	175	2
46	54	1
32	55	1
162	193	1
161	174	2
96	104	1
140	180	2
44	111	1
138	154	1
89	90	4
66	75	1
16	80	1
15	36	3
48	153	2
40	45	3
93	97	2
40	44	2
19	34	1
6	30	1
10	13	5
33	58	1
137	161	2
19	36	2
46	53	1
131	153	1
24	86	2
94	106	2
158	167	1
112	153	1
11	85	2
63	144	1
16	18	5
132	156	1
118	183	4
72	123	1
2	21	1
152	161	2
167	172	3
59	75	2
167	180	3
59	72	2
159	162	1
105	111	2
119	190	2
60	74	1
11	37	2
102	107	5
6	125	2
137	141	1
42	76	1
184	186	5
154	179	2
145	150	4
109	157	1
160	166	1
106	160	2
100	150	3
4	38	1
0	97	2
155	162	2
7	66	1
50	56	1
89	107	4
26	52	1
20	51	1
56	58	2
77	164	3
147	178	1
123	165	1
160	181	1
132	160	1
135	146	2
118	143	1
123	157	1
175	179	1
188	194	1
125	149	4
99	107	1
69	80	1
86	88	1
177	183	1
112	177	4
27	192	2
174	179	1
17	28	1
169	176	4
136	173	1
96	186	1
156	186	1
164	173	1
25	34	3
43	101	1
124	151	1
189	196	1
90	120	2
120	122	4
169	181	2
181	186	1
170	188	1
12	56	1
15	18	1
1	4	2
148	158	3
102	128	1
117	130	3
75	181	2
35	70	2
115	164	1
147	156	2
154	169	2
77	79	2
50	123	1
31	44	4
112	192	1
23	37	3
170	176	1
119	195	2
79	83	2
142	155	1
0	22	1
42	52	1
66	72	1
113	175	1
9	85	1
161	183	1
0	163	4
163	169	3
140	142	1
75	83	2
24	180	1
37	69	1
109	194	1
121	130	2
56	73	3
34	62	2
58	66	2
132	147	1
106	120	3
144	147	1
75	76	2
0	85	2
121	123	2
169	194	1
163	170	1
10	39	2
124	194	2
72	74	1
139	143	2
113	164	1
21	23	1
64	74	2
143	185	1
24	66	1
19	23	2
111	128	1
61	67	2
14	166	1
16	74	1
134	148	1
169	196	1
32	63	1
158	163	1
174	193	3
57	79	1
111	114	4
137	151	2
112	189	2
136	167	2
159	187	1
119	124	1
29	43	2
123	161	1
52	108	1
29	32	2
128	132	1
122	145	4
67	73	2
0	16	1
101	108	1
59	68	2
192	194	1
116	164	1
16	33	2
2	9	2
115	120	1
32	38	3
149	182	1
148	171	4
105	110	1
90	93	1
110	130	2
26	73	1
2	58	1
18	28	1
99	105	1
27	184	1
41	64	2
88	117	1
133	171	1
170	191	1
141	156	2
100	104	1
62	101	1
105	137	1
119	184	1
169	184	1
1	38	2
40	118	1
153	157	1
7	184	1
114	118	3
113	147	1
137	142	2
30	46	2
120	130	2
156	183	1
40	61	3
8	26	3
148	180	1
20	72	2
137	168	1
120	129	1
119	183	1
51	101	1
173	196	2
98	128	1
107	109	1
93	195	1
124	129	2
18	139	2
115	146	1
128	167	1
185	193	3
96	130	2
45	102	2
101	110	2
109	147	1
18	86	1
20	23	3
178	189	1
108	135	2
113	120	2
173	180	1
134	173	1
122	133	3
159	179	1
38	89	2
157	186	1
180	186	1
63	70	1
136	159	3
158	187	2
120	154	1
28	31	1
107	132	1
80	85	1
1	17	1
30	34	3
40	64	1
114	132	3
115	152	1
146	187	1
76	88	3
13	48	1
5	97	2
123	129	3
6	24	4
120	165	1
112	143	1
17	20	1
98	115	1
70	73	1
59	180	3
101	143	3
127	129	1
62	69	2
145	157	2
20	27	1
172	195	3
117	121	2
56	63	1
12	46	2
28	189	1
46	68	2
154	159	2
35	42	4
181	194	1
15	30	3
32	54	2
127	156	1
3	41	1
31	172	1
135	161	2
139	150	1
102	111	2
135	162	1
162	182	2
160	163	1
116	183	3
111	194	1
174	184	1
20	136	1
95	145	1
118	148	1
19	37	2
108	131	1
29	79	1
128	172	1
156	170	3
116	133	1
20	24	1
29	72	2
33	61	1
148	167	4
4	58	1
133	184	1
14	63	2
27	51	1
21	34	2
118	152	2
123	187	1
102	131	1
158	174	3
35	59	1
42	117	1
22	39	1
143	148	6
101	114	1
51	56	1
17	37	1
132	155	1
154	180	1
58	60	1
83	104	1
36	195	1
50	53	1
140	157	1
177	187	2
34	40	1
118	154	1
61	69	1
94	96	1
25	47	2
131	195	1
66	78	1
100	112	3
29	86	1
17	26	1
23	38	2
98	123	1
102	163	1
5	15	1
185	194	2
32	112	2
32	71	1
113	119	1
138	167	1
146	182	1
57	81	1
109	115	1
38	80	1
138	169	2
42	56	1
42	101	1
65	76	1
12	157	1
101	165	2
121	122	2
14	165	1
137	152	1
122	180	1
154	156	2
121	134	1
2	33	2
170	182	1
26	38	1
166	174	1
36	103	1
131	148	1
71	122	1
13	42	1
130	178	2
110	193	1
17	130	1
182	195	1
32	44	1
6	20	1
85	143	1
124	191	1
145	152	1
8	62	1
131	151	2
166	172	1
52	118	1
2	7	1
20	64	1
151	164	1
7	65	1
168	192	1
100	139	1
175	196	1
179	196	1
170	195	1
83	99	1
165	194	1
8	39	1
186	189	2
122	151	1
43	54	1
76	173	1
129	135	2
4	36	1
36	39	2
0	67	1
83	183	1
132	140	1
186	197	1
109	140	1
4	141	1
100	117	2
116	123	1
47	52	3
144	167	1
23	36	1
11	17	1
5	41	1
0	41	1
42	87	1
2	37	1
139	154	1
54	81	1
132	172	1
151	154	1
9	42	1
124	131	1
7	19	1
111	143	1
147	177	1
69	71	1
151	162	1
109	119	1
7	44	1
125	128	1
159	192	1
45	51	1
3	17	1
161	175	1
134	164	1
45	129	1
63	65	1
156	194	1
34	67	1
8	79	1
117	122	1
10	115	2
140	183	1
121	196	1
20	135	1
46	94	1
150	173	1
90	179	1
134	145	1
152	179	1
146	165	1
