36	36	5
36	37	6
58	132	2
95	95	9
92	92	5
21	21	7
9	10	3
30	31	1
33	33	7
30	30	9
84	85	10
106	134	1
97	97	5
34	35	2
80	80	6
99	99	9
94	96	2
67	67	5
125	125	1
118	118	4
101	101	7
84	131	5
14	14	1
17	36	1
47	47	12
5	44	2
76	76	4
38	39	3
70	70	4
28	28	4
46	46	3
20	21	2
35	39	4
126	126	1
3	3	5
87	87	1
5	5	2
8	8	7
108	108	7
87	94	2
83	83	7
62	93	2
82	82	6
130	131	2
18	18	3
26	27	3
63	63	7
106	110	2
72	72	8
81	131	2
32	32	7
103	103	7
63	64	2
38	38	4
60	60	2
59	59	4
27	27	2
4	4	3
55	56	3
76	77	6
29	77	3
34	34	3
84	84	4
27	93	2
7	12	1
6	93	1
55	126	1
21	26	2
94	124	2
41	41	4
45	45	16
131	132	3
24	26	2
13	14	1
9	9	5
12	46	3
19	20	1
22	22	5
100	100	8
61	61	3
117	118	2
8	36	4
113	113	4
96	96	9
98	99	2
39	39	2
109	109	4
129	130	3
13	16	3
5	13	1
35	35	5
102	102	10
97	98	1
6	6	6
48	49	1
82	85	1
72	73	2
81	81	3
11	11	19
66	66	5
74	74	5
132	133	2
79	79	3
26	26	7
12	12	6
60	75	5
29	29	6
103	104	1
77	78	1
77	77	3
39	81	1
101	102	1
7	15	4
102	105	1
7	7	3
133	133	2
89	91	2
24	25	1
15	15	4
123	124	1
56	56	2
130	130	2
37	38	2
117	129	2
21	50	1
91	92	3
15	21	1
86	98	2
23	32	2
78	78	4
42	42	1
20	20	4
23	23	1
9	76	1
62	62	4
22	25	3
16	40	1
93	109	4
106	106	2
28	91	3
57	57	2
107	107	4
11	15	2
86	86	2
92	114	3
120	120	4
15	39	2
61	80	1
8	25	1
19	19	5
33	34	2
14	27	1
9	46	1
68	72	2
3	97	1
74	76	2
89	89	2
58	59	1
110	111	1
121	121	1
57	84	1
5	45	1
43	43	1
68	69	2
49	49	2
117	122	1
39	42	2
46	47	4
71	71	2
105	106	2
66	67	1
122	122	1
61	75	1
59	80	3
3	10	1
75	75	2
85	85	5
27	28	2
95	107	2
112	112	4
119	119	1
61	95	1
42	49	1
18	29	1
4	5	2
28	43	2
89	90	1
31	31	2
10	10	2
28	41	1
60	84	1
18	19	1
59	90	1
93	93	2
48	48	1
47	92	1
6	95	3
15	16	1
60	78	1
20	22	1
73	73	1
108	109	4
127	127	1
91	91	3
111	111	2
18	32	1
92	93	1
13	13	4
60	71	1
127	128	1
121	122	2
78	130	1
26	78	1
88	88	2
58	84	1
81	82	1
29	47	1
79	80	1
18	93	1
105	105	1
1	1	1
90	91	2
55	55	1
58	133	2
117	117	1
65	66	1
68	68	1
131	131	1
64	64	1
5	57	1
16	42	1
41	49	1
59	60	1
65	65	2
88	100	1
70	72	2
114	114	1
17	18	1
6	98	1
25	25	1
104	105	1
93	110	1
17	17	1
12	44	1
69	74	1
107	111	1
24	24	1
130	132	1
11	74	1
113	134	1
47	48	1
