49	49	10
104	104	27
55	55	14
81	81	23
20	21	1
124	124	8
110	110	11
98	98	12
89	91	9
105	107	5
98	99	5
82	82	16
54	54	11
14	14	6
94	94	4
118	119	9
108	108	6
104	105	6
56	56	21
51	51	6
97	97	14
84	84	6
25	51	3
21	127	2
92	92	10
69	69	15
133	133	14
101	104	2
86	87	3
46	46	6
99	99	16
125	125	4
57	57	15
124	125	4
83	83	17
55	56	5
48	48	9
106	118	4
84	86	3
98	106	2
66	66	6
30	30	9
99	101	6
28	28	16
65	66	6
12	12	4
81	82	3
50	50	12
114	114	4
102	102	6
16	16	2
122	122	5
61	61	1
111	111	18
87	87	7
103	103	13
94	97	3
23	24	3
59	77	1
5	5	13
85	85	3
120	120	16
91	92	9
42	62	4
31	31	9
66	67	7
118	118	23
97	99	10
18	23	3
33	33	2
50	51	2
71	71	10
26	26	15
75	76	2
42	65	4
58	58	11
26	81	4
109	109	14
129	129	6
102	103	8
62	62	9
126	129	3
64	64	13
49	50	8
96	96	9
24	24	10
92	93	4
39	39	10
45	45	5
65	65	10
116	116	5
120	121	2
53	53	19
28	29	9
11	12	1
60	60	3
126	126	14
132	132	5
106	106	17
34	34	2
89	89	6
74	74	7
73	73	10
93	96	2
42	44	1
78	79	3
48	76	3
92	101	1
24	25	2
75	75	7
92	100	3
123	123	7
86	86	11
128	129	2
94	96	1
42	42	2
77	77	14
84	89	2
53	109	1
126	127	8
102	117	1
44	44	11
70	70	5
94	95	3
93	95	5
67	120	2
130	130	12
97	98	8
95	95	15
93	93	13
83	84	8
52	107	5
76	76	16
129	130	5
73	74	6
88	106	2
53	54	17
13	13	2
46	47	4
0	6	4
47	65	2
46	48	6
22	22	4
17	17	5
91	91	8
1	1	3
108	109	2
106	109	1
4	4	5
102	104	1
2	2	8
55	110	3
68	70	1
87	88	13
121	121	4
38	38	2
85	106	1
8	9	4
79	79	9
57	112	4
18	22	3
60	61	1
100	100	8
52	54	3
131	131	8
7	7	5
33	34	4
89	90	4
105	121	5
67	67	8
79	80	5
41	42	2
39	40	2
92	108	3
78	78	3
114	116	6
43	43	6
3	3	3
27	27	8
79	97	6
18	18	5
67	98	1
5	8	3
13	16	1
40	40	10
107	107	14
113	113	12
127	127	5
18	21	3
113	114	1
63	65	1
115	116	1
80	81	7
16	17	5
115	115	4
111	115	3
82	84	1
85	86	6
79	81	5
101	101	10
14	15	2
11	11	5
17	21	2
72	72	19
114	115	3
105	105	4
10	10	4
68	69	5
132	133	3
95	96	3
32	32	3
101	102	1
86	88	8
26	47	2
23	23	2
123	124	6
29	29	5
112	112	8
58	69	4
9	10	2
81	104	4
59	61	3
40	41	1
68	75	1
109	110	6
9	12	2
25	25	7
52	53	2
70	89	6
107	108	6
28	30	5
80	80	7
1	3	3
63	63	6
61	62	9
76	77	3
78	81	1
19	22	1
45	47	2
44	45	1
42	45	2
38	83	2
19	20	4
128	128	7
59	59	3
68	68	8
79	88	5
30	32	2
93	94	3
43	44	4
96	97	1
69	70	2
15	15	5
0	0	6
113	119	2
41	41	7
88	88	7
17	18	1
111	119	2
100	101	1
107	119	2
72	73	2
47	47	2
110	111	3
57	58	3
22	84	3
58	63	1
130	131	3
127	131	1
65	68	2
103	104	2
21	130	3
22	24	2
79	91	1
2	3	3
70	74	1
68	78	1
59	68	2
102	107	2
112	116	2
92	107	1
6	6	3
117	117	4
114	120	1
115	117	1
9	9	1
21	22	4
99	104	2
77	79	1
89	94	1
52	52	2
91	93	1
95	115	1
29	65	1
90	90	3
20	105	1
7	8	3
74	75	2
57	59	4
25	26	1
99	125	1
70	72	1
60	62	1
67	96	2
98	104	1
127	130	2
119	119	3
26	131	3
15	16	2
95	100	4
47	48	2
104	107	1
71	72	1
20	20	2
49	69	1
91	100	1
45	46	2
17	127	1
3	4	2
69	75	2
5	7	2
106	107	1
64	65	1
9	81	1
99	100	2
83	91	2
2	5	1
101	103	1
45	78	1
113	117	3
98	101	1
45	85	1
17	128	1
31	112	1
110	113	1
62	63	2
25	122	1
43	46	1
80	96	1
19	19	1
27	30	1
128	130	1
5	12	1
125	126	1
48	49	1
43	47	1
8	8	2
54	60	1
5	6	1
61	66	1
10	11	1
117	118	1
74	100	1
54	115	1
46	51	1
27	29	1
108	111	1
81	86	1
