79	79	13
101	101	3
95	95	4
4	5	1
30	30	4
64	64	7
67	68	2
129	129	3
38	39	3
80	80	7
83	84	9
78	119	1
120	120	14
72	73	7
14	14	7
93	93	5
19	19	3
118	118	7
82	82	9
112	113	1
131	132	3
116	116	12
75	76	13
125	126	6
68	99	6
65	69	2
31	31	2
21	21	8
85	85	3
102	109	1
88	91	2
65	65	6
77	77	9
52	52	11
18	40	4
122	122	2
72	79	3
28	28	9
3	3	4
81	82	1
49	49	11
80	125	3
20	48	1
51	51	9
54	132	5
11	12	3
118	119	7
79	80	2
45	45	9
31	32	5
42	101	3
50	112	4
47	47	8
58	69	5
16	44	3
113	113	8
6	42	3
50	50	10
130	130	15
49	50	2
121	121	17
26	95	3
69	69	17
29	29	10
107	108	3
78	103	4
11	11	8
26	111	2
15	27	3
34	34	6
127	128	7
90	92	4
44	45	2
97	101	1
5	5	9
42	45	7
44	44	8
52	113	4
33	33	11
55	100	2
62	67	4
42	42	4
48	48	6
43	43	14
73	73	3
4	4	11
87	87	9
44	97	3
57	57	11
3	4	3
101	126	6
128	128	18
66	74	4
59	59	10
6	100	6
115	115	17
116	117	3
89	89	22
67	107	6
104	109	5
132	132	3
65	75	1
65	72	1
53	53	15
16	16	10
94	94	8
84	84	3
78	78	6
43	44	4
123	123	10
90	90	7
10	10	2
125	125	4
73	82	2
59	60	10
0	0	6
81	81	6
111	111	3
6	56	1
23	28	5
50	51	3
20	20	5
8	8	8
55	55	14
113	114	3
5	7	5
131	131	20
41	43	4
53	122	3
23	23	10
66	66	7
114	114	7
17	18	3
96	96	8
12	29	1
24	82	3
71	71	10
126	126	9
87	88	2
6	6	2
26	26	10
93	124	2
58	58	7
45	46	2
9	9	3
62	62	9
80	91	1
17	17	7
100	100	8
82	111	2
83	83	3
78	79	5
55	130	7
60	61	2
133	133	3
72	74	2
41	64	2
70	71	1
19	83	3
23	25	2
42	43	4
102	102	8
67	67	9
128	129	3
56	56	3
98	98	5
110	110	8
105	107	1
2	2	8
49	71	4
46	69	1
107	107	9
92	92	9
39	39	12
18	18	4
43	97	2
108	108	9
13	13	8
2	99	1
32	32	4
68	102	6
16	22	2
58	59	4
12	27	4
5	37	1
39	48	2
32	33	1
16	17	1
104	125	2
121	122	2
21	22	4
54	54	2
101	113	1
39	47	1
68	68	8
77	91	1
45	92	1
120	130	2
25	25	3
14	15	3
41	42	4
54	55	1
46	56	1
69	120	3
73	98	3
60	60	8
109	109	4
103	103	5
18	19	1
95	116	1
70	70	3
86	89	2
91	92	5
82	84	1
41	41	6
22	95	3
52	53	5
90	91	3
76	108	4
110	111	6
42	64	2
2	3	2
109	110	2
72	107	3
21	94	1
46	46	3
75	79	3
76	76	1
82	114	4
105	105	3
75	103	1
7	34	2
76	109	2
9	58	1
99	99	5
55	56	2
88	88	2
34	83	4
30	83	3
61	61	3
68	103	2
118	127	2
86	86	3
7	7	9
95	121	1
77	78	2
88	89	6
72	118	2
82	90	1
24	44	4
84	85	4
12	34	2
117	118	2
104	105	1
27	86	3
22	89	1
7	48	3
45	55	1
75	116	1
81	84	1
50	52	1
108	130	1
40	40	7
85	88	1
24	24	3
126	128	2
13	14	1
120	121	2
68	119	2
126	130	1
49	57	1
68	73	2
29	30	3
9	10	3
9	28	1
8	30	1
15	20	1
16	45	1
80	81	2
12	12	9
119	119	5
106	106	2
11	106	4
72	76	2
110	116	1
123	124	2
7	58	5
2	49	2
103	109	1
13	40	4
122	133	1
28	29	2
64	67	1
63	63	4
26	83	2
18	82	1
72	78	1
117	117	1
1	99	3
40	44	4
12	20	2
63	64	1
41	44	1
91	91	1
112	112	3
38	38	2
113	116	1
75	114	2
55	115	1
62	108	1
89	90	1
72	72	3
74	74	1
97	97	2
45	69	2
99	100	5
27	27	3
1	7	1
60	62	1
46	105	1
77	119	2
71	72	2
113	117	1
104	104	1
25	26	1
2	98	2
65	79	1
1	1	1
114	115	1
84	89	2
8	58	1
21	25	2
64	65	1
11	83	1
53	57	2
5	100	1
13	30	1
16	20	3
50	53	1
12	40	2
97	98	1
80	97	1
127	127	2
109	112	1
72	75	2
24	27	1
47	48	1
86	87	1
61	62	1
15	15	2
95	96	1
2	7	1
112	117	1
23	24	1
118	125	1
3	42	1
67	108	2
125	127	2
8	34	1
20	26	1
86	91	1
60	109	1
6	103	1
57	58	1
85	87	1
68	108	1
64	100	1
102	104	1
66	100	1
15	33	1
76	77	1
