133	134	2
134	139	6
63	68	1
86	86	8
6	6	4
47	47	2
165	165	10
187	189	1
180	180	5
83	83	6
91	94	7
140	140	15
161	161	8
153	153	8
80	80	9
40	41	2
92	94	1
181	181	5
7	7	3
81	81	12
22	77	1
85	85	6
157	158	1
186	187	1
111	112	7
139	140	4
152	152	7
75	75	5
113	113	8
181	182	4
109	183	1
18	18	3
185	185	8
106	106	6
3	4	3
69	69	4
116	116	3
102	102	7
118	119	4
30	47	4
180	183	3
60	64	2
127	132	1
184	184	7
169	169	6
1	39	1
48	48	4
18	20	1
85	106	1
108	121	2
30	30	3
23	23	4
173	173	6
82	83	9
99	100	1
117	117	5
128	128	2
11	11	2
52	53	4
80	81	3
136	137	1
37	37	12
176	176	5
129	129	8
97	130	8
107	112	4
20	20	12
24	24	4
110	110	7
54	55	3
87	87	2
59	63	3
129	133	3
175	187	1
147	147	3
135	137	4
125	125	6
17	21	4
125	127	2
66	67	5
43	43	10
170	170	4
172	172	6
54	54	4
62	62	3
81	82	6
108	124	3
167	176	6
104	129	3
70	70	3
126	126	3
91	91	4
95	95	3
187	190	1
38	38	5
16	16	5
167	167	4
155	155	10
56	88	3
62	63	1
139	139	6
149	149	4
147	169	3
13	13	8
78	78	9
174	174	6
71	71	3
135	136	5
157	157	4
143	144	2
63	64	5
18	19	6
144	144	2
188	189	4
182	182	8
60	63	1
162	164	3
19	20	5
124	124	4
123	124	4
22	23	3
80	83	5
14	15	5
10	10	2
11	14	3
168	168	2
54	56	2
58	59	7
12	12	3
97	98	2
22	22	4
26	26	2
100	100	6
188	188	3
29	30	4
55	55	6
109	109	1
155	159	1
27	27	5
17	40	1
4	4	3
122	122	9
145	145	5
133	133	4
69	146	2
111	111	6
4	6	3
151	151	3
106	107	5
76	76	5
36	37	3
172	173	1
119	153	1
60	61	5
148	148	8
45	47	1
135	139	3
109	145	2
151	170	3
178	178	3
138	138	5
168	179	1
27	43	4
29	29	7
163	163	3
125	140	2
154	154	5
61	61	3
44	52	3
114	114	3
166	166	6
153	169	4
106	109	4
10	12	3
55	56	1
21	23	2
143	143	3
115	115	2
88	88	6
120	120	4
61	62	1
92	93	2
177	177	3
114	154	4
132	132	3
169	170	1
127	129	4
10	18	1
156	156	1
166	184	1
41	48	2
71	74	1
53	53	5
98	131	1
25	25	4
150	150	6
104	123	1
182	188	2
144	178	1
71	146	2
116	117	3
38	39	1
36	36	4
130	132	2
149	163	2
87	88	2
146	149	2
57	150	2
131	132	5
178	179	3
156	188	1
176	177	1
132	133	4
58	63	1
107	107	3
40	40	8
104	104	4
177	186	1
142	144	2
103	103	6
84	146	2
189	189	3
21	22	1
96	99	1
28	30	1
46	47	1
34	34	3
135	135	3
121	121	2
19	19	5
10	14	2
82	85	3
17	17	2
73	73	4
85	87	1
1	1	1
23	24	4
119	145	2
109	124	3
74	74	1
77	77	6
101	101	3
39	40	2
30	31	1
78	79	1
127	127	3
68	68	3
88	102	2
70	71	1
134	134	5
175	186	1
164	164	2
30	48	1
69	149	1
187	187	2
153	159	1
35	37	2
128	139	1
40	55	1
89	89	5
26	44	1
84	85	2
86	87	2
60	60	5
58	58	2
113	175	3
179	179	3
115	190	1
42	42	3
127	128	1
24	190	2
138	146	2
6	8	1
174	186	1
155	156	1
1	2	1
147	154	1
99	99	2
100	131	1
108	108	3
57	57	1
5	6	2
44	44	1
92	92	1
102	125	3
31	33	4
138	155	1
154	159	1
33	35	1
157	188	2
140	141	2
83	87	1
70	72	2
6	173	1
190	190	2
107	127	1
147	151	1
123	123	2
57	59	3
54	59	1
134	137	1
164	165	1
14	14	4
41	41	2
20	22	2
18	23	1
33	33	3
111	180	2
184	186	1
96	96	1
113	178	1
113	118	1
110	178	1
146	146	2
66	172	1
157	159	1
140	156	5
105	105	4
54	60	2
141	141	2
124	149	1
43	44	1
8	8	1
37	38	3
185	186	1
110	124	3
134	140	1
55	57	1
157	187	2
125	126	3
42	43	1
28	28	1
114	115	3
142	143	1
5	113	1
147	149	1
65	65	1
69	70	1
10	22	1
79	79	1
11	22	2
174	187	1
64	70	2
91	92	1
33	34	2
45	46	3
37	41	1
27	28	2
112	112	1
89	106	1
53	57	1
87	121	1
117	189	1
56	56	2
106	108	1
46	46	1
57	122	1
95	99	1
98	98	2
141	146	1
35	41	1
136	136	1
35	35	2
169	186	1
101	102	2
130	131	1
182	184	1
17	18	1
142	142	1
106	122	1
90	90	1
73	82	2
146	147	1
120	122	1
88	89	1
28	41	1
137	137	1
174	176	1
9	9	1
