100	100	7
124	124	16
6	6	6
149	149	5
31	31	16
28	28	13
81	81	21
113	113	10
42	42	12
0	0	15
32	32	18
153	153	6
19	20	5
44	44	15
25	25	8
14	14	16
114	115	8
144	145	5
29	29	16
23	23	21
21	24	4
41	41	25
35	114	2
7	7	9
161	162	8
114	114	13
71	76	1
13	13	28
163	164	2
154	154	17
125	126	7
93	93	7
119	119	3
130	131	4
39	40	10
126	126	11
107	158	3
148	149	7
12	12	6
57	59	3
162	162	12
120	121	12
144	144	12
133	133	5
97	106	4
126	128	5
0	1	13
59	59	10
97	97	8
95	96	3
95	95	6
91	94	5
21	21	7
143	143	19
147	147	21
132	133	2
27	38	4
142	142	17
172	174	1
118	120	3
151	153	3
55	55	12
62	62	9
54	77	9
107	109	3
145	145	22
91	91	9
34	34	10
28	29	11
110	110	11
71	72	11
78	81	6
0	6	3
35	35	22
179	179	13
135	173	2
123	123	15
134	134	11
148	148	12
163	165	2
45	45	12
137	139	1
80	80	8
66	66	14
167	167	16
16	16	17
131	132	3
56	56	5
152	152	4
35	37	2
157	157	20
27	27	25
108	118	6
112	112	11
103	105	3
107	147	3
29	41	3
5	5	18
152	153	2
38	40	1
53	54	3
89	89	5
11	11	13
158	158	9
132	132	9
172	173	9
145	146	6
82	88	4
42	44	3
170	170	8
63	63	7
4	5	6
90	90	9
127	127	5
126	154	1
78	78	12
51	53	10
107	107	6
33	33	18
164	164	8
20	46	4
165	165	6
172	172	5
140	140	13
173	174	5
20	49	3
75	75	12
60	60	8
6	7	4
3	3	13
26	26	13
2	6	4
176	176	18
129	129	10
8	11	3
169	169	6
1	1	6
150	150	10
13	14	2
24	27	3
154	155	3
77	79	1
140	141	2
132	176	3
22	22	14
137	138	4
22	23	7
83	83	3
98	98	6
155	155	10
180	180	4
34	35	4
76	77	8
155	159	3
127	128	2
10	13	5
149	150	2
170	171	3
158	159	10
16	17	8
101	102	3
91	109	2
115	115	5
52	53	5
21	166	6
152	164	1
50	53	2
53	53	11
108	108	5
2	4	1
127	151	1
143	144	2
35	36	11
160	162	4
93	94	1
36	36	21
19	19	3
139	139	16
77	78	4
178	178	9
29	31	5
11	29	2
64	64	3
77	77	6
3	4	4
142	143	4
18	20	3
81	82	9
165	166	5
108	141	2
135	135	13
54	143	2
24	25	4
80	92	4
87	89	4
111	111	13
99	100	2
71	74	2
166	167	5
102	103	2
71	71	11
112	113	4
121	121	8
88	88	4
10	40	2
133	134	9
26	30	3
79	110	3
12	66	2
89	90	4
134	172	3
132	163	1
117	118	5
96	96	6
19	21	3
2	2	5
18	51	2
92	92	9
130	130	3
4	4	18
104	104	11
178	180	6
42	43	7
125	125	9
80	81	4
38	38	9
24	26	2
171	174	2
96	145	2
123	131	4
121	124	2
125	130	2
138	138	8
151	151	4
107	146	1
137	137	8
141	141	12
8	8	8
95	124	1
21	23	7
128	128	6
108	148	3
109	109	4
50	50	8
15	16	1
72	73	3
72	72	22
171	173	1
98	109	4
21	22	7
28	38	3
72	77	1
98	104	1
7	17	1
163	166	1
43	44	10
31	32	9
118	118	6
125	147	2
66	67	6
74	75	6
107	108	1
155	156	2
79	81	2
173	173	8
84	84	3
52	52	13
30	30	6
40	43	1
88	89	4
17	17	11
29	30	1
159	159	5
174	174	8
65	66	3
136	137	1
162	163	3
60	64	1
18	18	12
10	10	11
79	92	4
10	52	1
123	124	3
43	43	12
11	13	6
76	76	7
40	40	17
101	101	8
160	161	5
68	68	6
78	108	3
136	136	6
90	93	2
82	87	3
73	75	5
117	117	9
118	119	4
15	15	13
79	94	1
10	12	2
14	15	3
89	93	1
22	60	2
3	6	1
33	34	5
74	74	6
161	161	5
32	33	4
5	6	4
132	150	2
24	24	12
16	40	3
41	42	2
54	94	3
116	116	1
167	169	4
57	57	1
99	101	7
10	15	2
76	94	2
166	166	5
98	99	3
26	27	3
168	168	9
100	107	2
103	103	7
17	18	6
94	94	3
116	117	1
73	74	3
134	135	4
127	131	1
157	158	6
51	51	7
18	19	6
94	95	1
39	39	7
106	106	10
120	120	4
56	94	1
159	161	1
77	109	1
54	54	9
104	130	1
38	39	5
61	61	6
100	101	1
103	128	1
146	146	1
174	175	6
65	65	5
8	9	3
122	122	2
78	79	2
79	79	7
27	29	2
72	74	7
73	73	7
37	37	5
106	107	4
6	11	3
27	28	6
175	176	1
92	94	1
128	129	1
106	127	2
104	105	4
171	172	5
14	109	1
54	73	1
164	165	3
56	57	4
61	62	1
58	58	4
136	174	2
40	41	5
144	152	2
135	136	3
10	16	5
60	61	4
130	134	3
25	26	3
9	11	3
9	9	4
83	84	3
151	152	4
84	89	1
146	147	3
82	85	1
65	74	1
90	102	3
86	86	5
57	58	1
110	111	1
135	174	1
142	144	4
75	76	1
36	42	1
68	74	1
63	86	1
7	8	2
120	124	1
32	35	1
14	16	1
11	14	1
124	125	4
13	121	1
81	84	3
12	13	1
81	146	1
82	82	3
98	101	4
5	13	2
64	65	5
140	142	1
164	166	2
102	102	5
62	74	2
15	17	4
24	60	1
20	23	1
67	67	4
67	68	1
157	169	2
84	85	2
91	92	2
37	38	2
65	67	3
53	56	3
102	127	1
121	123	1
77	81	1
59	143	2
24	87	3
113	114	1
100	102	2
85	85	4
54	55	4
150	151	2
20	20	2
106	129	1
171	171	1
131	167	1
23	84	1
177	177	3
158	169	2
125	127	1
156	156	4
9	10	1
165	167	2
96	107	2
98	124	1
163	163	1
81	91	1
175	175	4
154	156	2
16	18	1
79	91	1
33	35	1
111	114	3
92	93	2
57	61	1
74	77	1
159	160	3
87	87	3
50	51	1
2	5	1
68	72	2
24	86	2
1	6	1
0	17	1
1	2	1
96	143	1
115	117	1
88	107	1
90	91	2
70	70	1
27	41	2
30	121	2
140	154	1
177	178	1
126	127	2
79	89	1
15	18	2
28	41	1
178	179	1
8	111	2
139	140	1
102	125	2
125	154	1
168	169	1
154	160	1
117	119	1
23	24	1
6	31	3
140	153	2
24	34	1
111	144	2
96	106	1
81	145	1
141	142	1
90	92	1
86	89	1
179	180	1
35	40	1
15	38	1
41	43	1
141	143	1
97	118	1
103	150	1
67	75	1
133	179	3
2	3	1
159	172	1
62	63	1
11	12	1
157	159	1
10	11	1
120	166	1
3	11	1
53	61	1
29	59	1
31	115	1
