39	46	6
114	168	5
135	135	11
42	43	3
27	27	23
47	47	12
44	44	16
24	76	2
89	110	1
19	20	4
21	22	4
139	141	2
50	50	9
103	103	8
93	101	3
157	157	8
10	10	17
98	124	5
41	45	2
22	22	20
26	49	4
155	164	2
23	47	2
112	112	19
39	41	5
127	127	12
144	144	15
136	136	15
141	141	9
0	0	12
131	162	2
35	35	9
57	58	3
12	13	6
64	65	5
67	69	6
1	1	9
66	131	1
13	13	11
57	62	4
100	152	14
150	150	8
87	88	6
114	118	4
105	105	5
3	4	6
106	106	5
4	4	20
8	13	6
137	167	3
104	104	13
17	28	4
11	11	10
70	72	3
134	134	8
93	94	9
38	38	13
40	40	19
113	113	10
2	2	9
97	160	4
5	5	12
143	143	18
74	77	2
64	64	8
95	96	3
98	161	1
7	7	8
12	26	2
51	85	2
97	97	4
24	24	15
133	133	10
117	118	3
55	57	1
83	83	16
14	15	9
1	2	6
25	25	8
92	92	4
151	152	1
97	159	5
15	15	10
16	17	3
56	56	20
57	57	18
99	99	17
44	45	2
15	110	2
16	37	10
146	146	6
97	151	1
74	74	9
113	114	5
14	14	10
12	12	10
49	49	11
155	155	8
81	82	7
8	74	1
142	143	2
158	161	4
81	81	14
120	121	12
73	88	3
104	105	2
68	68	1
17	21	2
140	141	6
164	169	2
103	104	7
8	9	8
153	154	2
116	116	5
18	18	10
43	43	19
17	17	5
28	28	6
37	37	17
82	82	7
108	120	1
123	130	3
74	75	4
12	22	3
21	124	1
100	100	11
121	121	9
72	72	9
126	126	12
108	108	6
6	7	5
56	93	3
21	21	16
49	135	1
67	67	12
147	148	9
153	153	6
119	170	2
45	46	5
44	46	2
25	36	2
145	152	5
129	129	5
19	19	26
158	158	13
9	10	6
49	64	2
129	152	2
49	116	8
152	152	15
115	115	6
163	163	9
106	108	7
65	95	2
98	159	6
16	41	3
50	52	3
112	113	5
112	137	4
123	123	2
16	16	15
114	116	1
48	132	1
9	28	7
79	79	9
77	77	8
141	142	2
40	41	6
162	162	10
137	137	4
36	36	10
39	39	14
17	18	4
52	52	10
7	42	2
78	78	3
11	12	4
23	24	2
71	81	2
109	109	12
3	5	3
84	84	14
100	154	3
22	123	2
112	126	1
57	115	1
92	93	3
80	80	9
34	34	16
69	108	2
148	149	7
94	94	8
124	124	6
169	170	3
5	6	9
90	90	7
55	55	8
18	25	2
87	87	7
9	9	13
48	51	2
76	77	1
148	148	8
94	149	3
78	79	4
34	43	2
63	66	4
70	71	3
160	168	2
21	52	2
6	6	8
132	132	5
66	167	3
45	64	2
69	69	5
57	67	2
26	26	4
36	56	1
25	76	3
167	170	3
106	107	6
1	3	1
166	166	14
122	122	2
24	36	2
143	144	3
125	130	2
131	131	12
47	133	4
163	164	9
125	125	6
48	48	10
24	120	2
96	96	6
65	132	2
130	130	8
41	41	11
118	118	9
119	119	2
95	95	5
69	70	6
111	112	1
73	73	6
64	116	2
151	151	4
15	22	5
6	110	3
86	115	1
138	139	1
111	111	8
149	149	8
74	79	2
8	8	8
35	43	2
132	133	1
133	134	3
160	165	5
92	148	3
42	42	17
113	138	4
24	25	1
156	158	4
158	160	1
73	87	4
69	163	2
64	71	3
88	88	1
110	110	3
159	160	2
117	117	6
84	85	4
56	94	5
50	51	3
150	151	4
65	65	3
54	57	2
11	15	2
33	33	4
138	167	2
64	68	1
62	62	10
5	7	2
54	54	4
45	108	6
20	123	2
98	99	5
128	131	5
23	49	1
2	42	1
57	93	2
48	116	3
162	163	1
1	42	3
10	11	5
13	14	4
76	76	3
76	79	4
89	89	11
125	151	1
75	75	10
37	38	3
82	84	2
33	34	4
52	53	2
51	63	4
25	119	2
164	164	17
8	10	1
20	41	4
97	124	2
117	169	2
145	146	7
3	3	5
144	157	6
149	151	1
119	137	1
80	86	3
53	107	6
51	52	1
101	101	6
67	68	3
20	20	14
127	131	4
83	84	4
126	158	1
128	128	1
56	57	5
51	53	2
25	120	2
138	138	6
97	126	1
48	49	3
114	115	9
124	125	3
121	133	2
148	150	5
120	120	5
45	45	12
46	46	13
107	108	5
18	123	3
109	110	3
93	93	4
15	26	3
93	113	3
118	138	1
93	142	1
48	71	1
6	47	2
86	87	3
100	151	1
37	47	6
160	160	4
118	170	1
102	102	2
91	102	2
124	152	2
164	165	4
54	55	4
108	124	3
77	79	3
49	136	3
170	170	5
145	145	3
58	65	2
97	98	2
100	153	1
132	139	1
39	40	4
165	165	6
91	92	2
139	139	5
70	70	3
58	58	4
91	91	3
113	123	2
124	160	4
94	147	2
167	168	1
151	153	3
120	122	3
4	10	1
28	70	2
96	149	3
95	114	1
154	156	1
1	26	3
56	95	3
92	146	2
35	36	3
72	74	1
6	37	2
140	140	4
20	124	2
112	138	2
53	53	4
65	131	2
99	151	2
125	132	1
51	51	2
156	156	2
97	149	3
163	165	3
27	28	2
121	140	3
48	135	1
107	107	2
143	156	2
41	49	2
18	20	1
24	151	2
168	169	3
41	50	1
23	23	12
121	122	3
20	23	3
33	37	2
100	122	1
97	161	2
131	159	2
161	161	4
143	162	2
119	146	3
94	95	3
157	158	1
161	167	2
62	63	1
79	81	2
150	158	2
108	109	2
131	160	2
87	115	3
123	124	4
4	7	1
101	102	2
161	164	1
15	21	2
63	63	8
99	153	2
142	163	3
94	161	1
22	24	2
13	15	1
16	22	1
86	86	2
71	71	4
106	140	1
99	156	2
88	89	1
167	167	2
52	107	2
91	100	1
76	81	2
16	20	1
0	2	1
93	149	1
91	93	1
160	161	1
111	113	5
52	56	2
134	139	2
86	88	3
9	26	1
93	148	1
42	135	2
57	94	1
154	154	4
18	19	1
166	167	1
88	117	1
38	108	2
120	139	1
50	63	3
77	78	3
80	81	1
101	123	1
18	124	1
47	48	2
48	136	2
120	150	1
118	137	1
38	53	3
96	131	3
57	69	2
125	127	2
153	169	1
155	157	5
63	64	1
143	164	1
100	101	1
36	37	2
46	47	1
97	158	3
139	158	1
68	117	1
135	136	2
4	6	2
64	69	2
38	133	3
154	157	1
25	37	2
16	18	1
69	115	3
68	118	1
55	56	2
48	70	1
71	79	1
117	170	1
115	116	1
71	85	1
34	35	4
75	79	1
51	62	1
112	132	2
70	115	1
113	139	1
51	58	1
147	147	1
37	133	2
26	112	1
146	148	3
26	27	1
133	141	3
8	42	1
91	105	1
39	50	2
15	57	1
110	138	3
10	27	1
119	120	1
76	80	1
66	66	4
127	129	1
76	78	1
142	156	1
63	69	1
130	131	2
17	25	1
95	150	1
38	41	1
72	86	1
21	123	1
105	146	2
55	105	1
125	131	1
129	149	2
26	76	1
16	35	2
38	39	1
95	149	1
13	22	1
109	127	2
33	35	1
38	48	1
8	75	2
20	25	1
98	98	2
102	123	1
138	166	1
64	114	1
94	113	1
53	58	1
48	88	1
79	80	1
19	24	1
62	70	1
33	159	1
54	107	1
27	124	1
15	25	1
140	165	1
110	125	1
159	159	1
140	163	1
6	42	1
169	169	1
22	23	1
18	24	1
146	154	1
64	136	1
45	134	1
146	147	2
126	151	1
0	1	1
118	119	1
77	80	1
24	118	1
81	83	1
99	124	1
17	41	1
49	112	1
