27	27	19
108	108	17
76	76	5
47	47	6
43	43	3
110	110	9
39	39	2
111	113	2
79	79	6
87	87	10
82	82	10
78	82	1
96	96	6
47	48	9
78	79	9
105	105	4
53	59	4
72	72	4
101	101	13
42	43	4
77	77	7
43	45	1
93	93	3
41	41	7
76	77	3
56	56	6
19	19	3
90	92	4
49	49	4
86	87	5
39	88	2
38	38	8
89	89	5
85	85	5
53	53	3
108	110	1
108	111	2
22	22	6
106	107	1
21	22	3
55	55	4
80	80	12
26	26	7
39	69	3
43	80	1
88	90	2
62	62	6
67	93	1
112	112	8
54	57	1
88	88	2
21	21	6
71	71	2
103	108	2
69	70	7
52	52	7
86	86	1
102	102	1
85	90	4
73	101	6
48	49	2
70	99	7
31	31	6
35	35	3
34	34	6
28	29	3
103	107	2
56	57	5
37	38	5
75	76	3
45	45	8
106	106	5
92	92	8
97	97	6
98	98	6
59	59	1
24	25	3
44	44	7
92	94	3
77	104	1
83	83	6
75	75	7
72	73	1
65	65	16
54	56	3
61	62	4
90	91	8
100	100	6
54	59	2
53	73	3
53	54	2
104	105	1
34	35	6
84	85	9
76	78	5
41	42	4
65	67	4
89	92	4
60	72	3
82	83	2
91	92	6
82	106	1
104	106	2
65	66	1
103	103	9
104	104	6
45	46	5
36	39	3
30	30	5
65	97	1
55	70	5
37	37	9
38	39	6
92	93	2
75	97	2
44	45	4
78	78	11
30	31	2
73	73	8
32	32	4
90	93	2
75	103	1
46	48	3
41	49	5
80	107	3
79	93	1
107	111	6
53	57	1
91	91	2
107	107	5
23	23	1
71	88	4
56	60	2
25	47	2
97	101	1
25	27	3
94	94	5
109	109	3
23	112	2
31	113	2
56	58	3
36	36	1
90	90	2
95	95	5
51	64	1
48	48	9
49	50	6
20	20	2
86	89	2
107	112	3
68	68	4
83	105	3
58	58	2
53	72	1
50	72	3
85	86	5
69	98	1
104	107	1
35	37	2
24	24	1
59	60	4
67	67	1
87	90	1
99	99	4
66	66	3
33	33	3
62	66	1
50	51	2
70	71	1
106	110	2
42	42	4
58	59	4
103	104	2
67	74	1
40	40	3
23	24	1
39	40	1
25	30	1
70	98	5
77	103	1
51	71	3
46	46	3
51	51	2
57	58	2
40	87	3
63	63	3
33	34	3
107	110	1
111	111	3
71	78	1
25	26	1
63	65	2
98	100	1
113	114	4
34	37	1
31	32	2
74	99	2
82	84	1
71	101	2
83	84	3
77	102	1
24	46	1
101	102	1
64	64	2
67	68	2
54	54	1
98	99	1
36	38	1
50	50	3
67	69	1
84	84	1
74	97	1
42	45	2
54	55	3
77	78	2
113	113	1
51	55	1
29	29	1
81	81	2
114	115	1
28	28	1
60	61	1
61	61	2
55	58	1
63	64	1
80	87	1
55	60	1
85	88	1
80	97	1
36	37	1
80	104	1
