55	79	3
27	27	10
23	56	6
23	23	13
92	92	13
84	87	5
99	100	4
21	21	4
26	27	6
50	93	3
45	50	5
68	68	10
45	45	8
25	56	1
98	98	15
64	64	14
85	85	11
28	28	6
46	46	15
26	26	6
100	101	3
104	104	10
99	99	10
59	59	12
81	81	5
56	56	13
55	56	4
25	27	7
42	45	3
63	72	2
60	60	8
81	84	2
73	74	3
20	20	5
61	61	9
25	25	10
93	93	11
57	57	8
82	82	11
80	80	9
97	97	14
55	55	10
65	66	1
71	71	11
35	35	13
89	107	3
36	38	4
64	92	3
58	58	8
70	70	16
105	105	13
34	34	7
40	40	6
65	65	8
24	24	10
51	77	3
87	87	2
102	102	15
54	54	16
80	107	2
64	85	4
62	62	8
83	84	1
82	83	3
26	29	8
47	47	9
19	24	1
69	69	13
31	31	8
83	83	9
51	51	11
23	57	2
58	59	1
71	72	3
97	99	2
86	86	3
39	39	6
96	96	2
100	100	5
88	88	15
63	63	10
33	34	5
53	53	2
41	43	2
50	51	1
76	76	7
95	95	6
74	74	7
84	84	6
28	33	4
72	73	2
37	90	3
57	58	3
63	102	2
96	98	3
77	103	5
66	66	6
36	36	7
21	38	4
50	50	10
90	90	8
38	38	4
78	78	5
100	105	3
73	73	5
22	25	2
27	56	2
33	33	2
91	91	8
94	94	10
43	43	5
72	72	8
41	41	5
75	75	9
44	44	5
41	45	2
41	44	2
55	95	2
30	30	2
24	25	2
65	84	2
67	67	11
65	85	4
20	22	2
29	58	2
98	99	6
77	77	4
79	88	1
75	76	2
75	104	3
106	106	2
71	74	3
54	55	8
102	103	3
40	81	3
69	101	2
76	77	6
50	102	2
89	89	3
34	39	4
103	104	2
67	78	1
91	95	3
22	22	2
23	24	3
25	49	1
30	57	2
37	38	3
41	79	4
74	75	2
96	100	2
90	95	1
98	106	4
22	27	2
43	45	2
86	97	1
84	98	2
46	47	2
97	100	2
101	102	2
84	94	2
99	106	2
37	37	4
32	32	1
44	83	2
36	37	3
29	46	3
91	92	1
29	29	3
46	49	1
39	40	4
101	101	2
72	84	3
50	76	1
52	55	2
80	81	3
104	105	2
23	52	1
49	49	8
79	80	2
93	94	3
22	56	1
48	48	1
84	88	1
23	96	1
63	66	4
20	47	2
40	41	2
52	52	4
96	107	1
41	42	1
77	78	1
69	71	3
86	87	1
51	52	1
30	56	1
78	79	1
42	42	1
52	79	1
82	89	1
42	46	2
46	57	1
63	64	1
54	78	1
81	86	1
51	54	2
105	106	1
69	76	1
44	45	1
32	100	1
103	103	1
64	93	1
44	97	1
79	79	1
77	101	1
38	50	1
35	36	1
48	51	1
81	87	1
89	90	1
36	72	1
75	102	2
31	32	1
