13	13	15
75	75	28
17	17	7
6	7	3
59	59	12
68	68	19
54	59	2
24	24	8
11	11	27
77	80	4
86	86	11
62	62	12
60	61	2
64	64	14
63	63	6
56	56	14
55	55	23
78	78	13
50	51	15
5	5	4
50	50	11
56	57	14
87	87	28
46	46	5
23	23	20
14	15	4
58	59	3
2	2	1
7	8	13
7	65	3
63	65	1
79	79	13
21	21	6
51	52	11
26	26	20
85	86	7
48	54	4
62	66	4
81	81	17
79	80	17
3	3	10
66	67	2
20	56	1
30	30	22
63	64	4
77	87	2
10	11	5
6	8	6
69	69	14
66	66	9
81	82	10
56	58	4
47	48	16
85	85	15
27	27	4
53	55	9
71	71	12
84	84	22
86	87	9
61	62	8
74	75	5
7	7	6
89	89	14
49	49	11
75	76	9
9	9	18
22	22	13
71	85	1
48	49	2
58	61	2
72	72	10
61	61	23
25	25	17
80	80	5
79	83	4
46	47	2
12	27	4
34	34	1
82	82	8
65	65	20
46	48	3
47	47	8
52	59	4
13	20	6
76	76	10
28	28	9
62	63	4
31	31	8
83	84	5
53	53	13
87	88	3
8	80	5
77	77	18
60	62	1
58	58	8
77	78	5
74	74	26
10	10	10
57	57	4
11	12	3
67	67	8
4	4	10
60	66	4
70	70	8
73	73	2
9	10	7
13	25	4
15	15	9
29	29	5
54	60	2
34	35	2
74	76	3
53	57	6
16	16	6
0	3	2
88	88	11
68	69	3
18	27	1
48	64	2
6	10	3
65	66	3
88	89	3
21	22	3
20	20	7
49	56	4
76	84	1
59	60	4
63	66	2
23	24	5
26	31	2
48	48	9
74	90	2
63	79	2
17	19	2
58	64	2
51	51	7
0	2	2
67	68	2
15	16	2
35	35	5
82	83	7
12	12	9
16	26	1
60	60	9
5	6	2
8	8	5
32	32	2
72	73	2
19	19	4
49	50	4
54	55	5
58	65	2
50	52	3
85	89	2
26	27	1
6	6	5
5	11	5
19	22	1
47	56	4
78	79	11
78	84	2
49	58	1
16	17	4
48	76	3
1	1	7
83	83	6
74	86	2
11	14	1
48	52	1
0	0	4
52	52	9
84	88	1
71	72	2
14	14	4
50	56	2
48	55	2
71	81	1
5	10	3
54	54	4
77	83	3
13	23	1
18	19	2
49	62	3
76	78	1
62	64	1
21	23	4
64	65	6
78	80	2
8	10	1
52	60	3
50	57	1
12	14	2
5	80	2
57	58	3
69	70	2
75	90	4
12	25	1
4	85	1
12	13	1
73	74	1
64	80	3
46	74	1
48	67	1
47	50	2
59	64	2
50	81	1
22	67	1
8	9	2
59	72	2
66	88	1
81	84	1
7	9	2
79	82	1
52	53	1
22	25	1
13	17	1
49	52	1
74	77	1
72	74	1
76	80	1
19	20	1
48	50	1
6	80	1
56	70	1
58	63	1
22	23	1
80	81	1
77	81	1
71	73	1
9	46	2
47	49	1
9	84	1
64	66	1
81	83	1
25	26	1
