57	82	4
124	124	6
122	122	8
34	70	1
78	85	2
36	37	4
87	88	9
80	80	12
65	66	9
56	56	10
111	111	6
131	132	9
116	121	1
49	49	4
47	47	17
27	27	11
123	123	8
47	96	2
117	117	2
83	83	20
104	105	4
45	45	14
29	30	1
39	39	13
41	42	12
97	103	1
36	36	7
79	79	14
78	82	3
90	90	5
48	49	7
130	132	3
75	76	6
92	93	5
63	64	3
63	63	9
91	91	4
25	25	6
93	129	4
75	75	4
18	19	7
57	57	9
71	71	7
94	95	2
76	77	2
26	27	7
5	6	4
50	50	1
3	95	4
123	126	1
34	34	10
116	130	2
28	28	7
45	89	2
87	89	3
119	119	3
20	20	5
73	75	2
13	16	3
21	22	4
115	115	10
1	1	6
68	73	4
79	81	3
26	59	4
71	73	3
78	78	3
19	19	9
56	58	2
37	38	4
24	24	7
43	43	6
76	76	9
70	70	10
72	72	10
33	33	8
93	93	13
22	22	7
100	100	5
81	81	6
4	22	2
85	85	15
37	37	5
10	10	17
61	75	4
50	94	4
9	9	8
65	65	18
40	43	2
27	45	2
93	94	1
12	12	9
68	69	5
59	59	9
39	128	2
77	78	6
94	94	10
0	0	4
6	6	10
116	129	3
15	16	6
61	61	7
7	8	5
57	58	2
8	28	2
119	120	1
88	88	1
72	73	4
109	109	6
95	96	4
60	60	7
81	84	3
22	49	3
42	124	2
77	80	1
28	126	5
8	8	7
40	40	8
86	86	5
47	83	3
112	113	12
106	106	7
38	39	2
58	92	2
56	83	1
43	45	1
108	108	6
66	67	4
49	62	1
7	7	5
84	85	2
64	64	8
10	12	3
32	33	1
26	67	2
63	70	2
77	81	2
62	62	3
7	63	3
20	92	3
40	41	7
8	11	4
44	44	6
111	113	1
55	84	4
111	112	3
106	107	2
78	79	5
42	42	3
77	77	5
68	68	7
3	3	3
39	116	2
82	83	5
117	123	4
26	80	1
4	5	8
126	126	10
2	3	2
34	102	1
83	84	2
47	100	2
99	99	12
15	18	2
8	21	1
39	40	1
69	75	2
38	38	6
73	74	2
8	90	3
61	63	2
31	31	9
96	96	7
79	80	3
66	66	16
4	7	2
103	104	2
15	15	5
134	134	2
21	21	12
29	29	5
17	17	1
47	92	2
116	117	2
35	35	15
4	4	3
76	97	1
33	34	4
113	113	7
28	79	3
24	30	3
77	86	3
23	23	3
73	73	6
103	103	3
101	101	3
89	90	3
118	121	2
30	30	3
17	94	3
32	32	8
55	55	1
25	46	6
84	84	6
129	129	5
7	21	3
55	79	6
7	13	1
109	111	3
110	110	2
6	83	1
72	119	4
48	93	1
28	30	1
133	133	2
9	64	3
51	54	1
101	102	1
5	5	4
4	80	2
46	46	5
51	51	2
91	92	3
23	24	2
27	98	3
130	131	1
131	131	2
132	132	4
20	21	2
26	26	3
3	82	2
114	126	2
62	63	2
5	89	5
121	121	6
97	97	4
112	112	2
59	61	4
96	98	1
69	69	1
41	41	6
41	124	1
107	107	2
90	92	2
87	87	3
19	128	2
16	25	1
88	93	2
56	82	3
67	67	6
117	121	1
118	118	5
59	60	1
63	74	1
27	126	1
55	80	3
121	126	2
113	114	3
113	126	3
102	102	1
89	134	2
66	72	1
124	127	1
27	97	1
11	11	8
95	99	2
14	14	2
32	37	2
124	125	2
33	74	1
48	50	2
35	36	2
44	45	3
108	109	4
84	128	3
84	86	1
24	127	5
31	32	1
55	89	5
46	61	2
112	117	3
114	127	1
95	95	4
21	31	1
103	105	2
120	125	1
11	15	1
18	132	1
13	14	4
40	50	3
125	125	3
27	41	1
99	100	2
27	88	1
114	131	1
106	108	1
19	21	3
95	101	1
21	85	3
17	20	3
86	104	2
63	65	4
55	56	3
11	87	2
81	132	1
78	83	1
122	134	2
0	34	1
14	16	2
25	30	1
114	116	3
34	35	2
48	48	4
27	31	1
120	122	1
100	101	1
61	68	1
68	119	1
17	118	1
27	85	1
115	133	2
43	44	2
83	85	1
13	13	3
83	91	2
117	118	2
92	92	3
13	29	3
51	55	1
11	82	1
76	90	2
111	114	2
39	42	1
88	89	1
25	79	1
38	82	1
93	132	1
26	92	1
86	92	1
72	100	2
8	42	1
16	71	1
18	120	1
42	43	2
10	11	1
6	7	2
35	117	1
40	56	1
82	82	2
58	87	1
47	97	1
71	72	1
24	25	2
11	92	1
9	10	1
9	82	1
87	93	1
2	2	1
115	127	1
98	98	1
60	69	1
31	60	1
114	115	1
74	74	1
37	39	1
80	82	1
29	47	1
90	91	1
38	128	1
70	96	1
123	124	1
4	6	1
