94	94	10
0	0	6
82	82	4
97	97	3
116	126	3
11	12	1
77	77	8
134	136	4
132	133	4
78	94	6
88	89	3
132	132	20
133	133	13
37	88	6
80	80	9
122	122	8
14	14	11
89	89	20
134	134	11
124	127	3
123	124	10
104	105	1
36	37	3
101	104	4
109	109	6
28	30	5
17	18	10
31	32	1
25	25	7
33	33	5
10	11	4
3	4	6
13	14	1
124	124	5
125	125	2
97	98	4
5	5	8
79	79	11
98	99	1
90	90	6
127	127	11
134	135	7
13	15	9
126	126	8
100	100	16
88	88	10
117	121	3
95	140	3
87	88	2
35	35	7
20	20	4
136	136	7
79	93	4
104	104	3
28	28	7
114	114	7
117	117	11
123	123	14
91	100	4
7	8	5
80	103	7
76	90	4
74	74	7
91	101	3
106	106	5
103	103	4
83	83	3
140	140	19
105	106	9
27	28	3
2	9	5
80	85	5
139	139	9
113	114	3
131	132	3
99	99	9
93	93	14
73	74	4
75	75	6
83	84	2
129	129	10
34	34	11
103	104	3
33	34	1
130	130	11
10	12	1
96	96	3
114	115	4
8	11	3
31	31	11
24	26	7
73	77	5
112	113	6
96	97	8
2	11	4
120	121	5
99	126	2
17	20	3
107	108	2
95	95	7
121	121	12
3	3	6
108	112	1
136	137	1
131	131	13
110	112	2
118	118	9
120	122	4
115	116	1
111	116	2
37	38	2
11	11	5
116	125	1
93	94	5
135	135	4
108	109	2
115	115	4
81	81	2
84	84	5
78	79	3
32	32	11
96	127	3
81	123	1
38	38	3
78	85	3
140	141	2
97	126	2
24	24	8
72	121	5
37	37	3
135	136	5
110	110	17
81	83	5
101	101	6
98	98	7
111	114	2
109	110	3
12	12	6
6	6	4
112	112	14
137	137	3
105	108	2
14	15	3
81	85	2
16	18	1
128	129	6
95	96	3
138	138	6
82	105	1
19	19	6
78	78	3
17	19	1
5	31	2
105	105	5
79	105	1
72	76	4
73	73	5
14	20	1
17	92	3
95	100	2
18	19	5
112	114	2
17	89	6
110	111	7
118	121	3
120	120	1
9	9	5
121	122	11
92	92	4
1	8	2
76	76	3
32	85	1
86	90	1
72	72	2
106	107	4
126	128	1
119	119	15
91	94	1
74	75	3
118	119	6
108	108	2
85	85	5
2	33	2
21	21	10
117	118	3
1	7	2
72	74	2
75	77	7
8	22	1
32	33	1
128	128	2
29	31	3
26	26	9
78	87	2
86	87	3
127	128	1
23	28	3
8	8	5
104	107	2
84	85	1
116	117	1
112	122	1
89	91	3
129	130	3
1	1	4
36	91	3
116	116	2
108	111	1
82	83	3
4	4	1
26	27	2
99	101	2
20	21	3
29	29	1
71	71	3
139	140	2
28	29	2
68	68	6
15	77	1
102	103	6
99	100	3
27	27	1
38	86	1
119	120	2
0	11	3
109	127	1
5	6	1
36	36	1
107	107	3
28	31	1
101	103	1
91	91	1
133	134	3
78	84	2
15	15	3
2	3	2
127	129	1
90	91	2
72	123	1
72	117	2
94	96	1
3	26	2
32	78	1
16	16	4
86	86	3
37	125	1
108	110	2
10	10	2
126	127	1
23	24	1
78	90	1
7	7	3
137	138	1
2	2	2
7	9	1
24	25	2
71	122	1
101	102	1
13	13	1
18	18	2
99	135	1
115	121	1
19	20	1
6	18	1
113	113	1
25	27	1
109	111	1
