73	73	25
19	19	10
42	45	2
30	30	13
43	43	9
46	47	4
21	21	4
56	56	22
48	74	5
58	60	4
63	63	5
59	59	10
0	0	9
40	40	19
18	18	7
51	52	4
20	20	4
66	66	11
49	49	12
2	2	12
13	13	11
5	5	8
48	49	4
27	27	17
51	53	2
47	75	6
48	48	23
78	78	13
60	61	9
55	57	2
53	53	10
1	1	17
32	33	13
17	17	17
33	33	9
26	27	14
1	78	7
55	55	25
17	34	2
67	69	2
38	38	19
7	8	5
19	70	5
54	54	19
32	32	4
17	26	3
34	35	6
57	74	3
6	6	22
65	65	8
72	72	17
62	74	1
69	69	6
57	57	23
80	80	13
37	37	22
37	40	2
29	30	5
25	25	8
60	60	6
28	76	1
33	34	4
42	42	23
79	79	15
0	39	2
46	46	15
54	55	9
11	11	13
4	4	20
64	65	1
7	7	14
70	70	3
51	71	2
75	75	18
52	52	7
39	39	19
74	74	15
30	33	3
34	34	3
42	79	3
55	56	5
10	10	6
66	72	1
35	37	2
16	16	2
14	15	1
60	66	2
47	47	10
12	13	5
76	76	15
68	68	15
78	79	3
27	28	10
68	70	3
14	14	12
64	64	12
29	29	11
3	4	4
51	51	6
40	42	2
8	8	9
26	26	21
26	48	1
45	75	2
49	50	5
3	3	7
31	31	12
66	68	3
6	64	1
58	58	8
62	62	2
45	45	18
71	71	6
73	74	7
20	25	1
71	72	4
50	50	2
36	36	7
12	14	2
10	11	4
61	61	6
40	76	4
72	76	1
77	77	13
39	46	1
35	35	2
65	66	2
41	42	1
14	52	1
17	33	1
12	30	1
30	35	1
74	76	2
41	41	13
0	29	3
15	15	1
63	67	1
49	57	2
16	17	3
63	64	5
67	67	7
72	73	4
9	9	9
74	75	7
57	61	4
28	28	17
12	25	3
21	22	2
34	56	6
69	71	5
19	20	4
1	2	6
18	19	4
8	9	3
27	60	1
30	32	3
5	6	3
32	49	6
12	12	3
5	36	3
4	58	3
28	52	5
9	33	3
66	71	1
31	32	2
55	61	1
41	77	2
12	34	4
17	61	1
39	43	6
50	52	2
48	75	2
47	48	5
9	10	5
40	41	1
62	63	6
2	8	2
11	16	1
53	54	3
56	61	2
77	78	1
27	59	3
49	52	2
2	3	1
50	51	2
15	35	1
12	32	2
75	76	1
14	53	2
64	79	2
72	74	2
76	77	1
38	39	1
25	26	1
26	31	2
0	1	1
30	31	1
6	7	2
65	71	1
37	38	1
55	74	2
49	51	1
21	54	1
59	60	1
0	77	1
36	41	1
4	6	1
57	58	2
26	47	1
1	4	1
0	74	1
37	57	1
0	40	2
53	63	1
58	64	1
36	37	1
44	45	1
16	36	1
42	43	2
0	7	1
29	61	1
13	14	1
53	67	1
61	62	1
6	65	1
45	46	1
71	75	1
