57	57	13
11	11	23
10	10	30
27	27	11
50	53	5
9	9	45
7	7	22
60	60	41
33	33	23
19	21	5
18	19	5
10	12	2
45	45	23
54	54	19
52	53	4
61	65	11
22	23	11
4	5	6
19	20	8
77	77	13
51	51	14
35	36	7
24	24	5
34	35	9
43	43	26
0	0	31
61	61	26
22	22	29
47	47	20
1	6	2
45	46	17
67	67	14
31	32	3
21	22	6
62	62	21
55	61	2
35	35	9
40	40	20
46	46	28
1	10	4
65	66	7
66	73	2
65	71	10
44	45	8
63	63	19
32	33	11
42	42	29
59	60	10
70	70	10
24	27	7
18	18	8
71	71	20
48	48	19
66	66	23
54	55	7
37	38	7
3	26	2
21	21	34
20	20	42
32	32	10
71	72	11
59	62	4
56	56	14
59	61	7
55	58	3
4	4	24
69	69	23
72	73	3
29	55	3
64	64	6
6	6	27
20	22	6
30	30	9
18	51	3
73	73	22
31	31	5
31	55	8
50	51	7
26	26	16
36	37	4
8	34	3
3	3	21
12	13	7
41	50	2
1	1	5
53	53	20
27	31	3
7	8	16
12	12	22
75	77	2
32	61	4
20	21	17
40	43	4
30	31	19
23	23	14
62	65	1
31	33	7
19	19	13
59	59	20
69	74	2
51	54	3
46	68	3
10	43	10
45	57	2
42	43	7
60	61	15
8	8	21
48	49	11
34	54	5
28	28	15
53	54	3
65	65	21
29	29	17
2	2	34
4	25	6
72	72	7
55	55	24
13	13	15
74	74	11
5	5	19
49	50	12
48	51	3
3	5	1
1	2	8
27	28	4
68	68	14
43	66	2
75	76	3
5	6	9
13	14	3
67	68	5
44	44	22
39	40	5
36	36	2
45	47	6
9	10	6
33	35	2
1	3	4
38	38	4
51	52	2
11	12	5
23	24	6
8	11	5
8	9	12
29	30	5
6	7	6
44	47	3
25	27	12
61	62	4
3	4	11
49	49	5
39	39	11
34	37	4
56	58	6
40	46	7
7	26	6
58	58	22
35	39	1
62	73	3
76	76	11
33	34	10
42	75	5
34	36	2
56	59	2
55	56	6
45	62	2
64	71	1
74	75	7
69	70	8
41	41	2
37	39	4
12	20	2
24	26	5
54	77	4
2	3	12
40	52	2
25	25	11
25	26	3
57	58	5
13	23	4
40	41	2
70	71	1
75	75	7
49	51	3
37	37	14
68	69	6
35	37	2
13	35	3
36	69	3
27	29	4
9	41	1
30	32	5
47	48	8
53	58	3
61	63	2
3	6	1
43	60	2
63	73	4
2	4	6
72	74	2
48	75	6
52	52	6
3	34	1
50	50	11
10	11	10
43	44	5
60	62	2
33	44	5
41	43	4
20	33	2
10	44	2
48	72	4
59	76	1
20	39	2
12	43	4
46	59	4
34	34	4
53	55	2
2	11	1
12	35	1
48	50	1
66	67	3
41	42	2
62	63	2
36	38	2
13	52	1
33	53	2
57	59	3
58	59	4
25	32	1
76	77	4
51	73	2
28	29	4
32	44	1
29	54	3
54	73	1
33	39	4
39	41	1
74	77	3
13	34	1
34	53	1
8	39	2
31	45	3
20	34	1
43	73	2
18	21	1
66	70	1
23	26	1
22	27	1
14	15	1
73	74	1
9	19	1
47	73	1
63	64	1
45	61	1
43	74	1
27	33	1
32	56	1
71	74	1
55	60	1
36	39	1
32	52	1
64	66	3
56	60	1
3	7	1
33	72	1
62	72	1
31	34	1
