183	183	47
1	1	28
1	17	4
117	134	2
43	43	53
33	34	2
67	67	19
160	194	6
27	27	28
118	118	20
120	121	14
145	145	23
134	134	38
94	116	2
194	194	41
127	128	6
176	178	12
15	15	23
113	113	27
174	174	44
20	21	12
143	179	5
178	178	31
133	134	10
177	179	7
77	78	5
159	165	5
190	190	45
146	146	42
151	168	1
90	90	6
6	6	36
160	160	17
151	151	25
190	192	6
31	35	1
10	10	28
36	37	3
149	150	3
46	46	39
150	182	1
196	196	25
27	28	8
50	166	3
138	138	27
42	42	23
119	120	6
119	119	35
51	51	19
195	196	6
22	22	25
128	128	16
85	85	11
152	160	2
37	57	2
133	133	25
111	120	3
163	163	32
149	149	41
132	132	26
14	14	36
83	83	16
5	5	21
28	37	4
103	103	37
148	148	44
193	194	11
45	45	49
59	67	3
121	121	25
11	11	34
166	168	4
38	38	18
153	153	21
17	18	11
167	169	2
135	137	4
160	161	15
157	157	42
164	164	22
175	175	36
192	192	31
94	94	15
17	20	4
13	13	26
172	172	23
146	164	4
187	189	8
131	131	26
7	7	23
68	68	16
102	102	16
50	51	17
22	23	10
144	144	26
81	166	2
105	105	20
95	97	3
79	79	3
0	43	2
26	26	27
123	135	5
105	106	14
53	53	22
33	40	5
147	147	36
87	87	19
88	88	10
59	59	37
123	160	1
115	115	32
71	71	31
10	11	17
20	20	24
15	57	2
57	58	7
66	66	6
17	40	1
179	181	4
172	173	10
88	89	8
34	35	13
162	162	27
134	135	15
151	167	4
17	41	2
126	129	1
145	147	3
85	99	6
170	171	13
171	171	35
117	132	2
109	109	18
70	71	2
57	189	9
123	123	22
160	185	3
19	27	11
96	107	4
5	6	11
24	38	4
24	31	8
129	129	14
114	115	11
3	3	38
26	27	21
25	25	22
52	52	22
101	101	30
172	185	2
193	193	39
187	187	54
25	26	6
21	26	4
182	182	16
124	129	5
16	16	22
19	19	29
2	3	12
192	193	6
7	8	20
116	116	18
20	22	1
12	12	32
54	54	37
108	109	8
59	140	3
142	142	27
53	54	5
74	77	5
139	160	2
31	31	23
176	177	17
183	185	8
28	29	4
175	177	6
47	47	33
178	181	2
10	15	1
104	105	10
12	13	9
118	134	2
164	165	15
186	186	29
191	191	30
34	34	18
187	188	20
177	177	28
148	151	7
64	64	20
161	161	38
125	150	1
137	137	15
30	32	3
168	169	6
124	124	36
4	5	7
150	156	6
111	114	1
61	162	4
166	166	34
44	44	21
57	57	8
117	117	26
166	176	2
157	193	2
111	111	25
150	151	3
29	29	26
9	17	7
100	107	6
122	122	39
112	150	3
161	163	3
24	25	14
178	182	3
170	170	32
25	27	5
179	179	27
155	166	4
61	61	16
74	116	2
159	159	50
16	17	6
154	154	24
155	178	2
75	85	4
24	30	3
106	135	3
119	149	4
76	76	7
28	28	41
3	6	7
131	196	2
169	169	38
139	158	3
138	161	1
53	55	4
98	98	13
24	40	4
82	82	16
15	23	8
55	55	23
102	161	2
40	40	33
101	124	1
180	180	33
176	176	32
66	68	6
106	106	24
184	188	2
48	51	5
156	156	20
49	49	24
8	9	4
189	189	39
40	42	9
89	90	8
9	9	30
13	14	13
60	77	1
23	23	28
104	106	2
63	63	17
14	32	7
10	12	9
95	95	9
107	108	12
30	30	38
93	94	4
65	66	2
45	50	3
143	145	6
110	111	3
105	135	2
147	154	3
135	135	23
178	179	8
0	0	30
36	36	34
181	181	42
110	158	4
31	32	10
1	2	17
150	150	34
130	132	1
110	110	28
99	99	22
116	157	1
0	24	3
142	145	2
125	125	23
116	120	1
71	72	6
144	145	6
167	177	3
7	17	1
48	48	27
139	143	2
179	193	1
162	163	15
24	24	19
21	21	17
18	18	24
143	143	12
168	191	9
11	14	9
47	53	4
60	60	6
144	154	1
185	186	6
112	113	10
50	50	27
39	39	22
105	108	3
33	33	24
4	4	34
173	173	34
133	136	1
28	30	5
58	63	3
152	153	24
195	195	26
157	170	4
188	191	6
158	174	3
63	64	6
69	169	1
56	113	4
120	120	27
101	102	10
166	167	7
84	84	17
86	86	13
74	74	10
35	39	5
2	2	23
2	8	8
155	155	32
105	107	8
99	100	3
100	103	3
132	141	2
46	53	2
103	104	1
66	116	3
32	33	18
126	126	34
108	111	2
126	128	3
184	184	40
80	93	5
93	93	12
147	152	3
155	172	3
25	35	1
126	127	10
59	63	5
189	193	3
137	156	3
159	160	2
45	56	4
129	135	1
188	189	13
116	132	5
163	164	16
155	157	3
168	168	44
106	121	3
115	117	2
131	156	4
146	157	1
148	149	4
108	108	11
47	48	5
65	65	11
34	36	2
133	148	4
118	120	1
107	115	2
69	69	14
114	131	4
46	54	2
30	31	17
37	37	18
109	122	1
17	17	13
69	133	2
61	148	1
46	58	7
27	43	6
109	110	5
156	159	2
115	144	2
127	127	28
161	164	13
132	133	18
20	27	3
146	152	4
158	158	18
83	84	7
76	78	4
75	76	2
35	35	25
173	176	3
8	8	29
116	130	3
72	72	8
111	112	5
138	184	1
111	153	1
136	136	23
182	194	3
122	123	4
69	70	5
104	154	3
32	194	3
186	193	4
136	142	1
100	101	7
139	139	14
32	32	16
167	167	17
102	105	1
182	184	3
112	112	26
188	188	31
162	185	2
179	190	3
152	152	28
94	95	9
140	141	2
143	144	11
112	139	2
113	120	1
74	75	2
189	190	5
147	148	11
123	126	1
159	162	2
151	160	4
164	168	6
106	107	21
179	180	16
5	19	3
160	164	1
85	90	2
58	58	23
180	181	10
124	127	3
35	40	5
120	139	3
100	125	2
48	138	3
178	190	4
162	165	1
70	171	2
170	179	3
185	185	33
40	41	15
18	19	8
185	197	1
62	114	1
125	126	6
5	8	14
145	155	1
0	1	7
114	153	3
144	157	1
104	104	27
118	135	1
98	114	2
102	103	6
130	131	5
8	29	2
156	158	4
5	7	1
184	185	10
165	169	8
153	162	2
182	183	6
53	131	1
100	121	5
64	66	5
98	99	4
193	197	5
122	127	3
175	178	4
51	52	4
117	144	9
6	7	8
118	178	2
39	40	5
23	26	5
143	178	1
177	181	4
77	88	8
86	114	1
114	122	1
41	41	32
119	121	6
191	193	11
162	191	4
168	188	3
116	117	9
4	22	3
78	79	16
56	56	34
115	176	2
117	119	4
62	63	1
149	174	2
102	104	2
151	153	2
165	167	4
183	186	3
112	131	2
107	107	23
165	166	11
165	177	4
78	78	5
133	170	3
60	63	1
19	21	4
135	136	8
124	130	1
42	43	4
41	46	2
11	15	4
169	179	1
124	133	1
169	171	7
180	182	9
145	154	5
133	177	2
85	86	7
112	193	3
107	142	3
140	140	16
2	22	1
138	142	2
143	155	2
35	36	11
89	89	14
64	65	12
163	165	4
160	191	2
67	116	4
148	152	2
165	165	24
143	163	1
14	15	2
84	90	1
114	114	19
162	164	4
106	145	1
167	172	5
51	64	2
4	42	2
1	21	1
79	127	1
133	144	4
124	125	2
155	181	4
45	47	1
8	17	2
169	187	3
183	191	3
23	24	4
73	76	2
151	152	2
119	130	2
174	177	3
78	80	2
157	163	4
134	156	4
45	46	11
133	137	7
197	197	10
136	150	1
196	197	7
17	21	4
158	164	4
158	189	3
151	188	2
151	181	3
141	141	13
60	61	4
175	176	10
158	159	9
139	140	8
152	181	3
173	174	11
72	73	5
98	120	1
120	122	4
130	140	1
116	134	5
170	172	1
130	130	22
6	20	5
100	100	21
153	192	1
79	89	3
183	188	4
172	176	2
61	67	2
18	22	2
110	136	2
139	141	2
10	43	1
6	8	9
135	142	3
168	174	7
0	2	7
0	22	4
59	60	4
70	70	18
47	148	1
142	146	3
174	180	5
24	29	3
96	96	8
147	153	10
52	53	7
121	123	4
119	197	2
81	81	12
129	130	5
3	4	10
101	111	2
129	141	2
155	173	3
172	192	1
127	158	1
102	109	1
153	159	2
154	159	3
36	38	5
77	145	1
29	30	1
152	154	3
15	42	3
0	3	3
173	177	5
22	26	8
181	182	11
107	132	3
38	57	3
61	77	4
146	147	9
53	129	3
167	168	7
26	34	5
168	170	3
102	136	1
16	18	3
138	140	4
121	128	2
74	118	3
54	63	5
177	178	5
62	62	13
145	192	1
27	34	4
157	168	10
144	153	5
189	192	6
82	83	2
123	130	1
68	151	4
71	167	3
34	192	2
37	170	1
53	57	1
163	175	2
134	146	2
13	32	5
2	151	3
47	49	7
16	22	1
186	187	6
28	31	1
191	192	3
99	107	3
170	188	3
108	114	1
184	186	6
105	121	2
151	155	1
171	177	1
141	153	1
84	85	1
34	41	2
164	175	1
24	35	4
117	123	3
117	118	8
81	83	6
2	20	1
154	155	9
81	86	3
54	55	15
73	73	2
138	152	4
15	16	9
155	167	1
10	14	3
7	19	7
55	56	5
17	25	3
32	37	1
24	26	2
3	37	1
113	121	3
186	188	7
6	19	4
105	146	4
43	121	3
76	77	2
0	21	1
167	173	7
107	186	2
161	162	15
155	156	12
22	34	5
138	182	6
113	141	2
128	160	2
116	156	2
58	59	3
77	77	5
167	183	1
106	115	7
163	173	2
11	12	6
141	142	3
97	97	15
158	165	4
123	125	2
68	70	7
169	194	2
115	140	1
4	52	1
154	165	3
156	157	12
176	179	1
36	39	3
136	163	3
38	160	5
27	30	5
37	171	4
87	98	4
48	50	4
1	3	1
174	176	3
9	16	3
37	38	4
144	146	4
106	123	1
175	180	3
104	116	3
177	190	1
21	22	3
156	166	3
42	44	1
157	158	6
101	103	3
21	27	4
30	43	3
136	140	2
111	123	4
113	183	3
63	84	1
4	36	1
143	180	2
173	180	6
165	170	3
75	82	1
114	132	1
117	140	3
165	168	5
0	18	3
138	139	2
19	20	7
194	195	1
62	67	4
37	159	1
29	59	2
31	33	7
116	123	8
142	172	1
34	40	5
160	176	4
140	149	1
44	45	9
57	150	3
75	75	6
2	40	3
10	44	3
142	155	1
108	110	3
111	139	1
10	39	2
102	106	2
38	44	2
77	79	4
174	175	8
174	190	2
183	184	2
149	153	1
145	146	3
159	178	7
62	77	2
145	148	2
26	29	2
113	151	3
127	143	1
109	119	2
158	190	5
135	140	1
62	78	1
84	88	1
121	122	5
172	174	2
108	117	1
101	136	1
19	28	4
103	108	4
63	149	10
157	192	3
155	171	3
31	192	1
43	44	8
101	108	1
154	167	6
150	184	1
43	45	1
55	99	4
146	154	9
79	81	5
39	42	2
140	151	1
169	170	5
131	184	2
150	153	2
79	82	1
3	19	2
100	102	4
59	61	6
100	120	1
123	146	1
38	42	3
80	83	3
101	109	4
119	185	1
47	52	1
150	193	6
142	147	3
31	42	1
111	124	5
143	147	3
168	183	4
33	43	4
37	41	1
141	149	3
4	8	3
112	118	3
11	48	1
97	167	1
4	6	4
107	192	1
174	179	2
133	139	1
120	150	1
151	162	1
159	194	1
24	32	3
113	125	3
171	172	1
27	31	1
24	27	1
163	166	1
124	145	2
3	8	1
28	34	3
162	173	3
159	172	2
142	160	3
29	37	5
180	190	1
51	87	2
97	101	1
64	114	1
149	187	2
5	17	1
23	30	2
113	114	1
97	104	5
168	176	4
6	28	2
181	183	1
82	90	2
128	129	2
115	132	2
67	137	1
41	157	2
186	191	3
134	157	3
117	148	1
154	164	1
0	19	3
104	107	4
131	132	3
30	170	2
67	68	4
133	161	1
23	31	5
184	187	3
111	167	2
43	70	1
142	143	9
65	88	3
125	151	1
161	184	1
63	73	4
39	41	2
142	194	2
35	192	2
97	169	3
61	73	2
138	149	2
156	169	3
172	177	1
55	83	2
120	141	2
101	193	1
156	189	1
66	67	2
123	149	1
166	172	2
135	146	2
160	162	6
116	118	8
14	105	1
19	26	2
45	71	1
83	89	4
147	191	1
156	191	1
61	62	4
133	156	1
117	145	1
113	150	1
38	39	5
137	140	1
49	52	1
147	190	1
182	189	1
119	133	3
115	124	1
121	138	3
88	107	2
132	139	4
23	25	5
4	64	1
172	180	1
18	27	2
134	137	3
142	144	2
141	183	1
116	146	1
69	126	2
123	156	1
9	12	3
74	85	2
103	162	2
21	40	3
147	155	3
39	67	4
54	56	2
120	136	1
20	23	2
53	56	1
56	81	1
16	31	2
58	113	3
119	160	4
31	39	1
27	35	1
144	150	3
140	162	5
3	20	3
172	175	1
112	195	3
133	176	1
168	189	1
137	138	5
98	115	1
45	53	1
80	80	3
174	182	1
46	139	1
68	69	1
29	157	2
114	119	2
138	155	2
117	164	1
153	163	1
177	180	1
146	153	2
80	113	1
24	28	1
32	38	1
4	24	2
96	98	4
141	147	1
114	190	1
5	20	1
155	194	1
33	41	1
121	163	2
30	159	2
3	27	1
157	191	1
33	157	1
115	116	5
79	80	1
109	173	3
5	28	2
80	82	2
2	5	2
37	46	2
176	180	2
29	40	1
78	145	2
22	186	2
127	140	1
134	160	1
96	97	1
38	46	2
3	5	1
78	90	2
111	168	1
107	110	3
124	136	2
3	21	3
190	191	4
167	188	3
142	149	1
82	85	1
71	134	1
149	151	1
100	108	2
4	27	1
106	116	3
24	37	1
142	165	1
183	187	1
8	16	2
27	29	1
42	45	1
99	104	2
82	84	1
164	174	2
158	160	1
131	155	1
193	196	1
67	117	1
133	138	2
37	58	2
9	15	4
170	193	1
4	7	4
3	28	3
25	40	1
152	161	1
32	52	1
15	31	4
34	156	1
65	68	1
29	38	1
45	51	1
157	185	1
145	153	2
178	180	1
32	43	2
109	138	5
137	155	1
33	35	2
107	179	1
7	41	1
150	192	2
18	30	1
39	44	1
58	60	2
74	146	1
168	186	1
142	159	2
157	161	1
129	132	1
0	42	1
41	42	3
4	67	1
156	190	1
116	119	5
57	80	2
168	177	2
143	154	2
159	180	1
106	110	1
99	120	2
38	43	3
6	16	1
28	36	1
146	163	1
44	46	3
30	34	1
112	114	1
108	173	1
31	193	1
155	176	1
167	189	2
161	174	2
26	36	1
14	57	1
145	178	1
77	106	1
115	146	1
114	125	3
136	139	1
133	147	1
115	139	1
49	123	2
158	161	1
148	153	2
17	39	1
86	87	3
49	127	4
145	182	2
95	96	5
151	182	1
164	181	2
25	32	4
173	178	2
141	179	2
113	142	1
159	166	1
142	185	1
122	130	1
137	141	1
41	43	2
103	107	1
113	129	2
155	159	1
177	187	1
111	193	1
121	142	3
21	28	2
22	31	1
18	20	1
110	113	1
159	185	1
109	172	2
29	158	2
159	181	2
0	4	2
18	46	1
120	149	4
10	16	1
168	193	3
59	148	2
160	182	1
195	197	1
96	99	1
74	88	2
70	167	1
157	165	1
142	190	2
172	182	1
78	81	1
149	194	1
47	183	1
159	170	1
124	138	1
57	71	2
39	43	1
113	131	1
123	124	2
188	193	3
183	197	1
13	125	2
12	17	1
151	189	2
48	52	1
94	96	1
143	197	1
169	172	3
158	181	1
28	35	1
101	107	1
146	161	2
107	145	1
87	88	1
110	172	1
83	86	1
147	150	1
135	141	1
87	144	1
155	168	2
156	174	1
48	49	1
23	32	1
105	116	2
159	164	2
0	37	1
66	70	1
101	104	1
156	183	2
118	119	1
1	20	1
169	184	1
132	134	1
44	57	1
160	173	1
8	36	1
140	148	2
121	129	1
106	119	1
99	187	1
86	88	1
128	142	1
0	32	1
173	175	1
110	168	1
144	155	2
130	150	1
122	160	2
72	118	1
161	185	1
136	137	1
138	156	1
2	6	2
176	192	1
7	9	1
79	93	1
6	21	1
97	121	1
127	196	1
44	51	1
56	57	3
32	157	1
165	173	1
115	136	1
64	75	1
186	197	1
72	87	1
69	125	2
122	125	1
113	197	1
69	120	1
25	39	1
123	184	1
67	134	1
17	31	1
78	88	1
153	154	1
140	147	1
125	128	1
141	162	1
140	163	1
0	30	1
158	168	1
167	176	1
76	80	1
25	28	1
179	188	1
60	150	1
164	166	1
102	118	1
168	171	1
155	179	1
165	180	1
107	111	1
70	133	1
