132	132	56
140	142	5
119	120	9
142	142	40
99	99	30
105	105	33
60	60	26
18	18	36
132	133	28
25	25	39
6	6	23
54	55	14
124	125	19
68	72	3
62	63	13
125	125	37
70	70	31
69	70	24
96	96	22
80	124	3
55	55	39
88	97	1
0	0	13
10	10	50
93	93	47
3	3	12
114	114	21
53	54	9
121	125	4
129	129	32
88	89	18
8	8	26
93	94	27
61	61	36
28	28	28
95	95	42
32	33	14
100	100	21
31	31	13
41	42	10
12	13	12
58	58	23
40	54	4
59	60	7
60	61	12
122	123	21
54	54	39
116	116	37
11	11	34
100	101	10
121	121	38
80	80	34
15	16	13
76	78	5
134	135	21
86	86	19
9	9	28
104	104	45
79	105	3
79	80	12
14	14	21
112	113	8
51	51	29
2	40	4
108	109	39
121	123	17
146	146	6
124	124	67
101	119	14
113	114	9
74	74	33
97	97	42
140	140	51
81	134	8
143	143	15
5	5	38
123	124	23
67	67	18
69	69	35
20	20	23
89	89	30
48	99	4
69	72	4
59	59	31
74	75	25
82	93	5
15	15	20
29	29	32
126	126	55
137	138	16
110	110	21
82	82	49
35	36	13
91	92	9
48	48	26
92	110	3
68	68	34
16	16	38
57	58	6
34	34	33
122	122	41
109	110	29
71	73	3
129	132	2
51	88	3
9	11	10
38	56	1
38	62	6
100	119	2
13	13	29
131	131	42
38	42	6
137	137	37
67	68	28
22	125	4
4	4	17
23	26	5
53	56	3
75	101	3
39	39	35
30	30	28
71	72	24
13	24	12
115	116	23
96	98	1
40	40	22
52	53	11
62	62	36
82	132	6
139	140	6
128	129	29
71	71	51
106	106	44
103	103	26
91	102	10
2	3	17
135	137	4
56	56	22
42	43	10
19	19	22
43	43	6
20	21	4
49	49	43
135	136	7
53	53	38
3	5	6
47	87	10
78	107	1
70	71	23
123	123	27
76	139	1
138	139	16
68	70	3
78	78	24
17	17	31
35	35	15
135	135	22
66	66	38
72	72	20
72	73	23
26	26	18
104	105	5
131	132	6
33	33	30
12	12	9
89	93	4
55	56	24
102	103	11
5	6	13
130	131	11
36	37	17
76	76	30
38	38	58
89	90	14
116	117	10
49	50	14
135	140	3
23	24	21
33	39	3
117	118	27
89	91	6
134	134	55
97	98	11
49	60	2
90	90	28
42	42	32
11	12	5
94	94	31
73	73	27
18	19	16
120	131	3
77	77	30
102	102	24
113	113	23
81	82	6
101	101	25
93	109	7
99	103	8
94	105	2
38	64	1
121	122	10
84	84	39
119	119	29
58	59	9
117	117	39
18	120	2
1	54	10
64	64	16
50	64	1
27	27	44
62	137	3
133	133	37
110	113	1
87	88	10
21	22	4
120	124	2
103	104	9
79	79	18
118	119	29
84	85	8
51	63	2
63	63	30
31	33	5
81	81	26
141	143	4
88	88	18
107	107	43
57	57	52
76	79	18
100	103	4
95	104	6
69	131	2
63	64	8
75	75	24
141	141	50
78	79	11
69	119	6
79	125	3
22	24	12
72	74	5
108	108	34
109	109	47
130	130	44
77	78	11
136	136	37
114	115	12
115	115	28
133	135	14
127	130	19
77	93	1
28	29	24
68	69	3
27	28	19
125	129	2
52	52	20
133	139	5
128	128	44
104	106	4
66	75	3
105	108	19
8	29	3
0	1	5
140	141	16
22	22	28
65	65	26
36	36	21
139	139	20
50	98	1
96	110	7
83	84	23
43	65	3
120	121	9
21	26	6
120	120	35
68	130	7
51	52	11
34	39	7
87	87	32
89	105	1
6	48	7
85	86	11
1	1	28
86	92	4
13	25	3
91	91	28
125	126	10
67	69	6
30	31	9
22	89	4
18	129	5
99	102	5
20	53	2
4	43	1
98	98	26
75	76	9
22	23	1
134	141	7
54	96	6
81	136	4
54	94	2
50	52	9
83	83	22
36	58	3
129	131	3
90	105	3
6	43	1
82	139	2
90	91	5
104	108	7
62	65	1
124	126	3
21	21	21
82	133	2
145	145	12
17	32	6
130	132	4
82	108	1
85	85	15
94	109	14
34	36	7
99	100	14
111	122	2
47	47	8
100	102	3
81	133	14
111	111	43
69	71	4
144	144	20
67	122	1
50	51	10
86	87	10
8	9	15
125	127	10
79	81	8
19	20	4
51	53	4
129	130	4
94	129	7
98	99	7
103	128	2
134	139	2
43	76	1
118	127	2
123	125	1
32	56	2
107	108	14
90	92	2
66	67	11
35	58	3
83	105	1
55	57	4
73	131	4
80	86	4
105	107	2
103	126	3
67	70	2
125	128	4
144	145	6
13	21	4
80	102	7
91	122	2
54	95	2
51	97	2
110	111	10
112	114	15
64	65	11
86	105	1
131	135	2
41	41	16
118	118	36
3	33	2
85	89	8
8	30	4
24	24	19
43	64	4
122	124	3
34	35	10
87	95	1
83	89	2
17	31	2
124	127	9
2	13	1
71	75	2
138	138	14
73	74	10
94	95	3
99	101	7
23	23	27
77	126	5
40	53	7
62	64	4
107	135	7
106	107	12
68	74	3
53	55	3
29	31	5
15	20	4
76	77	10
31	32	7
86	96	4
32	34	5
69	118	8
39	66	2
82	111	5
133	140	5
66	103	3
63	110	4
141	142	16
95	96	13
84	119	1
14	22	2
133	134	9
68	128	6
105	131	5
71	138	2
83	85	6
14	24	2
134	143	5
19	23	4
19	91	4
48	49	3
12	14	3
135	138	4
27	33	1
54	110	4
39	57	2
136	137	9
73	98	2
80	81	12
24	27	1
92	92	29
37	37	19
77	94	3
48	62	1
71	74	2
14	15	10
96	103	5
42	50	1
81	135	4
131	133	6
81	124	4
48	61	2
118	121	3
98	108	2
92	104	1
26	27	5
59	61	4
96	120	1
19	27	4
96	97	13
37	38	2
109	138	5
87	90	5
6	50	2
48	63	4
32	32	17
90	103	1
24	26	1
81	107	1
78	131	1
62	132	5
86	88	8
118	120	7
70	131	3
121	129	3
91	95	5
80	110	1
88	91	1
39	40	15
142	143	2
107	134	1
21	53	4
4	35	1
35	59	3
105	106	10
5	43	2
60	74	5
63	132	3
0	2	5
121	142	2
37	39	3
9	10	17
127	127	16
40	41	14
118	130	1
133	137	3
43	66	3
87	96	5
56	57	6
9	16	4
95	97	1
112	112	14
96	118	7
12	20	2
34	37	2
6	11	5
131	138	4
72	98	1
24	25	12
90	101	3
3	35	7
98	118	2
52	97	6
80	83	5
114	119	7
93	95	3
129	140	4
67	125	1
94	101	2
31	56	5
82	83	5
133	138	4
49	52	6
50	97	2
143	144	4
12	52	6
25	26	6
17	19	4
18	23	2
13	26	2
42	49	4
2	2	12
86	136	3
10	11	5
50	50	21
79	124	6
82	110	2
12	24	2
77	99	1
91	105	3
120	128	1
16	17	2
15	17	1
101	128	3
6	47	1
73	75	3
61	62	2
126	141	1
94	96	2
33	40	2
11	102	1
104	131	1
38	39	7
4	57	2
67	71	4
58	61	6
109	111	4
35	49	1
68	73	7
14	26	1
84	133	4
29	30	6
39	41	2
128	130	3
0	12	6
145	146	2
107	117	1
11	26	2
113	121	8
97	118	4
76	99	3
90	104	4
74	76	4
87	105	2
106	108	4
79	107	1
91	93	2
94	107	2
76	81	7
77	79	2
105	130	3
90	129	2
108	110	1
47	48	4
4	58	1
85	92	2
19	21	4
9	15	2
33	35	2
88	98	3
14	16	2
126	129	4
90	145	1
117	121	1
75	79	4
42	64	2
20	24	2
1	5	2
0	8	1
82	137	4
88	105	4
33	66	3
52	55	3
0	54	3
121	143	3
127	128	13
36	39	1
61	63	2
110	127	2
92	102	2
134	137	1
6	7	1
4	5	4
118	128	1
124	129	1
80	143	1
101	102	3
129	141	4
1	2	7
114	116	2
79	82	1
16	26	1
32	126	2
92	94	2
135	139	2
116	118	2
92	93	3
135	144	2
17	18	4
37	58	1
81	139	2
117	138	3
35	37	3
94	110	1
68	127	1
65	68	2
67	73	2
92	96	4
78	126	3
3	4	8
98	101	1
86	95	2
68	118	1
30	128	3
1	4	4
134	140	3
81	111	1
134	136	4
80	125	4
91	104	2
50	66	1
11	20	1
38	47	3
133	136	4
122	141	1
88	90	5
18	26	1
84	87	1
77	80	1
69	85	1
36	40	1
98	111	1
92	111	2
61	125	1
0	5	2
74	140	2
123	128	1
46	47	2
65	66	5
38	41	7
62	112	3
84	91	1
136	138	1
114	118	1
65	135	1
81	141	2
92	114	1
62	119	2
1	55	1
111	112	5
90	95	1
12	29	1
93	108	1
81	110	2
73	140	1
41	43	1
95	108	1
37	56	2
42	48	2
91	125	2
90	144	2
19	32	1
81	125	2
126	131	4
10	26	1
17	29	1
70	72	2
49	53	1
82	109	3
120	127	1
21	24	1
21	87	1
78	99	3
121	140	1
56	58	1
109	112	2
80	82	2
140	143	2
68	71	2
41	48	1
120	126	1
10	15	1
75	133	1
68	124	2
13	14	3
117	144	1
89	125	1
89	94	2
82	84	1
78	92	1
6	49	1
18	21	1
0	53	1
1	31	1
82	135	1
15	28	1
117	140	2
2	34	3
136	139	3
137	139	1
119	130	3
47	49	1
2	4	1
119	141	1
76	103	1
83	133	2
75	99	1
70	118	1
8	10	1
48	87	2
89	123	1
95	120	1
5	52	1
132	135	1
11	34	2
0	4	4
32	57	1
114	117	2
38	48	1
62	134	3
0	10	1
87	97	1
104	130	1
128	145	1
40	66	1
11	21	2
132	134	2
80	134	1
95	125	1
34	40	1
71	131	2
75	132	1
47	85	1
2	56	1
80	123	1
86	90	2
91	123	1
94	125	4
66	124	1
65	110	1
20	27	2
31	57	1
41	61	1
105	127	1
142	144	1
123	129	1
98	112	1
92	109	1
83	91	1
125	130	1
102	141	1
117	137	2
38	115	2
126	142	1
133	143	2
99	119	1
62	122	1
109	139	1
61	131	1
13	29	1
83	87	1
76	133	1
119	121	1
47	63	1
83	128	1
123	144	1
