102	103	4
8	8	2
149	149	9
72	72	9
187	187	17
110	110	6
9	9	5
114	114	9
108	108	3
73	73	5
2	2	8
54	54	2
176	176	5
184	184	2
13	13	11
180	181	5
18	38	4
147	187	2
7	7	8
102	102	2
32	47	1
109	195	1
141	141	9
131	131	5
164	164	3
193	193	19
190	190	14
89	89	8
101	102	2
185	185	11
128	128	14
104	106	2
169	169	12
100	100	8
162	162	2
95	95	1
3	3	5
43	43	13
160	161	4
0	3	2
115	116	3
103	106	5
153	153	13
160	160	3
132	132	8
142	143	2
147	157	3
163	164	8
147	147	2
156	156	16
167	167	3
133	193	1
129	129	9
166	167	5
25	25	3
183	184	1
5	5	1
140	140	7
190	192	3
63	63	2
83	87	1
115	147	2
60	61	7
170	170	6
159	159	7
119	128	3
83	83	5
70	70	6
15	17	2
1	29	4
188	189	9
122	122	6
171	171	8
137	137	6
107	108	1
103	103	6
132	133	4
15	15	5
151	155	2
10	10	7
65	104	4
161	165	4
32	32	1
112	112	4
51	51	2
84	85	3
45	45	12
69	69	10
151	151	8
47	47	10
194	195	3
136	140	4
123	123	4
181	181	3
190	191	2
4	4	3
40	45	1
145	165	3
176	178	2
109	110	2
123	124	6
62	63	6
14	15	6
20	21	2
131	132	5
50	50	1
150	184	1
165	165	9
74	74	3
105	105	5
124	124	9
37	41	4
187	188	7
52	52	7
8	9	2
118	118	7
144	145	3
19	19	4
192	193	6
175	175	9
159	161	4
7	8	2
33	36	4
107	110	1
14	14	8
164	167	7
152	152	6
168	168	8
104	105	4
63	64	1
127	128	4
44	44	2
189	189	1
101	104	2
42	42	8
16	16	12
18	20	4
183	183	10
121	121	6
26	26	5
94	95	4
16	17	4
132	141	1
186	186	10
180	182	3
155	155	16
78	78	7
39	39	3
27	27	4
171	172	2
33	35	2
120	121	5
144	165	2
36	36	6
139	139	4
143	145	3
96	96	2
197	197	3
0	0	2
113	113	2
101	114	3
193	194	4
58	58	2
135	153	4
128	129	4
34	38	1
95	97	2
72	73	1
115	141	2
12	12	4
66	66	1
28	28	5
185	186	6
4	5	1
134	134	2
1	1	4
123	126	2
120	120	4
97	97	1
165	166	3
153	154	1
34	35	5
167	173	2
196	196	8
134	140	2
13	14	4
136	136	11
155	158	1
164	175	4
22	22	2
158	159	4
29	34	1
152	153	5
37	37	2
18	18	2
88	89	9
119	119	8
47	48	5
154	155	3
157	157	2
186	187	1
48	48	2
138	138	4
179	179	9
180	180	6
178	178	2
168	169	1
156	157	3
40	40	2
56	65	1
124	197	3
127	196	1
150	150	4
114	115	1
191	191	5
165	167	2
24	24	4
196	197	6
135	135	6
60	60	1
3	4	2
29	147	2
31	33	1
158	158	9
130	131	1
115	115	4
94	94	1
105	107	1
15	16	2
27	44	1
173	174	3
152	180	2
20	20	3
40	42	2
113	115	1
29	29	6
106	106	3
160	162	2
80	81	1
134	136	2
111	111	7
62	62	3
81	82	1
154	154	6
69	82	2
85	87	2
30	30	4
115	120	1
101	101	4
188	188	5
116	118	5
55	55	1
61	62	3
195	195	3
104	104	1
143	144	1
30	32	2
76	78	1
173	175	4
178	179	1
65	65	2
138	195	2
11	122	1
2	3	4
33	33	3
164	165	3
54	55	1
172	172	3
187	189	4
11	19	1
177	178	3
23	23	1
44	45	1
133	133	4
88	88	3
75	76	2
192	192	2
41	41	1
161	163	3
139	141	1
49	49	1
182	183	1
82	83	1
143	143	1
64	64	1
67	68	2
152	154	2
142	146	2
117	117	3
4	44	1
174	174	4
11	11	1
46	47	1
126	127	1
17	17	1
80	80	1
5	6	1
85	90	1
169	171	2
155	156	1
86	89	2
133	134	1
57	57	3
106	107	1
50	55	1
48	49	1
182	182	1
149	150	2
48	57	1
21	23	1
101	117	1
170	171	1
146	194	1
50	62	1
166	172	1
132	137	1
29	33	2
99	99	1
181	182	2
161	161	3
53	53	2
29	32	1
109	109	1
142	142	1
143	146	1
76	76	1
61	61	1
103	120	1
59	61	1
103	104	1
18	39	2
137	177	1
166	166	1
148	148	1
30	31	1
86	87	1
146	146	1
105	108	1
137	138	1
2	38	1
1	2	1
98	98	1
150	188	1
35	36	1
77	77	1
105	113	1
106	120	1
