17	18	10
115	116	4
8	11	7
93	94	11
81	175	2
121	140	2
50	67	2
102	102	11
126	126	6
37	37	23
155	155	15
8	9	12
88	93	1
24	42	3
15	25	9
35	38	3
5	5	28
159	159	14
66	67	3
37	39	8
127	128	7
56	57	3
14	29	4
23	23	31
78	78	8
6	8	1
135	145	8
29	52	7
4	4	20
10	43	6
110	110	8
42	45	8
25	25	20
9	9	37
13	13	41
36	57	2
117	154	3
65	65	11
165	165	19
65	138	3
82	82	13
23	24	11
24	37	2
114	152	6
7	7	32
94	94	11
173	173	21
87	87	7
107	108	3
1	1	19
4	63	3
123	124	5
133	133	9
9	35	3
123	123	25
5	15	7
40	41	4
144	144	19
120	126	11
41	41	29
34	34	7
95	134	1
4	7	4
19	19	20
42	62	4
20	21	10
134	151	2
12	13	32
12	15	4
113	117	2
32	33	12
33	33	40
14	15	8
178	178	9
75	117	2
158	174	3
158	175	5
146	146	22
7	15	2
38	38	33
140	142	10
63	63	18
31	129	5
15	15	31
4	5	18
138	139	5
81	82	5
142	159	4
134	136	3
173	174	3
16	17	32
72	72	9
105	106	2
86	86	13
12	12	19
25	40	9
143	143	12
58	58	13
26	26	28
73	97	7
96	123	3
35	35	33
119	123	3
127	162	3
13	29	3
7	20	2
32	32	27
85	85	6
2	22	4
13	28	4
30	35	6
121	121	12
59	59	10
9	10	11
109	118	3
154	154	18
65	176	2
65	71	1
22	28	4
76	76	19
119	119	8
94	95	5
117	117	14
14	27	2
43	43	8
67	67	8
36	36	35
54	122	2
19	20	22
50	51	2
131	131	21
138	138	8
5	40	4
121	143	3
107	107	10
3	3	21
66	80	2
115	115	14
45	45	25
56	58	3
39	40	20
9	11	5
98	123	1
83	83	10
98	100	5
41	65	3
20	20	26
51	54	11
97	152	2
25	76	4
88	88	18
22	23	12
157	157	20
134	134	10
9	22	7
14	35	3
119	120	5
149	150	6
161	164	1
20	32	1
20	39	1
166	166	9
26	28	8
8	67	2
96	96	17
74	75	6
29	45	2
90	90	13
62	63	8
110	145	3
143	144	14
23	40	1
97	125	2
16	16	52
25	26	7
98	98	15
73	73	12
25	27	5
71	71	15
136	136	16
42	42	16
164	164	18
170	174	5
162	162	3
98	113	1
92	92	9
171	171	14
94	101	5
135	135	8
23	26	5
65	133	2
161	161	10
32	106	1
6	10	3
147	148	3
111	111	14
150	151	4
80	80	7
80	81	7
76	100	5
8	73	7
148	148	18
7	16	3
152	152	10
64	88	7
29	29	21
25	38	4
28	28	28
142	142	14
160	161	12
22	35	3
52	52	9
132	136	5
150	150	15
56	56	20
6	6	28
149	149	23
92	94	1
58	64	4
103	103	10
27	27	36
27	28	23
50	50	5
18	21	3
66	79	1
20	41	2
13	15	4
30	30	28
84	84	5
50	121	3
8	8	17
14	14	35
166	177	4
40	40	16
55	57	3
58	59	4
5	6	12
108	108	23
28	29	7
97	97	7
179	179	6
74	74	3
7	9	6
72	96	3
37	40	2
53	63	3
2	2	22
24	24	25
117	151	1
93	101	2
163	164	1
84	85	5
6	66	3
44	45	8
10	12	1
60	60	28
105	153	4
35	170	6
89	90	4
137	137	10
88	89	5
68	68	7
147	158	2
108	144	2
156	156	18
127	127	12
94	130	4
114	114	7
35	122	4
164	170	2
120	127	4
102	106	3
171	172	10
30	31	13
83	85	3
89	89	6
17	34	2
99	111	3
157	175	3
58	149	1
99	151	5
101	115	3
78	79	4
102	103	3
135	136	5
112	114	3
66	89	8
18	18	19
120	152	2
10	40	3
147	147	9
6	9	4
6	15	1
1	5	2
149	179	2
166	167	14
2	3	10
51	52	3
141	141	10
101	101	12
59	60	2
2	33	4
22	22	31
37	43	2
145	145	8
17	17	10
24	38	1
76	121	2
70	73	4
128	129	4
5	16	5
37	57	1
45	67	2
161	162	6
95	95	6
159	162	1
23	74	3
53	54	6
110	136	3
124	124	11
165	166	4
169	169	11
71	72	6
31	31	21
81	81	16
160	160	14
118	176	2
8	19	2
82	125	2
163	163	22
34	35	10
169	170	3
75	76	8
14	24	1
15	16	5
125	125	4
151	151	6
61	71	1
168	169	4
5	28	3
33	34	12
151	155	4
116	117	5
140	140	15
61	61	10
0	12	2
118	118	13
153	153	4
150	157	4
15	37	3
21	21	20
43	45	4
84	140	2
53	53	12
64	64	12
171	174	1
39	39	24
45	80	1
30	45	5
151	171	2
27	29	2
11	11	37
21	22	14
70	145	2
86	88	4
106	106	22
54	142	3
34	174	2
142	143	7
2	4	12
119	129	4
18	25	1
10	10	25
11	42	5
4	14	2
64	80	2
8	63	6
11	12	5
31	36	5
99	99	6
25	29	4
24	36	2
11	57	6
112	112	18
75	118	2
10	29	3
38	41	5
100	158	2
36	37	9
28	31	5
12	51	2
168	173	1
170	170	13
131	132	10
153	157	6
67	79	3
163	167	3
174	174	10
8	16	1
52	62	4
96	117	2
158	158	18
97	133	2
1	2	7
148	150	4
132	132	10
57	57	9
163	169	2
10	11	5
26	27	4
116	116	4
65	66	8
176	176	17
101	135	1
41	43	6
129	129	8
167	167	15
18	41	1
51	51	6
4	9	4
53	58	2
22	85	3
6	7	6
133	151	3
79	80	3
55	55	14
169	174	6
132	133	3
58	148	1
66	66	6
15	39	7
159	160	6
77	112	3
24	25	11
24	28	10
81	85	1
0	15	4
131	137	2
131	133	2
100	161	3
57	146	3
144	160	1
78	140	3
168	168	18
15	43	2
30	36	7
13	35	1
71	80	3
120	123	6
31	33	1
29	31	5
18	19	5
5	9	7
100	100	2
109	110	1
15	23	3
45	81	3
74	80	2
126	170	8
79	79	8
121	125	1
175	179	2
107	114	4
122	122	16
13	76	7
3	43	2
1	32	3
120	120	9
22	81	5
9	46	6
56	78	3
172	172	5
54	115	6
105	105	4
166	176	2
144	145	2
110	113	2
9	29	3
11	66	5
16	19	4
141	142	5
37	38	2
11	15	2
12	26	5
10	13	5
71	73	1
12	38	1
18	24	6
136	176	3
105	107	1
3	11	5
12	14	6
44	111	2
31	96	1
11	68	1
98	101	6
173	176	1
53	139	3
10	39	4
104	104	12
27	36	2
132	135	2
164	165	7
135	157	3
65	94	7
0	52	3
122	167	3
5	38	2
71	77	4
41	42	7
62	62	9
168	170	2
22	25	8
100	108	5
116	136	3
109	136	6
146	147	7
97	98	5
49	51	2
5	13	3
112	125	3
7	8	10
146	168	3
6	40	2
15	20	2
83	86	7
23	28	1
1	42	1
113	113	9
41	44	3
158	163	2
18	22	3
64	65	5
50	98	2
21	23	3
0	36	3
2	32	1
127	142	2
128	128	8
93	106	3
40	54	1
51	161	2
120	128	4
6	30	2
95	97	1
120	121	2
38	39	5
140	146	2
29	36	3
162	163	5
13	43	5
109	113	3
15	45	2
3	117	3
23	75	2
1	109	2
98	129	3
54	127	2
35	131	1
5	30	3
167	176	2
91	91	4
139	139	14
110	120	1
55	56	4
121	122	3
158	173	1
45	46	4
110	112	6
121	126	5
118	157	1
72	87	2
2	118	3
11	38	2
16	114	1
33	106	2
111	152	1
144	151	3
115	117	3
109	109	7
86	110	1
3	40	1
96	98	3
115	118	3
3	4	9
26	35	3
110	152	9
117	127	1
132	151	3
31	38	2
114	117	2
51	61	4
33	35	2
34	36	1
114	154	1
3	15	1
0	0	11
175	175	6
160	178	3
7	37	3
104	115	1
14	53	1
54	54	6
32	36	3
4	12	1
16	40	8
9	19	1
18	20	1
152	153	5
90	91	1
12	49	1
9	12	3
63	64	2
14	30	1
85	91	4
1	114	3
10	14	6
118	131	2
28	74	1
26	38	1
7	63	1
2	10	1
7	18	1
103	104	6
128	166	1
100	139	3
56	148	3
29	30	5
124	125	2
10	32	1
100	101	1
12	21	1
49	50	3
33	41	3
4	38	4
115	154	1
86	98	4
143	161	3
36	56	4
21	35	7
121	165	3
96	125	2
32	37	3
163	166	2
9	20	4
117	152	2
121	163	4
155	175	1
122	137	2
0	38	3
68	139	1
72	120	2
133	155	1
5	23	1
5	39	1
4	42	2
39	115	5
33	45	3
156	157	3
1	14	1
77	79	3
29	35	2
114	135	3
143	180	1
10	18	2
9	30	2
110	116	1
11	13	10
88	138	2
98	99	3
176	177	5
97	174	2
0	27	1
31	98	2
52	57	5
151	157	4
108	109	1
43	61	5
177	179	1
40	115	1
77	77	5
16	36	2
56	71	3
86	92	2
35	42	1
24	27	1
170	173	4
28	36	2
13	39	3
180	180	4
89	99	1
151	152	1
111	112	1
109	114	1
44	80	1
107	110	2
138	167	1
85	99	5
30	33	2
30	39	3
24	40	1
49	57	4
57	68	1
12	22	3
87	89	2
135	153	2
73	75	1
145	146	3
115	136	3
85	143	1
44	44	9
109	144	2
31	39	3
87	88	2
23	43	1
146	149	2
30	113	2
137	141	1
11	21	2
9	63	1
119	121	1
96	102	1
84	119	2
161	178	2
35	44	2
19	41	2
52	55	2
159	161	4
160	162	1
42	73	1
86	107	4
111	151	2
75	75	10
16	23	3
2	19	2
123	125	2
119	127	2
57	66	1
116	131	1
10	30	1
100	157	4
31	107	1
87	101	1
86	87	4
57	58	3
126	165	4
90	93	2
72	97	2
2	42	1
108	148	1
8	12	2
7	11	1
16	27	3
40	116	2
128	140	1
31	44	1
27	32	1
4	6	5
36	38	1
33	95	1
5	25	1
103	106	2
2	16	1
168	175	4
133	134	2
172	173	2
129	133	1
100	173	1
128	165	2
99	101	1
7	62	2
44	46	2
4	115	2
0	14	2
17	76	2
54	136	1
85	146	2
3	30	2
1	4	3
16	22	1
129	131	2
57	85	1
50	72	1
11	27	1
55	94	1
171	175	2
11	60	1
165	169	1
14	28	1
30	43	1
27	37	4
93	93	6
56	63	1
167	171	1
11	14	1
35	36	3
158	160	4
108	145	2
154	156	1
99	173	2
129	163	1
9	13	1
80	82	1
130	139	1
19	22	1
66	84	1
8	33	1
42	44	2
18	23	1
38	42	2
1	33	1
26	36	2
2	9	2
9	40	3
85	88	1
76	77	2
4	35	1
5	37	1
71	120	1
15	19	1
158	159	4
113	114	1
4	41	1
8	45	2
158	162	1
10	15	1
55	141	1
38	40	1
103	159	2
87	107	2
71	138	1
132	141	2
139	140	1
52	93	1
19	142	1
163	168	2
20	33	2
28	38	1
104	105	1
42	43	2
156	158	1
16	21	1
78	92	1
52	53	1
30	42	1
85	119	1
145	180	1
40	45	1
157	158	1
5	14	1
33	130	1
154	157	1
26	45	1
115	152	1
132	142	2
128	130	2
86	90	2
127	132	1
79	128	1
91	92	1
130	130	1
66	81	2
126	153	1
137	138	1
155	157	1
30	37	2
107	109	2
7	42	1
107	148	2
36	39	3
31	109	1
112	113	1
5	31	2
61	63	1
10	44	1
109	111	1
68	77	2
4	33	2
116	118	2
103	107	1
119	136	2
122	138	1
169	180	1
120	135	1
2	38	1
127	158	1
50	75	1
110	140	2
14	33	1
5	41	1
98	128	2
148	149	1
168	174	1
107	113	1
101	156	2
3	33	1
8	14	1
62	73	1
19	111	2
52	59	1
24	26	2
105	118	1
112	123	1
23	39	1
60	66	1
126	152	3
52	61	1
60	141	2
179	180	1
110	111	1
3	41	2
8	46	1
172	177	1
145	147	1
62	81	1
36	55	1
103	177	2
101	136	1
127	163	2
33	40	1
0	24	1
109	134	1
118	123	1
51	87	1
4	15	1
102	145	1
118	155	1
19	104	1
152	171	2
41	61	1
2	12	2
22	78	1
134	145	1
33	108	1
28	40	1
107	147	1
87	103	2
64	138	1
1	111	1
87	100	1
55	58	1
80	88	1
3	31	1
23	35	1
4	10	1
84	92	1
34	169	1
103	153	1
3	9	1
26	40	1
40	42	1
3	6	1
142	178	1
43	44	1
