41	41	20
130	130	12
98	98	9
89	89	10
126	128	9
53	53	14
127	127	28
50	50	25
6	19	2
105	105	17
38	38	10
83	85	2
46	46	9
65	65	5
71	72	4
99	99	4
46	47	7
104	105	7
102	102	11
105	106	7
20	20	15
49	49	6
2	4	1
124	126	7
87	87	6
59	66	7
76	78	4
78	79	5
26	27	5
97	108	1
79	79	6
51	51	19
82	82	12
13	13	19
60	61	4
59	59	11
59	61	2
12	12	16
72	72	17
129	130	20
109	109	12
40	41	16
58	58	17
102	104	2
94	94	13
43	43	12
46	60	1
50	51	4
88	88	13
77	81	1
86	87	12
123	123	15
22	22	12
11	11	5
68	68	11
107	107	19
48	76	2
44	44	11
32	102	4
106	109	4
113	113	14
116	117	10
117	117	10
40	40	20
91	96	5
72	73	2
132	132	11
76	76	9
6	6	10
93	93	14
99	101	13
42	43	11
101	101	14
68	69	7
44	47	5
14	14	15
83	83	18
24	24	19
48	49	6
64	64	15
72	74	5
28	29	4
70	70	12
130	131	2
29	30	7
56	56	14
54	54	19
115	116	13
91	91	35
111	113	2
19	19	25
17	17	19
57	57	14
75	75	8
4	4	7
125	125	5
88	89	3
42	44	2
47	47	10
15	15	23
74	74	7
111	111	14
31	31	3
63	63	5
122	122	8
73	73	9
79	80	4
108	108	13
44	45	13
126	126	12
5	15	6
96	96	13
123	124	9
114	114	19
55	55	14
7	9	3
97	98	6
2	3	1
99	100	7
126	127	9
60	62	1
132	133	4
61	61	13
113	117	3
81	82	9
29	53	4
25	25	17
4	5	2
12	74	2
95	95	21
110	110	15
104	104	15
102	131	3
4	13	7
48	48	18
100	100	12
73	74	8
118	119	1
90	93	2
22	23	5
106	107	2
39	40	8
40	65	1
119	119	11
32	33	6
95	120	3
65	67	5
5	5	14
25	26	2
66	67	2
16	16	8
112	112	2
66	66	4
6	7	1
32	54	2
90	91	2
23	24	3
116	116	14
24	44	3
45	45	12
41	42	9
121	122	2
53	55	1
100	133	4
55	56	1
106	106	12
118	118	8
28	28	12
23	23	9
128	128	9
102	103	5
77	77	8
52	53	7
43	45	2
115	115	9
84	85	7
24	25	5
29	29	9
111	121	3
129	129	3
3	3	10
98	103	5
27	27	4
121	121	11
20	21	5
103	107	4
120	120	7
62	62	6
53	54	3
85	85	10
21	22	6
100	101	10
102	106	1
67	67	8
58	61	6
127	128	13
5	6	5
69	69	10
97	97	14
84	84	7
42	42	9
97	118	5
108	118	2
26	26	5
111	119	5
52	52	8
128	129	3
5	18	4
46	83	5
96	97	7
0	42	1
92	94	5
64	68	3
129	133	2
114	115	3
43	44	9
8	8	4
110	111	3
91	92	14
107	108	3
58	59	6
103	103	8
49	67	1
74	84	3
59	64	1
78	78	22
44	54	1
30	30	14
122	123	1
33	34	2
90	90	6
32	32	8
5	63	1
80	80	7
59	60	2
51	52	9
76	77	1
103	104	3
25	27	1
24	43	1
94	95	4
81	81	9
113	120	1
95	105	1
7	7	5
99	107	1
98	99	7
71	71	4
98	100	3
18	22	2
13	15	1
33	64	2
124	124	7
90	92	1
111	125	2
5	62	1
2	2	5
91	93	3
92	92	5
133	133	4
0	1	3
58	60	3
117	118	4
11	12	2
6	20	2
31	32	3
96	108	1
58	64	1
92	124	1
105	131	2
70	75	2
43	63	1
101	103	5
131	131	6
46	129	4
22	24	1
43	55	2
41	43	3
67	68	2
113	121	1
100	108	1
44	100	2
54	55	3
19	40	2
1	2	1
47	48	3
93	94	2
33	33	2
15	16	2
3	14	4
39	39	5
69	70	1
16	17	2
27	28	2
1	1	5
9	10	1
113	114	3
108	120	2
0	0	1
119	120	4
26	45	3
18	59	2
27	39	1
61	62	2
74	77	2
23	45	1
10	10	2
124	125	2
119	126	3
6	64	2
17	18	6
46	71	3
55	67	2
15	17	1
105	109	1
79	105	1
104	106	1
52	58	1
113	115	1
94	109	5
45	46	3
58	67	3
9	9	3
12	13	6
72	118	2
21	21	1
60	66	1
18	19	3
18	23	1
65	66	3
80	104	1
129	131	2
30	31	1
113	119	1
48	102	1
99	106	3
49	50	1
27	46	1
89	91	1
3	4	1
63	64	1
110	131	1
111	112	1
46	132	1
131	132	1
87	89	2
70	71	3
20	51	1
75	76	2
53	57	1
89	90	1
100	109	1
38	39	1
105	132	1
34	34	1
76	84	1
79	100	1
3	9	1
104	132	1
50	116	1
125	126	1
31	53	1
115	117	4
19	21	1
8	9	1
80	107	1
3	13	1
80	82	1
113	126	1
0	6	1
45	47	1
105	110	1
79	81	1
13	14	1
