44	44	10
32	32	5
190	213	3
119	120	1
199	199	10
29	29	7
112	112	9
78	79	12
69	69	3
233	234	1
81	81	15
178	178	8
177	246	5
211	211	16
38	94	4
52	52	4
240	240	6
8	8	14
238	238	4
178	179	2
165	165	11
43	43	6
184	184	4
8	10	4
151	151	9
80	93	2
243	245	2
85	89	5
229	230	3
213	213	16
108	113	1
178	182	3
26	29	2
113	113	9
96	96	5
182	183	1
192	192	7
87	174	5
17	17	6
3	37	4
218	219	6
240	242	8
187	187	10
182	184	4
145	145	1
91	91	4
77	77	9
171	208	2
247	248	3
37	37	8
5	5	2
66	66	3
239	239	12
224	225	8
73	74	1
245	245	9
38	39	1
179	183	2
60	60	11
109	111	1
53	53	2
154	193	3
56	56	7
187	247	5
43	46	2
207	207	2
152	181	2
105	107	7
111	116	5
25	54	1
221	225	2
79	87	1
55	55	3
72	74	3
82	108	6
1	1	7
162	162	6
38	38	4
177	180	1
87	87	3
109	110	4
55	231	1
23	57	4
169	170	5
232	233	4
78	78	4
95	95	7
176	176	3
29	55	1
107	107	6
20	21	4
236	238	3
159	160	2
51	109	1
65	67	3
190	207	1
210	238	1
246	246	7
98	98	13
172	172	15
26	26	17
191	206	2
208	208	14
34	34	6
150	150	12
147	147	7
65	66	5
243	243	10
236	236	4
51	52	5
222	222	7
41	41	13
46	46	6
70	71	9
171	172	1
215	215	10
110	110	5
3	3	6
25	25	7
117	117	5
21	21	4
159	159	3
64	186	3
80	81	4
196	196	7
85	85	4
121	121	3
48	50	1
181	181	8
193	200	1
96	118	2
206	207	3
245	247	2
88	232	3
11	11	8
79	79	6
199	200	8
7	7	5
27	27	6
9	227	3
111	119	3
102	102	6
65	71	2
25	53	1
90	95	4
48	48	1
220	221	6
45	45	3
197	201	1
52	53	3
202	202	13
175	175	6
202	206	2
156	156	10
167	167	8
119	243	2
199	201	3
68	117	3
34	37	5
173	176	2
57	57	2
104	107	2
115	115	6
186	186	14
214	214	11
237	237	4
179	179	8
116	116	8
161	161	4
37	49	4
9	228	2
212	213	3
183	202	3
14	38	1
18	36	1
63	63	11
105	105	7
222	223	3
216	216	3
50	92	5
88	100	3
173	174	2
190	190	4
229	229	5
73	73	5
187	191	1
168	168	5
4	4	6
12	12	4
158	159	1
42	42	5
155	155	5
164	166	4
87	88	4
35	111	1
209	232	2
174	204	1
55	59	1
243	246	5
147	183	2
224	224	1
109	109	8
196	207	3
64	64	10
184	207	3
115	116	5
180	237	2
201	201	10
74	77	2
181	237	1
187	188	6
86	86	2
88	88	6
68	69	4
204	204	10
80	90	1
221	221	3
226	226	7
183	209	2
154	154	3
180	180	6
31	31	8
171	171	3
120	120	5
157	158	2
180	212	2
33	118	2
244	245	2
153	154	1
58	59	2
31	39	4
66	67	6
59	61	1
233	233	6
176	191	2
25	55	4
76	77	10
111	111	9
94	94	1
152	153	2
175	225	3
223	224	4
195	195	1
119	119	3
2	15	2
81	108	1
232	232	3
94	95	3
47	48	3
87	94	1
162	163	1
173	213	1
4	55	5
195	209	4
47	47	1
76	76	8
27	29	3
191	192	2
183	184	4
9	9	10
62	62	13
45	46	3
174	209	1
87	109	1
15	15	5
108	119	3
118	118	5
197	197	2
83	86	1
90	99	1
19	19	1
189	192	1
233	247	2
197	198	6
204	205	1
59	60	5
198	199	1
196	197	3
54	109	4
228	229	3
214	215	4
209	209	3
82	84	5
71	71	3
171	173	1
150	154	3
67	67	4
194	209	4
39	40	2
157	165	3
216	221	1
37	39	1
247	247	4
93	94	2
187	190	3
244	244	2
13	14	1
14	31	1
237	241	2
180	193	2
99	99	3
103	103	5
146	146	8
22	23	1
12	20	3
203	203	4
30	58	5
191	210	3
225	225	4
18	18	2
71	96	1
227	228	2
177	177	6
40	40	1
176	217	1
58	58	3
203	204	2
68	68	5
175	176	2
182	208	1
18	34	4
35	35	1
107	185	3
228	228	1
6	6	3
240	241	3
149	154	3
175	210	2
63	70	2
72	72	1
105	106	3
57	58	2
108	108	2
111	248	3
83	83	3
194	194	1
49	51	1
2	2	3
15	19	2
210	213	1
2	110	3
189	190	2
193	194	1
170	170	4
206	206	2
24	28	4
101	101	2
51	51	2
55	57	7
86	88	6
194	236	2
60	105	2
63	64	1
106	107	1
146	160	4
214	217	1
101	102	1
16	31	3
212	212	7
176	193	1
186	233	1
73	76	2
45	74	1
16	21	1
40	112	5
29	52	2
82	82	3
0	1	1
92	109	1
97	97	3
22	22	2
112	241	5
158	163	3
174	174	3
195	200	2
155	207	1
30	39	2
36	40	1
172	177	2
213	248	2
49	49	1
100	100	3
67	110	3
30	57	3
11	224	1
42	59	2
80	80	3
98	119	2
1	3	2
87	89	2
64	68	2
211	214	1
215	248	1
238	239	2
12	23	2
208	245	2
217	217	2
23	23	1
65	65	2
175	205	1
18	77	1
174	232	2
152	152	1
210	210	3
169	169	5
33	33	2
44	45	2
69	73	2
89	92	3
101	242	1
102	107	3
63	69	2
17	55	1
11	227	2
15	30	2
51	63	1
37	45	2
173	196	1
198	198	2
84	85	2
205	206	4
77	100	1
172	196	1
192	209	2
153	174	2
27	28	1
192	195	4
185	185	3
2	37	2
205	205	5
174	197	1
26	93	1
216	225	3
153	158	2
200	200	2
177	210	3
179	202	1
241	248	3
236	248	1
211	212	1
18	68	1
118	121	2
242	242	4
157	159	2
170	171	2
7	9	2
216	217	1
88	104	1
187	233	1
169	192	1
38	42	1
193	195	1
173	173	3
156	162	1
24	24	2
112	116	1
166	167	1
3	207	1
231	231	1
165	212	1
24	43	1
221	222	2
28	110	1
209	213	3
218	218	2
106	108	2
79	85	1
48	54	1
67	68	1
77	107	2
234	234	2
16	41	1
164	164	2
167	168	1
95	97	1
145	182	2
28	28	1
113	114	1
72	79	1
199	242	1
204	212	1
149	213	3
158	160	2
174	213	1
18	56	2
149	150	1
10	10	1
184	185	1
178	209	1
54	234	2
46	61	1
154	162	2
190	191	1
190	194	1
198	204	1
165	167	1
242	243	1
197	246	1
85	90	1
51	65	2
74	74	1
20	20	1
158	158	2
217	218	2
83	110	1
39	39	1
84	89	1
65	69	1
115	187	1
55	234	1
144	147	1
120	149	1
38	57	1
33	60	1
90	90	1
202	241	1
114	115	1
241	241	1
237	238	2
93	105	1
80	82	2
32	162	1
14	26	1
193	193	1
26	51	1
153	153	1
120	152	1
