15	15	24
109	109	6
103	103	9
149	149	17
96	96	15
127	127	6
137	137	16
176	176	24
4	5	5
113	116	2
0	0	22
10	10	36
134	135	5
57	59	4
18	19	7
13	13	22
60	88	9
142	142	14
77	77	7
165	166	4
5	6	11
11	11	23
33	33	28
66	66	9
96	97	16
167	167	27
156	157	5
131	131	24
2	3	13
105	105	12
125	125	24
33	34	7
4	4	34
153	153	18
44	45	7
32	32	24
144	144	19
39	39	34
14	14	45
123	125	4
150	150	28
164	164	20
43	51	4
139	139	12
144	161	2
45	45	18
139	148	1
22	22	19
22	24	3
178	178	4
90	90	19
152	152	11
20	20	16
130	130	16
26	27	5
156	158	17
73	73	7
134	134	26
179	180	6
29	29	29
19	26	4
34	34	11
54	54	8
166	166	7
102	102	9
144	145	6
134	141	4
28	29	5
90	110	3
59	68	2
35	35	18
65	65	9
110	111	9
110	110	7
61	66	2
57	57	13
11	12	20
81	82	3
76	78	3
91	92	5
120	120	8
5	10	1
43	44	10
52	52	9
60	60	13
67	174	5
90	117	4
53	53	11
126	128	2
94	137	4
83	83	3
27	28	7
55	55	15
147	147	19
43	45	3
87	87	7
8	9	8
175	175	6
115	118	4
35	36	9
109	110	9
24	24	20
159	165	3
22	45	4
17	77	2
143	144	14
64	65	4
123	124	9
6	6	29
147	148	2
112	112	7
97	113	1
119	120	3
135	142	3
119	119	4
148	150	2
132	148	2
29	30	14
154	154	10
37	40	4
32	33	5
155	156	11
151	151	7
24	25	8
105	107	4
170	170	14
58	58	11
25	25	11
12	12	21
173	173	14
72	72	9
21	21	20
124	124	2
117	118	11
56	56	9
99	102	1
122	122	8
93	100	5
107	108	5
19	20	6
82	82	13
9	9	21
160	161	2
13	14	1
60	61	7
82	96	2
17	17	28
42	43	11
7	7	14
53	54	3
165	165	10
38	38	52
12	13	25
118	119	1
177	178	2
17	30	3
128	129	5
132	133	9
37	37	34
65	66	5
34	35	5
95	95	43
28	33	3
91	91	13
163	163	18
23	24	4
38	39	10
152	153	5
1	2	3
140	140	27
156	174	1
75	85	5
136	141	3
77	78	7
52	53	13
27	27	18
43	171	4
142	149	3
118	118	12
127	128	6
3	3	15
19	19	13
132	132	32
103	104	8
118	122	3
36	36	25
87	89	3
161	161	14
23	23	26
135	135	9
172	172	20
31	31	21
124	125	5
88	88	11
171	172	13
1	4	9
81	81	11
158	158	10
58	171	1
41	41	21
169	170	3
178	179	3
59	59	16
99	99	15
49	49	2
94	95	2
37	38	10
55	56	6
28	28	25
86	86	8
139	141	4
75	75	11
90	91	3
34	36	2
166	167	2
159	159	17
67	67	7
45	160	1
24	29	1
17	26	2
163	164	5
61	61	1
95	130	3
117	117	4
135	143	2
91	99	3
162	162	5
40	40	7
115	115	6
96	101	3
31	32	9
175	176	5
146	146	7
1	1	18
54	55	4
28	30	6
121	123	1
108	109	2
89	89	11
137	140	2
71	72	12
131	146	1
8	8	20
107	107	10
57	58	6
130	145	4
171	171	13
114	125	2
15	16	5
44	44	24
155	155	8
140	152	5
86	87	9
61	62	3
22	29	1
75	105	2
101	101	15
85	85	1
100	100	15
136	136	14
25	26	10
98	99	4
122	140	1
5	5	23
20	21	8
148	148	25
71	73	6
114	115	5
2	2	29
138	138	22
114	114	17
125	148	6
156	156	9
16	16	17
92	93	3
145	145	5
9	10	11
10	14	2
133	134	2
126	129	3
83	87	4
159	163	5
154	155	1
51	51	17
76	76	8
111	112	6
121	121	8
126	126	14
98	100	1
17	20	4
36	37	5
65	75	1
131	132	10
3	4	14
23	25	3
36	42	5
145	146	5
94	94	10
68	176	3
41	64	1
8	31	1
57	158	6
112	121	1
42	161	2
179	179	20
116	117	1
14	33	5
6	8	3
134	137	1
42	42	8
84	90	2
59	61	4
37	39	4
138	139	5
157	165	2
141	142	5
80	90	2
53	57	4
145	179	2
24	68	1
29	39	4
168	168	9
121	122	8
148	153	3
21	45	5
101	102	8
146	161	1
142	143	14
44	112	3
45	46	5
93	93	7
155	173	2
9	13	3
168	169	7
123	123	16
98	98	1
178	180	1
173	174	5
7	16	2
76	81	1
39	40	7
40	41	8
23	75	1
24	43	1
71	71	14
43	43	21
19	45	3
2	4	7
38	40	4
95	133	2
111	111	3
50	50	5
180	180	2
107	109	5
116	116	16
141	141	9
1	9	2
11	19	1
152	169	3
63	74	1
7	9	1
177	177	3
172	173	8
51	61	1
34	37	2
22	23	5
104	104	5
61	122	1
112	113	1
10	11	8
59	60	6
14	15	5
95	96	4
126	127	4
63	63	3
98	101	1
158	172	2
132	171	1
137	138	2
93	94	7
42	160	2
137	141	1
169	169	7
78	80	3
133	133	9
10	38	1
140	148	5
0	1	7
135	136	5
95	115	1
167	168	2
85	104	3
9	15	1
107	121	4
80	80	2
10	12	8
64	64	4
132	146	2
21	22	4
56	171	3
111	113	2
17	19	1
86	106	1
14	32	1
89	90	1
29	43	2
17	18	2
7	15	1
30	31	3
74	75	2
174	175	2
19	21	5
23	68	2
26	26	7
55	60	2
92	94	2
18	18	7
157	157	10
78	78	7
108	108	6
125	167	1
7	8	6
168	173	2
124	163	3
5	12	1
15	17	2
74	74	9
12	15	2
62	62	2
22	74	2
163	166	2
18	26	2
106	106	9
4	19	2
113	115	5
21	23	2
41	42	3
115	117	4
162	164	1
11	13	5
148	149	4
150	171	5
106	167	3
176	179	2
37	172	1
129	129	4
6	30	2
92	92	12
76	77	4
10	13	2
109	111	1
43	52	2
95	109	2
168	178	1
97	97	6
162	167	1
17	23	2
56	57	2
25	42	1
96	118	1
25	28	2
22	66	2
176	177	2
153	168	2
164	165	1
129	143	3
139	151	1
132	134	1
61	64	3
66	131	2
161	167	3
143	143	11
154	156	5
100	104	1
6	7	3
157	158	2
96	106	1
126	139	3
113	114	1
19	28	1
20	45	1
154	173	1
129	147	1
95	131	2
6	11	1
135	137	1
142	165	3
63	66	3
129	139	4
110	113	2
30	30	13
30	32	2
130	143	3
110	112	1
87	88	3
104	106	2
150	170	4
67	73	1
36	173	2
43	161	2
101	104	1
13	30	3
2	6	2
140	146	2
1	5	2
23	26	1
72	73	3
158	164	2
54	57	2
79	79	6
173	176	2
51	52	1
153	154	3
91	100	1
17	21	1
136	142	1
5	9	1
84	85	1
105	106	4
73	75	5
9	31	1
3	5	2
105	120	1
112	124	1
131	141	3
90	93	1
113	164	1
150	151	1
83	150	2
10	39	1
78	79	4
75	81	3
9	14	2
13	39	1
131	145	1
158	179	1
74	85	2
119	121	1
21	79	2
75	76	3
19	22	1
94	129	1
151	152	1
106	107	1
24	27	1
133	135	1
10	21	1
14	37	1
150	169	1
140	141	1
128	128	2
38	172	3
4	8	3
93	122	1
97	101	1
145	148	2
3	12	1
3	138	1
16	18	1
44	160	1
14	17	1
158	159	3
88	89	2
155	174	1
129	130	1
147	164	2
52	59	1
152	155	1
75	94	2
130	148	1
101	105	1
115	119	2
21	27	1
143	147	4
77	94	2
93	116	4
35	41	3
26	28	3
5	18	1
58	59	1
130	131	1
147	165	2
2	5	3
24	26	1
39	41	2
143	146	2
59	63	1
3	17	1
33	36	1
161	162	3
55	58	2
80	96	1
151	153	1
99	100	1
131	149	1
130	147	1
150	167	1
91	115	1
62	63	1
96	112	1
84	84	1
71	77	1
86	88	2
96	109	2
94	134	3
32	34	1
155	159	1
65	68	1
2	31	1
95	98	1
67	68	1
174	174	2
0	12	1
66	68	1
89	110	1
13	37	1
114	116	1
17	32	1
44	50	1
170	177	1
131	139	1
133	146	1
82	85	2
61	65	1
29	31	1
5	29	1
113	113	3
156	168	1
118	126	1
73	85	1
104	105	1
115	124	1
70	71	1
168	170	1
16	32	1
83	167	1
50	51	1
96	115	1
20	78	2
57	171	1
160	164	1
97	115	1
125	126	1
77	133	1
177	180	1
82	87	1
133	171	1
68	70	2
122	123	1
155	165	1
160	160	1
14	16	1
8	10	1
16	30	1
99	111	1
