67	67	2
134	135	5
5	5	6
89	92	5
40	88	2
143	143	4
177	177	7
18	58	3
168	170	2
148	148	2
65	67	4
163	163	1
17	17	1
139	139	4
135	135	1
130	130	4
19	19	2
116	116	10
24	24	7
108	109	7
36	36	4
104	125	5
103	103	10
109	109	2
6	6	6
98	98	4
189	189	5
48	71	7
147	147	4
145	145	8
56	56	4
154	154	3
149	149	6
176	176	3
35	35	2
28	29	5
112	112	11
122	122	7
57	59	2
98	112	4
125	125	9
10	10	3
139	153	3
100	101	2
56	65	5
186	186	4
107	107	7
138	139	1
109	132	2
31	31	6
16	16	3
68	68	1
157	157	10
46	60	4
141	175	1
26	26	2
169	170	3
151	151	1
45	45	4
18	23	2
113	113	4
60	60	4
166	184	2
141	144	5
100	123	5
78	80	2
183	183	2
182	182	1
74	74	2
121	121	2
5	8	1
10	21	5
58	58	2
159	160	4
97	119	2
78	78	2
168	168	3
167	167	5
131	131	4
142	144	1
106	107	5
90	90	2
120	120	3
22	22	7
12	12	3
23	23	6
54	54	5
101	101	1
181	181	2
183	187	5
83	83	7
37	37	8
80	80	2
178	180	2
68	110	2
180	180	3
171	171	3
65	65	2
124	124	9
43	43	3
25	25	3
163	165	7
119	119	5
185	186	4
86	86	2
74	76	1
107	108	1
127	146	1
143	144	1
84	84	2
161	164	3
97	105	5
77	77	2
123	123	4
84	113	4
93	93	1
109	110	2
102	103	1
93	94	4
53	54	1
55	55	4
83	84	5
31	33	4
137	137	2
96	97	2
78	116	5
28	32	1
159	161	2
17	21	3
145	147	1
40	40	1
79	79	2
78	79	2
130	133	1
28	28	1
127	127	2
185	185	1
187	187	3
72	72	8
126	128	6
149	154	2
141	141	3
161	162	1
85	85	1
42	42	4
46	47	3
150	150	1
154	156	3
3	3	1
84	85	3
54	55	1
92	94	1
152	152	1
30	30	1
153	153	5
88	88	7
8	10	2
87	90	1
184	184	2
19	20	1
165	180	2
43	56	1
91	92	1
186	187	1
53	53	6
188	188	7
174	175	2
89	89	1
108	145	1
75	76	1
77	78	2
159	159	3
6	53	1
39	39	1
88	89	1
10	12	1
30	31	1
90	91	1
175	176	2
43	44	2
111	112	1
99	99	1
1	1	1
78	117	2
114	114	2
21	34	2
180	181	2
54	69	1
134	134	1
121	124	1
20	20	2
170	170	1
33	34	1
31	32	1
145	184	1
96	98	1
91	91	1
84	92	1
163	164	1
179	179	1
13	13	1
137	139	1
