72	72	15
58	58	28
71	72	8
97	115	2
91	91	20
27	27	46
7	7	32
54	54	35
68	69	11
111	112	12
52	52	48
126	129	1
120	131	12
109	109	31
44	62	2
121	132	11
32	86	1
4	41	2
52	54	4
32	61	3
106	106	12
45	45	31
94	94	42
41	42	13
81	82	4
114	114	23
3	4	6
95	96	13
113	113	28
122	122	25
108	126	1
119	120	5
47	47	29
18	22	2
76	76	17
48	48	42
86	86	22
16	18	7
21	21	25
1	18	5
125	125	27
104	106	3
10	10	38
110	111	19
29	31	6
119	119	37
128	128	27
85	85	26
26	26	24
43	43	16
85	86	8
69	83	2
70	70	25
120	120	29
50	50	21
27	28	3
70	71	14
41	41	7
127	128	9
117	117	22
19	19	32
71	71	22
28	86	3
116	116	21
103	103	24
26	27	9
97	97	18
90	90	15
11	12	12
0	0	23
47	54	4
91	121	2
46	46	37
101	101	24
75	75	9
104	109	1
119	130	6
96	96	33
89	89	20
22	22	6
25	25	5
51	52	8
39	63	4
126	126	20
76	77	8
9	9	17
87	87	21
57	57	26
8	8	18
121	121	25
65	65	18
118	130	4
11	11	20
63	63	25
33	34	10
7	8	5
126	133	1
102	102	33
115	115	21
102	113	2
124	124	11
16	20	2
54	123	2
30	30	20
32	63	3
39	42	4
16	21	1
123	123	37
3	5	7
84	84	27
32	32	24
24	24	5
120	130	4
39	40	10
84	85	16
110	110	39
85	88	2
101	102	14
97	98	16
14	14	11
121	124	4
130	130	19
132	132	12
47	50	1
69	70	4
127	127	13
2	2	29
79	79	22
28	28	18
45	47	5
98	100	1
98	98	23
85	87	3
3	11	1
2	6	5
100	101	8
8	10	1
60	60	11
20	20	16
107	107	9
31	31	25
88	95	3
15	16	9
55	55	32
81	81	15
63	64	13
112	112	26
31	32	3
43	44	9
126	128	5
100	100	6
123	124	3
104	104	22
64	65	5
47	52	2
48	50	4
63	91	4
64	64	32
53	53	39
83	83	9
68	71	4
118	119	3
18	21	5
125	133	3
19	20	9
79	80	6
97	117	4
129	129	14
104	117	1
124	125	8
118	131	2
19	21	11
81	105	3
108	108	24
23	23	11
95	95	35
13	14	6
1	2	11
108	109	5
78	78	14
119	128	4
59	59	16
28	87	2
102	103	22
68	68	35
65	67	2
51	51	43
93	94	8
39	39	24
125	126	3
21	24	15
121	123	2
103	104	10
28	29	5
88	89	7
126	130	3
0	1	5
49	49	48
67	67	11
5	6	2
80	81	6
17	18	14
74	128	2
118	118	10
82	84	2
113	116	6
102	118	1
133	133	24
13	38	2
13	13	21
38	39	21
1	1	23
55	56	9
126	127	7
56	57	6
2	14	2
70	94	3
55	63	1
68	83	3
72	73	6
111	111	27
56	56	24
107	130	5
75	78	3
15	18	3
77	77	22
66	66	6
104	105	23
91	92	9
2	3	15
5	5	22
61	62	7
44	56	2
60	62	5
10	11	18
114	119	2
96	97	6
38	38	10
45	46	7
92	92	26
4	10	5
114	115	1
52	53	30
40	40	22
27	30	1
33	61	2
46	47	5
85	94	2
67	68	11
109	130	3
80	80	15
80	90	2
40	41	6
16	16	7
61	61	10
50	51	24
33	84	1
73	74	6
125	129	4
6	6	38
46	48	3
84	89	3
17	25	2
42	43	6
48	49	12
113	114	6
122	123	6
105	106	8
82	83	4
112	117	1
115	116	11
23	25	3
14	15	5
62	62	21
88	112	3
9	11	4
56	106	2
84	88	2
69	69	15
6	7	8
84	93	3
82	82	9
88	108	3
74	129	2
16	17	4
88	88	21
107	114	2
83	84	11
74	75	4
102	104	2
25	26	4
14	39	1
13	31	1
131	131	16
121	122	5
10	19	2
47	48	9
3	6	3
60	61	4
116	118	4
6	9	2
53	55	1
39	64	4
78	80	2
29	30	18
15	15	16
86	112	6
105	105	21
116	117	12
99	104	6
42	42	17
77	78	9
13	113	3
18	18	11
40	62	2
34	55	2
3	3	10
110	132	2
62	63	4
76	94	3
72	74	1
96	102	2
13	108	5
75	131	1
103	113	1
92	93	5
9	10	12
27	49	2
105	115	2
54	108	1
89	90	13
26	38	1
49	50	11
77	120	2
29	29	19
53	123	3
53	54	6
18	19	6
129	131	1
20	21	3
21	23	3
54	55	7
85	90	1
103	114	3
96	101	4
8	9	7
99	99	22
4	4	15
99	101	3
39	44	3
76	131	7
82	130	2
113	120	1
93	93	18
17	39	4
11	32	1
80	91	1
63	65	6
32	33	9
120	121	6
106	113	6
100	103	1
113	115	3
101	104	1
22	23	3
28	121	4
106	118	2
58	59	2
23	34	4
24	27	1
19	22	4
15	17	2
109	124	2
68	84	3
31	50	1
55	108	2
96	98	2
44	52	4
103	108	4
109	110	6
19	108	2
58	65	2
33	33	13
86	87	6
22	25	3
21	25	2
73	126	2
125	127	2
21	22	2
124	131	2
80	82	2
42	62	1
86	92	2
128	129	2
80	98	1
13	109	1
85	116	2
106	108	4
39	41	1
47	51	1
49	52	4
30	86	1
70	72	3
95	105	3
109	111	2
47	62	2
80	112	1
71	94	1
73	73	7
86	88	3
41	106	2
95	106	2
94	95	7
57	58	5
1	15	2
27	29	4
12	20	1
74	74	6
55	107	3
97	114	1
74	125	5
68	72	4
106	109	4
17	17	7
97	125	1
45	55	1
73	75	2
2	10	3
2	34	1
75	76	7
54	58	1
124	132	2
66	67	2
52	57	2
105	118	2
110	122	3
80	105	1
83	93	1
27	46	1
68	73	2
92	123	1
18	115	1
95	113	3
98	99	7
105	117	1
94	110	2
112	113	4
65	79	1
20	30	1
11	86	2
12	12	17
72	82	2
13	112	1
48	52	1
91	116	6
79	86	2
32	34	1
10	31	1
23	55	1
98	117	1
81	129	3
101	114	4
74	78	4
44	44	8
1	14	6
13	15	2
30	32	1
31	87	2
129	130	2
11	112	1
89	92	3
77	119	3
125	131	2
28	50	3
99	100	7
66	83	1
13	17	1
106	107	3
103	127	2
48	51	1
24	25	1
68	70	2
34	38	1
54	92	2
85	93	1
16	42	2
44	47	2
53	56	1
117	118	4
102	119	1
130	131	3
11	29	4
46	51	2
79	119	1
11	52	2
102	105	2
98	128	1
83	87	6
112	116	2
108	125	1
4	5	2
46	49	2
29	65	2
119	129	2
75	94	1
112	122	3
40	43	4
29	67	2
45	56	1
16	25	1
26	31	3
60	64	2
2	13	1
30	31	3
52	55	4
34	41	1
18	41	2
77	97	2
74	79	3
81	130	1
15	115	3
7	9	2
107	108	1
31	63	1
125	132	1
19	24	3
87	88	6
97	100	1
115	117	1
0	3	1
120	122	1
78	79	4
90	120	1
34	34	1
101	118	3
100	104	2
20	105	2
103	107	1
117	131	3
97	101	5
58	71	3
50	54	1
93	95	2
11	28	2
128	130	2
108	127	2
73	80	3
53	108	2
23	24	3
3	58	1
33	62	2
16	31	1
22	79	1
118	123	2
81	104	1
13	18	1
57	59	1
4	42	1
132	133	1
83	85	1
62	64	2
6	116	2
91	94	2
120	132	1
79	97	1
43	55	1
39	43	2
79	90	1
78	82	3
58	69	2
89	91	1
27	111	1
32	54	1
30	92	2
18	20	1
50	55	1
66	68	1
96	126	1
90	92	1
120	125	1
59	60	2
5	57	2
17	103	3
81	83	1
85	89	1
54	105	1
51	53	1
12	26	1
91	93	1
95	121	2
34	56	1
13	19	1
72	77	1
42	61	1
40	42	1
95	116	1
74	127	1
63	90	1
102	106	1
61	63	1
119	131	1
71	82	1
20	24	1
15	108	2
109	115	1
18	103	1
115	120	3
38	60	1
122	129	1
33	39	2
96	103	1
120	129	1
33	55	1
56	108	1
81	109	1
12	13	1
127	129	2
95	101	1
73	82	1
19	44	1
60	63	1
40	63	1
28	110	1
47	49	2
2	5	1
2	4	1
79	87	1
100	118	1
93	96	1
108	130	2
20	23	2
3	7	1
26	43	1
60	65	1
100	102	2
96	99	2
56	90	1
54	69	2
65	66	2
1	3	2
69	71	1
5	41	1
112	121	1
18	28	1
3	20	1
19	25	1
20	27	1
54	68	1
113	121	1
14	108	1
12	32	1
19	47	1
26	50	1
26	109	1
74	130	1
48	53	1
6	118	1
