38	38	7
154	154	4
211	211	6
150	151	7
138	139	4
56	56	7
221	221	10
171	172	3
102	102	14
70	120	6
175	175	4
126	126	5
204	206	2
73	120	1
161	161	6
0	0	14
40	40	17
199	200	6
53	54	9
116	118	1
100	100	17
54	56	4
202	207	4
155	179	1
6	6	10
177	177	21
4	4	11
115	116	2
82	84	3
164	164	5
19	19	22
210	210	11
163	163	5
215	238	1
77	88	3
168	168	6
217	227	3
85	102	1
57	57	13
78	85	2
106	106	5
74	121	3
5	6	2
69	69	25
71	71	11
75	75	10
177	180	6
165	169	3
96	97	5
12	13	11
207	208	4
114	114	12
173	173	14
176	176	10
66	107	5
26	26	10
239	240	7
20	21	3
44	44	14
199	199	10
46	48	1
166	166	1
231	238	2
58	61	3
223	223	12
1	198	5
153	161	1
31	31	10
53	53	4
218	218	4
24	25	5
62	64	7
7	12	2
226	226	7
122	122	5
73	73	15
178	178	6
170	170	5
134	135	2
233	233	10
19	20	5
225	226	2
86	86	11
29	29	11
79	82	1
38	82	3
34	36	2
205	206	2
61	61	6
35	35	11
62	62	10
116	116	5
209	209	6
57	81	2
137	138	3
189	189	17
47	152	2
56	58	3
184	224	5
68	68	6
21	22	6
72	72	14
159	160	4
227	228	1
136	137	4
164	165	5
19	30	1
126	127	2
206	230	3
195	199	1
124	127	2
144	146	5
27	27	13
205	205	3
109	114	2
67	70	5
160	160	5
194	194	9
30	30	4
45	46	4
37	37	3
21	21	7
74	74	5
187	188	8
172	172	7
64	71	4
58	58	2
137	139	2
66	120	1
66	67	2
173	174	2
109	110	4
17	17	2
216	220	6
13	13	4
212	212	12
137	137	12
216	223	1
153	239	4
39	39	18
238	238	5
111	113	2
10	11	2
128	128	14
84	85	5
171	171	9
16	16	14
11	11	11
31	32	5
84	102	3
31	34	1
26	27	4
201	202	3
2	17	3
20	20	15
23	23	15
217	217	10
187	187	3
74	89	2
226	227	7
107	107	3
201	201	12
120	121	1
80	81	6
181	181	6
219	238	5
139	142	2
214	215	6
180	180	6
155	155	6
206	206	1
139	139	3
31	46	1
193	195	5
203	224	2
33	33	11
101	113	3
172	173	4
76	76	7
67	67	18
181	207	6
7	7	3
236	236	3
232	238	3
33	34	2
43	58	4
217	219	2
18	19	3
25	25	11
138	138	1
240	241	6
206	207	4
220	221	5
22	22	7
84	84	8
9	10	3
159	159	7
101	102	3
213	228	6
5	5	6
20	23	2
80	80	6
25	26	1
49	50	3
76	77	5
101	101	6
99	101	2
40	124	2
28	28	17
3	62	3
117	117	6
54	55	1
145	147	2
85	86	6
79	79	1
65	67	6
161	167	1
163	191	3
127	127	6
48	48	10
6	212	4
34	37	1
42	42	1
182	183	3
4	221	1
185	186	10
6	9	2
24	157	2
235	235	9
174	176	2
12	12	15
34	35	7
109	113	4
10	10	19
221	222	4
52	52	5
202	202	2
176	177	4
230	237	4
198	205	2
41	42	6
82	82	7
2	19	2
17	18	2
203	227	3
21	31	3
0	11	3
182	182	5
8	9	3
160	161	3
220	220	4
219	219	9
55	55	6
31	36	3
85	85	16
66	103	3
13	18	1
2	3	3
185	185	1
193	196	2
170	218	2
150	150	7
47	62	1
225	225	6
64	64	4
142	142	1
15	16	9
216	216	5
104	105	2
229	230	2
186	203	1
202	208	1
134	134	2
210	212	4
133	134	7
17	19	3
23	24	2
52	164	5
1	1	4
6	7	2
213	214	4
20	43	5
132	134	3
0	15	2
79	80	8
2	6	1
115	115	2
175	217	1
135	136	1
175	177	1
44	173	3
43	61	2
97	97	2
150	153	1
234	238	2
69	71	1
190	216	1
11	24	2
70	71	4
146	146	5
101	104	2
60	61	9
154	171	2
193	194	4
125	127	2
200	210	3
102	103	2
59	59	9
181	182	1
77	78	3
151	152	8
174	174	8
61	170	4
224	224	10
8	8	10
238	239	5
241	242	2
67	134	2
48	58	1
99	99	5
75	129	4
84	101	3
54	54	4
11	23	2
34	34	9
137	143	1
223	237	3
213	218	4
0	19	1
204	204	3
239	239	5
62	63	4
11	15	1
139	141	2
134	136	4
77	77	5
195	196	2
231	231	3
98	99	5
238	241	2
222	222	7
139	143	2
63	64	3
29	30	3
23	30	1
105	105	2
193	193	2
159	165	2
219	220	2
7	8	2
183	225	4
92	107	1
184	203	1
36	38	3
203	235	2
168	169	1
66	119	3
174	191	1
119	119	4
88	106	4
128	150	2
47	70	2
113	136	3
198	203	1
49	49	17
211	213	3
133	133	5
50	84	5
191	191	5
198	198	3
118	119	3
103	103	2
71	122	2
170	174	1
69	120	1
75	79	3
104	104	6
27	28	1
151	151	2
71	142	1
232	232	2
223	225	4
36	36	4
41	141	2
21	53	1
74	139	3
61	73	2
118	118	2
66	66	9
3	8	2
144	144	4
236	237	3
43	43	1
179	179	1
37	38	4
161	162	1
197	197	7
30	32	1
156	157	3
56	60	2
59	60	1
181	187	4
166	193	1
22	23	2
213	223	3
228	229	4
46	46	6
123	123	4
63	63	4
10	55	3
20	22	1
78	79	2
15	25	2
141	141	5
158	159	2
109	109	4
153	153	7
74	75	2
183	184	1
129	129	3
220	238	3
144	188	3
47	47	5
68	103	1
0	23	1
240	240	9
152	154	1
45	182	3
89	89	2
25	63	5
125	125	5
52	53	2
78	80	2
143	143	2
44	45	12
73	112	3
3	3	4
83	83	11
162	162	2
29	31	3
21	23	1
50	50	2
39	61	4
145	151	4
9	9	3
131	131	2
165	165	4
3	9	2
41	41	3
96	96	1
46	70	1
180	181	2
95	95	4
231	232	3
229	237	2
9	29	3
42	50	2
111	111	3
212	214	1
144	187	2
79	84	3
202	232	1
79	81	3
120	120	4
83	84	3
123	125	1
70	70	5
190	195	1
23	29	2
73	99	1
135	135	6
61	63	1
97	109	3
121	124	2
234	234	3
197	223	1
36	105	4
165	166	1
129	130	5
142	143	1
39	41	1
36	50	1
2	104	1
148	148	3
196	232	1
0	162	2
207	207	4
24	24	5
214	214	3
40	41	3
55	60	3
14	14	2
202	204	1
177	178	3
11	175	2
80	84	2
2	199	2
46	54	1
154	155	2
55	67	1
208	208	4
130	131	3
12	14	1
55	86	1
81	84	2
42	45	1
105	106	2
65	66	2
2	8	1
32	33	2
10	47	1
196	196	2
16	17	3
18	215	1
223	224	1
188	188	2
189	190	2
190	190	5
36	39	3
242	242	7
76	81	3
60	60	2
130	130	1
177	209	1
48	52	2
47	48	4
140	140	2
200	200	5
167	167	1
67	68	3
213	213	2
74	114	2
50	115	3
20	54	1
170	171	2
192	193	5
136	136	2
202	210	1
133	148	1
153	154	2
237	237	2
165	195	1
186	186	1
153	155	1
18	18	1
175	176	1
65	180	2
177	223	2
95	101	2
154	170	3
30	31	1
189	221	2
227	227	6
48	49	1
23	156	1
113	114	1
209	210	3
216	217	4
125	129	1
86	102	4
201	203	2
36	220	2
234	235	1
49	51	2
229	229	1
179	180	5
32	32	5
68	69	1
20	24	1
169	169	1
147	148	2
122	123	2
47	61	2
21	159	1
71	127	1
55	56	2
205	207	2
195	195	3
108	108	2
15	15	2
117	125	1
65	65	2
36	51	1
131	132	1
122	125	3
40	121	2
137	149	1
71	73	1
209	216	2
51	57	2
23	34	2
97	110	1
143	161	3
42	74	1
47	240	4
48	68	1
63	121	1
65	68	2
3	28	1
73	128	1
203	203	2
238	240	3
196	197	1
0	1	1
66	100	1
178	209	1
80	83	3
191	197	1
60	66	1
112	112	2
191	192	2
29	32	2
134	140	1
154	158	1
3	237	1
0	12	1
29	79	1
178	183	1
0	16	2
35	36	2
31	33	1
188	189	2
121	122	1
232	237	1
18	20	1
95	96	1
230	231	1
141	143	2
96	101	1
215	215	1
232	234	1
216	224	1
145	187	2
175	183	1
175	216	1
36	129	1
1	12	1
32	35	1
38	70	1
78	78	2
0	33	1
43	52	1
101	149	2
69	101	2
113	113	3
10	164	1
65	96	1
98	98	2
121	121	1
219	236	1
80	85	1
67	119	2
20	133	1
45	45	1
183	218	1
76	80	1
149	150	1
99	100	1
129	167	1
145	149	1
4	100	1
157	157	1
241	241	1
14	15	1
40	54	1
54	82	1
3	12	1
16	21	1
217	218	1
2	2	1
4	23	1
