103	103	7
40	40	6
22	22	9
74	74	8
46	47	3
93	94	3
70	71	1
70	70	13
91	91	9
57	57	13
95	95	6
34	34	5
73	73	4
66	66	12
27	31	1
25	25	8
50	52	3
106	106	5
21	21	12
23	44	3
62	62	6
97	99	3
85	88	2
40	44	4
53	54	4
38	38	2
49	50	2
43	43	11
60	60	7
76	76	9
52	54	3
25	29	1
54	55	5
90	91	2
63	63	8
75	76	2
26	81	1
83	83	14
81	81	5
78	79	1
35	35	6
41	41	1
78	99	1
54	54	7
78	78	12
39	39	8
89	89	6
82	96	3
99	99	5
56	56	5
36	36	8
83	85	6
51	51	4
98	98	6
34	35	1
33	34	3
28	28	6
44	45	5
89	90	4
101	101	6
88	88	4
33	33	6
47	48	2
67	67	4
97	98	8
49	49	4
84	87	1
64	64	6
71	71	3
83	87	8
23	30	3
97	97	9
41	42	2
85	85	1
68	68	9
27	27	3
31	31	11
24	24	8
26	26	12
80	80	2
86	86	3
44	44	4
93	95	2
43	44	1
58	58	3
87	87	6
65	71	3
32	32	7
105	105	3
26	30	1
49	99	4
48	49	2
52	52	7
96	96	4
70	78	2
42	42	4
31	32	1
71	72	2
76	77	2
87	88	2
70	76	1
35	105	4
84	84	3
82	82	2
58	61	1
50	50	4
72	73	3
102	103	1
27	28	3
73	89	1
90	90	3
55	55	5
68	69	2
61	70	4
60	61	6
83	84	3
48	83	1
94	94	6
29	29	5
74	75	3
64	69	4
29	30	3
94	95	1
37	37	2
77	77	3
85	91	1
23	26	1
81	83	2
60	107	3
49	55	1
87	95	2
22	34	1
93	93	5
53	53	3
85	86	1
32	103	1
20	44	3
65	65	4
78	80	2
71	73	4
61	61	5
24	78	1
25	57	2
39	47	1
82	83	6
42	45	1
41	45	3
28	57	1
100	100	5
48	48	2
84	85	1
72	72	2
102	102	2
32	33	1
59	60	2
75	75	2
85	87	3
48	87	1
50	51	2
107	107	1
24	31	1
92	92	2
74	106	1
40	45	1
64	103	1
96	99	4
45	45	2
103	104	2
24	76	1
69	69	3
51	52	4
24	50	1
39	42	1
49	84	1
30	30	2
104	104	3
51	100	1
20	21	3
66	86	1
36	58	2
80	81	1
62	63	1
40	56	1
65	81	1
26	27	2
104	105	1
32	100	1
47	47	2
49	60	1
63	69	1
98	99	1
46	57	1
60	105	1
