27	27	17
11	11	18
20	20	10
32	32	8
127	129	2
25	25	17
116	129	4
71	71	10
108	114	3
129	129	13
7	7	12
70	70	7
38	38	19
118	118	7
65	66	5
95	95	9
49	49	9
0	0	15
27	39	2
51	53	2
60	61	12
44	44	10
107	109	2
87	87	2
117	117	10
5	5	9
93	93	9
50	50	15
133	133	7
72	99	3
85	86	3
61	61	9
71	72	10
18	19	8
127	127	11
97	98	4
63	110	2
125	127	2
125	125	16
70	76	1
29	29	15
129	130	11
62	83	3
106	106	15
67	68	9
40	133	4
7	51	7
46	46	22
6	6	16
16	17	7
19	20	2
92	92	22
83	83	16
73	98	4
12	45	3
101	101	14
79	80	4
128	128	17
64	93	2
72	72	4
4	39	1
42	78	4
71	74	1
85	85	8
6	18	3
100	115	3
78	87	2
50	51	10
122	122	22
3	56	1
112	112	12
48	48	23
22	22	11
118	119	9
25	54	1
123	123	8
121	121	15
42	42	12
46	47	6
18	21	6
91	113	1
11	13	9
113	113	5
109	109	14
110	110	5
86	87	7
4	5	4
75	76	10
97	97	9
90	131	3
105	107	3
107	107	10
98	105	2
65	69	3
116	116	7
115	115	16
21	21	12
13	14	2
124	124	7
54	54	13
57	115	3
60	60	7
66	66	6
99	103	2
1	1	15
65	93	1
51	51	13
77	78	6
17	17	16
55	103	1
55	55	7
43	43	8
19	21	2
130	130	9
74	86	3
5	14	3
82	82	12
20	21	4
10	10	17
58	58	11
0	1	5
9	11	1
1	2	1
132	132	4
41	126	2
79	81	3
47	47	12
82	83	3
67	67	13
104	104	5
13	25	1
122	123	4
54	123	3
3	5	5
107	114	4
53	54	2
9	9	5
69	105	3
29	30	6
64	64	9
97	100	1
3	3	11
108	108	7
77	77	11
119	126	1
56	56	12
126	130	3
11	12	4
19	19	11
62	62	4
100	100	11
42	98	4
88	89	7
62	67	1
28	28	7
126	127	4
23	24	3
89	89	11
120	125	2
92	120	1
23	30	2
47	54	1
125	126	5
78	78	12
86	86	8
106	109	3
83	97	2
9	21	3
87	88	3
126	126	10
4	10	1
74	84	4
17	21	2
84	84	11
20	72	2
119	119	12
43	44	7
115	116	3
60	62	1
40	41	1
30	30	24
77	96	2
95	96	4
32	47	2
107	129	2
81	97	9
53	115	4
14	14	18
99	100	13
100	101	4
48	124	5
45	131	2
48	112	2
76	76	12
117	118	7
43	81	3
70	80	1
39	39	9
8	8	10
49	112	2
94	94	11
75	75	22
53	53	16
12	42	3
117	119	4
69	69	7
73	75	4
39	40	6
85	88	2
12	12	17
83	84	6
105	110	1
57	57	13
78	98	2
102	102	11
50	53	2
96	96	3
74	74	3
3	4	5
86	88	9
81	81	13
70	71	9
67	96	3
108	109	7
111	124	2
72	79	4
82	87	2
69	70	4
105	105	13
18	54	1
66	70	1
17	18	1
48	52	6
64	119	1
22	23	3
48	131	1
3	33	2
105	111	3
58	59	1
115	117	3
67	119	6
54	55	5
57	58	1
64	94	1
33	65	1
69	113	1
73	74	1
100	104	1
27	29	6
47	55	4
78	80	2
66	71	2
73	73	15
89	91	2
75	79	6
93	102	2
74	119	7
125	128	6
40	45	2
18	18	11
72	81	2
55	58	1
66	113	1
98	99	1
26	26	10
61	64	4
2	2	10
78	85	2
127	131	2
60	91	2
23	23	5
91	91	5
2	65	1
15	15	13
116	117	2
13	13	13
45	45	4
23	33	1
51	52	11
99	99	8
34	34	5
33	63	2
48	111	3
128	129	4
114	119	4
41	42	5
130	131	3
3	17	5
5	16	3
128	130	1
42	56	3
120	120	14
100	108	1
4	4	8
114	129	10
107	108	2
13	21	2
26	86	1
57	68	5
41	45	4
65	65	9
90	91	8
23	34	5
33	44	2
127	128	3
106	107	5
107	123	1
114	118	1
96	97	2
27	32	2
113	118	2
3	7	1
15	22	1
5	33	1
80	96	2
98	98	3
74	75	1
6	132	1
106	122	3
41	41	9
72	73	4
114	114	14
47	56	3
54	131	1
88	88	10
17	41	1
74	121	1
118	120	1
21	22	3
44	72	1
48	53	3
102	108	1
90	93	1
0	13	2
80	89	1
110	116	1
42	44	1
131	131	1
33	74	2
4	29	3
14	15	2
13	45	2
44	45	5
55	56	3
41	78	1
13	19	2
63	63	7
39	70	2
116	118	5
115	119	3
84	85	7
80	80	1
15	17	3
19	26	1
105	106	5
16	16	6
71	78	1
23	41	1
69	76	2
10	13	1
15	23	2
127	130	2
71	81	6
59	62	4
48	132	1
64	70	2
68	72	5
6	7	2
7	15	4
6	46	3
1	5	2
39	86	2
33	49	1
110	111	4
99	102	3
67	117	1
52	52	6
111	111	2
31	42	3
10	19	2
33	33	5
41	59	4
101	102	4
101	103	3
94	95	3
47	121	1
108	130	1
60	66	3
110	124	4
98	118	1
103	103	5
23	47	2
10	11	2
73	104	2
42	43	2
117	126	2
1	9	1
8	10	1
126	131	2
124	125	7
113	114	3
125	129	2
79	79	3
118	129	2
22	29	1
39	68	2
31	39	1
92	93	2
65	113	1
10	16	1
17	28	2
46	127	1
4	11	5
90	97	2
58	72	1
112	113	2
68	76	1
117	129	1
48	110	1
55	99	1
72	74	4
0	11	1
85	121	1
111	113	1
59	59	4
89	90	3
46	85	1
91	92	1
0	52	3
2	3	3
72	75	4
112	119	1
76	118	1
86	89	1
17	29	4
1	27	3
128	131	1
31	31	3
25	26	2
89	125	1
68	122	1
113	115	2
4	6	1
42	45	2
75	97	1
131	132	4
64	65	2
52	110	2
48	109	1
40	40	1
79	102	2
90	90	6
94	113	2
52	53	1
68	68	1
43	46	1
104	107	4
93	94	1
50	52	2
98	102	1
17	67	2
58	68	1
7	17	1
4	117	3
23	44	2
40	44	2
15	21	1
24	24	3
46	113	1
14	20	1
39	71	1
120	123	1
75	85	3
80	81	5
32	44	1
5	8	1
75	106	2
75	86	2
49	110	1
26	53	1
25	34	1
49	51	2
68	113	1
38	40	1
15	18	1
59	85	4
32	33	3
10	14	1
7	73	1
101	127	1
120	121	5
107	116	1
14	27	1
68	103	1
41	46	1
13	39	2
78	79	2
34	96	2
14	40	1
94	109	1
2	4	2
43	55	1
23	25	1
98	117	1
55	108	2
66	67	4
34	97	1
37	45	1
63	94	1
34	98	1
1	51	1
117	125	1
26	104	3
31	32	1
68	96	1
98	110	2
68	124	1
76	116	1
54	56	1
71	106	1
67	98	1
99	116	3
57	63	1
111	112	1
97	103	2
60	65	1
12	13	1
34	65	2
4	41	1
129	131	1
27	28	1
5	18	1
59	72	1
25	95	1
60	69	1
80	82	2
110	114	2
26	27	1
125	132	1
66	68	1
8	9	1
14	17	1
83	86	1
48	54	1
7	12	1
16	43	1
109	112	1
76	100	1
40	70	1
