85	85	9
38	38	21
83	83	14
46	46	14
55	55	18
89	90	3
43	43	12
50	52	4
93	94	9
76	76	16
62	64	2
95	96	12
26	28	2
41	66	1
101	101	25
44	44	5
96	96	13
70	70	24
43	44	2
91	92	7
78	78	5
46	72	2
67	68	4
96	97	7
99	99	12
99	100	5
41	41	27
100	100	11
90	90	12
51	65	2
37	37	4
102	102	10
24	25	1
74	75	1
34	39	2
47	48	6
35	95	4
83	84	17
48	48	15
82	97	2
50	51	9
63	63	13
82	82	5
95	95	9
74	74	18
24	54	1
37	95	2
67	67	7
64	64	23
30	30	4
42	42	8
75	75	23
61	62	20
59	59	12
66	66	9
49	49	7
56	56	22
72	72	15
40	40	9
61	61	8
69	70	9
60	60	32
36	36	2
52	52	12
79	80	16
81	81	14
53	53	8
51	51	18
59	62	1
80	80	10
25	54	1
94	94	13
68	68	27
86	86	19
38	83	8
87	87	3
50	50	16
58	69	3
62	62	23
97	98	16
58	58	7
73	73	26
88	88	25
27	30	3
32	46	2
76	77	3
89	89	11
29	29	12
98	98	5
46	47	8
80	100	2
24	24	10
57	64	3
33	33	14
41	50	4
68	101	1
24	52	3
90	91	1
58	62	4
96	98	8
65	68	2
27	28	5
26	46	3
93	93	7
97	97	9
60	61	8
84	84	8
82	83	1
72	76	1
92	94	3
92	92	16
36	38	2
22	22	7
79	86	2
54	54	15
71	79	1
39	39	6
53	55	3
54	55	13
94	96	6
47	47	4
45	46	4
85	91	2
25	25	4
86	88	2
45	54	1
27	27	7
35	35	3
48	50	1
48	49	3
24	47	3
23	24	1
69	69	11
50	56	1
45	74	3
42	43	6
89	96	3
56	79	1
56	62	1
27	29	3
85	90	1
61	102	1
94	99	2
49	57	3
55	100	6
89	98	3
36	37	5
65	65	16
55	56	2
95	101	3
22	61	1
81	97	3
68	69	9
40	41	4
53	54	1
51	52	2
79	79	6
31	55	1
24	26	1
44	45	1
56	57	5
22	34	3
45	72	2
35	36	5
94	97	1
52	53	3
80	81	8
20	20	2
32	34	2
31	31	2
71	78	2
85	92	1
43	102	2
60	62	3
47	71	1
77	77	14
55	82	1
82	89	2
83	85	3
35	37	3
57	57	9
34	34	4
25	46	2
81	86	3
28	28	5
50	71	1
87	98	2
85	89	2
86	92	1
25	26	1
63	64	3
85	88	1
47	49	3
70	71	1
45	45	4
73	74	1
52	81	1
86	89	3
51	55	4
96	100	1
52	57	2
57	65	3
45	52	1
58	101	2
85	86	5
71	71	3
101	102	2
85	87	1
91	93	1
71	73	1
79	100	1
49	56	3
72	73	1
31	52	1
25	47	2
55	99	1
93	95	4
52	63	1
20	22	1
39	48	2
87	88	1
38	94	2
39	40	2
46	54	2
91	91	1
26	27	1
90	99	1
31	34	2
34	35	1
81	82	2
38	40	2
41	49	2
80	90	1
47	70	2
78	79	1
71	72	1
38	39	2
65	66	1
79	83	1
54	57	1
64	65	1
48	51	1
25	28	2
48	102	1
77	78	1
34	40	1
79	95	2
26	54	2
26	26	1
51	54	2
62	66	1
57	60	1
79	102	1
45	48	1
24	27	2
52	56	1
90	92	2
80	102	1
20	33	1
49	51	2
31	32	1
88	89	1
21	26	1
33	38	1
66	67	1
57	62	1
98	99	1
40	83	1
36	98	1
37	83	1
