192	192	3
90	90	2
17	19	1
5	5	7
151	151	6
172	173	4
41	41	2
165	165	7
46	46	8
141	141	8
37	37	5
68	75	2
177	177	3
61	61	1
107	152	3
4	27	5
11	11	7
160	161	4
164	167	4
127	127	4
9	17	1
173	173	4
150	150	7
157	158	1
134	134	4
169	170	4
147	147	7
1	184	2
0	1	3
161	164	2
33	44	1
148	149	3
173	174	6
28	28	9
190	192	3
10	14	9
49	49	8
114	114	4
101	147	2
167	167	4
29	29	10
54	64	1
149	149	7
89	89	5
196	196	15
149	175	1
102	103	5
197	197	11
79	80	2
120	121	1
116	117	1
180	180	8
187	187	3
170	197	4
56	56	8
186	186	11
24	24	14
9	9	6
128	129	1
77	78	3
142	150	1
123	123	7
136	136	3
175	175	5
18	18	4
72	73	1
106	107	3
157	157	7
55	55	14
1	130	11
189	189	3
4	8	2
70	70	3
140	140	10
6	88	2
8	8	1
34	34	5
163	166	7
133	133	1
143	143	3
53	72	2
121	164	2
11	114	4
48	48	4
141	142	3
183	183	12
48	49	6
190	190	4
135	136	6
183	184	1
178	185	1
12	12	3
54	55	2
154	176	3
171	180	3
95	103	1
160	177	2
14	51	2
39	40	5
124	124	14
36	36	4
42	43	1
119	120	2
2	4	2
8	75	3
104	104	7
19	60	3
178	178	3
164	164	4
141	145	2
154	182	1
77	81	1
170	170	6
98	117	7
20	59	3
59	59	3
140	144	2
168	168	10
45	46	7
126	126	7
59	76	3
121	140	5
155	155	9
144	152	1
115	143	4
36	37	1
85	85	6
149	158	2
185	185	6
80	80	3
86	87	1
7	75	1
178	179	3
184	184	7
57	57	2
2	2	4
160	170	2
122	122	2
102	102	7
186	192	1
143	153	2
93	104	4
5	74	3
69	69	7
96	97	2
32	42	2
28	29	7
68	71	2
152	185	3
78	78	1
13	50	1
110	151	3
181	182	2
154	173	4
21	21	4
82	83	4
99	117	2
163	165	2
188	189	4
133	149	5
193	193	5
116	116	7
158	158	5
154	168	2
170	171	5
120	122	2
3	3	7
181	181	9
154	154	9
107	153	2
169	169	2
156	157	1
113	113	6
30	30	4
40	40	7
127	128	2
167	171	3
13	187	2
176	177	2
109	109	6
171	171	8
114	118	3
68	68	3
74	116	3
142	143	3
162	162	2
134	158	1
73	73	10
133	156	2
100	122	2
160	160	7
25	27	3
71	72	1
3	28	3
14	187	4
177	179	2
54	54	4
156	156	6
164	181	4
180	185	4
134	156	2
11	37	1
34	35	6
166	166	2
181	183	5
111	111	3
1	41	2
47	47	10
25	25	2
169	187	4
174	176	2
172	176	2
58	66	1
121	121	2
66	73	6
188	190	2
165	170	2
40	58	2
2	37	2
22	22	2
39	39	3
139	139	1
168	179	1
44	44	3
109	154	1
142	142	4
42	45	2
69	71	1
88	88	4
179	193	3
167	169	3
23	23	4
138	138	3
101	113	2
31	31	1
116	135	3
114	115	1
84	84	6
172	172	5
18	22	3
34	36	5
121	158	3
47	52	4
83	83	3
77	80	5
194	194	7
97	98	4
14	14	1
11	14	1
64	73	1
74	106	3
105	106	3
9	37	5
179	180	3
108	109	2
94	94	4
119	119	2
86	103	2
53	57	3
50	50	1
11	69	1
152	152	2
62	62	5
163	163	5
27	28	1
26	35	4
118	118	1
27	36	2
98	98	2
10	10	4
123	131	2
130	130	2
89	95	2
112	112	3
182	182	2
101	117	1
180	182	3
71	71	4
151	152	2
195	196	3
133	134	1
180	181	4
173	176	2
17	17	2
97	97	1
22	23	5
101	118	2
173	175	3
140	146	1
81	81	4
0	0	2
170	192	3
87	93	1
53	53	1
12	47	1
94	123	1
0	142	1
157	169	1
191	192	3
61	75	2
114	146	2
0	2	3
165	166	2
19	21	6
138	146	2
105	110	1
147	149	2
159	159	2
108	108	12
5	71	3
138	139	2
17	55	1
94	95	3
72	72	4
141	149	1
65	80	7
45	45	3
6	6	2
189	193	2
28	32	1
188	188	2
2	38	1
27	43	1
140	141	1
65	65	2
14	171	2
195	195	1
38	38	7
153	153	1
32	44	1
16	16	2
58	58	3
77	77	2
96	96	1
125	125	2
47	48	2
19	19	4
13	56	2
26	29	2
5	6	1
171	172	4
148	148	3
135	177	3
52	52	5
51	51	2
179	185	2
176	176	7
109	111	1
52	53	1
9	59	3
133	138	4
58	59	1
139	142	1
137	150	4
115	117	1
25	43	1
34	38	3
120	138	2
3	4	1
146	147	1
32	43	2
128	162	1
83	84	5
13	14	2
26	26	2
46	49	1
156	158	3
158	159	4
131	137	3
12	113	1
135	135	2
137	137	1
39	56	2
2	7	1
166	167	1
155	158	2
152	183	1
64	64	1
161	162	1
161	165	1
8	9	2
47	49	2
25	56	1
147	148	1
13	13	1
121	157	1
103	104	1
170	181	2
101	101	1
191	191	2
152	173	1
100	100	3
109	130	1
147	151	1
144	146	1
104	107	1
31	32	1
178	180	1
42	42	1
132	132	1
101	122	1
24	36	1
99	100	2
151	159	1
63	66	2
16	23	1
128	128	3
178	193	1
89	96	2
145	152	1
20	21	1
183	185	2
116	137	1
142	149	1
135	154	1
195	197	1
104	105	1
50	51	1
79	79	1
167	168	1
162	178	1
28	76	2
144	144	2
130	176	2
129	129	1
74	74	1
111	132	2
134	168	2
172	182	1
116	132	1
101	103	1
40	41	1
161	161	1
153	179	1
152	158	1
103	103	1
154	181	1
63	63	1
3	76	1
132	136	1
5	7	1
130	139	1
189	190	1
95	95	1
