65	65	22
108	108	9
61	61	9
38	38	11
62	62	8
55	112	2
94	94	9
40	40	10
63	63	13
27	27	18
89	90	8
79	79	7
70	70	12
102	102	22
99	99	17
34	34	9
112	113	6
33	33	17
80	80	20
104	110	2
58	58	9
77	77	17
66	67	8
110	110	16
54	54	12
53	78	2
36	36	7
88	89	2
84	84	9
32	32	2
86	87	6
47	49	4
104	105	4
97	97	10
56	56	6
60	60	10
53	54	15
47	48	5
111	111	16
73	73	18
112	112	9
29	30	1
93	95	2
37	37	11
89	89	7
100	100	12
51	51	7
98	98	13
29	29	2
85	86	11
47	47	18
51	53	1
43	45	2
30	52	2
61	63	11
96	96	12
76	76	20
72	75	3
106	107	4
103	109	2
46	46	6
50	50	6
75	78	4
67	67	18
92	92	16
41	42	4
78	106	2
94	95	10
62	78	7
63	64	5
55	62	1
87	88	6
81	85	2
41	41	3
70	71	4
23	26	1
59	77	3
34	35	2
35	35	12
35	36	6
64	65	6
93	93	13
64	64	12
103	110	2
103	104	4
62	110	3
101	101	13
84	86	2
107	107	8
106	106	7
45	45	17
57	72	7
71	72	4
55	111	3
66	66	5
22	25	1
55	60	4
53	110	3
76	77	11
53	93	2
105	106	3
83	84	8
107	108	2
31	81	2
44	44	3
60	79	1
61	62	2
27	29	4
36	38	1
68	68	8
58	78	1
62	83	2
93	94	3
75	76	1
75	75	22
53	58	1
72	73	4
95	95	8
114	114	6
24	30	3
24	24	3
100	101	4
74	74	12
105	105	7
102	103	9
56	57	11
109	109	4
103	108	1
77	78	5
97	108	1
47	114	4
67	69	4
26	26	10
101	102	3
60	85	1
33	70	1
26	27	2
67	68	2
58	94	3
55	79	1
79	81	1
21	21	6
102	109	2
30	31	5
36	37	1
62	79	2
27	46	4
107	110	3
69	69	9
61	93	2
59	59	5
71	71	12
47	111	3
68	92	2
58	59	5
98	99	7
45	99	2
91	91	7
110	114	5
55	56	5
37	75	5
22	70	1
87	87	8
72	77	1
101	109	1
105	107	7
69	84	1
97	100	2
38	39	3
43	44	3
88	90	2
31	71	4
20	20	5
23	23	5
42	42	11
59	91	1
38	73	3
61	76	3
99	100	1
113	114	1
37	38	6
22	23	2
85	85	9
49	49	6
63	113	3
61	104	2
73	76	1
64	90	1
19	19	2
30	83	1
67	70	1
83	83	12
34	63	2
62	113	1
78	78	5
31	70	1
29	70	1
103	107	4
56	80	3
90	90	13
33	34	2
86	86	3
78	79	11
54	81	2
29	41	1
61	84	2
83	85	3
58	97	2
46	96	1
101	110	2
22	22	5
48	60	3
90	91	6
61	79	6
26	48	2
82	82	11
31	72	1
63	106	1
19	40	1
109	110	4
22	31	4
103	105	1
69	70	4
95	96	3
73	75	2
104	107	3
28	28	5
60	70	1
113	113	6
110	111	2
52	52	6
26	29	4
81	82	4
55	82	1
31	31	5
59	60	3
63	92	1
81	81	4
35	40	2
88	92	2
62	90	5
108	109	1
103	103	2
82	83	3
91	92	3
65	66	1
25	28	1
93	108	1
27	28	2
48	48	2
58	82	3
58	60	1
57	71	1
52	97	2
51	52	2
23	29	4
108	110	2
19	64	1
97	98	1
46	109	1
43	97	2
54	59	3
42	48	2
96	100	1
89	91	2
111	112	6
115	115	1
104	104	3
68	69	2
38	77	2
59	79	1
64	100	1
70	76	1
29	52	2
63	114	3
96	97	2
57	57	1
30	30	5
62	63	4
21	29	2
70	87	3
20	65	1
32	33	1
72	72	4
42	43	1
64	107	1
26	28	1
50	51	2
92	96	1
55	55	3
39	40	2
88	88	5
59	78	1
53	53	2
102	104	2
71	81	1
94	108	1
67	74	2
82	84	3
35	41	1
102	108	2
60	62	1
76	87	3
64	66	1
28	29	2
20	34	1
28	57	3
105	109	1
53	106	1
34	36	3
32	64	1
49	50	1
48	115	2
74	75	6
45	46	3
30	70	1
98	114	3
104	106	1
25	26	1
58	81	2
79	107	1
88	95	1
46	51	3
53	107	1
60	61	1
71	73	2
36	39	1
53	59	2
64	97	1
30	36	1
44	98	1
54	55	1
37	39	1
58	91	1
63	89	1
69	85	1
40	41	2
81	84	1
22	32	1
66	70	1
42	50	1
99	115	2
92	94	1
73	74	1
85	88	1
40	52	1
86	95	1
92	93	2
53	55	1
89	92	1
61	78	1
44	96	1
79	106	1
93	107	1
