99	99	11
50	50	9
125	126	4
90	90	3
68	68	4
11	11	21
24	25	6
45	45	9
15	15	20
79	79	12
19	20	3
43	44	3
42	42	10
84	84	2
138	138	6
130	130	4
28	29	1
36	37	5
13	25	1
79	83	2
22	22	11
47	47	20
143	143	2
3	3	2
84	86	1
6	7	4
13	14	1
107	107	5
94	95	6
39	42	3
93	93	3
109	120	1
78	78	20
77	77	14
8	8	20
69	70	1
3	96	4
80	94	4
126	126	11
69	69	6
98	98	7
106	107	2
29	29	3
12	13	8
70	70	5
146	146	11
97	97	3
40	40	19
39	39	4
123	124	1
16	68	4
80	81	2
64	99	1
78	83	1
70	71	5
137	137	4
13	13	11
38	38	8
21	23	4
87	87	5
142	143	3
65	85	11
114	114	8
10	11	3
80	80	10
37	37	4
31	33	3
66	75	5
119	122	7
12	12	19
24	26	1
95	95	17
38	39	6
16	16	5
75	75	8
108	108	4
120	120	6
35	35	2
143	144	1
8	9	6
127	129	3
51	51	1
136	136	2
21	99	1
7	8	3
144	144	8
25	25	14
17	17	6
79	80	6
86	86	2
30	30	4
24	24	8
41	42	8
75	92	1
93	96	3
67	67	6
92	98	5
68	69	2
66	66	3
83	85	2
95	98	3
21	21	10
26	27	7
115	115	7
46	48	2
14	15	4
129	129	10
34	45	1
19	19	12
117	117	5
117	118	2
26	26	5
23	24	7
133	133	1
94	94	5
124	124	7
24	46	3
21	22	3
148	148	2
96	102	2
136	148	1
2	2	3
29	47	3
49	49	4
4	4	5
146	147	1
52	52	4
53	53	3
137	138	6
151	151	2
18	19	4
154	154	3
141	141	1
23	23	9
54	56	3
77	78	5
117	128	1
132	132	6
64	64	9
62	63	4
73	74	3
32	32	9
100	101	4
14	14	19
34	35	2
17	19	4
109	109	3
18	18	11
46	46	7
12	27	1
6	6	8
48	49	3
66	68	4
47	48	3
121	121	9
9	9	9
108	109	6
82	83	1
43	43	6
108	110	3
76	78	2
65	67	1
4	5	3
3	58	1
20	20	6
54	54	5
2	8	1
68	87	1
45	46	4
149	149	4
32	34	2
22	23	3
83	86	3
16	17	4
10	10	5
76	76	3
118	118	6
101	101	6
85	95	1
29	30	7
20	21	1
58	58	1
7	7	8
75	82	2
95	96	5
93	94	6
41	45	1
67	68	5
2	3	4
48	48	7
63	63	4
134	135	3
133	134	1
25	26	5
139	139	4
127	127	1
124	132	5
6	11	3
54	55	2
111	111	1
81	81	2
118	119	1
3	9	2
97	103	2
14	68	5
36	38	3
83	83	2
31	31	2
17	24	1
36	36	4
125	125	9
5	99	4
34	34	6
40	41	2
6	58	2
147	148	2
26	28	1
65	68	2
81	82	3
57	57	7
124	138	2
119	119	4
122	122	1
37	38	1
110	114	1
123	128	1
14	107	1
36	55	2
131	131	2
85	98	2
87	88	2
57	58	2
20	24	4
76	77	5
110	110	1
66	84	2
15	16	2
124	125	1
116	116	3
40	45	2
62	62	3
29	46	3
28	28	1
98	123	1
4	15	2
149	151	2
5	5	1
19	71	1
91	92	1
66	67	3
102	102	3
96	96	1
137	139	3
115	121	2
86	99	2
74	76	2
41	41	2
30	31	2
65	69	2
27	28	1
64	86	2
53	54	2
73	73	3
72	72	4
65	66	3
65	65	1
85	85	1
29	32	1
96	97	2
11	12	2
100	123	1
129	135	1
92	92	2
153	153	1
116	117	2
47	49	3
62	98	2
62	99	1
3	5	1
75	76	1
112	115	2
71	71	2
17	18	2
38	66	1
9	11	1
61	61	1
74	91	2
7	10	1
83	84	1
18	26	1
63	64	2
91	91	1
115	129	1
71	72	1
96	120	2
56	56	1
100	102	1
129	130	1
43	48	1
43	52	2
46	47	3
38	40	2
64	67	1
38	63	1
108	123	1
93	112	2
23	33	1
46	52	1
5	17	1
97	98	1
136	145	1
85	86	1
127	130	1
41	44	2
140	140	1
131	132	2
33	33	2
64	85	2
112	114	1
44	44	1
100	100	2
106	108	1
5	7	1
7	34	1
78	79	1
150	150	1
7	9	1
14	77	1
75	83	1
24	73	1
