72	72	3
129	129	1
91	93	3
177	177	3
142	142	1
180	181	2
141	141	3
87	88	3
74	74	5
29	31	6
60	60	1
28	28	5
80	80	2
150	164	3
9	171	5
139	139	9
168	168	5
62	63	3
63	65	2
58	58	6
189	190	2
165	166	6
116	118	6
136	137	2
104	104	5
86	86	4
93	93	10
45	45	4
36	36	1
65	65	3
17	17	4
131	184	1
80	89	1
161	174	2
140	142	5
68	68	6
143	164	1
179	180	1
27	42	3
53	57	2
166	166	4
71	103	2
140	153	1
7	189	2
130	137	2
2	2	4
33	33	2
70	71	2
144	183	2
112	112	2
62	62	1
32	33	2
137	137	2
126	126	4
63	63	3
28	31	2
54	54	2
144	163	1
66	68	2
74	75	5
15	18	2
15	15	5
16	21	1
110	129	1
92	111	2
122	125	5
0	12	3
40	40	4
31	31	2
27	27	1
68	69	3
167	174	6
111	111	1
148	148	3
62	73	4
130	131	1
61	61	1
131	145	5
92	92	1
34	35	3
68	75	1
178	178	2
5	6	2
161	173	1
154	166	2
92	94	4
157	157	1
82	82	1
84	85	3
40	41	3
177	179	1
167	167	1
164	164	1
43	43	1
8	8	4
144	144	2
75	75	1
25	25	1
48	48	3
132	132	1
16	16	2
150	151	1
171	172	1
38	38	2
176	176	3
91	94	1
90	104	5
108	123	1
110	110	2
12	13	2
179	179	3
13	13	4
112	121	2
59	59	3
166	180	1
109	109	2
125	126	3
111	133	1
18	18	1
130	130	2
102	103	1
145	149	2
152	152	1
147	147	2
18	165	1
29	30	2
7	7	1
116	116	2
87	89	3
56	140	1
71	71	2
158	158	3
9	11	2
17	53	1
144	145	2
54	100	1
85	85	1
26	26	1
173	173	1
181	185	1
20	20	1
76	76	1
102	102	1
149	150	1
129	137	2
141	142	2
154	154	2
6	7	1
7	8	1
55	55	1
10	10	1
122	122	1
188	189	2
56	56	1
108	108	2
133	134	1
14	14	1
155	180	1
61	135	2
25	26	3
44	46	1
1	1	1
146	147	1
88	88	2
122	123	1
155	155	1
58	63	2
167	168	2
92	95	1
33	34	1
116	119	1
64	64	1
135	135	1
13	15	2
84	84	1
