108	108	10
40	41	3
3	3	3
67	67	12
69	69	9
73	74	8
35	35	8
43	43	9
36	37	9
98	98	5
126	126	9
127	127	7
85	85	7
125	126	1
99	99	6
84	85	4
44	44	12
90	91	2
78	80	2
12	34	3
80	83	1
14	14	4
92	93	5
28	31	2
86	87	4
131	133	1
95	95	13
5	5	4
17	17	8
91	91	6
29	29	16
115	115	2
76	76	11
102	102	8
83	86	4
5	7	2
18	18	7
11	11	12
62	62	9
34	34	16
7	7	9
96	96	9
119	120	5
61	63	1
112	113	5
15	16	5
3	41	3
66	66	19
93	98	5
13	14	4
68	68	7
123	124	8
37	37	11
82	82	10
120	120	8
47	47	14
120	122	2
59	60	4
103	103	11
104	104	4
9	9	14
2	3	1
26	80	1
8	8	13
101	101	14
45	46	5
109	109	4
78	78	14
4	4	7
23	24	2
86	86	11
45	45	12
117	118	3
94	99	1
96	97	3
96	113	1
123	123	6
134	134	3
13	13	15
24	25	1
94	94	28
61	72	1
27	28	6
6	6	8
22	44	1
26	28	1
107	108	6
100	133	3
76	77	5
130	134	3
90	90	11
33	34	8
104	105	2
7	8	1
62	64	2
46	46	6
124	124	7
29	119	3
73	73	20
27	27	11
64	64	8
15	15	6
99	100	3
17	26	3
79	79	4
59	59	12
124	128	1
85	86	1
38	43	3
41	43	3
30	31	8
118	118	4
132	133	3
118	119	1
56	56	4
102	106	2
114	114	7
28	28	8
63	63	11
93	93	16
25	25	7
108	109	2
85	92	4
100	100	8
26	27	7
31	31	2
83	83	7
43	59	3
87	87	1
61	61	14
131	131	5
63	64	3
42	42	9
36	36	4
31	60	3
16	16	3
83	95	1
12	12	15
106	106	6
58	58	1
22	22	3
26	26	10
33	33	15
129	129	8
4	5	4
128	128	7
19	19	17
95	96	7
85	90	2
130	130	6
71	71	6
3	4	5
116	126	1
83	84	1
8	9	3
129	130	4
11	12	2
113	113	6
9	10	3
32	32	12
71	72	3
41	41	6
105	105	2
21	22	2
10	28	2
93	94	2
126	133	3
121	121	7
81	81	7
107	114	2
31	32	5
48	48	4
34	35	8
30	30	6
44	83	1
126	127	1
72	72	19
109	130	4
28	30	2
85	87	2
74	74	6
65	65	10
72	73	3
116	116	4
94	100	2
23	33	4
18	22	1
79	80	1
112	112	8
101	105	2
10	10	15
117	117	3
106	107	1
110	110	4
75	76	1
105	107	4
80	81	2
46	47	1
115	132	2
120	121	4
117	123	2
132	132	4
92	92	1
84	84	4
82	100	3
20	35	1
24	24	5
60	60	5
91	92	1
25	83	1
20	20	6
111	112	1
35	36	2
11	33	2
127	133	1
57	58	1
93	99	2
14	17	3
11	47	2
38	39	1
90	92	2
73	75	1
76	114	1
7	9	1
117	119	2
26	93	1
75	79	1
56	58	1
6	7	2
63	75	1
9	84	2
125	125	3
81	82	1
101	134	1
5	14	1
0	0	2
82	83	2
5	6	2
28	29	1
122	122	1
7	91	1
89	89	4
14	26	1
130	131	3
101	102	4
120	123	1
41	55	1
8	44	5
23	23	2
58	59	1
17	19	1
97	98	1
77	77	1
10	11	2
18	20	1
86	88	1
97	97	3
110	113	1
64	65	3
47	48	2
93	95	1
33	48	1
63	79	2
27	89	1
89	90	1
67	68	2
86	90	2
111	111	2
116	117	1
70	70	2
21	21	3
82	84	2
37	38	1
107	109	1
57	57	1
99	133	2
75	75	3
1	1	1
118	123	1
107	111	1
49	50	1
62	74	1
14	23	1
45	60	1
108	130	1
2	2	1
8	36	1
119	119	2
66	87	1
0	1	1
81	84	1
95	114	1
27	80	1
94	98	1
46	56	1
95	98	1
62	118	1
107	107	1
39	40	1
105	116	1
30	32	1
25	82	1
78	79	2
66	83	1
29	49	1
70	71	1
44	45	1
49	49	1
4	13	1
66	67	1
17	23	1
32	33	1
49	132	1
84	86	1
27	42	1
