45	57	3
53	54	9
45	45	12
69	69	13
65	65	14
82	112	2
11	11	15
169	169	9
86	88	4
133	135	2
162	163	4
129	129	16
106	106	14
38	38	9
46	51	1
118	118	18
132	132	1
7	10	2
32	33	1
96	96	5
35	35	5
148	148	6
7	8	7
141	141	7
149	149	13
132	133	7
91	94	4
157	157	10
90	90	8
74	74	5
43	49	2
124	124	4
147	147	4
138	138	6
168	168	7
130	131	2
35	36	5
71	71	2
53	56	2
16	16	9
79	79	12
25	25	10
137	138	9
18	19	6
10	11	2
143	144	10
16	28	5
50	50	18
15	15	6
47	47	3
20	20	9
64	64	13
9	12	3
2	126	2
13	13	10
9	127	2
125	125	9
126	126	2
47	48	9
17	17	13
76	76	5
111	111	3
152	169	7
39	39	6
154	154	8
42	42	16
56	73	5
78	78	5
133	133	10
62	62	14
54	54	15
77	89	5
1	1	8
128	128	9
43	43	12
159	159	11
104	104	6
56	56	12
55	55	13
2	11	5
37	37	11
143	143	7
63	65	3
89	89	10
0	1	14
111	112	7
136	136	11
18	21	3
83	136	5
37	38	9
146	147	4
103	103	6
73	73	14
162	162	5
153	153	21
154	160	3
19	19	10
7	7	12
63	66	1
117	117	7
36	36	8
86	86	4
33	34	7
34	35	7
92	114	2
112	112	4
80	83	5
153	163	8
63	63	13
90	94	2
131	131	4
62	63	4
47	50	11
34	34	9
158	158	6
110	110	13
13	14	1
137	137	13
43	44	11
135	135	4
25	135	3
108	108	6
105	105	4
39	41	2
41	41	9
23	23	9
112	113	2
6	6	14
20	21	3
39	46	3
131	132	2
110	149	1
27	28	3
117	118	1
151	153	4
93	126	6
110	111	4
134	134	12
39	42	7
7	11	2
3	25	3
46	46	12
150	151	1
4	20	2
2	5	5
92	92	4
24	24	8
49	51	4
17	25	2
139	139	9
8	14	3
6	7	5
130	130	2
4	4	10
51	63	1
127	127	7
152	152	8
39	40	4
10	132	2
109	109	7
52	52	11
20	23	1
99	99	8
40	40	3
96	97	5
122	123	3
75	91	1
111	113	7
88	88	6
5	5	7
91	91	5
85	85	6
147	148	5
0	0	12
106	166	1
102	103	8
22	22	3
120	121	2
33	33	5
113	113	2
134	135	5
4	5	6
9	126	1
119	119	2
128	131	6
5	6	5
92	95	1
64	70	1
53	53	5
75	76	3
66	69	5
167	167	14
14	14	4
100	134	4
151	151	11
103	105	1
166	166	11
26	26	3
146	146	4
44	44	14
27	69	2
116	116	5
63	69	5
156	160	1
58	58	2
3	24	1
3	7	2
163	163	6
107	108	3
74	75	6
1	3	2
153	154	1
140	140	1
114	125	1
138	139	4
118	122	2
57	57	6
165	165	9
48	48	5
54	73	2
42	64	1
80	80	2
165	166	2
55	56	1
11	12	2
118	119	3
105	113	2
164	164	5
75	125	4
72	87	1
84	84	2
120	123	3
156	157	2
160	163	1
89	96	4
125	126	1
108	110	7
10	10	8
158	160	1
82	136	1
38	45	1
44	57	1
72	72	5
3	5	1
89	90	1
66	67	3
82	82	5
2	2	9
113	118	5
28	28	8
155	155	4
78	84	2
86	87	2
113	114	1
56	57	3
4	121	1
156	156	3
120	128	2
88	89	1
8	15	3
123	124	2
9	9	8
107	107	7
108	109	8
40	121	3
106	107	1
77	77	3
17	18	6
80	85	4
155	157	6
0	2	3
93	93	2
127	128	2
154	155	2
75	75	2
44	46	2
155	158	3
3	4	3
12	135	2
57	58	1
52	53	1
23	131	2
104	106	1
159	167	2
15	122	1
152	153	7
116	127	1
79	85	3
54	56	2
40	46	2
27	27	3
167	168	2
151	159	3
23	24	1
70	70	5
55	75	2
14	49	1
100	101	2
6	132	1
80	81	2
95	95	4
24	131	1
92	94	3
114	116	2
144	144	8
6	8	1
18	18	3
99	100	3
92	93	1
11	135	1
19	21	1
87	89	1
115	116	1
93	127	1
8	12	1
36	37	2
22	23	1
155	156	5
2	12	1
40	45	3
49	65	2
12	12	5
69	73	1
45	46	2
99	119	1
3	3	5
67	67	3
44	45	4
44	47	1
111	143	1
64	65	4
46	55	2
101	101	4
116	122	1
27	35	1
86	96	2
24	127	1
139	140	1
62	67	1
153	156	2
42	43	1
68	69	1
44	58	2
35	41	2
84	86	1
8	8	9
76	93	2
144	157	1
47	55	1
123	123	1
41	42	3
158	159	3
21	23	3
1	2	2
114	114	2
104	114	2
49	49	2
115	115	3
101	111	1
103	104	3
104	107	1
69	70	1
54	55	2
70	71	2
81	84	1
115	124	1
150	150	4
116	118	1
36	42	2
157	158	2
164	165	5
102	102	2
63	68	1
1	135	1
160	164	1
104	105	2
101	102	2
142	143	1
51	51	1
69	127	1
97	97	1
160	160	2
16	18	1
151	152	1
9	10	3
21	24	1
76	88	1
100	100	1
159	162	2
158	165	4
6	21	1
124	126	1
57	62	3
77	90	2
56	58	1
56	72	1
65	67	1
121	122	1
8	17	1
71	74	1
63	64	1
72	73	1
142	142	1
154	159	1
94	94	1
109	114	1
114	118	1
119	121	1
41	51	1
152	155	1
25	127	1
