111	111	3
10	24	2
136	136	2
149	163	1
77	80	2
3	3	3
97	98	3
131	131	6
10	11	3
67	67	2
18	38	2
102	102	1
24	110	4
91	92	2
108	108	8
50	51	4
2	3	2
77	77	2
50	67	3
113	113	3
3	53	2
139	139	4
38	38	4
10	10	4
19	132	3
164	164	2
90	90	3
85	85	4
21	49	3
53	54	1
8	11	3
12	13	1
43	43	2
88	88	1
114	114	3
44	44	8
55	55	4
147	148	1
127	127	2
56	56	5
65	147	2
1	2	2
20	20	1
19	64	2
132	132	2
19	144	2
130	131	5
73	73	1
46	46	7
14	18	2
135	135	7
135	166	4
161	161	5
114	146	3
16	16	1
25	25	6
100	100	6
57	112	4
143	145	1
117	121	6
78	78	1
40	41	1
12	12	2
154	154	4
34	34	2
150	150	4
49	49	3
115	116	3
65	67	2
45	45	1
104	124	4
111	112	3
19	19	4
7	39	2
81	81	2
21	21	2
26	55	2
151	151	3
64	64	4
23	23	2
17	17	2
75	100	1
6	6	1
149	170	2
68	115	2
61	62	1
36	36	2
47	47	1
5	37	2
134	134	1
155	156	1
4	4	2
41	41	3
94	98	1
123	152	1
56	84	1
127	130	2
18	18	2
107	107	1
92	93	2
104	104	2
121	121	3
153	154	2
142	169	2
110	110	3
39	39	1
146	166	1
20	21	1
128	128	2
163	164	2
86	86	3
46	109	2
163	163	1
16	33	1
54	54	5
46	48	1
139	142	1
74	88	1
137	137	1
98	98	1
160	163	2
86	87	4
118	119	1
24	24	5
40	40	3
117	118	1
87	88	1
83	83	1
152	153	1
65	66	3
5	6	3
27	27	6
13	13	2
63	83	1
148	148	1
127	129	1
118	125	1
130	132	1
168	168	1
51	51	3
14	14	2
55	80	1
42	42	3
2	22	2
25	41	1
20	23	1
80	80	1
64	148	1
71	73	2
16	25	2
113	131	1
169	170	1
18	19	1
48	48	1
93	93	2
153	162	2
144	144	2
105	105	2
2	2	1
2	27	3
161	163	1
159	160	1
87	87	2
149	166	1
133	133	1
164	165	1
5	5	1
95	97	1
8	9	1
155	155	1
158	159	1
75	75	2
109	109	1
105	112	1
20	54	1
53	76	1
157	157	1
0	49	1
68	69	1
84	84	1
28	28	1
112	113	1
72	72	1
121	122	1
26	26	1
115	115	1
20	47	1
74	74	1
70	70	1
165	165	1
135	136	1
160	164	1
71	71	1
45	46	1
85	86	1
2	128	1
72	101	1
84	85	1
17	55	1
97	111	1
