16	17	1
37	38	5
75	77	2
104	109	4
62	64	9
7	7	10
83	84	1
141	149	2
55	55	4
104	105	2
136	136	5
84	84	3
140	150	7
65	65	7
30	30	5
9	9	11
139	139	8
20	20	15
131	131	10
97	97	12
134	134	3
78	78	13
66	67	6
11	11	14
138	138	9
124	124	11
30	39	2
32	32	9
13	13	4
135	152	4
109	110	4
133	133	4
32	33	5
135	135	8
73	75	9
4	26	4
121	122	3
85	87	2
42	42	4
76	76	11
45	46	11
66	66	18
7	34	3
150	150	6
6	27	1
105	105	6
38	39	9
29	29	9
10	10	7
94	95	1
100	100	7
117	117	11
130	151	2
38	38	13
39	39	12
127	127	12
72	73	4
16	16	19
119	119	5
78	79	4
15	15	13
4	7	1
34	38	3
96	109	5
74	76	3
87	90	3
146	146	3
36	144	2
56	56	4
118	119	1
83	83	2
85	85	10
15	23	4
123	123	11
30	38	2
35	36	9
106	106	4
80	82	1
51	53	2
6	7	5
20	21	6
111	111	7
83	85	1
13	14	3
23	24	7
145	145	6
130	130	13
12	12	9
4	4	16
123	148	1
13	16	5
67	68	3
39	40	12
41	41	7
55	57	4
14	25	4
8	9	14
18	19	8
3	6	2
150	152	4
109	109	10
34	39	2
122	122	10
88	88	3
11	23	1
137	144	2
54	54	6
75	97	3
123	124	6
18	23	4
10	12	4
28	32	1
53	53	5
40	41	4
101	102	5
70	70	4
115	116	2
129	129	9
86	86	10
71	72	1
17	17	8
49	148	3
35	35	2
52	52	1
149	149	7
16	18	2
24	25	9
68	68	7
11	12	3
71	71	4
130	131	1
116	116	1
36	36	2
122	128	2
125	125	1
136	137	6
104	110	1
24	24	5
63	63	1
107	107	6
7	27	2
67	67	4
19	20	6
120	132	3
7	31	7
93	95	2
99	100	6
117	118	1
114	115	4
36	37	5
49	50	2
50	51	4
22	23	3
23	23	5
73	73	9
68	76	4
129	130	2
106	107	2
152	154	1
135	136	1
154	154	6
83	93	3
6	6	4
133	134	1
72	72	9
47	48	6
5	6	1
13	15	5
47	49	3
140	140	2
16	22	1
26	26	3
104	108	5
79	79	9
19	19	8
40	40	7
40	42	4
132	136	1
97	98	4
152	153	7
94	98	3
22	22	5
121	130	8
53	54	5
54	123	1
87	88	3
9	11	5
120	126	1
112	112	1
126	128	6
94	94	4
132	132	11
5	5	4
148	148	3
128	130	3
25	25	7
9	10	4
76	78	6
114	114	5
148	149	2
151	152	6
96	96	1
108	109	5
71	73	2
150	151	2
47	47	1
81	82	2
145	146	2
149	150	4
134	136	1
18	20	2
65	66	4
14	14	5
41	42	5
121	121	1
18	18	7
133	149	3
95	99	2
46	48	2
12	13	4
63	65	2
76	77	2
95	104	1
75	75	6
85	86	4
11	32	1
125	132	1
98	98	7
19	21	1
28	29	4
72	76	3
52	54	3
22	25	2
29	31	1
25	26	4
17	18	4
107	108	3
69	69	15
128	129	6
143	146	3
29	30	2
8	8	7
127	128	5
128	128	4
34	34	1
99	110	2
82	82	2
119	120	1
26	27	6
49	49	2
88	99	4
70	76	1
109	111	1
147	147	2
74	75	3
84	86	5
108	108	6
31	31	1
127	129	1
84	85	4
27	29	1
9	12	7
10	11	5
86	87	4
73	74	3
72	85	1
97	103	2
51	51	10
9	40	2
99	99	8
79	95	2
115	115	12
33	34	7
15	18	1
110	110	4
92	98	1
110	115	1
27	27	4
80	98	1
12	26	3
68	69	7
96	112	4
66	76	3
31	34	2
77	77	9
119	133	2
45	45	7
64	64	3
7	8	4
44	44	2
123	150	2
15	16	7
93	94	1
3	5	2
48	48	4
9	17	3
122	134	2
137	137	3
142	142	3
42	43	2
82	84	3
69	70	4
5	25	1
5	28	2
79	82	1
143	144	1
108	121	3
20	22	1
43	43	2
31	32	3
125	143	1
78	83	3
122	123	3
107	145	2
113	113	1
105	109	4
101	101	1
34	37	1
66	72	1
53	55	2
64	65	4
95	95	3
4	5	2
105	108	1
103	103	2
124	129	2
136	139	1
12	15	1
144	146	1
81	81	2
121	124	4
140	151	1
62	62	1
47	50	1
153	153	2
17	21	1
126	126	1
7	10	3
119	134	2
125	146	3
143	145	4
3	3	2
14	32	1
13	25	1
70	71	3
104	104	1
54	56	1
99	120	1
82	83	2
5	7	2
140	141	1
97	105	1
87	87	3
113	114	2
131	132	1
148	150	1
97	120	1
142	143	1
111	113	1
66	73	1
27	34	1
73	86	1
135	151	3
45	51	1
48	53	1
27	28	3
74	74	1
119	131	2
121	123	4
93	93	2
67	71	2
12	32	1
30	152	2
122	132	1
51	67	1
39	139	1
4	6	1
51	52	1
14	15	1
141	142	1
63	64	1
17	20	1
96	110	1
77	79	2
135	137	1
118	118	1
11	13	1
37	37	1
88	93	2
138	139	3
15	24	2
21	22	1
21	21	2
40	153	1
35	37	2
18	22	2
111	112	1
48	49	1
71	76	2
124	127	1
62	66	1
48	129	1
136	146	1
31	36	1
79	96	1
75	81	1
30	151	1
144	151	1
71	77	1
123	126	1
152	152	1
