179	179	13
132	136	7
8	8	23
123	176	2
19	21	3
13	13	25
43	43	25
4	4	29
134	135	4
7	7	22
147	147	11
13	18	1
96	96	6
124	124	11
38	38	31
26	27	10
16	16	9
1	4	3
117	117	11
77	77	8
72	72	10
100	100	12
50	51	5
159	160	3
27	34	2
78	78	11
79	81	7
42	43	3
4	9	5
36	36	24
26	26	19
82	85	2
166	166	9
142	142	24
143	143	8
2	2	30
133	138	2
7	8	20
6	6	24
71	71	20
23	23	21
62	62	7
25	26	8
163	163	17
96	97	2
145	145	10
65	65	8
68	68	11
80	83	1
112	112	10
167	167	16
35	35	18
91	93	1
27	27	31
175	175	14
134	145	4
42	42	20
116	116	3
14	14	27
15	15	25
145	153	1
61	61	12
3	4	17
89	112	2
148	148	11
106	106	9
28	28	17
73	74	3
52	52	8
125	127	2
130	130	15
25	25	18
134	152	5
41	41	34
86	86	10
18	18	14
37	37	25
55	55	28
37	40	4
149	150	5
66	116	2
174	174	10
33	33	32
104	104	11
167	168	4
3	12	2
158	158	4
39	41	5
135	135	9
165	165	4
31	31	24
11	13	1
89	89	8
87	87	15
23	25	8
67	68	6
134	134	6
88	151	2
12	14	10
60	60	12
32	32	26
64	64	15
119	145	8
41	42	19
17	19	3
164	167	13
3	3	20
138	138	24
150	150	15
168	173	1
19	20	8
57	57	20
76	76	14
122	122	27
170	170	10
1	1	22
90	92	5
63	65	2
7	9	4
34	34	8
24	24	17
84	85	13
123	123	15
108	108	4
39	39	10
11	12	17
43	45	5
157	158	6
61	62	6
118	119	5
40	40	12
158	159	4
87	116	1
50	50	13
73	73	17
20	20	12
133	133	11
141	142	9
169	169	18
153	153	13
127	129	2
13	15	11
79	79	11
30	30	19
168	168	10
2	3	21
115	116	4
50	110	2
9	9	40
136	136	8
40	45	3
27	28	17
2	6	2
78	79	3
16	17	9
87	89	3
177	177	8
30	31	9
112	113	3
172	172	20
113	113	24
64	71	1
5	5	18
14	44	7
2	38	2
58	58	10
127	127	7
108	118	4
28	36	1
45	45	19
140	140	23
26	37	2
125	125	23
168	169	1
19	19	13
152	152	7
101	101	7
126	136	2
7	10	3
21	23	2
42	44	4
16	21	5
12	12	25
66	66	12
21	21	21
10	11	4
0	33	1
162	162	6
5	7	9
75	75	7
137	137	3
102	102	6
18	20	8
36	38	5
161	161	4
103	130	4
53	53	8
126	126	5
83	84	3
131	132	7
136	141	6
3	41	4
169	178	4
94	95	9
59	59	11
174	175	1
12	21	3
2	37	8
44	44	7
124	125	5
56	56	13
15	25	4
144	180	1
155	155	7
154	154	10
33	34	7
92	92	6
146	174	4
157	162	2
90	90	8
27	30	1
108	112	2
142	143	4
132	132	11
81	81	12
114	114	5
131	131	8
52	63	2
59	86	1
93	94	1
71	112	2
35	36	8
92	93	4
146	146	15
15	17	7
144	145	7
139	139	18
93	93	4
95	95	11
30	32	3
125	131	2
178	178	11
41	45	1
121	147	1
99	99	5
18	30	5
109	117	1
61	63	2
128	128	5
10	14	6
10	10	15
54	54	8
178	179	5
36	56	4
149	149	16
90	94	1
33	36	4
1	2	2
33	35	9
134	139	1
159	159	14
75	79	1
147	148	4
18	19	9
28	30	5
118	118	6
135	150	3
16	19	3
103	129	1
25	30	5
39	45	7
118	134	5
14	15	5
147	151	1
165	166	7
103	104	9
13	14	10
143	151	1
102	103	5
80	80	12
20	21	7
119	119	6
91	92	3
154	155	1
65	67	2
85	88	2
5	10	3
141	141	4
121	172	1
28	29	4
151	151	10
0	0	16
17	18	5
107	107	3
39	40	8
164	168	3
111	112	1
29	30	4
21	22	4
29	29	12
173	175	4
12	13	8
49	49	2
24	25	11
111	111	5
107	110	2
63	112	1
55	58	1
8	9	5
52	53	6
114	116	3
121	122	9
23	27	4
88	88	7
17	25	4
53	90	3
16	31	4
10	12	7
132	133	2
116	117	3
64	94	2
141	146	3
72	74	6
77	151	1
164	165	2
94	94	3
119	121	2
91	91	7
110	120	3
78	128	3
17	23	2
17	17	18
28	31	3
98	98	4
4	5	3
82	131	2
51	51	9
171	172	1
81	85	3
19	22	3
22	26	8
86	87	3
113	114	3
30	44	1
38	39	6
41	44	4
129	130	2
119	152	1
2	4	1
140	144	4
7	18	1
170	171	5
6	11	2
74	77	3
157	169	1
74	74	4
20	23	4
37	38	3
129	129	4
171	171	6
160	160	10
136	137	5
33	42	2
105	105	10
80	81	2
106	108	6
78	93	2
16	37	1
159	177	3
11	11	12
5	6	8
12	16	2
24	29	1
138	139	2
18	22	1
20	22	3
13	21	2
5	16	4
4	12	2
88	112	1
65	66	7
122	123	4
82	82	10
54	76	2
27	31	3
106	107	6
89	93	1
5	42	2
90	95	3
59	60	1
83	89	1
167	174	1
64	108	2
139	153	2
158	168	3
172	174	2
56	79	1
18	21	3
124	154	2
110	111	4
111	142	1
1	3	1
10	17	5
67	67	9
109	110	1
84	84	13
3	9	3
17	21	2
6	7	7
100	114	3
109	147	3
2	10	1
81	82	5
143	150	2
3	24	2
64	70	4
26	28	5
28	55	2
9	11	2
2	33	1
103	105	3
131	137	1
180	180	6
162	163	1
64	65	3
90	93	2
44	45	8
153	156	2
73	77	1
32	33	4
144	144	5
65	71	1
158	160	4
64	92	2
158	164	1
12	17	1
141	151	2
22	31	1
155	156	3
163	180	1
25	27	4
6	8	1
14	37	1
43	44	5
104	105	1
23	24	5
123	125	2
10	13	2
109	109	3
50	119	3
125	154	3
115	115	7
54	55	2
57	65	2
109	151	4
72	73	1
77	127	1
16	35	1
114	118	1
152	153	5
176	178	2
139	155	1
176	176	6
18	36	2
96	128	2
15	16	7
140	141	3
2	7	1
4	15	2
63	63	7
132	135	1
157	157	2
140	146	1
10	29	1
163	176	1
66	68	3
55	59	5
5	113	3
1	5	2
156	156	4
108	109	2
8	11	2
15	35	1
85	85	10
120	121	7
140	143	3
3	8	1
55	56	3
120	120	6
70	71	1
124	127	2
130	176	1
159	161	3
14	36	1
53	54	2
90	91	3
173	173	4
114	117	3
28	39	1
156	157	1
97	97	2
87	90	2
29	33	1
31	32	4
0	85	1
100	109	3
26	31	4
127	128	2
42	45	1
169	175	2
1	16	1
53	75	3
22	23	2
14	45	4
163	164	2
139	140	1
3	16	1
153	175	1
67	117	1
77	78	1
125	126	1
177	179	1
92	94	2
159	168	2
126	143	1
129	131	1
148	150	1
62	63	2
103	103	7
95	142	1
34	35	4
157	171	2
116	118	1
128	155	5
9	38	3
106	111	1
58	79	3
110	113	1
22	22	4
133	134	1
143	145	1
60	62	1
51	54	1
19	26	2
119	120	1
63	64	1
22	24	2
27	126	1
4	29	1
71	114	1
111	114	1
140	145	2
130	170	2
150	180	1
126	154	1
141	149	2
18	29	2
6	43	1
14	17	1
140	151	1
167	169	3
9	10	3
82	83	1
164	164	2
124	156	2
23	26	1
92	95	1
32	34	1
120	175	2
0	40	2
107	108	1
141	150	1
161	162	4
116	133	2
9	20	1
56	78	1
2	36	1
130	136	2
1	31	1
158	161	3
119	147	1
117	118	2
108	110	1
121	121	1
3	25	1
163	166	1
16	32	1
28	32	2
67	81	1
13	29	1
123	124	1
155	171	2
139	149	2
164	170	2
151	152	4
123	131	2
134	153	1
167	172	1
4	7	1
105	106	1
36	124	2
95	96	1
101	102	3
51	52	1
80	86	2
102	108	1
80	90	1
163	165	2
110	110	4
6	10	2
62	87	1
112	118	1
140	174	1
173	179	1
84	92	3
18	23	2
146	147	1
109	142	1
54	90	1
63	94	1
99	102	1
24	27	1
72	88	1
15	45	1
112	115	1
0	10	1
155	174	1
68	103	1
8	13	2
14	16	3
23	37	2
128	156	1
11	40	1
4	25	1
94	147	1
25	28	3
8	10	1
24	72	1
154	158	1
133	173	1
58	59	1
65	107	1
9	13	1
1	37	1
13	44	1
172	176	1
169	170	1
2	5	2
145	146	1
97	129	1
64	97	1
51	61	1
163	177	1
0	1	1
43	53	1
36	41	1
40	42	1
101	114	1
28	33	2
22	32	1
177	178	1
173	174	1
23	28	1
76	77	1
134	147	1
4	11	1
99	114	1
