65	66	6
84	87	2
187	189	2
162	162	10
151	151	5
157	158	3
3	3	3
54	54	3
89	89	5
119	120	3
31	68	9
33	45	2
187	187	6
30	31	3
186	186	4
107	107	7
98	98	2
123	123	5
99	119	2
147	149	2
143	143	7
106	142	3
107	156	3
16	30	3
163	166	1
106	108	6
154	154	3
41	41	10
16	18	3
25	25	4
124	124	5
157	157	2
132	132	6
95	96	1
86	86	15
36	36	1
20	27	2
46	58	5
128	128	3
142	142	3
72	72	4
156	157	10
144	146	2
98	99	2
79	79	8
136	136	9
93	150	2
2	2	3
11	15	1
63	81	1
120	120	9
142	143	9
167	168	1
121	122	9
104	181	1
48	49	3
26	26	3
133	134	2
156	156	5
79	151	1
160	169	4
104	105	4
39	76	2
70	70	2
45	45	10
97	97	3
102	102	8
33	36	2
11	11	3
83	83	2
60	61	5
145	145	7
73	73	2
16	16	10
39	39	3
67	67	4
25	26	4
144	144	3
93	94	7
38	74	2
141	141	5
113	163	1
78	78	1
103	151	2
163	172	2
177	178	5
1	1	3
152	152	5
59	59	5
27	27	5
63	63	7
103	142	1
61	61	1
104	104	4
166	166	3
55	56	2
189	189	9
105	181	4
20	22	1
180	180	3
68	68	2
87	100	1
157	159	3
161	172	2
104	121	3
76	83	1
24	24	2
68	133	3
125	126	2
40	40	5
155	157	1
150	150	4
77	94	1
55	55	4
104	126	3
176	176	3
82	82	8
184	184	3
102	177	2
117	117	6
64	65	7
127	127	6
17	17	3
56	56	3
71	95	2
14	14	3
6	6	3
115	117	6
86	98	1
33	73	2
38	38	1
109	119	1
77	78	2
150	151	1
133	144	2
89	90	1
164	165	2
60	63	1
175	176	1
168	168	1
134	134	4
33	48	2
130	135	3
62	76	4
92	150	4
29	29	3
56	57	1
75	75	4
130	131	2
131	136	1
101	101	1
109	118	3
139	139	6
27	29	2
22	22	2
124	126	1
127	132	3
58	58	2
37	48	1
10	35	2
163	163	3
138	139	2
85	85	9
114	118	1
42	43	2
74	80	1
53	53	4
138	138	6
152	153	4
16	45	5
0	0	7
148	149	1
162	172	1
46	46	9
127	130	2
71	74	3
154	155	2
140	141	1
58	76	1
30	49	4
109	131	1
91	98	6
56	61	4
20	20	3
145	146	2
130	132	1
187	190	2
106	106	3
113	114	1
94	95	1
75	76	4
118	154	1
97	99	2
160	160	2
10	10	5
57	84	1
113	113	1
155	156	2
17	28	2
114	120	2
23	23	1
105	105	1
72	73	2
42	42	2
12	13	1
39	41	1
59	62	3
21	27	1
92	143	5
161	162	1
75	84	4
65	68	2
154	159	1
12	14	1
23	27	2
35	35	1
110	110	1
116	116	3
77	141	1
93	93	2
12	18	1
86	88	2
114	114	2
119	119	3
100	100	3
110	120	2
77	77	3
48	48	1
35	37	1
109	109	3
125	125	1
130	130	1
29	30	3
174	174	2
39	48	1
125	176	1
34	35	1
74	76	3
123	153	1
27	30	1
5	5	1
154	178	1
46	68	2
24	25	3
47	47	3
167	167	2
83	84	1
148	148	3
182	185	2
113	148	1
153	176	2
108	137	1
32	68	2
13	13	2
42	46	1
26	31	1
96	100	1
95	95	2
84	84	5
60	60	3
154	156	1
154	170	1
174	175	2
32	32	7
11	12	2
57	89	3
21	29	2
74	74	1
183	183	4
116	119	1
184	185	5
135	137	1
166	167	1
21	21	1
130	138	1
188	188	1
122	122	1
145	183	2
28	28	4
172	173	3
26	27	2
130	133	1
114	181	2
91	91	1
156	158	1
147	147	2
7	7	1
126	128	1
163	169	1
10	13	2
108	108	4
31	48	1
132	136	1
124	137	1
127	133	1
23	28	1
173	173	2
37	37	2
34	36	1
155	155	2
71	71	1
99	99	4
88	88	1
93	98	1
43	75	2
105	180	1
78	79	1
60	62	1
155	163	1
135	138	1
156	184	2
44	46	1
159	186	1
92	93	3
8	18	1
72	81	1
147	148	1
169	169	1
185	185	1
93	99	2
101	102	1
114	173	1
6	15	1
74	98	1
76	76	2
37	73	2
31	31	1
58	65	1
90	91	1
134	136	2
13	14	1
94	96	1
118	177	1
43	43	1
12	35	2
30	30	1
55	65	1
106	131	1
70	71	1
118	118	1
91	93	1
107	121	1
44	44	1
162	163	1
94	98	1
124	156	1
16	17	1
150	157	1
62	62	1
104	153	1
118	132	1
122	141	1
53	54	1
31	49	1
