127	144	1
141	141	6
99	99	14
104	105	7
114	114	5
42	42	3
129	129	5
64	64	3
151	156	5
134	134	2
43	66	2
81	81	4
39	39	7
167	167	4
1	1	4
17	17	10
161	166	1
164	165	3
143	143	5
172	176	2
132	132	10
135	154	2
31	34	4
85	85	5
157	157	3
75	75	8
18	18	1
28	31	2
41	41	6
34	34	9
148	148	4
160	167	2
22	22	10
88	89	7
103	106	4
76	77	4
122	122	2
20	20	3
8	8	4
7	26	5
149	149	6
52	102	2
128	128	7
173	173	12
176	176	3
104	107	1
163	164	3
16	16	3
32	33	9
152	153	6
10	10	4
118	143	3
136	153	5
115	115	4
177	178	4
131	135	2
37	37	8
14	14	4
162	162	4
1	25	2
2	2	5
35	42	2
121	121	1
55	55	2
10	14	2
110	111	3
80	80	5
18	24	4
32	32	9
26	26	3
126	126	7
56	86	2
169	170	3
38	39	1
3	6	2
174	175	3
151	151	4
145	145	3
174	174	2
94	94	6
12	12	2
142	142	14
18	19	3
0	0	5
43	44	6
43	43	10
9	25	3
122	145	2
10	13	5
147	147	2
30	31	3
79	79	1
9	9	2
152	152	3
171	178	2
6	6	6
137	154	3
12	23	1
16	17	1
12	13	4
127	128	4
145	149	8
139	139	5
170	170	1
92	140	1
111	112	1
175	175	6
120	120	5
168	168	4
7	11	2
33	34	1
43	64	1
66	67	1
131	132	2
125	125	8
64	65	2
101	101	5
17	22	1
40	40	4
168	169	2
147	171	2
53	53	6
8	9	2
19	19	4
24	27	1
39	43	2
78	79	3
16	36	1
8	10	2
88	88	1
119	120	2
11	11	6
124	124	6
31	31	10
159	159	1
142	143	4
45	45	14
21	21	11
53	101	1
145	146	3
163	166	1
160	162	4
105	105	2
5	5	4
107	107	3
98	100	1
90	112	2
29	31	2
4	6	2
150	175	2
28	28	4
37	38	5
154	154	2
133	133	4
25	25	5
100	100	6
112	112	1
24	24	4
103	103	4
2	9	3
38	66	3
93	93	2
61	64	1
119	119	6
87	87	2
33	60	2
154	156	1
7	8	1
59	86	2
126	128	2
138	138	5
179	179	2
123	123	3
62	98	2
165	166	2
111	132	2
19	114	2
24	25	3
140	140	6
24	31	4
124	125	5
74	75	2
104	104	4
137	138	1
82	89	5
173	175	1
99	100	3
113	113	1
86	86	1
91	91	6
27	28	2
137	137	4
118	119	3
167	169	1
65	65	7
170	174	1
30	30	3
84	86	6
24	91	1
121	122	2
36	36	7
73	73	4
33	33	3
40	44	1
120	127	1
3	3	1
170	171	1
11	35	2
35	35	1
106	107	2
83	85	4
89	109	1
80	91	2
24	26	1
60	60	4
75	76	1
141	146	1
81	93	2
25	26	6
21	23	2
156	157	3
57	57	3
163	163	1
131	131	3
128	143	1
68	92	1
29	29	1
32	122	1
171	172	3
111	118	1
156	156	1
127	127	3
23	29	3
138	139	1
138	145	1
98	101	2
1	2	3
4	27	1
154	159	2
56	57	7
155	155	3
158	158	3
161	162	4
2	17	1
95	96	1
52	52	1
98	98	1
66	66	1
144	145	3
52	53	1
24	28	2
126	127	2
171	171	2
158	159	2
11	13	3
5	8	1
97	98	2
71	75	1
1	27	1
78	78	3
129	144	2
58	103	1
61	80	2
120	153	1
134	138	3
128	145	1
58	89	1
3	30	2
120	121	1
102	103	1
2	33	2
10	11	2
112	113	1
36	39	2
159	170	1
83	84	2
59	72	1
114	122	1
4	4	4
127	130	1
58	58	2
169	169	3
18	20	3
115	117	1
58	84	1
42	76	1
45	46	1
5	22	2
1	6	1
19	22	2
61	62	1
72	87	1
146	146	1
103	105	1
72	72	2
57	58	1
150	150	1
81	82	1
32	34	1
38	38	1
2	11	2
32	101	1
37	66	1
83	87	1
4	9	1
53	54	2
140	148	1
84	128	1
62	63	1
140	153	1
84	84	1
118	120	1
7	10	1
60	61	1
77	77	2
133	134	1
63	79	1
5	7	2
41	42	1
165	165	1
73	75	1
116	117	1
108	108	3
118	118	1
4	22	1
156	162	1
143	144	1
56	56	1
83	126	1
27	27	1
134	148	1
146	147	1
