46	46	26
33	33	31
117	117	9
58	58	20
87	87	15
60	60	14
103	103	5
68	68	10
15	16	1
81	81	4
40	41	4
10	11	4
33	34	14
24	24	7
36	37	6
56	56	2
36	36	9
72	73	5
5	7	6
89	89	6
93	93	16
92	92	10
77	77	12
27	27	22
74	74	15
57	57	7
47	47	23
43	43	6
0	73	3
4	4	8
133	133	6
76	76	17
7	21	3
115	115	10
56	78	7
114	115	4
83	83	11
21	21	6
35	36	5
119	120	8
66	67	5
32	32	21
125	125	7
90	90	4
111	111	13
6	6	4
99	100	12
4	5	4
100	100	7
112	112	9
106	107	7
45	45	18
84	84	9
101	101	20
44	45	7
11	11	28
77	116	1
75	75	10
59	59	19
16	16	13
39	39	5
75	76	11
31	32	7
22	23	2
119	119	7
5	5	13
78	78	8
11	73	3
49	55	1
21	35	2
82	84	5
39	40	4
20	20	12
12	73	4
72	72	23
26	26	21
102	102	4
68	69	6
66	66	14
35	73	4
65	65	23
35	35	18
127	132	7
30	30	8
108	116	3
110	111	5
18	18	17
48	48	6
19	20	12
91	126	4
26	28	2
20	21	9
24	30	1
131	131	8
132	134	3
127	127	4
19	19	10
40	42	6
97	97	8
31	31	5
94	98	2
110	110	12
95	96	11
8	9	9
34	35	10
84	85	6
1	1	6
112	113	2
78	79	7
100	101	10
29	30	5
23	29	1
22	22	2
18	19	4
31	56	1
109	109	9
112	114	3
33	36	1
8	76	9
34	34	19
108	108	5
8	27	2
69	69	7
3	3	6
20	25	2
7	7	10
43	44	1
90	92	5
29	29	24
128	129	4
85	85	12
86	86	6
114	114	2
98	98	4
79	79	5
121	121	8
25	33	3
82	82	17
123	123	16
26	27	9
23	26	2
92	93	1
118	120	2
116	116	11
130	130	11
28	28	6
42	42	4
105	105	2
29	32	3
80	81	4
64	65	4
95	95	15
31	59	2
107	107	4
17	17	18
4	6	1
109	111	6
16	46	1
45	46	3
67	68	3
12	14	1
8	11	2
58	59	9
67	67	5
13	72	6
11	93	9
8	8	25
29	48	2
56	57	6
36	42	2
32	82	1
126	126	10
41	42	5
91	128	2
6	32	3
16	17	9
21	78	2
73	74	8
84	87	1
10	10	13
70	71	3
94	94	11
107	108	2
37	38	2
47	102	1
122	122	7
92	133	2
90	91	1
80	80	2
73	73	10
40	40	7
46	61	1
117	118	5
2	3	2
61	61	15
10	85	5
8	36	3
71	71	13
13	29	2
122	132	3
27	84	2
26	47	1
96	96	5
118	118	6
126	130	7
126	127	3
65	66	3
13	13	10
78	80	4
27	29	3
19	24	1
93	128	3
14	15	2
48	49	1
12	13	6
121	122	2
32	33	11
27	83	2
46	83	3
32	79	2
7	8	5
97	98	5
97	100	2
91	93	4
35	47	2
125	126	7
2	2	8
118	119	3
94	126	1
77	81	1
70	70	9
12	12	13
62	62	7
13	45	1
120	120	11
104	104	2
96	101	4
76	77	6
85	105	3
113	113	1
96	97	4
45	90	1
15	15	6
111	112	1
12	17	3
5	6	4
7	19	3
14	72	2
73	117	4
29	59	3
6	7	6
30	31	1
71	73	3
3	12	1
126	131	2
37	37	6
25	27	2
129	129	6
63	64	5
14	14	5
17	37	1
122	125	1
28	79	1
63	63	9
23	35	1
12	47	1
23	25	2
19	25	1
45	64	1
13	14	1
19	41	3
93	126	2
21	62	3
99	99	9
62	63	3
105	106	2
25	25	4
60	61	1
57	59	2
91	94	2
41	41	4
30	49	3
18	36	3
11	46	1
69	71	1
81	82	7
70	72	1
105	108	1
18	28	1
64	64	12
103	104	3
123	124	4
122	129	2
85	86	4
25	26	6
77	78	2
82	85	1
55	55	2
108	109	2
114	116	2
28	91	2
61	90	5
106	106	2
79	81	3
0	0	2
120	125	2
44	44	11
81	84	2
38	40	1
128	128	3
98	99	3
24	25	1
126	128	2
91	91	4
4	26	2
57	58	3
17	45	1
115	116	4
38	41	1
3	19	1
88	90	1
18	30	1
82	83	8
46	47	1
22	25	2
48	80	1
90	94	1
122	126	3
9	46	1
21	58	2
59	60	3
69	70	1
100	112	2
115	126	1
93	98	1
91	92	4
66	124	1
75	119	1
38	38	1
34	76	1
31	79	2
109	110	2
26	92	2
22	38	1
34	36	2
21	22	1
66	123	1
47	48	4
39	41	1
55	99	1
86	87	4
23	24	1
9	9	5
87	88	2
27	85	2
78	81	1
27	28	5
6	31	3
8	10	1
19	27	1
124	130	1
28	32	1
85	114	1
83	84	1
132	133	1
27	92	2
86	93	1
95	126	1
94	95	3
96	114	2
41	43	1
93	94	1
34	74	1
9	10	3
87	89	1
127	128	1
124	124	9
29	49	2
13	124	3
24	27	1
123	130	2
25	79	1
45	91	1
10	17	1
83	97	3
24	83	1
11	13	2
25	47	1
3	4	3
106	114	1
25	28	1
101	113	1
28	30	2
134	134	2
10	36	1
78	116	3
55	56	2
122	130	1
28	78	1
61	72	1
89	93	1
57	78	2
20	23	1
9	12	1
37	40	1
101	102	2
38	80	1
100	111	3
45	60	1
121	123	2
98	100	1
103	106	1
93	127	1
38	39	1
28	29	1
58	78	1
73	124	1
49	49	2
12	85	1
45	71	2
129	134	2
83	85	1
47	96	1
10	15	1
105	113	1
27	96	1
81	83	1
7	10	1
19	26	1
33	37	1
61	76	1
110	112	1
7	18	1
0	1	2
89	102	1
128	134	1
35	76	1
30	32	1
117	121	1
10	33	1
32	48	1
1	62	1
18	29	1
24	33	1
34	73	1
17	46	1
28	96	1
31	48	1
58	80	1
25	93	1
