75	75	64
16	16	38
3	3	44
80	80	57
71	71	26
40	43	11
26	79	2
23	25	10
49	50	4
84	84	60
46	46	43
10	10	64
93	93	60
1	1	19
110	134	5
12	12	39
4	5	16
76	76	42
27	27	44
70	70	46
34	34	57
20	20	36
65	66	15
7	16	1
11	12	27
30	30	50
3	28	1
94	95	21
69	70	20
12	36	1
21	21	25
77	78	17
75	76	16
97	97	47
58	59	10
99	99	33
64	64	48
59	60	8
76	77	11
3	87	3
29	29	39
27	95	6
8	8	41
116	117	13
11	11	90
33	34	10
19	19	38
2	2	17
122	122	9
37	38	10
48	49	5
35	77	10
99	100	25
42	43	12
86	87	9
84	85	20
25	27	4
26	26	81
82	82	41
28	28	53
51	51	12
97	98	29
9	92	7
107	110	2
59	59	37
81	81	34
7	7	40
100	122	1
68	68	60
4	4	17
92	94	3
32	33	24
19	46	3
92	92	13
88	91	9
78	79	14
75	119	2
79	79	31
127	128	8
25	46	1
126	128	3
74	74	45
26	47	5
35	43	11
77	77	38
57	57	41
11	69	2
130	130	22
60	61	7
3	101	6
60	60	33
126	126	28
37	37	40
24	24	35
115	134	2
0	0	18
4	6	25
73	73	52
17	17	35
13	17	1
27	28	26
112	113	19
92	104	2
105	105	15
66	67	7
26	48	6
124	124	18
25	25	54
27	39	1
9	9	29
85	86	9
118	118	35
66	66	33
67	67	22
27	77	1
44	45	4
88	104	2
15	15	46
47	47	64
113	113	20
111	134	2
95	95	50
23	23	25
45	46	10
8	36	3
70	71	10
36	37	13
32	32	49
104	106	7
44	55	4
15	16	21
62	62	48
108	109	3
112	116	2
57	58	23
94	94	35
3	88	2
101	101	56
36	36	29
34	35	18
38	38	28
88	88	36
19	48	1
31	32	33
64	65	10
127	127	37
21	35	3
81	82	21
65	65	54
44	44	39
89	94	6
114	131	8
113	114	14
43	43	27
112	112	25
30	32	4
133	134	8
29	60	7
117	117	21
25	26	17
114	114	15
35	75	8
74	75	5
18	18	43
19	20	20
23	26	3
80	81	7
56	56	39
18	27	3
18	32	2
100	100	25
27	29	11
12	13	10
48	50	9
107	107	12
102	102	24
113	118	1
94	114	1
104	104	15
78	80	2
14	14	17
1	19	1
25	33	5
78	78	32
26	27	16
96	118	4
25	47	3
110	110	27
31	31	36
106	106	29
45	45	51
39	39	13
123	124	8
83	83	41
129	130	9
25	39	1
107	108	7
20	34	4
18	19	5
35	35	32
96	96	20
63	63	38
82	83	12
128	129	3
87	87	28
98	98	31
82	85	5
128	128	37
72	72	51
116	116	26
123	123	21
55	56	13
3	9	5
111	111	17
125	125	13
132	132	15
7	83	2
109	130	6
56	57	12
86	86	29
69	69	16
119	119	29
46	72	4
22	22	37
49	49	6
95	96	13
29	48	4
1	25	1
51	54	4
87	106	3
87	88	14
11	14	11
27	30	4
120	120	8
93	94	22
4	30	4
58	58	38
90	91	12
119	120	11
20	57	5
6	6	29
40	40	12
61	61	36
33	33	40
89	95	3
102	104	5
72	73	11
111	114	8
10	18	1
45	96	2
23	24	18
108	108	31
97	100	3
64	96	2
109	112	7
121	121	14
89	91	6
62	64	2
39	41	1
31	57	4
46	61	8
77	83	1
5	5	27
9	10	9
92	93	15
114	116	3
49	51	3
4	25	4
122	125	3
130	131	5
21	48	4
78	82	2
103	115	4
15	23	6
98	100	4
24	82	3
63	73	1
67	68	11
109	109	24
23	27	1
24	26	1
46	70	1
126	127	6
79	81	21
26	28	6
6	7	15
68	69	12
23	74	1
24	48	1
43	44	17
83	84	6
16	23	6
35	95	6
113	115	5
5	88	4
109	111	1
96	97	18
88	95	2
129	129	9
15	60	2
29	34	5
5	6	20
133	133	11
63	64	8
24	25	24
13	13	37
25	30	2
134	134	16
116	120	3
79	80	14
114	115	8
82	84	5
93	105	2
25	48	4
103	103	19
4	7	2
28	96	2
20	21	12
48	48	25
87	101	2
26	31	3
88	106	4
29	33	2
32	35	1
31	56	3
73	74	10
29	30	10
22	48	4
94	99	1
110	133	4
28	80	10
86	89	2
110	130	2
39	40	6
35	36	25
46	47	13
13	27	5
113	117	6
106	107	9
41	41	8
32	95	1
69	71	3
71	72	5
131	132	4
103	134	2
115	115	19
45	64	11
104	107	6
110	111	4
34	45	3
115	116	2
34	43	5
18	20	1
54	93	5
29	37	4
96	98	7
60	125	3
38	39	9
6	8	4
33	46	5
50	50	9
90	101	5
132	133	4
21	22	9
34	86	2
61	62	6
85	85	29
59	75	3
4	89	1
20	55	4
112	117	2
24	40	2
44	84	2
93	98	3
7	97	2
111	113	10
114	132	3
10	11	7
113	116	4
89	89	4
34	36	6
62	63	11
112	134	1
123	125	4
14	15	11
9	34	2
7	44	1
118	119	3
22	36	1
23	39	4
27	48	1
42	44	5
43	55	3
41	55	1
8	9	8
42	42	27
83	96	6
46	62	4
16	57	2
122	123	13
29	47	5
117	133	1
91	91	7
8	25	3
100	101	11
10	34	4
111	112	6
15	21	4
98	99	8
42	79	10
63	67	2
124	125	11
86	88	11
92	102	8
27	82	1
23	40	3
41	42	9
110	115	4
8	75	4
95	100	6
9	23	4
95	101	8
131	131	10
92	134	3
101	118	3
121	122	13
22	55	3
60	74	4
27	47	2
28	48	2
11	13	5
127	131	4
86	127	2
15	98	2
85	87	1
3	46	2
1	3	5
90	90	21
22	54	6
43	85	4
109	110	3
99	101	5
19	22	1
94	101	1
108	111	4
48	78	5
94	102	5
109	132	1
44	56	2
10	14	6
102	103	2
110	132	1
57	108	3
8	26	3
29	32	3
14	60	4
117	118	6
4	9	2
49	92	2
6	89	1
30	56	2
11	70	2
76	121	2
47	96	1
4	100	2
116	133	3
94	116	10
16	20	2
38	42	3
6	93	1
45	100	3
27	80	3
1	2	9
7	75	4
2	32	1
28	91	1
55	55	16
103	104	3
44	75	1
23	57	2
3	90	2
25	81	4
85	126	4
16	30	1
0	2	1
35	45	1
45	71	1
17	32	4
11	93	8
83	97	1
106	131	7
7	47	4
40	82	6
120	125	1
105	106	3
114	134	4
35	78	2
5	25	2
21	36	7
16	17	2
47	89	1
48	90	4
30	47	5
88	132	1
10	83	1
3	4	10
128	130	1
35	74	5
7	25	4
94	118	1
26	97	2
28	29	5
115	132	4
97	99	5
86	128	3
55	58	2
108	110	1
18	57	1
84	87	3
61	85	3
7	26	2
68	71	2
91	106	12
25	82	5
85	117	3
35	102	2
23	58	1
7	64	2
27	92	1
24	81	1
84	86	4
95	122	2
66	83	6
64	71	3
104	133	1
104	105	10
130	133	2
76	78	3
33	60	3
7	84	3
96	99	3
31	33	2
15	37	1
9	60	1
61	73	3
81	83	1
10	16	5
6	100	3
12	70	1
93	106	2
127	130	3
120	122	3
32	57	4
35	37	1
90	115	3
40	41	12
83	85	4
114	117	1
42	55	1
78	81	2
70	72	2
15	17	3
85	128	2
29	46	2
77	79	1
91	93	2
12	20	1
37	75	1
116	134	1
120	121	2
2	28	1
37	39	1
17	18	2
32	37	4
92	99	1
42	85	1
39	77	3
86	96	2
47	122	1
20	40	1
36	40	1
101	105	4
62	65	1
56	79	3
14	74	1
10	93	1
100	102	2
42	106	1
88	89	1
34	62	1
67	69	3
54	55	2
49	73	2
17	93	2
3	30	1
86	90	2
69	72	1
116	130	3
18	48	1
13	15	1
10	19	3
0	1	1
48	79	3
94	100	3
12	28	1
20	73	2
79	82	3
61	76	2
3	24	2
83	118	1
47	48	6
81	97	1
94	115	2
111	115	2
31	81	2
10	76	3
7	10	2
23	36	3
93	99	2
34	95	4
2	102	1
30	42	3
25	28	1
75	120	1
27	66	3
41	84	3
30	31	1
13	14	2
16	21	5
26	83	2
7	31	4
43	84	2
48	93	2
90	92	3
29	61	2
47	65	2
47	80	2
12	14	2
22	37	3
84	97	1
48	51	1
60	62	1
7	100	2
28	76	1
68	72	1
30	43	1
82	97	5
78	83	1
93	95	3
20	36	3
60	85	2
29	36	2
47	82	4
5	15	5
33	61	4
33	78	2
93	134	1
25	31	2
50	84	2
45	89	3
101	133	3
88	98	1
20	22	1
61	72	1
14	29	1
28	56	1
48	98	2
91	92	3
10	13	1
22	23	3
110	114	5
33	76	2
58	109	5
34	76	1
113	134	2
28	30	1
95	99	1
42	84	1
7	8	6
4	88	2
31	37	2
5	84	1
29	49	1
14	93	3
97	101	3
102	105	1
5	37	3
27	32	1
6	25	1
101	102	4
34	102	2
11	49	1
27	31	1
1	28	2
11	35	2
122	124	2
22	76	1
39	42	2
43	106	1
58	124	1
49	89	1
15	36	1
63	97	2
128	131	1
88	93	2
67	74	1
32	56	2
23	47	1
10	73	1
111	133	2
28	33	1
24	27	1
7	94	2
54	56	1
21	37	1
26	96	1
22	25	2
0	33	1
10	70	3
11	85	2
107	134	1
112	114	1
29	59	1
38	82	1
110	116	1
11	96	1
23	60	3
37	78	1
125	126	1
88	116	1
47	49	1
30	33	1
55	78	1
27	98	2
26	72	2
27	90	1
65	74	1
18	47	1
118	123	2
7	86	1
88	94	2
9	75	1
89	114	1
73	75	2
43	47	1
94	98	2
59	74	1
103	112	1
68	74	1
7	45	2
28	44	1
114	130	1
36	38	1
2	3	2
82	123	1
27	89	1
29	62	1
26	30	1
5	98	1
32	36	1
22	35	1
75	77	1
99	104	1
13	47	1
10	26	1
99	102	1
65	73	1
59	83	2
13	28	1
19	73	1
28	31	1
62	67	1
37	59	1
60	124	1
2	18	1
80	82	2
25	38	1
36	78	1
24	74	1
56	100	1
