56	56	9
180	182	2
187	187	10
30	31	2
1	2	1
194	194	19
12	12	20
112	112	16
147	147	15
197	197	10
183	183	13
111	245	2
171	171	13
93	93	8
40	44	2
62	62	4
202	202	13
149	149	3
182	182	17
158	176	4
37	38	5
245	245	14
167	167	16
109	109	21
205	205	20
84	86	3
54	54	3
168	168	21
187	188	6
110	112	2
160	160	23
97	97	15
179	180	11
179	179	16
90	91	4
203	203	11
65	65	20
91	101	1
174	174	10
78	79	6
200	200	17
224	248	1
19	64	1
184	184	12
189	190	5
29	29	20
181	182	4
72	73	11
178	232	1
5	5	11
159	179	1
79	79	8
78	78	19
228	228	15
220	220	14
150	151	12
66	67	7
166	166	7
61	101	3
86	86	11
61	73	5
204	204	29
50	50	7
201	201	24
169	169	13
89	90	3
211	212	5
197	198	4
244	244	24
51	52	15
199	199	13
109	110	5
16	51	3
152	152	14
176	176	9
236	236	18
42	42	12
85	86	6
159	176	3
31	32	5
64	64	11
25	27	1
240	240	3
90	90	14
158	181	1
163	232	3
65	66	9
247	247	9
42	62	1
41	41	18
146	146	3
16	16	13
221	221	20
15	15	11
9	9	15
56	59	3
28	28	12
158	159	6
153	154	7
223	224	4
70	70	10
110	110	19
241	242	13
154	154	19
55	55	30
198	198	14
208	208	13
29	31	2
84	85	4
20	20	15
31	51	2
91	92	4
201	227	2
5	38	5
40	40	16
171	172	1
212	212	17
226	227	5
45	45	19
53	53	15
15	17	1
119	121	1
88	88	14
178	191	1
103	103	7
19	19	10
58	58	16
102	102	13
178	179	6
88	89	2
217	217	12
113	113	13
153	153	7
213	214	9
155	155	11
212	213	2
218	218	12
44	44	16
43	43	11
227	230	4
151	151	24
10	10	5
186	186	22
206	206	9
7	7	17
239	239	5
112	114	2
210	211	9
194	196	1
118	118	15
37	37	16
22	41	1
101	101	4
63	63	12
115	115	10
156	156	19
144	144	3
214	215	7
103	105	3
58	59	9
241	241	14
35	38	3
49	49	7
180	180	8
34	48	1
219	220	4
175	175	10
106	106	3
36	36	26
189	189	17
227	227	13
191	192	7
208	235	1
13	14	3
39	40	13
74	74	5
219	219	10
145	145	18
61	61	12
150	155	2
233	233	16
96	96	13
237	237	6
92	92	13
150	150	18
14	14	16
161	161	8
20	24	5
11	11	17
48	69	2
178	198	3
111	112	9
162	162	12
223	223	7
105	105	9
98	110	4
184	185	6
31	31	10
239	241	3
106	107	2
172	173	8
249	249	5
214	214	16
27	27	16
152	153	6
84	84	6
202	203	3
162	165	3
226	226	16
173	173	11
8	8	10
35	35	10
165	165	6
196	225	1
91	91	13
32	32	18
231	246	1
75	75	7
181	181	10
89	95	2
229	229	16
164	164	20
0	17	1
159	172	2
178	178	15
49	50	1
2	2	4
207	207	26
186	207	5
200	227	3
80	80	8
38	38	13
167	168	2
227	239	2
54	55	2
192	192	8
169	171	1
56	57	2
209	212	3
245	249	3
154	155	5
158	158	6
24	25	5
232	232	11
166	191	1
186	192	1
6	16	2
76	76	12
11	19	5
85	85	6
172	174	10
224	224	11
111	111	6
71	72	5
9	204	3
176	177	3
53	54	3
1	1	8
234	234	12
71	71	4
48	48	15
196	196	13
225	225	8
79	80	4
95	95	9
188	188	7
230	233	5
114	114	12
248	248	4
5	14	2
67	67	15
203	204	5
182	183	5
61	70	1
215	215	7
48	51	1
159	159	10
164	171	4
88	108	2
179	187	1
116	116	8
157	157	13
230	230	11
152	193	2
172	172	21
231	231	8
214	217	3
21	21	8
32	53	2
9	10	7
233	234	7
76	77	1
21	24	2
243	243	9
117	117	14
107	107	10
167	171	4
47	47	7
60	61	7
33	66	3
114	115	8
81	82	3
3	6	3
74	76	2
10	15	2
33	33	13
211	211	9
31	52	4
24	24	8
12	36	3
185	185	4
22	22	11
66	66	10
35	98	1
119	119	7
111	113	1
220	222	1
47	60	1
110	145	1
213	213	11
215	236	2
168	182	1
179	181	3
68	68	9
222	236	3
168	169	3
6	6	5
77	77	11
0	0	5
153	204	1
163	198	1
46	46	19
56	58	1
148	157	2
209	209	9
23	24	5
37	55	4
204	205	6
6	224	4
49	78	4
161	233	8
163	163	6
3	5	2
173	174	6
26	26	2
104	107	5
161	163	1
80	81	2
86	90	1
193	193	9
34	35	3
7	9	1
42	43	6
169	170	10
17	21	3
208	209	3
100	100	12
215	216	2
98	98	9
186	187	1
19	52	1
41	43	2
100	104	5
19	20	7
89	98	2
209	210	2
57	58	8
248	249	3
4	4	7
185	234	1
3	3	8
46	56	3
196	197	3
39	39	9
188	189	5
59	59	4
99	100	3
224	236	1
173	197	1
149	150	10
240	241	10
15	33	4
157	158	5
14	19	2
34	34	11
177	178	3
90	92	3
198	199	6
193	225	2
78	80	2
80	83	1
155	156	2
218	220	4
17	17	9
163	171	2
162	163	2
6	10	1
112	113	3
193	194	5
89	91	2
1	4	1
52	160	1
108	113	1
41	42	8
120	149	1
185	186	3
241	245	5
187	189	5
224	238	1
190	190	9
213	215	2
61	63	4
54	68	2
73	74	4
193	195	5
75	83	2
207	234	3
61	62	5
102	115	2
94	94	11
86	87	1
6	199	1
170	170	10
14	15	4
29	35	2
82	99	5
33	51	1
102	103	2
52	53	1
222	222	15
117	118	5
201	230	2
48	62	1
28	51	4
223	235	4
15	35	2
63	90	1
55	56	5
209	217	2
108	108	5
235	236	5
25	25	12
238	238	13
87	87	6
32	45	1
155	202	1
81	89	2
92	98	1
209	236	1
195	195	5
7	187	1
175	176	3
240	242	3
9	200	2
168	170	2
161	180	2
195	196	10
95	100	2
157	165	1
16	17	1
207	213	3
243	244	6
169	172	3
75	76	1
81	81	5
115	118	1
218	219	3
61	67	2
51	54	3
30	30	8
214	216	2
7	224	1
37	48	2
37	47	1
48	50	1
93	102	2
187	230	1
227	228	4
82	89	2
151	154	3
57	64	2
22	24	2
52	52	7
162	227	2
15	223	1
201	202	1
153	165	1
11	15	1
208	210	3
235	235	5
177	179	2
1	6	2
177	191	2
72	75	1
29	39	2
59	64	3
89	89	8
104	104	6
100	101	4
9	11	3
54	97	1
48	49	4
105	107	1
44	46	1
237	246	2
115	179	1
16	226	1
191	193	2
86	147	3
207	208	2
17	52	3
165	175	2
158	170	1
199	200	2
105	106	2
172	187	2
87	104	1
23	23	4
193	196	3
216	216	1
72	85	3
60	90	2
21	22	1
150	178	5
180	181	3
165	172	4
43	44	2
177	177	3
204	230	1
206	207	8
36	245	2
110	115	4
62	70	1
120	120	4
222	225	1
163	187	2
59	67	2
202	228	1
160	181	2
181	183	2
191	191	1
165	177	1
177	180	2
194	195	2
33	52	3
97	98	4
199	238	2
60	68	1
12	19	2
183	185	2
1	40	2
93	94	1
165	169	1
200	201	2
6	7	2
162	164	2
188	191	3
40	43	4
183	184	1
157	181	3
215	217	2
175	205	3
190	192	1
63	86	3
32	33	5
197	204	3
164	232	1
5	12	1
33	36	2
238	247	1
2	12	2
51	51	12
113	117	2
71	75	2
60	60	3
239	240	1
32	39	1
14	33	1
46	89	1
79	83	4
109	112	4
29	30	3
188	230	1
26	203	2
18	60	2
238	245	6
244	245	3
170	171	1
53	150	3
221	222	6
192	193	2
200	240	2
210	210	5
237	240	2
22	32	1
201	221	1
115	116	9
13	35	2
225	226	1
205	230	2
159	160	3
238	239	3
65	98	2
18	18	16
19	61	2
28	29	4
217	219	4
188	240	3
189	242	2
181	196	1
103	107	1
188	190	2
8	205	3
76	89	1
165	174	1
62	63	3
83	84	2
105	237	2
115	120	1
115	119	1
120	144	1
119	120	3
108	109	2
245	246	5
180	196	2
72	72	5
221	225	2
58	107	1
69	69	2
225	237	2
178	183	1
186	202	1
244	249	1
88	111	2
179	195	1
92	93	2
242	242	5
74	85	1
99	99	3
97	118	1
66	106	1
87	88	3
207	212	3
4	12	3
209	211	2
233	246	3
176	178	1
242	243	1
24	26	1
11	110	1
212	214	1
210	234	2
38	39	4
193	197	4
202	211	2
77	78	3
146	147	3
3	4	2
4	223	2
201	212	1
232	245	1
233	235	2
207	244	2
20	36	2
160	161	2
166	181	2
25	26	1
28	190	1
13	34	1
246	246	3
2	5	2
57	57	2
154	156	2
163	231	1
68	70	3
39	47	4
39	55	2
201	205	2
36	39	1
217	218	2
20	26	1
194	198	1
26	27	1
226	240	1
166	167	2
0	8	1
2	11	3
164	165	1
160	165	1
17	18	1
3	61	1
200	246	1
153	212	1
201	228	1
220	235	1
203	230	3
6	14	1
15	16	1
211	223	2
161	198	1
102	104	1
109	117	1
202	229	1
90	106	2
161	228	2
47	48	1
219	223	1
111	117	1
203	226	1
82	84	2
46	62	1
206	213	2
8	203	1
96	102	1
16	52	3
29	48	1
175	192	1
71	78	1
244	248	1
114	116	1
0	1	1
112	117	1
201	203	1
223	237	1
246	247	2
60	71	2
201	229	2
180	189	1
57	59	1
222	223	1
8	198	1
163	164	2
9	16	1
103	106	2
174	175	3
234	235	1
151	186	1
28	47	1
236	244	1
183	209	1
36	37	1
164	172	1
28	56	1
65	67	1
67	68	1
83	85	2
208	240	1
193	200	1
94	97	1
230	231	1
38	58	1
12	14	1
36	40	1
19	65	1
205	206	1
47	57	1
22	23	1
35	48	1
216	217	1
34	36	1
99	116	1
4	5	2
178	180	1
67	71	1
27	28	1
184	209	1
9	197	1
99	112	1
79	81	1
18	49	1
174	205	1
232	233	1
27	47	1
50	62	1
210	222	1
8	9	1
28	59	1
18	47	1
111	145	1
224	225	1
199	201	1
202	230	1
73	85	1
