115	115	14
46	46	7
85	85	3
56	56	4
88	88	6
82	114	2
41	72	7
7	7	11
92	93	5
69	70	2
128	128	7
41	41	5
27	27	7
118	118	6
126	126	10
81	81	6
73	73	10
61	62	1
130	130	8
86	88	4
39	39	3
65	65	2
8	8	8
104	111	2
21	21	4
111	111	11
105	105	9
100	100	4
96	96	5
61	61	3
50	50	7
70	95	1
41	42	10
116	116	5
4	12	3
129	129	9
16	32	1
0	1	6
114	115	3
70	70	1
79	103	1
39	72	1
42	43	5
67	67	5
85	88	4
114	128	6
40	40	5
94	94	10
60	95	5
78	80	3
45	45	2
40	45	1
96	101	2
19	19	12
24	25	4
54	54	12
17	22	1
34	41	1
67	101	3
49	49	9
106	106	4
63	122	2
121	121	8
85	86	1
51	51	10
128	129	7
117	132	1
43	45	2
31	32	2
68	68	8
58	58	5
119	128	1
93	93	6
110	110	4
132	132	5
125	125	14
96	98	4
47	70	2
55	56	3
92	92	9
122	122	3
55	55	3
11	14	2
69	69	2
53	53	22
0	8	1
107	108	3
27	31	3
104	105	4
48	49	6
73	74	5
43	43	3
60	60	5
28	28	8
38	38	3
90	90	7
105	106	8
20	27	1
62	63	4
22	23	3
119	119	8
30	30	4
43	44	3
12	12	2
115	118	3
11	11	10
23	43	1
83	84	3
111	112	2
132	133	1
1	1	6
57	112	1
34	62	2
84	84	13
5	5	5
54	77	3
57	57	7
113	117	2
79	79	5
83	83	9
87	88	2
15	15	2
88	90	1
127	127	2
10	11	1
29	52	3
108	108	6
64	64	6
33	96	1
56	57	1
64	68	1
48	48	9
127	128	7
26	26	5
82	83	3
86	86	4
40	58	1
47	48	2
13	13	2
20	29	4
83	86	2
10	92	2
64	76	3
72	73	2
104	104	3
22	22	3
62	128	5
18	21	3
45	68	1
15	16	1
3	4	3
112	112	4
88	109	2
105	111	1
10	10	5
76	76	3
102	108	3
95	95	7
89	93	1
15	22	1
95	96	1
102	119	4
120	120	8
119	127	4
46	47	1
63	63	6
75	75	2
25	27	4
101	103	1
9	9	2
74	77	4
114	116	4
2	3	1
43	77	1
89	89	2
113	113	4
128	130	1
97	97	1
42	72	1
101	101	8
41	45	1
44	45	2
122	124	3
56	109	2
98	98	5
75	76	3
25	25	2
110	111	2
58	59	4
98	116	4
41	73	1
65	68	1
109	109	1
123	123	2
15	33	3
40	44	3
131	131	6
45	46	1
60	94	2
40	56	1
64	95	2
34	68	1
50	53	1
114	114	2
59	60	2
76	84	1
31	62	1
1	3	1
117	117	4
96	117	1
4	4	2
34	34	1
33	99	3
49	50	2
18	18	1
23	23	3
59	59	4
2	2	6
78	78	1
124	124	5
44	65	1
6	7	2
126	127	4
70	92	1
24	24	3
25	26	1
112	113	1
116	117	1
60	61	1
93	113	2
47	47	2
39	58	1
122	123	1
123	124	2
27	92	2
70	71	2
52	52	1
44	46	1
44	44	2
17	19	1
42	44	1
104	115	1
71	71	3
105	133	1
78	79	2
66	67	1
91	91	1
129	130	1
90	91	1
106	107	3
67	73	2
5	13	1
78	102	1
65	96	1
105	110	1
96	114	1
70	72	1
8	9	1
34	64	1
27	28	3
46	56	1
117	118	1
42	42	3
31	94	1
51	52	1
17	17	2
116	119	2
79	82	1
84	85	2
84	91	1
30	99	1
0	0	3
62	62	2
63	68	1
26	59	1
72	72	3
80	80	1
67	68	1
66	102	1
15	92	1
60	99	2
118	119	1
84	87	2
29	47	1
107	107	1
29	29	1
64	88	1
65	66	3
99	99	1
126	129	1
64	81	1
32	32	1
67	72	1
101	108	1
97	98	1
80	81	1
