43	43	4
67	69	2
56	56	6
95	95	2
107	150	2
75	75	6
45	45	6
82	82	6
39	39	4
78	150	2
147	147	5
30	139	2
37	39	2
88	89	2
7	12	1
153	153	6
119	119	7
144	145	5
100	100	7
124	124	3
69	69	4
14	14	8
14	19	4
55	72	2
106	108	2
49	123	3
54	54	6
26	28	5
79	82	1
12	13	2
108	108	8
9	11	1
69	70	4
66	67	1
65	65	10
144	148	1
0	37	3
50	50	9
105	106	1
89	90	1
135	136	7
79	89	1
32	32	7
28	28	11
49	49	7
74	74	5
124	126	7
136	137	2
21	21	5
116	116	4
17	18	2
138	138	5
118	142	1
139	139	9
157	157	9
34	35	1
131	142	2
18	30	2
125	126	10
78	79	3
42	42	10
146	147	3
6	113	2
120	148	2
72	72	6
83	87	4
105	105	5
129	129	6
80	81	1
105	159	2
7	30	3
136	136	3
50	98	1
10	10	3
78	78	10
46	51	1
8	31	2
92	92	8
155	155	6
151	151	9
117	117	4
23	47	2
105	151	2
84	85	1
7	18	1
46	47	2
67	67	3
31	33	2
82	83	4
32	36	2
26	42	1
107	108	1
106	151	4
152	154	1
41	41	2
123	123	5
3	4	1
98	98	8
40	40	13
23	147	2
15	15	1
125	125	8
9	10	5
152	152	3
23	23	6
26	26	1
96	96	9
83	86	2
35	63	5
80	102	2
109	110	3
87	88	4
81	106	2
119	120	2
19	31	11
28	29	1
25	26	2
108	150	1
46	46	8
68	71	4
123	131	2
116	123	2
119	144	1
136	141	1
105	158	5
55	55	1
154	156	5
77	77	2
52	52	4
3	3	11
145	147	2
99	99	5
65	67	1
99	100	3
101	101	6
148	149	1
134	134	8
97	97	3
5	5	2
32	33	3
93	93	9
112	112	3
39	142	3
44	44	4
24	27	1
142	142	4
157	158	3
25	25	2
129	130	3
70	70	3
130	130	4
115	115	2
89	146	5
148	148	7
8	54	5
13	13	6
80	80	8
9	9	2
156	157	3
56	72	3
107	107	8
146	146	3
17	34	3
2	2	3
84	144	4
1	2	2
54	114	1
97	157	1
115	116	2
36	37	2
33	33	6
127	127	5
2	3	1
17	30	5
89	89	6
30	30	4
131	131	4
127	150	2
137	137	4
34	34	3
20	20	4
15	16	3
9	12	1
11	51	1
29	29	5
85	85	1
65	66	5
71	97	1
141	141	5
40	42	1
121	121	2
104	104	8
6	6	5
10	12	3
37	37	5
103	104	5
143	143	1
87	87	3
51	52	3
12	14	2
114	115	2
55	56	1
3	9	5
93	94	4
116	143	3
139	140	4
86	86	4
118	121	1
1	44	4
111	111	8
62	62	1
131	136	3
37	54	1
28	47	4
123	124	4
29	30	1
100	101	6
16	32	3
83	83	12
11	11	7
150	150	1
17	17	4
125	127	1
8	28	1
24	24	4
51	51	7
87	90	3
48	49	5
62	69	1
121	133	1
21	150	3
133	133	3
135	138	2
109	109	5
154	155	2
84	104	2
45	46	1
66	66	2
108	110	4
98	114	4
140	141	1
36	36	2
77	109	2
31	41	2
144	144	1
7	93	1
70	72	1
2	5	1
114	114	2
75	99	1
8	8	6
5	99	1
145	145	4
131	134	1
112	113	1
124	125	1
48	122	1
3	21	1
111	119	2
137	140	2
16	17	3
110	112	1
50	51	3
64	65	2
69	141	1
12	50	1
15	25	1
78	82	4
91	91	3
88	117	2
79	117	2
21	25	3
146	149	2
50	55	3
41	45	1
23	25	1
38	38	11
109	112	1
128	128	2
21	23	1
16	26	2
67	123	1
153	154	2
19	19	2
127	128	3
31	31	2
38	42	2
120	142	1
106	107	1
70	142	2
155	156	4
122	137	2
118	145	2
98	113	3
26	30	1
39	43	1
125	132	1
21	56	1
158	158	3
90	90	1
7	8	2
7	7	1
118	119	2
24	26	1
40	41	4
120	120	1
47	47	5
119	121	2
104	105	2
72	98	1
28	31	1
68	68	1
8	20	1
100	158	1
49	122	1
149	150	2
103	103	2
14	15	1
79	116	1
92	95	2
142	145	1
94	94	1
111	112	1
86	89	1
111	156	1
140	140	1
46	49	2
64	64	3
116	117	2
91	95	1
30	33	1
110	110	1
33	35	2
135	153	2
52	53	2
145	146	1
132	133	1
2	4	1
51	54	1
1	1	1
9	50	1
14	31	2
77	82	1
81	84	2
73	73	4
149	149	2
0	0	2
31	57	2
126	126	1
27	28	2
87	89	2
4	4	1
88	88	1
111	117	2
32	34	1
77	78	4
39	52	1
71	71	1
123	151	1
103	148	1
31	62	1
35	40	1
19	26	1
131	132	1
6	33	2
158	159	1
53	53	2
6	12	1
77	102	2
45	47	2
12	12	1
63	63	1
89	97	1
57	67	1
4	157	1
79	79	1
109	147	1
77	91	1
71	153	1
144	146	1
132	132	1
114	143	1
26	41	1
