68	68	18
89	90	8
52	52	8
81	86	3
67	92	4
54	54	16
84	87	3
34	35	1
99	99	14
27	27	9
59	59	12
59	85	5
56	56	33
104	105	2
100	100	8
49	49	8
25	25	7
95	96	3
71	72	8
76	76	13
43	61	2
77	77	17
103	103	13
50	51	5
50	50	16
81	91	4
36	36	13
93	93	17
94	95	6
47	47	11
104	104	11
86	89	3
25	26	2
78	78	17
39	39	11
56	57	12
22	22	9
88	88	21
83	87	3
75	75	5
87	87	22
57	57	17
23	24	1
61	61	24
52	53	3
26	29	2
55	55	14
64	65	2
47	57	5
100	101	3
34	34	10
29	29	17
76	82	2
30	31	12
69	69	9
62	63	8
89	89	17
24	30	6
30	30	15
41	43	3
96	97	9
102	103	2
40	40	11
97	98	15
63	63	13
27	28	3
70	70	17
82	83	10
96	99	2
98	99	5
53	54	3
81	81	11
47	49	4
21	22	3
105	105	27
37	37	11
85	87	3
32	32	14
36	49	4
21	21	14
51	52	10
33	34	6
33	33	8
102	102	18
60	60	15
88	89	7
68	70	6
58	58	8
77	79	4
55	62	3
41	46	5
63	80	1
31	32	5
79	80	10
66	66	13
85	86	6
53	55	1
73	73	13
97	97	21
87	88	6
93	100	6
89	93	1
55	75	1
95	97	3
38	39	3
55	65	2
46	46	5
51	51	8
71	71	17
82	82	15
106	106	4
91	91	30
45	47	2
35	35	12
32	33	5
97	99	7
65	65	6
52	106	2
101	101	9
84	85	9
64	70	3
48	49	6
86	86	12
94	94	6
85	85	5
53	91	2
55	58	1
44	45	2
55	56	11
32	48	6
80	100	2
37	93	2
78	79	14
35	36	5
54	55	7
44	44	5
40	44	7
74	75	8
62	62	10
64	64	14
96	96	16
67	67	12
27	45	6
71	78	1
79	79	5
67	69	1
41	41	5
23	100	1
76	78	4
72	73	4
23	41	1
61	63	4
72	72	7
98	98	11
39	40	3
38	38	13
26	27	4
22	39	1
29	30	2
72	85	1
20	20	5
45	45	8
56	87	1
31	31	9
74	74	16
31	97	1
80	80	13
70	71	8
41	44	1
83	83	10
23	23	10
60	61	1
64	73	1
61	62	5
54	87	4
28	28	17
36	37	5
19	19	2
31	33	5
68	69	3
78	80	3
92	92	1
67	68	4
54	56	2
37	38	3
65	89	1
48	48	5
37	92	3
91	101	1
28	46	1
51	54	4
72	83	1
41	81	3
42	42	3
65	70	1
78	83	1
71	77	7
41	78	1
24	24	9
41	48	2
91	92	3
52	66	1
52	70	1
50	52	1
79	82	1
49	57	5
28	29	2
93	94	8
83	84	10
65	84	4
52	76	4
84	84	3
35	52	1
27	61	2
65	66	2
45	46	4
101	102	1
95	95	4
38	43	3
42	80	4
57	58	10
90	91	5
60	72	2
86	87	3
76	77	4
58	84	4
81	85	2
67	91	2
40	45	7
100	102	1
26	26	8
47	48	1
74	78	3
79	81	1
76	79	5
70	77	3
77	78	4
54	89	4
36	50	3
32	42	1
66	86	3
53	53	8
22	44	1
59	84	1
86	88	3
69	77	2
99	100	4
70	92	2
41	42	3
32	45	2
40	41	3
68	81	3
45	50	1
96	98	1
36	39	3
53	67	1
80	94	1
59	60	3
69	101	1
38	45	1
39	41	1
80	81	6
63	66	1
38	46	2
43	43	3
26	98	1
37	49	2
50	70	2
58	79	2
30	48	3
81	83	2
34	56	3
54	76	2
90	90	3
34	36	2
62	64	2
72	84	2
55	91	5
83	86	2
73	74	2
43	88	1
49	73	1
28	45	1
34	43	2
42	45	1
72	94	1
32	35	2
29	40	2
28	61	2
44	48	2
80	86	1
26	61	3
90	98	1
66	67	1
59	83	2
83	93	2
43	44	2
70	102	1
22	41	1
48	59	1
33	43	1
65	88	3
103	105	1
67	85	1
37	47	1
94	98	1
44	77	1
26	100	2
64	74	1
30	44	1
31	37	1
60	80	1
22	23	1
68	91	1
74	90	1
