29	29	17
9	10	5
6	6	17
107	107	14
63	74	2
94	95	11
25	25	28
119	122	8
123	123	12
124	124	18
141	142	6
95	95	21
5	5	13
133	133	24
12	15	10
140	141	11
117	117	28
129	129	20
101	102	4
72	72	14
92	92	4
63	63	8
144	144	7
21	62	3
127	130	12
126	127	10
75	79	2
85	85	6
18	18	14
140	140	11
75	75	17
38	38	14
17	17	30
142	142	20
64	68	2
138	139	10
11	11	4
10	27	8
60	60	21
19	99	3
130	130	21
130	131	14
85	86	4
3	6	4
141	141	15
34	35	8
100	100	9
55	55	7
30	96	9
19	19	14
49	49	13
30	30	18
134	134	36
54	145	1
115	115	10
107	108	9
27	27	16
79	80	12
36	36	13
132	137	1
99	100	9
126	126	29
63	64	6
120	125	3
135	135	14
88	91	3
54	54	10
100	120	8
41	41	14
99	112	1
57	59	5
65	66	7
118	127	7
52	53	3
74	75	7
88	88	2
24	24	13
37	54	1
114	116	9
26	26	5
125	129	4
59	59	14
112	114	4
94	104	3
125	125	13
91	110	2
68	68	7
48	48	29
64	64	18
23	103	4
123	124	2
26	47	4
16	19	3
49	98	2
112	113	9
127	131	2
31	31	19
94	94	14
104	106	2
63	73	3
66	67	7
23	24	2
23	23	2
0	11	2
80	80	15
73	73	18
69	69	4
84	84	8
103	104	3
110	117	7
36	37	10
80	133	2
25	26	11
34	36	2
134	136	4
106	107	7
142	144	4
139	139	8
9	9	23
8	8	19
65	65	9
0	0	10
47	47	11
22	22	14
102	102	24
79	81	4
71	72	4
127	127	15
4	84	1
58	59	3
78	78	20
33	33	5
12	14	3
132	133	7
129	130	11
121	121	22
76	78	7
9	66	4
63	68	1
35	36	5
61	61	20
40	40	11
52	52	8
104	104	26
119	119	11
2	73	1
96	96	17
106	109	2
122	122	8
20	21	1
111	111	12
62	63	14
67	67	14
87	132	3
34	34	9
97	98	8
37	40	3
108	108	12
92	93	6
131	131	19
132	136	4
70	70	4
145	145	23
25	100	1
82	104	3
132	142	3
2	72	4
66	66	5
103	103	26
110	112	3
91	91	18
31	32	9
82	82	18
10	10	19
118	133	3
61	122	1
125	126	12
37	37	16
77	77	9
57	57	13
24	109	2
34	65	4
87	88	3
98	103	1
33	85	1
140	143	3
59	60	7
80	96	5
21	24	4
105	105	10
16	16	13
76	77	7
81	81	6
56	81	1
134	135	16
26	97	4
99	99	17
120	120	13
26	28	3
20	20	7
118	118	19
28	28	20
58	58	12
117	118	28
56	57	8
36	47	2
50	130	2
98	98	22
54	82	1
139	140	6
100	101	2
73	74	5
79	133	6
1	74	3
22	23	3
142	143	8
20	39	1
1	1	9
118	119	16
43	91	4
97	109	1
138	138	4
13	53	1
10	96	1
136	136	12
70	75	3
108	110	2
32	33	2
9	96	6
5	36	6
13	14	12
141	143	6
100	102	2
117	119	11
119	120	16
4	6	3
26	96	3
28	29	6
55	74	2
61	62	4
97	97	11
132	135	7
8	67	5
136	138	4
110	110	13
124	125	7
21	21	16
91	93	3
109	109	13
68	89	1
74	134	5
55	56	1
25	27	3
144	145	3
73	75	15
62	67	1
33	34	3
50	51	10
87	87	10
57	66	2
125	127	4
111	112	4
43	43	12
79	82	2
82	127	1
128	128	14
101	101	7
15	16	2
68	69	2
75	76	8
132	132	14
143	143	16
71	71	12
64	66	8
53	53	10
76	76	18
134	144	4
30	31	2
116	116	8
128	130	9
122	123	9
79	79	3
11	27	3
116	117	13
0	1	2
42	42	19
82	118	1
135	136	1
83	85	4
90	91	10
106	111	5
96	97	10
128	131	3
34	84	3
68	90	1
108	109	1
65	67	1
90	90	5
128	129	5
70	72	2
51	51	7
12	12	6
109	110	5
125	140	6
109	112	3
49	115	2
112	112	2
61	66	2
50	50	5
8	96	1
92	94	2
13	34	2
116	120	1
41	42	9
30	97	4
68	74	3
145	146	7
80	81	10
69	70	4
127	129	3
31	33	6
37	41	2
67	68	6
8	9	4
25	98	1
143	144	2
24	98	3
39	39	5
131	133	2
120	121	5
112	139	3
14	14	7
38	40	3
32	32	14
30	90	1
98	99	5
109	111	3
12	24	2
134	137	3
53	79	1
135	137	1
3	3	4
137	137	13
90	92	2
32	34	2
56	56	7
93	93	12
31	75	2
55	88	1
50	52	1
121	123	1
64	83	2
106	110	2
26	27	2
78	142	3
22	25	1
127	139	4
115	116	4
53	81	1
8	95	2
114	115	4
15	15	5
27	100	1
78	79	3
53	55	1
36	39	1
6	37	3
13	15	6
93	114	3
16	30	4
66	82	2
114	114	7
4	4	4
21	49	1
133	135	6
93	95	1
113	114	5
54	79	2
53	54	5
135	138	4
127	133	3
132	139	3
52	55	1
98	104	4
8	51	1
123	129	2
55	59	4
68	70	3
27	79	1
122	142	3
76	133	2
32	65	1
69	73	2
94	96	1
35	35	5
62	62	7
24	80	2
72	84	1
81	127	3
12	52	2
11	33	2
13	13	5
5	48	2
27	28	8
68	82	1
35	38	2
17	19	1
71	135	1
127	128	4
12	17	1
133	134	5
90	115	2
104	105	9
89	91	6
14	15	2
20	25	3
95	111	4
67	90	2
116	118	6
42	88	3
18	19	5
55	98	1
146	146	3
99	101	3
52	54	2
137	138	5
39	40	4
18	31	1
18	52	2
84	86	2
11	34	2
2	3	2
28	30	5
74	74	9
108	115	3
24	25	2
21	25	1
57	80	4
128	141	2
64	65	7
121	124	1
18	22	5
118	120	2
81	82	2
50	53	4
16	49	1
89	90	2
27	61	1
1	2	3
92	95	4
27	98	3
18	33	2
52	79	1
74	140	2
15	17	3
68	79	1
120	126	1
54	56	5
113	113	6
16	61	2
90	130	2
88	89	2
51	52	5
105	106	3
83	136	6
13	54	2
49	52	2
20	26	2
56	60	3
141	144	2
50	77	3
17	20	2
47	93	3
24	26	1
21	26	2
105	109	2
90	114	2
124	133	1
62	64	1
93	94	2
102	103	2
3	4	2
30	42	1
98	115	1
54	81	1
89	89	4
133	137	1
107	115	1
119	125	1
8	49	1
7	96	2
131	144	2
62	68	1
14	17	1
20	62	1
119	126	3
2	2	4
99	102	1
25	99	1
65	138	3
68	135	1
117	120	1
31	89	1
15	25	1
81	104	2
40	41	2
0	2	1
59	61	3
108	112	2
63	66	2
29	67	2
93	105	1
21	66	1
33	86	1
52	98	1
29	30	2
131	140	2
122	131	1
24	27	1
52	80	2
3	5	1
133	139	2
15	18	1
28	54	3
111	139	1
63	65	1
21	61	2
54	67	1
14	47	1
137	140	1
83	83	1
27	91	1
82	83	1
131	143	1
114	117	1
68	75	1
38	39	1
42	82	1
14	34	2
50	64	1
8	55	1
18	101	1
122	141	1
12	48	1
43	94	1
75	135	1
37	47	1
26	80	1
140	142	1
136	139	1
23	70	1
48	101	1
12	86	2
1	27	1
22	61	1
72	73	1
49	101	2
64	84	1
70	89	2
42	101	1
91	115	1
74	141	1
54	55	1
77	78	1
38	42	1
22	24	1
106	106	1
117	123	1
