141	141	6
155	156	1
7	7	5
36	36	3
0	0	6
129	129	2
15	15	3
162	162	3
12	99	3
164	167	1
145	150	1
169	169	3
60	60	5
16	16	9
104	116	4
143	143	3
119	119	1
111	111	4
17	20	1
157	158	2
85	96	1
12	13	3
43	43	1
52	52	1
152	152	2
3	3	7
65	65	3
131	131	4
80	158	5
127	130	2
72	78	2
37	39	1
39	40	2
120	136	4
35	35	3
167	167	1
26	26	4
10	10	5
78	78	3
5	5	9
167	170	4
149	149	2
6	23	2
51	52	2
2	7	5
35	39	2
50	51	7
120	120	5
115	116	3
132	132	4
134	134	4
37	37	1
13	13	6
164	166	2
161	162	2
1	20	3
122	124	3
15	16	4
28	30	3
3	4	3
173	174	4
114	114	3
61	62	1
55	56	3
53	55	1
90	92	3
179	179	2
102	104	2
154	158	2
73	73	2
142	142	1
59	59	7
95	147	1
107	109	5
30	30	3
171	171	3
121	121	3
82	82	6
33	41	2
104	104	2
170	171	3
24	25	1
158	166	1
2	2	4
39	39	4
122	122	3
159	159	2
40	40	8
23	24	4
103	105	1
130	131	3
106	125	5
11	11	2
110	113	2
98	98	2
4	5	1
1	1	3
29	35	3
8	8	3
76	76	4
80	80	3
101	101	6
9	20	1
17	17	4
22	22	2
24	24	6
75	77	1
66	66	2
143	148	1
154	154	7
41	41	4
139	139	9
123	123	13
134	135	3
12	20	3
27	28	5
164	164	6
53	94	4
128	129	1
95	150	1
31	31	2
117	119	1
116	116	2
74	74	2
4	4	6
126	126	3
42	116	5
18	18	7
23	50	3
33	114	2
146	151	2
145	148	1
83	116	1
6	6	2
53	53	2
25	30	2
137	176	2
92	92	7
17	121	2
99	100	1
21	21	1
172	174	1
112	112	8
52	77	1
55	55	3
44	44	4
147	148	3
117	117	10
112	115	3
23	23	5
114	115	1
29	29	4
35	36	1
28	28	2
174	174	1
25	42	4
71	71	1
26	30	1
18	19	1
37	38	7
19	19	1
97	97	4
30	88	3
118	121	1
166	167	2
137	137	1
95	145	3
36	37	1
87	87	2
17	24	1
151	151	5
100	123	5
23	25	3
76	157	2
3	45	1
25	26	1
141	142	1
45	51	1
20	20	2
136	154	1
22	25	3
84	116	1
156	165	1
147	149	3
118	118	7
29	30	1
3	9	1
26	27	1
79	80	2
33	33	2
36	103	3
157	159	1
138	138	2
57	57	4
67	67	1
133	133	5
89	89	1
150	150	3
124	125	2
42	113	3
135	136	5
30	31	2
145	146	2
54	54	1
112	167	3
95	95	1
65	84	2
104	110	2
14	84	3
123	124	2
133	134	1
56	56	2
61	61	2
9	9	1
128	128	1
144	145	3
180	180	6
153	169	1
163	163	4
68	68	1
121	125	1
88	88	3
117	118	2
152	153	1
8	9	4
136	157	3
125	125	2
25	25	6
147	147	1
103	103	1
125	129	1
147	151	1
63	73	2
106	106	1
140	140	2
6	7	2
65	73	3
136	165	1
18	21	1
168	168	4
142	144	2
136	158	1
7	8	1
110	111	1
50	75	1
29	31	1
96	97	1
3	50	2
158	158	1
84	85	2
130	130	3
38	38	2
70	71	1
96	96	2
99	99	2
157	157	1
106	132	2
150	151	1
83	83	2
145	145	2
32	32	1
155	155	1
11	16	2
77	77	1
21	138	1
81	83	2
5	8	1
21	22	3
77	81	1
85	108	2
144	147	1
14	36	1
32	34	1
12	12	2
127	127	2
66	68	1
80	81	1
73	87	1
108	111	1
159	162	1
127	163	1
117	124	1
124	126	1
148	148	1
113	113	1
121	122	2
22	26	3
162	163	1
166	166	1
102	102	2
83	84	2
22	32	1
108	108	1
90	90	2
78	79	1
14	14	2
64	64	1
156	156	1
146	153	1
110	110	1
4	20	1
85	86	2
106	109	1
172	172	1
51	51	1
14	16	1
27	27	1
171	172	1
28	32	1
11	22	1
65	66	1
72	148	1
13	14	1
75	75	3
64	93	1
93	93	1
142	143	1
77	101	1
127	131	1
11	12	1
52	92	1
161	161	2
101	104	1
130	134	1
31	32	1
86	86	1
25	27	1
60	62	1
23	28	1
52	53	1
94	96	1
16	17	1
116	120	1
53	54	1
50	50	1
