147	147	6
123	125	3
15	15	4
100	100	3
51	51	9
154	160	3
152	152	5
35	35	12
171	172	5
171	171	5
19	19	9
37	43	8
32	32	7
73	73	8
101	101	10
7	8	10
161	162	2
150	150	9
125	126	3
84	84	6
103	104	3
114	114	1
41	175	9
6	7	2
41	42	10
16	16	8
15	33	4
27	27	18
83	86	3
42	43	7
106	106	9
149	149	13
83	83	9
59	59	5
140	146	4
76	78	3
127	127	8
149	150	7
42	42	18
134	134	2
164	165	4
76	76	2
8	8	15
80	123	1
95	95	11
28	31	1
94	94	6
105	107	3
31	31	14
82	82	14
60	60	13
96	96	5
34	34	5
9	10	6
162	162	4
71	71	10
118	119	1
68	71	4
110	110	4
78	100	2
155	155	6
5	9	2
81	82	3
64	65	10
170	170	5
64	64	6
119	119	9
99	101	4
167	167	14
26	26	16
52	132	1
179	179	4
174	174	14
14	14	19
166	166	5
57	58	5
10	14	1
31	32	1
40	40	6
146	146	10
109	109	2
74	75	1
44	44	10
93	93	4
63	63	8
142	168	4
141	141	2
147	148	6
21	27	2
83	110	3
29	29	5
145	145	4
28	28	12
29	54	1
133	154	1
142	180	2
118	122	5
10	12	5
4	5	3
101	135	3
5	5	8
156	156	5
96	109	3
96	152	1
9	61	1
19	20	7
29	30	3
119	123	3
7	7	5
25	26	5
143	143	3
111	112	7
93	95	5
55	60	5
0	0	8
50	103	2
26	27	2
54	55	3
102	103	2
17	34	1
145	146	3
3	3	13
86	98	2
77	77	7
0	6	2
31	43	3
11	12	2
174	175	4
100	156	5
115	115	2
5	6	5
117	119	1
168	168	5
27	28	2
159	159	10
50	51	4
115	117	4
30	31	5
24	24	15
17	20	1
38	43	1
150	173	4
120	120	4
151	151	8
105	106	4
18	18	8
137	137	3
172	172	2
4	10	3
103	105	2
12	12	4
23	23	11
56	56	5
62	62	5
66	66	10
85	85	11
107	107	9
87	89	2
43	45	5
77	78	2
1	2	1
89	89	4
118	118	9
121	121	5
17	18	2
9	9	9
128	128	6
113	153	1
113	172	3
5	11	1
148	149	1
39	74	2
117	117	8
55	55	8
1	1	2
6	13	2
22	22	7
67	73	2
24	64	1
78	80	3
0	7	3
165	166	5
139	167	2
4	6	3
163	166	1
33	33	5
129	130	1
30	30	23
112	113	2
87	87	3
144	144	5
6	6	12
17	17	5
86	102	1
21	21	2
107	145	3
178	178	6
7	11	1
54	54	3
100	101	2
43	43	4
156	157	9
4	4	14
153	153	4
113	114	3
31	40	1
11	11	13
26	28	4
132	132	3
55	59	8
41	41	7
75	75	3
90	91	4
1	3	6
38	38	9
94	95	1
164	164	1
139	139	6
140	140	5
55	58	1
80	81	1
131	131	5
82	84	1
21	33	1
36	36	13
165	165	8
129	129	3
2	15	2
113	113	8
80	116	4
157	157	1
176	176	2
108	108	3
27	29	2
88	88	5
64	66	3
103	107	1
38	44	1
79	79	7
62	63	5
134	167	1
92	140	1
74	74	2
107	111	2
20	20	7
98	99	2
57	57	5
33	34	2
90	173	2
30	34	2
20	21	5
90	90	8
130	130	1
39	123	2
15	39	1
5	12	3
122	122	2
18	20	2
169	169	2
23	24	3
175	175	2
173	174	3
13	15	1
45	45	2
55	142	2
164	166	3
100	102	1
84	85	1
113	131	1
88	90	1
123	132	3
137	149	3
68	68	4
8	14	2
72	72	2
13	67	3
16	18	1
95	96	1
123	123	7
101	105	2
151	165	3
3	11	1
151	154	1
68	169	1
99	100	4
67	68	2
126	126	3
27	30	1
169	172	2
63	64	2
112	114	1
31	65	2
135	135	8
110	111	2
53	53	9
165	169	1
5	10	4
100	135	1
2	3	6
26	37	1
65	65	4
86	86	6
13	21	2
24	25	4
83	84	3
10	10	3
141	167	1
11	43	1
173	173	3
116	117	9
91	92	4
2	9	4
58	59	3
133	137	1
39	40	3
153	154	2
154	156	3
150	151	2
87	104	1
52	54	2
90	151	1
138	138	7
12	13	4
149	159	1
5	8	1
124	132	2
9	11	3
13	13	1
54	64	2
72	74	4
136	136	5
128	129	1
13	16	1
115	155	2
15	16	2
142	143	4
67	67	2
134	137	3
72	75	2
99	99	2
31	45	2
108	145	2
140	179	1
76	77	1
53	56	1
114	130	3
87	121	1
21	23	2
37	37	4
159	180	1
94	96	2
96	97	1
8	11	4
73	74	1
2	2	9
148	148	3
15	25	2
20	22	2
8	9	2
111	111	6
44	45	5
59	75	2
25	63	1
3	4	3
131	146	2
59	60	1
43	44	4
116	116	1
159	162	1
84	121	1
13	14	1
50	52	2
65	70	2
158	158	1
56	57	2
39	125	1
127	135	1
123	124	2
94	156	1
41	126	1
60	72	1
112	167	2
95	154	1
112	112	3
152	166	1
164	167	2
91	91	2
125	125	3
103	103	2
17	32	3
24	36	1
66	67	2
22	23	2
117	120	3
61	61	1
166	167	2
91	155	2
41	43	1
160	162	2
137	138	1
138	139	3
124	124	2
113	158	1
101	102	2
108	148	1
95	156	1
127	128	1
160	160	2
154	158	1
146	167	1
163	163	4
152	164	2
85	107	1
76	126	1
98	101	1
78	78	3
153	156	1
151	174	1
80	107	4
170	171	3
126	127	1
86	109	1
52	52	1
97	158	2
138	150	2
16	17	2
0	13	2
131	148	1
82	104	1
102	134	1
26	64	1
2	22	1
151	155	1
70	71	1
161	161	2
84	95	1
60	61	1
115	145	1
106	107	3
22	26	1
24	28	1
143	145	4
79	107	1
142	142	1
11	44	1
114	115	1
12	15	1
81	129	2
143	144	1
160	161	4
127	129	1
106	119	1
11	49	1
7	9	1
29	37	1
129	147	3
82	98	1
50	50	1
139	150	1
15	41	1
4	27	1
154	171	1
133	134	1
20	34	1
39	39	1
18	166	1
104	105	1
118	128	1
124	138	1
93	137	1
105	105	1
18	33	1
124	125	1
115	146	1
127	130	1
93	173	1
144	145	1
68	75	1
24	26	1
141	171	1
52	95	2
68	74	1
17	166	1
80	80	1
3	15	1
179	180	1
170	172	1
141	142	1
133	133	1
11	13	1
16	31	1
35	36	1
98	98	1
78	123	1
97	97	1
92	101	1
126	131	1
