112	112	52
107	107	30
130	130	59
122	122	65
9	10	6
7	11	2
127	132	4
37	38	15
114	114	33
136	136	44
72	72	23
138	138	19
98	98	18
3	4	20
75	85	3
24	24	18
79	81	4
128	128	40
120	120	42
112	113	20
17	17	29
72	73	22
81	81	16
31	31	40
5	6	17
12	71	5
16	17	7
110	111	20
35	36	6
117	117	29
109	110	12
22	26	13
123	123	29
16	18	14
110	115	6
89	90	10
19	19	11
76	78	9
127	127	28
118	118	31
136	137	16
76	77	13
131	132	14
30	31	10
134	134	49
18	18	47
2	23	2
75	76	27
23	24	16
91	91	15
102	102	38
32	32	14
96	96	26
2	3	6
86	88	4
36	36	21
75	75	41
97	97	27
87	105	5
35	35	30
137	137	28
14	15	5
92	92	21
82	83	10
106	106	20
9	9	61
74	74	27
121	121	48
132	132	49
78	78	54
8	9	13
77	77	28
119	123	6
126	126	39
83	83	30
103	106	13
26	27	7
115	116	21
113	113	33
3	3	51
80	82	6
23	23	18
34	34	24
79	79	33
85	85	39
34	35	18
90	91	11
19	20	8
120	122	8
93	94	10
97	98	7
22	23	8
137	138	10
95	95	42
90	93	1
108	108	27
7	7	31
21	21	27
33	33	39
14	14	26
79	85	4
108	111	10
77	79	4
124	125	31
93	96	13
97	101	5
88	88	36
81	82	15
30	30	26
127	128	23
31	32	15
131	131	68
89	89	53
73	74	23
6	6	38
66	69	1
121	122	11
119	119	33
100	102	3
106	107	23
12	12	35
26	26	27
27	29	4
23	25	6
12	16	5
90	90	20
111	113	7
5	5	28
7	71	3
31	34	6
133	133	34
94	95	16
128	129	15
82	82	24
15	15	24
13	14	12
20	20	29
129	130	15
10	13	2
135	135	44
0	0	36
87	87	33
124	129	3
73	73	29
10	14	9
132	135	2
118	119	16
8	8	31
131	133	6
83	85	6
77	78	13
76	76	24
29	29	38
108	109	19
104	104	30
28	29	21
116	116	29
111	111	40
102	104	3
15	17	4
11	11	27
100	100	36
22	28	2
112	115	3
3	75	5
28	28	13
37	37	15
71	72	23
33	37	3
125	125	54
74	75	13
3	5	3
33	35	12
101	101	25
102	116	3
0	10	7
22	22	19
80	80	28
108	110	6
84	105	5
114	115	17
3	28	1
115	115	32
96	97	8
11	12	9
129	129	32
32	34	5
124	124	38
16	16	30
103	104	6
123	125	7
24	25	11
3	21	3
109	109	44
77	86	14
111	112	12
84	104	4
6	15	5
94	94	22
13	13	28
101	102	15
96	125	2
112	122	2
134	135	19
1	1	23
114	135	4
100	101	2
7	16	1
107	108	16
68	103	8
10	10	15
136	139	4
125	127	3
135	136	13
27	27	20
26	33	1
75	77	12
96	100	1
84	84	30
105	119	1
10	16	6
38	82	1
117	125	3
33	34	16
132	134	4
37	74	1
12	13	11
4	5	9
110	110	35
10	30	4
26	29	2
95	108	2
120	123	4
111	118	3
103	103	24
7	8	15
106	108	7
11	19	1
21	23	3
10	12	3
105	109	4
117	123	5
38	38	22
130	131	9
19	27	1
117	118	7
98	100	1
102	103	15
120	121	17
93	93	23
17	19	5
2	21	3
21	22	9
89	93	4
2	10	3
105	106	1
25	26	17
95	96	3
140	140	27
71	73	2
27	32	6
5	19	1
123	124	13
81	104	1
87	88	18
25	25	8
86	86	9
7	79	1
104	105	14
80	81	3
99	99	21
103	105	1
80	109	4
81	84	6
113	115	12
10	11	15
132	133	13
0	1	5
105	105	21
21	24	5
27	31	3
88	101	4
72	94	6
113	114	7
21	25	4
15	16	11
108	113	1
104	113	5
84	85	18
16	21	3
29	31	4
122	124	6
126	129	8
11	71	5
134	138	1
127	134	1
88	102	1
119	120	2
78	79	6
116	119	3
6	79	3
2	2	17
129	131	2
140	141	3
89	91	5
83	104	5
3	9	1
4	4	14
102	108	3
11	13	3
109	111	6
38	80	2
128	130	7
24	92	1
85	87	6
98	135	3
75	86	1
20	26	2
125	126	6
107	111	3
9	24	1
113	119	1
7	9	3
28	32	3
126	127	6
93	126	2
98	127	4
78	92	2
6	7	4
116	131	6
114	119	1
125	129	5
18	20	5
110	112	6
20	22	8
112	114	2
95	127	2
87	104	4
89	102	1
71	71	23
34	140	3
73	93	3
91	125	2
6	74	1
83	105	6
18	126	2
95	97	3
2	4	3
110	122	3
7	23	2
122	123	8
114	116	2
134	137	2
9	11	4
1	8	3
111	125	1
139	139	19
90	92	3
104	106	1
12	14	6
92	124	3
5	18	2
3	18	4
18	19	7
8	10	1
139	140	5
9	12	3
4	6	2
92	94	3
119	122	3
85	86	8
2	7	4
82	104	5
17	18	12
115	122	7
89	95	3
104	107	4
133	134	9
88	89	4
29	32	4
2	5	5
126	128	8
78	82	1
116	118	3
1	2	2
17	21	2
73	75	3
79	82	3
84	86	1
138	139	5
105	107	5
91	130	5
79	80	8
22	24	6
16	19	1
22	27	2
68	80	1
12	109	3
6	10	2
11	110	4
101	103	2
9	13	1
6	21	1
29	30	4
94	96	2
80	124	1
22	25	5
116	125	3
73	78	2
91	92	5
16	79	1
78	93	3
86	87	7
78	86	2
83	84	4
66	71	2
80	87	1
2	18	1
102	106	3
86	105	2
25	27	1
30	32	3
12	23	2
105	110	1
11	15	3
121	123	2
0	8	4
120	124	4
3	17	3
107	110	1
80	86	1
6	13	1
82	84	6
20	21	6
2	15	3
102	105	2
66	80	1
103	107	1
79	100	2
109	112	7
28	30	3
16	25	2
116	123	4
0	2	3
91	102	1
81	112	1
76	111	2
81	83	4
79	86	1
1	19	2
95	98	1
76	107	4
77	87	3
6	71	1
109	119	1
4	18	1
4	17	2
86	100	5
99	100	9
75	78	3
98	99	7
118	120	1
34	81	1
99	111	1
75	106	6
73	76	1
86	109	4
1	20	1
117	119	4
31	68	2
104	122	1
103	108	2
97	99	1
27	30	4
110	132	3
104	128	2
124	127	1
78	87	1
116	121	2
80	83	1
115	125	2
74	76	3
78	85	1
135	138	3
2	9	3
27	28	5
27	94	2
12	15	4
88	134	1
100	118	1
99	101	1
107	123	2
36	37	2
17	71	2
118	123	2
1	11	1
24	27	1
88	106	1
112	120	1
5	17	3
24	125	1
79	112	2
29	98	1
90	94	2
15	18	1
89	96	2
107	109	2
102	119	1
16	71	1
136	138	4
24	26	2
5	10	2
3	20	1
6	8	2
12	21	1
91	96	1
88	90	2
6	14	1
20	23	1
130	136	1
78	80	1
72	75	1
123	127	2
108	114	4
115	134	1
6	24	2
89	100	1
112	119	1
93	97	2
12	110	2
80	104	1
83	86	1
105	113	1
101	121	1
116	117	1
9	15	1
19	29	1
66	66	1
97	138	1
81	117	1
130	132	2
12	19	1
80	108	1
104	119	1
15	22	1
81	85	1
85	105	1
124	128	1
92	93	3
79	89	1
115	120	1
8	26	2
44	44	1
85	104	1
111	122	1
72	77	1
121	124	2
80	85	2
98	134	1
115	133	1
114	118	1
9	26	2
11	16	1
15	72	1
90	123	1
81	118	1
17	27	1
114	120	1
7	15	1
15	110	1
81	113	1
111	115	1
93	95	2
30	93	1
100	123	1
133	135	1
6	9	1
1	10	1
