7	7	24
102	109	2
66	66	14
176	177	3
14	14	10
48	48	24
213	213	10
69	69	9
167	172	3
167	168	9
202	202	24
186	186	12
25	226	1
195	195	12
60	69	3
237	244	3
224	224	18
238	239	1
187	188	5
210	211	10
179	179	15
120	241	3
22	22	11
191	192	10
162	162	22
60	60	3
118	119	4
186	187	3
70	100	3
185	192	1
194	194	10
183	183	17
207	207	25
236	247	3
27	27	8
114	114	13
204	204	14
84	84	8
100	100	8
225	225	14
104	104	9
156	156	33
111	111	15
77	80	1
210	210	4
203	203	17
2	3	6
68	68	11
39	40	1
221	221	20
164	208	1
71	72	2
44	44	8
41	41	8
54	54	17
56	56	15
214	214	13
60	61	5
173	206	3
87	87	8
238	238	16
105	115	2
58	97	4
93	93	16
84	85	3
146	146	5
170	170	10
37	38	7
64	64	16
28	29	7
208	208	15
164	209	2
187	187	12
107	107	6
15	15	21
79	79	7
154	200	1
180	180	11
23	23	15
12	12	10
221	222	7
98	98	4
220	220	12
200	200	28
8	8	15
245	245	9
152	152	17
26	26	4
23	24	3
4	5	3
85	85	10
47	48	10
7	8	4
193	193	18
238	243	1
227	227	14
198	198	9
35	35	9
171	171	14
153	153	11
246	246	19
63	63	9
110	110	24
191	191	4
17	18	6
107	108	5
113	113	18
77	78	6
198	199	3
80	83	5
6	6	28
77	77	15
206	206	4
60	71	3
106	106	2
36	37	8
110	150	4
45	45	13
73	73	2
90	91	9
43	43	7
244	245	8
153	156	3
19	20	4
16	16	19
20	20	15
38	38	18
182	183	3
33	33	17
229	234	3
184	186	2
37	37	11
181	181	8
5	5	4
55	55	10
243	244	2
25	25	8
21	22	7
199	199	12
174	180	6
17	17	9
177	177	7
109	109	14
204	205	9
72	82	2
51	51	13
59	59	2
152	153	3
121	121	2
172	172	23
232	232	8
110	167	2
192	192	18
237	238	4
36	36	16
104	108	3
188	189	7
47	47	15
151	151	19
241	241	9
50	50	9
244	244	11
171	243	2
154	154	15
40	40	11
95	95	21
70	71	9
62	62	8
42	43	1
248	248	3
169	169	11
70	70	5
145	145	11
197	198	13
46	162	3
223	224	4
31	32	8
212	212	17
46	48	3
162	183	3
6	7	5
23	25	3
157	208	2
2	2	7
42	42	9
17	22	3
174	175	6
10	10	12
48	49	3
55	56	9
112	112	11
181	182	5
52	59	7
155	155	27
156	225	2
201	201	22
166	166	10
234	235	14
108	108	13
30	30	7
156	161	5
203	204	3
225	226	9
158	158	10
51	52	2
229	229	8
214	218	5
17	202	2
25	202	2
75	83	2
119	119	3
234	234	20
171	172	1
184	185	3
226	226	13
203	205	4
239	240	6
239	241	6
197	197	13
237	237	16
99	99	6
86	86	4
61	232	4
24	24	13
70	102	2
21	21	12
205	205	15
46	47	6
4	4	13
89	89	8
69	71	2
115	115	11
65	66	3
176	176	5
170	171	7
12	17	2
94	94	9
24	41	2
215	215	11
99	100	8
173	173	9
52	52	3
14	15	2
111	112	9
101	101	5
69	70	3
145	201	2
96	97	2
111	144	1
31	31	18
236	248	4
211	211	9
22	30	5
223	223	7
242	242	15
159	163	2
1	1	7
214	217	2
174	174	4
220	221	4
82	82	1
49	49	3
155	194	1
116	116	12
241	243	1
154	155	1
185	185	6
247	247	9
79	115	1
173	174	4
150	151	5
92	115	4
20	22	1
74	75	9
178	244	3
19	19	8
109	110	7
32	38	3
211	212	8
196	196	8
28	28	5
92	92	9
71	83	3
29	166	1
150	150	13
104	106	2
191	196	2
24	43	6
32	33	8
39	39	11
20	21	2
160	160	17
165	184	2
211	213	1
80	80	1
176	212	2
61	61	5
29	29	5
57	59	8
53	53	12
228	228	10
228	229	3
216	216	4
149	149	3
22	23	4
75	95	7
78	78	14
232	233	3
157	157	7
165	175	2
167	167	14
13	14	2
183	184	5
93	107	2
48	57	3
224	225	4
180	181	9
229	230	4
114	115	7
71	71	9
61	62	4
15	16	2
226	227	5
90	93	1
160	175	2
245	246	7
30	31	3
18	18	8
18	19	2
183	193	2
61	228	2
73	80	1
111	119	3
233	233	8
88	88	8
53	54	1
103	112	2
235	235	7
38	39	6
44	45	2
198	208	1
57	57	15
201	202	6
76	77	9
164	164	4
56	58	2
214	219	5
175	175	11
168	169	3
21	31	1
159	159	5
109	150	3
67	67	10
150	200	6
90	90	2
185	193	5
155	225	1
79	87	1
172	173	6
179	193	4
218	218	10
239	239	10
54	55	7
36	39	3
168	168	9
154	158	1
113	114	3
108	112	2
219	220	3
48	63	2
52	53	9
72	74	5
33	233	4
243	243	3
205	213	1
163	163	4
165	167	7
217	217	5
66	110	1
80	87	3
26	27	8
81	81	5
219	219	7
67	68	5
99	104	4
161	179	1
11	11	9
46	46	5
89	100	3
213	214	4
5	6	3
231	233	1
235	236	2
70	73	2
82	83	3
108	167	5
160	164	5
231	232	3
89	90	3
57	61	4
17	35	5
189	191	2
240	240	13
97	97	4
12	15	3
161	162	10
175	184	2
230	234	5
153	158	3
105	105	2
244	246	2
162	228	2
144	145	2
64	92	1
32	32	13
163	181	3
73	74	3
231	231	3
81	82	2
196	197	3
87	88	1
216	217	6
190	230	2
43	44	4
80	84	2
25	27	3
109	167	6
218	219	5
9	9	8
97	117	1
182	244	1
30	236	3
202	203	9
81	87	3
182	182	8
212	213	7
161	161	6
161	167	1
32	235	3
74	100	3
190	191	4
93	115	3
206	207	3
178	179	4
114	149	1
112	114	2
117	150	3
68	115	2
103	103	1
95	98	4
208	209	1
15	84	1
194	195	4
214	215	2
93	94	9
108	109	9
179	214	3
91	92	2
158	160	3
87	118	3
16	33	4
193	198	2
102	102	3
163	209	2
236	236	5
199	244	1
11	12	1
15	64	1
230	230	5
209	209	5
109	170	1
95	96	4
178	178	4
222	222	7
188	188	6
199	200	1
165	165	13
193	195	2
158	159	3
163	175	3
65	65	5
173	178	3
101	103	4
241	244	1
62	230	1
49	50	4
166	167	6
227	231	2
211	241	3
118	237	1
59	85	2
45	46	1
78	79	6
44	78	2
45	79	1
3	8	4
185	186	2
183	237	2
64	66	1
240	241	2
93	118	2
101	112	1
120	120	2
100	110	1
188	192	1
169	175	1
34	34	1
238	241	1
26	154	1
28	32	2
91	95	5
117	120	2
184	184	6
64	65	6
179	180	3
163	166	1
62	84	1
182	215	3
174	181	2
231	246	4
91	96	1
168	246	1
147	147	5
13	13	1
146	147	1
160	182	2
41	42	6
197	210	1
111	244	4
238	240	2
187	189	1
62	63	2
162	168	1
220	222	1
206	208	1
76	76	1
176	181	3
108	166	1
72	72	3
51	53	2
92	157	1
39	53	1
169	170	3
39	230	2
213	217	1
104	107	3
54	89	3
222	223	3
34	234	1
215	217	5
10	31	3
9	10	1
56	229	1
83	83	2
119	120	3
153	241	2
207	208	3
21	227	1
50	51	1
205	226	1
164	198	1
47	50	2
96	99	1
151	162	1
109	222	8
75	75	2
5	13	1
47	51	1
28	66	1
153	154	4
175	176	1
171	242	1
198	246	3
45	224	1
56	84	1
157	166	2
63	64	2
46	56	2
156	157	1
3	3	2
24	40	2
212	216	3
193	194	1
3	4	1
116	117	3
165	166	2
72	86	1
72	94	2
58	60	1
35	246	2
27	31	2
189	189	2
168	177	1
15	81	4
167	176	2
66	67	2
8	9	2
17	159	3
164	165	3
1	2	2
5	12	1
247	249	2
189	192	1
200	201	1
119	240	1
35	36	1
190	190	1
75	76	1
118	169	1
29	31	4
10	11	2
25	26	1
92	100	1
9	28	1
6	8	2
117	118	3
241	249	1
79	89	1
76	78	1
101	102	2
241	242	1
113	115	2
72	80	1
44	224	1
48	50	1
162	208	2
192	214	1
169	183	1
161	201	1
50	62	2
158	198	1
96	96	2
95	99	1
51	65	1
92	106	1
152	249	1
236	238	1
91	91	2
216	223	2
180	222	1
110	236	2
175	177	1
27	28	1
106	108	1
16	17	1
247	248	1
14	30	1
20	37	1
105	106	1
108	114	1
57	62	1
68	70	1
120	121	1
154	201	1
201	203	1
167	247	1
189	190	1
166	175	1
103	113	1
78	89	1
106	111	1
180	218	1
109	151	1
