98	98	7
90	91	7
104	104	6
81	81	13
106	106	7
75	76	4
71	71	11
87	89	5
83	83	11
91	91	3
6	6	16
30	37	3
46	61	2
110	110	7
60	60	9
22	26	3
26	93	1
97	98	1
86	109	5
39	50	1
69	69	10
17	17	6
12	13	3
49	50	1
96	96	6
77	77	12
70	70	11
46	77	5
103	107	2
33	33	20
79	79	5
76	76	7
37	37	6
124	124	4
61	61	12
105	105	6
63	75	4
31	31	18
82	82	13
14	14	6
128	129	5
20	21	6
21	21	17
123	125	2
101	101	18
24	24	6
84	85	10
111	111	12
30	56	6
99	99	6
37	38	2
8	8	6
23	24	7
74	74	19
47	47	24
82	83	5
13	14	4
95	95	9
113	114	1
21	42	2
103	106	6
57	57	5
100	100	14
28	28	14
3	3	8
118	118	9
93	93	15
22	125	5
81	82	8
66	66	15
18	18	11
115	131	1
5	5	8
65	65	12
39	39	4
45	46	6
99	100	5
107	107	12
4	97	1
102	105	1
13	13	24
8	49	6
42	93	4
111	112	3
29	30	6
63	70	3
130	132	5
45	82	4
35	36	2
26	46	3
29	49	8
76	77	6
31	37	3
62	62	14
32	32	21
27	28	7
123	134	5
11	11	19
64	64	21
112	116	1
89	89	8
6	7	9
20	85	3
123	123	12
86	86	9
34	34	15
15	15	9
31	106	3
72	72	8
5	6	8
26	86	1
124	125	4
80	80	9
95	96	1
7	7	12
133	133	6
4	90	1
44	45	7
39	56	4
14	15	5
96	97	5
85	87	4
36	71	1
31	58	2
27	80	3
92	115	4
12	72	1
131	131	5
5	7	3
97	100	4
98	100	2
46	46	15
25	47	1
73	73	12
26	26	16
129	129	8
67	68	2
132	132	6
78	78	5
2	3	3
90	90	13
65	67	2
99	101	3
124	127	1
30	30	9
15	93	2
75	75	8
29	56	2
33	74	1
85	85	16
68	69	5
61	95	1
78	81	2
67	67	12
103	104	4
58	60	5
117	117	8
90	92	8
130	131	6
97	97	5
121	121	1
98	99	1
70	71	4
122	123	4
8	9	2
50	55	2
77	78	1
79	80	10
94	97	4
16	16	8
44	44	14
12	12	17
43	43	11
100	102	1
40	40	8
46	71	1
27	27	14
51	51	3
45	45	18
10	10	5
58	59	2
119	119	6
104	105	1
19	74	2
27	39	2
93	98	2
48	48	9
29	59	2
103	103	4
123	124	3
102	102	7
59	59	9
114	133	1
84	84	13
125	125	5
99	102	3
3	88	1
39	41	2
58	58	5
28	29	2
36	43	2
111	113	2
9	9	6
93	101	2
91	113	1
29	29	3
85	93	5
10	12	2
68	68	6
69	71	5
20	25	1
85	86	3
38	38	7
56	82	2
95	98	2
127	132	3
109	109	5
126	127	1
12	16	2
42	42	8
47	62	2
2	34	5
88	90	3
46	47	2
94	94	12
61	62	6
58	107	6
15	16	4
66	83	1
65	66	6
60	72	2
112	113	3
119	120	5
36	36	10
56	60	2
88	88	2
41	41	8
55	55	4
95	97	3
7	86	4
1	64	2
127	127	6
118	119	2
21	36	2
78	80	3
120	120	3
6	8	1
11	28	1
115	115	3
11	14	2
108	108	3
19	24	2
34	35	5
20	20	3
25	75	4
21	39	3
22	23	5
87	87	7
131	133	2
30	45	2
27	77	3
3	4	8
27	79	1
113	113	6
84	91	1
15	74	1
4	31	2
56	59	3
28	32	1
30	49	2
41	42	1
112	112	3
8	10	1
129	131	3
33	34	3
74	76	1
80	103	1
96	99	1
129	130	2
109	129	1
4	4	13
84	87	3
121	122	3
63	64	3
1	1	3
11	27	3
49	49	6
91	93	1
125	126	2
31	32	3
55	63	1
37	63	1
25	26	1
15	92	2
103	108	2
6	96	1
30	58	1
5	43	1
13	17	2
23	23	4
38	44	1
56	78	2
57	77	1
128	130	1
32	33	4
15	95	1
40	41	1
87	88	4
126	126	3
24	28	1
90	94	1
114	114	3
44	56	2
2	33	3
113	115	1
47	48	3
80	81	1
12	46	1
83	91	1
7	8	3
90	101	1
1	2	2
12	32	1
69	70	3
9	10	2
36	45	1
83	134	2
42	43	1
40	93	2
39	55	1
64	65	1
86	87	1
63	63	6
122	122	10
35	40	1
71	73	2
5	30	1
93	112	1
39	43	2
93	113	2
0	0	1
19	19	1
10	29	3
22	22	3
37	49	1
123	127	1
89	94	1
11	82	3
116	116	1
7	30	1
127	131	3
1	11	1
62	74	1
27	29	1
3	14	1
20	22	1
24	25	1
35	35	2
4	93	1
35	41	4
46	70	2
83	98	1
57	58	1
122	129	1
12	14	1
4	101	2
6	13	1
114	115	1
3	6	3
43	44	1
91	92	1
56	56	2
2	2	2
5	14	1
81	114	1
41	56	2
131	132	2
62	64	1
101	102	3
121	130	2
105	106	1
88	94	1
29	46	1
60	83	3
11	12	1
57	60	1
25	25	2
29	57	2
93	94	3
26	28	1
61	72	1
104	106	1
11	17	1
11	71	1
92	93	2
4	12	2
78	108	1
110	116	1
77	83	1
23	25	1
37	39	2
11	16	1
14	29	1
17	18	1
21	22	2
28	49	1
130	130	1
92	92	3
73	74	1
34	76	1
10	33	1
127	129	1
45	78	1
108	109	2
8	47	1
108	129	1
93	107	1
30	46	1
0	1	1
55	56	1
134	134	1
79	81	1
28	90	1
128	128	1
