13	25	3
69	70	3
75	75	30
4	23	1
82	82	30
5	34	2
75	81	2
85	86	5
10	66	2
58	58	11
68	68	28
50	50	17
27	28	8
62	63	15
10	11	5
51	51	18
80	80	25
49	49	19
72	74	5
30	30	30
25	25	20
1	1	12
86	86	8
34	34	20
89	89	23
81	82	17
9	9	21
66	66	11
59	60	6
15	15	12
11	11	19
77	83	1
69	69	20
50	52	13
65	80	3
59	59	13
22	22	15
4	4	11
54	55	4
11	12	3
81	81	37
18	20	1
12	12	4
47	47	17
0	1	4
84	84	22
83	84	4
8	53	2
52	52	17
64	81	3
57	57	33
10	63	3
79	79	26
51	52	13
78	78	14
58	66	2
9	10	12
53	54	10
70	70	19
8	23	2
67	68	5
79	80	5
7	13	3
24	25	3
8	9	9
85	85	17
60	63	10
74	74	24
83	83	22
55	55	20
14	14	22
76	76	19
72	77	2
65	65	21
75	84	5
17	18	2
76	79	4
8	59	5
87	88	1
62	78	3
79	81	2
10	10	31
63	63	14
86	87	4
10	13	7
77	78	6
72	73	14
87	87	11
67	67	18
22	23	4
55	59	1
3	3	12
53	55	3
88	88	15
21	23	2
66	71	2
56	56	17
14	22	3
16	16	7
54	54	6
72	81	2
61	62	4
6	6	11
78	83	6
19	19	17
73	73	17
71	71	9
1	2	3
23	23	25
88	89	9
49	54	9
13	13	3
78	80	6
24	24	21
72	72	18
80	81	4
69	81	2
60	65	4
48	61	5
26	27	2
5	52	1
27	27	10
5	7	4
60	61	12
60	60	12
69	71	1
49	50	16
48	48	7
62	64	3
20	20	10
62	62	16
64	64	12
49	52	7
63	65	2
9	12	6
56	58	3
75	76	9
12	13	7
77	77	24
10	14	5
61	61	6
0	0	22
18	55	1
12	25	3
59	61	3
13	48	2
21	21	7
21	85	1
5	61	1
29	29	8
53	58	6
13	49	3
2	2	8
22	24	4
68	70	1
65	73	2
70	71	5
64	74	1
7	49	5
82	83	10
50	57	1
10	16	2
47	48	7
75	79	2
31	31	11
0	2	3
52	59	1
17	17	12
61	66	3
5	6	2
7	61	3
5	5	7
60	66	4
26	26	7
6	7	2
78	81	3
2	26	2
21	22	5
8	13	3
46	46	10
53	53	5
19	20	1
28	28	11
52	53	3
54	65	1
25	26	4
25	58	3
9	31	4
85	87	4
25	27	2
6	17	2
81	85	2
81	83	9
47	71	1
4	67	1
7	25	1
7	7	5
8	8	7
72	80	1
46	54	1
5	58	1
60	62	7
46	47	1
79	82	1
89	90	2
29	30	1
19	55	3
7	8	7
4	5	4
53	75	3
54	59	1
11	30	3
62	79	4
23	27	2
3	4	2
50	54	2
23	24	3
58	59	2
14	18	1
74	75	4
77	87	1
78	79	2
77	79	1
17	20	4
18	18	1
62	80	3
34	65	3
76	77	5
8	17	2
47	68	2
32	32	1
6	13	8
70	75	1
49	66	1
19	21	1
46	48	1
20	22	2
8	66	2
6	33	1
51	73	1
33	33	2
17	49	3
53	64	2
79	83	2
10	12	4
55	67	1
73	74	2
10	65	1
51	72	1
53	57	3
9	66	2
12	14	1
90	90	3
77	82	3
30	31	4
54	57	2
68	69	1
46	52	1
5	20	1
11	19	2
62	83	2
23	47	1
24	68	1
7	12	2
48	53	1
49	58	1
8	61	1
5	54	2
61	63	1
81	84	1
29	31	3
59	62	1
6	8	3
34	63	1
6	48	1
48	78	1
12	46	3
20	21	1
15	16	3
47	58	1
64	65	3
63	81	2
61	83	3
66	67	2
71	82	1
35	35	1
23	25	2
76	80	2
65	72	1
13	27	1
5	8	1
48	49	1
4	66	1
30	68	1
67	70	1
34	35	1
76	84	1
14	67	2
6	9	1
8	54	1
63	64	1
65	74	1
50	56	1
22	27	1
4	70	1
54	56	1
59	65	1
