27	27	16
84	84	8
9	9	17
14	14	3
128	133	6
185	187	5
222	223	7
231	233	2
116	117	3
162	162	9
171	171	14
178	180	10
72	72	8
157	216	2
237	237	14
16	16	8
206	206	5
173	173	13
35	35	2
1	1	18
71	71	7
84	85	7
37	37	10
64	65	10
174	174	15
170	170	6
39	40	10
165	182	5
228	235	9
234	235	7
60	61	3
219	219	14
218	218	11
10	205	3
85	85	13
55	55	6
39	39	12
109	110	7
236	236	14
101	101	14
124	127	3
47	51	4
67	68	13
128	136	1
86	86	20
28	28	22
154	154	7
218	220	5
7	7	18
52	54	7
66	66	7
28	29	1
170	180	2
147	149	1
127	127	7
225	229	5
122	123	2
201	201	7
203	203	9
238	239	4
159	160	5
0	21	8
73	74	2
54	54	9
228	228	7
98	98	11
42	42	5
142	144	2
61	61	16
20	20	18
63	63	19
62	62	16
158	159	6
88	88	8
196	196	16
4	4	12
202	202	6
47	48	10
36	36	5
226	227	1
159	173	2
156	157	1
179	180	7
152	227	2
119	174	5
47	69	3
140	140	8
103	104	5
26	26	25
159	161	5
209	210	4
224	225	2
43	43	15
67	67	13
62	65	2
74	101	5
144	144	3
140	142	4
232	232	16
114	114	9
197	197	10
148	149	5
21	21	9
165	166	3
208	208	5
8	9	2
222	222	1
137	138	2
206	227	1
177	177	23
211	211	7
97	97	20
134	134	8
153	153	10
73	73	12
187	187	4
24	25	5
25	46	6
113	113	14
25	25	14
4	6	2
29	29	16
111	111	4
32	33	6
169	220	1
216	216	9
223	223	4
157	157	9
163	164	5
26	120	4
234	237	1
193	193	3
96	96	5
240	240	14
2	53	4
37	56	3
139	142	3
189	189	12
23	23	8
83	85	4
165	171	4
212	212	9
65	65	17
220	220	4
238	238	10
181	181	11
121	123	2
128	128	4
55	57	4
12	12	14
145	146	3
173	174	5
60	60	16
141	142	3
164	164	2
38	38	8
165	165	8
74	74	14
190	190	9
46	46	19
130	130	3
169	170	18
153	165	3
172	174	3
226	226	7
241	241	12
79	85	3
208	227	1
122	122	5
40	40	9
126	126	8
119	119	6
135	135	10
118	119	4
18	18	6
48	48	20
156	156	3
56	60	5
183	183	7
224	224	8
30	30	7
142	143	5
119	120	1
163	163	18
137	137	3
196	213	3
54	55	5
235	237	3
113	129	1
69	69	14
81	83	1
128	135	2
85	110	4
161	161	9
242	242	7
179	179	7
115	115	1
199	199	6
234	234	11
31	32	7
204	205	3
57	57	9
195	195	11
104	104	2
228	231	2
99	100	8
167	167	13
160	172	3
11	11	11
15	23	5
233	233	9
202	203	4
72	73	7
29	30	5
21	23	6
5	6	1
63	71	1
198	199	7
10	98	3
84	105	2
52	52	7
0	50	3
200	200	9
151	151	5
138	138	12
4	5	4
186	186	11
113	161	1
67	71	1
36	114	1
43	46	2
65	121	5
101	102	4
102	102	8
205	205	7
58	58	14
172	172	16
40	42	7
182	183	6
182	184	1
166	166	10
160	161	4
81	81	3
204	204	4
118	118	3
78	79	5
83	84	1
77	77	5
198	198	6
185	185	6
212	214	3
128	158	4
137	204	4
174	175	2
200	201	5
21	22	4
155	155	5
136	136	8
221	221	8
8	8	14
227	227	3
43	202	2
10	10	5
110	110	4
178	179	5
142	225	1
7	17	4
239	241	6
189	190	7
37	38	4
0	0	13
172	173	3
169	216	1
184	184	2
160	166	1
44	44	8
4	7	1
66	68	5
178	178	14
131	131	9
78	84	2
41	41	3
185	186	1
64	64	11
160	160	4
68	71	2
9	96	2
99	99	7
177	179	2
9	12	1
25	28	4
225	226	5
187	188	5
15	15	3
226	228	3
183	184	1
209	209	7
191	192	5
121	121	7
45	46	2
180	180	13
108	125	1
229	231	5
53	53	13
106	106	9
184	185	9
103	119	4
56	56	11
170	171	3
54	56	2
69	70	4
38	56	2
65	66	3
82	103	3
120	120	11
44	45	9
182	182	7
210	210	3
180	182	1
47	47	13
64	66	1
101	103	1
31	31	7
39	41	4
225	227	3
158	158	3
133	133	2
143	152	3
24	45	3
9	97	4
235	236	9
51	53	4
199	200	8
7	8	4
230	230	6
153	164	3
154	155	2
212	229	5
235	235	14
164	189	3
17	17	4
228	229	10
164	165	6
84	86	1
58	60	2
68	68	12
70	70	9
239	239	7
15	17	1
231	231	4
168	222	3
125	125	2
148	148	5
38	180	1
89	101	3
146	147	7
227	228	3
63	64	2
102	103	2
191	191	14
83	107	2
139	205	2
76	97	2
59	59	4
103	103	8
217	218	3
81	107	1
23	24	3
56	57	6
43	67	3
71	72	2
89	103	3
220	224	1
9	23	6
159	159	5
197	204	1
38	39	5
227	230	1
25	27	2
39	42	2
113	171	2
75	78	1
188	188	6
113	114	2
139	139	10
78	78	10
145	145	9
69	72	3
188	189	4
40	41	3
52	53	3
12	14	2
233	234	4
18	19	3
8	12	3
25	26	3
144	229	3
85	109	1
105	105	6
32	32	14
201	234	2
223	229	4
141	141	4
76	106	4
107	107	1
106	108	1
86	101	6
28	48	1
196	201	2
51	52	5
206	207	8
35	36	2
20	97	4
204	206	3
213	213	8
193	195	2
152	152	1
174	215	1
218	219	2
162	163	6
149	149	8
3	8	1
85	86	2
73	166	3
142	142	4
144	152	4
79	79	7
69	105	4
192	192	3
114	170	1
41	44	1
80	81	6
133	134	6
195	213	1
121	122	7
49	49	3
207	207	15
117	117	4
6	14	1
143	143	5
138	139	3
25	77	5
230	231	1
51	59	1
2	2	6
47	238	1
212	213	2
147	147	3
144	145	3
89	107	3
17	30	1
217	217	5
3	6	1
139	141	6
126	127	4
169	171	2
34	35	1
220	221	1
9	11	1
14	22	5
11	12	5
95	95	2
200	202	1
124	124	4
70	71	4
55	56	4
109	109	2
129	130	5
72	110	2
127	128	3
57	58	3
123	123	4
50	50	4
16	31	6
71	96	2
136	140	1
98	99	1
37	175	2
92	98	1
37	55	4
147	229	3
194	194	6
120	121	2
176	176	3
80	105	1
119	123	1
101	121	3
37	67	6
19	54	2
83	83	7
175	175	5
40	158	1
9	10	3
25	85	3
175	185	2
33	33	3
42	43	6
80	80	1
210	211	4
234	240	4
77	106	1
17	19	2
51	51	3
10	11	5
26	27	2
6	7	3
213	214	1
187	189	2
106	126	4
76	77	8
115	116	6
146	146	1
235	238	7
195	196	3
152	206	2
171	172	2
49	50	1
75	75	2
38	43	2
79	80	1
27	79	2
0	1	2
34	34	6
140	153	1
6	12	1
62	63	7
29	31	2
101	122	1
48	49	3
22	22	1
30	31	3
214	214	8
198	200	1
6	6	3
127	130	1
22	23	2
168	168	2
158	179	1
141	143	1
89	89	2
218	225	1
57	109	2
23	116	1
76	76	11
1	2	1
31	33	3
97	120	3
190	195	1
152	153	1
34	36	1
61	62	2
1	101	1
3	3	5
88	166	1
167	168	2
50	51	1
32	237	1
19	19	3
47	70	5
176	177	1
183	196	2
30	34	2
172	183	1
201	202	2
8	11	1
135	136	3
169	169	4
103	106	2
219	220	1
207	209	1
199	203	1
149	150	1
153	215	1
88	89	2
145	151	2
231	236	1
108	108	1
33	35	2
13	14	2
138	140	3
36	37	1
80	83	1
12	13	2
2	3	2
233	240	2
137	141	2
78	80	1
7	16	1
195	199	1
140	155	2
174	183	1
182	186	1
176	185	2
156	167	1
173	178	2
233	235	1
56	58	1
119	126	3
167	169	1
46	123	1
16	18	1
102	123	1
25	86	3
153	154	1
104	105	2
221	222	2
177	178	2
24	47	2
210	212	2
46	54	1
16	232	2
122	124	1
95	96	2
32	55	1
129	129	1
24	24	1
40	44	2
105	106	2
150	150	2
16	17	2
9	15	1
15	176	1
179	186	1
188	190	3
192	193	1
12	205	3
136	137	3
75	104	1
231	232	2
198	202	1
46	144	2
197	198	1
53	54	1
80	88	1
230	232	1
18	23	2
6	116	2
106	107	1
99	129	1
207	228	3
0	6	1
112	131	1
161	171	2
171	182	1
88	101	1
127	133	2
85	87	2
219	223	1
158	161	1
47	49	1
154	156	1
168	171	1
152	156	1
20	48	3
74	75	1
13	17	2
20	121	2
123	126	1
203	204	1
14	19	1
27	122	1
30	32	1
37	43	1
96	97	2
13	177	1
75	108	3
196	197	1
100	100	2
124	126	1
223	224	3
82	82	2
1	88	1
15	16	1
79	90	1
27	30	1
190	191	1
124	209	1
27	120	1
45	45	1
12	18	1
66	67	1
1	106	1
70	72	1
37	118	1
13	16	1
5	5	1
161	162	1
116	116	1
193	194	1
69	110	1
79	104	1
