53	54	2
127	127	6
26	26	11
73	73	10
21	21	5
66	118	5
51	51	6
55	55	12
110	110	10
112	112	15
0	1	5
57	62	2
154	155	7
66	66	2
114	114	7
119	119	3
156	156	10
68	68	3
134	134	8
151	166	5
169	170	2
16	16	15
84	85	5
15	15	15
2	3	3
24	25	1
36	36	8
9	10	13
64	64	12
162	162	1
37	42	3
47	47	4
143	147	7
103	103	2
156	163	11
111	111	6
39	51	4
153	154	6
2	157	2
148	149	4
45	45	16
33	33	6
37	43	1
33	37	3
5	5	8
160	160	10
8	8	16
58	62	2
18	18	8
101	104	2
161	162	4
40	40	14
117	117	7
113	113	5
14	14	12
56	56	8
19	19	13
144	144	4
1	2	5
77	77	5
40	116	4
22	22	7
109	109	11
80	80	10
93	93	6
148	148	11
53	53	6
130	136	2
17	25	6
11	11	6
50	51	4
26	27	4
118	118	10
71	71	10
23	24	2
4	4	8
25	112	1
135	135	4
133	133	5
11	12	8
161	161	4
27	27	3
125	149	2
39	39	7
24	24	5
76	86	2
54	55	7
13	16	6
159	159	3
49	49	5
70	70	2
134	135	5
131	131	7
3	3	9
1	15	6
2	2	3
90	90	8
48	50	2
145	146	3
78	78	2
109	110	10
42	42	10
108	109	3
142	143	7
149	149	7
157	157	10
53	146	2
7	7	16
93	119	2
6	7	6
136	136	7
137	137	7
147	148	1
0	0	1
143	145	1
82	85	2
145	145	6
3	109	1
34	34	6
9	9	4
120	120	4
108	108	19
151	151	6
83	83	7
72	72	5
16	69	3
12	12	1
41	45	1
1	1	4
111	112	4
98	121	1
16	18	7
57	58	1
35	53	1
75	75	3
128	149	3
165	165	5
0	154	3
37	37	10
88	88	6
1	6	4
125	125	2
4	17	1
107	107	6
52	56	6
45	58	1
102	104	2
34	37	2
83	85	1
43	43	11
52	52	7
144	146	2
52	69	1
97	98	2
42	46	6
87	87	1
152	152	1
85	125	1
155	165	2
126	126	5
56	57	2
124	125	3
12	13	2
80	81	1
128	128	3
40	41	4
46	47	1
151	155	4
157	158	3
4	154	1
13	15	5
93	94	6
83	86	3
99	99	1
131	132	1
1	4	1
16	72	2
54	54	7
114	116	3
49	50	2
89	90	3
84	84	7
106	106	1
132	132	2
16	17	1
15	16	1
8	13	3
101	101	2
130	130	2
65	65	3
154	154	2
38	38	4
1	147	3
11	18	1
62	62	2
163	163	6
143	144	2
6	6	4
166	166	1
85	91	2
82	82	4
46	46	6
146	149	1
14	44	1
44	45	1
34	142	2
42	43	2
129	130	3
38	40	1
158	158	2
165	166	4
43	159	1
121	150	5
144	145	5
76	77	1
1	146	2
123	123	6
129	129	7
37	53	3
159	162	4
13	13	2
116	116	2
112	157	4
11	74	2
41	41	7
140	140	3
89	101	3
86	86	2
90	107	1
117	118	2
33	55	2
114	115	2
94	94	1
83	130	2
105	105	1
74	74	4
20	21	4
23	23	8
49	53	3
115	115	4
72	74	3
24	53	1
22	23	2
33	34	1
138	138	8
85	85	3
9	15	2
38	44	2
10	10	6
89	89	5
95	96	1
42	44	2
35	35	3
19	24	1
21	22	1
81	82	4
17	17	1
18	19	2
83	84	2
122	151	3
4	15	5
4	14	2
17	38	2
39	62	1
119	121	2
43	44	3
28	28	2
101	128	2
155	155	2
41	42	1
34	143	1
74	75	2
5	109	3
25	27	2
133	135	2
33	147	1
10	12	1
101	102	4
168	168	1
139	139	4
50	50	4
159	160	1
4	45	2
72	157	2
81	81	3
88	100	2
35	54	1
118	119	1
48	48	2
88	109	1
0	4	1
104	105	1
5	155	1
63	63	2
137	138	1
143	143	2
54	83	2
57	57	3
43	46	2
110	111	2
105	106	2
48	52	1
170	170	2
44	118	2
9	13	1
163	164	4
160	165	2
91	113	1
7	11	1
33	35	1
164	164	1
166	167	1
139	140	2
8	10	1
149	166	2
35	36	1
167	167	3
20	20	2
104	104	1
8	9	1
23	117	2
159	165	1
67	67	1
127	130	1
88	101	1
53	71	1
64	117	1
65	117	2
77	80	2
53	55	1
25	26	1
82	90	1
19	20	2
101	112	1
149	150	1
19	116	1
164	165	2
72	73	1
5	9	1
21	24	2
13	25	1
39	40	1
121	149	2
58	58	1
42	110	1
162	163	1
68	108	1
7	20	1
10	15	1
107	111	1
62	63	1
