34	35	4
46	47	5
88	88	8
42	42	37
93	93	15
85	85	10
60	61	8
92	92	18
32	33	6
49	49	18
91	91	28
36	36	8
48	48	15
26	27	3
63	63	34
31	31	6
54	55	11
67	70	5
64	64	26
90	91	7
57	57	13
94	94	15
55	55	8
65	65	14
69	70	21
76	78	3
98	98	16
73	74	9
45	47	6
73	73	24
41	41	22
77	78	16
72	72	25
59	59	27
25	25	7
79	79	25
84	84	13
81	81	12
97	97	13
76	76	17
44	44	23
80	80	10
56	71	2
75	75	17
58	58	13
38	38	12
47	47	9
95	98	5
45	46	6
52	52	12
89	89	32
54	54	13
56	56	13
61	61	23
53	53	6
41	42	4
92	99	3
25	26	4
34	34	11
80	86	2
86	87	6
52	53	5
92	93	7
66	66	16
68	68	8
70	70	19
77	77	21
71	71	18
49	50	4
93	94	7
50	51	8
67	67	14
55	56	1
78	78	32
57	58	2
69	83	3
50	50	8
51	51	15
27	28	12
45	45	10
91	92	16
95	96	1
66	67	8
102	102	5
86	92	3
58	68	2
79	80	4
61	97	2
44	74	1
81	97	5
53	54	4
74	74	16
69	71	4
68	70	2
33	33	12
35	35	17
44	45	7
40	40	21
46	46	8
101	101	12
75	76	5
97	98	4
86	86	24
26	26	5
90	90	17
99	99	14
43	67	1
100	100	12
80	81	5
62	62	10
48	49	4
89	93	2
66	68	2
69	69	17
89	91	9
55	57	4
96	98	2
60	60	18
79	93	4
37	37	8
60	88	1
92	95	3
100	101	4
51	52	6
36	37	4
58	59	5
42	76	1
81	92	8
83	83	7
76	77	6
39	39	6
95	95	9
59	60	2
29	29	2
78	79	2
71	72	10
51	61	2
70	71	3
57	68	1
79	81	2
43	43	5
24	24	3
98	101	2
58	73	2
56	57	3
92	94	2
59	66	3
81	82	2
62	72	1
89	95	2
31	32	1
62	63	7
25	27	4
62	65	2
24	26	1
74	75	4
45	70	1
96	97	2
58	60	1
67	68	5
59	73	3
43	45	1
39	57	2
99	101	1
43	51	1
24	25	3
101	102	1
61	62	2
92	100	1
39	44	1
68	71	2
82	86	2
75	77	1
48	50	3
52	62	2
87	88	3
88	96	1
32	32	3
80	92	3
62	80	1
91	101	1
37	38	3
42	62	1
64	65	1
94	102	3
82	82	2
68	69	3
56	58	1
91	99	3
65	76	1
22	23	1
72	73	3
65	66	5
60	62	4
93	95	2
47	48	5
30	30	2
94	98	2
38	39	3
83	84	1
67	78	1
96	96	3
57	60	3
42	43	2
82	98	5
46	48	1
37	57	5
85	86	4
57	98	2
60	86	1
79	83	3
65	78	1
60	63	1
99	100	1
76	89	1
79	86	1
86	91	1
56	75	1
60	85	1
81	93	1
94	95	1
35	36	3
77	91	1
69	73	1
52	63	4
69	77	1
89	90	1
63	65	2
45	48	1
82	100	1
40	41	1
59	83	1
89	99	1
64	67	2
27	27	1
39	68	1
46	64	1
