42	42	6
138	138	5
65	68	1
87	87	2
90	123	4
173	173	4
152	153	5
92	92	4
178	182	1
3	3	5
89	89	5
83	83	2
76	79	4
107	109	6
68	82	4
72	72	2
47	47	1
116	116	3
77	77	12
6	8	1
55	55	9
108	108	7
0	12	4
96	97	6
145	145	3
12	12	2
128	128	6
137	137	4
107	107	13
156	167	4
43	54	2
110	110	4
96	99	2
0	45	2
85	100	5
87	123	2
181	183	1
38	185	2
134	134	1
150	150	3
155	156	4
139	158	1
5	5	5
27	27	2
93	93	1
174	180	1
5	36	2
4	4	2
114	114	7
96	152	6
13	13	2
123	123	2
114	115	2
155	157	2
92	138	3
20	21	1
119	120	5
117	117	3
146	147	2
154	156	7
57	112	2
45	48	3
22	46	1
115	115	7
154	154	3
62	63	1
68	70	3
135	136	2
144	148	2
164	165	5
10	11	2
157	157	10
130	132	5
133	133	5
184	184	1
138	154	5
115	131	1
129	129	1
93	104	5
156	158	1
44	45	1
169	169	4
22	22	7
150	167	4
134	136	2
80	81	4
5	6	4
64	64	5
71	113	1
162	162	6
35	36	3
146	146	6
119	119	1
133	137	1
147	147	14
139	139	1
46	46	1
33	33	1
182	182	3
95	95	1
102	102	3
53	62	5
48	77	2
108	111	3
88	88	6
88	125	9
132	132	3
64	65	3
7	7	2
108	109	5
90	90	4
73	92	1
13	44	2
129	153	1
30	31	3
94	106	5
21	22	1
53	53	6
74	74	2
111	111	1
56	56	1
78	79	4
72	117	2
143	143	10
21	21	3
23	59	3
29	29	8
28	29	2
149	149	1
87	91	1
40	40	3
84	84	3
40	84	1
44	47	1
63	65	1
97	97	3
136	136	2
94	131	2
94	94	2
166	167	2
180	181	1
160	161	3
131	132	1
115	118	1
135	135	2
70	70	3
42	70	1
174	174	1
104	104	6
15	16	2
18	18	2
133	140	1
80	80	3
74	90	2
26	26	1
22	23	1
164	166	3
53	54	1
70	94	1
113	113	1
127	127	2
161	161	4
168	168	3
166	166	3
120	120	3
16	45	3
16	16	3
85	120	2
103	103	5
45	46	5
186	186	2
0	22	2
174	179	3
82	120	2
26	71	1
168	187	2
92	165	2
111	112	1
81	81	3
95	130	4
171	172	4
155	155	1
31	57	1
85	85	4
162	182	2
146	148	1
166	185	1
141	142	1
98	99	3
125	126	2
109	112	2
147	149	1
142	143	2
125	125	1
41	41	2
6	6	2
9	16	2
130	141	1
148	149	1
164	164	2
142	142	3
39	40	1
101	101	1
38	38	1
47	52	2
36	36	1
16	17	1
87	106	1
62	62	2
43	43	2
45	47	3
68	68	4
92	180	1
24	24	2
1	1	1
138	190	3
109	109	3
130	148	2
32	32	3
34	34	1
92	121	1
96	96	1
81	82	1
117	118	1
97	98	2
155	182	1
88	98	1
7	42	1
61	61	2
0	0	1
71	118	1
15	17	1
60	111	2
3	72	1
15	22	1
181	182	1
10	10	1
10	60	1
94	95	1
150	151	1
82	82	1
23	24	1
73	82	1
63	64	2
171	174	1
85	109	1
