82	82	5
84	86	1
113	113	3
38	38	4
56	56	10
21	21	6
87	87	6
104	104	1
57	122	5
9	9	9
103	103	10
52	53	7
74	74	2
126	128	6
32	32	6
60	78	3
131	132	3
50	50	10
117	123	7
18	18	3
92	95	1
77	77	13
97	98	5
45	46	2
115	115	6
42	43	5
2	3	8
127	128	4
113	114	4
46	47	7
104	130	5
73	116	5
24	25	8
132	132	7
102	102	7
23	23	6
91	91	6
48	64	1
66	67	1
115	116	3
42	42	3
66	100	1
75	75	2
44	72	4
26	26	7
106	106	18
120	120	4
78	109	3
104	119	2
41	42	6
74	76	2
86	86	7
96	97	2
40	40	14
121	121	11
41	41	9
58	58	2
46	46	2
18	24	4
54	54	6
88	88	7
98	99	3
79	80	1
5	8	6
80	80	11
13	13	5
1	16	2
55	127	1
33	33	11
117	117	8
44	44	9
56	68	2
2	12	4
4	4	15
83	83	7
108	118	3
27	27	10
30	31	1
65	65	4
13	32	5
97	101	1
79	79	4
89	89	6
5	16	4
55	66	1
48	48	10
15	15	2
47	60	5
119	119	5
43	82	1
129	129	4
71	71	3
62	118	5
118	126	2
39	39	7
45	106	2
73	74	3
1	1	8
31	31	5
6	18	1
34	41	1
124	124	3
114	114	2
10	88	2
18	44	1
118	120	3
33	40	3
94	94	8
92	93	6
67	67	3
8	8	3
116	116	5
105	106	9
43	43	4
2	2	11
83	119	3
2	13	2
57	57	5
69	70	1
97	100	2
49	49	14
100	100	4
28	28	8
40	41	1
85	86	3
63	63	6
45	61	4
15	32	2
92	92	8
97	99	1
49	50	6
27	29	4
82	84	1
80	115	2
58	59	2
125	126	1
18	59	2
111	111	1
95	96	5
25	26	3
125	127	4
99	99	1
96	96	8
101	102	1
76	76	7
64	64	1
56	102	1
122	122	6
91	94	2
29	29	2
34	82	2
11	11	3
78	80	4
11	13	2
111	112	4
128	130	2
61	69	3
55	55	2
30	30	2
59	60	1
17	18	1
3	3	5
67	99	3
7	51	3
70	70	9
13	24	2
97	103	5
5	46	2
116	117	1
10	70	1
17	17	7
12	12	7
101	107	3
101	103	2
99	101	2
79	101	2
128	128	5
18	19	4
112	112	10
14	14	3
71	91	2
107	108	1
10	15	1
38	39	1
125	125	2
93	93	2
45	45	11
0	1	1
21	29	6
16	16	3
133	133	2
72	119	2
18	20	2
26	27	1
91	92	2
110	117	5
53	53	5
87	104	2
105	105	4
66	66	2
29	30	2
110	110	5
88	89	2
10	11	1
39	42	1
42	126	1
62	103	2
22	72	1
12	13	3
118	118	2
6	59	5
52	52	10
98	98	3
61	64	3
50	106	3
17	61	1
90	90	1
7	8	2
81	81	4
110	111	1
22	22	1
27	30	1
14	72	5
113	118	3
54	60	1
59	62	3
104	105	7
106	107	2
95	95	4
19	19	2
78	79	4
107	113	3
6	69	1
55	61	2
80	123	1
2	16	4
100	107	1
5	44	1
64	71	1
24	24	4
49	105	2
51	51	3
91	93	2
21	63	2
8	45	1
26	28	2
70	91	4
120	126	1
72	72	1
76	77	1
21	79	3
0	0	2
28	117	1
93	94	2
7	52	1
7	94	1
131	131	1
47	47	4
85	85	1
93	95	3
70	90	2
113	115	2
30	93	2
77	80	3
60	60	2
20	20	4
110	122	1
11	12	1
54	68	1
72	73	3
62	64	1
113	116	2
63	68	1
126	126	1
73	76	1
102	103	4
39	74	1
60	61	1
73	73	1
20	26	1
73	83	5
122	123	1
82	101	2
85	88	1
32	65	1
109	113	2
68	68	1
3	13	1
54	96	1
130	130	2
22	45	1
19	21	1
74	127	2
29	53	1
58	96	1
72	120	1
127	129	1
108	108	1
21	23	1
97	97	2
6	6	2
90	91	2
120	123	2
27	28	1
14	15	2
49	54	1
77	78	1
63	66	1
74	75	1
109	111	1
109	109	2
6	14	1
112	124	1
2	18	1
67	96	1
76	117	1
9	89	1
108	113	1
23	24	1
10	10	1
74	78	2
44	45	1
22	44	1
108	124	1
84	84	2
78	78	1
123	123	1
44	55	1
55	68	1
57	58	1
45	50	1
61	99	1
42	84	1
19	30	1
