150	150	1
41	41	4
86	93	2
100	107	2
104	104	1
46	46	13
16	16	9
68	69	3
37	37	5
87	87	2
95	95	9
49	65	2
136	136	1
58	87	1
148	148	5
110	110	2
56	56	6
106	106	5
83	83	8
36	40	3
27	28	5
121	144	2
30	55	2
104	111	4
112	112	6
87	94	5
7	7	7
102	102	5
153	153	3
31	34	1
12	12	10
17	17	2
14	14	20
154	154	4
40	41	6
6	7	12
21	22	2
32	32	13
88	99	1
9	9	4
94	94	12
8	9	3
36	76	2
149	149	4
148	149	1
97	98	7
103	111	6
35	35	3
14	15	4
26	51	1
144	144	11
13	13	10
63	94	5
4	8	3
152	152	2
76	76	3
30	30	7
130	131	6
36	36	6
73	74	4
80	81	3
21	21	8
128	128	1
63	66	5
40	40	12
25	80	1
141	141	6
24	24	7
58	58	2
22	22	9
108	109	6
86	86	1
84	84	4
22	23	4
8	11	1
145	145	7
69	71	1
18	18	8
116	116	5
44	44	7
68	68	6
96	96	3
80	94	5
29	29	6
38	38	13
6	6	6
53	55	3
77	78	2
53	53	12
42	42	2
81	81	5
144	146	5
45	45	15
101	110	1
86	87	6
31	31	7
130	133	3
3	4	4
5	6	12
91	91	1
49	49	4
78	94	1
76	138	1
127	127	7
20	21	8
96	97	2
15	15	4
34	36	3
88	97	1
47	47	5
103	104	5
25	26	6
87	98	3
96	114	1
131	132	6
19	19	10
75	75	10
99	99	2
39	39	12
38	39	2
4	6	1
48	48	7
131	134	1
123	123	7
130	130	5
134	134	6
63	63	8
27	27	3
39	40	4
32	56	1
4	7	1
88	93	1
66	75	2
10	19	2
65	86	1
26	28	1
151	151	6
77	77	13
144	145	1
95	99	1
26	27	2
122	122	9
87	97	3
76	136	2
138	139	2
28	28	5
42	43	8
72	72	3
51	51	3
80	80	9
75	84	3
26	26	3
133	133	6
104	105	2
63	139	1
23	23	7
119	119	3
55	65	2
32	34	1
6	15	1
44	69	4
75	76	1
49	70	1
56	123	1
27	32	3
101	101	7
38	40	6
129	129	5
5	30	1
149	150	2
147	149	4
36	37	4
7	54	2
5	5	5
11	13	2
93	93	1
72	75	2
47	48	2
135	135	5
103	103	3
124	124	3
103	105	3
35	36	4
12	14	5
79	82	1
74	76	2
25	27	3
109	109	7
139	139	2
98	98	3
62	62	2
78	78	4
54	55	1
120	120	3
5	53	1
24	39	4
20	42	2
12	13	2
117	117	1
80	87	1
50	50	2
31	49	1
72	80	2
63	81	1
11	12	2
82	83	3
101	108	3
63	64	1
67	128	1
64	94	2
10	10	2
100	100	4
140	140	2
72	93	3
87	88	2
110	112	1
54	54	7
122	130	1
64	82	7
2	3	2
4	4	2
84	86	3
134	136	4
76	77	5
64	64	3
69	69	5
40	47	3
103	109	3
36	46	1
66	66	2
150	151	2
8	8	3
11	11	7
3	3	4
34	39	2
145	146	1
143	143	2
72	79	1
63	65	2
41	48	4
13	46	4
74	99	2
17	19	3
121	123	1
87	99	1
67	67	3
11	14	4
142	143	2
108	108	2
92	92	4
81	82	2
25	39	2
93	95	1
26	33	1
34	35	2
93	94	3
25	50	2
4	5	3
85	145	3
120	128	2
32	37	4
5	32	3
109	110	1
83	84	1
38	55	1
78	82	4
100	105	1
121	121	4
98	115	2
27	30	1
16	18	2
20	20	2
126	127	1
118	118	1
34	34	1
90	90	2
111	111	1
71	71	7
63	88	1
27	50	1
22	43	1
13	14	1
61	62	1
97	97	2
36	53	2
43	43	1
33	73	2
76	78	1
122	123	2
41	42	1
55	56	1
62	64	1
7	8	2
42	104	1
95	97	1
42	112	1
128	129	1
95	98	1
83	94	1
68	71	1
127	128	1
28	30	2
50	51	3
122	128	1
146	146	1
18	19	2
58	62	1
10	11	1
132	135	2
66	107	1
127	136	1
103	114	1
78	112	1
25	25	1
87	93	1
105	105	1
13	25	1
65	65	1
130	134	1
107	107	1
20	43	1
68	124	1
74	75	1
26	42	1
85	85	1
3	9	1
124	125	1
121	127	1
67	86	1
67	68	1
64	88	1
84	144	1
70	70	3
102	103	1
62	63	1
98	99	1
132	133	1
143	144	1
82	82	1
74	74	1
137	137	1
34	49	1
84	85	1
48	51	1
42	56	1
85	143	1
