35	35	91
2	62	8
50	50	95
3	3	41
40	40	49
32	32	73
53	54	27
41	41	87
40	41	15
51	52	32
49	49	55
20	20	54
39	39	71
24	24	52
57	59	2
5	5	40
4	4	40
56	56	74
59	59	75
43	52	1
45	46	32
46	47	20
11	17	2
48	48	117
31	31	92
30	31	25
8	17	2
17	17	42
47	48	19
51	51	67
36	36	84
19	42	2
34	34	115
52	52	40
18	18	38
58	58	60
9	9	35
19	21	4
44	44	118
18	19	16
34	35	21
60	60	63
10	10	28
12	20	5
0	1	15
47	47	68
1	18	6
22	22	23
15	16	10
39	41	7
44	60	5
25	25	36
62	62	51
19	19	34
6	6	32
16	16	46
42	42	91
55	55	75
33	34	29
57	57	42
43	43	45
21	22	9
21	21	31
10	12	3
7	8	15
23	23	27
23	24	4
30	30	90
8	8	40
2	3	10
19	36	3
11	11	33
33	33	79
45	49	6
56	57	21
13	13	38
48	49	10
31	34	7
54	58	4
8	9	19
36	50	2
5	16	1
35	36	9
15	29	1
25	34	1
36	37	13
7	7	26
37	37	93
0	0	34
52	53	15
42	50	6
36	62	1
56	58	7
14	17	4
11	12	33
2	2	37
38	39	25
15	15	46
50	51	13
33	35	5
45	45	77
53	53	42
7	9	4
57	58	15
37	39	9
14	16	1
4	62	6
46	46	57
43	48	7
12	12	20
43	45	5
47	49	5
37	40	7
42	59	7
58	61	1
31	33	3
55	56	17
54	54	40
44	53	3
61	62	9
2	48	1
61	61	66
38	51	5
30	33	2
40	60	1
41	42	7
14	15	17
36	60	3
1	9	2
42	49	1
13	17	6
31	32	10
21	42	2
11	31	2
53	59	1
0	4	2
20	21	4
32	33	16
43	44	13
2	18	3
44	45	14
16	17	13
10	13	4
30	35	1
32	61	1
37	57	2
24	50	5
37	53	6
17	18	8
42	58	3
39	43	3
38	41	5
29	38	10
29	39	2
34	57	2
46	56	7
39	40	11
44	46	10
15	17	1
55	58	8
30	38	2
32	47	3
53	58	2
38	38	50
58	59	23
18	21	3
12	13	14
10	11	6
42	43	15
1	1	19
30	41	1
19	20	16
31	37	2
7	60	2
30	39	3
1	51	3
22	23	11
36	47	3
3	4	16
42	60	3
38	56	2
58	60	7
45	47	6
36	56	5
36	52	4
12	23	2
12	19	3
40	46	2
32	60	6
41	52	2
45	56	2
8	10	3
49	55	2
56	60	13
14	14	30
30	42	2
21	23	1
3	20	2
7	19	2
49	50	11
36	61	4
40	42	7
50	55	4
25	51	2
12	15	1
50	53	5
54	59	6
55	59	9
16	54	1
59	60	7
30	40	1
43	50	2
53	55	5
2	20	2
43	57	3
2	31	6
17	20	6
36	42	11
43	49	9
31	39	3
35	47	3
48	50	1
54	55	2
60	61	7
45	55	3
55	60	5
45	58	2
23	58	6
6	8	8
44	52	4
3	42	1
9	37	2
1	3	2
32	42	5
39	50	2
10	18	5
40	53	5
36	49	1
6	7	3
39	58	4
6	13	4
49	51	3
47	58	1
7	16	3
37	56	3
31	59	2
15	40	1
13	33	1
4	5	5
0	24	6
37	38	9
41	54	3
38	54	1
5	6	9
52	55	3
7	13	3
44	50	2
38	59	2
37	55	2
6	20	4
29	29	2
4	17	3
16	53	3
39	42	3
57	60	6
5	17	3
31	47	4
4	8	1
32	52	3
52	54	4
8	16	8
12	22	5
24	25	3
37	47	4
38	50	4
41	53	9
48	61	1
13	22	1
21	24	2
11	13	5
1	2	14
3	11	4
11	16	1
43	61	1
31	49	1
55	61	4
0	20	9
8	25	2
3	8	2
30	52	4
49	58	1
50	52	11
52	59	2
32	35	3
30	46	6
2	23	3
12	55	2
50	59	2
46	53	4
49	60	1
22	24	7
18	60	1
19	52	2
32	55	2
15	55	1
44	51	1
31	48	1
40	52	2
56	59	5
14	29	1
13	18	5
15	18	2
0	31	4
31	57	3
44	48	1
30	47	1
19	22	1
31	45	2
38	57	3
10	50	2
32	36	5
54	56	1
1	7	3
37	46	2
31	62	1
44	58	1
40	59	3
43	46	6
13	14	8
17	52	1
9	16	2
2	19	3
9	12	1
37	45	4
46	61	1
35	62	3
6	11	1
41	59	2
4	6	2
31	56	2
55	57	1
32	34	2
2	22	1
24	37	1
37	43	5
0	62	2
5	13	2
38	40	3
11	36	1
31	60	2
0	52	1
6	10	2
30	32	3
40	54	4
0	14	3
45	57	1
51	53	2
39	54	2
44	49	2
34	47	1
52	57	1
4	33	1
31	44	2
24	40	1
7	12	1
20	22	2
4	30	3
21	37	4
4	11	1
44	47	1
0	2	2
22	46	2
12	14	2
44	57	3
49	57	4
26	26	1
23	40	4
5	54	1
51	60	1
6	9	2
32	57	4
6	12	1
23	25	2
47	57	1
42	52	1
8	20	2
24	38	1
7	22	1
50	56	2
42	62	1
37	54	2
20	45	1
12	16	5
1	38	2
30	57	2
10	15	1
13	16	1
1	24	2
49	56	2
38	45	1
43	47	2
41	51	1
9	24	2
32	48	2
44	61	1
39	52	1
40	44	1
10	14	2
10	17	1
9	10	2
38	53	2
16	21	1
37	41	1
13	21	1
9	29	1
4	9	1
11	52	2
0	17	1
14	59	1
45	51	3
19	24	1
30	44	1
5	51	2
45	61	2
5	60	1
39	57	1
32	54	1
46	59	1
49	54	1
11	14	1
32	49	1
30	34	1
36	39	1
35	50	1
32	44	1
11	23	1
19	54	1
