3	3	9
107	107	9
69	70	4
19	19	5
54	55	2
14	17	2
67	67	6
131	131	8
86	86	8
63	111	3
38	66	1
125	125	2
5	5	6
107	132	2
32	33	5
99	101	4
81	88	1
2	2	4
74	75	2
78	78	5
43	43	12
93	114	2
29	29	7
99	99	5
18	18	12
119	122	6
127	127	4
76	115	3
13	14	1
16	25	4
118	118	6
124	129	2
28	69	3
101	101	11
126	126	4
86	88	3
104	104	2
69	84	4
83	110	5
113	118	3
82	82	10
95	123	2
70	70	1
63	63	7
50	50	7
98	120	1
105	105	6
23	24	2
23	23	3
24	24	9
133	135	4
133	133	3
60	60	5
67	68	2
123	134	2
77	77	8
21	23	2
56	56	11
52	53	7
53	101	3
91	105	1
108	108	4
20	20	1
101	110	1
14	19	6
123	123	3
48	48	14
27	81	2
45	45	12
28	29	2
87	88	4
130	131	3
84	84	14
47	131	2
100	100	4
27	27	2
71	71	4
61	87	4
53	87	1
47	51	3
97	135	1
28	28	7
79	79	3
1	103	4
109	111	3
22	43	3
77	78	4
95	96	2
22	22	4
76	76	1
111	120	3
25	37	5
17	17	1
93	105	2
113	113	10
44	44	6
31	31	5
110	117	2
54	59	1
119	119	4
97	111	2
98	98	7
33	34	2
106	129	1
91	91	2
66	92	3
67	111	6
32	121	1
46	46	3
64	84	3
61	114	2
38	38	7
26	33	2
116	116	7
64	64	4
60	61	2
98	119	1
9	11	4
117	117	3
16	34	3
129	129	1
128	128	2
72	126	4
22	23	3
14	15	6
113	116	2
106	130	1
110	110	2
59	62	2
109	110	1
88	88	2
123	124	1
103	103	5
1	1	1
10	13	1
54	54	7
27	58	1
25	25	4
11	13	2
112	112	5
111	111	4
6	7	5
83	83	1
78	82	3
49	49	3
88	89	1
117	120	2
120	120	2
57	80	4
48	87	4
24	25	3
32	32	4
96	97	2
97	129	3
55	55	1
72	113	1
121	121	2
72	125	1
72	73	1
102	104	1
89	89	6
72	72	6
119	120	1
56	111	2
50	51	2
21	21	1
66	108	1
6	117	1
37	38	1
77	85	1
61	61	4
36	38	2
122	122	3
63	65	5
75	76	1
21	24	1
74	74	3
91	101	1
114	114	8
98	118	1
82	83	1
52	52	1
47	47	1
81	81	2
62	63	4
27	54	1
123	131	1
26	26	2
95	95	1
4	114	1
10	10	1
112	113	1
90	90	8
61	115	1
73	73	2
92	135	1
73	112	1
14	14	3
129	130	3
102	102	1
4	4	1
85	85	2
117	118	1
20	22	2
62	67	1
12	12	3
65	65	3
75	75	3
50	52	1
1	2	2
66	78	1
96	96	2
115	115	3
33	33	3
69	69	6
59	61	1
92	93	2
89	102	1
128	130	1
108	123	1
72	111	1
106	122	1
86	87	2
35	35	2
6	6	2
43	52	1
16	21	2
57	107	1
121	124	1
97	97	1
129	133	1
67	116	1
20	21	1
7	9	2
53	53	1
50	54	2
57	57	1
21	22	2
76	114	1
66	67	2
121	132	1
7	7	1
105	134	1
92	95	1
108	110	2
116	117	1
45	46	1
47	48	1
107	109	3
27	28	1
66	77	1
61	108	1
96	114	1
64	115	2
15	16	1
80	80	1
109	109	1
55	58	1
93	94	1
79	97	1
89	90	1
105	135	1
85	118	1
104	105	1
80	81	1
