76	77	4
62	63	4
79	98	4
101	101	12
44	44	2
104	104	14
41	43	1
38	51	5
23	23	23
44	46	2
78	79	8
95	96	5
32	32	11
38	38	10
84	85	8
103	104	1
71	71	16
64	79	5
102	102	10
78	83	2
64	91	1
46	46	20
48	92	2
59	88	7
95	95	19
31	31	17
98	99	6
37	52	1
43	95	2
56	64	3
99	99	11
86	86	9
54	71	2
20	20	4
66	67	3
21	21	10
48	90	6
59	59	17
25	25	18
26	30	5
62	62	11
70	70	19
24	24	7
54	105	4
94	94	24
40	40	11
57	59	5
75	75	6
83	83	9
89	89	18
71	72	5
22	34	1
64	64	14
50	50	16
97	99	13
28	30	2
72	84	7
92	93	4
41	41	3
89	90	6
28	29	4
67	71	3
72	73	5
78	96	8
56	78	1
91	92	2
50	92	3
27	27	26
84	84	12
60	63	4
67	76	5
65	65	13
86	88	4
45	46	5
83	86	4
63	77	4
76	76	9
50	51	7
35	35	15
48	49	3
68	69	4
49	49	8
85	85	6
82	85	3
29	29	2
53	53	15
52	72	2
73	106	1
69	69	14
74	74	16
33	33	14
73	87	2
28	28	8
94	95	1
84	87	3
36	54	2
82	82	13
81	81	10
55	55	17
57	57	15
61	62	5
40	42	8
93	93	26
41	48	5
87	87	19
56	56	10
100	100	10
67	75	1
83	85	14
91	91	15
32	58	10
51	51	12
34	34	9
103	103	16
46	79	1
96	96	10
107	107	7
41	46	2
40	89	1
56	57	6
78	78	13
20	28	2
85	86	3
48	53	2
54	55	3
21	86	2
41	78	2
88	88	10
23	24	4
98	98	6
90	90	12
29	30	5
60	60	9
54	54	13
43	43	9
38	48	1
56	60	1
52	53	4
78	98	3
42	45	4
52	52	12
55	70	1
36	47	1
94	99	3
45	45	6
79	79	9
83	84	4
37	37	8
65	86	2
61	61	6
89	106	3
45	48	1
73	73	22
47	48	2
46	48	7
46	88	2
58	58	5
55	85	1
44	49	4
48	48	8
64	71	2
48	76	1
29	56	1
31	33	5
38	52	6
66	83	2
64	80	1
67	69	1
77	93	4
22	22	7
47	58	1
20	21	6
94	98	6
37	54	2
80	80	17
62	77	2
77	77	1
84	86	3
58	61	6
97	97	2
78	90	3
77	89	1
74	90	1
104	105	5
26	26	7
33	71	4
27	29	3
97	98	3
44	98	5
57	81	2
51	52	4
57	86	1
82	89	5
23	105	2
33	66	4
65	69	2
86	87	4
35	36	3
51	54	1
92	92	4
44	48	4
74	100	2
75	94	3
56	59	1
74	75	4
102	103	6
68	103	1
27	28	2
82	88	1
53	54	5
38	39	4
65	101	3
68	68	13
58	88	5
106	106	4
63	63	9
34	55	1
56	84	5
57	61	1
57	58	6
60	72	1
55	56	6
60	62	2
72	72	11
30	30	7
37	38	2
36	36	16
39	39	6
54	106	1
78	88	1
90	101	3
32	92	1
50	65	2
94	96	1
62	92	2
92	94	1
44	45	7
56	58	2
26	27	5
105	105	2
82	90	5
88	89	2
55	103	4
67	67	8
42	42	7
33	72	2
46	77	1
39	49	3
30	88	1
57	106	2
88	97	3
61	92	2
25	26	3
63	72	3
76	98	1
35	70	2
59	60	3
46	47	6
67	70	1
74	89	1
39	67	2
88	92	3
60	81	2
67	68	8
94	97	1
41	42	5
24	25	2
57	64	3
24	35	1
47	47	4
35	52	4
22	35	2
80	81	1
78	84	8
83	89	2
57	87	2
42	46	1
42	44	1
77	106	2
66	72	1
62	80	3
35	55	1
66	90	3
95	98	2
93	99	2
79	80	3
79	81	3
33	34	5
40	44	1
43	45	1
78	82	3
27	30	1
73	74	1
26	28	1
21	24	1
51	75	3
77	92	2
31	67	4
88	106	2
39	53	2
78	97	2
21	56	2
23	32	1
96	99	2
78	80	4
20	26	2
64	65	2
79	82	2
35	37	2
65	79	2
58	107	1
29	58	1
40	41	2
58	64	1
31	32	1
58	62	2
31	35	4
64	70	2
62	72	1
87	88	3
96	98	5
44	80	1
71	89	1
42	92	1
42	43	4
52	54	2
70	72	1
91	94	1
33	106	1
22	106	1
57	88	1
61	72	1
76	101	1
78	85	1
21	34	1
70	71	1
33	65	2
60	80	1
32	33	2
25	86	2
40	43	1
40	76	1
88	96	1
62	87	1
91	101	1
67	73	1
39	52	2
37	46	2
93	96	1
32	72	1
56	106	1
28	92	1
31	58	1
21	53	1
76	92	1
85	87	1
56	90	1
65	67	1
41	44	1
77	82	2
90	91	1
87	89	1
24	31	1
87	90	1
26	29	2
93	94	2
57	80	1
92	95	2
76	106	1
86	106	1
75	100	4
63	64	1
67	93	1
90	92	1
70	91	1
60	61	1
77	95	2
100	101	1
55	59	1
35	102	1
85	106	2
77	100	1
62	67	1
68	71	1
58	87	1
83	95	1
53	105	1
82	83	1
35	71	1
83	91	1
35	82	1
89	91	2
35	105	1
45	89	1
50	53	1
77	86	1
33	67	1
72	91	1
53	74	1
29	88	1
92	96	1
33	39	1
66	66	1
100	105	1
39	42	1
