81	82	4
242	242	19
14	14	15
202	202	8
148	148	4
156	156	5
31	222	3
64	202	4
100	101	1
237	237	9
228	228	8
73	73	24
191	192	7
213	213	7
106	106	6
2	2	9
33	33	14
17	17	20
102	103	2
48	59	1
151	151	2
64	64	15
32	32	21
6	6	19
63	63	3
58	58	12
227	227	11
139	140	4
23	23	14
135	136	5
16	16	5
175	196	7
101	101	14
214	227	1
43	43	17
196	196	3
233	234	4
65	65	13
219	226	3
144	146	9
235	235	5
7	8	4
57	154	7
102	102	6
60	60	6
141	142	5
10	105	2
46	46	12
25	69	3
21	21	8
15	15	3
86	86	14
78	78	10
113	113	11
229	229	10
189	189	14
171	171	14
61	61	13
62	62	8
17	33	5
68	68	11
205	205	5
141	141	1
140	140	7
76	161	1
150	150	4
45	45	12
118	119	8
99	99	16
88	89	2
80	80	12
206	211	1
234	236	3
40	40	6
5	8	2
44	44	15
0	0	16
140	158	5
140	141	5
108	108	5
222	222	2
209	209	10
71	72	9
159	228	3
124	124	3
28	28	7
179	179	7
103	103	8
38	38	10
70	70	7
74	74	10
66	66	11
175	175	7
58	59	6
219	219	3
201	211	1
138	139	5
198	200	3
107	107	4
135	135	14
53	53	9
39	39	7
125	125	10
203	230	1
4	4	11
5	5	9
174	174	11
38	69	2
184	196	2
10	18	2
127	127	6
147	147	2
220	221	3
77	79	5
52	52	12
83	84	3
40	42	14
172	173	5
232	232	6
156	157	4
181	182	1
217	218	4
96	97	2
206	210	2
7	78	3
34	223	2
122	122	12
177	177	13
137	141	3
216	216	12
71	71	16
9	9	19
18	18	11
30	30	10
76	79	2
31	31	12
139	139	5
63	162	4
203	203	7
131	131	6
72	72	14
3	76	2
134	134	1
42	42	7
195	196	2
96	96	1
193	193	8
241	241	9
13	14	11
173	173	4
214	214	6
29	29	16
182	185	4
11	15	5
18	19	7
75	75	16
143	143	3
42	43	1
138	152	2
136	136	12
168	168	7
123	123	10
183	183	4
85	85	13
40	41	5
151	154	5
69	69	14
240	240	6
84	84	15
170	170	4
11	12	1
223	223	9
117	118	12
139	219	2
39	56	1
144	241	6
211	211	5
14	29	3
14	16	2
143	144	4
13	15	3
100	100	9
55	58	2
210	212	4
10	10	9
47	162	2
22	22	5
153	155	2
167	173	1
44	45	4
56	56	5
81	81	8
235	237	5
42	45	1
96	163	5
157	157	6
65	106	3
104	104	13
163	166	10
54	55	7
55	55	6
12	12	19
22	23	2
75	76	4
32	33	1
40	47	1
1	175	1
7	7	8
60	62	2
120	120	5
201	216	2
151	152	4
129	129	6
131	134	4
137	137	9
217	217	10
192	192	4
52	53	8
220	220	5
98	102	3
19	19	8
117	119	5
178	179	5
159	180	2
153	153	13
24	25	1
26	26	9
182	182	7
21	22	3
28	29	5
20	21	1
198	198	4
198	204	2
54	54	24
2	35	5
181	181	8
46	47	3
163	163	6
221	221	9
144	240	2
163	164	2
170	171	1
191	191	6
116	117	9
36	36	18
212	213	4
189	229	4
98	99	2
110	110	3
208	231	1
193	194	1
236	236	9
231	231	7
71	73	9
101	203	2
9	20	2
48	48	13
67	67	9
50	50	2
126	126	7
152	186	1
56	57	2
79	169	8
4	81	1
140	142	1
62	72	1
201	223	2
179	186	3
195	195	7
50	51	3
187	194	6
144	147	1
190	190	3
8	8	3
194	195	7
49	50	2
207	207	3
79	79	5
95	95	4
123	124	4
230	230	5
169	170	4
201	201	1
7	13	3
224	224	4
137	161	2
109	109	8
197	197	4
228	229	5
185	185	3
20	20	21
35	35	5
76	76	6
66	68	2
81	98	1
4	80	2
109	114	1
82	84	8
133	133	12
51	51	4
5	6	5
88	88	4
97	97	5
34	34	3
164	174	3
24	29	4
176	176	9
63	64	2
178	178	3
44	47	2
47	157	4
104	105	3
108	109	1
82	82	5
224	225	1
145	145	2
115	116	2
165	185	2
1	1	1
131	132	2
149	149	3
155	157	2
16	18	7
191	201	2
6	22	6
180	180	5
30	31	9
38	39	5
16	22	2
59	85	2
35	36	1
79	80	4
62	102	4
115	115	3
167	167	2
5	79	4
20	22	2
173	174	3
97	124	1
25	25	4
234	234	4
124	125	2
153	154	8
225	226	1
162	230	1
75	98	2
116	130	3
58	82	3
11	11	12
15	31	2
78	100	2
238	238	6
189	190	3
226	226	1
77	77	9
80	81	12
25	232	1
132	132	1
31	33	3
28	32	2
166	183	1
220	222	2
13	13	6
17	32	1
20	23	4
159	166	2
145	147	2
207	208	1
208	208	14
175	197	1
204	204	1
83	83	3
107	108	3
196	197	1
186	186	8
146	147	2
10	11	3
210	210	3
199	224	1
190	207	3
142	142	2
24	24	10
41	155	3
78	80	1
23	216	3
194	194	1
152	152	5
50	81	2
8	78	3
62	171	1
2	3	7
179	195	2
57	58	3
169	169	3
98	98	3
199	199	5
57	57	3
144	144	4
225	227	1
3	3	1
70	86	1
107	112	1
168	173	1
239	239	2
200	214	2
14	18	4
124	212	2
6	7	1
46	64	2
41	52	2
34	36	4
8	41	1
88	91	1
15	16	2
165	165	2
61	110	1
193	196	7
86	136	2
189	213	4
188	188	4
12	65	2
58	84	1
148	150	1
76	80	3
212	212	8
133	135	1
37	225	1
64	200	1
17	18	4
170	173	2
128	128	5
70	71	1
118	118	1
70	140	2
164	164	2
9	10	1
60	61	3
138	165	1
191	242	1
13	56	1
27	27	2
5	76	1
205	206	3
4	7	1
63	108	3
17	56	2
111	111	5
106	107	5
126	127	4
32	68	1
218	218	8
124	132	3
37	219	1
78	91	1
169	171	2
73	74	4
218	226	5
62	64	2
240	241	1
91	91	1
154	154	1
83	133	2
35	189	2
13	16	4
158	179	1
27	173	1
82	83	9
13	30	1
117	117	2
105	105	3
97	135	1
85	106	2
216	217	1
138	148	1
187	188	1
20	37	3
147	148	1
66	67	6
28	30	1
11	19	1
33	34	1
8	18	1
166	230	3
4	79	1
67	68	3
137	160	4
42	112	4
76	109	2
51	54	1
13	18	1
115	117	3
140	153	1
241	242	1
206	206	2
64	65	2
39	41	1
4	6	1
23	63	1
161	230	1
59	59	5
43	64	1
199	200	2
121	121	2
177	179	2
65	69	1
39	43	2
14	15	2
5	7	1
116	116	2
160	160	3
80	82	1
161	228	2
187	193	1
11	37	1
119	119	1
108	113	1
18	22	1
95	96	2
215	215	2
4	5	1
47	74	1
80	99	1
205	211	1
49	53	4
43	45	2
126	152	2
138	232	3
221	223	2
189	210	2
65	202	1
8	77	1
198	226	2
3	5	2
200	200	1
103	104	1
29	42	1
120	122	1
59	60	2
152	163	2
146	146	1
46	115	1
7	21	1
159	183	1
37	55	1
155	156	2
50	155	1
69	102	1
221	222	2
49	163	1
66	202	1
37	37	3
233	233	2
146	232	2
35	190	1
177	178	2
39	40	1
158	159	1
49	156	1
144	145	2
125	128	1
127	158	1
224	227	2
121	122	1
84	103	1
154	162	1
155	155	1
37	38	2
180	192	2
41	42	1
17	22	1
31	34	1
204	206	1
75	99	1
162	163	1
50	53	2
150	151	2
204	230	1
202	208	1
112	112	1
85	86	1
46	161	1
175	192	1
47	47	2
122	124	1
120	123	1
9	33	3
150	163	2
141	227	1
183	184	2
234	237	1
159	159	1
109	112	1
201	228	1
28	226	1
61	102	1
139	156	1
235	236	2
22	24	1
26	27	1
158	158	1
172	172	1
167	180	1
186	187	1
142	143	1
81	84	1
53	156	2
61	86	3
210	230	1
151	174	1
168	169	1
142	227	1
200	207	1
61	203	1
150	152	1
218	236	1
188	189	1
55	72	1
150	225	1
125	127	1
12	56	1
188	194	1
29	30	1
8	13	1
41	41	1
69	106	1
59	165	2
86	107	1
95	137	1
51	154	1
