134	134	2
29	30	2
183	183	2
178	179	7
187	214	3
14	14	6
31	31	5
117	117	5
206	215	3
29	37	3
73	73	10
75	78	1
157	158	1
169	193	2
0	37	1
235	236	4
34	34	7
57	57	4
171	189	4
198	204	3
24	24	2
186	215	3
85	85	11
103	104	3
44	44	4
121	121	3
134	145	3
9	9	4
9	69	1
218	218	1
122	122	4
30	82	7
222	222	3
148	148	3
191	191	9
102	102	6
133	133	1
167	185	2
98	98	8
72	72	5
123	126	2
13	15	3
2	2	8
20	20	3
146	164	3
168	168	5
82	82	6
237	237	3
7	15	4
13	47	2
75	76	5
66	66	6
223	225	8
6	7	6
56	57	2
47	66	3
81	81	9
48	55	3
178	178	2
84	85	6
161	161	9
151	151	1
46	46	11
23	24	3
11	13	1
205	215	1
228	228	3
96	96	5
163	222	5
69	135	5
233	233	6
43	47	2
226	229	6
17	30	5
160	160	1
152	166	1
181	181	4
234	234	19
55	55	6
147	165	1
206	206	4
29	51	1
144	160	2
236	236	6
46	47	9
21	21	9
207	217	5
199	199	4
60	62	1
241	241	7
174	175	11
155	155	4
6	13	2
178	233	3
47	47	3
38	38	2
221	221	3
76	77	1
113	113	2
129	157	2
54	54	10
120	123	5
129	150	7
3	7	2
30	30	6
63	63	12
150	150	4
98	101	3
197	197	7
169	206	1
12	12	8
58	58	6
197	201	2
38	57	2
126	126	2
234	238	3
109	109	3
30	45	5
232	232	2
42	162	2
44	65	3
45	64	2
29	38	2
196	196	1
61	61	10
162	162	5
4	8	1
138	225	2
202	202	3
10	32	2
6	6	3
167	169	3
106	106	2
187	205	2
101	101	1
40	75	1
163	163	4
200	200	4
83	83	2
114	114	3
194	195	5
74	75	1
185	185	5
32	63	4
238	238	7
221	225	2
203	204	1
26	26	7
165	165	6
171	171	5
36	38	4
29	29	5
174	201	5
192	192	7
8	8	12
49	50	3
41	79	2
2	5	2
190	190	6
186	187	3
58	59	2
0	1	2
76	98	2
62	62	9
24	36	2
50	54	3
5	5	2
1	1	3
51	53	3
157	165	2
18	18	4
45	45	3
111	112	6
71	71	3
135	146	7
28	45	6
11	11	3
215	215	3
10	10	6
159	165	1
28	28	1
78	78	1
54	55	5
176	176	1
48	48	5
122	127	3
23	23	3
146	165	2
180	180	4
9	28	2
99	99	1
72	73	4
126	137	3
95	103	2
38	45	2
59	81	1
65	65	1
95	95	2
68	69	3
49	108	4
9	37	2
230	230	2
76	78	2
177	177	7
25	27	1
44	127	2
129	168	1
138	226	5
182	191	4
185	186	1
32	36	3
199	226	1
59	59	3
181	182	2
54	69	1
15	40	1
240	241	2
170	191	1
100	102	1
213	213	1
56	56	1
33	33	5
25	42	4
40	40	4
4	6	3
14	157	1
136	140	2
51	51	7
184	185	4
7	40	2
176	177	2
88	117	2
50	65	2
1	36	6
212	215	1
210	211	4
173	174	2
19	19	4
164	164	2
172	172	3
166	169	3
201	201	1
74	74	5
159	159	3
128	159	2
219	219	4
164	165	2
95	96	2
0	9	2
77	81	2
168	169	5
145	147	2
64	64	2
198	198	3
188	188	3
163	167	6
187	198	1
59	100	6
75	89	5
184	184	4
218	219	1
187	187	2
21	69	1
102	103	1
51	59	2
123	127	2
59	60	1
37	60	1
56	65	3
79	82	2
12	20	1
66	78	5
60	60	4
142	142	3
112	122	2
205	217	2
20	24	1
7	7	5
49	156	2
43	202	1
14	15	1
43	67	1
166	200	2
229	230	5
20	23	1
80	80	7
23	42	3
34	36	4
31	220	2
135	142	1
190	211	2
184	207	4
64	66	1
239	239	9
116	116	5
98	125	1
98	99	3
16	30	1
105	105	1
134	144	3
15	15	4
137	138	2
147	229	1
201	202	1
234	235	1
129	129	4
227	229	5
10	56	1
83	85	2
79	79	2
173	173	6
6	16	2
233	236	1
231	231	5
42	46	4
11	145	1
37	37	1
179	180	2
226	230	1
23	89	2
241	242	1
143	147	5
160	161	2
186	189	3
91	114	3
2	22	2
22	23	4
26	27	1
4	23	1
136	136	2
202	226	1
223	226	3
224	225	3
99	100	3
17	17	1
35	50	2
172	177	1
169	169	5
100	100	1
32	220	3
42	42	3
70	70	2
39	42	2
116	125	1
152	153	2
175	175	6
60	104	2
33	61	1
223	224	1
76	76	2
43	43	3
61	62	1
194	194	4
127	127	3
71	72	4
137	137	2
35	77	2
10	62	2
10	34	3
50	50	1
36	36	4
129	158	2
42	43	1
123	125	2
27	27	1
32	33	1
115	115	3
143	169	1
160	177	1
46	64	1
116	118	1
84	84	4
40	76	1
119	119	4
150	152	1
63	79	6
233	235	4
212	213	1
109	112	1
152	165	2
210	210	1
135	136	2
229	229	2
198	224	2
150	166	2
215	216	1
211	211	1
25	25	3
82	83	1
82	84	2
60	61	2
151	156	1
153	153	3
3	9	2
40	41	1
3	4	1
37	38	1
4	4	2
21	23	2
30	115	2
4	16	1
80	83	1
195	195	3
204	208	1
95	101	3
22	22	3
85	183	1
123	123	2
79	80	2
10	37	2
156	156	2
53	67	2
17	18	2
58	63	4
37	46	2
105	106	2
19	64	3
14	50	2
212	212	2
98	105	2
5	16	1
7	8	3
231	232	1
15	16	1
184	187	1
63	70	1
166	166	4
236	238	1
64	74	1
195	223	1
107	125	2
171	177	1
3	3	2
239	240	3
111	111	1
103	103	4
127	136	1
35	60	1
69	69	3
144	159	2
97	97	1
3	8	1
107	127	1
240	240	2
184	188	2
165	166	1
152	154	3
137	225	1
9	44	1
235	235	2
234	237	2
109	110	1
104	104	2
60	79	2
33	225	1
214	223	2
190	191	2
43	162	1
7	35	2
108	127	1
214	215	1
204	204	1
44	202	1
216	217	1
141	141	3
74	79	2
191	192	3
18	64	1
49	52	1
203	203	1
170	170	3
149	167	1
129	130	1
19	48	1
35	35	2
66	67	5
138	138	2
107	107	2
48	61	2
33	35	2
139	139	1
13	13	2
118	118	1
31	223	1
47	48	1
48	57	1
163	194	1
17	23	1
181	185	3
179	179	1
232	233	1
12	49	1
220	221	2
86	113	2
59	61	1
26	43	1
70	73	2
147	147	1
142	143	1
6	48	2
225	225	1
220	222	1
6	59	2
207	207	1
128	129	1
226	226	1
144	145	1
71	73	1
133	134	2
75	75	2
25	26	1
84	86	2
154	154	2
2	3	1
52	52	2
167	167	1
51	52	2
61	78	1
151	170	2
107	114	1
189	190	1
9	68	1
224	226	1
184	186	1
73	85	1
39	40	2
71	74	1
143	143	1
193	193	1
57	83	1
8	38	2
68	68	1
8	21	1
108	108	1
233	234	1
211	212	3
3	31	1
135	135	1
30	37	1
130	189	1
222	228	1
53	66	1
205	205	1
86	86	1
167	168	1
167	199	1
65	72	1
88	88	1
33	63	1
32	32	1
42	128	1
154	156	1
165	196	1
224	224	1
178	191	1
24	40	1
19	23	1
41	41	1
166	167	1
38	58	1
12	18	1
229	231	1
7	34	1
227	228	1
11	50	1
57	60	1
225	228	1
10	61	1
