89	90	4
51	56	4
45	45	11
68	69	9
87	87	2
56	57	4
65	94	2
72	72	13
56	56	14
69	69	12
38	38	8
40	41	2
73	78	3
95	95	13
90	91	2
21	36	2
67	67	8
47	63	5
30	30	1
24	25	16
60	61	3
70	73	5
61	61	19
76	76	16
72	101	1
106	106	3
24	24	15
60	60	6
97	97	4
94	94	19
23	24	3
51	58	2
30	45	4
97	107	1
85	86	2
29	30	3
75	75	13
76	104	2
95	96	1
106	107	4
57	59	1
103	103	21
63	63	24
32	32	18
92	92	7
43	44	2
49	49	11
57	58	5
50	50	14
52	52	5
66	66	18
54	54	16
98	106	1
56	59	3
50	51	4
52	54	2
29	29	8
97	99	2
34	34	11
68	68	14
23	23	8
71	71	9
24	97	2
20	21	3
26	26	2
68	93	5
90	90	5
37	38	2
76	78	7
56	65	1
37	37	6
76	77	4
47	47	8
102	102	20
86	88	1
80	85	7
25	26	7
54	68	2
85	85	10
48	50	1
76	105	2
70	71	3
74	74	9
36	36	14
102	103	3
55	55	8
63	64	5
41	41	4
40	40	3
39	39	6
84	85	3
101	101	7
74	75	4
67	68	2
105	105	8
32	33	3
81	81	2
23	25	3
96	96	22
80	80	13
55	64	2
62	62	15
73	74	4
46	47	11
21	22	1
58	59	6
67	84	1
93	93	9
51	51	6
61	62	4
27	28	3
22	22	12
72	73	4
99	99	19
24	26	5
52	61	7
21	39	2
42	45	3
70	70	11
35	35	10
78	78	15
64	64	19
82	88	3
91	91	9
85	88	1
33	33	8
96	98	3
65	78	2
82	83	5
23	50	3
42	43	4
83	85	1
47	48	2
65	66	1
31	31	16
20	20	11
32	34	2
53	53	16
94	95	1
58	58	9
21	40	2
86	87	1
59	59	7
77	77	8
43	45	3
22	29	7
23	51	2
47	50	2
48	49	8
71	72	9
53	93	2
21	21	6
66	67	6
71	73	2
65	65	8
52	55	4
73	73	9
90	95	4
94	96	2
47	80	1
91	92	5
84	84	5
27	27	3
33	34	4
101	102	1
48	48	4
87	88	1
78	79	5
67	83	5
84	88	6
98	98	9
52	53	6
43	43	2
75	104	1
31	45	2
62	63	7
66	85	2
98	99	4
92	93	1
89	89	3
30	31	4
69	70	1
83	84	3
22	23	3
74	77	1
57	57	7
39	40	4
99	100	1
49	50	2
94	100	3
44	49	1
28	32	1
38	39	2
39	79	2
42	42	2
30	32	2
86	86	6
70	75	3
27	41	5
53	68	1
59	60	3
58	61	2
63	81	1
93	94	2
104	104	5
93	97	1
46	46	3
73	76	2
79	79	3
22	50	1
82	82	3
93	99	1
89	95	1
40	50	1
62	90	1
51	53	2
50	71	2
22	31	3
77	78	1
89	92	1
56	77	1
100	100	4
89	93	1
105	106	2
25	25	2
65	96	1
51	52	2
91	99	1
22	24	2
104	105	4
45	49	1
56	62	1
49	58	2
84	87	2
80	84	1
34	35	1
103	104	1
73	102	1
60	90	2
68	90	1
74	103	1
56	61	2
35	36	2
22	30	2
25	45	2
100	104	2
31	32	1
56	58	2
54	66	1
22	28	1
88	88	1
67	93	2
44	44	1
36	37	1
66	79	1
65	67	2
54	55	1
44	45	1
31	34	1
28	28	1
22	39	1
