145	145	14
113	124	1
23	30	3
11	11	21
96	96	7
171	171	8
158	158	20
35	36	6
133	133	14
35	35	8
100	100	14
43	43	8
18	19	10
37	37	12
135	151	2
44	44	17
115	115	2
161	163	8
1	1	9
174	175	9
127	127	8
10	10	11
116	134	2
151	151	12
144	146	3
28	28	16
32	33	2
85	86	3
177	178	3
104	104	10
76	76	7
54	54	9
180	182	7
193	197	6
174	174	13
122	122	4
39	40	2
147	148	2
76	77	11
184	184	9
42	42	5
90	90	3
125	125	2
144	144	16
170	170	9
22	25	6
159	159	9
82	82	3
176	176	13
34	37	1
13	14	3
49	49	8
111	111	14
71	71	2
188	188	18
24	24	6
172	174	3
187	194	1
2	3	8
39	42	4
154	156	3
190	190	10
180	181	2
53	53	11
26	26	12
187	187	7
142	142	10
156	166	2
180	180	11
5	5	6
160	161	5
104	106	5
170	171	7
97	98	3
143	143	12
36	36	6
20	20	7
123	124	11
18	18	3
19	19	9
57	57	5
8	8	2
158	165	1
185	185	8
47	47	16
163	164	9
117	117	6
106	106	6
108	108	17
9	10	3
156	156	13
51	51	16
154	166	6
109	109	9
17	18	11
3	4	15
101	101	9
38	140	3
146	146	12
161	161	15
182	183	8
29	29	13
67	68	2
165	174	3
148	148	4
28	29	4
172	172	8
109	110	10
167	183	1
23	24	1
189	189	6
135	137	3
16	17	4
99	99	11
182	182	16
24	26	5
97	97	6
8	19	1
189	190	4
183	183	9
134	146	4
113	118	3
128	128	12
119	119	11
118	119	3
179	179	4
39	39	14
62	65	1
78	89	2
39	41	1
187	188	6
34	35	2
178	182	2
149	175	3
78	78	7
0	0	12
192	192	5
186	186	7
33	33	12
62	62	3
4	4	13
131	134	2
2	2	6
181	181	7
46	46	5
193	194	10
78	79	4
8	9	6
42	156	2
111	112	3
194	194	8
2	6	3
149	149	5
102	102	11
120	120	7
160	185	1
86	89	2
27	28	4
123	123	9
14	15	4
3	168	1
9	9	8
196	196	12
147	147	5
38	39	5
105	121	2
165	179	5
132	133	5
154	155	1
116	116	10
84	84	7
142	184	5
178	184	2
70	70	5
18	44	1
67	67	2
45	46	6
33	43	2
165	165	12
172	173	6
81	81	2
160	160	12
123	126	2
137	138	1
157	157	8
57	87	1
110	110	9
184	188	6
25	25	6
137	139	1
83	84	4
80	81	1
40	42	1
191	191	12
34	34	7
121	121	11
99	102	2
74	77	3
113	115	2
157	158	2
178	183	2
31	31	10
127	128	4
89	90	3
22	23	2
30	30	3
141	141	10
69	69	7
10	14	2
181	182	8
156	158	2
159	183	2
180	183	1
79	79	11
84	85	2
45	45	2
135	135	4
155	156	9
24	25	9
86	86	7
27	27	10
44	45	3
150	193	1
147	165	3
150	150	8
148	164	2
167	167	8
144	145	2
74	74	7
163	163	9
107	107	5
81	84	5
126	126	6
177	177	7
30	31	10
5	7	1
144	153	1
14	14	6
13	13	13
136	136	8
159	161	2
51	52	3
132	146	2
73	77	2
139	139	10
53	56	3
190	191	5
169	187	3
153	154	7
191	192	9
197	197	8
138	139	8
81	85	3
29	34	3
81	83	1
106	107	3
77	77	4
1	21	2
100	101	4
194	195	4
7	7	5
9	22	1
0	6	2
195	195	6
149	153	3
128	171	1
160	169	4
179	180	2
28	31	3
41	41	16
103	103	4
60	60	3
88	89	1
188	189	1
105	106	4
5	23	1
168	168	10
176	182	6
130	131	3
132	132	5
121	122	3
66	88	1
68	87	4
0	2	3
151	167	4
102	104	4
10	11	3
127	132	1
27	31	1
73	73	4
95	96	4
110	111	1
152	163	2
162	163	3
38	42	3
128	141	3
107	108	4
124	125	5
178	178	7
173	173	9
155	155	4
158	160	3
0	1	2
154	158	4
153	153	7
48	129	4
108	109	2
93	95	1
59	60	4
7	12	1
50	50	3
40	40	7
7	167	2
12	13	3
26	28	1
6	7	6
74	88	2
138	138	6
120	124	2
68	88	1
104	105	9
8	21	4
59	61	2
185	186	4
142	173	4
176	183	3
159	160	12
64	64	5
163	171	1
17	17	7
12	15	2
58	58	5
128	129	4
142	143	2
107	111	1
51	53	5
34	59	1
114	143	3
48	136	2
130	130	3
88	88	5
82	84	3
58	60	1
49	50	3
139	140	2
7	157	1
192	193	5
115	144	2
52	52	7
115	117	2
158	159	5
135	138	1
25	26	3
21	21	14
114	114	3
129	129	9
152	152	9
175	175	3
178	179	1
116	118	2
89	89	3
141	142	2
83	83	2
154	154	2
15	15	4
17	32	2
118	120	1
72	84	2
169	169	8
186	187	3
37	157	2
105	113	3
147	152	3
43	44	3
162	162	4
140	141	3
31	43	1
173	177	1
81	82	3
165	166	3
45	51	2
66	68	2
156	185	2
16	32	1
149	154	3
48	48	8
15	16	2
136	137	5
23	23	9
113	113	3
119	138	1
94	96	2
85	89	1
61	61	2
4	8	5
13	32	2
166	167	6
176	177	2
175	176	2
164	164	3
39	43	3
177	180	2
35	58	1
38	38	2
54	56	1
121	135	3
184	185	2
11	13	2
3	3	5
50	54	3
72	72	4
12	12	1
48	149	1
58	59	2
140	140	3
61	77	3
162	185	3
1	8	6
131	131	6
8	17	2
124	124	6
9	23	2
22	24	1
151	173	1
172	177	2
139	155	1
109	111	4
76	88	3
93	94	1
196	197	5
114	115	2
66	66	1
105	105	3
104	114	3
163	185	1
7	8	1
27	34	3
30	43	3
107	112	1
112	113	7
5	6	3
69	73	1
0	3	1
4	11	1
149	151	1
80	118	4
73	87	2
173	185	1
103	117	3
79	81	1
179	183	3
105	114	1
11	14	3
58	68	1
103	104	2
45	47	2
49	149	1
130	137	2
25	34	1
163	170	2
139	141	3
85	85	8
169	170	5
152	153	3
125	126	2
137	146	1
108	111	3
22	22	1
164	165	2
153	159	1
135	136	4
111	118	1
166	166	3
55	56	3
16	16	4
32	32	3
150	151	2
16	45	1
141	143	1
121	140	3
99	100	3
46	127	1
6	6	2
155	173	1
68	68	1
118	118	1
42	43	1
40	41	3
31	32	2
56	56	2
126	127	4
20	22	1
116	117	3
62	77	1
54	55	2
163	166	1
56	57	2
3	7	1
136	148	3
42	50	1
6	8	1
77	78	2
130	134	3
4	5	3
55	55	2
181	183	1
53	55	1
161	171	1
37	38	2
129	166	1
146	147	7
122	127	2
10	150	1
167	168	2
120	136	3
63	63	1
43	51	2
80	88	1
191	193	2
111	125	1
148	152	2
114	121	2
112	112	1
157	182	1
150	160	1
68	75	2
189	192	1
160	176	1
159	164	1
136	141	1
11	153	1
65	68	1
169	179	1
134	134	2
142	153	2
119	139	1
193	193	3
79	101	2
64	68	2
120	121	1
25	28	1
101	106	2
186	193	1
76	89	1
2	4	1
5	8	1
123	133	1
101	104	2
159	165	1
0	24	1
138	140	1
103	105	1
164	167	2
146	148	3
156	157	2
46	47	1
112	117	1
148	149	2
98	99	1
65	66	3
19	20	2
154	165	1
122	123	1
151	152	2
77	89	2
175	177	1
17	19	1
144	147	2
195	196	4
100	104	2
158	167	1
140	144	1
137	137	1
149	150	1
93	96	1
79	80	1
164	166	1
148	174	1
95	95	1
189	191	1
177	183	2
95	97	1
74	101	1
170	193	1
179	190	1
183	194	1
48	49	1
87	88	2
145	146	2
1	4	1
183	184	1
94	100	1
134	140	2
176	185	1
73	74	1
147	164	1
62	68	1
66	67	1
148	150	1
136	147	1
52	54	1
30	124	1
26	27	1
80	117	2
1	2	1
119	120	1
98	98	1
37	155	2
154	172	1
178	180	1
190	192	1
170	188	1
164	168	1
83	85	1
128	167	1
14	53	1
99	103	1
26	32	1
168	169	1
