59	79	1
78	79	6
116	132	6
126	126	11
90	92	3
112	113	6
69	69	3
29	29	5
98	99	3
83	83	13
99	99	6
90	90	3
63	64	2
65	69	3
11	11	9
67	67	6
102	102	3
123	123	8
117	118	6
125	125	5
6	6	4
29	48	3
4	4	5
44	45	2
22	33	4
15	16	7
96	99	1
63	63	1
17	17	3
40	58	7
88	89	5
47	119	2
100	100	5
85	85	10
28	28	2
74	74	3
77	77	5
21	49	3
86	86	6
30	59	4
16	28	2
91	91	10
124	125	2
125	128	4
103	104	9
120	120	4
27	27	5
66	85	2
84	84	5
19	19	9
68	68	2
6	13	1
112	112	2
28	80	2
59	101	1
76	110	2
13	13	4
31	134	1
21	21	4
6	7	4
78	84	3
23	25	4
114	114	5
16	16	5
88	88	12
47	47	7
78	78	12
14	47	1
119	119	4
121	121	5
67	68	2
60	113	6
105	114	8
27	92	2
23	23	5
72	73	3
116	116	4
75	75	5
111	111	5
59	80	3
107	107	2
5	5	7
129	129	6
38	39	4
33	33	6
44	74	2
133	133	12
81	81	5
12	12	13
15	15	8
34	34	5
64	64	7
32	73	2
18	18	2
22	26	3
8	8	4
93	98	1
92	92	3
20	20	6
29	30	5
40	41	1
15	36	2
8	11	5
31	130	3
59	78	3
41	41	2
70	70	9
23	24	4
32	32	3
21	22	3
96	100	2
130	130	4
127	127	4
32	68	3
45	45	5
101	101	13
66	66	5
91	92	4
109	131	4
109	112	5
11	15	2
126	128	3
94	101	4
79	80	3
26	92	4
93	93	8
118	118	3
28	79	2
65	65	7
7	27	2
58	59	1
35	35	5
124	127	2
100	121	6
46	47	2
73	73	15
27	79	2
122	122	1
96	113	3
75	76	1
108	108	1
38	82	2
3	3	2
60	63	3
89	89	1
35	119	1
46	63	1
18	29	1
43	44	2
37	37	3
96	97	1
61	72	2
43	56	2
4	29	3
13	39	2
20	25	1
57	57	3
121	122	1
94	94	4
134	134	4
40	42	3
31	32	4
2	2	1
82	83	3
25	32	4
33	43	2
4	8	1
10	10	6
107	108	4
11	37	1
31	82	1
64	65	1
60	60	1
79	79	6
7	7	4
72	72	4
7	16	1
11	17	3
44	44	3
34	35	2
42	42	2
20	84	2
80	80	7
31	31	5
104	104	5
103	121	1
19	90	1
7	89	3
36	36	5
94	95	2
122	126	3
33	84	2
101	121	2
25	33	3
82	82	5
44	75	1
74	94	4
43	117	1
43	48	3
128	128	2
35	36	1
61	61	4
95	95	3
4	21	6
107	109	1
78	92	2
50	50	1
62	74	2
58	72	1
38	38	2
97	97	4
115	134	3
26	27	2
59	72	1
13	26	3
71	78	2
132	133	3
114	115	5
89	90	2
33	34	1
17	18	2
55	55	1
35	84	2
43	74	1
2	28	2
9	36	1
24	30	2
115	130	1
115	118	1
24	24	1
104	105	3
96	96	1
2	29	2
8	46	3
58	58	5
56	57	4
71	71	2
9	56	1
113	113	3
32	69	1
32	79	1
46	70	1
26	49	1
45	46	1
6	91	1
83	84	1
33	36	3
57	84	3
94	96	1
124	124	2
14	23	1
116	134	1
131	131	1
57	63	1
62	62	4
80	85	1
29	45	1
57	87	1
36	57	1
84	85	3
109	109	1
37	85	1
57	59	1
60	86	1
133	134	1
126	127	1
69	70	1
18	44	1
14	74	1
73	74	1
78	81	3
68	93	1
8	9	2
0	11	2
3	12	1
86	88	1
47	94	1
64	66	1
34	69	1
59	73	1
36	43	1
117	117	1
0	0	1
