30	30	61
61	61	49
52	53	16
39	39	45
10	12	3
42	42	73
31	32	10
31	59	3
8	8	28
22	22	12
7	8	8
56	56	45
34	34	53
17	17	27
18	18	32
33	60	1
49	49	40
36	36	76
30	31	23
46	57	4
4	22	4
6	11	5
4	4	38
62	62	51
53	53	45
58	58	46
42	43	26
44	46	10
32	33	21
44	44	85
14	14	25
55	55	62
31	31	68
38	41	12
7	7	43
32	32	73
31	48	3
1	1	32
4	5	23
35	35	41
6	6	32
51	52	17
57	57	51
39	40	26
2	3	18
43	55	4
35	43	2
12	13	7
48	48	60
35	36	17
25	25	28
47	48	20
49	50	27
32	58	5
46	46	30
40	44	2
38	39	17
58	60	14
52	52	48
8	9	8
54	54	45
40	41	20
44	45	23
36	40	8
32	36	8
11	11	22
57	59	4
5	6	6
45	60	12
16	16	50
5	5	18
30	47	5
43	43	73
19	30	1
17	18	9
44	49	1
30	43	3
2	2	46
42	44	9
37	37	57
51	54	24
56	57	14
6	17	2
45	45	51
52	55	11
48	49	17
50	50	56
47	47	73
21	22	11
16	17	15
40	40	24
59	59	37
19	22	8
37	40	11
11	12	19
45	53	1
12	16	5
53	54	32
20	20	33
51	51	47
21	21	36
45	52	2
23	23	27
32	49	1
13	13	40
10	11	8
20	21	10
24	24	18
41	53	6
9	12	6
55	56	17
60	60	46
38	38	40
57	58	12
31	37	7
10	10	46
36	37	14
15	15	47
36	43	3
25	58	1
15	16	20
46	51	5
38	40	17
30	61	4
9	10	11
0	1	15
58	59	28
41	41	50
46	50	3
7	26	2
57	60	3
32	52	1
29	54	3
18	49	4
50	51	17
2	16	7
25	26	7
32	40	4
39	41	4
40	56	2
25	57	2
16	20	9
50	54	5
22	23	18
37	38	15
7	11	2
32	44	1
4	50	3
56	58	8
48	56	2
34	36	3
42	58	1
8	30	9
4	10	2
13	15	3
35	44	8
29	29	5
14	24	1
33	33	60
44	52	2
32	34	2
23	30	7
1	2	12
6	7	11
50	62	9
12	12	20
19	19	21
56	62	3
41	51	1
32	60	1
32	48	3
0	24	2
30	55	3
3	13	2
37	42	6
39	51	4
3	3	26
17	25	3
37	44	4
61	62	15
35	40	4
18	57	2
44	61	3
45	50	3
6	10	3
0	0	22
34	49	6
0	58	2
42	49	1
35	62	6
31	40	3
39	61	1
0	20	1
24	25	6
41	45	3
9	49	3
0	3	3
47	57	3
29	51	4
31	45	8
45	46	28
13	16	3
30	37	8
5	11	3
14	15	18
44	59	2
36	61	3
46	48	1
46	47	14
41	59	6
52	57	4
8	11	3
54	55	8
54	56	9
35	46	1
22	43	3
4	14	8
9	11	6
60	61	7
34	35	18
39	42	5
8	59	1
47	60	5
23	43	2
18	19	5
30	48	4
18	24	2
4	6	4
45	59	2
43	44	4
3	23	4
50	52	11
39	60	3
44	47	3
41	58	2
46	60	3
16	18	2
2	5	2
33	61	1
56	60	9
9	9	26
12	20	6
8	13	2
16	19	8
0	4	3
38	60	3
1	45	1
33	34	19
31	34	4
36	55	4
3	4	4
44	60	3
31	41	3
49	51	2
47	61	2
14	19	5
41	52	3
37	61	1
7	9	5
23	24	7
23	60	2
41	56	7
40	53	2
44	55	3
35	42	1
31	56	1
38	59	1
30	39	4
7	19	1
37	39	10
17	24	8
51	53	4
18	39	2
39	58	1
43	62	2
45	47	13
50	58	2
37	50	3
29	40	6
44	58	5
24	60	1
20	23	4
49	52	3
3	35	3
56	59	1
43	56	3
11	16	2
42	52	2
55	60	5
5	24	4
33	43	3
14	16	7
2	4	3
42	48	1
12	52	3
31	60	3
34	62	1
48	50	1
30	34	2
22	24	1
8	39	1
8	22	3
49	62	2
7	10	3
37	43	2
0	10	1
5	8	2
0	43	1
6	38	2
19	20	2
5	58	1
54	60	2
19	21	3
44	57	2
45	55	3
31	44	2
4	17	1
6	52	2
18	23	2
8	53	2
35	51	3
1	3	2
25	61	2
31	39	3
30	42	4
23	53	3
49	61	1
40	55	1
30	38	2
46	56	2
43	61	4
44	51	3
30	32	9
36	53	1
34	50	1
5	62	2
4	9	1
48	61	4
47	49	2
36	45	1
17	19	4
43	49	1
9	51	5
21	23	3
30	35	3
11	13	4
35	45	4
40	42	3
4	61	2
15	18	4
5	12	1
12	14	1
52	62	2
50	55	1
57	61	4
4	8	4
51	55	3
43	60	1
42	57	2
1	19	2
49	53	1
32	56	1
35	48	2
59	61	1
49	58	3
31	50	3
42	46	1
11	20	1
59	60	3
21	26	1
22	61	1
54	58	2
45	61	3
20	22	2
46	52	3
8	25	2
30	46	1
5	20	2
14	21	1
15	41	2
8	49	3
38	56	1
10	21	1
5	9	1
48	54	3
1	5	1
9	19	1
47	55	2
39	45	1
30	60	2
37	59	2
32	35	4
7	21	1
54	57	8
10	13	1
16	37	4
13	21	1
17	61	1
51	59	2
38	55	1
47	56	3
34	60	1
3	32	1
5	44	1
5	21	2
41	42	2
29	56	3
29	37	1
0	5	3
53	55	1
30	56	3
38	54	1
30	51	4
31	33	1
39	47	2
50	53	2
21	24	4
22	58	1
39	55	1
13	14	2
45	49	1
37	46	2
53	56	2
30	53	1
8	20	1
15	17	1
34	44	2
2	18	1
33	47	3
8	26	1
26	38	2
38	42	1
39	54	2
50	57	2
13	46	1
42	55	1
32	62	2
22	55	1
15	23	1
22	31	1
13	54	3
45	48	2
38	44	1
31	61	1
0	15	1
41	60	1
36	46	1
31	47	1
42	47	2
41	44	1
40	51	1
36	42	1
6	8	1
49	57	1
47	62	1
6	25	1
44	56	1
53	59	2
13	43	1
55	57	1
42	60	1
23	45	1
34	45	1
5	49	1
11	21	2
4	21	1
10	55	2
34	37	1
14	17	1
5	33	1
24	31	1
0	61	2
26	26	1
33	44	1
45	58	1
9	60	1
32	61	1
33	35	1
19	25	1
38	51	1
36	60	1
35	39	1
