23	28	7
85	85	13
58	63	2
27	27	6
30	31	4
75	75	9
84	84	9
72	73	2
19	19	5
10	10	10
24	24	10
62	65	2
63	64	8
13	25	6
7	27	1
9	22	2
61	61	7
0	0	3
26	26	13
50	79	3
2	2	18
76	79	1
67	67	4
87	87	8
49	49	2
27	50	5
76	77	4
6	6	11
5	6	6
65	66	7
73	73	8
54	55	4
51	51	5
11	11	14
77	77	13
50	50	3
60	61	8
56	66	2
71	71	10
31	31	8
9	10	2
12	13	5
9	17	3
53	68	1
81	81	19
6	10	7
4	4	12
66	77	2
71	82	5
13	13	13
60	77	2
65	76	3
12	12	8
23	23	8
1	1	11
66	66	6
58	58	11
57	57	3
60	60	9
54	54	11
85	87	3
21	22	5
9	9	8
56	68	2
65	65	8
67	78	3
79	80	4
76	76	5
11	12	4
7	25	1
16	87	7
77	78	8
70	70	3
53	53	22
7	8	2
79	79	5
57	58	1
63	75	2
72	72	12
14	16	5
69	69	11
48	48	9
49	77	4
13	17	2
88	88	3
74	74	9
49	79	4
67	68	5
52	59	6
17	22	5
50	56	2
83	83	10
25	26	1
19	20	5
8	21	4
50	80	3
34	34	3
3	3	8
27	48	6
89	89	4
59	63	5
18	19	3
1	67	4
65	80	6
60	62	2
78	79	6
53	54	2
59	62	2
59	59	6
6	25	2
24	25	3
16	16	2
26	51	1
62	63	7
29	30	3
8	9	6
30	30	10
52	52	10
6	24	2
58	60	6
20	20	3
59	60	6
49	62	2
18	24	2
48	50	2
50	71	5
86	86	6
6	7	5
2	3	3
64	79	1
13	34	1
68	68	6
49	55	1
60	78	3
8	10	1
11	27	1
85	89	6
47	47	5
28	28	4
14	14	6
47	48	5
13	52	3
48	51	1
55	55	9
5	13	3
82	82	10
7	21	2
86	87	5
78	78	10
8	26	2
68	69	4
21	21	6
62	62	2
63	63	4
80	80	6
11	15	2
62	79	2
15	15	2
55	80	5
26	32	1
55	79	2
33	33	2
5	5	8
57	68	2
2	29	1
57	69	1
22	22	2
66	78	2
7	20	1
24	27	1
0	3	1
51	59	1
50	51	2
48	58	2
52	58	3
69	75	1
66	90	2
48	66	4
79	82	1
14	22	1
22	23	1
64	77	3
52	55	3
73	76	3
7	7	1
7	14	1
13	23	1
4	5	3
85	86	3
70	79	4
84	85	1
6	34	2
29	29	2
17	26	1
17	53	1
8	8	4
6	8	1
64	64	6
59	65	1
57	67	1
22	25	2
17	19	4
0	1	3
59	61	1
55	63	1
7	26	1
70	81	2
59	78	1
5	66	1
50	75	1
59	77	2
11	61	3
48	49	2
9	65	2
22	24	1
23	58	1
56	56	4
76	83	2
60	76	3
66	85	1
49	81	2
59	67	1
62	80	1
17	17	3
68	70	3
62	64	1
25	33	1
87	89	1
25	27	1
71	72	1
53	80	1
48	53	4
56	57	2
47	72	1
89	90	1
64	65	2
83	84	2
6	20	1
56	61	1
17	77	1
77	90	1
8	22	1
55	59	1
55	73	1
49	64	1
25	25	1
8	17	1
46	47	1
52	60	1
63	73	1
58	70	1
87	90	1
50	53	1
8	11	1
