185	187	2
221	236	2
41	45	2
102	102	5
100	101	4
183	183	10
65	65	7
58	163	2
180	180	16
65	68	3
184	185	10
234	234	6
4	36	3
25	25	12
173	173	17
31	56	2
52	147	1
99	99	4
156	157	11
130	155	1
25	48	3
207	216	2
61	61	4
14	18	4
200	237	9
193	194	3
174	174	7
60	61	3
154	162	2
7	34	8
169	188	4
3	40	3
1	1	18
24	64	1
216	216	8
13	31	4
19	19	13
45	47	3
76	76	6
22	49	1
170	170	20
137	137	6
81	81	4
7	16	3
5	49	5
136	136	11
79	79	4
231	231	13
242	242	12
26	76	1
18	152	1
2	3	2
154	154	4
186	186	7
107	107	6
117	117	3
12	16	3
233	233	5
36	72	3
47	47	4
192	195	4
230	230	4
236	239	3
29	29	25
59	59	12
88	88	15
111	111	5
74	74	15
155	155	10
186	187	3
136	173	1
22	59	4
69	72	7
153	153	5
39	64	3
105	180	3
42	45	1
14	81	3
51	51	3
15	16	4
0	0	13
175	176	1
225	225	11
55	55	13
30	30	24
48	48	15
103	104	7
23	23	6
49	49	6
27	27	10
16	76	2
6	14	3
141	141	9
75	241	2
212	212	13
71	72	1
26	27	5
95	95	3
232	232	8
28	57	2
63	63	4
103	137	4
14	14	11
59	60	7
238	238	14
120	120	5
19	148	1
104	104	2
31	57	4
181	203	2
77	79	6
191	191	5
30	58	3
79	83	4
57	59	3
192	192	4
36	36	21
44	45	7
177	178	3
85	86	4
197	198	3
50	57	2
44	76	2
185	186	6
70	70	14
67	67	18
136	151	2
219	219	9
9	9	21
82	82	2
10	219	2
189	189	10
124	124	2
180	183	4
203	203	5
46	46	14
157	157	4
151	162	7
21	21	8
43	64	3
123	124	5
24	24	12
149	203	3
69	84	1
75	86	8
16	16	11
224	238	2
22	31	3
0	34	2
33	34	7
107	118	1
143	143	4
13	16	7
4	7	8
10	11	4
14	16	1
127	155	2
60	60	3
190	191	1
31	49	2
158	158	9
75	79	3
79	82	3
209	209	4
81	147	5
108	187	1
102	194	5
35	35	19
16	49	2
210	228	2
4	18	4
146	146	4
115	119	2
24	41	2
39	43	4
68	69	5
81	133	1
13	23	4
37	38	2
20	61	4
104	179	1
26	54	4
120	171	1
205	205	4
62	62	5
226	227	9
105	177	5
122	140	4
165	165	1
178	191	1
103	166	3
3	3	15
194	198	3
59	75	4
190	190	8
224	224	3
6	7	5
84	148	1
58	58	6
144	144	6
60	63	3
188	188	6
7	8	3
227	227	17
66	67	1
197	197	23
175	187	4
141	203	3
139	139	6
36	47	5
83	120	3
22	23	1
235	235	13
0	66	3
177	177	4
69	69	7
150	150	5
34	35	5
135	172	7
28	28	14
115	137	3
67	68	7
85	85	13
33	84	2
11	11	12
52	58	2
203	217	5
104	197	1
199	200	6
181	181	6
11	221	1
214	217	2
162	162	5
9	10	8
104	139	4
212	214	3
218	218	6
54	241	1
20	84	1
21	83	5
178	180	3
91	91	1
36	50	3
234	235	2
129	129	7
161	161	11
16	83	2
18	18	11
84	84	10
28	29	5
22	22	3
38	38	9
132	203	3
133	134	5
210	210	5
150	165	3
137	239	5
15	17	1
97	98	2
23	174	4
122	143	1
86	86	16
72	72	9
8	8	6
209	229	10
118	124	7
144	236	2
96	202	3
143	155	1
104	137	2
45	46	6
114	115	7
96	96	4
27	28	4
123	125	3
156	156	4
194	194	6
207	208	11
167	168	3
85	112	3
169	170	2
129	166	2
196	196	9
209	225	6
191	213	2
3	49	3
109	109	6
78	78	5
23	49	1
16	20	1
7	7	4
39	39	15
208	208	5
11	220	3
99	101	3
218	219	2
31	50	1
81	83	2
33	35	2
57	57	6
101	101	9
62	215	4
179	187	2
111	190	1
125	125	7
79	80	3
13	13	8
6	31	6
195	205	2
48	74	1
66	145	2
108	121	1
34	34	7
114	119	3
1	2	8
104	123	2
198	216	3
56	56	2
164	164	8
135	141	4
119	123	6
68	68	14
121	170	6
43	43	6
96	228	1
151	152	1
178	178	2
81	84	1
76	101	2
110	110	2
52	55	1
66	66	10
214	215	5
19	83	3
148	148	4
31	31	7
115	168	1
116	116	4
83	84	8
140	140	3
217	239	5
56	148	1
159	159	6
17	23	1
37	37	15
2	2	8
115	190	4
53	55	1
40	41	3
97	97	4
107	113	4
211	211	11
32	79	4
182	182	6
9	72	5
10	74	1
103	107	2
71	83	3
207	207	12
148	150	1
40	44	2
49	81	3
5	35	3
138	138	4
104	118	2
37	41	2
4	4	3
115	178	1
104	116	2
150	157	2
61	62	1
182	183	2
123	123	4
106	106	5
168	229	2
118	162	4
202	202	5
131	162	1
75	75	8
10	10	10
103	121	2
200	200	2
134	135	10
209	213	2
4	8	2
80	125	3
18	38	5
54	55	3
133	133	13
54	69	1
239	240	3
168	168	2
194	204	1
50	84	7
65	79	1
222	226	1
32	33	6
199	199	4
54	234	3
223	223	3
158	161	1
188	189	4
50	52	2
162	163	3
71	71	1
70	71	2
100	102	1
56	196	1
63	64	4
158	163	3
237	240	4
160	162	6
35	36	5
56	72	2
116	124	3
22	57	2
114	114	3
21	148	2
75	77	5
30	33	2
175	175	4
156	159	1
77	88	1
206	207	4
220	220	4
9	52	6
103	103	8
149	149	8
19	22	2
79	123	3
6	8	2
108	108	8
180	181	2
171	171	2
207	215	1
22	60	2
3	12	2
221	237	4
216	226	2
38	39	2
98	98	7
184	184	7
14	22	1
21	80	3
179	192	7
236	237	7
129	132	4
4	34	1
20	20	10
237	237	5
106	120	7
145	146	1
150	151	2
62	63	3
122	122	5
28	111	1
163	163	2
201	201	5
112	113	2
115	115	4
16	162	7
7	36	1
42	42	7
227	228	1
3	15	7
169	169	5
165	188	3
174	175	4
81	82	3
46	47	3
145	145	5
152	153	3
226	226	12
20	32	2
58	166	2
116	168	2
36	40	2
30	73	2
80	80	3
25	58	3
126	126	2
181	205	4
16	17	2
45	45	5
151	151	8
76	79	3
21	52	2
198	198	3
166	167	2
6	79	4
77	83	4
10	37	1
29	74	4
193	196	1
120	121	2
238	239	2
58	242	1
84	144	2
199	236	4
54	54	5
35	62	1
13	18	9
81	125	1
76	86	1
74	126	1
60	79	1
49	148	1
193	193	1
21	22	2
12	12	3
6	13	4
19	20	1
36	38	1
172	172	2
127	127	6
176	177	4
123	159	3
209	221	6
83	83	1
201	224	1
154	155	3
20	216	1
154	168	1
205	206	3
0	206	3
39	65	2
53	53	6
135	159	1
70	146	2
211	212	6
26	28	1
170	171	4
126	130	1
147	152	1
236	238	1
212	231	1
120	122	5
193	228	1
40	40	5
52	54	5
127	139	3
132	132	1
103	204	2
206	206	3
128	128	4
3	21	2
8	33	3
150	153	6
127	168	1
75	83	3
118	118	3
164	165	1
69	70	5
18	153	1
71	121	3
200	225	1
66	68	2
15	48	1
135	135	2
53	145	1
159	161	3
188	194	2
12	77	1
78	125	1
172	173	4
159	169	2
52	52	4
118	126	1
50	50	1
184	191	2
7	30	2
7	59	1
98	102	5
73	73	6
107	188	2
99	100	6
199	205	2
127	158	2
236	236	3
17	17	3
2	15	2
135	163	1
24	59	3
202	223	2
68	75	1
50	147	2
27	219	1
157	158	1
210	212	3
116	118	1
96	97	1
213	216	3
5	22	4
58	148	1
14	49	1
157	203	2
27	191	2
107	187	1
136	137	1
66	69	4
58	159	2
185	185	1
144	146	1
110	239	1
33	33	4
80	91	1
25	160	1
79	116	2
38	73	2
41	50	1
14	80	3
17	36	1
206	216	1
119	124	2
77	135	6
141	142	2
42	44	1
1	3	1
139	140	2
203	239	1
3	4	4
21	147	1
3	171	3
116	117	1
190	197	3
55	56	2
20	37	2
160	160	1
106	115	1
189	191	1
143	153	1
112	115	1
4	149	2
160	171	1
61	63	3
204	204	4
146	147	1
49	50	2
49	78	1
20	207	2
113	119	1
5	21	4
4	5	3
57	166	2
199	216	2
202	238	2
223	224	2
11	16	2
42	78	1
107	108	1
18	20	1
119	119	6
198	199	3
98	177	2
159	163	1
138	164	2
52	53	1
63	82	1
19	147	4
96	206	2
70	137	1
56	59	1
30	50	1
107	184	2
229	230	1
229	229	3
7	33	3
124	159	1
171	172	1
198	217	3
31	75	2
105	105	2
153	154	1
220	237	1
26	26	1
89	89	2
188	203	1
69	154	1
240	240	1
32	39	1
106	108	2
7	17	1
152	167	1
42	64	1
134	134	2
55	57	2
221	221	2
95	97	1
64	64	3
15	73	3
66	72	2
210	211	1
15	15	4
77	77	1
222	223	1
56	193	1
228	228	3
82	83	2
0	73	2
20	55	1
22	40	2
44	44	4
103	194	2
221	230	1
20	21	1
25	235	1
74	75	2
156	179	1
123	166	1
50	53	1
13	14	2
7	71	1
13	79	3
231	235	1
45	63	1
235	240	2
192	193	1
68	82	2
0	1	3
6	73	2
13	17	1
19	42	1
117	124	2
176	176	2
214	214	1
60	75	3
17	47	1
17	19	1
125	165	1
211	230	1
239	239	1
136	141	2
45	57	1
155	169	1
101	143	1
79	120	1
222	222	1
237	238	2
177	191	1
49	82	1
113	114	3
82	84	2
217	217	1
121	122	1
225	226	2
30	241	1
98	173	1
27	76	2
100	100	2
5	5	1
234	240	3
141	155	1
78	80	2
115	127	1
17	18	3
64	215	1
121	123	2
112	191	1
66	73	1
20	52	1
160	161	1
14	21	1
179	179	1
112	112	1
105	171	1
135	171	2
15	77	1
152	152	1
65	81	2
215	215	1
147	147	1
30	77	1
220	236	1
10	218	1
65	85	1
156	158	1
30	75	1
77	81	1
56	65	1
203	204	1
23	41	1
17	48	1
24	151	1
11	23	2
29	241	1
14	77	1
18	45	1
159	160	1
107	122	1
84	135	1
212	230	1
167	183	1
65	70	1
213	226	1
228	229	1
18	49	1
129	135	1
175	180	1
20	193	1
120	153	1
2	12	1
158	165	1
135	136	1
50	56	1
128	149	1
70	218	2
222	227	1
108	112	1
