72	72	18
92	93	2
41	94	1
98	98	11
26	27	3
52	57	2
38	64	2
66	66	14
55	56	8
74	74	5
25	78	5
33	33	17
31	31	14
64	65	6
47	47	22
21	33	3
105	105	3
79	79	16
53	53	12
60	77	4
36	40	1
54	63	2
26	26	3
41	42	6
63	63	7
85	85	4
31	32	1
45	45	2
59	61	1
48	48	7
34	36	1
60	60	9
55	55	11
84	84	7
95	100	2
22	22	14
46	47	4
94	94	9
65	66	5
54	54	10
76	76	11
27	40	1
32	32	5
76	91	1
53	55	6
101	101	9
21	21	7
65	65	3
71	73	3
82	87	4
37	39	3
72	73	9
83	83	8
103	104	3
75	75	2
81	81	1
23	23	13
36	36	14
69	69	12
29	85	2
29	29	6
47	51	1
30	30	13
40	40	3
66	67	9
56	58	2
99	100	5
33	34	8
102	102	8
67	67	3
58	58	11
106	107	1
27	27	5
89	107	4
86	87	8
23	63	2
25	29	7
73	73	8
99	106	1
64	64	11
71	71	4
84	85	2
70	71	3
57	58	5
41	41	10
51	51	16
96	96	14
58	59	10
68	68	6
70	70	9
84	101	3
24	24	8
69	70	1
67	68	10
66	68	1
89	90	1
97	97	16
78	79	6
79	91	2
78	78	6
84	86	2
42	42	4
38	38	7
100	100	13
63	64	3
43	43	8
104	104	8
50	80	1
53	54	2
93	94	4
28	28	10
20	33	1
40	41	9
62	71	1
25	25	8
103	103	6
68	72	2
77	77	8
82	88	2
33	75	5
42	44	4
90	90	9
35	35	7
85	100	2
100	102	5
66	70	8
34	34	13
38	50	2
22	23	2
61	62	4
70	72	3
52	53	7
51	52	4
46	46	5
41	63	1
96	97	6
62	62	3
83	85	5
49	49	9
81	101	1
87	89	1
29	30	4
26	28	3
84	87	2
25	84	3
44	47	3
39	39	16
80	80	10
65	71	2
95	96	9
27	106	2
94	97	2
88	94	6
47	63	2
40	45	5
83	84	1
58	72	1
82	83	7
50	50	9
56	57	2
23	77	2
37	37	10
85	88	4
27	43	1
43	55	2
31	43	1
80	91	4
95	95	9
101	102	5
48	92	1
60	78	1
90	98	4
44	44	4
27	29	5
80	81	2
40	42	2
77	78	2
89	89	12
38	45	2
59	73	2
78	91	1
46	63	3
28	30	1
92	92	2
95	99	4
88	89	4
40	56	1
43	45	4
82	86	2
55	57	4
91	92	5
97	101	3
90	94	2
70	73	1
93	95	1
99	99	7
34	37	1
91	91	1
68	70	2
56	56	5
94	95	1
59	59	3
87	98	3
34	102	3
93	93	7
81	86	1
88	107	1
87	88	3
97	99	2
41	47	2
76	79	4
32	35	2
45	46	8
85	101	2
40	98	1
83	88	1
39	42	2
57	59	1
75	76	1
60	82	1
49	88	3
82	82	7
55	62	1
32	34	2
46	84	2
96	98	1
29	31	3
40	99	3
20	21	2
52	56	1
35	36	2
50	104	1
53	59	1
95	98	1
62	64	2
54	55	2
57	57	6
47	50	3
37	38	1
50	51	2
62	63	4
45	63	3
26	46	1
94	96	4
48	94	1
39	55	2
22	30	1
25	100	2
96	99	1
85	105	1
71	92	2
87	87	9
88	88	1
71	72	3
25	26	3
78	80	1
34	84	1
25	27	1
60	61	2
76	77	2
58	73	1
20	20	3
35	39	1
27	41	1
24	92	1
29	36	1
83	86	1
46	48	1
36	37	2
100	101	1
52	52	6
23	32	1
63	66	1
76	81	1
22	31	1
22	61	1
22	96	1
44	45	3
59	60	2
70	92	1
89	98	1
90	91	2
39	43	1
79	80	1
60	84	1
97	98	1
49	50	1
28	29	1
30	33	1
21	85	1
84	102	1
46	93	1
33	85	1
102	103	1
90	97	1
64	72	2
47	49	1
28	37	1
41	44	1
65	97	1
42	45	1
86	106	1
88	99	2
48	49	1
38	40	1
22	80	1
46	83	1
86	86	1
48	51	1
25	85	1
100	105	1
61	84	1
49	62	2
