123	123	19
32	32	14
5	24	4
174	175	4
158	159	15
117	119	3
87	87	1
5	5	11
192	192	8
175	176	1
4	4	15
8	41	4
158	158	8
49	49	13
93	94	5
77	86	5
169	169	6
43	136	2
193	193	16
194	194	18
152	152	1
171	171	12
160	160	19
45	45	10
180	180	8
35	36	5
139	140	5
10	37	1
162	163	7
58	58	14
172	173	6
123	126	2
108	108	5
139	139	9
80	83	3
88	88	7
150	150	15
1	1	6
171	172	2
69	69	5
155	156	3
12	13	10
182	182	26
145	145	5
175	177	3
76	77	1
13	13	6
141	141	10
155	155	7
24	24	5
124	124	6
105	105	3
142	189	3
138	138	15
34	34	4
112	115	3
188	188	21
7	8	3
163	163	16
46	46	5
186	186	16
121	121	4
129	129	20
184	188	4
130	130	18
97	101	5
58	59	3
66	71	2
165	166	5
166	181	2
140	150	1
138	181	1
173	175	6
178	178	12
94	94	3
75	75	7
127	127	11
68	68	6
16	23	1
17	17	8
39	41	2
105	106	4
0	0	7
78	78	3
40	40	5
191	191	10
120	120	4
1	3	3
166	171	1
140	141	4
197	197	9
28	29	7
178	179	6
44	137	1
52	52	10
120	131	2
128	129	2
70	70	5
114	114	7
18	18	7
44	44	8
186	187	1
45	46	2
107	107	3
185	186	11
185	185	10
86	86	3
26	27	6
187	188	6
8	18	4
155	169	3
112	112	5
33	33	11
132	132	6
55	55	16
149	149	19
12	12	9
196	196	19
166	166	14
123	124	8
193	194	5
168	168	10
42	42	9
100	106	3
194	196	2
131	132	15
50	51	9
102	105	4
119	119	9
166	182	1
19	19	2
170	170	8
181	181	6
19	33	2
125	125	5
87	88	3
23	23	6
100	105	3
47	49	1
3	3	6
141	142	1
30	30	13
184	184	6
35	35	6
151	151	19
143	143	8
135	135	7
159	159	4
153	155	4
113	113	13
165	172	3
124	125	6
74	78	2
141	151	1
57	57	18
191	192	7
195	196	7
17	45	1
100	100	7
16	167	4
10	10	12
134	143	3
61	81	1
5	6	3
130	132	1
9	10	6
37	37	8
138	148	1
156	159	4
47	47	14
46	47	4
163	164	9
31	32	1
90	90	2
189	190	6
15	15	7
103	103	7
156	156	9
166	168	9
152	162	1
69	70	4
67	69	3
53	53	8
142	142	8
116	116	2
17	20	1
73	74	4
80	80	3
148	148	9
117	118	6
115	115	3
157	157	13
110	130	2
159	160	3
106	107	7
115	116	3
76	76	3
190	190	9
25	36	10
136	137	1
84	84	3
63	63	2
14	14	5
18	20	2
18	37	4
55	56	9
39	56	2
96	96	6
164	164	4
111	111	7
160	186	4
109	110	2
101	101	5
102	102	6
38	38	6
162	164	1
153	161	2
136	138	2
177	177	4
28	28	4
133	133	10
44	168	2
115	125	5
132	133	4
140	140	13
188	189	7
1	172	2
119	132	1
118	119	2
81	83	1
118	118	3
62	62	4
122	122	12
136	136	12
8	16	3
102	110	5
66	66	2
98	99	6
72	72	5
166	167	5
107	108	2
165	165	5
6	6	6
22	23	1
171	189	3
104	104	3
136	148	1
171	186	1
29	29	6
154	155	4
61	61	4
54	85	3
176	176	3
142	143	1
155	188	1
27	29	1
153	153	2
177	178	5
24	27	5
65	73	4
174	177	2
38	39	1
9	9	11
162	162	3
192	194	4
25	25	4
134	135	3
174	174	2
144	144	7
39	39	7
137	138	2
23	36	1
4	24	2
104	154	2
47	50	2
179	179	13
64	66	3
20	20	3
36	151	2
146	146	4
167	167	5
38	40	3
132	134	1
190	192	3
34	35	5
182	183	4
20	23	1
43	44	2
187	195	1
115	122	3
9	31	2
21	22	2
154	154	7
32	46	3
16	18	3
160	182	3
44	167	2
124	129	2
42	44	1
153	164	1
153	154	2
49	50	5
36	36	3
38	56	6
161	168	6
170	171	7
7	7	3
160	163	2
179	180	9
148	149	4
145	146	3
71	71	4
157	159	1
17	18	2
187	187	7
161	161	7
0	1	4
156	157	2
30	31	2
99	100	5
78	94	1
1	2	2
137	137	4
196	197	1
104	105	4
61	75	5
126	126	9
157	158	1
44	45	7
5	8	3
41	41	3
168	170	2
16	37	2
39	40	5
113	114	2
183	183	8
172	172	7
100	107	2
163	166	3
70	71	1
135	136	2
173	177	3
97	97	4
180	181	2
168	175	1
3	179	5
12	141	3
29	152	1
51	51	5
52	53	2
16	16	5
39	44	1
27	27	5
27	30	1
41	42	6
81	82	2
167	168	2
142	188	1
36	37	3
134	134	6
56	86	3
128	128	5
23	32	2
169	170	2
149	151	2
2	2	2
148	160	2
68	69	3
157	162	1
48	48	5
168	169	2
34	36	10
143	144	3
74	74	2
82	82	3
72	104	1
126	127	1
170	172	1
31	31	4
173	173	1
84	87	1
152	153	2
75	76	2
163	177	1
64	70	1
21	21	1
148	150	2
3	4	1
140	177	1
100	128	1
2	3	3
17	22	1
155	181	1
9	13	1
67	68	2
191	197	3
169	174	3
63	86	1
67	89	2
23	34	2
147	148	1
50	50	3
135	137	3
171	184	2
195	195	3
121	123	1
161	165	1
8	8	2
43	43	3
189	189	3
147	160	1
11	12	2
183	186	1
9	16	1
3	26	4
53	54	3
10	15	1
10	11	4
6	8	1
14	170	1
88	90	1
181	182	1
133	142	1
9	44	2
160	161	2
26	26	3
130	133	1
109	109	4
140	179	2
82	85	1
108	110	4
64	72	1
56	56	6
79	79	2
67	67	1
19	36	1
147	147	2
175	175	3
149	150	2
162	191	3
13	16	1
43	45	1
87	133	3
147	152	1
42	43	1
0	189	1
58	80	1
184	185	4
19	22	3
95	124	1
8	17	1
67	88	1
25	26	3
4	25	1
121	122	2
117	117	2
147	153	1
180	185	2
171	179	1
121	141	1
106	110	1
13	14	2
122	190	2
54	54	1
194	195	1
160	165	1
11	11	3
115	118	2
37	41	1
179	193	1
144	146	1
184	186	1
47	52	1
182	189	2
169	182	1
77	77	1
5	28	1
180	182	2
123	128	1
192	197	1
41	44	1
26	28	2
183	184	2
18	41	1
170	189	1
168	172	1
59	60	1
37	56	1
8	9	1
81	85	1
26	153	1
110	110	1
139	145	1
54	55	1
160	164	1
97	135	1
186	189	1
3	25	1
73	73	1
4	29	1
120	130	2
58	62	1
54	56	1
167	171	1
147	185	1
0	153	1
146	148	1
19	20	1
61	62	1
