132	132	11
196	196	21
149	149	4
182	184	7
43	50	1
17	17	8
194	194	9
178	178	5
172	172	9
158	159	3
170	185	1
112	144	3
149	150	9
121	121	5
195	195	10
56	56	10
166	167	10
148	148	7
110	110	4
133	152	1
119	120	6
28	28	6
27	28	12
12	12	5
88	88	7
152	167	2
127	127	12
42	42	4
16	16	8
105	106	5
37	37	5
30	31	1
34	34	11
66	66	8
89	89	6
167	176	2
111	111	8
18	18	2
98	98	13
81	81	6
58	58	8
147	147	8
125	125	5
10	10	8
52	52	3
20	20	5
115	115	7
13	14	4
172	173	3
181	181	10
117	118	14
62	84	2
188	189	6
117	117	8
122	122	9
108	109	3
64	64	4
7	7	9
152	153	2
166	177	3
46	46	13
48	48	9
112	154	1
140	140	5
94	94	8
171	177	4
12	15	1
160	160	8
57	58	1
152	152	7
173	178	6
69	69	11
25	27	3
167	167	6
137	137	3
72	72	12
115	131	2
47	48	3
51	51	5
61	61	6
112	112	6
170	188	4
151	151	3
25	25	16
31	31	10
130	131	2
168	170	2
187	187	4
88	89	3
143	143	7
34	35	7
110	111	3
59	87	3
96	96	1
132	136	3
187	189	1
186	187	8
87	87	8
110	112	4
29	36	8
32	32	9
82	82	3
143	147	1
29	40	3
128	128	14
51	52	2
119	119	12
177	177	6
76	79	2
107	112	4
70	71	10
17	18	6
109	112	1
41	41	8
142	142	13
78	78	11
100	100	6
67	67	2
102	102	12
53	53	10
157	158	8
20	22	3
57	57	7
159	190	2
33	33	6
24	28	4
114	114	5
9	9	8
176	178	6
100	130	4
144	159	3
136	136	10
113	113	3
58	59	1
123	123	14
89	151	4
154	154	1
139	140	2
24	24	13
11	11	10
168	174	5
138	138	7
176	177	9
150	150	12
126	127	2
36	36	3
161	161	4
154	155	2
108	108	3
163	163	8
40	40	8
165	166	9
55	55	8
156	191	2
149	165	2
192	192	6
61	62	3
158	158	8
47	47	7
131	131	11
69	70	2
116	117	4
144	145	3
103	141	2
102	141	5
107	107	4
162	163	1
0	2	5
21	54	2
39	39	7
27	27	6
186	186	11
146	149	4
103	103	2
99	106	3
170	170	9
156	156	12
175	175	6
34	39	1
118	118	7
5	5	5
160	163	1
35	35	11
148	157	2
43	43	9
148	159	1
191	191	9
137	180	1
136	183	2
93	113	2
8	44	5
174	174	9
159	159	8
95	95	15
179	179	3
13	13	3
164	164	7
124	124	8
133	133	10
104	107	2
0	0	8
188	188	10
99	101	4
44	44	9
54	56	1
166	166	12
11	12	3
147	159	2
162	162	8
154	161	6
38	38	2
41	42	8
192	193	1
144	154	3
134	134	7
144	144	7
128	141	2
38	58	3
6	7	7
5	6	6
185	185	3
116	139	1
35	41	1
132	133	4
132	146	3
116	138	3
129	129	9
185	186	1
79	79	10
182	182	3
147	148	10
49	49	3
25	41	4
115	130	2
183	183	9
181	183	2
182	183	3
139	139	5
180	180	9
88	151	2
63	63	4
3	3	5
2	2	7
3	4	4
97	97	5
172	177	4
7	8	3
90	90	2
116	116	4
55	56	6
2	4	2
4	4	6
165	165	4
71	71	8
1	2	4
180	181	2
170	171	3
22	22	6
193	194	7
18	21	3
151	166	2
25	26	7
85	85	13
39	40	2
95	97	2
76	76	4
153	153	3
123	124	1
73	73	4
190	190	9
193	193	9
58	63	1
161	164	5
146	148	5
101	101	8
1	80	2
12	13	1
82	105	3
112	182	1
154	182	5
140	152	5
30	30	2
112	135	5
84	84	5
15	57	3
118	143	2
0	74	5
8	8	6
40	41	1
1	28	3
5	8	6
103	106	1
80	81	3
26	26	8
135	136	1
96	97	3
24	29	2
153	191	1
104	104	3
54	54	9
132	137	2
64	74	3
12	57	1
179	180	3
13	15	4
108	118	1
109	109	5
30	75	1
9	30	7
126	126	4
1	1	5
4	43	3
50	50	6
119	121	3
73	80	2
30	32	1
162	166	1
98	99	2
77	77	4
4	9	1
120	120	3
42	43	1
70	70	4
160	166	1
67	68	2
161	163	8
157	157	5
133	134	1
149	152	1
106	106	3
66	94	3
17	20	1
58	60	3
189	191	1
112	123	4
39	70	3
101	166	5
76	78	2
189	190	3
149	182	2
112	180	2
155	161	2
28	30	2
77	78	1
97	98	1
153	167	4
61	84	4
154	167	2
3	8	2
0	1	3
36	191	1
176	176	2
150	166	3
23	23	4
25	30	3
135	135	2
125	126	2
45	45	8
97	168	2
161	174	1
189	189	5
156	157	1
99	136	2
16	36	1
99	99	9
168	179	1
97	152	2
40	42	4
59	62	3
110	115	2
161	162	3
154	156	1
146	147	4
37	41	1
116	137	1
121	153	1
74	74	7
43	56	2
42	55	1
150	190	2
24	25	1
169	172	2
21	21	2
65	65	3
194	195	1
169	169	9
130	130	3
107	115	1
99	137	2
111	155	3
148	177	1
185	187	1
19	19	1
148	149	2
156	190	3
166	178	2
30	170	2
141	141	5
93	99	2
34	103	1
1	17	2
93	94	3
0	34	1
62	63	3
34	80	1
155	156	3
168	168	5
50	52	2
128	129	2
130	134	1
69	179	2
197	197	4
158	160	1
8	24	1
66	75	2
151	190	1
9	10	7
183	184	3
37	115	3
93	93	3
170	174	1
160	191	1
158	193	4
125	127	2
163	177	2
111	112	1
110	113	1
60	87	1
174	176	3
86	87	1
131	132	3
104	106	2
104	143	2
131	181	1
137	144	1
76	77	1
10	14	2
154	178	1
7	9	3
134	143	1
115	132	1
120	138	1
157	182	1
26	28	2
184	184	3
115	182	3
170	172	1
145	146	1
119	125	1
94	114	2
163	190	2
43	55	1
68	68	2
174	175	2
3	10	2
30	55	1
25	29	2
15	15	1
187	188	1
119	135	1
29	29	1
18	42	1
104	105	3
45	46	1
4	5	2
191	192	2
26	27	1
39	67	2
18	19	2
52	53	2
4	45	1
31	32	3
7	23	2
102	103	4
33	35	2
8	28	2
59	60	3
41	102	2
86	86	1
135	150	1
54	55	1
64	65	4
13	23	1
127	188	1
59	59	1
44	45	1
83	84	2
48	49	1
99	168	1
171	171	5
19	56	1
156	188	1
137	159	2
143	144	4
113	114	1
121	132	1
169	176	2
143	158	1
109	110	1
145	145	2
66	72	2
2	3	4
146	146	1
104	159	1
174	178	3
103	140	1
169	187	2
111	117	2
39	71	1
153	155	1
26	39	2
116	150	1
14	14	2
99	100	1
62	62	1
97	133	1
133	136	1
127	128	1
97	112	1
173	174	1
117	119	1
135	145	1
6	6	1
116	120	1
25	43	1
190	191	1
53	189	1
111	114	2
8	70	1
60	60	1
175	176	4
9	14	1
4	7	1
118	119	1
82	83	1
20	28	1
161	167	1
145	147	1
140	143	1
20	56	1
98	143	1
82	84	1
173	173	1
19	21	2
47	51	1
180	185	1
72	73	2
39	59	1
177	178	2
19	43	1
19	55	1
153	190	1
96	134	1
46	47	2
106	107	1
43	44	1
80	80	1
104	140	1
95	168	1
149	177	1
84	85	1
169	185	1
105	144	1
113	137	1
138	155	1
172	178	1
20	21	1
100	109	1
94	113	1
8	26	1
73	74	1
126	128	1
28	29	1
49	50	1
125	187	1
