115	169	2
214	216	4
30	33	3
7	7	5
7	8	1
159	159	6
98	100	5
41	41	8
69	69	17
4	4	7
49	49	8
32	32	13
65	66	2
129	154	1
211	211	8
119	119	3
19	50	2
237	237	3
77	77	8
222	222	4
206	206	6
220	228	4
76	117	2
2	11	2
36	36	11
8	8	6
46	46	3
45	45	9
30	30	6
122	123	5
97	143	6
130	158	3
6	18	2
148	148	6
117	118	2
75	75	7
2	3	4
66	66	5
35	52	1
53	53	12
185	188	2
25	25	11
38	38	15
60	80	2
24	67	1
59	60	4
83	83	4
31	31	13
158	158	3
12	12	3
53	54	2
117	117	4
96	101	3
159	160	7
54	54	9
69	71	1
51	51	5
178	178	4
143	143	2
105	112	5
22	22	7
27	27	4
34	34	13
56	56	10
80	81	3
28	28	9
20	55	2
164	165	4
212	212	7
147	171	3
226	226	2
124	124	7
141	143	1
170	170	8
225	225	4
175	175	5
165	165	2
185	186	5
37	37	6
99	99	7
122	122	2
46	47	5
144	147	2
232	233	1
123	123	5
176	178	1
27	44	2
82	83	2
21	21	11
233	233	7
210	214	5
3	3	11
241	241	3
104	133	1
76	76	7
97	97	4
58	60	1
177	177	6
121	127	4
37	38	3
88	89	3
228	228	1
103	112	2
31	32	2
195	196	2
85	85	5
21	22	3
142	142	3
119	126	3
195	195	8
145	146	2
55	55	8
24	56	2
112	113	4
15	15	8
4	9	6
237	238	5
6	7	3
127	127	2
203	203	1
171	171	4
219	219	10
181	183	2
10	10	4
147	147	3
32	41	6
159	172	2
117	221	1
48	48	6
10	28	4
140	140	8
33	63	1
25	55	2
43	43	6
177	178	2
101	101	3
42	42	2
32	48	2
49	50	4
78	78	6
155	155	4
179	180	5
64	68	2
39	59	1
27	193	7
44	44	9
175	179	2
159	175	3
120	120	4
196	196	1
172	172	5
26	26	11
64	84	2
133	133	3
77	169	1
167	167	6
240	241	3
37	61	2
120	124	5
97	101	3
91	119	1
0	30	6
238	238	8
70	186	3
71	73	5
144	144	8
114	114	5
181	181	4
8	9	1
217	229	2
24	24	3
183	183	1
5	19	2
29	30	3
34	40	3
44	46	1
19	19	12
47	47	15
50	85	1
228	229	2
54	70	3
236	236	3
217	218	4
127	129	3
160	160	3
4	5	3
18	24	1
136	136	6
28	29	3
217	220	1
225	232	3
34	35	6
197	197	6
139	139	2
109	110	3
205	205	4
104	104	1
14	36	3
240	240	2
121	121	3
23	56	3
29	222	1
104	105	3
173	174	1
122	133	2
179	179	3
42	45	4
233	241	5
140	142	2
20	54	2
6	6	6
81	81	4
230	230	2
103	125	3
12	14	2
210	210	7
103	168	3
129	129	3
9	9	10
194	194	1
113	140	3
44	45	2
72	73	4
79	80	2
119	120	2
54	55	1
26	67	2
65	67	1
216	233	1
37	81	4
66	67	8
124	126	2
26	68	3
235	235	3
74	74	7
71	71	4
31	215	2
227	227	11
149	149	1
118	217	6
2	2	4
200	200	5
139	147	2
154	154	2
86	162	4
105	135	2
38	62	2
0	0	2
80	103	1
124	154	2
60	60	5
80	80	5
198	198	3
2	8	3
51	53	3
205	206	1
73	74	1
52	52	3
165	242	2
177	217	1
118	118	4
145	145	3
17	67	1
176	177	3
178	217	2
189	189	2
3	23	1
207	219	2
35	89	2
181	184	1
55	70	2
157	157	5
65	228	1
160	170	2
53	81	2
7	59	1
35	41	1
116	116	7
7	57	2
122	134	4
163	170	2
187	214	3
15	17	3
201	201	2
170	209	1
99	241	2
59	59	6
47	152	1
37	62	1
79	79	3
52	53	2
169	209	1
184	185	3
32	215	1
63	64	2
124	127	4
88	88	4
40	48	2
77	115	4
154	168	2
122	126	4
51	156	2
3	21	1
18	22	1
143	182	2
128	171	2
106	106	1
75	228	6
171	195	2
100	100	4
35	79	2
5	6	1
232	232	4
20	21	2
104	126	2
39	39	4
16	16	3
186	198	2
219	230	5
73	73	4
29	78	4
28	43	3
18	25	2
61	69	1
144	145	2
156	171	2
72	81	2
147	178	2
56	81	1
19	25	2
20	20	2
186	187	2
134	144	2
218	218	4
40	40	2
128	128	3
234	242	1
70	70	3
96	97	2
29	29	4
15	24	3
74	85	1
39	48	1
23	24	1
7	13	1
29	42	2
13	13	3
64	69	1
215	215	1
111	112	2
10	29	2
135	136	4
160	161	3
58	131	4
57	59	6
31	41	1
24	65	1
190	190	2
77	78	1
73	83	1
64	228	2
214	214	1
62	62	3
10	27	1
79	100	1
191	192	4
5	5	4
15	16	2
18	18	4
68	127	1
210	221	1
191	205	2
69	163	2
206	218	2
88	104	1
124	125	2
98	99	1
113	114	1
50	50	4
61	85	3
187	187	5
58	59	4
173	196	2
130	130	1
4	6	1
51	88	1
188	193	3
99	162	2
21	24	3
1	1	2
9	69	1
50	51	2
75	212	1
204	206	1
98	241	1
7	58	1
84	85	1
17	19	1
53	56	1
206	217	1
85	228	1
101	143	4
123	127	5
174	179	1
80	169	3
174	174	1
20	26	1
16	30	1
45	46	1
28	32	1
57	57	1
96	96	2
23	23	1
57	58	1
164	164	1
42	43	3
61	62	3
151	151	1
36	88	1
4	7	2
32	84	1
48	73	1
32	34	1
156	159	1
37	89	3
226	228	2
201	202	1
129	141	1
8	12	3
8	21	1
27	194	1
152	152	2
121	174	1
58	58	1
176	176	1
198	199	1
53	82	3
3	6	1
184	198	2
136	138	1
58	61	1
73	160	1
67	162	1
149	150	3
64	65	1
213	213	2
228	230	4
170	178	1
107	129	3
231	231	1
122	172	1
82	105	2
36	53	1
71	72	1
222	223	2
63	83	3
138	143	2
76	78	1
5	7	1
50	86	5
17	17	1
99	100	2
7	69	1
140	164	1
219	227	1
184	184	1
69	128	2
49	79	1
125	125	1
2	60	1
61	61	3
26	64	1
135	135	1
206	207	2
220	221	2
217	237	3
186	186	1
219	220	1
113	113	3
123	129	1
239	239	1
103	103	3
223	224	1
36	39	1
174	175	1
12	23	1
178	211	1
165	166	1
136	152	1
46	150	1
242	242	2
75	168	1
60	133	2
65	65	2
216	226	1
173	173	2
179	182	1
115	115	1
82	84	1
208	208	1
211	212	1
105	122	2
180	180	1
13	14	1
75	117	1
223	223	1
69	151	1
71	74	2
76	167	1
169	169	2
65	74	2
12	59	1
68	69	1
221	230	1
46	196	1
194	195	1
119	235	2
60	61	1
146	146	2
3	8	1
8	218	1
85	160	2
70	163	1
102	102	1
168	168	1
217	217	1
183	240	1
100	103	1
20	22	1
91	98	1
111	111	1
71	100	1
163	163	1
207	208	1
146	172	1
202	202	1
29	31	1
118	171	1
134	134	1
114	187	1
220	223	1
187	189	1
233	236	1
79	85	1
211	213	2
89	89	1
0	1	1
43	54	1
222	224	1
220	220	1
138	140	1
162	162	1
