100	163	3
71	86	6
109	110	4
47	47	5
13	13	6
135	158	2
63	118	1
3	4	9
84	84	6
25	46	7
96	98	9
4	8	5
71	71	5
152	153	6
175	175	15
53	54	2
10	10	4
71	104	4
124	124	6
128	128	3
172	173	7
5	5	5
23	24	2
133	142	2
27	27	3
44	44	3
126	126	6
25	39	2
5	6	2
163	164	2
32	34	3
27	28	4
18	18	6
42	42	1
59	59	9
4	45	1
69	69	7
181	181	3
29	31	3
189	189	6
25	123	1
144	144	4
126	143	8
154	154	2
153	153	6
0	115	1
25	44	7
99	99	5
95	97	4
16	16	7
93	94	6
17	18	5
149	151	3
103	162	1
31	33	4
148	148	3
184	184	5
91	91	4
165	165	6
89	89	6
15	15	11
81	96	1
100	105	6
42	45	3
104	104	5
146	146	3
76	76	13
84	85	2
62	63	5
166	166	2
133	133	4
10	11	5
149	149	12
181	190	3
58	60	8
20	23	2
114	116	3
39	40	2
182	182	11
6	6	10
83	83	8
70	83	2
48	49	5
138	138	10
38	38	5
92	92	4
66	66	3
60	60	2
106	168	2
19	20	9
46	48	1
21	21	5
82	180	2
183	184	6
118	118	7
181	182	1
147	148	3
157	157	3
7	7	2
14	15	10
99	110	4
181	189	3
54	137	2
170	170	5
24	24	3
187	187	3
63	63	10
29	30	6
136	137	4
40	40	8
172	172	6
97	182	2
0	110	2
82	82	8
170	171	1
158	158	9
65	65	1
86	87	2
107	108	3
77	82	1
74	74	4
106	106	7
116	118	1
5	12	3
73	94	2
111	122	1
0	81	1
114	114	7
97	105	6
161	161	3
10	58	2
90	90	11
140	140	18
155	155	3
48	48	11
0	0	3
162	162	9
156	161	3
93	93	9
27	32	1
125	126	3
180	180	5
175	176	4
32	37	1
72	72	2
173	173	9
80	82	3
73	81	3
67	101	1
70	70	4
81	82	3
33	34	4
173	174	4
24	39	2
49	49	4
103	104	3
57	57	11
29	29	7
33	35	2
174	174	5
188	190	1
1	35	3
55	63	5
97	98	2
0	5	3
101	101	4
41	70	2
92	94	3
108	109	8
55	55	2
79	79	3
164	164	9
100	100	5
79	83	4
61	61	8
176	177	2
15	33	1
61	63	3
46	122	2
56	62	1
123	130	2
37	37	4
25	26	5
100	104	3
5	133	1
148	150	4
64	107	4
175	187	1
178	181	5
186	186	9
188	188	1
141	143	13
150	150	12
132	165	1
9	46	1
179	181	7
157	167	1
131	131	2
117	119	4
16	22	5
8	9	1
125	125	9
71	110	5
178	182	3
36	43	3
73	82	2
17	17	3
53	137	1
0	72	2
2	2	5
139	140	4
127	127	3
129	129	9
111	111	6
88	88	6
21	46	2
96	96	3
124	131	3
31	31	2
72	82	1
20	44	1
152	152	7
126	146	4
113	113	2
128	129	11
169	169	4
163	167	4
94	100	1
58	61	6
135	145	3
9	9	6
156	156	8
97	97	5
109	167	1
137	138	8
100	106	1
74	75	3
46	46	6
9	10	3
75	76	9
55	104	2
72	99	4
58	63	4
162	163	6
168	168	3
180	182	3
10	178	1
183	183	5
100	107	2
158	160	1
25	43	1
163	163	3
55	109	2
77	77	8
31	34	1
149	155	2
133	136	3
105	105	4
110	110	5
112	112	4
134	134	6
143	144	1
72	94	2
81	81	2
132	132	6
45	45	7
94	94	7
79	81	1
137	137	3
142	142	19
103	153	3
27	36	2
54	121	3
15	178	1
126	127	10
62	90	2
14	14	6
68	76	1
28	31	3
43	43	2
131	144	1
15	22	2
110	111	2
174	176	3
184	186	1
168	169	8
92	102	3
3	183	4
156	169	2
1	1	3
93	153	2
185	185	3
11	130	2
114	125	3
177	177	7
130	148	2
7	39	2
39	43	4
143	143	7
48	129	3
37	41	5
68	70	1
57	59	1
123	123	9
108	112	2
45	46	2
59	60	5
73	79	4
24	42	3
105	164	1
135	135	6
174	175	3
98	98	2
12	21	2
12	12	5
71	72	2
3	82	2
12	22	2
62	96	1
103	103	5
130	130	4
129	130	3
154	156	1
55	114	4
28	30	2
130	133	1
157	169	2
0	1	4
26	27	5
73	97	2
37	44	2
97	181	4
23	23	7
20	20	3
64	117	2
67	89	1
122	122	3
77	184	4
5	131	2
61	96	1
165	170	3
178	180	3
89	110	6
22	45	1
105	109	1
75	75	2
136	136	5
83	86	1
111	150	1
107	107	3
1	86	2
35	36	2
57	58	3
39	39	3
131	142	1
54	54	2
19	19	3
69	74	4
28	29	2
72	78	1
23	39	2
1	114	1
83	91	1
163	165	2
52	151	1
104	108	1
4	44	2
22	23	4
105	165	1
0	71	1
139	139	3
75	99	1
94	98	3
42	44	2
100	138	1
24	43	1
61	98	2
155	168	4
78	78	1
64	80	4
58	59	1
0	60	1
25	42	1
138	139	4
56	56	2
24	25	1
121	121	6
11	14	2
145	145	3
78	79	1
158	162	3
99	119	3
3	44	2
84	86	2
120	120	1
5	97	3
74	76	2
30	30	1
12	13	2
134	143	2
54	106	2
83	90	1
139	142	1
91	93	4
62	62	2
114	115	3
157	161	1
73	98	2
17	21	2
27	29	2
149	150	2
60	95	1
82	96	1
16	18	1
133	141	1
64	116	1
15	17	2
167	168	2
147	147	1
160	173	2
68	68	2
17	23	3
65	67	1
161	164	1
139	167	1
179	180	5
157	165	1
81	94	1
178	179	2
190	190	1
108	163	2
160	160	3
62	108	1
52	52	3
95	95	2
188	189	2
145	147	2
178	178	3
5	7	1
3	3	3
180	186	3
98	105	6
4	6	2
124	127	2
59	72	1
133	134	1
8	8	3
140	141	2
102	102	2
91	92	2
109	168	2
16	76	2
25	25	1
111	142	1
109	109	2
176	176	2
24	37	3
4	7	2
107	113	1
179	179	2
132	133	2
66	164	2
30	34	1
107	117	1
106	107	1
5	181	1
6	7	2
43	44	1
56	64	1
108	108	1
61	62	1
87	87	1
146	147	1
13	15	1
116	116	1
94	106	1
155	156	1
60	183	3
14	22	1
109	113	2
38	39	1
78	80	2
73	73	1
132	136	1
141	145	1
99	167	1
75	83	1
180	181	1
67	68	1
118	130	1
13	17	1
161	162	1
15	76	2
86	86	2
138	164	2
182	189	1
115	126	1
41	41	1
176	183	1
25	45	1
35	35	1
11	13	1
99	168	1
48	117	1
120	122	1
18	20	1
17	22	1
12	141	1
67	67	2
164	165	1
65	68	1
151	154	1
109	115	1
102	103	1
61	99	1
132	137	1
111	126	1
43	46	1
151	151	2
11	128	1
89	108	1
53	108	1
127	129	1
72	93	1
58	183	1
