55	55	8
67	67	9
117	118	4
60	61	4
5	60	5
96	119	5
142	142	6
25	32	1
123	123	4
69	104	8
52	72	2
134	138	3
20	55	1
25	26	1
110	112	4
35	56	1
52	52	7
78	78	12
27	27	6
25	25	15
26	26	8
108	108	2
80	80	8
132	137	2
28	28	5
10	31	2
138	138	6
10	80	1
104	104	4
4	95	2
121	121	9
5	5	3
82	82	8
130	133	2
30	55	4
144	144	4
9	9	4
97	140	1
70	70	10
53	58	3
122	122	14
124	136	7
111	111	2
118	118	8
131	134	3
143	143	3
136	136	16
9	15	6
3	3	5
24	26	8
23	23	2
39	40	3
137	137	7
122	123	1
72	73	1
69	69	6
75	75	3
33	36	5
88	112	3
17	102	3
56	56	10
32	32	1
51	54	4
21	103	1
58	59	2
70	89	7
31	36	4
89	106	6
112	113	2
141	141	12
133	133	4
135	135	11
96	97	2
98	130	2
115	115	11
122	134	1
1	1	1
57	57	3
131	136	1
67	98	1
36	37	7
94	94	4
52	82	2
136	140	3
12	24	2
42	42	6
128	129	2
20	26	2
14	27	2
85	89	1
87	87	7
142	143	2
58	104	1
114	115	3
110	110	6
125	127	1
66	89	6
0	0	7
126	126	5
30	79	1
125	143	4
22	22	6
91	109	2
115	116	3
118	125	2
9	79	2
134	135	3
129	129	4
105	106	1
120	130	1
105	105	2
37	37	3
21	21	3
29	29	6
119	121	4
96	98	2
31	32	4
4	14	2
71	86	3
108	109	4
101	102	1
124	124	6
91	91	7
11	11	6
101	101	4
125	141	3
77	87	3
16	16	3
59	59	1
8	81	1
140	140	5
146	146	3
79	79	4
130	130	8
74	74	3
53	81	1
41	42	3
125	131	3
107	107	2
125	125	10
95	97	5
4	5	3
99	99	2
105	109	1
24	24	3
52	53	5
47	56	2
119	120	2
124	133	5
68	104	2
48	49	4
0	6	2
65	65	3
97	139	2
12	19	3
69	92	5
15	15	2
71	71	5
50	51	7
91	110	2
132	132	2
131	131	7
76	76	3
124	126	3
56	72	1
53	53	10
69	75	2
40	103	2
136	137	8
17	17	2
95	95	4
91	108	2
112	112	3
55	61	3
20	20	3
137	140	2
6	6	4
24	30	3
134	134	9
94	113	3
119	134	1
72	106	3
24	27	2
74	128	3
134	137	1
129	130	3
81	81	7
139	139	5
22	41	2
89	90	5
132	136	2
93	135	5
77	78	4
51	51	6
61	61	10
42	49	4
12	98	2
85	85	5
120	123	2
35	35	3
25	103	1
68	68	3
75	88	4
119	119	8
93	93	6
111	116	5
50	50	1
19	39	4
57	104	3
99	100	4
62	71	2
40	141	3
15	60	1
63	65	2
110	134	1
116	116	3
16	17	3
96	96	1
76	77	1
92	109	1
109	109	2
3	4	1
58	62	1
113	116	3
30	33	1
54	54	5
83	83	2
92	110	5
53	54	2
29	30	3
0	31	2
116	118	3
49	53	3
125	140	1
73	73	6
21	24	4
131	135	2
34	34	3
14	16	2
98	143	1
38	86	1
12	13	5
8	8	4
120	120	9
138	141	1
98	99	1
0	1	2
40	55	4
74	75	2
67	68	3
56	64	2
86	86	2
49	49	4
19	22	1
133	134	3
100	101	4
90	90	2
10	10	2
109	125	1
122	127	1
11	54	1
100	100	1
5	40	1
96	131	1
31	39	1
114	114	2
49	55	3
77	123	3
41	41	6
12	20	2
97	97	4
128	130	1
66	67	4
98	106	3
54	81	1
38	38	1
66	91	1
50	63	1
131	142	1
2	5	1
103	103	5
4	4	4
135	140	2
128	128	1
1	4	1
96	128	1
98	133	1
47	47	1
24	32	2
84	84	5
20	37	2
48	48	1
64	64	1
112	116	3
60	60	3
4	9	2
69	83	1
1	8	1
66	66	2
113	113	3
110	111	2
91	118	2
87	89	1
77	110	2
39	39	1
31	31	2
21	22	1
55	58	1
58	70	1
38	52	1
16	59	1
109	111	3
55	87	1
13	14	1
64	75	1
3	94	1
102	102	1
112	135	2
145	145	1
13	13	1
121	122	1
18	18	1
54	55	1
131	139	1
41	58	1
133	137	2
33	33	1
92	117	1
96	130	1
104	109	1
107	110	1
77	124	1
123	129	1
119	135	1
116	121	1
92	93	2
80	82	1
130	143	1
125	126	1
89	89	3
98	109	1
96	127	1
31	33	1
12	12	1
88	104	1
2	2	1
135	139	1
47	57	1
10	21	1
69	82	1
