143	143	10
105	152	4
159	161	6
233	236	3
200	200	2
227	227	3
223	223	5
33	33	11
127	127	12
113	114	1
123	123	7
51	52	1
164	178	7
53	53	31
8	8	3
76	77	8
183	184	4
20	20	21
167	176	2
33	56	1
68	68	8
175	176	9
25	26	1
30	163	1
38	39	1
67	67	19
194	194	4
48	48	3
41	41	15
28	29	4
37	37	5
61	61	3
76	76	3
84	84	12
171	171	11
220	220	19
12	235	5
9	9	16
39	45	1
36	62	2
27	28	14
133	133	5
136	137	2
213	213	10
31	31	7
10	10	4
3	6	2
55	55	10
36	54	2
26	26	16
63	65	2
241	241	3
64	64	5
26	37	2
112	112	7
12	12	20
1	2	2
50	52	1
218	218	21
34	49	1
83	84	2
149	149	6
177	179	6
100	126	2
113	113	8
21	40	4
75	75	11
236	237	7
220	223	2
86	86	3
159	160	2
21	21	4
202	238	5
42	42	9
7	7	4
6	6	3
231	231	5
128	134	2
39	39	8
18	19	3
157	157	3
106	106	6
98	98	8
113	120	3
59	62	1
22	22	2
148	159	8
123	129	7
34	34	6
202	205	2
182	183	4
65	66	7
44	45	4
45	45	10
217	218	4
200	208	2
109	109	6
195	196	3
38	38	7
202	236	2
71	71	6
46	46	8
157	169	3
189	190	5
56	56	6
63	64	3
104	108	7
51	54	3
141	141	5
184	204	2
225	225	4
174	185	3
2	3	8
79	79	3
30	78	1
26	27	12
152	153	4
202	202	5
144	144	9
74	75	1
27	27	4
40	113	1
229	230	6
36	38	7
21	174	3
239	242	1
131	132	5
204	204	3
24	24	4
144	145	1
230	230	9
20	21	8
180	214	2
176	176	9
173	173	11
226	227	2
235	237	4
164	168	1
234	234	11
183	202	2
185	186	5
24	240	5
26	173	4
15	17	3
216	217	5
34	35	7
203	204	3
186	187	2
29	30	6
29	75	2
69	69	11
220	222	3
129	130	2
21	24	6
102	112	4
221	221	4
66	66	13
108	108	6
35	35	7
20	23	4
140	180	1
11	11	27
211	223	2
152	174	1
88	88	9
32	33	9
7	9	2
43	44	1
151	151	3
108	116	3
70	70	12
223	224	9
177	177	8
58	58	7
96	101	1
210	213	5
65	65	6
179	180	2
17	17	9
28	28	5
15	177	1
16	16	7
59	60	8
192	212	3
30	31	5
211	215	2
230	231	9
184	184	4
199	199	2
145	182	1
28	36	2
11	70	1
240	240	5
79	80	4
211	213	4
137	137	2
224	224	5
126	127	8
227	228	2
166	166	7
148	156	3
198	198	4
74	85	6
78	78	2
15	52	1
62	62	8
43	43	20
165	168	4
201	231	3
41	142	4
54	61	2
143	144	4
197	197	8
100	101	6
36	36	16
47	47	2
169	169	3
99	119	2
207	207	3
57	60	4
38	42	1
62	63	1
234	235	3
117	117	6
33	34	4
119	119	9
49	50	5
181	182	6
81	81	1
6	7	3
239	239	6
10	15	3
47	48	1
132	134	2
159	159	8
111	111	7
155	156	4
19	57	4
19	175	4
66	81	3
12	13	2
74	74	8
14	16	4
107	108	1
170	170	6
118	118	4
69	70	4
232	232	5
144	146	4
214	214	1
134	238	3
55	56	4
216	216	4
6	8	3
101	127	2
172	190	6
148	149	1
139	143	2
78	79	4
41	56	2
29	29	2
147	148	2
80	80	5
205	231	3
27	164	3
123	124	1
161	161	6
83	83	5
44	44	4
151	152	7
236	241	4
75	77	2
196	196	2
140	145	4
109	111	2
114	114	2
103	104	3
176	177	6
109	110	1
85	85	8
54	54	4
21	170	4
151	190	3
112	121	1
142	142	5
102	102	8
19	19	17
174	174	12
77	77	2
116	116	5
44	47	7
150	159	3
160	160	9
212	212	4
77	79	1
237	237	7
211	212	4
25	25	8
36	39	3
193	193	2
45	240	1
190	191	2
63	63	5
158	166	1
208	208	6
209	209	3
14	29	4
204	214	7
235	235	5
105	146	4
84	178	3
73	73	8
24	26	2
54	55	3
239	241	1
139	160	4
59	59	4
153	224	2
37	42	1
130	130	2
210	210	4
99	121	4
72	72	4
9	55	3
157	158	4
10	11	2
172	173	1
203	203	3
36	37	7
149	182	1
211	211	6
78	80	2
217	217	8
17	41	1
219	219	12
1	1	3
147	150	2
102	134	2
154	154	11
154	155	3
209	210	3
229	229	3
80	83	3
11	12	3
64	65	2
141	158	2
0	1	3
76	79	1
153	153	3
5	14	1
133	134	1
54	69	7
166	168	2
164	164	3
161	163	2
14	14	3
52	52	6
135	135	3
60	83	1
49	59	2
211	219	4
0	39	2
73	74	1
100	100	2
2	2	3
214	215	4
68	73	3
182	182	5
134	134	5
114	118	2
35	37	1
4	4	4
91	91	1
155	155	5
16	29	4
197	198	6
0	8	2
164	165	2
210	211	4
106	110	3
103	106	2
21	23	3
178	181	4
86	213	3
45	46	3
58	59	2
135	143	2
152	152	4
144	171	2
162	162	3
178	178	6
236	236	7
15	15	4
120	120	8
69	72	2
117	126	4
171	191	1
105	107	1
88	89	2
75	82	2
99	110	3
178	179	3
188	191	1
205	205	2
190	190	4
112	122	1
221	223	1
101	101	7
72	73	3
64	68	3
104	111	2
233	233	2
170	171	1
25	44	1
175	185	3
197	224	1
177	178	2
108	112	1
56	65	3
124	124	2
44	61	6
58	77	1
201	201	3
8	16	2
163	165	1
96	96	3
167	168	4
238	238	3
13	14	4
106	107	1
215	216	2
103	105	1
116	118	5
228	228	3
128	128	4
242	242	3
153	156	1
10	47	2
197	225	1
212	213	4
68	69	2
188	188	2
179	179	3
156	157	6
229	231	1
12	34	3
146	171	1
68	72	1
129	129	5
38	40	4
184	186	1
135	136	1
181	181	1
89	89	1
192	193	2
26	240	1
36	50	2
99	99	3
236	240	1
124	125	2
189	191	1
220	221	1
192	196	1
105	106	1
163	163	2
49	49	4
122	125	4
120	122	1
233	237	1
60	60	4
241	242	1
153	155	2
51	51	3
25	189	1
84	85	1
43	72	4
97	97	2
221	222	2
131	131	1
104	110	1
18	18	4
142	144	2
183	194	1
188	189	2
164	170	2
195	195	5
66	67	4
26	201	1
233	235	1
140	141	5
44	62	2
13	31	3
221	228	2
2	4	2
204	206	2
189	189	6
84	95	2
206	206	1
237	238	2
194	195	1
50	51	2
135	142	2
32	32	2
24	25	1
81	84	1
142	143	2
207	208	3
12	31	1
129	132	2
56	174	3
67	68	1
86	88	1
100	130	3
125	126	2
56	58	1
39	41	2
41	78	1
47	240	2
48	60	2
52	53	2
66	80	3
219	228	3
95	101	3
20	25	2
191	191	2
235	236	1
165	165	4
150	151	1
1	3	1
180	180	5
164	233	1
47	61	1
139	139	2
192	192	2
42	69	1
140	169	2
219	226	3
213	214	1
9	10	5
128	162	1
9	20	2
159	178	1
172	172	2
148	148	2
205	207	2
186	192	1
179	215	1
53	66	3
116	117	2
233	234	1
42	83	1
213	223	2
134	138	1
145	145	1
185	185	1
83	85	1
126	126	1
114	115	3
239	240	3
161	170	1
75	76	2
23	23	3
31	35	2
0	2	1
203	215	2
53	55	1
8	9	2
203	233	1
122	122	2
108	109	1
134	140	1
54	56	2
37	55	1
187	204	1
57	58	1
14	17	2
171	175	1
5	5	1
135	144	1
6	47	1
57	59	1
61	62	1
14	15	1
3	3	2
48	52	1
173	236	2
121	121	2
183	183	3
227	229	2
11	48	2
20	28	2
65	71	1
18	20	1
140	161	1
39	65	1
115	116	3
8	12	2
144	169	1
69	76	1
158	158	1
162	166	1
153	199	2
208	221	1
86	87	1
187	187	2
205	206	1
2	11	1
141	142	1
56	67	1
148	154	1
101	132	1
76	143	1
0	3	2
58	60	1
16	179	1
110	110	1
210	217	1
40	40	1
42	134	2
50	53	1
228	230	1
37	39	1
24	201	1
33	55	1
70	71	1
0	0	3
133	135	1
172	181	2
217	219	1
175	177	1
84	96	1
204	207	1
218	223	1
8	14	1
36	48	1
101	106	1
140	167	1
145	148	1
