132	132	5
15	17	1
16	16	2
52	52	3
49	49	4
63	63	5
88	109	2
53	78	2
30	30	18
96	96	9
87	87	9
36	36	11
96	98	2
76	114	1
125	126	4
38	38	2
132	134	7
102	131	1
119	121	4
13	13	1
136	143	1
76	110	4
107	129	4
116	116	1
123	123	4
106	107	6
53	66	1
139	140	3
5	11	1
119	119	3
71	85	2
33	35	2
129	129	3
18	18	7
135	136	4
143	143	11
54	54	5
93	94	7
61	72	2
117	117	6
74	76	4
114	115	4
74	74	8
137	137	3
123	130	5
53	53	8
4	4	7
31	33	1
142	142	5
23	23	2
130	130	3
22	22	13
140	141	3
87	90	2
97	98	5
3	18	2
8	36	1
140	140	1
40	40	8
79	80	2
29	29	5
145	145	12
69	69	5
131	134	1
136	139	3
72	72	4
2	10	7
65	66	2
91	131	2
87	88	2
107	134	5
137	139	2
16	25	4
33	33	5
60	130	2
127	127	6
142	143	2
51	52	4
61	61	5
83	83	1
135	143	5
125	125	9
85	91	2
19	19	7
6	20	3
70	102	7
49	58	2
68	72	2
122	122	4
59	60	1
95	95	9
124	124	15
124	129	1
87	89	3
4	6	1
57	57	2
91	126	2
76	113	2
108	108	13
2	3	3
66	66	5
122	123	1
119	140	2
17	17	5
81	81	4
84	84	1
121	121	5
88	88	6
117	134	1
115	115	8
67	68	3
70	70	10
107	107	4
78	112	5
3	3	8
136	136	4
2	33	1
22	23	3
52	54	2
55	55	2
57	58	2
86	86	1
133	134	2
98	111	2
120	120	5
128	128	7
58	59	4
109	110	2
116	117	6
85	85	2
113	113	5
102	102	3
139	139	1
80	80	4
59	59	4
26	26	10
40	41	1
80	129	2
137	138	1
88	89	3
56	56	1
77	128	3
88	92	6
39	39	2
51	51	11
72	79	2
118	119	4
81	100	1
50	50	4
93	93	8
143	144	3
30	31	1
17	37	1
103	103	3
71	71	5
84	85	2
109	109	4
5	63	1
54	95	1
15	15	3
133	140	2
87	91	10
38	39	2
26	122	1
132	143	1
111	112	2
11	26	2
48	50	2
55	128	3
75	113	3
51	56	1
12	12	7
83	108	2
114	114	8
81	107	3
95	99	2
80	81	1
98	98	7
106	106	4
65	65	1
134	135	6
119	139	2
120	139	2
62	63	1
74	78	3
101	101	4
58	58	6
135	135	1
70	125	2
78	78	8
118	118	3
111	111	2
78	134	3
32	35	5
34	35	3
94	94	6
21	21	6
89	89	5
24	25	4
40	50	2
3	30	1
8	8	1
31	31	1
52	65	1
77	114	2
73	91	1
12	22	1
36	134	1
116	138	2
112	112	1
131	131	5
126	126	1
0	0	1
133	142	1
56	70	3
74	87	1
28	28	2
97	97	5
99	99	2
57	91	3
0	10	2
37	41	1
67	104	1
68	104	1
35	39	1
2	2	3
50	75	1
47	47	2
136	142	1
89	90	1
80	119	2
53	54	2
120	121	1
2	11	3
133	133	6
54	55	2
109	133	1
20	20	4
62	64	1
119	131	4
5	6	6
91	91	3
81	99	3
25	25	3
96	97	2
118	139	2
83	85	1
83	84	2
67	67	2
55	107	3
66	68	5
53	75	1
70	74	1
102	140	1
75	75	1
128	130	2
97	112	3
23	24	4
62	62	5
141	141	5
27	27	1
123	126	1
145	146	1
2	22	6
9	9	1
141	142	3
11	21	2
49	67	1
128	129	2
57	141	1
129	135	2
71	93	2
32	32	6
112	137	1
110	127	1
29	30	3
21	23	1
100	101	1
100	102	1
138	138	1
37	42	1
81	82	1
112	114	1
0	1	1
83	107	1
82	132	1
133	136	1
134	134	5
117	138	1
109	111	2
85	86	3
37	37	3
17	30	1
58	81	3
33	34	2
70	75	2
126	130	1
56	90	1
11	12	1
24	24	4
37	51	1
41	48	1
8	30	1
85	105	1
55	63	1
65	68	1
72	73	2
108	132	1
144	144	2
42	42	2
114	116	1
80	125	2
103	105	1
64	64	2
80	109	1
105	105	1
66	67	1
8	9	1
29	130	1
82	108	1
1	2	1
119	122	1
10	11	1
27	28	1
100	111	1
116	121	1
141	143	1
5	68	2
100	100	1
63	64	1
96	106	1
119	130	1
49	55	1
57	101	1
43	73	1
61	130	1
90	90	1
33	49	1
60	60	1
56	106	1
1	1	1
35	35	1
85	107	1
6	6	1
131	135	1
72	85	1
