13	14	15
21	22	1
54	54	14
39	39	29
39	40	14
22	22	15
1	1	18
157	157	10
61	63	4
10	11	17
7	16	4
15	43	2
19	20	5
24	24	20
61	61	14
165	165	7
38	38	29
8	8	20
43	82	2
142	142	15
123	125	2
123	123	21
134	134	14
5	5	17
12	12	13
140	168	2
136	143	5
86	86	4
173	174	12
132	132	7
160	160	13
16	16	38
127	127	14
115	115	8
87	87	5
36	36	17
168	169	2
7	8	5
97	97	10
2	3	4
155	155	14
43	43	27
56	56	9
55	55	11
5	6	9
136	136	8
113	121	3
6	13	5
176	176	17
158	159	3
26	26	14
28	28	18
65	66	2
107	107	11
40	40	21
13	13	23
138	138	24
21	21	12
60	61	9
123	124	4
18	18	17
95	95	19
29	29	29
115	116	4
62	62	11
110	126	1
151	156	4
76	76	4
11	24	1
30	30	17
31	31	21
137	137	17
174	174	9
64	64	12
20	20	15
19	26	3
25	25	19
92	94	7
113	113	13
116	119	1
147	147	24
92	92	18
32	33	8
163	163	8
93	93	24
155	156	5
77	77	23
31	32	12
15	15	33
78	78	13
80	80	6
4	4	4
24	25	17
140	166	5
42	42	16
23	23	31
7	9	7
122	122	17
140	140	20
53	53	7
166	170	1
10	13	9
143	143	16
135	148	8
167	167	17
87	105	1
23	24	5
155	158	4
10	10	38
63	63	9
106	159	1
125	125	19
108	109	7
105	106	2
145	146	5
145	145	13
2	2	9
30	31	2
35	35	13
61	75	1
107	108	4
16	17	17
89	89	21
20	31	1
28	29	11
72	72	7
74	74	7
110	110	6
41	41	19
118	119	11
31	45	4
82	82	4
173	173	9
83	94	2
159	159	18
87	117	2
14	14	31
43	73	4
33	33	13
14	15	10
175	175	6
158	158	7
112	118	2
141	141	23
143	153	5
43	81	7
56	107	4
76	77	3
144	171	2
151	151	8
153	153	19
143	157	3
27	27	10
80	82	5
83	84	7
27	28	4
33	34	12
165	169	5
10	12	2
103	103	16
3	3	5
136	149	1
149	149	9
60	60	13
101	101	8
37	38	5
49	50	2
42	43	5
7	7	22
34	36	3
135	135	14
12	13	7
68	68	6
91	91	6
129	129	2
147	148	2
111	111	7
38	39	14
9	9	19
57	57	8
45	46	1
179	179	13
153	154	6
101	113	7
171	171	10
119	150	4
18	26	1
67	72	9
55	56	6
8	67	2
8	9	7
14	16	4
146	146	20
137	138	9
34	34	20
35	36	15
71	71	12
75	75	9
146	147	3
44	45	8
104	105	6
136	142	3
144	144	16
139	139	9
26	30	1
67	68	9
106	107	6
34	35	2
175	176	6
126	126	22
15	16	5
74	80	4
21	23	5
177	177	11
23	25	10
134	149	7
63	64	7
11	11	15
168	168	8
141	142	7
32	32	29
149	170	3
17	43	3
98	101	1
100	100	15
64	65	5
96	96	3
131	131	31
2	10	1
5	7	6
117	118	3
51	51	10
4	5	11
164	165	1
6	6	12
117	117	2
14	20	2
168	172	6
114	116	2
94	103	2
143	169	2
119	120	4
81	82	4
45	45	4
96	112	5
94	94	6
165	166	8
20	23	4
60	71	2
161	162	2
152	153	1
172	173	4
131	132	7
112	115	2
1	5	4
103	107	1
4	8	6
111	155	1
123	126	4
178	178	14
103	104	3
53	68	2
40	41	8
162	162	4
118	118	11
46	46	2
129	130	7
66	67	5
163	164	4
17	18	3
124	126	3
50	50	7
25	50	1
25	31	1
116	117	4
44	44	9
78	79	7
4	11	4
9	10	17
30	43	4
170	171	6
166	166	6
59	59	16
129	169	2
150	150	12
25	26	10
67	67	8
158	164	2
133	133	15
21	28	4
19	19	13
52	52	4
112	112	10
11	12	6
166	167	4
17	17	14
65	65	7
68	76	3
160	162	5
16	33	2
146	150	1
132	133	3
85	85	8
4	6	1
112	113	2
139	176	1
0	1	2
177	178	3
61	64	2
140	149	1
20	40	3
11	39	2
114	121	3
59	61	3
93	94	7
154	160	3
117	155	2
167	168	5
71	72	6
108	108	12
133	142	5
148	148	13
90	90	19
108	127	2
66	66	9
87	89	1
88	88	4
17	111	2
147	174	1
19	21	4
122	124	2
104	106	2
30	44	8
57	58	4
83	83	3
63	88	5
15	31	2
174	176	2
151	157	2
37	37	15
2	116	3
180	180	2
15	22	3
31	40	2
2	8	1
11	31	1
52	53	3
117	123	2
124	124	7
7	10	1
4	9	2
141	150	2
170	173	2
32	34	2
148	168	2
164	166	2
52	64	4
111	114	2
21	35	3
83	87	1
170	170	10
143	158	1
176	177	1
0	0	9
136	137	5
159	160	3
37	40	2
2	4	8
124	155	2
119	119	13
129	131	1
56	71	2
116	116	6
102	102	15
9	20	4
79	81	1
104	104	8
50	51	6
170	174	3
17	19	1
171	174	4
15	42	5
80	104	1
82	83	1
130	131	6
17	68	3
128	128	4
114	152	4
58	58	1
90	93	1
154	154	4
24	27	2
110	116	1
23	37	2
9	11	1
3	8	1
109	111	3
24	31	2
163	166	1
144	147	2
150	155	4
150	151	1
8	33	8
157	158	4
125	155	1
114	115	12
144	178	2
14	78	4
176	178	3
84	86	5
53	54	3
139	158	3
92	93	3
26	27	3
25	35	1
154	166	2
62	75	2
125	126	3
73	74	3
93	107	2
23	35	3
60	90	3
145	173	2
162	167	3
147	172	2
85	86	4
115	153	5
150	152	3
43	44	6
156	156	6
95	96	1
22	24	2
87	116	2
4	7	3
124	125	6
84	84	5
126	127	6
131	142	2
75	80	2
6	9	1
67	75	1
88	89	3
65	67	2
51	52	1
152	152	7
77	78	2
32	64	3
140	153	10
121	122	3
164	164	1
15	20	2
2	6	2
101	114	3
172	174	2
64	66	3
24	32	2
161	161	1
140	151	1
58	59	4
140	154	1
105	105	4
3	83	1
18	19	4
90	91	1
7	22	1
132	134	4
120	121	1
109	109	10
73	73	2
83	99	2
8	10	1
111	112	1
19	37	3
17	40	1
7	71	1
86	87	5
56	58	1
151	152	1
172	172	5
86	88	3
41	57	3
67	74	2
121	121	1
17	33	2
18	23	1
108	158	1
5	9	1
139	141	1
141	159	2
168	173	2
11	13	2
2	18	1
36	42	2
159	162	4
26	28	3
29	31	3
169	169	3
162	163	1
142	143	1
179	180	1
148	149	3
96	97	2
27	29	1
104	125	1
115	118	1
87	115	1
3	115	1
15	35	1
106	106	3
107	109	6
12	14	2
98	98	1
12	15	2
178	179	2
55	58	2
123	150	1
55	59	1
113	114	6
145	177	2
167	173	2
11	19	2
127	128	1
49	49	1
64	149	1
16	30	1
87	114	1
34	37	1
29	30	1
55	57	1
76	78	1
134	136	4
68	73	5
140	160	1
30	45	2
13	16	1
22	23	4
28	43	1
141	158	1
167	174	1
61	65	1
125	127	1
131	172	2
17	31	3
146	174	2
89	91	1
58	73	3
133	149	2
89	127	1
114	114	5
112	122	1
130	130	2
137	139	1
55	131	2
29	45	2
141	167	1
31	33	1
78	94	1
30	62	1
142	168	2
100	103	1
16	18	1
174	175	1
143	170	2
2	7	1
139	142	1
78	90	1
1	2	1
160	163	1
43	45	2
108	112	1
134	135	1
62	63	1
144	154	1
143	144	1
87	103	3
39	42	1
133	134	1
156	159	1
21	40	1
10	23	1
138	139	2
41	42	2
160	173	1
73	85	1
164	168	1
5	79	1
137	171	1
111	113	1
27	43	1
3	4	1
2	81	1
10	14	1
16	39	1
89	90	1
158	163	1
5	12	1
111	156	1
109	127	1
144	146	1
79	80	1
