97	99	7
76	77	9
81	81	11
73	76	5
9	9	14
73	73	10
110	111	8
45	45	26
30	30	12
77	78	1
81	82	2
28	35	3
33	33	13
67	67	8
75	75	27
27	92	3
108	109	4
99	100	1
71	72	2
98	98	11
99	108	1
78	79	4
83	94	6
66	83	3
83	83	24
43	43	17
26	47	5
104	104	9
83	84	8
12	13	5
11	11	15
78	122	2
27	29	2
97	100	1
42	85	5
37	38	6
79	82	2
114	115	6
66	66	29
85	86	6
0	2	5
82	83	2
69	70	2
124	124	4
125	126	2
95	95	8
28	33	3
41	41	5
88	89	1
24	25	10
34	34	23
19	30	1
44	56	1
64	68	5
29	31	6
107	107	7
131	132	4
91	91	9
58	58	14
10	11	6
8	8	9
100	100	5
12	12	6
99	99	5
36	36	9
108	108	1
45	46	2
5	5	10
28	79	2
4	4	4
26	26	7
7	7	11
47	48	4
29	29	30
21	80	2
118	119	1
38	39	2
14	14	2
21	21	13
19	19	10
20	20	9
33	90	1
8	9	5
83	103	4
65	78	3
27	27	12
79	79	11
19	20	1
26	27	4
118	118	2
1	1	4
120	121	8
84	84	5
11	29	1
61	61	21
124	125	6
101	101	15
60	60	8
46	46	19
31	32	3
47	62	1
57	57	14
59	59	8
46	47	2
121	121	11
65	66	6
73	74	10
72	76	4
6	9	1
77	77	5
36	38	2
23	44	1
127	127	6
6	6	8
74	75	1
15	15	12
125	125	11
117	118	3
76	76	8
1	2	3
63	63	9
113	127	2
69	72	3
116	116	7
23	23	9
132	132	15
65	65	13
80	80	7
47	47	39
62	62	8
72	72	15
32	33	7
11	12	7
2	3	3
18	19	2
2	2	14
5	6	7
48	48	19
13	13	6
91	92	3
35	36	6
64	65	3
96	98	4
85	85	5
35	35	17
25	36	1
103	103	5
43	44	7
111	111	8
21	54	2
9	10	11
90	92	2
122	125	4
109	109	9
117	117	11
116	119	4
3	3	9
85	89	5
3	63	3
71	71	10
20	21	8
70	71	4
67	69	2
89	89	2
87	87	1
56	56	6
34	35	5
17	17	5
110	132	3
64	71	5
64	64	7
113	113	8
4	5	4
117	123	4
84	89	1
92	92	9
60	117	4
61	63	2
62	75	1
18	82	4
90	90	11
94	123	2
93	94	3
5	36	2
126	126	8
96	96	10
55	55	5
123	124	2
130	131	1
91	96	4
8	12	3
45	79	2
60	68	1
12	27	1
113	114	2
11	93	2
68	69	6
86	86	5
57	58	7
31	31	5
126	127	2
10	10	15
44	44	4
128	128	3
126	130	4
120	120	9
112	114	2
122	123	5
123	123	7
48	49	5
68	68	6
79	80	4
69	69	8
94	124	3
28	29	11
80	81	5
32	32	14
40	40	7
26	93	3
120	123	1
96	97	2
28	28	5
87	89	3
78	78	18
14	31	2
84	85	1
92	93	3
96	115	1
30	32	2
60	101	4
4	7	3
24	24	4
106	106	2
110	110	2
82	82	7
70	70	6
45	67	1
100	101	3
33	34	1
6	11	2
116	125	6
17	18	3
20	73	2
37	39	2
119	119	3
10	122	2
88	93	1
21	22	4
102	103	3
90	91	5
26	82	4
49	49	5
8	14	3
112	112	9
130	132	2
9	76	4
97	98	3
84	94	4
94	94	8
58	59	2
91	107	1
9	71	1
94	98	2
60	124	1
49	50	1
78	83	1
84	101	1
115	115	3
81	83	1
60	119	4
7	100	2
95	100	3
64	69	1
127	128	5
35	38	1
110	116	1
94	96	2
36	84	3
10	14	2
35	108	1
88	88	8
13	48	1
18	48	1
93	97	3
71	73	3
22	22	2
98	106	4
16	16	8
82	100	6
74	74	2
29	62	1
9	26	1
61	75	2
38	91	2
119	125	1
130	130	4
113	119	1
3	4	1
25	26	1
12	29	2
18	18	4
93	93	8
27	28	2
55	56	2
31	77	6
35	106	1
3	8	1
90	93	2
75	102	1
25	49	1
50	50	1
134	134	5
18	28	1
33	61	2
114	114	2
9	35	1
67	68	1
36	39	3
29	60	1
3	92	1
98	99	2
97	97	6
38	90	2
41	42	1
102	102	3
23	90	1
29	30	3
21	84	3
24	26	2
95	96	2
26	30	1
7	99	1
85	88	1
59	62	4
85	87	2
61	129	1
30	60	3
39	42	3
70	81	1
59	76	1
94	122	1
39	39	1
107	108	5
13	14	4
116	128	1
0	0	5
8	35	2
5	47	1
36	71	2
133	133	4
95	101	1
4	89	2
101	102	4
58	84	1
126	128	1
63	75	3
110	114	3
25	47	1
32	35	2
42	43	2
37	37	4
10	92	2
90	102	1
34	43	1
56	90	1
16	17	1
39	40	3
8	47	3
112	113	5
88	111	2
47	61	3
2	101	1
88	92	1
14	15	1
26	32	1
83	86	1
79	86	2
122	122	1
22	32	1
42	42	6
36	90	1
45	70	1
7	63	1
78	113	1
19	23	2
72	74	1
25	25	2
133	134	1
9	11	1
56	89	2
113	121	1
35	113	1
101	111	1
75	76	1
111	112	2
95	113	1
37	90	1
8	72	1
106	107	1
68	71	1
95	106	1
98	100	1
84	86	2
59	84	2
37	46	1
115	116	1
131	131	2
105	105	1
121	122	1
63	74	1
104	105	1
17	75	1
30	31	1
43	46	1
