31	31	4
81	81	3
133	133	4
44	118	4
137	137	2
127	128	3
7	47	3
17	17	7
15	15	12
95	101	5
119	119	11
70	70	4
129	131	4
47	48	2
150	150	4
120	120	3
55	56	6
85	87	7
64	66	2
78	78	6
100	102	2
11	11	5
87	88	3
25	50	1
53	57	3
8	8	5
81	83	2
111	145	1
10	10	7
47	47	4
18	18	4
37	43	1
23	23	9
49	49	4
84	84	2
124	124	5
64	65	4
3	25	2
22	22	6
18	45	3
110	110	3
39	40	3
41	41	2
42	43	2
129	129	8
5	16	1
98	99	2
28	28	6
77	77	5
97	105	2
144	145	2
126	147	3
26	26	2
34	37	4
140	141	4
142	142	2
74	74	3
136	136	9
128	128	1
82	82	4
3	32	2
51	51	4
68	68	4
25	64	3
46	46	7
24	24	3
132	132	5
95	95	5
134	151	2
63	63	2
56	56	3
32	32	4
91	91	3
94	99	5
79	79	3
27	67	1
54	54	5
99	100	4
25	25	2
76	76	4
136	139	1
3	4	5
78	79	4
35	55	2
13	13	5
15	64	1
97	98	3
8	9	2
44	44	4
90	98	3
4	5	2
11	49	3
44	46	1
92	92	3
78	102	1
16	16	2
9	35	2
12	12	9
66	66	6
131	131	5
140	140	4
38	38	3
8	38	1
34	34	6
3	31	2
41	42	2
48	55	1
7	7	4
21	21	3
72	72	3
44	45	3
42	42	5
96	150	4
111	111	5
39	39	3
78	103	2
14	49	3
132	133	2
86	86	5
34	36	3
30	30	2
69	77	1
151	151	5
3	8	4
26	63	3
74	77	2
136	137	3
103	108	1
92	102	1
136	138	2
10	29	2
49	55	1
67	67	7
147	147	1
28	29	1
135	135	4
30	32	2
37	38	4
35	36	8
71	71	5
136	144	2
43	44	1
3	5	3
136	146	2
7	49	1
68	73	2
88	105	2
63	64	2
56	84	5
5	5	7
87	93	2
75	76	1
62	62	1
42	54	3
99	99	1
65	65	2
27	27	7
136	145	2
101	101	1
70	72	2
64	74	3
114	114	2
65	79	7
116	116	7
29	134	2
20	21	2
27	63	2
93	93	4
22	23	2
4	4	2
43	43	2
45	53	1
23	74	1
85	92	1
17	46	1
10	11	5
9	10	1
37	37	5
31	133	2
5	33	1
95	97	2
121	121	5
14	62	1
115	115	1
31	48	2
94	97	2
130	131	2
130	142	1
18	19	2
20	20	3
19	45	2
62	76	3
6	6	2
64	78	3
49	50	1
69	69	2
80	82	2
123	123	3
4	31	2
75	75	1
113	113	2
103	113	1
45	45	2
53	53	4
85	85	1
36	36	4
8	11	2
67	77	1
70	96	1
141	141	2
126	126	6
28	63	1
94	94	2
17	18	2
100	148	1
4	9	3
130	130	1
73	77	2
106	114	1
71	77	2
154	154	1
77	79	3
113	116	1
12	21	1
97	97	2
103	104	1
13	44	1
81	82	2
26	27	2
85	111	2
148	149	1
134	134	1
9	9	2
80	85	1
12	20	2
99	105	1
109	109	1
113	117	2
85	86	1
47	55	1
57	57	4
94	95	2
5	27	1
62	80	1
67	97	2
98	98	1
88	95	1
121	146	2
141	142	2
6	10	1
43	45	1
48	49	1
101	102	2
50	50	1
11	20	1
34	35	3
68	77	2
105	105	1
103	103	1
63	82	1
126	127	1
12	68	1
50	51	1
101	148	1
35	37	2
16	18	1
144	144	2
77	78	1
94	137	1
80	115	1
56	82	1
85	116	1
64	64	1
120	133	1
148	148	2
67	80	1
70	95	1
125	125	1
29	39	1
97	99	2
107	107	1
67	86	1
90	92	1
149	149	1
28	33	1
78	113	1
143	144	1
128	130	1
55	55	1
102	102	1
73	76	1
4	32	1
70	71	1
94	144	1
121	144	1
5	22	1
118	118	1
29	29	1
41	43	1
95	99	1
65	66	1
