33	67	1
39	40	4
43	74	1
70	71	14
1	1	40
61	61	55
80	80	35
48	48	31
12	12	46
65	66	3
40	40	26
63	71	4
74	75	14
15	15	27
37	37	39
59	64	3
28	28	57
39	39	26
15	65	3
20	31	1
65	65	46
58	59	21
56	56	43
21	22	5
63	68	2
58	58	47
10	12	11
50	50	27
46	47	9
27	76	9
67	67	35
41	41	49
2	4	3
19	21	4
5	11	8
49	61	1
17	17	59
26	47	5
2	2	31
33	33	32
26	26	64
53	53	28
35	35	45
53	54	19
68	68	40
70	70	29
25	26	10
5	5	41
6	6	40
52	52	42
72	75	4
51	51	39
15	16	2
49	51	11
10	10	23
54	54	47
13	13	45
12	13	9
42	42	42
27	28	14
11	11	39
66	71	2
5	13	3
0	2	3
54	56	2
74	74	46
71	71	36
79	79	33
5	8	3
67	68	15
14	14	22
50	53	3
47	47	42
55	55	27
71	72	10
49	50	10
62	63	7
60	60	28
26	33	1
56	57	19
57	57	40
57	65	5
16	16	23
0	0	33
21	21	31
78	78	51
33	34	11
28	39	4
19	19	31
33	38	4
66	66	63
4	4	42
27	29	6
16	75	4
51	52	9
11	12	19
6	74	3
7	8	16
62	62	35
36	36	38
35	38	1
46	46	46
6	11	1
2	5	6
7	7	72
64	65	15
73	73	40
9	12	5
10	11	21
26	27	11
59	59	61
50	51	9
45	45	56
42	62	4
16	64	8
30	30	18
53	55	3
49	49	40
58	60	6
37	41	5
67	70	8
8	8	29
11	13	2
63	63	52
70	73	4
75	76	11
77	78	6
32	32	16
0	13	2
13	14	13
65	69	2
60	61	33
37	40	3
47	62	2
75	75	45
51	63	4
38	38	47
8	75	3
70	72	5
72	72	48
3	8	5
56	62	1
2	3	28
43	43	27
20	21	6
3	39	4
19	48	7
6	72	1
62	66	4
3	5	2
9	9	28
76	76	40
32	33	14
29	29	29
22	22	4
69	69	31
25	25	16
52	64	1
2	49	3
33	48	2
59	61	5
63	78	1
1	4	4
76	78	9
18	18	26
31	31	27
8	9	9
36	40	2
37	48	3
27	27	41
38	39	24
48	55	5
69	70	18
4	19	7
68	69	9
26	40	2
12	16	1
42	78	1
57	58	2
73	75	2
13	63	2
42	47	5
49	52	3
34	34	10
66	67	6
11	21	2
21	31	2
2	18	2
65	73	2
3	4	9
59	66	6
17	49	1
29	48	6
29	33	1
63	69	3
64	64	32
66	69	5
6	9	3
80	81	5
3	26	2
75	77	7
37	38	15
52	68	5
41	42	10
68	70	11
28	36	2
54	55	15
51	53	9
5	6	14
33	71	4
37	42	2
56	61	1
6	75	5
9	35	5
28	30	2
61	73	2
6	76	3
25	68	2
35	73	2
35	36	5
43	79	1
8	16	4
42	43	4
73	74	6
12	14	3
5	25	3
73	78	1
7	9	3
7	19	3
46	62	6
44	45	3
29	30	11
74	76	3
63	64	13
0	17	2
48	64	1
3	6	4
55	56	18
25	48	3
45	47	10
31	69	2
20	54	1
6	7	8
3	3	19
9	10	10
71	77	1
64	67	8
42	61	2
40	41	9
20	70	2
76	77	11
15	64	2
32	34	2
59	60	5
47	64	3
14	15	4
28	29	2
10	19	2
5	14	4
16	17	4
20	20	11
61	62	1
7	75	5
26	48	4
46	72	2
25	49	2
69	71	3
52	63	2
66	76	2
78	79	2
37	61	1
8	42	2
31	33	3
43	47	1
12	65	2
39	72	1
3	21	2
32	52	2
58	61	4
8	10	3
40	43	3
26	61	2
1	35	1
81	81	3
26	67	3
0	7	1
0	6	2
0	19	1
4	5	5
30	42	3
2	48	1
45	46	5
65	71	1
4	79	2
11	32	2
11	76	1
27	48	4
35	49	2
40	42	2
47	49	4
0	42	1
10	15	2
12	15	1
45	54	1
42	64	1
42	59	2
25	80	1
57	61	3
49	72	4
50	52	8
38	48	1
3	73	1
30	70	2
9	16	2
11	16	1
30	39	3
6	10	3
0	15	2
50	72	1
8	13	2
19	20	2
27	39	4
47	48	15
45	56	3
16	18	4
27	57	4
4	40	2
55	63	2
68	72	1
33	39	3
17	57	2
10	13	3
18	73	2
67	69	5
25	30	4
36	48	7
61	67	3
7	38	4
27	40	4
1	2	4
13	15	1
70	75	2
72	73	4
28	72	1
44	44	4
30	31	5
78	80	3
28	37	1
77	77	11
41	46	1
43	50	2
36	37	10
36	71	2
71	75	1
18	80	1
48	73	1
57	60	4
11	57	1
48	66	1
52	53	5
51	68	3
31	71	1
4	39	1
11	20	1
31	34	2
30	33	5
49	76	2
13	65	2
30	41	2
26	78	1
3	72	6
14	53	1
27	49	1
48	58	3
3	15	1
2	20	3
0	1	4
64	74	2
39	46	3
22	63	1
38	74	2
3	19	3
36	79	1
20	30	1
51	72	1
48	49	2
45	79	1
41	74	1
17	18	2
45	48	1
34	80	1
12	21	1
25	53	1
52	69	1
16	67	1
63	70	3
7	35	2
65	70	1
14	20	4
20	25	1
5	7	1
60	73	1
48	53	3
67	71	1
43	73	2
37	39	2
4	9	6
5	9	3
41	57	1
26	43	1
73	79	1
54	71	1
53	64	2
43	61	1
9	46	1
50	71	1
6	31	1
48	51	1
8	11	1
1	48	1
27	32	1
29	77	1
36	58	3
55	67	2
7	78	1
68	71	1
26	30	1
17	20	2
31	32	3
64	71	1
21	58	2
55	66	1
12	49	3
56	63	1
62	77	1
14	19	2
7	53	2
49	59	1
9	76	1
31	52	1
2	31	1
11	19	2
56	78	2
45	72	1
79	80	2
25	34	2
1	49	1
6	17	3
42	57	1
49	53	2
34	37	1
45	74	1
41	47	1
62	79	1
32	79	1
71	73	1
5	12	1
54	63	1
10	35	1
17	71	1
19	26	1
37	47	1
17	48	1
33	64	1
28	75	1
35	56	1
56	67	2
16	59	1
31	35	1
1	8	1
38	58	1
8	12	1
56	68	1
28	46	1
33	35	2
8	17	1
27	42	1
15	17	1
18	19	1
77	80	1
54	69	1
9	15	1
60	74	1
0	3	1
62	75	1
31	72	1
13	49	1
12	33	1
64	75	1
3	10	1
11	14	1
