46	46	13
42	42	4
94	94	9
88	89	4
125	143	2
9	10	10
121	121	11
34	34	7
138	138	9
154	154	6
52	52	21
79	79	15
87	120	4
115	117	2
6	6	5
145	157	2
93	93	18
151	151	14
27	27	6
42	43	3
122	123	1
129	151	3
70	70	8
23	24	5
82	82	1
84	86	4
39	40	3
14	15	3
103	103	8
98	98	4
129	129	4
101	115	5
115	130	4
56	56	9
118	150	3
97	97	9
111	146	5
14	119	1
100	100	10
48	67	3
77	78	3
134	134	6
127	131	1
55	55	3
101	113	1
153	153	4
132	133	2
111	111	2
110	111	2
72	72	8
47	47	6
9	9	13
28	28	12
128	130	7
108	111	5
42	66	1
105	127	1
140	140	2
83	84	6
65	99	4
136	138	2
83	93	2
11	31	1
1	2	5
117	117	1
150	150	2
87	87	6
55	89	3
5	5	9
30	158	4
116	140	2
69	69	7
20	20	9
117	122	3
34	35	6
40	43	9
156	156	10
7	7	5
135	135	10
62	64	2
149	149	9
155	155	3
131	132	5
117	140	2
139	139	5
18	51	3
127	127	7
33	33	5
4	4	8
142	142	8
116	117	5
134	156	5
2	2	10
129	152	1
91	108	2
114	126	2
157	157	5
139	144	5
68	68	7
84	132	2
18	54	1
78	79	1
154	156	1
76	77	1
128	128	10
108	109	4
126	126	7
29	153	4
19	19	5
33	35	5
25	25	5
25	28	3
21	32	1
144	144	1
83	83	4
26	26	2
141	141	2
108	108	5
131	136	2
114	114	3
24	24	4
16	17	3
39	70	2
53	117	2
37	71	3
98	107	1
11	17	1
148	155	2
115	115	15
150	151	6
7	8	5
75	75	9
129	130	2
48	48	6
158	158	2
88	88	8
49	68	6
38	55	1
133	138	3
12	13	3
102	102	5
120	120	7
145	145	4
10	10	3
124	125	2
104	104	1
141	142	2
33	34	5
82	85	1
21	48	2
85	85	5
40	50	3
116	116	2
147	148	3
57	57	9
115	116	10
146	150	2
25	52	2
49	54	2
73	99	1
106	106	5
78	78	4
4	39	1
148	148	13
87	122	3
92	92	5
0	0	5
89	89	4
146	146	9
21	25	5
37	39	2
43	43	1
31	31	4
54	54	3
135	137	2
29	30	1
114	152	1
150	153	1
73	73	7
14	14	2
131	131	4
106	107	4
40	41	2
83	85	3
81	96	3
16	16	11
32	32	11
108	110	1
132	132	2
67	68	2
77	77	7
80	80	5
113	113	6
96	96	5
96	104	1
137	138	10
79	96	3
121	133	1
13	14	2
67	69	5
107	108	2
123	123	2
1	1	9
119	121	4
36	43	2
103	104	1
133	133	4
3	7	5
13	16	5
48	50	6
49	49	1
107	141	3
56	57	5
95	95	1
148	150	2
34	39	2
15	15	1
86	86	4
31	32	2
39	39	3
67	70	3
17	27	1
64	64	6
57	61	1
27	94	2
128	151	2
39	53	2
105	105	3
66	67	4
22	22	4
84	99	2
36	38	2
50	51	1
120	121	4
93	94	3
6	29	1
123	124	3
155	156	2
131	133	3
133	158	4
118	142	1
49	66	3
145	146	4
19	21	1
28	32	1
53	53	4
68	70	1
19	20	2
126	155	2
143	143	1
125	125	3
37	37	8
39	51	1
15	29	1
86	87	4
21	29	1
48	51	1
8	8	3
130	131	4
18	92	1
21	49	1
26	29	2
8	9	1
113	153	2
139	140	1
12	17	1
26	90	1
148	156	2
3	3	8
130	133	1
17	17	9
147	154	2
145	153	2
133	142	1
79	80	2
35	35	2
32	44	3
116	130	1
32	126	3
27	36	1
88	124	1
45	98	1
30	30	3
15	28	2
109	110	4
53	54	3
147	153	3
113	114	1
125	126	1
94	95	4
77	82	1
84	133	2
51	51	1
111	112	3
112	112	3
5	7	3
119	119	5
38	48	1
41	43	5
66	71	1
30	156	3
23	48	3
109	109	1
146	147	3
64	70	1
35	43	5
71	72	2
96	103	2
32	130	1
78	121	1
134	135	2
65	65	2
24	29	4
147	147	1
16	19	1
26	44	1
130	157	1
63	63	1
81	81	5
99	101	5
11	11	4
29	29	3
68	69	2
91	91	2
153	154	1
118	154	1
25	68	4
33	39	2
62	62	1
75	107	1
136	136	4
118	119	2
99	99	3
43	44	3
26	27	3
101	101	5
108	151	1
100	101	1
131	138	2
24	25	2
10	68	2
63	64	1
98	99	1
7	10	2
3	4	1
123	133	1
118	141	1
123	127	1
65	81	2
124	124	2
103	114	1
12	15	1
9	11	1
101	129	1
91	107	1
137	137	4
147	149	2
31	52	2
8	20	2
116	148	1
133	135	3
130	130	2
128	129	2
131	157	1
15	16	3
75	81	3
45	45	3
22	103	1
51	90	1
149	150	3
30	152	1
24	28	3
51	52	1
39	71	1
19	25	1
110	139	2
55	57	1
6	17	1
72	82	1
38	39	2
126	154	2
30	159	1
40	42	1
93	111	2
117	121	1
127	152	1
122	122	1
105	106	2
132	140	2
44	44	1
49	89	1
21	21	3
32	49	1
89	92	1
36	39	1
36	36	2
107	107	1
47	71	2
4	21	2
127	128	1
132	138	2
68	71	1
23	23	1
23	25	1
142	154	1
125	156	1
66	69	1
18	19	1
130	132	1
43	45	1
33	38	1
112	115	1
152	152	1
112	125	1
134	137	1
22	30	1
124	126	2
