3	5	3
110	110	9
117	118	3
33	33	7
125	125	11
50	52	1
124	124	9
93	95	2
32	32	7
111	112	3
17	17	13
102	102	5
1	2	5
82	84	6
119	119	9
11	12	5
96	96	9
116	116	8
71	71	9
85	102	1
51	52	1
102	103	3
62	62	2
81	117	3
107	108	6
57	57	13
30	30	13
128	128	9
21	21	8
118	118	9
19	19	21
0	0	7
87	87	8
14	14	11
29	29	1
40	42	6
72	83	2
57	78	2
92	92	8
94	94	8
96	97	1
49	49	10
58	65	2
31	31	1
88	88	3
78	78	6
47	48	2
113	113	21
114	131	2
29	30	1
105	109	5
98	98	10
104	112	2
109	110	1
51	51	5
23	41	1
56	56	16
122	122	5
18	21	1
14	17	5
46	46	14
111	111	14
77	78	4
64	64	2
83	84	2
39	40	3
118	119	5
0	1	6
26	26	5
6	26	1
65	70	1
52	52	23
85	132	4
109	121	1
121	121	16
78	90	2
85	87	4
65	65	6
113	121	1
91	96	5
80	80	7
40	40	2
94	95	5
48	48	5
112	112	11
106	107	1
68	70	7
102	117	1
117	117	13
4	4	9
51	55	1
100	102	3
9	9	8
120	132	4
80	81	3
78	80	1
75	75	3
82	82	3
115	118	2
47	47	13
133	133	2
109	109	5
103	124	1
65	67	2
45	45	7
129	130	6
12	12	3
126	128	1
16	17	1
54	54	20
5	7	1
1	1	14
106	109	1
72	72	4
101	101	10
99	99	5
60	61	4
64	65	8
84	84	4
95	95	5
131	132	7
13	13	4
120	121	2
55	55	9
101	102	3
63	63	2
79	80	5
105	106	3
18	18	7
39	48	1
67	68	3
20	20	15
22	24	1
11	11	3
65	66	4
50	50	14
108	108	9
91	91	2
109	114	2
114	114	13
58	63	1
83	83	3
19	20	1
123	123	3
129	129	6
16	16	8
50	51	1
72	73	1
48	52	1
40	54	3
23	23	4
43	44	2
67	69	2
16	41	1
27	27	6
117	119	4
81	82	3
77	77	3
6	12	1
38	39	3
80	106	1
43	54	4
85	85	8
78	102	1
84	85	3
53	54	2
85	100	3
81	124	1
26	27	1
100	100	9
105	125	1
67	67	5
85	86	1
6	6	5
5	5	8
22	23	6
58	58	3
105	105	5
53	53	8
10	10	4
120	120	9
13	14	3
6	7	1
131	131	5
105	116	1
93	105	1
34	34	2
25	25	2
42	42	1
69	69	2
103	103	3
120	124	2
17	18	3
39	41	1
99	100	5
126	127	4
79	82	1
24	24	10
109	124	2
3	3	1
68	69	1
52	53	5
130	130	2
9	22	3
97	98	2
53	74	2
2	2	4
96	128	3
115	115	2
73	74	2
85	128	1
61	62	3
5	6	9
44	44	3
13	17	1
121	131	2
3	8	2
81	81	8
81	119	1
55	56	3
7	9	3
2	5	3
15	17	2
12	20	1
88	90	1
132	132	4
121	122	1
106	114	3
85	92	1
3	4	3
76	76	7
122	133	2
62	63	3
66	67	2
104	131	5
106	106	4
124	125	3
123	124	1
46	68	2
113	114	2
32	123	1
61	61	8
125	130	1
102	113	2
68	68	2
10	13	1
105	113	2
49	50	1
85	120	1
126	126	5
127	127	1
132	133	1
74	74	1
48	50	2
102	115	1
12	46	1
60	68	1
1	8	1
59	59	2
42	44	3
7	7	5
103	117	1
80	103	1
98	107	1
20	27	2
41	42	6
43	43	5
14	16	2
15	15	2
81	118	1
14	15	2
70	70	3
47	55	2
104	105	2
89	89	5
20	21	1
101	114	2
66	70	1
23	25	3
86	86	3
13	15	3
45	46	1
45	72	2
108	118	2
57	58	1
71	72	2
33	39	1
98	99	1
28	28	1
70	71	1
108	113	1
25	26	1
46	47	1
95	96	1
105	132	1
86	89	1
48	51	1
104	104	4
8	8	5
79	79	1
30	31	1
65	89	2
3	7	3
84	100	1
9	10	1
91	97	1
22	22	1
86	106	1
74	76	1
116	117	1
101	103	2
62	121	1
110	112	1
62	67	1
65	77	2
40	41	3
104	124	1
44	45	2
112	118	1
93	98	2
81	85	1
39	39	1
107	107	2
38	38	1
14	46	1
24	25	1
66	66	1
97	99	1
2	4	1
90	91	1
69	72	1
105	112	1
62	66	1
13	23	1
97	97	1
7	8	1
84	118	1
13	22	1
