134	135	7
16	16	27
66	68	7
212	212	10
79	79	7
1	1	10
68	68	7
223	223	12
101	101	8
207	208	4
28	29	3
8	8	6
204	204	11
28	28	28
78	79	4
198	199	3
219	219	9
18	49	4
66	66	10
133	134	3
223	224	1
209	210	6
183	183	10
64	64	20
63	63	16
6	6	8
187	193	2
137	138	5
141	141	3
74	79	4
102	103	4
2	34	4
18	31	1
163	163	5
205	205	9
225	225	15
216	216	17
4	4	14
55	61	1
148	148	8
73	73	15
2	2	14
172	173	4
105	188	4
18	166	2
145	145	6
97	97	4
47	47	14
165	165	9
226	227	7
106	154	1
55	55	21
14	15	5
52	150	3
194	194	5
21	23	6
27	240	4
65	66	10
152	152	10
9	19	2
221	221	8
181	181	11
221	223	1
151	151	9
11	16	7
170	176	1
159	168	5
2	3	4
77	77	11
9	9	8
61	61	11
200	200	5
84	84	15
115	116	6
100	101	7
214	214	12
80	80	11
69	69	22
144	146	1
16	17	11
211	211	8
139	139	5
88	89	3
12	12	28
136	136	6
48	61	2
85	86	5
71	71	8
88	88	8
109	109	8
10	43	2
74	74	17
69	70	12
157	158	4
34	35	6
62	62	11
187	189	4
174	174	9
18	18	11
15	16	1
159	176	4
129	129	7
26	26	17
58	58	13
107	107	7
192	192	7
169	169	13
14	14	14
33	34	1
227	228	4
232	232	7
155	156	7
226	226	8
126	128	1
120	151	3
52	52	17
134	134	6
215	216	3
160	161	2
236	237	7
19	19	18
81	81	17
123	124	1
225	226	4
72	73	6
21	22	7
40	154	3
119	119	9
180	181	5
105	134	2
27	27	8
43	52	2
146	146	10
99	99	14
179	179	7
216	224	4
202	204	4
115	115	8
107	108	3
175	175	4
76	116	2
117	117	12
137	137	14
118	132	3
32	33	4
24	207	7
140	140	10
112	112	2
21	21	15
126	126	14
43	174	2
159	159	7
191	205	1
3	3	5
13	13	9
201	201	11
191	191	13
3	24	1
133	133	9
22	31	5
20	20	17
101	120	3
26	240	3
80	81	11
4	34	3
41	41	10
32	35	3
120	153	1
31	31	30
32	32	15
18	20	4
128	128	12
25	25	19
17	17	14
237	238	5
173	173	9
83	84	9
166	166	13
166	167	3
186	187	9
49	50	3
19	20	4
51	51	12
0	0	12
50	51	5
67	68	5
35	35	14
121	121	8
130	130	6
7	8	7
85	121	4
70	71	7
183	185	2
31	34	2
116	116	3
103	103	16
96	96	11
50	57	3
33	33	9
9	10	4
10	162	2
167	168	3
142	142	10
44	44	3
39	47	2
150	150	8
57	57	15
124	124	8
188	188	7
19	30	1
16	18	1
213	216	6
40	133	3
75	75	9
66	67	11
115	117	4
218	218	4
133	137	2
65	65	11
176	176	7
13	14	14
161	161	10
178	178	8
229	229	3
54	54	13
156	156	4
67	227	4
43	43	18
233	233	8
172	191	2
10	10	24
106	106	10
23	23	13
186	186	10
60	60	14
179	184	2
125	125	12
38	39	2
155	155	4
208	208	5
0	7	2
86	86	6
184	184	4
0	165	1
109	110	3
5	5	13
160	162	3
174	239	3
198	200	5
102	106	4
192	207	3
76	76	10
49	49	12
54	55	6
199	199	5
75	79	3
168	168	3
64	73	5
40	42	6
50	50	13
57	74	2
29	29	13
232	237	1
23	31	4
171	176	1
235	235	7
95	95	2
59	59	13
212	213	8
12	13	4
11	11	21
83	83	12
116	118	1
70	86	2
48	49	11
193	193	8
138	138	2
27	45	1
185	185	5
70	70	8
198	198	7
11	42	1
228	228	8
18	19	6
221	227	1
111	143	2
37	37	12
108	108	11
123	123	12
237	237	4
82	82	11
192	194	2
208	211	3
30	31	5
113	113	10
71	190	2
209	209	6
144	145	4
224	225	3
4	6	3
197	202	2
166	217	3
38	38	9
29	30	6
195	195	6
5	49	1
149	173	2
44	208	5
96	127	2
20	212	2
8	180	1
132	132	5
220	220	4
27	28	2
104	104	13
210	210	6
167	167	12
34	34	14
78	81	2
40	40	13
28	231	3
81	82	2
189	190	3
220	222	1
116	120	2
115	155	1
74	102	3
192	197	5
115	121	3
146	147	7
214	215	1
77	80	2
152	174	1
114	114	1
143	143	9
49	51	3
111	111	9
164	165	8
20	23	4
2	178	6
41	154	5
78	78	5
3	7	2
89	100	2
120	190	3
67	67	12
66	80	5
66	95	5
121	151	2
23	209	3
153	153	3
10	11	3
193	194	3
46	46	4
65	80	3
162	162	5
159	165	2
150	151	4
58	83	2
114	117	1
114	116	4
154	154	11
27	177	1
45	45	11
155	171	3
101	135	2
1	7	4
100	100	5
163	164	1
185	186	3
64	65	7
162	163	2
104	105	4
101	103	1
161	238	1
141	152	6
164	164	4
197	197	3
101	105	2
173	185	3
8	9	2
184	185	5
58	59	1
6	7	2
238	238	4
161	236	3
98	98	15
39	155	4
48	48	10
217	218	8
127	128	1
53	55	2
59	61	1
3	34	3
204	208	1
60	61	1
168	169	3
23	48	3
135	135	4
102	102	11
202	202	8
26	27	3
39	39	10
160	160	3
194	195	1
24	32	7
124	125	3
190	190	6
59	60	6
49	76	1
147	147	3
199	200	2
24	24	2
178	206	1
15	15	9
222	222	5
234	234	4
96	97	3
139	140	3
57	60	2
165	167	2
208	227	3
196	196	4
138	144	1
58	238	5
50	76	1
4	7	4
84	123	1
78	176	1
75	76	3
37	38	7
85	85	6
161	169	1
103	104	4
110	126	2
42	55	3
36	36	13
242	242	11
131	131	1
23	182	1
20	165	4
21	67	2
75	80	3
2	7	2
129	186	1
1	3	5
20	21	3
99	103	2
167	175	2
40	41	1
22	22	7
239	239	11
166	169	4
72	72	9
167	169	4
85	141	1
156	157	1
149	150	7
22	30	2
213	213	4
4	5	3
46	54	1
224	224	4
73	74	4
149	149	4
25	132	2
217	217	10
23	193	1
1	4	2
3	4	1
119	120	4
132	189	2
46	62	3
177	179	1
207	241	1
69	239	1
30	30	5
3	11	1
154	190	3
29	31	2
34	36	4
46	47	3
80	84	1
65	67	4
170	170	3
7	7	4
177	177	3
24	38	2
240	240	5
39	42	3
126	134	2
58	60	6
117	143	1
63	73	2
98	100	1
53	53	10
24	241	1
197	218	1
24	47	3
144	144	4
42	42	7
197	198	2
180	180	4
110	110	9
41	42	2
222	223	2
51	53	5
56	58	2
138	139	1
145	147	6
181	182	1
129	169	1
12	15	1
25	134	1
158	159	1
44	207	4
56	56	13
232	233	1
22	66	2
20	209	1
160	165	1
154	169	2
151	152	2
127	127	4
71	72	3
230	235	2
133	136	5
99	101	3
171	171	4
62	81	1
47	206	1
233	234	3
188	195	1
162	171	4
116	119	2
187	198	2
157	157	3
41	106	2
71	183	1
107	109	1
123	136	1
69	191	2
218	219	7
1	2	5
43	54	2
119	150	1
18	30	1
143	145	2
158	163	2
21	48	3
130	186	3
227	227	3
230	231	1
36	60	2
238	239	1
230	230	7
152	175	2
148	149	5
106	108	5
1	6	1
80	184	3
88	120	1
103	141	3
203	205	1
51	140	1
57	58	2
30	33	3
172	172	6
87	88	1
30	34	1
24	64	5
61	62	3
187	187	8
183	231	2
208	210	1
166	209	4
64	238	1
76	139	1
52	53	1
188	189	1
127	134	4
57	139	2
32	68	1
2	8	3
22	211	1
170	171	4
182	182	4
174	177	1
1	9	8
235	236	2
75	78	3
74	76	1
196	201	1
158	158	4
15	19	2
42	53	3
152	156	1
7	9	1
91	91	2
145	146	4
213	214	2
26	129	2
53	97	6
96	125	1
206	206	2
2	12	1
64	66	1
75	100	1
130	131	2
70	73	3
29	129	3
199	211	1
68	69	2
37	97	1
56	57	2
37	85	3
202	203	1
29	230	1
41	46	1
3	32	3
69	205	2
101	104	2
233	236	1
102	105	4
82	84	5
53	54	3
241	242	1
236	236	7
37	64	2
12	16	3
65	235	3
55	56	4
138	188	2
24	63	2
125	126	3
79	81	1
47	48	1
48	88	1
15	28	1
40	108	1
24	88	3
101	137	1
135	207	1
42	45	3
159	160	1
122	133	2
43	142	1
113	118	1
155	226	2
158	169	1
112	113	1
25	242	2
76	77	3
20	166	1
191	192	2
1	33	1
123	140	2
1	164	2
159	167	5
20	31	3
6	36	1
134	136	2
174	241	2
241	241	3
201	204	1
215	215	2
48	50	1
51	52	2
181	185	1
153	154	4
188	194	1
175	240	1
207	207	1
50	53	1
68	231	2
234	235	3
45	46	3
43	238	3
197	219	1
73	86	1
136	137	1
108	109	1
100	105	1
141	142	2
161	162	2
68	84	1
61	75	1
43	239	1
189	189	1
187	188	1
112	122	2
61	72	1
203	203	1
10	163	1
39	158	2
80	115	1
3	5	3
117	118	2
219	220	1
166	200	1
43	45	1
100	133	1
88	102	3
24	25	2
192	193	1
106	107	1
95	102	2
52	74	1
195	196	2
32	37	1
118	118	2
191	201	1
71	231	1
142	143	2
186	190	1
21	88	1
9	15	1
152	157	2
105	105	3
28	85	1
11	12	1
77	78	2
122	122	1
13	15	1
21	32	1
109	129	1
107	154	1
129	130	1
178	179	1
232	235	1
190	191	2
158	170	1
199	204	1
212	216	1
145	238	1
40	100	1
23	34	1
113	114	1
79	100	1
129	187	1
97	135	1
221	222	2
231	231	2
50	59	2
77	176	1
103	119	1
177	182	1
100	104	1
205	206	1
97	98	1
192	201	1
18	158	1
76	80	1
103	135	1
59	67	1
45	241	1
228	230	1
118	122	1
71	85	1
35	36	1
64	72	1
63	141	1
184	186	1
38	47	1
38	236	1
15	30	1
47	54	1
11	39	1
170	177	1
49	52	1
114	115	1
27	202	1
95	100	1
105	106	2
46	71	1
65	236	1
76	106	1
152	153	1
36	64	1
220	228	2
114	121	1
203	204	1
21	36	1
78	115	1
61	63	1
63	64	1
47	69	1
