141	141	9
140	140	30
62	92	3
131	131	13
40	40	10
135	135	24
26	61	2
97	97	13
120	120	16
40	104	3
95	125	5
33	71	1
63	91	4
126	126	25
28	29	6
58	59	2
6	10	1
145	145	13
25	26	11
130	135	1
110	110	8
50	50	10
103	142	4
143	144	4
132	133	4
130	130	14
84	85	9
79	79	4
67	68	17
138	138	14
24	24	6
63	63	5
90	90	5
144	144	13
125	140	1
141	142	5
59	60	8
27	28	4
121	121	16
20	20	12
24	25	2
67	72	3
9	10	6
87	93	1
48	58	2
118	119	17
30	67	3
115	116	4
27	30	6
79	80	4
2	5	5
17	19	5
114	115	2
9	9	18
65	65	8
66	66	11
62	62	6
98	98	14
125	126	2
65	66	11
15	138	2
62	63	4
123	123	21
129	129	9
66	90	2
0	1	4
59	66	10
109	109	3
29	29	28
16	124	4
0	0	11
36	38	5
93	93	1
133	140	3
3	4	2
125	125	15
38	39	8
90	95	5
32	49	2
54	54	13
94	94	11
70	70	11
71	71	3
37	37	11
127	127	7
132	132	18
75	75	7
4	4	7
4	12	4
6	72	3
119	120	8
137	138	8
72	72	2
85	85	13
90	91	11
134	134	23
105	105	6
80	80	20
30	30	12
27	29	3
108	108	4
139	139	13
58	102	2
56	57	1
11	11	11
1	1	15
2	19	3
119	119	21
28	28	11
133	134	8
115	115	3
22	22	9
25	25	6
102	103	4
103	103	15
61	61	5
8	37	2
29	30	5
107	107	11
34	35	3
67	67	13
76	97	2
52	52	3
17	17	9
47	47	3
0	6	6
117	123	3
64	92	2
129	131	4
53	54	7
36	36	18
6	74	2
129	130	3
42	43	3
101	128	3
35	35	14
89	89	7
91	91	8
38	41	6
18	18	4
64	68	2
43	43	4
10	10	10
104	105	5
131	133	2
19	19	12
60	100	2
58	58	9
96	96	7
38	87	3
16	16	18
99	100	4
48	49	9
81	81	15
23	23	11
142	142	12
76	76	4
70	71	1
121	128	1
106	108	5
134	139	2
48	50	2
84	84	2
74	74	6
39	40	7
100	100	3
51	52	3
79	81	1
101	102	2
74	76	2
131	132	5
128	128	11
27	27	12
32	32	7
50	52	3
37	102	1
143	143	16
118	118	4
19	26	1
127	128	5
16	17	1
108	125	2
128	129	11
15	15	4
104	130	2
95	102	3
21	21	7
126	134	4
51	63	1
121	122	4
53	53	9
13	13	4
37	80	2
83	86	4
131	134	3
17	18	6
94	105	4
6	6	13
31	31	14
42	79	1
41	41	9
107	109	3
104	108	3
113	116	1
99	101	5
8	8	10
5	6	4
88	89	5
101	101	13
22	29	6
127	130	4
39	39	7
49	49	14
104	104	15
95	96	2
128	130	6
99	99	6
75	78	4
107	108	2
36	37	8
97	111	2
28	30	4
41	101	1
2	14	2
102	112	6
102	102	7
117	118	4
68	68	3
64	65	1
22	23	12
124	125	3
142	144	7
64	64	10
12	13	3
93	94	7
66	68	2
117	117	3
94	95	2
59	59	3
130	144	3
97	98	1
95	124	1
38	38	13
92	92	3
136	137	4
68	71	4
88	92	1
111	111	2
30	124	2
30	31	4
129	139	1
69	69	4
133	135	5
96	114	4
106	123	1
140	141	2
20	74	1
74	78	4
69	70	5
74	85	2
124	144	3
137	137	2
99	102	5
126	130	1
14	82	3
98	101	1
96	98	6
28	42	2
55	55	6
88	93	4
18	24	1
71	85	3
118	140	2
105	108	1
60	60	5
135	137	3
138	141	1
133	133	19
14	14	3
76	77	5
35	43	2
98	111	2
60	102	2
41	50	2
98	126	2
51	51	5
42	42	9
95	129	2
142	143	4
104	119	2
128	132	1
77	77	7
116	117	2
120	123	3
14	16	7
1	61	4
125	129	5
43	47	1
71	73	2
5	5	7
48	48	10
35	37	2
123	126	1
26	70	2
85	86	3
95	95	8
108	109	2
78	78	1
105	137	4
118	120	5
25	70	2
22	28	2
125	127	3
21	144	1
63	64	2
145	146	3
130	131	4
27	68	1
26	27	2
125	138	1
89	90	3
98	114	2
97	110	1
6	21	3
12	12	3
39	109	5
73	86	2
20	72	2
39	41	3
126	127	9
131	142	2
94	98	2
3	3	1
28	43	1
135	142	1
122	123	6
73	74	4
96	129	1
8	9	2
56	56	5
82	83	2
69	72	1
4	5	3
116	116	4
87	89	2
123	145	2
41	42	2
99	121	1
68	87	4
108	141	3
122	141	1
117	119	4
30	41	1
47	66	2
97	125	2
67	70	3
122	122	1
32	42	2
89	95	3
57	112	1
62	64	1
21	23	1
118	139	1
96	97	3
48	103	1
83	84	3
11	17	1
52	53	3
96	108	1
119	125	3
17	75	2
91	93	2
112	112	2
109	110	2
21	25	1
87	88	1
78	79	1
31	32	4
23	132	1
112	115	2
124	124	5
146	146	2
50	51	1
130	133	2
102	142	2
108	110	4
64	67	1
54	55	2
22	30	1
23	24	3
122	124	1
73	79	1
58	60	2
98	99	2
70	87	2
113	114	1
139	140	2
83	83	2
10	21	1
118	133	1
58	65	1
27	62	1
18	19	1
13	14	1
133	139	2
119	121	1
64	99	1
114	114	1
34	37	2
117	130	1
15	17	1
93	95	2
81	87	2
2	6	1
134	135	2
81	82	1
82	82	1
66	67	1
67	69	1
137	139	1
105	106	4
58	115	1
39	104	2
73	75	1
86	86	1
10	11	1
20	21	2
26	103	1
94	104	2
56	66	1
97	119	2
97	127	3
83	85	1
11	21	1
49	52	3
49	68	1
32	33	2
91	92	2
83	129	1
82	87	3
36	41	1
36	42	1
126	128	1
72	75	1
87	87	1
121	124	1
123	134	1
144	145	1
80	81	1
75	76	1
62	96	1
96	125	1
127	133	1
124	140	1
99	111	2
129	135	1
82	85	2
94	121	1
26	26	1
1	59	1
26	67	2
119	134	1
111	112	1
73	82	1
63	70	1
78	80	1
120	121	1
92	93	1
75	79	1
2	91	1
138	139	1
33	47	2
134	141	1
60	98	1
36	58	1
