197	197	22
170	170	30
31	32	8
48	48	28
202	202	28
163	184	1
117	117	27
156	156	56
153	154	10
196	197	9
178	178	35
111	111	17
31	31	20
188	198	5
78	78	22
22	36	2
176	183	9
35	37	2
174	174	27
237	240	3
96	96	18
212	212	37
83	83	16
247	247	24
50	61	4
80	80	18
155	156	7
233	233	11
3	6	3
206	206	22
7	7	24
235	235	24
62	62	21
4	5	8
50	50	14
94	95	11
189	189	25
168	176	1
155	155	38
235	236	4
173	173	19
25	25	16
92	92	25
155	202	5
176	177	8
151	151	40
5	6	7
5	5	4
190	191	5
26	26	29
182	183	16
150	150	20
165	165	30
42	42	20
16	16	19
240	240	33
72	72	19
57	57	30
89	89	27
71	72	3
170	171	13
44	45	7
119	120	7
166	167	13
28	28	25
24	24	26
232	235	1
168	168	32
68	68	19
15	77	1
209	209	43
160	160	48
16	67	4
217	217	20
171	171	23
29	29	12
238	238	21
229	229	43
71	71	18
44	44	24
56	58	4
164	200	1
5	14	5
18	18	33
233	234	12
67	67	19
177	177	12
192	192	18
173	182	1
19	19	36
201	201	34
7	43	2
212	219	3
22	22	34
158	158	31
103	103	19
200	200	41
169	172	2
202	203	5
175	175	19
212	217	8
224	225	5
164	164	20
172	172	28
88	88	11
182	182	22
109	237	1
9	109	2
65	66	16
179	179	23
18	31	2
112	113	4
180	180	47
203	204	16
236	239	3
198	198	20
111	245	3
246	247	9
238	239	6
228	228	18
244	244	36
14	14	25
205	205	38
199	199	25
223	246	2
146	147	6
191	191	16
191	192	13
160	192	3
208	208	25
84	84	11
158	160	1
229	230	12
66	67	1
224	233	1
103	104	8
107	107	5
5	17	3
31	33	2
81	103	6
196	196	24
175	214	9
207	207	43
194	194	14
104	104	13
117	118	26
19	20	9
214	214	27
239	241	3
20	20	36
219	219	29
164	167	3
48	61	3
4	4	22
163	183	2
108	109	5
94	94	27
168	169	17
239	239	18
115	115	20
233	245	6
174	175	16
74	77	2
8	8	32
242	242	20
218	242	1
10	10	23
41	144	1
34	35	8
219	248	2
220	220	31
58	58	28
36	36	26
49	49	18
222	222	22
81	83	6
204	204	40
39	39	15
167	167	27
227	227	19
158	159	18
95	100	6
224	224	27
105	106	16
181	181	31
193	193	17
236	236	28
101	101	27
37	38	12
72	78	4
173	174	24
214	215	9
41	42	8
163	165	10
179	182	3
236	237	19
87	87	24
234	234	37
221	221	24
38	38	16
100	100	17
179	180	7
56	56	36
145	145	17
176	176	15
46	55	3
77	78	1
72	73	11
21	32	2
183	184	8
111	112	8
188	191	5
112	112	22
43	43	46
73	73	12
102	106	2
82	82	26
156	157	6
9	9	27
157	159	3
96	99	7
163	163	23
47	47	11
74	75	10
218	218	17
166	166	31
30	31	11
54	78	1
154	154	22
189	191	3
161	161	26
54	54	11
6	6	29
38	59	2
152	152	24
110	110	33
199	200	13
52	53	4
77	77	30
46	46	26
245	246	17
118	118	33
169	169	20
97	98	17
32	32	25
183	183	36
116	117	12
75	75	7
221	222	17
119	119	14
69	70	6
23	24	9
218	219	12
112	119	6
154	161	1
237	237	20
184	191	6
65	65	27
58	233	3
90	90	23
97	97	13
230	230	13
27	27	33
171	180	2
157	158	26
212	218	3
188	190	4
203	203	29
63	212	2
1	1	23
173	210	9
211	211	24
41	41	30
190	190	16
15	15	14
119	243	1
59	60	6
79	79	15
35	35	23
36	60	1
188	188	22
198	200	13
75	77	6
73	74	2
86	86	20
109	109	19
230	231	8
157	167	3
210	210	22
59	59	30
159	159	22
11	11	16
185	185	31
87	156	1
186	190	9
213	213	30
3	3	25
42	156	1
165	166	4
47	173	3
162	162	32
93	93	15
200	201	16
172	173	19
105	105	14
115	244	2
182	185	4
40	40	35
92	98	4
216	217	5
222	231	2
56	57	3
178	209	2
89	92	5
197	198	16
88	89	9
6	7	1
98	98	16
216	236	3
160	161	11
68	70	2
39	40	6
42	43	2
63	63	30
184	197	1
192	246	3
186	186	36
167	175	2
169	171	11
99	101	3
69	69	13
248	248	10
27	28	14
191	194	5
180	181	12
70	70	18
99	99	32
37	37	24
210	213	2
33	33	16
107	173	1
26	27	1
157	157	21
169	170	9
73	160	10
81	86	2
52	52	24
9	10	4
201	202	2
152	153	11
80	81	6
195	195	25
60	175	1
95	182	2
98	100	3
45	45	12
108	108	31
66	66	26
156	162	2
64	64	27
186	189	2
154	169	2
55	56	10
30	30	22
114	114	30
204	209	1
148	152	3
150	206	4
19	34	2
85	85	18
175	181	2
118	119	8
213	215	1
68	237	2
163	164	12
246	246	33
231	231	25
205	206	2
19	35	9
216	216	17
71	74	8
245	245	21
38	39	6
78	93	3
23	185	5
62	63	7
193	194	4
178	181	1
208	209	14
75	76	13
19	158	3
186	187	13
224	227	4
71	86	4
244	248	3
13	108	2
225	226	8
161	162	8
28	199	5
22	199	4
215	217	16
49	50	12
233	235	2
54	56	3
80	82	11
174	179	3
237	242	4
17	228	2
184	198	3
187	187	21
181	182	12
249	249	8
184	184	13
169	183	4
21	22	3
244	247	5
183	208	3
81	82	4
209	210	5
240	241	11
55	57	3
161	182	1
91	91	7
157	177	4
99	100	12
115	117	2
76	76	14
119	244	8
192	193	4
81	81	7
173	212	2
218	231	1
187	188	14
41	48	2
24	25	10
77	167	3
31	37	2
57	63	2
171	172	8
223	223	6
107	108	6
146	146	13
247	248	5
27	31	4
144	145	3
57	232	2
116	215	1
232	233	8
113	115	12
50	76	3
48	50	5
40	41	2
114	115	7
57	58	21
72	74	15
58	59	10
175	176	17
214	245	5
177	194	2
157	171	4
53	53	19
194	197	2
53	54	4
21	155	2
222	223	9
2	2	15
113	113	15
45	46	7
166	170	2
87	89	2
46	56	7
61	78	2
244	245	9
95	95	16
199	201	3
17	17	21
101	102	7
60	60	22
147	147	6
163	200	7
216	219	4
174	217	8
181	190	2
233	243	3
23	23	32
48	57	2
61	61	11
39	59	3
10	178	1
78	95	4
226	226	25
183	185	3
99	119	2
44	151	2
192	195	10
63	64	18
208	219	1
120	120	4
179	220	1
215	215	12
93	94	6
99	118	2
178	179	14
223	245	1
65	79	3
213	214	7
13	13	6
9	110	2
40	43	3
158	182	4
119	246	2
1	11	1
113	245	1
12	12	17
91	92	3
196	208	3
153	153	29
192	244	4
90	91	7
237	239	5
164	166	3
42	145	3
69	72	7
54	64	1
64	67	2
165	195	1
80	83	3
243	244	8
33	34	4
36	37	7
219	221	1
198	199	16
149	150	5
187	189	7
94	186	2
29	216	1
102	102	20
223	224	6
201	203	4
157	160	3
39	60	1
104	108	2
108	236	5
81	84	2
86	151	1
176	199	1
49	63	3
15	17	1
69	84	2
92	109	1
195	196	8
167	168	11
41	43	9
2	5	2
226	227	3
109	218	1
239	240	7
87	93	3
21	21	15
220	229	1
74	74	10
45	55	3
10	41	3
67	74	1
209	231	6
159	160	6
231	232	1
247	249	3
158	209	2
4	37	3
13	14	2
113	114	6
170	184	2
50	51	6
184	185	2
233	237	5
96	98	18
185	198	2
56	80	4
4	245	3
116	116	25
54	55	5
118	248	2
188	189	6
27	155	4
47	48	5
72	76	1
166	238	1
234	235	7
88	91	5
29	31	1
60	75	3
65	171	2
167	169	5
67	75	4
165	209	3
44	55	2
74	160	3
171	174	2
34	34	11
195	200	5
177	183	2
73	76	3
163	189	3
199	203	2
217	218	3
30	176	1
197	238	1
167	180	6
32	33	5
109	110	6
20	152	2
28	52	1
233	244	2
187	191	5
112	154	1
178	180	1
64	65	7
86	87	3
106	106	6
194	214	1
37	218	2
243	243	11
185	186	6
49	57	3
176	182	4
62	211	2
145	147	2
241	242	3
55	55	7
238	240	7
29	112	4
71	73	5
79	85	3
113	144	2
241	241	23
100	101	8
232	232	12
40	58	2
190	217	1
96	97	5
189	192	7
27	92	2
68	69	1
5	37	5
51	87	1
216	218	1
70	86	4
72	75	5
65	78	1
73	75	2
49	60	1
155	174	1
215	236	1
212	220	4
117	119	1
225	225	21
185	189	2
82	83	15
87	88	6
95	96	2
162	166	3
84	86	2
68	71	2
17	19	2
187	190	6
167	196	1
22	23	6
166	198	2
91	118	1
60	62	1
212	213	6
12	15	3
84	85	4
67	68	3
186	188	6
154	156	2
237	238	2
32	197	2
168	170	3
43	44	10
1	2	1
12	236	3
69	71	3
121	121	4
152	179	3
7	8	2
242	248	5
170	183	1
243	247	1
84	110	4
70	78	3
224	226	1
81	108	2
204	205	7
113	116	5
94	96	2
171	181	1
2	3	3
162	167	1
48	52	1
19	33	1
181	188	1
37	39	2
71	75	6
116	216	2
185	190	1
227	228	7
190	247	2
206	207	4
80	85	3
88	158	1
85	86	4
179	193	3
115	116	11
111	113	3
60	61	5
144	144	2
75	99	3
162	163	1
63	66	6
150	152	3
192	197	4
72	86	2
76	77	7
51	51	5
186	192	5
153	170	1
210	211	8
7	10	3
242	244	3
175	213	1
3	227	1
92	95	2
34	63	1
153	174	4
161	178	2
102	103	4
81	170	2
95	101	4
79	80	6
8	9	6
167	187	3
159	167	1
63	71	2
166	174	2
61	62	7
160	227	7
225	234	1
41	46	1
115	119	1
115	118	2
117	215	2
240	242	2
119	163	1
172	211	1
48	56	1
68	79	2
174	216	3
213	245	2
19	144	3
70	167	1
16	31	5
219	222	2
104	105	4
94	182	1
182	184	3
152	156	1
176	179	2
52	57	2
159	184	2
20	158	1
164	193	4
46	47	5
196	198	4
168	171	1
18	112	2
79	83	2
241	243	2
18	19	2
12	51	6
188	210	2
144	205	1
38	40	1
34	234	1
160	205	3
83	85	1
106	111	1
47	76	2
62	67	2
33	230	3
8	97	1
149	153	2
152	158	3
92	179	2
220	221	5
4	84	2
166	201	1
61	76	2
196	199	1
194	195	10
22	154	1
195	198	2
152	159	3
66	172	2
108	110	1
156	167	1
33	173	2
165	167	3
193	195	9
168	179	1
52	54	2
121	153	2
144	178	1
31	34	3
170	241	2
92	100	3
34	233	1
54	107	1
178	183	2
215	228	1
180	193	1
47	65	2
7	23	2
3	5	9
172	174	1
43	46	1
14	51	2
47	66	2
209	215	2
231	244	4
162	181	6
213	231	2
86	95	6
17	54	3
4	14	3
105	107	6
196	201	2
12	18	3
12	20	3
86	89	2
78	83	4
156	159	2
208	211	2
202	204	3
58	63	2
37	58	1
65	75	1
57	68	5
193	196	3
80	107	2
192	194	4
30	152	1
55	68	2
177	178	2
153	157	1
95	103	1
70	74	2
82	85	1
14	15	8
112	115	1
228	247	1
22	179	1
20	22	1
47	51	1
91	93	1
211	212	3
43	147	1
30	34	2
79	81	1
176	181	4
113	156	1
197	199	1
78	79	2
166	210	1
9	16	2
218	221	2
160	209	1
184	195	3
234	247	1
152	157	3
173	175	1
103	106	4
209	213	1
165	203	1
173	193	1
90	112	1
95	181	1
15	16	2
18	21	1
46	54	5
232	246	2
77	166	1
92	93	2
185	187	2
15	30	1
242	243	2
55	62	1
118	243	1
34	60	2
116	118	1
46	211	1
31	35	1
63	67	3
78	82	1
152	163	1
209	212	3
238	242	4
45	54	1
11	12	2
220	230	1
79	100	1
170	204	1
172	175	1
196	238	1
215	219	2
110	149	2
165	202	1
184	189	3
152	191	2
182	209	1
9	11	2
57	231	2
180	187	3
54	100	2
52	55	2
94	115	1
150	151	5
206	231	2
118	244	1
182	208	2
67	84	1
34	42	2
163	170	2
172	210	1
245	247	2
236	240	1
202	205	1
146	154	2
2	20	1
8	85	2
44	46	2
109	119	1
175	177	2
106	107	3
51	52	4
35	60	1
81	169	2
68	72	2
24	94	1
18	33	1
160	183	2
18	36	1
218	245	1
109	236	2
30	37	2
59	61	3
182	212	1
76	167	2
217	230	1
29	30	3
104	106	1
75	80	2
17	18	2
41	47	1
21	51	1
151	226	1
245	248	1
61	75	1
55	229	1
59	168	1
175	179	1
223	225	2
162	180	1
161	171	1
85	87	1
170	205	2
100	119	1
84	87	1
19	38	1
152	160	1
82	171	2
3	4	1
215	220	1
111	114	3
57	59	1
243	246	2
194	196	5
220	222	2
168	182	1
113	173	1
90	106	2
187	216	2
2	4	1
5	20	1
163	166	1
35	234	1
89	158	1
42	180	1
35	36	1
12	16	1
69	73	1
204	229	3
0	231	1
214	231	1
110	111	2
9	28	1
242	247	1
51	89	1
31	155	1
189	190	2
23	229	1
112	118	2
92	94	1
177	181	1
49	117	1
21	23	1
211	215	1
11	101	1
166	171	2
4	38	1
159	217	1
227	230	2
90	111	1
192	230	1
45	150	2
185	193	1
14	108	2
48	49	2
241	244	1
157	165	1
159	177	1
171	176	1
164	165	1
64	105	1
92	96	1
201	205	1
171	211	1
165	228	1
159	176	1
14	184	1
152	166	1
37	62	1
169	179	1
42	144	1
162	176	1
37	216	2
148	181	1
95	98	2
48	51	1
216	243	1
35	62	1
65	67	1
244	246	1
12	14	1
62	72	1
26	223	1
12	22	2
111	115	1
158	177	1
1	7	1
177	180	1
227	229	1
232	237	1
111	241	1
190	192	1
67	82	1
158	183	1
181	189	1
