29	29	6
28	56	2
103	103	6
119	119	4
122	122	11
16	86	2
62	68	1
83	83	4
136	143	4
89	89	4
91	92	6
40	40	2
1	1	7
12	15	6
12	12	3
2	4	3
8	15	7
23	23	5
41	135	3
69	70	4
9	10	4
84	91	5
41	41	3
93	93	9
39	39	5
7	7	4
88	89	2
8	8	9
30	33	1
92	92	4
115	115	2
30	37	2
127	127	7
140	141	1
112	112	6
151	152	3
129	129	10
77	95	3
79	79	12
140	154	6
9	13	1
123	124	1
109	115	2
101	101	4
120	120	6
87	90	3
33	34	8
126	126	6
38	38	2
34	157	1
50	56	1
135	136	2
45	45	1
56	56	4
108	108	2
18	18	6
151	158	1
118	121	3
92	93	2
68	69	1
46	46	5
75	75	3
2	2	2
67	71	2
35	157	2
76	76	4
148	148	3
144	145	7
17	18	4
31	34	4
84	87	3
102	102	3
9	15	2
44	44	5
2	19	2
144	146	2
120	122	4
86	86	7
48	52	3
8	14	5
154	154	7
9	19	1
125	125	8
157	157	4
131	131	1
128	129	2
34	53	2
21	21	9
142	142	1
158	158	6
113	114	1
134	134	3
21	30	3
11	11	3
42	43	3
94	94	8
142	153	3
76	121	4
140	143	1
158	159	1
106	106	5
150	150	2
152	152	2
151	151	3
88	88	7
139	139	1
108	109	7
76	77	2
66	66	5
104	104	4
115	116	1
10	11	8
122	123	2
98	98	3
48	48	8
123	123	5
148	154	1
91	91	8
141	154	1
71	71	3
25	25	3
95	96	3
15	17	1
110	144	4
31	35	3
135	135	5
17	17	1
5	5	1
146	147	2
25	27	6
138	138	4
70	70	3
4	67	2
40	41	5
26	26	4
120	136	1
69	69	5
50	50	4
93	94	2
24	24	8
28	28	3
140	142	3
12	13	3
31	31	3
50	53	2
118	118	3
145	146	1
65	65	5
6	6	2
155	155	1
4	42	1
141	141	1
3	103	1
32	126	2
81	81	5
15	15	5
153	154	2
147	147	3
33	33	4
62	62	6
130	130	5
115	121	2
124	125	3
50	52	4
95	95	5
52	54	1
57	57	4
31	69	1
102	105	1
105	106	2
125	148	1
26	38	1
83	91	3
114	114	3
98	104	1
4	4	4
27	28	2
23	38	1
32	32	6
139	140	2
40	45	3
136	136	6
52	52	3
49	54	1
113	113	1
4	99	2
142	143	1
64	64	1
73	73	5
67	70	1
77	77	3
41	42	1
21	36	2
110	111	2
117	118	4
145	147	1
93	96	2
29	30	1
137	141	1
99	99	3
85	85	5
1	2	1
30	35	1
109	110	2
139	143	2
11	12	1
100	100	3
141	142	3
14	14	1
117	134	1
10	12	1
140	140	3
120	121	2
149	150	1
2	97	2
112	113	2
117	117	1
19	19	1
95	133	2
48	54	2
147	148	1
67	69	1
142	152	3
145	145	1
50	54	1
125	128	1
8	16	2
53	53	4
79	83	2
121	121	2
55	55	1
135	151	1
50	51	2
52	53	1
111	111	2
3	3	1
117	119	1
144	147	2
113	118	2
25	36	3
26	112	2
77	78	1
137	139	2
114	115	1
156	157	1
125	127	4
132	132	2
133	133	2
41	43	1
113	124	1
49	50	1
97	97	3
45	48	2
143	155	2
47	52	2
154	155	2
56	57	1
124	124	1
76	78	1
24	25	1
30	36	1
49	61	2
87	87	1
83	84	2
74	74	1
110	110	1
126	127	1
29	36	3
20	20	1
106	107	1
86	87	1
65	67	2
87	109	1
43	43	2
44	50	1
103	132	1
137	137	1
107	108	1
10	31	1
146	146	2
66	70	1
65	92	1
22	22	1
107	107	1
35	35	1
116	116	1
135	157	1
67	68	1
147	150	1
