151	158	1
77	77	2
156	159	1
51	51	7
67	67	1
88	88	8
13	13	1
81	81	3
111	111	4
156	156	4
101	102	3
144	144	5
25	25	3
75	75	5
63	63	5
146	146	4
57	62	2
153	153	4
151	153	4
44	44	2
83	83	8
142	146	2
0	1	2
163	164	2
43	53	4
34	35	5
57	64	1
90	90	10
45	45	5
4	11	5
69	124	1
51	90	1
158	158	4
44	46	3
83	84	3
10	10	2
3	38	1
78	79	3
40	40	1
157	158	2
54	54	7
50	84	3
36	36	3
145	145	7
15	15	8
167	170	5
138	138	2
9	9	5
15	36	1
65	66	2
6	6	1
34	34	2
105	105	9
40	46	1
48	48	5
125	139	2
159	160	2
132	132	1
66	69	3
163	163	4
129	129	3
53	53	4
4	5	5
128	128	3
128	137	3
76	76	9
80	80	1
58	58	2
47	47	2
153	162	2
14	137	1
152	152	4
115	115	3
56	56	5
148	149	1
105	106	5
123	156	1
74	75	1
112	112	2
145	152	1
57	58	2
43	43	2
119	121	2
84	84	3
70	70	1
119	123	1
7	8	2
87	130	1
8	8	4
108	108	3
15	149	5
75	100	1
66	66	1
39	47	1
13	14	2
22	44	1
63	71	2
53	54	3
22	22	2
162	162	6
18	19	2
150	150	2
125	126	3
107	107	1
116	116	3
161	168	1
16	16	4
101	101	4
121	127	3
22	45	1
1	4	1
9	11	2
124	164	1
142	142	2
37	37	1
79	126	3
141	141	3
127	132	1
15	16	2
93	93	3
121	121	6
64	71	3
134	134	2
10	100	1
91	91	3
73	73	4
52	52	3
115	159	1
160	170	2
55	55	2
18	21	3
1	1	2
8	85	3
65	65	3
106	106	5
13	15	1
167	168	1
165	165	2
6	95	1
96	96	5
26	34	2
104	104	1
124	124	3
64	74	1
1	3	1
63	70	1
94	94	4
122	122	3
69	76	1
1	21	2
10	153	1
117	117	5
133	133	2
50	50	2
119	125	1
97	97	2
2	40	1
148	148	2
20	20	4
21	21	2
95	95	1
97	104	1
101	123	1
44	45	3
44	47	4
100	100	5
69	69	1
125	127	1
57	57	2
74	74	3
153	159	1
165	166	2
8	14	1
5	13	1
96	97	2
2	2	2
26	26	2
27	27	3
154	154	1
91	92	2
98	98	3
166	166	2
16	17	2
64	65	1
164	164	2
7	7	5
135	135	2
141	147	1
6	7	3
162	163	1
112	135	3
144	145	2
19	19	2
47	49	3
72	89	1
111	112	1
120	120	1
86	130	1
114	136	1
119	122	2
67	68	1
18	92	1
99	99	1
10	54	2
45	75	1
26	27	2
6	17	1
64	64	3
40	43	1
3	3	2
50	73	1
107	111	1
68	70	1
100	102	1
155	164	2
101	103	1
94	117	2
94	95	1
78	80	1
17	18	1
116	127	1
119	119	1
80	81	1
16	38	1
99	105	1
56	108	1
153	160	1
42	53	1
11	11	5
24	25	2
140	140	1
119	127	1
155	163	1
159	161	1
87	89	1
92	92	1
118	118	1
41	41	1
64	88	1
113	113	1
76	133	1
104	105	1
21	23	1
12	12	2
72	72	1
122	124	1
65	70	1
27	28	1
26	108	1
93	100	1
1	2	1
103	103	1
167	167	1
43	44	1
28	28	1
85	85	1
130	138	1
97	99	1
46	71	1
156	163	1
18	18	1
