18	28	4
140	145	3
55	55	10
111	113	3
77	85	2
133	135	3
25	25	12
33	33	8
84	86	3
15	95	1
41	41	14
114	114	8
44	44	2
127	154	5
31	80	1
14	56	2
45	45	5
71	71	7
77	77	13
46	46	10
73	74	1
131	136	5
128	128	2
70	93	3
105	107	2
18	19	5
8	9	7
91	91	4
126	126	8
16	16	7
88	88	1
24	24	6
83	84	1
62	63	5
22	22	13
71	106	3
11	11	13
72	73	2
91	92	5
30	30	4
138	144	6
14	14	14
128	154	4
47	47	6
23	25	3
31	31	7
22	23	17
38	43	4
85	93	6
32	33	1
85	88	10
13	13	7
94	94	9
27	28	7
80	80	9
35	36	2
34	35	4
26	27	3
81	87	2
58	58	6
72	84	5
67	67	3
105	105	2
11	84	2
73	73	6
28	28	3
49	72	3
65	65	4
65	66	3
138	138	1
17	17	10
99	130	5
68	68	5
116	116	5
146	146	9
69	85	1
95	96	1
102	114	2
29	29	4
139	139	2
124	126	1
108	108	4
149	149	15
125	128	1
82	82	3
2	29	3
40	42	4
133	134	5
87	87	1
49	103	4
23	23	4
48	48	7
109	109	2
64	68	1
85	86	2
131	131	4
151	151	4
99	124	1
109	110	3
126	127	3
79	79	6
127	133	1
32	34	1
18	18	6
144	144	4
100	100	8
15	16	6
19	19	6
66	66	4
75	86	2
20	22	6
115	116	4
75	75	2
4	25	3
134	134	2
116	153	1
14	15	2
6	6	3
142	154	2
50	72	1
38	122	5
149	150	4
112	115	1
6	11	2
83	83	6
87	91	1
96	99	3
141	142	4
88	89	1
22	25	4
50	68	5
126	143	2
10	11	1
145	147	3
69	70	2
21	21	3
101	128	2
23	55	2
147	147	2
44	45	5
121	144	1
15	74	1
34	39	4
18	86	1
54	54	3
43	43	8
51	51	1
27	27	1
87	125	3
93	94	3
78	78	3
126	138	4
54	55	6
107	114	1
39	64	1
55	56	4
104	105	1
133	133	5
76	76	2
68	69	3
15	15	6
38	38	4
40	40	5
119	119	8
7	7	6
150	150	7
107	107	5
36	44	2
130	138	2
103	103	3
123	129	1
64	64	1
11	82	1
116	117	3
97	130	4
111	151	2
135	136	2
108	110	3
109	113	1
104	104	2
49	50	2
111	111	1
129	129	2
98	98	2
34	34	4
4	4	5
112	113	4
28	29	2
39	40	3
8	8	6
148	148	2
125	127	1
39	39	2
146	148	1
86	87	4
6	7	2
9	9	4
29	32	2
20	21	4
115	115	4
53	53	7
111	114	1
123	137	2
130	131	2
99	100	1
4	13	1
136	137	4
106	107	1
87	88	6
4	7	2
12	13	3
88	90	1
16	36	2
79	80	3
10	49	3
62	62	1
136	136	5
85	85	7
62	75	3
31	32	2
64	67	1
121	121	6
74	85	1
35	35	3
63	83	1
52	55	1
85	99	1
22	66	3
12	76	4
106	120	1
10	10	4
69	69	7
84	84	3
18	20	1
42	42	3
87	93	5
3	32	3
12	12	2
96	96	3
146	147	1
127	127	1
74	80	3
33	37	1
106	106	2
95	128	1
135	135	5
126	148	2
94	96	3
145	146	2
7	33	1
128	141	3
16	58	2
41	42	1
19	56	2
4	14	2
118	118	1
36	36	4
33	34	2
130	130	1
57	67	2
87	99	1
137	141	2
131	132	4
74	74	2
111	147	2
16	17	2
92	96	1
27	29	2
147	148	1
42	43	1
77	99	2
124	131	3
146	150	2
144	145	1
48	56	1
119	121	1
57	62	2
21	22	3
68	93	1
58	147	2
11	14	1
117	117	2
96	113	2
87	98	2
131	140	1
11	81	2
78	79	2
5	5	3
6	52	1
27	83	1
23	64	1
57	70	1
143	145	1
80	85	1
36	74	1
139	146	1
9	84	3
27	73	2
99	99	1
98	124	1
132	149	1
16	18	1
152	153	1
83	86	1
61	66	1
128	133	1
25	27	2
50	51	1
95	95	4
3	27	1
84	85	1
143	143	2
34	36	1
36	67	1
114	152	2
25	28	1
84	125	1
132	132	2
15	18	1
11	76	1
54	78	1
17	18	1
50	56	1
52	52	2
75	76	1
35	37	1
75	77	5
4	5	1
45	46	1
89	92	2
95	105	1
55	74	1
30	70	1
139	140	1
99	101	2
12	15	1
14	76	2
121	122	3
82	83	3
70	70	1
127	128	1
54	56	1
128	132	1
17	40	1
5	29	1
13	16	1
5	35	2
27	62	1
41	47	2
137	137	2
8	30	1
37	45	1
36	38	1
116	154	2
93	98	1
144	147	1
3	15	1
136	139	1
33	35	1
101	106	1
80	84	2
4	33	1
140	142	1
21	28	1
142	142	1
107	108	1
77	81	1
101	135	1
99	110	1
152	152	1
3	4	1
7	31	1
30	31	1
96	97	2
132	140	1
123	147	1
32	65	1
86	86	1
24	25	1
153	153	1
4	6	1
19	45	1
51	74	1
118	151	1
115	117	1
3	16	1
132	136	1
105	106	1
21	116	1
