75	75	26
28	28	3
21	22	2
105	105	6
100	100	5
84	99	1
89	89	7
111	114	4
91	92	6
43	45	2
57	59	11
42	43	5
41	41	10
74	74	6
56	57	2
108	110	9
32	33	2
26	26	7
87	88	1
64	64	1
87	87	12
42	93	2
40	42	2
63	63	10
51	52	10
46	46	12
61	62	13
102	102	12
102	106	1
84	85	7
53	53	6
66	66	5
50	51	9
79	79	6
38	38	4
19	21	2
62	64	2
52	52	6
109	109	9
81	81	4
114	114	18
71	71	10
34	38	3
44	44	9
76	77	1
84	84	7
80	80	4
73	76	3
30	32	2
51	51	2
43	92	3
63	70	3
60	60	4
39	39	3
26	27	3
69	69	4
90	91	9
91	91	10
62	63	8
45	45	17
76	76	5
113	113	9
99	110	1
103	105	3
82	84	3
104	104	5
106	106	10
46	50	1
107	107	2
25	26	6
107	110	1
19	20	2
71	81	1
78	81	1
112	112	11
37	38	9
98	98	2
110	110	15
94	94	6
84	86	8
73	73	5
97	97	9
42	45	2
88	88	11
73	75	8
41	42	3
72	74	5
44	45	1
58	58	5
106	107	7
77	77	5
35	35	2
69	86	1
94	95	2
43	105	2
105	110	5
111	112	2
56	59	4
93	95	2
59	60	1
92	94	1
42	42	8
90	90	5
27	27	8
95	95	8
102	108	2
96	97	1
67	67	8
57	57	8
43	43	7
44	92	1
88	114	3
78	78	6
87	91	7
71	72	7
101	101	9
31	33	1
104	105	4
49	50	4
88	92	2
108	108	4
73	74	5
99	100	4
34	34	2
76	83	2
93	94	3
97	100	1
21	25	1
113	114	2
26	29	1
99	99	3
100	101	6
33	33	8
20	21	2
40	40	4
48	48	7
53	56	2
72	73	1
111	111	14
76	78	1
101	102	2
88	90	2
75	79	3
59	59	4
28	31	2
28	29	2
24	25	3
85	85	2
55	55	7
32	34	6
23	37	1
47	48	6
101	104	4
80	83	4
70	85	2
109	110	3
49	49	8
86	89	1
96	96	8
30	31	6
22	22	5
62	67	2
58	59	1
108	109	3
37	39	1
61	61	5
64	68	3
68	72	1
21	21	4
27	29	6
54	68	1
56	56	2
75	76	3
30	30	4
93	93	5
79	83	3
25	25	4
79	80	2
65	66	4
66	71	1
69	72	4
86	86	1
47	47	6
52	53	2
43	50	1
105	106	3
63	64	1
112	113	5
87	89	2
88	89	1
103	103	2
110	111	5
70	71	1
70	74	3
68	70	3
42	44	1
36	36	2
63	65	2
78	79	4
50	50	3
54	58	3
63	87	1
66	70	1
83	84	4
57	60	3
60	61	2
45	48	1
66	67	1
107	109	2
74	75	3
72	72	3
20	20	7
61	64	2
82	85	2
104	106	1
61	63	1
68	71	1
73	87	1
22	23	1
23	23	2
81	82	1
83	83	4
95	96	1
86	91	2
65	67	1
82	83	1
23	24	1
97	107	1
24	24	3
68	68	1
77	78	1
67	68	2
73	89	1
29	29	2
81	101	2
62	62	3
53	71	2
20	22	1
54	59	1
25	39	1
53	61	1
