82	83	6
142	142	1
197	197	6
1	77	2
74	74	9
9	9	14
18	29	2
21	22	7
35	35	2
186	186	3
75	75	5
53	234	3
207	208	2
11	12	4
38	38	10
145	146	1
138	138	4
80	80	2
172	179	1
213	214	1
105	105	7
49	50	3
221	221	1
189	190	1
39	39	5
143	143	4
88	104	2
98	98	8
41	41	2
198	198	7
106	122	3
63	63	7
17	36	2
191	195	4
120	121	4
160	165	2
200	200	3
1	30	2
10	10	8
164	165	3
14	16	3
78	84	3
13	13	10
62	62	5
100	100	5
108	108	2
119	119	3
8	8	2
22	23	3
106	106	4
29	60	8
57	57	3
23	23	8
215	215	3
78	78	5
80	81	1
170	170	1
9	86	1
125	125	4
224	224	5
241	242	3
124	124	2
55	55	5
214	219	1
7	20	1
148	148	3
197	198	1
152	175	2
0	0	4
174	174	6
53	182	1
12	12	4
212	212	4
29	29	2
134	231	1
1	2	2
39	113	1
7	8	3
188	224	1
49	57	5
175	223	2
194	194	2
96	96	5
120	134	2
236	236	3
48	48	4
50	50	7
43	43	5
238	238	8
231	232	1
8	15	1
4	5	4
21	21	9
163	170	2
55	67	1
10	96	2
191	191	6
96	192	3
9	10	2
10	86	3
84	84	6
208	208	3
36	36	5
1	1	6
18	18	5
3	5	2
232	232	1
54	102	3
195	195	1
57	68	1
199	210	3
9	85	2
27	38	3
14	33	4
76	76	7
79	80	3
45	45	3
128	128	8
227	227	6
22	59	9
186	187	1
219	219	3
85	85	5
83	83	4
176	185	2
195	196	1
24	24	3
36	39	3
70	70	3
129	129	1
15	16	1
16	16	6
1	3	2
200	209	2
0	1	1
150	234	7
64	64	10
103	103	6
141	142	4
7	21	2
60	60	3
237	237	5
50	51	4
114	115	1
154	154	7
36	67	2
42	42	3
59	60	4
68	68	4
149	150	7
102	103	2
8	30	3
77	80	3
66	68	4
200	201	1
51	52	1
162	162	3
66	66	5
99	99	9
190	190	2
127	129	2
39	56	2
223	224	4
52	52	3
53	60	2
213	218	3
30	49	2
225	235	1
209	210	4
6	6	1
137	137	3
186	188	2
127	166	3
42	152	1
121	121	6
198	204	5
176	176	2
65	70	1
58	58	3
240	240	2
77	183	1
17	81	4
11	11	3
31	31	2
64	67	3
136	237	1
17	79	1
165	165	6
76	217	3
167	167	1
175	175	1
44	75	1
158	208	4
115	117	4
74	170	6
39	62	4
108	124	2
67	67	6
205	206	3
173	173	6
147	147	4
102	163	3
1	42	3
85	86	2
196	196	2
8	20	1
25	25	4
9	27	2
45	48	1
139	139	5
58	61	4
105	123	2
42	77	1
158	225	1
165	194	1
26	32	1
160	160	4
81	180	1
206	206	2
61	61	1
218	218	4
136	136	3
118	118	6
21	23	1
75	79	5
158	158	1
6	7	2
73	73	2
59	59	5
207	207	4
65	66	2
172	173	1
100	101	1
183	183	2
85	96	1
99	108	4
173	224	2
171	188	1
176	177	1
120	120	2
44	44	1
7	36	1
72	72	2
194	207	1
116	116	4
98	109	2
33	92	1
153	153	1
184	186	1
123	123	3
213	217	1
61	76	1
81	82	2
159	215	4
27	54	2
79	79	2
199	204	4
34	76	1
62	63	2
132	132	2
4	4	3
232	233	1
104	105	3
33	33	1
133	133	5
5	127	1
101	102	1
217	217	2
34	57	1
49	49	3
72	113	1
77	154	1
158	195	1
4	124	4
111	140	2
77	79	2
190	198	1
211	214	4
26	26	2
169	169	1
198	199	2
161	161	4
206	207	2
150	151	3
29	40	2
50	168	1
134	230	2
169	171	3
151	156	1
164	164	2
222	224	3
242	242	2
139	140	1
62	74	1
145	145	1
30	40	1
82	217	2
20	20	9
9	67	2
110	110	3
36	69	1
19	19	2
115	199	2
104	104	4
156	223	1
168	168	2
95	95	1
83	85	2
27	27	2
30	48	1
64	65	1
136	231	1
151	152	2
150	150	2
220	220	5
65	65	1
124	125	3
240	241	2
215	216	1
53	55	3
185	185	2
107	107	1
178	178	4
106	225	1
97	97	1
175	176	2
86	86	2
34	34	2
13	14	1
126	129	1
189	189	2
61	223	1
201	203	1
154	166	1
137	138	1
56	56	4
158	219	3
40	40	2
7	30	3
172	196	2
51	51	1
22	22	2
102	102	1
141	141	1
216	216	1
167	168	1
80	83	1
114	162	2
20	23	1
152	153	1
35	38	2
205	205	2
71	71	1
52	54	3
140	140	1
234	234	2
9	45	1
103	104	1
103	105	1
22	57	1
16	33	1
17	17	1
115	115	1
4	6	1
117	117	2
171	171	2
127	217	1
71	72	1
5	5	3
214	214	1
111	111	1
51	53	1
104	163	1
28	28	2
151	151	1
19	20	2
46	226	1
239	239	3
28	29	1
68	69	3
84	85	1
130	171	1
37	37	1
43	161	1
39	235	1
5	8	1
201	201	1
7	7	1
163	163	1
34	35	1
220	222	2
18	41	1
11	13	1
116	167	1
157	157	1
88	105	1
19	34	1
3	3	1
152	152	1
217	218	1
25	44	1
151	239	2
209	214	1
241	241	1
134	134	1
16	31	1
8	14	1
50	198	1
30	30	1
12	15	1
211	211	1
161	225	1
229	229	1
123	131	1
16	17	1
169	170	1
4	30	1
63	64	1
199	199	1
41	58	1
192	194	1
