108	114	2
72	85	6
22	23	3
12	12	5
8	8	2
8	20	3
114	114	2
124	126	1
72	109	2
106	108	3
73	78	7
14	19	1
81	98	1
17	18	2
122	122	4
90	91	6
127	127	5
104	105	5
98	99	4
63	64	8
131	133	5
108	111	3
93	101	2
9	56	3
114	115	1
80	82	2
58	59	3
81	83	7
46	48	1
46	65	2
91	91	3
119	120	2
20	24	4
41	42	2
71	72	1
60	60	3
20	23	1
77	77	2
27	29	3
119	124	2
110	114	2
21	38	3
32	32	5
80	89	4
108	108	3
105	106	2
128	129	3
49	108	1
103	118	4
1	3	5
48	48	7
87	87	5
23	23	4
21	23	2
126	127	1
77	79	7
74	76	3
57	58	1
106	107	1
103	103	7
41	41	2
47	48	6
2	14	5
7	23	2
6	7	4
106	109	2
117	117	3
67	67	7
29	38	2
96	96	4
100	105	2
73	75	2
96	97	3
96	99	1
51	51	2
28	32	2
10	11	5
30	30	1
42	43	8
106	111	1
107	108	4
0	14	2
55	56	3
129	129	8
23	24	3
122	124	2
117	118	4
64	66	1
5	5	8
119	119	3
84	87	5
121	121	3
12	43	2
87	92	3
4	10	3
113	113	3
120	122	3
5	23	2
57	81	2
89	116	1
84	89	4
103	104	1
17	24	2
25	27	2
58	66	3
92	92	6
75	77	3
26	81	1
0	1	3
2	12	2
54	55	10
84	86	3
1	1	3
68	72	2
2	4	5
116	116	6
110	111	1
126	128	3
99	127	5
83	85	3
76	78	5
57	57	1
9	9	2
104	111	3
122	129	2
39	44	1
58	60	1
54	54	3
101	107	2
16	16	7
26	28	1
75	76	4
39	46	3
128	130	1
46	51	2
24	98	2
71	71	9
83	83	1
69	69	2
49	49	1
132	133	4
115	115	11
21	30	2
15	15	2
52	55	2
11	12	4
103	106	2
112	123	1
66	67	1
56	59	3
88	88	2
39	47	3
64	83	3
71	74	3
108	110	2
124	130	1
83	110	4
5	6	2
24	24	4
18	19	2
101	102	2
12	14	2
15	16	4
60	67	4
29	30	2
124	124	1
95	97	5
123	123	2
15	17	4
52	63	1
125	126	2
52	133	1
45	46	3
7	13	2
62	63	4
40	41	2
82	87	3
128	132	2
76	77	2
87	94	6
115	117	1
119	121	2
116	117	3
20	20	3
51	60	3
19	20	6
33	34	1
40	43	3
122	127	3
92	104	3
21	22	2
101	101	2
104	109	1
98	103	3
13	18	2
59	66	2
88	96	3
43	44	4
76	80	2
27	28	5
45	63	3
49	50	4
7	30	2
39	41	2
115	116	2
92	93	1
53	53	2
97	97	6
14	16	2
96	103	2
52	56	7
80	80	2
98	120	2
55	55	4
102	103	1
120	121	2
82	83	2
96	100	4
7	7	3
62	62	4
71	73	1
46	49	2
79	122	1
89	91	1
18	18	2
45	76	1
100	100	6
46	61	1
46	46	2
13	20	1
26	31	2
54	72	2
109	124	2
49	52	1
104	127	3
27	32	2
4	4	2
118	119	1
110	112	1
43	43	2
124	125	3
91	94	4
95	96	4
121	123	2
56	67	2
39	48	1
131	131	1
7	8	3
28	31	1
103	108	1
2	3	1
4	7	2
73	73	1
85	88	3
24	25	2
20	26	1
109	111	4
72	75	1
127	128	3
45	49	2
84	85	1
12	18	3
30	32	1
66	69	3
52	53	1
22	31	4
116	126	2
72	111	1
87	89	3
4	22	3
74	78	2
106	106	2
75	129	2
111	112	2
104	116	1
126	129	3
86	86	2
84	92	1
97	102	1
66	68	4
2	15	2
5	7	2
42	60	1
10	10	5
79	81	1
6	6	2
56	56	2
82	107	2
122	125	1
12	13	6
25	26	2
3	4	1
6	8	1
66	93	2
71	84	1
68	68	3
26	27	2
123	126	4
18	25	2
61	61	3
92	121	2
65	75	2
4	5	1
99	101	2
99	104	1
51	55	1
46	60	2
129	132	1
4	18	2
34	34	1
111	128	1
44	44	1
64	64	3
65	66	3
11	11	2
73	97	2
83	90	3
7	10	1
30	31	1
50	50	1
2	2	3
105	107	2
51	57	1
18	29	1
76	76	1
123	124	1
62	64	1
33	41	1
51	56	1
126	131	2
53	58	4
21	24	1
9	30	1
109	116	1
6	13	1
97	99	1
107	107	2
114	132	1
10	27	1
86	108	2
0	18	1
89	89	1
20	22	1
84	105	4
99	99	2
66	81	1
60	84	1
89	90	1
1	16	2
57	61	2
48	49	2
117	120	1
118	121	1
3	22	1
25	42	1
7	9	2
100	101	1
129	131	1
111	131	1
120	120	1
120	124	2
93	98	1
17	17	4
58	61	1
31	33	1
90	98	2
66	84	1
28	30	3
25	28	1
118	123	1
27	34	2
5	17	1
107	111	1
83	84	2
133	133	1
128	128	1
73	74	1
57	60	1
47	51	1
70	71	1
5	30	1
17	23	1
3	3	1
34	48	2
8	9	1
71	92	1
70	70	1
47	61	2
29	29	1
67	68	1
52	52	1
113	115	1
73	76	1
53	55	1
60	63	2
95	95	2
118	118	2
14	17	1
11	13	1
116	131	2
12	22	2
51	52	1
104	107	1
25	25	1
112	114	1
64	68	1
94	107	1
39	39	1
82	84	1
98	101	1
105	108	1
95	108	1
46	47	1
111	111	1
39	50	1
4	6	2
38	61	1
52	72	1
