84	85	3
31	31	7
84	103	6
62	62	6
80	80	10
96	97	3
21	21	15
83	83	11
126	127	2
15	15	21
64	64	5
14	57	1
21	30	1
72	75	2
57	57	5
93	93	8
67	67	6
55	57	6
37	37	8
118	118	3
25	57	4
85	86	5
43	44	3
78	78	14
41	72	3
6	22	3
109	111	3
25	56	4
81	81	10
72	73	4
23	23	5
40	40	2
43	43	13
99	132	2
75	75	9
38	40	1
79	79	4
117	118	2
118	119	4
112	113	5
73	74	7
74	74	7
68	68	3
94	94	1
129	129	11
127	133	6
71	71	5
112	112	6
20	35	8
116	116	3
81	84	2
60	60	6
120	120	4
75	76	6
79	80	13
20	20	11
73	73	15
7	7	4
27	27	8
85	85	2
111	126	1
34	34	6
12	12	4
115	115	5
14	17	2
98	99	5
25	25	4
111	112	5
58	58	6
92	92	2
67	68	6
100	129	3
78	79	5
70	70	3
76	77	2
3	45	1
10	10	11
29	29	3
40	45	4
99	100	7
45	45	7
30	30	6
17	22	1
56	56	7
109	109	4
79	82	3
35	35	13
59	59	6
99	101	2
107	131	2
69	69	6
41	41	4
21	58	1
85	90	1
39	39	10
63	63	5
77	77	3
72	72	7
106	106	1
36	36	4
82	82	11
106	133	4
122	124	2
82	85	1
45	84	7
46	46	5
66	66	4
32	32	5
62	63	1
55	55	1
14	14	8
9	9	4
13	13	1
108	108	5
8	9	3
104	104	5
65	65	1
81	87	1
102	102	2
42	81	3
109	110	3
100	100	4
41	42	2
44	44	3
33	78	1
12	78	1
107	107	1
48	83	2
8	8	5
38	38	7
95	95	4
50	50	1
76	76	6
38	42	1
87	87	3
26	27	7
90	90	1
17	18	1
28	31	2
13	74	2
34	36	3
87	88	3
117	119	1
58	60	3
8	22	3
46	62	2
111	111	2
1	119	3
131	131	3
114	114	2
2	2	8
11	11	6
99	99	5
6	7	1
132	132	4
11	27	3
18	18	3
73	80	3
128	128	3
33	33	2
13	17	1
133	133	2
0	64	2
19	19	2
24	24	5
17	17	5
113	113	5
84	84	3
69	70	1
31	32	6
5	36	2
51	51	1
5	5	3
95	96	2
126	128	1
86	86	2
69	122	2
119	119	5
46	77	1
103	103	1
117	117	2
47	47	5
41	93	1
58	84	3
55	56	5
123	123	1
58	59	1
50	78	2
16	36	1
25	27	1
80	82	1
43	55	1
122	122	2
120	122	1
124	124	1
86	92	1
97	97	1
28	28	1
97	98	4
107	124	2
20	58	2
57	60	2
17	36	3
49	49	1
24	26	1
105	105	2
26	26	2
45	46	1
42	42	1
40	41	1
61	61	3
29	78	3
13	14	1
23	24	1
79	81	1
110	128	2
87	90	1
134	134	1
27	79	2
45	86	1
46	71	1
43	104	1
38	82	1
126	126	2
24	25	1
132	133	1
88	101	1
56	57	1
15	16	1
44	92	1
93	100	1
47	48	1
65	66	1
32	33	1
8	10	1
9	10	1
3	3	1
35	36	2
