41	41	9
40	40	7
187	187	5
213	215	1
217	217	5
15	15	10
170	170	8
161	161	9
148	225	4
56	61	3
176	176	14
44	44	8
244	244	4
94	96	3
238	239	10
36	36	10
172	173	7
71	83	3
181	181	12
97	97	10
196	216	2
212	236	5
194	194	10
42	153	1
33	160	2
247	247	19
24	115	2
76	77	2
203	230	4
180	180	5
155	155	3
80	80	10
84	84	2
195	211	2
185	192	3
101	101	6
99	105	2
17	19	5
119	119	4
38	38	2
0	27	3
116	116	8
210	210	7
211	211	7
78	85	3
185	185	10
71	71	11
236	237	3
87	87	18
175	175	6
79	80	8
68	68	10
163	164	9
225	225	9
198	198	9
186	186	13
92	92	12
107	107	7
227	228	8
61	61	7
11	12	3
12	18	3
70	101	3
35	42	2
112	112	8
18	18	8
179	179	11
49	111	1
79	79	7
197	224	1
221	221	8
209	209	5
37	37	2
60	60	4
17	46	2
167	171	2
162	162	6
169	171	5
208	208	3
215	216	8
53	53	10
210	238	2
5	5	5
190	190	3
159	159	10
115	115	25
2	227	2
188	191	3
42	42	18
14	14	4
149	149	1
104	114	3
93	93	7
245	245	6
156	157	8
24	24	18
145	145	3
213	213	3
94	100	6
15	16	1
14	30	3
6	7	1
102	103	4
237	237	5
169	169	7
3	3	4
70	70	6
191	199	2
204	204	4
245	246	4
182	239	7
106	178	3
157	157	4
73	106	6
193	193	6
153	153	4
188	188	2
154	154	17
58	58	5
16	52	2
38	39	4
220	220	4
179	180	3
201	201	1
88	88	4
61	104	4
159	177	1
178	188	1
8	8	7
156	158	5
95	151	2
11	11	7
91	92	4
78	79	8
242	242	12
84	86	2
59	76	4
30	30	8
108	109	6
34	35	5
98	98	5
20	20	3
52	52	8
203	203	16
178	199	1
66	100	3
223	223	6
214	214	11
216	216	5
88	201	3
57	60	1
67	74	1
202	202	6
23	23	8
146	146	6
72	72	2
81	81	7
226	226	8
67	112	2
10	10	5
34	49	5
54	54	9
218	218	3
156	156	7
173	176	5
85	85	7
113	113	4
165	165	5
60	61	1
69	101	1
110	144	2
65	150	1
31	32	1
100	100	4
246	246	7
184	184	13
2	19	3
26	27	5
82	84	2
3	15	4
32	32	2
94	95	2
80	82	7
90	90	4
19	19	5
153	214	6
222	224	1
106	112	2
151	151	12
102	102	4
66	66	4
224	224	5
196	209	2
4	4	4
187	188	5
170	177	4
86	86	3
231	231	2
86	174	1
55	55	2
9	9	2
119	120	3
5	14	4
16	16	1
33	33	5
147	147	3
49	50	3
41	42	9
210	211	4
150	150	6
166	166	6
180	223	3
56	56	1
197	197	6
28	33	4
120	144	1
55	57	2
80	92	1
68	69	3
163	163	5
178	179	2
78	78	7
72	107	3
109	111	1
50	50	2
91	91	7
189	189	7
215	222	1
160	160	1
51	52	5
173	206	1
16	27	2
192	210	2
87	90	3
65	65	4
192	194	1
109	110	1
237	238	3
64	65	3
20	21	1
67	91	1
236	236	5
180	207	4
27	27	7
222	222	6
204	236	2
192	192	3
95	95	6
40	41	5
12	60	1
165	166	7
168	169	5
195	222	1
243	244	2
112	241	1
111	111	8
1	16	3
241	241	10
74	74	5
193	194	4
35	35	2
239	241	1
73	74	2
212	226	2
19	53	1
175	179	2
244	246	3
100	174	1
158	158	3
172	172	8
219	219	12
174	174	1
173	180	1
1	1	3
22	23	3
16	228	1
27	28	2
27	33	2
67	67	2
241	247	1
74	77	3
171	171	8
247	248	2
115	116	1
77	93	1
239	239	7
76	78	1
57	59	1
196	196	2
112	115	3
169	206	3
53	150	2
105	114	2
104	112	2
7	7	10
64	64	3
18	19	1
44	45	1
217	218	7
49	113	3
52	150	2
152	153	1
235	235	5
206	206	2
17	17	3
66	67	2
4	5	1
189	237	4
180	181	3
60	74	2
205	205	2
192	195	1
76	76	5
109	115	4
179	193	2
26	26	6
34	51	1
244	245	3
224	225	1
104	104	3
54	63	3
28	35	1
185	207	2
2	3	6
234	235	1
87	101	2
214	215	5
182	182	3
47	47	3
176	231	3
88	95	3
145	147	2
77	78	7
229	229	2
185	186	1
232	232	3
219	243	3
114	114	1
233	233	6
31	37	1
227	227	6
88	112	1
12	12	2
59	64	2
105	106	5
21	21	9
113	114	2
26	46	2
93	94	1
218	219	4
56	57	5
117	117	3
214	233	2
118	118	2
232	233	3
104	108	3
178	180	4
44	46	1
46	46	2
167	186	1
11	230	1
2	2	8
111	119	1
107	108	2
68	93	1
5	18	2
82	83	3
161	162	1
2	48	1
243	243	2
151	194	2
186	219	3
182	221	2
179	207	1
194	210	1
147	214	1
117	118	5
184	211	2
183	184	2
109	114	2
22	22	1
19	203	1
68	78	1
170	238	1
84	120	1
60	62	1
168	204	2
87	89	4
110	110	4
1	2	1
95	178	1
33	41	1
191	191	6
204	207	2
59	59	7
191	192	3
212	223	1
152	159	1
66	76	5
15	29	1
248	249	3
179	208	1
188	211	1
67	100	2
78	81	1
114	115	1
90	91	2
34	34	3
167	168	1
234	234	5
45	45	4
149	150	2
83	84	2
159	160	1
62	62	1
20	230	1
73	73	3
112	113	2
158	159	1
175	182	1
165	190	2
200	200	1
82	82	6
212	212	1
160	161	1
74	99	2
240	240	2
216	217	1
62	64	2
199	200	2
35	50	2
29	30	1
4	47	2
6	6	2
171	218	1
101	103	2
9	10	1
94	94	1
34	50	1
70	97	1
31	31	3
240	244	1
14	36	2
173	173	2
167	167	3
226	228	2
146	147	2
190	191	2
10	236	1
177	177	2
88	174	3
17	184	1
110	120	3
197	198	1
89	89	2
51	51	3
92	93	1
120	120	2
7	8	2
4	14	2
192	196	3
195	221	2
213	214	1
214	218	2
199	199	1
38	40	1
163	166	3
5	164	1
162	163	1
228	228	2
95	96	1
166	168	1
111	112	1
75	75	10
213	219	1
182	183	1
50	112	2
34	101	2
10	11	1
35	48	2
173	213	1
198	199	2
64	66	1
54	55	1
109	109	1
152	152	3
201	209	2
236	240	1
188	189	2
168	205	1
15	33	1
103	113	3
2	228	2
97	98	1
184	208	2
87	88	1
112	239	1
112	242	1
240	248	1
176	178	1
168	168	2
62	68	1
228	229	1
100	113	1
106	107	1
68	80	1
42	152	1
106	106	1
153	201	1
240	241	1
185	189	2
116	117	1
178	183	1
179	188	2
185	220	1
147	160	1
158	184	1
3	228	2
21	22	2
55	100	1
87	117	1
197	208	1
111	116	1
58	60	1
178	181	1
121	121	1
70	82	1
96	96	1
201	202	1
102	104	1
33	35	1
61	62	1
8	154	1
164	164	1
45	46	1
39	39	1
171	173	1
17	18	1
147	152	1
