68	68	4
25	33	1
98	107	1
57	57	6
75	75	10
100	102	2
104	104	10
32	32	8
90	90	6
46	48	1
92	94	4
52	52	15
36	36	3
62	62	3
41	41	9
89	95	4
43	81	1
22	24	10
26	77	3
28	29	9
41	44	2
88	95	5
100	101	2
23	42	1
48	48	13
94	94	5
92	92	9
28	28	7
92	93	3
98	98	6
84	84	21
93	93	11
80	81	2
63	63	4
50	50	2
88	88	7
100	100	5
83	83	5
62	92	4
68	69	2
33	81	1
46	47	1
73	94	1
29	44	1
63	92	2
64	65	4
91	91	6
35	35	7
78	78	4
32	66	8
96	96	2
21	27	1
60	60	4
30	36	2
25	26	8
33	34	8
88	90	2
65	65	6
86	86	4
38	38	5
63	64	2
66	87	1
33	36	2
71	71	7
74	75	3
29	30	3
74	74	7
80	89	3
37	41	2
105	105	9
81	81	2
43	44	5
93	94	5
30	31	2
36	58	3
22	22	3
80	80	2
90	101	1
34	36	2
103	103	4
62	63	6
24	36	2
89	100	3
57	66	2
60	66	4
77	77	4
20	20	5
40	40	3
95	95	3
61	61	5
55	56	6
54	55	2
31	31	1
34	58	3
24	24	8
87	87	3
51	52	3
33	58	3
70	70	2
77	95	1
82	98	3
96	97	4
37	37	3
44	45	3
70	76	1
47	47	3
56	56	6
42	43	4
78	88	3
97	98	1
72	77	2
40	44	5
57	88	4
94	95	2
101	101	9
62	64	3
31	52	2
102	105	2
34	46	3
34	34	6
42	55	1
78	96	3
53	54	2
79	97	2
84	85	1
77	100	1
34	37	2
43	57	1
94	101	1
76	76	2
42	42	1
26	26	2
82	82	1
82	96	4
53	53	2
35	36	1
69	70	1
23	64	1
32	45	6
21	21	4
61	62	1
22	51	1
36	37	1
49	49	1
91	100	2
85	86	3
95	97	3
95	96	3
78	98	2
77	97	2
28	37	3
72	90	3
58	58	4
39	45	2
25	25	3
82	87	1
45	45	2
27	27	1
90	102	1
27	28	1
22	29	1
91	92	1
54	54	2
72	72	1
98	101	1
82	86	1
39	39	1
38	39	1
48	82	1
102	102	2
59	60	1
84	92	1
78	94	2
43	43	2
89	89	1
89	90	1
35	53	1
89	92	1
60	67	1
41	46	2
58	66	1
58	65	1
22	30	1
72	98	1
102	103	1
33	59	1
