104	143	5
72	72	2
159	164	3
36	36	16
0	1	2
148	149	1
29	29	4
95	95	3
7	7	9
38	41	2
4	6	1
137	137	3
90	91	3
12	12	4
42	42	1
43	43	8
103	106	5
13	13	11
18	19	8
101	179	3
19	20	5
30	30	2
12	18	4
22	23	1
58	58	2
74	74	2
37	42	4
52	52	6
106	147	1
42	44	2
50	50	4
65	66	1
10	11	6
17	17	6
24	25	1
14	19	4
14	14	8
67	67	1
126	127	2
80	82	1
87	99	2
147	148	1
4	4	4
34	35	4
100	101	2
66	66	3
80	80	4
13	17	3
23	23	7
21	22	2
12	13	4
134	134	1
160	163	2
31	31	2
2	5	1
158	161	2
8	8	5
132	132	1
94	94	1
37	37	4
157	157	2
11	13	1
2	2	9
169	169	5
38	38	5
57	57	7
85	85	1
25	26	2
125	125	2
26	26	3
35	35	11
97	97	1
168	172	2
62	62	2
133	134	3
16	16	6
26	28	3
24	24	5
89	144	3
127	128	3
45	45	2
98	99	2
14	33	2
34	34	4
138	138	6
160	160	2
122	122	2
154	156	3
33	34	2
15	15	2
6	19	1
145	147	2
33	33	1
11	11	5
164	164	7
130	131	2
27	27	6
16	18	2
75	75	2
10	14	2
119	119	1
107	138	3
24	37	5
151	151	4
146	149	5
20	20	2
155	155	1
2	50	1
173	173	3
32	32	6
10	16	2
1	5	2
4	46	1
82	82	4
77	77	1
150	151	1
12	33	3
28	28	5
145	145	7
30	31	2
121	122	1
7	42	1
150	154	2
6	7	1
82	83	3
15	30	4
20	30	2
18	18	7
84	115	2
133	143	1
87	87	2
7	9	1
172	172	6
3	3	5
118	131	2
9	9	2
60	60	4
88	88	9
26	32	1
55	56	1
113	114	3
155	156	1
177	178	2
144	157	3
115	141	2
167	168	2
83	143	2
160	162	5
104	107	1
25	25	3
114	132	1
117	117	3
6	6	4
94	95	1
157	158	3
165	165	1
1	1	5
4	15	4
58	93	1
164	166	1
156	156	4
18	20	2
107	107	2
6	14	2
140	141	3
117	118	1
175	175	2
15	31	1
149	172	1
73	73	1
45	46	2
72	74	2
14	15	1
100	100	3
58	124	1
13	14	2
99	100	2
146	146	4
151	153	1
140	140	3
27	29	1
104	104	3
149	149	2
53	53	2
111	111	1
111	112	3
126	126	5
22	31	1
150	171	1
66	98	1
0	73	1
5	6	1
78	78	1
73	74	1
64	65	1
30	33	2
4	8	1
158	158	5
159	162	1
71	71	4
59	109	6
173	174	1
102	179	1
133	133	2
29	33	2
84	84	1
23	68	1
81	81	2
40	40	2
63	64	1
122	158	1
61	61	2
98	98	4
139	139	3
49	49	2
8	9	5
43	44	1
91	163	1
29	39	1
136	136	4
172	174	1
91	91	1
11	31	1
101	105	1
157	165	2
21	21	1
56	173	1
174	177	1
140	146	1
20	21	1
60	61	1
144	144	2
163	163	1
118	144	1
94	98	1
105	105	1
23	26	1
160	164	2
99	180	1
66	67	1
25	27	1
159	159	1
41	41	2
5	5	1
147	147	2
81	85	1
116	117	2
39	39	1
120	121	1
105	106	2
134	135	1
93	93	1
168	168	1
170	170	2
165	167	3
89	94	1
3	4	1
10	10	1
79	79	2
5	8	1
22	22	1
167	167	1
29	30	1
113	113	1
101	109	1
124	125	1
162	162	1
62	104	1
152	152	1
37	137	1
121	121	1
120	151	1
3	33	1
123	125	1
113	116	1
141	141	1
9	35	1
56	56	1
44	44	1
81	142	1
154	154	1
166	166	2
68	68	1
19	21	1
141	144	1
86	117	1
23	25	1
7	46	1
73	92	1
107	110	1
