50	50	25
28	28	11
54	54	39
94	95	17
71	74	2
32	32	7
38	39	20
31	32	16
103	103	14
97	97	10
76	76	34
71	75	1
64	64	16
56	56	25
21	21	13
36	39	5
102	102	20
100	100	24
74	74	42
75	77	2
77	77	15
69	69	38
106	106	21
46	47	7
63	63	19
79	79	4
77	81	4
59	59	17
71	72	15
51	52	25
55	55	38
62	62	29
51	58	2
66	66	23
47	49	5
72	72	23
53	53	26
90	90	26
86	86	11
71	71	20
40	45	2
24	25	10
47	47	10
22	24	4
45	45	5
96	96	32
85	85	14
56	57	5
68	68	37
101	102	6
77	104	9
80	80	9
35	35	23
71	76	12
35	53	6
51	51	30
99	99	18
25	25	18
46	48	3
91	92	5
97	99	7
30	30	22
31	31	14
98	98	9
39	40	5
62	63	5
35	73	1
57	57	13
58	58	36
35	36	1
23	23	28
89	89	13
92	92	31
22	22	29
79	80	4
93	93	24
88	88	7
60	60	24
29	29	10
37	37	15
98	99	9
99	100	4
42	45	7
35	52	4
91	93	4
33	34	6
61	85	2
31	61	4
83	83	12
60	61	2
40	40	24
65	67	11
96	105	2
90	93	4
24	54	6
25	26	8
73	73	37
70	70	23
49	49	21
65	66	18
43	43	9
105	105	19
39	39	23
53	76	1
38	38	17
101	101	17
63	65	5
99	106	6
61	61	25
30	31	6
76	77	15
82	84	2
33	49	2
103	104	4
94	94	26
21	23	8
50	51	13
27	27	7
77	78	14
68	74	4
26	27	7
65	65	21
20	20	5
42	64	1
67	67	19
82	83	10
45	46	13
61	62	19
32	33	12
39	44	3
79	98	1
22	61	6
75	75	23
104	105	10
62	68	4
104	104	15
52	55	2
87	88	12
47	48	7
23	31	3
87	87	15
46	56	2
34	34	28
68	75	5
91	94	4
52	53	16
63	64	16
74	75	12
67	69	4
78	78	16
50	64	1
92	93	12
37	38	6
84	84	18
82	82	8
52	52	20
67	68	12
34	35	5
72	73	3
44	45	6
75	76	8
23	24	13
66	67	9
97	98	5
67	81	2
90	91	12
36	36	21
54	55	4
48	59	1
73	76	3
60	83	1
95	95	15
34	50	3
89	98	2
70	76	1
68	70	2
39	94	1
55	64	8
24	24	13
78	79	9
25	30	3
21	22	5
41	48	2
26	26	4
42	42	16
33	33	13
81	81	8
41	41	10
83	84	16
78	98	2
20	21	5
87	97	1
52	56	8
63	104	3
83	95	3
73	75	1
60	82	2
91	91	22
61	105	2
20	26	4
74	100	3
49	50	4
68	69	6
50	52	4
74	87	1
88	89	1
56	90	2
53	54	4
96	97	4
27	28	3
54	62	1
23	61	1
42	46	2
57	105	3
41	42	5
89	99	1
23	25	3
94	99	1
35	51	1
22	26	2
34	36	5
27	29	2
77	80	2
28	29	2
84	85	3
55	56	11
102	103	3
106	107	3
40	41	3
100	101	4
61	64	1
81	87	2
29	30	2
51	56	2
40	48	2
24	28	2
45	47	3
70	73	3
78	95	1
56	60	1
96	98	2
70	72	8
39	101	1
64	65	7
58	82	2
61	95	1
34	37	1
90	98	2
70	71	5
30	32	3
98	106	4
59	62	1
102	104	1
94	97	2
69	70	7
19	20	2
67	74	1
47	59	2
71	89	2
61	63	2
26	28	1
48	62	4
54	58	2
86	97	2
88	98	1
21	31	4
46	96	1
40	101	1
73	74	8
40	42	1
85	90	2
57	58	8
56	58	1
66	69	2
58	59	5
40	44	1
43	57	1
76	80	1
79	86	2
32	34	1
43	46	1
22	23	6
42	44	3
47	50	1
89	97	3
76	78	2
86	87	2
42	49	2
54	61	1
49	51	1
68	97	2
93	105	4
21	29	2
53	55	2
80	81	3
46	46	4
107	107	1
68	96	1
58	60	3
77	79	1
102	105	1
95	96	3
54	64	2
94	96	2
82	86	4
55	57	2
89	90	5
80	96	4
45	50	2
28	59	2
48	48	2
90	100	2
100	102	5
59	60	1
72	75	2
89	100	1
26	29	1
70	87	1
49	52	1
36	37	4
99	107	1
64	69	1
60	62	4
46	97	1
75	90	1
57	64	1
25	27	2
44	49	1
89	94	1
104	106	1
57	59	1
83	86	1
34	39	1
85	97	2
61	68	1
97	106	1
37	39	2
44	44	2
51	55	2
85	86	1
52	54	2
82	87	1
71	98	1
55	100	1
58	61	1
43	44	2
31	54	1
78	80	1
33	47	1
27	30	1
64	66	1
68	71	1
75	104	2
24	31	1
41	44	2
92	96	1
92	94	3
71	88	1
63	70	1
31	51	1
62	85	2
35	71	1
23	53	1
71	102	1
48	49	1
42	48	1
68	76	1
62	67	1
72	76	1
35	74	1
83	85	1
