9	9	1
128	128	25
49	52	9
137	137	12
127	127	8
39	49	4
1	1	10
143	143	9
96	96	11
0	0	3
24	24	7
83	83	29
80	83	1
98	126	1
134	135	7
55	55	14
65	126	2
108	112	5
48	48	11
29	29	9
137	138	8
122	123	6
0	1	7
135	135	8
2	2	7
59	140	2
92	92	5
108	108	3
135	139	4
97	106	3
140	141	6
131	131	13
37	37	16
83	85	2
51	51	4
55	137	2
6	40	3
64	89	1
105	105	5
31	31	10
146	146	3
83	84	2
43	47	2
58	59	1
132	132	14
50	52	2
36	39	1
73	73	6
124	128	1
99	99	7
15	15	5
128	129	4
69	69	9
113	114	7
48	52	1
125	128	6
124	125	9
21	21	3
33	36	3
39	56	2
84	84	4
62	63	4
35	35	6
56	143	3
90	90	4
50	50	11
111	112	6
54	54	7
10	10	11
59	60	1
76	76	1
65	68	7
135	141	5
134	134	11
36	36	15
3	4	10
8	20	2
32	32	9
125	125	5
78	78	1
33	33	1
71	71	3
112	122	3
126	130	2
107	136	1
140	140	6
59	59	6
8	17	1
106	106	6
130	130	8
77	77	6
88	111	1
22	22	5
84	85	1
114	114	3
120	123	1
126	129	9
133	136	2
67	67	5
19	22	9
65	65	9
66	142	2
41	41	4
76	77	2
142	144	3
139	139	11
82	92	2
8	12	1
71	72	2
37	38	2
49	49	11
106	110	1
109	114	1
119	119	10
86	86	3
129	129	8
91	111	2
95	95	4
18	21	1
81	81	4
96	110	6
6	20	1
13	81	2
3	3	1
108	109	6
77	128	1
23	24	4
100	100	7
117	144	2
85	86	4
40	41	3
53	53	9
121	135	1
15	16	10
71	136	1
30	32	2
133	134	6
75	75	2
58	58	4
62	67	3
87	87	5
62	112	2
93	93	6
52	52	5
66	66	8
11	11	1
8	8	6
13	13	13
57	92	1
51	55	2
111	111	2
40	88	1
34	36	5
73	87	4
9	49	1
17	17	6
62	68	3
2	4	4
104	104	1
138	138	8
31	53	1
142	142	6
107	110	2
104	105	1
66	67	3
122	122	3
101	129	1
65	83	3
144	144	4
57	68	7
57	58	3
61	84	2
79	79	10
68	127	1
53	143	1
98	106	2
73	82	4
112	112	5
5	13	5
106	109	3
14	14	6
88	89	6
133	133	12
9	76	2
109	134	1
99	102	5
25	28	2
131	135	1
89	89	12
107	113	1
8	9	5
37	39	2
110	111	3
122	141	2
20	37	2
38	49	1
92	125	2
89	90	4
121	123	4
122	138	3
136	137	5
4	4	3
74	74	4
63	63	10
123	123	7
110	110	4
12	12	1
126	126	13
109	109	2
61	72	3
98	132	2
32	33	1
92	94	2
40	87	4
102	103	3
120	120	5
110	132	3
38	52	1
72	138	4
131	134	4
60	67	2
41	42	2
115	115	7
112	115	6
123	140	1
68	68	9
101	135	3
142	143	5
103	107	7
91	91	6
70	72	5
118	119	2
98	133	3
101	102	2
6	11	1
119	120	3
94	97	2
69	70	9
111	127	3
42	42	4
53	54	3
43	53	2
5	5	4
16	16	2
121	121	4
20	20	8
58	62	4
141	141	12
38	39	1
2	27	1
77	78	3
105	106	4
64	64	2
15	94	5
73	136	1
136	136	8
98	98	1
39	39	4
55	140	2
57	61	2
123	125	2
19	19	4
39	41	1
104	107	1
137	139	2
17	77	3
56	135	2
33	37	2
100	122	1
34	35	3
143	144	3
107	107	4
127	130	3
9	50	1
82	88	1
72	123	1
93	125	5
79	80	1
18	24	1
63	64	6
106	123	1
15	21	2
79	84	3
43	52	3
92	104	3
114	115	9
1	26	4
88	88	5
112	116	2
115	116	3
92	93	1
50	51	1
57	57	3
20	21	3
71	73	2
14	21	4
119	122	3
39	40	3
80	80	3
121	139	1
55	59	3
99	100	2
74	80	2
108	117	1
71	74	3
97	98	1
117	117	2
136	139	5
82	83	1
118	118	4
71	76	1
124	131	3
103	103	5
116	116	5
107	126	1
57	84	2
75	76	2
25	25	2
145	145	2
101	101	8
87	90	2
33	63	3
111	126	2
88	90	1
114	118	5
5	6	3
35	43	1
43	43	2
34	34	5
57	63	3
31	37	1
9	81	2
84	133	2
32	42	1
26	26	5
123	137	5
97	101	3
13	14	1
28	29	3
50	143	2
97	105	1
112	135	3
122	135	2
11	38	1
99	103	4
137	140	2
124	126	2
31	32	2
88	98	1
105	112	1
28	28	7
136	138	3
89	111	6
83	133	1
61	61	3
58	81	1
33	35	2
108	122	2
123	124	2
119	123	2
5	40	3
25	26	1
2	12	3
113	113	4
109	110	2
59	63	1
82	91	2
129	137	1
117	120	1
66	129	1
18	19	4
104	109	2
113	129	1
35	42	1
19	37	2
47	51	3
125	126	1
23	63	1
84	92	1
25	27	3
59	61	1
15	92	1
115	122	1
126	131	1
27	27	4
77	80	1
17	19	3
20	22	3
129	130	2
2	26	2
86	129	1
127	135	2
50	53	3
106	107	3
124	124	6
85	96	2
62	62	1
38	38	4
76	79	1
24	53	2
93	94	1
40	40	3
26	27	1
31	35	3
82	82	2
74	134	2
123	135	1
30	36	2
117	118	1
115	117	1
129	131	1
51	52	1
32	36	1
78	131	2
23	32	1
72	73	1
133	142	1
98	135	1
22	23	1
54	64	3
72	72	4
139	140	1
62	65	1
56	57	1
92	110	1
119	121	1
46	81	1
74	75	1
30	30	1
135	136	1
59	80	1
67	68	1
81	96	1
64	86	1
81	92	2
55	56	2
98	99	1
118	122	1
78	79	3
114	120	1
110	113	2
109	117	1
120	132	2
0	26	1
8	19	1
109	116	1
127	133	1
85	85	2
18	18	2
10	14	1
16	17	1
27	28	1
110	122	1
92	96	1
89	96	1
130	133	1
98	105	1
13	15	1
89	91	1
102	102	1
64	88	1
56	87	1
70	73	1
4	41	1
18	20	1
128	134	1
107	109	1
121	138	1
67	129	1
76	78	1
4	5	1
104	124	1
135	138	1
62	85	1
