26	26	6
176	177	9
27	27	18
111	112	1
131	131	3
129	130	3
215	216	1
162	179	10
201	202	3
202	202	9
20	25	3
148	148	2
49	49	9
226	226	2
241	241	13
179	186	5
211	211	17
123	123	3
42	43	4
229	229	5
188	189	8
222	222	8
100	102	2
51	52	2
1	1	8
59	60	5
205	206	4
216	218	2
27	28	3
202	204	3
129	129	13
219	219	14
127	156	3
218	219	3
190	190	11
70	70	15
40	40	14
205	205	4
99	100	3
142	170	3
156	157	6
185	187	1
112	113	1
119	119	10
189	189	1
204	206	9
0	0	20
9	9	8
194	195	7
116	116	2
3	8	9
180	181	4
209	210	4
2	31	4
198	198	27
214	215	6
79	79	8
112	112	3
9	10	14
210	210	10
215	215	9
71	71	5
21	21	17
14	15	2
34	34	6
174	174	7
191	191	19
186	186	6
67	68	9
162	163	2
53	53	11
225	227	2
195	197	2
33	34	4
125	139	2
54	55	1
166	166	11
152	152	7
228	229	7
20	20	11
10	26	1
175	176	2
67	147	2
207	208	4
204	204	7
177	177	12
74	74	23
73	120	4
36	122	1
42	63	1
40	41	3
173	173	14
212	212	8
23	23	7
66	67	13
126	126	7
13	15	3
32	33	3
44	44	3
24	25	2
16	16	3
3	3	4
233	239	6
32	32	6
203	203	9
202	234	3
10	10	5
218	218	11
73	73	11
49	51	2
175	180	2
72	72	8
231	231	5
32	36	4
64	64	1
203	213	1
3	9	1
2	4	3
206	206	1
66	68	2
36	36	4
188	188	6
178	178	4
46	201	1
221	221	5
57	57	5
195	196	7
58	58	4
120	120	6
88	118	2
83	84	3
17	17	3
49	50	4
182	182	4
59	59	4
207	207	3
65	65	9
179	179	12
138	139	4
42	44	1
36	153	3
103	104	3
99	101	1
76	117	2
31	33	2
183	183	5
86	86	14
69	69	6
80	81	6
5	5	4
235	235	4
6	7	1
232	233	3
240	240	7
75	75	4
231	232	1
151	151	11
227	227	4
55	57	1
30	30	11
154	171	1
37	37	12
159	159	6
31	31	3
23	24	1
234	234	9
31	78	2
62	62	7
196	196	4
62	63	11
82	83	1
124	124	5
41	41	8
50	51	4
160	160	10
239	239	6
125	126	5
89	90	2
15	16	8
159	183	1
166	167	4
127	127	10
223	223	4
98	98	7
101	101	5
153	154	7
25	26	2
174	175	5
63	63	7
125	125	4
41	134	6
161	161	6
109	109	1
109	110	2
11	70	6
19	19	19
162	162	6
238	238	10
202	203	2
68	95	3
56	56	7
153	153	2
226	227	1
5	7	1
181	182	8
98	99	7
166	170	6
20	50	5
195	195	5
125	136	5
103	103	6
134	134	11
61	61	19
224	225	4
197	197	6
208	208	9
26	27	4
104	126	2
65	68	2
200	201	5
3	11	4
144	145	3
100	100	2
42	42	6
36	40	2
12	12	13
225	225	10
121	122	2
175	175	6
25	25	2
71	120	4
42	133	1
137	137	8
12	19	2
21	22	7
46	61	2
144	144	9
6	11	1
41	43	1
122	190	2
217	217	5
88	104	3
158	158	11
224	224	7
45	45	9
154	155	2
6	6	9
199	199	6
20	22	1
190	191	6
106	106	4
192	192	9
25	212	1
16	23	3
12	14	4
11	11	3
23	25	3
77	78	1
43	97	4
50	50	13
67	69	1
7	8	6
170	171	5
10	39	1
2	3	7
217	218	8
182	184	3
158	159	3
12	229	1
10	11	4
45	46	1
227	229	6
167	167	5
29	75	1
160	166	1
233	233	3
8	9	2
200	200	8
13	17	2
104	104	6
170	170	10
177	178	3
86	172	1
121	121	7
80	80	2
88	119	1
48	52	1
114	114	8
64	65	6
37	38	4
165	165	3
200	212	1
166	188	2
76	76	2
11	19	2
230	230	5
70	71	6
46	46	11
67	67	3
37	46	3
236	239	2
150	150	6
30	31	3
205	209	2
7	7	4
22	23	2
1	26	2
39	41	3
214	214	2
99	99	4
21	23	6
6	12	7
69	70	2
40	58	2
143	144	4
57	60	3
213	215	1
39	40	8
85	85	9
154	154	7
13	41	2
9	11	2
23	223	3
107	110	2
122	122	2
155	155	4
203	204	1
191	192	4
13	16	1
184	185	6
71	216	1
2	2	5
12	20	1
80	83	3
53	55	2
110	155	1
234	237	1
223	225	4
161	164	2
77	79	2
0	1	4
187	188	5
234	236	3
144	146	1
113	114	2
48	133	1
210	211	5
122	136	2
29	30	4
55	56	2
197	210	1
28	28	12
5	6	1
60	61	2
43	43	6
84	85	5
107	125	2
128	128	3
39	39	10
52	52	6
88	88	3
153	168	1
105	107	2
70	105	2
8	8	4
60	60	8
48	56	3
146	188	1
47	47	8
226	228	2
68	69	2
12	13	4
237	237	1
55	55	8
29	29	6
209	209	4
11	228	1
137	138	1
150	151	11
34	35	2
54	54	9
152	172	3
199	218	3
3	5	1
147	148	3
186	189	1
104	105	4
201	203	2
7	18	2
184	187	2
26	211	1
191	202	2
216	216	8
141	143	2
161	183	2
66	66	9
9	42	2
11	21	3
220	220	8
20	216	2
36	121	2
83	83	3
30	32	1
89	89	4
145	146	2
229	230	3
35	134	2
119	172	1
95	95	2
4	4	2
189	190	4
176	178	4
22	230	2
136	152	1
95	96	2
185	185	3
107	107	2
213	213	7
105	105	12
133	140	1
212	217	1
43	44	1
161	162	4
43	61	3
95	97	3
120	121	6
47	122	1
171	171	1
68	68	6
14	14	4
102	102	7
208	223	2
18	18	4
76	77	2
162	175	1
230	231	2
204	222	4
126	127	1
181	181	2
164	164	2
28	30	2
15	15	1
129	163	1
41	133	1
163	167	3
176	176	2
35	139	1
96	96	3
9	20	1
199	200	3
61	62	5
214	216	2
67	151	2
13	19	1
97	99	1
165	167	1
141	141	3
84	84	2
25	154	1
139	140	2
40	53	2
12	228	1
221	222	3
35	35	3
24	24	2
221	226	4
115	115	6
146	146	2
28	151	2
180	180	2
65	66	1
53	54	1
11	13	4
113	113	2
82	82	2
44	45	3
167	174	1
228	228	4
58	60	3
38	38	9
201	201	3
4	17	2
170	184	2
133	135	5
53	56	1
10	27	1
159	160	2
84	207	1
213	227	1
90	90	1
111	111	1
124	125	1
206	207	2
47	48	1
72	73	2
1	2	1
14	50	1
223	224	3
21	80	2
81	81	2
135	135	2
138	138	2
226	231	3
207	223	1
102	122	1
142	143	1
97	97	3
128	159	1
140	141	1
172	173	1
45	60	2
85	223	1
204	226	1
20	24	1
123	124	1
116	117	2
12	48	1
113	240	2
107	108	1
18	21	3
96	106	2
7	13	2
49	56	4
75	76	2
38	42	2
188	206	2
110	110	4
8	39	2
33	33	1
41	56	1
157	157	1
161	181	1
4	24	1
169	169	2
143	143	4
68	143	4
133	138	1
32	157	1
65	67	4
77	77	1
83	116	1
168	169	3
9	231	1
46	47	1
221	227	1
106	109	1
187	187	3
9	23	2
125	127	1
40	43	2
133	133	3
88	171	1
232	232	1
161	172	2
28	29	1
95	102	1
142	142	1
132	135	1
133	134	1
172	172	7
185	189	1
160	161	2
169	170	2
64	98	1
163	163	1
127	157	1
190	198	2
26	178	1
213	218	1
128	135	1
51	51	1
212	213	3
43	63	2
156	156	2
79	81	2
139	139	1
22	226	1
206	209	1
80	82	1
27	39	2
24	67	1
4	6	1
13	14	2
2	32	2
22	22	1
76	95	1
117	118	1
72	120	1
122	153	3
14	16	1
23	230	1
186	187	1
118	118	1
188	205	1
140	140	1
58	59	1
38	39	1
193	193	1
173	174	1
40	96	1
178	179	1
196	197	1
228	230	2
233	235	1
157	159	1
28	109	1
88	170	1
11	23	1
75	106	2
73	74	2
115	117	1
123	134	2
25	230	1
226	230	2
70	72	1
85	86	1
124	138	1
165	168	1
118	119	1
220	221	1
152	153	2
105	106	1
75	205	1
116	118	1
159	182	1
80	84	1
25	32	1
40	55	1
74	75	1
24	26	1
3	12	1
55	183	1
81	82	1
127	128	1
240	241	1
35	138	1
234	235	1
136	137	1
234	238	1
