34	34	9
63	66	2
2	2	18
42	42	6
20	21	12
20	20	19
61	61	6
9	9	18
67	67	7
21	25	3
7	7	12
77	77	10
65	66	4
12	29	1
26	26	17
55	56	3
33	33	4
57	57	6
27	28	4
56	56	24
36	37	7
35	35	6
13	13	14
69	69	12
67	68	3
53	54	3
42	43	3
69	74	3
26	28	6
44	49	5
68	68	21
40	41	5
7	8	9
9	10	6
71	72	3
43	43	15
71	71	4
12	12	8
3	3	30
10	10	8
62	64	10
19	37	2
39	39	14
73	73	8
55	55	15
50	51	11
72	72	10
40	40	9
37	39	3
30	31	2
43	55	4
35	53	3
9	11	1
19	20	5
62	62	3
54	55	5
38	56	4
49	49	7
21	21	16
46	46	18
18	33	1
6	7	4
46	47	11
41	41	5
48	55	4
70	71	1
11	11	13
47	47	12
62	63	8
38	39	3
6	6	9
31	31	5
32	32	4
34	66	1
36	36	2
49	50	1
50	50	6
28	44	1
1	1	6
26	27	3
64	65	4
39	43	1
69	70	5
24	24	8
22	41	3
4	5	6
66	68	4
45	45	19
33	52	2
54	54	7
25	25	6
19	19	7
8	8	10
25	26	5
29	32	2
52	53	4
72	76	6
66	66	5
23	23	4
4	32	4
34	35	5
48	52	3
31	32	2
60	61	9
35	36	3
64	64	7
0	0	7
29	30	3
20	55	4
25	27	3
11	12	3
36	40	5
6	8	1
44	44	11
75	75	7
53	53	5
12	13	4
18	43	1
30	60	3
73	74	1
48	48	11
56	57	1
54	59	3
23	24	2
63	63	4
49	51	1
41	52	2
45	46	1
58	58	9
44	46	3
32	34	5
76	76	4
60	60	8
65	65	11
27	27	4
20	25	1
55	59	2
55	76	4
5	6	3
59	63	3
48	49	2
18	18	3
33	34	1
70	70	5
52	52	5
30	30	1
23	35	4
54	60	4
0	2	1
58	59	4
1	2	5
74	74	8
75	77	2
51	51	3
37	38	2
68	69	1
38	38	5
2	18	3
20	43	1
0	1	2
49	58	1
21	22	1
59	64	4
75	76	3
18	19	1
43	44	3
3	4	1
24	26	3
74	76	2
72	77	1
63	64	1
72	73	1
65	67	1
59	60	6
31	42	2
22	42	1
8	9	1
33	43	1
33	55	1
18	56	4
47	49	1
22	23	2
14	14	1
69	71	1
22	22	6
32	33	1
43	45	2
22	35	1
37	55	1
63	65	3
28	28	2
45	75	1
24	25	2
74	75	1
45	47	1
0	19	2
32	40	3
22	25	1
1	40	1
2	32	1
66	67	1
68	70	3
10	11	3
71	73	1
2	31	1
4	4	1
7	10	1
61	62	2
53	55	1
20	44	1
24	39	1
4	6	1
7	12	1
0	28	1
64	68	1
28	45	2
5	5	1
0	32	1
0	39	1
