135	145	4
122	145	2
12	124	1
160	176	5
111	111	2
134	134	3
152	153	3
164	164	6
168	169	2
116	149	2
1	1	2
122	122	6
17	18	2
134	144	5
189	190	6
163	164	1
197	197	4
182	182	10
147	154	3
131	162	2
42	42	14
101	104	3
61	62	1
18	18	2
185	186	11
3	40	2
146	146	14
3	3	8
30	30	3
32	49	1
175	176	1
100	101	1
139	139	5
153	193	6
145	145	8
38	38	5
138	194	2
184	184	1
138	140	4
156	156	8
21	22	4
173	176	2
150	150	8
120	122	3
20	20	2
24	25	2
120	123	2
3	4	1
36	36	3
151	167	3
152	181	2
145	151	2
58	58	3
174	174	5
145	146	2
193	193	8
101	101	9
113	113	9
55	55	2
14	14	2
9	52	4
134	135	4
61	73	1
183	183	5
6	22	4
186	186	3
185	185	6
73	81	2
76	76	2
96	96	5
106	106	4
15	15	2
96	155	4
115	115	4
4	149	2
114	122	3
30	31	3
61	61	8
107	108	2
5	5	2
96	148	1
181	181	7
178	178	5
72	86	5
104	104	7
132	141	5
152	152	6
170	170	6
130	130	8
27	27	7
172	172	9
48	49	3
126	126	3
85	85	3
187	188	6
112	112	5
8	30	3
16	127	1
73	73	3
13	13	2
134	146	3
30	37	2
98	137	1
39	39	3
110	110	3
111	142	1
77	77	3
23	23	8
18	19	4
77	79	1
2	2	2
143	143	2
159	159	4
89	89	4
157	157	9
94	94	4
119	120	13
59	59	1
150	192	1
154	154	6
194	197	2
179	179	7
50	50	4
139	140	3
88	88	3
74	74	1
37	114	1
22	22	8
11	43	2
157	158	2
139	197	1
113	121	1
71	73	1
189	189	5
166	169	3
33	33	1
136	136	5
10	11	2
37	50	2
8	9	1
110	132	1
0	2	1
194	195	2
67	77	2
107	107	4
153	153	4
166	166	4
133	135	1
173	173	3
180	180	10
128	129	3
192	193	2
44	44	8
165	165	1
160	160	1
158	158	6
194	194	1
135	136	1
175	175	2
6	7	3
193	194	2
25	26	4
7	7	2
169	169	1
28	131	3
169	185	1
12	12	8
195	196	8
48	48	1
34	39	2
83	84	4
80	80	2
70	70	1
144	144	8
104	106	1
44	125	1
123	123	5
57	57	3
161	161	1
183	184	2
137	137	1
105	105	1
34	34	3
116	117	3
116	121	1
191	191	4
132	132	3
128	186	1
42	44	3
45	45	4
40	41	4
79	79	1
105	185	1
141	141	2
108	110	3
95	95	2
151	151	3
14	15	3
102	104	1
69	71	1
15	72	1
147	147	4
100	112	2
173	178	1
30	43	4
102	102	1
72	72	4
120	120	6
116	116	5
50	52	1
144	145	2
129	184	1
2	3	2
2	150	3
121	121	1
130	131	3
49	49	5
15	71	1
188	188	2
47	56	2
81	81	2
1	2	5
9	9	2
129	129	6
21	21	3
41	41	4
117	130	3
87	87	1
31	31	2
112	113	1
135	137	2
87	88	1
37	38	1
187	187	1
164	190	1
112	171	2
16	16	1
174	176	1
109	109	1
71	71	3
132	133	2
105	139	1
32	32	1
176	176	2
170	171	3
81	82	2
31	43	4
59	89	1
170	190	1
131	165	1
130	147	1
68	90	4
172	175	1
46	59	1
34	35	1
167	168	1
149	164	1
28	29	2
47	47	1
181	182	1
40	59	1
30	119	4
4	4	2
171	171	1
131	133	1
142	142	4
35	35	1
9	32	1
60	86	1
128	128	2
140	140	2
54	56	1
26	26	2
176	177	1
133	144	1
97	166	1
66	66	3
159	182	1
170	176	3
163	163	2
111	112	1
138	138	1
12	14	1
154	183	1
54	54	1
107	133	1
32	33	1
136	137	1
44	121	1
8	8	2
59	60	1
110	141	1
17	17	2
124	124	1
149	149	3
43	44	2
7	8	2
80	81	2
55	87	1
1	25	1
84	87	1
50	90	1
22	40	1
151	168	1
76	77	2
127	127	1
135	135	1
161	164	1
30	32	1
187	189	2
143	145	1
174	175	2
29	115	1
172	178	1
24	24	1
82	84	1
51	51	1
113	119	1
53	53	1
148	148	1
186	187	1
177	178	1
159	162	1
190	193	1
