16	17	4
209	209	4
0	4	2
162	162	4
33	35	3
127	128	4
214	216	1
152	155	5
210	210	10
153	153	6
3	5	1
178	178	8
101	101	3
50	76	3
6	6	4
70	70	5
143	143	4
136	136	6
185	186	4
104	104	9
64	64	6
44	44	16
96	96	3
80	80	6
163	164	2
232	232	3
137	137	1
212	226	3
238	238	6
175	175	1
227	227	2
199	223	3
36	36	4
117	226	2
30	31	3
99	99	7
56	56	4
3	4	3
1	1	2
24	43	1
55	55	6
49	49	6
69	69	11
173	173	2
29	29	8
62	63	3
0	1	4
154	155	5
237	237	4
229	229	4
9	10	4
125	134	6
74	74	7
207	208	3
143	146	3
16	16	5
61	61	3
204	204	11
11	231	4
106	106	1
79	80	3
226	226	4
53	53	3
54	54	5
150	150	8
108	108	2
40	213	2
83	113	2
8	8	4
161	161	5
19	19	9
102	102	9
215	216	1
109	109	3
47	47	5
58	58	2
205	205	8
17	31	1
54	56	4
121	121	2
73	73	4
11	11	6
200	201	2
12	12	6
52	174	1
13	230	2
32	32	2
235	235	3
238	239	2
187	188	3
160	198	4
119	119	2
21	22	4
225	225	6
20	20	5
21	21	1
186	203	1
17	17	2
7	7	8
65	65	8
24	24	11
209	221	2
25	26	3
224	224	3
4	4	5
180	182	2
228	228	2
190	192	1
208	208	4
34	34	2
130	130	6
233	234	5
112	113	2
193	193	2
191	191	8
129	129	3
198	199	3
174	197	3
68	73	1
109	120	3
10	10	4
13	13	4
42	42	15
103	104	3
2	2	4
196	196	7
108	109	1
157	157	3
5	24	3
151	151	3
98	98	3
78	79	1
184	184	1
83	83	3
10	11	1
212	213	2
133	133	1
99	166	1
178	196	1
88	88	6
236	237	2
168	170	1
11	212	1
12	212	2
180	180	2
122	122	2
61	70	6
5	5	1
77	78	2
44	45	1
169	171	3
38	39	2
71	85	1
84	84	6
160	201	2
212	214	2
97	97	4
38	43	2
164	165	2
100	100	2
135	135	7
189	189	2
27	28	6
25	25	4
54	55	2
71	71	1
124	124	3
138	140	3
7	31	2
1	2	6
153	168	1
168	169	5
167	167	1
21	23	1
46	47	3
128	128	3
186	186	1
161	191	1
26	26	6
15	15	3
217	217	3
173	174	6
184	185	5
86	86	5
214	214	3
181	181	5
55	192	3
30	36	2
187	195	2
71	72	2
60	61	2
47	50	2
101	106	1
14	14	4
22	22	1
88	89	2
241	241	2
207	207	3
67	67	4
169	169	1
146	147	1
47	48	1
50	50	2
95	95	4
9	11	1
15	17	4
42	43	1
231	231	7
147	148	1
75	77	3
20	43	1
101	102	2
141	182	1
39	40	2
135	161	2
145	147	3
81	84	1
127	135	1
60	60	2
240	240	1
118	224	2
46	46	5
39	39	4
78	78	3
27	27	3
172	172	1
204	206	3
114	114	6
43	43	1
83	84	1
66	85	1
76	76	2
13	20	3
167	168	1
45	45	3
115	118	2
210	219	1
95	99	3
107	124	2
115	115	4
24	101	2
6	24	3
63	63	3
194	194	1
37	63	3
119	210	5
54	72	1
105	105	1
234	234	2
213	227	2
36	37	1
109	110	2
231	232	1
187	187	2
28	28	3
51	52	2
30	30	5
158	159	1
165	166	2
147	151	1
6	8	3
156	210	3
135	144	1
174	196	3
192	192	1
53	76	1
163	163	3
209	211	3
222	222	1
139	140	3
164	164	2
36	60	1
16	22	1
201	202	1
218	219	2
57	57	3
188	188	3
59	59	3
49	50	3
201	201	5
123	123	1
151	154	1
226	227	1
51	51	4
197	198	2
125	154	2
165	165	2
72	72	3
54	61	1
242	242	1
221	221	1
230	230	1
78	106	1
84	85	2
69	70	2
68	68	3
17	18	2
209	222	1
183	185	1
174	174	1
175	176	2
5	6	1
197	200	1
87	87	3
158	158	1
190	190	2
154	154	1
89	89	1
142	143	2
52	53	2
239	239	2
233	233	1
153	163	2
57	65	1
75	75	1
112	112	1
155	155	1
8	225	1
72	74	2
131	131	2
61	62	1
104	209	1
56	62	1
133	134	2
71	73	1
106	221	1
40	42	2
161	174	2
52	52	1
207	211	1
66	66	1
5	7	1
223	223	1
12	213	1
113	113	1
56	65	2
55	56	2
26	27	1
162	163	1
113	224	1
105	120	1
157	199	1
113	201	1
210	211	1
7	8	1
199	202	1
49	63	1
103	103	1
220	220	1
184	187	1
236	236	1
