39	80	1
50	103	7
122	122	6
48	50	4
73	73	1
1	1	3
41	41	9
50	51	3
140	140	4
107	109	2
125	125	12
61	129	4
100	100	6
28	28	5
87	137	2
58	100	5
74	76	1
115	115	13
39	131	1
134	139	1
38	38	14
2	36	7
25	25	6
108	108	5
4	118	1
123	130	1
84	84	9
135	139	3
50	50	4
91	91	6
74	77	2
53	53	4
39	39	2
64	98	6
51	52	7
30	32	4
80	80	6
72	72	11
9	11	2
110	110	3
76	78	5
73	74	2
48	52	2
136	138	5
114	129	1
0	0	8
56	56	8
40	51	1
118	119	2
6	90	4
136	136	6
116	146	1
52	52	5
66	66	9
10	10	2
107	125	4
107	107	7
106	106	3
88	90	2
16	16	3
139	139	5
123	124	3
28	98	1
40	142	1
71	82	3
93	93	13
40	120	3
139	140	4
97	98	3
98	98	2
36	36	8
131	131	15
71	71	6
58	102	3
126	127	2
21	22	1
59	59	7
134	134	7
18	18	5
120	120	3
85	111	2
135	137	1
36	48	4
54	74	2
126	126	4
5	86	2
8	17	4
70	82	1
33	33	3
34	47	1
116	117	2
105	106	3
115	135	4
23	24	2
49	49	7
23	23	3
99	125	2
121	121	8
132	139	2
31	72	4
27	27	5
8	112	1
109	110	3
2	31	1
5	5	7
66	74	4
140	141	6
51	51	2
135	135	10
4	5	3
67	134	1
84	85	6
118	118	7
12	15	1
3	3	4
95	96	5
53	56	4
111	111	3
37	37	6
35	36	1
135	136	1
100	124	1
118	126	1
69	73	1
68	68	1
58	58	1
9	9	5
123	123	14
144	145	1
133	134	3
2	85	2
75	75	1
13	57	1
119	119	3
90	90	5
82	143	2
88	94	1
60	60	1
113	113	4
60	98	1
104	111	2
92	92	10
144	144	5
104	104	1
11	13	3
102	102	3
30	47	3
19	49	2
40	41	5
17	30	1
6	10	3
38	102	2
20	20	3
47	68	1
1	125	3
70	70	3
127	127	6
60	109	1
134	135	4
61	70	2
105	112	1
57	57	4
14	116	5
83	85	2
5	123	1
96	96	11
86	123	2
114	128	8
17	17	6
15	15	3
142	143	4
4	21	1
106	109	1
141	141	6
23	72	4
55	96	2
85	85	2
57	94	1
123	139	1
129	132	5
60	118	1
105	105	7
56	60	5
72	105	2
138	138	9
75	77	2
119	120	1
74	81	3
77	77	3
4	4	3
64	64	9
2	2	5
88	88	2
94	94	5
11	18	1
113	114	1
137	137	3
94	95	2
29	29	4
13	61	2
69	69	3
80	119	5
92	93	4
116	116	4
26	26	5
47	47	5
1	56	4
55	56	2
12	12	3
40	40	2
25	50	1
22	22	5
18	19	1
92	108	4
86	132	1
61	75	3
77	79	4
38	133	1
36	56	2
96	136	4
68	69	2
33	34	1
86	136	2
34	34	6
96	109	1
32	32	6
34	96	3
111	116	1
100	101	4
19	19	5
27	130	1
104	112	3
69	70	3
100	102	2
76	76	5
122	123	1
99	100	1
136	137	1
90	138	1
62	117	1
10	96	2
72	73	1
62	95	1
117	117	1
57	106	3
11	24	3
56	59	1
49	110	3
20	25	2
37	41	2
31	32	2
56	58	3
17	41	1
26	27	2
47	51	1
9	10	2
105	107	2
132	132	1
9	24	3
61	61	2
75	118	2
137	138	3
85	131	5
83	103	2
53	54	1
78	78	2
1	60	1
67	69	1
10	132	2
33	65	1
120	121	2
132	133	4
124	133	3
123	135	1
62	62	3
80	118	1
1	97	1
118	140	1
23	66	1
112	113	2
132	135	1
0	98	1
68	77	1
36	37	2
107	113	2
36	83	1
4	135	1
123	129	1
67	80	1
102	103	3
143	143	1
2	3	2
97	132	1
25	48	1
74	91	1
93	94	2
1	58	1
86	91	2
3	111	1
5	37	1
106	108	1
124	124	3
21	23	1
129	129	2
111	131	1
86	86	1
125	131	1
11	20	2
103	103	1
3	33	1
58	59	4
52	63	1
32	35	4
58	83	1
73	108	1
55	60	2
30	69	1
4	57	1
32	72	1
14	91	2
92	109	2
48	68	1
6	6	1
74	75	1
53	60	2
133	133	1
26	42	1
89	90	1
24	70	1
81	81	2
106	112	1
5	20	1
47	54	2
14	14	2
107	108	3
21	134	1
33	119	4
145	145	1
82	99	2
98	102	1
87	88	1
66	118	1
66	129	2
11	33	1
86	87	1
86	125	2
87	87	1
130	130	3
94	107	3
37	42	1
30	30	2
121	126	1
106	107	1
8	8	1
89	89	3
11	11	1
63	63	4
116	141	4
54	67	1
97	97	1
78	79	1
103	104	1
5	6	3
117	142	1
117	118	2
67	67	2
55	110	1
33	55	1
0	113	1
145	146	1
104	110	1
64	85	1
0	71	2
10	11	1
2	123	1
83	108	1
79	79	2
58	60	2
123	140	1
49	51	1
107	117	2
129	130	2
29	30	1
133	135	1
24	24	1
18	41	1
10	35	1
91	92	1
129	131	2
83	84	1
24	25	1
54	55	1
131	132	1
2	111	1
2	124	1
14	90	1
15	91	1
3	5	1
72	132	1
