97	98	8
41	41	11
120	120	8
88	88	7
78	81	6
79	79	16
11	12	2
68	69	4
77	77	6
43	43	11
102	102	6
11	11	26
74	74	6
104	104	10
4	8	6
87	92	3
20	35	3
4	38	3
82	83	2
57	75	1
5	50	1
7	7	7
47	47	22
48	48	5
62	62	5
40	40	12
73	73	16
64	64	16
66	66	7
69	69	8
111	125	2
81	82	4
31	31	15
20	20	12
131	133	1
21	50	1
105	105	11
60	60	8
46	46	16
42	42	7
90	90	7
101	101	23
86	91	3
84	84	14
19	19	15
28	28	19
111	111	7
132	132	9
91	91	7
85	85	22
92	92	11
10	11	2
39	39	11
30	30	11
7	15	3
56	56	13
88	93	4
92	93	3
116	122	2
65	65	10
9	10	5
45	45	17
94	94	15
124	124	2
100	106	2
26	38	1
83	83	5
108	108	5
41	42	4
60	91	1
34	34	14
28	29	4
88	89	1
106	109	4
13	46	2
9	61	2
107	107	6
2	12	3
130	130	5
24	25	8
25	73	1
28	95	2
115	115	2
33	33	9
46	47	8
72	73	7
6	6	3
130	131	1
59	105	2
97	97	6
80	128	2
60	105	4
29	29	11
25	25	8
13	100	1
34	35	6
38	38	4
13	96	3
44	128	12
78	78	8
17	80	1
43	84	2
96	96	10
94	95	17
18	18	10
58	58	4
8	8	15
26	81	2
87	87	7
98	98	5
40	41	8
81	81	10
99	100	4
94	102	4
76	83	2
105	110	2
131	131	8
23	23	4
80	80	4
23	74	2
95	95	9
63	63	13
95	101	2
42	48	2
56	92	7
82	84	4
26	27	1
130	133	4
91	94	2
5	6	3
99	99	11
25	45	3
17	17	8
112	122	1
65	66	3
41	85	1
43	132	1
34	70	6
4	4	14
48	87	2
6	79	1
133	133	6
13	14	4
21	21	12
93	93	15
16	16	5
95	97	3
60	119	1
127	130	3
33	45	3
44	48	3
35	35	10
100	101	3
2	5	1
79	80	4
44	78	2
72	72	12
24	24	8
62	102	1
31	101	11
83	84	11
127	127	7
32	33	3
86	97	5
103	103	3
86	88	1
32	49	2
8	46	2
35	36	8
95	96	3
28	97	1
26	26	10
80	82	3
62	63	4
64	65	4
78	80	1
91	93	1
104	105	7
123	124	6
3	4	4
103	107	1
61	61	10
28	89	2
9	9	12
79	81	3
119	119	4
22	23	2
97	128	1
26	82	3
5	16	1
61	63	3
107	130	1
131	132	3
27	27	2
80	84	4
83	99	4
18	63	1
60	84	1
61	64	1
10	10	11
94	100	6
121	121	2
71	71	4
86	89	1
110	110	4
75	75	2
125	125	8
50	81	2
82	128	2
40	43	6
129	130	5
134	134	4
0	0	3
92	96	3
44	130	2
58	87	2
12	12	19
12	35	3
33	34	4
70	70	9
86	86	7
3	3	5
69	70	3
47	73	4
11	96	4
84	87	4
128	128	3
16	30	1
67	68	5
40	49	2
13	15	4
56	57	3
76	76	5
97	107	3
27	28	4
61	101	3
88	134	2
44	59	1
20	31	1
128	131	1
36	40	2
32	74	1
4	91	3
96	97	5
42	106	5
17	24	2
61	72	1
27	96	1
17	63	4
36	37	5
50	50	2
11	101	4
73	74	6
32	32	8
7	25	5
8	94	4
78	79	6
67	67	8
26	29	1
3	64	2
81	105	2
98	100	2
114	114	2
2	2	12
27	82	6
55	56	1
30	81	8
4	5	1
51	55	1
5	38	1
31	124	2
117	117	3
82	82	6
44	44	8
56	60	3
118	119	1
43	131	2
60	63	1
55	55	3
24	26	1
68	68	10
38	82	3
90	92	4
91	132	1
39	78	2
19	36	2
60	76	1
80	91	3
75	76	3
115	116	2
47	65	3
56	109	3
8	10	2
11	41	1
119	120	2
27	35	1
57	57	5
16	26	5
22	22	13
100	124	1
57	81	3
59	93	2
29	32	1
27	30	4
99	106	4
48	101	1
57	96	1
17	30	1
93	124	1
61	95	3
66	76	2
60	96	4
103	128	2
67	71	2
112	112	3
12	93	4
3	44	2
88	97	1
28	79	2
26	30	2
89	92	2
18	19	1
113	113	2
4	89	2
4	86	1
59	59	8
85	101	3
20	60	1
8	35	1
29	30	1
36	36	8
97	99	2
129	129	2
25	75	1
122	122	4
20	27	2
60	61	2
39	41	1
17	18	1
115	121	1
20	22	1
17	62	3
71	76	2
12	13	3
38	42	1
1	1	3
59	101	1
84	97	1
106	113	2
20	21	2
116	116	1
95	98	3
5	5	6
71	72	1
89	89	4
46	77	2
40	42	1
79	105	1
29	101	1
39	81	1
109	109	1
11	69	1
18	78	1
41	50	1
14	17	1
86	98	1
96	99	3
84	88	1
105	123	2
83	85	3
103	105	1
45	48	4
118	118	2
101	134	1
63	66	1
4	64	1
13	92	1
15	74	2
5	20	4
8	20	2
8	93	3
9	70	4
9	12	2
25	26	2
31	71	2
84	91	1
78	129	1
42	50	1
61	76	1
23	47	2
0	68	2
25	27	1
94	107	3
3	8	1
28	96	1
14	14	1
124	131	1
64	76	2
45	60	1
81	89	1
9	11	1
13	13	3
29	37	2
113	115	2
108	120	2
63	78	2
90	134	2
4	7	1
95	132	2
40	85	1
62	67	1
51	96	1
56	79	1
98	99	2
15	15	3
3	65	1
35	69	1
85	96	2
46	74	1
114	115	1
5	39	1
115	122	2
90	96	1
8	92	1
106	127	1
60	64	2
21	37	1
87	88	2
92	131	1
124	126	1
15	26	1
0	77	1
81	90	1
106	106	1
29	49	2
106	133	1
117	119	1
93	94	2
49	83	2
102	108	1
111	133	1
62	93	3
93	98	1
95	110	1
48	49	1
19	20	1
126	126	3
73	128	3
91	133	1
100	102	1
65	68	1
7	79	1
107	114	1
103	129	1
29	38	1
58	88	2
97	100	1
47	101	1
37	37	3
60	85	2
8	44	1
35	37	1
26	79	1
59	77	2
39	42	1
45	46	1
96	98	1
44	45	1
63	64	1
26	60	2
34	74	2
109	122	1
91	92	1
90	94	1
10	64	1
11	58	1
10	35	1
10	85	1
121	122	1
43	89	1
11	92	1
89	128	1
84	89	1
8	9	1
49	91	1
105	124	1
91	100	1
6	42	1
25	83	1
26	43	1
4	93	1
38	40	1
65	69	1
45	74	1
