226	231	2
203	204	3
55	55	10
27	27	8
233	234	10
11	11	2
34	34	6
242	244	12
69	69	8
165	171	2
29	29	8
99	100	13
50	50	7
62	63	7
189	189	3
22	22	6
237	238	8
168	168	6
44	44	6
239	239	9
101	101	5
195	195	5
213	213	5
21	23	3
57	57	9
224	224	2
158	158	8
159	159	6
214	215	2
238	239	4
245	245	14
71	71	8
72	74	1
81	81	5
5	29	1
164	164	9
46	109	6
216	217	2
49	50	4
230	230	9
226	226	3
227	227	10
191	191	11
117	117	14
218	238	2
49	51	2
71	72	5
79	85	5
160	161	6
92	92	2
91	91	12
34	35	7
67	67	7
96	98	5
110	113	4
116	118	2
232	235	2
196	196	6
46	74	4
4	6	2
234	234	13
78	121	4
243	243	10
217	218	3
69	77	2
203	203	9
58	85	1
44	70	4
211	223	3
205	205	14
172	173	4
154	154	9
41	42	5
40	40	9
100	101	5
159	160	2
30	30	11
94	94	5
25	25	5
153	153	10
28	29	1
192	213	1
77	77	3
193	194	8
12	16	1
67	68	2
20	20	8
212	212	14
167	167	11
184	184	13
176	191	2
161	220	7
214	214	13
6	9	1
64	64	9
177	177	11
231	231	6
12	12	3
146	146	5
32	33	3
112	117	1
19	19	8
80	80	9
236	237	5
90	91	2
211	215	2
14	14	6
21	22	5
21	21	8
229	231	4
166	166	7
169	170	5
172	174	9
24	24	6
192	192	17
176	177	4
4	5	3
192	196	3
160	160	12
110	110	20
46	46	6
164	167	2
88	88	4
153	179	1
173	173	5
243	244	7
207	207	9
56	57	3
99	99	6
200	200	10
59	59	6
185	185	4
54	62	1
43	43	7
66	67	6
15	15	3
146	147	5
107	107	7
240	240	12
90	92	2
73	73	8
212	218	4
68	69	3
57	58	2
173	197	3
171	196	1
86	87	7
104	104	6
105	105	5
189	190	2
242	242	8
9	9	1
144	144	5
72	178	2
101	103	3
43	178	2
60	60	9
79	79	6
89	89	10
218	219	3
180	180	15
218	218	3
47	49	4
18	18	6
98	98	9
177	181	3
247	247	8
234	237	3
92	94	3
162	162	8
71	88	1
87	87	5
187	187	10
181	181	7
210	211	11
97	98	7
232	233	1
102	102	8
111	111	9
68	221	2
80	81	9
58	89	1
159	163	4
222	222	8
111	245	2
17	17	7
26	26	1
175	175	4
107	108	7
194	195	7
170	207	4
225	225	8
179	179	4
161	170	3
155	203	2
162	243	4
91	92	4
106	107	7
6	6	15
106	106	5
23	23	7
235	235	6
173	174	4
206	206	10
115	115	14
112	235	1
59	61	4
199	200	5
28	28	10
91	93	3
227	231	4
151	151	7
25	26	2
163	163	1
188	209	1
157	157	11
198	198	11
63	204	1
60	61	6
77	78	1
75	99	3
208	208	6
117	118	5
236	236	7
91	112	2
48	48	8
35	36	3
23	24	3
82	82	4
22	23	3
48	49	3
95	96	3
172	172	10
199	199	11
216	216	2
78	78	3
89	93	2
221	222	7
58	70	2
179	180	7
186	186	15
0	0	3
68	68	5
58	62	2
117	239	3
181	242	3
66	70	1
116	116	5
241	241	8
21	40	3
70	71	3
109	110	8
86	86	5
184	185	13
169	169	9
56	56	9
100	100	3
246	247	3
118	119	5
61	61	4
69	73	1
169	172	1
49	49	3
228	228	3
161	161	10
156	156	7
113	113	8
188	188	4
120	120	2
31	31	7
30	31	1
8	8	9
33	33	7
197	197	5
165	166	5
72	210	4
50	64	2
3	12	1
42	44	1
78	84	1
180	182	3
53	72	4
168	172	1
221	221	7
204	204	11
190	192	4
112	112	9
72	86	4
201	201	12
163	240	1
172	177	1
14	22	1
237	240	3
211	211	2
211	212	3
190	191	8
163	165	6
185	187	10
52	53	1
118	118	10
220	220	9
95	95	4
193	199	2
245	246	6
45	45	9
229	233	1
48	82	1
84	211	2
55	56	2
217	217	2
229	230	2
47	100	3
147	183	6
90	90	13
9	11	3
47	47	5
12	14	8
39	39	12
114	114	8
42	42	2
38	39	4
57	62	1
170	171	5
31	32	1
36	36	5
13	13	5
59	71	3
38	38	11
195	196	7
234	235	1
200	219	1
72	73	3
110	111	1
171	172	4
111	118	2
41	41	6
56	58	1
94	117	3
53	56	3
37	37	5
242	243	2
152	154	2
183	183	11
204	205	2
197	199	3
171	171	5
2	2	5
5	5	10
197	198	5
208	211	3
204	223	1
183	190	1
7	8	4
236	238	1
7	7	3
178	180	2
100	108	2
61	95	3
1	1	8
5	11	1
66	66	9
237	246	1
202	245	4
114	116	2
52	52	8
175	177	5
171	173	4
22	25	2
152	152	4
109	149	1
76	100	3
166	178	2
167	169	1
209	209	10
119	120	4
43	44	2
108	245	2
161	162	3
109	109	8
163	164	2
215	216	3
166	177	2
54	54	4
116	120	3
180	181	2
79	80	2
96	185	1
116	117	6
153	154	5
44	45	1
150	150	4
65	65	4
16	16	4
156	157	2
188	189	3
119	119	2
35	35	6
147	157	3
185	186	3
58	58	8
207	209	2
212	213	1
152	153	3
53	54	2
37	38	4
144	161	1
237	237	2
175	179	5
185	207	2
9	10	5
71	73	1
51	98	1
112	113	4
168	170	7
101	102	3
220	248	2
157	160	1
218	241	4
205	207	1
190	190	4
82	83	3
53	53	4
103	103	1
246	246	5
46	53	1
193	193	6
10	10	12
51	52	2
178	178	2
229	237	1
182	195	1
154	166	2
45	46	1
29	30	4
209	237	3
186	187	2
213	216	1
89	90	9
14	99	2
174	174	5
47	66	2
51	51	4
223	225	1
55	61	1
69	70	5
32	34	2
182	182	9
144	158	1
193	195	2
147	147	2
63	64	2
32	32	4
73	91	2
18	109	3
104	105	4
157	166	1
96	97	4
4	42	3
196	221	1
24	30	1
74	74	3
98	99	1
115	116	5
182	183	4
172	192	1
215	218	2
168	182	1
86	102	1
168	171	1
197	244	2
59	72	3
238	238	4
145	145	1
108	108	3
77	210	1
151	152	2
194	194	4
232	232	5
97	185	3
106	116	1
181	184	2
113	114	5
212	219	3
110	235	4
70	70	2
184	242	1
166	171	1
3	5	1
219	219	5
180	183	2
111	113	1
213	214	6
219	223	2
117	119	1
232	247	2
85	101	1
210	210	6
108	109	4
185	206	1
104	118	4
243	246	2
47	48	4
46	72	2
30	41	2
201	202	1
48	99	1
82	86	5
11	12	1
207	208	4
230	234	2
54	55	2
85	85	2
93	93	6
167	177	2
193	242	5
20	26	3
96	96	6
99	101	1
56	66	1
76	76	1
198	199	1
228	229	3
174	179	1
169	173	3
76	84	2
76	78	2
3	3	2
112	118	2
170	170	1
220	222	1
80	85	1
157	158	1
184	207	1
58	83	2
150	156	2
192	207	1
150	151	2
72	75	2
12	44	2
224	233	1
107	213	1
71	74	1
46	56	1
196	197	2
30	34	1
23	118	2
88	89	1
149	149	3
244	244	1
190	209	1
202	202	6
156	171	1
120	144	1
84	84	1
200	201	4
184	186	3
80	83	1
81	86	2
7	23	1
59	86	2
81	82	2
155	155	3
176	176	4
224	225	1
72	72	4
79	94	1
229	229	2
58	79	1
225	231	1
184	191	1
175	176	1
36	37	2
103	108	1
153	236	2
78	101	1
192	214	1
165	167	1
164	177	2
230	231	2
45	70	2
245	248	1
112	119	1
53	55	2
15	16	3
8	9	2
36	38	2
86	101	1
169	177	1
7	9	2
183	184	1
26	36	1
215	219	1
233	233	2
209	210	2
47	50	1
186	207	2
93	95	2
114	118	2
150	225	2
155	205	1
29	32	1
22	24	1
97	97	1
75	75	3
57	60	1
112	114	1
4	4	2
10	33	1
208	209	3
206	207	1
69	71	2
81	83	5
187	191	1
193	196	1
178	179	1
172	178	1
187	188	3
163	187	1
181	240	1
57	82	1
182	184	1
243	247	1
223	223	2
241	242	2
162	199	1
83	83	1
154	155	1
62	62	2
41	53	1
58	84	1
186	189	1
180	206	2
220	221	1
158	163	1
160	162	1
157	159	1
34	38	1
48	54	1
1	2	1
192	193	1
50	98	1
83	84	1
159	162	1
233	247	1
170	172	1
70	74	1
192	195	1
191	192	1
162	216	1
223	239	1
50	51	3
43	100	1
72	88	1
155	156	1
39	40	1
63	63	1
32	37	1
113	115	1
165	165	2
205	206	1
202	203	1
14	114	1
229	232	1
93	94	1
