29	31	2
65	65	4
30	32	2
73	75	10
109	110	6
82	82	12
75	98	2
62	62	8
116	126	2
24	24	15
11	26	6
89	89	5
84	89	1
62	69	1
134	134	7
28	28	4
123	125	4
128	129	12
70	70	12
71	72	13
102	102	18
116	117	10
88	88	11
101	102	6
120	120	6
11	11	3
119	120	4
47	47	2
93	94	6
133	134	2
127	127	17
27	27	6
72	72	20
91	92	8
115	116	2
112	113	10
54	55	4
29	29	14
21	28	1
12	14	9
60	60	14
121	121	8
118	118	6
20	21	4
55	58	3
80	95	5
76	76	16
12	12	6
69	69	8
15	15	5
26	26	7
94	94	10
13	13	4
32	32	9
101	101	5
61	61	13
102	103	8
79	81	6
65	66	7
98	98	14
119	119	6
35	43	2
34	34	14
122	123	6
60	61	5
59	59	17
22	22	3
78	78	7
114	125	8
32	33	9
126	126	10
96	96	6
36	36	8
2	2	13
115	115	3
52	53	5
63	63	12
85	85	5
116	116	11
33	33	7
83	118	1
85	90	1
24	25	1
92	93	6
4	4	3
45	46	3
87	87	8
97	97	17
80	102	1
114	114	6
105	106	11
93	93	9
88	89	4
84	85	13
111	111	12
3	4	14
84	119	1
54	54	15
125	125	7
67	68	2
109	111	3
107	109	3
127	129	6
108	110	2
16	16	9
113	113	5
16	17	4
118	119	3
31	31	3
108	111	3
116	122	3
20	20	7
113	115	6
77	106	1
114	115	3
131	132	3
121	122	5
62	64	4
2	29	4
91	91	9
31	33	7
52	52	7
129	130	5
90	90	8
30	30	8
5	14	2
22	23	6
106	106	11
130	131	9
32	44	4
117	130	1
90	91	7
117	117	5
63	65	3
99	99	8
124	124	8
65	68	3
83	98	1
56	57	3
69	71	1
50	64	1
75	75	13
66	67	5
106	108	1
111	112	6
53	53	7
77	78	3
104	105	8
131	133	2
97	98	2
71	71	9
15	17	2
48	50	2
58	58	3
71	76	1
49	50	5
4	5	5
34	36	1
108	108	13
95	96	3
82	84	3
35	35	6
84	84	8
29	30	2
88	97	4
14	14	8
45	45	12
76	77	3
77	77	12
110	110	4
73	74	4
11	12	3
86	88	3
0	0	10
130	135	3
107	108	4
55	55	7
43	51	1
74	98	1
74	74	12
100	100	11
79	79	8
89	90	5
104	104	13
77	79	1
122	124	1
64	64	18
56	56	2
103	103	12
109	109	5
32	35	2
112	114	5
31	34	2
1	15	3
21	21	3
123	124	4
46	46	1
8	8	5
89	91	2
97	99	2
55	57	3
31	32	3
45	47	1
1	2	8
4	8	2
58	59	1
72	122	2
123	123	7
35	45	1
3	3	10
43	43	4
132	132	5
49	49	4
110	111	4
75	77	1
30	33	3
92	92	12
49	61	2
131	131	3
9	9	1
73	73	6
68	68	4
1	1	5
59	60	1
122	122	12
63	64	1
72	73	2
1	3	1
45	68	3
95	95	21
62	63	6
113	114	4
105	105	3
52	54	1
18	19	1
7	9	2
94	95	2
112	112	7
25	25	10
120	121	8
7	87	2
36	37	9
118	120	3
106	110	2
50	59	3
115	127	1
62	65	4
100	101	8
115	125	2
21	22	4
111	132	1
108	112	1
44	45	1
86	86	3
132	133	2
37	37	3
33	34	4
64	65	2
120	126	3
5	5	4
107	110	2
65	69	1
18	18	1
126	127	3
55	56	2
63	72	1
33	43	3
107	107	3
67	67	2
125	127	2
6	6	1
98	99	5
58	62	1
133	133	3
129	129	6
8	9	1
114	129	3
127	128	1
13	14	3
78	102	3
45	52	3
81	89	4
10	10	3
53	54	4
7	8	3
61	65	2
70	123	2
116	118	4
117	119	1
84	88	2
75	105	1
88	116	2
99	100	1
23	25	1
69	70	2
51	63	4
128	128	2
129	135	1
85	100	1
0	3	2
50	50	4
100	121	1
116	124	4
127	134	1
73	77	1
19	21	2
61	62	4
82	83	2
21	23	1
12	13	5
43	47	2
75	76	3
65	113	1
103	105	1
18	21	3
6	8	1
46	47	2
66	66	1
23	23	1
83	88	1
57	59	2
78	79	4
9	10	2
46	49	1
79	102	1
84	86	1
5	10	3
96	99	1
57	57	1
79	80	6
108	109	1
8	26	1
76	79	1
49	62	3
134	135	3
130	130	2
81	81	3
44	44	1
85	86	2
80	80	5
48	49	1
82	85	2
0	2	1
19	19	1
130	133	4
73	125	1
1	29	2
36	68	2
22	27	1
74	107	1
1	27	1
26	28	1
83	83	1
6	11	1
7	7	3
14	15	1
3	5	2
73	78	2
70	71	3
47	52	1
79	120	2
125	126	2
101	122	4
126	129	2
21	24	1
73	123	1
23	24	2
121	126	2
33	36	1
135	135	1
59	63	3
68	69	1
88	92	1
105	115	1
49	77	1
8	24	1
31	44	1
56	64	1
111	133	1
54	63	2
84	87	1
90	94	2
124	125	1
87	88	1
118	127	1
82	103	1
82	90	1
87	89	1
117	118	2
55	59	1
32	34	1
8	11	1
