48	48	19
67	82	3
65	94	2
153	153	12
41	41	12
109	109	10
139	139	8
55	56	9
67	68	5
22	144	2
56	56	2
77	77	9
76	76	3
34	35	11
26	68	4
114	115	3
24	24	11
70	71	2
18	18	17
83	86	1
120	122	3
83	83	5
147	147	8
118	118	12
48	99	1
119	119	3
10	20	2
133	134	13
41	46	4
61	66	1
94	99	3
46	46	4
75	75	4
25	28	1
94	94	5
35	36	8
102	102	3
87	87	4
16	17	5
98	99	6
83	84	2
95	95	6
113	113	8
17	17	6
7	30	6
86	87	6
105	105	3
151	152	6
74	74	8
131	132	5
15	15	7
131	131	16
154	154	10
54	54	4
42	46	5
47	50	2
108	108	6
79	86	2
102	103	3
73	77	1
18	19	6
62	63	1
144	146	5
105	106	3
119	123	3
37	54	1
121	121	1
92	95	4
88	88	1
138	146	2
71	71	11
79	80	10
70	73	4
39	40	10
144	147	7
144	145	2
77	78	1
120	120	10
78	79	2
23	23	11
145	145	1
136	137	3
68	69	5
57	57	7
38	38	8
12	12	15
65	97	2
17	18	1
35	37	4
8	9	3
144	151	1
58	75	1
5	5	1
6	6	7
74	75	2
143	144	5
4	6	3
138	139	1
22	22	3
46	47	4
64	78	2
19	20	2
33	75	5
26	26	8
23	25	3
100	100	7
123	125	3
150	150	14
24	29	2
69	117	1
87	88	5
48	50	4
82	82	1
138	143	3
16	26	6
118	119	4
48	54	2
67	88	2
110	110	3
37	38	5
3	5	5
19	24	2
34	34	8
117	117	5
21	21	7
106	131	3
14	15	2
103	105	1
30	30	8
37	37	3
54	55	2
95	98	2
85	87	4
126	126	3
93	93	4
65	96	4
14	14	8
125	125	4
33	34	2
10	10	4
122	122	5
81	81	3
39	39	6
33	82	2
63	64	5
84	86	2
107	107	5
40	41	3
15	17	1
100	109	1
115	117	1
66	66	3
104	104	3
32	34	2
75	78	6
110	111	1
135	136	3
49	49	4
101	101	2
2	21	2
20	20	5
136	136	6
135	135	10
69	69	6
138	145	1
53	53	9
8	8	5
71	75	1
24	26	1
74	76	2
20	21	2
78	80	5
49	50	2
78	78	3
11	12	1
51	56	1
42	42	8
152	152	4
72	72	2
58	74	1
27	28	2
55	55	7
123	126	1
25	25	3
40	40	5
80	81	4
63	63	5
84	84	1
94	97	4
148	149	1
99	99	3
9	9	7
64	64	2
6	7	2
96	96	7
128	128	4
24	144	2
45	45	3
16	16	9
66	80	2
48	51	3
152	154	3
45	51	3
82	83	2
109	110	2
67	67	9
32	32	3
31	31	4
141	144	1
115	115	7
27	27	4
137	137	1
133	133	7
11	13	3
25	145	3
147	148	3
111	111	3
141	141	5
106	107	1
3	20	1
66	94	2
151	151	4
45	46	4
41	42	3
129	129	10
44	53	2
36	132	1
65	65	3
108	109	4
79	79	2
43	43	2
39	132	3
70	70	4
13	13	5
72	81	4
112	113	2
146	146	5
27	67	1
5	22	1
77	81	1
66	67	5
132	132	1
112	112	4
11	11	8
102	104	1
66	72	1
71	81	2
114	118	3
123	123	4
87	95	2
44	44	2
76	77	2
62	62	4
2	2	2
63	146	1
36	36	1
97	97	2
140	141	2
34	110	3
103	107	5
28	28	3
74	79	3
23	105	1
86	86	4
25	26	4
144	153	1
85	85	2
104	107	2
126	127	3
80	80	3
29	29	4
39	53	1
47	47	4
84	85	1
98	98	3
98	102	2
92	93	1
42	43	3
142	144	2
74	77	3
142	142	3
73	73	3
36	37	1
73	74	2
65	75	1
22	106	1
4	7	1
31	32	2
73	82	1
150	152	1
65	79	1
32	33	1
116	117	3
145	146	2
64	77	1
29	86	3
116	116	1
15	16	2
143	143	7
116	118	1
12	13	2
7	29	1
4	4	3
65	66	1
87	93	1
109	115	2
56	57	3
82	85	1
16	18	1
33	33	2
113	120	1
94	95	1
19	19	2
13	14	1
77	91	2
135	143	1
91	94	2
7	7	3
17	20	1
11	19	1
76	79	3
75	76	2
99	112	1
65	77	1
25	144	1
104	105	1
134	134	4
122	123	1
112	114	1
30	105	1
73	100	1
92	92	1
48	49	2
3	22	1
129	133	1
44	45	1
138	138	2
90	94	1
29	30	1
100	101	2
33	122	1
130	130	2
75	77	1
119	120	2
113	115	1
146	147	1
127	127	2
57	69	1
22	31	1
69	71	1
39	133	1
40	46	2
93	101	3
93	94	2
12	14	1
113	114	2
68	68	1
3	10	1
81	83	2
22	38	1
123	128	1
21	22	1
99	100	1
66	78	1
7	8	1
