37	38	5
14	15	4
31	53	4
117	117	8
100	100	2
179	182	4
153	153	10
10	10	4
54	55	1
111	155	5
92	92	2
156	156	10
185	185	9
36	84	2
149	150	2
13	13	17
131	133	1
68	68	7
113	113	2
18	35	3
48	48	1
80	81	6
15	15	6
26	28	2
1	1	4
149	149	5
55	79	3
108	108	6
66	67	3
59	61	2
158	158	3
11	11	2
109	153	3
94	94	3
189	189	5
32	32	4
142	143	2
28	107	1
161	162	1
45	78	2
43	44	1
53	74	2
106	154	1
130	137	6
58	60	2
85	86	6
63	63	6
56	56	4
88	88	5
73	82	4
0	0	3
80	80	8
22	24	2
89	89	3
99	124	1
120	120	4
128	128	8
131	131	3
31	32	2
139	142	2
144	161	1
6	7	7
28	28	10
54	54	6
114	114	6
81	100	1
140	140	3
97	98	4
61	64	2
74	102	3
177	177	3
139	141	2
84	84	10
30	41	3
41	66	1
18	24	2
95	95	4
87	88	5
24	24	5
139	139	2
138	140	3
93	93	6
24	25	7
31	96	1
126	126	2
121	121	8
134	152	2
157	157	6
47	68	2
116	116	3
151	151	2
38	39	3
150	151	2
106	109	2
109	146	1
138	138	10
104	104	4
2	2	3
44	44	5
138	143	3
75	75	6
78	78	6
26	29	2
112	112	3
8	40	2
38	124	6
71	72	2
132	132	3
87	87	6
115	115	8
145	146	3
23	86	3
42	43	3
170	170	4
144	145	4
53	57	1
58	58	4
103	104	4
141	143	2
18	25	1
86	87	7
86	86	12
82	83	4
127	128	2
136	162	1
55	56	2
82	92	3
160	168	2
31	31	4
16	17	6
129	138	1
4	5	5
187	187	7
147	148	6
40	41	2
153	154	3
88	89	2
74	74	7
181	181	6
137	137	4
73	73	2
22	33	2
106	107	1
129	129	10
135	135	6
111	130	1
25	25	2
156	162	2
127	127	4
148	148	10
16	110	1
85	85	3
99	99	7
137	138	3
23	24	2
33	34	1
20	23	2
165	166	3
152	152	7
74	82	1
135	138	4
57	57	2
20	35	4
82	82	3
160	160	5
16	16	4
33	33	4
166	177	3
75	79	1
111	111	2
35	35	2
97	97	2
34	34	3
37	37	5
38	76	1
115	116	3
77	78	1
55	55	4
83	83	5
8	8	7
122	122	2
114	126	2
182	182	5
36	36	3
114	147	4
105	106	2
26	26	2
142	165	1
46	47	6
132	147	2
109	155	6
68	71	3
171	172	2
164	165	4
47	47	3
34	35	2
135	151	1
151	152	3
76	76	1
112	150	1
53	66	1
42	45	3
97	116	1
75	76	2
55	57	2
159	159	1
123	123	4
14	127	2
92	93	1
127	151	3
103	103	7
140	141	2
71	83	1
96	100	1
28	154	2
74	79	1
134	134	4
141	141	4
12	12	2
30	30	1
106	106	5
45	45	3
101	101	2
145	145	1
128	129	4
71	73	2
130	130	5
5	6	4
8	96	1
157	159	2
102	134	1
71	71	5
19	19	2
15	128	1
123	125	1
77	77	1
74	89	1
5	11	2
164	164	2
79	79	5
109	110	2
7	8	2
134	135	4
66	66	3
18	21	1
150	150	4
143	143	3
35	36	2
28	31	1
113	150	1
90	94	2
18	18	2
23	23	2
30	31	2
27	27	6
167	167	1
82	100	2
24	34	1
72	72	3
6	6	1
38	38	1
5	5	2
61	61	1
4	4	2
11	40	2
176	176	2
86	88	1
178	178	2
166	166	2
83	84	2
39	39	2
129	139	1
17	36	1
124	125	3
28	29	3
90	90	3
21	21	2
123	124	3
163	167	1
30	33	1
116	117	1
141	165	2
91	91	1
138	165	1
37	84	1
119	120	2
131	137	1
10	12	2
171	173	1
111	112	3
166	168	3
180	180	1
17	24	1
3	3	3
163	163	3
73	120	5
187	188	4
65	65	2
17	153	2
143	144	2
48	54	1
27	28	1
63	65	1
36	86	1
107	107	3
88	106	4
23	35	1
125	126	1
134	139	1
136	155	2
159	168	1
36	80	3
182	183	2
180	181	1
183	183	1
165	171	1
94	95	2
16	23	1
39	40	2
26	35	1
109	135	1
33	56	2
106	111	2
146	146	1
77	124	1
47	48	1
8	11	1
129	151	1
22	22	2
168	168	1
17	17	1
157	158	1
169	170	1
12	13	2
72	73	1
67	67	1
29	29	1
27	29	1
118	119	2
124	124	1
136	152	1
156	163	1
62	62	2
190	190	1
65	70	1
137	151	1
167	168	1
102	122	1
0	10	1
133	137	1
157	162	1
139	140	1
109	109	1
186	186	1
137	139	1
152	153	1
154	154	1
165	165	1
28	39	1
137	162	1
147	147	1
35	85	1
18	23	1
183	184	1
113	118	1
