26	26	4
238	239	11
247	247	21
45	45	13
239	240	6
186	186	11
169	183	5
151	151	20
181	182	3
171	171	21
221	221	15
85	85	12
93	93	20
26	28	2
78	79	5
220	220	32
189	190	5
235	235	20
10	10	18
86	87	15
47	47	9
160	171	1
22	22	20
18	30	5
4	4	20
6	7	2
79	79	4
242	242	13
181	181	18
203	203	19
201	201	25
237	237	31
7	7	19
183	183	15
102	102	9
11	11	26
180	180	29
245	247	2
216	217	17
166	167	5
160	160	16
219	219	21
224	224	8
21	21	15
147	147	8
89	89	16
116	116	24
164	164	13
163	180	5
183	185	3
167	167	19
170	184	6
72	72	11
111	111	20
209	213	3
13	15	1
172	174	2
121	144	2
85	111	3
64	73	4
155	155	31
108	108	12
24	24	12
33	57	6
179	182	5
159	177	8
59	59	16
244	244	17
4	5	2
199	199	19
232	232	13
105	107	6
37	37	8
213	213	17
90	90	20
6	6	14
43	43	16
162	162	11
208	208	18
192	209	4
96	97	6
233	234	12
112	119	2
248	248	7
145	145	4
65	65	7
95	95	9
30	30	9
61	62	4
20	20	19
146	149	2
106	106	9
179	179	19
46	46	7
113	113	12
19	31	7
159	159	28
168	193	1
175	175	25
211	211	7
233	244	3
5	5	13
117	118	10
230	232	4
154	155	4
216	230	4
14	237	5
218	231	3
56	56	5
74	75	3
181	213	4
29	39	5
158	175	7
181	208	2
170	170	33
82	82	17
229	229	5
197	197	24
10	72	1
193	193	25
50	51	3
170	177	9
74	74	19
207	207	16
216	244	5
38	38	17
78	80	2
246	246	23
48	48	23
231	231	12
117	150	5
202	214	2
147	184	2
105	105	8
28	53	3
23	23	12
66	66	10
200	200	7
68	70	8
41	41	24
168	180	9
153	153	18
42	42	20
188	188	15
70	70	14
214	214	11
58	58	16
230	231	8
44	44	10
171	183	2
92	92	8
39	39	5
198	199	6
49	49	7
161	162	6
163	163	13
107	108	4
75	75	11
191	191	15
239	239	30
210	213	1
216	218	4
55	79	2
51	53	1
118	118	14
153	154	5
198	198	39
168	213	4
19	19	22
158	163	3
109	109	10
63	75	2
170	171	4
178	178	25
194	194	14
7	8	3
175	176	3
151	184	1
77	77	13
197	199	2
150	187	1
217	217	14
17	19	10
212	212	9
209	209	10
5	49	2
173	174	3
2	36	2
15	15	19
104	106	8
59	113	5
60	70	1
31	32	14
27	27	3
209	224	3
90	91	3
158	159	10
40	40	16
157	157	6
76	76	17
60	60	19
187	195	3
55	55	19
164	166	6
165	166	7
34	37	4
32	32	19
86	106	6
104	104	4
61	61	25
84	84	14
160	178	4
54	54	12
169	170	1
184	184	22
243	243	10
1	1	8
16	16	1
190	190	21
238	238	16
81	81	8
162	167	1
227	228	6
211	212	7
165	170	3
55	56	5
174	212	4
86	86	9
193	194	8
75	76	5
61	75	4
23	24	8
156	156	19
71	71	21
20	39	3
100	154	1
154	199	4
186	200	2
150	150	17
167	168	4
203	241	2
1	2	2
51	70	2
230	230	9
212	218	4
41	43	2
68	68	20
161	229	2
9	9	10
210	211	8
165	165	17
14	14	25
166	166	17
114	116	10
26	45	8
37	45	3
223	223	9
7	26	4
117	117	9
59	60	3
4	19	4
241	241	19
176	182	3
200	228	2
20	67	9
22	32	4
119	246	3
52	52	13
202	202	9
37	38	4
56	57	2
24	25	1
164	171	3
22	23	4
154	154	8
240	241	1
19	37	4
152	152	7
96	98	2
57	58	12
216	216	9
222	222	9
165	169	3
73	73	11
82	95	2
113	114	8
73	77	5
245	245	16
66	67	10
106	107	7
180	213	6
209	210	6
51	51	19
77	89	3
63	63	10
88	89	4
34	34	13
189	216	4
37	39	7
112	112	21
90	240	2
228	228	13
48	63	3
87	87	4
200	213	3
101	116	2
20	62	2
52	167	10
80	88	2
187	188	6
158	158	16
40	43	2
100	117	1
241	244	1
114	115	10
73	75	1
103	103	7
50	50	15
236	237	7
174	174	16
226	227	6
182	182	12
168	217	3
98	98	10
208	211	1
103	115	8
57	83	3
14	236	3
172	185	2
185	185	18
33	33	8
192	192	29
150	247	1
16	17	1
213	232	2
162	163	3
206	206	5
73	74	12
226	226	7
25	25	17
96	96	11
237	238	4
13	35	2
102	103	3
151	202	3
213	238	5
42	224	4
214	217	2
188	192	3
169	169	23
196	196	7
80	103	2
218	218	5
12	12	8
223	224	6
150	201	3
80	239	1
204	204	18
192	197	4
161	161	6
107	111	2
157	158	4
61	66	2
150	161	5
75	77	1
30	69	4
80	82	5
53	53	15
203	207	1
87	88	4
177	177	20
99	106	1
167	179	1
110	110	17
180	181	3
119	119	7
90	121	6
3	3	8
101	110	1
97	99	4
214	216	1
170	181	8
152	166	1
9	53	3
240	240	15
17	17	16
184	195	4
82	83	5
52	168	2
112	113	6
144	184	6
214	229	2
209	244	2
166	191	3
78	112	7
29	31	5
107	107	6
168	173	3
188	189	7
51	56	4
201	202	7
78	83	2
0	201	2
200	201	9
41	44	2
64	64	12
33	36	3
172	179	1
99	99	6
10	62	2
234	234	8
185	186	2
152	160	4
8	16	1
212	220	2
79	82	4
49	50	2
85	120	3
68	80	3
16	43	1
190	210	2
52	162	2
28	28	12
205	205	8
147	183	5
236	236	19
199	217	1
173	173	13
113	120	3
101	101	16
83	83	2
189	215	5
163	164	7
59	66	2
22	27	1
19	21	1
18	18	10
58	62	1
114	114	9
89	237	3
4	18	1
172	172	14
192	193	3
216	232	2
12	30	1
154	230	2
193	232	3
34	35	3
31	60	2
194	209	2
35	36	4
173	183	1
180	200	3
189	189	11
48	49	3
109	116	1
52	109	3
35	71	3
181	190	2
48	50	5
233	233	9
38	39	5
91	95	3
164	183	4
216	231	1
94	94	6
2	2	5
99	119	1
16	95	1
178	183	1
57	57	2
64	65	8
215	215	8
103	119	3
157	166	3
232	243	1
4	36	1
170	192	1
79	80	2
67	69	1
97	117	1
236	238	4
82	102	1
227	227	2
11	46	2
33	34	1
186	188	2
145	158	2
4	37	1
19	20	3
193	195	5
231	236	1
182	229	5
195	234	5
199	200	6
35	35	10
82	106	3
162	217	2
188	191	8
111	120	7
189	191	2
202	209	3
196	219	2
231	232	1
146	158	2
114	244	2
111	245	4
157	160	5
47	217	1
152	170	3
7	25	1
11	58	2
154	203	1
86	104	5
156	225	1
214	215	1
232	236	8
2	39	2
176	176	5
50	53	4
221	222	6
237	240	4
6	11	3
51	52	2
9	10	1
195	195	9
86	96	2
55	88	4
20	21	1
190	192	4
100	101	1
79	107	1
52	217	4
8	8	11
152	157	2
89	90	3
117	153	3
191	192	5
161	179	6
48	64	1
72	77	1
90	107	1
210	214	4
239	242	4
213	235	2
29	47	2
6	10	2
208	241	1
217	218	2
168	169	9
154	207	1
200	203	1
151	161	9
202	203	3
29	29	12
55	87	5
8	33	2
115	115	5
62	62	5
221	227	2
149	153	2
101	104	1
188	214	2
187	215	1
168	184	4
98	100	3
85	92	3
58	60	5
159	160	4
88	88	7
211	216	7
180	183	2
67	67	6
223	229	4
168	168	8
173	221	2
36	36	8
5	11	3
10	55	1
105	106	1
150	153	1
168	181	2
160	177	2
42	67	2
220	229	2
144	171	1
45	46	1
6	205	1
213	229	1
69	69	8
180	190	1
62	66	1
176	177	4
92	96	3
31	31	9
152	158	3
229	230	5
228	229	2
64	76	1
51	62	1
14	15	7
50	63	2
7	204	1
65	70	3
181	211	1
213	240	1
98	101	2
157	165	3
94	95	4
68	81	3
72	73	2
17	37	1
91	92	2
84	85	6
110	117	1
198	229	3
152	153	3
155	156	1
161	172	1
204	208	2
110	116	7
62	75	1
147	166	3
52	53	4
194	195	2
164	210	3
161	174	2
11	12	3
164	211	1
145	153	2
81	193	4
208	209	6
96	116	1
187	189	2
199	207	1
160	161	3
112	152	1
187	214	4
1	15	2
222	223	6
108	110	3
157	159	6
173	180	2
194	196	2
172	173	2
176	189	2
211	230	1
97	98	1
27	45	1
81	89	5
234	235	4
57	107	3
158	176	5
5	15	3
85	116	2
200	202	2
81	111	2
10	82	2
160	247	3
9	248	2
241	247	3
68	69	2
97	101	1
66	97	1
89	222	3
87	98	3
171	172	1
106	160	1
245	246	7
5	6	1
146	146	3
166	170	1
193	229	1
49	60	1
217	248	1
158	169	3
187	187	5
167	184	4
119	152	4
20	68	5
33	54	1
97	100	1
38	54	1
67	70	4
215	216	3
225	226	2
79	85	2
78	78	5
206	207	1
5	12	1
98	99	3
47	50	3
154	229	4
95	98	3
92	205	1
120	120	4
10	35	2
180	186	3
26	27	1
194	207	4
18	20	2
61	71	3
169	190	1
5	60	1
171	173	1
176	178	2
91	96	1
165	167	1
162	168	1
110	111	1
242	243	3
31	69	2
7	19	2
86	98	4
79	112	4
79	81	3
111	152	1
158	160	5
104	105	2
235	246	2
100	203	1
169	216	2
172	180	1
241	249	2
30	71	2
115	116	2
158	178	1
105	109	2
239	247	1
175	220	2
236	246	3
82	85	2
237	247	3
210	210	2
207	208	1
176	181	4
18	19	5
47	48	2
12	58	2
2	38	6
164	192	2
8	11	3
158	177	3
161	173	1
22	42	2
154	237	1
166	184	1
30	37	1
65	66	2
34	47	1
172	207	2
149	150	1
214	218	2
188	217	1
26	46	1
34	67	3
161	212	1
41	46	1
154	220	1
109	110	2
239	248	4
167	192	3
205	217	1
65	71	3
51	218	1
30	39	1
151	207	1
5	18	3
29	32	1
4	14	2
181	210	1
29	33	1
15	62	2
222	226	5
232	234	1
17	18	1
182	183	3
54	62	2
102	106	2
209	225	1
199	212	1
111	117	1
150	202	2
185	198	1
6	8	2
64	72	1
212	213	6
188	195	1
211	214	1
3	18	1
108	109	3
153	165	1
224	225	1
72	111	1
95	99	1
189	210	1
11	119	1
225	225	4
12	45	3
211	226	1
29	46	1
24	40	1
62	71	1
229	244	1
95	116	1
101	111	1
66	70	2
176	209	1
156	208	1
92	93	2
182	208	1
114	119	1
60	71	1
116	117	3
203	209	1
29	75	1
187	199	1
35	38	1
193	211	2
115	236	1
7	92	3
13	14	1
197	200	3
19	204	3
156	235	1
211	213	1
159	179	1
74	217	1
2	3	1
223	245	1
5	34	1
25	26	1
100	100	5
95	96	1
29	74	2
111	242	1
30	50	2
240	246	3
231	237	2
15	237	1
87	111	1
163	165	2
55	57	3
78	88	2
164	167	1
93	101	1
198	237	1
146	245	1
49	76	1
168	192	3
27	33	2
243	244	1
195	210	1
162	165	4
62	63	3
76	77	2
93	95	1
74	155	1
212	227	1
80	80	1
1	28	1
242	245	1
11	35	1
205	206	1
22	224	1
189	192	2
49	218	1
9	26	1
164	168	1
46	53	1
169	214	1
197	198	1
204	207	1
190	194	1
13	13	1
165	179	1
205	215	1
223	244	1
17	34	1
163	211	2
110	112	2
195	196	2
44	53	1
114	236	1
149	182	1
81	83	1
200	208	1
247	248	1
104	199	2
218	219	1
157	176	1
173	185	1
42	43	1
179	180	1
203	204	1
49	69	1
91	91	1
2	12	1
164	172	1
17	36	1
101	102	1
20	38	1
167	180	1
17	40	1
90	98	1
10	11	1
