143	159	3
171	171	2
126	126	12
157	157	9
89	89	12
173	173	17
75	77	5
12	12	12
40	40	4
9	10	6
6	35	1
18	19	5
122	122	11
131	145	1
139	150	3
43	43	13
167	167	9
56	56	20
45	45	10
136	136	7
46	46	3
138	138	14
33	33	2
41	41	17
112	113	3
129	131	5
75	75	3
23	28	2
32	33	10
39	39	25
158	158	4
28	28	3
42	42	13
22	33	1
168	169	4
30	30	17
109	109	4
162	162	15
5	79	2
1	1	9
135	136	3
168	168	1
145	162	3
124	124	9
66	66	2
156	156	5
141	141	4
85	85	3
64	64	7
74	75	2
15	16	10
17	17	16
154	155	6
93	122	3
162	163	3
96	114	3
128	128	5
147	147	1
163	167	6
153	153	2
161	161	3
82	82	6
76	76	2
21	23	4
32	32	9
52	52	8
11	11	9
127	130	1
149	149	4
83	83	3
155	155	1
7	8	11
37	37	6
96	96	2
157	158	10
128	130	1
92	118	1
65	66	1
138	153	2
167	168	5
84	87	2
1	60	2
134	134	3
8	8	6
8	9	7
160	161	6
165	165	6
160	160	9
38	38	11
130	142	1
18	20	13
127	127	4
151	155	1
63	63	3
40	41	8
158	176	1
22	40	2
92	94	6
135	135	2
3	3	3
139	139	5
135	154	2
106	130	2
3	4	10
166	167	5
119	120	5
148	148	14
131	131	6
60	60	8
54	54	6
54	55	2
67	67	2
5	5	7
81	82	2
107	107	5
27	27	10
14	37	1
158	159	4
146	146	6
104	111	1
61	61	7
18	18	5
10	11	8
29	31	1
163	163	10
10	10	10
90	91	1
13	13	11
16	16	13
11	12	6
65	94	1
143	143	4
124	125	6
121	122	10
137	137	11
134	137	1
4	4	11
94	94	9
130	130	2
10	12	1
44	44	17
15	18	3
169	169	14
170	171	1
90	90	14
150	150	8
114	114	7
4	30	5
147	148	5
15	15	2
19	19	9
65	65	13
9	9	13
31	32	7
172	172	5
68	68	2
16	41	1
80	80	6
106	106	2
53	53	2
71	72	2
96	103	4
132	132	8
26	26	7
165	168	2
118	118	3
66	68	4
109	111	7
57	59	2
22	25	1
113	113	6
4	11	3
36	36	13
7	7	12
94	95	5
96	97	5
131	142	2
96	131	3
15	41	7
55	55	7
5	6	5
58	58	1
140	140	4
49	49	3
26	27	8
102	122	1
88	89	3
4	6	1
0	81	3
103	116	2
122	123	4
22	22	11
0	0	1
103	111	2
57	57	5
117	118	7
19	37	1
20	20	1
35	35	4
34	34	3
141	142	1
87	87	1
58	59	2
23	26	4
65	82	1
129	129	5
133	133	2
12	13	4
95	123	6
140	141	1
146	169	2
95	95	12
124	177	2
10	24	2
145	146	1
173	174	3
146	147	3
127	128	3
177	177	3
142	147	1
174	174	1
78	78	8
21	22	4
35	36	5
9	44	1
152	152	6
92	92	3
165	166	2
81	113	3
143	160	3
108	108	3
5	136	1
103	103	5
24	24	6
35	45	2
97	113	2
14	14	2
62	62	1
83	84	2
145	145	7
178	178	5
25	26	6
77	77	4
123	124	2
163	165	2
52	53	4
93	93	12
126	131	1
2	5	4
61	67	1
31	61	2
116	116	3
141	145	2
163	164	2
38	39	4
174	175	3
37	40	3
19	20	1
31	31	2
70	70	2
142	143	1
79	79	4
39	40	2
93	95	1
122	139	3
86	87	1
36	37	1
16	17	2
81	112	1
120	120	3
5	158	1
164	166	4
23	24	2
20	21	1
64	65	3
126	164	2
132	140	1
88	88	1
27	28	2
176	176	5
73	73	8
1	59	2
110	110	3
34	36	2
25	28	1
63	97	1
17	18	3
1	5	3
55	79	3
166	166	1
164	164	3
84	84	5
24	42	1
115	116	4
125	178	3
113	114	2
77	94	2
148	172	2
29	29	3
151	151	3
72	72	1
104	104	9
142	142	5
149	171	2
52	74	3
84	85	6
64	89	5
125	125	3
161	162	1
128	170	2
0	2	2
61	66	1
134	135	3
115	115	2
33	34	2
28	29	2
126	161	1
22	31	1
90	94	1
4	13	1
102	106	2
37	81	1
111	111	1
43	44	3
62	96	1
91	91	2
1	42	1
18	41	1
4	117	1
141	165	2
9	22	1
102	102	2
120	121	1
112	125	1
164	165	1
10	36	1
71	71	1
2	2	6
28	36	1
64	66	1
33	36	2
123	123	1
17	41	1
179	179	2
171	172	1
80	84	2
14	16	1
97	103	2
41	42	3
3	5	1
154	154	2
124	131	2
130	131	1
9	43	1
81	81	1
150	157	1
100	101	2
35	62	1
118	120	2
60	75	5
121	121	2
77	91	2
22	23	1
98	98	1
166	168	1
170	170	3
2	3	4
24	26	1
50	50	1
70	71	3
1	2	2
23	23	2
29	30	3
138	171	1
44	45	2
17	36	1
61	65	4
141	143	1
17	19	1
154	169	1
14	21	1
26	28	1
6	6	1
20	29	1
144	144	1
3	85	1
150	151	2
74	74	1
133	134	2
51	51	2
13	14	1
180	180	1
9	45	1
148	149	1
9	11	1
118	119	1
13	40	1
99	120	1
76	148	1
154	156	1
37	38	1
101	101	1
83	85	1
4	5	1
143	145	1
8	10	1
0	1	1
149	150	1
17	37	1
17	31	1
74	76	1
