13	14	7
234	234	14
62	64	5
50	50	12
153	153	9
119	119	13
232	232	20
10	230	2
64	65	11
117	117	6
136	137	16
67	67	14
218	226	1
181	181	19
26	26	24
101	101	19
113	113	5
105	105	20
144	144	10
181	183	2
171	171	13
19	20	9
1	2	4
61	118	4
161	161	13
154	180	1
238	238	8
26	42	1
172	172	15
43	43	37
100	106	2
158	158	14
164	166	5
66	67	29
27	27	29
202	214	3
71	71	14
230	230	19
197	197	9
104	104	16
186	188	3
77	77	10
44	71	3
163	183	3
160	160	19
127	127	20
85	85	24
78	105	4
43	86	6
136	136	14
162	162	15
32	32	12
106	108	7
29	29	33
188	197	6
131	131	10
189	191	1
179	179	22
73	73	13
66	66	13
111	112	7
112	114	3
240	240	11
24	24	24
39	40	6
31	32	1
25	27	1
179	180	4
47	47	9
98	109	4
16	16	21
38	38	23
68	68	19
151	182	9
40	56	2
10	10	21
169	179	3
203	203	11
137	138	5
58	60	4
46	47	11
143	143	16
176	176	15
25	26	6
7	22	8
164	164	11
34	34	19
4	4	29
15	15	20
128	128	14
123	126	4
134	134	16
48	48	13
231	232	7
231	231	21
157	159	3
39	39	43
88	88	15
42	42	22
50	51	2
200	201	2
24	43	2
223	223	12
55	81	1
195	196	3
209	210	3
217	217	4
0	1	8
57	102	2
120	120	11
233	233	12
141	143	11
52	53	14
78	79	16
201	227	6
98	98	12
204	209	4
81	81	11
108	108	16
153	154	9
0	227	1
75	75	17
222	223	15
63	64	4
6	18	1
12	12	14
117	120	7
180	188	1
61	61	21
226	226	9
0	0	28
162	187	1
196	196	20
7	9	4
236	236	24
86	86	43
161	162	4
169	169	17
169	177	5
42	65	3
52	52	7
28	28	35
84	85	19
148	148	15
24	39	3
60	60	13
78	78	23
8	8	22
41	41	14
129	130	2
212	212	16
203	204	7
11	11	30
133	133	10
72	72	15
97	97	10
48	49	6
96	97	8
219	231	1
57	57	15
199	199	9
145	145	10
44	46	3
75	76	5
190	191	11
78	82	4
65	66	7
233	234	7
152	152	7
180	180	23
200	200	6
102	102	15
44	45	4
196	197	5
68	69	7
82	83	4
99	99	6
23	218	3
157	164	3
188	188	13
8	10	6
64	64	18
193	194	6
223	224	7
37	37	26
235	235	7
153	155	3
194	194	6
168	178	1
230	231	8
151	152	3
44	44	19
152	153	6
135	138	2
178	180	5
62	62	22
227	227	13
156	157	2
55	55	10
89	89	3
103	103	26
81	88	2
211	214	2
110	110	6
157	157	12
20	57	3
106	107	13
185	200	2
17	18	13
37	38	8
13	13	8
69	69	21
34	35	3
115	115	11
189	189	2
224	224	15
40	40	10
100	119	2
57	58	13
2	8	4
58	102	2
187	187	15
224	225	5
31	34	4
5	7	4
25	25	16
22	22	21
224	229	2
205	205	9
18	41	3
155	155	15
239	239	15
14	15	7
129	133	1
4	7	4
69	71	3
184	188	3
5	35	4
154	195	5
172	173	1
21	32	6
191	191	12
192	192	9
100	113	4
149	150	6
151	151	15
24	29	2
76	77	5
46	46	30
176	177	9
220	220	15
140	146	3
7	8	6
29	30	5
27	28	5
4	6	3
186	186	7
179	198	6
190	190	12
66	68	2
74	74	20
95	104	1
115	116	5
59	112	7
149	149	6
63	63	14
138	139	11
130	130	5
60	72	6
184	184	5
140	140	7
79	80	5
73	74	5
213	226	3
35	35	4
125	126	1
168	168	19
201	202	5
35	36	4
70	71	8
187	188	4
65	65	24
70	70	18
192	195	10
84	84	16
40	41	6
211	211	14
242	242	22
3	3	8
105	117	3
69	83	9
75	78	2
21	21	16
172	204	2
7	10	1
201	201	20
82	82	12
156	156	15
232	233	7
176	181	2
10	231	6
140	142	3
172	174	2
109	113	3
23	25	3
106	106	18
111	111	5
18	18	12
150	152	1
205	206	7
145	148	4
81	82	6
225	225	10
185	187	6
144	147	11
165	165	9
229	230	7
155	156	1
9	10	18
5	17	3
166	166	12
159	159	4
20	20	22
80	80	15
175	175	11
1	1	9
99	120	2
98	118	1
192	198	4
199	206	2
61	62	5
19	19	21
36	60	3
31	31	18
47	143	1
171	172	3
27	30	3
5	5	7
85	88	3
33	33	19
71	72	7
229	229	5
4	31	4
126	126	5
226	227	9
206	206	13
165	191	1
11	12	4
237	237	11
168	169	1
29	35	1
152	154	2
193	193	6
113	119	4
188	191	1
45	45	28
123	124	5
58	124	3
15	20	5
178	199	3
137	137	9
56	56	21
3	4	5
154	154	10
99	101	1
121	121	12
130	131	2
57	59	2
211	212	4
76	76	10
100	101	1
51	53	8
49	49	13
147	147	15
143	157	2
139	139	13
36	36	33
23	23	17
140	143	4
20	42	1
173	173	13
0	8	3
49	50	8
163	165	5
239	240	1
144	145	8
17	34	2
240	242	4
51	52	11
95	100	5
21	22	8
18	19	5
11	15	4
155	161	2
192	193	4
216	216	3
30	30	13
117	119	1
3	8	2
22	23	8
16	196	1
154	157	1
221	221	14
166	171	2
163	163	9
42	56	2
111	114	2
236	237	3
135	135	11
100	100	18
150	150	6
191	192	4
25	44	3
59	62	3
218	219	3
113	121	2
140	141	8
4	5	13
175	176	5
67	68	2
8	12	1
0	237	3
97	98	8
234	239	5
10	219	3
159	162	4
139	154	1
24	25	4
62	63	3
186	187	2
53	53	12
21	36	3
194	196	2
189	190	3
212	216	4
58	58	13
148	161	9
183	185	4
37	39	2
109	109	3
135	136	2
26	39	3
208	208	7
96	98	2
11	20	1
16	17	11
105	145	3
123	123	16
117	118	5
72	119	2
218	218	13
26	36	5
118	118	11
97	102	3
198	198	8
20	21	2
63	68	4
75	77	4
185	186	6
71	73	3
15	47	4
39	41	2
38	39	8
213	217	2
214	214	1
6	6	4
186	205	5
112	119	1
114	114	6
195	195	10
241	241	6
36	37	8
167	167	5
12	209	2
23	24	3
168	176	3
160	161	5
175	231	1
72	76	3
164	165	5
103	142	2
127	155	1
183	206	4
14	16	3
58	59	5
52	102	1
220	222	6
188	189	5
114	115	2
145	146	4
15	16	6
69	75	1
158	159	4
99	100	14
164	177	2
54	54	14
76	83	2
62	119	1
104	147	2
56	57	14
103	145	1
57	83	8
141	141	15
54	55	7
11	18	6
72	73	6
65	69	7
27	32	5
219	219	6
9	9	19
36	53	1
198	199	1
55	56	1
178	228	1
6	21	2
142	142	18
59	59	6
101	121	2
215	216	4
53	54	2
184	190	1
141	142	9
2	2	4
23	31	6
207	208	7
157	158	5
191	202	2
83	83	11
17	17	17
10	16	1
20	55	1
48	56	2
184	207	1
102	106	1
123	127	6
189	201	3
0	6	4
182	182	9
153	193	5
81	85	2
210	210	10
21	23	5
19	21	3
131	155	2
77	79	3
20	43	9
59	60	4
45	46	2
120	141	5
21	31	1
178	178	8
19	59	2
63	70	3
47	160	1
204	205	3
194	229	4
154	159	1
144	146	5
15	19	1
103	104	3
98	100	1
51	51	10
222	222	9
127	130	4
61	121	6
154	155	10
24	235	1
79	79	7
185	185	12
32	34	3
60	61	5
41	47	3
26	27	3
177	177	1
14	209	2
126	155	2
58	62	1
17	19	3
56	102	8
228	229	7
154	156	5
207	207	11
174	174	4
40	60	2
15	50	2
124	125	5
171	173	3
47	48	2
214	216	5
121	122	5
23	33	3
167	168	2
6	8	4
153	160	1
59	65	1
135	137	2
74	75	6
7	207	3
25	29	2
21	40	4
58	161	2
100	120	1
53	69	1
103	115	1
107	107	6
41	56	4
14	14	8
133	139	4
136	139	1
165	188	2
4	52	4
128	146	1
164	195	1
105	149	1
170	181	1
57	60	2
221	222	2
170	196	1
40	42	1
96	120	1
50	52	1
17	36	1
128	136	3
114	131	2
220	221	4
2	11	2
197	228	1
60	120	1
187	201	1
88	89	4
225	226	1
7	7	4
129	129	4
178	179	3
43	45	1
154	169	2
200	228	3
215	215	1
14	18	4
18	20	6
175	177	2
199	200	3
146	150	2
82	148	5
208	210	6
8	207	3
146	147	7
138	148	1
172	195	4
160	213	1
153	158	1
77	78	7
200	205	1
65	68	1
67	74	4
0	193	2
139	140	6
16	212	3
116	144	1
158	166	6
67	69	4
26	32	1
8	31	2
138	138	6
232	238	1
97	101	2
22	40	1
199	201	3
19	157	2
118	119	1
42	51	1
60	109	1
116	116	3
228	228	10
137	139	3
122	122	7
124	127	1
213	214	5
183	183	6
4	32	2
218	235	1
40	55	3
60	157	1
72	75	1
156	158	1
113	118	1
28	29	2
36	42	2
5	6	2
154	185	7
194	230	1
146	152	2
85	86	2
68	84	2
198	208	3
3	33	1
214	215	6
63	73	1
202	216	2
101	126	4
15	17	6
6	7	3
227	229	5
157	172	1
10	203	1
74	85	3
95	120	1
105	147	2
222	226	1
64	69	3
207	216	3
145	157	3
204	204	14
159	160	4
127	140	1
33	34	2
184	189	2
101	102	3
132	153	3
169	170	2
102	103	5
212	213	3
30	33	1
238	239	7
225	231	1
65	71	3
99	119	1
81	83	5
124	130	1
3	32	3
55	74	2
155	170	1
18	59	2
16	18	3
44	70	1
206	207	4
75	83	2
100	107	3
156	163	3
73	81	1
61	70	1
132	132	3
40	46	1
12	13	3
145	147	1
54	58	1
76	115	2
45	70	1
220	224	4
19	39	5
196	198	4
12	15	6
24	219	4
212	218	1
30	32	2
170	170	8
124	124	13
191	193	4
3	5	2
162	186	4
75	80	1
180	182	3
126	127	2
60	124	1
84	105	1
95	95	3
2	36	1
69	70	6
213	213	7
23	30	1
33	37	3
73	86	4
204	214	2
12	195	1
167	171	1
2	3	9
147	148	4
234	238	5
104	105	2
100	121	2
7	33	3
6	37	2
47	70	1
125	127	1
42	43	4
119	120	1
11	225	2
217	219	1
4	15	1
174	175	9
158	206	1
55	64	2
133	137	4
186	206	1
139	142	1
155	169	3
217	218	1
186	202	1
174	231	1
11	16	4
10	18	1
44	72	1
53	172	1
1	40	1
57	101	3
55	60	1
0	40	2
180	183	2
101	122	2
29	42	1
63	83	1
102	143	1
134	139	3
170	182	2
96	96	4
242	243	1
165	197	3
156	162	1
99	113	1
50	53	2
8	16	1
32	36	1
95	119	1
198	202	2
100	117	1
91	114	2
150	151	2
98	117	1
224	226	1
126	134	3
56	101	2
203	217	1
58	123	1
203	216	1
7	14	1
59	162	2
45	47	4
219	225	3
166	167	1
81	84	1
202	202	2
17	42	1
190	202	2
170	171	2
18	21	2
185	188	1
98	101	1
153	159	3
160	205	1
43	44	2
219	236	2
60	127	1
190	205	1
184	185	1
234	235	1
60	156	1
177	180	2
64	86	2
19	37	3
167	178	3
12	16	1
12	192	1
20	36	1
125	125	3
38	43	1
51	54	1
20	37	2
146	146	1
80	82	2
177	178	2
143	145	2
38	212	2
74	76	1
128	129	1
187	203	2
154	171	1
204	206	3
13	53	1
53	103	1
173	195	2
121	126	3
8	11	1
105	106	2
14	17	1
5	10	1
201	203	1
197	198	4
84	109	1
170	180	2
224	227	2
168	171	1
14	50	1
3	11	2
54	117	1
162	163	3
164	167	1
193	222	3
72	77	1
55	143	2
19	192	1
76	82	1
6	11	2
61	65	2
206	214	1
129	153	1
139	145	1
235	236	1
41	42	2
188	206	1
202	230	1
73	83	1
112	133	1
30	34	1
122	123	1
139	175	1
120	121	2
32	38	1
80	81	1
66	75	2
190	192	2
21	24	2
192	196	1
42	46	3
154	170	1
109	110	1
121	133	2
41	49	1
116	117	1
138	177	2
191	208	1
187	189	1
182	183	1
47	66	2
75	144	1
4	34	1
22	31	1
30	31	1
0	183	2
142	145	1
165	187	2
209	222	1
3	9	1
33	35	2
4	21	1
4	35	1
56	159	1
53	55	2
161	163	1
134	137	1
51	55	3
83	85	1
143	156	1
25	111	1
152	168	1
184	186	1
10	13	1
218	220	1
65	67	1
95	106	1
225	230	1
144	148	1
157	163	1
0	25	1
95	97	1
210	211	1
36	38	1
219	220	1
200	206	1
189	205	1
148	149	1
179	183	1
37	210	1
126	139	1
112	112	1
