6	6	5
126	126	1
13	13	7
128	128	8
77	77	3
58	58	5
113	113	3
11	11	2
67	67	4
21	24	6
71	76	2
184	184	2
121	122	2
30	30	4
85	85	8
127	127	6
160	161	5
134	149	1
149	149	7
9	9	1
112	112	3
39	159	1
120	121	8
45	45	5
32	32	3
106	106	3
78	78	6
111	112	4
23	24	5
122	123	3
159	159	2
117	119	1
104	104	1
74	74	7
3	3	4
39	39	2
87	87	1
155	155	8
93	93	5
63	63	2
84	84	4
122	122	9
153	153	2
152	153	1
8	8	4
173	174	2
87	88	3
151	151	3
83	84	2
8	14	2
29	29	4
172	172	1
103	103	4
141	141	9
109	109	3
27	28	2
154	166	1
150	150	7
139	139	2
152	152	5
153	160	3
180	180	4
88	88	7
94	95	1
19	20	2
124	140	2
178	178	1
33	33	4
81	81	7
5	36	2
137	140	5
98	98	2
189	189	5
30	31	12
101	101	2
79	79	3
100	100	2
148	151	2
5	6	6
169	170	4
40	47	2
123	123	2
131	146	1
96	96	4
22	30	1
38	38	5
135	136	1
82	85	2
148	154	3
141	142	1
102	103	2
159	175	3
56	94	1
41	41	4
75	75	2
83	83	4
125	125	2
173	173	3
130	143	1
146	146	2
30	34	4
14	14	2
132	144	2
55	55	4
85	111	3
143	143	1
121	121	1
107	107	1
4	4	2
184	187	1
157	158	3
164	165	3
48	89	1
5	5	4
5	53	1
85	121	2
17	19	1
72	72	3
130	141	1
108	108	6
116	116	2
105	127	3
7	8	1
10	13	3
24	34	1
27	31	1
39	47	1
40	41	3
59	86	2
81	84	2
38	53	2
88	89	4
36	36	6
48	48	5
133	133	1
0	0	6
16	17	1
188	188	1
47	125	1
81	83	2
32	33	1
20	21	1
100	111	1
117	117	3
48	49	1
25	25	1
154	154	2
141	146	3
35	35	6
12	12	4
120	122	1
95	95	2
106	108	1
23	23	1
23	25	3
15	15	2
174	174	1
151	153	1
186	186	3
124	124	2
61	62	2
133	145	1
115	116	1
43	71	2
110	111	2
73	73	1
99	100	2
66	67	5
147	147	2
26	54	2
25	26	1
42	43	5
125	128	2
53	53	1
184	188	1
1	1	3
101	118	2
31	31	1
119	120	1
21	21	1
146	147	1
140	141	1
17	55	1
7	7	1
109	110	2
68	68	3
76	76	1
90	124	1
0	1	1
57	87	1
70	71	1
147	149	1
88	120	1
0	3	1
76	77	1
65	89	1
105	105	1
26	26	1
79	80	1
58	59	1
85	90	1
86	88	1
9	10	1
157	157	1
111	111	1
35	37	1
119	119	2
166	170	1
