39	81	5
75	76	5
79	80	7
65	65	6
57	57	14
8	8	6
46	47	4
62	62	7
15	16	6
16	32	1
80	80	9
10	11	4
35	35	19
49	49	8
30	30	5
92	92	7
27	93	4
107	107	5
11	11	18
82	82	9
103	103	7
115	115	12
20	22	5
112	115	1
61	61	14
86	86	4
85	98	1
10	10	6
123	123	4
106	120	1
130	130	10
59	62	1
110	111	2
87	101	2
87	112	2
33	34	7
63	63	14
29	29	10
10	12	1
81	81	8
78	78	3
22	22	13
109	110	8
112	112	4
13	13	3
70	70	5
72	73	4
19	19	7
4	4	12
93	101	6
65	69	2
27	30	3
29	30	2
128	128	9
26	26	12
132	132	7
79	79	12
99	99	7
76	76	11
25	75	4
93	93	13
93	95	2
42	42	5
78	80	6
84	84	10
77	77	7
16	19	1
14	21	1
41	41	7
99	100	3
40	41	9
83	83	14
108	108	7
89	89	8
6	6	4
121	130	1
78	81	1
72	72	17
129	129	12
47	47	9
64	64	21
38	38	2
66	66	10
74	75	3
90	101	1
94	94	10
105	105	10
27	27	18
85	100	1
58	59	1
119	120	1
32	32	20
126	132	3
44	44	8
3	18	1
87	91	1
11	14	2
59	60	4
39	42	1
87	87	8
22	56	3
26	41	1
4	8	2
104	106	1
97	97	6
15	15	10
28	28	9
27	42	2
75	102	3
85	85	6
133	133	8
106	106	4
33	33	6
124	124	3
18	18	8
36	36	3
117	134	1
31	31	5
29	48	2
35	60	1
73	73	9
118	118	6
15	20	10
37	38	5
109	109	7
96	123	1
134	134	3
5	5	11
16	39	1
122	122	10
9	9	13
48	48	6
24	25	4
57	78	2
46	46	9
36	78	1
6	15	1
116	117	1
119	119	4
125	132	2
56	94	4
4	101	2
25	25	10
45	45	8
7	9	1
19	22	2
48	50	2
12	12	7
116	116	7
22	30	1
101	101	9
13	47	1
97	99	3
75	75	4
45	46	3
121	121	8
7	7	8
111	112	1
60	60	10
62	74	2
5	15	1
54	55	2
12	32	2
83	84	2
27	79	2
111	111	6
4	6	2
26	27	4
104	127	2
104	105	2
6	7	3
69	69	4
15	44	2
67	67	5
16	40	1
109	115	1
34	35	3
55	55	3
33	46	2
26	40	1
83	93	1
17	43	1
12	60	2
96	96	4
114	115	2
125	125	4
71	71	4
127	128	4
2	2	1
95	95	9
95	98	2
103	104	1
29	88	2
0	0	8
20	47	3
23	23	3
25	48	2
88	134	5
98	98	4
102	128	2
24	24	3
29	47	2
62	66	2
39	40	2
74	74	6
102	111	1
21	21	9
13	61	1
16	16	4
37	83	1
11	44	2
91	92	1
85	97	2
78	108	1
98	108	1
94	95	6
20	20	5
26	93	1
76	102	1
55	59	1
37	82	1
43	43	2
39	39	4
37	37	6
121	126	1
100	100	6
45	74	1
88	88	3
22	24	4
125	127	1
90	90	4
81	82	2
20	21	2
78	109	3
14	14	6
90	91	4
131	133	1
88	93	3
38	39	6
31	36	2
117	117	6
107	110	3
7	16	2
131	131	7
73	75	1
27	28	4
58	60	2
105	107	1
71	72	1
14	58	2
31	59	3
3	10	1
115	116	3
130	133	2
12	71	1
92	93	1
20	27	4
83	87	1
51	51	1
20	38	1
121	133	1
129	130	2
102	102	5
3	88	4
14	93	1
57	87	1
7	11	3
126	127	1
28	97	1
12	13	1
6	18	3
21	49	2
48	96	1
111	116	1
27	29	3
86	100	1
30	42	2
90	92	2
68	69	1
33	38	2
54	56	1
48	49	4
47	62	1
131	132	1
21	84	2
112	134	1
9	12	2
56	56	1
97	98	1
103	129	1
34	34	1
34	36	1
127	127	1
128	130	1
91	93	1
10	23	2
110	110	3
110	116	1
102	108	1
50	50	1
48	76	1
29	33	1
55	56	6
16	17	2
83	97	1
2	3	1
11	26	4
32	33	2
6	47	1
60	62	1
36	60	2
35	45	1
41	56	1
48	56	1
34	76	1
64	66	1
91	98	1
21	48	1
115	130	1
89	95	2
59	80	1
68	68	4
87	113	1
7	98	1
133	134	2
21	76	1
17	18	1
124	125	1
109	112	1
17	17	1
3	3	2
29	37	1
127	134	1
93	94	3
2	91	2
11	12	2
23	25	1
44	45	2
59	59	3
121	122	2
20	31	1
38	54	1
103	105	1
32	41	1
103	106	1
90	104	2
96	120	1
33	47	1
57	58	3
58	58	2
44	75	1
111	119	1
105	134	2
25	26	1
84	85	1
10	71	1
15	41	2
78	79	2
4	7	2
8	10	1
114	132	1
62	69	2
89	91	1
31	32	1
49	59	2
11	48	1
87	88	1
36	82	1
7	25	1
120	120	2
61	67	1
15	58	1
1	10	1
117	120	1
114	114	1
95	96	2
81	121	1
28	29	3
27	40	1
127	132	1
40	40	1
35	36	1
123	133	1
15	28	3
34	71	1
73	74	1
112	113	2
8	88	2
51	56	2
94	98	1
37	39	1
71	73	1
10	102	1
77	78	1
76	77	2
36	76	1
130	131	2
27	80	1
25	82	1
88	101	1
103	111	1
93	124	1
9	10	1
6	93	2
31	51	1
22	84	1
109	111	1
105	108	1
