2	2	9
80	81	8
72	73	16
88	88	14
5	58	4
74	86	3
81	81	11
75	75	21
61	63	1
90	90	3
51	52	7
50	59	1
48	48	10
63	64	3
87	87	11
74	74	14
51	51	8
86	86	9
6	7	5
25	27	2
18	18	7
60	63	3
84	85	6
73	73	12
20	20	8
52	52	5
55	55	4
49	76	2
3	4	3
56	57	6
66	66	10
12	12	12
32	32	4
23	23	13
47	47	7
11	11	9
86	87	4
22	75	2
61	61	8
5	13	1
68	71	4
59	60	10
83	83	11
17	19	1
53	54	8
84	84	10
67	67	9
66	82	1
13	13	16
46	46	6
66	67	4
25	26	7
17	17	4
26	27	4
3	3	10
9	23	4
54	55	5
60	80	5
28	28	6
77	77	7
81	84	1
0	0	3
48	62	1
70	74	3
68	68	9
15	15	21
24	24	25
79	80	4
21	21	7
50	50	7
59	59	7
10	10	11
66	79	3
8	10	5
31	31	12
9	10	3
57	57	12
62	62	2
14	14	9
5	49	2
80	80	4
82	83	7
23	84	2
56	56	13
5	60	1
24	25	9
70	70	6
79	79	4
85	85	13
9	9	6
12	13	7
49	66	1
54	54	11
49	56	5
25	25	9
23	26	2
24	26	1
4	5	3
1	2	6
72	72	6
67	69	2
55	56	3
56	58	3
16	16	2
60	66	3
4	15	1
4	4	14
53	55	1
55	61	3
76	76	6
29	30	4
5	81	1
52	62	1
14	15	1
17	20	3
11	25	2
49	50	5
20	31	4
19	19	14
68	72	3
13	14	4
68	69	3
19	20	2
63	79	4
54	83	5
2	3	2
55	66	4
49	51	3
10	18	3
49	49	2
5	8	1
21	31	2
60	60	2
53	53	12
77	79	1
48	66	5
1	1	3
3	11	2
5	5	6
56	76	1
47	54	2
23	83	2
28	29	1
6	6	4
30	30	7
52	60	2
27	27	7
24	31	3
27	28	1
56	65	2
76	83	2
18	25	2
23	24	2
69	69	5
71	73	1
5	48	1
3	9	3
66	77	2
14	46	1
26	26	7
76	77	1
10	27	2
47	48	3
82	82	13
70	72	1
22	22	5
72	85	1
57	58	4
78	79	1
52	76	3
89	89	3
65	65	5
58	59	2
21	22	2
71	71	5
18	33	3
71	74	2
78	78	2
17	27	5
29	50	2
58	66	3
6	8	3
16	23	2
16	19	1
15	16	1
20	21	1
52	79	3
63	66	1
56	61	4
55	59	2
13	46	1
22	83	1
7	9	7
81	85	1
78	80	1
51	82	1
73	86	3
8	9	3
66	80	1
51	80	1
5	31	3
67	76	1
30	33	1
61	83	1
85	86	1
22	23	2
8	8	3
68	73	1
7	8	4
8	20	3
52	56	1
46	62	1
0	1	1
64	66	2
30	31	4
23	28	1
5	6	5
17	18	2
46	47	2
46	66	1
48	61	1
66	81	1
82	84	1
80	83	3
80	85	1
61	62	2
47	62	1
88	89	2
26	50	1
75	76	1
67	80	1
63	78	1
6	17	1
50	53	2
5	82	1
68	70	1
76	79	1
49	61	1
58	58	2
71	72	1
0	23	1
52	59	1
