61	82	3
70	70	8
59	61	3
11	11	5
22	22	7
56	140	4
6	122	1
68	69	6
77	77	11
136	136	16
99	100	7
59	74	2
93	95	2
77	78	1
126	126	20
141	141	11
106	106	5
73	73	3
9	10	5
134	134	15
29	29	10
64	64	6
66	68	1
104	104	9
67	67	14
57	57	3
56	56	5
34	50	5
10	10	11
17	17	2
39	39	9
131	131	6
3	122	3
8	8	10
33	34	2
124	131	4
135	135	3
114	114	20
53	53	1
91	91	4
97	106	2
21	21	3
126	129	3
24	25	5
80	81	3
59	60	1
63	69	3
6	6	7
34	34	1
18	18	3
120	124	6
74	75	6
140	141	7
121	123	5
104	115	2
15	16	3
117	118	2
97	97	1
127	130	3
0	0	9
76	77	4
35	36	6
71	87	1
125	129	6
139	140	1
90	91	2
108	110	1
9	9	3
73	74	3
140	140	9
42	42	3
47	50	2
48	48	11
117	120	4
53	54	8
124	124	9
127	129	10
139	144	2
103	103	2
136	138	3
65	65	4
73	79	1
20	46	3
31	33	5
105	105	4
10	11	6
8	28	4
31	95	1
11	42	2
135	140	3
106	108	1
40	63	4
30	107	3
124	125	3
119	120	4
123	123	7
52	52	3
41	41	2
128	128	6
113	114	3
2	2	6
6	8	2
107	107	7
69	70	6
121	121	5
82	82	2
30	30	7
133	138	2
27	27	14
142	142	8
40	40	5
20	20	7
130	130	7
35	35	9
118	118	3
23	23	9
105	118	3
66	67	5
37	38	7
54	94	3
34	51	13
34	36	5
110	110	5
33	33	13
36	38	4
144	145	4
144	144	7
8	9	4
122	130	2
61	62	2
18	40	2
19	41	1
62	62	9
84	85	2
41	42	2
85	93	3
51	51	6
111	112	7
92	92	3
4	4	4
61	61	8
82	85	1
127	127	8
38	57	2
32	32	4
82	113	1
115	115	7
133	137	3
13	14	3
22	27	1
96	96	1
92	94	5
30	67	3
3	4	3
94	94	5
53	107	1
60	61	1
137	137	5
90	107	2
74	74	8
50	50	8
135	138	2
1	15	1
143	143	5
26	94	2
51	52	1
36	36	2
121	135	4
87	87	3
113	113	8
97	105	3
101	101	7
126	127	2
66	66	2
117	119	3
13	20	2
141	142	4
118	119	6
19	22	1
85	85	11
13	16	2
122	133	5
39	42	4
117	117	2
80	86	2
71	71	2
50	51	5
19	19	13
1	138	2
129	129	5
9	37	1
17	21	2
132	132	5
15	20	7
108	108	5
26	86	6
119	119	2
1	4	1
28	29	2
60	60	5
115	129	1
52	53	3
18	22	1
105	106	6
132	134	5
58	59	6
49	49	4
90	94	1
88	100	1
129	139	1
13	13	1
53	55	2
125	144	5
98	98	6
0	52	1
139	139	5
36	52	2
128	129	3
87	125	2
28	28	3
120	138	2
14	16	1
146	146	3
100	100	2
115	124	1
86	86	3
58	58	2
116	117	4
83	83	5
59	59	5
136	139	2
2	3	2
4	5	1
125	125	4
109	109	2
120	120	1
80	85	2
40	41	5
68	96	1
99	99	2
10	35	1
68	68	2
87	90	4
95	109	2
27	28	3
9	36	3
88	88	2
31	34	1
32	34	2
26	26	4
63	64	1
3	3	4
119	121	2
54	54	3
132	133	4
0	1	2
93	93	3
133	133	4
91	92	3
25	25	4
39	56	1
98	108	3
105	112	1
79	79	5
121	122	2
74	87	1
79	131	3
24	34	1
3	123	1
64	65	4
89	92	4
63	63	4
106	107	6
84	115	1
116	121	1
29	128	1
38	38	2
78	78	2
56	69	2
125	143	2
124	127	1
112	112	5
134	135	3
81	81	4
102	102	3
28	141	3
14	33	1
102	112	1
95	102	1
145	145	6
79	80	1
123	132	1
105	109	2
85	87	3
104	105	2
15	42	2
52	70	1
96	110	3
9	35	1
34	35	1
142	143	1
50	52	2
11	28	1
30	41	1
10	38	2
59	62	3
34	47	1
30	96	2
80	88	3
137	139	1
95	95	2
141	144	1
125	138	2
94	95	1
5	11	1
72	72	1
95	96	2
37	37	2
15	15	2
128	130	3
89	110	1
131	133	2
67	92	2
114	128	1
130	141	1
89	89	2
70	72	1
17	19	1
62	64	2
123	127	3
13	36	2
101	102	2
15	17	2
122	122	1
117	121	2
124	132	1
49	50	1
110	111	3
133	135	1
120	127	1
71	86	1
42	43	2
14	15	1
5	6	1
67	75	1
115	116	1
57	61	2
126	130	2
109	110	1
25	26	1
134	140	1
24	24	2
13	38	1
20	69	1
40	42	1
29	98	2
104	126	3
13	15	2
72	140	1
82	83	2
91	94	1
114	115	1
100	120	1
96	97	2
81	83	1
16	17	1
15	19	1
53	56	1
129	131	1
12	12	1
12	30	1
86	92	1
