22	23	2
75	75	10
26	26	19
168	168	19
66	68	3
235	236	10
9	84	2
11	11	19
3	3	22
179	204	3
9	9	9
38	38	18
37	37	14
3	6	2
34	34	8
182	182	6
48	49	13
0	0	7
194	194	19
228	230	1
20	54	3
139	162	5
32	32	8
175	215	2
144	144	11
147	147	13
31	31	27
43	43	13
10	10	16
104	104	7
162	162	18
85	85	10
0	17	1
39	39	20
103	104	9
35	36	10
171	171	19
153	163	4
234	234	6
215	215	9
241	241	6
6	77	4
41	41	15
29	40	2
239	239	12
42	53	2
47	47	17
40	44	5
75	78	1
99	135	2
29	32	3
7	7	15
16	17	6
71	71	15
122	123	7
190	190	9
99	100	3
14	14	11
196	196	11
54	54	22
6	7	4
203	204	7
31	33	2
116	117	2
56	57	3
166	166	5
72	72	12
164	165	5
42	42	23
103	103	9
128	128	16
166	175	1
178	178	35
184	184	4
188	188	6
145	146	5
13	14	1
118	118	13
61	61	8
231	232	6
66	159	1
18	19	4
101	101	17
40	40	16
86	86	15
36	39	3
211	211	11
52	52	11
177	177	13
125	125	10
184	205	2
18	18	22
205	205	5
113	119	12
170	171	5
204	204	5
20	88	2
119	120	1
208	208	7
154	155	12
146	148	5
68	68	13
12	12	25
83	83	4
157	232	6
148	149	6
6	6	9
48	48	18
207	207	8
81	81	20
46	46	9
30	31	6
136	136	8
55	61	3
187	187	8
115	115	21
134	140	3
164	166	1
69	69	22
129	129	6
36	36	15
22	22	19
4	4	6
52	65	3
65	162	3
144	145	8
226	226	9
113	201	8
102	102	9
19	19	13
161	162	2
158	158	11
186	186	7
73	164	5
178	179	3
230	230	21
59	59	10
154	156	5
237	237	6
116	118	4
29	29	19
20	38	2
107	108	3
229	229	5
1	1	9
81	82	12
187	194	8
154	181	1
219	219	14
21	229	2
20	56	2
225	226	14
159	160	3
96	96	14
49	49	13
51	52	2
180	180	8
13	16	1
58	59	5
98	98	8
201	201	9
71	72	6
46	47	10
240	240	20
23	28	3
45	45	5
12	19	1
8	8	14
70	70	21
84	85	4
99	102	2
34	35	4
228	228	15
156	157	5
176	176	9
61	62	8
187	197	1
137	138	5
51	51	8
24	28	1
161	207	4
7	12	1
113	113	6
222	222	5
57	57	5
60	60	7
129	130	4
105	105	9
131	131	3
127	127	9
64	64	17
15	15	13
224	224	10
183	183	9
226	227	11
137	137	2
57	60	5
180	182	7
138	139	2
2	17	1
181	181	14
220	220	10
167	167	10
79	79	5
202	202	5
41	42	5
104	105	8
191	196	5
217	217	14
5	6	5
191	198	3
139	139	11
99	99	12
188	189	2
7	77	1
150	150	9
130	166	8
99	134	3
23	23	19
110	128	4
2	2	10
149	150	4
197	197	25
25	25	8
123	123	12
238	238	5
167	168	3
77	78	5
49	50	5
77	79	3
25	28	1
218	219	6
216	217	3
44	45	5
123	127	2
84	84	9
28	61	1
86	113	11
219	220	7
109	129	1
150	164	3
132	133	1
47	61	3
147	156	1
97	97	8
146	146	5
17	18	5
176	211	2
67	67	17
42	70	1
19	37	5
233	233	11
203	203	7
223	223	10
166	194	1
63	65	6
120	120	8
126	126	5
195	208	1
121	121	7
19	36	3
106	106	5
53	59	3
114	115	5
10	232	1
142	144	2
9	101	2
19	20	11
81	84	8
143	143	10
153	155	3
23	75	1
73	73	7
221	223	2
55	55	12
185	185	12
27	27	14
200	200	6
17	17	4
20	21	7
21	42	1
28	28	15
63	101	5
60	61	1
209	210	13
108	108	11
199	199	3
74	74	7
21	21	14
107	111	1
141	141	9
159	159	5
163	170	1
138	138	8
212	212	13
88	89	2
187	188	1
130	131	1
148	148	12
170	170	8
238	240	2
111	119	1
1	2	10
65	65	11
228	229	2
127	128	1
192	192	6
134	135	12
190	191	4
129	186	3
85	113	2
73	74	7
35	35	5
19	21	2
227	229	3
4	69	1
198	198	6
155	155	3
225	228	2
134	134	11
197	200	1
81	156	1
98	130	1
10	25	4
227	227	14
115	116	2
119	127	2
170	175	4
2	33	1
140	140	6
235	235	8
79	80	8
135	136	1
62	62	11
185	187	3
20	40	1
214	214	3
180	198	2
185	197	3
107	107	3
29	31	1
142	152	3
32	48	1
14	15	5
10	220	2
125	126	8
75	83	3
174	175	5
165	165	6
116	116	11
145	147	1
164	164	5
202	205	6
33	36	3
217	224	2
202	203	1
140	142	7
136	137	5
236	236	12
20	20	15
190	195	3
100	100	10
39	58	2
238	239	5
116	119	1
167	174	6
14	31	3
162	165	3
187	189	1
205	209	2
122	122	11
45	149	1
33	51	3
101	139	1
107	115	1
231	231	9
16	16	3
53	54	1
35	39	4
133	134	7
13	13	14
77	80	2
1	31	2
7	8	4
142	142	8
32	50	1
230	234	2
232	232	5
21	22	7
81	83	3
169	216	3
113	137	2
174	174	3
9	15	1
15	61	2
125	135	4
172	172	8
184	185	2
133	133	4
104	116	2
241	242	4
195	207	1
242	242	5
65	66	4
55	73	1
8	15	2
201	202	2
20	51	3
135	135	7
214	215	5
153	153	3
119	119	8
80	80	14
26	27	4
4	5	3
164	173	4
53	53	7
119	178	4
115	122	2
133	170	5
211	231	1
176	224	2
76	81	2
204	208	3
239	240	1
82	82	7
109	109	5
157	157	12
62	155	1
223	225	3
98	133	3
65	67	5
149	151	2
218	218	4
110	110	4
212	214	1
165	170	1
57	89	3
37	38	5
152	159	1
32	208	1
44	67	2
228	231	2
211	232	2
179	183	1
63	73	2
124	126	2
111	130	4
44	66	1
15	18	2
22	39	5
216	216	6
175	175	2
160	160	4
170	173	2
141	162	2
230	236	5
204	206	6
121	122	4
33	47	1
58	58	5
20	89	2
56	56	9
42	45	2
152	152	3
3	4	3
165	166	1
2	3	4
117	119	2
224	225	2
12	14	4
103	105	4
228	233	4
15	54	2
3	68	1
151	151	4
206	209	7
102	103	6
173	173	8
34	37	2
150	151	2
191	191	7
0	19	1
150	152	2
188	212	8
56	85	1
33	33	6
5	5	1
127	134	5
9	10	4
111	111	1
20	23	3
120	133	5
24	24	1
222	223	4
146	147	3
3	12	1
148	158	2
163	163	4
84	175	2
123	182	1
53	55	4
51	78	1
125	155	4
236	239	1
169	175	1
35	37	1
124	125	5
96	100	3
21	29	1
66	66	4
123	124	4
115	213	2
12	33	1
69	72	1
26	85	2
33	35	2
27	63	1
213	216	5
15	33	1
169	188	1
236	238	5
83	84	5
230	232	5
32	47	3
35	49	1
31	32	6
220	222	3
206	206	4
72	73	1
195	195	3
199	200	2
57	88	1
104	124	1
233	234	1
193	193	6
31	51	1
112	112	2
91	91	5
81	208	4
61	152	1
44	44	10
220	221	4
90	91	1
216	228	2
187	198	2
114	114	1
1	19	3
195	196	3
86	157	2
230	231	7
66	67	1
11	224	1
127	158	1
88	88	3
8	9	3
6	15	1
12	32	1
160	161	5
134	138	1
99	136	1
185	186	2
108	130	1
45	46	2
240	241	1
215	216	2
161	161	5
114	160	4
76	88	1
1	3	2
3	5	1
121	136	2
154	154	4
140	141	2
218	220	1
191	193	1
50	51	3
190	213	1
190	224	3
48	52	4
19	23	3
28	51	3
54	84	1
229	230	1
153	154	2
45	232	1
186	196	2
191	192	1
52	60	2
10	11	2
113	171	1
199	216	2
213	213	5
30	204	1
16	59	3
133	135	3
184	187	2
78	79	2
108	200	1
11	15	2
113	114	2
149	149	2
117	118	5
189	189	6
13	62	1
173	205	1
37	83	1
179	180	5
29	30	1
23	24	1
48	68	1
80	83	4
124	124	1
95	95	2
100	101	1
138	140	1
69	70	1
71	83	1
2	54	1
15	16	2
103	115	2
63	64	1
186	187	2
99	106	1
120	128	1
34	48	1
117	117	1
194	195	5
67	159	2
25	73	1
16	31	1
30	36	1
8	77	1
155	163	1
179	179	6
59	60	1
65	160	1
55	58	1
86	112	3
33	53	3
121	183	2
13	228	2
163	171	2
102	106	2
86	100	1
210	211	1
11	84	1
83	165	1
227	228	1
62	158	1
221	221	2
130	130	1
20	30	2
24	96	1
197	198	2
141	142	1
193	194	1
76	76	4
82	83	1
62	159	2
212	217	1
77	116	1
175	205	1
36	37	2
121	127	1
102	133	1
77	77	3
108	112	1
225	225	3
21	54	1
181	227	2
96	116	1
217	226	1
62	65	1
77	96	2
164	167	1
32	42	1
168	177	1
11	12	3
35	47	1
36	47	1
145	145	2
16	77	1
38	40	4
50	50	5
122	140	1
32	61	1
237	238	1
201	205	1
64	65	1
48	65	1
33	69	2
168	169	1
223	228	2
223	224	1
80	82	2
217	218	1
191	209	2
234	235	1
4	6	2
67	193	1
119	131	1
19	51	1
176	178	1
101	102	1
200	209	1
14	40	1
192	194	1
8	16	1
70	165	2
30	30	1
32	49	1
207	208	1
57	98	1
41	50	1
185	198	1
154	160	2
18	41	2
170	176	1
24	68	1
24	25	1
212	213	1
180	181	1
176	177	1
167	188	1
25	203	1
103	116	1
78	78	1
72	80	1
136	138	1
11	81	1
126	177	1
83	85	1
77	133	1
128	129	1
31	61	1
64	74	1
6	8	1
