83	88	2
50	101	1
92	92	13
56	56	8
85	106	3
67	67	5
61	61	4
45	63	4
85	86	3
90	91	5
78	78	11
70	70	5
52	53	2
82	83	8
66	66	13
26	29	2
31	65	3
75	75	15
94	96	3
97	106	7
103	105	2
105	105	4
90	94	6
93	94	9
29	29	6
81	81	2
79	81	2
27	62	2
22	23	4
69	69	8
45	45	5
62	62	7
91	91	13
58	58	8
65	65	5
26	26	11
77	77	11
55	55	4
65	66	7
23	23	11
79	79	5
89	95	2
59	60	8
46	46	14
80	99	5
59	59	5
25	26	5
74	74	16
50	102	2
96	97	1
42	45	7
40	41	12
82	82	4
33	34	3
20	21	1
22	22	9
36	36	11
28	29	11
60	60	9
99	99	2
98	98	6
57	60	6
30	33	2
93	93	10
89	89	2
64	64	1
41	44	2
78	88	5
42	44	3
21	21	6
55	80	1
88	94	2
92	93	1
102	102	4
95	96	2
94	95	5
86	87	3
77	81	7
30	32	1
94	94	4
58	62	5
53	71	1
54	54	16
34	34	10
85	85	11
56	57	3
29	32	8
50	53	2
92	96	5
88	88	5
104	105	7
40	43	3
33	33	3
31	32	3
50	50	9
25	25	4
90	90	2
48	48	3
38	44	1
95	95	6
41	48	2
91	94	4
96	98	2
89	90	7
51	52	7
97	97	5
57	58	1
87	87	3
37	38	1
60	61	6
51	51	2
35	35	5
36	37	1
81	95	1
43	54	1
49	63	1
64	65	3
75	76	7
58	59	6
47	55	3
103	103	6
55	56	4
88	90	2
41	41	5
21	31	1
73	103	1
86	86	5
42	61	1
42	42	7
23	24	1
31	31	10
81	86	2
76	76	4
53	53	6
83	90	3
61	62	6
68	69	4
22	24	2
30	38	1
45	51	1
69	71	1
77	92	2
78	86	2
50	59	1
48	81	1
72	72	1
36	39	1
91	96	2
57	57	4
32	32	2
37	37	1
33	36	2
71	71	8
24	24	5
32	33	2
97	107	1
83	85	1
80	80	2
78	81	3
54	55	2
101	101	4
74	103	1
89	93	1
59	61	3
46	47	1
79	80	1
25	27	3
38	62	5
97	98	3
96	106	2
42	43	2
77	104	1
48	53	1
52	52	3
70	71	4
43	44	1
96	96	7
97	99	1
73	74	1
30	31	1
95	99	1
49	49	2
53	54	1
84	87	1
100	100	2
63	63	3
30	34	1
72	77	1
83	84	2
45	61	4
37	41	1
54	57	4
80	81	1
104	104	1
98	100	2
53	55	1
84	86	1
84	106	2
94	99	3
83	86	1
50	51	1
73	77	1
55	58	2
32	38	1
39	64	3
106	106	8
40	45	1
30	30	1
31	34	1
75	77	2
28	28	1
91	92	1
92	94	1
73	73	1
51	100	1
99	100	1
73	75	1
46	51	1
85	88	1
105	106	1
83	87	1
88	89	1
98	106	1
90	106	1
39	39	1
23	29	1
47	47	1
