16	16	7
12	12	10
75	75	8
89	89	7
22	26	3
1	88	4
59	59	12
26	27	6
6	6	6
30	30	13
60	62	2
3	3	23
49	50	3
65	65	8
21	21	7
67	67	12
0	0	6
47	47	6
14	14	6
73	74	3
8	8	9
61	61	2
13	25	2
80	80	12
19	20	1
54	54	6
51	53	2
1	1	15
88	88	5
82	83	3
9	9	7
58	64	7
82	82	12
27	27	10
19	75	3
65	66	2
51	64	2
83	83	5
85	85	19
49	72	9
24	31	4
81	81	21
4	4	8
11	11	9
69	69	12
15	15	8
27	58	2
48	52	1
86	87	7
60	60	4
19	22	4
7	7	3
61	63	1
76	77	3
1	4	2
72	72	10
19	19	10
56	58	1
20	25	1
67	86	3
20	26	6
27	28	7
76	76	8
55	55	7
47	58	2
46	47	6
5	6	11
20	27	4
53	56	2
63	76	1
23	28	5
52	52	13
8	9	2
24	25	5
86	86	12
31	57	2
1	81	2
5	5	7
0	88	2
63	64	4
50	50	9
74	74	6
23	27	3
48	48	6
78	78	7
23	23	2
35	51	3
51	72	1
24	24	4
63	63	5
81	83	2
77	77	20
48	58	2
6	26	2
48	59	2
20	20	3
46	46	3
79	80	4
84	84	6
85	86	2
73	77	1
29	29	9
68	68	5
50	51	7
58	75	2
22	27	2
70	80	2
76	82	2
33	54	7
49	59	3
31	31	5
20	21	3
49	49	7
0	1	1
51	52	3
31	53	2
28	28	5
31	75	1
66	67	5
25	26	1
53	54	2
87	87	6
9	56	1
53	55	5
73	73	8
28	29	3
11	12	2
47	48	1
50	52	1
64	66	2
25	25	2
51	80	2
3	4	2
48	51	3
57	57	9
13	13	5
66	66	8
68	69	4
56	56	5
25	71	2
0	11	3
72	73	2
9	13	3
35	35	2
6	17	2
58	86	4
17	20	2
10	11	2
84	85	4
50	80	1
5	27	3
8	10	1
52	72	3
48	60	2
54	77	2
50	81	1
21	31	3
55	56	7
46	62	4
5	8	1
79	79	6
14	27	1
51	51	3
13	27	2
79	83	1
22	22	6
12	50	2
58	58	4
53	87	1
49	53	2
84	87	1
50	53	2
9	10	4
46	48	2
10	10	5
2	2	4
64	74	1
17	17	8
25	27	4
26	26	6
34	34	6
31	50	2
26	74	1
62	62	2
24	28	2
70	70	5
47	61	2
46	81	2
13	28	1
19	27	1
70	75	1
2	89	1
87	89	2
60	63	2
64	64	2
29	75	1
27	71	3
9	12	1
85	87	1
17	34	1
75	84	1
49	51	1
61	62	3
74	85	1
75	85	1
55	66	1
17	22	1
80	85	2
5	22	1
15	16	4
64	65	1
8	54	1
89	90	1
6	8	1
75	77	2
48	54	4
8	52	1
67	69	1
78	83	1
30	31	1
63	65	1
71	71	1
13	26	1
5	9	1
12	51	1
60	61	1
62	63	3
33	33	1
13	20	1
74	79	1
65	74	2
12	15	2
81	82	1
57	58	2
60	64	1
80	82	1
58	81	1
27	30	1
13	14	1
85	89	1
59	78	1
65	88	1
22	31	1
78	81	1
61	76	1
