117	119	6
75	75	27
27	27	34
5	54	1
26	26	46
47	48	12
125	125	16
72	72	6
147	153	4
13	13	21
21	22	9
97	97	23
43	43	29
103	103	24
29	29	24
151	151	34
133	133	19
123	123	33
17	17	29
88	89	15
140	140	19
65	65	14
104	104	26
35	35	19
70	71	10
107	109	8
114	114	16
91	108	5
16	23	1
87	87	36
132	133	11
47	47	14
144	150	2
8	8	18
110	143	4
105	105	31
128	128	24
1	2	13
32	33	12
8	11	8
23	23	26
5	5	20
102	102	10
139	139	32
134	134	25
131	131	20
51	54	6
84	84	7
51	51	16
30	32	4
124	127	5
24	26	2
120	121	4
83	123	3
18	18	29
49	57	1
55	56	4
45	45	28
80	80	21
26	27	7
36	36	44
108	110	6
78	78	12
89	89	13
115	115	26
90	90	17
96	96	13
137	138	10
108	151	3
32	32	23
80	87	2
148	148	31
114	151	5
66	71	2
127	127	24
52	52	11
89	91	2
137	137	19
33	33	47
75	93	3
149	149	15
117	136	4
148	149	1
40	40	19
93	95	6
49	49	7
129	158	4
3	51	2
117	117	30
52	78	2
8	9	11
106	106	17
118	118	8
25	28	3
95	106	4
138	139	13
0	0	30
112	112	9
99	99	30
31	31	11
98	98	40
85	110	8
158	158	21
135	135	23
129	129	46
46	47	14
14	14	13
1	1	27
89	90	4
25	27	5
92	94	6
144	144	13
72	73	3
80	81	10
27	44	1
93	93	19
54	55	11
118	119	9
25	25	30
92	95	4
150	150	23
11	125	1
63	71	1
2	27	4
92	93	16
104	105	10
92	92	40
2	2	29
7	7	43
66	66	22
16	16	34
73	73	30
23	24	19
119	119	15
113	115	2
153	153	12
105	106	2
116	136	2
107	107	22
79	80	17
45	46	1
100	100	31
3	3	29
98	100	8
42	42	14
68	68	8
131	149	5
156	157	13
65	66	8
88	90	2
11	12	11
84	85	9
108	109	2
46	46	14
3	49	2
54	54	17
110	110	6
117	118	17
87	129	1
80	99	7
50	50	8
80	82	4
10	10	12
122	122	19
37	37	15
28	28	38
7	8	13
41	41	16
138	138	23
140	141	5
156	156	19
96	98	1
133	138	3
133	152	3
108	111	3
149	150	7
140	147	3
115	116	4
71	71	15
6	6	23
67	67	20
21	131	3
79	79	25
125	126	6
51	53	3
5	6	14
86	86	8
22	22	24
2	3	14
4	151	2
131	132	2
4	4	25
155	157	4
103	105	4
120	120	12
36	38	3
111	112	8
95	95	20
39	39	21
81	148	1
50	51	8
52	53	7
24	24	35
111	111	21
5	157	1
29	32	3
92	110	4
6	7	6
83	85	12
56	67	2
73	100	3
128	158	3
157	157	23
14	15	6
69	69	12
57	57	4
44	46	2
95	97	2
94	94	20
118	120	3
3	102	5
132	132	14
17	18	9
153	158	1
143	143	5
128	159	3
53	54	10
152	154	1
8	120	4
13	14	7
123	124	7
15	23	1
51	80	3
0	1	9
99	100	2
17	19	7
99	115	2
114	115	6
136	137	13
96	97	4
97	98	7
91	91	32
130	131	10
15	15	10
127	147	6
24	25	8
81	144	1
19	21	4
63	63	6
81	105	3
109	115	2
6	12	1
129	130	11
34	34	14
0	65	5
152	152	15
88	88	18
131	153	5
91	92	8
95	119	1
83	83	3
136	136	7
49	144	5
139	140	7
125	154	3
33	46	3
9	9	9
25	38	3
39	40	4
121	122	10
154	155	7
67	68	4
30	30	21
154	154	10
142	148	2
12	12	19
76	78	5
123	148	5
87	88	7
142	144	2
113	113	13
15	28	2
99	101	2
126	127	6
92	130	2
116	116	18
36	37	5
21	21	13
4	5	8
28	31	1
125	147	1
101	101	24
3	54	2
77	77	11
77	79	5
57	61	1
108	108	8
157	158	5
128	156	3
110	151	1
16	18	2
0	40	2
25	26	8
85	87	2
153	155	2
81	103	2
126	147	1
48	48	17
11	11	11
109	109	5
135	137	6
126	126	9
121	121	10
21	54	4
54	78	1
106	107	19
19	20	5
44	45	14
155	156	9
55	96	6
151	152	5
7	9	1
116	119	4
134	135	3
131	133	3
121	154	3
5	101	4
124	124	13
142	149	1
10	11	5
81	82	14
113	114	9
26	148	4
50	52	3
12	30	2
120	124	2
132	147	3
50	147	1
35	135	3
87	94	3
64	64	4
17	24	2
133	140	7
93	94	9
81	86	10
37	45	4
22	25	2
135	136	11
10	13	5
66	69	4
130	130	27
44	44	9
142	146	2
71	76	1
15	16	6
41	43	6
100	101	2
144	145	1
155	155	17
74	74	1
151	154	2
68	70	7
3	4	11
14	31	1
0	5	5
95	96	13
127	157	3
35	45	2
148	150	5
116	117	5
22	23	9
1	44	2
27	41	3
134	139	1
98	110	4
139	142	4
61	61	3
20	20	4
19	19	3
6	66	2
86	110	5
102	104	3
10	14	3
80	96	1
11	13	2
141	141	12
24	130	3
76	76	3
132	155	1
34	36	2
39	42	2
44	99	1
110	111	4
156	159	1
129	131	2
115	127	1
80	128	3
137	145	2
82	82	7
16	43	1
31	32	4
75	95	2
74	79	2
32	36	1
20	21	3
130	134	5
54	80	3
129	156	2
5	16	1
83	86	1
27	28	7
2	100	5
114	126	1
113	151	1
145	146	2
48	49	7
38	39	15
40	41	13
50	57	3
108	139	1
24	115	1
30	31	4
146	148	2
50	142	1
146	146	7
81	87	4
114	130	3
82	105	1
23	33	1
30	132	3
86	96	2
36	40	3
153	154	6
36	132	2
21	142	2
124	125	4
130	137	1
135	138	3
139	150	1
85	85	7
79	86	1
66	103	1
16	17	11
90	91	5
5	129	1
107	110	2
131	148	3
53	53	7
81	81	28
114	152	5
56	56	8
116	123	1
71	72	4
0	3	2
135	140	2
131	155	2
2	5	1
98	99	2
70	70	6
122	126	1
128	129	4
141	143	1
100	102	3
23	29	2
87	91	5
148	157	4
27	130	2
82	87	1
49	50	3
69	70	14
74	93	2
109	140	1
120	137	3
137	139	4
80	148	1
37	43	4
12	137	1
154	156	4
124	157	1
68	69	3
102	103	1
93	98	1
127	129	3
18	19	4
148	151	1
32	37	2
117	124	2
101	102	2
95	99	2
114	138	1
95	107	2
21	25	2
147	154	3
107	108	5
119	121	7
43	138	3
10	27	1
99	112	2
94	95	2
3	6	2
147	147	6
22	138	1
6	24	1
35	36	3
91	107	2
34	37	2
148	152	2
152	153	4
111	114	1
62	62	2
12	13	8
42	46	1
85	86	5
145	145	3
132	138	1
146	147	2
128	142	1
21	153	1
143	149	5
18	46	1
73	103	3
43	46	2
131	147	1
39	41	1
13	16	1
73	98	3
93	101	4
12	35	1
4	22	2
22	131	2
54	79	2
97	99	2
88	120	1
127	158	2
152	156	1
150	158	2
144	146	2
62	71	1
151	155	4
3	101	1
7	137	2
112	114	1
4	21	1
31	36	3
37	38	2
55	55	14
73	130	1
123	139	1
48	50	7
94	96	2
34	46	1
133	134	1
95	111	2
50	78	5
21	27	2
42	45	3
111	143	2
29	33	2
103	104	6
64	65	1
83	84	3
31	34	3
38	43	2
46	149	3
92	127	1
131	151	2
64	71	1
91	95	1
144	147	3
114	136	1
142	145	1
150	154	1
109	113	1
121	139	1
49	51	3
109	111	2
0	98	2
143	144	3
36	39	4
91	96	2
40	42	2
1	3	2
27	152	1
35	136	1
133	141	2
96	119	1
6	130	1
42	47	3
119	120	2
3	53	2
141	142	3
26	28	1
63	70	4
129	138	1
148	158	2
16	29	3
121	153	3
38	38	7
45	134	5
22	24	2
156	158	6
51	52	3
142	142	5
140	146	2
107	157	2
46	51	1
69	71	3
64	70	1
18	35	2
4	157	1
82	103	2
75	92	2
77	78	3
6	35	2
6	97	2
26	38	1
30	129	1
82	84	1
28	102	2
84	86	2
49	52	1
92	97	3
114	141	3
7	99	1
132	134	4
32	43	1
78	79	1
19	22	2
3	52	5
6	155	1
88	131	3
111	150	1
131	159	3
46	48	1
4	6	2
25	29	2
2	50	1
122	124	1
3	24	2
131	154	3
86	127	2
73	131	1
3	48	1
21	152	5
26	95	2
80	105	1
3	27	2
50	144	3
45	55	4
55	79	2
48	51	2
121	123	2
122	146	1
82	83	3
50	82	1
82	85	1
16	39	1
85	88	6
20	23	4
73	86	4
125	127	4
81	84	1
25	154	3
12	138	1
119	138	3
44	47	4
43	47	2
130	148	2
119	125	1
30	36	3
21	46	3
128	130	2
139	148	1
4	153	1
150	151	3
23	48	2
36	75	1
25	131	2
19	46	1
82	123	1
37	76	1
84	113	1
3	91	1
84	87	3
80	97	1
105	110	2
127	128	1
22	26	1
6	149	1
53	77	1
24	29	2
80	95	2
33	34	5
122	123	6
67	70	4
88	92	1
6	154	1
28	33	1
109	142	3
79	87	1
35	101	2
1	35	1
92	124	2
141	147	2
5	116	1
85	149	1
53	80	1
140	148	2
16	38	1
80	85	2
8	121	1
22	30	3
17	55	1
80	88	1
19	24	2
14	24	2
27	45	1
154	157	1
66	67	1
130	138	2
8	10	1
30	133	1
113	116	2
15	17	2
142	150	2
66	83	3
14	30	1
15	22	1
7	14	1
50	111	1
158	159	3
116	118	1
142	143	1
99	114	1
134	140	1
4	17	1
82	142	1
105	118	1
4	54	1
61	62	1
63	64	1
120	139	2
35	38	1
9	11	2
132	141	3
67	69	1
32	35	1
36	134	2
145	148	2
135	139	2
95	98	1
132	148	4
87	127	1
42	43	1
110	116	1
34	140	1
21	155	1
121	137	1
145	147	1
4	154	2
3	5	1
142	147	1
29	30	1
93	100	1
113	126	2
108	116	1
11	28	1
106	109	1
121	140	2
123	127	1
7	138	1
115	151	2
130	156	1
86	87	2
55	65	1
128	131	2
88	134	2
16	21	2
51	109	1
115	150	1
133	154	1
34	35	4
31	33	1
35	139	1
112	113	1
74	95	1
76	77	1
52	54	2
3	56	1
52	109	1
110	115	1
0	41	1
11	24	1
90	123	2
115	117	1
68	71	1
116	138	1
81	127	1
66	84	1
18	25	1
112	119	1
66	72	1
125	146	1
26	43	1
132	137	1
15	30	1
55	57	1
44	54	1
144	148	1
88	121	1
90	92	1
80	120	1
10	26	1
20	47	1
29	130	1
108	112	1
134	138	1
22	132	1
