75	76	6
11	11	2
76	78	3
81	82	5
58	58	11
26	26	3
24	24	10
70	71	2
81	84	2
55	56	1
80	80	3
68	69	11
9	12	3
5	10	5
62	63	6
84	84	8
70	70	5
0	0	7
75	88	1
77	80	2
49	51	8
15	16	3
56	56	14
78	82	4
50	51	2
53	54	6
4	4	17
54	55	1
59	62	5
29	29	5
87	87	6
83	83	31
82	82	9
61	61	8
6	7	3
15	15	14
62	78	7
31	71	2
7	17	5
75	75	14
13	14	2
28	28	8
13	13	8
73	73	6
65	65	4
22	22	11
68	68	10
62	62	3
52	52	6
89	89	2
15	81	2
9	10	5
50	50	8
23	23	11
85	85	2
49	52	5
27	27	6
7	7	19
74	74	5
30	30	16
25	25	14
77	77	12
60	60	2
17	34	2
51	51	13
32	83	2
76	77	3
60	61	5
78	78	3
3	4	3
85	87	3
81	81	16
49	50	9
55	61	3
3	3	10
72	73	6
79	79	21
12	13	3
72	72	4
48	48	5
3	5	2
8	12	3
49	66	1
54	59	1
29	57	3
67	67	10
5	5	6
75	84	4
66	66	11
76	76	9
69	69	8
47	47	8
71	71	2
21	21	11
48	63	1
5	6	2
64	77	4
80	83	1
78	79	2
0	15	1
59	60	5
47	48	1
49	49	3
57	57	9
61	62	6
46	48	1
30	31	2
51	52	2
24	25	2
10	11	3
60	79	1
4	77	1
86	87	12
14	14	8
23	27	3
34	35	2
55	60	3
78	83	3
19	19	9
60	62	1
8	8	3
2	68	1
9	13	4
13	17	4
59	59	3
12	19	1
4	5	2
49	53	4
52	55	2
53	53	3
1	1	3
47	61	2
19	30	1
4	31	1
20	20	3
57	58	5
54	54	10
71	81	3
88	88	2
76	79	3
10	20	1
63	63	8
10	10	5
17	17	4
53	58	1
16	18	1
16	17	2
2	2	4
17	26	2
47	49	1
87	88	1
78	80	1
46	47	3
11	19	2
64	65	3
12	12	2
51	54	2
85	86	4
59	78	1
52	53	3
7	8	2
65	80	3
82	83	2
28	31	2
64	64	1
19	20	6
0	1	2
65	66	4
12	18	1
13	16	1
47	53	1
60	63	1
6	6	2
8	9	1
79	81	1
77	83	1
59	65	1
48	49	1
6	80	1
20	33	2
75	77	1
52	59	1
32	82	3
66	67	2
11	12	1
51	82	1
18	18	2
5	26	1
73	74	2
66	81	2
77	79	1
20	25	1
67	68	4
9	9	4
13	19	1
64	78	1
26	34	1
5	65	1
55	55	5
11	15	1
20	22	2
48	56	2
28	56	2
46	51	1
50	54	2
34	76	1
50	76	1
53	55	2
50	59	1
76	82	1
77	87	1
34	34	1
80	81	1
33	33	2
8	13	2
53	56	1
62	79	1
65	72	1
31	55	1
75	82	1
32	33	1
51	58	1
69	70	1
58	80	1
0	67	1
51	65	1
62	64	1
12	14	1
5	17	1
14	18	1
26	27	2
2	29	1
74	75	1
10	82	1
11	23	1
