34	35	6
39	39	3
180	180	4
85	86	1
149	149	6
119	183	1
133	133	2
189	189	8
89	89	6
138	138	3
59	59	9
191	193	2
101	101	3
196	196	1
142	142	4
26	34	2
192	193	3
119	196	1
62	63	5
82	84	2
4	4	15
50	50	7
135	136	5
101	124	2
139	159	2
144	172	4
56	56	4
39	61	1
158	158	9
47	47	13
116	145	1
129	130	3
109	112	2
27	36	1
15	168	2
20	20	2
15	15	9
141	141	7
184	184	5
117	117	8
99	99	5
41	78	3
82	83	7
137	137	9
148	155	2
194	195	2
48	48	6
102	155	3
62	62	8
102	103	6
42	42	13
31	31	2
68	68	5
193	194	4
168	173	3
108	189	1
134	144	4
152	153	4
13	13	6
122	184	2
115	146	2
104	105	2
43	65	2
183	183	19
59	67	3
144	164	1
101	168	1
190	197	2
114	127	2
23	23	9
153	153	6
3	5	1
35	35	7
41	41	6
114	131	1
159	160	4
9	10	4
40	51	1
99	104	2
12	12	14
36	37	5
10	12	4
14	32	2
188	188	2
129	151	2
33	33	9
70	70	14
128	196	3
67	68	2
51	51	2
58	58	13
3	7	4
76	89	3
57	127	1
37	38	2
11	57	4
111	111	5
27	27	6
102	102	1
161	161	6
2	2	4
128	128	7
45	45	12
60	61	1
60	63	3
47	58	3
156	194	2
30	30	15
151	152	2
131	143	2
150	150	12
122	122	10
9	159	1
169	169	10
5	19	10
9	155	1
182	188	1
153	156	2
28	35	1
1	19	2
160	160	3
78	78	3
45	113	1
36	36	16
64	64	1
135	140	4
136	180	4
46	46	5
41	62	6
187	187	13
106	107	2
44	44	4
16	16	2
14	50	5
23	34	2
69	69	4
79	79	1
53	54	6
17	17	1
82	82	4
88	89	3
119	119	12
166	166	4
172	172	6
118	182	2
44	66	6
24	26	6
124	124	6
191	191	5
112	123	2
195	195	4
20	115	1
157	166	1
171	172	7
187	188	6
21	21	1
14	14	9
193	193	6
54	54	8
157	157	5
16	31	1
81	81	6
178	178	7
106	106	3
43	55	2
70	97	1
96	97	1
144	154	4
170	170	4
51	56	5
175	175	6
116	156	4
77	77	6
1	5	5
172	176	3
152	152	4
123	129	1
61	62	3
48	49	1
24	24	6
24	25	3
113	129	2
100	100	4
135	135	2
120	184	8
31	32	2
8	17	1
54	55	3
69	103	2
131	134	3
8	70	3
112	124	3
40	41	3
119	129	2
118	130	1
42	64	2
10	11	1
194	194	3
166	178	4
174	175	2
4	6	3
49	49	5
133	134	2
32	58	5
11	51	4
73	73	2
40	55	3
120	120	5
78	118	2
159	159	11
25	40	6
119	130	2
12	155	2
147	158	1
164	164	2
88	88	3
109	109	11
129	129	2
61	66	2
160	168	2
181	182	1
72	72	8
108	110	3
66	67	2
158	166	2
138	164	5
155	156	4
167	169	4
44	64	4
126	126	1
55	55	8
163	163	4
68	76	3
156	156	2
169	170	3
153	154	1
32	32	7
130	130	2
94	94	4
173	175	3
66	66	2
138	161	1
131	135	3
163	190	2
181	194	1
34	34	12
5	6	4
52	52	6
126	127	2
39	43	1
148	156	1
186	186	4
13	43	4
37	37	6
21	22	3
85	85	3
147	147	8
168	174	1
118	118	1
6	6	6
116	116	2
57	58	2
7	7	2
9	9	5
4	16	1
115	115	6
6	11	1
172	175	2
166	167	1
117	177	1
176	176	3
81	82	4
182	182	2
53	53	6
170	171	3
43	43	2
174	174	8
57	57	11
113	185	1
190	191	2
136	136	4
25	26	2
58	74	1
117	135	3
150	151	2
190	190	2
3	69	1
174	176	3
18	21	1
119	132	2
11	11	2
136	140	2
118	120	6
163	164	2
6	18	2
171	171	3
159	163	3
0	132	3
54	71	2
138	140	3
176	181	1
154	154	3
162	163	2
61	64	1
139	139	2
116	137	1
8	8	2
45	51	3
57	84	1
167	167	3
121	181	2
139	174	1
1	1	3
116	117	1
105	105	3
98	103	2
38	38	5
181	190	5
151	151	2
139	164	1
43	44	3
160	161	2
152	160	2
4	15	1
146	146	1
181	185	1
151	158	1
27	29	4
144	144	1
143	143	2
19	21	4
169	174	3
38	43	1
147	166	1
182	193	1
71	73	1
40	40	3
102	120	1
37	40	3
174	179	2
143	161	1
89	90	1
46	90	1
171	187	1
173	174	8
150	193	1
141	143	2
20	33	1
90	90	3
189	190	2
137	173	4
173	176	1
98	98	1
160	178	1
118	180	4
138	165	1
74	74	2
142	143	2
31	87	2
71	71	2
162	164	1
16	17	3
173	173	5
5	8	3
13	52	1
98	104	1
148	148	4
75	75	1
64	74	2
59	61	1
3	3	4
131	131	1
108	151	1
58	84	2
42	69	1
121	147	1
2	7	1
109	110	4
67	74	3
52	53	2
30	32	1
130	145	1
153	161	3
154	159	2
8	23	2
141	142	1
65	85	1
132	132	3
105	110	2
108	108	2
104	104	5
22	23	4
87	87	2
145	147	1
22	26	3
132	133	1
144	152	1
149	151	1
2	37	1
10	16	1
42	43	1
103	104	4
110	110	2
107	133	1
4	5	2
169	173	1
140	140	1
181	181	4
4	8	1
39	62	1
2	3	1
27	31	4
119	120	3
86	87	1
67	67	3
119	133	1
58	62	2
106	130	3
171	177	2
112	112	2
63	63	1
47	48	1
146	148	1
160	190	1
27	34	2
192	192	2
71	72	2
24	49	2
1	2	2
44	45	1
179	179	1
72	73	2
5	18	2
11	15	1
110	112	1
0	0	2
138	139	1
56	57	1
8	67	1
77	79	3
190	194	1
177	177	1
63	72	2
43	51	1
70	71	1
158	159	2
179	181	1
150	155	1
177	178	2
22	22	1
6	23	1
162	169	2
196	197	2
155	155	1
61	73	1
103	103	1
100	101	1
45	50	1
79	80	2
77	78	1
168	168	2
46	73	1
136	150	1
154	157	1
137	179	1
116	147	1
2	8	1
165	165	2
88	90	1
5	5	1
102	156	1
117	118	1
32	38	2
131	142	1
65	65	1
165	166	2
0	22	2
99	100	1
3	4	1
62	64	1
46	51	1
47	89	1
71	84	1
25	25	3
108	152	1
184	191	1
28	30	1
3	8	1
112	113	2
37	52	1
6	8	1
171	175	1
186	187	2
11	13	1
8	61	1
145	161	2
131	145	1
168	180	1
135	137	2
108	109	1
112	130	1
179	193	1
35	36	1
107	108	2
178	185	1
162	165	1
153	165	1
106	124	1
12	13	3
10	10	1
39	42	1
13	19	1
123	123	1
73	75	1
162	190	1
0	114	1
38	44	1
52	54	1
28	29	1
129	185	1
156	157	1
185	185	1
44	59	1
49	60	1
6	20	2
9	57	1
30	31	1
