48	50	4
111	114	5
21	21	9
65	101	1
102	102	12
94	94	21
22	22	13
9	9	13
74	81	2
58	58	11
10	10	6
23	23	5
19	19	10
40	40	14
83	83	4
110	124	2
75	80	5
109	110	1
107	108	5
88	88	7
29	30	8
104	120	5
113	114	2
70	70	11
22	26	7
21	62	1
28	120	4
52	52	17
41	41	16
39	128	2
107	107	5
4	4	14
25	25	8
60	60	8
48	121	3
61	61	12
90	90	17
60	67	5
125	125	8
72	73	4
50	50	8
127	127	3
78	78	10
82	84	4
62	62	11
51	51	11
128	128	8
0	0	8
43	43	17
44	44	6
126	127	6
112	112	17
3	23	3
106	106	12
4	5	9
76	130	1
129	129	8
57	57	12
69	123	3
73	74	5
76	101	1
38	38	10
72	72	13
18	91	2
48	48	12
94	95	1
100	100	10
5	12	2
75	112	2
14	18	2
5	5	14
19	71	3
38	107	1
11	11	14
87	105	3
63	63	18
46	47	3
22	23	10
61	67	1
4	24	2
45	109	3
104	104	16
126	126	18
76	76	17
38	128	2
82	82	14
108	109	2
21	22	5
67	67	5
95	95	10
83	97	2
56	56	14
85	85	7
47	47	11
111	111	23
79	80	7
60	63	8
1	1	11
28	28	7
127	128	10
45	107	3
43	44	4
75	75	11
2	24	3
115	115	8
34	41	1
61	79	1
77	77	11
17	19	4
7	14	5
111	112	2
58	108	4
71	71	5
120	120	13
132	132	5
19	39	2
50	51	10
2	2	14
121	121	10
122	123	1
32	71	1
72	81	3
76	95	1
59	59	12
6	27	3
18	19	6
56	64	1
120	121	6
96	98	1
130	130	10
24	24	12
33	33	12
88	90	1
55	55	19
110	110	16
80	80	6
54	110	2
65	65	8
13	45	3
115	116	5
86	109	2
114	114	7
41	42	4
99	106	3
129	131	3
87	87	2
79	79	15
16	16	7
17	73	1
24	128	1
125	126	3
113	113	7
39	95	1
6	126	3
69	69	14
41	82	5
12	65	1
74	74	8
111	117	1
85	89	5
58	109	6
0	9	3
19	21	2
8	13	1
67	124	4
17	17	7
101	117	2
5	25	1
6	67	2
105	105	7
42	42	14
83	89	4
76	117	2
86	86	2
96	96	14
41	44	1
29	29	12
31	31	7
49	110	1
106	121	3
26	27	4
98	98	8
100	108	2
84	85	3
31	128	2
39	61	2
108	108	11
119	119	16
52	53	3
97	98	2
91	91	4
101	101	6
62	63	2
55	129	3
82	85	3
49	56	1
66	66	8
5	18	3
77	80	3
101	102	1
45	45	8
64	64	4
98	100	3
70	71	1
49	49	9
32	61	3
84	84	11
86	88	5
73	118	3
122	122	9
55	65	1
0	8	3
15	18	1
123	123	15
53	53	8
13	13	12
26	26	14
12	12	3
56	131	3
33	40	3
17	101	1
92	92	12
103	103	8
46	46	12
3	56	2
88	95	4
100	110	1
6	6	7
80	119	1
27	27	7
80	120	2
15	55	1
47	104	2
32	32	7
61	62	2
40	105	2
88	104	5
8	8	6
54	132	6
18	88	3
117	117	8
49	71	4
59	62	4
31	91	1
5	21	3
88	89	1
82	83	3
98	128	2
11	23	1
81	82	5
102	103	1
54	54	10
16	18	2
61	93	2
59	115	3
48	130	1
116	116	9
90	91	4
60	62	4
24	33	2
0	1	1
108	118	2
99	99	6
7	56	1
39	39	8
51	108	3
44	67	4
28	49	2
20	96	1
64	82	2
107	127	2
93	93	7
46	104	1
68	68	6
68	73	1
73	73	6
124	124	6
110	112	4
13	100	2
34	43	1
66	68	1
47	52	1
102	118	1
11	12	4
2	14	1
38	41	1
47	69	1
128	129	9
106	129	1
99	100	3
66	67	3
63	77	2
89	89	9
63	102	3
67	69	3
83	125	1
130	131	2
80	81	4
7	20	2
43	55	2
15	15	2
45	127	2
100	117	3
8	26	2
59	131	2
32	42	2
2	11	2
75	76	1
18	18	4
6	7	1
45	79	1
14	14	3
29	31	2
100	101	6
82	87	4
16	17	2
102	130	1
90	100	2
131	131	6
45	55	1
109	109	5
15	44	2
12	15	1
76	77	3
17	33	1
33	97	1
69	92	2
110	113	1
57	119	1
85	88	2
7	10	2
18	90	2
105	106	5
55	89	1
39	126	1
65	103	3
13	52	1
48	109	2
49	50	2
41	99	1
119	120	1
116	118	3
34	74	1
10	57	2
32	62	3
19	40	2
68	69	1
75	101	1
3	18	1
49	122	4
5	72	1
96	109	1
20	28	1
45	46	4
19	99	1
40	42	1
89	90	1
77	78	2
60	64	2
44	87	1
7	7	2
1	12	1
88	93	1
118	128	1
65	77	1
8	9	2
15	71	2
57	83	1
49	51	1
19	20	1
118	119	3
78	82	2
48	74	1
6	56	1
112	120	2
83	115	1
129	130	2
61	86	1
30	31	3
85	116	2
3	3	1
19	68	1
63	78	1
43	85	1
11	24	1
86	87	3
52	108	2
4	15	1
105	107	1
54	55	1
118	118	3
33	38	1
57	58	1
106	107	1
83	84	2
90	99	2
47	116	1
2	43	2
30	30	1
83	112	1
41	128	1
1	2	1
64	65	1
7	126	1
13	14	3
91	92	2
10	11	1
78	79	2
13	26	1
54	125	1
84	86	1
85	111	3
56	57	2
34	34	1
38	39	1
87	117	1
64	98	2
32	60	2
51	86	1
67	68	3
4	21	1
40	41	2
20	20	1
14	15	1
106	109	1
96	101	1
5	13	4
42	79	1
116	117	2
60	82	3
96	97	3
51	57	2
77	114	1
55	66	1
114	118	1
56	130	3
34	79	1
50	52	3
44	45	1
107	109	2
99	102	1
111	113	1
77	133	2
44	55	2
19	33	1
106	132	1
62	76	1
56	58	1
33	41	1
3	26	1
64	93	1
40	101	2
22	24	2
43	45	1
31	50	2
120	124	1
81	113	2
95	96	1
58	126	1
39	102	1
92	94	1
58	59	1
73	109	1
47	98	1
61	81	1
31	32	1
48	52	1
128	130	1
4	23	1
88	98	1
64	116	1
70	92	2
51	52	1
2	77	2
131	132	1
42	114	1
44	97	1
58	80	1
32	78	1
99	101	1
114	119	1
44	96	1
2	133	1
4	30	1
6	9	1
58	124	1
28	29	1
97	99	1
47	48	1
17	18	1
42	82	1
31	58	1
