1	1	10
68	70	7
76	76	22
12	12	13
36	39	4
63	63	5
67	67	18
54	54	3
71	71	12
37	37	15
17	17	17
28	45	2
42	42	19
47	47	14
10	32	2
36	37	5
59	59	10
31	31	25
3	3	15
79	79	12
32	52	1
27	28	8
39	40	2
36	36	7
69	70	6
51	51	8
5	6	20
1	2	5
63	65	3
27	45	1
67	69	3
48	64	6
6	6	9
32	69	3
1	8	7
13	14	19
16	16	5
4	30	1
4	4	11
57	57	12
80	80	10
10	11	11
41	41	17
45	46	4
58	60	2
35	35	10
45	45	8
58	58	12
40	40	15
19	19	9
3	35	3
14	14	19
73	73	24
59	60	5
74	74	26
8	25	3
72	72	23
69	69	11
74	75	5
39	39	16
26	26	12
13	13	6
3	4	8
11	51	6
78	78	21
65	67	8
11	12	6
27	27	15
53	70	4
10	10	10
52	52	14
35	38	3
7	7	16
5	5	16
55	55	9
33	33	11
53	53	14
75	75	8
37	62	3
16	47	3
11	11	5
16	17	3
41	48	2
68	68	5
67	68	17
29	56	1
64	65	5
32	32	14
56	57	3
31	32	11
47	80	5
59	61	3
30	34	2
49	68	1
12	13	6
18	18	16
65	65	14
70	71	14
9	9	16
33	49	2
32	34	1
2	2	10
57	78	1
37	41	3
28	28	13
5	31	9
27	36	8
56	56	14
17	19	7
13	16	7
61	61	9
66	68	6
60	60	11
38	38	20
66	69	2
62	62	4
4	57	3
63	64	6
49	49	15
26	31	5
15	20	1
45	59	5
3	30	3
66	66	11
8	8	7
2	7	1
21	21	2
68	69	3
70	70	18
75	76	4
0	0	3
73	76	1
38	41	2
64	68	1
29	61	1
79	80	3
7	8	6
54	65	1
46	59	5
45	69	2
7	17	1
71	72	5
50	50	16
33	54	8
46	46	3
20	20	4
38	80	3
0	9	2
41	59	3
49	51	8
6	63	6
12	35	4
39	79	2
68	71	1
29	29	9
25	25	5
1	79	3
7	56	2
64	64	16
58	59	3
12	32	1
19	20	2
73	78	2
55	56	3
48	57	3
8	9	1
27	37	3
51	52	6
15	15	5
61	62	1
34	35	3
19	46	2
77	77	4
53	72	4
6	7	8
17	18	5
28	35	1
12	15	1
35	36	2
31	51	1
30	61	2
68	72	3
49	54	1
32	33	7
6	12	1
54	66	2
55	63	2
25	31	3
6	67	4
17	52	2
1	4	2
33	34	2
33	55	1
56	65	2
16	40	1
25	32	4
34	67	2
5	12	7
27	46	1
11	32	3
3	5	2
37	38	1
65	66	1
43	48	3
42	59	3
66	67	2
34	34	3
65	68	4
11	52	1
30	30	3
15	19	1
54	55	2
48	55	2
45	47	1
2	35	2
73	74	1
32	54	1
32	51	1
12	31	2
17	77	1
48	49	1
48	65	4
9	75	1
0	76	1
14	20	1
32	53	1
1	7	2
32	70	2
74	76	1
27	38	1
48	48	3
2	34	1
27	60	3
50	64	1
64	71	1
8	26	2
42	45	2
38	39	2
2	26	4
3	10	1
62	66	1
78	79	2
33	72	2
35	65	2
51	53	2
3	20	2
35	56	2
43	73	1
55	66	1
4	45	2
5	13	1
32	50	1
55	64	2
60	61	1
43	43	2
20	47	1
30	31	1
55	77	1
42	74	1
27	41	1
49	50	1
4	17	1
29	34	1
