138	138	10
106	106	9
100	101	6
123	124	7
36	37	6
14	14	4
17	17	11
51	54	1
7	8	8
79	80	3
0	6	2
19	20	3
87	87	7
12	12	4
105	105	12
22	22	10
134	136	3
5	5	15
45	45	10
20	20	8
122	141	5
43	43	10
116	116	6
109	109	4
151	151	13
65	65	3
97	101	2
81	86	7
67	67	8
98	101	6
131	131	2
70	71	4
115	115	21
99	100	8
17	18	2
5	6	3
139	140	3
47	47	10
141	141	7
94	94	14
100	100	13
34	56	1
39	39	8
117	117	8
105	120	1
41	45	4
36	36	18
2	2	4
130	130	13
104	120	4
137	141	3
89	94	2
49	49	3
142	142	9
56	69	9
42	45	7
129	129	13
81	82	3
104	104	15
23	23	13
77	77	7
101	101	4
131	132	5
41	43	3
155	156	4
123	125	3
19	21	1
8	65	1
31	49	6
79	79	7
80	97	3
17	155	4
26	50	2
80	87	1
34	35	4
143	153	1
121	121	5
156	156	5
124	124	13
31	31	6
106	108	4
53	67	2
14	19	4
40	40	9
75	75	12
31	32	4
24	24	6
93	93	17
90	90	8
25	25	12
16	16	6
100	129	1
115	128	3
8	8	7
145	145	9
132	132	8
104	105	6
79	97	1
97	105	1
42	42	5
26	51	9
7	7	8
20	33	2
153	153	6
92	92	10
108	109	5
135	136	3
144	146	3
135	137	3
96	97	9
81	81	9
139	139	9
35	35	7
134	140	2
98	98	5
136	136	2
137	137	11
155	155	6
95	95	6
134	134	7
75	123	1
120	121	3
138	140	2
129	139	2
27	27	8
83	86	8
30	30	5
32	32	10
33	33	5
18	18	2
128	128	8
29	29	8
26	27	3
96	96	11
119	122	3
18	19	4
140	140	5
9	10	2
90	94	2
24	39	3
34	38	1
152	152	4
41	42	6
110	111	4
76	76	10
156	158	1
46	47	7
15	15	2
19	19	4
124	142	3
20	21	1
120	120	2
0	5	4
23	24	2
21	61	3
118	118	2
53	54	6
154	154	5
108	111	3
37	37	9
82	82	6
98	105	2
133	133	9
138	147	3
148	148	5
132	133	6
48	48	4
76	156	4
81	87	3
137	142	4
69	70	4
88	89	1
89	89	3
114	115	1
73	155	3
157	158	2
113	113	5
141	142	5
130	134	2
30	32	6
91	91	8
67	69	3
66	66	6
125	125	5
17	67	2
107	109	1
54	70	2
113	122	1
53	68	3
13	15	1
80	81	2
7	13	4
127	127	6
103	107	1
3	3	5
99	99	3
103	117	2
17	21	2
114	117	2
25	50	1
157	157	10
2	3	1
112	112	2
27	28	2
23	55	7
63	63	4
21	21	5
123	123	5
97	102	2
146	146	1
31	50	1
150	157	2
51	51	8
56	56	3
110	110	6
55	55	7
127	132	1
103	104	1
41	41	4
32	33	2
126	126	4
119	119	4
1	1	5
86	86	6
40	41	6
25	54	2
103	103	7
147	147	1
130	139	4
94	95	3
102	108	2
24	43	2
14	15	1
135	135	5
127	140	1
14	18	3
54	67	4
23	40	2
2	4	2
77	117	5
52	52	9
81	97	1
126	132	1
50	50	9
92	93	2
78	79	2
83	83	10
26	66	1
6	6	5
122	122	2
90	92	3
28	28	9
22	71	2
158	158	3
29	30	1
117	120	2
46	46	6
106	107	2
125	126	1
130	131	3
56	57	2
131	139	4
108	108	3
126	141	2
26	26	6
6	66	1
44	44	8
75	76	3
105	112	3
77	107	4
92	102	4
4	4	6
130	135	1
50	51	3
87	96	2
70	70	4
3	4	9
133	136	1
24	55	1
39	40	2
101	104	2
102	102	1
143	154	3
91	93	4
73	73	4
68	68	5
10	15	3
35	37	3
48	49	2
137	138	2
65	66	2
25	26	1
13	13	3
98	100	1
63	69	1
48	54	1
78	80	1
0	0	1
80	96	1
78	92	3
105	127	1
25	51	1
104	106	4
28	52	2
20	55	2
69	71	2
103	105	1
124	125	1
12	63	2
142	148	2
9	15	1
34	34	6
25	65	1
107	107	1
104	121	1
120	122	1
144	153	1
71	72	1
54	55	3
122	128	1
67	68	4
20	56	1
104	127	2
54	54	2
90	91	4
22	33	1
105	126	1
150	150	4
144	148	1
111	111	1
111	112	3
43	45	1
30	31	2
30	48	1
48	56	3
51	52	1
78	102	2
114	122	2
17	35	1
9	9	2
148	154	1
36	151	2
105	130	1
112	127	1
102	103	2
135	149	1
12	13	1
4	157	2
17	36	1
22	55	1
114	114	1
33	34	1
115	116	2
146	148	1
8	11	1
82	86	1
0	1	1
125	142	1
156	157	2
95	96	1
107	108	1
97	98	1
73	74	1
143	143	2
104	112	2
94	106	1
93	94	1
148	149	1
22	67	1
33	56	1
78	103	1
62	62	1
9	13	1
117	119	2
11	11	1
144	145	1
