7	7	19
16	16	14
47	57	1
3	3	5
59	59	7
37	38	6
77	78	2
82	82	17
16	17	5
58	59	5
31	31	15
60	60	11
2	2	12
78	78	14
129	129	6
28	48	2
58	58	3
114	114	9
77	85	3
63	63	23
118	118	5
57	57	13
128	128	2
35	59	1
45	45	17
19	19	4
33	77	1
91	92	7
79	80	6
77	77	10
123	123	16
9	9	12
49	49	1
64	64	13
74	74	21
68	68	15
29	30	7
132	132	8
1	2	3
27	27	17
66	66	4
126	128	5
94	117	1
102	102	12
55	56	7
12	46	1
32	32	17
42	86	2
96	97	7
90	90	11
6	6	14
5	12	5
12	12	11
21	21	10
72	72	20
25	25	8
70	70	8
58	80	4
44	45	3
69	69	5
8	122	3
129	130	1
4	5	5
107	107	11
37	37	13
92	116	3
126	126	10
73	76	6
13	14	4
33	33	17
47	47	19
83	134	3
111	112	1
8	8	13
22	22	11
26	26	18
75	75	17
49	82	2
34	34	11
107	114	3
48	96	3
82	84	4
47	56	1
84	109	4
39	40	4
94	94	10
17	18	3
28	28	4
41	42	2
42	42	5
84	94	5
113	113	20
80	80	18
7	99	2
0	0	6
32	33	3
96	96	6
79	79	14
23	23	6
79	108	2
44	44	5
40	40	6
5	5	13
43	74	3
123	124	4
6	7	2
134	134	17
113	114	8
82	83	3
54	54	3
4	4	5
10	10	7
131	132	8
23	74	1
35	36	14
85	85	19
121	121	6
48	48	13
84	84	12
118	122	1
27	30	1
63	72	2
91	108	4
125	125	7
20	20	17
15	63	2
41	41	11
32	48	3
17	33	2
111	113	3
18	18	12
10	85	3
76	76	12
90	98	1
23	24	2
86	88	5
90	92	9
44	82	5
4	48	3
18	19	3
27	97	1
15	119	1
33	46	2
47	86	2
104	104	5
81	81	9
39	43	4
14	14	5
15	62	3
120	120	3
109	132	1
133	133	4
5	6	2
29	29	15
81	84	3
61	61	7
40	41	4
105	106	1
93	93	5
100	100	12
36	36	3
95	95	5
115	116	2
98	98	10
39	82	3
15	16	1
112	112	6
91	91	7
101	101	6
56	60	3
73	73	21
127	127	8
1	1	4
116	116	6
65	68	2
65	65	14
86	86	14
6	9	1
11	13	4
17	32	1
119	119	2
28	37	2
93	94	2
68	85	3
97	99	5
20	36	2
11	11	33
60	106	2
62	62	10
70	71	4
60	80	2
30	30	8
11	12	2
27	99	4
49	55	2
131	131	6
46	46	9
125	126	3
108	108	13
38	40	2
14	15	2
62	83	3
11	77	3
92	108	2
71	71	10
79	84	2
85	86	2
81	82	3
83	83	22
130	130	8
87	87	3
20	61	2
5	62	1
99	133	4
78	79	3
38	81	1
19	21	3
20	30	1
24	24	6
85	134	1
24	25	6
46	96	5
69	70	2
130	132	2
78	83	3
48	49	2
110	110	7
103	105	1
122	123	5
13	92	1
34	83	3
75	76	1
17	17	8
29	82	1
40	42	2
27	28	2
4	87	1
42	83	2
43	43	3
19	33	3
108	109	4
109	109	1
12	76	1
76	77	3
32	83	1
65	66	2
98	99	5
92	93	3
10	12	3
99	100	5
71	72	2
106	107	1
41	86	2
103	103	4
12	77	2
9	10	3
98	101	1
46	47	2
42	81	1
122	122	4
6	86	4
78	85	3
61	82	2
16	46	3
38	41	3
16	19	2
94	97	2
4	21	2
4	12	4
13	13	4
106	106	2
92	92	3
35	35	8
86	87	1
126	127	3
43	80	1
114	115	6
90	91	3
60	116	1
128	129	3
28	29	1
29	48	4
48	91	4
34	35	2
20	81	1
36	37	3
97	97	3
43	44	2
20	21	3
82	114	4
11	35	3
83	94	3
112	116	2
124	124	7
130	131	4
94	99	1
30	31	2
20	25	2
25	26	3
16	40	2
84	95	4
19	20	2
125	128	1
31	32	1
26	27	4
112	113	3
30	34	1
67	67	3
20	22	2
86	116	2
28	90	3
6	45	1
88	99	2
19	29	2
15	15	9
32	34	1
57	77	1
115	115	5
20	24	3
111	129	2
84	91	1
119	120	2
106	133	3
66	67	2
33	34	1
93	98	3
11	87	1
105	105	3
117	117	1
47	48	3
45	46	1
26	47	4
5	7	1
84	85	1
100	102	1
34	43	3
0	65	2
78	80	1
38	38	5
6	40	1
10	84	2
46	94	1
19	41	4
35	75	3
104	106	2
77	81	1
40	43	1
61	71	2
104	105	1
27	98	1
121	122	1
91	132	2
87	88	6
59	82	1
125	129	1
0	3	1
7	42	1
50	50	1
23	49	2
68	69	2
99	99	4
12	29	5
72	73	1
120	122	3
62	64	3
90	101	1
95	97	1
117	125	1
14	39	3
74	98	1
9	26	1
81	83	1
64	67	1
99	101	1
56	81	2
3	10	1
19	73	1
94	100	1
15	37	1
119	122	1
13	37	1
2	96	2
113	115	2
84	111	2
39	39	2
42	43	2
61	62	2
89	99	1
111	111	1
56	59	1
11	93	1
72	74	1
16	70	1
33	49	1
93	101	2
11	21	2
55	55	3
88	88	4
89	106	1
123	125	1
12	35	1
48	55	1
87	91	2
69	99	1
115	130	2
19	47	3
110	111	1
98	100	2
72	75	1
12	47	1
60	61	1
27	46	1
73	74	2
76	82	1
2	20	1
22	30	2
88	129	1
117	118	2
10	26	1
30	36	2
95	96	1
27	48	1
47	58	1
47	61	1
28	80	1
81	86	1
47	69	1
100	101	2
58	94	1
10	36	1
107	108	1
27	96	1
