170	170	14
9	9	17
32	32	20
133	133	6
213	234	3
109	109	18
151	151	7
70	70	20
16	18	4
81	81	5
239	239	14
2	2	6
210	211	7
52	52	14
232	232	10
222	229	2
9	28	2
36	36	14
46	47	2
142	142	2
200	201	7
152	152	7
43	44	7
25	25	13
213	213	6
155	155	6
137	138	7
121	121	11
96	96	14
165	166	12
59	76	2
212	212	5
151	152	7
55	56	6
171	171	4
101	102	5
189	189	11
193	196	3
211	212	6
177	177	20
202	202	12
128	152	2
120	120	11
29	29	10
5	6	1
19	21	2
46	71	5
183	188	4
59	60	5
56	57	9
107	107	6
101	101	19
13	14	8
182	182	6
7	9	7
88	88	4
198	198	8
10	10	11
223	225	5
18	18	7
242	242	10
62	62	19
241	242	4
229	229	10
59	59	7
182	219	3
162	166	7
49	49	10
35	36	13
55	61	11
222	222	6
12	12	10
74	74	17
122	128	2
172	172	8
156	156	12
200	200	6
208	209	2
75	75	8
119	119	11
68	68	8
60	60	27
201	201	16
4	21	2
10	23	2
160	160	8
49	50	10
43	43	23
97	128	2
85	85	11
139	139	16
79	116	2
84	84	10
11	11	19
125	127	4
17	18	3
13	13	7
77	78	5
64	64	15
55	55	23
170	171	3
119	120	5
153	160	2
187	187	4
21	22	4
76	76	5
237	238	5
37	37	16
218	231	2
19	19	25
197	199	3
115	119	1
172	204	3
130	130	13
159	159	6
38	38	13
64	65	4
229	230	6
179	179	11
171	175	1
15	16	2
95	95	8
129	129	5
106	106	8
26	26	17
203	203	12
21	21	22
137	242	3
174	185	2
195	195	4
6	31	4
103	104	4
65	219	1
241	241	10
238	238	19
7	7	9
137	137	18
112	113	3
189	190	9
136	136	5
72	72	8
61	62	4
0	19	3
201	202	10
24	24	27
174	175	3
64	218	3
193	194	6
204	230	1
149	149	9
180	183	5
86	86	14
217	217	3
164	169	2
0	20	1
30	31	3
179	183	2
145	233	3
34	34	9
47	47	14
19	37	4
196	197	1
88	97	1
56	56	5
180	180	13
221	221	8
27	28	12
31	32	4
1	1	10
10	11	2
63	65	3
206	206	10
136	137	6
39	54	3
83	83	6
220	220	6
225	225	11
215	234	2
67	67	9
218	218	12
127	183	4
0	1	5
174	202	4
9	12	3
39	41	3
146	146	8
76	118	3
54	54	8
7	48	2
17	17	2
41	42	5
11	12	4
141	141	11
175	175	8
144	144	14
215	215	1
0	2	3
83	84	2
71	72	5
40	40	14
142	143	5
71	71	14
44	44	13
29	56	1
29	171	3
37	38	11
60	228	2
32	61	1
178	178	2
114	115	3
73	73	6
3	4	6
154	154	4
196	196	8
40	70	3
197	223	3
10	55	2
39	39	5
205	206	8
178	179	4
230	230	10
135	135	11
177	178	3
123	124	5
224	224	15
104	104	11
157	157	12
237	237	9
188	188	3
51	51	6
13	17	1
185	186	6
11	61	2
191	208	8
192	192	10
63	66	2
210	210	6
73	74	8
188	189	1
227	227	5
20	20	14
190	190	3
118	118	3
193	195	3
208	208	8
108	108	5
116	123	1
213	235	2
196	221	3
34	36	1
165	165	8
182	187	1
85	120	3
23	23	4
148	148	2
46	46	11
233	233	15
134	134	12
153	191	3
79	79	5
13	15	4
211	211	14
42	42	6
8	8	4
208	211	5
44	57	5
2	21	2
221	222	7
63	63	11
240	241	2
223	223	15
183	183	10
9	10	1
219	220	7
58	58	3
173	173	5
45	45	16
66	66	7
231	231	5
203	230	5
137	139	3
199	199	4
47	58	3
215	217	3
228	228	6
16	17	5
132	136	2
113	120	5
86	103	1
4	4	5
116	118	5
135	136	5
217	218	3
234	234	7
5	16	1
113	113	11
52	53	5
54	55	2
119	127	1
80	81	1
4	9	2
37	184	3
214	215	1
197	211	2
57	57	5
227	228	6
157	158	2
70	71	7
65	152	1
6	36	5
74	75	5
68	69	1
7	8	4
122	122	4
98	98	4
69	73	3
38	67	1
24	25	5
208	210	1
0	3	1
50	50	3
99	100	4
162	162	6
103	103	4
197	225	2
100	100	4
167	167	8
31	31	6
41	65	3
99	99	8
134	135	2
191	192	4
204	213	2
61	61	10
168	168	3
16	16	6
133	136	2
31	33	4
91	91	3
188	191	3
231	232	6
3	15	3
18	19	2
128	128	5
35	35	5
220	221	6
215	216	3
3	18	3
52	67	2
33	35	4
33	33	2
97	97	6
212	224	1
236	237	1
41	41	14
24	227	2
6	6	6
131	132	1
223	224	3
36	53	3
240	240	3
185	185	1
174	174	5
225	227	5
165	167	3
202	211	4
84	85	3
3	28	2
161	161	5
179	180	5
199	200	1
25	26	5
164	164	7
130	157	2
185	196	2
203	231	3
194	196	1
174	233	2
145	147	2
102	102	2
63	67	1
23	227	1
15	15	6
101	120	3
27	27	18
80	82	1
40	46	4
27	29	3
195	196	3
120	127	1
80	80	6
158	158	2
125	125	2
207	209	1
28	28	5
118	119	1
56	61	2
218	219	2
44	45	8
86	101	4
101	112	1
202	204	3
76	77	3
40	41	3
203	204	3
173	174	6
235	235	4
176	176	5
11	15	2
166	170	4
42	58	2
57	58	1
39	42	1
224	225	1
69	69	3
79	80	3
40	54	2
194	195	1
128	129	5
197	197	5
126	126	3
198	199	1
225	230	1
53	53	9
75	76	1
204	204	5
1	33	1
143	236	1
205	210	1
63	64	1
209	209	2
181	181	3
1	2	1
0	0	8
29	32	2
212	213	5
62	63	3
20	21	4
211	231	3
78	79	7
206	207	1
86	174	5
131	131	2
5	5	3
1	4	2
153	156	1
166	167	1
49	57	4
168	169	3
77	77	6
34	35	3
88	99	2
238	239	2
194	194	4
122	125	1
233	236	4
66	67	5
190	191	4
150	151	2
139	140	2
52	54	3
142	161	1
117	117	3
105	121	2
19	20	2
7	16	1
42	43	6
236	236	5
82	83	1
115	115	1
82	85	6
133	134	4
69	70	3
186	186	4
26	39	1
160	166	2
159	160	2
151	164	1
153	153	2
174	203	1
191	191	7
207	207	6
226	226	2
184	185	1
36	37	6
197	200	4
59	224	2
98	100	2
11	103	2
2	7	1
38	70	1
65	65	8
143	238	1
65	66	5
192	207	2
32	220	2
3	7	1
193	206	2
228	229	2
147	148	2
46	55	2
148	201	2
206	229	1
64	67	2
234	235	2
32	35	2
150	150	4
3	9	1
145	145	2
218	235	1
49	51	1
197	213	4
55	74	1
162	165	2
160	200	2
147	152	1
209	227	1
22	22	1
156	157	2
120	121	2
39	55	2
78	80	2
70	84	1
193	193	1
214	214	2
114	114	2
124	124	2
144	148	1
110	110	1
63	149	1
182	183	6
144	145	2
6	30	1
32	33	3
198	204	4
58	66	1
171	172	1
151	161	2
100	101	2
45	73	3
148	161	1
111	111	1
103	105	1
43	45	3
39	70	1
184	186	1
81	82	1
181	191	1
98	99	4
64	149	1
143	143	6
169	169	6
148	149	1
221	229	1
143	144	1
140	142	2
25	41	1
121	122	1
225	226	2
5	21	2
88	89	2
50	56	2
21	37	1
164	165	4
239	242	1
138	139	1
144	235	1
79	85	1
166	166	1
83	218	2
30	32	1
118	123	2
112	112	4
219	231	1
104	125	2
121	128	2
124	125	1
23	24	1
105	105	3
176	186	1
122	127	1
8	11	1
197	198	3
4	15	1
227	229	1
115	117	1
210	225	2
180	182	2
24	46	1
48	48	1
6	7	1
127	127	3
144	202	1
119	121	1
219	219	3
160	190	1
39	40	1
67	69	1
6	8	1
205	205	1
67	68	1
128	157	1
235	236	1
73	79	1
12	15	2
14	14	1
8	9	1
171	177	1
151	159	2
132	132	1
163	163	4
222	223	1
174	232	1
30	56	1
148	151	1
156	161	1
172	178	1
89	89	1
21	23	1
34	50	1
29	57	1
29	31	1
123	123	1
43	46	2
81	88	1
171	178	1
80	83	1
230	231	1
26	28	2
