190	191	3
29	30	2
240	241	10
117	118	5
189	190	6
26	51	3
114	114	22
71	73	2
116	118	6
173	174	7
17	17	18
94	94	21
199	200	5
242	242	13
92	92	11
111	112	7
229	229	20
92	98	1
165	165	9
210	211	13
29	29	12
32	33	2
199	199	29
4	4	20
196	196	10
204	204	22
46	46	17
37	37	10
197	197	14
116	116	22
68	212	7
67	67	19
160	160	8
118	119	5
65	66	4
198	199	10
223	233	2
165	186	5
162	163	4
188	191	3
230	230	5
85	85	21
115	115	16
200	200	15
92	93	3
223	224	12
48	48	14
101	103	9
23	24	7
49	49	15
188	188	12
91	91	17
238	239	16
74	75	8
181	181	22
236	237	6
36	161	2
184	193	2
23	23	15
61	61	18
36	36	17
113	114	8
241	241	20
184	184	14
246	246	16
19	20	8
216	216	13
58	58	15
146	153	2
156	156	9
202	202	14
65	108	2
64	64	16
192	223	2
163	177	1
155	156	2
69	70	3
40	40	7
182	182	23
191	194	4
213	247	7
72	72	15
38	38	7
84	84	18
196	197	7
18	18	15
224	224	6
72	73	13
14	14	14
153	153	12
102	104	4
47	47	13
220	220	16
108	108	5
162	162	15
110	110	27
41	41	13
75	76	18
212	220	4
230	231	4
219	219	33
164	178	2
83	83	12
28	28	13
15	18	2
35	35	11
26	26	14
171	171	15
77	82	5
56	70	2
4	14	2
181	208	4
96	97	3
234	235	1
147	164	1
241	242	13
14	30	6
8	8	18
59	59	11
222	222	9
244	245	3
218	219	4
173	173	15
97	97	15
97	98	11
203	203	18
180	193	3
244	244	10
246	247	5
107	107	7
11	11	9
168	169	13
198	200	3
165	185	1
179	179	13
99	99	9
30	30	12
103	119	1
212	213	4
234	234	14
186	186	15
2	2	9
209	209	15
112	112	7
95	95	13
43	43	17
237	237	13
185	186	12
25	25	12
48	49	11
106	117	1
240	240	9
189	189	11
100	100	11
221	230	2
242	243	9
113	116	3
161	162	3
54	54	20
104	104	12
117	117	17
221	222	16
218	218	7
70	71	5
172	172	11
158	159	7
231	231	9
96	96	8
3	5	7
228	230	3
90	91	6
50	62	2
193	193	17
152	152	18
182	183	12
161	166	2
71	71	13
210	210	15
57	57	15
51	51	19
69	69	13
52	100	8
216	217	15
213	213	12
211	212	5
237	240	3
183	183	21
53	53	7
192	192	14
235	235	13
163	163	15
72	74	7
207	207	17
114	115	15
66	66	24
215	217	4
90	90	18
177	177	8
210	213	3
119	119	7
159	160	6
195	195	13
237	238	1
190	190	7
215	215	17
56	61	3
203	204	5
86	91	3
215	218	2
185	192	1
102	102	9
3	4	6
160	161	4
206	222	2
13	18	2
159	159	11
14	18	2
170	171	4
155	155	15
166	166	17
145	145	5
24	24	19
98	98	11
41	42	8
185	185	13
44	45	1
194	194	7
191	191	22
152	167	2
180	183	1
163	179	3
216	218	3
105	105	15
180	181	6
239	239	13
10	11	5
157	157	14
118	118	18
161	164	2
102	103	9
50	51	4
88	97	1
160	177	1
68	207	6
149	150	2
151	151	24
96	98	3
44	46	2
16	17	1
202	203	6
3	3	8
34	35	4
153	160	3
30	37	1
5	5	4
111	248	4
215	216	2
109	109	21
167	168	7
223	223	20
245	247	2
233	237	1
214	214	25
3	38	6
237	247	5
180	180	11
9	9	8
205	226	2
104	237	1
232	239	3
31	32	3
187	190	5
161	200	1
166	167	4
187	188	5
42	43	9
205	205	11
243	243	13
247	247	17
20	21	4
33	41	2
168	174	2
178	178	10
42	44	2
62	62	7
65	70	1
50	63	8
218	247	1
101	101	9
226	226	8
236	236	10
112	115	2
105	107	2
27	27	12
159	169	1
225	226	6
220	221	7
108	248	1
167	167	30
42	42	8
192	200	4
212	212	23
32	32	10
193	207	2
236	245	2
60	60	13
180	192	4
206	206	7
20	20	13
235	236	7
79	86	2
116	146	3
47	48	6
208	219	7
177	181	1
88	88	13
81	81	10
239	242	3
227	227	9
166	168	3
67	68	3
208	245	1
48	50	7
211	211	14
176	179	2
174	174	10
191	192	3
163	166	4
33	33	7
175	175	16
61	62	21
37	41	2
214	216	2
79	80	9
192	195	3
120	120	13
221	221	9
36	37	7
233	233	9
241	245	2
55	55	8
111	111	14
217	217	17
233	234	12
63	65	5
65	65	13
248	248	15
54	56	3
97	178	3
168	168	20
84	85	4
19	19	19
219	220	4
71	210	1
25	26	5
176	231	1
160	170	3
160	169	2
171	172	7
106	107	5
44	44	8
174	178	1
175	176	6
13	14	1
210	216	2
197	199	5
18	24	1
73	75	3
46	51	1
45	45	14
176	176	14
57	58	8
18	20	2
119	149	4
14	34	1
178	179	11
146	146	2
209	210	5
74	76	3
112	118	1
68	93	3
230	233	4
73	73	10
229	230	8
154	154	9
87	88	7
68	68	13
201	201	3
206	207	2
14	15	1
80	84	2
94	98	5
18	34	2
172	174	3
49	64	2
164	177	2
152	166	3
232	233	5
74	77	1
216	219	3
16	16	6
10	10	13
220	222	5
31	31	9
161	161	11
106	106	5
76	77	6
193	194	6
36	152	1
207	208	3
190	192	9
95	178	2
17	77	2
204	224	2
190	199	1
187	187	16
170	170	9
80	80	20
237	245	3
120	175	1
79	79	4
63	91	3
34	34	11
12	12	13
63	64	9
175	182	1
21	21	8
25	54	5
59	78	2
169	170	8
49	50	11
86	86	10
86	90	3
35	244	2
59	60	4
52	52	4
114	158	1
194	195	6
71	75	5
52	55	2
208	208	13
210	212	4
222	223	4
211	218	1
97	100	1
29	31	1
87	89	6
228	228	11
192	193	4
23	93	1
162	202	2
38	39	2
73	74	4
162	165	1
50	50	5
146	147	3
174	175	3
185	220	1
217	219	1
106	108	4
220	245	2
77	77	8
73	78	4
207	221	1
98	99	2
13	13	4
245	245	17
160	163	2
194	198	2
157	158	6
15	15	11
213	214	7
60	61	5
60	77	2
40	41	4
211	213	2
1	1	3
82	90	2
209	211	2
75	75	3
87	87	11
237	239	6
165	177	2
146	152	4
49	59	4
89	89	11
112	113	6
172	173	2
113	113	12
39	39	8
109	245	1
6	7	5
217	247	2
30	31	2
228	229	5
197	198	9
69	210	2
150	150	4
74	74	10
188	189	4
152	159	6
7	7	8
116	117	4
176	181	6
30	39	2
227	230	2
198	198	13
166	177	2
19	21	3
107	118	5
36	41	4
99	103	4
232	232	7
200	201	6
160	171	1
117	120	4
184	185	10
101	246	3
33	34	2
180	188	2
237	241	1
189	194	7
28	30	2
176	177	3
58	60	1
101	102	3
66	67	1
208	209	9
48	51	5
153	154	2
191	193	3
63	63	4
44	204	1
4	5	6
8	9	1
77	78	2
239	240	4
76	76	9
115	116	4
153	158	2
95	198	1
201	202	2
230	232	3
186	187	2
80	95	1
175	187	1
158	166	2
81	82	10
70	70	4
161	176	1
225	225	10
5	6	5
169	172	2
60	62	3
119	145	2
72	75	2
226	228	1
159	176	1
24	25	3
221	227	2
179	186	1
64	68	2
190	195	1
149	149	2
5	15	1
108	110	2
85	86	4
160	167	4
108	109	4
81	94	5
43	44	2
215	248	1
93	94	1
23	59	1
159	190	1
54	55	3
221	225	2
103	103	2
82	82	7
100	103	1
32	43	3
78	80	3
95	199	1
100	101	3
64	69	1
5	30	1
182	189	1
28	29	6
158	158	7
196	248	2
61	66	1
93	93	6
80	81	5
82	83	2
110	237	4
6	6	5
59	61	1
183	184	3
43	184	2
164	164	8
30	38	3
216	246	1
180	201	1
244	246	1
3	30	2
183	185	1
78	79	1
56	56	15
224	226	3
185	193	2
37	39	2
35	36	1
213	215	3
168	170	3
184	189	2
102	105	1
217	218	3
208	220	4
55	57	4
78	92	3
52	101	1
180	202	1
236	239	1
197	200	2
68	69	1
20	24	1
238	238	7
4	7	2
192	194	3
59	118	2
218	221	2
93	212	1
170	175	1
81	83	1
99	101	3
146	167	2
26	93	2
58	62	1
113	117	2
159	170	2
88	89	3
106	118	4
166	180	1
191	198	2
54	73	1
163	164	4
32	37	1
3	11	2
247	248	1
33	243	1
22	22	2
245	246	3
25	222	2
18	30	1
78	78	5
57	77	2
232	234	1
1	2	3
23	94	1
223	225	1
83	84	1
4	37	3
196	198	2
37	38	7
120	144	2
180	219	1
78	93	1
64	65	2
0	1	1
23	227	2
167	169	2
169	169	5
241	243	1
104	177	2
236	240	1
117	119	1
64	67	2
224	235	1
6	9	1
176	178	1
177	192	3
154	155	4
193	195	1
53	207	1
172	240	2
226	227	1
3	31	1
214	215	1
205	207	2
170	177	1
192	202	1
82	84	2
183	188	1
75	88	1
79	83	2
187	193	1
47	49	4
237	248	1
152	153	1
169	171	1
18	25	1
12	14	2
162	203	2
22	23	4
227	228	1
66	73	2
97	99	1
168	176	4
243	244	3
233	236	1
105	110	1
52	59	2
218	220	1
214	218	1
144	153	2
68	70	1
214	217	2
1	36	1
118	145	1
100	150	1
223	229	1
56	57	3
63	210	1
195	196	1
64	66	2
48	63	1
61	118	1
172	178	2
191	195	1
215	247	2
235	246	1
31	38	1
145	146	2
26	27	2
28	32	1
174	182	1
108	111	3
53	54	3
231	232	3
35	159	1
44	205	1
95	97	1
86	87	3
89	90	2
112	114	1
171	173	1
175	189	1
184	190	1
211	249	1
167	181	1
158	160	2
215	246	1
92	96	1
51	53	1
107	108	1
1	38	2
152	164	1
57	62	1
43	46	1
110	111	2
115	144	1
196	199	1
179	180	1
81	91	1
223	228	1
84	90	1
202	231	1
59	88	1
65	67	1
87	94	1
188	197	2
35	243	1
238	240	1
229	245	1
17	18	2
211	214	1
57	59	1
196	200	2
212	219	2
119	236	1
77	80	1
90	95	1
159	165	1
59	84	1
181	182	1
159	164	2
15	16	1
62	63	1
197	232	1
21	22	1
204	205	4
103	104	1
72	86	1
147	147	1
185	196	1
208	210	1
197	209	1
165	166	1
160	166	1
235	244	1
62	211	1
70	211	1
196	208	1
154	163	1
177	178	1
60	88	1
186	225	1
45	205	1
210	215	1
153	168	1
94	95	1
5	37	1
