159	159	7
109	148	4
35	35	10
68	68	6
86	86	3
114	114	7
172	172	6
113	156	1
151	151	8
3	4	8
65	141	4
145	146	5
116	116	5
27	27	12
167	167	13
78	79	2
30	31	4
60	96	2
143	144	1
147	147	4
5	6	7
72	97	2
26	26	5
94	94	5
150	150	16
88	88	6
123	123	4
72	72	10
126	127	1
135	135	1
110	111	3
4	4	5
97	98	8
128	170	4
108	108	7
78	78	6
95	95	11
0	14	2
49	82	3
169	169	6
17	17	11
20	20	5
117	131	2
159	160	3
32	32	7
25	26	7
7	30	2
124	124	4
140	140	12
105	105	1
83	83	7
26	41	1
165	165	3
22	23	4
67	67	3
15	16	5
64	64	6
163	164	5
126	126	6
15	15	5
74	97	1
171	172	3
96	101	5
27	39	1
42	42	7
9	9	10
18	18	6
4	91	2
158	159	5
152	169	2
83	84	5
101	113	1
113	114	4
63	63	7
5	30	2
26	33	3
57	57	7
23	129	8
144	144	2
152	152	5
13	14	1
174	174	5
143	143	5
15	38	4
89	89	8
153	154	3
81	81	6
109	112	2
129	130	2
157	157	7
1	3	4
28	28	6
14	92	4
115	116	10
10	10	11
6	6	5
79	79	5
168	174	4
45	45	9
22	22	11
40	40	3
115	115	6
30	32	5
74	75	2
129	150	3
137	139	2
73	134	2
131	170	4
12	12	9
163	172	5
33	33	8
67	68	5
21	21	2
17	45	2
39	43	4
16	16	6
130	171	3
96	96	5
128	145	1
91	91	6
106	106	6
139	141	2
19	23	2
14	16	4
137	137	7
7	23	2
176	177	2
138	138	14
24	24	6
156	156	4
36	38	1
112	112	6
105	106	1
71	123	1
39	40	2
95	96	1
96	99	3
137	149	2
70	72	2
14	14	5
3	15	3
13	15	1
29	29	5
122	134	4
178	178	8
99	99	1
175	175	4
120	121	3
17	18	4
150	151	2
12	13	4
132	145	1
179	180	1
11	11	4
155	155	4
74	134	2
61	125	4
102	111	1
54	54	1
158	158	4
19	22	4
129	129	4
7	7	8
5	5	8
16	17	3
49	50	2
98	99	2
74	74	1
4	13	3
31	31	7
109	109	2
134	134	3
162	163	1
163	171	1
177	177	1
132	146	10
149	162	2
105	135	2
122	122	2
97	97	2
62	62	1
154	154	1
173	173	13
7	16	1
127	127	3
2	5	2
152	153	2
39	39	7
131	131	10
30	30	9
75	75	3
23	24	1
8	8	3
168	168	5
170	170	1
58	58	7
31	42	2
11	12	1
53	54	1
24	25	7
71	71	2
2	2	5
91	118	2
21	35	2
133	146	1
80	80	2
166	166	6
132	141	1
156	157	1
165	166	5
38	38	13
164	178	1
132	142	2
7	15	2
79	80	2
132	132	3
102	108	2
135	136	2
163	165	2
61	61	4
133	148	1
82	82	3
27	28	1
116	117	5
23	23	6
105	136	2
0	19	2
163	163	3
63	65	1
37	39	2
105	107	6
70	122	2
107	107	3
76	76	5
103	103	3
56	56	6
1	4	3
13	13	7
91	93	3
164	164	1
130	130	4
162	162	3
153	169	2
128	151	1
66	66	3
41	42	1
77	77	2
26	31	1
21	40	2
10	39	1
0	0	10
65	65	2
62	66	1
24	158	1
144	145	3
1	1	4
107	110	2
170	174	2
170	172	1
18	22	2
147	151	3
109	153	4
3	3	3
128	129	1
34	40	2
136	136	4
8	23	4
93	143	1
0	131	1
89	90	2
53	53	3
14	18	1
84	84	4
133	134	2
164	165	3
107	138	1
155	156	2
0	1	3
146	146	5
119	127	1
145	145	4
11	13	6
4	20	1
4	7	2
85	101	2
74	96	2
19	19	3
110	110	1
96	98	2
8	10	1
133	133	1
108	109	1
101	101	1
62	63	2
125	126	1
132	179	2
67	118	2
19	39	1
166	173	4
107	109	1
125	125	1
49	83	3
11	14	1
61	97	1
168	169	2
1	16	2
16	35	3
25	25	2
150	158	1
25	42	1
91	97	1
153	153	1
50	50	1
51	51	1
41	41	2
172	180	1
173	176	1
24	26	2
111	111	3
121	125	1
20	36	1
93	93	1
36	36	5
104	105	1
109	110	1
129	131	1
11	38	1
87	111	2
43	43	2
95	130	2
132	137	2
32	161	2
23	39	1
8	9	2
16	18	1
91	115	3
65	67	2
52	52	2
12	66	1
161	162	1
147	149	2
43	44	1
94	95	1
37	37	1
168	173	2
86	109	2
31	37	1
92	133	1
149	152	1
115	117	1
92	92	1
39	41	1
44	44	1
149	153	1
102	102	1
85	85	1
96	133	1
72	134	1
33	34	2
19	20	1
73	73	1
139	139	1
2	15	1
52	53	1
60	88	1
