83	85	5
57	58	5
123	126	2
50	51	6
22	25	4
112	112	15
62	100	5
74	74	6
42	49	9
6	9	1
88	89	10
38	39	7
11	25	2
108	108	6
78	78	10
99	103	2
67	67	9
103	145	2
92	92	6
125	125	6
130	130	5
124	124	23
145	146	1
119	119	8
77	100	4
118	120	4
29	30	6
116	132	3
6	21	4
20	20	3
114	121	1
95	96	2
144	144	5
111	111	7
13	24	1
76	79	6
101	101	6
64	64	7
117	117	18
15	16	6
136	139	2
31	35	3
103	116	3
29	29	18
120	120	10
34	34	5
62	63	9
41	42	5
121	121	16
15	15	10
136	138	3
18	57	2
110	112	1
109	110	4
25	25	6
40	142	4
129	129	11
145	145	7
16	16	8
115	115	15
104	105	1
101	102	5
71	71	6
128	128	17
55	56	4
53	54	2
35	53	1
55	67	2
123	124	3
19	19	5
57	57	10
95	95	6
68	83	3
140	142	2
43	64	1
109	109	7
79	80	6
134	135	7
99	109	3
10	10	13
18	18	6
83	84	7
134	136	2
109	133	5
106	114	6
110	110	11
63	63	3
123	140	2
99	100	3
116	118	6
139	140	11
138	139	2
84	85	7
124	125	5
128	129	6
97	98	4
81	81	18
6	11	2
73	73	19
73	74	1
98	113	2
92	93	3
74	75	1
8	10	2
27	29	4
51	51	2
121	122	8
131	133	1
61	61	14
0	9	2
125	136	1
102	102	10
113	113	2
133	139	1
118	119	10
4	34	4
53	61	5
87	87	2
5	5	10
30	30	15
5	6	6
24	24	6
78	79	4
69	87	3
136	136	9
69	88	2
14	16	4
116	133	9
77	78	5
52	62	4
110	111	7
121	123	7
83	83	9
86	86	1
1	1	3
122	123	12
89	114	2
59	59	13
75	82	1
105	105	4
138	138	5
3	3	5
32	34	3
63	64	2
140	141	5
21	140	1
86	87	1
106	113	4
78	100	3
122	128	1
88	88	10
137	138	8
37	38	4
56	56	9
141	142	2
34	35	4
55	55	7
115	130	3
116	117	5
126	126	24
115	118	2
42	42	4
127	127	8
74	77	3
32	33	5
111	114	1
43	47	1
135	136	7
58	63	3
3	6	2
89	89	10
57	63	3
135	138	12
77	87	4
64	65	1
133	135	5
27	27	9
8	9	3
106	132	3
89	126	3
137	137	7
85	85	10
122	131	2
133	133	10
134	134	12
36	36	6
59	61	7
106	107	5
18	19	2
41	41	8
82	82	10
36	53	4
98	98	12
49	57	4
105	118	2
2	33	3
54	54	6
80	80	6
93	94	4
16	19	3
114	114	14
89	90	2
27	36	1
0	0	1
31	34	3
55	96	1
90	113	1
21	21	4
31	31	2
80	81	6
105	106	5
4	47	2
50	50	2
81	82	3
103	103	7
35	36	1
11	20	4
99	106	2
72	81	4
39	40	4
121	124	1
100	101	3
33	33	4
62	62	6
140	140	13
17	36	5
106	129	4
3	26	3
4	5	8
76	76	10
104	104	2
11	11	10
70	71	2
92	94	1
68	68	3
32	36	4
116	116	6
73	88	2
110	118	3
9	30	9
118	118	7
21	24	1
94	94	9
69	70	2
37	37	20
135	135	6
21	30	6
17	18	3
96	128	3
10	11	3
98	99	2
16	23	4
131	131	6
125	138	3
136	137	9
32	32	11
3	4	5
38	38	6
99	99	8
132	132	5
126	131	1
60	60	4
69	72	3
22	22	2
19	20	2
4	26	1
64	72	1
23	23	4
76	77	6
4	6	4
119	134	2
12	42	2
142	142	4
75	84	3
72	72	3
50	57	1
67	68	2
104	118	1
115	117	3
94	134	3
33	48	2
10	20	2
31	32	2
107	107	4
12	13	12
141	141	5
63	65	2
143	143	3
22	23	2
135	140	1
72	87	7
117	120	7
5	31	3
123	123	6
5	12	1
22	146	2
28	32	2
142	143	1
43	51	2
75	104	2
115	116	1
2	2	4
137	139	4
80	134	3
59	60	5
70	70	5
17	19	3
112	113	3
58	60	4
97	131	5
110	114	3
90	140	3
13	13	2
119	120	3
105	135	4
1	2	3
4	32	4
125	131	4
62	66	2
9	9	2
96	131	2
144	145	1
15	18	2
87	141	1
96	112	1
81	98	1
20	67	2
133	134	1
58	97	2
93	93	4
102	114	5
102	121	1
49	51	2
35	99	3
66	66	5
69	69	3
22	29	1
89	112	1
63	97	3
60	61	2
56	97	1
96	96	8
102	108	2
48	65	3
51	65	3
68	73	1
114	127	2
75	78	2
140	143	3
49	49	2
27	35	2
141	143	2
102	104	2
52	53	1
117	118	2
54	55	2
34	56	2
0	26	3
71	99	1
62	67	1
46	66	2
39	39	3
20	21	6
4	25	4
48	48	2
80	111	1
132	133	2
21	25	2
102	103	3
66	73	2
132	134	1
6	6	3
2	57	2
40	40	5
100	100	7
9	25	2
88	134	1
66	67	1
88	95	1
79	109	3
15	37	3
50	91	2
71	74	4
17	17	4
4	36	3
91	135	2
4	4	1
120	140	1
38	84	2
65	66	1
1	32	1
101	110	1
127	132	1
3	47	1
9	10	1
63	69	1
103	104	4
90	90	3
23	26	1
4	13	1
16	32	1
14	14	1
107	108	1
67	94	1
62	76	2
43	58	1
14	31	1
26	26	1
127	131	1
146	146	2
122	122	5
47	65	2
29	36	2
75	75	1
4	21	1
77	79	1
126	127	1
79	79	1
42	142	1
104	133	1
139	139	4
28	28	4
78	106	1
20	30	2
9	140	2
28	30	3
134	137	2
58	58	5
106	106	2
47	47	1
39	42	2
61	67	4
67	69	1
103	117	1
13	15	1
18	97	1
116	129	1
107	114	1
113	117	1
3	34	1
126	133	1
121	140	1
15	30	1
77	77	1
24	96	1
84	84	1
91	139	1
135	139	2
133	140	1
66	69	1
53	53	1
28	100	1
131	132	1
128	130	3
53	89	1
122	138	1
89	98	1
108	109	1
104	135	1
125	126	1
38	142	1
36	54	1
125	128	2
39	142	1
72	74	1
69	71	1
43	43	1
35	35	1
20	24	1
119	121	2
91	91	1
72	84	1
76	78	1
4	33	1
90	92	1
134	140	1
23	30	1
7	11	1
143	144	1
3	41	1
115	133	2
8	8	1
2	5	1
