176	177	7
40	40	5
202	203	5
142	143	4
159	220	7
191	191	13
65	179	5
45	45	16
239	239	3
156	158	2
21	21	1
96	97	9
30	30	10
182	182	11
164	164	13
99	100	10
46	46	8
3	33	3
156	157	2
197	197	5
126	211	2
15	15	4
74	74	6
27	27	13
10	33	1
71	72	1
216	216	1
4	7	1
81	82	6
11	12	1
226	226	6
73	74	1
70	70	9
86	128	2
167	169	2
2	5	7
100	100	8
159	159	1
61	62	8
97	106	1
221	221	9
131	134	2
78	79	2
105	106	4
32	32	5
66	66	3
89	136	2
154	158	4
44	109	1
3	10	3
18	21	1
64	96	1
20	22	1
42	42	9
146	146	6
75	76	6
222	223	8
66	68	7
2	20	3
24	25	1
218	218	16
207	221	3
49	49	3
106	219	1
193	193	7
139	149	2
110	139	2
107	108	2
105	105	7
16	16	8
179	179	1
75	80	3
26	26	16
204	204	3
122	122	5
12	13	2
39	42	3
129	199	2
240	240	5
26	38	3
102	102	9
4	4	5
197	216	6
15	17	1
67	67	8
34	34	13
152	153	3
35	36	2
138	139	2
63	64	4
139	140	4
1	2	2
14	14	4
29	30	5
8	8	4
206	208	4
41	51	2
133	133	4
163	166	3
65	65	6
238	238	4
18	209	2
225	225	5
5	5	6
4	6	2
95	120	4
18	19	5
184	185	5
242	242	5
40	42	1
98	98	7
198	221	1
203	204	2
47	47	7
56	56	3
75	102	3
102	144	2
54	68	1
226	227	4
212	212	3
122	127	2
81	81	6
69	71	1
104	104	3
135	174	1
204	231	1
162	162	9
44	179	3
62	62	4
60	64	5
59	59	11
192	192	6
25	25	3
50	50	7
185	186	1
2	2	7
200	200	4
24	35	1
134	134	3
88	88	4
181	181	4
174	174	7
2	31	2
47	48	2
127	129	3
33	33	3
10	233	1
166	167	2
164	165	1
152	152	5
215	215	2
190	190	3
55	84	1
145	145	2
113	113	4
167	167	2
71	71	5
3	22	2
13	13	5
105	115	2
83	83	12
224	224	4
128	128	9
136	136	8
150	152	6
116	116	4
3	11	2
213	213	4
201	201	2
73	73	2
77	78	9
238	239	5
150	151	4
157	157	5
35	35	5
11	47	1
7	7	8
227	227	4
145	151	1
165	170	2
206	206	4
154	216	4
129	130	2
74	75	4
57	81	2
200	201	2
24	46	1
51	51	8
189	189	6
151	152	2
198	211	3
10	10	12
49	50	4
31	32	2
183	193	1
151	151	2
48	48	8
18	18	8
33	34	5
17	17	2
198	198	4
9	10	4
24	36	4
200	224	1
106	106	3
179	180	1
148	149	1
39	41	2
236	236	2
208	208	1
133	167	8
173	173	5
101	101	4
1	1	4
155	155	3
69	69	3
44	44	5
82	84	3
228	230	1
138	138	7
119	119	5
38	40	1
7	9	3
41	41	6
56	60	1
229	231	3
17	19	3
170	170	4
153	160	1
22	22	5
219	220	7
21	23	4
37	42	3
179	181	2
201	202	1
217	217	3
137	141	1
234	235	2
36	37	2
24	24	4
23	23	5
10	11	6
198	230	1
137	138	2
239	240	4
103	110	3
140	148	2
99	101	2
80	80	4
95	96	3
133	215	1
17	33	6
231	231	14
156	156	1
168	169	2
36	180	1
118	118	4
48	69	1
233	233	1
133	135	5
60	81	4
127	127	2
182	183	4
166	166	2
157	161	2
241	241	9
61	61	2
220	220	1
196	196	1
32	49	4
39	39	10
228	228	3
13	14	2
180	180	4
151	211	1
212	223	5
204	206	2
229	229	4
199	230	1
26	68	2
213	218	4
125	125	1
84	84	3
22	35	2
52	52	5
31	31	2
85	85	4
86	86	8
20	20	4
99	99	4
221	223	2
25	37	2
6	31	2
26	28	2
75	75	3
7	8	6
60	60	1
177	177	1
160	168	4
78	78	2
121	121	1
235	235	1
3	3	4
117	117	2
29	29	4
52	57	1
51	52	3
149	149	4
128	205	2
145	147	3
49	163	1
22	23	2
134	184	1
126	228	2
161	161	1
132	134	3
76	76	3
229	230	1
122	129	2
188	188	2
76	78	4
135	135	5
147	148	3
20	178	2
152	160	3
97	97	4
141	142	3
57	60	3
78	80	2
211	211	1
111	112	2
0	38	1
72	72	3
130	132	1
73	128	5
81	83	2
231	232	2
28	28	10
128	204	1
19	23	1
50	53	5
189	195	2
62	85	1
19	21	2
2	19	3
42	43	2
173	175	2
153	154	2
175	177	1
237	242	1
54	54	4
76	77	2
217	219	4
147	149	2
198	224	1
223	223	4
36	36	6
126	226	1
81	84	2
225	232	5
170	171	1
116	117	3
163	165	2
136	142	1
13	32	1
63	63	2
154	154	2
159	162	2
66	67	4
236	238	4
139	145	2
61	63	1
20	23	1
114	114	6
11	13	2
13	31	2
124	133	1
127	128	3
15	21	3
107	115	1
165	169	1
155	156	1
26	175	3
41	56	1
51	53	2
3	4	1
21	22	2
172	172	6
133	168	2
175	175	5
40	41	1
205	205	4
68	68	3
175	176	1
15	31	4
31	33	1
46	47	7
48	49	3
60	68	1
236	237	3
126	135	1
25	26	4
201	236	2
77	82	1
12	12	5
232	232	3
188	189	4
211	229	3
58	84	5
122	152	2
240	241	1
134	135	3
159	160	1
153	219	1
43	43	6
237	238	4
140	142	1
14	16	3
183	184	1
155	158	1
210	210	4
117	123	1
195	195	1
141	147	1
28	47	1
121	122	4
202	204	1
128	208	2
114	119	1
68	69	1
154	215	1
53	80	1
139	139	2
26	27	1
95	97	1
135	161	1
217	221	1
198	215	1
7	31	2
148	150	1
23	53	1
140	155	1
37	183	1
129	202	1
53	53	3
134	139	1
45	106	2
62	64	3
18	34	1
163	163	1
23	36	1
11	11	3
200	204	3
136	140	2
38	38	2
4	5	2
100	102	3
177	179	1
202	202	1
162	163	2
217	218	2
174	175	1
55	55	2
45	46	1
153	153	2
233	234	2
194	196	1
6	8	1
220	221	2
0	3	1
19	20	1
12	48	2
30	31	1
206	209	2
73	102	1
161	197	2
64	64	4
189	190	1
141	241	1
21	36	1
11	14	1
190	191	2
169	174	1
136	152	1
160	162	3
84	85	1
180	242	2
0	1	1
207	232	3
180	182	1
206	207	1
56	80	1
178	179	1
24	37	1
137	137	1
154	214	1
148	154	1
207	208	1
124	124	1
67	68	1
181	182	1
6	6	2
167	199	2
233	236	1
44	45	1
10	232	1
125	127	1
19	19	2
214	215	1
100	101	1
55	56	1
37	37	1
57	57	1
148	153	1
37	38	1
26	44	1
98	99	1
45	66	1
159	161	1
126	126	1
104	105	2
43	190	1
129	132	1
182	193	1
224	238	1
12	50	1
147	147	1
187	189	1
37	40	1
212	216	1
59	60	1
9	9	1
222	222	1
122	128	1
172	174	1
2	33	1
73	237	1
45	63	1
103	115	1
80	88	1
48	71	1
187	196	1
176	176	1
230	230	1
108	110	1
153	157	2
143	143	2
167	168	1
28	37	1
219	219	1
