43	43	15
56	56	20
18	18	12
72	74	4
110	110	13
3	10	1
4	7	1
41	43	1
55	55	2
37	38	4
114	115	3
125	125	8
13	13	12
69	69	7
13	14	6
118	118	6
10	10	11
39	39	7
86	86	10
142	165	2
16	16	17
109	109	11
27	27	12
102	103	3
34	35	2
13	42	4
38	38	23
25	25	14
94	157	3
39	80	1
44	45	5
53	53	13
122	123	3
18	159	1
81	81	2
41	42	4
64	64	6
24	25	8
95	96	2
9	9	3
135	135	5
35	36	6
112	113	10
55	140	2
36	36	11
152	167	3
62	68	2
117	118	1
138	138	7
52	52	14
47	47	9
116	116	20
56	114	1
150	150	11
147	148	2
91	91	6
147	147	5
120	120	8
64	66	2
155	156	5
63	63	5
75	75	2
68	69	3
14	15	7
67	67	5
0	1	5
73	99	1
107	107	11
93	93	6
54	55	8
164	165	4
161	161	6
11	11	20
26	27	2
5	25	7
54	116	3
57	57	10
73	73	7
33	33	2
84	85	6
5	6	7
23	24	3
65	65	10
9	34	3
80	80	8
101	146	2
3	3	20
25	131	3
39	40	4
87	88	4
100	100	5
88	88	11
101	101	4
46	47	4
78	80	1
49	126	1
157	157	10
129	145	1
149	150	2
52	116	2
47	126	2
154	154	7
26	155	1
0	101	2
153	155	1
44	44	8
82	89	3
141	142	1
130	166	1
54	56	3
19	20	6
46	46	15
2	2	14
34	34	17
122	122	5
96	99	1
115	115	7
20	21	9
9	86	1
66	66	2
88	89	2
45	45	18
43	53	3
69	148	1
108	108	7
89	89	7
117	117	11
35	35	11
4	4	9
164	164	6
67	69	3
5	11	5
130	130	8
40	40	9
118	124	1
120	125	1
27	151	3
134	135	2
16	89	3
99	100	4
58	58	3
5	111	2
112	114	1
162	165	5
74	75	4
163	164	2
166	166	12
79	80	6
145	146	2
108	109	5
101	143	1
116	127	4
36	37	8
42	42	8
48	143	2
160	160	4
53	55	3
21	100	2
163	163	5
14	42	2
90	91	2
111	111	8
106	106	12
143	143	4
134	134	17
10	88	1
62	149	1
170	170	3
79	79	10
64	69	3
124	125	4
137	137	5
17	17	9
165	169	5
100	147	2
24	24	12
71	72	12
148	148	8
142	143	3
121	121	2
49	50	4
42	45	3
165	165	10
159	160	1
121	122	1
72	72	6
19	19	6
37	37	8
17	82	2
10	111	1
97	99	1
132	132	6
2	3	4
70	143	2
54	54	19
156	156	16
110	111	7
162	162	5
20	20	3
28	28	6
68	68	4
108	139	1
127	127	3
51	51	6
41	41	8
85	86	3
62	143	2
14	16	3
3	5	1
153	154	3
21	21	9
96	97	4
17	151	2
149	149	12
153	156	1
25	27	3
94	94	1
159	159	6
0	0	12
133	134	2
13	84	3
150	151	5
135	166	4
138	139	5
97	98	2
1	2	3
47	48	8
129	129	8
100	146	6
45	51	2
119	123	4
163	167	2
112	112	13
19	23	5
15	15	4
92	95	1
76	79	2
99	146	3
26	26	8
101	147	2
92	92	1
142	142	8
53	117	1
45	71	2
125	126	3
71	71	5
6	7	9
124	124	2
65	107	1
158	158	8
119	119	3
128	128	7
82	101	1
40	55	3
76	76	5
118	123	1
2	4	2
104	143	1
135	136	2
130	131	4
167	167	4
85	85	5
73	76	2
20	133	1
50	51	1
129	161	1
140	142	1
139	167	2
52	72	2
140	140	5
64	70	7
131	131	8
23	23	5
47	63	4
20	23	3
39	48	1
155	155	4
8	9	8
64	68	1
141	141	7
27	47	2
46	51	2
133	149	3
49	49	2
49	51	3
78	78	5
77	77	1
63	148	4
7	9	2
20	25	5
77	80	1
92	94	7
51	71	2
41	139	3
144	145	4
18	81	2
80	81	5
4	43	1
51	119	1
109	110	3
162	164	1
4	5	5
27	28	1
143	145	4
130	144	1
111	112	3
5	7	1
94	95	1
123	123	1
8	8	7
153	153	2
18	23	2
139	139	3
103	103	1
18	21	1
113	113	5
13	15	3
56	57	4
139	142	1
125	131	1
120	124	1
57	58	2
102	146	1
43	111	1
62	62	1
20	101	2
39	77	3
132	133	4
127	129	1
136	136	6
145	145	1
8	121	1
108	110	1
16	37	1
50	50	3
160	170	2
79	95	3
98	98	6
17	20	2
140	141	2
56	144	1
11	12	5
124	149	1
144	151	1
152	152	12
100	166	2
12	12	13
8	109	1
5	5	5
33	35	3
35	111	1
80	157	1
122	124	2
55	56	4
69	70	8
155	159	1
80	100	3
64	146	1
64	65	5
105	105	2
74	79	1
22	25	1
53	54	1
13	16	2
71	73	1
45	46	2
137	138	2
119	120	1
41	48	3
83	83	1
85	89	2
63	64	1
63	69	3
35	41	1
129	155	2
26	48	2
53	141	1
18	19	2
90	96	2
144	144	2
155	158	3
131	132	2
43	44	2
125	127	2
1	140	1
73	74	1
102	102	2
126	126	5
13	85	2
151	151	2
134	136	4
74	97	1
81	101	3
115	116	2
7	7	4
152	161	1
8	123	3
48	51	1
25	26	2
14	14	2
89	90	2
151	152	2
117	122	3
133	133	4
1	1	4
17	18	1
40	54	1
6	43	2
83	85	2
55	116	1
24	157	1
83	107	1
105	106	1
90	90	4
96	96	3
26	157	1
48	138	1
146	146	3
21	25	2
47	64	1
48	48	7
54	115	1
39	50	1
54	137	1
8	24	1
115	126	2
44	46	1
37	139	1
156	157	3
104	134	1
168	169	1
74	74	2
106	139	1
143	148	1
10	12	1
6	9	4
40	41	2
21	90	1
74	80	2
40	100	2
73	77	1
14	17	1
38	39	1
127	130	2
25	124	1
11	13	1
57	62	3
67	75	2
157	158	1
40	62	1
104	105	1
130	147	2
102	104	1
97	97	1
23	100	1
129	130	1
52	53	2
95	95	1
84	84	2
15	16	1
15	132	1
139	140	2
109	149	1
138	143	2
128	129	1
8	10	1
7	8	4
5	112	1
120	121	3
9	10	3
98	99	1
52	55	1
54	65	1
62	107	1
107	108	2
115	117	1
82	82	3
26	127	1
83	84	1
18	153	1
152	153	1
106	143	1
110	137	1
10	11	1
95	157	1
165	166	1
37	40	1
6	26	1
8	63	1
74	76	1
126	131	1
39	76	1
70	70	1
11	26	1
41	45	1
11	81	2
109	136	1
148	149	3
58	61	1
93	94	1
3	4	2
118	119	1
20	100	1
126	127	1
39	102	1
100	134	1
10	107	1
19	92	1
88	157	1
1	5	1
16	17	1
80	82	1
77	78	1
14	83	1
125	166	1
26	128	2
46	50	1
47	49	1
22	91	1
139	143	1
122	134	1
66	68	1
123	149	1
48	49	1
146	148	2
70	71	1
101	134	1
56	112	1
