21	63	1
98	99	2
74	74	10
82	82	7
93	95	2
51	54	7
89	89	9
63	63	6
81	90	1
103	103	2
26	26	6
75	75	3
77	77	5
28	29	2
101	101	7
41	42	3
65	65	10
39	39	6
73	75	4
23	23	2
28	28	3
39	49	1
54	54	7
100	100	8
76	95	2
81	81	6
25	27	1
37	39	3
79	81	3
78	78	5
37	49	2
80	95	1
36	37	2
42	42	3
43	43	9
32	32	5
57	57	6
48	48	1
84	99	2
91	97	1
34	34	1
105	105	4
33	33	4
98	98	8
71	71	12
53	53	2
35	35	4
86	87	5
64	65	6
50	50	4
24	24	6
84	84	3
73	73	1
39	42	3
89	90	7
66	66	5
85	85	7
88	89	3
102	102	5
32	34	2
56	56	4
97	97	10
29	29	2
82	87	4
70	84	1
33	46	1
45	45	4
37	37	3
25	25	6
29	30	1
96	96	7
85	86	5
41	41	5
71	73	1
38	39	6
22	24	1
22	58	1
55	56	1
54	64	2
70	71	1
94	94	7
61	67	2
72	72	7
84	85	3
95	95	2
66	67	2
76	76	2
85	87	3
29	46	1
32	33	2
38	61	3
40	41	3
106	107	1
53	64	3
83	84	6
87	87	9
82	83	4
62	62	2
20	20	2
49	54	1
88	90	6
26	28	2
38	49	2
31	31	4
59	60	5
41	48	3
77	104	1
51	52	4
91	92	4
22	22	3
55	55	3
96	100	2
30	30	1
52	54	4
52	52	1
101	102	4
25	26	1
52	53	5
93	93	2
83	83	7
104	105	5
39	45	3
56	57	1
53	54	3
73	74	2
96	97	3
47	49	2
77	99	2
80	81	2
97	99	4
79	99	2
83	97	2
86	86	3
102	104	2
24	32	2
24	25	1
76	77	2
100	102	1
99	99	5
70	70	3
51	51	4
46	46	2
79	80	4
46	47	2
62	67	1
54	71	2
59	67	3
40	43	1
94	95	1
75	76	1
49	49	1
45	46	3
33	35	1
60	60	3
60	61	1
95	96	1
80	99	1
77	96	1
47	48	1
91	91	4
64	64	2
76	96	1
72	73	1
104	104	1
69	69	1
92	92	2
74	100	1
27	27	1
21	60	2
56	66	1
88	96	1
24	30	1
39	40	1
102	103	1
55	57	1
61	61	1
21	21	1
80	89	1
82	88	1
29	47	2
20	21	1
81	87	1
53	55	1
106	106	1
40	40	1
59	65	1
35	36	1
29	67	1
