48	49	4
106	107	1
55	55	16
58	58	6
92	92	10
39	39	9
49	49	9
34	34	22
22	23	4
87	87	8
51	59	1
24	24	9
28	28	3
96	96	7
86	87	6
104	105	23
98	99	1
102	102	12
36	36	11
63	77	8
88	88	9
78	78	8
20	20	9
89	90	3
83	83	5
67	67	8
50	57	1
25	31	3
75	77	3
96	97	5
76	76	6
38	38	9
52	52	12
94	94	7
85	85	3
60	93	3
25	34	6
90	91	1
21	39	2
37	39	3
95	95	10
77	77	11
50	50	6
92	94	5
65	78	2
37	37	7
66	72	6
21	45	3
33	33	11
20	24	2
63	63	8
107	107	4
90	90	9
42	43	5
79	79	10
23	23	10
35	39	3
44	44	4
32	32	5
84	88	4
65	66	5
60	60	5
82	83	8
74	74	10
49	57	1
46	47	4
26	26	4
81	81	12
69	69	9
93	93	6
80	80	6
54	54	1
91	92	2
61	81	3
68	68	5
61	76	5
89	95	2
67	68	2
22	24	3
44	45	10
31	31	12
85	88	3
99	99	1
101	101	6
50	58	5
39	40	1
24	43	1
75	75	4
93	94	10
78	79	2
20	21	3
71	75	1
62	62	6
35	35	7
105	105	13
25	28	2
70	72	9
61	77	2
64	64	11
72	72	11
61	61	5
73	74	5
66	70	5
65	65	5
35	40	2
74	75	3
68	69	1
62	77	5
43	43	2
35	37	1
104	104	3
55	57	2
73	73	11
82	85	4
27	29	2
82	82	5
25	25	2
21	21	3
76	89	1
95	96	4
42	42	3
46	48	1
58	60	7
53	93	3
27	27	6
30	30	3
89	89	4
92	93	2
25	26	3
60	61	1
45	55	1
71	71	4
29	30	2
45	45	2
45	46	2
100	101	3
22	22	4
70	70	2
101	102	6
98	98	2
49	58	4
59	60	4
102	103	1
24	45	1
103	103	7
100	102	1
81	82	3
46	46	4
57	57	5
63	64	3
59	59	6
97	97	5
62	63	4
51	51	2
66	67	3
66	66	3
82	84	3
53	94	4
53	53	2
85	86	1
85	96	1
26	28	1
56	56	1
55	56	1
91	91	4
61	62	4
51	92	1
41	43	2
37	38	1
58	59	1
22	42	1
97	99	2
51	52	2
75	76	1
88	89	2
34	35	5
40	41	1
21	23	2
86	86	3
70	73	1
49	60	1
77	78	1
74	77	1
40	40	2
36	37	2
38	39	2
46	52	1
32	34	1
53	54	1
80	82	1
20	42	1
100	100	1
86	96	1
47	47	1
29	29	1
84	85	1
68	70	1
71	73	1
25	36	1
