42	44	2
104	104	5
158	168	1
137	137	5
165	165	8
114	115	3
177	177	5
108	108	20
110	110	6
57	57	21
31	31	3
130	130	4
121	121	6
156	156	15
174	174	19
26	26	4
78	78	11
118	119	2
58	58	8
48	48	17
45	45	6
143	143	2
3	4	1
78	80	2
184	184	12
74	74	8
28	28	8
130	131	4
152	152	5
20	20	7
97	98	2
147	148	6
22	25	4
157	158	3
107	108	9
84	84	14
80	186	8
124	125	5
6	6	5
46	46	8
11	11	4
151	151	22
37	38	2
39	40	6
78	79	3
47	47	7
183	184	7
71	72	7
77	77	17
43	45	1
72	73	10
55	55	12
87	87	11
148	148	20
138	138	4
106	106	4
162	162	6
141	160	2
53	53	4
110	111	3
94	94	5
70	71	1
62	100	4
96	96	11
83	83	8
64	106	2
140	141	4
106	107	6
131	131	4
133	133	4
0	0	8
64	64	3
104	114	5
120	120	7
24	24	12
32	33	4
31	46	5
177	178	3
2	3	4
186	186	6
66	67	4
95	95	3
70	83	1
182	182	10
40	40	11
31	37	1
98	98	6
139	176	3
141	142	5
73	113	2
128	129	8
109	111	2
179	179	2
80	80	7
86	86	10
172	172	9
115	115	10
105	105	4
125	125	10
4	4	5
7	7	2
176	176	9
41	41	5
85	85	10
182	183	5
173	173	12
68	68	7
187	187	6
56	56	3
44	44	9
99	99	7
42	43	3
150	150	7
118	118	5
171	172	11
38	38	6
147	147	10
30	32	3
140	140	8
113	154	1
126	128	1
164	164	4
142	142	6
89	90	3
90	91	7
109	164	1
185	185	4
33	33	6
163	163	8
154	154	10
91	92	3
171	182	2
116	117	3
33	44	3
25	25	9
60	60	1
160	160	7
6	7	7
188	188	10
33	35	4
169	169	14
32	32	12
24	90	1
151	170	4
104	117	3
43	43	3
90	152	2
62	62	2
146	149	3
8	8	8
126	126	8
152	153	7
92	92	5
77	78	3
117	117	3
76	77	3
185	186	2
103	157	6
123	123	8
101	127	2
161	162	5
7	8	6
103	120	3
124	173	3
57	58	3
162	164	3
96	116	2
56	57	4
171	171	5
155	155	10
134	134	6
22	23	2
166	166	10
6	39	2
139	139	9
124	166	1
144	167	2
91	98	1
79	79	4
30	30	5
55	56	3
34	35	1
58	59	6
5	5	3
76	76	6
91	91	10
170	171	3
190	190	4
101	114	3
181	181	8
167	167	3
135	135	4
175	177	5
82	82	3
16	16	2
47	48	3
158	159	4
117	121	2
140	178	2
42	42	5
34	34	7
132	166	2
10	47	4
122	122	4
129	142	3
100	100	5
103	119	3
68	78	3
114	114	8
13	13	6
81	81	3
83	84	2
89	99	2
13	14	5
157	157	8
123	124	2
116	189	3
173	174	7
180	180	3
23	36	5
10	45	3
79	83	1
126	127	2
113	113	6
103	103	7
172	173	4
54	55	1
150	151	1
31	39	3
131	132	2
6	87	1
37	37	6
102	103	4
165	166	2
26	41	1
125	126	5
62	70	4
2	152	1
3	3	5
72	72	4
89	89	5
137	172	1
142	177	3
132	132	4
55	97	1
10	10	7
23	25	3
131	142	3
108	112	4
25	31	2
26	99	2
139	141	1
174	184	3
64	65	3
138	139	4
159	159	7
132	133	2
137	138	2
64	66	2
38	56	1
153	153	9
42	54	3
160	161	3
155	156	1
109	109	7
41	42	4
80	81	3
178	178	4
19	20	2
19	19	8
25	26	3
168	168	3
68	80	2
16	18	4
144	144	2
71	102	1
17	17	4
99	100	3
153	154	3
22	22	6
37	58	2
163	164	2
13	15	1
149	150	2
169	177	1
120	188	3
180	181	2
183	183	4
21	25	3
71	82	2
105	155	2
164	165	3
88	90	1
85	86	3
81	82	2
3	6	3
28	35	2
28	29	3
136	136	1
129	151	4
127	128	4
34	44	1
136	137	3
79	80	5
75	75	6
39	39	7
8	9	1
98	103	1
156	157	4
74	110	1
188	190	3
136	181	5
30	31	5
79	125	1
12	13	5
35	43	1
139	140	3
34	45	1
109	126	4
129	129	2
102	102	4
123	125	2
78	93	1
14	14	3
76	83	2
166	168	3
37	42	3
151	152	2
98	99	1
36	37	5
122	126	4
105	106	4
159	160	1
38	39	2
79	90	3
92	93	2
175	175	6
174	175	1
129	168	1
119	119	5
119	185	2
103	170	1
141	141	5
106	165	1
105	107	1
170	170	3
9	9	5
158	158	4
95	116	1
27	27	4
1	2	1
161	161	3
121	122	1
73	103	1
145	146	1
96	101	2
177	183	1
115	116	1
61	62	1
126	170	4
134	135	2
1	1	5
149	149	1
106	113	1
146	146	6
174	183	1
104	188	2
14	15	3
2	2	3
167	168	4
55	96	1
154	155	1
111	111	8
145	145	4
179	180	1
120	185	1
5	6	2
172	174	2
62	63	4
107	109	1
104	155	2
116	188	1
121	135	3
101	102	1
23	23	4
71	71	1
66	66	2
158	165	3
133	158	1
108	109	1
63	64	1
36	36	1
35	35	2
83	85	1
172	190	3
23	37	1
161	171	1
112	112	1
121	123	2
116	116	2
90	90	1
124	124	4
108	164	4
38	57	1
147	154	1
104	106	2
129	153	1
73	74	3
106	119	2
86	88	1
127	127	1
21	21	2
9	37	1
151	153	2
181	182	2
31	38	1
84	85	2
10	12	2
171	183	1
139	169	2
77	83	1
9	46	1
53	56	1
64	93	1
46	47	2
71	97	1
119	120	1
56	58	1
31	34	2
88	88	1
65	93	1
134	187	2
103	104	1
7	15	1
124	127	1
86	110	1
186	187	1
146	147	1
104	154	1
66	157	1
147	149	1
68	76	1
90	95	2
93	93	1
11	44	1
162	163	1
19	21	1
11	13	1
45	46	1
15	16	1
41	57	1
66	92	1
112	189	1
72	112	1
66	68	3
85	128	1
122	123	1
124	178	1
161	163	1
120	121	2
101	103	1
77	138	1
86	87	1
86	126	1
148	149	1
11	12	1
181	188	1
108	110	1
141	178	1
117	118	1
33	34	1
1	3	1
111	112	1
