39	61	4
11	11	6
33	34	3
22	22	12
67	68	6
35	35	6
46	54	4
26	54	1
19	19	17
73	73	11
58	58	10
13	13	14
52	52	8
32	32	13
29	29	12
20	20	12
31	32	2
26	26	4
46	61	3
41	41	2
45	45	6
56	56	14
5	5	4
60	61	3
49	49	4
46	47	8
55	55	7
29	32	1
66	66	3
41	53	2
43	43	4
9	9	18
63	64	2
52	55	5
28	29	3
18	33	5
62	62	8
6	7	3
10	19	1
7	9	4
38	38	4
12	12	13
2	3	4
13	14	2
42	75	1
55	56	11
6	6	12
25	27	8
47	54	3
42	42	20
61	61	8
26	29	1
3	22	2
9	10	5
25	28	6
48	48	11
1	2	9
67	67	8
59	59	6
0	0	6
5	6	5
57	57	12
26	27	4
30	53	2
68	68	14
30	30	8
57	58	3
11	12	5
2	4	3
23	25	1
40	40	3
45	46	5
2	2	10
47	47	4
7	7	12
74	77	3
73	74	2
47	61	2
24	24	1
49	52	1
69	69	1
22	26	1
24	28	2
46	46	16
3	3	2
74	74	9
23	24	5
29	54	3
59	67	1
50	50	4
39	62	1
77	77	3
25	25	4
49	50	2
54	54	4
23	23	11
41	42	3
1	54	1
36	36	1
24	26	1
7	10	1
48	69	1
20	21	7
8	8	9
8	9	4
3	5	2
13	54	1
44	44	7
44	55	2
10	10	10
34	58	2
74	75	1
58	59	1
19	20	6
30	48	1
6	8	2
8	10	2
37	38	1
66	67	4
8	42	3
59	75	3
75	76	2
51	51	5
60	60	11
4	4	9
10	11	2
72	72	5
34	34	3
38	65	3
75	75	4
9	55	1
12	13	1
57	77	1
3	4	4
50	64	1
28	34	3
24	25	4
29	30	1
25	26	3
35	38	4
31	31	5
4	5	2
54	55	3
0	1	4
33	33	7
42	43	4
44	45	7
64	64	4
24	54	1
70	72	1
19	22	1
35	62	2
13	42	1
21	21	3
4	12	1
59	60	4
63	66	2
32	55	1
21	22	2
57	59	1
28	31	1
70	70	2
48	49	2
47	48	1
43	44	2
44	47	2
59	68	1
46	48	1
18	19	2
61	63	1
1	1	2
18	18	4
63	63	1
40	41	1
35	40	1
54	76	1
32	49	1
71	71	3
18	66	1
54	56	1
4	11	1
61	73	1
76	76	2
22	23	1
36	37	1
18	20	1
7	8	2
20	23	1
33	56	1
65	66	1
31	53	2
19	21	1
72	73	1
47	55	2
59	73	1
2	6	1
60	73	1
39	39	1
64	67	1
14	15	1
3	12	1
15	62	1
1	31	1
70	71	1
39	40	2
27	27	1
37	37	1
32	50	1
