68	68	11
89	89	4
102	103	1
17	17	5
127	127	2
120	120	8
89	127	4
115	115	2
151	151	7
8	8	4
76	156	3
82	128	3
13	13	9
138	138	3
27	27	7
25	48	3
99	99	5
152	152	7
39	55	3
28	28	4
10	10	3
52	53	5
137	148	1
139	140	4
154	154	2
45	47	1
87	87	3
53	53	3
145	145	2
77	77	2
73	73	5
118	118	7
52	140	2
44	44	10
117	117	7
43	43	7
2	2	6
7	8	7
88	88	10
71	71	4
108	108	4
63	63	2
51	51	1
29	34	1
141	141	10
117	120	2
21	47	3
94	94	6
123	123	8
136	144	3
82	135	3
40	41	1
15	15	1
147	147	8
119	121	1
82	87	2
40	40	2
107	107	3
139	139	2
18	18	5
33	55	3
149	149	4
113	113	3
41	41	2
103	103	9
84	84	3
0	0	3
51	52	2
28	29	3
38	38	5
51	140	4
96	97	2
108	146	3
112	141	3
145	147	3
137	144	4
20	53	2
157	157	5
140	140	9
48	48	3
101	101	2
13	27	3
136	136	4
31	32	5
66	66	5
126	127	3
146	146	7
83	84	2
113	142	2
49	88	4
20	20	5
82	140	1
112	112	5
27	50	1
114	115	2
95	96	7
5	5	3
80	80	5
75	75	3
153	153	6
103	104	2
154	158	1
146	148	1
34	34	1
102	102	1
53	54	3
94	139	1
6	6	3
131	131	7
25	25	5
18	119	4
74	76	3
110	110	5
119	120	3
93	93	6
52	52	3
35	35	2
76	76	1
95	95	7
8	19	2
14	14	3
152	158	3
158	158	10
78	78	2
86	86	3
108	110	3
93	142	1
150	150	2
83	87	3
121	121	4
134	134	13
120	121	3
3	4	2
55	55	3
23	23	3
20	54	1
129	129	4
114	114	6
155	156	1
146	147	1
9	12	2
131	133	1
39	41	3
92	92	1
19	19	4
37	38	3
126	126	3
16	45	3
63	71	1
116	118	3
67	68	1
7	7	6
83	83	3
119	131	2
49	67	2
104	104	3
113	140	2
12	12	1
81	81	2
27	28	2
125	126	3
38	46	2
1	1	1
16	16	2
123	142	3
153	154	2
112	117	1
24	25	1
134	158	1
91	91	2
82	83	4
132	132	4
136	137	2
93	94	1
79	80	6
82	82	5
31	31	3
84	108	1
8	26	3
90	146	3
106	106	3
112	140	2
125	125	2
28	30	1
42	45	3
37	37	3
4	12	2
24	24	6
137	137	7
123	124	3
49	49	3
54	54	2
112	144	2
96	96	4
67	67	3
121	122	1
13	14	1
111	111	2
18	19	3
36	36	2
85	116	2
72	72	4
109	109	2
148	152	2
124	127	2
112	115	1
156	158	1
65	74	1
105	105	3
80	81	1
38	39	3
124	124	5
145	154	3
144	145	1
104	109	2
98	98	5
69	69	2
113	114	1
111	116	2
128	128	3
86	106	1
46	46	2
22	88	1
19	26	1
32	33	2
111	112	4
33	33	2
156	157	1
78	79	1
34	35	1
87	141	1
15	16	2
19	20	1
157	158	1
135	135	1
94	98	1
15	28	1
84	130	2
95	118	1
108	109	1
95	111	2
65	65	1
67	70	2
39	39	4
149	150	1
111	115	2
51	53	2
156	156	2
24	85	1
14	27	2
47	47	1
3	11	3
45	45	1
85	85	4
122	122	1
17	47	1
93	126	1
32	32	2
16	17	2
65	101	1
116	116	1
93	156	1
47	88	1
49	55	2
32	39	1
1	44	1
21	21	1
9	9	1
132	134	1
4	4	2
48	49	1
44	63	2
105	132	2
98	99	1
90	90	1
90	124	1
88	90	1
5	6	2
28	33	1
110	111	1
142	142	1
69	70	1
115	116	1
128	129	1
46	49	1
131	132	1
30	30	1
3	8	1
15	45	1
57	57	1
18	22	1
