102	103	2
61	61	18
92	92	9
74	74	24
114	114	14
89	89	7
88	92	3
18	23	3
33	33	11
8	8	11
97	97	12
108	110	4
59	59	12
132	132	12
98	108	3
111	112	3
109	110	5
36	126	4
101	101	16
66	105	4
5	5	8
86	110	2
102	102	14
87	101	2
66	108	2
100	112	4
101	102	5
63	63	17
117	117	13
122	122	12
97	98	5
35	35	4
80	80	17
120	120	23
75	75	8
93	93	12
25	57	2
9	11	4
82	83	4
42	59	3
28	28	9
44	84	3
20	20	12
9	10	16
18	18	4
16	21	2
106	118	2
0	0	9
73	73	14
52	59	1
68	68	15
104	104	12
10	10	4
79	79	8
80	97	1
88	88	8
32	33	4
107	108	11
16	16	8
127	127	11
118	123	7
124	126	3
64	65	4
28	29	1
59	96	1
96	96	20
62	62	18
123	124	2
119	119	9
79	84	6
118	118	13
99	100	6
2	2	14
80	130	6
54	54	5
25	25	5
107	115	2
134	134	6
115	118	4
66	66	5
53	53	8
65	66	6
6	7	2
52	125	3
43	64	2
130	130	6
21	21	7
70	70	5
52	94	2
102	119	1
13	13	9
99	99	9
121	122	11
4	4	1
17	18	1
121	127	4
34	34	8
42	42	4
117	118	4
42	64	4
27	28	9
71	75	2
7	28	3
83	84	5
7	8	4
23	24	6
44	44	11
31	31	5
58	58	9
64	64	14
108	109	5
13	22	1
23	23	10
107	107	8
112	116	2
116	116	8
110	110	4
27	37	5
23	60	3
104	105	2
126	127	4
62	64	6
77	77	11
105	105	17
71	72	4
87	98	6
45	46	1
83	83	10
32	32	3
129	131	4
53	82	3
72	72	12
85	100	3
33	103	3
56	58	6
92	98	1
92	93	4
96	97	2
85	85	5
53	77	2
97	128	2
102	104	4
36	36	2
129	129	10
45	111	4
57	58	5
90	90	24
114	115	2
60	60	7
112	112	13
50	52	3
22	22	11
60	101	3
19	19	8
30	31	3
49	130	2
60	61	6
17	17	6
133	133	8
72	73	3
18	38	3
45	45	10
100	101	2
77	78	8
71	71	9
100	100	5
13	25	2
71	98	1
90	91	4
15	120	3
47	84	4
125	125	9
91	91	6
115	117	2
112	129	3
89	90	4
130	132	7
60	69	3
127	128	1
87	92	4
10	11	1
115	115	3
87	87	8
108	111	2
124	124	10
77	133	1
55	56	2
0	1	8
66	67	2
81	82	3
67	67	6
109	111	1
98	98	8
86	106	5
57	57	9
67	84	1
43	44	4
76	76	19
128	128	3
78	78	11
98	129	2
61	68	6
97	116	2
43	43	8
11	11	6
50	65	4
1	1	5
123	123	4
69	75	2
95	95	8
113	113	8
26	26	4
68	82	4
62	68	2
129	130	2
133	134	3
15	15	7
52	52	3
108	108	9
106	106	9
79	80	4
131	131	11
109	109	2
80	81	2
65	65	6
50	64	1
49	50	4
49	49	11
84	85	3
53	135	2
33	98	1
82	82	4
95	96	3
118	119	5
87	97	1
38	117	1
65	116	2
0	17	2
97	100	2
98	118	4
79	85	2
48	48	3
42	55	3
126	126	11
81	81	2
7	7	6
70	71	5
34	133	3
12	12	7
23	26	4
70	96	1
103	103	3
55	55	2
100	116	4
56	56	7
82	105	6
54	67	2
98	121	3
5	12	2
11	60	2
14	14	3
78	87	4
44	45	2
99	113	2
43	68	2
82	85	3
78	79	1
24	43	2
119	121	2
67	115	1
127	133	3
65	94	2
59	60	1
47	47	3
106	130	2
82	100	3
130	131	2
19	29	2
84	84	9
3	3	8
73	74	1
93	94	1
69	69	8
92	117	1
36	37	1
72	134	2
24	24	3
85	129	2
86	95	1
33	34	3
3	30	1
131	133	1
127	132	1
107	130	1
102	130	1
121	121	10
86	87	6
56	131	4
31	108	2
30	30	9
35	36	4
29	30	2
86	86	10
74	75	1
11	20	3
53	114	4
52	53	6
19	20	3
21	28	1
103	104	1
119	123	2
108	115	2
38	129	1
132	133	4
112	113	3
51	51	4
108	133	1
11	24	1
31	32	3
124	132	1
70	75	1
66	68	2
62	63	1
5	31	1
53	128	3
36	106	2
89	126	1
23	28	1
89	105	2
128	129	2
95	113	3
11	18	1
105	126	1
115	116	2
44	111	2
9	9	4
50	104	1
85	116	2
80	132	1
27	27	2
120	121	1
43	132	3
18	25	1
7	26	1
113	119	1
29	29	1
94	94	8
101	116	2
64	132	1
82	84	2
69	70	1
47	97	2
15	16	1
13	30	2
121	126	2
89	112	2
70	116	1
36	119	4
77	80	5
42	101	1
125	126	1
44	67	1
96	98	1
112	120	1
26	36	3
93	97	1
117	119	1
54	55	2
8	20	1
52	61	3
82	86	2
97	106	1
22	23	1
55	59	2
31	131	1
85	115	2
70	104	2
106	107	1
14	36	2
12	13	2
53	65	1
121	128	2
52	82	1
10	20	2
75	76	1
98	100	1
56	78	1
67	68	1
79	128	2
30	36	2
91	92	2
38	38	1
68	69	1
124	125	1
91	115	1
1	3	1
63	119	1
86	131	1
48	81	1
103	126	1
50	50	1
6	30	1
61	63	1
118	122	1
52	78	1
1	2	1
126	134	2
43	65	1
63	124	1
96	119	1
76	77	1
49	62	1
8	9	2
101	127	1
35	112	1
35	131	1
113	114	2
122	123	1
7	111	1
99	126	1
68	93	1
59	63	1
