20	43	6
59	60	3
115	116	1
15	127	2
78	80	5
129	132	4
34	34	4
63	63	4
5	84	1
123	128	1
72	72	2
15	49	3
19	72	1
33	33	3
123	123	2
27	79	1
87	90	2
86	86	5
80	80	8
9	10	2
85	85	4
34	82	3
5	7	2
83	83	5
75	104	1
23	23	5
71	71	2
73	79	1
127	128	1
27	27	4
13	46	3
38	39	1
27	93	5
119	119	6
29	48	1
107	107	1
15	56	2
68	68	5
106	116	2
88	108	3
21	39	1
22	22	2
32	32	3
93	98	2
74	74	1
20	46	1
34	102	1
19	19	6
32	33	2
65	65	6
39	81	1
77	93	1
49	51	2
98	98	6
96	97	1
120	128	1
123	124	3
3	47	2
76	76	1
33	134	1
129	129	1
118	118	7
34	72	2
114	114	1
16	122	2
69	69	1
62	62	3
28	79	3
11	11	4
110	110	2
92	96	1
28	28	7
18	130	3
61	61	3
87	92	1
31	41	2
98	99	2
45	132	2
27	78	4
95	95	9
36	76	5
21	40	4
94	96	2
19	20	2
82	82	2
20	20	3
131	131	8
70	119	1
93	130	3
17	18	1
35	35	4
60	60	1
90	92	2
104	104	2
44	44	2
8	48	2
17	45	2
26	30	3
12	12	3
70	71	2
45	131	1
82	83	2
60	64	1
27	28	1
38	44	1
62	63	3
112	113	3
13	125	2
42	42	10
11	92	2
14	14	2
41	41	3
35	36	2
77	78	2
113	113	1
11	16	2
5	5	7
57	57	2
51	51	2
73	73	3
13	17	1
23	24	6
75	75	2
105	110	1
130	132	1
5	6	5
20	134	2
47	48	2
111	117	4
12	98	1
47	47	5
109	109	4
5	48	3
81	81	2
106	106	1
125	125	2
46	70	1
45	45	1
83	85	2
26	27	3
86	108	3
57	58	1
26	26	5
85	87	1
78	78	6
48	49	2
7	7	2
37	38	1
116	116	1
93	94	2
70	70	2
9	37	1
55	121	1
84	87	1
92	119	1
110	111	1
27	40	2
76	77	1
22	115	2
120	120	1
124	124	4
29	60	1
17	17	1
133	133	5
31	31	1
4	4	6
45	46	2
2	3	1
40	43	2
25	25	1
80	119	1
3	4	2
117	117	1
34	35	1
30	30	4
97	98	1
78	81	2
130	133	1
38	40	1
16	45	1
8	15	2
44	92	3
21	21	1
61	62	1
103	103	1
102	102	2
50	57	2
27	91	1
8	13	1
126	132	3
19	25	2
8	8	1
46	122	1
38	82	3
105	105	1
112	112	1
99	99	1
8	17	1
84	84	1
97	97	2
33	36	1
4	6	1
29	29	1
81	82	1
103	104	1
96	96	1
100	103	1
15	15	2
93	93	2
29	30	1
28	29	1
6	11	1
40	40	1
14	46	1
97	99	1
87	87	1
11	31	2
91	91	1
45	81	1
