87	88	6
64	64	26
63	74	2
34	70	2
125	131	3
30	30	9
11	13	3
45	62	5
65	65	20
63	63	14
14	14	22
46	46	30
31	100	2
96	96	10
36	36	8
132	132	2
2	2	11
109	109	3
124	124	4
20	21	2
101	102	4
1	68	2
120	122	3
72	73	1
29	30	5
112	112	4
121	122	7
95	95	16
20	44	2
14	38	3
23	23	3
32	32	4
20	22	2
10	10	15
77	77	9
31	80	2
60	60	6
57	58	8
97	97	10
120	120	3
76	76	17
83	83	15
64	70	2
85	86	4
28	97	1
84	84	6
16	18	5
116	116	13
56	81	3
26	27	1
75	76	1
62	62	11
113	122	3
89	92	4
54	55	4
8	8	15
21	50	2
93	93	7
16	74	1
119	119	3
86	86	15
55	81	6
47	47	19
131	133	1
21	27	4
11	11	10
28	29	7
62	66	1
3	3	14
12	12	6
123	124	7
33	33	14
5	40	1
72	72	16
17	18	5
75	77	6
3	4	3
81	81	7
102	102	2
73	73	14
34	34	5
31	32	6
93	94	2
6	97	8
82	82	10
80	80	16
43	43	14
68	68	15
93	131	2
1	2	2
27	87	2
62	71	1
58	60	1
11	12	7
39	39	3
59	60	11
70	70	9
117	118	3
78	92	2
6	6	15
45	49	1
16	17	6
105	105	9
126	133	4
22	22	12
7	18	1
79	79	12
21	38	2
21	21	8
11	47	4
123	123	3
11	48	1
40	82	2
85	85	15
19	20	7
90	114	3
66	67	5
71	72	5
11	69	4
5	5	11
127	128	2
103	112	9
26	26	21
116	117	5
109	112	1
113	113	4
12	121	3
45	45	8
16	16	6
60	83	2
100	100	12
4	4	13
104	105	5
41	41	7
42	42	4
37	38	6
83	91	4
132	134	2
90	92	2
122	122	6
79	80	3
90	90	12
99	99	1
26	83	2
97	127	4
3	35	1
2	15	2
108	108	11
118	118	2
104	104	3
12	62	2
61	61	14
130	130	2
103	106	2
14	39	1
71	71	8
117	117	6
40	45	4
10	36	4
49	50	1
132	133	1
4	5	6
38	39	3
79	81	3
4	15	2
81	82	8
21	22	6
60	82	2
125	132	3
77	94	6
78	79	13
31	31	9
87	87	5
112	113	4
8	36	3
29	60	3
25	62	2
11	27	2
125	126	11
23	25	1
44	64	1
98	99	6
37	39	2
44	44	13
79	89	1
69	70	2
14	16	7
30	31	3
32	33	2
73	74	8
88	88	10
27	27	8
101	101	11
12	13	12
91	92	3
20	29	2
20	37	3
70	71	3
115	134	1
114	114	3
19	32	4
41	43	6
97	98	3
9	9	8
35	36	3
38	79	1
66	66	11
57	57	11
126	129	2
94	94	15
34	35	1
116	125	2
28	28	8
91	124	1
107	107	3
9	10	8
55	56	5
41	84	4
126	126	10
23	24	2
92	93	2
15	94	1
100	101	4
29	59	3
13	46	2
56	60	2
4	8	1
61	76	9
5	7	2
121	121	4
59	59	6
62	63	6
131	132	3
104	123	3
21	85	2
64	65	4
126	131	2
43	71	1
29	84	4
75	75	7
22	25	1
19	19	7
81	83	2
17	17	13
7	7	5
111	111	11
84	85	2
28	60	1
74	75	2
4	93	2
60	75	5
98	100	1
126	127	1
24	24	3
20	41	6
7	95	2
125	133	3
4	89	1
7	9	1
40	40	3
78	78	5
25	26	5
58	58	5
15	15	7
127	127	2
92	95	1
12	78	7
26	30	2
17	120	1
130	131	3
71	73	2
67	68	8
10	29	2
4	7	2
33	34	1
12	76	2
35	35	14
125	127	2
11	60	2
95	98	3
133	134	6
13	13	3
24	25	3
61	75	1
133	133	5
123	125	1
86	87	1
93	115	4
26	88	3
27	28	3
117	120	4
125	125	5
4	101	5
123	134	1
6	7	3
57	85	3
32	38	3
95	96	4
91	115	1
79	100	3
18	18	11
15	16	3
29	29	5
96	98	6
20	20	3
110	110	5
79	104	4
22	36	1
44	45	6
128	128	6
128	129	2
41	60	2
80	81	1
19	95	1
1	1	1
17	44	3
10	11	3
44	65	4
27	29	2
46	48	1
131	131	4
20	35	3
48	49	2
109	110	3
36	78	1
6	65	1
69	69	4
13	34	2
91	91	2
114	121	3
35	43	1
16	40	2
56	61	1
41	42	3
103	103	2
90	97	2
89	89	1
38	44	2
11	70	5
25	27	1
25	89	3
81	84	2
46	65	1
67	67	4
102	106	2
80	82	1
76	77	3
68	69	3
70	75	2
21	26	2
134	134	6
77	95	3
91	116	2
124	133	1
11	35	2
15	79	3
46	71	1
26	29	2
63	114	1
103	110	1
11	101	2
131	134	1
13	14	2
26	32	1
45	48	2
14	36	3
12	47	3
84	89	1
79	95	1
7	17	1
119	121	1
77	85	3
61	67	1
116	121	2
107	108	1
21	37	4
26	93	3
21	24	2
29	48	3
12	61	1
50	50	3
68	71	1
117	119	1
21	39	2
30	32	2
38	38	2
40	42	1
107	109	2
95	97	2
128	130	1
83	89	3
103	104	1
29	39	1
28	31	2
8	9	1
81	85	1
115	115	1
120	121	1
17	22	1
129	129	4
45	64	2
4	21	2
26	79	3
45	63	2
39	40	2
50	56	1
45	91	1
36	41	1
16	24	2
90	106	2
81	90	1
14	19	1
84	91	1
91	101	2
41	81	1
79	92	1
98	98	1
61	62	1
115	116	2
56	78	2
49	49	2
37	37	1
14	79	1
105	106	1
25	87	1
124	128	1
0	10	1
57	61	1
10	65	1
34	36	1
92	101	1
82	87	1
57	59	1
0	0	1
94	95	1
102	104	1
29	32	1
92	92	1
