114	115	2
25	26	2
103	118	2
50	50	2
39	39	4
132	132	9
126	127	2
62	63	2
87	87	2
2	2	2
127	127	6
14	14	7
139	139	3
146	146	5
40	41	4
116	117	2
94	94	2
86	118	1
144	144	6
30	30	2
99	99	1
4	5	2
119	120	1
152	152	2
22	22	2
119	119	6
25	25	5
11	11	2
9	10	4
73	73	2
77	77	5
79	79	8
109	109	2
143	143	2
49	49	2
124	152	2
38	38	2
41	41	2
33	94	3
130	130	5
7	7	6
68	122	3
123	134	2
19	19	4
109	113	2
29	29	4
3	56	3
105	105	6
123	123	5
109	111	1
106	106	5
145	145	16
45	46	3
116	142	1
86	86	6
114	138	2
91	91	1
89	104	2
6	6	6
120	122	7
25	38	1
9	9	2
14	29	2
142	142	2
14	38	1
92	94	1
155	156	1
106	116	1
89	89	1
67	69	1
134	135	1
81	81	3
78	103	1
83	83	3
112	112	4
53	56	1
52	53	3
97	97	1
136	137	2
75	75	1
130	155	1
33	34	1
137	138	3
28	28	1
20	20	2
26	28	2
68	69	3
148	148	2
131	134	1
80	80	3
85	104	2
70	70	4
32	32	4
31	31	4
9	32	3
117	117	2
55	57	4
13	13	4
104	111	2
92	92	3
27	27	6
122	125	1
71	82	2
27	34	2
37	37	1
12	43	1
125	125	5
36	36	5
151	152	1
134	134	2
108	108	1
14	15	3
138	138	1
18	18	2
47	47	6
124	127	2
116	116	3
88	88	2
44	44	1
82	82	4
44	45	2
124	124	2
45	47	1
92	138	1
145	147	2
121	121	3
128	128	3
95	141	1
54	55	1
57	61	1
108	118	3
72	73	3
95	95	2
93	93	3
26	26	3
122	123	2
128	129	1
90	111	2
25	28	1
143	153	1
76	76	1
83	84	1
71	71	1
89	94	1
66	66	2
52	52	3
54	54	5
2	66	1
21	30	2
87	101	2
102	102	1
14	37	1
155	155	1
23	90	2
16	16	2
148	149	1
152	154	1
9	119	1
69	69	1
87	152	2
10	10	1
66	73	1
114	114	1
3	3	2
56	68	1
55	55	2
150	157	1
158	158	1
48	49	1
153	153	2
120	134	1
113	114	1
91	134	1
17	17	2
36	43	1
1	2	1
85	85	2
95	110	2
43	43	1
156	156	1
94	154	2
53	53	1
89	112	1
107	108	1
131	132	1
80	81	1
92	102	1
141	141	1
23	23	1
106	119	1
16	18	2
40	40	1
56	57	1
3	4	2
78	78	1
1	51	1
104	104	1
131	131	2
111	111	1
125	152	1
32	47	1
128	140	1
141	142	1
111	113	1
19	29	1
111	119	1
32	48	1
64	64	2
34	37	1
0	56	1
140	140	1
137	137	1
142	143	1
113	113	1
101	108	1
