71	71	6
44	44	6
94	94	5
84	84	6
10	11	3
104	104	2
85	85	7
75	75	14
61	85	2
45	49	2
64	64	12
29	41	2
73	73	14
11	11	21
95	96	4
4	4	13
6	92	5
45	45	5
34	34	3
91	91	9
73	74	1
120	120	3
10	10	12
62	62	10
63	64	2
28	29	5
18	18	12
9	17	1
45	71	3
24	25	3
36	38	2
12	57	2
55	56	5
36	36	8
94	96	3
117	120	4
70	70	9
5	5	8
105	106	1
80	80	6
111	111	1
118	118	4
31	37	2
89	89	2
86	86	9
14	15	2
128	128	7
20	21	13
102	102	5
61	62	3
46	46	7
28	28	7
130	130	11
22	22	1
9	9	12
79	79	4
122	122	3
82	84	1
68	69	1
68	68	7
87	87	5
27	93	2
14	14	4
3	3	8
69	70	1
93	93	19
102	120	2
31	31	3
8	37	2
33	33	6
39	39	1
60	60	6
81	87	4
110	110	4
47	47	16
105	105	3
3	9	1
2	2	7
90	90	3
66	66	9
129	129	3
4	5	3
74	74	6
7	7	3
8	8	7
7	8	1
104	105	4
2	19	4
67	67	4
6	83	2
15	16	9
81	82	3
82	82	6
25	26	2
84	85	4
11	12	3
65	65	10
62	76	4
76	77	1
95	95	10
76	76	10
47	77	2
63	63	8
100	100	5
24	24	3
7	21	1
93	94	1
49	49	7
67	68	3
116	119	2
26	92	6
21	41	2
6	94	1
72	72	6
43	44	2
107	107	4
104	115	3
96	96	6
37	37	3
58	59	5
110	114	1
21	37	3
100	101	1
29	29	3
91	92	5
132	133	6
5	6	3
44	45	1
82	83	4
83	83	15
28	86	4
9	36	6
6	6	4
92	92	7
33	34	1
94	95	6
43	43	4
4	98	1
23	26	1
41	41	6
0	0	3
8	9	3
58	58	4
122	124	2
78	81	1
58	79	3
21	22	1
10	20	2
35	35	5
30	30	3
76	79	1
87	88	1
109	110	1
18	19	1
56	78	2
11	15	5
116	116	5
25	25	5
12	12	6
109	109	3
12	14	1
29	49	1
85	86	2
131	131	5
123	124	3
8	36	1
90	91	1
9	10	2
75	76	2
16	16	8
42	42	1
8	16	1
48	48	3
26	37	2
29	35	1
1	58	2
20	22	3
19	19	5
41	42	6
27	27	3
36	57	2
27	39	1
77	77	3
26	26	4
97	97	2
118	119	2
93	100	3
23	23	2
83	84	2
88	93	1
13	13	5
3	5	1
61	61	2
115	119	2
111	113	2
21	39	1
81	81	5
59	62	1
55	55	2
131	132	1
25	78	1
10	19	1
38	48	1
113	113	2
56	56	3
59	60	1
17	18	4
47	60	3
106	106	1
12	13	1
38	40	1
31	81	2
125	128	2
5	14	2
6	81	1
123	126	1
38	38	4
59	59	4
100	103	1
38	85	1
99	99	3
15	15	2
121	122	4
26	38	1
46	73	2
69	69	1
17	17	6
99	101	2
6	15	3
27	35	3
59	80	2
32	32	1
16	19	2
119	119	5
3	96	1
31	32	2
123	123	2
77	78	4
32	81	1
115	115	2
78	78	2
62	74	1
22	23	1
9	37	1
22	26	1
28	80	1
121	121	2
98	99	1
62	63	1
39	40	1
112	112	3
46	62	1
36	51	1
71	72	1
104	113	1
7	75	1
101	101	3
119	121	2
47	48	1
25	47	1
89	92	1
94	99	1
32	86	1
1	11	1
10	18	1
20	84	1
68	74	1
20	36	1
15	78	1
114	115	1
38	39	1
1	1	1
33	71	1
