27	28	1
134	135	1
87	98	1
150	152	4
140	141	1
26	57	3
18	18	1
138	139	1
115	115	6
13	13	2
144	149	2
42	43	2
116	116	1
50	63	3
129	129	3
104	104	1
96	107	3
76	77	2
70	70	5
146	146	2
86	86	5
30	30	6
15	15	4
22	22	7
45	45	3
126	126	4
20	77	1
25	30	1
87	93	1
110	110	2
139	141	2
127	129	2
128	128	4
127	145	2
122	147	2
57	57	3
151	151	2
93	99	1
89	89	3
27	27	8
137	137	7
79	79	2
112	112	2
66	68	1
21	80	1
17	21	4
54	57	2
54	55	3
76	76	3
126	144	1
30	66	2
98	98	5
147	147	1
145	146	2
43	43	3
148	149	1
28	30	2
120	120	1
88	95	2
122	123	3
72	72	4
23	40	1
42	42	6
44	45	1
111	111	1
108	109	6
64	84	2
106	106	2
84	94	1
100	100	1
41	41	2
54	102	2
34	34	1
10	10	4
134	136	1
13	16	2
55	56	1
29	29	2
124	126	1
104	106	1
25	83	2
50	50	2
75	84	2
4	4	4
79	86	1
6	11	1
14	15	2
67	68	2
46	46	6
36	41	2
23	23	2
136	138	2
30	32	1
120	146	1
64	80	3
17	17	2
86	94	3
14	14	1
29	30	1
42	70	3
10	11	1
81	98	1
5	80	1
118	118	3
88	88	1
16	16	2
66	69	2
73	79	1
27	29	2
121	127	1
131	139	2
104	105	1
138	138	2
24	24	3
56	82	2
34	41	1
139	150	4
71	80	2
154	154	2
7	65	5
145	145	1
42	72	1
43	44	2
124	125	1
44	44	1
49	53	1
12	13	1
98	99	1
28	32	1
31	51	2
74	107	1
123	126	2
121	147	1
18	21	1
71	72	2
143	144	1
7	10	2
56	56	1
54	54	6
75	75	3
124	124	2
7	7	1
109	109	1
22	23	1
100	102	1
48	48	6
49	50	1
56	124	1
69	69	4
27	33	1
27	78	1
129	135	2
49	49	1
102	102	2
132	138	1
5	5	1
122	122	1
144	144	3
31	39	1
22	39	2
37	40	1
143	145	1
64	64	2
136	150	1
73	74	3
26	27	2
8	35	3
82	82	1
134	137	1
105	106	2
8	8	2
22	25	1
9	9	1
99	100	2
67	67	1
63	81	1
71	71	2
7	8	2
107	133	2
23	26	1
16	20	1
150	151	2
68	69	3
148	153	1
114	114	1
93	93	2
125	146	1
10	22	1
142	143	1
126	127	3
94	96	1
38	39	2
121	140	1
135	137	1
22	38	1
26	30	1
99	118	1
153	153	1
16	56	1
123	123	2
67	79	1
26	26	1
3	21	1
120	148	1
21	21	1
51	95	1
55	55	1
103	118	1
75	95	1
120	122	1
41	42	2
83	94	2
49	51	1
135	136	1
6	15	1
20	20	1
113	114	1
6	6	1
81	82	1
149	149	1
53	55	1
110	112	1
7	35	1
84	84	1
