78	90	3
155	155	6
109	114	1
106	106	10
98	98	21
86	104	1
152	152	5
81	81	3
39	39	5
3	3	10
97	97	7
2	6	3
25	151	3
83	83	6
135	135	12
71	72	1
50	50	9
87	104	1
129	129	16
104	105	7
100	128	2
150	150	13
66	66	15
87	88	6
32	32	15
7	8	12
2	43	3
55	55	13
103	103	9
77	77	12
137	138	7
34	34	10
127	127	6
32	33	5
23	27	2
20	21	2
12	12	4
63	63	5
27	28	10
131	131	25
123	123	10
71	71	4
115	115	9
18	18	10
116	118	1
84	85	4
124	125	5
147	147	5
25	25	19
16	16	10
75	130	5
55	72	2
51	51	10
82	82	3
92	92	8
79	96	4
78	79	9
50	53	1
47	47	13
5	6	4
79	87	1
78	91	1
21	22	2
45	45	6
134	134	22
49	49	4
73	73	14
124	124	9
98	99	1
83	84	6
128	128	10
43	139	1
19	127	1
118	118	11
7	7	15
130	130	14
1	1	9
125	125	13
158	159	4
8	9	3
130	158	7
157	158	6
33	33	9
20	97	4
110	110	7
101	116	2
48	49	7
16	17	5
75	75	17
121	121	4
4	127	2
54	66	2
138	138	9
120	156	1
103	104	3
118	124	2
116	121	3
111	111	31
133	133	8
122	123	4
69	70	9
15	16	6
0	0	21
85	104	2
158	158	19
40	43	1
30	30	16
56	72	1
136	137	1
76	76	3
35	38	9
48	50	4
140	140	11
96	96	6
19	19	9
52	52	4
120	120	9
93	93	26
8	8	24
36	36	13
137	137	8
121	122	2
132	132	10
108	108	4
38	68	4
95	95	7
96	97	10
111	113	2
131	141	3
77	98	1
31	154	2
42	47	2
18	26	2
107	107	17
154	154	5
149	150	2
152	156	1
150	152	1
139	139	6
32	156	3
76	104	3
82	83	4
22	22	9
144	145	2
21	21	5
86	103	4
23	24	7
83	86	3
43	43	11
54	54	8
30	156	6
90	90	21
24	150	2
97	98	3
87	98	2
4	4	6
37	38	3
38	88	3
157	157	13
38	42	1
145	145	8
24	25	1
104	104	10
132	142	2
44	44	21
32	149	4
127	128	1
94	101	1
146	146	5
117	117	14
138	140	1
70	71	1
23	23	5
87	87	4
148	149	1
18	46	3
119	119	3
100	101	4
116	117	5
92	95	3
89	91	2
139	140	7
37	37	3
81	82	4
99	99	15
132	138	1
26	26	9
67	67	8
23	80	4
81	116	1
151	151	15
108	109	1
73	74	3
156	156	9
110	111	2
56	56	6
66	67	5
2	45	3
94	95	7
95	97	4
81	94	3
77	80	1
46	46	3
6	101	1
113	115	1
114	116	2
150	151	4
109	109	7
88	88	6
11	16	2
84	84	8
105	105	14
142	148	2
62	62	1
38	38	8
129	130	8
122	122	4
131	152	5
80	93	2
79	80	3
24	155	4
135	139	3
35	43	4
27	27	6
153	154	4
27	152	2
80	81	7
83	109	1
103	105	4
6	6	18
9	17	4
28	31	2
80	80	15
26	28	1
36	55	1
79	83	2
8	17	3
136	136	4
2	3	2
32	144	2
142	142	9
114	114	10
119	148	4
13	13	10
127	141	3
42	43	3
130	156	2
141	141	4
4	6	4
78	78	4
28	28	17
38	39	2
22	23	6
130	131	6
41	42	4
72	72	5
102	121	2
148	148	17
101	101	8
153	153	6
14	14	3
152	153	3
3	6	3
138	155	1
35	35	7
137	155	1
155	156	2
92	93	5
88	101	3
96	102	2
124	126	4
69	71	1
112	112	6
35	36	1
28	29	2
126	127	3
52	53	3
99	100	4
151	152	2
9	10	3
12	20	1
139	150	2
5	5	4
116	116	6
12	13	7
91	91	4
67	70	3
86	110	3
26	30	1
78	129	1
38	43	4
109	112	4
86	86	5
90	92	1
70	70	1
48	54	3
80	98	2
33	37	1
9	15	1
15	15	4
104	126	2
40	139	1
100	100	6
16	20	3
30	144	1
140	154	1
65	65	7
9	14	3
2	2	9
15	36	1
29	29	3
123	125	1
85	105	1
27	156	1
135	136	8
89	90	2
120	122	2
11	11	2
67	68	2
9	9	3
113	113	4
80	130	2
25	27	1
88	115	1
77	78	2
44	45	4
129	158	1
33	34	5
39	40	2
24	75	1
3	27	3
10	10	3
3	35	2
133	134	2
141	147	2
143	150	2
89	89	3
61	61	3
89	103	1
1	2	3
50	54	1
90	91	1
24	24	8
126	126	2
69	69	9
113	114	3
76	77	1
147	152	3
64	64	4
46	159	1
117	118	2
43	47	3
129	139	2
119	120	5
26	29	3
138	139	3
83	92	1
48	48	5
53	54	1
149	149	5
94	97	2
57	57	1
86	93	2
94	94	3
11	12	1
45	46	2
129	156	2
13	86	1
129	138	2
54	55	4
140	146	2
112	113	9
51	52	6
113	125	1
132	134	1
145	146	3
17	17	4
24	26	1
2	28	2
12	16	3
53	53	3
22	94	1
117	120	2
47	56	1
48	69	1
14	25	2
137	146	2
143	144	2
72	78	2
110	112	1
52	54	2
153	157	2
25	32	1
26	45	3
29	35	3
1	15	1
23	43	1
50	52	1
81	150	2
32	147	2
106	107	3
119	133	1
146	147	1
132	133	2
143	143	4
53	67	1
53	71	1
3	4	5
80	116	1
89	97	2
20	20	2
85	118	1
20	22	3
141	142	1
34	43	4
117	144	1
79	79	2
82	121	1
133	148	1
123	124	4
5	18	1
128	129	3
154	155	2
1	5	1
140	156	2
77	157	1
18	23	3
26	27	6
41	41	4
18	19	1
21	44	1
135	140	1
117	121	1
29	44	1
31	31	1
36	37	1
28	30	2
113	126	3
147	153	1
49	50	2
105	106	1
52	70	2
135	138	2
131	156	1
107	108	2
16	107	1
13	14	1
84	86	1
25	31	1
76	105	2
28	55	2
93	95	1
14	16	1
64	65	1
84	119	2
29	51	3
3	49	1
114	115	1
16	36	2
88	89	2
47	63	2
118	123	1
105	128	1
23	151	1
14	15	3
66	130	1
37	91	1
119	153	1
17	18	2
24	30	2
46	49	1
114	126	1
30	45	1
42	42	5
54	68	1
5	28	5
144	156	1
63	70	1
79	84	1
46	65	1
68	68	2
65	130	1
105	125	1
13	50	1
21	30	1
85	85	3
111	112	1
65	66	2
22	92	1
45	98	1
81	130	1
32	154	2
151	155	1
66	77	1
128	140	1
144	154	1
28	51	1
113	121	1
82	84	3
119	145	1
15	102	1
9	50	1
66	78	1
116	123	1
139	143	1
121	123	2
47	54	1
115	124	1
46	129	1
13	29	1
40	40	1
29	30	1
42	137	1
18	28	1
11	26	1
24	113	1
131	133	1
30	34	1
68	69	1
104	155	1
16	35	1
10	16	2
84	87	1
122	125	2
1	44	1
77	96	1
27	150	1
74	74	1
131	142	1
41	89	1
130	154	1
