3	85	1
60	64	9
49	49	22
10	11	6
1	1	6
7	7	6
51	52	1
51	51	21
59	64	2
21	22	7
72	74	7
58	58	5
30	30	11
59	72	2
73	74	4
62	78	3
50	50	25
77	78	3
75	75	18
56	57	5
66	80	2
55	55	16
20	22	1
78	80	4
61	61	7
67	68	3
48	49	5
69	69	19
68	69	5
17	18	1
56	56	19
47	48	3
64	64	9
54	55	6
6	9	6
66	66	12
6	50	1
55	56	4
23	66	1
74	74	18
27	27	11
47	47	6
77	77	9
16	16	5
25	27	4
25	25	10
62	63	6
85	85	4
48	48	14
23	23	19
86	87	2
79	79	9
68	68	10
61	62	11
71	71	9
23	27	8
32	62	2
6	20	9
6	53	1
8	8	11
82	83	11
67	67	16
54	54	16
19	19	12
22	24	3
63	64	6
7	9	5
66	79	1
75	79	2
53	53	9
72	80	3
50	51	5
64	79	2
16	26	1
10	20	3
81	81	12
55	62	5
29	30	2
60	61	10
54	58	2
60	75	2
15	27	1
69	70	3
3	3	30
70	70	9
81	84	3
60	65	2
9	54	1
59	62	2
17	17	17
77	82	3
56	78	3
59	61	3
60	62	5
28	28	10
12	19	2
12	12	2
81	82	4
50	61	7
11	11	10
26	26	12
5	5	10
5	55	2
48	61	1
11	12	5
52	52	6
10	12	2
1	2	4
83	83	6
84	86	5
80	81	2
62	64	2
73	73	6
88	88	3
77	79	5
76	76	9
32	33	1
15	15	6
72	72	6
55	72	2
12	20	2
57	57	8
0	0	9
49	90	1
31	31	15
13	13	7
5	77	1
4	4	6
25	26	11
52	54	2
48	50	6
66	67	2
80	80	9
49	73	3
72	73	5
78	79	2
21	28	1
22	22	1
15	16	3
87	87	2
64	65	2
24	84	2
19	20	6
10	10	12
27	28	2
2	2	8
13	79	3
55	73	3
65	65	16
89	89	5
10	19	7
76	77	5
9	9	6
24	24	9
65	66	2
84	84	15
32	32	2
82	82	13
29	29	3
52	53	3
5	27	2
21	21	3
62	62	6
86	86	6
63	76	3
78	78	7
71	73	1
53	54	6
9	11	4
7	8	3
5	8	2
9	22	2
35	35	2
59	63	1
9	10	4
20	20	8
8	64	3
48	75	1
50	52	4
20	33	4
26	60	2
59	60	6
34	34	5
6	6	2
47	50	2
77	87	1
9	46	1
5	23	5
12	14	1
11	15	2
14	14	10
24	80	2
17	61	6
51	64	3
46	47	2
56	58	1
5	24	1
48	53	2
3	84	1
64	75	3
58	59	2
17	25	4
49	61	2
59	59	4
6	54	1
5	9	5
26	27	2
46	66	1
52	55	1
88	89	1
46	46	5
86	89	2
8	9	3
17	19	5
20	23	1
17	24	1
56	71	8
79	80	7
71	72	3
68	84	2
2	3	2
25	84	1
52	64	1
52	60	1
63	63	4
51	65	1
60	60	6
18	19	3
64	66	3
30	31	3
27	80	1
85	86	2
14	19	2
16	25	1
70	71	2
22	23	2
67	69	1
3	4	2
25	83	2
84	85	2
53	65	1
7	22	1
18	18	5
64	76	1
6	19	2
10	17	2
63	65	1
57	58	2
20	21	3
77	80	5
15	61	1
17	20	1
74	75	1
55	78	1
7	10	1
70	84	1
55	65	2
75	80	1
0	2	1
61	65	1
8	77	2
46	74	3
23	28	1
66	75	2
78	82	1
84	87	1
60	76	1
22	27	1
65	76	1
79	83	1
4	21	1
61	64	1
23	24	1
21	67	1
70	80	1
13	17	1
