1	79	1
107	107	11
22	27	4
16	17	2
124	125	5
90	90	13
129	129	18
104	104	9
118	118	10
87	115	2
128	129	8
5	5	10
111	115	4
123	123	15
25	26	3
137	137	6
77	103	5
81	81	5
1	2	8
132	132	14
114	114	9
109	109	6
87	87	7
78	78	2
112	112	8
129	130	4
121	122	5
12	13	1
110	110	13
77	77	6
2	4	1
72	72	20
84	84	5
122	122	15
18	33	2
6	6	8
106	123	1
123	124	6
21	21	11
126	126	13
89	135	3
139	139	13
9	11	2
5	7	2
129	135	4
108	109	5
28	28	2
106	106	13
1	1	2
128	128	7
130	130	14
73	73	1
33	33	9
86	86	6
91	92	3
2	37	1
80	80	3
82	82	5
36	36	3
15	15	3
127	127	3
99	99	11
27	27	14
102	109	4
132	133	3
34	35	9
120	122	1
88	89	1
134	136	10
88	88	14
84	85	6
119	119	13
115	125	5
125	125	11
4	4	6
90	91	5
94	122	3
15	19	5
92	92	6
34	34	9
105	105	5
13	31	6
23	27	2
90	134	2
115	124	3
18	18	10
98	98	4
96	96	11
140	140	16
117	117	13
133	133	11
108	108	3
89	89	9
97	97	9
35	36	1
96	115	1
135	136	9
136	136	11
93	93	8
111	112	3
21	22	4
75	98	3
131	132	1
71	71	8
101	101	8
94	114	5
11	31	1
103	103	7
135	135	3
80	82	1
121	124	4
116	116	12
17	101	1
75	109	1
20	20	2
12	12	9
115	115	2
22	22	3
75	77	2
76	77	9
18	19	1
7	7	10
76	76	6
100	140	3
118	122	1
24	24	5
109	110	2
97	115	3
0	37	4
114	116	4
32	32	3
101	102	4
9	31	2
16	16	12
96	116	3
124	124	14
121	121	9
37	37	7
113	114	3
134	134	8
83	83	9
30	30	3
6	87	1
85	86	6
88	127	1
11	12	2
117	120	3
131	131	8
74	97	3
8	8	9
74	74	9
112	126	6
100	126	1
133	134	2
35	35	9
119	120	1
72	133	1
100	103	5
138	138	6
95	95	4
104	119	1
118	121	1
125	134	1
13	13	5
85	87	6
85	85	2
11	29	3
110	111	6
3	3	3
0	27	6
13	32	3
8	10	2
0	0	2
94	94	3
1	30	5
107	108	7
96	126	2
92	93	4
126	134	2
2	2	4
14	32	3
20	23	3
119	121	4
80	119	1
118	119	3
10	10	2
114	115	3
102	103	3
4	7	1
102	125	1
135	138	1
116	119	3
23	25	1
102	102	4
78	85	5
127	129	3
78	104	2
85	106	4
96	125	2
92	117	4
18	22	3
9	10	4
38	38	4
111	126	1
17	18	3
73	74	2
10	13	1
17	17	5
128	141	1
81	82	2
120	121	14
15	17	3
92	112	2
72	74	3
122	123	1
110	124	2
79	82	3
97	98	2
1	8	4
103	117	1
71	72	2
25	25	2
134	135	2
8	12	2
24	26	3
105	107	1
79	98	1
73	116	2
15	16	4
107	128	2
9	9	2
116	122	1
75	75	10
1	27	1
80	86	1
109	117	1
116	118	1
91	91	3
82	83	2
4	6	1
120	120	1
11	11	2
119	123	2
82	118	1
77	78	2
111	111	2
79	79	3
82	104	1
89	90	5
131	135	1
80	81	1
107	124	1
27	30	1
109	111	1
89	91	3
100	101	2
84	122	2
96	97	2
72	111	2
98	99	1
92	94	1
74	77	2
29	29	1
103	104	1
71	103	1
19	19	2
82	84	1
94	95	1
113	113	1
113	137	1
31	31	1
79	105	2
10	29	1
115	116	1
109	118	1
27	28	1
79	88	1
83	105	1
123	134	1
117	118	1
81	86	1
1	14	1
14	14	1
139	140	1
79	80	1
14	38	1
104	117	1
26	26	1
102	108	1
94	101	1
74	75	1
