80	81	23
24	78	13
77	77	103
82	82	71
67	107	4
58	58	46
88	88	27
7	16	3
42	42	36
20	20	91
25	93	8
121	121	37
9	9	89
124	124	55
21	42	1
117	117	32
66	83	8
84	84	91
5	5	79
113	116	16
41	43	7
111	130	3
109	132	3
76	77	25
12	12	88
31	32	38
94	94	89
45	45	120
96	97	23
74	74	91
55	130	5
9	10	17
83	83	105
71	71	48
64	64	103
92	92	67
103	125	3
113	114	12
27	27	107
75	75	93
17	18	15
14	14	60
44	44	60
83	120	5
34	82	4
5	6	32
90	91	24
94	95	49
61	71	2
36	37	27
46	46	84
60	60	60
8	47	7
63	63	75
12	46	2
76	76	62
15	15	89
39	40	33
46	47	23
11	90	7
66	66	143
25	25	107
59	59	77
77	80	6
73	73	78
90	92	17
3	102	1
29	30	28
86	86	100
94	99	10
47	47	158
74	77	5
35	35	83
37	37	64
81	81	77
41	42	54
38	38	61
79	79	91
27	93	5
80	80	55
95	97	8
60	112	1
114	114	48
70	76	5
8	8	102
132	132	45
60	87	13
118	118	73
6	6	98
33	34	28
90	90	108
23	24	42
112	112	27
131	131	25
6	83	8
13	13	70
10	14	4
36	36	56
101	101	67
9	65	3
35	59	8
22	26	8
120	120	40
26	48	12
24	42	2
6	93	7
78	79	37
82	83	40
99	99	51
34	34	92
39	56	10
81	84	13
103	103	33
104	104	42
36	40	4
72	72	95
28	28	88
87	88	38
48	48	95
105	123	2
65	74	2
42	45	3
30	30	65
79	81	17
4	5	29
24	24	66
32	38	5
104	105	21
20	73	9
46	61	12
4	6	11
118	119	6
7	7	117
111	111	41
49	49	36
26	26	186
82	94	2
2	2	46
18	18	52
108	132	7
12	14	4
19	42	2
57	57	74
1	1	33
33	33	101
31	45	2
11	11	150
21	29	1
26	90	7
62	62	75
98	101	6
123	123	44
4	13	4
25	48	3
29	29	107
70	70	63
19	19	71
15	78	4
22	83	6
61	61	84
84	85	30
93	93	76
101	106	2
65	65	109
77	113	1
18	37	6
96	96	67
37	107	2
119	123	4
17	17	76
130	130	33
49	50	6
78	78	69
95	128	11
104	111	6
119	119	45
36	39	18
68	68	80
88	103	3
56	81	8
6	26	5
133	133	32
15	16	38
31	31	74
97	98	15
91	113	2
95	96	25
121	123	3
83	125	4
32	61	3
29	49	22
73	85	2
24	25	11
28	31	1
27	90	6
115	132	7
45	46	20
81	82	45
6	7	11
134	134	46
113	126	3
32	32	87
62	64	6
99	105	8
123	124	36
34	48	5
31	33	5
10	121	2
101	131	10
113	113	44
110	111	16
45	75	6
8	71	3
15	17	4
11	61	2
125	126	20
67	67	74
4	4	64
118	128	11
3	4	13
58	81	6
56	56	63
87	87	72
55	56	33
79	94	5
39	39	44
102	103	6
48	82	3
47	57	1
69	69	59
62	63	11
73	77	7
3	3	63
98	98	60
38	56	3
13	14	17
94	113	3
56	115	5
122	124	4
78	111	8
40	40	55
14	31	2
125	125	47
23	23	22
111	114	3
21	21	66
47	75	4
10	11	29
22	50	1
33	57	1
19	32	1
43	47	4
100	100	76
72	103	3
57	60	8
102	102	58
98	128	3
118	126	3
17	20	8
33	105	2
127	128	7
84	99	1
29	96	4
30	49	6
56	84	4
18	57	4
122	122	50
108	134	2
36	38	17
28	84	4
25	27	8
85	85	85
48	49	12
3	124	4
122	125	6
95	95	64
119	133	4
107	115	9
85	86	18
18	19	10
91	92	28
5	101	3
116	118	4
92	107	3
35	100	4
58	95	3
30	39	5
34	35	14
79	80	66
57	58	26
26	93	15
97	97	58
13	15	1
31	79	6
11	80	4
47	48	30
65	73	6
105	106	17
35	36	14
25	47	8
10	10	79
22	36	5
72	120	3
22	41	3
96	100	1
11	21	7
126	126	51
97	99	13
72	73	30
98	99	19
110	122	2
39	82	5
8	9	14
28	97	13
75	76	21
30	46	5
129	129	46
20	101	3
93	99	3
126	129	7
95	99	6
20	24	6
19	22	4
92	129	8
28	29	24
16	16	55
75	121	3
82	84	21
107	131	2
129	132	2
68	70	7
101	107	8
30	79	3
14	25	3
27	79	7
26	27	31
41	41	48
124	125	11
91	91	81
86	107	3
121	122	8
43	43	46
109	109	45
14	33	7
37	38	36
116	116	45
15	31	4
22	22	35
119	124	4
7	13	1
27	28	31
2	11	2
78	93	3
46	63	4
67	68	5
92	94	2
86	101	6
91	115	3
29	32	13
33	46	6
125	127	3
92	93	28
8	94	1
16	93	6
24	81	3
106	106	40
126	130	7
30	48	3
29	38	6
93	94	24
127	127	26
85	93	4
19	20	14
19	33	3
40	41	25
55	69	2
45	47	5
45	72	2
111	112	10
43	85	2
100	101	22
22	25	5
12	13	13
35	90	2
85	107	2
78	132	2
19	69	1
2	3	9
28	98	2
57	116	2
81	101	1
9	17	8
105	105	30
104	106	5
107	107	29
74	75	13
16	17	8
130	131	13
64	118	1
83	84	19
99	100	29
124	128	5
103	106	5
59	60	7
101	102	14
26	80	6
37	81	2
95	122	1
102	131	3
114	116	12
33	102	3
85	114	3
12	69	1
4	108	2
44	103	5
39	42	2
128	128	54
78	83	4
47	94	2
87	100	6
15	77	3
56	57	14
96	98	6
78	109	3
20	22	12
61	62	15
25	45	2
77	78	30
78	81	8
13	20	5
12	20	11
32	33	19
28	85	1
0	0	21
13	23	4
44	45	21
100	113	1
56	122	5
21	30	1
75	78	3
21	80	5
72	75	4
10	66	5
79	101	1
68	71	4
73	75	8
108	108	46
32	37	3
100	106	3
12	17	2
30	31	24
45	89	7
39	43	2
66	104	2
45	49	2
27	80	3
37	56	2
78	80	17
28	48	1
49	84	3
80	82	7
27	29	9
28	78	2
35	106	1
13	42	1
31	39	3
48	98	2
36	47	4
3	48	3
47	62	1
107	112	2
76	78	2
11	93	14
18	79	2
106	115	3
16	78	2
61	75	8
69	74	2
11	44	1
70	71	11
4	59	2
78	115	2
21	24	5
12	109	3
11	13	8
49	60	2
6	101	1
27	30	4
28	96	5
37	41	1
31	37	4
69	70	12
95	98	8
21	87	1
2	128	7
88	96	4
8	14	2
7	8	13
40	82	1
108	109	16
109	110	11
11	107	1
21	22	12
51	56	4
106	126	4
23	39	3
62	93	4
110	110	38
91	94	10
115	115	29
11	26	6
10	13	1
82	93	1
37	45	1
29	48	13
63	76	2
7	11	3
81	96	1
98	100	2
20	79	4
116	130	2
31	78	4
37	85	1
57	63	6
21	100	4
30	37	6
14	15	14
13	92	2
38	81	8
94	98	6
37	59	1
5	26	4
14	38	2
17	39	6
85	101	1
73	80	1
105	107	5
15	38	2
44	70	1
113	115	6
4	11	2
125	133	5
23	25	8
89	90	11
89	108	1
42	43	11
84	95	1
1	6	2
94	97	1
55	55	41
75	77	2
20	77	5
90	97	6
102	109	3
40	43	6
110	112	3
108	111	1
8	36	7
58	90	3
73	74	22
12	42	3
9	37	2
31	40	2
112	113	15
38	40	6
14	16	4
38	57	3
30	60	6
16	21	7
49	51	2
54	54	1
90	116	4
16	32	1
90	95	13
28	80	7
11	27	3
63	71	1
61	72	7
28	45	1
27	48	8
21	45	1
90	109	1
17	34	6
61	63	8
5	99	5
20	43	1
93	100	4
82	92	2
23	41	1
100	118	3
106	107	9
8	35	4
64	77	3
90	96	3
66	67	16
25	28	2
47	61	2
22	35	3
83	85	15
22	77	1
104	107	1
94	100	6
29	93	6
31	129	4
17	49	4
57	91	2
8	93	6
26	49	3
64	66	1
0	13	4
86	90	4
3	34	1
23	38	2
103	107	5
26	35	3
17	73	6
46	76	5
117	130	7
4	24	2
71	72	13
10	84	2
103	104	13
126	127	12
80	126	2
36	101	2
81	85	3
19	40	3
21	60	5
95	129	5
88	95	2
89	89	17
88	89	20
81	83	5
4	29	1
14	61	6
19	41	4
93	95	10
56	58	3
36	80	1
16	42	3
116	117	7
127	129	5
74	76	4
12	31	4
18	72	1
101	104	3
29	47	9
66	124	4
2	82	3
26	82	4
66	74	2
8	10	11
109	111	3
11	29	8
115	119	1
16	79	3
5	90	1
33	47	1
93	98	7
120	122	3
49	81	2
59	83	2
6	38	10
33	77	6
91	96	1
121	125	5
31	38	2
32	120	3
110	132	1
37	77	3
29	60	3
80	88	5
26	33	2
120	125	3
84	104	2
8	12	9
131	132	17
83	86	3
107	108	14
113	122	2
30	41	3
68	69	13
13	124	2
20	21	22
26	30	3
65	66	10
22	100	2
40	72	2
111	113	12
12	72	2
84	134	2
32	124	1
72	97	2
128	134	2
14	74	3
64	65	9
14	21	3
70	72	2
69	77	4
63	77	5
11	76	4
44	116	2
57	62	1
129	134	2
114	115	11
13	93	3
18	39	2
21	48	2
36	79	5
44	47	4
63	72	1
62	75	2
56	85	6
3	17	5
49	78	3
7	27	2
28	94	1
4	48	2
57	105	2
3	27	1
130	133	6
21	56	6
87	89	1
126	134	5
43	56	5
48	106	3
61	103	3
82	99	2
73	86	3
103	117	2
56	88	1
102	104	6
4	101	4
94	109	4
40	42	8
43	90	5
18	47	3
97	127	4
37	39	3
35	68	8
64	123	3
36	78	3
11	14	9
11	12	9
15	79	6
34	70	1
15	113	3
24	82	4
6	27	6
20	93	5
17	43	1
44	74	6
15	60	6
69	73	5
126	133	4
6	25	1
122	130	1
128	130	5
83	98	2
37	40	5
94	129	6
35	43	4
25	81	6
26	47	7
61	73	4
48	94	2
28	49	2
12	58	4
51	51	4
85	122	4
60	61	4
22	24	2
11	79	4
87	134	1
43	58	2
59	77	3
129	133	5
4	19	6
6	16	5
11	73	1
30	32	3
8	97	2
56	60	5
4	88	2
37	55	3
30	131	2
97	101	4
15	127	4
90	131	4
56	93	2
20	78	2
8	17	4
9	14	3
7	93	5
68	119	2
49	93	1
3	19	2
132	133	11
88	134	6
81	97	3
92	127	2
40	48	3
92	96	1
32	102	1
14	77	1
8	11	3
25	30	1
91	97	8
36	102	1
23	26	7
7	42	3
65	83	2
55	91	5
59	102	1
27	77	5
101	128	2
48	61	4
32	77	6
24	83	3
129	130	2
29	84	1
86	113	2
11	101	3
29	31	8
86	87	4
63	66	4
15	23	5
9	11	3
20	100	3
14	30	1
32	83	4
3	64	3
1	116	2
13	47	2
25	78	2
83	109	3
55	134	4
32	59	1
23	37	3
61	129	2
37	80	2
112	115	3
23	77	3
59	123	1
42	55	4
14	19	2
10	74	1
33	72	1
38	39	11
111	125	3
85	87	5
22	23	4
62	66	1
79	111	5
60	134	2
126	128	2
18	23	5
67	69	2
115	133	3
62	82	2
13	26	1
106	130	4
57	90	1
119	120	7
58	63	2
49	103	1
61	109	3
11	62	3
41	57	3
7	43	3
26	79	2
21	79	4
63	64	7
88	99	3
11	49	4
33	80	4
72	74	1
35	47	3
33	39	2
58	82	1
47	90	1
78	82	5
128	129	7
13	131	2
91	95	10
36	43	2
99	101	5
86	88	2
114	119	4
15	99	4
47	93	2
47	59	1
87	118	1
89	132	1
83	91	3
105	126	3
25	77	4
5	30	5
113	130	1
58	61	3
42	65	2
117	118	3
64	74	2
35	42	3
102	116	1
58	60	3
63	86	1
17	86	4
93	129	2
5	11	2
33	49	2
49	96	2
7	97	3
65	68	1
101	117	1
47	77	2
5	8	3
11	48	2
20	38	3
27	78	3
16	28	2
44	77	1
61	77	2
45	64	8
3	101	1
5	84	2
11	92	2
9	123	2
23	28	1
76	80	1
18	125	5
91	93	8
0	10	1
69	121	1
25	49	2
62	85	2
47	112	2
42	74	1
48	83	1
38	55	2
114	126	1
10	82	1
20	61	5
97	100	4
60	84	1
54	55	7
70	74	3
67	132	3
50	50	13
15	29	5
12	107	1
11	117	4
51	55	4
9	73	3
4	22	2
41	49	6
34	69	2
0	1	8
133	134	6
70	111	1
31	36	2
39	83	2
95	102	1
6	30	2
48	56	2
87	128	2
78	101	2
79	97	2
105	108	7
48	77	4
108	110	3
48	81	3
6	60	3
115	116	14
5	45	4
69	71	6
34	60	2
37	69	2
57	133	5
21	84	3
16	23	1
83	88	2
63	68	3
101	134	3
117	125	4
107	110	1
125	130	1
4	58	5
117	119	1
14	93	2
123	129	4
36	42	4
100	128	4
122	123	6
68	72	4
25	26	22
7	44	4
3	29	1
130	132	6
22	31	1
5	93	1
26	29	3
58	111	4
127	132	5
120	121	9
114	132	3
35	76	1
27	91	2
118	124	5
27	47	2
17	76	1
47	82	4
88	112	1
2	102	1
57	59	7
38	43	2
4	55	2
64	72	2
70	117	1
24	99	2
40	55	1
38	49	4
90	94	4
117	120	2
43	48	4
41	51	3
79	90	3
44	84	2
21	31	2
4	34	1
20	58	1
21	23	1
0	34	2
127	130	2
30	132	3
13	77	1
17	35	2
29	56	1
85	90	2
92	132	3
113	121	3
6	45	2
55	97	3
112	114	1
10	25	1
95	127	3
39	81	5
1	3	2
61	125	1
61	76	2
24	41	2
58	116	1
13	86	1
48	88	2
6	65	1
102	110	6
114	131	1
24	74	2
9	72	2
6	48	4
27	92	5
70	83	1
1	2	1
14	32	6
84	87	4
91	99	2
66	75	1
34	61	1
84	133	2
114	121	2
94	102	5
3	94	1
4	21	1
25	100	1
67	70	2
120	123	1
20	44	1
28	91	4
22	101	2
19	100	1
15	74	7
84	107	3
5	55	2
63	75	1
87	114	2
45	65	1
32	122	2
116	120	2
35	99	1
4	103	2
10	36	1
31	94	1
113	134	3
42	91	2
46	60	2
61	100	4
20	109	2
43	44	5
81	111	1
55	123	3
131	133	3
77	116	2
18	77	2
58	59	5
21	81	6
18	42	5
105	134	4
117	126	3
34	37	1
55	81	5
11	40	1
19	43	2
24	76	4
43	98	1
18	22	2
27	98	4
122	127	1
123	127	2
85	116	2
79	122	3
29	41	2
25	80	7
100	102	4
23	36	1
94	96	4
16	40	2
60	133	1
69	120	2
15	20	4
13	99	2
88	91	1
17	42	1
72	79	2
20	26	1
71	73	1
17	36	1
58	134	2
1	11	1
90	98	4
27	56	3
81	93	3
38	82	6
46	62	2
48	93	6
13	27	1
23	79	1
49	101	7
29	58	7
77	82	1
17	47	1
56	67	1
63	74	2
47	100	2
35	41	1
28	32	7
27	83	2
60	63	5
29	131	2
35	40	1
64	113	1
56	106	1
47	85	1
17	28	3
4	20	1
34	74	6
16	132	2
60	120	3
80	83	2
22	37	7
24	60	1
9	76	3
89	112	3
19	34	2
45	91	3
115	130	2
4	8	1
116	131	2
74	122	1
8	68	1
4	46	1
10	41	2
61	87	1
9	35	1
78	134	2
66	126	2
57	82	1
92	115	3
102	120	3
33	36	6
8	18	1
58	62	3
34	86	1
35	38	1
19	72	5
45	74	1
69	108	2
31	47	1
88	133	2
45	63	1
57	93	2
21	49	2
19	30	2
20	25	1
24	26	3
31	128	1
17	56	2
23	104	1
20	83	2
12	93	2
84	106	1
43	84	1
43	105	3
44	90	3
8	16	1
2	134	1
89	91	2
12	27	1
89	93	1
7	45	1
44	115	1
46	131	2
32	43	3
3	18	1
5	56	5
17	65	1
24	57	1
61	86	2
11	60	1
33	111	1
83	94	1
23	29	1
22	115	1
26	46	3
12	21	2
37	115	3
46	91	1
4	93	1
63	116	1
15	82	2
3	41	3
90	93	2
49	86	2
72	77	1
5	36	1
18	75	1
115	127	2
25	82	4
35	75	2
108	128	2
17	23	1
10	123	1
51	130	1
57	84	1
54	56	3
46	72	1
44	75	3
77	79	1
87	113	2
62	102	1
98	115	1
9	46	3
87	133	3
62	67	2
9	29	1
21	93	2
3	87	1
13	45	1
95	108	2
16	24	3
9	61	1
72	101	1
12	30	2
24	79	1
46	74	2
30	43	1
56	79	1
27	31	1
4	9	1
80	90	2
68	78	2
38	88	2
60	71	2
45	62	1
47	86	2
22	74	2
13	70	1
32	82	2
22	48	1
61	98	4
10	32	1
16	20	1
22	38	1
27	84	3
132	134	4
46	67	3
62	95	2
111	134	1
8	74	1
35	45	1
14	42	3
26	118	1
13	34	1
95	106	1
0	107	2
24	32	1
37	42	1
63	70	2
3	90	1
16	68	2
38	106	1
20	40	1
77	110	3
9	12	1
21	28	2
39	78	1
8	76	3
59	65	1
105	129	2
72	83	2
9	82	3
41	100	1
92	109	2
17	129	1
4	45	2
100	115	1
72	124	1
84	109	2
15	19	1
87	112	1
26	28	3
94	108	1
93	97	3
3	47	2
88	101	3
123	130	2
6	90	2
116	134	1
39	62	2
57	131	2
46	71	2
21	92	1
13	46	1
7	96	3
11	87	1
27	36	2
33	43	4
18	61	3
28	79	3
6	47	1
77	123	1
32	99	2
11	15	2
70	73	2
73	110	3
49	56	1
88	123	2
82	85	7
38	115	4
84	93	1
92	134	1
2	6	2
100	125	2
27	62	1
7	90	1
9	36	3
8	43	1
5	100	2
37	114	1
4	49	1
114	130	1
30	61	1
107	113	2
9	18	1
25	44	2
31	114	1
44	105	1
38	122	1
29	107	3
17	44	1
76	116	1
43	45	1
0	35	2
76	108	3
51	58	1
119	127	1
71	76	1
29	90	1
11	45	3
82	87	2
34	46	6
37	43	1
7	10	1
90	133	3
60	79	1
9	77	1
12	123	1
20	115	1
39	51	2
102	105	2
114	120	1
57	78	2
85	133	1
40	79	1
98	117	1
8	28	1
46	94	2
33	76	1
10	28	1
91	121	1
10	21	3
57	81	2
114	133	1
10	26	1
12	44	1
45	117	1
107	109	2
11	72	1
10	70	2
92	98	1
7	80	1
101	103	2
64	70	1
26	85	1
0	118	1
10	42	3
28	33	1
14	20	2
12	26	1
24	126	1
100	127	2
62	74	1
15	18	1
7	56	1
35	61	1
74	117	1
58	93	1
28	76	1
35	63	1
66	71	2
45	82	1
11	108	1
40	56	1
8	25	1
101	108	1
9	32	2
33	61	1
29	94	1
74	102	2
7	21	3
63	78	1
127	131	2
123	128	2
36	77	1
87	94	2
31	98	1
33	65	1
84	96	1
13	44	2
79	82	1
18	100	1
26	81	1
25	126	1
57	83	3
1	102	1
28	90	1
48	50	1
36	55	1
94	110	1
49	66	1
12	82	1
64	94	2
123	125	2
59	119	1
65	67	1
47	49	1
87	130	2
32	108	2
96	125	1
27	32	1
42	102	1
94	126	1
8	27	1
106	108	2
60	69	1
45	61	1
89	94	1
14	27	1
126	132	2
63	65	1
6	11	2
5	39	1
35	87	1
59	133	1
64	111	1
35	58	1
26	83	1
6	94	2
17	45	1
64	124	1
89	92	1
20	104	1
16	77	1
5	46	1
35	117	1
79	85	1
87	97	1
16	22	1
18	44	1
110	125	1
3	121	1
5	7	1
91	111	2
92	102	1
35	77	4
2	86	1
130	134	1
60	78	2
56	92	1
2	27	1
10	85	2
72	112	1
6	8	1
81	99	1
125	128	1
107	121	1
47	56	1
4	16	2
62	71	1
14	80	1
43	49	1
108	125	1
39	80	2
50	97	2
3	67	1
10	34	1
109	126	1
37	84	1
50	101	1
4	86	2
83	114	1
28	77	1
32	39	2
56	133	1
27	49	1
18	78	2
16	85	2
19	35	1
20	84	1
15	30	1
26	88	1
19	113	1
22	49	1
90	102	1
89	99	1
44	109	1
39	59	1
76	96	1
6	12	2
9	13	1
118	123	1
74	103	1
93	96	1
12	95	1
7	85	1
31	49	1
93	102	1
45	69	1
64	116	1
16	102	1
88	90	3
115	121	1
107	130	1
48	57	1
2	112	1
99	115	1
32	81	1
35	74	1
49	102	1
115	120	1
17	90	1
90	114	1
45	101	1
78	94	1
91	98	1
33	75	1
7	91	1
24	28	1
88	93	1
92	114	1
11	91	1
5	87	1
43	51	1
59	131	1
6	96	1
31	34	1
48	58	1
39	41	1
4	62	1
61	64	1
12	45	1
