67	67	10
98	98	7
42	44	2
64	90	4
22	41	1
52	52	15
50	50	18
22	25	12
77	77	18
42	42	4
93	93	11
67	79	3
113	114	1
43	43	19
30	30	14
33	71	3
40	40	10
106	106	7
72	109	7
98	101	2
22	22	7
79	79	13
28	37	6
64	64	9
38	38	13
71	71	9
58	59	12
25	25	4
30	61	10
88	88	18
86	91	3
102	102	16
53	53	13
29	29	6
99	101	1
48	49	5
37	40	2
29	42	2
57	107	2
112	112	7
112	113	2
44	44	10
25	28	3
78	78	11
109	109	17
99	100	8
102	103	8
81	81	7
79	97	2
60	60	13
52	110	1
63	63	5
91	91	3
108	108	10
37	37	12
87	87	6
43	44	5
97	97	5
56	56	6
103	104	3
66	67	2
64	65	8
39	74	4
34	34	7
58	104	1
45	68	2
69	70	19
34	79	1
105	105	10
95	96	4
89	91	3
38	109	3
95	102	3
53	108	3
57	57	11
26	114	5
32	60	1
38	80	3
110	110	3
107	107	3
33	33	9
27	103	2
30	32	5
53	59	2
89	89	8
31	32	5
95	95	9
55	55	9
103	103	3
60	66	2
78	79	11
88	89	11
99	99	13
29	52	7
74	74	9
49	50	5
48	67	2
19	20	4
75	76	4
76	77	8
20	62	7
54	107	1
100	100	8
111	111	9
80	86	7
84	100	3
104	105	2
80	80	10
48	48	8
90	90	10
72	72	11
105	108	1
57	94	6
104	104	8
54	54	2
101	101	12
40	73	4
27	52	5
86	95	2
39	39	7
20	20	7
113	113	6
76	78	1
28	30	5
46	83	1
61	63	2
24	24	7
59	104	5
39	73	4
28	114	5
47	47	12
82	84	8
49	49	4
93	108	4
96	98	3
27	28	5
54	57	2
62	76	2
90	96	1
36	41	2
39	40	5
26	26	3
35	35	8
87	89	1
29	51	2
92	101	1
45	45	8
86	92	2
85	86	4
71	86	9
69	69	5
21	22	2
46	46	8
79	105	4
28	28	5
19	42	3
21	36	3
66	66	7
61	62	1
36	36	8
106	107	5
21	113	1
30	48	5
70	70	9
55	103	5
92	92	17
86	109	4
54	55	1
69	78	1
46	47	2
58	58	4
50	51	5
83	84	8
23	112	1
60	67	2
28	29	8
41	44	2
103	108	4
21	52	3
21	44	2
104	107	2
61	61	3
36	37	3
62	62	5
64	89	6
27	76	1
71	92	2
71	94	4
70	71	3
68	69	7
94	95	2
105	112	2
47	57	2
104	106	1
39	75	3
46	102	2
58	97	1
83	83	3
90	91	3
102	104	2
107	108	3
78	85	3
73	115	1
65	79	6
22	112	1
82	100	3
86	86	2
91	94	2
94	101	2
33	34	2
25	26	4
105	106	7
34	35	3
31	31	5
75	75	5
70	85	2
38	39	5
31	42	8
25	71	1
30	31	2
59	107	3
94	105	3
23	23	9
71	73	1
78	81	1
76	108	2
59	98	1
88	90	2
100	101	2
54	104	3
54	58	2
55	58	5
28	66	1
56	110	2
88	96	2
40	41	2
65	67	2
26	111	2
80	95	3
21	21	6
89	90	4
103	105	3
59	59	2
98	102	1
51	51	5
87	88	2
54	108	1
88	110	2
72	110	2
65	65	8
81	82	1
30	41	2
22	89	1
76	110	3
31	59	2
55	56	3
23	111	3
29	37	1
57	85	1
59	85	1
46	60	1
66	79	1
73	73	3
97	103	1
27	30	1
41	41	4
88	91	3
23	24	3
60	68	2
85	85	4
66	68	2
58	99	1
28	105	1
44	45	1
93	107	1
76	76	2
97	101	3
32	33	2
22	42	4
94	94	1
86	87	1
22	24	1
20	41	2
97	104	1
75	77	1
96	96	2
32	32	3
19	19	2
73	75	3
62	77	2
26	66	2
86	90	1
81	109	1
58	107	1
114	114	2
34	36	2
34	80	1
62	64	3
29	61	1
56	108	2
97	98	1
29	44	2
73	86	2
68	68	2
74	76	1
111	112	2
84	84	3
20	21	4
21	114	1
22	23	2
72	108	1
54	78	1
68	70	1
101	102	1
84	85	1
37	38	1
36	51	1
46	99	1
26	27	1
85	108	1
22	113	2
53	107	1
35	74	1
34	81	1
28	111	1
26	89	1
31	60	1
46	59	1
