52	53	9
132	132	25
148	148	47
134	134	38
116	116	18
162	162	18
175	175	11
133	133	38
172	176	11
1	1	29
103	106	6
145	145	44
156	156	26
43	44	43
28	28	58
143	145	7
25	29	1
28	118	6
83	83	21
15	15	62
176	178	1
160	161	14
68	68	28
93	93	44
139	140	16
16	19	3
12	13	34
22	22	39
88	120	4
36	36	83
67	67	31
110	110	40
180	180	13
154	154	33
8	37	1
103	105	25
81	109	8
164	166	6
172	172	36
13	13	45
167	170	2
30	30	60
10	10	65
146	146	20
59	59	42
10	14	7
104	106	6
173	174	13
45	45	30
115	115	26
18	35	2
87	87	41
139	139	57
2	2	43
131	131	50
4	6	8
129	130	21
83	97	3
95	95	48
163	164	18
125	161	1
9	15	4
135	135	32
32	32	43
83	84	7
152	154	2
50	50	20
18	19	20
17	17	34
143	143	35
151	153	7
88	89	11
168	168	56
19	19	31
33	33	55
11	13	4
39	39	55
113	113	27
2	3	25
142	142	34
37	37	47
112	113	3
138	139	17
35	38	5
29	29	40
174	174	31
24	24	40
126	126	26
40	40	50
14	15	13
165	165	36
156	157	5
132	140	1
23	23	24
31	32	8
173	173	27
28	30	12
8	9	20
147	147	41
64	77	2
110	127	2
121	121	25
60	61	7
79	109	2
77	78	4
112	112	38
25	25	32
6	6	31
176	176	27
105	105	15
118	118	29
76	76	22
65	80	1
117	120	2
38	38	64
92	92	30
137	137	50
78	79	15
72	72	36
72	73	11
84	84	11
115	118	5
41	41	32
44	44	32
149	149	62
138	138	36
81	82	11
58	59	11
37	38	23
124	124	41
122	122	36
31	31	34
5	5	27
119	120	19
27	28	13
171	171	37
114	114	18
119	126	3
96	96	35
172	173	14
91	142	1
66	68	6
179	179	31
166	166	19
77	77	28
85	85	21
8	8	30
11	11	38
15	18	3
82	82	21
93	94	26
50	51	11
71	71	31
54	54	20
61	61	32
91	91	20
91	93	5
18	20	12
3	3	49
9	10	24
0	0	18
32	33	10
1	3	5
178	178	30
57	57	17
78	78	18
141	141	41
126	127	9
24	27	4
161	161	18
153	153	27
165	167	12
158	158	46
17	19	6
97	97	15
88	88	13
60	60	22
40	41	13
134	135	14
157	158	10
74	74	15
14	31	2
137	138	14
75	75	19
20	20	39
26	28	6
27	27	20
43	43	37
167	167	36
30	67	2
159	159	17
163	165	1
44	45	6
64	64	23
29	31	10
6	36	7
10	11	11
55	55	33
133	180	4
9	9	38
138	172	2
75	76	13
106	106	13
81	90	3
110	111	9
115	116	4
19	26	9
6	38	6
86	86	17
123	123	16
140	140	38
21	22	8
57	140	2
144	145	5
120	121	6
18	21	7
35	35	29
170	170	21
30	31	9
119	152	2
140	150	5
64	79	5
94	94	35
90	90	44
102	102	28
3	4	27
19	24	2
162	163	8
20	25	1
56	56	23
104	104	23
152	155	2
140	141	9
80	81	13
97	98	9
171	172	18
118	121	4
82	83	6
42	42	29
24	26	8
100	101	10
144	153	8
119	128	1
76	77	13
152	153	10
169	170	7
24	25	26
4	4	35
1	2	8
16	51	7
11	12	17
8	38	2
178	179	7
12	12	40
170	171	10
65	65	38
18	18	38
11	51	5
29	30	3
79	79	15
73	73	34
107	110	9
28	29	17
5	28	4
15	16	18
11	14	3
19	20	16
107	107	8
89	89	30
142	143	13
53	53	20
119	150	3
80	80	34
94	114	2
81	81	21
52	52	26
161	162	9
16	17	12
51	51	16
62	62	12
108	108	9
167	169	1
6	7	18
14	33	2
96	127	1
10	23	2
83	109	1
117	117	22
106	107	14
101	101	18
96	102	3
66	66	17
132	134	3
3	8	3
150	150	35
134	150	2
11	21	9
155	155	6
113	117	1
85	100	3
90	120	3
22	24	4
117	151	1
15	17	2
72	77	2
148	150	1
53	54	11
56	57	10
89	120	1
121	123	12
84	122	1
79	80	9
59	60	15
62	63	5
5	6	29
125	125	36
173	177	2
23	24	14
109	109	17
116	117	21
82	90	4
23	25	7
20	23	4
21	21	17
21	23	3
123	125	10
120	120	24
86	87	6
163	171	5
90	93	4
16	20	5
133	136	3
128	129	7
107	109	12
60	93	5
119	121	6
58	58	30
117	118	14
165	166	14
153	154	7
84	85	15
121	122	6
161	170	3
116	119	2
33	35	7
124	125	8
26	26	27
96	97	11
124	127	3
84	90	1
111	111	31
157	157	17
63	63	33
38	39	12
151	161	1
3	5	2
35	39	4
93	108	2
7	8	5
98	102	6
153	178	4
16	31	2
14	14	30
54	82	1
154	156	13
174	176	6
64	75	2
62	66	4
12	20	1
179	180	6
87	88	5
118	119	5
118	120	9
104	105	9
54	79	2
135	137	3
9	20	5
109	110	7
133	134	6
4	5	13
2	7	3
176	177	6
160	169	6
94	95	8
63	64	2
150	153	3
96	99	3
95	96	9
16	16	22
91	92	6
151	152	7
57	59	6
136	136	28
165	170	1
52	54	4
22	23	18
9	37	2
138	140	4
132	136	4
35	37	1
163	163	16
136	137	5
23	50	4
169	169	17
152	152	7
99	128	1
57	175	5
22	30	3
77	79	3
168	169	5
24	175	6
151	154	8
10	26	2
8	22	5
13	19	2
6	9	4
98	99	6
114	117	2
158	159	14
5	23	6
17	50	1
141	142	10
8	10	9
155	156	7
150	151	3
4	35	3
147	148	13
132	133	8
61	65	2
175	179	1
108	109	9
147	171	6
160	160	14
99	110	1
42	43	4
127	130	4
108	112	2
34	34	12
64	65	12
29	40	4
173	175	2
101	110	1
41	42	16
20	77	1
106	110	2
159	165	2
10	13	10
140	147	7
119	119	16
119	171	2
39	40	18
74	79	3
98	103	1
147	170	2
109	114	2
7	7	25
119	124	3
20	21	4
100	149	1
115	162	7
111	155	4
68	72	5
146	163	3
61	68	3
114	148	1
103	103	10
7	30	3
51	52	3
44	64	1
35	36	7
99	99	23
61	90	2
137	158	3
10	24	5
19	73	2
43	55	1
159	161	5
67	81	4
25	27	5
155	168	2
139	179	2
42	45	2
53	78	2
61	62	5
17	22	3
13	14	14
25	26	14
144	144	15
36	37	20
122	123	5
143	146	2
139	141	1
174	175	3
20	31	2
33	34	16
16	18	2
159	172	2
130	130	15
127	128	9
151	151	22
36	38	1
129	129	30
11	37	1
50	52	7
175	177	2
6	12	1
98	98	5
9	26	5
100	109	8
101	127	3
21	25	1
143	144	17
135	136	10
31	45	2
7	26	1
119	153	3
135	138	2
127	127	14
137	143	2
134	137	3
42	44	2
146	147	9
138	153	1
133	135	6
118	133	2
143	149	4
113	114	12
102	108	8
55	56	13
123	124	6
94	97	2
55	58	1
1	5	6
117	130	5
122	137	3
170	174	1
11	27	2
148	172	2
18	29	1
75	153	3
86	89	4
92	94	8
167	168	1
150	154	2
137	139	1
56	139	3
149	150	14
154	155	17
159	162	3
27	30	1
94	145	1
21	26	4
65	66	2
117	157	2
86	88	2
170	175	2
177	178	4
105	106	4
34	35	12
164	165	9
85	86	13
140	148	1
112	114	7
123	139	6
130	131	10
131	132	8
128	128	14
31	34	2
151	158	4
87	89	3
43	52	1
26	27	6
177	177	5
134	158	3
149	171	2
99	100	5
116	118	9
96	98	3
6	30	3
103	104	6
12	19	2
67	68	7
121	129	2
155	158	1
0	1	9
90	113	1
64	81	3
116	129	6
73	74	5
103	107	5
65	84	1
92	107	1
81	83	7
165	172	1
84	102	2
30	43	2
132	139	4
126	130	2
59	61	4
35	41	5
80	82	3
160	162	12
166	167	3
98	101	3
148	151	2
134	178	3
148	176	2
85	87	2
41	43	4
56	80	2
15	27	1
18	24	1
137	159	1
23	26	6
148	163	1
133	141	2
134	155	1
145	147	8
14	50	1
168	170	2
63	65	7
161	163	1
104	107	2
49	78	2
92	93	6
100	100	4
122	128	3
106	117	3
7	42	1
25	28	8
107	115	1
76	94	3
134	136	1
16	21	5
43	45	2
117	122	1
5	7	5
2	12	1
123	142	1
123	165	2
163	173	3
114	115	4
76	90	2
75	147	4
71	77	1
89	90	9
45	50	2
116	121	1
135	147	3
135	157	1
14	26	4
58	62	3
156	158	1
125	171	2
61	64	5
175	176	7
143	158	2
85	88	3
135	150	3
8	15	1
26	29	2
88	90	3
154	160	2
53	73	3
34	37	1
63	91	3
7	40	3
2	4	8
130	137	3
17	30	1
150	171	3
33	39	2
34	39	6
111	112	8
68	69	2
112	135	1
54	55	6
134	139	1
78	92	2
8	36	1
79	136	1
61	93	2
59	72	5
2	28	3
163	170	2
33	53	3
96	126	2
36	41	4
111	113	3
54	71	4
151	155	1
152	166	3
125	130	4
131	171	2
8	12	3
128	131	3
148	171	3
97	101	1
1	4	2
10	43	2
157	160	1
59	76	5
7	20	1
27	31	3
74	75	6
59	94	1
97	124	2
115	127	2
151	160	2
53	85	1
140	166	3
90	91	5
137	142	1
133	137	2
16	30	2
137	141	3
9	21	3
7	23	2
15	19	2
157	159	2
14	16	1
80	110	2
23	65	2
118	122	2
133	140	1
140	142	5
83	87	2
168	178	3
17	18	10
105	107	4
154	168	1
59	64	2
10	44	6
125	134	1
74	76	1
67	73	2
145	146	2
94	108	1
102	103	1
49	51	2
120	122	3
176	179	2
12	42	3
113	129	6
113	115	5
115	175	2
65	75	2
145	148	2
15	31	1
147	150	1
106	109	3
160	174	2
75	86	1
19	22	4
82	91	4
79	132	2
164	164	13
108	128	1
148	164	2
71	73	1
19	41	3
24	32	1
148	149	3
0	9	1
171	180	1
119	125	2
17	21	1
57	58	2
20	32	1
52	58	1
19	21	5
16	22	2
95	98	2
2	38	1
145	167	1
49	50	2
6	31	1
130	132	3
60	67	1
17	41	1
152	158	1
0	25	2
90	105	2
26	30	4
96	162	2
55	60	1
116	165	2
91	107	2
98	123	2
90	103	2
125	126	3
20	28	3
6	27	4
102	144	2
109	116	1
125	135	1
11	42	9
167	171	6
81	122	5
107	108	4
128	130	1
23	28	4
31	33	1
13	30	3
28	31	1
17	28	1
150	162	2
154	157	2
53	59	1
17	103	2
112	123	1
86	96	6
167	173	2
32	39	2
141	145	2
110	112	2
62	90	2
106	108	1
128	170	1
112	174	2
10	41	3
95	142	1
32	42	3
91	99	1
90	111	1
157	161	1
97	126	1
126	155	1
142	144	1
17	107	1
173	176	1
12	14	5
52	130	1
118	169	1
12	15	2
45	46	4
131	133	1
65	67	2
15	49	1
108	111	2
32	36	1
131	134	1
10	36	1
136	146	2
7	9	2
4	30	4
7	37	2
73	75	2
15	34	2
160	168	1
87	90	2
45	64	1
71	72	6
17	33	2
158	167	1
169	172	1
3	6	2
16	146	1
56	65	1
4	15	4
3	16	1
99	101	6
132	174	1
138	142	1
72	110	1
11	16	2
126	153	3
25	30	1
37	40	1
60	66	4
94	100	1
95	107	1
19	25	2
162	175	3
121	131	1
51	91	2
122	125	1
22	49	1
8	30	2
157	166	2
80	83	1
123	131	2
158	160	1
120	124	3
110	114	1
116	131	4
95	100	1
6	29	2
66	67	5
55	57	1
52	90	1
115	120	1
63	66	2
163	167	2
64	66	2
43	51	5
122	138	1
18	49	4
154	163	3
174	180	1
31	44	3
59	140	2
21	24	1
79	92	1
82	85	2
126	151	1
40	42	3
10	27	2
137	154	1
106	111	3
95	136	1
115	117	1
54	56	1
158	162	2
146	164	2
59	77	1
56	58	1
9	27	1
159	173	1
7	24	3
111	159	3
177	180	2
79	88	3
106	112	6
121	137	2
148	168	2
88	126	2
51	131	2
82	88	1
75	87	1
14	18	1
3	38	1
12	43	1
150	152	2
155	161	1
164	169	1
122	124	1
13	78	2
134	142	3
171	179	1
159	164	1
143	147	1
135	144	1
123	147	1
104	122	3
101	104	4
51	73	1
13	15	3
102	104	2
111	147	2
95	131	2
102	136	1
16	36	2
112	126	1
118	150	1
142	145	2
124	133	2
6	16	1
131	176	2
129	131	2
168	173	2
0	31	1
17	20	1
31	39	1
116	160	1
88	96	3
80	109	1
90	94	1
5	30	1
70	70	3
153	157	1
74	77	1
119	131	2
102	111	1
124	126	2
150	156	1
121	133	2
133	142	2
121	138	1
143	151	3
17	76	1
66	81	1
166	172	1
79	110	1
5	8	1
60	72	1
13	42	2
53	79	1
76	78	2
5	33	2
58	60	4
107	128	1
137	153	1
86	109	1
154	162	1
32	34	1
17	39	2
107	116	1
162	174	1
96	103	2
41	79	1
17	178	1
36	65	1
130	135	1
61	63	2
63	132	1
135	156	1
126	128	2
131	172	3
74	153	1
114	122	2
132	141	1
16	147	1
17	37	1
163	166	1
171	173	2
14	32	1
66	74	1
2	15	1
118	167	1
36	138	1
81	84	2
38	42	1
24	35	1
11	30	1
106	146	1
142	149	2
95	140	2
85	118	2
22	25	1
17	24	1
105	136	1
124	128	1
74	109	3
8	28	1
131	140	1
125	131	1
131	150	1
84	109	1
26	31	1
90	110	1
106	137	1
143	153	2
53	139	1
112	131	1
1	37	2
24	31	1
153	156	1
140	176	1
93	97	2
146	149	1
5	35	1
90	104	1
164	173	1
126	129	1
170	177	1
17	26	1
4	31	1
11	41	1
175	178	1
172	178	1
136	144	1
101	105	2
137	140	1
83	85	1
89	91	1
82	86	1
2	33	1
20	29	1
9	12	1
5	14	1
29	178	1
66	75	1
152	163	1
18	26	1
125	151	1
