48	50	5
155	155	5
91	94	3
37	37	11
143	144	4
111	111	13
92	92	18
34	34	11
84	85	4
143	143	13
50	51	7
117	118	5
74	76	5
1	2	4
103	121	3
106	108	1
18	18	20
53	53	16
124	124	3
99	100	3
26	26	9
122	143	2
123	123	8
40	45	4
139	139	10
89	89	13
62	120	4
110	111	7
113	113	8
13	14	4
71	71	5
9	9	9
128	129	3
149	156	4
118	169	2
106	106	11
49	49	6
101	109	1
121	121	4
11	117	1
7	7	5
43	44	1
154	156	2
78	78	2
144	144	6
131	132	12
43	106	3
93	94	4
8	8	2
151	151	3
76	127	2
132	132	7
138	138	8
118	118	6
98	98	6
80	82	5
42	42	15
123	147	6
107	107	6
143	160	3
10	11	3
153	153	8
162	164	4
81	84	6
156	156	3
7	10	2
108	130	2
11	42	2
21	21	10
101	104	6
16	16	6
75	94	5
77	77	5
14	14	14
21	24	4
57	91	1
135	148	4
62	89	3
27	50	2
6	6	6
109	119	7
38	38	10
52	53	1
5	53	2
25	25	8
62	124	3
21	22	1
15	19	9
51	70	1
51	51	5
134	135	2
57	57	17
46	49	1
55	55	6
2	2	14
162	163	2
119	119	5
43	43	9
102	103	2
118	119	3
91	91	8
114	114	4
125	164	6
169	169	6
24	24	8
1	34	1
85	85	4
84	105	1
19	23	5
63	63	6
139	140	5
113	114	7
75	75	7
158	158	9
94	94	8
103	111	5
78	80	2
0	1	13
71	72	1
153	169	6
146	146	9
0	0	6
112	113	2
76	76	5
152	152	9
151	152	4
82	82	12
113	131	2
142	142	5
80	80	4
142	163	2
88	89	6
57	73	2
107	119	2
5	5	7
83	83	9
74	74	10
10	47	2
73	88	2
37	43	5
9	47	2
39	40	5
45	45	6
169	170	3
58	97	1
39	50	2
46	50	5
115	115	5
26	27	1
44	46	2
16	17	2
93	93	13
122	129	1
73	87	3
41	44	4
8	28	2
36	36	7
148	148	12
170	170	1
127	148	8
101	105	4
157	157	7
3	4	9
14	16	4
81	82	3
145	146	5
14	15	7
41	41	12
149	163	6
28	28	3
6	49	1
47	47	3
81	81	2
84	116	3
155	156	3
134	134	8
112	112	7
122	128	4
6	7	6
109	109	8
77	85	4
135	135	15
149	149	8
103	104	2
91	100	5
27	41	1
18	22	5
88	100	5
17	17	6
84	84	6
99	116	1
1	1	24
101	137	2
0	4	1
105	105	10
6	20	2
56	56	5
20	38	2
39	39	11
118	133	4
10	70	2
36	37	5
120	120	9
69	69	6
162	162	4
88	88	5
44	74	3
9	10	3
122	123	2
7	11	3
50	63	4
103	103	7
127	163	3
40	40	13
70	70	5
72	72	5
93	98	2
5	14	7
13	68	1
65	65	3
129	129	2
3	3	6
119	120	2
67	67	1
46	46	7
145	145	6
156	161	3
33	34	4
149	150	1
15	36	3
109	110	3
80	98	2
92	94	2
47	70	3
13	13	5
50	50	9
62	76	5
147	147	5
50	85	1
138	139	4
161	161	2
100	100	4
3	5	2
48	48	8
55	95	3
114	116	1
114	163	4
64	64	4
114	168	5
165	165	6
55	56	1
102	102	9
119	149	1
48	96	1
86	86	2
126	127	6
63	81	2
51	71	2
19	19	12
11	15	2
64	67	6
35	35	8
143	145	3
57	92	1
11	102	1
39	102	1
37	38	4
26	55	1
76	96	4
15	15	8
116	117	2
26	36	5
133	133	7
122	122	4
115	163	4
73	73	4
126	126	11
17	20	3
87	87	4
131	131	4
32	33	1
154	154	2
87	96	2
27	27	6
77	98	2
101	103	4
45	57	5
128	128	5
18	20	4
108	110	6
97	125	2
23	23	8
53	54	2
110	110	3
15	20	1
82	84	1
86	100	1
63	99	2
69	70	6
147	148	3
68	82	1
66	66	6
130	136	2
160	160	5
150	151	1
68	81	3
20	22	1
150	152	4
125	125	10
6	8	1
28	37	1
40	62	6
152	153	3
126	158	2
97	97	2
98	99	3
49	70	1
8	9	2
163	163	2
26	44	1
6	14	5
98	124	1
168	168	1
90	92	2
57	95	2
36	66	1
57	62	2
38	40	3
109	116	1
148	152	3
137	137	8
51	74	1
119	167	3
72	75	3
63	64	3
104	104	5
67	82	1
52	52	4
145	157	1
24	25	5
34	35	1
137	156	2
91	101	2
44	44	5
110	123	6
65	115	1
15	45	2
87	88	3
64	82	1
166	166	1
132	146	4
161	165	4
96	98	2
143	146	2
5	56	1
1	13	3
68	68	5
89	100	1
130	130	7
11	39	2
163	165	3
35	36	3
69	73	1
17	18	4
21	23	1
48	49	3
114	122	8
9	40	2
130	146	8
39	41	2
48	73	2
90	94	1
130	159	3
101	102	4
140	140	5
65	116	2
15	16	1
132	166	3
140	141	2
27	55	2
110	121	1
165	166	5
102	136	1
141	141	2
123	150	4
144	145	3
14	22	1
110	112	1
26	53	2
40	41	1
69	79	1
4	34	1
51	69	1
90	91	1
128	143	2
48	95	3
70	90	2
110	128	2
116	130	5
98	100	2
19	38	1
1	14	1
12	12	4
89	90	2
88	95	1
105	106	5
96	96	3
121	158	3
81	85	1
89	151	1
15	18	3
114	131	2
68	69	3
54	54	1
138	157	1
56	76	2
161	162	2
100	101	2
107	129	1
93	128	1
21	25	2
79	79	3
111	128	2
153	154	1
64	65	4
97	124	1
138	153	2
97	98	1
20	20	7
130	131	2
71	75	1
3	14	2
93	95	1
90	90	2
37	53	2
26	37	4
69	78	2
167	169	1
27	47	1
150	150	4
51	76	1
77	78	3
57	96	1
66	81	1
147	168	3
44	62	2
77	101	2
104	105	1
58	76	3
45	67	2
4	4	2
110	120	2
115	123	1
58	58	2
138	140	1
79	97	1
109	112	1
62	114	1
136	136	1
124	143	2
40	44	4
18	19	1
38	43	1
63	127	2
61	99	4
101	101	1
12	24	2
76	80	3
108	112	1
114	154	2
164	165	1
46	69	1
75	92	1
47	95	1
123	125	2
119	153	2
124	126	1
58	68	1
53	56	2
100	104	1
11	11	3
114	166	1
39	136	1
164	164	1
16	18	1
3	12	1
95	95	1
116	116	2
12	22	1
43	55	2
50	69	1
5	10	1
63	66	1
155	160	1
72	88	1
44	57	1
56	92	2
58	69	1
58	80	1
5	6	1
106	113	1
25	43	1
80	90	1
104	112	1
10	10	1
146	156	1
157	158	1
71	88	1
82	86	1
100	105	2
43	57	1
129	130	1
158	160	1
163	164	1
