117	132	2
103	103	18
91	91	12
95	102	6
2	2	6
37	37	3
11	50	8
55	55	6
64	64	13
96	96	4
30	31	4
14	14	2
84	88	4
61	64	4
77	77	13
13	13	5
52	53	10
87	92	4
94	95	5
98	98	13
126	126	10
62	90	3
97	97	6
99	102	2
123	124	5
103	104	5
93	94	7
100	100	2
130	130	9
115	115	10
54	55	1
12	12	6
116	116	8
43	69	5
80	88	2
89	90	3
12	13	6
8	8	9
112	114	12
71	71	6
122	123	4
26	27	4
29	29	12
65	65	13
81	81	1
106	106	9
120	120	22
130	132	3
102	102	18
104	104	13
75	75	18
102	130	1
132	133	2
78	88	2
128	129	4
30	30	4
120	121	10
84	86	2
76	76	8
124	124	5
123	123	21
36	36	12
56	56	8
33	33	2
121	121	11
11	11	6
28	28	5
24	24	5
45	82	2
72	72	4
12	50	1
105	105	9
4	4	10
31	31	3
59	61	3
119	119	15
58	59	3
107	131	2
94	94	2
93	93	16
52	52	11
90	90	6
125	131	2
19	19	10
12	17	2
48	48	3
92	93	6
7	7	7
119	134	3
99	100	2
53	53	10
27	28	4
117	117	12
79	80	6
63	64	3
110	110	12
111	114	6
9	37	9
57	128	1
63	63	11
54	54	6
118	118	5
116	125	2
109	109	1
126	128	4
31	33	1
87	87	9
83	83	4
130	133	1
127	128	6
71	81	4
8	10	3
72	73	1
10	10	4
5	35	3
108	109	4
62	65	1
3	3	3
49	49	5
99	99	11
68	68	13
62	64	4
35	35	10
1	3	1
20	21	1
91	92	1
61	62	3
31	32	5
82	83	1
91	94	2
74	88	3
95	95	8
70	70	15
80	80	11
30	32	1
82	82	10
42	42	1
79	79	11
34	34	5
92	92	2
71	72	10
82	92	2
6	6	3
38	38	2
111	111	6
112	112	14
133	133	8
107	108	4
78	80	3
131	133	4
130	131	5
20	20	4
45	45	4
4	29	1
5	5	6
107	107	3
22	23	5
63	65	4
122	124	1
93	98	3
125	125	17
125	126	3
89	91	1
114	114	2
58	58	6
105	107	1
26	26	4
73	73	5
59	60	8
50	50	8
59	59	4
99	106	1
116	117	7
74	74	3
115	117	2
15	15	4
112	113	5
132	132	8
75	76	4
17	17	6
61	61	6
109	110	1
88	93	3
74	75	3
84	84	5
75	78	4
56	57	6
10	11	4
45	57	1
0	3	1
68	69	5
124	126	1
96	97	1
46	46	1
34	35	1
106	113	1
18	103	1
1	1	4
62	63	11
0	29	1
134	134	11
105	106	3
88	88	2
135	135	3
90	99	2
66	66	11
1	2	1
78	79	2
89	89	1
10	37	1
121	122	2
27	27	2
73	74	6
92	94	1
22	22	5
6	7	3
77	78	4
43	43	3
101	101	8
69	69	6
100	122	2
87	88	3
122	122	5
129	129	5
25	26	2
18	18	3
102	103	2
113	128	1
124	125	3
116	124	1
106	115	2
78	78	5
112	126	1
70	75	2
69	70	1
17	18	2
60	60	3
70	71	2
70	76	1
86	86	3
87	122	2
33	70	2
131	131	2
97	120	1
114	115	1
37	38	3
23	25	2
5	71	1
108	112	2
72	77	1
108	108	3
23	23	3
58	87	1
130	135	1
36	37	1
27	70	3
105	112	3
12	24	1
16	16	6
58	88	1
74	90	5
4	5	2
98	100	1
5	43	1
96	99	1
23	24	1
7	8	1
104	106	3
81	94	2
85	86	2
128	128	5
101	126	2
118	119	1
101	102	2
127	127	1
53	54	1
32	32	3
0	0	1
34	75	1
127	129	2
100	118	1
86	92	1
117	120	1
111	112	2
83	84	1
80	109	1
100	106	1
106	107	1
67	68	3
52	64	1
106	108	1
105	111	2
108	115	1
43	44	1
19	93	1
13	14	1
131	132	1
126	127	1
61	68	1
16	17	1
121	125	1
127	132	1
113	113	1
89	93	1
88	127	1
21	21	1
