45	46	7
203	217	5
41	41	18
40	44	5
212	228	8
200	200	9
51	52	11
151	151	24
24	102	2
216	218	4
1	1	24
120	120	10
85	86	3
38	208	12
105	133	4
44	44	15
52	52	17
59	60	24
35	36	5
75	145	3
72	75	5
28	28	21
220	228	2
53	69	2
20	20	20
123	124	5
131	219	1
5	7	5
3	3	20
66	66	5
122	122	12
173	234	1
23	102	2
238	240	3
187	187	11
238	238	5
74	74	2
230	230	16
71	73	5
205	206	4
142	142	9
211	211	8
128	128	15
37	181	1
179	180	4
60	60	7
37	39	1
237	237	14
7	15	1
136	136	13
147	147	9
99	136	4
232	232	16
181	181	21
48	48	14
195	195	11
30	197	3
111	112	4
121	121	8
152	152	7
73	73	25
6	9	1
51	51	4
217	217	17
84	197	1
14	14	6
100	100	11
22	23	5
106	106	7
1	36	2
57	84	3
194	194	4
41	56	4
9	9	11
183	183	10
235	235	18
31	31	19
17	17	23
178	179	6
69	70	4
55	55	17
8	8	31
64	65	5
168	169	5
84	84	3
182	182	16
29	29	23
39	39	16
145	145	5
131	131	5
192	231	6
167	167	7
167	168	8
121	122	9
172	172	17
218	218	12
149	149	8
10	10	15
169	169	7
38	38	16
210	211	4
40	42	5
216	220	2
139	239	4
39	40	1
83	83	4
0	0	8
177	177	15
54	55	8
205	205	10
85	85	26
72	72	8
51	53	5
28	57	2
161	182	3
212	212	7
164	164	10
24	24	7
171	171	9
2	2	23
54	54	26
188	189	8
201	201	32
6	13	5
11	11	23
75	75	13
68	68	5
226	227	4
211	213	3
23	23	21
181	183	2
99	109	2
2	4	4
12	76	1
14	15	4
57	57	21
192	204	3
61	61	14
197	197	14
2	20	5
156	157	3
23	24	4
88	88	3
100	101	3
177	198	4
5	5	18
43	54	3
196	196	9
215	216	1
205	219	1
158	158	8
229	229	23
31	191	1
162	162	6
9	10	23
191	198	2
186	186	26
95	120	6
12	12	18
56	57	10
86	86	19
19	23	1
149	150	5
101	101	16
220	223	2
57	59	4
233	233	16
138	139	6
22	104	5
84	85	3
154	154	5
19	19	19
235	236	10
102	103	8
62	62	18
50	50	7
121	124	5
226	226	9
99	99	16
56	56	25
196	200	1
76	76	10
115	115	2
112	112	2
208	218	3
241	241	7
217	218	9
153	153	12
191	191	14
170	171	4
42	45	4
177	178	7
40	40	11
206	206	6
122	123	6
219	219	10
32	225	2
197	198	1
56	67	3
74	76	7
22	22	14
176	176	7
4	4	11
41	54	3
31	32	15
220	220	23
45	51	5
193	201	1
210	210	18
67	68	7
58	58	12
192	193	5
44	45	2
25	26	3
188	188	21
42	42	13
43	43	12
150	151	6
36	36	17
127	127	7
212	213	12
223	225	4
107	107	4
143	144	5
71	71	5
153	177	3
180	197	1
48	50	3
223	229	1
183	184	2
27	174	5
86	111	3
170	201	2
205	226	2
172	174	1
105	106	6
77	77	12
18	21	3
174	175	9
100	120	1
84	88	1
159	182	1
184	184	17
12	199	2
53	53	21
14	17	7
104	104	12
54	63	2
67	67	15
76	77	11
37	37	10
105	105	12
144	147	10
140	147	2
191	231	3
202	230	1
82	84	2
52	54	4
135	135	3
133	133	2
50	79	2
157	236	3
208	208	24
89	89	7
75	76	8
88	101	1
239	239	27
211	212	3
58	61	1
1	3	2
129	130	2
65	65	8
91	91	7
202	203	2
141	141	23
223	224	4
31	33	1
138	138	18
178	187	2
238	241	7
116	116	3
79	80	5
98	98	14
153	164	1
155	156	1
45	49	5
173	175	5
182	183	3
8	34	3
24	26	4
134	234	2
190	191	1
43	47	3
71	72	5
132	132	5
223	223	8
83	84	8
106	108	2
135	136	1
163	164	6
178	178	10
28	29	4
229	230	3
6	16	1
32	61	3
2	3	3
172	196	2
126	126	2
220	230	3
38	39	12
26	26	18
103	136	3
151	152	2
65	66	3
147	148	3
130	130	1
25	25	10
28	64	2
15	74	3
140	140	17
118	119	3
159	160	7
32	196	5
159	161	6
140	151	3
77	78	3
169	211	2
123	126	4
134	134	6
144	144	15
128	175	2
170	170	15
3	8	5
97	97	7
2	19	6
153	154	4
21	22	11
7	11	1
27	27	10
219	220	7
225	225	3
68	70	7
230	231	5
214	215	5
111	111	3
209	209	10
21	57	1
4	8	5
131	204	1
23	58	3
31	200	2
189	208	3
26	28	3
198	198	6
63	63	18
47	47	4
187	188	4
58	60	5
33	33	19
161	162	2
16	17	7
109	110	10
240	240	9
217	219	4
190	190	11
137	139	3
75	121	2
4	12	2
145	151	2
34	59	2
59	59	4
10	125	3
35	35	10
45	53	3
37	38	6
119	119	2
106	107	1
49	50	2
103	103	7
224	224	2
45	45	11
192	192	4
40	41	5
163	178	2
108	109	2
160	160	10
133	134	6
42	46	6
222	222	7
207	207	12
218	221	10
175	175	13
148	149	12
78	79	3
135	137	2
7	7	3
32	33	8
161	161	8
218	220	2
196	201	1
227	227	7
11	13	4
1	12	4
199	200	2
69	69	15
180	183	2
163	163	7
12	16	4
159	159	5
34	34	5
46	46	14
236	237	4
221	221	19
49	79	4
67	144	8
10	11	3
57	58	4
179	179	5
150	150	3
172	200	2
176	178	3
32	32	16
142	143	3
215	215	6
109	109	7
77	79	5
204	204	9
25	42	4
88	89	1
173	196	1
34	50	1
193	193	3
141	142	4
11	14	5
45	47	1
148	148	14
231	232	5
47	50	1
208	209	2
68	69	6
21	21	5
36	56	2
143	146	3
0	1	4
165	165	7
86	113	3
36	209	5
139	139	4
52	53	7
19	20	8
107	108	4
236	238	2
13	16	12
150	152	2
113	128	4
53	56	4
18	18	12
74	75	11
232	233	1
52	69	4
40	56	2
88	99	2
97	120	2
16	20	8
43	45	6
2	36	2
25	71	1
64	72	5
155	164	2
157	159	3
187	201	2
74	85	1
73	75	1
158	182	4
1	2	4
161	192	2
42	174	4
4	5	5
209	210	1
49	54	5
110	110	2
61	228	3
236	242	6
33	57	2
221	229	6
95	95	1
99	143	1
231	231	11
6	6	2
30	60	8
79	79	4
102	102	22
120	121	9
31	105	2
175	176	2
216	216	9
154	166	2
26	27	6
111	113	1
85	109	1
198	200	2
70	71	7
174	174	1
42	47	1
181	182	4
78	78	8
33	208	1
7	12	1
101	167	2
113	113	6
145	146	5
150	157	1
186	187	2
76	78	2
155	155	2
27	72	1
172	173	5
11	33	2
164	165	5
185	186	3
57	101	2
162	163	1
162	191	9
168	168	1
104	108	2
173	178	1
81	119	1
8	24	1
13	13	1
58	175	2
146	146	1
53	54	1
34	35	3
114	114	1
36	179	1
129	152	1
105	107	2
81	81	5
85	101	3
123	127	4
36	37	6
123	123	4
203	203	10
224	227	3
35	38	1
157	157	4
3	4	9
188	190	2
205	230	2
96	122	5
101	102	3
66	68	1
3	17	1
141	147	1
198	199	2
161	185	2
72	73	4
189	189	7
208	215	4
203	204	2
16	16	1
202	202	5
76	95	2
197	199	1
125	125	1
231	233	1
234	235	5
108	108	1
96	114	2
61	62	4
98	99	3
115	116	4
199	199	13
163	177	7
73	74	1
143	150	2
65	67	3
80	81	1
42	43	3
30	30	12
29	105	2
209	224	6
40	55	6
90	111	1
64	64	11
170	190	1
6	7	4
143	143	7
237	238	4
25	172	2
145	147	3
123	125	1
4	6	4
12	118	3
166	166	6
118	118	6
11	12	2
213	214	2
203	206	1
171	178	1
99	137	5
13	14	1
187	200	3
43	44	6
26	85	2
24	25	4
55	56	2
51	59	2
70	70	7
169	171	1
20	21	4
213	229	1
217	221	3
98	100	1
26	70	1
29	30	4
147	202	4
5	6	5
72	77	2
184	210	3
240	241	5
190	200	2
160	162	4
171	197	2
220	221	5
41	42	3
161	191	1
158	235	1
48	52	1
142	145	2
13	78	1
124	125	2
59	89	3
189	191	2
129	131	2
116	153	3
221	222	5
32	229	3
122	177	2
99	100	5
194	196	4
122	127	1
46	52	1
176	197	1
109	119	2
224	225	5
98	127	2
163	179	1
82	82	4
15	15	4
193	231	1
167	193	5
125	233	1
0	13	4
42	175	1
2	8	2
107	125	2
204	206	1
10	12	1
228	229	4
132	234	2
172	179	1
194	195	1
31	60	1
213	213	4
76	82	1
21	23	3
127	128	1
15	16	2
156	158	2
46	47	1
130	131	2
109	112	2
44	58	1
73	145	3
233	234	2
3	10	3
56	176	3
183	208	2
184	185	1
45	50	2
82	83	1
122	167	2
96	113	2
35	53	4
48	53	3
225	227	2
193	198	2
236	236	2
96	96	5
81	83	1
225	226	2
49	53	3
31	59	1
134	135	2
170	178	2
180	181	4
32	200	1
45	48	2
19	60	1
74	144	1
219	223	1
183	211	2
173	174	4
20	23	2
4	13	2
227	229	2
202	218	3
242	242	8
117	118	5
185	187	2
65	201	2
189	190	2
60	84	1
172	193	1
42	237	2
241	242	1
63	64	1
24	56	2
74	122	1
121	170	2
14	16	2
213	220	4
103	143	1
204	217	1
222	227	2
98	102	1
56	68	2
47	49	1
13	76	1
95	122	1
7	13	1
31	58	1
180	180	3
204	218	2
171	172	1
4	7	1
88	102	1
49	49	4
106	127	1
170	192	1
4	35	1
159	180	5
74	95	1
119	121	2
18	19	3
53	145	1
129	129	5
128	132	1
20	24	5
153	155	1
75	83	2
44	53	2
173	197	1
195	196	2
0	9	1
61	88	2
162	192	1
80	80	1
234	234	5
17	21	1
126	127	4
191	209	3
136	151	2
135	151	3
44	46	3
53	70	2
27	28	2
95	109	6
20	36	1
44	62	3
5	8	3
214	222	1
185	185	2
28	233	1
162	188	2
80	108	1
85	88	1
217	220	1
131	133	2
125	126	2
3	12	1
44	55	1
103	104	1
54	61	1
3	11	1
38	207	2
25	72	1
137	137	2
218	223	2
163	165	2
179	198	1
31	106	2
156	156	4
55	172	1
88	91	1
239	240	1
196	197	2
12	14	6
63	169	1
26	170	2
239	241	1
105	138	2
61	128	1
53	55	3
222	229	2
137	141	1
131	135	3
134	156	1
218	222	1
173	191	2
137	138	2
44	61	1
103	105	2
165	200	1
7	34	1
67	143	3
28	175	1
222	223	1
9	11	1
38	41	1
76	143	2
2	12	2
166	193	1
80	83	3
161	183	1
0	12	1
92	104	1
7	8	1
2	35	1
171	198	2
8	42	1
106	118	2
31	44	1
70	74	1
136	137	2
168	170	1
124	124	1
108	233	1
228	228	2
23	29	1
108	232	1
172	178	1
50	51	1
160	192	3
25	241	1
127	169	1
220	226	1
58	59	1
66	67	1
95	100	1
89	116	2
156	236	1
163	166	2
77	81	1
144	145	1
117	117	1
62	63	1
28	173	1
190	236	1
165	211	1
132	205	1
80	82	1
121	127	1
169	170	1
205	207	1
40	47	1
126	129	1
52	146	1
23	39	1
65	145	1
137	143	1
114	115	1
226	228	1
81	118	1
167	169	1
