103	104	5
86	86	19
186	187	3
30	49	2
220	228	1
42	42	8
41	42	5
80	80	2
113	113	3
190	190	6
115	120	1
62	62	5
5	5	1
97	97	10
238	238	6
205	206	3
120	120	8
211	211	7
34	35	2
43	44	4
83	83	2
106	106	5
70	70	10
179	186	1
201	201	9
20	20	9
45	88	2
41	41	7
212	212	10
103	103	2
34	34	6
124	124	4
35	35	2
129	129	5
64	64	8
131	131	2
32	33	1
177	177	3
138	140	2
130	131	2
1	1	8
31	31	20
178	184	3
37	38	1
65	68	3
54	54	6
79	79	3
51	51	5
20	40	5
202	202	6
91	97	2
88	88	3
0	36	2
108	109	8
118	131	2
32	42	1
189	190	4
195	199	3
26	27	8
188	189	8
189	189	6
45	139	1
59	60	7
228	228	9
67	67	7
50	51	5
29	148	2
63	64	4
204	204	7
98	98	4
187	188	4
24	24	3
43	142	2
58	59	3
187	187	7
146	146	2
128	128	2
39	39	9
193	193	3
143	143	3
71	71	10
8	156	3
17	17	1
27	46	1
0	193	1
27	27	6
148	163	1
102	102	3
9	9	14
8	9	2
101	101	5
147	147	1
180	205	1
84	84	7
64	65	5
29	29	8
184	184	7
118	118	4
37	37	6
122	122	11
134	134	17
101	105	1
173	173	11
45	138	4
169	169	9
220	221	7
135	135	2
38	38	2
191	191	2
200	200	5
234	234	7
52	53	2
44	88	3
133	134	2
224	224	7
43	88	1
149	172	1
109	109	6
75	75	4
164	165	2
5	6	7
99	99	6
21	21	11
189	191	1
43	43	11
44	44	4
61	61	7
56	56	4
211	230	2
127	127	3
49	50	8
171	171	4
47	48	3
174	178	1
45	45	6
212	213	2
16	16	4
53	53	9
119	134	3
58	60	2
70	71	1
219	230	2
28	28	12
73	73	8
101	102	2
159	191	2
127	135	3
21	33	4
127	128	4
227	227	5
18	19	2
232	233	3
98	151	2
47	62	3
85	85	9
96	97	2
24	242	2
57	57	1
203	204	1
89	89	3
0	1	4
179	182	1
60	60	3
19	19	4
30	30	4
225	225	4
176	176	14
235	235	6
68	73	3
232	232	6
22	23	3
10	10	14
202	204	2
167	168	3
46	46	11
239	239	5
15	15	3
65	66	6
9	10	5
195	197	2
26	151	1
4	4	5
15	16	1
160	160	4
158	158	2
214	215	3
28	43	1
10	150	1
68	83	3
223	229	1
180	200	2
145	145	1
196	198	3
63	63	9
207	207	5
27	43	1
49	49	5
151	163	3
214	214	1
69	69	10
145	147	4
2	2	10
115	115	2
188	188	2
124	125	1
16	17	3
164	164	3
78	123	1
186	186	1
159	160	4
27	142	1
68	71	3
7	7	3
200	210	2
32	32	7
195	198	1
143	144	2
130	130	2
156	156	1
48	48	2
13	13	5
182	182	4
7	8	4
18	39	1
11	11	8
231	231	1
107	126	3
72	74	1
150	150	3
52	52	11
25	26	2
28	136	2
4	21	2
52	54	4
137	140	4
5	7	3
121	121	2
183	183	5
5	20	2
170	170	2
23	23	7
22	35	2
17	20	1
77	79	2
7	16	1
154	165	1
165	165	1
66	66	5
217	218	3
188	191	2
12	12	2
5	14	3
149	149	6
35	36	4
11	21	1
198	199	2
144	145	3
54	86	1
137	137	5
119	119	1
29	36	4
14	15	2
147	159	1
123	123	4
45	46	1
36	37	3
155	155	2
180	180	1
26	26	3
137	151	1
188	198	1
189	206	2
162	182	1
212	219	1
147	163	3
151	151	4
226	226	3
231	232	3
59	59	7
28	84	4
162	163	1
174	174	2
119	120	2
230	230	4
218	218	2
240	240	7
81	84	1
159	159	4
203	203	3
192	192	8
221	221	1
227	232	1
5	15	1
144	161	1
190	191	1
75	79	2
217	217	1
154	154	8
17	21	1
43	143	1
166	166	5
167	189	2
3	11	2
31	51	2
147	148	4
3	3	4
208	209	3
82	84	3
69	75	1
237	237	7
152	165	1
65	65	2
37	46	3
76	76	2
14	16	1
166	167	2
133	133	6
35	37	1
72	72	4
47	60	1
110	110	4
157	158	3
80	113	1
166	186	3
168	170	1
35	41	1
32	145	1
205	205	4
36	36	6
213	216	2
21	22	4
108	110	2
174	175	3
44	48	1
138	139	4
128	130	1
55	55	5
198	200	3
146	168	1
114	114	1
225	232	2
54	56	1
156	157	2
105	105	6
174	179	1
11	137	2
172	172	1
53	58	4
18	18	4
29	30	2
51	52	1
136	143	4
74	75	1
47	55	2
57	80	2
152	166	1
133	138	2
114	117	2
123	127	2
104	104	3
79	123	4
167	167	3
209	209	1
153	183	2
34	192	1
122	123	1
111	111	2
188	192	2
175	193	5
15	221	1
26	32	1
65	67	1
27	28	3
209	210	2
6	6	1
211	216	2
69	70	2
82	112	3
220	220	4
54	55	3
219	228	2
179	180	1
55	56	2
33	33	5
138	138	6
165	166	2
172	173	1
225	230	1
77	77	1
242	242	1
98	99	3
24	36	2
96	104	4
168	168	2
210	210	5
46	54	3
57	58	1
6	13	1
210	212	1
181	181	2
7	14	1
47	53	2
22	32	3
236	236	5
81	82	2
47	47	4
233	233	2
152	160	1
12	222	1
56	103	1
69	83	1
77	78	3
76	78	1
62	64	3
81	81	3
30	31	2
178	178	4
164	190	1
8	8	3
22	36	1
74	76	1
174	192	1
44	45	2
25	25	3
229	229	6
191	192	1
10	11	2
68	82	5
149	170	2
47	54	1
3	4	4
68	68	3
62	63	1
135	136	4
17	19	1
2	13	2
152	152	1
228	229	1
40	40	1
136	136	4
222	223	1
185	189	1
82	113	1
131	143	1
161	161	2
43	53	1
241	241	2
153	153	1
82	82	1
200	206	2
74	74	1
31	35	2
58	85	2
208	228	3
17	18	2
216	217	3
128	129	2
30	144	3
5	8	4
129	130	2
206	206	1
58	58	1
49	52	1
27	85	1
56	57	1
223	223	2
80	82	1
126	127	1
223	224	1
8	12	1
116	116	1
194	194	1
168	189	1
118	119	3
14	14	1
0	0	4
169	191	1
80	84	1
61	62	1
125	127	2
237	238	1
47	50	2
197	197	2
29	48	1
208	208	1
33	48	1
157	157	3
193	196	1
71	72	1
148	148	1
160	161	1
16	20	1
53	83	1
201	211	1
172	178	2
32	144	1
95	95	1
22	22	1
26	202	2
78	81	1
195	210	1
102	104	2
78	79	1
18	23	1
132	133	1
226	227	2
39	42	1
200	201	2
72	75	1
195	196	1
48	109	1
103	106	1
62	67	2
79	84	1
11	16	2
99	122	1
80	81	1
46	47	1
145	146	1
36	151	1
116	123	1
