122	122	5
152	152	11
13	13	1
36	36	4
70	70	6
111	111	1
158	159	3
155	155	2
72	72	1
139	139	2
110	110	1
26	53	1
28	28	2
151	151	5
130	161	8
73	84	4
178	178	1
58	67	1
61	101	1
101	101	2
56	57	7
114	115	3
4	147	2
87	87	7
95	95	6
23	24	4
153	169	1
92	97	4
140	140	4
11	16	3
8	8	1
15	16	3
39	40	2
128	132	1
10	10	4
88	107	1
20	20	1
135	135	5
71	72	4
78	79	2
33	34	2
7	15	2
43	68	1
148	148	4
60	62	3
1	1	4
157	159	5
82	100	1
65	120	4
7	7	8
54	54	4
177	182	2
156	157	1
138	139	8
40	40	6
94	96	5
160	160	2
185	185	3
166	166	2
171	171	5
112	113	2
69	75	2
186	186	2
130	160	1
60	60	1
115	115	2
134	134	3
67	67	1
26	27	1
2	2	6
187	189	2
153	161	2
41	42	1
17	17	3
126	126	1
47	69	2
170	170	5
176	176	1
69	70	3
119	119	4
45	45	1
174	174	2
6	7	2
46	46	2
74	75	1
40	41	3
144	145	1
99	103	2
141	141	1
89	89	3
25	25	2
106	106	3
5	5	2
26	35	3
173	173	3
74	74	3
150	150	2
96	98	1
102	102	2
79	97	3
10	79	1
22	24	2
7	8	2
162	162	2
38	38	4
146	146	1
56	56	3
129	129	1
153	153	1
134	136	4
15	21	3
42	43	1
79	79	2
99	114	2
83	83	1
29	29	2
112	112	3
30	30	2
110	111	2
140	141	1
126	128	2
70	76	1
136	136	1
19	21	3
147	148	2
26	26	1
43	43	2
2	7	1
113	114	1
32	33	1
114	114	1
14	15	1
82	82	1
107	107	2
78	98	2
110	113	2
150	155	1
104	105	2
40	42	1
81	81	1
121	121	1
3	3	1
81	91	1
21	21	1
38	39	1
105	105	2
124	124	1
56	123	1
20	22	1
74	83	2
154	154	1
77	77	1
100	100	1
186	189	1
29	30	2
98	98	1
86	87	1
109	109	1
39	39	2
47	48	1
130	132	1
123	141	1
1	2	2
68	68	1
13	14	1
4	5	1
75	76	1
91	92	1
37	38	1
132	132	1
35	35	1
83	88	1
