44	45	11
10	74	1
4	5	19
57	58	10
29	29	41
73	73	41
131	131	16
7	8	2
22	92	7
126	126	9
0	1	2
64	64	27
15	15	30
93	93	38
62	62	26
32	32	30
30	31	8
7	7	19
33	34	16
45	45	46
95	95	28
27	28	13
27	27	20
39	39	16
3	13	2
126	127	4
101	121	1
47	47	65
46	46	45
79	79	30
127	129	5
103	103	16
78	78	42
93	95	6
11	11	26
106	107	7
31	31	29
76	76	28
34	36	3
59	60	13
120	120	17
36	37	12
23	23	15
25	25	27
46	47	7
77	78	8
89	90	8
86	86	25
112	112	21
26	26	23
101	101	20
58	58	6
88	88	18
19	19	17
80	80	12
68	68	31
59	59	26
13	13	9
20	78	8
8	8	28
119	119	20
111	112	9
98	98	14
60	60	25
56	56	26
0	0	17
73	85	2
83	84	9
124	124	13
95	96	15
70	70	30
45	46	1
65	65	38
50	50	9
61	61	37
37	38	10
123	123	16
78	80	2
75	75	39
82	82	14
35	35	33
19	20	16
2	18	3
106	106	5
4	32	1
64	69	2
77	105	2
69	71	1
18	18	22
42	42	12
24	26	4
7	15	6
113	113	14
132	132	11
43	122	3
14	14	14
94	95	7
72	93	3
62	64	3
6	6	25
44	44	22
11	12	12
71	96	3
67	67	28
30	32	3
78	117	4
28	49	1
99	99	22
113	114	8
102	102	10
128	128	15
33	33	27
26	93	3
83	83	22
26	27	17
95	97	6
85	89	2
3	4	10
25	26	14
109	109	12
2	2	17
61	73	1
23	25	6
93	94	6
117	117	11
11	30	3
44	82	1
133	133	12
4	22	2
39	41	6
5	5	29
82	83	5
20	93	2
40	84	3
1	1	9
21	29	1
5	88	7
129	129	13
23	26	8
19	57	1
28	28	24
111	113	4
64	70	2
128	132	2
13	14	7
7	91	2
101	102	15
69	69	12
100	102	6
48	48	19
48	132	1
74	74	19
25	35	3
71	72	9
97	97	17
18	109	5
96	96	13
121	121	6
56	81	2
21	21	26
18	19	5
115	115	14
30	30	33
72	72	19
4	4	17
77	77	25
26	78	5
115	116	7
66	66	34
76	120	2
100	100	24
81	82	11
10	10	55
87	88	9
4	15	1
130	130	21
4	47	4
104	104	18
34	78	6
17	17	21
119	122	2
38	39	2
63	74	2
11	24	2
34	35	8
123	126	1
117	119	3
24	25	8
113	130	1
133	134	7
49	49	8
80	106	1
9	10	16
55	81	4
125	125	22
71	95	4
1	2	4
105	105	19
10	11	15
70	71	11
108	109	2
9	9	37
68	69	10
63	63	32
116	122	4
21	22	9
16	16	19
90	90	11
118	119	2
101	103	2
20	20	18
40	40	8
96	97	5
84	84	20
78	116	2
27	62	1
107	107	21
39	40	5
94	94	26
24	24	9
34	34	23
99	100	5
71	71	11
12	12	48
86	88	4
6	7	6
46	71	6
3	101	4
14	15	9
118	120	4
75	76	16
6	47	6
32	74	2
42	50	3
25	28	7
61	62	8
33	47	6
36	130	2
112	113	12
29	30	5
92	92	16
36	122	3
12	46	2
57	103	1
18	77	4
28	90	2
118	118	15
92	93	19
116	116	19
72	74	6
25	27	5
20	21	8
119	120	6
41	43	5
85	85	16
45	70	4
41	41	16
42	59	1
28	34	4
120	121	6
11	13	5
122	122	14
91	98	1
7	31	4
110	111	8
35	36	16
38	38	7
115	131	3
23	24	8
12	47	5
43	43	18
24	27	4
127	133	1
40	41	4
36	42	3
26	33	2
92	127	4
32	33	6
11	19	8
108	108	20
42	43	5
47	48	3
35	123	3
11	93	11
73	74	7
56	70	6
123	124	5
96	98	2
55	55	21
109	110	17
12	14	3
79	81	12
98	99	7
29	49	6
97	111	3
78	79	17
18	81	3
48	49	10
98	102	2
40	81	2
46	69	3
10	18	2
60	74	3
8	11	2
20	29	5
69	96	2
130	133	6
15	16	8
8	9	6
19	48	3
111	130	2
85	86	3
6	31	2
85	93	5
90	97	2
36	45	2
87	87	21
4	9	1
5	94	2
8	46	1
22	64	2
48	58	3
110	110	8
81	81	12
109	111	1
65	66	1
74	75	7
105	107	2
8	36	8
114	115	2
46	64	2
40	112	3
36	36	25
124	125	5
66	83	1
19	22	2
21	109	1
9	18	1
11	26	3
57	57	13
23	35	3
25	87	5
3	3	19
28	97	3
125	126	5
11	101	5
17	18	3
45	73	9
92	96	5
91	91	17
27	83	3
2	29	4
84	85	8
60	62	5
4	17	3
89	89	3
109	132	2
28	29	10
134	134	19
17	19	2
7	94	3
35	62	2
127	127	8
59	85	2
80	117	2
69	100	2
5	7	7
88	92	2
104	105	4
95	98	1
79	80	6
121	122	2
90	93	4
108	110	7
124	126	1
62	69	5
47	78	4
22	35	4
34	82	2
111	111	7
126	130	3
8	91	3
110	131	2
95	101	3
95	100	4
27	80	6
25	59	1
48	78	5
11	60	2
34	69	2
8	10	4
17	20	1
86	89	1
12	13	8
8	22	2
128	129	10
35	111	1
32	61	3
76	77	15
5	6	9
26	80	4
80	81	4
47	62	2
42	49	2
24	82	2
4	7	2
32	77	4
131	132	5
72	73	10
14	23	3
100	101	4
22	22	7
46	62	1
94	96	4
34	124	3
88	89	1
20	60	2
50	55	1
22	32	4
36	40	1
10	38	1
8	35	5
90	92	2
32	59	2
37	112	1
97	99	3
69	117	3
30	74	1
11	47	3
111	131	1
22	33	2
63	68	2
71	73	1
78	114	2
32	58	5
86	87	1
70	111	1
114	114	5
107	108	2
28	63	2
10	45	1
76	129	1
27	93	5
112	119	4
64	65	7
94	97	2
6	36	3
63	79	1
130	131	3
59	62	3
40	43	1
33	36	1
127	128	4
97	98	6
69	70	2
48	130	2
78	82	4
104	107	1
96	100	5
7	101	1
51	55	3
14	84	2
70	92	3
82	123	1
6	9	1
62	70	2
9	11	2
90	91	8
108	120	3
16	17	3
4	20	2
68	70	2
26	49	1
102	105	2
112	117	2
17	83	1
129	130	5
9	29	1
51	51	2
32	81	1
25	34	1
4	21	2
60	61	2
61	69	1
27	79	4
29	48	2
6	8	1
39	42	4
45	56	1
103	104	7
117	122	3
29	59	2
94	106	1
102	103	2
11	14	2
110	112	2
98	106	1
38	41	2
41	93	2
58	60	2
28	80	3
70	82	2
88	94	1
34	108	1
32	62	1
12	68	1
75	82	2
31	36	2
99	106	3
6	84	1
39	49	4
93	106	4
24	74	1
62	71	1
30	59	1
88	132	2
123	133	2
18	59	3
37	37	7
86	126	1
120	122	2
49	80	2
55	56	6
30	61	3
11	27	3
93	116	1
69	75	1
15	17	5
116	120	2
3	74	2
12	74	1
44	48	3
20	80	1
70	72	3
28	47	1
31	32	4
5	26	2
7	83	2
77	83	3
54	54	3
27	81	2
28	78	1
12	34	1
86	100	1
84	112	1
115	128	3
7	26	2
61	72	1
91	97	2
26	48	2
27	29	3
75	78	4
74	77	1
42	44	2
37	106	3
25	83	4
127	131	2
26	82	3
42	58	2
70	110	1
2	30	5
35	43	2
45	62	1
10	27	1
19	33	2
105	106	7
106	108	2
66	67	3
109	127	1
28	91	1
27	32	1
56	57	3
8	90	1
2	3	4
88	98	1
11	72	3
22	56	1
26	47	3
29	62	1
28	96	2
98	100	1
29	77	1
45	81	1
11	45	1
7	16	3
43	59	1
95	99	2
98	129	1
115	127	2
9	72	2
19	35	1
33	35	1
21	30	1
117	121	1
23	108	2
35	126	1
117	118	2
19	46	1
87	94	1
10	35	1
41	42	4
116	117	1
7	92	1
42	48	1
20	89	4
48	79	2
28	62	2
41	51	1
83	123	2
4	8	2
81	84	3
33	48	1
38	40	1
11	29	2
22	23	1
5	15	1
14	20	3
95	106	4
78	81	4
49	50	1
50	132	1
26	35	2
22	25	3
125	134	1
28	48	1
113	122	1
78	93	1
16	23	2
5	8	2
31	79	1
18	101	1
16	74	2
13	19	1
29	31	3
130	132	2
92	101	2
63	64	2
57	59	1
38	51	1
81	129	1
98	101	1
85	91	3
14	21	1
56	85	1
11	100	1
129	131	1
11	25	1
19	71	1
67	113	2
122	125	1
15	20	1
9	12	2
64	71	3
45	48	1
37	41	3
114	128	1
18	21	1
59	61	1
109	126	2
59	76	2
18	69	3
10	34	1
68	96	1
58	59	1
73	110	1
11	18	1
25	44	1
123	125	3
81	116	4
83	89	1
31	59	1
17	28	1
114	126	1
34	42	1
40	54	1
122	123	1
24	78	1
25	74	1
27	91	1
128	131	1
97	102	1
100	105	1
78	89	1
47	87	1
42	84	1
25	47	1
5	65	1
30	90	1
131	133	2
33	76	1
16	18	1
32	76	1
82	84	1
29	78	1
10	77	1
117	120	1
28	32	1
45	57	1
12	59	1
90	101	1
75	86	1
94	100	1
125	130	1
47	57	1
21	88	1
126	128	1
19	106	1
62	75	1
39	43	1
101	115	1
6	93	1
23	41	1
2	108	1
7	100	1
62	63	1
