109	109	7
38	65	5
67	67	4
156	156	5
165	171	7
24	38	4
105	105	8
143	143	6
59	59	6
151	151	13
37	37	2
7	8	1
193	193	8
41	41	7
137	137	6
103	103	2
180	181	8
131	131	9
26	27	2
132	132	2
145	145	3
24	25	3
21	22	9
0	1	3
21	23	2
53	53	7
191	192	12
9	9	2
148	148	8
162	162	7
83	83	11
9	42	3
26	26	4
17	44	2
40	40	4
129	130	1
47	47	12
106	106	4
39	39	4
21	21	4
191	191	5
50	51	2
13	32	1
51	51	7
89	89	5
13	23	4
45	45	11
149	149	6
34	34	17
104	104	3
27	33	1
119	138	5
136	138	3
15	15	4
16	16	11
146	146	1
71	72	7
25	25	13
55	55	15
101	105	3
97	97	6
196	196	9
151	152	1
82	85	6
68	70	4
186	186	3
175	176	6
119	119	5
147	147	11
39	40	3
19	19	12
113	113	11
95	97	4
66	105	2
128	128	5
11	11	4
102	102	6
183	187	2
171	171	8
134	134	5
56	56	5
118	119	8
120	121	7
28	29	6
153	153	6
160	160	3
164	166	2
93	94	5
28	28	2
36	36	5
141	141	7
151	163	3
152	153	3
150	150	10
66	66	1
12	13	3
184	186	2
36	80	4
59	62	4
7	7	11
54	54	5
20	28	1
125	126	4
120	155	1
168	168	18
149	150	4
32	32	2
19	21	1
130	130	6
63	63	1
71	71	4
177	177	9
121	121	5
20	36	3
14	14	12
182	182	3
127	127	7
101	101	7
155	156	5
62	62	11
143	161	7
103	105	1
152	165	1
121	136	1
3	155	1
140	155	1
24	24	3
114	114	2
152	152	11
68	107	1
115	116	2
165	173	4
107	108	6
117	117	5
161	161	8
20	20	1
170	170	2
107	107	11
179	193	2
154	154	5
157	157	9
20	21	7
111	169	1
167	168	9
4	4	11
27	27	4
12	12	1
126	192	8
101	102	3
44	44	2
174	174	4
159	166	2
190	190	11
165	178	1
38	38	1
185	185	2
0	157	2
133	137	4
194	194	3
48	48	2
30	30	6
88	88	6
1	2	3
144	144	2
196	197	2
187	187	11
156	181	2
172	173	2
138	138	4
64	80	2
127	128	2
39	69	1
3	26	1
25	26	3
18	20	2
24	30	2
65	66	8
74	75	2
70	70	3
176	177	3
0	0	4
55	56	3
65	68	1
178	179	1
8	18	4
58	58	10
176	176	6
23	43	1
3	3	15
20	148	4
18	162	1
139	140	4
103	118	3
183	183	2
32	36	2
152	167	7
2	2	8
6	6	7
130	131	3
37	38	1
23	29	2
133	133	7
74	74	1
172	178	1
126	126	2
30	31	4
80	80	2
81	84	2
136	136	4
2	9	3
23	24	2
82	93	3
182	183	3
60	60	4
187	188	8
42	42	2
34	76	6
142	156	4
40	41	3
166	166	6
147	170	2
125	125	1
19	20	3
46	46	7
151	168	4
158	158	2
143	144	4
186	188	1
153	155	1
119	120	3
70	84	2
194	197	3
103	108	6
107	114	1
163	164	2
158	160	2
192	193	8
94	95	2
154	155	2
159	159	3
43	43	4
35	35	4
26	38	2
156	167	1
147	148	6
190	191	3
111	112	3
179	180	2
86	88	3
153	157	2
121	142	1
49	49	2
13	13	3
165	166	2
110	110	2
76	85	1
1	1	4
82	82	6
15	46	3
140	141	5
6	8	5
189	189	2
77	77	3
76	77	3
124	124	8
155	155	4
134	135	3
22	22	1
129	166	1
181	181	2
73	74	1
118	137	2
64	65	1
157	158	5
4	28	1
65	65	1
193	194	1
111	114	1
35	36	1
146	147	1
136	137	2
111	111	3
1	42	2
172	172	2
62	63	3
33	33	3
100	100	2
156	169	5
119	140	2
165	165	3
45	46	2
60	61	3
81	83	2
19	44	3
3	171	5
118	118	2
133	160	1
145	172	3
164	164	2
104	105	1
33	72	1
184	184	1
36	37	1
2	28	2
135	137	1
58	59	2
115	115	3
185	186	1
192	192	2
29	43	1
112	112	3
84	85	3
86	94	2
10	10	3
145	146	3
161	162	1
195	195	4
123	123	1
126	127	1
134	137	2
108	116	1
119	146	1
90	90	3
162	163	3
83	94	2
17	17	2
73	73	2
158	183	1
77	81	2
14	45	2
68	86	5
61	61	2
81	82	1
38	105	1
173	173	5
159	165	1
67	108	2
34	35	4
155	167	6
146	170	1
18	40	2
142	142	1
17	43	1
143	182	2
5	24	1
170	171	1
5	5	3
67	82	3
3	4	2
168	169	1
22	36	1
119	139	1
101	104	2
173	175	1
188	188	1
189	191	2
129	129	2
94	168	1
143	156	1
120	120	2
67	83	1
10	43	1
37	79	2
104	139	1
184	185	1
103	104	1
108	108	1
42	44	1
9	11	1
20	29	3
179	179	1
50	50	2
57	57	1
174	176	2
37	170	2
68	68	2
87	87	3
96	162	1
141	142	1
156	194	1
169	169	2
138	144	1
55	100	1
197	197	2
83	84	1
29	29	2
38	39	2
0	2	2
98	98	1
11	12	1
99	99	2
180	180	1
99	116	1
163	172	2
173	174	1
162	164	1
43	45	1
103	115	1
74	79	2
186	187	1
31	31	1
63	114	1
40	68	1
46	47	1
85	86	1
52	52	1
