91	91	9
65	88	5
47	47	5
142	143	5
5	5	8
4	4	2
1	33	1
13	14	6
3	4	9
140	141	6
124	125	3
101	121	2
84	84	11
64	65	1
2	14	1
37	43	2
75	80	5
129	130	4
123	123	9
116	116	6
127	127	11
90	90	5
53	53	4
89	90	4
0	2	4
31	73	4
77	78	2
104	106	2
24	24	6
27	27	7
16	17	5
105	107	4
31	31	5
92	92	10
3	14	2
112	112	4
1	63	6
93	109	1
3	56	1
65	132	6
29	29	8
23	23	13
81	121	3
71	72	2
41	131	2
28	28	4
80	81	3
85	85	10
8	8	5
91	131	6
9	33	6
118	118	7
36	47	2
15	29	3
101	101	4
63	64	3
31	135	2
79	79	6
128	128	13
91	120	3
141	142	6
16	16	7
115	116	2
19	19	7
93	94	4
131	131	6
36	36	6
81	81	2
10	11	5
54	54	2
34	34	4
141	141	7
93	95	2
60	60	9
144	144	2
71	130	4
76	118	1
67	67	8
114	114	3
18	18	2
125	125	9
109	109	8
97	97	2
101	102	1
20	21	2
33	33	3
17	17	10
56	56	11
87	87	2
10	10	3
137	139	5
2	2	2
80	80	3
98	98	8
58	58	7
5	9	2
137	138	2
76	77	3
87	104	3
72	72	2
126	131	2
137	137	13
32	32	5
108	108	5
139	140	3
74	76	3
31	32	3
63	63	5
84	85	2
82	83	2
133	139	4
64	64	8
57	57	7
136	139	3
112	113	11
126	126	7
67	74	2
107	110	2
75	84	4
86	86	3
88	89	2
105	105	3
20	20	10
23	25	2
107	107	5
15	15	2
65	130	3
110	111	2
46	46	1
60	129	1
3	6	1
135	139	1
106	107	2
98	100	4
140	140	7
79	81	3
75	75	4
43	43	6
22	22	3
41	42	3
78	78	6
102	102	5
77	128	2
95	124	3
134	134	7
35	35	6
107	108	3
21	21	5
66	66	7
1	61	2
111	111	1
62	62	5
16	104	5
59	61	1
6	6	2
123	144	1
115	115	4
134	135	3
26	69	4
143	143	6
117	118	5
103	103	1
85	86	4
71	71	11
39	39	4
57	58	4
118	120	4
65	65	4
109	123	2
52	56	1
136	137	9
2	96	1
122	128	2
96	96	6
78	130	1
124	124	6
9	133	1
137	140	2
120	120	3
8	22	1
138	139	6
69	69	5
54	67	2
68	70	2
70	71	2
106	122	1
82	82	4
60	139	1
103	104	1
54	59	2
25	25	2
142	142	2
135	140	1
23	27	2
121	123	5
31	67	1
20	63	1
15	16	4
92	112	1
58	76	3
15	17	2
85	118	1
139	139	1
122	122	4
73	74	1
5	11	2
100	101	1
50	68	2
26	34	2
111	112	6
31	139	1
93	121	2
15	19	2
134	136	1
8	135	1
13	26	2
8	19	3
72	118	1
9	11	1
140	143	1
76	76	2
98	123	2
63	123	2
95	95	1
9	18	3
130	130	7
145	146	2
28	30	4
115	143	3
19	21	3
34	74	1
117	120	2
70	70	3
4	5	2
132	142	2
26	26	4
113	113	1
68	69	3
33	35	1
69	145	3
102	103	7
38	43	2
2	97	1
99	99	1
51	51	1
72	78	1
88	88	2
99	101	4
93	93	4
120	122	4
49	49	1
132	136	1
86	110	1
120	121	3
73	73	1
117	117	4
4	50	3
128	129	2
79	80	3
128	130	3
36	39	1
1	13	2
141	143	1
94	95	1
119	120	2
98	109	1
37	37	5
121	121	3
123	134	3
95	96	1
104	107	1
59	141	1
131	132	1
55	55	3
71	76	1
138	138	3
12	12	4
42	42	3
140	144	1
30	30	3
26	31	1
91	93	2
135	135	3
132	132	1
104	104	1
94	94	4
34	36	3
79	103	1
38	38	1
95	99	1
64	67	2
19	56	3
99	100	1
23	26	2
11	11	3
133	133	6
1	1	3
123	139	1
107	132	1
57	95	1
74	74	3
33	34	3
54	82	2
34	46	1
142	144	1
125	143	1
47	48	2
88	92	2
37	55	4
79	115	1
126	127	1
40	40	1
100	100	1
21	28	2
66	67	2
104	121	1
61	61	1
9	9	2
17	19	1
83	83	2
123	143	1
70	72	2
13	24	1
72	77	2
76	78	1
86	87	2
32	62	3
0	0	2
59	131	1
14	14	1
52	67	2
96	113	1
96	98	1
133	135	2
5	10	1
122	123	2
110	127	1
60	136	1
30	31	1
89	89	1
118	119	1
98	137	1
95	121	1
72	74	1
91	121	1
49	50	1
52	52	2
68	68	1
122	130	1
114	130	1
89	110	1
22	127	1
