74	74	24
76	76	19
89	93	1
59	59	26
60	60	10
30	31	1
43	43	16
30	30	3
92	92	8
99	99	16
50	50	9
57	57	13
98	100	3
78	90	5
56	56	4
79	79	12
49	50	12
64	64	10
58	58	17
42	42	17
43	67	1
68	68	12
62	62	10
69	70	12
66	66	15
63	64	13
41	42	17
33	34	1
73	73	14
91	91	19
71	71	15
55	55	18
80	80	3
40	40	11
63	63	16
87	87	4
84	84	15
39	39	14
101	101	10
81	81	7
22	67	3
70	70	11
92	96	3
48	54	2
42	43	13
90	90	17
44	44	16
53	53	11
38	38	6
96	96	10
93	93	10
41	41	9
89	92	1
88	88	12
37	38	2
85	90	3
70	72	2
94	97	1
34	35	2
34	50	1
47	47	12
69	77	2
48	49	12
85	85	15
53	54	3
74	75	6
77	77	7
59	64	2
24	25	4
62	78	2
98	98	2
47	48	9
34	46	2
33	72	1
88	89	2
48	48	21
71	72	4
79	80	7
67	67	21
51	52	11
95	95	8
67	69	6
99	100	6
53	55	3
61	61	14
86	87	3
40	42	1
72	72	8
64	71	1
69	69	7
68	69	3
47	92	3
66	70	1
83	102	1
84	85	2
49	49	10
97	97	6
48	101	2
35	35	2
102	102	2
95	96	3
86	86	5
65	66	6
56	85	3
54	54	7
72	73	3
83	83	3
52	52	8
52	53	3
38	39	2
75	91	3
65	65	11
77	78	6
59	60	4
100	101	3
95	98	1
56	57	2
32	97	2
55	56	2
52	57	3
27	27	4
44	45	1
33	33	5
23	24	1
75	75	9
90	101	1
71	74	3
100	100	3
67	68	1
85	86	3
83	84	1
57	69	2
51	51	2
48	53	3
90	91	4
66	68	1
35	36	1
37	37	9
45	48	2
62	63	1
60	61	3
58	59	3
60	62	1
94	98	1
78	78	6
56	69	1
69	72	1
94	95	1
96	98	1
48	50	2
20	20	3
23	23	2
96	97	1
91	92	1
73	74	4
92	93	2
45	45	1
36	36	7
82	83	1
57	60	5
74	76	2
76	77	1
58	88	1
54	56	1
80	81	2
47	55	2
54	55	2
52	54	1
64	69	1
51	62	3
27	28	1
100	102	3
40	41	3
48	52	1
93	99	3
64	90	3
54	60	1
40	44	1
93	94	5
43	44	2
29	29	1
20	28	1
44	66	2
59	63	1
88	92	1
97	98	2
32	32	5
81	83	1
50	72	2
39	40	1
52	62	1
87	88	1
66	67	3
38	49	1
46	46	2
34	34	1
52	55	2
89	89	2
94	94	2
46	47	1
78	81	1
36	37	1
67	70	1
98	99	2
22	25	1
79	81	1
