82	82	8
104	104	12
75	75	19
99	99	7
93	93	13
37	60	2
81	83	2
95	95	17
50	50	10
101	101	14
33	33	10
85	85	3
35	35	12
27	27	7
21	29	2
65	65	26
64	64	2
59	59	6
72	72	4
34	34	5
44	45	8
90	91	3
37	99	5
39	39	12
97	98	2
84	84	10
20	26	4
42	42	14
91	92	8
77	101	2
91	91	8
31	31	10
92	92	19
76	76	29
89	94	2
33	47	2
81	82	6
84	95	6
66	66	8
81	81	8
80	81	6
52	52	16
78	78	8
57	58	2
89	89	20
74	74	7
98	98	8
55	55	10
83	83	14
24	25	3
67	99	5
82	83	4
84	85	1
23	23	14
49	99	4
67	80	5
53	53	6
61	82	3
26	26	7
105	106	3
69	76	8
54	54	6
70	70	13
51	77	6
105	105	11
73	74	3
65	67	3
33	48	1
71	71	11
74	77	3
89	90	3
28	55	2
68	68	16
67	68	4
26	27	5
21	22	6
44	94	2
27	28	4
76	77	4
83	84	4
87	87	3
29	30	9
29	29	7
55	56	5
42	45	4
60	60	6
22	22	6
103	103	6
37	96	2
85	87	5
77	104	4
24	27	2
104	105	8
94	94	11
47	48	4
83	85	3
67	67	10
79	83	4
64	65	4
80	80	10
51	51	9
24	24	9
37	106	2
28	28	9
22	29	3
39	101	1
95	96	7
66	67	9
59	91	2
60	72	2
42	43	3
53	54	5
54	55	1
79	79	11
57	75	3
102	103	3
37	37	11
64	67	2
73	73	13
28	36	1
107	107	3
57	57	4
77	91	1
58	58	3
57	61	3
102	102	11
30	30	7
65	66	2
49	49	10
30	31	2
43	43	3
47	47	9
32	37	3
32	32	8
61	61	6
41	41	6
88	88	8
86	86	9
23	24	11
100	100	6
77	77	8
36	96	3
46	46	9
62	62	8
52	53	11
44	44	4
28	88	1
63	64	5
37	79	2
20	20	3
63	63	1
50	51	5
86	87	2
80	82	4
62	63	2
90	90	13
82	85	1
97	97	9
24	60	1
75	76	2
90	94	4
58	75	1
24	91	2
25	29	4
22	28	1
46	49	2
38	38	5
82	88	2
70	72	1
57	70	2
71	77	5
82	86	5
37	39	2
32	66	3
92	93	7
39	43	2
40	45	3
27	29	1
83	86	8
56	57	4
57	76	3
86	98	3
44	46	3
38	39	5
62	77	3
26	57	2
31	32	4
33	34	2
40	98	3
85	88	4
96	96	5
24	52	4
83	92	1
21	85	2
81	98	3
99	106	1
69	70	2
36	37	1
79	107	2
90	93	1
40	67	3
68	76	5
85	93	3
54	60	3
97	99	1
56	56	5
80	88	2
21	97	1
103	104	1
60	82	2
79	80	3
82	100	2
48	48	2
24	58	1
43	97	1
36	60	3
66	80	2
69	75	1
59	60	2
24	26	2
36	36	7
48	100	2
30	46	1
74	75	1
42	44	1
21	21	4
40	42	1
87	88	2
22	25	3
77	79	2
30	106	5
32	34	2
26	86	4
48	97	1
75	77	1
21	25	2
40	41	1
37	105	1
51	52	2
56	73	2
33	93	1
50	96	1
25	31	2
58	76	1
54	80	2
77	105	1
35	65	2
60	91	2
91	102	1
33	107	2
88	98	1
69	69	5
50	70	2
89	92	2
37	38	1
61	62	1
94	99	1
98	99	1
69	102	1
21	23	1
94	95	1
46	48	2
40	40	6
33	66	1
21	49	1
54	61	2
30	79	2
28	81	2
57	82	1
106	106	1
53	62	1
45	45	1
81	96	1
45	94	1
65	68	1
46	47	1
96	100	1
23	88	1
79	95	1
80	106	1
45	106	1
39	86	1
83	88	1
76	102	1
