147	152	4
24	24	6
82	82	5
40	40	3
102	102	9
163	164	1
104	104	6
115	115	2
129	129	4
1	34	2
38	38	8
133	157	3
134	134	1
17	17	4
69	69	3
2	2	3
166	166	3
75	75	3
161	166	1
16	17	4
100	105	4
91	92	10
150	150	8
135	135	4
69	71	1
137	137	3
12	12	13
5	6	2
18	21	2
144	145	3
118	125	3
83	83	3
81	82	1
126	126	3
110	117	2
81	81	15
25	25	5
86	87	3
77	77	2
3	3	13
23	23	2
23	24	3
76	78	4
155	156	4
124	124	5
119	119	1
71	71	3
101	101	4
123	123	2
0	1	2
112	126	1
64	64	3
106	106	2
112	112	4
88	88	5
44	44	4
20	21	5
19	19	4
48	49	3
153	153	1
36	37	2
7	7	5
85	116	1
84	85	7
66	69	2
66	70	4
158	158	1
118	118	3
132	154	2
144	144	1
42	42	3
4	4	6
87	87	1
81	88	3
94	95	5
138	154	2
6	8	4
96	96	7
8	9	5
1	1	2
109	109	5
165	165	3
85	86	4
9	9	3
54	54	2
70	86	3
74	74	5
96	109	3
85	85	5
76	76	1
76	77	3
27	28	2
14	14	5
97	98	1
2	3	1
53	54	2
99	99	2
110	110	1
13	14	1
105	113	2
55	56	1
131	137	2
11	11	4
9	10	2
128	128	2
119	120	1
50	50	1
119	124	2
53	53	4
106	111	2
27	27	4
70	71	3
0	45	1
36	36	5
109	111	1
55	55	6
151	151	3
52	54	1
98	99	4
134	135	1
93	93	3
0	44	1
69	70	2
79	79	1
78	80	1
146	146	6
34	34	2
11	26	2
152	153	1
133	154	4
21	21	2
133	133	2
108	108	2
67	68	1
74	75	1
145	145	2
67	67	2
160	160	3
63	71	2
80	80	2
138	139	3
105	119	4
147	154	2
128	130	2
169	169	2
70	70	2
79	80	1
97	116	5
39	166	1
86	86	1
101	105	1
157	157	1
34	35	3
136	136	1
28	28	1
6	6	4
88	89	1
89	89	2
130	131	2
43	43	3
77	78	1
47	47	1
15	15	2
80	81	2
35	36	2
152	152	4
93	95	1
98	98	1
92	93	3
97	99	1
132	132	2
49	49	2
151	166	1
148	151	2
7	10	2
62	62	1
33	33	1
8	54	1
119	122	3
68	68	2
157	159	2
5	5	2
167	168	1
8	8	2
35	35	3
159	159	1
154	154	1
66	67	2
46	49	1
78	78	1
126	130	1
124	125	2
117	117	1
22	23	1
105	143	1
97	111	1
10	10	1
44	45	1
37	43	1
61	62	1
113	114	1
99	104	1
64	69	2
77	97	1
119	121	1
