5	5	2
119	119	9
115	115	3
123	123	8
154	154	5
4	143	1
150	155	2
99	99	6
55	55	4
111	113	2
44	45	2
126	126	6
67	67	9
40	41	2
117	117	4
155	156	5
139	139	12
12	12	5
146	146	7
137	137	7
120	120	6
151	151	6
130	130	8
88	88	10
75	75	3
97	98	1
96	97	2
47	47	9
100	100	3
125	125	10
103	111	1
84	84	3
68	68	2
26	27	1
34	38	2
54	54	5
102	125	3
132	158	2
44	44	3
42	42	15
27	32	4
50	50	3
8	8	6
95	131	3
132	142	3
137	138	2
157	157	8
6	6	6
23	23	10
106	106	4
91	91	7
13	14	8
108	108	12
147	147	7
88	89	2
46	71	7
122	122	5
66	66	7
37	37	4
73	73	9
25	35	2
84	86	1
33	83	1
1	5	4
118	118	13
127	152	3
11	28	1
105	105	2
113	113	5
124	138	2
82	82	7
0	0	4
7	8	3
67	68	2
10	12	1
33	35	1
98	98	11
73	74	1
113	114	2
41	55	3
43	43	8
32	32	3
71	71	4
140	140	14
117	124	2
65	65	2
6	149	2
131	131	7
49	51	4
30	30	7
27	27	4
81	81	6
25	30	3
136	136	5
49	49	11
155	155	3
107	115	2
110	110	4
38	47	3
36	37	1
68	69	5
152	153	2
35	35	4
64	64	7
87	88	3
39	39	3
117	148	2
16	16	9
8	14	1
108	118	2
16	18	2
93	93	6
4	4	3
103	131	4
14	14	5
132	132	8
85	86	7
82	83	7
53	53	7
89	89	5
150	150	8
94	94	6
46	47	1
102	155	1
129	129	2
32	37	3
76	83	1
20	20	9
144	147	2
118	124	3
51	71	2
76	77	5
44	47	3
36	36	8
15	16	4
1	1	4
46	46	4
109	110	4
152	152	7
90	90	1
83	83	9
145	147	4
108	109	2
17	17	3
52	53	4
57	57	3
47	48	1
3	4	5
153	154	7
135	136	5
128	128	4
27	28	4
82	115	1
114	114	5
146	148	7
3	3	9
133	133	2
119	122	1
134	134	7
76	76	3
40	43	1
26	140	1
22	42	2
29	30	1
125	126	8
97	97	1
104	104	3
120	154	1
106	156	2
40	40	4
119	120	2
124	124	1
114	115	3
23	25	2
145	145	1
38	38	4
25	26	6
21	31	2
121	145	1
31	31	4
127	127	5
107	107	4
109	109	1
4	7	2
61	61	1
80	80	5
13	13	6
111	153	3
77	79	3
92	94	1
22	25	3
92	92	6
118	153	5
69	70	1
16	37	3
83	85	2
48	48	7
133	134	3
13	36	2
15	31	3
26	28	1
80	85	1
106	108	1
125	133	2
2	26	1
102	102	2
29	29	3
95	96	1
30	31	3
131	133	3
33	36	2
9	10	2
87	134	1
148	148	9
7	29	1
45	47	1
101	101	2
25	27	1
81	83	1
103	103	4
78	78	3
45	45	5
11	12	3
102	114	2
52	52	7
24	25	2
132	140	2
141	141	2
87	87	7
5	7	1
2	151	1
137	157	1
95	132	6
136	137	2
112	112	6
50	52	1
140	147	1
158	158	4
134	141	3
81	84	5
24	24	4
101	105	3
80	81	4
79	79	2
94	134	2
104	133	3
85	85	3
106	107	2
21	21	3
34	34	3
69	69	1
144	145	2
149	150	1
140	141	3
132	146	1
150	158	2
22	22	5
85	109	1
77	77	5
15	15	5
102	128	1
135	135	3
116	116	4
26	26	6
56	56	3
15	37	4
28	28	3
7	7	4
3	12	2
158	159	3
98	121	1
143	143	4
30	138	2
86	86	4
25	25	4
75	81	1
147	148	1
144	148	1
147	153	2
3	9	7
98	100	1
102	116	1
121	121	1
104	105	2
111	111	3
112	113	1
20	23	1
35	39	1
57	71	2
77	78	1
108	117	1
46	77	1
96	96	3
15	38	3
142	142	3
30	36	1
33	34	2
2	2	4
28	45	1
12	36	2
105	107	2
86	91	2
131	132	1
17	18	1
144	144	2
5	6	4
77	90	1
32	36	2
4	141	1
12	13	2
135	142	1
62	62	2
10	10	1
94	95	3
54	57	1
70	71	1
107	112	1
49	90	1
37	38	2
113	155	1
50	51	1
49	57	1
30	81	2
28	29	2
90	91	1
93	94	2
107	116	1
156	158	1
46	81	1
4	11	2
29	45	2
9	9	2
95	95	2
51	52	3
105	140	1
123	124	3
153	153	2
92	93	3
102	104	1
18	18	1
42	53	1
2	4	1
83	84	1
103	125	1
8	149	1
156	156	1
48	50	1
48	49	1
121	122	1
145	152	2
67	69	1
144	146	1
16	17	2
130	131	2
81	82	1
103	115	2
51	51	2
53	54	1
31	32	1
77	80	1
23	24	2
149	152	2
116	124	1
9	11	1
18	20	1
6	36	1
104	134	1
42	75	1
139	140	2
91	92	1
24	41	1
14	141	1
73	75	1
107	108	1
19	19	2
54	67	1
48	57	1
5	157	1
117	119	2
52	68	1
108	112	1
6	7	1
35	41	2
132	147	2
35	40	1
98	120	1
134	158	1
8	9	1
118	123	1
2	27	1
69	71	1
142	146	1
136	140	1
82	108	1
136	143	2
5	138	1
134	135	1
103	154	1
7	154	1
3	11	1
11	17	1
56	64	1
141	144	1
19	29	1
127	128	1
20	43	1
21	141	1
115	116	1
24	26	1
115	137	1
