64	64	5
18	20	4
76	84	5
53	53	7
83	84	5
80	80	4
63	100	3
90	90	9
73	73	5
44	108	2
132	132	4
46	46	8
154	160	2
15	18	2
153	156	2
18	18	1
46	49	4
163	166	1
41	41	5
0	0	6
154	159	5
63	63	3
116	117	1
141	141	4
140	142	4
10	10	13
5	90	1
79	80	1
36	36	4
108	108	7
5	5	9
22	23	8
69	72	3
2	2	10
44	51	6
0	1	2
5	7	1
97	97	3
135	135	1
65	65	2
112	112	4
11	11	7
147	148	1
72	73	2
112	114	5
55	103	2
126	127	1
37	37	4
68	69	1
135	136	3
106	106	6
84	84	2
45	45	6
86	91	1
150	153	1
11	12	2
51	51	9
4	4	5
19	23	1
97	99	1
56	57	1
44	44	4
91	91	6
8	9	5
151	151	8
65	66	5
136	136	1
126	126	8
111	111	3
3	3	2
51	52	1
13	13	7
98	98	4
70	73	5
4	5	5
4	7	1
26	103	1
20	22	1
151	152	8
17	17	8
25	26	8
87	87	5
10	12	2
78	78	5
140	141	7
15	38	5
115	116	15
84	88	1
44	46	2
74	74	1
52	52	4
1	2	3
154	154	5
24	24	3
116	123	1
42	42	7
150	152	1
138	138	2
71	73	4
97	98	2
47	50	4
8	8	4
38	40	5
35	36	3
125	127	1
39	40	2
40	40	4
18	19	7
110	110	3
89	89	5
165	166	1
101	101	6
74	75	2
148	150	5
7	7	8
145	146	4
167	167	3
131	131	4
14	14	2
132	140	1
106	107	3
42	43	1
90	91	3
9	9	5
152	153	5
5	10	1
75	75	3
70	93	3
63	64	3
124	129	3
158	158	7
82	82	8
109	109	6
83	96	4
164	167	2
25	25	6
113	122	6
145	145	1
129	129	8
164	164	3
73	80	6
149	149	3
12	16	1
76	89	3
37	38	3
71	71	1
95	95	6
160	160	1
72	79	2
167	168	1
38	43	1
79	79	1
43	43	6
134	135	3
152	152	3
150	150	6
133	135	6
6	6	5
33	33	3
99	99	5
88	88	5
130	131	1
12	15	2
133	134	1
100	100	5
16	18	4
159	159	4
16	16	3
13	14	1
76	76	3
5	12	1
8	11	1
18	38	2
1	1	5
20	20	4
56	56	2
137	137	3
119	130	2
169	169	6
165	165	2
168	169	1
164	166	3
146	146	3
81	81	2
105	105	3
9	37	1
138	139	1
134	138	2
108	109	1
65	72	2
92	92	4
1	3	6
85	85	3
9	136	2
41	104	2
111	112	2
38	39	1
49	52	4
125	126	1
71	90	3
56	109	2
53	54	1
33	34	6
134	134	1
26	26	4
3	5	2
148	148	2
8	13	3
73	110	1
80	83	2
78	80	2
55	56	2
55	55	1
6	7	2
44	45	1
145	150	2
43	44	1
35	35	2
53	56	3
127	128	2
49	49	3
149	150	1
121	121	5
6	12	1
165	167	3
12	12	1
83	83	2
95	110	1
92	93	2
47	48	1
22	22	1
23	23	2
19	19	3
113	113	3
28	28	2
75	79	1
21	21	2
2	25	1
19	20	2
98	102	1
142	142	1
69	89	1
107	107	1
141	142	1
5	15	2
132	135	1
162	162	1
168	168	3
42	56	1
153	163	1
12	14	1
112	113	2
39	39	2
34	34	3
117	117	1
77	78	1
110	111	1
139	139	1
53	55	1
3	4	1
113	123	1
39	99	1
7	8	1
33	35	1
162	164	1
86	86	1
