85	85	22
28	28	21
191	192	6
66	66	22
124	124	6
168	168	3
171	171	14
112	112	6
65	65	19
45	45	4
177	177	8
213	214	1
178	178	12
43	109	6
152	157	2
73	240	1
139	140	3
26	26	12
150	150	7
54	55	9
84	85	4
197	198	7
36	36	13
9	9	13
33	33	12
50	54	3
97	97	17
120	135	4
134	136	3
233	234	2
3	36	1
118	126	3
0	0	8
76	76	11
149	149	6
103	109	1
167	176	4
69	89	5
181	196	3
96	106	3
100	100	8
101	101	22
220	221	3
133	133	9
61	61	15
141	141	10
208	210	1
151	151	7
200	200	9
67	67	11
70	70	16
32	32	14
185	186	6
37	37	11
217	217	4
50	50	7
4	6	5
12	14	3
16	17	11
1	1	11
118	118	9
24	24	15
81	81	11
89	89	3
83	83	10
138	139	2
231	231	23
36	37	6
20	47	3
106	106	10
1	19	1
103	105	6
149	172	2
63	63	9
7	7	14
80	80	18
5	6	3
91	91	5
43	43	15
50	51	5
31	31	13
178	180	4
152	179	7
149	179	2
163	169	2
179	179	5
193	193	5
189	189	14
57	58	3
7	8	9
13	14	3
13	13	8
215	215	14
201	201	7
4	12	9
71	71	7
143	143	11
98	98	8
43	68	1
51	51	5
154	183	1
172	172	6
139	139	4
180	180	8
152	152	9
2	2	13
219	219	12
114	116	3
50	57	1
217	218	10
104	104	14
20	20	22
25	25	19
224	224	17
89	100	1
117	117	9
77	79	5
174	174	13
116	116	10
47	47	12
42	42	20
137	138	6
107	107	13
101	103	1
208	208	2
156	157	1
137	137	5
145	167	6
134	134	11
1	37	1
147	163	4
228	228	8
128	128	18
12	13	14
140	140	11
99	99	9
28	36	5
162	163	1
77	77	4
169	169	7
23	66	2
229	229	9
45	66	1
119	125	3
182	182	3
35	35	8
29	29	21
78	78	6
21	139	1
82	82	8
4	7	6
229	230	3
30	30	5
64	65	2
65	110	2
20	21	5
151	152	5
235	236	3
176	177	3
4	231	1
0	1	8
127	133	2
18	18	4
4	5	7
18	19	9
202	202	6
237	237	3
34	80	1
199	199	3
3	3	6
203	214	2
72	72	19
40	40	9
9	10	3
73	74	3
194	195	5
220	220	9
221	222	3
43	85	3
214	215	4
128	133	4
10	46	2
205	205	3
25	26	7
42	86	1
121	121	6
181	181	8
75	76	7
96	116	2
102	103	1
240	240	11
8	8	8
41	41	10
187	188	4
236	236	6
9	81	2
147	153	1
21	21	10
3	5	5
68	69	2
189	216	3
49	49	5
57	57	7
232	232	6
48	48	6
228	230	2
86	86	6
153	153	5
186	186	6
191	191	6
198	198	3
34	36	8
171	234	2
10	24	2
19	21	3
145	146	5
222	222	7
102	102	7
33	36	1
14	14	6
21	23	1
31	32	1
142	142	7
75	75	9
23	23	3
144	145	5
89	91	1
74	75	6
216	216	8
82	83	5
58	60	5
46	46	6
164	164	4
196	196	7
220	222	4
113	113	3
160	161	6
5	7	11
39	39	19
238	238	15
129	129	10
184	187	3
201	203	10
2	23	3
102	109	2
32	55	2
130	200	1
44	67	8
19	19	4
15	15	2
150	171	5
161	161	7
84	84	9
70	71	7
31	33	3
4	4	4
169	170	5
6	7	3
176	176	5
22	34	1
105	105	11
227	227	3
12	47	2
135	136	2
2	19	4
69	69	14
2	18	3
68	106	5
18	20	3
207	207	7
197	197	11
12	12	18
74	74	15
154	154	14
115	115	12
169	171	1
54	54	7
198	220	3
62	64	4
72	73	4
2	3	8
193	194	2
163	164	1
64	122	3
195	238	7
46	47	9
37	157	5
32	226	1
147	147	3
183	183	7
27	67	4
204	204	6
214	214	12
56	56	9
198	200	3
230	230	9
175	175	9
65	172	1
28	232	1
158	158	3
38	53	1
45	67	3
44	44	7
166	166	4
206	219	6
19	20	5
153	239	3
120	121	2
154	155	8
196	197	2
163	168	2
166	198	3
209	220	1
36	57	1
22	36	3
17	18	5
58	59	3
60	60	15
118	119	4
32	33	2
47	50	1
64	64	3
84	95	3
61	153	7
134	143	2
45	46	1
157	157	12
118	127	2
218	218	4
16	36	2
147	149	2
202	203	4
173	174	1
184	184	5
130	130	6
41	48	1
20	61	3
123	131	3
170	176	2
65	73	1
155	156	3
215	216	3
59	60	8
162	181	2
136	137	3
38	39	1
165	165	5
57	155	3
89	102	1
79	79	6
219	220	5
95	95	6
27	27	23
234	235	2
116	127	1
130	162	1
184	193	4
235	235	7
58	58	13
88	89	4
152	162	4
203	203	11
166	176	2
77	78	1
109	110	6
0	36	2
207	208	3
130	131	2
16	16	7
122	122	3
127	127	6
24	74	1
136	136	6
210	210	4
190	197	2
25	27	2
59	59	9
109	109	6
96	96	4
25	62	4
238	243	2
147	148	4
157	159	5
15	16	5
55	55	10
153	154	2
123	123	4
123	133	3
51	78	3
10	36	1
146	146	2
37	38	4
162	180	2
175	177	3
54	74	1
125	125	10
73	86	1
194	194	3
146	162	2
185	185	1
114	115	4
110	124	1
103	103	11
206	206	1
144	171	3
228	229	3
201	219	3
62	62	5
71	75	2
66	67	1
38	160	3
181	186	1
10	10	6
155	160	2
212	212	8
73	73	9
1	33	1
194	226	1
63	64	8
17	17	7
121	127	3
64	67	1
138	142	3
117	118	3
228	234	2
211	211	3
232	233	5
105	106	2
100	105	2
192	193	4
190	190	8
22	138	1
75	83	1
116	117	4
48	49	4
150	151	4
110	110	1
52	53	5
36	82	1
68	68	7
156	156	3
213	229	1
160	160	3
174	233	4
55	68	2
178	183	2
167	168	3
38	38	6
173	173	3
206	231	1
120	120	7
56	57	4
118	125	2
88	88	8
133	134	1
81	84	2
10	62	10
125	126	4
42	43	1
51	52	10
155	155	2
181	182	6
22	139	3
70	88	1
137	140	5
8	231	1
234	234	4
162	182	3
165	190	2
164	183	1
53	61	3
7	18	3
32	61	2
233	233	4
22	22	14
30	31	3
205	223	4
28	62	1
6	80	1
50	53	1
146	147	5
101	105	3
49	50	4
78	79	3
9	47	2
22	23	7
9	18	1
140	142	3
113	118	3
208	209	1
26	242	4
28	29	2
107	108	3
168	184	2
95	102	1
28	73	2
44	69	1
126	126	2
52	52	6
83	84	2
152	153	1
44	45	1
18	23	2
198	222	1
10	242	4
11	11	4
57	74	2
226	226	10
52	79	3
183	232	1
39	85	2
98	101	2
181	187	1
226	228	2
205	206	4
4	8	6
42	72	1
211	219	3
163	163	2
206	220	1
210	211	1
45	73	2
170	170	5
155	181	1
182	220	2
203	204	2
225	225	7
218	225	2
62	63	3
114	114	3
134	137	4
187	187	3
184	188	6
34	34	4
12	21	1
217	223	2
154	157	1
121	180	5
221	221	5
26	27	1
145	145	1
56	60	2
54	60	1
225	226	2
65	66	3
182	183	3
119	119	2
77	88	1
153	183	1
168	169	3
153	175	6
48	232	2
24	25	1
87	88	1
188	190	3
18	34	1
91	99	1
226	227	2
211	218	2
205	207	4
168	177	2
27	64	1
151	163	1
22	66	2
27	28	5
12	15	1
39	84	1
79	80	4
17	19	1
41	42	3
22	37	2
39	42	2
83	88	4
4	9	3
149	150	1
78	80	3
206	209	1
236	241	4
128	134	3
74	76	4
192	192	5
61	66	1
155	159	2
3	18	1
77	80	2
162	162	3
70	99	3
86	102	1
162	170	1
150	174	1
186	187	1
7	75	2
53	62	1
138	138	2
69	70	3
11	13	4
102	105	3
98	99	1
6	6	3
188	188	2
40	42	2
154	158	2
44	63	1
44	65	2
170	175	4
39	74	1
150	152	3
190	191	2
156	158	2
166	200	6
76	80	1
101	114	3
143	236	3
209	210	1
117	126	2
22	65	1
135	159	1
108	108	1
122	124	1
187	192	1
34	35	5
2	8	3
147	179	1
159	159	3
3	4	1
147	162	2
95	96	1
140	141	3
133	143	3
144	144	2
69	99	4
125	127	1
171	172	1
144	148	2
207	209	2
100	101	3
10	47	1
39	41	1
199	218	1
223	224	2
103	108	5
199	217	1
137	142	3
80	81	3
76	77	2
95	98	1
14	18	1
16	56	2
21	22	1
30	33	1
163	186	1
195	196	2
61	142	1
189	199	1
54	68	1
6	18	3
62	237	1
202	204	1
51	53	2
158	159	1
141	142	1
61	62	2
206	207	1
36	38	2
95	116	1
56	75	1
131	131	1
11	36	1
167	169	1
77	81	2
103	104	3
52	82	1
181	229	2
211	216	1
232	234	1
53	53	2
0	34	1
40	41	3
140	143	1
169	180	1
147	151	2
64	69	2
39	52	1
10	25	1
184	185	2
167	200	1
5	5	1
115	129	1
144	146	1
11	14	1
24	161	2
50	76	2
225	227	1
180	181	1
27	65	2
80	84	1
207	220	1
33	34	2
237	239	1
167	167	2
96	101	1
63	66	1
10	241	1
171	233	1
0	32	1
73	242	1
113	115	2
32	196	1
11	17	1
40	85	1
45	64	1
187	197	2
24	61	2
163	180	1
206	223	1
45	63	1
49	76	1
6	9	1
123	124	2
85	102	2
76	81	1
35	226	1
241	241	1
191	193	1
82	84	1
6	8	1
134	149	1
172	232	1
201	215	2
47	84	2
15	17	1
88	110	1
112	113	1
204	223	1
226	230	1
64	73	1
213	213	1
30	32	1
