5	5	12
63	63	9
53	53	10
8	9	3
99	99	8
12	12	16
90	90	11
132	132	14
53	68	5
4	4	11
80	80	16
19	19	6
58	95	6
92	92	16
15	22	2
25	25	6
81	81	16
107	107	17
122	122	15
13	14	3
59	59	13
24	24	12
85	88	1
34	34	2
57	58	2
89	89	21
79	81	4
120	120	9
56	56	20
39	39	12
38	38	11
1	7	3
13	13	6
53	54	10
50	50	29
41	42	5
102	103	3
52	67	7
51	52	1
88	113	2
126	127	4
109	109	21
60	61	11
113	124	1
79	79	18
68	111	4
81	82	11
114	114	11
66	66	3
94	95	9
67	67	12
47	47	16
85	102	5
28	28	10
98	103	5
64	109	2
64	64	20
111	111	10
18	18	13
67	103	6
82	82	12
3	3	26
29	29	6
21	21	10
127	127	19
62	62	17
45	47	6
15	15	4
105	105	21
33	34	8
99	102	2
43	43	18
94	99	1
74	74	18
97	97	21
116	116	11
96	96	17
2	2	10
11	11	10
76	76	10
13	19	6
10	11	2
90	120	2
94	94	15
101	124	7
46	46	15
113	132	1
125	125	28
7	7	18
41	41	11
14	14	18
66	73	6
110	110	7
57	57	21
103	103	7
42	78	3
86	86	10
24	43	6
65	65	22
34	44	2
106	106	30
14	15	4
104	104	4
107	108	8
117	117	18
75	75	16
128	129	2
124	124	17
32	33	9
87	87	5
95	101	6
82	83	2
62	85	8
98	99	10
32	32	4
105	106	11
58	59	3
55	55	9
6	6	8
19	21	9
7	8	6
93	93	22
97	99	2
43	45	5
44	52	3
0	0	19
79	82	4
40	40	21
84	84	12
85	86	9
60	60	3
48	48	13
73	73	10
95	95	18
72	108	1
78	98	1
126	126	8
12	13	7
43	113	1
81	84	1
7	30	3
48	51	6
98	98	14
77	77	7
24	25	1
22	22	5
123	123	19
75	109	2
73	94	1
70	70	6
44	44	12
69	84	3
58	91	1
89	119	2
16	17	2
30	30	17
61	61	20
85	85	11
129	129	9
106	132	2
131	131	8
45	45	14
42	42	15
83	84	16
1	1	8
123	124	1
90	91	8
34	43	4
75	119	1
121	121	15
95	96	10
67	73	2
54	113	3
72	72	5
34	45	2
54	54	12
83	83	8
25	26	10
101	101	11
3	8	1
17	17	18
99	100	1
80	119	6
104	110	1
0	1	4
9	9	11
108	108	10
133	133	2
49	49	18
127	129	2
18	22	1
125	130	6
117	120	2
8	8	11
62	83	5
86	88	5
63	66	9
95	119	4
116	117	7
74	109	2
83	85	7
52	102	8
87	110	2
113	113	10
120	122	2
127	130	1
88	88	18
117	118	5
20	20	4
28	108	1
79	107	2
102	127	3
28	29	5
101	102	1
87	118	4
46	52	3
58	62	3
102	102	16
63	72	5
130	131	2
22	51	1
88	89	3
96	100	2
48	49	1
26	26	9
48	52	3
69	98	1
23	23	9
73	120	3
97	98	10
119	119	6
68	68	13
0	2	6
95	116	1
23	24	2
38	62	3
94	119	2
69	69	7
131	132	5
122	123	3
76	80	2
23	25	5
113	133	4
52	54	6
52	53	10
69	70	2
30	101	4
72	119	2
91	107	1
80	128	3
100	119	2
63	90	3
67	72	3
65	66	2
44	74	6
100	100	7
57	89	2
125	132	5
58	70	3
2	5	1
70	95	4
10	10	8
130	130	12
46	47	5
88	114	1
118	118	16
91	125	1
22	45	1
34	48	2
72	73	2
67	115	1
78	78	10
86	126	4
88	109	1
72	74	1
29	66	3
51	51	10
27	63	3
24	41	1
91	103	2
5	13	4
62	99	1
61	62	1
16	16	5
82	84	5
104	105	5
129	130	6
111	112	5
76	77	1
27	27	7
89	91	2
78	97	2
39	45	1
57	69	2
74	88	3
66	68	3
76	125	2
19	20	3
44	47	2
104	107	1
2	21	1
50	51	8
114	116	3
2	71	2
91	92	1
30	67	1
8	40	2
74	75	1
39	47	3
24	46	5
31	33	6
75	76	4
126	130	3
7	29	4
14	18	1
110	111	2
17	18	1
80	95	1
2	3	4
112	112	7
38	40	2
39	66	4
121	122	2
75	82	2
41	80	2
86	87	3
106	107	4
60	97	1
117	119	3
41	81	3
73	75	1
44	45	7
5	7	4
63	65	1
74	85	2
42	79	3
109	110	6
97	102	2
71	71	9
50	58	1
30	32	1
58	90	4
91	91	11
66	117	1
98	111	4
45	46	2
75	80	3
80	90	2
55	56	7
97	100	5
47	53	1
19	51	2
66	94	3
70	105	2
4	5	2
113	130	1
59	63	1
77	103	1
57	96	4
128	128	4
0	9	3
93	94	4
54	94	1
108	111	3
59	102	2
113	131	1
97	113	1
33	33	7
87	120	2
45	51	4
126	131	3
5	12	3
48	53	1
96	97	2
105	116	2
64	65	1
90	108	3
67	94	2
55	61	3
55	119	2
46	48	2
54	56	1
65	72	3
70	76	1
85	109	2
47	51	1
2	20	1
45	52	2
126	128	1
72	116	2
52	52	5
91	108	1
97	103	2
5	25	3
40	81	1
82	89	2
66	116	2
58	112	1
51	102	2
99	116	2
74	108	1
58	92	2
98	116	1
58	58	6
125	129	2
99	103	3
52	55	4
42	113	1
45	99	3
61	97	1
15	24	1
94	97	1
56	90	1
116	118	3
17	26	1
101	116	1
40	41	2
83	93	2
81	119	2
6	13	4
22	25	1
96	124	5
107	111	1
80	129	1
43	44	1
85	118	2
108	130	1
2	17	4
72	78	2
97	119	1
78	124	2
69	90	1
47	54	1
5	23	1
82	125	1
103	128	1
20	25	1
14	33	1
73	117	1
87	88	2
115	115	3
60	103	1
3	4	3
46	102	2
78	79	1
18	21	1
73	74	3
113	114	1
6	23	5
90	125	1
4	16	1
115	116	1
83	86	1
47	102	2
132	133	3
21	22	1
51	67	2
56	69	1
127	128	3
118	126	2
73	119	1
17	23	1
63	99	1
4	8	1
34	53	1
85	89	1
89	111	1
100	111	1
15	31	1
66	86	3
58	68	2
68	69	1
80	109	1
101	115	1
24	61	1
84	103	1
67	117	1
93	118	1
74	87	1
59	91	1
43	114	1
42	43	1
80	81	3
61	102	1
77	127	2
61	99	1
80	113	1
57	90	1
68	98	1
14	32	1
27	28	2
84	102	1
71	77	1
37	38	1
11	12	1
15	23	1
62	84	1
46	56	2
20	26	1
29	80	1
62	63	2
63	98	1
58	65	1
71	72	1
101	118	1
121	123	1
85	90	1
69	112	1
129	133	1
31	31	1
114	115	1
112	115	1
61	84	1
124	125	1
