122	123	3
7	9	2
140	140	6
94	94	16
8	8	4
18	18	6
72	72	13
78	80	3
86	88	7
33	33	16
1	1	2
116	121	4
127	127	16
108	109	4
107	107	1
120	121	5
97	97	2
134	134	15
132	133	2
13	14	2
19	19	8
100	100	13
101	101	13
90	90	4
71	71	8
22	29	2
3	3	13
103	103	4
105	106	3
17	17	4
137	138	13
124	125	6
123	124	5
28	36	2
124	124	15
3	82	2
117	117	10
1	13	2
9	10	5
28	28	8
2	2	8
4	4	7
138	138	7
128	128	17
114	115	4
8	9	5
109	109	15
126	126	8
8	30	4
132	132	11
118	119	9
102	103	3
88	88	14
124	128	2
84	87	1
20	21	2
7	12	4
0	5	2
96	97	2
111	111	13
0	0	6
2	29	3
35	35	12
115	115	4
86	86	7
101	103	3
129	129	8
28	29	7
88	96	1
116	116	14
12	12	8
89	89	5
36	90	1
101	102	6
18	26	3
121	122	6
7	7	3
131	131	6
135	136	6
123	123	11
118	120	2
15	15	6
73	81	4
91	91	6
105	117	3
84	84	7
125	126	4
111	120	1
3	4	7
32	32	4
109	113	3
73	73	8
119	119	11
8	24	1
122	122	18
85	88	4
36	36	7
16	16	5
21	21	9
2	3	2
14	14	18
25	25	4
4	5	9
125	125	9
30	31	1
87	87	11
32	33	1
79	79	13
121	121	4
3	13	1
133	133	6
23	23	12
127	134	2
5	5	20
110	110	10
105	105	9
105	139	2
124	126	2
18	123	1
1	2	5
13	13	7
38	38	8
93	94	5
76	76	7
37	37	4
75	85	2
34	34	11
119	122	1
7	19	2
130	130	24
31	31	1
83	84	3
75	95	3
95	124	2
108	111	2
138	139	2
93	101	2
81	85	1
27	31	2
110	111	3
26	26	4
104	104	10
1	7	2
104	107	5
21	22	1
75	75	2
77	77	7
27	27	7
82	82	7
119	120	2
1	8	5
136	136	10
17	20	1
2	4	1
98	100	2
127	129	3
131	132	4
15	18	3
104	105	2
19	32	1
93	99	3
82	83	1
114	114	7
18	23	1
118	118	5
113	115	2
99	99	10
6	6	9
92	93	3
106	106	7
15	26	1
73	74	2
120	122	2
29	29	3
128	129	4
108	108	5
129	130	5
136	137	2
98	98	2
9	9	4
22	23	2
93	93	2
105	112	3
71	72	2
14	15	4
93	100	3
11	11	4
30	30	3
74	74	5
29	30	4
5	8	2
137	137	3
96	98	3
96	96	6
112	112	5
32	38	1
103	119	2
98	107	2
120	120	5
89	101	1
3	7	2
126	127	4
133	134	6
78	79	4
27	28	2
27	33	4
135	135	3
92	92	4
3	11	1
29	31	2
113	113	5
74	75	2
72	141	1
19	20	2
74	113	2
135	140	2
21	33	1
109	119	2
27	29	4
131	135	2
99	133	2
83	85	2
71	87	1
112	116	1
76	77	2
84	102	1
113	119	2
87	88	1
16	17	2
10	12	2
98	122	2
78	78	3
127	128	2
109	110	2
139	139	3
91	110	2
5	6	3
14	25	2
72	85	1
98	99	1
77	89	1
11	12	2
5	13	5
14	17	2
17	18	2
74	126	3
34	35	3
3	8	1
78	116	1
117	118	4
78	101	2
86	102	2
84	85	3
5	7	1
19	26	2
140	141	2
77	80	1
30	116	1
9	117	1
81	81	5
108	110	1
28	30	3
134	138	2
8	12	2
83	83	2
102	104	1
4	7	1
78	109	1
112	113	2
71	80	1
93	119	2
22	28	1
121	123	2
91	92	2
19	134	2
72	82	1
12	16	1
22	22	1
0	24	1
77	95	1
20	20	1
95	95	2
7	112	1
111	114	1
125	130	1
134	135	1
92	100	1
135	138	1
26	27	1
24	24	1
12	13	1
35	89	1
77	79	2
21	29	1
102	105	1
75	103	1
20	38	1
14	33	3
1	113	1
25	30	1
130	131	1
27	36	1
100	103	1
117	122	1
89	90	1
17	19	1
23	24	1
99	100	1
36	37	1
90	119	1
116	117	1
123	127	1
23	26	1
93	103	1
