53	54	6
13	13	8
15	15	7
27	29	2
152	153	5
147	147	10
170	172	2
12	12	14
49	49	22
133	135	5
99	99	10
159	159	11
53	53	9
51	51	10
4	5	3
192	192	11
129	152	4
41	41	11
184	184	7
55	56	8
17	18	5
119	119	18
181	181	11
97	97	5
59	59	8
127	127	17
65	65	6
131	131	15
138	154	3
185	185	7
161	161	27
112	112	7
74	74	4
75	75	1
157	161	4
54	54	10
114	114	3
20	20	8
124	125	7
9	9	11
105	148	2
6	6	9
129	130	1
116	116	13
139	139	18
45	45	18
44	47	1
149	149	12
51	52	2
120	120	19
30	31	5
180	180	26
183	183	13
152	193	3
5	5	16
168	169	14
2	33	4
105	136	2
155	155	11
39	39	10
151	152	7
134	134	11
24	24	6
191	191	13
176	177	6
177	177	33
124	124	11
188	192	3
37	37	17
158	158	5
11	11	13
140	140	6
180	181	2
49	53	3
176	187	1
176	176	17
61	74	7
179	179	10
125	125	6
178	178	8
23	31	3
186	186	14
104	104	8
79	79	5
82	97	2
122	184	1
193	194	5
143	143	1
139	155	3
169	169	10
188	188	13
27	27	12
160	160	15
167	167	6
164	170	3
3	4	4
159	160	5
96	97	3
25	25	8
57	57	4
125	126	4
140	190	3
119	120	6
157	157	21
99	120	3
186	187	12
136	170	5
149	150	5
34	34	15
18	18	4
154	167	3
41	42	6
147	148	10
166	178	2
185	186	2
136	137	3
118	118	7
40	40	11
128	128	17
83	84	2
54	69	1
119	121	4
46	46	11
124	195	1
52	52	6
165	166	2
16	16	10
131	132	3
171	171	12
50	51	2
164	166	9
14	14	10
126	126	9
196	196	24
151	151	11
178	180	10
42	170	4
184	186	5
155	156	6
113	113	11
171	172	5
1	2	2
189	189	10
173	174	5
122	122	7
187	187	20
10	15	1
106	106	13
136	136	3
128	187	3
5	6	9
108	108	5
108	110	3
148	148	10
49	50	2
78	78	9
107	107	10
23	171	6
98	98	7
134	140	5
142	142	7
130	130	6
123	123	10
86	88	5
81	82	5
172	172	7
173	173	25
175	175	8
73	73	7
187	188	3
137	171	2
65	167	3
50	50	7
52	66	2
170	170	14
139	141	4
8	8	7
47	48	1
137	137	8
150	151	4
193	193	14
109	110	3
29	30	4
81	113	1
132	133	5
55	55	8
70	71	5
182	185	1
20	21	2
190	190	12
125	127	2
33	33	16
70	70	1
105	105	12
164	164	7
163	164	3
185	193	8
145	157	3
21	21	6
0	0	1
145	145	6
123	124	1
168	168	8
110	110	15
165	165	1
182	182	12
45	46	3
144	146	3
166	166	20
2	7	1
162	162	12
48	49	2
30	187	1
107	118	2
195	195	8
47	126	1
40	41	6
197	197	10
100	100	5
119	135	2
182	183	3
37	38	4
133	133	5
106	150	2
152	152	7
114	119	2
137	194	2
44	44	6
52	53	2
53	55	4
54	55	1
12	13	2
80	81	2
143	156	5
43	43	4
150	150	15
106	107	6
136	171	5
142	145	5
32	32	4
23	23	4
48	54	1
136	161	5
1	1	10
149	152	2
141	141	6
154	155	4
111	111	10
138	139	7
10	10	9
11	13	1
88	128	5
156	156	9
95	97	4
153	153	7
134	139	4
55	60	1
176	178	3
87	88	2
99	118	4
163	163	5
84	84	3
62	67	1
146	148	1
60	62	2
182	193	1
16	17	3
25	27	5
186	188	6
24	142	1
195	196	3
143	145	1
12	14	2
177	178	3
133	171	1
56	57	4
26	26	4
41	44	1
128	129	3
111	112	5
177	179	1
58	59	5
174	174	6
169	170	1
144	144	5
42	42	7
125	193	1
44	45	2
132	132	8
59	60	2
23	183	5
183	184	4
143	163	2
171	183	2
168	177	2
23	24	6
13	14	3
130	143	3
121	121	2
4	4	7
167	173	1
81	81	5
82	82	4
115	115	4
71	71	6
2	2	7
7	7	4
139	140	10
16	188	1
85	85	1
115	116	1
152	189	1
181	185	2
32	56	1
63	64	3
47	47	7
57	139	2
94	102	2
19	19	8
129	129	9
69	69	4
173	178	2
94	94	7
102	105	3
0	1	9
191	192	1
187	193	3
35	35	1
180	193	2
40	44	4
29	29	5
55	76	4
16	45	3
141	142	4
79	80	5
11	12	1
56	56	3
22	22	4
168	173	1
58	58	13
21	43	1
76	76	4
68	68	4
38	55	3
30	30	6
178	197	1
142	149	3
43	46	3
160	162	1
72	111	1
163	166	2
158	159	2
61	62	2
136	138	1
107	109	2
105	106	6
184	189	1
15	16	4
79	98	2
194	194	3
43	47	4
167	168	6
76	78	2
122	149	2
138	140	1
2	3	4
26	39	1
117	117	3
100	101	3
17	17	2
18	19	2
104	105	2
88	88	4
96	96	2
34	35	1
105	107	1
48	48	9
125	192	1
144	145	4
33	34	3
8	9	1
179	183	4
161	162	3
9	12	3
42	43	1
190	191	4
136	172	2
33	38	1
133	145	1
163	182	2
178	179	5
137	139	3
192	193	2
157	158	4
124	128	1
97	99	1
112	113	3
142	143	2
4	9	1
112	127	2
135	137	4
36	36	5
67	68	2
121	123	2
133	165	2
196	197	1
80	160	2
12	15	2
117	118	4
167	195	1
36	37	1
160	164	1
39	69	1
138	138	14
131	192	4
86	86	5
38	38	6
32	33	1
62	72	1
172	173	4
12	197	2
3	3	5
23	130	4
80	80	3
68	70	2
127	128	1
62	62	5
86	87	3
153	154	4
139	147	2
141	169	3
30	68	2
87	87	1
111	113	1
29	31	1
194	195	1
72	72	7
184	185	2
39	59	1
0	40	2
25	26	2
41	43	3
148	149	1
26	27	2
7	8	2
155	167	1
108	116	3
102	103	2
109	109	5
116	117	3
9	10	4
130	152	1
18	181	3
145	146	2
41	68	1
157	191	1
188	189	4
59	71	1
139	146	2
131	133	1
88	90	2
112	115	1
3	33	3
60	61	2
169	183	1
164	165	1
28	28	1
172	182	2
15	28	1
117	148	4
28	30	1
159	161	1
73	75	2
186	195	2
146	146	3
28	31	2
79	120	2
103	150	2
47	56	1
120	121	2
15	169	3
138	141	2
135	135	6
59	62	1
123	150	1
118	123	1
101	101	1
126	127	1
119	128	1
2	36	2
21	22	1
111	115	1
80	95	1
94	95	1
148	183	1
161	163	1
122	127	1
29	166	1
10	11	1
158	161	1
89	89	1
61	65	1
175	181	1
6	8	1
84	85	1
113	114	3
54	120	1
76	82	1
103	104	1
20	176	2
174	175	1
102	102	3
170	171	1
64	64	1
102	152	1
85	88	2
119	124	1
174	176	1
161	164	2
38	100	1
162	164	1
11	196	1
189	191	1
73	86	1
4	6	3
130	131	1
175	176	1
179	181	2
101	102	1
19	42	1
29	64	1
39	97	1
1	7	1
148	186	1
156	158	1
69	111	1
143	154	1
99	107	1
156	157	1
40	42	1
61	77	1
103	149	1
133	134	1
