125	126	4
37	38	2
4	4	18
63	64	3
112	114	8
18	19	6
83	135	1
110	110	10
42	42	14
124	159	6
94	94	19
50	50	18
116	116	10
22	22	1
21	38	14
96	127	4
113	113	16
99	120	2
106	106	20
17	43	3
90	90	7
26	26	7
78	78	15
34	34	10
143	164	3
51	51	20
112	117	5
46	46	6
25	25	13
109	110	4
81	82	10
124	130	1
44	44	9
41	41	5
3	10	2
81	81	13
111	153	1
114	115	1
140	140	12
160	161	8
86	86	9
21	24	1
45	46	5
77	77	8
101	101	9
78	79	8
40	40	5
128	128	5
155	156	6
125	159	3
75	75	4
116	153	1
44	45	5
108	147	6
129	130	10
102	102	7
139	142	5
111	111	5
139	139	11
12	12	14
11	11	13
73	87	7
13	13	9
106	135	5
47	47	9
165	167	1
113	160	9
151	152	3
15	15	12
138	138	13
150	150	9
21	50	1
10	13	3
85	101	3
134	134	4
154	154	10
70	70	12
24	24	7
89	133	3
109	109	14
4	7	1
119	121	5
137	146	7
47	62	2
146	146	6
49	49	15
137	139	7
143	144	1
54	63	5
134	135	1
23	40	4
36	36	12
71	86	2
160	160	9
4	48	2
108	109	2
66	66	14
129	169	3
105	105	15
101	127	2
126	136	5
64	64	7
77	79	1
73	75	8
42	53	3
163	163	14
47	49	2
69	70	1
8	8	5
104	104	8
76	78	4
169	169	8
89	90	11
97	97	9
113	114	4
136	136	4
62	63	5
109	137	3
100	101	4
52	52	11
118	118	10
67	67	6
106	110	3
33	33	12
43	43	24
2	54	1
71	71	11
132	133	6
100	100	7
123	155	2
111	149	6
73	73	10
3	3	11
137	137	7
155	155	7
162	162	3
159	160	5
73	86	2
22	51	4
17	17	5
115	115	6
141	141	7
83	112	2
117	118	5
164	164	5
6	6	9
138	139	3
107	157	5
1	1	12
133	133	4
10	10	12
4	5	2
43	44	8
119	164	2
2	2	9
165	169	3
87	87	6
71	74	2
79	103	3
84	89	1
87	161	3
35	35	12
16	24	2
22	40	3
84	97	1
71	114	3
24	135	4
77	81	1
163	166	6
151	151	5
16	16	8
95	96	2
142	142	6
58	83	4
54	54	2
2	57	1
168	168	5
162	164	4
125	125	7
99	111	1
67	71	4
38	46	3
119	119	4
120	120	4
47	48	3
83	83	5
63	63	3
38	38	7
8	75	3
27	27	9
19	49	2
96	96	6
19	19	13
82	82	12
6	17	1
115	162	2
90	94	3
68	68	9
90	91	10
85	96	1
139	140	3
20	20	8
3	11	2
148	149	8
39	52	3
158	158	4
34	35	2
5	5	3
70	89	5
74	76	1
1	2	9
24	28	8
26	37	6
79	80	5
0	24	3
108	134	1
83	104	4
111	123	3
161	161	4
82	100	4
123	124	2
106	107	2
83	98	1
152	152	11
101	102	5
131	131	4
98	99	2
85	86	1
2	23	2
158	161	1
18	38	2
94	127	5
83	109	2
92	133	1
123	125	2
89	113	2
20	21	3
35	36	1
144	144	4
5	17	2
12	66	2
62	62	4
76	76	4
53	56	2
69	89	3
153	153	3
157	157	6
53	54	2
48	48	11
119	165	2
82	109	5
87	96	5
37	37	13
14	15	5
153	154	3
5	6	7
167	168	4
87	126	1
21	51	2
70	71	3
127	142	3
6	7	7
85	123	2
147	147	6
69	98	1
38	40	3
110	142	4
149	151	3
123	123	8
121	121	2
164	165	2
89	89	7
117	117	2
163	165	1
64	65	3
91	91	6
136	145	2
75	76	2
66	68	2
17	37	2
165	168	3
33	109	5
7	7	9
77	100	1
115	163	3
98	123	3
19	20	5
108	108	5
130	130	15
156	156	7
33	34	8
24	49	3
9	9	9
132	142	1
41	52	1
85	85	3
25	27	3
17	18	4
129	131	2
84	84	2
116	117	2
105	135	1
49	51	5
107	149	2
92	92	8
23	23	5
57	61	1
90	125	1
144	155	4
81	104	2
67	68	1
112	112	4
126	126	2
85	87	1
39	40	3
38	41	5
78	84	1
58	58	1
8	13	1
41	43	1
123	163	1
7	45	1
131	141	2
44	46	1
14	14	8
96	97	1
136	149	1
81	84	7
129	129	1
1	58	4
122	122	6
72	109	4
92	93	3
74	74	6
123	156	3
99	116	2
78	85	5
108	149	2
143	143	2
123	131	1
137	143	1
133	134	5
91	92	1
99	100	4
90	95	2
98	98	9
6	16	2
125	130	3
81	83	1
51	52	5
119	142	2
114	161	1
76	160	2
78	86	2
15	134	1
80	116	4
80	80	4
57	62	2
23	39	2
81	114	1
11	12	2
98	125	1
103	103	7
81	86	2
64	66	2
0	0	3
64	88	2
127	136	2
56	131	1
139	141	1
135	135	6
50	51	2
84	104	1
84	114	1
106	109	5
80	138	2
117	167	1
125	135	3
93	94	3
88	88	2
116	163	1
148	157	1
19	40	2
114	114	3
126	131	2
16	17	2
63	88	2
110	117	2
132	141	1
6	93	2
95	95	4
53	53	7
107	108	5
112	122	2
98	115	1
142	144	2
114	155	3
15	16	3
87	88	2
132	134	1
12	93	3
128	129	2
118	142	2
21	21	1
74	98	2
0	1	2
132	139	1
127	127	1
140	141	1
98	133	1
122	143	1
77	102	2
69	69	3
14	19	1
49	54	2
97	98	2
24	41	2
61	61	2
13	50	2
115	164	2
55	55	2
44	54	1
100	127	1
90	131	2
147	148	1
17	38	1
19	50	2
107	134	1
144	145	2
166	166	1
99	125	1
69	76	1
9	21	1
115	168	2
79	79	1
122	128	1
159	164	3
47	52	1
76	86	1
12	97	1
164	168	1
7	8	1
17	20	1
149	149	1
165	165	1
121	122	1
80	163	1
24	38	3
135	157	2
71	96	1
16	36	1
118	165	1
23	41	1
8	10	2
125	132	2
50	52	2
17	47	1
113	116	2
12	83	2
133	137	1
97	138	1
145	145	1
63	69	1
73	74	1
112	153	1
54	55	1
57	57	1
5	16	1
7	73	1
45	45	1
45	102	1
72	72	1
142	143	1
2	49	1
10	11	1
159	167	1
115	116	1
107	107	2
69	77	1
170	170	1
163	164	1
9	10	1
80	105	1
112	113	1
6	8	1
51	58	1
12	40	1
39	39	1
106	170	1
