143	172	2
131	160	5
38	38	3
20	28	5
0	5	1
184	184	6
142	143	6
69	69	7
20	21	4
38	40	3
8	8	3
171	171	4
63	64	4
19	27	2
53	54	1
112	112	4
66	97	3
110	110	5
125	125	1
26	26	3
193	193	9
154	154	19
137	160	2
182	190	3
30	31	4
37	56	1
140	154	2
136	136	3
16	42	2
155	156	5
136	137	3
22	34	5
163	169	2
161	161	6
154	155	1
174	192	3
15	15	5
178	178	7
31	68	3
195	195	3
7	7	10
102	102	4
6	7	5
96	97	2
172	172	4
19	22	1
147	147	3
115	115	5
144	191	1
145	154	4
40	76	4
2	28	3
47	47	8
116	118	1
130	134	2
149	149	8
116	117	2
139	139	3
25	26	7
107	107	2
58	87	1
135	143	1
168	168	4
119	119	2
172	176	1
121	121	2
156	156	4
86	86	1
130	165	1
5	7	4
40	40	5
53	53	3
0	3	1
177	177	8
190	190	11
165	166	6
187	187	18
146	146	4
111	112	2
52	52	5
145	148	4
123	133	3
147	152	3
41	66	1
71	71	10
191	191	5
135	135	2
127	127	3
117	117	1
4	4	2
167	167	10
43	44	1
55	55	2
52	53	4
0	2	2
95	95	1
39	40	2
147	176	2
25	35	4
49	49	4
18	18	5
158	158	4
169	171	1
169	169	4
57	57	6
127	128	5
189	189	10
163	164	2
168	169	1
30	30	3
97	97	3
172	179	4
109	126	3
82	86	2
43	43	6
0	0	7
173	173	1
8	15	2
28	87	2
146	192	3
134	149	3
104	105	2
177	178	1
16	17	3
158	160	2
173	174	7
148	148	3
196	196	5
137	137	5
39	39	2
126	126	8
138	154	1
157	158	4
72	72	3
4	41	3
9	23	1
89	89	2
166	166	2
114	114	2
25	25	5
149	152	1
99	111	2
164	173	1
21	173	1
54	54	3
7	51	2
138	140	1
167	168	4
21	22	1
105	179	2
179	179	3
10	56	3
182	183	3
6	6	3
128	128	5
144	144	1
76	90	1
68	75	1
108	128	3
141	141	3
9	9	12
106	106	3
192	193	4
150	180	2
109	110	2
42	59	3
185	185	6
133	134	3
40	85	2
167	170	3
42	42	2
104	106	1
40	57	1
157	175	1
140	140	2
166	193	3
138	142	1
180	180	4
44	44	4
191	192	2
46	46	2
79	80	3
131	134	3
57	58	3
164	179	3
20	22	2
17	23	2
2	3	7
176	177	1
175	175	3
19	30	3
28	55	1
164	166	1
159	159	4
26	30	5
23	23	2
190	191	1
156	157	2
9	39	2
166	169	4
137	144	3
150	150	6
143	143	7
151	151	4
48	77	1
151	188	3
129	141	1
137	161	1
160	190	1
141	142	3
166	191	1
128	129	1
10	10	3
103	103	2
183	183	5
20	20	1
178	179	1
32	32	1
142	142	6
88	89	3
78	78	2
132	144	3
194	194	2
148	173	1
16	16	1
54	56	4
138	138	2
122	122	8
98	98	3
154	158	3
166	182	1
81	82	2
157	157	3
138	159	1
1	1	2
108	109	2
170	171	1
16	64	1
104	104	3
27	27	3
149	151	1
21	21	5
104	119	1
170	170	3
175	178	2
11	11	3
5	13	1
173	176	1
19	21	3
181	181	7
167	171	2
9	19	1
123	128	3
117	182	2
17	17	4
62	64	1
2	2	1
40	42	3
147	148	2
80	80	2
134	136	2
22	24	2
185	186	2
154	178	1
174	174	3
194	195	3
123	123	1
82	83	1
153	153	1
188	188	5
184	187	1
113	113	2
23	27	1
33	33	2
27	62	2
116	152	2
187	188	4
31	31	1
143	145	1
105	106	4
99	113	2
169	170	1
133	133	4
51	51	4
182	182	2
13	14	4
158	159	1
153	178	2
14	14	5
25	72	3
162	163	1
140	189	1
132	132	1
156	171	2
192	192	6
180	197	2
29	53	1
182	188	1
39	123	1
99	99	1
36	36	2
49	50	1
174	176	1
5	5	4
129	142	2
145	145	2
133	180	1
21	23	2
35	35	3
29	29	4
66	67	1
50	52	1
155	155	3
39	73	2
159	160	1
22	22	3
74	74	2
146	174	1
12	97	1
41	93	1
58	58	2
101	101	1
48	53	1
3	15	1
151	153	2
160	192	1
174	175	5
44	45	1
9	52	1
83	83	1
112	113	1
153	171	1
176	176	2
144	148	1
148	149	2
121	122	2
155	158	2
163	163	1
26	62	1
49	63	1
141	183	1
193	194	3
13	13	2
58	128	1
131	131	1
71	88	1
7	13	1
4	25	1
8	10	1
10	42	1
174	180	2
73	76	1
189	190	1
45	48	2
117	118	1
57	59	1
39	48	1
4	21	1
65	93	1
159	188	1
94	94	1
120	120	1
158	180	1
114	115	1
152	152	1
101	107	1
17	18	1
32	42	1
183	196	1
22	23	1
153	154	1
14	33	1
10	14	1
113	128	1
77	111	1
23	24	1
182	185	1
45	45	1
12	78	1
191	193	1
102	103	1
150	184	1
