90	90	17
79	79	23
43	43	13
84	84	21
60	60	32
93	94	20
11	11	25
34	34	18
42	42	14
9	9	19
105	116	2
72	72	30
77	77	21
128	128	14
65	65	37
130	130	10
18	18	34
22	24	7
77	78	9
28	74	3
37	39	3
41	81	8
88	88	14
81	81	17
5	6	12
30	81	8
48	48	17
97	97	8
101	101	27
68	69	6
104	104	9
70	70	16
61	75	2
97	121	3
6	17	8
75	75	25
29	29	29
66	66	17
3	3	9
78	79	21
42	43	9
21	21	20
10	10	14
21	22	16
12	12	14
20	41	13
44	91	3
80	80	21
6	6	22
62	95	4
124	124	9
97	98	6
73	74	15
21	41	4
111	111	4
59	90	3
100	100	15
32	55	4
37	37	15
35	36	10
19	19	17
7	43	2
36	40	4
27	44	4
57	57	24
61	61	5
28	95	7
17	17	10
38	38	11
82	83	8
26	45	2
117	117	4
32	82	2
118	118	17
68	68	14
30	38	3
82	82	21
5	5	7
83	84	10
44	45	13
131	131	20
20	22	1
110	111	1
33	35	7
91	92	4
31	31	26
47	47	19
39	81	4
20	62	3
13	13	14
88	98	2
27	80	2
8	36	2
25	25	16
87	90	4
15	19	4
58	59	9
94	121	5
107	107	11
92	92	11
62	67	1
27	82	2
40	41	5
13	45	3
59	59	9
115	115	4
12	73	3
8	19	2
0	1	1
20	21	13
106	106	16
35	35	20
76	77	5
14	41	2
114	115	11
14	34	1
43	91	6
121	121	6
85	85	9
94	100	3
33	60	3
36	36	19
123	123	11
6	45	3
109	109	5
86	88	4
58	60	5
35	77	3
28	94	3
58	58	7
80	90	3
73	73	31
23	30	3
56	56	18
28	29	10
116	116	8
27	28	14
37	38	2
100	101	4
96	97	5
15	15	4
35	70	4
83	83	13
71	74	4
98	98	10
34	85	6
23	25	1
91	91	8
16	20	1
134	134	6
130	132	1
47	66	1
74	74	21
22	22	18
40	84	1
4	4	14
46	47	4
115	133	2
65	82	2
108	110	1
26	26	34
107	109	2
27	27	23
104	105	6
95	95	22
96	96	12
76	76	20
79	80	10
27	92	3
45	45	20
67	68	4
80	81	3
55	93	9
113	113	14
73	75	1
23	23	19
132	132	5
34	35	15
49	50	2
6	46	2
92	93	6
112	112	12
55	56	9
43	59	4
47	89	3
124	125	4
50	50	2
131	132	3
62	62	11
8	8	10
93	93	21
63	63	18
32	105	1
56	57	2
50	51	2
33	33	19
44	44	20
1	1	9
42	49	1
45	99	4
70	74	1
85	86	11
25	78	2
12	33	3
74	75	3
2	2	16
24	24	7
94	95	4
59	64	1
76	97	2
117	119	1
24	25	8
110	110	14
7	24	1
25	28	4
86	87	7
90	91	6
130	131	6
45	96	1
99	100	5
3	64	2
71	73	4
28	28	13
98	99	10
111	113	4
28	80	10
63	64	5
81	92	3
120	120	10
31	33	5
1	2	4
100	110	4
16	17	4
50	56	3
36	43	3
24	26	1
87	88	6
84	88	2
133	134	4
44	79	3
119	119	14
4	5	8
22	26	5
113	117	1
30	30	21
94	94	18
26	93	2
40	40	9
122	122	8
41	101	1
67	71	2
30	60	3
99	102	1
20	20	5
99	99	10
92	133	3
102	102	17
39	42	5
33	34	3
21	43	3
49	89	3
81	82	9
20	38	3
79	94	3
41	41	9
46	71	3
96	99	1
86	86	6
49	59	3
29	30	11
20	40	2
31	32	7
47	49	1
22	25	3
8	9	5
27	42	4
38	40	3
0	0	7
68	70	1
34	36	2
46	76	5
128	131	3
113	114	6
21	25	1
17	18	12
11	48	2
16	84	1
20	42	8
9	43	4
105	105	7
7	7	13
19	56	5
32	32	14
40	95	1
129	129	8
32	34	2
69	70	8
57	59	5
127	128	5
125	125	12
32	41	1
127	129	8
94	99	4
42	92	4
92	98	2
15	16	6
76	93	1
23	24	1
78	78	8
22	40	2
31	80	3
38	81	8
85	87	5
7	97	1
70	72	2
64	64	23
45	48	7
120	122	2
62	98	2
46	46	9
10	16	2
41	103	2
39	41	3
41	84	2
14	22	1
97	108	1
75	76	5
87	87	14
67	67	6
88	91	2
36	37	6
103	103	9
126	126	6
26	27	8
129	130	6
92	132	3
16	16	11
76	101	1
111	112	6
7	11	2
119	122	3
114	116	2
28	98	2
6	65	1
114	133	2
45	46	6
93	108	5
25	27	1
102	103	8
76	78	5
50	62	1
80	94	1
17	21	1
77	102	2
105	111	1
32	40	2
55	57	3
129	132	5
28	79	2
116	134	5
22	23	4
10	28	2
79	81	6
24	27	3
38	42	6
60	75	6
89	92	2
125	128	1
101	106	2
71	72	2
45	100	1
28	91	1
80	95	2
126	134	1
48	49	2
90	92	6
95	98	5
118	119	4
59	60	4
17	20	1
75	83	3
85	91	1
28	97	2
112	118	2
81	84	5
72	73	6
101	103	4
97	107	2
13	19	4
37	76	1
5	15	3
89	89	2
39	40	6
6	96	1
120	121	6
15	22	6
103	106	4
41	107	1
28	43	4
11	13	1
67	85	3
9	10	6
47	71	3
43	81	1
55	55	7
8	61	2
125	126	6
78	106	2
23	73	1
89	91	2
103	104	3
12	76	1
29	42	1
116	133	1
90	111	1
2	34	1
57	58	4
26	41	3
84	85	4
69	69	18
125	127	1
113	115	1
79	83	2
126	127	5
36	38	5
97	124	2
18	21	6
25	26	4
60	61	5
12	44	1
99	107	1
11	18	5
14	14	4
2	3	5
7	44	1
58	63	4
100	102	2
32	33	6
84	95	1
9	82	3
64	67	1
51	55	2
49	56	1
23	28	1
89	99	6
19	23	2
115	116	3
98	111	2
8	84	1
25	41	2
129	134	1
109	132	2
77	80	1
14	40	1
6	7	1
23	74	2
45	72	3
40	49	2
39	39	6
20	43	1
16	18	1
26	37	1
16	33	1
70	71	3
47	61	1
12	13	2
48	86	1
78	81	3
78	92	4
11	93	1
63	71	2
94	97	5
14	15	3
11	12	6
97	100	3
71	71	10
27	48	2
64	65	1
11	81	1
94	103	3
36	39	2
121	125	6
106	107	2
26	49	2
131	133	1
40	80	1
84	86	2
74	103	3
48	115	2
10	12	3
5	7	1
10	11	4
38	39	4
106	110	1
44	90	3
83	85	3
119	120	4
21	81	3
4	6	3
78	80	1
48	84	2
117	118	2
23	43	1
3	4	1
127	130	2
14	37	1
38	41	1
43	82	2
35	75	2
37	59	1
49	58	1
80	91	1
108	108	6
123	124	3
72	74	1
62	82	2
25	93	1
80	97	1
26	40	3
131	134	2
128	132	1
109	111	2
133	133	3
124	127	1
22	37	1
78	90	3
64	72	2
23	63	2
30	83	2
14	19	1
66	67	1
80	82	2
60	64	1
7	82	2
99	101	1
100	126	2
18	37	1
72	75	2
13	14	2
41	50	3
96	124	2
0	18	1
99	106	2
27	97	1
25	82	1
12	47	1
62	64	2
45	62	1
20	32	1
7	22	3
132	133	3
12	46	2
41	42	1
45	70	3
9	12	1
35	37	1
92	95	1
16	85	2
23	41	1
14	38	1
21	40	1
106	115	5
16	21	1
65	90	1
107	108	2
62	86	1
39	78	1
41	105	1
89	101	2
15	20	1
93	99	1
49	49	4
127	127	3
37	40	2
51	56	1
72	104	1
97	99	1
23	39	2
80	84	2
16	19	1
87	95	1
4	101	3
67	83	1
48	65	2
18	20	3
126	129	1
88	92	1
11	62	1
56	59	4
12	61	1
5	16	1
71	103	1
47	48	1
30	31	1
21	39	1
24	82	1
26	42	1
93	107	1
7	95	1
122	124	1
108	115	2
8	35	1
101	102	3
110	131	1
59	62	1
94	96	1
81	106	2
18	23	1
55	98	1
33	61	1
32	60	1
15	24	1
122	123	1
30	42	1
13	40	1
66	68	1
93	98	1
19	21	1
84	89	1
17	19	1
3	5	1
26	82	1
32	75	1
65	66	1
33	74	1
65	72	1
27	91	1
98	101	1
3	12	1
