66	66	32
41	90	2
67	67	50
82	87	3
70	70	48
91	92	12
73	79	5
75	75	29
59	59	31
75	76	6
54	54	27
44	44	46
86	86	21
88	88	35
43	43	25
38	38	33
22	22	5
96	98	1
78	87	1
46	46	17
53	54	6
64	64	21
37	48	8
65	74	3
66	67	12
24	24	5
48	51	3
29	50	1
80	80	17
87	88	15
65	66	14
46	80	3
80	91	2
44	48	3
58	58	27
42	42	32
78	78	41
56	56	17
68	69	13
87	87	16
81	81	22
39	40	7
100	100	11
79	79	24
63	63	33
99	99	36
90	90	34
87	102	1
98	98	35
97	101	1
70	71	6
32	32	14
49	49	18
90	91	8
59	77	3
56	57	17
33	33	21
37	38	3
62	63	12
62	62	21
61	61	20
89	89	22
52	56	2
86	87	10
35	62	2
81	84	10
54	55	7
26	26	25
71	71	23
33	35	7
80	92	3
48	48	19
69	75	1
41	41	23
79	80	9
66	68	5
69	74	2
55	55	12
47	48	18
101	101	21
49	51	4
33	34	8
58	59	11
93	93	19
71	72	7
69	72	5
31	31	14
36	36	15
88	92	6
69	77	1
51	53	12
72	76	1
66	71	4
45	45	30
55	57	6
73	87	2
95	95	14
27	27	11
40	40	34
31	32	14
34	37	3
51	79	12
95	102	1
97	97	20
37	37	16
51	51	21
35	74	4
48	50	9
50	51	4
77	78	10
97	99	3
81	93	4
60	61	14
60	96	1
57	57	16
68	68	37
96	96	18
84	84	15
72	87	2
85	85	14
48	96	3
29	30	8
99	100	5
42	43	9
23	23	2
47	47	9
76	76	22
91	91	17
32	33	3
91	93	3
69	69	16
42	67	5
96	97	11
54	57	1
95	96	9
60	89	1
77	77	25
57	59	1
74	74	21
34	34	11
89	90	11
38	39	4
35	35	15
35	36	2
93	102	3
87	89	2
60	60	13
94	96	8
27	28	7
89	91	6
50	50	17
94	102	2
94	95	9
90	96	4
92	94	4
82	86	5
41	42	6
68	73	14
68	78	1
64	66	8
59	86	1
34	36	2
48	53	1
93	99	2
33	45	1
20	20	5
57	67	3
82	82	2
44	52	1
88	91	2
46	47	5
62	64	1
61	62	11
92	99	2
51	52	14
78	79	12
24	25	2
61	95	1
100	101	9
71	74	1
93	96	4
33	38	2
25	25	13
86	88	5
97	100	3
87	94	3
43	48	2
41	49	2
82	95	4
79	81	1
29	31	1
39	39	14
86	89	2
73	86	1
55	56	4
73	74	15
94	97	7
63	89	2
45	58	2
73	73	17
75	86	4
80	89	2
22	23	5
61	80	4
30	30	5
65	65	14
39	78	1
98	99	10
61	87	1
97	98	5
44	45	1
49	50	5
62	73	5
92	92	16
64	68	2
57	58	12
91	101	1
52	52	6
92	93	6
56	58	3
29	29	12
81	82	7
76	78	1
46	48	6
51	77	1
38	49	2
40	41	5
91	100	2
36	37	3
88	90	1
53	53	13
83	84	6
94	94	17
36	46	1
33	46	6
85	86	9
67	68	2
34	35	9
55	79	4
42	101	4
42	48	2
47	88	2
63	64	10
63	65	3
74	75	5
73	85	3
37	39	2
79	87	1
72	72	12
29	52	3
77	92	2
101	102	2
98	100	4
85	95	3
63	66	2
32	63	3
24	54	3
71	75	3
46	55	4
41	52	3
64	65	3
45	47	4
93	94	4
66	69	6
49	53	3
83	83	7
59	60	7
90	99	1
20	21	1
76	80	6
32	46	1
95	100	2
91	94	2
71	86	2
32	38	2
92	97	4
73	77	6
35	37	3
21	22	2
95	97	8
50	79	3
76	77	3
65	68	4
66	85	1
83	85	2
45	49	1
43	44	14
69	70	7
99	102	1
69	73	1
80	81	5
57	70	2
34	45	3
32	61	1
42	49	3
72	78	2
32	62	1
76	85	2
84	89	3
78	86	1
52	53	4
45	46	1
47	50	1
50	55	1
57	65	3
79	86	3
42	79	5
69	71	2
67	69	1
47	74	1
73	89	1
52	55	1
77	95	2
50	52	1
61	73	1
48	49	4
35	38	1
28	28	2
51	72	1
49	78	1
88	94	3
42	44	2
30	31	1
79	82	1
61	88	1
25	26	3
44	74	2
38	77	1
74	85	1
34	47	1
48	87	3
65	69	1
60	91	1
47	95	1
62	79	2
31	38	2
67	78	1
63	78	3
67	89	2
91	96	2
42	80	1
99	101	1
92	101	2
81	94	1
102	102	4
41	79	1
49	52	1
86	92	1
83	86	1
88	89	2
52	73	2
89	95	1
89	92	1
79	89	2
31	33	1
93	97	4
65	67	1
62	85	1
72	73	1
33	48	1
34	74	1
33	61	2
80	86	1
77	79	1
98	101	2
92	98	1
33	36	1
29	51	3
53	58	1
63	79	1
26	29	1
81	87	1
35	73	1
