40	156	4
53	62	10
90	90	4
32	32	4
44	45	9
150	150	10
2	2	7
100	133	1
117	148	4
112	118	5
45	45	10
47	47	6
69	69	7
149	149	7
4	42	5
135	137	3
158	158	18
86	86	3
13	13	3
17	27	2
42	42	7
67	67	11
141	156	4
99	99	5
65	67	1
29	29	5
53	55	3
107	109	4
66	78	2
16	17	6
95	96	6
81	81	7
102	116	4
147	147	8
41	42	5
97	97	5
23	23	13
73	73	11
89	90	6
33	34	1
123	123	6
49	68	3
113	114	8
132	133	2
108	111	4
139	139	6
1	1	8
29	30	7
70	70	6
129	129	7
98	98	7
49	50	5
65	65	5
67	68	4
48	49	3
153	154	4
89	89	3
21	22	5
149	151	4
138	139	9
130	130	16
36	36	5
63	64	2
53	56	3
136	136	3
1	2	2
43	43	18
87	87	7
155	156	2
8	8	7
134	159	1
109	109	3
40	40	9
124	124	4
28	28	12
25	43	5
63	63	3
34	108	2
45	46	2
8	9	3
129	130	3
28	29	1
79	96	1
105	105	5
0	0	9
98	151	2
131	131	6
138	138	8
65	73	4
90	91	2
88	90	6
35	35	10
34	34	3
143	146	5
119	119	6
71	71	4
104	104	4
96	97	2
94	94	8
128	128	2
133	133	6
3	3	7
5	5	3
41	41	4
7	33	1
80	80	1
48	51	4
27	37	2
68	68	3
46	46	6
36	73	2
115	115	17
76	76	5
120	121	11
77	77	10
62	63	4
45	47	2
94	95	2
152	152	6
49	52	2
116	116	10
19	19	2
110	111	2
123	143	2
50	51	1
106	106	6
20	20	6
105	106	6
88	89	2
19	20	5
96	96	8
44	44	12
37	38	3
2	4	1
88	143	1
148	148	3
6	33	2
6	7	2
120	120	2
144	153	1
137	137	7
121	150	1
39	39	4
10	11	2
105	113	2
42	43	3
52	52	2
68	70	5
122	123	1
67	70	1
13	14	6
130	131	1
84	84	7
30	31	1
95	95	12
31	31	8
54	54	21
22	27	2
111	111	15
55	55	3
2	33	3
31	34	1
84	90	1
66	66	5
11	11	1
73	130	2
28	30	2
105	122	3
140	140	4
21	25	2
33	33	3
7	27	1
110	110	4
134	134	7
47	48	3
51	51	6
24	24	10
65	66	1
101	101	10
94	98	3
16	16	3
80	82	4
28	37	4
22	22	9
115	116	1
142	142	11
10	10	2
82	82	8
40	41	11
37	37	5
30	30	8
140	141	4
20	27	4
125	125	11
120	123	3
4	4	4
100	100	7
146	146	5
82	83	2
117	152	3
9	35	2
8	11	3
17	17	3
12	32	2
112	112	7
92	92	3
146	147	2
125	143	1
64	64	3
145	147	2
52	54	1
55	68	1
102	102	4
108	108	6
22	157	2
135	135	4
27	30	1
113	115	5
85	85	4
99	104	2
56	56	2
61	61	4
146	150	1
93	93	7
136	138	1
86	87	5
8	51	2
129	131	1
33	35	1
153	153	4
90	95	3
132	132	4
117	118	1
151	156	2
155	155	4
84	85	1
23	25	4
51	54	1
26	26	3
102	134	1
83	84	1
119	120	3
93	157	2
117	117	2
2	3	1
21	21	5
79	153	2
24	25	3
23	44	1
53	53	6
10	35	1
95	99	1
91	95	2
145	146	1
100	128	2
122	122	3
114	114	4
117	132	1
106	118	1
4	5	4
142	156	3
18	37	1
78	82	3
135	156	6
107	121	3
14	14	5
52	53	3
75	75	7
49	114	1
57	57	1
6	20	2
79	81	4
121	121	3
3	123	1
118	119	2
78	79	1
156	156	2
137	138	2
136	137	4
24	43	1
118	118	3
151	152	1
144	144	1
6	6	3
144	146	1
135	136	1
48	52	1
3	4	2
121	122	1
100	101	2
127	134	1
8	35	1
81	82	2
9	11	3
83	83	3
148	150	4
16	24	2
127	127	1
50	50	2
1	5	1
88	88	4
92	93	6
145	145	1
136	152	1
150	157	2
23	39	4
46	47	3
77	96	2
19	132	1
117	120	1
143	144	2
48	113	1
64	71	3
136	142	1
78	78	2
113	113	1
77	78	3
45	115	1
152	154	1
26	38	1
9	9	2
98	150	2
143	143	3
97	151	1
25	25	1
126	127	1
57	61	1
12	13	1
72	72	1
90	108	1
10	43	1
17	18	1
96	151	1
41	156	1
38	38	1
36	37	1
7	8	1
49	56	1
154	154	1
31	37	1
141	141	2
1	66	1
70	71	1
67	77	1
27	35	1
120	126	1
114	115	2
140	142	2
151	151	2
5	26	1
76	77	1
83	85	1
49	113	1
93	155	1
78	88	1
14	15	1
11	13	1
0	23	1
53	54	1
51	65	1
69	70	1
105	123	1
22	26	1
43	62	1
117	119	1
78	155	1
75	76	1
7	7	2
133	134	1
124	136	1
121	123	1
103	103	1
1	33	1
126	126	1
103	104	1
