69	69	8
139	139	4
131	131	5
6	26	1
18	19	3
51	51	3
65	67	2
8	10	1
33	33	6
81	81	12
93	105	2
110	110	9
55	55	5
125	125	5
85	85	5
154	154	6
87	92	2
30	30	5
75	75	6
27	27	1
26	26	8
22	54	2
7	53	4
47	48	9
46	46	7
11	12	6
124	126	2
114	114	5
86	86	2
79	79	9
126	127	4
28	29	1
99	102	2
25	25	6
31	31	2
126	142	2
87	112	2
92	92	6
104	135	3
62	63	3
5	58	4
129	129	2
128	128	4
66	93	2
7	21	3
12	13	1
53	53	6
38	38	11
21	40	4
20	22	4
75	77	2
16	16	2
62	128	2
124	124	4
4	6	2
16	17	2
32	33	5
10	10	8
70	70	3
40	40	6
41	41	5
58	82	2
98	98	3
9	20	1
112	112	5
137	137	2
24	26	3
33	54	3
138	138	6
122	122	6
6	7	4
143	143	1
3	50	4
29	30	5
112	113	1
50	56	4
16	26	1
119	122	2
90	90	1
26	72	1
54	54	5
87	87	1
14	14	2
150	150	7
94	94	6
12	31	2
13	15	5
84	86	2
43	43	2
10	70	5
23	33	1
104	114	3
65	65	7
121	121	4
130	130	4
135	135	3
130	138	2
141	141	3
71	71	4
8	9	4
115	121	2
76	109	2
132	133	4
85	86	2
101	101	1
62	62	5
143	145	4
114	115	2
93	96	1
32	32	7
95	96	1
66	66	5
41	43	4
152	152	3
147	148	3
56	56	6
64	67	1
33	34	2
83	83	4
72	72	6
35	36	5
114	135	2
5	5	3
104	105	5
149	149	3
141	142	2
6	33	2
102	115	2
53	73	1
142	142	10
5	103	2
5	27	2
3	4	3
13	13	1
22	22	5
63	106	1
97	99	2
21	21	4
95	95	1
31	32	3
25	28	2
109	109	1
32	72	5
82	83	2
146	146	1
123	129	5
122	126	1
132	152	1
6	6	6
75	76	2
39	39	2
57	57	3
123	137	1
100	100	3
8	8	7
24	24	5
10	29	3
144	150	1
12	12	3
126	126	2
148	148	1
68	68	5
37	37	1
37	65	1
101	125	2
64	65	2
15	92	1
78	92	3
97	97	3
6	51	3
69	73	1
116	116	4
29	29	2
139	141	1
64	64	4
149	151	3
66	85	1
33	64	2
142	146	1
144	146	4
73	74	1
17	18	3
45	87	1
48	118	1
69	136	1
133	134	3
88	88	6
50	50	2
111	111	1
18	18	4
99	99	5
52	52	2
54	71	2
23	51	1
20	20	2
93	112	2
66	67	3
44	44	1
91	91	2
9	19	3
153	153	4
32	34	2
66	76	3
94	95	1
47	47	1
23	38	1
19	19	6
30	31	2
115	115	1
107	108	2
62	68	2
130	146	1
64	76	1
80	80	4
109	110	2
49	50	2
74	80	3
141	144	1
138	153	1
139	144	1
78	78	3
21	22	2
40	83	1
100	101	2
17	17	1
74	74	2
129	134	1
58	58	2
25	55	1
123	128	2
117	130	1
30	51	2
76	76	2
48	48	1
147	147	1
56	57	2
11	11	3
90	109	1
9	9	9
96	96	1
48	116	2
45	45	2
39	62	1
63	64	1
29	62	1
152	153	3
130	131	3
16	57	1
75	79	1
36	64	1
13	17	5
99	132	1
104	113	1
21	23	1
104	110	1
83	84	1
70	129	1
70	71	1
63	63	1
117	129	1
35	35	1
67	71	1
127	137	1
140	141	2
31	75	1
136	136	2
7	7	1
34	35	1
78	132	1
91	110	3
90	91	1
6	53	1
103	113	1
21	36	1
116	123	2
101	123	1
77	79	1
13	14	2
103	103	1
67	67	3
22	55	1
150	151	1
24	37	1
47	73	1
45	46	2
81	84	2
75	81	1
74	76	1
39	48	1
76	81	1
120	122	1
2	2	2
127	127	2
25	26	1
123	123	2
28	28	1
144	145	1
9	16	1
98	99	1
106	106	1
36	36	1
88	107	1
145	145	1
142	145	2
46	47	1
82	82	1
11	57	1
