190	190	9
106	106	22
124	124	4
188	188	10
86	87	7
4	11	4
144	144	8
42	188	1
119	133	5
156	163	2
24	25	4
43	43	11
141	141	4
134	135	4
184	184	19
53	53	2
24	33	2
175	175	4
169	170	1
19	19	9
74	74	11
139	139	8
10	10	9
163	163	6
96	96	3
42	44	5
105	105	10
167	167	16
177	177	4
187	187	21
133	133	5
47	52	1
21	21	8
164	164	13
122	122	15
56	56	2
95	96	4
109	110	5
126	126	8
182	182	6
108	116	9
187	188	6
65	65	5
93	93	3
9	9	5
24	24	13
192	192	15
0	0	9
121	121	4
66	66	8
147	147	10
110	110	8
171	171	14
6	7	1
185	185	12
27	28	4
80	114	1
88	88	4
30	31	1
111	176	3
33	33	11
37	37	8
189	190	1
32	32	12
25	26	10
146	155	1
120	122	1
110	111	3
117	117	7
55	55	8
20	20	6
162	162	8
137	137	7
142	158	2
155	175	4
151	152	6
104	116	3
63	72	1
35	35	18
42	58	2
46	47	11
191	191	4
173	173	6
143	143	10
188	193	2
49	49	5
119	119	3
101	124	1
157	157	10
76	76	8
110	118	1
22	22	7
108	109	2
30	30	3
174	174	2
58	58	17
168	168	4
136	136	7
95	98	1
69	70	4
174	176	4
109	109	9
159	159	17
110	115	9
140	159	3
176	176	8
194	194	13
173	180	3
142	142	2
133	146	3
158	159	11
16	24	1
54	54	14
181	181	9
146	146	6
154	155	3
40	40	14
10	196	3
135	135	10
149	149	14
3	3	11
31	185	3
101	101	5
99	99	7
186	186	17
130	130	13
27	27	15
156	156	8
9	39	4
189	192	1
9	14	1
183	186	2
20	21	2
124	170	2
116	117	10
165	167	4
23	24	2
69	69	14
51	51	7
185	186	5
15	15	8
172	193	3
54	55	1
5	5	9
132	146	1
138	138	8
157	158	2
180	180	15
128	128	12
166	166	9
160	163	2
149	150	4
111	111	7
148	185	3
17	17	8
139	140	2
163	164	5
127	127	22
13	14	3
115	117	1
46	46	6
76	77	3
186	187	5
14	35	2
8	8	4
66	72	2
44	128	1
14	14	9
145	154	2
116	118	2
51	52	3
184	185	3
168	173	5
36	36	10
172	172	7
61	61	8
16	16	2
156	171	3
178	178	5
151	151	6
176	177	4
133	135	4
114	114	8
98	99	3
98	98	7
31	31	11
62	63	3
148	189	2
183	183	8
58	59	6
145	145	8
70	82	2
85	86	3
83	83	4
194	195	5
29	29	8
105	106	3
155	155	12
113	129	5
40	41	8
48	196	3
5	40	2
22	25	3
158	158	13
119	121	1
144	158	2
78	79	1
118	145	1
81	84	1
57	113	2
4	4	12
165	166	9
195	195	6
18	18	4
64	65	1
52	52	5
33	37	1
116	134	3
62	62	2
2	3	2
180	181	5
67	67	2
70	71	2
136	193	1
13	13	7
58	63	2
157	172	1
161	162	11
17	27	3
105	120	2
149	193	1
160	160	6
16	29	1
57	58	3
117	121	7
44	46	2
110	120	3
22	23	2
39	40	4
55	56	4
104	104	7
70	70	8
11	11	11
117	119	2
24	27	1
189	189	6
150	150	13
23	23	5
155	156	2
45	45	8
137	158	4
131	131	7
1	1	6
170	170	8
143	145	2
129	129	1
160	171	4
3	4	4
88	89	3
74	75	1
147	148	3
125	126	2
9	15	2
141	150	2
154	154	7
193	193	12
87	87	3
47	47	5
140	140	3
152	152	13
148	148	8
164	165	4
158	173	1
64	64	3
17	18	3
142	155	2
38	41	1
127	196	4
102	102	4
19	20	2
119	139	1
181	182	5
19	24	3
24	32	4
107	107	6
1	2	2
75	75	5
44	44	5
2	2	11
123	123	4
190	192	2
46	53	2
124	126	1
179	179	3
6	20	3
167	168	5
156	194	1
133	136	4
132	132	2
117	145	1
39	39	8
114	115	3
38	38	1
179	189	1
7	7	2
42	87	2
158	172	3
196	196	5
165	188	1
84	84	8
152	177	1
122	123	3
34	35	7
188	195	1
42	43	1
197	197	5
113	113	7
43	44	1
21	22	2
41	41	7
100	100	6
57	57	4
128	187	2
136	174	1
138	139	5
93	94	4
133	134	1
181	190	2
179	184	5
120	121	1
28	29	2
183	184	2
164	190	2
61	62	4
141	159	4
125	170	2
60	60	2
33	35	1
74	76	3
59	60	2
120	120	2
108	108	3
12	13	3
115	146	3
100	101	1
7	8	3
17	23	2
15	30	1
152	153	3
48	48	7
34	34	8
112	117	3
133	148	3
25	32	1
184	196	2
44	127	1
68	68	7
158	164	2
78	78	1
153	153	1
138	141	1
5	11	1
38	39	2
47	48	1
28	28	8
133	194	1
10	11	2
95	95	1
0	37	2
146	147	2
82	84	4
112	113	1
142	144	1
3	69	1
73	73	4
24	194	1
131	146	4
103	103	5
169	171	3
174	175	2
135	158	5
132	141	1
117	118	2
138	159	1
179	197	2
59	59	4
142	143	3
45	126	2
134	134	4
108	117	1
174	180	3
46	55	2
67	68	1
63	63	4
17	35	1
114	124	3
99	100	1
144	146	1
14	34	2
179	180	3
61	64	2
50	52	1
107	108	1
190	191	1
94	94	5
83	106	3
156	170	2
122	160	1
138	140	1
77	77	1
25	25	5
153	154	3
79	80	2
22	36	1
161	168	1
10	14	3
83	86	4
3	35	1
82	82	2
169	169	5
130	146	1
122	124	2
89	89	7
153	158	1
161	161	1
162	164	1
133	157	3
125	125	5
174	189	1
157	160	1
79	79	3
160	167	2
71	78	1
179	193	1
150	152	4
0	2	3
130	135	1
170	172	1
18	19	1
145	148	2
50	51	1
6	6	2
44	52	1
132	175	2
100	122	1
166	191	1
165	165	2
54	56	1
182	185	2
137	138	3
150	154	1
26	26	2
130	145	2
120	160	1
48	49	4
189	191	2
182	183	2
123	129	1
141	142	1
135	159	1
146	148	1
137	174	4
130	143	3
175	176	1
102	120	1
161	169	1
100	138	1
46	126	2
152	154	1
136	172	1
71	71	1
18	22	2
111	112	1
16	17	1
160	161	1
145	151	2
79	83	1
103	111	1
53	57	1
56	58	1
171	172	1
75	76	1
131	143	1
29	181	1
23	195	2
103	117	1
72	83	1
7	9	1
119	146	2
168	169	1
172	180	2
186	189	2
149	156	1
60	61	2
160	166	1
177	181	1
171	189	1
156	157	1
148	154	1
42	189	1
60	64	1
124	139	2
176	180	1
111	138	2
183	189	2
11	12	1
105	112	1
180	182	1
162	165	1
43	85	1
131	144	1
26	28	1
159	173	1
135	136	1
163	169	1
69	87	1
20	38	1
172	173	1
97	100	1
4	5	1
89	90	1
64	73	1
99	168	1
15	33	1
192	193	1
177	178	1
3	16	1
37	84	1
172	181	1
137	146	1
193	194	1
174	184	1
