95	95	6
51	51	9
67	67	17
35	37	3
33	33	12
56	57	5
22	25	2
80	81	2
99	99	9
64	64	17
90	91	5
61	62	10
48	49	6
65	65	9
42	43	4
93	93	10
81	81	4
68	68	13
90	90	22
92	92	9
48	50	4
76	76	11
71	71	17
74	74	14
39	40	2
25	25	12
44	44	18
75	75	17
43	43	15
71	72	9
39	39	9
41	42	1
100	100	13
52	52	18
94	97	5
88	88	10
42	42	20
79	92	1
72	73	3
85	85	16
54	54	5
52	57	2
66	67	5
76	97	1
40	40	11
92	93	4
37	37	2
95	96	2
50	50	12
62	64	2
88	94	3
61	61	14
60	60	21
57	57	11
60	95	1
46	46	10
70	70	9
97	98	1
80	95	2
46	94	1
65	68	4
91	91	18
89	91	2
63	63	2
66	66	12
86	87	9
53	54	6
91	92	8
29	34	5
41	64	2
40	44	2
64	81	4
86	86	5
47	94	1
26	26	5
29	29	2
36	38	5
45	45	15
62	62	5
77	77	8
96	98	1
78	78	5
89	89	9
69	69	15
49	50	4
59	75	1
55	55	6
58	58	7
73	73	6
49	52	1
65	66	3
67	68	3
59	60	2
45	51	1
34	34	7
92	95	2
48	48	7
98	100	1
101	101	10
80	80	3
87	87	6
39	45	2
94	94	9
41	41	6
46	95	2
41	57	2
44	90	2
59	59	9
41	59	2
72	72	15
63	65	2
70	74	5
96	96	6
62	93	2
96	97	2
84	84	3
46	48	1
36	37	2
98	98	10
49	49	10
55	81	1
69	71	2
79	83	2
47	48	4
79	80	5
31	32	2
36	36	1
65	72	1
88	97	1
94	95	4
45	93	1
63	64	2
28	28	1
74	75	1
96	101	4
38	38	3
95	97	3
87	88	5
44	45	2
97	97	1
86	89	2
65	90	2
87	92	1
59	64	1
58	65	2
42	70	1
87	95	3
68	69	1
30	31	1
53	53	2
102	102	2
50	51	3
35	35	3
47	51	1
76	89	2
83	83	2
46	47	3
76	77	3
95	102	2
95	99	1
25	27	1
85	86	7
86	88	3
60	71	1
20	20	1
86	95	1
61	93	1
71	73	1
55	56	1
52	53	1
92	101	2
40	41	3
94	98	1
79	79	2
67	70	2
64	65	1
62	63	1
100	101	3
24	24	1
40	57	1
48	56	1
89	90	2
29	30	1
53	55	2
93	94	2
22	26	1
82	83	1
33	57	1
52	82	1
51	55	1
22	28	1
47	47	3
69	70	1
26	28	1
92	97	2
85	91	1
50	60	1
79	93	1
