40	56	3
72	72	10
129	129	7
61	61	4
118	119	12
120	120	20
79	81	4
74	99	2
106	106	17
108	108	18
0	0	2
55	55	6
42	44	7
47	48	9
49	49	30
27	28	4
59	95	1
110	110	10
117	117	26
52	53	5
79	79	17
20	20	16
19	21	3
38	38	4
131	132	2
44	44	3
51	51	21
116	116	15
130	130	7
65	65	15
21	21	13
76	79	3
119	127	2
0	1	9
67	68	14
5	5	14
29	29	9
131	131	17
78	79	10
14	14	10
46	46	21
42	43	3
19	22	6
16	16	9
128	128	13
105	105	9
101	102	2
42	42	11
18	18	13
8	9	10
53	53	3
91	91	9
99	100	7
100	100	18
11	30	1
24	26	1
112	112	13
17	18	4
75	76	7
85	85	6
72	73	8
118	125	3
70	70	13
81	81	2
25	25	7
100	101	9
26	26	14
69	69	12
28	28	9
0	54	5
115	120	3
119	119	10
1	1	15
26	27	4
30	31	5
111	111	3
93	94	9
126	127	5
65	66	8
108	109	7
75	77	5
38	39	4
13	13	12
89	93	5
101	101	4
64	64	14
32	32	8
8	8	13
126	126	12
97	98	2
11	13	1
126	129	1
68	69	9
66	72	4
43	44	11
75	75	15
66	66	11
96	96	16
86	86	8
21	22	7
4	68	5
10	11	2
15	15	7
63	63	12
31	31	10
115	115	14
74	76	4
114	114	10
91	92	13
45	45	8
56	58	3
125	127	3
41	128	5
9	9	11
88	104	4
59	60	4
94	94	12
89	102	3
132	132	9
94	99	8
117	121	3
30	30	19
112	113	1
26	49	1
102	103	3
123	123	8
90	90	13
10	12	4
118	118	12
125	126	5
68	70	6
88	88	12
81	82	10
126	128	1
76	76	6
70	71	9
32	40	4
19	20	4
48	54	3
73	74	5
123	124	4
47	47	19
48	48	13
84	84	4
44	45	6
50	50	6
62	113	2
46	48	3
125	129	2
14	16	10
67	67	4
59	59	20
39	44	2
25	26	3
76	96	5
85	86	2
122	123	4
40	40	6
7	7	7
92	92	9
33	33	7
46	47	7
12	13	1
98	98	5
99	99	12
128	130	2
44	47	2
10	10	9
25	64	2
40	42	3
116	117	17
72	81	1
102	104	1
3	5	4
39	39	6
71	71	8
12	12	4
45	46	13
19	19	6
82	82	6
78	78	7
20	21	4
104	117	3
50	51	9
15	19	2
32	34	4
33	42	1
83	87	2
49	56	7
14	27	4
73	75	1
25	58	7
41	42	6
104	104	10
66	84	1
58	61	3
83	83	10
3	3	11
52	52	13
32	44	3
6	6	6
113	115	6
1	2	4
47	60	2
99	102	1
2	2	16
103	104	2
2	5	3
52	54	4
12	20	10
71	78	5
100	103	6
95	98	8
68	68	19
11	12	4
88	91	6
107	107	7
80	80	5
33	34	1
42	46	7
60	61	4
29	49	4
14	15	2
51	52	3
111	115	5
115	116	4
108	120	2
109	109	5
92	94	6
113	113	7
58	58	4
27	27	7
114	116	2
95	95	10
111	112	3
93	93	5
96	104	1
57	115	1
34	34	8
81	83	3
43	43	8
57	58	4
62	63	1
14	26	4
109	111	2
84	85	5
32	33	3
4	4	17
83	84	2
4	7	1
3	4	2
30	49	5
77	77	3
2	3	2
73	79	2
41	41	3
108	111	6
57	57	4
89	89	4
122	122	7
51	133	2
2	69	1
33	43	2
40	41	2
87	87	5
66	68	1
77	95	1
76	97	1
61	62	3
117	118	4
27	50	2
121	125	2
50	52	6
1	116	1
50	54	1
96	97	3
65	68	3
83	85	1
127	127	9
56	56	16
67	70	2
59	62	2
23	24	3
24	24	4
92	96	1
80	94	2
1	3	3
17	17	4
120	121	2
76	98	1
95	96	9
58	116	1
82	83	5
97	97	9
77	78	2
57	113	2
107	113	2
0	3	1
13	14	2
84	86	4
2	4	3
83	102	1
43	131	1
42	56	1
120	125	1
23	23	2
12	19	1
113	114	5
54	54	5
26	58	1
29	55	1
24	32	1
10	17	2
125	125	2
86	96	1
69	72	1
89	90	2
42	45	1
90	102	1
91	94	1
102	102	4
80	81	1
63	65	3
12	25	3
20	22	2
29	30	4
33	44	4
29	31	4
46	133	2
49	54	2
87	88	1
64	73	2
34	41	2
47	49	2
60	60	2
71	72	2
93	95	3
18	19	2
118	120	2
103	103	2
85	102	1
48	49	1
69	83	1
73	97	1
119	129	2
124	124	2
112	114	2
14	18	1
55	56	1
58	64	1
22	23	1
74	74	1
5	6	2
100	104	2
50	53	2
0	110	1
66	83	1
88	89	2
116	127	2
76	77	2
62	62	4
51	54	2
106	114	1
121	121	3
46	59	3
28	29	1
106	107	2
64	100	1
69	93	2
9	10	3
14	44	1
11	11	1
34	40	1
64	72	3
81	104	1
18	22	1
2	78	1
97	100	1
124	131	1
44	126	2
115	117	1
107	108	1
129	130	3
69	110	1
41	43	2
99	104	4
72	75	3
86	89	1
4	5	1
118	124	1
1	110	1
77	96	1
133	133	1
127	129	1
13	30	1
125	130	1
12	15	1
30	32	1
117	119	2
86	87	1
10	31	1
110	111	1
