20	20	9
56	170	5
42	42	7
176	177	3
22	30	3
158	167	1
50	97	2
131	131	2
197	197	2
130	138	1
109	113	2
7	7	12
136	137	1
127	127	6
148	148	5
118	125	2
131	143	1
157	157	3
127	140	2
58	58	6
150	151	4
48	48	3
182	182	6
188	189	6
210	214	2
25	25	4
4	4	2
144	144	3
206	206	5
156	157	3
69	69	7
198	198	9
118	124	3
199	200	7
154	154	3
202	202	7
42	50	1
17	17	4
78	79	1
165	165	3
63	63	3
5	198	3
217	218	2
211	211	8
159	160	4
19	21	5
36	36	3
36	37	3
142	142	8
5	6	4
82	83	5
8	9	1
31	31	7
33	33	6
38	39	1
173	173	1
23	23	3
223	224	4
115	115	3
124	124	5
137	141	3
30	32	5
149	173	3
106	123	3
175	226	1
4	14	6
233	233	4
133	161	2
104	104	2
105	114	3
23	50	3
189	189	7
195	195	7
35	35	11
153	180	6
68	148	2
51	51	2
177	177	2
234	236	3
221	222	4
52	229	2
162	229	4
209	209	3
29	30	4
133	133	5
98	98	4
95	124	2
134	135	3
51	53	2
221	221	6
45	45	2
0	0	5
192	197	3
168	180	2
20	23	1
119	119	4
30	30	7
166	167	4
19	19	9
136	163	3
13	22	2
7	13	4
193	193	3
21	23	3
37	38	6
231	233	1
154	165	3
67	67	9
169	169	11
133	135	2
241	241	2
115	116	3
47	48	2
171	215	4
210	211	5
85	85	5
153	153	6
192	195	4
8	8	8
82	84	4
116	118	6
125	126	1
102	102	3
22	22	4
104	155	2
238	238	10
170	170	5
59	60	1
50	50	4
76	78	5
24	43	2
218	218	9
1	1	4
119	121	1
12	51	2
220	229	4
229	229	4
128	128	3
33	36	3
15	32	4
170	213	1
155	156	2
163	163	3
78	80	3
149	150	1
191	193	1
145	145	2
53	64	2
106	106	3
106	116	1
137	137	3
228	228	6
133	162	3
15	88	1
120	120	4
108	108	2
24	46	1
60	85	2
236	237	1
137	165	2
52	52	4
65	65	5
209	210	8
43	43	4
14	23	1
16	16	5
26	28	2
18	18	7
37	50	1
5	5	4
24	24	2
206	207	2
33	82	4
113	114	1
7	16	2
194	194	4
208	208	1
14	14	8
222	223	2
143	143	1
146	147	3
29	36	1
109	122	4
123	124	1
138	186	3
67	84	3
129	130	2
161	161	4
181	182	4
235	236	1
183	183	8
239	239	6
117	117	3
150	150	5
107	116	5
21	21	6
215	230	7
17	224	2
175	175	10
71	71	3
36	50	1
54	100	1
204	207	1
24	201	6
68	77	3
147	147	1
16	35	2
56	59	1
158	158	4
82	82	5
6	14	1
24	51	1
15	16	1
210	210	3
37	37	6
119	159	1
179	179	2
121	122	2
66	76	2
52	221	4
42	49	5
104	105	2
17	19	1
76	82	1
199	216	1
49	49	8
148	151	1
15	15	10
3	3	5
240	240	4
214	214	4
225	225	1
23	39	1
205	212	2
107	107	8
65	66	4
74	74	3
104	107	3
39	39	2
187	194	1
78	78	2
121	121	5
98	99	5
160	161	1
184	185	1
225	226	10
9	9	2
193	194	1
187	189	2
128	140	2
46	46	3
4	9	1
213	224	2
152	180	3
168	168	4
109	109	8
170	221	5
192	211	1
121	130	5
193	200	3
68	68	7
79	79	4
162	180	1
213	216	1
125	125	2
101	101	7
111	112	4
158	159	3
95	103	1
195	205	2
133	134	2
56	57	4
12	12	7
147	148	1
44	44	2
103	103	2
230	231	1
80	82	1
11	11	3
213	218	2
49	50	3
105	105	2
42	44	1
199	212	2
184	184	2
66	66	2
218	226	1
28	28	2
166	166	8
86	87	5
79	80	1
24	26	2
220	221	3
25	26	5
174	175	1
47	240	1
38	38	3
205	205	3
86	86	2
221	226	6
147	231	1
56	56	3
61	61	3
230	230	3
200	200	1
212	213	2
33	222	2
120	135	1
174	174	1
167	168	1
2	2	2
222	222	2
27	27	2
218	219	1
57	57	2
88	88	2
149	172	3
234	234	2
229	230	2
156	156	2
177	215	1
31	34	1
99	99	6
64	64	2
126	126	1
4	8	1
35	49	1
21	22	3
83	83	1
125	140	3
30	31	2
20	21	2
52	71	1
29	29	1
190	191	3
55	62	4
29	88	1
172	172	6
55	55	4
135	136	1
24	25	3
212	212	4
162	183	3
77	77	3
40	41	3
27	28	1
180	180	1
136	145	3
53	53	2
188	194	1
51	52	2
0	1	2
41	41	3
192	196	1
23	42	1
206	208	3
66	242	1
124	126	3
213	213	2
3	8	1
204	204	2
191	191	4
13	13	1
54	54	1
30	33	2
205	208	1
164	164	1
50	51	2
151	151	1
176	176	3
130	139	3
176	214	2
96	152	2
130	143	1
96	96	3
84	84	2
20	42	1
181	181	3
160	160	1
162	162	3
124	142	1
199	199	1
15	29	1
77	82	1
60	60	1
110	110	2
136	138	1
160	166	1
10	10	1
11	25	1
59	59	1
235	235	1
23	31	2
100	100	6
33	40	2
78	83	1
162	163	2
196	196	3
48	75	1
77	129	1
217	220	1
55	236	2
187	188	5
219	219	3
125	130	2
236	236	2
40	40	2
168	171	2
169	179	2
189	190	1
164	165	2
148	172	1
68	70	1
73	75	1
17	226	1
114	115	1
226	226	1
35	36	1
128	130	1
216	216	1
79	82	1
72	82	1
4	5	3
136	146	1
5	14	3
62	62	2
149	149	2
61	62	1
203	204	2
186	186	1
188	188	3
222	229	1
16	17	1
169	229	1
124	129	1
203	213	1
53	54	1
73	80	1
38	55	2
83	84	1
116	117	1
149	151	1
159	159	1
108	116	1
39	40	1
174	217	1
66	80	1
13	14	1
141	142	1
173	174	2
206	216	1
81	81	1
43	49	1
81	82	1
130	130	1
1	206	1
34	52	1
13	16	1
217	217	1
127	159	1
231	231	2
118	118	1
75	156	1
15	34	1
81	84	1
215	215	1
36	40	1
112	161	1
110	239	1
112	112	1
10	227	1
220	227	1
128	158	1
129	129	1
13	23	1
54	171	1
74	75	2
55	116	1
177	229	1
42	47	1
48	211	2
34	34	1
143	147	1
197	198	1
157	160	1
224	224	1
44	45	1
