69	69	13
23	28	2
81	81	12
67	68	3
86	86	11
31	31	10
82	82	3
47	47	6
30	30	9
69	70	3
83	83	14
3	3	13
28	28	8
75	75	8
48	58	3
70	70	4
8	8	13
10	10	10
89	89	5
1	1	14
55	55	6
4	4	17
53	55	4
51	51	19
18	18	5
74	75	11
22	22	10
27	27	11
25	49	2
58	58	7
23	23	9
2	2	9
80	82	5
80	80	12
29	68	2
11	11	12
62	79	5
61	65	2
46	46	5
64	65	4
57	67	3
74	74	9
4	5	6
53	54	12
52	64	3
51	65	6
84	89	2
67	67	13
35	49	2
29	29	7
76	78	3
7	10	6
17	17	16
10	12	6
74	84	1
21	22	3
34	34	4
80	81	5
57	57	12
48	50	3
56	56	9
48	53	2
7	7	9
9	10	7
31	48	3
49	50	10
58	82	1
11	12	1
52	52	3
13	13	11
7	9	5
14	14	10
81	82	7
78	78	11
66	66	9
0	0	4
50	59	1
14	15	6
16	16	7
20	21	3
9	9	11
59	59	7
87	88	2
50	50	7
19	20	3
14	23	2
13	21	1
27	29	1
20	20	7
25	81	2
31	56	3
5	5	5
65	65	11
26	49	2
54	66	1
5	9	1
75	76	6
72	72	4
58	62	4
71	71	6
63	63	3
77	77	2
15	15	4
54	54	7
19	19	12
85	85	4
88	89	2
68	68	13
25	26	3
66	67	3
52	56	2
0	2	2
48	49	1
12	12	2
28	68	3
63	80	1
49	49	3
30	31	2
88	88	2
1	50	2
4	25	3
61	61	4
71	72	2
84	84	3
30	56	5
8	16	4
26	27	2
75	85	1
52	84	2
73	73	2
61	62	2
69	89	1
72	80	2
60	60	3
62	66	1
71	83	3
5	27	1
77	79	3
26	26	6
11	13	2
6	17	1
48	60	2
60	62	5
34	35	2
24	25	2
48	48	3
81	84	2
78	79	3
72	73	5
50	52	4
68	69	2
53	53	2
79	79	1
84	86	1
3	22	2
25	25	3
28	29	1
10	11	2
24	24	3
21	21	2
12	50	1
11	16	1
78	80	2
53	56	1
65	66	1
64	64	1
20	27	1
1	4	2
71	81	1
59	80	1
6	6	3
56	65	1
87	87	2
82	83	1
62	63	3
29	30	1
48	81	2
57	68	1
15	23	1
68	81	3
26	28	2
79	80	2
57	58	1
1	2	2
86	88	2
59	60	3
4	30	1
76	76	4
6	7	1
15	16	2
13	17	1
10	15	1
54	55	3
72	74	1
6	8	1
59	61	1
90	90	1
60	61	1
53	68	1
33	33	1
8	9	1
51	56	1
50	61	1
85	87	1
0	1	1
51	52	1
