84	85	4
6	6	10
21	24	7
0	0	7
96	96	5
25	25	11
42	42	21
115	115	12
34	34	4
46	46	11
75	78	3
46	47	3
24	25	3
80	80	8
8	8	5
99	99	18
51	51	12
11	11	7
29	29	7
57	57	12
121	121	9
28	28	10
124	124	6
14	14	9
0	1	7
114	116	1
107	107	3
7	7	3
77	77	9
18	25	3
71	71	7
108	108	14
102	102	3
105	105	11
65	73	5
61	61	2
119	120	3
65	66	13
125	125	13
109	109	18
1	2	4
23	24	3
112	112	13
20	20	7
128	129	6
91	91	3
58	58	15
126	129	3
40	40	12
65	65	10
54	54	9
118	118	10
132	132	12
56	57	1
30	30	7
113	116	7
74	74	10
2	4	2
60	60	8
116	116	10
122	124	2
53	54	6
13	14	6
83	83	6
7	9	3
98	99	2
18	19	11
112	114	3
119	128	2
41	41	10
32	32	5
120	120	6
92	92	16
69	69	8
72	73	4
118	119	8
13	46	3
8	9	5
24	28	3
47	47	19
55	55	10
66	66	11
45	45	8
39	39	2
79	81	3
53	53	22
50	50	10
122	122	4
117	118	7
129	130	10
49	49	24
112	113	10
18	55	5
126	127	3
83	84	7
132	133	2
104	105	8
98	104	1
126	126	10
13	22	3
113	114	5
125	127	3
73	121	4
120	121	3
110	110	11
3	3	10
94	94	9
15	15	5
129	129	6
114	118	1
5	5	9
131	132	2
27	27	6
50	51	3
86	86	5
3	4	11
20	21	4
10	10	1
52	52	6
15	19	2
19	22	2
113	113	3
72	72	5
23	23	3
87	87	5
103	103	3
10	12	5
47	48	2
81	81	9
76	77	3
27	32	2
99	100	1
101	101	10
13	13	17
38	38	2
82	82	3
106	106	2
86	88	1
111	112	5
115	118	3
22	22	3
111	131	1
14	44	3
19	19	8
123	124	2
67	67	5
4	6	7
111	130	3
62	132	1
73	73	4
58	59	5
67	72	3
14	17	3
86	87	2
2	3	8
89	89	8
29	30	7
76	76	10
63	63	5
5	6	3
55	83	1
44	45	5
56	56	12
110	111	2
94	113	1
18	23	4
78	79	4
33	33	2
28	29	1
131	131	6
127	127	3
119	119	7
2	2	9
72	106	2
12	12	5
121	122	2
111	111	4
48	48	7
18	21	4
97	103	4
68	71	3
33	34	5
11	12	2
14	46	2
59	59	1
95	95	9
44	67	1
123	123	8
32	34	1
105	106	10
71	102	1
82	84	3
4	4	5
64	65	2
85	86	8
111	117	1
22	23	2
88	88	6
27	28	5
42	43	4
81	90	1
1	1	7
62	62	1
17	18	5
21	26	1
45	47	1
66	68	3
70	71	2
18	18	7
16	16	2
93	93	5
71	72	1
129	131	1
44	44	1
118	120	4
126	128	4
79	79	2
78	78	5
30	39	2
125	126	4
70	70	3
48	49	4
118	131	6
116	117	2
130	131	5
85	87	2
133	133	9
113	115	1
31	32	1
21	22	1
68	68	3
96	99	1
75	75	2
60	63	3
41	43	4
95	114	1
13	18	3
14	45	2
38	40	4
13	15	1
90	90	8
24	24	6
24	29	2
130	130	2
94	95	3
113	120	1
75	77	1
107	108	3
49	57	3
63	66	1
90	98	2
114	114	3
24	31	1
30	31	3
114	115	2
41	42	4
45	46	5
3	8	2
78	81	2
41	44	2
37	38	1
66	69	2
74	77	2
9	9	2
117	117	4
43	43	3
96	107	1
55	78	1
2	11	2
22	65	1
3	5	4
90	97	1
68	69	2
43	68	1
32	41	2
95	96	1
44	68	2
61	78	2
15	44	1
49	50	3
2	5	3
39	76	1
54	85	2
79	98	1
51	53	1
38	39	2
97	97	1
101	105	3
95	116	4
47	54	1
101	109	1
3	11	2
58	62	1
80	81	1
115	130	3
10	11	1
50	118	1
101	103	4
89	91	1
64	64	2
17	42	2
26	28	2
106	107	4
0	15	1
68	70	1
2	7	1
60	61	1
103	107	2
51	52	1
43	46	1
104	104	2
3	7	1
52	122	1
96	98	2
94	96	1
96	97	1
52	114	1
117	124	3
66	67	1
67	68	1
130	133	1
108	109	3
21	21	1
2	6	1
83	88	2
128	128	2
71	106	1
91	97	2
17	17	3
14	15	2
62	63	1
69	72	1
26	26	3
53	122	2
4	7	1
91	92	2
102	130	1
29	45	1
124	125	1
111	113	1
66	73	1
98	103	1
97	99	1
9	11	1
79	80	1
119	130	1
131	133	1
53	117	1
54	62	1
111	116	1
52	53	1
101	126	2
24	30	1
43	45	1
100	100	1
