29	29	2
151	151	10
106	109	2
142	143	1
57	57	7
97	97	2
65	110	1
94	130	1
132	132	3
20	21	9
4	4	15
28	29	2
40	42	1
103	108	3
18	18	13
84	131	1
121	121	2
19	20	6
100	121	3
9	9	15
56	56	5
28	28	6
73	73	3
94	99	3
116	119	3
25	25	12
114	114	3
153	153	4
117	117	12
8	9	4
24	24	12
26	27	3
14	14	14
136	136	9
135	151	1
119	131	2
148	148	4
54	54	11
17	17	6
81	83	3
81	82	8
64	69	2
94	98	5
21	23	3
68	68	10
144	144	6
81	81	2
130	130	1
40	102	4
4	5	9
11	11	12
123	123	4
104	105	4
55	55	2
65	65	2
138	138	1
140	144	2
5	37	2
32	32	3
80	81	4
61	63	3
62	62	3
7	8	3
77	77	4
141	141	2
21	21	10
106	140	2
140	145	2
9	17	2
69	69	11
86	86	10
110	110	3
48	48	9
115	115	2
65	67	3
35	37	5
40	114	2
4	19	8
103	105	1
7	7	8
67	80	2
140	142	1
128	129	4
97	98	2
149	149	5
85	93	1
47	48	5
23	23	14
105	110	2
49	51	1
113	114	4
27	29	3
102	102	4
93	95	1
146	146	2
74	74	5
107	108	2
16	16	4
24	38	1
44	45	8
47	52	3
31	31	8
8	10	1
50	50	6
124	124	7
64	64	8
28	31	2
43	43	7
116	116	5
47	53	3
33	34	3
55	92	2
10	35	5
147	147	2
141	142	4
63	63	9
94	94	9
76	76	5
12	12	5
75	75	3
27	28	7
70	70	1
37	38	2
102	105	2
51	51	8
93	93	11
12	13	7
129	129	5
34	34	4
69	70	5
107	107	1
95	97	12
27	38	3
49	77	2
149	151	1
37	37	6
127	127	2
125	131	4
72	72	4
78	78	4
33	35	1
29	62	2
102	103	2
126	127	1
52	53	2
88	97	1
15	15	4
74	75	4
20	20	7
150	150	5
84	105	1
5	33	2
30	30	8
53	53	7
138	139	2
19	19	4
118	118	5
39	39	6
133	133	1
45	54	2
20	24	2
40	40	6
45	49	2
36	36	13
85	85	8
71	71	4
24	25	1
64	110	2
92	93	1
13	13	5
139	146	3
104	104	3
55	56	8
41	41	4
56	63	2
45	45	5
66	83	1
119	119	6
143	144	3
106	121	3
80	80	4
100	100	7
146	149	4
95	96	4
86	94	3
113	113	6
26	26	1
38	38	9
44	46	5
122	123	1
124	126	2
49	53	1
28	99	2
54	62	2
82	82	6
129	135	2
149	150	3
27	27	10
102	125	3
131	131	9
95	95	7
62	64	1
3	3	2
110	111	2
105	105	3
29	30	7
63	64	2
144	145	4
84	109	3
26	30	1
109	109	7
152	153	1
13	14	4
96	96	4
79	79	3
17	26	4
135	135	3
19	24	1
83	83	3
33	33	7
147	148	2
85	86	2
83	84	7
17	40	1
134	134	3
128	128	2
114	118	5
9	10	3
35	35	3
95	123	1
86	95	1
54	56	3
67	67	2
92	96	1
15	25	3
85	113	2
39	40	2
52	52	1
46	46	5
95	120	2
55	57	1
6	6	6
125	132	2
38	39	4
142	142	4
19	21	1
85	92	1
42	42	16
121	122	2
139	143	2
98	98	4
112	113	1
92	92	2
64	66	1
123	124	2
118	119	2
2	30	1
46	48	1
30	62	2
71	73	3
42	48	2
22	22	5
18	35	2
125	126	2
94	97	3
141	148	2
57	92	3
25	38	1
90	90	3
137	138	4
28	30	5
66	66	3
132	133	1
20	25	2
41	43	2
115	117	1
50	51	2
5	17	2
88	88	3
34	35	1
97	113	1
125	125	2
151	152	2
41	42	2
115	119	2
3	7	1
47	47	1
129	130	2
5	5	3
99	99	1
10	10	2
37	100	1
126	126	1
25	37	2
77	78	1
73	75	1
137	137	1
65	79	1
8	31	2
91	91	2
81	105	2
101	101	1
49	50	2
102	108	1
108	108	2
61	62	1
87	88	1
124	125	2
5	6	1
20	26	2
2	2	1
134	137	2
116	118	1
77	79	1
122	122	2
67	68	2
136	147	1
84	84	1
103	104	1
18	22	1
65	80	1
65	82	2
31	32	1
85	87	2
81	84	2
55	96	2
125	128	2
90	92	1
34	36	1
26	37	2
154	154	1
43	44	1
41	118	1
13	80	1
10	152	1
8	8	1
145	145	2
48	52	1
112	112	2
68	71	1
63	83	1
41	47	3
13	15	1
100	113	1
27	100	1
98	99	1
25	33	1
31	33	1
10	11	1
36	37	2
14	15	1
46	49	2
42	43	1
94	95	1
96	98	1
45	46	1
150	151	1
62	74	1
