105	105	21
135	135	14
6	7	11
37	47	5
46	46	32
158	158	33
82	83	10
87	87	19
107	108	31
74	74	44
137	137	24
18	19	21
94	95	16
36	36	28
159	159	24
93	97	2
56	56	47
2	2	42
112	134	1
13	13	22
47	47	26
157	157	30
119	121	16
102	102	21
22	82	2
149	149	47
150	151	7
160	160	4
65	66	6
128	128	11
43	43	42
134	134	24
4	4	31
84	85	23
18	18	50
98	99	10
64	64	28
89	89	19
7	7	39
103	103	22
9	9	11
8	9	19
112	115	4
79	80	13
52	52	15
43	44	13
27	27	20
62	62	29
24	25	18
142	148	8
91	91	16
13	18	4
100	101	16
52	54	1
154	154	12
37	37	29
148	148	16
21	21	12
135	139	3
17	17	33
66	66	6
89	106	1
1	3	5
57	63	1
47	48	6
6	6	37
139	139	11
146	165	1
165	165	21
10	10	13
117	125	3
114	119	4
151	151	21
42	43	16
24	24	22
111	116	1
15	128	3
90	107	2
109	125	2
37	41	2
78	79	9
155	155	11
127	127	20
119	150	1
23	24	5
77	77	28
84	87	3
35	41	3
107	107	17
108	108	24
132	132	14
13	134	2
11	11	20
71	71	14
71	72	18
35	36	15
34	34	46
96	97	10
129	130	8
116	116	32
56	57	10
46	48	1
83	83	19
86	87	14
93	118	4
145	145	16
51	51	20
131	131	17
41	41	35
53	53	33
123	123	18
126	126	46
140	140	25
90	90	25
75	75	26
131	133	7
92	102	7
96	105	3
102	103	6
109	109	29
126	127	18
73	74	6
15	17	12
115	115	25
111	111	32
44	44	25
141	141	23
12	17	1
20	21	14
71	92	2
97	97	26
165	166	10
20	20	12
150	158	8
114	114	18
10	135	1
38	40	5
58	63	2
83	87	3
150	150	27
139	143	1
57	57	13
114	122	8
153	161	1
19	19	34
123	126	5
162	163	3
12	13	5
127	130	3
64	69	4
71	76	7
118	118	13
110	110	15
5	5	20
38	55	4
109	110	6
98	103	2
81	81	23
98	98	21
16	16	30
27	28	14
79	79	9
112	113	10
157	158	20
80	84	2
122	122	13
144	146	4
93	142	3
85	85	25
116	163	1
106	107	5
75	76	10
52	100	1
26	26	20
46	50	2
35	48	2
120	120	19
144	144	17
159	160	6
93	94	4
148	167	3
91	93	9
106	110	7
38	56	1
154	155	8
168	168	18
50	50	33
146	146	21
135	136	4
64	136	4
2	46	1
67	68	6
119	120	5
39	39	22
71	74	7
25	25	24
140	141	4
16	18	4
152	153	4
49	49	29
76	141	3
69	69	17
7	8	5
113	114	5
87	88	10
8	8	20
47	49	3
70	70	22
12	14	5
11	12	3
38	39	6
10	15	2
42	55	4
121	121	21
102	127	3
170	170	9
111	112	8
37	38	9
53	85	1
38	44	5
0	2	2
38	38	16
15	15	11
50	101	2
80	80	24
76	143	4
1	1	23
67	155	3
142	144	3
77	78	7
153	153	10
45	45	25
136	136	20
44	45	18
117	117	22
57	62	4
73	73	26
28	28	8
70	74	2
133	133	21
11	20	2
33	34	6
71	73	7
67	67	19
140	151	2
120	121	5
37	39	1
10	19	3
58	124	2
142	142	24
133	136	4
9	10	13
85	86	7
129	129	7
152	159	2
41	42	14
99	99	13
63	63	26
33	33	16
134	140	2
51	67	2
147	147	14
106	149	6
104	104	19
125	125	15
168	169	10
92	92	17
134	135	10
63	105	5
112	112	25
9	17	5
80	152	1
22	22	14
88	88	23
26	27	3
15	16	3
48	48	8
7	9	2
71	163	1
1	2	13
86	86	10
138	138	12
21	24	3
126	168	2
42	42	44
55	55	21
35	35	36
67	69	2
52	53	4
12	15	4
145	146	1
105	106	10
126	128	4
70	72	3
64	67	1
166	166	18
23	23	19
124	125	7
73	108	2
2	11	5
72	72	28
34	44	5
117	118	7
75	144	2
169	169	8
13	14	8
147	148	6
106	106	32
166	167	1
34	36	4
103	104	4
147	155	2
145	148	1
88	132	2
143	161	3
89	90	14
100	104	3
39	40	15
121	122	10
73	83	1
28	43	1
40	40	22
0	0	7
91	94	5
84	91	2
65	65	8
73	131	3
100	100	25
121	124	2
9	14	2
69	87	2
64	138	1
58	58	4
52	87	1
88	98	2
78	80	5
14	18	8
144	145	6
34	43	8
47	107	1
54	55	7
117	134	1
128	138	2
138	139	5
39	51	2
74	75	17
50	53	4
112	128	4
148	154	2
50	51	3
82	82	21
76	82	2
112	126	3
80	81	9
47	52	1
9	12	1
167	167	7
76	83	2
85	87	2
152	152	22
153	160	3
169	170	5
125	126	5
56	64	2
91	95	3
47	150	3
14	112	1
150	159	2
143	143	9
10	11	3
68	68	9
123	124	6
14	17	3
139	140	2
112	114	8
76	108	1
20	23	4
86	127	2
104	105	6
92	93	9
107	109	3
111	138	1
122	123	6
113	113	12
164	164	15
73	158	1
51	104	2
90	91	8
130	130	15
3	4	5
22	23	10
3	3	18
163	163	8
124	124	6
119	119	9
76	76	14
51	52	3
127	129	2
108	111	2
140	142	9
164	167	2
16	17	3
68	70	7
76	145	3
108	109	5
137	150	3
96	96	17
57	69	1
141	153	3
69	70	11
150	165	1
114	115	13
19	24	2
12	12	13
76	77	6
10	13	3
136	137	5
71	79	4
82	145	7
48	49	11
14	14	27
95	95	8
134	157	5
45	78	2
91	96	4
85	89	2
74	76	6
159	163	3
49	58	3
126	166	1
69	78	2
54	73	4
106	111	5
115	130	4
20	24	1
84	86	12
37	160	3
49	50	4
111	122	2
151	164	3
133	134	5
143	158	1
53	73	1
93	93	7
1	42	2
144	148	1
97	98	14
27	37	3
33	35	7
148	149	1
65	67	2
155	156	5
137	138	6
118	128	1
49	51	3
38	43	6
147	160	4
134	166	3
103	106	4
8	12	4
86	90	1
39	110	2
0	1	11
6	25	5
158	160	3
76	80	1
62	63	6
10	24	2
64	68	1
161	161	16
54	54	11
72	76	2
101	104	8
2	51	2
5	7	3
76	146	2
130	142	4
4	34	2
77	112	1
44	46	1
91	141	4
163	164	4
46	77	5
63	64	5
86	88	5
5	8	3
124	148	1
55	71	4
72	74	1
84	84	13
69	81	2
23	34	2
64	76	1
17	20	3
67	81	1
101	101	5
40	63	1
66	68	5
37	72	3
78	78	10
78	110	1
46	79	1
146	147	2
131	135	2
41	92	2
115	116	5
91	97	3
25	26	3
156	156	8
7	14	2
102	104	2
87	101	2
101	106	3
4	6	3
11	15	2
101	102	8
14	15	5
12	19	1
137	158	3
114	116	8
91	104	2
1	34	1
53	110	1
0	127	2
109	132	3
47	110	2
143	144	5
15	165	1
9	54	2
86	96	1
33	74	3
7	23	4
64	65	3
158	159	2
102	149	2
95	97	6
37	152	2
80	83	5
166	169	1
64	106	2
20	25	1
76	78	3
88	89	1
87	98	4
99	100	4
8	52	2
119	122	1
116	166	2
71	81	1
47	145	1
127	128	3
8	10	1
47	81	1
89	97	2
2	3	4
135	137	3
46	47	4
17	18	1
9	164	2
141	142	1
142	143	2
8	72	1
68	69	4
53	55	3
51	57	3
17	19	3
45	46	6
83	90	2
57	68	2
130	131	6
149	150	4
91	92	2
72	101	4
122	125	1
38	89	2
93	105	1
116	117	2
49	57	4
164	165	5
41	89	1
40	41	4
73	109	3
77	79	1
128	129	3
110	140	1
7	10	2
162	162	7
40	89	3
102	116	2
55	56	4
151	152	3
156	159	1
83	97	2
110	131	1
76	95	4
117	122	1
41	111	2
111	113	3
164	166	4
52	55	4
145	153	1
45	49	3
64	84	2
39	52	3
83	98	2
36	48	4
97	104	4
97	99	3
71	75	2
36	37	10
5	6	4
16	24	2
95	101	1
12	138	1
94	94	5
82	134	1
79	86	1
66	79	1
95	96	2
157	160	2
112	116	1
106	136	2
147	159	2
17	23	1
0	107	1
76	144	1
124	151	1
15	18	1
109	140	1
161	163	1
163	165	1
76	86	1
92	120	2
120	123	1
118	120	2
97	106	3
34	35	5
77	80	1
120	122	5
77	81	2
8	14	3
101	103	1
68	154	6
40	45	4
142	149	2
88	106	1
118	119	1
27	34	3
72	73	2
69	79	1
26	111	1
87	89	1
64	70	3
19	134	3
45	51	2
153	154	2
114	153	1
130	151	2
157	169	2
136	142	2
41	72	1
131	132	4
38	50	2
150	156	4
167	169	2
81	82	5
126	132	5
55	70	2
92	94	2
94	97	1
114	132	1
112	117	3
48	50	2
73	111	1
4	5	2
128	130	1
131	134	1
43	54	1
81	168	3
51	62	2
118	162	1
64	72	1
45	136	3
110	111	3
57	83	1
109	135	1
57	107	1
19	20	2
100	142	4
73	80	1
41	52	1
96	104	1
102	105	1
74	83	1
151	165	1
40	48	2
131	152	3
27	35	1
35	151	1
114	117	1
73	82	2
68	83	1
69	127	3
96	128	2
13	39	1
109	126	1
154	159	2
131	166	1
63	87	1
49	99	1
7	11	3
37	43	1
125	146	1
143	149	2
14	16	2
10	163	2
115	123	1
84	97	2
100	110	1
151	153	2
7	21	1
6	8	1
48	64	2
143	154	1
105	113	1
18	24	1
120	130	2
126	146	2
41	75	2
63	69	3
83	84	2
22	24	1
62	103	1
1	107	1
89	113	1
140	144	2
147	152	1
37	42	4
138	140	1
71	80	1
38	42	1
58	67	1
55	77	1
106	134	1
94	142	1
94	129	1
109	112	1
135	140	2
39	45	2
123	162	2
78	84	1
113	115	1
62	104	1
26	36	1
63	83	2
62	87	2
83	85	3
40	51	1
152	165	1
39	43	1
3	6	1
100	105	3
162	167	1
39	41	2
23	123	1
87	91	1
4	7	1
101	113	3
80	110	2
7	15	1
76	147	1
74	86	1
69	96	1
10	27	1
67	72	1
82	84	2
77	86	1
94	96	1
64	143	1
103	149	1
46	100	1
143	160	2
40	49	1
9	15	1
52	58	1
160	162	1
156	168	1
66	67	1
77	85	1
57	64	1
35	76	1
118	124	1
51	69	1
53	108	1
152	163	1
110	125	1
27	36	1
167	168	1
85	97	1
36	42	1
80	82	1
75	109	1
35	165	2
5	11	1
90	100	1
10	44	1
137	140	1
52	72	1
51	70	1
19	21	1
11	14	1
139	141	1
92	118	1
18	21	1
63	73	1
112	125	1
