176	188	1
162	163	7
41	41	4
27	32	2
73	73	18
136	136	11
42	42	20
68	68	12
225	225	15
24	24	14
176	176	5
121	121	7
114	163	1
169	169	8
150	150	3
48	210	2
16	218	3
103	103	19
32	37	1
63	63	13
46	46	19
27	27	13
59	59	9
222	222	11
29	30	12
62	62	19
191	191	12
68	69	5
65	65	10
123	130	2
73	97	6
65	66	3
139	139	5
82	84	1
22	23	7
117	117	8
97	97	11
179	180	3
100	100	12
196	197	3
72	72	17
142	143	4
157	157	4
55	55	14
118	119	2
127	127	17
217	217	9
71	71	15
54	54	9
31	31	14
174	200	2
185	185	3
9	43	1
107	107	16
80	80	24
86	86	29
212	220	3
114	114	6
43	43	14
232	232	16
22	22	13
170	170	6
182	182	11
136	137	5
208	208	14
74	88	1
8	8	7
200	202	2
2	2	7
115	119	2
179	179	3
23	23	10
0	0	9
3	3	13
137	138	11
205	216	5
21	21	10
34	34	3
25	25	19
66	67	13
30	30	19
145	145	17
165	166	2
105	106	6
192	194	7
206	215	9
233	238	7
129	129	15
163	163	12
173	173	10
23	24	1
75	75	10
103	107	4
3	5	1
152	152	14
109	109	3
128	128	9
198	198	5
189	189	14
83	84	1
105	105	7
61	61	14
165	167	2
48	48	19
148	148	6
217	219	2
164	164	16
135	135	3
71	72	7
76	76	5
167	167	11
134	142	3
171	181	1
149	149	11
119	121	3
14	15	9
10	24	2
180	181	9
155	155	13
113	113	16
153	153	4
166	167	2
135	140	7
59	60	16
242	242	10
108	108	10
159	159	3
18	19	5
229	230	1
151	151	7
81	82	4
133	133	4
98	98	9
75	76	12
19	20	1
62	63	9
221	221	5
85	85	19
16	214	1
19	19	21
69	74	2
103	106	5
85	88	3
31	32	1
122	122	4
60	60	7
28	39	3
7	8	5
129	130	5
200	200	10
104	104	9
46	47	2
119	119	6
166	170	1
117	123	3
203	206	3
171	178	2
6	7	4
49	57	4
226	227	26
53	53	14
187	188	5
104	105	10
166	166	4
81	84	2
223	226	3
100	101	9
15	15	6
214	216	5
38	38	9
134	134	1
35	39	6
179	182	2
7	205	2
238	238	16
63	64	8
84	84	7
178	178	3
2	16	2
138	138	5
50	51	10
74	74	3
57	59	2
58	58	8
171	171	2
136	140	3
234	234	9
44	44	11
40	47	3
28	28	9
26	27	7
76	81	2
200	211	1
190	203	2
16	16	10
47	47	19
208	213	7
0	203	3
118	123	2
4	4	16
123	123	2
103	104	12
161	161	4
140	141	5
31	34	1
18	18	10
240	240	4
175	175	3
9	10	6
160	161	3
1	1	15
10	42	3
49	49	10
9	9	27
220	220	4
162	181	2
120	120	8
69	69	4
176	177	2
36	156	2
179	181	1
66	68	4
37	37	11
160	160	4
123	124	8
7	7	13
70	72	3
119	120	3
29	29	8
233	233	12
241	241	17
38	39	4
210	210	3
0	25	2
199	204	4
66	66	12
44	45	8
83	104	1
232	233	3
6	6	9
115	115	5
153	175	1
11	14	1
54	55	6
172	172	8
218	218	11
78	79	4
106	106	5
29	31	4
118	120	6
139	140	5
229	229	7
167	168	6
25	26	2
28	32	4
216	216	8
2	3	5
24	25	4
73	75	6
193	230	3
111	112	4
61	77	1
8	216	2
193	195	1
111	111	10
39	39	7
161	199	1
145	149	2
128	129	4
0	24	4
143	143	6
217	218	6
77	77	5
83	83	5
158	158	3
34	40	3
74	102	3
192	192	5
26	26	14
10	10	9
40	42	6
79	79	6
185	186	11
51	51	6
95	95	2
48	58	3
84	85	4
33	34	4
200	201	4
50	53	3
43	44	12
33	33	5
114	162	1
23	25	11
114	172	1
155	157	2
236	236	8
88	88	9
175	176	1
150	151	5
74	75	3
40	40	16
33	39	7
184	186	3
139	146	2
181	181	9
13	13	4
67	67	12
194	205	1
133	140	5
40	41	1
207	207	5
141	172	2
167	169	2
60	61	2
224	225	7
167	179	1
37	43	9
13	16	2
188	189	1
220	222	2
199	199	7
234	235	2
27	28	7
180	182	1
174	233	5
177	177	5
17	18	5
65	121	5
47	48	4
54	217	2
52	52	3
54	57	3
37	39	8
183	183	7
57	57	9
118	118	8
184	184	5
109	110	7
78	78	5
75	82	4
114	117	1
56	56	18
81	83	3
203	203	6
162	162	7
118	158	4
72	73	1
207	208	5
99	99	9
82	83	6
15	16	3
181	182	1
153	155	4
223	230	3
137	137	5
178	207	2
32	36	1
10	11	1
14	14	9
64	64	10
53	85	1
9	29	5
111	239	1
32	33	2
201	207	2
150	152	4
223	224	1
134	141	6
44	46	1
194	194	4
115	123	3
102	102	14
17	17	5
201	233	1
56	58	2
219	219	10
48	49	5
11	11	7
237	237	3
54	64	1
198	200	5
35	36	1
101	101	17
208	211	3
196	198	2
182	206	2
4	8	2
104	107	4
2	21	3
187	187	3
189	190	2
6	11	4
118	142	3
153	156	2
82	82	13
177	194	1
223	225	1
156	156	3
238	242	1
178	179	3
214	215	6
196	196	4
117	118	2
124	124	11
43	45	4
65	70	2
224	224	8
201	201	7
110	110	3
201	202	2
182	184	3
146	146	5
69	70	8
45	46	1
31	45	2
6	198	4
197	197	8
42	43	3
84	242	3
7	41	3
126	130	4
194	195	6
11	12	2
53	54	3
213	214	2
155	158	3
115	117	2
197	198	3
239	239	7
195	195	5
204	204	9
168	168	3
55	56	2
125	125	5
203	204	8
180	219	2
206	206	4
241	242	2
193	193	5
15	17	2
54	56	2
129	131	1
205	205	4
238	239	3
223	223	6
214	217	1
70	70	6
89	91	1
20	20	6
192	195	1
21	22	4
124	126	1
231	232	8
151	152	1
120	133	3
10	27	1
205	207	5
232	242	2
36	37	2
98	100	5
60	68	1
50	50	4
105	107	3
193	196	4
8	170	1
0	204	2
193	194	1
159	165	1
122	124	4
178	205	2
96	96	7
140	140	2
3	9	4
137	143	2
1	3	2
155	156	3
235	235	4
184	185	2
35	35	16
3	4	1
157	158	3
2	15	1
220	221	3
219	226	1
51	53	2
99	100	8
12	12	4
133	135	7
146	147	5
61	62	7
152	157	1
49	210	3
202	202	4
139	141	3
174	174	1
16	17	4
74	81	3
240	241	3
173	174	5
204	205	3
132	132	1
20	32	1
45	45	4
39	40	5
32	32	4
81	81	2
191	230	4
164	165	5
23	26	6
103	108	2
33	41	1
63	67	3
34	35	3
148	159	2
168	169	6
3	22	2
186	187	2
116	116	4
171	172	5
76	78	1
101	102	2
135	136	2
0	3	1
34	167	1
228	228	1
99	104	2
233	234	4
140	144	2
35	41	1
134	135	3
116	117	6
196	234	1
76	77	4
236	237	5
141	143	2
39	49	1
12	206	2
4	12	7
36	36	3
69	86	3
21	29	1
72	86	1
20	53	1
131	131	2
205	206	4
135	139	2
124	125	1
51	52	8
130	130	2
28	29	2
60	76	2
48	50	2
9	217	2
31	35	5
186	186	1
199	201	1
56	57	3
228	229	2
41	42	1
138	139	1
214	214	4
77	79	1
232	238	2
58	60	3
18	53	3
79	84	3
142	142	2
174	175	1
231	231	2
18	20	2
190	191	1
242	243	1
215	215	3
35	37	1
69	82	1
4	5	4
190	190	3
122	130	1
96	102	1
60	78	3
189	201	1
30	33	2
190	197	2
147	148	3
89	109	3
44	160	1
53	56	2
148	149	1
126	126	4
9	23	5
106	108	1
8	169	1
107	108	3
31	33	3
141	141	5
72	84	1
162	184	1
119	123	1
14	16	2
3	219	2
172	198	1
206	208	1
52	53	2
226	228	2
36	50	4
21	23	2
83	85	2
28	55	1
195	197	1
8	168	1
1	2	2
42	47	1
5	5	5
140	143	3
30	45	3
132	134	1
48	209	3
199	200	1
62	64	1
138	140	1
202	203	1
55	57	1
4	6	1
18	40	1
145	147	1
90	90	1
112	112	3
0	120	1
163	172	3
167	178	1
23	29	2
11	13	1
79	80	1
1	218	1
180	180	2
129	133	1
4	16	1
104	106	3
179	205	1
226	226	1
8	33	2
144	144	1
39	42	2
18	30	1
135	138	2
83	103	2
16	19	1
211	211	2
222	229	1
47	57	1
87	87	1
22	26	1
227	227	4
20	21	1
114	115	1
182	210	1
165	165	2
70	86	1
82	97	2
213	229	1
154	158	1
215	216	1
102	106	1
3	17	1
209	210	2
175	177	1
84	103	2
209	209	1
123	126	1
230	230	2
30	36	1
139	143	1
137	139	1
124	127	2
213	213	1
85	86	2
6	12	1
86	87	1
208	209	1
216	217	1
65	67	1
194	196	1
37	44	2
121	124	1
192	193	1
185	187	1
209	212	1
185	216	1
141	144	1
3	8	1
21	24	1
46	207	1
20	31	1
63	65	1
177	187	1
142	161	1
186	188	2
22	29	2
58	59	1
154	155	2
52	55	1
30	37	1
99	102	1
125	130	2
40	52	1
212	213	1
75	85	1
230	231	1
96	97	1
80	101	1
144	146	1
59	67	2
50	52	1
170	171	1
149	159	1
119	129	1
19	52	1
154	154	1
69	83	1
20	42	1
22	52	1
127	130	1
122	125	1
211	216	1
76	101	1
115	162	1
148	151	1
5	8	1
145	146	1
80	81	1
235	237	1
212	212	1
227	232	1
17	40	1
120	121	1
12	13	1
