78	78	20
11	12	6
54	54	23
42	42	24
36	36	42
51	52	3
62	81	4
139	140	4
155	155	10
170	174	3
78	79	13
9	9	34
16	16	17
91	91	27
119	119	12
24	24	32
15	15	23
121	136	3
14	14	55
79	79	18
86	86	13
147	163	1
175	175	10
177	178	3
71	71	20
9	14	2
107	107	10
12	12	8
56	56	29
124	125	2
25	25	11
1	1	12
141	142	5
60	61	19
149	179	2
172	172	19
67	67	22
65	65	28
135	135	28
67	85	6
144	144	31
22	22	35
127	129	13
154	154	26
6	6	23
104	113	4
83	86	1
62	85	2
141	141	14
14	16	3
90	90	37
171	176	4
43	43	34
41	41	19
40	40	17
116	116	9
61	62	3
24	26	5
18	18	13
95	95	21
91	92	2
109	131	2
89	89	16
105	105	12
53	54	6
64	64	24
31	32	24
118	154	3
60	60	14
96	96	29
157	157	6
128	128	9
21	21	25
26	27	10
138	138	30
10	14	3
126	126	25
37	37	33
136	136	26
145	159	11
98	101	3
119	121	3
156	158	2
58	92	4
129	129	16
121	121	23
58	59	13
92	94	5
8	10	4
145	150	1
167	168	5
23	23	19
37	39	5
160	160	11
4	7	7
33	33	10
116	117	6
55	55	18
63	66	6
73	73	7
173	173	36
110	110	7
13	13	14
31	31	25
38	39	13
41	42	7
139	139	17
88	89	4
44	44	33
3	19	5
138	176	6
10	10	55
125	126	4
38	38	29
131	131	24
179	180	6
81	82	5
32	32	72
147	147	25
13	14	11
80	80	17
33	37	3
125	125	21
77	77	16
68	68	10
75	75	10
39	39	39
117	157	6
93	94	4
156	157	6
29	30	6
176	176	28
118	118	10
170	170	11
83	84	9
54	56	2
88	88	15
35	41	2
145	157	1
38	45	2
93	136	1
172	176	8
65	66	9
64	65	26
59	60	7
17	17	37
100	100	8
151	151	8
52	52	26
144	145	4
10	11	9
1	21	2
171	171	24
61	63	4
74	74	13
4	4	19
143	143	11
102	102	29
115	157	4
168	168	18
133	133	33
99	99	10
49	61	1
33	34	8
112	112	18
71	81	2
145	145	13
59	79	5
137	137	15
29	29	27
169	170	4
37	38	20
79	93	7
81	81	22
28	28	13
161	171	3
113	113	9
39	40	13
11	13	8
140	164	6
63	63	9
42	43	10
167	167	24
152	152	7
53	53	14
159	172	2
109	109	11
89	90	10
110	136	5
120	125	2
111	111	13
33	41	2
118	121	5
95	96	18
23	28	4
25	26	16
27	28	13
147	159	6
20	22	1
169	171	6
30	33	4
123	123	14
14	43	3
72	72	13
66	66	6
5	6	10
93	95	5
20	42	4
164	165	2
6	7	10
0	1	5
50	51	18
18	19	5
14	15	9
148	160	2
148	148	16
128	155	5
160	164	3
165	165	11
20	30	2
57	58	3
93	135	1
149	149	20
4	6	5
143	144	7
92	92	21
25	27	3
15	16	10
8	9	9
146	146	29
87	87	11
20	20	13
132	139	4
98	98	7
2	4	6
93	93	24
151	152	4
176	179	4
108	108	11
5	5	15
152	153	2
151	158	1
106	107	3
137	138	7
106	109	1
65	68	1
12	13	13
169	169	11
130	130	9
13	43	4
84	85	8
106	135	1
26	31	5
156	156	13
73	75	5
122	122	12
80	81	7
5	45	3
33	40	3
177	177	13
163	163	17
158	174	2
157	158	4
153	154	11
94	94	35
102	145	2
160	161	2
15	27	1
76	79	2
119	156	2
19	23	5
117	127	2
142	142	15
19	19	7
143	145	4
73	78	3
2	2	21
164	164	9
134	135	21
103	105	2
105	109	2
110	114	4
174	175	2
162	162	10
14	31	14
57	57	9
153	153	24
91	93	2
76	76	13
44	45	4
57	59	13
150	160	6
19	20	13
134	169	2
132	137	1
45	45	7
83	85	1
51	51	14
142	143	7
114	159	2
72	79	3
17	20	1
123	126	2
151	153	3
86	90	1
155	157	2
104	104	7
86	91	1
94	95	10
56	57	4
5	9	4
58	89	2
58	77	5
0	0	14
168	169	10
32	33	18
80	102	1
35	56	4
87	89	3
19	22	4
71	72	11
32	45	1
39	56	5
165	166	8
115	115	9
3	3	28
173	174	10
82	82	10
122	127	5
111	115	2
146	157	7
161	162	7
125	131	1
78	80	1
17	157	4
58	58	12
20	23	2
50	50	3
85	85	8
22	23	8
7	11	6
103	103	9
76	77	6
130	131	3
131	139	4
101	101	12
35	35	21
55	56	22
135	136	14
9	15	3
0	36	3
92	93	7
122	136	1
56	132	3
132	132	23
144	148	2
49	84	2
100	103	1
24	31	3
127	127	3
3	5	4
159	159	21
119	120	2
7	9	7
20	21	6
126	127	2
120	154	1
112	118	2
11	11	7
19	88	2
171	178	1
71	90	3
30	30	16
41	43	1
114	116	3
121	122	10
145	146	7
127	128	7
54	57	4
5	7	5
26	28	6
146	158	2
5	8	4
58	64	4
67	84	2
34	34	14
87	88	3
75	76	6
62	62	12
115	153	3
63	64	2
39	43	3
34	35	5
114	114	8
155	159	3
163	171	1
35	36	10
169	178	4
140	140	25
97	97	6
83	83	11
36	38	6
15	28	2
59	59	19
33	35	5
18	23	3
13	19	1
18	21	2
36	37	6
12	14	4
110	111	6
16	17	7
73	123	1
117	117	5
25	45	3
161	163	3
3	9	1
91	102	2
62	67	1
16	19	2
82	84	5
16	18	3
150	150	28
87	94	1
3	20	4
21	29	3
10	12	4
118	157	1
52	53	4
153	173	3
159	166	1
152	154	6
36	40	3
61	61	12
35	42	2
176	177	1
117	119	2
116	135	3
30	31	3
144	146	4
7	8	12
170	176	4
148	149	14
39	45	3
62	63	4
27	27	15
46	46	3
115	116	4
86	88	1
32	36	2
2	3	7
116	130	1
120	120	2
109	122	3
115	117	3
81	102	1
179	179	6
113	114	2
18	20	3
2	18	1
119	128	3
175	176	2
29	45	1
163	165	1
105	106	5
5	31	1
111	152	3
178	178	4
165	168	5
40	41	4
28	29	4
134	142	1
131	134	3
23	27	2
7	10	4
93	115	2
60	143	4
4	5	1
51	53	4
53	127	2
7	7	4
111	112	3
8	8	7
114	148	1
116	121	5
34	40	2
75	120	4
97	100	1
172	175	2
1	2	6
108	113	1
115	174	1
124	124	11
137	139	2
155	156	4
9	10	8
159	164	2
77	78	2
43	44	2
138	167	5
116	118	1
18	29	2
3	33	1
106	106	5
100	145	3
110	112	1
131	132	3
162	179	2
104	105	1
66	67	15
162	164	2
173	175	3
21	23	4
136	154	2
112	113	3
166	168	2
123	124	2
42	44	2
72	78	1
150	154	2
23	25	4
119	152	3
3	18	1
143	149	3
6	11	5
32	34	2
150	172	1
54	55	5
103	104	6
162	167	3
32	59	1
139	149	1
111	137	1
8	24	2
153	159	3
1	34	3
111	117	1
2	15	1
26	26	12
126	128	5
86	89	2
27	32	1
158	159	7
162	171	2
171	172	5
164	169	2
136	150	4
29	33	8
160	169	1
82	83	5
10	15	2
87	96	2
52	126	1
160	162	2
18	30	1
115	151	1
128	133	1
52	59	1
170	172	3
161	161	2
174	178	2
24	25	2
121	130	1
114	117	4
25	33	2
166	167	4
86	87	1
166	166	3
74	75	8
152	155	2
56	123	1
134	134	7
3	11	2
17	25	1
146	150	2
139	150	2
35	38	1
97	98	5
127	130	1
24	28	2
9	12	1
122	154	2
106	108	6
155	158	2
147	148	2
122	153	1
84	84	3
180	180	5
154	155	2
49	51	2
79	81	1
121	132	1
112	151	2
149	158	1
25	63	1
38	41	2
36	41	2
45	46	1
26	30	1
78	108	6
73	76	1
159	173	3
121	123	2
76	78	1
40	65	1
146	147	1
101	102	3
73	74	2
178	179	2
95	98	2
112	150	2
134	136	1
58	60	3
120	151	2
17	18	10
4	8	4
94	97	4
28	30	3
151	155	1
11	30	2
154	159	1
121	153	2
96	97	5
158	158	6
70	71	4
97	105	4
23	24	4
117	130	2
8	16	1
134	179	5
136	137	1
97	99	1
16	22	1
67	81	1
29	38	2
21	24	6
104	175	1
134	166	1
122	123	2
39	41	2
72	73	1
31	45	1
150	174	2
125	127	5
17	21	1
19	33	3
43	45	2
61	79	1
17	24	1
122	126	1
58	67	1
122	124	3
1	32	2
115	159	1
33	36	3
103	137	2
133	140	2
173	179	2
149	154	1
6	8	2
2	5	1
122	132	2
79	80	3
4	12	1
64	66	1
3	4	5
109	112	2
50	84	1
145	147	1
39	64	1
26	43	1
5	10	1
58	61	2
123	125	4
21	44	1
122	131	1
55	57	1
22	28	1
137	172	1
172	173	2
11	27	1
2	13	1
49	50	1
21	42	2
143	147	1
27	29	1
129	156	1
31	38	2
161	167	1
34	41	1
16	27	1
67	80	1
151	154	2
139	141	2
100	101	2
81	99	1
108	176	1
14	45	1
13	15	2
170	171	2
67	68	1
158	167	1
1	13	1
73	119	1
15	31	1
1	35	3
109	110	1
137	154	1
134	138	1
17	41	1
11	15	1
14	17	1
20	66	1
98	105	1
59	64	1
97	103	1
6	31	1
132	133	1
176	178	1
92	97	1
17	31	1
21	25	1
19	21	1
31	37	1
116	136	1
26	42	1
174	174	3
7	19	2
57	95	1
14	27	1
3	17	1
59	61	2
8	23	1
82	90	1
66	126	1
162	163	1
99	103	1
145	180	1
111	136	1
99	100	1
138	168	1
149	180	1
61	80	1
126	154	1
8	11	1
113	151	1
159	160	1
39	42	1
113	115	1
148	161	1
157	173	2
61	125	1
111	146	1
138	139	1
33	42	2
101	103	1
104	107	1
118	150	1
