122	122	1
143	143	4
141	141	9
102	105	2
183	183	6
34	34	4
161	161	2
89	89	5
10	10	3
46	47	4
4	4	6
29	29	2
148	148	2
58	63	2
110	110	5
164	164	6
82	90	4
41	41	10
14	14	2
65	65	5
113	157	2
8	8	3
111	157	1
182	182	13
114	115	7
60	63	3
56	57	4
129	129	3
37	37	4
19	19	5
71	71	4
135	135	1
27	32	3
84	84	8
179	180	2
138	138	4
109	110	4
108	108	3
30	99	2
78	85	1
155	155	3
31	32	3
103	103	1
184	184	2
121	122	5
107	107	2
173	173	6
45	47	1
91	92	7
169	169	3
80	110	1
13	13	5
116	117	2
134	134	2
28	28	4
41	100	2
145	160	1
152	152	5
90	90	2
128	128	3
31	31	4
38	38	6
142	143	5
69	71	6
141	142	4
53	53	2
100	100	4
43	43	7
118	118	8
93	93	3
34	35	2
48	48	5
42	44	4
123	123	1
124	125	6
75	75	4
129	130	2
131	133	1
113	138	2
40	40	3
181	181	3
1	1	2
164	165	3
32	35	3
157	158	5
163	163	4
25	25	2
111	111	3
7	8	3
149	150	1
19	54	2
153	153	3
98	98	6
77	78	6
85	85	2
102	102	1
73	73	2
83	83	7
154	154	1
63	64	4
111	112	5
114	114	2
115	116	3
124	127	3
140	140	4
162	162	1
168	168	2
3	3	2
160	160	3
104	105	2
166	166	7
150	150	3
98	100	3
86	122	1
2	3	4
18	18	2
2	2	9
78	78	2
145	145	2
149	156	2
41	42	2
95	162	3
22	22	2
70	70	2
187	188	1
158	159	1
124	124	1
149	149	2
28	29	4
78	79	1
143	155	3
66	66	1
112	112	3
17	18	3
67	67	4
56	56	2
7	16	2
55	55	2
95	96	1
158	158	1
104	106	2
151	151	1
81	82	1
170	170	2
77	77	3
23	24	2
171	172	1
83	113	3
96	97	1
32	33	1
101	101	1
20	20	4
165	165	1
87	114	1
72	73	2
86	86	1
87	87	2
121	121	2
0	0	2
15	24	1
146	146	3
130	130	1
132	132	2
47	47	1
137	137	1
77	83	1
95	95	7
135	162	1
74	74	1
91	91	2
134	141	2
140	141	1
33	34	2
44	44	1
78	80	1
16	16	5
47	48	4
61	64	2
151	156	2
39	40	1
60	60	1
79	120	2
88	88	1
155	176	1
115	123	1
138	139	4
144	144	1
22	24	1
147	148	1
72	72	2
178	178	1
63	63	1
9	27	1
98	99	1
59	59	1
24	24	1
6	6	1
31	99	1
79	79	1
39	39	1
42	95	1
35	36	1
21	21	1
119	119	1
166	167	1
131	131	1
62	63	1
45	45	1
