121	122	2
63	63	8
124	124	1
93	93	12
95	114	3
74	74	10
114	114	6
113	113	3
132	133	3
132	135	2
82	82	6
87	87	6
108	110	4
86	87	4
50	50	3
24	24	11
128	128	3
65	65	8
55	55	6
44	44	20
72	72	2
26	35	5
19	20	1
2	2	6
31	31	6
18	18	10
108	108	4
47	47	2
77	77	11
80	80	7
54	55	3
75	75	2
36	43	3
119	119	12
20	20	9
96	129	2
105	133	3
92	102	1
67	68	3
88	89	1
110	110	1
115	115	5
61	61	4
75	76	5
118	118	10
62	62	4
134	134	3
101	101	6
125	125	4
35	35	6
53	59	4
64	64	5
128	132	3
58	58	5
54	54	4
35	47	2
130	132	2
14	14	4
66	66	6
84	85	4
65	82	2
115	120	1
47	63	2
66	68	6
79	79	6
73	73	5
114	115	3
119	120	5
31	32	2
77	78	2
94	94	4
49	50	1
26	101	3
7	7	6
68	109	4
85	115	3
69	82	2
78	99	1
131	131	5
45	45	4
37	37	1
28	28	4
88	88	3
10	11	1
111	117	2
98	99	3
120	120	8
69	92	1
112	112	8
63	93	1
116	116	5
0	0	9
87	132	5
112	113	5
30	30	2
71	72	1
84	84	6
17	17	2
90	91	2
59	59	5
26	60	2
21	21	8
56	56	5
69	70	8
81	81	7
60	60	3
55	57	2
90	90	3
100	101	2
102	102	7
90	101	1
97	97	11
7	11	1
70	70	5
43	44	2
81	82	5
127	127	1
29	29	4
29	30	4
93	122	2
107	107	7
7	9	1
95	95	1
5	5	6
85	85	1
97	129	2
67	80	1
124	125	3
3	4	1
115	119	5
107	120	1
53	53	2
20	24	1
23	23	1
100	100	6
71	71	5
6	6	3
44	45	2
20	21	2
117	117	10
68	92	2
43	43	3
87	135	1
13	13	2
104	104	8
106	106	8
99	99	4
3	3	4
105	105	7
83	86	1
116	118	1
118	119	2
78	78	2
111	111	4
9	10	2
7	8	2
122	122	6
4	19	1
116	117	1
95	96	2
38	43	1
16	16	3
66	67	2
34	35	1
4	43	2
108	109	2
4	4	3
135	135	3
26	62	2
91	91	2
83	83	3
80	100	2
57	60	1
98	98	1
111	129	2
70	90	1
117	129	3
27	27	2
16	20	1
107	110	2
101	102	1
116	119	1
105	121	1
130	130	1
52	53	1
105	111	1
44	50	1
131	134	1
112	114	2
33	34	4
56	58	3
11	11	2
58	59	2
48	51	1
91	95	1
21	26	1
62	86	3
44	49	2
96	97	2
14	15	2
99	100	2
129	131	1
25	25	2
1	1	1
96	118	2
8	11	3
84	89	1
109	111	1
52	65	1
76	76	2
1	2	1
23	57	1
78	97	1
79	80	1
93	94	1
91	102	3
106	107	1
79	81	1
132	132	2
71	78	1
60	64	1
68	87	1
89	90	1
122	124	1
127	128	1
111	113	1
48	48	2
95	118	2
49	49	1
100	106	2
43	45	2
68	68	3
69	75	1
52	64	1
87	101	1
9	9	1
15	16	1
26	26	1
118	129	1
82	84	1
117	119	1
94	95	1
113	114	1
30	69	1
111	112	1
52	58	1
60	61	1
26	36	1
123	123	1
121	121	1
85	91	2
68	77	1
27	56	1
53	61	1
89	89	2
24	57	1
122	123	1
42	44	1
126	126	1
6	7	1
8	8	1
86	86	1
50	55	1
108	111	1
133	134	1
87	114	1
8	9	1
17	19	1
33	33	1
54	82	1
