3	3	10
13	13	8
34	34	7
27	27	6
34	63	1
47	47	9
73	73	8
20	20	12
25	25	10
71	71	7
86	87	1
79	80	4
60	62	5
54	54	25
30	31	2
66	66	9
76	76	14
34	48	6
61	61	11
65	65	14
82	83	5
77	77	15
79	79	12
30	30	6
62	62	5
51	54	1
47	83	1
31	31	19
48	51	4
50	52	3
64	66	5
68	68	12
66	74	3
24	53	5
85	85	11
35	35	2
81	84	4
51	55	4
52	52	11
61	62	6
83	83	12
24	24	14
60	77	4
69	69	11
20	21	7
51	51	12
17	17	14
18	18	5
1	1	1
46	55	3
66	67	2
78	80	2
84	84	10
77	78	12
78	78	4
53	54	3
10	10	12
59	81	1
63	63	13
82	82	15
50	50	12
32	32	4
52	53	8
60	63	2
7	7	15
67	68	1
3	50	1
53	53	19
12	12	13
59	60	10
3	19	5
71	78	2
71	72	5
48	82	1
71	74	5
89	89	5
87	87	12
54	55	3
49	49	7
5	5	5
20	81	1
78	79	2
22	22	16
25	52	1
19	20	6
71	87	3
84	85	13
64	64	7
65	66	2
67	67	10
72	72	8
26	26	6
6	55	3
85	86	1
73	74	3
12	13	2
57	57	11
55	56	4
25	26	10
55	55	10
81	85	11
81	87	3
59	59	9
6	79	2
49	50	5
55	64	2
60	76	2
64	65	1
77	87	4
0	0	11
50	51	4
28	28	2
23	23	13
5	65	3
8	8	9
63	78	1
64	75	2
24	25	1
75	75	10
9	10	3
9	25	1
6	65	4
56	56	11
59	76	2
6	6	9
67	86	1
48	52	1
71	86	6
19	19	6
70	74	2
57	60	1
21	21	6
14	14	3
63	64	10
81	81	5
9	11	2
58	58	10
48	49	4
59	63	2
11	11	4
34	46	1
49	78	4
15	15	6
76	77	1
49	82	2
5	8	1
86	86	4
4	4	5
89	90	1
59	61	2
56	64	3
12	50	2
70	72	6
8	10	3
75	85	3
48	78	1
76	79	1
82	85	1
59	62	2
11	27	1
7	50	3
64	76	3
48	48	3
75	84	1
15	89	2
74	76	2
74	74	1
33	46	2
1	67	3
23	24	3
62	80	2
10	59	2
47	48	1
9	9	3
7	33	4
16	24	2
88	88	8
46	60	1
71	80	3
70	70	4
12	20	2
87	88	1
80	85	1
23	49	1
7	9	1
5	6	1
84	86	1
27	54	1
62	64	2
58	59	1
74	75	2
46	82	2
12	21	1
80	80	5
29	29	1
6	80	2
50	72	1
46	46	1
83	85	2
0	1	1
46	49	1
25	27	1
13	46	1
8	30	1
68	69	1
51	52	1
7	16	1
52	77	1
3	22	1
26	27	2
17	26	1
66	84	1
5	7	1
18	33	1
60	61	1
22	27	1
16	17	1
83	84	1
61	85	1
