99	100	10
53	53	4
93	94	2
84	86	2
105	105	6
64	64	5
86	95	6
101	101	4
4	5	2
75	75	13
22	22	4
84	84	11
88	93	8
44	55	3
106	121	5
52	66	3
83	98	1
44	84	2
19	19	4
66	66	8
59	59	9
76	76	5
21	21	7
0	1	3
49	66	3
3	26	1
90	90	8
36	37	2
8	24	6
103	103	5
24	24	5
98	99	1
87	87	14
130	130	8
100	130	4
127	128	4
77	77	8
65	65	3
63	63	12
65	67	2
26	26	12
62	64	1
95	95	10
128	129	3
119	119	8
85	85	6
52	52	6
53	67	1
108	108	12
82	87	1
117	117	7
45	54	2
45	45	5
43	60	3
13	14	1
80	80	5
3	28	2
109	110	4
96	96	5
62	116	1
50	50	5
74	74	8
68	112	3
57	58	5
67	67	10
132	133	6
56	56	6
70	113	2
101	102	1
112	112	4
79	123	2
102	102	15
80	133	4
49	52	2
123	123	2
32	34	8
111	111	6
114	115	3
69	75	2
9	9	3
33	33	3
45	58	1
98	98	8
6	6	3
110	110	3
15	15	3
72	91	2
58	67	3
58	87	4
68	69	3
72	72	2
77	87	1
22	23	3
15	16	8
35	36	1
55	55	10
91	91	6
4	4	8
110	111	5
28	28	4
10	10	11
93	93	5
24	113	1
106	106	5
20	37	3
82	83	1
72	89	4
82	82	10
107	116	2
2	2	3
54	54	10
97	97	10
86	86	6
107	107	6
59	61	1
110	132	1
44	45	4
113	114	1
7	11	1
116	116	8
83	89	2
65	66	2
94	98	3
127	127	5
83	83	3
82	85	3
97	98	3
34	34	6
87	92	1
38	38	2
70	70	9
72	73	6
131	131	7
23	23	3
68	68	5
15	79	2
57	65	2
61	61	4
56	57	3
122	122	5
130	131	2
27	28	2
83	84	3
8	12	3
29	29	3
57	57	6
78	79	1
79	79	5
120	120	6
60	60	3
11	11	1
36	36	7
88	88	8
102	103	3
3	5	3
13	13	8
125	132	3
74	75	5
31	31	1
93	101	1
52	90	1
69	70	4
44	68	3
81	81	5
124	125	3
113	113	7
114	114	9
125	126	4
27	27	3
90	92	1
120	125	1
25	25	4
78	78	10
124	124	4
104	104	2
11	16	1
117	118	1
112	121	6
91	92	6
122	132	1
20	134	3
30	30	3
71	71	4
83	86	2
89	90	3
10	55	2
133	133	3
52	86	3
100	100	5
12	13	3
25	26	1
79	80	4
134	134	3
5	5	3
124	129	3
92	93	2
125	125	5
82	88	1
56	59	4
121	121	4
5	36	1
119	120	1
23	26	4
53	54	2
6	7	4
106	107	4
12	61	1
20	26	1
15	24	1
121	123	4
47	48	2
108	109	1
87	108	1
44	44	2
47	49	2
28	29	2
23	24	4
118	123	1
12	49	2
16	17	7
122	130	1
129	129	6
110	114	2
8	8	2
10	11	1
121	124	2
103	124	1
57	59	1
24	80	1
26	27	1
58	59	2
8	9	2
49	49	3
65	68	1
126	134	1
73	73	3
78	124	2
56	68	4
82	84	2
58	58	2
118	120	1
64	72	1
96	118	2
77	80	1
69	69	5
81	116	1
32	32	2
44	47	1
126	126	2
128	128	2
57	68	1
106	109	1
3	4	1
94	95	2
92	92	4
29	33	1
21	112	2
48	48	1
35	35	2
115	117	1
120	130	2
78	97	2
63	95	2
100	102	1
133	134	2
3	3	1
66	68	3
52	81	2
115	115	1
4	28	1
1	2	2
75	102	3
20	20	2
23	77	3
109	109	4
117	130	2
18	18	2
123	124	3
45	117	4
53	83	2
126	133	2
101	133	1
72	82	1
90	91	3
71	107	2
89	105	2
3	70	2
72	90	1
19	112	1
132	132	4
52	56	1
134	135	2
52	58	1
109	111	1
65	86	1
89	89	3
46	93	1
20	24	1
29	30	1
59	60	1
65	69	1
126	127	2
100	120	2
20	21	4
115	131	1
18	19	1
78	110	1
99	99	1
73	74	1
70	71	1
107	118	1
87	110	1
19	26	3
67	91	1
83	85	1
44	60	2
62	62	1
107	117	2
84	85	2
81	88	1
66	69	1
21	24	1
133	135	1
52	53	1
73	99	1
18	26	1
0	0	2
86	87	1
55	56	1
50	52	2
110	131	1
69	71	1
20	23	1
77	86	1
66	77	1
107	120	1
49	50	1
31	32	1
69	97	1
37	37	1
66	67	1
