154	154	10
43	51	2
70	71	5
152	153	13
109	109	6
112	113	3
214	214	7
37	38	6
220	222	2
207	207	6
205	205	19
118	121	1
4	15	2
11	11	15
111	111	8
225	225	5
230	231	2
82	82	5
196	196	4
206	207	5
48	49	7
199	205	3
85	86	8
83	85	3
39	39	8
167	167	5
182	182	5
219	219	3
30	30	8
179	179	7
41	52	1
195	197	4
56	112	1
187	188	9
163	164	8
41	41	7
220	220	6
186	186	11
8	8	15
61	61	6
229	229	4
44	44	10
220	223	10
4	13	4
38	38	5
58	60	1
6	7	4
65	65	19
119	120	2
110	118	6
166	166	12
27	27	19
22	22	1
218	231	3
201	201	15
152	152	1
6	6	7
96	97	3
92	92	6
151	151	10
175	177	1
201	205	2
157	159	2
73	74	1
213	215	4
177	180	5
168	168	5
230	230	5
26	26	5
226	227	5
247	247	2
174	175	8
244	244	9
237	239	1
113	113	6
72	72	5
82	83	5
174	176	3
80	81	2
51	51	6
242	245	2
4	4	4
1	19	2
89	90	5
186	188	1
93	93	17
144	145	2
206	206	8
94	94	4
212	212	11
241	241	4
233	233	15
204	206	2
179	181	5
20	20	6
177	177	9
47	47	5
17	69	1
211	211	7
172	173	2
25	26	3
80	82	2
73	73	8
238	238	3
50	51	4
158	159	7
112	112	8
79	83	8
169	169	2
240	240	3
59	59	5
156	156	8
104	105	1
201	202	1
160	160	4
116	116	3
6	10	1
154	156	5
35	36	2
95	96	4
153	157	6
202	203	6
153	153	9
204	205	3
172	172	13
245	246	6
215	233	2
118	118	8
82	85	4
211	213	4
186	190	1
52	53	2
115	116	10
228	229	3
100	100	1
74	74	4
67	68	4
242	242	9
62	94	3
19	19	3
181	192	3
63	63	6
70	76	4
87	87	5
205	225	3
18	18	8
150	150	12
46	58	1
43	180	2
110	115	2
177	181	2
23	24	2
31	32	9
16	16	5
147	147	4
157	157	7
221	221	2
226	226	1
247	249	1
155	155	11
186	200	3
159	159	6
194	194	2
146	146	3
28	30	5
43	43	3
176	196	2
210	213	2
72	76	3
163	165	10
243	243	4
181	190	3
32	32	8
236	236	8
171	171	7
224	224	2
18	19	5
29	29	4
208	209	3
5	6	4
15	34	2
18	20	2
36	36	3
81	81	2
165	165	11
229	230	2
217	232	1
211	212	6
12	38	4
24	24	3
215	215	2
90	90	5
200	201	8
48	48	2
246	246	11
198	200	4
115	115	4
11	15	2
106	109	4
209	209	6
63	94	4
5	5	3
106	106	4
193	195	3
21	22	4
21	21	5
237	237	2
37	37	18
94	95	2
2	11	3
98	101	2
207	208	3
0	10	2
173	173	4
227	227	5
33	33	5
42	46	2
9	9	5
204	204	5
64	64	4
52	52	6
239	239	5
178	179	4
198	198	10
162	162	1
28	31	3
178	178	4
175	176	2
192	193	5
106	107	1
46	47	3
78	79	5
176	176	1
93	95	2
183	183	5
150	151	6
207	209	2
199	199	3
231	231	2
35	35	3
28	28	2
96	96	3
200	227	1
67	67	4
168	169	1
32	33	2
63	95	2
3	11	2
197	236	3
219	220	2
161	162	3
31	31	8
58	58	3
68	69	1
68	68	3
170	170	2
239	240	5
23	23	3
205	206	7
162	212	1
157	178	3
40	40	10
108	109	4
69	69	4
158	158	1
105	105	3
212	213	4
156	160	2
54	54	7
107	107	2
24	25	5
110	150	5
102	105	1
221	223	2
54	55	2
232	232	2
200	200	7
182	242	4
245	247	2
179	180	1
245	245	2
232	233	4
66	66	3
210	210	7
168	212	5
203	204	5
39	44	2
9	10	4
185	187	3
194	195	2
17	20	4
59	60	1
208	208	4
15	16	1
41	42	3
180	180	4
91	111	2
30	198	1
33	115	2
201	212	1
17	17	6
167	168	2
60	61	4
120	120	1
173	197	1
56	85	1
89	89	2
153	154	3
166	167	5
235	235	3
234	234	3
181	182	4
190	191	2
39	40	2
51	248	1
97	98	2
105	106	3
15	15	6
51	53	3
149	150	2
241	242	2
244	245	3
75	76	3
170	179	1
45	45	2
12	12	1
79	87	2
218	218	2
103	105	4
61	63	2
222	222	4
201	228	3
7	9	1
37	247	3
81	82	2
14	15	3
185	200	1
88	88	2
56	56	3
182	183	2
223	225	5
50	50	2
167	172	2
69	70	3
220	225	3
8	10	1
113	114	2
197	198	4
0	1	1
88	89	4
160	171	1
57	59	2
205	210	1
18	34	2
16	73	2
103	103	3
56	60	3
93	94	4
76	76	1
185	185	5
187	187	2
80	84	1
89	98	4
68	186	1
71	72	4
197	197	2
182	222	1
116	117	1
231	235	2
162	164	3
46	46	2
91	91	5
233	234	1
164	177	2
3	13	1
153	167	1
5	39	6
57	61	2
85	85	1
75	80	2
198	199	1
87	89	3
154	155	1
1	1	3
111	112	3
179	200	2
209	210	1
202	202	2
173	219	1
17	67	2
155	202	2
47	67	1
243	245	1
162	165	2
242	247	2
44	224	1
209	212	1
218	219	3
78	87	1
7	7	2
217	217	2
13	14	1
10	166	2
108	108	3
44	45	1
95	95	4
37	39	2
164	164	1
10	10	1
111	242	2
213	213	6
74	98	1
88	90	2
87	88	2
43	214	1
145	150	1
4	12	4
121	121	1
114	114	7
80	96	1
208	213	1
33	34	1
149	149	1
110	111	1
66	67	1
31	35	1
238	239	1
174	174	2
3	3	2
196	197	5
46	169	2
191	192	1
188	189	1
237	240	3
32	93	2
158	185	2
216	238	1
8	9	1
60	60	1
63	186	2
88	101	1
107	109	2
165	166	1
240	241	3
83	84	1
108	117	1
117	118	1
51	166	1
62	62	1
208	211	2
71	76	2
9	11	2
158	160	1
177	199	1
216	218	1
119	119	1
32	38	2
87	94	1
223	224	2
55	55	1
181	187	2
230	235	1
14	14	2
163	163	1
29	63	1
194	208	1
40	43	1
20	22	1
55	85	1
65	73	2
16	17	1
146	147	1
169	175	1
208	212	1
27	28	1
52	54	1
26	166	1
12	14	1
111	118	1
35	39	1
152	154	1
111	243	1
243	249	1
194	196	1
43	44	1
102	104	1
55	56	1
175	175	1
118	119	1
187	189	1
86	86	1
19	46	1
29	30	1
53	53	1
168	193	1
237	241	1
61	62	1
47	48	1
186	197	1
28	29	1
