175	176	2
208	208	12
66	68	5
59	60	13
19	49	6
215	216	6
14	34	7
51	52	7
199	199	7
6	7	11
11	11	14
205	207	3
73	73	13
80	80	12
9	9	27
153	153	8
235	235	6
79	80	4
31	32	5
172	172	6
68	69	3
203	203	15
8	8	15
152	188	4
76	79	3
17	17	20
125	126	6
140	140	15
189	189	11
242	242	15
20	21	15
102	102	22
14	15	6
217	217	27
232	232	14
224	225	12
3	3	14
198	198	17
158	159	7
12	13	3
3	61	4
143	145	3
209	209	10
189	220	3
25	65	3
45	69	2
28	28	21
29	29	21
18	18	12
148	148	7
64	64	18
134	135	2
127	127	13
14	14	13
228	228	14
128	159	2
24	24	34
120	121	7
35	52	2
10	10	20
25	25	13
65	65	12
6	6	11
192	192	12
60	62	1
4	217	7
49	49	14
48	48	17
95	95	6
50	51	2
142	146	2
22	22	13
22	29	8
56	57	7
58	58	17
2	4	3
195	195	19
142	142	10
29	57	2
50	53	1
62	62	14
6	9	4
31	60	2
227	227	8
141	142	8
168	168	10
161	164	6
31	78	3
143	144	1
45	136	2
136	136	5
237	237	9
31	80	3
63	63	19
85	85	17
53	56	5
25	97	2
132	222	1
234	234	7
229	229	11
70	70	5
104	105	7
171	172	6
26	26	17
81	83	10
46	55	6
55	170	3
113	113	2
171	171	5
41	41	8
31	33	3
204	204	16
105	124	5
104	104	10
29	30	11
21	21	5
188	189	4
79	79	14
23	23	6
57	60	6
100	100	7
71	72	6
122	122	19
155	155	4
223	223	6
23	97	1
55	60	1
140	146	4
53	74	3
47	48	5
118	119	7
218	218	9
159	165	3
109	113	3
103	105	4
200	200	9
2	2	12
44	138	2
11	12	3
194	196	1
12	12	21
239	239	16
159	161	1
38	38	4
40	40	8
16	16	17
184	184	11
33	33	15
163	164	8
48	134	6
33	76	1
5	6	13
82	98	3
75	79	5
129	129	14
42	62	3
202	202	18
218	219	5
175	175	30
19	19	18
27	27	14
51	53	14
4	4	15
49	52	4
196	196	3
214	219	5
213	214	7
61	61	15
103	103	23
52	54	5
83	83	11
32	143	5
101	101	16
25	96	1
160	160	10
121	155	3
76	78	3
52	53	5
72	72	26
31	31	13
83	85	1
103	121	1
133	133	4
37	37	11
18	19	3
181	182	6
28	29	2
187	188	5
173	173	23
1	1	19
170	170	13
50	50	12
86	86	14
174	174	29
114	114	3
140	141	9
116	116	6
82	84	4
39	55	3
147	147	8
54	55	11
56	56	11
55	56	10
164	165	5
208	220	5
211	211	5
176	176	6
33	34	9
75	148	5
84	84	15
205	205	7
71	71	12
210	210	5
146	153	2
20	49	1
96	96	8
2	3	24
213	213	3
130	130	8
96	99	2
188	188	9
12	15	3
169	178	1
44	75	3
206	206	15
2	60	4
13	15	6
12	37	4
5	7	4
53	53	6
26	27	7
191	191	13
81	98	5
97	171	2
139	145	4
180	180	5
151	151	3
185	186	1
198	199	5
44	44	11
189	202	1
241	241	18
80	84	5
195	196	7
42	43	2
43	43	20
43	44	5
59	59	9
31	79	3
54	171	1
145	145	10
137	146	4
8	217	7
221	227	3
231	231	10
156	156	13
30	30	11
222	222	4
205	206	4
122	124	1
228	230	2
38	43	2
35	35	20
115	115	8
211	213	7
66	66	5
60	60	11
7	218	8
198	216	1
9	88	4
74	74	5
240	240	9
214	214	12
0	2	1
150	150	18
137	138	3
104	129	1
51	54	5
32	138	2
198	215	1
4	5	13
57	57	16
225	226	1
170	227	2
211	212	7
69	69	10
167	169	2
51	51	8
162	163	7
77	77	10
177	177	15
225	225	2
106	106	13
21	22	8
111	111	5
49	51	8
99	103	3
146	191	5
126	130	7
98	98	19
87	87	1
42	42	16
47	47	7
64	72	2
146	185	3
123	127	4
237	238	6
228	229	6
139	144	4
39	40	8
226	227	5
129	168	2
34	34	11
114	119	1
230	230	5
80	81	8
190	190	10
76	76	7
116	119	5
162	162	8
152	152	5
38	88	1
165	165	5
98	99	1
54	54	13
158	158	13
34	35	8
208	221	2
158	161	2
44	65	4
40	44	2
235	236	6
39	39	14
86	87	3
135	136	2
17	19	8
179	179	9
148	149	4
185	185	10
55	57	4
221	222	6
222	223	3
227	229	1
67	67	16
15	15	17
238	239	3
66	67	8
121	121	8
36	37	6
204	205	3
5	5	7
34	36	9
192	194	3
236	238	4
123	123	8
146	146	1
123	124	11
104	117	2
108	114	4
3	218	4
107	107	4
214	215	8
182	182	9
13	14	5
210	213	1
190	191	5
167	168	1
65	68	1
121	131	2
152	184	1
1	3	6
89	106	1
15	215	1
122	123	3
199	200	7
57	96	1
118	118	11
98	100	3
104	127	1
170	171	5
147	149	3
9	10	4
47	51	4
216	216	10
82	83	12
107	108	3
58	60	3
184	187	4
114	117	4
225	227	3
196	197	9
37	38	3
35	36	4
24	138	2
20	20	10
82	82	3
125	125	8
215	220	3
0	63	5
126	129	1
144	146	7
110	110	3
23	137	5
100	122	2
18	20	2
139	139	7
203	204	4
32	32	11
124	126	3
16	17	10
103	104	1
29	84	2
53	54	4
123	125	2
7	11	3
154	154	9
224	228	2
39	53	2
178	178	5
169	169	17
43	45	2
52	52	15
167	167	10
21	23	1
49	84	2
52	76	4
71	73	3
65	67	1
138	139	6
195	197	1
104	203	2
52	57	4
179	180	4
201	201	6
221	229	3
13	16	3
103	117	2
27	28	6
22	23	3
225	230	2
230	231	3
108	108	2
135	137	1
52	75	1
22	132	3
74	131	2
226	226	4
221	221	10
46	46	19
47	50	3
141	141	7
241	242	2
168	169	2
97	99	3
212	212	9
199	213	2
128	128	10
189	190	3
51	57	1
209	210	6
151	152	2
36	36	10
78	78	9
0	9	1
100	107	4
78	79	1
11	13	6
190	203	2
154	155	2
49	50	1
184	185	1
7	7	4
85	86	3
138	138	9
132	132	1
10	19	2
58	59	2
97	97	14
10	11	5
105	127	1
103	114	1
27	161	3
185	189	1
191	193	3
36	147	3
240	241	1
95	103	1
183	188	2
187	187	2
23	24	3
79	81	5
207	207	9
62	64	3
178	229	1
238	240	2
240	242	2
34	37	4
76	105	2
194	197	2
174	186	2
147	148	5
145	193	2
124	124	6
68	68	13
194	195	3
172	173	4
219	219	3
31	59	4
73	74	10
181	181	2
95	97	2
204	206	2
36	38	1
136	191	4
51	56	4
200	211	2
31	34	2
144	144	2
102	103	3
25	61	1
44	69	3
147	190	3
206	207	6
124	130	2
173	208	1
105	106	3
223	225	1
45	45	1
31	102	1
84	98	1
28	117	2
152	153	2
239	240	4
193	194	9
104	118	5
65	66	6
197	197	7
144	147	6
99	99	6
124	125	4
153	154	2
56	63	4
150	151	5
24	25	6
233	233	3
207	208	5
30	32	1
223	224	8
238	238	4
201	202	1
123	130	1
213	222	3
103	107	2
145	147	4
163	165	1
172	209	2
143	143	3
100	101	3
166	167	2
122	129	8
12	58	2
1	8	2
127	130	3
232	233	3
16	18	1
164	164	3
63	65	2
75	75	4
64	65	2
83	224	2
168	200	3
121	132	1
75	131	6
214	223	3
96	97	5
166	166	8
220	222	2
48	51	2
190	202	1
39	41	2
135	135	3
13	13	11
231	232	1
25	54	3
190	192	1
100	113	1
35	60	1
35	37	3
13	37	3
43	62	3
163	163	2
149	149	6
105	105	10
160	161	4
25	28	3
77	78	1
54	170	2
57	58	1
202	204	1
220	220	5
28	38	1
103	163	1
8	218	3
100	102	5
95	98	2
234	236	2
55	55	3
121	168	2
229	230	9
102	162	1
115	116	1
4	7	2
9	37	1
81	81	3
200	210	1
79	140	2
126	126	3
8	17	2
213	215	3
28	85	5
8	214	1
30	31	4
120	120	6
15	31	2
136	137	1
61	62	2
183	183	10
109	109	5
4	8	5
136	142	2
100	108	3
138	141	2
88	89	3
224	224	4
174	207	2
14	51	1
212	222	2
109	110	5
215	215	3
3	7	1
20	48	1
25	53	1
80	82	6
99	169	3
80	83	3
32	58	1
0	0	6
211	216	3
45	95	2
158	186	2
130	168	4
166	202	2
15	17	3
107	118	3
204	225	3
138	143	1
149	150	1
172	188	4
63	64	5
105	120	1
180	182	3
193	195	1
106	107	3
166	200	4
121	122	2
212	213	3
22	30	1
108	116	2
32	33	2
133	134	2
106	118	1
47	55	3
54	61	1
1	9	2
178	180	1
150	152	1
186	186	1
11	73	2
52	56	1
155	156	3
48	49	1
159	159	3
16	21	4
40	42	3
121	123	1
114	115	4
65	97	1
34	56	1
31	76	1
178	179	3
233	235	1
160	162	2
176	177	2
11	15	3
191	196	1
65	71	2
17	18	3
75	78	2
147	187	1
177	178	2
161	165	1
29	75	3
112	158	2
213	216	1
183	189	3
39	75	1
134	134	2
17	40	4
216	220	1
157	157	3
105	153	4
1	2	3
128	131	2
102	104	1
7	9	1
236	236	5
161	161	1
148	187	1
142	143	2
66	171	1
126	127	1
50	52	3
40	41	2
7	8	1
127	128	1
117	117	4
140	143	2
6	16	1
138	144	3
4	6	2
75	80	1
119	119	4
234	235	1
233	238	3
5	15	2
40	105	2
50	84	1
186	187	2
152	154	2
140	165	1
10	54	3
127	129	1
8	20	1
184	188	1
39	54	3
2	18	1
12	32	1
88	88	5
154	156	2
124	167	1
39	51	3
116	117	2
34	38	2
48	136	1
23	57	4
62	63	3
54	69	1
74	81	1
16	51	1
8	10	1
171	205	1
48	52	2
234	238	3
106	124	2
217	218	3
121	130	1
42	46	1
19	20	3
8	16	1
145	155	1
25	68	3
126	169	1
8	15	1
48	54	2
104	124	1
145	149	2
8	9	2
101	118	1
30	84	1
210	211	1
37	54	3
10	98	3
0	1	3
0	4	2
184	186	1
185	195	2
12	38	2
85	131	1
226	228	2
185	188	1
212	223	1
171	207	1
62	231	1
1	58	2
112	113	1
14	56	1
128	134	2
200	202	1
70	71	1
122	160	1
99	100	1
102	107	1
36	83	1
198	227	2
179	182	1
23	59	1
44	46	2
214	216	3
165	168	3
133	135	1
43	63	1
81	104	2
76	77	1
20	23	1
137	137	1
208	209	2
20	141	1
47	70	2
154	157	1
156	157	1
153	158	2
190	200	1
83	84	4
11	236	1
23	58	1
23	96	2
141	166	1
214	217	1
8	11	1
68	103	1
107	117	1
159	160	2
233	234	1
64	68	1
19	142	2
43	46	1
139	143	1
27	122	1
13	34	1
157	158	1
27	38	1
39	86	1
40	51	1
111	158	1
101	103	1
20	22	1
14	31	2
112	159	1
140	168	1
55	69	1
84	88	1
125	127	1
64	67	1
167	189	1
77	90	1
223	229	1
226	229	1
166	189	1
15	16	1
60	61	1
140	142	1
