134	134	6
113	115	2
167	167	10
29	29	7
21	21	9
131	147	6
1	10	3
88	88	7
122	162	1
117	117	15
116	117	5
30	30	12
63	66	1
24	24	11
33	37	2
22	23	7
123	123	3
13	13	16
146	146	4
124	125	1
55	55	3
25	25	7
2	2	6
82	127	1
90	90	13
31	31	8
38	38	5
63	97	4
42	42	5
17	24	5
171	171	4
72	72	6
4	4	5
11	46	4
135	135	8
37	37	8
151	151	5
44	44	8
8	12	7
59	99	1
87	87	6
57	58	1
64	66	2
150	150	1
7	7	7
64	78	1
1	1	10
145	145	5
24	25	10
8	8	8
155	156	6
64	64	11
85	85	8
120	166	2
178	178	4
1	5	2
89	107	2
5	6	12
83	83	6
156	177	5
13	14	3
10	10	7
39	39	14
102	103	3
104	105	2
115	126	4
172	174	2
90	92	2
34	34	3
14	14	4
144	144	6
116	118	3
50	51	3
127	127	5
153	173	5
18	18	6
15	15	7
143	145	1
63	63	9
68	98	2
11	104	1
64	116	2
114	114	2
50	131	1
65	65	6
43	43	1
60	102	2
81	94	8
3	3	9
66	67	6
23	23	9
154	177	1
109	110	2
136	136	2
122	122	4
27	27	5
91	91	2
79	132	1
9	10	4
27	29	3
52	52	6
71	71	5
2	7	2
71	105	4
7	9	5
149	149	2
116	116	7
40	40	12
79	79	3
17	17	13
114	174	1
92	92	4
136	168	1
160	164	4
45	66	2
84	85	4
93	95	2
90	91	2
2	3	4
109	109	7
91	171	1
129	130	4
111	133	1
19	19	3
158	158	9
163	163	9
77	137	1
41	41	7
179	179	4
80	86	2
0	0	11
78	78	9
5	31	1
155	160	5
37	42	1
74	102	1
119	151	4
148	148	5
75	106	1
121	121	1
173	173	2
11	11	10
91	92	3
176	176	1
106	130	1
31	32	2
18	19	2
11	12	2
125	125	6
51	51	2
23	92	2
164	166	2
83	84	5
65	147	3
92	93	3
56	58	2
101	101	9
155	155	5
115	128	1
91	134	2
6	6	10
19	20	7
49	49	2
152	153	1
143	143	6
178	179	1
150	165	2
63	64	1
8	15	2
132	157	3
25	26	5
77	78	3
28	28	2
136	155	2
16	31	1
89	89	8
2	15	1
54	77	4
119	119	6
120	121	2
157	157	4
61	111	6
94	101	2
85	171	1
36	41	1
55	56	1
56	144	4
24	26	3
7	8	3
56	56	2
154	160	2
164	164	7
96	96	2
32	33	7
73	87	2
125	163	2
140	140	5
112	113	1
106	106	6
95	163	3
133	138	1
35	44	3
97	98	1
120	120	2
132	133	3
30	132	1
56	133	3
73	73	5
136	173	2
33	33	6
29	30	1
134	165	1
94	94	3
50	50	4
126	126	7
113	113	4
115	115	2
111	111	2
135	136	2
75	75	4
161	161	6
35	35	5
66	98	2
6	7	3
168	168	1
57	57	4
93	93	4
97	97	6
179	180	2
15	16	9
62	96	2
174	175	1
36	36	5
94	123	2
118	118	3
139	139	7
126	129	3
17	26	1
130	169	2
121	151	1
154	158	1
141	141	6
71	72	1
103	107	7
16	16	1
26	26	8
45	45	5
49	51	4
61	61	5
23	28	2
154	154	5
18	26	1
36	37	3
99	100	5
121	122	2
136	154	4
87	97	2
88	92	1
37	38	2
28	29	1
86	86	2
77	77	7
30	31	3
139	142	1
118	119	3
105	105	1
73	75	3
143	155	1
30	41	1
159	169	1
19	22	2
17	18	3
78	130	2
169	169	3
80	80	3
43	44	3
66	66	3
152	152	4
133	133	4
6	8	1
126	128	4
156	156	4
8	29	4
4	30	1
20	20	6
74	111	2
51	106	1
39	40	4
53	60	3
9	9	7
7	30	1
93	125	1
13	31	2
29	31	1
81	81	3
158	159	3
34	38	2
62	75	1
34	44	1
5	5	6
36	74	1
16	28	1
4	13	1
62	62	3
119	147	2
86	87	1
59	59	3
117	149	1
123	124	3
137	137	4
5	7	1
41	45	2
13	18	7
143	167	1
58	58	1
14	24	1
2	9	3
161	163	2
23	25	2
68	88	2
173	179	1
76	76	5
151	156	1
171	172	2
151	152	1
20	22	1
67	67	3
64	112	1
73	84	2
163	165	2
18	30	1
5	8	2
4	18	1
145	177	2
111	112	1
9	23	3
88	171	3
45	46	2
162	162	1
114	146	1
160	160	4
82	82	2
74	74	2
110	110	7
128	128	1
158	169	1
85	86	4
151	158	1
18	24	2
75	122	1
159	177	1
3	49	1
22	22	5
14	15	3
102	102	2
100	100	5
160	162	2
91	93	1
109	169	1
104	104	1
123	125	2
12	14	1
20	28	2
10	14	2
100	128	1
121	126	2
120	126	2
88	102	2
75	104	1
31	66	1
139	179	1
107	146	1
108	108	3
124	124	4
53	53	2
8	90	1
157	158	1
12	13	1
13	88	2
26	28	3
7	29	2
107	109	1
3	31	1
150	151	1
60	60	1
173	178	2
167	168	1
143	144	2
22	44	1
163	164	4
80	83	2
162	163	1
81	101	1
147	147	1
134	170	1
68	68	1
14	18	1
125	130	1
76	109	1
54	60	1
91	111	1
29	68	1
32	32	1
128	129	1
26	125	1
38	39	1
153	153	2
139	141	1
158	174	1
70	70	1
151	157	1
180	180	1
138	138	1
87	135	1
87	106	2
172	172	4
112	112	1
38	40	2
150	173	1
10	28	1
170	170	1
80	81	1
54	100	1
105	106	1
12	21	1
36	38	1
33	34	1
98	167	1
12	15	1
56	57	1
0	14	1
152	166	1
110	111	1
154	173	1
130	130	1
31	43	1
