13	13	2
72	72	5
25	39	1
52	53	10
60	61	1
52	54	3
101	107	1
112	112	5
50	51	3
10	10	4
127	127	8
126	126	2
122	123	2
51	51	4
107	132	2
26	26	5
88	95	4
57	57	5
89	89	5
23	23	3
54	70	3
71	71	2
21	48	1
43	44	4
63	63	8
114	129	1
111	113	1
118	119	3
131	131	1
75	75	5
54	56	2
14	14	4
89	90	4
17	18	2
42	114	1
127	128	5
14	15	4
1	1	5
73	75	2
115	115	5
92	92	4
85	85	5
75	77	2
69	72	3
121	122	2
16	16	6
20	21	1
55	55	5
123	123	2
21	22	1
34	34	3
85	86	1
58	58	1
30	33	4
32	44	4
45	45	2
40	45	2
43	43	5
62	62	3
84	87	3
114	114	6
3	3	3
56	56	4
67	68	2
121	121	3
7	7	1
21	21	1
97	97	8
51	81	1
111	111	3
30	30	2
120	120	3
80	80	1
68	73	2
72	82	2
69	69	4
59	60	2
8	10	2
8	14	2
119	119	2
48	48	5
104	104	1
32	32	3
75	99	3
79	79	6
101	101	4
50	50	1
113	113	5
58	93	1
94	94	3
109	111	1
53	54	1
73	73	1
65	65	4
109	109	2
25	117	2
15	15	1
2	2	4
44	44	6
66	66	4
32	33	2
4	5	1
81	93	1
49	50	1
9	9	3
108	108	2
29	31	3
77	78	3
129	129	5
32	45	1
68	68	1
88	88	2
95	95	3
21	23	2
67	69	1
12	12	5
2	11	5
86	86	2
2	7	2
127	131	1
104	107	3
62	98	2
11	11	2
48	132	4
64	88	2
45	84	1
5	39	1
84	85	1
41	41	2
4	25	3
29	29	5
42	84	1
120	121	1
23	118	1
58	62	1
62	64	1
29	93	2
28	29	2
49	96	1
46	125	1
26	71	1
60	60	7
25	43	1
69	94	1
62	63	2
25	25	1
12	13	1
18	24	2
31	31	1
78	78	2
115	116	3
58	63	1
0	1	1
96	96	2
50	53	1
20	20	1
25	26	1
110	110	1
114	125	1
30	118	1
42	67	1
69	93	1
128	128	3
53	56	2
82	83	1
6	6	2
102	113	1
44	62	1
28	41	2
85	111	1
94	95	1
22	24	1
28	63	1
0	0	1
48	49	1
91	91	1
104	116	1
39	39	1
108	124	2
23	28	1
47	47	2
53	53	1
5	5	1
117	117	1
