66	66	7
45	45	6
121	122	2
112	112	6
98	98	9
103	103	4
59	59	8
22	112	3
113	113	13
10	10	1
133	133	16
125	125	7
30	30	14
31	32	2
8	23	1
7	7	12
17	23	2
19	19	9
140	140	11
107	107	14
97	97	12
34	34	7
59	111	3
84	84	4
61	63	3
72	116	3
141	143	3
33	33	4
77	77	6
47	47	7
124	125	2
150	150	5
18	48	3
142	142	7
181	181	4
138	138	5
38	38	1
124	130	3
104	106	3
14	14	8
1	3	1
21	59	1
178	180	1
102	102	2
105	105	6
159	173	1
17	115	4
123	129	2
25	25	10
39	39	5
35	35	10
57	57	8
75	76	2
27	28	11
147	147	8
71	108	2
182	183	2
116	119	4
69	69	2
11	11	3
82	82	8
6	21	2
18	18	10
0	0	6
58	58	4
27	27	1
141	141	6
128	129	1
99	127	2
120	122	2
163	163	9
37	38	4
43	43	6
4	4	1
7	25	2
34	42	1
165	165	10
104	108	2
64	64	3
21	22	12
56	56	5
72	74	7
99	99	13
20	20	5
80	80	7
117	117	8
111	114	4
39	41	1
187	189	1
53	54	5
85	144	3
140	152	3
155	156	5
26	27	2
142	143	1
59	61	1
78	95	5
109	109	10
146	146	5
157	157	2
148	148	4
171	171	4
76	76	3
2	3	6
83	111	4
57	103	2
62	62	8
123	123	8
116	116	4
5	5	4
138	147	1
143	143	3
71	72	1
53	53	4
113	114	3
75	75	2
28	166	1
111	174	2
154	154	13
127	128	3
53	70	1
178	186	4
152	153	13
60	61	5
131	132	7
30	32	1
6	6	6
14	18	1
22	22	3
149	149	12
13	22	1
12	21	3
36	37	4
152	152	2
68	69	1
12	12	5
105	111	1
135	135	7
185	185	9
167	167	1
184	184	1
80	142	2
17	17	11
90	90	5
79	79	10
158	165	2
115	115	3
31	47	1
83	83	4
8	8	7
32	34	1
24	24	9
57	82	3
94	94	4
25	115	2
68	68	6
142	170	2
164	164	8
4	107	3
122	123	1
72	155	5
6	118	2
54	82	3
78	78	9
130	130	8
72	72	4
183	183	1
78	92	4
26	113	1
108	108	5
71	163	1
137	137	5
108	137	5
104	104	2
66	68	4
120	120	4
15	18	1
91	92	6
139	140	2
176	176	7
67	118	1
89	90	2
133	134	4
86	89	3
160	161	2
72	163	1
16	115	2
136	137	4
169	170	3
96	99	4
8	37	2
6	110	1
110	111	4
23	48	3
135	136	6
186	186	3
75	140	2
71	71	1
32	32	2
79	94	3
44	45	2
155	155	6
73	138	3
83	112	1
10	14	1
15	107	1
13	19	2
110	110	2
128	128	4
184	185	2
136	136	4
16	16	4
73	135	2
153	153	11
144	145	5
161	162	4
29	29	3
110	112	2
52	52	8
58	111	1
13	13	7
124	127	3
3	3	5
48	48	6
156	156	4
66	67	5
85	127	2
67	136	4
30	44	1
178	179	3
41	41	9
36	36	5
96	96	4
109	115	1
55	56	3
75	125	2
15	16	3
130	134	3
174	174	4
67	67	3
87	87	5
6	20	1
182	182	2
89	89	8
86	86	5
81	82	3
140	147	3
2	2	5
63	64	2
34	166	2
59	62	3
177	177	3
24	37	1
30	34	1
43	44	2
4	14	1
31	31	4
40	40	14
78	79	1
148	149	1
129	129	3
131	138	1
36	165	3
94	120	1
17	18	1
81	133	4
20	21	1
145	146	3
158	163	4
167	187	1
54	54	3
11	14	3
121	121	2
101	104	5
135	137	2
117	118	1
89	121	1
57	58	1
55	55	9
78	127	3
129	140	2
71	119	1
88	89	1
138	139	3
85	86	1
15	15	3
126	126	4
63	63	1
57	63	2
70	71	1
188	188	5
88	88	8
33	43	1
59	112	1
147	148	3
74	74	1
169	169	5
109	116	3
150	156	1
176	180	1
53	82	2
1	90	3
111	112	1
46	46	3
53	56	2
67	135	4
3	39	3
106	183	3
8	22	1
158	158	4
93	93	2
122	122	4
150	179	1
162	163	2
189	189	5
10	108	1
73	73	1
46	47	2
85	85	4
134	134	5
71	117	3
82	83	1
72	117	4
101	101	4
171	172	1
39	114	1
86	88	2
11	12	1
33	47	2
56	57	2
86	121	1
34	36	3
7	26	1
106	106	2
90	91	2
28	29	2
5	112	1
173	173	2
188	190	2
189	190	1
119	119	3
139	139	3
159	160	1
18	19	3
83	117	1
79	127	1
137	139	4
125	126	1
34	44	3
36	43	1
34	167	2
166	166	2
61	62	1
99	129	1
19	112	2
170	173	2
21	113	1
92	92	4
96	97	2
100	104	1
126	127	2
164	165	2
105	155	2
148	151	1
144	144	2
102	103	2
31	53	1
67	68	2
16	116	2
87	88	1
52	56	1
15	48	2
106	107	1
187	187	2
176	178	2
28	28	1
186	187	1
116	117	2
175	175	1
8	10	1
82	117	3
127	127	1
26	26	2
14	23	1
65	66	1
170	186	1
169	186	1
59	63	1
36	171	1
3	109	1
6	19	2
16	17	1
71	155	3
111	111	3
30	31	2
45	46	2
91	91	2
12	13	1
90	140	1
44	44	2
171	173	2
120	121	3
124	124	3
53	81	3
109	110	2
37	37	2
151	151	2
175	176	1
68	98	1
131	134	2
31	38	1
76	95	3
74	161	2
116	118	1
5	14	1
104	115	1
5	110	1
74	158	2
38	39	2
6	25	2
29	32	1
145	154	1
9	19	1
77	78	1
33	113	2
9	10	1
133	137	1
100	120	2
167	168	1
73	145	1
29	30	2
113	115	1
42	42	1
131	133	2
19	20	2
78	86	1
73	155	1
11	19	1
118	118	1
100	100	1
76	122	1
42	189	1
141	142	1
134	135	1
86	87	1
132	132	1
5	21	1
124	131	1
12	14	1
71	73	1
80	134	1
65	118	1
84	85	1
99	128	1
78	126	1
84	98	1
71	115	1
15	17	1
92	95	1
9	9	1
74	76	1
92	93	1
59	64	1
6	23	1
