28	33	8
67	100	2
20	20	14
19	21	3
98	98	9
54	59	7
49	49	29
89	89	19
97	97	12
27	52	4
28	28	12
94	94	10
45	61	2
69	69	2
73	81	2
110	110	8
33	38	2
79	80	5
104	104	15
79	79	8
107	107	3
27	27	8
36	36	7
25	25	14
81	84	6
26	26	9
50	51	4
60	74	2
106	106	7
71	81	2
73	75	4
34	35	3
63	83	1
45	45	10
100	101	5
81	94	1
67	71	4
72	75	11
31	31	3
111	111	15
101	101	5
88	88	7
37	38	10
21	33	3
20	21	1
85	85	11
58	58	10
84	84	13
29	39	4
81	81	11
54	54	14
91	91	7
60	61	3
99	99	4
53	54	2
64	87	3
85	92	7
44	44	8
99	111	6
35	37	5
64	70	2
112	112	14
32	32	8
76	76	13
62	88	3
55	58	2
53	53	8
83	83	11
64	64	6
95	95	4
21	21	12
48	48	1
112	113	7
94	98	3
61	61	4
33	34	4
81	93	6
37	37	3
57	58	3
29	29	2
98	99	2
89	90	1
27	28	4
103	104	6
72	72	7
74	77	4
56	57	2
109	110	6
55	57	7
43	44	7
86	86	5
46	46	4
93	93	4
68	71	2
109	109	7
60	60	2
100	100	9
25	28	6
73	73	4
92	92	7
67	70	4
101	110	2
34	34	9
59	59	3
60	75	2
78	80	8
77	87	3
65	65	1
36	49	2
53	61	1
82	104	2
113	113	7
33	33	13
67	68	3
65	66	15
55	55	1
90	91	9
77	86	8
68	101	1
101	103	3
87	87	7
78	83	6
108	109	2
96	97	6
32	58	1
23	23	4
38	39	9
64	85	1
105	105	10
82	82	5
78	78	5
39	39	5
29	30	4
40	40	3
54	55	1
75	75	12
47	47	8
26	27	3
42	43	3
55	59	10
80	80	6
105	106	4
97	99	3
41	42	2
70	70	7
72	81	1
110	111	5
78	90	2
77	77	7
53	81	2
63	63	4
74	74	8
87	92	2
31	33	1
78	79	7
71	72	2
56	56	10
21	31	1
53	78	2
52	52	7
100	106	8
103	103	7
69	72	1
102	102	8
61	73	3
22	23	1
67	67	5
91	92	1
37	48	2
38	38	7
30	30	5
50	50	2
104	105	2
25	26	2
85	86	4
62	62	4
61	72	1
74	75	1
113	114	4
76	78	4
62	63	2
106	107	4
35	35	11
74	102	1
36	47	3
100	110	1
61	71	2
62	66	4
87	91	5
41	43	4
47	48	3
81	82	1
83	84	2
100	102	3
41	41	3
48	52	1
43	43	3
103	106	1
94	95	4
30	31	5
97	98	3
58	77	1
33	40	4
71	71	5
22	55	1
22	22	4
29	32	2
102	108	1
69	70	1
64	65	4
53	56	1
96	96	4
43	52	1
108	108	5
35	53	3
74	84	3
23	24	2
86	90	2
93	95	3
101	104	2
32	33	5
76	107	3
19	19	2
76	83	2
73	74	4
84	94	1
59	79	1
75	77	2
31	34	2
28	29	4
88	90	3
33	48	1
82	83	1
59	60	5
40	44	1
42	42	2
62	82	2
54	56	2
24	25	2
56	59	1
73	79	1
66	66	1
102	106	2
89	91	1
62	64	3
44	52	1
42	60	2
109	112	1
24	24	1
54	58	2
19	22	1
55	61	1
90	90	3
47	51	1
39	40	1
96	98	1
101	102	2
114	114	4
72	74	1
79	81	1
68	69	1
53	55	1
76	79	2
29	35	1
84	85	1
48	49	1
21	32	1
94	105	1
85	88	1
40	57	1
55	56	1
35	36	1
19	20	1
68	72	1
36	37	1
23	55	1
