117	118	2
57	103	4
24	67	3
116	146	1
31	31	3
99	103	1
115	119	2
73	73	7
50	51	1
41	41	5
96	96	7
0	32	1
51	52	2
119	135	1
18	19	5
61	61	9
122	122	2
63	63	3
35	35	3
41	42	2
96	98	1
47	133	2
43	139	3
120	120	5
125	125	6
27	42	2
48	146	2
11	11	8
105	105	6
32	80	2
3	3	3
3	4	3
12	12	2
132	136	2
141	141	8
80	80	1
27	28	2
123	123	5
8	8	7
127	127	3
99	99	6
58	58	8
27	27	3
118	119	3
95	95	7
97	97	2
16	51	1
144	144	6
29	30	1
34	35	3
19	91	2
68	76	1
47	47	8
67	120	4
0	40	4
71	71	7
59	70	3
107	107	6
32	33	1
53	53	7
129	130	3
81	82	2
128	128	6
34	107	2
18	18	9
13	16	3
93	93	5
108	130	2
25	99	2
106	130	2
37	37	6
137	137	5
70	137	1
141	142	5
130	130	6
23	24	7
115	117	1
17	18	3
56	101	3
79	125	1
99	100	5
1	24	1
117	126	1
22	22	3
48	87	3
66	67	2
3	31	2
105	107	2
51	64	1
83	104	2
136	137	3
137	139	6
12	13	1
38	38	4
109	135	4
70	129	1
5	6	3
69	88	1
107	109	2
100	100	5
135	135	3
124	137	1
124	125	4
115	115	3
32	39	2
17	17	6
94	99	1
113	113	4
29	29	7
2	2	2
5	5	3
93	139	1
26	26	3
97	105	2
113	125	1
6	6	3
49	50	5
96	142	1
4	4	4
90	90	15
92	94	2
124	124	5
20	85	1
72	105	1
20	141	1
76	76	3
101	101	10
102	104	3
39	39	2
52	52	2
64	134	2
13	13	3
68	68	7
33	33	2
87	88	2
75	82	3
55	55	8
120	134	1
145	145	1
114	115	3
118	118	12
62	63	2
133	133	3
89	90	1
84	84	2
39	104	1
89	89	2
143	143	14
14	14	5
87	87	1
39	47	1
76	79	2
133	138	2
53	54	6
30	41	3
118	130	1
13	35	1
28	28	6
116	117	3
66	96	1
20	71	1
56	56	5
69	69	3
54	92	1
72	110	4
13	49	2
102	102	8
84	85	6
37	101	1
96	131	1
59	59	4
115	133	3
21	41	1
131	141	1
107	131	3
77	77	3
36	39	2
131	131	8
112	112	3
117	117	6
130	131	6
140	140	4
123	132	1
65	135	3
19	19	10
20	20	3
92	92	7
94	94	8
62	134	1
134	134	3
57	58	5
76	77	3
98	111	4
114	114	2
36	36	4
91	91	2
32	133	2
119	119	5
65	139	2
2	33	2
9	34	1
78	79	5
133	139	3
16	141	1
111	112	1
25	25	1
24	102	2
83	83	3
20	140	2
90	92	1
15	15	3
17	87	2
1	33	1
112	132	1
103	103	4
62	132	1
60	60	2
142	143	3
37	38	5
121	121	2
111	111	2
1	1	2
5	85	1
142	142	5
63	64	3
101	115	1
63	69	2
23	23	5
79	80	2
67	100	1
138	138	1
1	36	2
75	88	4
24	117	3
3	30	2
32	32	3
21	71	1
31	33	1
6	41	3
105	106	2
83	84	1
119	126	3
79	121	3
65	70	1
77	78	3
21	42	1
145	146	1
129	129	4
68	141	3
42	42	2
77	79	1
78	144	1
132	132	3
76	125	2
109	109	1
17	28	1
106	106	1
109	112	1
94	139	1
88	88	2
139	139	7
40	40	2
63	96	1
10	94	1
12	14	2
64	65	1
55	97	4
82	82	3
146	146	2
11	21	1
9	10	1
132	138	1
136	136	3
135	136	2
62	62	2
85	129	1
10	10	4
3	36	1
75	75	2
91	99	1
96	97	1
125	126	2
101	102	1
24	24	3
71	136	3
32	40	1
57	102	1
116	116	5
110	133	1
35	36	1
75	85	1
135	137	2
74	74	3
112	133	2
50	50	3
57	57	4
64	69	1
78	78	2
68	73	1
90	94	2
12	33	1
43	43	3
128	130	3
33	86	1
92	126	1
47	68	1
95	102	1
70	70	2
110	129	1
53	91	2
55	58	1
86	86	1
52	53	2
132	133	1
107	108	1
88	89	2
89	92	1
112	113	1
98	98	2
60	65	1
70	92	3
3	26	2
16	16	2
139	144	1
61	104	3
22	68	1
18	141	1
72	72	2
116	121	1
81	141	1
71	137	2
76	80	1
126	126	1
67	67	1
15	18	1
55	101	1
82	102	1
52	113	2
79	79	2
107	120	1
104	140	1
72	139	1
35	108	1
66	139	2
72	138	1
96	107	1
13	33	1
39	40	1
3	35	1
19	43	1
133	135	2
14	104	1
74	77	1
64	64	2
114	128	1
72	85	1
66	66	1
60	99	1
0	0	2
42	101	2
16	19	1
121	126	1
138	139	3
75	76	1
100	101	1
122	144	1
49	146	2
2	38	1
85	85	1
55	105	1
111	121	1
112	116	2
93	125	1
114	129	1
10	14	1
34	111	1
0	85	1
9	39	1
20	55	1
2	36	1
115	116	1
71	129	1
2	40	1
104	132	1
4	37	1
100	104	1
139	140	1
34	131	1
34	34	1
81	81	1
60	108	1
74	118	1
