4	4	11
132	133	9
76	76	11
139	139	19
79	79	9
1	6	3
45	45	29
168	168	16
142	143	8
2	2	22
42	42	19
35	36	4
24	28	2
173	174	5
122	123	3
103	104	6
21	21	10
137	137	10
105	105	12
73	137	1
65	129	6
145	146	7
135	148	4
37	38	13
101	101	8
151	151	12
71	72	6
154	154	16
9	12	1
26	26	22
164	164	6
111	112	3
21	128	4
85	98	2
169	169	20
174	174	10
13	13	39
92	92	12
29	29	27
77	78	3
56	56	6
14	43	1
122	122	11
36	38	6
3	4	17
31	31	33
109	109	21
163	163	13
8	128	1
40	40	24
180	180	9
94	94	8
136	137	4
148	148	19
110	110	12
131	131	17
102	102	9
108	108	9
31	33	4
10	10	23
166	167	4
177	178	4
32	33	13
123	124	3
37	37	27
130	130	10
148	149	4
43	43	16
5	31	5
161	161	9
24	25	8
171	171	18
32	32	21
84	93	2
127	128	7
116	118	10
25	26	12
162	164	1
59	59	6
91	91	9
11	11	22
40	41	4
45	95	3
176	176	12
141	141	21
20	126	4
149	149	9
16	18	9
34	34	12
24	24	26
100	106	2
23	24	6
55	56	2
23	29	1
173	173	6
38	39	11
8	8	10
26	30	3
93	94	5
1	1	18
151	159	1
25	25	17
71	71	8
0	50	3
4	5	7
89	91	4
133	147	2
8	19	3
2	6	4
19	20	11
7	9	5
78	78	8
35	35	17
157	167	1
129	130	3
159	162	10
20	20	13
10	18	4
2	30	3
50	50	8
117	117	14
146	146	12
114	114	13
132	135	2
153	153	9
54	55	6
72	72	6
56	145	2
24	26	3
111	111	17
88	88	5
142	151	1
123	136	6
27	33	1
28	28	20
105	106	6
104	105	4
38	38	22
50	66	1
165	165	9
87	87	7
178	179	3
39	39	17
33	33	19
121	121	10
36	36	28
147	148	6
125	125	14
112	112	13
100	100	10
142	142	15
0	1	8
150	150	17
133	134	3
59	66	1
15	16	2
98	100	2
22	22	22
62	63	2
97	98	3
159	159	13
136	139	2
4	15	1
136	136	12
77	77	11
44	44	13
143	143	12
59	74	2
42	43	9
7	7	15
43	44	10
99	99	3
16	16	16
10	14	1
84	84	16
11	12	11
62	97	2
39	43	1
109	112	2
154	157	4
120	120	14
18	18	24
27	32	3
55	55	8
115	117	3
29	30	9
26	27	3
152	152	11
35	136	1
7	8	7
86	87	7
119	119	13
52	59	3
98	98	7
83	99	1
93	93	2
6	6	22
36	37	3
166	166	11
23	23	20
53	53	19
34	35	6
56	61	1
27	102	6
31	32	8
115	115	8
167	169	3
64	65	4
80	97	6
165	166	8
164	165	4
67	67	4
140	140	10
6	7	9
3	3	8
20	109	3
170	170	8
34	37	4
33	34	3
131	172	1
33	124	4
53	54	6
134	134	15
132	132	14
41	42	7
26	33	1
101	106	3
103	108	2
165	167	6
119	121	1
62	62	9
124	124	7
104	107	4
30	32	2
39	41	6
7	10	4
27	28	5
172	172	20
26	29	8
100	101	3
132	144	3
84	85	6
152	153	3
75	75	7
155	157	5
35	37	5
121	122	8
110	112	5
26	28	4
86	86	4
30	30	30
63	63	8
168	169	5
116	116	13
41	41	24
123	125	3
156	157	2
147	147	8
107	107	4
12	12	11
11	16	10
19	19	16
134	135	2
13	14	2
104	104	6
5	6	8
6	8	3
9	11	8
23	25	4
107	108	4
114	129	1
2	4	7
101	102	3
160	160	10
96	96	5
169	177	1
58	58	12
15	15	27
118	118	14
38	43	3
61	67	3
156	159	1
12	16	4
118	119	2
9	15	1
62	67	2
24	36	1
16	17	4
28	36	3
89	89	7
27	34	3
94	96	2
5	7	7
13	43	2
86	93	4
89	100	2
163	166	5
64	64	12
130	132	2
178	178	8
46	62	4
80	81	3
3	43	4
52	103	1
14	14	12
0	0	8
14	32	5
42	105	1
51	51	5
66	66	8
145	145	9
74	74	7
68	68	6
113	113	11
29	33	2
55	58	2
54	54	6
162	162	13
158	158	9
63	67	2
107	114	4
117	119	2
9	10	6
57	57	5
133	133	15
172	176	2
11	20	2
88	90	1
123	164	3
27	27	13
152	162	3
179	179	15
0	28	3
18	109	2
20	41	4
9	9	16
152	155	1
72	75	3
33	50	3
95	95	7
87	89	6
32	42	3
116	117	9
14	17	2
16	106	1
91	93	5
80	80	3
143	145	1
144	145	6
166	178	1
12	13	21
34	90	3
103	113	4
15	22	5
122	127	1
168	170	2
5	41	2
37	44	1
24	32	4
172	173	3
106	107	9
153	156	1
106	106	9
150	151	1
68	95	2
19	21	5
37	39	1
74	75	4
6	9	2
90	90	6
102	103	4
79	80	3
114	115	3
131	132	2
87	88	5
5	5	15
33	35	4
157	157	10
4	6	9
129	129	8
124	125	5
142	153	3
9	14	1
151	152	5
168	175	2
31	36	2
115	116	9
30	31	7
128	128	6
4	24	2
23	26	3
17	18	6
161	180	1
141	164	2
19	23	3
92	94	8
17	17	8
60	60	11
13	17	1
92	93	3
135	135	2
62	110	2
102	104	1
4	8	5
22	40	1
138	138	3
85	86	2
60	61	2
8	45	1
82	82	8
13	16	3
20	21	5
34	135	1
52	53	2
19	109	4
9	13	1
56	57	1
21	22	3
82	99	1
27	43	4
22	23	6
61	133	1
62	65	3
135	147	6
2	7	5
34	79	1
10	17	1
114	128	2
46	46	1
88	89	4
57	59	3
10	11	7
24	159	1
130	151	1
62	64	2
7	11	1
140	162	2
129	153	3
161	177	1
21	23	7
25	35	3
22	28	7
130	131	2
117	129	3
28	29	1
31	34	2
22	26	3
167	167	5
2	5	2
117	118	4
22	30	1
59	60	3
82	128	2
15	17	3
20	44	1
42	107	2
167	168	2
13	20	1
151	160	3
40	45	1
2	3	13
143	146	4
12	15	4
166	180	4
161	162	5
81	83	4
110	111	2
14	15	5
90	91	2
160	178	2
44	51	1
5	29	1
164	166	2
8	9	5
43	45	3
83	87	1
4	45	4
73	75	7
156	156	4
126	126	3
90	93	2
18	31	1
101	104	1
151	157	6
52	99	3
73	73	7
39	40	10
165	180	1
61	68	1
15	18	2
21	33	4
60	74	4
123	123	6
18	20	2
100	113	2
176	177	5
159	160	1
122	124	1
103	106	2
146	156	1
9	16	1
129	151	3
132	134	1
5	42	4
65	66	2
128	129	2
20	22	2
45	46	6
84	86	2
20	128	2
108	109	4
118	120	1
113	114	1
99	128	1
65	67	1
83	83	2
8	22	1
19	22	2
160	161	1
104	106	1
72	91	2
81	81	5
59	62	1
104	110	2
169	170	2
81	82	5
4	31	2
147	150	1
71	76	3
36	138	2
25	29	3
107	109	3
7	131	2
36	93	2
10	16	3
4	42	1
13	18	3
139	140	2
37	43	2
66	67	1
65	130	1
170	173	1
140	149	1
179	180	6
172	174	1
125	126	1
115	124	2
118	146	2
12	18	1
101	108	2
103	103	6
10	13	1
70	70	5
42	82	2
3	6	1
153	154	1
10	31	3
171	172	3
44	45	4
41	45	1
18	27	1
96	97	3
174	175	3
83	86	3
155	156	4
25	32	4
61	61	5
140	142	1
22	35	2
150	154	1
119	120	3
72	131	4
169	171	2
122	132	1
112	113	4
123	126	2
21	29	2
81	126	1
158	161	2
109	110	5
25	131	1
137	138	1
79	81	1
114	116	2
3	5	1
105	107	2
142	145	1
150	152	1
2	26	1
18	21	1
9	130	3
3	40	1
134	146	3
58	60	1
73	74	1
63	66	2
146	147	2
21	26	1
29	159	1
62	105	3
155	167	1
165	178	1
2	44	5
149	150	1
18	19	1
96	102	3
11	175	1
97	97	2
31	156	1
15	19	1
24	27	3
141	142	1
100	116	1
76	77	2
154	155	1
102	111	1
4	7	1
63	64	1
15	109	1
147	158	1
52	54	1
13	32	1
50	180	1
42	44	1
70	72	2
61	62	4
86	89	3
95	96	2
169	173	1
96	99	1
11	18	1
157	158	1
102	106	1
58	59	4
114	126	1
141	144	2
72	73	2
76	79	2
32	34	2
155	158	1
11	15	2
119	130	1
107	110	2
11	13	6
144	144	5
25	28	1
78	79	1
28	30	5
10	15	1
4	17	1
11	17	1
72	94	1
63	65	3
52	52	3
133	146	2
66	128	1
165	175	1
4	22	1
71	94	2
135	146	2
85	88	1
163	174	1
98	101	1
21	34	1
99	101	1
85	85	2
120	140	1
114	118	1
175	175	1
61	65	2
152	160	1
101	111	2
165	176	1
130	147	1
118	121	3
65	65	3
163	179	1
91	94	2
127	130	1
60	81	1
158	159	1
0	29	1
23	28	1
100	129	1
94	104	1
45	111	2
146	148	1
83	84	1
99	100	1
105	116	1
30	38	1
98	113	2
118	122	1
127	127	1
108	117	1
33	41	1
154	158	1
143	154	1
106	108	1
26	32	1
13	41	1
50	51	2
6	43	1
102	105	1
116	129	1
51	63	1
160	165	1
160	162	1
3	45	1
8	10	1
17	106	1
10	12	1
171	173	1
103	109	1
83	169	2
126	128	1
87	101	1
5	8	1
1	30	1
2	15	1
115	129	1
60	79	1
163	164	1
116	128	1
120	147	1
143	144	1
67	68	1
82	127	1
101	105	1
2	16	1
30	35	1
