111	111	4
40	40	5
12	12	5
91	91	3
24	24	8
86	87	3
13	14	1
4	55	2
27	27	3
31	31	8
7	67	3
97	128	4
0	1	4
57	116	2
15	17	5
99	99	4
96	96	4
1	1	18
66	67	3
75	75	2
1	32	4
50	50	4
80	80	4
8	11	4
84	84	3
115	116	2
112	115	2
105	105	3
126	126	3
60	60	4
117	117	4
86	88	7
25	25	6
38	38	4
123	123	2
98	98	6
77	77	9
19	52	5
64	64	4
41	42	2
54	54	5
127	127	5
72	72	5
51	51	4
90	90	3
64	100	1
23	23	1
40	41	1
121	121	3
59	59	4
85	86	5
63	100	1
30	30	5
128	128	4
116	116	1
47	47	4
49	49	3
76	76	1
73	80	2
99	100	2
22	98	1
34	34	4
102	103	4
77	78	2
12	27	6
44	44	3
107	107	4
118	119	3
123	125	2
43	43	7
63	63	2
115	115	2
2	2	2
94	94	4
5	5	5
103	103	5
107	109	3
11	11	5
66	66	8
15	15	5
100	101	5
20	21	8
110	119	3
17	17	2
102	102	5
95	95	3
10	10	4
108	108	3
52	52	2
65	65	2
10	11	1
93	93	7
13	30	2
109	109	7
57	57	6
48	48	5
12	125	5
58	59	2
101	101	2
111	112	1
26	26	5
113	113	6
120	120	1
73	74	3
12	14	2
85	85	4
59	61	2
120	124	1
1	2	1
106	106	2
129	129	2
97	98	1
82	128	1
53	53	10
107	110	1
83	84	1
16	16	1
28	29	3
14	15	1
91	93	1
16	22	5
124	124	5
46	106	2
75	76	1
125	125	3
13	13	6
56	56	2
59	60	4
117	128	1
131	132	2
115	119	4
122	122	1
42	42	2
86	86	1
52	53	3
83	83	1
34	99	1
22	127	1
40	42	1
48	95	1
29	29	4
130	130	3
92	116	1
87	87	3
128	129	3
55	55	1
73	73	4
20	20	1
22	22	2
58	58	1
43	44	1
78	94	1
86	90	1
117	130	1
61	62	1
78	79	2
16	17	2
70	70	1
39	40	2
23	97	1
124	131	1
32	32	1
114	114	3
67	67	2
27	67	2
55	62	1
37	38	2
7	64	2
19	19	2
85	103	2
51	66	1
9	9	2
67	99	2
60	61	1
3	4	1
70	72	1
91	92	1
7	7	1
11	12	1
60	63	1
46	46	3
10	64	1
92	92	4
7	8	1
6	7	2
69	69	2
112	112	2
96	97	1
70	71	1
39	39	1
111	113	2
89	90	2
71	71	2
1	31	1
53	66	1
88	129	1
77	95	1
