152	153	4
120	120	19
62	62	4
155	156	5
175	176	5
188	188	3
139	139	9
107	107	3
166	180	1
45	46	5
177	177	2
90	90	4
71	72	3
154	154	5
108	108	9
154	156	2
119	119	4
43	44	5
77	77	7
127	127	10
111	112	6
125	125	4
123	124	1
59	67	1
11	11	7
0	0	1
123	123	5
88	88	5
43	93	3
42	42	3
65	65	4
99	126	2
1	1	5
118	119	3
161	161	5
8	156	3
16	170	2
34	35	2
165	168	3
33	33	1
19	19	2
120	122	2
61	62	2
101	102	4
146	147	3
187	188	3
86	87	2
87	87	2
24	24	8
158	161	3
132	190	1
45	45	9
98	98	2
88	120	1
157	157	12
123	183	2
97	97	2
6	6	2
32	32	1
84	85	2
11	82	5
43	46	1
85	86	4
73	73	1
35	36	2
117	117	7
171	173	2
53	53	2
9	10	3
190	190	6
22	182	1
167	182	3
150	150	4
91	91	5
113	113	9
138	139	6
15	15	4
25	25	6
124	124	5
23	24	4
73	74	2
143	187	5
165	172	5
180	180	1
80	81	5
133	156	2
171	177	1
20	21	2
72	72	9
154	155	4
54	54	1
58	58	3
162	162	3
136	167	3
71	177	1
28	45	3
136	137	8
141	141	5
136	136	7
74	89	2
149	155	5
126	127	4
95	95	6
81	81	4
83	95	2
43	43	3
131	150	2
78	78	9
151	151	6
11	83	4
78	79	3
178	178	3
105	110	1
163	164	3
103	103	3
138	138	8
61	61	1
13	37	3
172	181	6
110	110	5
13	13	3
74	149	3
134	144	4
181	182	8
150	165	3
16	16	2
21	21	7
109	109	3
167	167	4
46	47	3
70	104	3
107	110	2
151	166	2
22	22	10
145	156	1
102	102	5
184	184	4
100	120	2
93	94	5
112	112	3
122	183	3
41	76	1
111	111	2
118	118	3
27	27	1
47	47	1
94	96	2
116	116	2
38	38	4
8	8	2
40	40	4
144	144	1
95	124	1
180	181	3
183	183	1
39	40	1
56	57	3
156	157	4
14	14	5
122	123	1
143	144	1
33	34	1
76	76	10
88	90	1
99	99	3
81	173	3
78	151	4
104	104	1
125	126	2
72	178	3
1	2	3
126	126	3
64	65	7
177	178	4
17	17	1
60	60	3
90	95	1
102	103	3
10	12	4
142	142	1
167	181	3
151	170	1
83	171	1
36	36	1
29	33	3
59	61	1
129	129	4
91	97	2
156	156	4
65	95	2
10	13	2
132	133	1
174	174	1
8	153	1
47	98	3
178	179	1
145	145	2
115	116	1
88	119	4
185	186	1
47	48	3
105	105	3
61	116	1
122	122	8
69	99	1
172	173	2
32	33	1
36	37	1
44	46	1
15	18	1
106	107	2
105	106	1
150	186	1
137	137	6
57	57	7
164	175	1
71	71	2
105	112	5
81	174	1
80	80	1
147	147	2
47	80	1
92	92	4
168	182	2
46	81	1
96	96	3
14	15	1
153	153	3
26	26	3
130	130	1
142	185	1
59	59	3
107	109	3
171	181	2
170	170	2
131	131	2
26	46	1
79	79	1
83	83	1
171	171	3
174	175	2
29	37	3
29	32	1
5	5	4
116	118	2
148	154	2
41	41	1
85	85	1
76	122	1
31	31	2
18	18	2
56	56	1
3	3	3
160	161	4
60	65	1
91	93	1
151	169	2
37	40	3
142	144	1
21	22	2
126	189	1
75	95	1
158	162	1
76	79	2
172	172	2
132	132	1
19	187	1
67	68	2
30	30	1
57	65	1
89	89	1
20	20	3
81	83	1
104	111	1
82	82	1
48	48	2
145	188	2
29	30	1
160	160	1
152	154	1
74	74	3
186	186	2
166	186	2
82	83	1
94	94	2
162	163	1
112	113	1
187	187	1
22	23	1
84	84	1
130	131	2
10	10	2
175	175	1
46	46	1
182	182	2
63	120	1
90	94	1
173	173	1
66	66	1
75	75	1
121	121	1
39	39	1
46	85	1
119	120	2
67	67	1
117	118	1
37	37	2
35	35	1
54	55	1
107	108	2
71	115	2
95	96	1
76	77	1
60	114	1
