42	42	8
26	26	1
94	94	15
86	86	16
46	46	3
35	38	3
61	61	17
67	67	10
35	37	4
52	52	12
40	41	2
52	55	2
41	41	12
52	90	4
25	51	1
60	60	12
49	50	3
84	84	17
45	45	4
69	72	4
51	51	12
41	42	4
87	87	4
53	53	9
99	99	7
66	66	6
93	94	5
49	49	10
52	81	3
25	26	5
43	43	7
52	53	4
78	78	8
68	68	9
63	63	5
91	91	10
80	80	7
79	93	1
58	58	16
37	37	9
33	33	7
71	71	1
24	24	3
45	47	2
73	73	5
50	50	15
38	38	6
39	39	10
87	93	4
63	64	8
25	28	2
97	97	9
77	78	1
93	93	2
100	100	7
60	61	3
65	65	3
27	27	2
64	64	8
65	66	4
87	95	2
98	98	1
77	77	6
72	72	11
54	54	7
46	47	3
87	97	2
58	60	4
81	81	4
59	59	6
90	91	3
31	32	2
92	92	12
101	101	2
95	96	2
20	20	3
86	88	7
78	92	1
66	71	2
76	77	2
56	56	5
48	49	1
69	70	3
42	43	7
82	82	7
81	82	1
62	62	10
37	38	4
55	55	11
62	63	2
67	68	1
85	85	5
69	69	4
58	59	6
57	57	4
47	47	2
102	102	2
52	80	5
82	83	4
24	28	1
88	89	3
55	101	5
40	40	7
44	44	1
69	71	2
72	74	2
96	96	4
58	78	1
90	90	3
53	55	2
95	95	6
88	93	1
76	76	5
35	35	1
98	99	6
25	27	4
85	96	3
87	88	2
41	50	3
68	74	1
45	55	5
75	75	11
54	55	1
41	64	2
67	77	1
30	30	3
80	87	2
20	22	1
32	32	1
83	85	1
94	95	2
81	97	2
47	53	1
74	74	3
88	88	1
43	90	1
59	85	2
31	33	2
85	101	1
70	70	3
23	29	1
25	25	2
92	93	3
63	71	2
83	97	3
96	97	1
71	73	4
55	95	1
79	79	1
29	101	2
32	34	1
91	92	3
86	90	1
36	36	3
99	100	4
31	31	1
89	91	1
93	97	1
66	67	1
81	96	2
24	27	1
35	79	2
24	26	2
67	76	2
74	76	1
80	93	1
48	48	4
31	45	1
89	89	1
83	83	1
75	76	2
63	95	2
51	56	1
34	34	2
29	29	1
94	97	1
36	100	1
34	50	1
78	99	1
96	98	1
94	98	1
41	51	1
66	68	1
80	81	1
57	78	2
68	69	1
44	45	1
64	74	1
27	29	1
