98	100	2
31	31	3
72	72	7
101	102	1
93	93	18
2	3	2
80	80	9
122	124	4
87	87	9
134	135	2
64	64	6
117	117	6
63	63	14
125	131	3
73	94	5
17	17	5
112	116	2
85	87	2
119	119	4
91	91	6
83	133	3
65	65	3
52	52	6
31	32	2
120	120	16
6	7	6
106	106	16
78	125	2
118	118	6
105	105	12
43	56	1
114	114	4
76	76	15
66	66	4
53	53	7
123	123	9
120	124	2
30	30	5
110	111	12
59	59	9
14	15	4
106	107	6
90	91	2
81	81	3
29	29	8
69	69	8
57	58	3
114	115	3
131	131	2
3	4	2
88	88	6
43	44	1
95	95	5
82	82	1
121	124	2
86	125	3
82	97	3
50	50	8
98	98	16
56	56	4
11	11	3
36	36	10
95	96	2
7	7	5
123	124	5
121	121	3
127	127	6
106	109	2
11	36	4
5	5	12
129	129	8
12	13	5
3	3	16
70	70	5
13	13	6
134	134	8
104	104	8
83	83	4
62	62	6
99	99	6
45	45	5
52	53	5
121	122	2
25	25	10
68	124	1
119	120	1
44	44	5
98	131	4
102	129	4
55	55	6
127	128	3
68	118	1
118	119	2
51	51	3
3	5	2
77	92	1
92	92	7
100	102	7
68	68	3
94	94	5
2	2	7
71	71	9
117	118	2
125	126	2
16	18	4
76	127	1
34	34	2
102	102	1
132	132	5
64	65	1
91	95	1
126	127	3
128	128	6
28	29	1
35	35	5
25	33	5
73	73	8
0	31	2
75	75	11
103	103	7
116	116	8
7	9	1
97	98	2
109	111	4
60	60	1
86	86	1
9	10	1
44	66	1
109	109	7
89	89	12
79	80	3
27	36	2
97	97	13
20	20	2
28	28	7
122	122	8
46	46	3
43	43	5
16	17	2
124	125	4
54	58	2
67	67	4
85	85	7
58	58	1
85	97	1
84	98	1
62	63	5
110	121	1
79	79	10
130	130	11
100	101	1
98	99	1
22	22	10
112	112	5
61	61	4
74	74	3
59	61	3
100	100	9
115	116	3
16	16	1
13	14	2
22	33	4
69	70	2
135	135	1
95	97	3
77	78	2
73	74	1
23	23	3
49	49	3
89	90	2
101	101	15
107	107	2
14	14	6
26	26	5
37	37	1
124	126	2
91	92	3
83	85	4
116	117	2
19	19	2
108	109	1
66	67	1
73	102	1
84	131	1
126	126	2
113	113	5
102	122	1
32	32	3
115	115	6
75	76	2
5	47	1
27	27	1
50	52	1
96	97	1
55	56	3
94	100	2
54	72	3
6	6	3
45	46	1
102	127	1
124	124	1
84	84	2
102	126	3
131	134	4
48	48	1
54	54	2
53	88	3
85	92	3
4	4	2
113	114	1
96	96	2
113	126	3
36	37	1
10	37	1
84	130	1
0	0	1
63	70	5
33	34	2
47	47	1
44	45	1
68	122	2
107	111	1
71	72	1
131	133	1
77	100	1
16	19	1
120	121	1
127	129	2
88	95	1
90	90	2
8	9	1
111	112	1
127	133	1
10	10	1
7	8	2
78	78	1
118	123	1
1	1	2
93	94	1
125	125	3
44	55	1
107	108	1
58	64	1
107	109	1
111	111	1
27	28	1
5	65	1
109	130	1
110	110	1
11	25	1
59	60	1
26	27	1
33	33	2
35	36	1
76	77	1
92	94	1
107	110	1
133	134	1
117	119	1
