80	80	3
93	93	5
38	43	2
49	73	2
112	112	4
207	207	11
33	33	2
92	92	7
184	184	9
214	216	1
55	55	4
170	192	1
87	88	4
42	60	1
226	230	2
22	22	2
81	82	1
182	182	13
9	9	3
228	228	1
39	39	5
176	176	3
76	76	2
240	240	3
72	72	5
67	68	4
197	199	6
50	51	3
52	65	6
30	30	3
71	72	6
105	119	1
82	83	3
60	187	2
202	205	3
176	177	4
166	176	5
115	116	2
168	184	3
49	49	9
81	81	4
173	202	2
70	71	3
15	15	2
115	115	10
4	4	2
220	220	2
242	242	1
64	65	4
156	156	6
153	153	4
100	107	2
36	53	1
201	201	16
175	175	6
95	95	3
152	152	2
20	20	7
86	109	2
85	85	5
91	98	2
109	109	10
208	208	6
50	50	4
187	187	3
205	205	3
21	21	8
46	109	4
151	151	5
110	249	4
101	101	7
26	26	6
105	118	3
178	179	1
3	18	1
82	84	5
199	199	7
24	24	9
166	167	2
88	88	6
209	209	2
72	73	2
29	30	1
36	36	3
78	78	4
63	64	4
100	100	7
31	31	1
200	200	9
65	65	4
248	248	4
215	235	3
67	67	3
171	177	1
77	77	2
49	91	1
198	198	7
69	69	5
29	29	1
20	40	3
244	246	3
104	119	2
61	62	8
78	113	2
119	119	1
46	91	2
150	150	5
104	104	3
91	91	3
245	245	6
229	229	3
179	179	3
40	53	1
47	47	4
225	225	5
92	100	3
96	97	6
204	204	5
210	210	7
187	196	2
211	211	3
73	102	1
98	98	3
14	15	1
243	243	2
157	158	1
73	73	3
38	40	2
210	232	1
71	75	1
64	64	3
195	196	3
108	240	2
114	115	5
54	54	8
71	71	4
234	235	2
63	63	5
237	237	5
238	239	1
8	8	7
231	231	5
194	194	3
96	100	1
84	99	1
118	119	2
242	243	3
3	3	3
213	213	11
232	234	3
111	111	3
35	37	1
90	90	3
51	51	5
83	84	3
7	7	10
43	44	2
236	236	3
154	154	2
59	62	2
10	10	6
171	171	5
60	60	3
158	158	2
215	215	1
77	78	1
246	246	2
159	159	3
115	247	1
194	195	1
149	165	2
23	23	6
32	32	3
154	158	2
214	228	3
110	111	2
168	169	3
106	106	3
41	41	8
169	169	6
150	154	2
168	168	5
113	113	2
87	120	1
153	154	3
46	46	1
82	82	9
18	19	1
87	87	1
47	164	1
232	233	4
174	185	1
19	19	4
11	26	1
27	27	1
167	199	1
48	48	1
43	43	2
241	242	2
65	66	3
174	174	7
169	197	1
183	183	9
62	62	3
33	34	1
151	156	3
68	68	3
241	241	4
105	105	2
99	99	7
204	247	3
109	110	1
24	25	1
81	85	1
159	160	4
207	242	3
163	163	5
168	201	2
190	190	3
111	245	2
63	76	2
208	244	1
4	5	1
77	83	1
4	19	1
87	95	1
186	186	1
58	58	4
52	59	1
48	76	3
31	65	2
90	92	1
233	241	3
212	212	1
50	61	1
185	205	1
37	37	1
190	193	4
68	73	1
59	60	2
75	75	4
56	56	4
11	11	2
146	147	1
49	167	4
26	206	2
203	205	2
116	116	5
232	239	1
172	173	1
249	249	2
239	247	1
5	5	1
184	192	1
58	59	3
170	170	2
195	195	2
190	194	4
45	45	3
177	178	5
32	93	2
95	100	2
244	247	1
88	110	1
238	238	2
209	210	1
180	184	1
86	86	2
89	162	1
180	180	4
177	177	1
40	40	1
162	162	5
110	110	9
175	176	2
183	187	2
244	244	7
218	219	1
108	108	3
236	239	2
186	218	3
232	232	4
197	197	3
44	45	1
191	192	1
66	66	1
101	110	2
164	193	2
111	239	1
55	56	2
229	230	3
28	41	1
74	74	2
203	204	1
217	217	1
163	187	2
53	53	1
233	233	2
218	224	2
38	42	1
104	105	2
107	111	1
20	37	2
153	159	1
113	212	3
74	75	2
22	200	1
41	54	2
104	106	1
34	34	3
178	178	2
187	188	1
67	75	1
157	187	3
235	235	3
26	27	2
189	190	1
52	63	1
222	222	4
92	93	2
189	196	2
173	173	1
70	74	1
113	114	1
89	91	1
117	118	2
167	167	1
171	190	2
60	73	2
160	164	1
7	8	1
172	206	1
171	181	1
190	217	2
81	90	1
146	146	1
52	89	2
171	172	1
176	182	2
5	31	2
8	10	1
48	165	2
89	89	2
116	117	1
12	12	1
96	96	1
162	163	1
58	75	1
47	62	1
118	118	1
14	20	1
203	203	1
52	52	2
8	11	1
42	42	1
207	208	1
213	214	2
14	14	2
50	60	1
34	42	2
84	103	2
239	239	3
190	191	1
33	43	1
112	113	1
166	166	1
79	82	2
84	84	1
97	97	1
225	226	1
61	61	2
232	237	3
28	199	1
51	61	1
226	228	1
161	206	1
68	70	1
36	50	1
1	16	1
189	210	2
1	21	1
225	240	2
121	121	1
154	157	1
22	23	1
184	234	2
185	186	1
184	197	1
197	198	1
218	220	1
203	225	1
165	166	1
159	163	1
10	29	2
158	211	1
236	238	1
80	91	1
42	52	2
83	83	1
117	117	1
70	70	2
202	202	1
226	229	1
37	38	2
111	248	1
72	74	1
20	38	2
171	182	1
169	170	1
192	192	1
180	183	1
247	247	2
59	110	1
165	165	1
217	219	1
214	231	1
82	86	1
46	55	1
185	185	2
176	189	1
196	196	1
182	191	1
97	98	1
