68	139	8
67	123	5
101	119	2
2	4	2
28	42	1
8	11	3
42	43	11
102	103	6
111	113	3
23	23	13
67	67	10
78	78	7
54	54	5
149	149	14
66	67	8
11	28	3
3	4	4
84	85	3
66	66	8
99	99	9
44	45	8
86	87	3
138	138	6
4	5	4
18	19	7
136	137	2
40	48	5
47	47	19
143	143	2
103	103	16
19	19	25
88	88	3
75	76	7
128	149	2
144	144	3
40	40	6
11	15	5
79	112	1
10	11	4
5	12	1
48	48	13
51	126	7
110	111	10
29	29	16
34	34	12
63	63	7
127	128	3
66	97	1
44	55	3
24	49	2
57	90	3
111	112	1
106	106	7
63	64	3
26	27	6
96	102	2
33	33	11
39	39	9
73	83	3
49	51	1
46	46	9
104	105	3
30	33	1
48	49	4
72	102	2
83	83	5
56	62	1
34	84	1
13	28	2
71	71	2
85	86	4
20	21	3
113	123	9
50	55	1
76	77	6
14	14	11
108	108	2
105	113	4
13	13	12
15	15	6
107	107	10
10	10	12
104	104	3
20	20	5
82	93	7
92	92	9
62	94	1
148	148	8
55	56	6
95	95	5
12	12	8
28	46	4
104	107	2
53	53	23
78	79	3
72	73	2
18	18	2
43	43	12
140	141	2
9	45	2
9	49	1
128	131	4
69	69	8
114	114	5
135	135	4
17	23	2
67	80	2
112	123	4
15	16	2
128	133	4
131	132	5
83	86	4
55	55	5
85	85	15
136	136	4
46	51	2
117	118	5
30	38	2
108	129	2
31	31	1
141	141	4
74	74	5
35	35	5
146	146	3
68	138	6
111	114	3
143	146	7
73	73	3
144	152	1
7	7	5
21	21	8
122	138	5
25	30	5
94	95	5
4	50	2
12	14	6
24	24	14
79	127	6
133	133	5
38	44	5
85	87	1
39	40	6
132	139	5
65	95	2
65	65	2
82	82	8
126	126	2
16	36	1
9	9	2
91	91	3
29	32	1
38	38	12
21	22	3
81	82	14
101	101	3
6	6	15
11	51	5
79	113	2
43	82	8
6	10	7
38	43	4
84	84	6
102	112	1
76	80	4
26	28	7
36	85	4
120	133	3
7	42	2
72	115	2
68	69	3
43	44	4
102	140	5
49	49	5
123	137	1
116	116	7
73	125	1
126	133	4
41	41	5
6	31	3
32	34	2
52	56	1
122	122	5
76	81	1
102	106	1
44	44	8
35	36	3
87	87	13
25	29	5
42	49	3
143	144	7
4	4	8
12	25	8
33	36	14
50	81	1
91	93	1
67	68	4
6	18	2
124	125	5
11	12	2
30	30	6
77	112	1
24	53	1
29	30	3
81	97	1
92	93	6
69	126	2
109	109	9
114	127	2
68	143	1
13	25	5
10	17	1
137	138	1
110	110	11
64	72	1
66	121	2
32	33	3
129	131	3
146	150	1
145	146	6
42	42	5
66	120	3
10	16	4
57	57	6
94	94	8
62	83	3
27	27	11
64	144	4
73	75	1
65	75	3
81	81	8
22	26	2
11	11	4
65	79	1
13	24	2
42	47	2
89	89	4
45	45	3
118	118	2
8	9	9
29	31	7
6	50	2
154	154	1
80	80	2
96	96	1
63	143	1
97	97	3
112	127	6
95	137	2
39	94	3
48	123	5
14	31	2
25	26	3
123	124	1
83	99	3
111	124	5
32	36	1
11	22	2
56	56	2
147	151	3
66	125	2
75	105	2
79	79	5
106	110	5
45	46	2
139	139	3
19	20	9
130	133	2
5	5	3
51	51	6
139	148	1
141	142	3
93	93	6
105	108	3
2	31	4
86	94	1
103	116	4
113	135	2
124	124	1
7	50	2
18	20	3
127	136	2
72	72	5
102	102	3
120	153	5
113	113	3
73	113	2
36	36	6
108	135	2
128	128	5
41	91	3
3	63	7
4	49	1
12	58	2
6	7	1
132	133	7
33	35	2
75	79	2
44	54	1
115	115	8
75	75	4
149	151	1
10	31	5
10	27	1
130	141	4
67	109	3
132	136	1
25	28	4
144	145	4
149	150	2
102	105	2
150	151	2
68	103	2
77	77	5
78	82	3
127	127	12
124	137	4
119	153	3
14	15	9
66	108	3
4	125	2
64	64	7
122	124	1
22	22	7
98	98	1
100	100	5
147	148	1
117	145	1
56	57	2
54	55	3
120	126	4
142	142	2
105	125	1
4	62	5
69	78	1
78	124	1
103	112	3
95	97	8
68	68	5
68	79	2
66	80	1
21	26	1
41	42	2
106	107	4
62	62	1
68	120	1
132	132	3
43	46	1
105	105	4
30	62	2
147	147	5
118	139	1
82	84	3
68	78	2
64	76	3
145	145	1
62	63	4
90	90	2
68	94	3
16	27	5
26	26	4
66	96	3
129	129	5
68	142	4
16	17	1
44	46	2
80	96	2
131	131	5
79	92	6
73	77	1
117	144	1
121	122	2
17	19	1
116	136	4
12	13	3
122	137	3
78	108	2
31	55	1
141	144	2
3	8	3
11	16	2
107	114	2
32	32	3
93	138	3
79	123	1
19	84	2
104	111	1
17	17	4
69	120	2
28	28	9
152	153	1
22	23	2
81	125	1
142	144	2
68	117	2
153	153	2
140	142	3
16	16	1
117	121	1
50	123	2
12	23	2
95	121	2
68	125	1
39	54	4
64	66	3
13	21	1
38	58	2
118	143	1
128	129	5
96	112	1
93	98	2
25	27	4
8	8	2
97	99	4
34	36	2
151	151	3
74	87	1
100	101	1
51	54	5
10	29	1
15	22	1
70	70	3
103	113	2
19	31	2
72	121	1
68	136	1
95	105	3
144	148	2
69	115	1
109	110	2
33	34	1
50	50	1
73	138	1
73	74	1
49	53	1
120	120	2
27	28	1
141	143	1
6	16	1
131	139	1
120	125	1
75	125	1
73	85	1
96	151	4
98	99	2
150	150	4
65	81	1
96	98	1
108	109	2
6	12	2
49	66	2
65	82	2
73	92	3
19	36	1
52	52	1
34	55	1
134	135	1
18	26	1
65	119	1
93	97	3
68	126	1
78	109	1
27	57	2
38	40	1
37	37	4
64	67	1
34	38	1
32	64	2
76	86	1
34	35	1
93	99	1
15	26	1
7	11	1
51	57	1
152	152	1
77	78	2
5	6	1
5	9	2
80	125	1
146	147	1
82	83	1
64	143	1
110	123	2
117	152	1
11	27	1
72	79	1
147	154	1
23	57	1
138	139	1
7	26	1
65	98	1
111	111	1
29	50	1
3	6	1
25	25	1
66	79	1
3	3	1
95	123	1
88	89	1
38	57	1
