208	208	4
47	47	7
203	233	4
229	229	1
12	12	2
16	16	4
223	223	4
69	69	6
40	40	3
95	95	6
164	164	4
202	202	5
89	89	5
184	190	1
23	23	2
42	42	8
35	35	1
203	204	2
108	167	6
209	209	6
24	24	6
109	109	4
33	33	11
61	62	1
177	178	4
207	207	4
173	173	3
231	231	5
183	186	3
214	215	1
238	238	2
188	190	2
83	83	8
116	116	4
31	31	3
60	61	5
150	150	9
199	200	3
194	194	5
112	112	7
167	167	7
204	204	24
28	28	14
206	206	6
151	152	3
204	232	1
11	11	15
181	181	11
187	188	2
198	199	3
64	169	2
212	212	11
159	159	2
24	25	2
29	29	6
46	46	4
1	1	6
61	63	3
160	160	3
219	219	3
203	209	3
101	109	1
5	5	5
56	56	1
8	9	2
32	32	4
21	41	3
156	162	1
16	222	1
115	115	3
172	172	4
195	195	6
51	226	1
71	87	1
198	200	2
118	118	2
180	196	1
50	50	1
210	211	2
8	8	4
161	161	4
37	37	1
180	181	1
236	237	4
114	114	7
98	98	2
36	36	3
200	200	6
96	96	4
156	157	3
217	217	1
186	186	1
170	170	4
211	211	2
153	154	2
72	72	3
51	94	1
224	224	8
205	206	1
9	9	14
154	154	5
205	205	2
220	220	3
34	34	5
153	153	3
186	187	1
99	99	2
162	162	4
106	106	5
75	75	2
242	242	1
87	91	3
1	3	1
240	242	1
21	22	6
89	90	4
172	175	3
163	163	1
14	14	1
48	50	8
57	60	4
213	213	2
201	201	2
30	31	5
17	17	3
120	120	2
160	161	1
155	155	2
228	228	2
221	221	2
77	119	1
168	172	1
240	240	1
3	18	1
185	186	3
16	28	4
22	22	2
10	11	1
168	168	2
157	158	3
233	233	3
10	10	1
200	205	1
107	111	2
65	65	1
85	85	1
104	104	2
44	44	3
107	107	1
52	53	4
111	111	5
6	6	2
170	171	2
185	185	4
165	166	4
49	50	2
90	90	5
45	45	6
183	183	2
73	94	3
28	30	2
151	151	5
56	59	2
235	235	4
171	172	1
175	175	3
68	68	4
200	201	3
109	112	1
158	158	1
188	189	1
89	91	2
88	88	2
154	201	1
242	243	1
208	213	2
226	227	1
20	20	3
23	25	3
154	155	2
15	15	8
31	32	2
84	85	4
166	166	1
227	228	2
198	198	4
237	237	1
117	120	1
239	239	7
156	156	6
4	5	3
165	218	2
6	66	1
74	121	1
81	86	1
27	42	1
19	19	3
167	168	2
48	48	1
64	64	4
45	46	2
201	202	1
58	59	1
197	197	2
202	228	2
46	87	1
16	17	1
1	19	2
59	82	2
155	156	2
226	226	2
245	245	3
15	16	2
110	110	4
215	218	1
210	214	2
152	159	1
104	164	4
39	40	1
203	203	2
225	225	4
191	192	2
81	103	2
48	49	3
188	188	1
244	244	3
117	117	7
235	236	1
145	145	5
206	207	1
225	226	2
20	21	1
26	27	1
18	18	6
30	30	1
32	94	1
237	238	1
165	182	1
165	172	1
101	101	1
68	91	1
59	59	1
207	208	2
204	205	2
157	157	1
247	247	1
97	97	1
152	152	3
40	235	1
177	179	2
4	224	1
38	38	3
107	108	1
174	174	1
223	226	2
208	209	2
4	4	1
7	7	2
8	17	3
163	165	2
231	232	1
181	184	1
62	64	1
12	15	1
55	169	3
55	55	4
112	116	1
51	51	1
100	101	1
53	53	2
0	157	1
47	48	2
77	77	2
180	189	1
227	227	2
224	225	1
3	19	1
213	214	1
27	27	1
87	87	1
174	178	2
57	57	1
204	226	1
72	73	1
187	187	2
236	236	1
210	210	3
188	191	1
204	211	1
193	193	2
212	213	1
159	164	1
85	86	2
222	222	2
25	25	2
66	75	1
164	165	2
150	201	1
91	91	1
152	153	1
39	54	1
156	171	1
194	195	1
178	178	1
215	215	1
175	178	1
64	65	1
165	165	2
92	92	2
171	171	2
2	2	1
195	213	1
100	100	2
112	144	1
120	174	1
0	0	1
86	88	1
193	196	1
186	190	1
74	96	1
113	118	1
79	79	1
78	78	1
185	221	1
73	74	1
169	169	1
202	244	1
241	242	1
