196	196	4
11	11	1
30	30	1
104	104	2
199	199	2
33	33	5
217	217	6
198	199	5
38	38	2
15	216	2
102	102	7
153	154	3
238	239	4
156	156	5
165	165	6
82	239	3
35	35	2
27	27	6
115	115	3
189	245	3
232	232	4
96	96	2
117	117	1
49	50	2
236	237	5
198	209	3
33	219	4
185	186	3
175	175	3
75	75	4
249	249	1
150	150	1
77	83	4
79	92	2
236	246	2
58	160	1
234	234	4
163	163	5
235	236	1
206	206	3
78	110	1
154	154	1
10	10	3
51	87	1
113	114	5
247	247	4
209	209	12
190	190	3
215	239	8
78	82	2
188	188	10
76	76	1
229	229	3
233	233	6
49	58	5
209	212	1
119	165	4
60	60	3
213	213	7
70	70	3
48	48	4
68	70	1
22	202	1
41	42	1
243	243	1
22	25	1
16	16	6
183	183	3
168	171	3
67	67	4
160	187	1
55	55	2
207	207	3
52	202	4
179	212	2
218	219	4
18	114	2
202	202	1
235	245	5
100	100	4
113	228	2
69	70	2
174	174	2
114	115	1
86	86	2
102	246	3
97	97	8
166	166	4
36	36	5
215	215	4
11	39	2
153	194	2
109	109	2
248	248	5
43	43	1
158	158	1
180	180	2
247	248	1
46	46	4
216	216	1
201	201	3
88	93	1
212	212	3
70	92	2
61	192	6
230	230	2
32	32	9
178	178	3
167	167	9
226	237	1
31	43	2
222	222	5
4	5	4
20	20	3
51	115	1
119	119	3
48	50	2
231	231	9
12	12	4
145	145	1
181	181	4
97	104	1
203	203	4
105	106	2
165	166	4
17	17	1
18	56	2
119	120	1
157	157	6
168	169	2
37	37	5
62	62	5
155	155	2
82	86	2
153	153	4
114	114	3
63	63	2
69	69	2
58	63	4
77	98	3
80	80	1
191	193	3
5	5	3
17	18	1
179	179	4
29	29	2
84	84	1
170	170	2
107	107	3
177	177	4
48	93	1
49	49	2
74	74	2
99	99	1
35	36	2
191	192	3
83	83	4
45	45	11
108	108	2
73	74	1
56	56	3
220	220	2
66	66	4
207	243	4
71	71	5
25	26	1
41	41	4
90	101	2
151	182	1
59	172	2
82	85	2
173	173	3
11	232	2
42	113	1
237	237	2
214	214	4
172	172	2
39	60	4
155	162	5
145	226	1
15	212	2
106	106	1
38	61	3
59	59	1
194	213	5
192	192	2
22	22	1
0	0	1
91	96	2
236	236	1
55	169	1
193	193	2
211	212	2
243	246	1
187	188	1
58	59	1
117	184	1
153	188	1
184	185	1
221	221	5
161	161	1
152	152	6
242	242	3
26	41	1
8	8	7
78	78	6
32	44	2
227	227	3
117	242	2
116	117	2
94	94	2
182	182	3
184	184	1
104	105	3
90	90	6
165	171	2
147	147	2
62	170	1
32	66	1
195	196	2
228	230	3
28	28	1
9	9	1
146	183	2
230	236	1
191	191	3
167	183	1
46	47	1
166	171	1
4	4	1
227	228	3
71	89	1
63	153	1
201	232	1
190	196	1
79	80	3
239	239	1
226	226	2
227	231	3
12	15	1
8	31	2
9	10	1
119	164	1
47	47	3
28	45	1
81	109	2
79	79	1
42	42	1
34	84	1
238	240	1
159	159	7
168	168	1
170	171	1
80	236	5
77	145	1
24	24	1
3	6	1
88	88	1
225	225	1
112	113	2
205	226	2
197	197	1
70	87	1
33	62	1
26	26	1
164	164	1
6	8	1
57	57	3
152	192	1
232	236	1
53	94	1
57	153	2
80	182	2
202	203	1
101	108	1
197	216	1
41	114	2
87	92	2
54	55	1
160	193	2
18	18	2
151	151	1
211	215	1
6	6	1
35	52	2
101	101	1
242	243	2
162	173	2
72	72	1
166	229	1
246	246	2
189	209	3
89	89	1
61	85	1
151	152	2
171	171	4
31	101	1
65	65	2
241	241	2
199	200	1
118	119	1
87	87	2
146	146	1
175	176	1
111	111	1
19	19	2
30	112	1
183	184	1
32	52	1
159	180	1
101	107	2
120	167	1
91	91	1
67	185	1
43	44	1
34	83	1
159	182	1
77	95	1
33	93	1
169	169	1
56	169	1
219	219	1
235	235	1
81	81	1
35	61	1
21	22	1
68	68	1
197	209	1
232	233	1
77	77	1
216	244	1
203	205	1
84	246	1
241	242	1
80	86	1
169	171	1
