95	96	4
136	140	2
51	63	1
140	140	10
87	88	12
5	5	12
1	1	4
123	123	8
118	118	12
141	141	8
111	111	3
128	129	9
77	80	3
99	100	2
73	73	14
131	131	10
4	20	1
8	8	2
143	144	4
57	57	18
82	82	7
78	79	4
93	97	2
130	130	14
34	34	5
83	83	6
68	74	1
3	3	7
109	110	3
80	82	4
95	95	7
15	60	6
117	132	2
108	108	10
100	101	5
99	101	6
99	99	5
19	19	4
28	28	11
117	117	15
21	21	3
58	59	11
107	108	6
137	137	6
14	32	4
59	59	6
93	93	2
38	137	2
105	105	10
58	58	14
8	9	6
120	142	1
11	96	1
2	15	4
138	138	7
122	122	6
85	86	4
58	125	3
15	30	3
55	55	7
120	120	17
51	56	2
112	116	2
16	17	3
37	38	6
25	26	6
54	54	7
51	52	2
20	21	3
89	90	6
87	87	9
84	84	2
89	89	6
132	132	6
63	63	3
14	14	3
37	37	9
116	116	6
134	134	5
30	30	4
40	40	6
4	105	3
9	38	3
141	142	2
98	98	2
27	27	6
110	121	3
53	56	2
31	31	6
139	139	7
69	70	3
42	43	1
128	134	5
32	32	7
4	4	1
88	88	7
53	53	5
119	137	2
121	123	2
60	60	3
35	35	12
13	13	11
114	116	5
68	68	7
75	76	2
52	52	2
120	131	1
53	54	4
88	89	2
26	26	6
64	65	6
114	114	6
38	38	4
42	42	3
115	116	1
97	97	3
8	29	5
54	57	5
38	40	2
86	86	2
96	97	6
29	29	17
58	62	2
105	106	2
36	135	1
69	69	5
57	98	2
38	39	1
22	137	3
94	94	3
70	73	4
97	98	8
101	101	11
98	116	1
15	15	3
59	91	2
48	48	7
4	15	2
3	5	1
75	75	4
128	141	2
71	72	2
56	66	1
129	129	8
48	55	2
122	123	6
85	85	5
56	56	3
13	14	3
2	3	1
135	136	3
25	25	5
145	145	4
67	67	4
14	20	2
133	133	11
61	61	5
74	74	12
122	124	1
132	133	2
29	30	5
100	100	4
54	59	2
62	62	4
39	68	2
68	133	1
129	130	9
31	32	3
82	84	3
16	16	7
15	16	3
56	85	2
37	41	2
92	94	6
77	119	4
19	30	2
110	111	2
77	78	2
109	109	5
85	87	3
23	23	5
1	19	5
99	111	2
70	136	3
70	70	4
63	65	1
146	146	1
136	137	5
107	107	6
78	78	1
43	48	2
24	24	1
144	144	8
126	126	3
48	53	2
142	142	2
96	96	2
63	64	3
85	88	4
143	143	7
21	76	1
125	125	4
91	91	3
113	113	3
62	103	3
80	98	1
27	103	2
128	128	6
10	102	4
0	0	2
123	124	1
58	68	2
112	112	4
121	121	2
119	141	5
72	97	2
3	4	3
93	96	2
124	124	8
20	20	3
131	134	1
97	132	3
104	120	1
58	121	2
54	98	2
51	51	4
2	2	6
83	107	5
137	140	4
77	117	3
36	49	1
68	79	1
26	28	1
35	93	4
76	77	1
50	51	2
24	25	3
104	105	1
33	33	5
110	118	3
72	72	3
126	128	1
79	84	2
77	77	10
135	135	1
77	79	1
93	94	3
113	115	3
91	92	5
71	71	1
71	86	1
27	30	1
120	134	1
9	9	3
40	41	3
6	11	2
36	36	3
68	73	2
32	33	2
71	134	4
0	1	2
93	98	3
118	119	2
56	63	3
127	130	4
18	19	3
67	97	2
22	22	5
70	71	1
106	106	2
119	119	2
50	65	1
104	119	1
118	131	1
27	28	1
33	34	1
11	32	1
81	120	2
111	112	2
79	79	3
64	64	2
13	31	1
117	131	1
71	103	2
55	56	5
104	104	1
123	138	2
39	41	1
116	117	2
112	113	1
83	84	2
71	138	2
24	30	1
80	119	2
138	139	2
91	99	1
87	106	1
35	92	1
103	103	2
142	143	1
102	102	4
72	135	2
11	11	4
111	114	1
104	108	1
127	127	2
70	88	2
10	10	2
47	48	1
11	91	1
18	18	3
67	69	1
70	138	1
17	17	2
136	136	1
134	138	1
130	144	2
119	131	1
76	80	1
74	130	1
115	115	1
127	129	2
66	67	2
24	69	1
11	34	2
11	95	1
90	90	1
88	90	1
54	104	1
104	132	1
38	102	1
14	15	1
117	144	1
71	112	1
10	91	1
113	114	1
48	78	1
65	68	1
92	92	1
103	104	1
102	103	1
81	100	1
119	125	1
36	38	1
136	138	1
74	75	1
39	39	1
49	49	1
12	73	1
124	125	1
72	96	1
50	50	1
37	103	1
