56	58	7
63	63	9
51	51	9
78	78	15
42	43	7
21	23	5
97	99	1
101	101	10
28	50	2
75	75	11
33	34	2
89	96	4
80	80	12
66	66	6
95	99	2
39	39	14
21	21	6
22	73	2
53	53	15
22	23	4
20	42	1
94	94	21
95	100	2
35	36	1
25	29	4
58	92	3
38	46	1
92	105	4
99	99	7
97	98	10
76	76	9
28	28	3
74	74	13
55	55	11
96	97	17
56	56	12
77	105	2
46	47	6
82	83	2
25	25	9
57	57	14
62	92	4
30	30	6
58	58	12
101	102	4
22	24	1
85	105	1
85	85	9
76	77	6
22	28	1
64	64	7
68	69	8
25	27	5
36	36	9
94	95	4
20	20	3
32	32	4
71	71	15
72	73	1
93	93	6
65	66	1
21	33	1
89	92	2
72	72	8
43	43	6
77	102	2
88	106	5
37	42	1
95	95	9
73	73	8
52	52	4
23	23	9
96	96	3
91	102	2
65	67	1
23	29	1
98	98	5
78	90	2
78	84	2
73	101	6
26	27	7
44	45	4
33	41	4
88	88	10
70	70	4
25	26	3
80	81	7
52	53	3
69	70	2
84	87	3
82	82	2
47	47	7
47	90	7
34	34	3
87	106	4
57	76	6
43	44	6
69	69	15
104	104	6
37	47	2
27	38	2
21	22	2
35	35	7
38	38	9
50	67	1
92	93	2
94	99	2
103	103	6
33	33	10
57	84	1
86	86	1
66	73	3
79	79	7
91	94	1
42	42	3
67	67	6
62	62	4
65	65	17
99	100	2
89	90	1
36	46	5
90	90	3
82	92	4
81	88	5
37	76	5
94	98	4
28	49	2
60	107	2
81	86	1
87	87	7
89	107	2
97	97	3
81	87	3
40	45	2
57	58	2
45	46	2
66	92	1
67	89	6
63	73	2
21	24	8
78	100	3
24	33	2
89	89	13
31	31	13
63	64	3
29	30	3
100	100	9
92	92	1
50	50	9
52	54	4
84	84	5
105	105	6
49	49	1
106	106	8
91	91	6
51	52	2
82	91	2
84	105	1
47	57	2
56	57	4
40	42	6
48	49	3
90	93	1
52	92	3
31	32	2
53	55	2
59	59	4
66	67	5
83	83	1
77	78	4
68	68	7
23	64	7
94	97	1
81	81	6
41	41	2
60	60	6
79	81	4
44	44	3
93	95	1
21	31	2
36	56	1
20	29	1
37	37	5
52	96	1
29	29	2
83	85	2
48	76	1
27	39	1
53	54	3
63	91	2
59	93	6
23	24	8
57	60	4
40	40	2
86	87	1
46	49	7
54	54	3
38	75	2
34	35	2
22	27	2
80	100	1
38	45	2
61	62	1
34	100	2
102	102	7
61	61	2
61	79	1
46	46	4
102	105	1
79	88	1
35	102	4
98	99	2
90	107	2
104	105	5
85	86	3
61	68	1
48	48	2
77	96	1
50	64	1
34	36	2
62	63	4
64	65	2
86	107	1
60	64	1
40	44	2
74	75	1
54	56	1
93	94	2
79	80	1
69	105	1
46	76	1
33	52	1
45	45	1
40	43	1
39	40	1
21	25	1
27	28	3
27	27	2
40	41	2
41	43	1
49	91	2
62	64	1
70	71	1
83	84	2
78	81	1
20	24	1
82	87	1
21	30	1
47	48	1
89	93	1
65	80	1
46	89	1
58	94	1
36	76	1
28	29	1
41	42	1
31	34	1
26	26	1
22	22	1
