72	84	1
113	114	1
171	171	4
22	22	3
141	142	1
81	82	1
181	181	7
74	74	10
113	139	1
22	24	2
115	163	2
82	82	7
27	27	3
46	46	3
183	187	1
57	57	8
33	33	9
4	4	1
104	104	3
119	119	3
126	126	1
68	137	3
149	150	4
81	81	8
26	31	2
24	24	2
120	120	7
108	126	2
44	44	5
151	151	8
57	60	4
139	139	5
152	152	9
105	105	7
150	150	11
156	156	2
15	15	3
62	62	4
178	178	4
169	169	2
21	22	5
102	103	1
94	97	1
17	82	2
0	64	3
107	107	1
87	87	7
22	23	1
109	109	4
54	54	9
168	168	2
142	142	2
7	7	3
6	6	3
89	125	1
56	57	8
29	29	5
149	168	2
178	179	1
124	124	6
83	87	3
166	167	1
114	141	1
158	158	2
40	40	4
8	8	5
133	134	2
18	18	2
114	148	2
130	131	13
11	11	6
9	25	1
28	28	4
182	183	1
154	155	3
115	124	1
125	126	2
135	136	4
91	91	5
131	133	3
27	28	3
26	26	2
70	70	5
73	73	6
48	48	3
149	164	1
34	34	2
179	180	4
69	101	2
134	135	2
12	12	2
39	40	1
25	26	3
176	177	2
184	184	2
164	164	2
14	14	3
97	97	3
20	20	4
18	70	1
29	32	3
174	174	9
112	112	2
123	123	2
46	54	2
138	138	3
183	183	2
60	61	3
41	48	3
83	83	3
177	177	2
68	68	4
167	167	2
116	124	2
19	19	3
32	33	2
79	79	1
31	31	2
52	68	1
53	53	10
35	36	1
102	125	2
2	4	2
95	95	3
108	108	4
98	98	6
165	165	2
37	37	3
76	87	1
189	190	1
155	155	2
146	146	9
64	64	3
72	73	3
23	23	6
41	41	2
150	180	5
161	161	3
27	29	1
17	18	1
94	98	2
74	99	2
186	186	3
170	170	3
25	25	1
125	152	1
172	173	4
111	111	3
150	182	2
36	37	2
166	166	11
176	176	3
117	117	3
108	188	1
42	65	2
36	36	1
61	61	1
93	94	2
43	44	2
38	38	5
83	138	3
94	94	1
32	32	2
151	185	4
182	182	2
128	128	1
121	165	3
163	163	3
154	154	3
115	115	4
3	3	2
174	185	2
100	100	8
187	187	1
154	169	2
91	93	3
187	188	5
69	77	3
121	121	3
59	80	1
77	77	3
190	190	2
170	183	2
66	66	3
60	60	1
151	177	3
129	154	1
12	14	1
85	85	2
171	176	3
9	9	2
99	142	1
65	65	2
45	46	1
49	49	3
95	98	1
13	13	4
155	156	1
82	83	1
106	106	1
145	147	4
139	140	2
130	132	2
15	71	2
141	141	3
112	130	1
19	148	3
172	172	1
66	67	4
160	160	2
149	149	1
126	127	2
29	30	1
161	162	2
178	181	1
123	124	1
45	45	1
38	64	3
90	94	1
177	179	1
181	186	1
5	15	1
101	101	2
47	47	2
39	39	1
144	144	3
145	146	2
110	152	1
44	45	1
140	147	1
148	150	1
89	126	1
2	2	3
61	71	1
127	127	1
188	189	1
58	58	3
43	46	1
130	130	4
26	32	2
1	1	3
111	185	1
72	83	2
128	129	2
184	185	2
17	19	1
23	27	1
118	118	1
84	84	2
66	68	1
125	125	1
91	145	2
58	72	2
111	114	3
45	53	1
107	108	1
52	70	1
73	82	1
140	140	4
115	147	1
62	65	1
129	129	1
145	145	1
122	152	1
64	65	1
127	130	1
29	35	3
12	13	2
108	187	1
74	81	1
56	65	1
136	137	1
86	109	1
4	6	2
14	67	1
106	108	3
88	88	3
0	5	1
0	0	2
89	89	1
89	144	1
131	131	1
118	135	2
18	31	1
175	175	1
30	36	1
171	172	2
125	169	2
99	99	2
21	21	1
59	62	1
15	74	1
56	56	1
33	34	1
114	121	1
59	60	1
29	37	2
6	8	1
27	72	1
47	48	1
135	135	1
103	104	1
131	135	1
148	148	2
13	14	1
78	79	1
157	157	1
166	169	1
6	7	1
34	37	1
92	92	1
67	67	1
185	185	1
130	156	1
85	106	1
47	53	1
31	32	1
43	43	1
183	184	1
109	187	1
124	155	1
175	184	1
84	125	1
