15	15	11
83	84	3
11	13	3
138	138	8
117	117	4
26	26	7
150	166	5
141	177	4
132	133	3
157	161	1
9	9	12
64	64	9
16	17	5
24	24	13
136	139	3
91	91	6
3	10	7
41	41	2
2	2	3
155	157	7
28	28	4
2	8	3
42	42	4
26	27	6
20	45	10
54	54	4
132	170	3
150	155	1
81	81	10
159	160	2
59	96	6
97	97	2
41	42	1
114	114	4
87	120	3
149	154	4
13	13	7
14	14	6
103	111	2
71	77	2
37	37	10
149	149	12
159	179	3
160	160	4
129	158	3
100	122	5
10	10	10
72	72	5
50	51	4
19	23	8
10	14	10
97	103	2
5	43	2
7	23	3
153	153	9
60	60	4
166	178	2
18	18	13
99	100	4
139	139	10
118	121	3
15	31	2
72	74	7
125	126	6
3	8	10
31	31	7
133	133	12
117	140	3
144	144	3
136	136	8
23	25	2
99	99	3
145	145	4
84	85	3
115	150	3
25	25	16
154	154	7
8	30	3
113	115	1
171	172	3
151	151	5
31	34	9
167	176	3
93	93	7
153	162	3
62	104	3
102	102	3
1	5	3
34	34	7
59	59	8
168	175	1
17	17	11
171	171	6
28	29	5
170	170	7
32	32	14
108	137	2
81	99	1
6	6	5
3	18	1
161	161	8
133	134	2
38	39	4
131	131	5
9	15	1
55	56	2
158	158	8
52	52	2
122	122	1
29	30	1
6	17	1
63	137	2
31	32	6
126	126	6
150	150	2
62	114	2
115	115	9
37	42	1
19	19	5
77	77	3
27	32	4
22	25	3
166	167	3
157	160	2
117	151	5
111	112	8
36	44	7
163	167	1
117	155	1
95	96	1
85	126	1
98	111	3
102	118	3
68	113	3
97	114	3
112	115	1
96	96	2
66	66	4
177	178	10
18	23	4
0	0	6
130	154	2
94	109	4
128	131	1
56	57	2
3	21	5
65	65	4
147	147	4
128	128	6
18	33	2
93	94	6
88	88	9
156	156	1
43	44	3
1	33	2
150	157	5
71	71	3
128	155	1
13	14	6
67	86	1
21	21	16
134	134	5
76	78	1
135	176	4
155	175	2
8	49	1
90	90	2
118	119	4
142	142	6
82	87	1
164	164	10
70	140	1
151	174	3
35	37	1
7	7	5
19	20	5
100	100	8
124	125	3
17	18	4
155	156	6
178	178	5
55	55	3
84	84	8
135	151	1
65	66	6
3	3	10
2	5	2
12	12	4
157	173	1
25	115	4
129	129	2
134	137	5
8	9	6
16	16	7
63	63	4
66	105	6
39	39	9
124	124	3
150	160	3
34	36	1
31	95	2
9	12	2
151	171	5
157	174	1
27	27	7
149	157	1
11	21	4
27	37	3
140	140	6
167	167	3
33	33	3
30	30	8
33	169	2
160	164	3
163	163	9
56	56	4
81	83	2
13	159	1
72	122	3
164	165	2
128	156	2
35	35	3
180	180	4
65	83	7
87	103	3
146	146	3
142	180	2
16	34	3
52	60	1
159	159	5
80	80	7
139	179	2
5	7	4
51	51	2
58	77	2
73	124	1
117	171	1
10	35	4
29	29	3
154	157	1
75	76	1
11	33	1
109	120	3
73	127	4
116	170	1
107	107	3
162	162	2
37	38	5
79	111	3
86	86	3
10	42	3
119	119	8
117	118	4
113	116	2
62	67	1
16	33	3
98	98	2
66	83	1
130	131	4
62	71	1
33	168	3
160	169	1
156	167	1
155	155	10
101	126	2
140	167	1
166	166	2
76	76	2
66	177	1
5	6	6
26	28	2
135	136	4
23	27	4
75	75	4
50	81	1
10	12	4
19	62	4
14	42	1
130	130	5
33	34	2
148	148	5
169	169	3
141	141	1
29	96	1
109	109	2
110	125	1
32	33	2
156	157	2
23	23	3
99	122	1
63	66	2
1	1	6
60	61	2
156	166	2
99	119	2
93	109	1
173	173	6
26	29	2
98	113	4
161	166	2
147	148	1
31	36	3
176	176	5
87	105	2
76	122	1
38	41	2
158	159	2
12	31	2
163	165	1
61	135	3
109	136	3
134	140	1
22	22	1
72	177	4
157	157	6
10	43	6
111	131	2
12	13	5
105	124	1
87	89	4
122	158	2
67	67	2
24	26	2
95	95	4
1	16	3
3	19	1
133	143	3
127	128	2
38	38	3
144	158	3
99	104	1
58	58	2
159	171	2
123	123	2
1	6	2
96	99	1
12	23	1
43	43	4
140	150	2
173	174	4
132	132	4
144	159	1
76	79	2
24	28	2
143	146	2
8	19	2
92	92	3
110	110	4
162	168	2
142	153	1
127	127	1
86	110	3
60	94	1
132	178	1
39	40	2
77	78	1
44	44	3
75	78	1
14	31	1
16	35	2
82	82	1
103	105	2
103	104	1
0	34	5
142	152	1
9	10	1
170	171	1
146	148	1
84	87	1
117	119	2
87	98	1
75	86	4
12	24	2
36	38	2
5	9	1
85	99	1
80	91	2
108	110	2
111	111	3
150	152	1
101	101	1
75	116	1
96	98	1
52	54	2
36	36	5
24	25	3
100	101	1
108	108	1
8	44	2
144	145	1
68	68	2
103	103	3
16	32	1
19	46	1
61	68	3
152	152	4
8	45	2
139	140	1
152	156	1
121	122	1
43	45	3
84	86	2
6	7	1
7	15	1
87	101	1
112	112	1
76	89	1
11	11	3
1	2	2
97	98	3
172	172	1
127	169	1
91	92	1
137	157	1
75	81	1
4	4	9
15	20	1
94	95	3
121	121	1
100	120	1
70	70	1
50	50	1
125	173	3
2	35	2
83	83	4
74	101	2
44	45	1
124	128	1
118	118	1
63	67	1
143	143	1
58	60	1
85	113	2
13	30	1
160	161	1
154	175	1
28	38	3
27	29	2
131	142	1
165	170	1
42	45	2
10	28	1
31	33	1
125	158	1
123	125	1
174	174	1
112	114	1
165	178	1
106	107	1
158	174	1
110	117	1
49	50	1
135	163	1
113	154	1
137	137	1
0	1	2
99	124	2
105	112	1
3	7	2
132	147	1
118	120	1
158	173	1
85	108	1
73	73	1
119	134	1
132	149	1
40	40	1
3	30	1
59	68	1
53	54	1
99	129	1
17	33	1
15	33	1
134	138	1
