70	86	2
48	110	2
123	123	25
41	41	9
77	77	11
10	11	15
19	20	7
76	76	20
53	53	18
47	104	4
129	130	2
80	80	18
107	107	30
27	27	15
23	23	14
120	120	9
51	51	19
11	108	1
14	14	11
65	65	20
38	38	17
101	101	14
78	78	10
52	53	13
55	73	3
56	75	2
5	5	20
79	79	21
85	85	5
55	55	18
126	126	27
69	69	21
50	50	22
16	21	1
1	2	12
98	98	14
119	119	10
10	12	1
63	63	19
6	6	18
58	106	3
50	51	8
59	59	5
70	71	9
29	29	20
108	108	12
123	124	8
131	131	17
31	31	4
109	109	23
21	62	2
58	58	9
84	85	5
48	49	6
26	26	20
57	57	19
83	83	10
91	91	9
43	43	16
17	37	1
28	29	5
20	69	4
125	125	18
121	121	11
66	67	1
79	80	9
108	117	2
84	84	4
94	94	20
88	88	15
20	62	1
19	38	1
45	76	3
31	32	7
9	9	11
10	10	9
127	129	3
54	57	2
127	128	7
93	93	15
68	68	19
102	102	11
39	39	22
130	131	4
12	12	18
3	3	9
114	114	20
80	81	4
117	118	2
115	115	17
98	104	1
2	2	15
100	101	6
75	75	6
41	42	8
108	109	2
87	88	8
25	26	6
59	60	3
23	24	6
113	113	21
54	54	12
95	95	16
97	101	1
19	21	4
103	103	30
63	75	2
13	13	18
106	107	8
110	111	5
89	90	20
31	65	2
7	7	20
118	118	14
40	40	8
75	76	16
15	15	17
33	63	3
124	124	21
12	20	5
47	48	8
66	66	10
67	68	6
64	69	2
68	69	2
78	99	1
34	34	8
46	46	24
78	79	7
28	28	22
23	28	1
42	45	4
92	93	2
47	47	21
116	116	20
105	105	18
45	45	14
31	62	2
96	97	7
82	83	4
32	33	8
60	60	8
51	83	1
56	56	16
29	64	1
44	44	18
32	32	14
117	117	23
97	108	1
47	50	4
126	127	6
48	53	1
39	41	2
54	59	2
30	30	18
106	106	11
97	97	16
76	77	10
42	42	17
62	62	13
72	72	5
97	98	3
69	70	8
20	39	6
82	82	11
55	58	4
64	82	1
38	39	10
40	41	1
46	59	3
55	75	6
64	64	14
122	122	19
22	76	2
130	130	27
81	81	10
110	110	3
19	19	13
9	28	1
0	0	8
14	15	3
74	74	5
59	102	4
86	87	13
26	27	12
92	92	15
88	89	8
4	5	3
49	49	17
27	32	1
70	70	10
102	103	13
113	114	11
33	33	13
20	20	4
104	104	9
100	100	14
71	71	24
94	95	3
86	86	8
29	30	7
11	12	12
7	8	2
8	30	3
60	65	4
45	47	6
109	118	2
49	50	3
54	65	2
98	100	3
58	59	2
65	77	2
91	93	10
22	22	1
73	74	11
119	120	3
6	8	1
18	18	9
85	88	2
128	128	5
26	46	2
40	54	1
104	105	19
115	116	7
44	56	1
13	14	7
0	1	5
111	112	5
132	132	10
61	76	3
16	16	4
31	83	2
48	70	6
133	133	6
96	96	6
89	89	19
25	25	6
8	8	9
99	101	6
57	59	2
46	48	15
112	112	16
111	113	2
108	127	5
111	111	15
28	30	8
32	81	1
47	64	4
101	120	2
15	17	6
95	96	6
46	47	5
85	86	2
74	75	2
52	52	18
48	48	16
103	106	3
60	62	3
44	45	8
39	40	4
4	4	5
6	7	3
51	52	9
13	97	2
71	72	7
116	119	1
89	93	1
73	73	1
38	43	2
54	55	2
47	60	1
56	57	5
0	2	2
102	104	1
80	82	1
42	43	6
86	88	2
11	11	12
65	82	4
90	90	9
107	129	1
101	119	5
69	71	1
109	110	4
1	1	9
54	88	1
98	99	8
24	25	2
49	51	4
27	28	4
93	94	7
12	81	1
43	44	8
114	115	5
9	89	3
112	113	3
16	82	5
61	62	3
41	65	4
83	84	2
99	99	16
56	58	2
25	27	5
99	103	1
79	101	1
49	56	2
65	72	4
120	121	2
79	99	2
58	102	1
77	81	5
55	93	1
2	3	8
32	46	1
82	100	2
125	127	2
101	102	2
18	19	2
81	82	8
24	55	3
0	3	1
132	133	5
30	47	3
53	86	3
55	57	3
81	83	1
15	65	3
6	12	1
19	70	1
64	65	4
55	56	1
6	27	2
60	103	1
103	104	4
67	69	1
45	46	3
17	17	6
106	116	1
77	79	4
87	87	2
83	85	4
63	76	2
49	104	1
81	85	2
50	57	4
13	19	1
24	24	7
69	104	1
129	129	5
105	106	3
79	98	4
122	123	7
107	117	1
14	69	4
72	74	1
22	23	2
61	61	5
67	67	9
10	89	3
89	91	2
22	26	1
121	122	2
98	107	1
45	50	1
122	125	6
21	21	4
91	95	2
22	24	1
19	26	1
22	28	3
126	129	5
63	64	1
50	53	1
25	40	2
39	42	2
62	63	5
21	22	1
109	117	3
15	67	1
12	83	1
18	38	1
78	80	2
65	75	1
119	128	2
64	71	1
1	5	1
90	91	5
31	81	1
48	86	1
125	129	1
118	119	1
108	115	2
91	92	2
102	120	1
124	128	2
105	107	2
128	129	2
15	16	2
18	21	1
61	79	3
42	64	1
73	75	1
58	112	2
13	68	1
57	80	3
37	37	1
75	77	2
26	28	1
19	81	1
110	114	1
54	94	1
60	61	1
111	114	1
14	16	1
102	107	2
9	10	2
51	53	1
16	18	1
62	76	1
64	123	1
107	119	1
116	117	1
59	61	2
47	71	1
47	106	1
7	22	1
76	85	1
11	88	1
82	120	1
8	27	1
116	118	1
108	118	3
107	108	1
43	47	4
98	102	1
33	34	1
29	31	1
2	57	1
5	8	1
27	45	2
21	23	1
42	44	1
30	31	2
68	71	1
53	54	1
21	33	1
41	77	1
77	78	2
25	28	1
16	19	1
26	30	3
54	106	1
17	18	1
22	40	1
61	103	1
80	102	1
46	64	1
71	82	1
33	47	1
87	89	1
71	75	1
88	104	1
