117	117	10
75	82	1
15	32	1
134	134	12
106	106	5
88	88	6
123	124	1
74	76	3
51	51	4
30	30	4
111	111	18
5	5	2
80	80	8
130	130	5
122	127	2
139	139	14
118	118	6
143	143	8
71	131	2
88	89	6
82	96	4
123	130	1
117	119	2
119	119	13
31	32	8
137	139	6
81	81	19
80	96	4
4	4	6
13	32	5
62	77	4
118	139	1
31	31	4
71	71	8
68	68	6
138	138	7
27	28	1
79	79	2
60	60	3
65	66	8
129	129	10
63	110	4
107	107	4
136	137	3
72	72	6
54	55	1
3	3	7
49	49	8
15	15	7
29	29	3
100	100	3
61	82	1
66	67	9
21	22	4
130	131	4
83	83	3
143	144	4
139	140	3
98	98	5
64	64	11
25	25	4
59	59	6
49	50	5
145	145	5
79	81	1
90	90	4
114	114	12
110	110	8
132	132	14
101	101	6
96	111	3
20	20	11
79	80	2
2	6	1
17	17	1
98	99	1
127	128	2
65	65	2
115	129	4
133	138	1
85	102	3
13	16	2
61	61	7
134	139	4
116	142	2
102	102	5
62	118	1
94	119	3
1	1	5
54	54	3
38	38	9
93	93	12
106	134	2
34	34	11
47	47	5
67	69	3
103	103	2
29	54	2
92	93	7
17	30	3
81	96	1
120	120	11
56	56	4
39	39	6
68	92	4
71	73	1
84	84	6
33	33	5
10	10	6
127	127	12
136	136	11
100	130	2
68	70	9
77	116	2
77	113	2
87	95	2
108	108	2
96	96	2
131	131	5
88	105	2
113	118	3
15	17	2
133	134	2
135	135	8
92	92	3
11	11	9
67	67	3
86	86	7
28	29	1
8	8	8
66	69	5
125	125	8
104	104	3
91	93	1
77	77	3
12	53	2
0	0	4
74	74	4
117	133	1
122	122	7
16	17	2
104	132	3
50	50	2
58	59	3
25	26	2
97	98	1
78	78	2
137	137	2
16	33	4
89	89	6
112	112	10
119	120	2
109	109	3
133	133	4
123	123	12
144	144	5
22	22	3
21	31	4
42	42	6
0	1	2
106	107	1
14	14	4
34	36	2
66	70	2
27	27	2
14	15	5
101	131	3
16	16	7
70	70	2
110	111	2
131	143	2
87	87	1
92	97	1
111	112	1
50	51	2
26	26	2
88	92	3
114	115	3
30	53	3
115	116	1
63	63	7
13	38	4
24	24	4
42	43	1
129	130	3
128	128	9
75	75	7
94	113	2
57	57	4
135	138	6
83	84	4
116	117	1
124	124	8
141	141	2
2	3	3
63	87	1
95	98	3
36	67	5
37	37	3
72	105	1
116	116	3
121	122	3
69	112	1
38	39	6
41	41	4
9	10	2
91	91	1
98	109	2
4	5	3
30	67	1
71	72	8
107	108	2
67	111	2
126	126	3
30	31	4
121	123	1
71	132	2
1	3	2
107	118	2
99	99	4
134	135	2
9	9	2
143	145	3
117	132	2
51	66	1
36	36	2
12	12	1
121	121	2
23	24	1
61	62	3
19	19	2
57	60	1
122	123	4
60	126	3
118	119	1
32	32	2
137	140	1
111	140	1
6	12	1
117	135	2
23	23	2
131	132	2
106	118	2
95	95	2
77	78	4
3	43	2
97	97	3
34	49	2
142	142	1
40	40	1
66	117	1
2	2	3
118	134	1
104	105	1
68	69	3
85	85	1
121	144	2
109	110	2
78	81	1
21	72	4
69	72	1
108	109	1
0	12	1
136	138	2
31	55	1
105	105	3
38	63	1
118	136	1
112	114	2
62	63	1
66	66	1
125	127	2
1	38	1
35	36	1
113	113	2
22	42	1
58	58	2
115	119	1
52	53	1
77	92	4
106	112	1
3	4	4
140	140	2
13	14	1
131	144	1
20	21	1
52	52	1
39	40	2
135	137	1
33	34	1
137	146	2
43	43	1
82	82	2
119	144	2
94	115	1
28	28	2
69	69	1
104	133	1
101	103	1
62	62	1
67	101	1
72	73	2
60	118	1
77	93	2
113	119	1
55	55	1
131	133	1
70	90	1
132	133	1
93	94	1
142	144	1
66	68	1
67	112	1
15	53	1
