125	125	13
14	15	2
53	54	2
76	76	9
107	107	7
77	77	5
187	187	6
169	169	3
175	176	3
113	113	6
163	164	3
47	47	10
10	10	6
122	123	2
1	63	2
154	154	6
130	134	3
154	155	1
146	147	2
87	87	3
153	154	2
149	150	1
83	123	2
156	162	3
31	31	7
136	136	2
30	30	2
33	33	2
5	5	5
141	141	4
119	119	2
19	19	1
157	158	5
65	66	2
42	42	10
17	17	2
82	82	8
28	28	2
57	57	9
95	95	5
6	6	9
12	12	3
45	46	3
124	124	2
7	7	15
61	61	3
63	72	1
147	148	9
110	110	4
40	43	2
134	134	5
144	144	9
185	185	13
148	148	2
27	27	5
66	67	1
184	184	4
140	140	7
76	77	2
159	159	6
89	109	3
162	162	4
70	70	2
56	57	3
21	21	7
124	125	2
149	149	7
177	177	6
74	74	4
123	133	1
39	39	18
130	133	3
135	135	1
83	84	6
78	79	2
123	123	10
38	39	2
115	115	6
63	64	4
132	132	7
23	23	7
171	171	1
145	151	4
67	73	3
143	165	2
174	174	6
93	93	2
114	114	4
156	156	2
139	139	10
186	186	3
6	151	3
87	88	3
27	29	1
98	99	1
155	156	2
39	40	5
15	35	2
16	16	3
111	112	8
135	136	8
25	26	4
41	41	13
94	94	8
145	146	3
150	164	2
105	105	12
154	163	1
79	79	1
74	75	3
17	18	2
164	164	3
166	166	2
103	103	10
151	151	5
182	182	7
84	84	9
124	142	1
94	95	2
128	128	6
104	112	2
101	103	1
104	104	3
127	127	5
183	184	1
25	25	5
114	125	1
80	80	4
88	88	6
43	43	2
186	187	1
13	15	2
5	6	2
109	109	4
14	14	12
157	159	2
143	143	4
90	90	5
9	10	3
12	30	6
153	169	1
152	153	3
34	35	2
112	112	5
40	40	6
123	125	1
155	155	3
71	71	2
15	15	6
41	141	1
89	90	2
180	181	2
3	7	1
162	163	2
55	55	4
110	121	1
127	128	1
58	58	2
108	108	6
148	162	6
96	96	2
151	152	3
67	68	4
83	83	3
170	170	3
2	2	5
44	44	5
24	24	5
0	0	3
150	150	3
62	64	5
58	60	1
150	165	1
31	33	3
3	3	6
167	168	1
40	41	7
85	85	1
57	71	2
112	127	2
137	137	3
32	32	2
89	89	3
31	118	2
114	115	2
59	59	1
22	23	2
37	42	1
131	131	5
187	188	1
43	44	3
181	181	5
21	22	1
82	83	1
163	171	1
104	105	3
82	84	2
189	189	3
148	150	3
129	184	1
141	152	1
143	144	3
52	52	1
126	132	3
130	131	1
75	78	2
88	89	1
75	75	5
117	118	1
155	160	2
27	28	2
56	56	2
118	118	2
122	122	1
184	185	2
62	62	3
78	81	1
68	68	2
61	62	2
129	130	1
173	174	1
75	76	2
91	91	1
1	2	1
54	54	2
48	48	4
160	160	1
78	78	5
38	38	2
15	28	1
90	109	2
9	11	2
161	161	4
100	100	1
85	99	1
114	124	1
116	117	1
86	86	1
138	138	1
106	107	5
73	73	3
26	41	1
38	42	2
132	133	1
156	157	4
12	13	2
71	73	2
20	26	1
63	63	1
13	13	2
35	35	2
33	35	4
175	190	1
153	153	5
98	123	2
40	42	1
142	152	1
188	188	1
66	68	4
67	67	1
168	168	1
11	12	1
146	167	1
10	12	2
22	22	5
18	19	1
62	75	2
37	118	1
130	130	4
102	110	1
47	48	1
8	9	2
143	149	1
138	139	2
27	44	1
10	34	1
20	20	2
69	69	1
1	1	1
10	11	1
34	34	2
96	98	1
148	149	2
105	107	1
84	85	1
109	110	3
152	152	2
26	26	1
102	102	1
106	106	1
171	173	1
13	14	1
151	160	2
126	149	1
180	180	1
16	30	1
97	97	1
54	72	1
3	6	1
158	160	4
129	129	1
154	164	1
105	133	1
80	81	1
92	92	1
23	25	1
157	157	1
175	175	1
86	98	2
41	42	1
121	121	1
124	132	1
98	98	1
12	33	1
73	82	2
147	167	1
165	165	1
123	124	1
117	117	1
150	163	1
24	57	2
33	118	1
151	164	1
190	190	1
146	146	1
160	161	1
