93	93	9
18	18	8
136	137	3
139	139	5
104	104	3
67	67	2
76	76	11
107	107	6
168	170	4
34	34	4
52	52	14
154	154	15
20	20	6
8	9	2
25	25	7
162	162	2
106	106	12
22	22	2
99	99	4
12	12	15
10	11	5
16	16	11
55	55	10
44	44	12
53	53	11
130	130	5
43	56	4
21	22	4
64	82	2
2	5	3
9	9	11
145	145	7
15	16	2
111	111	7
54	56	2
101	103	6
7	7	5
168	168	5
4	4	8
10	24	3
138	139	5
83	83	9
1	1	9
166	166	2
114	161	1
159	159	7
63	63	10
4	111	2
42	42	12
100	101	5
21	21	8
118	118	4
141	142	5
43	43	11
153	154	2
11	11	8
26	26	7
163	165	1
103	104	2
100	100	14
125	140	3
163	170	3
4	5	4
19	19	13
89	90	5
82	82	7
107	110	6
81	82	10
44	45	9
64	114	2
11	42	3
38	38	11
100	102	4
137	137	9
81	81	5
127	127	4
3	4	8
9	39	1
50	55	7
116	117	3
109	110	8
165	165	6
108	108	16
9	10	9
114	163	3
157	157	6
115	115	6
123	124	3
51	63	4
71	72	1
116	116	4
12	16	1
47	51	2
17	18	3
35	35	14
125	125	4
55	56	3
131	131	3
8	22	2
36	37	4
144	144	8
138	138	5
53	54	3
156	156	8
142	142	3
89	89	1
140	140	6
146	146	14
80	80	4
92	96	1
38	39	5
72	90	3
24	25	3
113	114	2
80	81	3
112	112	3
97	97	8
128	128	5
83	84	3
40	41	11
132	132	13
167	167	7
129	169	4
150	150	3
54	54	8
65	65	7
67	68	3
28	43	3
155	167	4
90	90	4
68	68	5
111	112	1
37	38	1
126	126	6
128	129	5
47	48	6
22	23	5
45	45	4
156	159	4
95	95	6
24	24	8
119	163	2
148	148	10
54	55	9
134	134	11
140	141	4
13	13	6
161	162	8
40	40	9
82	83	1
75	75	7
95	97	5
50	50	7
76	83	3
129	129	11
7	111	4
114	114	9
74	74	7
38	112	2
51	51	5
1	2	2
49	52	4
152	152	5
103	103	4
9	38	2
27	27	7
71	71	4
137	138	2
69	69	10
101	102	3
112	114	5
65	69	3
130	133	2
84	86	4
38	64	3
25	41	2
164	165	5
118	119	2
26	36	2
87	88	2
8	8	4
135	135	7
149	149	16
132	133	4
148	151	1
108	109	2
87	87	12
89	92	2
38	40	1
23	23	3
46	46	17
126	127	2
146	147	4
167	168	1
77	78	4
157	159	5
65	68	3
143	143	11
160	160	1
41	41	7
136	136	3
155	155	3
120	121	3
33	34	9
17	17	4
15	15	5
129	130	10
110	111	4
74	75	2
14	16	2
108	110	2
56	57	2
2	3	7
3	3	14
118	120	2
33	33	1
6	7	2
157	165	1
166	167	2
123	123	10
116	118	4
162	165	2
33	39	1
2	2	2
6	6	2
72	74	4
132	148	1
110	110	2
35	36	4
152	153	2
156	166	1
147	148	3
109	109	8
0	0	4
131	132	4
52	53	5
34	35	2
36	36	5
151	151	7
76	77	1
157	158	1
11	38	3
47	47	1
146	148	1
139	140	2
47	49	1
169	169	1
122	122	2
133	134	5
5	7	1
122	123	1
148	149	2
124	125	1
74	76	1
120	120	4
86	106	2
150	151	1
37	37	7
56	56	5
104	105	3
48	72	2
106	110	2
42	44	1
133	149	1
113	113	2
12	14	3
159	160	1
85	86	4
76	80	1
123	156	2
153	169	1
64	64	2
156	157	4
62	63	2
50	51	1
73	73	2
52	55	3
162	169	1
49	49	1
28	28	2
164	164	3
133	133	5
91	91	2
117	118	4
13	17	1
114	162	2
147	150	3
108	163	1
39	40	2
158	158	1
58	58	1
48	48	3
57	57	1
49	51	1
6	19	1
109	111	1
22	24	2
57	58	2
125	165	3
66	68	2
124	124	6
18	19	3
38	41	1
121	124	2
89	96	2
155	156	1
129	131	1
84	85	2
8	24	1
159	161	1
134	135	1
14	15	1
158	159	1
84	101	2
2	7	2
0	1	2
101	101	2
125	127	1
53	75	2
20	21	1
73	84	2
163	163	2
33	40	3
11	12	3
68	69	2
126	139	1
16	18	1
7	8	1
11	41	1
64	116	1
77	77	2
5	6	1
48	49	1
10	13	1
119	119	1
10	10	1
88	97	1
117	117	2
139	141	1
160	163	1
165	166	1
41	42	1
22	26	1
78	79	2
153	153	1
5	5	1
91	92	1
64	65	1
130	131	1
66	67	1
111	166	1
