6	6	2
45	45	4
55	60	2
226	226	9
221	221	4
115	116	3
83	83	5
104	104	11
183	230	3
191	191	4
8	8	9
38	38	6
102	105	1
237	237	13
226	227	1
43	226	1
157	164	3
36	50	5
103	103	6
43	52	1
83	84	4
141	142	1
16	50	2
199	200	5
44	44	4
37	37	9
83	133	5
185	185	6
173	173	4
74	74	7
55	55	11
77	77	5
20	21	3
58	58	8
171	171	2
64	64	6
43	43	4
242	242	3
151	151	7
29	30	2
236	236	8
135	233	1
134	136	8
205	205	5
39	39	15
175	175	2
128	128	4
50	50	2
1	34	3
67	67	5
22	22	14
177	236	4
57	57	5
186	186	5
187	188	4
181	181	5
8	46	3
231	231	3
169	171	1
190	190	5
192	195	5
190	233	2
146	146	4
113	113	9
128	173	2
199	199	4
86	86	3
230	230	4
121	121	1
178	178	2
11	11	2
17	53	3
66	66	2
79	79	2
211	211	4
49	49	1
77	82	5
23	65	1
101	101	10
23	34	1
156	156	2
167	167	2
46	46	3
68	225	2
48	48	4
202	210	2
12	13	4
2	2	7
101	224	1
215	215	4
143	143	6
140	140	13
162	164	2
45	46	4
10	74	4
35	36	3
176	176	3
31	31	9
76	76	4
12	31	3
197	197	3
69	69	5
83	132	2
23	23	5
116	126	4
131	200	2
78	78	5
56	56	10
125	222	3
79	80	1
160	160	5
13	226	2
204	204	2
10	65	1
4	102	2
7	102	5
223	225	3
95	95	4
166	167	9
54	73	2
224	224	6
60	80	1
3	9	2
45	64	4
183	183	5
80	80	8
4	31	5
0	1	3
20	77	1
194	194	7
53	53	3
55	56	2
120	120	4
70	74	3
135	207	2
69	231	1
208	208	2
85	85	10
109	109	6
144	144	5
30	30	5
124	202	1
6	7	3
206	206	9
4	5	4
169	200	5
170	171	2
134	134	9
35	35	2
171	174	3
70	71	4
214	241	4
25	25	5
85	97	2
160	161	3
223	223	3
179	199	3
234	234	6
54	54	5
68	68	1
154	156	1
177	177	9
239	239	1
81	81	10
19	19	4
203	203	6
100	100	4
54	224	3
216	216	9
122	122	3
40	177	1
29	29	6
19	65	2
219	219	3
57	58	1
225	225	6
88	88	2
130	130	6
207	207	2
16	16	6
40	40	1
233	233	7
41	41	5
125	125	2
154	155	3
183	224	2
71	71	2
152	220	1
210	210	5
154	154	4
137	137	4
30	67	4
70	70	4
75	98	4
98	98	2
20	20	5
220	220	3
141	141	3
235	235	5
170	170	1
178	179	2
0	0	4
127	172	2
150	150	2
115	129	2
101	102	4
129	173	6
233	242	3
11	38	2
9	32	4
78	133	1
137	138	2
12	12	4
165	168	1
102	134	3
97	97	2
33	33	6
61	61	7
4	80	3
51	52	1
178	180	1
1	5	1
0	5	1
217	217	3
152	152	4
203	208	5
68	69	2
51	51	1
27	27	4
8	20	1
172	172	1
49	51	5
154	182	6
136	200	1
27	240	1
35	71	1
36	62	1
116	117	1
106	106	2
1	36	5
212	213	3
221	222	4
107	108	3
18	19	4
77	78	5
44	228	1
149	149	1
145	197	5
107	107	3
135	208	3
235	236	2
118	118	2
14	14	2
123	123	2
1	1	2
59	60	2
63	63	2
189	189	1
43	60	2
34	34	3
75	76	1
126	126	4
216	238	4
119	119	6
188	196	2
20	27	1
140	141	2
25	206	2
133	134	2
100	222	3
9	101	2
182	183	2
99	114	2
40	42	2
43	46	1
59	59	7
65	68	1
84	84	5
159	159	7
81	212	1
34	42	2
96	121	2
24	25	3
69	213	1
140	169	1
240	241	4
182	182	5
18	31	2
9	21	1
124	125	2
43	51	1
34	214	4
70	73	2
39	41	1
229	229	3
85	112	3
131	232	2
129	165	2
75	75	4
28	28	3
151	208	1
108	108	2
53	165	2
9	9	3
27	75	2
167	168	2
5	80	2
10	10	3
6	29	4
202	234	1
49	50	3
135	135	4
21	153	1
24	34	2
23	30	3
81	82	1
96	99	1
108	114	1
179	179	1
177	207	1
36	36	7
217	241	2
60	60	6
138	138	3
4	4	2
191	233	2
24	24	2
117	117	5
9	33	2
178	200	1
56	57	3
78	79	1
62	63	2
46	47	3
238	238	1
165	165	2
15	16	2
204	206	3
166	166	3
40	41	2
18	18	2
25	72	1
8	31	1
34	215	1
156	157	2
73	73	2
52	129	1
5	5	1
40	167	1
210	211	1
158	159	3
49	80	2
147	186	1
27	173	1
163	230	3
72	72	1
80	218	5
54	61	3
165	167	2
169	169	3
207	208	2
84	111	2
45	58	1
163	163	2
129	222	2
26	26	2
116	116	3
42	131	1
85	113	1
151	216	1
58	59	2
101	152	2
124	124	1
161	188	2
77	80	3
9	22	3
180	180	3
218	218	6
25	236	1
57	60	1
105	106	1
156	216	1
7	7	1
136	153	1
48	91	1
131	131	1
7	22	2
65	65	3
72	222	3
214	214	2
52	53	2
2	6	2
9	86	2
51	53	4
29	32	1
102	135	1
79	88	1
189	213	2
49	91	1
17	17	1
21	22	1
10	102	1
101	111	1
137	209	2
2	3	2
12	15	2
80	82	1
196	196	2
224	225	1
111	114	1
63	64	1
19	66	1
140	142	1
129	129	1
213	214	1
180	182	2
99	109	1
3	3	3
5	15	1
184	184	2
191	201	1
24	26	1
99	99	1
136	136	2
1	47	2
200	200	4
1	33	3
126	127	1
193	193	2
104	107	1
17	20	1
138	180	2
192	192	1
15	15	2
21	21	2
103	105	1
53	55	1
144	145	1
198	198	1
48	88	1
230	231	1
0	60	2
138	168	1
105	105	1
131	235	2
147	148	1
104	117	1
99	171	1
50	51	3
11	21	1
152	195	1
145	145	1
85	96	1
187	194	1
189	206	1
3	31	1
29	68	1
138	186	2
47	47	2
8	57	1
49	61	1
34	35	2
108	126	1
133	133	1
31	68	1
75	112	1
11	12	2
122	123	3
13	18	1
22	65	2
116	130	1
1	68	1
22	23	1
2	7	1
116	129	1
75	238	1
38	176	1
212	212	1
198	220	1
161	161	1
6	104	2
2	37	1
239	240	1
201	208	1
220	232	1
203	238	1
47	213	1
36	68	1
216	227	1
232	232	1
96	96	1
158	163	1
29	97	1
222	223	1
61	79	1
69	214	1
169	207	1
104	105	1
24	86	1
48	49	1
4	6	1
47	48	1
147	147	1
