9	9	5
147	147	2
50	55	2
6	6	5
95	112	3
18	19	4
30	56	2
117	118	2
95	96	2
27	29	2
132	138	1
67	69	1
68	83	3
40	40	10
136	136	3
90	92	3
91	92	4
55	55	12
33	34	1
31	91	2
4	4	7
82	83	3
19	22	5
93	93	3
5	29	2
19	19	10
12	12	3
14	21	1
138	138	8
30	30	11
8	8	7
56	56	4
133	133	2
119	119	2
85	98	3
66	67	1
3	3	2
32	32	5
105	106	2
44	44	1
77	77	5
111	111	5
107	107	3
47	48	6
7	7	7
87	87	3
146	146	8
54	54	6
128	128	1
62	62	5
64	95	2
88	94	4
15	15	7
100	105	2
149	150	3
12	16	2
76	82	2
81	81	3
11	11	2
127	127	7
51	51	10
101	101	5
131	147	2
97	98	4
23	23	6
94	94	16
2	3	5
32	44	1
107	108	2
8	9	8
125	125	7
57	66	4
132	132	2
153	153	2
26	26	4
70	70	7
68	135	1
5	9	1
28	28	5
71	76	1
131	131	6
149	149	5
3	4	1
39	39	7
137	137	2
64	64	8
7	8	6
113	113	5
63	106	4
80	86	1
109	109	4
80	82	4
51	94	1
31	31	5
10	10	5
49	67	2
150	151	1
57	57	6
24	25	3
5	5	7
15	16	4
14	14	5
105	105	6
117	117	11
154	154	1
3	19	1
66	78	4
54	137	4
41	43	5
81	120	2
97	97	10
3	23	2
145	146	3
99	99	7
123	124	5
127	128	5
39	131	2
17	24	1
45	45	7
50	50	3
13	22	2
57	64	1
77	78	1
67	68	3
38	38	1
55	56	2
8	10	1
37	37	7
34	35	6
17	131	3
113	133	1
55	65	1
74	74	5
73	74	5
91	91	2
16	25	2
96	96	4
72	72	3
58	58	1
95	97	2
15	22	2
121	122	1
34	34	7
87	105	2
139	139	4
45	46	2
93	98	3
72	73	1
38	65	1
29	29	2
5	10	1
42	42	5
49	49	4
16	16	6
115	116	3
26	27	3
120	121	1
17	17	3
20	21	2
68	68	6
143	143	3
136	137	2
18	18	1
118	118	7
75	76	1
65	65	1
128	131	1
86	87	7
35	35	4
88	99	1
67	67	7
79	79	2
19	20	5
93	97	1
75	75	2
27	30	1
84	84	6
19	21	3
99	103	3
124	127	1
32	33	4
108	110	1
75	79	1
132	133	3
110	110	3
17	19	2
29	30	3
76	76	4
125	126	1
47	50	1
113	114	1
41	41	8
57	69	2
13	13	12
85	90	1
104	105	2
49	69	3
120	122	5
123	127	3
40	63	1
133	134	1
80	80	3
21	80	1
93	100	2
22	22	2
10	11	4
49	57	1
55	66	2
85	92	1
44	45	3
43	106	2
118	154	2
17	18	4
114	114	3
47	47	4
104	104	3
8	23	1
73	79	2
145	145	8
141	142	4
106	107	3
14	15	1
123	128	1
21	23	1
126	126	4
82	82	6
34	36	6
25	25	9
117	146	1
118	119	1
71	71	3
135	135	11
48	50	3
23	147	1
57	62	3
95	114	2
63	75	1
63	64	3
130	130	6
53	55	2
94	100	2
69	114	1
3	5	1
104	107	1
93	94	2
46	46	3
33	33	4
92	92	6
146	148	2
110	114	3
5	6	1
127	154	2
81	82	1
119	121	1
112	112	2
125	144	1
62	97	1
58	68	1
50	106	1
43	43	4
143	144	2
42	44	1
73	73	3
73	87	2
101	105	1
103	114	2
112	114	1
6	28	1
86	86	6
150	150	2
103	111	1
16	17	1
138	139	1
77	80	1
140	140	3
102	113	1
135	136	2
109	110	2
85	86	3
83	83	1
64	92	2
24	24	5
21	21	4
53	118	1
28	30	1
21	147	1
75	81	1
69	70	1
83	84	1
116	116	5
113	118	1
69	69	3
47	69	4
98	98	4
108	108	3
31	32	2
62	69	1
143	146	2
39	40	1
27	40	1
120	120	3
34	65	1
47	49	1
6	14	1
68	81	3
103	108	2
148	148	4
63	63	1
137	138	2
124	128	1
65	93	1
98	99	1
88	88	3
36	36	1
117	147	1
144	144	1
65	67	1
115	115	1
144	154	1
47	53	1
22	23	6
27	36	1
45	47	1
148	149	1
67	73	1
12	22	2
32	42	1
115	151	1
100	102	2
32	34	1
5	65	1
90	93	2
43	62	1
106	106	6
4	7	2
99	100	1
83	103	2
27	57	2
85	85	3
57	68	1
4	28	3
39	72	1
51	53	1
75	77	1
38	40	1
94	95	2
134	135	1
125	127	1
103	103	1
118	123	2
123	142	2
124	144	1
38	54	2
27	28	3
71	73	1
71	72	1
112	151	1
42	104	1
4	5	1
67	102	1
73	83	1
43	45	2
86	90	2
3	8	1
111	112	2
51	56	2
104	108	1
17	28	1
65	85	1
5	21	1
90	90	2
10	12	1
26	39	1
95	95	2
65	101	1
151	154	1
151	151	1
129	129	1
66	66	1
78	79	3
70	117	1
67	100	2
74	81	1
132	142	1
127	136	1
144	145	1
63	72	2
9	10	2
102	102	3
65	68	1
37	38	1
149	152	1
4	16	1
116	144	1
37	39	1
100	100	2
4	6	1
152	153	1
73	82	1
53	53	1
142	142	1
27	32	1
87	113	1
142	144	1
44	53	1
87	88	1
5	12	1
67	76	1
24	66	1
100	101	1
134	139	2
41	137	1
28	29	1
56	63	1
131	146	1
51	96	1
20	20	1
80	87	1
