107	110	2
183	184	2
130	130	9
123	123	21
36	36	10
182	183	4
18	18	5
180	180	5
46	46	10
38	38	23
156	160	3
185	185	7
138	139	5
130	133	5
6	6	6
51	51	8
44	44	18
179	180	7
33	122	3
14	16	1
39	39	6
95	95	9
110	110	5
172	172	17
185	188	4
41	41	9
63	63	2
119	141	7
132	132	14
6	17	1
7	189	7
79	80	5
54	135	1
88	89	2
112	113	14
144	145	2
187	188	11
175	179	2
43	44	2
17	17	13
109	111	5
174	175	1
14	14	14
146	146	4
89	89	6
19	26	5
2	2	9
193	193	16
108	108	6
154	154	7
29	29	4
124	125	2
144	144	2
141	146	4
122	122	24
194	194	6
191	191	24
30	34	4
176	177	14
190	190	12
28	28	10
166	175	7
147	148	4
12	13	5
140	159	2
8	10	2
111	116	3
186	186	14
117	117	7
175	189	5
68	68	13
3	3	21
147	147	7
99	99	9
190	192	4
114	115	2
178	179	9
22	22	5
162	162	6
118	118	9
78	79	3
59	61	3
117	149	4
11	12	3
33	34	3
0	2	2
170	170	8
20	20	7
25	25	4
195	195	21
159	173	1
156	156	17
109	139	2
134	137	7
80	80	3
35	36	2
53	54	10
31	31	9
122	141	1
23	23	9
6	7	3
45	45	5
158	160	2
85	85	7
159	159	2
119	146	3
27	36	3
42	42	13
138	138	2
1	25	2
117	119	1
109	126	5
149	149	19
30	32	4
129	131	1
169	170	9
0	0	7
125	125	6
88	88	4
43	56	3
120	139	3
34	34	4
113	191	1
114	114	5
113	113	5
10	23	4
44	46	4
155	155	13
105	108	1
116	116	6
111	111	9
52	52	14
157	157	28
126	127	4
114	127	6
170	172	3
158	158	14
166	167	11
164	166	3
49	49	13
181	181	15
90	90	1
136	136	13
82	82	3
187	189	4
10	10	8
182	182	6
151	157	1
114	177	2
55	56	2
72	72	9
58	60	1
131	170	3
103	132	3
180	181	3
175	190	2
118	120	1
32	32	2
190	191	6
173	178	2
59	59	8
150	150	10
26	67	2
133	133	10
119	119	2
196	196	21
169	196	4
97	97	2
88	117	2
161	164	5
62	62	12
187	187	15
185	190	2
106	115	3
184	184	13
99	193	7
103	105	5
142	142	7
0	1	2
107	107	9
161	162	3
151	151	8
25	27	3
94	94	6
104	104	5
169	169	3
126	126	7
143	148	3
67	67	6
11	11	3
50	53	2
50	50	12
58	58	7
151	152	5
152	155	6
12	12	11
116	146	4
77	77	5
24	24	14
1	1	5
118	156	4
59	64	4
24	56	4
57	58	4
37	37	8
162	164	9
108	140	2
144	173	7
141	142	6
189	190	3
171	171	15
7	188	3
26	26	14
34	35	11
160	160	7
70	72	1
132	133	1
66	68	3
105	105	4
15	15	10
144	148	2
179	181	2
113	114	7
111	142	1
195	197	5
43	57	1
47	47	16
14	28	2
174	174	16
109	169	6
32	45	1
178	178	9
159	160	1
135	135	2
55	63	3
56	56	5
97	112	1
197	197	1
27	27	6
120	120	16
177	185	1
104	106	2
94	97	3
53	53	10
84	84	6
109	125	2
188	188	3
94	95	6
118	150	1
173	174	8
33	33	6
2	4	3
157	186	2
86	116	4
125	126	2
58	59	4
86	103	5
12	14	4
192	192	12
66	67	1
123	133	2
103	104	1
179	179	6
145	146	5
113	116	1
170	189	2
165	168	1
177	177	12
175	176	7
69	72	4
9	12	3
138	140	3
16	17	6
11	13	2
93	93	3
124	124	8
72	73	3
141	143	4
28	34	2
73	73	4
132	135	2
173	175	3
158	159	2
171	193	2
191	192	3
82	88	1
168	168	12
155	157	2
87	88	2
175	175	15
150	151	5
7	7	4
26	27	1
21	21	12
99	102	6
115	115	7
108	110	1
64	64	8
54	54	3
24	25	7
155	156	5
42	55	3
156	159	3
168	169	7
140	141	2
123	135	6
116	147	5
143	159	2
61	61	2
176	176	6
161	165	2
44	45	4
185	186	5
128	128	8
28	36	6
70	71	1
4	17	1
129	130	7
69	69	3
157	158	5
56	57	5
121	121	11
80	89	3
117	118	4
6	21	2
79	79	2
24	65	2
167	167	7
7	187	4
96	96	6
103	103	7
146	147	2
3	179	2
65	65	2
139	173	3
183	183	8
127	127	3
62	70	4
154	155	5
103	106	2
35	37	3
119	120	4
62	72	3
62	64	2
162	163	1
125	131	4
48	48	5
186	189	3
102	111	3
145	173	4
5	5	14
143	143	5
25	26	2
16	16	5
73	74	1
175	178	4
148	148	4
102	103	3
114	176	2
166	166	4
168	178	5
192	193	7
94	183	2
32	33	2
189	189	3
2	3	1
36	37	3
43	63	4
161	163	3
19	19	3
139	139	6
174	192	7
170	179	1
27	31	2
148	149	4
27	38	2
85	86	2
172	177	1
186	188	2
115	188	2
40	41	3
38	42	1
43	59	2
163	164	4
154	160	1
165	166	5
130	131	2
170	178	1
7	16	4
9	9	3
17	18	3
43	43	5
43	58	3
69	71	1
30	31	5
57	57	12
10	11	5
14	15	3
0	3	3
95	96	4
13	13	6
140	140	4
98	99	5
36	77	1
101	193	1
104	132	1
8	9	4
186	187	1
137	137	4
100	100	6
166	172	2
145	145	4
118	146	1
20	21	2
35	39	1
7	19	2
79	83	5
163	163	7
109	109	5
51	55	5
28	31	1
65	68	3
146	149	3
67	68	1
9	10	3
4	5	8
160	185	2
55	72	2
184	185	7
193	194	4
1	2	3
150	152	6
185	187	1
105	106	6
45	46	3
194	195	5
8	8	3
33	37	6
35	35	2
64	72	1
67	74	2
154	156	1
87	96	4
82	85	1
13	14	2
152	152	6
58	62	1
40	43	1
156	157	1
39	61	2
119	123	2
45	52	3
30	30	9
2	180	2
161	161	5
80	81	1
172	189	2
60	60	2
178	181	1
175	177	2
87	87	1
173	173	4
109	110	2
7	8	4
196	197	3
38	39	2
59	65	1
160	165	1
26	61	2
102	105	2
165	165	1
6	8	1
170	171	4
41	42	2
93	104	2
167	168	3
112	114	1
20	25	1
156	184	1
83	84	1
70	70	2
4	4	3
67	69	3
136	140	1
164	167	4
179	182	1
112	112	2
181	191	1
121	123	1
61	68	1
25	61	1
144	160	1
134	135	1
147	149	3
112	139	1
5	7	2
168	171	1
64	68	4
118	159	2
5	20	2
98	98	2
3	4	2
36	76	1
86	89	3
118	151	1
84	85	1
101	101	1
98	112	1
131	132	2
136	137	1
96	105	2
149	152	1
121	124	2
141	141	4
151	166	2
139	140	2
26	73	1
176	179	2
160	166	2
122	124	2
18	27	1
179	193	1
40	71	3
180	193	2
14	22	3
96	97	1
8	11	1
110	117	1
85	104	3
6	74	1
78	78	3
149	150	2
22	23	2
164	164	1
15	16	2
46	56	3
153	154	1
50	51	3
111	112	1
44	64	1
105	133	1
33	35	2
194	196	2
135	140	1
154	161	2
161	175	1
94	104	1
157	159	2
27	29	1
174	176	2
180	184	2
169	171	1
153	153	3
123	124	1
99	196	1
152	153	1
60	61	3
110	125	2
133	134	2
86	96	1
67	70	2
54	57	2
31	32	2
108	109	2
9	11	1
40	40	1
16	18	3
113	119	1
124	136	3
137	165	2
159	161	1
128	129	2
144	172	2
113	117	1
150	171	1
83	102	2
42	53	1
27	39	1
54	55	1
5	185	1
180	190	1
52	53	1
102	102	1
36	38	3
156	186	1
143	147	2
112	115	1
101	106	1
76	76	1
50	56	1
181	182	1
172	176	1
136	171	1
37	38	1
136	165	1
114	195	1
142	143	1
125	129	1
5	19	1
27	45	1
184	187	1
111	113	1
23	55	1
97	106	1
97	98	1
144	164	1
172	173	1
60	63	1
14	72	1
152	157	1
127	128	1
44	47	1
74	75	1
