0	0	11
73	73	4
81	81	8
122	122	1
152	152	7
32	77	3
93	93	6
144	145	2
151	151	5
80	80	8
34	40	1
123	123	8
95	95	10
71	71	7
19	20	3
12	19	3
130	130	6
47	47	7
56	57	5
131	131	7
8	9	1
146	146	2
100	101	6
93	141	5
121	154	2
13	14	4
124	124	10
51	52	8
39	41	4
69	120	4
54	54	5
109	109	3
148	148	4
104	104	10
86	86	11
90	90	8
33	33	5
10	106	4
18	19	9
35	43	3
118	118	5
142	142	5
141	141	5
148	156	2
149	155	1
97	97	5
91	91	12
68	69	6
8	108	5
89	89	5
121	128	2
41	42	3
4	4	6
111	153	2
120	120	14
92	109	3
135	135	3
154	154	10
92	92	4
133	137	4
75	75	6
105	105	5
85	87	2
23	23	6
20	20	9
144	146	1
55	111	1
65	65	5
49	51	2
88	117	4
111	111	9
150	151	3
116	116	6
79	80	1
125	126	2
31	31	2
29	101	1
90	140	1
80	81	3
128	128	3
85	85	4
42	48	2
143	143	1
39	40	1
49	63	1
156	156	11
50	51	2
18	18	4
87	87	6
30	30	6
127	127	3
73	100	2
26	26	7
79	79	7
125	140	1
121	121	4
137	137	12
140	141	3
12	12	8
123	124	5
63	63	3
133	133	4
136	136	10
117	117	3
30	64	1
132	132	6
125	141	2
13	13	6
95	104	7
129	130	1
16	37	4
7	7	3
136	137	3
136	148	2
52	52	2
70	70	4
112	113	1
129	145	2
41	41	6
53	53	10
85	86	4
35	88	2
114	114	5
28	28	1
126	153	2
25	25	12
77	77	6
62	62	4
32	34	2
121	122	1
8	8	4
111	112	7
158	158	7
48	48	8
126	126	5
115	115	3
35	81	3
52	53	1
50	52	4
37	37	5
19	19	4
72	72	2
112	112	5
108	108	2
97	98	2
78	85	2
34	34	9
103	103	8
155	156	3
47	65	2
125	125	5
80	84	2
19	35	3
22	23	4
30	31	1
122	145	3
101	101	7
68	68	1
138	147	1
7	25	1
64	110	3
153	153	8
124	125	1
144	144	5
5	56	1
111	115	2
149	149	2
150	150	5
55	55	4
78	79	2
62	63	3
35	48	2
18	55	5
129	129	3
132	133	3
93	105	1
36	36	5
110	110	4
69	69	7
139	140	1
1	2	1
147	148	4
2	2	4
71	72	2
5	39	2
88	88	6
67	71	1
119	119	4
38	38	5
49	49	1
28	30	1
82	96	2
4	5	2
129	132	2
107	107	5
82	83	1
99	99	2
1	1	2
50	54	1
120	121	2
24	50	1
12	14	2
79	108	1
25	46	1
29	40	2
6	158	1
81	82	3
46	47	1
68	85	2
50	50	5
109	120	1
90	91	2
17	18	3
32	32	3
46	46	4
95	121	1
16	17	1
35	35	5
25	28	4
22	22	4
34	41	2
91	98	1
12	137	1
87	90	1
102	102	2
83	83	4
24	105	2
83	84	1
130	139	1
17	48	2
4	128	1
40	40	2
5	5	2
45	106	2
67	67	2
24	24	5
142	147	2
139	139	2
84	85	4
110	156	2
107	109	1
32	39	1
9	10	2
24	25	1
67	87	1
17	17	3
22	68	1
23	80	1
44	44	2
155	155	2
10	10	3
88	89	3
100	100	2
78	78	2
105	106	2
93	146	1
47	49	3
64	64	3
82	84	2
35	36	1
134	134	1
16	16	2
40	49	1
45	45	2
96	122	2
145	146	2
3	3	1
108	127	4
99	122	1
49	54	2
98	98	1
21	21	1
54	55	2
61	61	1
11	144	1
138	138	1
66	69	4
27	27	3
78	97	1
10	25	1
39	39	1
93	94	1
103	104	1
69	70	2
1	99	1
10	11	1
78	96	2
114	115	1
12	13	1
147	152	1
33	34	1
94	95	1
53	54	1
118	119	1
83	90	2
113	113	1
0	1	1
84	84	1
51	51	1
27	28	1
145	147	1
43	102	1
7	11	1
91	92	1
8	114	1
