85	85	3
76	76	4
85	86	9
141	141	8
115	115	21
56	56	23
142	142	5
3	3	18
103	105	1
88	105	1
57	57	13
81	81	14
25	25	11
127	128	3
11	11	8
111	111	10
57	63	2
101	101	5
90	90	18
87	112	1
67	67	4
110	111	3
53	54	6
23	24	6
143	143	6
65	68	1
21	21	4
2	108	2
122	122	5
104	104	7
152	152	7
127	127	8
23	23	7
99	99	7
20	24	4
91	92	2
42	42	18
87	95	1
109	109	15
42	49	4
135	137	1
150	151	6
108	112	3
34	34	16
2	2	13
133	133	16
63	63	4
80	82	1
41	41	11
117	117	2
134	134	8
105	106	11
69	69	7
6	116	2
128	128	5
27	27	9
124	124	13
47	51	2
120	120	9
166	166	8
16	16	10
155	156	6
39	86	1
119	120	15
45	45	19
7	7	12
133	134	3
43	43	20
54	55	7
26	27	6
118	118	3
49	49	11
76	95	1
72	72	8
64	111	1
78	83	2
73	73	7
101	103	1
107	107	5
119	121	1
147	147	13
169	169	10
46	46	15
100	100	9
69	70	2
154	154	3
163	164	11
153	155	4
55	136	2
4	4	9
120	121	1
66	66	3
157	158	4
84	96	3
87	87	11
94	94	3
9	9	8
50	50	19
52	53	3
96	96	8
64	64	5
114	114	9
88	88	6
52	66	6
8	8	14
37	38	7
162	162	7
119	119	2
39	39	13
5	5	15
15	15	8
18	18	6
142	144	2
168	169	4
55	55	5
74	74	4
38	38	8
40	40	7
138	138	7
129	140	1
121	122	4
110	110	11
37	37	16
77	79	6
75	75	11
156	156	2
1	2	7
76	92	2
44	66	3
20	20	5
147	148	5
21	24	2
159	159	15
143	144	8
53	53	7
41	44	3
145	145	12
0	0	4
42	127	1
34	35	4
70	72	2
0	7	3
112	161	5
93	93	4
128	129	5
41	47	2
129	130	2
21	22	5
151	151	7
58	62	2
78	78	7
105	105	7
136	136	6
12	13	1
122	133	4
167	168	4
47	48	9
35	35	18
10	10	10
150	150	4
170	170	2
129	151	1
107	108	1
44	45	5
148	148	7
35	36	3
112	114	2
146	146	5
125	126	4
163	165	2
24	24	11
108	108	10
77	78	15
125	125	5
114	153	2
144	144	2
14	15	2
14	14	15
1	1	5
9	10	4
46	47	1
0	8	6
26	26	9
54	54	13
114	122	1
20	110	4
16	24	1
71	71	7
155	155	4
18	21	2
164	164	11
84	85	5
126	127	2
129	129	11
12	12	4
36	36	8
78	79	5
79	79	7
137	138	4
151	156	1
95	95	7
90	94	1
11	12	2
41	56	3
6	6	8
69	72	2
167	167	2
144	164	3
72	74	5
46	136	1
154	159	1
13	15	9
112	117	2
149	150	1
8	9	2
150	170	1
159	160	10
138	143	3
42	56	1
66	67	3
55	56	4
18	42	2
139	145	1
64	66	1
81	82	3
84	84	3
80	81	1
109	110	1
97	97	6
27	36	2
19	19	4
150	168	1
86	86	7
18	24	4
129	136	2
66	69	1
21	137	2
48	116	6
68	68	6
33	33	7
51	51	3
6	117	1
13	14	6
38	39	2
132	132	6
119	145	1
78	99	1
162	165	1
64	65	2
52	52	5
15	18	1
90	91	4
168	168	5
104	118	1
143	146	1
22	22	3
2	9	3
7	8	3
13	13	16
58	58	2
112	112	2
89	89	5
10	11	5
49	114	4
8	11	1
41	42	4
65	65	5
91	95	1
116	117	4
41	53	1
72	73	3
39	41	2
49	126	3
93	95	1
126	126	6
39	71	1
24	131	2
130	130	2
1	17	4
85	97	3
11	18	2
44	44	4
139	139	6
80	80	7
28	28	5
112	116	6
2	25	2
47	47	9
17	17	9
135	136	1
131	143	4
140	140	4
47	135	3
103	123	1
145	146	4
68	69	3
82	82	4
102	102	1
22	23	2
115	116	4
36	56	3
121	123	1
96	97	1
19	43	1
0	37	1
122	123	1
113	114	3
39	70	2
101	104	2
45	131	2
92	92	3
4	6	3
114	116	1
143	156	1
103	114	1
109	111	2
34	113	1
68	107	2
160	160	4
70	70	3
89	93	1
162	163	5
147	166	5
28	108	1
98	98	2
21	110	3
11	20	3
93	94	4
115	119	2
112	151	1
98	100	2
78	80	1
11	53	3
151	153	4
98	99	2
64	69	1
164	165	5
62	62	9
48	48	10
87	88	1
79	80	3
83	83	7
110	151	1
67	69	2
23	132	1
5	36	1
126	146	2
42	53	1
50	122	2
13	42	2
151	152	2
122	134	4
99	100	3
133	136	2
18	19	7
92	94	1
135	135	3
131	131	4
23	42	2
62	63	1
57	58	4
97	100	1
65	107	1
102	136	2
100	101	2
10	25	3
65	69	1
12	40	1
150	156	4
50	51	1
83	90	2
44	67	2
106	106	3
21	23	3
80	105	2
39	40	2
54	132	1
57	62	3
102	103	2
46	131	5
97	99	2
117	138	1
131	144	2
53	56	1
46	54	2
116	116	1
44	130	1
92	93	3
140	141	2
18	23	1
8	20	1
149	149	3
9	25	1
152	154	2
83	91	1
161	161	2
28	82	1
144	145	2
161	162	1
43	44	3
121	121	3
1	8	1
108	109	1
41	65	1
87	89	1
3	4	3
40	41	2
158	159	1
165	166	3
158	158	1
3	7	1
6	7	2
88	89	1
163	168	1
153	153	4
146	147	3
95	96	1
5	6	1
157	157	1
48	127	2
89	107	2
4	106	2
65	66	1
153	154	2
112	113	1
91	91	2
137	137	3
133	165	2
36	37	1
42	43	1
152	153	3
86	87	3
33	35	2
114	121	2
114	119	1
56	57	1
163	163	1
85	105	1
35	74	2
111	112	1
148	149	2
131	132	1
52	67	1
149	155	1
38	57	1
78	109	1
102	104	1
113	153	1
134	135	1
15	17	1
127	139	1
88	112	2
91	93	1
138	156	2
24	39	1
123	123	1
148	161	1
154	155	1
33	34	2
38	42	1
151	168	1
155	158	1
46	50	1
138	142	1
2	26	1
103	104	1
160	161	2
78	105	1
45	46	1
84	97	1
132	133	1
76	77	1
49	122	1
