125	126	9
74	74	5
100	100	16
19	33	3
124	125	3
30	30	6
29	30	5
11	29	7
78	92	1
34	34	4
89	89	3
117	117	8
133	133	3
126	128	3
11	22	2
12	12	3
71	74	2
81	81	9
90	95	2
5	17	2
128	133	4
111	112	2
137	137	8
140	140	3
121	124	4
128	128	4
31	31	8
1	3	5
131	132	2
11	28	2
118	119	2
101	109	3
128	129	6
118	118	2
114	115	7
4	4	8
1	1	5
123	123	12
9	24	1
0	1	4
90	90	5
93	93	1
126	131	4
83	84	1
119	119	6
120	122	3
101	112	3
1	7	1
23	23	3
78	79	2
17	17	3
0	10	1
17	18	5
20	20	8
11	11	2
83	119	4
10	10	5
79	84	1
22	22	7
31	43	3
12	13	5
26	26	9
17	28	1
113	114	1
84	119	1
136	136	4
7	9	1
130	130	11
121	121	8
14	14	4
111	111	2
127	127	2
80	80	3
92	93	2
110	110	4
17	38	1
86	86	4
78	78	6
27	29	3
127	128	3
19	124	1
15	15	5
9	11	2
122	123	1
88	103	1
125	125	7
21	22	3
2	38	5
3	4	4
33	34	2
30	31	6
85	87	1
115	115	1
72	76	2
28	28	1
10	24	3
112	112	4
32	38	5
25	31	1
109	109	3
12	14	2
21	21	5
134	134	5
37	38	3
2	3	2
114	114	6
87	98	3
132	132	8
77	77	1
82	82	2
91	91	4
130	136	1
15	16	1
102	102	7
113	116	1
125	127	2
17	19	4
1	21	1
96	98	2
127	129	2
115	116	8
32	32	1
0	29	2
83	85	2
97	97	2
129	136	1
76	79	1
78	140	1
6	7	3
80	84	2
87	88	3
20	75	2
75	80	2
94	94	3
87	87	6
122	122	2
96	97	1
6	27	2
116	118	2
87	119	7
33	88	2
97	99	1
116	116	3
84	84	3
88	88	2
91	108	2
131	131	6
19	19	1
108	115	2
134	135	1
16	24	1
85	85	4
5	24	1
26	27	1
75	75	3
36	37	5
76	85	2
113	113	2
106	106	2
125	129	2
87	100	1
136	137	3
0	0	2
138	138	5
88	101	2
15	17	1
16	16	4
126	126	3
6	20	1
129	130	3
88	100	1
130	137	2
25	25	2
103	141	1
76	76	1
29	29	4
33	33	2
8	9	3
96	99	3
22	28	2
2	37	2
19	20	1
4	33	4
5	5	1
38	38	3
82	85	1
139	139	2
79	79	5
105	105	3
7	8	3
2	2	1
100	101	1
104	122	1
32	34	1
81	86	1
10	11	2
80	85	2
101	114	2
6	31	1
104	104	1
120	121	1
130	131	1
118	121	1
73	78	2
135	136	1
78	80	2
83	83	2
104	105	1
7	7	2
88	114	1
8	8	1
18	18	1
77	80	1
124	129	1
11	16	1
96	96	3
100	108	1
103	104	1
132	137	1
13	15	1
98	98	1
22	24	2
80	81	1
85	93	1
25	30	1
24	27	2
32	82	1
107	117	1
27	27	1
72	73	1
79	80	1
134	136	1
6	6	1
3	3	1
92	101	1
106	117	1
124	124	1
84	103	1
132	136	2
9	15	1
103	140	1
123	125	1
13	13	1
