21	21	17
75	77	5
100	120	5
40	40	16
110	113	3
83	84	8
107	107	19
42	42	10
48	48	7
28	124	4
59	106	2
131	143	2
36	36	10
17	19	1
120	121	6
127	127	5
123	123	19
26	74	5
115	115	20
29	32	3
9	9	9
2	9	3
0	19	2
63	63	4
59	60	8
95	96	1
16	120	6
0	32	4
37	37	15
137	137	7
120	143	2
96	97	3
17	17	7
68	73	4
79	132	1
132	132	10
71	72	5
6	10	10
15	15	6
67	67	7
93	93	21
140	141	9
29	29	14
131	134	5
136	136	16
20	21	6
75	75	14
0	23	2
49	50	12
82	85	6
134	134	18
57	57	2
9	11	8
60	60	8
40	77	2
105	105	10
132	140	1
127	138	5
117	117	16
0	0	9
24	31	3
20	20	12
112	118	9
1	2	3
72	73	4
119	119	8
54	63	2
14	14	4
107	110	2
117	126	4
88	88	10
99	99	7
126	126	14
33	33	4
128	136	4
22	22	26
21	27	7
34	36	2
62	98	2
57	62	7
5	12	4
123	146	4
53	55	3
65	65	6
29	30	2
25	66	4
132	138	2
141	142	7
126	127	6
120	120	23
67	78	5
16	16	5
0	21	4
130	130	17
89	90	5
5	6	6
142	142	4
17	28	1
124	124	3
55	55	4
61	61	11
95	95	17
2	4	5
145	145	6
50	50	3
59	61	2
1	1	10
81	82	7
53	90	4
133	133	8
135	135	16
111	112	6
93	139	5
27	27	6
68	97	5
70	70	7
28	28	19
92	102	2
84	84	10
124	125	3
129	129	8
2	3	1
69	69	6
131	131	20
71	77	2
128	128	14
87	92	3
104	106	3
87	87	7
107	126	3
94	94	11
26	94	1
19	19	13
74	75	2
4	34	2
96	98	3
140	140	12
68	68	4
30	30	6
81	81	11
109	110	3
129	130	10
25	78	3
109	111	6
21	31	5
39	40	1
26	33	6
48	69	1
122	123	7
97	97	7
3	3	6
109	109	6
87	109	5
118	118	19
24	24	8
96	96	9
122	136	1
15	16	5
104	104	8
114	114	6
110	111	4
59	125	4
122	130	4
31	32	3
26	26	8
111	111	3
67	68	5
136	139	3
24	30	1
76	104	6
59	62	3
123	124	6
139	141	3
8	8	4
87	89	1
92	94	5
51	51	7
25	65	2
121	121	11
80	80	5
11	11	10
62	63	8
75	76	2
141	141	17
12	12	6
6	9	2
76	76	2
18	18	11
84	98	6
19	78	3
57	85	2
101	114	3
130	135	2
83	83	4
141	144	2
101	101	9
117	119	3
138	139	9
87	97	2
12	13	1
86	87	5
139	139	7
16	18	4
96	139	3
77	77	5
89	130	3
108	108	4
56	74	4
20	64	3
134	141	3
143	143	7
13	75	6
72	82	3
6	37	1
56	56	3
32	33	5
54	92	4
82	82	9
34	34	6
112	112	3
103	106	4
79	80	5
98	98	4
91	91	21
100	100	5
3	4	1
52	123	2
19	31	2
82	83	5
103	103	10
2	2	5
120	122	3
79	133	4
18	19	3
23	25	4
59	59	9
29	125	5
74	83	3
109	113	3
52	87	8
64	64	10
69	72	5
38	38	11
72	76	6
25	93	4
78	78	4
116	116	4
51	91	4
77	78	4
49	49	6
39	42	4
54	55	4
27	129	2
4	36	3
58	58	4
13	31	4
105	106	3
9	10	8
38	41	5
122	122	11
104	124	3
24	92	2
14	18	1
119	121	1
108	110	7
87	140	1
111	127	2
135	137	5
47	47	4
87	93	2
134	139	2
119	143	5
136	137	6
72	77	4
30	37	1
23	24	2
74	74	2
90	133	3
78	81	1
61	62	4
41	95	4
117	139	2
32	56	2
71	81	3
6	6	10
122	124	4
81	139	1
90	97	4
89	103	3
41	41	10
105	110	5
116	118	8
72	72	7
85	112	10
65	85	4
117	138	1
5	36	2
28	103	3
131	132	2
79	79	3
85	85	2
68	71	6
64	66	2
49	98	3
63	64	2
103	105	1
25	25	3
75	131	5
62	62	2
74	80	1
26	39	1
134	140	2
89	112	1
49	121	1
3	31	5
71	71	5
126	137	3
71	106	2
64	71	2
93	120	4
93	94	2
8	67	3
121	146	2
90	90	9
86	86	1
118	119	5
97	98	6
36	88	4
105	124	1
33	133	5
90	123	1
24	37	5
28	29	3
114	118	1
96	126	2
117	129	3
63	68	2
64	65	3
87	88	4
3	10	3
138	138	10
53	94	2
31	131	2
28	125	3
12	15	2
101	119	1
135	136	5
97	125	1
16	17	2
54	54	8
131	139	4
51	122	2
35	35	4
70	71	4
100	102	4
64	86	4
53	53	3
106	106	3
125	127	2
32	32	1
125	125	5
64	68	4
132	133	4
59	124	3
113	115	3
144	144	9
98	110	1
130	143	2
66	76	4
5	5	4
37	42	3
132	139	3
92	93	1
105	107	1
47	64	1
34	35	1
22	38	2
34	133	2
143	144	2
99	100	3
41	141	2
96	127	1
87	111	3
103	120	1
47	80	1
52	53	1
116	120	3
80	132	2
104	112	2
88	107	2
90	91	1
85	87	1
130	144	1
8	9	5
89	89	6
71	80	2
35	36	3
4	18	1
110	119	1
49	67	1
80	81	2
72	81	1
21	57	3
3	35	5
25	92	1
136	140	1
86	98	1
89	134	1
79	104	1
60	61	1
38	103	1
74	106	2
1	6	3
49	66	2
21	72	1
116	130	2
53	92	2
48	61	2
90	132	1
100	101	3
58	70	1
116	117	2
123	130	2
52	52	3
106	107	1
18	79	4
123	129	4
121	122	3
92	103	1
26	43	1
41	42	3
68	121	1
134	135	1
98	99	1
53	54	5
6	33	1
10	10	1
39	85	2
102	103	3
39	39	1
62	97	1
58	95	4
97	112	2
76	77	2
66	74	1
86	106	1
73	73	3
118	123	2
106	108	1
75	117	2
27	28	1
80	104	1
108	111	1
21	26	2
58	68	3
1	50	1
94	139	1
138	141	1
103	125	1
21	56	3
134	136	1
51	90	2
25	33	1
113	113	1
146	146	3
63	73	2
66	66	4
54	96	1
26	78	2
47	76	3
41	57	2
20	65	1
103	107	1
95	130	1
49	54	1
104	108	1
117	118	2
48	67	2
36	52	1
72	83	3
91	131	2
25	26	1
120	144	1
33	66	2
43	72	1
112	116	1
102	102	4
72	84	1
79	81	1
96	111	3
102	125	1
47	70	1
61	63	1
92	92	1
19	34	1
99	101	1
90	110	2
53	57	1
129	131	1
56	62	1
66	68	2
57	97	2
43	50	1
26	84	1
10	37	1
104	120	1
39	76	1
73	82	1
94	126	1
8	31	1
18	57	1
97	110	2
14	15	1
76	78	1
73	105	1
137	139	1
