71	84	2
61	63	2
115	115	6
119	119	2
106	106	4
52	52	17
123	123	8
59	59	4
107	107	7
117	118	2
21	23	3
45	82	6
55	55	6
102	102	5
78	80	6
45	46	5
87	87	5
95	95	7
56	56	17
3	4	2
11	12	2
71	81	1
113	114	5
62	63	3
43	43	3
28	42	3
30	41	11
32	32	11
130	131	8
4	7	3
71	93	4
6	8	2
48	48	8
60	60	8
40	69	1
83	121	1
62	62	7
113	113	19
96	97	7
107	108	3
21	22	3
85	85	1
23	23	18
124	125	7
87	88	6
110	110	7
132	132	9
19	21	5
124	124	6
54	54	11
13	13	6
18	65	5
56	67	5
46	46	3
9	9	8
118	118	4
14	24	5
8	8	3
55	56	4
116	117	3
80	131	4
25	25	1
78	78	4
79	79	7
120	120	3
130	130	7
78	114	1
4	15	1
112	112	4
26	26	13
41	41	5
77	77	5
81	81	5
26	56	5
15	15	3
48	49	2
41	44	1
93	99	5
114	114	4
57	57	8
117	117	3
74	74	2
26	50	3
49	49	4
128	128	2
0	0	5
70	70	1
120	121	2
19	19	2
69	69	4
77	78	4
115	119	1
7	8	2
27	49	2
12	13	2
96	96	7
11	11	4
17	17	2
125	125	5
61	61	4
19	20	8
28	29	6
26	29	3
126	129	1
37	37	1
12	12	3
4	4	2
82	82	4
109	109	7
108	108	7
92	92	9
50	50	3
72	74	6
18	18	2
101	102	1
61	92	1
97	97	3
67	68	1
44	44	1
20	20	4
27	27	11
73	87	1
53	53	4
50	53	3
89	125	1
95	100	4
122	123	4
28	28	5
46	84	1
103	103	4
117	119	2
34	34	1
88	88	2
84	86	6
93	93	1
103	107	1
111	112	1
49	50	2
129	130	2
131	131	4
42	42	5
10	11	4
32	46	2
51	51	6
63	63	2
67	67	5
64	72	1
40	40	2
29	29	2
83	84	1
123	124	1
116	116	1
122	122	6
14	15	1
6	6	3
2	2	2
90	124	2
73	86	3
98	107	2
94	117	6
131	132	4
114	119	1
99	99	2
65	71	3
63	64	1
33	33	3
52	53	1
65	73	2
4	5	4
84	84	2
31	31	1
5	5	3
126	126	3
90	91	1
98	98	1
83	83	1
115	116	2
68	68	4
108	109	2
29	41	2
86	87	3
128	129	2
60	90	1
77	101	2
47	47	1
119	131	1
24	45	1
24	38	2
64	74	1
75	77	2
5	17	2
6	10	2
7	7	1
18	19	1
58	58	1
70	81	1
30	30	6
5	8	3
26	27	3
127	127	3
11	66	1
16	17	3
86	86	1
65	75	1
34	67	2
5	16	1
66	66	3
25	26	1
82	83	1
104	105	1
100	100	1
71	86	1
57	68	2
93	95	1
50	56	1
3	106	1
121	121	1
101	101	2
21	21	1
8	9	1
132	133	1
