246	246	26
96	115	2
234	235	11
167	167	26
174	174	16
207	208	5
160	160	29
120	120	11
69	69	11
27	27	12
118	118	21
21	21	6
10	10	22
17	20	2
188	199	2
203	203	29
194	194	14
93	93	15
219	227	1
30	31	10
194	195	5
86	87	11
159	159	22
199	199	15
115	115	18
202	202	12
163	165	5
67	84	3
213	215	4
142	142	1
209	210	4
200	226	6
11	12	6
174	179	4
78	79	16
245	245	42
19	25	1
7	7	16
230	230	27
237	237	10
208	208	21
201	201	25
210	210	30
241	241	53
19	19	35
60	61	5
221	221	18
75	75	13
244	244	22
97	97	16
209	209	29
162	163	12
204	207	2
113	114	4
211	211	20
220	220	19
240	244	4
215	215	27
158	158	14
32	32	17
229	230	5
63	63	21
20	20	29
24	24	17
31	31	4
173	174	14
210	213	2
33	33	16
1	1	20
34	34	22
117	117	9
213	213	33
65	65	14
226	226	30
222	223	8
41	41	23
5	5	19
50	51	2
190	191	4
155	155	17
33	34	7
175	175	20
104	104	12
40	40	16
217	217	14
236	236	17
9	19	3
175	176	19
46	46	6
156	156	21
23	23	20
11	11	16
94	94	15
86	86	10
47	47	16
90	96	1
182	192	5
169	189	1
195	197	3
212	213	11
207	207	16
85	85	10
57	57	14
68	69	6
164	164	22
225	225	19
71	71	3
213	217	3
167	169	2
233	233	26
54	115	2
184	185	8
80	80	7
100	100	15
95	96	6
8	9	7
228	229	8
152	152	13
240	242	7
60	60	21
172	175	10
231	231	10
193	193	11
237	238	5
90	91	8
195	196	9
232	248	2
152	160	3
195	195	13
91	92	2
25	25	13
5	20	5
108	203	3
223	223	25
70	70	11
185	185	9
20	22	7
18	18	18
154	154	17
3	235	1
154	155	5
53	54	3
171	171	17
17	17	13
4	4	19
173	173	20
49	50	13
43	44	8
95	97	1
31	33	1
79	172	3
50	60	1
90	90	15
153	153	23
181	181	31
95	109	3
57	63	3
188	190	4
165	165	29
110	153	1
74	74	11
171	172	4
182	182	28
226	227	20
8	8	20
161	162	6
151	151	23
44	167	3
17	23	3
78	78	18
34	35	10
163	170	3
79	79	14
189	190	3
220	221	7
179	179	22
111	111	20
58	59	4
3	3	14
184	189	4
146	146	9
205	205	19
184	194	6
13	14	7
164	165	10
13	13	2
242	242	20
91	91	8
43	43	11
170	170	18
170	199	2
208	213	1
175	199	4
30	30	8
212	212	23
235	236	15
112	112	27
232	233	10
230	231	15
68	68	17
208	209	25
4	19	3
102	102	14
29	30	6
92	92	13
63	64	4
239	240	3
199	212	3
48	48	16
94	95	6
162	162	19
53	53	16
99	100	9
184	184	31
96	96	10
204	206	4
168	168	22
243	243	11
238	245	6
169	169	14
187	193	2
95	95	21
156	157	3
109	109	9
163	164	7
227	227	17
1	94	6
29	115	5
172	172	9
204	204	32
107	111	2
58	63	4
62	62	10
2	2	17
237	239	3
162	174	2
77	77	20
218	219	20
192	192	18
116	116	23
61	236	1
44	45	6
27	28	4
188	188	8
238	239	5
42	42	18
213	246	2
147	147	17
152	157	5
155	156	1
164	168	2
64	65	5
84	84	7
28	54	3
219	219	35
59	59	28
33	35	1
33	37	5
193	194	10
178	179	6
182	183	7
63	67	5
72	72	11
200	200	16
67	67	17
50	50	16
177	178	5
187	187	40
107	107	15
182	195	3
192	193	5
177	177	12
178	180	6
244	245	3
144	171	2
99	99	24
96	99	7
172	173	6
19	20	1
106	106	12
178	178	18
114	114	5
186	203	5
81	83	3
18	19	7
109	160	6
180	180	12
89	91	5
234	234	17
34	39	3
43	46	1
49	49	8
160	161	2
35	36	3
103	103	8
166	166	9
15	15	13
214	214	20
160	164	5
211	212	6
10	11	8
35	173	1
198	198	7
26	29	3
85	86	3
88	88	17
198	200	5
121	121	2
6	247	2
110	110	16
117	118	10
197	198	9
222	222	21
214	247	1
212	230	1
200	201	8
223	224	9
55	55	18
113	113	13
97	99	3
37	37	26
102	103	2
215	235	5
64	64	14
146	237	1
205	206	6
22	22	20
223	225	5
224	224	14
111	160	3
164	171	1
85	119	1
21	23	1
4	238	3
14	14	13
218	218	12
186	211	3
181	185	3
97	98	11
17	18	1
203	204	8
186	186	17
150	150	27
176	177	8
157	157	18
1	3	1
79	173	1
119	119	21
200	224	4
156	173	2
26	26	15
107	112	3
153	155	6
96	97	8
61	61	4
87	87	29
176	176	2
214	215	11
167	168	10
164	169	1
65	66	10
18	22	3
58	58	11
39	39	9
69	70	4
10	233	1
217	218	4
207	219	1
159	160	6
234	237	3
206	207	6
198	201	4
50	52	1
237	244	2
200	207	2
169	170	12
110	111	12
215	219	2
55	56	14
89	92	2
113	207	1
199	202	5
213	214	12
85	87	1
99	107	1
243	244	4
76	81	5
151	160	4
92	99	4
14	15	7
94	113	3
202	203	5
224	226	3
145	164	3
197	197	29
84	88	3
153	168	3
71	72	3
38	38	20
216	224	3
153	204	1
239	239	2
70	72	4
87	108	5
189	189	3
111	112	7
8	235	8
145	145	4
76	77	6
56	56	14
217	243	3
38	39	4
164	170	1
163	163	22
191	193	4
238	238	10
105	105	5
82	83	6
170	172	2
34	145	4
153	159	4
68	86	1
174	180	2
9	10	10
168	169	8
83	90	5
108	108	9
33	38	1
73	77	3
52	52	13
51	51	16
4	243	2
199	225	1
9	9	10
81	81	15
66	147	1
206	206	4
169	192	3
28	28	12
226	228	2
33	51	3
0	0	2
24	25	4
32	155	1
55	57	3
92	98	1
54	54	8
171	174	1
37	38	6
172	179	1
174	175	4
92	108	1
181	211	3
164	166	3
61	62	12
6	16	2
219	224	1
36	52	1
85	113	1
240	240	20
66	66	9
146	226	2
233	234	4
192	194	2
221	222	10
59	60	11
179	235	4
179	180	8
36	36	18
10	54	3
47	48	8
183	184	7
196	196	5
151	172	1
169	171	3
236	237	7
100	106	3
54	55	5
229	229	12
10	231	5
51	53	2
111	153	2
97	100	1
184	202	1
198	225	2
70	80	1
112	113	6
8	80	1
23	24	4
197	199	7
11	94	4
164	173	1
205	207	6
225	226	9
6	6	9
70	71	1
181	182	5
101	101	5
121	245	1
245	246	11
15	38	3
5	62	1
240	241	9
204	205	8
16	16	8
246	247	9
219	220	2
89	89	15
85	89	3
180	182	1
57	60	2
24	115	2
190	190	8
194	196	1
231	232	2
247	247	21
240	243	1
116	233	1
12	12	9
226	229	2
26	110	3
183	183	16
57	58	16
45	45	22
214	221	2
176	188	3
38	65	2
181	183	7
186	197	5
150	153	1
166	171	2
161	161	17
153	154	8
212	214	2
158	159	2
30	112	2
216	218	2
23	46	2
232	232	10
25	32	1
26	27	7
73	74	1
225	234	8
234	236	1
6	11	2
164	174	1
4	236	3
151	152	7
98	100	3
157	158	5
213	245	3
114	202	4
214	245	1
62	63	1
165	166	5
16	99	2
3	7	4
120	145	7
93	94	7
229	231	1
47	51	5
193	201	3
39	42	8
56	59	3
247	249	4
11	60	2
172	241	1
34	38	3
4	6	1
183	210	2
180	181	1
84	85	7
235	235	11
183	185	4
177	187	1
199	228	1
59	70	4
228	230	4
21	22	1
146	149	1
118	119	5
224	225	8
111	244	4
82	82	6
186	188	2
151	153	7
214	218	1
48	61	4
208	211	2
210	211	5
77	79	2
22	25	2
100	101	4
60	63	5
98	98	7
190	192	5
114	115	5
32	37	2
114	116	3
151	154	1
146	147	3
52	54	1
56	64	3
115	116	3
231	233	1
191	191	7
238	240	2
76	76	7
220	223	2
226	230	3
111	245	2
216	216	10
215	218	3
66	76	1
35	35	4
178	191	2
79	84	2
6	7	4
52	66	4
197	211	2
69	86	2
87	107	1
187	188	1
66	84	2
16	17	4
198	199	2
167	171	1
79	117	1
66	67	5
108	112	6
73	73	1
56	58	2
154	157	1
224	233	3
84	111	3
214	246	2
243	245	1
69	85	1
7	8	1
169	241	2
217	247	2
171	188	1
216	217	4
32	35	1
76	78	3
241	244	3
78	109	3
195	216	1
34	42	4
180	183	1
198	209	1
212	220	3
87	88	9
20	114	1
152	156	1
20	26	1
85	107	1
2	4	2
163	174	2
96	98	1
215	245	1
29	29	5
245	248	1
13	17	1
71	75	3
182	184	3
152	155	2
44	44	3
90	95	1
3	6	5
8	10	2
75	78	1
169	172	1
28	29	5
60	71	1
76	80	1
215	217	4
152	153	6
48	49	3
89	90	1
219	231	5
70	173	1
52	53	4
11	17	4
233	235	1
11	15	2
65	67	2
34	48	3
52	56	1
98	114	1
147	164	2
49	198	1
157	173	1
74	75	2
203	205	2
197	200	2
241	243	3
144	229	2
247	248	5
228	228	6
186	187	1
191	192	9
85	90	3
11	113	2
222	230	1
185	186	5
32	39	4
236	238	1
188	189	5
42	43	2
187	208	1
248	248	4
113	115	2
82	118	1
106	107	5
34	36	1
207	212	1
87	109	1
29	31	1
3	46	2
188	192	1
72	73	3
101	105	1
166	167	2
11	58	1
59	64	1
167	180	1
207	209	1
94	98	3
246	248	1
189	192	3
144	144	1
151	178	2
83	83	3
235	246	5
121	144	1
227	230	1
66	82	1
91	98	1
154	156	2
165	171	1
212	218	3
79	80	1
149	150	2
150	185	1
183	212	3
185	197	1
9	234	3
194	208	1
71	73	3
22	23	2
199	200	2
6	39	1
72	74	4
55	62	1
227	228	3
211	248	3
36	37	3
192	196	5
196	197	1
152	159	3
212	229	4
11	16	1
18	20	4
68	78	1
95	115	2
175	177	1
48	237	1
12	48	1
27	29	4
180	184	1
70	84	1
150	151	1
107	108	2
8	113	1
55	59	2
161	173	3
185	208	1
109	110	1
77	87	1
31	112	1
86	110	2
215	216	5
193	208	1
95	116	1
186	196	1
29	112	2
95	118	1
79	81	1
51	78	1
187	234	1
43	203	3
193	195	2
96	112	1
28	55	2
16	100	2
4	5	4
24	45	1
77	81	1
186	201	1
3	4	2
73	75	1
98	197	1
170	192	2
197	201	1
233	236	1
93	109	1
154	158	1
68	85	2
215	246	2
218	231	1
94	151	1
8	79	1
60	69	2
110	160	1
163	173	1
49	197	2
196	211	1
210	242	1
82	84	3
162	198	2
206	208	1
108	110	2
181	184	1
41	43	1
41	42	3
207	211	1
54	93	1
149	169	1
166	184	1
209	219	1
58	60	1
113	228	1
13	57	2
46	61	1
46	57	2
29	36	1
108	109	1
227	229	1
178	229	1
35	48	1
2	3	3
30	35	2
12	101	1
11	163	2
242	244	1
170	187	1
201	202	2
179	228	2
238	241	1
200	216	1
184	186	1
32	46	2
46	47	1
12	17	1
241	242	2
217	219	2
150	198	2
161	167	1
175	178	1
52	173	1
213	239	1
236	245	3
98	99	2
2	45	1
14	57	1
39	41	1
185	187	1
200	227	4
201	204	1
13	65	1
23	25	1
237	241	1
178	202	1
235	240	1
53	59	1
33	36	1
194	200	1
11	61	1
75	77	1
173	183	2
212	237	1
200	229	1
199	216	2
169	235	1
229	234	1
186	200	2
18	90	1
245	247	1
70	85	1
44	117	1
67	68	2
88	89	1
56	57	1
51	198	1
197	218	2
202	204	1
199	217	1
93	112	1
5	6	2
161	172	1
90	101	1
8	21	1
165	167	1
10	232	1
15	37	2
31	32	2
106	110	1
40	42	1
37	66	1
20	25	1
49	51	4
110	113	1
220	231	1
34	37	1
3	5	1
67	81	1
153	158	1
199	224	1
181	189	1
53	70	1
183	190	1
9	11	1
227	234	1
208	221	1
172	174	1
22	34	1
80	81	1
121	147	1
178	196	1
72	75	1
70	73	1
42	44	1
158	186	1
178	197	1
59	63	1
226	235	1
54	67	1
89	93	1
