64	64	20
69	69	16
30	30	21
20	20	10
48	48	11
26	26	12
17	17	14
65	65	14
29	30	3
17	79	2
15	16	4
56	84	6
63	64	8
61	62	7
5	5	12
54	60	6
49	49	11
52	54	3
71	72	4
14	14	13
34	34	9
27	27	9
73	74	3
80	80	15
2	2	11
2	67	2
66	66	11
27	28	9
6	7	8
87	87	22
18	23	3
52	53	3
10	10	14
58	87	2
28	28	2
7	8	10
13	13	17
89	89	13
62	62	12
4	11	2
59	59	14
15	46	1
48	60	1
67	67	6
56	72	5
8	8	8
90	90	1
7	7	26
22	57	1
53	55	3
83	83	8
52	52	14
21	21	8
9	9	12
31	31	18
19	19	12
47	59	4
79	80	9
54	87	2
53	75	6
54	54	9
51	51	15
84	85	5
68	68	16
3	3	13
79	79	12
70	75	6
15	15	7
56	56	7
86	87	5
50	50	17
21	23	1
75	75	12
86	86	13
60	61	7
47	47	16
77	77	15
1	29	1
9	21	3
1	1	15
66	87	2
74	87	2
4	67	6
17	27	2
17	74	2
49	77	5
12	12	17
31	66	2
25	26	6
60	60	9
57	57	10
24	27	1
46	70	1
67	68	3
71	71	11
77	80	1
58	62	1
50	52	7
55	55	9
84	84	11
24	25	3
5	7	2
59	74	2
23	23	9
61	61	4
48	74	6
33	34	3
78	79	7
19	27	3
81	81	13
82	83	7
12	13	10
75	89	1
4	4	8
46	46	17
31	32	2
26	55	4
47	48	1
70	70	8
6	18	6
52	55	2
85	87	5
82	82	13
13	20	3
50	53	2
31	56	1
79	83	3
71	81	2
29	29	6
25	25	11
17	53	4
23	24	3
13	19	2
74	75	6
67	72	3
35	35	2
50	51	3
55	56	3
66	77	1
12	21	4
3	87	3
76	76	6
22	22	9
55	78	3
76	77	2
57	70	4
62	64	2
53	53	13
46	48	3
28	89	1
5	17	1
3	68	2
84	86	3
26	49	1
58	58	6
9	28	1
63	66	1
17	84	1
7	26	2
64	66	7
16	17	1
51	77	3
22	33	1
48	49	2
58	60	1
77	87	1
17	24	1
78	82	3
88	88	6
7	33	2
53	54	3
70	74	1
66	67	3
19	89	3
57	68	1
21	75	1
63	63	4
64	77	3
6	53	2
0	1	1
51	52	3
79	84	2
49	66	2
55	57	3
74	81	1
14	18	5
21	24	1
22	24	2
16	26	2
20	21	1
46	58	3
59	62	3
8	9	2
11	21	3
68	70	1
17	80	4
24	24	3
83	84	1
48	81	1
12	22	1
18	24	3
62	63	3
57	58	1
18	18	2
17	54	3
11	14	1
22	23	1
26	52	1
73	73	3
80	85	2
19	20	3
47	66	4
78	78	3
55	58	2
11	11	4
68	73	3
85	85	7
4	81	1
9	26	1
70	89	3
65	66	3
8	22	1
75	76	2
71	75	1
14	15	1
54	75	2
5	31	2
58	84	1
74	74	2
76	81	1
77	78	4
12	14	2
15	28	1
15	31	1
19	21	2
62	74	1
16	16	1
59	61	2
50	76	1
6	26	1
48	52	1
60	74	1
72	75	1
64	78	1
80	81	1
6	6	1
48	83	1
5	6	1
8	26	1
4	5	1
49	52	1
26	27	1
12	19	1
66	84	1
89	90	1
10	17	1
11	18	1
49	55	1
