50	50	1
238	238	5
202	202	10
164	164	6
118	118	4
221	221	3
208	209	3
215	215	3
163	163	19
204	204	11
187	188	5
114	115	9
34	34	6
178	178	8
151	151	14
91	157	3
155	155	19
212	213	5
228	228	9
57	57	7
71	72	1
6	6	8
104	104	4
112	112	7
35	35	10
44	44	1
95	96	5
170	177	2
40	42	3
198	198	8
118	191	3
203	203	4
66	67	2
184	185	2
54	54	5
64	65	5
210	247	1
223	223	3
84	84	5
100	100	4
93	110	3
68	68	14
107	107	6
117	117	13
23	23	6
38	38	11
116	116	4
158	166	2
15	222	3
203	204	4
220	220	9
153	153	15
2	2	5
201	201	12
1	1	6
173	173	4
26	26	5
5	5	4
200	200	6
113	114	3
39	39	6
45	45	5
48	51	7
225	225	3
32	53	2
152	152	5
222	225	6
4	13	3
91	91	4
113	113	9
79	81	1
145	145	5
62	62	10
53	54	1
235	235	9
31	32	6
173	174	2
186	186	6
16	73	1
11	11	5
66	66	4
24	24	5
172	186	3
213	214	3
31	31	2
191	191	10
82	105	1
32	32	8
216	217	8
209	209	3
29	29	1
101	102	2
231	231	15
214	215	3
43	43	4
81	81	6
115	115	5
33	218	1
193	193	8
59	74	5
187	187	11
169	173	3
10	240	2
93	94	1
95	95	4
47	69	2
73	77	1
218	218	2
27	28	2
53	53	2
181	181	5
15	15	5
75	75	5
162	162	5
47	48	4
82	82	5
183	184	4
164	165	3
208	208	4
46	47	3
206	207	3
169	169	4
64	64	4
190	191	3
28	35	1
4	5	2
42	43	1
30	31	3
16	16	10
245	246	3
10	12	1
72	73	3
144	144	2
180	180	7
39	40	1
158	159	7
28	28	4
114	114	6
229	229	4
207	207	6
75	77	1
10	11	1
97	97	2
210	210	6
58	58	8
156	156	8
76	76	8
97	98	5
201	202	5
152	167	1
144	145	6
228	230	3
94	94	15
154	154	8
49	49	5
93	93	4
4	4	1
27	27	5
30	230	2
238	239	3
237	237	3
88	89	1
176	178	3
79	82	4
171	171	8
59	103	5
176	233	1
22	22	7
190	190	3
49	58	3
59	95	2
25	25	7
224	224	10
205	207	2
5	11	2
183	183	4
83	83	7
170	173	3
12	14	1
160	163	1
23	24	1
1	175	2
239	239	6
241	242	3
68	69	1
105	105	3
47	47	2
61	61	3
147	152	2
188	192	1
245	245	10
60	65	2
167	180	4
6	20	1
106	106	1
167	167	4
249	249	2
164	196	3
102	102	7
166	167	2
184	184	4
72	74	4
89	89	4
46	67	5
169	171	3
242	242	5
41	43	6
35	168	2
40	40	10
205	205	9
40	41	5
227	227	3
59	217	5
14	15	1
157	158	1
55	56	1
9	9	5
32	33	1
37	37	3
59	59	3
165	165	4
17	18	3
2	11	3
200	201	6
85	85	4
3	177	1
179	235	1
177	181	3
80	80	4
233	234	2
70	70	3
197	198	5
162	173	2
194	194	3
30	30	9
43	44	1
240	240	9
168	169	2
100	106	4
46	46	4
63	64	1
215	242	2
197	197	5
239	244	1
71	71	7
41	42	3
88	95	3
34	35	2
212	212	5
56	56	4
19	19	4
51	51	1
107	108	3
150	150	6
175	175	2
226	227	2
206	206	1
52	52	2
21	24	1
234	234	5
55	55	3
149	150	1
8	8	5
77	78	3
157	157	2
119	119	5
7	7	6
215	216	7
199	199	2
44	233	3
108	108	2
110	179	1
26	28	1
14	14	6
189	189	2
176	177	2
168	168	4
149	149	5
169	177	2
3	3	3
165	166	1
33	34	2
186	218	1
160	166	4
74	74	4
10	10	5
161	161	6
36	36	3
211	213	2
172	172	2
184	186	3
111	170	1
195	195	6
150	151	1
235	236	1
73	73	3
36	37	1
241	241	5
65	65	4
103	103	4
97	100	2
194	195	2
208	211	1
63	65	3
18	18	1
169	170	2
182	182	1
177	177	6
55	57	2
46	92	1
175	181	2
99	100	1
187	238	2
189	190	3
108	236	3
79	80	3
94	109	3
87	88	2
3	4	1
47	50	1
157	175	1
113	120	1
236	236	3
81	83	1
36	157	1
214	218	1
167	174	1
185	185	3
31	84	4
107	117	1
96	101	1
33	33	3
56	61	2
170	170	4
48	50	1
222	222	2
181	182	2
99	99	2
92	92	1
169	180	2
222	223	2
199	200	1
178	196	1
92	95	1
35	156	1
16	212	3
184	198	1
175	237	1
164	181	1
63	66	1
13	214	3
156	163	1
74	75	1
75	81	2
160	161	1
187	190	1
26	27	1
246	246	2
147	153	1
88	88	1
109	110	3
204	205	2
213	213	1
217	217	3
244	244	2
154	155	3
69	72	3
41	41	1
76	80	1
50	51	1
108	246	1
51	66	1
180	199	1
230	230	2
62	70	2
48	48	1
108	109	1
221	225	1
37	38	1
19	22	1
87	208	1
1	2	1
31	36	1
5	230	1
85	86	2
60	60	2
62	63	1
183	233	1
223	228	2
69	69	1
20	20	1
165	170	1
193	194	2
113	151	1
215	218	1
211	241	1
109	175	1
84	113	1
237	238	1
7	230	1
38	39	1
243	243	3
83	84	1
159	176	1
179	179	2
90	90	1
56	220	2
111	175	1
111	111	1
109	109	1
45	230	1
10	15	1
230	231	1
57	69	1
98	98	1
161	162	1
67	67	1
7	105	2
72	72	1
72	111	1
166	171	1
216	233	1
81	82	1
182	234	2
54	65	1
5	6	1
87	100	1
110	110	1
176	180	1
176	176	1
232	232	1
