150	150	35
6	7	7
114	115	3
184	184	40
50	50	23
130	130	21
134	134	30
185	185	27
43	51	3
171	171	48
10	10	38
5	5	34
69	78	1
181	182	23
194	195	8
192	193	10
44	53	6
2	4	1
36	36	20
9	9	22
139	164	2
123	123	30
53	56	4
135	135	28
139	139	10
38	39	7
93	94	4
71	73	3
191	191	16
103	103	4
41	41	24
7	8	7
131	132	6
82	85	1
48	48	27
120	155	6
154	154	28
170	172	7
181	181	22
6	30	7
4	4	33
15	15	24
138	138	18
191	194	2
123	124	22
142	142	36
78	78	11
177	177	34
186	187	13
193	193	37
44	44	27
115	115	10
10	11	14
187	189	8
156	158	18
189	194	2
197	197	24
32	32	25
45	45	32
147	147	21
60	60	5
190	193	4
187	188	21
72	72	8
54	54	30
40	83	7
9	10	18
145	155	2
79	81	4
104	104	15
187	187	49
26	27	8
147	184	2
192	192	16
155	156	6
183	183	34
27	27	22
145	145	20
194	194	51
166	167	10
127	127	38
30	31	11
23	24	11
146	146	14
69	69	23
150	151	14
76	76	12
160	160	47
98	98	15
123	126	4
114	114	25
2	25	2
175	175	15
56	56	18
186	186	41
140	141	7
115	117	3
26	26	26
113	114	9
166	166	17
61	77	1
55	55	37
177	186	2
170	170	42
144	168	1
32	88	2
68	68	35
7	22	6
141	141	31
100	115	2
42	42	37
116	116	12
3	4	16
183	184	8
0	11	3
177	193	8
111	111	40
81	85	1
146	147	8
18	19	6
149	149	33
175	176	11
115	144	4
46	46	35
136	136	24
144	145	2
174	177	3
37	37	20
24	24	17
138	161	2
22	22	12
162	162	14
127	141	1
13	13	25
102	102	38
133	134	19
19	19	10
70	117	3
44	45	13
63	74	3
47	47	28
52	119	4
59	62	2
137	137	19
163	163	18
189	197	1
52	52	29
77	77	5
80	82	4
189	192	2
28	34	1
33	34	7
43	50	3
152	152	16
177	187	1
131	131	13
178	178	19
16	46	2
168	168	27
130	132	6
84	84	3
110	110	29
172	172	27
7	7	17
182	182	32
173	176	5
107	108	12
129	130	9
160	161	16
21	21	13
54	55	13
119	119	37
79	79	22
111	112	15
57	58	10
49	49	29
184	187	1
176	176	22
144	144	11
16	16	19
5	30	1
14	15	11
104	106	8
109	109	8
58	59	5
8	33	1
76	77	6
164	164	26
66	109	3
124	126	5
64	65	8
129	129	17
33	36	2
14	14	25
23	23	31
88	89	5
160	162	2
176	177	21
81	117	3
112	113	17
82	84	4
12	13	9
9	13	4
190	191	14
87	87	26
16	18	4
11	12	10
105	105	10
82	83	7
22	28	1
35	35	14
108	108	12
67	67	6
173	173	16
133	166	5
138	148	4
156	156	20
110	111	8
157	158	6
196	196	29
159	159	25
142	144	2
179	179	12
100	111	2
21	23	5
193	194	24
17	18	13
134	140	5
128	128	28
148	171	6
188	188	36
185	186	14
134	147	2
189	189	25
84	85	5
9	23	2
57	57	20
51	51	36
63	69	2
30	30	26
117	117	18
23	25	3
172	173	11
188	189	41
19	20	3
77	87	3
106	106	14
120	120	24
35	57	1
56	57	4
20	22	3
101	101	16
34	34	24
45	46	10
43	44	3
74	75	3
12	12	23
80	80	5
124	124	31
138	145	5
64	84	2
99	102	2
102	108	2
25	25	34
190	190	38
28	28	23
34	37	3
122	122	18
113	113	30
170	171	21
10	14	8
89	90	10
133	133	24
43	43	21
86	86	7
119	120	11
148	149	18
62	63	9
3	3	17
86	87	8
10	113	2
133	136	4
7	17	3
65	65	7
96	97	6
112	112	14
20	191	3
51	58	4
2	2	18
115	116	7
177	178	3
8	22	3
139	140	9
44	49	1
1	2	4
120	121	16
46	52	2
47	48	11
143	143	18
71	71	7
162	163	8
195	196	8
8	16	2
71	83	3
154	155	8
195	195	26
155	177	1
82	82	16
118	118	10
64	72	1
167	168	9
96	96	11
117	118	8
68	117	2
1	1	7
157	157	12
119	121	1
163	194	3
20	20	17
5	18	2
101	102	15
57	85	3
148	148	18
27	28	6
163	165	12
73	77	3
151	151	21
157	172	1
9	12	2
5	26	4
183	185	2
186	189	4
189	193	1
180	180	13
15	22	1
69	120	4
64	64	5
81	81	14
125	127	5
135	136	12
145	146	4
34	36	11
20	23	2
165	165	7
185	190	3
150	155	2
147	148	15
173	174	8
53	53	14
99	99	16
148	150	7
42	43	4
63	63	3
40	40	13
23	45	1
125	126	6
114	129	1
127	128	10
24	25	8
174	174	16
32	54	1
12	49	2
93	93	5
123	125	11
50	51	14
58	80	5
66	69	5
17	17	9
58	58	15
52	53	19
102	111	5
161	162	11
23	30	4
160	185	5
39	40	5
39	39	18
134	165	1
108	109	8
146	181	4
133	137	1
189	190	11
29	29	14
116	117	9
89	89	6
11	11	29
124	125	11
175	182	1
119	144	4
31	32	9
18	18	10
102	106	2
135	148	2
149	164	4
20	24	3
158	183	2
36	42	2
27	45	2
134	148	1
0	2	4
159	173	3
6	6	12
158	184	6
169	169	30
76	84	2
153	154	13
109	111	3
134	175	3
125	125	10
33	39	4
30	32	4
140	140	29
180	192	2
176	178	1
59	59	9
141	170	2
67	68	13
33	110	2
105	114	2
174	178	4
107	107	20
184	185	13
136	137	9
133	159	2
70	71	6
174	176	2
17	20	1
126	126	11
119	143	1
83	115	1
37	44	4
140	161	2
10	12	7
150	163	4
132	135	2
55	57	3
140	159	2
37	38	2
130	133	2
36	37	18
84	116	2
120	144	2
153	153	14
67	69	2
171	191	4
53	54	4
167	167	13
75	76	1
122	128	2
180	181	7
138	140	2
8	45	1
147	181	1
113	116	1
4	24	2
61	61	1
126	127	3
70	83	2
161	161	20
73	78	5
150	167	1
155	163	2
163	164	14
135	137	6
149	150	3
128	129	8
32	36	4
159	174	2
35	36	3
88	88	8
74	74	2
102	104	3
38	38	32
69	115	1
1	3	3
140	157	3
76	79	1
33	33	15
95	95	7
151	152	17
104	107	1
132	132	21
134	138	3
134	137	4
147	157	1
18	20	1
17	19	5
125	130	1
49	50	5
65	66	1
158	182	4
49	57	5
71	113	3
129	169	3
51	80	3
176	194	2
103	104	10
193	196	3
133	135	3
121	121	20
196	197	12
134	173	1
110	115	1
70	70	18
31	31	18
117	149	1
47	157	1
95	96	5
68	77	3
48	49	2
191	192	4
190	192	4
114	119	2
155	155	8
9	14	2
85	85	11
34	35	10
97	97	15
120	125	4
166	168	1
46	47	5
7	36	2
8	8	10
3	24	1
72	77	1
68	115	2
100	100	18
139	148	1
119	151	1
134	174	2
8	32	4
50	52	1
8	9	1
180	188	3
148	177	1
149	163	3
122	138	2
40	41	6
15	16	12
94	94	9
129	167	1
149	171	3
97	98	6
179	180	8
159	160	12
41	43	2
165	167	1
76	78	1
115	143	7
137	148	1
152	153	3
104	105	6
13	14	10
103	116	2
51	52	7
178	182	3
169	170	8
152	170	1
122	179	1
0	1	7
121	179	3
26	28	2
64	74	1
101	112	3
162	166	2
47	49	5
132	133	4
115	124	2
4	18	3
62	62	6
150	168	3
186	188	4
6	31	1
69	70	5
79	80	3
5	31	4
122	125	2
72	74	1
8	23	3
70	115	2
158	158	6
135	141	2
105	106	4
75	75	9
66	66	5
146	168	1
10	13	8
60	73	2
55	56	6
122	126	1
138	142	1
149	194	3
127	129	8
134	135	6
141	142	8
121	122	7
143	144	5
151	156	1
9	16	3
98	99	3
28	29	8
59	61	10
75	77	1
56	58	3
141	169	3
122	123	2
127	184	1
171	190	2
61	62	6
112	123	2
4	5	4
137	138	2
119	153	5
168	169	4
136	142	4
83	83	3
16	17	7
148	174	1
31	38	1
94	100	3
100	127	1
25	26	3
156	178	7
2	3	14
64	68	1
115	119	2
121	136	3
170	177	1
138	149	1
32	46	2
0	0	5
167	169	5
15	46	1
83	84	3
90	90	6
64	67	3
115	127	3
122	160	1
160	173	1
103	106	2
139	159	1
172	193	5
102	110	1
147	182	1
37	40	1
165	166	12
169	171	6
156	161	1
5	33	1
139	146	1
59	78	1
97	101	6
181	184	6
133	138	1
129	166	1
171	174	3
99	101	3
0	24	5
150	161	1
110	114	2
24	28	1
119	155	1
44	52	1
20	21	3
122	178	1
184	188	3
122	149	2
124	150	3
168	171	1
19	21	3
59	60	2
41	42	7
161	167	1
17	150	1
148	157	1
142	145	3
45	56	4
171	172	7
114	145	1
163	166	3
195	197	3
24	112	3
132	142	1
184	189	2
13	16	2
179	187	4
15	193	1
36	38	1
118	119	5
180	193	2
140	142	1
47	191	3
67	76	1
121	125	1
17	30	1
178	179	9
49	56	2
177	192	1
21	22	6
77	78	2
151	171	2
28	30	2
116	118	3
59	63	2
142	143	3
71	72	5
161	164	3
181	183	2
16	19	1
112	115	3
126	146	3
102	103	3
58	60	1
102	112	2
160	172	5
68	116	2
161	173	4
150	164	1
176	184	1
188	190	3
119	154	2
16	20	3
146	148	1
150	170	1
138	139	1
49	52	1
157	197	4
157	181	1
5	27	1
60	62	1
176	183	3
24	111	1
120	143	3
179	181	3
81	82	4
78	80	1
100	194	1
182	183	6
174	175	8
158	159	2
153	155	3
151	169	5
130	131	4
8	24	1
1	57	2
122	127	1
22	23	4
100	101	7
101	111	3
123	127	1
177	185	1
126	128	3
180	185	1
53	55	6
49	53	1
124	130	1
162	172	1
74	76	2
67	109	1
99	100	4
64	77	2
132	134	1
73	74	1
122	124	2
155	162	3
34	40	2
68	69	2
24	29	2
188	193	1
10	108	1
100	141	1
36	39	3
164	165	2
83	118	1
66	116	3
37	150	1
113	115	3
73	73	3
161	165	1
161	163	5
123	189	2
61	71	4
21	26	4
174	182	2
100	193	1
68	109	2
177	183	1
124	138	1
10	110	3
81	89	1
66	67	2
63	66	1
38	45	1
40	42	3
117	124	1
65	84	1
94	95	3
67	111	1
4	16	1
139	142	1
141	177	1
143	145	2
172	184	4
113	119	2
23	44	2
106	107	2
158	177	2
14	194	1
159	167	2
116	124	2
10	111	1
173	177	1
148	161	1
30	188	1
9	20	1
5	7	2
130	146	1
35	40	1
111	123	1
36	54	2
146	180	1
128	141	1
180	191	2
25	27	2
8	44	2
25	32	2
72	86	2
11	124	1
180	182	1
99	133	1
42	47	1
74	77	2
168	170	3
122	141	1
146	169	1
5	16	1
103	115	1
161	174	2
94	97	1
72	73	2
172	174	1
158	176	1
172	183	2
38	44	1
18	22	2
125	195	1
79	82	2
100	187	3
19	46	1
157	162	1
123	196	1
122	136	2
54	56	1
58	73	2
102	115	2
80	81	1
147	159	1
120	122	1
65	77	1
172	175	1
176	181	1
124	127	1
111	128	2
8	30	1
172	192	3
159	172	1
23	101	1
189	191	2
163	168	1
192	194	1
175	177	1
93	97	1
153	158	2
66	72	4
171	177	1
152	168	2
49	113	1
126	130	2
162	164	1
116	119	3
136	169	1
59	73	2
32	33	4
67	116	2
109	110	1
33	35	2
18	23	4
111	114	1
95	103	2
58	62	2
129	141	1
160	166	1
158	160	1
5	36	1
67	77	1
121	178	1
14	114	1
44	50	1
10	93	2
5	6	5
125	131	1
82	116	1
113	118	3
150	156	1
112	161	1
26	160	1
149	152	2
171	176	1
87	88	1
107	117	1
127	130	2
47	52	1
99	188	1
149	195	1
41	44	1
101	114	1
31	46	2
34	39	1
169	177	1
102	188	1
148	167	1
85	86	1
44	51	1
8	38	2
140	147	1
10	194	1
57	72	1
142	146	1
160	168	1
15	47	1
17	44	1
23	46	3
152	155	1
102	127	1
40	54	1
6	26	1
193	195	1
17	46	1
114	142	1
143	169	1
102	105	1
41	56	1
66	117	1
44	54	1
178	180	2
175	178	1
94	103	1
46	49	1
70	81	1
33	37	1
8	19	1
137	145	2
145	173	1
64	86	1
9	110	1
29	30	1
84	117	1
38	53	1
50	57	1
53	156	1
151	170	2
148	165	1
105	107	1
8	37	1
7	19	1
49	71	1
36	87	1
122	137	1
123	137	1
66	88	1
14	113	1
60	61	1
165	172	1
147	160	1
69	119	1
95	97	1
0	8	1
190	197	1
185	189	1
161	166	1
139	141	1
137	139	1
129	160	1
85	87	1
164	166	1
156	157	1
145	181	1
