175	175	9
236	237	4
71	102	1
60	96	1
205	206	10
122	123	7
51	51	8
48	48	13
189	213	2
56	85	3
26	70	3
71	71	17
208	208	11
42	43	2
224	224	12
22	22	6
149	149	12
38	43	3
158	158	12
165	165	11
103	104	5
156	156	6
147	164	2
1	1	13
137	138	5
129	129	14
217	217	9
15	16	9
74	74	15
85	85	14
102	102	15
89	102	3
207	229	1
16	76	3
59	79	2
37	49	2
40	45	3
9	9	14
128	136	5
198	198	10
83	84	3
38	38	11
84	84	21
67	68	2
192	192	9
63	99	3
11	17	3
145	146	12
11	15	4
153	153	7
164	164	4
13	51	4
4	4	8
56	56	13
28	61	1
17	17	10
154	154	20
192	197	3
205	205	13
44	44	19
48	75	3
193	194	12
209	242	7
14	15	12
187	188	2
70	85	3
228	228	2
213	213	14
103	103	3
220	224	2
99	99	13
3	3	10
37	53	11
37	85	3
226	226	11
187	203	2
29	97	1
199	200	10
42	51	4
36	36	4
81	81	11
58	71	7
59	60	5
148	214	1
172	179	5
109	109	18
18	18	33
143	144	3
35	35	14
2	79	7
23	23	17
210	210	12
135	135	14
181	182	3
140	140	10
165	168	1
40	76	5
98	99	14
0	38	3
52	52	17
173	173	8
235	235	14
83	83	12
143	143	12
45	62	2
52	53	2
129	147	3
146	166	2
12	30	1
126	142	5
38	55	3
12	12	14
131	132	6
200	200	8
240	240	11
66	66	17
181	216	3
219	219	21
189	189	6
64	66	1
42	42	22
167	168	13
14	66	5
55	55	14
83	167	1
32	34	2
11	11	15
177	178	5
202	219	1
38	69	3
24	69	1
70	73	3
131	131	6
48	49	7
174	174	13
64	64	26
161	170	1
218	226	2
15	15	11
194	205	3
1	6	3
33	33	18
6	17	8
66	67	9
162	162	8
162	163	5
158	170	3
201	201	14
241	241	5
217	218	14
145	145	13
44	227	4
77	77	8
37	38	2
197	197	4
75	75	19
61	86	7
67	67	10
242	242	15
211	212	3
119	121	2
60	60	18
34	35	3
21	22	1
214	216	6
49	50	7
80	82	3
11	42	6
135	136	7
225	225	15
0	37	4
40	41	8
129	130	4
80	80	9
39	45	5
5	5	18
216	218	4
68	68	6
37	69	1
120	143	5
238	238	8
114	115	6
107	127	2
133	139	1
233	233	7
220	220	8
227	227	10
114	114	12
0	0	3
44	210	4
79	79	23
53	53	10
128	128	10
77	79	4
214	214	14
50	50	16
37	37	3
211	211	12
0	36	5
3	6	5
62	62	20
126	126	5
136	136	8
32	55	1
223	224	5
130	130	14
203	219	1
153	185	2
61	109	2
180	180	3
1	3	9
150	183	7
228	229	3
171	172	10
97	103	4
192	193	5
178	179	4
159	159	9
104	104	17
30	195	4
203	203	13
13	14	4
206	206	14
139	139	8
159	160	4
109	110	4
44	67	5
16	17	1
72	72	11
45	45	13
20	69	4
65	65	26
7	8	5
200	210	2
81	82	4
82	83	8
176	179	6
40	40	9
64	65	12
43	43	12
180	181	7
118	118	12
25	25	13
233	242	1
34	59	2
56	57	7
36	37	6
172	189	5
4	5	5
169	169	13
30	30	23
40	69	6
57	57	12
10	10	20
177	188	1
117	118	9
70	70	9
14	21	2
117	117	9
112	113	3
150	172	5
39	44	1
46	46	13
119	119	11
223	223	11
105	105	10
145	147	3
34	34	16
44	66	4
69	69	9
66	68	9
106	106	9
221	221	11
100	134	2
130	140	4
51	53	5
13	31	4
19	19	15
73	75	7
56	86	4
12	13	4
42	62	10
63	63	13
138	138	9
108	108	4
86	110	1
13	13	7
176	176	10
123	123	20
59	59	8
150	161	2
192	196	2
30	31	3
175	176	5
42	55	3
76	76	13
101	101	13
25	42	2
23	41	3
27	98	1
100	100	6
52	55	3
196	197	4
95	106	4
234	234	8
43	242	4
19	202	2
35	57	5
42	45	3
166	166	5
24	24	18
149	238	4
34	49	7
184	184	4
212	212	15
144	147	7
125	126	5
65	66	9
10	25	5
207	223	2
191	191	5
120	121	3
199	199	8
13	15	4
29	31	2
113	113	4
136	141	3
134	134	5
8	8	19
13	50	3
33	35	3
61	72	1
183	194	7
86	112	1
163	163	10
127	127	9
9	26	3
186	187	7
54	54	14
222	223	7
179	180	7
96	104	1
196	196	9
144	145	3
233	235	1
146	147	1
235	236	4
18	22	5
24	25	3
186	186	11
231	232	4
145	171	3
185	185	8
133	137	3
32	99	4
237	237	5
0	18	3
232	232	5
188	211	5
143	147	7
187	187	11
31	31	13
201	207	6
14	17	2
30	77	2
161	161	5
49	49	7
50	51	9
179	179	12
61	61	11
20	21	3
39	39	12
136	137	3
116	116	6
10	232	3
160	160	5
60	81	4
31	33	3
132	132	3
79	80	10
21	21	8
62	67	4
122	122	7
141	168	1
188	188	8
17	49	2
152	153	2
95	95	3
142	142	5
147	147	5
58	58	3
109	122	3
222	224	6
1	4	5
31	34	3
36	76	2
25	38	1
47	47	15
100	119	3
222	222	6
47	191	3
4	31	7
199	207	3
180	204	1
88	88	7
11	227	2
98	100	3
80	104	4
89	123	1
15	20	2
123	124	1
225	227	6
5	6	5
2	3	2
158	172	2
202	202	11
181	183	1
210	211	1
182	182	7
91	91	7
6	6	11
167	167	3
45	46	3
230	230	2
5	8	2
239	239	5
20	20	15
27	32	2
51	81	8
150	150	2
81	83	4
34	76	1
144	144	7
183	197	3
73	73	7
173	180	4
78	78	8
11	12	11
135	168	4
54	55	3
115	115	4
101	210	4
148	149	10
229	230	7
98	102	2
29	114	3
113	134	3
195	195	9
57	72	5
229	229	10
166	168	3
144	146	2
170	171	10
123	186	1
24	47	6
120	120	5
177	177	7
193	193	3
172	172	4
67	71	1
26	26	10
212	213	3
2	2	13
233	234	4
39	48	3
137	137	4
19	20	5
4	6	3
151	151	7
63	72	1
204	205	7
9	39	1
157	157	5
82	84	6
4	15	9
51	52	4
100	123	1
113	237	3
207	207	2
6	31	1
39	81	2
210	216	1
134	137	1
141	165	1
15	19	1
194	194	6
234	237	2
120	185	1
68	76	4
15	17	2
58	60	10
8	30	1
151	173	2
34	36	4
21	41	3
122	124	3
5	25	3
3	7	4
28	28	17
160	161	5
137	140	3
116	117	8
28	60	4
196	227	3
171	171	7
69	70	4
121	121	9
47	102	3
6	11	4
14	14	10
7	17	5
115	123	1
204	206	3
38	45	1
13	16	5
212	217	3
200	207	5
216	216	8
40	53	6
27	28	4
117	226	3
58	76	3
16	49	2
147	163	3
141	141	5
77	78	3
16	33	2
27	27	19
226	227	6
34	50	2
39	40	5
21	68	4
202	203	2
37	74	5
219	220	4
67	69	3
137	139	1
198	226	1
202	227	2
234	235	1
58	59	7
82	82	9
185	203	4
50	74	5
173	174	4
16	78	3
158	171	4
177	186	4
44	65	1
207	224	4
156	157	6
29	29	18
86	86	9
35	64	3
65	67	4
82	97	1
195	196	2
38	70	2
13	17	4
154	155	11
35	36	3
194	198	1
137	141	3
192	230	2
16	16	9
37	80	1
49	80	2
183	183	10
16	55	2
21	23	2
139	140	4
151	182	2
5	80	1
11	31	2
176	220	2
100	121	2
155	155	5
46	55	1
137	166	2
63	79	1
25	32	4
110	138	1
125	125	4
216	217	6
158	159	1
42	85	1
4	7	2
36	54	2
178	178	7
33	53	4
141	169	3
236	236	7
172	191	2
30	48	1
160	162	3
168	168	6
20	225	2
149	191	3
3	4	4
14	54	3
126	127	1
207	230	4
73	74	4
102	119	2
122	127	3
18	21	3
14	24	2
14	16	1
36	71	2
197	200	2
209	209	5
32	32	10
107	126	2
208	213	1
45	232	5
47	69	1
21	61	3
95	97	1
100	191	3
140	168	3
144	190	2
73	88	2
180	183	2
208	214	2
5	16	1
26	27	7
147	162	2
46	47	2
42	63	2
43	44	3
47	70	2
237	238	5
108	109	2
107	108	3
174	175	2
137	142	1
111	111	2
7	7	2
76	77	1
10	231	2
76	78	1
6	187	4
71	72	3
12	20	2
234	238	2
168	170	2
19	224	2
1	11	3
4	21	2
2	23	1
21	60	2
6	7	2
81	108	2
99	121	1
187	192	5
19	195	1
16	48	1
170	170	5
9	70	1
163	166	1
201	203	4
160	172	1
184	222	2
96	96	5
35	52	2
46	68	1
22	23	1
81	139	2
141	164	2
103	107	2
10	12	3
218	219	6
188	197	1
114	131	1
14	64	3
220	221	5
181	212	3
12	230	2
197	198	3
29	30	2
41	41	6
99	100	1
231	234	2
42	97	1
3	32	2
191	237	2
58	63	2
98	98	7
47	234	1
24	202	1
11	237	1
182	215	2
29	76	1
228	230	4
30	50	3
95	96	2
140	141	2
84	88	1
51	54	9
29	36	1
36	53	2
14	200	1
149	190	1
200	201	3
37	75	3
74	75	6
218	218	6
106	107	1
10	45	1
112	112	6
190	211	2
14	30	2
122	185	3
57	59	1
56	82	1
4	80	2
31	98	2
23	200	1
0	43	1
153	154	4
85	102	1
21	200	1
19	194	1
224	228	2
176	221	3
140	213	1
83	129	4
15	200	3
23	36	2
5	81	2
56	64	4
191	236	1
154	186	4
38	71	1
130	146	3
146	165	3
2	37	2
217	227	1
1	65	2
173	175	2
125	178	1
3	5	1
122	129	2
70	72	2
108	130	4
96	101	1
123	125	2
97	97	3
18	31	3
231	231	2
18	20	2
49	96	2
38	42	1
115	116	1
198	199	2
123	185	1
43	47	3
28	96	1
141	145	3
107	107	1
67	73	2
60	79	1
124	125	4
24	32	2
162	173	2
28	103	1
114	138	3
150	151	4
14	18	2
168	169	1
56	80	4
40	42	4
46	70	1
148	148	1
111	190	1
201	202	1
26	86	1
46	228	1
220	223	1
124	130	1
205	220	1
33	102	1
5	79	1
155	186	1
101	190	1
128	129	1
121	162	2
238	239	1
210	214	1
158	174	1
46	63	2
128	130	1
5	7	2
113	114	1
30	49	1
156	177	2
28	29	2
5	64	1
183	196	1
146	162	1
149	242	3
53	54	1
215	215	1
121	122	3
183	185	1
238	240	2
123	138	1
62	63	2
232	238	1
33	50	1
33	57	1
50	60	1
22	35	5
31	32	2
70	71	1
118	134	2
61	62	1
67	103	2
37	59	1
174	180	1
161	173	1
187	209	2
22	199	1
48	65	1
135	138	1
18	195	3
22	68	2
26	47	1
195	213	2
172	237	1
52	59	1
135	148	1
16	30	4
215	224	1
199	208	1
31	41	1
24	56	1
17	30	2
57	58	1
11	46	1
56	79	1
197	231	1
220	222	1
63	64	1
174	177	1
104	107	1
22	76	1
104	105	3
196	204	1
53	60	1
62	70	1
123	130	1
81	216	1
124	185	1
7	30	1
214	215	1
190	191	2
13	66	1
176	194	1
61	65	2
152	188	2
175	180	2
56	58	1
152	196	1
92	106	1
127	185	1
133	133	3
18	19	2
41	229	2
35	51	1
171	191	2
204	207	1
232	233	1
105	131	1
124	124	1
38	39	3
119	131	1
190	215	1
28	109	1
83	95	1
21	29	1
90	100	1
237	240	1
29	50	1
32	35	1
230	232	1
159	171	1
39	54	2
160	168	1
173	192	1
45	230	1
19	43	2
33	52	1
236	239	1
90	116	1
20	22	1
167	169	1
202	228	2
209	230	1
126	140	1
55	86	1
15	31	1
30	78	1
8	9	2
64	72	1
193	198	1
176	215	2
83	85	1
8	18	1
113	147	1
38	102	1
147	237	1
104	132	1
89	106	1
17	77	1
58	88	1
146	146	1
159	172	1
41	55	1
130	183	1
88	89	1
