102	102	15
173	173	8
150	150	3
15	15	20
241	242	2
126	162	1
43	43	27
64	65	19
219	219	13
129	129	10
86	86	14
73	73	11
110	110	4
140	140	7
68	68	15
53	58	3
58	58	5
98	101	3
221	221	6
80	80	12
30	30	10
109	109	7
155	177	3
43	44	8
157	157	14
102	103	14
1	2	3
47	47	17
79	79	18
44	44	8
221	223	2
53	53	20
52	52	12
142	142	12
11	24	4
7	15	6
209	209	6
176	189	3
29	30	5
135	135	13
202	202	10
65	65	11
176	209	4
186	187	3
241	241	5
35	43	1
182	183	3
76	76	16
142	143	4
60	60	12
37	38	8
20	20	12
109	130	3
19	38	4
226	226	6
45	45	8
196	196	20
32	32	15
205	205	1
67	67	9
1	1	15
194	196	8
144	146	4
27	46	2
6	6	5
74	74	11
226	227	12
179	191	2
75	75	16
66	66	9
204	204	14
203	230	4
79	80	12
170	170	10
107	108	7
204	206	7
137	137	13
187	192	1
167	167	8
65	203	5
206	206	9
234	234	6
150	151	5
124	124	14
16	16	15
27	27	14
19	19	10
68	79	5
14	14	8
210	210	13
33	33	13
215	216	5
218	218	13
73	74	4
120	135	3
9	10	7
190	190	7
127	127	8
152	152	1
96	96	9
140	142	9
183	198	1
51	52	11
42	42	12
82	82	16
183	184	1
192	192	6
0	0	10
0	1	9
120	120	9
199	201	1
195	196	9
180	180	19
13	15	2
56	57	5
160	170	3
161	161	7
62	62	13
39	39	17
128	128	11
36	43	1
143	143	12
172	174	2
72	72	16
55	56	5
99	100	7
233	233	4
165	178	1
212	212	5
115	118	2
66	217	5
134	134	7
231	231	7
25	26	2
50	50	11
106	109	5
10	10	10
101	101	21
228	230	5
168	168	8
14	18	2
106	106	14
199	199	6
98	98	10
13	13	23
69	225	3
240	240	13
169	171	3
66	79	5
23	50	5
162	162	8
49	49	19
132	166	3
79	84	4
35	35	8
18	18	17
35	36	6
7	9	2
24	24	6
136	136	14
36	37	3
88	88	1
145	146	6
167	171	5
213	217	1
175	178	2
28	29	2
12	62	7
97	97	10
22	22	3
57	57	17
81	81	18
121	121	10
141	141	7
145	145	2
61	61	24
2	2	9
88	113	4
136	137	3
158	160	3
182	185	2
168	169	6
83	83	21
146	146	7
215	215	4
48	48	17
240	242	2
200	206	1
59	60	9
39	44	4
239	241	2
129	148	2
153	158	4
21	22	10
224	224	4
231	232	1
44	45	6
44	53	3
20	39	5
68	221	4
54	54	13
217	217	5
4	204	6
97	101	1
41	41	6
159	159	4
138	138	15
193	193	8
212	217	3
15	16	14
160	191	1
214	214	10
34	34	12
68	80	9
220	220	5
69	69	21
105	106	3
188	188	2
20	24	3
17	17	12
64	79	6
183	183	4
123	123	4
116	116	11
0	27	2
169	170	5
107	115	5
192	225	8
120	179	2
138	139	4
104	105	2
36	36	6
239	239	3
32	76	1
192	226	1
122	122	7
151	151	4
128	129	7
124	126	4
23	23	13
20	46	1
227	227	4
40	193	3
54	55	10
6	7	9
40	42	4
230	231	1
21	21	5
38	38	7
230	230	11
25	25	16
105	113	2
223	223	7
99	99	9
200	209	1
182	191	2
5	6	8
154	154	4
197	197	8
63	63	5
208	224	2
163	165	9
118	119	6
51	51	15
8	23	5
95	95	5
39	46	2
189	189	6
158	158	12
69	70	5
3	3	9
84	84	10
155	155	1
224	225	5
202	203	4
179	179	9
214	216	4
131	138	1
176	181	5
19	68	5
139	139	8
126	126	10
213	213	2
183	193	3
77	81	1
71	85	4
11	11	9
55	55	9
230	238	2
116	117	2
3	21	1
30	61	1
236	236	15
228	228	10
17	30	7
43	52	5
131	131	1
184	186	3
64	64	16
152	174	2
85	85	13
201	201	2
185	187	1
126	163	2
8	8	7
32	195	1
188	196	2
225	225	10
7	7	22
11	60	3
28	28	3
4	7	4
9	9	9
143	158	4
153	153	4
178	178	8
95	96	1
26	26	10
4	4	8
191	191	5
237	237	14
78	78	3
180	181	1
232	232	14
111	111	6
122	127	3
11	18	2
11	13	1
193	197	2
40	40	7
200	201	1
220	221	4
7	23	5
133	150	2
157	165	1
16	23	7
86	97	2
148	148	7
63	64	7
187	187	5
84	89	1
24	25	3
62	63	2
171	171	11
175	222	1
228	229	1
205	206	8
103	104	3
147	147	4
46	46	9
66	84	4
172	173	4
152	153	6
198	208	1
181	183	2
8	11	2
166	185	1
68	75	4
182	182	2
150	152	2
81	82	3
12	67	2
216	216	8
222	222	4
10	20	1
103	103	9
135	136	1
26	46	4
146	147	1
28	48	2
26	45	1
96	99	1
25	47	2
203	203	9
177	177	5
149	149	7
49	50	5
38	40	1
238	238	14
125	125	4
129	130	2
103	105	8
5	21	2
5	5	6
194	194	3
119	119	6
104	104	3
135	148	2
164	173	2
56	56	6
198	201	2
21	23	1
29	29	7
20	25	5
37	37	12
118	120	5
71	72	5
4	6	1
138	140	5
6	8	2
112	112	3
11	232	1
80	81	3
14	21	1
31	84	2
12	13	2
11	66	1
45	59	1
117	117	4
57	60	3
161	191	4
16	32	1
55	57	5
172	172	4
67	68	2
14	33	2
38	39	3
236	239	2
242	242	9
199	200	5
152	172	1
70	70	8
193	207	3
20	223	3
155	156	1
64	202	2
11	201	1
59	62	1
141	142	2
179	180	1
54	56	2
15	18	1
101	102	1
26	61	2
216	218	3
152	173	11
65	67	1
57	58	9
68	101	1
176	192	2
149	174	2
229	229	4
62	64	4
163	163	10
6	23	5
5	9	2
114	114	4
42	43	1
46	74	3
198	198	2
105	105	6
234	239	2
176	177	1
18	19	5
177	222	1
5	20	2
78	79	2
100	101	3
186	186	7
191	196	1
184	184	4
229	230	4
34	59	3
17	18	3
97	236	4
155	190	4
18	20	2
217	218	2
156	165	2
26	27	2
34	38	4
14	16	3
0	17	1
125	127	2
59	59	8
155	158	1
166	166	11
100	100	11
198	206	2
10	22	3
24	27	2
176	176	9
159	161	6
204	208	1
118	118	3
153	175	2
28	61	3
53	130	1
197	198	3
156	156	5
130	130	4
151	173	2
211	218	7
128	130	3
63	65	4
50	83	4
154	173	1
7	11	4
174	174	9
83	84	3
127	128	3
4	18	2
71	79	1
70	71	1
89	235	2
46	47	7
10	39	4
169	169	1
77	77	4
65	66	4
41	62	7
13	14	4
34	37	5
199	205	2
31	33	4
132	133	1
14	15	4
134	149	2
74	86	3
61	62	4
76	84	2
10	11	6
118	128	6
235	236	1
212	213	2
203	204	3
27	28	3
43	45	2
47	48	3
82	83	7
178	179	1
137	139	1
240	241	1
112	113	2
55	61	2
82	91	3
110	120	2
173	174	1
167	169	1
13	18	2
190	191	5
67	74	1
67	195	2
44	46	1
163	189	2
238	239	2
167	168	4
61	202	1
48	49	3
164	164	7
2	3	2
124	178	2
123	169	2
34	39	2
52	86	1
176	178	2
25	28	3
174	175	4
107	107	5
164	165	2
107	114	2
229	239	1
144	144	7
206	207	2
219	224	1
200	200	7
0	48	1
56	180	3
48	60	3
160	160	7
68	69	4
11	231	3
154	174	2
184	185	1
208	208	2
214	215	3
154	175	1
178	186	2
66	194	4
10	240	1
173	175	1
211	219	2
49	84	3
235	235	6
225	227	2
18	22	2
69	182	1
29	59	1
32	36	3
175	187	1
22	59	3
131	133	1
45	46	2
209	210	2
206	209	2
100	110	2
15	69	1
152	154	1
134	171	2
89	95	5
10	33	1
21	25	1
123	124	3
234	241	1
177	189	2
84	85	1
34	35	1
157	158	3
4	29	1
29	58	1
239	240	2
113	113	1
221	222	3
19	222	1
97	119	1
170	171	1
71	71	6
12	12	5
223	224	1
13	16	1
215	222	2
97	114	1
119	132	1
137	141	3
206	222	2
126	127	1
197	200	1
26	62	3
104	117	1
14	217	1
166	167	1
166	186	1
49	52	1
144	145	3
163	164	1
113	130	1
77	79	2
182	184	1
141	163	1
17	19	2
208	225	2
229	237	1
108	116	1
3	23	2
76	215	3
218	219	2
29	43	1
110	113	1
16	19	1
127	164	2
108	108	4
199	206	1
161	169	1
5	47	1
23	27	2
8	9	1
0	5	2
85	86	4
148	151	1
74	75	1
97	103	1
31	44	1
4	21	2
65	197	2
153	154	4
188	189	2
234	235	2
127	165	2
132	132	4
38	128	1
113	128	1
16	17	1
156	163	2
48	50	1
232	233	1
20	22	3
207	207	2
32	38	1
123	126	1
115	116	4
115	115	1
7	22	1
61	64	1
29	49	1
66	67	1
167	170	2
127	162	1
200	204	1
213	218	2
124	170	2
1	7	1
197	202	1
52	53	1
4	23	2
28	47	2
69	103	1
109	120	1
45	61	2
209	215	1
65	68	3
188	191	1
204	205	1
205	214	1
195	195	2
24	28	2
31	35	2
122	142	2
31	32	2
143	160	1
181	181	2
211	212	1
196	197	1
65	230	2
69	105	1
64	68	1
192	227	1
124	125	2
187	189	1
4	5	4
208	218	1
153	190	1
159	160	1
65	85	1
210	216	1
182	186	1
8	10	1
175	175	3
126	170	1
41	71	2
162	163	2
60	66	1
16	38	1
131	137	1
3	5	2
133	134	2
121	127	1
6	204	1
69	230	2
225	226	1
32	106	1
77	80	1
158	159	1
181	190	1
7	17	2
192	195	1
32	191	1
122	161	1
81	84	1
31	31	2
63	76	1
134	135	1
100	120	1
233	234	1
119	133	1
29	33	1
153	172	1
140	141	1
136	148	1
113	114	2
1	3	1
50	59	1
234	236	1
96	101	1
153	201	1
