47	87	5
90	90	5
71	112	2
1	1	1
119	129	3
79	79	12
112	112	16
93	133	5
36	37	2
113	113	15
102	103	1
111	111	8
80	80	18
13	14	3
132	132	3
129	129	10
3	5	1
122	123	1
11	11	5
133	134	3
28	28	7
45	121	3
43	43	6
130	133	1
6	6	6
26	26	5
83	84	10
11	79	3
21	22	4
48	49	1
125	125	16
115	116	3
56	56	8
18	18	4
73	73	6
83	86	3
50	86	8
118	121	4
121	124	1
15	16	5
56	110	7
75	104	1
61	62	2
18	19	3
126	134	2
57	57	3
121	123	1
55	82	1
32	126	1
104	112	3
95	96	8
119	119	8
44	44	6
126	126	11
84	84	9
33	33	9
92	97	1
114	114	13
52	53	6
76	81	1
103	103	8
63	63	9
116	116	10
13	16	7
95	95	9
104	104	8
45	45	10
44	45	2
25	25	1
131	131	8
27	70	3
63	117	2
50	52	2
74	74	5
109	110	4
102	102	6
66	67	13
118	118	5
107	107	4
0	1	4
47	108	3
8	8	8
1	2	3
117	118	6
119	120	6
50	50	15
70	71	2
49	120	2
122	122	10
94	94	8
30	70	2
50	53	5
55	55	5
19	19	9
84	86	2
94	95	8
100	100	11
4	5	3
16	16	7
57	77	1
106	107	6
67	67	7
15	15	7
99	102	1
91	112	2
38	38	3
82	83	8
35	35	11
91	92	3
31	31	2
49	83	4
92	110	3
54	54	6
69	88	4
105	106	4
57	58	8
127	127	11
123	124	3
59	111	3
105	105	9
82	108	5
78	78	9
60	60	12
120	120	8
69	85	8
110	111	6
52	123	3
76	103	5
59	59	5
30	30	12
82	82	10
71	71	7
17	17	4
16	17	3
9	9	10
7	7	5
64	68	3
107	125	1
53	54	1
64	64	4
106	106	11
24	24	6
62	63	1
51	54	1
97	98	5
61	61	21
63	64	2
23	38	2
76	76	12
43	79	4
22	23	3
132	133	4
57	110	1
89	89	4
77	78	2
23	23	4
70	70	17
92	108	2
81	81	4
0	97	2
25	26	1
92	98	3
115	117	1
81	108	4
27	28	6
96	111	3
79	80	3
101	101	10
93	98	4
108	108	3
6	95	2
68	83	3
88	88	10
52	87	3
117	117	3
18	20	2
12	12	5
130	130	11
75	75	7
34	34	7
128	128	3
13	13	1
44	83	4
127	128	4
52	52	1
98	99	2
125	127	2
63	115	1
21	31	3
53	69	1
66	66	9
130	131	5
62	67	2
61	133	6
36	36	2
54	68	1
42	43	2
22	80	2
96	97	11
134	134	5
33	35	1
3	93	5
13	78	4
46	50	1
80	81	2
72	74	2
69	69	4
49	55	2
126	131	2
124	125	3
49	50	2
3	3	4
120	123	2
71	120	1
14	35	1
53	53	7
124	124	7
50	111	2
43	44	4
78	111	2
65	65	6
74	75	4
14	14	3
133	133	9
64	67	5
68	68	8
85	85	1
72	72	4
32	33	2
110	110	2
101	102	3
58	58	7
99	99	2
98	98	5
58	108	1
47	47	12
56	58	3
119	122	4
71	75	3
92	105	2
65	68	4
13	79	1
48	87	1
108	109	1
115	115	3
99	133	2
121	121	7
36	134	2
71	76	4
68	82	5
10	10	1
131	132	5
21	21	8
56	107	1
82	84	2
5	93	3
52	82	4
97	97	11
134	135	1
135	135	1
49	49	1
32	32	5
92	96	2
70	86	1
47	51	1
116	119	3
0	0	4
105	107	2
93	94	1
27	32	2
85	119	3
113	117	4
99	100	1
83	83	4
104	105	1
52	54	1
75	76	1
15	49	2
19	26	2
82	110	2
31	105	1
85	86	1
103	105	1
60	65	1
19	20	1
5	12	1
50	87	6
52	69	2
112	114	2
52	60	1
95	111	2
107	110	1
96	96	4
114	115	2
71	72	1
32	34	2
20	20	2
21	26	1
7	29	3
62	134	1
33	34	3
106	126	2
5	5	3
116	132	3
29	29	2
117	130	3
51	51	1
38	64	1
9	62	2
62	117	1
55	56	2
84	85	2
78	79	1
90	91	1
84	119	2
30	95	1
87	87	8
89	90	1
92	111	1
82	87	2
56	57	2
49	82	2
48	48	1
77	108	2
14	84	2
21	24	1
72	115	4
77	83	1
62	115	2
112	113	2
20	23	1
109	109	4
53	85	1
86	86	2
56	109	1
4	4	3
95	98	1
24	31	1
55	123	1
76	102	1
44	54	2
55	58	1
1	4	2
121	122	2
61	66	1
88	113	3
45	81	2
105	125	1
27	76	1
7	31	2
78	92	1
16	18	1
86	107	2
55	57	2
108	110	1
37	38	1
22	22	6
67	68	1
73	74	1
87	88	2
50	120	3
75	135	1
106	109	1
60	113	1
49	53	1
93	93	1
37	127	1
22	27	1
119	133	1
29	30	3
51	53	1
0	92	1
77	79	1
120	122	1
53	80	1
6	120	1
93	112	1
17	18	2
63	71	1
75	127	4
123	123	2
78	80	1
92	92	2
50	119	1
102	134	2
48	108	1
73	115	1
8	11	1
34	37	3
86	87	1
77	122	1
92	117	1
60	109	1
2	4	1
50	112	1
116	118	1
77	77	1
54	70	1
97	126	3
71	122	2
130	132	1
126	127	1
119	127	1
62	62	1
129	130	1
58	110	2
6	9	2
110	130	1
65	116	1
26	53	1
9	10	1
72	73	1
0	96	1
17	21	1
2	106	1
23	24	1
26	35	1
46	48	1
44	81	1
104	113	1
56	111	1
20	119	1
70	114	1
37	118	1
8	20	1
37	37	1
52	86	1
46	46	1
