101	107	2
80	97	1
31	32	3
51	51	9
67	67	8
107	107	8
13	13	4
45	46	3
18	126	4
72	72	9
102	103	3
41	41	4
92	92	9
49	50	2
44	44	14
54	54	6
49	49	3
60	60	13
107	119	1
74	75	1
114	116	1
32	32	3
128	128	8
116	116	10
96	96	9
42	42	7
51	52	2
24	24	2
46	47	2
40	42	2
6	7	5
110	110	2
115	115	4
3	3	5
17	18	4
50	50	21
129	129	9
104	104	7
63	63	8
6	6	3
106	107	2
69	69	2
32	38	1
87	87	8
118	118	4
108	108	4
26	26	2
15	15	4
16	17	2
14	15	5
84	89	2
108	132	4
125	125	6
127	128	4
128	129	8
119	130	4
48	55	2
95	95	9
71	71	4
42	111	1
102	108	4
122	123	4
8	9	2
99	116	4
93	93	5
19	19	6
58	58	3
125	126	3
113	113	1
2	2	8
8	8	1
78	82	1
30	30	9
42	96	1
69	70	3
70	70	3
111	111	8
28	28	1
109	111	2
52	53	2
117	117	3
0	0	2
98	100	1
124	125	5
2	3	3
90	90	6
132	132	3
55	55	7
10	20	2
83	91	1
109	109	2
25	110	4
76	76	1
14	14	9
5	5	9
77	77	8
7	7	3
85	85	5
80	81	2
48	48	4
22	63	2
55	74	3
65	65	5
39	39	4
91	91	2
10	10	4
82	82	4
22	23	3
22	66	2
43	43	3
12	12	3
4	4	10
31	31	8
83	84	6
46	46	2
124	124	2
72	101	2
80	80	2
130	130	5
97	97	4
88	88	3
66	77	1
98	98	3
126	128	1
52	52	4
126	126	12
130	131	4
58	59	3
20	24	2
33	33	9
114	114	6
5	6	2
105	113	3
123	123	2
19	21	2
112	122	1
37	40	2
20	67	2
84	84	3
103	103	3
17	17	2
4	34	1
45	45	7
85	86	1
86	86	2
11	11	10
40	40	6
5	13	3
121	121	5
5	24	4
61	61	1
50	54	2
9	10	1
28	46	4
105	121	5
41	104	5
62	63	1
34	34	2
64	64	1
47	48	1
43	121	1
105	125	2
133	133	2
99	100	2
50	104	1
74	74	3
3	32	3
116	130	2
41	42	3
67	68	2
19	114	1
56	56	8
16	16	1
6	15	1
21	22	2
40	41	2
79	79	5
38	39	2
104	128	3
73	101	1
1	5	2
18	23	2
89	90	2
50	51	3
59	62	1
27	27	3
1	31	2
22	22	1
56	72	1
21	63	1
59	59	2
55	72	1
102	102	1
1	12	2
13	14	1
43	96	2
106	106	1
9	9	1
66	66	2
5	23	2
75	101	2
38	55	1
94	94	2
98	99	1
119	120	1
65	67	3
108	112	1
114	117	1
49	54	2
47	47	2
43	44	2
85	100	1
21	67	1
131	131	1
62	62	1
25	105	1
6	122	1
99	118	1
20	20	2
83	92	1
100	100	1
90	91	1
62	66	1
60	61	1
48	87	1
114	124	1
53	53	1
99	99	1
11	12	2
89	89	2
28	29	1
2	20	1
14	33	1
101	101	1
115	116	1
63	110	1
46	50	1
104	117	1
