105	106	5
111	111	4
132	132	15
135	136	6
15	16	3
41	41	11
119	120	8
68	71	2
57	57	6
131	131	18
46	138	4
59	59	7
77	107	2
19	25	1
14	15	2
40	40	6
50	53	5
122	122	10
142	142	5
18	18	5
138	140	5
114	114	2
133	138	3
53	53	7
82	82	7
106	106	9
92	92	9
36	36	9
144	144	6
128	128	14
31	31	8
37	37	14
130	130	7
86	103	1
4	134	3
12	24	3
72	75	3
118	118	7
85	85	4
95	95	2
26	26	6
35	35	12
49	50	2
75	140	1
4	4	5
27	27	9
145	145	3
64	64	6
137	137	3
89	90	2
67	67	4
65	66	3
48	48	10
95	117	1
2	5	3
78	79	7
112	112	7
97	97	9
79	79	5
70	77	2
19	19	4
70	70	5
29	29	14
54	91	3
81	81	10
47	65	1
70	97	2
78	99	3
133	133	6
127	127	7
28	30	1
72	72	5
16	17	5
62	66	5
101	101	17
76	76	4
86	102	1
2	2	12
140	140	14
120	120	3
67	69	3
39	39	10
91	91	4
1	1	7
109	110	12
56	56	17
69	86	4
0	11	5
62	62	6
30	30	7
27	28	3
102	102	13
139	139	12
36	37	14
111	112	4
87	87	9
113	140	3
34	34	6
138	138	10
73	74	4
97	112	3
96	135	3
35	36	3
78	110	1
49	49	8
105	111	3
93	95	1
119	119	4
55	94	1
104	104	3
132	137	3
68	84	1
33	33	2
9	33	4
6	6	9
75	121	5
12	68	2
66	66	8
8	8	6
64	75	2
96	141	1
47	47	5
134	135	5
42	42	17
32	32	9
126	129	2
104	110	4
11	17	1
124	124	7
124	125	6
132	139	1
73	132	5
143	143	13
126	126	13
121	143	3
106	108	3
110	110	8
78	138	3
83	83	10
53	86	3
83	85	3
134	140	6
117	130	1
84	84	5
141	142	5
9	9	12
22	22	7
20	20	1
102	119	3
125	125	7
98	98	7
100	119	1
77	77	2
125	126	2
75	76	6
13	13	4
16	16	11
116	138	5
117	117	12
93	93	7
9	11	1
4	36	2
114	131	1
52	52	6
136	139	2
86	87	3
15	35	1
105	108	1
73	73	5
36	42	5
88	112	3
43	43	1
134	134	12
38	38	7
1	2	2
10	10	4
98	103	2
79	107	2
96	97	2
125	131	1
87	113	1
33	40	4
24	24	8
136	140	1
59	60	4
88	123	2
3	50	2
69	69	7
18	33	3
129	129	10
80	109	3
121	123	2
75	75	3
120	121	2
15	15	3
58	89	1
26	27	1
107	107	14
10	20	2
115	115	4
133	135	1
47	95	1
97	140	1
120	123	2
77	78	3
116	118	4
141	141	16
103	142	2
21	21	5
61	61	10
126	127	1
60	60	6
61	62	2
61	68	1
116	116	2
113	113	7
69	70	2
94	94	1
100	100	5
30	38	2
25	25	1
126	141	2
84	116	2
51	51	1
52	53	1
136	136	9
122	140	2
125	130	3
65	65	15
4	5	5
12	12	2
15	31	2
71	74	1
56	70	2
5	5	4
98	140	1
59	126	5
105	105	6
9	51	1
58	80	4
24	50	2
142	143	2
51	53	2
96	96	4
10	18	2
135	141	2
101	102	1
100	101	4
117	132	3
26	34	1
23	23	6
63	63	2
0	0	6
112	114	1
102	110	3
93	94	2
78	139	2
97	109	2
99	99	8
80	80	2
119	129	2
103	103	3
137	140	3
65	82	3
72	76	2
84	85	3
67	68	1
14	14	3
20	35	4
2	3	3
104	134	2
64	67	2
54	55	1
2	20	4
28	28	4
66	67	2
87	125	2
39	53	2
18	32	1
64	66	2
88	88	3
83	86	2
39	40	1
118	132	4
136	138	2
38	129	1
75	95	3
57	58	5
92	135	5
70	92	2
110	111	4
114	115	2
74	74	7
123	143	1
58	58	4
87	88	2
10	21	2
67	86	1
23	51	1
119	121	1
121	121	4
78	132	4
125	127	2
79	80	4
122	123	5
63	65	4
114	116	4
118	123	1
92	93	6
26	33	1
17	17	6
43	53	1
99	120	1
74	75	2
5	14	2
143	144	2
115	131	2
17	18	1
54	54	2
65	68	1
40	69	6
86	88	1
81	82	4
43	54	1
23	66	1
99	100	1
97	110	1
109	111	2
90	90	2
87	89	1
71	137	1
76	78	1
43	83	2
17	29	2
61	135	1
136	137	5
90	135	2
70	98	2
82	83	1
11	11	3
79	82	4
120	122	7
108	108	4
71	81	2
109	109	2
60	103	1
95	100	2
96	134	1
135	135	5
135	137	1
97	136	1
119	125	2
141	144	1
35	40	2
89	89	1
20	21	2
12	32	1
98	99	1
36	40	2
68	68	2
95	109	1
62	73	3
43	64	3
113	116	2
53	54	1
121	133	1
48	82	1
38	39	1
27	30	1
83	84	1
118	139	4
34	36	1
109	121	1
104	105	2
106	107	1
97	98	3
87	97	1
118	119	2
73	133	2
3	5	2
3	3	1
4	56	1
132	133	1
61	143	1
106	117	2
95	134	3
58	79	1
22	60	1
42	48	1
50	50	1
99	119	1
88	89	1
34	35	1
89	123	1
128	130	1
92	96	1
138	139	1
28	29	1
93	103	2
97	111	1
1	49	1
40	41	1
123	124	1
118	134	1
129	130	1
64	68	1
55	56	2
114	124	1
96	112	1
93	111	1
1	3	1
55	55	1
78	78	1
64	65	1
107	137	1
76	96	1
114	135	1
8	16	1
76	79	1
78	83	1
115	116	1
32	33	1
99	102	1
