6	6	15
199	199	23
190	195	2
228	230	7
208	209	15
75	77	5
86	86	13
72	74	3
160	160	29
76	76	20
84	85	13
170	183	3
48	48	7
233	234	7
185	199	3
31	31	38
204	204	52
24	39	3
77	80	8
206	206	8
225	225	6
175	176	14
78	78	20
240	241	3
104	104	23
218	218	9
73	73	24
84	84	21
165	165	21
203	204	16
39	40	1
182	182	36
111	111	21
67	74	2
4	4	10
157	159	9
26	27	9
113	115	2
240	240	16
163	164	12
158	159	13
69	69	14
213	215	13
167	168	4
202	203	14
114	115	14
151	151	31
184	184	40
242	245	5
113	114	7
187	192	2
0	1	4
233	236	2
234	236	5
32	32	19
15	15	12
23	32	4
174	178	4
193	214	2
30	41	9
168	168	21
153	157	3
62	63	4
39	41	4
216	217	18
99	100	5
203	205	7
107	107	20
81	83	7
86	89	4
116	144	7
98	100	11
213	213	13
194	194	16
5	5	7
209	209	19
153	153	12
116	116	24
93	93	9
212	212	43
47	49	2
65	66	14
228	229	8
52	52	9
151	152	1
183	183	16
234	234	10
87	88	4
211	211	32
162	162	36
176	176	32
115	115	16
90	90	35
62	62	7
220	220	20
118	118	18
108	109	2
60	101	1
184	185	11
195	195	27
44	44	30
156	156	46
33	33	14
14	14	11
168	169	6
144	144	4
76	77	7
216	216	16
193	195	2
38	40	10
169	171	7
165	166	10
236	236	15
203	203	29
237	237	23
188	189	8
2	3	5
68	68	13
8	8	14
118	236	2
17	42	5
229	230	5
201	201	45
245	246	8
186	214	1
194	196	7
177	179	6
79	82	4
91	92	8
49	66	4
219	220	4
242	242	26
19	20	13
192	193	2
231	231	15
94	110	4
218	219	34
154	154	19
21	31	1
35	35	17
116	117	17
150	150	17
49	50	13
106	106	22
15	71	4
26	26	24
28	28	18
103	103	22
221	221	7
231	239	4
161	161	23
241	241	15
81	81	7
37	37	15
51	54	1
178	178	26
23	23	24
7	7	23
198	199	12
238	239	10
22	23	3
61	62	11
59	59	5
47	48	7
235	236	4
10	10	9
61	61	19
192	192	12
196	196	31
71	71	7
110	110	26
38	39	2
88	90	4
77	78	2
112	112	21
85	85	16
40	41	7
200	200	16
205	205	25
12	12	10
117	117	10
208	208	25
95	97	4
191	195	2
89	89	14
169	170	10
179	179	11
226	227	3
114	114	23
213	218	7
9	9	11
220	221	21
65	67	3
97	97	8
94	94	16
82	84	4
209	210	11
39	39	16
208	230	2
11	11	26
221	225	3
172	173	22
54	54	29
32	33	9
198	198	31
206	207	5
28	29	2
236	240	5
238	240	3
226	226	15
119	119	23
229	240	3
185	185	21
241	242	8
191	215	1
171	186	2
207	207	26
170	170	23
181	181	16
199	200	17
173	173	9
172	172	17
179	180	25
239	239	22
238	238	10
74	74	11
43	43	22
51	64	5
42	43	4
20	20	27
247	247	12
120	144	2
75	76	2
109	109	28
177	177	39
215	216	9
36	36	19
111	112	8
25	26	3
31	36	4
32	240	8
27	27	18
91	91	15
19	19	23
236	237	2
175	175	18
35	53	1
197	198	14
34	34	35
77	77	12
50	50	4
191	191	18
162	163	9
70	70	12
5	37	2
96	96	24
187	189	6
166	166	7
207	208	6
167	167	25
159	159	18
68	109	1
177	189	6
15	74	2
64	64	12
211	212	4
235	235	29
190	198	5
51	51	6
54	55	15
77	89	7
189	199	1
237	238	8
171	177	2
163	163	28
169	169	25
193	193	17
40	40	19
80	80	3
160	166	2
218	220	6
40	53	2
173	174	10
108	246	2
30	30	18
155	155	38
145	145	7
214	214	13
157	160	4
222	222	4
2	2	6
9	10	11
171	171	24
177	222	5
16	16	15
159	160	7
58	59	6
232	233	9
171	172	9
229	229	21
72	72	12
224	224	11
114	158	1
65	65	9
153	154	9
188	191	5
12	18	2
55	56	8
190	190	26
3	30	1
196	197	4
41	41	27
244	244	17
107	108	5
7	8	8
55	235	5
217	217	13
69	108	3
210	210	20
106	107	3
181	182	7
84	95	2
180	198	4
104	107	2
202	202	20
115	117	4
157	157	12
189	190	7
3	3	8
200	201	15
57	57	16
84	99	2
166	167	17
118	119	5
102	153	2
113	113	12
71	72	6
93	102	1
118	120	3
88	88	11
18	18	22
70	71	10
46	46	20
180	180	15
246	246	3
221	223	6
3	5	5
197	197	16
55	55	7
11	15	3
234	235	9
195	196	8
22	22	18
211	213	4
244	246	8
58	58	13
108	108	21
63	63	14
1	2	3
99	99	10
119	120	10
204	205	8
92	92	13
13	14	4
93	94	1
19	160	1
96	101	6
171	189	4
158	158	11
241	243	5
101	101	22
88	89	13
5	18	3
104	105	10
232	232	8
152	152	18
218	240	4
193	194	12
68	70	7
160	161	2
159	166	6
82	83	4
60	60	11
186	186	10
170	178	1
192	196	3
24	24	20
10	78	7
243	243	12
80	81	6
52	61	2
1	1	19
174	177	3
55	67	5
33	34	4
46	83	2
10	145	1
182	183	19
189	191	2
14	42	2
11	12	3
57	60	3
100	101	11
119	248	2
20	160	4
226	244	4
215	215	17
46	48	8
190	192	4
190	191	9
185	189	7
1	22	1
227	227	13
178	179	7
175	181	4
194	195	7
31	40	3
146	147	8
81	82	5
92	93	10
188	188	18
146	146	13
31	37	3
51	52	7
20	21	2
82	86	2
79	95	1
14	43	1
100	100	14
7	12	2
68	117	6
53	53	13
144	145	3
194	215	1
182	184	4
74	90	2
101	104	2
35	52	1
101	102	7
52	53	14
149	149	10
21	22	3
95	96	4
98	98	8
43	44	5
79	79	9
50	63	6
210	211	7
85	86	4
80	83	7
144	163	6
221	222	12
153	161	3
47	66	4
177	178	4
158	161	2
26	39	2
164	164	26
103	104	12
174	223	3
100	165	1
248	249	2
212	218	5
166	168	1
151	160	3
171	183	3
173	186	3
110	111	3
151	161	4
95	95	6
113	117	1
88	96	6
58	60	7
242	244	2
67	67	17
22	39	5
38	38	13
20	23	4
68	72	4
187	187	4
158	160	7
161	162	1
114	116	4
147	147	13
5	6	2
20	22	2
59	60	9
16	17	2
105	106	6
30	31	14
80	82	8
119	144	3
117	118	11
79	81	5
56	61	3
87	87	14
225	226	4
233	233	10
11	56	1
173	180	1
189	192	3
34	48	4
42	42	11
49	49	14
211	214	4
6	45	3
68	75	2
239	240	4
82	82	8
231	238	1
202	205	4
51	99	1
2	37	2
218	242	1
247	249	2
145	193	5
81	92	3
4	17	6
17	17	7
6	7	9
230	231	4
152	171	3
116	158	3
34	35	2
157	158	10
24	25	11
120	145	7
237	239	2
205	206	5
34	226	2
163	170	3
50	71	3
223	224	5
187	188	8
152	153	5
213	248	1
215	243	2
111	113	4
69	70	5
112	159	7
146	170	2
152	174	2
244	245	4
3	4	7
109	197	2
168	179	3
225	228	1
68	245	2
7	11	1
94	96	5
45	45	11
75	75	11
47	47	7
97	99	2
44	117	2
186	187	4
245	245	10
181	183	10
66	66	16
19	30	4
48	49	1
49	60	5
56	56	8
1	3	4
177	180	3
189	189	16
90	107	7
183	220	3
13	13	2
48	75	5
144	206	2
18	19	2
119	149	1
231	232	6
29	29	10
37	38	3
197	199	1
14	15	9
12	113	2
29	30	5
73	74	2
102	102	14
9	56	5
109	110	4
247	248	8
159	174	4
170	171	3
12	14	1
167	172	2
232	234	6
47	79	1
219	247	1
50	60	4
208	240	3
105	105	3
10	11	8
80	91	3
213	214	3
38	42	4
2	6	4
174	174	5
232	239	1
50	99	1
78	79	4
46	65	2
36	37	4
32	36	5
162	182	3
242	248	3
219	219	16
120	120	11
7	16	2
168	201	1
72	73	4
184	186	4
64	66	3
175	222	3
44	89	1
25	39	4
243	246	5
216	246	2
115	116	19
58	61	1
78	81	2
66	67	3
6	43	3
87	89	1
228	228	13
173	176	7
227	228	5
4	20	2
6	16	2
191	192	6
27	28	5
81	84	1
154	155	2
188	190	4
69	71	6
174	175	2
45	46	3
23	28	3
217	218	7
223	223	12
94	95	7
49	52	2
34	59	3
168	170	2
172	183	1
5	30	3
64	65	3
165	167	1
230	230	3
183	184	6
64	172	3
108	118	1
48	52	3
201	202	3
83	83	7
83	85	4
97	98	8
158	165	2
187	190	1
173	189	1
235	239	4
17	41	1
121	121	1
246	248	2
29	31	2
36	52	2
57	58	3
198	200	1
162	164	5
164	202	2
18	31	2
4	42	4
86	88	2
159	168	2
23	29	1
213	216	2
2	4	2
95	192	4
37	39	4
164	165	4
49	65	1
49	98	3
212	213	5
176	177	2
35	58	1
8	9	1
28	53	1
224	225	1
172	179	5
220	241	2
180	215	1
192	195	4
172	174	5
66	75	2
53	54	4
248	248	8
245	247	2
214	222	1
78	96	2
50	51	4
184	200	2
82	91	4
118	248	1
225	227	1
163	202	1
201	206	2
70	72	2
21	21	4
209	239	1
168	171	3
170	176	1
56	57	3
188	192	1
237	241	1
233	239	4
210	212	1
5	39	2
111	159	1
8	44	1
71	74	3
68	71	2
38	41	2
48	65	2
28	234	2
29	38	1
152	158	1
147	152	5
94	108	1
90	91	5
164	167	1
28	41	1
150	151	3
180	182	3
39	51	1
106	108	4
86	87	5
205	207	3
150	153	3
55	59	2
217	247	3
161	180	2
162	180	2
185	186	2
89	91	1
15	16	5
50	211	1
214	215	8
214	216	1
10	56	1
8	145	2
83	84	1
109	247	1
83	99	2
14	30	1
12	26	1
145	167	1
178	184	1
69	74	3
32	34	1
151	167	1
8	10	1
53	100	2
6	42	1
3	25	2
187	203	4
46	47	1
88	109	2
118	121	1
67	68	2
18	20	3
34	49	2
89	92	2
32	227	1
34	61	2
25	25	4
217	245	2
107	109	2
53	55	3
180	181	3
76	90	1
186	189	4
35	36	4
174	225	1
17	111	2
4	5	1
54	65	1
31	34	3
56	59	4
46	153	1
152	157	3
210	219	2
152	159	1
95	98	1
193	215	2
35	222	2
160	172	2
168	185	1
175	178	1
180	183	1
185	200	4
184	199	3
61	64	1
73	82	3
30	38	1
96	97	1
52	54	1
238	241	3
63	67	2
23	24	2
2	19	1
33	47	1
20	38	1
19	43	1
74	75	2
181	212	1
44	45	3
57	59	3
181	210	1
10	94	1
69	91	2
167	170	1
34	227	2
246	247	4
174	195	1
183	215	1
176	178	2
115	174	2
169	201	1
92	105	3
45	51	1
175	221	1
23	26	1
232	240	1
161	181	1
212	223	1
88	91	1
222	223	3
202	224	1
215	217	1
1	29	1
180	202	1
181	211	3
155	156	1
68	69	1
46	62	1
97	101	1
239	241	1
186	198	4
171	184	1
14	74	2
150	172	2
29	53	1
174	176	1
24	90	1
211	219	1
3	19	2
52	55	1
178	180	3
33	35	1
59	244	4
19	33	2
228	232	2
86	104	1
243	244	1
35	51	1
18	112	1
105	115	1
236	239	1
46	61	2
99	101	1
68	87	1
50	65	3
95	100	1
72	107	1
71	86	1
194	214	2
170	182	1
24	41	1
167	182	1
51	100	1
46	75	1
170	177	1
179	181	2
3	114	1
56	62	1
108	110	1
185	198	1
156	161	1
149	237	1
87	90	1
149	150	1
95	101	1
208	238	1
47	76	1
0	0	1
30	37	1
20	29	1
49	96	1
59	62	1
162	181	1
33	55	1
8	67	1
33	36	1
172	186	1
69	76	1
79	80	2
16	168	1
191	214	1
183	248	1
193	196	1
172	189	1
69	73	1
92	106	1
184	188	1
172	176	1
168	172	1
5	15	1
211	220	1
83	95	1
19	161	1
57	61	1
105	108	1
52	115	1
83	86	1
