170	170	14
2	9	4
195	195	6
125	125	3
7	8	15
19	21	2
197	197	2
137	137	13
173	202	1
74	76	5
25	26	9
137	139	1
16	18	2
232	232	10
46	46	9
15	15	3
179	179	6
23	23	20
171	171	8
123	123	17
162	162	6
144	144	16
238	241	1
216	216	4
44	67	3
64	64	7
76	76	12
213	213	10
89	89	3
60	60	4
193	199	3
97	97	8
165	166	3
10	10	9
29	29	9
194	205	4
75	75	8
83	83	12
236	236	11
23	24	8
211	211	4
71	72	2
59	59	4
20	197	1
204	212	1
3	3	11
235	235	9
218	218	12
78	79	4
177	178	2
189	189	5
173	174	3
0	19	3
47	69	1
200	200	9
150	150	4
16	16	11
38	38	15
204	204	13
169	169	11
141	143	4
37	37	9
143	152	2
226	226	12
37	112	4
39	44	1
182	182	8
2	2	14
200	205	2
153	153	5
33	34	3
28	28	16
9	56	3
20	20	17
164	164	5
62	62	12
26	26	14
57	57	9
136	137	6
58	60	6
135	136	5
201	201	12
120	120	5
195	196	2
163	165	4
140	140	7
123	124	7
190	190	8
37	39	2
13	14	7
160	189	3
101	101	8
63	63	5
172	172	14
27	27	14
167	167	7
24	25	6
102	105	1
80	80	4
154	154	9
129	129	10
80	82	2
21	22	12
207	207	6
18	18	6
43	43	19
34	41	3
118	122	3
208	208	8
68	68	10
166	166	8
49	49	8
0	0	8
47	47	19
7	7	6
128	128	3
207	211	4
74	74	14
4	6	4
155	156	2
14	14	7
237	237	19
147	147	4
51	51	2
32	119	2
11	13	1
48	50	3
238	238	7
34	35	2
2	4	4
55	56	5
159	159	8
54	55	4
173	173	5
69	69	11
74	75	9
11	11	11
192	192	10
160	160	11
178	179	1
54	54	19
223	223	14
24	24	11
73	73	9
126	127	10
95	95	3
164	191	1
217	217	3
56	57	3
86	86	12
73	74	4
88	89	4
163	163	6
220	222	4
36	38	2
9	11	2
142	143	1
106	109	1
1	48	2
141	141	1
144	145	5
224	224	10
149	150	5
111	121	6
22	22	11
1	143	3
78	84	2
150	151	5
219	220	4
210	214	2
212	212	8
103	103	15
1	2	4
58	65	6
239	239	17
212	213	2
31	32	2
18	23	2
12	12	12
71	71	7
230	230	17
153	155	7
66	67	3
213	214	1
83	84	5
181	181	4
85	85	23
133	135	2
155	155	8
193	193	1
96	97	4
116	130	1
76	84	5
72	72	8
170	196	7
84	84	4
186	210	3
146	146	5
28	217	2
35	49	1
11	58	2
73	190	2
48	48	8
31	89	1
205	205	14
134	134	2
183	191	1
31	91	3
88	91	2
190	242	2
202	202	4
206	206	4
234	239	4
55	55	15
186	186	3
174	175	3
220	220	5
39	85	1
176	176	4
45	45	14
66	66	6
5	7	4
8	8	10
198	198	1
196	204	1
25	25	7
193	198	2
228	228	8
54	56	1
64	65	4
6	18	1
96	96	3
203	203	2
5	5	4
2	40	2
106	106	13
161	190	2
39	40	5
192	213	2
38	39	7
47	55	2
13	15	4
47	73	1
118	119	2
197	225	2
67	67	8
221	222	4
41	41	9
125	132	3
35	36	2
112	112	5
25	30	2
221	221	6
183	212	3
185	185	8
106	114	4
54	72	2
154	191	1
47	230	3
9	9	6
17	34	5
98	98	9
198	223	2
36	36	11
142	142	9
171	172	2
79	80	3
228	230	2
18	21	7
32	32	7
99	100	3
60	61	2
75	84	2
100	100	4
88	88	3
186	187	8
19	19	8
159	186	3
137	138	4
176	177	1
63	64	4
153	154	3
220	221	3
40	40	4
175	176	2
139	139	5
111	112	2
231	232	3
105	136	1
44	46	3
124	124	15
27	29	5
174	174	8
122	122	3
131	131	7
156	158	1
7	19	2
217	218	6
237	240	4
97	99	5
107	121	1
101	102	3
39	66	4
199	199	4
175	175	7
3	4	1
197	223	1
42	42	8
24	54	1
4	4	8
242	242	14
159	161	3
178	178	3
226	227	4
56	56	6
98	99	3
188	188	3
39	39	9
148	160	3
104	104	3
194	194	4
53	53	16
37	38	3
44	44	2
29	30	8
21	24	12
229	229	5
104	105	4
214	214	7
67	68	2
103	104	5
16	37	1
165	165	4
171	202	1
19	37	3
149	149	5
136	136	5
220	224	2
113	113	8
65	66	2
152	152	5
39	42	5
227	228	7
57	59	8
43	44	2
61	61	10
3	9	2
53	54	2
57	58	1
65	69	1
168	191	3
110	119	4
63	65	2
211	222	1
241	241	3
130	158	1
182	189	3
3	19	2
84	85	4
25	75	1
163	189	1
140	141	3
165	230	1
1	1	1
182	183	1
117	118	2
107	108	1
46	49	3
205	206	7
11	12	2
9	44	1
32	34	3
8	18	5
153	191	2
136	138	1
105	105	7
177	177	15
21	21	9
215	221	1
52	53	1
65	65	5
210	210	5
48	51	2
201	217	1
166	175	4
58	58	8
236	238	1
20	164	2
23	25	2
25	27	7
204	218	3
198	199	3
70	71	2
83	91	1
44	45	3
180	180	4
151	152	1
219	219	7
50	57	1
117	130	1
6	165	1
227	227	6
75	113	2
79	79	5
239	241	2
231	231	9
191	191	7
168	169	5
19	24	2
20	110	4
75	76	3
9	10	2
71	73	1
31	31	5
2	3	8
180	181	1
233	233	2
196	196	4
20	21	4
111	111	3
52	52	1
83	131	1
59	63	1
47	85	2
19	20	5
26	227	1
85	88	1
1	40	3
73	235	4
33	33	2
106	137	1
161	161	6
135	135	1
201	204	1
192	223	5
161	191	1
32	46	2
141	185	1
102	103	4
161	162	2
234	234	2
197	201	4
114	115	1
36	37	2
122	125	1
28	29	2
7	9	1
237	238	2
54	71	3
187	187	4
46	47	4
164	165	2
202	224	1
10	11	1
103	136	4
36	49	2
153	158	2
102	102	11
12	31	1
210	211	2
203	204	1
6	9	1
61	62	2
230	233	1
111	150	5
209	209	8
178	180	3
19	38	1
204	211	1
145	145	3
127	127	2
195	197	1
138	138	4
78	78	3
24	42	2
197	205	1
181	183	3
158	158	4
28	56	1
29	182	1
198	221	1
147	148	3
127	128	2
55	61	2
68	70	1
151	154	2
114	114	3
126	129	2
113	237	1
196	197	4
9	47	4
46	230	2
133	134	1
6	16	4
88	113	1
160	161	1
157	158	4
12	46	2
188	189	1
106	108	1
195	206	2
19	120	3
184	184	3
169	191	1
55	85	2
116	129	1
0	1	2
10	45	1
6	60	1
80	81	3
29	32	1
137	142	1
12	13	1
235	239	1
70	70	6
0	36	1
197	198	6
208	209	2
19	197	1
8	9	2
140	143	1
27	69	1
188	190	1
183	183	2
146	147	2
133	133	5
215	215	1
224	225	1
85	86	1
208	211	1
219	224	1
234	238	1
33	35	1
235	236	5
14	15	4
5	23	1
30	31	1
72	153	1
191	192	1
212	218	1
195	202	1
103	105	2
27	28	3
138	146	3
14	49	2
9	46	2
168	168	1
81	84	1
173	175	1
154	162	3
143	143	1
159	162	3
45	46	1
236	237	1
22	23	5
78	80	1
149	231	2
186	213	2
200	225	1
81	81	2
27	30	1
160	169	1
100	101	2
1	84	1
50	50	4
112	239	4
198	201	2
100	102	1
73	165	1
210	213	1
130	130	2
152	190	2
144	147	1
16	31	1
187	210	1
131	157	3
156	157	3
8	40	1
107	123	1
230	231	1
18	19	1
74	190	2
192	198	1
59	60	2
35	41	1
58	59	1
188	210	3
111	146	1
24	134	1
107	107	2
18	33	1
49	50	2
17	23	3
241	242	2
171	174	1
99	99	1
119	119	1
90	91	1
108	121	1
196	208	1
190	211	1
109	118	1
145	146	1
23	84	1
131	158	1
6	6	1
201	202	1
40	42	3
2	5	1
239	240	2
171	200	2
105	137	1
152	153	1
129	130	1
196	202	1
16	17	1
17	17	3
125	126	1
166	169	1
207	212	2
167	170	1
51	52	2
166	167	2
39	56	1
118	120	1
77	77	1
38	56	1
222	222	1
69	70	1
89	91	1
135	154	1
157	157	1
161	231	1
31	33	2
10	42	1
146	165	1
34	34	1
56	66	1
144	184	1
179	180	1
47	64	2
50	69	1
35	37	1
225	225	2
84	88	1
202	203	1
240	240	1
32	36	1
142	144	1
15	16	1
113	114	1
19	46	1
30	30	1
158	159	1
25	43	1
25	96	1
35	35	1
108	108	1
202	225	1
173	178	1
45	49	1
38	41	1
61	195	1
169	170	1
9	42	1
