57	57	9
210	210	17
61	62	8
46	46	16
117	118	5
187	189	16
200	200	20
47	86	2
201	201	25
6	6	11
63	67	4
230	230	15
245	245	15
222	222	11
44	45	6
109	109	21
43	43	17
85	86	11
161	163	8
12	12	16
195	196	4
91	105	1
59	59	17
64	66	2
156	156	38
214	214	22
96	96	8
111	191	3
110	244	3
33	33	15
242	242	7
168	169	18
168	178	1
180	181	13
90	93	6
25	25	14
206	206	16
69	69	6
97	97	18
26	26	13
145	145	9
19	19	10
28	28	15
119	119	9
199	200	6
213	213	16
208	209	10
68	68	16
49	50	4
113	113	13
181	181	26
98	98	7
62	64	3
154	154	13
162	166	4
106	106	8
95	95	4
57	84	5
185	186	8
59	60	4
190	190	11
111	112	8
168	168	27
16	16	22
160	160	8
65	65	8
64	65	6
48	240	3
11	11	14
38	39	12
242	243	5
185	185	17
86	86	14
35	35	7
150	150	12
77	79	2
93	93	6
63	63	6
218	218	6
215	215	9
78	79	7
219	239	5
30	30	12
202	202	8
155	156	3
204	205	1
72	73	3
215	216	2
174	174	9
178	185	2
23	23	26
157	160	3
42	55	2
115	115	5
216	216	9
203	203	16
34	34	11
234	234	18
178	178	16
158	158	3
37	37	16
33	44	2
45	46	3
196	200	1
169	170	1
31	31	10
176	176	15
224	224	7
105	105	9
178	188	2
189	189	7
197	197	19
44	44	10
0	0	1
36	36	8
179	180	14
90	91	4
152	152	24
39	39	16
77	77	7
92	92	9
70	70	17
164	165	6
231	232	7
84	84	5
241	241	25
177	177	7
67	67	5
202	203	7
197	198	7
29	29	9
41	113	6
41	41	8
231	231	6
51	218	2
188	189	1
205	205	10
243	243	10
56	57	7
221	221	14
107	107	7
194	196	3
220	221	9
162	162	18
208	208	11
182	182	7
18	18	13
50	188	3
1	2	2
55	85	2
47	48	4
143	143	1
51	68	1
245	246	10
54	54	14
119	144	1
162	165	6
181	184	2
7	7	5
46	155	1
204	204	12
154	155	3
27	28	7
88	88	7
191	191	12
196	197	5
99	99	9
20	20	2
193	193	12
17	17	11
65	67	3
235	235	14
7	37	3
43	44	4
60	60	13
62	62	14
54	63	1
226	226	12
217	217	11
95	96	3
243	244	4
203	204	7
13	13	4
166	167	4
64	222	2
187	188	13
164	164	19
211	212	5
8	8	9
24	110	2
244	244	14
155	155	10
72	72	3
196	212	1
111	111	3
199	199	14
205	206	6
219	219	10
247	247	10
95	109	1
171	176	2
167	168	4
167	167	15
175	175	10
118	119	6
94	94	11
46	48	3
110	112	4
88	158	6
100	101	5
233	233	12
65	243	3
50	84	2
46	54	1
186	188	1
109	110	13
193	198	1
165	165	7
227	228	4
9	9	6
80	81	4
55	55	8
211	211	17
60	80	2
170	170	12
77	80	1
221	239	1
85	87	5
22	151	3
82	177	2
229	229	15
115	116	2
89	89	9
236	236	9
183	183	11
22	22	10
179	179	24
207	211	2
221	241	5
221	222	5
24	24	10
212	212	19
153	153	18
216	230	6
60	77	3
102	105	5
153	154	3
12	72	1
172	172	7
110	110	11
79	79	11
159	159	11
45	55	1
59	62	1
117	117	7
175	190	1
85	85	1
222	223	1
225	225	10
221	240	4
76	77	8
91	92	6
161	169	2
186	186	26
93	94	8
69	70	1
189	213	4
52	78	3
41	42	5
67	240	5
232	232	11
38	38	10
91	91	12
248	248	11
51	234	1
28	231	2
188	190	2
163	163	6
187	187	10
61	61	7
107	109	2
91	108	4
55	56	1
198	199	4
224	226	3
193	214	2
5	5	8
48	48	7
104	105	2
3	5	6
173	205	2
181	183	5
147	147	3
32	32	27
233	234	5
176	177	9
161	161	17
232	233	5
218	231	2
2	3	2
68	69	6
192	196	2
163	164	6
31	51	4
160	172	3
89	90	3
246	246	11
52	52	10
25	26	1
209	209	6
170	171	2
54	220	1
186	187	6
226	228	5
50	50	3
42	42	17
6	37	2
174	187	1
116	228	1
15	15	16
2	2	3
21	21	16
88	89	8
23	25	3
47	87	1
65	66	2
75	75	16
233	242	2
78	78	14
52	98	1
87	175	3
234	235	3
103	103	3
163	165	5
209	210	5
8	38	1
151	151	12
109	114	3
239	239	5
47	63	2
16	17	1
176	191	5
82	84	2
223	223	11
82	82	4
81	81	5
172	173	7
56	56	5
220	220	8
69	105	3
168	201	1
112	112	11
201	202	10
66	66	15
84	155	2
10	10	13
60	61	5
101	102	4
210	211	6
101	103	2
233	236	2
105	108	1
173	174	4
33	64	1
200	201	6
207	221	3
68	70	3
180	180	6
99	100	3
114	115	4
187	214	3
118	145	2
233	235	1
184	216	4
198	198	7
194	195	2
38	114	1
31	47	1
87	87	8
212	214	1
214	219	2
49	49	11
207	207	6
64	223	3
82	83	2
239	240	3
75	76	6
27	110	2
187	190	1
18	19	2
206	211	1
71	74	2
180	188	1
201	205	4
184	184	6
42	57	2
47	186	2
116	117	3
219	236	4
96	101	2
236	238	2
180	187	1
181	182	6
108	108	13
90	90	7
157	157	5
166	166	16
185	211	1
17	204	1
4	5	4
8	9	5
31	68	1
240	240	4
64	64	6
169	179	1
168	173	3
238	239	7
97	98	9
33	35	3
212	226	2
51	51	7
184	225	1
208	237	2
52	55	2
116	116	7
120	120	1
33	36	3
32	33	4
98	108	2
237	237	4
96	97	2
89	94	1
71	71	16
54	55	6
35	114	3
30	243	1
186	191	1
185	191	1
114	114	5
110	201	3
11	51	1
100	100	6
63	71	4
98	106	1
214	215	1
12	13	1
166	178	2
14	15	1
169	169	9
172	178	5
1	1	6
229	230	6
43	83	2
185	194	1
66	67	4
181	208	1
34	35	4
166	179	2
161	162	1
4	4	4
243	247	4
9	10	2
114	116	4
169	206	1
93	98	1
40	40	16
175	213	1
190	236	1
188	239	1
194	200	1
42	112	1
116	119	5
27	27	5
224	225	4
247	248	1
31	249	1
54	109	1
92	93	2
173	173	5
51	235	2
47	47	11
169	207	2
189	191	1
156	173	3
38	113	1
207	208	3
68	80	2
62	63	2
28	234	3
92	156	1
72	95	5
219	221	2
116	146	1
110	111	1
9	225	1
183	221	1
6	15	4
169	198	3
150	151	2
57	58	3
225	229	2
70	77	1
55	57	1
160	170	1
20	22	1
191	192	2
14	14	3
195	195	1
206	207	1
190	191	5
215	238	1
79	94	3
78	108	1
58	58	5
236	237	3
189	190	6
91	93	4
193	240	2
58	60	1
46	173	1
58	62	2
185	195	1
208	212	1
228	228	8
206	208	1
231	233	3
53	54	2
203	223	2
166	170	1
52	234	1
62	65	4
186	212	1
196	210	2
184	185	2
2	6	1
98	99	1
220	223	3
86	99	2
201	207	1
217	240	2
108	236	3
172	201	2
159	160	3
187	192	2
3	3	2
167	207	2
152	153	3
114	150	1
21	22	4
17	22	1
217	219	3
241	242	2
180	212	1
215	217	2
236	240	3
246	247	4
45	197	1
89	97	2
71	98	2
189	236	1
15	35	1
51	112	1
12	51	1
118	118	3
45	45	5
4	14	1
102	103	4
22	23	3
178	212	6
194	212	1
179	229	1
167	172	1
238	238	4
51	237	3
113	145	1
77	78	3
26	110	1
218	219	3
107	108	5
155	164	1
179	181	3
156	198	2
157	158	3
119	120	2
184	188	1
167	212	2
217	218	3
5	6	1
9	224	1
74	75	1
240	241	4
171	191	1
81	95	2
160	164	3
144	144	2
186	192	3
214	217	1
73	79	1
200	202	3
39	40	2
188	213	2
51	80	1
76	82	2
113	115	1
90	158	1
17	20	3
157	161	1
192	192	5
94	95	1
79	80	1
41	205	1
111	220	2
37	38	3
184	195	3
6	7	1
211	242	1
71	103	3
197	212	1
13	14	1
180	197	1
244	245	3
45	67	1
46	47	3
87	173	2
60	84	1
31	64	2
183	184	3
45	178	1
28	29	2
192	213	2
162	163	1
158	160	1
48	234	1
175	176	2
121	121	3
56	58	3
70	78	1
211	225	1
55	98	2
31	62	1
167	204	2
229	231	1
10	56	1
203	205	2
185	234	1
103	104	2
146	146	1
22	24	3
220	240	1
188	191	1
144	145	1
221	234	1
7	8	2
54	156	2
42	153	1
95	98	1
213	219	1
11	114	1
90	160	1
60	63	3
42	43	1
101	101	5
32	46	1
52	61	2
73	107	1
164	171	1
249	249	1
21	43	1
11	12	3
164	168	3
221	227	1
86	87	2
58	84	1
53	62	1
171	171	3
24	25	2
83	83	2
1	7	2
166	176	2
213	236	1
217	238	2
235	236	4
223	224	2
171	172	3
59	84	1
117	226	1
178	187	1
228	229	1
147	221	1
52	93	1
161	203	1
216	217	3
178	184	1
53	53	2
190	196	2
26	36	2
182	211	2
194	197	1
102	104	2
26	27	4
71	72	4
157	162	1
13	15	1
103	107	1
54	155	1
178	205	1
180	182	1
16	54	2
58	59	2
165	166	2
220	236	1
6	24	1
176	178	1
190	192	1
44	66	2
196	196	1
190	237	1
213	214	1
68	238	1
68	78	2
76	76	2
113	114	1
93	109	1
70	71	1
153	156	1
28	46	1
151	153	1
150	154	1
172	176	1
80	80	1
235	241	1
232	241	1
20	26	1
227	227	3
192	194	2
62	70	1
44	78	1
54	110	1
183	190	1
162	164	1
88	90	1
186	196	1
183	222	1
194	194	2
161	176	2
179	184	1
216	231	1
214	235	1
65	223	1
222	227	1
104	106	1
178	179	2
37	113	1
167	171	1
51	81	1
29	33	1
186	211	1
36	37	1
160	175	1
216	218	1
116	220	1
29	30	1
112	243	1
186	209	1
92	95	1
170	179	1
117	245	1
20	21	1
74	79	1
30	31	1
174	175	1
