110	110	44
13	22	1
38	38	145
82	84	2
17	17	91
42	43	17
35	35	116
40	40	133
83	85	7
41	41	145
11	11	127
19	20	46
164	164	61
167	167	83
12	12	131
119	128	7
55	55	58
10	10	143
174	174	58
126	152	7
27	27	113
2	2	91
98	99	22
5	6	92
146	146	69
29	82	1
42	42	124
72	73	10
55	68	3
143	143	81
5	20	5
30	40	1
13	15	24
169	169	86
13	37	7
114	114	56
7	24	3
145	145	59
149	157	8
154	177	1
90	100	6
83	83	72
139	139	91
97	97	79
65	71	7
158	158	56
91	92	21
102	119	2
90	90	64
22	23	37
5	5	145
143	145	12
3	3	86
23	150	1
14	14	152
20	38	3
109	110	11
36	39	2
86	87	14
148	148	85
16	17	25
81	82	26
18	116	1
130	130	58
33	33	137
160	161	23
52	52	73
111	112	21
133	172	4
149	149	99
100	110	2
4	4	143
126	151	9
94	94	86
161	161	68
118	119	14
144	144	45
3	15	5
39	39	125
116	116	55
125	125	48
23	23	114
160	160	57
0	1	21
156	156	70
37	38	50
100	100	52
102	106	4
71	72	30
105	114	2
153	154	21
20	32	1
44	44	115
123	124	37
139	144	6
123	123	93
131	131	73
148	156	2
16	16	112
78	79	22
40	41	30
73	74	18
113	113	87
58	58	45
96	98	8
35	36	24
88	101	4
87	97	7
30	35	3
112	112	81
18	19	67
157	158	18
30	39	2
154	155	29
89	90	10
96	97	37
93	93	96
161	164	2
95	95	103
84	84	61
98	98	41
132	132	72
28	28	130
3	8	12
32	32	111
10	17	2
59	60	17
8	9	59
45	45	79
168	168	115
75	109	2
17	44	2
92	92	67
165	165	57
119	119	58
68	68	44
110	117	3
50	50	55
114	130	3
113	114	42
24	57	5
53	53	57
1	1	87
24	24	121
77	141	1
24	95	10
105	105	47
30	30	126
145	146	19
70	87	2
37	37	137
140	140	49
109	109	47
147	148	32
61	61	52
24	97	1
127	127	41
30	31	38
18	18	107
30	37	2
17	19	4
61	81	5
170	171	29
115	116	12
24	26	26
9	9	118
50	51	22
82	85	9
153	153	78
13	13	116
129	129	66
65	67	6
108	115	2
12	13	66
76	76	54
145	147	10
25	25	131
135	162	4
136	137	10
152	161	2
34	34	69
146	156	8
11	13	45
120	125	2
137	137	70
130	131	22
129	130	26
98	100	15
64	64	49
108	109	19
118	118	52
150	150	90
98	148	1
20	21	25
107	107	54
103	103	78
131	173	4
7	7	114
151	151	77
15	16	45
151	152	16
138	154	4
33	34	20
138	138	81
99	100	22
131	132	23
163	163	54
141	141	69
60	60	69
172	172	73
109	113	16
165	166	25
56	56	60
166	167	18
80	81	25
102	102	69
38	43	1
21	21	80
54	54	53
7	8	35
106	108	5
52	167	1
21	22	36
88	88	32
93	155	6
28	30	14
35	42	10
2	32	2
8	8	134
85	86	9
178	178	25
22	22	126
2	3	56
82	83	3
35	89	3
155	155	82
122	133	3
80	82	4
145	155	2
148	149	26
81	81	44
134	134	74
140	141	7
74	74	70
55	56	23
163	165	12
27	60	5
85	87	5
145	163	3
43	43	68
26	26	125
59	76	4
174	180	2
162	162	60
25	26	44
118	121	18
73	73	57
33	37	3
20	20	57
80	80	33
36	36	131
7	125	2
136	136	56
146	147	29
65	89	3
22	95	1
6	43	13
121	145	6
0	43	3
26	27	38
18	31	2
29	29	142
26	43	1
116	121	2
75	75	40
94	96	12
7	28	2
67	79	1
168	170	3
116	117	54
59	59	63
67	88	2
29	102	1
171	172	8
39	40	54
21	62	4
23	26	9
27	29	11
105	106	23
78	107	3
147	165	2
15	15	138
1	45	2
66	67	30
175	175	50
117	117	56
65	66	14
79	79	60
139	140	15
43	45	8
4	7	8
163	167	9
171	171	89
71	71	51
168	171	3
62	62	62
26	28	20
7	31	2
3	12	4
65	125	1
11	107	1
147	147	43
168	169	17
152	153	32
19	19	118
86	86	74
173	173	57
18	24	7
24	93	2
116	165	4
139	142	4
128	152	2
101	101	49
93	100	2
76	106	4
9	14	1
63	63	77
29	108	1
1	134	3
82	82	51
103	109	5
115	117	13
27	28	25
57	57	54
60	61	12
31	32	30
141	159	2
115	120	1
84	85	23
13	20	4
123	156	4
33	67	1
94	148	2
66	78	1
140	159	2
110	150	2
88	89	23
126	127	22
176	176	50
41	42	43
62	63	21
14	112	2
62	64	3
127	149	7
6	11	4
103	104	16
115	149	1
29	41	1
122	126	4
120	120	45
56	57	24
111	111	61
3	136	1
86	134	4
84	153	3
142	143	24
4	5	34
159	170	5
26	35	5
14	42	5
24	25	50
135	136	20
31	31	99
115	115	44
151	153	16
67	67	54
142	156	1
180	180	32
179	179	88
28	29	44
12	16	7
34	74	7
135	135	66
78	78	39
20	41	4
133	133	58
74	75	16
2	8	12
107	109	11
133	163	1
157	157	56
161	167	6
6	10	7
114	116	10
49	49	10
29	31	20
121	121	41
50	53	3
169	170	14
33	35	8
98	107	1
115	167	2
163	164	16
5	15	3
79	105	1
134	135	21
6	6	111
101	102	15
49	61	2
32	33	44
144	153	5
85	85	52
99	99	58
172	173	14
7	15	23
159	160	17
44	45	33
1	2	16
88	90	4
16	41	4
8	11	18
152	152	49
87	92	4
63	95	2
11	12	41
20	36	2
5	30	5
121	125	5
0	0	88
68	94	1
130	136	6
105	119	7
96	96	68
83	84	19
91	91	56
21	124	3
54	109	3
171	178	4
129	136	3
122	141	4
10	11	24
170	170	62
156	157	18
27	34	2
145	149	2
119	120	17
107	112	4
100	132	2
21	26	1
63	87	2
33	64	4
77	77	63
11	15	15
108	138	2
171	173	3
46	46	22
10	16	4
72	72	32
5	37	1
16	19	6
50	92	2
106	107	22
157	161	2
8	10	12
81	86	7
112	117	3
130	150	3
51	51	40
127	128	33
110	113	5
144	145	13
92	103	5
143	144	19
70	122	3
3	9	11
20	44	5
161	162	39
107	110	6
55	133	2
67	98	1
160	174	4
109	120	3
17	18	44
53	62	5
159	168	6
76	142	4
125	126	28
11	31	3
23	107	2
106	106	52
84	86	4
79	80	15
21	24	6
36	38	5
156	159	6
131	160	1
114	171	2
15	18	8
141	142	19
40	149	1
0	5	4
119	176	4
23	24	34
108	108	78
80	111	2
4	9	15
22	24	2
26	34	3
129	165	7
4	18	4
111	114	6
142	142	61
102	124	3
132	158	2
66	66	35
2	5	14
146	179	1
33	38	2
127	152	4
136	166	2
173	174	33
33	80	1
88	92	5
20	23	6
121	122	26
161	163	2
11	14	10
107	108	8
10	14	14
114	160	3
65	65	38
140	167	3
118	158	2
8	14	10
82	135	4
177	177	22
111	159	4
1	40	7
83	93	2
143	146	5
9	10	27
158	159	22
92	93	30
154	154	45
26	29	14
70	71	7
13	43	4
70	72	4
12	15	16
2	4	30
125	153	4
55	77	2
10	22	3
131	158	1
18	27	4
40	42	4
97	147	4
3	6	11
164	178	1
70	70	7
87	87	33
2	10	12
12	41	2
42	66	7
10	85	2
74	93	3
22	28	3
123	143	3
5	11	5
24	140	2
2	19	4
16	100	4
94	107	7
30	109	1
43	142	3
132	133	14
136	139	4
128	128	51
136	159	3
35	41	1
1	5	14
94	95	8
133	176	2
8	12	17
8	13	5
118	126	6
6	14	8
140	169	5
57	58	11
101	108	3
84	161	2
164	166	18
110	111	34
80	83	2
15	35	1
98	115	2
1	33	1
63	66	4
7	10	15
51	61	2
164	165	19
17	100	2
123	157	1
124	124	51
89	89	46
61	82	4
82	91	3
56	139	1
38	76	3
166	166	68
50	89	2
2	6	2
53	54	20
10	173	2
100	126	4
137	141	1
14	17	7
174	176	6
7	41	4
76	77	22
29	89	6
42	128	2
163	166	14
99	101	6
21	41	3
115	122	8
9	42	3
64	87	1
81	169	1
120	121	21
46	156	3
136	138	5
14	16	11
79	81	2
133	137	1
5	25	1
34	35	25
33	43	5
7	131	1
109	153	2
3	11	11
10	33	4
148	150	2
25	35	7
1	14	10
45	46	15
137	138	17
19	38	2
16	30	4
11	27	2
159	159	36
96	102	2
63	64	13
0	37	4
23	62	3
74	99	9
138	150	4
11	20	5
149	150	24
168	180	6
58	59	11
66	118	2
146	155	2
32	81	5
37	44	6
28	59	3
5	58	2
141	158	3
10	25	4
144	164	2
127	159	2
58	80	4
118	157	7
142	157	3
100	101	16
127	156	2
130	165	2
4	175	3
29	30	32
33	41	4
152	155	2
13	35	3
157	166	2
59	77	6
56	73	4
52	53	29
15	147	3
2	7	5
31	43	2
9	123	2
139	143	1
68	72	4
111	150	2
21	40	1
0	30	2
110	130	4
142	164	2
22	44	3
10	37	3
10	12	23
3	5	8
51	52	9
103	106	8
94	106	8
9	38	7
179	180	7
135	146	8
117	159	6
102	105	8
4	38	4
87	88	14
119	165	5
98	134	1
36	44	4
10	13	10
116	160	1
35	44	2
8	45	9
3	4	42
115	135	1
134	139	6
151	158	4
109	116	3
5	9	17
52	104	4
122	124	2
99	163	3
111	138	6
129	178	4
5	7	34
10	15	1
53	87	2
143	155	5
141	143	5
61	64	4
91	121	3
10	35	13
85	114	5
43	44	43
26	30	1
38	39	16
29	36	15
126	130	2
6	7	33
114	128	3
89	94	2
128	131	8
49	134	5
2	43	5
73	94	3
118	153	6
62	86	7
161	178	1
110	135	1
119	126	2
177	179	8
35	37	4
101	118	1
36	37	24
147	162	5
83	94	5
30	96	2
104	106	6
117	128	2
115	121	2
122	122	70
1	3	11
90	91	16
130	168	6
142	145	6
93	94	16
110	115	5
10	41	2
116	154	2
61	72	3
36	55	2
13	14	21
27	57	3
44	108	1
75	89	2
144	146	4
28	31	15
5	14	1
140	179	3
43	107	4
43	50	1
86	93	1
18	45	1
11	34	4
117	156	3
68	81	5
76	94	3
23	43	3
91	94	5
155	156	12
75	153	3
104	107	7
83	171	2
43	127	2
161	179	3
16	35	3
19	40	4
45	162	8
142	167	6
34	39	1
113	118	3
116	118	1
71	85	1
68	178	1
11	19	5
75	154	2
68	70	4
10	44	1
90	98	1
75	118	6
76	93	4
115	156	2
17	35	1
7	13	10
59	61	3
43	49	1
135	174	2
146	167	6
152	154	9
54	55	7
124	126	3
136	144	2
33	137	1
134	141	5
106	131	2
21	33	3
54	79	2
133	162	2
138	142	4
97	98	14
174	175	17
101	110	7
11	43	3
135	169	3
41	65	1
108	112	1
18	21	11
9	25	8
9	13	3
112	115	2
63	154	4
9	11	15
0	155	5
64	66	3
0	34	2
39	44	2
26	36	3
16	40	4
4	6	6
136	142	1
55	58	1
104	104	38
95	101	3
68	129	1
19	22	3
177	178	12
114	127	4
14	15	16
169	173	1
123	153	3
37	43	3
115	163	1
75	76	13
146	163	1
72	77	5
33	58	4
5	8	8
8	16	3
16	24	5
23	53	1
9	12	3
133	140	2
89	153	4
127	151	1
0	36	2
32	35	4
90	92	7
52	54	1
129	134	2
1	4	9
7	9	21
112	174	2
41	43	5
39	41	8
5	28	9
106	115	1
109	121	3
27	138	8
107	126	7
2	20	4
25	157	2
101	103	7
114	115	7
27	30	4
73	149	2
112	113	10
24	28	9
114	118	4
127	167	5
26	125	1
116	119	3
14	27	4
132	147	2
21	23	10
5	18	4
90	108	1
37	40	7
12	18	2
26	41	6
120	146	5
170	180	3
107	111	4
19	33	1
2	28	4
32	60	5
19	30	4
160	162	14
136	156	4
56	59	3
31	33	15
134	166	3
81	83	5
38	145	4
102	132	2
137	159	2
135	140	1
50	58	5
64	158	1
24	30	2
53	124	1
80	85	3
30	41	1
63	65	5
67	74	3
67	87	1
109	151	2
28	44	2
3	25	1
39	52	5
166	170	4
19	23	3
64	82	2
137	139	2
129	146	7
135	137	6
9	169	4
94	149	4
155	178	2
79	84	1
136	157	3
22	52	1
156	158	1
176	177	10
106	171	1
129	161	2
111	139	3
20	42	3
1	42	2
75	93	3
133	158	2
7	14	5
19	83	3
61	83	7
159	162	4
86	88	4
62	81	1
92	94	4
64	88	2
94	158	3
90	93	2
13	148	1
74	76	2
9	45	7
123	126	2
43	58	4
9	26	2
158	162	2
65	68	1
2	34	5
4	8	1
131	148	2
60	68	1
123	125	10
77	95	3
87	116	3
5	10	3
108	127	1
38	44	3
1	52	2
7	44	4
134	146	4
19	45	2
121	124	4
99	120	1
5	23	4
130	157	2
57	131	4
19	52	2
17	148	1
16	38	2
40	65	2
27	100	6
167	170	3
29	93	5
89	123	1
132	139	2
17	30	1
13	16	7
138	145	2
82	112	4
170	172	4
169	174	3
63	152	2
1	6	9
4	26	6
83	86	6
167	178	1
124	131	4
113	160	1
111	113	6
113	117	1
137	169	4
6	9	7
135	163	5
151	174	2
8	44	4
27	63	2
10	38	4
29	34	5
61	62	4
91	103	2
20	63	8
19	35	2
67	68	20
95	116	5
31	37	7
156	162	5
23	25	13
55	57	1
158	173	3
79	97	1
16	36	3
63	158	2
4	102	6
87	89	4
100	105	8
3	41	6
31	39	3
75	86	2
118	131	2
55	60	1
16	21	4
66	75	6
114	153	4
14	18	6
146	180	1
9	28	1
77	78	14
61	65	2
178	179	1
84	93	2
119	122	8
63	146	6
77	143	2
153	166	3
71	89	3
136	145	4
64	134	2
28	58	4
25	31	2
80	88	3
162	163	5
22	27	4
78	81	1
66	145	5
5	65	1
19	21	14
160	167	2
34	36	4
171	177	4
7	11	8
67	99	2
53	56	1
21	104	3
134	176	6
49	51	3
40	120	3
14	177	2
104	173	2
135	151	5
1	10	2
147	163	6
24	27	7
120	150	4
89	91	2
5	106	2
159	161	4
30	33	3
99	125	2
109	178	2
24	111	1
0	40	1
173	176	11
80	86	1
135	142	2
36	146	3
152	171	2
130	154	1
53	168	1
15	42	5
73	85	3
103	111	4
3	45	1
100	149	2
25	58	6
65	126	3
23	157	1
106	114	2
134	159	5
9	62	9
116	128	6
103	107	7
122	123	3
74	163	2
145	157	2
79	86	1
95	102	2
117	119	2
88	114	3
14	35	2
75	91	1
105	110	7
16	18	18
14	40	1
71	78	1
26	88	1
119	171	2
85	95	1
160	166	2
102	117	1
104	133	4
171	176	4
102	103	8
60	100	2
92	125	4
19	26	2
8	46	2
27	32	4
53	172	4
150	151	9
11	24	1
4	94	1
141	172	2
40	130	1
25	97	2
145	165	2
22	36	2
118	162	2
71	104	2
51	127	2
66	68	2
5	68	1
14	43	4
29	162	1
44	46	2
100	102	6
1	25	2
12	32	3
37	61	2
40	95	1
7	18	4
53	67	5
98	135	1
24	55	6
130	180	5
72	78	6
38	40	1
61	178	1
50	118	9
66	87	2
73	75	10
75	158	2
22	33	1
25	27	9
156	160	3
115	146	1
58	60	1
0	53	1
1	41	2
34	38	2
94	103	4
39	121	1
37	72	6
167	168	15
16	22	1
46	151	3
10	27	1
18	22	3
2	9	3
86	147	4
74	91	3
74	98	2
62	87	5
54	57	7
30	36	6
6	25	4
67	73	4
113	116	2
0	18	5
66	71	2
113	115	12
98	101	5
115	125	3
116	174	7
56	58	2
38	78	2
4	135	1
105	130	1
21	167	1
145	167	4
9	20	1
22	179	1
67	131	2
83	92	2
86	116	2
94	131	2
29	40	2
55	95	1
4	17	3
176	179	1
154	156	5
74	173	4
165	178	1
108	110	1
107	118	5
126	134	3
7	43	8
154	157	1
32	36	4
128	173	8
99	110	2
104	105	13
26	53	1
3	28	2
60	76	4
73	86	3
90	175	2
36	133	1
9	86	4
64	68	6
91	93	7
59	106	3
82	107	2
5	31	1
39	73	6
162	167	3
141	145	3
37	66	1
6	44	1
165	167	2
23	93	1
60	132	1
111	129	3
21	173	2
22	45	5
1	44	3
121	143	5
24	136	6
18	20	12
32	66	1
105	113	2
22	35	1
19	43	4
23	146	6
175	176	7
2	15	3
128	155	5
14	79	3
111	134	1
126	126	28
135	149	2
99	135	3
87	157	3
130	145	1
131	149	2
95	151	2
63	96	1
15	19	6
54	67	1
100	103	4
21	44	2
120	147	4
26	134	1
118	127	1
101	160	2
29	173	2
121	156	2
90	94	5
165	175	3
177	180	5
143	152	3
3	7	2
51	87	2
125	176	1
66	157	3
64	90	2
154	173	3
108	144	3
175	177	1
157	160	1
12	33	4
100	121	3
68	99	4
55	150	2
61	123	1
65	78	7
15	21	1
30	91	5
158	160	3
32	58	2
64	152	2
159	164	5
136	141	4
147	152	2
11	33	4
0	118	2
148	159	9
124	125	18
32	44	3
27	56	1
163	168	2
9	15	5
33	176	2
42	82	2
130	161	3
132	175	1
119	121	4
59	131	1
27	74	1
14	22	4
15	22	2
29	32	2
23	51	2
79	85	2
136	148	6
27	39	1
1	8	1
151	169	5
127	150	3
42	45	7
130	132	5
130	144	4
54	95	1
49	50	4
50	85	6
8	24	1
6	33	1
119	136	1
93	133	2
20	62	2
37	39	5
52	83	1
138	139	6
92	96	1
23	28	2
150	152	7
54	89	1
159	179	1
37	151	2
22	96	2
23	44	5
126	128	5
4	16	3
29	35	1
101	143	4
6	67	1
75	111	1
162	166	3
7	67	3
143	179	4
2	29	2
43	72	1
60	89	5
8	155	2
121	153	1
106	109	2
168	178	1
115	118	3
55	149	3
134	161	1
155	157	2
50	165	1
76	119	1
158	169	5
108	111	1
86	96	2
23	41	3
14	34	2
61	68	2
83	112	3
24	34	3
102	154	1
63	125	2
31	38	5
11	36	3
98	106	1
118	120	1
24	62	3
8	39	2
15	34	2
28	88	4
151	155	1
28	36	2
20	35	1
61	89	7
80	95	4
106	120	1
138	141	4
97	99	1
22	142	3
152	178	1
28	95	2
27	33	2
7	42	2
10	18	2
109	111	4
44	96	1
14	31	1
112	114	4
27	59	2
77	79	1
55	62	1
11	22	3
82	168	3
1	31	5
126	135	2
100	135	3
35	174	1
22	61	2
19	24	1
15	17	2
83	88	1
19	25	2
29	33	5
104	144	3
32	139	3
110	114	5
64	65	4
128	129	5
94	105	1
129	163	1
95	103	2
82	92	2
8	20	4
80	89	3
153	162	1
15	24	1
95	123	4
87	90	5
149	171	4
63	151	3
17	26	3
85	118	2
30	43	4
128	136	3
129	180	2
139	178	1
96	119	2
65	158	2
24	33	1
5	40	2
95	131	1
16	23	3
4	66	5
33	42	2
40	63	3
166	169	2
96	108	3
142	171	5
26	63	1
2	17	3
157	159	1
4	45	1
97	156	1
141	149	1
17	78	2
95	180	1
107	113	2
34	175	1
15	31	4
153	174	2
45	90	3
31	42	1
146	154	1
5	29	1
125	127	2
0	10	6
152	158	1
56	80	4
94	101	2
5	44	3
9	18	3
17	33	2
152	168	1
13	151	4
169	180	3
74	126	3
145	176	1
11	16	4
91	102	3
73	84	1
117	120	2
6	15	4
114	125	1
50	100	1
75	108	1
25	28	6
162	164	6
91	120	4
0	129	2
21	52	1
111	130	2
98	146	3
12	44	3
155	160	3
84	107	2
24	79	2
107	114	1
102	135	1
6	12	3
4	35	3
132	159	3
140	156	2
13	26	6
50	163	3
154	168	1
108	150	3
147	167	2
16	117	1
105	124	4
139	176	2
95	106	5
157	162	1
16	64	1
40	64	3
105	107	4
170	174	1
167	172	3
60	81	2
155	158	1
11	32	3
45	50	1
4	13	1
102	162	1
11	65	1
137	140	1
92	154	2
12	14	6
23	49	5
31	36	2
100	140	5
3	17	2
76	78	1
114	132	2
11	73	1
152	156	1
31	89	1
151	154	2
130	142	1
27	144	2
61	75	1
35	177	3
18	28	2
136	167	1
10	43	1
32	119	3
166	175	4
53	154	1
96	154	1
127	155	4
140	143	4
77	81	3
75	87	5
128	144	1
77	133	1
137	148	2
10	24	3
164	168	3
141	178	2
7	25	2
132	134	3
5	17	6
35	43	2
118	161	4
153	156	2
94	130	2
76	108	2
61	115	3
122	125	3
73	87	1
58	171	1
19	44	2
84	112	4
8	40	1
43	102	1
178	180	5
111	115	3
121	150	1
22	32	2
72	91	1
72	96	1
78	80	1
57	59	7
101	113	1
12	19	1
12	29	1
2	44	2
117	162	1
36	41	5
139	141	1
30	58	2
74	94	1
22	42	1
131	142	2
26	133	4
83	87	3
68	74	1
15	25	1
171	175	4
112	130	3
33	124	4
152	169	1
13	36	1
17	20	2
84	108	1
113	140	1
150	156	1
61	133	1
24	78	2
117	118	10
16	32	3
42	44	1
61	154	4
61	63	6
135	159	1
128	133	1
66	111	2
8	15	3
127	129	1
32	55	2
26	118	4
29	37	1
1	13	2
154	178	1
61	86	1
104	147	1
140	172	3
6	29	1
17	34	6
43	65	1
17	170	1
73	88	1
68	75	1
62	83	4
10	65	2
75	152	1
153	159	2
92	121	3
123	159	2
16	43	1
167	174	3
3	27	2
18	23	4
56	60	4
80	102	3
84	89	2
132	180	2
27	172	2
115	152	2
113	133	1
44	53	2
50	91	1
149	158	1
22	34	2
117	146	2
29	62	2
95	138	4
65	116	2
68	130	3
99	126	3
96	118	4
20	167	1
83	107	2
30	44	1
160	163	2
150	172	4
70	77	2
13	17	2
100	116	2
71	75	3
12	26	2
19	85	1
60	66	1
40	100	2
101	109	3
68	96	2
127	153	2
117	153	1
51	53	2
76	130	1
118	151	3
88	127	1
78	91	2
125	152	1
96	109	1
28	33	4
4	14	4
101	127	1
27	37	4
114	157	1
6	27	1
110	112	2
139	159	1
8	42	1
21	36	1
33	61	1
24	152	2
76	90	5
120	178	3
123	155	1
153	155	5
81	92	2
19	41	1
102	143	1
74	158	1
103	105	5
123	149	3
7	100	1
34	52	1
41	100	5
61	122	1
36	40	3
8	19	2
58	103	1
34	37	2
61	124	2
14	36	1
62	68	3
112	129	3
4	25	1
146	153	5
151	175	2
3	33	2
68	97	1
115	157	3
96	113	1
15	29	3
25	147	1
131	172	1
68	76	1
123	150	4
17	87	1
101	129	1
70	83	1
53	57	3
8	178	1
129	157	1
136	147	2
31	90	1
21	30	1
40	140	1
105	178	2
15	133	1
50	132	1
65	115	2
121	149	1
135	139	1
164	167	4
60	62	3
133	178	2
14	45	2
95	100	1
1	24	4
63	121	2
37	150	1
15	20	1
127	173	1
5	16	2
141	166	2
82	87	3
159	166	2
158	171	1
173	175	2
172	175	2
120	128	1
13	114	2
130	169	1
97	118	1
2	42	2
23	40	1
94	177	1
143	165	2
102	145	2
95	96	4
24	37	2
57	70	4
65	87	2
58	142	2
18	32	1
145	158	1
64	177	1
61	66	1
115	129	1
136	155	1
66	79	1
110	128	2
115	130	1
56	178	4
68	156	1
90	117	1
131	170	2
78	87	1
157	163	3
118	174	2
72	104	4
3	34	1
64	122	1
104	128	1
102	116	1
95	98	3
108	121	3
112	169	2
4	63	1
32	77	2
54	105	1
50	114	3
111	127	1
6	13	4
142	153	3
143	147	2
121	123	1
109	175	1
111	166	1
86	102	1
96	156	1
154	167	1
24	36	1
98	157	1
5	21	1
125	145	1
5	12	2
33	163	2
96	127	1
21	151	3
51	98	2
131	133	2
39	54	1
118	154	2
100	180	1
101	131	2
138	149	2
88	91	3
130	170	3
78	133	1
12	176	3
95	126	3
17	123	2
150	153	2
85	119	1
114	136	3
31	56	2
20	22	1
101	120	3
39	125	1
10	118	2
101	111	2
113	128	2
132	141	4
84	115	1
91	95	3
151	178	2
23	45	3
126	161	1
95	125	3
112	135	1
19	62	1
38	54	1
130	146	1
64	81	1
14	24	1
17	22	1
108	145	1
78	167	1
124	138	2
155	162	1
16	20	4
147	153	1
38	41	2
30	125	1
101	119	3
26	62	4
83	118	1
42	127	1
14	23	1
6	28	2
88	153	1
4	15	3
71	132	1
18	41	1
151	162	1
125	138	2
137	147	4
105	115	1
112	160	3
7	30	1
45	51	1
114	117	1
91	180	2
86	89	4
14	25	1
15	62	3
73	98	2
0	176	1
133	134	1
65	98	2
119	130	2
40	53	2
76	88	1
126	165	2
139	167	1
76	82	1
26	73	2
64	95	1
61	96	1
135	160	1
117	122	1
79	82	2
141	171	2
20	30	2
103	108	1
4	24	4
125	129	1
110	120	1
77	108	1
77	82	2
74	89	2
12	35	1
50	65	1
17	114	1
80	135	1
44	83	1
169	175	1
23	54	1
93	96	1
113	167	2
7	39	1
109	112	2
119	145	2
39	53	1
86	107	3
23	96	2
166	168	2
28	90	1
27	31	2
81	100	1
36	135	1
19	46	1
168	174	2
27	142	1
116	152	1
8	21	1
114	138	1
41	44	3
14	108	1
97	101	3
123	131	2
37	98	1
38	86	1
128	149	1
5	27	1
20	64	1
41	73	1
52	87	1
176	180	1
15	51	1
52	149	1
84	152	2
66	100	1
154	169	1
13	34	1
3	23	1
21	27	2
113	130	2
72	94	4
40	54	1
71	148	2
21	163	2
152	162	1
102	159	1
92	100	1
118	129	1
123	136	1
55	96	1
91	161	1
98	180	1
90	128	1
96	130	1
135	166	1
97	117	1
31	66	1
26	31	1
34	41	1
82	93	1
135	176	1
141	175	1
71	90	1
112	116	1
91	177	2
18	30	1
25	57	1
53	93	2
113	129	1
130	134	1
40	43	1
53	115	1
112	123	1
10	32	1
138	167	1
94	133	2
137	145	1
4	97	1
99	155	1
112	166	2
20	37	2
17	21	1
0	2	1
139	169	1
58	78	1
169	172	1
36	68	1
68	131	1
60	152	2
101	162	2
60	87	1
119	157	1
21	25	2
20	98	1
36	71	1
110	136	1
27	164	2
9	41	1
64	156	2
103	129	1
8	25	2
6	171	1
25	40	1
99	102	2
71	77	1
77	122	1
133	141	1
148	177	2
81	84	1
133	143	1
76	102	1
139	149	1
97	103	1
83	111	1
11	44	1
35	38	1
95	107	1
67	80	1
129	151	2
6	21	2
31	61	1
146	177	1
136	150	1
121	171	1
163	169	1
71	81	1
39	171	1
15	23	1
132	144	2
34	84	1
17	38	2
35	40	1
167	169	2
144	167	4
156	161	1
38	148	1
118	132	2
162	179	1
146	151	2
73	79	1
37	80	1
62	67	1
98	102	2
0	13	1
118	137	1
57	60	1
77	102	1
29	95	1
14	33	1
49	114	1
0	64	1
134	137	1
120	123	2
9	16	1
101	107	1
145	148	1
58	76	2
14	141	1
134	138	1
140	152	3
30	42	1
97	128	1
88	97	2
136	174	1
21	84	1
106	111	2
34	44	2
66	89	1
27	54	1
2	31	1
8	162	1
161	166	1
120	124	1
13	21	1
82	105	1
24	39	1
67	158	1
120	164	1
140	174	1
93	109	1
111	128	2
130	152	2
0	174	2
45	157	1
72	75	1
135	147	1
69	71	2
15	43	1
112	138	1
32	45	1
18	26	1
14	53	1
164	169	1
21	160	1
49	131	1
43	167	1
121	159	1
111	146	1
16	31	1
54	56	1
61	140	1
105	109	1
135	148	1
64	67	1
36	166	1
154	161	1
71	96	2
43	60	1
80	84	1
57	106	1
8	62	1
98	104	2
62	158	1
18	36	1
97	154	1
18	37	1
32	62	1
124	166	1
156	163	1
22	86	1
39	170	1
42	53	1
71	87	1
146	150	1
142	144	2
23	58	2
8	166	1
2	35	1
130	172	1
135	161	1
103	110	1
32	93	1
64	89	1
123	127	2
107	120	1
6	75	1
137	167	1
64	78	1
81	95	1
74	88	1
122	144	1
12	24	1
112	119	1
92	105	1
119	156	1
66	72	1
51	90	1
4	42	1
142	162	1
40	146	1
