14	31	2
63	63	9
107	122	4
62	136	1
117	118	3
41	41	15
92	99	4
90	90	13
96	96	10
120	121	11
62	62	14
131	131	11
30	30	13
68	80	6
68	68	7
132	132	10
26	26	4
105	135	2
10	117	1
61	67	1
22	81	10
20	20	15
131	134	5
15	15	8
63	64	5
82	84	5
16	16	7
126	126	7
52	53	4
13	15	3
125	125	10
104	104	11
112	112	9
142	143	3
50	65	2
137	137	15
120	120	12
140	141	4
39	39	18
99	99	10
56	57	1
22	23	1
39	78	5
61	81	3
70	140	4
121	121	10
97	138	4
60	60	7
61	61	6
51	51	10
115	116	5
99	100	6
138	138	26
19	67	1
24	54	2
127	129	2
130	130	17
138	139	4
89	90	5
14	14	15
85	86	3
31	32	6
10	10	8
108	108	7
131	133	4
37	68	1
87	87	3
1	55	3
82	82	7
114	114	7
38	38	5
20	21	5
127	127	14
128	128	14
21	38	1
85	85	9
52	52	9
125	126	7
86	140	6
67	67	13
118	118	7
81	81	23
77	79	6
119	119	12
98	122	3
102	102	9
19	19	20
59	59	8
124	125	2
55	135	1
11	11	8
122	123	4
64	64	16
135	136	7
102	103	7
98	98	7
139	139	11
28	29	4
96	114	8
94	99	2
83	83	8
66	66	14
74	74	12
109	109	8
90	97	1
48	64	2
76	77	3
140	140	8
106	106	5
65	65	10
13	14	4
144	144	5
103	103	6
24	56	10
78	78	10
37	67	4
145	145	5
11	141	2
71	73	2
123	123	9
109	122	2
108	113	1
30	32	2
137	139	5
80	80	9
17	17	15
94	121	2
118	119	6
96	120	2
134	134	9
92	122	2
63	68	2
77	77	4
31	33	3
58	58	14
118	122	3
136	136	3
134	136	5
84	84	8
103	104	2
33	79	2
132	133	7
122	128	2
69	69	10
68	69	6
4	5	18
104	105	3
80	82	5
131	132	4
92	106	2
135	137	4
26	39	4
43	43	4
55	55	6
70	70	5
83	88	10
110	110	3
18	19	2
59	125	6
64	65	8
92	110	5
139	140	9
32	32	18
75	89	3
129	129	6
48	48	6
11	22	1
2	2	7
21	21	7
111	111	10
34	34	3
28	28	5
40	75	3
93	93	14
53	54	2
62	80	5
37	37	10
142	142	5
133	133	11
125	130	2
69	70	8
87	126	4
94	109	4
40	40	7
141	141	5
137	138	4
13	143	3
146	146	3
70	130	2
54	54	19
105	105	3
33	33	13
83	84	1
130	132	2
130	135	3
143	143	7
76	76	15
95	95	3
100	100	2
25	30	5
12	20	3
123	124	6
71	94	1
93	94	4
73	85	5
24	24	8
132	135	2
126	127	4
79	79	6
26	32	2
122	122	13
3	3	3
117	120	3
141	143	3
6	6	4
19	27	5
107	108	7
92	123	1
34	36	2
109	110	3
91	105	4
25	25	4
18	18	5
112	113	4
9	11	3
106	120	3
116	117	8
34	91	1
23	24	2
73	73	7
29	29	12
16	119	2
91	91	11
36	36	14
9	9	9
127	130	2
47	47	6
22	22	14
64	82	1
126	133	2
39	61	3
130	131	3
13	108	1
29	30	7
4	24	2
77	78	6
128	133	2
49	49	10
24	38	1
86	87	4
117	122	3
96	97	4
87	97	3
93	113	5
75	76	4
94	94	5
133	135	2
26	50	4
23	28	2
85	91	2
79	81	1
86	86	6
96	109	2
122	138	2
25	33	2
117	117	9
92	92	12
20	28	5
9	27	4
89	89	6
6	10	1
140	142	1
93	97	1
100	101	3
72	72	7
110	111	3
27	28	7
18	141	2
39	40	3
5	9	2
112	126	1
33	43	7
101	101	2
56	56	9
111	139	1
68	138	2
97	121	3
55	56	3
118	123	2
39	77	2
135	135	4
16	25	1
21	35	1
58	59	3
128	132	3
66	80	5
91	97	2
1	1	6
62	141	3
61	68	1
111	112	3
61	90	5
13	24	1
14	62	6
88	88	9
25	26	5
75	75	4
91	92	2
105	133	4
38	62	6
65	68	3
113	113	5
39	79	4
107	120	2
114	116	1
38	39	2
115	115	6
6	140	4
5	16	2
85	98	1
56	134	1
86	97	2
48	96	2
109	139	1
15	62	3
96	108	2
78	79	1
32	33	1
113	134	3
133	134	1
72	110	3
0	0	4
94	95	1
124	126	2
62	96	2
96	105	3
108	138	2
115	122	3
110	112	9
114	117	1
25	31	2
98	101	1
69	84	4
71	131	1
36	37	1
53	53	2
20	22	3
108	109	4
31	31	6
119	120	3
61	84	6
23	23	6
73	74	2
8	143	1
5	5	3
126	128	1
5	25	1
27	27	5
85	88	3
70	74	3
51	68	3
41	87	1
72	112	1
5	117	2
57	99	1
87	110	2
72	74	1
62	63	4
17	61	1
101	102	2
109	111	2
54	144	1
114	115	1
13	92	1
72	92	3
8	8	4
102	138	2
60	61	1
10	24	3
51	52	4
33	48	1
91	96	2
105	132	2
21	48	4
93	109	1
47	48	3
26	33	2
95	96	3
15	108	2
39	48	2
74	110	3
78	80	3
59	60	1
71	72	5
37	48	3
118	142	1
50	50	2
15	61	2
57	58	2
82	83	4
97	97	4
60	124	1
9	16	1
124	124	5
37	142	1
105	106	2
116	116	3
12	13	1
81	82	4
12	12	1
19	29	1
131	143	3
35	35	1
84	88	1
54	56	1
40	41	1
37	64	2
6	11	1
63	67	2
107	107	2
13	71	1
118	120	1
49	56	1
116	136	1
16	17	1
12	60	2
4	6	2
10	28	1
72	73	1
106	107	1
108	122	1
12	141	1
132	136	1
65	73	1
24	30	2
95	124	1
133	140	1
104	106	2
60	143	1
58	87	1
144	145	3
69	130	2
42	42	1
11	49	1
114	118	2
25	51	1
136	139	1
97	98	1
62	84	1
12	117	1
105	134	1
49	50	1
70	71	1
66	72	1
25	27	1
59	90	1
88	90	1
13	117	1
111	115	1
23	145	1
128	129	1
84	86	2
92	94	2
21	22	1
16	118	1
106	123	1
59	101	1
3	51	1
16	41	1
61	87	1
32	34	1
113	114	2
26	27	2
