87	87	4
89	89	3
99	99	2
3	4	1
84	86	4
15	15	6
86	87	1
145	145	7
112	130	3
144	144	1
33	34	3
91	91	8
103	103	5
37	37	1
119	133	3
42	42	3
142	142	3
100	100	7
110	110	6
51	109	1
8	58	1
101	102	5
115	115	4
19	33	2
135	135	2
34	34	4
79	79	8
13	13	6
134	134	9
33	33	3
50	50	3
87	90	1
29	29	3
74	78	2
62	62	5
40	40	3
27	27	4
141	143	5
85	85	9
22	22	2
116	116	2
83	83	3
122	122	5
25	25	5
120	121	1
104	104	10
32	32	4
68	68	6
104	122	5
95	110	2
140	140	9
80	108	7
126	127	3
93	94	2
55	55	6
60	60	7
73	73	4
127	128	2
97	98	1
28	32	2
114	123	2
132	132	4
123	124	3
18	32	5
11	33	1
94	94	6
18	30	2
61	61	4
131	134	3
130	130	3
112	112	2
118	118	5
21	21	3
9	14	1
83	84	2
88	88	1
105	105	4
34	35	4
134	135	4
85	86	1
143	143	9
17	54	1
3	3	3
65	66	4
140	141	1
14	14	4
102	103	1
9	10	2
28	28	2
141	142	1
124	124	4
8	8	2
75	75	5
70	71	4
50	51	3
105	106	1
10	21	1
75	76	4
17	18	2
12	16	3
84	84	2
66	67	3
126	126	8
18	18	2
23	23	2
57	71	2
98	98	2
95	95	2
19	19	10
119	119	3
125	125	7
136	138	6
17	17	5
30	55	3
64	64	3
137	137	5
30	30	1
28	30	4
6	6	3
69	70	3
64	65	1
136	139	6
101	101	2
41	42	3
96	96	1
39	40	3
137	138	1
139	139	5
135	143	3
117	118	2
51	52	1
10	10	3
53	53	4
52	53	1
69	69	2
15	16	3
127	127	2
57	61	1
67	85	1
132	133	3
20	20	7
94	95	1
60	61	1
21	34	2
127	144	1
118	120	1
118	119	2
120	139	1
48	48	5
104	123	5
23	24	3
142	144	2
70	72	2
135	141	1
115	116	2
73	75	1
141	141	1
104	112	1
128	128	3
80	81	1
117	126	2
41	41	3
117	117	5
87	89	3
111	111	2
123	123	3
76	76	2
114	115	3
5	6	1
81	81	1
65	65	2
138	138	2
4	5	2
128	129	2
91	92	1
113	114	1
93	95	1
133	134	3
11	27	4
139	143	1
68	76	3
59	60	2
61	62	1
116	130	1
63	63	2
113	130	1
69	72	1
7	8	2
2	5	2
135	136	2
99	101	1
93	93	4
133	133	2
146	146	1
71	99	1
109	109	2
120	120	2
93	104	2
122	123	3
71	72	2
1	3	2
60	62	2
142	143	2
2	2	1
80	80	1
20	21	1
89	90	2
82	85	1
26	26	1
54	55	1
108	108	1
71	71	2
0	0	1
88	91	7
139	140	1
62	64	1
42	53	2
70	70	3
47	47	1
138	139	3
56	56	1
105	131	1
42	143	1
72	72	2
109	110	1
9	9	1
81	119	1
62	63	1
36	36	2
61	80	1
82	82	4
92	92	2
110	111	1
43	43	1
119	141	3
34	52	1
41	126	1
91	111	1
86	86	1
136	137	1
49	49	1
131	131	1
124	125	1
67	67	1
18	19	1
126	129	1
47	48	1
90	90	1
16	20	1
73	74	1
33	35	1
104	105	1
27	28	1
26	42	1
116	143	1
74	74	1
17	56	1
68	69	1
4	4	1
57	57	1
