9	10	14
167	168	5
23	23	11
92	101	6
21	42	2
5	5	12
37	37	20
83	83	11
80	82	5
38	38	14
128	128	29
140	140	8
165	165	14
16	17	14
3	3	21
123	123	10
147	147	9
158	158	11
108	136	2
109	110	3
87	87	9
127	127	17
147	148	11
43	43	21
97	99	5
63	110	3
106	106	15
68	69	6
21	74	4
108	108	24
105	105	20
46	46	19
39	57	2
27	27	14
76	86	1
25	25	13
128	158	2
92	93	8
126	126	17
117	117	22
5	75	3
39	40	11
111	112	2
159	159	5
75	75	7
85	85	19
163	164	5
52	53	9
159	161	4
77	77	6
78	78	14
18	18	19
35	36	21
67	67	12
91	91	8
22	22	7
153	153	3
84	84	24
115	116	12
69	69	8
122	122	13
5	7	2
99	99	10
76	77	10
76	76	8
145	145	16
13	13	5
4	4	17
6	6	15
12	12	13
105	130	1
37	38	5
54	54	23
163	163	4
19	19	21
100	100	20
48	48	13
90	91	10
63	63	16
158	159	7
71	71	16
17	88	1
72	72	15
112	112	24
53	53	11
102	102	18
145	146	4
125	125	14
126	127	9
80	80	26
1	33	1
103	103	15
103	158	5
42	42	20
132	133	4
84	85	4
73	73	15
77	78	7
148	149	11
40	40	13
137	137	8
87	88	4
22	24	5
89	89	15
44	44	17
4	5	4
133	133	10
55	55	16
129	129	5
81	81	17
8	117	2
113	113	10
91	94	5
170	170	1
98	99	1
89	95	2
78	79	4
152	152	8
150	151	4
101	103	3
74	74	8
141	141	18
90	108	2
55	56	3
10	10	36
62	62	7
21	26	5
159	160	5
56	57	6
107	108	10
118	118	16
88	88	30
142	158	2
75	87	5
66	66	4
14	14	9
47	48	9
16	16	11
94	94	2
47	49	2
150	150	18
107	141	2
69	70	3
152	153	6
169	169	4
16	21	3
15	15	9
17	76	2
50	51	6
77	80	4
144	144	16
20	20	28
64	70	1
157	157	10
33	35	1
96	97	8
146	158	2
87	89	9
10	14	3
88	89	12
51	51	9
148	148	2
26	26	12
55	142	2
49	51	2
49	49	12
36	36	21
95	102	3
100	105	3
101	101	7
80	84	2
82	82	10
165	166	3
47	47	17
130	130	12
1	2	6
134	134	9
102	104	1
91	92	6
95	97	1
151	151	12
142	142	6
85	86	4
120	120	6
97	97	10
156	156	11
107	107	14
48	49	5
112	115	2
168	169	1
92	92	24
86	86	13
82	98	5
9	116	1
149	150	3
26	37	2
2	11	3
131	131	10
36	37	4
79	80	6
24	40	2
93	101	4
93	94	7
156	158	2
70	71	4
65	65	10
166	167	2
161	161	2
24	25	6
114	115	9
12	101	1
42	43	9
89	107	2
139	141	3
21	22	4
103	105	2
84	87	1
26	84	4
129	152	3
108	135	2
90	170	1
80	103	3
9	36	5
93	93	1
109	151	3
8	8	14
28	28	11
54	55	2
41	41	8
2	2	7
139	139	9
15	16	5
155	158	2
136	141	2
109	109	8
17	17	14
53	54	2
100	103	3
75	113	5
70	70	6
6	7	13
4	74	1
155	155	7
79	83	1
86	87	6
80	83	4
121	121	6
155	157	5
27	28	1
78	84	3
113	115	3
136	136	10
145	166	5
34	34	11
108	109	5
80	141	2
71	72	4
105	108	3
103	160	2
104	127	2
116	116	8
20	21	12
73	74	3
100	109	3
17	18	3
22	23	4
3	4	4
140	141	9
106	107	8
70	85	1
1	1	18
111	113	3
24	45	3
139	140	5
105	106	4
96	96	14
153	154	3
25	40	6
164	166	2
49	50	3
13	88	1
90	90	11
5	117	2
44	45	15
24	24	12
137	138	4
135	135	4
17	111	1
50	50	10
54	56	3
23	24	1
150	152	2
146	146	4
106	165	3
56	56	1
35	35	13
38	39	4
20	74	1
111	111	5
113	128	2
103	104	7
52	52	8
125	130	3
114	116	4
154	154	9
132	132	6
36	38	4
16	20	2
26	27	4
40	55	1
0	0	4
9	9	20
11	11	12
23	39	2
104	105	5
38	52	3
64	64	13
80	81	4
57	82	3
114	128	3
33	34	2
63	70	1
71	88	1
73	86	5
7	7	17
82	83	4
13	14	6
12	16	4
41	43	1
167	167	3
0	27	1
10	11	10
45	45	11
20	26	2
37	41	2
5	119	3
24	44	3
26	141	1
46	47	6
149	149	7
129	130	2
5	28	3
119	119	8
117	118	7
114	114	4
121	122	3
18	19	5
83	89	1
99	101	2
98	98	6
9	12	3
57	62	1
101	109	4
73	75	4
12	13	5
86	88	2
101	102	4
104	113	4
10	12	4
14	22	2
26	136	2
57	57	2
113	114	3
17	80	1
125	126	4
49	68	3
94	164	2
117	126	2
130	131	4
162	164	1
166	166	4
135	137	1
83	84	10
18	75	3
0	1	5
44	46	9
21	21	8
106	143	3
20	23	1
99	100	2
15	22	4
90	112	1
80	106	1
84	86	1
140	143	1
160	161	5
8	16	5
138	138	5
100	101	5
18	20	3
51	52	3
67	108	3
53	141	1
164	165	3
66	79	4
13	36	6
11	12	8
67	68	2
83	96	2
112	126	1
71	73	3
41	42	1
102	105	9
144	145	5
40	41	3
82	96	2
34	35	6
38	40	1
48	54	2
112	113	6
22	25	1
141	142	5
123	124	2
5	109	2
104	104	5
168	168	2
52	143	2
4	112	2
81	82	4
25	37	6
143	146	4
95	96	4
110	110	5
137	139	4
79	79	9
1	3	3
72	73	7
105	131	1
119	120	5
160	160	3
101	114	1
7	34	2
21	23	2
97	98	4
14	27	1
143	144	3
14	15	10
162	162	2
63	64	2
84	92	1
124	124	3
41	52	1
1	5	1
52	66	2
133	135	2
95	95	1
56	73	1
22	58	2
109	150	3
105	140	4
11	17	3
124	151	2
37	39	1
33	33	2
3	121	1
19	20	3
62	63	1
153	155	1
101	147	6
35	39	1
81	83	3
109	147	3
143	159	1
15	21	1
21	27	1
13	39	2
13	34	3
75	76	1
80	144	1
115	115	3
57	69	1
90	92	1
156	159	1
64	68	3
121	126	1
55	81	2
58	58	4
97	100	1
138	139	3
20	27	2
74	75	2
72	146	2
55	67	1
77	113	1
76	81	2
107	149	1
18	21	2
116	118	1
0	44	1
43	44	2
104	129	2
105	145	1
64	65	3
62	85	2
155	156	2
3	5	1
23	58	3
26	42	1
74	87	1
8	12	3
110	111	2
15	27	1
9	122	1
74	86	1
124	125	1
17	89	2
157	158	1
154	155	3
110	112	1
14	24	1
6	13	1
79	145	1
142	159	2
119	124	1
136	137	2
2	42	1
111	126	1
25	56	1
106	139	2
64	69	1
66	67	1
67	81	1
63	72	3
135	136	2
78	105	2
42	135	2
1	34	1
15	23	1
161	164	1
133	134	2
146	147	2
16	18	3
110	129	1
23	86	1
5	14	2
24	39	1
122	123	1
63	111	2
58	81	2
70	86	1
92	125	1
126	128	1
156	157	1
138	140	1
94	169	2
32	32	1
19	23	1
74	76	2
119	125	2
160	163	1
76	113	1
1	11	1
9	118	1
25	38	1
84	95	1
106	130	1
94	102	1
111	150	2
164	164	1
127	158	1
78	81	1
155	159	1
75	81	1
5	118	1
