38	38	6
45	45	21
32	32	17
4	4	2
23	23	12
23	53	3
22	22	7
1	23	10
24	40	2
0	30	3
11	11	8
9	10	1
22	23	6
20	20	10
13	42	1
38	39	11
24	24	6
49	52	2
51	51	16
43	43	18
14	43	4
37	57	3
37	39	15
31	31	13
30	30	11
21	21	3
17	17	7
41	41	4
33	49	3
39	39	12
33	42	3
34	34	11
5	5	10
36	37	3
40	40	5
55	55	16
42	42	18
58	59	2
21	42	3
29	29	2
61	61	3
16	17	6
54	55	1
37	37	7
54	54	7
48	48	13
14	20	1
33	33	13
40	41	20
6	6	5
9	9	14
49	49	6
12	12	10
46	46	12
7	7	8
41	58	2
44	45	8
6	7	5
33	35	2
10	10	10
44	44	13
53	59	2
57	57	14
47	47	16
8	8	5
59	59	5
34	43	1
31	40	1
32	33	3
53	55	3
20	21	1
25	59	2
36	50	1
37	38	6
39	58	1
44	50	3
52	52	11
36	49	8
39	51	1
52	55	4
35	36	8
2	3	8
55	58	2
4	19	2
19	20	2
50	50	3
18	31	1
58	58	10
35	47	1
52	58	2
8	21	2
30	53	2
7	8	3
45	59	2
55	56	5
53	54	2
60	60	7
39	41	3
37	59	1
15	16	6
36	36	11
7	47	1
5	34	4
14	14	5
37	42	2
45	46	2
35	35	22
41	42	1
18	18	3
34	35	2
1	1	4
38	45	2
39	40	1
13	43	3
13	13	2
46	47	4
59	60	2
62	62	5
37	52	7
15	15	3
18	22	4
19	31	1
0	0	5
31	49	2
57	59	2
14	15	1
2	2	4
33	34	1
56	57	3
19	45	2
16	43	2
30	55	6
30	31	3
46	57	5
18	38	2
30	37	1
54	59	3
17	20	1
22	41	1
24	37	3
53	53	4
1	21	3
49	50	6
3	3	1
5	21	1
5	6	3
2	4	2
56	56	4
20	24	2
38	53	1
45	58	2
25	40	2
50	56	2
13	46	3
18	37	1
32	34	1
41	50	2
44	46	1
57	58	2
26	26	1
40	51	1
6	47	1
40	42	1
44	52	1
5	11	1
23	24	2
19	23	1
55	60	1
31	39	1
26	59	1
31	42	1
41	51	2
25	25	1
44	59	2
36	48	1
9	12	2
44	60	1
2	31	1
6	23	1
41	53	1
17	21	1
42	43	2
11	12	1
30	33	1
32	53	2
3	5	2
4	5	1
21	44	2
24	58	1
32	49	1
1	22	1
6	9	1
24	25	1
4	11	1
31	50	1
6	10	1
37	55	1
52	53	1
9	13	1
24	46	1
2	5	1
