19	19	10
9	9	18
23	25	3
162	167	2
36	37	5
99	100	8
169	169	13
77	78	5
62	64	3
109	129	3
179	179	7
5	6	12
36	36	12
8	104	2
89	92	2
6	17	4
7	7	11
129	129	17
52	52	3
64	64	4
7	75	3
129	152	2
166	166	16
72	72	10
152	156	5
95	95	6
123	124	10
152	152	13
122	122	11
127	127	13
151	159	1
168	168	6
116	118	1
5	10	2
35	51	4
93	93	21
13	13	14
136	136	21
154	154	6
40	40	13
63	64	7
78	78	4
30	30	14
153	156	3
29	30	3
115	127	4
165	165	9
123	128	2
129	156	1
3	3	11
124	144	5
4	5	5
177	180	1
121	121	5
103	103	10
116	160	4
155	156	3
34	36	4
158	158	5
133	133	20
176	176	14
124	124	13
9	12	6
54	55	5
15	19	6
129	130	4
148	149	19
30	31	9
13	15	3
41	41	9
157	162	3
81	81	7
55	82	2
1	1	13
45	45	10
91	121	3
17	18	6
116	116	13
127	128	12
23	23	18
63	63	2
155	155	3
31	33	4
55	57	5
138	138	11
107	107	9
161	162	8
30	42	4
114	115	3
5	5	8
90	92	3
102	106	6
71	71	11
176	179	4
94	100	7
36	41	1
26	26	4
135	135	4
41	44	1
136	154	3
60	62	3
88	89	4
39	39	12
116	123	4
113	113	18
172	173	3
20	21	8
76	77	6
105	105	4
13	134	3
106	106	7
31	32	5
42	42	13
60	60	9
18	18	16
15	15	19
9	63	6
91	91	7
28	30	10
102	102	9
115	115	14
168	171	4
27	28	6
66	66	11
28	28	23
9	11	3
123	146	4
136	137	4
89	89	5
111	111	10
77	77	4
117	117	6
25	25	9
133	134	8
119	119	10
22	22	16
55	81	1
31	37	4
88	88	3
92	93	7
61	81	2
35	35	11
71	72	5
56	59	1
91	92	9
66	87	1
134	134	9
151	153	2
106	110	4
2	6	3
31	31	4
107	128	2
91	110	1
60	63	1
160	164	4
170	171	11
159	159	6
144	144	10
22	24	4
92	92	5
25	26	6
87	88	8
75	119	1
139	140	6
161	161	2
9	10	7
38	38	18
88	92	5
114	116	1
147	147	9
33	34	6
11	65	3
85	86	6
64	65	1
11	117	2
142	143	9
42	43	4
90	90	6
49	50	3
27	27	6
4	4	5
167	168	2
37	171	2
105	109	2
10	11	6
11	33	1
20	26	4
171	171	12
11	12	6
20	31	3
169	174	2
111	113	3
16	16	8
51	75	2
87	87	7
153	153	11
143	143	19
55	56	5
50	51	1
83	83	7
12	12	7
29	29	15
88	101	5
57	57	9
174	175	9
33	51	2
58	59	3
20	20	11
10	13	2
40	88	1
8	8	11
12	14	1
174	174	4
108	109	4
32	32	9
29	36	2
115	116	3
126	126	14
84	87	1
150	150	8
91	99	4
167	167	16
16	17	13
177	178	2
37	37	9
125	125	9
121	122	5
25	30	3
20	25	3
165	167	4
39	40	12
75	82	5
53	54	8
86	87	5
17	17	9
138	140	1
163	163	5
104	115	2
13	14	4
107	108	2
36	40	6
11	11	4
2	7	5
22	105	2
73	73	8
19	20	3
82	83	3
97	97	8
126	146	2
23	33	3
106	107	6
8	9	1
142	142	9
173	173	8
0	0	13
112	112	1
35	36	2
169	175	1
112	114	2
2	2	8
9	35	4
41	42	11
23	26	1
146	163	3
178	178	7
33	33	14
101	105	1
2	14	4
120	121	2
17	25	1
140	140	4
180	180	5
91	93	5
66	75	4
52	80	3
163	164	3
175	175	4
130	131	11
156	156	4
12	13	5
44	45	5
111	112	3
53	53	4
71	75	3
98	114	4
118	118	6
61	62	4
38	39	1
148	148	17
162	164	2
85	85	9
71	99	2
74	74	6
126	156	4
83	95	2
128	129	2
38	45	5
157	157	3
149	149	5
79	81	4
96	98	4
124	127	1
131	134	2
6	6	15
119	120	2
128	154	7
3	109	2
158	164	4
3	9	2
52	57	4
130	134	3
152	154	2
52	74	1
107	109	9
171	174	2
21	21	12
5	7	2
141	141	8
139	139	6
75	76	6
101	103	4
146	146	6
54	54	2
114	114	14
133	176	3
123	125	1
18	20	3
142	145	1
136	157	1
105	128	7
116	117	6
172	172	8
55	58	3
99	99	6
84	100	5
66	89	1
20	28	4
26	27	10
158	159	2
162	162	8
135	151	4
132	133	4
6	106	3
164	164	10
6	7	3
138	139	1
165	166	2
87	93	4
131	137	2
94	94	5
109	109	9
65	65	1
104	106	4
135	136	1
43	43	9
132	137	1
41	45	1
26	30	1
37	38	5
64	75	1
2	3	2
157	158	4
68	68	3
49	49	3
73	75	3
71	73	5
169	171	2
147	148	1
96	96	4
14	14	14
9	13	1
92	94	2
159	163	4
20	39	3
157	163	4
10	59	1
126	127	2
3	7	4
53	55	5
24	24	12
95	96	4
169	170	4
128	128	8
132	134	1
171	172	3
49	51	3
66	71	3
132	132	4
160	160	3
156	163	2
120	120	2
38	44	1
100	100	3
152	155	4
147	159	3
94	95	3
91	122	1
137	137	8
53	73	2
19	28	1
82	82	3
108	108	4
119	122	3
5	109	4
38	40	1
56	81	1
60	61	1
15	16	1
46	46	2
23	44	1
178	179	3
164	167	3
56	56	2
117	119	2
13	29	1
10	12	5
118	121	2
160	162	2
27	29	1
13	35	4
32	33	6
76	76	6
55	55	5
62	73	5
157	159	3
18	21	5
8	15	2
31	38	1
15	17	2
170	170	7
64	82	6
60	81	1
19	21	1
52	81	2
128	146	1
94	96	3
162	165	3
24	27	7
113	120	1
19	32	2
62	118	1
146	147	2
123	163	1
81	119	3
109	110	1
23	31	3
100	105	1
59	59	2
101	110	2
135	137	1
27	30	2
12	18	1
101	101	1
164	165	1
2	4	4
21	114	1
21	22	1
40	42	5
90	131	1
118	119	2
172	174	1
61	61	3
28	104	4
115	118	1
149	150	1
10	14	3
110	111	2
157	164	4
10	10	10
128	130	1
22	23	1
168	169	2
57	84	1
23	24	1
42	46	1
2	8	1
150	167	3
58	58	1
80	81	3
43	44	2
59	72	3
57	58	1
163	166	2
4	16	1
133	141	1
131	170	1
15	33	1
159	162	2
152	160	2
130	146	3
89	105	2
127	130	3
12	62	1
104	105	1
51	53	2
73	79	2
134	152	2
13	61	2
151	151	4
28	29	2
145	145	1
129	155	3
75	75	2
8	11	4
52	53	2
151	156	2
34	34	3
83	84	2
126	154	2
13	42	2
50	55	2
98	99	2
136	151	2
98	98	1
163	167	2
24	25	3
127	160	1
130	153	1
43	45	1
0	1	2
16	18	1
62	87	1
128	159	1
56	57	2
35	37	1
60	65	1
158	160	1
36	45	3
80	80	2
93	94	3
125	127	1
31	34	1
140	141	1
146	149	2
165	169	1
120	164	1
5	15	1
105	106	1
13	41	2
146	160	1
108	110	2
106	127	4
152	153	2
6	15	1
87	101	1
65	66	1
104	104	3
58	66	2
33	36	1
162	166	2
75	78	1
86	86	1
149	170	1
125	146	1
33	37	3
84	101	1
88	157	1
64	76	2
94	107	1
34	35	3
61	63	3
58	60	2
33	35	1
18	33	1
117	118	2
84	86	1
143	161	1
21	111	1
93	102	1
9	44	1
101	106	2
84	89	1
83	120	1
9	36	1
52	78	1
10	17	1
176	177	1
14	34	1
81	83	1
125	174	1
19	45	2
130	160	1
53	81	1
33	40	1
59	85	1
100	101	1
130	130	2
106	129	1
62	97	1
28	31	1
59	60	1
