95	95	14
144	144	8
109	109	5
1	1	10
40	41	7
25	25	10
88	91	5
64	85	3
73	73	11
83	83	6
70	128	4
105	105	8
92	106	1
15	16	3
71	71	15
127	130	9
93	93	8
98	99	3
93	94	6
132	132	8
68	69	5
89	130	1
28	28	14
133	135	3
79	79	8
145	145	7
86	86	7
14	15	2
97	97	14
92	92	21
136	136	4
11	11	8
33	36	5
102	104	3
60	80	5
83	84	3
125	125	13
48	48	7
53	64	12
116	116	14
48	50	3
141	142	4
97	98	6
52	52	8
85	85	8
58	58	17
88	88	10
75	75	8
34	35	12
96	96	12
84	84	11
14	14	9
143	143	13
122	122	12
18	73	7
143	144	7
19	19	12
42	42	15
134	134	9
88	93	2
120	120	9
126	126	11
23	23	6
91	91	10
139	139	8
112	112	5
2	2	13
9	10	4
22	22	13
111	132	1
67	68	3
113	114	8
134	143	2
15	15	9
128	128	9
62	63	13
41	41	10
105	106	5
27	121	1
82	82	9
99	105	1
2	4	4
73	74	5
104	141	7
88	89	7
101	101	17
91	132	3
38	38	26
90	91	6
119	120	17
83	88	6
135	135	7
61	61	7
4	51	4
67	75	3
3	3	12
59	62	3
8	14	1
70	70	2
110	132	2
102	102	9
66	68	8
36	37	2
29	29	8
130	130	13
10	10	3
18	18	12
69	69	11
113	115	3
16	16	8
118	120	3
103	104	7
17	33	2
55	55	3
68	73	1
65	65	16
84	102	2
57	57	7
56	56	12
29	30	4
117	117	15
67	98	2
136	140	5
142	142	8
77	79	4
90	119	2
146	146	3
35	35	13
58	59	1
100	101	1
96	97	2
124	124	23
74	75	8
81	81	11
59	64	3
43	43	4
137	137	14
131	131	10
36	41	6
48	51	3
133	134	5
69	70	3
133	138	1
112	117	2
25	26	4
41	42	9
80	116	1
77	89	2
27	27	6
93	134	1
72	73	5
76	78	2
88	114	5
133	143	2
1	2	1
39	39	3
138	138	6
2	3	7
77	128	2
125	127	2
108	108	8
106	106	5
39	40	2
141	141	15
110	110	5
87	87	5
98	98	6
12	22	3
77	78	2
135	142	3
13	43	3
101	102	4
114	114	10
74	122	1
103	103	7
111	113	1
127	127	2
136	138	7
121	129	3
117	120	2
92	109	2
83	92	9
99	100	2
133	133	10
120	121	6
19	20	3
3	6	1
59	59	10
37	48	1
32	33	9
145	146	2
119	119	9
76	77	2
37	40	2
118	125	3
4	4	1
77	80	3
121	121	12
50	50	4
73	76	3
80	87	1
122	125	9
2	9	1
81	82	6
53	53	6
119	121	2
49	51	1
59	60	1
89	89	2
64	66	3
129	129	7
118	121	3
23	129	1
135	140	7
26	26	7
0	0	2
117	119	3
87	93	3
33	33	2
80	80	4
75	123	1
13	13	9
90	90	7
47	50	1
51	52	3
54	64	1
75	89	4
43	61	3
139	141	4
49	52	4
3	4	3
66	66	8
94	107	2
94	95	6
4	5	3
132	133	2
64	64	13
53	54	2
140	140	7
108	111	1
84	87	1
111	111	3
67	79	1
107	107	2
118	127	7
120	123	1
39	53	1
62	62	8
42	61	1
8	8	6
99	99	7
18	21	4
49	50	5
123	123	6
53	59	1
126	130	4
93	112	2
132	139	2
77	77	3
95	107	1
118	118	4
40	40	2
60	62	2
79	84	4
30	128	3
135	136	7
138	139	2
124	125	6
113	113	9
63	72	4
125	126	1
37	42	1
10	11	12
74	74	4
96	98	4
65	84	1
115	117	2
2	6	2
70	89	2
78	78	2
23	24	1
34	52	1
0	6	1
118	131	4
92	111	1
85	113	3
126	131	3
12	12	9
90	128	1
99	107	2
124	131	1
127	129	7
104	104	4
82	99	2
9	9	4
12	13	1
6	6	5
126	140	1
37	37	8
95	96	2
117	132	1
72	72	10
17	19	2
26	119	6
62	64	8
93	95	4
83	85	2
25	27	1
30	30	9
142	143	8
118	119	2
102	106	6
65	66	2
92	108	5
67	67	5
27	124	1
111	112	4
76	76	3
122	123	9
63	66	4
115	115	2
54	55	3
75	76	4
77	84	3
26	121	2
1	49	1
28	29	2
53	60	3
79	91	2
17	17	2
73	129	3
36	36	3
80	81	7
108	109	1
76	123	2
80	119	2
5	5	4
34	34	7
47	47	4
17	18	2
88	127	3
6	50	2
68	68	3
98	136	1
112	115	2
21	21	4
50	52	1
95	98	2
24	134	3
22	23	1
9	11	4
63	64	6
110	136	3
100	141	1
66	71	1
141	143	2
111	117	1
5	51	1
24	24	4
60	61	3
140	141	4
1	3	2
15	26	1
117	118	4
30	31	4
9	114	1
96	108	1
18	19	2
130	131	6
54	54	1
49	49	5
9	16	4
113	131	1
26	122	2
138	140	2
121	122	1
110	135	1
110	134	1
14	16	2
6	13	2
84	85	3
114	131	1
12	47	1
22	25	1
36	38	1
134	135	1
51	75	1
104	105	4
32	32	2
60	60	5
72	121	1
75	126	1
94	101	2
64	102	1
64	65	2
31	33	2
100	102	1
140	142	1
76	79	1
13	40	1
55	56	3
86	98	2
26	27	1
106	107	2
86	99	2
115	116	3
94	94	5
70	72	3
109	110	2
8	48	1
24	25	1
85	107	1
65	115	1
8	10	1
74	89	1
139	140	3
63	63	1
51	51	1
87	109	2
42	62	1
42	43	1
112	114	1
60	87	1
97	107	3
128	131	2
131	132	1
2	12	1
137	138	1
33	34	1
73	123	1
103	118	2
100	100	1
20	20	1
74	76	2
93	125	1
65	85	1
37	38	1
101	104	1
69	78	1
19	28	2
91	92	1
140	144	3
134	140	2
72	127	1
92	93	1
73	79	1
88	92	1
73	83	3
36	42	1
127	131	1
27	128	2
71	90	1
38	48	1
127	128	1
3	13	1
26	120	1
133	139	3
88	120	1
111	133	1
94	122	1
31	31	1
78	79	2
78	120	1
88	90	1
82	107	1
97	108	1
82	92	1
53	55	1
16	17	1
135	139	1
78	102	1
87	88	1
95	108	1
