128	128	7
16	16	1
20	22	7
163	163	6
42	42	7
188	189	5
233	233	4
119	119	5
86	86	5
1	1	5
237	237	3
65	65	9
18	19	3
105	155	2
55	84	2
213	231	2
41	41	2
32	63	2
99	99	6
221	221	6
152	152	6
212	212	4
24	172	3
190	190	6
174	174	12
70	100	1
97	98	3
17	21	1
205	205	7
30	30	7
110	110	4
2	3	1
71	112	2
8	9	3
72	72	5
195	195	3
16	181	5
158	159	6
10	48	7
35	35	3
158	170	2
85	85	5
173	174	7
29	29	6
71	71	6
13	13	4
83	84	4
117	117	3
124	124	1
238	238	1
97	97	2
211	213	2
46	47	5
204	205	5
143	148	2
21	22	1
84	84	5
227	227	3
26	26	9
54	55	1
102	102	10
4	5	4
123	123	2
14	15	3
96	156	3
167	169	2
76	171	3
58	60	3
101	103	2
208	213	1
81	113	2
39	57	1
3	20	1
239	240	3
134	135	2
194	194	5
56	120	1
11	11	4
167	167	2
117	118	1
140	140	3
77	77	2
133	142	2
12	12	10
232	232	2
33	45	6
214	214	5
175	181	2
149	150	5
179	179	5
59	59	9
137	137	10
37	42	7
187	187	5
17	17	4
155	155	9
223	223	8
39	67	3
73	73	7
58	74	2
158	158	2
136	136	2
214	215	4
7	7	8
209	209	5
6	16	1
8	16	1
54	54	5
101	102	2
150	150	5
43	43	7
177	178	3
82	82	8
183	203	3
165	165	3
215	215	3
76	103	2
50	50	4
45	45	4
60	60	9
188	188	1
27	28	2
2	29	3
142	142	2
63	63	8
106	107	1
47	47	2
55	55	8
51	51	2
125	125	8
131	189	1
115	123	1
167	168	2
171	171	8
236	236	2
40	40	2
31	31	4
145	145	3
55	56	3
123	124	4
196	196	3
75	103	3
100	101	3
3	30	3
163	179	1
233	237	1
79	82	2
159	171	2
158	183	1
217	219	1
162	176	1
166	166	2
226	226	4
99	100	1
20	20	2
228	228	2
8	8	3
96	97	1
145	147	1
203	204	2
183	183	3
164	178	1
48	48	5
88	88	1
175	176	2
6	9	2
36	40	1
167	185	1
114	114	4
206	206	1
53	53	4
4	6	5
2	2	3
144	147	4
38	38	2
83	144	4
80	81	6
154	155	1
74	74	6
208	208	3
191	220	4
10	10	5
153	153	3
121	121	8
175	203	4
147	174	4
101	101	3
184	203	4
6	6	4
233	234	2
32	32	3
14	30	1
50	56	2
46	46	1
15	32	2
161	202	3
76	76	2
56	57	4
3	6	2
152	200	2
13	18	1
187	193	1
230	230	1
166	167	2
181	181	3
209	211	2
182	223	2
71	144	3
36	36	4
13	14	2
23	23	9
63	200	3
5	7	2
182	183	4
231	231	2
213	213	2
19	19	1
130	130	1
98	98	5
216	216	4
111	111	2
24	24	5
188	190	3
33	33	2
210	210	2
218	218	4
201	202	4
132	135	1
211	211	1
39	39	2
21	21	2
17	18	4
229	230	1
79	80	1
81	81	2
175	175	3
110	128	1
89	178	3
15	16	1
153	154	1
22	22	4
240	240	2
2	18	2
134	134	3
138	163	1
172	172	2
151	152	3
51	52	3
70	199	4
173	173	1
141	141	4
21	23	2
52	52	8
102	104	4
84	85	1
198	198	1
202	202	1
48	51	3
184	184	5
126	215	1
27	112	1
53	54	6
133	133	3
69	128	2
21	24	2
163	170	4
14	14	3
42	74	2
5	16	2
135	136	1
104	104	4
238	239	2
235	235	2
77	105	1
189	189	3
136	146	4
15	15	4
204	204	5
105	106	2
12	13	3
5	5	2
219	219	2
192	197	2
139	139	2
12	32	1
162	163	1
225	226	3
49	79	2
178	178	1
28	28	6
177	179	1
116	117	1
212	213	3
0	48	2
182	182	1
82	83	3
209	213	2
41	213	1
71	136	2
70	101	2
239	239	1
62	62	3
22	33	2
160	161	1
211	219	1
180	204	3
187	196	1
56	56	3
230	231	3
10	207	2
72	144	1
171	172	2
40	41	1
60	87	3
24	61	2
241	241	1
7	16	1
37	38	2
3	16	1
164	177	1
1	221	4
39	85	3
18	35	1
108	120	2
32	33	1
21	33	2
34	59	1
49	50	1
28	31	1
178	179	1
47	205	1
156	156	2
216	218	1
180	183	2
103	105	1
25	25	1
220	221	2
136	142	1
225	227	2
57	61	1
18	18	2
49	76	2
30	31	2
62	70	3
78	78	1
177	180	2
136	137	2
187	188	1
36	48	1
62	73	1
120	121	2
124	125	1
222	222	1
240	241	1
186	186	1
29	35	1
107	108	3
17	19	1
22	127	1
105	154	1
213	214	2
72	175	1
198	204	1
70	70	1
140	150	1
169	169	1
83	99	1
7	8	1
32	55	2
61	61	1
242	242	1
57	57	1
209	212	2
109	109	2
103	104	1
125	126	1
126	209	2
197	198	1
38	45	1
13	15	1
96	96	1
192	192	1
129	129	1
47	50	2
147	157	1
44	44	1
216	221	1
166	198	1
34	34	1
202	203	1
9	11	1
49	49	1
103	103	1
50	53	1
161	161	1
3	3	1
226	228	1
202	215	1
69	69	1
40	69	1
155	156	1
208	217	1
15	17	1
73	74	1
168	168	1
68	68	1
109	110	1
6	17	1
