53	66	4
68	69	1
62	62	9
57	58	3
96	96	6
85	85	4
93	93	7
62	63	4
28	29	3
82	87	2
39	39	5
102	103	6
76	76	12
44	46	3
52	53	5
63	63	2
65	66	3
32	32	8
79	80	4
29	29	2
74	75	5
53	53	3
60	60	5
50	50	11
50	51	12
100	100	14
35	35	11
22	22	19
86	86	5
41	45	1
34	34	5
59	59	4
75	75	17
66	69	4
78	79	1
30	30	4
87	88	6
51	51	6
19	21	2
70	71	6
101	101	12
103	103	16
23	23	8
99	99	12
102	102	8
73	74	2
104	104	7
84	84	5
78	78	1
46	46	2
52	52	5
21	21	5
38	38	5
66	66	7
88	88	3
31	31	11
54	61	1
97	98	3
65	65	9
45	45	5
36	36	5
27	28	3
55	56	3
83	83	4
77	80	1
72	72	15
102	104	1
89	89	5
71	72	3
59	63	5
67	71	2
98	98	7
35	36	1
82	86	7
71	100	6
82	83	2
94	94	8
54	54	2
91	91	4
74	74	11
28	28	6
67	67	2
51	102	1
80	80	7
91	92	2
73	73	7
55	65	3
75	76	3
55	55	18
68	68	7
56	56	7
53	54	2
89	90	5
102	106	2
99	100	4
27	27	3
25	54	1
87	87	4
33	33	10
53	71	2
42	45	4
71	71	10
58	58	2
100	102	4
97	97	5
81	82	1
44	44	5
77	78	1
25	26	3
61	61	9
90	91	4
90	90	3
64	66	1
82	82	3
95	95	5
20	21	1
86	87	6
29	30	1
64	64	7
57	60	1
78	81	3
79	81	2
44	47	1
42	43	2
46	48	1
43	45	1
103	104	2
85	86	1
83	87	5
106	106	4
32	33	3
81	81	1
25	25	6
40	40	8
24	62	2
99	101	4
36	37	2
93	94	2
92	92	5
70	70	2
87	90	1
72	99	4
31	32	5
66	67	1
102	105	1
98	107	3
105	105	4
19	19	1
64	65	3
25	27	1
93	100	2
41	41	4
49	49	1
77	79	1
37	37	3
26	26	3
92	93	2
57	59	1
43	43	1
49	50	1
48	49	2
34	37	1
61	62	1
65	68	1
69	69	1
51	53	1
32	34	2
67	68	1
101	102	1
32	39	1
77	77	2
59	61	1
101	107	1
47	47	1
47	48	1
57	57	1
53	92	1
74	103	1
45	46	2
94	95	1
35	37	1
