175	175	6
173	179	3
63	73	6
153	153	9
101	104	1
121	121	11
181	181	19
47	52	1
143	144	4
163	164	6
197	197	5
162	162	2
134	134	6
122	123	3
45	45	10
128	128	5
5	6	5
39	39	5
177	179	2
52	53	3
21	21	5
10	10	5
182	183	6
180	180	9
69	69	17
138	138	9
8	82	3
168	168	5
2	8	2
196	196	11
94	94	5
93	93	6
169	169	23
19	19	3
163	169	1
24	28	1
38	38	8
187	195	2
156	157	5
177	177	4
134	135	8
67	68	4
42	42	11
191	192	6
110	110	9
12	12	12
37	183	2
84	85	2
179	179	9
10	11	6
102	103	4
166	166	7
187	188	12
175	178	2
46	46	10
168	169	5
170	170	11
85	85	3
165	166	7
129	129	13
22	179	1
60	62	3
136	136	8
174	175	5
131	131	3
193	193	16
99	101	1
68	68	3
170	189	2
51	51	5
140	140	16
116	116	2
27	27	4
157	157	8
167	169	1
171	171	10
27	46	1
192	193	10
106	106	11
25	26	1
188	189	4
187	187	7
22	22	8
105	106	2
49	49	18
48	49	1
183	183	3
176	189	1
7	7	5
23	24	3
137	137	6
5	5	6
68	69	1
120	120	8
37	38	1
11	11	4
37	39	2
173	173	8
56	56	3
16	16	6
155	156	5
162	164	1
7	26	2
50	51	2
189	191	1
126	127	3
160	160	16
88	89	4
171	187	3
29	169	2
146	146	4
119	119	9
23	23	4
4	5	4
155	155	4
29	30	2
58	58	10
170	187	1
9	9	9
11	12	2
17	17	4
154	154	9
110	114	6
123	123	9
45	46	5
41	75	3
136	137	2
141	141	8
175	176	3
194	194	6
179	180	11
60	60	5
30	30	4
64	65	4
47	47	14
151	151	4
14	16	2
24	25	4
9	43	2
54	54	5
159	189	2
148	149	5
117	117	5
100	100	7
40	41	5
163	172	2
8	8	3
172	172	8
44	55	1
6	26	4
144	146	2
31	32	10
99	99	3
71	71	11
172	195	1
125	125	8
108	108	1
24	24	3
109	110	2
124	124	18
178	178	14
2	28	2
73	73	4
37	37	7
131	134	2
0	28	1
162	163	3
9	10	5
34	34	7
3	3	5
61	61	5
163	173	2
14	14	4
141	142	4
23	25	4
122	122	9
172	193	4
26	26	9
43	43	4
84	84	4
33	33	8
126	126	6
172	196	1
114	116	5
159	159	2
158	160	2
14	190	4
40	40	8
195	195	12
195	196	3
48	48	10
22	26	1
149	149	6
52	52	9
163	163	5
0	0	10
54	55	6
172	176	1
95	95	4
171	196	3
50	50	5
98	98	3
88	88	1
35	36	4
104	108	3
111	172	4
28	28	4
93	94	2
21	22	3
151	153	5
190	191	4
161	165	2
176	177	4
190	190	15
139	139	6
5	12	2
170	195	1
108	110	2
159	181	1
185	185	7
80	80	4
168	185	6
25	25	4
196	197	5
135	136	2
4	8	2
38	62	6
57	57	4
154	155	3
93	95	1
108	117	3
184	184	4
138	139	1
142	148	2
15	31	2
113	115	3
60	61	3
76	77	4
55	56	5
159	160	1
173	194	1
78	80	1
189	189	11
32	32	5
142	142	12
143	143	2
115	115	1
71	118	1
49	50	5
130	131	4
110	174	1
192	194	4
188	188	6
106	109	3
46	47	2
186	197	2
79	86	3
81	81	2
63	93	1
142	145	3
31	31	4
61	62	5
182	182	8
1	1	5
89	89	4
0	1	3
140	143	4
158	159	10
127	127	10
158	158	3
26	27	4
111	111	2
166	167	2
101	113	3
38	39	5
133	134	2
67	67	6
118	118	4
24	170	1
44	44	10
70	70	1
108	111	1
72	74	5
151	152	4
164	166	2
193	195	3
146	148	2
18	18	2
138	156	2
24	43	4
24	94	3
161	162	1
123	124	2
53	58	4
110	117	1
3	186	3
58	73	3
56	57	2
70	71	1
76	89	1
78	78	2
186	186	7
60	74	3
79	85	6
145	145	5
184	186	3
189	190	2
125	127	4
13	44	1
114	114	3
2	2	3
173	174	2
183	184	1
34	35	4
12	13	2
54	56	1
81	88	1
66	68	1
14	15	2
66	67	2
108	109	1
180	181	4
62	62	2
59	62	1
66	66	3
26	35	1
109	111	2
174	174	2
30	56	2
176	176	3
135	135	2
12	45	1
103	103	2
7	34	1
121	122	2
22	25	2
144	144	2
28	86	4
193	194	2
101	102	2
20	20	2
94	95	6
14	38	1
64	68	1
76	76	2
4	9	1
80	81	3
4	4	6
145	146	4
77	77	1
82	82	2
146	155	2
104	104	3
72	72	4
8	9	1
71	73	1
87	87	1
52	161	1
132	132	6
43	50	1
114	124	2
0	3	1
94	96	1
127	128	2
112	112	2
109	118	4
109	109	2
171	186	2
110	112	1
169	182	3
152	153	4
74	74	2
20	35	2
17	19	2
152	152	1
27	28	4
47	48	1
140	141	2
34	37	2
167	167	3
58	98	1
150	150	4
53	53	10
188	190	2
44	45	1
58	90	1
148	148	4
155	159	3
164	164	2
194	195	2
58	99	1
119	120	1
60	93	1
145	147	1
45	51	1
98	102	2
13	13	5
161	161	2
147	147	5
101	101	2
176	180	1
163	165	2
63	63	4
41	41	4
43	61	2
113	113	4
180	185	4
169	187	1
153	155	2
179	181	1
153	154	1
4	83	4
156	156	3
58	59	1
15	15	2
64	67	1
139	144	1
116	117	1
133	133	2
17	94	1
0	8	1
172	173	1
153	164	1
86	87	1
59	63	1
165	165	2
155	182	2
36	36	3
102	102	1
44	51	1
127	129	5
183	186	1
41	42	1
1	2	1
167	168	3
143	145	3
59	59	1
63	64	1
107	110	2
40	72	1
79	80	2
174	176	1
29	29	3
132	133	5
19	21	1
39	40	2
191	191	2
62	63	1
121	123	4
75	78	1
137	186	1
6	6	2
22	24	1
89	90	1
11	44	1
106	108	1
29	32	1
169	185	1
18	19	2
150	165	1
32	33	2
146	165	1
163	167	1
62	109	1
150	186	1
20	21	1
55	55	1
79	79	1
121	124	1
14	32	1
159	170	1
155	157	1
36	42	1
142	189	1
182	185	1
124	125	1
177	189	1
44	59	1
156	184	1
46	148	1
118	119	1
103	117	1
13	14	1
16	44	1
190	193	1
102	115	1
6	34	1
133	137	1
34	36	1
117	118	1
17	69	1
67	70	1
24	93	1
