114	114	6
31	31	4
72	73	2
75	78	2
30	30	4
93	93	8
130	131	2
135	136	3
17	17	5
75	75	21
94	94	3
107	108	4
6	6	10
21	21	4
85	113	6
13	14	1
12	12	8
4	5	2
106	106	6
84	84	6
20	20	8
86	87	2
7	7	4
115	115	10
122	122	10
17	29	2
83	113	3
76	119	4
25	25	5
123	123	10
16	128	1
140	140	6
107	107	7
83	87	5
124	125	3
103	104	3
136	136	5
2	2	4
72	72	4
3	4	6
24	24	4
102	103	2
22	25	1
71	73	3
23	23	5
82	86	2
130	130	21
21	124	8
5	5	5
126	126	6
97	100	2
105	105	4
110	111	2
9	9	2
118	118	3
92	92	7
19	20	1
77	77	5
129	129	4
35	35	6
127	127	3
28	28	4
83	84	4
7	9	3
25	26	9
122	123	3
89	91	1
110	110	11
111	112	4
27	27	1
18	35	3
81	81	7
3	112	3
111	111	2
18	19	1
124	124	15
14	14	8
119	119	2
128	129	7
32	32	2
17	18	4
126	127	4
71	72	5
120	120	6
36	36	3
71	117	2
35	37	2
35	36	1
15	15	4
95	95	9
28	29	2
16	16	6
96	96	2
116	117	4
115	116	3
128	128	6
116	116	6
78	78	5
15	16	5
76	78	4
89	96	4
7	10	2
121	121	5
102	104	1
33	133	3
82	82	1
4	20	1
83	85	1
19	19	6
37	37	2
104	104	2
18	33	1
37	38	4
29	29	5
98	98	5
26	26	3
18	18	5
135	135	4
100	100	4
113	113	3
87	87	6
8	8	3
10	10	2
26	114	1
84	93	2
88	88	2
92	109	4
112	112	4
72	110	1
17	36	2
131	131	6
8	10	1
104	106	6
18	20	3
139	139	1
22	22	6
84	85	3
81	121	2
74	74	6
91	92	1
103	107	1
91	91	4
134	135	4
87	113	2
133	133	2
114	119	1
102	102	6
78	118	2
34	34	10
80	85	2
101	101	5
11	11	4
94	101	2
109	121	2
36	126	2
117	117	1
134	134	12
3	3	3
104	105	9
16	18	1
98	99	4
123	127	1
95	96	3
77	79	2
85	87	3
113	114	2
15	19	4
34	93	3
21	37	2
23	24	1
82	84	1
23	117	2
6	13	1
83	83	4
80	117	2
4	4	4
132	134	1
24	118	1
75	79	1
129	130	3
68	68	3
78	79	1
80	80	3
138	138	4
79	79	3
114	115	2
137	137	2
101	102	2
11	95	1
79	117	3
92	99	3
21	22	1
17	116	1
27	28	1
0	115	1
73	74	1
93	94	3
87	102	2
88	106	2
99	99	2
77	78	2
90	91	1
87	104	2
81	82	4
90	90	1
30	32	1
87	103	3
80	123	2
132	132	1
9	11	1
10	11	1
25	29	2
125	129	1
84	105	1
0	0	3
125	125	2
94	98	1
84	122	1
74	81	1
0	3	1
74	92	1
125	127	2
76	92	2
132	133	1
36	37	1
85	86	1
82	83	1
91	93	1
103	115	1
86	103	1
124	127	1
136	138	1
74	79	1
24	25	1
34	127	1
134	139	1
87	88	1
131	132	1
66	66	1
79	114	1
