162	162	9
143	143	25
46	47	23
102	102	15
147	147	7
3	3	7
129	129	11
135	135	9
26	26	9
181	181	14
107	108	5
141	141	11
92	93	7
56	56	16
109	109	9
93	93	12
63	64	7
30	30	15
11	11	8
90	90	20
117	143	2
28	29	11
67	67	4
165	165	15
42	42	9
153	153	25
68	69	5
119	119	11
10	10	5
112	112	18
139	139	11
13	13	20
28	34	4
123	147	7
92	92	11
95	100	1
59	62	4
7	8	2
83	83	19
182	182	12
116	116	14
179	180	6
157	157	7
103	103	14
114	116	4
40	40	30
148	151	7
25	25	12
169	185	2
67	68	8
36	36	13
23	24	13
79	79	6
127	127	9
155	157	4
173	173	8
16	16	14
62	62	17
101	102	4
174	174	21
13	27	2
167	168	3
31	35	2
23	23	8
185	186	13
35	35	5
8	8	21
118	118	16
71	79	3
34	34	10
32	36	6
149	149	9
53	53	12
0	0	13
161	163	4
38	39	10
11	12	7
86	87	7
71	71	14
99	99	12
96	96	2
63	68	2
154	154	21
131	131	14
96	126	6
98	99	3
20	36	1
93	109	3
95	95	14
137	137	6
140	140	16
55	55	10
164	165	5
38	38	9
28	28	10
160	160	5
48	54	1
84	85	3
16	17	5
70	72	2
100	101	6
12	14	1
78	81	2
172	173	5
41	41	22
108	108	16
94	149	8
119	120	4
45	48	4
163	163	12
65	68	2
88	88	10
104	104	22
17	17	11
15	15	11
76	76	14
167	170	3
82	83	8
21	21	3
83	84	9
106	106	15
136	136	8
141	150	3
132	132	4
74	74	12
82	118	9
74	75	9
189	189	2
133	134	4
108	109	4
105	105	15
77	78	7
46	46	7
70	74	1
1	1	11
40	41	4
81	119	2
157	180	8
137	140	2
10	15	1
97	98	6
95	99	2
86	86	5
30	36	5
9	29	3
68	75	4
187	187	5
77	77	21
70	70	5
44	62	1
111	112	11
158	161	3
156	156	7
130	130	6
154	155	7
150	151	3
184	184	12
122	122	2
142	143	13
136	138	1
2	2	14
33	33	3
94	94	8
155	155	8
71	74	3
84	84	17
169	169	7
170	170	3
66	66	6
48	49	2
120	135	5
68	68	13
41	42	6
157	175	4
110	110	13
2	6	3
64	65	8
65	65	3
3	10	2
153	154	4
138	138	11
6	7	6
61	62	5
118	119	3
100	100	9
130	131	6
6	6	14
7	7	6
39	39	23
157	184	4
48	48	8
12	26	5
99	111	3
146	147	7
62	65	8
93	95	3
91	92	2
90	109	2
57	57	6
43	44	7
19	19	11
158	158	6
188	188	6
31	33	4
3	8	2
100	128	1
104	109	2
103	140	7
134	135	10
30	31	2
123	123	3
20	23	4
126	127	12
28	33	4
161	162	5
30	32	3
111	111	2
104	105	5
159	160	6
85	118	3
152	152	17
70	78	6
133	133	9
133	135	3
145	145	4
87	99	8
43	43	9
95	96	3
75	90	1
89	90	6
90	129	1
125	126	5
128	128	7
26	30	3
88	140	1
99	125	2
10	35	5
99	100	2
121	121	10
5	12	5
120	120	6
60	80	1
146	148	1
117	150	1
80	80	12
100	103	6
130	135	1
27	29	3
151	151	15
78	80	5
157	158	8
44	44	3
172	172	6
93	149	5
88	139	3
94	95	4
83	87	6
186	187	4
176	176	12
175	175	6
137	138	4
72	73	5
159	175	2
12	15	3
117	117	10
109	110	3
17	18	1
130	187	4
24	24	15
82	82	8
24	35	1
97	97	5
156	157	1
62	63	5
89	140	3
31	31	6
22	22	11
70	71	4
19	20	6
22	34	7
81	81	3
113	113	8
44	106	4
135	141	1
11	34	5
72	72	2
15	16	6
27	27	6
91	91	5
101	101	11
158	189	2
91	134	2
174	176	4
121	122	2
71	72	1
134	145	1
5	9	5
20	21	2
162	181	7
56	59	3
24	36	7
76	77	4
78	78	2
18	19	6
134	134	6
119	122	1
179	179	3
62	69	5
54	54	21
135	138	1
40	42	1
63	66	3
14	15	6
32	32	3
14	14	5
5	5	5
128	129	5
15	24	2
55	58	2
29	30	3
12	29	2
161	161	11
79	120	3
57	58	4
126	126	3
106	109	1
160	161	1
4	5	5
92	95	6
170	171	2
31	36	3
72	86	1
122	149	3
25	26	5
89	96	3
175	176	2
80	81	8
121	123	3
55	57	4
75	75	3
44	70	1
9	10	3
10	11	3
187	189	1
167	167	2
43	82	2
29	29	11
131	136	5
183	183	7
157	161	1
47	47	12
152	153	1
91	94	1
84	145	4
138	139	2
115	116	1
68	81	2
53	55	6
143	144	2
60	60	8
91	95	2
2	3	1
58	59	1
115	115	4
66	73	2
28	30	5
93	97	3
149	150	5
107	115	2
127	128	5
190	190	3
129	131	4
86	115	3
72	74	3
24	33	2
179	183	2
134	141	3
90	151	1
164	172	1
55	64	4
13	26	1
110	114	4
163	164	4
162	163	5
96	98	3
98	111	2
186	186	8
36	37	11
45	46	5
109	111	2
23	26	1
171	171	9
99	110	9
100	102	1
120	121	4
178	180	2
96	114	1
158	159	1
153	188	1
86	100	1
84	88	2
107	111	3
16	21	2
58	60	1
168	169	1
48	52	2
53	56	1
165	173	4
171	181	1
59	61	2
10	28	4
45	45	8
31	32	4
10	12	2
180	180	4
180	181	8
24	25	7
126	128	7
61	63	3
66	67	4
21	22	4
156	189	2
9	14	1
132	136	1
114	120	1
90	99	2
15	17	3
104	163	1
81	83	4
144	145	2
90	95	2
95	128	6
101	142	2
167	171	1
148	148	5
85	114	2
72	75	1
136	142	2
1	55	4
140	148	2
71	78	2
59	60	7
61	64	2
9	9	1
165	172	2
94	97	1
109	116	1
145	146	1
94	150	4
12	27	1
142	144	3
97	99	3
117	119	1
168	168	2
189	190	3
63	65	3
80	84	1
59	59	8
183	184	3
171	172	1
157	163	2
130	132	3
4	6	2
107	107	1
18	18	6
171	173	1
148	150	1
0	5	2
102	103	7
96	99	2
60	61	2
60	63	3
135	136	2
11	31	1
105	107	1
75	76	4
89	89	5
151	153	1
61	61	1
15	26	4
14	31	1
96	128	3
156	188	1
149	151	1
15	21	1
95	129	4
102	140	2
187	188	2
122	123	2
26	27	3
65	66	2
95	97	3
52	54	1
106	107	2
58	58	2
87	87	7
43	47	2
146	146	3
184	187	1
159	159	5
90	91	3
85	85	5
129	151	3
62	64	1
38	56	2
12	12	4
172	176	1
160	181	1
113	114	1
116	118	3
103	160	1
115	118	1
92	94	2
44	45	2
13	15	1
66	93	1
39	41	2
84	98	1
76	87	1
81	82	2
124	125	2
144	144	2
116	117	1
66	75	1
122	148	2
136	137	2
135	188	1
155	189	1
41	47	1
37	37	1
157	159	3
11	14	1
87	88	1
37	38	1
40	83	1
177	180	2
90	110	1
139	140	1
117	118	2
55	56	1
125	125	2
133	145	1
185	185	1
133	144	1
27	28	1
188	189	1
124	127	1
56	57	1
103	104	1
95	115	1
26	34	1
127	153	1
155	156	2
106	111	1
174	175	1
64	64	1
114	115	1
108	111	1
105	106	1
66	68	1
176	177	1
39	56	1
113	163	1
