100	100	28
42	42	17
44	68	5
62	62	23
65	65	16
79	80	8
68	68	11
37	38	6
60	60	20
54	54	6
39	39	10
40	40	14
93	93	11
75	75	13
93	95	4
43	43	12
58	59	12
55	55	11
56	58	6
72	72	11
24	27	8
86	86	14
49	68	1
90	91	8
97	97	5
71	71	14
36	37	10
88	88	16
67	72	3
41	41	36
36	36	3
75	76	7
62	90	4
91	91	23
44	45	5
89	89	11
69	69	17
56	56	22
50	50	11
98	98	11
57	57	10
40	41	4
47	47	12
66	66	9
89	90	5
78	78	16
90	90	25
47	48	14
92	92	22
37	37	5
48	48	29
25	25	7
76	76	22
36	38	7
27	47	4
48	49	6
83	83	5
57	58	2
49	49	20
64	64	26
76	77	8
24	26	1
67	68	10
47	87	4
37	45	4
61	61	12
95	95	13
54	55	10
73	73	15
44	44	13
99	99	15
53	54	6
49	56	4
51	51	23
97	98	5
80	80	9
35	37	1
95	96	5
87	87	4
74	75	8
64	65	3
37	39	5
31	83	3
30	30	2
35	35	6
59	60	5
33	33	8
96	98	4
84	84	8
91	92	7
61	95	6
93	100	4
50	85	1
31	32	1
24	24	5
67	67	17
99	100	8
42	43	10
57	62	2
31	31	16
57	59	4
70	70	10
69	71	2
100	101	2
92	93	5
35	36	2
29	29	4
69	70	8
45	45	14
95	99	4
46	46	3
56	57	2
102	102	6
59	59	18
64	74	2
52	52	7
87	97	6
53	53	12
61	62	4
101	101	7
49	50	7
49	52	2
23	25	3
85	85	21
58	58	6
81	81	19
65	77	1
40	44	3
61	71	4
34	34	8
54	62	3
82	82	3
94	96	3
27	31	1
46	47	5
26	26	4
96	97	2
28	28	2
41	42	4
52	55	1
61	91	2
51	56	3
70	71	2
51	55	2
86	89	2
32	33	4
87	88	2
29	30	3
65	74	1
38	38	2
79	79	7
34	35	5
68	74	2
86	88	2
65	68	1
80	81	1
57	63	3
93	94	2
66	68	1
39	40	3
51	52	4
32	32	6
75	77	1
22	23	1
43	44	3
45	49	1
94	94	6
74	74	8
72	73	5
78	79	4
27	28	2
66	67	3
60	62	2
64	69	1
63	63	12
22	100	1
49	55	2
68	69	7
54	60	1
85	86	3
68	70	3
33	34	3
35	38	2
52	63	2
65	66	2
55	87	2
65	67	6
30	31	2
33	58	1
47	88	2
86	87	2
60	61	4
38	39	4
53	61	3
61	70	1
54	56	1
77	77	5
52	53	5
45	59	2
79	81	2
24	25	4
91	101	1
87	89	2
27	27	1
55	56	2
77	78	2
53	55	2
78	92	1
70	72	1
63	64	3
61	80	2
54	100	1
23	23	2
22	25	1
96	96	5
74	78	1
84	86	2
66	74	2
50	67	2
49	51	1
48	50	1
91	100	2
59	70	1
71	72	1
81	84	1
98	99	1
83	84	2
76	78	1
84	99	1
23	26	1
95	97	1
98	101	1
89	97	1
98	100	1
27	29	2
62	63	1
20	20	1
26	47	1
86	102	1
