55	128	9
110	110	25
131	131	20
26	26	23
93	93	11
69	90	4
58	58	10
48	52	6
50	50	31
125	128	2
42	42	8
30	30	9
88	89	11
38	78	2
65	66	7
132	132	8
90	90	22
104	104	21
124	124	13
39	114	3
27	39	5
16	21	4
41	42	11
111	113	5
74	74	10
71	99	4
51	51	20
49	53	2
10	10	11
68	101	8
81	130	8
43	52	2
56	56	13
71	96	5
129	129	9
16	97	3
70	70	16
17	21	8
91	91	22
29	29	4
49	49	16
63	120	4
118	118	8
121	121	18
7	7	8
123	123	15
64	109	3
65	96	5
120	120	25
127	129	2
59	59	9
108	109	2
45	81	7
94	94	9
111	111	14
80	80	18
3	3	9
87	89	2
44	44	24
2	58	2
98	98	12
48	51	5
129	130	9
52	52	21
105	105	12
25	25	9
55	55	8
79	79	11
85	86	6
1	1	13
55	115	6
92	92	22
108	108	16
99	100	5
13	13	11
55	113	5
6	6	5
43	43	23
42	118	2
59	60	7
77	86	2
58	71	9
2	2	17
83	83	9
119	119	12
82	129	2
65	109	4
14	14	21
19	19	10
102	102	16
31	32	6
1	120	8
12	12	10
93	94	10
105	106	10
31	120	11
25	27	1
0	65	1
109	109	10
71	71	13
95	95	16
3	117	6
43	101	2
12	39	1
48	53	3
81	81	8
54	113	6
89	90	7
46	47	5
32	32	6
41	44	1
26	114	2
65	116	4
106	106	13
47	52	5
24	24	19
7	14	2
58	59	7
45	47	3
47	47	12
96	96	4
29	119	1
4	4	18
81	88	1
115	115	18
69	69	19
127	128	13
54	129	1
119	125	3
97	98	6
38	116	1
49	51	5
60	60	11
8	8	14
127	127	7
14	17	3
22	22	17
34	34	5
114	114	11
41	41	10
128	129	10
104	125	1
11	79	2
128	128	16
2	117	1
5	79	1
28	28	5
54	61	1
33	33	12
89	92	5
38	39	4
103	103	12
9	10	10
60	62	1
79	82	2
13	14	2
84	84	10
59	71	2
61	62	2
5	11	3
45	46	3
28	38	4
63	63	16
76	76	16
40	117	3
68	68	12
29	33	3
17	17	5
23	30	3
50	51	7
46	52	2
103	125	4
30	115	2
99	99	10
102	103	8
123	124	7
113	114	5
48	48	4
101	102	7
16	16	8
10	12	4
18	18	6
48	54	5
104	124	3
130	131	5
99	119	2
113	113	4
116	116	8
57	128	2
11	53	1
72	72	3
87	87	10
54	99	3
77	77	9
47	48	5
38	79	4
66	67	1
67	91	1
42	43	7
67	68	5
97	97	18
112	112	20
53	101	3
116	117	1
68	103	6
115	126	3
61	104	9
25	75	2
20	20	7
28	29	5
56	113	4
86	127	2
53	54	1
98	99	1
67	67	12
90	103	6
77	78	2
21	21	11
122	122	12
45	45	29
63	94	4
11	11	11
33	79	2
93	103	1
46	51	7
5	18	3
117	124	3
81	108	2
117	117	4
26	27	2
91	92	7
99	105	1
55	116	5
3	119	2
22	30	1
46	46	20
74	75	7
1	2	9
27	77	4
28	118	2
38	38	6
9	92	8
41	43	1
100	108	3
4	18	1
100	100	4
40	102	6
15	15	16
4	5	2
28	41	3
45	102	1
53	53	5
56	57	9
109	110	6
104	105	3
85	85	10
62	128	1
37	38	2
98	103	3
126	126	7
62	62	13
31	31	5
95	96	3
62	89	2
85	95	2
121	122	3
8	10	8
23	25	2
112	113	3
23	29	5
17	19	6
52	112	1
66	109	2
6	126	4
126	133	9
76	117	6
40	40	6
54	54	10
98	100	1
66	66	10
71	105	2
18	99	3
94	95	8
8	9	1
52	54	6
58	125	2
19	20	1
10	80	5
70	71	4
7	8	1
18	22	5
5	22	1
1	93	1
2	53	2
62	127	3
104	108	2
78	78	6
90	91	5
29	30	5
11	13	3
82	98	5
27	120	4
130	130	11
58	105	4
23	27	2
53	58	2
125	125	9
108	113	2
107	107	10
85	87	3
59	65	3
25	89	4
73	73	4
116	129	1
98	128	4
125	127	2
54	56	6
3	5	2
18	19	7
64	64	8
62	103	1
45	87	1
92	93	6
120	124	2
82	87	5
109	112	1
10	11	3
28	40	2
0	66	3
101	101	5
62	125	2
107	113	4
106	130	2
5	6	2
41	126	2
32	53	3
0	0	8
76	89	1
11	102	1
27	119	2
89	89	13
75	75	16
32	95	1
23	23	7
4	39	2
42	62	2
113	115	3
25	26	4
28	30	3
94	115	3
133	133	2
61	61	8
90	92	2
26	85	2
4	118	2
56	115	1
6	20	1
16	17	4
13	101	5
81	98	4
86	86	9
117	121	4
40	41	7
58	74	4
86	91	1
104	121	2
126	127	8
43	117	2
104	126	5
115	124	2
81	87	3
12	13	1
22	23	8
85	88	2
16	78	6
21	28	1
5	5	8
77	91	3
55	93	2
103	104	3
126	128	2
11	101	2
5	99	1
109	111	4
69	91	1
9	9	10
80	101	2
81	82	4
127	130	2
49	50	1
2	26	2
58	96	4
39	39	4
26	41	1
52	53	5
93	95	1
75	76	4
3	22	1
0	55	2
12	48	1
53	57	2
97	104	2
65	65	8
108	114	4
28	112	2
80	82	1
64	66	6
48	49	2
58	106	1
109	122	2
54	125	1
108	115	2
6	21	4
56	123	1
0	9	5
68	69	1
43	59	4
114	116	9
51	52	2
80	131	1
13	15	2
111	112	2
125	131	3
115	129	3
25	108	3
97	127	3
22	81	2
78	79	3
49	68	1
82	83	2
4	13	4
40	101	2
87	88	2
100	101	5
110	111	2
40	42	2
4	15	1
49	113	2
101	116	1
15	18	1
23	130	2
53	113	4
48	66	1
4	79	2
5	14	4
54	72	1
2	76	2
100	118	1
117	118	3
116	118	3
92	94	2
110	113	1
60	92	2
48	118	1
24	130	3
20	22	1
39	67	2
86	87	5
73	80	1
98	107	2
63	64	3
88	88	10
25	39	3
72	74	3
43	45	2
69	70	1
34	99	2
13	20	2
18	79	2
114	115	4
64	106	2
106	107	2
46	117	2
107	111	1
96	105	3
33	84	2
109	116	2
25	28	1
5	33	2
24	129	1
24	100	1
62	96	2
21	130	2
40	52	1
1	49	2
125	129	1
74	129	2
9	18	1
43	61	2
6	7	3
46	64	3
52	64	1
95	102	1
27	27	1
70	93	1
42	107	1
5	10	1
57	57	4
80	109	3
2	27	1
55	104	1
22	29	1
76	90	1
23	82	2
58	66	1
68	120	1
115	118	1
60	74	1
49	123	1
69	93	2
2	5	1
113	127	1
21	22	1
83	85	1
12	51	1
2	33	1
63	70	1
118	119	1
47	67	1
92	102	1
42	67	1
44	45	1
47	49	2
79	80	1
63	67	1
31	33	1
22	28	1
82	82	4
23	77	1
25	78	1
62	126	1
99	101	1
62	63	1
57	127	1
88	90	1
66	108	1
66	76	1
80	81	2
84	85	2
5	39	1
24	25	2
91	101	3
6	9	2
63	110	1
39	41	1
96	103	2
47	53	1
44	106	1
27	31	1
22	79	1
57	133	1
17	18	1
13	100	1
15	22	1
16	22	1
77	81	1
115	116	1
55	94	2
43	44	1
55	62	1
5	13	1
83	84	2
19	25	1
20	80	1
61	126	1
3	97	1
66	68	1
25	117	1
42	64	1
78	118	1
56	72	1
131	132	1
72	75	1
76	77	1
64	65	1
108	112	1
56	116	1
