39	42	3
127	127	4
123	123	14
102	102	13
16	16	15
111	124	1
8	8	10
111	113	4
71	72	1
43	43	3
117	117	4
0	6	1
61	61	3
116	117	2
126	127	5
96	96	2
75	76	10
79	79	11
70	71	4
21	21	18
28	80	3
40	42	4
4	65	1
6	6	10
42	54	1
27	27	3
33	33	8
7	8	4
98	98	10
78	79	6
72	72	10
35	35	6
17	17	8
5	6	5
91	97	4
89	89	4
120	120	13
76	77	10
92	92	2
3	3	8
107	108	4
10	10	6
131	132	3
62	62	4
7	7	9
129	129	2
119	119	5
93	94	2
40	41	3
107	110	1
31	31	9
116	116	4
4	5	1
111	112	6
94	94	7
13	13	7
102	107	1
19	25	1
117	118	5
18	18	7
79	80	3
74	74	11
51	55	2
78	78	4
80	81	3
36	43	2
82	107	2
133	134	1
34	35	2
60	61	3
26	47	2
96	97	5
5	65	9
66	66	4
82	133	1
44	45	5
10	11	2
110	124	4
84	84	11
41	41	3
88	89	6
60	60	4
48	96	2
26	26	11
9	9	6
32	32	7
61	72	1
65	65	11
36	36	6
14	84	1
121	121	2
37	41	2
69	69	6
82	82	3
31	32	5
19	45	3
4	4	12
70	70	3
81	111	1
32	33	5
45	45	13
69	70	2
31	45	2
37	39	4
113	115	3
28	30	7
40	44	1
15	16	3
34	34	8
95	95	9
10	12	2
58	59	1
47	48	1
113	114	1
33	34	3
99	100	1
12	19	1
11	11	7
90	94	6
8	9	4
27	96	2
63	63	10
118	118	6
81	81	5
18	75	2
106	107	1
14	14	6
91	92	1
27	28	7
3	86	5
8	106	1
29	29	6
38	46	2
108	108	12
9	12	1
113	113	7
87	127	1
26	27	2
93	95	1
21	78	2
46	46	5
37	37	6
35	70	8
75	75	7
62	66	1
101	101	6
57	57	4
99	99	1
42	42	2
92	94	1
100	100	4
19	77	1
24	25	3
9	17	4
30	30	6
83	83	5
2	102	2
28	28	5
13	14	4
57	84	5
2	2	6
90	90	1
20	20	5
28	45	1
39	43	1
56	56	1
38	38	2
80	109	5
76	76	1
102	124	3
47	47	6
23	23	5
20	27	2
25	77	1
59	59	5
39	39	2
11	93	2
109	110	1
110	117	2
93	100	3
130	133	2
68	69	1
132	132	2
30	59	2
111	111	5
67	68	4
57	58	1
80	80	5
31	36	2
9	28	1
55	56	2
68	68	2
21	51	3
8	85	1
85	85	4
73	73	1
24	26	1
79	81	2
77	93	2
103	105	1
35	36	1
3	27	2
25	106	2
89	92	1
101	102	2
117	119	1
97	99	3
90	91	4
82	83	4
12	13	2
64	64	3
12	12	5
68	73	1
15	15	6
34	36	1
108	109	3
130	131	4
83	113	2
15	23	2
7	43	2
44	48	1
39	40	2
55	55	5
48	48	5
27	63	2
19	20	3
119	120	1
93	93	3
19	19	5
44	44	4
83	114	3
28	91	2
69	73	1
46	47	4
73	124	1
124	125	1
95	99	3
15	62	1
19	110	1
84	85	1
25	25	3
127	129	1
3	4	2
50	50	1
20	59	2
72	73	1
71	71	2
18	74	2
94	95	2
62	71	2
124	126	3
90	92	3
7	37	1
100	125	1
127	131	1
41	42	5
28	29	1
87	87	2
64	65	1
133	133	2
45	59	1
62	63	1
85	86	2
5	88	2
73	122	2
125	125	2
25	47	1
45	98	1
64	69	2
40	40	3
106	108	1
22	22	4
37	40	1
21	22	4
103	123	1
107	107	4
45	46	3
98	99	1
59	60	2
105	105	2
77	77	3
16	17	1
79	84	1
4	83	1
29	30	2
8	105	1
6	7	1
66	67	1
23	25	1
78	134	2
9	104	2
45	89	1
97	97	2
23	77	1
48	91	1
79	133	2
112	112	3
3	92	2
46	67	2
20	21	2
3	5	2
120	122	2
97	100	1
9	11	1
121	122	2
106	106	3
23	105	2
87	94	2
122	122	1
99	101	1
78	132	1
124	124	1
95	100	1
39	81	1
21	28	1
71	99	1
74	126	1
58	61	1
17	18	1
84	115	1
115	126	1
25	48	2
78	82	1
56	57	1
77	78	1
73	74	2
49	50	1
18	25	1
16	62	1
