9	9	9
40	40	12
0	18	3
9	26	1
11	11	11
20	22	3
2	2	8
48	49	4
53	53	25
37	37	19
43	43	12
57	57	19
30	38	3
23	24	3
0	31	3
54	56	6
55	55	18
49	50	12
34	37	2
25	25	9
33	33	10
52	52	10
14	14	6
4	4	13
41	41	20
39	48	2
44	55	2
42	60	4
32	33	2
51	54	1
10	10	1
4	5	4
17	17	6
54	54	14
34	35	7
45	46	5
5	50	3
45	45	8
42	42	24
40	57	1
35	36	7
31	32	5
43	46	2
51	53	2
39	45	3
46	46	10
59	59	15
9	30	5
42	47	2
8	8	3
20	21	1
62	62	9
37	47	3
16	25	3
61	62	6
33	61	3
0	1	2
6	6	8
13	13	11
40	41	5
8	10	3
39	40	1
47	47	10
49	54	3
8	53	6
54	55	9
39	39	7
59	60	2
0	17	3
44	44	11
48	48	9
30	37	2
26	29	3
36	36	12
15	15	8
41	60	3
43	52	2
34	34	15
19	58	1
36	61	1
35	62	2
31	31	10
17	18	2
30	30	15
38	38	6
58	58	7
5	5	4
51	51	13
56	56	11
3	3	7
46	60	2
32	32	11
32	35	2
19	47	2
35	44	3
50	51	2
23	23	2
49	49	23
9	18	2
51	52	7
35	35	4
0	0	11
30	39	1
23	25	3
20	20	5
4	62	1
51	57	1
33	36	1
10	11	2
18	18	9
36	59	2
12	16	2
16	16	6
30	47	3
0	9	1
16	17	5
13	16	1
30	31	7
7	8	2
11	12	1
58	59	6
47	56	2
16	18	1
55	56	3
46	47	3
30	40	5
15	16	6
50	50	6
18	57	3
1	7	3
29	37	3
14	15	2
44	45	2
49	51	2
18	19	1
22	23	2
23	41	2
40	59	2
9	54	2
1	1	3
42	46	4
31	42	4
52	54	1
38	39	3
39	42	5
19	23	3
22	45	1
48	50	1
56	57	4
18	20	1
1	25	2
42	45	1
9	12	1
24	24	3
31	36	1
51	55	1
21	37	4
40	47	2
3	62	2
16	56	1
32	60	3
6	7	2
3	30	1
14	25	1
6	52	2
1	2	2
6	50	3
11	16	1
45	56	1
33	34	2
22	22	1
11	15	1
43	47	2
45	59	1
60	60	3
41	58	1
12	18	1
19	19	3
47	48	1
1	3	3
53	54	2
8	9	2
19	24	1
12	12	2
42	49	2
17	21	1
36	37	1
39	55	1
0	36	1
13	24	2
61	61	2
44	61	1
32	57	1
60	61	1
7	7	2
49	53	1
18	23	1
33	35	1
21	60	1
