17	29	2
45	45	11
95	95	6
121	138	1
109	109	3
78	78	2
18	18	5
87	87	6
97	98	6
21	21	4
137	138	7
7	7	4
39	39	19
139	139	5
14	15	3
30	31	5
16	16	5
135	149	2
43	43	10
46	46	12
85	86	2
56	56	6
79	79	3
79	88	1
119	119	1
80	81	8
5	26	1
39	40	2
110	111	1
13	14	2
94	94	4
112	112	2
93	93	3
145	145	4
124	126	8
119	122	3
12	28	2
17	17	9
103	103	4
6	6	8
26	26	14
57	146	3
128	128	5
122	138	1
83	99	3
129	134	2
113	113	1
5	14	6
145	146	5
36	36	14
126	126	1
74	74	4
42	42	7
63	64	4
33	34	2
125	125	2
27	27	6
55	57	3
86	86	6
49	49	6
8	9	1
78	81	1
33	33	7
57	57	10
28	28	10
65	65	3
3	5	3
106	106	8
24	25	3
4	4	7
76	78	1
25	29	1
43	44	1
10	10	9
30	30	1
70	73	3
57	74	2
76	79	2
10	15	1
38	43	3
96	96	4
32	32	14
81	81	15
126	132	2
84	85	2
7	24	1
22	23	2
131	131	3
11	12	4
71	71	6
49	50	2
104	105	4
35	35	12
99	99	2
58	58	3
66	66	18
70	70	6
69	69	4
94	99	3
21	22	4
144	144	5
54	54	7
140	148	1
74	82	1
79	80	1
65	86	5
9	29	1
138	139	2
107	108	2
96	97	1
16	18	1
128	129	1
139	140	3
125	144	3
82	82	8
41	41	5
135	135	5
40	40	11
89	90	1
92	92	6
55	55	5
131	133	2
20	20	7
87	88	1
52	57	2
19	43	1
9	9	16
117	117	3
101	112	1
103	109	2
28	29	4
26	27	5
133	133	5
15	20	3
144	145	1
77	77	4
9	10	2
83	83	4
102	102	3
44	45	2
143	145	4
38	42	2
50	83	1
93	98	3
127	128	2
111	112	1
154	154	2
127	127	5
13	13	5
18	48	2
6	7	3
56	57	5
50	51	1
124	124	2
18	19	2
27	33	2
150	150	5
35	36	2
112	113	2
88	90	1
81	82	3
106	114	2
13	24	1
16	19	2
75	87	1
123	127	3
111	111	1
65	66	7
12	51	2
136	137	1
108	115	1
11	11	10
15	15	9
128	132	3
42	119	1
44	44	8
88	88	1
23	23	4
70	71	8
53	53	5
120	120	1
34	34	11
24	24	8
68	68	10
137	143	2
32	35	1
38	39	1
72	74	1
141	141	2
64	65	3
51	51	3
67	67	2
38	38	10
78	86	1
54	55	1
130	130	2
49	54	1
18	30	2
100	100	6
73	81	3
21	24	1
29	30	9
33	38	4
40	41	3
150	151	2
63	93	3
19	19	7
104	104	2
12	13	2
3	3	2
31	31	3
148	148	4
14	16	1
98	98	4
121	122	4
29	29	4
63	63	5
37	37	4
22	22	4
141	149	3
11	13	1
93	94	4
65	74	2
97	99	2
73	73	4
121	150	2
136	138	2
147	148	3
136	136	2
5	51	2
94	97	1
94	95	3
134	134	1
95	96	1
117	146	2
123	132	1
76	76	1
75	75	6
85	85	5
50	50	3
7	8	2
31	32	2
90	90	1
55	56	2
124	127	1
30	37	2
109	111	1
87	90	1
7	151	1
53	54	4
6	22	1
47	47	4
25	25	4
122	122	1
115	115	2
64	64	1
89	89	1
19	42	5
3	7	1
62	62	6
49	92	1
15	36	2
32	33	2
44	119	2
103	104	4
78	99	1
12	12	2
2	3	2
17	25	6
153	153	4
12	31	1
84	84	3
79	86	1
3	50	1
75	90	2
78	80	2
94	96	1
20	21	4
62	63	2
98	99	2
75	76	2
4	7	1
72	72	1
136	147	1
86	88	4
143	147	2
79	81	3
67	85	1
70	96	2
8	8	3
126	130	2
13	52	1
75	77	1
73	75	4
106	107	1
5	5	1
50	86	1
6	25	1
18	37	2
77	79	1
10	21	1
65	69	2
123	124	1
68	69	1
2	2	2
66	68	1
20	24	1
38	40	1
152	152	1
71	73	1
131	134	1
129	129	2
48	48	2
13	19	1
107	107	1
66	94	1
47	48	2
120	143	3
65	94	1
149	151	2
64	99	1
93	97	1
65	68	2
76	77	1
53	118	1
70	77	1
97	97	4
4	24	1
100	108	1
14	29	1
20	120	1
80	82	1
48	53	1
135	140	1
123	143	1
132	132	2
14	14	1
74	76	1
121	121	2
3	12	1
122	142	1
138	138	1
28	32	1
88	145	1
88	121	1
81	100	2
16	17	1
25	27	1
122	145	1
149	150	1
121	145	1
151	152	1
123	126	2
105	106	1
55	73	1
34	35	1
147	147	1
76	93	1
10	17	1
91	91	1
52	54	1
138	150	1
118	118	1
106	113	1
132	133	1
119	121	1
130	140	1
142	142	1
123	146	1
45	46	1
