2	2	13
164	165	12
8	10	5
17	24	2
10	10	16
40	83	1
68	68	14
144	145	10
134	134	9
150	150	7
104	104	16
129	129	8
56	56	12
123	141	2
91	143	2
13	13	9
40	73	3
79	168	4
22	22	12
18	18	4
40	69	4
25	25	6
91	92	5
45	51	3
130	167	7
91	95	4
70	70	11
110	113	2
34	34	19
101	101	9
23	23	18
52	87	1
44	46	3
98	98	8
16	16	18
79	95	1
126	126	11
97	97	10
125	125	10
47	106	1
46	77	3
81	81	1
7	22	6
114	114	5
144	144	8
151	151	10
88	89	3
74	75	7
110	110	22
99	99	10
44	45	2
57	57	7
130	166	1
120	120	2
22	23	3
161	162	7
146	146	17
47	47	10
112	112	9
15	48	2
3	54	2
62	67	3
134	135	15
18	19	19
14	14	15
77	96	4
125	127	2
42	42	17
155	155	3
149	151	2
41	41	14
85	85	7
41	53	2
72	72	15
109	109	13
122	122	4
163	163	11
119	162	1
113	117	1
51	51	4
89	92	1
52	56	3
79	79	6
34	35	5
100	169	1
35	35	5
48	48	15
11	12	3
84	90	3
133	134	11
13	40	1
27	27	15
38	114	4
139	144	1
53	53	13
84	84	5
56	74	1
44	44	7
116	116	18
127	138	2
70	107	2
119	119	8
86	86	4
90	90	9
169	169	6
55	55	8
63	66	4
14	114	7
124	126	4
16	50	3
114	115	9
117	160	1
69	69	12
117	117	8
37	37	10
56	95	2
132	132	4
16	17	1
125	126	8
7	7	8
119	151	2
83	97	4
43	44	1
43	43	21
106	106	12
156	156	2
87	87	13
58	58	11
159	159	4
157	157	6
12	104	3
38	38	6
160	160	12
49	49	24
0	0	6
102	102	6
10	112	2
19	19	9
40	41	1
17	17	11
57	78	1
21	22	11
39	39	8
82	95	3
6	6	9
47	49	9
0	67	2
21	21	9
7	72	3
108	109	5
108	160	2
18	20	6
133	133	17
15	15	5
13	14	9
50	80	1
50	51	11
15	19	2
107	107	6
51	52	11
139	139	6
15	17	1
61	61	3
119	158	5
23	24	5
36	36	9
161	165	6
75	75	2
45	50	3
145	145	6
148	155	2
82	82	9
92	92	3
79	80	8
11	11	28
168	169	3
123	123	19
119	120	4
138	138	5
4	27	1
65	65	3
124	124	3
139	140	2
139	142	4
115	161	3
143	143	7
147	147	4
69	70	1
100	106	1
122	123	5
166	166	6
112	114	7
88	88	9
9	10	5
125	160	1
33	34	3
24	24	7
84	148	1
8	8	8
5	21	1
20	21	2
35	42	1
131	137	1
81	92	1
142	142	2
130	150	1
70	133	3
69	91	1
91	91	7
108	108	10
52	53	6
111	111	17
14	15	6
84	91	2
44	53	2
40	40	6
40	82	2
0	118	1
15	94	2
148	149	7
115	117	6
26	26	23
49	56	2
153	153	5
162	162	14
80	81	7
1	1	2
19	40	3
10	12	2
4	4	13
36	109	2
136	136	7
139	151	5
26	27	4
24	25	4
85	99	7
52	86	1
110	111	7
6	7	8
5	5	9
22	42	1
81	82	2
127	127	3
33	41	2
158	158	4
125	159	4
96	96	9
12	12	7
112	125	1
92	115	1
77	77	9
46	46	4
118	118	9
152	152	8
98	169	1
45	45	14
113	114	4
62	62	8
44	57	5
116	165	1
10	11	6
151	152	7
141	141	3
103	103	7
71	72	3
76	76	2
67	67	5
48	55	2
4	43	7
45	96	1
54	54	15
164	164	16
44	110	4
117	118	1
5	6	1
54	56	3
21	25	1
1	2	7
97	149	3
83	160	3
95	96	5
149	149	7
111	112	1
46	47	2
28	28	7
39	41	4
38	89	1
100	101	5
165	167	3
130	133	6
72	97	3
51	72	3
49	50	7
92	97	2
19	66	2
162	163	3
142	143	2
50	50	4
39	40	6
95	103	2
47	48	4
25	34	1
135	135	5
21	78	3
118	121	1
4	155	5
66	66	7
123	125	2
87	88	3
91	94	1
14	46	3
81	97	1
7	10	1
161	161	4
12	41	3
108	161	1
36	37	4
50	83	1
35	36	1
98	99	3
78	78	9
74	74	2
26	139	1
65	66	2
26	147	4
147	148	2
129	151	2
73	73	7
12	15	1
83	83	3
105	105	9
156	157	7
45	46	3
0	157	1
126	127	2
34	134	1
67	68	5
72	74	2
153	154	2
17	18	5
3	3	9
52	55	1
52	74	2
94	116	1
139	158	5
140	140	8
77	83	5
4	6	3
47	50	4
8	9	3
121	121	3
128	129	4
14	93	1
148	148	5
118	127	5
130	169	2
68	132	1
139	145	2
36	116	1
41	81	4
3	4	2
138	139	2
112	113	2
108	116	2
118	153	1
65	67	2
71	71	8
103	104	2
76	107	1
27	140	1
116	117	1
4	95	3
78	168	1
129	144	2
118	131	2
113	113	6
122	126	3
53	54	4
51	63	2
20	23	2
66	67	1
130	131	1
121	126	2
68	71	1
115	115	8
57	58	2
48	49	4
62	63	1
20	20	2
41	42	6
73	78	2
81	98	7
128	128	3
147	151	2
161	163	1
127	130	2
80	80	3
20	39	1
9	9	4
70	72	2
12	21	2
144	164	7
64	65	2
101	102	3
120	121	4
23	148	2
53	55	6
53	56	1
85	86	3
11	24	1
5	55	3
5	96	1
84	86	1
124	160	2
14	91	4
140	141	2
64	64	5
130	161	1
101	105	1
98	164	1
138	142	1
19	147	4
15	16	3
94	94	3
40	86	2
76	77	1
71	76	1
16	22	2
35	44	2
58	68	1
63	63	8
18	40	2
117	144	1
19	23	2
27	53	3
118	119	4
146	148	4
51	86	2
64	68	1
13	63	1
38	116	1
70	91	6
5	51	1
12	40	1
52	52	3
129	131	2
83	84	1
6	49	5
42	43	1
64	133	2
72	73	1
17	20	3
50	88	1
3	44	2
57	86	1
56	93	2
35	111	1
41	129	4
118	120	2
39	62	1
117	158	2
18	66	1
51	88	2
69	117	2
20	22	1
37	114	3
76	78	2
9	112	5
85	98	2
57	62	1
86	89	2
56	96	3
153	160	1
154	154	3
36	110	3
13	45	1
57	85	1
112	135	1
132	153	1
8	90	1
63	117	1
160	163	1
112	117	1
126	137	1
10	154	1
141	149	2
126	141	1
137	137	2
135	136	2
37	38	3
85	97	1
131	159	2
168	168	2
128	130	2
18	45	1
120	158	1
39	74	1
64	67	3
33	33	2
160	170	2
20	24	2
130	130	1
46	50	1
14	50	3
95	114	4
146	147	1
39	70	1
143	144	1
139	148	1
7	99	2
93	95	3
0	1	1
163	164	2
115	143	3
34	41	1
114	139	1
150	151	1
51	54	1
136	144	1
84	98	2
95	95	1
97	98	3
4	15	1
131	152	1
136	137	1
5	54	1
16	35	2
129	145	1
93	93	2
54	55	3
121	162	3
141	166	4
86	87	1
14	81	1
119	149	1
124	125	2
85	87	2
8	151	1
16	18	1
83	90	1
48	73	1
92	93	1
101	104	1
154	156	3
131	131	1
63	64	1
9	19	1
5	25	1
80	89	1
17	19	2
149	150	2
40	116	1
27	72	1
11	15	2
38	40	1
167	168	1
129	150	1
53	80	1
15	83	1
162	165	3
50	52	2
91	97	1
13	18	1
147	153	1
114	116	1
73	96	1
113	133	1
82	90	1
47	74	1
127	137	1
16	20	1
33	38	1
14	58	1
12	13	1
159	170	1
25	52	1
54	71	1
113	156	1
27	55	1
14	23	1
114	122	1
84	85	1
