12	19	6
24	54	2
53	53	10
49	51	5
39	39	30
31	31	36
52	52	16
34	34	30
56	56	30
33	33	17
41	41	21
40	40	26
40	54	4
58	58	13
51	51	14
42	50	4
45	45	4
32	42	1
44	44	10
20	20	31
45	51	5
62	62	29
10	11	14
0	0	19
53	58	2
31	32	2
32	32	26
13	13	4
7	22	3
48	49	3
21	21	12
30	35	3
46	47	8
50	50	8
34	48	3
6	6	15
44	46	2
41	60	2
55	55	23
19	24	4
38	38	11
53	54	10
3	4	3
47	54	6
6	7	3
8	8	17
32	35	2
58	59	13
42	42	28
21	22	2
46	46	11
37	37	22
10	10	18
49	49	27
33	34	4
18	21	2
2	2	6
49	54	1
59	59	11
38	39	4
31	60	3
35	48	2
60	60	22
7	7	9
30	39	1
50	52	3
3	3	5
35	35	12
39	46	3
25	25	5
40	50	2
37	39	2
15	15	12
39	56	3
22	29	1
24	24	9
43	47	3
4	4	14
54	54	11
22	23	4
43	43	19
22	22	8
0	59	3
47	47	12
48	56	3
42	60	5
48	48	15
61	61	13
60	61	3
35	43	7
32	33	7
32	36	3
6	20	4
36	55	4
36	40	2
47	62	2
34	44	2
3	31	1
11	11	5
19	19	5
56	57	4
49	56	1
43	48	2
9	19	5
57	57	11
3	34	3
30	30	17
19	39	5
5	17	3
40	52	2
40	58	7
45	58	2
33	37	3
12	12	14
38	40	4
34	56	1
41	44	4
0	13	2
1	1	2
40	41	6
17	17	9
2	4	2
35	60	2
51	54	3
53	59	5
36	36	21
48	61	2
15	16	1
41	42	6
54	55	7
1	4	1
23	23	8
30	31	9
51	52	3
40	57	1
44	56	1
38	52	2
38	41	4
41	53	8
37	45	1
29	29	3
45	47	3
36	56	3
17	45	4
18	19	5
44	53	5
18	20	4
31	56	4
54	59	5
9	41	1
45	62	2
36	42	5
9	9	8
34	35	5
5	36	3
18	18	7
37	38	2
40	51	1
50	54	3
18	41	2
9	10	3
1	35	2
8	37	3
31	58	1
51	53	1
42	48	2
16	16	11
46	61	1
30	38	1
46	51	1
2	56	2
17	19	1
39	54	1
18	40	3
14	15	4
14	14	1
20	21	3
44	49	1
19	20	1
1	34	1
17	40	1
8	9	2
52	58	2
49	50	2
29	55	1
50	61	1
11	12	4
33	48	2
0	47	2
50	51	1
55	56	2
5	45	3
45	46	2
17	55	2
49	60	1
55	57	2
5	21	2
2	30	1
35	47	1
24	25	2
13	17	2
44	57	1
53	56	2
45	54	3
47	56	3
44	45	1
4	30	1
35	36	4
33	35	1
32	37	1
34	47	1
42	43	3
34	36	1
1	52	3
43	62	1
0	38	1
43	50	1
16	17	1
58	60	1
45	50	3
53	60	1
44	61	1
36	39	1
12	13	1
29	41	2
45	49	1
19	22	1
8	18	1
9	52	1
10	52	1
17	18	1
13	45	1
30	37	2
18	23	1
57	60	1
36	60	1
40	55	1
36	37	1
