27	77	5
21	21	2
112	112	14
31	31	19
95	95	8
54	54	6
136	136	3
127	152	1
155	174	1
178	179	2
124	124	3
36	36	11
133	133	12
104	107	3
87	97	1
179	179	7
114	118	3
14	17	1
12	12	4
145	154	1
163	165	2
14	14	9
155	156	6
167	168	4
25	25	6
12	14	3
17	17	9
90	90	5
142	142	7
65	75	1
31	34	1
10	24	4
57	57	3
29	103	1
1	1	5
84	84	4
130	130	19
137	137	2
121	121	11
129	164	2
40	40	8
120	141	2
10	28	4
5	5	10
24	36	2
10	10	10
10	13	5
28	28	5
9	9	8
170	171	6
4	4	10
108	108	3
113	113	2
135	135	3
44	45	1
16	16	12
169	170	4
172	172	9
2	2	13
65	74	2
113	115	2
80	81	2
140	140	13
25	26	1
128	151	2
71	71	11
144	144	14
13	13	8
19	21	3
18	19	3
41	42	8
28	29	5
80	84	2
23	23	3
82	101	2
25	37	5
96	96	3
11	11	13
80	80	9
85	85	13
22	22	8
15	16	6
106	106	8
103	103	6
43	43	3
100	101	2
13	14	5
8	9	4
146	146	5
3	3	6
15	15	8
102	103	1
170	170	10
132	133	9
132	132	3
110	110	8
98	99	3
123	123	8
26	26	13
67	67	4
105	108	2
18	45	1
51	76	1
148	148	3
101	170	1
83	117	2
20	20	3
12	13	2
83	86	1
153	153	13
50	54	4
29	31	3
130	163	5
83	83	11
105	136	1
9	15	7
68	73	2
61	64	1
62	62	1
114	119	3
34	34	7
58	58	6
157	158	4
88	89	3
161	162	2
2	3	4
178	178	4
176	176	8
57	91	3
26	27	8
159	159	3
14	28	2
8	8	6
143	144	2
107	127	2
118	118	6
27	27	7
0	0	2
28	53	3
125	125	2
81	81	10
74	74	4
122	122	3
89	89	6
93	93	3
6	30	5
117	118	3
109	109	7
127	127	12
122	132	6
101	101	9
143	153	4
24	24	10
83	84	4
119	120	2
60	61	6
41	44	4
164	164	6
29	29	11
152	157	8
51	51	10
167	167	12
25	38	2
111	111	3
40	41	1
99	99	2
16	17	4
41	45	3
33	33	13
4	6	5
32	32	4
158	162	2
118	144	5
150	151	5
81	82	4
159	176	5
33	34	2
24	25	3
151	157	6
82	99	2
39	88	1
10	11	5
148	177	1
152	152	6
113	134	2
126	126	4
91	92	3
27	34	5
123	124	8
59	59	2
161	161	5
30	31	3
104	104	1
154	156	3
51	66	2
129	172	1
50	50	3
177	177	3
5	20	4
174	174	5
82	84	2
101	102	2
111	137	2
94	94	4
42	42	9
168	169	2
145	145	9
11	20	1
172	176	4
17	18	1
154	155	2
135	164	1
128	129	5
87	87	9
75	75	3
149	153	2
144	146	3
111	141	5
35	35	9
119	119	8
70	70	2
164	178	6
41	41	4
80	95	3
83	102	3
138	138	6
56	57	1
140	162	1
79	86	1
96	104	2
91	91	1
9	28	1
4	5	2
98	113	1
165	165	4
19	20	1
73	73	4
42	44	1
55	55	4
138	142	5
100	100	4
55	56	5
29	30	8
141	142	5
134	134	1
2	15	1
92	92	2
28	34	1
78	112	1
62	63	2
52	52	1
166	166	2
68	68	7
36	37	2
53	77	2
29	36	4
3	4	7
76	76	2
78	78	1
106	107	3
79	80	2
141	141	4
139	139	3
146	178	7
107	107	2
77	77	3
129	129	6
161	163	4
21	22	4
64	64	4
60	60	3
95	122	2
129	166	2
37	37	1
18	18	2
154	154	5
169	169	6
3	8	2
119	142	1
163	163	1
91	107	2
30	30	5
25	85	2
127	128	3
66	66	1
19	19	3
75	100	1
167	170	1
7	8	4
8	15	2
171	171	1
45	46	3
139	141	4
115	116	5
38	38	3
111	112	6
78	120	1
7	7	1
10	14	3
2	4	1
72	73	3
98	129	1
160	160	6
132	167	2
63	63	3
111	140	2
43	44	1
80	106	2
139	164	1
73	74	2
1	36	2
15	17	2
8	22	2
39	39	6
61	61	1
107	109	1
68	74	2
156	157	1
53	58	1
38	43	1
111	152	1
56	56	1
77	80	1
114	116	2
11	16	2
27	36	2
128	128	2
103	104	2
150	162	2
61	62	2
44	44	7
160	179	2
66	67	1
114	121	1
173	173	5
135	136	3
126	159	1
97	102	2
22	23	1
59	61	2
110	111	2
64	65	4
70	71	1
65	65	5
133	139	3
53	53	3
6	6	8
4	7	2
33	37	3
104	105	1
155	155	1
50	51	1
158	159	3
131	132	2
157	157	2
133	137	2
105	105	1
152	153	1
145	146	2
96	119	1
14	16	1
84	104	1
168	168	4
63	64	1
64	67	1
97	97	2
32	91	1
116	116	2
28	37	1
124	130	1
82	103	1
11	12	1
88	88	1
120	120	1
61	65	1
104	106	1
3	5	2
151	151	4
22	28	3
160	162	1
2	11	1
118	122	2
150	150	5
51	75	3
140	145	1
164	165	1
138	167	1
89	92	2
143	143	2
1	2	1
2	29	1
125	166	1
103	133	2
1	10	3
96	97	2
151	152	1
90	96	1
103	105	1
98	101	2
35	36	1
149	149	3
39	40	2
58	73	2
171	172	1
43	81	1
126	127	1
5	7	1
82	116	2
25	78	1
72	72	3
113	114	1
1	5	3
173	176	1
53	90	1
115	115	2
92	94	1
95	96	1
105	106	1
14	15	3
4	11	1
102	102	1
39	41	1
6	12	1
103	111	1
11	15	1
17	44	1
81	171	1
175	175	1
44	56	1
130	164	1
112	126	1
100	113	1
