113	113	7
103	105	2
64	64	11
47	101	1
9	95	5
134	134	9
30	31	6
130	131	2
73	73	8
129	134	2
47	47	11
76	76	8
33	33	10
26	26	15
81	81	6
97	98	9
72	72	9
90	90	8
67	67	11
66	86	4
12	12	18
129	129	8
29	30	4
38	38	14
81	82	1
89	89	6
118	118	3
45	45	11
0	111	1
91	92	6
66	66	22
88	122	4
71	71	9
15	45	2
41	42	8
115	116	6
27	29	4
26	27	2
26	93	3
110	110	10
1	2	3
85	85	10
7	48	4
65	101	2
60	60	7
50	50	4
90	91	3
15	18	2
102	102	8
70	70	7
68	68	13
8	9	4
98	99	4
75	75	12
77	77	6
46	72	5
24	24	4
74	133	1
8	8	6
93	93	8
7	43	3
28	28	15
19	20	1
100	100	2
117	117	7
48	93	1
11	93	1
126	132	6
39	42	2
9	10	2
29	29	5
84	87	5
74	76	3
59	59	10
38	42	5
58	58	2
31	31	6
79	79	4
39	39	4
36	36	4
112	113	5
77	83	5
88	94	1
5	15	4
84	92	2
80	81	3
132	132	7
28	88	2
5	94	1
91	91	4
132	133	4
59	60	7
19	19	6
127	127	3
56	56	6
5	5	4
84	91	2
128	129	4
97	97	2
27	97	1
5	100	1
66	83	9
48	49	5
13	13	7
57	57	10
27	90	5
108	111	1
126	126	6
30	62	2
123	123	7
28	49	3
22	22	8
99	99	9
27	96	2
97	100	3
69	69	10
86	86	7
4	4	8
24	74	1
61	62	2
9	20	3
9	76	2
94	95	7
2	102	3
45	73	1
14	14	7
100	101	2
17	129	4
74	74	2
61	61	14
121	121	1
48	50	4
7	7	5
108	108	4
8	21	1
131	131	8
22	37	2
62	94	1
32	42	4
35	83	2
9	9	10
41	41	3
26	80	3
101	102	3
21	36	4
119	119	4
65	65	9
25	25	2
35	35	7
4	6	2
119	121	6
111	118	2
111	116	1
11	70	2
125	125	9
40	42	1
55	55	1
43	64	1
83	87	5
61	95	3
124	125	2
14	127	1
43	43	1
37	37	6
80	80	3
42	47	2
3	7	1
104	104	8
63	63	4
75	76	6
85	116	3
131	132	5
16	16	3
82	82	5
33	34	3
6	101	5
45	71	1
21	37	2
84	84	9
45	46	4
65	99	2
111	111	5
27	93	2
14	107	2
6	6	5
95	96	3
11	11	14
94	94	11
26	47	2
79	93	1
78	79	7
87	88	1
20	20	10
30	32	3
113	119	1
108	110	5
18	18	2
14	76	1
95	95	3
39	43	2
0	0	1
27	27	4
69	71	2
16	17	1
34	38	2
11	69	1
31	78	5
90	92	1
28	29	2
4	101	2
19	37	9
84	85	1
46	95	3
92	93	3
25	34	1
49	49	2
122	122	1
2	101	2
109	109	3
34	35	2
23	24	2
98	98	4
124	124	3
80	83	3
27	95	4
130	130	7
24	26	8
20	60	1
57	58	1
15	15	3
34	34	2
9	14	2
4	87	2
127	132	2
83	86	1
115	115	2
13	14	1
85	89	2
32	32	1
83	83	2
48	48	7
49	93	2
85	111	3
25	44	2
36	39	1
114	114	2
2	3	2
66	67	4
109	110	1
84	89	2
128	128	2
92	92	10
114	115	2
33	83	3
29	40	1
83	84	3
96	96	4
96	97	2
3	3	3
97	102	1
9	27	3
112	112	3
101	101	4
78	82	1
17	17	1
96	100	5
13	17	3
62	63	3
46	46	1
78	129	1
11	79	5
33	58	4
26	92	1
32	61	4
103	113	3
15	76	2
33	90	3
126	131	2
116	116	1
65	75	1
78	81	1
133	133	1
31	60	1
42	42	1
85	86	2
6	27	1
117	118	2
123	128	1
78	78	5
77	78	2
29	61	1
70	93	2
27	82	1
79	80	1
74	75	1
7	11	1
21	22	1
21	42	2
79	133	1
39	81	3
40	43	3
88	88	6
7	8	2
38	39	1
10	12	2
87	87	2
7	15	1
19	22	1
30	30	2
63	91	3
44	71	1
36	40	1
71	72	2
96	101	4
25	47	1
125	126	1
2	2	4
27	88	2
70	71	2
29	83	1
99	100	1
110	111	3
65	66	1
80	82	1
23	23	3
87	120	1
62	62	1
69	70	1
119	120	1
32	89	2
36	42	1
82	83	2
66	98	1
107	107	1
75	94	1
44	56	2
97	126	1
46	47	1
61	64	1
126	127	1
18	34	1
23	25	1
62	64	1
32	37	2
5	6	2
28	93	1
27	28	2
35	77	1
22	29	1
40	40	1
27	31	1
34	66	1
