171	171	24
112	112	12
25	26	2
168	169	6
245	245	16
29	30	6
195	195	5
63	63	16
191	191	12
32	33	5
79	79	7
239	242	4
224	224	3
71	71	10
181	181	12
160	160	22
212	212	9
152	152	7
177	177	15
168	168	16
17	23	3
184	184	13
93	171	2
81	81	12
220	222	1
41	41	38
47	47	11
210	210	14
42	42	10
69	69	20
31	31	9
236	237	8
216	219	2
49	80	2
84	95	2
201	201	24
221	221	10
174	174	8
115	115	28
240	248	1
213	215	6
212	221	1
82	87	1
187	187	16
236	236	24
18	34	4
185	196	3
13	13	6
109	109	25
107	107	2
161	161	20
100	100	17
155	155	21
215	217	7
161	178	3
194	194	7
9	45	2
225	225	7
27	27	15
117	117	12
52	52	12
209	210	9
222	222	11
84	84	7
113	114	8
166	166	8
247	247	9
158	158	13
169	169	9
85	85	11
242	243	7
192	192	17
40	41	1
9	10	5
205	205	8
203	203	23
26	65	2
239	239	10
22	22	12
119	119	8
183	183	14
108	108	15
20	21	6
20	20	13
240	240	15
56	57	7
59	65	6
234	234	21
105	105	16
156	156	29
227	227	20
82	82	8
214	214	25
190	190	12
63	69	3
30	31	7
65	67	6
236	246	6
26	78	2
6	6	10
89	89	14
164	164	8
153	155	4
94	94	11
206	207	6
16	204	2
116	116	5
238	244	4
5	5	25
159	159	15
76	86	2
49	49	13
118	118	11
180	184	3
153	179	5
99	99	11
187	188	6
200	200	13
34	69	5
111	111	7
36	37	9
60	239	7
34	39	5
227	228	2
68	68	17
9	9	12
46	46	6
211	220	5
4	4	5
150	151	2
196	209	3
15	210	1
208	208	14
186	186	24
86	86	3
65	66	4
237	239	1
18	20	4
189	220	2
114	115	6
154	155	3
161	196	5
64	65	5
18	18	9
153	169	1
147	147	3
87	91	7
19	19	19
7	7	10
102	102	9
72	72	7
68	240	5
209	209	16
54	54	12
49	50	3
93	110	1
197	198	19
102	104	1
194	195	3
4	5	4
104	104	8
53	54	4
38	38	10
52	54	2
182	182	13
173	173	17
55	64	1
157	158	8
84	85	4
110	110	11
24	24	12
228	229	11
212	213	2
93	93	12
73	73	5
33	33	13
14	14	15
94	109	3
243	243	1
242	242	9
179	179	10
174	211	3
170	170	15
75	78	2
35	35	18
158	159	1
62	62	8
163	163	10
13	14	5
178	178	6
213	214	11
150	150	20
199	199	13
217	217	11
43	43	26
177	181	2
151	151	26
207	219	1
25	64	1
198	199	7
190	192	2
220	220	13
85	92	2
37	38	3
92	93	5
176	176	8
114	114	8
211	211	9
59	78	1
87	88	10
65	68	1
110	112	1
233	233	16
12	15	4
216	246	5
207	207	7
82	86	4
189	189	11
56	56	8
95	152	5
196	196	20
53	53	17
193	195	5
68	70	1
248	248	3
219	219	4
94	95	9
145	145	4
7	35	5
154	156	6
181	182	7
204	204	8
6	35	1
153	153	17
72	74	8
72	73	4
230	232	1
102	114	2
170	175	1
203	204	7
40	151	3
239	245	10
180	180	14
158	194	1
100	101	9
193	193	19
170	171	3
231	232	2
178	181	2
167	168	6
39	39	2
211	212	2
202	202	9
152	153	3
216	216	2
115	117	2
98	99	2
181	183	1
35	59	4
12	12	11
30	51	2
224	241	8
67	67	9
96	97	5
44	44	10
160	166	2
167	167	8
52	88	1
18	19	11
179	181	3
188	189	2
80	80	6
228	228	6
229	229	15
180	181	4
79	85	6
59	59	5
43	44	8
7	8	5
87	89	7
19	67	2
19	20	4
107	108	12
74	74	7
161	171	2
65	65	14
77	77	4
33	34	3
3	3	3
237	240	2
15	51	2
79	80	5
101	101	5
19	22	4
1	1	5
90	90	6
176	182	3
40	40	12
204	223	2
203	205	1
78	78	8
173	194	1
48	48	10
175	175	13
161	186	3
177	178	4
210	211	8
76	77	2
182	183	5
85	86	11
163	164	13
95	95	4
115	116	5
8	9	2
237	237	8
69	71	3
189	190	12
32	54	4
110	236	2
213	213	10
61	62	6
5	19	1
92	170	6
106	109	3
5	48	3
12	212	5
54	55	1
154	154	9
247	248	5
62	237	3
64	68	2
11	11	11
245	246	4
163	165	9
10	10	8
185	191	5
37	39	2
185	187	3
113	113	10
23	23	6
4	18	4
3	35	2
113	115	1
163	170	4
46	47	1
231	233	2
161	228	3
241	242	4
60	60	9
97	98	14
102	103	3
215	215	5
186	187	7
159	160	6
91	95	2
188	190	1
157	157	12
169	173	3
204	205	5
25	25	4
216	218	2
88	88	7
240	241	4
92	92	14
233	234	5
18	37	1
238	238	8
237	245	2
81	82	3
64	64	4
161	201	1
117	120	2
87	87	2
59	241	3
50	50	9
51	51	5
162	176	2
110	156	3
116	117	2
246	246	16
209	211	2
92	110	1
174	203	5
28	29	9
110	111	5
87	92	4
58	77	2
218	218	7
207	221	2
58	58	6
91	91	6
244	244	7
76	78	2
218	219	11
57	57	14
76	76	6
10	12	2
90	107	4
30	30	3
79	84	7
242	245	4
16	16	9
73	114	1
19	33	2
162	167	6
14	211	1
171	237	1
150	168	1
34	243	3
108	109	3
83	83	4
187	213	2
22	37	2
232	233	2
216	243	3
23	25	1
10	42	1
14	34	1
84	86	2
86	89	2
223	224	3
34	34	11
211	214	2
167	219	1
22	23	1
226	226	6
192	195	4
96	98	5
10	11	3
101	102	3
111	112	6
71	72	8
86	87	3
146	146	2
173	188	3
86	101	4
156	195	2
7	10	2
165	244	2
90	110	5
103	103	5
7	57	1
56	58	2
37	37	9
152	169	1
41	193	2
239	240	3
59	60	3
202	203	2
237	238	6
186	188	3
221	240	2
14	15	4
47	50	2
216	217	2
243	244	4
97	97	5
165	165	7
183	185	3
191	192	1
185	185	8
83	84	1
29	29	3
149	149	8
165	238	5
214	215	5
84	87	1
35	62	2
52	53	4
185	186	3
184	185	2
111	113	1
161	202	1
183	184	2
75	75	10
11	52	4
57	73	2
66	66	6
57	58	4
98	106	1
238	239	2
42	44	1
153	170	6
238	247	2
230	230	5
198	198	4
210	247	1
8	8	9
186	195	2
144	144	3
162	197	1
66	68	5
28	30	1
17	17	4
42	55	1
160	222	1
20	26	3
224	240	1
172	173	2
38	47	3
26	26	13
36	36	4
27	42	1
78	79	6
15	15	8
243	245	3
162	162	3
241	241	9
62	63	2
216	247	1
99	117	2
44	45	2
22	25	4
58	63	2
39	40	2
172	174	4
206	206	4
175	176	9
55	57	2
156	193	3
155	156	1
75	103	2
26	42	3
234	235	4
160	182	1
111	117	2
97	106	2
153	154	1
35	68	2
235	235	4
83	87	2
58	73	4
238	240	3
232	232	2
60	61	2
21	21	2
48	102	1
189	194	1
84	179	4
164	165	4
208	209	4
27	28	5
162	163	2
188	212	2
7	16	1
212	219	1
47	48	3
146	147	1
172	212	1
45	45	7
13	31	1
6	33	3
5	51	2
98	98	9
32	32	2
99	100	3
6	10	1
61	61	2
187	189	1
158	167	1
51	57	2
40	46	1
172	172	6
220	221	2
165	171	2
11	20	3
198	240	1
14	210	2
11	16	1
58	60	2
47	52	3
68	69	5
197	209	1
46	51	2
6	7	2
20	33	3
56	101	1
230	231	4
117	119	1
167	239	1
12	68	1
165	166	1
93	99	1
68	71	1
63	78	1
39	41	1
2	2	1
229	231	1
95	96	1
19	36	2
89	90	1
162	185	2
78	80	2
67	68	1
201	202	2
91	92	7
96	96	3
21	22	1
188	195	2
7	58	1
217	225	2
81	94	1
217	218	6
167	172	2
215	219	3
246	247	1
107	109	1
14	82	1
225	244	1
120	144	1
25	65	2
108	171	1
207	208	2
30	47	1
33	39	1
66	67	1
13	81	1
57	75	1
210	248	2
69	70	3
28	42	3
111	244	1
90	92	1
231	231	2
101	113	2
238	241	3
93	186	1
34	96	2
220	223	2
87	112	1
169	170	2
29	53	6
173	186	2
158	196	1
242	244	2
176	177	1
51	52	1
12	13	3
94	99	1
194	196	1
42	43	1
75	102	1
202	228	2
43	203	2
158	195	3
212	237	2
13	211	1
33	35	1
197	219	1
197	197	3
164	199	1
18	210	2
43	154	4
94	96	1
91	93	1
49	88	2
161	220	2
157	248	1
166	187	1
229	230	2
171	172	2
177	179	1
152	179	1
223	223	2
70	70	1
20	37	1
72	81	1
178	179	1
182	235	1
67	81	2
174	176	1
63	64	1
167	196	1
6	26	2
218	220	2
41	44	1
20	22	1
32	47	1
158	197	1
196	197	3
245	247	1
186	220	1
51	61	1
59	64	2
188	188	2
171	193	1
31	53	1
154	228	3
14	38	1
120	120	3
224	225	1
24	25	1
177	182	2
226	228	1
221	222	1
7	36	2
93	94	1
210	218	1
88	93	1
77	118	1
193	194	1
26	64	1
95	153	1
80	82	2
94	152	1
152	158	1
38	39	1
216	248	1
198	219	1
165	167	2
34	210	1
160	188	1
233	235	1
119	120	1
2	39	1
25	55	1
68	243	1
219	220	1
94	153	1
103	104	1
54	93	1
72	80	1
8	164	1
81	83	1
209	212	1
109	110	1
