66	67	5
69	70	2
72	73	12
73	73	19
15	16	15
43	43	11
41	55	1
30	54	1
78	78	15
26	26	9
57	57	14
48	49	4
47	48	4
5	7	2
72	72	12
66	68	2
48	48	16
2	3	5
35	37	2
31	31	4
30	30	8
64	65	4
1	1	13
59	59	10
56	56	21
42	43	1
52	52	12
35	35	14
17	18	3
29	51	5
49	50	5
46	47	4
47	47	14
26	27	9
67	69	1
10	10	2
37	66	3
57	58	12
71	77	2
40	40	12
57	72	4
67	67	8
77	78	8
46	48	6
67	68	7
25	25	10
5	5	6
7	7	30
33	50	3
4	4	7
27	28	7
68	68	19
76	76	17
37	37	18
73	74	6
63	66	4
53	70	3
60	61	12
70	70	10
62	65	5
10	50	2
19	19	15
74	74	15
13	14	4
39	39	11
41	41	11
27	27	7
34	53	1
33	39	5
61	62	2
71	71	7
73	79	6
12	14	9
75	76	9
31	50	3
54	54	16
34	34	5
58	66	3
65	68	3
49	52	2
30	71	1
46	46	10
33	33	9
0	0	3
32	63	1
38	38	7
12	12	4
49	49	2
79	80	2
34	49	1
71	81	3
10	11	4
16	16	9
33	34	2
62	75	1
28	31	5
55	55	8
70	71	5
0	39	4
53	53	8
8	32	4
65	65	8
61	61	13
28	28	10
75	75	10
37	76	5
45	45	7
56	72	4
15	15	6
25	33	2
54	72	1
42	67	2
32	32	9
61	66	2
2	18	3
64	64	7
29	38	3
58	62	5
31	32	3
25	32	3
62	63	3
34	52	3
9	9	5
0	1	1
5	14	1
80	80	7
2	2	9
71	72	4
77	77	8
26	46	1
20	20	5
51	52	5
63	64	6
36	37	6
58	58	6
29	29	3
46	56	1
18	18	4
42	42	11
8	21	1
6	6	2
8	8	4
40	65	5
68	69	8
50	50	10
63	63	5
32	40	1
54	76	1
25	27	1
1	2	3
36	38	3
6	10	3
25	39	4
44	45	1
74	79	1
59	60	1
8	9	5
79	79	7
55	67	3
58	59	6
69	71	1
6	45	2
69	69	4
45	48	1
55	75	1
4	47	1
7	8	2
51	51	1
41	42	7
55	56	3
21	21	1
17	19	1
80	81	3
38	66	4
12	16	3
36	36	4
17	17	5
55	58	2
3	3	2
53	54	2
2	5	2
18	45	3
32	33	2
29	56	2
13	13	2
66	66	5
62	62	3
78	79	1
50	51	3
28	32	2
56	71	2
35	36	2
26	39	1
29	47	2
9	10	1
60	60	3
41	65	1
61	64	2
4	5	5
12	50	2
54	55	2
45	46	4
45	47	1
76	77	7
58	61	1
65	66	4
54	74	1
58	60	1
26	47	1
39	40	1
71	75	2
67	71	1
55	57	1
75	77	4
56	67	1
65	69	1
41	44	2
37	39	1
12	13	1
39	48	1
55	60	1
36	53	1
63	69	1
38	40	1
53	56	1
56	57	2
40	73	2
7	9	1
6	8	1
72	76	1
66	70	2
35	39	1
38	39	1
57	80	1
49	54	1
11	11	2
54	60	1
6	21	2
74	75	2
34	35	1
25	31	1
29	30	1
53	72	2
38	77	1
20	21	2
31	64	1
40	41	1
76	78	1
43	57	1
