170	170	26
134	140	5
182	183	6
105	105	10
124	124	20
155	155	13
185	185	19
48	48	17
34	34	25
138	138	11
179	180	18
46	49	1
55	55	13
154	155	8
159	159	23
193	193	11
146	148	7
178	178	13
192	193	18
123	126	5
54	55	6
17	18	6
112	113	6
179	179	25
144	162	2
106	106	15
71	72	8
4	17	3
190	190	16
177	178	9
125	127	7
128	132	2
15	17	5
102	102	12
135	135	11
8	8	8
118	118	9
176	176	9
161	161	12
131	131	16
18	18	11
88	88	5
58	59	4
156	156	13
41	41	18
182	185	1
114	114	4
6	7	4
28	30	5
143	143	21
28	28	17
43	43	21
173	173	27
150	152	7
191	191	21
13	14	13
4	4	20
179	189	1
19	20	4
14	14	18
38	38	9
131	153	5
4	43	5
132	132	9
19	19	13
5	19	3
121	121	6
95	96	9
40	40	17
158	158	32
123	123	18
21	21	19
80	80	14
112	121	6
115	115	9
133	133	20
165	165	18
98	98	7
0	1	16
110	110	20
22	22	12
39	40	7
150	150	19
68	68	25
190	191	4
5	6	4
1	1	12
94	94	17
82	82	15
117	118	10
145	145	9
31	31	20
21	36	2
88	89	2
122	122	17
78	78	11
195	196	4
103	103	14
172	172	25
186	188	6
170	171	14
183	187	2
125	140	3
113	113	8
188	189	5
9	9	12
53	53	15
36	36	19
134	143	7
179	182	5
147	147	14
163	163	7
2	2	10
180	187	1
109	110	4
3	6	3
161	164	2
72	72	28
24	25	8
22	23	7
192	192	26
148	148	12
64	64	9
42	42	6
176	177	11
139	139	25
97	97	10
174	174	5
24	27	6
62	62	22
3	3	10
98	100	1
7	35	1
102	120	2
155	156	6
183	184	2
166	166	25
108	108	20
29	29	14
194	194	14
128	128	15
51	51	12
17	17	11
25	25	21
136	136	19
152	152	18
111	111	8
115	123	1
196	196	27
166	190	2
137	140	8
157	157	29
183	183	25
37	37	11
25	26	5
129	129	17
141	141	12
168	168	11
107	107	24
145	146	10
104	106	9
113	115	6
46	46	17
120	120	13
160	167	1
26	26	27
142	142	8
114	115	15
104	104	8
185	186	8
57	58	6
132	133	8
131	133	2
161	166	7
113	114	6
187	187	18
31	33	4
39	39	21
126	139	1
86	86	2
54	54	19
95	95	7
4	22	4
167	167	22
117	148	3
177	177	25
58	94	1
169	170	7
143	162	2
47	56	2
96	97	11
15	15	12
50	50	8
182	182	16
130	130	15
185	193	4
160	160	20
112	185	1
188	188	17
9	11	2
129	130	5
45	45	9
85	85	2
149	149	27
23	24	9
171	171	6
119	119	16
186	187	5
173	174	4
31	37	3
16	16	18
164	165	5
135	136	13
194	196	3
11	14	4
16	187	3
162	162	9
0	0	22
146	146	12
30	30	22
185	192	4
70	70	10
120	142	4
32	32	6
144	144	23
18	19	14
40	41	6
147	148	13
21	22	4
104	108	2
41	42	11
56	56	14
28	31	3
25	27	2
171	173	3
186	189	4
181	181	25
59	59	12
99	102	2
102	104	5
169	169	15
162	163	13
49	50	5
112	112	15
158	169	4
35	35	11
65	65	2
130	154	3
175	176	8
160	164	4
143	160	1
40	42	3
12	12	16
33	34	3
189	190	13
70	73	3
49	49	10
66	67	1
136	159	3
3	5	1
175	175	11
116	116	9
101	101	8
6	6	10
78	79	2
124	125	4
26	27	11
0	65	2
51	52	6
140	141	4
99	99	6
27	27	15
7	20	3
135	140	4
157	158	8
156	157	5
144	145	1
5	5	12
195	195	16
44	45	8
72	73	8
107	108	7
151	151	7
172	173	1
66	66	13
181	182	3
117	147	2
127	127	17
107	109	2
83	84	3
126	126	6
141	176	4
3	4	7
124	139	3
10	11	5
0	43	3
100	100	16
99	103	3
102	121	1
152	153	6
178	179	5
7	7	7
33	33	16
24	24	15
11	22	4
37	38	3
44	44	7
143	144	3
57	57	10
29	32	2
166	189	4
47	47	11
59	67	4
171	172	2
113	148	3
179	188	2
138	140	2
58	58	17
158	159	4
154	154	11
81	81	9
110	184	3
153	178	1
184	186	8
137	137	4
23	23	19
76	76	5
14	16	3
73	74	3
163	180	2
165	166	6
109	122	1
167	168	5
42	43	7
146	147	4
184	185	7
4	5	6
22	27	1
87	87	5
16	17	4
16	23	1
125	126	5
99	100	4
160	161	5
31	32	2
2	4	4
70	71	7
180	180	17
150	151	7
131	152	4
115	116	4
13	13	16
177	180	1
166	167	11
10	14	4
46	47	8
38	44	1
0	26	6
35	36	12
38	53	3
11	11	7
148	149	4
101	104	1
139	140	3
44	46	5
193	194	3
197	197	7
0	2	2
5	7	3
0	28	1
114	122	5
27	28	6
53	54	10
56	57	3
122	123	4
167	171	1
79	79	8
118	119	2
102	103	5
84	85	2
1	2	7
9	13	1
106	113	4
100	101	7
126	127	10
184	187	2
105	106	9
123	125	3
45	46	1
77	77	2
61	64	3
19	22	1
0	37	1
156	158	6
184	184	15
101	103	2
28	33	2
61	61	6
189	189	18
10	12	3
30	31	6
38	59	1
62	68	2
16	184	1
102	110	2
140	140	15
106	107	8
149	151	1
19	21	2
135	174	2
144	153	1
161	174	4
186	186	5
82	90	2
128	129	4
60	61	3
130	151	1
50	51	10
32	33	9
130	153	2
20	21	5
153	153	5
1	4	3
176	179	2
89	89	5
163	164	4
50	52	1
52	52	11
109	109	5
129	152	4
120	121	13
114	125	3
20	20	6
133	142	1
18	21	1
146	176	1
142	143	5
30	33	2
74	74	10
194	195	5
10	42	6
88	93	1
47	48	2
187	188	10
8	15	2
173	192	1
189	192	2
139	177	1
127	150	3
133	138	2
108	122	2
23	25	5
119	121	1
67	67	14
134	135	5
2	3	2
16	191	2
0	3	1
173	175	2
177	179	2
34	35	1
101	106	5
152	159	1
147	178	3
64	65	9
41	43	2
145	165	1
126	140	1
8	9	4
63	64	1
123	141	1
73	73	7
87	88	2
14	23	1
28	29	3
187	189	2
96	96	18
134	136	3
173	176	1
136	176	1
128	140	1
107	121	7
168	169	7
93	94	1
118	139	3
191	192	4
104	107	3
82	84	2
164	164	9
136	141	1
109	112	1
163	166	1
172	175	1
176	178	6
94	95	4
37	60	2
28	34	1
20	23	1
63	63	3
151	185	2
77	78	2
16	33	1
148	157	2
133	134	2
25	31	1
21	64	3
155	157	1
172	176	1
146	151	2
137	138	5
161	163	4
86	88	1
133	143	1
130	131	5
136	137	3
11	12	2
180	182	2
54	56	4
135	137	2
83	87	5
7	8	2
159	160	1
134	134	13
158	167	6
181	189	1
83	83	4
180	181	2
4	25	3
132	158	2
100	173	4
69	69	3
112	114	3
9	12	2
162	166	1
107	120	1
132	144	1
161	162	1
86	87	3
39	43	2
29	30	1
38	58	4
148	178	3
172	174	1
101	102	1
60	60	1
166	191	1
138	139	8
98	99	1
125	125	6
162	164	5
155	158	3
193	195	2
164	178	1
30	32	1
150	177	2
110	122	1
5	30	2
131	157	4
80	81	3
71	71	5
159	168	2
93	93	2
145	147	1
119	120	1
69	71	1
196	197	4
129	168	1
64	66	4
23	27	3
123	127	2
128	130	1
85	87	2
5	25	1
31	38	1
61	63	2
167	169	1
12	40	1
57	94	1
161	167	1
188	190	2
79	81	2
154	158	2
84	84	3
164	177	1
93	97	1
3	17	1
102	105	1
148	150	1
131	144	1
9	14	4
8	16	1
149	150	3
81	86	4
24	26	2
15	18	2
110	111	3
78	85	2
85	86	1
120	141	1
38	39	2
123	124	1
9	10	6
148	173	1
136	138	1
52	53	2
151	184	1
81	85	1
5	8	5
125	128	1
119	138	2
93	96	1
126	142	1
69	70	1
98	176	1
10	10	2
134	142	2
32	43	1
122	139	1
22	24	2
55	56	3
151	152	3
74	155	1
81	82	1
127	128	2
62	66	1
32	37	2
3	27	2
131	132	1
20	22	1
16	18	1
2	16	1
162	167	2
174	177	3
43	44	2
48	49	1
145	153	4
106	126	1
146	162	1
8	34	1
169	171	1
156	172	1
148	158	1
53	151	1
67	68	3
161	173	2
17	33	1
165	191	3
37	59	2
75	75	1
149	152	1
154	174	1
132	134	2
107	119	2
179	191	1
65	66	3
15	16	3
36	37	1
157	168	2
174	176	3
132	153	1
108	126	1
153	155	2
89	90	1
118	120	1
111	113	1
107	110	1
10	13	1
164	166	1
15	188	1
78	86	3
160	168	2
8	14	1
163	165	3
121	122	1
53	55	1
130	156	2
20	64	2
189	191	1
183	192	1
79	90	1
61	62	2
161	172	1
177	187	2
181	183	1
103	106	1
59	136	1
0	35	1
106	108	1
178	180	1
106	122	1
88	94	1
179	190	1
154	156	1
8	21	1
29	81	1
0	27	1
3	8	1
80	82	1
43	53	1
27	31	1
6	8	1
156	159	1
37	56	1
162	165	1
37	44	1
109	111	1
151	191	1
