86	88	4
119	154	2
81	82	1
2	2	2
108	108	6
9	11	2
1	18	2
129	134	3
123	123	6
153	156	7
17	70	1
100	100	6
139	139	6
73	80	2
143	143	5
110	142	3
22	36	2
3	3	4
138	140	3
135	137	8
102	103	1
83	84	5
10	36	2
154	154	3
12	12	3
113	114	3
39	42	2
45	45	4
157	158	2
121	123	4
71	80	2
18	18	4
20	23	4
142	146	1
116	144	2
30	30	4
0	3	4
9	9	3
41	41	2
122	122	2
98	100	7
157	157	9
153	154	2
124	136	4
2	4	4
122	147	4
17	17	5
116	126	1
153	153	1
16	24	5
137	137	3
25	47	2
99	101	3
153	155	6
85	85	4
39	50	1
134	135	6
26	29	1
116	127	4
84	85	1
116	145	1
136	149	4
104	109	1
127	135	3
82	85	5
132	132	7
7	30	1
141	142	1
125	132	2
101	103	7
104	106	2
152	152	9
119	127	1
104	105	4
10	14	3
105	107	3
129	131	3
126	126	3
117	118	2
93	98	3
146	146	5
126	131	2
96	97	6
111	113	3
52	52	2
120	121	1
69	69	2
102	104	3
18	22	3
20	30	2
72	72	1
114	114	1
94	101	1
147	152	7
106	110	1
71	73	2
66	68	2
25	25	4
113	113	3
25	26	1
67	68	4
98	98	1
142	143	2
7	7	2
132	141	4
132	135	6
131	152	4
126	147	1
82	82	1
16	16	3
17	20	4
146	148	4
35	38	1
92	92	1
151	153	1
94	98	1
150	156	5
10	12	2
108	111	1
52	53	4
27	38	4
17	18	3
10	11	2
15	40	1
49	49	1
34	38	3
37	38	1
45	46	13
120	150	2
69	71	3
112	116	4
57	63	1
129	155	5
113	122	3
20	20	2
34	37	2
115	115	1
126	134	3
142	147	1
33	35	2
108	109	4
156	158	4
156	157	4
119	121	2
101	104	1
144	144	3
0	9	5
50	52	1
37	40	2
97	134	2
81	113	3
68	69	2
48	49	3
84	91	3
4	4	3
124	126	4
77	108	1
65	67	1
66	71	2
131	133	2
13	14	1
128	129	2
78	78	2
96	96	1
19	20	2
41	44	2
21	22	4
39	40	4
17	22	2
46	47	2
18	21	2
72	75	2
95	129	2
46	48	3
147	147	7
23	25	4
136	136	4
12	37	5
119	157	2
140	141	1
86	104	1
82	83	2
66	87	4
2	20	1
27	27	1
1	1	2
73	110	2
122	146	2
116	146	1
92	109	1
50	61	2
123	142	1
71	71	6
155	155	10
70	70	4
141	156	1
21	33	3
75	90	2
18	51	1
0	4	1
154	155	1
49	52	3
105	109	4
129	129	1
65	89	2
12	13	3
80	88	2
77	88	2
63	64	2
8	10	1
54	54	2
136	138	1
45	69	2
99	108	3
64	67	1
155	157	1
105	134	2
69	76	1
103	104	1
64	68	1
33	33	3
133	134	4
77	109	2
26	26	4
131	132	7
9	12	1
69	73	2
100	101	3
53	55	2
125	125	3
101	101	1
128	131	5
93	116	1
126	127	2
34	35	2
63	66	5
94	95	2
95	97	1
78	79	1
11	12	2
156	156	2
27	31	6
98	108	5
106	111	1
77	77	4
68	70	2
17	19	4
5	36	1
147	150	1
107	143	2
13	26	4
79	84	2
109	110	2
48	50	3
11	15	1
95	95	2
36	43	2
50	51	1
117	120	1
51	51	3
9	13	1
137	139	4
113	133	2
106	106	1
151	151	2
87	87	1
124	139	1
88	95	1
35	37	1
146	147	3
99	120	3
79	79	2
102	102	2
136	155	1
45	54	2
158	158	5
132	134	1
83	83	1
116	116	1
21	57	1
75	75	2
66	66	1
97	97	1
24	26	3
112	113	1
68	68	2
79	80	2
150	152	2
22	47	1
144	146	1
24	25	2
93	94	2
135	135	1
71	72	2
14	15	2
53	53	1
3	18	2
15	44	1
85	90	1
26	35	1
7	8	1
122	156	4
75	79	2
9	27	1
4	6	2
77	79	1
106	119	1
43	43	1
85	131	2
134	134	1
153	158	1
114	128	2
88	88	2
138	158	1
140	146	1
9	40	5
82	92	1
1	6	1
92	111	1
138	139	2
73	73	2
141	148	2
47	49	2
128	128	2
140	140	2
124	125	3
141	147	3
116	117	2
29	29	1
75	80	2
19	22	2
129	138	1
33	40	2
14	17	1
1	34	2
125	153	1
152	155	1
91	91	1
121	121	2
87	109	3
18	20	1
118	146	1
3	8	3
51	52	1
73	75	1
138	141	2
145	148	1
122	127	2
90	90	2
32	36	1
142	142	4
1	2	2
82	128	1
5	5	2
124	150	1
122	123	1
46	46	1
52	54	1
43	53	1
11	24	1
133	154	1
15	15	6
110	115	1
149	149	2
80	81	2
133	133	1
33	41	1
105	110	1
20	22	1
1	32	1
31	31	1
111	111	2
1	17	1
89	98	1
106	113	1
8	36	1
93	93	1
113	150	1
42	44	1
54	55	1
13	20	1
84	86	1
28	28	1
103	103	1
70	72	1
14	21	1
5	14	1
136	141	1
92	112	1
101	109	3
139	142	1
10	10	1
98	128	2
42	46	1
16	20	1
118	119	1
5	6	1
0	5	1
32	48	1
77	115	1
135	136	1
34	39	1
125	127	1
11	16	2
79	83	1
1	23	1
45	47	1
