102	102	28
122	122	29
16	21	4
66	66	37
131	133	2
59	62	6
118	118	26
2	2	23
43	66	2
93	94	7
41	41	59
22	22	19
3	3	41
77	78	3
43	43	40
25	26	13
105	107	6
93	93	26
72	73	15
114	115	13
125	126	17
33	33	29
114	114	39
30	30	35
94	94	26
115	115	43
4	4	25
120	121	11
47	47	47
92	92	33
55	56	4
18	18	24
86	87	10
48	48	34
59	60	13
59	61	19
39	39	18
42	42	39
7	7	18
116	117	3
76	76	21
88	89	10
77	77	22
105	106	13
99	99	26
30	31	11
10	11	22
47	48	13
3	8	2
81	81	25
14	15	12
41	42	14
117	117	30
91	92	8
44	44	41
89	89	15
65	65	29
62	62	30
98	98	12
54	54	59
104	105	10
23	30	5
3	5	2
110	111	18
132	132	23
45	46	4
75	75	30
80	91	4
1	1	25
12	13	7
61	62	10
13	14	12
70	70	17
96	104	1
111	111	30
84	85	12
43	44	14
9	10	8
67	68	16
126	126	46
29	31	9
28	28	26
56	56	65
55	55	43
28	29	8
27	27	37
45	45	36
46	46	64
68	78	4
116	116	31
130	130	28
83	83	16
64	64	35
18	19	6
33	42	2
21	22	6
44	56	5
101	125	3
16	20	1
94	95	19
86	86	26
19	21	14
82	82	26
79	81	5
4	5	16
6	6	9
69	70	6
21	21	18
109	109	43
52	52	30
11	12	4
102	103	7
71	71	38
29	30	26
53	53	44
121	121	35
88	88	35
29	29	27
11	11	22
20	64	2
2	7	7
34	34	24
96	96	60
108	108	46
10	10	32
87	88	6
128	129	5
8	9	5
109	110	12
129	131	4
101	101	33
5	5	51
123	123	32
18	21	8
16	16	34
80	81	15
83	84	4
17	17	18
78	78	22
45	47	6
24	25	6
14	24	8
95	96	9
119	120	4
2	15	8
3	4	9
108	111	11
95	110	3
16	17	7
69	69	34
123	124	15
31	32	15
133	133	15
108	109	16
33	34	14
59	59	25
119	119	30
97	97	23
61	88	3
60	60	18
100	101	34
67	67	35
0	0	37
124	124	26
17	18	18
42	43	9
72	99	6
46	69	2
103	103	41
13	39	2
23	23	29
68	68	34
48	49	5
32	33	5
26	27	19
112	112	38
85	85	28
101	103	1
31	31	18
106	107	19
77	100	1
50	50	31
2	5	9
28	42	8
39	41	3
39	40	20
2	14	2
107	107	34
34	41	8
122	123	13
49	49	47
81	92	5
96	97	4
57	57	26
38	39	22
111	112	6
52	54	3
91	91	21
97	102	1
120	120	19
80	80	33
106	106	28
115	116	22
13	13	38
28	31	8
120	122	6
82	83	7
1	8	9
26	53	3
72	72	19
56	67	2
9	9	18
19	44	5
83	85	7
126	127	7
44	55	6
92	93	16
95	95	41
95	109	4
79	79	33
82	84	1
19	19	19
65	68	5
73	73	25
12	12	22
58	58	13
76	78	2
118	119	11
51	51	36
79	80	5
130	131	11
87	87	17
131	132	2
26	26	28
23	24	5
15	15	22
97	103	3
24	24	24
109	111	4
58	62	8
60	62	6
74	74	31
46	47	15
58	59	18
34	38	1
95	124	3
67	78	3
129	129	9
125	125	20
54	55	12
25	25	25
65	66	14
8	10	3
54	73	1
118	120	8
119	129	1
25	67	6
6	8	2
34	40	1
73	74	1
113	113	32
40	44	4
56	57	5
54	56	2
6	7	9
73	114	5
21	55	2
19	54	2
26	46	1
77	80	5
2	124	4
63	64	11
73	75	1
124	125	7
78	79	14
14	14	23
76	77	19
49	51	2
114	117	1
57	61	2
104	104	28
27	28	8
110	110	26
2	3	16
90	90	6
19	22	4
71	73	3
25	29	2
38	38	25
103	105	7
58	61	9
13	15	5
10	12	2
1	5	3
49	64	3
127	127	14
77	97	6
113	114	3
44	45	5
128	128	15
85	86	5
30	53	2
75	76	9
15	16	9
85	87	3
8	8	18
105	105	27
7	14	1
63	63	19
98	99	6
100	100	19
45	66	2
19	64	3
86	90	1
66	67	18
68	69	10
61	61	12
92	94	8
20	20	23
40	41	4
96	125	3
75	95	2
64	65	6
72	102	3
13	16	5
69	115	2
53	54	7
6	49	4
131	131	26
52	53	9
12	19	5
132	133	7
116	131	1
50	51	11
88	90	2
99	100	9
62	63	13
70	71	14
40	40	36
44	65	10
27	30	4
121	123	5
49	50	4
32	32	9
30	55	3
90	91	12
42	44	1
19	20	7
4	6	10
31	33	3
80	82	4
1	7	3
4	54	3
85	93	5
96	102	3
25	47	2
1	49	2
119	132	1
11	62	2
1	6	3
46	48	7
46	62	2
18	23	5
26	44	3
117	131	5
60	90	1
0	8	2
84	87	4
127	129	3
87	89	3
5	6	5
7	8	8
4	16	6
103	107	4
112	113	5
38	40	8
30	54	2
73	77	3
81	87	1
84	84	9
81	82	5
67	77	5
89	90	5
24	34	3
126	128	2
11	81	1
121	122	8
0	1	8
103	104	2
8	15	1
7	11	7
13	20	2
86	88	3
22	23	10
3	7	1
1	2	2
4	56	1
12	25	1
11	78	1
73	116	4
100	127	1
103	106	2
15	29	4
18	22	6
118	132	1
11	106	3
27	29	5
19	27	1
2	16	3
28	51	1
60	61	4
72	74	4
15	24	1
69	88	2
49	65	5
117	118	6
50	52	8
88	93	2
107	108	5
76	102	2
60	88	1
12	67	1
28	32	2
2	4	1
66	77	5
49	57	2
13	26	1
103	108	1
7	9	1
28	44	1
127	128	6
21	42	2
33	40	2
32	42	2
81	84	1
89	91	7
58	60	3
104	121	3
44	68	5
10	63	1
125	127	3
57	63	1
106	111	1
81	123	1
101	102	3
3	22	2
116	130	2
26	47	2
9	62	4
102	112	2
2	8	1
119	125	1
27	31	2
21	65	1
114	116	4
30	32	1
45	55	1
34	42	3
10	62	1
84	86	2
92	96	1
115	129	3
60	63	2
51	52	3
122	124	1
80	93	2
129	132	4
2	6	3
57	58	4
25	45	3
129	130	4
19	66	2
13	24	2
97	99	1
77	95	2
51	53	2
22	40	2
117	130	1
25	53	3
4	17	1
78	94	2
126	133	1
13	22	2
61	63	2
80	92	1
22	43	1
74	75	3
111	113	2
104	107	2
13	25	1
70	75	1
41	43	1
69	102	1
71	72	8
120	132	1
52	55	6
59	90	2
89	92	5
78	97	1
17	131	2
20	62	2
43	65	2
121	124	1
19	30	1
19	43	1
12	66	1
32	34	2
108	126	2
82	89	3
102	125	1
37	41	1
102	108	1
85	88	1
63	65	1
93	96	1
20	42	2
20	21	2
25	44	4
27	64	1
34	54	1
119	130	2
96	105	1
108	113	2
97	98	1
8	13	1
17	21	2
106	108	1
100	133	1
80	88	1
72	113	1
0	6	2
33	54	2
5	14	1
19	55	1
123	132	1
44	101	1
120	130	2
48	51	1
69	71	2
116	118	2
9	15	2
81	88	1
9	13	1
25	27	1
89	93	1
94	125	1
109	113	1
23	25	1
79	88	1
53	55	2
62	64	1
99	101	1
80	87	1
30	50	2
119	131	2
40	42	2
122	130	1
20	22	1
79	82	1
117	120	2
81	91	1
28	30	1
75	77	1
26	32	1
91	93	1
78	81	1
100	130	1
102	104	1
6	14	1
28	43	1
64	66	1
21	43	1
