77	77	8
80	80	17
19	19	20
41	41	40
12	12	17
4	5	4
3	38	2
55	55	15
74	77	4
76	76	39
65	65	31
49	50	10
74	74	18
42	42	35
19	20	11
31	31	13
68	68	7
7	7	37
14	14	17
9	9	23
29	30	4
50	51	8
13	13	22
17	17	25
31	33	4
36	43	2
49	49	16
5	5	31
11	11	17
64	64	18
14	15	19
59	60	8
67	67	13
52	52	19
1	1	22
35	35	8
8	9	3
14	31	5
38	39	10
56	56	22
66	67	3
26	27	4
58	59	13
66	68	4
20	20	12
69	69	17
29	29	16
55	56	8
48	48	22
27	27	16
31	32	21
53	53	19
2	2	28
78	78	22
73	74	14
78	79	7
35	36	1
47	47	29
58	61	2
77	78	8
12	13	9
27	28	12
62	66	1
71	71	17
62	63	6
70	70	20
3	79	4
50	54	5
30	30	8
73	73	13
6	7	2
79	79	13
67	68	16
75	75	19
19	21	2
66	66	14
0	0	20
54	55	4
34	34	11
15	15	15
63	66	10
75	78	4
18	18	4
57	57	22
32	32	14
38	38	22
64	65	4
60	60	17
26	26	13
80	81	2
52	53	6
75	77	3
28	28	12
30	31	7
12	31	10
37	37	27
54	54	17
9	34	5
36	36	19
16	16	23
8	8	27
71	72	7
36	37	3
61	62	4
53	54	8
13	30	2
32	33	9
29	45	1
16	20	1
72	72	18
50	50	11
60	61	10
39	41	4
3	3	28
70	72	4
10	32	4
45	45	13
10	10	12
56	57	7
63	64	4
21	30	2
70	71	11
2	47	2
58	58	12
63	63	13
36	45	4
12	14	8
55	62	4
61	61	22
19	48	3
2	3	7
10	33	3
17	18	6
78	80	3
74	75	2
59	59	23
20	61	3
13	14	8
74	78	3
37	42	6
45	46	6
21	21	12
46	47	8
5	6	2
40	41	6
76	77	2
4	4	10
1	2	11
42	43	5
51	52	12
69	70	3
7	46	2
54	66	3
33	34	2
9	33	5
13	31	4
71	75	1
6	6	18
49	68	2
32	34	5
68	69	1
51	51	5
65	66	5
62	62	17
6	17	2
7	9	1
30	32	4
2	38	1
7	34	3
15	16	3
46	46	7
40	40	9
50	52	2
39	39	8
44	44	3
25	25	13
79	80	4
10	34	2
16	17	1
25	26	5
18	19	1
56	61	2
59	61	3
9	30	1
75	76	1
53	64	5
72	73	1
63	67	4
51	69	1
33	33	3
53	63	3
9	35	1
21	26	4
49	66	1
29	34	1
36	44	1
0	1	4
39	40	2
21	34	3
76	78	5
3	39	4
54	67	3
7	8	4
8	30	1
7	35	1
12	33	1
20	21	1
8	10	1
33	35	1
61	63	1
38	46	1
21	22	1
14	21	1
19	29	1
34	35	1
48	49	1
47	48	2
6	35	2
37	40	1
41	42	9
2	5	1
19	61	3
27	35	1
52	54	2
8	35	2
8	33	1
18	43	1
63	65	2
5	39	1
36	46	1
37	45	2
52	69	1
60	64	1
17	29	1
3	7	1
49	67	2
50	67	1
81	81	1
43	45	1
27	29	1
