133	133	1
138	146	1
8	8	7
15	15	3
93	113	1
48	48	15
120	120	1
42	43	4
50	50	2
97	97	4
18	18	4
51	51	1
12	22	4
26	27	3
65	67	5
148	148	9
35	36	2
13	17	5
43	44	4
90	110	2
76	76	3
129	129	3
67	67	4
37	38	2
73	73	5
84	84	1
130	130	2
48	141	2
134	134	6
21	30	2
4	4	6
68	68	4
107	108	6
93	93	6
105	105	1
97	99	2
69	73	1
58	98	3
56	56	7
6	132	4
57	57	3
104	106	1
118	131	3
86	86	3
130	135	4
87	87	6
119	119	3
51	64	1
53	53	4
10	10	3
13	13	8
28	28	8
106	106	5
75	86	1
86	92	2
46	46	3
19	19	3
35	35	4
94	94	6
76	85	1
116	116	5
136	136	3
71	71	5
110	114	2
33	33	1
20	20	2
53	54	5
45	45	4
124	128	2
22	22	6
17	17	7
117	117	3
125	129	2
88	88	1
144	144	2
41	41	3
119	148	2
138	138	4
51	83	1
150	150	1
77	78	5
50	99	1
44	45	1
128	136	1
98	98	5
74	76	1
66	66	3
78	97	1
104	104	2
47	47	6
54	54	2
81	82	3
29	30	5
102	102	5
11	16	4
6	6	6
11	132	4
108	108	6
63	63	2
49	49	4
23	23	3
5	5	2
131	131	5
56	74	1
97	98	4
63	64	1
94	112	1
29	29	2
14	15	3
65	66	4
40	40	5
78	82	2
51	52	3
137	146	2
112	113	2
92	92	3
39	40	6
75	76	1
80	82	1
18	24	1
70	70	3
89	89	1
25	25	3
115	116	4
36	36	3
139	140	2
126	126	1
124	132	2
87	93	2
19	20	1
38	38	6
100	103	2
78	78	1
135	135	3
12	16	4
6	13	2
20	22	1
47	48	3
83	83	2
100	108	2
128	128	1
142	142	1
3	19	3
21	22	1
8	20	1
21	23	2
123	126	3
21	21	2
130	132	2
82	82	4
27	52	1
20	21	1
38	39	1
65	65	6
140	142	2
102	109	1
18	23	3
67	85	3
12	19	2
4	28	2
98	122	4
43	67	1
38	71	1
74	74	4
137	144	1
120	145	1
26	26	2
79	85	5
137	137	2
119	122	2
43	86	4
125	127	1
14	14	4
22	23	4
90	92	1
146	146	1
149	149	1
81	83	2
136	147	2
31	31	1
10	11	1
23	24	1
22	31	2
110	110	1
27	28	2
103	103	1
78	99	3
123	125	2
139	148	1
25	27	1
143	143	1
3	4	1
127	132	1
109	110	4
55	55	1
25	32	2
132	154	1
16	16	1
122	122	4
41	45	2
108	115	2
12	13	1
100	100	2
128	132	2
111	114	1
12	14	1
80	81	2
137	138	1
44	44	3
7	13	1
4	11	1
27	27	1
87	103	3
43	43	2
152	152	1
64	64	2
5	6	1
75	75	2
113	113	1
125	125	1
39	39	1
120	136	1
63	85	1
30	30	1
4	13	1
77	97	1
80	80	1
147	148	1
74	97	1
94	97	1
137	139	1
139	147	1
115	115	1
34	35	1
134	135	1
133	135	1
