72	72	6
34	34	6
58	58	3
80	80	11
101	102	3
43	43	6
109	113	1
89	89	9
62	72	3
95	95	16
67	70	2
56	60	2
42	42	5
58	64	3
30	30	4
62	62	7
83	85	6
35	36	4
50	50	6
32	41	1
65	65	3
54	58	1
82	85	3
60	60	10
76	79	1
41	43	2
105	107	2
25	46	3
93	98	1
79	79	9
80	81	4
104	107	2
64	64	4
65	66	5
63	63	2
77	77	10
99	99	2
86	87	1
53	59	2
54	56	5
64	68	1
75	96	2
48	52	1
45	45	6
77	100	2
28	29	3
70	71	1
102	103	1
46	46	3
89	90	2
76	96	3
102	102	3
61	62	4
94	95	2
75	75	4
82	82	6
23	28	4
25	25	6
76	77	4
48	48	1
64	72	3
51	51	8
26	26	4
92	98	2
38	38	7
83	83	5
85	86	1
74	75	1
94	94	2
24	28	2
34	35	4
27	27	2
95	101	1
43	45	3
30	66	4
52	52	5
36	111	2
71	71	6
85	85	2
78	79	11
106	106	2
35	35	3
33	33	5
55	55	1
86	86	5
69	69	4
72	73	4
27	33	2
37	111	1
31	31	8
100	100	3
113	114	2
81	82	3
40	40	2
105	106	8
82	83	3
32	35	2
96	99	2
22	24	1
87	88	5
76	76	4
109	109	3
70	73	5
29	29	4
30	60	1
110	111	2
70	70	4
23	53	1
66	73	2
78	78	1
104	104	7
28	28	2
73	73	3
98	98	2
22	22	5
87	87	3
37	37	2
66	66	2
56	56	2
62	73	1
90	90	3
109	110	2
95	100	1
88	89	1
60	61	2
38	39	1
40	43	2
26	53	2
60	64	1
63	64	3
101	101	2
84	84	2
100	101	2
36	36	2
79	82	2
112	113	5
96	96	2
76	78	1
96	97	1
103	103	3
113	113	3
90	91	1
32	36	2
24	24	1
83	84	2
27	92	2
43	44	1
68	68	1
44	44	4
39	40	1
93	94	2
40	85	1
98	112	2
68	71	2
20	20	1
53	60	2
102	114	3
105	105	1
110	112	1
22	91	1
69	70	2
61	74	2
71	72	2
61	61	3
68	84	1
88	90	1
21	21	3
55	63	1
74	74	1
47	47	2
41	42	1
67	67	2
46	99	1
97	100	1
103	105	1
81	81	4
73	79	2
53	53	2
31	36	1
78	104	1
104	106	3
107	107	2
70	75	2
40	41	1
54	54	3
50	76	1
77	78	1
19	19	1
92	97	3
103	115	1
21	28	1
91	92	1
94	105	4
61	72	2
32	32	2
50	110	1
57	71	1
74	76	1
39	39	1
44	45	1
47	113	1
68	69	1
28	73	1
111	112	1
57	57	1
64	65	1
49	49	1
99	109	1
97	97	1
29	30	1
92	115	1
92	94	1
32	46	1
99	101	1
70	72	1
89	91	1
77	110	1
