125	125	6
72	74	4
77	77	9
43	43	7
127	128	7
82	82	5
42	71	2
13	14	2
107	107	1
30	51	1
70	71	6
92	92	14
67	67	10
25	25	5
28	28	2
33	33	8
94	94	8
7	9	1
50	53	3
121	121	12
85	85	8
59	59	7
111	111	13
63	91	4
99	99	6
118	119	8
72	72	10
110	110	11
118	118	9
89	89	6
109	110	4
122	122	3
1	53	1
81	81	6
24	24	4
61	61	3
49	49	13
70	70	5
78	118	2
5	13	1
92	105	7
71	72	5
95	99	2
23	23	2
30	30	9
126	126	7
39	40	3
69	69	10
108	119	2
14	16	4
19	19	7
109	109	9
0	0	5
38	40	5
6	7	3
98	99	3
22	23	5
54	90	4
88	88	3
63	64	1
119	119	10
17	17	8
48	48	12
46	46	8
58	58	2
124	125	2
79	79	8
90	90	8
97	102	1
38	39	9
1	1	10
61	62	1
2	2	7
52	52	6
60	61	8
95	96	6
114	114	7
78	78	9
101	101	7
52	55	4
3	3	1
47	47	11
73	73	5
44	44	10
54	54	9
105	106	4
41	42	4
111	112	3
87	90	6
26	39	4
93	93	2
4	5	2
58	62	2
32	32	11
107	108	5
39	39	6
66	66	5
12	12	8
67	78	1
77	80	2
42	43	1
25	40	3
14	14	6
100	100	1
18	28	5
116	131	1
120	120	4
75	76	12
5	11	2
85	86	8
42	62	2
84	84	8
112	112	10
100	126	2
104	104	4
47	60	3
2	7	1
96	96	8
129	130	5
100	103	3
114	117	1
13	16	1
31	31	3
106	106	10
13	13	5
124	124	4
40	71	5
128	128	4
22	22	5
113	113	8
88	92	2
62	62	12
50	51	2
5	5	7
29	29	3
50	50	12
95	118	6
130	131	4
90	91	2
131	131	1
108	108	5
67	82	4
105	105	6
92	93	1
89	91	5
18	21	2
72	120	3
68	119	1
95	95	8
51	63	3
75	75	5
65	65	5
10	24	2
21	97	3
26	26	3
76	76	9
65	85	1
3	40	5
43	67	3
15	68	1
126	127	3
55	55	11
76	128	5
1	26	4
77	79	5
48	49	4
63	63	10
5	126	3
0	23	1
76	80	1
103	108	3
53	76	1
67	68	4
72	96	3
57	106	1
9	9	1
88	107	2
115	115	1
99	102	3
53	53	6
95	117	1
91	92	2
3	5	2
51	52	3
65	103	5
58	59	5
41	41	3
62	126	1
58	126	4
7	7	3
25	26	2
62	64	3
103	103	3
117	117	4
5	14	2
10	10	6
25	39	1
90	121	2
126	129	2
116	116	1
74	74	4
83	83	6
30	31	5
62	63	1
45	79	2
54	55	2
47	63	1
5	94	1
51	51	3
93	94	4
16	16	4
55	56	3
45	46	2
54	56	1
60	60	5
113	114	1
83	84	2
6	121	1
79	80	7
127	129	4
43	58	2
126	133	3
66	67	1
44	45	3
4	24	4
123	123	2
85	90	3
96	97	2
56	71	3
4	4	4
19	21	2
9	10	3
104	105	3
2	3	3
57	110	2
69	76	1
53	57	1
108	116	3
40	40	3
97	98	3
48	66	3
54	117	1
21	21	2
104	127	2
40	75	2
20	85	2
83	85	1
103	104	3
2	8	2
97	97	9
41	44	1
72	73	3
69	120	1
23	24	3
84	97	2
19	60	1
56	56	4
78	122	5
46	69	2
16	44	1
68	68	10
20	21	1
48	63	1
49	50	2
65	66	2
100	107	1
6	6	3
39	65	3
116	117	1
42	60	1
76	106	2
55	67	3
88	89	3
77	78	1
42	42	2
55	114	1
28	29	2
43	61	3
2	30	1
129	131	2
128	129	1
7	13	1
64	64	3
20	20	3
11	14	3
31	32	2
17	18	5
42	58	2
27	27	1
83	86	1
57	57	8
13	18	3
73	81	2
70	109	2
88	91	1
68	73	2
53	124	4
67	73	1
94	96	2
65	121	1
103	119	1
43	79	1
16	17	1
52	53	1
89	90	3
55	64	2
71	120	1
17	97	1
114	115	1
101	129	4
126	130	1
67	114	1
18	18	4
132	132	4
78	81	1
76	82	3
133	133	1
42	66	1
79	81	1
15	15	1
51	116	1
27	29	2
91	91	2
78	80	2
127	127	1
101	103	2
45	45	3
46	78	1
81	82	1
86	86	1
61	63	1
102	103	3
101	102	1
17	21	2
115	116	1
98	98	2
60	91	1
73	82	1
24	34	2
105	112	1
102	102	3
19	58	1
65	67	1
113	117	1
56	123	1
39	41	1
23	33	1
80	80	2
129	129	1
77	81	1
106	107	1
90	117	1
38	38	1
82	83	1
40	68	1
34	34	1
44	77	1
130	130	1
51	58	1
8	8	1
11	125	1
6	13	1
