58	58	28
50	50	16
14	34	1
24	24	23
9	10	10
83	83	24
17	17	34
50	51	5
9	17	3
69	69	25
76	77	6
87	87	12
1	1	16
18	18	5
61	61	10
3	4	5
28	28	14
13	17	7
49	49	15
46	46	8
22	24	7
84	84	22
63	64	6
54	55	10
74	74	19
57	57	24
68	68	15
53	53	8
21	22	14
21	21	7
89	89	15
71	74	4
4	5	5
58	61	1
15	15	11
71	71	7
8	8	17
56	57	3
48	49	5
58	59	2
22	22	26
11	12	2
30	30	23
63	63	10
8	13	2
27	27	18
86	86	30
7	7	19
78	79	6
34	46	2
55	55	13
20	47	2
74	75	3
48	52	3
77	78	6
12	12	24
60	63	6
6	79	2
67	67	19
0	0	15
20	20	18
59	59	15
10	10	20
75	75	13
31	31	11
86	87	3
72	72	11
69	70	5
6	49	2
81	81	20
7	8	7
52	52	28
52	55	2
0	1	7
5	48	8
21	25	5
66	66	11
5	7	2
6	8	2
85	86	13
8	12	1
47	47	12
17	18	6
2	2	20
73	73	21
62	63	2
56	62	5
65	65	13
13	14	7
12	13	4
51	52	13
76	76	27
75	77	4
61	62	1
82	82	17
55	60	1
6	6	9
63	66	3
5	5	6
66	67	9
59	71	1
54	54	18
15	31	5
23	24	3
48	50	4
82	83	10
49	50	9
59	60	3
64	65	7
11	19	3
80	83	3
80	80	9
55	56	6
9	9	8
88	89	6
25	28	3
21	47	1
12	18	1
77	77	10
71	86	1
56	61	7
20	22	3
23	23	7
3	3	10
53	55	2
80	81	6
48	48	8
56	56	5
84	87	2
50	52	2
25	25	15
19	19	14
71	72	5
25	26	3
8	24	5
11	11	4
20	21	3
57	58	8
4	4	20
78	78	10
86	88	6
51	51	5
84	86	5
64	64	1
68	74	2
60	60	4
19	47	2
1	2	9
85	85	18
14	16	5
70	70	5
26	27	7
59	66	2
24	25	4
67	68	9
34	34	4
55	59	6
16	17	6
19	20	4
81	83	5
21	23	1
29	30	3
66	74	2
19	31	1
73	74	3
79	79	12
8	9	7
23	25	5
11	13	1
53	66	1
14	24	1
75	78	1
65	76	2
81	82	6
74	86	2
79	80	10
26	26	5
9	33	3
62	66	2
9	11	1
0	2	4
87	88	5
14	14	12
84	88	3
72	73	8
83	84	7
5	6	1
85	88	2
22	23	4
6	9	1
16	16	4
68	73	3
65	66	3
58	60	9
68	69	6
50	78	1
88	88	3
15	18	2
14	18	1
2	3	1
49	51	2
47	53	3
27	28	2
68	75	2
55	66	1
51	54	1
47	48	2
12	14	2
8	26	2
0	70	4
62	64	4
32	32	1
9	12	1
10	24	1
77	83	2
6	11	2
30	31	2
64	66	2
54	59	1
75	90	1
54	58	1
63	65	2
84	85	4
13	18	2
65	74	1
53	54	1
55	57	3
47	49	4
75	76	1
67	89	2
62	62	1
34	35	3
89	90	1
49	52	2
75	87	2
9	13	1
46	48	1
35	46	1
9	14	2
48	51	3
51	66	1
79	83	2
87	89	2
19	50	1
60	61	2
79	84	1
79	88	1
0	3	1
13	13	3
21	49	1
8	27	2
6	12	1
18	19	1
72	74	2
15	16	1
6	17	1
61	74	1
25	27	1
28	29	1
53	56	1
6	10	1
56	58	1
11	31	1
81	88	1
5	8	1
