82	121	1
136	137	4
32	32	4
140	140	4
36	36	6
85	99	2
31	31	4
64	64	1
0	0	5
120	121	6
21	21	3
24	66	2
80	80	9
56	56	3
128	129	5
40	117	3
115	115	1
38	72	4
83	83	5
85	93	1
81	82	7
126	128	2
1	2	4
118	118	10
112	118	3
134	134	7
112	114	3
20	21	3
70	70	3
18	79	5
67	67	4
58	61	2
120	125	3
70	71	1
10	10	6
119	119	10
94	95	4
117	117	3
68	69	4
59	59	6
110	110	3
94	94	5
53	53	2
5	6	2
97	97	1
84	135	3
80	81	2
47	47	1
134	135	5
117	129	4
52	52	8
86	86	2
15	56	1
2	62	2
75	75	3
92	92	6
25	31	1
123	123	5
47	73	4
140	141	1
43	43	5
3	3	3
133	135	1
4	5	6
124	124	4
116	116	7
27	27	5
116	117	2
35	74	4
117	144	1
49	49	1
35	57	1
67	82	6
78	78	1
37	37	8
27	28	4
118	135	1
63	65	1
93	93	1
104	104	2
123	136	3
13	14	1
80	124	2
90	90	7
4	12	5
140	143	1
58	60	3
103	103	3
33	34	2
77	79	1
98	118	2
23	23	4
2	4	4
41	41	2
4	54	4
57	57	4
17	19	1
85	111	3
129	129	4
48	48	1
47	65	1
29	100	2
73	73	1
80	122	1
24	118	2
143	143	6
66	66	1
38	75	1
67	68	1
36	37	5
107	108	1
107	107	1
4	4	3
131	139	1
82	119	1
42	42	4
98	119	1
87	89	1
42	76	2
116	118	2
64	65	2
127	127	1
103	143	2
19	19	1
84	114	4
15	15	2
116	129	1
10	11	1
50	74	2
136	136	3
106	110	1
70	108	1
84	111	1
120	120	6
135	135	1
48	63	1
34	35	5
111	111	2
105	105	3
29	29	1
120	123	4
111	117	4
106	107	1
99	99	5
101	101	2
40	112	3
88	98	1
12	31	1
114	135	2
108	108	4
30	76	1
136	138	3
102	102	2
48	61	2
46	47	1
24	70	1
59	60	2
25	34	2
35	36	3
105	107	2
77	125	1
109	109	3
30	74	2
130	130	3
11	56	1
6	6	1
131	131	4
58	58	1
66	89	1
54	54	4
26	32	1
2	2	1
25	25	1
67	86	1
52	61	1
61	61	2
139	139	3
122	122	3
3	53	1
78	127	2
119	144	2
79	79	1
26	26	1
9	9	1
132	134	1
40	40	1
58	59	3
138	138	2
37	73	3
47	48	1
35	35	2
98	98	1
36	73	2
145	145	1
34	58	3
133	133	2
31	50	1
79	102	1
1	1	2
96	96	1
104	116	1
118	134	1
11	11	1
51	62	2
57	58	1
22	22	1
30	30	1
72	73	4
144	144	2
51	52	1
81	81	1
97	98	1
112	123	1
125	125	1
37	76	1
108	114	1
111	131	1
118	141	1
65	70	1
50	52	1
118	119	1
3	5	1
93	95	1
139	140	2
62	62	1
63	63	1
14	53	1
16	16	1
102	108	2
117	118	1
38	38	1
65	66	1
25	126	1
113	115	1
