66	67	1
37	37	2
70	70	3
4	43	1
97	97	6
133	133	4
14	27	5
18	36	2
137	139	5
81	81	2
36	66	3
34	35	2
112	119	1
108	109	1
126	140	5
96	97	4
11	53	1
110	112	3
52	52	6
126	126	5
128	128	5
2	99	7
119	119	4
118	121	5
3	13	1
101	101	3
72	83	4
34	34	1
117	117	4
96	99	2
40	117	2
43	43	2
93	93	2
18	18	1
132	136	3
36	36	1
5	6	1
71	83	3
135	135	4
117	137	4
59	59	2
24	28	1
30	30	8
22	22	2
122	122	4
66	66	3
85	91	1
38	38	6
4	4	1
13	14	1
23	23	3
64	66	1
36	37	2
43	90	2
13	36	1
116	116	3
90	90	5
80	80	2
131	131	5
79	79	2
61	61	2
114	115	4
71	75	1
140	141	1
50	129	3
124	144	2
52	72	2
114	139	1
60	60	4
39	40	2
124	124	3
35	35	3
16	16	1
95	95	1
2	47	1
26	26	5
113	117	2
38	40	1
49	49	4
12	12	1
32	32	2
15	15	1
27	142	1
1	102	2
137	137	4
124	127	2
141	142	2
1	3	4
43	74	1
8	8	1
21	67	2
110	110	4
54	54	1
31	31	1
68	74	2
114	114	4
133	139	3
142	143	7
16	60	1
85	111	2
122	139	2
104	104	2
28	28	2
110	111	3
91	91	1
42	101	3
129	130	2
113	113	2
118	120	2
136	142	1
55	55	3
107	118	3
122	123	1
109	110	2
14	34	1
20	20	3
82	82	1
48	48	1
85	87	1
108	108	4
24	24	1
137	140	2
139	140	1
115	116	2
18	32	3
61	62	2
27	27	2
70	83	1
48	74	3
58	58	1
40	118	1
130	130	2
134	134	2
14	33	1
100	101	3
13	34	2
140	140	3
49	96	1
138	140	1
39	111	1
42	72	1
77	77	1
47	73	1
84	85	2
96	96	2
118	118	1
118	143	1
68	73	1
52	73	2
96	98	1
100	100	1
69	80	2
121	121	3
111	112	2
91	113	2
61	63	2
30	42	1
123	123	1
136	137	1
47	75	1
47	47	1
47	70	1
120	121	1
141	141	2
138	139	2
58	75	1
0	0	2
75	91	1
59	73	1
27	28	1
127	127	1
87	87	1
144	144	1
70	71	1
