151	151	8
24	24	3
120	120	2
156	156	4
82	82	5
148	154	1
7	14	3
56	56	3
172	172	2
10	29	3
4	5	5
128	136	2
93	93	1
1	1	3
95	96	2
159	159	1
132	132	4
85	172	3
86	86	8
53	53	6
44	44	11
112	112	9
152	152	9
53	78	5
26	26	11
43	64	2
55	55	7
134	159	6
10	10	9
7	8	3
168	168	4
143	143	1
79	79	11
126	126	5
22	22	4
108	109	2
36	36	3
99	99	4
30	32	5
165	165	3
20	21	2
37	37	8
66	67	1
23	23	3
32	32	2
106	106	3
74	75	1
73	73	4
139	139	9
60	60	2
132	161	1
62	62	6
111	111	4
35	35	5
122	130	3
100	100	2
71	71	4
140	140	2
120	135	2
124	124	4
10	32	1
130	130	6
186	186	4
164	165	5
125	140	5
7	7	17
169	169	5
171	172	1
71	73	1
157	158	1
58	60	2
91	93	2
67	68	4
48	48	2
81	81	9
98	161	1
91	91	1
27	28	4
38	38	5
101	101	7
162	162	4
127	153	5
104	104	9
28	32	1
183	183	2
169	172	3
71	74	1
40	40	6
158	159	1
149	150	5
88	88	1
184	185	4
147	147	8
15	16	2
182	182	1
15	23	3
145	145	6
161	162	1
136	136	9
12	42	2
80	80	4
110	110	2
63	63	3
122	122	6
25	25	6
90	90	1
129	135	1
156	157	4
33	89	1
23	37	1
100	101	5
141	150	4
103	103	2
57	57	6
59	61	1
98	108	3
161	161	1
174	174	4
65	67	1
45	45	1
151	152	4
41	48	1
13	13	8
61	61	4
142	144	1
133	137	2
59	60	2
8	8	3
47	47	6
11	11	7
72	72	5
144	144	6
78	78	3
75	75	4
5	5	3
12	17	4
145	148	4
18	18	2
29	29	5
33	33	12
97	97	2
114	114	10
74	74	4
137	139	2
118	119	1
19	82	2
181	182	4
3	6	1
149	149	1
124	125	3
115	115	5
55	88	2
155	163	2
130	131	4
43	43	10
61	62	2
158	158	10
187	187	7
27	54	1
52	52	2
27	27	1
153	153	7
108	108	1
127	128	3
131	131	5
45	46	7
131	133	3
113	119	1
46	46	5
26	27	3
154	154	9
99	103	1
113	113	3
125	126	6
91	125	2
49	49	5
126	127	2
125	151	1
184	184	2
178	179	5
93	94	2
190	190	2
22	23	2
58	59	7
109	109	7
77	77	6
137	137	3
119	119	6
27	32	1
110	112	2
144	146	1
69	70	1
75	78	1
91	97	1
164	164	3
67	67	2
113	148	2
122	158	2
118	118	6
56	78	1
114	118	2
135	137	3
139	154	1
70	70	3
10	12	2
180	181	6
178	178	1
136	152	2
46	47	2
54	54	3
0	0	3
136	137	1
109	120	3
0	1	2
97	125	4
17	17	1
128	128	1
160	161	1
10	130	2
131	134	1
133	138	1
146	146	5
84	84	3
6	24	1
163	164	2
129	129	4
77	78	1
92	92	3
16	16	2
97	124	2
14	14	2
129	154	1
120	151	3
178	180	2
148	148	2
116	116	3
76	77	4
15	15	3
91	92	2
28	28	3
6	6	1
15	22	2
22	24	1
20	20	3
117	117	3
12	12	1
136	170	1
68	68	2
179	179	1
139	140	1
138	145	1
159	161	1
175	175	1
12	13	1
31	31	1
131	135	2
17	19	1
48	60	3
146	149	1
114	115	2
105	105	1
133	133	7
56	57	1
92	108	2
28	29	2
169	175	4
105	118	4
59	59	3
134	134	1
115	116	2
158	162	1
76	76	1
160	160	1
30	30	2
166	166	2
56	88	1
87	87	1
121	154	1
19	19	1
24	25	1
9	10	1
114	116	1
168	175	1
116	118	3
115	120	2
125	125	2
188	188	2
176	176	1
92	117	1
171	173	1
121	123	1
188	189	2
187	188	2
128	135	1
96	96	3
173	173	2
4	4	1
134	135	2
108	124	3
134	154	1
121	121	3
123	123	2
31	90	1
170	170	1
53	54	2
172	173	1
136	159	2
26	94	1
40	47	2
82	83	1
135	152	1
20	82	1
65	75	1
82	102	1
3	3	1
95	108	1
142	142	1
181	181	1
138	138	2
55	65	1
53	55	1
86	87	1
39	39	3
42	42	1
29	30	1
10	13	1
155	162	1
101	102	2
66	66	3
95	107	1
75	76	1
70	72	1
135	135	2
92	96	2
155	155	2
43	44	1
90	91	1
18	19	1
60	80	1
185	185	1
