122	123	12
17	17	14
140	140	26
69	69	4
110	114	2
127	127	11
26	27	9
104	107	7
89	89	13
85	86	6
101	101	28
112	112	24
141	141	14
118	118	16
136	136	16
5	5	12
100	120	4
117	117	22
22	27	3
96	104	3
93	93	9
134	134	24
37	38	4
135	136	2
43	43	3
91	91	9
51	72	3
38	38	28
40	40	9
116	117	6
83	89	3
142	143	5
100	100	5
123	123	11
18	18	15
76	77	1
56	86	3
23	24	5
75	75	22
84	87	4
95	98	2
127	130	4
108	109	10
73	93	6
30	30	21
32	41	1
129	130	7
47	83	2
83	91	5
115	115	10
49	51	1
2	4	4
119	119	20
71	71	15
35	35	13
14	14	12
15	15	12
129	129	20
136	140	2
19	19	25
80	138	4
42	42	19
8	8	7
88	89	7
4	8	4
110	111	8
72	72	12
98	125	3
128	128	17
79	79	5
104	105	3
26	26	12
63	63	12
48	48	18
120	140	4
100	101	2
66	66	18
87	87	24
42	43	2
55	87	4
111	111	19
126	126	11
27	28	3
59	67	4
68	69	3
4	138	4
135	135	10
99	99	15
83	85	3
2	2	7
40	86	1
61	61	7
116	116	13
58	65	4
130	130	21
28	28	27
6	6	9
63	65	4
33	34	3
24	24	11
51	51	19
145	146	3
139	139	34
27	27	12
75	95	4
22	23	1
109	111	4
88	90	4
59	61	4
111	117	4
54	55	4
109	109	12
59	60	4
21	36	2
59	59	22
41	41	6
83	110	8
21	21	8
33	33	11
70	71	4
53	67	1
65	65	11
110	110	24
28	30	6
137	140	4
38	39	4
29	29	8
104	133	5
143	143	24
106	106	12
122	122	18
66	70	5
125	125	37
106	107	7
72	73	4
35	47	2
116	137	1
139	140	8
20	20	13
50	51	4
51	52	5
22	22	25
77	77	21
48	49	4
53	54	4
132	132	27
16	16	21
37	37	22
88	88	3
84	84	10
73	73	17
90	90	18
56	69	3
107	107	9
13	13	19
0	20	4
60	61	5
118	119	9
75	82	1
55	55	11
57	74	4
133	142	4
134	137	12
56	56	16
117	137	4
60	60	7
132	133	10
67	67	8
70	72	6
55	57	3
145	145	16
31	31	8
49	49	15
34	88	4
109	110	5
62	65	2
134	135	7
1	1	17
1	4	5
64	64	10
37	39	4
115	117	3
40	41	8
98	98	19
38	42	2
10	10	6
121	142	3
35	38	4
32	32	4
34	34	11
128	129	4
14	21	3
136	137	9
3	6	3
36	65	3
104	104	9
81	91	2
87	88	3
65	84	3
137	142	3
23	23	14
28	102	1
57	57	4
110	132	2
28	55	5
13	20	5
121	121	15
94	95	1
55	56	5
11	11	19
72	130	2
73	74	1
13	19	3
69	72	2
68	68	9
101	102	7
62	62	10
50	52	7
117	118	5
22	38	1
26	59	2
123	124	1
42	134	2
96	96	14
108	108	14
134	136	5
119	120	3
124	124	37
3	3	6
58	58	4
66	67	3
117	122	7
131	131	32
39	65	2
105	119	4
25	26	4
97	103	1
9	9	5
25	25	11
0	23	1
0	0	3
33	38	5
116	118	3
144	144	8
138	138	4
28	29	5
4	5	1
80	80	5
31	133	3
84	90	4
26	132	3
55	71	5
103	103	9
92	92	4
48	51	1
29	40	2
138	139	9
83	83	10
126	130	4
58	60	2
113	134	1
101	108	2
85	97	5
142	142	3
10	11	4
32	37	5
108	119	1
41	67	3
76	76	12
121	124	1
120	120	8
14	16	3
11	16	1
97	97	7
104	110	3
5	11	3
87	93	3
2	6	1
121	129	2
50	50	6
36	40	1
35	39	2
47	47	4
127	128	4
90	119	2
42	67	2
47	138	5
3	137	4
59	66	3
106	118	1
54	54	12
13	31	3
73	82	4
34	36	6
115	122	1
82	82	17
15	29	2
52	52	6
18	19	2
105	105	7
86	86	9
113	115	6
121	138	3
27	95	2
1	19	3
143	144	5
95	97	4
78	78	1
69	73	2
108	110	6
137	137	10
74	74	7
53	53	7
33	35	4
95	96	2
71	73	6
105	106	2
20	48	3
99	100	11
53	62	2
0	17	4
12	36	2
80	140	3
55	70	2
92	98	3
34	38	5
35	36	5
96	130	1
111	132	1
120	123	4
98	104	1
113	114	6
66	80	1
137	138	8
18	27	2
69	70	2
132	139	4
24	133	2
120	121	4
81	82	5
58	66	1
34	133	2
22	42	4
146	146	10
22	48	1
30	54	3
89	114	6
33	58	3
12	12	1
134	140	2
118	131	3
123	131	5
93	94	9
109	130	2
80	125	3
110	112	3
34	136	5
94	125	2
118	143	1
66	87	1
53	70	2
52	55	1
93	106	2
97	131	4
121	125	2
60	67	4
112	132	2
84	92	1
40	65	2
81	81	4
133	133	22
105	110	4
17	27	4
96	98	4
72	131	4
114	115	4
56	58	2
1	21	2
98	108	1
72	93	2
127	131	2
107	109	4
4	4	3
89	118	2
35	134	1
82	84	2
17	19	1
39	39	7
33	36	2
1	2	1
13	14	4
3	17	2
14	15	2
20	47	3
92	97	3
122	127	3
108	121	4
2	3	2
73	106	3
57	82	2
50	80	3
78	81	4
85	85	5
14	18	3
95	131	5
98	101	2
39	41	5
70	70	7
96	108	1
19	27	1
33	41	1
94	94	6
98	99	1
41	42	2
16	26	1
1	6	2
40	66	2
115	140	1
11	12	1
2	21	3
126	133	2
114	114	9
62	74	1
64	65	4
124	125	3
20	64	4
77	78	3
68	87	1
9	10	7
85	125	2
126	132	3
110	135	4
41	58	1
107	108	2
18	61	2
83	84	6
130	131	2
15	33	1
27	55	1
111	116	1
138	140	1
78	82	1
125	126	3
40	62	2
48	67	1
76	85	2
108	134	1
65	69	2
79	82	2
5	25	1
63	64	1
90	91	1
15	16	5
3	4	3
120	128	3
125	133	6
79	80	6
58	82	2
95	95	3
106	122	1
58	63	5
30	90	3
67	70	1
39	42	1
89	107	1
36	36	7
19	22	1
58	71	5
124	140	2
31	33	3
24	26	2
0	21	1
84	124	1
13	33	1
116	133	1
52	61	2
25	41	1
75	76	2
70	75	2
18	21	1
95	124	1
123	125	1
52	71	1
58	61	1
97	98	1
53	58	3
43	134	2
32	33	1
5	35	1
12	13	2
125	131	2
98	107	1
107	118	2
84	140	1
0	1	2
135	139	4
103	105	2
49	71	2
53	55	1
126	129	5
61	65	2
102	102	5
21	25	1
32	96	1
57	76	1
116	121	1
14	20	2
117	135	1
75	92	1
75	81	1
5	9	1
71	72	2
137	139	1
133	134	2
74	75	2
6	10	2
98	112	2
134	143	3
113	119	1
24	55	2
42	105	2
113	116	2
25	92	1
55	128	2
19	137	1
122	144	1
128	130	1
100	119	1
140	141	1
24	60	2
2	12	2
23	110	1
86	87	1
32	42	1
121	122	2
32	133	1
22	24	1
76	80	1
16	18	2
89	128	1
56	62	1
77	79	1
133	143	1
56	71	1
117	127	2
123	127	1
67	68	1
102	103	1
47	132	1
5	30	2
79	119	1
39	40	1
1	13	1
34	35	1
40	67	1
136	138	1
47	89	1
64	69	1
25	29	1
94	99	1
119	142	1
19	35	1
26	60	1
125	127	1
17	18	1
37	48	1
38	66	1
35	65	1
54	89	1
92	111	1
25	132	1
120	142	1
105	118	1
36	37	1
119	134	1
54	66	1
