11	11	15
31	31	6
7	88	2
77	77	7
101	101	9
59	59	7
116	131	2
21	22	10
63	63	4
113	113	7
77	78	4
79	100	3
110	110	9
75	122	4
37	37	5
91	91	12
5	5	4
87	110	1
106	106	12
97	97	4
40	49	2
131	131	8
118	118	4
80	80	1
85	85	5
120	120	7
6	7	5
13	13	14
63	64	3
8	8	15
71	71	1
45	45	21
90	90	10
4	4	8
67	67	7
27	27	18
38	38	7
62	74	2
62	64	4
112	112	7
16	17	1
9	9	8
16	16	13
3	4	4
68	69	6
25	62	1
48	48	7
28	29	4
134	134	2
95	96	6
96	96	6
39	39	12
15	16	6
32	32	6
81	81	11
23	24	3
121	121	4
103	103	1
47	47	7
2	2	1
30	30	4
25	25	15
10	10	13
46	46	7
18	18	18
130	132	1
14	28	1
84	87	5
57	62	4
84	84	7
108	108	3
17	17	10
62	93	1
95	95	2
29	29	15
57	57	3
32	33	4
37	95	1
7	7	7
44	45	11
92	93	4
109	109	10
106	107	2
130	130	9
79	81	6
74	74	10
66	66	7
118	122	1
28	28	4
72	73	3
62	62	6
98	100	3
10	60	6
16	19	5
72	72	8
79	79	2
30	63	2
78	78	10
94	94	4
69	74	4
65	65	15
19	19	11
75	77	3
26	62	3
117	120	1
29	103	1
119	119	6
4	5	7
87	87	7
6	6	9
60	95	3
128	128	5
124	124	3
117	117	7
89	91	3
27	47	1
119	120	3
3	3	5
113	120	3
103	104	6
93	93	9
123	123	2
25	26	7
115	115	5
61	76	2
35	36	6
9	12	2
123	124	5
111	111	3
64	64	9
34	34	3
83	84	3
56	56	6
7	27	2
100	100	4
29	47	2
105	108	1
49	49	4
3	9	2
90	91	1
76	76	11
12	14	3
5	6	2
110	111	6
125	125	3
10	12	3
47	48	3
126	126	1
83	83	10
132	134	4
61	61	9
5	23	2
93	98	4
26	26	4
33	35	1
29	30	4
33	39	2
68	68	10
60	60	11
82	83	5
70	70	14
36	119	2
58	58	4
19	26	3
42	43	7
46	47	4
2	3	2
105	105	4
116	116	6
4	21	1
26	32	3
129	129	3
48	58	2
66	73	2
17	18	6
114	115	6
10	72	1
24	24	4
87	88	3
93	106	1
46	71	2
104	111	3
17	27	3
56	115	4
12	102	2
2	101	1
126	127	3
45	48	1
44	44	5
35	74	2
100	101	4
11	93	3
51	132	1
95	116	1
8	36	2
92	92	1
98	116	2
43	43	5
82	86	1
13	14	1
43	44	1
57	58	2
21	21	1
85	86	3
98	102	1
7	8	1
34	45	3
24	74	3
41	41	3
6	84	3
35	35	3
93	96	1
36	37	3
109	110	2
73	74	1
24	25	2
73	73	8
69	70	3
14	14	4
9	10	7
122	122	5
88	88	4
16	21	4
35	45	3
32	78	4
27	103	1
71	72	2
20	97	3
77	121	2
27	28	1
88	94	1
15	15	6
42	42	4
78	79	5
26	92	3
32	35	5
58	60	3
78	81	4
132	132	4
0	0	2
93	95	1
94	95	3
92	115	1
94	103	2
117	125	3
34	35	5
70	74	1
69	69	4
42	86	4
8	86	2
5	101	1
1	2	1
10	11	3
120	121	1
79	80	3
64	65	1
124	125	4
91	92	1
86	86	2
33	33	7
87	93	2
16	18	1
124	129	1
133	133	3
18	19	3
62	63	2
110	113	1
45	46	3
4	6	3
13	16	3
50	56	2
96	98	1
88	91	1
113	117	4
117	118	1
75	75	1
84	85	1
30	103	3
16	60	1
18	25	1
36	36	4
12	24	2
75	76	1
31	32	2
84	109	3
129	130	3
34	77	2
46	61	1
23	23	1
8	9	1
38	40	2
23	127	2
20	20	2
131	132	3
127	132	2
14	15	3
64	67	1
61	62	3
8	19	2
81	85	1
99	101	1
112	123	1
88	110	1
38	43	3
22	23	1
11	12	2
36	58	1
108	109	2
76	78	1
79	97	1
12	12	2
20	21	1
8	12	1
114	123	1
114	114	3
36	60	1
21	97	1
27	29	1
34	36	1
69	72	2
101	102	1
119	121	1
102	102	3
3	60	1
99	99	2
118	119	1
29	48	2
25	47	1
130	131	1
127	127	1
82	82	3
46	62	1
4	92	1
33	34	1
70	73	1
33	78	1
23	56	1
66	67	1
18	105	1
37	38	1
21	49	1
8	10	1
45	57	1
45	63	1
40	41	1
