29	85	1
84	84	4
49	49	7
110	110	3
12	13	1
71	80	5
76	76	8
76	127	1
66	66	4
77	77	6
103	130	2
100	130	2
108	108	4
75	75	5
71	71	6
18	19	2
114	114	10
13	13	1
1	1	3
42	42	5
59	59	2
85	85	13
106	107	3
4	5	1
39	39	4
20	20	3
17	18	7
102	102	5
83	84	5
95	95	3
85	86	3
22	39	2
77	78	6
127	128	5
8	9	1
109	109	7
111	112	3
83	83	6
15	25	2
48	130	4
19	19	6
45	47	3
103	103	2
43	43	1
28	28	5
22	22	2
75	81	1
11	31	2
80	80	3
45	126	4
75	77	2
27	27	2
4	4	4
21	22	1
68	68	9
19	26	2
53	53	5
100	129	4
53	90	1
72	75	5
72	81	1
104	105	1
10	11	2
112	122	4
57	57	3
26	69	3
65	65	3
120	120	4
14	15	3
129	129	3
13	63	6
59	62	3
86	88	1
54	56	2
70	70	1
105	105	5
5	6	2
0	0	6
52	71	1
56	56	3
96	96	3
74	74	3
29	40	4
57	61	3
97	102	1
6	25	1
46	80	2
94	94	2
99	100	1
16	17	9
8	8	4
27	28	2
112	112	1
15	34	1
25	25	3
40	41	1
19	20	2
128	128	1
97	118	1
57	58	2
113	113	4
91	92	5
16	127	3
78	78	4
45	125	6
125	125	5
67	67	2
81	82	1
29	30	4
22	42	3
74	116	2
16	19	3
117	117	5
29	29	2
97	126	2
7	7	1
125	127	1
47	47	5
14	14	3
7	60	4
104	104	4
26	29	1
18	18	2
80	81	1
64	64	3
65	72	1
99	118	1
33	34	4
13	26	2
55	55	3
124	124	5
33	33	2
17	17	5
54	54	6
92	92	3
133	133	4
115	115	4
116	116	2
38	38	6
21	21	3
83	127	2
14	44	3
117	130	1
58	60	1
88	88	2
45	127	1
11	11	5
48	121	2
16	16	3
24	25	2
51	51	2
53	70	2
49	50	2
19	21	2
72	72	6
44	126	1
67	68	3
75	101	1
7	16	1
91	93	3
123	123	1
61	62	1
106	106	3
26	26	3
18	127	1
74	80	1
101	130	3
42	76	1
90	91	1
120	121	1
15	16	1
98	98	1
58	58	3
84	85	1
101	101	1
1	2	2
38	55	2
65	66	1
119	119	1
120	132	2
17	114	2
43	44	3
45	45	2
78	79	2
51	52	3
45	78	1
46	47	1
19	101	1
79	81	3
21	43	1
3	3	1
23	24	2
131	131	1
124	132	3
77	100	1
96	101	3
55	56	2
73	74	3
31	31	2
39	41	1
128	129	2
47	48	1
90	90	3
110	121	1
93	93	4
31	32	1
118	118	2
130	130	4
55	82	1
102	103	1
46	46	1
38	39	1
14	16	1
3	5	2
12	12	1
91	91	2
50	51	1
62	62	2
81	81	1
106	108	2
24	24	1
24	27	2
42	44	1
79	79	1
48	48	3
99	101	1
124	125	1
78	82	1
117	118	2
117	119	2
86	87	1
15	15	2
97	98	2
11	108	1
31	83	1
126	126	1
95	131	1
23	23	1
105	120	2
42	43	2
9	9	2
64	66	1
44	45	1
16	18	2
21	44	1
11	12	1
50	50	1
40	40	1
13	14	1
98	102	1
11	29	1
82	84	1
54	92	1
101	102	1
107	108	1
