9	9	1
36	38	3
39	39	3
100	132	2
103	104	2
93	116	1
138	141	3
1	17	2
106	107	2
39	47	2
98	98	1
109	112	5
136	137	5
97	97	6
94	108	2
110	118	4
25	25	2
115	116	3
54	57	1
43	43	6
35	36	3
101	101	8
87	92	5
117	119	5
26	28	1
119	121	3
70	71	10
38	47	1
2	5	1
10	10	6
102	103	5
138	138	2
58	65	4
94	123	5
30	58	6
129	130	8
61	62	4
141	141	4
125	126	11
124	144	3
41	41	5
47	47	4
102	102	3
0	10	10
56	62	2
34	36	6
105	112	2
68	70	2
50	51	1
99	102	2
124	127	4
139	139	12
21	21	5
138	145	4
75	77	3
69	143	4
125	127	6
65	66	2
53	57	1
3	5	3
116	117	3
136	136	3
99	100	3
30	38	3
30	30	5
123	126	2
97	102	4
66	66	7
58	58	7
71	71	1
106	125	2
107	108	2
68	77	2
40	41	2
119	124	3
115	120	9
33	33	3
3	3	1
90	94	3
37	39	4
25	28	3
118	119	4
6	10	3
101	102	2
51	58	6
5	6	3
81	82	5
19	19	7
17	30	2
71	88	7
117	117	4
76	76	1
126	126	2
128	145	2
105	106	4
62	63	7
13	13	2
27	28	2
81	108	1
79	80	4
34	34	5
61	61	3
37	38	5
124	124	3
27	29	1
18	19	6
50	61	2
105	105	1
50	53	1
64	69	1
64	65	2
31	40	3
110	111	3
66	67	1
6	6	8
113	119	3
131	136	3
18	21	3
114	115	4
84	87	3
78	81	5
21	24	1
52	52	1
11	11	6
106	113	1
67	67	4
40	69	3
121	121	8
111	111	2
88	98	6
128	130	2
75	94	3
96	99	10
115	143	5
115	115	7
122	123	8
126	138	1
50	59	1
106	106	6
52	74	3
49	49	11
12	20	5
120	120	6
35	38	5
131	131	3
63	78	4
19	20	3
40	56	2
77	77	4
104	104	7
119	138	2
8	13	2
144	145	5
137	139	1
126	127	3
39	41	4
20	21	1
91	114	2
0	13	9
83	110	2
1	2	4
59	64	2
8	15	2
123	123	9
112	113	3
16	19	5
97	98	1
62	83	2
135	141	5
22	26	1
57	59	7
67	73	1
66	87	2
92	93	4
114	114	2
5	12	2
94	94	4
16	17	5
72	75	4
118	129	3
15	18	1
128	136	2
134	134	3
104	105	4
116	119	4
103	112	4
127	128	1
140	143	3
25	40	4
123	124	2
57	57	4
55	69	2
93	98	6
5	5	3
29	30	2
4	26	3
92	92	2
51	51	1
98	101	4
94	98	3
1	30	4
70	73	2
98	107	2
20	27	6
78	79	1
65	89	2
21	26	1
97	99	1
83	85	2
86	92	2
121	143	3
48	48	6
138	140	3
92	118	4
30	41	1
58	62	2
3	4	3
118	118	3
138	143	2
50	55	2
83	83	3
27	27	3
102	139	2
100	100	5
13	14	1
79	82	2
37	55	1
125	128	2
107	107	6
93	117	3
36	37	5
2	3	1
24	25	1
133	134	5
91	94	1
141	144	1
51	53	4
129	136	4
60	86	3
116	120	6
49	52	2
38	38	5
140	140	3
42	59	2
79	84	2
13	18	2
18	18	2
81	81	1
33	35	2
112	112	1
111	112	2
19	49	2
49	54	2
121	142	1
133	133	4
39	43	1
22	23	3
21	22	2
94	97	3
68	74	2
78	80	2
71	86	3
119	119	1
110	113	5
62	69	3
96	96	3
61	63	4
8	9	2
2	15	3
21	43	2
77	78	3
10	12	2
113	133	2
132	132	4
25	29	4
56	58	1
89	91	2
139	143	2
124	126	4
38	48	1
31	32	3
127	139	1
108	108	2
9	13	2
12	41	1
60	62	4
66	69	1
16	18	2
102	104	1
117	120	1
10	25	3
30	34	1
49	50	2
51	54	1
75	75	2
66	72	1
135	135	3
23	55	1
103	109	1
72	77	1
79	81	2
129	129	2
4	5	4
8	10	1
118	120	2
33	34	6
50	50	2
56	69	2
54	54	2
142	143	1
56	56	4
9	11	1
3	10	4
76	77	1
6	38	2
130	131	1
14	18	1
40	42	1
65	79	1
142	144	1
18	23	1
112	132	1
11	12	1
61	64	1
15	15	2
111	133	2
30	31	2
17	21	1
104	114	3
122	138	1
17	22	2
47	48	2
16	21	1
124	133	1
134	137	2
124	125	2
141	145	2
28	30	1
127	135	1
32	40	1
126	128	2
63	64	1
114	138	1
92	94	2
99	101	1
120	121	3
34	41	1
60	60	1
96	100	1
111	119	1
11	23	3
11	18	4
32	34	1
29	29	1
32	36	5
128	128	1
66	83	4
24	24	3
97	124	2
125	129	2
76	79	1
15	23	2
100	103	1
69	75	3
35	35	4
29	37	4
68	68	1
71	76	1
107	119	3
23	23	4
137	138	4
42	49	1
69	73	3
130	140	1
67	70	1
74	91	1
60	63	1
50	54	2
88	103	1
52	53	1
0	2	2
99	131	2
41	56	1
86	86	2
57	61	1
126	129	1
75	76	2
65	65	2
134	138	1
28	33	3
76	95	1
34	38	2
120	139	1
61	72	1
32	33	3
119	127	1
131	134	2
80	81	1
97	110	3
129	145	2
114	144	1
10	13	2
67	82	3
12	19	1
20	23	2
80	82	2
14	15	2
0	41	3
113	121	3
58	59	1
128	135	1
0	1	1
120	125	2
6	36	1
52	54	2
128	131	2
14	14	1
93	96	1
141	143	1
100	106	2
57	64	1
55	55	3
3	6	2
127	127	2
53	64	3
87	97	2
85	88	1
69	74	2
35	37	2
23	24	1
74	76	1
42	58	1
32	60	1
76	123	2
20	39	2
8	14	1
30	42	1
17	18	2
5	9	1
99	99	2
25	26	1
109	113	1
127	129	2
53	58	1
82	110	1
28	28	1
137	140	1
14	25	1
75	97	1
59	65	1
131	132	1
48	64	2
17	32	1
106	109	1
73	73	1
75	78	1
20	20	2
63	63	3
111	113	2
16	16	1
64	64	1
0	23	1
8	34	1
126	134	1
15	22	2
1	4	1
145	145	1
119	132	2
59	61	1
122	127	1
103	128	1
142	142	1
12	23	1
62	67	1
58	60	2
72	73	2
130	130	1
141	146	1
109	133	1
40	53	1
87	90	1
82	82	1
137	137	1
136	138	1
117	124	1
130	132	1
65	67	1
42	42	1
101	106	2
101	136	3
90	92	2
11	43	1
74	77	1
71	72	2
91	91	2
64	67	1
25	27	1
118	128	1
83	89	1
10	15	1
37	41	1
130	145	1
104	116	1
51	71	1
57	60	1
106	108	1
129	131	1
101	118	1
141	142	1
114	127	1
32	39	1
87	110	1
107	132	1
