120	120	6
122	122	1
82	90	1
164	164	1
9	9	3
133	140	2
16	16	2
20	22	1
5	6	2
78	83	1
156	157	2
141	141	3
12	12	10
118	118	2
154	155	2
68	77	3
52	52	3
140	140	2
2	15	2
77	78	3
72	72	1
43	44	2
84	102	1
25	26	2
73	73	7
50	50	5
48	136	1
20	20	5
11	44	3
48	106	2
52	53	1
131	131	1
50	68	3
23	23	2
100	100	9
45	46	4
155	155	1
156	156	5
50	51	7
96	99	3
113	113	2
166	166	3
0	0	2
9	43	2
116	118	1
92	92	4
106	106	1
126	128	3
49	49	1
66	66	2
137	137	2
3	3	5
38	38	2
37	37	3
115	116	2
83	83	1
62	62	4
97	98	1
78	78	3
133	137	2
3	4	1
96	96	5
45	45	5
83	116	1
115	153	2
34	34	5
51	51	2
47	136	1
73	94	3
76	77	2
140	141	3
96	97	6
84	84	3
72	162	2
71	71	2
139	170	2
4	4	7
169	169	4
18	18	4
75	156	1
96	101	1
101	102	3
42	44	1
111	111	1
27	27	1
79	81	1
143	143	1
44	44	2
160	160	4
105	105	2
70	147	2
67	78	2
81	82	2
39	39	2
159	160	1
51	129	1
77	83	1
135	135	2
126	126	3
1	15	1
41	47	2
19	21	1
99	99	2
125	126	4
85	85	2
119	166	1
8	9	1
101	101	2
123	123	1
5	5	3
43	43	4
42	42	2
168	168	1
159	163	1
21	21	5
67	96	3
103	103	3
19	19	3
57	57	1
14	40	3
34	83	1
90	111	2
77	77	4
36	36	4
63	63	2
1	2	1
163	163	1
139	140	5
90	90	1
148	149	1
129	129	1
8	8	1
114	114	3
41	41	2
66	93	2
86	86	2
101	153	1
68	69	2
40	40	2
125	125	1
104	104	3
94	94	5
76	76	2
92	99	2
124	124	2
69	98	4
22	69	1
71	72	1
44	135	1
69	69	4
64	64	4
7	158	1
148	148	1
166	167	1
37	42	2
116	152	2
94	169	1
146	151	2
33	33	1
46	47	1
136	136	1
84	91	1
94	138	2
48	49	1
107	109	1
54	54	2
24	24	4
10	10	1
22	22	1
34	108	1
88	89	1
98	98	1
7	15	1
110	110	2
55	55	1
49	50	2
6	19	1
47	47	1
108	108	1
65	78	1
74	103	1
90	91	1
65	91	1
10	11	1
87	126	2
56	132	2
7	7	1
26	56	1
138	138	1
143	151	2
79	85	1
83	86	1
116	116	2
124	127	1
89	89	1
5	7	3
112	112	1
107	108	1
154	154	1
83	141	1
95	95	4
143	147	3
35	35	1
113	114	2
150	150	1
152	153	1
102	103	1
93	93	2
17	17	1
117	117	1
161	161	1
54	55	1
16	26	1
146	149	1
163	164	1
19	55	1
8	55	1
162	163	1
88	114	1
87	87	1
153	160	1
63	113	1
85	146	1
132	132	1
76	106	1
34	44	1
100	101	1
