4	5	2
12	12	9
174	174	9
166	166	10
221	221	15
215	216	6
148	150	2
0	73	1
78	79	2
60	60	6
190	191	2
58	58	26
40	40	8
32	32	13
170	170	5
29	29	14
76	77	3
6	6	8
187	188	6
205	205	6
102	182	3
26	26	15
27	28	1
95	95	2
39	40	2
8	110	3
16	35	2
172	172	8
201	201	9
69	69	4
105	105	5
230	234	2
240	240	3
1	3	2
158	159	9
193	193	10
233	234	5
228	229	5
147	152	4
136	192	3
196	201	2
208	208	2
44	44	11
177	178	1
52	53	10
173	174	6
229	229	4
101	134	2
82	82	13
3	3	6
29	30	13
179	185	4
86	86	3
228	228	8
1	20	4
216	217	3
200	207	2
159	181	2
61	61	9
204	205	9
56	57	3
159	161	7
193	196	1
125	126	9
199	207	7
175	175	12
148	162	3
194	222	1
26	119	3
107	108	5
36	36	18
97	109	1
3	185	4
5	126	3
43	43	10
104	104	7
4	16	1
199	199	6
84	84	6
51	51	9
111	111	2
104	118	1
20	22	4
48	68	4
236	236	10
163	163	1
29	75	3
10	101	3
79	83	5
0	0	4
214	214	7
163	175	2
147	148	7
49	50	5
171	171	12
151	171	2
25	25	9
109	113	3
220	224	3
144	147	1
142	142	13
96	97	6
163	170	3
45	71	2
106	106	19
66	66	5
63	72	2
19	19	11
74	226	3
27	27	17
46	47	7
237	237	9
85	85	20
114	114	3
81	82	7
124	125	6
57	57	10
34	34	7
68	80	2
21	22	9
158	163	3
233	233	8
47	71	1
143	201	4
76	76	11
119	119	9
88	88	4
140	140	1
198	211	6
1	2	3
136	136	6
17	18	4
4	4	10
118	120	1
17	83	2
183	183	9
52	52	4
3	35	3
116	116	14
182	182	5
67	67	12
61	72	3
65	68	1
81	84	4
43	61	1
105	121	3
38	57	2
73	139	1
182	219	4
216	216	19
158	178	1
59	59	7
236	237	6
86	227	2
21	132	4
18	18	10
150	150	4
147	147	3
132	132	3
154	159	2
9	75	5
63	63	9
64	69	5
81	81	10
47	47	13
100	100	3
56	122	3
50	83	3
83	84	7
102	102	14
99	99	3
164	166	11
14	58	1
49	49	14
146	147	2
230	230	7
169	170	5
69	81	2
205	228	8
203	220	8
152	152	9
49	84	3
160	226	3
24	24	8
170	190	1
39	39	19
61	85	11
46	46	9
97	97	9
75	76	3
179	180	3
59	60	7
197	197	6
39	48	1
139	140	11
62	65	1
75	75	7
195	197	1
218	218	11
198	198	6
96	96	2
22	22	3
41	41	18
103	103	5
15	15	11
50	51	3
206	206	11
70	70	4
240	241	1
150	152	8
222	222	4
165	165	7
115	117	2
211	212	1
60	81	4
166	167	3
14	96	4
219	232	2
104	106	2
165	166	1
118	126	3
217	217	3
128	129	1
179	179	2
191	191	5
78	78	10
31	31	1
226	226	12
96	109	2
2	2	3
235	235	7
68	217	1
124	124	2
132	138	2
50	68	3
122	165	3
231	231	2
37	37	7
66	68	4
146	224	2
239	239	2
121	121	8
82	83	5
20	42	3
13	13	3
45	103	3
55	208	1
31	32	1
46	70	5
145	145	9
1	52	1
51	52	4
28	28	18
193	221	3
202	202	14
101	101	6
144	144	16
109	109	3
143	145	2
186	186	2
162	168	5
180	183	3
37	75	2
237	238	1
159	159	2
33	33	10
9	9	13
101	112	3
44	54	1
187	187	3
226	227	10
65	66	2
205	225	2
14	29	3
81	83	2
22	23	2
23	48	4
125	125	6
20	21	1
156	157	5
214	222	2
64	67	3
48	53	4
30	76	2
40	41	4
221	222	4
24	25	4
213	214	1
45	45	9
80	81	2
12	140	1
30	49	1
99	100	1
158	158	2
30	33	4
22	29	4
229	230	1
99	125	4
135	136	4
3	22	2
180	182	4
157	178	1
128	185	4
137	137	3
212	212	5
30	31	2
155	158	2
54	142	2
100	102	3
5	7	1
22	38	3
231	232	2
28	45	1
47	70	1
23	79	1
168	168	7
136	196	2
24	27	2
65	69	1
175	232	3
135	191	4
129	129	5
74	74	8
213	221	3
192	194	3
167	216	1
50	58	2
54	63	1
182	183	6
242	242	7
124	167	1
69	217	1
26	27	3
218	219	1
215	215	2
213	215	3
117	117	4
6	16	1
66	67	5
116	117	3
131	131	5
98	98	7
197	208	2
107	107	3
222	223	2
44	52	5
160	160	9
54	71	1
192	198	2
106	107	5
188	188	4
60	61	5
154	236	1
103	123	3
69	73	4
128	128	3
12	187	2
153	153	2
154	154	4
195	196	5
56	56	4
62	62	3
196	196	5
71	72	2
169	169	6
180	186	5
108	109	2
214	215	5
164	164	8
15	34	1
215	218	1
126	167	4
72	72	4
139	139	9
209	209	5
21	21	4
39	47	3
54	98	4
25	27	4
71	71	6
129	130	6
167	186	4
118	118	3
167	168	1
79	79	7
103	106	1
11	109	1
13	15	3
42	42	5
155	232	3
77	77	6
17	34	3
164	185	3
54	56	4
217	223	3
118	168	1
7	7	10
38	38	9
14	14	6
159	164	7
200	202	5
38	61	2
65	67	6
144	156	2
130	130	1
15	36	3
65	71	3
192	202	2
200	200	2
58	98	1
74	134	3
168	203	2
83	83	6
50	50	5
77	79	1
124	127	1
18	20	3
68	68	10
219	226	1
223	223	3
185	187	3
69	101	5
187	190	2
180	180	2
29	76	7
122	122	6
1	78	2
15	16	4
64	71	1
176	176	1
64	64	6
203	203	3
12	75	2
213	213	2
35	35	4
84	117	2
10	10	10
3	21	2
234	237	1
126	127	4
108	108	4
133	133	1
101	121	2
85	105	2
101	135	3
225	229	5
9	16	4
80	80	6
191	223	2
51	53	3
34	122	4
33	39	4
53	53	4
82	128	2
188	189	3
122	124	2
16	16	6
1	186	3
34	35	5
84	85	1
151	151	4
197	198	2
212	213	1
63	64	1
119	120	4
173	173	6
190	203	3
149	152	3
135	135	3
226	228	5
9	69	2
62	84	4
176	177	5
16	23	3
83	87	1
172	173	2
149	153	1
106	121	4
54	54	3
76	81	3
47	62	2
21	42	3
76	82	4
13	16	3
65	65	3
138	139	3
59	118	1
22	50	2
210	211	1
155	155	3
4	117	2
11	11	4
99	127	3
37	42	5
227	227	1
100	101	2
48	51	2
46	136	3
156	156	5
164	165	4
106	117	1
102	121	1
201	202	6
191	194	1
192	193	2
90	130	4
20	37	1
55	55	6
120	120	1
19	58	2
58	59	2
5	16	3
23	23	6
99	122	1
10	11	2
44	86	3
67	88	6
114	117	1
192	192	3
18	58	2
207	207	2
19	29	1
16	81	1
152	153	6
171	203	1
148	148	4
141	141	3
145	146	1
16	17	5
138	138	1
39	54	2
167	167	1
13	14	2
58	60	1
2	3	2
241	242	6
113	113	7
146	146	7
26	28	4
31	33	1
59	61	2
149	149	2
235	236	2
163	168	1
194	194	5
213	216	1
64	70	1
127	169	1
9	29	1
73	75	2
132	133	2
114	125	2
133	137	1
170	177	1
145	147	1
121	124	1
184	185	1
71	85	2
181	190	1
8	130	5
168	200	1
181	181	3
220	220	1
77	80	1
161	161	2
127	127	3
20	20	2
145	151	1
45	61	1
144	146	1
176	227	3
13	100	2
136	141	1
24	28	1
203	228	2
41	42	2
20	68	4
3	166	1
162	163	3
171	173	1
46	86	1
67	68	2
217	218	1
96	122	2
196	197	1
20	166	2
157	157	7
8	14	1
200	201	1
66	70	1
74	133	1
48	48	2
157	159	4
145	178	1
32	33	1
122	128	1
9	73	1
105	124	1
25	26	3
47	65	1
209	222	3
40	49	2
153	155	1
189	190	2
3	72	3
42	103	1
110	110	2
16	18	1
43	55	1
191	193	1
210	210	3
1	185	3
89	105	1
2	125	2
104	117	1
184	187	1
36	37	1
145	152	3
220	223	2
24	31	1
195	220	1
1	1	4
5	104	3
41	57	3
14	15	1
34	120	2
18	30	1
75	78	1
190	226	1
146	232	1
198	207	2
13	95	1
35	36	1
217	219	1
189	189	3
7	31	3
21	48	1
204	204	1
47	55	1
224	225	1
184	184	1
41	56	1
23	24	1
69	75	2
238	238	2
115	119	1
235	239	2
84	106	1
112	113	2
17	17	1
12	228	1
153	154	1
150	151	2
32	122	1
98	127	2
29	120	1
198	200	1
126	126	1
87	88	2
12	73	2
194	195	3
40	56	1
5	17	1
7	13	3
73	73	2
160	161	1
5	65	1
144	194	1
137	139	1
16	77	1
104	122	2
234	234	1
118	119	1
8	8	1
156	177	1
146	230	2
170	223	1
137	191	1
185	185	1
5	6	2
151	152	1
140	141	1
143	144	1
0	29	2
114	124	1
48	49	1
16	84	1
180	189	1
191	202	1
74	138	1
22	74	2
80	130	1
20	161	1
142	157	1
104	124	1
86	135	1
171	220	1
15	17	1
141	142	1
