52	77	1
198	198	5
188	188	6
178	178	9
171	171	4
19	19	3
221	221	6
167	167	2
114	118	1
61	64	5
22	29	3
116	118	2
59	59	6
178	183	3
163	163	2
150	150	9
55	56	3
62	63	1
110	111	4
212	213	2
214	214	5
107	107	1
151	151	11
229	229	8
111	111	8
57	96	1
146	146	3
25	25	3
145	145	2
195	195	2
60	60	5
91	91	5
94	94	3
175	180	5
34	35	4
4	19	1
88	88	1
242	242	1
205	205	3
117	117	7
162	162	8
207	207	2
190	217	4
67	87	1
218	219	10
154	156	7
55	60	1
72	72	7
153	153	3
82	84	6
5	14	1
40	40	5
62	111	1
228	228	4
55	55	6
231	231	2
92	93	5
170	170	12
211	211	3
84	85	2
190	190	2
11	11	10
62	70	1
85	85	6
46	46	1
197	197	10
246	246	8
81	81	3
209	210	3
23	23	8
182	212	3
51	55	1
93	93	3
150	151	1
208	208	3
166	171	4
170	177	4
161	173	3
234	234	3
1	2	2
26	26	2
177	219	1
171	220	2
69	69	2
241	242	2
237	239	2
46	110	2
158	182	3
51	51	1
174	175	1
234	235	1
103	104	3
195	198	1
63	63	2
204	204	5
45	45	4
34	34	9
248	249	2
58	58	4
38	38	6
57	57	8
237	237	1
184	184	4
99	99	5
168	169	6
210	211	2
114	114	1
82	83	1
236	236	7
43	43	5
164	169	4
217	217	4
222	223	2
48	50	1
164	164	6
202	202	1
49	208	2
200	200	3
183	185	4
28	28	6
8	8	5
44	45	4
33	33	1
42	43	2
84	84	4
7	43	4
44	44	3
39	39	6
236	237	1
240	240	3
184	218	3
5	34	1
120	120	2
64	64	4
77	77	5
245	245	1
15	16	2
232	232	4
154	155	1
54	55	1
94	95	2
4	18	2
157	165	1
212	212	2
199	200	1
52	53	1
10	16	3
16	16	2
168	168	4
156	156	6
71	72	2
98	98	5
227	228	1
195	196	2
239	239	2
220	220	3
2	237	5
97	99	1
215	215	1
193	214	6
177	177	2
210	210	4
73	74	1
241	241	1
173	173	3
152	177	2
97	97	5
48	71	2
201	201	7
6	6	3
78	78	6
180	180	3
56	67	4
66	70	2
48	48	6
145	147	1
14	14	2
55	66	1
31	31	2
10	12	2
113	114	2
116	117	2
187	187	4
185	185	1
158	177	1
72	79	1
35	35	10
24	25	3
110	110	3
30	30	1
175	176	2
35	36	2
20	21	3
86	86	1
90	90	3
192	208	1
224	224	2
40	41	3
21	21	4
85	86	2
56	57	1
175	175	2
86	87	1
204	233	3
189	189	1
173	174	4
15	15	1
8	9	4
12	12	3
213	213	6
199	199	2
176	176	2
75	75	4
162	164	2
208	209	1
118	118	2
53	53	1
145	228	1
212	214	2
4	5	1
32	32	9
22	22	3
120	225	1
109	109	1
182	182	1
159	176	1
49	65	3
63	64	1
108	109	1
206	206	1
114	115	1
237	241	1
210	222	4
216	216	5
163	164	1
168	170	2
181	215	2
237	240	2
171	176	1
89	89	1
185	222	3
152	152	2
50	50	1
227	229	1
42	66	2
32	193	1
39	46	2
245	246	1
193	193	4
101	101	3
164	166	1
80	81	1
37	38	1
157	158	1
161	170	3
112	112	1
232	233	1
155	155	2
162	167	1
41	41	1
60	62	1
36	36	2
18	37	1
42	42	3
149	150	1
12	15	2
152	171	3
176	177	2
196	196	1
28	31	1
225	225	2
236	246	1
10	10	3
202	229	2
69	73	2
172	172	1
238	238	3
3	5	1
9	9	1
235	235	1
236	241	2
226	227	1
166	166	1
194	194	2
178	187	1
33	35	2
13	13	3
191	219	1
20	20	3
159	159	1
181	181	1
102	102	1
76	90	1
208	241	2
201	202	1
57	106	1
222	222	2
215	218	1
158	158	1
196	198	1
147	147	1
10	11	1
197	209	1
62	62	2
226	226	1
234	239	2
163	166	1
54	54	1
4	15	1
233	233	3
96	96	1
227	227	1
82	82	1
26	41	1
152	219	1
22	236	1
