36	36	12
66	66	10
77	78	2
7	8	2
148	148	5
231	231	10
2	31	1
135	135	5
199	199	7
20	20	5
151	151	4
46	47	4
192	192	7
1	74	3
35	36	1
49	49	4
145	183	3
27	28	3
85	86	3
123	157	1
28	28	8
193	193	3
152	152	1
153	153	2
208	208	5
13	14	3
58	75	2
149	150	1
143	143	4
178	178	8
64	65	4
22	22	7
2	3	4
18	79	2
131	131	1
12	12	12
79	80	1
47	48	1
63	63	3
224	224	3
205	205	4
17	19	2
211	213	1
213	215	1
45	46	3
9	10	5
120	121	5
65	66	2
210	210	1
8	8	5
9	9	2
65	65	6
10	73	4
29	29	10
5	6	1
14	14	10
9	59	1
89	89	4
86	86	9
27	27	7
158	158	5
55	57	3
53	53	3
106	106	10
67	67	6
215	215	2
19	19	2
170	170	2
58	58	6
53	54	1
78	78	2
22	23	2
149	149	5
222	222	3
138	138	1
86	141	2
46	46	7
141	228	3
113	224	1
119	119	3
117	118	7
82	82	3
45	183	1
15	15	9
202	202	3
195	195	2
141	141	2
1	31	6
158	159	5
29	31	1
197	197	2
153	154	4
128	144	2
136	136	2
47	106	2
80	80	3
207	207	2
60	60	2
232	233	2
65	68	3
52	53	6
73	74	2
157	157	4
200	200	5
172	172	7
120	153	4
30	30	6
118	118	3
240	240	1
193	203	3
198	221	5
5	76	1
43	43	5
216	216	3
133	152	2
73	73	8
54	68	2
49	50	5
171	227	2
169	169	6
227	227	3
46	86	2
88	88	3
62	63	1
113	120	1
120	156	3
82	83	8
11	81	1
120	120	4
165	169	2
209	214	5
17	17	2
192	195	2
37	37	5
231	232	3
74	74	12
161	161	5
194	194	2
199	210	2
225	225	6
32	32	4
95	96	3
147	147	5
76	76	4
164	164	5
105	106	2
169	170	2
209	209	3
16	16	5
44	46	1
126	126	2
104	104	1
111	203	1
56	56	5
150	150	4
55	55	9
139	142	4
111	111	4
144	145	1
32	36	3
229	229	4
238	238	5
20	21	3
145	174	2
195	196	2
140	140	3
41	50	1
16	74	1
72	72	3
211	211	3
177	219	1
70	70	1
4	20	1
186	186	5
69	69	3
7	7	4
108	115	3
74	110	1
64	64	6
223	223	1
167	169	2
21	21	8
11	83	3
13	13	4
9	60	2
133	201	7
203	203	9
48	48	2
102	126	1
138	139	2
35	35	5
109	110	1
46	183	1
130	130	2
53	79	2
62	62	4
38	38	7
35	104	1
124	130	1
79	79	3
221	221	2
47	47	4
50	50	3
215	216	3
3	3	4
133	134	4
214	215	2
241	241	2
108	108	5
135	151	1
188	188	2
159	159	3
234	236	2
124	124	4
113	125	1
176	178	1
12	18	1
144	183	1
156	156	3
30	58	1
100	176	2
62	85	1
99	100	2
228	228	3
13	49	1
10	10	4
225	226	1
77	79	3
75	76	1
166	166	2
5	14	1
177	178	3
11	74	2
18	19	2
16	51	1
167	167	3
100	100	2
187	200	1
17	76	4
1	3	3
204	222	2
85	121	3
122	122	8
206	206	3
18	18	10
163	163	5
234	234	1
25	71	1
164	165	5
134	134	1
76	91	1
41	41	1
182	182	1
78	81	4
60	82	1
83	83	2
2	2	5
33	33	11
40	40	10
135	201	2
100	101	1
107	107	2
235	235	3
229	231	1
11	61	3
207	208	3
68	68	2
84	84	1
121	152	1
6	58	2
23	23	3
59	59	3
13	53	1
43	134	6
117	117	2
24	27	2
207	219	1
213	229	2
48	104	1
209	220	1
12	17	2
39	39	2
220	220	4
198	198	3
125	160	3
160	161	6
98	99	3
81	81	2
112	112	1
212	212	1
51	51	3
184	189	4
24	52	2
177	177	1
52	52	1
135	136	3
114	115	1
241	242	4
30	31	2
218	218	1
79	95	2
147	175	1
128	128	6
202	227	1
109	113	1
42	42	4
204	204	3
208	212	2
104	125	2
157	158	1
160	160	2
81	82	1
118	119	1
136	184	1
24	24	1
167	179	2
0	15	2
154	154	2
0	3	1
201	203	2
96	97	2
105	108	1
61	62	4
31	31	3
131	161	3
22	30	3
3	15	2
187	205	1
137	137	2
171	226	1
99	222	2
165	178	2
233	233	1
193	196	1
54	54	3
226	226	2
219	219	2
176	196	3
155	155	4
192	193	2
26	27	5
190	190	1
57	59	1
30	98	2
7	79	2
172	173	1
217	223	2
147	148	2
170	171	1
97	97	3
175	175	4
153	159	1
51	83	1
51	52	2
237	237	3
206	217	1
199	200	5
99	99	2
112	155	3
187	187	1
206	210	1
5	16	1
20	28	2
113	159	3
154	224	1
15	59	1
31	59	3
103	104	1
45	45	1
80	81	2
61	61	3
232	232	3
236	236	3
34	34	2
113	113	2
168	176	1
115	125	1
13	16	1
36	55	1
191	192	2
107	108	1
44	66	1
151	152	2
4	7	1
101	101	1
185	193	1
151	171	1
226	227	2
98	98	2
174	174	2
53	83	1
37	69	1
163	167	1
105	105	4
127	197	2
197	198	1
78	82	2
79	84	2
194	201	1
114	114	1
6	7	2
75	75	1
37	38	6
33	36	1
108	220	1
6	6	1
165	190	2
125	125	1
141	142	3
76	96	1
165	165	3
6	31	1
10	70	3
154	200	2
54	55	1
29	30	2
215	222	2
116	116	1
185	185	1
44	44	2
103	103	1
104	107	1
24	50	1
26	55	1
31	32	1
183	183	4
40	41	2
239	239	1
25	56	1
33	49	1
189	192	1
26	26	3
34	35	2
21	23	1
162	162	1
85	85	1
213	213	2
103	129	1
169	225	1
55	56	1
10	174	1
23	29	1
236	237	3
176	182	1
4	6	2
179	209	1
1	1	2
25	25	1
0	0	1
118	158	2
129	130	1
120	159	1
84	122	1
102	102	2
83	84	3
102	177	1
188	189	2
101	102	1
194	242	2
15	83	1
75	82	1
19	20	2
97	131	1
199	222	1
25	43	1
39	68	1
77	77	1
2	15	1
16	19	1
137	182	1
151	201	2
164	170	1
15	19	1
110	110	1
121	121	1
198	199	1
108	161	1
212	229	1
212	213	1
33	34	1
57	57	1
181	215	1
61	73	1
24	51	2
166	167	1
168	168	1
48	106	1
95	104	2
123	127	1
9	33	1
64	66	1
214	214	1
191	191	1
3	10	1
62	70	1
192	242	1
225	227	1
209	210	1
22	88	1
179	181	1
