76	76	9
25	25	2
103	103	2
95	95	4
42	43	9
21	22	1
56	67	1
16	17	3
20	20	5
39	39	3
107	117	1
17	17	2
61	61	7
9	10	2
49	110	2
12	12	7
102	102	4
16	16	1
71	89	2
121	121	6
33	38	2
4	16	2
91	92	7
48	48	9
64	64	4
4	19	4
97	98	5
6	7	6
90	90	5
88	88	3
70	71	4
127	127	7
105	105	5
12	13	1
24	68	4
64	102	1
106	120	2
30	34	3
107	120	4
101	108	4
44	44	16
59	59	12
87	88	1
83	83	2
4	6	4
115	116	2
131	132	9
39	40	2
120	120	7
104	104	11
23	23	1
60	61	2
43	43	5
50	53	1
31	31	11
71	72	3
123	123	4
49	49	11
13	60	2
60	60	6
125	125	5
7	7	4
101	118	5
113	113	16
66	66	7
50	50	8
82	82	12
126	126	5
2	50	2
24	24	4
7	104	2
95	96	1
45	45	10
93	93	2
23	25	6
108	118	2
13	13	7
26	27	1
61	62	1
105	107	5
128	130	4
77	78	2
73	74	4
50	123	3
66	67	2
46	125	2
3	5	2
89	89	6
110	110	2
41	41	2
128	128	3
111	117	5
60	62	4
48	49	1
8	8	4
26	26	6
57	58	4
72	73	4
23	24	4
130	130	6
55	55	7
32	32	2
27	27	2
94	95	3
29	67	2
53	53	11
122	123	3
107	107	2
52	52	6
127	128	2
10	10	7
30	30	1
52	53	1
69	69	6
81	83	2
111	111	9
56	56	3
125	130	1
11	11	3
14	69	1
33	33	3
1	1	8
85	88	2
67	72	3
11	14	2
25	39	3
7	21	4
46	55	1
58	58	14
106	106	5
115	115	8
111	118	5
97	97	3
41	42	3
81	106	1
73	75	3
117	117	5
45	101	1
100	100	5
78	92	1
104	108	6
15	22	1
33	72	1
3	4	2
65	65	1
130	132	3
79	81	4
49	115	3
77	77	2
46	46	9
67	67	5
96	97	2
127	129	4
19	19	4
119	119	1
104	113	1
113	116	2
24	86	1
27	47	1
84	84	8
55	64	1
101	101	1
33	34	1
94	94	3
29	29	3
81	81	4
100	101	2
29	31	4
70	70	4
97	100	2
109	109	3
45	63	3
54	54	8
21	23	4
62	66	1
29	30	6
23	32	1
53	54	2
85	85	1
118	118	2
42	42	3
68	68	4
87	87	2
79	93	1
107	125	1
109	110	8
4	4	4
71	71	1
92	92	3
5	33	4
57	57	4
5	5	3
95	120	4
31	32	2
96	96	1
74	74	2
98	99	3
0	103	4
18	18	2
2	15	1
104	105	8
100	126	1
120	121	2
132	132	1
122	122	2
124	124	4
47	47	9
3	3	3
84	85	1
10	27	3
17	21	1
80	80	2
108	108	2
18	19	2
15	16	1
3	31	2
104	106	2
2	2	5
22	22	1
111	115	1
91	91	1
131	131	1
88	89	1
22	107	1
40	67	1
42	49	3
72	130	1
109	115	1
1	6	1
114	114	1
11	44	1
9	49	1
46	56	2
105	106	2
2	14	1
13	14	1
25	92	3
93	95	2
113	117	1
67	68	1
73	73	1
84	87	1
100	127	1
124	125	1
2	51	2
108	109	1
114	119	1
102	103	2
45	46	2
115	132	1
39	73	1
20	24	1
62	62	2
53	113	1
74	91	1
22	106	1
46	82	1
9	9	1
90	91	2
46	47	1
47	48	2
108	130	1
116	117	1
32	33	1
81	84	1
87	90	1
83	84	1
112	112	1
0	0	1
59	60	1
78	78	1
112	113	1
43	44	1
110	111	1
63	63	1
126	127	1
44	45	1
34	34	1
126	128	1
133	133	1
28	30	1
4	5	1
91	93	1
