88	90	3
80	80	5
89	90	3
32	32	6
47	49	10
22	22	13
74	81	1
99	99	14
94	94	17
23	23	9
52	99	2
83	83	8
29	29	7
58	59	4
25	26	1
113	113	12
54	54	5
89	94	1
43	43	7
57	105	2
85	85	3
28	29	6
113	114	3
57	57	3
75	75	11
56	60	1
41	48	3
92	92	21
71	101	8
83	84	6
103	103	8
72	75	5
107	107	10
44	45	3
94	102	2
68	68	5
107	109	3
87	89	5
44	44	14
47	47	8
95	95	3
21	21	7
53	60	3
30	30	13
78	79	6
56	57	5
108	108	9
70	108	2
80	81	8
35	93	2
29	46	5
76	100	3
58	108	1
109	109	2
81	81	12
73	73	13
75	108	4
84	85	2
91	114	1
24	24	13
65	66	7
70	91	1
52	52	11
38	93	3
71	71	4
51	52	9
37	38	2
69	69	12
84	86	5
98	98	10
72	72	10
59	60	5
97	97	2
28	30	4
74	74	10
42	43	1
90	90	7
50	51	5
66	66	18
49	49	3
74	76	7
111	111	3
102	102	9
76	76	14
31	31	7
106	106	13
115	115	2
92	94	5
41	42	2
47	92	3
66	68	4
104	104	6
84	84	5
57	62	2
38	38	5
82	82	5
106	107	4
64	64	14
65	65	12
51	51	7
76	79	3
87	87	3
39	39	4
34	35	7
41	41	6
45	45	8
71	75	2
28	28	4
89	91	4
50	50	7
27	27	6
88	91	1
37	48	3
26	32	1
62	62	6
101	101	8
55	74	5
55	57	6
26	26	5
23	24	3
98	99	2
58	58	5
87	88	3
70	71	1
55	107	1
103	105	5
72	74	1
103	107	3
95	98	2
96	96	5
63	63	12
78	78	7
76	77	1
47	48	2
22	23	8
25	25	1
63	64	6
112	112	4
110	110	4
87	90	6
88	88	12
79	83	4
74	97	2
42	42	4
88	89	2
75	77	1
71	72	2
105	105	4
94	95	5
34	34	2
106	108	3
75	101	2
67	67	5
60	60	5
53	53	6
34	36	1
48	48	5
92	93	3
60	81	1
51	114	3
72	91	3
29	32	7
70	70	5
80	104	4
23	89	1
61	68	2
40	73	1
35	35	6
36	36	10
78	98	4
103	104	5
75	76	3
56	56	13
111	113	1
33	35	1
80	82	3
85	86	5
70	99	1
42	67	1
40	40	4
93	102	3
96	98	8
38	39	2
55	55	6
70	75	3
74	75	5
39	40	3
37	74	1
70	93	2
94	96	2
93	109	1
95	96	5
77	77	3
61	63	1
55	58	1
75	78	1
29	30	1
72	73	3
78	80	4
79	79	2
74	85	1
48	49	4
42	45	2
89	89	2
66	69	2
73	89	2
54	57	1
61	61	4
79	80	2
20	20	3
81	115	2
57	108	2
59	59	4
51	69	1
36	93	1
93	93	3
46	46	2
43	44	1
37	37	2
81	82	2
40	78	6
93	107	1
86	86	8
40	41	5
53	59	3
114	114	3
53	75	2
73	74	5
24	26	1
22	25	1
110	111	4
101	102	4
72	77	1
96	100	1
22	33	2
62	64	1
51	68	1
86	87	3
28	32	1
71	74	1
91	91	2
50	69	1
51	90	2
22	32	1
59	61	1
96	97	2
78	81	5
109	110	1
101	108	2
71	107	2
34	95	1
36	70	2
91	95	1
96	99	1
68	69	2
79	82	1
56	58	2
31	32	1
53	56	2
62	68	1
100	100	4
26	30	2
33	38	4
49	65	2
105	107	2
56	69	1
70	95	1
102	103	3
100	104	1
61	102	1
114	115	2
54	81	1
73	99	2
71	76	1
24	27	2
107	108	1
105	106	3
45	49	1
32	33	2
42	44	1
72	101	1
64	92	1
53	55	1
35	42	1
24	29	1
58	77	1
77	87	3
55	105	1
56	59	1
66	67	2
64	65	2
33	34	1
103	106	1
54	56	1
84	114	1
70	72	1
83	85	1
69	90	1
104	107	2
66	92	1
71	81	1
26	46	1
93	96	2
51	111	1
25	46	1
