101	101	6
106	117	1
34	39	3
74	74	8
124	125	10
57	134	1
132	132	14
6	6	6
2	2	3
105	106	3
114	115	1
41	41	6
138	139	6
64	65	4
33	34	6
50	79	3
12	33	2
80	80	10
111	111	1
95	95	4
133	133	8
8	8	5
112	114	8
126	126	14
115	115	3
95	96	1
84	85	4
100	118	2
145	145	7
118	140	6
81	82	6
99	99	5
23	23	8
129	129	7
137	138	6
113	113	4
131	133	3
134	134	15
18	18	5
58	58	10
54	54	7
29	29	18
135	135	12
86	87	2
87	92	2
108	108	5
132	133	9
68	68	9
42	42	7
55	55	6
28	28	8
93	93	8
130	139	1
61	69	1
1	2	1
110	110	24
140	144	2
29	146	1
125	126	6
71	73	3
120	120	3
118	130	5
13	114	5
8	10	2
28	29	3
128	144	2
69	69	6
92	93	1
89	90	2
136	137	9
18	36	3
124	124	10
112	116	3
96	116	5
77	78	4
40	40	9
74	80	1
24	24	6
21	42	1
121	145	4
118	129	4
103	118	1
3	3	10
4	5	9
65	71	2
13	13	7
119	119	7
129	131	4
11	11	8
139	139	11
135	139	4
126	146	2
58	59	1
22	22	10
130	130	6
4	25	2
63	64	4
105	108	2
131	131	5
144	145	1
43	110	1
106	134	4
77	86	2
123	123	3
128	141	6
95	109	3
65	87	2
56	80	5
35	35	7
60	60	4
134	138	2
4	27	3
9	10	3
33	37	2
92	94	2
55	72	2
67	67	7
50	50	3
71	71	5
96	96	8
125	132	4
138	138	5
25	27	2
136	136	2
3	8	7
77	79	7
79	79	12
99	101	5
84	90	3
56	56	2
16	17	2
30	31	1
25	25	8
96	109	1
102	103	10
47	47	8
15	15	8
66	110	1
82	82	3
26	26	5
122	122	15
85	85	5
112	113	3
11	118	2
135	137	4
104	106	1
117	117	12
89	91	9
118	118	10
85	89	3
56	79	2
93	126	2
31	31	3
10	35	1
26	135	1
92	92	10
20	20	4
133	138	5
13	34	4
127	131	5
71	72	1
18	93	3
16	16	10
33	33	8
2	84	2
61	61	4
93	109	4
9	9	5
51	51	2
103	103	2
125	125	6
14	115	2
63	63	11
109	139	3
83	83	3
98	98	5
25	28	1
37	37	5
78	136	3
104	104	6
142	142	8
10	12	2
86	86	2
48	52	2
51	91	1
141	141	5
102	102	5
94	94	5
78	78	10
25	26	4
47	91	1
91	91	5
105	107	4
64	64	1
3	4	4
126	131	3
13	32	2
100	128	1
127	127	9
17	18	4
93	94	2
77	96	1
37	105	2
101	102	2
52	67	1
107	135	3
19	113	2
142	143	4
31	142	3
118	119	3
70	71	2
116	120	1
17	17	4
112	139	2
49	49	3
31	32	2
125	142	1
110	111	2
102	118	2
139	140	1
51	52	3
29	30	1
52	80	1
131	141	3
82	128	1
57	79	4
73	90	2
100	101	1
58	73	4
125	128	3
123	124	2
97	97	3
54	79	1
102	145	4
90	91	2
69	70	2
128	128	5
10	11	1
6	115	2
53	54	3
138	141	2
95	97	5
7	128	1
117	118	2
14	18	1
49	51	1
65	123	1
50	51	4
110	116	4
14	36	1
53	143	2
60	62	1
137	137	6
34	34	2
39	40	1
72	133	2
121	136	3
21	22	2
62	63	1
13	115	3
83	84	1
82	85	3
120	138	1
109	109	3
135	140	1
5	5	1
143	144	1
114	114	1
73	82	2
61	94	1
143	143	2
25	31	1
73	81	4
14	15	2
24	25	2
129	130	4
89	89	4
131	142	2
15	108	3
17	145	2
139	141	1
121	121	3
38	38	3
93	141	1
10	143	2
83	85	1
60	125	1
105	110	2
48	48	1
134	137	4
62	64	1
66	82	2
117	122	2
22	39	1
0	5	1
23	32	2
106	107	2
50	52	2
72	73	1
12	13	3
26	28	1
46	47	1
18	19	4
21	89	1
64	66	1
13	14	1
59	61	1
62	62	6
14	14	2
11	12	1
85	122	1
128	129	1
93	108	2
53	53	4
95	127	2
81	81	4
140	140	4
66	88	1
20	21	3
66	67	8
103	104	1
116	116	1
27	27	3
59	59	1
78	79	1
0	1	1
18	26	1
75	75	4
83	132	2
14	35	1
57	68	1
96	135	2
100	103	2
0	6	1
0	0	2
31	43	1
84	84	3
112	112	1
51	72	2
33	38	1
56	73	3
105	131	1
90	90	1
117	144	1
63	65	2
111	130	1
34	35	1
2	3	3
53	80	1
126	144	2
140	141	3
4	4	2
9	118	1
31	33	1
54	55	3
73	73	4
58	71	1
52	52	1
67	68	1
135	136	2
4	21	1
60	83	2
84	86	3
63	125	1
108	116	2
27	29	1
19	19	1
2	68	1
117	119	1
83	134	1
10	41	1
109	136	1
73	74	3
122	140	1
26	124	2
95	108	1
97	125	1
36	37	1
59	123	1
107	131	2
114	129	1
67	69	1
134	135	1
65	89	1
104	107	1
110	122	1
72	85	1
68	70	1
105	117	2
8	11	1
82	83	1
73	98	1
105	105	1
108	130	1
96	122	1
91	110	1
32	34	2
20	42	1
2	111	1
50	101	1
55	83	1
6	27	1
55	58	1
124	126	1
76	77	1
37	41	1
57	57	1
120	121	2
26	27	1
19	42	1
15	23	1
72	72	1
5	13	1
3	68	1
76	76	1
105	109	1
116	117	1
23	27	1
55	56	1
126	133	1
109	112	2
66	66	1
32	114	1
