40	222	2
35	36	8
61	64	4
187	187	7
105	116	6
42	43	7
219	220	4
54	54	13
187	189	4
34	49	1
50	50	5
160	160	8
118	135	2
151	151	18
236	236	14
154	154	11
98	98	5
25	25	14
216	224	2
67	67	12
164	209	3
149	149	6
168	168	6
203	203	9
21	22	10
76	81	1
46	46	13
54	66	3
188	189	9
234	235	8
127	127	14
62	62	23
142	149	2
9	82	2
11	11	14
227	227	18
21	21	15
121	121	16
163	163	8
201	201	11
30	31	9
32	32	19
135	136	9
74	74	17
78	102	2
161	202	2
47	48	8
58	60	2
29	29	19
150	150	5
123	124	5
82	175	3
160	192	2
39	39	11
177	179	3
143	146	2
215	216	3
28	28	16
75	75	7
166	172	3
101	133	1
195	195	4
219	219	24
78	78	13
119	134	2
9	31	3
11	12	2
6	8	10
151	156	4
64	64	15
58	58	12
144	146	2
49	50	3
109	110	6
70	70	21
45	45	22
5	5	14
111	150	4
138	139	11
56	56	18
209	209	13
15	15	9
39	47	2
120	120	22
105	119	1
104	104	8
122	123	1
123	147	2
84	103	2
221	221	15
178	178	7
41	41	2
190	190	13
211	216	2
75	140	3
104	105	7
16	16	7
6	6	15
79	79	5
134	134	8
30	30	5
38	38	12
109	109	4
7	17	2
0	11	4
28	29	9
192	192	5
37	37	9
223	223	13
198	198	4
17	19	4
133	135	2
2	2	8
170	171	9
4	6	4
69	76	1
81	83	6
166	166	4
98	99	1
71	71	23
63	63	13
13	30	2
2	14	2
72	72	16
153	153	14
65	65	17
115	115	11
103	103	3
69	69	16
22	22	21
6	7	1
0	1	5
239	239	7
198	209	1
113	113	7
210	210	10
92	107	4
97	97	10
205	206	7
67	99	1
238	242	1
100	147	2
188	188	5
100	100	10
226	227	10
164	164	3
7	58	3
120	127	5
20	20	27
86	86	16
184	187	5
81	81	8
64	65	4
3	9	2
226	226	7
53	53	5
49	49	8
48	184	4
200	200	17
1	202	1
124	124	8
24	24	13
1	1	15
127	131	2
135	137	3
36	36	15
102	154	2
102	137	3
85	85	19
212	213	1
157	157	4
95	95	8
241	241	11
168	179	5
119	119	13
52	52	19
142	143	1
143	143	4
150	151	12
231	231	11
198	199	9
34	34	14
66	66	6
88	101	3
206	207	11
65	202	1
8	17	2
4	4	17
147	161	2
182	215	2
84	85	2
179	186	3
18	18	13
34	35	5
238	241	1
196	196	13
187	188	3
218	218	12
191	198	3
11	18	4
214	215	3
17	49	1
147	148	7
137	168	3
163	198	3
30	39	3
216	216	6
22	226	1
21	37	4
11	32	2
228	228	8
194	194	14
199	199	7
214	216	7
228	230	4
230	230	11
61	61	16
7	7	12
180	180	8
197	197	10
167	168	8
18	19	3
17	39	6
195	196	8
42	74	2
53	128	2
103	104	1
17	34	6
16	20	1
20	226	5
13	13	17
11	14	8
139	140	2
27	27	19
147	147	5
81	84	7
48	48	5
69	102	1
105	106	7
99	99	4
108	114	3
33	34	6
53	134	1
26	27	5
217	218	2
43	46	4
10	10	14
102	102	7
134	154	2
35	35	12
169	169	13
173	233	1
31	31	16
233	233	18
117	135	1
183	183	10
26	26	14
161	178	2
107	107	2
74	75	7
167	217	4
128	128	16
22	23	3
214	220	2
232	233	3
17	17	13
83	84	1
37	48	1
43	43	13
180	191	1
200	202	4
176	177	2
9	9	18
204	204	11
70	71	4
104	120	3
83	83	4
39	42	4
79	80	5
47	47	12
105	120	5
158	159	15
45	70	8
69	71	1
215	215	2
104	129	2
161	161	14
30	34	4
104	133	1
50	123	2
78	79	4
57	57	10
136	136	14
73	231	3
209	210	4
172	178	2
29	49	2
102	104	2
79	229	1
19	19	15
33	36	7
42	42	20
56	57	3
57	60	5
7	226	4
12	12	6
55	55	9
75	82	2
156	192	3
76	80	2
182	182	8
60	60	15
24	25	1
214	217	4
152	152	6
5	7	2
238	238	5
200	201	5
65	73	5
40	40	10
128	187	1
79	102	1
104	107	6
159	159	3
65	232	4
203	206	2
17	219	4
31	33	1
137	137	13
240	240	1
141	143	3
192	194	1
129	129	5
231	232	2
157	158	10
88	88	6
123	123	8
44	233	2
40	183	1
191	191	10
52	128	1
48	185	6
171	171	11
142	148	4
205	218	5
80	80	21
98	153	1
188	197	2
204	205	2
122	122	4
166	170	1
51	51	6
139	171	1
15	20	2
82	137	1
149	150	5
242	242	15
76	77	3
136	137	2
168	169	4
155	159	1
57	58	3
140	140	13
164	198	1
44	89	1
72	232	3
21	23	5
73	73	9
200	220	6
114	116	5
115	116	8
67	81	2
171	172	2
149	152	3
220	225	1
84	84	9
0	13	5
85	86	4
39	192	2
59	59	14
143	199	3
68	80	4
25	39	4
198	200	5
179	205	6
132	134	3
13	206	3
134	165	2
66	67	5
70	233	3
194	195	3
206	208	1
68	68	7
22	180	2
119	129	3
161	162	2
121	125	4
14	29	4
177	178	3
207	207	6
220	221	2
37	50	2
3	3	6
173	180	3
139	139	11
96	97	2
46	180	3
21	32	1
126	133	1
44	44	6
189	200	4
225	225	23
146	146	2
173	181	2
161	193	1
130	158	3
165	180	2
199	208	2
71	191	2
60	62	2
48	50	6
140	237	3
19	165	2
165	165	2
23	23	5
123	130	3
128	135	3
4	16	4
32	33	2
120	123	2
70	83	7
179	179	7
46	181	3
217	217	10
98	148	1
59	60	4
121	148	2
101	182	1
69	70	1
175	239	1
131	133	6
82	84	6
5	8	1
169	188	3
7	18	1
192	196	1
58	68	4
19	21	6
7	33	2
95	96	3
211	211	7
196	197	5
6	75	2
224	224	5
110	110	1
34	37	1
111	112	4
59	229	1
2	84	2
181	181	12
68	75	1
236	237	3
167	169	1
40	187	3
148	148	3
31	68	2
35	57	4
44	70	4
77	129	2
39	53	3
139	235	1
126	127	4
176	176	8
33	41	1
44	47	3
162	162	12
205	205	9
112	140	2
211	213	3
189	189	5
172	173	4
135	162	2
105	107	2
138	138	7
0	230	1
106	237	2
75	147	2
204	206	2
31	65	1
4	15	1
42	46	1
51	53	2
140	147	4
179	197	1
179	192	2
13	16	2
41	42	2
193	193	6
102	103	3
185	185	7
126	126	13
41	82	2
8	8	3
208	208	4
51	52	8
27	28	1
206	206	4
133	171	2
105	237	1
63	64	9
102	133	3
89	89	7
27	37	2
116	117	4
50	52	6
151	153	2
99	100	5
0	0	12
192	193	5
4	7	6
201	219	1
1	3	1
39	40	3
125	129	2
176	178	2
226	228	2
12	13	3
104	168	2
237	237	5
31	60	1
235	240	3
101	101	10
233	238	4
201	202	5
104	121	1
77	79	3
145	145	8
32	36	3
52	54	2
172	172	4
144	144	7
213	216	1
6	19	3
77	77	4
2	6	5
155	155	3
128	131	2
1	15	2
202	202	9
121	149	2
11	59	1
158	158	4
223	224	7
160	161	1
234	234	5
181	184	1
213	227	3
108	108	13
71	132	1
224	225	4
11	58	1
12	37	1
9	10	4
183	202	2
186	186	1
22	33	5
20	80	3
189	190	3
17	194	5
30	33	1
132	156	1
15	36	3
176	200	4
126	137	1
46	73	1
49	54	2
4	5	3
174	208	1
75	86	1
124	147	1
47	159	2
61	62	3
75	79	3
175	175	5
242	243	2
184	184	4
3	7	1
167	167	15
215	230	2
182	232	2
213	226	2
29	30	6
174	174	7
89	107	2
131	134	2
37	38	3
75	76	4
235	236	2
211	230	2
89	103	5
210	228	2
115	134	2
191	192	4
10	11	1
173	173	9
148	149	2
170	196	1
193	217	3
194	218	1
15	30	7
83	126	1
103	122	1
121	239	1
14	14	2
47	192	1
4	77	2
105	108	2
50	106	1
18	195	2
60	64	1
1	60	1
120	125	1
31	35	1
23	103	3
156	156	2
101	102	3
18	30	2
12	39	1
112	112	2
13	15	2
28	235	4
229	229	8
177	177	2
193	194	3
12	14	2
208	212	2
171	204	2
16	21	2
15	17	2
20	32	2
73	74	4
45	46	1
64	70	1
199	200	10
130	130	2
71	98	2
11	13	3
10	30	1
117	118	1
69	73	3
103	126	1
72	233	1
230	231	2
28	30	1
103	129	2
62	226	2
81	82	1
125	125	4
175	176	1
178	179	1
2	5	2
212	214	1
114	114	4
56	60	1
46	55	2
9	224	2
20	21	2
97	102	2
135	135	4
215	219	2
121	123	1
35	37	1
123	127	3
136	153	1
171	195	2
33	33	7
40	42	10
3	16	3
135	157	1
1	4	2
130	139	1
120	121	1
17	18	3
212	212	2
140	144	2
77	227	1
162	163	7
199	211	8
165	204	1
1	10	1
103	127	2
108	118	3
0	21	3
194	217	4
90	90	2
133	133	9
164	165	3
0	2	2
7	8	1
190	192	3
43	45	1
65	69	2
153	160	4
106	127	1
225	226	2
213	213	5
114	119	1
162	186	1
214	229	1
169	202	4
99	141	2
169	181	2
65	66	2
194	196	5
222	228	2
173	202	1
114	115	1
25	26	1
36	37	3
189	229	3
103	134	1
31	50	3
183	186	1
29	179	1
225	230	1
143	147	1
24	182	1
79	106	1
44	45	2
106	122	1
145	147	2
34	57	3
19	20	3
0	26	2
141	236	2
40	113	2
154	155	3
40	41	4
237	238	1
121	130	2
77	105	1
45	47	3
193	195	1
173	238	1
174	181	2
62	63	3
112	113	1
44	46	2
238	239	2
124	125	4
220	222	3
50	57	3
181	183	1
181	189	2
216	218	1
71	233	1
74	83	2
59	62	1
163	164	2
138	173	1
187	193	1
118	119	6
25	37	2
29	211	2
118	118	3
233	234	2
108	109	2
174	175	2
193	196	2
80	126	1
177	228	2
157	160	1
48	49	3
103	121	1
169	214	2
116	119	1
143	166	2
14	49	1
14	17	2
190	191	2
233	239	2
47	64	1
156	174	1
132	138	1
239	240	4
204	218	2
158	185	1
76	130	1
71	72	3
54	96	2
105	109	3
170	170	3
3	12	1
102	236	2
44	240	1
146	154	1
195	211	1
107	125	1
205	208	2
136	175	1
1	20	5
142	142	1
66	75	6
30	54	1
6	18	1
103	109	2
199	213	1
167	189	1
131	131	2
0	55	1
17	57	1
163	165	2
2	29	1
75	78	1
103	130	1
166	204	1
147	149	1
185	187	1
192	198	1
21	42	2
106	106	5
218	221	1
26	46	2
76	76	5
57	66	3
99	148	1
10	223	1
58	59	3
15	16	2
50	51	1
38	47	1
179	180	3
5	6	1
51	58	1
56	155	2
157	192	1
37	47	1
55	190	1
125	126	1
51	189	1
22	37	1
78	84	1
100	240	2
222	222	1
44	155	1
128	129	1
65	223	2
113	142	1
197	198	2
34	60	2
25	198	1
104	123	1
127	129	1
47	189	2
121	134	2
157	194	1
46	47	2
178	181	1
137	169	1
77	78	1
68	69	2
197	219	1
175	179	1
81	137	2
153	157	2
99	154	1
105	123	1
174	183	1
52	53	1
42	240	4
41	83	1
190	220	1
102	139	3
66	68	3
65	67	1
40	54	1
116	118	2
18	21	1
39	54	1
119	131	1
11	201	1
15	190	1
80	81	1
84	124	1
171	192	1
209	230	1
53	97	1
165	185	2
232	232	1
7	9	1
156	159	3
95	110	1
54	55	3
154	187	2
150	152	1
157	161	1
67	68	1
44	157	1
106	126	1
58	62	1
121	129	1
175	192	1
16	19	1
98	114	1
76	79	1
24	26	1
22	41	1
52	58	1
207	209	1
52	95	1
103	106	1
4	223	1
140	173	1
39	41	1
203	204	1
124	127	2
174	236	1
44	99	1
75	85	1
104	125	1
177	226	1
40	184	2
1	53	1
177	198	1
74	85	1
105	105	2
58	152	1
16	33	1
14	30	1
9	76	1
240	242	2
1	2	1
3	81	1
62	71	1
70	201	1
116	116	2
152	153	1
73	99	1
159	161	1
71	73	1
35	59	1
46	58	1
15	57	1
207	221	1
127	163	1
120	158	1
159	162	1
6	51	1
11	43	1
192	231	1
55	102	1
14	42	1
225	227	2
86	96	1
25	178	1
163	197	1
137	173	1
221	222	1
33	35	1
211	212	1
100	148	1
3	224	1
95	105	1
2	82	1
13	14	1
4	80	1
2	4	1
88	98	1
143	154	1
136	138	1
146	147	1
207	208	1
115	117	1
98	119	1
31	32	1
106	129	1
120	147	1
193	214	1
122	130	1
72	227	1
20	30	1
178	218	1
155	156	1
156	157	1
0	22	1
81	85	1
20	79	1
141	141	1
16	36	1
98	101	1
106	115	1
8	227	1
155	161	1
49	58	1
