1	2	5
186	186	12
185	185	18
36	36	17
68	68	9
26	26	10
99	102	1
36	37	6
112	112	21
114	119	4
87	87	8
160	160	23
143	143	20
160	187	5
180	180	17
131	143	3
161	181	1
158	163	1
178	178	10
172	180	1
134	134	12
94	94	4
168	169	13
1	1	5
52	113	2
182	187	1
169	172	3
15	47	3
81	81	3
52	52	20
188	188	7
106	106	15
169	169	13
141	142	8
194	194	17
42	43	3
156	156	22
145	145	21
19	19	13
31	70	3
105	105	8
20	20	14
147	150	5
10	11	8
172	182	7
7	7	10
123	123	21
172	173	6
5	5	8
102	103	1
160	181	3
42	56	2
125	171	3
115	115	13
50	50	11
102	104	9
17	38	3
111	111	11
107	111	4
112	113	1
23	23	6
57	57	12
14	14	7
54	54	26
23	38	4
69	70	7
135	139	17
101	101	8
41	41	9
88	88	7
145	146	9
86	87	8
183	183	20
41	42	10
118	118	19
9	16	3
108	108	2
18	19	7
2	2	11
129	129	9
183	185	2
188	189	8
138	139	11
128	128	13
115	116	3
5	7	7
132	144	2
49	49	14
192	192	9
99	99	11
79	79	4
104	106	4
132	132	9
76	76	8
193	193	15
187	187	24
166	177	3
66	66	2
110	110	8
151	151	31
55	55	9
22	23	6
114	115	16
155	164	2
4	4	7
121	121	23
195	195	13
119	124	1
166	167	2
193	194	17
0	14	4
131	131	24
132	143	1
54	55	6
179	179	10
101	102	11
0	1	6
137	140	4
154	154	9
177	177	6
122	122	11
136	136	23
48	50	1
161	161	7
107	107	16
71	71	6
9	10	2
158	162	2
17	18	2
172	172	18
186	196	5
67	67	6
163	163	16
70	71	1
137	137	10
42	42	7
119	119	14
53	54	7
152	157	2
141	141	15
13	14	5
143	147	1
119	120	7
120	121	10
4	6	1
176	179	6
124	124	11
78	81	6
46	54	5
79	82	3
170	170	10
173	173	7
110	111	6
168	168	9
169	171	11
9	155	2
137	138	2
22	22	7
17	28	1
156	172	3
56	70	1
190	190	18
104	104	4
181	181	7
134	135	7
184	189	5
149	149	14
33	36	9
23	24	11
133	145	2
113	114	1
2	3	8
159	159	9
173	175	6
109	111	5
159	160	4
51	170	3
148	149	7
34	34	11
179	180	7
155	163	3
121	122	5
126	127	4
0	6	3
56	57	6
196	196	21
18	29	2
45	45	14
185	188	8
63	71	2
48	49	12
150	164	3
148	150	2
40	41	6
185	186	15
113	119	7
8	8	7
130	130	13
78	78	4
7	8	4
148	148	11
197	197	11
0	4	2
124	125	1
37	38	3
196	197	2
47	47	17
44	44	10
28	29	4
94	96	6
139	140	13
116	116	2
117	117	2
22	164	4
81	83	2
33	33	7
165	166	3
38	38	11
38	39	3
146	146	17
140	140	7
62	63	2
138	138	14
176	176	11
103	103	7
58	58	10
138	140	4
5	6	10
116	118	3
174	175	6
176	188	4
46	47	3
57	71	2
65	66	5
80	80	4
158	159	6
31	31	10
138	169	4
186	187	6
29	33	3
120	120	8
139	139	14
123	124	6
162	162	3
149	150	6
146	147	7
72	72	2
184	184	11
142	150	5
142	184	2
155	155	9
135	135	23
3	3	4
32	32	12
46	46	8
157	190	2
114	114	13
126	133	3
83	85	5
0	0	5
45	46	10
135	140	3
10	10	11
72	87	2
140	183	1
147	147	12
157	157	14
33	69	4
41	57	4
164	170	3
168	170	2
141	170	1
39	39	6
21	24	3
10	13	3
170	197	1
11	11	16
125	125	7
24	24	9
69	69	5
129	133	2
156	159	3
182	182	20
115	117	3
64	64	2
174	193	6
152	152	3
109	110	7
95	95	1
164	164	9
111	112	5
9	32	11
40	40	7
125	126	9
153	154	4
5	9	1
142	142	5
105	106	3
148	160	3
183	187	3
192	193	12
173	179	4
48	48	7
129	131	2
157	173	1
30	31	1
71	72	4
59	59	12
96	97	6
83	84	5
6	34	3
12	12	8
113	113	15
44	99	5
53	53	9
39	40	6
43	43	10
78	87	8
151	155	5
107	108	1
189	189	12
6	17	4
46	48	3
148	197	1
155	156	5
17	17	7
30	30	13
54	114	1
8	29	5
123	126	2
158	158	5
142	143	5
71	81	4
27	27	2
4	152	1
28	28	2
40	59	4
111	121	6
35	36	3
11	12	1
191	191	7
190	192	2
18	18	5
51	51	13
29	29	6
79	83	3
9	9	6
58	62	3
167	167	3
3	4	6
100	100	6
95	96	4
1	3	4
6	8	2
153	179	3
37	37	10
59	97	2
133	134	6
174	174	4
187	195	3
109	109	7
25	25	5
150	158	2
114	118	6
47	52	3
138	141	2
21	22	2
62	62	3
33	34	5
56	56	11
126	126	9
50	52	1
173	174	4
52	53	5
74	74	2
33	38	2
100	101	2
78	88	1
78	79	2
163	185	3
19	21	2
98	98	2
143	154	3
133	150	2
14	15	2
177	182	2
117	119	1
166	166	6
60	62	1
150	150	9
165	169	3
155	170	6
153	153	5
17	24	3
171	194	4
58	61	2
97	97	3
134	183	2
61	61	4
133	133	2
176	177	5
69	88	3
152	178	1
34	35	7
66	86	1
16	16	15
149	182	1
73	80	2
133	192	1
37	39	3
8	17	1
143	144	7
184	185	5
66	67	2
10	14	2
125	127	1
96	96	4
105	107	2
67	70	4
159	175	2
0	3	1
58	59	5
153	160	2
82	86	4
195	196	4
70	87	1
72	73	3
34	61	3
25	26	3
42	44	3
27	31	1
102	102	6
178	179	4
189	196	3
79	80	5
186	188	2
135	136	6
41	68	2
109	115	2
46	56	3
162	163	1
169	170	5
127	189	3
132	150	1
115	120	2
130	132	3
76	77	2
163	164	4
86	86	2
183	184	5
63	63	2
3	5	4
112	114	1
118	120	2
55	114	1
25	27	2
31	37	3
47	51	1
95	98	3
188	195	3
52	56	1
13	13	3
145	149	1
71	73	1
70	72	3
2	6	2
111	131	5
165	185	2
119	121	1
150	151	6
156	157	3
14	33	2
62	71	2
28	30	3
106	107	1
189	192	1
163	166	2
70	70	4
155	157	3
150	184	1
181	182	2
117	118	2
16	17	1
136	151	1
72	88	3
73	73	2
40	42	2
112	118	2
47	50	1
60	60	2
165	167	2
43	44	7
73	83	1
77	84	6
170	171	5
108	109	3
103	105	2
122	123	1
30	32	1
137	139	3
4	30	1
132	142	2
31	71	4
111	117	1
140	193	1
147	149	1
12	13	1
35	58	2
99	100	2
25	29	1
6	7	1
85	85	4
146	197	5
30	47	1
144	144	2
34	36	1
36	63	2
50	51	1
136	191	1
188	190	2
119	132	3
35	35	2
55	56	2
152	156	1
1	7	2
8	9	1
140	141	3
171	171	6
48	51	1
32	33	3
23	39	2
169	197	1
154	180	1
157	158	6
39	41	2
152	158	1
136	137	1
130	131	2
4	145	2
194	195	1
44	47	1
12	14	1
61	73	2
160	179	2
71	85	3
139	170	3
164	167	1
23	52	1
47	48	1
120	191	2
64	87	1
44	46	1
47	53	1
174	176	2
87	88	2
141	160	4
177	181	1
146	193	2
161	182	2
131	132	2
82	84	2
174	177	1
25	39	1
12	49	3
153	155	1
39	43	1
150	191	1
155	181	1
147	148	1
171	172	1
6	32	1
139	196	1
55	70	2
10	12	2
161	162	1
104	120	1
75	75	3
168	185	1
109	112	1
65	65	1
24	32	1
153	167	1
155	162	2
115	129	1
146	192	1
136	138	2
15	16	1
132	133	2
127	140	1
15	15	1
20	23	1
110	129	1
126	138	2
134	140	1
150	152	1
31	32	1
79	81	1
130	162	1
77	78	1
136	193	1
187	188	2
122	127	2
87	89	1
79	86	1
179	181	1
143	145	1
130	145	1
34	67	1
32	37	1
41	59	1
151	159	1
3	21	1
159	161	1
2	4	1
106	108	1
90	90	1
