52	53	3
106	107	2
48	48	12
28	33	5
26	26	7
82	82	4
58	68	2
33	33	13
87	92	2
45	45	8
44	45	3
29	29	2
23	24	3
64	64	7
54	54	12
30	30	11
35	35	21
41	42	5
58	81	1
39	39	7
94	101	9
65	65	7
38	70	4
27	27	5
42	42	6
83	83	9
83	84	9
21	21	9
69	69	19
52	52	13
59	59	12
34	34	12
43	43	3
65	69	3
89	90	9
95	95	6
66	66	16
23	23	13
76	76	5
37	37	10
93	93	12
92	93	3
81	81	5
22	93	3
40	40	4
72	72	8
74	74	7
22	22	15
85	85	5
79	80	11
20	20	5
28	28	13
106	106	4
97	99	7
95	96	8
63	63	18
75	76	1
88	88	3
80	80	23
93	94	3
96	96	3
101	102	7
25	33	4
37	39	2
37	76	6
21	22	1
91	92	2
33	34	1
24	24	10
26	29	1
20	41	1
60	60	2
104	104	8
36	36	2
39	56	3
42	44	5
25	25	9
105	105	10
44	70	6
62	62	5
67	75	2
61	62	7
68	91	2
58	58	4
104	105	11
96	97	1
100	100	4
100	101	1
28	29	2
49	49	9
45	72	2
89	94	3
56	84	2
46	46	6
38	38	4
56	56	9
54	55	2
79	79	10
47	47	9
101	101	5
84	84	11
71	96	2
50	50	8
68	68	9
89	89	7
105	106	1
58	60	2
25	27	7
90	90	7
51	51	10
71	72	4
90	94	3
98	98	8
89	93	1
87	87	6
78	93	1
56	82	2
44	44	3
55	55	11
96	100	1
22	94	2
61	61	8
59	60	1
82	86	2
70	70	3
50	51	3
29	45	2
56	78	3
93	102	1
65	66	6
67	74	5
40	41	1
24	84	3
82	83	4
27	28	4
103	105	3
75	79	2
39	41	1
69	78	1
35	102	1
94	94	2
80	81	4
91	94	2
71	84	4
83	88	4
77	77	7
41	41	8
74	77	1
78	78	7
63	64	1
46	47	2
99	99	7
57	57	1
86	87	2
47	48	2
75	75	6
23	27	2
21	30	1
52	70	1
73	73	17
71	71	9
53	55	3
26	27	1
57	58	3
100	102	3
74	75	5
66	76	2
53	53	6
30	32	1
60	66	3
31	31	7
70	79	1
51	52	3
57	87	1
38	39	1
77	93	2
94	99	2
103	103	8
37	87	2
38	71	4
21	41	1
20	29	3
23	70	3
92	92	5
68	69	1
52	54	2
97	98	8
79	81	2
57	65	3
60	62	1
97	97	7
78	79	3
98	99	1
84	89	2
39	55	3
35	75	2
67	68	2
26	28	4
81	82	2
43	44	2
35	36	1
91	91	5
32	32	5
90	91	1
27	46	1
23	25	1
70	95	2
42	43	1
78	88	1
25	29	2
77	88	2
48	49	1
69	100	1
33	80	1
87	88	2
43	59	1
69	70	1
86	86	2
55	69	1
60	68	2
102	103	1
24	88	2
95	101	3
67	67	3
53	54	1
44	83	2
83	87	1
54	56	2
70	74	1
22	25	2
61	105	1
55	89	1
62	63	1
74	100	1
77	78	1
32	33	1
79	87	1
95	98	1
23	74	1
70	76	1
27	29	2
95	97	1
70	81	1
54	75	1
99	105	1
82	88	2
56	61	1
20	60	1
46	57	1
41	47	1
60	65	1
20	90	1
76	77	1
41	43	1
21	29	1
65	70	1
83	85	1
85	88	1
67	102	1
37	38	1
39	45	1
