71	71	3
77	82	1
34	34	3
128	128	4
91	91	8
88	88	4
1	3	8
77	77	10
79	79	6
1	1	6
8	15	4
73	105	2
133	133	5
84	85	4
31	59	2
25	36	6
61	129	1
86	86	2
100	100	4
85	85	5
125	125	5
101	101	9
105	115	1
113	113	7
132	133	5
62	63	3
44	44	1
119	134	1
45	45	4
116	116	8
14	14	7
107	107	11
50	50	5
82	82	4
71	91	4
118	118	4
54	54	8
52	52	3
63	63	13
92	92	4
107	117	1
75	105	3
72	72	5
33	34	3
23	23	11
71	85	1
22	23	2
95	95	7
79	121	1
102	102	7
129	129	11
7	7	7
93	93	3
56	57	5
132	132	4
60	61	4
86	87	8
44	63	4
80	88	6
115	115	5
98	98	3
70	86	3
76	76	3
71	78	3
80	80	5
89	89	1
58	59	1
16	17	1
95	118	2
3	3	3
66	66	5
69	69	1
58	61	3
9	10	1
0	0	1
81	99	1
10	36	2
83	122	3
127	128	7
22	22	2
105	105	4
122	122	2
53	53	4
121	121	1
117	117	1
120	120	4
74	74	4
57	58	8
58	110	2
31	31	6
107	108	6
83	117	1
81	81	2
56	129	3
94	103	1
49	49	4
64	68	1
18	19	2
49	64	2
122	124	2
104	104	6
130	130	1
67	102	2
13	13	7
124	124	4
13	48	2
85	87	2
64	64	4
73	114	3
4	4	6
45	65	3
72	112	3
7	14	1
60	60	1
98	108	1
127	127	2
68	68	3
6	30	1
88	101	1
126	126	3
70	70	2
90	90	5
23	24	1
108	108	1
119	119	4
114	115	3
114	114	2
131	131	2
35	35	1
75	75	3
112	112	4
28	28	2
73	73	3
64	71	2
61	61	1
69	92	2
77	78	4
55	59	2
17	18	1
9	9	4
0	6	3
115	126	1
106	132	3
134	134	3
61	62	2
54	64	2
113	114	1
32	32	1
83	84	1
97	127	1
118	120	4
71	72	2
99	100	4
95	96	2
58	111	1
133	134	2
56	56	2
5	5	5
30	30	3
37	37	2
91	93	3
92	93	2
14	48	1
43	43	4
129	133	1
54	60	1
72	73	1
45	50	1
18	18	3
26	26	1
78	80	1
43	62	4
135	135	1
89	93	1
56	59	1
69	75	1
79	98	1
30	31	1
89	90	1
131	132	1
26	27	1
0	27	2
94	117	1
9	26	1
18	22	2
87	87	1
25	26	1
10	10	1
43	44	2
84	96	1
119	126	1
65	66	3
38	38	1
83	83	1
79	81	2
43	81	1
