85	85	8
86	86	4
12	12	3
75	75	13
27	27	18
47	47	11
76	76	8
40	41	4
15	21	2
28	30	1
85	102	1
90	92	3
99	99	3
73	73	15
75	76	4
25	25	12
18	18	15
70	71	2
115	115	6
10	10	11
113	130	1
97	97	22
91	91	3
28	91	4
27	95	2
8	27	1
7	27	4
89	92	4
28	28	4
26	27	2
37	37	5
115	117	3
122	122	1
56	56	6
63	63	3
14	14	4
35	102	5
43	50	2
32	126	3
98	126	1
131	131	5
95	95	2
44	44	8
92	93	4
69	69	7
35	36	3
30	30	6
27	91	2
35	75	3
93	93	12
18	27	1
109	109	3
81	81	4
66	66	15
9	36	4
29	29	13
46	95	3
125	125	3
110	110	6
74	75	2
78	78	18
58	58	7
91	96	1
49	50	2
107	107	4
21	79	2
22	22	3
77	78	4
111	111	6
77	77	7
44	62	3
6	134	2
39	40	3
65	65	13
98	98	12
11	73	3
87	87	11
36	36	7
67	68	5
6	11	1
96	97	2
113	115	2
13	16	4
56	82	2
79	79	9
88	89	3
87	88	3
86	87	4
43	43	6
19	21	3
93	98	1
21	22	2
21	41	1
59	81	5
41	62	1
106	106	10
73	76	2
76	77	1
30	32	4
74	77	1
35	35	6
96	96	6
15	15	2
133	133	3
6	6	9
61	75	2
120	122	5
68	68	6
38	39	1
61	61	9
59	84	1
17	18	2
126	126	8
84	84	2
28	80	1
38	60	2
96	99	2
74	74	10
14	45	4
132	133	2
12	13	2
73	74	2
72	72	5
86	108	1
90	98	4
47	48	1
23	48	5
128	128	5
32	32	8
31	32	2
21	39	1
8	8	16
20	20	6
27	28	2
25	26	5
115	120	3
62	112	1
114	114	7
34	65	1
96	98	2
24	24	4
114	116	2
9	9	1
83	96	2
35	61	2
5	17	3
45	45	3
113	113	7
21	31	3
26	26	8
105	105	4
76	102	3
45	46	4
50	56	2
11	11	9
86	94	2
26	47	1
129	129	7
7	7	5
38	41	1
95	96	1
39	39	2
48	74	2
24	104	2
103	103	2
121	122	2
11	13	2
33	33	5
46	61	5
26	93	1
100	100	7
23	27	1
119	123	2
113	120	1
2	2	1
7	79	3
9	123	2
4	6	3
67	71	1
3	3	1
127	127	2
126	127	6
130	130	3
37	49	2
113	116	1
91	92	2
64	64	3
59	101	2
117	118	2
1	1	1
40	42	1
59	60	3
21	21	8
63	64	1
4	29	2
99	101	3
104	104	3
44	45	2
90	90	4
19	22	1
71	72	2
38	58	1
3	99	3
108	108	3
17	17	1
19	20	1
9	61	2
43	44	2
29	30	4
114	115	3
23	24	5
3	18	4
134	134	2
43	59	1
9	10	2
83	108	1
61	62	1
112	112	3
128	129	1
101	101	5
80	80	4
30	123	1
34	34	3
117	117	3
38	50	2
104	105	2
83	83	1
21	38	3
65	98	3
42	42	1
13	46	2
16	16	6
64	65	1
22	28	1
19	19	5
30	31	4
88	88	1
23	73	1
46	47	2
57	57	7
60	60	4
29	76	1
22	26	3
27	97	1
37	81	3
121	121	4
16	24	2
55	56	2
111	119	1
33	35	1
11	54	1
3	102	2
103	107	1
131	132	4
22	24	1
114	131	1
31	59	1
92	94	2
79	80	2
98	99	2
10	134	1
10	11	2
107	108	1
90	91	1
55	55	2
108	109	1
41	50	2
106	107	1
93	102	1
88	96	1
68	69	7
33	34	3
30	47	3
124	124	2
41	41	3
86	91	1
27	93	3
112	113	1
40	49	2
97	98	2
61	72	1
37	38	3
7	26	1
29	49	2
27	75	1
10	14	2
102	102	3
81	128	1
31	31	4
82	82	4
118	118	3
7	97	1
78	79	2
84	85	2
62	62	4
33	75	1
67	67	1
119	119	1
29	31	2
23	23	1
14	74	2
28	29	1
38	38	2
48	48	3
70	70	1
59	59	1
34	61	1
114	121	1
15	49	1
99	100	1
94	94	4
4	98	1
71	71	2
4	4	2
84	110	1
62	66	1
7	76	1
92	126	1
0	0	2
5	5	1
32	36	1
93	99	1
89	93	1
2	7	1
45	89	1
3	46	1
34	80	1
42	59	1
89	97	2
30	76	1
112	114	1
17	23	1
22	57	1
40	40	1
65	66	2
111	114	1
57	58	1
35	78	2
48	50	1
93	95	1
46	94	1
114	119	1
46	46	1
101	102	2
41	42	1
23	38	1
38	42	1
18	19	1
123	123	1
5	22	1
44	48	2
10	47	1
48	93	1
3	19	1
1	3	1
100	101	2
124	128	1
11	93	1
41	60	1
