4	4	7
124	124	16
104	104	12
131	131	12
127	130	14
74	75	5
15	35	4
80	97	5
134	134	17
95	95	18
6	6	4
126	126	11
116	116	26
128	128	12
11	11	10
107	108	2
137	138	3
94	94	3
33	33	9
137	137	11
16	16	10
28	29	5
97	97	5
127	129	1
72	72	14
110	110	3
90	91	3
122	122	23
117	123	3
86	87	5
34	35	5
5	5	7
13	30	3
92	92	7
90	90	2
132	132	18
89	90	4
134	139	2
111	111	13
123	123	9
102	102	20
104	126	4
7	20	6
109	109	8
120	122	4
29	77	11
12	30	1
22	22	8
126	127	6
124	125	2
89	89	15
134	138	2
103	119	5
114	115	8
85	86	2
136	136	12
71	72	4
25	25	8
133	133	8
82	82	3
10	11	9
99	99	16
77	78	7
81	81	5
10	31	1
2	2	8
19	19	11
129	129	20
134	136	5
28	28	10
122	124	2
37	37	11
81	82	5
96	96	8
83	86	1
1	21	3
107	107	11
80	81	8
18	18	8
128	129	8
84	84	3
11	12	5
75	98	1
118	125	4
17	34	2
117	119	2
123	124	5
120	121	7
83	83	9
35	35	9
100	101	4
79	79	11
80	80	4
85	85	2
77	77	6
125	125	15
139	139	10
15	16	3
121	125	2
113	113	10
135	135	13
127	133	4
86	86	9
94	106	3
73	132	2
125	134	3
120	120	14
92	94	8
22	32	3
87	87	10
103	103	10
101	114	1
3	3	2
130	130	9
14	14	1
24	26	3
34	36	1
104	105	3
115	115	10
95	96	1
98	98	7
20	20	5
113	114	2
71	71	7
32	32	6
24	24	4
38	38	2
1	20	2
75	75	5
36	37	1
97	106	2
26	26	12
118	119	5
108	108	7
4	72	2
140	140	18
13	82	3
72	73	4
83	85	1
17	18	1
76	77	5
110	112	4
27	27	3
93	98	2
102	112	1
75	80	2
12	12	4
131	132	3
117	117	9
16	118	3
108	109	7
84	122	2
91	136	3
73	73	14
29	84	4
36	36	4
101	126	1
78	79	1
9	29	1
130	140	4
93	94	3
91	91	9
101	101	7
105	105	7
110	127	1
83	120	5
86	127	3
123	129	2
105	119	2
132	133	4
112	113	2
127	127	9
75	77	2
91	104	2
1	7	3
118	118	2
17	36	3
99	136	1
88	90	4
13	84	3
22	23	1
7	7	9
82	120	1
2	20	3
93	93	3
1	1	4
119	125	2
92	93	2
101	135	3
5	6	1
13	13	5
12	73	2
110	111	6
29	29	4
119	122	2
119	119	3
112	112	6
28	71	1
78	78	3
9	27	1
19	20	1
106	119	2
127	135	1
117	118	1
102	113	3
8	38	1
94	107	1
106	106	5
10	14	1
74	89	4
23	24	1
34	34	2
101	106	1
90	116	2
125	126	1
19	37	1
102	103	3
95	106	5
137	139	1
31	31	2
123	133	2
90	92	1
88	88	5
10	10	2
128	132	2
94	97	1
74	74	3
100	100	5
129	130	2
8	27	1
29	32	1
18	37	3
135	136	1
4	16	3
74	77	1
8	9	3
121	121	6
33	34	1
17	17	2
0	7	3
78	85	2
8	8	3
8	115	1
134	135	2
5	32	1
36	38	1
0	0	5
138	138	6
7	68	3
5	77	2
107	112	1
131	134	1
86	90	1
138	139	1
126	135	1
33	36	1
110	129	2
119	120	1
114	114	1
13	14	1
106	117	2
136	137	1
30	30	1
21	94	1
9	9	1
124	127	1
23	31	1
82	121	1
24	25	2
133	135	1
98	135	1
126	129	1
27	38	1
3	138	1
18	34	1
126	130	1
102	105	1
102	104	1
130	131	1
