127	157	2
19	19	5
135	135	14
153	154	5
40	40	1
113	113	3
9	18	1
146	146	2
155	155	5
82	102	1
128	130	1
13	14	3
0	0	3
149	149	13
36	37	4
111	112	5
108	111	2
7	34	7
7	7	9
70	70	8
128	128	3
106	110	2
99	99	15
134	134	6
96	105	1
108	108	10
37	37	2
105	106	4
137	137	5
121	121	5
140	140	3
92	125	2
7	33	6
84	104	2
29	29	4
145	148	1
3	3	9
18	19	1
130	139	3
110	111	1
104	104	6
80	152	1
152	152	7
66	66	4
17	18	7
84	84	2
4	17	1
158	158	7
87	87	5
10	11	3
93	93	7
40	42	2
113	132	6
44	44	7
63	63	2
124	126	1
153	153	3
105	105	2
25	25	4
137	138	8
32	32	4
136	136	11
67	67	4
20	110	6
96	96	2
4	5	2
34	34	9
46	46	13
130	131	2
86	87	3
114	116	3
48	48	5
26	36	3
126	126	15
118	119	2
13	96	4
17	17	2
36	36	14
154	154	4
39	40	3
104	105	1
88	89	6
148	148	3
150	156	2
130	130	8
136	140	1
92	97	1
107	107	8
113	114	7
127	127	10
89	89	5
81	81	6
111	139	2
71	71	6
127	158	5
23	23	6
109	115	2
124	124	9
50	50	4
132	134	2
128	148	1
13	13	9
28	96	2
41	41	10
125	125	13
82	82	2
28	28	6
33	34	2
52	52	6
27	27	1
150	150	2
6	30	1
1	1	7
116	117	5
7	31	4
150	151	5
94	95	1
80	82	2
142	142	6
144	144	2
24	84	3
62	62	3
98	98	4
89	97	1
53	53	11
6	6	2
138	138	8
39	39	5
120	122	2
41	47	2
140	156	1
102	104	3
139	139	10
24	24	4
72	73	2
96	97	2
132	133	5
90	90	1
80	119	2
103	104	6
77	77	4
80	80	9
91	91	3
97	99	1
102	103	3
129	129	1
23	24	2
47	47	3
12	14	6
7	8	7
143	144	1
93	95	3
105	107	2
132	132	3
126	127	1
20	20	1
135	137	3
112	112	4
117	118	2
3	4	10
122	144	1
114	114	1
142	148	1
10	10	4
5	5	3
106	106	7
94	94	2
131	133	1
69	69	2
22	22	3
34	35	1
84	107	1
106	107	4
95	96	1
110	110	1
120	147	2
79	81	2
53	54	1
108	112	2
9	19	1
114	115	2
8	8	2
131	131	1
119	146	1
82	87	2
90	121	2
86	86	9
21	21	3
40	43	2
21	22	1
92	124	4
89	96	2
8	9	4
16	16	4
25	34	4
148	159	1
97	124	1
49	49	8
139	141	2
81	103	1
54	54	5
1	2	1
141	142	1
54	55	3
100	100	3
111	111	2
143	148	2
135	136	1
72	72	3
103	110	2
18	20	1
120	126	2
116	116	2
113	115	2
101	101	5
116	128	3
65	65	7
14	14	1
120	121	3
2	5	1
97	97	3
131	132	1
83	84	1
92	92	2
129	130	1
35	35	2
49	52	2
117	117	3
76	77	2
25	40	1
4	39	2
148	149	2
94	124	1
156	156	5
108	140	3
12	12	4
157	157	4
31	32	2
141	141	4
120	120	10
67	68	2
144	145	1
98	99	1
146	147	1
133	133	3
11	11	1
7	9	2
151	152	6
90	91	2
26	26	1
138	152	1
4	90	1
78	80	2
68	68	3
115	127	2
1	5	1
109	111	2
37	126	3
47	88	2
56	57	1
137	155	1
16	20	1
118	118	3
79	79	2
28	41	1
92	93	2
110	112	1
116	129	2
4	157	1
43	43	5
51	51	6
25	37	4
42	42	4
32	34	1
9	9	3
19	22	2
36	83	1
135	154	3
51	55	1
93	94	3
79	80	2
67	69	1
13	15	1
11	30	1
4	4	1
26	35	2
117	152	1
102	102	3
95	95	1
97	98	3
73	73	1
122	126	1
66	105	1
112	151	2
20	22	2
115	115	2
38	38	1
51	88	1
81	82	4
35	36	1
18	18	3
87	88	1
2	155	2
106	114	2
98	100	2
109	109	3
54	87	3
89	93	2
64	64	4
2	4	2
70	71	2
137	142	4
52	63	1
51	86	1
2	2	1
85	85	2
133	137	1
30	30	2
139	140	1
45	45	2
133	134	2
122	124	2
118	126	2
147	148	1
151	151	1
33	33	1
0	40	1
75	75	2
47	48	2
50	51	1
157	158	1
46	92	1
138	139	1
147	147	5
145	145	2
108	109	3
123	151	1
142	147	1
6	23	1
9	10	2
26	30	1
123	123	1
16	17	1
123	124	2
47	65	1
78	79	2
128	129	2
113	118	1
37	86	1
83	83	2
140	141	1
40	41	1
121	122	1
108	113	1
5	6	1
37	92	1
110	114	1
106	140	1
30	105	1
8	21	1
40	100	1
22	23	3
115	118	1
88	88	1
107	116	1
138	144	1
112	113	1
3	157	2
45	48	1
87	120	1
52	54	1
