109	111	9
178	179	16
74	76	7
34	43	2
151	151	13
77	78	5
25	25	21
170	170	15
88	88	17
67	69	4
5	6	8
0	2	12
3	7	6
153	153	18
197	197	13
189	189	18
33	37	2
128	128	17
130	130	9
6	6	21
100	100	29
118	119	11
157	159	7
4	4	23
120	120	10
178	178	25
18	25	3
77	77	8
136	136	16
9	9	24
193	193	20
15	15	10
133	134	8
171	171	24
162	162	13
29	29	20
7	8	18
152	153	16
125	125	6
196	196	13
106	107	11
53	56	8
162	163	4
182	182	32
59	59	10
129	129	13
190	190	24
98	98	13
34	35	13
141	142	4
54	54	16
162	165	2
155	155	26
160	160	25
118	133	1
2	28	3
148	148	17
111	112	7
118	142	1
152	152	18
9	19	7
24	25	7
116	116	4
161	163	4
124	124	23
107	107	11
16	17	10
24	24	12
51	95	2
169	169	26
45	45	8
122	124	6
165	167	4
53	53	13
179	179	17
41	42	6
173	173	13
139	139	6
175	176	15
168	168	19
49	49	16
33	33	23
20	24	1
89	89	7
1	29	1
159	168	4
177	177	26
132	135	9
18	18	15
41	59	1
21	21	29
194	197	9
58	58	16
170	171	13
22	24	4
11	11	20
163	176	2
187	188	33
145	146	12
22	22	7
150	150	22
51	51	19
6	17	1
65	66	5
44	45	7
40	40	10
20	21	6
23	52	1
111	111	11
79	79	7
143	144	13
57	57	17
121	121	9
37	38	16
104	104	13
25	26	1
31	31	19
50	50	20
181	182	10
114	116	2
180	181	11
130	131	11
2	34	2
149	149	23
42	42	8
144	144	11
175	175	23
120	131	3
1	2	6
12	13	1
166	168	5
19	21	12
113	113	9
7	7	13
99	104	2
38	53	9
155	156	5
136	137	12
79	81	2
161	164	6
159	161	1
3	3	19
134	137	4
8	8	20
26	26	16
10	10	23
32	33	5
63	75	1
13	14	20
70	70	13
131	134	9
192	193	9
83	84	2
140	140	15
5	49	2
39	40	9
123	180	2
125	126	4
68	68	8
114	159	4
2	2	11
179	180	16
13	13	26
127	127	12
17	17	20
19	19	6
32	32	12
156	181	6
62	64	2
95	98	3
177	184	1
94	94	8
87	87	18
119	119	13
23	23	10
86	86	13
165	166	12
185	186	6
122	122	11
121	127	1
28	29	4
7	18	2
145	145	9
184	184	18
48	178	2
124	125	6
36	36	13
126	127	6
31	32	1
81	81	6
100	145	3
8	9	5
159	159	22
123	123	11
38	39	7
141	161	6
172	172	20
39	39	12
99	146	5
47	47	22
185	185	15
126	126	28
12	12	21
156	156	14
141	165	7
22	35	5
44	44	15
186	186	22
24	36	3
154	154	25
112	116	2
48	48	13
120	121	2
112	112	15
14	14	14
183	183	22
81	82	5
191	191	25
80	82	3
161	177	1
46	46	14
173	175	15
155	158	3
163	164	7
188	189	5
110	110	17
78	78	10
23	24	6
194	194	15
168	169	20
146	147	2
156	159	2
42	43	8
9	10	15
48	50	5
159	180	2
146	174	3
88	89	10
88	90	4
20	25	4
175	178	5
25	27	4
173	178	6
160	163	3
63	66	3
51	65	1
158	158	9
55	57	2
6	30	2
135	136	3
99	100	5
39	181	6
159	163	2
28	30	3
153	154	7
176	190	4
189	190	20
195	197	2
71	71	5
132	132	15
4	8	2
100	105	3
100	101	4
16	16	8
143	170	4
168	188	3
74	75	4
9	17	2
16	22	1
144	145	4
137	137	13
141	141	4
176	176	16
187	187	16
41	43	2
0	7	7
94	131	3
17	28	5
80	87	4
30	30	27
76	83	10
147	174	3
59	88	3
166	188	4
183	184	6
4	190	4
169	189	3
72	72	8
93	125	3
182	183	3
74	74	4
31	33	1
1	1	14
67	68	4
104	105	3
50	51	5
89	139	2
146	146	16
143	168	9
10	44	1
17	23	2
44	46	2
151	152	7
162	164	10
158	159	9
188	188	22
139	179	1
43	43	11
0	3	5
143	145	3
149	162	2
7	20	2
190	191	4
147	147	17
113	123	1
117	131	2
105	144	1
28	36	3
176	177	7
174	175	10
38	38	13
191	192	17
18	19	7
127	128	2
88	118	4
190	192	8
74	86	4
76	76	10
4	31	13
121	123	5
15	16	4
106	106	6
164	193	5
171	172	3
183	197	2
49	189	1
115	115	9
93	94	3
166	166	18
149	150	11
82	103	4
62	62	6
53	54	3
63	67	1
48	93	2
61	65	6
94	95	2
122	185	3
89	90	2
109	109	9
160	161	3
28	33	1
195	195	9
186	187	8
19	20	4
157	157	25
114	114	5
174	174	13
150	151	7
46	48	1
180	180	19
179	181	4
76	81	3
30	31	7
128	193	6
161	167	3
186	190	3
34	36	4
26	28	4
71	72	2
142	142	12
67	67	5
137	139	2
108	108	15
49	50	3
49	53	3
166	167	6
64	64	5
120	128	6
1	180	1
57	58	7
148	149	6
21	26	3
39	42	2
84	85	3
102	103	4
59	61	4
102	105	2
161	161	12
93	97	2
110	111	3
184	185	5
170	188	1
156	157	15
95	96	14
160	180	2
166	190	1
93	194	1
157	182	2
135	137	7
60	60	1
21	24	2
70	73	1
3	4	5
97	114	3
177	183	5
101	101	5
52	53	4
118	118	12
9	12	1
93	121	4
172	173	3
83	89	1
84	84	7
152	163	1
100	102	1
61	61	6
20	30	3
134	135	9
112	113	2
105	105	5
108	112	3
56	56	11
41	41	12
10	43	1
36	38	2
1	27	3
143	143	3
167	168	8
2	3	7
4	194	2
162	192	1
103	103	8
17	18	10
27	27	20
4	5	2
54	63	6
0	0	11
18	20	4
73	75	3
159	160	10
12	14	4
133	133	9
155	157	1
65	70	2
161	168	3
135	135	7
180	182	1
0	28	1
85	85	5
80	81	3
22	23	4
133	135	1
114	115	8
131	145	4
192	192	12
181	181	17
107	119	4
51	55	3
118	135	1
60	61	4
154	156	5
147	148	8
3	6	6
183	185	3
173	174	11
52	52	11
173	177	4
154	157	7
94	126	2
147	167	1
171	187	2
0	1	7
116	133	6
45	48	1
165	165	22
37	37	7
54	56	1
65	65	8
160	197	1
118	140	4
30	49	1
134	134	3
153	156	4
0	6	2
110	116	4
144	148	4
190	194	1
96	133	2
2	196	2
83	83	5
174	190	3
167	167	3
64	68	1
108	110	2
118	130	6
66	68	4
17	20	6
135	143	1
117	117	7
54	55	7
103	106	4
36	41	2
170	172	3
18	31	2
40	41	8
175	190	2
139	140	8
147	169	3
135	140	1
55	55	12
94	130	2
116	119	2
27	28	1
117	129	3
188	192	3
43	44	8
68	69	8
95	95	3
150	152	1
176	178	7
75	75	5
73	90	3
34	34	6
151	159	3
98	129	1
97	99	7
7	9	2
71	84	2
99	99	8
58	60	1
114	160	3
30	45	2
176	179	11
6	7	3
164	169	2
106	140	2
113	115	5
143	161	1
95	97	2
5	34	2
93	96	2
87	90	2
123	125	5
33	35	2
122	182	2
24	33	3
21	29	2
120	135	3
117	143	2
71	73	1
117	140	2
136	140	3
94	96	1
137	138	1
107	108	2
109	116	2
164	164	3
22	26	4
1	6	2
11	44	2
168	177	1
73	73	7
102	106	5
16	20	1
77	81	4
49	178	6
59	60	5
11	14	2
103	108	2
63	68	8
177	178	11
53	55	1
4	185	1
129	130	1
28	31	4
153	155	2
56	57	8
178	181	1
169	170	5
39	54	1
122	123	1
119	120	4
105	106	2
168	170	3
163	163	10
87	88	1
122	183	3
20	20	7
131	143	1
116	117	3
74	80	1
108	139	5
75	82	3
3	8	2
164	189	4
21	22	2
138	139	3
120	133	2
177	179	2
172	186	1
161	197	1
31	37	1
63	65	3
107	112	1
188	190	1
7	19	2
67	73	2
98	99	1
160	179	1
99	101	1
24	27	3
69	195	2
101	103	1
167	176	2
147	152	2
195	196	2
163	169	1
144	164	2
104	106	4
156	158	4
160	162	5
71	116	2
147	165	5
161	165	5
116	118	1
145	148	1
69	69	5
68	73	3
158	167	2
159	167	4
13	58	1
50	52	2
131	132	3
106	133	3
28	35	2
27	31	2
164	166	5
17	32	3
9	11	6
123	185	1
72	102	3
75	88	1
62	63	2
113	116	2
46	47	2
51	52	4
125	187	1
50	69	2
157	158	5
9	44	1
117	118	1
125	189	2
80	80	3
96	96	5
5	29	2
138	138	4
155	175	4
131	141	1
97	120	3
33	36	2
103	105	5
20	23	2
0	34	2
118	134	3
24	192	3
155	180	5
163	182	2
76	77	2
132	133	4
3	5	2
72	85	2
131	131	1
138	193	1
24	52	3
82	82	2
106	108	1
97	97	1
174	177	2
30	35	2
63	63	5
7	27	1
192	194	3
93	127	1
145	147	3
166	174	1
123	124	4
143	146	2
152	154	2
29	32	3
50	186	3
128	129	1
43	56	1
10	15	5
47	52	1
101	102	5
5	30	4
79	80	3
90	90	4
164	173	2
191	193	2
48	51	2
26	27	4
154	158	2
139	142	1
0	9	1
160	171	1
181	183	2
2	27	1
7	37	2
103	104	6
26	192	2
11	12	2
35	35	2
29	36	2
169	171	2
52	69	3
193	194	5
27	71	1
28	28	6
113	183	1
70	71	1
136	138	2
109	110	4
117	130	1
8	20	2
94	132	3
27	38	2
128	137	1
125	127	1
163	192	2
113	124	1
9	184	1
25	39	2
151	167	1
112	118	1
154	155	2
4	24	1
153	166	2
2	4	3
172	185	2
157	178	1
5	24	1
141	166	1
2	9	1
4	32	2
141	143	3
138	141	1
156	194	1
98	100	1
83	85	1
149	183	1
51	96	1
29	30	2
61	63	1
93	93	1
16	28	1
56	59	1
48	49	2
99	148	1
45	53	3
22	25	2
34	37	1
150	153	1
82	84	3
171	177	1
140	143	1
157	179	1
48	149	1
5	16	2
7	16	1
158	179	1
0	5	1
63	74	3
5	18	1
161	162	3
175	179	1
16	26	1
185	195	1
40	42	2
113	132	1
108	109	1
77	80	1
30	32	1
104	110	1
19	23	1
119	121	1
86	89	1
37	41	2
116	131	1
117	139	1
148	168	1
185	187	2
173	176	1
40	43	2
4	7	1
10	24	1
75	79	1
5	5	5
168	190	1
106	135	1
60	64	1
97	98	1
35	37	1
84	89	2
72	103	2
56	63	1
179	182	1
98	133	1
58	89	2
106	134	1
164	168	2
158	182	1
140	141	2
166	172	1
12	16	2
165	192	1
186	188	1
2	8	2
6	24	1
140	144	1
142	143	1
179	193	2
66	72	1
86	87	2
105	138	1
61	62	1
129	131	1
147	168	1
120	136	1
196	197	1
72	83	2
5	23	1
179	191	2
160	169	1
5	22	1
101	124	1
124	155	1
8	17	1
163	193	1
134	136	1
1	34	1
