78	78	3
49	49	3
56	60	2
59	64	1
75	75	3
23	23	2
32	33	3
79	85	3
70	70	1
38	38	9
60	93	3
52	76	1
64	68	1
74	74	6
71	71	5
28	28	4
85	85	2
34	34	5
40	41	5
47	48	3
51	73	6
52	52	4
58	58	10
46	47	4
72	99	1
98	98	7
96	96	3
68	68	5
90	90	5
64	64	4
76	76	7
54	56	2
85	87	2
94	94	14
55	85	1
58	82	3
46	61	3
28	94	2
51	63	1
90	92	3
60	60	8
76	79	3
65	92	1
51	51	6
40	40	5
49	50	3
38	40	3
58	59	1
38	52	4
50	50	3
23	77	3
55	55	3
45	77	1
45	45	5
29	29	2
34	59	1
85	93	3
26	61	1
80	81	3
97	97	4
42	84	4
29	30	1
63	68	1
51	57	2
40	63	1
37	96	1
44	49	1
77	78	3
81	95	1
55	59	2
84	93	2
42	42	9
57	57	3
92	92	14
52	70	2
23	90	6
62	63	3
22	22	3
87	89	2
54	54	3
67	67	10
33	38	3
33	33	4
41	41	6
75	92	2
83	100	1
83	83	4
34	61	2
85	89	2
65	65	7
70	71	2
66	92	1
89	89	3
90	91	3
73	73	6
43	83	3
59	59	4
27	27	4
34	45	1
79	81	1
35	48	1
101	101	3
100	100	3
88	88	5
47	47	8
27	46	1
49	77	3
61	61	2
55	87	2
61	82	2
53	54	2
55	56	1
53	53	4
82	94	1
86	99	2
62	62	5
26	32	1
95	95	2
67	69	2
64	85	1
72	73	2
96	97	1
25	27	3
79	79	4
28	92	1
44	44	5
51	59	1
31	31	4
81	81	6
41	85	1
27	88	1
24	73	2
26	26	1
95	97	2
87	90	1
29	38	1
93	94	1
76	90	1
91	91	3
25	26	1
102	102	1
47	98	1
20	26	4
27	93	2
57	59	1
69	69	3
27	87	2
54	84	3
65	68	4
63	63	5
46	46	1
91	92	1
45	63	2
87	88	4
83	94	1
43	43	1
60	79	1
95	96	5
24	84	1
35	36	2
25	36	1
25	25	1
81	82	1
52	73	1
27	92	2
69	76	3
54	80	1
48	48	2
52	53	1
76	77	2
56	56	1
21	60	1
46	54	1
39	39	3
57	58	1
65	91	2
37	37	1
34	95	1
27	29	1
40	56	3
53	55	1
74	75	1
32	37	1
84	84	2
67	68	3
94	97	1
41	66	1
61	87	1
68	77	1
35	35	4
30	30	1
84	94	1
99	99	3
22	53	3
63	78	2
89	92	3
41	50	1
77	77	2
25	94	1
22	24	1
37	38	1
26	97	1
54	55	1
89	90	1
93	93	2
42	44	3
74	91	2
66	66	2
36	38	1
51	77	1
98	100	1
95	98	1
32	32	1
89	93	1
83	84	2
29	96	1
52	62	1
48	49	1
60	61	1
78	79	1
20	53	1
82	98	1
69	70	2
28	34	1
39	91	3
99	100	2
52	77	2
53	61	1
56	57	1
60	89	1
61	81	1
30	36	1
23	58	1
42	43	1
70	78	1
38	51	1
40	101	1
