167	169	1
19	19	5
31	31	7
7	8	4
164	164	5
65	65	9
188	218	5
138	142	3
166	231	1
126	129	3
124	125	5
169	169	7
75	80	3
56	57	1
213	214	3
82	83	4
99	99	5
71	71	8
104	104	7
195	195	4
76	76	7
129	129	3
117	120	4
140	141	3
205	206	7
142	143	4
153	156	2
185	186	2
4	4	4
61	61	4
61	65	2
58	58	10
15	23	8
75	206	1
96	98	2
129	157	1
115	115	5
77	77	3
63	63	12
39	39	7
142	142	4
45	46	5
116	140	3
210	210	5
78	78	10
12	12	5
101	101	8
106	106	4
4	41	7
173	173	2
217	219	3
2	18	2
188	209	1
29	29	4
37	37	7
128	128	3
69	69	1
27	27	8
124	124	4
120	140	5
193	193	1
163	170	1
117	117	14
1	1	2
30	31	4
31	85	2
75	79	2
233	235	1
72	72	4
62	64	1
147	148	5
183	183	8
215	215	3
18	29	3
207	208	1
159	159	6
140	140	10
51	52	1
15	30	4
17	66	2
63	64	1
23	31	1
126	126	3
97	97	1
158	158	2
35	40	2
103	104	2
66	66	5
72	106	1
116	169	2
141	169	2
33	33	8
52	53	6
24	47	2
201	201	2
7	7	5
180	181	1
174	179	2
75	75	3
100	107	1
192	192	4
25	47	1
29	49	2
146	146	4
1	31	3
5	21	4
34	52	2
178	230	2
151	152	2
15	17	5
109	143	3
238	239	6
156	162	3
139	139	1
220	225	5
169	170	1
95	95	2
0	0	6
163	165	4
68	68	6
203	203	5
228	228	2
118	167	2
170	171	4
143	147	3
224	225	2
59	60	2
184	226	1
232	240	5
16	20	2
15	60	2
79	80	3
174	231	5
74	76	1
214	215	1
38	41	2
205	205	4
24	70	1
226	230	1
167	167	3
138	138	7
133	133	4
9	9	2
29	50	2
75	76	5
86	208	1
57	80	1
43	43	3
144	146	3
123	203	2
36	40	2
25	70	2
15	58	2
131	131	2
52	52	6
145	146	3
169	171	2
44	44	6
65	66	5
6	6	5
162	162	4
54	54	7
58	60	3
49	50	3
230	230	3
204	204	2
149	149	7
20	20	1
223	224	4
98	98	1
51	69	2
212	213	1
4	6	2
180	180	2
74	74	9
30	32	2
13	14	1
8	8	4
30	30	1
219	219	2
239	239	1
150	150	9
226	227	1
22	22	3
22	23	4
37	39	2
213	213	3
64	65	1
16	58	4
103	103	4
11	19	4
5	5	2
118	125	3
23	23	2
25	26	4
161	220	2
64	64	5
42	42	2
50	104	1
145	155	3
103	106	3
78	79	1
85	181	4
84	84	3
185	187	1
5	6	4
136	136	2
191	191	3
166	166	4
28	28	5
40	41	1
106	139	2
227	227	2
223	223	3
181	181	2
144	144	8
47	47	3
105	105	4
51	51	1
168	169	3
179	179	2
32	37	4
62	62	3
60	60	2
208	208	1
4	5	1
121	122	3
137	137	6
82	82	3
177	229	2
138	139	2
147	154	3
4	7	1
20	29	1
44	45	1
216	216	4
155	155	8
97	146	2
41	41	3
13	17	5
36	36	2
151	151	2
235	236	2
16	72	1
59	59	4
187	187	3
85	86	1
2	3	2
112	113	1
37	40	5
110	132	2
82	115	2
221	221	3
179	233	4
222	222	5
191	192	1
227	228	2
114	243	2
12	47	2
69	70	4
34	34	2
131	163	2
197	197	3
178	228	2
211	211	4
83	83	2
21	21	3
9	10	3
4	63	2
190	231	2
5	7	3
35	37	1
113	154	1
154	154	2
44	46	2
108	108	2
153	153	2
85	180	1
188	198	2
148	149	1
170	170	4
217	218	2
110	135	4
82	84	1
136	155	1
37	38	2
176	177	3
113	113	3
117	168	1
194	195	1
157	157	2
34	37	4
107	107	2
232	232	1
190	190	1
47	48	1
207	207	2
80	80	4
220	220	1
17	22	5
3	3	1
133	160	1
231	232	2
4	22	1
70	70	3
48	50	3
178	178	2
20	30	1
55	55	2
165	165	3
116	117	1
35	35	3
133	134	4
67	67	3
16	16	2
178	231	1
40	64	1
50	67	3
71	105	2
40	62	2
0	34	3
148	148	1
132	132	2
13	13	1
33	35	2
34	47	2
119	119	1
141	141	3
138	147	2
124	126	2
112	208	3
85	85	3
53	53	2
192	194	1
102	103	2
61	62	5
134	134	1
50	50	6
72	74	1
48	48	1
3	10	3
180	191	1
111	151	1
238	238	2
115	168	2
79	79	3
4	34	2
142	158	2
38	38	5
100	100	1
39	40	1
104	108	1
42	81	1
80	82	1
102	102	2
56	56	1
16	30	2
57	78	2
33	36	3
125	125	1
4	31	1
96	96	1
81	81	4
101	166	2
140	158	1
192	193	2
143	143	2
45	45	1
41	49	2
1	16	2
95	96	1
114	114	2
73	73	2
103	144	1
127	127	3
181	182	1
156	158	1
239	240	1
131	155	1
156	157	2
31	48	2
14	67	1
174	204	1
33	34	1
161	161	1
155	196	2
56	85	1
174	174	1
160	160	1
54	73	1
56	62	1
73	196	2
171	191	1
58	59	1
21	49	1
18	18	1
32	32	1
219	222	2
46	65	1
17	36	2
75	99	1
135	135	1
155	197	2
49	49	1
98	172	1
86	86	1
56	74	1
242	242	1
9	20	2
10	20	1
215	228	1
226	226	2
12	65	1
12	50	1
211	213	1
34	48	1
127	163	1
36	37	1
73	74	1
189	189	1
236	237	1
131	137	1
81	104	1
111	150	1
