117	117	9
114	114	6
62	62	6
51	56	1
112	112	11
24	24	4
10	10	14
126	127	4
116	120	2
69	69	9
66	66	6
21	21	5
73	73	11
28	28	5
132	133	2
41	41	3
117	131	1
127	128	2
80	81	3
116	116	9
48	49	4
114	120	2
15	15	5
108	108	8
77	77	13
64	64	5
33	33	3
102	102	9
99	99	9
30	30	9
75	75	14
88	90	3
115	116	2
59	63	4
19	19	5
121	121	8
40	40	5
11	12	7
22	22	2
71	73	2
122	122	1
49	49	10
57	57	10
119	119	3
12	12	3
100	100	8
59	64	3
62	94	5
52	52	9
27	27	2
76	76	3
113	115	2
128	128	4
86	86	5
86	89	2
58	58	5
124	124	12
48	48	2
32	32	4
133	133	4
45	46	3
50	51	3
116	117	2
111	114	5
13	13	8
105	105	6
76	77	1
2	6	2
78	101	3
45	45	8
106	108	1
40	45	4
97	98	3
76	88	1
1	2	3
25	25	5
112	123	3
7	7	5
63	63	4
115	115	8
95	95	14
96	96	4
70	71	1
93	104	1
3	3	3
129	129	4
29	119	2
118	119	3
90	90	7
71	72	2
16	16	6
87	87	4
68	74	2
68	97	4
132	132	4
63	65	1
72	81	2
44	44	5
12	13	2
61	74	4
69	96	3
51	51	6
72	72	2
27	29	2
43	43	5
101	101	7
29	29	2
71	71	9
79	79	4
106	106	1
103	103	8
99	100	1
20	65	3
48	51	2
15	16	2
37	38	1
47	47	5
93	93	1
60	77	5
26	27	3
98	99	4
80	80	4
16	44	2
29	30	5
126	126	5
90	91	4
105	106	4
121	124	3
117	118	2
83	85	3
119	120	6
63	64	2
111	112	2
110	110	6
6	6	3
23	23	5
31	31	6
38	39	3
68	68	6
27	28	3
114	116	2
106	107	2
18	18	1
120	120	1
54	54	2
109	109	3
69	70	1
57	58	3
20	20	1
27	81	1
13	14	1
87	88	2
8	8	4
85	85	4
1	7	4
11	11	2
82	82	4
67	72	1
3	6	1
22	46	2
25	26	5
59	59	4
42	43	3
104	126	4
83	84	4
53	54	1
56	58	5
33	34	5
2	2	3
39	39	6
52	53	8
40	41	2
0	0	7
14	15	1
9	9	1
90	92	3
75	77	1
126	129	1
55	55	5
103	108	2
75	84	3
46	46	6
81	81	3
58	59	1
53	53	7
41	42	2
19	22	2
77	78	3
113	113	4
91	91	2
5	5	4
108	118	1
118	125	1
109	110	1
122	130	3
80	96	5
44	47	1
79	80	1
110	111	4
100	101	1
83	83	2
96	120	1
78	79	10
107	107	6
45	47	2
70	70	3
38	38	2
117	125	2
49	54	1
2	13	2
102	103	4
62	77	4
97	97	2
89	89	4
104	105	3
80	87	1
61	61	4
21	41	1
123	123	5
65	65	2
111	111	3
130	131	2
130	130	5
59	61	1
56	57	1
114	121	2
90	93	1
101	103	1
104	104	2
49	50	2
14	14	5
60	61	1
26	28	1
96	121	2
112	113	1
10	11	1
49	85	1
41	43	1
94	94	5
107	108	2
7	14	3
125	125	4
67	99	1
64	67	3
34	34	2
120	121	3
93	94	1
66	67	2
107	130	1
42	112	1
49	53	1
88	92	1
114	115	1
93	95	1
26	26	2
78	78	3
5	17	1
98	98	2
39	42	2
118	118	3
7	8	1
89	90	1
57	90	1
42	42	1
117	120	2
4	4	7
67	68	4
84	105	1
97	107	1
15	42	1
59	60	1
71	101	2
6	7	1
74	74	2
17	17	2
32	40	2
88	89	1
64	65	1
104	125	1
108	109	1
127	129	1
57	88	1
105	112	2
47	48	1
85	86	1
64	104	1
61	75	1
103	107	1
73	82	1
19	20	1
127	127	1
119	130	1
91	104	1
131	131	1
84	84	1
42	44	2
101	102	1
125	126	1
50	50	1
23	25	1
72	87	1
58	62	1
22	56	1
96	107	1
124	125	1
119	125	1
31	47	1
59	85	1
44	46	1
92	95	1
56	56	2
78	80	1
1	1	1
92	92	1
104	106	1
