6	6	21
56	56	27
65	71	2
23	23	16
25	25	19
77	77	16
24	25	4
20	20	12
23	24	6
5	5	26
66	67	5
52	52	13
44	56	2
7	8	16
70	70	17
3	3	20
59	59	22
49	53	1
5	6	8
53	53	12
69	73	3
65	65	20
26	26	18
40	40	27
4	14	3
62	66	6
47	47	25
20	21	16
6	7	7
50	50	15
64	65	4
73	73	16
26	35	3
21	21	43
33	33	8
37	37	11
55	55	10
9	9	40
19	19	13
22	22	19
31	31	13
33	34	4
22	26	3
8	29	8
23	32	5
49	49	14
60	60	25
69	69	3
13	13	21
64	64	13
64	66	4
11	20	1
36	38	1
32	35	4
46	46	28
67	67	19
39	40	3
43	43	12
64	70	1
59	60	5
1	1	13
47	48	5
57	59	11
72	73	8
62	62	17
0	0	11
68	68	17
28	28	21
66	66	14
41	43	3
69	72	1
39	42	4
10	11	6
70	71	12
2	2	19
5	27	2
29	29	18
29	31	3
56	60	7
45	45	32
7	10	2
39	66	1
76	76	15
40	45	1
13	22	2
24	24	21
37	38	9
35	36	5
41	41	10
42	42	4
50	68	1
1	2	4
72	72	7
2	3	4
3	4	5
64	73	3
43	45	8
18	18	12
3	29	1
39	39	12
55	56	5
72	75	3
54	54	11
67	70	3
4	4	10
56	58	6
74	74	12
19	20	10
61	76	3
27	28	12
5	7	2
51	51	14
29	34	1
49	51	4
62	68	1
41	42	3
34	34	6
4	5	8
22	23	6
28	29	13
49	50	7
44	44	6
48	51	7
34	35	2
12	12	11
30	35	5
7	23	1
54	62	1
58	58	14
54	67	2
49	69	6
6	8	4
13	29	3
32	36	4
73	75	4
30	30	7
8	8	11
38	38	5
57	57	10
48	77	4
47	54	4
10	10	21
4	12	1
68	69	6
39	43	2
73	76	2
68	70	2
69	70	1
44	57	4
32	32	7
7	7	14
57	58	3
74	75	7
51	52	4
45	46	1
8	9	3
48	52	2
27	27	13
43	72	1
67	72	3
35	35	4
75	76	2
42	72	4
11	12	3
63	64	6
42	43	1
63	63	11
61	61	12
9	20	1
71	71	7
48	48	8
1	6	1
25	35	2
26	27	3
71	72	3
27	31	3
26	30	1
11	11	7
30	73	3
36	62	1
75	75	5
38	64	2
32	33	4
50	51	1
8	12	1
50	53	3
36	53	2
25	26	3
48	49	3
14	14	4
21	24	2
2	4	3
7	9	2
62	63	1
13	38	1
44	45	3
28	35	1
54	55	9
41	66	3
46	47	2
67	68	1
13	24	1
43	44	1
12	18	2
59	75	4
67	74	2
30	74	3
22	43	1
41	52	2
0	4	1
37	39	3
73	77	2
65	70	4
72	74	2
62	69	1
37	60	1
3	5	2
21	22	3
21	23	2
44	74	2
66	70	1
12	14	2
53	54	2
52	55	2
0	5	6
36	61	1
0	6	1
62	73	1
26	65	1
3	28	1
32	34	2
44	46	1
40	50	1
47	53	1
13	14	1
69	71	1
60	61	2
41	69	1
51	54	1
1	5	2
62	64	1
49	52	1
22	28	1
36	40	2
29	30	1
31	32	1
14	19	2
61	62	3
22	31	1
4	6	1
7	30	1
40	41	1
26	28	2
56	57	2
7	11	1
31	34	1
18	19	2
52	58	1
0	3	1
71	73	2
10	12	1
14	15	1
23	25	3
42	46	1
66	68	1
4	8	1
47	51	1
38	39	1
55	59	1
34	39	1
