60	60	15
94	95	5
90	91	8
87	87	11
68	69	12
47	47	14
29	91	4
62	62	5
107	107	9
98	99	6
96	99	4
49	49	29
48	48	22
27	27	11
34	34	13
114	114	9
25	28	1
73	73	8
61	61	7
95	96	3
42	42	14
50	52	1
36	94	3
34	38	1
23	24	1
95	97	7
51	51	14
92	112	5
76	76	18
65	67	5
50	50	22
75	75	15
63	64	4
103	105	4
19	20	3
104	104	9
20	20	8
54	56	2
109	109	8
107	108	15
25	25	8
38	38	5
28	28	10
80	80	4
97	99	3
37	39	1
24	24	16
74	75	10
71	71	6
98	98	19
35	35	5
54	54	5
25	27	2
65	65	7
103	103	12
43	43	5
89	89	4
33	99	3
75	76	3
100	100	10
37	37	10
51	113	3
60	61	3
31	53	4
77	78	4
113	113	10
52	66	2
72	72	4
102	103	4
40	41	5
81	102	3
83	84	4
95	95	10
36	37	3
24	38	3
25	26	5
77	79	3
68	68	4
48	49	4
46	46	7
90	108	3
79	79	4
110	113	4
30	100	2
32	32	12
45	45	19
44	44	10
85	85	5
91	91	9
53	54	3
35	94	2
37	89	1
112	113	2
54	55	1
59	61	6
106	106	2
59	60	2
88	88	1
96	96	17
77	77	8
61	62	3
23	23	10
30	92	1
21	21	3
81	82	2
111	111	9
46	47	10
67	68	5
92	92	16
44	45	6
40	40	8
78	79	4
34	35	2
30	30	5
88	98	3
74	74	5
28	29	7
105	105	6
28	32	4
102	104	7
58	58	3
43	44	1
29	29	7
31	31	11
37	111	9
99	99	2
112	114	1
78	78	9
47	52	1
104	105	10
72	73	2
88	89	2
26	26	7
96	110	2
74	87	1
89	90	7
112	112	15
32	33	3
101	101	3
97	97	8
113	114	1
47	48	2
22	23	5
20	110	4
30	31	1
81	81	2
79	81	4
75	98	2
63	66	1
81	106	3
85	89	3
83	83	13
39	40	7
41	43	1
108	108	7
39	39	10
70	70	4
33	33	15
58	59	1
40	42	4
73	74	11
27	101	3
63	63	6
67	67	6
55	55	7
45	52	2
22	22	6
110	110	7
109	110	2
90	90	2
35	36	2
30	46	2
31	35	1
87	88	1
29	59	2
70	71	5
102	102	4
58	65	1
31	47	1
22	24	3
59	59	6
55	75	2
36	95	1
21	22	1
55	56	1
94	94	4
73	101	1
69	69	2
50	110	1
45	49	3
101	103	2
101	102	1
96	97	4
115	115	3
32	35	2
19	19	4
66	66	5
20	84	4
78	102	2
26	27	3
111	112	1
71	72	4
31	32	4
55	59	1
26	32	1
61	72	2
57	57	2
42	44	1
86	86	5
84	84	2
46	48	1
52	52	5
82	82	3
27	29	2
41	42	2
62	68	2
38	88	1
22	27	1
63	67	1
79	82	1
53	53	2
108	109	1
66	67	6
100	101	1
107	109	3
53	108	2
75	78	1
81	108	1
32	92	1
62	103	1
56	56	3
61	68	2
41	50	1
97	98	1
42	43	2
51	52	1
31	54	1
42	46	2
86	87	1
34	106	2
34	101	2
33	34	1
31	34	2
52	53	1
34	100	4
96	100	2
88	90	2
27	81	1
24	29	1
20	52	1
43	45	2
51	101	1
76	78	1
28	30	1
50	51	1
21	80	1
38	39	1
52	72	1
96	98	1
85	95	2
55	103	1
82	83	1
41	48	1
66	109	1
49	77	1
108	111	1
20	53	1
85	86	1
41	41	1
