11	11	31
45	46	15
154	155	13
115	116	2
84	84	27
109	120	1
117	118	7
20	20	37
222	222	9
46	46	32
31	31	20
24	25	18
34	36	4
40	44	1
121	121	11
172	172	9
7	7	14
164	165	5
194	218	1
7	14	1
148	167	1
191	191	18
234	234	24
156	161	4
62	63	2
134	135	4
189	189	23
159	159	16
40	40	20
229	230	4
81	102	5
152	153	4
28	29	16
210	210	8
75	75	18
105	106	12
133	133	18
64	65	16
223	224	11
96	96	12
95	95	5
2	4	9
119	119	25
47	96	1
8	8	22
137	137	18
190	190	26
6	6	10
200	200	20
68	68	33
146	147	2
190	218	8
209	209	18
0	19	6
73	73	28
235	238	5
12	13	11
43	43	31
181	181	20
67	68	8
108	109	11
122	122	14
238	239	11
6	10	4
69	69	34
198	202	4
108	108	6
70	70	43
46	47	11
44	44	29
100	103	4
49	49	17
147	171	6
7	10	9
73	74	13
178	178	18
33	35	5
153	153	22
52	56	1
134	134	18
221	221	8
178	179	9
63	63	7
122	123	5
176	176	17
87	88	3
104	105	5
38	38	32
179	179	10
15	15	16
196	196	21
194	194	10
105	105	19
232	236	4
102	102	31
120	128	6
100	100	36
39	44	3
23	67	1
39	39	17
24	24	17
231	235	2
71	71	28
29	31	2
224	226	2
142	143	3
167	167	8
218	218	13
128	128	19
143	143	14
136	136	18
9	10	12
158	159	9
27	64	2
188	188	8
101	104	6
231	231	8
88	88	11
72	72	27
158	168	1
54	54	33
188	190	3
97	97	19
203	203	13
39	42	2
25	25	35
42	42	40
5	6	15
232	233	9
114	114	11
37	37	24
101	101	33
124	124	6
236	236	27
73	105	4
30	30	15
208	208	17
27	27	33
225	240	2
160	166	4
122	141	4
73	75	2
192	192	28
35	35	21
173	174	15
5	5	14
19	19	25
154	161	2
2	8	4
29	36	4
191	193	2
29	29	27
193	193	6
157	157	17
110	110	6
221	222	7
233	233	18
201	202	6
57	83	2
23	23	21
113	113	22
158	158	15
212	212	13
133	135	5
212	213	7
179	180	8
135	136	7
199	201	1
9	27	1
228	230	18
58	70	1
100	101	8
64	64	12
129	129	23
109	110	7
140	142	2
106	106	26
73	113	3
229	229	18
205	206	6
120	120	4
174	174	27
33	33	21
68	69	5
123	146	2
47	47	24
163	163	13
18	18	19
49	58	3
180	180	6
10	10	32
36	42	4
16	16	19
99	99	18
231	241	3
3	29	13
82	85	3
32	32	13
74	74	34
11	18	1
17	18	3
38	44	6
184	187	4
125	151	1
215	215	15
175	176	4
102	103	5
97	98	3
165	165	9
202	202	23
53	56	1
21	66	2
198	198	15
133	134	14
98	99	5
118	128	2
217	217	9
71	72	16
128	129	12
3	28	1
157	160	5
186	194	2
21	21	31
177	178	7
28	28	19
222	223	5
235	236	8
49	71	1
79	81	5
161	161	24
234	235	10
24	43	1
62	62	19
4	11	2
44	45	10
205	205	8
147	147	6
236	241	6
66	66	22
41	41	24
1	2	11
66	68	4
175	202	2
214	221	6
51	52	5
131	143	1
149	156	1
12	12	16
183	184	2
206	206	5
56	56	27
104	104	13
58	58	13
19	20	5
135	135	12
41	43	7
124	125	1
9	9	39
67	80	3
186	187	13
96	97	5
39	45	9
103	106	2
52	52	9
231	232	4
240	240	17
6	11	4
218	228	1
214	217	3
50	50	8
195	196	6
151	151	11
211	211	3
224	224	16
25	26	17
102	105	1
4	5	10
6	8	1
30	42	2
65	66	4
207	207	8
228	229	9
134	143	3
149	150	2
159	161	7
2	35	2
83	83	17
67	67	19
186	186	14
22	22	18
211	213	4
74	75	1
192	194	8
42	43	10
192	193	6
31	32	14
50	51	11
82	82	11
62	105	1
75	83	2
232	232	12
23	40	3
6	18	1
119	129	5
228	228	24
38	39	12
117	117	10
73	86	5
236	237	5
80	80	11
144	145	7
8	9	11
63	98	2
137	139	6
100	102	1
86	86	27
138	139	6
121	123	1
187	188	2
103	103	17
184	188	1
234	240	2
0	1	15
11	12	8
164	164	14
143	144	3
135	145	2
3	36	5
99	100	3
81	84	2
197	197	14
47	64	1
121	122	8
0	30	3
131	131	2
198	207	1
31	35	6
24	42	3
171	171	17
106	115	1
1	36	2
112	150	3
118	119	6
160	163	4
23	65	3
59	61	1
9	17	1
1	1	20
177	177	22
78	78	3
59	70	2
26	26	33
198	208	3
233	234	12
124	126	5
148	148	18
20	64	1
193	195	5
45	75	1
85	85	27
239	239	20
61	61	16
71	87	2
145	145	12
159	160	16
238	238	15
167	168	10
120	121	3
210	211	6
70	74	3
27	29	5
152	152	11
101	102	12
62	67	4
234	242	1
224	225	8
39	54	3
112	112	4
172	202	1
11	20	6
4	29	2
95	127	1
36	36	19
78	84	1
150	155	1
55	56	9
113	128	4
79	79	4
182	184	3
98	98	9
236	240	2
148	171	3
58	61	2
223	223	6
14	14	13
174	201	1
125	125	8
112	142	3
7	13	1
3	3	5
158	162	1
10	28	1
153	176	1
7	8	4
157	158	3
193	212	2
181	182	13
157	170	4
209	210	8
33	34	4
41	42	2
0	0	31
82	84	3
18	19	3
2	2	12
139	142	2
211	212	7
86	88	2
59	60	12
47	65	4
75	85	8
232	241	2
78	80	1
40	43	2
4	4	12
208	209	7
189	190	17
225	227	1
30	41	8
46	55	2
166	167	4
138	138	6
22	59	1
6	7	1
27	45	2
5	10	2
45	45	11
47	48	6
32	33	6
67	69	3
168	168	8
80	102	2
220	220	6
127	143	2
38	40	7
234	238	1
219	219	28
31	36	2
225	225	13
162	162	4
67	82	1
13	13	10
224	227	1
147	148	4
161	162	2
204	204	24
38	55	4
140	140	7
149	151	3
175	175	8
79	103	2
79	80	6
164	169	3
175	198	3
198	200	3
166	166	10
127	130	1
81	81	8
142	142	14
44	46	1
29	42	3
199	199	14
26	28	3
115	115	7
150	151	2
73	87	1
170	178	1
20	21	5
51	51	7
85	86	11
37	38	5
55	55	28
66	80	1
95	102	1
168	169	3
183	183	17
141	142	3
31	50	1
38	41	1
240	241	3
108	119	2
54	55	4
152	176	3
173	173	17
118	118	16
1	3	5
17	17	8
239	240	3
16	17	7
231	233	3
230	230	7
182	182	25
199	200	9
129	130	3
104	106	2
23	59	2
185	185	7
220	232	5
230	235	3
96	114	2
63	67	2
176	177	5
13	14	2
209	211	4
81	83	1
81	216	1
214	229	7
11	29	3
205	207	1
49	62	1
71	75	2
221	223	5
135	139	7
34	35	11
56	57	11
27	37	3
80	104	1
111	112	6
55	57	2
24	61	2
187	190	3
8	13	1
103	104	10
191	201	3
197	198	8
21	22	9
84	85	9
128	133	3
65	67	5
65	65	17
153	180	2
68	75	1
0	9	1
195	195	1
154	154	14
156	156	9
109	109	15
4	30	2
182	199	1
241	241	16
191	219	3
57	57	12
62	70	1
125	126	7
74	113	3
19	30	1
235	235	11
73	114	3
48	54	3
21	24	4
139	140	3
153	154	9
214	214	5
23	36	5
222	228	2
71	73	7
58	59	4
127	127	15
227	227	26
169	169	8
48	48	8
106	109	3
200	206	2
63	64	11
202	237	6
48	55	1
3	8	1
148	150	5
111	143	1
119	120	1
120	146	4
153	155	5
139	139	4
28	30	1
217	218	9
156	157	12
111	111	8
55	69	3
200	201	8
58	60	9
22	60	3
237	237	9
162	163	3
113	171	2
18	29	2
213	213	14
16	18	5
107	107	12
1	22	2
207	208	7
60	60	17
6	192	2
144	144	10
11	15	6
160	160	20
46	157	3
39	40	5
203	204	6
59	59	14
2	29	2
230	231	2
69	70	8
20	24	3
128	157	1
176	198	1
202	203	2
29	30	6
1	19	2
142	165	1
20	25	1
164	168	1
4	19	6
169	170	5
123	123	9
228	231	5
138	192	3
216	216	6
62	101	4
101	103	2
26	27	9
3	9	2
226	229	6
29	38	2
171	177	1
36	37	11
174	175	2
159	166	3
237	239	1
191	192	3
117	149	1
38	47	1
204	205	10
181	183	2
220	221	1
165	203	2
17	30	1
208	213	1
66	170	3
14	15	5
173	202	5
221	228	2
150	169	1
146	146	9
154	177	5
84	102	4
74	171	3
231	234	7
118	147	1
184	185	8
2	3	7
182	183	7
3	30	3
198	199	3
172	173	5
48	59	2
80	81	5
6	17	5
0	36	1
34	34	9
153	178	1
20	31	2
14	16	3
191	197	2
6	19	3
242	242	7
25	219	2
154	179	5
203	236	2
201	201	11
27	28	3
119	128	1
56	85	1
220	224	3
47	55	4
143	146	2
193	194	4
11	177	2
62	98	2
76	77	3
226	226	7
116	119	2
126	126	5
155	155	10
144	146	2
149	149	2
77	78	8
55	65	3
71	86	2
138	142	1
23	25	2
151	176	1
199	206	1
15	29	4
56	69	1
113	114	1
71	74	2
60	61	5
153	175	2
107	108	2
132	134	3
111	145	2
165	166	9
73	101	2
3	6	3
178	200	2
115	117	4
233	241	1
205	208	1
25	28	2
108	118	6
113	172	1
170	170	6
141	141	4
151	154	1
148	149	3
146	150	1
153	162	3
41	45	2
106	108	1
237	241	4
213	214	2
225	229	3
172	205	2
135	144	2
127	129	4
26	62	2
59	84	1
130	131	4
163	169	2
227	228	5
117	146	1
66	67	8
22	35	1
24	28	3
111	144	1
137	195	1
22	33	2
28	40	6
190	193	1
152	175	3
28	32	4
22	23	3
0	40	1
39	41	2
164	167	4
21	67	1
28	37	1
112	113	1
116	146	1
127	147	1
48	56	1
61	106	1
136	137	12
57	68	4
54	75	3
223	240	2
152	178	1
137	141	1
230	241	1
70	73	2
188	189	4
10	11	10
52	53	3
154	156	1
33	36	5
216	220	1
76	80	2
226	230	3
5	8	1
86	87	2
0	6	1
56	65	4
103	105	4
49	50	1
138	140	2
70	71	5
146	151	1
204	207	1
38	54	1
162	165	2
68	70	2
32	41	2
121	125	3
151	152	3
161	173	2
39	70	1
179	184	1
220	233	2
75	76	1
62	100	3
202	236	1
123	128	2
72	74	2
117	147	1
88	105	2
76	78	5
85	102	2
38	46	3
26	43	3
230	240	1
178	180	4
201	206	2
193	196	1
8	11	2
196	197	2
45	65	1
4	18	3
76	101	2
66	82	1
137	142	2
185	190	2
95	109	2
102	127	1
208	211	1
218	219	2
15	16	3
81	82	6
52	55	2
117	120	1
100	105	2
2	9	1
213	229	4
196	199	1
123	126	1
30	33	1
27	63	1
143	195	1
204	209	2
21	23	4
2	19	3
183	190	2
182	210	1
7	9	1
216	217	3
184	184	6
130	130	4
23	35	2
53	54	4
48	60	2
31	33	1
73	106	2
226	228	2
6	177	1
183	198	2
200	205	4
32	35	3
18	31	2
48	50	3
14	21	6
3	10	3
206	235	1
154	178	2
226	231	2
12	14	1
61	86	4
112	128	2
219	220	1
88	128	1
203	206	2
192	218	1
145	149	2
63	68	3
28	64	1
157	159	2
15	20	1
188	193	1
43	44	2
20	33	1
4	8	3
49	60	1
223	225	1
22	65	2
154	157	4
203	233	1
175	177	1
132	132	3
61	71	1
207	230	1
152	154	4
89	90	2
40	42	2
116	117	6
202	205	1
20	152	2
50	59	1
48	49	1
76	76	3
11	28	1
152	173	1
220	229	4
47	53	1
144	149	5
67	79	1
182	198	1
116	147	1
218	230	1
20	86	1
142	144	1
38	42	2
212	227	2
191	228	3
62	68	3
89	89	1
116	118	3
200	203	4
75	84	3
26	90	1
189	194	3
213	217	1
174	197	1
4	6	5
23	33	1
154	196	1
117	171	1
80	82	1
151	167	1
132	133	1
218	223	1
230	237	1
77	77	6
12	20	4
170	171	5
126	127	8
123	125	1
162	203	1
144	154	1
69	74	1
213	215	2
22	225	1
144	164	1
53	53	6
220	231	4
32	53	1
150	150	3
125	148	1
73	88	1
27	41	1
4	7	1
130	147	1
140	141	2
152	174	2
191	200	1
83	85	1
189	193	3
77	79	2
141	146	2
19	34	1
18	21	1
118	173	1
215	216	3
45	64	4
122	125	1
136	138	4
78	79	2
95	96	3
30	31	1
76	83	1
200	210	1
14	177	2
3	11	1
69	76	2
117	125	4
80	100	1
65	74	4
21	48	2
30	36	1
187	194	1
137	138	2
107	110	1
158	169	1
234	239	1
135	173	1
13	17	1
120	127	1
25	55	2
2	33	2
124	145	1
35	36	3
4	13	1
172	193	1
83	104	3
139	143	1
17	32	2
54	63	1
225	230	2
123	124	2
80	83	2
12	21	2
46	65	2
110	127	2
165	169	1
162	172	1
204	206	4
225	228	2
62	66	1
178	199	2
79	82	2
143	150	1
150	168	1
49	51	1
56	58	2
31	37	1
95	98	1
51	53	2
232	235	1
3	4	2
19	152	1
203	235	1
160	161	2
180	181	4
40	64	1
235	237	1
102	106	1
80	103	1
187	187	2
214	220	1
2	5	3
81	104	1
180	199	2
20	50	2
221	231	1
53	55	1
148	169	1
214	216	1
199	207	1
145	146	1
88	103	2
128	179	1
184	186	1
0	33	1
18	30	1
95	122	1
24	26	1
30	37	1
212	235	1
40	41	1
1	5	2
194	195	1
162	176	1
128	159	1
153	156	1
107	119	1
185	186	1
21	50	1
7	17	1
226	227	1
227	229	1
37	42	3
64	74	2
168	176	1
150	152	1
15	17	3
17	33	2
114	115	1
69	172	2
20	67	2
28	43	1
155	156	1
225	226	3
21	47	2
69	114	1
36	38	1
161	203	3
30	32	2
204	208	1
13	21	1
190	197	3
53	70	1
135	138	1
121	128	1
28	44	2
111	113	2
114	116	1
134	144	1
109	118	1
85	88	1
157	171	1
19	31	2
121	124	1
57	60	1
196	213	1
127	139	1
32	37	1
109	128	1
57	58	2
5	16	2
124	149	1
72	83	1
129	131	1
160	162	2
137	159	1
11	16	1
216	219	1
220	223	1
50	58	2
166	168	1
28	38	1
69	113	1
74	86	2
72	106	1
70	72	2
57	75	2
91	91	3
2	6	1
230	232	1
142	160	1
70	85	1
146	166	1
40	45	1
129	144	1
209	212	1
57	85	2
181	199	1
13	18	1
0	34	1
194	196	1
133	136	1
2	7	1
78	89	1
107	109	1
183	209	1
5	11	1
171	172	1
192	196	1
48	62	1
28	36	1
20	22	1
127	140	1
241	242	2
28	41	1
145	147	2
56	86	1
21	55	1
29	40	1
5	19	1
23	60	2
52	73	1
96	101	1
99	101	1
51	59	1
199	204	1
150	166	2
102	126	1
85	87	1
119	121	1
20	28	1
137	143	1
20	85	1
128	156	1
8	12	1
160	204	1
200	204	1
57	69	1
130	149	1
116	116	1
