105	105	4
51	51	25
110	110	9
71	71	9
114	117	3
64	65	4
53	53	26
89	89	5
7	7	4
82	82	10
21	21	6
30	31	1
2	5	4
62	98	3
94	94	17
127	128	6
31	32	4
19	19	9
56	57	3
51	52	4
46	47	7
22	22	6
72	72	4
55	55	9
86	88	4
111	118	1
0	0	5
75	77	3
59	59	8
120	120	3
16	16	13
115	115	10
2	2	7
111	117	2
127	127	6
77	77	11
65	65	8
129	129	14
114	115	2
101	101	17
62	63	5
78	78	7
67	67	4
88	88	2
15	15	7
107	107	7
55	77	3
102	102	4
52	110	1
78	79	1
102	126	4
125	127	2
126	126	5
58	59	4
87	87	6
123	123	3
41	41	10
20	32	4
6	22	2
55	130	2
109	109	4
81	101	2
33	33	3
90	91	2
105	113	1
58	58	11
93	130	1
41	54	1
69	69	10
2	3	3
76	80	3
8	26	3
105	106	3
69	71	4
62	66	8
102	106	1
81	81	9
112	112	4
25	25	8
40	40	6
50	50	5
6	6	7
96	97	6
84	84	8
125	125	9
26	26	6
23	34	4
115	118	1
17	17	7
11	26	1
52	52	10
5	5	8
121	121	7
38	38	4
13	13	6
79	79	2
130	130	16
83	83	2
44	44	9
115	129	3
80	106	1
31	40	2
75	75	1
69	72	2
29	30	4
80	81	4
104	104	2
34	34	5
73	73	7
4	5	1
92	92	6
13	26	5
27	32	3
49	49	8
8	8	6
128	129	2
30	30	8
98	98	6
131	131	1
14	14	10
39	68	4
74	115	5
97	128	4
64	66	2
114	128	2
68	68	3
64	75	3
18	18	4
54	54	8
100	101	7
68	79	1
29	29	6
101	103	2
28	29	5
86	86	2
117	117	6
21	26	2
8	10	2
101	104	1
27	27	10
29	32	4
67	78	1
17	24	1
55	111	5
47	47	11
18	19	1
12	27	3
40	44	2
28	28	3
23	24	2
52	53	6
72	75	2
63	64	1
60	61	3
101	102	3
22	40	3
89	90	1
100	100	9
120	130	1
66	66	5
112	113	3
9	26	2
18	48	1
65	108	1
9	9	4
116	117	3
16	17	5
42	43	3
10	10	10
91	91	5
61	78	4
44	45	5
86	87	2
56	56	7
103	103	2
26	27	2
46	46	3
76	76	4
114	114	3
118	119	1
73	99	2
47	48	4
20	20	6
12	13	3
15	21	1
85	92	2
81	83	1
95	109	2
32	32	6
40	42	2
42	42	4
23	40	1
59	71	1
7	11	3
12	12	2
61	61	1
107	130	3
74	74	2
116	116	5
119	119	3
85	86	3
49	52	1
67	126	2
85	88	2
45	45	2
88	89	2
103	126	1
96	106	3
126	130	1
68	99	1
59	60	2
132	133	2
85	89	3
6	30	1
73	74	1
91	92	5
31	39	2
99	119	2
53	118	2
132	132	7
107	131	1
125	126	1
43	43	2
38	39	1
83	84	3
95	96	2
108	130	1
71	75	1
40	41	2
39	39	1
3	3	3
70	71	2
99	99	1
90	90	2
98	128	1
68	82	4
63	106	1
103	116	1
8	11	1
94	109	2
104	120	2
65	75	1
102	118	1
82	107	1
57	57	3
124	124	5
41	44	1
34	38	2
55	78	1
41	58	2
108	108	2
93	104	1
80	100	2
39	75	2
60	65	4
28	77	2
61	62	3
64	107	1
99	100	2
79	82	1
43	53	2
48	49	1
108	126	1
26	31	2
106	106	5
55	125	1
12	20	3
61	98	1
10	26	1
48	48	1
17	23	2
117	131	1
39	42	1
89	91	2
84	88	1
6	49	1
111	111	3
76	77	1
14	15	4
20	21	2
67	72	1
50	52	1
44	59	1
108	115	2
28	79	1
41	46	3
96	98	1
109	110	1
78	98	1
84	87	2
31	31	1
93	115	1
67	82	2
102	103	1
98	101	1
62	62	3
57	132	1
51	75	1
92	93	1
93	93	2
129	130	1
63	63	1
68	107	1
97	97	1
118	118	1
