34	34	1
25	25	5
74	74	4
41	41	5
47	51	1
110	110	1
78	79	4
27	28	1
94	94	6
112	112	3
113	113	7
44	44	7
61	62	3
80	80	7
82	94	3
105	105	10
84	84	5
24	104	1
75	75	19
68	69	4
54	55	4
56	96	3
66	66	10
22	24	1
63	65	3
64	73	2
40	40	2
106	113	1
49	88	1
28	28	2
56	56	5
93	93	3
64	64	6
22	22	2
104	104	10
73	114	1
101	101	5
82	82	8
24	24	2
89	89	4
88	88	7
97	97	3
56	57	3
72	72	5
20	32	4
70	70	7
50	51	3
37	37	4
81	82	4
90	94	2
36	36	6
26	26	3
45	45	2
86	86	5
66	67	4
81	81	4
30	114	2
84	85	1
104	105	3
85	99	2
99	110	2
57	57	1
86	87	2
83	83	7
105	106	1
109	110	3
79	79	2
92	92	2
91	91	2
86	100	4
49	49	2
87	87	1
31	102	1
71	72	1
101	102	2
23	108	1
109	109	5
76	76	4
31	31	4
47	47	4
77	78	3
23	29	5
77	80	1
45	82	3
73	73	3
108	108	1
62	64	1
67	67	12
60	74	3
103	103	2
40	80	1
51	51	6
89	92	4
87	90	1
98	99	2
32	32	3
48	111	2
78	78	2
57	102	1
95	97	2
53	78	2
106	107	1
24	26	1
59	105	5
78	97	1
108	109	2
25	27	1
23	75	1
53	54	4
38	38	7
60	75	2
50	50	5
33	33	5
85	85	1
90	90	3
106	106	7
84	87	3
62	63	3
67	73	1
86	102	3
61	61	4
21	64	1
58	59	1
62	62	2
63	105	1
71	94	2
93	94	1
94	95	1
114	114	2
46	46	3
98	110	1
50	112	1
102	102	4
58	107	1
63	63	1
90	91	2
65	66	1
35	35	2
22	85	1
77	81	1
26	106	3
24	58	1
53	53	3
43	43	1
62	66	2
65	65	2
83	110	2
99	99	1
100	100	1
24	46	2
42	43	1
91	92	2
69	69	3
25	31	1
41	44	1
111	111	2
60	70	1
31	67	3
108	115	1
77	77	3
91	102	2
103	110	2
32	104	1
64	71	1
33	34	2
21	21	2
107	108	2
83	85	2
59	59	1
47	48	1
30	34	1
30	30	1
77	79	1
83	88	1
82	83	3
26	27	2
29	29	3
20	20	3
54	57	1
39	39	2
75	76	1
55	55	2
85	87	2
99	100	1
63	109	1
81	113	1
78	108	1
102	110	1
107	107	2
36	40	1
98	98	2
27	106	1
19	19	1
111	113	1
70	92	1
52	52	2
49	83	1
95	95	2
80	81	1
83	86	1
103	105	1
85	101	1
