134	134	45
70	93	2
69	69	37
67	67	60
59	61	15
56	109	9
119	120	21
96	96	45
42	55	5
62	62	41
54	54	62
124	125	28
32	33	18
120	120	70
79	79	70
15	17	4
63	63	41
132	133	14
102	103	20
109	110	30
104	104	69
84	84	62
108	108	35
111	111	51
64	132	6
107	110	10
33	34	20
92	92	67
1	4	8
16	17	11
106	106	48
79	81	3
72	73	31
19	19	29
126	126	86
97	97	53
133	133	37
91	109	2
83	84	27
6	6	39
24	24	60
66	121	3
12	12	31
102	102	51
46	46	10
33	33	44
60	60	38
117	118	39
95	103	3
29	29	37
61	61	42
122	122	56
62	63	16
112	112	42
18	36	6
80	80	81
93	94	13
129	129	72
99	99	64
85	86	16
77	78	25
55	63	5
75	76	21
11	11	52
11	19	2
131	131	56
74	74	49
57	59	12
71	72	31
89	89	55
56	56	48
50	50	55
71	71	52
99	102	4
30	31	11
65	65	41
22	22	44
120	123	6
44	134	1
125	125	50
94	94	44
8	8	35
106	110	12
58	58	50
12	38	1
36	36	40
62	87	1
2	2	60
60	64	3
21	21	24
92	93	10
52	52	39
47	47	25
59	59	41
57	57	51
82	82	54
18	18	32
56	110	2
108	111	5
115	125	5
43	44	22
126	127	38
28	29	16
84	85	31
7	7	31
37	83	4
26	26	39
95	95	68
6	26	5
87	87	72
25	45	6
52	53	32
5	5	42
82	86	8
76	76	65
68	68	55
60	61	19
96	100	9
102	126	1
31	31	22
79	107	3
112	113	21
103	103	34
11	13	9
61	62	11
97	111	1
61	108	1
93	93	45
30	30	33
37	38	3
86	86	43
114	114	59
56	115	2
91	111	3
132	134	7
121	121	41
93	96	4
100	121	9
33	83	5
13	13	37
124	126	2
72	80	2
110	110	36
3	4	21
58	100	4
49	50	29
77	87	8
66	66	40
75	75	54
98	102	6
114	125	1
130	131	18
14	14	36
6	8	6
12	13	8
20	20	34
123	123	58
105	105	60
38	38	29
106	113	4
7	11	6
64	67	2
15	16	11
61	64	10
127	127	47
107	108	10
117	117	58
109	109	41
58	60	10
54	66	2
109	121	2
75	99	3
111	112	19
51	52	2
119	119	47
66	67	15
3	35	2
34	34	38
95	99	5
115	116	17
57	58	23
16	16	56
36	37	15
1	3	5
74	75	34
23	24	18
115	132	3
58	59	19
130	130	65
98	112	2
107	107	63
85	85	42
88	93	5
106	107	20
77	86	2
6	25	1
104	105	9
72	72	58
15	67	4
68	82	3
44	45	27
95	112	5
93	95	5
27	27	27
34	47	2
100	100	50
18	34	1
101	101	67
86	128	3
8	9	11
55	56	15
83	83	40
132	132	55
97	116	1
10	10	53
123	124	12
4	103	1
130	132	5
96	116	4
1	1	24
14	15	13
43	43	50
86	88	4
63	64	26
37	55	8
70	71	8
94	95	23
54	120	9
0	2	7
86	106	10
91	133	1
42	78	3
25	25	45
118	118	35
54	124	2
44	65	5
45	49	19
83	86	3
124	124	40
64	64	30
111	118	2
98	98	52
105	106	19
103	104	21
110	132	5
44	44	46
56	58	18
25	26	10
91	91	64
126	133	3
11	15	5
86	87	9
68	123	2
122	133	1
87	113	3
99	119	2
118	120	11
128	134	4
50	108	7
88	88	40
76	77	5
118	122	12
64	68	10
88	108	2
115	115	49
35	37	8
15	15	20
129	130	23
74	115	3
106	109	6
87	88	16
64	127	1
128	128	43
64	65	23
127	128	19
58	111	4
9	36	3
78	80	3
81	82	8
114	132	4
83	87	1
3	105	1
79	88	2
45	45	35
32	51	4
68	92	3
44	69	5
94	126	4
84	86	8
117	125	4
63	79	2
87	100	9
111	113	5
0	95	1
106	111	4
69	116	2
13	35	4
89	90	16
34	35	8
87	110	2
59	64	4
87	94	4
97	98	7
44	104	5
95	97	9
45	80	4
14	16	7
19	20	23
71	73	11
25	106	3
25	100	6
13	14	12
96	115	8
88	121	2
122	124	10
56	57	15
6	50	1
69	78	5
62	64	9
73	73	56
49	52	2
46	79	1
44	64	3
4	123	4
14	27	2
0	0	43
43	84	2
53	54	18
101	102	17
28	28	38
29	128	2
4	4	37
95	100	4
6	124	3
101	110	4
97	105	3
95	105	1
133	134	7
122	135	5
18	21	3
8	11	7
71	127	3
61	65	8
130	133	8
70	70	49
90	90	67
118	119	11
38	83	3
45	51	2
4	5	19
93	99	4
119	124	6
42	43	8
91	92	16
11	12	11
103	105	7
28	36	3
22	23	12
91	94	5
120	121	19
131	132	11
58	121	1
50	66	2
23	23	33
77	81	6
24	26	8
123	126	3
3	3	40
2	3	12
47	49	2
77	116	2
8	37	3
113	113	48
62	86	3
113	117	10
57	65	2
77	79	7
20	21	9
79	86	6
68	109	3
82	85	12
65	66	25
119	130	3
32	32	37
48	116	1
72	126	2
50	53	3
78	78	38
108	109	26
45	53	9
125	128	6
107	109	12
13	15	3
105	107	4
127	129	13
114	124	2
6	11	7
9	9	23
72	95	2
68	77	2
85	133	1
116	118	8
43	96	3
54	56	11
87	128	2
114	133	1
21	22	6
2	14	2
32	35	1
17	28	1
24	25	9
49	108	2
125	126	10
36	38	11
18	20	7
58	99	5
36	105	3
90	95	8
122	128	4
55	55	44
52	105	6
65	71	3
0	21	5
99	101	15
43	46	6
114	115	17
69	70	14
65	84	4
68	69	15
60	69	3
63	129	3
83	106	5
124	129	2
62	65	5
109	111	18
86	121	2
113	131	1
115	127	2
56	59	5
71	86	4
66	69	5
49	54	3
61	83	4
54	55	11
113	114	14
82	83	12
95	125	10
96	99	7
65	117	4
2	5	4
29	30	9
43	89	4
30	32	7
91	93	6
79	85	1
128	129	7
76	80	6
55	59	7
27	32	3
11	23	3
43	59	4
4	6	4
106	114	2
126	129	7
60	78	1
53	56	6
27	36	4
61	129	1
109	130	3
57	72	2
9	16	7
71	74	5
116	116	57
71	135	2
19	76	2
39	61	6
52	63	3
111	131	3
130	135	1
81	92	2
87	92	3
28	32	5
24	112	5
31	32	7
47	63	3
91	96	1
117	119	6
23	26	1
50	81	3
99	100	12
134	135	9
73	74	12
65	68	7
19	106	4
30	36	2
85	88	5
85	87	3
37	134	2
90	94	4
95	115	2
7	8	17
121	122	7
17	22	4
28	98	4
10	44	1
36	134	1
82	122	6
5	6	6
60	89	2
66	73	4
98	99	12
8	10	9
48	55	1
28	38	2
122	123	25
125	130	6
7	36	1
83	85	10
92	97	3
66	110	9
82	130	3
117	130	1
46	48	4
42	42	8
65	69	7
44	61	6
123	130	6
77	77	43
53	105	4
107	131	3
43	57	2
120	131	2
35	35	37
114	116	14
107	130	6
44	98	1
122	130	5
61	86	1
58	67	4
53	53	40
79	80	10
88	89	4
117	122	15
126	128	6
51	76	3
19	44	2
80	82	2
15	83	1
71	134	5
79	126	3
111	132	3
15	19	3
78	79	18
56	121	3
126	134	4
112	134	6
10	19	2
0	15	4
46	50	1
6	7	10
76	78	5
82	134	1
106	108	8
107	113	3
52	113	1
88	123	2
47	106	3
45	56	6
54	58	6
63	65	3
97	106	2
37	37	15
81	81	26
99	118	6
10	11	4
65	102	1
8	14	1
100	123	3
56	100	1
55	57	12
1	34	3
66	100	5
45	84	8
59	60	10
112	117	3
61	78	5
92	127	4
65	133	2
67	76	2
50	68	4
5	12	1
97	99	3
4	77	3
5	7	5
76	98	1
66	79	2
45	86	4
68	78	4
106	132	4
110	135	3
115	117	3
67	69	9
17	76	2
36	61	1
48	96	1
104	115	1
99	103	5
17	23	5
33	42	1
88	90	7
110	131	2
100	101	6
110	130	4
110	111	7
91	95	1
98	126	3
77	85	1
83	97	2
56	64	2
59	69	4
12	27	1
27	28	6
75	91	1
94	127	1
92	128	2
105	112	6
98	124	1
58	135	2
6	12	6
61	100	4
59	62	6
84	108	4
8	36	1
49	49	17
54	57	4
48	48	9
53	128	5
53	119	5
13	36	2
43	106	3
45	114	3
72	112	1
0	11	2
15	18	1
122	131	5
102	105	6
128	130	9
13	19	1
13	16	1
107	117	1
45	50	3
86	132	1
49	88	2
35	114	1
93	100	2
65	105	4
27	50	1
25	37	1
131	133	8
43	80	1
3	133	1
45	64	4
86	107	3
101	121	2
26	95	2
56	124	2
92	134	1
6	36	2
101	112	3
88	112	3
9	10	23
71	79	2
43	125	3
38	92	2
52	110	3
44	96	6
74	86	1
56	102	2
112	114	8
119	129	1
117	120	2
8	16	2
108	110	6
69	85	1
103	114	6
86	96	3
45	106	1
85	96	1
103	108	1
66	68	13
13	46	1
67	102	2
74	76	2
96	97	9
18	19	9
135	135	12
70	89	2
45	87	4
97	124	5
50	51	5
67	68	20
103	125	2
25	92	1
29	31	3
80	87	2
90	93	1
105	110	1
54	85	5
96	101	3
50	59	8
69	81	1
50	122	1
30	33	3
66	85	8
57	123	3
87	134	3
113	115	10
1	6	1
2	4	5
85	125	1
48	49	11
124	127	1
120	122	6
54	96	3
46	97	2
125	132	1
2	37	6
78	119	3
69	76	1
26	27	7
87	129	6
116	126	3
100	105	2
81	83	2
106	130	5
78	84	2
69	72	1
22	34	2
5	125	1
97	112	2
116	119	3
112	118	6
111	130	8
100	122	1
102	112	2
103	112	1
0	34	1
57	100	2
17	19	3
46	61	2
63	135	1
43	100	1
112	116	4
50	55	1
25	135	2
92	99	1
96	98	2
69	106	1
53	55	1
103	129	2
83	109	2
25	69	3
11	114	1
88	95	1
66	83	2
50	52	2
18	79	2
28	30	1
90	91	13
83	107	7
90	99	2
45	60	2
49	123	1
59	124	1
44	47	1
98	107	1
20	64	4
71	78	3
44	49	5
32	34	10
52	54	5
85	124	2
87	96	6
87	124	5
28	49	1
49	55	2
17	17	17
11	16	1
73	134	3
31	35	2
61	84	1
86	115	2
84	110	1
22	28	1
84	131	1
35	99	3
56	117	1
73	77	1
115	133	1
78	96	2
23	27	2
44	100	1
23	33	2
50	80	2
43	54	5
119	128	2
43	47	1
21	27	2
0	120	1
9	37	1
56	96	3
35	126	3
25	27	1
62	130	1
37	51	1
50	70	5
77	80	2
6	13	3
86	133	1
60	66	1
48	68	2
25	101	4
7	9	4
50	113	9
124	132	1
77	95	2
90	114	2
56	120	5
71	80	2
71	81	2
9	49	5
0	3	3
112	135	2
47	105	1
87	106	2
48	50	6
52	83	2
46	47	2
34	105	2
43	45	3
128	131	3
6	10	1
19	21	6
114	118	1
19	24	5
12	15	1
31	34	1
118	124	6
46	69	2
13	37	2
60	65	5
52	56	3
123	125	1
109	132	2
50	86	5
81	93	1
66	108	1
34	64	4
120	129	3
60	92	3
21	23	5
100	106	2
112	115	5
62	84	1
0	72	2
33	105	2
36	77	1
52	66	1
80	102	3
80	99	2
60	107	2
57	66	2
98	121	4
85	89	1
116	117	4
61	119	1
43	105	1
98	111	1
21	111	1
63	104	5
60	63	1
86	117	1
80	95	1
104	133	3
33	99	3
65	118	5
123	132	2
13	44	1
85	108	3
46	49	5
33	127	1
120	126	3
6	37	2
59	100	3
97	100	2
61	69	1
75	96	3
88	94	3
16	26	2
8	27	1
52	60	2
121	126	2
69	71	2
59	121	1
86	91	3
1	2	13
120	125	4
66	91	1
74	95	2
82	87	3
78	109	1
43	76	4
98	105	2
42	51	3
29	77	3
17	18	3
38	109	1
0	12	3
54	60	4
79	92	1
104	135	2
54	105	1
26	35	3
77	93	3
91	127	1
15	66	3
3	28	2
82	131	1
38	39	1
79	83	3
99	105	3
49	95	2
65	85	2
88	91	4
68	79	3
113	133	1
108	118	1
34	61	1
60	62	4
50	127	1
113	118	2
67	85	1
6	14	1
15	20	3
0	133	1
68	81	2
31	68	1
96	102	1
59	65	1
95	107	3
68	122	1
62	129	1
50	69	6
50	56	1
111	129	4
115	123	2
16	36	2
43	55	3
37	58	2
62	118	1
63	88	1
92	95	1
82	106	1
0	100	1
65	131	3
12	35	1
2	105	2
122	127	4
15	45	4
34	38	1
20	22	2
12	21	1
0	90	1
110	112	2
87	130	2
51	51	4
59	87	1
9	17	1
104	114	1
106	131	2
14	124	2
91	128	1
42	111	1
108	123	3
8	52	2
16	37	3
52	85	2
67	88	1
119	121	6
44	80	4
85	92	2
61	72	2
70	95	1
52	55	3
26	28	2
87	99	3
29	104	1
61	63	2
81	134	3
33	63	2
44	51	1
52	71	1
104	134	2
45	46	3
69	112	1
92	129	1
33	36	2
115	131	2
87	109	3
77	130	3
26	43	1
69	131	1
33	82	2
62	113	2
56	114	1
76	79	1
97	107	2
66	78	1
26	64	1
70	72	1
18	25	1
81	126	5
110	122	2
107	111	2
11	14	1
19	27	2
17	37	2
75	77	3
118	131	1
58	86	1
121	123	5
69	121	2
43	116	1
57	87	1
24	36	1
78	135	3
124	130	2
112	126	3
57	127	1
48	66	1
70	76	1
23	105	1
125	133	1
32	105	2
57	62	1
75	103	2
67	78	2
110	117	3
31	33	2
44	106	2
87	91	2
29	99	1
67	75	1
89	108	1
96	104	5
2	32	4
66	80	1
51	57	1
49	53	1
59	120	1
38	54	1
114	129	1
48	51	3
34	36	2
54	114	3
11	98	2
68	121	3
105	121	1
1	76	1
35	105	1
32	71	2
100	113	2
84	123	2
131	134	3
20	24	2
29	36	1
14	101	2
72	110	1
73	80	1
64	114	2
88	134	2
67	86	1
0	1	1
29	45	1
123	133	2
127	131	1
57	108	2
1	5	1
98	103	3
35	65	2
65	95	4
29	34	1
79	95	1
15	25	3
10	14	2
110	123	1
59	116	1
73	93	2
7	19	1
88	102	1
95	127	2
89	104	1
52	100	1
18	26	1
92	103	1
111	125	1
86	109	2
117	121	2
24	32	1
72	79	1
34	90	1
126	132	2
59	112	3
71	92	2
17	77	1
38	42	2
0	45	1
3	77	2
118	121	1
11	35	2
18	76	3
7	24	2
108	122	2
15	71	2
54	108	1
125	129	3
45	132	1
44	113	4
65	107	3
112	132	2
106	121	1
69	84	1
69	90	2
107	132	2
97	101	1
33	81	1
14	82	1
93	107	1
27	42	2
38	47	1
63	102	2
76	91	1
42	58	1
92	96	1
84	98	1
1	18	1
95	126	1
28	31	1
66	86	1
108	119	2
93	129	1
100	117	1
73	135	1
48	123	1
60	72	2
85	110	1
17	24	1
118	123	2
14	44	1
14	43	1
113	116	1
81	106	3
112	122	2
30	45	2
73	75	2
109	117	1
73	79	2
10	25	2
2	31	3
75	94	1
79	114	1
42	44	1
50	54	2
54	102	1
53	63	2
81	85	2
95	123	1
30	129	1
52	92	2
129	134	1
65	108	1
19	64	1
81	86	2
101	103	2
100	111	1
82	84	4
74	107	1
64	77	1
79	131	1
57	68	1
6	126	1
42	61	1
59	113	1
80	81	1
29	35	1
101	115	2
111	124	2
65	78	2
58	61	3
64	74	1
106	134	1
12	19	1
110	113	1
5	9	1
10	15	2
109	112	1
37	127	1
49	56	1
55	58	3
68	89	2
15	134	2
0	16	1
59	77	1
59	105	3
123	131	2
54	87	2
17	38	3
26	53	1
116	121	1
84	97	1
20	65	1
10	20	1
87	122	1
89	103	3
35	38	1
3	76	2
10	23	1
50	115	1
19	25	2
21	28	2
118	125	1
47	80	2
11	49	1
129	131	1
121	129	1
112	120	1
94	97	2
109	113	1
83	91	1
83	108	3
43	53	1
31	69	1
58	87	1
119	133	2
53	86	1
96	119	1
84	92	1
78	107	2
88	105	1
12	50	1
55	120	1
72	134	2
49	132	1
87	117	1
94	129	1
114	128	1
63	114	1
37	44	1
50	118	1
111	126	1
78	87	2
6	49	1
9	13	1
16	23	1
6	21	1
86	125	1
28	121	1
12	28	1
21	32	1
119	122	2
91	132	1
38	43	1
23	64	1
119	135	1
22	26	1
64	87	1
0	4	1
108	130	2
14	105	1
51	53	1
43	101	1
105	135	1
36	52	1
105	128	1
118	130	1
44	135	1
64	66	1
71	111	1
84	109	1
20	62	1
11	50	3
43	111	1
60	71	2
43	102	1
102	110	1
68	131	1
86	113	1
47	57	1
27	29	1
1	17	1
13	101	1
106	112	1
63	77	1
71	90	1
57	80	1
104	112	1
25	74	1
55	67	1
115	126	1
