97	97	15
40	40	2
127	127	4
70	112	3
14	14	6
19	19	10
93	94	2
107	129	2
57	57	11
59	59	22
35	75	2
82	82	16
86	86	13
58	59	6
68	68	16
78	78	14
99	101	4
95	95	14
85	114	4
26	26	21
25	25	9
10	37	1
131	131	2
65	65	26
85	116	2
121	122	4
119	119	14
32	32	19
97	98	11
25	48	2
47	47	14
6	6	12
94	94	23
8	8	16
51	55	5
74	74	13
60	60	15
112	116	2
23	62	2
4	4	11
9	9	18
33	105	1
11	11	23
25	26	8
11	12	3
16	16	9
29	32	3
73	74	6
99	102	5
66	66	14
79	79	11
95	96	4
70	70	10
86	95	1
101	102	4
93	93	16
102	103	3
28	28	7
126	126	7
3	3	14
39	40	6
117	117	8
99	100	3
111	112	2
10	11	9
13	13	12
29	30	5
98	99	10
73	73	12
80	83	1
27	28	3
71	72	2
100	101	6
8	18	6
113	113	10
37	88	2
14	20	2
83	83	10
35	35	10
36	36	17
111	111	13
34	34	7
44	61	3
35	36	5
11	93	5
117	134	4
104	104	12
56	56	3
27	27	13
41	41	8
128	128	5
129	129	6
21	22	3
122	122	11
61	61	21
46	47	7
20	85	3
106	106	8
33	49	2
38	96	3
110	125	6
62	73	6
45	45	14
123	123	3
108	109	3
43	43	10
54	55	2
39	81	3
128	130	1
7	7	12
8	28	6
76	97	2
24	24	5
0	0	8
132	132	3
118	118	10
20	20	21
76	76	6
130	130	6
70	71	2
79	81	2
67	67	4
20	78	3
104	111	4
119	120	7
48	56	4
107	109	4
28	33	2
29	29	16
20	29	2
13	14	7
64	64	9
76	120	1
23	26	2
83	84	4
103	103	3
31	128	2
93	99	2
44	44	7
27	48	1
83	85	4
30	49	2
63	64	1
10	30	1
94	95	2
109	109	3
75	75	16
39	41	5
105	111	1
26	27	10
63	63	15
121	121	5
17	17	13
81	126	5
81	81	4
62	66	1
18	19	6
77	78	7
32	33	10
41	42	6
116	116	8
70	77	2
6	9	2
3	12	6
88	129	5
69	72	2
37	37	15
72	72	6
84	101	3
92	92	5
36	101	2
0	1	2
61	62	2
71	71	7
98	98	11
15	16	8
8	95	4
72	73	3
71	73	1
2	2	9
105	105	10
21	21	3
118	129	6
46	93	2
88	90	2
85	85	8
62	62	12
84	84	13
45	46	5
69	69	7
92	93	3
10	28	2
8	68	2
69	70	3
108	108	5
115	115	6
61	76	8
17	18	4
101	101	10
8	76	2
91	92	2
36	38	4
45	75	1
125	125	5
46	46	16
79	80	7
9	12	2
124	124	7
95	97	2
82	83	7
38	38	9
90	90	10
107	107	2
115	116	2
30	30	9
75	76	6
91	91	5
77	79	8
6	7	6
23	23	8
38	81	1
76	78	1
26	94	1
31	77	3
48	48	7
66	67	5
12	61	3
78	79	9
96	96	16
2	3	2
47	48	1
5	5	14
38	39	3
27	29	11
3	4	2
20	77	1
27	76	3
55	55	2
86	93	1
74	79	1
54	54	1
46	122	2
99	99	6
84	99	1
127	128	3
98	100	3
77	118	2
100	100	2
30	31	7
4	8	1
94	116	2
90	91	4
112	113	4
30	32	1
47	82	2
9	10	2
80	80	9
88	88	1
130	134	4
120	120	5
95	101	2
113	114	4
81	82	6
11	47	1
94	103	1
104	105	13
84	85	8
59	60	1
133	133	2
40	41	2
89	89	6
16	17	1
23	24	3
26	81	5
68	69	2
42	43	2
96	100	3
43	60	1
88	98	3
31	32	3
36	37	5
95	102	1
33	33	9
83	124	1
112	112	3
51	51	1
9	18	2
40	60	2
12	45	1
130	131	2
8	46	2
7	8	4
61	77	3
8	98	2
106	126	3
114	115	2
26	93	1
91	110	1
105	106	2
3	10	3
22	26	2
93	98	1
4	7	1
87	87	3
34	102	2
77	77	11
25	29	1
8	10	1
35	95	1
23	25	4
55	56	1
15	15	8
37	81	2
120	122	1
10	10	8
96	97	3
62	63	5
90	93	1
97	99	3
18	18	6
1	1	4
124	126	1
22	95	2
24	25	2
111	114	2
45	122	3
31	127	2
20	62	3
45	64	1
21	85	1
35	68	2
10	14	1
40	55	3
110	111	3
12	12	1
28	91	1
108	113	2
18	32	2
73	116	3
23	61	2
92	95	1
79	131	1
20	22	1
28	29	1
26	62	1
8	9	7
78	83	1
61	73	2
45	61	1
38	82	3
18	20	4
126	129	1
42	42	1
40	43	2
108	116	2
44	45	2
25	47	2
60	61	2
43	44	3
12	101	2
87	88	5
29	77	1
27	91	1
80	81	1
31	80	2
27	34	1
67	68	1
78	80	1
110	113	1
123	125	1
38	99	1
19	20	3
3	100	1
114	114	2
86	113	2
119	134	1
14	23	2
132	133	2
11	13	2
31	31	3
123	124	1
8	36	3
29	60	1
20	88	1
7	26	2
65	66	3
7	25	1
25	41	2
123	126	2
89	90	1
20	21	2
125	126	1
119	121	1
3	18	1
75	102	1
20	33	2
109	128	1
90	97	3
5	29	1
92	130	1
30	82	1
26	61	1
107	122	1
85	86	1
28	45	1
34	35	4
102	102	2
87	96	1
85	98	1
58	58	3
29	49	1
24	82	2
84	98	1
4	5	1
124	125	2
110	110	5
24	129	1
83	107	1
46	61	3
67	69	1
15	31	1
64	65	1
106	107	1
22	22	1
25	82	1
38	95	1
107	123	1
35	93	1
17	36	1
108	129	1
44	62	1
77	120	1
13	31	1
118	123	1
62	78	1
110	126	1
107	131	1
12	35	1
91	130	1
