102	128	3
118	118	16
7	7	12
56	69	4
46	65	2
111	111	9
13	13	20
70	70	12
112	112	19
113	113	21
125	126	10
52	52	25
127	127	6
4	5	4
124	124	17
128	128	5
44	44	12
48	48	24
91	92	5
108	126	2
108	108	9
115	124	4
51	51	14
56	56	30
118	119	4
132	132	9
80	84	2
114	114	3
88	89	4
54	54	25
47	47	26
109	109	22
130	130	8
104	104	16
53	53	26
97	97	11
45	46	4
127	128	3
12	12	8
61	61	8
51	53	2
106	106	14
3	4	1
11	12	5
13	14	12
78	78	8
68	83	3
63	64	1
10	12	1
86	86	10
104	124	1
64	64	17
102	121	1
50	50	10
131	131	10
84	84	4
51	56	3
11	11	7
128	129	5
13	15	2
119	119	9
31	32	3
20	21	5
9	10	3
55	55	8
102	102	17
6	6	15
46	46	11
94	96	2
69	69	14
39	39	23
21	23	2
126	126	7
62	63	7
99	99	19
6	7	3
68	79	1
62	62	7
67	67	12
48	49	6
89	96	2
42	42	10
119	128	1
82	82	9
13	20	2
2	2	7
110	110	13
48	57	3
57	57	20
107	107	19
70	71	8
20	79	5
58	58	21
92	92	7
121	121	15
52	56	5
94	94	7
69	76	5
10	10	5
105	106	11
125	128	7
18	18	8
120	120	15
116	116	10
22	22	15
56	100	2
76	76	10
72	72	12
40	41	2
85	86	3
24	24	11
19	19	10
124	125	7
65	65	14
30	32	2
96	96	9
92	93	3
41	41	15
115	115	9
48	64	1
32	32	6
21	21	5
43	43	11
78	79	2
46	47	5
104	105	9
5	5	9
27	27	14
94	95	3
70	102	4
49	49	22
66	66	2
46	48	9
28	69	5
17	17	12
50	51	9
59	59	13
57	121	2
125	125	15
32	65	2
44	45	4
115	116	11
91	91	9
28	28	21
101	103	2
121	122	4
80	81	3
75	76	3
16	17	4
123	123	25
18	24	7
117	117	12
71	71	5
22	23	4
106	121	3
3	3	12
14	21	3
93	93	7
26	26	14
85	85	6
13	19	2
108	125	3
68	82	3
42	43	3
7	19	2
49	50	4
123	125	3
97	98	5
40	40	5
131	132	3
75	75	4
0	0	8
18	46	1
73	75	5
80	80	3
79	79	6
45	45	10
90	90	18
33	33	13
120	121	2
101	101	5
98	98	9
103	103	15
21	24	4
68	68	4
30	31	4
101	120	3
100	100	16
23	23	2
125	127	10
72	76	1
96	97	2
51	52	8
83	86	5
100	103	4
102	103	1
58	62	2
64	77	2
113	114	4
22	25	1
13	18	1
1	1	9
108	109	5
67	68	2
106	109	1
53	55	2
56	117	3
98	99	8
21	22	3
63	63	6
86	87	5
50	52	3
83	108	2
4	4	7
46	52	1
29	29	7
29	30	2
44	47	2
4	7	1
33	41	3
21	25	2
8	11	1
65	84	1
86	99	2
106	107	1
20	22	2
45	47	6
122	122	14
20	20	7
89	91	1
15	16	4
49	80	3
47	48	13
2	4	2
1	2	6
18	21	2
38	38	3
9	9	5
105	105	19
47	54	1
133	133	6
87	87	2
10	11	4
53	54	11
50	53	2
30	30	2
48	50	2
89	90	2
49	54	1
124	132	1
77	77	11
14	14	6
32	33	5
60	61	1
43	53	1
26	27	2
97	99	1
65	80	3
62	74	1
76	77	1
12	26	4
71	72	6
109	112	1
7	9	2
65	79	4
105	110	4
99	106	1
119	125	3
120	130	1
114	115	4
129	129	4
107	117	6
42	52	3
120	127	2
58	74	2
66	94	2
110	111	2
122	123	2
8	9	8
26	28	2
83	84	2
24	25	1
117	118	2
40	43	1
19	81	4
127	129	2
47	51	2
81	108	1
82	84	4
105	126	3
3	5	4
9	52	1
60	60	6
123	124	1
2	3	2
17	39	1
86	88	3
31	31	6
101	113	2
15	15	4
29	55	1
44	86	2
55	60	1
109	117	1
89	89	3
116	117	5
126	127	2
55	58	1
73	74	1
107	126	2
81	81	3
93	110	1
102	104	1
43	90	1
57	58	2
1	6	3
100	107	4
109	114	2
109	125	1
98	119	3
6	10	2
9	12	3
12	31	2
93	124	1
120	125	2
85	90	2
101	102	1
18	19	1
69	70	1
100	101	2
8	8	5
79	80	5
74	74	3
15	17	4
46	74	1
78	84	1
3	102	1
68	69	1
65	66	2
20	56	1
95	95	8
112	123	1
68	72	2
33	40	1
54	55	1
115	117	2
30	55	2
75	96	1
105	131	2
75	77	1
60	62	2
3	6	1
59	60	1
50	88	1
105	109	2
112	113	3
89	109	1
108	114	1
88	88	2
87	88	3
132	133	1
41	46	1
81	82	2
11	93	1
104	106	1
20	28	2
88	116	1
85	88	1
47	50	2
14	15	1
68	70	3
103	104	2
96	118	2
99	100	2
55	61	1
20	38	1
12	13	1
33	38	2
29	33	1
108	118	1
83	83	1
0	32	1
95	96	1
93	94	1
71	94	2
126	130	2
16	16	1
61	73	1
12	20	1
131	133	1
59	63	1
34	34	1
28	29	1
50	89	1
17	18	1
124	131	1
77	78	1
105	128	1
69	121	1
29	67	1
52	53	1
98	126	2
68	87	1
57	122	1
90	109	1
66	78	1
51	55	1
82	87	1
73	73	1
66	69	1
39	40	1
82	83	1
