118	119	3
180	181	3
166	166	7
222	222	9
84	84	3
81	81	3
80	80	4
224	224	4
10	29	2
198	198	12
40	40	11
19	19	12
220	220	7
20	20	13
174	174	10
219	247	1
209	209	9
18	18	5
62	62	4
145	145	9
68	81	1
51	51	6
168	168	2
163	163	1
210	210	16
228	228	9
181	181	12
17	17	8
59	59	11
49	51	1
7	7	9
105	106	2
219	219	1
203	203	10
4	14	3
230	230	17
162	162	6
40	51	1
206	206	2
84	173	2
58	58	4
57	58	4
171	171	3
81	84	2
218	218	12
10	10	5
59	60	3
216	234	2
26	26	4
179	179	3
234	234	7
55	56	8
171	176	7
208	211	1
99	99	4
94	94	3
53	53	5
118	118	4
163	181	4
31	31	3
183	183	9
21	21	6
117	117	2
17	23	3
95	95	6
91	91	5
236	236	6
178	178	2
246	246	5
110	111	2
37	38	2
69	69	1
245	245	10
34	35	6
44	44	3
14	14	3
66	66	1
107	107	6
227	227	6
120	120	3
111	111	6
115	115	5
213	214	4
64	64	9
88	88	4
1	1	6
110	112	9
41	43	2
107	120	7
34	34	8
181	190	2
34	190	1
76	80	2
225	225	8
156	156	3
238	239	2
176	176	6
79	79	3
38	38	6
244	244	2
218	225	4
116	116	6
146	152	4
5	5	7
193	193	1
236	237	3
171	179	2
65	65	2
15	16	3
36	36	10
70	70	2
184	184	1
6	16	4
73	74	1
186	186	10
221	221	3
23	23	1
68	79	5
240	240	6
223	223	2
89	89	3
4	4	4
199	200	5
76	76	1
186	187	1
243	243	1
209	219	2
30	30	5
152	153	1
208	208	9
156	173	1
204	208	1
39	41	10
117	184	5
199	208	2
218	239	6
158	158	1
54	72	1
183	249	1
43	52	2
105	107	5
211	212	2
182	198	2
11	11	7
108	111	3
28	226	3
119	120	3
237	238	2
231	231	2
168	169	3
190	190	5
107	118	1
173	173	7
93	93	2
117	185	5
38	67	4
32	43	1
96	96	2
113	113	6
226	226	11
157	157	1
67	67	4
174	192	2
240	244	2
48	73	4
228	231	1
154	154	9
93	151	1
208	248	2
24	24	7
47	47	6
32	227	3
194	194	4
211	211	2
76	77	2
55	101	1
191	191	3
23	24	1
115	116	1
210	211	6
170	179	4
165	165	6
150	172	1
187	190	2
190	191	3
33	35	2
228	229	5
18	19	6
161	247	3
11	21	1
61	72	5
109	175	5
50	50	3
119	119	4
90	91	5
31	32	3
46	46	3
159	163	3
168	226	3
63	64	2
84	85	2
182	182	6
149	149	4
233	234	2
71	71	2
55	55	5
229	229	5
164	164	4
201	201	4
48	48	4
185	222	1
95	98	1
8	8	2
61	61	1
189	189	1
160	161	2
230	244	2
217	217	1
85	85	1
29	29	2
51	55	1
30	47	1
10	32	2
159	159	2
34	242	3
153	153	4
43	43	7
243	244	5
49	188	2
184	236	2
224	226	1
160	245	2
3	39	1
232	233	3
156	157	1
54	54	3
7	63	1
215	215	3
56	57	1
187	187	1
219	229	2
6	6	2
167	168	1
211	214	1
87	96	3
180	180	4
109	110	2
237	237	4
56	56	2
47	104	4
166	182	4
151	151	3
48	103	1
19	32	1
104	105	2
235	235	1
177	177	8
17	35	2
17	36	2
38	39	5
69	75	2
109	109	1
15	243	4
66	189	2
172	172	5
101	101	5
16	23	3
232	232	3
49	49	5
51	57	4
196	196	2
202	207	3
36	37	2
177	232	2
216	233	1
77	77	1
162	194	1
118	243	1
230	236	2
203	204	2
156	241	1
188	189	2
22	42	3
104	109	2
78	78	4
44	46	1
32	32	1
108	112	2
157	159	1
28	31	3
90	90	2
74	74	3
228	235	1
155	155	4
72	72	3
10	70	1
36	52	2
41	41	3
83	83	3
239	239	4
17	18	2
0	8	1
98	109	2
38	73	2
85	90	3
65	66	1
160	160	3
69	70	2
187	201	1
185	185	1
89	90	2
219	226	3
82	83	3
167	167	3
180	184	1
45	45	2
76	180	2
204	204	3
102	103	1
172	173	2
110	110	1
218	236	1
31	39	2
49	50	1
167	206	1
38	68	2
15	15	1
205	205	6
38	198	1
52	62	2
192	192	1
79	89	1
48	49	2
120	175	2
27	27	5
193	194	2
212	212	7
214	214	2
40	52	2
207	207	1
100	100	2
43	44	2
114	114	1
110	160	1
161	161	1
170	170	1
157	178	2
60	61	1
15	32	1
9	68	1
117	118	1
77	169	1
235	236	1
25	25	1
62	69	1
39	39	3
82	99	2
182	184	3
238	238	1
88	91	1
226	236	3
57	57	1
111	160	1
17	42	2
247	247	2
85	91	1
216	216	1
112	112	1
58	77	1
201	202	1
183	233	1
63	63	1
116	184	1
167	201	1
107	145	1
197	197	1
89	96	1
28	28	1
83	84	1
116	117	1
91	173	1
48	101	1
53	78	1
163	164	1
183	207	1
73	101	1
114	115	1
204	205	1
108	108	1
152	152	2
170	177	1
179	236	1
175	175	1
