123	132	2
80	118	4
72	72	6
16	16	7
33	33	6
111	126	1
127	127	8
101	140	1
18	18	8
83	83	6
74	74	12
100	100	9
127	136	2
73	73	4
134	140	1
35	35	6
14	19	5
78	78	7
124	124	7
135	136	3
125	125	13
126	126	10
88	108	2
0	0	3
130	131	3
129	129	3
98	99	5
109	109	7
121	121	4
81	81	9
132	132	5
81	83	1
89	90	6
90	91	5
5	5	1
8	8	11
103	103	16
135	135	12
6	6	7
120	120	5
5	10	5
0	134	2
129	133	3
111	111	3
85	87	3
84	85	3
85	85	5
24	24	2
30	38	4
140	140	6
38	38	8
107	108	4
115	116	3
105	105	3
31	31	5
104	105	6
139	139	6
13	13	5
123	124	5
28	28	4
137	137	4
128	128	5
36	37	4
7	9	5
118	118	13
102	102	4
102	103	6
93	94	5
107	107	7
16	36	5
136	136	16
36	36	6
134	134	10
138	138	9
80	80	10
34	34	8
119	120	3
90	90	5
89	89	6
24	25	1
109	111	1
101	101	3
15	15	10
95	133	1
94	102	2
19	19	3
128	129	5
107	120	1
122	122	11
86	88	1
13	15	1
130	130	9
126	127	6
20	37	2
110	111	2
30	31	2
3	4	3
100	101	3
122	123	2
91	91	7
101	103	1
2	3	1
9	9	2
72	75	2
86	123	5
8	9	2
127	128	6
116	117	9
125	137	2
86	86	9
1	2	9
119	119	4
7	7	2
21	21	5
114	114	5
9	10	2
99	100	3
120	122	3
117	117	9
14	25	3
15	31	3
34	35	1
103	121	1
109	110	1
22	32	2
29	30	1
4	5	2
73	112	3
101	110	1
37	37	6
17	17	6
27	27	1
100	139	1
85	86	5
110	110	4
3	3	2
127	139	1
131	131	8
121	123	3
118	119	2
22	24	3
94	97	1
9	25	1
98	100	3
95	95	4
15	38	4
77	77	5
24	27	2
21	22	2
124	126	4
77	79	1
12	13	1
113	113	5
4	4	7
112	112	5
71	71	3
77	78	8
94	94	1
103	127	1
22	132	3
88	90	1
99	99	2
26	26	7
76	76	3
27	32	3
71	94	1
5	24	1
101	102	1
75	75	4
84	84	1
97	97	4
23	25	2
105	107	3
121	122	3
11	12	3
119	122	2
107	123	1
113	114	2
20	20	2
10	14	1
5	8	3
8	10	2
114	115	4
134	135	4
115	132	1
75	111	4
107	124	1
22	23	3
27	30	3
112	122	1
23	23	3
122	124	1
133	133	5
20	22	3
93	93	4
73	117	1
119	121	1
12	12	2
124	135	1
87	87	1
23	24	1
22	22	3
25	25	4
11	23	2
110	113	2
88	88	4
28	137	1
22	30	1
116	116	2
37	38	2
75	86	2
81	110	3
73	75	3
17	37	1
19	37	2
112	114	1
104	104	2
104	122	1
84	118	5
108	108	3
104	140	2
77	85	1
28	33	1
13	16	2
16	17	3
120	121	3
29	29	4
79	80	2
30	30	1
107	119	1
105	123	2
139	140	1
79	79	2
17	95	1
8	19	2
12	38	4
112	118	1
91	98	1
10	10	1
73	78	1
2	2	3
101	111	2
111	112	1
16	92	1
19	21	2
87	88	3
77	129	2
74	109	1
75	76	1
72	100	1
14	14	1
16	95	2
79	82	1
126	128	2
123	123	4
117	119	1
109	119	1
124	131	1
98	98	1
7	8	1
136	139	1
74	88	1
94	129	2
121	124	2
126	129	2
75	77	1
135	139	1
27	29	2
75	113	1
92	93	2
22	26	3
97	133	1
72	73	1
14	18	2
20	21	1
107	135	1
78	82	2
80	81	1
137	138	1
32	32	2
124	125	1
1	1	2
33	34	1
111	114	2
127	135	1
106	106	1
18	20	1
23	31	1
115	115	1
117	118	1
71	73	1
35	131	1
11	11	1
78	107	1
16	37	1
106	123	1
