60	61	7
123	124	1
134	135	6
97	98	3
32	32	1
105	133	2
71	72	6
143	143	3
58	59	6
134	134	4
34	34	2
24	24	16
23	23	3
29	29	19
96	96	1
125	125	12
104	104	8
126	126	7
109	109	1
50	87	3
113	133	5
69	69	4
33	35	3
144	144	4
124	124	8
3	35	3
83	83	6
99	100	5
127	129	3
140	140	5
128	128	10
9	10	1
124	136	2
71	73	2
121	121	7
55	55	7
17	17	7
74	85	2
76	76	3
113	114	2
14	17	3
40	41	1
141	141	7
100	100	6
38	38	5
4	140	2
78	131	2
106	106	3
5	5	5
73	82	4
25	26	6
98	112	3
144	145	4
75	75	1
19	19	7
10	11	2
97	127	4
124	125	3
82	82	7
74	74	3
67	131	1
53	56	1
89	90	1
18	18	3
104	128	4
41	41	3
120	121	1
134	136	4
62	62	8
136	136	4
61	61	1
106	124	1
122	122	8
92	94	4
139	139	4
52	53	3
113	113	8
102	102	6
57	57	3
68	68	1
9	9	3
55	73	2
118	119	3
62	98	4
121	123	1
105	121	4
123	123	3
30	30	1
85	86	7
118	118	2
121	137	1
140	141	1
103	103	7
123	131	2
42	43	1
53	53	4
132	132	1
12	14	1
106	107	1
50	51	2
73	74	4
98	98	3
139	140	5
141	142	2
116	118	2
13	15	5
73	86	2
97	111	1
27	27	2
21	21	9
76	78	3
120	120	5
49	49	1
119	119	2
114	114	1
14	78	1
107	107	7
16	16	3
66	92	2
59	59	4
83	84	2
47	51	4
135	135	1
105	106	3
72	73	2
109	118	1
133	134	4
12	13	3
128	142	2
39	40	2
119	120	1
118	130	2
120	128	1
55	56	4
97	97	5
2	4	6
49	50	2
99	99	9
91	92	1
26	27	5
1	1	1
122	123	4
19	141	2
136	137	1
110	110	5
92	93	5
26	26	2
78	79	6
127	127	4
14	14	5
20	20	7
131	131	10
61	71	2
13	14	5
37	38	3
78	85	1
39	39	2
11	11	3
129	130	2
20	21	5
80	81	1
60	72	2
48	61	1
125	126	6
77	77	3
101	101	3
127	137	2
22	34	2
75	77	2
117	127	1
1	19	1
22	42	1
58	58	5
56	60	1
84	85	1
117	121	1
128	133	2
107	108	4
73	91	5
51	51	1
116	116	2
31	32	2
4	4	2
79	80	1
21	22	1
91	91	2
2	2	1
132	135	1
119	128	1
47	47	2
63	63	2
40	40	2
145	146	1
52	56	2
84	84	3
38	42	1
130	130	1
9	24	1
80	80	2
9	30	1
115	115	1
8	36	1
102	103	1
85	85	2
105	105	2
141	143	1
25	25	4
87	87	2
79	79	1
25	34	1
64	65	1
92	92	1
42	42	1
73	73	1
96	99	2
6	22	1
82	84	1
103	128	1
10	10	1
104	133	2
62	70	2
28	28	1
80	82	1
62	63	2
63	70	1
15	15	1
8	9	2
51	126	1
70	71	1
71	71	1
66	66	1
53	74	2
37	41	1
67	69	1
135	136	1
60	60	2
27	28	1
89	89	1
114	117	1
70	72	1
4	122	1
12	15	1
137	137	1
