59	59	11
117	117	12
28	28	12
233	233	4
32	207	3
161	161	7
162	162	5
6	6	17
80	81	1
209	209	15
76	164	1
99	99	4
171	210	10
97	97	7
84	85	3
196	196	9
238	238	6
22	45	2
63	63	1
192	244	4
112	112	18
24	24	6
242	242	5
246	246	4
29	30	7
121	121	3
62	62	11
28	29	2
11	11	8
83	84	3
164	175	2
240	240	2
48	48	10
77	78	2
66	67	2
244	245	2
2	50	1
157	160	1
107	107	6
2	12	1
15	50	1
204	204	14
47	48	1
56	56	5
61	61	4
71	75	2
163	164	8
199	199	8
58	58	6
233	235	4
236	237	10
41	43	1
207	208	4
176	176	7
43	44	3
40	41	1
19	19	4
37	37	7
183	183	13
188	188	9
232	237	4
234	234	17
229	230	4
120	120	2
163	163	1
214	216	4
102	103	2
22	22	3
69	69	7
116	117	2
221	222	3
94	94	6
207	207	15
75	76	2
239	239	3
82	84	4
220	245	1
38	160	6
185	185	3
78	78	8
146	158	2
74	74	11
72	73	2
159	159	13
89	89	2
65	71	2
100	105	3
151	151	9
200	200	16
236	239	1
189	192	4
217	244	3
72	72	7
65	65	4
196	197	3
29	29	5
230	230	12
153	153	9
62	89	3
232	232	2
64	248	3
176	177	3
227	227	11
146	153	2
243	243	4
116	116	14
158	158	8
211	212	2
22	53	1
146	146	3
114	114	16
157	165	4
108	108	3
93	94	9
53	54	2
198	198	13
220	220	3
61	63	5
77	77	11
184	218	6
84	118	1
201	201	10
174	174	8
215	215	13
50	69	1
161	162	10
113	113	6
109	110	8
179	179	6
11	17	3
66	66	4
180	192	3
200	201	1
165	165	6
184	184	15
76	76	16
88	88	4
157	175	1
102	102	4
104	117	1
75	102	2
155	155	14
94	110	3
190	190	5
10	10	5
245	245	7
100	100	7
178	179	2
28	39	3
175	176	4
19	21	3
68	68	6
63	64	4
95	95	9
68	71	5
110	110	21
52	52	11
213	213	11
157	159	3
111	240	1
236	236	4
177	177	9
228	228	17
210	210	3
32	32	5
191	192	3
17	17	12
226	226	8
43	43	19
24	43	2
217	217	10
70	70	11
27	27	5
45	45	7
91	91	5
7	7	18
106	107	4
75	75	5
33	33	13
241	241	7
45	180	5
82	82	7
48	184	1
40	40	6
168	168	6
182	188	4
42	42	14
86	86	5
167	167	9
71	71	5
193	204	3
61	93	1
176	179	2
197	198	3
171	171	2
34	209	2
47	47	2
145	145	3
5	5	11
152	152	3
84	84	9
225	230	1
68	69	2
54	54	3
181	210	3
247	247	10
66	190	3
49	50	13
85	85	4
87	88	13
197	197	15
240	245	2
174	214	1
174	175	6
186	186	3
98	98	8
206	206	3
156	156	11
48	50	1
87	87	4
171	172	2
154	154	8
2	38	2
168	169	6
216	216	9
221	225	2
39	39	6
199	200	6
193	197	1
203	204	7
101	101	5
115	115	2
208	208	10
79	195	2
41	41	4
22	23	3
164	164	10
216	244	2
176	182	4
202	203	1
95	97	2
62	93	1
187	187	5
20	21	3
243	244	1
45	181	2
189	190	5
187	189	4
21	22	1
191	193	1
150	150	7
103	103	2
26	26	3
109	109	10
178	218	1
194	201	1
169	169	4
198	215	1
208	209	1
111	114	3
93	93	3
179	182	2
58	61	2
223	223	13
224	224	5
118	120	2
183	184	2
60	60	6
15	15	10
56	57	2
177	188	4
64	64	7
55	60	1
23	23	6
85	172	1
144	145	5
213	216	1
224	225	3
57	57	16
195	195	3
173	173	6
36	44	4
46	180	2
205	205	13
79	79	9
158	238	2
194	194	10
211	211	6
69	73	1
105	105	4
46	52	3
39	47	1
227	229	2
95	110	2
30	30	7
159	167	2
76	88	1
1	45	1
18	18	9
193	193	3
178	212	2
50	50	7
67	67	6
115	116	5
172	172	10
7	67	1
21	21	6
53	150	1
182	184	6
157	240	2
80	103	1
31	31	5
104	105	4
178	178	11
214	219	1
158	159	5
1	2	2
229	229	5
77	89	1
174	181	2
110	113	5
214	215	1
12	12	3
39	41	1
38	38	4
158	211	2
71	103	1
44	44	2
203	203	9
235	235	9
221	221	4
209	211	1
80	80	5
35	35	9
90	90	4
184	189	2
1	1	2
237	240	1
50	54	1
156	205	3
48	105	3
112	114	2
160	160	4
191	196	1
9	10	2
244	244	8
52	53	2
168	235	2
9	9	5
88	90	1
62	178	3
234	236	1
177	210	2
192	192	7
191	191	2
67	75	1
214	245	1
46	118	1
59	60	4
231	231	10
71	98	2
7	98	2
106	239	1
152	153	1
180	181	1
77	88	3
178	183	2
149	150	2
220	221	5
158	166	1
76	108	2
92	93	2
61	62	1
201	202	1
2	2	1
70	89	3
204	205	4
96	118	3
79	80	1
49	49	3
219	219	6
227	241	3
37	38	1
46	46	3
60	101	1
119	119	5
112	113	3
63	248	4
220	225	1
158	181	3
233	234	3
248	248	4
188	193	3
55	100	1
36	39	3
12	19	3
76	89	2
206	207	5
56	101	3
168	175	1
50	60	2
181	181	7
173	213	1
37	52	1
8	8	5
39	45	4
111	112	2
214	214	2
156	157	3
42	43	3
37	147	3
113	115	2
245	246	1
211	214	1
12	54	3
238	241	1
170	236	1
59	92	2
10	64	2
204	206	1
156	169	1
118	144	3
182	182	5
146	160	2
159	160	3
227	228	2
25	25	5
38	39	1
167	175	3
217	245	1
71	72	3
72	88	3
109	161	2
64	249	1
211	217	2
19	26	1
157	157	9
170	181	1
213	214	1
25	210	1
215	243	1
20	20	2
144	227	2
160	161	1
118	118	8
236	240	1
57	58	2
193	220	1
15	35	2
199	214	3
23	151	3
111	111	3
161	246	1
175	179	1
153	165	1
76	77	1
193	195	1
14	14	4
180	180	2
71	90	4
110	240	2
216	221	2
111	119	2
2	37	2
184	193	1
168	179	4
47	238	2
63	65	3
36	55	1
106	106	2
120	158	2
56	92	1
28	235	1
79	111	2
164	209	2
2	3	1
73	74	1
31	43	1
60	61	1
75	77	3
53	53	3
3	11	1
189	189	5
53	61	3
114	116	2
73	73	2
11	23	4
240	246	3
154	155	1
92	92	2
237	238	2
158	165	1
164	165	2
83	83	3
217	218	2
46	225	1
120	145	2
188	192	3
22	24	2
183	241	2
180	212	2
183	188	2
45	248	2
146	238	1
198	216	2
191	194	2
6	64	1
237	237	5
30	31	1
183	219	4
157	158	3
239	240	1
175	178	2
216	217	1
215	216	1
121	144	3
10	11	1
177	211	2
8	235	1
111	160	1
150	209	1
16	234	1
225	225	7
165	194	1
209	237	2
146	236	1
184	242	2
149	153	1
104	107	3
113	117	1
202	202	5
33	38	2
173	174	1
114	118	1
148	148	3
162	165	1
6	9	1
187	199	1
177	236	1
182	220	2
19	23	1
167	237	1
239	241	2
198	223	1
166	166	4
16	16	3
146	231	1
93	206	4
111	243	1
28	150	1
14	15	2
31	50	1
94	202	1
51	52	1
215	236	2
63	89	3
40	61	1
28	75	1
204	223	2
3	3	3
71	171	2
96	101	1
178	241	1
1	151	2
11	145	2
114	115	3
38	162	1
239	246	1
34	74	1
177	208	1
113	114	1
208	214	1
220	243	3
72	172	2
110	241	1
158	163	2
40	48	1
56	87	3
120	143	1
66	248	1
55	56	1
71	73	2
108	109	1
238	239	3
101	103	1
163	209	1
70	75	1
4	5	1
55	55	1
182	209	1
37	49	2
184	210	1
212	212	1
187	188	3
238	240	1
149	149	2
31	32	2
104	121	1
194	196	3
175	175	1
60	85	2
170	177	1
62	63	1
100	184	1
170	171	1
85	86	2
100	116	1
182	221	1
150	230	1
108	248	1
71	80	1
42	106	1
35	209	1
78	200	1
96	96	2
188	189	3
222	222	2
80	113	1
182	208	2
174	176	1
151	184	1
177	181	1
117	118	1
242	244	1
14	35	1
101	105	1
35	182	1
198	212	1
175	211	1
183	189	1
200	204	1
146	152	2
189	194	1
196	218	1
37	48	1
81	81	1
73	98	1
185	220	1
158	190	1
95	111	1
170	175	1
166	196	1
7	9	1
153	154	2
152	171	1
101	107	1
101	104	1
237	241	1
66	105	1
113	118	1
157	238	1
12	23	2
34	76	1
164	237	1
97	99	1
5	6	1
230	231	2
44	45	1
165	166	1
188	241	1
157	182	1
225	226	1
29	46	1
170	170	1
240	241	1
48	117	1
119	216	1
178	198	1
190	196	1
213	227	2
145	164	1
216	218	1
181	188	1
