99	99	6
47	47	7
22	22	15
24	24	8
35	50	5
69	69	13
65	65	19
63	63	5
25	29	6
73	73	9
55	55	13
74	74	22
90	90	7
59	60	7
103	103	8
76	76	23
67	67	19
81	84	1
31	31	17
89	90	1
56	57	4
26	28	1
94	94	8
96	97	4
89	91	4
60	60	4
43	43	11
101	101	14
93	94	5
55	56	6
51	52	7
96	102	4
35	36	8
30	31	4
93	93	16
96	96	12
71	71	7
102	103	4
82	88	2
75	75	31
59	59	17
52	52	18
36	36	17
105	105	19
37	37	5
48	49	4
35	39	1
71	72	4
56	56	21
86	87	11
53	54	5
21	21	15
69	70	4
23	55	1
23	24	5
42	42	10
25	28	3
61	61	23
82	82	11
102	105	1
32	34	1
35	35	12
44	45	7
79	81	2
57	57	11
66	66	13
23	23	28
68	69	18
67	73	4
102	102	9
81	81	10
95	95	6
94	95	5
82	98	2
32	32	7
80	80	2
22	35	3
30	30	8
92	92	20
91	99	3
50	50	23
67	84	5
38	39	3
100	100	12
71	102	3
92	96	3
57	79	3
78	83	2
23	73	1
26	26	4
27	27	11
90	91	6
51	51	23
83	83	9
64	69	4
64	64	13
58	60	2
66	88	3
70	70	14
62	70	3
70	102	4
42	43	7
72	73	2
58	58	7
21	31	2
92	93	4
27	29	4
41	41	8
34	34	12
67	87	3
27	30	4
41	47	1
38	38	13
79	80	4
25	30	3
55	58	2
35	37	4
50	51	3
67	68	1
91	92	4
73	91	1
76	104	2
104	104	7
20	21	3
78	86	2
79	79	7
70	71	9
30	36	1
84	84	8
49	49	7
20	20	6
46	47	7
83	85	3
83	88	1
44	44	5
86	86	7
100	101	9
53	53	6
87	88	4
96	99	6
84	85	5
83	87	2
77	77	10
54	54	3
21	102	4
59	63	1
71	74	2
76	77	3
48	48	8
35	84	2
82	83	5
72	91	1
97	97	7
28	30	2
37	38	2
78	78	9
47	48	4
80	81	4
96	104	1
39	40	2
97	99	7
24	101	1
22	68	2
91	91	6
92	95	3
39	39	5
25	25	2
23	70	1
62	62	13
80	98	1
64	68	2
55	70	2
66	67	2
22	79	1
67	85	1
85	85	6
59	61	1
62	63	2
58	61	3
83	99	4
64	65	6
49	60	2
84	86	4
28	32	1
29	30	1
58	59	6
61	62	1
87	102	2
89	97	3
88	88	3
73	74	5
28	28	3
58	67	3
21	24	3
85	86	1
68	68	4
57	58	1
81	91	4
55	63	3
57	61	5
39	43	1
43	44	1
68	85	1
61	85	2
29	29	3
25	49	3
36	55	1
86	107	2
98	98	6
72	72	6
20	25	4
63	65	2
24	73	1
77	78	1
45	45	1
30	32	1
85	102	1
47	49	1
84	90	1
40	41	2
97	98	1
74	75	2
25	26	3
90	106	1
36	37	4
24	27	1
32	33	3
106	106	2
89	89	2
57	60	2
65	67	2
83	84	5
87	87	1
77	84	1
98	99	1
38	75	3
41	42	3
41	43	1
85	88	1
33	33	1
38	41	1
60	62	1
90	95	1
23	35	2
55	100	3
103	104	1
46	46	1
71	91	3
22	56	2
75	104	2
26	27	3
101	102	1
99	100	2
89	96	1
39	54	1
40	40	2
44	46	1
29	31	1
56	62	1
106	107	1
31	32	2
68	102	1
37	43	1
57	80	1
56	58	1
37	39	1
67	100	1
104	105	1
79	84	1
26	29	1
79	99	1
62	77	2
95	99	1
63	64	1
78	105	1
63	100	1
52	54	1
23	56	1
86	102	1
52	53	1
52	55	1
