36	36	15
58	66	1
21	22	3
16	16	9
153	153	3
47	47	8
72	73	3
8	8	3
92	92	6
88	88	9
13	14	10
159	164	3
6	7	4
56	56	11
85	86	4
156	170	1
150	150	11
163	163	2
141	141	3
83	83	8
159	166	3
58	105	3
99	99	4
44	45	9
15	16	7
54	54	4
43	43	13
98	100	1
21	57	2
159	159	9
139	139	12
10	11	2
46	47	4
25	25	7
130	130	8
95	95	4
77	77	2
92	151	1
7	8	4
127	127	4
137	137	5
113	113	5
22	22	3
98	99	4
69	69	3
93	96	4
33	34	2
23	23	4
97	98	6
26	26	4
148	149	8
135	135	4
75	75	6
2	21	2
110	140	5
35	35	16
149	149	9
71	71	1
48	48	2
86	86	13
115	115	5
170	170	4
138	139	2
27	28	1
155	155	8
167	167	4
3	4	2
144	149	2
3	3	9
20	20	14
28	28	5
10	10	4
12	20	3
97	100	1
98	98	6
17	17	3
1	1	6
34	34	4
12	14	3
144	152	1
76	87	4
62	63	3
91	91	3
51	51	7
136	136	5
81	85	2
101	112	2
87	90	3
81	102	3
43	44	9
2	13	1
93	93	1
17	23	3
18	18	5
18	19	9
142	143	5
93	128	1
114	115	2
151	151	3
116	117	1
165	167	2
113	144	3
21	25	3
92	95	4
7	9	1
49	50	8
133	134	4
6	6	5
104	104	6
5	6	1
103	113	2
0	1	2
78	79	1
122	122	2
87	123	2
112	113	1
158	159	4
37	38	7
49	49	2
155	157	4
0	0	7
64	64	6
76	77	5
2	2	1
110	144	2
19	19	8
45	45	13
86	122	2
53	53	6
13	13	13
19	40	3
107	107	2
132	132	5
121	125	1
38	38	2
46	49	1
24	24	6
100	100	9
80	82	3
124	124	8
4	5	2
102	103	3
129	129	4
150	151	5
55	55	16
144	144	11
134	134	10
27	27	3
117	118	3
5	5	4
158	158	3
10	12	4
101	103	7
140	140	7
119	134	3
101	102	4
15	15	10
162	162	4
96	96	4
47	49	4
119	119	5
50	52	2
148	156	2
26	27	1
160	160	4
39	39	6
99	111	2
84	84	9
52	53	2
93	143	2
3	13	3
74	74	4
76	90	2
143	143	6
111	111	6
11	12	4
5	15	2
73	75	4
104	105	1
84	94	4
134	135	4
67	67	3
42	42	8
114	114	3
87	87	6
50	50	3
42	43	1
101	101	2
66	72	3
85	85	2
82	82	6
66	66	5
90	90	4
96	97	1
71	73	3
160	161	8
89	121	2
102	105	5
83	85	1
137	168	1
7	7	5
129	130	2
68	68	7
100	114	2
125	125	3
108	108	2
50	53	3
164	168	1
105	116	1
55	56	1
69	72	6
73	91	4
67	68	3
33	33	2
113	152	1
156	158	3
80	80	6
47	48	1
106	106	3
81	165	7
111	116	2
107	108	5
9	12	1
54	55	3
126	126	2
14	16	4
81	82	2
119	162	2
25	27	4
40	41	6
52	69	2
128	130	1
17	18	2
35	36	1
133	133	3
103	104	1
147	147	2
82	99	1
151	152	2
21	21	1
41	41	5
81	97	3
102	102	2
146	147	4
44	44	4
44	46	5
95	125	1
9	28	3
168	168	2
7	10	1
168	169	2
97	115	3
110	111	1
154	154	2
16	17	1
100	103	3
88	90	2
46	46	2
74	91	2
97	97	3
125	129	1
143	144	4
90	91	2
51	54	1
131	131	4
88	163	7
20	24	1
76	86	5
165	165	1
17	19	1
157	157	4
93	94	3
137	141	1
58	63	2
4	4	3
17	20	3
114	153	3
123	123	3
87	122	1
112	112	3
119	120	2
14	15	2
169	169	8
40	40	1
63	68	4
89	167	3
92	94	1
39	58	1
113	114	1
109	158	2
142	142	1
12	12	2
98	104	2
5	8	3
39	43	3
100	116	5
135	137	1
110	110	2
64	68	5
57	58	3
166	166	1
155	156	2
161	165	2
65	66	2
63	63	3
91	95	3
144	146	4
138	138	2
34	35	2
40	67	2
51	52	1
136	137	1
40	57	1
8	11	1
52	52	1
87	121	3
76	78	1
89	89	3
116	116	2
71	72	2
81	81	1
73	73	1
162	164	3
15	17	3
131	153	1
21	43	1
36	103	1
152	152	2
165	166	1
22	23	1
145	148	1
11	11	1
101	148	1
87	89	1
119	165	2
45	46	1
37	37	1
98	101	1
50	113	3
102	150	1
166	167	1
147	150	1
21	40	1
56	57	1
118	118	2
70	91	1
121	160	2
78	78	1
99	100	1
63	74	1
106	107	3
164	164	1
169	170	2
142	144	1
73	79	1
126	127	1
68	69	1
6	15	1
66	67	1
70	70	1
100	117	2
120	120	1
101	147	1
41	42	1
144	145	1
12	13	1
74	75	1
120	134	1
4	19	1
79	81	2
128	128	1
105	106	1
86	121	1
139	151	1
