35	35	14
222	222	3
61	174	1
81	81	7
21	21	3
197	197	3
61	62	3
40	40	15
75	75	10
101	101	5
202	204	1
14	147	1
185	187	2
39	42	1
199	199	5
84	84	4
115	118	3
170	170	17
66	235	1
55	55	11
80	156	4
166	181	2
30	97	2
235	235	4
30	30	6
122	126	2
106	106	3
216	218	2
31	31	13
115	115	12
26	26	11
15	37	1
117	178	2
1	1	5
120	120	12
36	36	5
220	220	2
82	82	6
24	64	4
133	171	3
184	184	4
76	78	4
133	133	6
103	103	11
5	5	2
148	148	4
2	5	7
4	6	6
21	63	4
235	242	1
124	124	6
175	175	4
61	61	5
6	103	4
22	22	8
125	127	1
153	183	2
86	86	12
198	200	1
229	229	4
37	37	3
56	79	3
19	19	4
139	141	1
153	155	3
225	225	3
147	148	2
207	207	3
157	157	3
106	199	2
173	231	3
177	184	1
159	159	4
44	45	6
17	17	11
164	164	5
187	187	3
172	172	5
110	207	2
29	29	5
172	240	2
132	132	3
110	110	3
32	32	6
59	60	4
188	189	1
238	238	10
146	146	5
3	5	5
52	52	16
230	231	7
5	162	2
170	171	2
198	201	5
6	7	1
26	72	1
212	222	1
150	150	5
20	21	10
51	52	3
47	47	7
173	174	10
0	192	5
42	43	1
103	108	2
71	71	10
183	183	5
211	212	10
153	154	3
138	138	4
213	213	5
121	211	3
49	50	2
70	73	3
147	147	4
212	212	9
106	127	1
76	79	2
241	241	6
18	34	1
180	180	2
185	188	7
195	199	3
6	6	14
44	44	4
114	190	2
152	153	1
96	96	5
39	39	3
77	77	6
68	69	2
54	54	7
157	158	1
190	190	10
27	134	1
207	230	2
67	67	10
200	200	12
24	24	7
77	78	3
102	102	6
7	8	3
103	104	3
70	71	5
180	190	2
30	100	1
13	13	2
184	186	2
219	219	5
23	214	1
15	34	1
193	195	2
40	41	4
150	152	3
1	218	2
198	198	3
137	138	4
25	25	7
55	56	4
239	239	5
119	120	1
45	133	2
63	63	6
78	79	5
194	194	11
141	142	3
32	81	3
128	128	7
57	57	13
70	70	7
88	88	4
92	122	2
0	0	8
225	227	5
135	137	1
58	83	3
67	234	1
7	15	2
72	72	11
4	178	1
236	238	6
125	128	4
14	14	5
81	83	1
137	137	6
143	143	4
123	124	4
52	57	2
170	172	2
45	45	8
188	201	2
50	79	3
117	187	3
13	33	1
159	160	2
129	129	6
149	189	3
10	21	2
108	109	4
110	205	4
223	223	4
203	203	2
38	137	2
122	127	3
138	184	2
200	204	3
144	144	7
134	168	1
119	119	2
29	46	1
140	140	3
148	150	1
145	145	7
73	111	3
169	169	7
48	75	1
154	154	2
75	77	2
216	216	4
134	134	2
47	162	3
11	16	2
234	236	2
98	99	2
73	73	1
217	217	7
18	95	1
17	18	1
8	8	3
171	171	7
84	85	5
124	125	3
158	158	9
15	36	1
114	114	1
66	66	6
18	19	1
186	186	3
156	157	2
46	46	6
176	176	5
12	15	2
13	49	2
221	222	3
24	157	3
33	123	1
221	221	4
228	228	2
6	123	4
74	74	6
115	116	3
49	91	3
18	33	1
33	34	4
7	7	6
64	64	3
37	38	1
14	15	2
11	11	5
197	198	3
102	194	1
20	20	6
7	82	2
227	227	4
197	202	3
125	166	2
133	134	2
144	146	2
30	161	5
1	102	4
220	228	5
218	218	4
234	234	1
102	103	2
212	213	2
179	186	2
154	157	2
236	236	5
9	9	6
139	184	5
81	161	1
163	165	1
208	230	2
68	73	2
4	4	4
152	152	3
9	32	1
74	80	1
15	15	4
60	117	2
139	139	2
23	23	5
76	76	2
10	10	5
202	203	1
124	126	3
208	217	1
152	190	2
80	80	4
149	149	2
58	58	5
63	76	2
2	2	5
42	62	1
68	238	1
155	193	1
116	118	2
126	126	9
214	222	4
127	127	3
10	20	2
5	6	6
22	61	2
125	126	1
50	50	10
1	2	2
49	49	7
226	227	6
36	85	4
213	217	1
13	16	3
181	181	1
185	209	1
26	73	3
141	141	3
222	223	1
28	28	4
194	195	3
107	126	1
155	156	1
175	179	2
6	17	1
166	166	5
166	167	3
190	192	3
199	200	1
117	117	3
104	104	8
182	182	2
153	153	5
27	133	2
101	102	4
64	65	1
103	105	3
14	18	1
81	82	1
107	108	3
18	18	7
6	8	1
36	154	4
25	26	3
105	105	3
27	27	3
115	187	1
159	179	2
87	87	1
102	109	3
24	71	1
171	229	1
18	124	1
113	113	3
52	53	2
12	37	2
82	83	3
23	25	2
212	214	1
1	27	3
4	47	1
142	142	3
104	119	1
53	53	2
69	69	3
57	58	1
65	66	4
61	119	3
7	14	4
120	127	5
162	163	3
85	85	4
235	238	3
96	105	1
41	41	2
153	198	1
242	243	2
215	215	2
80	81	3
111	111	3
19	22	2
79	80	2
147	149	3
43	54	1
81	84	2
206	206	3
26	28	2
3	6	1
140	141	1
121	122	4
67	75	2
38	38	5
115	121	2
14	16	8
161	161	2
163	168	3
41	42	1
118	121	1
107	119	2
208	208	1
177	177	1
43	43	3
51	53	4
205	205	2
114	116	1
7	13	2
141	151	2
226	226	3
6	14	1
34	34	3
5	164	2
138	180	3
48	74	1
116	116	1
121	121	2
16	17	1
151	151	2
145	146	5
95	106	3
95	95	5
1	3	1
188	188	4
21	123	1
180	181	1
47	98	1
47	197	2
3	9	2
56	57	1
3	124	3
136	136	5
97	97	1
99	99	6
117	126	1
0	1	2
43	44	3
42	42	6
62	62	1
19	20	2
12	12	6
240	243	2
140	162	1
163	166	1
237	237	3
150	151	2
0	160	2
148	149	2
65	71	1
1	108	1
222	229	2
217	222	1
138	139	1
192	196	1
179	179	3
77	79	3
174	174	2
21	22	2
160	160	1
232	233	2
236	237	1
95	195	2
189	190	1
224	224	2
228	230	3
49	123	3
191	192	2
232	232	4
179	189	2
192	192	2
59	158	1
56	56	6
210	210	1
111	173	1
27	101	2
69	71	1
62	73	1
33	152	2
123	123	1
57	75	2
22	69	3
15	17	3
216	217	1
157	159	1
173	173	2
74	162	1
224	225	3
48	49	1
98	98	3
138	155	1
154	162	1
23	31	1
240	241	3
24	32	1
3	3	2
2	3	2
221	224	1
107	107	1
121	210	3
201	201	3
123	125	5
195	195	2
155	155	2
122	122	2
181	182	1
239	241	1
50	52	2
186	187	3
3	4	1
9	97	2
74	75	2
69	238	1
9	10	1
6	22	2
39	147	2
124	211	1
15	16	1
61	152	2
167	169	2
122	130	3
171	220	1
207	208	1
27	46	3
83	221	3
72	85	1
104	131	3
34	36	1
168	186	1
170	236	1
242	242	2
137	185	1
231	231	3
36	48	3
32	83	1
134	236	2
179	180	2
35	36	1
192	193	1
113	208	1
51	56	1
66	68	2
106	195	2
129	131	1
75	76	2
7	33	2
160	161	3
49	76	1
97	121	1
211	211	1
187	195	1
193	193	3
90	124	1
86	99	1
83	83	1
102	197	1
60	60	2
48	48	2
209	210	1
157	215	1
62	63	1
13	15	1
110	128	1
163	163	1
8	13	1
13	14	2
58	59	1
210	211	1
171	221	1
164	165	1
101	195	2
162	162	1
71	72	1
69	139	1
37	85	1
52	54	1
126	127	1
184	185	2
167	168	1
191	191	1
233	238	1
33	33	2
42	143	3
112	112	2
3	12	1
17	22	1
224	226	1
21	34	1
86	88	1
78	78	1
49	58	2
64	157	1
233	235	1
109	176	1
9	96	1
9	20	1
11	97	1
8	60	1
63	175	1
63	72	1
65	65	2
232	239	1
7	28	1
109	109	1
207	229	1
14	34	1
128	192	1
3	60	1
33	35	1
130	131	1
208	209	1
134	136	1
75	78	2
63	172	1
143	152	1
241	242	1
74	79	1
8	92	1
50	51	1
66	67	1
178	178	1
0	221	1
