131	132	2
92	93	6
58	123	1
75	75	12
124	124	8
107	108	7
122	122	7
77	77	7
114	114	8
41	41	8
87	88	4
103	103	3
39	39	19
32	32	5
95	112	1
45	45	9
99	113	1
49	51	3
112	112	13
62	95	1
104	104	9
16	46	5
13	13	4
68	73	2
116	128	1
0	0	7
25	25	5
76	80	3
50	50	15
5	5	8
44	44	3
105	106	4
60	63	4
107	130	4
20	101	3
20	20	10
82	82	5
18	18	14
120	121	3
88	88	8
68	70	2
119	119	12
75	76	2
109	109	3
131	131	13
100	108	1
92	92	4
3	5	2
6	6	3
67	67	14
79	79	11
65	65	11
16	17	7
130	132	2
26	26	10
21	33	1
86	87	2
85	85	3
115	116	1
95	95	9
2	2	7
126	126	9
55	55	12
74	74	3
47	47	10
7	32	3
89	89	6
128	128	9
16	16	2
56	56	2
42	43	6
57	57	11
8	34	4
84	85	5
49	49	11
118	118	14
31	32	4
66	69	3
84	84	8
114	116	2
125	133	5
96	96	4
99	102	1
3	4	9
81	81	13
130	130	5
5	18	2
89	123	3
33	33	7
17	17	3
83	87	3
43	43	5
19	19	5
83	83	9
22	22	1
14	14	6
23	24	5
14	15	2
87	87	5
48	48	5
38	38	8
98	115	3
60	99	1
42	42	13
106	106	7
96	98	1
102	102	6
100	100	7
121	121	12
63	63	10
29	30	2
99	103	2
1	1	2
28	30	2
53	53	6
60	61	2
86	86	6
22	23	1
62	62	3
91	92	2
94	95	1
123	123	2
27	27	8
59	60	1
106	107	2
69	69	5
90	90	5
97	97	11
21	22	5
15	61	1
76	76	3
116	116	5
97	98	3
107	107	7
83	84	3
29	29	11
108	108	9
64	64	9
101	101	4
83	85	2
80	81	3
123	125	1
66	66	4
101	102	4
8	8	9
79	80	1
66	67	4
39	44	1
47	52	1
1	2	2
41	42	6
114	118	3
63	74	2
100	104	1
60	95	5
26	122	1
12	13	4
43	45	1
61	61	4
80	80	7
71	71	3
77	78	2
125	125	5
52	52	5
72	72	3
15	15	2
70	70	10
74	91	2
94	94	2
96	112	2
45	46	1
12	12	9
24	24	5
98	113	1
65	69	1
96	116	3
79	87	1
107	117	2
115	115	8
28	48	1
71	72	4
97	107	1
25	26	2
132	132	4
33	34	2
51	51	9
120	120	1
113	114	2
65	66	2
54	54	3
8	32	1
11	12	4
60	60	5
74	75	2
73	91	3
105	105	2
7	8	2
38	111	2
2	11	2
73	74	1
99	100	4
102	103	2
10	10	11
54	69	1
3	3	5
115	129	3
63	107	2
21	21	8
28	28	3
99	101	1
3	16	1
62	63	1
53	58	2
95	106	1
76	92	1
129	129	5
68	68	1
114	115	1
111	111	5
45	55	1
20	26	1
116	117	1
2	7	2
112	113	1
104	106	4
107	129	3
29	66	1
9	10	2
24	98	1
39	59	3
4	4	3
18	101	1
48	67	1
19	96	1
117	117	3
60	91	2
9	9	5
100	128	1
8	9	2
13	14	3
62	65	1
68	122	2
81	101	1
11	11	2
103	106	1
44	62	1
99	99	1
1	69	1
72	76	1
33	128	1
42	45	2
117	128	1
40	54	1
13	98	1
93	93	3
27	122	1
20	60	2
97	115	1
73	73	2
10	12	1
121	124	1
58	110	1
65	126	1
23	108	1
121	123	1
40	40	1
1	9	1
113	129	1
7	7	1
127	127	2
68	74	2
69	71	1
126	133	1
133	133	4
4	6	1
92	125	3
118	119	2
78	78	2
82	83	1
60	62	3
46	47	1
25	50	3
111	112	1
118	128	1
34	34	1
69	122	1
110	110	2
71	88	1
93	96	1
17	19	1
29	50	1
123	124	1
105	131	2
46	46	1
102	104	2
82	100	1
100	101	1
124	125	1
16	18	1
119	120	1
2	13	1
40	42	1
1	31	1
98	99	1
16	25	1
47	53	1
96	111	1
116	120	1
19	59	1
66	90	1
56	63	1
15	59	2
