79	80	5
102	102	2
104	104	6
125	125	3
2	3	3
78	80	1
95	96	6
119	119	12
111	111	6
30	33	1
10	10	5
6	6	5
118	122	1
110	110	3
93	94	2
130	133	4
110	111	3
35	48	4
87	96	1
98	98	5
109	121	2
59	59	4
86	87	3
93	93	4
12	12	3
90	91	5
86	86	11
62	62	20
45	45	3
120	127	7
125	126	3
127	127	5
132	132	8
117	118	6
71	71	6
23	23	2
44	44	2
44	45	1
56	56	3
43	43	6
89	105	2
120	120	8
98	99	5
64	65	1
123	123	10
82	123	7
113	114	2
4	4	2
15	17	3
26	26	2
54	56	2
101	101	14
61	106	3
130	130	5
82	106	7
80	103	1
95	95	3
83	83	3
4	5	1
85	96	2
85	85	5
89	90	4
96	96	5
17	17	7
64	81	4
109	110	6
25	25	6
77	98	1
114	114	13
53	64	6
125	132	1
57	58	8
117	119	1
109	114	4
92	92	1
27	27	7
130	131	4
68	69	1
121	121	5
74	74	1
71	72	6
83	118	2
108	109	3
52	55	3
62	63	2
107	108	1
6	9	1
54	54	1
113	113	5
48	48	3
64	64	4
115	115	4
52	52	3
1	1	4
117	117	7
49	125	2
126	133	1
50	54	1
1	2	4
114	121	1
74	75	1
91	91	7
82	84	3
18	18	1
60	60	1
72	72	3
35	35	1
65	68	3
105	105	7
57	57	2
124	124	6
47	47	3
12	13	2
90	90	3
61	108	4
79	122	3
103	103	3
59	60	1
67	67	8
116	116	2
61	105	1
133	133	5
54	130	1
106	106	6
87	87	4
56	57	1
83	84	3
78	78	9
100	101	3
79	79	5
63	64	1
69	69	3
66	66	4
59	100	1
28	28	2
54	55	5
108	108	3
37	37	4
125	133	7
75	79	2
119	120	8
65	95	1
129	129	3
65	65	4
55	55	1
131	131	3
119	121	2
49	49	6
94	94	2
97	97	2
75	75	5
80	80	9
78	122	2
77	77	3
13	16	1
79	96	2
80	94	1
82	87	4
122	122	2
68	68	1
76	76	4
126	127	1
83	85	1
58	122	1
87	88	1
128	129	1
126	126	2
83	106	3
71	73	2
76	77	1
66	98	2
75	125	1
58	58	1
53	54	1
58	59	1
100	100	2
112	112	4
135	135	1
57	122	2
83	98	1
61	122	1
16	16	2
66	86	1
24	24	2
67	117	2
3	3	2
33	33	1
80	97	1
62	83	1
128	128	4
90	93	1
68	101	6
134	134	2
78	106	1
99	99	2
0	1	1
109	109	2
71	104	1
78	84	1
7	8	1
70	70	1
13	13	1
113	122	1
73	74	1
77	79	1
53	53	1
60	100	1
88	91	1
130	132	1
8	8	1
21	21	1
61	61	1
114	115	1
107	107	1
82	82	1
16	92	1
88	88	1
105	108	1
