19	19	14
127	127	7
81	81	14
38	38	11
90	90	7
87	87	7
103	103	7
77	78	2
108	108	10
131	136	1
21	21	11
106	106	13
137	141	3
111	131	4
133	133	9
139	139	6
59	59	4
38	39	11
143	143	1
105	106	4
68	68	4
73	75	5
86	109	6
35	43	4
120	121	5
33	34	2
61	61	13
104	104	12
127	129	3
87	108	2
57	57	8
75	75	13
133	136	1
94	94	7
82	84	7
69	69	6
121	121	8
61	105	3
137	138	2
1	91	2
112	112	3
6	48	2
114	114	14
74	74	10
123	124	3
120	120	3
68	89	1
8	28	1
122	122	5
22	23	3
37	37	8
53	53	6
39	135	3
124	143	1
23	23	7
40	41	5
25	30	1
25	31	1
134	134	16
105	107	3
137	139	5
110	110	20
73	73	7
64	85	3
3	93	3
33	33	10
36	37	8
28	29	2
70	70	6
127	130	9
13	47	4
109	130	5
134	139	2
89	90	8
12	12	2
130	131	7
95	131	4
53	91	1
48	48	2
138	138	11
101	101	3
129	129	3
113	134	5
53	54	6
40	40	5
25	25	6
86	86	3
71	71	7
65	89	2
31	31	4
136	138	3
32	32	18
115	115	4
143	144	2
43	43	3
113	113	9
82	82	3
89	91	1
62	62	5
126	126	11
2	3	4
89	89	9
56	57	2
53	90	1
91	91	18
116	116	4
92	92	1
79	79	7
64	64	6
58	106	1
76	80	4
97	106	3
100	100	8
77	77	4
10	11	2
64	88	3
39	40	1
68	73	3
53	67	2
72	86	2
80	80	11
42	42	13
61	95	2
67	67	6
76	77	1
9	10	3
50	94	3
10	10	2
50	51	4
28	28	10
4	6	2
116	117	2
135	136	8
134	137	2
70	72	4
30	124	3
35	35	4
141	141	6
22	22	3
34	37	1
30	32	4
99	99	9
8	36	2
134	135	5
128	128	14
65	66	1
102	104	1
113	115	2
124	124	13
51	52	3
98	98	9
132	132	10
13	49	3
85	86	2
131	133	2
122	123	9
25	27	2
63	63	6
72	72	1
76	76	2
118	119	6
123	123	5
131	131	11
3	4	4
132	135	2
62	63	5
25	26	7
1	142	1
95	95	8
117	117	6
3	3	4
60	83	3
4	35	4
46	47	1
20	25	2
66	66	6
70	71	6
102	102	8
125	125	5
136	137	3
50	50	2
54	130	2
58	63	1
129	130	7
75	76	2
4	57	2
124	125	2
77	79	3
35	36	3
95	100	2
21	40	1
114	116	1
121	139	1
97	98	5
103	107	1
34	34	4
3	55	3
117	118	5
140	140	10
39	39	9
29	29	8
24	24	5
119	119	16
109	109	8
85	85	3
64	139	6
136	136	14
139	140	4
96	97	3
62	108	1
52	56	3
105	105	2
27	28	4
115	116	5
135	135	6
36	36	1
26	26	6
120	138	4
8	8	8
116	118	2
71	72	4
20	20	8
133	135	4
4	56	5
123	132	2
0	0	1
58	62	5
130	130	10
144	144	5
119	120	5
1	1	7
98	107	3
102	103	3
50	130	1
0	144	1
55	55	5
125	126	5
111	112	3
120	125	3
18	19	3
109	129	1
114	115	1
38	102	2
121	138	1
61	100	3
103	104	2
33	36	3
1	2	3
95	111	3
18	18	8
47	51	1
56	56	12
69	78	3
93	108	1
138	139	3
110	134	2
98	120	7
97	97	10
83	83	4
49	49	10
24	34	2
80	81	2
72	73	1
13	34	3
63	95	2
29	30	4
48	55	1
111	111	3
115	118	1
85	109	4
54	55	8
137	137	9
31	33	2
53	56	1
88	139	2
41	119	1
132	136	3
133	137	2
142	142	1
1	141	1
110	113	3
69	70	4
55	56	1
121	122	2
90	109	2
23	24	2
8	9	1
106	107	1
87	89	1
52	127	1
52	95	1
24	26	4
120	123	1
50	55	1
12	96	4
18	37	1
113	136	2
47	48	4
21	63	3
145	145	4
60	60	7
109	110	3
2	36	3
47	47	2
135	140	5
93	94	3
132	133	3
22	64	2
117	120	1
32	129	2
67	72	2
118	122	1
59	101	1
59	100	2
99	116	1
52	52	1
17	17	2
31	32	5
118	118	6
15	53	1
12	13	1
10	18	2
140	141	3
88	88	2
21	47	1
5	5	6
124	135	1
77	85	2
100	101	1
96	125	1
134	136	1
116	127	1
76	86	2
78	78	1
136	140	2
41	41	2
32	51	2
54	54	2
23	34	3
23	27	2
93	93	3
132	134	3
134	140	1
114	120	1
82	106	2
99	118	2
61	62	2
127	131	3
16	16	1
70	75	1
121	140	1
27	27	2
36	133	1
10	17	1
113	128	2
109	111	1
104	105	1
59	60	4
88	92	1
126	132	2
57	88	1
41	142	1
99	100	5
87	107	1
89	139	1
16	17	2
2	2	2
111	118	1
128	129	2
54	64	1
26	31	1
13	51	2
107	109	2
14	18	1
66	82	3
4	5	2
30	42	3
23	146	2
84	84	2
14	15	1
12	48	1
88	94	1
106	108	2
74	93	2
119	123	1
21	33	1
13	15	1
113	124	1
39	41	1
69	71	2
56	105	1
35	40	1
19	28	2
126	128	2
14	43	1
58	100	1
53	55	1
66	78	1
113	117	1
58	58	2
13	21	1
146	146	1
65	85	2
115	119	1
4	4	2
118	120	1
38	135	2
69	76	1
107	107	2
64	68	1
87	88	1
72	88	1
5	35	1
8	19	1
94	97	1
67	68	1
113	114	1
19	21	1
94	95	1
53	128	3
15	17	1
6	6	1
2	35	2
30	30	2
141	142	1
92	94	1
13	13	2
40	129	1
2	4	1
119	125	1
48	56	3
132	137	1
55	100	1
92	93	1
128	131	1
38	41	1
74	75	1
79	82	1
60	61	1
124	141	1
9	9	1
64	108	1
15	15	1
34	35	1
20	26	1
19	20	1
37	38	1
51	95	1
127	128	1
