44	85	2
77	77	14
64	64	13
49	63	3
85	101	3
91	91	26
43	75	4
73	74	6
94	94	4
92	93	3
69	69	7
27	27	6
95	98	3
40	56	5
28	28	6
74	74	10
93	94	2
88	88	35
93	93	17
51	51	11
90	90	16
68	68	18
22	22	10
47	47	19
73	73	20
39	40	4
49	49	5
40	59	2
92	94	4
50	56	2
46	60	1
53	61	6
83	83	18
66	66	15
25	26	8
99	99	24
60	60	13
85	85	15
54	55	7
38	53	3
100	100	9
31	33	1
97	97	12
23	23	5
47	48	7
44	50	2
34	39	3
72	72	15
81	81	15
53	54	1
65	65	16
100	101	18
62	62	4
42	56	1
85	86	4
72	73	3
42	44	2
46	46	19
36	59	5
71	72	8
61	61	23
70	70	14
75	75	7
58	59	9
67	69	2
58	58	13
22	23	3
36	37	6
101	101	8
55	55	6
52	52	20
80	81	5
29	30	8
40	40	7
33	33	5
79	79	17
78	78	3
86	87	2
65	76	3
92	92	12
57	57	9
83	98	1
65	67	2
39	39	15
45	45	7
67	67	15
88	93	2
63	85	3
95	95	7
72	76	3
59	59	4
63	78	3
25	25	12
58	91	5
94	98	4
46	47	11
86	93	2
68	69	2
61	62	7
42	42	24
24	24	6
46	54	1
35	52	3
33	59	3
86	88	3
32	36	1
45	80	1
43	44	11
50	50	3
34	34	2
26	26	5
86	89	2
54	98	1
44	45	2
98	99	2
45	63	5
47	49	4
102	102	3
64	78	3
96	98	5
60	80	7
35	35	6
98	98	16
80	80	10
38	38	4
53	60	3
61	79	3
56	71	3
87	88	8
81	82	5
54	54	10
34	56	5
37	53	2
97	100	1
46	61	2
93	95	5
31	39	1
67	68	2
63	63	10
49	81	6
43	43	10
30	30	1
91	93	3
31	57	1
51	83	2
70	90	1
97	98	6
40	65	7
42	43	1
84	84	9
76	76	8
50	51	4
99	101	1
76	77	7
86	86	7
91	102	1
23	24	1
48	48	5
83	84	4
50	64	1
44	44	4
41	41	11
34	48	2
44	64	2
48	49	2
57	58	5
36	102	3
83	102	3
53	53	14
35	37	2
37	38	2
36	53	1
41	57	4
49	50	6
36	36	3
48	81	1
56	59	2
75	76	4
87	87	4
56	56	4
34	45	3
24	27	6
63	101	3
46	100	4
45	52	4
69	70	1
45	101	2
38	54	1
37	46	3
31	36	1
51	97	3
29	29	6
70	71	3
38	39	2
49	99	5
33	55	2
96	97	6
88	89	2
65	72	2
66	69	3
28	33	3
55	56	3
71	71	4
31	31	4
45	60	1
55	86	2
55	98	4
74	75	4
61	80	4
92	95	2
87	98	3
52	62	1
61	81	4
48	58	2
51	52	2
77	78	1
89	89	7
22	27	1
28	34	1
87	94	1
85	92	1
23	39	1
99	100	4
72	74	2
66	70	1
86	97	1
66	76	1
25	38	1
48	62	1
88	97	2
32	33	1
96	99	2
28	31	1
60	63	2
82	82	1
89	90	2
35	36	2
58	62	4
73	76	1
31	35	2
47	61	2
29	38	1
71	74	2
33	38	1
70	72	1
47	50	7
101	102	2
56	57	1
91	92	1
45	48	1
96	96	3
31	38	2
41	43	1
38	58	2
22	24	1
66	67	3
34	35	1
22	28	1
34	50	1
33	39	1
50	91	1
60	94	1
20	22	1
45	102	1
45	46	1
55	97	1
34	52	1
