82	82	6
43	43	14
34	39	2
40	40	7
52	72	1
89	89	18
54	63	3
34	34	7
64	90	2
91	91	16
100	100	20
28	29	3
64	64	15
70	70	23
41	42	7
42	43	6
20	22	4
50	69	2
67	67	18
60	60	18
38	46	3
93	94	8
80	81	12
44	44	18
55	55	19
41	41	44
87	88	13
56	56	20
33	33	23
57	58	2
77	77	22
63	64	8
92	92	13
62	63	4
85	86	7
87	87	10
42	42	14
83	83	10
47	48	16
86	86	22
46	48	8
39	39	16
37	89	2
35	37	10
69	69	16
76	77	5
70	71	4
60	61	10
57	57	15
38	38	12
73	74	5
63	63	20
26	26	8
37	39	3
90	90	13
48	48	17
52	52	17
58	58	16
73	76	1
79	79	14
85	85	7
81	82	7
101	102	7
51	51	7
80	80	7
50	101	2
47	47	17
76	76	11
75	75	16
45	45	16
100	101	2
50	50	13
37	37	8
59	59	15
99	99	13
68	69	15
55	61	1
97	97	10
61	61	16
73	73	16
77	78	9
66	66	10
53	56	4
74	74	11
46	94	4
49	49	15
96	96	19
96	98	6
62	62	21
78	78	16
53	54	13
44	69	1
94	94	8
34	62	2
22	22	4
74	77	8
46	46	17
24	26	4
96	101	2
95	96	7
81	91	1
20	24	2
79	80	7
72	72	31
78	79	2
89	90	7
87	89	3
38	39	1
53	55	4
24	25	8
70	72	8
58	59	7
56	57	3
45	51	1
31	31	6
76	78	3
88	88	8
21	22	5
90	91	3
93	93	14
68	68	10
65	65	15
40	41	3
68	71	2
54	54	7
96	97	7
79	81	1
74	96	3
55	56	4
69	71	3
78	85	2
32	33	4
50	51	5
102	102	7
84	84	6
58	61	2
24	32	2
48	102	2
23	24	1
94	95	5
54	55	8
25	27	3
45	48	3
81	81	10
51	55	5
91	93	7
84	100	1
35	38	3
81	98	2
83	101	2
95	95	7
94	100	4
86	87	4
33	37	5
37	61	1
75	76	4
25	55	2
37	38	9
91	94	1
53	53	7
81	95	1
65	76	2
46	49	1
46	47	8
49	50	10
45	64	1
54	61	1
65	66	8
36	37	8
64	69	3
83	84	2
48	63	4
25	25	7
37	88	2
77	90	2
81	96	5
90	99	6
69	70	6
71	72	3
45	46	2
30	30	2
53	61	1
26	27	7
74	75	9
88	94	4
35	35	3
29	29	2
68	77	2
98	99	4
51	52	4
27	27	5
54	62	1
65	67	2
61	81	2
72	73	5
23	29	4
39	40	3
64	65	4
100	102	1
73	75	2
85	98	3
45	50	1
66	78	2
35	39	1
71	71	3
51	58	2
92	93	4
24	24	2
37	90	1
28	28	3
52	58	2
58	60	3
56	58	1
41	72	1
96	100	3
74	76	2
73	77	1
98	98	3
60	92	1
33	54	1
46	93	1
99	102	1
48	50	1
39	71	2
52	59	2
36	36	2
44	45	2
97	98	2
47	50	3
84	101	1
38	93	1
32	32	2
93	96	1
60	78	1
91	92	6
85	90	2
67	69	1
88	92	3
94	96	1
39	48	1
78	91	1
49	101	3
48	49	1
28	32	1
54	60	1
93	98	1
25	26	2
72	75	2
29	31	3
66	69	1
34	35	2
95	99	1
64	89	2
82	97	1
45	47	1
59	60	1
25	53	1
94	98	2
66	77	1
99	101	1
41	51	2
81	87	1
64	72	1
84	86	1
31	32	1
34	37	1
67	68	2
53	60	2
79	99	1
34	59	1
92	97	1
35	36	2
23	23	1
63	89	1
49	54	1
58	90	1
61	62	2
