73	73	8
3	3	6
94	95	2
68	68	10
78	79	4
56	56	5
95	97	3
17	17	3
96	96	4
13	13	5
133	133	3
35	35	9
59	59	2
74	74	3
20	24	3
47	48	7
66	66	8
92	92	19
102	102	4
16	17	6
15	16	7
40	41	8
19	74	2
15	20	3
132	134	1
90	90	8
48	48	3
109	110	6
79	80	5
134	134	1
45	45	6
62	62	10
78	78	6
12	61	6
21	21	6
24	24	3
22	26	2
132	132	2
28	28	3
18	18	4
82	84	3
99	99	10
22	22	1
4	4	4
127	128	3
94	94	7
5	5	12
119	120	3
87	87	3
91	91	1
91	101	3
9	9	5
49	99	3
28	29	9
47	47	4
64	64	4
23	23	3
66	97	1
13	17	3
125	125	6
41	41	5
21	59	5
112	112	3
7	7	7
61	61	9
79	79	3
82	82	7
8	8	9
85	102	1
84	86	3
20	20	3
119	119	4
48	93	2
129	130	2
75	83	1
3	8	4
38	41	1
62	72	2
63	63	10
75	77	7
48	49	3
93	93	4
46	72	1
91	96	3
129	129	5
62	70	2
72	73	2
39	40	3
15	15	2
71	72	3
33	33	5
126	129	3
12	12	10
19	20	4
41	84	5
108	108	4
27	27	4
4	5	4
27	29	5
105	106	2
15	19	2
112	113	5
96	98	4
5	57	4
11	70	1
70	71	3
32	32	8
66	67	4
79	82	4
13	27	3
17	18	1
14	14	7
31	32	1
5	6	5
98	98	3
95	95	7
57	58	4
36	44	2
71	71	4
90	91	4
77	77	6
120	121	2
114	124	1
86	93	2
98	99	2
40	40	2
6	21	1
60	60	6
120	120	4
76	80	1
11	11	8
48	50	5
11	12	2
19	19	3
43	43	6
38	38	3
114	116	2
57	59	1
128	130	3
48	60	2
67	68	2
30	30	5
28	48	1
29	32	1
37	57	1
47	72	1
27	28	2
107	108	3
12	18	1
40	100	2
83	83	4
100	101	3
88	88	4
46	47	2
122	122	4
92	94	2
41	51	5
0	64	2
19	23	2
100	100	1
127	127	3
67	67	1
62	85	3
44	45	1
111	111	3
85	85	3
63	75	3
76	76	2
117	119	1
81	81	1
116	116	4
1	2	4
16	16	4
104	118	1
86	86	3
84	84	4
27	95	5
59	83	3
22	37	1
42	42	3
70	70	5
109	109	1
48	91	1
29	30	5
69	69	5
77	80	1
34	34	11
123	123	4
29	29	3
65	65	6
10	11	9
106	127	1
97	97	2
92	95	4
37	38	1
130	130	2
61	75	3
95	98	3
79	81	4
42	43	3
27	96	1
85	86	1
33	34	7
14	18	5
90	92	2
44	93	1
34	35	2
64	74	2
104	104	6
112	125	1
12	13	1
80	82	1
110	110	11
46	46	2
77	82	3
131	131	4
128	128	2
9	65	4
8	18	3
113	126	1
114	115	1
47	62	1
123	124	2
10	10	1
36	36	2
59	60	1
88	101	3
3	101	3
2	2	3
131	132	3
96	100	2
8	9	1
107	126	1
106	115	1
87	88	1
118	118	2
27	90	2
26	27	4
25	25	3
58	59	2
126	131	1
74	75	2
101	101	3
99	107	1
115	116	2
60	62	1
80	80	2
25	26	3
31	94	1
13	14	1
124	124	1
115	115	1
23	26	1
126	127	1
114	121	2
84	85	2
20	42	1
125	126	1
95	96	1
37	37	1
104	106	2
63	64	2
46	62	1
41	55	2
126	126	3
101	102	4
85	101	2
75	76	1
121	122	2
56	60	2
49	49	1
72	72	1
70	78	2
45	60	2
29	47	1
22	33	1
8	35	1
75	75	2
96	97	1
93	94	1
105	111	1
27	78	1
48	61	1
44	62	1
45	93	1
15	17	1
126	130	1
6	6	2
107	107	1
32	33	2
113	116	1
106	106	1
9	23	1
126	133	1
62	63	1
