105	105	1
152	152	3
52	52	5
39	39	1
121	121	4
98	98	2
87	87	3
56	56	1
31	31	6
5	5	2
56	70	3
27	27	1
142	142	6
45	46	1
106	106	4
70	71	2
136	136	3
7	19	1
8	30	1
131	131	6
86	86	4
31	32	2
37	37	7
13	71	3
29	29	7
81	82	3
117	120	2
78	79	1
57	57	2
107	107	3
7	31	2
148	148	6
106	157	3
13	17	1
12	18	2
101	101	7
79	122	2
147	147	1
137	137	6
95	136	2
109	109	4
52	89	3
129	139	2
122	123	2
102	151	3
150	150	3
34	34	5
97	154	8
98	128	2
35	35	4
52	88	1
104	104	2
147	148	1
83	83	2
139	139	2
17	18	2
107	109	1
125	125	2
100	100	3
87	151	2
94	95	4
106	107	1
86	93	2
132	132	3
65	65	7
44	44	3
13	14	1
111	114	2
22	39	3
71	71	4
108	109	2
93	93	8
85	95	4
21	21	1
49	49	1
76	116	2
134	134	1
148	149	1
10	11	3
8	36	1
8	9	2
102	102	2
126	126	3
96	154	3
95	95	1
23	23	1
146	146	5
67	67	5
128	128	7
24	24	1
119	119	3
23	41	3
135	135	2
110	151	1
92	92	2
51	51	2
56	63	1
63	63	2
120	120	3
81	81	1
53	89	3
1	1	2
111	112	3
23	24	3
124	147	2
36	36	1
52	53	1
105	146	2
122	124	1
14	14	4
67	68	1
3	13	1
149	149	1
88	89	2
96	96	1
2	2	5
63	134	1
6	6	1
136	139	4
11	43	2
91	134	2
8	8	2
16	40	4
123	127	1
32	33	1
76	76	2
40	42	1
41	41	3
38	38	5
148	150	1
3	3	4
42	43	3
86	142	2
25	26	1
88	95	1
115	115	3
15	16	1
26	26	2
97	97	1
77	77	1
19	20	1
54	54	1
12	13	1
157	157	1
35	36	1
30	30	1
124	124	2
88	88	1
88	131	1
9	131	1
109	114	1
32	115	1
99	99	1
151	156	3
116	152	2
104	144	1
138	138	3
53	53	4
13	13	2
112	155	1
113	113	3
106	144	1
18	18	2
48	49	2
88	103	2
0	57	1
15	15	1
11	11	1
133	133	1
105	106	1
112	121	2
2	93	1
75	76	1
121	122	1
18	19	1
9	30	1
66	158	1
85	89	1
29	148	2
4	4	1
69	71	2
117	117	1
99	100	1
103	104	1
110	110	1
84	84	1
79	121	1
84	87	1
83	93	1
151	151	2
118	118	2
77	79	1
77	78	1
87	155	1
28	40	1
140	140	1
35	148	1
