68	69	1
59	60	5
138	138	6
72	72	8
101	128	2
62	62	4
132	132	10
12	16	1
126	127	3
130	130	13
12	12	4
40	40	10
120	120	7
17	17	4
70	70	2
76	123	2
59	126	5
142	142	4
0	0	4
96	96	4
124	124	2
104	104	7
66	66	8
135	136	6
97	97	13
72	116	3
126	126	6
125	128	1
22	22	6
36	37	3
96	97	2
9	9	6
35	35	1
134	134	9
31	31	7
64	64	9
87	88	2
97	132	1
37	38	5
67	67	1
33	43	2
28	28	9
123	134	2
20	20	4
111	111	3
91	91	4
92	93	3
90	129	2
117	117	7
2	21	2
125	125	3
82	82	3
2	3	7
32	32	6
125	126	4
105	106	1
141	142	2
18	18	6
58	97	1
0	1	5
128	128	9
66	67	9
25	25	3
108	108	4
73	73	7
141	141	5
94	101	3
75	75	4
131	131	9
2	123	6
1	1	6
68	133	1
67	106	2
116	116	6
49	103	2
129	130	2
89	89	2
144	144	8
84	84	6
27	27	5
83	84	4
68	74	1
93	93	2
105	105	5
8	8	2
20	21	8
114	114	3
50	52	3
42	42	4
67	73	2
52	52	3
133	133	9
78	114	3
142	144	2
85	85	3
40	41	3
89	95	2
129	129	5
49	50	5
53	60	2
69	130	4
87	87	4
72	73	5
104	117	2
33	127	1
57	112	1
122	123	3
134	135	5
57	57	8
135	135	1
15	15	11
88	131	5
92	110	1
98	98	5
51	51	1
127	127	4
6	6	5
71	116	3
60	60	3
69	71	1
77	78	3
84	115	1
86	112	2
75	141	1
69	69	1
130	131	3
70	71	6
90	118	1
19	19	4
88	95	2
27	28	1
92	94	5
78	82	1
17	19	4
76	86	3
72	74	1
97	98	4
58	59	2
50	51	2
102	102	5
76	76	2
59	59	8
15	22	2
90	130	1
34	34	2
51	52	1
43	43	5
53	118	3
115	115	2
77	126	2
71	72	2
69	77	3
119	119	6
56	68	2
69	70	3
103	103	3
92	98	1
55	55	6
55	56	2
123	123	1
2	41	1
140	140	5
53	54	5
5	5	4
53	53	3
103	107	2
6	31	2
121	121	5
118	118	4
63	63	2
66	109	3
136	136	4
83	115	4
16	16	4
50	50	4
38	38	8
92	92	5
56	56	9
107	107	6
113	113	6
11	11	8
54	113	1
55	64	1
91	129	2
76	105	2
57	103	1
93	94	3
23	24	2
90	90	1
33	33	1
14	14	6
110	110	1
109	109	7
29	30	1
128	132	2
3	3	2
107	112	2
82	106	1
94	94	2
142	143	1
134	136	2
13	13	2
53	130	1
71	71	3
95	112	1
95	95	4
75	78	1
77	86	2
55	62	3
78	121	1
80	80	2
139	139	2
102	103	1
84	130	2
91	101	2
56	93	2
143	144	1
122	124	2
82	83	1
23	23	4
2	9	1
132	133	3
59	96	1
122	132	2
63	64	5
137	137	6
37	37	2
47	47	2
74	74	3
81	125	2
143	143	2
99	129	1
104	105	2
61	61	4
145	145	1
48	89	1
57	58	4
29	29	5
30	30	5
30	31	1
21	21	1
54	54	7
136	138	1
58	98	3
100	100	3
15	135	1
60	61	1
131	133	5
4	4	7
38	48	1
101	102	3
10	10	1
6	33	4
113	128	1
10	16	1
18	19	5
136	137	1
73	74	1
80	99	2
130	141	1
91	110	1
146	146	2
127	129	2
35	36	2
122	122	2
135	144	1
80	81	2
53	119	4
61	62	3
96	142	1
80	84	1
139	140	1
13	14	1
117	127	1
17	18	2
2	20	1
62	63	1
58	58	3
26	26	1
92	96	1
70	130	1
59	98	4
73	137	2
79	79	2
1	17	1
32	42	1
96	141	1
75	142	1
98	117	2
2	2	2
41	41	3
137	138	2
33	36	1
3	13	2
65	65	1
121	126	1
65	66	1
120	121	1
131	142	1
132	141	1
8	120	1
34	35	1
88	111	1
64	132	1
12	13	1
33	34	1
79	80	1
12	17	1
78	78	1
5	9	1
26	27	1
41	42	1
118	127	1
134	144	1
67	68	1
