13	13	11
2	2	7
87	88	4
52	52	29
23	24	17
60	60	20
22	22	19
128	131	6
36	36	14
137	139	6
140	141	15
40	40	16
69	69	19
28	28	26
127	129	3
102	102	15
109	109	20
32	32	10
134	134	39
126	126	24
16	16	20
11	11	11
84	84	13
89	89	14
93	98	2
141	141	36
2	3	5
72	72	15
71	71	26
24	24	23
100	122	1
41	41	21
95	97	4
97	97	6
39	42	2
25	26	9
65	65	29
57	88	2
125	125	22
118	118	21
117	117	21
62	110	3
63	66	5
97	98	13
123	123	33
61	61	15
92	92	10
73	75	5
29	100	5
124	130	3
17	17	7
93	94	14
127	128	13
67	68	6
64	65	13
6	6	10
135	136	17
138	138	16
121	121	37
5	5	24
58	59	14
135	135	24
68	81	2
136	138	10
79	81	10
105	107	13
82	82	13
132	132	27
144	144	13
9	10	17
96	97	11
133	138	3
61	62	8
20	20	16
4	5	5
31	31	19
39	57	2
126	129	3
11	17	2
68	68	13
95	95	6
53	53	18
118	120	13
125	130	6
112	129	2
108	108	10
56	56	5
129	130	9
18	34	6
111	113	4
139	140	18
100	100	6
122	132	4
136	136	20
59	59	15
89	101	3
128	128	24
1	1	6
122	123	16
19	135	2
19	19	15
141	142	3
117	118	14
62	63	6
73	105	1
99	100	11
124	124	21
69	102	4
102	103	9
106	106	18
119	119	20
57	60	6
12	12	8
142	142	19
53	54	17
120	120	11
145	145	11
17	27	5
121	122	11
105	106	7
31	33	7
25	25	26
17	22	1
38	91	3
35	60	2
131	132	10
64	111	6
35	37	1
51	51	21
74	75	5
111	111	20
12	13	8
115	115	12
63	63	21
87	87	13
62	62	12
133	133	21
126	127	12
139	139	14
86	114	4
35	36	18
104	122	2
14	14	17
29	29	14
73	73	14
58	58	19
26	26	13
97	100	5
104	104	10
131	136	2
80	121	3
87	90	8
47	47	12
88	141	2
54	55	6
59	61	8
20	141	3
131	131	27
125	128	3
37	37	11
74	74	14
40	129	2
21	27	4
82	124	4
67	123	2
26	144	4
103	103	11
9	11	2
133	136	8
75	106	1
66	83	4
122	131	2
136	137	18
27	27	12
54	54	13
109	131	5
66	67	13
78	79	1
53	86	2
58	61	4
89	91	3
15	15	23
56	57	6
17	25	5
33	36	12
12	15	6
20	26	2
34	34	19
20	77	3
104	131	2
8	9	9
21	26	6
57	57	12
39	39	11
133	135	1
107	107	24
130	130	18
49	49	9
104	120	3
10	129	6
78	87	2
18	19	12
75	89	3
105	105	27
103	104	3
19	51	5
0	0	2
143	143	11
23	72	1
34	65	6
53	55	8
8	10	8
137	138	9
50	114	3
81	82	2
136	140	5
105	117	6
71	87	1
22	27	2
60	61	2
146	146	5
113	117	4
85	87	2
37	38	4
132	133	7
35	43	1
23	23	20
123	124	4
76	107	2
37	66	1
114	114	9
30	42	4
57	59	5
15	16	11
21	21	14
73	74	3
55	59	4
112	113	3
55	55	9
74	93	4
53	115	2
100	101	12
39	55	1
113	113	10
133	134	9
111	130	2
42	129	1
35	35	12
134	136	3
137	137	10
42	90	4
95	96	5
55	100	3
43	43	7
34	35	11
120	121	4
38	38	15
25	29	3
19	134	3
83	84	2
20	27	6
43	47	2
50	52	9
83	128	3
57	58	10
26	143	6
118	119	29
91	94	4
112	117	3
81	89	3
21	22	1
80	81	4
127	127	10
104	129	2
134	135	22
8	125	3
91	91	9
3	5	1
9	9	17
113	135	2
83	83	11
105	130	2
63	83	7
10	33	8
30	30	15
24	73	1
96	96	13
65	91	1
31	52	1
85	85	3
8	25	4
68	96	2
24	26	1
9	12	4
109	111	3
99	99	10
138	140	2
3	3	13
92	95	5
26	72	5
142	143	7
119	120	16
91	92	8
59	60	12
69	140	6
70	70	12
8	8	20
125	127	5
85	86	11
114	116	5
88	90	3
70	71	3
20	21	8
18	119	4
58	116	2
74	127	6
59	115	5
57	112	1
106	109	1
78	94	4
136	139	1
42	42	9
67	67	9
50	50	3
110	110	5
20	22	3
65	66	8
129	129	15
107	112	5
22	94	4
81	81	3
2	4	3
101	103	6
47	51	3
69	71	1
52	111	1
33	123	6
34	36	3
123	140	6
74	103	2
17	28	1
104	105	5
90	90	10
0	27	1
48	48	6
64	64	20
21	140	3
4	4	7
55	62	1
89	90	3
116	116	12
101	102	18
88	88	3
74	76	5
76	94	3
28	29	4
88	89	3
145	146	3
84	114	2
52	123	1
25	28	2
143	144	6
92	96	2
106	131	4
40	41	7
67	69	5
48	124	2
140	140	14
71	73	5
127	130	12
120	136	2
47	52	6
19	113	1
82	129	1
100	121	4
27	28	3
31	34	4
80	124	4
6	10	1
86	115	1
125	129	2
107	117	1
10	10	13
41	126	4
3	13	1
69	70	1
71	72	4
5	115	3
14	16	2
2	6	2
94	94	3
2	5	4
16	134	1
66	90	2
50	93	2
8	29	2
51	93	1
112	112	1
137	142	2
104	107	2
108	109	6
49	121	1
5	6	3
77	77	5
38	41	3
79	80	5
72	105	1
36	65	1
84	87	4
79	95	1
10	34	4
63	65	1
3	4	3
80	80	3
49	78	2
13	111	1
113	114	4
126	128	1
115	118	3
82	87	2
63	109	2
132	134	3
76	76	4
53	93	4
6	58	2
128	129	1
115	116	6
77	78	4
90	91	5
49	50	6
129	131	1
98	99	3
114	115	9
4	14	3
19	77	5
5	108	4
42	49	3
66	66	7
75	77	2
98	98	3
13	37	1
16	34	4
33	35	3
92	94	4
76	97	4
64	86	1
114	117	5
105	108	1
66	109	7
59	110	3
29	126	1
30	31	2
39	54	3
18	18	5
10	93	2
38	58	3
30	132	1
72	74	1
113	116	3
42	107	1
98	101	1
135	138	1
122	122	11
124	125	5
116	117	7
59	62	4
82	126	1
27	144	5
144	145	3
75	75	6
111	112	1
112	132	2
71	74	5
41	42	4
4	112	3
131	141	2
131	134	3
53	91	2
51	52	3
107	108	1
47	57	2
2	37	3
33	34	4
5	110	3
17	26	1
82	86	4
132	139	1
68	122	3
93	97	1
24	25	3
32	33	2
125	126	3
1	9	1
99	121	1
102	104	1
109	110	5
133	141	1
36	37	3
13	34	1
78	78	3
106	107	6
33	47	1
76	78	8
22	23	1
87	89	3
10	91	2
65	108	2
142	144	1
77	87	1
42	43	2
37	58	2
6	24	1
10	11	3
31	35	3
55	56	2
29	52	1
0	25	1
29	99	1
53	66	3
62	66	6
64	66	1
108	131	2
30	91	1
81	118	3
47	65	2
81	120	1
62	84	1
6	19	1
19	28	1
67	94	1
49	51	3
101	101	4
25	139	1
18	29	2
49	52	3
15	23	1
138	141	2
39	41	2
63	91	2
84	85	7
59	90	1
41	78	3
94	100	3
67	95	3
42	57	1
107	132	2
37	48	2
138	139	6
26	139	1
122	139	3
124	140	2
0	1	2
58	60	1
48	49	4
50	60	1
11	119	1
94	98	1
79	79	7
0	8	1
38	39	1
137	140	4
42	50	1
31	47	3
26	27	3
0	145	1
6	48	2
32	49	1
96	99	4
9	122	2
53	58	1
82	85	3
77	93	1
86	104	1
33	59	2
96	98	1
50	116	1
77	88	2
13	16	2
109	135	1
112	114	2
32	34	3
12	33	1
110	111	7
85	129	1
11	43	2
58	89	1
3	47	1
68	90	1
63	106	2
33	33	3
56	59	1
27	141	1
72	96	2
91	97	3
72	73	1
106	120	2
134	138	2
36	129	2
82	88	2
49	82	1
117	120	1
11	42	1
13	43	3
70	89	1
65	109	1
30	65	1
118	121	1
114	124	1
16	18	2
113	118	1
17	23	1
117	143	1
74	88	1
28	146	1
128	141	1
71	135	1
64	106	1
98	100	1
104	127	1
64	107	1
82	83	3
117	136	1
131	133	2
135	137	1
112	134	1
14	15	2
18	134	1
62	107	1
66	107	1
1	39	1
19	52	1
133	139	1
12	31	1
124	132	1
80	119	1
65	68	1
16	17	1
54	87	2
68	92	1
80	97	1
124	129	1
51	85	1
73	83	1
6	11	1
55	58	2
48	52	2
126	130	1
8	123	1
2	10	1
85	115	1
48	69	1
75	94	1
50	51	2
69	81	1
17	134	1
124	146	3
87	115	1
9	132	2
63	64	1
48	55	1
5	9	1
113	136	1
53	85	1
85	128	1
30	34	1
73	129	1
19	20	1
24	31	1
36	43	1
39	40	1
65	117	1
