89	89	19
131	132	10
129	129	26
73	78	3
21	21	5
28	28	7
30	31	7
101	101	20
112	112	32
14	14	14
37	37	27
91	91	19
72	81	4
80	80	12
16	16	10
0	11	5
24	26	5
38	38	13
91	135	5
86	86	19
117	118	7
104	104	14
79	80	8
81	82	12
133	133	19
130	130	38
79	79	21
127	127	33
93	107	3
72	72	20
99	99	9
137	137	14
27	27	21
80	82	13
111	115	8
31	31	9
75	75	17
33	33	14
128	128	25
98	99	8
80	83	7
135	136	14
110	111	21
1	23	2
95	95	25
10	14	1
3	4	11
102	102	16
128	129	13
132	135	1
90	91	10
116	116	25
121	121	12
83	85	7
109	109	16
10	11	11
131	131	22
36	36	16
115	123	1
92	94	4
96	98	3
27	124	2
136	136	33
75	76	13
3	7	5
113	123	7
73	73	11
90	90	8
122	122	31
85	85	13
123	123	26
1	2	4
16	21	1
120	123	3
114	114	13
113	113	6
7	7	9
113	116	6
124	124	24
26	27	6
10	10	24
74	75	5
134	135	7
106	122	3
74	74	16
125	125	47
126	126	20
33	92	4
134	134	22
139	139	40
20	21	5
15	19	6
13	13	22
0	7	5
101	102	10
81	81	10
111	112	3
85	86	6
107	107	5
84	85	7
119	120	10
24	24	13
102	103	6
115	115	18
104	107	3
71	71	18
110	110	14
5	5	10
89	93	2
126	127	7
135	135	33
120	122	5
96	96	18
81	88	1
97	98	12
76	77	3
76	79	2
140	140	18
4	4	11
24	25	7
19	19	21
131	133	3
111	111	12
4	5	9
125	127	4
21	28	2
27	29	4
138	138	21
25	27	3
2	2	13
16	88	3
114	123	9
82	83	13
117	117	10
23	26	6
82	82	8
108	109	12
83	83	13
32	32	13
130	132	1
132	133	16
105	107	9
35	35	17
6	9	2
121	122	18
17	19	2
97	97	6
89	132	3
76	76	12
27	28	11
93	103	3
113	124	4
26	26	7
94	94	15
92	92	14
18	18	26
106	119	3
15	15	8
17	17	8
30	30	11
15	17	4
99	125	4
100	100	21
86	88	1
98	98	13
93	106	2
100	101	5
84	122	1
0	1	6
103	120	2
116	117	6
119	119	7
36	37	2
34	34	19
120	120	19
128	132	2
94	96	3
124	126	3
75	100	3
93	93	7
110	121	2
110	115	1
88	88	7
29	29	10
111	113	2
10	13	4
17	18	4
21	25	2
118	119	9
105	105	8
75	77	6
25	25	11
27	37	3
77	78	4
13	18	2
74	76	3
112	113	8
132	132	34
23	24	6
120	121	4
2	4	6
93	94	7
73	76	2
114	115	10
8	14	2
84	109	2
109	115	4
29	32	6
32	33	1
5	6	3
106	106	13
90	94	2
0	9	3
138	139	3
127	128	10
129	130	13
118	118	15
83	84	8
34	35	1
103	103	9
87	87	20
119	121	5
14	26	2
72	76	2
108	108	6
82	92	5
108	122	3
3	3	9
123	124	7
1	1	5
77	77	7
71	73	1
78	79	7
23	23	8
78	78	9
102	108	5
28	29	6
72	73	5
6	6	12
12	12	9
11	21	3
130	131	5
135	137	4
94	106	4
135	139	1
117	123	5
27	31	2
37	38	3
104	115	1
18	123	2
0	22	2
15	16	2
124	127	1
25	26	11
114	116	2
28	30	6
115	116	2
96	97	6
101	104	1
99	100	2
11	23	2
10	16	4
7	10	1
136	138	1
103	104	4
80	85	2
0	0	12
29	102	1
88	130	2
102	104	2
18	20	2
90	134	3
2	6	4
1	9	1
78	80	4
105	113	4
92	95	4
9	9	19
89	95	4
106	120	5
91	99	2
91	95	3
6	7	5
105	106	3
73	102	1
104	105	6
139	140	8
99	101	1
101	124	4
101	103	1
77	82	1
108	120	1
33	34	7
122	123	3
26	30	3
79	84	1
33	35	2
27	30	4
105	122	2
76	84	2
13	14	3
89	90	2
112	123	5
8	12	6
17	20	3
114	121	1
76	102	1
106	107	7
20	20	6
19	20	7
116	118	2
29	30	6
20	23	1
32	91	3
35	36	3
118	120	1
21	22	3
81	83	2
3	17	2
133	134	3
95	115	6
80	81	1
124	125	6
111	114	3
6	8	1
99	124	1
75	103	1
104	106	1
13	15	1
104	109	3
0	10	2
20	88	1
84	84	8
108	116	1
26	32	1
68	108	1
117	127	2
74	102	2
107	121	2
15	18	5
8	8	10
117	119	1
9	78	3
22	22	2
14	15	1
11	12	4
85	87	1
82	85	1
1	22	2
31	33	1
87	88	3
4	18	2
125	126	4
79	110	1
88	89	6
106	108	1
75	102	1
11	11	5
79	109	1
18	19	5
2	91	1
31	88	2
73	77	2
74	118	1
76	104	2
25	38	1
22	23	1
4	19	2
113	119	4
109	110	1
2	95	1
73	121	1
29	31	5
12	13	5
94	99	1
16	17	1
91	100	3
127	129	1
74	77	1
113	120	2
12	75	1
76	82	1
77	85	1
1	10	1
109	111	1
80	111	2
27	109	2
101	123	2
86	92	1
72	78	1
2	3	1
71	72	1
126	128	1
93	98	1
28	91	1
75	78	2
8	9	1
126	129	1
13	23	1
1	11	1
7	8	1
110	123	1
113	121	2
28	32	2
19	22	1
126	134	1
81	85	1
119	122	1
109	116	2
73	75	1
77	84	1
107	122	1
91	92	1
112	114	1
136	137	1
103	106	2
77	102	1
84	87	1
98	100	1
75	79	2
137	138	1
43	47	1
9	10	1
12	22	1
13	19	1
17	95	1
