43	43	4
157	159	3
112	112	8
158	173	4
45	45	8
73	75	1
141	141	11
171	171	11
142	142	15
127	127	9
161	162	3
137	137	16
37	37	12
39	39	15
160	160	13
184	184	11
169	169	12
61	62	2
9	9	20
55	55	14
189	189	18
152	152	5
120	120	7
143	143	4
118	118	14
117	117	4
152	153	3
100	100	21
168	169	5
186	186	18
20	21	8
156	157	2
44	44	14
167	168	6
96	96	7
8	8	10
188	189	2
121	123	5
192	193	4
4	4	12
38	38	9
121	121	11
140	141	1
97	98	3
13	14	7
79	81	3
148	148	11
190	191	11
42	42	7
79	79	6
78	78	8
94	94	9
89	89	3
135	135	14
130	130	6
18	18	6
30	30	10
194	195	16
161	161	13
175	175	10
13	13	10
55	83	1
104	105	2
159	159	12
24	24	13
113	122	2
167	167	8
134	134	18
37	38	3
150	150	12
185	186	5
142	172	1
97	97	5
172	172	19
140	140	7
36	36	10
177	185	3
187	187	6
164	164	2
106	106	12
196	196	20
104	104	4
133	135	5
28	29	3
193	193	9
149	149	14
136	136	13
134	135	5
30	31	6
45	183	1
27	28	4
122	122	15
69	69	7
183	189	1
164	165	6
114	117	7
5	5	7
171	172	4
159	170	2
114	115	3
146	147	5
115	133	3
173	173	5
108	185	3
49	49	7
17	18	3
159	160	3
41	41	8
181	181	7
169	170	4
102	102	12
181	182	2
151	151	25
124	125	3
147	147	19
0	1	4
93	146	2
189	190	4
48	48	14
177	177	9
151	189	1
183	184	2
28	28	1
108	108	3
128	184	1
83	83	2
40	40	5
86	86	6
156	159	3
188	188	6
2	2	9
171	175	3
47	47	13
155	156	4
48	49	2
133	133	11
150	151	1
37	39	1
129	129	8
179	179	12
132	150	4
110	110	2
170	170	11
156	191	1
195	196	1
194	194	9
192	192	6
56	56	3
25	25	5
41	42	8
43	44	4
26	26	4
33	33	9
96	97	1
31	31	5
170	172	4
176	177	3
36	38	3
11	12	1
157	158	7
64	77	2
11	11	9
17	17	4
84	85	5
93	147	3
9	11	1
191	193	1
14	14	12
35	35	5
131	131	11
101	101	11
82	82	4
138	138	13
22	22	5
139	141	1
51	51	8
54	54	2
183	183	13
5	8	1
7	7	7
136	138	5
137	138	4
65	66	2
32	32	5
176	185	2
57	57	6
166	166	8
139	140	7
156	156	23
174	175	4
119	120	1
157	157	8
122	123	2
110	111	3
114	114	11
132	133	1
29	29	5
170	171	5
193	194	4
180	183	2
113	113	8
103	103	5
15	15	9
70	70	2
185	185	6
36	37	3
27	27	13
128	128	8
23	23	13
2	3	7
187	192	1
64	64	8
4	5	6
120	121	5
17	25	1
4	21	3
141	162	3
148	162	3
163	164	7
143	144	7
1	21	1
66	81	3
195	195	3
147	148	8
2	5	1
162	162	6
63	63	5
151	156	1
63	65	1
136	137	5
77	77	6
12	12	11
158	158	6
156	182	2
16	33	2
105	105	2
187	188	9
76	77	2
35	36	4
159	161	1
197	197	6
123	123	5
68	68	6
129	149	2
20	20	4
0	0	9
132	132	1
32	35	3
74	74	1
123	124	2
96	147	1
99	99	6
159	172	2
153	153	1
46	46	3
119	119	7
18	19	3
121	122	4
44	62	1
126	126	7
145	146	4
4	23	1
21	21	5
165	165	3
87	87	8
8	39	1
115	119	1
84	84	1
161	176	1
105	109	1
21	176	2
34	34	2
76	78	2
1	2	1
10	10	7
165	166	6
27	33	2
11	24	2
108	117	1
182	183	4
0	5	3
54	55	1
98	99	1
103	117	1
72	72	1
168	168	3
124	149	2
53	56	3
73	73	4
111	111	5
154	155	1
114	134	2
59	59	9
109	109	4
46	47	2
172	176	5
95	96	2
124	124	6
93	93	9
22	23	1
182	182	3
148	149	2
113	119	4
45	46	1
127	128	4
50	50	6
163	163	6
175	176	3
97	106	2
157	190	1
52	52	9
180	180	4
178	178	3
100	113	1
174	174	9
107	108	3
191	192	3
65	65	1
50	51	2
76	76	4
112	113	9
115	116	1
9	10	4
101	160	3
147	158	1
8	20	2
156	184	1
155	155	4
70	71	1
56	57	3
14	185	1
44	63	2
53	54	4
74	77	1
116	117	1
1	8	1
33	78	1
6	7	1
77	78	1
39	61	1
157	176	2
161	169	1
116	118	2
44	141	1
151	152	3
177	179	3
162	163	3
10	14	3
116	116	1
102	104	3
133	134	1
141	150	2
15	32	2
182	192	1
9	13	1
43	63	3
115	115	4
78	84	2
180	182	2
142	151	2
114	120	5
19	19	2
6	19	1
24	25	3
34	35	3
170	186	4
23	24	2
81	81	1
67	67	5
187	189	6
177	186	1
190	190	4
5	22	3
174	176	2
105	162	1
190	195	1
140	142	3
57	58	1
31	36	1
1	1	2
177	187	1
191	191	2
40	42	1
122	124	1
190	192	1
71	71	2
108	109	2
132	134	3
180	181	2
6	8	1
64	76	1
107	107	1
25	27	1
125	185	1
113	114	1
83	84	1
186	187	1
69	70	2
52	53	1
134	141	1
192	196	1
151	174	1
24	36	2
62	62	2
26	179	1
140	144	1
66	66	1
16	16	1
48	100	2
61	61	2
38	39	2
114	129	1
102	161	1
65	76	1
141	142	1
196	197	1
19	20	1
0	25	1
46	58	1
130	151	1
156	189	2
70	72	3
178	179	1
37	144	1
160	185	1
181	183	1
149	163	1
166	168	1
111	112	2
185	191	1
139	143	1
44	45	4
154	154	1
53	53	2
165	167	1
113	115	1
103	104	1
101	162	2
79	80	1
146	146	2
131	132	1
130	152	1
145	145	1
10	11	1
47	48	1
102	110	1
9	14	1
59	60	1
58	58	1
55	56	1
157	184	1
6	6	1
31	32	1
106	107	1
59	63	1
158	184	1
130	150	1
