97	97	15
30	30	18
71	71	14
127	127	32
10	10	19
155	157	4
8	9	7
121	122	9
22	23	6
90	90	6
112	113	6
131	131	23
11	13	7
12	13	10
66	66	12
18	37	2
5	5	22
28	28	22
129	129	12
133	136	7
155	155	9
29	29	26
17	78	2
129	158	1
70	70	7
70	71	6
104	104	29
48	50	2
54	54	6
36	38	3
100	115	2
101	157	2
106	107	11
91	91	10
147	150	2
3	3	33
16	16	22
109	110	14
142	142	5
115	116	8
122	122	25
113	113	7
131	132	7
3	5	1
85	88	6
18	28	6
2	5	3
50	67	1
12	12	28
148	148	10
38	38	26
94	94	26
108	110	5
112	112	22
55	55	18
134	135	4
13	13	13
42	81	2
111	111	23
43	43	17
117	117	21
119	119	18
137	137	7
87	88	4
31	42	3
82	86	3
52	52	21
115	115	17
27	27	16
23	23	23
92	92	24
138	138	23
4	4	12
110	110	18
8	8	7
121	140	2
84	84	7
16	29	2
90	91	4
15	15	17
78	78	17
15	16	8
95	96	10
80	80	18
50	50	14
142	146	3
63	65	1
9	9	11
146	146	10
87	87	7
103	103	19
9	49	1
20	49	3
24	24	14
1	1	33
33	34	15
90	96	3
1	2	8
40	83	5
151	151	14
136	136	7
78	79	8
130	130	20
111	127	2
110	121	4
108	108	17
98	98	20
123	123	19
96	97	2
154	154	16
39	43	2
89	89	7
18	18	24
100	100	24
38	91	2
37	37	24
148	149	11
22	22	29
132	132	25
95	95	21
134	134	9
37	38	12
21	43	7
114	116	1
73	73	28
152	153	5
139	140	8
31	31	15
17	34	3
23	47	1
13	15	5
120	121	8
29	30	9
124	125	3
54	55	4
81	94	2
124	127	6
54	67	2
149	149	6
149	154	3
2	2	20
144	146	2
35	38	3
82	82	30
97	98	11
21	23	1
85	85	9
123	124	9
39	39	3
6	6	9
135	136	7
86	87	11
142	145	2
105	105	9
153	153	11
144	145	10
75	75	26
7	8	8
147	148	5
137	138	3
86	86	14
63	71	1
79	79	13
40	41	13
126	126	17
77	77	10
35	36	3
35	35	8
101	101	34
137	148	5
5	6	6
46	46	9
104	111	2
88	88	22
37	51	2
9	10	8
124	124	9
106	106	16
32	33	9
103	106	4
46	47	5
105	116	1
135	135	16
116	116	10
136	137	8
110	114	3
68	68	19
27	28	11
144	144	17
80	81	3
49	51	2
153	154	4
56	56	12
72	73	4
142	143	4
147	147	24
19	20	4
42	47	1
36	37	10
3	6	1
14	14	13
23	24	6
86	88	2
135	138	3
41	41	15
20	40	2
8	62	2
132	147	5
130	131	11
100	111	3
26	26	16
28	49	3
31	32	13
72	83	5
125	127	2
0	0	18
5	80	3
49	49	8
131	140	3
53	54	9
156	156	11
145	146	14
109	109	7
119	120	4
156	157	10
16	28	4
63	64	8
91	92	7
38	39	5
67	69	3
153	156	5
44	44	13
113	114	3
64	64	4
128	128	16
11	15	4
42	42	12
3	4	13
111	112	7
45	45	16
107	120	4
141	142	11
122	123	2
102	102	10
21	22	5
0	1	4
41	68	2
51	51	11
120	120	6
28	48	2
12	37	6
7	7	15
32	43	3
141	141	14
105	106	8
124	129	3
20	28	2
50	51	5
20	20	21
101	108	3
130	133	2
67	68	2
110	120	3
114	114	20
93	93	11
139	139	15
143	143	11
86	120	6
76	77	5
14	15	9
97	99	2
76	76	5
52	55	2
126	127	4
6	7	2
133	133	5
79	80	5
68	69	5
148	150	6
124	126	7
48	49	4
105	112	9
36	36	13
40	40	23
8	11	4
41	42	6
125	126	6
34	35	5
81	81	13
10	12	1
78	96	1
47	47	10
88	89	5
18	19	8
25	25	15
47	50	3
33	33	18
72	72	5
99	99	20
20	77	1
107	109	6
65	66	5
133	140	4
26	134	4
150	150	8
125	125	10
118	118	6
85	86	2
93	94	7
83	83	11
50	65	4
4	5	2
140	140	15
102	139	1
127	158	2
28	29	15
84	94	1
37	66	2
134	144	2
19	19	4
108	109	5
107	107	8
53	53	6
119	144	3
16	17	8
110	111	5
111	113	2
80	84	1
75	151	1
146	154	2
3	50	3
15	23	4
95	98	3
17	123	1
77	82	3
7	12	3
145	145	5
107	108	1
83	89	2
47	48	6
132	145	4
33	43	4
36	91	2
145	148	1
34	34	12
91	96	4
51	141	3
150	151	4
71	72	3
151	155	4
63	67	2
132	133	7
123	125	2
113	115	5
77	89	2
10	11	6
88	90	1
48	48	7
98	102	3
16	98	1
8	84	2
46	50	6
139	141	2
40	42	2
25	26	8
128	129	3
151	152	5
136	140	2
132	134	4
69	69	5
41	43	2
103	110	2
150	152	4
25	38	2
65	65	11
98	99	4
48	51	4
129	130	5
13	14	7
39	40	3
114	117	1
25	27	2
44	45	10
122	127	2
96	112	1
69	70	4
54	70	4
49	50	1
50	52	2
21	21	11
101	139	2
157	158	5
73	74	2
50	120	3
10	47	1
41	69	2
67	67	15
88	91	6
94	96	1
115	127	4
111	134	2
138	140	2
77	93	2
40	43	1
130	132	3
71	110	3
104	119	2
79	87	1
141	144	3
17	17	18
83	84	6
158	158	8
39	120	2
20	30	5
7	11	3
32	32	4
133	148	2
131	133	4
146	151	1
109	111	4
136	139	2
98	100	1
150	156	1
104	106	5
122	141	2
92	93	4
116	117	6
150	154	4
137	145	2
114	115	8
157	157	6
39	41	4
79	89	2
0	92	2
92	127	1
133	134	5
152	152	6
49	126	2
19	21	4
108	111	2
42	43	1
45	47	4
88	104	2
77	98	3
96	96	3
100	101	4
9	25	2
119	153	2
118	142	2
103	105	2
52	68	1
49	69	2
20	22	7
43	47	1
106	108	2
123	132	3
106	109	1
50	119	2
121	121	3
31	51	4
90	111	1
92	103	1
53	55	2
11	11	13
8	10	7
22	25	3
104	105	4
17	20	3
16	18	8
100	125	3
110	112	2
129	151	3
100	110	1
117	150	2
89	90	7
119	150	4
81	85	2
24	26	4
90	92	2
39	90	1
42	82	2
114	145	1
150	153	3
32	137	1
8	81	2
52	53	2
133	150	1
140	141	5
156	158	3
19	31	1
84	122	5
87	89	1
0	2	1
128	140	1
154	156	1
43	44	1
103	104	1
63	63	2
118	135	3
34	38	2
10	15	1
64	87	2
119	121	2
15	29	6
107	127	1
96	98	2
31	33	4
16	24	1
62	71	1
128	133	2
89	120	2
77	79	2
87	146	1
86	121	3
45	46	4
81	82	7
84	89	1
17	18	2
152	155	2
52	67	3
142	149	2
27	32	2
29	48	4
50	102	1
80	83	4
94	95	5
82	95	2
150	155	1
92	94	1
120	140	3
42	44	1
146	147	3
62	62	3
68	71	2
4	12	1
100	109	2
134	136	3
129	133	1
105	107	1
123	154	2
51	71	3
14	17	1
116	129	2
116	120	1
11	12	4
154	155	3
30	31	3
53	69	3
41	130	2
74	74	1
68	70	2
49	68	3
12	80	1
106	127	3
22	24	1
98	140	2
104	118	2
8	48	1
51	54	1
143	144	2
46	91	1
139	142	1
103	118	2
53	68	1
66	75	3
34	42	3
86	118	1
86	89	1
138	145	6
41	132	2
20	21	2
101	131	2
48	68	1
10	49	1
128	130	1
109	113	2
7	25	2
126	152	1
35	51	2
141	145	1
82	83	1
103	119	1
108	112	2
98	106	1
9	16	1
25	29	3
16	78	2
106	111	2
26	37	2
38	51	4
134	137	1
65	71	1
138	158	1
51	73	2
107	115	2
115	117	2
118	145	1
158	159	1
28	43	1
34	103	1
26	27	3
107	113	2
37	52	1
46	72	2
26	36	2
55	57	3
102	119	1
127	157	1
85	92	3
38	41	1
42	45	1
104	107	3
33	53	3
79	83	1
121	123	1
137	151	1
29	49	2
131	147	1
51	52	1
40	148	1
131	135	1
5	30	1
69	71	1
83	85	1
12	49	1
123	146	2
80	92	1
76	90	1
9	11	1
76	101	1
149	150	1
143	149	1
143	158	1
107	111	1
132	135	3
138	141	1
77	83	2
79	86	1
87	93	1
121	148	1
77	92	1
65	67	1
89	92	1
11	25	1
3	9	2
41	50	2
29	39	3
88	103	2
57	69	1
66	72	1
39	66	1
146	148	1
0	5	2
33	35	1
102	118	1
99	127	1
24	45	1
93	95	1
86	107	2
49	61	3
141	146	1
23	27	1
49	65	1
105	151	1
103	113	1
10	22	1
19	30	1
120	148	1
4	6	1
137	142	1
99	100	1
45	52	1
0	4	1
