84	112	3
40	40	6
134	134	21
66	66	9
8	9	7
79	79	6
95	95	12
87	91	2
61	63	1
122	122	11
68	68	11
74	74	14
38	38	21
71	71	5
109	109	6
37	38	7
23	24	2
47	48	5
94	94	8
122	124	2
123	141	2
52	52	9
127	127	17
6	6	6
28	128	1
17	17	16
0	20	2
62	62	17
18	71	2
10	10	11
80	80	11
3	4	1
78	79	2
135	135	16
70	72	1
144	144	13
85	104	2
59	60	11
38	40	1
39	40	9
41	41	20
58	60	3
121	121	50
54	56	3
88	88	8
115	121	1
117	118	3
88	123	3
96	97	7
113	116	1
24	68	3
41	42	10
2	3	4
4	4	6
118	120	7
22	24	1
67	71	3
21	34	6
67	68	6
8	8	12
37	37	14
93	94	6
124	124	19
9	10	7
116	116	3
126	135	2
30	30	13
125	141	4
111	112	3
95	140	1
15	15	6
43	43	7
104	104	7
98	125	4
143	143	9
29	30	4
111	111	10
35	35	9
65	65	18
63	63	11
20	21	10
103	116	1
98	98	7
127	129	4
17	18	2
39	39	22
31	31	15
136	137	2
36	38	5
133	133	12
2	4	7
99	99	15
82	116	4
126	126	10
141	142	6
95	96	5
28	28	16
56	56	13
81	83	5
31	59	3
42	42	10
120	121	5
28	29	7
87	88	5
67	67	11
127	128	2
55	55	17
100	101	3
21	21	22
19	19	11
125	125	10
145	145	10
142	143	6
110	110	3
61	61	12
88	91	3
116	117	4
140	141	4
134	136	2
53	53	6
1	21	3
21	22	4
80	81	3
114	116	3
142	142	4
124	125	7
20	20	10
92	93	17
114	115	5
25	25	8
93	93	8
110	111	2
38	39	2
20	23	3
130	130	17
29	31	1
83	84	7
21	33	1
133	136	5
49	49	6
126	130	4
49	50	1
54	57	1
24	24	28
88	105	1
29	29	20
117	123	3
82	83	4
123	123	15
89	90	3
97	139	1
74	107	2
82	141	3
120	122	2
1	17	1
107	110	3
118	119	6
47	47	7
27	27	8
102	102	13
30	38	4
130	134	2
16	37	2
119	120	3
127	137	2
13	15	6
75	75	4
138	138	5
115	117	4
132	133	4
16	16	6
81	86	2
84	85	4
111	120	4
102	127	2
86	86	1
127	136	2
27	28	5
26	31	3
76	77	2
89	91	1
74	104	2
47	51	2
99	130	3
64	67	2
108	108	6
23	23	12
126	127	5
26	26	12
2	16	1
125	126	4
117	117	15
89	89	16
131	131	16
120	120	12
113	113	3
53	55	10
9	9	3
97	97	7
103	103	7
112	112	4
129	129	8
61	141	1
109	110	4
122	123	6
72	77	2
81	82	5
133	134	6
139	141	2
54	54	13
9	115	2
36	36	13
54	55	6
98	99	2
99	104	1
75	76	1
101	101	5
128	128	12
27	29	1
132	132	11
60	60	4
72	72	7
30	31	2
99	101	2
32	34	2
25	68	2
40	41	2
90	91	8
141	141	14
66	69	1
20	31	3
82	82	8
91	91	4
82	86	1
2	2	8
11	12	2
96	98	3
112	113	10
6	11	2
101	102	1
139	140	1
76	76	8
32	33	1
48	49	4
19	27	4
63	81	6
5	6	2
81	81	11
92	92	8
31	32	3
139	139	3
62	63	10
52	53	4
118	118	16
138	140	1
18	18	8
78	78	6
22	22	12
135	140	2
137	138	7
65	66	8
77	78	3
80	85	1
135	141	5
83	83	5
15	33	1
128	129	9
2	5	1
101	144	2
90	90	4
3	3	5
117	134	1
1	1	5
100	100	7
71	72	3
50	66	2
76	78	1
75	91	3
5	5	3
64	109	1
95	100	4
85	106	3
22	25	2
22	26	1
87	87	6
84	105	2
53	54	4
32	32	5
113	114	3
15	16	6
81	114	1
51	53	2
30	32	1
20	24	1
19	28	3
63	64	1
64	65	2
18	19	2
129	131	1
19	25	3
119	119	4
112	118	2
81	91	2
140	140	11
116	126	2
68	72	2
2	25	2
96	96	8
22	23	2
35	36	3
25	26	3
57	57	7
32	35	1
102	103	6
24	97	3
144	146	1
10	17	1
136	136	11
115	120	1
14	14	2
91	92	5
56	57	3
48	48	6
2	13	1
95	109	1
121	124	1
33	34	1
38	41	4
79	80	3
123	143	2
47	53	1
24	25	4
8	83	1
4	26	3
74	97	2
33	36	3
43	56	5
143	144	3
104	106	1
69	69	2
103	104	1
117	119	4
95	127	3
59	59	4
0	1	3
85	110	1
104	105	1
106	106	4
6	13	3
3	20	1
6	28	2
129	130	8
98	141	3
65	104	3
51	51	4
0	6	1
104	134	2
13	16	1
129	134	3
84	84	2
11	11	5
100	126	1
51	52	1
97	98	2
77	91	2
121	122	5
82	92	1
126	129	2
88	89	3
64	64	9
135	137	3
97	99	2
13	14	2
19	20	1
136	139	3
91	93	3
11	17	1
92	94	1
33	35	3
33	33	6
73	74	1
94	98	1
135	136	5
105	106	1
135	139	3
63	103	2
62	103	4
132	139	1
36	37	2
20	22	2
100	104	1
34	34	3
141	143	1
119	127	1
20	26	1
61	62	3
94	101	4
111	114	1
8	124	1
55	56	3
58	58	4
82	129	1
27	81	1
94	99	3
77	77	1
120	126	1
75	77	3
87	90	1
76	80	2
142	145	2
84	114	1
30	68	1
85	85	5
87	123	1
73	73	4
24	128	2
88	90	2
49	53	2
27	130	3
28	30	3
123	124	3
124	126	1
77	89	1
90	112	1
98	100	5
81	103	1
18	27	1
69	71	2
125	143	1
100	130	2
135	142	1
87	98	1
70	71	2
131	132	1
97	112	1
71	73	2
26	27	5
74	75	1
15	19	1
18	20	1
133	137	2
130	131	3
15	20	1
14	15	3
50	50	4
28	129	1
98	108	1
126	128	2
1	6	1
48	51	1
138	141	1
102	128	3
136	138	3
64	66	6
3	13	1
21	23	2
99	102	1
66	67	3
81	104	1
4	6	1
102	126	1
50	51	1
140	142	1
50	52	2
125	127	2
10	14	1
96	125	3
36	66	1
87	127	1
133	138	1
19	22	1
13	13	2
82	98	1
84	96	1
63	65	1
114	118	1
94	95	1
146	146	2
10	130	1
10	11	1
95	119	1
98	110	1
9	30	1
75	106	1
86	88	2
119	124	1
90	122	1
94	96	2
145	146	2
124	141	1
100	127	1
9	19	1
115	119	2
99	100	2
73	105	1
39	41	2
134	138	1
4	5	2
12	13	3
23	59	2
121	142	1
103	127	1
60	62	2
90	125	2
1	12	1
28	38	1
84	86	1
10	13	1
24	26	1
83	110	1
1	2	1
83	85	1
6	12	1
85	94	1
106	110	1
112	114	1
74	90	2
70	70	2
10	15	1
119	135	1
75	90	1
31	33	1
18	28	1
82	94	1
134	140	1
1	24	1
137	137	2
32	37	1
1	27	1
28	121	2
88	106	1
73	106	1
4	27	2
102	123	1
32	36	1
27	131	1
101	121	1
118	137	1
70	93	1
48	90	1
27	31	2
31	39	1
24	30	1
118	136	2
11	26	1
3	5	1
58	59	1
87	125	1
64	73	1
0	0	1
