71	71	22
31	32	16
35	35	32
26	26	25
1	1	17
48	48	36
10	11	10
17	17	17
6	6	16
53	53	21
51	52	2
2	2	20
7	7	26
34	34	14
76	77	9
16	16	22
0	0	20
56	57	3
55	55	23
13	13	18
36	36	17
40	77	2
29	29	17
19	19	15
5	5	16
64	64	9
49	50	7
8	8	18
45	45	13
51	51	9
46	46	23
73	73	21
47	47	24
13	14	8
68	69	10
78	78	23
49	49	8
42	42	27
20	20	17
48	49	5
40	40	26
32	32	13
18	18	12
0	1	4
74	75	3
3	3	16
37	37	16
3	4	4
38	38	27
5	75	1
75	75	15
38	39	4
66	66	14
11	11	12
25	25	17
50	50	13
5	6	10
76	76	25
15	15	14
53	54	13
41	41	29
7	8	5
54	54	14
37	60	1
33	34	11
72	72	10
4	4	20
9	10	6
69	69	17
41	42	2
1	3	2
74	74	24
11	12	4
57	57	18
16	17	8
31	31	28
52	52	12
27	27	13
65	65	21
61	61	12
70	71	7
62	62	7
61	62	6
59	59	12
28	28	15
29	30	4
5	45	1
20	21	10
44	46	1
14	15	3
30	30	23
39	39	14
67	68	5
74	80	2
6	9	2
3	57	5
70	70	19
63	63	11
56	56	14
58	58	18
9	9	9
4	6	2
6	7	5
71	72	1
43	43	5
60	60	7
25	69	2
5	49	1
67	69	1
65	66	4
14	14	3
66	67	2
73	79	4
36	45	2
19	20	6
21	21	5
80	80	11
12	12	12
36	37	3
49	61	3
10	10	9
77	77	6
9	17	1
1	2	3
75	76	2
45	48	9
47	48	5
33	33	20
79	79	7
49	51	5
32	33	4
26	70	2
42	79	1
2	3	3
69	70	11
9	64	7
59	61	5
22	22	2
4	5	3
33	35	2
28	29	5
58	60	2
34	35	3
64	73	5
75	77	2
63	64	4
45	46	1
3	5	4
57	60	3
59	60	3
33	68	2
28	30	2
64	65	5
61	63	2
77	78	2
22	31	3
26	78	2
26	27	5
45	56	1
33	56	1
39	40	1
74	78	1
50	54	1
46	47	6
25	26	2
49	52	3
29	34	1
27	29	1
67	67	6
62	63	4
27	28	4
2	5	1
68	68	2
54	55	5
35	39	3
10	32	1
69	71	2
30	33	3
8	9	1
72	73	1
44	44	2
5	56	2
21	30	1
57	58	2
58	59	3
54	70	4
75	80	2
48	73	2
60	61	4
55	56	1
7	41	1
40	42	2
63	65	1
10	12	1
19	29	1
18	47	1
73	74	1
5	8	1
27	36	1
68	71	1
15	16	1
17	42	1
17	18	1
41	76	1
38	42	1
48	62	1
52	53	1
5	9	1
65	71	1
50	52	1
67	72	2
5	7	1
45	47	1
60	64	1
7	39	1
5	55	1
8	75	1
53	56	1
27	30	1
48	64	1
15	21	1
