105	105	5
51	52	4
110	111	7
99	99	5
85	85	15
47	47	8
25	25	9
136	138	2
134	134	5
69	85	2
116	118	4
27	28	3
94	94	6
66	79	1
144	144	2
85	88	2
42	42	10
66	66	7
103	105	3
63	63	3
93	95	8
84	86	3
16	16	9
78	79	5
64	64	1
17	17	4
111	113	3
104	106	2
71	71	7
103	103	5
127	127	6
26	33	4
109	110	8
111	111	4
141	142	2
143	144	1
7	7	6
9	9	11
96	96	7
121	144	4
82	82	7
14	14	8
35	44	3
36	36	5
130	130	6
22	36	4
81	82	1
102	144	8
8	13	10
32	33	7
18	18	7
28	28	4
143	143	2
14	48	1
102	113	3
19	19	6
94	96	1
149	149	3
19	48	4
119	138	2
100	100	5
125	127	3
77	77	1
97	109	4
97	97	3
74	74	1
75	75	5
16	30	1
154	154	1
33	33	7
39	39	4
24	24	3
98	104	3
105	139	2
114	114	8
26	34	2
39	71	2
38	39	3
118	118	3
66	67	2
10	10	8
135	135	2
26	75	2
133	133	2
50	51	4
20	50	1
22	27	6
25	26	2
123	139	1
128	128	8
98	110	2
55	75	2
55	55	2
120	121	1
80	80	2
104	105	4
21	21	3
42	43	1
27	27	1
5	74	2
70	70	2
81	83	1
107	107	7
32	34	4
126	131	5
102	102	3
40	40	2
26	74	5
136	136	1
131	154	4
84	84	2
27	56	2
145	145	2
12	12	2
99	100	1
62	63	2
37	37	5
109	109	7
43	43	4
142	142	1
6	7	1
65	65	2
137	137	3
98	99	5
18	19	1
5	78	2
119	133	2
54	55	6
32	32	1
17	23	4
100	101	2
150	150	5
62	64	3
54	54	3
47	51	2
86	86	4
29	29	1
41	41	5
72	75	1
16	51	1
8	9	4
46	46	3
139	140	2
120	120	1
97	98	1
72	74	1
7	14	1
6	6	2
118	140	2
132	145	2
11	23	1
72	73	4
40	58	2
51	51	5
49	53	1
101	102	1
102	104	1
13	84	1
102	111	6
56	56	1
56	57	3
142	144	1
149	150	2
13	13	3
56	58	2
44	44	4
10	11	1
81	81	3
23	34	3
43	44	3
67	67	2
142	143	5
146	146	2
98	98	4
31	31	2
83	83	1
90	90	1
20	48	5
69	75	2
122	122	1
101	101	2
115	116	4
34	34	1
19	47	3
85	86	4
15	15	2
108	108	6
151	153	3
139	139	1
115	115	2
119	122	2
38	40	1
85	95	1
95	95	1
126	126	2
25	31	3
5	7	1
31	62	3
7	38	1
119	119	3
68	68	2
35	35	2
22	22	2
131	131	1
20	23	1
22	23	1
69	96	2
26	26	1
87	87	3
48	48	1
73	73	1
91	119	2
8	8	1
65	66	1
45	46	1
115	118	1
41	44	1
89	131	1
23	23	1
137	143	2
78	78	1
132	132	1
110	110	1
131	133	2
112	112	1
124	125	1
124	124	2
121	121	1
100	102	1
17	18	1
11	11	1
141	143	2
5	5	2
93	112	1
111	112	1
39	40	2
47	48	1
153	153	2
134	145	1
137	139	1
106	107	1
