37	37	2
52	53	2
11	11	4
140	140	1
176	211	1
99	176	2
62	62	6
198	198	6
6	6	5
184	186	4
8	8	6
3	232	1
148	148	4
122	128	4
29	96	2
186	186	5
195	195	4
23	43	4
195	197	2
46	46	2
24	36	3
193	193	3
80	80	2
43	43	6
36	58	2
27	147	2
39	149	2
106	106	5
100	205	3
16	98	3
4	7	2
152	167	1
49	50	1
129	129	7
37	43	3
42	42	7
209	217	3
105	156	2
224	225	4
151	151	5
31	35	5
12	12	5
200	200	4
0	0	1
155	155	2
88	88	4
146	146	5
169	169	3
27	97	1
37	173	1
129	130	2
99	105	2
24	24	2
159	162	1
194	194	4
79	79	1
162	166	1
214	214	2
129	152	3
172	173	1
33	34	2
18	18	3
20	106	2
236	236	7
180	183	2
40	40	9
107	107	4
47	109	2
142	205	3
125	126	3
119	119	2
44	76	1
193	194	3
60	223	6
116	116	3
61	62	2
170	170	1
9	61	1
137	137	1
29	40	3
34	48	1
78	79	4
180	180	4
65	65	2
29	85	5
27	27	3
103	103	4
31	31	4
70	122	2
238	238	2
19	78	3
18	19	1
32	33	9
134	134	2
25	54	2
81	81	6
217	231	2
200	211	5
205	205	2
168	168	2
105	105	3
26	26	4
201	201	3
165	165	3
152	153	1
39	102	4
140	142	3
95	101	1
157	157	1
214	216	1
71	71	1
9	10	2
173	173	3
17	20	4
86	86	3
68	74	2
9	9	3
29	29	6
108	116	2
7	7	1
175	175	4
189	190	2
136	136	1
32	32	2
205	206	2
203	204	1
15	104	6
15	15	1
39	39	4
139	141	1
47	121	2
25	28	1
76	76	3
185	186	2
13	13	1
50	54	1
47	48	1
41	146	2
145	201	1
13	15	1
52	52	3
76	102	2
221	221	2
37	38	1
137	140	2
113	133	2
122	160	1
70	70	1
164	165	3
133	133	3
219	219	1
77	106	1
99	99	3
240	240	2
208	209	1
239	239	3
33	33	3
182	218	1
15	16	2
228	228	1
43	136	3
116	118	1
145	145	2
180	185	5
29	106	1
24	65	1
121	121	1
102	102	3
16	17	2
185	185	4
159	165	1
41	41	1
22	151	1
76	78	3
15	60	1
163	163	2
2	3	1
29	39	1
56	56	1
138	139	1
213	215	7
181	181	1
34	59	2
174	174	2
1	1	2
136	137	1
111	111	1
215	216	1
26	55	2
19	100	1
85	85	2
148	158	1
118	118	1
48	61	4
142	142	2
135	136	2
20	20	2
54	54	5
210	210	6
131	184	1
127	127	2
78	78	2
75	102	1
188	188	2
54	55	1
235	236	2
0	131	1
143	161	1
153	154	1
145	191	1
120	120	1
58	61	2
66	66	2
14	14	2
49	49	2
71	141	2
6	7	1
9	76	2
114	116	2
100	108	2
85	88	3
199	199	1
154	169	1
203	203	2
12	13	4
4	5	1
1	2	3
69	69	1
178	193	1
237	237	2
115	116	2
28	28	1
3	147	1
213	213	1
127	181	2
3	3	1
38	39	1
216	216	2
47	47	2
166	166	2
83	83	1
108	122	1
4	4	1
149	149	1
2	5	2
63	78	1
35	35	5
49	75	1
46	142	1
33	35	1
22	22	1
57	73	2
75	108	1
167	167	1
114	127	1
145	152	1
29	30	1
230	230	1
191	191	1
150	152	1
46	47	1
16	16	1
25	25	1
242	242	1
187	187	1
15	17	1
4	124	1
181	213	1
176	177	1
97	97	1
77	80	1
38	235	1
182	182	1
21	21	1
100	143	1
61	134	2
63	63	1
218	218	1
212	212	1
75	75	1
109	133	1
189	189	1
