114	115	1
20	20	7
160	160	8
40	41	3
57	58	2
129	143	2
40	40	6
7	120	1
36	37	5
39	39	9
28	28	5
112	113	6
55	55	3
153	153	2
14	16	1
170	170	2
38	54	4
110	111	4
23	23	12
147	147	2
93	94	5
15	84	2
43	43	10
79	80	9
141	142	7
26	26	3
132	159	4
116	119	2
66	66	5
114	165	3
118	125	4
10	10	16
116	116	5
18	24	1
9	54	3
139	139	3
116	123	1
97	99	2
85	85	5
91	114	2
134	134	4
6	6	4
122	131	5
56	56	5
3	3	8
54	54	8
144	144	10
145	145	10
158	166	3
44	44	8
158	158	12
71	72	8
106	106	5
4	4	8
132	132	6
62	65	2
135	135	12
5	7	3
103	154	4
38	119	2
73	73	5
20	44	1
150	153	2
43	44	1
96	97	3
151	151	8
81	116	4
124	124	2
128	143	1
56	57	6
53	54	3
74	75	4
119	122	2
169	169	16
71	71	5
133	133	4
137	137	10
84	84	3
11	11	4
8	10	14
160	170	1
162	162	2
82	82	12
48	48	7
14	14	3
67	67	6
13	86	2
66	70	1
66	159	2
137	145	3
123	162	6
90	90	3
96	124	3
12	14	1
7	8	1
1	2	9
53	70	1
130	138	4
16	18	6
121	121	7
106	107	3
92	116	2
50	50	4
20	24	3
2	2	10
21	22	3
112	112	10
134	135	1
126	127	4
91	92	4
79	91	4
152	166	1
51	62	4
21	21	7
125	125	7
110	110	3
168	168	10
7	7	5
154	154	8
91	91	5
51	51	7
115	118	1
76	76	3
41	51	4
3	4	10
51	70	3
113	113	8
13	13	2
47	49	3
83	83	13
80	80	7
119	120	1
76	161	1
19	39	2
36	36	15
130	130	3
157	157	4
15	19	3
77	78	5
135	137	2
15	16	1
48	49	4
92	92	6
22	22	4
103	103	4
42	42	7
97	98	4
75	75	4
52	52	14
37	37	6
35	37	1
146	148	2
155	155	4
6	7	4
5	5	4
0	17	5
9	25	4
152	152	3
156	156	4
16	16	8
127	127	2
18	18	5
131	169	6
23	49	2
115	115	6
14	18	1
49	49	2
160	161	2
108	119	1
109	109	4
123	123	5
38	38	3
157	158	3
111	112	3
144	146	1
11	26	2
134	144	1
139	145	3
94	94	3
108	109	4
0	0	2
79	79	1
99	99	1
108	108	4
17	17	6
50	51	2
26	113	3
154	156	4
5	17	2
78	114	3
0	18	1
39	69	1
38	168	2
22	23	4
151	152	1
87	87	3
120	127	1
88	89	3
74	74	6
27	27	8
159	159	3
103	163	1
163	163	3
129	166	2
104	105	3
28	77	2
14	23	1
47	47	2
35	35	8
68	69	1
2	111	1
96	116	3
138	139	2
40	170	2
138	143	2
129	129	4
62	62	4
136	136	2
9	10	1
81	82	2
26	27	2
36	38	1
25	25	7
12	12	2
24	24	6
78	78	6
124	166	5
139	159	1
57	57	3
20	119	1
100	100	6
143	143	5
165	165	3
65	65	2
78	111	2
64	72	2
113	166	1
34	35	1
46	50	1
14	15	5
46	46	5
153	154	3
50	73	6
120	138	2
135	146	1
6	136	2
107	107	2
166	166	6
1	1	3
103	165	2
85	93	1
88	88	5
45	45	2
10	112	3
97	105	2
58	66	1
88	106	1
84	85	2
19	19	5
39	168	2
11	17	4
140	140	2
24	25	3
146	147	1
89	89	3
44	45	1
26	109	2
122	123	1
49	53	2
93	93	2
138	138	5
164	164	4
131	147	2
64	65	1
39	40	2
83	111	2
68	68	2
21	163	1
97	97	5
45	74	1
92	97	3
68	159	2
22	44	2
150	150	4
101	104	5
119	121	3
102	104	2
35	36	2
132	149	2
0	25	1
107	124	1
20	132	1
53	53	4
40	50	1
37	39	2
41	41	2
4	5	1
47	50	1
77	88	1
28	55	1
141	143	3
77	94	2
64	64	1
7	45	1
120	126	3
116	118	2
100	122	1
24	44	2
167	167	1
146	146	1
55	64	1
105	105	6
20	23	1
131	131	1
13	15	2
141	141	1
130	141	1
98	98	1
4	26	1
107	111	2
96	118	1
67	69	2
104	155	1
3	111	1
15	15	2
142	142	3
128	166	1
128	128	5
118	118	5
28	76	2
23	25	1
8	8	1
102	103	4
72	73	1
122	129	1
142	143	1
33	33	3
123	166	1
122	162	3
50	63	1
9	9	2
75	76	1
108	160	1
20	21	1
135	145	1
19	24	2
16	17	1
102	102	2
81	83	1
161	162	3
109	110	1
22	136	1
96	96	3
101	107	1
167	168	1
0	2	2
117	170	1
12	87	3
66	67	1
81	81	2
168	169	2
46	47	1
111	111	3
89	109	1
125	127	1
47	48	1
90	91	1
119	148	1
25	27	2
132	137	1
113	165	1
67	108	2
3	52	1
133	134	1
164	165	1
99	116	1
139	143	1
11	109	2
8	9	1
150	151	1
104	104	2
163	167	1
40	45	1
120	120	1
90	94	1
109	114	2
153	157	1
44	46	1
51	69	1
152	154	1
70	70	1
93	124	2
45	50	1
143	145	1
101	116	1
136	137	1
101	103	1
