72	72	12
7	68	9
30	31	4
4	4	7
89	89	14
7	48	2
80	80	10
5	6	6
65	65	8
85	85	10
19	22	3
82	83	14
10	10	13
53	76	3
53	53	7
27	58	1
7	8	4
48	48	18
6	6	7
68	69	5
66	66	10
62	66	1
56	56	15
49	49	14
23	23	16
2	77	2
7	7	8
46	50	1
24	25	1
14	14	13
9	9	15
47	47	7
5	5	7
8	8	6
29	29	3
0	1	2
64	64	5
12	12	7
49	51	4
58	58	6
52	53	4
13	49	2
3	3	13
21	21	3
2	3	1
83	83	16
27	27	8
27	28	5
50	50	8
34	35	1
23	25	6
77	77	8
0	74	6
70	70	10
24	24	12
0	0	4
30	30	7
31	31	9
57	58	2
15	15	9
78	82	3
49	50	10
25	26	1
78	78	4
54	58	2
84	84	4
77	78	4
34	34	3
75	81	1
11	12	8
55	76	1
59	59	7
8	9	4
18	18	2
17	17	8
27	49	4
8	10	3
35	35	3
53	54	5
61	61	10
20	20	7
63	64	7
81	83	3
25	25	6
78	79	2
71	71	4
57	57	12
12	13	3
62	63	2
51	51	12
76	77	1
29	30	6
68	68	3
67	68	15
19	19	10
72	73	5
11	11	12
75	75	13
1	2	2
26	31	4
52	52	9
72	74	3
63	63	7
54	54	11
69	71	1
13	13	9
79	83	1
22	22	7
15	16	1
1	1	7
55	55	10
90	90	4
81	81	4
13	14	1
6	7	5
69	69	7
28	28	3
67	67	10
26	27	2
46	46	6
66	74	3
10	14	1
23	31	1
48	49	3
53	75	2
9	25	1
52	55	3
87	87	12
54	87	2
3	4	3
79	79	4
63	65	1
74	74	9
20	22	4
80	81	1
77	83	1
50	51	2
4	57	3
76	76	4
12	14	2
73	73	6
1	70	2
31	33	1
66	67	4
5	25	1
32	32	3
61	65	1
9	10	4
53	77	1
62	62	7
86	86	5
14	50	1
81	86	3
46	47	1
46	54	2
21	22	3
80	82	4
70	86	2
3	67	1
88	88	1
58	59	1
66	75	3
64	66	5
61	62	3
17	23	4
23	24	2
75	76	6
2	2	2
55	56	1
28	31	1
13	22	2
86	87	1
73	83	1
70	71	1
16	17	1
18	19	2
70	87	1
24	27	2
56	57	1
2	88	3
78	87	2
3	57	1
19	20	2
65	66	1
18	20	1
8	14	2
84	85	1
60	60	1
27	47	1
61	64	1
76	82	2
71	74	1
46	59	1
81	84	1
10	62	2
1	23	1
26	26	2
68	70	1
79	80	1
6	8	1
82	82	4
54	55	1
88	89	1
74	75	1
5	17	1
20	21	2
0	70	1
4	5	1
4	89	1
58	60	2
10	11	1
54	57	1
71	75	1
70	73	1
69	84	1
9	11	1
72	82	1
