1	1	21
137	138	23
4	4	19
149	150	9
44	44	33
32	32	48
72	73	10
52	52	28
178	178	12
38	39	16
91	91	19
135	136	15
117	118	10
137	137	32
13	13	21
53	53	10
78	78	14
145	145	13
54	54	24
90	90	35
80	80	21
41	41	25
152	152	20
147	148	5
126	126	26
101	101	12
57	57	23
140	149	1
18	19	18
39	42	7
83	122	3
7	8	14
71	71	16
92	92	13
111	112	12
144	144	11
149	149	51
134	136	9
172	172	38
128	128	11
78	89	3
165	165	10
23	23	31
11	12	20
20	34	2
132	132	21
38	38	63
15	15	23
0	33	3
40	40	47
95	95	31
12	13	14
133	133	45
79	79	25
76	76	32
35	35	22
37	37	36
142	142	50
119	119	15
25	25	24
90	91	4
93	93	45
43	45	6
25	26	14
85	85	14
148	148	53
116	117	10
144	145	2
135	135	23
20	21	7
31	31	45
22	138	9
86	88	4
55	94	1
5	6	24
1	2	7
30	37	1
2	3	18
109	109	10
87	87	15
36	36	35
179	179	37
10	13	4
10	11	6
57	59	4
51	51	28
118	118	22
100	109	1
73	73	30
75	76	7
72	72	34
116	116	11
39	40	8
5	5	32
103	104	11
160	161	17
157	157	17
83	83	18
9	13	2
173	174	12
86	86	7
77	77	11
78	79	7
14	15	14
97	97	15
139	139	40
79	80	8
22	22	11
107	110	4
9	9	28
55	55	36
7	23	1
52	53	20
113	114	4
164	164	20
67	91	7
28	29	5
150	171	8
125	129	4
144	157	1
39	39	45
55	63	5
91	92	2
118	122	2
120	120	20
104	105	6
17	18	12
131	132	10
143	143	19
87	88	1
102	103	7
75	75	18
12	12	15
108	108	24
8	8	27
11	11	25
89	89	17
162	162	16
88	89	7
76	77	6
74	75	2
121	122	20
19	20	16
154	154	25
2	2	7
15	16	14
80	90	5
50	50	15
4	13	3
33	33	34
29	31	6
165	166	14
10	10	32
103	105	1
43	44	13
56	56	27
151	151	16
89	90	3
148	149	10
143	144	8
8	9	15
154	175	3
60	61	10
121	121	20
147	149	3
43	43	33
18	18	19
148	170	2
42	42	24
150	150	19
123	123	24
51	53	3
126	143	4
96	97	5
10	14	5
154	172	2
171	171	17
115	115	30
27	28	13
158	158	13
114	114	7
174	174	11
146	146	10
146	148	1
141	142	10
34	34	15
117	125	4
16	17	18
140	140	23
60	60	26
77	78	6
16	42	1
113	123	1
74	79	1
120	121	11
169	169	10
149	171	2
4	12	1
93	94	7
94	124	3
95	96	12
1	5	3
162	166	1
107	109	2
175	176	8
147	147	17
92	93	12
52	54	3
90	93	2
0	0	11
159	172	1
11	34	3
14	14	29
94	95	2
176	176	22
22	23	18
16	16	31
27	27	27
59	59	29
159	167	8
100	105	2
130	130	24
100	102	3
142	143	16
107	107	18
67	101	2
115	121	4
153	153	16
28	30	5
30	32	1
26	26	14
70	76	4
125	125	20
1	16	2
79	81	4
63	63	17
138	138	20
167	167	15
110	111	10
132	153	3
56	57	13
23	24	19
93	122	7
61	62	18
115	116	16
173	173	18
120	122	1
0	1	1
105	105	13
29	29	24
99	99	3
134	135	5
142	144	3
23	28	2
98	99	6
80	81	9
168	169	4
128	129	9
161	161	12
108	109	15
74	74	7
122	122	29
59	60	13
58	59	4
141	141	20
57	94	5
3	3	28
139	179	6
70	70	6
84	85	5
6	7	8
180	180	19
19	19	18
32	33	10
101	113	5
35	36	3
177	178	2
7	7	13
3	37	3
19	21	2
62	62	4
163	171	1
127	127	20
98	103	1
98	101	4
99	100	8
20	25	1
66	66	8
83	84	12
82	89	4
2	6	7
3	11	4
132	150	2
94	96	5
144	148	2
172	173	8
111	133	3
177	177	6
30	31	14
85	86	5
124	125	4
126	130	3
88	88	9
55	62	1
118	119	10
137	139	3
84	122	4
105	106	3
91	111	6
124	128	2
170	170	15
31	32	10
152	153	4
2	40	3
134	134	20
110	110	15
26	27	13
36	38	12
155	162	2
49	50	2
58	58	11
138	139	10
16	19	2
102	102	10
155	172	4
94	94	27
4	15	1
33	34	6
84	84	9
111	111	10
28	28	12
23	27	2
25	29	2
163	163	9
60	94	4
67	67	6
14	41	2
11	14	3
81	82	8
36	40	8
11	13	3
6	6	12
104	116	8
15	25	1
104	104	9
45	45	20
112	136	7
57	61	1
167	168	4
154	155	9
60	85	2
64	87	5
139	140	4
150	151	5
112	134	4
128	151	3
93	124	6
159	161	11
160	160	8
24	24	12
136	136	20
98	100	3
53	61	4
95	108	4
39	52	2
89	116	2
155	155	7
170	171	4
7	16	2
21	23	7
84	91	2
112	113	7
161	166	4
134	138	10
1	32	3
65	65	11
45	46	2
51	52	4
156	179	3
168	168	13
154	158	2
36	39	4
23	26	6
113	113	8
3	15	3
17	44	3
156	156	7
15	30	1
21	21	4
100	130	5
96	96	12
104	124	2
7	14	1
25	27	5
73	90	2
4	5	5
129	130	2
29	30	6
10	12	9
106	106	5
92	124	3
154	157	4
27	29	3
150	167	1
166	166	10
17	17	33
55	56	6
115	117	2
58	123	1
55	64	4
52	64	3
9	54	2
159	160	3
124	124	8
154	173	1
84	86	2
22	26	4
11	15	1
89	118	2
18	20	8
155	156	2
150	172	3
73	79	3
164	171	1
126	145	1
100	101	2
15	33	1
1	6	5
67	68	1
112	112	2
44	45	8
92	110	4
149	166	3
18	21	3
24	25	8
130	131	15
11	38	1
36	37	9
59	65	1
66	73	3
103	103	6
61	63	3
64	64	10
15	26	5
158	159	3
61	61	17
143	165	1
71	72	3
101	102	2
31	38	4
34	35	3
100	100	7
108	110	2
129	129	8
40	41	2
98	98	12
171	172	6
71	113	4
7	19	2
131	131	14
134	137	1
17	32	5
86	105	1
101	114	1
161	162	5
162	163	8
41	45	1
1	14	1
140	179	2
1	15	7
156	157	12
105	107	2
26	28	5
156	173	4
127	131	2
0	14	4
43	76	3
34	157	2
9	10	3
1	29	2
94	103	1
27	39	2
169	170	6
10	38	1
113	115	1
90	122	1
108	115	2
132	149	1
109	114	1
116	118	4
1	3	2
164	170	2
126	128	5
36	80	2
34	158	1
36	45	1
66	67	4
24	27	2
57	60	2
127	167	1
121	123	2
154	171	4
159	159	13
143	162	1
164	165	5
147	154	3
81	84	2
125	176	3
142	161	3
175	175	8
24	30	1
152	154	5
57	95	1
167	169	1
63	64	4
157	158	5
125	141	3
71	75	2
68	73	2
153	154	3
132	141	5
3	33	4
20	20	5
25	28	4
42	43	3
8	16	1
41	42	6
143	161	3
118	121	3
72	113	1
40	43	5
7	9	10
135	137	2
130	140	2
138	140	5
125	160	1
114	115	3
57	58	1
35	43	2
116	121	1
55	135	1
122	123	3
1	33	3
75	78	2
82	82	6
6	8	5
94	106	2
51	77	2
154	156	2
103	131	1
74	77	3
72	90	6
68	68	11
130	135	3
20	30	1
156	161	3
14	18	3
5	15	2
55	61	1
82	83	1
91	115	2
171	175	2
173	175	1
35	39	2
7	13	2
133	139	4
159	165	5
146	156	4
100	131	2
72	114	2
83	88	6
66	68	2
151	152	1
12	15	1
159	166	2
176	177	3
151	170	1
159	163	1
106	124	4
56	94	1
103	106	2
59	62	1
35	158	2
165	171	1
123	124	8
5	7	7
127	128	5
59	123	1
76	78	2
146	147	4
125	130	2
160	163	4
151	169	1
166	167	1
34	164	2
81	81	7
17	31	4
54	94	3
71	73	1
75	80	3
133	134	1
60	91	1
90	115	2
93	95	3
160	168	5
2	15	1
163	164	4
79	84	4
77	81	2
97	98	3
30	30	4
95	106	3
39	76	2
99	101	1
133	140	2
26	29	3
108	111	1
1	18	3
107	108	3
46	46	2
12	14	2
0	6	2
150	177	2
145	146	2
147	156	2
38	40	2
42	45	2
173	176	1
92	106	1
10	33	3
0	13	1
124	127	1
49	49	1
114	118	1
36	140	1
132	133	3
125	126	5
133	136	2
102	106	2
36	139	1
60	106	1
119	122	2
107	112	1
37	139	1
70	71	2
13	14	4
119	120	4
24	26	2
53	64	1
2	19	1
117	117	4
66	115	1
2	4	2
14	31	1
68	71	1
99	130	2
108	114	1
92	94	4
37	38	2
124	129	2
50	144	3
3	19	2
171	173	2
171	174	2
6	180	2
43	75	3
37	56	1
3	4	2
172	174	1
68	78	1
22	24	1
17	25	1
53	54	2
65	67	1
95	98	1
168	178	4
131	151	1
109	112	1
92	111	1
85	90	1
66	122	2
103	125	1
34	37	1
129	151	1
19	33	1
56	58	2
93	96	3
60	92	2
2	17	1
123	128	2
142	164	1
12	34	3
66	121	1
115	118	2
17	19	1
141	143	1
81	87	1
11	33	1
106	107	1
104	125	1
84	89	1
72	75	1
174	175	2
26	30	1
149	167	1
132	140	2
93	110	1
127	129	1
178	179	2
15	17	2
145	147	1
54	56	1
148	177	1
154	168	1
43	136	1
59	101	2
10	104	1
100	104	1
124	126	1
145	152	1
126	127	1
1	17	1
3	6	1
106	108	2
21	22	1
151	153	1
50	51	2
158	165	1
3	7	1
68	90	1
144	146	1
8	33	2
179	180	2
33	36	1
8	153	1
15	42	1
145	160	1
110	161	1
36	79	1
116	123	3
68	95	1
73	75	1
136	137	1
128	147	1
57	121	1
65	66	1
143	172	1
113	125	1
75	77	1
125	127	1
86	92	1
