29	30	8
33	33	10
78	78	8
65	65	19
7	7	12
31	62	1
61	61	13
50	72	3
4	4	9
58	58	10
12	12	13
40	41	1
40	40	15
51	52	10
74	74	17
27	28	4
38	38	10
63	64	9
67	68	5
70	70	14
28	28	7
42	43	3
6	8	3
39	39	9
36	36	14
1	1	4
18	18	2
75	77	2
0	0	5
52	52	8
46	47	2
55	55	9
77	77	9
42	42	6
20	20	1
29	29	7
50	50	9
54	54	3
63	63	9
13	13	8
2	2	9
56	57	3
5	6	4
8	10	3
22	32	1
1	2	1
59	59	7
48	48	8
57	68	3
11	11	18
12	15	2
75	75	8
74	79	4
37	37	10
71	71	6
5	5	8
27	27	5
58	65	6
31	31	7
47	47	12
55	56	4
78	79	5
6	6	9
38	39	3
21	22	4
60	60	6
9	35	1
57	57	13
38	48	2
62	62	6
14	30	3
73	73	7
4	17	1
19	19	6
60	61	4
11	12	2
43	43	5
66	66	10
64	67	1
9	33	2
57	65	1
46	46	6
53	70	4
58	59	3
50	71	5
35	35	10
49	52	1
37	41	3
9	9	2
30	30	7
64	64	5
53	53	7
55	61	4
2	9	2
41	41	9
26	28	2
8	8	5
71	72	3
32	34	1
50	51	2
70	71	2
21	21	2
49	67	2
13	15	1
69	76	5
9	10	5
56	63	2
12	13	4
13	14	6
76	76	10
68	68	8
31	63	2
47	69	3
26	30	4
80	80	7
16	16	4
67	67	6
49	49	1
52	53	1
69	71	1
65	66	1
61	74	3
8	9	4
32	63	2
69	69	10
17	17	8
68	70	1
32	32	8
76	77	1
16	17	4
73	74	1
4	5	1
68	69	2
20	21	3
2	3	1
0	1	3
45	46	2
31	32	5
27	30	1
72	72	3
31	56	1
49	50	1
58	60	2
51	51	4
8	12	3
34	35	2
54	64	2
31	50	1
51	53	1
45	45	12
10	14	1
47	48	1
42	48	1
56	72	3
15	16	1
45	48	2
3	3	7
44	44	4
14	14	3
67	69	1
37	46	1
26	27	1
10	10	4
61	62	1
33	51	3
69	70	4
11	15	2
49	54	1
44	45	1
3	4	1
26	26	4
13	22	1
10	11	7
26	66	1
39	40	1
6	7	2
53	54	2
22	22	3
18	20	1
16	18	1
50	52	2
28	56	2
41	42	1
47	56	1
77	78	3
12	14	2
12	32	1
75	76	2
0	46	1
40	79	3
15	15	4
34	34	1
65	67	1
53	68	1
79	79	2
30	33	1
54	66	1
14	15	1
30	35	2
9	12	1
66	67	1
38	59	1
17	28	1
69	75	1
50	55	1
3	5	1
27	59	1
