4	27	3
46	47	5
131	131	13
144	148	2
0	0	8
153	153	8
62	85	1
80	81	2
139	139	7
13	14	2
137	137	4
131	144	3
24	27	5
32	34	1
34	35	2
99	99	3
90	96	1
95	95	3
113	113	15
147	158	3
89	89	8
3	3	14
111	111	8
127	128	7
147	147	10
40	90	1
108	110	2
140	142	1
124	124	3
32	32	7
81	81	7
27	28	8
17	20	2
133	148	2
110	110	5
126	126	8
123	155	4
80	83	1
96	97	7
88	88	9
23	23	7
22	22	7
45	47	1
155	155	10
50	50	14
117	117	5
29	29	8
93	93	24
84	84	6
130	130	13
135	137	2
80	80	7
67	67	12
12	56	1
26	27	2
43	43	5
17	18	2
47	47	8
54	68	1
28	28	5
11	11	13
118	118	6
39	43	4
154	154	5
131	132	3
120	120	7
4	4	25
98	98	7
124	125	3
103	104	6
156	156	13
96	96	14
65	65	2
31	32	2
127	127	13
87	87	15
67	71	5
77	82	3
78	79	7
152	152	5
118	119	5
10	11	3
19	20	6
79	79	5
77	77	10
18	19	5
5	5	7
17	17	9
112	113	5
123	123	19
114	114	5
38	40	1
112	126	1
42	43	5
42	90	3
143	143	6
107	107	10
116	116	8
78	82	2
53	54	6
129	129	7
35	126	3
132	132	8
34	34	3
18	18	12
8	55	1
146	146	11
131	151	4
48	68	2
35	35	4
125	127	3
65	89	3
24	24	12
117	130	1
70	70	3
94	95	5
32	42	3
142	143	2
98	158	1
26	31	2
126	127	8
15	15	9
40	40	11
22	49	6
122	144	2
94	94	14
138	138	7
105	105	9
8	8	13
86	86	4
135	135	13
133	143	3
73	73	4
30	30	11
81	82	9
9	9	5
26	26	7
10	21	1
10	10	11
56	68	4
104	104	9
54	67	3
1	1	5
71	71	3
3	10	1
41	41	8
44	45	4
31	31	4
28	30	3
62	62	4
148	148	11
20	20	4
91	91	10
122	127	1
142	142	7
27	27	9
39	40	3
134	134	17
150	150	4
44	44	9
38	39	4
7	8	2
133	156	1
151	157	3
129	130	2
47	100	3
149	157	1
79	118	4
137	157	1
24	25	7
16	16	14
125	125	5
78	78	5
97	128	2
97	97	2
22	28	2
75	75	5
39	55	1
64	66	3
68	70	9
108	109	2
3	4	5
39	97	1
25	25	7
144	144	10
84	85	4
133	134	9
112	122	2
90	104	4
28	52	1
141	154	1
45	45	7
122	122	7
57	57	5
42	54	3
106	106	11
100	118	1
42	42	14
132	134	1
82	82	8
82	83	2
4	11	1
140	140	2
151	151	8
24	30	4
18	26	2
3	17	1
113	118	3
121	140	1
136	137	2
19	19	13
35	48	4
121	121	8
41	91	2
63	63	10
55	87	2
94	133	2
67	68	5
90	90	4
96	146	4
93	94	4
2	3	1
136	153	3
95	96	2
25	26	2
33	33	4
151	156	3
13	13	5
16	96	6
26	28	6
85	85	4
10	29	7
46	46	10
57	63	1
155	156	3
48	55	1
79	88	3
135	136	2
118	121	1
81	83	1
101	101	7
138	139	1
136	136	10
9	10	4
112	112	11
12	20	1
109	111	5
84	86	3
4	5	1
125	138	1
53	53	4
51	51	2
50	55	2
141	141	6
144	146	7
18	23	6
108	125	5
66	99	1
51	53	2
16	17	6
80	130	7
36	37	4
40	41	4
36	36	10
66	67	2
119	121	3
39	39	8
118	125	3
20	25	1
144	145	2
7	28	2
83	83	5
64	64	6
132	152	3
138	140	2
123	125	3
107	108	3
83	85	3
107	114	3
8	9	9
88	89	4
34	46	2
108	126	1
90	91	4
35	52	2
63	64	3
29	30	6
6	64	1
131	134	4
115	115	3
73	121	2
6	6	3
12	12	4
27	29	3
37	37	2
111	119	1
34	70	3
64	69	1
116	117	3
103	141	2
118	139	2
48	51	2
40	114	3
101	106	3
52	56	1
128	128	5
76	124	2
30	31	1
119	120	1
103	103	3
39	50	1
48	50	1
37	97	1
102	103	1
108	121	3
55	55	8
120	126	1
4	7	8
107	138	1
37	38	1
54	54	5
69	69	2
38	93	3
94	97	2
33	47	2
145	145	3
56	70	4
12	39	2
4	67	1
65	66	1
109	110	3
21	21	6
52	54	5
100	130	3
15	27	6
153	154	2
144	156	2
51	83	3
38	57	2
23	24	3
14	14	4
108	108	4
37	45	1
117	120	3
16	21	5
83	84	2
127	137	3
107	137	2
144	157	3
71	96	3
20	21	4
22	51	2
66	66	3
124	126	1
38	38	3
16	147	2
133	142	1
96	129	2
92	92	3
86	87	2
65	88	4
71	80	1
138	144	5
39	80	1
48	49	3
49	49	1
77	79	1
141	142	1
6	8	1
26	30	2
15	16	3
44	71	2
4	6	1
137	138	6
120	121	2
132	156	1
14	19	2
37	43	1
68	68	8
141	145	1
25	30	2
146	153	1
69	96	2
136	147	3
150	152	3
16	25	3
72	72	3
25	32	2
28	31	1
105	106	4
158	158	1
140	141	1
102	104	1
43	91	2
7	7	2
79	81	1
23	29	1
36	90	3
0	1	6
54	89	2
70	71	2
157	158	1
152	153	2
2	2	3
80	82	1
92	93	3
37	44	1
133	133	2
122	143	2
97	98	2
107	121	1
110	111	6
149	150	1
18	24	2
42	50	1
68	69	2
41	90	1
42	77	1
43	55	1
137	158	1
49	88	1
149	149	2
36	41	1
44	54	2
114	124	1
138	154	2
21	28	1
56	69	1
119	119	4
132	144	3
54	70	2
54	69	1
56	57	3
96	145	1
115	116	1
108	127	1
109	122	1
21	55	1
146	157	1
52	52	2
35	47	1
136	145	2
66	84	1
41	42	2
108	111	1
81	91	1
123	127	1
90	103	1
37	40	1
66	68	1
108	124	1
13	19	1
76	78	3
110	114	1
63	88	1
14	126	2
11	124	2
53	83	1
82	91	5
49	50	1
54	55	2
122	124	2
151	155	1
137	141	1
148	152	2
21	31	2
48	48	3
96	147	1
131	156	2
118	126	3
9	55	1
113	114	1
145	146	1
17	123	1
15	21	1
58	62	1
33	48	1
35	69	1
147	155	1
20	31	1
40	47	1
22	25	2
28	50	1
47	55	1
125	126	1
122	130	1
109	109	1
38	41	1
26	46	1
2	4	1
121	127	1
28	29	1
122	136	2
130	150	1
146	147	1
134	135	1
142	145	2
18	153	2
76	77	2
13	30	2
79	101	1
139	144	1
106	107	1
22	26	1
139	140	1
36	92	1
107	142	1
127	153	1
51	56	1
12	13	1
22	48	1
137	148	1
69	70	1
