10	12	1
18	54	2
19	19	11
14	15	7
81	82	4
102	103	1
139	145	1
99	99	3
96	96	8
68	121	3
5	5	5
54	55	4
17	17	8
75	75	7
29	29	4
100	100	5
3	5	1
42	45	3
65	65	17
45	45	6
84	84	6
56	77	3
82	82	10
101	135	1
41	41	8
43	43	8
11	12	3
77	142	2
87	87	10
13	14	3
57	57	5
12	13	2
53	53	12
43	46	2
84	113	3
83	83	8
46	107	2
153	154	2
31	33	2
80	80	10
66	66	4
65	68	6
129	129	4
125	125	5
124	125	6
63	66	3
79	79	8
50	64	2
30	30	15
19	24	6
112	112	5
71	78	2
137	138	5
153	153	6
10	11	5
76	110	2
95	99	1
4	4	4
93	93	6
67	68	2
33	33	6
23	23	7
139	139	3
39	39	4
5	30	4
73	73	10
21	21	5
48	50	4
127	127	5
101	102	6
8	8	9
110	117	2
62	64	3
117	118	3
38	39	5
48	48	9
119	141	1
13	83	3
124	124	4
72	78	3
79	127	1
96	116	2
73	76	2
77	77	3
133	136	1
56	56	8
73	78	3
149	149	6
63	64	3
3	3	12
22	29	4
24	24	2
108	108	2
85	85	9
41	42	3
16	30	3
64	64	7
13	25	1
113	113	4
144	149	1
26	30	3
125	126	3
97	97	2
140	142	3
114	114	3
70	70	8
39	46	2
114	134	3
5	61	1
42	43	2
9	9	7
31	53	6
46	46	2
63	63	2
6	12	3
147	147	5
95	95	7
26	26	9
98	99	4
123	124	5
66	67	12
8	36	1
72	73	8
47	107	4
5	7	4
12	17	4
7	17	1
84	85	4
34	36	7
86	105	11
150	150	7
49	84	2
22	22	5
64	75	2
86	87	3
79	80	1
38	40	2
110	110	4
35	35	5
70	71	7
49	83	1
64	79	3
104	104	2
10	10	11
80	98	2
32	34	2
17	62	1
26	27	3
109	133	2
13	84	3
134	134	1
32	32	3
50	50	12
43	44	3
20	94	2
36	36	7
11	69	5
117	117	8
136	136	4
8	79	3
115	117	3
78	78	9
97	98	4
27	28	7
111	111	7
92	96	1
42	42	3
4	7	1
33	37	2
154	154	1
33	64	1
124	150	1
13	98	1
69	69	7
37	53	1
37	37	6
40	53	1
95	97	1
5	17	1
19	95	4
29	36	3
71	71	11
145	151	1
48	133	6
96	97	1
78	79	4
13	18	3
109	112	3
73	74	5
31	43	2
68	119	3
122	122	5
42	50	3
43	127	3
126	126	1
44	44	8
45	122	4
109	118	4
14	14	6
7	7	11
46	146	4
130	130	7
15	17	2
81	83	3
8	9	1
84	111	1
47	48	8
107	107	6
25	26	5
94	94	9
143	143	4
46	69	1
118	118	3
44	45	1
122	138	1
28	28	3
67	67	1
38	38	3
64	73	2
34	38	2
7	32	1
142	142	3
94	96	3
95	96	1
18	18	6
146	147	3
62	74	1
109	110	2
85	99	4
103	103	2
55	55	3
74	74	5
31	32	6
57	104	3
35	37	1
27	27	1
55	56	3
4	6	1
85	97	7
150	151	3
47	47	10
23	30	3
51	57	5
144	144	5
144	147	3
90	90	1
136	147	1
62	79	1
71	77	1
144	148	2
73	75	4
87	88	1
16	16	5
18	19	1
120	120	5
12	18	1
116	116	7
81	153	1
42	126	1
115	115	3
11	11	8
106	106	2
31	31	6
56	57	2
111	113	2
120	121	1
131	142	1
6	11	2
4	26	2
118	119	1
8	35	2
95	98	1
68	68	2
25	62	3
80	82	3
40	40	7
45	46	3
55	57	1
10	86	3
6	6	10
11	15	2
67	76	1
77	104	3
23	146	2
64	65	1
34	35	2
63	65	1
13	23	1
140	141	2
45	131	1
86	127	1
131	131	4
11	98	1
77	79	2
8	17	5
78	87	1
79	99	1
83	86	2
22	23	1
51	110	1
119	119	3
102	102	1
48	53	1
122	137	2
43	133	1
42	128	2
125	143	1
145	146	3
15	15	1
54	76	1
42	51	4
118	133	2
25	25	6
7	85	1
127	144	2
142	143	2
94	95	3
127	131	1
87	126	2
7	102	2
12	25	2
126	127	1
137	140	1
103	104	1
98	98	1
7	8	1
5	10	1
57	79	2
71	72	1
110	112	2
69	71	2
38	50	3
83	96	1
105	107	1
148	148	1
36	39	2
101	103	2
72	74	1
56	104	4
102	131	1
141	141	3
75	77	1
64	76	1
146	146	4
38	46	1
125	150	1
101	101	1
20	21	2
20	25	1
3	24	1
9	18	2
86	112	1
132	133	1
82	83	2
109	109	2
13	13	6
106	107	2
58	58	1
53	56	1
12	14	1
57	58	2
30	32	2
105	105	3
57	77	1
141	142	3
6	25	1
61	79	2
121	137	1
19	20	1
14	21	1
120	142	1
79	83	1
149	150	1
58	66	2
38	74	1
108	133	1
108	112	1
5	8	2
4	5	1
81	125	2
100	101	1
123	149	1
68	71	2
49	49	3
57	70	1
139	142	1
132	132	1
152	152	1
5	12	1
20	20	3
122	148	1
25	75	1
92	92	1
63	79	1
69	80	2
86	86	1
138	144	2
9	89	2
74	82	1
53	54	1
145	145	1
129	152	1
108	132	1
139	149	1
76	112	1
68	149	1
96	117	1
147	148	1
108	113	1
92	93	1
6	26	2
100	104	3
19	21	1
33	63	1
32	33	2
10	69	1
134	136	1
51	56	2
27	29	3
13	17	1
120	147	1
111	112	1
7	95	1
17	30	1
49	73	1
123	123	2
76	79	1
29	30	1
80	131	1
79	81	1
143	144	1
