72	72	14
47	47	19
46	46	12
115	117	1
98	101	6
41	42	10
38	38	3
42	43	1
99	100	6
109	109	14
103	105	2
74	75	4
130	131	6
72	73	6
58	58	3
65	66	4
59	59	9
12	12	17
15	16	1
4	4	8
69	70	3
89	90	6
80	80	19
57	59	2
100	100	14
132	132	6
87	87	2
48	48	16
122	122	8
49	49	10
116	117	3
120	127	1
105	106	1
91	92	4
120	129	5
71	71	8
63	63	6
19	21	13
8	8	2
121	122	1
94	95	5
73	73	12
61	61	7
62	62	13
44	44	7
33	33	3
27	29	4
101	101	8
85	85	11
90	91	2
99	99	14
10	10	6
116	116	9
18	21	4
54	56	2
121	121	16
74	74	7
64	64	5
57	57	12
3	3	6
118	118	6
19	20	7
83	84	11
78	79	11
52	53	6
31	31	5
0	1	1
71	73	1
47	64	6
104	105	8
88	90	7
53	53	20
2	2	8
129	129	5
105	109	1
19	19	11
100	101	5
97	98	8
18	18	7
29	29	8
51	51	5
83	87	2
65	65	6
92	92	6
71	72	6
20	20	15
30	30	5
95	95	16
102	118	2
8	9	4
105	105	7
119	119	9
45	45	18
15	15	13
81	83	5
109	111	3
49	50	11
68	69	3
112	112	14
86	92	2
127	127	7
66	72	4
107	126	5
43	44	2
68	68	11
130	130	2
102	102	3
88	95	1
52	52	6
124	124	3
107	132	3
129	130	7
13	13	16
0	0	5
125	125	14
77	77	7
56	56	12
58	59	6
42	42	1
55	55	29
105	129	4
103	103	13
109	110	6
23	24	3
54	81	1
117	117	12
81	81	9
117	131	5
123	124	10
60	60	5
62	88	4
90	109	2
29	30	5
100	109	4
76	77	1
110	110	5
115	126	2
66	68	2
86	86	5
97	97	7
84	85	6
94	94	1
108	108	14
66	71	3
60	90	6
88	88	4
67	73	6
126	126	9
102	133	6
21	21	7
75	75	2
15	56	3
89	89	7
82	82	6
127	128	2
73	75	3
113	114	4
107	107	3
113	113	3
51	53	2
113	115	1
24	25	2
68	73	1
1	1	11
54	54	9
7	7	4
1	2	2
11	11	4
92	93	5
48	49	9
131	131	5
34	34	1
39	39	4
115	115	3
26	31	1
95	96	4
50	105	1
96	97	3
14	14	1
110	123	2
16	17	2
117	125	6
106	106	7
63	80	2
98	98	4
65	71	1
23	23	6
46	47	6
93	93	5
9	10	3
69	72	1
6	6	10
96	120	3
53	90	1
16	18	1
106	107	6
73	74	4
66	66	8
96	96	5
52	54	1
68	72	2
120	121	3
125	130	2
5	13	1
38	112	1
82	85	1
120	120	5
126	129	2
4	6	4
72	76	4
106	124	1
102	132	1
60	61	2
111	113	1
22	22	1
2	8	1
123	125	2
66	67	1
25	25	3
130	132	2
112	113	3
77	78	4
119	120	2
26	26	4
43	43	7
50	50	4
25	26	3
133	133	5
39	40	2
100	103	2
47	54	1
51	72	1
131	132	8
57	64	1
51	52	3
126	128	1
124	125	2
128	128	1
39	41	4
102	103	2
81	82	2
10	11	4
80	81	1
125	126	3
5	5	4
113	124	4
23	40	3
69	124	6
65	67	4
16	23	1
48	57	3
11	12	4
111	111	5
77	79	3
128	130	1
114	114	3
104	104	2
69	69	8
61	81	1
14	15	2
61	62	1
56	60	1
126	127	2
76	76	6
16	56	2
4	5	1
79	81	3
90	90	8
7	8	1
114	115	2
101	103	1
112	127	1
19	33	1
27	27	5
46	54	1
30	40	2
55	65	1
16	16	2
5	6	2
107	108	1
115	119	2
91	93	1
40	40	4
132	133	1
79	80	1
45	46	3
28	29	2
79	79	4
101	102	2
92	121	2
3	4	1
98	99	1
67	68	2
123	123	4
28	28	5
17	39	1
32	32	2
84	84	2
63	64	1
41	87	1
55	63	1
72	74	1
91	91	1
127	130	2
48	58	1
99	108	1
21	33	3
44	45	1
83	83	2
80	94	2
9	9	2
55	56	1
56	80	1
26	29	1
107	127	1
3	7	1
78	78	2
117	118	1
97	99	1
82	83	1
44	46	2
70	71	1
80	99	3
24	24	1
118	119	1
88	89	1
57	58	1
83	86	2
108	109	1
58	81	1
80	96	1
13	14	1
72	97	1
122	123	1
58	96	1
69	105	1
