42	42	10
58	99	4
39	39	5
97	97	7
54	54	5
79	80	6
75	75	8
59	101	1
44	44	12
63	63	23
55	61	3
99	100	4
28	28	6
26	98	2
68	70	5
91	92	6
72	72	10
73	73	10
41	42	3
25	25	6
80	80	8
77	78	3
35	44	2
22	27	3
47	47	10
95	95	6
47	48	3
49	49	4
99	99	7
48	48	7
36	38	4
61	61	7
59	59	7
41	41	15
87	87	13
57	57	6
69	70	2
70	71	4
27	27	6
72	76	2
75	91	1
45	45	11
39	43	2
62	62	2
94	94	7
84	84	8
86	86	8
66	67	2
46	47	3
92	94	1
24	25	3
35	36	2
95	97	2
65	66	3
57	61	1
35	92	1
87	88	15
89	89	6
96	96	6
78	99	4
34	35	1
53	53	17
91	91	5
56	57	1
85	85	12
43	43	10
66	66	6
54	79	2
101	101	3
65	65	15
87	89	3
45	68	1
37	37	1
90	90	10
50	50	7
77	77	7
94	98	1
60	60	10
36	37	7
56	56	10
40	42	1
64	64	9
29	99	2
54	55	2
83	84	1
40	40	3
92	92	4
71	72	9
46	62	2
26	26	3
70	73	1
29	29	2
74	75	4
78	85	2
89	90	4
46	48	3
58	58	10
44	64	4
59	63	2
51	61	1
35	37	1
57	96	1
94	97	5
80	81	2
70	70	6
74	74	7
52	61	1
71	71	6
100	101	1
47	60	5
76	76	6
90	91	2
89	100	1
52	55	1
93	94	1
79	79	4
95	96	4
20	29	3
83	83	5
45	81	1
79	99	2
33	33	4
61	88	2
79	81	5
69	69	2
88	88	11
41	43	2
68	68	11
100	100	2
68	97	1
44	63	1
73	74	1
61	62	6
93	93	5
20	26	1
75	76	1
22	86	2
96	98	1
54	94	3
64	68	3
76	81	1
22	22	4
68	96	4
71	73	1
59	100	4
38	38	5
72	90	1
47	51	1
25	28	1
92	93	1
55	55	3
93	97	1
32	32	4
67	67	4
44	73	2
40	43	1
27	28	3
101	102	3
81	81	3
35	35	4
94	95	4
52	52	7
25	26	2
55	58	2
85	89	1
43	69	2
24	24	3
52	87	2
60	62	4
82	82	1
46	46	10
78	78	5
96	97	2
51	51	8
81	82	1
91	93	3
63	74	1
38	55	1
61	80	1
46	55	2
78	91	2
43	44	1
98	99	1
84	98	1
70	72	1
49	50	2
63	64	1
38	57	1
82	88	2
42	75	2
48	62	2
20	33	1
42	43	2
34	34	3
61	79	1
68	69	1
84	89	1
49	60	2
66	76	2
30	30	1
67	68	3
56	86	1
62	71	1
49	51	1
60	61	1
87	96	1
102	102	1
42	71	1
77	81	3
23	24	1
77	80	1
92	98	3
59	66	2
44	48	1
93	99	1
37	38	1
38	39	2
39	60	1
86	89	1
97	98	2
46	53	1
78	79	1
86	87	1
95	99	2
64	66	1
99	101	1
45	47	1
84	87	1
84	96	1
56	59	1
