6	7	3
19	21	3
71	71	5
84	85	8
5	7	1
108	118	4
112	113	3
117	118	4
107	107	7
120	120	13
99	132	5
61	62	1
122	122	5
94	95	1
76	76	7
1	6	3
30	31	3
97	98	3
110	110	1
63	95	2
60	61	9
69	69	9
60	96	3
77	77	6
37	37	5
126	127	4
101	101	10
16	16	7
72	72	2
119	121	2
69	80	3
18	131	1
104	104	13
130	130	2
101	102	4
17	21	1
99	100	2
58	59	6
79	79	5
54	54	6
93	94	4
121	121	3
74	74	4
128	128	4
34	96	2
73	73	3
54	55	4
85	85	4
115	115	9
105	105	4
43	43	9
93	121	2
74	79	3
30	38	3
118	118	8
45	46	4
119	119	5
93	93	4
94	128	3
67	68	6
62	63	6
133	133	4
33	52	3
80	80	5
106	134	2
20	20	5
107	135	3
36	36	1
19	111	2
123	123	10
7	7	5
1	2	3
0	0	1
38	61	1
63	76	2
42	45	1
112	112	12
15	21	3
110	132	1
49	76	1
56	57	6
78	78	1
94	94	7
32	35	2
10	10	4
83	110	2
111	128	2
63	65	2
98	98	6
102	102	9
82	110	1
60	81	3
79	80	5
120	121	4
70	71	3
69	124	1
4	4	2
132	132	4
13	16	2
49	49	1
38	38	3
33	55	4
34	52	1
91	91	6
47	47	3
75	75	7
67	67	2
23	24	3
104	105	3
106	133	1
49	50	3
116	116	8
48	49	3
52	52	2
131	131	5
83	83	9
106	106	2
101	121	1
99	99	5
117	117	5
30	30	4
55	56	2
32	34	5
13	14	2
111	130	5
23	23	3
62	62	4
25	25	2
68	68	2
87	87	1
9	9	2
96	96	1
14	14	7
29	29	6
22	22	1
99	101	1
123	127	2
97	97	2
90	91	4
64	64	2
66	75	2
102	103	1
108	108	5
92	92	4
45	45	4
63	63	6
69	70	1
99	134	1
95	95	3
120	122	2
93	128	1
2	2	6
61	61	6
3	3	4
115	116	3
66	66	3
86	111	4
132	133	3
81	84	2
58	58	3
125	125	4
65	65	2
81	81	4
78	83	1
83	111	3
50	50	6
9	10	2
59	60	4
93	95	6
105	133	3
70	70	1
104	112	2
31	36	1
6	6	1
59	59	2
77	119	1
14	15	3
66	113	1
26	27	3
24	30	2
126	126	1
119	122	1
26	26	1
82	83	1
61	106	1
121	122	1
96	97	1
114	114	3
17	17	2
95	103	3
30	35	1
103	103	1
109	109	1
109	110	1
129	130	1
65	68	1
28	28	1
33	33	1
134	134	3
36	37	1
47	49	1
90	90	2
75	134	1
45	133	4
121	123	1
55	76	1
92	110	1
86	87	1
1	3	2
67	107	2
87	130	1
56	56	1
53	54	1
106	107	2
84	84	1
56	64	1
61	95	2
100	100	1
113	113	2
31	34	2
66	86	3
60	64	1
127	127	4
73	125	2
86	110	1
12	12	1
24	31	2
69	79	1
130	131	1
77	78	2
89	89	1
10	11	2
55	77	2
1	4	1
110	128	1
66	67	2
6	12	1
81	126	2
8	44	1
11	11	2
68	119	4
82	82	2
107	108	1
57	79	1
88	88	2
108	129	1
118	122	2
110	111	1
100	105	1
14	21	1
65	113	1
122	123	2
92	122	1
95	96	1
3	4	1
78	79	2
129	133	1
92	111	1
81	82	1
84	87	1
78	107	1
124	124	2
124	125	1
109	133	1
81	95	1
111	111	1
44	44	1
62	64	1
59	108	1
12	33	1
33	34	1
66	107	1
53	53	1
