71	84	1
74	74	2
100	100	1
189	189	1
65	67	3
85	85	1
19	20	1
109	110	4
33	85	2
132	133	4
42	57	1
172	173	2
186	186	1
91	91	5
12	13	4
63	64	3
1	1	1
122	123	3
29	30	4
40	40	3
163	163	6
150	150	1
21	100	3
107	150	4
19	19	2
106	121	4
190	190	5
119	119	3
127	129	1
6	6	5
120	120	2
90	90	3
109	140	6
151	152	3
129	129	2
185	185	4
187	188	1
44	99	3
82	82	2
106	107	5
123	123	2
134	135	6
37	38	2
118	118	3
9	42	2
0	75	3
14	14	4
136	138	2
171	171	2
6	7	3
44	44	1
188	190	2
52	54	3
149	174	2
166	167	1
140	141	2
115	115	5
70	70	3
27	27	1
53	55	1
98	98	3
176	176	3
76	77	1
52	52	3
104	104	4
58	58	3
112	112	3
62	62	6
4	5	2
97	97	4
129	130	2
136	136	6
126	152	4
126	127	1
102	164	3
16	16	2
85	97	1
22	22	2
53	53	2
69	69	2
33	33	1
77	77	5
113	113	3
34	35	1
36	37	3
106	150	2
26	26	2
68	68	5
104	155	3
121	121	7
25	31	7
81	81	2
80	84	1
156	162	1
65	66	5
114	115	1
45	100	2
187	190	1
78	78	5
23	23	3
111	111	5
36	98	1
130	130	2
105	118	2
78	92	1
133	133	2
98	164	1
153	153	2
98	150	3
105	114	1
136	137	5
4	4	3
19	30	3
185	186	3
29	29	5
25	27	6
93	93	1
66	67	2
146	147	2
96	96	2
20	21	1
137	137	1
141	141	3
87	90	2
170	170	3
132	132	2
20	31	3
2	2	1
102	174	1
31	31	2
184	184	2
104	105	1
165	188	2
56	91	1
156	161	1
131	131	2
101	101	2
101	165	1
142	143	1
10	12	2
84	84	3
65	72	1
116	116	2
112	119	3
135	137	1
179	179	3
180	180	4
138	138	2
35	36	1
109	142	1
162	184	2
160	160	2
16	17	3
40	158	1
171	172	1
154	154	2
6	9	2
127	153	2
33	38	1
15	15	1
30	30	1
41	42	1
98	108	1
26	27	4
107	164	1
36	85	3
60	88	1
109	109	3
142	142	1
88	88	1
17	17	2
86	97	2
167	167	1
141	143	1
34	34	1
134	134	1
37	37	1
173	173	1
143	143	3
31	124	2
177	181	1
105	105	2
126	126	1
152	152	1
42	98	2
59	59	2
75	75	2
88	89	2
159	160	2
83	87	1
61	61	1
80	80	2
163	165	3
78	113	2
103	103	1
182	182	1
118	157	2
28	53	1
148	148	2
155	155	1
178	179	1
12	14	2
108	112	1
80	81	1
83	83	2
153	175	1
186	187	1
13	13	2
92	93	1
61	62	2
149	150	1
27	90	1
112	113	1
11	12	1
111	148	1
173	174	1
24	24	1
175	178	2
18	18	1
180	182	1
60	60	2
7	74	2
34	38	1
188	188	1
0	24	1
66	72	1
101	102	1
17	18	1
89	90	1
145	145	2
119	168	1
92	94	2
125	127	1
151	171	1
39	39	1
