148	148	7
135	135	14
140	140	8
187	188	9
18	18	16
104	155	2
163	163	5
165	165	18
177	178	4
64	74	2
116	117	3
6	6	15
101	122	5
195	195	7
40	51	4
126	146	4
123	123	7
7	8	2
158	158	12
196	196	11
23	23	11
85	85	6
117	130	1
142	142	8
93	184	2
9	9	12
70	71	2
160	160	11
126	133	2
110	145	5
47	47	10
168	183	5
115	115	18
70	136	1
30	30	16
78	81	3
117	117	12
162	169	5
187	187	9
117	180	5
193	193	14
30	31	6
12	12	16
120	120	3
164	169	2
8	8	6
103	103	10
74	75	3
15	15	10
1	95	2
49	187	4
4	13	7
59	60	11
118	118	6
105	119	1
61	61	11
139	139	13
131	182	2
28	28	5
27	27	16
131	131	7
24	25	6
173	173	7
172	176	2
154	161	3
124	124	14
40	58	1
184	184	18
186	187	14
161	165	5
48	48	12
37	37	11
4	51	5
104	133	3
152	152	12
111	174	2
110	174	3
188	188	10
11	12	3
112	112	8
11	166	1
143	143	5
185	196	4
66	66	2
89	89	10
43	75	2
70	70	4
168	170	3
116	155	1
122	140	2
4	5	3
103	104	3
102	103	10
79	79	8
179	179	12
131	147	5
192	193	4
140	175	1
149	149	20
133	133	12
54	57	4
160	172	6
180	191	3
137	192	4
117	147	7
81	81	4
69	69	11
77	77	3
125	125	8
2	10	3
108	116	5
119	165	5
39	51	1
39	39	7
6	26	2
58	59	4
145	145	12
83	85	3
144	153	4
168	182	4
129	129	5
159	159	5
132	140	2
43	43	11
49	49	21
166	166	13
155	155	12
159	160	3
155	158	6
71	71	5
114	115	6
133	149	3
161	162	3
95	95	7
164	178	6
2	2	6
154	154	12
172	172	5
149	158	6
151	151	11
16	17	2
122	158	2
84	85	4
111	116	4
170	170	16
133	140	3
128	129	2
182	182	16
79	147	6
122	125	1
167	167	10
70	168	3
80	176	7
53	53	18
101	101	3
154	175	2
69	72	2
35	35	6
116	118	3
137	154	4
22	22	10
106	106	17
35	44	2
147	148	4
161	164	1
32	32	4
40	56	6
147	147	10
134	139	5
146	146	11
156	192	4
25	25	7
149	172	4
143	175	3
111	177	11
147	171	2
144	174	4
50	58	1
168	168	24
146	147	13
9	75	1
14	14	10
11	11	17
194	194	14
114	114	4
180	180	10
122	122	8
155	192	1
156	156	15
174	174	5
104	104	23
116	116	9
150	150	9
16	29	8
187	196	2
82	82	5
113	113	8
148	154	3
3	95	2
10	10	5
105	172	2
67	67	5
113	146	4
96	97	7
179	180	4
96	96	3
123	133	3
19	20	11
38	39	2
107	180	1
117	139	2
162	162	11
56	56	3
58	58	3
64	75	1
161	161	17
28	29	6
17	17	17
3	4	3
100	100	6
117	118	9
137	148	1
171	171	5
93	182	3
0	0	8
108	135	8
156	157	2
107	119	8
105	106	12
185	194	7
119	120	5
112	113	4
185	185	10
156	160	2
134	135	4
19	19	7
109	109	16
114	188	4
18	19	1
173	176	6
155	156	8
154	155	6
150	156	6
22	63	3
151	183	4
93	97	1
138	138	5
103	105	2
145	174	3
54	54	5
100	112	3
183	183	5
34	63	2
43	44	5
105	105	13
50	50	1
100	180	4
125	126	3
134	148	1
52	52	4
42	42	3
19	68	2
120	139	2
102	102	9
189	189	11
119	175	3
168	172	6
104	156	1
88	88	5
6	7	2
40	41	4
169	169	14
186	186	12
49	62	1
79	153	4
4	4	9
141	141	4
120	170	2
64	64	7
179	181	1
8	12	2
45	169	1
158	159	12
38	38	2
45	45	12
174	191	3
119	119	4
115	128	5
38	87	2
42	85	3
55	55	6
177	177	19
50	57	2
44	46	3
52	53	5
147	193	1
110	110	3
190	190	7
20	21	5
37	68	1
165	166	10
55	58	1
39	59	2
76	76	1
161	163	2
84	84	4
33	33	9
73	73	1
34	74	4
190	192	4
167	184	4
99	169	3
51	58	9
157	160	2
68	68	9
19	67	1
151	176	2
145	150	2
17	18	4
40	40	3
130	146	5
127	127	7
75	75	3
113	164	1
9	10	3
94	94	3
151	178	3
182	183	2
144	144	9
63	63	6
1	80	1
153	153	9
117	162	5
74	88	1
14	66	1
146	155	1
4	30	4
100	109	1
136	136	7
150	194	8
147	151	6
31	31	7
176	176	6
55	56	2
51	51	11
124	125	2
150	167	5
52	94	2
113	114	2
41	76	4
80	81	2
177	197	1
110	130	6
150	193	4
98	113	1
5	6	7
94	185	2
170	183	3
141	149	6
186	188	2
130	130	5
129	189	4
15	24	3
94	95	9
118	119	2
153	189	2
158	181	2
173	175	2
15	28	1
191	191	9
168	185	1
149	157	2
5	5	5
65	66	2
21	72	2
79	148	4
193	194	1
192	192	7
109	143	1
145	146	2
169	175	3
132	182	2
190	191	2
169	194	2
157	157	6
127	142	3
110	144	1
157	158	3
54	55	6
77	79	2
46	72	3
178	178	2
3	8	2
134	134	6
148	149	3
115	140	2
139	163	1
83	83	3
1	1	4
13	13	9
26	26	6
111	111	3
67	115	2
21	21	3
137	161	3
1	54	2
174	176	1
71	72	3
178	180	2
121	134	2
188	190	1
155	181	1
36	36	10
125	137	1
1	2	4
164	177	3
111	120	2
13	69	1
27	71	2
45	46	4
34	62	2
170	171	2
27	69	1
11	38	2
149	150	2
9	41	4
172	175	2
129	190	5
21	65	3
20	63	1
140	192	3
53	94	1
146	153	5
36	62	1
4	69	2
39	40	4
64	65	3
21	36	1
121	168	1
59	61	2
54	56	4
186	189	3
99	112	2
191	194	8
148	158	1
84	142	1
169	179	7
48	195	1
19	26	1
16	16	4
100	107	1
79	172	2
32	33	4
23	25	2
10	27	2
121	157	1
9	34	2
101	102	4
150	168	1
170	172	1
140	163	1
175	175	2
107	138	2
181	191	1
72	72	6
117	136	2
73	74	4
100	101	1
116	191	2
152	153	3
197	197	11
62	62	3
32	42	5
24	24	5
120	165	2
35	75	2
21	24	1
163	164	4
126	126	1
34	35	5
46	187	1
160	161	3
37	84	2
87	87	4
174	175	3
7	7	4
132	147	2
130	171	3
0	51	1
30	80	3
163	194	3
20	20	6
2	4	2
90	90	1
152	176	3
27	42	3
177	179	3
168	169	1
18	23	2
135	136	5
176	178	4
151	190	3
132	132	8
147	169	2
102	138	1
180	181	2
117	146	1
147	192	3
100	136	2
191	192	2
125	138	1
77	78	2
77	89	1
35	36	5
94	143	2
27	33	2
178	181	1
46	69	1
98	116	1
7	34	2
116	137	1
188	189	1
80	80	2
18	26	4
166	182	4
86	87	2
28	66	3
184	185	2
143	176	2
50	63	2
127	130	1
67	68	1
142	143	2
44	44	3
163	169	2
107	107	2
117	137	4
181	181	4
116	125	1
64	73	1
108	112	1
148	159	4
111	112	2
86	86	2
129	188	1
81	82	2
124	133	1
33	35	1
128	128	8
137	139	1
94	96	1
20	37	2
179	190	1
132	133	3
154	176	3
115	119	2
112	132	2
145	165	1
49	186	4
164	164	4
103	119	1
135	191	1
35	39	1
196	197	2
130	131	1
45	69	1
119	132	3
121	124	1
106	107	2
3	3	7
133	134	5
67	75	1
195	196	1
177	190	1
34	34	1
75	89	1
153	155	2
99	113	2
130	148	2
100	132	1
119	121	2
101	123	1
13	46	1
142	178	3
31	32	2
98	131	2
8	21	1
3	55	2
112	136	1
21	22	1
99	148	4
143	177	1
2	67	1
117	119	1
107	108	1
110	172	1
12	44	1
27	74	1
162	163	2
145	168	1
30	69	1
178	179	1
99	99	3
131	135	1
126	143	1
52	57	1
53	54	3
121	174	3
116	163	1
122	173	2
119	158	1
45	70	1
135	137	4
10	11	5
155	161	1
8	63	1
109	110	1
112	121	1
134	184	1
97	135	1
29	29	1
166	173	1
165	180	2
82	89	2
137	137	3
19	62	1
156	167	1
137	150	1
136	191	1
82	84	1
178	182	2
27	34	3
109	126	2
94	98	1
127	128	1
14	15	1
116	164	1
175	178	1
131	143	2
78	180	2
108	121	1
33	34	1
26	28	2
175	177	1
83	84	1
15	16	1
60	60	1
16	24	1
184	186	2
102	119	1
97	98	3
41	77	1
6	14	2
76	88	1
169	170	1
66	86	1
4	93	1
72	73	1
77	80	1
112	164	1
75	88	1
100	174	1
73	85	1
12	58	1
166	190	1
70	73	1
95	96	1
156	158	3
146	148	1
166	181	1
158	193	2
5	26	1
167	180	1
165	191	1
119	157	1
88	89	1
136	171	3
12	16	1
8	11	1
137	163	1
0	2	2
124	150	1
170	180	2
98	148	1
194	195	1
99	119	1
47	183	1
37	66	1
130	136	1
116	130	1
41	41	2
25	32	1
16	66	1
10	39	1
116	140	2
134	147	2
7	23	2
121	156	1
118	137	1
41	42	1
114	127	1
86	180	1
140	173	1
116	152	1
0	1	1
185	186	2
116	136	2
138	139	1
102	123	1
27	28	1
124	149	1
8	76	1
14	70	1
46	71	1
101	157	1
145	153	1
57	57	1
97	97	1
108	108	1
20	23	1
174	180	1
