23	23	12
56	56	8
65	65	15
69	69	11
70	70	5
75	100	1
71	71	10
46	47	5
92	92	18
87	87	21
67	67	6
86	88	4
44	44	14
92	93	3
87	88	6
106	106	6
49	49	5
86	87	8
71	72	8
101	101	20
61	61	16
60	60	23
64	64	8
28	30	10
41	42	4
84	84	9
81	94	1
79	103	3
73	73	14
95	96	3
55	55	22
85	85	10
32	32	20
43	43	8
29	29	15
92	100	2
62	64	4
21	21	16
83	83	14
81	81	15
46	83	2
77	77	16
53	54	3
47	47	18
58	83	2
77	92	3
22	22	8
31	31	10
41	43	2
89	89	14
84	85	10
24	24	7
23	104	4
62	62	3
61	62	3
33	33	11
82	83	13
59	59	11
102	102	18
82	82	20
94	94	5
40	41	9
30	30	9
26	29	3
47	54	5
51	52	5
26	27	2
59	80	3
104	105	9
68	68	11
96	96	8
81	82	2
73	74	4
54	54	21
53	88	2
36	45	3
59	62	3
72	94	4
68	69	7
98	98	17
58	59	3
37	37	4
20	20	14
34	34	15
90	90	19
40	40	9
93	93	6
57	57	16
25	26	10
20	97	2
97	97	18
76	76	10
32	61	1
53	64	3
22	38	5
25	25	8
100	100	9
79	80	6
78	78	23
89	90	6
44	45	2
43	45	5
46	46	4
50	50	9
72	72	16
61	84	3
75	75	9
88	88	10
78	79	3
91	91	9
35	35	9
80	80	15
51	51	8
41	41	6
85	90	1
27	27	13
79	81	2
46	87	1
52	103	2
37	98	4
47	49	5
51	102	2
29	30	7
38	38	2
80	82	4
58	58	18
53	53	7
90	91	4
38	39	5
66	66	6
46	56	3
25	30	2
39	45	1
37	40	1
82	87	8
62	63	4
92	95	2
75	91	1
82	98	5
34	36	1
33	34	7
82	84	3
37	38	4
73	80	2
20	39	4
104	104	5
98	99	8
51	70	1
23	101	3
103	103	15
45	45	6
66	67	7
83	86	3
26	26	5
99	100	2
23	24	4
94	106	1
37	49	3
86	86	7
37	47	6
38	78	1
95	95	17
63	64	7
43	44	3
71	104	3
52	52	5
55	56	8
57	58	2
28	29	8
34	67	2
21	22	1
79	91	1
84	87	5
31	32	5
63	63	8
77	78	3
22	25	4
93	95	3
70	71	8
79	79	8
72	73	5
31	34	1
20	83	1
62	81	2
61	73	5
90	101	1
40	97	5
48	67	2
42	47	4
56	60	3
40	45	1
23	72	1
53	66	4
37	41	3
37	65	1
98	107	1
86	90	5
96	100	3
48	48	9
101	102	6
102	103	3
78	99	1
46	98	1
46	49	3
105	105	4
65	66	3
75	96	1
38	69	2
23	65	2
44	100	2
40	107	1
30	33	2
25	28	1
20	24	1
47	66	1
65	92	3
99	99	8
42	42	3
70	73	4
58	81	5
97	101	3
26	33	4
36	36	6
64	65	3
80	84	2
25	27	3
28	45	4
93	94	3
88	91	1
83	85	3
50	102	1
87	99	1
85	87	2
27	47	3
28	28	3
88	90	2
28	63	1
50	51	2
94	95	3
46	65	2
68	70	1
32	33	5
91	101	2
94	99	5
88	106	1
79	96	1
31	75	1
38	47	1
78	87	1
45	55	1
42	43	3
88	89	2
52	57	2
39	60	1
85	86	2
47	98	1
70	101	1
29	61	1
76	77	1
97	98	2
97	99	2
22	23	1
92	94	3
46	78	2
24	31	1
46	50	1
83	106	1
64	67	3
56	61	2
85	91	1
52	85	1
51	54	1
82	89	1
77	79	1
56	57	2
52	53	4
36	76	1
79	94	1
30	62	2
78	96	1
84	106	3
74	74	4
39	40	1
76	102	1
35	36	1
57	60	2
79	99	1
36	77	3
24	66	1
77	85	2
47	56	1
44	89	1
37	48	1
44	62	2
27	28	2
38	67	3
47	48	1
36	42	3
42	44	2
82	88	1
86	89	1
82	85	1
20	23	1
96	97	1
67	68	1
26	28	2
49	50	1
81	106	1
60	62	1
50	69	1
48	49	1
52	102	1
21	35	1
54	55	1
40	47	1
58	80	1
82	86	1
64	80	1
20	96	1
44	60	1
74	77	1
83	90	1
78	80	1
20	107	1
