54	54	26
175	175	12
155	155	20
113	115	5
14	14	14
181	182	8
89	89	9
144	151	7
35	35	3
110	110	31
98	98	4
45	45	33
156	157	10
185	185	17
52	52	34
125	125	29
177	177	27
119	142	5
124	125	20
173	173	26
27	31	3
49	49	26
56	57	11
114	114	26
96	96	17
196	196	24
120	120	20
103	104	11
136	196	7
1	2	8
187	187	34
180	182	6
0	1	2
190	191	8
101	101	24
32	32	5
193	194	10
3	3	10
169	193	3
118	119	13
191	191	19
26	26	17
112	112	18
182	182	21
164	165	15
100	100	18
156	156	16
34	64	4
70	76	10
132	132	15
5	7	3
10	14	7
133	133	28
37	37	18
16	16	33
148	148	32
107	107	21
149	149	65
63	72	3
193	193	41
123	123	14
183	183	34
186	186	27
129	129	33
76	76	12
16	30	2
171	171	46
180	180	18
172	176	16
67	68	12
172	174	9
43	44	13
195	195	24
73	74	10
188	188	22
79	80	12
11	11	35
67	67	2
179	180	7
159	191	2
172	172	59
144	145	6
31	32	9
166	166	24
58	58	29
122	122	41
41	41	14
29	32	3
8	9	10
146	146	21
95	95	6
168	169	22
187	188	26
192	192	14
41	69	3
103	195	1
51	51	21
13	13	32
58	65	3
119	119	19
102	102	21
170	171	12
174	175	4
179	179	7
144	148	5
160	160	12
122	143	2
176	177	12
162	163	8
124	124	36
84	84	9
25	25	8
194	194	37
57	57	16
140	149	2
39	39	27
150	150	35
121	121	23
9	11	2
96	97	5
197	197	31
128	128	27
69	69	18
116	116	13
180	181	13
53	54	9
176	176	19
175	178	5
169	170	21
17	17	20
49	50	3
66	70	3
44	45	4
31	31	13
161	161	15
6	42	1
65	66	6
64	65	5
130	131	15
154	158	4
125	126	5
142	142	40
169	169	34
39	40	4
24	40	5
111	111	40
168	168	27
114	120	1
41	42	6
71	76	2
159	159	23
15	32	9
127	127	49
185	186	3
140	140	22
157	158	6
101	102	10
143	143	8
173	175	6
120	122	4
34	34	22
185	187	6
22	22	8
145	145	26
181	183	2
118	131	4
25	26	7
71	71	12
15	31	3
149	150	19
6	13	1
128	129	7
166	174	3
157	157	15
163	164	17
124	126	3
28	29	14
130	156	2
106	107	3
18	18	13
58	62	6
164	164	26
16	17	21
59	78	3
44	44	20
141	141	41
113	114	5
0	45	4
179	185	4
22	23	3
39	41	2
175	176	6
153	154	16
106	109	3
12	12	15
53	55	1
7	174	6
64	64	12
23	53	1
136	136	27
63	63	13
16	54	1
9	9	30
24	38	4
153	156	4
120	121	19
97	97	12
186	187	19
16	57	3
79	79	25
87	88	5
24	24	12
16	58	3
170	170	37
184	184	41
116	187	2
181	181	13
179	184	2
42	43	6
14	139	4
34	36	7
156	159	1
56	56	19
148	150	7
55	56	5
43	43	16
27	27	12
133	159	1
87	87	6
112	113	26
134	149	2
74	77	3
72	72	8
130	130	24
140	143	2
12	13	10
5	6	4
145	146	7
47	47	32
123	195	4
172	183	4
147	148	4
26	27	5
152	170	7
156	160	4
106	106	9
99	99	9
8	8	4
2	2	21
15	189	7
147	147	20
67	69	1
177	180	7
162	162	16
196	197	15
153	153	13
42	42	14
93	94	10
77	77	4
153	155	8
190	190	33
171	172	19
107	109	1
36	36	28
117	117	25
135	135	14
165	166	9
109	111	4
114	133	5
62	62	6
15	15	15
118	118	14
8	188	3
154	157	2
118	193	3
64	78	1
103	106	5
151	169	5
38	39	6
119	120	18
125	197	2
134	134	11
99	100	7
162	164	3
163	163	14
109	109	17
50	50	32
30	30	9
20	22	2
57	58	6
29	29	17
152	152	11
12	169	2
19	32	2
103	103	6
30	59	6
107	108	4
6	6	18
131	131	20
61	61	15
126	127	17
86	86	20
112	122	4
36	38	6
113	113	46
10	10	11
48	49	8
142	144	6
166	170	4
161	162	11
62	78	3
189	192	2
21	22	11
14	169	3
141	142	4
33	33	22
142	143	9
95	96	2
137	140	6
139	140	4
136	191	2
155	157	11
154	154	6
11	149	4
6	9	9
143	144	14
169	194	2
52	53	7
135	136	8
51	55	8
54	55	6
189	189	32
190	192	8
133	141	1
158	193	1
70	70	6
121	129	1
188	189	6
73	73	5
142	146	1
132	150	6
17	59	3
162	182	1
147	176	2
177	179	4
83	83	4
178	178	15
174	177	1
171	183	7
78	79	7
10	11	14
76	78	2
184	187	8
122	142	3
153	172	2
121	123	7
46	46	25
58	59	3
175	181	1
143	145	4
176	179	4
194	195	6
45	46	8
38	38	25
20	20	7
108	111	12
122	123	7
150	169	4
9	13	10
15	16	5
22	60	2
174	176	1
169	186	4
4	28	1
117	118	3
167	168	5
0	9	3
146	148	7
14	15	5
98	99	2
154	155	6
21	21	19
121	122	5
187	193	2
150	159	4
55	55	9
172	184	2
131	156	2
158	161	5
167	167	9
137	137	19
15	110	7
169	183	4
62	66	1
188	190	3
151	151	26
159	160	6
115	116	3
6	7	7
191	192	8
61	66	3
163	170	2
179	181	4
52	54	2
95	113	3
134	136	3
171	196	1
53	53	17
47	48	4
184	185	5
25	36	1
186	188	7
163	169	2
115	120	1
182	183	13
176	178	9
65	65	9
169	171	7
82	82	8
150	155	1
144	144	17
102	189	6
184	188	5
192	193	9
40	68	2
66	68	5
59	59	6
105	106	4
93	95	5
0	0	7
66	67	3
141	193	6
134	150	2
141	194	7
90	90	5
174	174	8
112	141	3
20	26	4
131	142	3
61	74	2
134	135	8
158	178	1
171	197	1
36	70	4
108	108	8
173	174	9
29	31	4
164	166	3
138	138	11
104	106	2
158	159	6
5	8	8
160	161	2
172	173	2
119	135	3
48	48	27
68	69	7
9	10	7
185	194	3
145	147	3
104	190	1
114	115	9
18	21	6
7	7	6
16	59	2
68	68	17
74	75	1
158	158	4
11	12	11
187	189	11
115	188	2
18	19	2
17	113	3
165	165	10
83	84	2
122	129	4
24	33	3
110	116	5
151	166	3
140	141	7
165	167	9
83	85	7
186	190	2
3	4	7
155	156	2
1	4	2
111	142	2
118	121	3
102	103	13
108	110	1
160	171	2
117	137	2
172	175	5
36	37	9
0	33	2
52	62	3
85	86	7
150	152	3
15	188	1
144	146	4
94	94	8
31	111	3
139	139	5
170	194	3
37	38	9
38	70	2
133	134	5
4	4	12
5	5	6
24	34	3
61	65	2
127	128	5
165	181	5
175	177	3
170	193	2
47	54	3
161	163	3
2	3	6
18	59	3
10	12	4
0	43	4
192	194	1
119	129	1
19	22	7
7	165	2
176	183	1
186	189	4
132	139	3
84	145	3
85	85	3
78	78	9
116	117	7
126	126	15
53	88	2
24	26	2
24	25	4
56	188	1
67	169	1
19	24	2
5	189	1
42	45	2
80	81	1
163	171	3
23	35	2
59	62	4
182	190	4
104	119	3
171	184	2
40	40	6
122	128	2
14	193	2
25	34	1
28	28	6
164	174	4
146	147	5
163	166	1
164	179	2
35	36	7
153	159	2
134	186	2
168	187	3
151	152	4
144	147	2
20	27	1
11	148	3
61	62	3
16	189	4
24	64	2
108	109	5
107	111	2
115	119	2
84	86	1
73	78	6
1	1	10
115	194	1
168	170	1
160	179	2
153	181	2
123	172	3
152	172	5
52	56	5
129	130	4
13	187	1
184	195	2
28	32	1
70	71	2
138	139	3
110	111	4
0	11	4
15	193	2
141	149	1
27	50	1
101	136	3
126	132	1
28	30	5
88	156	5
116	186	3
103	136	3
189	190	1
73	75	3
140	142	2
49	187	3
38	66	4
23	33	6
19	21	2
166	167	2
151	156	1
129	131	6
117	135	1
32	50	4
65	67	6
194	196	3
178	179	2
23	23	7
93	93	1
189	194	1
7	178	2
39	70	3
29	30	4
137	192	1
133	148	2
172	178	1
99	101	2
131	132	1
23	30	1
163	182	2
101	103	2
149	171	3
16	112	4
116	120	2
105	105	7
70	77	3
27	28	4
19	34	6
6	8	4
115	115	9
137	138	1
176	182	1
16	43	2
161	166	3
0	2	1
168	179	2
179	194	1
163	168	4
34	65	1
152	154	6
160	163	1
32	33	7
138	163	3
123	124	2
195	196	4
152	153	4
55	87	4
183	193	3
131	155	3
34	35	4
160	162	3
81	86	4
43	45	1
58	71	8
104	104	3
74	76	3
166	182	1
46	47	6
18	29	1
116	118	2
8	166	3
74	74	4
7	8	6
43	78	3
123	125	1
22	63	1
159	183	2
139	177	2
13	188	1
88	88	6
4	189	1
157	193	2
58	60	2
132	133	2
136	141	2
61	64	1
76	77	4
163	179	1
172	193	4
170	185	2
68	163	2
165	172	3
56	58	1
183	187	3
188	193	1
150	193	1
132	135	3
70	73	4
1	23	1
102	114	1
147	149	2
135	137	2
160	164	2
84	147	3
104	105	1
152	158	1
149	172	1
15	20	1
128	197	1
115	131	1
37	70	2
155	160	1
171	176	1
106	117	3
116	183	3
137	191	2
14	138	1
48	50	1
33	47	2
63	74	2
26	36	1
3	19	1
15	169	1
61	72	1
18	52	1
114	188	1
132	149	1
50	55	3
3	7	1
2	4	2
112	121	1
121	126	2
21	23	3
151	165	3
71	72	2
178	180	4
131	135	4
12	14	1
89	90	3
105	118	3
20	21	2
61	77	1
126	131	2
54	56	1
172	182	4
100	101	5
111	112	2
135	140	2
16	51	2
13	169	1
6	178	1
183	184	1
13	190	2
160	190	3
25	28	2
185	188	3
111	113	1
22	40	1
141	183	2
102	105	1
132	158	1
3	5	1
132	134	1
170	192	1
159	165	2
193	195	2
30	31	1
103	119	1
97	113	1
183	185	1
102	115	1
161	180	2
102	104	2
97	114	1
66	74	1
179	183	1
33	64	1
158	165	1
117	188	1
186	192	1
11	13	3
150	157	2
115	117	3
5	9	1
164	172	1
81	81	1
59	61	2
48	53	1
113	118	1
42	44	2
103	109	1
109	117	1
119	121	1
52	88	1
94	96	1
128	196	2
136	137	2
4	5	3
109	142	1
123	136	1
37	72	1
133	138	1
177	178	1
156	158	2
74	78	1
17	20	2
72	74	3
106	138	1
23	34	1
23	24	1
131	134	1
165	189	2
4	10	1
151	175	1
30	37	1
161	164	1
81	84	1
120	129	1
109	110	1
168	172	1
16	113	1
13	50	1
179	182	3
174	178	1
103	108	1
111	115	1
131	137	1
13	15	1
166	172	1
135	138	2
26	28	2
114	118	2
137	139	1
122	195	1
87	90	1
53	60	1
70	72	1
46	48	2
140	146	2
54	88	1
13	16	2
141	182	1
50	51	1
128	149	1
111	197	1
134	169	1
13	14	1
