51	52	4
37	37	11
23	23	6
77	84	5
61	61	19
68	68	7
105	107	1
74	74	7
112	112	4
39	41	3
63	63	10
57	58	13
45	45	12
96	96	2
100	102	4
62	62	14
40	41	5
20	22	3
38	38	8
43	43	15
85	85	16
47	49	6
46	47	2
39	39	13
97	98	5
83	98	3
102	102	7
36	53	2
31	31	10
87	87	4
22	22	14
100	101	2
65	65	2
94	95	11
41	41	13
70	70	13
81	81	6
99	99	7
94	97	6
89	89	3
21	21	9
53	61	2
110	110	4
51	51	9
58	58	5
101	102	7
30	32	3
88	90	1
53	59	3
73	79	1
22	26	1
52	52	8
54	61	4
34	34	10
26	28	3
28	33	2
47	48	6
71	71	7
53	55	4
65	66	12
76	76	5
30	30	3
82	86	1
103	103	9
78	79	3
97	97	7
32	34	6
64	92	2
106	106	3
104	107	3
20	21	2
53	60	1
42	44	4
112	113	6
44	45	2
53	53	4
92	93	1
109	110	2
50	50	6
86	87	3
104	104	13
114	114	2
111	111	8
72	72	3
66	66	5
25	25	4
65	92	2
37	39	6
28	28	19
30	31	2
34	35	8
80	80	11
95	96	3
35	35	8
31	33	3
37	38	4
82	83	4
94	94	8
113	113	7
26	27	3
91	95	2
32	41	4
36	37	5
24	24	10
29	29	7
33	33	8
32	33	2
28	29	1
95	98	3
20	20	12
43	45	3
44	44	3
27	29	3
115	115	3
69	73	1
48	49	4
33	34	10
81	82	1
25	26	2
48	48	12
41	49	2
83	83	5
29	34	3
92	92	7
95	95	6
74	75	3
110	111	4
71	73	5
60	60	12
88	89	3
79	79	3
94	108	6
75	84	2
49	49	8
86	86	5
36	36	7
109	109	1
87	89	4
107	108	1
84	84	6
54	56	4
77	78	1
27	27	6
111	113	6
98	98	6
26	26	5
67	67	8
93	96	1
83	91	3
76	84	1
91	92	2
56	56	5
43	44	2
29	35	1
40	42	1
52	53	2
48	50	5
84	87	1
108	108	5
105	105	1
98	109	5
19	19	5
90	91	2
55	55	3
82	85	2
74	79	3
59	60	4
35	59	1
57	57	6
53	54	1
66	69	2
52	60	2
103	108	1
35	37	1
71	72	2
69	69	5
59	59	6
31	34	1
87	88	2
48	52	1
45	46	2
68	71	1
74	96	1
108	109	1
71	92	1
91	91	3
110	113	1
101	101	3
29	32	3
46	46	5
75	79	2
48	70	1
96	97	1
41	42	2
88	88	2
76	77	2
32	32	2
27	30	2
39	40	1
75	75	1
49	70	1
75	76	2
77	77	2
85	86	2
35	54	3
73	73	2
78	81	2
104	106	1
89	91	2
82	82	5
42	42	1
99	103	1
103	107	1
55	56	1
22	23	2
101	103	1
67	68	2
90	92	2
23	24	2
74	88	2
36	40	1
77	79	1
34	54	1
42	45	1
54	54	4
90	90	1
54	59	1
34	60	1
78	78	1
88	92	2
54	55	1
83	85	1
84	85	1
64	64	1
92	100	1
106	107	1
50	71	1
102	103	1
