25	29	5
6	21	1
73	73	17
1	5	1
17	17	18
48	48	22
28	28	19
19	19	11
26	26	10
20	20	17
55	55	10
72	72	13
37	37	19
2	69	1
10	10	3
36	36	11
10	19	3
32	33	7
45	45	13
38	39	11
0	0	8
38	38	15
11	13	1
31	31	9
29	30	15
41	41	33
10	11	4
58	58	19
9	9	11
77	77	5
14	14	12
8	8	22
60	60	10
30	33	4
70	71	10
1	1	14
9	13	4
35	36	3
40	40	21
5	5	14
47	48	6
17	18	5
9	12	4
71	71	12
28	46	4
15	16	2
53	56	6
78	78	6
20	21	2
7	7	14
75	75	4
44	44	2
69	69	10
56	56	16
33	33	30
72	78	6
54	54	20
63	63	12
47	47	13
65	65	17
50	51	3
53	54	5
70	70	19
61	61	16
57	57	15
8	9	7
35	35	18
65	67	3
65	78	2
46	46	5
7	27	2
21	21	4
1	38	2
2	2	10
59	59	6
31	32	3
30	30	14
2	67	2
67	68	5
32	32	5
16	16	4
53	53	6
68	68	7
46	65	9
69	77	3
11	11	7
9	25	2
54	67	1
4	5	1
68	69	10
57	65	1
64	64	7
50	54	6
63	70	3
49	50	10
79	79	12
49	52	6
72	75	2
25	25	6
49	49	17
19	20	2
7	8	4
30	31	9
72	73	7
55	63	1
70	75	3
74	79	2
58	59	1
74	74	11
1	2	11
27	27	4
42	42	19
43	43	7
4	4	6
55	56	5
18	18	3
0	72	2
31	34	3
34	35	1
39	39	23
1	17	2
74	75	13
29	49	2
62	62	8
36	45	2
66	66	5
15	17	2
44	46	3
31	52	1
26	30	3
65	70	6
2	13	1
3	29	2
70	74	1
1	16	2
63	64	4
39	40	5
59	62	3
76	76	18
64	66	1
57	58	6
73	74	4
46	66	4
45	46	3
6	6	12
67	67	8
27	28	3
29	29	13
78	79	5
38	46	1
4	61	2
1	70	2
80	80	4
70	72	4
50	50	4
25	26	3
37	38	2
45	48	1
2	3	4
44	54	2
69	70	8
27	75	2
71	74	3
12	13	1
37	39	3
35	59	9
48	67	7
3	3	5
42	48	3
39	41	3
3	5	2
9	10	3
65	66	7
36	38	1
34	46	1
34	34	4
45	47	2
28	29	4
80	81	4
55	70	2
46	48	1
6	7	1
68	72	3
67	76	1
5	6	4
2	12	3
76	80	5
48	64	1
5	8	1
39	46	2
9	80	5
14	18	1
3	53	1
62	64	1
71	75	2
16	17	4
71	76	1
3	9	1
59	60	5
51	54	4
28	79	3
27	77	1
31	56	1
15	15	3
40	41	2
3	4	3
48	49	3
3	6	2
11	27	2
50	53	2
77	78	2
71	72	3
13	13	2
59	61	1
76	79	1
15	18	1
19	55	2
20	39	1
1	48	3
12	12	3
74	80	1
39	44	1
4	48	1
34	48	1
55	64	1
28	57	1
44	45	1
57	60	1
5	26	1
64	70	1
12	31	2
41	47	1
58	61	2
60	61	1
54	56	1
63	65	1
16	26	1
7	9	2
61	70	1
30	49	4
72	77	2
14	15	1
9	78	1
0	20	2
39	57	1
58	63	1
8	17	1
3	67	1
8	10	1
70	77	1
20	55	1
