97	98	7
26	30	1
93	93	36
57	59	5
61	61	13
43	43	19
21	22	5
82	82	18
102	102	26
65	65	19
85	85	13
105	105	19
78	79	12
44	44	11
27	58	3
40	40	24
62	63	12
103	103	11
84	85	9
70	71	14
73	73	24
92	106	1
51	53	2
81	82	6
71	78	7
64	64	17
28	28	11
65	68	2
59	59	18
83	83	26
36	37	6
34	34	24
29	29	19
35	35	15
99	99	13
80	80	6
53	53	14
76	76	18
37	37	15
80	86	2
63	63	16
81	81	18
97	97	23
100	101	4
90	90	4
31	33	4
60	60	15
79	79	12
47	48	4
27	28	5
96	98	1
31	100	5
49	49	28
37	39	8
40	42	6
69	69	29
36	36	17
56	56	16
51	51	10
70	70	11
51	80	3
89	89	22
59	60	4
28	46	2
67	67	10
93	95	7
38	100	2
32	33	10
22	22	15
31	39	5
58	58	29
95	96	4
77	91	2
21	21	15
53	65	1
77	77	21
70	82	2
26	26	15
72	72	4
74	74	12
32	85	1
88	89	7
68	68	21
46	46	6
87	88	7
28	32	2
100	100	22
72	74	4
33	34	17
101	105	6
50	50	13
64	65	8
85	86	7
27	44	2
69	81	1
83	88	5
27	43	2
98	98	18
61	62	10
48	48	11
43	57	2
22	23	5
30	30	11
47	47	6
33	33	13
42	43	8
90	99	1
21	54	4
94	94	14
106	106	4
56	60	8
86	88	8
95	95	17
66	67	7
86	86	13
62	62	20
78	78	8
41	41	13
25	25	5
97	99	8
96	96	9
22	59	4
63	64	6
66	66	5
64	70	4
25	58	4
69	70	4
58	60	1
53	54	4
92	92	12
77	78	3
67	78	2
31	31	21
23	23	15
84	84	11
51	52	8
43	45	1
75	75	19
54	54	12
45	58	7
65	87	4
83	84	4
53	58	2
35	37	5
32	36	2
71	72	4
101	101	25
98	99	8
45	79	3
60	61	3
71	75	3
27	27	12
32	32	12
52	54	6
91	91	13
72	81	4
88	91	1
51	54	4
41	42	5
72	79	1
45	45	11
49	66	3
22	25	5
50	68	7
37	40	3
86	87	6
49	78	3
42	42	14
38	38	16
39	107	1
53	55	2
52	52	11
72	73	6
93	98	2
92	94	2
20	25	2
73	74	3
90	91	8
55	58	5
104	105	8
52	57	2
82	88	3
58	59	6
85	87	7
41	45	4
31	32	8
65	66	8
81	90	3
76	77	8
74	75	7
70	101	1
53	94	1
63	75	3
102	103	2
92	96	3
39	40	1
26	46	4
101	102	8
42	44	4
96	97	4
107	107	6
46	47	6
28	30	3
63	68	7
55	64	3
40	41	3
63	65	1
22	57	3
76	78	4
36	38	3
28	58	3
67	69	2
52	53	8
79	80	6
49	79	4
68	69	9
87	87	10
68	75	2
52	91	4
43	44	2
83	86	4
23	24	2
38	39	11
45	47	1
56	57	6
104	104	10
80	81	5
38	104	1
30	33	4
105	106	4
24	25	2
71	71	8
81	86	4
64	77	1
83	85	2
33	83	1
82	84	1
88	88	10
84	87	1
64	69	2
89	90	7
21	55	2
38	44	2
93	105	1
76	91	8
35	75	1
75	76	4
93	96	5
67	88	2
39	39	7
75	77	1
84	88	5
75	96	1
40	44	4
57	58	2
25	28	3
92	93	3
99	101	1
106	107	2
21	24	4
93	94	7
25	29	1
55	55	7
95	97	2
29	30	4
81	84	3
35	105	4
84	86	2
53	69	3
41	46	2
32	34	2
22	26	4
53	64	1
27	29	4
40	43	1
51	81	1
24	24	4
47	49	2
75	78	4
62	65	1
37	38	4
69	75	1
76	79	2
95	101	1
49	51	2
67	68	1
25	26	7
20	20	1
91	92	4
69	76	2
59	61	2
80	90	1
48	49	2
39	58	1
82	86	1
63	69	2
82	87	3
74	91	1
30	31	3
72	78	2
41	47	2
54	55	1
92	95	1
32	35	4
70	78	1
57	57	5
82	83	2
68	100	1
34	37	2
28	29	3
52	55	1
31	36	5
104	106	3
25	27	2
76	96	1
78	80	1
30	34	1
90	100	2
33	41	3
81	87	1
47	50	1
90	97	1
50	51	2
66	70	1
53	59	1
68	88	3
96	101	1
76	89	1
67	87	2
95	99	2
30	32	2
20	21	1
29	60	1
78	82	1
37	71	1
45	49	4
39	81	1
59	62	1
73	75	2
20	48	2
71	83	2
65	76	1
71	74	1
26	28	1
35	36	1
49	80	1
55	59	1
53	60	1
85	88	1
