55	69	5
37	38	2
57	57	12
64	64	15
58	59	7
35	35	19
43	43	24
73	73	16
36	37	8
88	88	7
45	46	5
67	67	11
95	95	6
55	56	5
50	51	2
33	33	25
97	97	11
68	68	18
77	77	8
40	40	18
54	56	2
72	73	7
92	92	23
41	42	5
84	89	4
44	44	13
93	94	7
60	62	3
89	89	23
55	55	15
39	39	21
24	25	1
68	71	5
82	82	8
86	86	23
36	36	7
45	45	13
86	92	2
92	93	4
63	64	10
30	30	1
61	62	4
42	42	12
69	69	25
38	39	4
61	63	3
49	51	6
52	52	15
33	46	5
84	84	12
48	48	11
50	50	11
55	81	6
39	40	10
69	70	9
81	82	9
63	65	6
49	90	2
56	90	1
60	60	12
74	75	1
53	70	3
53	54	9
72	72	20
41	41	27
99	99	24
61	61	14
31	31	17
71	71	16
93	97	3
33	48	3
83	93	4
58	58	20
31	32	3
59	59	21
87	88	7
98	98	20
54	55	6
26	26	3
90	90	14
76	76	15
52	57	4
44	45	5
81	92	3
46	46	25
29	30	3
47	52	6
26	27	1
100	100	13
25	25	3
47	48	6
91	91	10
90	91	8
89	90	7
65	65	17
84	101	1
42	43	3
85	86	4
51	51	10
94	97	2
78	78	15
94	96	1
95	97	7
93	93	16
46	54	1
101	101	25
35	37	3
84	85	3
49	49	17
38	38	11
48	49	4
72	77	1
77	78	2
66	66	17
54	54	6
49	50	7
85	101	1
23	23	7
70	71	3
52	89	4
96	97	2
67	68	5
44	78	3
91	92	6
94	94	11
79	79	16
75	75	10
96	96	7
32	33	2
78	79	7
79	81	4
60	61	9
53	53	5
54	79	2
84	92	1
81	81	13
65	66	9
35	36	2
22	22	1
92	98	4
67	69	5
25	26	9
52	54	3
56	56	10
79	80	5
62	62	8
97	98	5
100	101	3
33	90	2
80	80	12
74	78	1
55	94	3
31	33	2
37	37	4
74	74	11
35	46	3
91	94	1
66	67	5
52	53	6
32	32	4
57	58	12
86	93	2
34	34	11
29	29	10
34	35	9
50	52	4
56	57	4
63	63	8
51	100	4
99	100	3
84	93	2
83	85	3
78	80	3
53	69	1
83	83	11
24	26	2
78	96	1
70	70	11
33	34	10
85	92	1
59	60	6
62	64	1
86	87	7
51	52	1
86	88	1
90	92	2
48	50	2
46	71	3
80	81	2
87	87	6
90	99	6
45	47	1
88	89	3
71	72	2
86	98	1
96	98	6
55	61	3
53	80	2
55	70	2
89	100	1
94	95	1
80	84	1
27	29	1
23	24	2
34	39	1
47	47	4
75	76	3
45	67	2
53	68	2
54	81	1
101	102	1
59	62	3
21	25	1
56	76	2
40	41	2
51	55	1
49	55	2
59	61	1
65	72	1
85	85	6
23	25	1
69	71	3
44	67	1
24	27	2
80	83	2
85	88	1
79	101	1
91	93	1
33	36	2
71	73	2
95	98	2
68	69	4
25	30	1
38	40	1
29	31	1
46	69	1
79	99	1
59	68	1
30	31	1
79	98	1
28	52	1
76	77	1
48	90	1
62	63	2
80	101	1
102	102	4
27	28	1
65	67	1
98	99	1
67	72	1
87	89	1
57	73	1
28	28	3
94	98	2
95	96	3
24	24	1
73	74	1
77	80	1
25	64	1
28	29	1
