78	78	19
201	201	10
28	116	1
81	81	18
45	45	19
89	89	10
169	169	11
209	209	5
215	217	7
159	159	11
82	82	10
168	168	20
72	72	4
177	177	37
213	213	32
150	150	38
37	38	16
158	168	9
186	186	24
89	91	4
223	224	8
35	36	6
4	5	11
114	115	9
56	57	3
239	239	19
214	238	1
96	226	4
95	228	4
210	210	13
85	85	16
65	65	6
235	235	9
207	207	16
12	12	18
180	181	9
9	10	7
240	241	21
29	29	8
168	169	17
238	239	12
244	248	3
25	25	14
112	113	3
160	160	31
186	187	15
180	187	1
231	231	11
22	22	10
102	103	2
112	112	8
152	152	21
216	217	15
76	76	4
2	3	3
60	87	1
194	194	16
171	171	37
145	145	9
51	51	7
151	164	2
42	43	10
86	87	7
108	109	5
73	74	4
145	147	1
99	100	11
56	56	10
146	146	3
37	37	13
58	58	12
212	212	24
62	62	14
111	111	13
228	230	2
200	200	17
177	206	2
44	44	23
206	206	10
212	213	3
197	197	19
6	6	15
46	46	14
211	212	10
215	215	11
187	188	8
90	91	4
17	20	3
98	98	18
20	20	22
15	15	14
91	91	18
178	179	2
115	115	22
112	246	2
116	116	9
162	162	21
164	164	20
72	109	2
205	205	5
73	73	10
196	196	12
70	70	9
95	97	1
155	155	18
0	1	3
154	154	22
165	166	10
153	153	17
236	236	13
92	92	15
2	2	5
225	225	8
230	231	3
55	55	16
152	167	4
147	147	9
10	10	7
23	112	3
241	242	9
151	151	16
179	185	2
28	28	11
61	61	17
170	170	23
172	173	8
220	220	13
43	44	7
34	35	3
247	247	6
68	69	3
246	246	7
203	204	4
232	232	8
198	200	5
216	216	19
80	80	10
105	105	9
203	203	24
178	178	22
81	85	2
63	64	7
95	95	9
231	232	4
230	230	5
158	158	17
18	20	3
199	199	8
80	82	6
157	167	1
202	202	16
166	167	6
79	248	12
167	167	18
195	195	5
223	223	12
13	34	4
163	164	10
78	79	4
204	204	19
166	166	11
226	226	9
31	31	8
2	4	2
183	196	3
87	87	15
24	24	23
243	243	11
58	60	2
1	101	3
182	238	2
223	235	1
47	47	19
226	228	3
70	71	5
204	205	10
240	240	15
165	165	12
187	189	6
222	223	6
84	84	15
96	97	6
228	228	2
160	207	2
53	54	4
71	74	1
14	14	8
16	17	2
203	235	4
198	198	18
57	62	1
73	88	8
93	93	9
24	25	5
180	180	17
159	175	3
173	173	9
110	110	6
63	63	16
41	41	20
42	42	19
182	183	8
18	18	9
179	179	24
74	74	12
69	88	4
192	193	7
10	191	4
100	100	6
194	196	2
41	44	1
156	157	4
17	17	4
207	208	5
110	116	1
26	26	15
245	246	12
233	233	9
8	8	6
224	224	2
113	114	5
48	48	8
62	63	12
55	56	1
163	165	3
54	55	8
149	166	3
16	16	7
202	203	8
109	110	7
211	211	11
205	210	1
159	210	2
20	21	3
113	115	8
193	195	5
95	96	1
234	234	5
94	94	17
157	158	8
185	186	7
58	62	3
172	172	10
94	97	5
156	156	18
77	77	7
45	53	2
71	73	3
238	238	16
83	84	3
234	235	8
11	34	3
171	181	3
160	161	6
119	246	4
108	108	10
202	204	1
64	64	7
161	162	8
206	207	2
237	239	3
158	159	4
59	59	11
242	244	5
169	170	16
219	219	11
15	18	4
163	163	8
188	188	6
182	182	16
75	75	12
167	168	16
208	209	10
35	35	2
102	102	10
114	117	2
17	23	1
183	183	19
9	9	10
107	107	9
118	118	12
227	228	11
91	93	1
33	33	5
88	88	12
52	52	15
72	73	3
119	119	9
221	221	15
162	163	6
245	245	18
227	227	21
23	23	5
32	32	10
213	214	13
15	16	3
80	81	4
194	195	6
65	66	9
104	104	15
73	100	3
185	185	13
31	64	3
157	159	3
160	208	2
177	178	15
183	186	6
117	117	14
106	106	2
239	240	10
19	20	5
221	222	7
50	50	11
7	7	13
104	105	3
36	36	9
152	166	5
176	208	2
192	194	3
171	172	8
229	229	5
116	118	7
214	214	12
193	193	12
238	240	2
218	218	4
230	232	3
162	187	3
10	209	2
151	152	6
94	98	1
159	160	5
107	109	2
76	77	6
205	228	1
49	49	8
107	108	14
150	151	1
10	41	3
157	157	14
215	216	7
71	71	15
191	191	11
174	174	5
93	111	5
176	176	4
217	237	7
114	114	9
196	197	5
212	222	3
48	62	2
61	62	14
53	55	6
77	78	8
248	248	11
175	175	11
172	174	8
60	60	21
67	67	8
190	190	17
208	208	18
6	7	11
186	191	4
152	162	1
244	244	14
81	82	18
236	241	1
5	5	11
218	219	5
191	192	3
77	89	5
189	189	10
8	160	2
106	107	4
84	85	4
115	116	18
161	161	10
21	21	8
237	240	8
5	6	5
89	106	3
31	49	6
190	192	4
61	63	4
177	208	5
68	68	5
200	201	4
155	226	3
86	86	12
192	192	15
85	87	7
171	174	3
48	81	2
52	53	5
19	28	3
57	58	11
116	117	10
4	4	4
162	189	2
41	42	3
79	79	7
197	199	3
90	90	5
235	236	3
1	1	10
61	79	1
12	18	1
69	69	13
86	117	1
190	193	3
181	183	7
47	48	4
237	237	14
187	187	14
177	237	2
153	154	2
224	226	4
117	118	7
56	60	4
175	197	2
14	18	7
12	19	4
87	88	6
54	54	4
96	96	3
176	210	4
34	34	8
45	46	2
247	248	5
184	184	10
205	206	2
78	164	4
103	104	2
160	209	2
75	77	4
181	181	18
149	149	3
217	217	4
218	237	7
222	222	4
49	50	2
22	94	2
33	67	1
224	225	2
188	189	5
154	162	3
99	99	11
83	83	4
19	19	10
53	64	3
55	63	2
161	209	1
182	193	2
83	107	3
168	184	5
3	6	1
53	53	11
114	116	3
214	215	11
27	27	4
187	192	5
76	86	1
208	212	1
166	184	3
186	192	4
93	94	3
22	23	3
198	199	6
13	13	2
212	237	2
172	175	6
237	238	7
5	7	2
175	176	9
5	233	2
67	70	4
118	120	3
161	186	1
111	112	9
177	182	3
113	113	8
165	210	5
60	157	2
171	175	6
88	89	4
4	18	2
152	153	3
210	211	3
209	213	4
157	166	2
109	109	21
75	76	2
166	194	3
2	6	2
111	119	3
57	57	5
79	80	3
38	38	8
162	210	2
60	61	3
184	185	4
233	234	11
11	11	9
55	62	1
225	226	7
244	245	2
192	195	2
176	178	1
178	239	3
96	101	3
56	58	4
82	86	3
210	246	2
120	237	1
31	52	2
242	242	11
246	248	4
119	120	4
148	148	1
64	87	2
162	165	4
97	99	3
5	228	1
209	210	2
81	101	3
195	196	4
223	225	1
114	119	1
23	93	2
146	147	5
171	196	3
228	229	7
44	45	4
15	174	1
37	59	2
83	85	1
64	65	3
35	37	4
175	179	1
227	229	2
4	6	4
229	230	5
32	33	4
157	163	1
110	111	7
30	31	4
58	61	4
36	37	1
214	216	1
118	119	8
71	220	2
55	59	1
110	186	3
211	238	1
197	198	3
156	167	2
6	8	1
241	241	9
165	211	1
145	242	4
11	38	1
155	169	1
233	247	1
238	247	3
178	187	1
18	24	3
3	3	4
153	163	6
179	180	9
40	40	2
112	114	4
170	171	4
201	203	1
74	75	1
144	144	1
12	14	2
173	174	8
32	64	1
170	181	2
183	184	3
5	99	1
37	86	3
239	243	3
174	175	4
76	78	1
178	191	2
181	184	3
145	155	1
95	99	3
199	230	1
77	79	4
16	33	3
39	39	3
28	29	5
89	90	4
163	211	2
55	57	3
211	241	1
170	183	1
186	188	5
72	77	3
34	50	2
178	180	2
46	54	1
39	62	2
46	65	1
162	179	4
97	98	1
82	108	1
17	28	3
183	185	4
178	237	3
84	92	1
29	30	1
52	62	1
181	182	1
169	174	2
163	210	1
225	232	4
96	98	5
158	162	2
27	28	3
43	43	4
58	59	2
46	47	1
76	82	2
177	188	2
162	166	1
85	101	2
178	190	1
30	30	4
67	85	1
179	208	2
14	20	1
188	190	1
3	5	3
226	227	1
8	10	1
104	106	3
94	95	2
179	186	1
187	191	3
97	224	2
117	244	2
95	98	2
144	237	1
94	116	1
120	120	3
53	58	1
222	225	1
220	222	6
56	78	2
26	27	4
245	247	2
156	169	3
46	48	1
58	78	2
51	60	3
246	247	1
54	65	3
179	181	1
218	220	1
10	11	2
76	92	2
69	70	1
239	241	1
7	8	2
40	41	2
178	184	1
240	242	1
67	88	3
165	185	1
101	101	2
103	103	3
97	97	4
172	180	2
75	101	2
196	199	1
29	31	1
214	240	1
93	207	1
86	101	1
18	21	1
25	26	3
193	230	2
66	66	3
2	5	1
157	175	3
178	208	4
78	91	4
85	88	1
189	190	1
100	101	1
102	106	1
86	102	1
228	231	1
62	64	3
40	64	1
170	176	1
186	189	2
160	188	1
181	192	1
111	237	1
81	206	2
219	220	2
15	17	2
50	183	1
67	68	1
31	53	2
53	234	2
51	52	1
242	243	1
112	115	1
192	196	1
145	146	3
175	188	1
13	36	1
71	72	1
23	24	2
40	53	1
154	155	1
68	70	1
201	213	1
185	200	1
41	100	1
94	106	1
177	209	1
190	191	1
13	17	1
3	4	1
97	226	2
58	79	1
160	180	1
14	34	2
184	190	1
181	237	1
36	39	2
48	82	2
215	238	1
14	49	2
39	40	1
222	236	4
75	92	2
173	176	1
175	186	1
8	188	1
50	51	2
98	99	1
57	68	1
172	197	1
98	224	1
17	18	1
93	99	3
78	81	1
161	163	1
193	194	4
244	246	1
102	104	1
110	117	1
95	226	2
34	37	1
32	100	1
66	67	1
168	174	1
56	62	1
81	100	1
94	225	1
96	224	1
29	54	2
225	244	1
85	86	1
165	209	1
229	231	1
50	57	1
59	88	1
68	88	1
96	233	1
217	218	1
69	90	1
160	162	1
21	22	1
64	67	1
65	67	2
4	226	1
212	214	1
92	93	1
186	195	1
38	53	1
236	237	1
