75	75	12
38	92	3
47	100	2
55	55	6
61	62	1
25	25	6
62	66	3
76	76	7
69	70	2
104	104	4
26	31	2
58	58	8
57	57	5
87	87	4
48	90	1
73	73	3
52	52	1
72	107	1
62	63	9
33	41	2
100	100	3
26	100	1
77	77	5
31	104	1
43	43	6
29	29	9
103	103	7
91	91	5
78	81	3
78	78	10
32	101	5
39	53	1
71	71	5
53	54	2
96	96	3
82	109	1
35	36	4
21	21	3
48	48	6
64	102	3
85	107	1
84	84	3
66	66	2
60	60	3
62	65	4
36	37	5
31	31	7
39	94	3
55	95	3
105	106	4
31	77	2
33	33	6
86	86	3
30	31	2
28	29	2
37	61	4
47	89	1
54	54	10
34	34	5
26	101	2
38	93	3
21	25	1
45	45	3
69	71	2
81	81	4
101	101	7
39	102	1
101	102	1
63	64	2
104	105	2
111	111	3
70	70	4
22	85	2
26	26	1
88	88	3
67	76	6
22	95	4
49	54	1
78	79	7
104	108	5
105	105	6
85	85	5
51	51	5
67	70	3
74	74	2
37	37	10
85	97	2
94	94	3
42	44	1
111	112	5
32	97	1
64	65	2
74	75	3
81	85	1
66	67	2
72	72	3
82	82	1
107	107	4
34	35	5
77	78	4
109	110	2
30	30	5
93	94	1
27	53	1
35	35	10
59	59	5
59	76	1
49	55	3
56	58	2
96	97	3
90	91	3
22	22	3
33	35	1
68	69	6
54	89	2
46	46	7
47	47	6
62	62	6
68	68	2
35	53	2
39	40	5
103	104	2
32	32	4
22	23	3
45	46	1
87	88	3
51	52	2
112	112	3
102	103	1
82	108	1
88	89	2
34	90	1
24	24	2
20	20	3
83	106	1
25	29	2
92	92	7
38	38	1
39	39	5
28	28	3
61	61	6
95	95	1
62	67	1
86	87	1
108	108	3
67	67	1
31	78	2
32	43	3
60	61	3
100	110	2
79	94	2
39	96	2
27	27	1
25	32	1
72	105	1
93	93	3
61	66	1
105	110	2
59	60	2
110	110	3
57	58	1
56	56	2
40	40	1
32	46	1
23	24	2
62	68	1
98	99	2
63	63	2
53	53	1
79	81	1
26	27	1
55	56	1
109	109	2
54	55	1
24	83	1
97	97	2
37	38	1
103	107	2
82	85	1
86	92	2
77	103	1
27	113	2
53	56	2
69	76	2
99	99	1
20	39	1
93	95	1
55	57	1
82	83	1
41	41	1
83	83	1
76	77	1
71	75	2
68	78	1
