29	29	15
23	23	15
41	41	17
34	35	5
13	13	15
6	6	5
35	35	11
26	27	10
67	67	6
40	40	16
1	2	7
20	21	3
46	46	9
66	66	10
62	62	19
66	67	5
48	55	2
42	42	12
43	43	13
33	34	5
33	33	13
53	53	5
26	26	5
75	75	5
46	48	3
26	36	2
61	64	2
54	54	7
29	30	12
20	20	23
13	14	2
41	58	4
18	18	15
54	74	4
72	73	1
37	37	3
3	5	2
61	62	2
41	43	6
63	64	4
4	5	6
60	61	10
4	4	12
50	50	8
56	56	11
57	59	2
27	66	1
46	47	1
40	69	6
51	51	13
22	22	10
45	74	2
64	64	3
45	45	23
71	72	6
12	12	7
11	33	6
44	68	4
61	61	12
60	60	9
51	52	10
53	70	1
69	69	4
8	9	8
58	58	2
5	5	10
68	69	4
30	30	8
55	55	11
56	59	4
47	47	10
60	65	1
31	31	7
45	46	4
43	44	4
2	3	4
49	49	2
10	10	13
25	25	12
9	9	5
45	52	2
3	3	10
48	48	6
30	36	2
76	76	7
53	68	1
2	2	7
0	0	6
23	24	4
24	24	1
7	8	7
38	38	7
27	34	3
5	6	7
11	11	7
43	60	3
54	55	1
77	77	7
62	63	3
59	59	9
75	76	2
72	72	3
7	7	5
63	63	2
44	45	5
64	68	4
60	67	1
49	50	3
26	28	1
19	20	1
28	29	3
1	1	2
73	73	7
23	25	2
38	73	4
64	65	1
71	71	7
36	36	5
69	72	2
11	12	3
1	3	6
39	39	1
0	43	1
23	30	1
12	55	1
38	43	2
54	60	1
55	76	2
0	1	2
21	21	7
55	56	1
72	76	1
68	68	5
19	21	2
19	19	12
39	73	1
38	39	4
45	47	3
29	37	1
52	52	5
10	45	1
21	22	1
34	77	1
27	27	1
44	44	5
71	73	3
24	26	2
74	77	2
12	13	2
70	71	5
62	64	2
53	54	4
8	8	5
33	36	1
57	60	2
49	71	2
41	42	1
61	63	1
50	51	2
34	34	1
47	72	1
24	48	2
30	31	2
9	10	1
48	50	2
51	75	1
57	57	6
38	54	1
52	54	3
32	32	7
3	4	3
58	69	1
35	37	2
45	70	1
28	28	1
27	28	1
48	51	2
52	56	1
45	57	1
53	65	2
43	67	1
32	63	1
43	66	1
57	68	1
46	69	2
68	73	1
28	31	1
36	39	1
54	75	1
10	33	2
65	65	4
42	43	1
46	56	1
4	6	1
67	69	1
32	65	1
74	75	2
22	23	1
27	39	1
49	51	1
67	68	1
70	70	1
32	64	1
32	43	1
23	40	1
36	62	1
65	66	1
68	71	1
55	68	1
48	49	1
11	44	1
57	58	1
42	44	1
50	69	1
52	53	1
27	29	1
29	33	1
46	54	1
59	60	1
