140	140	16
26	26	11
111	111	14
17	32	2
123	123	10
118	119	7
126	127	5
0	32	2
85	86	4
110	110	15
23	24	5
131	139	1
82	82	10
75	75	11
118	118	3
74	115	4
113	113	4
76	77	6
109	109	4
44	44	4
73	92	3
94	94	6
135	135	9
20	20	5
18	18	2
98	113	1
131	131	21
74	74	13
92	112	5
81	81	11
83	85	3
87	87	13
139	139	10
97	97	6
119	119	6
91	94	3
115	115	9
17	31	15
101	101	7
29	29	6
74	80	1
126	126	12
15	30	5
25	25	9
139	140	6
129	130	8
104	104	6
71	71	13
136	136	7
120	121	5
1	1	9
95	96	3
106	106	12
3	5	4
125	126	5
1	14	2
26	92	3
105	105	9
122	122	12
125	125	7
28	28	4
130	130	12
33	33	14
121	121	7
71	88	6
103	103	9
111	124	1
73	73	9
5	5	7
83	83	9
16	16	9
107	124	3
131	132	1
7	7	3
88	88	1
102	103	6
76	76	3
81	82	5
77	77	7
34	138	7
128	128	11
100	101	4
133	136	2
94	102	5
11	13	6
78	78	9
129	129	11
72	72	5
16	17	1
124	125	4
130	133	3
124	124	10
75	76	4
37	37	7
16	18	1
134	135	2
113	114	4
138	139	3
27	93	3
5	12	2
23	23	1
14	15	5
6	6	8
86	86	11
95	95	5
22	25	4
28	32	1
35	36	3
34	34	7
112	112	3
19	20	4
18	19	2
5	6	1
8	8	3
125	137	3
92	108	3
77	78	9
31	71	3
31	32	1
27	27	6
32	32	3
31	31	3
136	138	6
96	97	1
107	107	9
98	98	8
4	4	2
80	80	4
19	19	5
134	134	7
123	124	7
8	10	6
4	12	4
73	74	2
120	120	11
137	139	1
128	129	3
132	133	3
24	25	2
114	114	6
102	102	7
35	35	6
91	91	5
80	81	2
85	108	3
84	84	7
77	103	6
24	24	6
93	93	3
125	136	2
22	22	11
81	87	1
7	68	2
110	111	4
99	99	5
90	91	6
85	85	8
133	133	11
32	71	1
138	138	3
73	84	1
80	110	1
75	78	2
90	90	3
85	109	1
72	73	1
137	137	11
87	88	3
132	132	7
12	12	12
90	124	2
35	95	1
37	38	2
121	122	1
2	2	8
103	105	3
109	140	2
134	136	1
77	79	1
91	95	1
119	122	1
36	37	3
27	29	1
98	100	3
21	21	2
94	96	2
78	122	2
106	107	2
127	127	9
27	91	1
26	95	4
98	116	1
3	3	5
91	92	2
116	117	3
1	10	6
127	139	1
0	2	2
14	14	2
2	5	1
15	32	2
10	11	2
28	29	1
135	136	1
101	103	1
74	75	2
122	123	4
80	107	1
84	93	2
100	100	2
108	108	3
121	123	4
114	115	7
13	14	1
116	116	4
104	105	2
104	106	2
127	134	2
21	22	1
93	96	1
19	125	1
4	11	2
17	37	2
79	79	2
127	128	6
74	77	1
9	9	2
0	6	1
133	134	2
140	141	1
38	38	3
34	128	1
117	117	4
21	124	1
135	138	4
78	79	3
4	5	2
0	26	2
108	116	1
97	111	1
117	119	1
80	111	2
26	27	1
89	89	3
126	136	1
27	31	1
22	28	1
78	123	1
8	9	2
99	114	2
96	96	2
25	26	2
107	125	2
13	13	1
81	103	1
116	124	1
0	1	1
95	99	1
23	27	1
128	140	1
1	2	1
80	122	1
74	90	1
3	4	1
119	121	1
27	94	1
89	97	1
67	71	1
107	108	1
129	136	1
135	140	1
3	26	1
13	15	1
118	123	1
88	89	1
34	36	1
