78	78	2
24	25	3
92	99	4
13	20	3
57	57	2
131	131	1
31	31	5
67	67	3
23	24	3
155	156	1
8	10	2
157	157	2
87	87	1
135	135	4
26	27	3
101	101	1
144	144	3
1	1	3
111	111	6
4	30	1
121	122	2
117	118	1
148	148	5
130	134	2
33	33	4
107	107	5
143	143	1
152	152	4
68	68	6
97	98	2
84	84	3
34	34	4
136	136	2
138	139	3
146	147	1
18	19	3
141	141	2
16	98	2
90	91	2
80	80	8
137	137	9
126	127	1
38	48	2
44	44	1
117	117	3
132	132	3
53	53	4
132	133	4
3	31	1
77	77	1
35	35	2
37	37	3
35	37	2
12	14	2
40	40	4
20	53	2
84	85	2
3	28	2
7	7	1
112	112	3
121	121	2
94	94	7
38	38	2
48	48	1
109	110	3
134	135	1
49	49	1
142	142	4
46	46	2
53	54	1
154	154	2
154	158	2
128	128	2
52	55	4
100	100	6
119	119	1
124	125	1
120	121	1
75	75	1
97	97	4
132	134	4
98	98	1
51	51	2
102	104	1
111	135	1
24	24	1
155	155	2
151	159	2
35	49	2
86	86	1
116	117	1
145	147	1
16	99	3
147	148	3
114	115	5
99	100	1
70	71	2
125	125	1
14	18	3
15	15	7
153	153	2
157	158	2
133	133	1
41	41	3
42	42	1
29	29	1
41	42	3
154	155	2
71	71	2
149	149	1
2	6	1
116	116	3
18	18	1
12	12	2
90	90	1
134	138	1
83	83	2
85	85	2
67	68	4
66	75	2
64	66	1
39	39	3
56	56	1
66	74	2
88	89	1
14	14	1
21	21	1
139	139	6
47	47	2
68	69	3
130	131	1
158	158	1
10	10	1
36	37	1
105	105	2
4	4	2
88	88	3
73	73	1
156	156	1
57	118	2
35	54	1
69	69	1
48	49	2
9	10	2
81	89	1
134	137	2
41	84	1
2	4	1
67	69	1
79	79	1
52	53	1
75	86	1
145	146	1
13	13	1
120	120	1
77	95	1
83	84	1
65	99	2
13	14	1
151	151	1
29	30	1
6	6	1
19	19	1
31	32	2
148	149	1
109	109	1
134	134	1
11	11	1
55	63	1
149	152	1
127	128	1
50	50	2
108	108	1
9	9	1
138	138	1
146	148	1
95	95	2
111	140	1
140	141	1
32	32	2
147	147	1
114	117	2
65	93	1
85	86	1
114	114	1
76	79	1
45	45	1
96	96	1
52	52	1
110	110	1
150	150	1
