40	118	1
91	92	6
5	5	11
13	14	5
103	105	5
47	61	2
59	59	16
45	45	27
18	18	46
18	20	5
125	125	16
44	44	11
33	33	27
105	105	9
69	70	11
101	101	40
26	26	24
134	134	11
93	93	24
6	29	1
24	30	2
76	76	30
79	79	25
81	81	11
72	72	51
87	88	10
75	75	20
30	56	3
28	79	3
106	106	14
74	74	25
15	15	17
4	4	14
114	114	7
62	62	22
6	31	3
94	95	14
63	63	27
27	28	16
62	66	3
37	37	12
66	66	56
65	66	2
120	120	23
67	67	26
84	134	3
130	130	15
47	47	42
131	131	17
38	38	19
58	58	13
39	39	9
82	82	15
78	78	27
41	51	2
60	61	6
25	25	19
133	133	13
92	92	14
15	48	4
81	82	10
24	27	3
34	56	6
67	68	5
130	131	2
28	78	2
72	73	11
121	125	2
85	86	10
34	35	5
77	77	30
41	41	5
61	61	28
19	19	30
65	65	39
19	36	2
8	8	36
119	123	7
57	58	4
116	116	7
90	90	20
88	89	3
86	102	4
83	83	31
11	11	40
12	12	24
36	36	13
71	72	5
86	87	3
68	74	2
47	48	7
34	47	1
47	99	1
86	86	11
32	32	17
88	88	16
32	33	6
123	123	18
27	74	2
108	110	2
76	78	5
63	79	5
35	35	29
59	78	3
10	14	3
59	89	4
40	55	1
56	56	10
46	46	15
61	76	1
103	103	7
82	86	1
10	10	33
126	126	16
129	129	15
84	84	26
25	26	10
122	127	3
86	107	5
29	33	1
108	119	2
34	34	53
126	127	7
98	98	19
14	16	1
74	75	11
51	51	1
112	119	3
44	45	7
28	28	34
48	49	3
17	18	5
12	13	2
40	41	14
21	21	25
78	80	7
75	82	5
27	27	23
8	9	9
84	96	2
24	83	5
33	60	1
111	111	14
4	6	4
31	31	20
110	110	3
3	3	10
75	118	1
16	16	12
20	20	14
49	49	13
43	43	13
70	70	20
110	112	7
73	73	20
46	47	4
97	98	6
9	12	1
0	0	5
112	117	6
66	67	3
79	94	4
39	101	2
18	23	4
55	55	9
7	18	2
132	132	14
26	48	4
83	85	2
112	112	15
24	35	1
22	22	13
13	13	22
106	116	3
1	1	22
23	74	1
127	127	15
80	80	24
20	26	9
64	64	24
122	122	9
23	23	8
55	56	2
118	118	13
79	120	3
8	57	3
61	62	5
0	31	2
90	97	2
5	36	3
119	119	17
117	126	2
65	73	2
93	94	22
14	14	12
42	43	5
121	121	5
6	6	25
100	100	15
36	68	2
111	113	1
18	66	3
31	32	7
31	60	4
58	59	13
25	46	4
11	13	1
37	41	1
7	48	4
81	105	2
24	25	5
44	70	2
60	60	26
92	93	1
90	92	2
97	97	12
109	109	18
28	92	5
9	9	28
124	129	4
99	99	13
128	130	1
107	114	5
7	7	13
68	68	28
124	124	21
11	45	1
11	60	2
117	118	2
62	63	2
29	30	5
67	112	1
120	121	2
5	6	2
112	113	6
85	85	26
48	48	12
108	108	16
91	91	13
0	80	2
94	94	22
131	133	1
132	133	12
116	122	2
107	107	12
49	50	1
72	74	1
33	34	3
21	26	2
73	75	2
43	82	7
90	91	20
71	93	2
68	72	1
113	113	7
78	79	19
14	15	5
41	42	5
122	123	2
46	62	3
29	29	22
18	61	1
45	58	4
93	134	5
99	100	8
69	69	16
3	4	3
3	45	1
43	45	2
128	128	6
19	31	3
5	32	4
11	87	6
83	92	6
40	40	4
110	114	4
10	12	5
11	12	6
16	34	4
43	75	2
8	28	2
117	117	9
104	105	4
73	74	5
95	95	5
96	96	8
98	99	3
19	20	2
128	129	3
5	30	1
62	64	4
59	133	4
45	64	2
33	124	1
102	117	2
105	107	1
93	97	7
102	102	12
3	47	2
23	29	1
104	104	11
51	81	1
4	15	4
47	73	5
73	77	4
79	80	10
39	41	2
68	69	6
77	110	1
3	10	4
15	39	4
17	42	1
17	17	15
115	116	6
30	30	4
106	115	3
86	90	1
12	29	3
10	11	15
29	74	1
129	130	1
68	89	1
90	94	2
57	129	2
3	12	1
76	129	5
89	89	7
82	83	1
5	91	4
100	101	6
85	134	2
35	46	4
84	85	6
127	128	1
16	17	11
104	111	1
57	115	4
75	76	6
33	101	3
17	76	4
39	43	1
86	93	3
33	57	6
7	75	2
114	116	4
111	112	2
27	90	4
8	12	5
63	66	2
123	125	8
28	49	1
80	85	3
121	122	6
6	100	1
31	70	1
17	34	2
40	65	2
120	131	1
45	76	1
45	62	1
119	120	1
108	120	3
36	131	1
20	21	3
24	24	5
85	95	2
87	87	7
104	121	1
8	35	4
66	118	3
83	120	2
99	102	2
77	79	2
7	57	2
96	97	3
34	36	2
36	76	1
5	34	3
37	39	5
13	45	1
26	96	2
27	47	1
15	80	2
14	49	3
114	115	1
60	71	2
77	128	2
8	99	1
95	96	7
28	86	1
125	126	3
16	50	2
15	16	3
27	76	1
39	40	2
64	65	1
38	70	1
24	42	1
115	115	1
43	44	2
42	42	7
8	100	2
71	77	2
22	23	1
26	78	3
27	33	2
9	10	6
13	50	1
117	119	4
58	65	2
82	103	3
51	60	3
33	72	1
130	132	3
59	60	1
2	2	4
6	71	3
18	19	5
1	2	1
56	57	1
4	48	3
106	129	5
32	59	1
3	56	3
41	60	5
61	70	1
32	36	1
77	78	4
12	35	3
105	113	2
74	121	2
78	131	1
66	68	2
44	49	1
20	80	1
103	117	3
68	119	1
8	93	2
31	81	3
7	26	1
22	35	2
28	29	4
75	83	2
83	84	2
95	98	2
4	94	2
36	38	2
85	102	1
14	48	2
2	3	2
93	107	1
93	95	5
11	17	2
26	31	2
20	60	2
113	118	1
29	49	2
8	104	1
27	75	2
63	78	2
11	93	7
66	113	1
51	54	1
58	63	2
50	50	4
124	126	1
16	19	3
24	74	1
68	76	1
37	38	2
46	73	2
23	93	1
11	78	1
23	47	5
71	71	2
70	122	1
27	48	4
0	30	3
108	109	1
28	80	2
85	133	1
4	13	2
88	102	1
98	102	1
35	45	3
74	77	2
79	106	1
18	34	1
72	90	2
60	113	4
14	19	1
67	98	1
9	16	1
66	78	1
25	27	2
110	117	1
93	101	1
70	71	3
106	117	2
3	33	2
57	104	3
41	49	3
4	5	3
131	132	1
5	26	2
4	35	2
3	11	1
12	61	1
78	134	1
34	45	1
9	71	2
20	36	1
35	36	3
12	20	1
125	130	1
9	18	1
57	57	7
6	48	1
94	102	1
109	110	1
11	19	1
65	102	1
30	31	2
2	101	2
89	100	2
23	25	1
75	78	3
36	40	1
21	76	1
126	128	1
6	9	1
11	27	2
79	132	2
32	56	1
88	98	2
20	82	2
108	114	2
64	69	1
27	81	2
6	7	1
34	72	1
30	79	2
79	81	2
26	27	1
85	87	1
35	75	4
41	48	1
78	125	1
57	103	1
19	60	1
9	72	1
29	48	2
81	94	2
5	31	1
9	96	2
8	74	1
7	65	2
4	73	1
63	64	1
8	17	1
49	74	1
47	100	1
27	29	1
86	100	1
61	72	1
28	91	1
45	46	3
76	77	2
61	74	1
29	47	2
83	125	2
44	46	1
105	116	1
28	97	1
102	115	1
31	36	1
33	64	1
37	74	1
0	75	1
103	104	2
93	108	1
3	32	1
106	107	1
17	78	1
124	131	1
25	48	1
9	49	1
82	88	2
20	84	1
42	56	1
95	133	1
9	60	3
11	91	1
20	118	1
45	68	1
19	45	1
34	74	1
80	131	1
107	116	1
110	111	1
45	48	1
