78	78	9
226	229	2
237	237	18
25	25	13
192	193	1
10	27	8
19	19	15
70	70	9
117	118	1
37	37	7
224	224	10
74	74	25
226	226	6
175	178	4
98	98	13
43	43	9
64	64	15
81	81	5
105	108	5
161	161	8
184	184	10
218	218	13
152	152	15
47	54	5
226	227	7
38	53	2
55	55	8
98	99	6
212	212	3
38	38	11
174	174	8
32	32	7
173	173	7
12	12	9
66	66	10
232	232	7
148	153	1
223	223	5
60	60	8
209	209	9
195	196	9
145	145	2
44	44	16
21	22	6
124	153	1
110	110	5
36	36	9
23	28	2
18	18	4
113	113	1
21	40	4
180	180	6
201	201	10
84	129	4
19	22	1
85	85	7
122	122	13
158	158	2
11	31	7
67	67	6
143	143	5
202	210	5
82	83	1
15	16	5
208	209	7
112	112	6
189	190	2
53	53	6
162	162	3
35	35	5
8	20	1
52	53	2
51	104	6
88	89	7
85	86	5
15	15	11
6	6	3
29	29	19
128	128	12
10	10	18
2	2	10
160	160	5
95	95	13
139	139	3
9	9	6
57	57	14
96	96	7
238	238	8
211	211	14
8	9	5
9	56	2
137	137	8
135	137	1
73	73	12
185	185	1
120	133	3
18	20	1
59	59	9
119	119	2
119	153	2
198	198	8
157	157	4
69	75	1
239	240	3
188	188	12
215	215	4
8	8	8
120	120	2
84	84	1
169	170	5
203	203	10
8	11	3
48	50	5
26	26	13
48	176	2
28	44	1
40	185	2
105	105	8
189	189	7
200	200	4
41	41	6
134	135	2
96	102	1
132	133	2
46	47	8
20	24	4
242	242	7
116	116	3
184	185	2
10	11	3
46	46	11
182	182	5
18	19	4
24	24	9
83	83	8
33	36	2
187	187	8
231	231	8
9	46	6
212	213	2
27	27	13
107	108	2
35	48	3
2	3	6
181	181	7
180	182	7
229	229	13
183	184	5
103	103	6
30	30	8
106	106	4
202	202	6
186	186	6
179	180	9
22	22	9
236	236	5
19	34	1
54	54	7
47	47	4
200	205	1
102	102	3
8	36	8
58	58	7
118	118	2
23	23	11
171	171	6
99	99	9
178	178	10
136	137	2
9	12	1
69	69	2
153	153	7
231	232	2
217	217	18
86	86	1
4	12	3
217	218	5
77	78	2
55	56	2
71	71	3
20	21	2
36	60	2
103	104	6
196	196	9
135	136	5
205	223	1
233	233	2
144	145	3
142	143	2
2	15	2
227	227	2
106	107	2
156	157	3
53	83	1
101	101	3
203	204	4
216	216	7
166	166	8
56	56	5
154	156	2
61	61	4
46	54	1
63	63	2
25	26	6
7	7	6
54	55	4
197	232	1
44	46	3
196	232	1
1	1	3
240	240	2
33	33	4
148	148	4
149	149	4
183	193	2
222	222	8
121	121	7
170	171	3
50	50	11
234	234	6
68	69	1
39	40	2
213	213	3
170	170	8
8	57	5
121	122	4
32	57	2
30	59	3
72	72	9
230	231	5
205	205	7
140	140	2
195	198	1
153	155	3
12	13	4
123	123	9
3	3	10
53	54	3
159	159	10
75	76	4
75	75	7
134	134	8
104	104	4
144	144	6
24	43	3
143	145	1
150	151	4
51	51	1
194	195	1
70	71	5
197	197	9
206	208	3
44	45	3
66	76	5
241	241	5
53	102	1
31	62	2
42	43	3
65	65	5
13	14	11
111	111	2
5	5	6
44	54	1
1	3	3
117	123	6
18	67	5
62	62	5
101	184	1
154	154	7
20	20	10
200	202	2
118	119	3
11	11	7
135	174	1
148	149	3
49	49	2
37	38	4
24	73	1
132	135	3
115	116	2
136	166	3
79	79	2
204	206	7
235	236	2
98	101	4
239	239	4
76	76	2
48	49	7
135	213	2
65	66	8
23	165	1
114	116	3
28	28	9
155	159	5
203	228	3
142	142	1
46	53	2
131	182	1
51	103	3
24	25	10
182	183	5
177	178	2
59	81	2
163	165	4
28	233	2
132	132	1
104	109	1
122	131	2
84	88	2
99	101	2
138	138	3
204	231	1
165	165	3
32	33	4
198	199	1
164	164	2
127	127	6
141	141	7
209	210	4
78	79	4
219	219	6
43	45	1
71	72	3
204	211	1
134	183	2
9	11	1
6	7	1
60	81	5
225	225	8
20	39	1
171	172	3
129	130	2
214	214	1
29	30	4
180	181	1
173	174	2
120	134	3
100	100	3
236	237	2
108	108	1
82	82	3
49	226	3
8	37	1
144	172	2
225	227	2
129	136	3
0	0	2
120	131	1
129	175	2
80	80	2
88	88	4
209	222	1
74	165	2
150	150	1
232	238	1
37	54	1
8	21	3
17	17	1
68	68	4
47	202	4
188	227	2
117	117	1
137	138	6
161	162	3
134	152	3
51	52	2
33	62	1
215	219	2
17	18	3
71	74	1
181	182	1
208	219	3
165	166	2
28	68	2
195	195	3
228	229	4
20	22	2
192	192	4
30	31	1
79	80	1
179	204	1
76	103	2
191	191	4
235	235	5
31	33	2
101	106	1
85	126	1
130	176	2
16	17	3
50	51	9
136	136	3
40	40	5
169	169	5
60	64	2
226	230	1
3	17	3
35	57	1
64	76	1
7	54	2
130	130	2
240	242	1
10	74	2
53	174	3
68	85	6
187	188	1
7	19	2
208	210	3
187	189	3
171	189	1
115	117	2
129	137	3
206	206	2
20	38	3
23	30	1
230	230	3
7	21	2
192	195	2
129	129	1
54	74	1
31	59	2
124	182	1
13	68	2
21	21	2
172	174	1
59	60	2
62	64	4
72	73	5
84	85	1
109	109	1
66	67	3
15	17	4
20	56	1
233	234	1
68	81	3
169	189	1
188	189	2
128	171	1
42	185	1
141	145	2
8	58	1
65	81	1
126	126	2
36	37	1
45	45	6
63	64	1
135	135	2
114	114	1
74	78	1
127	174	1
39	86	3
222	223	1
192	197	1
45	233	1
177	177	5
31	31	2
229	230	2
155	155	1
64	70	3
172	172	2
178	200	3
12	166	3
204	204	3
179	179	1
228	230	1
44	186	1
130	152	3
12	59	1
174	175	3
125	126	2
126	127	1
88	102	1
64	65	1
107	107	1
52	52	2
131	131	3
13	13	1
25	28	1
164	216	1
176	176	1
69	74	1
40	230	1
151	151	3
227	230	1
8	12	2
127	133	1
8	59	2
66	68	1
190	190	2
57	61	3
223	224	3
146	146	1
97	97	1
37	233	1
187	226	1
233	238	1
138	139	1
175	176	1
19	39	1
28	63	2
152	155	1
202	203	1
58	59	1
168	168	1
175	175	1
135	183	1
207	208	1
35	36	1
119	122	1
144	165	2
102	103	3
77	77	1
167	168	1
65	162	1
62	65	1
28	45	1
11	200	1
160	161	1
48	74	1
5	16	1
65	68	2
167	167	1
23	24	1
39	39	3
43	188	1
220	220	1
105	106	1
4	60	1
30	164	1
228	228	2
27	28	1
138	164	1
28	29	1
53	128	3
14	14	1
166	167	1
171	190	1
111	112	2
210	210	1
149	150	1
74	75	1
12	23	1
118	155	1
31	35	1
128	151	1
206	207	1
48	48	1
177	182	1
13	15	1
63	68	1
2	220	1
42	45	1
193	193	2
122	125	2
197	198	1
196	197	1
60	61	1
73	88	1
42	42	1
203	208	2
54	56	1
205	209	1
180	183	1
199	199	1
34	34	1
19	229	1
0	65	1
