36	36	19
92	92	17
62	62	34
58	60	9
93	93	43
29	29	17
42	42	31
91	92	14
67	67	24
82	82	17
59	59	25
44	80	6
70	70	18
57	58	8
52	52	22
74	75	11
95	95	21
43	45	3
98	98	34
34	35	1
63	63	34
65	66	10
68	88	2
37	68	6
87	87	16
50	50	18
53	53	28
41	41	30
39	40	8
53	54	20
55	55	33
40	40	25
85	86	16
84	84	25
49	51	5
33	36	4
87	92	6
71	72	13
101	102	8
101	101	40
52	56	2
95	98	6
99	99	51
49	49	21
58	58	51
76	78	1
79	89	7
56	56	16
91	93	4
61	73	8
79	79	23
41	72	2
61	61	28
46	46	30
53	57	4
27	27	7
95	96	9
47	48	24
53	55	8
45	45	19
68	69	14
96	98	6
77	77	11
53	90	2
60	61	10
39	39	26
78	78	18
45	46	5
51	52	12
61	83	5
72	72	31
90	92	5
44	44	36
92	99	3
51	51	22
38	68	1
31	32	13
36	37	6
89	89	21
73	77	5
56	93	5
48	68	1
49	50	27
85	85	35
94	94	25
24	25	2
46	47	23
56	57	8
66	68	1
47	51	2
87	88	23
63	81	2
38	39	11
26	27	1
89	90	9
49	79	1
37	69	3
49	80	5
91	91	25
97	97	15
61	84	2
99	100	14
38	52	4
62	87	4
34	34	12
44	45	6
64	65	3
72	76	8
69	78	3
82	99	2
43	43	16
74	76	3
63	83	1
59	60	6
51	54	3
86	86	35
52	76	3
48	50	3
52	91	5
31	36	2
38	38	29
48	48	33
42	43	9
84	88	7
52	53	2
76	76	10
49	62	3
80	81	9
54	58	2
37	38	10
80	80	21
57	57	28
83	84	8
72	75	4
63	64	16
35	35	13
54	55	21
75	76	4
60	60	49
100	100	19
45	48	5
55	56	14
72	73	3
90	91	12
68	68	12
93	94	5
25	26	7
30	55	2
59	87	1
55	57	4
90	90	20
33	33	13
35	36	12
88	92	1
98	101	2
31	35	1
55	61	1
59	95	2
64	80	7
81	85	1
45	71	5
83	96	1
47	53	12
88	89	3
71	79	1
81	81	11
52	92	3
57	76	4
71	71	27
24	24	2
83	83	5
47	49	6
87	94	4
97	98	10
61	62	6
86	94	3
41	42	9
28	28	2
66	66	12
65	67	4
87	95	4
75	75	15
31	31	7
32	33	5
57	71	3
100	101	16
58	59	17
37	37	3
69	69	31
91	98	6
65	65	17
38	45	6
64	64	15
70	74	1
79	80	6
56	81	3
45	47	2
82	83	6
55	81	1
56	73	1
63	66	1
79	91	3
88	88	17
49	78	5
74	77	4
86	92	3
45	81	3
74	74	21
48	49	12
46	48	3
30	31	3
96	97	6
58	86	2
51	85	6
92	93	9
84	86	4
81	94	1
102	102	9
60	77	1
45	49	2
59	64	3
47	47	31
62	77	5
46	51	7
44	65	4
80	89	6
67	68	10
73	78	2
84	99	1
73	73	27
89	92	7
62	76	1
54	54	11
84	89	1
54	63	1
46	50	1
43	44	10
51	89	3
47	54	3
66	67	10
81	83	3
99	102	2
30	30	14
58	90	4
37	45	3
36	38	2
63	77	3
62	66	8
62	78	2
88	93	2
43	77	1
24	26	2
25	28	4
64	81	3
56	92	1
69	70	7
54	59	1
50	51	10
54	93	1
50	73	2
77	89	1
70	78	2
99	101	10
51	83	11
51	56	4
88	101	1
25	25	5
81	82	10
40	43	1
76	77	5
92	100	4
84	87	4
51	53	6
32	32	4
54	57	1
27	29	5
98	100	4
58	81	1
52	75	1
68	70	3
42	101	2
63	65	2
60	62	2
85	93	1
50	79	1
59	69	1
83	86	1
89	91	7
50	54	1
73	74	6
55	84	3
54	61	4
23	23	6
50	72	4
91	101	2
98	99	3
52	89	2
54	99	2
50	80	4
61	63	2
62	91	2
91	97	2
100	102	9
51	58	6
23	30	1
77	78	6
52	73	2
52	54	2
42	49	1
54	87	1
72	74	2
43	69	2
84	85	3
46	101	1
51	57	3
94	95	9
53	96	1
62	98	4
58	84	3
58	89	1
90	99	5
57	84	1
94	96	2
22	22	4
86	88	2
46	49	4
29	30	2
63	74	2
53	75	1
62	63	7
51	92	1
73	79	2
32	99	1
46	53	2
58	61	2
86	87	2
48	55	3
40	41	4
25	27	1
78	79	2
38	51	1
24	27	4
70	72	4
42	44	5
36	53	1
66	82	2
44	59	3
80	82	2
92	94	6
26	26	3
52	59	2
73	75	2
77	81	3
44	85	2
56	94	2
55	68	1
55	76	2
56	85	1
81	86	2
35	39	2
48	53	2
93	99	1
64	66	1
44	51	1
54	73	1
35	45	3
42	45	1
41	69	1
63	72	3
93	95	1
61	77	3
69	72	4
53	56	2
55	82	1
63	69	1
65	72	1
60	67	2
83	89	1
45	82	3
79	82	2
42	58	2
87	96	2
39	43	1
44	81	1
85	87	1
41	43	4
48	51	2
72	79	3
69	89	1
50	76	2
58	80	1
20	22	2
71	75	2
56	58	1
81	90	1
97	101	2
96	96	1
53	80	1
31	99	2
70	71	1
20	25	1
73	80	3
76	89	1
77	79	1
41	45	1
69	80	1
49	76	1
54	84	1
44	71	1
73	76	1
54	76	1
60	63	1
55	87	1
53	89	1
57	89	1
61	81	1
43	73	1
59	68	1
88	94	1
59	61	1
