81	81	5
49	49	4
84	85	8
19	45	1
116	116	1
72	72	2
22	39	1
128	131	2
35	35	2
5	5	13
83	83	4
78	78	1
17	17	1
57	57	8
17	25	3
31	32	1
40	41	1
26	62	2
16	16	2
85	85	3
3	101	8
94	94	2
65	65	5
63	80	1
100	100	4
132	132	1
4	5	4
27	27	2
25	27	3
44	45	2
102	113	3
99	100	1
91	92	1
47	47	4
46	61	3
56	56	4
25	25	3
63	63	2
19	19	3
6	6	1
60	61	2
2	2	3
76	76	1
41	41	9
38	38	8
5	6	1
20	21	3
113	119	1
85	107	2
78	79	6
83	92	2
97	97	9
39	41	1
45	58	2
60	60	3
42	42	2
27	40	2
71	71	1
134	134	6
110	110	1
95	95	4
58	58	4
10	12	1
43	81	1
80	96	1
0	0	3
93	93	3
95	98	3
71	97	2
18	18	4
11	29	2
65	66	1
36	36	3
123	124	5
133	133	3
108	109	3
39	40	5
20	20	2
112	113	4
33	33	1
92	92	1
102	120	1
10	14	1
84	84	1
73	73	2
103	103	3
97	111	3
102	102	1
101	101	7
92	126	1
46	46	5
25	93	2
47	63	2
13	93	1
84	89	1
44	44	1
11	11	5
34	34	7
26	47	6
94	125	1
69	70	1
102	103	1
80	80	2
64	64	4
91	96	1
22	47	1
45	71	1
9	10	1
70	70	2
119	119	1
28	28	1
90	90	1
120	121	1
119	120	2
37	38	1
11	12	3
27	97	3
39	42	2
79	80	6
129	129	2
107	107	1
78	94	1
21	21	4
20	22	2
69	69	2
57	58	2
122	122	1
10	80	1
126	126	1
104	104	1
41	42	2
130	130	2
80	87	1
26	26	2
34	45	1
15	22	1
128	129	2
27	29	1
8	29	2
8	8	2
25	48	2
67	67	4
92	124	3
48	49	2
96	97	1
94	95	3
7	43	1
12	12	3
83	122	1
48	48	3
43	43	2
45	57	1
28	30	4
120	120	2
13	13	3
29	29	1
4	4	1
20	35	1
31	43	1
66	83	1
30	30	3
29	49	2
125	126	3
45	45	1
61	61	3
123	123	1
91	120	1
25	26	1
85	126	1
43	45	1
127	127	1
68	122	2
112	130	1
99	99	1
75	75	1
100	112	1
88	92	1
10	10	2
23	23	1
112	112	1
31	31	1
124	125	2
125	125	1
118	118	4
23	40	2
24	36	1
95	120	1
120	122	1
6	8	1
83	111	2
18	39	1
93	94	1
98	98	1
37	37	1
93	122	1
96	96	1
111	111	1
67	68	1
77	77	1
90	91	1
7	10	1
