168	170	1
62	63	8
81	81	4
80	80	9
49	66	4
15	15	13
138	138	15
19	19	7
151	157	2
110	110	10
68	69	3
139	139	10
163	163	3
26	27	5
53	54	4
36	37	4
7	121	10
155	160	4
86	86	7
93	93	7
156	156	5
22	22	5
2	2	6
84	84	6
77	78	3
49	50	2
69	69	4
46	46	5
96	96	11
42	42	4
79	80	3
12	12	3
139	140	3
50	50	14
70	70	8
57	57	7
120	120	7
102	102	1
51	51	6
13	15	3
136	136	10
146	146	6
155	167	3
27	28	1
146	148	2
8	118	2
38	56	1
163	164	6
104	104	1
34	34	10
113	113	4
100	100	10
33	33	2
2	152	1
48	49	3
111	111	5
129	129	6
142	143	1
127	129	3
143	143	5
149	149	8
3	5	3
56	56	4
154	160	1
132	132	3
137	137	10
1	2	3
147	147	4
10	10	9
84	85	1
76	76	10
116	116	10
39	39	4
45	45	11
68	68	4
85	85	8
63	63	3
18	18	6
23	62	1
80	82	2
53	53	2
10	114	2
101	102	2
25	128	4
88	88	7
117	120	2
161	162	5
77	83	5
41	42	4
113	114	1
141	141	4
15	117	4
7	113	6
16	16	4
151	151	3
90	91	3
148	148	4
95	96	1
107	107	3
20	20	7
7	8	4
54	54	3
49	123	2
38	42	4
118	160	1
57	58	4
0	0	8
13	56	2
162	162	9
117	117	6
115	122	3
128	149	1
64	64	2
3	3	5
126	126	1
146	147	2
86	87	2
11	11	4
94	94	1
11	57	2
140	140	1
142	145	3
40	40	7
90	90	10
109	109	5
118	118	2
49	51	2
23	23	1
169	169	6
144	144	3
128	128	8
147	149	4
122	123	2
108	108	6
56	57	2
2	16	7
66	68	1
64	68	1
119	120	2
13	13	4
46	164	3
77	79	2
108	109	3
48	48	2
115	115	3
168	168	4
168	169	3
93	94	4
6	152	1
5	5	3
71	87	3
121	121	3
39	40	1
1	19	2
15	45	3
26	26	5
37	38	1
14	15	6
7	7	4
125	125	4
153	161	3
27	27	7
14	14	8
99	99	7
18	42	2
19	21	1
167	167	5
142	142	4
122	122	1
6	6	11
41	41	3
38	38	9
73	73	3
157	157	4
81	82	2
4	5	1
133	133	6
52	52	4
48	50	4
92	92	4
154	154	2
114	114	4
54	55	3
64	69	1
4	167	2
160	160	8
92	95	3
70	87	2
44	44	3
103	103	3
33	34	5
62	62	5
131	146	1
67	72	1
158	159	1
35	55	2
38	57	1
152	152	3
8	11	1
131	131	6
164	165	1
55	67	4
133	134	4
118	123	1
103	153	2
25	25	2
91	91	3
35	35	1
44	45	5
91	92	5
152	155	2
136	149	1
10	16	2
127	127	2
103	104	2
95	95	1
1	1	4
112	113	1
55	55	3
122	124	5
18	19	1
117	122	1
85	87	4
72	73	1
19	121	1
129	130	1
123	123	3
129	131	3
86	88	3
10	34	3
151	152	2
24	24	3
160	161	1
92	93	2
16	22	2
45	66	1
9	9	5
99	100	2
18	24	1
3	125	1
131	156	2
124	124	7
5	158	4
151	160	2
159	161	1
97	97	4
48	121	3
100	102	2
38	39	1
0	1	2
104	105	2
78	78	2
77	77	1
163	165	5
135	135	2
91	93	2
153	153	2
150	151	2
50	51	2
153	170	1
111	116	1
134	134	2
17	18	1
8	8	4
28	28	1
52	109	2
135	155	3
20	21	5
14	46	1
71	72	1
151	154	1
115	123	1
9	10	2
128	129	1
37	37	6
57	68	1
46	47	1
71	76	1
92	94	2
100	101	2
17	27	1
77	92	2
124	142	1
58	63	1
125	149	2
5	6	3
2	40	2
96	98	3
16	46	2
52	53	2
63	113	1
43	43	6
161	163	3
124	147	1
19	52	1
57	64	1
20	24	2
89	89	1
19	58	1
116	117	2
113	152	1
84	96	1
23	52	1
82	88	1
74	74	2
7	10	1
159	159	1
20	48	2
39	57	1
135	142	1
71	79	1
107	108	1
36	36	3
50	68	1
164	164	2
16	17	1
117	124	1
43	80	1
57	66	1
44	62	1
49	49	1
3	4	4
97	98	2
0	2	2
165	165	1
115	116	1
91	97	3
75	75	1
120	154	1
39	58	1
84	90	1
39	122	1
38	41	1
45	111	1
126	127	1
138	139	1
69	70	3
84	95	2
2	10	3
17	17	1
67	67	2
6	7	2
154	169	1
79	79	1
64	65	1
4	4	1
142	168	3
58	58	2
66	67	1
19	47	1
70	80	1
102	104	1
54	146	1
10	11	1
89	90	1
155	156	2
145	145	2
21	21	1
161	161	2
138	141	1
98	98	1
166	166	2
45	46	1
127	128	1
105	105	1
62	64	1
18	44	1
