78	81	3
37	38	5
20	20	4
55	55	8
63	63	5
50	50	6
46	48	8
95	96	3
74	74	4
103	103	9
76	77	6
86	86	5
102	102	6
52	54	2
30	30	6
41	41	6
23	23	12
56	56	7
94	99	2
87	87	16
52	52	4
62	62	15
70	70	8
49	49	13
61	61	5
83	86	3
26	27	8
78	79	7
45	46	2
35	77	1
53	53	7
64	65	5
77	78	4
34	34	10
26	26	15
93	93	7
61	62	8
94	94	10
104	104	14
25	25	4
26	57	7
71	72	10
106	106	9
64	64	9
43	44	3
76	76	6
86	87	3
44	44	13
59	60	4
78	90	7
73	75	2
45	45	7
80	80	18
57	63	2
65	65	5
48	48	11
98	99	13
95	95	9
43	43	4
54	55	4
85	86	2
42	46	4
79	81	4
82	87	1
98	98	6
32	32	9
40	40	9
68	68	20
47	47	11
37	75	3
89	90	6
67	67	6
90	91	2
36	36	5
100	100	9
77	100	3
42	42	6
79	79	8
27	41	3
92	98	2
83	85	4
51	51	10
56	57	7
38	41	1
81	81	17
21	21	3
31	62	7
83	83	5
48	49	1
69	72	1
80	89	5
99	99	7
84	85	8
90	90	6
82	82	3
29	29	6
67	68	2
54	54	5
74	75	5
101	101	3
30	31	2
66	66	3
78	91	2
25	26	4
58	83	6
95	98	4
85	85	11
40	45	3
89	89	4
94	95	7
35	35	4
28	36	4
73	73	7
59	59	3
46	47	3
70	72	1
39	39	11
27	27	4
71	71	7
33	34	5
79	80	9
75	75	10
66	67	6
57	58	7
69	69	7
79	82	8
78	78	11
50	54	3
97	97	7
87	92	2
46	46	8
60	60	2
21	23	1
72	72	7
94	100	1
62	63	3
21	22	2
82	85	1
58	58	3
85	89	2
68	69	2
104	106	1
92	93	1
79	89	2
26	82	1
91	91	4
79	91	2
75	76	1
90	94	1
30	34	1
51	54	1
33	33	4
84	84	9
83	84	3
102	103	2
24	24	2
93	94	3
31	31	5
29	30	2
96	96	1
26	28	1
57	57	3
42	45	4
20	22	3
38	42	1
103	104	5
72	73	1
24	25	2
60	80	1
60	81	2
58	60	1
65	66	1
53	54	1
77	98	1
75	77	4
51	52	2
64	77	2
80	81	2
74	92	1
78	84	1
60	63	1
62	79	3
88	88	10
35	76	4
100	102	2
34	36	1
92	92	1
22	22	6
28	28	5
83	87	2
50	51	2
51	53	2
36	37	2
25	29	1
23	24	1
30	33	1
27	40	1
70	71	1
23	25	1
93	97	3
88	92	1
31	32	2
84	87	2
51	55	1
97	98	2
44	45	1
56	59	2
27	38	1
26	40	1
86	88	2
41	45	1
77	101	1
77	77	2
73	74	3
37	37	1
38	38	1
67	75	1
41	57	1
104	105	1
59	67	1
62	80	1
92	94	1
60	61	1
100	101	1
