155	155	19
153	153	7
146	146	8
90	90	14
123	125	4
102	104	7
36	36	13
46	50	4
23	41	1
86	87	16
78	93	3
62	125	5
22	41	7
68	76	5
4	107	4
50	50	11
17	17	13
136	136	5
65	65	6
83	83	33
70	70	15
127	127	7
41	142	8
72	72	13
12	12	15
88	94	8
133	133	7
63	64	4
166	167	5
68	69	2
103	105	4
34	34	12
95	95	21
84	84	4
44	99	2
149	149	10
35	37	5
33	33	17
93	93	18
158	159	7
5	5	7
106	106	11
124	124	6
131	131	15
132	133	5
132	132	8
37	37	13
116	129	2
41	41	13
0	1	7
11	12	15
3	3	19
112	113	1
74	75	6
2	2	22
39	39	7
111	113	9
20	20	23
47	47	13
6	6	14
54	58	1
46	144	3
1	1	12
27	28	6
104	104	4
46	47	9
7	8	2
90	91	7
74	74	9
49	49	22
134	134	9
89	89	13
47	51	2
10	10	25
75	75	17
55	56	3
141	141	14
49	142	2
52	56	3
17	20	2
81	83	6
42	43	12
4	4	14
42	42	16
135	139	5
24	64	5
20	37	3
45	45	16
8	8	12
54	54	11
111	111	14
71	73	8
106	108	5
76	76	13
26	26	11
25	27	5
1	35	8
21	21	8
107	107	15
13	13	16
34	35	11
126	126	11
18	18	18
85	86	5
20	21	7
113	113	10
50	51	10
92	92	11
147	147	9
135	135	9
101	111	3
77	78	17
106	165	2
23	23	9
38	72	3
125	126	6
44	44	20
86	86	11
36	57	4
41	44	2
108	108	10
52	90	4
162	162	7
98	98	10
71	71	16
108	160	1
80	80	12
27	27	16
42	138	4
138	138	7
53	53	11
38	38	13
5	6	5
52	57	1
87	88	9
118	129	4
154	156	2
164	165	3
89	90	11
24	65	3
14	14	15
43	43	16
110	114	2
38	39	1
101	101	17
88	88	18
112	154	3
41	99	3
25	41	2
145	165	2
158	158	10
63	129	3
108	119	5
57	71	6
100	112	2
95	96	4
11	11	26
90	93	2
56	77	3
104	120	1
36	39	1
27	42	1
86	99	6
91	91	6
105	105	7
6	7	4
35	35	12
55	58	2
48	166	2
57	62	8
121	121	4
57	57	7
111	112	11
7	7	17
151	151	6
15	15	12
13	14	9
84	86	13
41	52	3
116	117	9
74	76	6
161	161	4
111	161	4
137	137	6
2	3	8
112	112	20
21	38	1
80	81	4
114	116	4
24	25	1
83	90	1
130	130	4
53	54	10
71	72	7
93	159	2
102	103	5
41	144	4
103	120	3
149	170	1
55	55	7
16	16	12
52	78	1
108	120	1
120	120	8
73	73	12
80	128	2
18	46	4
63	63	9
150	151	3
82	83	3
46	46	10
58	61	3
142	142	17
94	94	13
79	79	9
154	155	4
64	64	11
118	118	1
100	116	2
1	3	3
20	40	2
42	44	2
40	40	11
89	93	2
153	154	4
163	163	3
17	44	8
150	150	2
38	71	1
42	51	3
100	117	7
151	170	2
139	139	8
81	81	8
57	64	5
99	116	3
166	166	6
88	89	6
109	111	3
156	156	7
113	114	2
114	114	5
56	56	6
42	99	1
110	110	19
154	154	3
1	2	2
102	102	5
101	113	3
28	28	11
140	140	11
119	119	4
108	109	9
49	124	1
117	117	4
165	166	4
24	41	3
128	129	8
51	51	12
14	15	1
38	52	4
78	79	1
102	113	1
23	24	2
116	116	13
57	77	14
75	76	7
54	125	4
82	82	8
25	25	6
3	5	1
9	9	2
150	160	2
24	24	7
73	75	3
77	79	9
146	147	8
136	139	1
47	142	3
37	38	9
21	22	4
50	126	1
148	150	9
0	0	14
18	19	2
142	143	5
63	69	5
67	70	4
160	160	8
134	135	6
145	170	3
71	76	1
25	40	3
106	119	4
110	111	15
44	45	4
57	80	1
7	10	1
101	106	2
12	13	1
104	115	2
88	90	4
106	107	1
18	45	2
41	139	3
141	143	3
85	85	3
47	48	2
124	125	2
135	136	1
167	167	3
56	137	1
70	73	4
143	144	7
107	108	5
112	157	1
130	131	6
81	82	10
12	14	4
169	169	4
42	140	1
55	77	1
114	119	1
25	42	3
147	148	1
145	145	6
20	44	2
163	164	5
129	130	2
111	133	8
138	139	3
46	51	2
36	38	1
109	109	6
62	62	9
96	97	4
101	103	1
98	99	7
10	17	1
10	13	3
78	78	2
87	99	2
43	44	3
48	164	5
110	120	1
35	36	1
64	113	3
96	98	2
69	76	2
86	88	1
52	52	6
10	11	2
46	98	4
85	88	2
106	135	2
81	93	3
39	40	3
149	152	3
159	159	10
165	165	4
100	102	4
73	76	1
125	125	4
39	98	5
1	4	3
102	105	1
78	94	2
39	70	1
110	112	2
129	129	5
120	122	2
4	5	2
152	152	4
73	74	3
6	8	4
41	42	2
157	158	5
87	87	9
104	105	2
24	139	5
54	126	1
148	148	4
3	7	2
162	169	2
48	67	2
105	135	1
99	99	6
92	93	7
24	53	3
112	153	2
83	84	2
85	87	8
33	40	2
104	113	1
69	94	2
121	122	1
142	144	5
116	130	3
23	63	2
7	9	1
38	73	1
53	58	1
109	160	2
54	55	5
58	62	1
56	57	4
145	163	1
145	146	1
123	143	2
132	134	4
48	49	7
159	170	1
149	160	2
139	166	2
25	136	2
45	46	1
33	34	3
163	167	1
133	134	2
36	37	6
156	157	2
131	132	3
38	51	3
143	143	7
126	127	4
101	104	3
8	11	3
114	115	1
52	53	3
167	169	1
70	71	5
157	157	1
115	116	2
100	100	8
19	19	2
57	58	1
40	52	3
35	53	1
125	143	1
40	98	3
17	18	1
16	18	1
37	52	1
117	129	1
90	94	3
103	103	1
99	130	2
9	11	1
109	157	2
21	45	2
62	63	4
91	95	2
66	71	2
77	77	2
66	66	2
24	138	3
125	140	1
63	76	2
9	10	2
101	126	2
24	57	1
39	41	2
107	109	3
135	138	2
109	110	1
123	141	2
10	12	3
5	8	1
102	111	1
139	140	3
159	166	1
42	53	2
69	69	4
84	85	2
51	52	1
128	128	2
161	162	2
48	48	5
108	110	1
113	132	1
71	74	1
100	118	1
48	144	1
49	145	1
122	163	2
17	46	1
127	130	1
100	133	1
147	151	3
122	122	1
64	69	2
105	120	2
96	96	2
164	167	2
26	27	3
21	41	2
94	95	6
25	75	1
39	51	1
79	93	2
54	56	1
23	40	3
22	23	5
155	156	3
79	81	2
98	118	1
100	114	1
53	56	2
145	161	1
35	127	1
115	115	2
48	70	1
55	76	2
69	70	2
37	71	1
45	47	1
140	143	1
124	142	1
136	140	1
160	169	1
151	160	1
52	79	2
47	71	2
84	87	2
22	22	1
48	124	2
110	113	1
128	130	1
8	10	1
47	49	2
73	105	1
52	54	1
97	98	1
57	63	1
3	4	1
38	98	1
144	144	1
53	57	1
135	166	1
2	5	1
76	95	1
17	19	1
37	39	1
120	121	1
164	164	1
48	146	1
0	36	1
39	74	1
25	58	1
27	40	1
84	99	1
93	94	1
47	143	1
124	144	1
107	158	1
2	150	1
