177	177	12
116	117	2
206	206	5
46	46	3
108	209	4
188	188	2
99	99	6
225	225	12
89	91	6
121	121	2
201	202	5
241	242	3
243	244	6
53	55	2
110	110	3
68	68	2
5	89	4
231	231	5
238	238	10
155	156	3
210	210	10
193	214	7
31	31	10
30	30	9
175	175	9
187	187	7
212	212	11
169	171	3
185	187	4
89	90	3
173	173	8
37	38	4
38	38	5
46	47	2
88	171	5
75	75	8
197	197	7
192	192	6
236	236	7
193	241	3
92	92	5
8	8	1
236	237	9
203	203	10
73	73	9
194	195	14
110	111	8
204	221	2
53	53	10
93	102	6
244	244	7
2	150	4
65	65	6
237	237	2
166	213	2
4	4	2
170	246	2
211	212	7
6	7	4
109	243	2
153	153	5
193	193	6
63	64	5
9	9	7
38	39	2
186	186	13
232	234	2
109	109	8
166	169	2
248	249	2
67	68	1
164	164	4
107	107	11
245	245	3
81	81	4
50	50	5
172	210	5
181	181	9
210	211	3
217	217	10
111	116	4
180	181	4
52	53	2
107	108	3
14	30	2
77	94	6
226	234	3
183	187	4
27	27	2
54	114	2
45	45	7
200	235	1
188	207	6
113	116	6
97	97	3
215	215	1
196	197	3
170	170	8
236	249	2
40	40	5
114	114	1
197	199	1
178	180	3
173	211	2
94	95	3
11	11	6
185	185	4
115	115	6
51	52	2
22	22	9
119	119	3
105	109	1
204	204	11
20	20	5
167	203	3
189	231	2
98	100	2
150	151	3
84	84	4
62	82	1
73	75	5
247	247	6
167	167	7
195	195	7
173	191	1
63	68	3
161	163	5
71	74	4
111	243	3
214	215	4
32	32	12
169	169	8
199	203	4
22	23	2
29	30	3
178	179	8
171	171	4
202	202	5
106	107	3
228	228	1
186	189	1
213	213	4
147	147	2
183	183	12
7	7	6
26	26	5
174	178	4
235	235	5
241	241	11
246	246	10
238	239	4
218	239	2
182	182	5
150	150	12
160	160	1
44	44	4
39	230	4
33	201	3
166	166	8
15	15	7
181	186	4
170	171	5
205	207	2
204	205	1
184	184	5
185	225	2
81	82	6
167	168	4
207	208	1
197	198	3
34	35	1
15	20	2
5	35	2
104	104	5
9	91	1
222	222	4
104	105	1
190	190	3
60	84	4
146	147	8
230	231	2
198	198	20
60	69	3
151	197	2
12	20	1
87	88	5
193	194	6
186	198	1
105	115	3
18	21	4
113	114	4
54	55	8
92	241	1
211	211	8
1	1	6
14	15	2
180	180	1
80	96	1
27	44	2
90	90	9
179	179	5
197	207	2
234	242	2
187	188	7
87	89	4
199	200	3
149	150	1
31	65	2
52	52	4
7	8	5
187	190	3
245	246	5
85	86	4
28	28	4
151	151	8
108	109	5
183	185	1
198	199	1
198	204	1
77	77	4
57	58	2
219	219	5
90	91	4
114	190	2
232	232	5
64	64	2
13	13	1
170	173	2
111	111	5
160	213	5
232	248	6
91	228	2
93	94	2
118	118	2
11	12	1
39	39	6
165	165	10
102	102	4
221	221	5
201	201	11
228	231	1
100	184	2
19	20	4
31	33	2
72	72	5
58	58	3
85	85	7
5	5	3
65	66	4
237	243	1
68	70	2
159	159	4
189	189	8
174	174	2
153	157	7
200	200	6
43	43	6
57	57	3
188	190	1
5	34	1
214	214	2
2	2	1
69	70	2
53	70	1
149	177	2
111	244	4
166	168	2
59	59	3
238	241	5
180	192	3
23	23	4
117	175	8
108	108	2
62	62	6
154	154	7
186	204	2
191	191	3
190	191	1
120	120	2
17	17	1
220	220	6
225	241	1
93	93	1
157	210	2
171	200	2
239	240	2
219	222	2
88	88	5
215	217	2
35	35	3
181	182	6
173	174	2
174	175	1
67	67	3
74	74	1
54	54	10
164	172	1
152	178	1
55	208	4
156	156	7
51	51	5
218	219	2
114	115	4
194	196	1
191	192	2
40	235	1
152	153	2
12	12	2
6	6	5
237	239	1
106	108	2
224	224	5
248	248	4
56	56	3
220	221	2
155	155	2
100	112	3
42	42	3
244	245	6
194	194	11
184	189	1
2	3	3
59	68	3
69	75	2
1	2	4
223	223	4
109	213	1
192	194	3
78	79	1
88	89	3
170	172	2
200	236	1
23	65	2
8	10	1
213	221	1
231	235	1
172	172	3
188	195	1
218	218	1
55	56	3
179	180	3
223	224	8
59	105	1
163	163	2
223	236	1
23	25	3
166	171	6
61	84	3
39	40	1
96	98	1
242	242	2
88	92	2
70	98	4
96	96	2
6	8	1
4	34	3
117	144	2
75	76	1
220	239	1
217	219	2
68	69	2
167	172	2
218	220	1
158	160	5
100	100	3
157	211	2
224	236	2
158	158	5
91	92	5
199	227	2
21	21	3
160	161	1
233	248	1
238	240	4
72	73	1
55	57	1
60	61	2
162	162	2
33	33	1
245	248	1
162	163	1
213	214	4
25	25	4
47	82	2
89	89	4
117	117	1
227	227	1
95	95	1
68	204	1
208	208	4
243	243	3
192	204	3
229	230	3
103	153	1
10	10	3
101	185	1
179	228	1
176	176	2
48	48	7
147	152	1
240	240	7
243	246	4
95	98	3
22	26	2
199	199	4
25	28	1
152	152	1
49	50	5
98	98	2
209	242	2
193	196	3
189	240	1
29	29	1
13	14	1
179	181	1
92	182	1
216	217	1
55	55	2
118	240	1
16	16	6
49	49	2
108	184	1
234	247	1
41	41	5
207	207	6
62	241	1
70	70	3
181	184	1
225	240	3
190	192	2
209	220	3
115	116	6
71	71	1
64	66	1
224	225	1
50	101	1
185	186	2
191	193	2
214	217	1
35	37	2
34	34	4
166	246	1
206	222	1
145	168	1
60	62	2
21	109	1
68	101	2
3	3	2
18	19	2
80	81	1
163	165	2
235	236	2
162	186	1
239	239	1
66	66	3
109	154	2
168	168	3
64	65	1
52	57	1
60	68	3
68	103	1
226	226	4
96	97	1
236	239	1
37	37	1
215	216	2
192	193	3
116	116	2
117	177	2
79	79	2
10	11	1
213	241	1
41	225	1
182	186	1
179	200	1
154	155	5
182	185	2
80	80	4
76	77	1
104	160	4
179	232	1
221	234	1
112	114	2
118	176	1
223	237	1
217	224	2
173	177	1
112	113	1
11	28	2
4	230	3
175	191	1
165	166	2
230	230	1
229	229	1
47	98	1
172	173	1
232	233	1
26	28	1
47	47	1
120	209	1
20	24	1
196	214	1
207	237	2
204	222	1
240	241	1
35	36	2
23	155	1
175	176	1
199	235	1
161	161	3
193	199	1
146	146	1
16	29	2
79	80	1
178	188	1
76	78	1
17	18	2
105	105	1
246	248	1
31	41	1
63	221	1
73	74	2
82	82	1
183	192	1
21	40	1
157	157	1
184	190	1
29	37	1
78	78	2
185	240	2
31	40	1
118	119	1
87	97	1
154	212	1
166	167	1
91	91	1
97	117	2
97	98	1
24	24	1
113	113	1
205	205	1
57	78	1
177	210	1
55	118	1
15	16	1
29	34	1
33	37	1
59	60	1
162	190	1
101	103	1
149	168	1
202	204	1
55	238	1
92	93	1
