11	11	10
74	89	4
82	82	6
4	4	19
94	94	21
129	130	8
107	107	14
65	65	9
45	45	6
26	26	12
87	87	12
93	93	8
97	97	8
125	125	9
7	21	2
132	132	8
33	33	11
16	17	6
0	1	4
54	54	14
19	21	4
54	106	6
17	18	4
120	132	1
77	77	19
58	59	4
44	56	3
71	71	15
30	30	8
108	130	3
8	8	8
7	7	4
52	53	2
46	47	9
111	111	7
61	61	16
92	92	10
91	91	9
16	16	15
63	63	13
5	5	11
88	89	5
6	17	2
100	100	3
16	104	5
43	118	5
1	5	2
105	105	4
6	6	10
67	68	9
113	113	8
66	66	7
41	41	17
61	70	4
28	28	22
90	92	3
103	103	9
32	32	3
69	69	9
95	95	17
12	12	5
82	83	10
126	126	6
11	12	7
40	44	8
47	47	30
75	77	3
80	80	15
83	83	10
59	59	4
108	118	5
4	5	1
88	109	3
67	67	10
32	99	4
53	54	2
97	98	4
39	40	3
94	95	2
58	74	5
50	110	1
29	30	4
90	93	2
14	14	8
120	120	9
95	96	3
49	49	11
117	118	3
15	15	11
97	99	2
119	119	5
99	99	8
66	115	2
83	84	3
52	121	4
16	18	2
48	48	8
114	114	2
85	128	5
86	105	4
40	56	1
110	110	15
129	129	7
59	62	5
52	52	13
81	81	10
119	120	2
83	99	7
58	72	1
81	82	5
115	115	7
1	20	1
48	72	2
74	109	2
45	86	1
43	117	4
4	13	1
94	96	2
0	11	3
88	88	9
51	51	13
50	50	14
93	95	1
91	112	5
1	1	8
29	29	19
117	119	2
62	62	7
45	66	2
15	24	5
79	79	3
19	19	6
86	92	6
128	128	22
55	55	7
86	86	11
58	58	9
34	78	1
68	105	5
64	83	3
109	109	9
112	112	11
56	56	3
90	90	11
106	106	2
61	71	3
124	124	3
96	96	5
105	106	3
60	85	3
72	72	15
84	96	3
59	61	6
87	88	1
3	3	5
11	24	3
2	22	5
86	87	4
4	32	2
27	27	11
73	73	4
76	77	6
47	54	3
40	43	5
53	53	15
0	0	4
10	14	2
104	105	5
44	45	2
91	92	3
117	117	3
127	129	2
65	71	2
47	89	2
72	74	5
0	28	2
89	89	8
101	101	2
131	131	2
73	113	3
23	24	2
57	69	1
8	10	5
65	66	1
24	24	6
46	79	1
81	87	3
10	10	2
126	128	1
116	116	3
39	45	1
44	44	10
85	86	2
98	103	1
120	131	1
62	63	5
70	70	13
111	124	4
31	31	3
26	27	2
115	120	1
83	85	1
68	68	8
23	25	7
23	99	4
74	74	6
6	104	1
21	21	3
21	22	5
102	102	10
15	17	3
25	25	9
124	125	1
38	38	5
94	100	3
75	75	3
23	23	5
57	57	8
41	45	2
42	42	3
100	101	1
0	26	4
9	9	7
126	130	3
40	41	2
72	97	3
20	22	2
8	9	1
10	12	2
64	65	1
13	13	6
126	127	1
121	121	8
40	40	5
1	2	1
31	32	1
127	127	6
8	68	5
92	114	1
130	130	8
28	29	2
78	79	1
118	118	2
67	113	1
64	118	1
125	129	1
86	90	2
60	60	3
20	21	1
46	46	6
104	104	5
58	61	1
41	42	5
82	85	2
111	112	3
11	14	4
43	44	4
2	24	1
123	123	7
5	101	1
60	61	4
96	121	2
4	7	3
2	2	5
101	133	1
0	29	3
132	133	1
84	92	1
97	107	2
54	107	2
20	20	8
42	43	1
51	52	4
65	102	1
39	39	4
33	55	1
108	108	5
42	64	1
99	103	1
84	84	1
74	97	1
46	122	1
81	91	4
76	76	10
3	15	2
86	88	1
98	126	1
88	90	4
4	101	1
70	71	4
22	105	1
19	23	2
123	133	1
107	108	1
57	109	5
5	15	2
61	62	1
93	120	2
92	118	1
89	90	5
58	60	2
101	102	1
119	125	1
43	43	3
81	120	1
8	67	1
68	69	7
110	124	1
26	91	2
24	25	4
19	91	1
127	128	1
59	60	1
116	117	4
113	114	2
114	116	3
0	27	3
8	105	2
2	6	1
33	34	1
102	103	3
93	113	1
60	78	1
25	26	2
3	17	4
77	89	1
27	29	2
22	100	1
18	18	1
69	72	4
109	113	2
122	122	1
5	21	1
96	112	1
22	22	3
37	37	1
100	104	3
85	85	1
66	106	1
3	4	1
74	101	3
1	10	2
124	132	2
15	21	3
121	122	2
19	20	3
19	25	2
101	121	2
129	131	1
69	71	2
33	40	2
85	87	1
17	17	3
101	122	2
19	82	2
84	105	1
64	64	2
106	107	1
22	25	1
114	117	2
5	17	1
90	91	2
108	109	3
8	48	1
72	73	1
38	39	2
60	77	1
57	59	1
43	45	3
118	120	1
78	78	3
6	101	1
109	110	1
61	95	4
60	81	1
104	116	1
110	111	1
27	28	1
7	8	1
73	74	1
59	113	1
118	133	1
14	15	1
118	119	1
75	76	1
7	13	1
72	102	1
34	34	1
65	68	1
49	50	1
3	5	2
65	109	1
77	79	1
43	102	1
32	33	1
69	104	1
97	103	1
63	66	1
77	101	1
55	56	1
130	131	1
112	118	1
7	14	1
9	45	2
80	90	1
79	98	1
9	10	2
57	120	1
9	46	1
47	48	1
118	125	1
103	110	1
13	14	1
99	102	1
70	115	1
42	76	1
45	55	1
68	106	1
15	16	1
17	25	1
89	116	1
