58	58	43
142	143	12
13	13	28
99	99	33
190	192	4
33	33	25
170	170	32
94	95	16
148	148	61
74	74	22
111	111	51
59	60	11
10	10	29
22	59	2
196	197	22
31	32	21
18	18	24
124	124	20
68	69	8
23	34	8
61	79	3
65	65	15
37	38	22
141	141	44
156	170	7
176	177	25
139	139	25
189	190	23
6	6	23
133	155	4
194	195	24
29	29	47
176	190	1
36	36	43
67	67	25
30	31	15
130	134	2
0	0	42
164	166	11
45	59	4
145	145	47
124	125	16
38	38	52
157	157	47
31	31	38
172	172	66
110	111	7
145	151	6
75	75	9
186	187	8
12	12	19
151	151	57
162	164	9
109	109	39
116	116	25
167	167	37
97	97	6
180	180	31
33	36	8
43	169	3
155	157	5
15	18	3
52	52	30
195	195	38
39	39	28
114	114	50
82	82	14
153	190	4
46	132	5
146	148	9
57	58	8
9	9	45
154	154	34
46	46	29
78	80	3
125	179	3
148	150	1
152	152	50
22	22	33
85	85	19
187	188	40
87	87	33
150	150	33
73	73	40
181	182	19
112	112	49
181	181	44
55	55	23
171	171	35
42	42	31
175	178	3
93	93	23
14	15	4
48	49	2
23	23	43
188	189	27
82	83	13
117	118	11
42	44	1
169	170	24
165	173	6
97	99	11
153	154	17
187	187	40
109	111	3
133	133	38
60	60	14
35	35	27
104	104	47
144	145	12
110	110	29
33	77	2
17	17	40
152	190	3
8	8	28
192	192	56
88	88	21
46	47	4
2	3	6
61	76	1
158	179	6
64	82	2
31	79	5
118	132	2
180	189	1
4	4	41
102	103	12
84	85	5
158	158	41
82	90	6
196	196	23
10	11	5
171	172	16
2	2	27
33	84	2
67	68	15
183	183	60
47	48	6
11	15	4
34	34	17
82	89	2
185	185	38
15	16	7
173	175	10
134	135	14
19	19	57
0	19	4
166	167	19
159	160	12
5	44	3
132	134	26
149	150	24
184	184	33
70	71	16
156	156	19
29	35	4
132	132	22
189	189	40
69	69	16
64	64	7
185	186	25
54	54	18
132	138	2
6	45	6
191	191	33
146	179	3
154	157	5
179	180	17
162	163	16
74	75	3
77	77	20
166	166	65
25	25	23
152	159	3
28	32	2
135	135	32
25	26	13
107	107	36
143	192	2
145	146	17
137	137	39
7	8	10
106	106	23
100	100	30
159	159	48
176	191	3
69	79	2
40	40	22
161	161	18
107	109	9
119	119	19
182	182	43
57	57	40
14	51	3
180	190	2
117	117	38
5	142	3
186	186	29
135	136	16
64	65	15
127	127	29
68	68	25
138	139	14
155	155	60
144	154	4
15	52	5
123	124	6
158	159	27
103	103	20
194	194	37
79	79	8
5	5	26
179	179	40
121	122	4
53	53	38
122	123	10
27	28	26
40	41	26
142	142	27
179	188	2
120	128	7
22	25	5
26	26	32
4	5	20
6	7	6
26	27	11
165	165	32
163	163	21
49	49	47
193	193	41
43	44	22
125	125	11
174	175	7
108	108	50
160	161	7
56	57	2
83	83	26
161	164	11
63	63	13
105	106	17
131	131	27
162	162	7
126	127	13
32	32	26
175	175	19
165	166	17
30	30	40
125	126	3
73	87	1
101	101	36
146	146	17
113	117	3
80	80	24
114	115	14
130	130	22
186	188	5
131	134	10
62	62	11
119	146	7
133	134	18
145	152	1
72	72	39
137	141	4
41	62	1
1	1	25
169	193	2
154	155	12
161	162	9
45	45	34
89	89	12
73	89	4
151	185	4
170	171	20
98	99	6
155	156	13
118	118	22
113	113	35
18	24	4
133	161	1
149	149	44
58	59	18
147	170	1
25	38	3
69	70	2
17	23	5
21	21	20
16	16	32
33	81	1
128	128	21
50	50	22
176	176	24
173	173	43
140	140	26
113	128	4
78	78	27
137	145	2
24	25	17
113	115	6
187	197	3
3	3	38
173	174	12
106	107	12
122	125	5
150	151	10
39	61	1
116	131	9
157	170	5
168	168	25
39	40	31
12	52	1
119	120	24
70	70	15
0	1	19
32	62	2
0	2	6
26	39	4
59	59	34
138	138	36
190	190	35
28	30	7
99	100	7
11	139	1
87	89	7
95	112	3
7	7	23
139	140	10
174	188	2
34	35	16
192	193	14
94	96	3
15	15	32
140	142	1
54	55	8
9	28	1
10	12	4
171	174	5
43	43	34
24	24	20
103	106	2
178	178	57
41	41	23
171	190	4
27	27	45
174	174	41
119	122	7
160	160	44
176	192	2
138	143	3
37	37	36
157	159	7
103	104	7
193	194	22
47	47	25
12	13	8
129	129	27
50	51	19
3	4	12
116	117	10
115	130	1
64	66	7
177	178	23
81	82	11
0	3	6
177	177	37
137	179	4
76	76	16
58	63	3
28	29	11
118	147	5
184	185	16
129	130	6
72	73	7
24	27	3
94	94	27
149	169	1
86	88	4
121	121	26
160	188	1
158	190	1
5	6	7
143	145	9
29	182	4
104	105	6
4	18	6
37	122	3
77	81	4
122	122	25
131	132	6
136	179	2
42	43	9
73	74	6
9	10	11
51	51	28
53	54	5
172	174	5
36	37	4
48	48	39
11	12	8
176	178	9
28	33	10
172	178	7
3	5	15
55	56	7
40	42	6
160	178	3
164	183	4
161	180	8
175	176	11
34	85	1
158	174	4
153	153	26
148	149	13
29	30	15
53	56	1
188	188	48
147	147	28
121	123	8
132	135	3
148	152	3
71	72	3
161	170	3
13	50	1
60	61	3
160	190	4
134	134	27
155	159	6
80	182	4
165	167	6
59	82	2
16	56	2
112	113	5
169	169	48
184	186	7
102	102	35
160	189	1
143	146	2
127	128	14
23	38	8
164	168	4
143	144	6
4	17	4
120	121	6
3	7	7
195	197	8
104	107	4
120	131	1
63	82	2
157	158	13
32	33	8
110	112	4
157	178	4
117	131	5
131	141	1
5	8	3
83	84	25
178	179	16
163	164	19
87	88	21
143	143	26
29	184	3
145	192	3
177	191	2
93	95	7
132	133	14
14	47	1
126	126	12
98	98	15
102	105	3
14	14	35
135	137	2
165	168	3
12	47	3
94	101	2
28	28	31
159	161	3
58	80	2
135	146	3
185	187	2
96	96	7
175	187	3
96	97	8
133	146	5
36	79	1
69	81	2
122	126	6
115	115	26
1	5	6
8	9	8
101	102	9
131	135	4
29	80	6
163	169	6
98	110	2
153	159	3
3	9	2
156	158	2
95	96	6
20	20	29
180	181	7
81	81	13
176	179	11
175	186	4
100	101	9
147	148	15
105	105	24
108	151	1
118	120	2
5	52	3
161	190	1
115	127	2
13	51	1
21	22	12
158	160	12
17	18	5
151	152	20
36	168	3
27	30	5
115	116	16
116	132	6
11	11	26
144	144	18
77	78	11
170	172	12
88	89	8
168	191	11
61	64	3
109	110	17
86	86	21
151	174	1
136	136	11
22	36	1
143	190	5
130	152	1
37	39	2
123	123	22
197	197	21
132	145	9
112	118	2
132	154	4
82	85	3
119	140	2
172	173	12
107	108	7
164	164	25
69	83	3
11	13	4
172	179	3
155	178	2
44	45	9
195	196	8
168	192	4
183	184	9
81	84	1
71	86	3
120	120	27
65	66	7
64	74	3
141	195	2
61	62	5
118	130	4
34	36	3
134	148	1
44	44	23
93	98	1
152	153	7
45	46	13
25	28	2
37	149	4
142	193	9
10	13	1
172	189	2
1	17	1
24	38	3
27	84	2
79	80	11
153	178	2
135	142	5
142	145	10
38	39	5
125	128	1
150	168	6
54	56	9
33	119	1
1	41	2
110	152	5
148	194	4
23	25	3
66	69	3
167	172	1
25	36	2
36	42	2
156	157	12
116	118	3
78	79	13
13	14	14
29	78	1
146	150	2
156	193	4
61	61	6
85	86	4
51	52	6
39	43	2
128	129	5
146	170	3
36	160	5
0	5	1
95	95	4
151	169	1
84	84	26
136	137	10
86	87	2
134	137	4
133	166	1
147	179	2
7	9	1
1	8	1
158	161	10
146	147	17
30	37	2
2	5	2
130	131	10
120	129	2
37	40	3
190	191	10
189	197	12
115	118	5
18	56	1
97	98	1
12	45	1
68	70	2
160	169	1
74	76	8
70	79	1
131	133	6
158	166	1
33	83	2
31	86	3
178	190	1
182	183	14
52	53	2
71	71	12
191	192	5
94	112	7
33	85	3
22	58	3
22	24	11
31	58	4
53	55	7
8	10	2
168	169	11
25	27	8
152	188	3
113	114	3
34	181	4
2	38	1
163	196	5
66	66	15
148	151	4
175	192	2
141	142	4
49	50	2
93	97	5
76	77	4
87	90	1
5	7	8
40	59	1
19	20	3
152	154	2
12	51	2
106	109	2
137	140	4
115	139	6
41	60	1
41	43	7
106	108	6
25	37	2
179	181	3
51	56	4
0	16	4
147	165	2
11	16	8
8	11	5
119	149	1
152	189	4
38	71	2
28	40	2
159	190	2
20	23	3
108	109	2
60	65	1
188	190	3
118	140	5
57	70	3
23	24	6
37	41	3
17	41	6
83	118	1
164	170	1
124	128	2
154	159	1
121	125	4
31	33	4
23	39	2
159	168	1
149	187	2
3	38	4
168	195	1
99	157	1
93	112	2
157	160	1
113	129	2
45	55	1
1	3	3
14	32	2
25	80	3
34	77	3
76	78	6
25	39	2
22	23	5
157	161	3
35	36	5
123	125	1
70	120	2
33	34	5
161	167	1
141	145	2
56	56	7
16	17	2
41	184	6
83	148	1
89	90	4
193	195	2
80	81	4
29	34	3
93	101	3
34	134	1
39	59	2
27	29	2
18	19	3
1	2	5
93	94	4
151	188	5
154	193	1
116	126	3
62	79	3
62	63	6
99	101	1
121	130	2
172	176	3
100	102	1
67	70	3
136	150	1
6	8	2
171	194	2
169	171	5
20	21	4
161	163	4
16	52	1
142	176	1
82	84	1
167	193	1
19	21	2
144	153	1
173	178	1
50	52	1
143	191	1
135	139	1
181	183	1
164	165	7
170	174	1
147	172	3
45	58	4
180	182	2
71	120	3
119	137	2
145	147	7
80	168	3
173	176	4
28	85	1
160	179	4
83	85	2
21	23	2
155	173	1
111	153	1
179	187	3
190	193	3
168	183	1
136	140	7
135	149	1
137	138	8
16	18	8
130	154	6
4	6	2
118	126	1
63	65	4
42	169	2
119	130	2
167	171	7
59	63	3
35	167	5
38	42	1
141	172	3
174	179	4
73	88	1
50	56	1
147	149	2
73	78	1
140	141	2
32	37	1
71	78	2
134	165	3
178	192	1
163	183	1
93	100	4
3	8	1
162	190	1
112	114	2
118	139	1
138	145	4
34	159	2
3	19	1
13	15	3
138	141	4
146	151	2
39	81	1
117	132	1
3	6	1
133	149	5
130	141	3
113	127	1
153	176	1
166	172	1
181	192	1
66	67	4
158	178	1
71	88	2
80	181	1
90	90	6
177	192	4
155	166	1
147	171	2
23	33	2
117	130	2
142	189	1
118	119	3
116	140	2
174	176	2
149	174	2
10	16	1
99	102	1
34	160	2
117	119	3
155	179	1
14	50	1
107	124	2
97	100	1
82	87	5
172	188	1
68	80	1
150	152	1
59	64	1
146	168	2
169	180	5
94	97	2
77	88	4
130	190	2
146	176	4
115	126	2
59	61	4
29	33	2
63	72	1
34	167	1
62	66	1
183	185	3
61	63	1
157	176	3
17	43	1
159	179	3
2	4	2
56	58	2
112	128	2
135	143	2
179	192	1
18	55	2
150	186	2
31	41	2
28	34	1
112	152	2
156	161	4
138	176	1
41	49	1
17	42	2
51	57	1
136	139	2
167	168	5
158	192	1
139	145	2
136	138	1
28	182	3
136	141	1
47	192	2
130	191	1
32	78	1
136	145	3
39	44	2
35	182	1
111	112	1
37	168	1
170	173	2
168	189	2
169	192	1
75	76	2
155	158	2
157	191	2
36	80	3
169	182	1
77	85	3
152	197	1
102	110	1
160	187	1
112	150	1
143	193	1
73	77	2
152	156	3
149	151	3
112	116	3
24	58	1
5	35	1
24	36	2
132	147	1
143	162	2
14	52	1
108	111	3
151	155	1
120	122	1
132	146	2
95	97	1
45	60	1
173	177	1
31	37	1
135	180	1
70	72	2
62	64	1
16	55	1
37	79	2
169	190	1
114	122	1
94	100	1
72	120	1
156	173	2
26	28	2
155	177	1
128	132	1
81	89	2
88	119	1
11	14	1
140	176	1
35	80	1
172	183	2
4	36	1
16	23	1
18	39	2
65	81	1
179	193	1
4	35	1
69	84	1
59	80	1
148	180	1
6	52	3
150	164	1
189	196	3
142	192	1
12	15	1
57	69	2
0	53	1
121	197	2
187	189	1
190	195	1
12	33	1
140	143	1
121	147	1
121	126	1
102	111	1
144	146	1
158	177	3
46	54	1
138	140	2
23	57	1
41	42	1
102	112	1
33	37	1
3	11	2
134	143	2
153	156	1
111	124	1
167	169	2
43	46	2
50	57	1
153	155	1
36	167	1
188	193	1
137	146	2
18	22	1
4	9	2
119	197	3
162	166	2
150	171	1
144	192	1
64	71	2
26	84	1
157	165	1
111	114	2
47	52	1
160	181	2
168	170	2
20	86	1
119	121	1
115	129	1
131	140	1
104	106	1
24	26	1
41	61	2
156	159	1
164	171	1
76	80	1
156	174	2
149	156	1
24	39	1
65	72	1
153	189	1
160	185	1
19	22	1
72	88	1
34	166	1
24	28	1
42	58	1
112	127	1
23	26	1
136	178	1
