31	34	1
85	86	2
96	96	4
51	52	2
79	85	2
86	97	4
39	46	3
56	62	3
39	40	4
53	62	1
27	28	8
51	85	3
45	48	1
38	73	4
84	91	1
91	92	1
24	44	1
36	38	1
68	70	5
46	75	3
35	97	1
99	102	2
54	59	2
87	87	2
26	26	6
54	58	6
79	82	2
88	105	5
53	56	1
101	101	7
22	25	7
97	97	1
67	95	2
88	88	7
21	22	4
23	44	5
72	80	1
90	90	6
102	107	1
55	72	5
65	65	5
98	102	6
69	69	6
76	76	9
90	92	2
75	77	6
25	26	2
64	65	1
55	60	2
55	56	4
28	59	2
32	36	5
63	65	1
53	54	3
94	94	3
25	25	2
50	51	6
33	34	3
100	100	5
27	27	4
74	75	2
103	103	1
32	54	2
60	61	1
62	66	2
35	35	8
102	104	3
83	103	5
25	31	2
98	104	3
62	98	1
92	92	3
85	97	4
81	82	1
29	29	3
46	59	2
34	34	8
41	61	2
70	88	3
47	48	2
75	75	1
40	61	1
69	72	2
62	62	3
49	59	2
98	105	1
93	93	3
94	95	4
91	91	4
86	96	3
28	29	3
66	68	4
39	52	3
61	61	5
20	25	1
46	47	3
79	80	4
73	75	1
54	84	5
69	70	3
77	87	2
74	74	1
79	84	1
59	65	3
89	98	3
91	94	2
78	78	3
24	25	5
53	57	1
84	89	1
48	52	4
86	101	2
86	90	2
21	23	1
82	98	2
63	64	4
24	49	1
70	70	2
60	68	1
60	60	2
83	83	1
49	49	6
37	38	1
22	24	1
81	81	4
59	68	1
71	92	2
61	67	1
104	106	1
36	39	3
49	55	3
86	87	3
84	92	2
83	89	4
86	91	2
49	52	1
57	58	2
99	100	7
99	101	1
85	105	2
82	90	3
63	107	2
70	71	2
77	82	5
52	55	2
21	21	5
97	102	2
41	46	1
68	68	5
100	101	3
48	48	3
94	96	1
51	51	6
82	82	3
36	43	2
78	85	1
89	105	2
22	23	4
89	89	4
64	90	4
39	39	1
43	49	1
66	67	4
71	71	2
76	78	1
62	64	7
104	105	1
48	86	5
105	107	2
58	58	3
60	107	4
82	104	3
71	83	1
40	49	3
86	86	1
59	61	1
23	50	1
24	24	4
54	54	2
35	42	2
78	82	1
69	73	1
103	105	3
80	80	2
72	73	2
55	55	2
97	101	1
47	49	6
30	42	1
77	77	3
33	38	2
98	100	1
40	42	1
79	88	1
77	81	3
57	68	1
72	88	2
89	91	1
61	62	1
62	81	1
42	46	3
101	104	3
46	48	2
72	72	1
104	104	2
95	96	2
40	68	1
77	88	1
48	49	1
66	66	2
46	46	1
64	80	1
96	104	2
30	33	2
56	57	1
87	88	1
60	74	1
78	80	2
95	97	1
33	48	1
20	21	2
71	72	1
103	104	1
42	45	1
83	100	1
67	75	2
24	29	2
56	65	1
47	52	1
36	36	1
35	47	1
49	73	1
61	71	1
76	84	2
72	77	2
53	59	2
86	88	1
67	71	1
61	63	1
73	74	1
23	26	1
66	91	1
35	37	1
91	95	1
66	69	1
97	103	1
68	85	1
64	71	2
41	41	1
26	29	2
93	96	1
73	79	1
56	56	1
80	89	1
51	60	1
30	55	1
53	53	1
43	45	1
39	41	1
95	95	1
75	76	1
98	98	1
56	61	2
79	103	1
97	98	3
25	28	1
49	56	1
33	36	1
58	73	1
22	22	1
87	106	1
33	40	1
63	63	1
37	47	1
82	101	1
25	45	1
79	79	1
59	74	1
49	74	1
55	65	1
