66	66	13
24	24	15
80	80	8
83	83	13
70	70	7
61	61	7
29	30	3
11	12	9
74	74	17
85	85	11
5	6	4
10	27	6
4	29	2
50	51	2
51	80	4
79	83	2
50	50	12
79	80	9
26	26	16
53	54	3
8	13	3
2	2	13
69	69	14
81	81	26
56	60	4
87	87	7
15	16	13
84	84	7
78	79	5
67	67	15
23	23	13
58	58	12
26	27	4
31	31	6
19	20	3
6	6	5
56	56	16
49	51	2
19	26	1
9	9	14
56	81	4
10	11	4
48	49	5
82	82	11
66	80	3
60	61	6
62	62	6
78	78	10
16	16	4
51	51	8
17	25	4
14	14	11
25	25	11
54	85	4
13	13	19
65	65	12
53	81	1
77	77	21
89	89	8
53	66	5
22	47	6
2	28	3
58	63	2
8	9	8
30	31	6
58	59	4
54	65	1
73	73	17
59	59	4
86	86	3
15	15	5
68	69	7
57	57	9
47	48	8
61	66	3
28	28	7
72	73	3
19	19	3
56	57	4
49	49	6
76	76	11
0	1	2
77	85	1
1	1	15
12	13	5
72	81	1
68	68	4
13	17	4
66	81	10
11	11	13
49	50	4
55	78	8
54	55	3
48	48	8
78	81	4
86	87	8
56	85	2
82	83	11
21	22	6
9	13	1
5	5	7
75	75	10
0	0	13
55	57	1
58	75	1
21	21	4
70	76	9
70	71	1
86	88	2
17	17	6
54	59	6
8	8	12
20	26	3
54	54	8
74	82	5
70	86	2
4	22	3
19	80	1
9	46	1
11	14	3
71	72	4
20	20	6
80	83	2
73	75	2
53	55	6
64	77	1
52	80	1
47	47	9
12	12	5
7	7	5
7	34	1
30	30	8
51	52	5
1	2	5
83	84	3
22	22	11
70	74	1
88	88	1
71	71	4
20	50	2
19	48	3
53	53	12
72	72	7
55	55	7
67	69	1
88	89	3
63	65	5
52	52	17
11	13	1
51	54	4
21	24	2
64	65	1
52	81	2
33	33	3
77	78	4
3	3	8
20	51	1
60	60	7
23	55	3
57	58	5
6	7	1
53	58	4
9	19	4
25	31	2
10	10	9
64	66	2
27	27	9
0	2	3
63	63	3
19	50	1
46	47	2
54	66	1
10	12	2
74	76	3
66	72	2
4	4	6
13	14	3
22	23	3
84	87	2
77	79	2
52	59	3
56	75	1
49	53	1
10	26	1
64	64	1
27	28	2
23	56	1
75	81	3
4	5	1
71	74	1
24	25	1
9	10	2
53	75	3
62	63	1
85	89	1
23	26	1
56	82	2
47	50	3
51	59	1
13	28	2
47	49	1
9	18	5
29	29	1
20	27	1
31	32	1
63	64	1
2	4	1
19	22	1
79	79	1
10	17	1
19	49	1
65	79	3
51	53	1
65	66	3
20	24	2
56	67	4
85	87	4
58	77	1
77	80	1
74	75	5
34	34	1
17	18	1
48	59	2
10	13	1
79	81	1
75	76	1
56	87	2
23	24	2
70	75	1
75	84	1
53	59	1
59	60	1
4	30	1
55	76	1
46	46	1
32	32	1
67	68	1
20	21	1
