124	124	42
75	75	37
131	131	33
37	37	30
4	4	24
116	116	44
128	128	29
85	85	11
104	104	24
114	114	19
140	140	32
18	19	5
74	76	5
123	123	23
86	86	18
121	121	21
94	94	9
133	135	2
16	19	4
124	125	12
134	134	48
10	11	16
119	119	15
8	9	5
134	135	12
81	82	5
127	127	34
14	14	20
23	23	26
84	89	5
96	101	3
104	116	5
136	138	11
5	5	20
108	112	3
36	37	4
34	34	32
112	112	28
10	23	2
82	82	11
129	129	30
113	113	12
31	31	16
85	112	3
84	84	12
34	35	19
79	79	5
120	120	17
141	141	4
104	108	2
96	96	10
132	132	40
12	14	3
137	137	42
133	133	36
126	126	39
90	91	9
19	19	12
21	21	19
30	31	25
1	1	19
76	77	2
128	129	14
75	87	1
37	38	9
17	17	14
16	16	10
86	113	3
73	74	9
99	100	7
71	71	6
135	135	41
131	133	1
11	11	17
131	132	13
99	99	14
38	38	8
7	7	10
72	73	14
121	122	6
71	73	2
80	81	7
72	72	12
77	77	13
114	115	5
27	27	13
12	13	9
11	12	8
118	118	23
25	26	20
133	134	3
79	80	3
21	33	3
78	78	18
20	20	33
107	124	5
80	96	2
23	24	12
130	130	66
79	96	2
14	16	8
112	114	13
22	22	18
36	78	2
32	92	8
139	139	39
26	26	9
125	125	30
129	130	14
97	98	14
13	13	12
111	111	23
122	122	31
15	15	10
16	27	3
138	138	22
74	74	17
115	115	20
0	0	16
75	76	4
7	9	1
5	6	3
110	110	13
127	128	7
1	3	2
139	140	3
104	105	9
97	99	4
74	75	19
98	99	1
87	87	20
6	7	2
103	103	22
12	12	7
107	107	9
28	29	4
95	101	3
95	95	15
18	18	23
120	121	10
136	137	6
100	125	2
1	14	3
113	114	5
9	10	3
95	97	4
24	25	6
93	118	4
93	93	16
125	129	4
135	136	5
106	107	10
100	100	24
76	76	9
88	88	8
97	97	9
2	2	12
115	118	1
27	28	2
9	9	9
138	139	7
136	136	19
106	109	4
111	114	3
100	101	4
118	119	10
79	82	2
101	107	3
117	117	24
32	33	1
80	83	3
71	77	4
15	73	2
7	23	6
33	33	24
101	102	5
108	109	4
97	108	2
122	124	2
36	36	13
130	134	6
121	123	4
6	6	11
102	102	23
35	35	22
89	89	24
73	73	7
106	106	12
34	88	1
19	27	1
135	137	6
95	131	2
93	94	3
90	90	16
8	8	6
32	32	10
0	6	2
83	83	17
103	119	7
15	26	9
1	2	5
92	140	7
24	24	8
111	112	5
2	22	3
123	124	3
28	28	9
1	8	3
89	90	3
25	25	11
4	6	4
14	15	1
104	126	3
112	113	8
32	36	2
98	100	2
15	17	5
3	4	12
77	113	3
132	139	4
3	3	12
126	129	3
84	88	2
4	5	5
1	10	2
19	26	1
98	98	11
116	117	12
80	80	8
95	115	1
109	109	12
5	11	3
95	96	12
81	83	1
117	123	1
77	95	1
91	91	22
92	92	3
75	90	1
14	21	4
0	8	3
132	133	16
26	33	6
17	18	9
94	96	2
126	127	7
94	127	2
82	106	2
88	90	5
82	85	1
15	16	4
110	113	4
103	117	1
2	4	7
8	85	1
94	95	6
33	34	7
0	1	8
3	5	9
20	21	11
17	19	5
36	38	2
71	72	9
88	89	7
98	116	1
2	3	2
26	30	1
75	77	5
83	87	7
7	8	4
78	102	1
126	128	1
109	112	3
72	77	7
3	12	3
107	108	3
13	14	10
116	120	1
79	110	4
108	108	12
107	121	1
109	110	3
20	27	6
137	138	5
79	84	3
102	103	3
10	10	4
78	79	7
21	22	5
81	81	11
23	25	5
28	38	1
72	78	3
98	128	1
8	44	3
104	120	4
31	77	3
92	110	4
106	116	5
93	97	2
15	25	4
92	93	4
19	85	1
30	32	1
77	79	4
35	36	2
125	126	4
31	32	4
0	124	6
33	92	3
19	28	2
106	117	2
28	32	3
2	5	3
101	101	14
2	131	2
107	111	1
96	126	2
85	86	2
105	106	2
82	84	1
120	122	3
130	131	3
16	17	4
0	4	3
130	140	2
81	99	2
77	78	6
9	128	1
129	133	4
109	111	2
134	137	3
135	138	3
107	120	1
105	105	2
86	87	2
20	87	4
83	84	2
3	8	3
111	115	1
104	129	2
20	23	1
30	30	7
93	127	1
92	94	2
119	122	4
72	79	4
21	24	1
87	88	3
22	23	2
118	120	2
100	118	2
87	90	2
35	37	1
20	68	1
98	129	3
19	29	3
29	37	2
102	122	1
110	111	2
4	7	2
94	104	1
97	130	2
19	21	2
104	122	1
108	111	2
6	8	1
112	116	1
129	138	2
26	27	2
73	79	1
14	101	2
99	128	1
37	79	1
131	134	2
109	115	1
102	104	1
102	119	4
117	119	1
7	83	1
124	129	2
119	120	3
83	88	4
84	85	2
83	85	3
37	108	1
12	120	2
29	31	2
115	116	1
13	26	2
23	31	1
20	86	2
66	66	1
121	125	2
103	104	3
72	76	1
29	38	1
21	86	2
79	95	1
122	123	2
95	130	1
90	101	1
18	26	2
16	18	1
110	112	1
93	112	1
89	91	1
73	75	2
29	29	1
134	138	3
101	118	1
19	87	1
