34	34	7
39	39	14
164	165	5
115	116	6
95	164	5
18	18	2
55	169	3
82	82	7
64	69	3
64	64	7
101	101	4
79	79	4
118	119	2
96	96	8
133	145	3
40	40	3
117	117	3
103	103	11
53	54	3
163	163	4
133	135	6
12	15	5
56	56	3
2	2	13
4	11	1
39	40	3
108	108	6
51	51	6
126	127	2
102	102	17
54	140	1
156	157	2
138	138	1
92	93	3
91	94	5
130	148	1
169	170	1
72	72	2
66	91	4
42	42	11
78	78	1
12	12	2
142	142	9
137	137	2
83	83	2
49	51	5
132	132	6
5	5	2
166	166	3
150	150	3
139	139	1
149	149	12
129	166	5
19	19	6
100	108	11
14	25	3
86	86	3
7	8	2
11	15	3
164	164	9
136	136	5
9	9	6
139	140	1
63	114	5
18	21	2
165	165	15
107	108	2
85	85	4
161	162	2
116	116	2
26	26	7
149	150	4
1	135	1
109	109	5
14	16	2
48	48	5
16	55	6
118	124	1
94	94	3
134	134	5
158	158	7
25	51	2
106	107	2
14	14	5
145	145	6
54	54	3
3	49	2
129	129	3
38	38	3
117	154	1
22	23	3
8	12	1
64	71	1
134	135	3
125	125	4
6	6	3
54	84	3
22	22	5
77	77	3
133	133	4
70	70	3
50	116	3
94	97	2
1	47	1
126	145	2
152	152	4
46	46	4
48	50	1
98	98	4
56	168	5
81	81	5
124	124	2
57	88	2
9	38	3
69	69	3
121	122	3
124	125	7
153	154	7
66	66	6
151	151	11
120	121	2
8	9	2
21	22	3
50	50	5
50	51	2
25	25	3
43	43	2
117	122	2
159	159	4
157	157	3
141	141	2
47	47	5
77	79	3
160	160	1
49	49	6
13	13	9
140	141	4
20	21	2
37	91	1
67	67	2
55	55	5
117	119	2
17	158	4
46	132	3
123	123	1
105	105	1
144	167	2
27	27	2
52	52	4
132	167	3
154	154	4
116	119	1
72	92	1
1	1	4
66	116	7
114	115	4
21	21	4
96	98	2
130	130	3
0	1	1
35	55	1
146	146	1
144	144	5
158	159	5
53	53	4
45	45	3
43	44	3
49	55	2
54	55	2
163	164	3
166	167	2
71	71	2
72	91	1
75	75	2
122	123	1
11	11	6
9	73	2
47	50	5
37	37	3
110	146	2
75	76	4
112	112	2
5	6	1
151	154	2
97	97	1
55	56	2
114	116	1
166	169	1
36	36	2
84	84	1
37	90	2
39	71	1
127	165	2
153	153	2
41	43	3
14	161	3
140	140	1
10	88	1
128	128	2
161	161	2
63	63	2
65	67	3
8	10	1
10	10	1
48	51	2
90	90	5
167	167	2
57	57	1
76	76	1
37	74	1
73	73	2
162	162	2
9	10	3
33	35	1
74	75	3
112	113	2
131	131	1
17	20	1
35	76	2
117	123	1
4	4	1
156	156	1
44	46	3
10	152	1
63	86	1
107	128	2
155	155	2
135	144	3
99	99	5
50	122	2
96	165	1
52	112	1
128	151	1
150	151	1
106	106	1
121	121	1
2	72	1
56	92	1
77	78	1
122	122	1
115	115	2
118	122	1
47	52	1
7	7	2
92	92	1
35	36	2
15	15	2
16	16	1
111	140	1
12	160	1
11	16	1
1	21	1
47	89	1
154	156	1
152	153	1
16	17	1
147	147	1
35	35	1
57	61	1
23	23	1
33	33	1
