104	107	1
42	42	7
99	111	3
88	88	10
14	15	2
19	19	6
123	124	2
169	169	6
132	134	3
155	155	1
40	40	7
91	151	1
80	80	2
38	39	5
71	71	2
100	100	8
91	92	2
12	13	5
27	27	6
47	57	2
100	106	1
24	38	1
41	41	2
19	27	1
72	87	4
36	36	3
144	145	1
56	56	6
81	82	7
14	22	4
54	54	4
46	46	4
124	124	2
151	151	3
13	15	2
0	0	3
21	21	2
104	125	2
144	144	3
50	52	4
63	82	1
52	53	2
87	87	3
66	67	6
77	78	4
47	85	2
78	78	3
99	99	7
37	69	2
51	53	1
98	112	3
55	55	1
37	37	3
8	9	2
115	115	7
21	23	6
38	51	1
92	92	4
12	62	1
154	154	3
39	84	2
7	44	3
161	164	3
25	26	2
25	102	2
93	134	1
126	126	2
157	157	6
58	58	2
120	120	1
93	93	1
109	110	1
84	84	1
57	57	2
105	105	4
16	16	3
39	40	1
101	106	2
48	79	3
140	140	1
161	161	3
81	81	3
87	137	1
106	107	3
7	144	1
100	159	1
79	79	2
12	12	3
94	94	4
69	71	3
70	71	2
8	10	1
120	121	2
18	18	2
5	7	1
150	150	1
166	167	2
97	97	3
72	72	1
40	84	1
138	138	6
3	16	1
24	24	1
69	69	4
157	158	3
108	108	2
166	168	5
142	142	1
6	6	2
116	117	2
91	91	7
134	134	3
152	153	3
103	103	4
57	62	5
129	134	4
83	86	2
100	109	3
25	25	2
163	163	3
28	28	2
20	22	1
101	101	4
56	57	1
34	109	2
168	169	2
2	2	3
145	145	3
35	36	1
93	108	1
4	13	1
51	63	2
121	121	2
9	9	5
117	117	1
96	97	2
51	51	1
125	146	1
44	44	7
136	149	3
115	122	1
24	56	3
166	166	1
148	148	6
133	133	2
7	7	4
160	166	1
82	82	1
128	128	2
13	14	2
15	15	2
20	21	2
72	77	2
47	86	2
80	82	2
86	86	3
159	159	1
65	65	1
74	143	2
24	26	1
101	124	3
62	62	1
96	96	4
37	71	3
105	122	1
119	170	2
66	66	1
82	151	2
93	133	3
7	8	2
63	79	1
131	131	4
11	12	1
105	107	1
8	8	1
43	43	3
126	127	1
19	20	2
105	167	1
1	2	1
112	112	3
156	156	3
47	49	1
100	160	1
136	138	2
34	34	2
152	152	4
47	47	1
155	158	1
120	140	3
6	9	2
132	132	5
49	50	1
75	75	1
38	40	3
131	133	2
110	110	1
137	137	1
127	127	2
160	161	2
8	56	1
66	79	2
108	109	1
68	68	1
71	93	1
89	89	3
104	104	2
73	73	1
22	45	1
22	22	2
25	36	2
48	48	1
76	78	2
164	164	2
13	13	2
167	168	2
7	10	2
47	50	1
35	35	1
39	46	1
44	94	1
42	43	1
116	116	1
98	98	1
49	83	1
149	149	3
58	62	1
99	162	1
64	72	1
76	76	1
89	95	1
1	1	1
18	19	1
39	41	1
110	115	1
78	133	1
143	145	1
74	74	1
105	106	1
