17	17	12
133	133	18
134	134	16
98	99	14
97	98	6
82	84	3
48	57	3
25	26	7
66	66	20
30	30	17
38	39	6
20	40	6
59	69	4
114	118	4
81	81	10
60	61	6
132	132	5
39	41	10
47	47	9
37	89	3
32	39	1
82	83	3
34	34	5
71	82	2
64	65	5
9	9	4
92	93	2
86	91	4
65	66	10
88	90	9
75	76	5
131	131	19
127	127	18
117	117	16
120	120	16
112	112	4
68	68	12
26	26	6
50	51	3
8	8	5
89	89	6
102	103	4
24	24	26
55	56	3
125	125	18
123	123	13
19	19	8
127	130	9
143	143	14
25	25	7
37	37	17
141	141	10
14	16	3
113	114	6
59	61	6
101	101	6
136	136	15
34	35	5
121	125	4
30	65	2
136	138	7
31	62	1
82	86	1
138	140	3
124	132	3
93	93	9
60	63	3
0	0	7
141	142	11
36	37	2
140	140	13
63	63	14
97	105	1
121	134	3
126	126	8
97	97	17
5	5	11
37	49	4
36	59	4
91	92	2
67	67	10
24	55	1
80	88	4
20	22	5
112	115	4
143	144	9
73	74	4
103	103	4
118	121	2
23	66	4
82	82	14
41	42	9
75	82	1
51	51	4
128	128	12
121	121	12
122	122	12
137	137	15
108	109	3
95	98	1
15	15	7
2	2	7
40	40	12
137	138	6
118	118	15
126	134	1
129	130	2
33	34	1
140	141	1
106	107	4
20	41	2
58	58	14
68	69	6
16	16	9
48	49	3
68	73	2
15	16	11
6	15	4
13	13	5
76	89	7
131	142	4
62	96	6
114	114	6
112	114	4
83	112	4
27	27	7
74	74	5
55	55	7
0	1	5
123	124	9
142	142	9
18	18	20
41	41	11
52	53	7
124	124	9
20	20	17
74	75	8
139	139	11
78	79	6
102	104	2
84	85	5
72	72	9
49	50	2
22	22	19
88	88	9
91	91	5
57	59	1
32	65	3
133	135	4
102	102	13
36	39	3
25	41	1
19	126	3
94	105	2
42	42	4
16	17	3
93	94	8
124	126	4
23	38	5
103	104	3
130	130	12
88	89	1
87	109	2
31	31	6
17	19	5
145	145	11
13	18	2
76	76	5
48	48	4
31	48	2
116	118	4
36	51	5
80	81	3
49	53	4
18	19	8
69	70	2
121	132	2
66	68	2
37	38	2
4	4	4
22	23	2
40	49	2
36	75	8
129	129	13
107	107	10
115	119	2
27	28	4
39	40	4
35	35	7
89	90	4
38	55	3
49	49	8
117	134	3
109	110	5
1	2	4
39	49	4
38	38	10
23	23	5
38	49	6
105	107	2
23	43	3
132	133	3
105	105	12
24	26	4
114	116	3
141	144	1
107	108	4
20	21	10
116	116	9
10	11	6
2	11	3
100	105	3
65	65	7
58	59	5
96	109	5
12	13	2
88	91	1
26	28	2
33	33	8
133	136	4
52	54	2
92	94	3
62	63	5
82	85	3
31	38	3
125	126	3
57	58	4
28	29	4
32	33	5
66	67	5
85	85	3
17	18	1
5	11	2
83	111	1
87	87	6
126	127	2
39	55	2
96	96	13
104	105	4
21	122	1
21	21	11
103	120	3
100	112	2
100	100	6
135	140	3
106	106	6
69	69	2
28	28	6
109	117	2
70	73	2
134	135	4
63	64	1
54	54	6
54	55	1
50	54	4
19	20	3
33	64	2
29	29	6
84	110	1
42	69	2
129	131	2
24	62	3
95	95	5
3	3	1
36	92	1
75	75	7
125	132	5
83	83	3
76	91	3
3	14	3
99	119	1
116	117	6
78	87	1
35	36	4
59	59	1
108	108	10
122	123	8
32	51	1
31	32	3
87	90	1
99	99	8
65	67	2
23	59	1
36	41	2
118	136	2
32	38	3
4	11	1
131	132	3
137	139	3
40	42	1
36	36	7
109	109	2
79	81	5
23	24	2
126	131	3
119	120	2
105	106	5
72	107	2
128	130	5
59	62	4
99	120	3
30	32	1
62	62	4
21	40	1
80	80	2
108	110	1
132	137	3
134	138	3
76	77	1
60	62	2
97	104	4
73	73	1
136	137	3
94	94	5
98	98	3
61	62	5
43	43	5
130	131	12
82	96	2
79	87	3
3	10	4
68	72	2
117	144	2
2	5	2
106	121	3
132	134	3
64	64	9
15	17	2
119	119	2
49	51	3
127	128	6
95	113	1
106	118	1
75	111	1
136	139	2
126	129	1
13	14	4
113	113	10
125	135	2
96	98	2
47	65	2
88	92	2
29	30	2
39	39	6
121	124	2
13	16	6
92	92	2
126	140	2
126	143	3
96	97	5
140	142	2
32	36	1
139	140	1
59	60	1
26	27	2
50	50	6
52	90	2
32	43	3
30	31	2
138	144	1
24	67	3
32	32	4
61	61	7
66	123	1
122	132	1
69	71	1
6	6	3
37	39	1
22	27	1
119	139	1
95	96	2
118	138	1
135	135	1
104	104	5
95	105	1
94	95	5
31	64	2
120	139	2
100	144	5
112	113	3
67	68	3
76	90	1
14	14	2
79	80	1
142	143	4
115	116	4
60	60	2
51	52	1
111	114	1
37	92	4
18	21	4
125	127	2
111	111	2
19	22	1
121	122	2
38	68	2
61	63	1
111	116	2
124	127	3
56	57	1
12	12	1
126	137	2
138	143	4
102	111	1
54	94	1
107	117	1
145	146	1
110	111	2
139	143	2
93	107	1
122	137	1
16	38	2
129	141	1
138	141	1
14	15	1
36	38	1
51	54	1
121	123	1
120	128	2
10	10	1
41	55	1
128	129	2
1	1	2
88	95	2
107	114	1
90	90	3
52	52	2
121	138	2
142	144	1
18	126	1
124	125	1
125	143	1
11	11	1
62	94	1
63	89	1
111	112	1
79	93	1
27	66	1
126	128	2
21	39	1
110	119	1
73	109	2
100	103	1
138	138	5
124	131	1
98	122	1
87	89	1
33	90	1
94	97	1
99	105	1
114	115	3
99	100	2
84	84	1
101	127	1
125	129	1
118	119	1
70	71	1
101	102	3
56	59	1
101	144	1
79	92	2
71	71	2
27	67	2
104	122	1
42	49	1
47	60	4
77	77	1
86	86	1
83	113	1
121	139	1
23	39	1
138	139	3
31	65	2
22	29	1
29	42	1
77	87	1
77	78	1
140	143	1
110	110	2
79	79	1
126	142	1
71	74	1
100	101	1
65	68	1
47	62	1
77	79	1
41	50	1
42	65	3
5	13	1
22	124	1
81	96	1
100	102	1
38	40	1
24	25	1
74	94	1
144	145	1
