106	106	9
35	72	7
119	119	9
38	38	10
36	36	2
82	83	5
21	62	3
26	26	13
36	37	3
38	131	2
56	56	1
111	112	2
50	88	7
81	93	1
67	67	8
88	88	2
90	90	4
27	92	7
10	10	19
83	83	14
99	99	3
115	115	9
81	81	5
68	68	13
121	122	3
79	80	16
112	118	1
7	49	1
66	66	7
11	11	10
113	113	7
63	63	9
118	118	11
45	45	16
35	35	19
65	65	7
111	111	2
20	22	1
72	72	6
27	27	11
15	35	5
75	75	14
14	96	2
42	42	2
8	92	7
94	94	10
77	77	12
49	49	6
103	103	8
128	133	1
85	85	7
18	18	4
96	98	3
91	91	8
107	107	6
59	59	15
74	75	5
0	60	1
95	95	7
112	116	5
102	102	5
46	46	13
46	47	2
29	29	18
19	19	10
25	26	6
98	100	2
1	20	3
41	43	4
31	31	13
70	70	11
81	113	1
34	73	1
68	73	5
20	21	7
29	49	5
13	34	1
48	50	2
45	46	2
95	114	2
64	76	1
11	31	2
28	28	8
79	79	18
41	42	5
110	111	6
16	16	11
101	101	10
123	123	5
35	73	3
116	116	5
96	96	6
89	93	2
46	95	3
74	74	21
104	105	12
97	97	6
110	110	6
31	80	1
104	104	9
37	37	8
11	33	5
128	128	14
129	129	3
34	34	15
6	6	9
100	100	10
36	47	3
114	115	10
98	98	11
27	45	1
84	84	2
125	125	6
58	58	11
10	33	2
24	32	2
21	32	3
131	131	6
27	28	6
39	43	4
107	108	1
86	86	4
109	109	15
78	80	4
15	15	3
20	106	3
47	68	3
80	80	8
63	68	4
9	9	6
131	132	3
71	72	7
47	82	3
31	32	2
116	118	2
120	120	6
70	73	1
28	70	2
120	125	13
24	24	5
16	17	3
89	89	2
0	1	2
4	5	4
64	65	1
3	43	2
79	96	2
59	60	7
41	41	8
71	71	12
83	84	7
69	69	8
77	78	3
81	95	3
93	93	16
12	12	8
61	61	14
5	6	6
10	12	4
29	93	3
130	130	13
8	79	1
82	121	5
35	46	2
99	103	1
23	23	8
94	109	1
22	32	2
91	94	4
19	20	3
1	83	3
4	104	3
20	20	10
104	112	1
134	134	6
17	103	3
105	112	4
95	96	5
85	112	2
60	60	8
5	14	2
17	17	12
57	59	2
22	22	7
21	85	3
57	57	1
78	78	13
112	112	12
48	81	8
9	10	4
68	69	8
25	28	4
32	32	7
112	113	5
13	35	4
79	83	4
40	40	11
51	59	6
19	21	3
79	82	2
127	133	2
13	13	5
129	130	3
62	62	6
28	29	2
122	122	11
2	2	2
4	32	3
45	60	6
8	8	13
8	76	1
64	64	13
82	84	1
2	55	2
18	29	5
4	93	1
108	110	1
21	21	12
115	116	1
47	47	19
125	130	1
29	30	3
63	74	4
79	94	4
59	70	1
93	94	7
29	62	2
69	70	2
75	76	4
126	126	3
14	35	1
48	49	4
70	71	8
4	4	7
119	122	3
76	76	2
44	44	3
123	125	1
33	33	4
14	14	5
20	107	2
71	74	2
16	83	2
119	120	1
13	14	1
84	95	2
94	117	2
33	61	2
82	116	3
27	59	4
47	71	1
43	78	1
94	114	1
92	92	10
132	133	3
14	15	6
97	98	3
42	43	6
62	94	2
0	0	7
9	13	3
124	126	1
46	60	3
122	126	1
66	67	6
100	101	2
114	114	4
50	93	3
30	30	10
125	126	1
98	101	1
5	5	12
44	57	2
18	19	1
23	24	1
11	93	2
20	122	1
3	3	1
120	122	1
25	25	4
51	55	3
9	22	2
4	6	5
89	90	2
18	21	4
96	97	5
49	50	4
45	84	1
121	121	1
84	87	2
106	107	2
60	61	1
55	81	1
16	74	1
105	105	5
83	94	2
11	126	2
1	29	3
62	75	3
14	63	2
43	73	1
4	16	2
55	55	3
81	82	1
37	38	2
5	11	2
94	95	1
73	73	7
118	119	1
82	82	2
114	116	2
15	91	1
48	48	6
49	87	2
72	93	5
88	93	2
132	132	3
8	32	1
62	67	1
10	41	1
7	96	2
62	64	2
21	59	2
16	62	2
45	56	1
30	31	2
9	12	1
13	125	1
114	120	1
68	123	1
31	48	3
89	91	1
98	99	4
125	131	3
40	41	4
128	129	1
7	7	2
2	25	1
36	72	1
120	123	2
22	121	3
122	123	2
19	27	1
20	23	3
41	120	2
80	95	1
75	96	1
59	81	3
101	125	1
35	74	1
40	43	2
73	75	1
126	133	5
99	100	1
111	123	3
58	81	2
39	39	3
28	108	3
6	91	1
43	44	2
70	87	1
58	134	3
3	6	1
45	89	1
9	16	2
17	60	1
48	99	1
15	16	5
91	93	1
77	87	1
94	123	1
40	42	6
133	133	2
60	83	1
113	120	2
91	96	1
26	27	2
31	46	1
22	44	1
115	119	1
33	34	4
1	56	1
48	109	1
55	59	1
108	109	1
16	18	4
60	76	3
78	88	1
19	107	1
28	91	1
79	91	4
72	73	1
10	11	1
106	108	4
17	22	2
102	106	1
32	40	1
18	23	1
117	117	2
39	49	3
80	83	1
49	99	1
64	69	1
116	120	1
47	67	1
58	117	1
60	81	1
19	46	1
105	110	1
36	41	1
17	62	2
64	71	1
41	123	1
29	31	2
73	74	1
11	12	1
1	1	1
7	83	1
32	72	1
4	26	1
124	124	2
51	51	1
2	51	1
25	83	1
34	35	1
29	47	1
31	39	1
27	93	1
131	134	2
71	75	1
34	72	2
32	36	1
2	24	1
3	5	1
44	60	2
45	73	1
82	86	1
73	76	1
3	99	2
16	72	2
91	92	1
120	129	1
123	131	2
109	110	1
30	48	2
126	130	1
20	121	1
85	86	1
102	123	1
126	131	1
92	93	1
48	80	1
12	13	1
130	133	1
47	48	1
44	56	1
25	93	1
27	79	1
32	34	1
61	68	1
18	77	1
3	19	1
123	127	1
94	96	1
1	61	1
119	131	1
