63	63	3
197	198	7
27	27	15
109	110	4
4	5	4
186	186	10
200	200	4
165	171	1
74	105	5
68	69	2
217	225	1
51	52	4
34	34	10
201	201	7
39	39	8
89	89	3
51	51	4
183	183	11
195	195	9
155	156	1
157	157	4
70	70	11
26	186	1
97	98	7
224	224	14
60	61	5
179	179	1
39	45	4
33	33	13
150	150	4
161	162	8
171	171	12
31	31	9
26	26	13
84	84	8
65	71	2
43	44	2
75	77	4
96	97	4
211	211	13
209	209	5
225	225	14
233	233	11
156	156	9
30	30	2
236	236	7
190	191	5
234	234	3
110	110	15
245	246	7
77	79	4
93	93	8
188	188	11
159	162	1
152	152	7
62	64	3
94	94	10
11	11	11
198	198	4
61	61	13
58	59	1
120	120	2
174	174	3
44	44	12
76	77	5
69	70	4
212	212	9
240	240	4
31	32	6
20	20	12
214	214	8
17	18	4
151	151	22
157	166	1
178	195	3
106	106	5
177	178	3
220	222	3
98	98	4
210	210	7
167	168	2
92	92	9
203	204	5
112	112	8
208	209	3
204	204	13
62	62	5
54	55	8
163	163	6
219	219	11
152	154	4
96	96	6
152	153	3
110	113	5
170	172	4
95	96	11
32	201	4
83	83	2
159	159	9
17	17	4
21	206	5
145	161	1
158	166	1
68	68	5
117	117	1
8	8	9
227	227	3
35	35	2
34	60	1
102	102	8
78	79	5
7	7	12
62	63	4
247	247	4
52	55	2
35	47	3
86	86	4
168	169	5
178	178	7
215	216	2
24	24	7
19	19	2
54	54	4
162	162	7
25	25	10
60	69	2
215	215	6
6	6	5
154	154	5
22	22	5
32	46	1
119	120	1
160	161	6
236	237	1
186	187	2
171	172	3
66	68	2
231	231	4
48	48	2
153	153	3
232	232	7
184	190	4
207	207	6
21	21	5
14	14	8
178	196	2
15	15	16
108	108	6
170	181	1
73	74	4
224	225	1
37	38	5
179	180	2
5	248	2
173	173	10
39	118	1
107	113	1
56	70	2
47	48	2
223	223	4
75	75	8
116	116	3
46	46	16
245	245	7
113	113	2
47	47	1
32	32	7
65	66	5
39	40	3
217	218	1
102	103	5
229	229	8
45	45	4
198	199	4
221	221	12
114	114	5
163	247	3
158	158	4
49	50	3
226	227	2
153	154	5
26	211	3
79	81	2
181	191	2
159	166	2
200	201	4
49	49	6
175	175	2
175	176	2
158	160	1
67	77	2
150	168	2
36	47	3
184	189	2
167	167	11
87	87	3
5	5	5
67	78	2
177	184	1
220	221	3
57	62	2
4	4	7
239	239	3
58	58	3
242	243	1
18	18	7
246	246	4
38	38	3
12	16	2
176	176	3
53	92	2
185	185	5
56	56	7
237	237	6
66	66	2
57	89	2
177	177	6
7	8	3
189	190	6
213	214	6
163	173	3
95	95	7
224	226	1
66	70	7
73	86	1
74	74	3
33	248	1
102	109	2
109	109	6
59	59	6
101	108	2
228	228	4
202	226	4
181	182	6
180	188	4
238	239	4
170	171	1
15	17	1
99	99	3
230	231	1
183	185	2
160	160	5
155	155	5
81	82	1
19	20	2
93	94	2
48	51	1
180	180	9
226	226	5
28	47	5
209	212	1
60	62	2
91	91	5
235	235	6
42	42	1
219	220	3
16	16	4
182	182	1
1	2	1
6	7	2
220	234	3
33	55	4
118	118	5
50	58	2
80	81	4
180	183	1
79	82	5
114	116	5
49	90	2
46	185	1
10	10	4
77	77	3
44	45	1
208	208	4
99	100	2
187	187	3
7	45	6
145	145	6
79	91	3
180	182	2
202	203	4
36	36	4
50	113	2
72	73	1
76	97	1
56	85	3
238	238	2
37	37	4
41	43	1
149	151	2
38	46	1
86	115	1
220	220	3
43	43	3
202	202	3
82	82	4
101	116	3
42	43	6
111	112	2
33	36	2
168	168	2
59	60	3
88	89	1
86	87	3
26	201	1
158	159	1
90	90	2
166	166	4
3	3	4
111	111	2
196	197	1
165	170	1
111	245	1
40	40	2
78	78	4
234	235	3
243	243	2
242	242	2
79	79	1
67	67	1
12	12	8
191	191	3
206	206	7
179	186	1
216	217	3
70	71	1
193	193	1
191	192	2
53	67	3
9	9	3
25	41	4
203	203	3
47	49	2
23	72	2
33	245	1
68	151	2
181	192	2
170	170	5
157	162	2
211	212	1
25	32	2
229	230	3
177	186	1
96	98	1
197	197	1
20	247	2
108	109	2
97	97	1
172	205	1
241	242	2
213	213	4
193	194	2
75	76	1
169	190	1
181	189	1
36	37	2
161	161	1
195	210	2
181	181	5
94	95	3
107	107	3
169	174	1
32	33	2
87	88	3
33	34	4
101	101	1
31	38	1
41	41	8
176	178	1
165	165	2
29	29	4
22	23	2
55	56	3
248	248	2
226	228	1
223	230	1
196	196	1
53	53	3
157	158	2
12	246	1
231	233	1
188	190	2
3	6	1
168	186	1
3	228	1
119	119	3
20	246	2
210	211	1
28	28	4
87	90	2
178	179	6
204	207	1
20	201	2
162	165	1
194	194	4
212	220	1
100	101	3
52	52	6
172	178	1
60	60	2
23	23	1
201	202	2
2	2	1
61	62	1
172	173	1
53	54	1
67	70	1
153	169	4
188	191	2
5	51	1
187	188	2
113	114	1
175	184	1
163	164	1
115	115	4
100	115	2
194	195	1
228	229	1
174	196	1
241	241	1
247	248	1
180	197	2
179	193	2
205	218	2
16	145	2
168	200	1
23	215	1
20	44	1
70	72	1
180	185	1
56	88	1
222	222	2
97	99	1
142	142	1
159	165	2
244	244	1
37	45	1
97	112	3
207	209	1
158	163	1
241	246	2
28	30	1
199	199	3
64	66	3
50	50	1
78	102	1
243	244	1
157	161	1
147	147	1
169	169	2
171	174	1
239	242	1
52	92	1
225	226	2
11	12	1
204	225	1
85	86	1
221	230	1
52	54	2
31	44	1
36	60	1
162	163	2
239	240	2
27	28	1
69	69	1
88	88	2
25	206	1
169	192	1
107	108	1
209	213	1
216	216	1
249	249	1
65	67	1
164	166	1
146	146	1
64	109	1
220	228	1
206	207	1
31	37	1
184	184	1
205	205	1
163	172	1
55	55	1
