90	90	7
95	95	6
140	140	7
80	82	4
63	66	1
51	52	3
116	133	3
75	75	3
57	57	4
126	126	8
122	122	3
83	83	9
150	152	3
3	3	5
58	61	5
140	161	1
102	103	9
11	12	4
158	158	14
63	63	6
125	129	1
16	19	4
151	151	8
124	125	4
153	153	6
32	43	1
46	47	5
151	155	7
194	194	10
156	156	19
37	37	6
182	183	4
15	15	14
23	23	12
59	60	5
7	7	9
45	45	7
10	10	13
151	158	4
105	159	1
16	16	10
139	139	10
105	105	3
4	5	5
117	117	11
183	183	20
171	171	9
123	141	4
89	89	1
141	141	16
139	140	8
55	55	7
69	69	14
36	56	1
105	106	3
187	187	6
159	159	2
189	189	14
174	175	5
42	42	15
51	51	4
66	67	11
119	119	11
181	181	7
99	99	7
120	120	17
94	95	11
86	86	4
152	152	11
114	121	2
142	142	8
173	174	3
128	129	3
62	102	3
138	138	8
111	111	10
169	170	1
136	137	9
27	27	14
174	174	11
100	197	4
186	186	15
98	98	1
58	59	3
131	133	1
132	135	5
169	169	14
165	165	11
25	25	6
137	140	1
175	175	9
133	133	11
161	161	11
135	135	7
193	194	1
193	193	14
155	155	9
61	63	3
168	168	7
182	182	3
133	156	6
64	64	11
166	166	9
134	135	3
157	157	6
1	2	4
18	70	8
40	40	11
12	12	6
132	132	11
103	105	4
172	172	8
38	56	5
117	134	1
19	70	1
101	101	14
132	156	4
77	79	6
192	194	3
164	190	2
148	162	1
4	28	1
15	17	1
40	41	4
77	77	2
112	112	2
59	61	5
177	177	19
103	103	7
143	143	5
39	39	2
130	130	10
39	56	1
115	130	6
109	110	5
121	121	12
108	108	5
157	166	5
6	7	2
143	145	4
6	34	3
1	1	2
192	193	3
13	13	4
124	124	3
163	163	12
130	158	3
100	100	6
107	114	1
24	25	1
196	196	13
134	134	7
62	63	8
144	154	2
44	60	3
54	133	2
18	19	7
93	93	2
106	151	2
26	27	3
138	160	2
167	168	2
25	28	4
21	33	1
179	179	15
178	179	1
197	197	5
39	41	1
106	106	12
129	131	3
190	190	5
102	102	5
143	155	4
44	44	18
9	9	9
148	148	4
8	8	7
80	81	2
123	124	4
3	18	1
27	30	2
172	178	2
57	69	3
149	149	11
163	164	6
67	67	6
58	69	2
76	77	12
150	150	13
158	169	2
95	96	8
191	191	3
41	41	10
179	180	3
164	164	5
118	118	16
49	78	1
42	43	11
35	35	12
56	56	2
131	140	5
7	8	4
11	11	14
141	142	2
73	73	8
148	156	3
5	6	3
134	137	8
54	54	2
190	192	2
184	185	4
88	88	7
113	113	3
180	180	5
63	65	1
54	55	4
20	20	11
110	110	12
49	49	8
0	29	2
148	165	3
161	162	4
138	139	7
143	144	3
76	83	4
34	34	4
29	29	3
147	148	3
93	95	5
129	130	9
72	72	6
43	74	3
173	173	7
181	192	2
38	74	1
65	65	1
0	0	3
93	94	2
15	16	2
18	18	4
116	147	3
139	168	2
51	59	2
135	152	4
163	189	4
30	30	4
135	192	1
108	158	1
114	149	3
31	31	4
74	74	9
170	171	3
176	176	11
48	52	3
115	119	1
136	143	1
183	184	3
170	189	1
157	158	6
45	46	7
116	129	2
43	53	5
28	29	1
24	37	2
52	53	1
139	161	1
116	117	8
178	181	2
83	84	4
59	59	12
154	154	7
147	147	7
164	168	4
8	36	5
97	97	2
50	51	2
109	109	4
68	68	4
186	187	5
66	66	9
101	161	2
195	196	1
185	185	10
178	178	9
137	137	7
8	24	2
76	76	8
128	128	2
71	71	3
22	22	5
126	127	3
80	80	5
0	28	2
97	99	1
186	189	2
4	7	3
108	109	3
19	21	2
130	132	1
172	174	1
168	170	1
123	193	3
99	110	2
104	104	8
168	179	2
56	57	4
96	180	4
177	178	7
110	117	1
0	3	1
37	38	3
139	148	1
38	38	6
144	146	6
7	19	1
38	39	1
64	66	2
156	158	1
25	26	4
125	126	3
169	183	1
98	99	2
131	131	4
162	164	3
6	6	9
188	188	5
144	144	4
155	156	4
143	152	1
41	51	2
107	107	3
46	46	10
60	74	1
94	94	7
58	60	1
168	194	2
123	123	5
2	2	1
116	116	3
166	172	2
58	58	5
100	149	2
26	26	7
19	19	2
10	14	1
101	129	2
142	155	2
5	7	1
180	182	3
2	3	3
85	85	2
82	82	1
32	32	4
133	149	2
154	167	1
140	159	1
26	29	2
176	177	1
174	194	2
96	96	5
148	168	1
168	182	3
16	31	1
113	149	1
132	137	1
48	48	1
154	155	3
129	149	2
4	4	2
78	78	5
171	172	1
135	144	1
149	170	1
105	124	2
184	184	5
154	157	1
15	42	1
187	188	3
80	83	2
0	23	1
33	57	4
50	50	3
152	169	3
154	158	4
15	30	5
73	74	3
121	135	1
118	129	1
151	159	1
146	146	6
88	89	1
36	36	2
17	17	6
136	136	3
120	149	3
158	159	4
171	185	4
187	189	1
9	10	1
172	181	3
156	169	2
114	147	3
10	30	1
7	23	1
0	2	1
43	44	2
8	9	2
118	135	1
99	108	2
43	73	1
165	166	2
169	180	1
178	193	2
192	192	7
3	4	3
112	118	1
0	1	2
4	24	1
123	125	1
51	90	3
43	43	3
174	181	1
129	129	3
101	150	2
129	142	2
71	72	2
4	8	3
160	160	1
132	159	1
145	145	5
21	21	5
31	38	1
98	173	1
195	195	3
5	32	1
168	169	2
111	124	1
135	140	3
117	118	3
149	150	1
110	111	1
131	159	1
152	153	4
20	33	1
107	135	2
53	53	2
190	191	4
120	121	1
136	140	2
52	52	1
115	115	2
185	196	2
61	61	3
122	123	2
185	186	1
62	62	1
135	139	1
120	151	1
96	97	2
190	196	1
132	160	1
73	81	2
162	172	1
31	49	2
141	171	1
115	133	1
173	182	4
0	15	2
138	140	1
194	195	1
134	136	1
170	170	1
95	151	2
70	71	2
167	167	2
39	40	1
87	87	2
125	125	1
23	24	1
32	33	2
10	11	2
37	42	2
20	21	1
107	132	1
130	131	1
127	127	2
13	44	1
0	19	1
109	111	2
29	35	2
107	118	1
112	135	1
165	167	1
24	24	3
174	176	1
146	167	1
9	43	1
113	193	4
189	193	1
130	133	1
47	47	1
65	69	1
139	164	1
100	112	1
161	172	1
31	32	2
30	31	1
29	80	2
142	153	1
125	128	2
121	123	1
60	62	1
117	135	1
10	13	1
109	157	1
28	28	2
115	132	1
42	71	1
183	194	1
63	64	2
44	45	1
94	96	1
3	7	1
162	162	2
107	115	1
81	81	1
79	79	1
107	108	2
148	170	1
16	17	1
135	143	1
179	181	1
6	19	1
103	104	1
154	168	1
132	146	1
21	22	1
144	153	1
162	165	1
191	192	1
