82	82	23
25	25	6
83	83	18
19	19	16
62	78	2
75	75	6
55	55	17
57	57	20
67	86	2
15	16	4
63	66	3
65	66	10
7	23	2
71	73	4
48	52	1
56	59	2
76	76	6
26	27	3
6	19	4
14	14	17
50	62	5
17	30	4
67	67	14
60	60	18
4	4	11
65	77	2
56	69	1
85	85	5
10	10	6
59	59	20
58	58	9
64	78	4
47	47	13
22	22	12
77	82	3
18	25	4
59	60	9
80	80	8
16	16	4
75	77	8
72	73	7
10	13	6
29	29	6
53	66	5
24	24	10
54	54	17
20	20	6
5	5	15
23	23	8
86	86	8
11	11	15
30	30	10
15	15	15
73	73	13
31	31	7
6	8	2
69	69	9
8	9	4
79	79	14
5	6	3
14	25	5
53	59	2
58	60	2
77	77	9
9	11	3
12	12	11
66	66	6
63	64	4
51	51	9
61	71	4
48	48	9
52	52	18
67	75	1
63	63	10
13	26	1
89	89	7
52	65	3
18	57	1
49	49	11
10	20	4
49	62	1
47	48	5
77	80	2
17	31	1
60	61	1
64	80	4
6	13	1
9	20	1
73	74	3
46	71	1
70	70	7
3	3	12
71	71	11
13	17	4
56	56	5
51	52	10
12	13	5
0	0	6
27	27	6
6	7	8
20	70	1
8	8	13
53	53	7
47	56	3
55	59	1
62	65	4
72	74	3
87	87	7
50	50	12
6	27	1
74	74	6
13	13	18
46	47	5
61	63	4
46	46	2
84	85	6
17	26	1
10	11	1
8	25	2
53	54	7
63	78	1
21	22	5
77	81	1
72	72	9
61	61	7
26	26	18
31	32	2
53	68	4
7	7	11
65	65	6
20	22	1
18	22	3
80	86	2
82	83	4
19	27	3
59	65	3
50	51	2
5	14	3
86	87	1
49	52	2
28	28	12
65	71	1
88	88	8
11	18	1
81	81	4
78	78	5
13	16	2
64	64	5
21	21	3
19	70	2
57	66	1
68	68	12
84	84	7
59	62	3
51	58	1
23	27	2
20	24	1
17	17	7
65	78	2
57	58	1
66	67	2
29	30	2
62	63	6
61	78	3
6	26	3
24	25	7
74	76	4
62	62	7
6	6	10
17	27	3
19	20	1
80	81	2
83	88	4
22	24	5
7	8	3
59	61	1
7	26	2
9	10	6
51	64	1
81	82	1
85	88	2
8	26	2
23	24	1
69	71	1
8	27	5
85	87	3
49	56	3
49	71	2
57	70	2
61	65	2
9	13	3
30	89	2
20	25	3
18	46	2
53	56	1
66	81	3
85	86	1
1	1	7
20	23	2
17	23	1
49	76	1
55	68	3
5	22	1
11	12	1
76	78	1
63	75	1
6	25	1
19	23	2
56	57	5
62	64	2
55	69	1
10	53	1
46	48	2
78	83	2
67	68	3
9	18	1
49	53	1
83	86	1
16	20	1
2	2	4
50	72	1
64	82	1
5	17	2
19	26	2
3	4	1
18	18	3
63	65	4
20	32	1
81	83	1
9	9	5
19	24	2
19	31	2
17	22	3
62	66	2
58	63	1
6	51	1
64	79	2
52	66	3
73	75	2
84	89	1
9	25	2
22	23	1
61	62	1
75	78	2
22	26	2
24	27	1
11	22	1
5	52	2
53	55	2
47	75	1
11	31	1
25	26	1
48	68	1
27	28	1
56	70	1
76	77	1
25	27	1
16	17	1
82	86	1
78	79	1
75	76	1
49	50	1
64	77	1
6	46	1
54	55	1
64	65	1
53	69	1
88	89	1
73	76	2
51	80	1
16	23	1
15	82	1
79	80	1
