132	133	8
122	123	6
3	3	4
124	124	11
71	71	14
58	58	9
19	19	9
81	81	7
79	81	2
74	74	20
107	126	6
15	15	16
103	103	3
61	61	13
40	40	14
76	76	16
71	78	1
109	114	3
12	12	8
17	18	6
85	85	6
66	67	2
20	25	4
43	43	12
80	81	2
32	32	14
21	60	2
18	18	3
14	14	13
15	43	2
46	47	3
30	32	5
15	45	2
72	72	24
25	26	12
66	66	18
65	65	31
110	110	9
123	123	20
31	31	10
111	122	3
129	130	2
57	57	13
103	105	5
28	28	11
119	120	6
82	82	10
75	75	14
82	83	6
33	33	16
68	68	8
129	129	8
61	72	4
59	61	1
78	78	10
59	80	1
105	105	12
34	34	10
89	120	2
27	29	3
120	122	1
31	32	10
39	42	2
28	59	3
64	68	4
17	33	2
57	58	1
114	131	4
128	128	17
25	25	7
10	46	4
11	11	6
64	64	22
38	38	10
23	25	6
45	46	3
113	114	7
4	6	9
134	134	10
33	47	2
17	17	9
127	127	9
59	60	6
133	134	1
111	112	8
109	115	2
123	124	2
9	9	15
55	98	6
92	93	8
126	129	2
43	44	9
63	63	12
9	10	11
79	79	13
86	86	5
96	97	2
111	113	4
84	84	6
24	24	7
67	67	4
24	25	5
25	61	5
62	62	9
100	120	2
3	6	7
31	62	1
130	130	9
126	128	4
46	46	9
15	16	8
77	77	9
32	40	4
28	80	2
115	115	8
27	27	15
26	27	3
80	82	5
26	26	10
60	80	2
112	113	4
114	130	2
94	94	6
125	125	5
20	20	19
56	57	3
107	107	5
59	78	4
35	35	7
67	68	1
11	12	5
127	128	1
73	73	8
95	100	2
133	133	5
48	80	3
5	6	3
14	15	4
35	72	2
87	88	1
88	97	2
80	83	2
35	36	4
33	35	2
118	119	4
10	111	2
60	62	2
80	80	10
48	58	3
58	59	4
20	21	7
70	70	2
102	102	7
62	63	12
83	83	17
106	109	2
112	112	4
91	91	2
90	90	1
115	133	2
118	120	1
110	114	5
16	16	11
60	60	9
118	118	4
46	62	7
42	43	2
23	24	5
13	125	1
70	83	3
132	132	3
51	51	2
102	124	1
22	22	4
48	48	1
26	47	1
21	21	7
39	82	2
13	13	2
36	37	3
51	55	1
21	58	1
121	122	4
46	61	3
37	37	3
21	76	1
39	39	7
62	66	2
79	80	10
126	126	7
68	69	7
37	39	2
25	47	3
55	55	5
130	131	1
29	31	2
27	28	2
64	67	1
85	86	5
72	73	3
95	97	4
113	113	8
30	30	5
93	93	4
131	131	2
1	1	7
21	22	1
29	29	8
116	134	2
84	87	6
101	101	4
99	99	7
63	72	2
92	92	2
16	17	3
42	42	5
47	47	8
34	36	2
8	8	8
110	121	3
41	43	2
51	57	3
33	34	4
131	133	1
4	4	1
12	122	2
74	75	1
60	75	1
28	40	1
38	81	1
126	133	1
28	31	2
41	41	6
115	130	1
84	85	4
100	101	1
116	116	2
19	20	4
117	117	9
44	44	5
90	95	1
75	76	5
114	114	4
69	69	3
63	64	3
46	56	2
18	37	5
23	26	1
117	119	4
122	124	1
82	88	2
120	120	3
44	45	3
71	72	5
60	61	2
33	67	3
10	123	1
27	47	3
97	101	1
22	25	5
1	8	2
43	48	2
88	88	4
29	60	1
76	77	3
121	121	5
95	95	1
22	31	3
59	63	2
131	132	1
108	108	1
56	79	1
3	4	2
130	132	1
18	20	1
93	119	1
82	84	2
30	31	2
66	73	2
56	56	5
102	121	2
112	124	2
79	82	2
2	2	1
36	36	3
23	23	10
31	63	1
81	89	1
115	116	2
19	37	4
82	85	4
45	45	5
109	109	2
107	109	3
8	11	2
95	96	1
111	121	2
2	8	1
97	97	2
6	7	1
12	13	3
15	38	1
64	65	2
73	74	2
106	106	2
117	122	2
11	44	1
36	77	2
55	56	1
7	25	3
77	78	4
122	122	1
24	83	1
33	36	1
90	91	2
116	133	1
34	71	2
120	121	1
112	114	1
62	75	1
50	99	1
105	106	2
8	44	1
7	7	3
90	92	1
25	27	1
93	97	2
29	30	1
7	16	1
50	50	3
68	78	2
101	121	1
103	107	1
83	84	3
116	117	3
13	14	1
106	107	1
110	111	1
102	125	1
35	37	1
12	124	1
57	59	2
111	111	1
98	98	1
0	1	1
47	48	1
10	11	1
78	79	1
34	35	1
40	41	2
86	87	2
12	14	3
104	104	1
87	87	1
106	128	1
81	82	1
20	30	1
69	71	1
32	33	2
59	59	1
30	42	1
0	0	1
