31	31	6
21	48	1
57	57	2
58	69	2
75	76	2
41	41	9
6	8	2
24	71	3
2	2	1
7	7	2
9	10	4
38	38	1
56	56	8
31	35	3
36	36	5
24	25	6
42	42	18
30	31	4
43	43	8
26	26	7
60	60	6
31	34	3
69	69	11
19	19	9
58	58	7
54	74	7
28	29	3
38	54	2
70	72	1
44	56	2
73	73	8
76	77	6
37	38	1
59	59	15
50	52	4
20	20	5
24	24	7
8	22	5
1	69	1
71	76	5
54	54	7
25	28	1
43	50	3
13	13	9
57	59	2
30	30	8
72	73	4
59	74	1
21	62	3
48	48	2
6	6	8
72	76	2
48	49	4
49	50	1
57	58	7
74	74	3
56	59	7
26	50	2
23	26	2
49	51	1
74	75	1
63	63	10
25	35	1
5	8	3
65	65	9
55	55	6
50	50	7
59	69	1
34	35	4
43	56	2
71	75	5
22	22	8
23	23	4
11	11	7
27	27	11
32	33	5
57	70	2
35	36	5
68	74	2
52	52	3
68	72	2
4	4	5
51	69	2
3	3	9
25	53	2
35	54	1
3	71	2
29	29	5
9	9	2
51	75	7
28	28	7
59	61	4
50	51	4
8	8	2
53	53	2
52	53	1
37	37	2
25	25	4
61	62	2
22	26	5
2	51	3
55	75	2
48	51	2
30	75	1
66	66	16
19	68	1
47	47	6
77	77	3
44	47	2
50	75	1
39	39	3
62	62	5
21	34	3
0	29	1
7	8	2
32	32	8
55	60	2
21	21	7
51	57	4
0	0	3
32	67	2
70	70	6
59	77	1
31	38	2
65	66	1
34	34	2
44	44	5
62	65	1
42	45	4
27	53	1
30	36	3
61	61	6
1	25	2
8	37	1
38	39	2
71	71	7
40	40	3
53	54	1
6	58	1
51	51	2
55	76	2
33	36	3
50	70	3
40	41	5
36	37	2
64	65	1
58	70	3
45	46	3
37	54	2
58	68	1
46	46	3
62	63	2
63	64	2
35	35	5
37	41	1
61	64	1
49	69	4
68	68	4
43	54	1
13	69	2
55	70	1
35	39	1
18	18	1
18	19	2
47	65	2
2	3	3
47	48	1
22	68	3
51	52	4
44	45	2
58	59	1
3	19	1
71	73	1
49	57	1
48	65	1
27	28	4
76	76	2
42	43	2
21	24	2
3	8	2
5	13	1
75	75	3
20	21	3
32	70	2
51	74	2
50	68	2
35	38	6
25	27	2
72	72	6
3	4	1
23	31	2
1	13	1
46	47	2
33	71	1
0	2	1
23	37	2
22	29	1
4	5	1
70	71	1
54	67	1
10	11	2
36	38	1
0	23	2
19	46	1
49	49	3
22	23	1
42	47	1
54	55	1
27	30	1
2	4	1
33	33	1
67	67	1
34	55	1
1	4	1
19	20	1
35	40	2
18	21	1
10	10	1
1	2	1
56	57	1
30	70	1
28	30	1
21	61	1
27	75	1
13	14	1
0	49	1
