87	87	8
2	2	3
109	109	6
93	95	2
86	121	2
33	34	2
129	129	3
11	14	1
135	135	9
81	85	4
100	108	4
101	102	8
10	38	2
85	85	6
74	74	17
30	30	8
102	102	10
122	122	19
35	35	7
19	19	10
7	7	6
78	84	2
83	83	15
81	84	3
124	124	14
103	103	8
73	76	11
84	84	2
22	22	11
16	16	12
89	89	13
78	103	1
37	38	4
93	93	4
111	112	4
95	130	4
136	136	22
28	28	8
27	28	4
125	125	9
115	115	5
27	27	3
114	114	8
18	21	1
80	80	1
99	100	1
110	110	8
32	33	2
28	108	1
4	4	5
101	101	9
107	107	5
97	97	2
126	129	2
110	112	2
21	26	3
18	18	6
38	74	2
37	37	4
80	81	1
82	82	6
137	137	6
99	99	5
123	123	6
28	101	1
132	132	9
105	107	1
34	34	9
91	91	3
108	109	4
15	19	2
130	130	10
79	79	5
25	26	1
0	4	2
33	130	5
106	106	2
17	17	1
114	123	1
133	134	1
1	1	3
23	24	3
38	38	2
128	128	3
5	5	2
78	116	4
10	10	3
15	15	2
6	6	7
13	13	7
36	37	2
36	36	7
82	113	1
17	18	3
24	25	8
126	128	2
28	29	1
21	21	9
71	78	3
120	121	3
86	88	2
5	6	1
0	5	3
10	15	2
140	140	8
112	112	4
26	26	4
127	128	2
31	32	5
76	77	5
123	124	4
134	135	1
105	124	4
134	134	8
22	80	3
100	100	2
20	21	1
9	9	6
110	123	5
139	139	11
90	90	6
74	87	3
72	86	1
5	14	2
3	3	5
116	125	4
21	24	3
10	12	5
124	128	3
98	98	3
124	126	5
90	128	2
115	116	2
73	73	2
108	111	3
75	118	4
102	125	1
124	125	5
135	137	2
72	72	3
18	19	2
131	131	7
95	96	2
81	82	1
0	0	3
94	94	4
78	78	2
135	138	6
19	20	2
88	88	3
75	75	6
4	6	1
72	73	1
129	131	3
83	85	1
124	127	1
28	81	2
121	122	1
17	20	2
71	71	5
10	11	6
1	4	3
74	116	1
108	108	2
117	117	2
121	121	10
33	33	6
11	12	1
102	105	2
78	79	1
126	126	2
128	129	2
122	123	4
15	18	2
113	113	3
112	113	2
77	77	2
2	10	1
0	1	1
120	120	3
103	116	5
104	104	2
15	20	2
0	2	2
96	124	2
87	88	1
121	123	1
12	12	2
110	111	1
27	89	1
8	8	2
104	105	1
126	135	2
130	136	6
23	26	1
32	101	2
1	15	2
16	38	1
12	13	2
97	130	1
16	103	3
95	124	1
119	120	1
138	138	1
72	97	3
2	3	3
111	113	1
116	116	1
95	95	2
100	107	1
83	114	2
100	101	3
108	116	1
128	130	2
137	138	3
84	87	1
31	31	1
118	118	1
120	122	3
101	127	5
93	94	2
24	24	4
3	4	6
78	115	1
119	122	2
15	16	1
25	25	3
131	132	1
107	108	1
89	90	2
88	124	1
27	93	3
138	139	2
119	123	1
110	138	1
26	27	1
77	78	1
133	133	1
3	134	2
129	130	1
107	109	1
4	10	2
34	129	3
105	105	1
19	38	1
76	78	1
16	17	1
16	20	2
118	119	1
18	103	1
90	92	1
127	127	1
125	126	1
83	88	1
126	134	3
7	9	1
123	127	1
108	118	1
32	117	1
119	119	1
104	122	1
125	127	1
79	84	1
16	87	1
32	32	1
34	35	2
124	140	1
90	91	1
127	129	1
86	86	1
77	117	1
110	113	1
79	119	2
20	20	2
0	6	1
103	105	1
30	31	1
80	91	1
