101	101	10
112	112	7
55	55	11
12	12	9
43	43	10
26	26	13
147	147	5
48	48	9
69	69	5
27	28	4
53	53	7
151	152	2
149	149	3
118	146	3
71	89	1
127	127	17
150	150	6
6	130	4
86	86	5
17	18	5
85	85	3
82	82	7
68	69	4
11	11	9
104	104	15
71	71	5
7	8	10
3	20	3
111	111	4
116	116	4
115	115	11
114	115	9
90	90	9
156	156	8
29	30	5
31	31	5
27	27	4
48	49	5
37	37	9
154	155	5
20	23	2
140	141	5
145	146	3
0	0	19
141	141	12
90	95	3
13	13	6
19	19	10
89	89	2
137	138	14
46	46	14
3	3	14
142	148	1
13	33	1
138	138	11
153	153	6
23	23	6
26	99	3
107	107	14
30	30	11
51	51	5
65	65	1
134	134	10
6	6	6
66	69	1
29	29	7
64	64	5
133	133	9
115	116	5
32	32	8
126	126	6
94	94	2
32	41	4
128	128	10
40	43	4
120	120	5
136	138	3
24	24	17
105	105	5
16	16	3
99	99	11
122	122	11
105	106	6
41	41	6
103	103	7
155	155	7
78	78	2
84	84	1
56	56	1
33	34	2
145	145	3
8	97	3
7	133	5
77	78	2
142	142	6
80	81	4
117	117	8
41	42	1
31	32	5
40	40	7
123	123	10
113	115	1
152	152	4
132	132	11
104	149	1
70	71	2
43	45	2
98	99	2
50	51	10
88	89	5
98	98	4
119	120	7
3	4	5
97	97	7
96	96	13
86	87	7
123	125	2
34	34	11
2	3	2
103	107	2
139	139	5
108	120	6
32	42	1
42	48	1
51	52	4
2	2	8
51	108	3
83	85	7
7	14	2
6	133	2
36	36	6
18	23	3
93	114	1
125	125	16
53	55	3
15	15	1
158	159	2
8	8	7
20	20	9
130	131	3
151	151	6
30	120	1
93	93	8
106	106	11
10	61	1
75	75	4
6	8	1
115	141	2
66	67	5
42	68	3
136	136	8
19	21	3
21	23	2
154	154	7
9	10	4
12	14	2
67	67	4
97	98	3
137	137	7
83	83	6
62	63	3
121	122	2
1	47	2
121	121	10
17	22	2
113	114	1
38	38	11
150	152	2
96	97	7
87	104	3
132	133	3
21	21	3
155	156	5
10	10	8
129	129	8
127	128	2
87	88	3
140	140	9
79	79	8
54	54	3
39	39	7
148	148	4
135	139	2
108	111	2
128	129	5
7	7	3
18	18	10
25	31	3
70	70	1
126	142	3
157	158	3
80	80	5
92	114	2
135	148	1
28	28	3
19	20	1
35	35	5
64	66	2
102	105	1
50	50	4
51	53	3
4	4	4
9	9	4
143	143	3
95	95	6
34	46	1
40	41	2
27	137	1
53	54	2
143	144	5
27	138	1
112	123	3
3	47	1
135	135	6
87	87	4
130	130	8
5	5	7
4	20	2
16	18	1
81	81	1
150	151	4
118	118	5
66	66	6
135	138	1
80	82	4
102	106	2
22	22	4
1	1	4
117	123	3
152	153	1
48	50	1
33	38	2
146	146	4
91	91	1
79	80	1
102	102	1
145	148	2
77	97	1
12	44	1
25	25	1
153	154	2
12	13	2
82	92	1
142	143	2
42	42	3
90	91	5
69	70	1
87	95	1
72	72	3
45	47	1
114	114	8
110	110	3
63	64	4
129	130	2
73	73	2
44	44	1
124	125	7
35	45	1
47	47	3
78	79	2
158	158	2
24	128	1
33	35	3
149	150	2
25	26	3
86	93	1
108	110	1
67	68	2
77	98	1
16	17	2
32	34	1
103	104	1
108	108	2
7	55	2
14	16	1
84	86	1
73	74	1
37	130	2
72	85	5
75	77	2
86	89	2
17	17	2
127	139	2
3	45	1
77	77	5
128	140	2
107	143	2
52	53	1
144	144	2
92	115	2
109	110	2
82	91	1
49	49	2
62	62	1
74	94	1
123	124	1
102	138	1
18	19	1
136	137	2
37	135	1
65	66	1
135	136	1
49	50	2
45	45	3
83	90	1
28	29	4
19	28	1
128	131	1
102	107	1
11	12	1
49	51	1
0	2	1
139	150	1
112	113	2
45	46	1
7	131	1
20	21	1
146	147	2
92	92	1
87	89	1
39	94	1
124	124	1
65	73	1
88	88	1
26	27	2
23	28	1
20	25	1
52	52	3
139	141	1
72	73	1
76	76	1
119	119	1
12	33	1
23	24	2
83	86	2
113	113	1
126	127	1
139	140	1
3	15	1
2	44	1
105	107	1
46	47	1
6	39	1
110	113	1
34	35	1
87	107	1
100	100	1
73	94	1
36	37	1
