13	13	12
3	68	1
37	37	18
220	220	6
192	192	7
27	27	10
180	180	6
19	19	19
51	52	5
141	141	7
6	7	1
9	9	4
29	31	4
70	70	7
21	32	1
179	179	10
178	178	8
176	176	9
172	172	8
115	115	7
26	26	12
86	87	5
165	165	8
46	46	8
135	135	10
151	151	8
103	103	5
29	29	9
152	152	17
136	143	2
84	84	15
113	114	4
128	128	6
228	228	8
24	32	2
12	12	9
49	49	7
79	80	4
204	206	1
144	144	2
137	138	3
41	55	1
204	205	6
31	32	4
201	201	11
69	69	9
59	59	7
165	174	2
28	29	3
39	39	8
43	72	4
23	23	9
25	25	9
53	53	8
238	238	14
175	175	14
234	235	3
163	165	3
15	18	1
85	85	2
160	161	3
65	65	9
49	50	6
177	177	13
17	17	1
85	87	2
149	149	10
43	43	7
25	28	2
8	8	6
181	181	6
175	178	1
63	63	10
113	113	3
12	15	1
11	20	5
43	53	4
196	197	4
199	209	2
205	205	4
107	107	2
196	196	4
8	14	1
67	69	3
99	100	2
75	75	9
103	104	2
65	121	2
61	61	9
24	24	14
15	29	2
99	99	5
1	2	5
45	45	5
189	189	6
224	224	5
225	225	8
133	133	6
67	67	11
88	88	3
54	55	5
52	53	7
16	17	3
124	131	1
30	31	4
51	51	1
175	232	1
166	167	2
139	139	14
235	235	4
241	242	1
121	121	4
107	108	3
43	54	3
219	220	2
137	137	11
73	74	2
45	47	1
209	209	6
173	194	3
160	219	1
227	227	8
206	206	6
39	44	1
131	131	4
193	194	1
109	110	2
186	187	2
151	152	1
3	207	2
158	159	3
6	6	7
58	58	3
229	229	3
47	72	2
30	30	2
190	190	8
18	18	2
216	216	3
142	142	2
87	87	1
188	188	9
54	54	5
178	185	2
27	201	2
174	182	1
122	123	2
218	218	3
120	120	6
101	121	2
145	145	4
170	170	1
45	46	2
140	143	3
186	186	5
237	237	6
242	242	6
191	191	9
1	1	16
22	68	2
74	74	11
166	166	7
236	236	5
12	13	4
140	141	2
136	136	12
95	95	3
62	122	2
18	66	3
198	198	7
134	136	1
2	2	4
175	228	4
48	74	2
46	47	2
3	204	2
130	130	5
15	20	2
80	80	6
134	154	1
0	0	7
38	38	8
207	207	9
4	19	2
55	55	11
200	209	1
138	139	2
200	200	10
202	202	5
206	207	4
212	213	3
147	215	2
118	118	7
241	241	3
187	187	10
123	123	5
28	28	15
12	14	4
158	189	1
77	124	1
124	124	2
46	136	1
20	20	14
73	73	6
11	11	11
61	122	2
217	217	6
197	197	11
77	77	6
50	50	4
209	210	2
18	19	4
147	147	4
80	104	2
171	171	9
18	20	4
21	21	9
71	71	4
231	231	4
86	86	7
31	41	2
126	163	2
182	182	4
4	17	2
75	77	1
101	122	1
25	26	5
131	133	1
104	104	9
8	9	2
5	5	6
72	72	14
33	33	5
70	71	3
207	208	5
65	68	2
36	37	2
221	221	4
159	161	7
129	130	4
171	172	3
31	31	6
35	36	2
64	64	3
60	63	3
240	240	6
43	44	1
163	173	1
24	70	1
147	214	1
77	78	4
61	70	3
239	239	9
159	159	7
133	134	9
157	158	2
212	212	5
102	102	9
201	203	2
62	62	12
42	42	6
27	28	5
14	15	2
105	123	1
3	3	7
101	102	1
30	32	1
117	118	3
67	68	3
174	174	3
98	98	2
37	53	2
36	36	9
214	215	1
234	234	5
105	108	2
56	56	8
22	22	4
150	150	4
50	58	1
233	233	4
2	7	5
47	47	8
154	155	1
15	16	2
35	35	8
173	173	5
65	66	2
55	56	8
183	183	5
117	117	5
101	101	1
157	218	1
188	189	1
198	205	2
7	7	5
81	81	10
235	236	1
100	100	6
51	57	4
156	156	3
229	230	3
219	219	4
109	109	4
53	54	1
121	122	3
122	122	3
50	123	2
195	196	1
169	169	5
228	229	4
40	40	12
124	125	2
60	60	2
40	41	2
83	84	3
44	44	5
4	8	3
217	218	1
64	65	1
129	129	4
215	216	1
119	120	1
122	128	3
20	21	5
146	146	4
43	202	2
227	228	2
116	117	2
214	214	5
226	226	5
103	108	2
210	210	12
194	195	1
205	206	3
219	235	1
37	38	3
199	205	2
74	75	2
68	68	9
134	135	2
218	219	2
238	239	3
52	52	1
10	10	9
92	112	1
28	199	1
182	185	1
79	82	1
170	188	2
75	122	1
149	217	2
24	25	1
232	232	4
127	127	5
120	121	2
57	58	3
103	123	1
9	203	2
97	97	5
15	15	5
96	98	1
153	154	2
175	219	2
237	238	1
158	158	3
139	140	2
176	217	2
48	50	3
211	211	9
76	77	2
112	113	3
114	115	1
49	123	1
101	105	2
220	221	1
182	183	3
20	64	1
148	153	1
8	33	1
126	127	1
143	143	2
24	36	1
9	11	3
27	232	2
32	32	8
153	155	2
3	13	2
165	166	3
58	60	1
200	202	1
20	33	2
210	211	4
185	186	1
6	13	1
14	208	2
119	119	4
65	69	2
19	23	1
76	78	2
144	145	4
191	192	3
5	6	7
208	208	7
181	192	2
164	164	6
3	203	2
64	121	1
89	89	2
44	45	4
75	80	4
8	12	2
0	1	2
200	206	1
229	231	4
28	38	1
138	138	3
41	41	6
4	4	3
177	183	2
59	60	2
134	134	5
161	161	3
31	35	3
179	185	1
100	101	1
78	84	2
36	70	1
193	193	3
116	118	1
152	153	3
140	142	4
123	124	4
181	182	1
96	97	1
202	203	1
78	124	1
4	48	2
199	199	2
185	185	2
66	66	4
61	120	1
21	35	1
133	135	2
231	232	1
41	42	1
85	86	1
178	180	2
230	230	6
205	211	1
170	171	3
174	189	2
177	178	1
82	82	1
6	12	2
85	120	2
163	163	1
56	57	1
208	209	1
170	172	1
21	22	1
62	63	1
78	78	3
58	59	1
66	67	1
228	230	1
16	16	2
57	57	1
96	96	2
183	219	1
104	105	3
200	201	1
197	198	1
9	36	1
9	30	1
144	216	2
62	160	1
23	24	1
60	68	1
38	39	2
48	48	1
198	199	2
148	148	1
80	103	1
52	54	1
34	35	1
142	143	1
220	223	1
77	79	1
160	160	1
79	79	1
53	58	1
108	108	1
97	98	1
153	156	1
103	105	1
44	47	1
153	153	2
2	208	1
30	33	1
13	16	1
85	113	1
162	162	1
42	44	2
2	4	2
125	126	2
223	223	1
14	16	2
223	224	1
40	42	1
213	213	1
32	33	2
69	70	1
8	10	1
199	200	1
39	41	1
61	62	1
121	170	1
203	203	1
155	155	1
22	23	1
63	64	1
225	241	1
112	112	1
182	217	1
83	83	1
71	72	1
82	83	1
203	208	1
13	14	1
88	89	1
