32	32	4
92	92	10
36	36	3
70	102	1
44	61	5
71	72	1
24	24	4
74	74	2
0	0	6
111	114	3
83	83	8
20	34	1
115	116	3
65	65	5
44	44	5
111	111	5
100	100	2
54	54	3
66	66	5
121	122	2
22	22	1
71	94	4
127	127	1
102	102	3
122	122	2
13	13	1
80	80	3
43	43	4
67	107	3
133	133	3
124	124	6
72	127	2
101	101	11
65	99	4
64	64	4
79	79	10
83	108	4
20	20	3
125	133	1
27	104	1
124	125	5
7	7	3
85	85	1
34	35	2
81	100	2
107	108	1
79	85	6
90	90	4
8	8	4
132	132	7
102	103	5
109	118	1
89	95	2
87	106	2
104	104	4
47	116	4
14	14	3
115	115	7
86	86	3
105	105	5
116	116	5
125	125	4
85	86	2
53	98	3
62	62	1
75	75	3
91	121	2
108	108	4
45	45	1
72	72	1
110	110	2
50	64	3
88	129	4
92	114	4
35	36	3
77	78	3
111	130	3
21	21	3
102	127	3
22	24	1
44	45	4
7	13	4
48	48	2
63	63	2
31	31	1
24	94	3
67	108	2
30	30	1
109	109	6
25	89	1
88	88	2
84	84	2
119	119	1
33	33	3
50	50	3
120	120	1
27	27	2
17	27	2
97	97	1
71	71	1
57	57	8
132	133	1
97	101	2
106	111	3
131	132	2
75	76	2
24	82	2
126	135	3
113	113	2
113	117	2
62	100	2
79	106	4
55	55	1
114	117	2
52	52	3
68	103	1
112	115	1
114	129	2
79	109	1
15	15	2
114	115	3
23	23	1
16	16	4
70	71	3
66	108	1
93	93	1
9	11	2
33	34	1
89	89	1
18	18	2
19	19	1
79	80	3
111	121	2
98	98	2
107	107	1
38	85	2
80	81	3
6	13	1
68	108	1
78	84	2
67	67	1
12	91	2
49	49	2
87	87	3
57	83	2
112	112	1
62	101	2
28	93	1
25	33	2
52	53	2
114	114	1
118	122	2
81	81	1
60	60	2
110	111	2
22	95	1
55	56	3
91	91	2
53	53	1
12	95	1
29	103	1
54	64	1
133	134	1
27	28	2
92	96	1
105	134	1
2	2	2
88	123	1
74	76	1
103	104	1
108	130	2
25	27	3
130	130	1
123	129	1
100	101	1
128	128	2
37	37	1
110	114	1
45	49	1
24	25	1
95	95	1
96	120	2
103	103	2
10	16	2
16	23	1
12	12	1
94	94	2
23	24	1
10	19	1
129	129	1
6	7	1
108	109	1
105	133	1
1	2	1
65	68	1
16	17	1
34	34	1
