73	73	8
32	32	4
0	112	1
78	125	2
9	9	13
92	93	3
27	83	1
46	47	4
38	40	4
118	119	4
74	74	9
29	29	12
46	46	16
78	79	1
4	94	1
75	75	12
101	101	10
80	80	9
63	63	3
42	84	6
130	132	2
61	61	9
55	55	3
97	97	9
64	64	13
87	87	8
4	87	2
64	71	2
40	41	3
15	16	4
42	43	3
42	42	12
59	100	5
39	81	1
29	83	2
37	37	8
21	21	14
27	28	2
0	0	11
100	100	12
60	78	4
99	99	14
127	128	4
44	44	9
2	2	1
95	95	7
86	86	10
78	126	2
95	96	2
45	46	6
47	47	16
40	40	18
45	45	19
31	31	2
131	131	5
56	56	5
118	118	5
113	113	13
17	17	6
11	60	4
4	5	3
6	6	8
4	12	1
70	70	7
41	114	2
104	105	5
11	61	1
4	4	12
73	74	2
11	93	4
22	23	1
81	82	3
132	132	9
22	28	3
73	107	3
22	22	3
107	107	10
71	71	11
83	109	3
11	11	8
27	79	1
65	65	5
127	127	8
79	79	13
77	87	6
18	18	11
87	88	1
88	88	3
33	34	3
57	59	5
35	36	2
78	78	5
83	83	10
86	109	2
39	39	4
43	83	3
89	93	3
126	126	6
31	32	3
33	33	14
91	91	7
57	58	2
94	94	6
46	62	5
48	49	2
87	115	1
83	85	2
112	113	2
9	47	3
78	82	5
35	35	7
14	14	14
85	93	4
41	43	6
82	82	7
121	121	8
29	98	4
39	41	1
75	76	3
97	98	1
0	25	1
26	78	1
3	3	7
6	22	2
25	25	8
8	8	5
42	115	5
66	66	13
60	128	1
47	80	2
4	92	1
92	92	6
99	100	3
27	27	9
36	37	5
131	132	7
102	102	5
78	128	1
31	80	2
85	85	7
126	131	1
85	101	3
119	119	1
40	42	1
37	40	5
20	20	5
48	87	1
40	56	3
57	117	1
96	96	11
36	36	7
126	129	5
74	100	3
26	82	1
119	122	4
24	24	2
43	43	5
35	47	4
102	125	3
126	128	1
28	28	15
125	125	1
10	10	3
10	11	3
89	90	1
9	10	3
42	58	2
112	112	7
65	73	2
88	93	2
34	47	3
49	49	1
41	42	3
122	123	4
24	25	8
82	111	3
132	134	2
86	101	2
23	98	1
67	67	4
5	9	1
96	98	3
69	70	4
6	8	4
11	14	5
122	122	2
90	97	3
14	15	3
87	92	6
114	114	4
121	122	3
92	99	2
5	5	7
37	87	2
67	68	3
121	124	3
90	90	3
85	86	2
45	63	4
115	115	5
7	8	1
12	12	14
37	84	2
15	15	9
109	125	4
83	84	3
81	81	5
38	72	3
29	59	2
51	55	3
16	16	7
30	30	4
32	48	2
4	7	2
17	44	1
92	131	1
20	82	3
26	92	1
133	133	5
33	79	2
25	92	4
8	9	4
41	41	6
108	109	1
13	14	2
44	45	4
84	89	1
8	10	2
108	108	4
8	72	1
34	34	13
123	123	7
55	99	1
77	113	2
106	106	1
89	92	5
85	94	1
98	98	2
3	4	2
115	116	2
38	38	6
5	106	5
26	26	16
43	56	3
91	92	4
103	103	4
72	72	4
61	62	3
13	13	8
69	69	7
6	18	2
13	24	1
89	89	2
61	97	1
5	6	1
48	95	1
108	129	1
15	18	4
4	29	4
122	134	2
42	88	2
116	116	2
4	23	2
59	74	2
75	118	1
102	106	1
128	128	2
27	93	1
59	59	7
89	94	2
23	24	1
19	19	7
7	7	3
120	120	9
34	35	4
84	84	4
96	97	3
77	83	1
116	117	2
68	68	9
62	71	2
60	61	1
123	124	1
117	117	2
26	27	2
83	102	2
94	101	1
76	114	1
84	94	3
105	105	4
123	126	3
33	58	3
21	29	1
6	7	3
49	50	1
103	105	1
104	104	2
58	58	1
13	23	1
12	46	2
42	48	1
128	132	3
129	129	3
0	23	2
8	76	3
77	77	4
120	121	1
48	48	6
20	21	3
130	130	2
99	122	1
55	59	2
70	78	2
57	57	2
78	83	1
76	77	4
59	72	3
50	55	1
78	94	4
94	95	2
11	31	1
108	111	1
62	66	1
11	33	1
66	67	1
62	65	1
1	2	1
7	36	1
25	93	1
113	117	1
30	31	4
19	36	1
45	114	3
11	30	1
4	14	1
11	59	1
83	93	1
36	40	1
37	38	1
76	76	1
37	39	2
84	85	3
14	17	2
63	64	1
1	3	1
76	125	2
38	55	1
88	89	2
33	117	4
46	120	2
107	127	2
6	15	3
37	70	1
7	11	1
100	111	2
98	100	1
130	131	1
4	27	1
15	17	2
111	112	1
79	80	1
25	79	1
27	47	1
76	95	1
68	69	2
72	81	1
29	47	2
29	49	1
32	33	1
35	60	4
121	123	1
20	28	2
106	107	1
96	99	1
103	104	1
20	56	1
68	120	1
110	110	2
10	74	1
72	73	1
114	115	1
119	125	2
11	26	1
125	126	3
3	106	1
107	125	1
64	114	1
69	80	1
44	75	1
29	33	1
30	70	1
17	18	1
21	82	2
20	40	1
6	29	1
111	111	1
45	56	1
60	60	3
86	100	1
90	91	2
10	29	1
47	48	1
34	74	1
13	74	1
23	23	1
81	95	1
12	14	1
62	81	1
47	79	2
84	110	1
93	93	2
13	15	1
32	34	1
49	114	1
133	134	1
14	16	1
