127	127	17
105	105	22
134	134	24
112	113	5
72	72	13
95	95	12
17	18	2
135	136	6
12	15	3
121	121	18
89	90	7
77	78	7
4	31	7
116	116	12
18	21	3
105	106	15
131	131	35
82	109	1
128	129	5
126	126	12
11	11	2
18	18	17
117	119	3
136	136	23
16	108	5
101	101	15
125	125	21
80	80	20
84	84	11
130	131	4
122	123	5
104	104	13
118	118	15
83	85	5
131	132	9
98	129	2
92	116	2
97	97	20
21	21	13
138	138	31
113	113	14
87	87	9
108	108	8
96	99	3
24	25	8
15	15	12
106	106	19
27	27	8
1	1	8
114	115	8
133	134	4
130	130	25
123	123	35
89	89	8
28	29	5
19	19	27
73	73	16
110	110	11
79	79	13
116	119	3
95	96	10
96	117	1
36	36	17
124	124	18
88	122	3
133	133	38
27	29	1
33	34	8
16	16	1
22	23	1
122	122	31
88	88	12
94	94	6
103	103	14
34	34	21
112	114	3
106	107	1
85	86	3
81	81	14
82	82	12
117	120	3
10	10	4
4	21	2
120	121	5
119	122	1
35	35	18
91	92	6
123	126	4
106	121	1
86	101	1
132	132	18
87	122	4
99	99	9
18	20	2
7	7	13
22	27	2
16	17	6
83	84	8
83	83	10
92	93	6
82	86	4
118	122	2
139	139	13
121	123	3
4	23	7
123	127	7
75	75	18
110	111	12
120	120	7
74	74	15
23	23	7
101	102	2
31	31	20
28	32	2
27	30	3
109	109	23
25	25	17
131	133	1
19	20	5
102	102	9
124	125	4
22	22	9
14	14	17
93	94	3
12	12	6
117	117	14
14	20	2
76	121	3
120	124	1
108	109	6
37	37	3
114	114	11
112	112	7
98	98	7
127	129	3
71	93	3
138	139	4
115	115	8
2	24	2
94	105	2
8	24	1
3	3	11
85	85	14
32	32	10
6	32	3
33	33	9
103	104	6
6	6	11
100	100	12
107	107	13
34	123	3
134	139	7
3	5	2
4	20	2
5	5	10
21	22	7
91	91	12
3	24	3
140	140	19
30	30	2
13	13	4
8	38	5
96	96	2
87	93	2
134	135	12
28	75	2
4	4	11
137	137	12
21	136	3
9	9	4
100	115	3
133	139	3
135	135	8
129	129	19
104	105	1
28	38	2
118	119	7
5	28	2
22	32	3
99	138	3
90	92	4
1	73	1
75	76	5
88	99	2
77	77	16
20	20	12
8	9	5
86	86	10
113	117	3
111	111	8
73	74	1
119	119	11
29	29	7
2	36	4
5	22	3
32	44	2
18	19	4
92	104	1
73	77	3
81	82	6
120	122	3
82	83	7
128	128	14
16	79	1
76	77	2
74	75	3
24	24	5
1	23	2
3	4	4
34	35	3
104	118	3
102	103	3
3	20	5
92	92	2
90	91	4
11	26	4
127	128	6
8	12	1
38	77	2
19	21	10
98	132	6
26	26	8
104	106	3
98	99	2
106	119	3
17	17	7
137	139	4
8	8	7
4	5	1
78	78	3
126	127	8
13	26	2
140	141	3
6	18	2
129	130	2
33	116	1
72	73	3
31	32	1
90	90	2
75	120	2
102	104	2
101	104	1
139	140	4
136	137	6
87	88	5
81	102	1
100	101	1
118	126	2
109	111	1
124	127	3
77	94	1
34	112	1
9	28	2
28	28	1
76	76	5
32	35	2
13	14	1
5	23	1
105	118	2
78	79	3
107	108	4
117	118	9
38	38	2
96	115	3
125	129	2
11	12	1
113	114	2
116	117	3
3	22	2
125	126	1
0	0	3
96	108	1
94	95	1
137	138	1
127	137	1
22	35	1
108	118	1
79	119	1
71	71	6
8	11	3
105	122	2
9	24	2
121	122	2
94	96	1
130	132	2
29	31	2
12	26	1
91	93	1
111	115	1
76	78	1
107	112	1
3	71	2
106	111	1
23	26	4
29	30	3
7	30	5
120	123	1
34	99	1
95	97	1
93	93	8
6	7	2
20	21	3
79	104	2
15	16	1
34	100	2
86	89	1
132	133	5
95	116	1
79	92	3
99	100	1
6	35	1
72	78	1
117	121	1
89	95	1
5	6	6
109	110	1
119	121	1
95	123	1
3	14	2
39	75	1
3	30	1
81	85	1
78	93	1
80	81	2
0	31	1
79	85	1
97	98	2
101	103	1
101	123	1
125	127	1
84	86	1
129	132	1
13	16	1
116	123	1
86	87	1
8	31	1
3	36	1
98	102	1
112	116	1
86	88	1
