51	52	4
64	64	14
76	77	4
72	72	18
69	70	4
46	47	7
48	48	10
91	92	4
84	84	10
94	94	19
87	94	1
42	43	5
41	41	14
45	45	11
39	39	10
57	59	6
85	89	2
35	35	8
70	70	12
92	96	1
80	97	3
89	89	20
93	93	12
44	45	4
24	24	8
46	46	8
57	58	4
78	78	15
75	75	11
96	98	2
79	79	18
41	42	9
73	73	6
59	59	17
92	92	5
88	88	15
99	99	15
96	96	7
53	53	10
35	37	4
77	77	8
62	62	19
84	87	1
86	87	3
40	40	20
54	54	13
90	91	12
78	85	4
66	67	3
67	69	4
59	60	3
61	61	13
53	54	9
57	57	14
42	42	22
38	38	6
58	59	8
74	74	17
96	97	7
87	87	9
50	50	18
20	53	2
95	96	3
86	92	1
99	102	4
23	24	4
58	58	21
52	52	21
85	92	1
23	23	2
82	82	7
97	101	3
95	95	13
68	68	13
81	81	18
27	27	12
64	77	2
29	29	4
37	38	4
43	43	7
51	53	3
85	85	29
36	36	2
76	76	11
26	26	13
56	57	3
63	63	21
91	91	8
45	48	3
92	93	5
86	89	8
34	35	4
47	47	4
60	93	2
66	72	1
94	95	3
54	55	6
81	82	7
55	55	15
22	22	3
97	97	6
60	60	12
65	65	2
33	33	4
98	99	6
66	66	9
82	84	4
60	61	2
51	81	2
87	88	4
49	50	13
44	44	14
32	33	1
80	82	1
34	34	3
62	100	2
52	53	5
25	53	5
45	46	4
63	102	3
87	96	2
83	85	4
83	83	7
101	102	3
85	93	2
81	92	6
53	82	3
98	98	12
67	67	12
37	37	7
100	101	6
55	56	11
64	65	3
70	71	2
32	32	6
23	28	1
71	72	3
22	36	2
63	64	1
90	90	6
38	39	1
52	59	9
51	51	11
28	33	2
47	48	3
80	80	11
39	100	1
27	28	2
31	34	1
83	95	1
83	102	2
89	91	2
83	84	3
86	94	3
34	52	2
49	49	7
84	89	1
86	88	1
77	79	4
80	81	1
74	75	8
84	92	3
86	86	8
100	100	10
36	38	1
55	57	2
65	66	4
31	31	3
50	51	2
62	63	6
53	80	3
69	73	3
29	32	2
28	28	4
82	92	2
101	101	10
77	78	1
59	80	1
71	71	9
35	95	2
85	86	1
31	33	2
61	62	3
47	92	1
56	58	2
53	55	5
65	67	1
88	96	1
36	37	1
30	34	1
90	99	3
61	81	1
39	40	3
89	92	1
40	41	1
35	36	1
25	25	4
69	69	5
21	22	2
79	80	2
20	20	1
30	30	2
38	54	1
72	73	2
38	96	2
24	25	2
67	68	3
22	83	1
99	101	1
93	94	1
68	73	1
56	56	1
80	86	1
24	27	1
58	60	1
32	34	1
61	87	1
81	89	1
52	94	1
88	95	1
33	78	1
49	58	1
42	73	1
33	34	1
41	99	1
