36	41	2
142	149	1
77	132	1
3	54	4
88	88	11
107	107	7
111	111	15
2	2	6
39	39	5
36	36	8
133	134	2
136	136	12
132	132	7
22	22	9
105	105	8
19	19	5
31	31	9
138	146	1
86	87	4
34	34	15
104	104	12
85	86	9
0	0	9
124	125	6
139	141	2
3	35	2
44	45	2
83	83	3
6	6	5
153	153	7
80	80	6
118	118	2
131	131	8
102	102	3
125	127	1
135	136	3
89	89	6
93	93	16
95	96	3
23	23	9
129	131	2
37	37	8
70	71	15
35	41	1
20	21	6
6	8	2
44	44	13
47	47	16
51	51	7
16	17	3
117	150	7
122	148	1
148	149	2
108	120	1
41	42	2
31	32	6
77	111	3
81	92	4
53	53	8
7	138	2
73	73	5
63	68	2
85	85	6
3	4	3
131	135	2
127	132	2
20	53	1
120	120	8
94	94	10
45	47	3
12	12	9
7	9	2
50	51	4
124	124	7
109	109	7
50	52	4
116	117	3
33	33	11
134	137	6
71	71	2
52	52	7
128	129	3
14	39	4
11	90	3
101	101	6
45	49	1
21	51	4
142	142	6
15	27	4
50	50	8
150	150	6
91	113	2
90	90	5
20	20	5
41	44	1
8	8	11
8	9	1
119	135	4
24	24	15
93	95	3
122	122	6
119	121	1
11	11	5
145	145	6
123	124	4
110	110	20
18	20	2
157	157	6
51	63	3
87	87	3
67	67	7
112	112	7
91	91	9
43	43	4
154	154	3
8	90	2
48	65	4
21	21	10
52	54	1
41	41	7
128	128	5
74	75	1
153	154	7
36	37	4
92	92	11
102	103	4
8	11	4
46	46	12
70	70	3
51	54	3
13	14	2
32	32	11
26	26	5
54	54	3
131	140	2
144	144	12
84	84	6
2	3	3
123	123	6
100	100	5
79	114	2
104	105	3
55	55	1
113	114	4
66	66	3
97	137	1
98	98	7
48	48	6
63	66	1
108	126	6
5	5	6
22	23	2
10	135	3
40	40	8
81	81	7
63	63	5
76	76	1
96	96	8
139	151	5
82	82	7
18	18	12
4	4	7
16	37	1
124	126	3
129	129	22
38	38	6
117	118	2
139	146	1
103	103	3
108	112	3
78	108	3
15	15	11
138	138	5
17	17	8
36	46	2
102	105	2
69	91	4
93	94	2
4	5	3
67	69	3
2	5	7
152	152	3
81	85	2
97	97	7
99	99	7
81	117	1
108	118	1
1	2	6
75	128	1
151	151	4
139	148	2
56	56	2
144	147	1
91	105	2
135	135	7
72	78	2
49	49	3
105	106	5
77	77	1
3	42	3
108	109	2
69	71	2
119	119	6
148	148	4
10	10	5
28	28	5
89	98	3
92	107	2
75	75	6
137	137	8
10	11	4
12	75	1
42	42	6
155	156	3
3	3	7
66	71	2
78	109	2
86	86	3
94	95	4
90	91	3
120	149	2
124	129	5
42	50	1
109	110	3
127	127	3
54	55	3
45	45	8
29	29	1
154	156	1
118	119	3
121	126	2
84	85	1
155	155	8
7	7	10
95	104	1
134	135	3
122	127	1
25	25	6
65	66	3
3	41	2
131	133	2
13	27	1
3	43	4
73	74	2
78	91	1
132	133	1
146	146	5
151	158	3
134	134	6
108	115	2
35	35	5
119	120	2
80	81	3
110	111	1
21	52	1
121	121	4
116	116	7
82	85	1
68	70	1
133	133	3
119	123	2
27	27	1
32	34	3
82	117	5
135	137	1
111	123	4
151	152	1
99	100	2
55	56	3
103	130	3
68	71	2
13	13	1
141	154	1
95	95	4
40	41	1
83	117	2
80	115	3
12	43	1
106	106	4
69	69	2
144	154	1
71	72	1
137	138	6
108	132	1
8	10	2
87	99	1
16	16	4
76	130	1
122	123	1
157	158	1
49	63	2
136	137	1
141	141	2
142	143	1
64	64	6
48	49	1
52	53	2
45	46	1
114	114	7
17	18	2
119	131	2
63	64	2
13	15	2
62	62	1
135	149	3
91	92	2
24	25	2
114	117	2
79	82	3
67	68	2
76	116	1
13	16	6
139	139	5
28	29	2
139	152	4
64	146	2
38	39	1
109	121	1
108	131	3
121	132	1
33	34	2
23	25	2
11	12	1
8	89	2
47	49	2
117	117	2
46	47	3
48	52	2
80	82	1
132	136	3
85	90	1
121	149	1
30	40	1
29	30	1
49	50	4
112	113	3
15	55	1
156	156	1
87	88	4
86	92	1
81	116	2
122	143	2
1	148	1
2	6	1
114	129	1
18	19	3
4	19	1
12	13	2
95	106	3
72	90	1
83	86	1
2	20	1
5	6	1
88	89	2
81	108	1
126	127	2
111	115	1
92	95	2
54	66	1
66	67	1
14	14	2
108	108	4
7	137	1
144	145	2
11	97	1
0	13	1
100	101	1
153	158	2
98	99	3
107	150	1
111	117	1
73	101	1
78	78	1
41	50	2
76	127	1
143	143	1
126	126	1
77	78	3
72	107	1
127	131	3
158	158	1
76	124	1
39	40	1
78	79	1
29	33	1
12	41	2
147	155	2
108	113	1
149	158	1
69	88	1
130	131	1
85	88	1
124	139	1
107	111	1
127	133	2
86	88	1
37	40	1
103	106	2
126	140	1
19	20	1
12	48	1
97	102	1
79	79	1
43	47	1
9	10	1
30	30	2
6	7	1
147	147	1
77	109	1
139	140	1
67	108	1
69	70	1
134	141	1
38	101	1
76	79	1
68	68	1
135	141	1
125	126	1
80	114	1
72	72	1
145	147	1
63	69	2
88	112	1
47	50	1
131	132	1
108	122	1
134	142	2
37	55	1
81	91	1
28	33	1
14	28	1
