56	57	5
97	98	19
119	119	14
9	9	15
59	59	15
131	131	17
77	99	3
90	90	26
97	100	2
1	1	21
116	116	12
102	103	4
24	25	15
52	52	19
71	72	4
72	98	2
1	8	2
42	45	2
3	4	10
115	127	2
20	20	6
45	46	8
104	104	20
59	75	9
5	5	16
92	93	14
96	96	17
118	118	11
69	70	5
2	3	8
93	94	1
13	18	1
27	27	11
12	24	2
1	2	6
41	41	19
121	121	23
87	87	9
88	88	8
78	78	13
86	86	19
113	119	8
46	46	26
91	91	17
53	53	26
126	127	15
113	114	3
17	18	10
99	99	14
105	107	2
33	33	9
58	58	28
117	117	9
126	126	8
39	39	14
66	77	6
130	130	23
22	22	17
115	116	3
111	111	11
101	102	6
103	103	29
94	94	11
114	115	1
29	29	13
124	128	6
13	13	19
80	81	16
28	48	3
51	51	26
89	90	5
109	109	36
73	75	5
114	117	1
33	34	7
117	131	2
19	20	10
0	0	10
2	5	4
132	132	11
97	97	25
122	122	20
34	34	10
38	38	10
93	95	8
81	81	8
80	80	12
123	123	17
10	10	25
105	105	21
53	123	1
93	93	13
108	108	6
45	45	12
79	79	14
26	26	9
68	68	10
66	66	15
8	32	2
112	112	11
28	29	4
43	44	3
65	100	6
127	127	9
27	31	1
101	101	18
77	77	18
65	78	6
95	95	16
60	61	5
89	89	19
106	107	5
70	70	6
130	131	2
3	3	19
77	95	2
42	43	7
57	57	18
30	30	14
11	27	8
32	32	7
115	115	12
82	82	29
22	63	7
65	66	15
78	81	8
71	99	1
62	64	7
128	128	15
25	63	2
83	84	15
86	92	6
54	54	17
23	23	20
98	99	5
109	112	3
40	56	2
13	14	6
30	31	4
105	106	14
74	74	7
78	79	10
124	124	17
31	31	3
65	81	2
6	44	4
129	130	9
11	11	10
79	101	2
114	114	14
60	60	9
100	101	12
53	54	2
15	15	11
6	6	25
98	98	12
2	2	15
111	117	1
56	56	19
16	17	10
0	1	11
64	64	24
100	100	24
40	40	13
95	116	1
2	4	3
17	17	4
110	110	11
73	97	2
25	25	13
120	120	13
44	44	12
128	131	3
85	86	11
45	55	10
67	67	17
41	42	5
131	132	3
75	75	11
59	60	8
40	44	5
91	92	5
84	84	20
29	30	12
116	117	4
47	48	2
25	26	7
124	125	1
50	50	11
76	77	3
32	38	3
109	117	6
126	130	1
93	104	5
24	24	9
62	62	17
8	8	15
107	108	5
63	63	16
65	65	20
113	124	3
129	129	8
46	47	12
96	98	2
58	81	7
69	69	19
43	43	12
107	107	6
92	95	1
95	97	3
11	12	7
39	40	5
11	26	1
73	90	5
47	52	4
104	105	5
7	7	7
99	100	8
60	64	5
21	21	16
42	42	11
40	55	1
54	55	5
102	102	18
75	76	5
59	76	1
12	32	3
86	87	8
44	54	3
83	83	12
18	18	28
43	45	4
91	93	1
41	43	3
14	14	8
60	63	1
40	41	8
16	16	16
28	28	21
111	112	1
83	87	1
108	113	1
117	118	13
120	121	4
11	14	4
59	70	4
48	48	19
21	63	1
47	47	11
129	131	6
15	61	2
120	131	5
69	97	2
93	99	2
10	20	4
81	82	1
125	125	16
20	25	2
128	129	11
19	19	6
66	67	9
82	84	4
103	128	3
52	53	3
78	101	2
4	4	10
72	72	8
104	129	3
61	61	10
109	110	3
74	90	3
69	81	2
95	98	1
117	120	1
42	44	4
58	102	1
46	59	1
87	108	1
101	104	1
18	19	4
4	7	5
71	102	2
25	62	3
82	83	4
87	88	4
63	64	1
49	49	17
85	85	16
108	129	3
86	89	2
104	106	1
14	15	2
21	22	5
2	6	3
76	76	18
9	10	2
65	67	3
58	70	2
120	133	3
43	55	1
13	16	1
48	110	5
72	74	5
11	13	3
64	65	4
80	85	4
103	115	3
122	123	1
94	95	4
39	42	2
31	32	5
115	128	2
22	62	1
33	37	1
32	33	2
83	85	2
106	106	11
127	128	7
113	113	9
8	10	2
49	50	3
70	72	1
119	126	1
126	128	1
7	14	2
100	102	2
12	12	5
125	128	2
115	117	2
29	63	2
71	71	14
105	116	3
70	77	3
121	122	1
104	114	1
108	131	2
113	129	3
6	7	1
4	6	1
73	79	1
96	97	7
73	73	9
79	130	2
13	24	4
94	96	3
39	56	2
97	99	5
86	88	8
113	117	5
33	43	1
24	28	1
111	113	4
73	74	4
127	129	6
133	133	5
15	16	5
54	83	3
20	26	1
56	80	2
112	113	2
7	8	9
82	103	1
74	97	3
91	96	1
4	5	3
34	38	2
104	130	1
18	20	2
19	21	6
115	130	1
115	125	3
55	55	2
39	60	3
58	59	2
59	61	3
79	80	5
42	47	3
101	106	1
34	43	1
15	27	1
48	111	1
50	57	1
72	73	1
94	99	3
104	107	2
61	62	4
112	117	1
51	52	4
92	92	6
22	23	5
8	9	1
40	45	3
6	12	3
69	88	4
29	31	4
5	6	2
126	129	1
130	132	1
12	23	1
14	20	6
88	94	1
128	130	1
91	104	2
104	119	4
76	84	2
28	40	1
82	86	2
45	56	4
96	102	2
10	11	2
67	68	5
44	46	3
44	45	5
118	119	2
69	109	3
43	54	3
108	130	1
23	24	1
20	22	1
125	130	3
100	129	2
11	52	1
27	29	1
54	65	2
11	43	1
70	76	2
68	69	6
76	81	3
55	79	3
80	92	4
80	101	1
32	47	1
114	119	3
55	80	1
58	76	1
67	77	1
108	111	2
62	63	2
84	85	1
69	87	1
50	51	2
59	78	1
67	78	1
39	45	2
45	47	2
74	75	2
114	116	3
103	107	1
41	44	3
110	111	1
22	33	1
84	88	1
1	5	2
41	55	1
38	39	4
48	54	1
17	23	1
74	98	2
94	98	1
94	97	2
5	13	1
13	63	1
116	120	1
66	69	1
58	65	1
70	71	3
19	22	2
57	58	2
103	126	1
49	110	1
54	80	1
118	120	1
11	51	1
39	43	2
90	91	1
94	100	1
3	5	1
68	124	1
51	53	1
46	122	2
79	81	2
79	82	1
33	42	1
91	102	1
54	57	1
85	88	1
23	25	1
3	7	1
9	20	1
88	89	1
38	47	1
110	120	1
61	63	2
80	83	1
12	13	1
73	91	1
24	62	1
10	15	1
