145	145	6
155	156	3
159	159	9
23	23	16
2	53	3
36	36	11
102	103	4
7	7	19
58	58	3
77	80	1
109	110	6
130	131	7
44	45	3
112	112	14
48	48	1
45	45	6
39	39	14
1	35	3
69	69	5
144	145	4
3	3	14
43	44	5
8	8	9
42	56	1
143	143	9
63	64	4
143	144	4
111	111	2
78	79	1
106	113	3
114	114	9
26	26	5
41	42	9
11	11	11
100	100	4
160	160	9
97	97	4
161	162	2
138	138	12
64	64	3
142	143	7
63	63	1
12	12	5
152	152	8
17	17	2
34	34	11
137	137	12
139	139	5
49	55	2
25	25	8
9	9	10
0	1	8
13	13	8
2	2	8
87	88	5
100	112	4
129	129	8
135	135	6
126	145	3
16	17	8
49	51	4
4	4	3
50	50	4
119	120	2
35	35	9
118	123	3
79	79	4
108	108	12
150	150	5
109	109	18
14	22	4
134	138	5
43	43	3
76	76	3
71	71	2
37	38	3
71	72	1
15	15	3
27	27	2
50	57	1
162	162	1
77	77	3
10	10	17
86	86	2
149	149	11
157	157	4
0	0	4
5	6	3
126	126	10
2	3	5
38	38	6
163	163	4
40	40	15
6	7	1
21	21	2
113	114	11
133	158	1
57	64	2
65	67	2
166	167	3
96	96	4
8	9	3
35	36	3
144	144	5
42	42	8
132	132	4
69	71	1
94	95	5
167	167	11
128	128	1
110	110	3
127	127	9
6	6	6
39	40	5
16	16	4
116	137	3
18	18	1
19	19	6
41	41	3
27	48	1
6	20	1
23	24	2
130	130	5
82	82	7
44	44	5
56	56	4
12	13	2
28	28	3
134	135	1
154	154	3
140	141	4
130	132	4
146	146	3
33	33	1
124	124	5
146	148	2
53	53	3
118	118	3
64	92	4
121	149	1
71	84	1
13	23	5
37	37	6
156	156	8
104	112	4
158	158	2
127	129	2
17	22	2
168	168	9
91	93	1
38	50	6
130	155	2
7	9	4
122	122	5
7	8	1
163	165	3
145	146	2
133	133	2
161	163	3
50	87	1
147	148	6
163	164	2
65	68	1
49	49	5
117	117	4
151	151	3
101	101	3
95	95	2
83	84	2
6	16	4
115	115	5
160	161	3
125	125	2
22	22	2
167	168	4
104	104	1
113	113	4
73	74	1
169	169	2
107	109	1
170	170	3
134	134	1
98	98	4
91	94	1
52	52	8
5	5	4
80	80	3
120	121	1
50	51	7
130	154	2
136	136	3
153	153	2
128	151	1
116	141	3
141	141	1
152	158	1
131	132	4
27	141	1
14	14	1
166	166	1
66	67	1
24	25	1
87	99	1
33	34	2
115	116	1
57	57	3
71	73	1
145	148	1
18	19	1
19	107	2
137	138	1
154	156	1
73	80	2
103	104	3
88	88	3
47	47	2
25	28	2
68	161	1
84	84	2
61	63	1
9	10	2
90	90	1
44	54	2
54	54	3
85	87	2
107	107	1
126	127	1
1	1	2
8	17	2
121	122	1
129	130	1
38	39	1
46	46	2
21	22	2
111	150	1
159	161	1
155	157	4
68	68	2
74	77	1
116	117	1
19	20	1
100	101	1
57	122	1
114	115	1
131	131	1
22	25	1
77	78	1
112	116	2
18	21	1
3	4	1
88	89	1
66	66	1
150	151	1
80	82	1
49	50	1
83	83	2
165	168	1
55	56	1
164	164	2
161	161	2
51	69	1
20	20	1
133	139	1
72	77	1
74	74	1
121	121	1
139	141	1
117	130	1
