85	118	3
64	88	9
72	114	7
55	55	11
104	104	2
63	76	2
14	14	8
105	105	2
39	39	23
89	89	6
100	100	14
156	156	20
67	67	10
94	94	8
42	42	27
9	55	4
0	3	6
11	107	9
2	2	13
137	152	2
55	56	11
107	108	5
63	93	2
97	97	18
72	72	8
66	67	2
44	54	4
66	131	6
48	48	13
163	163	10
133	133	10
15	15	17
1	75	2
103	103	6
77	77	5
1	1	12
118	118	16
23	23	10
153	164	5
66	66	8
113	113	13
70	76	4
90	98	4
162	162	12
47	58	3
21	21	4
13	13	20
50	50	10
166	166	16
10	10	20
114	115	7
16	75	3
117	118	7
136	136	7
68	69	5
24	87	4
119	120	3
19	20	2
92	93	6
41	42	7
43	43	24
111	127	4
52	52	14
36	38	6
140	140	8
69	69	29
65	67	4
162	170	4
18	131	3
142	147	9
61	63	2
101	101	15
17	18	4
138	138	8
87	93	2
73	113	2
131	131	8
76	83	4
46	112	7
150	150	4
39	52	4
92	92	6
135	135	11
74	74	13
44	47	1
41	58	2
12	33	5
161	161	6
36	36	31
0	2	4
115	116	3
93	93	9
100	103	2
129	129	7
9	9	18
36	55	2
82	83	2
76	76	11
63	66	3
54	54	11
12	13	8
6	6	15
164	164	14
41	41	25
61	62	6
127	141	3
51	51	17
11	11	8
123	123	14
57	57	5
0	0	9
123	130	2
168	168	9
34	35	2
118	142	3
126	143	3
88	88	8
25	133	3
13	107	2
120	125	4
65	65	10
46	46	14
74	76	4
132	132	16
12	12	22
3	4	3
18	19	3
82	82	8
133	134	5
78	84	2
157	158	3
148	148	11
17	76	2
4	4	25
14	57	3
114	114	3
45	51	4
96	96	8
63	84	9
111	111	11
69	78	9
154	166	3
80	83	6
101	104	3
95	97	3
147	164	5
102	103	2
4	10	4
71	71	5
136	137	7
149	149	17
159	159	10
124	124	8
110	110	24
70	70	6
134	134	6
155	170	2
158	158	5
78	79	5
62	63	3
115	158	2
22	22	10
57	76	1
1	14	4
147	148	8
9	10	9
64	64	8
127	127	6
45	46	3
84	85	3
84	99	2
120	120	9
165	165	4
96	98	6
17	21	1
63	87	1
80	80	6
121	168	4
157	157	5
18	36	2
8	54	4
99	100	6
62	62	5
20	97	2
160	160	6
49	49	12
64	68	4
15	93	2
18	50	10
79	83	4
139	139	5
7	7	16
86	93	1
19	19	6
25	25	18
56	56	19
137	137	12
121	125	2
147	167	3
99	99	8
63	88	3
109	109	8
119	119	17
13	15	3
144	145	5
83	84	1
17	24	1
18	18	7
121	121	5
39	57	3
140	160	3
125	138	1
153	153	3
168	169	6
150	151	6
107	107	9
71	72	1
162	163	5
142	157	6
79	80	5
82	107	3
53	54	5
84	84	7
64	118	3
27	27	10
37	37	17
76	77	3
148	153	3
128	128	22
82	87	4
40	40	12
1	9	5
115	115	3
25	35	1
40	111	2
21	22	1
6	7	2
145	145	7
100	104	4
88	89	3
95	99	5
126	126	7
126	142	2
130	130	16
149	151	1
77	90	1
12	36	4
24	24	4
75	75	5
5	6	7
151	152	5
91	94	3
8	8	6
85	85	9
4	7	3
155	160	2
5	38	6
67	148	2
125	125	11
137	143	8
39	40	4
34	34	8
139	141	4
6	26	2
142	148	2
40	51	3
161	162	3
125	126	3
50	51	3
144	152	4
18	108	3
155	155	2
45	45	12
140	141	5
0	15	2
117	117	8
79	79	8
66	148	4
33	35	4
12	107	4
110	115	4
11	12	5
16	126	1
24	54	6
78	80	3
38	65	3
53	53	6
78	78	2
37	38	2
124	164	3
113	119	2
108	109	8
79	97	1
143	143	4
91	92	2
105	106	8
79	96	5
76	108	2
90	92	5
124	125	4
122	122	6
26	26	4
116	117	3
38	38	25
150	161	2
67	68	2
163	165	5
121	122	5
160	163	3
35	35	8
98	99	5
47	47	15
95	96	1
28	28	5
5	5	12
90	90	8
154	158	4
17	17	16
69	70	4
33	33	5
159	162	2
44	74	4
129	130	1
63	63	4
137	145	2
2	9	1
108	108	13
110	111	3
39	41	6
104	117	3
117	158	1
3	3	9
170	170	11
91	99	2
106	106	2
154	161	1
85	86	1
57	136	6
140	146	2
93	94	3
71	116	3
110	112	6
71	86	3
73	100	1
68	117	2
53	136	1
141	142	1
16	144	1
68	68	2
95	95	1
48	56	2
138	144	5
156	157	1
44	44	5
45	110	1
119	127	1
26	27	1
97	105	1
123	124	1
119	132	4
56	58	2
140	155	6
169	169	3
3	17	2
39	90	2
94	99	6
153	154	13
44	45	8
73	73	2
50	62	5
1	2	10
137	138	4
142	144	4
112	113	2
70	77	1
87	99	2
48	49	7
1	3	2
42	115	2
91	91	8
127	128	2
47	48	1
20	21	4
96	97	1
141	143	2
151	151	8
90	99	2
116	116	1
3	7	1
150	154	1
3	170	1
10	11	2
18	126	4
45	47	1
163	164	2
24	65	1
97	98	6
52	53	7
99	137	3
86	87	1
50	57	1
18	84	1
24	33	4
0	9	2
87	87	8
138	139	1
67	117	4
101	102	1
18	132	1
81	81	6
3	26	4
50	56	1
146	146	10
0	1	6
79	86	2
148	157	3
119	121	2
135	136	2
24	25	4
17	36	1
106	114	1
92	104	4
131	135	1
20	45	4
125	158	2
155	156	3
162	164	3
23	34	1
12	25	1
150	167	2
108	125	2
16	132	1
138	140	3
154	154	6
105	112	3
20	20	6
51	52	1
147	147	2
14	38	2
135	138	2
4	54	1
67	69	5
24	99	3
61	61	3
16	125	3
103	104	4
143	149	4
48	52	3
14	15	5
169	170	2
42	43	2
47	49	2
111	112	2
148	149	7
125	131	3
7	55	4
107	151	6
15	16	3
146	147	1
22	23	6
47	52	2
45	53	2
86	99	3
157	164	2
78	97	1
64	78	1
104	105	7
113	114	3
158	159	2
141	141	3
35	36	1
23	24	4
133	135	3
2	8	3
47	50	1
144	144	1
157	159	2
144	158	1
8	9	2
33	34	1
77	80	2
112	112	7
107	115	1
83	83	6
40	46	1
103	105	2
108	153	2
112	114	2
168	170	3
112	123	1
125	132	1
25	55	6
70	71	3
17	54	1
65	118	2
77	117	2
128	129	3
39	44	1
1	62	1
84	118	2
145	148	1
77	97	1
20	126	1
106	112	1
2	27	2
45	112	2
87	89	2
63	69	3
106	109	2
2	16	2
143	165	1
126	127	2
120	147	1
160	169	4
66	146	2
134	135	4
16	67	1
48	50	3
81	98	3
65	147	3
64	128	2
142	142	4
16	16	7
23	36	1
7	8	1
76	79	1
8	13	3
106	107	1
77	79	2
44	52	1
2	3	1
129	134	1
144	166	3
41	44	2
150	155	2
43	44	2
71	73	1
4	55	1
120	130	2
52	58	1
52	56	1
20	24	2
77	78	1
34	38	2
5	35	2
155	168	1
57	62	1
107	110	1
63	83	1
40	41	2
54	55	3
148	151	2
149	150	2
58	58	2
76	128	1
156	159	2
18	82	1
97	99	1
24	55	1
122	123	3
76	84	2
131	136	1
25	54	1
155	157	3
49	51	1
24	98	1
20	98	2
48	58	2
15	62	1
8	10	1
75	92	1
80	81	2
119	123	1
39	46	1
149	154	1
109	111	1
18	24	1
23	98	1
22	28	3
101	103	1
94	95	1
167	167	1
63	92	1
86	86	2
35	37	1
140	147	2
81	82	1
77	98	1
24	85	2
50	58	2
165	166	3
77	96	3
33	132	1
17	53	1
24	37	1
13	25	1
132	143	1
159	160	1
57	88	1
70	88	1
139	140	1
18	22	1
57	58	1
15	52	1
33	38	1
15	75	1
13	82	1
88	92	1
11	55	1
19	51	1
109	110	1
138	152	2
63	116	1
89	90	1
66	117	1
1	27	1
123	125	1
63	67	1
132	133	1
3	27	1
46	63	1
0	34	1
40	57	1
