71	71	9
10	11	2
59	95	3
131	133	9
65	93	3
29	29	17
6	6	23
11	11	19
97	98	3
76	76	5
104	105	4
72	75	1
97	100	4
14	14	12
95	96	3
20	57	2
46	46	10
9	9	12
17	126	2
74	74	20
82	83	2
93	93	25
93	100	3
33	33	16
12	70	1
78	79	6
118	118	9
3	3	16
26	100	2
47	47	28
65	65	8
49	93	1
22	115	1
86	86	20
44	44	16
132	133	3
60	84	3
34	34	15
48	86	1
5	94	2
116	116	11
16	16	8
28	28	11
43	43	9
45	45	21
117	124	1
75	76	6
11	100	7
35	35	16
75	75	19
20	20	7
56	133	2
46	99	4
63	75	3
123	124	1
57	57	7
9	17	2
123	125	6
78	78	23
9	66	4
63	63	13
71	72	3
107	107	12
59	59	12
56	56	3
26	26	10
27	37	3
5	5	4
2	69	1
61	82	1
96	98	2
8	14	2
45	46	2
70	78	2
78	81	2
87	87	10
20	99	2
100	100	5
99	116	1
109	113	1
31	58	3
8	25	8
68	68	6
101	113	3
18	18	13
67	72	4
18	67	1
48	115	3
43	44	9
33	35	1
44	45	6
98	99	3
55	56	7
15	15	10
35	63	3
5	14	3
32	47	1
42	43	2
66	66	4
111	113	1
66	85	1
88	92	3
23	24	4
28	29	7
39	42	5
4	4	3
85	85	8
11	59	1
8	55	4
26	79	3
134	134	5
22	23	4
19	129	2
46	61	1
57	70	2
39	40	4
67	67	12
112	112	5
13	13	6
93	94	6
8	8	8
106	107	6
126	127	2
80	80	9
18	126	3
42	78	1
11	27	2
40	72	4
94	95	4
26	92	3
91	97	5
78	114	1
82	82	8
114	114	7
99	99	13
115	115	4
73	74	5
17	134	2
36	39	3
31	31	8
32	32	7
124	125	5
4	9	2
13	36	8
15	127	2
36	40	3
48	48	6
16	25	2
47	93	2
22	57	2
27	81	2
48	49	4
65	66	3
60	94	3
109	109	12
79	79	13
107	113	2
12	12	17
77	77	11
111	112	7
90	90	7
16	17	4
60	116	5
62	63	2
61	66	3
31	131	3
83	91	1
132	132	4
96	97	1
94	94	12
120	120	4
62	62	9
128	128	7
17	70	3
92	92	14
27	27	11
91	91	3
21	79	4
25	26	4
19	78	2
88	90	3
11	45	1
24	24	3
55	57	1
55	55	8
20	25	3
98	98	9
88	88	4
20	59	4
29	48	2
9	63	4
66	67	1
68	69	6
81	81	20
46	72	6
83	83	8
73	73	10
19	20	10
43	68	3
12	47	1
26	47	3
76	116	3
4	14	5
35	36	5
82	85	5
25	25	7
75	109	6
25	58	2
70	70	10
115	116	2
17	110	5
10	10	19
30	30	16
4	49	2
37	37	2
17	18	1
30	31	3
117	117	5
11	93	1
28	47	5
61	61	17
108	121	4
67	70	1
124	126	2
70	123	4
79	80	13
87	90	3
131	131	6
21	21	10
81	82	3
0	0	1
6	62	3
3	101	1
94	97	3
21	30	2
39	39	9
75	80	7
19	44	1
7	98	2
76	77	8
110	112	1
64	64	15
81	98	3
114	116	2
73	103	1
4	56	2
22	45	1
15	26	3
108	112	2
113	113	7
21	22	4
41	41	5
25	100	3
42	45	1
70	116	2
95	95	7
126	126	8
4	99	3
60	111	3
131	132	7
104	104	3
64	76	1
97	97	10
11	12	2
95	97	8
39	81	1
84	85	7
6	14	4
130	130	10
121	121	1
90	91	3
111	111	6
7	120	6
41	42	3
7	90	2
71	73	1
89	89	4
103	104	4
67	69	8
40	49	2
61	73	2
42	42	8
7	96	5
11	29	1
56	57	2
44	57	6
7	7	3
37	57	2
105	105	4
26	30	2
22	22	7
46	93	2
13	14	1
104	107	1
1	2	5
27	92	2
19	19	4
96	96	7
25	75	3
78	107	2
22	37	2
68	71	2
59	60	4
6	7	10
57	96	1
21	42	2
109	116	3
59	94	2
27	124	3
68	76	1
5	36	3
38	38	5
51	55	3
25	29	4
20	84	3
7	43	3
20	58	1
60	93	3
60	95	2
90	93	2
46	58	2
41	43	4
46	77	3
15	30	3
72	72	5
27	95	2
68	127	3
119	119	5
40	40	5
19	56	3
63	67	3
31	62	2
7	44	3
77	122	1
20	70	2
31	32	2
34	35	1
1	3	1
25	27	2
44	67	1
101	101	2
86	94	1
81	83	1
4	90	1
57	59	2
36	36	8
69	69	7
2	3	1
27	91	1
8	9	5
1	1	4
59	85	1
67	120	2
12	13	2
29	63	1
29	60	1
85	94	1
92	116	2
48	59	1
79	109	2
133	134	2
58	58	3
26	27	2
23	32	1
38	93	2
28	108	2
9	10	2
57	84	1
101	112	3
41	55	3
56	115	5
110	111	4
28	94	1
43	101	1
38	72	1
22	58	1
90	107	1
49	60	2
38	63	3
32	59	1
61	71	2
67	68	1
31	56	4
10	70	1
51	54	1
46	47	3
16	20	1
103	103	2
25	78	1
89	91	1
98	117	1
27	128	1
88	89	2
17	25	1
11	101	2
48	91	1
96	115	3
6	39	3
20	21	3
7	8	2
87	113	1
10	36	2
8	29	2
82	106	1
75	85	1
130	131	4
34	76	2
84	84	3
10	68	1
60	60	8
64	67	1
12	34	2
98	100	2
108	108	4
26	81	1
18	25	2
24	25	1
20	61	1
5	6	1
66	76	2
18	20	4
21	133	1
122	123	1
40	48	2
22	50	1
89	92	3
5	25	4
61	75	1
56	107	1
120	121	1
40	41	2
2	58	2
112	116	3
12	102	1
38	39	2
36	38	1
4	29	1
28	80	1
89	96	1
46	69	1
17	17	1
4	93	2
114	115	1
78	82	1
4	5	1
106	106	3
83	84	1
66	72	1
81	94	1
38	43	2
70	71	2
9	90	2
29	62	2
4	123	1
70	124	3
91	106	2
92	127	2
62	67	1
3	17	2
124	124	4
79	81	1
10	12	2
89	93	1
118	119	1
33	79	2
7	31	1
89	116	2
32	133	2
99	100	1
71	116	1
133	133	1
27	30	1
40	92	1
64	65	2
75	77	5
29	32	1
37	93	1
69	70	1
107	108	1
37	38	1
97	99	1
129	130	1
87	114	1
61	76	1
20	129	1
16	127	1
7	127	1
9	13	1
6	11	1
9	14	1
94	115	1
70	105	1
77	78	1
41	81	1
20	30	1
58	131	2
26	58	1
93	99	1
19	69	1
113	123	1
125	125	1
31	107	1
10	126	1
103	105	1
100	120	1
109	110	1
73	75	1
127	127	1
46	70	1
26	46	1
36	42	1
101	107	1
5	37	1
121	122	1
48	72	1
