179	179	14
247	247	26
33	33	10
208	208	3
48	48	11
191	191	11
39	39	12
17	17	12
2	3	9
203	203	30
10	10	8
195	195	9
48	62	2
221	221	8
190	191	2
65	66	4
115	115	9
79	108	3
61	207	3
215	215	20
168	169	8
79	79	10
40	40	16
222	230	2
176	177	2
46	47	8
97	97	10
196	196	18
194	194	16
180	180	22
179	181	1
199	199	22
23	23	14
245	245	16
168	168	10
169	197	8
74	75	8
157	158	2
69	69	12
43	44	4
32	32	25
169	170	8
184	184	14
6	6	22
83	90	3
229	229	13
235	235	2
151	151	26
88	88	6
57	94	2
27	27	5
169	169	13
54	54	4
63	117	1
226	226	6
36	36	12
183	183	18
68	70	6
224	225	1
192	192	9
100	100	16
76	76	17
30	30	11
204	205	6
225	227	2
56	56	7
45	45	11
35	35	10
200	200	18
75	75	7
189	189	21
238	239	3
232	232	11
105	107	3
22	22	14
176	176	22
240	240	8
197	198	3
52	52	15
187	189	2
193	193	11
38	38	10
157	225	2
112	112	20
41	41	15
35	36	5
15	16	5
239	240	1
155	155	19
165	165	19
118	118	21
116	116	20
165	194	2
160	160	8
146	190	3
41	88	1
194	233	3
77	77	5
159	163	7
58	166	4
21	21	15
199	213	3
105	116	1
244	244	15
14	14	18
186	191	1
113	113	12
90	90	7
17	19	4
181	201	3
28	48	5
82	82	6
163	215	4
96	96	12
190	190	19
159	159	12
108	109	5
107	108	1
177	177	18
29	30	9
194	196	2
153	153	12
74	74	9
181	181	27
23	24	4
218	218	7
31	32	4
36	37	2
42	228	3
47	47	12
25	25	9
50	50	7
105	105	11
243	244	1
205	205	17
240	246	2
28	28	27
42	46	2
61	62	6
234	234	6
47	58	4
150	153	3
185	188	1
67	67	11
155	183	1
184	193	2
179	180	2
42	42	11
11	11	7
116	117	8
147	240	2
206	206	10
31	35	3
61	61	12
152	152	9
186	186	16
102	118	3
237	237	17
197	197	16
12	45	1
58	61	2
211	211	16
181	215	1
230	245	1
228	228	4
202	202	10
46	224	1
190	192	2
159	230	3
242	242	12
56	57	8
63	63	13
87	247	2
92	92	20
16	36	3
14	104	3
225	225	12
207	207	10
75	106	2
33	214	1
145	145	11
229	230	7
237	239	3
181	217	2
185	185	18
62	74	3
42	43	5
9	10	2
178	178	24
244	246	2
59	59	10
118	119	6
24	29	3
83	84	3
213	213	15
182	182	19
2	2	5
217	217	8
157	157	14
51	54	1
175	176	9
166	167	7
62	62	15
152	153	10
187	188	15
64	64	1
213	214	4
104	104	6
185	193	3
238	238	14
108	108	8
200	213	1
154	160	3
154	154	18
163	198	2
14	49	7
48	50	3
173	173	21
158	158	11
214	215	5
47	90	3
89	90	1
83	83	8
177	178	1
173	178	5
65	65	7
177	241	4
193	194	11
93	93	4
18	18	3
241	241	19
119	119	8
234	235	2
158	191	4
81	81	9
171	171	11
186	190	3
208	211	3
77	78	8
166	166	11
191	192	3
246	246	11
99	105	1
69	219	1
9	9	19
146	147	6
49	49	9
227	227	15
1	1	3
114	114	20
86	86	10
12	50	1
44	45	6
167	167	26
198	210	3
96	97	8
53	53	6
34	34	11
208	209	4
186	225	2
98	105	2
223	223	15
162	163	1
212	213	10
31	36	1
177	188	2
219	219	6
170	170	7
110	115	2
12	12	6
90	92	3
99	100	4
80	81	10
87	87	13
219	220	1
199	200	4
102	119	3
75	104	1
72	72	9
177	238	4
72	163	3
187	187	14
158	160	4
105	147	1
236	236	7
63	75	3
163	163	14
178	187	4
86	88	2
216	217	2
6	11	1
153	179	5
144	191	1
60	61	3
204	204	11
192	196	2
107	107	10
167	246	1
161	165	1
216	216	12
25	230	5
81	83	3
200	246	1
16	115	3
165	166	9
99	99	4
235	240	3
161	161	7
10	11	2
30	31	3
237	241	2
146	153	3
84	85	9
231	234	5
29	29	9
149	150	3
167	183	3
70	71	3
147	147	9
8	8	12
150	150	20
195	196	5
165	167	3
15	15	9
169	171	2
31	31	14
158	184	3
243	243	7
91	91	8
57	96	3
175	175	7
174	174	9
94	94	5
198	198	4
211	213	2
19	19	8
197	199	7
220	221	4
48	208	2
58	58	7
26	26	8
38	39	8
96	106	3
34	76	1
108	154	3
235	247	3
80	80	8
39	88	4
78	81	5
14	146	1
87	248	1
194	199	2
117	117	12
50	105	3
67	70	4
172	173	4
16	26	6
222	222	8
13	66	5
16	16	13
224	224	8
64	117	1
20	20	14
220	220	13
60	60	6
166	227	4
239	239	6
1	151	2
34	35	1
164	217	5
18	39	2
89	89	7
27	47	1
185	233	3
61	67	2
168	172	3
185	226	2
55	57	6
50	58	1
245	248	2
165	186	4
72	113	3
245	247	3
163	241	2
185	186	6
101	112	2
37	37	9
215	216	6
34	49	4
109	113	2
201	213	1
43	43	18
166	196	2
55	55	7
44	44	7
228	231	2
86	90	2
17	52	1
85	85	5
160	208	4
71	71	4
146	244	1
11	16	2
179	189	1
193	234	1
89	112	2
82	91	1
92	95	1
66	66	10
249	249	1
113	114	7
162	162	9
72	114	2
181	182	6
198	199	5
3	3	7
162	167	2
58	95	2
95	95	7
31	47	3
215	233	1
167	197	2
85	109	3
169	179	4
58	96	1
120	120	4
160	206	2
44	52	2
181	186	1
233	233	8
232	234	3
189	191	3
148	195	3
170	192	8
240	241	4
66	67	2
101	101	16
23	29	5
120	208	3
60	68	2
221	222	9
78	79	4
178	182	3
117	120	3
172	174	3
7	18	1
146	146	4
188	195	1
68	68	7
57	57	13
24	24	5
248	248	5
78	204	1
91	110	5
209	209	7
30	247	2
201	217	2
110	110	8
49	61	1
80	108	1
226	235	2
173	174	4
73	73	9
112	116	2
161	164	4
164	165	2
117	151	2
37	63	1
88	92	1
235	236	3
80	89	1
180	182	4
70	70	5
245	246	5
170	171	3
193	195	4
35	152	2
203	204	2
95	98	1
111	112	3
242	244	3
156	156	17
164	164	7
109	205	4
230	231	1
166	233	1
201	202	1
24	25	5
92	113	2
92	246	1
231	231	2
233	234	4
171	176	2
111	111	3
45	100	1
3	4	2
160	164	2
51	51	5
156	160	3
49	50	8
175	177	5
40	46	1
237	238	2
230	230	5
201	201	11
175	178	4
150	201	3
171	179	2
187	190	1
172	172	8
109	111	4
48	207	1
215	217	4
179	242	1
91	92	2
152	160	2
34	50	4
41	43	2
161	162	3
56	64	1
106	107	8
243	248	1
118	238	2
188	188	6
109	109	6
179	184	3
157	159	1
90	102	2
210	211	5
189	190	4
8	24	1
17	154	1
57	58	3
7	7	13
23	87	2
61	71	2
25	55	3
12	33	2
41	42	2
212	212	10
33	34	2
236	240	1
204	236	3
84	104	1
161	208	2
236	237	2
33	114	2
239	247	1
214	214	8
161	192	2
183	186	1
166	198	1
150	184	1
50	51	3
188	191	1
112	118	1
43	229	1
31	154	1
57	106	1
178	243	3
194	195	2
145	162	1
42	44	3
67	104	2
197	215	2
47	115	1
61	105	2
171	178	2
119	180	1
171	172	6
51	207	2
164	184	3
92	111	1
231	232	3
19	25	1
101	120	2
103	103	3
168	239	1
199	216	2
237	240	2
105	109	1
145	233	1
84	93	1
89	91	1
238	247	2
63	116	3
14	66	1
158	194	1
80	84	1
102	102	3
87	88	2
100	120	1
120	238	3
101	103	1
216	218	2
102	105	2
195	214	2
156	227	1
8	27	2
8	9	1
56	58	1
218	219	3
209	214	1
227	234	2
158	163	4
85	86	2
225	226	4
90	230	1
34	210	1
209	210	2
109	110	5
181	213	2
149	203	2
234	244	2
110	111	3
192	194	1
26	32	1
9	75	1
29	31	3
107	113	1
73	187	1
206	207	1
167	245	1
45	54	3
96	98	3
184	247	2
161	185	1
9	117	3
198	200	2
111	244	2
86	161	2
69	73	1
169	248	1
62	66	1
51	105	2
32	45	2
104	107	2
145	204	1
71	74	1
189	242	1
164	220	2
180	183	2
190	242	2
58	60	1
92	98	1
90	100	2
165	170	2
73	74	4
189	192	2
28	29	3
154	168	2
20	116	1
34	37	1
185	211	1
79	161	1
78	78	4
210	210	1
164	182	3
171	183	1
114	116	2
209	213	3
74	76	2
84	86	1
242	245	4
204	212	3
21	22	2
48	88	1
121	121	1
108	147	3
240	244	1
242	248	3
117	118	4
82	83	4
81	82	5
177	247	1
205	206	2
31	33	3
179	241	2
8	94	3
240	245	1
47	75	2
45	46	1
81	89	5
173	244	3
35	120	1
44	47	1
89	97	1
46	46	3
53	54	1
77	83	1
55	56	3
32	64	1
90	91	3
53	68	2
5	5	4
106	106	1
84	105	2
17	18	1
174	188	1
78	83	1
95	113	1
67	68	2
163	170	1
118	247	2
144	247	1
14	15	1
98	98	3
236	239	2
80	82	1
154	155	2
54	55	1
211	212	3
166	242	1
5	37	1
79	95	1
60	66	3
169	198	2
216	233	1
145	146	3
44	53	1
154	193	3
102	104	1
5	34	1
184	185	4
166	222	4
174	190	3
241	242	1
163	164	2
92	110	3
5	6	1
12	20	1
114	154	1
91	98	1
39	40	1
14	68	3
104	105	1
181	210	1
151	233	1
62	63	1
208	210	2
88	95	2
226	227	3
173	183	1
69	70	1
47	78	1
36	52	1
115	151	1
82	95	3
47	114	1
158	166	2
22	23	2
40	116	1
106	120	1
72	83	2
183	184	1
156	158	1
78	113	1
82	107	2
243	246	2
4	4	1
31	69	1
112	119	2
90	97	1
6	10	1
148	184	1
84	84	4
229	237	1
87	90	1
167	176	1
75	170	1
20	21	1
87	89	2
237	246	1
228	235	2
145	208	1
3	7	2
40	160	1
239	246	2
197	212	1
160	163	2
180	212	1
32	33	1
26	113	1
14	33	1
151	153	2
49	105	1
156	200	1
156	237	1
183	245	2
185	198	1
201	246	1
43	47	1
63	81	1
202	204	1
190	218	1
156	157	1
202	223	1
182	190	2
173	222	1
106	154	1
192	193	1
75	76	1
76	77	1
179	213	1
25	26	1
196	214	2
159	204	1
48	160	2
168	179	1
202	222	1
34	191	1
52	54	2
102	103	1
181	214	1
228	230	1
243	249	1
2	11	1
162	166	1
153	173	1
36	64	2
145	226	1
199	201	2
2	37	1
179	212	1
242	243	1
49	58	1
179	182	1
167	168	1
119	209	1
58	59	1
19	48	1
117	144	1
144	144	1
33	155	1
111	245	1
182	225	1
220	224	1
4	37	1
186	221	1
159	160	1
30	111	1
73	96	1
244	247	1
65	205	1
4	34	1
175	227	1
186	187	1
3	51	1
144	210	1
14	67	1
152	192	1
28	30	1
