149	156	1
137	137	6
13	13	7
56	56	11
9	9	15
159	160	4
138	138	11
47	49	3
10	10	3
159	159	7
107	108	4
92	113	5
152	154	4
140	144	2
74	74	9
11	11	12
12	14	6
133	133	5
65	65	3
134	134	1
54	54	11
100	101	5
143	143	6
43	43	4
167	167	4
85	86	3
8	45	1
89	90	2
47	47	1
19	19	2
50	52	3
63	69	5
4	4	17
15	17	2
103	103	4
1	1	6
49	94	7
39	39	5
15	40	3
115	159	2
34	34	3
142	142	1
53	54	1
129	159	3
132	132	14
110	110	11
18	18	3
100	100	10
64	64	7
70	70	8
161	161	4
119	155	2
21	21	4
34	38	1
126	127	3
49	51	1
42	44	2
72	73	2
169	170	3
58	58	3
82	82	3
109	109	10
149	149	4
96	96	3
93	93	3
70	90	4
50	50	4
151	151	5
51	96	3
21	42	1
108	108	9
92	92	6
82	93	2
63	63	2
45	45	2
154	154	3
44	46	1
163	165	1
139	140	1
112	150	2
114	114	1
68	77	1
75	75	5
75	84	3
23	24	13
46	49	3
17	17	3
3	34	2
7	48	2
37	38	7
62	92	1
121	148	1
62	62	1
90	90	17
43	44	3
95	95	6
80	89	3
48	49	4
149	157	4
112	113	2
5	5	4
135	135	11
81	82	4
87	87	6
24	24	3
66	66	3
130	145	3
100	138	3
92	93	6
119	153	1
1	2	3
89	89	2
54	55	1
28	28	3
53	53	4
72	72	4
155	156	2
97	98	1
42	161	1
81	81	3
49	49	2
55	56	4
16	16	4
37	37	6
40	40	6
50	51	1
141	141	2
26	26	2
128	142	3
95	96	3
93	94	3
13	25	1
133	134	3
125	127	3
155	155	6
91	91	5
45	46	1
21	25	6
126	131	1
145	152	2
160	160	2
36	37	2
66	67	8
41	52	2
119	148	3
121	122	2
113	113	1
69	69	7
49	166	2
22	22	4
124	125	3
147	151	3
26	27	2
62	90	3
144	146	2
46	153	3
101	103	1
94	94	2
13	35	1
36	36	4
20	20	5
101	102	2
86	87	3
38	39	1
47	155	3
125	144	5
163	169	3
131	131	2
48	164	1
46	46	2
107	107	1
97	99	2
39	46	1
14	39	3
128	143	4
64	65	2
67	67	3
8	38	3
53	166	1
128	128	3
163	163	1
98	98	1
135	144	1
101	105	2
148	148	1
14	18	2
86	86	3
96	142	3
166	166	5
100	104	2
44	44	2
15	15	5
9	27	6
128	129	5
145	155	4
130	159	2
4	12	3
102	102	4
126	126	2
111	112	4
112	114	1
14	38	2
121	121	3
23	23	1
8	55	2
77	78	4
111	111	1
156	156	2
127	130	2
27	27	1
154	155	2
14	24	2
124	124	4
106	106	3
12	25	1
110	119	1
105	105	9
125	126	2
14	14	3
6	45	1
125	125	3
84	84	2
15	16	1
83	85	3
56	57	3
6	6	5
8	8	3
78	78	3
130	143	3
110	111	2
140	140	3
77	77	7
11	12	2
25	25	1
147	147	2
47	53	1
76	76	4
55	55	1
42	54	2
168	169	3
48	48	4
150	157	2
3	3	1
39	40	2
112	112	5
7	9	1
43	153	1
44	153	1
80	80	2
46	145	2
138	140	2
52	88	1
152	153	3
99	136	1
136	140	1
20	22	1
111	122	1
139	139	2
115	118	1
168	168	1
158	158	2
91	93	2
8	16	2
2	2	2
136	149	2
153	154	2
118	118	1
7	13	3
14	17	1
97	97	2
165	167	2
116	119	1
10	46	1
133	135	2
49	50	1
104	105	1
52	52	3
115	115	2
42	42	4
136	137	2
101	131	1
170	170	1
46	47	3
35	36	1
7	7	1
33	34	1
87	99	1
85	85	2
69	70	1
117	118	4
146	146	1
58	63	2
169	169	1
125	151	1
82	83	1
13	15	1
90	91	1
124	162	1
51	51	3
63	75	1
100	105	1
123	123	3
125	150	1
122	122	2
35	35	1
109	112	1
99	99	1
129	131	1
5	40	1
130	130	1
72	81	1
57	57	1
123	146	1
72	76	1
101	101	1
42	43	1
8	25	1
88	88	1
136	136	1
131	141	1
3	5	1
75	76	1
