84	85	11
55	55	12
56	56	15
39	39	18
74	75	10
70	70	11
37	37	1
20	40	2
107	107	2
45	45	20
75	75	21
59	59	23
66	71	1
100	101	9
97	97	20
79	81	3
92	92	14
105	105	9
93	94	2
100	100	16
87	87	14
62	62	10
58	58	8
104	104	10
42	43	1
58	61	4
21	21	6
44	44	8
49	49	6
38	39	12
23	24	10
93	93	18
25	25	23
61	61	8
24	24	10
63	75	3
31	31	18
22	22	31
23	23	4
83	83	5
69	71	1
65	65	8
51	51	10
40	43	2
89	90	7
77	77	13
36	49	3
100	102	1
60	74	1
36	51	1
94	95	2
50	50	18
55	56	7
91	92	14
29	29	12
101	101	16
82	93	3
68	71	4
65	66	5
38	38	14
66	66	8
20	21	10
69	69	16
67	68	10
33	33	9
30	31	7
102	102	6
74	77	1
71	71	6
82	91	1
54	54	14
41	47	5
72	73	3
64	65	5
78	78	8
24	25	1
68	68	14
82	82	9
54	74	1
90	90	20
52	53	8
52	52	8
63	63	13
47	49	1
68	69	7
53	53	23
25	26	11
94	94	11
40	40	11
47	48	3
85	85	2
20	20	13
73	73	8
60	60	5
27	27	10
64	64	10
86	86	5
87	88	3
98	98	1
30	30	6
90	91	2
43	43	15
80	80	11
57	57	5
106	106	5
75	76	6
74	74	17
65	75	1
63	64	6
83	90	2
39	83	4
81	81	11
34	34	10
95	95	4
29	30	3
47	47	5
70	71	5
35	35	12
36	36	9
64	67	2
102	103	5
46	46	15
39	40	9
95	96	9
35	36	6
67	67	14
76	77	3
67	69	2
55	59	1
70	72	5
52	54	4
85	86	2
78	79	4
76	76	12
38	40	5
30	34	1
68	103	4
88	94	2
71	72	2
41	42	2
81	94	3
32	32	5
21	23	4
60	64	1
76	93	1
61	62	4
22	46	2
101	102	6
25	29	2
92	93	4
54	55	5
42	44	4
73	74	5
103	103	4
67	76	2
31	36	2
77	91	2
34	36	1
32	34	2
60	62	2
81	91	7
77	78	3
51	52	9
99	99	12
72	72	5
29	31	1
40	49	2
50	51	2
28	28	4
26	26	7
46	47	5
103	104	4
34	37	1
63	77	3
31	34	3
68	70	1
75	91	2
91	91	5
65	67	4
48	48	2
94	96	7
60	75	1
48	49	6
61	92	4
84	84	1
88	89	4
37	38	4
90	94	1
45	46	4
58	60	3
37	83	2
63	91	3
43	44	1
96	96	4
65	76	1
79	80	6
69	95	2
88	88	8
29	33	3
63	74	1
58	59	1
72	102	2
77	90	1
80	81	2
62	63	3
33	34	1
39	50	2
56	57	2
23	25	4
79	79	2
31	32	1
86	87	3
75	95	2
40	42	3
39	41	2
84	87	1
55	102	1
42	42	1
93	95	1
25	28	1
38	50	1
55	104	1
53	55	1
65	70	1
22	36	2
57	58	1
35	50	1
26	27	1
32	33	2
82	83	1
61	63	1
89	89	3
53	54	1
37	46	1
51	53	1
69	70	1
65	68	1
