9	9	20
54	54	16
130	131	18
87	92	2
78	78	5
68	73	1
79	108	3
120	120	26
132	132	23
144	144	31
6	6	5
118	119	10
20	20	23
1	1	16
126	126	31
7	13	2
48	48	16
31	39	3
36	37	11
18	117	3
8	8	21
61	61	34
124	124	32
127	127	26
92	94	3
13	14	6
64	66	4
102	102	17
126	129	12
49	49	12
99	100	26
139	139	25
122	122	26
43	64	2
135	136	8
137	142	4
71	71	14
90	94	2
92	92	37
17	19	1
118	126	3
118	120	3
39	39	12
123	123	25
33	33	34
26	26	15
139	142	8
107	108	16
116	116	19
13	13	13
142	142	17
9	10	6
16	16	12
55	56	10
36	36	19
48	82	1
97	97	11
135	135	20
125	125	27
79	79	14
0	1	7
61	62	6
37	38	12
64	64	26
133	134	4
110	112	1
21	21	10
53	53	25
114	114	8
21	22	8
95	95	22
114	116	2
81	83	6
13	16	1
5	6	8
141	141	29
41	41	22
56	57	6
23	36	1
37	52	2
106	131	2
129	129	22
81	82	13
127	128	3
112	123	3
108	136	3
53	64	3
131	131	23
65	65	26
87	89	5
121	122	1
51	58	4
40	40	14
129	130	5
133	143	1
100	100	21
23	23	8
42	43	8
87	87	13
131	143	5
62	62	12
34	34	23
54	56	7
80	80	20
76	79	7
59	59	21
93	94	5
115	116	8
74	74	15
66	66	9
145	146	2
110	111	4
66	74	2
53	137	2
43	43	8
96	96	22
26	27	10
119	119	18
19	38	3
57	57	15
111	111	10
145	145	9
10	10	22
19	28	3
27	27	26
28	28	26
18	24	2
70	71	2
119	141	2
67	67	8
101	102	5
114	122	1
99	99	19
20	24	8
32	32	21
138	139	4
75	95	3
120	121	10
67	68	8
115	115	9
132	143	1
140	142	4
133	137	3
86	86	3
146	146	5
108	109	11
119	120	17
102	103	8
91	91	17
12	13	11
110	139	3
19	20	5
88	89	4
18	19	11
22	22	30
106	114	1
143	143	10
34	73	2
18	18	20
22	24	4
71	75	6
81	81	15
117	117	22
9	96	1
35	35	20
51	51	11
85	85	11
102	128	2
59	61	7
126	130	4
53	54	9
27	40	10
122	126	3
47	139	2
86	107	2
99	101	3
107	107	17
65	85	4
90	90	9
133	133	21
47	47	15
5	11	1
24	24	22
137	137	19
87	90	2
121	124	5
23	24	4
138	138	11
142	143	9
127	132	6
31	31	10
69	71	5
77	77	3
134	134	13
8	38	5
106	107	5
140	140	18
96	97	17
40	41	15
25	39	4
88	88	11
104	104	15
16	24	1
103	103	24
70	70	19
47	49	3
25	25	11
20	21	17
27	42	2
4	5	4
128	129	11
125	130	2
17	17	11
71	74	3
13	107	1
53	109	5
109	109	23
41	42	5
30	30	17
105	110	5
69	93	1
21	100	3
13	20	2
73	73	17
67	73	3
69	69	8
20	70	6
48	50	6
90	91	15
110	110	20
105	106	12
139	140	13
70	72	7
131	133	4
105	107	4
55	55	10
28	29	2
101	103	3
51	52	4
28	32	4
42	42	21
8	18	4
84	85	5
15	24	2
8	9	6
114	115	7
50	110	2
47	51	8
103	123	1
98	98	25
62	64	6
0	0	11
66	75	2
15	15	13
81	84	3
118	144	3
65	66	4
57	58	3
37	37	11
2	83	5
113	113	16
5	5	11
8	10	1
33	34	4
121	121	25
89	89	7
92	95	1
118	118	15
136	136	15
25	26	4
3	3	12
68	68	22
82	83	11
80	82	2
38	39	3
124	125	5
66	69	1
77	78	8
38	38	13
141	142	6
72	72	4
46	46	3
62	63	13
81	96	2
72	79	1
84	98	1
125	143	5
14	14	25
54	55	7
135	141	2
36	39	2
75	76	4
101	101	21
80	81	6
105	131	1
98	121	2
127	143	1
37	42	2
17	20	1
95	96	4
47	67	1
66	67	7
132	134	2
29	70	4
2	2	15
125	131	8
20	27	2
64	112	2
70	93	1
106	136	3
105	105	3
128	128	23
98	99	3
118	142	2
103	126	4
143	144	5
112	116	1
2	3	16
109	138	3
17	37	1
11	11	7
47	82	5
27	37	2
50	50	19
47	48	3
9	12	2
60	60	12
18	28	2
86	105	2
125	126	9
27	28	5
41	83	5
86	87	6
55	58	1
39	51	1
5	14	1
84	84	17
101	121	3
127	130	8
121	125	1
56	56	15
111	112	5
108	108	13
106	106	16
138	140	2
54	76	1
39	52	3
21	55	4
103	111	2
126	131	5
64	109	1
121	123	4
34	107	2
76	76	10
97	98	4
75	75	12
19	19	17
19	49	2
136	140	5
58	61	5
30	33	4
55	57	6
96	99	6
4	4	12
19	128	4
82	82	13
10	11	12
134	135	9
134	142	2
93	93	5
11	37	1
76	77	5
130	130	7
34	35	10
103	104	2
69	70	10
25	60	1
106	121	2
87	111	4
141	143	1
95	97	4
102	104	6
103	109	6
52	52	8
41	82	3
28	30	5
112	112	10
51	54	1
79	80	6
13	41	1
30	31	5
23	62	1
13	17	1
43	84	2
29	29	10
125	127	4
78	79	2
36	62	3
48	70	2
9	25	2
21	36	1
74	75	4
94	94	9
73	74	8
15	39	2
20	26	6
32	49	3
63	64	4
81	85	3
113	124	2
77	87	1
15	16	4
91	92	5
83	83	14
50	73	1
115	117	8
140	141	11
101	124	1
3	4	2
53	79	2
49	60	2
42	48	4
36	54	3
14	53	1
61	70	1
58	58	6
114	140	2
14	15	6
54	57	3
46	61	1
34	82	1
33	35	4
31	64	4
136	139	5
113	114	3
127	129	4
114	118	2
131	136	3
135	139	7
136	143	2
31	33	1
112	113	8
131	132	10
31	50	3
106	108	3
120	131	3
28	57	2
49	50	2
66	70	5
33	36	3
67	69	2
89	96	1
79	93	4
60	61	9
87	88	1
128	131	3
94	98	6
52	85	1
6	16	3
137	140	3
112	118	2
108	110	1
31	34	2
94	95	3
89	90	9
132	133	9
91	94	5
117	130	2
38	41	2
132	139	1
52	81	2
57	92	3
88	90	2
60	62	2
47	84	2
19	72	3
48	49	4
83	84	7
66	71	1
95	119	3
63	63	6
22	41	2
126	132	4
10	16	1
36	52	3
92	135	1
3	85	2
59	60	5
96	117	1
53	55	7
113	115	6
8	11	1
76	80	3
40	52	4
76	95	1
117	118	2
68	70	2
54	136	1
40	70	2
133	135	1
54	107	2
12	37	2
118	125	1
61	65	2
30	95	1
100	101	1
74	97	2
1	16	1
34	51	2
137	138	3
119	121	3
33	54	2
33	72	3
75	93	2
21	24	3
108	138	3
24	26	4
134	139	5
3	56	7
108	139	5
73	78	3
22	126	5
13	35	1
32	33	4
72	73	6
96	105	1
104	144	2
123	124	3
40	56	1
35	36	2
33	78	2
85	86	2
116	117	7
122	125	3
27	31	2
50	52	1
53	80	1
58	115	1
58	59	2
92	96	2
68	69	4
131	135	3
64	73	4
117	128	1
36	86	3
68	75	1
23	25	2
71	72	2
128	130	4
17	18	3
12	12	4
136	137	2
59	67	1
55	67	1
29	30	4
64	74	3
48	79	1
65	70	2
8	17	1
113	138	1
59	108	2
37	64	1
117	144	3
50	65	2
42	52	1
1	2	5
135	140	2
43	51	1
5	16	3
111	140	3
14	16	8
20	41	1
126	127	1
109	111	1
104	123	3
120	123	1
52	53	2
68	95	2
50	51	1
3	14	6
48	66	1
56	58	2
49	89	1
113	142	2
98	104	2
38	67	2
123	131	1
19	21	7
66	72	2
60	74	1
22	62	1
89	125	1
6	76	1
8	21	2
60	107	1
68	76	2
31	32	2
38	47	2
31	56	1
2	11	1
52	54	2
42	143	1
88	120	3
19	30	1
53	86	1
24	25	3
26	32	1
76	104	2
113	123	1
69	94	2
59	83	1
134	136	4
2	6	2
86	94	3
84	97	2
31	113	1
50	80	2
3	13	1
62	71	1
38	71	2
74	78	1
23	63	2
9	17	1
40	50	2
76	78	1
122	123	1
56	92	1
122	128	1
138	142	1
10	21	1
43	49	2
12	36	2
67	134	2
61	69	1
33	52	2
20	37	1
86	89	1
66	68	4
29	48	1
64	65	2
14	43	2
133	139	2
56	71	1
133	140	2
56	73	2
40	54	1
118	135	1
51	80	1
111	117	1
35	52	2
20	22	1
107	117	3
86	109	1
18	74	1
3	6	2
73	93	2
57	59	1
64	68	2
71	76	1
78	88	1
104	105	1
77	103	1
139	143	1
123	125	2
137	139	1
15	93	1
51	53	1
82	87	1
130	136	1
144	145	2
16	17	1
51	62	2
36	70	2
75	98	1
8	100	1
18	27	1
75	77	1
19	29	1
8	40	1
59	64	1
70	75	3
36	105	2
13	36	1
65	68	1
107	110	1
29	95	1
61	63	1
47	52	1
21	31	1
137	143	1
30	32	1
8	85	1
39	40	1
42	78	1
93	95	1
120	141	1
70	94	1
85	87	2
30	94	2
144	146	1
92	114	1
43	48	1
55	111	1
114	123	1
57	60	1
139	141	1
41	47	1
2	56	1
12	21	1
54	60	1
113	116	1
21	38	1
139	144	1
58	62	1
