60	60	13
62	62	19
96	100	6
51	61	5
31	62	5
22	22	10
95	95	39
34	35	7
96	96	14
63	63	23
55	55	10
100	100	18
77	77	16
97	97	17
80	80	20
24	24	6
48	49	4
91	91	10
81	81	15
57	57	26
88	88	23
46	57	3
97	98	10
42	42	20
92	92	20
69	87	2
74	74	18
36	98	3
44	44	17
54	54	21
71	74	2
70	72	4
50	50	19
83	83	15
32	32	5
75	75	21
61	61	8
39	39	5
26	26	9
79	79	25
89	89	23
96	97	7
98	98	10
35	36	7
46	46	13
41	41	35
26	27	8
47	47	12
31	65	4
66	66	8
85	85	25
98	99	1
34	34	4
79	97	12
86	86	12
31	31	22
50	51	5
54	55	11
40	40	14
38	38	12
46	90	6
73	73	33
80	97	1
20	22	2
79	80	5
46	48	4
87	87	10
98	101	4
69	74	1
27	27	12
45	46	5
28	28	5
83	93	2
80	81	14
63	66	1
95	96	7
45	47	3
69	69	24
43	43	13
65	69	2
64	64	6
40	65	3
48	48	22
51	51	8
49	49	3
35	35	10
22	23	3
39	42	4
38	58	2
40	41	3
91	93	2
25	25	9
67	67	23
34	42	4
68	70	2
35	42	2
71	71	10
86	87	7
93	93	7
73	74	2
72	72	5
99	101	8
59	59	9
36	51	3
23	24	2
63	65	2
99	99	6
95	97	9
91	92	3
83	94	2
70	71	3
86	88	2
68	68	12
42	43	8
56	56	9
89	92	1
84	97	5
65	66	7
93	94	11
94	98	3
65	65	13
36	36	7
87	89	3
40	42	4
52	79	2
84	84	12
79	99	7
78	78	15
72	101	2
46	47	1
38	61	4
101	101	19
58	60	5
23	23	8
79	84	2
79	100	1
83	97	3
81	96	1
20	38	1
89	99	5
41	42	6
66	67	2
84	91	3
27	28	9
69	77	1
37	37	6
76	76	22
87	88	13
29	87	6
90	90	16
52	52	32
45	45	10
29	30	4
70	70	18
85	95	2
58	68	6
93	95	3
94	94	13
20	20	9
47	49	2
53	53	14
62	64	2
56	57	2
77	89	2
38	48	2
58	58	10
58	61	3
77	78	3
92	95	2
76	77	2
54	57	2
60	68	2
70	74	1
68	69	8
63	64	6
36	81	1
46	98	3
84	101	3
34	36	3
70	76	3
51	75	4
47	48	4
74	75	3
87	97	2
23	26	7
100	101	2
33	61	4
88	89	2
75	76	1
62	91	3
52	77	2
60	61	3
29	29	10
49	50	2
43	75	1
47	50	1
102	102	7
64	91	2
57	68	1
80	94	2
24	25	4
70	75	1
75	85	2
69	70	7
45	50	1
33	33	11
77	85	1
64	65	4
73	79	2
84	98	1
60	79	1
31	40	2
87	100	4
55	59	1
65	90	2
51	97	2
30	30	4
54	80	4
89	97	2
89	90	1
53	54	2
86	89	2
44	64	3
82	82	3
36	60	2
77	87	3
60	77	2
66	68	2
36	56	2
84	100	1
64	76	2
82	98	2
36	80	1
43	44	1
37	56	2
72	90	3
60	74	2
36	38	3
29	53	1
74	76	5
96	99	2
36	61	2
83	92	1
60	73	3
86	92	2
92	93	2
94	96	4
80	89	4
65	72	2
88	92	1
95	99	4
96	101	1
78	89	3
40	45	1
99	100	1
61	82	2
75	90	4
30	69	1
35	37	1
37	38	1
25	26	1
74	91	1
42	44	2
100	102	1
73	93	1
60	69	1
69	73	2
65	74	1
44	62	1
41	43	1
83	100	1
68	93	1
23	38	2
45	51	2
29	61	1
87	94	1
61	93	1
81	82	4
58	59	1
39	47	1
54	77	1
90	93	1
71	72	2
85	99	1
96	98	1
47	70	1
87	95	1
66	70	2
79	96	1
33	47	1
57	58	1
86	91	1
33	55	1
61	98	1
31	39	1
80	98	1
49	94	1
84	99	1
