42	42	8
33	33	3
53	53	11
123	123	5
66	66	3
46	46	8
55	55	10
30	30	12
48	64	4
121	121	19
116	116	6
90	90	8
130	130	9
103	107	2
74	75	7
117	118	6
29	29	5
58	58	6
50	56	1
13	13	11
89	89	17
93	109	4
101	102	1
60	61	7
124	125	8
47	47	13
54	54	15
24	24	7
62	63	4
105	105	15
94	94	19
5	5	8
9	16	4
40	40	8
91	91	5
52	53	8
85	85	8
2	2	11
10	10	16
51	51	5
3	3	14
100	107	4
122	123	4
118	118	16
108	108	18
102	103	4
112	112	19
1	2	2
9	10	3
127	130	2
11	12	6
71	72	11
20	20	14
87	88	8
125	126	4
52	52	13
93	110	3
103	103	17
98	98	2
57	57	18
126	126	9
80	81	3
44	45	3
48	49	5
76	76	5
32	32	8
122	122	9
4	4	6
11	11	5
60	60	5
69	69	11
117	117	8
111	112	4
112	117	1
46	48	2
106	106	9
72	74	3
68	68	8
9	11	2
7	7	2
96	96	4
25	25	2
88	88	16
133	133	3
77	77	4
97	97	2
95	95	11
125	125	9
120	120	11
6	6	6
92	92	11
124	130	3
109	120	2
115	115	19
71	71	15
14	14	7
118	126	1
80	80	6
109	109	11
70	70	5
90	92	2
8	130	1
18	18	10
49	49	15
8	11	2
6	7	2
25	32	2
120	125	2
16	17	6
132	132	12
57	58	2
131	131	20
50	50	8
124	124	8
98	100	1
107	107	11
8	58	1
53	55	1
84	111	1
65	108	5
90	91	4
113	114	6
1	1	7
63	63	7
65	65	4
104	105	4
13	19	2
72	72	6
75	75	4
0	0	2
62	64	2
110	110	14
84	98	1
73	74	3
12	13	3
22	22	3
102	102	6
15	112	2
34	34	2
98	126	2
28	28	3
119	119	6
62	62	10
50	51	3
114	114	12
114	115	4
54	56	3
77	106	3
93	111	3
2	3	2
62	82	1
84	84	4
127	128	3
54	55	1
91	93	5
88	89	4
111	117	1
9	9	4
101	107	2
85	100	2
44	44	11
49	50	4
20	95	4
14	15	1
5	30	4
116	118	2
94	95	4
69	70	5
14	31	5
64	64	10
93	94	3
4	132	3
78	79	3
26	26	7
127	129	5
21	22	4
105	121	4
98	99	2
39	39	6
131	132	3
116	119	1
79	80	2
46	49	1
120	121	3
12	12	12
124	133	4
98	104	1
23	23	2
104	104	5
4	5	2
82	83	2
67	67	2
88	129	1
56	56	5
87	87	6
58	63	2
5	13	3
19	19	5
108	131	1
94	96	3
107	108	2
45	46	1
3	13	2
57	64	2
61	61	2
82	82	3
100	100	3
22	23	1
0	3	2
81	81	3
126	127	3
96	117	4
86	88	1
76	77	2
101	101	1
21	31	3
73	73	1
120	126	1
86	130	1
105	106	1
91	95	1
11	17	2
116	117	3
75	121	4
15	15	5
77	82	5
119	120	3
13	14	1
5	7	3
48	48	1
118	119	3
47	59	3
51	54	1
69	71	3
41	41	2
79	79	1
0	1	1
109	112	3
9	68	1
85	119	2
94	109	1
19	20	2
111	111	1
117	120	1
67	68	3
99	99	1
55	61	2
16	16	4
106	118	2
91	92	4
47	48	2
113	116	1
79	118	1
115	116	1
10	11	1
129	129	1
106	109	2
57	63	2
2	5	4
46	47	1
33	34	1
106	115	2
83	83	2
78	83	1
110	114	1
102	123	1
113	113	7
13	51	1
109	110	4
44	63	1
109	121	2
15	92	3
27	27	3
81	87	1
59	59	1
59	65	2
70	71	1
41	42	3
29	30	2
7	8	2
94	112	3
105	111	1
39	41	2
7	14	4
84	97	1
66	107	1
37	38	1
43	44	1
129	130	3
0	4	3
13	15	1
101	119	1
96	103	1
114	116	1
68	70	1
103	106	1
32	33	1
110	112	1
17	17	3
109	113	1
58	59	1
4	6	1
93	93	2
126	128	1
15	33	1
57	86	2
123	124	1
78	78	2
45	47	2
115	119	1
51	53	1
110	111	2
97	98	1
63	68	1
42	44	1
27	28	1
91	110	2
128	130	1
16	18	1
114	117	1
52	55	1
20	21	1
99	100	2
85	86	1
93	96	1
45	48	1
15	111	1
31	31	1
53	54	1
54	57	1
84	113	1
65	66	1
95	96	1
42	43	1
26	27	1
