38	39	4
127	148	2
54	54	9
160	160	2
55	55	8
107	108	1
123	124	4
43	43	3
111	113	1
93	93	1
53	86	2
37	41	1
76	76	5
75	75	8
82	88	2
52	81	5
137	137	3
98	99	1
19	19	11
90	90	6
128	128	8
129	129	4
143	143	7
133	134	2
130	130	2
48	48	3
3	3	4
78	79	1
91	104	2
106	106	2
77	77	3
147	147	8
20	20	4
136	138	3
132	132	11
117	117	10
90	91	4
81	81	3
46	46	9
47	48	4
103	103	3
101	102	5
11	11	8
88	90	5
118	118	2
70	91	2
92	92	13
47	47	7
13	14	3
0	1	2
105	105	7
94	94	2
37	38	3
84	85	1
34	34	2
100	118	2
62	76	1
150	150	4
142	142	2
146	147	4
94	95	3
96	96	5
7	8	3
43	44	2
22	24	2
55	56	1
25	25	7
132	136	2
39	40	1
83	83	5
126	127	4
169	169	2
99	99	3
104	105	2
56	56	6
1	1	6
109	109	6
22	22	5
7	7	9
69	69	2
34	35	4
123	123	5
5	5	3
66	68	2
141	168	4
151	151	2
35	35	3
12	12	3
72	76	2
145	145	9
88	89	4
158	158	2
16	21	1
40	40	5
49	51	2
157	157	3
100	100	1
54	90	2
18	18	4
97	97	4
39	39	3
71	91	2
162	163	3
127	127	8
23	23	8
106	107	1
74	74	1
170	170	2
33	34	1
107	107	3
116	116	7
41	41	4
10	13	1
101	103	4
49	49	3
21	21	5
73	96	2
122	130	2
114	114	3
57	57	9
73	133	3
77	120	1
49	50	2
54	55	2
168	168	3
8	8	3
91	95	3
21	22	1
109	110	2
63	63	3
24	24	2
62	70	1
102	103	3
98	98	2
107	111	2
147	148	1
53	78	2
76	89	2
14	15	1
136	136	5
155	155	1
77	86	3
5	12	2
18	19	1
79	79	4
152	153	1
167	167	2
22	23	3
38	38	10
148	148	2
86	90	1
76	78	2
77	99	1
6	7	1
112	112	1
163	163	3
92	105	1
12	24	1
52	52	4
101	112	1
108	109	4
82	82	2
20	21	1
89	90	2
4	5	1
149	149	3
80	80	1
110	110	2
71	93	1
107	110	1
63	81	1
96	99	2
45	45	7
109	111	1
44	45	3
139	139	3
134	135	4
125	161	2
144	149	1
64	64	1
130	137	3
12	49	2
77	121	1
154	154	5
51	51	4
146	146	3
85	87	2
66	66	3
53	77	3
26	53	1
81	82	1
77	78	3
9	10	3
86	86	3
151	155	1
156	156	6
68	86	1
152	152	2
109	135	1
95	95	4
84	84	3
6	6	4
121	141	4
74	126	1
138	165	3
14	23	2
130	163	3
62	62	3
42	43	1
72	73	1
110	111	1
161	161	4
5	62	1
85	86	2
100	105	4
81	87	1
119	119	1
159	159	2
103	104	1
159	160	1
45	46	1
17	18	1
108	108	2
56	57	3
139	140	1
164	164	3
111	112	2
76	77	2
94	104	1
114	115	1
72	72	3
81	86	2
37	37	2
87	121	1
125	125	1
17	17	1
70	70	2
101	104	2
84	100	3
72	86	1
13	15	1
106	110	1
1	2	2
16	25	5
10	12	1
66	70	1
72	89	3
53	102	1
38	41	1
144	144	2
144	145	2
65	66	2
50	51	1
65	65	1
169	170	2
3	4	2
71	98	1
27	27	2
54	58	1
14	14	1
152	154	2
140	140	1
27	39	1
148	151	1
0	67	1
97	98	2
148	149	1
12	23	1
67	67	1
61	97	1
161	164	2
42	42	3
43	52	1
24	25	1
125	128	1
8	12	1
9	49	1
2	56	1
100	101	1
58	87	1
72	85	1
41	42	1
25	53	2
0	0	2
131	131	1
135	135	1
11	12	1
18	20	1
72	99	1
64	71	1
72	74	1
96	100	1
92	103	1
67	69	2
162	162	1
73	74	1
17	89	1
38	42	1
113	113	1
153	153	3
99	100	1
48	100	1
71	94	1
69	98	1
73	73	1
107	114	1
125	127	1
20	110	1
137	138	1
