122	122	7
30	30	6
35	36	3
133	134	12
40	40	16
41	43	1
41	42	17
8	8	19
31	31	23
72	73	7
66	66	17
136	137	3
22	22	17
64	64	6
105	105	3
18	19	11
129	130	2
10	10	8
15	15	7
92	93	6
13	13	11
14	14	6
97	97	3
57	57	6
9	9	15
34	34	5
16	17	3
119	119	16
61	61	2
75	83	3
134	134	17
49	49	8
148	149	4
4	5	10
76	77	2
56	56	12
154	154	6
152	152	5
57	80	1
117	118	4
48	122	1
54	84	2
23	23	32
109	110	5
65	65	7
69	69	8
90	90	2
100	100	5
139	140	6
9	24	5
133	133	13
17	17	15
24	39	4
135	135	10
124	124	6
137	148	3
27	27	9
71	71	11
32	33	4
33	34	8
51	51	4
44	44	12
12	16	3
38	38	14
74	96	1
129	129	7
94	98	4
6	6	7
67	73	2
44	45	11
68	68	11
112	113	5
137	137	8
55	55	11
10	25	5
66	67	6
16	16	4
18	18	16
25	28	3
128	129	5
43	44	2
53	53	15
127	128	13
32	108	4
150	151	2
152	153	1
47	47	8
28	29	2
83	85	4
74	74	8
142	142	6
48	48	22
24	26	3
131	133	4
146	146	7
96	96	9
24	24	19
81	81	8
11	25	5
139	139	4
65	67	7
25	26	7
50	50	18
122	123	7
71	72	1
18	23	1
76	76	5
145	145	12
39	40	10
42	42	8
137	144	5
22	43	1
39	39	17
37	40	2
36	73	3
100	101	3
99	100	2
80	80	6
152	154	4
10	11	7
138	138	7
21	22	7
22	23	1
134	135	3
145	146	5
8	34	1
77	77	9
63	64	4
94	110	1
19	19	14
99	111	2
132	132	18
125	125	4
11	24	2
78	78	3
29	29	14
45	46	7
146	147	3
95	95	5
113	113	6
128	128	16
43	43	8
12	12	20
11	11	15
102	102	11
125	131	5
12	13	4
137	138	3
74	98	4
32	32	10
24	28	3
74	95	2
70	71	6
75	75	10
148	151	1
36	79	3
8	9	2
68	86	3
135	136	1
139	146	3
149	149	22
19	44	4
4	4	3
151	154	1
82	83	6
11	12	4
108	108	3
140	142	3
115	116	8
93	93	6
143	149	1
48	49	1
86	86	14
99	101	7
118	118	9
87	87	6
53	54	5
13	15	12
101	105	3
116	116	7
20	21	2
91	92	1
7	26	1
107	135	5
138	139	1
54	55	2
5	5	11
73	73	14
107	108	12
111	112	2
97	98	6
103	103	3
26	26	6
7	7	9
13	35	2
67	67	7
130	132	10
84	86	2
121	122	3
39	50	2
107	107	5
3	3	3
45	69	5
118	120	1
111	113	4
74	111	1
123	131	3
130	130	11
26	27	3
97	99	2
140	141	2
9	38	4
36	42	2
66	68	1
10	24	1
41	41	12
46	46	9
131	131	19
65	66	2
123	123	9
81	93	2
45	45	12
53	55	1
98	98	10
149	150	2
79	80	8
43	77	2
9	10	6
54	91	2
51	55	4
12	21	6
40	41	4
115	115	6
117	117	6
118	119	2
68	69	2
10	30	2
35	35	17
42	43	5
63	63	9
98	118	4
149	152	3
78	79	4
86	87	4
42	44	1
33	33	5
17	18	7
13	34	2
54	54	15
153	153	7
70	73	1
120	122	4
13	14	6
90	91	1
79	79	11
14	15	2
25	25	3
110	154	2
114	115	1
39	42	2
36	36	10
7	8	3
31	108	2
120	120	3
26	29	1
136	136	3
101	102	4
68	85	4
112	112	5
125	152	1
106	108	5
141	141	5
150	150	4
101	109	1
55	57	10
80	81	2
126	126	8
124	125	1
30	31	5
62	62	3
73	84	1
85	87	4
36	80	2
103	105	3
35	72	3
96	117	3
7	9	5
143	144	2
147	147	5
21	31	2
77	115	2
37	37	13
139	144	1
19	24	5
120	121	3
70	70	8
38	40	1
114	117	1
73	76	2
108	152	2
21	21	6
148	148	1
47	53	4
73	78	2
15	142	2
116	117	4
15	16	5
50	51	4
15	134	1
57	58	4
17	45	1
95	96	3
11	142	1
119	120	1
35	79	2
109	109	8
93	94	3
99	99	5
24	25	4
138	150	1
12	19	1
4	7	2
104	104	6
106	106	11
130	131	2
108	109	10
96	97	3
85	85	3
54	56	5
36	71	1
84	84	4
55	56	1
50	52	1
88	88	3
34	35	3
74	78	2
53	98	3
94	97	1
67	68	4
28	31	2
64	65	7
94	94	2
82	84	2
82	82	3
20	20	6
114	114	4
108	110	3
128	130	4
123	132	1
78	93	2
32	37	2
142	145	1
23	43	1
94	95	3
19	20	4
102	109	1
8	36	1
106	109	3
92	92	2
69	89	2
28	28	5
100	125	2
11	16	3
50	104	1
110	110	6
110	111	3
85	86	2
95	97	1
90	96	1
147	148	3
25	27	1
81	82	1
100	129	2
74	76	1
72	72	8
67	69	2
62	63	3
87	90	4
112	126	2
86	95	4
92	95	2
6	27	1
127	127	2
75	95	1
77	79	2
56	57	3
92	117	2
83	84	2
121	121	3
73	75	1
101	101	3
102	133	2
42	70	3
64	66	1
72	79	1
145	148	2
63	66	2
97	119	3
49	99	1
108	116	1
36	38	3
31	36	1
119	121	3
49	50	2
57	63	1
74	75	1
26	28	1
47	50	2
13	131	2
43	45	2
92	112	3
81	94	1
69	71	1
14	22	3
49	103	1
44	46	1
11	22	1
15	46	1
43	119	1
46	47	4
17	19	1
130	133	2
84	130	1
123	124	1
58	58	2
38	39	2
2	2	2
15	74	1
32	35	5
14	25	2
15	132	2
4	123	1
69	96	1
81	84	1
91	91	2
6	7	2
12	20	1
76	79	1
48	100	1
109	114	1
124	128	1
15	131	1
123	128	2
130	141	1
142	144	1
12	24	1
27	30	1
5	6	3
111	117	1
71	73	1
57	79	1
19	23	1
19	21	1
146	148	1
8	22	1
132	133	1
94	96	1
16	140	1
143	143	3
141	142	1
51	53	1
52	57	1
45	52	1
111	111	1
78	80	1
111	114	2
5	9	1
132	141	1
75	76	1
16	141	1
45	53	1
27	29	1
71	118	1
73	74	1
98	99	1
92	97	1
32	36	1
109	134	1
