2	3	3
2	28	1
68	68	16
122	122	35
120	120	15
27	44	2
134	134	15
153	155	6
37	38	4
149	149	37
171	171	55
126	126	17
178	179	1
15	15	37
161	162	5
4	4	27
44	44	29
190	190	30
1	3	2
14	14	20
192	192	10
157	158	23
69	69	16
27	27	22
87	87	19
131	131	13
19	80	3
95	130	2
119	119	24
36	65	5
118	140	4
194	195	8
54	102	1
193	194	10
195	195	22
59	61	3
42	42	34
131	132	12
135	136	5
39	148	1
147	148	7
116	116	14
45	47	7
113	113	30
191	191	13
158	160	6
147	147	8
111	111	26
18	20	7
187	187	23
98	98	5
186	188	9
183	184	9
169	169	23
116	117	14
1	1	11
53	53	30
16	16	9
84	84	9
143	148	1
119	133	4
139	140	13
146	148	4
49	49	7
45	45	29
107	107	18
141	141	13
196	196	30
20	22	6
7	8	4
67	69	2
170	171	16
32	53	2
21	21	11
102	102	10
141	142	5
170	170	25
144	144	11
112	112	22
149	186	3
40	40	14
6	8	4
138	138	15
100	100	31
183	186	10
178	178	11
139	163	1
154	158	1
146	146	15
187	188	12
2	4	2
127	127	20
131	133	1
175	175	22
14	15	8
164	164	14
26	29	1
9	9	30
30	30	12
5	122	3
63	66	5
140	140	22
152	155	12
188	188	25
60	61	6
180	181	12
99	100	1
33	33	22
17	17	13
97	98	2
114	114	13
130	130	15
184	184	16
114	115	10
74	76	5
156	162	1
52	52	19
17	37	2
6	27	8
26	37	2
155	155	9
111	112	12
168	168	21
142	142	36
49	53	3
38	38	27
7	7	8
60	60	7
80	81	8
147	164	1
61	90	3
54	55	9
121	121	14
174	174	19
83	83	7
116	154	3
32	32	18
9	24	6
88	90	1
48	48	16
183	183	32
54	101	4
136	136	21
193	193	35
26	27	6
95	97	1
104	104	23
185	185	33
101	101	8
133	133	26
195	196	8
87	89	2
189	189	15
43	44	8
196	197	21
174	178	1
77	83	1
5	5	32
158	158	19
54	54	17
124	196	1
180	182	3
129	129	13
121	152	6
160	160	21
115	151	6
182	182	16
124	125	11
103	103	5
162	164	2
169	170	15
111	113	5
58	72	2
106	106	14
51	51	17
84	90	1
150	150	33
170	195	2
76	76	4
95	95	6
171	172	17
168	169	9
31	34	1
103	118	10
148	148	19
143	144	14
99	136	2
46	46	32
18	18	5
23	23	35
3	3	10
136	137	8
0	0	10
50	50	31
41	41	21
163	165	4
152	152	26
25	25	10
186	187	9
55	56	10
137	137	16
83	84	8
23	24	2
66	68	1
11	11	18
85	87	2
176	176	20
145	147	6
165	168	3
50	51	11
197	197	18
125	126	9
43	43	6
95	96	6
125	125	15
149	193	2
156	156	14
175	176	3
10	10	25
12	105	2
144	189	7
77	77	7
48	197	2
186	189	7
81	81	5
5	8	2
13	52	2
88	88	3
153	174	3
57	57	29
33	37	1
61	61	8
20	31	1
39	39	13
130	133	4
105	105	11
45	46	16
100	101	3
4	148	1
177	177	16
75	87	3
113	114	4
6	7	2
159	159	14
29	127	4
19	176	1
145	145	12
49	50	4
138	179	4
0	1	6
130	135	3
136	141	3
151	153	1
82	82	2
186	186	17
123	124	8
10	13	9
194	194	18
165	165	15
37	37	30
135	135	8
166	167	8
17	31	3
128	128	5
106	107	13
185	186	20
177	189	1
79	79	9
170	174	3
165	167	2
114	183	1
8	120	3
151	155	3
89	180	6
124	124	12
103	104	4
19	22	2
34	40	4
38	39	5
173	176	4
184	196	1
28	28	17
157	157	22
53	54	2
9	10	5
28	32	5
5	23	3
79	81	1
116	131	6
187	189	2
120	149	6
157	159	1
151	151	20
55	55	20
162	163	1
166	166	11
116	118	4
36	37	18
163	164	7
172	172	25
36	36	17
24	24	19
109	109	11
11	127	1
132	137	5
8	9	5
71	71	7
1	9	5
193	195	3
146	166	1
58	59	2
188	189	11
82	83	9
56	56	20
87	88	5
110	110	9
151	152	18
66	66	6
47	186	4
38	187	2
6	6	13
117	117	11
156	172	1
74	75	4
173	183	1
22	22	5
140	156	4
7	18	5
126	127	14
42	43	4
27	28	5
23	125	3
136	142	4
44	45	7
172	173	8
12	12	18
25	26	6
161	161	10
159	184	3
34	34	13
114	181	2
64	64	2
16	31	7
115	132	3
172	176	4
26	26	16
140	142	3
125	127	8
150	166	1
19	24	2
162	162	12
3	6	3
173	173	10
40	41	4
33	36	5
150	156	5
105	106	6
170	172	5
15	53	8
134	193	2
114	145	2
31	31	19
172	197	1
134	138	1
33	35	2
4	5	11
106	146	1
133	134	4
7	24	4
142	179	3
93	93	2
11	106	1
149	150	5
59	59	11
106	147	5
173	174	4
93	94	1
176	177	8
65	66	1
74	74	3
59	63	3
99	114	4
189	190	7
54	103	6
58	58	9
83	89	2
85	85	3
54	100	3
132	132	13
163	163	9
183	196	1
141	158	1
112	114	1
78	82	6
59	73	1
13	13	6
24	26	5
146	147	13
3	29	1
173	177	1
99	99	12
47	47	10
152	153	8
150	151	1
86	86	10
94	95	8
137	138	3
103	107	1
46	47	8
121	122	3
15	16	10
139	164	1
160	169	2
94	94	8
13	33	4
99	105	1
41	43	4
131	173	2
73	73	9
153	178	2
183	194	3
11	13	1
20	81	3
19	19	2
190	191	1
41	42	2
57	58	4
16	18	2
154	175	2
11	12	4
149	157	1
101	148	7
72	86	4
163	168	2
34	36	1
56	57	1
151	161	4
29	29	15
58	69	3
178	193	4
18	19	10
42	186	6
12	32	3
9	44	1
166	169	5
192	193	4
146	188	4
107	151	1
152	161	1
46	51	3
64	65	5
65	65	6
59	69	2
123	123	13
0	3	7
98	107	4
146	184	5
89	90	2
105	110	4
61	76	2
127	135	1
159	169	2
54	57	2
97	97	6
90	90	7
16	81	2
145	148	1
17	36	4
123	126	3
19	29	4
73	86	3
32	33	9
168	176	3
16	24	1
88	89	1
107	113	2
154	154	14
16	33	5
143	143	7
1	24	2
5	7	5
89	89	9
116	169	3
158	161	3
113	115	2
103	150	2
134	136	3
0	37	1
191	192	4
45	51	4
152	154	2
127	128	3
1	6	3
143	146	1
21	22	3
156	157	3
89	93	1
164	178	3
77	85	3
80	80	4
110	130	2
96	116	2
6	38	2
135	184	1
57	194	1
15	33	2
141	190	2
20	20	18
116	130	3
98	118	1
63	68	2
82	84	1
2	2	10
14	44	1
153	153	3
16	17	3
148	149	2
40	191	2
72	72	4
123	125	2
85	86	1
139	139	13
171	193	1
4	23	1
77	78	1
120	188	1
48	49	3
67	77	3
29	31	2
158	165	2
160	174	1
172	175	1
42	123	1
123	128	4
181	181	6
25	29	3
16	23	5
26	36	2
2	35	2
166	171	2
115	115	5
36	39	2
97	101	3
115	152	3
115	133	2
28	29	5
16	21	3
62	62	5
118	118	6
58	67	2
155	179	2
133	137	1
4	9	1
180	180	5
37	39	1
3	5	1
2	24	1
169	175	2
81	82	1
114	142	2
31	32	4
4	38	1
132	133	3
1	2	6
1	38	3
63	64	2
167	167	1
22	23	2
37	63	4
10	14	3
184	185	10
102	114	2
160	161	4
184	194	1
179	179	10
151	180	2
137	156	1
110	121	1
68	87	5
179	180	2
159	183	2
109	110	6
84	85	2
110	111	3
33	41	1
76	84	1
181	182	3
159	160	1
150	152	5
130	136	1
135	137	2
99	103	2
59	71	1
182	183	10
61	74	2
119	143	6
124	128	7
27	36	2
113	146	1
150	158	2
98	103	2
153	154	3
30	31	5
93	95	1
130	140	2
22	25	5
110	180	4
78	85	3
142	189	1
63	63	4
61	75	2
12	13	3
145	151	1
122	123	2
97	102	4
59	76	1
123	129	1
177	182	1
169	174	2
149	166	1
73	87	1
174	175	3
144	145	3
161	169	2
73	74	3
56	58	1
61	62	1
134	137	3
21	29	2
4	24	2
103	106	3
185	188	1
13	14	3
67	67	2
48	50	1
159	180	2
119	120	2
58	77	2
148	194	4
117	153	1
78	79	3
165	166	4
87	106	1
44	51	2
53	55	1
39	40	5
137	139	2
184	193	1
10	11	8
170	192	1
175	190	2
164	168	1
17	19	1
141	160	1
1	48	1
0	4	2
7	26	3
24	25	3
171	185	3
104	105	1
10	12	1
35	36	5
55	78	5
97	107	2
62	68	3
145	189	1
2	5	3
145	146	1
142	143	2
3	23	1
71	99	2
37	42	1
86	87	3
99	107	1
21	39	2
7	120	2
116	133	1
69	72	1
134	135	2
168	174	1
96	97	1
138	140	2
98	99	4
176	178	4
171	186	1
1	4	1
179	193	2
157	170	1
70	70	5
73	75	2
115	116	3
79	80	3
39	187	3
154	155	1
159	194	1
67	68	2
169	185	1
9	45	1
76	86	2
78	78	2
59	68	2
69	70	3
56	132	2
191	193	1
3	21	2
167	169	1
142	144	2
81	83	1
110	112	1
18	21	2
128	129	6
0	2	2
101	103	3
139	156	1
53	197	2
20	21	4
80	83	2
53	101	1
8	44	3
190	192	3
8	8	1
154	165	2
15	23	1
6	69	1
118	119	1
119	128	1
138	152	1
108	109	1
43	45	1
109	111	1
15	80	1
51	52	1
155	188	2
50	52	1
2	21	1
165	176	1
32	134	1
185	196	1
18	27	2
11	30	1
88	98	2
30	80	1
123	127	2
0	9	2
23	31	1
8	121	1
95	131	2
47	48	1
107	108	1
143	165	1
4	28	1
19	87	1
86	89	2
17	79	1
101	102	1
140	152	1
148	164	1
147	149	1
147	186	1
175	186	1
120	197	1
15	82	2
61	72	1
66	67	1
108	108	1
141	156	2
23	35	1
107	149	1
3	9	2
22	24	1
54	113	1
122	171	1
130	174	1
9	124	1
138	178	1
11	23	1
11	37	1
71	72	1
48	145	1
72	73	1
108	121	1
82	85	2
165	172	1
16	19	3
62	95	2
133	140	1
161	166	2
112	113	2
160	165	1
93	133	1
118	130	1
185	193	1
155	157	1
142	146	1
75	75	1
157	160	1
89	103	1
12	29	1
83	86	1
5	29	1
101	114	1
163	167	1
14	55	1
160	166	1
