35	35	3
91	91	17
25	25	2
31	31	9
93	93	6
94	99	7
59	59	12
61	61	14
37	37	2
52	52	18
22	56	1
44	44	10
39	40	3
80	80	11
90	90	15
49	74	2
45	45	9
90	91	6
85	85	22
49	63	3
74	80	1
92	92	14
52	56	6
85	99	7
34	51	2
72	75	1
78	80	1
65	65	7
25	28	3
59	74	1
42	42	10
44	45	2
75	76	2
70	70	16
51	51	7
71	71	8
55	55	8
46	46	6
56	57	5
49	84	2
51	52	5
86	86	9
68	73	2
63	63	10
74	77	1
100	100	3
56	56	7
68	68	10
35	39	2
76	77	3
45	48	1
92	98	5
91	92	4
29	29	1
96	96	5
88	89	7
46	47	8
43	66	2
48	84	3
67	67	14
66	66	7
72	72	9
25	26	7
50	66	3
55	58	2
53	54	9
101	102	2
97	97	10
56	95	2
98	98	11
52	53	2
89	89	5
94	94	9
50	50	11
64	64	5
50	51	10
98	99	6
74	99	4
34	34	6
55	56	3
40	40	12
48	48	13
63	64	3
61	62	3
40	42	4
39	39	12
76	76	12
88	88	7
38	38	6
41	41	5
68	75	1
78	78	4
66	67	3
69	69	11
97	98	4
99	99	11
53	53	7
40	41	9
47	47	16
48	49	4
86	87	12
49	85	1
74	74	11
20	20	4
75	75	7
62	62	6
66	70	3
58	59	7
95	96	8
81	81	5
101	101	17
21	22	2
60	61	5
83	84	2
27	27	5
38	40	2
73	73	3
95	95	5
22	22	3
83	83	4
87	88	1
91	93	1
49	51	7
49	49	8
84	84	2
93	94	2
30	30	1
43	43	5
82	83	4
90	101	6
70	71	3
26	27	1
49	50	1
74	91	2
32	33	2
29	33	2
55	57	4
68	69	2
100	101	2
92	94	4
48	50	1
98	100	2
28	28	4
66	76	1
102	102	4
79	79	6
38	39	2
99	101	2
60	60	3
85	86	2
74	78	1
43	68	1
74	100	1
79	80	1
67	70	2
94	98	1
45	86	1
50	52	1
36	37	1
59	64	1
56	78	1
92	93	1
65	73	1
37	39	3
78	79	3
62	65	1
52	55	1
71	72	1
67	68	2
30	56	1
54	54	3
57	60	1
58	58	3
65	68	1
77	78	5
47	48	1
69	70	3
55	60	1
42	67	1
96	100	1
82	82	3
56	59	1
33	34	1
45	50	1
80	93	3
56	58	2
57	57	2
27	28	1
33	49	2
85	94	1
77	77	2
99	100	3
59	92	2
54	61	1
51	53	1
26	28	1
71	85	1
89	90	1
43	86	1
36	36	1
90	94	1
54	55	2
45	46	1
85	96	1
33	33	1
80	99	1
74	79	1
