83	84	14
31	31	37
22	22	32
129	129	28
119	119	31
143	144	7
80	80	35
12	13	5
114	114	10
131	131	29
151	151	40
102	102	20
20	27	3
87	87	49
137	142	3
14	15	11
110	111	8
32	32	24
109	109	22
3	3	20
33	43	7
148	149	9
56	57	1
134	134	32
36	36	38
93	94	8
12	12	44
83	83	26
128	128	29
8	33	4
152	152	28
158	158	34
136	136	34
38	38	15
128	131	5
122	125	8
9	11	7
103	104	18
22	23	18
120	122	4
128	129	17
90	127	3
133	133	31
67	71	7
33	33	28
141	141	13
39	98	1
125	126	21
50	50	34
115	115	27
42	148	3
34	87	4
118	118	19
137	138	15
137	139	9
96	97	13
48	48	38
109	113	1
20	20	43
99	99	18
96	96	44
44	44	30
88	88	37
105	105	23
18	18	36
98	99	14
46	54	3
7	8	15
13	13	25
8	8	26
54	54	18
146	147	18
38	126	2
29	33	3
84	84	32
123	123	42
17	17	23
86	87	8
0	1	2
11	11	39
39	39	19
125	125	30
151	155	10
21	25	5
138	138	37
139	139	22
42	42	46
126	126	57
106	106	29
79	80	12
116	117	18
81	92	5
5	6	3
82	82	34
67	67	31
85	117	3
36	37	7
109	126	2
146	148	3
4	4	25
12	25	2
11	33	2
129	130	10
92	94	5
110	110	25
15	15	14
97	97	20
108	109	15
43	43	26
103	103	21
21	21	54
51	51	35
123	139	3
140	141	7
124	124	41
148	148	36
155	155	17
91	91	35
71	71	25
35	35	24
117	158	4
105	107	5
144	144	22
81	93	3
28	29	12
9	9	32
100	101	7
105	106	23
156	156	26
9	14	2
142	142	25
83	92	2
45	46	13
107	107	46
23	23	28
153	154	14
121	121	45
112	113	8
45	45	38
113	123	1
117	118	9
14	16	7
37	37	21
50	56	4
109	111	8
123	125	2
132	132	26
145	146	7
135	135	41
79	79	32
12	33	2
154	154	33
50	51	8
120	120	31
150	150	24
1	2	12
21	22	17
81	81	31
2	2	32
53	53	6
12	27	3
100	100	41
52	53	10
46	47	6
39	40	12
68	69	7
127	127	20
116	116	43
64	66	2
42	144	3
104	104	24
55	56	4
143	143	13
26	26	41
33	34	18
150	158	2
3	5	3
115	116	8
126	127	23
52	52	23
29	29	28
158	159	5
32	33	25
104	105	14
38	39	21
69	70	10
149	157	2
84	85	22
98	111	4
44	45	8
152	156	5
106	107	11
151	152	9
140	140	15
99	100	10
34	34	34
50	55	9
113	125	2
93	93	23
14	14	16
141	142	9
157	158	20
79	114	8
110	141	4
65	90	1
75	75	26
10	10	22
80	101	1
124	125	17
89	89	19
154	155	14
137	137	39
57	68	1
111	112	17
71	72	5
142	153	7
113	113	19
65	65	14
8	10	8
79	81	9
122	122	24
16	39	7
25	25	33
17	20	3
90	90	21
92	92	17
114	115	20
40	41	26
131	132	11
149	149	11
7	7	41
139	140	10
95	95	25
130	130	25
28	28	33
87	132	7
24	24	29
153	153	10
116	124	2
1	1	15
120	121	7
95	96	3
121	122	16
41	41	46
117	117	30
85	85	33
137	153	4
144	146	2
112	112	24
72	72	12
3	4	7
17	18	16
16	18	18
4	52	6
127	128	2
5	5	30
50	54	6
111	111	27
65	66	3
93	96	1
17	43	1
19	21	6
74	74	6
16	17	16
90	91	15
28	33	5
82	84	2
129	133	5
89	90	9
88	89	17
52	71	6
84	86	2
149	150	14
66	66	13
66	67	5
108	108	19
17	19	5
46	46	35
54	56	3
53	55	3
144	147	8
86	88	5
38	147	4
138	139	9
27	33	5
2	4	1
80	84	1
19	19	21
8	9	7
35	37	6
25	26	10
137	147	3
47	47	20
80	81	10
157	157	18
145	145	9
16	16	32
66	71	1
72	73	3
78	78	30
16	43	1
13	15	7
30	30	39
144	145	13
151	154	10
80	115	4
109	110	4
73	73	26
109	112	4
41	42	13
55	55	21
82	94	3
110	142	4
47	72	1
9	10	15
143	155	3
77	77	16
94	94	26
78	82	1
108	157	4
123	124	27
67	70	3
15	16	12
64	64	12
109	147	10
132	133	16
112	122	2
86	86	37
36	125	4
78	81	1
119	120	19
49	56	12
12	18	2
11	12	5
135	141	3
12	16	2
4	5	6
6	6	16
23	24	7
41	43	1
34	43	2
32	42	3
147	147	21
140	142	3
91	131	11
98	98	39
63	64	5
90	93	2
26	27	10
82	83	9
155	157	4
24	132	8
48	49	2
63	63	2
40	40	27
91	92	11
62	69	2
119	150	3
136	141	5
39	42	3
111	139	1
118	119	13
37	38	8
99	106	4
77	78	13
40	144	1
128	130	4
38	146	1
20	21	21
101	109	3
118	150	5
87	88	3
80	108	4
67	68	12
62	62	5
29	30	9
6	148	2
51	53	5
142	152	2
19	20	11
44	148	1
139	141	4
35	36	10
155	158	3
12	14	2
130	131	10
112	141	5
35	90	3
136	137	7
70	71	6
101	101	25
35	38	7
11	24	4
91	94	4
86	132	1
124	152	3
15	54	4
108	113	2
31	32	24
76	76	3
23	25	2
33	38	3
112	140	4
40	97	2
13	54	3
86	91	3
137	140	2
51	52	20
134	141	3
113	114	14
34	38	4
53	151	3
36	87	2
28	36	1
48	56	3
69	69	10
43	44	6
13	18	1
0	0	13
86	133	1
99	110	6
109	114	2
118	132	2
36	153	7
126	145	2
122	123	7
27	28	9
152	153	7
114	116	3
49	54	6
145	147	2
49	52	1
120	140	2
70	70	4
61	65	3
9	32	1
68	68	10
56	56	10
122	135	2
37	93	1
96	98	3
15	40	3
147	158	5
22	26	4
12	17	11
134	135	8
77	79	2
21	36	3
106	113	1
61	61	2
38	144	2
73	74	2
10	13	7
118	144	2
37	146	3
22	24	1
2	3	5
29	67	6
106	149	3
88	122	1
124	153	5
18	19	10
92	131	4
101	127	2
24	25	6
121	125	3
81	95	2
132	134	5
20	22	1
150	151	7
13	57	2
128	133	2
27	27	25
155	156	19
89	127	2
90	131	1
129	135	4
89	91	9
106	150	2
61	62	3
4	6	1
14	40	2
78	79	7
29	45	2
113	117	4
36	38	4
119	121	1
69	89	2
138	140	6
125	144	4
65	67	2
111	113	5
135	136	7
27	55	3
148	152	2
128	132	3
34	36	1
129	131	1
137	148	6
106	156	5
150	152	2
115	123	4
10	12	1
147	148	5
14	61	2
120	127	4
131	133	8
21	26	5
121	123	1
146	146	10
53	54	4
85	116	1
1	4	2
123	152	3
140	144	4
85	91	2
102	103	3
10	11	6
143	145	1
17	50	1
150	157	6
13	17	6
108	112	2
37	126	1
81	117	2
117	120	4
78	117	3
93	114	1
76	77	3
118	152	1
45	47	2
93	98	2
124	151	4
19	22	2
147	152	4
88	95	2
13	16	12
89	126	2
20	26	2
13	14	3
12	20	2
117	122	1
154	156	2
97	98	3
24	26	1
98	153	1
35	86	2
127	154	5
49	50	3
126	136	4
13	56	1
42	43	2
112	123	4
18	49	6
94	95	8
108	110	9
36	95	1
103	106	4
16	38	1
55	70	2
78	83	2
40	44	1
65	91	1
109	115	3
18	20	4
41	159	2
5	28	3
116	127	2
148	150	3
111	115	1
30	43	1
8	31	4
149	156	4
81	111	4
55	67	2
92	93	6
94	98	1
47	48	1
27	29	5
133	134	5
115	117	4
66	91	2
36	92	2
118	121	1
104	107	1
16	49	3
96	127	1
80	112	2
148	157	1
29	65	2
127	135	4
8	32	2
130	132	2
75	77	1
85	87	1
52	67	2
80	117	5
128	138	2
97	127	3
68	70	2
48	71	2
90	134	3
108	126	2
31	42	1
0	158	4
136	154	2
142	143	3
84	90	1
54	55	7
93	95	5
92	117	3
18	52	1
103	127	1
95	97	4
40	43	6
113	115	2
32	38	2
49	49	11
103	105	1
51	54	8
10	14	2
87	92	2
46	48	6
66	128	1
85	86	3
107	108	4
103	128	1
119	132	2
137	149	1
79	82	1
116	125	2
139	148	3
128	137	2
124	154	1
45	48	1
53	71	3
48	54	2
90	115	2
116	126	1
119	127	2
102	105	2
121	140	2
137	154	2
147	149	2
157	159	2
147	153	1
64	89	3
75	76	2
136	147	2
47	50	2
16	41	3
80	109	2
25	37	1
29	120	1
67	69	4
26	28	3
123	128	2
138	150	1
114	122	1
113	116	1
15	39	2
111	142	1
28	35	1
39	96	1
25	36	1
34	37	2
136	157	3
64	68	2
152	154	3
127	134	1
38	97	2
141	152	1
156	158	5
30	46	1
81	94	1
39	41	6
152	158	2
36	127	3
29	47	2
6	7	2
8	34	5
114	123	2
12	26	1
79	117	2
64	88	1
0	157	2
116	122	1
22	25	1
54	70	1
80	83	1
85	90	1
46	66	1
136	142	2
90	126	2
77	81	2
13	43	3
47	49	2
76	79	1
62	64	2
111	140	1
156	157	1
118	126	2
87	90	1
105	151	2
148	158	3
30	32	2
99	152	1
152	155	5
63	68	1
127	158	2
31	43	5
13	19	1
20	81	1
87	133	2
4	49	1
54	90	1
127	150	2
63	89	1
56	63	1
12	34	1
105	110	1
6	8	1
137	144	1
134	155	1
126	128	1
38	42	1
7	9	1
124	142	2
139	154	1
90	92	1
51	55	1
108	122	2
128	136	1
6	149	1
83	85	1
64	65	1
112	115	1
91	133	1
148	156	2
84	95	1
80	111	2
92	95	1
81	84	1
0	155	1
127	152	1
23	132	1
107	109	1
16	37	1
90	132	1
17	22	1
61	69	1
6	30	1
