17	18	6
65	67	1
10	10	16
53	53	9
75	75	4
42	42	15
69	69	18
138	138	5
13	13	9
34	34	8
62	62	5
55	56	10
102	115	6
30	31	8
77	79	2
37	37	14
33	33	5
30	32	1
68	68	11
105	105	3
79	81	4
40	40	5
24	24	8
123	124	4
29	29	3
147	148	5
10	11	6
38	38	19
80	80	5
56	56	3
118	118	15
36	36	16
54	55	8
141	141	7
31	31	7
97	97	8
20	20	18
77	77	8
65	65	11
149	149	15
92	92	3
124	124	2
31	39	1
49	49	7
74	74	14
12	12	8
93	94	5
64	64	14
128	142	3
41	41	7
38	43	2
122	122	11
48	49	12
117	117	6
79	79	6
66	68	3
3	24	1
44	44	8
104	106	2
68	84	1
15	15	12
27	27	1
96	98	1
76	77	10
90	90	8
110	110	4
57	58	2
18	18	8
106	106	15
142	142	5
86	87	1
125	125	2
127	128	2
66	97	1
141	142	7
66	66	3
107	112	1
10	95	5
15	23	1
99	101	2
106	110	1
115	115	3
34	35	6
114	114	10
57	82	1
14	14	11
3	3	7
16	37	3
75	76	1
96	97	5
43	45	3
138	139	5
134	150	3
87	88	2
95	96	4
36	37	2
109	119	1
99	133	1
131	132	8
13	14	3
11	11	5
154	154	7
121	121	2
71	71	16
116	116	5
17	17	9
39	39	18
61	81	1
51	56	6
83	84	4
81	82	4
128	143	2
23	23	8
8	9	11
45	45	13
88	88	4
147	147	1
131	131	3
143	143	8
26	27	7
32	32	8
26	26	5
87	91	2
21	22	3
106	107	2
132	132	10
42	43	9
49	50	6
137	139	1
107	107	3
130	130	11
67	67	6
16	16	14
40	42	4
100	101	2
44	46	1
145	145	2
45	46	4
143	144	5
97	98	2
96	146	2
140	141	1
46	47	3
81	83	1
129	130	4
146	146	3
150	150	3
72	73	2
84	85	2
84	84	2
41	43	2
64	65	3
128	129	5
135	135	6
19	19	5
99	99	11
67	68	2
25	28	2
120	122	3
86	97	1
119	119	3
13	15	1
55	55	6
73	73	3
43	44	4
16	17	9
118	119	2
133	133	4
4	7	1
22	22	10
30	30	13
91	135	2
6	6	2
47	71	1
151	152	1
4	5	1
77	78	3
25	27	3
9	10	5
15	16	2
108	109	2
48	48	8
105	108	4
43	43	2
70	70	7
39	40	5
9	12	5
128	130	1
29	38	3
44	45	4
46	46	5
75	82	2
44	67	4
72	72	5
144	146	7
16	25	2
94	97	1
49	55	3
18	21	4
78	78	7
25	37	3
120	129	1
78	79	3
4	4	8
76	79	4
74	77	1
34	37	1
12	146	4
54	54	7
41	42	3
7	7	4
102	102	4
126	126	7
119	130	2
83	87	1
128	128	14
50	99	3
38	42	2
35	35	7
8	8	7
36	132	1
87	87	2
50	50	3
20	21	5
113	113	7
92	95	2
80	121	3
68	69	3
63	65	1
86	86	2
130	134	1
121	122	3
149	150	2
119	134	1
63	63	3
100	100	9
57	57	5
47	48	3
81	84	3
40	43	1
49	53	1
95	102	2
124	141	1
28	29	1
21	21	5
5	5	1
93	93	2
43	46	4
115	119	1
89	90	3
123	127	1
51	51	2
86	95	1
120	120	6
32	34	3
151	151	5
107	110	2
21	23	1
82	82	3
14	30	2
16	39	1
127	127	2
99	114	1
96	96	2
52	53	2
95	95	5
69	78	1
103	115	2
31	36	2
85	85	6
64	102	2
113	114	1
69	79	2
125	127	5
25	25	3
63	64	2
76	78	1
139	143	1
24	25	1
73	88	1
137	137	3
22	23	4
123	143	3
110	112	1
103	133	1
99	102	2
3	20	1
125	129	1
30	40	2
54	56	1
38	39	4
107	108	2
134	134	2
87	101	1
130	133	2
64	101	2
12	13	4
105	106	2
139	139	2
109	109	5
73	74	2
53	54	1
105	109	1
74	75	3
77	80	1
97	121	1
108	136	1
90	91	1
144	145	1
92	96	2
16	38	1
13	23	1
73	77	1
83	83	3
104	104	5
121	125	4
61	62	1
106	109	2
144	144	3
13	25	1
152	153	2
145	147	3
17	36	2
35	36	1
8	92	1
4	12	2
136	136	3
50	56	1
145	146	2
139	141	2
28	28	2
107	111	3
30	39	1
76	93	1
57	96	1
100	104	2
113	134	2
9	9	3
76	76	2
126	127	1
65	66	2
118	135	1
104	113	1
50	51	2
109	110	1
26	28	2
94	104	1
48	50	1
32	36	2
54	72	2
76	85	2
79	80	1
123	123	2
111	111	1
112	112	2
3	6	1
50	52	1
15	25	2
98	99	1
139	140	1
32	33	1
123	129	1
103	104	1
140	140	1
14	96	1
110	111	1
100	102	1
69	70	1
11	14	1
65	103	2
117	118	1
11	90	1
122	128	1
76	95	1
128	133	1
109	137	1
114	116	1
3	4	1
40	41	1
94	94	1
101	114	1
5	7	1
62	64	1
137	138	1
98	98	1
11	91	1
148	148	1
152	154	1
