57	58	10
21	22	8
119	128	4
78	113	1
30	31	1
91	98	1
149	150	6
97	97	3
17	18	3
154	154	6
92	139	5
84	85	1
98	98	2
26	28	5
38	38	9
106	107	9
140	140	4
17	17	6
40	40	3
89	138	2
72	78	1
137	138	2
150	150	13
43	43	17
150	152	1
100	122	2
48	50	2
119	119	7
126	146	1
4	15	4
38	122	4
105	108	3
18	24	2
10	10	5
20	23	2
105	107	3
47	47	12
79	83	5
66	67	4
24	25	2
88	93	2
78	78	5
43	44	9
32	33	8
46	47	1
16	16	5
95	127	1
99	103	5
147	147	2
67	67	8
18	18	3
16	17	3
42	43	8
71	72	1
119	122	1
95	96	5
8	21	4
83	88	2
52	52	1
56	62	3
57	66	4
33	33	2
70	70	6
96	135	3
144	144	7
72	73	2
26	26	2
93	147	2
90	92	3
17	20	2
77	78	2
4	4	7
94	97	6
87	92	2
27	28	4
99	148	1
103	103	3
111	111	8
96	96	1
110	110	3
65	66	2
104	107	1
95	97	4
127	127	2
31	31	3
56	64	4
83	87	4
39	39	4
20	20	4
3	3	2
21	21	7
32	34	2
74	74	3
142	143	6
102	106	1
37	37	3
51	51	1
48	49	4
22	22	5
104	104	7
27	27	10
109	111	2
80	80	5
85	85	4
111	112	4
2	4	2
18	19	2
149	149	4
118	119	3
71	77	3
68	68	7
46	46	10
140	141	1
136	136	10
90	138	3
114	114	3
84	125	2
94	94	2
64	65	1
97	137	4
123	126	2
56	56	7
25	25	3
49	50	2
116	116	3
79	113	2
112	112	3
146	151	4
54	56	1
5	5	3
100	112	2
76	102	1
10	12	2
5	6	5
109	109	6
19	19	6
31	32	8
3	4	3
147	148	2
126	127	3
64	64	1
78	81	1
76	76	1
96	140	1
116	117	2
77	102	1
132	133	2
106	106	6
118	118	7
5	10	1
123	125	2
40	49	2
63	63	4
125	144	5
30	30	3
92	92	3
125	148	1
145	146	3
4	36	1
138	138	2
29	32	2
54	54	3
146	147	1
36	36	4
97	98	3
98	127	1
57	74	1
9	9	6
51	64	1
87	95	1
103	113	1
125	127	6
73	73	6
65	85	1
35	121	2
132	135	2
56	63	3
6	17	1
140	144	4
20	21	5
128	128	3
12	15	2
41	42	2
14	29	1
15	15	5
45	46	1
122	122	2
91	93	3
13	15	4
103	115	4
84	84	1
133	152	2
153	153	1
19	20	4
62	72	2
123	124	2
134	134	2
57	57	3
38	141	7
12	12	2
38	50	4
128	148	3
136	139	2
146	150	2
42	42	2
81	84	1
139	140	2
74	76	2
87	90	2
9	11	1
143	145	1
24	24	4
148	148	5
133	134	5
32	32	2
71	121	4
45	45	2
93	93	4
128	130	2
85	100	2
11	11	1
109	115	2
123	142	3
22	24	4
50	50	7
120	122	1
108	112	4
41	41	1
97	99	1
28	28	1
6	6	4
124	124	2
40	42	2
54	55	1
8	10	1
119	130	3
75	75	2
100	100	2
141	142	3
101	101	3
39	40	2
131	133	3
131	151	1
102	111	3
16	27	4
53	54	1
78	84	1
19	25	2
53	53	2
98	129	3
107	108	1
66	73	1
101	111	2
121	121	1
116	118	2
115	116	3
102	102	1
79	79	3
125	126	1
108	109	1
35	131	2
49	49	4
83	112	1
12	23	1
74	107	2
51	73	2
74	100	1
10	16	2
69	70	2
94	136	1
113	114	2
32	99	2
29	29	4
25	27	1
70	71	1
26	29	1
56	57	3
79	80	1
49	71	1
78	111	1
109	110	1
75	87	1
137	137	1
81	81	1
87	87	1
129	129	1
88	92	1
13	13	1
105	125	1
131	142	1
96	97	2
93	94	2
90	126	2
107	109	1
7	17	1
63	73	1
37	144	1
8	9	1
117	117	1
86	86	1
48	52	1
77	111	1
100	105	1
115	118	1
69	71	1
151	151	1
77	122	2
106	115	2
126	126	2
18	20	1
102	103	2
76	78	1
146	146	1
21	23	1
115	115	1
23	23	1
19	28	1
79	112	1
145	147	1
71	71	1
113	113	1
7	31	1
82	85	1
103	105	1
103	104	1
92	94	2
94	98	1
48	48	1
6	20	1
34	35	1
64	72	2
130	132	2
148	149	1
75	82	1
13	29	1
75	76	1
111	114	1
38	42	1
