30	37	3
38	38	9
94	94	12
101	101	13
53	71	1
32	40	2
5	6	8
102	111	6
139	151	1
21	21	7
37	38	1
83	84	4
28	28	8
147	147	14
128	128	7
92	92	5
22	43	2
25	25	14
65	65	9
31	31	19
90	91	4
127	145	6
4	4	6
54	54	7
80	80	8
90	90	4
1	2	2
25	36	1
127	130	3
100	100	5
7	7	13
126	126	11
50	50	8
79	79	13
86	86	16
67	69	2
80	133	2
157	157	7
115	115	6
149	149	7
67	67	8
72	72	8
36	36	9
150	157	5
130	130	7
27	30	3
144	144	7
73	73	17
17	20	5
77	77	4
4	31	6
6	6	11
104	115	4
140	140	4
139	147	1
3	3	4
122	147	1
153	153	7
49	58	2
76	76	1
80	81	1
11	12	4
145	147	5
0	0	18
24	24	6
70	70	4
9	95	4
117	117	4
29	45	2
82	82	16
83	134	2
39	48	2
17	17	9
114	115	4
150	153	1
106	106	13
120	120	14
47	47	12
75	75	8
16	50	3
31	32	5
114	114	10
135	135	10
103	103	6
71	81	1
8	8	6
42	135	4
146	146	4
118	118	6
119	119	9
144	145	4
80	82	3
83	83	1
110	110	7
11	11	7
67	68	3
22	36	1
108	108	4
12	23	4
13	48	3
19	19	6
134	135	1
13	14	6
155	157	1
21	42	3
45	48	3
134	152	2
132	141	2
112	112	5
149	157	4
134	134	8
48	48	2
125	142	4
30	30	5
104	105	5
136	142	1
125	125	7
3	4	2
29	30	7
44	44	11
24	25	3
87	87	5
63	63	5
1	4	3
55	81	3
121	122	1
78	151	2
85	85	10
80	85	4
22	23	3
69	69	4
8	9	1
104	104	3
121	121	6
42	42	7
96	103	1
5	5	10
73	114	3
93	95	2
43	43	6
114	116	3
151	151	2
22	22	5
41	41	8
110	124	4
21	38	1
154	154	7
37	42	3
79	80	3
47	48	7
146	147	3
128	129	5
158	158	2
77	138	3
112	113	5
99	99	2
127	127	1
111	111	6
105	105	1
107	108	4
45	47	2
46	75	1
73	158	4
129	129	6
7	29	2
154	155	5
33	33	6
13	32	2
84	84	2
81	81	2
137	137	11
87	151	2
130	143	2
62	64	2
141	141	3
68	68	7
134	138	1
62	62	3
27	28	1
88	88	6
145	157	3
19	20	3
109	120	3
135	136	9
128	130	3
85	120	1
17	18	3
64	64	6
138	138	8
142	142	3
85	131	2
2	2	11
28	29	2
109	112	3
93	93	2
34	34	5
145	156	4
83	92	2
14	15	10
37	39	4
71	71	3
85	152	2
56	71	1
46	47	4
23	24	4
29	29	10
43	44	1
103	105	1
86	93	1
131	151	2
123	124	3
45	45	6
121	140	1
4	35	1
40	64	2
107	113	9
154	156	1
105	117	2
10	63	3
88	111	5
15	15	6
40	40	3
45	46	2
39	39	4
51	52	1
130	131	3
56	63	1
16	17	2
124	132	1
78	78	1
44	56	3
57	57	4
124	124	6
131	131	11
45	51	2
146	153	2
15	24	1
10	10	2
83	86	3
141	152	1
148	157	1
95	96	6
46	50	4
119	152	3
131	133	2
95	95	5
155	155	5
142	145	2
30	31	2
16	16	3
87	90	1
12	24	1
26	27	4
13	13	3
73	107	1
26	33	3
86	130	4
14	14	2
16	49	1
82	87	1
52	52	4
146	154	1
15	38	1
145	145	1
16	21	2
20	47	2
18	42	1
108	138	2
18	19	1
100	101	4
9	10	3
138	139	1
56	56	4
97	97	5
156	156	3
89	89	4
27	36	1
102	102	5
18	18	5
28	32	2
68	70	2
122	122	5
123	123	3
139	139	2
69	70	2
68	71	3
113	113	5
30	32	1
25	31	3
155	156	1
101	102	1
7	8	3
98	98	3
136	136	3
113	114	1
62	63	2
120	144	1
123	135	2
1	1	2
91	91	2
66	66	3
29	55	1
53	53	5
90	121	3
22	48	2
52	54	3
38	39	3
40	77	2
33	35	2
98	99	1
12	12	1
27	27	2
87	93	1
77	78	1
46	52	2
32	32	6
98	105	3
135	137	1
129	142	1
9	9	1
4	5	1
35	35	1
121	149	1
107	107	4
148	148	2
105	106	1
56	65	1
96	119	1
37	37	3
122	140	1
32	33	3
124	142	1
152	153	2
140	144	1
28	45	1
18	29	3
48	49	1
80	123	1
122	130	1
20	20	3
38	81	2
129	130	2
7	12	1
105	127	1
108	112	1
124	149	1
152	156	1
54	55	2
133	133	2
71	77	1
25	38	3
131	154	3
67	137	1
132	134	1
95	102	1
110	137	1
112	137	1
14	48	1
16	38	1
107	110	1
93	102	1
27	82	3
67	71	1
108	111	1
25	26	3
96	96	1
143	143	2
96	105	1
46	46	2
156	158	1
22	25	1
83	85	1
7	80	1
152	152	2
28	41	1
119	120	1
137	138	1
40	41	1
67	70	1
150	150	1
80	83	1
121	156	1
136	138	1
