138	138	2
121	127	3
93	93	10
35	35	7
87	87	6
52	52	9
143	143	8
119	119	3
106	161	1
153	154	6
121	122	4
46	51	4
22	22	4
167	167	1
5	6	1
110	111	5
38	38	9
159	159	5
80	80	8
12	43	1
67	71	1
155	155	7
52	88	2
114	116	1
13	13	5
12	12	4
160	160	3
16	21	4
149	149	3
90	91	6
90	90	13
8	8	3
70	120	1
164	164	4
51	51	4
78	78	4
21	22	2
18	22	7
146	146	4
10	16	2
115	130	2
45	45	4
44	47	3
161	161	1
83	83	16
132	132	2
143	144	2
55	55	3
134	134	8
144	144	1
146	147	2
116	129	1
46	46	4
106	107	4
126	126	3
168	168	4
105	106	2
2	2	3
2	90	1
70	77	5
89	92	2
152	152	6
128	128	2
0	1	3
131	131	5
108	108	7
93	94	1
124	128	2
24	24	2
7	7	2
14	14	3
48	48	5
23	23	2
116	122	4
56	56	2
127	127	5
99	99	4
135	136	2
107	107	5
48	90	2
166	166	7
16	17	2
15	15	9
25	131	2
57	62	3
114	156	1
44	90	3
156	156	3
37	37	3
84	85	2
28	28	2
56	57	5
110	110	2
64	64	2
89	89	3
82	86	1
98	98	7
11	15	6
65	68	2
167	168	2
47	52	2
9	18	2
72	116	5
74	74	6
69	70	2
148	149	2
147	147	2
44	45	2
100	100	2
113	113	3
37	38	4
18	19	3
112	114	2
70	123	2
63	72	1
10	10	4
5	170	1
163	163	6
168	169	2
153	153	4
4	4	3
142	143	3
67	67	1
113	114	2
72	72	2
47	47	6
17	17	4
46	50	3
42	42	3
123	155	1
68	68	1
84	84	1
127	158	1
70	70	5
82	83	2
54	54	4
38	39	2
126	157	2
116	116	8
76	85	3
39	39	2
25	25	2
97	97	2
150	151	2
0	136	2
44	44	4
39	40	2
5	54	3
145	157	2
70	78	1
90	92	1
19	19	2
62	62	4
106	111	2
6	15	1
44	168	1
16	16	3
148	148	5
111	111	3
9	9	2
43	64	1
97	99	1
120	121	2
66	76	2
108	119	2
159	160	1
101	102	3
75	75	4
20	20	3
109	110	2
14	17	2
83	150	1
139	140	1
43	43	5
82	150	2
2	111	2
114	114	4
39	41	1
22	163	1
105	105	2
140	155	1
129	134	2
97	118	2
100	157	2
117	117	6
76	148	3
88	89	2
145	145	4
73	73	1
50	50	2
96	96	1
124	125	2
18	18	1
95	95	8
137	138	1
6	6	2
34	36	1
118	118	3
36	36	1
11	11	1
122	122	6
92	111	1
64	72	3
130	130	1
3	3	5
76	76	3
53	54	2
66	67	2
133	133	2
120	122	2
99	100	2
163	164	1
76	77	1
101	101	1
96	99	2
3	87	2
114	132	2
69	106	1
4	169	3
81	81	2
131	161	2
115	132	1
85	85	3
100	154	1
134	135	1
129	129	1
5	5	4
82	82	2
20	101	3
121	121	1
63	63	2
33	42	2
149	153	1
57	57	3
154	154	1
116	144	2
8	93	1
71	72	1
27	66	2
104	104	1
7	8	2
157	157	4
88	91	2
169	170	2
65	72	2
17	18	1
95	96	4
100	101	1
38	63	2
98	99	2
53	53	1
35	36	1
35	37	1
92	92	4
155	156	1
168	170	1
139	139	2
165	165	1
13	14	1
13	18	1
24	68	1
150	150	1
24	100	1
14	15	1
74	75	1
20	21	2
127	147	1
123	124	1
3	15	3
66	66	2
102	102	1
69	69	2
124	124	2
4	25	1
162	162	2
151	151	4
0	0	1
71	71	1
91	91	1
72	119	1
96	97	1
73	107	1
104	105	1
66	68	1
88	88	2
40	40	1
23	164	1
100	116	1
49	49	2
105	152	1
170	170	1
100	153	1
69	114	1
108	109	1
48	56	1
27	159	1
14	62	1
27	27	1
91	99	1
