145	146	4
23	23	10
168	168	17
19	19	14
69	69	3
71	71	8
88	105	3
153	154	4
111	111	8
18	18	11
121	148	4
76	76	4
27	27	6
149	149	9
7	7	4
91	91	5
33	33	2
73	74	1
151	151	10
79	79	4
9	142	2
8	8	3
55	55	6
48	48	4
96	96	12
53	55	3
145	145	4
45	45	8
23	151	3
37	37	15
52	75	2
133	134	7
36	36	8
58	91	1
166	166	6
99	99	1
148	148	3
146	146	9
13	13	8
90	100	2
41	41	7
122	124	1
1	1	18
45	46	6
113	113	7
159	160	4
130	130	1
164	165	1
77	77	9
48	50	4
113	114	8
137	137	3
34	35	6
68	131	3
21	21	7
130	131	1
1	2	4
158	158	8
5	5	5
94	94	10
116	119	2
141	141	11
54	56	2
3	3	15
0	1	1
90	90	5
35	35	5
46	46	6
85	169	3
103	103	3
1	43	1
106	106	5
105	106	6
92	92	6
51	51	4
94	95	3
26	27	2
6	6	6
4	4	8
69	76	1
89	89	16
53	158	3
44	45	1
58	89	2
167	167	7
26	35	1
18	20	2
157	157	2
57	64	3
49	49	5
66	84	3
11	11	10
85	86	1
128	128	8
13	15	2
38	38	5
131	131	2
22	22	7
150	150	3
35	36	1
109	111	6
62	63	2
134	134	3
165	165	5
121	121	1
121	122	3
77	78	5
55	56	4
2	2	7
110	110	9
47	47	11
108	134	1
39	46	2
72	72	11
41	108	1
162	162	3
24	25	4
80	111	1
144	144	5
122	122	1
118	118	2
116	117	2
23	51	1
97	99	2
153	161	2
44	44	1
24	87	7
143	143	4
40	40	5
9	9	13
38	39	4
101	102	4
11	12	4
94	160	3
62	66	2
81	81	5
124	124	6
166	167	2
161	161	7
15	15	12
22	45	5
105	116	3
16	16	7
136	137	1
41	107	1
64	64	1
126	130	6
96	97	2
122	150	4
141	142	4
169	169	3
21	22	7
87	87	5
10	10	4
102	103	1
42	43	3
80	81	6
94	97	2
137	142	4
53	119	2
154	154	5
20	22	2
16	38	4
119	150	1
107	107	7
57	57	4
24	24	1
119	148	1
38	56	1
138	138	3
114	116	1
15	44	3
125	125	1
123	123	2
33	34	1
170	170	5
86	86	4
8	46	1
164	164	4
52	52	6
20	24	2
62	99	3
157	158	3
120	120	9
147	147	7
148	149	1
24	27	1
123	151	1
152	152	5
12	12	3
69	70	1
83	124	3
156	157	2
104	104	6
15	23	1
162	164	6
137	138	3
102	102	1
4	33	1
93	93	3
8	10	3
39	40	2
4	5	2
114	114	2
27	133	5
154	155	2
97	114	1
40	41	3
38	50	2
70	70	4
50	51	1
56	86	1
88	89	4
14	15	2
101	103	2
56	57	1
105	105	4
50	50	4
108	108	2
109	109	4
88	88	1
43	43	4
7	8	1
36	47	1
88	103	2
156	156	2
97	97	3
134	135	2
38	62	1
126	126	3
84	160	2
133	133	4
20	20	3
147	148	3
65	66	1
26	26	1
147	151	1
117	118	2
27	28	1
34	34	3
23	90	1
106	107	3
121	124	1
115	115	2
73	73	1
160	161	2
121	125	1
112	112	3
69	71	2
103	104	2
116	116	2
118	146	2
107	109	2
125	128	1
97	98	1
155	155	2
122	123	3
0	0	2
39	39	1
98	99	1
67	67	2
43	44	2
14	16	2
101	101	1
17	42	1
136	139	1
80	80	1
41	53	1
42	42	3
113	121	1
84	84	2
40	46	2
154	161	1
75	76	1
55	57	1
51	53	2
1	21	1
53	107	2
53	53	1
165	166	1
114	158	1
143	144	2
16	17	1
140	140	3
146	149	1
25	25	1
3	43	1
11	13	1
82	98	1
17	22	1
82	83	1
87	88	1
119	119	1
113	116	2
16	42	1
118	154	1
67	107	1
160	160	3
119	120	1
79	99	1
56	56	2
86	87	2
145	154	1
85	85	1
94	98	1
6	7	1
117	117	1
63	63	1
95	95	1
66	66	1
135	135	1
74	74	1
14	14	1
11	55	1
45	47	1
13	20	1
18	48	1
84	148	1
156	168	1
71	126	1
58	64	1
74	75	1
88	100	1
