115	115	9
118	118	12
65	65	49
85	85	25
16	47	2
37	39	4
27	27	24
28	29	3
71	71	8
129	129	19
122	122	8
25	25	20
73	73	26
90	91	4
130	130	16
29	29	21
22	22	2
86	86	25
101	101	39
93	100	3
27	80	10
11	12	3
63	63	51
112	112	9
17	17	24
35	36	13
45	46	4
82	82	14
26	26	38
69	74	1
110	110	21
64	64	43
15	17	3
4	4	6
58	58	8
63	64	24
43	43	14
88	88	9
26	27	21
74	74	20
17	18	6
97	99	3
83	83	31
123	124	5
16	16	15
11	11	39
12	12	32
87	88	6
66	66	44
129	130	7
57	57	9
108	109	4
46	46	26
131	132	7
28	96	8
14	20	4
75	75	29
87	87	10
35	35	49
93	93	34
92	93	12
84	84	4
31	78	2
105	106	8
72	72	36
45	62	6
97	97	11
132	133	5
66	67	6
79	81	5
68	68	36
34	35	12
48	48	22
119	122	5
3	3	24
61	61	20
14	16	6
125	125	17
45	45	24
1	1	17
105	105	7
23	23	4
62	62	37
56	92	4
59	59	24
119	119	13
69	73	1
104	104	12
126	126	16
60	60	14
101	102	3
33	33	17
122	130	3
78	78	22
84	85	8
63	67	3
95	96	11
82	84	3
66	76	2
94	94	19
47	47	61
62	64	2
121	121	4
108	108	14
102	102	14
82	83	13
30	49	3
5	6	2
4	6	3
114	114	19
46	47	10
64	65	1
9	9	36
19	19	15
75	76	13
104	107	4
123	123	14
63	95	7
34	34	26
111	111	24
76	77	15
95	95	15
28	28	19
16	18	3
109	110	6
91	93	6
109	125	4
80	82	8
15	15	12
73	74	17
5	7	1
77	77	25
90	90	10
36	36	8
15	21	6
15	20	5
26	28	3
5	5	5
9	82	3
120	120	12
2	2	8
30	31	11
133	133	15
25	26	6
42	44	1
2	29	3
124	124	25
55	55	7
76	78	1
98	98	12
39	39	6
88	98	1
21	21	12
79	79	14
37	41	4
31	31	9
100	102	2
8	8	24
78	79	5
80	80	16
107	107	14
5	24	4
49	49	2
132	132	16
94	95	8
134	134	7
103	125	6
81	81	10
83	111	3
96	96	3
116	116	21
90	92	4
24	25	11
6	7	4
12	13	7
119	123	1
70	71	9
110	111	4
69	69	15
117	117	11
27	92	1
79	80	7
26	93	1
6	25	2
25	27	3
102	105	2
13	14	6
27	115	4
93	94	9
38	39	3
25	47	6
29	30	2
109	109	17
56	57	4
67	68	12
49	91	1
39	45	1
94	96	4
7	7	13
20	25	4
39	41	4
58	59	5
37	37	5
92	92	8
16	17	3
38	38	4
30	48	8
67	71	6
41	78	2
79	100	1
39	78	3
30	32	9
19	36	1
4	5	5
19	20	3
32	33	4
42	42	9
76	76	27
118	119	3
24	82	4
113	113	18
11	26	5
83	100	6
30	30	32
106	106	10
59	60	4
13	13	9
100	124	8
42	43	2
108	113	3
63	76	3
98	99	5
29	49	2
41	87	1
7	11	1
10	10	18
40	40	3
98	100	9
116	117	2
97	98	4
99	99	7
23	24	8
78	117	2
78	81	4
84	94	1
120	133	3
24	24	6
61	62	5
67	67	13
87	89	3
131	131	3
40	41	4
77	78	15
29	47	1
100	114	1
109	113	1
56	95	3
4	7	6
70	70	12
100	101	6
98	115	2
94	98	5
3	4	4
1	2	4
104	110	4
6	11	1
8	75	1
47	48	4
85	86	8
18	18	10
71	74	3
36	42	2
27	47	2
5	13	5
43	79	1
7	65	2
56	56	4
64	67	2
128	128	11
88	96	2
68	69	2
71	72	6
72	73	4
91	127	2
113	117	2
117	118	1
62	74	3
128	130	6
0	0	9
7	12	2
20	37	3
100	100	7
96	97	3
39	44	2
62	63	3
64	87	4
102	104	1
27	79	4
13	108	9
44	44	2
91	94	2
26	47	2
85	88	2
11	93	4
91	92	2
79	82	1
107	108	4
32	32	12
106	107	5
60	81	1
46	62	2
80	81	2
6	6	8
38	40	5
25	78	1
75	77	3
122	131	2
110	112	1
77	80	1
97	117	1
17	21	2
71	73	2
75	99	6
130	131	4
47	63	1
62	96	2
79	84	2
114	115	3
8	25	1
28	33	3
54	55	3
66	94	5
6	13	4
113	116	3
36	41	2
10	11	2
34	74	1
98	118	2
102	125	1
88	89	2
38	42	7
69	100	3
31	32	7
63	78	2
3	6	1
127	127	6
27	78	3
99	100	3
41	41	3
75	85	2
27	33	2
14	14	8
58	60	2
65	66	9
21	41	2
28	95	2
27	77	3
28	91	2
46	76	4
55	98	1
45	64	2
73	75	3
98	116	4
9	10	2
91	91	3
81	84	4
64	66	4
86	87	5
7	45	1
22	30	2
41	43	2
83	84	5
55	56	3
29	31	7
127	128	6
46	66	1
60	71	2
2	3	6
109	112	2
103	103	4
113	115	1
48	50	2
94	99	3
74	75	4
90	95	1
9	11	6
46	81	1
62	67	1
3	101	1
48	49	6
19	35	1
8	9	3
20	20	9
118	123	2
33	35	2
45	77	1
79	97	1
121	130	3
110	113	2
5	98	2
25	77	2
44	45	1
26	102	1
111	112	2
94	97	4
126	127	2
112	113	1
63	94	3
4	60	1
113	114	3
2	30	3
39	43	1
45	68	1
48	63	1
15	19	1
20	21	1
69	70	3
32	34	2
15	22	2
61	76	2
14	19	1
36	56	1
60	61	1
63	96	2
69	71	1
66	83	3
82	86	2
17	74	1
30	60	1
89	89	2
23	36	1
96	114	1
40	42	1
41	42	2
102	113	1
28	32	1
36	37	4
11	13	1
14	18	3
14	108	2
78	98	1
55	92	1
131	133	2
10	78	2
28	30	3
36	83	2
39	40	1
81	82	1
78	82	1
4	45	3
120	122	1
11	27	1
9	46	1
127	133	3
104	105	1
56	58	1
18	20	1
103	113	1
22	26	2
21	22	1
8	108	1
121	131	2
19	32	1
95	97	2
74	118	1
59	92	1
118	122	1
95	101	1
25	35	1
77	101	1
48	99	1
92	124	2
22	42	1
38	78	2
25	29	1
55	95	1
133	134	1
7	22	1
42	45	2
5	8	1
0	1	1
111	113	1
19	59	1
49	56	1
114	116	1
62	66	1
88	92	1
93	98	1
29	62	1
58	91	1
122	134	1
