77	77	37
80	80	27
132	132	17
64	64	36
64	65	16
83	83	26
50	50	26
116	117	12
33	69	2
96	96	33
57	58	9
62	63	12
76	76	35
114	114	38
99	100	16
97	97	37
75	75	19
86	86	31
24	24	10
100	106	5
31	32	8
42	43	9
120	120	28
83	86	3
119	120	3
65	65	28
61	61	44
112	112	34
84	84	35
44	44	24
100	100	35
118	119	25
11	16	2
20	21	7
76	78	4
115	116	22
37	37	8
68	68	38
81	82	10
56	56	14
113	113	30
99	99	41
131	133	13
91	91	15
98	120	1
131	131	39
73	73	49
83	100	8
56	60	7
103	103	32
108	135	5
61	99	2
51	52	6
74	74	15
130	130	37
115	115	32
72	73	14
67	67	41
55	55	17
119	121	5
53	53	53
87	111	4
102	102	52
121	121	35
28	29	3
107	112	5
38	38	19
63	63	26
14	15	9
127	129	9
12	12	23
120	121	16
70	70	32
58	58	22
92	92	31
11	12	6
107	110	9
18	18	12
31	31	19
125	125	49
81	81	8
5	5	20
79	80	15
77	78	16
33	33	16
57	57	27
0	3	1
25	25	26
117	117	31
54	54	45
55	64	2
4	4	5
6	14	2
23	25	3
0	135	4
109	109	23
116	116	44
52	53	11
127	127	32
82	82	32
19	19	14
21	21	20
105	105	23
59	59	16
120	123	3
14	14	26
108	112	4
108	110	4
59	62	3
20	20	15
92	93	5
35	36	8
55	56	11
19	42	1
65	66	7
124	125	15
19	38	3
44	45	18
127	131	3
106	107	15
128	128	27
52	52	30
8	8	25
126	129	10
94	107	6
6	7	11
85	85	18
101	102	10
75	103	3
96	100	9
79	79	31
108	113	10
10	14	2
102	103	13
95	95	34
61	110	2
23	23	11
32	32	26
63	98	1
107	108	13
85	107	2
125	128	1
74	127	5
113	114	15
55	57	6
95	96	8
33	35	10
30	30	13
89	90	24
72	72	23
24	26	2
33	65	3
133	134	4
122	123	25
123	123	26
1	2	12
110	110	57
107	109	5
18	37	1
60	61	10
90	98	1
6	6	10
119	119	27
121	122	13
118	118	28
60	60	17
106	106	28
81	134	2
89	126	2
125	129	5
110	111	13
53	67	6
47	73	7
86	88	4
111	112	5
124	124	37
54	114	2
44	65	1
2	2	22
16	16	15
7	9	8
62	65	3
49	49	14
118	130	1
78	105	3
73	103	1
133	133	23
83	84	21
48	50	2
63	70	1
43	43	25
16	17	8
59	60	7
84	107	2
71	71	32
88	88	34
47	47	7
75	78	2
49	50	14
1	133	2
76	80	1
94	94	29
83	85	13
69	114	1
85	87	4
47	51	1
125	126	8
2	4	3
126	127	14
38	43	1
35	35	30
90	90	48
91	92	14
11	11	16
104	104	35
48	52	1
15	17	4
107	107	31
52	54	7
78	79	8
62	64	6
3	5	6
117	118	17
108	108	19
2	3	1
43	45	6
98	98	23
21	37	1
54	64	3
23	43	4
22	23	13
59	112	3
96	97	13
22	44	2
91	120	1
7	7	12
101	101	34
56	58	3
36	36	11
80	81	13
114	115	12
122	122	34
129	129	29
86	107	3
13	13	16
101	105	1
88	120	2
84	85	38
36	37	7
22	22	16
16	22	3
106	110	7
90	91	6
17	18	11
105	106	14
24	25	4
87	87	30
34	35	7
127	128	15
28	28	23
63	64	8
100	120	3
112	117	2
0	0	10
57	127	2
62	62	16
91	113	1
115	117	10
55	82	10
125	130	7
56	80	1
112	113	26
87	110	2
122	124	5
106	108	9
69	69	16
45	51	4
98	100	3
134	135	6
135	135	5
21	24	2
111	111	26
64	68	3
93	94	10
78	78	21
108	109	12
128	129	4
71	72	19
89	89	22
18	22	2
98	101	1
42	45	2
78	106	1
27	27	31
86	87	17
56	57	11
118	124	3
69	78	1
105	108	2
66	131	1
103	104	12
82	85	4
18	21	4
26	26	25
134	134	13
34	34	11
63	65	1
24	37	1
1	1	6
83	117	4
20	22	1
133	135	4
54	56	6
130	133	2
4	5	9
8	9	10
74	90	5
44	50	3
126	126	20
23	24	1
65	69	6
130	131	9
29	29	10
42	42	7
16	21	2
98	106	1
73	74	11
94	95	11
9	9	9
68	69	16
1	124	3
76	79	2
116	119	2
69	70	12
105	112	3
87	123	6
84	87	2
12	29	2
112	114	2
73	78	2
70	71	8
104	105	5
48	49	8
30	33	1
68	122	2
15	15	16
6	8	6
26	28	2
9	11	8
74	81	5
98	99	16
56	119	5
8	10	2
67	68	7
50	52	6
64	70	2
121	124	3
17	17	14
108	114	2
58	59	6
16	30	2
48	73	4
113	118	1
131	132	10
107	111	6
88	119	1
121	126	2
105	115	3
47	48	2
64	66	7
97	98	6
7	11	1
69	71	2
93	93	19
72	74	3
10	12	2
57	59	2
82	106	5
129	130	6
30	31	5
66	66	23
3	3	17
61	62	15
92	95	1
52	117	3
10	11	10
25	26	2
109	113	2
42	44	3
75	76	6
100	101	7
13	25	3
119	123	4
86	122	7
45	53	1
68	99	1
71	102	1
85	122	3
111	113	5
60	68	6
109	110	9
1	3	3
130	132	4
50	103	2
104	118	2
97	99	4
2	15	2
9	10	5
26	27	2
83	116	4
88	89	2
77	79	4
80	82	2
79	106	6
36	44	2
118	123	6
123	124	5
106	113	8
29	30	4
109	111	6
3	4	6
10	10	8
91	93	4
70	72	1
116	129	1
127	130	1
50	53	1
19	20	8
69	74	4
48	65	4
5	6	4
44	52	3
17	19	5
120	126	2
68	70	6
45	48	4
98	103	1
16	18	4
83	110	4
33	34	8
7	13	4
52	114	4
13	14	4
119	124	5
55	58	4
66	67	6
53	119	11
68	116	1
20	24	4
88	93	1
54	118	3
18	26	1
84	112	1
11	14	1
125	131	2
116	118	7
74	101	2
15	23	2
21	23	6
126	128	1
99	101	2
121	123	9
85	99	3
13	15	4
52	113	3
110	113	3
67	70	2
31	34	2
108	118	4
21	26	1
45	45	15
33	45	4
106	112	5
57	130	5
39	39	2
69	103	1
97	123	4
83	87	2
8	84	2
5	7	3
80	84	2
59	61	3
47	56	3
38	52	1
3	14	2
86	101	3
86	118	4
61	68	1
61	65	4
115	123	1
100	110	1
65	68	3
107	113	2
74	75	1
107	115	2
91	97	1
105	113	1
46	47	7
61	75	2
37	43	2
81	127	1
82	108	2
97	101	1
5	43	1
62	75	3
97	119	3
45	66	3
8	16	2
89	91	2
84	100	2
82	83	10
0	1	4
76	77	5
102	104	3
70	75	2
45	47	1
8	12	1
21	22	8
107	117	1
0	2	3
12	85	3
111	118	1
52	55	1
100	107	1
71	78	2
77	103	1
99	120	1
38	55	2
64	67	1
7	8	5
4	6	4
52	62	2
22	26	1
19	21	1
69	101	1
132	133	7
10	117	1
30	32	3
91	95	1
66	68	2
116	127	2
10	15	1
16	19	3
71	73	2
65	67	3
12	13	6
79	105	2
107	116	6
43	48	2
54	92	3
58	60	4
104	114	2
55	66	3
55	59	2
128	133	1
119	122	2
22	24	6
1	134	2
11	15	1
74	78	1
113	117	4
47	103	1
16	26	3
6	9	5
23	26	2
50	68	1
64	116	1
109	112	2
49	62	2
86	117	1
42	77	1
6	11	2
113	115	2
84	117	5
78	81	3
106	117	3
49	79	2
61	69	2
15	19	1
12	15	2
105	135	1
69	86	1
27	28	5
120	122	1
83	106	2
79	81	1
54	55	5
77	80	4
64	69	3
53	64	1
53	54	1
61	81	1
94	99	2
11	13	2
79	82	2
129	132	3
85	86	2
45	46	5
46	46	1
114	123	1
60	67	3
92	112	2
101	121	1
100	111	2
100	115	3
8	115	1
47	49	4
67	110	2
97	105	2
31	73	1
121	129	1
43	44	1
59	82	2
9	20	1
6	10	1
87	88	4
48	48	6
97	104	1
59	86	1
85	119	2
70	125	2
87	119	4
18	19	3
45	81	2
3	6	2
71	92	1
132	134	1
83	99	3
45	64	2
86	123	1
105	109	1
101	114	1
65	91	1
45	50	1
84	122	1
98	126	1
47	70	1
125	132	1
58	77	1
70	80	2
109	114	1
79	109	1
94	96	3
90	112	2
35	43	1
15	30	2
77	93	2
83	112	2
27	29	2
108	117	1
102	121	2
79	108	2
90	92	2
46	48	1
18	23	2
93	99	1
4	13	1
84	98	1
87	118	1
80	88	2
45	55	1
89	106	1
53	66	1
96	119	1
15	97	1
70	73	1
28	102	1
48	71	1
118	122	2
61	70	1
110	119	2
18	24	1
84	114	1
81	135	1
29	34	1
110	117	1
85	108	1
90	120	1
114	117	2
63	77	1
14	35	1
111	119	3
15	16	1
37	38	2
107	118	1
44	46	2
7	10	2
114	118	1
91	96	1
81	83	1
47	54	1
116	124	1
126	131	1
54	79	1
53	59	2
114	126	2
0	4	2
29	72	1
57	87	1
80	98	1
44	54	1
125	133	1
49	51	1
9	17	1
101	111	1
53	117	1
67	69	1
62	69	1
95	97	1
54	81	1
72	104	1
91	102	1
17	23	1
70	92	1
