7	7	15
22	22	6
73	73	12
117	117	7
3	4	8
58	59	8
83	83	4
126	126	12
113	113	12
75	75	12
124	124	15
27	27	13
122	122	16
94	94	15
77	77	8
44	130	1
49	49	10
29	30	6
59	59	20
80	92	1
77	78	9
63	63	12
57	57	4
110	110	18
24	24	8
48	48	22
26	133	3
121	121	8
30	30	18
34	34	5
63	94	2
44	45	7
100	120	2
36	36	8
119	119	21
71	71	16
91	120	2
73	74	10
54	54	18
76	76	13
96	96	19
62	62	12
108	109	16
99	134	3
105	105	31
129	129	22
68	69	17
77	79	1
82	82	13
128	133	2
132	132	10
45	45	14
82	102	4
22	27	3
120	134	3
72	72	16
125	125	18
90	90	6
21	23	3
26	26	10
115	115	11
89	89	7
102	102	9
61	61	8
35	50	2
22	23	6
79	82	7
101	102	10
64	64	18
65	65	6
103	103	16
15	15	16
98	98	14
90	97	1
23	23	13
130	130	13
21	22	1
8	8	11
108	108	9
29	29	15
109	110	4
119	125	4
131	131	8
25	25	12
88	88	7
11	11	9
99	99	10
70	71	11
79	98	2
72	74	3
128	128	23
53	53	14
93	94	6
35	35	9
127	127	17
12	12	3
133	134	5
82	83	4
107	107	9
95	95	12
53	54	4
36	50	4
19	19	4
112	112	16
4	6	2
100	128	1
70	70	26
121	122	1
114	116	8
71	106	3
3	3	10
111	112	4
93	93	14
69	69	11
74	74	16
103	104	3
122	123	4
97	97	3
33	34	6
106	130	4
101	105	1
31	31	7
81	81	9
52	53	4
66	82	1
131	132	6
88	91	4
32	32	7
84	84	5
105	106	2
106	111	1
108	122	3
101	101	8
131	133	1
80	80	6
52	60	1
1	1	7
134	134	5
67	67	3
112	124	1
20	20	3
122	124	1
87	87	24
114	114	13
18	24	2
63	64	2
24	25	9
79	85	1
99	133	4
60	118	5
85	85	8
61	92	2
132	133	7
116	133	2
112	113	3
91	92	5
75	76	3
123	124	7
115	126	4
32	34	2
11	21	2
109	109	6
100	101	8
127	128	9
110	123	1
116	129	3
9	10	4
69	70	9
14	15	4
18	19	1
116	116	11
43	43	8
114	118	4
79	80	6
37	37	7
47	47	3
78	79	3
101	123	2
92	92	10
121	124	1
106	107	4
86	86	3
60	61	6
68	68	10
9	20	2
5	12	2
65	81	1
106	106	11
6	6	7
133	133	3
55	55	10
120	120	16
36	38	1
7	76	1
94	96	2
62	64	6
16	74	1
121	133	5
79	81	4
16	33	2
113	130	1
88	92	4
114	115	10
111	113	4
98	120	1
107	108	4
0	1	4
111	114	2
130	131	4
14	14	5
89	90	1
53	59	1
50	50	12
10	10	2
28	28	6
68	71	1
85	87	2
111	122	3
124	125	5
5	5	4
83	110	1
44	44	5
78	78	8
126	127	3
53	85	2
123	130	3
43	50	2
79	79	7
7	8	5
54	56	1
60	60	9
0	0	6
80	96	1
104	104	5
115	116	3
33	33	5
11	12	1
123	123	5
89	123	2
19	21	4
10	11	1
111	124	2
65	77	2
84	85	2
45	51	1
106	113	1
71	73	1
91	91	2
31	32	5
113	115	6
81	114	1
32	33	3
111	111	5
87	88	2
107	110	1
73	127	3
13	33	4
18	18	4
98	115	2
56	57	3
11	18	1
95	125	1
81	87	3
73	134	1
60	80	1
30	32	2
13	13	3
96	97	2
93	97	1
69	122	3
30	33	3
98	99	3
46	46	1
16	27	3
62	89	3
35	37	2
15	16	2
13	14	2
124	132	1
99	101	2
135	135	4
22	101	2
123	132	1
120	121	5
119	120	3
107	117	2
95	96	2
62	63	4
115	117	1
58	58	1
79	96	1
45	107	1
113	129	1
27	28	3
63	70	1
16	16	1
28	134	1
21	21	10
79	92	1
91	93	3
47	49	1
100	100	3
125	126	1
2	33	1
7	77	2
9	50	2
37	59	2
4	4	3
42	44	3
12	13	5
102	103	3
5	23	1
127	133	1
129	130	1
6	12	3
27	29	2
128	130	1
2	2	2
55	56	1
105	113	1
106	108	2
43	45	4
56	60	1
79	95	5
117	118	1
28	46	1
81	84	2
31	33	1
99	100	2
117	131	3
27	47	2
110	111	2
91	119	1
97	112	2
7	127	4
35	49	1
117	119	4
28	29	1
6	77	1
10	50	2
123	126	1
29	34	2
9	15	3
88	89	2
65	68	3
75	121	2
65	88	1
65	74	1
81	82	3
119	123	1
15	74	3
35	36	1
115	127	1
104	105	3
64	65	2
99	118	2
49	65	2
67	68	1
20	21	1
25	31	3
36	37	1
17	17	1
128	129	2
65	117	1
6	7	1
80	102	2
44	48	1
106	131	5
91	107	1
107	130	1
26	73	2
52	52	1
93	121	1
13	17	2
124	126	1
134	135	1
107	118	1
43	44	2
106	134	1
116	118	1
81	92	1
83	84	1
109	111	1
79	118	2
88	97	1
84	92	1
1	2	1
9	9	4
118	118	3
42	42	4
86	112	1
94	95	2
74	76	1
105	107	1
88	127	1
65	66	2
71	72	2
82	85	2
58	124	1
10	22	1
48	50	1
15	73	1
130	133	2
14	24	1
87	92	1
4	112	1
80	129	1
66	66	1
123	125	1
49	50	1
55	62	1
8	9	1
65	67	1
101	121	1
15	71	1
14	21	1
101	126	1
105	131	1
123	129	1
