83	84	8
42	42	24
100	100	13
58	58	15
60	60	21
81	81	19
59	59	19
80	81	22
45	47	4
85	85	29
78	78	30
36	36	7
92	92	34
90	91	7
35	35	13
51	51	30
56	56	8
66	66	28
26	79	4
58	86	4
22	23	9
37	37	9
93	95	7
54	54	12
43	43	6
71	72	4
99	100	5
41	41	26
27	28	11
68	68	11
26	26	6
34	35	8
75	75	21
89	89	10
66	70	4
55	55	22
64	64	18
85	86	7
41	42	7
95	95	6
71	71	9
20	22	3
44	44	9
80	80	5
93	93	12
65	65	22
57	57	7
50	51	8
63	67	2
64	65	6
97	97	11
36	38	4
90	90	18
52	52	8
76	77	2
99	99	24
35	36	3
49	49	16
74	74	21
29	30	1
65	67	1
47	47	6
69	69	11
72	72	19
70	70	22
69	78	2
24	47	3
57	87	2
91	91	21
33	33	16
54	60	2
38	38	3
53	53	5
96	96	5
65	66	16
24	26	3
83	83	6
40	40	3
86	87	2
46	46	5
74	75	7
66	67	1
86	88	6
42	43	4
63	63	15
72	73	5
24	25	2
59	86	5
67	74	4
56	62	2
50	50	8
22	22	6
63	64	6
48	48	11
46	93	1
58	59	5
54	55	2
79	79	8
51	52	4
62	63	15
75	76	4
48	90	1
100	101	2
76	76	8
29	29	6
86	95	1
62	62	8
57	99	1
61	61	7
45	45	6
25	54	4
34	34	14
94	94	5
39	39	4
91	92	7
91	93	2
47	48	4
25	25	5
68	78	2
23	23	2
88	88	9
82	83	2
67	68	11
68	69	3
86	89	4
40	41	8
101	101	15
67	67	6
97	98	8
32	46	3
87	88	1
57	67	2
27	80	2
24	24	1
86	86	8
87	95	5
52	53	3
51	67	1
71	74	6
26	27	4
31	31	1
32	35	3
81	87	1
67	69	3
70	71	7
57	58	1
82	82	2
93	98	1
25	27	2
43	44	5
73	73	10
58	60	3
27	54	2
77	77	6
34	68	1
34	102	3
72	74	3
78	82	3
20	20	2
60	61	4
46	47	8
27	29	1
66	78	1
69	70	1
32	33	2
42	53	5
38	39	3
88	92	1
67	71	1
97	100	1
49	50	5
93	94	2
39	40	8
87	87	3
26	28	1
94	95	3
91	101	1
37	38	5
96	97	5
31	48	1
67	78	5
53	54	5
75	77	3
60	62	2
77	78	4
84	84	3
33	34	4
72	75	1
69	73	1
59	66	1
51	57	2
51	60	2
48	51	1
79	80	2
49	52	1
56	57	1
98	98	1
34	51	1
73	75	1
48	71	2
52	89	1
23	24	2
98	99	1
30	30	2
73	74	2
29	36	1
100	102	1
32	32	3
48	49	1
39	48	1
96	99	1
45	80	1
53	56	2
42	52	1
65	75	3
55	101	1
49	67	1
50	68	1
45	48	1
68	71	1
79	84	1
52	96	3
95	101	2
81	83	1
57	86	1
