20	21	3
6	8	2
67	67	8
23	23	8
4	4	4
77	78	1
90	90	3
72	73	9
25	80	1
5	10	13
11	57	2
56	56	3
12	58	4
53	84	8
59	65	7
26	26	1
60	66	4
55	55	6
24	25	5
4	5	3
82	83	1
85	85	9
5	5	2
9	10	5
58	58	6
84	84	5
27	28	1
22	22	12
86	86	4
63	63	3
47	47	10
9	9	9
78	78	2
3	67	4
6	82	2
29	29	2
58	59	3
74	74	19
8	8	3
49	49	13
66	66	3
58	62	3
51	64	6
54	55	2
57	57	6
11	11	9
1	2	2
50	55	3
60	60	1
13	13	1
19	19	8
77	77	4
21	21	3
25	75	5
57	80	9
48	50	2
50	53	3
64	64	15
54	54	6
12	27	2
2	2	5
60	61	4
48	49	7
14	23	2
60	63	2
47	48	2
25	25	12
59	60	4
51	51	8
7	8	1
75	75	10
25	27	7
11	88	3
20	20	6
61	77	2
24	24	5
31	31	5
15	15	6
64	65	8
83	83	7
85	86	2
46	46	5
1	1	8
12	13	3
89	90	2
13	26	1
33	33	3
3	3	7
79	79	3
88	89	2
13	30	3
59	59	4
34	34	2
89	89	8
50	50	5
46	47	2
69	69	4
52	78	1
70	71	2
17	18	3
52	53	1
12	48	5
52	52	6
5	9	5
61	62	2
75	76	5
53	56	2
67	68	1
15	28	3
11	46	1
13	14	1
26	27	1
48	48	5
30	30	5
55	82	3
48	86	5
70	70	2
28	28	3
79	82	3
7	77	3
63	64	2
24	68	1
32	33	3
72	72	6
26	77	3
28	90	2
57	72	2
65	65	2
17	17	9
7	7	8
27	27	5
5	33	2
53	53	2
67	88	1
30	80	3
61	61	2
57	85	2
76	76	2
73	73	2
87	87	2
25	26	1
21	22	2
11	47	2
17	25	1
3	19	1
68	68	3
52	60	2
4	67	1
23	24	1
59	64	1
19	20	4
5	11	4
58	61	1
55	56	2
82	82	4
14	15	1
14	85	1
6	6	1
81	81	2
53	54	1
23	28	1
31	33	1
50	77	1
10	10	2
47	59	1
0	68	1
6	7	2
0	27	2
84	85	1
52	63	2
47	73	2
73	84	1
88	88	1
80	80	1
56	79	1
13	50	1
5	27	1
71	71	2
87	88	1
18	18	2
71	84	1
26	31	1
51	59	1
14	14	1
12	84	1
25	30	1
62	62	1
55	62	1
17	26	1
76	78	1
50	76	1
72	75	1
62	65	1
