20	20	14
3	3	18
33	34	4
72	72	29
54	61	6
131	133	9
104	122	4
31	31	8
50	51	12
101	101	17
12	13	9
54	64	7
126	126	18
119	119	22
82	83	10
106	106	10
8	9	10
80	82	4
82	82	14
27	27	12
118	120	10
108	108	17
136	139	2
122	123	19
66	83	2
134	134	16
128	128	22
22	22	31
144	144	18
131	131	24
41	82	2
39	41	7
6	6	8
112	112	26
48	48	14
140	143	8
81	82	8
32	33	10
9	11	3
61	61	19
124	124	31
40	82	4
85	85	17
139	139	26
36	36	12
144	145	7
135	144	1
11	15	3
94	94	26
96	98	2
95	95	10
40	40	25
98	99	5
55	128	3
13	14	9
26	27	12
112	113	7
37	38	11
54	55	17
41	41	11
16	42	1
80	80	31
65	65	19
139	140	6
11	14	3
41	47	7
98	101	1
108	109	6
36	50	6
136	138	13
100	100	20
141	141	23
73	74	2
104	124	1
47	47	10
77	77	9
118	118	30
61	91	2
10	11	7
60	61	15
56	56	9
66	66	20
132	133	12
42	42	15
30	76	5
85	86	4
33	41	3
146	146	7
145	145	13
51	51	10
137	138	20
114	115	9
1	21	3
110	131	2
29	29	29
23	23	37
69	69	20
30	30	21
83	85	1
33	33	17
74	74	25
89	90	21
97	97	15
15	15	13
69	73	2
64	65	4
39	39	11
136	137	10
19	22	4
127	130	15
73	85	1
62	62	20
84	84	7
122	122	27
91	91	22
131	132	11
109	109	26
90	90	18
59	87	3
93	95	2
25	26	4
130	130	30
120	120	32
107	128	2
107	107	8
135	139	3
127	129	6
133	134	5
81	81	28
23	24	5
26	26	11
76	92	1
19	19	22
114	114	11
113	116	2
83	83	12
102	102	18
114	116	4
63	63	15
133	133	11
142	143	18
88	88	10
38	38	29
140	140	27
138	138	18
57	59	7
34	52	3
10	10	12
59	59	12
91	107	4
94	95	8
118	119	23
6	10	3
37	37	9
97	132	2
97	105	2
13	15	10
109	110	5
99	99	16
141	142	9
14	14	13
137	137	16
127	128	5
22	23	11
53	54	11
69	70	17
99	103	4
28	29	10
56	60	1
136	136	19
16	16	11
49	63	2
61	65	1
106	113	4
18	18	17
97	98	10
125	131	3
9	9	13
94	98	8
105	106	12
28	28	20
87	87	10
118	134	2
37	41	5
111	115	6
107	108	5
34	34	11
96	97	13
51	83	2
8	8	10
55	60	2
93	93	13
111	111	15
14	15	4
132	132	23
104	105	11
17	17	9
77	81	5
60	130	1
56	127	1
99	102	5
24	25	5
92	97	1
35	36	7
129	129	24
11	11	8
17	35	3
67	67	14
0	1	7
104	108	2
97	142	3
84	87	3
108	131	2
109	137	2
52	52	15
79	79	6
89	89	11
105	125	4
96	141	2
70	72	7
138	139	9
92	107	3
13	17	3
64	64	9
143	144	5
119	136	4
13	13	14
110	110	12
54	58	5
121	131	1
65	66	13
0	2	7
127	127	22
55	56	6
117	117	21
41	43	3
57	57	20
53	53	20
99	100	7
64	76	2
49	50	6
38	39	5
88	89	11
77	107	1
2	3	9
63	86	2
76	76	9
135	135	19
5	5	9
125	125	17
140	142	3
128	139	3
54	54	10
80	81	3
1	1	4
28	86	2
84	85	6
56	66	10
49	78	8
123	123	12
59	60	11
27	28	6
106	112	1
119	120	22
31	51	4
23	25	3
67	68	2
36	41	4
35	47	2
19	27	1
115	116	3
133	138	6
134	136	6
82	84	5
71	72	2
134	140	5
95	98	6
79	80	11
18	19	15
94	119	1
112	135	3
104	110	4
94	117	1
70	76	1
86	86	4
67	73	1
143	145	2
116	117	3
116	122	1
4	4	26
130	137	3
143	143	10
21	21	18
121	121	21
75	76	5
60	60	17
92	93	6
5	19	3
103	103	13
104	104	17
128	129	11
90	91	2
113	113	6
96	96	11
33	37	2
6	11	5
32	32	12
88	90	3
110	112	2
49	49	4
72	73	11
10	13	5
31	35	4
119	135	6
142	144	8
122	131	9
117	119	2
59	128	5
0	12	2
39	40	7
56	85	3
18	24	3
24	26	4
95	99	1
125	127	3
102	103	1
136	143	6
50	64	2
68	68	22
116	116	10
4	20	7
79	105	3
71	73	5
75	75	14
135	141	1
57	58	7
14	16	4
79	83	4
70	70	11
134	143	2
43	43	6
58	58	9
117	118	17
25	25	5
102	125	2
26	104	1
142	142	18
40	43	9
34	35	10
56	57	5
123	129	2
130	131	2
15	36	2
73	73	9
136	142	1
24	24	22
8	10	2
84	90	4
102	127	2
123	124	8
98	111	1
70	71	6
32	40	1
58	59	10
96	100	5
77	97	3
145	146	5
18	21	2
90	97	5
53	56	6
2	17	2
22	29	2
5	6	4
70	73	3
63	64	5
48	50	1
15	16	4
103	126	4
88	91	5
104	123	5
76	78	4
33	35	4
108	140	1
105	105	14
76	106	1
40	47	2
6	9	5
102	104	4
43	47	5
80	86	7
100	101	10
131	140	1
20	27	2
98	98	5
34	50	10
121	122	1
2	2	9
38	41	3
6	32	4
129	130	3
20	25	2
92	92	8
14	42	3
90	95	1
67	127	10
47	140	2
55	65	6
20	21	6
66	86	6
115	115	4
5	31	3
78	78	5
96	108	1
39	83	1
107	131	3
64	66	2
70	87	4
80	103	5
118	135	1
25	32	2
47	48	2
105	131	3
128	130	6
27	102	6
67	75	5
101	103	3
140	141	4
73	109	1
36	48	5
35	49	1
15	20	6
94	121	4
54	63	3
134	142	3
27	30	11
126	129	3
47	52	1
93	94	4
81	84	3
76	84	4
110	124	2
134	139	3
1	10	5
52	64	3
61	87	5
103	104	3
11	17	3
21	26	1
1	9	4
1	11	2
60	101	1
135	136	7
92	95	3
64	86	2
79	107	2
99	101	3
120	121	6
64	83	3
104	125	1
99	108	3
111	120	1
29	128	5
123	133	1
78	127	1
135	143	2
99	106	2
122	125	1
47	49	4
70	85	1
78	83	1
118	136	1
39	47	3
71	71	5
59	65	2
35	35	7
49	76	3
5	15	3
17	18	4
115	117	5
98	102	5
87	110	3
129	137	3
125	129	5
137	139	3
121	133	4
133	139	4
59	95	2
78	105	1
101	102	8
11	35	1
13	16	2
49	53	4
30	37	3
50	50	4
83	84	2
121	123	4
89	91	2
98	131	3
52	53	4
3	4	6
133	135	6
128	142	1
64	87	2
105	123	1
79	90	2
86	87	2
6	8	5
113	115	3
69	74	2
82	87	1
134	144	3
27	101	3
67	84	3
79	81	4
83	86	3
111	132	2
35	50	4
65	86	4
20	32	2
61	62	5
60	63	1
118	121	3
36	49	1
92	94	2
49	64	3
100	102	2
20	24	1
56	130	2
55	55	8
111	112	2
12	12	2
62	63	4
76	89	1
12	15	1
124	125	3
2	18	2
4	16	4
29	145	2
60	87	1
113	123	2
38	48	2
101	124	1
64	82	4
114	119	4
113	114	5
95	118	1
95	107	2
39	49	2
134	135	7
25	27	1
112	121	2
57	75	3
74	109	5
67	71	2
119	132	1
62	64	2
91	92	2
16	21	2
109	123	2
125	126	4
102	107	2
131	136	1
2	27	2
134	137	1
135	138	9
42	43	2
48	49	2
1	20	3
21	47	2
111	113	5
49	52	5
16	17	3
46	46	3
98	133	1
105	128	3
59	61	1
87	88	4
109	136	1
78	103	1
126	130	1
106	108	2
76	112	2
3	23	4
60	65	1
106	107	3
94	118	1
33	50	2
124	126	1
100	103	5
92	106	5
95	96	5
32	50	2
48	51	1
8	17	1
120	133	2
29	117	1
76	79	1
52	56	5
132	136	5
55	63	1
17	30	1
14	36	2
58	63	1
32	39	6
71	76	1
15	17	2
132	135	1
57	65	1
102	119	2
77	78	4
91	94	2
133	143	2
0	0	4
135	140	1
60	90	3
9	15	1
65	87	1
16	18	3
62	72	1
128	138	4
9	10	7
47	50	2
110	111	8
35	39	3
119	121	1
64	88	1
120	139	4
79	88	1
10	18	1
118	123	1
98	104	2
30	81	1
81	128	2
139	142	1
8	141	2
126	127	3
70	74	2
124	130	1
73	84	2
50	82	1
115	118	3
95	100	2
69	85	1
50	53	2
132	143	1
20	22	1
53	65	1
75	109	2
105	132	2
13	135	1
29	30	5
51	88	2
111	114	2
141	144	2
20	47	1
66	70	2
125	132	3
76	91	1
60	129	2
36	38	1
31	34	1
1	2	2
131	142	1
114	121	1
111	139	3
133	136	3
94	99	1
104	107	1
40	83	2
37	39	1
41	50	1
124	133	1
90	93	1
15	47	1
22	28	2
20	26	1
9	16	1
117	144	1
54	56	3
51	55	1
78	80	1
108	132	1
108	110	1
28	30	1
9	128	1
113	122	2
35	43	2
108	117	1
31	33	1
31	40	1
35	41	2
1	4	1
112	115	3
75	79	1
28	128	1
37	43	1
56	67	2
30	82	2
78	79	1
104	126	1
138	141	1
61	99	1
30	31	2
97	111	1
131	135	1
77	91	1
105	133	1
53	55	1
22	27	1
18	20	1
116	118	1
91	96	1
30	40	1
10	19	1
61	86	1
98	139	1
87	107	1
66	87	1
132	134	1
8	42	1
68	84	1
4	6	1
131	134	1
141	143	1
2	5	1
106	114	1
60	102	1
68	74	1
41	42	2
67	74	1
51	52	1
23	33	1
66	72	1
1	5	1
31	32	1
50	71	1
68	71	1
9	13	1
98	106	1
53	63	1
55	61	1
