127	127	24
11	11	12
20	25	1
62	63	5
55	55	14
73	101	1
100	105	2
11	43	6
59	59	17
27	29	2
52	118	6
49	49	22
43	43	16
13	14	7
64	64	14
92	92	14
73	77	1
41	63	2
69	69	28
77	78	1
99	101	5
126	127	5
53	53	11
45	47	5
98	98	21
99	100	12
23	23	1
13	13	21
87	91	2
117	117	1
96	104	1
69	90	2
101	101	9
41	43	9
126	126	9
51	51	13
59	61	10
76	76	28
5	5	19
25	26	5
61	61	8
73	76	4
120	121	10
75	78	2
17	22	3
101	102	5
34	34	7
13	15	9
113	113	19
65	65	17
19	20	4
112	130	2
70	71	8
31	31	6
128	128	24
59	63	2
96	96	10
89	96	1
81	81	2
62	66	6
111	113	5
57	132	4
58	58	5
19	21	6
54	54	20
47	47	24
84	85	7
118	120	3
104	104	10
52	52	17
87	88	11
54	58	3
72	74	2
40	40	12
67	68	6
25	25	4
108	115	5
109	109	9
57	57	13
89	112	3
46	46	21
72	72	14
17	17	8
50	50	13
88	90	4
54	57	2
68	68	15
1	1	15
120	120	5
64	70	1
27	27	10
42	42	13
38	39	4
116	116	14
58	60	2
130	130	12
119	120	6
90	91	3
26	41	2
51	52	5
82	82	13
16	17	3
115	115	13
88	89	3
86	88	2
63	63	5
112	112	11
9	11	7
88	88	12
69	70	4
110	110	14
132	132	10
4	4	13
111	111	19
100	100	11
119	119	9
121	121	17
55	56	2
90	90	16
46	47	11
60	64	3
44	44	15
108	109	6
15	15	8
9	12	2
86	87	13
52	53	9
47	48	3
99	99	19
84	84	11
41	45	1
94	95	8
74	74	10
109	113	1
38	58	1
7	80	4
94	94	10
89	90	4
0	0	14
97	97	11
29	31	3
50	51	6
6	6	10
2	2	8
105	105	5
56	56	9
65	67	2
23	24	9
75	75	13
60	61	3
97	101	1
59	60	12
20	22	4
118	118	16
24	24	8
86	86	6
103	103	13
90	98	2
60	60	10
79	80	2
26	27	6
96	98	5
129	129	10
110	111	4
99	103	3
122	122	7
10	10	12
66	74	4
41	41	23
73	105	1
2	3	7
10	13	3
33	33	9
107	107	11
18	24	2
26	26	15
124	124	7
123	124	5
38	38	8
95	95	9
123	123	6
66	73	2
7	59	2
16	32	4
76	107	2
120	122	2
75	77	2
55	75	2
56	57	10
109	110	8
81	84	1
6	8	1
3	3	12
85	86	4
12	13	6
131	132	9
113	116	2
32	32	6
10	11	2
80	80	12
21	118	3
28	33	1
18	19	9
106	107	8
73	87	1
66	66	7
28	29	6
114	115	1
105	107	1
16	16	14
29	29	6
122	123	4
61	63	4
15	16	1
83	84	13
100	101	1
78	79	4
89	89	10
9	9	6
18	20	2
114	114	17
14	14	2
77	77	8
60	75	2
82	84	3
124	125	4
94	104	4
125	126	3
102	102	9
29	32	5
28	28	13
32	33	3
113	114	3
71	71	4
78	78	2
42	43	11
71	72	3
91	91	7
74	76	3
98	99	7
89	91	1
128	129	6
66	70	2
72	75	1
127	128	7
22	23	4
20	20	5
17	24	1
108	108	11
85	85	7
106	106	12
97	98	6
91	97	1
97	99	1
10	12	8
93	93	6
21	21	2
17	23	3
132	133	4
80	82	1
60	63	5
93	95	3
68	70	3
93	94	7
19	26	1
44	45	5
8	9	5
7	7	11
1	2	3
125	125	3
129	132	1
104	105	8
75	104	3
91	92	11
59	64	2
67	67	8
70	70	4
79	81	3
61	62	3
67	71	5
47	66	2
27	34	2
28	30	1
87	87	6
62	62	8
75	105	1
33	38	4
76	77	6
113	124	2
68	108	1
21	26	1
56	64	2
65	66	9
114	117	1
69	89	1
85	88	1
41	42	3
43	44	3
8	8	2
97	100	2
131	131	6
107	109	1
78	81	2
103	104	4
73	73	5
37	37	1
48	48	7
66	99	1
22	22	8
42	64	2
67	74	2
70	72	1
8	12	1
94	107	2
48	49	4
96	105	1
77	80	1
45	46	4
83	86	1
72	78	2
117	118	1
49	112	3
108	125	2
19	19	13
96	99	4
4	5	4
111	112	4
92	93	6
56	61	1
73	104	1
27	28	2
54	55	6
55	62	2
21	22	1
90	97	2
52	117	3
79	85	2
64	65	1
87	92	1
26	28	2
94	105	1
107	116	2
129	130	7
58	76	2
39	39	10
112	113	4
82	83	1
98	104	2
67	104	3
17	18	1
60	62	3
116	117	8
118	119	3
107	108	4
31	39	4
63	64	1
48	62	1
49	92	1
121	122	1
83	83	2
3	5	2
86	89	4
17	19	3
89	95	3
7	62	2
133	133	3
31	40	3
45	45	6
93	104	3
5	6	1
115	119	3
84	92	1
96	97	1
62	64	3
113	123	1
114	116	1
55	61	2
59	76	2
21	25	1
52	56	1
61	68	1
126	128	1
127	131	2
30	30	6
75	76	2
115	116	2
55	58	3
61	70	1
83	85	1
99	102	3
58	64	4
73	74	3
14	16	1
46	48	3
89	92	1
66	72	1
90	111	1
58	59	5
27	119	1
58	62	2
114	123	1
16	18	2
81	82	4
77	83	2
66	67	1
31	32	3
9	10	4
61	65	2
116	119	1
74	80	2
128	130	1
40	41	2
72	73	2
46	49	1
95	103	2
53	54	1
44	62	1
18	23	1
80	81	4
52	122	1
74	78	2
74	75	1
59	62	3
115	118	1
67	70	1
45	130	1
41	65	1
30	31	1
14	28	2
51	119	1
127	129	1
75	85	3
29	33	1
64	129	1
67	102	1
120	133	2
59	67	1
117	119	1
40	43	1
11	12	2
27	31	1
62	76	1
14	15	2
15	127	1
97	102	1
55	79	1
5	7	1
64	131	1
59	65	1
115	117	1
108	114	1
3	4	1
111	114	1
