58	58	13
61	61	7
21	21	3
117	117	19
111	114	3
52	53	2
37	37	2
19	21	7
71	71	14
73	73	9
25	44	1
95	95	9
73	89	3
128	128	10
79	80	10
129	129	5
114	129	3
36	55	2
59	62	1
46	47	3
120	120	7
77	92	1
105	105	16
103	103	8
3	3	7
43	53	7
33	33	11
90	90	14
120	131	1
19	19	4
27	27	15
106	106	17
124	124	6
5	5	2
123	123	5
89	90	4
59	59	9
58	95	4
69	70	1
65	65	6
125	125	7
20	20	2
89	89	12
111	111	7
24	24	5
54	58	1
99	101	3
100	100	4
111	115	4
15	50	3
132	134	6
55	60	2
119	119	20
133	133	6
31	53	3
72	72	12
4	4	10
106	117	1
94	94	11
55	55	2
119	129	2
90	94	2
54	54	8
62	63	5
82	82	2
9	9	4
13	13	3
8	9	1
80	80	9
77	77	6
98	98	18
101	101	11
82	86	3
99	99	16
68	91	2
6	7	4
57	57	5
35	35	5
110	122	5
100	131	5
109	122	7
113	114	3
119	120	6
22	22	5
76	76	6
87	87	14
30	33	2
16	16	10
115	115	13
125	135	1
48	48	8
42	42	2
10	11	2
75	75	4
43	43	4
57	78	2
104	104	11
70	70	14
14	48	3
57	60	4
88	105	3
74	74	8
122	123	2
36	36	2
2	2	7
39	56	3
117	118	3
78	99	7
117	122	3
60	61	9
21	23	1
83	84	5
86	86	9
19	27	4
126	127	2
78	135	2
122	122	10
102	102	9
84	84	13
92	93	5
58	80	1
114	114	12
108	110	3
23	37	2
128	129	4
91	91	3
69	69	6
116	117	4
118	118	6
91	92	2
42	43	6
130	131	6
70	102	1
113	126	5
32	33	3
45	45	1
0	0	5
103	135	2
114	117	1
53	53	9
14	58	2
85	85	9
116	116	2
44	44	6
11	11	6
1	1	11
109	119	4
55	56	4
55	61	5
55	57	1
120	121	2
61	80	2
57	58	2
125	129	4
21	22	6
127	127	12
66	71	1
101	104	2
92	92	9
66	66	7
31	31	4
38	44	5
114	116	4
63	63	13
98	130	1
81	81	4
30	37	1
83	83	4
32	62	4
87	134	1
117	132	5
72	73	2
100	106	2
80	82	2
98	122	2
84	85	8
77	133	2
78	125	3
12	53	5
110	132	5
117	128	4
100	101	1
108	113	4
119	128	1
67	67	3
88	88	6
25	26	3
101	113	1
81	82	2
58	98	5
82	84	4
59	61	2
79	79	7
34	34	5
109	130	5
67	69	3
75	76	4
7	11	6
52	52	7
32	32	2
67	71	3
113	113	4
100	122	1
118	124	1
126	126	3
12	50	2
109	109	3
65	69	1
86	87	6
60	60	6
110	121	1
64	64	1
18	18	1
56	57	1
52	77	4
120	128	5
11	12	4
123	126	5
129	130	4
49	49	5
18	21	1
29	29	6
24	37	4
43	45	6
128	130	1
75	99	1
76	80	1
76	104	2
63	64	1
68	68	5
100	107	3
51	94	3
9	14	2
129	131	2
97	97	2
25	33	1
121	121	4
28	28	6
21	59	3
42	56	2
118	122	3
87	98	2
44	48	2
74	75	4
56	58	2
107	116	1
12	12	4
25	25	2
44	45	1
71	72	2
130	130	8
69	89	2
112	112	9
4	14	2
64	65	1
105	106	2
118	129	2
82	85	2
106	132	3
68	92	1
18	54	2
33	63	1
62	79	3
132	132	2
90	91	1
9	64	1
7	64	2
53	54	6
116	119	1
116	120	2
93	105	7
93	93	2
132	133	1
78	80	2
109	110	4
44	50	5
110	110	5
58	97	3
86	99	2
85	87	2
19	56	3
97	99	2
78	78	3
76	88	2
83	85	2
99	106	1
50	101	4
24	33	3
20	50	2
108	108	7
1	2	2
46	46	1
59	98	1
90	93	3
38	38	1
100	126	1
79	132	5
27	28	1
50	52	3
4	5	2
15	48	1
96	97	3
115	117	5
94	95	4
31	50	1
8	16	4
43	44	2
67	68	2
92	116	4
89	91	2
88	98	1
97	131	2
66	67	2
107	117	1
50	91	2
111	112	1
96	96	4
73	74	2
134	135	1
81	88	2
114	115	2
106	116	2
131	131	4
91	118	1
42	48	1
8	8	2
29	100	1
10	10	3
101	131	1
81	86	1
93	94	1
100	124	1
98	123	1
82	87	1
5	14	2
68	69	1
3	4	1
101	118	1
50	50	2
107	108	2
87	106	3
65	66	1
77	80	2
81	102	1
103	120	1
124	125	3
103	104	2
59	60	1
17	18	1
90	135	2
106	108	1
66	68	1
14	14	3
62	62	1
71	105	1
21	26	1
108	109	1
8	49	2
87	88	1
107	107	1
7	52	1
70	71	1
43	72	1
53	77	1
97	130	2
17	17	1
20	21	2
106	107	2
9	10	1
12	13	1
9	11	1
2	3	2
35	36	2
56	56	1
95	96	1
112	114	1
63	105	1
6	9	1
135	135	1
6	52	1
