0	0	18
66	66	11
71	72	3
62	62	18
42	43	5
41	41	22
63	64	13
32	33	8
4	38	4
33	33	20
8	8	14
4	5	5
42	51	3
26	27	10
75	75	10
4	43	4
34	34	6
2	2	5
52	53	7
42	42	41
13	13	15
63	63	7
53	53	12
10	10	14
12	12	15
57	60	9
59	59	24
6	6	7
13	49	3
54	55	6
13	14	5
9	9	14
43	43	16
65	65	11
3	30	1
35	37	5
73	73	12
30	35	3
60	61	5
57	57	18
69	69	16
35	50	1
22	23	14
3	3	11
43	45	2
14	14	9
61	63	3
73	74	1
3	46	5
2	4	11
24	24	12
72	73	5
1	1	14
62	64	5
67	67	21
25	26	6
38	66	3
72	72	13
45	45	22
48	48	10
49	50	13
47	51	13
71	71	25
74	75	17
0	2	8
10	12	4
21	21	13
7	7	15
55	55	8
47	47	18
46	46	16
57	63	4
74	76	5
22	22	4
25	54	4
58	59	10
19	19	17
8	12	4
61	61	19
53	54	2
57	58	16
20	20	20
40	42	4
1	2	13
24	27	5
30	30	15
1	3	4
14	49	3
28	28	6
25	25	14
12	13	9
38	39	3
63	66	2
11	11	5
50	53	10
59	60	1
36	36	15
70	70	20
39	39	12
28	29	5
33	34	13
3	4	4
50	50	16
31	50	5
50	51	15
26	30	1
41	42	12
7	11	4
39	43	2
29	30	9
71	75	2
66	67	6
44	44	10
34	37	9
30	36	2
28	30	7
23	24	1
58	58	15
56	58	2
66	69	1
2	32	4
69	70	9
9	11	2
31	31	10
36	37	5
51	51	9
36	51	3
48	50	2
18	19	11
65	67	3
32	35	3
48	51	2
26	50	2
19	20	5
32	32	12
5	5	16
47	48	4
52	52	9
27	50	1
20	21	4
13	48	1
66	68	1
37	39	7
68	68	4
35	36	8
54	54	14
61	64	8
32	34	3
1	53	5
35	40	5
27	29	5
64	64	15
36	39	4
50	57	2
8	9	8
55	57	4
40	41	2
67	68	2
5	6	7
22	26	4
9	10	3
64	68	3
28	35	1
52	54	3
44	45	9
41	68	1
35	35	9
26	26	16
4	6	3
40	40	11
10	11	10
35	41	5
56	56	7
23	23	1
33	49	1
38	38	10
24	31	3
1	30	2
34	55	1
4	7	2
8	13	2
55	56	9
65	66	3
4	44	5
77	77	5
62	63	3
24	29	2
68	76	2
40	58	3
4	4	12
11	12	4
24	30	1
39	40	6
51	52	1
71	76	1
37	38	3
74	74	3
4	52	4
3	12	5
60	60	9
68	73	1
8	11	2
70	73	1
25	27	3
7	8	8
70	71	6
71	74	1
29	29	12
47	49	3
39	41	5
39	56	4
54	56	3
27	27	6
57	65	4
43	44	3
29	37	4
72	75	1
0	31	4
76	76	4
49	49	6
1	4	1
12	35	2
0	3	3
49	53	2
31	33	2
53	57	2
25	28	3
27	31	2
31	35	1
74	77	1
63	68	1
34	38	5
48	49	3
37	37	10
8	10	5
19	21	2
2	3	3
31	32	4
35	44	2
2	47	3
65	68	3
58	68	2
51	54	1
68	69	1
49	51	4
42	76	3
3	6	2
57	64	1
28	31	2
61	62	1
5	29	2
56	57	2
24	28	2
41	43	4
53	55	1
46	47	2
57	61	2
26	28	1
25	35	2
35	39	2
22	24	2
3	29	1
33	35	1
69	73	2
76	77	1
22	28	2
34	54	1
40	52	1
24	26	1
26	36	1
27	28	2
0	49	1
19	49	1
7	38	1
34	51	1
36	38	1
37	68	1
49	52	1
21	23	1
27	51	1
50	54	1
47	50	1
13	47	1
34	49	1
0	1	4
70	72	1
36	56	1
32	50	1
9	38	1
71	73	1
24	25	1
65	71	1
69	72	1
6	18	1
23	54	1
