5	17	1
3	3	9
129	129	14
114	114	5
38	38	2
90	90	7
90	91	5
71	71	5
140	140	10
83	125	1
1	1	7
84	84	4
11	26	4
80	80	12
126	126	14
123	123	20
129	130	3
75	76	2
76	77	4
21	27	5
102	102	10
21	21	5
101	121	3
33	33	13
12	14	3
25	25	9
137	137	7
127	127	6
121	121	11
38	76	4
93	93	7
86	93	2
117	120	2
0	0	6
78	80	5
136	136	12
108	109	7
29	37	5
83	83	12
33	34	3
128	140	2
108	108	5
131	131	7
111	111	4
116	116	9
74	113	3
7	7	11
109	110	2
118	118	12
139	139	9
72	72	14
76	76	14
74	74	6
106	106	2
28	28	6
14	14	6
32	32	5
19	123	3
85	92	1
6	6	7
13	14	10
31	31	11
26	26	4
23	24	4
105	105	5
22	24	1
78	81	2
135	135	6
29	30	3
98	99	2
35	35	9
10	10	10
94	94	3
19	21	3
11	11	2
85	120	2
7	8	4
78	78	6
13	13	6
83	85	2
9	10	3
16	73	3
8	9	3
88	88	5
117	117	10
79	79	6
87	87	3
96	128	2
112	113	4
34	34	10
91	91	9
85	86	2
107	107	6
20	23	5
103	103	3
113	113	3
13	15	2
4	4	5
21	22	7
78	93	3
121	122	5
108	114	1
122	122	7
9	9	5
89	89	12
36	97	1
75	75	5
114	123	2
23	75	2
4	91	1
3	4	1
24	24	7
128	128	6
77	77	1
27	28	1
107	121	1
120	122	3
8	14	4
99	99	3
102	113	1
130	130	7
8	8	6
4	5	2
74	79	2
20	122	2
120	120	3
35	123	1
97	98	2
17	18	5
18	18	3
35	37	4
36	128	1
36	99	1
111	117	2
12	12	8
86	86	6
132	132	6
112	116	2
134	134	9
76	91	1
123	127	2
2	2	2
1	2	7
84	86	2
125	125	5
82	82	8
19	19	7
109	109	7
135	136	6
127	128	6
20	20	3
2	5	2
124	124	5
30	30	5
27	32	5
74	75	1
22	28	2
25	26	4
110	110	2
112	114	1
113	123	1
128	129	3
123	124	2
29	29	1
133	133	13
131	132	3
136	137	1
118	122	1
98	98	6
97	97	1
0	9	2
131	138	1
6	13	1
95	95	2
26	29	2
72	73	6
27	30	2
28	30	2
10	17	3
115	124	1
92	92	4
95	125	1
100	101	3
93	124	3
81	81	2
101	101	8
18	34	1
5	5	6
100	100	5
113	114	1
96	97	2
105	122	1
14	17	1
119	119	3
115	116	2
7	11	1
16	16	3
27	27	3
11	12	2
5	6	2
96	96	4
10	18	1
36	37	1
81	82	1
26	82	1
72	85	3
101	103	2
104	105	1
71	94	1
104	104	1
87	88	2
21	81	1
74	116	1
129	138	3
12	27	1
1	4	2
19	20	1
90	92	2
27	29	2
14	29	2
79	80	1
6	14	1
125	126	3
129	139	1
16	17	2
94	102	1
33	125	1
126	129	4
105	109	2
19	36	1
84	85	1
100	107	1
37	93	2
17	34	1
106	107	1
80	81	1
108	111	1
134	135	3
133	134	1
22	22	2
120	123	1
77	79	1
101	102	2
71	88	2
99	116	1
82	85	2
18	19	2
124	125	1
30	31	1
29	31	1
85	85	1
112	112	2
2	3	1
9	12	2
138	138	1
121	123	1
102	114	1
119	120	1
73	75	1
109	117	1
37	37	1
98	123	1
68	103	1
20	29	1
110	117	1
89	90	1
17	26	3
90	116	1
6	17	1
88	89	1
15	16	1
83	84	2
99	100	1
96	111	1
136	140	1
32	34	1
10	11	1
10	14	1
28	29	1
