39	51	1
86	88	3
89	90	4
41	41	8
50	50	4
71	74	1
88	90	3
84	97	4
26	26	4
62	62	11
67	67	7
61	63	2
53	53	7
85	85	5
55	55	13
61	62	1
23	23	12
54	54	5
73	73	7
59	59	8
72	73	8
43	43	2
82	86	2
86	98	3
23	24	6
90	94	5
103	103	11
83	86	5
82	82	2
37	37	10
97	97	4
54	82	1
99	99	5
45	46	4
32	32	6
22	97	3
31	32	8
61	61	8
63	63	9
79	79	16
77	77	4
52	53	2
49	58	2
92	93	5
76	76	8
33	33	5
96	96	3
87	87	5
50	68	2
50	102	2
52	52	6
30	30	5
81	81	5
45	80	1
28	29	2
83	83	1
52	55	1
86	86	4
29	35	1
104	104	6
28	28	4
24	24	3
51	51	4
88	88	1
92	92	2
61	75	4
92	98	2
103	107	1
41	55	3
78	78	5
40	78	1
38	48	1
41	42	1
46	61	3
82	87	1
39	39	3
95	95	8
68	69	2
22	86	1
90	106	2
68	68	4
96	97	4
41	98	3
22	22	2
64	64	6
24	37	4
84	88	3
90	93	3
33	34	3
91	91	5
35	36	3
98	99	8
39	50	6
41	44	1
91	92	4
20	21	3
98	98	8
25	33	4
101	101	9
106	107	2
63	74	1
81	100	2
90	90	6
51	63	3
44	77	3
35	35	5
64	71	1
42	42	4
80	80	1
44	44	2
28	30	1
31	33	2
40	41	5
93	93	3
34	34	3
94	96	1
70	70	1
84	84	3
63	96	5
71	76	2
58	90	1
71	71	4
47	98	1
87	88	2
58	58	1
27	28	4
40	68	3
21	21	8
45	53	1
33	84	1
69	69	6
87	89	3
73	75	1
22	24	3
22	29	2
64	70	3
45	85	2
106	106	3
76	77	4
89	105	1
45	59	3
25	25	7
40	40	2
52	69	1
59	92	3
70	71	3
56	56	6
69	81	2
85	99	2
22	96	1
40	42	2
102	102	4
91	106	2
38	77	2
80	97	1
52	54	2
40	43	4
37	45	1
93	94	2
92	100	1
46	49	2
62	63	1
30	83	1
20	20	1
85	98	1
19	20	2
23	40	1
102	103	3
25	26	2
66	66	4
36	36	7
31	31	4
85	88	3
44	45	1
48	48	4
34	52	1
41	45	2
93	106	2
58	63	1
75	75	5
94	94	2
23	96	1
46	46	2
56	58	2
100	100	1
73	78	2
66	67	1
61	66	3
52	96	1
101	102	1
38	45	2
62	64	1
53	85	1
75	95	1
67	68	1
24	39	1
65	65	2
26	28	1
46	60	1
29	36	1
56	57	1
52	95	1
90	91	1
64	65	1
22	54	1
62	66	1
42	44	1
50	62	2
36	48	1
24	103	1
74	75	2
25	94	1
107	107	2
49	49	1
24	28	1
32	53	3
51	52	1
49	82	2
78	79	2
58	60	1
49	79	1
39	57	1
21	55	2
38	39	1
64	66	1
103	104	1
74	74	1
63	65	1
49	60	1
84	94	1
84	85	1
40	80	1
57	83	1
51	67	1
