105	106	8
34	41	4
126	126	25
19	19	33
51	51	30
114	115	15
54	54	54
25	25	31
53	53	50
101	102	10
108	108	12
128	130	6
99	100	8
116	119	3
49	49	35
18	19	10
82	82	9
28	29	19
19	20	22
57	58	6
99	99	26
89	89	13
29	29	4
95	95	22
115	117	2
39	39	18
66	67	9
10	10	37
96	96	26
18	18	16
125	125	26
50	50	53
43	43	9
49	50	11
27	28	2
132	132	25
64	65	6
72	73	11
120	120	22
119	119	16
19	21	5
46	88	3
69	69	33
93	94	12
63	63	8
0	0	20
111	111	18
121	121	24
131	132	5
54	63	2
98	128	2
112	120	5
38	68	8
24	24	9
13	17	5
39	60	1
122	122	27
32	32	14
119	132	1
74	75	7
41	79	6
128	129	1
23	23	6
38	39	13
85	85	26
4	4	10
59	72	6
42	43	10
109	109	27
113	113	33
61	61	40
105	105	28
124	125	12
64	107	5
69	70	18
78	87	6
9	9	13
15	16	8
129	129	7
109	130	2
118	118	15
124	124	25
13	13	28
76	80	1
93	93	23
68	68	22
47	47	37
38	38	4
70	70	19
128	128	6
40	41	9
68	69	6
48	49	13
46	47	26
18	24	3
76	76	29
11	12	7
114	125	4
60	60	19
87	88	11
22	22	7
107	107	14
71	72	9
116	116	19
57	57	32
4	5	15
45	45	8
52	52	39
10	11	23
73	77	3
52	53	25
6	8	2
18	21	2
56	56	29
100	100	14
55	100	3
88	88	11
31	86	1
61	62	6
101	125	5
12	12	17
40	40	23
94	94	5
65	66	8
97	97	34
67	68	15
44	44	16
126	127	6
123	123	21
117	118	16
72	72	12
46	46	54
50	51	11
123	125	5
33	65	7
62	62	13
112	112	18
130	130	20
105	129	10
64	64	22
15	15	20
67	67	7
92	92	19
5	5	11
43	44	9
14	17	2
97	98	11
16	16	5
42	42	13
52	55	6
58	58	23
84	84	12
3	3	23
100	101	11
114	118	5
111	113	2
56	57	5
17	18	8
2	2	18
75	78	5
102	103	10
74	74	22
55	55	11
101	101	20
111	133	5
69	75	1
103	104	2
48	48	44
110	110	37
31	88	3
39	40	3
80	81	10
58	117	5
38	63	2
46	48	6
0	1	12
14	32	6
77	77	18
6	85	6
114	114	7
101	115	1
99	102	4
4	7	3
103	127	5
102	102	16
79	79	17
29	43	3
14	14	11
88	89	9
86	86	19
97	128	1
72	74	7
7	8	5
104	104	18
106	106	31
91	91	8
7	7	20
131	131	30
127	129	3
122	123	3
82	83	9
98	98	7
6	6	17
78	79	5
59	60	11
6	44	6
72	110	2
20	20	17
41	42	4
30	68	5
81	82	16
121	122	5
77	78	7
33	33	8
23	24	4
75	75	8
28	30	1
66	66	7
30	30	14
125	126	9
55	56	10
102	104	1
75	95	1
120	131	4
62	95	1
84	85	5
31	31	2
56	70	4
89	90	9
103	103	18
88	90	2
121	123	2
104	112	9
40	95	1
115	115	24
120	121	4
41	41	15
21	24	5
20	27	4
22	83	3
111	123	4
53	55	3
8	8	7
115	116	5
90	90	11
2	82	1
29	31	4
26	27	6
12	13	3
23	29	3
106	108	5
94	95	12
109	132	4
106	107	6
129	130	15
27	27	7
114	129	4
66	85	4
71	74	6
65	65	14
60	61	9
98	118	2
15	47	3
107	108	2
64	73	8
73	73	7
42	66	2
101	131	1
98	99	4
72	75	1
114	116	9
76	79	2
108	109	9
18	27	4
17	17	7
95	96	7
85	87	1
92	96	3
60	95	4
26	26	10
22	24	1
130	131	12
112	113	8
73	74	7
38	55	2
71	85	6
20	21	1
11	11	10
28	28	19
79	80	8
13	14	2
85	88	2
71	73	4
86	87	11
72	77	2
32	86	3
18	31	2
42	46	1
117	117	11
111	112	4
60	71	3
112	130	1
80	83	3
8	9	2
103	112	6
44	45	8
16	65	2
80	86	4
127	128	4
14	48	2
59	96	2
123	124	4
62	63	5
64	83	5
19	83	1
104	113	2
119	126	4
61	66	2
1	1	6
112	126	1
71	71	8
110	111	7
59	59	8
110	132	1
31	32	6
21	22	11
116	120	4
90	91	4
45	46	2
99	101	5
14	20	2
54	55	4
43	79	1
29	44	3
58	85	4
127	127	5
67	69	3
98	129	1
68	70	2
65	84	2
69	100	3
29	30	6
58	62	4
74	77	1
102	115	2
28	79	4
21	21	15
112	132	7
111	124	3
113	126	2
98	100	3
58	59	6
81	81	5
116	117	3
50	55	2
84	87	2
16	17	1
58	100	1
112	124	3
1	2	2
125	130	3
77	79	1
28	42	3
32	65	2
104	109	2
32	33	1
5	6	7
82	84	1
85	86	3
12	32	4
76	99	1
104	126	2
69	98	1
57	65	1
59	61	3
126	128	1
114	117	3
60	62	1
93	102	2
51	52	2
83	83	11
87	87	5
30	42	2
31	43	1
110	133	1
104	105	5
24	34	1
68	85	1
63	64	2
24	25	4
0	48	2
80	80	2
50	53	3
58	60	1
47	48	3
76	77	7
57	86	3
104	106	2
113	114	2
32	54	2
7	9	4
57	84	2
83	84	3
64	71	2
102	106	2
71	84	2
6	27	1
115	128	1
6	7	2
2	47	2
93	111	1
72	79	1
111	132	2
89	93	1
2	3	1
133	133	3
78	78	1
75	76	2
112	119	1
17	19	2
17	33	3
91	92	4
92	93	1
58	71	1
105	112	1
104	124	1
68	87	1
97	110	1
125	127	2
51	53	1
70	71	1
126	129	3
74	76	2
51	55	2
3	4	1
6	45	2
42	67	1
41	43	1
57	95	1
75	86	5
33	44	2
15	31	1
96	97	1
53	54	2
7	24	1
104	115	1
118	125	1
132	133	1
2	4	1
69	97	1
50	113	1
105	107	1
29	78	1
32	84	2
77	81	1
40	65	1
103	113	1
74	107	1
97	99	2
39	41	1
22	23	1
37	38	1
59	62	1
96	98	1
50	56	1
113	132	1
32	51	1
9	20	1
50	52	1
9	31	1
71	77	1
73	82	2
118	119	1
16	57	1
14	15	1
86	88	1
49	55	1
54	57	1
