78	78	10
220	220	4
111	111	5
120	120	17
106	107	2
87	89	5
12	96	4
181	181	14
11	12	1
100	100	7
5	48	4
208	208	9
89	89	4
214	214	6
96	96	10
117	117	8
194	194	2
187	188	2
29	98	1
200	210	1
10	11	2
182	182	14
199	210	1
43	43	5
64	64	7
240	240	8
1	1	4
178	179	6
167	167	9
235	236	6
0	1	4
75	76	3
183	183	9
158	176	1
59	77	2
0	0	3
152	152	7
14	73	3
178	229	1
162	163	1
239	239	4
230	231	2
75	75	5
9	9	12
155	155	10
200	200	11
82	83	3
28	39	1
222	223	6
164	164	3
33	33	8
89	226	6
157	157	4
6	6	14
232	232	5
222	222	13
234	244	2
32	32	7
58	90	3
114	158	4
208	212	2
161	182	4
88	88	4
40	45	3
61	79	4
238	238	7
99	100	12
37	37	3
99	99	3
75	77	3
211	236	2
198	198	6
39	39	4
232	233	2
215	216	3
174	198	3
12	86	2
196	196	4
205	205	9
49	49	5
4	4	2
146	163	1
247	247	4
26	26	10
107	119	2
162	214	1
59	74	4
170	171	3
207	207	7
85	86	5
54	65	6
46	46	3
184	184	9
194	195	4
159	159	9
237	240	2
240	242	2
241	241	13
53	54	6
158	170	2
160	160	18
210	210	5
59	59	9
51	52	3
100	105	3
229	229	8
19	19	5
84	84	3
197	197	9
114	114	5
58	58	9
153	153	7
62	62	3
214	244	3
46	47	1
88	89	4
178	178	7
174	174	5
239	241	1
100	101	1
19	62	3
55	55	12
169	169	4
116	116	3
233	233	7
228	228	3
154	154	3
15	118	1
95	118	2
69	69	11
168	168	3
37	38	3
92	110	1
201	202	1
202	202	12
223	223	2
164	181	1
104	104	4
242	242	9
190	190	4
199	199	4
44	44	12
186	186	10
172	172	2
171	171	3
245	246	7
34	57	2
79	79	9
228	245	1
117	118	3
50	50	10
25	25	4
14	14	2
170	181	1
181	182	5
14	38	2
42	43	1
195	196	4
12	12	6
185	186	4
158	158	2
165	165	7
41	45	1
168	171	2
199	200	6
240	241	3
27	27	5
115	116	2
53	66	4
161	161	7
180	181	5
97	107	1
92	173	1
190	191	3
191	216	5
89	90	1
146	215	1
105	120	1
51	82	2
152	182	1
57	59	3
40	40	6
243	243	4
248	248	1
108	108	1
21	106	3
206	240	1
244	244	4
145	145	4
216	216	1
103	103	10
71	71	5
192	192	13
179	179	9
54	54	3
184	226	3
208	209	3
226	245	5
92	92	3
7	7	7
151	151	9
24	24	3
8	8	6
96	179	1
152	183	3
115	169	1
73	75	4
18	18	9
163	163	8
87	111	1
215	215	3
242	247	3
200	212	2
21	21	6
117	211	1
246	246	6
146	166	3
230	230	6
96	112	2
188	217	2
225	226	2
13	51	1
107	107	2
30	30	6
90	90	5
218	218	5
28	28	3
93	93	3
61	61	2
56	56	5
233	234	3
10	10	3
60	61	8
70	70	1
38	38	3
177	177	8
110	110	7
21	105	1
113	113	11
37	54	3
245	245	3
219	219	3
197	201	3
22	22	5
119	119	5
226	226	5
152	166	1
228	234	1
180	180	11
89	106	1
227	227	6
215	217	1
6	7	1
118	118	7
168	169	2
46	155	3
92	94	3
191	191	6
85	85	7
113	117	3
97	99	1
93	94	2
150	155	1
179	180	3
86	86	7
73	73	7
174	177	3
227	228	5
120	169	2
23	23	4
221	225	1
4	153	2
112	116	2
94	113	2
102	105	2
158	159	4
112	234	1
33	34	3
153	154	5
17	17	2
213	213	1
54	56	1
102	102	3
98	172	2
96	116	3
58	71	3
94	95	2
183	191	3
102	103	4
57	57	8
203	203	2
145	193	3
237	237	4
105	106	6
49	76	1
158	166	1
166	196	2
96	114	2
8	54	3
30	33	2
207	208	2
209	240	2
204	204	4
52	53	1
85	119	1
162	162	6
184	248	1
147	147	6
164	247	3
220	222	2
75	79	3
51	51	3
176	176	10
157	158	3
106	106	3
22	23	2
68	68	9
74	74	3
95	95	5
201	201	2
173	173	3
12	77	2
224	224	3
53	63	3
12	61	1
111	231	1
11	20	1
166	166	3
223	241	4
16	16	5
207	237	4
188	188	4
83	115	1
53	53	7
91	111	4
105	105	11
63	63	2
185	230	1
47	47	2
183	212	2
41	43	3
225	240	2
146	152	1
72	72	4
71	109	3
153	158	5
223	245	4
15	15	3
97	97	3
20	113	2
31	31	6
225	246	3
47	48	2
175	200	2
72	73	1
23	33	1
146	147	3
56	59	2
150	150	7
78	82	1
112	112	2
11	11	6
191	196	3
86	111	1
204	205	1
4	12	2
160	181	3
80	80	1
51	67	1
239	243	3
80	81	3
70	71	4
25	45	1
4	177	3
170	175	3
156	163	1
4	49	3
147	163	1
206	207	2
18	22	2
217	217	5
86	229	1
234	234	3
60	74	1
111	112	2
54	55	4
68	81	1
98	98	2
70	79	1
155	156	1
114	115	2
156	156	2
58	91	3
184	218	1
200	203	3
57	58	3
81	81	7
72	108	3
92	229	1
67	68	2
214	215	1
211	211	4
175	175	4
109	109	5
185	185	1
49	50	2
94	159	1
205	211	1
183	206	2
1	8	4
75	78	3
218	219	2
118	119	5
66	67	2
22	27	2
149	203	1
19	68	2
152	153	4
118	189	5
29	108	2
188	190	1
190	211	3
219	246	2
76	79	3
211	237	1
238	244	2
180	182	1
236	236	2
28	87	1
160	180	2
243	244	1
176	178	1
19	20	4
77	77	1
76	76	3
28	61	2
206	206	2
23	179	4
164	166	1
5	5	2
34	34	3
149	178	1
29	234	1
55	57	1
206	241	1
231	231	3
159	160	1
149	149	2
228	230	2
173	175	3
163	216	3
193	211	2
169	185	1
50	83	2
55	66	2
41	41	7
161	184	1
160	162	1
10	172	1
18	24	2
181	218	1
235	235	1
99	239	1
246	249	2
68	69	2
184	188	2
29	29	2
111	116	2
58	59	1
25	26	1
6	54	1
94	94	3
29	101	1
170	215	1
109	110	1
31	227	2
79	116	3
160	176	2
199	201	1
174	234	1
12	14	1
207	210	3
231	234	1
194	196	2
213	214	1
58	74	1
61	109	1
156	157	3
69	70	1
82	82	3
216	217	4
221	221	3
6	26	2
52	52	6
65	66	2
180	215	2
89	243	3
232	234	1
80	116	1
199	234	1
29	100	1
167	196	1
207	211	1
9	11	4
197	198	2
165	189	1
162	201	1
59	60	1
168	182	1
162	247	2
5	49	1
211	241	2
177	216	2
58	60	1
115	119	1
22	24	1
104	106	1
183	184	1
28	31	2
55	90	2
36	36	1
95	110	1
208	211	1
164	195	1
170	170	2
223	240	1
245	247	2
175	176	2
12	76	1
115	115	1
4	32	1
207	226	2
212	212	3
144	144	1
217	219	1
65	65	2
180	227	1
3	3	1
47	51	3
94	147	2
172	173	1
149	153	1
247	248	1
213	244	2
69	82	2
120	184	1
189	189	1
74	111	1
16	17	1
217	240	1
108	236	1
56	57	1
189	190	1
110	111	1
199	203	1
76	77	1
165	166	1
194	202	1
96	178	1
109	113	1
50	74	1
177	231	1
28	29	1
47	156	1
71	72	2
