53	66	7
72	72	8
76	76	11
26	26	11
80	80	5
30	30	12
81	83	2
19	23	1
71	71	6
46	46	4
0	0	11
51	53	7
24	24	8
4	4	23
49	51	4
75	75	9
79	80	6
61	61	5
61	65	3
56	56	9
3	56	2
48	48	2
69	69	10
53	53	8
7	7	12
3	3	5
33	33	1
81	81	10
14	14	15
73	73	9
60	63	1
74	84	1
54	64	3
18	19	1
68	69	5
70	70	8
50	50	4
6	8	4
5	10	8
63	63	5
85	85	10
15	16	2
20	20	8
35	35	1
86	88	2
59	75	3
66	66	11
17	17	9
12	13	4
82	85	3
7	8	5
2	2	6
68	68	8
50	51	1
83	83	8
80	84	1
62	62	12
6	9	4
49	49	13
72	80	2
54	54	10
71	80	5
10	12	1
13	13	6
28	29	3
10	10	10
16	18	4
84	84	7
11	11	12
73	74	2
9	9	9
74	74	4
47	47	22
82	82	13
27	27	2
59	59	6
25	25	5
8	8	3
23	24	6
20	23	3
31	31	8
67	67	8
5	6	3
56	85	1
78	80	1
19	20	6
12	25	2
34	34	8
77	77	7
65	65	1
59	60	4
48	71	2
1	2	5
29	29	4
9	10	1
72	73	3
57	57	11
58	58	3
49	50	1
52	52	10
75	78	1
66	67	2
62	64	1
80	83	4
60	61	3
55	55	6
51	54	3
77	79	5
77	78	1
48	60	1
19	19	7
74	75	5
52	63	2
1	48	1
89	89	2
80	82	1
63	65	5
48	63	1
66	70	1
14	15	5
78	78	6
48	61	1
86	86	3
15	15	5
48	49	2
52	54	8
77	80	3
56	65	1
16	16	2
79	79	2
64	78	1
50	89	3
6	55	3
58	62	2
8	47	2
52	55	3
51	51	4
84	85	2
20	25	1
5	5	5
5	8	3
77	87	2
12	12	2
51	69	2
75	76	2
1	1	3
57	58	2
22	23	2
64	64	1
88	88	3
78	84	2
13	27	3
21	21	4
11	12	1
75	77	2
10	72	1
66	76	2
52	84	1
76	83	1
27	28	1
28	30	1
19	26	2
87	87	2
28	28	3
59	62	3
10	11	2
48	52	1
59	63	3
25	26	1
53	88	1
13	26	1
5	25	2
75	85	1
9	15	1
77	82	3
47	56	1
49	66	1
51	52	1
86	87	2
56	66	1
53	61	1
51	62	1
6	12	2
53	54	2
22	22	2
16	17	1
47	62	1
9	26	1
60	60	1
1	3	1
20	21	1
48	59	1
49	59	1
58	59	1
47	48	1
85	86	1
64	79	1
