52	52	5
49	49	5
78	78	1
104	111	1
116	116	5
39	39	5
19	20	2
123	123	12
10	10	3
90	91	2
44	69	2
107	128	2
46	46	9
50	50	5
44	44	4
89	91	4
30	32	2
21	22	8
107	108	1
30	30	7
106	106	10
80	80	10
131	131	4
95	96	1
40	40	7
125	126	7
63	119	2
104	105	2
8	23	3
23	23	9
126	126	6
103	103	3
88	95	1
34	34	2
113	120	1
66	67	5
80	81	3
24	41	1
82	82	3
20	20	4
70	71	4
51	75	1
120	120	4
90	90	11
101	101	7
82	87	3
68	68	12
127	130	3
25	25	5
79	80	3
56	56	8
26	27	4
85	87	1
108	108	5
7	7	8
8	8	4
9	109	1
76	76	4
63	118	3
13	100	2
48	48	10
87	87	7
102	104	1
121	121	4
55	55	11
64	71	4
90	114	1
10	12	5
103	115	1
75	75	8
93	101	1
54	54	6
96	96	7
120	132	3
11	11	7
55	75	3
88	106	1
17	131	2
130	130	3
60	60	5
105	125	5
124	124	4
45	46	2
42	42	6
62	114	4
12	12	4
71	71	3
86	87	4
93	93	6
98	104	2
89	89	5
16	16	4
2	4	2
3	3	4
94	95	1
59	59	4
115	115	4
68	74	1
64	93	1
70	70	3
65	65	5
108	126	2
2	111	1
84	84	2
79	79	2
65	67	1
63	63	8
73	73	9
23	26	2
8	24	1
113	114	4
19	19	3
41	42	1
6	6	6
47	47	4
22	22	3
107	107	5
29	96	4
48	122	2
127	127	6
28	28	4
2	27	3
61	62	1
43	43	7
27	27	3
29	30	2
114	114	5
67	67	2
125	125	2
12	29	1
102	102	5
19	107	1
29	29	5
92	92	7
91	91	5
74	78	1
81	81	6
46	47	8
88	91	2
77	77	3
27	119	3
14	18	2
64	65	3
57	57	3
51	52	3
15	15	2
89	90	5
124	125	1
1	1	10
72	72	5
91	94	1
128	129	1
84	99	2
95	95	6
48	116	1
3	19	1
21	21	2
97	98	2
24	24	5
74	74	2
97	97	3
102	103	2
48	49	3
118	119	1
63	81	2
4	17	2
32	32	3
55	60	1
122	122	4
100	100	2
91	130	1
46	83	3
32	119	2
112	113	2
84	119	3
105	105	4
16	129	4
22	76	1
54	120	2
80	125	2
17	17	4
107	129	1
26	26	6
67	98	2
69	88	3
98	99	1
4	107	3
82	83	5
77	79	1
129	129	2
106	107	2
65	94	2
13	14	1
125	132	1
86	86	1
69	69	2
111	111	3
77	78	1
52	53	3
51	51	2
3	4	4
132	132	3
100	101	1
115	116	1
3	16	2
117	118	2
14	14	4
74	75	1
47	49	1
9	9	6
55	78	1
88	88	3
104	104	1
9	10	4
118	118	2
13	13	1
40	41	2
84	98	1
44	61	1
113	113	1
62	62	3
38	38	1
106	131	1
76	77	1
44	120	1
107	127	1
15	64	2
18	19	2
124	132	1
79	81	1
46	112	2
62	64	2
114	115	1
9	56	1
59	60	2
70	88	1
82	89	1
111	112	4
131	132	4
1	102	1
89	116	2
47	124	1
59	114	1
44	47	1
31	105	1
28	29	2
58	58	1
119	120	1
18	99	1
1	2	1
60	80	2
16	98	2
27	64	1
50	56	2
21	23	1
99	100	3
31	31	2
18	25	1
99	99	1
32	33	1
38	39	1
62	116	2
27	29	3
119	119	1
61	72	1
67	97	2
14	27	2
3	5	3
5	6	1
112	112	3
83	86	2
114	119	1
1	58	1
53	53	1
45	85	1
117	120	1
84	85	3
44	78	2
51	69	1
100	128	1
56	125	1
77	80	1
58	59	1
70	116	1
12	112	1
94	94	1
128	128	1
49	122	1
126	130	1
82	106	1
87	88	1
15	96	1
53	125	1
69	83	1
81	125	1
78	79	2
115	119	1
6	22	1
62	99	1
61	114	1
7	22	1
12	31	1
56	78	2
65	66	1
31	32	2
117	117	1
44	45	1
72	113	1
61	73	2
21	103	2
47	48	1
133	133	1
2	24	1
18	104	2
20	53	1
2	2	2
11	17	1
12	13	1
101	102	1
46	58	1
10	11	1
69	106	1
83	84	1
14	16	1
0	1	1
109	109	2
33	33	2
69	70	1
20	21	1
11	14	1
4	4	2
108	120	1
5	5	1
60	79	1
42	127	1
67	69	1
