106	106	12
70	70	23
28	32	2
42	56	5
120	120	17
88	93	3
17	17	3
66	66	27
86	130	1
55	88	2
31	32	10
74	74	12
29	29	20
59	60	7
32	33	8
16	16	16
110	114	4
43	43	11
99	101	1
76	76	27
55	56	3
73	73	16
44	70	5
99	99	14
71	71	24
77	77	30
134	134	6
23	24	2
26	27	16
74	75	4
15	16	2
93	93	22
47	66	3
12	20	2
46	94	2
45	45	17
26	26	21
90	97	10
35	35	10
18	41	2
84	84	19
19	45	3
30	30	26
6	8	2
45	46	8
124	125	9
76	77	6
62	62	19
60	60	15
83	85	4
119	121	2
107	108	3
30	37	3
97	97	8
99	100	12
120	125	3
119	119	7
109	109	4
85	86	6
65	65	23
72	72	21
63	63	11
27	27	16
63	64	3
56	81	6
38	55	12
88	100	2
95	95	20
51	55	3
48	48	6
129	129	5
42	48	3
115	128	1
38	38	10
22	26	6
91	91	20
13	73	6
25	92	1
101	134	4
32	32	10
31	33	3
28	28	15
70	71	2
111	111	8
113	113	12
86	90	11
117	117	13
7	7	14
39	39	5
91	134	1
92	92	14
33	34	9
78	78	24
12	12	19
7	15	2
87	87	9
79	120	1
109	110	2
90	99	4
78	79	8
80	80	19
62	63	16
22	22	9
37	40	2
11	12	4
66	68	3
75	75	21
36	36	15
96	96	6
69	69	11
87	94	4
88	88	17
28	29	5
68	68	18
37	37	7
89	93	4
121	121	18
19	77	3
4	4	7
19	21	2
128	130	3
82	84	6
130	130	12
61	76	1
127	127	12
39	40	12
11	25	3
100	100	15
34	64	1
79	79	16
4	5	11
61	61	21
44	45	2
49	49	11
67	67	14
81	82	5
5	5	12
82	83	4
115	115	11
118	118	10
9	9	9
56	134	1
42	125	2
59	59	26
97	98	4
45	68	2
132	133	7
44	44	7
3	3	4
83	83	20
83	89	4
42	93	1
57	80	2
36	128	4
13	13	7
37	39	1
73	75	3
43	62	2
19	19	8
87	92	3
55	58	3
90	90	10
25	40	1
108	109	3
89	92	3
124	124	4
35	39	4
68	69	2
35	74	3
31	31	17
28	78	2
123	123	12
23	25	1
30	133	2
46	46	29
131	131	13
85	85	14
77	80	4
8	8	15
73	74	4
37	60	1
28	30	2
18	20	1
3	4	8
63	74	1
26	30	3
41	42	14
69	74	3
45	62	1
56	56	3
86	86	11
64	65	1
90	91	2
12	13	3
64	64	4
58	58	9
18	44	3
84	101	4
20	21	5
84	94	3
26	42	2
126	126	4
33	33	15
13	15	7
2	13	4
89	89	3
23	23	13
98	98	11
126	127	3
58	59	2
82	82	10
25	25	17
101	101	16
11	11	17
94	100	1
103	103	4
2	2	3
14	14	10
93	94	9
9	10	7
32	134	2
85	90	3
21	61	3
61	72	6
36	37	5
108	108	4
118	120	1
12	16	3
42	43	1
55	55	8
40	40	15
41	43	2
21	62	1
116	116	8
34	34	21
17	33	2
10	10	18
87	90	3
98	100	2
99	102	6
12	75	4
17	18	4
13	14	8
26	77	1
37	80	5
47	47	21
30	34	2
35	36	4
18	18	12
90	92	1
81	81	12
91	92	6
93	99	1
79	83	3
41	41	3
23	74	2
94	94	9
106	107	4
0	0	4
45	47	1
96	101	2
44	84	7
79	80	12
115	117	1
88	106	3
114	115	2
57	57	5
25	27	1
14	16	3
21	25	5
11	27	1
3	11	2
12	17	1
101	102	1
29	49	2
15	20	2
87	88	3
14	15	6
5	6	10
15	32	2
15	15	13
121	122	4
129	131	1
25	26	6
94	96	1
109	131	2
10	16	1
129	130	4
85	91	3
67	69	1
64	73	1
83	84	4
114	114	5
15	21	3
56	57	5
18	42	1
11	15	1
76	123	2
33	75	3
42	71	1
94	95	11
133	133	3
77	78	11
125	125	5
94	97	4
51	51	3
71	73	2
30	32	1
37	59	1
6	7	7
83	94	4
62	72	2
25	47	1
60	62	1
38	80	1
109	130	2
24	24	2
48	55	1
118	119	3
75	76	2
12	18	1
62	67	1
16	19	2
17	25	1
92	93	3
100	104	1
93	103	2
112	112	7
88	89	1
46	47	1
84	85	6
79	93	1
120	121	1
115	116	3
105	105	3
132	132	2
29	30	2
6	6	8
131	132	1
42	42	14
62	66	3
76	122	1
69	86	3
83	87	2
1	2	2
46	61	1
28	96	2
71	72	4
94	102	2
45	100	1
100	101	3
96	100	3
57	61	3
31	35	1
95	96	4
40	43	5
8	15	2
48	49	2
20	70	1
21	21	7
45	70	6
21	28	1
39	82	2
21	57	2
27	93	1
27	29	3
80	81	5
32	45	3
76	120	4
72	73	12
18	19	6
39	95	1
51	56	3
48	50	3
18	60	1
102	102	4
93	134	1
112	113	3
58	85	1
34	35	4
66	83	1
66	101	1
1	1	3
23	99	2
39	93	2
96	97	9
95	97	5
27	30	3
27	97	1
4	6	2
36	132	1
104	105	1
44	86	1
24	26	3
35	37	2
54	81	1
39	96	1
22	35	1
90	100	1
11	13	3
91	97	1
10	21	1
60	126	3
59	78	1
81	83	2
48	82	1
40	94	1
2	46	1
65	74	1
4	59	2
35	62	1
10	11	6
110	110	4
28	80	2
23	26	3
103	104	1
108	111	2
45	77	4
19	20	1
28	79	5
0	1	1
21	24	1
83	86	2
85	87	4
57	58	1
35	131	1
8	14	1
110	111	5
105	106	2
107	110	1
37	97	3
21	85	3
7	25	1
88	98	2
54	55	1
80	93	1
107	107	5
116	117	1
128	129	1
22	27	3
20	20	4
105	107	1
83	90	1
69	70	2
113	116	3
46	96	1
123	124	2
43	46	2
38	97	3
85	88	1
3	12	2
20	77	1
28	41	1
51	79	2
34	134	1
24	25	3
89	90	2
96	98	2
3	20	2
115	129	1
36	130	1
34	36	2
8	9	1
123	134	1
56	58	1
27	28	3
102	114	1
98	102	1
35	130	1
40	99	2
87	106	1
36	46	1
26	93	3
10	47	1
102	126	1
113	128	2
3	129	3
26	98	1
12	14	1
29	32	1
40	48	1
86	87	2
86	88	1
60	78	3
17	44	1
50	57	2
50	50	1
6	20	1
13	18	1
86	89	1
114	129	1
112	127	1
40	41	3
133	134	1
20	60	1
93	96	1
78	81	2
95	111	1
27	91	1
2	12	1
130	134	3
89	91	2
104	104	2
39	131	2
85	107	2
36	60	1
43	44	2
47	48	1
83	88	2
84	88	2
68	71	1
28	89	1
115	130	3
62	81	1
102	104	1
28	83	1
113	127	1
41	81	1
57	59	1
29	60	1
128	128	2
80	85	1
100	124	1
122	122	1
84	115	1
9	11	1
63	124	1
57	78	1
36	97	1
5	7	2
117	125	1
128	133	1
56	82	1
38	39	1
97	134	4
91	100	1
11	26	1
8	36	1
10	59	1
60	71	1
128	132	2
30	60	1
27	79	1
31	79	1
67	68	1
36	131	1
84	96	1
85	101	1
75	122	1
26	47	1
27	96	1
12	46	1
20	25	1
25	48	1
102	106	1
29	31	1
117	123	1
29	42	1
41	44	1
39	81	1
118	126	1
