11	11	42
13	13	44
51	51	27
0	1	14
58	58	46
2	4	3
56	56	21
34	34	48
49	49	36
42	42	26
20	21	8
28	56	6
40	40	24
38	38	24
33	33	40
30	31	5
50	50	37
15	15	42
6	7	2
41	41	32
37	38	1
28	28	9
1	4	1
12	12	22
2	36	3
19	19	46
50	51	6
46	46	36
2	2	34
5	5	28
11	19	3
58	59	9
9	9	22
40	41	21
16	16	62
39	39	36
14	15	3
22	23	8
40	58	2
0	0	16
1	1	61
45	45	40
42	44	1
49	50	7
17	17	66
18	18	60
36	37	7
38	39	6
47	47	47
8	8	19
43	43	17
7	7	16
53	54	3
54	54	16
35	35	36
14	46	5
29	39	2
55	55	32
14	14	44
32	32	22
21	22	5
9	10	4
45	46	10
30	32	5
33	34	7
20	20	20
5	7	4
7	9	1
41	50	1
23	23	7
44	44	16
4	4	28
48	51	3
36	36	25
22	22	7
17	18	5
35	38	3
16	17	18
34	39	2
29	29	9
53	53	23
38	45	1
15	16	19
52	52	17
11	12	7
10	10	36
3	4	7
48	48	17
13	14	9
20	22	11
59	59	10
6	6	14
34	49	4
22	24	2
33	35	2
3	3	45
4	5	5
10	13	3
41	42	7
46	47	8
1	2	4
43	44	11
28	39	2
33	39	3
19	20	10
2	5	3
21	21	10
54	58	8
12	13	8
29	56	4
54	59	2
40	48	1
31	32	8
56	57	10
31	31	24
18	19	5
22	51	2
28	32	3
57	57	7
29	31	6
51	54	6
47	48	7
12	32	4
43	45	3
21	23	4
15	51	2
23	51	2
12	31	1
33	36	1
36	39	1
28	31	4
55	56	7
23	24	10
1	10	4
39	44	2
52	56	1
52	54	6
48	49	8
3	10	2
8	41	1
28	29	2
52	53	5
54	55	4
44	45	10
30	33	3
32	33	8
8	40	1
30	30	16
2	3	4
39	40	10
5	6	3
37	37	6
7	40	3
47	50	1
29	30	4
21	24	3
31	33	2
6	13	2
15	29	1
39	48	1
24	24	3
17	50	4
11	13	3
14	17	3
57	58	5
34	35	6
36	38	4
49	52	1
13	18	1
10	11	3
10	14	4
14	20	2
32	36	2
7	13	1
12	16	1
24	51	6
8	9	4
35	36	2
50	59	1
28	38	1
14	23	3
16	55	1
17	56	1
9	18	2
18	36	1
13	15	2
15	43	1
42	43	3
16	51	1
6	48	1
50	55	1
2	6	4
31	36	1
7	8	4
27	27	3
6	12	2
45	48	3
52	55	1
3	50	2
29	38	1
7	12	1
14	47	1
28	30	1
38	40	1
32	35	1
32	38	3
49	51	1
30	38	3
18	41	1
4	7	1
18	34	1
1	12	1
16	56	1
30	55	2
56	58	1
7	15	1
19	50	1
14	16	1
0	4	1
19	21	1
0	11	1
13	35	1
42	48	1
12	19	1
34	38	1
41	48	1
16	54	1
42	54	2
51	53	1
0	2	1
7	41	1
29	35	1
35	52	1
9	13	1
0	12	1
28	36	1
41	47	1
