33	34	5
165	165	3
42	42	3
37	37	5
38	38	4
82	82	9
84	84	6
35	38	2
167	167	5
47	48	11
1	1	2
153	153	1
55	92	3
163	163	7
121	121	2
144	144	2
41	50	2
89	89	4
108	108	7
133	133	10
111	125	5
17	17	5
152	154	2
43	43	4
13	13	1
55	55	1
45	46	6
37	38	3
122	122	3
170	170	3
46	47	5
57	57	7
54	54	3
74	76	2
24	24	1
141	141	8
35	35	1
110	111	3
40	44	3
12	75	1
48	48	6
12	12	6
2	2	3
147	147	3
72	74	5
157	157	5
1	11	2
10	10	6
2	4	2
134	134	4
95	95	2
162	162	1
26	26	1
58	66	2
98	99	3
2	3	2
41	41	1
123	123	9
65	67	1
124	124	4
58	58	3
101	101	1
28	28	2
86	97	1
151	151	6
67	115	1
18	19	2
49	65	1
81	81	2
39	41	1
9	9	5
14	130	1
168	168	2
43	44	4
158	158	1
39	39	3
5	6	2
114	123	1
36	37	2
24	25	7
23	23	4
107	107	3
111	111	5
110	110	3
20	20	1
119	121	3
50	50	3
48	49	3
122	125	3
159	159	3
15	123	3
39	40	2
128	128	1
47	47	2
44	45	1
89	90	2
140	140	1
136	138	2
129	129	3
34	137	1
161	161	2
70	70	4
148	148	1
35	73	2
10	148	4
99	99	4
7	7	1
114	125	1
136	137	6
16	16	1
0	0	1
36	36	4
151	152	1
116	116	1
6	7	1
37	42	2
71	72	4
146	146	2
119	119	1
121	125	1
79	81	1
44	44	1
0	1	5
125	127	2
133	138	1
14	14	2
168	169	4
63	63	2
65	116	1
165	166	3
154	154	2
80	81	3
88	88	3
69	69	1
52	116	1
127	127	1
86	86	2
66	66	1
46	46	1
9	10	1
134	135	1
7	21	1
138	138	3
162	163	2
2	52	2
88	89	1
40	40	1
3	3	1
16	17	3
62	62	1
78	78	2
139	140	1
107	111	1
101	103	1
152	153	2
102	102	1
3	4	1
97	98	1
114	114	1
144	149	3
23	152	1
136	142	1
17	27	1
111	112	1
145	146	1
105	106	1
161	162	2
149	151	1
73	73	1
156	158	1
70	116	1
44	64	3
51	51	1
109	109	1
27	27	1
97	97	1
2	7	1
157	158	1
85	85	1
94	94	1
142	143	1
