120	120	14
86	87	6
101	101	5
29	94	1
30	30	15
68	68	14
17	17	5
98	98	6
64	64	8
123	123	12
54	54	17
20	20	12
24	25	3
73	73	8
56	56	17
78	79	1
52	52	14
29	29	13
111	111	5
140	140	8
25	25	4
53	54	5
35	36	10
66	66	12
106	106	11
38	38	13
5	5	10
37	37	8
67	67	4
40	40	17
118	121	2
89	90	9
96	96	15
47	48	3
90	91	9
134	134	21
133	135	13
75	75	7
66	67	5
130	130	16
63	67	3
128	131	1
16	28	2
1	1	7
90	127	2
135	135	9
114	114	5
117	118	8
36	36	3
141	141	15
31	38	2
68	118	4
36	37	9
41	60	1
19	20	3
80	128	1
99	99	7
116	117	13
117	117	9
79	80	4
27	28	3
20	21	5
3	4	3
59	59	2
136	137	3
21	27	1
84	84	7
39	39	6
95	98	2
93	94	3
139	140	6
127	127	14
65	65	8
108	113	3
9	10	4
136	136	4
11	11	6
92	92	6
138	139	8
121	121	5
129	129	20
70	70	6
120	121	4
61	138	3
61	62	2
23	23	11
90	90	8
53	53	12
52	132	2
21	21	10
137	137	7
73	74	5
124	129	4
125	125	9
3	3	6
128	128	10
91	125	2
4	4	4
8	8	2
63	140	3
125	126	2
85	85	5
28	42	4
119	119	12
105	105	8
27	27	15
104	104	13
97	97	10
115	115	3
55	55	10
111	112	1
81	81	4
51	52	10
132	136	2
80	80	9
143	143	16
94	94	11
118	118	8
61	61	7
93	117	6
83	109	3
32	33	1
123	124	7
88	88	4
124	124	8
62	63	5
51	51	5
53	81	2
47	47	10
63	63	6
0	0	4
22	22	15
79	79	3
107	107	8
110	110	9
85	86	6
19	19	8
88	89	4
53	67	2
18	18	15
8	17	1
41	41	9
6	40	5
16	20	2
35	35	5
65	66	8
19	21	4
64	65	4
113	114	3
142	142	7
15	18	3
33	33	9
34	34	11
42	42	6
112	112	4
46	46	1
66	68	4
140	141	8
102	102	4
131	141	2
126	127	3
26	26	10
122	122	4
11	30	3
51	54	2
92	94	1
77	77	3
50	50	4
98	99	10
91	91	5
26	143	1
19	24	5
14	14	4
5	6	1
95	95	10
10	10	5
32	42	4
69	70	1
10	24	1
17	18	4
84	85	2
3	8	2
131	131	16
58	58	5
128	132	1
31	32	2
63	65	5
86	86	3
133	133	4
80	81	5
32	32	3
62	65	2
43	43	6
110	111	5
63	96	1
55	102	2
74	81	1
140	143	1
135	136	6
1	2	5
104	120	2
4	5	4
2	2	3
119	122	3
69	79	3
100	100	11
104	105	3
128	129	3
18	20	1
82	87	3
128	142	1
78	78	4
56	75	1
5	12	2
137	140	3
39	40	1
65	67	3
124	125	3
63	80	4
51	69	1
71	96	3
16	27	1
71	124	3
39	58	1
118	119	2
108	108	3
48	48	8
28	29	5
52	53	2
83	83	2
136	138	2
68	70	2
103	103	3
34	36	1
56	57	2
74	89	2
67	68	3
64	104	3
76	78	1
71	71	5
100	104	3
26	133	1
26	27	2
83	85	1
132	132	13
40	41	2
89	89	8
57	57	2
109	109	4
49	50	1
112	113	2
144	144	1
74	74	10
67	70	3
83	84	4
49	49	7
67	91	2
88	97	1
125	127	2
59	60	4
14	26	2
109	115	1
1	9	2
70	71	2
23	24	2
77	80	1
104	112	2
89	92	1
20	25	3
118	132	3
50	51	5
63	64	8
116	116	2
27	31	1
126	126	6
16	25	2
60	60	7
94	95	1
114	137	1
3	5	1
72	72	10
102	127	1
106	107	4
79	131	1
115	117	1
1	62	1
42	49	1
82	112	1
4	96	1
23	138	4
31	31	1
132	133	2
0	1	1
37	93	1
92	93	3
40	56	1
9	35	1
100	120	4
29	30	2
83	110	1
1	66	2
94	106	2
103	104	1
133	136	2
39	41	1
38	41	3
95	96	1
133	137	3
67	74	3
0	132	4
99	100	3
69	69	1
15	16	1
54	55	2
107	118	1
25	26	5
41	42	2
12	12	1
26	33	1
66	75	1
10	11	6
136	141	3
118	135	1
34	35	1
139	139	2
79	83	1
15	36	1
129	140	2
100	101	1
109	114	2
47	74	1
21	22	1
48	49	2
131	133	1
40	96	1
143	144	1
124	130	1
62	62	3
87	87	1
63	70	1
145	145	1
76	77	1
12	38	1
81	137	1
75	76	1
53	142	1
51	60	1
119	120	2
46	47	1
89	91	2
74	90	2
53	122	1
1	97	3
13	14	1
122	123	1
77	78	2
9	29	1
28	28	3
23	25	1
89	97	1
85	87	1
22	28	1
84	110	1
27	144	1
105	106	1
71	74	1
109	110	1
47	81	1
127	128	1
40	134	1
