95	96	6
101	101	24
72	73	8
94	94	19
74	74	10
53	53	13
30	30	6
89	98	8
88	88	5
33	33	17
92	93	16
97	97	18
88	96	3
57	57	22
89	89	10
83	84	5
67	67	22
60	60	16
63	70	2
65	65	14
26	26	15
34	34	7
59	59	18
84	88	1
89	92	1
64	64	14
91	91	12
99	99	14
96	97	12
62	62	33
33	35	3
46	81	2
36	39	1
73	74	4
32	32	2
96	96	13
48	48	4
81	81	21
95	95	20
36	36	9
38	41	1
27	27	8
69	70	7
32	33	5
86	96	1
87	88	13
39	41	3
81	83	4
68	68	13
39	40	3
28	28	3
42	52	4
70	71	5
67	72	3
42	42	14
78	78	17
84	84	13
86	94	3
31	31	7
50	50	9
97	98	9
66	66	14
71	71	14
22	22	6
69	69	9
31	32	5
80	80	14
24	24	8
100	100	17
38	38	11
79	79	13
56	57	3
81	82	2
83	98	3
61	61	15
76	76	8
98	98	9
23	24	1
48	50	12
47	80	1
80	81	5
89	90	11
36	37	8
74	75	13
73	73	19
37	39	2
47	48	7
49	49	11
54	55	10
94	96	3
55	55	11
51	51	7
57	74	2
69	74	1
44	44	9
45	45	5
56	56	7
75	89	1
75	75	15
87	87	23
43	43	14
41	42	3
87	98	1
70	70	15
25	25	3
86	87	3
88	89	5
76	77	7
85	85	11
39	39	12
96	98	6
67	68	3
53	54	5
81	86	2
98	101	5
99	100	5
49	50	5
77	77	8
79	81	4
60	65	3
52	52	10
57	66	4
60	61	6
48	49	4
41	41	15
78	79	1
83	86	1
35	35	5
90	90	11
100	101	11
98	102	8
61	62	2
65	66	6
71	72	6
95	97	4
68	69	3
72	83	2
91	92	8
82	82	1
47	47	6
88	99	3
93	94	7
24	25	2
63	69	2
72	72	10
84	87	3
77	99	1
97	100	2
83	83	6
93	93	5
90	96	1
43	44	3
63	65	1
66	68	1
86	88	3
63	63	13
29	29	4
94	95	5
61	63	4
102	102	6
64	65	2
48	53	2
81	87	2
58	58	10
53	55	2
69	75	2
86	86	3
57	58	5
46	46	5
91	99	2
42	43	3
27	28	7
34	36	3
92	92	9
91	95	3
30	31	5
33	34	3
54	54	10
68	72	1
92	94	3
50	51	6
91	96	1
43	66	2
55	56	2
38	58	2
20	22	5
25	26	2
54	81	6
40	41	1
75	76	2
38	40	1
29	30	2
35	74	2
77	78	4
63	64	5
52	54	1
79	80	4
23	23	2
83	101	1
28	29	1
43	55	1
72	101	2
85	86	3
40	40	2
86	91	1
57	59	1
56	58	1
97	99	1
34	55	1
91	101	1
95	98	1
52	56	1
38	57	1
37	37	1
61	74	3
46	47	8
93	95	2
82	84	1
86	97	1
93	99	1
89	96	2
80	97	1
83	100	1
85	90	1
38	39	1
20	24	1
23	25	2
68	74	3
82	86	1
60	62	1
80	82	1
66	67	1
98	99	1
49	51	2
82	83	1
58	59	1
82	101	1
61	70	1
88	100	1
