128	129	12
85	98	5
6	90	1
129	132	1
5	5	3
71	71	16
84	85	5
133	133	16
109	109	10
10	11	3
112	112	12
19	19	10
99	99	3
8	32	2
125	125	12
136	136	9
114	114	6
101	115	1
109	111	6
137	137	13
111	111	8
100	101	2
106	108	3
87	87	12
26	26	3
72	73	4
140	140	10
34	80	2
11	11	15
38	38	7
121	122	8
103	103	4
33	33	8
118	119	4
132	132	16
2	2	16
105	105	10
130	130	10
68	80	3
25	27	4
102	102	6
112	116	2
37	111	2
113	114	7
97	97	4
1	1	13
29	109	5
108	110	3
126	126	11
93	93	3
0	0	7
75	77	4
124	125	9
92	92	5
122	122	28
139	139	9
95	95	5
104	104	8
9	9	10
13	13	10
89	89	11
86	86	8
15	21	3
27	30	1
131	131	4
21	21	13
117	117	11
91	91	2
126	127	10
74	74	4
113	118	4
72	72	8
4	5	3
83	84	1
30	31	4
10	10	4
130	131	6
119	119	8
123	123	12
23	23	4
83	85	4
23	28	2
8	21	3
130	140	1
75	75	10
8	82	3
73	73	7
138	138	2
134	134	12
77	78	3
24	24	3
103	121	3
7	15	3
78	78	7
20	20	4
121	123	2
1	2	13
18	18	3
113	113	17
117	119	1
37	80	5
90	90	6
30	30	5
3	3	6
88	88	9
37	38	2
86	87	3
108	109	2
110	111	10
108	108	11
98	98	16
28	28	4
87	90	2
128	133	3
8	8	2
4	4	7
128	128	9
99	115	2
94	94	2
76	76	6
122	123	3
71	98	4
7	7	2
110	110	9
6	6	2
3	4	4
23	31	2
96	96	6
106	107	7
75	107	1
79	79	6
124	124	12
99	100	2
24	26	1
14	14	1
86	103	2
81	81	6
100	100	3
101	101	9
17	17	9
113	120	1
90	91	1
22	22	3
109	110	1
75	76	3
15	15	4
114	117	2
7	19	1
2	3	4
88	89	4
120	121	1
129	129	7
3	112	1
115	115	3
27	73	2
9	11	1
7	11	4
111	113	3
83	83	4
35	100	3
103	111	1
77	77	1
35	35	3
106	106	3
9	10	1
105	107	2
25	25	7
114	115	3
87	88	1
22	24	2
116	116	6
3	31	2
12	83	3
15	20	2
34	34	3
38	39	2
36	36	2
0	1	2
127	127	3
102	103	1
16	16	6
72	79	1
74	76	1
93	94	3
1	3	2
115	116	2
10	12	3
107	118	2
102	112	2
125	126	3
100	114	4
107	108	1
21	22	3
104	106	3
123	125	2
123	124	5
4	113	2
104	105	2
15	17	1
79	80	5
7	10	2
113	119	1
98	100	4
3	8	1
6	88	1
9	26	2
131	137	4
8	9	2
119	120	3
107	122	1
80	80	3
84	84	6
32	32	4
101	103	2
93	108	4
135	135	9
11	12	2
71	76	2
108	122	1
127	129	3
18	34	1
22	78	1
27	38	4
1	28	1
89	90	3
23	24	2
87	116	2
12	77	1
135	136	1
132	133	1
12	20	2
37	37	3
28	30	3
89	94	1
87	103	1
10	25	2
37	86	1
120	120	1
19	25	1
80	81	2
108	112	1
13	14	2
118	118	1
71	75	3
34	35	2
102	107	2
83	129	1
129	140	2
30	32	1
73	74	1
36	100	1
79	81	2
5	6	2
105	108	1
97	98	1
136	137	1
116	117	1
7	16	1
112	113	2
11	83	4
129	135	1
119	122	1
81	82	1
29	33	1
4	102	1
25	26	2
122	124	1
12	19	2
107	112	2
85	85	2
28	37	1
121	121	2
98	99	1
126	129	1
9	16	1
13	23	1
7	8	2
80	82	1
129	130	1
101	102	1
102	111	1
36	89	1
29	29	2
82	85	2
29	77	1
13	25	1
91	94	1
93	105	1
9	14	1
104	108	1
81	140	1
30	37	1
31	33	1
73	75	1
36	37	1
107	123	1
22	23	1
0	5	1
136	140	1
122	127	1
7	9	1
133	134	1
36	38	1
