10	13	2
8	8	16
49	54	5
77	78	14
79	79	26
87	87	12
78	78	16
77	77	17
15	15	17
51	51	21
27	27	21
58	58	17
5	5	21
89	89	15
62	62	21
20	49	1
85	85	20
68	71	4
4	4	27
59	59	24
11	11	22
50	51	9
72	72	13
19	20	5
5	6	4
15	16	9
81	81	18
69	69	11
66	81	3
13	83	2
33	33	3
82	82	9
20	21	4
74	75	5
55	83	2
76	77	19
75	84	4
52	52	15
63	63	15
66	66	19
67	67	24
53	53	17
0	0	11
61	62	4
20	50	7
28	28	9
64	64	13
29	29	7
20	20	15
9	9	9
63	64	12
7	7	11
65	66	19
61	65	2
6	7	4
47	48	6
11	17	2
3	3	28
23	23	15
6	6	30
18	18	8
16	16	6
60	72	5
10	10	15
13	13	8
78	80	5
61	61	14
31	31	21
32	32	3
61	71	3
50	50	18
1	1	20
19	19	22
51	58	1
47	47	19
68	69	9
65	65	12
49	62	1
86	86	21
25	27	2
49	49	13
63	82	1
5	47	2
83	83	24
72	73	7
34	34	7
64	65	7
48	48	21
56	56	17
24	24	22
12	83	1
85	86	3
16	18	1
70	70	6
64	66	8
55	62	4
12	16	4
71	83	2
25	26	4
7	17	3
22	23	3
30	30	10
20	26	3
22	22	13
82	83	12
55	55	14
80	80	24
54	54	10
49	77	3
51	52	2
86	87	3
60	60	12
63	83	1
24	25	7
56	59	1
54	55	3
53	54	8
75	75	14
84	84	10
11	15	1
46	46	6
68	68	13
82	84	7
67	68	3
9	17	3
21	21	10
13	27	5
56	57	6
58	61	2
55	56	5
28	29	2
15	18	2
6	52	5
77	80	7
48	52	1
19	26	2
17	17	17
60	62	5
78	82	1
72	81	2
49	52	3
57	57	19
21	22	2
23	24	5
80	82	3
55	65	3
11	12	9
73	73	25
2	2	18
23	26	2
9	10	5
27	46	1
48	59	3
53	62	2
13	17	1
71	81	1
58	59	4
46	48	1
74	74	14
90	90	4
62	64	4
77	84	7
12	12	19
80	81	6
64	79	3
17	21	2
76	76	18
17	27	1
79	80	5
12	13	3
52	55	6
52	60	6
3	4	5
13	63	4
62	71	4
68	83	2
66	68	4
21	26	2
10	27	1
22	25	3
75	76	7
53	59	5
12	51	1
71	71	10
49	50	6
1	2	8
14	14	7
13	71	3
19	22	2
57	58	2
8	17	1
53	60	3
56	67	2
6	8	4
0	1	8
19	49	2
56	58	1
7	8	4
8	24	3
56	62	2
27	28	1
26	61	1
59	60	6
25	25	8
79	81	7
66	72	2
9	21	4
70	81	7
60	71	2
4	5	2
10	26	2
31	32	2
53	55	4
88	89	2
58	60	3
14	22	1
21	25	2
75	77	4
83	84	3
88	88	7
19	25	2
81	83	3
64	78	3
71	72	1
60	61	3
48	49	4
5	53	1
26	26	4
78	79	3
19	54	7
8	9	5
76	78	1
66	67	3
75	79	2
7	51	2
49	65	3
72	78	1
54	57	2
75	87	2
48	61	1
17	18	2
72	84	2
66	75	2
60	79	1
21	83	1
14	64	1
6	9	1
50	52	2
13	82	1
26	27	2
77	81	2
60	63	2
50	57	2
17	19	1
63	65	2
84	86	2
75	83	1
75	88	3
49	63	2
63	76	1
47	49	1
85	87	2
35	35	2
7	52	2
87	88	2
75	81	1
73	74	1
68	81	1
62	63	3
62	70	3
65	76	1
8	23	1
60	73	3
87	89	1
12	80	2
65	73	1
1	88	1
52	56	2
70	82	1
24	30	3
4	53	1
22	50	2
2	86	1
19	21	1
6	51	2
63	73	2
64	76	2
66	74	1
17	22	2
13	14	2
54	62	1
46	47	2
26	63	1
18	19	1
19	27	2
73	84	1
58	66	1
54	67	1
29	30	2
89	90	1
11	22	4
53	61	1
49	80	1
10	11	2
61	69	1
16	17	2
12	67	1
33	46	1
9	23	1
61	64	1
27	67	1
2	3	1
71	82	1
48	53	1
5	8	1
49	64	1
64	82	1
11	27	1
47	51	1
28	46	1
69	80	2
80	84	2
51	65	1
