48	51	2
44	44	3
33	33	20
155	155	12
124	124	16
67	67	13
4	5	6
132	133	6
123	123	17
118	118	6
96	96	10
104	104	19
128	128	18
137	137	19
149	150	11
40	150	5
16	149	10
17	17	9
41	41	9
132	132	11
104	111	2
12	13	5
2	2	15
66	67	4
92	92	16
131	131	8
27	27	14
51	51	17
138	139	2
117	137	2
138	155	2
135	136	8
18	18	7
9	9	5
34	141	4
75	75	16
25	25	8
54	56	2
134	134	9
31	31	9
29	29	10
119	119	16
74	74	3
43	131	4
54	54	10
22	32	4
68	69	6
94	94	17
86	87	11
23	41	4
39	148	6
37	37	9
3	3	10
147	148	2
97	97	3
6	9	5
82	82	14
158	158	26
111	111	4
152	152	10
7	7	25
65	66	8
100	101	6
80	84	2
47	47	19
153	153	20
55	55	5
56	56	4
34	34	21
116	116	13
7	36	7
141	141	8
109	110	10
138	138	17
83	84	7
3	21	3
149	149	8
69	70	3
113	115	5
114	115	11
19	19	2
113	113	6
92	104	10
146	146	1
148	148	13
35	36	9
88	90	4
5	5	14
156	156	8
157	157	4
44	157	10
103	103	8
8	8	11
16	87	3
17	149	2
126	126	5
116	129	1
19	20	6
52	54	8
41	42	6
121	121	12
24	24	14
39	45	2
73	74	7
133	133	6
87	89	12
89	89	10
20	20	4
87	87	25
4	4	13
4	42	5
80	80	16
26	27	7
81	81	19
109	109	5
40	96	4
146	147	1
95	95	11
119	138	1
77	77	9
50	50	12
142	142	13
144	144	5
43	43	14
136	137	4
104	105	5
0	0	8
124	125	5
40	139	2
46	47	11
133	135	8
32	32	10
78	80	1
123	125	8
99	99	8
24	25	7
21	21	4
93	95	11
92	118	2
80	81	7
140	150	1
147	147	7
98	98	15
93	118	4
40	41	6
115	115	18
117	117	7
80	103	1
83	83	5
150	150	9
105	105	11
81	104	3
14	14	7
129	129	5
37	71	7
84	84	4
39	64	4
48	48	10
151	151	14
30	31	1
9	10	2
155	156	8
110	110	13
131	133	1
130	131	5
119	126	3
131	139	4
92	117	5
82	95	5
38	38	6
116	117	10
129	130	7
65	65	10
119	152	2
107	107	12
122	123	2
87	90	3
15	15	2
52	52	10
101	101	16
48	49	5
37	67	2
6	7	3
75	98	3
51	52	2
12	12	7
41	43	2
23	23	9
88	89	12
142	148	1
120	120	10
10	10	10
70	70	4
17	18	5
7	11	5
121	136	4
112	112	13
86	86	22
11	12	3
46	46	17
28	29	13
93	93	9
78	78	9
4	6	1
88	88	4
76	78	7
87	88	1
130	130	17
50	54	1
137	138	2
41	44	2
125	138	5
92	110	2
115	123	3
115	117	4
135	135	14
100	100	13
108	108	8
26	26	6
39	39	16
28	28	15
154	154	6
108	111	5
106	106	15
117	118	1
146	156	1
33	35	1
107	112	1
16	16	7
45	45	7
49	49	5
4	95	4
150	151	5
82	112	2
91	91	12
79	80	1
153	154	4
6	6	25
23	24	10
17	88	2
139	139	11
1	1	8
50	68	1
11	11	2
24	30	4
145	145	6
157	158	7
122	122	7
22	27	1
40	40	10
109	126	4
68	68	3
139	140	3
102	105	2
115	116	7
73	75	2
11	31	6
63	64	2
127	127	11
131	132	5
91	92	3
115	135	2
129	131	4
124	127	3
12	30	3
54	55	3
116	144	2
25	27	1
136	136	4
19	40	2
131	144	2
22	24	3
144	146	3
22	22	10
93	97	2
45	157	3
36	72	1
137	156	1
73	73	11
142	143	1
35	35	6
145	146	5
64	64	4
98	99	3
0	5	1
7	9	5
71	71	4
30	33	1
90	91	2
150	156	4
95	96	4
1	93	1
34	35	3
36	37	7
22	23	2
97	98	3
62	63	2
45	46	5
80	100	1
77	78	10
90	90	4
117	130	1
116	122	1
81	82	3
43	132	1
108	110	3
126	145	1
57	57	2
126	127	3
118	119	1
36	36	5
111	112	5
46	65	1
91	104	2
83	92	4
39	138	2
75	105	2
66	66	4
4	151	1
46	64	1
115	129	2
94	100	2
105	106	3
91	103	4
55	56	3
40	95	1
129	135	5
50	51	6
72	72	5
1	2	2
15	16	1
49	53	2
125	148	1
3	15	2
79	79	11
53	54	2
25	26	7
75	88	2
7	12	2
119	120	4
128	138	1
77	95	2
30	30	5
106	107	7
10	11	4
4	12	1
56	64	2
12	35	1
120	152	1
80	82	1
7	8	1
107	111	3
84	106	2
112	115	6
27	28	2
40	125	1
139	156	4
148	149	5
84	92	1
36	71	1
143	143	4
17	20	2
67	71	2
2	139	2
87	102	1
76	92	1
6	93	1
3	152	11
120	121	4
120	122	1
116	132	1
125	125	3
94	118	1
50	157	2
96	97	2
33	36	3
51	66	1
99	100	3
18	19	3
40	42	2
43	157	2
130	140	1
25	30	2
56	57	1
122	153	1
158	159	3
102	117	1
109	112	2
81	92	2
55	65	1
3	20	2
79	82	3
14	87	2
2	6	2
12	24	1
77	92	2
8	13	1
13	13	2
14	15	5
26	31	1
42	42	6
55	68	2
50	138	2
89	91	1
151	153	1
25	29	2
71	72	1
30	34	1
37	38	1
7	10	2
70	72	1
92	120	1
77	79	2
39	40	3
136	154	1
31	33	1
126	147	2
32	34	1
87	91	1
75	111	2
87	130	3
48	50	1
33	34	2
50	158	3
84	85	1
77	82	1
107	108	4
152	155	1
4	13	1
15	19	1
69	71	1
101	105	3
141	150	2
118	120	2
19	21	1
3	4	2
126	139	2
40	43	2
141	147	1
0	158	1
53	53	2
85	86	2
156	157	1
3	130	1
50	156	2
128	129	1
114	114	4
151	152	1
125	126	1
128	130	1
102	104	1
20	21	1
110	111	2
119	121	1
2	141	2
3	132	1
152	153	1
126	144	1
109	111	2
45	158	2
80	94	1
12	151	1
69	69	1
10	12	2
48	66	1
22	36	1
74	75	1
141	145	2
127	151	1
3	12	1
77	102	1
16	90	1
75	115	1
147	154	1
48	54	1
12	31	1
7	17	1
142	156	1
42	43	1
48	57	1
3	139	1
145	147	1
133	141	2
79	102	1
120	138	1
16	17	1
49	50	1
154	156	1
2	155	1
123	152	1
132	134	1
47	51	1
138	157	1
77	98	1
