19	19	9
47	47	9
41	44	1
23	126	4
9	9	11
36	36	9
102	102	14
79	79	9
1	1	3
74	75	8
72	72	13
35	37	4
87	133	2
64	64	8
110	110	11
117	117	5
27	27	10
45	45	7
62	62	8
20	85	2
86	86	8
87	88	3
12	12	13
46	46	7
56	56	5
42	43	4
35	36	4
33	33	4
39	39	3
56	94	2
125	131	1
38	39	6
14	14	4
39	40	5
84	88	4
2	2	7
60	125	3
123	124	5
62	63	3
68	69	6
95	95	8
87	87	14
75	75	8
66	118	4
113	115	1
23	25	2
77	77	9
13	107	2
103	105	11
123	123	1
51	51	3
84	84	8
61	61	17
22	22	4
42	42	4
21	21	10
104	104	1
16	16	4
81	81	8
56	60	8
5	22	1
58	58	2
83	83	7
65	65	3
118	119	3
61	62	8
26	81	3
76	76	5
34	93	2
90	91	9
47	93	4
93	94	4
45	63	5
103	104	4
39	41	1
13	13	6
132	133	1
34	34	15
29	61	1
74	74	7
107	107	8
82	82	2
32	32	2
80	80	2
127	131	5
88	133	2
101	102	3
15	15	1
96	100	3
27	32	1
100	100	22
85	85	6
24	25	4
77	93	1
45	79	1
63	63	9
11	20	5
133	133	6
97	97	8
109	110	3
29	30	6
20	75	2
30	30	11
6	15	2
111	111	2
73	83	1
118	118	3
100	104	2
90	101	1
26	26	8
117	133	2
93	93	8
44	44	12
121	130	2
88	88	4
101	101	12
35	35	8
37	39	3
37	77	3
103	103	5
67	67	2
132	132	9
18	129	1
13	77	2
43	43	4
9	10	2
18	19	2
26	47	5
99	99	10
10	10	7
29	29	6
68	68	6
92	92	8
57	58	7
55	55	1
60	61	2
0	0	7
41	45	1
37	37	5
30	32	3
21	25	2
20	21	2
79	80	9
3	3	7
35	74	2
38	79	3
8	10	1
119	126	1
91	97	1
16	32	3
15	56	1
92	93	2
57	98	2
41	41	8
21	59	6
24	24	6
8	8	2
13	17	5
40	45	1
66	68	1
108	108	6
58	59	2
11	11	13
90	97	6
51	57	2
121	121	2
60	60	8
131	131	5
96	96	6
4	4	6
125	130	1
11	77	4
125	127	1
90	90	5
29	48	3
94	121	1
89	107	1
78	79	2
3	48	1
28	28	6
48	59	2
46	71	1
80	81	4
120	120	3
77	82	1
18	29	6
7	7	11
95	96	2
20	20	2
77	78	2
23	130	2
66	66	5
55	56	1
20	81	2
25	26	3
116	134	4
113	113	3
3	27	2
86	107	1
91	91	11
14	98	2
25	25	5
41	70	1
93	131	2
6	7	4
78	81	1
10	11	2
115	115	6
48	48	3
26	45	1
128	128	1
126	126	2
23	131	1
104	105	2
22	30	1
34	75	3
90	93	2
18	18	7
31	32	5
78	86	1
55	99	1
59	60	1
40	44	3
48	78	1
36	40	2
26	40	4
69	69	3
57	84	3
26	55	2
99	100	3
26	80	2
89	97	2
73	111	2
27	28	2
85	87	1
102	103	2
82	106	1
44	45	4
11	80	2
40	40	3
68	111	3
83	85	2
15	23	4
68	70	1
6	6	4
70	70	2
116	116	3
73	73	6
48	97	2
93	97	3
4	56	4
31	31	3
97	100	2
55	94	2
27	93	3
112	114	1
105	105	3
67	68	2
60	78	1
15	57	4
43	81	2
5	36	1
7	8	1
40	41	1
12	99	1
97	98	2
5	6	2
67	118	2
125	125	2
94	132	1
59	94	1
5	5	4
59	59	5
9	14	3
27	86	3
108	125	1
124	124	3
11	93	1
4	79	2
126	132	2
119	119	2
65	66	1
38	38	2
75	76	2
124	131	1
94	94	4
62	73	1
12	13	2
62	75	1
23	24	1
116	117	2
25	126	1
89	89	2
8	26	1
13	14	3
78	83	2
7	84	2
20	32	2
93	116	1
55	92	1
134	134	1
17	17	2
112	113	2
106	106	1
38	86	1
61	112	3
96	97	1
56	113	2
101	108	2
27	80	1
89	96	1
27	81	1
26	93	3
127	127	1
103	108	1
77	80	1
41	71	1
58	83	2
0	1	2
37	86	1
21	57	1
130	131	1
50	87	2
16	56	2
51	56	1
3	56	2
24	44	1
129	129	2
47	66	2
32	93	1
36	37	1
23	23	3
57	57	1
69	111	1
100	102	2
4	5	1
41	42	2
19	20	1
33	93	1
2	12	1
4	35	1
108	109	1
34	35	1
11	31	1
29	86	1
90	92	1
71	71	1
9	96	1
49	49	1
47	48	1
3	5	1
3	4	1
13	32	1
3	37	1
97	99	2
27	82	1
91	101	1
37	40	1
37	38	1
66	69	1
