86	87	8
11	17	1
29	29	9
31	53	1
65	71	4
65	65	13
71	74	4
61	64	2
65	87	5
75	75	16
27	27	8
11	11	7
58	75	5
53	53	11
51	51	5
82	82	7
21	21	2
68	68	5
77	77	6
75	76	1
88	88	5
5	5	12
52	52	13
55	55	10
9	20	3
6	6	8
56	56	15
17	17	4
7	7	3
72	74	3
60	60	4
19	19	8
65	76	3
23	23	7
57	58	3
30	30	5
25	26	4
70	70	7
84	84	17
10	10	5
9	9	8
12	12	10
4	5	2
47	52	2
54	54	11
63	63	5
86	86	1
69	69	14
13	13	5
79	81	1
65	66	6
68	69	9
59	59	4
82	83	3
16	16	1
72	73	4
67	67	13
81	81	14
73	73	5
71	71	5
64	66	5
48	48	6
53	54	12
25	25	9
5	55	4
58	58	12
23	25	2
49	49	12
71	76	1
51	52	7
57	57	15
66	68	4
14	14	5
72	72	10
79	79	3
50	51	2
80	80	3
31	31	6
1	1	6
24	24	18
66	66	8
4	4	6
15	15	5
26	27	7
58	59	3
69	70	3
61	62	2
10	19	2
12	17	4
46	46	12
70	71	4
51	56	3
74	74	4
47	47	5
22	22	4
22	24	5
25	82	3
62	63	5
75	88	3
57	74	1
23	27	3
84	85	1
50	50	4
8	8	7
80	83	2
47	48	5
76	76	5
9	10	3
31	55	2
68	75	2
50	52	3
2	2	8
20	20	4
1	3	7
64	64	8
50	56	3
71	72	3
77	78	7
81	83	2
66	69	3
62	69	3
18	18	2
61	61	8
47	63	1
67	68	5
0	0	1
52	53	2
26	26	7
5	56	1
89	89	4
73	75	1
54	55	3
59	64	3
0	88	1
83	83	4
15	16	3
0	1	2
76	77	2
60	61	2
78	80	1
65	81	1
28	28	7
28	29	5
9	13	1
5	6	1
3	3	6
20	23	1
78	81	1
59	60	2
25	56	1
75	84	2
83	84	1
74	75	1
69	74	1
21	23	1
1	2	1
56	57	1
67	89	2
12	13	2
56	58	3
48	58	1
12	30	1
67	87	1
85	87	3
23	24	1
24	25	2
74	76	1
3	4	2
48	52	2
13	17	1
77	79	2
11	15	1
66	77	1
48	67	2
3	86	1
57	67	1
72	80	1
47	78	1
48	59	1
27	30	2
3	57	1
15	17	1
8	9	1
0	2	1
17	18	2
49	52	1
79	80	1
13	16	1
85	85	2
19	21	1
49	50	1
