75	75	5
198	199	2
101	101	8
174	221	3
156	156	11
194	194	2
108	236	2
223	224	7
6	20	1
187	191	4
207	212	4
95	95	10
109	110	1
62	62	20
119	119	15
150	150	11
175	175	8
202	204	3
26	27	6
61	61	5
100	101	7
231	231	6
76	76	17
85	85	7
53	53	9
162	162	7
1	23	3
29	29	9
84	84	4
235	237	5
186	188	3
199	199	7
226	226	4
58	72	3
246	247	4
229	230	2
237	237	7
239	239	8
245	245	4
32	32	7
187	187	8
72	74	5
168	168	10
207	229	3
176	177	5
23	23	9
20	21	1
216	217	3
26	26	5
76	77	8
115	115	9
241	243	5
154	154	9
201	201	8
19	29	1
153	153	20
169	169	7
180	181	2
44	68	2
172	172	19
184	184	5
88	88	5
186	186	16
18	18	7
2	37	5
20	20	18
213	214	11
155	156	2
181	190	1
69	69	6
16	16	6
59	60	4
14	30	3
178	188	7
52	53	1
176	191	3
144	145	3
34	35	2
82	90	1
80	80	3
77	78	8
203	204	6
152	152	11
151	152	1
192	200	4
22	22	4
214	219	5
44	45	4
7	32	1
245	246	4
94	94	3
40	40	3
36	36	4
246	246	3
182	182	7
113	113	8
214	215	7
45	45	6
224	224	15
10	10	14
58	58	10
210	210	5
27	27	4
163	189	4
180	182	3
56	61	2
162	163	5
169	224	5
211	211	6
213	213	15
165	166	13
174	176	3
248	248	11
151	151	13
98	98	4
215	215	9
163	163	5
151	166	2
5	5	13
58	75	3
193	223	4
25	25	5
219	219	3
197	197	10
51	51	9
49	49	4
19	19	12
164	164	8
200	223	3
110	112	1
151	156	4
203	203	7
89	89	6
70	71	1
20	49	1
57	58	10
32	200	3
92	92	5
38	38	3
7	7	5
231	232	4
41	42	5
183	230	1
211	236	2
58	62	1
11	224	3
182	190	4
14	33	2
206	206	12
225	225	6
188	227	4
173	174	5
14	14	8
48	48	7
172	217	1
82	115	2
6	28	6
238	248	3
9	9	10
101	102	3
9	10	4
65	65	5
6	6	8
185	186	2
242	242	9
167	167	13
229	234	5
69	70	6
42	52	1
168	169	3
160	160	4
208	208	11
242	246	3
185	195	1
209	209	12
116	116	4
3	3	6
179	182	1
176	176	5
24	39	3
82	82	8
42	42	6
1	1	1
78	78	5
34	34	2
64	66	4
120	120	9
95	96	4
159	171	3
83	83	7
238	238	4
107	114	4
194	195	9
160	175	2
118	118	10
171	182	1
247	249	1
229	229	7
192	213	2
35	64	1
202	203	2
193	193	6
30	30	9
207	208	6
212	236	2
49	111	2
72	73	1
195	198	2
100	117	1
18	22	3
71	71	6
192	192	12
11	28	5
109	109	10
31	31	4
244	244	13
61	63	1
46	46	8
159	162	2
48	55	1
11	11	5
54	54	7
110	110	12
157	158	9
170	170	8
0	2	4
167	170	1
165	178	5
37	37	6
186	231	1
190	193	1
35	35	8
207	207	12
181	182	6
47	48	2
207	209	3
166	167	4
56	56	18
247	247	7
194	196	3
17	17	15
59	59	2
86	86	7
175	176	1
96	97	10
195	223	2
59	203	2
101	108	3
100	179	3
155	155	8
236	249	2
177	183	2
17	29	3
241	244	1
220	220	13
57	57	6
232	241	4
159	174	7
190	190	3
41	41	9
156	160	4
108	112	6
236	236	4
49	105	2
199	200	10
33	38	1
157	157	2
247	248	4
163	164	6
194	200	2
145	145	3
82	84	4
91	92	7
238	240	2
112	112	10
217	217	3
55	70	3
205	221	1
63	63	3
87	89	4
172	201	3
207	211	2
47	47	5
18	37	3
118	236	3
197	199	3
18	19	2
165	165	8
154	182	7
243	249	4
14	34	3
208	209	7
238	239	4
80	82	1
215	216	2
236	246	3
7	12	3
8	8	3
164	169	1
14	18	2
56	57	4
104	115	2
223	223	6
161	161	3
87	87	4
114	114	4
64	65	3
191	191	8
87	88	5
59	71	1
74	74	4
157	167	5
242	245	1
195	195	1
4	5	2
54	64	8
99	100	4
195	224	3
119	163	2
39	40	2
111	111	13
161	199	1
77	80	3
177	191	4
19	50	1
184	208	2
104	107	2
55	57	2
169	173	1
68	68	9
64	64	6
174	180	6
243	244	3
43	43	13
228	228	3
181	181	2
50	50	3
5	6	3
45	53	4
204	204	4
107	107	2
233	240	7
66	68	1
40	41	2
173	173	6
221	221	9
169	172	7
243	243	5
178	180	4
44	44	2
206	207	4
73	74	1
196	199	1
234	235	1
163	167	1
178	182	2
71	75	3
240	240	3
149	149	3
146	147	2
200	201	2
29	30	3
175	186	1
176	178	1
177	177	7
197	198	1
15	34	5
23	24	7
56	64	1
160	165	2
182	188	3
12	12	2
79	79	3
185	228	2
187	189	1
158	175	2
11	12	1
193	200	2
70	70	4
39	63	1
178	187	4
196	196	3
80	83	1
174	217	2
15	62	3
6	49	2
5	214	2
205	205	6
100	100	2
233	236	1
97	98	3
118	119	5
85	97	3
193	195	3
111	112	7
4	30	2
197	222	2
225	226	7
211	217	3
93	93	8
73	75	5
159	160	3
159	159	3
59	72	1
4	34	1
239	240	2
182	184	1
178	178	9
233	233	3
86	110	2
97	97	11
233	234	1
103	114	1
61	62	2
87	116	5
31	32	1
151	187	4
169	180	1
74	75	1
241	241	2
150	155	2
42	43	1
60	60	1
28	28	2
112	113	1
31	33	2
52	52	2
58	59	2
96	96	12
90	90	3
157	175	1
85	95	4
78	94	2
235	235	4
158	158	1
240	241	3
189	189	4
166	192	2
223	230	2
185	187	1
172	173	3
102	102	3
152	156	3
91	91	5
152	210	2
75	77	2
212	212	2
90	100	2
61	68	2
69	95	2
81	82	7
160	166	1
44	56	5
49	221	3
222	223	4
210	211	2
28	29	5
21	21	5
157	160	1
170	176	2
95	116	2
54	55	1
192	243	4
175	210	3
175	182	3
5	18	2
68	69	3
173	201	1
99	99	2
106	106	7
69	82	1
171	171	3
235	244	2
22	73	1
187	193	3
184	185	1
147	152	3
147	163	2
15	15	3
108	108	2
164	190	1
163	165	1
159	163	1
234	234	3
156	157	2
214	214	6
117	117	2
154	169	2
39	41	1
28	181	1
230	230	2
229	240	2
216	218	1
184	232	2
118	149	1
38	49	2
56	58	2
34	73	2
76	81	2
218	218	4
196	197	2
231	246	1
150	205	1
172	218	1
101	103	2
69	180	1
218	219	3
74	101	2
3	12	2
78	82	1
33	55	2
13	34	2
160	161	5
186	189	2
81	81	1
174	181	2
216	216	6
88	93	1
106	107	2
85	109	1
171	225	1
153	159	1
47	87	5
189	190	2
142	142	1
163	179	2
36	39	1
37	38	1
52	201	3
118	145	1
151	211	3
81	95	3
169	170	2
197	200	1
151	175	3
76	82	3
183	183	3
202	202	2
217	218	3
33	33	4
181	230	1
86	87	3
170	223	2
86	115	3
92	164	1
202	227	1
179	180	1
32	33	1
225	227	1
113	114	2
187	188	2
50	121	2
237	241	1
1	6	1
104	104	1
183	184	2
32	38	1
40	42	2
200	200	4
11	13	2
3	11	1
208	210	2
232	246	2
166	166	1
244	245	1
39	204	2
119	120	2
150	151	1
156	173	2
178	179	1
209	240	2
105	105	2
197	224	1
244	246	3
184	231	2
38	63	2
188	188	4
201	228	1
9	233	2
38	39	2
113	115	1
171	175	1
236	240	1
191	213	2
85	103	1
4	4	1
185	185	4
9	223	1
57	60	1
153	157	4
96	98	2
1	203	2
62	74	2
195	196	1
9	231	1
199	245	1
154	170	1
147	147	1
91	100	1
158	176	1
81	104	2
99	102	1
9	11	1
208	211	2
25	38	1
65	67	2
75	76	1
167	174	1
48	111	1
89	100	1
49	51	1
232	232	2
35	38	1
150	214	1
71	111	2
69	112	1
55	55	3
2	2	1
71	91	1
169	213	2
4	214	1
66	66	2
195	226	1
81	99	1
37	186	1
18	34	1
92	167	1
73	73	1
198	222	1
180	180	1
165	212	1
181	184	1
71	77	1
59	78	1
25	36	1
242	243	1
98	111	3
162	191	1
77	83	1
227	227	1
166	176	1
153	160	1
221	222	2
31	218	1
47	60	1
179	181	1
204	226	1
53	54	2
156	191	1
239	249	2
151	155	1
4	37	1
37	63	1
199	218	1
81	100	1
85	88	2
181	226	1
60	81	1
19	20	2
39	39	1
168	182	2
60	66	1
43	46	1
151	153	1
208	230	1
204	205	1
205	206	1
12	30	1
213	215	1
85	147	1
194	229	1
170	182	1
236	248	1
96	101	1
26	40	1
205	212	1
