66	78	2
70	70	7
98	98	7
73	73	8
56	56	8
63	63	5
35	35	5
26	26	7
55	55	2
51	61	3
76	76	9
50	72	1
33	39	2
47	47	12
33	92	1
37	37	9
98	99	2
94	96	3
29	29	4
36	36	6
47	94	3
46	46	14
69	69	13
96	97	6
65	65	13
34	37	2
47	54	2
71	72	3
42	43	4
80	81	4
87	88	6
59	59	11
43	44	2
27	27	2
89	89	3
91	92	5
51	51	11
25	97	1
48	50	2
66	66	14
41	41	12
90	91	3
31	31	3
38	38	9
65	68	1
24	26	4
32	32	4
54	54	4
101	101	5
48	49	1
83	93	7
90	90	7
101	102	2
49	99	1
68	78	2
87	89	7
91	91	14
81	86	2
49	50	8
24	27	1
72	72	12
46	48	4
36	37	7
53	53	12
67	71	5
25	28	4
45	73	5
46	47	2
60	60	12
68	68	4
58	90	5
75	75	10
63	64	1
34	34	2
100	100	9
79	79	8
96	96	14
95	95	8
79	81	2
72	73	2
24	94	1
60	61	5
68	70	4
20	22	3
74	75	6
100	101	3
83	83	5
95	99	2
43	43	5
82	82	1
37	38	4
27	97	3
67	67	11
42	44	3
58	61	2
48	48	7
71	71	13
81	81	5
42	42	7
53	93	1
80	96	2
93	94	8
97	98	2
55	93	13
50	70	3
28	28	4
64	64	7
54	93	2
68	72	2
46	93	2
40	40	3
59	61	3
45	45	8
45	93	9
52	52	4
44	96	2
47	48	4
24	25	2
44	62	2
25	25	4
52	81	1
49	49	3
50	51	5
68	69	3
85	86	1
49	60	1
39	39	5
44	83	1
80	80	7
57	57	9
44	45	4
92	92	7
77	78	3
22	93	3
97	97	9
35	38	1
94	94	2
79	80	4
58	58	5
38	43	2
87	87	5
23	23	5
54	55	4
44	44	15
83	84	2
79	93	1
56	57	3
25	26	1
86	86	5
99	99	17
62	62	4
74	77	2
69	70	3
23	96	1
50	50	6
55	100	2
34	35	2
28	94	3
93	93	8
65	66	2
35	55	3
89	100	2
74	76	2
88	88	3
34	66	2
85	85	3
27	94	1
24	24	5
58	59	1
77	77	3
67	68	1
41	42	4
61	61	5
23	28	2
46	55	4
67	76	1
58	77	1
49	59	3
52	53	2
33	33	5
26	27	1
40	41	1
75	90	1
38	39	1
88	89	2
56	101	1
53	81	1
48	58	1
60	62	2
44	91	1
92	93	4
52	55	3
38	84	2
61	62	1
78	78	3
86	88	1
41	71	2
51	100	1
47	58	1
74	74	5
55	81	1
99	101	1
79	82	1
59	78	2
82	85	1
66	67	1
48	92	1
95	98	2
59	73	2
35	39	1
57	58	1
57	60	2
69	73	1
76	77	2
51	99	2
86	87	2
45	55	1
20	20	1
41	90	1
47	92	1
52	58	1
56	60	1
51	55	1
102	102	1
95	96	1
44	78	1
62	63	2
22	22	1
29	30	1
56	62	1
23	25	1
22	25	1
44	59	1
29	81	1
23	102	1
51	60	1
64	65	1
70	71	1
75	76	1
58	72	1
25	94	1
60	64	1
