7	7	5
81	85	2
54	54	13
67	70	5
5	5	14
55	56	4
9	9	24
76	76	14
31	61	1
6	6	19
46	46	8
66	66	32
56	56	32
76	77	7
34	54	2
58	58	13
81	81	15
87	87	18
23	25	5
57	57	21
0	2	8
20	20	11
8	9	4
73	73	17
54	55	4
80	81	8
15	15	8
89	90	3
25	58	2
74	77	1
19	19	19
86	86	14
63	63	2
80	80	26
52	52	13
67	67	13
56	57	7
26	26	14
25	25	35
50	50	8
30	30	10
48	48	18
68	69	7
46	48	7
75	75	17
34	34	6
62	62	5
8	8	10
68	68	16
30	31	4
10	10	11
71	71	12
31	31	9
89	89	11
19	20	2
66	69	3
72	72	12
78	78	4
64	64	6
23	24	3
51	52	13
87	88	2
88	89	8
69	70	3
75	76	5
57	58	6
74	74	23
34	51	5
24	24	19
82	82	8
88	88	5
84	84	17
18	27	2
15	62	1
70	70	15
51	53	2
85	86	4
2	3	2
72	73	11
65	66	6
69	69	14
68	87	3
51	51	9
9	10	2
18	19	1
83	83	6
52	53	4
79	80	4
4	4	7
19	24	3
63	65	1
61	61	5
7	8	2
17	19	5
12	12	7
59	61	8
78	80	1
48	82	2
2	2	3
14	14	12
18	18	3
11	12	6
10	11	1
24	25	1
49	49	8
47	47	9
2	22	4
27	27	16
23	85	1
3	3	2
47	48	6
13	13	16
50	51	4
46	66	3
23	23	17
51	84	2
46	47	3
61	63	5
77	77	5
72	74	4
15	16	3
65	65	2
90	90	4
34	50	2
13	14	7
55	55	13
11	11	10
7	19	1
62	63	6
79	79	1
25	26	3
9	27	1
64	65	3
54	62	1
16	19	1
85	85	6
58	60	2
50	66	3
85	87	2
0	0	3
31	70	2
17	17	10
67	68	8
13	20	2
60	60	2
53	54	4
22	23	1
57	67	2
71	73	2
22	22	1
21	21	5
77	78	7
28	28	6
26	31	2
28	88	2
76	79	1
53	66	3
4	6	1
1	1	6
47	58	2
63	64	1
49	51	2
26	27	3
8	19	1
72	85	1
55	59	3
73	77	3
52	61	3
48	75	3
74	75	1
53	55	5
82	83	7
27	28	2
35	35	3
60	66	1
5	9	2
51	82	2
58	59	2
29	29	4
0	1	4
59	59	4
9	19	1
20	21	2
77	79	2
22	86	3
78	81	2
47	76	2
6	7	3
11	14	1
81	82	2
16	21	2
21	22	2
48	83	2
81	83	2
73	74	3
8	25	1
62	65	2
71	74	2
50	52	2
79	83	2
21	86	1
48	80	1
5	25	1
82	84	1
10	20	1
66	67	4
48	50	5
46	53	1
34	63	1
64	66	1
24	27	1
7	26	1
5	6	1
2	4	1
49	50	1
54	68	1
55	65	1
17	18	2
12	13	1
77	83	1
29	30	1
14	15	1
48	49	1
31	50	1
2	11	1
14	16	1
3	4	1
50	84	1
