11	11	29
68	68	10
53	53	11
57	57	10
74	74	12
55	55	6
31	31	19
49	51	4
9	24	6
67	67	20
89	89	12
56	81	13
48	48	15
72	72	15
59	59	12
80	81	11
11	12	5
5	5	6
28	28	14
24	25	1
56	59	6
54	81	2
53	81	5
25	26	8
65	79	6
64	64	2
5	22	3
75	75	20
74	76	1
85	86	14
65	66	5
22	22	11
3	3	14
31	32	5
80	80	21
50	50	13
87	88	3
82	82	18
66	73	5
10	12	5
86	87	3
23	23	12
58	72	6
73	76	8
30	30	26
17	18	2
54	54	14
53	57	6
59	60	10
16	16	5
13	17	1
85	85	22
23	25	1
19	19	32
72	73	12
81	81	13
58	58	19
23	24	7
57	73	2
9	9	17
5	50	5
0	0	7
63	63	4
6	7	3
1	1	13
61	80	1
73	74	6
62	65	4
12	13	6
86	86	35
81	82	4
24	24	14
73	73	11
56	57	2
88	89	3
10	11	7
87	89	3
52	52	16
7	8	2
60	60	9
56	76	6
51	51	5
67	68	3
20	24	1
9	23	2
84	85	7
22	24	3
77	77	9
20	50	2
4	4	30
8	8	12
56	56	8
54	78	4
10	10	7
17	17	11
10	19	3
20	20	8
19	83	3
10	83	2
61	62	11
59	72	1
30	31	4
5	6	6
65	65	9
83	83	13
29	29	14
7	50	1
79	79	7
64	78	3
49	49	16
25	25	11
55	83	2
60	63	10
20	23	4
50	51	12
15	15	15
61	61	1
77	78	6
65	78	1
12	12	7
66	67	5
71	71	18
14	14	17
27	27	8
48	71	4
23	89	8
31	66	7
8	9	4
54	55	5
2	2	4
66	66	21
49	50	11
61	71	4
78	78	1
13	13	8
62	63	4
47	48	2
87	87	14
47	47	9
21	22	3
21	23	1
54	64	2
13	14	4
26	27	7
19	21	1
52	53	2
78	79	3
9	10	4
26	26	5
84	84	6
53	54	3
76	77	2
83	87	1
30	67	1
62	64	2
70	70	8
74	77	1
19	20	10
10	22	4
5	10	2
15	16	9
6	6	8
69	69	9
88	88	5
2	89	2
49	75	3
1	2	2
71	72	3
48	62	3
8	30	2
33	34	3
48	50	3
75	77	2
8	17	3
4	89	1
7	12	3
28	30	3
62	77	3
52	79	1
27	31	2
73	75	6
68	69	2
69	70	2
78	80	1
11	21	2
55	81	1
35	35	1
29	30	3
19	25	2
55	82	4
21	81	3
80	83	1
55	56	3
80	86	3
18	22	1
5	9	2
75	76	5
1	88	3
49	71	3
70	71	1
60	61	3
48	72	3
83	84	2
67	69	2
11	16	1
86	88	3
64	65	3
57	74	1
53	56	1
4	9	2
64	66	1
46	46	1
11	22	3
10	82	3
56	73	1
4	50	1
49	77	4
57	58	8
55	80	3
62	78	3
51	52	3
58	71	3
53	58	3
22	23	2
76	76	2
0	4	2
79	80	2
7	7	3
20	81	1
85	87	2
29	68	1
3	4	2
31	67	2
8	26	1
25	31	1
27	28	2
74	75	2
61	63	2
46	48	3
58	82	1
66	71	2
63	64	1
3	9	6
52	80	1
26	31	1
56	58	1
16	19	2
33	33	2
28	29	2
3	88	1
0	2	1
18	19	1
0	1	1
10	18	1
4	5	1
49	52	1
55	75	2
6	16	1
54	66	1
48	61	1
62	62	1
63	78	1
19	23	1
48	49	1
