17	17	19
37	39	3
60	60	20
16	19	3
14	14	8
7	7	9
57	57	14
45	47	1
55	55	11
52	52	10
63	63	12
5	6	8
28	28	9
26	26	8
51	52	3
53	54	27
65	65	15
34	34	9
11	11	2
66	66	14
27	27	15
69	69	7
48	48	16
31	32	4
15	16	4
55	57	4
9	9	7
38	38	10
33	34	2
64	64	20
55	56	9
79	79	6
29	29	5
80	80	20
36	80	2
58	58	10
45	53	1
15	19	5
66	70	2
4	5	8
74	74	10
61	61	5
20	21	5
29	30	9
31	31	10
48	49	4
61	63	2
15	15	2
61	62	1
76	76	12
55	68	2
4	4	7
42	42	9
45	45	6
70	70	11
6	6	14
51	51	7
19	19	7
58	59	6
2	3	1
54	54	16
44	45	6
9	21	3
9	10	3
47	47	14
10	10	8
1	3	2
65	66	3
37	37	11
62	62	11
28	29	3
75	76	3
47	48	8
36	39	2
52	53	1
63	64	10
56	57	4
39	39	9
35	35	13
74	75	3
51	53	4
14	18	4
14	15	4
40	40	16
49	49	9
33	33	14
1	1	10
75	75	6
25	25	2
0	3	3
21	27	1
78	78	7
16	16	3
40	41	1
45	67	2
69	70	4
41	48	4
17	18	3
30	30	5
59	60	5
33	35	2
0	0	5
71	71	11
1	9	1
11	13	1
56	56	10
10	30	1
5	5	7
63	65	2
12	12	13
25	26	3
20	20	2
18	19	4
64	65	2
37	38	5
70	72	1
59	59	7
8	26	3
41	41	14
73	73	2
78	79	4
45	46	8
72	72	6
53	68	2
49	53	3
58	60	4
29	31	4
57	58	3
43	43	3
2	7	2
74	76	2
35	37	1
61	67	1
3	3	8
8	8	5
62	64	2
49	50	3
66	67	3
34	36	1
53	53	9
60	62	4
72	74	5
32	33	1
67	67	2
32	32	5
17	19	3
6	9	1
10	11	1
3	4	3
14	19	1
36	36	10
38	39	1
63	68	1
19	70	2
68	69	2
46	47	2
21	21	3
26	47	2
55	69	2
2	2	8
67	68	2
7	8	3
62	63	1
35	36	2
19	20	1
18	18	3
77	77	1
1	5	1
75	78	1
6	7	1
10	21	3
1	2	1
71	72	3
68	68	2
46	46	3
36	38	1
75	77	1
77	78	1
38	80	1
50	50	2
29	39	1
53	70	1
13	32	1
4	6	1
21	25	2
16	17	3
10	12	1
36	37	1
50	51	1
65	67	1
51	70	1
38	47	1
11	12	3
12	13	2
28	40	1
76	77	1
27	28	1
30	31	1
79	80	1
16	40	1
1	6	1
62	66	1
53	55	1
42	47	2
3	6	1
13	13	1
0	1	1
51	54	1
53	71	1
37	40	1
28	37	1
19	21	1
