29	29	22
80	80	12
123	123	22
6	6	13
84	140	2
97	97	26
134	135	8
81	81	25
125	125	43
21	21	23
69	70	10
53	53	12
59	59	19
68	73	2
106	110	5
35	35	26
121	131	6
68	71	3
128	128	30
8	8	24
32	32	33
4	5	19
108	109	8
95	95	31
99	100	12
4	4	30
73	73	15
13	34	2
121	123	6
97	103	10
107	107	16
141	141	34
82	82	16
65	65	15
64	64	17
52	56	2
98	98	12
72	72	12
16	16	29
95	96	2
124	131	1
98	99	8
68	68	20
140	141	18
99	101	2
119	119	15
28	28	25
105	112	3
85	140	1
38	38	16
41	41	16
134	134	36
23	23	22
116	116	13
67	67	17
86	121	2
20	21	10
2	75	1
83	83	27
85	85	20
136	140	6
126	127	10
19	19	24
24	26	6
115	115	19
97	98	14
99	99	18
61	116	5
22	23	1
144	144	23
30	30	25
34	47	2
142	143	16
143	143	22
110	118	6
139	140	17
140	140	28
80	89	3
96	97	16
3	75	2
34	34	21
13	15	3
9	21	4
92	93	5
54	55	4
70	70	16
60	60	15
52	64	2
122	123	20
123	135	1
93	93	23
55	64	8
59	60	5
11	11	15
103	134	4
14	14	9
26	26	29
128	129	11
76	76	25
9	9	11
52	54	1
83	85	5
122	122	12
124	125	5
135	135	35
73	75	7
16	19	4
36	66	5
132	132	23
129	130	6
79	79	12
90	90	25
89	89	17
42	42	18
114	114	9
109	110	8
141	142	7
74	74	23
93	94	7
72	85	3
75	89	9
96	105	3
103	103	47
130	130	14
117	117	36
14	17	1
126	129	2
142	142	17
60	115	2
133	133	24
27	28	3
104	105	13
55	55	19
57	57	12
107	109	3
69	69	19
33	33	16
71	71	20
90	91	3
66	67	5
0	0	17
87	87	26
39	43	7
131	131	33
81	84	1
55	56	5
8	9	8
136	136	20
97	105	2
126	126	30
5	6	1
107	110	3
31	32	12
5	13	5
118	118	34
110	117	1
110	111	6
127	127	27
58	58	32
39	39	23
88	89	6
5	5	15
22	22	35
86	86	8
37	42	5
115	117	9
48	48	20
68	76	7
104	104	20
121	121	23
20	23	2
33	34	7
36	36	10
135	136	15
115	116	5
50	51	10
43	43	6
120	120	40
61	61	13
84	85	2
94	94	30
101	101	17
82	83	12
25	25	16
31	31	14
94	95	1
96	134	4
121	122	6
75	79	3
14	15	6
92	106	2
19	20	3
136	139	10
113	114	3
124	124	18
65	67	2
68	127	2
136	137	19
80	132	5
37	37	30
137	137	35
112	113	4
102	102	21
22	102	7
1	1	15
145	146	7
131	132	4
139	139	27
132	139	4
91	91	21
20	20	9
60	65	2
120	136	4
97	111	2
49	115	3
93	98	7
78	81	5
82	105	2
80	81	6
119	132	1
56	56	11
116	117	5
143	144	6
92	94	7
75	75	14
69	80	2
138	139	8
17	17	23
117	118	9
78	78	23
54	54	16
63	104	4
103	104	2
70	71	6
84	84	15
17	18	4
59	61	3
25	26	8
81	86	6
12	39	2
12	13	5
133	142	6
40	40	20
35	54	2
104	125	2
111	111	19
91	92	21
39	64	1
97	102	2
128	131	4
110	110	20
70	72	4
49	49	12
3	69	5
50	64	1
66	66	10
30	77	1
101	102	15
11	21	3
105	111	5
126	130	2
113	116	10
119	120	4
6	24	2
13	13	18
27	27	22
133	140	4
64	65	10
81	82	10
105	106	11
10	10	10
125	134	2
70	109	8
3	3	8
68	69	1
49	62	1
106	107	5
116	120	2
76	79	6
30	38	3
18	18	7
40	41	3
15	16	12
145	145	19
89	92	2
117	130	1
88	88	17
102	103	7
96	98	5
129	129	48
54	56	5
23	25	8
50	50	16
126	131	2
100	101	8
115	119	4
67	68	8
52	53	12
89	90	7
57	100	1
47	47	11
51	65	3
54	73	3
109	109	10
55	65	6
86	119	3
77	77	17
31	34	3
28	29	6
111	117	1
9	16	15
4	31	3
63	65	2
73	74	6
75	76	5
132	135	2
14	19	1
14	35	2
79	135	1
96	96	10
4	16	3
38	41	1
97	110	4
112	112	9
11	27	2
114	115	19
32	62	1
52	55	2
1	33	1
71	74	4
105	107	4
86	87	5
132	134	5
135	140	8
111	116	2
30	43	3
120	121	8
73	104	6
92	92	9
10	11	8
125	127	2
133	134	6
72	73	2
123	124	6
51	114	1
77	106	1
111	112	2
118	119	15
113	113	15
15	15	11
18	32	1
2	2	5
128	132	1
15	140	1
72	88	3
99	141	2
24	24	5
53	66	1
52	52	10
111	119	2
76	77	6
119	125	4
111	118	2
74	75	3
137	138	12
28	38	2
49	57	1
24	25	3
133	135	8
83	132	2
18	22	1
113	120	3
113	137	1
65	66	2
93	96	2
4	48	2
108	108	11
39	40	4
37	38	3
116	134	2
5	15	3
13	139	2
62	63	6
109	139	2
2	3	9
53	62	4
2	10	1
51	52	2
103	118	2
92	95	1
31	33	3
100	100	11
48	58	1
21	23	3
36	56	2
138	138	6
11	26	3
62	62	13
62	64	3
70	73	2
6	16	3
14	36	1
33	52	1
88	90	1
118	138	3
51	53	2
77	79	2
4	32	2
36	65	4
0	53	1
51	61	5
79	80	4
4	33	1
82	86	3
146	146	1
61	62	8
106	106	9
36	37	5
9	20	4
69	72	4
95	107	2
113	121	1
42	104	1
140	142	1
13	14	3
50	60	3
37	59	6
87	132	2
54	65	3
87	91	3
1	41	3
37	128	1
5	84	3
137	140	3
65	68	1
69	71	4
63	63	5
71	73	3
1	8	1
124	129	3
9	10	5
85	86	1
58	66	2
18	19	4
32	81	1
50	52	1
24	62	1
53	57	2
49	50	6
13	39	1
16	17	2
49	51	2
10	20	5
51	51	11
10	15	1
58	59	1
57	60	1
101	140	1
71	72	4
114	117	1
35	37	2
142	144	3
125	130	5
136	138	2
24	71	4
72	84	5
112	129	2
97	134	2
6	19	1
9	11	1
35	51	1
130	131	2
90	106	3
126	128	1
11	12	3
23	24	3
95	124	2
8	17	3
97	104	3
80	135	3
58	61	1
109	123	5
29	30	3
122	132	1
60	61	4
123	134	3
23	26	1
6	62	1
0	18	1
130	141	2
47	48	3
128	130	5
81	109	1
2	5	2
25	27	9
116	121	1
6	18	2
2	11	2
57	58	1
61	64	2
82	84	2
119	124	2
111	121	4
77	103	2
131	136	4
14	138	2
30	32	6
59	63	3
31	55	2
3	70	2
94	134	4
53	54	6
87	121	2
53	55	3
120	129	2
93	109	3
68	72	4
10	21	3
93	97	1
95	98	1
51	60	3
120	138	1
101	132	1
43	138	3
116	118	2
19	22	1
116	140	1
55	66	2
32	33	3
63	109	1
5	20	1
135	141	1
131	134	2
114	116	1
63	98	1
89	105	1
144	145	1
25	33	2
62	72	1
77	78	5
108	110	1
67	126	4
67	124	1
3	65	1
39	41	3
75	77	3
39	42	1
47	65	1
138	140	1
56	59	3
127	128	1
131	139	5
53	64	1
56	66	1
67	125	2
31	61	1
125	126	3
105	105	4
17	19	3
0	1	4
94	135	2
38	39	3
60	64	1
95	109	1
29	38	1
4	36	1
70	85	1
50	58	1
5	21	2
85	87	3
88	105	3
6	38	1
3	4	2
121	132	3
96	110	1
10	16	1
73	112	1
24	66	1
49	101	2
3	47	2
87	88	3
71	110	1
121	142	1
76	78	2
91	106	5
2	31	3
89	123	2
110	138	2
0	74	1
75	136	1
118	128	1
14	82	1
132	133	5
73	139	1
119	121	1
83	104	3
104	109	1
34	35	3
37	140	1
129	131	2
15	19	1
3	15	2
110	119	1
55	142	1
88	107	2
96	133	1
57	59	1
2	56	1
135	138	3
21	22	3
135	139	1
96	106	2
89	91	2
26	27	7
34	36	3
57	66	2
8	10	1
127	130	1
41	137	1
2	13	1
15	81	1
61	98	2
68	70	1
43	141	1
82	132	2
84	87	1
96	107	1
28	30	1
123	129	1
49	58	3
103	131	1
79	81	1
0	81	2
54	66	1
131	135	1
69	73	1
49	52	1
4	64	1
125	131	1
35	43	3
120	128	1
36	58	2
60	97	1
38	42	1
98	110	1
2	4	2
27	41	2
10	25	2
8	19	2
47	141	1
81	101	1
109	132	1
49	59	1
98	115	1
80	86	2
42	131	2
93	106	1
107	111	1
83	118	2
74	134	1
27	29	3
59	125	1
113	118	1
105	110	1
27	50	1
108	122	2
131	133	2
5	58	2
123	132	1
125	129	2
85	96	1
47	114	1
85	135	1
113	141	1
95	119	1
27	56	1
69	75	1
70	110	1
56	57	1
52	63	1
12	12	2
32	77	1
106	140	1
4	6	1
110	112	1
30	36	1
9	12	1
31	52	1
79	86	1
56	61	1
48	49	1
72	74	1
132	136	1
83	84	1
114	121	1
