68	71	1
86	87	1
82	83	4
39	149	1
149	149	11
133	133	16
137	139	3
123	123	4
119	119	6
77	85	2
76	77	4
6	6	3
152	153	2
40	41	15
47	53	2
130	132	3
53	53	8
25	49	4
52	53	3
31	34	2
23	46	3
17	19	1
65	66	9
34	34	7
11	11	21
29	29	4
72	73	9
13	24	2
23	118	1
154	154	4
49	49	4
129	129	6
25	27	1
41	43	10
95	96	6
106	114	7
64	64	9
33	35	3
126	126	7
84	84	7
121	122	2
127	128	1
22	24	1
68	100	2
42	43	6
15	15	4
71	72	1
138	138	5
16	18	1
146	146	5
57	58	11
38	94	1
124	127	2
98	99	2
46	47	4
84	88	5
9	10	1
130	130	15
9	9	8
34	35	2
19	57	2
147	148	2
109	109	10
44	45	10
23	45	1
46	46	7
150	150	5
5	5	10
95	98	1
45	45	7
131	133	6
52	52	3
92	92	7
41	41	8
21	21	8
12	13	7
96	97	5
40	40	9
69	73	1
15	16	5
65	67	5
116	116	6
14	14	7
44	44	7
33	57	1
19	20	5
7	7	5
139	144	1
84	86	7
64	65	9
108	108	6
69	69	10
100	100	9
38	38	9
117	117	6
10	10	9
105	114	4
119	123	1
33	33	6
127	127	8
81	83	1
126	128	3
114	132	3
70	70	9
131	132	3
102	123	2
56	56	9
99	99	10
131	131	6
20	21	14
17	17	11
73	95	3
94	98	2
44	47	2
83	100	1
104	148	1
72	124	3
18	61	1
48	48	5
47	116	1
68	72	10
65	65	12
94	94	5
80	83	1
147	147	7
23	23	11
20	61	2
24	26	1
32	32	7
86	98	1
19	19	8
106	109	5
118	118	5
7	38	1
18	20	6
97	97	2
49	50	9
113	113	2
20	20	13
76	87	3
47	47	13
43	72	2
94	95	2
66	66	8
12	35	2
82	82	5
37	38	2
16	16	9
68	69	3
136	136	6
141	152	3
69	77	1
11	22	2
116	117	5
129	131	5
26	26	1
106	106	11
72	72	6
68	68	5
12	12	10
130	144	1
115	116	6
49	51	5
110	110	4
17	20	4
32	39	1
67	67	18
18	43	1
115	119	2
112	113	2
24	24	10
140	140	3
62	62	2
133	134	7
23	41	2
48	50	4
21	22	2
8	9	6
95	95	4
142	152	2
18	57	7
23	24	4
57	57	8
6	8	1
36	36	3
25	28	1
135	135	4
24	28	2
148	149	4
127	132	2
75	75	5
128	131	2
142	144	2
73	74	3
53	54	3
124	126	3
79	82	6
77	78	2
32	33	4
145	146	3
51	51	3
74	75	3
9	40	4
15	18	2
128	135	1
4	5	1
31	31	8
18	39	4
8	10	8
3	3	3
100	101	1
25	29	2
47	56	1
108	109	3
124	124	6
57	93	5
96	135	4
8	8	5
98	98	7
87	88	4
134	134	6
13	13	7
80	80	5
149	150	1
80	82	2
141	142	1
43	44	2
101	101	2
75	76	3
107	107	11
54	55	5
22	23	9
102	104	1
151	151	7
97	98	7
20	25	1
102	103	2
87	93	3
11	21	3
93	93	3
13	14	3
93	94	8
54	54	4
7	21	1
106	113	1
5	8	1
144	147	3
95	97	5
37	47	1
107	109	3
11	12	7
150	151	2
120	123	1
9	41	2
50	50	5
114	114	5
76	76	4
148	154	3
134	135	1
18	19	5
78	79	1
42	42	15
25	25	16
23	26	3
96	96	4
128	132	3
83	84	2
33	56	1
76	78	2
15	24	2
27	27	6
78	80	2
13	47	4
103	123	2
33	34	5
5	6	1
75	83	2
99	135	2
146	147	2
85	85	3
99	100	3
128	129	2
64	66	1
66	101	2
121	127	2
77	77	9
94	97	1
82	90	2
22	22	11
84	85	3
87	87	2
23	31	2
10	12	5
39	39	8
55	55	6
135	136	2
24	46	2
74	98	1
37	37	5
103	112	1
113	117	3
30	31	6
41	55	1
39	40	3
122	122	6
76	100	1
61	61	2
17	18	1
117	119	1
78	78	6
115	115	2
120	120	2
152	152	5
71	71	1
104	104	5
97	99	2
9	19	1
42	46	1
7	17	1
31	42	2
27	28	6
103	105	2
85	87	2
126	127	2
63	64	6
150	152	1
83	83	3
4	4	4
106	133	3
14	15	2
110	129	1
8	39	3
117	131	1
114	128	2
5	7	3
101	127	1
117	128	1
30	30	4
3	5	1
92	93	3
75	86	1
16	19	1
122	128	1
4	39	2
28	28	2
72	126	2
73	99	2
24	30	1
105	105	1
113	148	1
54	133	1
153	153	4
68	75	2
10	11	2
77	100	1
117	118	2
75	84	2
100	107	1
103	103	4
69	97	3
67	68	4
73	80	2
75	79	2
22	115	3
38	58	2
78	94	1
148	148	4
7	11	1
18	33	1
6	15	3
102	102	4
146	149	2
14	28	2
58	58	1
29	30	2
66	76	1
41	42	4
13	29	1
139	140	3
56	61	1
70	71	2
75	78	1
132	132	4
128	128	4
47	52	2
28	30	2
39	42	1
20	62	2
19	30	2
120	122	2
53	57	4
20	23	2
39	147	1
9	55	1
148	150	1
111	111	1
120	121	2
101	102	1
132	135	5
73	73	7
38	39	2
125	125	3
102	125	2
68	70	1
16	24	3
144	144	2
23	30	1
121	121	1
13	26	3
121	130	1
86	86	3
56	57	2
137	143	1
24	47	1
43	43	2
63	63	1
145	154	1
102	128	1
102	121	1
110	119	2
136	137	3
16	25	1
76	84	1
38	150	1
32	36	1
86	88	1
27	29	1
67	101	2
37	39	1
110	111	1
46	48	1
25	26	2
33	58	1
90	90	1
18	18	2
20	24	1
127	131	1
16	17	4
66	67	1
117	129	1
10	15	1
129	130	1
118	119	1
39	41	1
110	120	1
71	76	1
10	18	1
112	115	1
121	123	1
68	74	1
26	27	1
122	123	1
70	103	1
85	93	1
15	17	1
47	115	1
145	148	1
115	117	1
70	77	1
44	46	1
138	139	1
69	81	1
118	122	1
47	117	1
107	108	2
78	96	1
64	67	2
122	127	1
99	139	1
88	88	1
31	37	1
17	25	1
