24	24	4
87	87	17
37	37	9
37	38	2
139	140	3
87	88	14
35	137	1
120	120	11
90	91	5
16	17	6
122	122	19
131	131	22
106	107	7
4	4	10
136	136	9
104	108	2
133	136	1
105	108	2
108	108	22
113	114	6
75	75	21
130	130	13
109	127	5
139	139	17
83	84	3
18	19	6
108	109	13
26	26	4
100	100	10
104	105	7
140	140	13
116	116	21
13	14	3
10	32	4
115	115	8
98	98	13
124	126	2
27	27	5
93	93	8
123	123	18
19	19	6
14	14	11
128	128	10
104	104	13
72	72	12
19	88	2
13	13	11
1	1	4
92	93	14
29	32	4
3	3	2
112	112	4
16	16	3
74	74	12
23	23	8
10	10	3
131	133	1
73	73	9
103	103	12
119	119	17
134	134	11
117	117	8
7	23	2
105	105	10
71	72	4
124	124	12
97	117	1
136	137	7
28	29	7
109	110	3
5	6	6
126	126	22
17	19	3
84	86	2
89	89	6
33	33	5
78	78	12
85	85	7
109	109	9
21	21	17
128	129	9
119	120	1
140	141	4
35	35	10
15	15	12
83	83	3
129	130	5
88	123	2
34	34	4
117	118	6
12	12	8
135	139	1
29	35	1
95	95	11
121	121	17
118	118	5
121	123	9
137	137	7
80	80	9
127	127	11
93	94	15
77	79	2
112	119	3
75	86	1
125	125	14
73	138	3
2	16	3
88	120	3
3	11	2
127	128	2
6	6	7
90	90	7
4	5	4
131	132	2
82	82	6
86	86	8
127	129	4
132	132	14
89	90	2
84	85	3
27	32	1
111	114	2
79	84	3
37	80	2
107	107	2
135	135	18
75	91	1
84	84	10
137	138	11
20	20	2
101	102	3
81	81	9
12	13	1
1	10	2
11	28	3
94	94	9
8	9	5
125	137	2
77	77	4
108	120	2
12	14	5
112	117	2
2	2	3
27	28	3
125	126	11
18	18	4
110	110	5
96	96	7
74	76	2
36	36	3
120	121	6
22	22	4
36	38	3
0	21	2
44	44	1
17	17	2
32	32	6
10	16	2
72	87	5
114	114	5
135	136	1
91	91	11
99	99	13
133	133	7
31	31	2
103	104	5
95	96	1
106	106	9
85	110	1
85	108	3
133	134	2
1	2	1
19	20	5
102	104	3
84	108	1
101	101	11
126	127	8
78	79	5
129	129	5
94	95	5
113	116	2
0	3	1
102	103	4
74	134	1
25	25	5
5	34	3
34	35	6
79	79	12
26	97	2
11	11	3
95	109	2
114	115	6
8	8	4
13	29	3
94	107	3
33	34	4
112	113	1
35	36	4
88	88	7
28	81	1
124	125	5
73	74	3
111	111	4
122	123	5
5	5	2
81	82	2
89	121	6
30	30	3
106	108	1
77	134	3
103	105	2
71	71	3
85	87	2
134	135	6
12	27	4
113	113	1
100	124	1
105	106	3
119	122	4
71	73	2
132	133	1
72	81	1
85	86	3
118	119	3
14	15	1
6	7	2
97	98	8
17	35	1
29	29	3
7	8	2
119	123	4
36	86	1
115	116	3
97	97	6
98	99	1
28	28	4
121	122	1
7	7	2
107	108	1
127	130	2
32	38	2
100	101	1
99	124	1
10	11	4
88	115	2
96	97	3
76	77	3
73	76	2
77	78	2
0	0	5
78	80	1
20	21	3
32	33	2
3	4	3
80	83	3
92	92	1
120	122	3
116	117	1
0	8	1
111	123	1
7	22	1
99	100	4
114	116	1
115	123	2
118	120	3
31	32	1
112	122	1
30	32	2
115	117	1
72	134	1
29	80	1
8	31	2
9	9	3
27	29	2
22	23	1
130	131	1
102	102	1
136	138	2
77	95	1
98	125	1
38	38	1
75	76	1
83	85	1
0	1	1
21	22	1
109	111	1
116	121	1
75	88	2
138	138	1
73	88	1
15	17	1
131	139	1
0	19	1
79	85	1
79	80	1
14	25	1
