139	139	10
7	9	6
124	124	11
93	93	10
104	104	12
10	10	18
123	124	5
7	8	3
3	4	11
128	128	7
122	122	4
133	133	4
136	136	6
90	90	4
87	87	4
130	133	1
73	73	1
119	119	12
76	76	4
15	16	5
94	95	1
75	75	8
83	84	2
138	139	8
0	0	3
33	33	10
100	101	4
23	23	6
25	30	2
79	79	7
108	110	3
7	7	9
2	22	4
72	72	1
21	21	7
77	79	1
17	21	1
135	135	7
108	109	1
92	92	1
114	114	5
116	116	8
123	123	16
106	115	3
102	107	1
109	110	4
117	118	5
37	37	3
126	134	2
87	88	3
99	100	2
126	126	15
125	126	1
99	99	3
84	85	3
22	22	14
94	94	2
104	108	4
32	79	3
77	77	5
90	91	5
131	131	8
26	26	7
19	19	4
27	29	3
18	18	18
130	134	3
82	82	5
92	93	2
14	14	8
91	91	3
35	35	7
5	5	7
81	81	5
36	96	1
38	38	10
102	103	3
28	28	2
27	28	1
9	9	6
1	18	1
127	128	1
34	34	10
88	88	3
130	130	12
0	1	1
113	113	4
19	21	1
2	2	7
125	127	5
13	13	6
73	77	2
85	85	5
134	134	9
108	108	4
17	17	5
36	91	3
121	121	13
129	129	4
85	86	1
128	129	4
137	137	12
99	116	1
118	121	5
24	24	6
1	1	6
107	107	4
98	99	3
16	16	6
131	132	5
34	35	1
81	86	1
96	97	1
119	120	4
3	3	3
105	105	7
118	119	2
9	10	2
1	2	1
132	132	12
127	127	9
24	25	3
117	117	3
71	71	8
15	19	1
19	35	1
122	123	3
13	14	4
7	30	1
7	32	2
4	4	7
123	125	1
15	15	5
26	27	3
29	29	1
77	134	2
96	96	11
109	109	4
32	32	2
110	115	2
12	12	2
108	112	1
103	111	1
6	6	2
103	103	2
104	105	3
36	36	3
118	120	1
27	31	1
138	138	4
16	18	1
0	24	1
120	120	5
23	24	2
23	28	1
8	13	4
1	16	1
25	25	3
4	20	2
80	80	2
20	20	5
111	111	4
140	140	3
29	30	1
95	95	2
76	77	3
136	138	1
25	26	2
99	136	1
7	31	2
10	11	4
106	106	4
124	127	5
113	123	1
78	78	2
101	101	2
115	115	2
77	78	1
95	97	2
89	89	6
1	15	1
108	111	3
93	94	2
30	32	3
103	113	2
112	112	4
72	90	1
16	19	1
80	81	2
101	102	2
102	106	1
82	83	2
117	123	1
105	106	3
8	8	4
106	107	3
38	78	1
7	12	1
100	114	1
91	92	1
120	121	2
19	20	2
100	100	1
18	20	1
136	137	2
30	30	2
74	74	1
27	27	4
103	105	3
129	130	2
11	11	6
104	112	1
133	138	2
79	85	2
2	3	2
1	30	1
126	127	1
30	31	3
125	125	4
112	125	1
84	84	3
74	76	2
85	87	1
21	33	2
112	119	1
121	123	1
17	34	1
110	110	1
31	31	1
79	80	1
81	85	1
10	12	4
71	87	2
85	105	1
79	82	1
2	20	1
98	98	2
73	118	2
102	108	1
134	136	1
97	97	2
119	121	1
16	20	1
26	29	1
96	135	1
110	111	1
22	24	2
86	86	1
118	118	1
115	116	1
8	11	1
132	137	1
2	4	2
104	107	3
8	9	1
79	88	1
5	6	1
5	12	1
102	102	1
17	19	1
2	7	1
