88	88	4
125	126	3
33	38	1
69	70	7
36	36	19
73	73	12
105	106	9
138	141	2
15	16	9
40	41	1
105	105	12
118	119	3
92	93	2
53	53	7
122	122	13
13	13	9
20	25	2
42	42	5
111	111	13
143	143	2
4	54	2
20	21	5
12	12	9
120	120	8
119	120	5
38	40	1
9	20	4
128	135	1
73	74	1
154	154	2
48	49	6
137	143	3
157	157	7
37	37	11
147	147	7
101	134	1
45	45	8
114	115	5
137	142	2
53	141	4
155	155	7
0	2	1
84	86	7
66	66	8
101	101	15
129	130	6
143	145	4
41	85	5
128	128	10
56	56	6
15	15	5
117	117	13
113	113	1
6	6	11
41	80	2
11	11	5
3	3	6
150	150	2
132	133	6
115	121	2
4	4	4
53	54	1
90	90	20
80	80	7
83	84	5
67	67	10
35	38	3
107	107	5
32	39	5
67	70	6
146	146	6
95	95	1
99	99	9
34	34	10
127	149	5
78	82	5
113	115	4
27	27	6
46	47	5
117	119	5
42	55	3
82	86	5
42	49	4
53	134	3
52	53	10
8	8	2
158	158	2
154	158	2
53	55	1
137	137	15
111	135	3
125	125	4
74	74	1
132	132	5
29	51	4
108	114	2
46	46	8
24	24	3
31	31	11
100	100	6
2	3	11
3	54	1
108	108	6
153	153	2
91	91	11
120	121	3
19	19	11
145	145	9
26	26	6
88	89	8
4	26	2
68	68	5
33	40	1
67	87	1
134	134	7
55	56	8
18	19	9
3	31	5
89	89	3
110	110	5
45	48	6
2	2	6
49	50	1
132	139	2
152	153	7
7	8	2
104	104	7
114	114	2
4	122	4
113	114	7
65	66	3
135	135	2
85	105	2
75	75	8
96	96	5
98	98	4
20	45	3
70	122	1
123	123	6
10	10	4
68	70	8
106	106	9
70	70	7
51	52	2
123	124	7
81	81	13
29	30	2
4	5	5
103	104	2
15	77	4
69	69	3
38	38	6
151	151	9
33	33	9
10	19	1
30	30	6
27	30	4
67	69	2
8	19	1
152	154	1
83	83	10
100	103	8
52	52	4
116	116	6
116	117	4
144	146	3
149	149	2
79	79	3
140	142	5
96	128	4
87	88	3
66	68	2
107	127	8
72	72	1
111	112	2
94	123	1
109	122	4
50	50	7
67	82	2
76	76	3
21	21	7
153	158	1
106	112	5
17	45	2
156	156	6
23	23	12
67	71	10
8	150	1
154	157	2
146	147	2
85	108	3
68	71	2
25	48	3
106	111	1
97	98	3
30	33	2
57	57	3
82	108	2
3	6	4
7	7	9
81	93	2
87	102	2
81	120	1
122	127	1
55	55	5
55	87	2
97	97	1
124	124	1
129	129	3
8	10	2
18	26	3
44	45	2
23	24	4
40	40	8
1	1	3
131	148	2
25	25	8
119	119	3
78	115	5
14	15	7
16	16	6
142	142	4
21	120	2
120	126	1
150	151	3
22	22	4
130	130	3
48	62	1
65	65	2
78	111	3
134	152	2
28	52	3
145	147	2
144	144	2
94	94	5
54	54	7
87	87	7
17	17	7
19	82	1
95	96	1
112	112	5
140	140	9
11	12	2
51	55	2
124	134	2
105	118	2
152	152	6
144	145	5
47	47	6
145	146	2
66	77	2
64	82	2
19	27	2
81	115	1
14	14	1
107	108	2
109	109	13
15	18	1
11	13	4
136	139	2
22	23	1
85	85	2
83	85	3
25	26	1
33	34	2
56	57	1
50	51	3
9	9	12
139	139	9
50	83	1
136	137	3
50	55	1
15	43	5
7	55	1
107	124	2
65	87	2
79	111	3
62	118	1
12	14	4
133	133	9
71	71	3
110	111	4
117	120	4
12	21	2
12	20	2
133	152	2
40	42	1
98	101	1
86	87	3
156	157	4
95	120	3
90	91	2
84	84	3
126	126	2
63	63	3
124	125	2
28	45	2
78	78	1
69	71	3
148	153	1
62	63	2
26	46	2
3	55	2
92	92	1
135	140	2
122	137	1
104	128	3
93	125	2
80	142	2
20	121	1
101	132	1
96	100	1
108	117	1
12	13	4
123	126	3
54	85	1
139	141	3
140	149	1
66	67	2
136	136	3
82	84	2
44	44	6
86	121	1
102	102	3
93	94	3
118	118	6
100	104	1
94	125	1
147	149	2
48	85	1
82	82	6
66	83	2
28	28	2
68	96	2
43	43	1
19	24	3
29	29	1
0	0	3
12	51	1
112	118	1
38	39	1
131	131	2
68	69	1
88	90	2
115	115	2
64	122	1
151	152	3
85	86	1
5	7	1
141	141	4
7	9	5
0	3	1
41	41	4
118	124	2
39	39	1
83	102	1
41	42	1
29	39	1
35	35	3
121	123	1
64	64	1
37	38	2
86	86	1
51	51	1
5	5	4
37	46	4
96	136	3
26	27	2
108	139	2
155	157	3
135	136	2
13	54	3
149	151	2
53	62	2
155	156	1
153	154	2
26	158	1
27	29	2
18	18	1
85	106	1
140	141	2
39	40	3
27	49	1
99	100	1
105	107	1
80	81	1
134	156	1
137	138	2
104	129	1
36	38	1
66	72	1
110	114	1
70	141	1
115	120	2
106	107	1
24	25	1
78	81	3
98	115	1
52	54	1
138	138	2
83	86	1
79	92	1
93	93	1
100	101	1
104	105	1
102	103	2
85	104	2
85	141	2
151	153	1
7	12	1
81	92	1
32	32	1
148	148	1
134	145	1
118	123	1
118	120	1
28	49	1
111	117	1
158	159	1
