69	99	3
44	92	1
53	55	2
62	81	4
89	89	13
93	100	2
70	72	4
68	68	8
52	52	9
38	38	3
67	67	9
102	102	3
92	92	6
93	93	10
83	83	4
84	87	7
48	81	1
35	35	4
65	65	5
93	99	1
34	65	1
40	40	7
47	50	3
42	43	4
74	98	3
71	71	7
22	35	2
101	102	2
80	92	1
86	90	3
37	39	1
24	26	6
73	73	7
77	77	6
41	41	3
25	25	1
101	101	9
42	42	6
81	81	3
69	69	2
32	32	4
80	99	3
48	58	3
46	89	2
56	84	2
58	58	3
91	91	11
55	56	5
48	48	9
68	70	1
66	66	3
82	82	2
73	101	1
72	72	4
97	97	8
27	28	3
56	59	1
100	100	9
87	88	10
76	76	8
47	47	11
91	92	3
71	72	2
79	79	7
79	88	2
49	66	2
89	101	3
86	86	3
53	53	2
94	95	2
26	26	9
36	36	4
79	80	3
80	100	4
51	51	8
74	75	1
55	98	4
63	63	2
64	67	4
45	45	4
76	86	2
94	94	3
45	46	1
45	94	3
87	87	3
69	70	5
88	88	10
60	60	9
80	80	3
99	99	5
57	59	3
42	71	1
57	57	9
31	32	1
43	43	1
95	96	3
67	69	4
54	93	2
44	56	3
47	101	1
92	93	2
46	46	9
61	95	3
53	88	3
97	98	2
46	69	3
33	33	5
81	98	4
43	65	3
76	77	4
56	89	1
57	72	1
55	55	4
67	68	6
47	48	4
70	70	7
75	76	2
78	78	3
75	75	3
49	49	6
84	88	4
93	96	3
84	84	1
50	50	3
85	86	4
33	39	5
100	102	5
82	83	2
49	50	2
85	85	3
81	86	1
89	90	3
30	30	2
56	92	3
68	69	5
42	68	1
83	85	1
44	44	10
46	94	1
31	33	3
51	72	1
71	79	1
34	34	3
96	96	7
34	44	2
42	65	1
58	86	2
48	73	3
39	39	4
37	37	2
59	60	1
50	52	2
64	64	7
87	97	2
83	84	1
45	48	2
43	90	2
55	59	1
56	57	4
81	100	1
81	83	2
40	66	1
51	58	4
25	28	3
72	74	2
56	56	4
57	85	2
44	86	1
77	78	2
63	64	3
43	71	2
43	44	4
54	54	3
42	90	2
35	38	1
68	73	1
58	71	1
55	94	2
44	89	1
72	79	1
62	63	1
93	94	2
74	88	1
69	93	1
86	87	1
31	31	1
92	99	1
53	87	1
98	98	2
90	92	1
25	26	2
93	95	1
95	97	1
55	99	1
95	95	2
61	62	1
74	74	1
81	84	1
69	92	1
64	65	1
99	100	1
29	37	1
58	94	1
27	27	1
59	59	2
62	62	2
61	61	2
44	55	1
64	68	1
93	98	1
79	82	1
48	49	1
84	85	1
53	54	1
69	80	1
50	74	1
54	55	1
36	38	1
22	29	1
52	54	1
