46	47	5
83	83	18
91	91	32
23	24	6
22	22	10
104	104	22
61	72	2
94	98	8
47	47	14
101	101	25
90	91	12
72	73	8
45	45	41
96	97	18
33	34	10
66	66	18
27	27	14
60	61	3
76	77	23
67	68	3
58	58	14
40	41	7
21	21	24
86	86	14
44	45	7
110	110	23
42	42	28
97	97	20
78	79	14
84	84	8
106	106	11
93	93	19
53	87	1
29	29	19
76	76	19
103	103	15
37	37	21
34	34	22
102	109	4
111	112	3
69	69	10
94	94	29
104	107	2
69	72	5
87	88	5
65	67	5
93	94	5
28	28	35
24	30	1
105	105	4
79	79	13
79	104	3
21	22	4
60	60	18
86	87	13
32	32	26
49	49	13
61	73	2
81	81	24
33	33	27
57	57	21
109	109	17
75	79	5
28	29	8
63	64	11
35	38	3
38	38	32
24	24	23
74	75	12
98	98	20
22	23	4
71	71	14
75	75	20
88	89	12
68	72	2
69	88	2
48	48	9
23	28	2
73	74	13
39	39	8
80	92	7
100	100	47
54	86	1
92	92	12
93	98	4
96	96	17
59	59	23
53	54	5
54	55	11
36	70	4
73	75	1
72	77	4
80	80	17
54	54	9
40	40	10
34	35	6
22	41	1
62	81	1
66	68	2
37	39	6
87	89	2
36	37	10
87	87	15
30	30	11
95	98	5
89	90	14
64	65	12
95	95	15
31	31	21
102	102	23
56	57	6
24	28	10
39	86	6
54	56	4
101	103	3
78	106	2
103	111	6
107	107	28
87	91	4
26	26	16
89	89	21
35	35	21
70	70	20
62	63	4
56	56	16
75	76	2
25	26	9
110	111	2
111	111	19
20	20	18
108	108	22
63	63	14
30	34	1
60	63	2
77	77	28
82	82	25
57	71	2
112	112	25
81	84	2
102	108	5
74	74	13
64	80	4
73	73	26
115	115	6
47	76	3
62	65	3
103	104	5
72	72	14
41	41	10
46	46	7
58	60	2
41	48	1
62	64	4
58	63	2
76	92	1
65	65	23
99	99	39
30	93	1
76	78	8
29	30	7
83	85	3
43	44	7
90	90	10
51	51	10
36	36	29
48	49	4
31	93	2
76	86	2
85	87	1
25	47	1
113	113	19
61	61	8
68	68	16
55	58	4
114	114	25
112	113	7
88	88	7
47	48	6
66	67	11
94	95	7
89	109	2
30	31	15
110	112	3
65	66	5
78	78	10
51	52	4
78	80	3
33	37	7
20	21	2
70	71	7
81	82	4
24	26	2
23	32	1
25	25	8
86	107	2
77	78	2
70	76	5
31	32	5
94	96	4
113	114	6
95	97	4
104	106	3
80	81	7
41	73	1
97	98	8
78	82	2
105	107	2
35	36	8
72	76	2
28	42	4
23	23	16
82	84	5
43	43	16
37	38	3
103	105	7
53	53	5
54	81	3
45	46	6
34	36	6
62	91	4
59	60	8
93	95	12
104	111	2
26	27	9
95	96	10
105	106	12
82	83	7
52	52	12
81	85	1
83	84	10
85	85	9
98	99	16
55	56	7
71	76	4
98	110	1
50	51	3
79	80	8
92	94	1
44	44	14
28	74	2
101	102	6
54	57	1
77	103	2
57	59	3
100	111	1
27	42	2
68	69	7
57	58	10
100	103	7
114	115	4
107	111	1
72	74	3
55	57	3
71	73	4
55	85	2
95	106	2
73	80	1
50	50	13
83	92	1
61	67	2
66	69	2
31	39	3
78	87	3
102	103	9
27	28	8
73	76	1
65	68	3
38	92	1
19	19	7
30	109	2
89	91	1
62	69	3
79	98	1
81	87	1
33	65	1
109	110	5
82	87	2
41	42	3
96	98	3
42	45	2
24	25	2
61	62	3
67	67	10
29	35	4
31	34	2
54	84	2
84	86	3
34	40	1
63	65	3
24	33	1
42	44	2
34	73	1
60	73	1
72	75	3
57	81	1
92	93	3
27	51	1
39	40	5
26	36	1
24	41	1
21	52	2
72	80	7
59	106	1
65	110	1
63	68	6
98	103	3
61	86	1
47	52	3
62	62	14
78	86	3
23	55	1
53	59	5
110	113	2
107	108	3
30	39	1
71	78	2
20	22	2
104	105	1
75	77	1
80	85	3
63	76	2
84	85	7
78	105	1
68	73	2
60	103	1
31	33	2
20	25	1
49	51	2
96	109	2
23	30	6
80	82	3
63	83	3
99	100	4
94	97	2
71	79	1
64	64	2
92	95	1
78	91	2
77	93	2
53	55	3
88	90	1
32	36	2
55	55	2
44	46	1
63	104	1
78	102	1
19	100	4
30	73	1
77	99	2
100	101	1
67	99	1
61	91	2
61	85	1
32	35	2
60	74	1
54	85	1
61	63	3
54	108	1
20	57	3
49	92	2
25	27	2
78	89	3
101	109	3
71	72	3
23	58	2
74	77	2
90	99	2
48	50	1
49	50	1
21	45	1
68	71	1
76	88	1
63	106	2
60	75	1
87	90	2
92	108	1
58	59	3
53	62	1
91	111	1
68	88	1
99	111	1
80	100	1
61	66	1
60	109	1
29	32	2
46	52	1
85	86	2
26	28	2
108	109	1
54	59	2
49	69	1
24	27	1
76	100	2
29	36	1
26	75	1
27	29	2
20	53	1
62	67	2
100	110	1
23	33	1
29	53	1
53	70	1
69	71	1
75	78	1
24	29	1
33	73	1
69	70	1
55	108	1
28	37	1
41	45	2
83	90	1
25	75	1
52	85	1
63	87	2
111	113	1
47	50	1
77	108	1
58	62	1
56	58	1
68	87	1
97	99	1
82	88	2
47	49	1
39	41	1
34	41	1
32	34	1
97	109	1
41	74	1
54	62	1
92	96	1
77	80	1
