79	79	4
91	98	1
34	34	3
93	97	4
32	33	1
72	72	3
97	97	6
24	24	6
101	101	8
33	33	3
112	112	7
110	110	7
76	79	2
52	52	5
82	84	8
60	77	2
30	30	4
43	44	6
95	95	3
62	62	7
69	109	3
69	69	9
70	71	1
36	36	4
40	40	2
107	107	11
76	76	4
66	66	7
24	25	1
54	59	2
38	39	3
31	97	1
102	103	3
107	110	3
99	99	9
49	49	3
87	87	4
32	32	6
111	112	5
95	105	2
39	71	3
74	74	4
106	106	5
100	101	4
100	100	4
103	103	2
85	86	5
73	73	4
70	79	1
57	57	1
44	44	8
66	68	5
60	60	8
62	81	2
112	113	4
35	35	4
54	55	1
25	25	3
94	94	6
113	113	7
82	82	3
63	65	2
77	77	9
101	102	4
22	22	4
105	105	3
48	48	4
74	77	1
102	102	4
28	28	4
43	43	1
38	38	7
56	86	2
109	109	3
75	75	6
91	91	5
86	86	6
26	29	1
54	58	2
53	95	2
21	21	2
58	82	3
79	85	3
42	43	8
28	38	7
91	92	1
50	51	2
56	56	4
53	55	2
96	106	2
20	37	1
34	35	3
80	80	1
111	111	2
71	71	1
36	42	3
80	81	5
28	73	6
39	40	2
81	81	4
35	36	2
93	98	4
57	59	2
94	97	3
40	41	2
104	106	1
108	108	2
27	59	3
88	95	6
61	77	1
53	94	3
55	55	3
78	78	2
22	31	1
57	60	4
37	38	2
96	97	3
84	85	3
59	59	5
31	31	1
106	107	2
69	70	1
105	107	1
113	114	1
56	60	4
83	84	5
58	58	2
65	65	3
61	61	5
93	101	3
53	53	4
93	93	1
50	50	1
94	95	4
53	59	1
93	103	1
101	108	1
99	101	1
19	19	2
37	37	1
114	114	3
26	27	1
25	45	2
94	106	2
85	85	1
95	96	1
67	67	2
31	37	1
61	76	4
65	105	2
64	64	6
21	22	1
65	68	1
78	79	3
63	63	1
96	96	1
86	111	1
98	98	2
62	64	2
55	57	1
54	54	1
27	27	1
65	66	1
86	88	1
26	26	1
46	46	2
76	78	1
67	68	2
89	91	1
75	76	1
83	83	1
88	88	1
69	72	2
41	41	1
37	46	2
60	62	1
75	78	1
39	39	1
88	89	1
71	98	1
23	37	1
22	23	1
