113	114	8
19	19	25
23	24	10
60	61	4
118	118	26
132	132	28
29	29	21
98	99	8
127	127	41
77	77	12
52	62	2
41	41	25
30	30	24
141	141	33
24	25	20
69	72	6
54	54	16
40	40	20
134	135	6
40	41	9
140	140	13
113	113	14
95	95	25
133	133	22
103	141	5
37	38	13
125	125	35
101	102	23
34	34	4
62	62	30
47	47	11
138	139	5
8	8	15
49	49	24
82	86	2
126	126	32
115	117	7
102	102	39
124	124	41
102	106	4
63	63	7
6	6	13
111	112	4
111	116	2
31	31	7
110	110	27
28	28	27
87	88	1
59	59	11
66	66	18
133	134	26
84	84	5
136	136	22
18	18	20
140	141	10
129	129	30
92	92	15
10	95	1
131	144	3
123	123	18
127	128	12
27	27	19
117	117	21
17	17	29
116	117	4
23	23	19
2	2	12
115	116	9
1	1	23
91	91	9
119	119	42
113	115	3
67	67	15
143	143	16
131	131	28
76	76	25
48	48	10
42	42	34
24	24	7
16	17	4
104	106	6
105	105	11
101	101	27
115	115	9
108	108	9
118	119	13
83	84	6
69	71	2
133	141	4
0	0	17
33	35	7
33	33	6
124	125	7
122	123	23
72	72	5
87	89	7
18	21	5
10	10	20
65	65	11
112	113	11
89	89	12
109	109	27
110	111	6
36	42	3
104	110	3
84	85	4
50	50	10
73	74	4
131	141	2
76	82	3
16	16	10
26	26	10
96	97	10
68	68	16
2	5	2
79	79	1
106	106	7
39	39	22
126	131	1
35	35	5
97	97	13
78	78	16
85	85	11
32	32	16
145	145	29
59	60	3
126	129	6
4	4	15
121	121	7
115	118	5
123	124	10
141	142	16
27	28	11
105	113	3
124	126	4
131	132	11
39	40	6
112	112	6
140	143	4
61	61	14
126	127	12
83	93	5
30	94	1
64	64	7
129	130	11
80	80	20
22	22	42
37	37	20
139	139	13
97	98	4
60	83	2
66	88	1
98	130	2
99	115	4
90	90	9
122	141	3
60	62	2
109	110	15
134	134	46
41	42	6
145	146	9
142	143	10
0	1	5
57	61	3
1	2	3
57	57	15
99	100	4
42	43	5
102	103	10
5	5	18
99	141	2
30	95	5
53	53	19
54	55	4
81	82	9
118	121	2
99	99	35
38	38	21
80	81	14
67	88	2
86	86	13
88	89	3
60	60	7
128	128	35
38	39	8
103	114	4
130	130	27
143	144	4
58	59	2
59	62	3
105	107	2
135	138	4
81	81	23
93	94	8
100	115	2
76	77	14
15	87	2
104	109	4
135	136	11
130	131	7
37	39	3
100	101	13
135	135	20
86	91	5
142	144	7
13	33	2
70	72	9
122	122	13
10	11	4
138	138	8
66	78	2
3	10	2
9	10	9
132	133	11
127	132	1
69	69	14
132	144	3
13	14	7
2	4	3
114	114	19
70	71	3
25	25	18
119	121	3
18	23	3
108	109	3
107	119	4
9	9	13
132	135	2
99	110	2
70	86	3
83	85	4
83	91	5
119	120	8
61	65	1
77	78	2
110	138	4
104	105	7
20	26	3
94	94	12
20	38	1
22	128	5
139	140	10
111	111	10
13	13	2
104	104	10
127	129	4
87	87	6
105	108	1
53	54	7
4	5	10
3	4	9
103	103	10
107	108	6
67	68	4
80	101	4
125	129	6
90	91	6
36	36	9
8	9	3
129	131	5
58	58	10
76	86	3
58	64	5
87	90	2
100	118	2
93	93	8
3	3	4
144	144	22
28	29	10
26	27	4
35	36	8
99	102	2
69	70	4
55	56	5
48	77	6
11	11	7
128	129	8
56	56	13
31	34	1
15	16	3
105	106	15
96	96	14
35	78	2
125	126	6
98	117	2
142	142	15
21	22	2
114	131	1
92	93	9
100	100	2
134	138	2
71	72	3
63	88	2
71	71	10
132	134	4
88	88	3
21	21	23
62	63	13
26	37	4
26	36	4
55	55	7
6	11	4
75	75	9
89	90	10
12	13	4
84	96	2
137	139	3
31	33	1
82	82	14
133	137	1
91	103	2
37	41	3
137	137	6
107	109	4
76	78	2
51	52	7
95	96	6
120	120	8
113	116	2
51	51	11
0	2	1
119	137	1
66	87	3
86	88	1
36	73	1
96	101	2
68	69	4
112	122	1
107	107	5
101	131	7
126	128	3
116	116	4
99	118	3
118	134	3
103	106	1
122	124	2
117	131	3
109	141	4
98	98	16
16	41	4
117	118	4
43	43	8
27	29	2
17	18	5
119	136	2
4	6	2
120	143	1
91	110	2
1	35	1
8	10	2
31	80	2
31	32	4
78	79	3
120	121	3
49	51	3
65	79	4
36	37	2
10	140	1
94	95	1
12	12	8
3	5	1
139	141	1
123	125	1
131	133	11
97	104	1
86	103	2
73	77	5
135	137	3
27	37	5
134	137	1
118	132	1
87	104	2
48	51	1
66	67	1
47	58	3
82	83	4
18	19	4
79	80	5
119	135	2
124	141	1
74	75	2
52	58	3
76	83	2
126	132	2
49	50	5
107	113	1
7	10	2
125	128	4
34	35	5
57	74	2
134	139	5
85	92	2
111	113	2
63	83	2
144	145	3
20	20	10
4	119	1
22	23	4
36	48	2
95	101	1
119	143	1
119	134	1
9	141	4
92	94	2
72	73	3
5	6	1
9	52	1
93	97	1
25	27	3
67	71	1
72	76	2
2	80	1
42	48	1
68	70	4
65	66	2
2	3	2
71	96	2
128	142	1
75	78	1
64	65	2
64	78	3
42	71	2
74	74	3
107	141	1
131	138	3
70	70	3
37	40	1
118	139	4
135	141	2
32	36	2
15	15	3
84	88	1
135	140	2
72	77	3
20	21	2
92	115	1
32	34	2
73	73	7
106	107	2
59	61	4
121	134	1
61	63	1
92	96	2
70	90	3
99	130	2
96	98	1
121	140	3
58	60	1
117	144	1
75	79	1
62	65	6
120	137	1
29	144	2
118	120	2
65	78	2
25	26	1
101	103	2
117	133	2
14	14	2
141	143	1
38	74	1
83	83	3
33	34	1
67	72	3
19	20	1
35	71	3
47	49	1
32	92	2
36	78	2
120	139	1
94	96	1
137	138	2
19	26	1
67	69	1
91	92	2
41	48	1
63	64	1
138	140	2
57	59	2
84	92	2
80	97	1
101	138	1
61	62	3
34	85	3
73	75	1
63	66	1
83	86	1
46	47	1
11	95	1
19	38	2
11	96	2
64	83	2
74	78	1
10	121	1
2	34	1
102	104	1
13	15	1
76	85	1
0	110	3
140	142	1
136	137	1
42	66	1
12	14	1
125	127	1
103	104	1
47	76	1
117	119	1
80	105	1
4	11	1
56	58	1
138	141	1
70	109	1
38	40	1
121	141	1
108	120	1
130	132	1
95	97	1
61	142	1
85	91	1
8	13	1
125	130	1
128	131	1
