26	27	18
78	78	52
90	100	10
85	85	19
20	20	22
24	24	15
34	34	47
2	2	13
3	4	7
64	64	32
82	82	47
4	5	19
27	27	32
58	58	30
100	100	20
3	3	18
28	28	32
48	49	16
13	13	31
32	32	43
102	108	2
49	58	2
104	104	17
119	119	18
51	56	3
26	26	52
92	111	1
60	60	44
55	56	9
47	47	49
0	1	2
73	73	55
100	101	16
67	68	14
48	48	21
75	75	40
101	101	22
84	84	20
45	45	48
97	98	10
68	74	3
33	34	14
57	58	17
6	6	37
132	132	38
98	98	31
111	111	16
8	62	1
8	8	45
17	17	45
24	25	13
69	69	30
32	35	1
127	127	25
32	81	5
6	7	15
34	35	23
11	60	2
118	118	23
61	61	53
57	57	41
64	65	7
79	81	6
102	104	8
13	16	1
44	44	35
20	21	19
104	105	22
17	43	4
19	20	10
65	65	34
92	93	13
126	134	6
12	12	31
133	133	17
59	59	35
106	108	6
114	131	6
91	92	12
21	21	48
7	8	6
31	36	2
10	10	34
45	71	8
56	56	16
28	29	8
80	81	11
83	84	7
12	13	7
11	11	56
46	67	2
103	107	3
107	109	11
121	121	22
5	5	33
99	99	12
80	80	37
27	47	5
63	63	44
30	30	55
38	38	37
33	33	60
7	84	1
31	31	34
74	74	31
2	3	5
113	113	24
103	103	11
30	110	2
80	134	3
123	124	9
28	78	4
87	88	14
20	85	2
0	0	10
10	12	5
6	14	10
98	133	1
96	98	3
62	67	3
77	77	46
29	60	4
22	22	25
29	29	58
32	110	2
55	55	10
125	134	6
110	110	18
97	97	23
27	80	9
106	109	1
16	16	9
83	83	48
51	55	7
36	36	36
62	62	30
115	115	17
29	49	4
118	119	9
89	99	2
25	75	2
127	129	4
18	18	30
133	134	7
68	68	36
72	72	37
63	64	11
57	59	8
60	62	4
29	61	3
7	7	28
25	25	33
21	26	6
46	46	50
17	19	4
94	94	41
45	72	6
35	35	44
114	114	22
7	20	2
39	40	16
81	81	42
49	89	3
4	4	21
4	31	6
41	41	36
117	117	7
50	50	7
46	47	20
86	88	3
15	15	43
90	92	10
26	47	3
91	91	34
78	80	4
41	82	3
9	10	11
75	76	25
56	59	1
79	79	47
5	6	20
24	28	3
18	19	14
17	33	5
130	130	12
69	70	28
27	28	11
46	63	1
81	82	20
120	122	6
93	98	4
25	33	6
23	23	23
25	49	4
38	83	4
93	101	4
124	124	31
73	119	3
66	66	47
35	64	2
10	11	11
62	74	4
8	9	10
104	106	2
82	133	2
77	78	7
98	99	6
107	107	7
28	30	7
63	66	3
37	37	28
72	73	7
122	122	16
23	26	16
127	131	3
20	32	3
8	10	5
46	70	1
79	83	3
102	102	27
3	20	1
31	32	20
101	102	8
17	18	9
9	9	23
100	103	4
3	33	1
93	93	29
92	133	1
40	43	3
41	42	23
82	101	1
128	129	6
39	39	11
42	42	26
102	105	5
87	87	19
123	123	18
131	133	5
66	84	1
38	40	6
74	75	7
26	94	3
70	70	37
25	28	3
97	99	4
90	90	21
95	96	13
58	59	13
64	93	1
27	93	4
112	113	9
88	88	7
116	117	3
128	132	7
20	27	2
11	26	2
83	101	2
131	131	30
46	62	2
14	14	17
9	13	1
21	22	8
70	72	5
19	19	28
15	35	2
62	63	4
45	46	3
8	100	1
116	119	4
34	45	2
1	1	10
84	85	6
76	76	27
125	133	3
70	119	1
105	105	9
19	32	6
5	16	3
22	25	3
114	132	3
41	43	7
97	114	2
19	33	5
25	26	8
103	105	6
32	33	12
27	29	15
63	65	3
71	118	3
61	75	7
27	32	4
24	26	5
10	112	4
79	116	3
85	86	9
130	132	1
128	128	27
111	112	14
5	101	3
132	133	10
100	113	1
73	74	16
36	63	1
49	49	14
116	116	10
82	84	9
23	30	2
29	62	5
68	70	10
17	44	4
120	120	20
97	107	1
81	83	4
14	15	14
79	80	22
60	75	2
1	2	8
24	83	1
60	61	9
25	77	5
55	93	3
2	9	4
23	43	2
95	102	4
59	60	8
20	22	6
11	65	4
99	100	11
36	37	15
94	108	2
46	71	6
112	112	16
21	23	2
78	90	1
96	96	16
23	94	1
78	79	11
56	58	2
125	125	7
31	108	6
43	43	29
16	17	4
88	101	2
45	64	3
58	88	4
80	89	5
126	126	31
82	83	21
129	134	3
10	26	5
68	69	6
18	33	5
109	111	12
21	37	6
86	86	7
93	94	7
15	16	9
17	47	1
67	67	18
26	29	2
45	74	2
129	129	18
25	29	2
105	110	4
36	45	2
106	106	11
16	84	2
89	89	10
76	77	13
4	7	9
84	104	2
36	82	1
78	95	2
109	109	18
25	27	2
86	94	3
63	97	1
88	91	1
97	110	1
40	44	1
20	34	4
102	106	1
33	35	1
116	125	1
71	71	20
7	31	2
40	41	6
114	115	2
128	131	2
131	132	3
29	82	2
12	67	3
92	92	20
127	128	2
4	16	1
120	121	15
26	92	2
11	93	7
49	50	7
122	123	3
96	99	6
12	14	5
9	61	4
113	114	9
108	108	8
92	97	5
70	117	3
45	60	1
95	95	18
124	134	3
134	134	14
56	57	10
44	45	9
29	31	6
55	58	2
95	98	3
29	30	26
44	60	4
24	82	4
94	95	18
30	32	5
43	44	6
1	35	2
27	30	3
85	87	4
14	73	1
6	83	1
11	12	6
42	43	13
89	90	5
3	115	1
4	6	8
12	71	1
10	125	2
41	45	2
108	110	8
13	47	3
80	82	2
95	97	1
103	104	4
35	45	3
21	32	1
115	116	6
66	67	4
8	90	2
33	76	6
10	46	3
130	134	3
31	83	3
92	109	1
85	94	1
93	100	1
92	132	3
79	90	1
15	41	3
77	101	3
6	8	2
47	48	4
23	27	1
20	25	5
6	66	2
47	75	3
8	32	1
78	88	2
32	83	2
21	30	4
61	67	6
29	79	1
128	130	5
85	111	1
71	72	7
22	26	8
86	99	2
102	103	6
45	70	2
77	84	2
7	16	7
5	7	2
27	78	2
7	75	2
32	47	1
8	112	2
21	24	1
45	123	1
82	91	2
61	62	6
7	33	1
119	121	2
88	92	2
58	60	5
11	84	1
130	131	15
37	42	1
81	84	1
100	127	2
20	30	1
97	101	2
9	60	2
89	132	2
86	108	3
76	78	1
35	36	7
29	59	4
91	110	1
37	59	2
46	73	2
20	23	1
11	114	1
40	40	14
63	74	3
42	44	1
18	20	2
93	111	5
131	134	1
115	130	1
85	88	8
110	112	4
13	15	5
49	56	2
109	110	5
21	85	3
7	66	2
28	80	2
60	84	1
65	66	5
94	98	1
33	82	2
4	18	1
102	114	2
81	91	2
18	34	1
20	33	1
25	93	2
3	34	4
90	112	4
121	122	8
13	14	6
127	133	1
119	120	10
34	36	2
27	79	2
43	48	1
39	43	1
21	60	3
4	27	1
47	49	1
116	121	6
47	83	3
37	40	3
23	25	6
4	29	2
106	107	2
112	122	3
3	27	2
94	96	1
24	74	1
5	85	3
16	19	1
6	16	2
27	92	1
39	41	1
40	42	3
69	71	2
27	119	2
90	102	2
89	92	2
5	14	3
108	111	1
50	56	1
38	43	7
61	83	2
26	28	1
96	97	8
120	123	1
35	39	3
12	61	2
78	82	1
25	82	1
36	75	3
83	118	2
125	127	1
86	87	2
32	34	4
105	109	1
20	84	1
87	94	1
48	59	2
43	60	1
123	127	1
38	39	9
75	77	2
76	85	2
92	95	2
29	32	2
37	38	4
21	29	2
114	121	1
8	36	3
124	125	5
98	110	1
12	17	1
61	68	1
115	132	2
75	85	6
92	100	2
126	127	3
26	93	3
38	42	1
93	95	1
57	60	2
44	78	1
66	68	2
88	89	4
54	55	3
99	104	2
17	117	1
6	29	1
16	82	2
19	30	1
128	134	1
87	89	2
78	83	4
93	97	2
84	88	1
22	36	2
23	24	1
90	101	1
48	50	1
14	23	3
10	85	1
91	111	1
25	60	1
12	29	4
33	75	2
42	60	3
25	47	1
0	68	2
103	110	2
99	105	1
126	130	3
79	92	1
30	59	1
70	74	1
30	49	2
28	77	1
6	13	1
78	85	1
64	70	2
61	76	2
91	96	3
39	42	1
9	36	1
70	71	4
27	49	1
77	83	1
43	59	1
78	101	2
14	16	2
6	23	1
108	109	3
30	31	2
42	82	2
89	91	2
20	37	3
25	44	2
16	59	1
8	75	1
44	61	2
20	62	2
8	61	2
85	103	1
26	82	1
107	108	3
36	44	2
45	69	2
12	93	1
125	126	1
105	106	2
62	66	2
34	67	1
35	75	1
15	23	2
117	119	2
93	110	2
38	44	1
113	116	2
7	25	2
91	100	1
72	118	2
36	40	2
116	134	1
28	62	1
27	46	5
78	100	1
10	68	1
90	91	3
31	33	1
106	110	1
11	13	3
91	95	1
34	74	1
15	25	1
19	21	1
6	27	1
6	85	1
59	86	1
84	95	1
48	86	1
82	92	2
8	18	2
47	62	1
90	111	1
7	27	1
12	131	1
13	46	1
93	99	3
40	50	4
21	27	1
10	66	1
55	57	2
2	8	1
64	66	1
8	17	1
73	88	2
11	68	1
104	110	1
103	106	1
82	132	1
37	43	1
14	74	1
84	87	1
21	31	1
84	90	1
115	121	1
28	48	1
112	114	1
11	116	1
76	95	1
40	75	1
15	40	4
97	100	1
7	10	1
10	111	2
95	99	1
22	37	2
23	36	1
37	57	1
118	124	2
29	78	1
81	89	1
46	107	1
5	83	1
117	121	1
91	97	1
77	91	1
25	31	1
38	41	1
11	14	1
3	17	1
43	88	1
9	19	1
3	101	1
97	103	1
22	23	1
88	109	1
35	41	1
62	72	1
127	130	2
117	120	1
57	61	1
7	100	1
69	74	1
28	33	1
37	39	1
17	83	1
129	131	1
84	111	1
17	46	1
2	117	1
5	10	1
3	29	1
97	109	1
