216	216	24
102	106	1
212	212	48
211	231	6
56	59	4
205	205	37
168	180	3
16	17	2
59	59	22
66	93	2
228	228	18
221	222	22
184	184	31
43	43	15
55	55	11
87	87	15
222	222	15
195	195	23
214	214	21
15	15	18
113	115	7
95	95	18
27	192	2
38	38	15
101	121	4
243	244	23
183	197	5
82	82	19
191	192	9
45	89	3
37	38	8
58	58	18
168	169	13
44	45	6
225	225	15
166	167	18
42	42	27
41	42	20
55	56	11
65	65	17
67	67	23
52	52	18
46	68	3
106	107	5
237	237	28
47	82	3
10	10	37
191	191	20
62	63	9
159	159	42
19	50	3
53	104	2
24	24	13
175	175	19
201	201	55
223	223	21
110	154	1
239	239	23
208	212	3
220	220	19
70	71	1
116	223	3
245	245	24
50	50	21
241	241	35
85	86	17
174	199	1
227	228	10
190	192	6
212	219	4
173	190	5
63	71	3
49	49	18
44	44	7
109	109	24
22	36	4
208	208	29
116	225	4
209	209	47
233	233	29
70	70	10
190	190	22
178	178	37
169	169	27
214	215	11
171	172	14
57	57	22
8	9	9
23	23	29
84	163	1
186	212	3
25	222	6
9	10	9
234	234	31
189	189	3
213	213	44
193	195	8
112	112	31
78	192	2
190	191	27
206	206	9
196	198	4
85	85	21
156	157	7
24	109	1
229	230	19
242	242	29
171	171	22
154	155	3
35	117	3
210	210	46
231	235	2
215	215	22
102	203	1
34	34	22
101	101	11
202	203	6
35	35	20
48	48	28
194	195	16
173	173	15
69	76	5
184	185	7
188	189	24
182	182	20
114	114	16
163	163	43
28	29	2
22	23	9
159	160	11
116	116	4
111	165	3
162	163	15
214	227	4
178	179	8
227	240	2
20	21	4
102	102	14
169	191	1
156	156	37
77	193	4
32	32	11
41	41	21
151	186	2
111	111	30
226	238	3
243	245	5
227	227	13
164	164	23
72	72	31
189	192	9
29	29	15
88	89	5
60	60	20
155	155	45
26	26	20
153	153	30
181	181	22
165	166	14
157	157	29
167	179	2
79	79	12
54	54	9
180	180	22
192	192	23
183	202	1
244	244	13
78	78	33
158	159	14
94	94	13
235	236	7
68	68	24
93	94	3
161	161	12
181	182	17
45	45	27
229	229	33
238	239	21
208	209	13
182	183	21
105	105	14
98	98	15
71	71	10
235	235	30
154	154	40
162	167	3
236	236	20
41	43	5
66	72	1
75	79	1
36	36	36
173	174	8
226	226	19
65	66	6
172	172	21
238	238	29
160	184	2
225	226	11
33	33	20
146	147	9
20	47	7
33	34	1
43	44	14
95	100	6
185	193	2
77	78	6
22	22	25
110	110	21
204	204	23
93	93	22
48	64	4
8	8	20
167	167	26
30	62	3
20	20	16
89	90	11
245	246	13
96	97	11
168	168	30
108	109	9
72	73	11
58	59	3
46	55	2
177	177	39
45	83	2
247	247	34
97	110	5
18	18	31
21	22	4
120	120	9
175	176	11
84	84	21
19	46	5
72	87	1
59	60	9
233	234	10
232	240	2
188	212	2
176	176	17
78	79	11
96	96	10
30	30	16
25	25	17
216	217	16
81	81	17
113	113	20
232	233	8
92	92	28
47	64	1
53	54	14
79	80	13
46	46	19
151	168	4
236	248	2
25	84	1
105	107	6
151	152	2
6	6	29
146	146	5
108	108	19
40	108	1
3	3	12
49	50	10
184	186	1
185	185	15
37	37	18
211	211	16
151	151	50
212	215	4
174	188	1
61	61	15
47	47	20
174	175	11
99	100	5
217	233	10
108	239	4
231	231	22
4	4	21
97	100	5
119	120	10
112	154	5
42	93	2
196	211	4
161	197	5
67	72	3
159	165	5
60	62	7
170	171	13
80	82	9
118	118	28
117	117	30
67	69	1
46	74	2
110	164	4
160	160	31
165	165	20
36	38	2
75	75	25
198	198	21
31	31	7
84	85	10
28	28	17
115	115	23
2	2	11
40	40	24
118	120	7
204	208	2
77	77	22
187	187	26
89	89	15
187	190	5
188	191	7
102	103	7
88	88	35
51	51	14
76	77	14
74	74	23
150	150	19
183	183	21
248	249	3
187	189	13
104	104	18
203	203	30
149	208	1
101	102	7
228	229	9
101	109	1
5	5	17
215	216	7
12	15	5
95	107	2
185	194	5
152	152	31
197	197	37
16	16	26
99	99	16
59	61	10
13	13	7
167	170	4
67	80	3
31	32	6
101	103	6
194	194	18
97	98	16
181	209	5
121	121	10
92	242	2
162	162	26
61	62	14
202	202	34
17	33	5
200	204	1
179	201	3
58	60	2
183	208	6
54	58	3
82	86	2
64	64	16
205	206	3
86	220	6
47	48	6
198	199	5
204	205	3
62	62	21
114	116	5
195	196	9
157	169	3
183	184	16
19	19	26
235	237	10
167	175	2
165	167	5
36	81	3
186	186	24
166	166	15
64	65	6
215	218	2
7	7	28
9	12	2
37	110	2
33	36	2
86	241	3
224	225	7
149	150	6
221	221	25
68	70	15
59	223	1
66	66	25
169	170	19
27	27	23
30	31	23
199	199	22
77	160	3
200	200	21
196	196	22
11	11	19
90	91	4
12	243	8
204	211	3
206	207	12
236	237	6
24	25	5
168	171	6
77	195	2
54	56	3
90	90	27
91	91	16
167	177	1
48	65	2
69	71	4
147	147	19
87	88	9
220	221	4
10	11	11
205	207	4
3	115	14
158	158	27
199	214	1
76	76	5
207	207	25
7	18	5
246	246	20
39	49	3
103	104	1
45	46	3
57	164	4
178	193	1
39	52	2
174	174	23
240	240	21
106	108	2
98	99	6
91	92	14
158	170	4
86	87	6
193	193	10
83	84	4
161	162	12
2	18	2
189	193	3
231	234	7
79	82	1
22	203	2
242	243	1
34	36	5
219	219	11
220	222	5
109	110	5
162	195	2
169	171	2
162	165	3
86	86	11
166	170	6
211	212	13
239	240	12
198	212	2
217	218	7
212	216	4
26	27	4
179	240	2
65	71	1
42	43	4
39	157	3
119	119	19
35	36	8
85	220	2
82	84	2
14	15	6
14	14	11
19	49	3
174	177	3
192	193	4
178	199	1
53	53	17
246	247	11
5	13	1
212	231	2
114	207	2
172	190	2
176	177	8
56	163	2
223	225	4
218	226	2
75	76	10
212	213	5
150	155	8
27	28	5
194	196	5
163	165	1
146	157	4
38	46	5
191	193	3
108	117	1
197	199	10
224	224	4
48	191	5
186	189	5
40	52	3
240	241	8
209	210	15
63	63	32
226	228	14
187	188	13
84	92	1
224	232	4
100	100	19
212	229	3
187	194	3
33	35	1
188	198	3
49	51	5
51	158	2
161	169	1
65	67	2
48	80	1
199	201	1
42	52	3
183	198	3
231	233	2
234	236	6
197	198	10
157	166	4
56	57	9
4	5	9
40	164	5
179	179	21
74	77	4
57	59	1
92	109	3
63	64	3
1	1	9
175	177	6
61	101	1
61	76	7
153	154	12
189	190	7
73	73	21
5	115	4
199	200	11
10	34	4
222	223	7
18	35	3
236	247	3
117	118	12
17	18	7
98	100	4
165	189	3
40	157	3
3	116	3
43	63	1
78	81	3
249	249	7
156	200	1
170	170	24
100	101	6
158	160	3
116	117	5
213	214	13
56	56	23
116	222	5
71	76	3
110	204	2
87	92	3
97	97	8
69	69	17
242	244	3
179	183	3
163	164	12
114	115	9
67	94	3
241	242	11
167	168	2
3	114	2
200	201	3
230	230	17
232	232	12
99	152	1
181	184	3
236	238	2
74	75	4
157	158	8
21	21	10
226	227	15
107	107	19
243	243	9
87	93	5
105	106	9
202	226	2
209	212	1
248	248	15
152	158	4
29	39	1
69	83	1
81	85	2
84	86	3
175	197	3
32	33	6
89	95	2
67	98	2
60	61	8
18	19	12
153	159	3
51	70	2
11	12	3
172	173	2
159	162	1
104	107	4
200	225	2
162	187	1
247	248	8
172	174	8
216	219	7
1	2	5
103	103	11
24	201	2
176	189	4
175	182	3
185	191	3
216	227	5
198	225	3
160	169	1
77	119	2
94	95	6
83	86	5
166	168	3
96	219	3
68	69	5
160	187	1
12	12	8
38	157	2
29	30	9
162	198	1
36	37	4
238	240	6
238	242	2
174	191	6
34	61	2
63	70	2
97	99	4
164	165	1
26	28	4
172	238	1
218	219	13
208	211	3
153	155	4
207	227	1
192	209	6
241	244	2
244	246	6
196	197	10
99	101	8
30	39	3
33	39	1
39	47	2
180	181	14
174	176	4
99	120	2
8	17	1
86	88	5
46	47	8
158	169	5
58	216	3
198	200	2
179	194	1
104	108	4
28	227	2
31	85	5
110	205	2
179	184	3
179	191	4
144	145	5
55	62	2
155	156	4
231	232	4
31	226	1
112	152	3
177	183	1
36	242	4
207	217	1
145	145	13
185	186	2
96	120	2
189	196	3
230	231	6
198	236	1
7	116	1
208	210	7
173	176	3
95	98	4
3	6	2
69	70	6
71	73	2
186	187	4
80	80	3
223	226	2
188	190	6
104	111	2
193	194	10
186	188	2
39	158	2
57	58	10
82	83	4
166	177	7
5	14	3
189	199	2
147	182	2
94	99	1
16	32	6
160	170	1
204	207	2
57	62	1
115	116	5
75	119	1
160	185	1
14	18	2
112	113	6
152	153	7
188	188	16
40	41	7
73	74	6
201	203	4
80	84	2
179	180	7
12	13	1
47	60	3
110	157	1
65	75	2
40	111	2
203	204	5
235	248	2
36	57	3
6	27	1
210	211	3
189	212	1
45	52	4
75	194	6
71	72	10
46	110	2
57	60	3
9	9	18
12	114	1
55	57	6
51	157	4
144	149	2
216	218	1
208	218	2
56	58	2
100	114	1
36	46	5
113	114	7
163	166	3
71	74	3
17	17	19
9	15	1
186	190	2
41	63	1
64	66	5
208	219	6
237	240	2
107	117	2
79	85	1
244	245	1
177	191	2
79	248	2
86	242	2
12	29	1
107	108	11
152	159	6
234	235	8
50	51	2
42	98	8
118	119	1
230	235	5
39	40	4
161	173	2
44	53	2
39	39	8
180	182	1
62	69	3
18	34	1
217	217	18
175	179	2
225	231	2
146	177	5
6	117	1
108	245	3
208	217	2
150	151	7
25	26	6
21	37	2
92	93	3
151	167	1
11	17	1
221	229	4
233	237	3
178	185	2
201	202	7
172	189	2
189	191	3
144	144	2
160	161	6
66	67	5
177	184	4
169	174	3
156	178	2
202	205	2
83	83	10
120	121	1
85	87	6
197	206	1
102	107	4
150	157	3
227	239	4
212	227	1
203	226	4
2	115	2
18	20	1
98	145	3
149	178	3
163	167	1
58	61	1
42	45	1
222	224	1
59	85	1
177	178	2
239	246	1
182	186	2
77	161	1
34	35	2
161	163	4
35	118	5
187	216	4
104	106	2
79	81	1
247	249	1
196	210	4
185	192	2
193	196	5
10	28	4
38	39	5
234	241	2
211	232	1
44	47	4
177	181	2
20	50	1
175	178	3
169	176	1
86	219	1
59	62	1
207	214	2
36	116	1
85	100	2
237	238	5
3	18	3
8	19	1
76	195	4
45	232	1
53	100	1
104	105	6
161	165	2
149	204	2
187	204	1
110	203	4
69	75	1
109	121	1
190	197	1
181	183	1
108	116	1
115	221	2
30	33	3
173	200	3
187	192	1
42	44	1
181	192	2
184	203	2
186	192	2
24	26	2
42	110	3
62	101	4
53	65	2
245	247	4
185	187	2
55	63	2
225	232	1
113	166	4
52	100	1
103	154	1
193	207	2
52	53	4
41	108	2
21	46	2
68	72	1
179	199	1
19	20	5
32	88	1
54	63	7
229	234	2
56	164	1
168	173	2
212	218	1
111	204	1
7	8	1
111	114	1
174	190	1
106	106	4
46	80	1
80	81	4
166	178	2
229	231	1
211	215	2
165	170	2
107	109	1
181	190	1
153	158	1
95	96	3
240	244	2
168	172	2
164	166	2
75	78	2
173	228	1
14	112	1
182	208	1
53	103	1
23	24	2
218	218	6
233	241	5
15	16	7
54	55	2
50	80	1
220	223	2
81	82	1
111	205	2
96	104	1
192	194	2
157	159	2
43	98	1
3	17	1
119	144	1
218	225	1
61	70	1
6	7	3
207	208	2
56	67	2
59	219	1
31	39	2
51	52	1
227	229	4
219	241	2
215	217	2
55	73	3
55	58	2
2	3	1
31	33	2
72	90	2
161	175	2
147	183	2
170	190	2
202	227	1
195	214	1
8	117	1
149	152	2
184	218	1
166	176	1
118	121	1
192	195	3
111	112	2
173	182	1
170	174	2
36	84	1
57	61	1
63	65	1
111	244	2
37	116	2
121	145	2
9	11	1
53	62	1
59	68	3
2	7	3
85	94	2
156	165	2
161	196	2
175	194	1
68	82	1
56	221	1
35	82	1
58	74	1
5	6	2
222	225	1
3	4	1
217	220	1
30	84	4
2	5	1
37	113	1
176	190	1
180	184	1
88	221	1
45	80	1
193	209	1
34	82	3
191	195	1
100	149	2
20	48	1
46	59	1
31	44	1
10	27	1
0	1	3
75	77	1
36	117	1
86	90	1
39	45	1
193	210	1
120	145	1
13	14	2
185	198	1
187	209	1
35	83	2
51	63	1
47	83	2
53	108	1
197	211	1
97	101	1
20	22	1
19	34	1
29	240	1
47	62	1
34	83	1
169	173	2
41	52	1
161	190	1
89	91	1
71	83	1
190	213	1
216	237	2
82	247	2
112	115	1
111	113	1
24	32	1
96	99	2
88	91	1
150	183	1
211	213	2
149	158	1
167	171	1
236	239	1
180	202	1
221	225	1
67	79	2
110	201	1
50	63	2
209	218	1
196	220	1
39	44	1
165	190	1
214	224	1
156	158	1
190	194	1
71	77	1
162	164	1
106	206	1
50	158	1
110	111	2
46	99	1
20	75	1
11	93	1
111	243	1
53	112	1
63	76	1
192	196	1
21	82	1
223	231	1
182	200	1
98	101	1
157	167	1
168	170	1
50	237	1
33	37	1
78	80	1
146	158	1
208	216	1
2	6	1
56	198	1
210	216	2
47	59	1
5	117	1
50	66	1
218	244	1
97	144	1
92	95	1
194	200	1
161	174	1
161	167	1
40	43	1
108	247	1
233	242	1
161	180	1
115	117	1
187	210	1
212	226	1
238	245	1
212	214	1
