142	142	3
0	6	1
67	74	1
127	127	5
84	93	2
5	5	7
3	34	2
5	10	5
61	61	8
17	17	9
87	87	5
66	66	7
126	126	6
22	22	3
128	131	2
62	68	1
5	8	1
62	66	2
71	71	4
69	69	1
64	65	3
12	33	3
21	21	7
104	104	9
13	40	1
126	129	3
50	86	1
118	118	3
43	43	4
59	59	2
48	48	8
34	34	3
59	60	2
74	74	8
16	17	4
55	55	3
29	87	1
136	136	7
115	115	6
25	26	1
117	118	1
64	70	3
94	94	6
38	38	6
23	23	5
109	109	5
135	135	3
104	136	1
11	11	1
31	48	1
140	140	3
97	113	4
12	13	1
139	139	1
48	49	3
132	133	2
3	36	6
13	16	1
29	29	9
122	122	2
60	60	5
136	139	4
39	39	5
113	113	1
67	69	2
129	129	4
112	112	3
75	75	4
14	14	2
62	62	2
8	8	7
98	98	2
125	125	3
105	122	1
18	28	1
57	57	6
101	101	1
116	116	1
33	33	5
96	98	3
137	138	1
54	54	3
70	72	4
110	110	6
134	134	3
119	119	1
103	103	3
117	117	4
39	40	5
121	141	1
106	106	3
70	74	1
128	128	5
56	63	4
18	18	2
118	119	4
126	128	2
2	2	8
71	92	5
20	20	1
131	134	1
6	6	1
133	139	4
135	139	2
22	25	4
1	1	8
104	137	1
132	139	3
141	141	5
113	117	5
26	82	1
58	58	2
114	115	1
111	111	1
105	120	1
48	54	4
27	74	1
108	108	2
17	18	2
83	83	3
75	88	1
42	42	6
32	33	1
102	102	3
71	74	3
113	114	1
76	77	2
121	122	6
52	52	4
90	90	4
4	14	2
13	96	3
98	103	2
5	19	4
68	72	4
25	25	5
10	101	2
132	132	3
24	24	1
63	63	1
56	56	4
20	21	2
27	27	1
122	128	1
24	112	3
73	75	1
67	68	1
118	132	3
72	112	2
23	24	2
30	30	2
92	92	1
130	130	4
0	10	1
125	136	3
31	31	2
116	119	1
127	133	2
21	76	2
63	73	1
53	53	6
96	109	1
102	103	1
82	95	2
36	51	1
35	42	1
0	0	1
23	121	2
83	91	1
21	22	1
33	35	2
85	85	3
85	93	2
41	41	1
22	105	2
70	71	2
16	33	2
110	114	2
19	19	1
14	16	1
73	73	2
125	129	1
62	64	3
62	117	3
111	113	2
110	118	1
2	11	5
110	111	1
86	86	4
127	130	1
64	64	2
70	73	2
78	84	4
108	112	1
9	32	2
84	84	3
62	63	1
139	140	1
116	118	1
28	28	3
82	128	1
72	73	2
136	137	1
101	102	1
10	10	4
119	138	3
4	4	3
24	25	3
34	36	1
68	68	3
14	40	1
13	14	2
105	130	1
74	90	1
90	91	1
9	9	1
6	14	1
141	143	1
40	40	2
20	78	2
125	126	3
23	27	1
28	90	1
62	67	2
105	139	1
113	115	2
114	117	1
93	93	1
13	85	1
67	67	1
108	109	1
123	123	1
108	116	2
5	14	1
47	47	2
32	32	2
80	82	3
81	81	1
97	108	1
135	136	1
79	94	1
144	146	2
56	58	1
87	89	1
15	15	1
38	42	1
49	49	2
132	134	1
65	69	1
28	71	1
58	61	1
63	64	1
125	138	1
16	105	1
91	91	1
40	41	1
73	140	1
50	50	1
26	26	1
13	37	1
58	79	2
143	143	1
82	82	1
106	137	1
62	65	1
13	13	1
15	16	1
122	123	1
