92	92	2
38	38	15
27	27	4
62	65	2
33	33	10
104	104	12
80	132	1
47	48	11
69	69	7
128	129	5
67	67	10
70	70	14
74	80	2
35	36	6
39	39	5
42	43	20
28	29	2
74	74	4
4	32	4
125	126	5
111	111	7
131	131	4
40	40	13
13	14	1
35	35	16
6	28	1
67	77	5
32	50	1
95	97	5
68	87	1
126	126	4
112	131	1
42	42	10
6	13	3
94	94	8
49	49	7
3	3	5
109	109	8
15	123	4
103	103	4
15	15	6
94	116	3
146	146	4
73	73	12
94	99	5
153	153	8
38	73	2
45	46	5
15	16	8
108	108	4
11	12	6
48	48	4
33	87	8
47	47	8
11	11	17
101	105	5
133	136	2
144	145	6
5	36	3
105	105	8
62	63	7
9	9	9
142	143	2
72	73	7
83	84	2
117	117	7
107	133	2
138	138	3
64	64	6
132	132	6
20	21	2
6	6	9
9	137	3
71	72	1
56	56	5
24	25	4
87	87	12
73	74	4
121	121	2
124	124	3
90	90	1
4	4	11
49	53	2
26	36	2
128	128	7
68	86	10
145	146	9
45	86	1
128	135	2
27	30	1
78	83	11
149	149	5
20	20	14
127	139	5
144	144	4
136	137	1
55	116	2
46	47	3
17	17	7
41	41	8
46	46	17
25	27	1
30	30	7
25	25	11
57	57	3
81	81	4
69	121	2
82	82	4
50	50	6
134	134	3
44	44	5
6	7	5
101	102	2
29	30	3
46	70	2
52	52	1
101	101	4
55	55	6
72	84	1
95	95	6
135	144	2
57	58	4
12	12	12
64	71	6
107	108	3
93	94	3
2	19	1
110	112	2
145	147	4
137	143	5
20	32	3
17	18	3
21	21	6
14	15	13
106	107	12
65	65	3
20	22	2
8	9	1
33	86	4
67	79	4
120	122	4
69	104	2
8	33	2
97	97	9
66	66	6
102	111	6
29	29	10
131	141	2
40	71	1
34	36	6
22	61	2
150	150	15
81	83	4
41	42	4
40	41	3
17	19	3
124	125	4
66	74	4
54	54	5
6	8	1
128	149	3
28	28	7
4	30	3
75	75	2
96	100	1
13	22	1
96	96	5
84	86	4
72	72	4
136	136	4
123	124	2
96	97	3
86	86	2
154	154	2
55	57	3
67	94	2
93	95	3
76	76	5
69	85	2
78	81	4
10	10	4
26	27	6
99	99	4
22	23	7
47	53	1
19	19	5
9	10	5
27	29	2
76	87	1
80	87	3
63	76	2
37	37	10
22	22	4
107	107	3
11	37	4
54	77	5
77	77	9
43	44	2
85	86	1
113	114	2
11	127	2
110	110	2
102	115	3
16	16	5
41	43	6
83	93	4
7	17	1
26	35	3
58	58	6
71	71	4
7	8	3
112	128	2
53	53	3
36	81	5
84	85	3
38	39	7
65	67	1
147	148	2
78	92	4
65	66	3
33	36	5
75	93	3
139	142	1
36	36	11
84	84	5
12	23	2
63	77	4
129	129	1
80	85	2
6	31	3
3	32	1
43	46	1
115	116	6
105	128	4
135	136	4
5	33	1
13	13	9
51	51	3
31	31	6
112	137	1
85	95	1
152	153	2
98	99	6
80	84	3
68	74	2
113	113	1
91	116	3
3	4	1
25	26	5
97	101	4
58	78	1
93	93	2
102	102	2
5	5	6
111	120	4
37	67	2
139	139	1
66	81	3
25	32	2
105	114	2
79	82	4
25	28	2
78	79	3
39	131	2
75	77	2
130	130	8
67	73	2
30	32	3
22	25	2
120	121	2
92	94	2
112	113	3
66	73	1
112	123	1
55	71	1
17	24	1
45	45	6
78	80	2
103	112	1
37	38	2
23	25	6
86	87	2
10	11	1
145	145	4
141	141	1
26	26	2
34	34	4
4	36	3
32	32	3
140	141	4
130	141	3
23	24	1
133	133	6
66	67	3
90	92	2
142	142	3
7	7	6
109	111	3
127	135	2
16	26	1
109	116	1
135	135	3
95	99	1
29	31	1
68	70	2
44	73	2
40	45	2
10	31	4
107	138	1
90	95	1
61	64	1
113	130	1
63	114	2
19	20	3
132	139	2
10	27	3
41	72	1
19	25	2
83	83	5
106	118	1
74	76	1
125	135	2
124	134	1
110	124	2
120	120	1
39	40	1
116	116	3
80	137	1
119	149	1
61	63	2
74	75	3
14	14	3
128	136	1
71	73	3
103	115	2
83	88	1
106	106	3
136	142	1
25	33	2
82	94	1
143	147	1
137	138	3
98	98	3
63	64	2
6	29	2
89	111	2
148	152	5
43	71	1
137	141	1
31	32	2
89	90	1
125	125	1
119	122	1
40	73	1
123	135	2
124	127	1
102	109	3
114	114	2
5	14	1
143	143	1
34	35	2
136	144	2
61	61	1
109	133	1
18	18	2
123	123	1
51	53	1
23	23	3
78	82	1
50	63	2
138	143	1
131	142	1
5	6	1
100	101	1
36	82	1
138	142	1
48	53	1
12	13	1
142	144	2
16	17	1
50	64	1
48	55	1
151	151	1
119	121	2
85	85	1
14	26	1
62	62	3
35	38	1
29	81	1
26	28	2
110	113	1
92	153	2
118	118	2
50	51	3
148	148	1
24	24	1
114	140	1
22	24	1
27	33	1
67	75	2
66	79	1
43	43	2
64	65	2
109	113	1
64	94	1
126	147	1
67	81	1
137	139	1
131	132	1
119	119	1
33	34	1
8	31	1
119	129	1
115	115	3
4	7	2
17	20	1
80	143	1
99	100	1
81	82	2
80	80	1
139	149	1
6	16	1
8	8	1
112	127	1
97	98	1
68	68	1
7	13	1
17	26	1
51	123	1
56	58	1
63	63	1
153	154	1
100	102	1
66	80	1
24	31	1
