1	2	10
149	149	37
34	34	29
128	129	6
38	40	4
174	174	27
111	111	35
17	63	2
25	25	38
156	158	5
52	53	18
46	51	1
82	83	4
172	172	31
179	181	6
10	10	38
36	36	38
27	27	35
8	8	19
116	116	30
25	31	1
138	138	26
107	107	27
195	195	46
188	188	39
112	112	38
122	124	1
64	64	15
20	20	28
4	4	42
196	196	22
183	183	64
139	139	26
106	106	21
185	185	43
41	42	8
23	23	47
7	8	16
130	185	1
0	3	2
26	26	23
30	31	3
194	194	53
87	87	22
153	185	3
101	101	41
57	58	6
61	76	6
196	197	14
141	141	21
163	164	15
155	155	49
191	194	4
36	86	5
181	182	13
132	137	4
13	13	30
12	13	8
157	157	76
73	73	19
184	184	35
43	52	3
97	195	2
64	65	11
30	30	41
103	103	23
187	187	42
122	122	51
162	162	29
142	142	18
125	125	25
166	166	44
134	134	24
158	159	10
29	30	5
145	145	37
176	176	39
28	28	24
116	117	11
39	43	2
21	21	40
151	151	45
171	171	50
81	81	15
136	136	30
176	182	7
127	127	30
154	155	24
67	67	18
106	107	15
182	193	1
127	128	16
141	149	2
183	197	3
117	119	3
13	14	17
164	164	20
58	59	7
45	45	17
31	41	2
191	193	5
122	136	4
160	160	40
187	188	12
161	161	37
119	122	2
118	118	32
42	56	3
193	194	16
58	152	3
108	108	21
157	159	6
37	37	44
177	177	36
184	185	8
158	158	40
5	5	23
53	53	22
6	9	5
193	193	49
175	183	3
2	61	3
59	59	25
128	197	10
189	189	42
171	188	1
102	102	31
86	86	17
172	187	1
100	101	7
165	165	23
8	37	4
48	48	44
194	196	9
191	191	40
20	21	16
151	152	23
141	142	6
68	72	6
12	12	28
169	169	66
66	67	6
142	143	12
121	122	5
61	65	8
168	171	2
99	99	25
143	143	32
113	115	1
167	167	18
121	121	36
36	38	1
155	156	17
167	168	17
61	61	7
140	140	16
176	177	24
149	151	5
174	176	10
70	70	20
197	197	23
0	0	14
88	90	3
114	114	40
49	49	33
0	2	6
168	168	20
177	192	1
37	40	3
131	132	18
150	151	17
111	112	15
34	41	5
94	94	22
173	174	18
121	123	12
186	195	1
186	186	54
119	119	36
189	197	2
146	146	23
104	105	12
56	56	24
158	165	2
132	133	9
180	181	12
157	161	3
154	154	61
178	193	3
117	118	9
68	68	14
74	74	21
29	31	3
123	123	24
31	31	41
178	178	42
33	40	3
128	128	45
145	146	24
54	54	43
146	153	2
124	124	34
32	32	49
192	192	28
160	161	12
162	165	3
105	106	23
78	79	7
152	186	2
108	109	12
117	152	2
138	140	5
135	136	17
175	176	24
14	15	5
18	18	41
5	8	1
52	52	40
175	178	2
138	141	4
15	15	32
29	29	29
179	179	43
78	96	4
68	80	3
25	63	8
179	182	7
94	110	2
163	175	1
22	97	3
32	33	4
170	170	31
186	187	21
135	141	2
137	168	3
131	133	3
143	144	13
152	153	25
41	41	21
156	156	43
28	30	15
47	47	47
45	46	4
42	42	20
22	22	27
58	58	29
60	61	11
177	185	2
14	14	15
113	114	14
135	135	32
117	117	14
169	172	2
182	183	16
16	16	13
112	196	1
132	134	10
186	194	6
72	72	29
120	120	27
153	158	1
132	135	5
113	113	19
194	195	12
71	71	21
93	93	11
178	194	3
181	181	36
117	176	1
122	153	1
105	105	15
81	88	1
131	131	29
115	115	26
98	99	11
100	194	2
157	158	24
174	192	2
39	68	1
4	5	7
19	117	4
42	43	11
9	12	3
190	191	15
43	43	20
122	197	2
189	190	15
103	197	1
129	142	2
130	153	2
46	46	14
165	166	7
22	23	5
35	35	15
25	26	16
121	147	3
36	39	2
116	174	1
182	182	48
150	154	1
8	9	10
7	7	21
132	155	7
174	177	7
137	137	29
19	34	3
190	190	43
11	12	8
57	87	4
20	141	3
37	39	4
112	141	3
56	57	7
89	94	3
94	95	9
125	126	10
130	130	27
138	139	12
119	120	19
163	163	22
38	38	22
40	46	3
159	159	53
97	97	20
98	106	3
103	132	9
16	17	17
150	150	35
189	192	5
103	105	5
66	66	17
160	164	7
122	130	8
17	17	13
172	174	5
178	179	14
55	55	21
148	170	1
154	178	5
1	76	1
63	71	5
57	57	25
79	82	4
183	185	14
132	132	18
152	179	5
179	180	9
47	48	7
59	63	1
156	157	17
19	19	23
50	52	4
155	158	4
122	128	1
72	73	6
119	149	1
134	136	1
95	97	3
134	135	26
59	60	4
106	109	3
133	137	8
153	153	29
20	123	3
143	145	5
71	80	4
23	24	8
187	189	4
61	62	4
192	193	21
75	75	7
54	55	6
76	86	5
3	4	2
132	146	7
168	176	3
175	175	15
129	129	41
3	3	23
77	77	7
88	88	21
176	181	3
133	134	17
2	7	2
1	5	5
70	113	1
139	143	7
169	170	13
195	196	7
115	145	3
132	150	3
76	76	6
136	144	1
164	167	7
123	132	1
172	173	8
185	187	1
178	182	3
161	174	2
156	178	1
40	54	1
63	63	18
159	166	6
49	50	10
83	83	15
51	51	25
37	38	5
125	127	4
161	168	3
60	77	2
7	28	2
28	29	15
133	133	32
137	138	5
40	41	12
156	159	1
147	147	30
9	10	23
106	140	3
100	124	1
180	185	2
6	8	9
93	94	10
160	186	3
22	25	5
130	148	5
39	40	12
39	39	20
113	124	4
180	180	17
75	115	3
70	114	1
114	188	3
7	9	1
24	24	24
80	80	11
38	67	3
55	71	1
102	103	20
183	184	8
188	192	2
131	134	6
62	64	4
84	84	8
53	59	2
40	40	45
1	1	12
19	38	1
74	89	2
33	33	32
89	89	10
11	11	39
78	78	19
151	186	5
26	62	1
1	8	6
35	37	3
100	100	28
195	197	1
110	110	34
51	59	2
147	177	2
164	166	12
100	105	1
95	95	14
1	25	1
162	163	12
161	164	4
158	171	1
190	192	8
160	163	2
32	34	2
34	35	5
43	44	14
120	122	2
28	40	2
86	87	6
85	86	9
113	155	2
122	194	6
165	196	2
98	98	21
29	36	2
130	135	1
150	152	6
134	155	1
51	52	6
42	45	2
99	107	3
151	153	9
158	186	5
173	173	28
6	74	1
166	167	14
109	109	23
68	69	16
1	29	5
19	25	2
153	188	2
129	185	1
160	179	4
81	82	4
142	147	4
130	134	2
51	56	2
10	13	4
139	140	15
4	32	5
104	104	14
60	64	1
96	96	29
52	55	2
38	54	2
78	85	2
126	126	30
26	189	4
4	149	1
28	73	1
176	183	6
146	147	10
54	57	8
124	125	12
74	112	2
133	168	1
74	75	6
136	137	11
140	141	13
107	108	5
152	152	27
13	15	4
77	87	4
171	172	7
168	192	1
107	127	2
76	77	3
115	153	5
9	9	29
119	172	8
34	39	4
185	186	11
114	181	2
183	186	4
56	64	2
139	167	3
152	168	3
110	115	1
134	147	2
79	81	2
50	50	29
26	30	2
148	149	7
26	27	11
38	59	1
123	124	16
88	89	12
149	170	2
122	161	3
170	172	4
2	2	15
168	169	20
110	145	2
79	84	3
10	56	2
174	194	3
84	85	6
45	47	6
119	195	4
137	139	1
130	131	8
177	178	8
96	97	7
117	169	1
114	136	4
159	160	15
16	55	1
6	7	7
18	24	2
126	127	9
48	49	5
145	165	6
67	84	1
144	144	17
109	116	1
4	8	1
165	167	3
10	15	1
19	74	2
173	176	1
67	68	5
116	118	1
108	111	4
5	7	3
171	190	2
191	192	18
106	108	5
158	170	3
38	65	2
161	162	9
148	189	2
75	76	3
160	162	2
80	81	7
160	192	1
72	118	2
31	32	10
109	111	7
21	27	4
105	107	9
108	110	7
150	159	7
34	36	5
110	111	9
44	44	33
171	187	3
112	113	7
174	175	12
147	148	5
10	11	6
184	191	2
99	100	9
188	189	13
158	160	5
39	41	1
148	148	19
185	189	1
4	59	2
149	150	5
38	53	4
6	6	22
115	139	1
0	25	5
40	56	1
29	151	3
128	150	4
119	121	2
151	168	4
157	169	1
94	194	1
141	145	2
16	24	1
180	192	1
172	182	6
142	150	1
62	65	1
169	190	1
178	181	6
104	113	4
186	193	2
79	79	5
168	170	6
2	3	7
113	151	2
146	148	5
118	166	3
137	158	3
170	171	13
77	78	3
129	131	1
0	1	3
82	82	10
122	123	9
182	187	3
17	18	10
46	56	1
64	66	4
166	168	4
43	56	3
104	121	2
32	151	1
85	85	9
175	182	1
68	70	2
103	134	3
33	34	4
3	34	4
52	54	3
35	36	7
97	99	2
74	84	2
38	39	2
164	191	1
149	183	4
60	60	3
132	145	4
130	138	3
65	65	9
174	179	3
184	194	2
11	37	1
176	178	9
105	175	3
19	20	3
0	24	4
12	37	3
120	121	13
63	75	2
64	68	3
27	28	3
115	116	13
24	25	6
133	136	4
3	35	3
142	149	1
113	123	1
47	125	3
112	114	5
50	51	4
175	193	2
165	179	1
69	69	23
62	67	1
88	94	4
33	37	1
193	195	2
59	61	6
159	163	1
62	63	4
145	147	1
126	128	10
76	89	7
19	21	5
27	40	3
133	135	5
82	84	1
178	180	2
28	70	2
122	146	3
73	89	3
181	192	3
53	54	5
36	37	1
18	21	3
150	185	3
140	142	1
157	163	2
101	105	1
185	188	2
137	180	2
20	41	3
8	39	4
32	50	4
58	113	1
122	147	3
55	62	6
38	43	5
70	72	1
178	192	4
35	151	2
149	182	2
182	185	1
95	96	8
98	102	2
167	171	3
23	31	3
129	130	2
21	22	5
94	99	3
31	55	2
71	72	9
153	154	4
79	80	3
30	32	1
3	5	1
44	45	6
131	186	2
2	4	1
12	53	3
156	167	1
139	141	4
122	125	1
161	182	2
179	192	2
123	128	3
15	32	3
121	129	2
18	19	3
39	66	3
66	69	1
124	127	1
122	144	1
180	193	2
101	173	5
8	17	1
21	111	2
40	47	2
26	41	1
100	120	1
55	64	2
144	145	10
41	43	4
116	151	3
40	52	1
180	190	2
61	74	2
120	148	1
46	57	2
43	55	1
3	6	2
5	6	6
2	26	2
183	188	5
4	17	2
157	160	3
171	197	3
3	19	3
129	151	1
28	42	4
76	87	2
112	142	2
152	154	4
112	115	2
122	141	3
6	31	3
182	184	3
102	172	1
101	174	1
55	56	7
96	98	2
148	151	2
115	152	2
132	187	2
172	175	2
123	155	1
10	58	2
133	148	2
59	79	3
77	79	5
137	140	3
44	52	2
30	55	1
156	168	1
162	164	1
136	141	3
18	22	3
68	73	3
53	58	2
169	174	2
145	190	1
162	166	1
42	129	1
141	188	1
122	188	2
32	57	2
83	85	2
58	66	2
112	152	1
39	42	2
148	150	2
27	131	4
33	44	1
150	177	2
56	94	1
104	171	2
123	184	1
68	76	3
59	67	3
1	75	2
132	193	1
28	54	1
67	69	1
109	110	5
10	49	2
146	160	1
0	27	1
41	55	5
177	181	4
121	139	1
8	32	4
156	163	1
55	128	2
31	54	1
24	146	2
185	194	1
135	137	2
67	77	2
53	56	3
13	37	3
107	114	3
0	5	4
118	192	1
67	70	1
22	24	2
15	16	5
58	74	3
152	159	1
179	194	2
146	151	2
173	193	1
167	176	3
42	54	1
128	134	1
42	46	2
101	109	1
69	70	1
52	56	2
141	169	3
108	114	1
18	29	2
131	136	1
120	147	2
96	106	1
135	164	1
34	78	1
41	52	1
65	66	6
101	102	4
169	180	1
40	58	1
70	71	3
58	149	1
63	64	3
113	125	1
66	72	3
136	138	4
161	190	2
163	166	1
161	163	2
111	163	4
115	157	1
137	179	1
119	148	2
178	190	5
119	167	1
129	133	1
0	46	1
93	100	3
183	196	2
54	56	2
15	17	1
153	169	1
17	20	2
131	137	1
102	104	1
43	45	7
138	142	2
22	27	1
55	58	2
17	117	3
122	129	1
47	49	1
4	9	4
115	189	2
147	179	1
61	64	3
133	138	2
1	3	3
183	187	2
175	177	4
115	123	1
42	47	1
3	8	1
168	190	2
114	151	1
132	186	1
33	48	1
180	182	2
173	192	1
83	84	6
134	140	3
73	74	1
100	134	1
2	25	3
156	187	1
38	58	1
109	148	1
140	143	1
13	44	1
116	123	2
0	9	3
111	115	3
38	42	2
44	165	2
135	139	2
138	182	1
1	9	2
127	195	1
161	191	1
33	36	2
13	51	1
19	22	1
54	59	1
135	140	1
134	148	5
20	147	1
5	34	1
110	116	1
182	188	2
121	130	2
121	127	2
161	193	1
159	161	8
130	137	2
97	115	3
113	152	2
167	172	1
150	155	2
27	31	4
165	171	1
181	183	1
94	97	3
172	189	2
3	157	2
33	35	1
187	193	1
19	39	3
75	182	1
120	130	1
161	173	3
27	41	2
5	32	2
180	183	4
51	53	1
100	106	1
8	10	1
185	196	1
42	51	1
26	138	2
108	167	2
110	114	2
143	148	2
20	22	3
134	156	2
42	55	1
41	48	1
154	169	1
109	163	2
181	184	1
47	51	3
42	68	2
99	102	3
116	187	1
54	66	3
44	53	1
26	28	5
1	4	2
115	156	1
113	142	2
30	130	1
17	21	2
171	181	2
160	178	1
186	192	1
111	138	1
134	143	1
169	188	1
21	24	1
185	193	1
79	169	1
38	57	1
129	149	2
161	165	1
172	176	1
29	32	5
171	182	1
174	193	1
100	180	2
6	35	1
118	119	1
25	27	3
29	55	1
151	169	2
35	130	1
26	36	3
152	188	2
19	24	1
0	23	1
14	24	1
171	196	1
119	123	1
130	141	2
39	70	3
134	137	2
42	44	3
16	37	1
187	195	3
33	52	2
73	75	2
146	152	2
101	158	1
40	53	2
101	103	1
39	67	2
42	87	1
109	161	1
169	171	1
76	90	1
58	116	1
141	143	1
152	155	1
118	121	2
152	178	2
98	108	1
2	22	1
119	153	1
144	146	1
130	132	3
152	167	1
133	150	2
66	73	1
129	150	1
138	157	2
100	104	1
115	193	1
15	33	1
44	135	1
1	18	1
123	125	1
40	44	2
87	88	1
164	165	1
138	170	1
120	123	1
163	168	1
36	151	1
2	8	1
131	142	1
27	42	3
115	143	1
119	196	1
172	185	1
64	74	2
109	112	1
149	187	1
77	89	1
152	187	1
8	31	1
51	165	1
23	158	2
133	171	1
2	23	1
65	68	1
56	80	1
62	72	1
41	74	1
181	193	1
179	189	3
146	183	1
3	7	1
132	168	1
114	120	2
149	155	1
58	93	1
62	62	2
3	45	2
129	134	1
112	143	1
140	157	1
75	96	1
107	111	1
28	131	1
109	147	1
47	127	1
75	77	1
114	115	2
124	126	1
7	25	2
14	33	1
186	196	1
137	154	1
131	143	1
94	98	1
76	78	1
6	24	1
120	129	1
48	125	1
121	137	1
139	156	1
75	95	1
0	33	1
116	144	1
65	75	1
156	160	1
137	160	1
99	132	1
46	47	1
2	31	1
34	84	1
24	26	1
90	90	1
57	151	1
99	111	1
78	87	1
