148	149	6
111	111	10
93	94	1
4	4	23
161	161	12
6	6	12
159	159	13
38	49	1
65	65	8
72	73	5
85	85	13
143	143	12
7	7	23
157	157	9
114	114	9
98	98	16
10	26	1
86	98	6
8	9	8
117	117	8
113	113	18
39	63	2
92	93	6
75	150	3
117	118	7
133	133	14
109	109	18
138	138	9
18	18	7
154	154	9
64	64	10
15	155	3
86	86	11
141	141	16
35	35	14
17	20	1
110	111	6
14	15	7
138	139	6
17	17	15
17	18	2
5	160	2
83	83	7
45	49	2
53	54	10
75	77	1
11	11	13
26	26	19
108	108	10
155	162	2
107	107	19
5	6	2
140	146	2
73	88	2
134	134	11
119	119	7
18	88	3
76	76	5
66	66	4
77	77	14
136	148	4
8	8	13
49	49	18
119	120	7
2	3	4
46	47	3
96	96	6
136	136	5
137	141	3
19	19	12
112	117	3
102	103	4
82	82	4
115	120	1
123	124	3
87	88	6
34	34	21
122	128	1
63	63	14
112	113	1
43	43	8
150	166	4
91	133	1
18	20	7
48	73	2
116	132	5
161	162	3
46	46	19
132	132	12
47	54	4
147	147	14
36	37	2
76	77	1
68	68	2
81	81	12
168	168	14
90	90	16
84	85	5
144	144	9
161	165	2
12	13	10
75	75	14
110	110	10
40	41	1
79	80	4
75	79	1
131	131	9
46	63	1
54	55	7
23	23	11
122	122	5
163	164	5
67	70	3
134	135	7
3	3	10
18	90	1
87	110	2
13	39	1
69	90	2
121	121	5
102	102	13
62	62	15
166	166	7
53	71	3
111	166	1
80	81	5
107	108	9
73	87	1
156	156	8
87	87	10
120	120	9
112	112	17
0	10	1
103	103	19
10	24	2
54	71	3
58	58	8
116	153	3
162	162	8
57	63	2
106	106	19
130	130	9
94	94	3
155	155	11
121	149	2
74	74	5
19	84	4
152	152	9
112	118	3
57	57	13
41	41	16
37	37	20
22	22	11
39	47	8
118	118	10
55	142	3
85	113	2
69	78	2
77	79	4
27	27	7
38	39	4
137	137	11
127	128	3
160	167	2
79	79	8
54	54	8
94	95	7
78	78	11
156	162	6
55	55	16
150	165	5
124	124	2
69	69	9
81	82	4
137	138	5
167	167	8
56	57	4
150	150	13
101	101	10
48	49	4
13	13	4
84	84	8
36	36	16
74	75	4
101	103	4
89	89	14
48	56	1
3	4	8
90	116	2
7	8	5
25	25	9
44	44	8
39	49	3
98	99	9
132	166	6
143	144	4
115	119	1
72	72	14
17	48	1
97	99	5
169	169	2
123	123	9
101	102	9
19	20	3
116	116	6
113	136	2
97	97	8
9	12	2
39	40	5
73	73	4
16	16	14
110	135	7
26	27	9
93	96	7
151	151	6
154	155	2
61	61	3
10	12	5
43	53	3
169	170	4
137	139	3
72	88	3
106	140	1
99	99	5
87	95	4
49	57	3
65	66	7
125	157	3
18	118	1
126	126	8
28	28	4
145	145	13
128	129	6
153	153	5
10	10	11
104	104	8
89	96	1
63	113	2
37	58	1
67	67	2
51	51	5
15	146	2
22	23	7
158	158	10
64	65	2
76	112	1
155	156	4
153	154	10
50	50	13
84	86	4
116	119	4
16	25	2
140	148	2
69	91	1
43	44	3
40	40	12
69	70	11
52	52	5
18	25	5
5	5	7
103	105	4
70	81	2
76	78	1
121	138	2
149	149	13
106	107	5
98	118	2
53	53	12
25	144	2
101	158	2
44	45	10
27	28	6
78	79	2
24	36	1
140	147	4
126	127	1
108	109	9
45	45	12
21	21	8
125	125	8
78	106	4
18	19	3
160	160	10
66	68	2
36	40	2
55	71	1
127	149	2
91	91	9
89	90	5
7	170	6
25	41	1
140	140	13
127	127	5
9	9	9
80	80	7
20	23	1
92	150	2
43	54	2
74	88	1
105	105	7
66	105	4
131	132	1
4	6	2
130	132	1
170	170	6
103	169	1
45	56	5
70	70	8
15	15	8
8	109	1
23	24	2
142	142	5
67	68	3
91	119	1
113	116	3
47	73	1
139	140	6
152	153	7
1	2	2
123	125	3
116	117	3
19	24	2
8	17	2
35	37	6
47	53	1
149	157	3
141	169	3
72	84	1
119	146	1
84	87	6
142	156	3
25	26	5
38	98	1
39	62	1
164	164	18
18	99	1
16	19	2
114	115	6
133	134	3
99	118	4
150	154	2
151	152	2
165	166	3
160	165	1
167	169	1
92	115	3
18	23	2
124	125	6
91	93	3
38	148	3
127	146	2
80	110	2
162	164	1
42	42	3
21	22	5
40	47	2
143	151	3
147	148	1
114	136	1
24	73	1
24	72	2
38	71	2
132	133	3
1	1	7
25	55	6
77	82	1
71	75	3
16	17	4
154	162	4
39	39	7
130	157	1
100	128	2
71	71	8
118	120	1
35	72	1
6	45	3
148	148	2
102	111	2
163	163	2
13	14	1
165	165	5
8	12	9
37	38	8
47	47	4
25	64	2
115	115	2
98	100	1
78	82	1
85	87	1
93	95	3
86	87	5
94	119	2
129	129	6
146	146	4
101	104	2
70	71	4
128	128	5
153	155	2
24	24	8
20	21	1
64	67	1
51	52	1
139	139	5
0	1	14
135	135	5
81	148	2
157	158	2
22	72	1
93	93	14
12	125	1
87	89	1
140	141	3
149	150	2
130	131	2
142	168	1
135	136	3
99	120	1
9	10	4
49	53	2
94	99	1
62	70	1
0	45	1
62	63	7
147	156	3
103	111	3
122	164	1
99	100	1
97	98	2
99	125	1
120	132	3
40	62	2
24	25	1
71	83	3
145	147	3
125	153	2
41	71	1
49	70	2
98	114	1
142	155	1
71	72	4
88	88	13
116	130	3
159	160	2
70	73	2
94	111	3
144	145	3
122	131	1
3	17	2
57	68	1
38	47	1
129	156	1
24	81	3
145	146	1
6	7	4
14	18	4
20	20	3
99	124	2
97	117	2
21	68	1
24	75	1
18	68	1
34	136	1
115	129	1
25	27	1
77	78	1
20	62	1
117	130	3
141	142	1
75	76	1
47	49	5
127	129	2
35	36	4
95	96	1
6	13	1
15	17	1
57	58	7
129	167	1
123	151	3
5	167	2
133	138	1
111	112	6
125	150	2
12	44	5
96	112	1
47	48	4
119	158	1
51	61	1
4	15	3
85	92	2
160	161	2
34	36	2
74	90	2
10	11	1
13	17	3
114	116	3
141	165	1
76	82	2
7	10	1
40	46	1
6	9	1
48	53	1
16	113	2
6	8	1
113	114	3
156	157	2
74	106	1
14	14	3
12	12	3
164	165	3
88	118	1
136	141	1
109	113	3
17	126	2
92	92	4
132	155	1
74	76	2
126	130	2
116	154	1
5	166	2
46	73	3
126	131	1
76	84	1
103	104	3
100	100	3
38	38	3
34	108	2
9	14	2
166	168	2
122	130	1
115	116	3
77	121	1
142	143	1
65	96	1
138	149	3
108	136	2
130	168	2
18	37	1
113	126	1
35	84	1
111	125	1
39	72	2
42	47	1
159	167	1
96	97	2
9	109	4
126	143	3
95	95	3
92	99	1
109	110	2
2	2	5
8	16	1
93	130	1
19	26	1
100	101	2
11	12	3
15	16	1
48	48	5
97	118	1
10	53	2
45	46	1
57	62	2
38	67	1
102	114	1
78	105	2
136	138	1
40	70	2
16	118	1
131	165	1
154	161	1
35	65	1
34	88	2
156	168	2
51	63	4
87	117	1
150	163	1
148	167	1
107	109	2
92	94	1
15	23	1
80	82	1
1	81	1
76	80	2
0	44	1
90	118	3
27	107	1
112	149	1
116	129	1
7	15	1
129	161	2
73	85	1
53	58	1
85	88	1
106	145	1
88	89	2
51	62	1
48	83	1
68	96	1
90	91	6
121	143	1
23	67	1
39	41	3
107	147	2
159	163	1
4	16	1
39	51	1
101	105	2
1	7	1
158	159	1
146	148	1
25	28	2
53	55	1
138	140	1
91	158	1
118	119	2
5	13	2
55	56	1
38	40	1
121	122	1
34	113	1
50	51	1
139	141	1
42	96	1
37	41	1
84	89	1
63	112	1
136	149	1
147	151	1
108	137	1
20	64	2
122	161	1
89	122	1
50	62	1
105	106	1
120	121	1
28	62	1
120	149	1
54	56	1
71	87	1
24	40	1
40	44	1
144	168	1
56	56	3
80	94	1
89	119	1
74	89	1
25	145	1
146	167	1
100	133	1
13	16	1
40	71	1
36	44	1
166	169	2
156	167	1
66	67	1
4	5	2
100	103	1
25	112	1
82	83	1
72	87	1
38	41	1
39	58	1
99	101	1
80	86	1
155	157	1
112	133	1
67	75	1
118	123	1
89	121	1
54	142	1
92	123	1
20	66	1
37	116	1
110	138	1
14	99	1
37	112	1
113	148	1
103	148	1
