40	40	13
62	80	1
193	193	13
54	54	5
42	42	4
213	213	4
83	83	3
128	128	3
12	15	5
140	142	1
2	3	6
66	66	8
24	24	1
210	211	2
59	61	1
37	38	5
80	81	4
163	163	3
76	76	3
7	7	4
166	166	7
120	121	6
49	49	11
158	158	12
115	117	7
125	125	3
34	35	4
242	242	3
102	102	3
204	204	2
171	171	6
102	103	2
165	165	7
224	224	2
169	170	3
153	153	5
13	14	8
145	146	4
15	15	5
5	11	3
62	62	13
31	31	13
0	2	3
99	99	4
88	88	4
145	145	4
26	27	3
154	154	9
211	211	2
137	137	8
203	203	5
28	28	3
59	59	17
35	35	8
158	159	1
169	169	6
104	104	9
215	215	2
231	231	3
22	23	1
65	65	3
241	241	4
109	161	2
229	229	5
46	46	8
108	130	3
106	122	5
83	84	7
72	72	8
179	186	6
89	89	4
235	235	4
10	10	4
147	147	1
140	140	6
219	221	2
48	181	2
19	19	4
77	78	6
184	184	5
130	130	7
85	85	6
38	39	3
86	86	7
240	240	10
29	30	1
33	78	4
58	59	2
231	232	3
0	128	3
134	134	11
12	49	3
129	130	7
48	48	9
9	9	6
78	78	8
192	192	3
42	48	1
52	52	3
99	102	1
17	25	2
44	44	4
218	218	6
216	222	3
236	236	2
50	50	10
99	156	1
45	45	4
45	239	3
211	212	7
116	117	1
36	137	3
109	109	4
1	1	13
173	173	5
150	152	9
144	144	2
219	219	5
144	154	2
114	115	2
105	107	4
225	225	2
179	180	2
6	6	6
120	167	5
32	32	3
121	121	3
70	70	23
61	74	5
149	153	3
106	113	5
102	129	1
66	67	4
204	206	3
228	228	11
69	73	8
180	182	4
6	7	5
160	160	4
147	153	6
107	107	5
190	190	10
208	209	4
0	0	5
95	232	2
238	238	7
27	27	9
38	38	5
218	219	2
96	96	2
136	136	11
221	221	6
73	73	4
4	21	2
24	25	4
56	56	3
64	64	15
80	80	12
58	58	3
180	180	5
198	198	13
112	112	3
30	30	6
143	206	2
230	230	7
139	139	11
18	18	2
214	229	2
91	91	5
43	43	9
100	101	3
223	223	4
150	150	5
217	218	7
17	22	1
143	196	2
167	167	5
43	89	4
113	113	8
4	5	2
95	95	2
119	119	11
187	187	3
71	71	2
63	79	2
1	2	2
162	169	4
68	68	7
67	67	8
183	185	3
124	124	5
159	159	3
37	39	4
44	46	4
60	60	3
233	234	3
35	137	1
126	126	4
154	166	1
214	214	5
41	41	3
228	229	3
55	55	5
2	23	3
118	120	2
171	172	1
105	159	1
122	122	2
53	53	12
15	88	3
17	239	6
45	46	2
12	50	1
166	167	3
79	79	2
34	34	3
179	200	1
12	21	4
143	190	2
20	37	2
23	23	5
174	174	5
179	179	1
237	237	5
183	183	2
21	22	3
139	140	2
2	2	4
202	202	3
99	225	2
4	6	2
119	165	1
80	88	1
139	141	2
217	217	7
47	47	4
47	178	1
51	100	2
205	228	3
87	87	4
182	220	2
26	26	8
180	183	2
189	189	4
13	88	2
36	42	1
128	156	3
109	111	4
105	105	3
61	203	1
197	208	3
122	127	3
11	11	4
81	82	3
35	36	3
74	74	3
170	187	1
181	183	4
136	191	2
53	57	1
234	234	5
206	206	3
5	8	3
3	5	1
98	98	8
178	178	1
145	150	1
138	138	5
22	22	6
140	141	1
109	163	1
200	226	3
18	91	2
81	81	7
125	158	3
216	216	3
194	194	2
31	32	2
162	162	1
141	141	2
178	179	2
161	216	2
33	34	2
57	239	1
143	143	2
20	20	6
154	155	5
0	11	1
226	226	3
201	201	7
32	47	1
33	33	1
85	86	2
21	21	3
148	148	1
103	103	1
44	45	2
100	110	2
64	65	1
106	114	5
13	13	2
220	220	3
76	89	3
226	227	1
5	5	7
146	147	2
28	227	2
62	90	2
131	131	3
196	196	5
50	180	4
164	165	5
103	104	1
173	174	2
17	17	1
208	208	2
227	227	1
92	92	2
207	207	4
12	22	1
61	61	6
6	22	2
182	219	1
129	129	2
97	97	3
29	33	3
106	115	1
128	154	2
177	177	2
63	64	1
61	79	1
210	210	1
50	80	1
181	182	1
95	96	3
39	40	2
114	122	5
133	237	1
56	61	1
36	36	1
182	182	4
114	114	5
107	108	1
69	69	1
37	37	3
108	159	1
96	97	1
7	8	2
32	33	2
127	127	1
17	23	1
59	78	1
9	86	2
102	136	1
185	186	1
191	191	2
63	63	3
236	238	2
160	209	1
199	209	1
25	25	2
150	151	1
48	49	4
164	164	2
142	142	1
221	222	1
228	230	1
137	138	3
163	165	1
27	28	1
15	89	1
56	57	1
177	178	1
40	41	1
120	120	3
31	33	1
57	58	1
133	133	2
144	145	1
101	160	2
184	185	1
84	84	2
0	152	1
101	101	4
51	51	3
168	168	1
20	42	2
8	8	1
110	110	2
199	199	3
82	82	1
125	176	1
188	215	2
35	144	1
127	182	1
4	4	3
21	23	1
60	61	1
43	44	1
233	233	1
3	3	1
1	105	1
156	156	3
51	52	1
239	240	2
29	29	1
90	90	1
176	177	1
139	153	1
232	232	2
25	26	1
16	16	1
155	156	1
39	39	1
11	16	1
207	208	1
44	152	1
134	234	1
75	77	1
180	207	1
97	131	1
50	179	1
102	162	1
157	158	1
