2	3	4
119	134	2
62	68	3
7	60	6
26	27	1
166	166	8
103	104	6
83	83	5
136	160	4
96	96	5
20	22	4
169	170	4
151	151	6
74	76	4
40	42	5
39	39	4
142	142	17
29	193	3
29	192	1
133	157	1
25	28	6
18	59	2
179	180	2
44	44	8
189	189	8
178	178	8
123	124	7
157	157	9
193	193	6
46	46	1
157	158	2
187	187	7
128	129	1
6	8	1
159	159	15
10	195	1
165	165	9
156	156	6
28	28	5
40	40	4
27	28	4
130	175	1
134	136	4
19	23	3
149	149	6
78	78	4
28	29	7
181	181	17
180	182	3
120	120	2
176	176	11
192	193	7
153	153	9
184	193	1
9	9	1
158	159	8
109	109	6
188	188	7
167	167	4
34	66	4
174	176	3
23	27	3
105	106	13
118	118	5
70	70	6
161	184	2
84	84	4
155	155	7
22	22	3
14	15	6
140	140	6
38	38	5
194	195	1
84	85	2
177	177	8
123	123	5
50	50	6
42	43	2
147	147	3
155	156	1
39	41	1
190	190	4
4	109	1
172	174	2
83	84	6
5	9	3
166	172	2
69	81	3
127	127	2
88	88	4
152	152	4
133	133	3
114	143	2
110	110	5
117	118	11
176	178	2
162	162	8
66	66	4
179	182	2
165	166	7
181	184	2
146	146	9
115	157	3
54	54	6
137	137	4
180	180	25
142	143	2
191	191	4
69	69	5
13	13	9
87	89	6
166	167	9
144	178	3
93	93	1
7	61	2
33	33	4
100	100	4
125	170	2
143	174	2
68	83	3
88	112	5
17	17	5
24	24	7
50	51	4
108	111	2
141	145	1
85	88	1
113	115	2
115	142	2
173	175	6
197	197	4
135	140	2
20	20	1
194	194	6
61	61	3
59	59	7
164	177	2
182	194	2
184	184	5
109	110	1
195	196	6
11	11	3
37	37	5
27	27	1
10	10	3
104	104	4
14	14	8
158	158	6
148	148	4
53	53	11
171	171	11
116	134	3
169	169	9
132	161	1
126	126	2
40	63	8
89	89	2
105	105	2
102	103	7
36	36	2
174	175	4
160	160	7
115	117	2
23	23	6
170	170	12
135	139	3
173	176	4
5	5	7
34	65	1
196	196	7
195	195	4
137	158	1
186	187	3
36	59	2
191	192	1
16	44	4
154	155	2
181	182	3
5	6	2
62	63	3
2	21	3
138	154	2
138	139	2
152	158	2
126	138	2
55	58	2
93	94	2
153	154	2
81	81	1
119	119	5
2	2	2
116	139	1
32	32	3
49	49	5
173	174	7
124	126	1
129	179	3
80	81	1
140	142	1
67	85	3
129	130	1
161	161	8
42	42	6
161	163	5
186	186	8
43	46	2
47	47	7
3	4	2
52	52	2
106	106	8
136	136	5
151	152	4
151	157	3
53	57	1
168	168	3
48	48	6
147	152	2
33	86	2
108	116	3
17	18	2
129	129	2
67	74	1
134	140	4
115	115	3
176	177	5
126	141	1
138	149	1
21	21	9
115	116	1
3	3	4
192	192	7
4	19	2
42	46	3
93	95	3
169	171	6
74	75	3
168	176	3
33	35	3
28	30	1
0	1	1
32	124	3
35	62	1
86	86	2
191	193	2
2	108	2
1	2	1
1	1	2
138	143	1
94	94	7
187	188	3
56	56	10
167	168	3
22	23	2
83	102	1
137	155	1
43	43	3
145	146	2
129	160	2
157	168	3
159	160	4
45	45	4
55	55	3
125	125	4
9	10	3
141	141	5
34	61	2
118	119	3
164	180	2
129	132	1
114	114	4
107	111	2
79	79	1
30	31	5
173	173	4
51	51	4
101	101	2
14	47	1
151	160	3
175	175	9
24	25	1
29	190	3
77	77	3
180	181	2
30	30	4
152	153	1
73	73	1
95	96	3
57	57	3
113	113	8
189	190	5
190	191	2
99	99	4
25	26	2
102	105	2
140	141	3
179	179	1
0	2	1
103	103	5
128	128	10
174	174	1
52	53	2
164	164	1
130	130	8
101	102	4
102	102	2
138	138	3
171	172	2
154	154	3
168	169	4
73	74	4
130	131	4
41	58	2
150	151	2
131	131	3
40	56	2
35	36	4
125	126	4
147	148	3
143	173	1
130	144	3
35	35	6
24	26	3
9	12	1
132	132	3
76	76	1
172	191	1
6	51	1
31	31	4
6	6	3
12	12	2
70	83	1
58	58	2
66	72	3
8	9	2
57	58	2
71	73	1
99	117	1
45	47	1
111	148	3
111	147	2
18	18	3
111	111	4
71	71	2
16	16	2
15	15	3
153	158	3
56	109	1
124	124	3
122	122	5
121	121	3
18	122	2
102	118	1
130	133	1
8	8	2
185	193	2
104	151	1
4	4	6
172	172	6
135	157	3
5	149	1
75	79	1
94	95	2
172	173	4
64	65	5
37	38	2
16	17	1
163	166	1
20	21	5
188	189	2
34	86	3
86	111	2
59	60	1
35	90	1
59	63	2
132	184	1
19	20	4
178	179	2
7	40	2
73	79	2
162	167	1
150	150	5
170	186	1
171	185	1
185	185	5
124	163	2
161	162	1
33	69	2
12	40	4
74	74	1
150	161	1
106	107	4
25	25	1
107	108	1
182	182	1
115	153	2
40	41	1
127	128	2
21	22	2
65	65	3
155	183	2
26	60	1
22	27	1
157	167	2
4	5	1
68	68	2
35	60	1
2	22	1
68	84	1
88	89	1
34	34	1
144	144	2
180	183	1
74	86	1
10	11	2
177	191	2
6	39	2
66	74	2
134	134	1
97	97	1
167	169	3
97	105	1
35	59	1
79	80	2
187	193	1
102	151	1
125	189	1
100	101	1
168	178	1
40	58	1
11	12	1
139	139	1
121	122	2
96	104	1
187	194	1
53	54	1
135	135	2
132	183	1
183	183	2
77	78	1
39	40	2
135	163	2
8	26	2
146	153	1
185	187	1
163	168	1
27	171	1
95	95	1
130	148	1
116	157	2
122	125	1
106	113	1
31	66	1
135	138	2
5	38	1
136	158	1
108	110	1
163	163	1
114	115	1
97	107	1
78	79	2
172	178	1
41	53	1
165	193	1
82	82	1
104	105	1
81	82	1
33	37	1
141	142	1
175	176	1
156	157	1
41	42	1
131	181	2
140	144	1
48	49	1
0	107	1
80	80	1
53	55	1
25	29	1
143	146	1
190	192	2
112	122	1
135	158	1
15	30	1
33	51	1
95	103	2
106	147	1
115	137	1
111	112	1
29	31	1
186	188	1
172	186	1
182	183	1
