76	76	7
102	103	5
104	133	3
3	24	6
136	136	6
44	44	11
20	21	4
16	18	3
57	57	1
6	11	3
80	82	1
32	147	3
96	96	9
4	5	5
7	67	7
31	34	2
36	36	7
142	142	6
64	64	10
134	134	3
150	150	5
145	145	2
14	14	3
53	53	12
50	55	2
99	99	3
42	42	10
23	51	4
70	111	2
54	54	3
12	24	1
13	13	17
130	131	8
95	96	4
141	141	1
38	38	6
19	19	2
81	83	6
67	67	1
47	47	8
82	99	3
9	10	8
121	121	2
9	16	1
135	152	5
41	41	10
27	44	4
81	81	1
127	128	9
21	21	5
63	63	1
12	33	2
108	108	5
10	11	8
28	29	5
110	110	7
27	72	4
109	110	10
65	65	9
6	6	4
107	107	8
121	139	3
18	19	4
80	80	2
75	86	3
13	31	3
65	105	2
24	64	3
9	9	21
104	104	5
140	143	1
82	86	4
74	85	3
149	149	8
97	98	1
5	50	2
109	109	2
67	69	3
123	123	5
113	114	4
75	75	2
66	118	1
73	73	5
63	69	1
13	81	2
48	48	4
4	21	3
101	102	1
28	28	5
110	112	2
151	151	4
47	53	1
33	34	2
50	50	5
73	85	1
40	40	6
61	61	3
106	106	10
75	76	3
72	72	4
18	18	5
32	35	1
35	37	4
80	105	4
29	66	2
45	45	3
25	25	6
121	136	6
86	94	2
33	33	2
35	35	4
24	24	6
26	26	1
33	85	6
12	14	1
138	139	2
138	149	1
110	124	1
30	30	1
15	15	4
62	87	1
125	139	3
12	82	4
38	40	5
46	46	2
31	31	1
13	44	1
13	37	2
17	23	3
75	83	2
4	4	5
40	41	3
78	99	1
129	131	1
105	105	4
153	153	1
25	28	3
71	102	2
67	70	3
141	142	3
117	117	4
110	111	6
106	107	3
132	132	2
22	25	1
152	152	3
118	118	3
74	74	2
25	42	3
8	9	3
95	95	1
129	129	4
64	66	3
93	96	2
19	52	1
65	68	3
102	104	3
41	43	3
78	78	2
42	51	2
148	148	3
97	97	3
65	66	2
86	89	1
92	92	1
93	93	3
38	39	4
72	112	1
34	34	3
75	95	3
30	33	2
135	142	2
63	64	2
29	29	7
3	129	1
121	137	2
142	146	5
39	40	4
135	135	2
30	31	1
135	139	1
144	144	2
143	143	1
110	126	1
149	150	1
57	75	2
133	133	2
128	129	2
107	110	2
29	139	3
52	52	1
66	66	2
17	17	2
119	135	2
38	68	1
15	30	2
76	77	5
113	113	2
101	107	3
7	7	1
69	69	2
55	55	5
50	51	2
32	32	2
135	151	1
19	20	1
21	25	1
6	8	1
17	19	2
154	154	3
133	134	3
11	11	2
147	147	1
43	43	2
42	43	3
83	83	2
68	68	2
25	92	1
81	82	2
46	77	1
5	5	4
13	14	2
20	20	3
29	30	1
22	22	2
112	145	3
85	85	5
122	144	2
33	81	1
32	139	1
26	78	2
4	64	1
88	88	1
79	79	1
124	124	1
57	81	2
70	87	1
49	49	1
67	71	1
74	76	1
49	50	2
74	75	1
104	113	1
85	95	2
25	26	1
127	127	3
58	64	3
112	112	1
12	12	2
12	13	1
99	102	1
31	80	2
71	71	1
137	137	2
77	121	1
99	154	1
121	133	1
111	111	1
56	56	1
86	86	1
64	69	1
8	8	1
137	148	1
135	137	1
32	78	1
73	105	1
5	7	1
29	95	1
13	80	1
98	99	1
126	127	1
39	41	1
66	136	1
87	105	1
9	24	1
51	51	1
4	11	1
140	140	1
101	112	1
73	88	1
122	122	1
68	118	1
32	121	1
137	145	1
138	138	1
108	149	1
33	55	1
72	99	1
