80	80	38
93	94	13
55	55	37
76	77	10
63	64	16
64	65	6
46	96	6
49	49	34
92	92	51
24	24	14
53	53	44
68	68	48
65	65	31
94	94	23
95	96	11
96	97	17
96	100	6
41	41	82
40	40	20
64	64	33
81	82	12
62	62	54
68	73	5
59	59	60
92	101	9
60	60	58
32	32	8
71	71	31
31	31	27
67	67	45
54	55	26
93	93	40
56	56	24
91	91	39
74	74	41
95	95	34
82	82	16
61	62	13
24	25	3
75	76	12
33	93	1
89	89	37
69	71	12
33	33	47
84	84	28
66	66	54
99	99	33
42	85	1
88	88	54
46	97	4
57	57	56
78	78	62
39	39	24
85	86	10
43	89	9
47	48	28
28	28	13
47	47	33
45	46	10
35	37	1
27	28	8
85	85	36
37	38	13
55	56	13
46	47	11
72	72	55
61	61	27
96	96	20
86	89	10
58	59	8
36	36	31
78	81	4
54	54	39
81	81	29
51	51	44
51	84	2
79	79	43
70	72	3
38	38	32
70	71	19
85	89	7
48	48	49
63	63	55
97	97	21
50	50	35
22	53	4
97	98	14
52	56	8
34	34	26
68	69	23
34	50	2
45	48	5
34	35	13
22	23	2
90	90	47
43	50	1
60	61	1
25	25	10
95	97	6
29	36	6
86	87	26
44	44	45
35	35	30
93	99	5
51	100	5
92	94	6
76	76	27
66	67	5
34	49	4
73	73	40
56	57	14
98	98	39
44	66	4
77	78	15
100	101	6
94	95	15
73	74	12
52	52	42
101	101	29
42	42	57
87	87	19
65	73	10
29	29	22
40	41	9
75	75	39
43	43	35
25	27	2
80	82	5
86	94	1
33	34	3
46	46	47
70	70	40
37	92	3
22	22	11
100	100	33
78	80	16
90	91	12
83	83	14
58	77	8
29	53	6
65	66	20
43	51	5
46	48	6
47	51	9
60	62	13
37	97	2
30	91	1
45	45	54
23	23	12
79	80	7
21	21	7
20	22	7
59	85	9
51	80	3
64	91	4
49	78	4
51	52	11
69	69	33
58	76	5
40	90	2
37	37	18
43	44	7
37	89	4
35	54	7
77	77	28
69	70	15
67	68	13
48	49	16
89	91	2
33	35	9
67	69	7
40	57	3
58	58	20
74	75	5
34	98	1
44	48	3
52	57	2
57	60	1
82	84	7
92	93	11
36	40	3
71	72	5
86	86	31
64	89	2
50	63	2
91	92	26
56	58	5
53	54	9
20	20	3
52	53	10
61	63	1
52	55	5
83	84	8
45	101	6
92	100	1
39	96	1
99	100	5
50	51	16
63	69	1
35	40	1
87	89	3
26	28	3
68	74	6
98	99	6
88	89	9
87	88	12
41	42	5
22	25	3
84	92	5
40	93	2
82	83	5
59	81	3
81	86	4
83	85	2
101	102	18
39	41	2
35	36	7
80	81	8
23	28	4
44	45	17
89	90	8
34	51	3
25	26	5
32	34	1
102	102	10
35	38	5
27	27	13
23	26	6
50	81	4
67	73	2
56	64	5
63	88	4
49	51	3
81	83	4
94	98	3
80	83	3
40	78	1
91	93	4
30	30	4
82	86	1
79	81	5
92	96	2
46	98	4
86	88	6
38	39	10
23	24	3
83	86	3
59	86	2
49	50	14
93	95	4
80	86	2
59	60	3
36	37	6
72	73	4
48	99	3
41	85	2
83	92	1
63	70	4
93	96	2
69	73	2
60	63	1
49	65	2
58	83	3
51	57	1
37	87	1
70	74	1
93	98	1
32	33	5
49	81	1
26	26	7
95	98	4
57	58	4
72	74	3
29	42	4
31	45	3
49	101	6
92	95	5
47	98	1
44	92	1
96	98	3
42	43	8
51	102	4
26	27	2
78	79	3
91	101	3
64	82	3
64	90	1
47	91	1
33	65	4
78	89	2
32	87	2
43	77	5
79	85	3
24	26	3
86	100	4
58	85	2
62	69	2
51	56	3
94	96	2
98	100	1
84	91	2
81	87	1
42	82	4
52	62	1
82	87	1
60	64	1
57	64	3
39	40	2
29	30	1
47	49	1
57	65	2
35	49	3
58	65	1
66	68	1
48	100	3
50	52	1
68	72	1
91	100	1
36	44	2
27	53	1
25	54	1
48	51	1
85	91	1
46	101	1
100	102	1
76	80	1
64	66	1
60	66	1
87	94	1
50	79	1
83	102	1
51	54	1
62	63	2
99	101	1
68	71	1
69	74	1
49	91	1
30	54	1
35	52	1
31	37	1
39	99	2
79	82	1
22	36	1
36	88	1
62	86	1
31	32	1
40	98	1
22	27	1
78	99	1
84	88	1
29	102	1
43	52	1
66	74	1
77	80	1
37	86	1
59	67	1
