7	7	13
59	59	7
174	174	4
33	33	7
97	97	2
17	20	3
110	113	1
32	33	5
94	94	12
109	109	3
115	115	4
80	81	1
40	40	5
30	95	5
15	15	14
17	17	8
19	19	21
23	23	11
32	32	12
141	141	7
109	110	2
28	28	3
137	176	1
117	119	2
126	127	4
5	5	16
37	37	14
167	168	10
8	8	4
13	28	2
71	85	2
135	135	5
166	167	3
31	31	13
125	125	2
14	15	3
57	57	5
105	144	1
10	12	1
5	7	3
58	59	3
75	75	5
123	123	3
6	29	1
71	71	3
92	92	9
152	152	6
162	162	4
92	93	3
39	39	12
6	6	13
166	166	20
74	74	1
11	13	8
131	131	6
35	38	2
132	132	6
110	110	7
161	161	3
106	106	7
81	84	1
84	84	4
18	18	7
143	143	3
15	16	2
167	167	12
79	79	6
67	67	4
13	13	3
59	60	7
3	5	2
36	37	1
169	169	6
0	0	11
140	140	7
52	54	4
17	21	4
30	31	2
139	139	4
137	137	4
103	106	2
82	88	1
9	9	14
16	18	2
45	45	8
20	28	3
42	43	5
104	105	3
137	138	4
27	27	7
1	43	4
35	35	5
2	2	5
11	11	8
80	99	7
134	136	1
174	175	5
13	33	1
125	144	3
25	26	1
52	53	4
123	124	1
66	66	3
144	144	1
16	33	3
10	11	7
50	50	6
73	74	4
87	87	1
156	158	2
46	52	2
172	172	1
148	148	5
136	136	4
41	42	1
121	122	2
170	170	4
76	77	2
5	8	7
129	129	5
3	3	13
52	52	2
1	1	8
14	14	7
146	146	4
58	58	6
179	179	3
176	176	7
0	16	2
74	78	2
165	167	1
131	132	5
26	27	3
93	95	3
6	14	1
111	111	1
68	68	2
55	56	6
88	88	3
111	112	1
21	22	2
171	171	4
29	30	1
76	76	4
151	151	3
163	163	6
3	6	1
34	35	1
43	44	1
29	29	7
60	61	1
10	10	5
22	22	4
25	25	5
8	40	1
34	36	3
12	12	2
120	130	4
93	93	3
165	166	3
159	159	2
41	70	2
51	51	2
156	159	2
61	61	2
133	133	5
168	168	7
105	106	1
85	85	3
113	114	2
156	156	1
138	138	1
147	147	3
18	20	1
179	180	2
55	55	9
8	21	1
27	28	4
4	4	3
43	43	10
62	87	3
77	77	2
72	73	1
160	173	1
33	35	2
34	39	1
157	164	1
44	44	5
51	52	1
12	15	3
82	82	2
149	149	6
78	78	6
94	95	2
20	21	1
78	134	1
125	147	1
3	4	5
19	20	3
1	35	1
101	128	2
19	23	2
95	130	3
115	118	6
98	98	1
178	178	4
31	32	4
90	93	1
124	124	4
153	153	5
126	126	1
158	158	5
18	23	2
133	136	1
51	77	3
102	135	3
4	5	3
1	3	1
30	30	7
25	28	1
78	140	3
152	153	3
38	45	3
161	170	1
102	126	1
113	113	1
180	180	2
35	36	1
24	24	3
16	16	6
42	101	3
102	103	1
60	60	4
122	122	1
60	74	3
177	177	1
120	121	1
52	76	1
160	160	4
96	99	3
20	20	2
150	150	5
115	116	1
141	143	1
42	42	3
104	106	1
103	104	2
80	80	5
90	90	1
54	54	3
31	33	2
127	129	2
5	6	2
148	149	1
127	127	1
103	103	1
155	156	2
157	158	1
110	114	3
15	105	2
41	41	4
88	89	3
88	98	2
133	134	1
9	16	1
65	65	3
111	150	1
28	29	2
103	131	1
11	12	1
10	16	3
4	6	2
13	15	3
134	134	2
72	141	1
12	13	5
38	38	3
156	157	2
82	84	1
22	23	2
164	164	3
96	96	1
120	120	1
64	64	1
106	148	3
95	95	2
41	79	1
173	173	2
128	128	3
94	125	1
109	112	1
112	112	2
4	26	1
119	119	1
89	89	1
101	101	2
57	58	1
12	38	2
145	145	3
123	128	1
37	38	2
97	106	1
164	175	1
38	39	1
147	155	1
0	1	1
95	96	2
77	78	1
60	94	1
119	147	1
67	68	1
72	72	1
138	139	2
114	114	2
14	27	1
173	174	1
61	62	1
170	171	1
92	94	2
78	79	2
53	53	2
102	130	1
108	109	2
2	8	1
160	162	1
107	107	1
16	23	1
153	154	1
26	28	1
130	150	1
5	10	2
36	36	1
25	30	1
13	27	1
39	40	1
7	13	1
9	11	1
23	25	1
73	73	1
157	157	2
42	95	1
119	121	1
54	57	1
16	40	1
110	112	1
107	108	1
15	40	1
