104	104	5
54	54	10
156	156	4
50	50	22
34	35	2
99	99	6
45	45	9
70	70	2
111	111	7
122	123	4
65	65	2
36	74	5
75	75	9
24	24	21
144	144	6
35	63	3
34	34	6
16	111	4
42	42	6
26	26	9
95	95	2
48	48	9
37	38	4
110	137	7
136	136	7
76	76	11
109	109	2
15	15	5
148	155	2
138	138	4
13	13	7
6	8	2
20	21	7
165	165	5
42	76	3
5	5	4
90	90	10
75	76	2
52	52	3
37	37	3
161	162	3
102	103	5
149	149	2
36	49	2
5	6	2
41	62	1
71	71	6
114	115	5
140	156	1
141	141	3
110	110	11
105	105	10
66	66	1
80	80	5
9	165	2
2	2	3
65	85	2
69	69	4
161	164	2
7	7	6
47	47	7
169	169	6
53	53	7
101	105	3
81	111	3
85	85	3
153	154	5
169	170	2
43	44	4
21	21	8
120	120	2
7	14	1
27	27	7
137	137	7
119	119	5
8	9	6
38	38	8
17	17	6
70	107	1
17	18	2
63	63	6
9	10	9
148	148	5
116	116	2
81	82	1
104	165	3
139	141	2
117	117	10
157	157	9
69	98	6
107	108	3
15	48	1
40	40	7
14	16	5
4	4	5
84	84	4
159	159	4
131	131	2
113	142	3
152	152	5
35	35	4
114	116	2
73	73	6
143	143	4
3	4	3
88	89	6
93	94	3
96	114	2
53	54	2
140	148	3
69	70	8
62	62	5
6	6	4
6	7	2
22	49	2
3	6	4
11	11	4
103	165	1
132	132	1
40	62	1
103	103	3
11	12	7
162	164	4
65	68	2
112	113	1
82	82	2
160	163	1
28	28	2
124	124	5
12	13	1
65	66	3
68	68	2
72	72	4
110	111	2
36	36	4
56	56	6
10	10	6
95	96	1
144	154	1
71	72	1
44	44	5
83	83	3
147	147	3
89	89	2
103	133	1
98	98	3
90	91	4
16	17	1
1	1	5
47	48	8
106	106	6
12	12	7
149	155	3
160	160	1
97	116	2
130	163	2
8	8	9
114	114	10
140	141	8
141	142	1
144	145	5
57	57	2
42	43	6
49	49	2
75	83	2
0	0	4
39	39	3
118	118	3
103	104	2
119	121	2
155	155	2
135	136	2
22	22	6
23	23	9
104	109	1
55	55	2
100	101	1
51	51	3
123	125	1
107	133	1
99	114	3
112	112	1
108	112	3
36	42	1
74	74	3
127	144	1
139	139	3
20	108	1
162	162	1
145	145	2
64	66	2
121	122	1
133	160	3
73	74	2
50	69	2
115	115	4
111	140	1
104	107	1
129	129	3
19	19	3
123	124	1
152	153	3
162	163	4
41	41	4
9	9	3
10	12	2
170	170	2
14	14	1
5	8	1
77	78	1
39	40	1
36	72	3
121	121	1
1	104	2
0	1	1
8	164	1
97	97	4
48	49	1
36	44	3
38	58	2
46	46	9
66	86	1
46	47	1
167	167	2
80	81	1
107	107	6
24	25	1
55	82	1
151	151	2
66	68	2
150	151	1
150	150	6
158	158	3
37	88	1
123	123	2
55	56	5
127	127	1
25	25	8
67	69	3
20	20	1
17	41	1
126	126	2
113	113	1
1	2	1
7	17	2
21	55	2
100	105	2
143	147	1
66	67	3
62	91	2
70	71	1
72	73	3
42	79	1
7	8	3
166	166	2
112	136	1
101	101	2
102	102	3
126	141	1
38	42	2
20	22	1
57	58	1
18	18	2
77	85	1
16	16	2
130	131	1
119	122	1
105	106	1
8	10	3
164	164	1
13	15	3
161	163	1
160	161	2
140	140	3
85	87	3
104	105	1
152	156	2
108	109	1
7	26	2
130	130	1
120	149	1
118	119	1
153	153	2
84	112	1
54	64	2
94	95	1
161	161	1
54	55	1
35	90	1
94	94	1
92	93	1
133	133	1
25	26	1
38	39	1
146	146	1
128	166	1
102	105	1
55	65	2
163	163	1
132	133	1
91	91	1
93	93	1
147	149	1
87	87	1
64	64	1
49	73	1
88	88	1
133	134	1
47	49	1
24	69	1
24	63	1
