68	70	1
5	5	42
67	68	23
2	2	27
150	150	32
30	30	20
53	53	3
4	5	20
57	67	1
75	75	26
34	34	21
94	94	15
21	21	16
5	6	10
125	125	9
99	99	36
23	23	33
125	126	3
17	17	26
105	115	4
147	147	9
107	107	5
109	109	3
8	43	8
84	85	6
98	98	24
92	92	25
128	128	17
11	12	14
105	105	22
103	103	14
23	25	4
35	36	6
145	147	14
16	20	1
11	31	4
114	114	9
79	79	18
50	50	13
96	96	11
36	36	25
51	51	12
77	86	3
56	56	3
123	125	8
139	140	7
114	115	9
70	70	3
88	88	12
43	43	36
63	64	5
50	54	4
47	48	1
117	117	16
102	102	15
100	100	31
55	68	4
145	145	12
44	44	28
127	127	21
72	72	6
6	102	1
66	68	4
111	117	4
33	33	16
121	122	11
44	74	2
80	80	27
89	90	6
152	152	9
31	39	9
48	48	20
62	62	6
7	7	14
54	54	4
16	19	5
130	131	7
84	84	9
122	122	10
16	17	7
0	2	1
27	28	9
112	112	7
3	4	4
158	158	23
141	157	7
1	1	33
138	138	27
129	130	4
6	28	1
25	25	27
87	89	7
28	29	5
34	35	3
49	50	1
38	38	9
122	123	5
39	39	14
68	68	16
26	26	16
125	147	3
133	133	21
4	7	1
101	101	34
137	137	14
156	156	18
29	40	5
19	20	7
3	20	6
47	47	16
116	127	3
139	139	23
82	82	5
9	10	7
49	53	6
92	94	1
75	92	4
144	150	2
103	111	2
35	35	15
24	24	26
8	8	9
12	17	7
157	157	16
151	158	6
35	76	2
44	47	4
36	37	10
71	71	7
26	28	2
108	122	5
4	4	26
14	15	7
3	3	6
131	131	45
102	103	6
144	145	4
82	86	2
12	66	1
32	44	5
0	1	3
89	89	13
141	141	15
91	92	25
55	67	2
20	20	11
28	28	21
37	37	10
43	44	6
91	91	14
7	22	2
86	86	14
142	142	12
31	36	8
30	33	3
87	87	13
118	119	5
95	109	4
57	57	9
13	14	6
158	159	8
15	15	13
128	129	7
144	144	13
75	100	2
41	45	3
26	27	12
130	130	14
118	121	6
104	105	9
35	38	2
40	41	11
75	76	2
122	133	2
52	52	3
99	100	12
127	131	2
121	121	9
66	66	14
67	67	8
146	146	13
76	92	1
81	93	2
12	12	19
32	33	20
13	38	1
72	87	6
45	45	22
14	14	10
107	108	1
135	135	18
93	95	9
151	151	17
97	97	8
73	73	17
115	118	2
17	18	6
150	157	3
85	86	5
29	29	11
116	130	4
130	158	2
136	136	17
46	80	3
25	26	7
65	65	3
111	111	21
50	53	12
31	33	3
41	74	3
4	24	8
152	154	3
27	31	7
16	18	8
7	9	6
41	41	22
150	152	1
117	120	5
113	113	16
120	120	20
55	55	13
40	40	16
135	136	1
30	31	5
23	44	1
24	25	7
106	107	5
22	22	15
128	130	5
104	104	14
93	93	23
19	19	11
148	149	6
3	21	3
119	119	8
137	138	11
33	34	4
51	87	1
29	31	4
53	54	5
95	96	2
12	13	6
64	64	2
0	0	22
85	85	6
87	90	5
77	78	4
90	90	15
53	69	6
11	70	2
154	154	11
144	147	2
153	153	8
27	27	20
131	133	4
40	74	2
118	122	4
1	2	9
41	43	4
6	22	3
146	148	8
116	123	4
83	84	6
100	101	8
91	94	3
38	39	2
98	99	4
49	70	2
118	118	2
148	153	7
10	11	7
142	143	3
126	140	1
65	66	11
80	81	4
10	10	11
88	90	5
13	13	11
124	124	4
89	122	3
11	11	13
51	53	4
118	120	4
67	70	2
132	132	5
77	77	8
140	158	3
110	110	7
11	39	3
28	43	4
154	155	10
149	149	1
31	31	6
113	126	1
125	144	2
103	104	1
148	152	5
8	11	5
82	85	3
42	42	12
105	106	2
81	82	2
123	123	3
8	9	2
50	71	2
131	134	1
38	40	1
50	55	3
95	95	10
115	115	7
109	110	7
94	95	6
148	148	18
69	70	9
22	27	9
49	51	4
33	41	3
78	80	4
33	40	3
92	93	4
81	81	8
126	127	5
71	72	2
129	129	16
109	113	4
155	156	10
123	127	4
21	29	1
7	8	4
64	71	2
81	107	5
10	105	3
108	108	5
87	88	5
74	75	2
69	71	6
9	9	7
2	4	2
9	67	4
112	113	1
104	110	1
69	69	11
146	147	1
76	76	5
68	85	2
29	30	6
23	24	3
8	22	1
25	44	1
18	19	6
30	63	2
136	137	2
143	144	4
76	84	4
116	116	12
31	38	1
123	126	1
148	157	3
125	127	4
72	73	2
32	43	3
15	18	2
87	107	4
81	98	1
151	152	4
17	20	1
108	121	6
24	92	4
2	5	5
116	125	2
93	94	2
142	144	2
155	155	4
109	111	1
91	100	1
73	95	3
79	81	2
131	140	1
139	149	4
121	123	2
52	53	5
36	76	2
108	112	4
113	114	9
39	40	5
98	102	11
125	134	1
77	82	5
97	100	2
140	141	4
11	71	1
111	116	3
92	111	2
39	80	1
32	74	2
24	75	1
115	123	2
140	140	2
111	112	4
46	46	8
134	137	1
37	85	2
6	72	2
123	131	3
126	126	5
56	57	3
106	109	1
67	86	1
50	51	7
149	153	3
106	111	1
75	81	3
112	123	2
107	127	7
7	16	2
116	117	2
117	118	2
48	51	1
104	109	1
49	49	3
68	78	1
106	112	1
81	104	3
80	107	1
81	84	2
56	64	1
20	26	1
129	133	2
147	148	2
77	81	2
139	142	2
75	93	1
82	83	1
106	106	3
6	20	1
130	132	2
76	109	1
30	38	1
40	44	3
126	132	2
132	133	5
24	44	2
17	25	1
150	151	2
32	32	4
52	55	1
25	31	3
70	71	2
33	47	1
31	32	2
14	33	2
120	122	1
96	98	3
141	142	2
134	135	5
2	3	2
24	93	1
12	14	1
108	113	1
6	6	5
62	64	1
21	23	2
16	16	1
9	11	1
22	32	1
76	77	1
149	152	2
103	130	2
51	54	2
7	27	1
124	126	3
159	159	1
89	91	2
49	68	2
120	123	2
88	121	2
92	97	1
135	138	2
124	127	1
97	122	2
51	52	1
123	132	1
101	102	1
55	63	1
86	110	1
48	49	1
26	32	1
37	39	1
8	10	2
27	35	1
81	83	3
4	20	2
156	157	1
131	132	4
42	43	2
76	93	3
12	31	1
13	32	2
42	46	1
27	64	1
149	157	3
123	124	1
79	85	1
32	64	1
1	130	1
97	103	1
46	55	1
53	67	1
30	35	1
46	47	1
13	18	1
134	134	4
101	104	1
114	128	2
130	148	1
105	121	2
48	61	1
70	89	2
27	47	1
75	101	1
147	150	1
115	129	1
138	139	2
115	116	2
20	21	2
22	23	3
148	151	1
7	46	1
3	27	1
76	80	3
36	38	4
78	78	1
24	32	2
137	141	1
40	81	1
76	83	2
48	70	1
80	82	1
127	132	1
45	46	1
11	105	1
33	35	1
73	74	1
25	32	1
98	129	1
144	152	1
95	97	1
111	118	1
36	64	1
149	150	2
80	110	1
4	93	1
74	74	1
18	27	1
105	109	1
63	63	3
6	7	1
110	111	1
88	122	1
105	126	1
149	158	1
44	72	1
131	158	1
7	42	1
