127	127	17
19	20	3
18	19	2
6	7	6
76	76	23
67	67	9
23	23	7
69	69	8
77	101	3
101	101	20
9	9	4
30	30	10
0	2	4
80	82	6
87	87	8
21	21	7
48	48	8
16	16	14
103	103	8
61	61	8
30	32	2
95	95	20
90	91	5
75	75	10
127	128	3
102	102	24
4	4	5
5	5	10
12	12	11
82	83	1
2	2	19
60	64	1
118	118	7
70	70	16
131	132	2
73	73	21
28	65	2
108	108	11
31	31	10
35	36	7
98	98	9
34	72	2
99	99	18
69	77	3
107	107	4
62	62	12
21	91	2
105	106	6
26	67	2
134	134	12
119	124	1
74	74	12
2	23	3
3	3	4
126	126	12
27	65	1
123	123	10
74	75	2
97	97	14
98	99	5
26	27	7
13	14	7
54	58	8
79	79	17
20	21	3
93	93	16
117	117	7
28	28	4
17	17	12
27	28	5
33	79	1
119	119	5
60	81	4
11	11	4
115	115	6
110	120	2
0	0	6
68	68	14
111	125	3
78	78	6
42	42	1
90	90	3
91	91	12
131	131	9
72	73	3
116	128	6
88	88	10
104	104	14
57	66	2
63	64	1
56	56	2
99	100	4
14	14	7
52	52	6
77	77	3
125	125	5
59	59	7
54	61	2
54	54	6
49	49	13
92	114	1
112	112	14
36	38	2
104	115	1
79	82	6
43	43	2
54	66	1
122	123	8
65	65	10
45	85	2
59	68	3
85	85	9
8	8	6
100	100	7
114	115	2
129	134	3
119	122	3
53	53	5
1	2	3
10	10	7
25	26	2
56	61	2
8	9	2
129	129	20
16	19	3
101	102	6
65	66	1
96	96	3
89	90	4
133	133	12
44	45	6
55	57	2
111	111	11
89	89	13
111	112	9
121	121	12
35	35	14
75	76	2
80	80	13
34	34	8
83	83	6
62	63	2
25	77	3
60	60	3
126	127	8
61	62	1
83	84	5
94	95	2
11	12	3
113	133	6
129	130	12
67	68	1
43	44	1
81	81	5
55	66	1
102	103	8
17	18	1
107	110	7
26	95	2
117	118	3
71	72	11
27	27	4
110	111	6
72	72	12
57	59	2
94	94	9
24	24	4
116	116	3
130	130	5
82	85	2
54	84	3
50	50	8
97	98	4
120	120	10
76	77	1
66	66	3
13	13	3
25	25	4
15	22	4
45	45	1
114	114	17
68	79	1
34	35	3
44	55	2
15	20	2
92	92	11
64	69	2
32	61	1
7	7	2
92	103	1
99	101	4
55	56	3
50	52	3
12	13	4
47	47	5
106	106	8
6	6	1
33	34	3
72	76	2
5	12	3
74	79	1
94	121	2
117	131	2
58	58	2
32	32	7
36	60	2
82	86	1
94	119	1
86	86	1
6	96	5
113	114	3
26	26	12
103	104	1
22	23	4
128	129	1
28	64	2
98	100	2
5	22	1
130	132	1
108	111	5
101	123	1
29	30	1
7	8	4
47	49	5
69	72	3
13	18	1
85	88	2
93	94	12
66	86	2
71	71	11
132	133	3
11	96	2
98	101	2
78	85	1
70	71	6
86	87	2
64	65	2
35	37	1
29	29	12
82	82	2
91	92	2
63	72	1
79	80	2
13	16	5
57	57	2
63	81	1
124	124	5
105	105	10
20	20	2
2	3	2
57	58	5
34	59	2
43	45	2
44	44	7
106	107	2
32	33	1
64	64	1
105	108	1
56	57	2
104	114	1
49	50	2
50	54	3
50	51	2
63	63	7
38	38	2
10	11	1
109	117	1
33	33	4
52	53	1
58	59	2
121	124	3
57	68	1
109	110	6
48	51	1
19	21	2
128	128	3
36	84	1
59	64	3
108	122	4
30	62	3
28	87	1
4	5	2
84	85	3
116	117	1
36	36	5
7	11	2
11	16	1
62	81	2
119	128	1
109	109	2
132	132	2
122	122	3
104	105	4
112	133	1
82	87	2
87	88	3
37	38	2
130	133	1
69	70	2
111	126	1
133	134	1
121	122	2
73	75	1
118	120	1
4	6	1
84	84	2
109	111	1
67	78	1
115	130	1
127	129	4
54	55	1
81	82	2
3	4	2
135	135	1
14	15	2
37	37	2
113	113	1
98	118	1
13	102	1
15	18	1
22	22	2
100	101	1
19	19	3
36	82	1
78	79	1
26	77	1
80	81	1
92	93	1
54	85	1
11	93	1
25	95	2
61	82	1
1	1	1
114	129	1
107	108	1
46	46	1
23	24	2
108	110	1
95	96	2
18	23	1
118	119	1
55	55	1
29	32	2
14	22	1
72	74	1
65	68	1
81	101	1
92	102	1
105	128	1
9	97	1
110	110	1
75	79	1
95	119	1
95	121	1
29	64	1
68	69	1
