90	90	13
131	133	2
19	24	2
132	134	3
14	36	2
45	45	16
77	77	36
84	109	4
130	130	27
107	108	10
104	105	8
22	31	3
22	22	13
28	28	8
14	15	5
76	76	29
115	115	25
94	94	22
70	73	1
125	125	29
36	36	6
120	120	23
35	35	8
96	96	10
65	65	17
107	107	16
112	112	25
15	15	13
48	48	8
87	87	29
27	28	9
47	69	3
61	65	5
88	106	5
87	106	3
84	84	14
72	79	2
119	119	40
66	68	6
114	115	24
126	127	6
124	124	32
57	57	17
98	99	7
69	69	16
118	120	2
96	102	3
103	103	27
69	79	1
3	5	9
49	53	4
58	59	4
5	5	11
118	118	18
105	106	6
131	131	28
106	106	36
6	8	1
29	29	9
49	50	3
18	18	8
81	81	18
6	6	10
6	28	2
3	3	6
72	129	1
95	95	12
27	27	9
15	27	4
83	92	5
123	123	18
46	51	3
121	121	21
94	105	6
101	101	25
53	54	6
71	72	4
71	91	1
64	64	34
21	23	4
82	99	5
127	127	26
114	116	6
102	102	23
108	111	3
111	119	1
133	133	16
60	60	13
75	75	20
99	100	5
115	116	1
56	59	2
105	105	22
74	74	25
82	82	24
99	99	28
73	73	14
129	129	40
121	123	3
126	126	28
55	110	2
103	104	8
28	29	3
99	101	4
5	6	3
56	57	3
128	129	19
100	100	33
116	116	17
1	1	4
69	72	3
104	104	18
91	92	16
127	129	6
56	67	2
97	97	20
52	52	20
19	20	4
44	44	15
72	72	23
94	95	13
71	71	16
83	88	2
61	61	13
37	37	9
62	64	6
102	134	1
132	132	23
34	34	16
80	81	5
128	128	13
50	50	20
93	93	36
55	59	3
64	94	3
57	58	8
67	68	12
16	17	4
63	64	2
53	53	15
83	83	22
31	31	14
44	83	1
88	89	9
17	19	1
86	86	20
13	36	3
113	120	4
92	95	1
113	114	4
54	57	1
15	58	1
114	114	19
24	26	5
42	43	3
4	4	6
122	130	1
74	75	8
13	13	14
70	70	30
124	126	3
9	9	6
63	63	12
90	91	1
2	2	6
112	113	8
11	12	6
80	80	26
85	85	25
64	68	2
122	123	19
1	3	4
16	16	3
23	30	3
117	118	10
58	58	17
134	134	18
88	88	23
69	71	3
70	74	3
7	7	17
26	27	6
14	14	10
13	14	3
16	23	5
43	43	17
83	85	2
21	21	10
19	19	5
78	78	15
118	122	1
17	17	9
1	2	5
65	70	3
3	4	3
117	117	30
91	91	26
33	34	8
66	66	13
110	110	15
113	113	22
31	32	10
8	9	5
9	17	1
79	79	14
79	80	9
134	135	4
77	78	6
45	56	5
122	122	21
102	103	8
124	127	2
92	93	9
123	131	3
106	108	9
109	109	17
30	30	20
83	86	5
11	11	15
60	67	5
100	101	10
32	34	6
110	111	6
93	94	11
115	117	7
48	70	1
49	49	5
12	21	3
82	100	2
67	67	9
9	10	1
98	98	26
85	86	2
106	107	8
30	31	4
48	53	3
89	90	5
81	99	1
55	56	3
92	92	17
89	89	10
65	68	2
127	128	8
62	62	14
23	44	2
70	71	5
26	26	11
103	132	1
100	120	5
130	131	3
77	84	2
116	117	11
76	77	8
90	97	3
68	69	10
62	69	4
106	110	2
12	12	10
52	53	5
108	108	11
85	119	2
14	17	2
12	13	7
96	97	9
25	100	4
47	47	5
43	112	2
90	96	3
0	102	2
111	112	8
65	76	2
122	125	2
110	132	2
54	85	2
96	100	4
106	123	4
17	18	1
92	96	3
10	10	15
69	70	11
123	133	1
99	123	6
55	55	4
10	11	5
77	79	6
117	119	2
91	93	8
62	63	8
57	59	1
87	91	5
64	65	7
85	87	3
43	52	1
2	10	3
105	111	2
44	45	5
100	123	5
22	23	12
44	55	1
118	119	3
112	119	3
109	111	3
0	0	9
109	110	4
42	42	4
32	32	10
56	56	9
129	134	1
89	91	3
99	122	2
25	26	3
11	13	1
61	64	4
98	109	1
119	123	1
1	4	4
111	113	4
13	19	3
38	38	6
121	131	3
112	115	6
75	76	3
84	117	1
101	107	1
33	33	1
25	35	1
6	10	4
84	92	3
59	78	3
101	102	6
59	59	7
6	9	3
56	64	3
65	66	5
25	25	9
126	133	2
113	115	6
83	93	1
24	24	13
59	61	4
85	93	1
6	7	7
98	111	3
49	87	1
123	124	4
68	68	6
133	134	5
4	5	3
135	135	7
43	55	1
123	126	1
111	111	14
113	129	3
79	127	1
35	37	1
84	93	1
125	126	3
46	48	1
44	87	4
63	76	1
54	54	4
61	62	3
120	121	6
23	24	1
80	97	2
119	120	7
60	61	3
35	36	4
56	58	4
106	109	4
108	115	2
7	8	2
95	96	12
99	114	4
54	55	3
77	86	3
15	16	2
95	99	1
82	83	3
32	33	6
132	133	5
38	39	1
34	36	1
84	85	6
74	105	3
78	96	2
64	78	1
20	23	3
61	66	2
63	65	3
72	133	3
18	21	4
119	132	1
92	98	5
71	74	2
22	24	2
26	34	3
82	84	2
83	84	3
115	118	1
122	132	2
130	132	1
121	122	2
91	94	1
29	30	3
21	22	3
93	98	1
14	50	2
45	46	1
96	99	2
52	56	2
47	50	1
107	109	3
122	131	3
108	109	6
60	64	1
85	95	2
100	105	2
46	52	2
68	97	1
47	57	2
58	60	1
23	23	3
112	114	4
15	18	1
105	129	1
78	79	5
47	53	1
30	32	4
100	121	2
70	82	2
124	125	4
76	90	3
43	87	2
44	58	2
53	58	1
10	64	2
97	114	2
71	92	2
20	20	4
64	70	1
112	128	1
36	37	3
13	15	4
24	87	2
15	19	1
0	4	1
65	67	1
118	126	2
110	130	2
125	133	2
100	107	2
76	79	2
90	109	2
23	25	1
29	31	1
106	133	3
120	122	2
73	80	2
56	84	2
66	86	1
49	58	2
50	53	1
112	129	1
10	16	2
10	82	1
10	36	1
129	133	1
90	93	2
54	59	2
51	54	1
101	114	2
47	54	1
124	131	4
101	123	2
43	44	3
46	47	1
130	134	1
66	67	2
37	38	3
60	62	1
73	74	2
86	93	2
103	120	1
14	49	3
52	54	2
80	133	1
23	26	1
46	49	1
99	103	1
98	102	1
62	111	1
75	77	1
81	82	2
48	54	1
98	110	2
0	1	2
27	29	1
113	118	1
105	132	1
34	78	1
18	24	2
24	27	1
14	19	1
0	75	1
8	10	1
66	82	1
39	39	1
75	78	1
125	132	1
10	13	2
2	3	1
130	133	1
125	130	1
59	60	1
50	87	1
94	104	1
55	84	1
80	134	1
100	111	5
45	47	1
71	79	1
42	44	1
128	130	1
63	87	1
88	94	1
67	110	1
128	135	1
8	8	2
18	20	1
18	19	1
126	129	1
126	134	1
92	101	1
106	115	1
6	76	1
20	21	1
