125	126	5
131	131	11
115	115	5
87	104	3
1	2	1
6	6	8
75	75	3
138	138	8
136	136	10
120	120	7
129	135	4
17	17	5
17	18	7
78	78	2
21	21	11
137	137	6
125	125	7
9	9	7
132	132	17
128	128	14
127	129	1
99	101	2
91	91	5
37	37	9
126	126	21
129	130	8
109	109	5
123	123	6
106	106	4
97	98	1
4	122	1
126	127	11
79	79	7
108	112	1
72	76	2
121	121	5
134	134	23
22	24	3
13	125	1
122	122	7
116	117	5
76	76	7
11	27	2
100	116	1
18	19	1
135	135	8
130	130	16
76	87	3
75	76	5
114	115	6
19	20	8
28	34	2
127	127	15
110	110	6
20	20	2
30	30	2
13	15	6
32	32	11
80	82	4
97	97	6
21	23	7
113	113	2
111	111	3
25	26	7
107	107	4
93	93	5
27	27	4
9	32	3
99	99	4
5	6	3
26	26	5
31	31	7
80	81	4
74	74	1
0	9	4
12	14	3
119	119	16
134	135	4
102	102	10
91	97	3
37	38	1
114	114	8
101	101	6
129	140	2
127	128	5
35	35	4
25	27	3
84	84	2
71	71	8
19	19	7
103	116	2
110	111	3
102	105	2
13	26	2
23	25	2
34	34	6
140	140	4
120	121	4
118	118	5
105	106	4
101	102	3
137	138	3
136	137	2
7	7	5
28	31	3
89	89	10
128	129	1
73	73	3
83	85	6
116	116	8
102	116	1
100	100	2
9	12	2
35	36	5
117	120	1
33	33	5
100	101	9
32	130	3
3	4	3
27	28	2
15	38	1
4	4	1
126	135	1
132	133	6
107	111	1
117	117	8
129	129	4
29	37	2
17	28	2
87	88	1
126	129	1
0	22	1
108	108	5
96	98	5
104	106	3
103	103	5
28	127	3
100	111	2
105	107	2
98	98	4
29	32	2
138	139	4
98	100	1
36	37	4
124	124	4
83	101	4
80	83	1
120	122	1
92	92	2
87	87	3
111	112	3
88	89	1
112	112	6
7	11	1
103	111	3
105	105	4
1	1	4
72	72	3
124	125	6
4	95	3
85	85	5
130	134	1
5	5	5
76	77	2
89	90	2
90	90	5
33	131	1
72	83	1
72	123	1
95	97	1
95	95	8
139	139	3
18	18	5
77	78	1
105	110	3
121	123	1
34	35	5
126	134	1
72	73	2
2	2	3
77	77	1
126	128	1
33	130	1
115	126	1
13	17	1
80	112	1
110	117	1
119	120	1
80	111	1
115	125	1
26	27	1
14	14	3
36	36	2
7	124	1
96	97	2
4	90	4
73	74	2
121	122	2
108	110	1
79	104	2
96	96	2
11	11	1
104	104	2
130	137	1
23	23	3
80	80	1
4	7	1
31	32	2
8	9	1
132	140	1
22	23	1
0	13	1
133	134	1
2	6	1
131	133	1
89	102	1
72	92	1
13	13	3
79	117	1
81	81	2
79	80	1
72	93	1
117	122	1
33	35	2
15	15	2
2	3	1
100	130	1
12	12	1
72	74	2
131	132	1
82	82	2
4	31	1
19	22	1
78	79	1
86	86	1
114	119	1
93	94	1
12	13	1
99	100	1
105	117	1
82	83	1
0	0	1
30	32	1
