58	61	3
95	96	11
56	57	8
55	57	6
85	85	23
94	98	1
63	63	17
70	71	13
47	48	2
43	43	14
72	73	8
48	50	3
74	74	16
80	93	1
55	56	8
77	78	2
86	88	2
36	38	10
35	37	2
56	56	22
71	71	17
35	36	10
81	81	3
67	67	10
24	24	8
71	72	4
60	60	22
53	55	7
36	36	8
78	78	23
58	58	19
97	98	2
41	41	28
39	52	6
78	85	1
64	64	28
66	66	12
45	45	13
49	49	22
88	88	10
81	82	5
101	101	16
89	89	15
70	70	14
68	68	14
34	35	7
92	92	6
64	66	5
82	85	1
77	77	22
91	91	17
75	76	4
93	93	11
39	40	14
68	69	8
39	99	3
55	55	10
73	73	7
62	62	16
34	34	17
80	80	9
39	39	14
68	75	4
98	98	24
46	89	1
90	90	19
52	53	19
93	94	2
44	45	3
66	67	6
48	51	2
95	97	3
59	60	1
95	95	10
45	75	3
38	38	8
48	48	11
46	47	2
41	42	8
27	27	6
79	79	20
84	84	4
44	44	20
96	97	4
25	26	14
101	102	6
57	57	22
76	76	12
75	77	2
100	100	13
63	64	5
68	70	2
84	94	5
87	87	3
33	33	20
65	73	2
52	52	17
29	30	3
51	57	3
32	32	3
86	87	6
66	70	4
92	93	12
32	85	2
54	55	9
37	37	11
49	51	2
51	89	3
65	65	17
65	66	3
64	65	4
75	75	8
81	98	2
48	53	2
26	26	3
33	34	1
86	86	24
60	61	1
88	89	7
59	59	6
91	98	1
80	82	1
78	80	2
66	68	1
86	96	2
31	31	11
58	60	1
85	86	9
52	78	3
68	71	4
72	72	4
24	25	2
94	100	3
35	35	9
49	91	3
99	100	3
40	41	3
51	51	11
43	44	4
45	48	1
69	69	18
56	85	5
99	99	32
76	79	2
39	101	1
79	81	6
42	42	8
23	23	1
82	93	4
102	102	1
29	29	6
95	98	3
93	99	4
97	97	5
40	40	9
87	88	4
79	80	4
76	85	1
81	93	2
31	35	2
73	74	9
82	83	3
69	70	4
94	96	1
35	98	1
83	83	1
70	72	1
33	57	4
84	87	4
49	50	7
92	96	4
48	64	7
70	99	1
50	50	6
78	79	6
54	54	3
52	55	3
62	88	1
57	59	2
72	89	2
36	37	6
83	84	2
79	82	5
74	75	3
98	99	3
28	28	4
41	43	4
93	98	2
25	28	1
58	59	7
62	63	2
41	46	2
38	39	2
61	61	6
67	70	2
69	101	4
82	82	3
34	57	3
44	50	1
67	68	3
46	55	3
72	90	5
42	43	3
76	77	5
59	61	3
50	51	3
23	41	2
50	57	1
30	30	1
99	101	1
94	94	9
47	65	2
48	57	3
53	53	6
46	46	5
60	85	2
48	49	3
62	93	2
22	26	2
57	58	4
57	61	1
49	56	1
51	52	1
58	71	1
90	99	1
80	86	1
91	93	3
79	101	2
93	100	2
74	99	1
43	70	3
61	88	1
65	70	3
53	54	4
52	80	1
71	74	1
80	81	2
75	85	2
97	100	2
36	39	1
90	91	2
61	62	2
86	92	1
84	85	2
33	35	1
72	86	1
62	91	1
96	99	1
42	70	1
92	101	3
91	95	1
92	95	1
77	85	1
86	89	1
35	39	1
43	72	1
44	90	1
32	45	1
58	90	1
87	89	1
92	99	1
43	71	1
