24	26	5
19	19	7
167	167	8
177	177	14
15	15	9
94	95	2
56	58	2
164	164	3
63	64	5
170	170	9
149	149	11
38	39	3
52	55	2
44	44	9
173	173	14
14	15	4
138	138	9
132	141	2
10	10	21
150	150	10
0	0	24
82	150	1
148	159	3
103	172	2
111	111	13
55	55	18
110	111	8
134	139	4
136	136	5
52	53	1
31	31	16
172	172	15
14	14	22
126	131	1
23	23	22
3	4	5
38	38	20
36	37	6
32	32	17
77	78	2
163	163	6
45	45	9
142	148	2
52	52	6
40	43	4
17	17	12
124	125	10
17	18	4
26	26	14
34	34	11
14	27	4
14	16	4
175	175	7
159	159	9
37	37	18
158	158	16
147	147	9
120	120	3
59	59	2
151	151	5
85	85	4
158	174	1
40	40	13
9	9	12
127	130	6
169	169	10
120	121	2
147	148	7
13	13	12
25	26	7
88	145	2
67	67	7
119	120	2
81	81	8
148	158	1
33	34	3
15	42	1
26	27	3
23	24	13
22	46	1
106	106	2
36	36	27
75	77	1
124	124	15
1	1	20
172	173	16
16	23	2
43	43	19
142	142	6
66	66	12
171	171	6
105	132	4
143	162	1
29	29	13
24	24	10
141	141	10
132	133	6
31	66	3
52	84	4
2	4	5
101	101	9
22	22	7
92	92	6
173	174	5
89	89	4
178	179	2
20	20	4
159	170	2
76	76	4
35	35	18
162	162	7
34	35	1
16	16	25
12	12	5
76	77	1
148	148	17
68	68	6
7	7	9
31	32	4
43	153	1
117	118	2
15	16	6
28	28	14
84	157	4
74	102	4
16	32	3
115	116	3
95	95	14
143	143	9
168	169	8
132	132	11
18	42	1
142	157	3
105	125	2
58	58	2
90	90	10
8	8	12
151	152	2
109	109	4
20	21	7
169	170	2
90	91	6
5	5	10
131	131	9
108	108	3
134	134	8
133	133	4
95	115	3
1	2	11
137	137	5
154	155	11
98	98	4
74	75	5
164	165	12
96	142	2
51	51	6
139	139	8
93	93	4
22	42	4
72	72	5
160	161	4
171	172	1
115	115	5
172	176	1
50	50	3
54	54	6
97	97	1
67	68	3
21	22	7
101	102	3
18	18	10
53	53	10
29	30	6
65	65	10
74	74	5
150	167	3
137	138	5
71	71	9
127	140	1
58	59	6
2	2	10
154	154	14
78	78	2
95	139	1
168	168	12
80	80	6
15	26	3
24	29	4
27	28	5
16	17	12
145	145	12
90	172	2
94	103	3
39	39	17
133	161	2
100	150	2
59	61	4
4	4	10
43	44	4
7	31	2
144	144	13
6	6	14
79	79	10
2	3	2
128	130	1
19	21	5
121	121	5
41	41	10
118	121	2
140	140	16
80	81	3
82	82	9
113	113	6
160	162	2
18	19	2
29	52	3
118	173	1
44	45	4
6	43	5
179	180	1
116	116	6
75	75	5
71	93	1
21	44	2
112	112	4
118	159	3
151	153	1
156	156	6
106	107	2
163	164	4
159	160	3
144	145	1
75	144	5
126	126	4
13	14	3
104	122	5
88	173	1
9	10	4
42	42	9
157	174	1
81	82	2
33	33	13
84	90	1
30	31	6
26	44	5
42	43	3
49	50	4
163	166	3
60	60	6
56	56	10
95	106	1
123	123	9
103	103	8
113	114	1
73	73	9
112	114	2
89	134	1
61	61	9
178	178	3
105	141	1
20	42	2
89	173	1
147	150	3
146	146	1
66	67	1
161	162	1
84	84	2
102	126	1
142	143	4
139	142	4
167	169	1
141	142	5
27	27	8
108	109	1
17	90	3
165	180	3
5	6	2
112	150	1
88	150	2
155	155	3
11	11	7
25	57	1
8	9	9
22	23	4
122	122	7
127	131	1
21	21	11
134	136	1
122	124	4
106	108	4
160	160	5
161	168	3
30	30	6
25	25	1
157	158	6
8	11	1
96	96	4
130	130	4
21	25	1
95	96	1
15	23	2
104	123	2
78	102	2
37	38	11
157	157	4
102	107	1
44	46	4
9	16	1
144	156	1
6	7	9
10	16	3
95	134	1
180	180	2
4	10	2
13	41	1
84	135	1
146	149	2
135	135	3
155	157	3
24	43	3
68	81	4
176	176	2
120	141	2
113	115	1
125	125	3
73	74	4
102	102	3
28	54	3
3	3	2
71	72	1
39	40	4
148	149	4
14	36	1
119	119	5
86	86	2
146	150	5
31	33	3
19	20	2
97	98	2
150	152	1
107	108	6
131	132	2
142	166	3
83	85	2
129	129	2
127	127	4
57	57	2
156	157	2
98	101	4
132	146	1
87	87	3
174	174	5
148	153	1
65	67	2
114	116	1
140	178	1
74	130	1
146	147	4
133	136	2
55	56	1
125	126	2
24	44	1
163	167	1
64	64	3
94	94	3
29	66	1
77	77	6
102	127	1
153	153	4
149	171	1
24	25	1
7	8	1
14	37	3
81	83	1
63	63	4
91	91	1
72	170	1
79	81	2
83	83	2
75	78	2
93	94	3
35	36	9
72	73	1
99	100	3
62	63	2
13	16	2
99	99	3
91	92	4
57	58	5
32	55	2
10	15	1
166	167	2
37	39	2
102	108	1
135	140	2
64	80	1
162	163	1
119	127	1
16	164	2
132	139	2
83	84	2
36	44	1
13	15	1
165	165	3
82	86	2
179	179	4
53	54	5
16	173	2
71	134	2
96	98	1
98	118	2
33	44	2
132	136	1
104	105	2
61	63	1
102	106	1
3	40	2
130	131	1
33	176	2
84	85	2
97	101	1
71	171	1
110	110	3
29	31	1
79	91	1
161	161	1
74	159	1
64	65	2
76	145	1
10	40	3
139	176	1
1	5	3
28	29	2
143	163	1
166	166	2
30	93	1
94	141	1
23	39	1
12	13	1
11	12	1
107	107	1
55	60	3
123	124	3
100	105	1
61	140	1
11	21	1
159	161	1
16	89	1
79	144	1
54	145	1
105	105	1
115	131	2
114	114	1
14	23	1
118	118	1
37	178	1
117	117	1
37	56	2
32	41	2
80	131	1
4	178	2
41	42	1
80	146	1
152	152	1
122	135	1
56	72	1
10	12	1
149	150	1
77	92	1
32	102	1
15	41	1
94	132	2
30	67	1
10	24	1
144	168	1
5	7	1
150	151	1
130	163	1
62	62	2
14	40	1
9	18	1
58	138	1
78	79	1
176	177	1
177	178	1
153	165	1
6	8	1
96	97	1
13	39	1
4	5	1
153	154	1
13	23	1
