38	38	7
24	24	18
14	14	9
61	65	2
130	130	5
27	28	3
160	161	6
115	121	1
82	82	5
43	43	3
33	33	9
141	162	2
141	143	3
26	27	1
157	178	2
111	111	14
16	17	4
171	186	2
97	98	3
194	194	11
24	25	3
170	171	8
84	84	3
108	113	1
25	25	14
173	174	2
129	148	1
182	183	1
169	169	10
179	181	6
190	190	10
30	31	2
29	44	4
104	105	4
183	183	11
0	18	5
178	179	2
176	177	2
31	64	2
11	11	4
167	167	13
23	49	1
99	99	8
40	41	6
195	195	14
115	115	11
35	35	9
94	94	9
160	160	5
29	43	2
166	167	6
130	131	6
126	126	10
30	67	3
143	143	5
114	115	4
71	73	1
109	111	3
147	187	2
121	121	6
13	13	2
36	36	10
32	32	3
119	119	7
155	156	11
164	168	1
39	39	11
136	137	3
64	64	2
20	20	8
148	155	4
90	90	2
67	68	1
196	196	10
59	61	2
188	188	7
17	27	4
192	193	3
50	50	6
53	53	7
164	164	4
46	58	1
18	18	4
131	131	5
51	52	1
4	4	5
151	151	13
15	15	1
184	197	2
134	138	3
180	180	10
37	37	6
98	103	1
106	106	6
63	63	6
108	112	1
22	22	7
168	168	9
167	190	1
5	6	2
197	197	4
138	143	8
46	46	9
142	142	11
50	51	10
88	97	1
157	174	1
42	44	3
21	22	6
60	60	2
104	104	4
1	1	11
188	189	4
73	73	2
139	140	12
187	187	10
77	77	2
108	108	2
102	104	1
154	155	1
159	160	12
137	137	2
0	1	10
17	17	3
17	18	2
8	8	12
128	128	4
152	152	4
150	150	11
165	165	1
161	161	7
105	106	1
190	191	2
166	172	1
10	10	3
15	20	2
193	194	2
8	9	2
177	177	14
185	186	10
42	42	1
118	118	4
144	144	6
148	148	10
39	40	1
98	98	9
89	118	1
18	46	2
149	149	5
101	102	1
193	193	8
195	196	1
62	62	2
183	194	2
163	164	3
111	115	1
0	0	10
172	173	7
37	39	4
146	146	1
4	9	1
26	26	2
162	162	4
74	74	2
47	48	2
71	72	1
124	124	9
49	80	1
170	170	3
127	129	1
21	21	6
120	121	4
162	163	3
122	122	3
168	169	4
171	171	10
65	66	1
144	145	5
6	6	3
16	18	2
53	56	2
178	178	5
136	136	7
155	155	1
162	164	3
127	127	5
74	75	3
148	159	2
113	115	2
151	152	3
194	196	1
70	70	4
139	139	6
145	145	5
170	172	1
9	9	6
123	124	2
52	52	6
89	89	4
187	188	1
20	21	1
163	163	3
140	142	3
114	119	1
16	16	4
36	37	7
123	128	2
98	99	2
149	150	3
77	78	1
138	140	3
72	74	2
114	122	1
72	73	1
160	187	2
127	128	3
41	41	6
112	112	6
174	174	1
122	141	1
47	47	10
110	110	4
15	46	2
166	173	1
171	179	1
179	189	2
109	112	1
150	151	4
185	185	4
139	143	1
117	135	1
187	194	1
190	192	2
157	177	1
57	57	1
56	57	1
182	182	2
184	184	8
181	182	4
107	107	3
168	172	1
140	140	3
2	2	1
70	72	1
133	133	4
156	156	12
131	132	1
56	70	1
78	78	9
7	7	2
175	175	6
68	68	3
179	179	4
171	194	3
69	69	5
34	34	7
191	191	5
189	189	9
51	51	2
107	150	3
156	157	1
23	24	4
172	192	2
0	39	4
179	180	1
121	122	2
169	170	4
145	152	3
115	142	3
83	83	2
99	100	6
55	56	1
3	3	1
58	59	1
153	153	5
153	155	2
66	66	3
60	61	5
116	122	3
14	15	3
123	123	3
115	123	1
114	114	8
122	146	1
10	11	2
6	59	1
117	122	2
118	120	1
101	104	2
27	27	1
38	39	1
80	80	2
123	149	4
25	29	1
31	46	2
102	103	1
138	139	1
69	70	1
0	2	1
48	52	1
147	147	9
98	100	2
42	43	2
4	5	3
158	168	3
166	166	3
154	154	1
87	89	1
59	59	3
27	29	1
67	67	2
66	68	1
10	12	1
148	149	4
177	178	2
147	179	1
100	100	2
134	135	2
102	102	6
176	176	4
59	60	1
143	144	4
15	16	5
161	187	2
158	159	1
192	192	4
15	19	1
186	186	2
133	141	1
179	192	2
138	138	3
29	29	5
46	47	3
0	16	2
35	37	1
88	88	1
150	153	1
119	121	1
159	159	5
172	172	1
133	159	1
135	135	1
39	41	3
105	105	3
31	32	2
167	168	2
137	138	1
30	30	6
101	121	1
161	163	2
103	103	1
111	112	1
42	47	2
72	72	2
1	193	1
173	173	2
82	83	2
96	97	2
157	157	7
25	26	1
168	189	1
96	96	1
116	116	2
31	31	10
9	12	3
86	87	2
78	79	2
132	132	1
41	43	2
142	143	2
97	97	2
19	19	1
176	179	1
23	23	4
43	56	1
191	192	5
93	94	1
83	109	2
134	134	3
28	30	2
63	64	1
188	190	3
95	95	3
41	45	2
180	181	2
158	172	1
56	69	1
177	179	2
54	57	1
113	113	4
44	44	2
55	57	1
6	8	2
24	29	2
5	5	3
54	54	2
45	45	1
106	152	2
131	133	1
70	71	1
133	134	1
181	181	4
2	33	1
109	109	2
134	156	1
40	68	2
189	190	3
149	160	1
59	65	1
135	140	3
126	127	3
134	140	1
141	141	3
107	114	1
157	176	1
183	195	1
188	195	2
19	20	2
158	158	1
87	87	1
53	54	1
36	41	1
12	12	1
175	176	1
86	88	1
7	60	2
50	72	2
158	160	1
163	179	1
12	13	1
62	63	1
125	125	1
105	138	2
146	147	1
174	176	1
11	18	2
135	137	2
122	124	1
101	115	1
54	55	1
186	187	4
18	24	1
158	177	1
141	146	1
177	184	1
34	36	1
150	181	1
145	146	2
101	101	1
120	120	1
117	117	1
128	129	1
132	155	2
13	14	1
30	35	1
105	107	2
35	39	1
122	123	1
130	197	1
122	135	1
74	89	2
136	139	1
119	120	1
179	191	1
38	87	1
