23	23	28
108	108	12
52	53	8
5	5	17
26	26	9
33	36	6
5	6	4
122	122	31
136	136	11
148	148	12
150	150	26
76	76	12
156	156	8
46	47	19
120	121	5
104	106	7
10	10	19
185	186	12
112	113	11
53	53	29
81	82	8
165	165	8
181	181	9
170	170	22
9	11	3
115	115	17
33	84	3
26	27	3
31	31	18
167	168	11
41	41	17
15	15	20
4	32	5
128	128	19
57	58	10
38	56	1
139	140	3
1	2	7
163	164	4
129	129	21
137	139	3
4	8	1
154	156	2
5	7	4
154	154	16
127	127	11
84	84	2
102	102	13
44	44	23
59	60	4
176	176	8
17	98	2
172	172	26
195	195	21
119	119	23
159	161	2
73	82	1
22	22	13
70	76	1
113	114	2
114	114	12
58	60	3
3	3	9
175	176	10
193	194	7
18	28	1
57	57	21
150	187	3
35	35	15
178	183	3
113	113	19
170	171	13
150	151	2
171	171	22
59	64	2
64	64	3
109	110	4
18	26	4
196	196	19
96	97	9
70	70	8
22	24	2
72	72	10
77	77	4
141	142	13
187	188	10
86	86	4
171	172	11
155	156	7
42	53	3
104	104	11
42	52	3
184	184	20
111	111	17
144	145	7
197	197	33
51	51	20
38	63	3
193	193	38
134	135	4
61	95	2
182	183	8
36	36	11
133	133	14
93	93	2
119	120	5
166	166	11
123	124	10
0	1	7
112	112	10
165	167	5
126	126	11
69	69	14
172	184	1
84	85	6
9	9	30
175	175	11
132	132	11
23	24	10
123	123	14
55	55	8
4	5	8
134	134	25
56	56	14
86	87	7
0	0	21
22	23	4
18	18	16
187	187	19
159	159	11
45	45	17
131	150	1
20	97	2
109	111	4
40	40	7
40	41	9
178	182	4
46	46	15
162	164	6
194	194	29
81	81	7
128	129	5
177	179	2
135	135	20
12	13	13
52	52	26
42	44	2
186	189	3
31	49	1
180	180	9
158	160	2
103	116	8
174	179	4
129	133	7
146	148	1
14	14	18
143	143	17
133	153	2
49	49	15
149	149	23
37	37	30
83	83	4
23	26	2
147	147	8
105	105	4
157	158	15
10	14	6
145	145	11
7	37	3
187	193	4
148	149	12
27	27	7
157	157	16
151	152	7
88	88	5
153	153	18
155	155	16
186	186	12
125	125	10
33	33	20
101	101	5
132	133	3
168	178	5
129	130	5
45	49	5
172	174	2
145	146	8
146	146	7
13	13	9
173	175	2
137	137	5
99	99	10
58	58	13
169	169	23
141	141	17
146	147	4
2	2	22
169	170	3
151	151	26
20	21	14
180	183	1
107	107	6
109	109	7
107	108	3
157	161	1
177	178	12
160	161	6
11	11	25
140	164	6
16	16	10
117	118	6
178	179	4
7	7	8
120	120	14
143	144	5
100	100	9
19	22	2
117	117	16
75	75	4
63	63	5
157	169	2
185	185	3
163	163	3
16	31	1
118	118	12
35	36	11
38	40	2
3	4	3
72	73	4
161	167	2
160	164	1
124	124	16
2	29	4
62	88	1
48	48	15
73	79	3
135	155	4
38	42	6
24	31	4
133	134	6
17	23	3
12	12	18
47	49	5
108	130	3
33	114	4
0	82	9
183	184	5
8	8	6
18	99	1
150	188	3
136	141	1
28	28	8
182	182	18
188	188	3
130	131	7
182	186	3
131	132	2
181	191	2
136	152	3
124	125	7
11	15	1
50	50	10
151	153	2
55	56	7
121	122	9
18	97	3
61	62	5
97	98	1
4	4	14
10	13	7
23	32	3
138	138	17
31	113	2
86	113	1
110	110	7
161	162	2
13	14	8
165	166	7
134	159	1
106	107	6
42	43	5
30	30	9
147	148	11
38	38	5
126	127	7
141	153	2
39	40	13
164	169	4
187	189	3
93	94	5
54	56	3
21	21	8
43	43	6
42	42	9
18	19	4
98	98	6
1	1	6
164	166	1
184	185	6
7	8	5
122	123	10
97	97	6
179	179	14
139	139	6
180	182	5
145	159	3
106	108	4
165	172	3
146	159	3
189	190	4
78	78	4
124	128	2
122	134	2
140	152	1
100	103	2
135	136	9
176	180	3
105	106	8
6	7	4
174	174	6
30	32	4
160	160	8
127	128	3
171	187	4
74	76	2
64	65	3
19	19	5
6	6	6
17	18	4
116	116	9
2	25	1
59	71	3
70	71	6
113	124	1
183	183	16
73	74	3
80	81	3
187	190	2
177	177	7
116	117	4
61	66	5
36	37	3
64	68	5
155	190	4
57	93	1
54	54	10
167	167	9
142	142	15
157	180	4
17	34	7
8	9	1
101	102	3
18	20	6
32	32	11
24	104	1
14	15	13
100	101	8
106	106	2
192	192	7
95	95	8
141	150	7
111	112	10
143	149	1
11	12	5
96	96	7
102	143	1
74	78	2
175	178	3
8	30	3
172	183	1
152	152	10
14	33	2
19	99	8
32	33	4
121	121	5
99	100	3
129	132	4
104	147	1
168	168	16
142	144	6
53	55	3
57	68	3
114	115	7
190	191	2
145	147	2
180	181	3
83	84	5
43	44	5
47	47	7
82	84	2
65	66	2
102	105	4
56	57	4
158	173	1
62	62	3
100	120	5
5	32	3
159	160	3
75	79	1
186	197	5
53	87	4
45	46	7
64	66	2
185	187	2
24	24	10
107	147	2
82	82	6
51	52	6
105	111	6
191	191	6
49	50	3
67	68	6
103	104	3
155	192	1
24	41	2
0	86	3
93	95	1
25	25	7
130	130	15
63	88	1
5	89	1
61	61	5
157	159	3
157	171	1
136	150	2
170	172	4
89	89	3
163	165	3
41	42	6
133	154	1
144	150	2
24	26	2
8	149	1
137	140	2
112	129	1
108	109	8
154	155	4
186	187	3
9	10	7
179	180	5
179	181	5
187	195	6
125	126	3
6	8	9
17	17	4
53	56	5
27	28	1
165	170	2
66	66	4
26	28	2
15	16	5
171	179	2
173	176	2
141	162	4
53	54	2
196	197	6
9	120	1
158	176	2
73	73	4
23	27	3
119	128	3
138	139	3
188	189	4
162	163	8
140	140	4
4	37	1
59	72	1
25	26	4
134	152	1
10	12	1
159	172	2
193	197	1
147	149	2
30	31	1
94	94	9
165	171	2
27	29	2
94	96	2
65	65	4
108	148	1
37	38	5
0	2	5
115	123	2
173	174	8
93	113	1
144	144	4
137	157	3
107	109	1
9	12	4
87	87	6
190	190	4
181	193	1
161	161	9
176	183	1
168	169	2
126	193	1
161	164	1
149	150	3
85	122	2
115	116	4
2	3	5
16	32	3
166	167	1
146	160	3
173	173	7
105	107	1
107	112	2
171	183	3
80	80	3
63	65	1
142	148	1
131	131	2
138	140	4
60	61	2
12	23	3
189	189	5
123	129	2
36	60	1
127	135	4
158	181	3
192	193	2
142	149	2
56	67	3
10	33	3
138	141	5
164	164	4
8	43	1
107	116	2
39	39	5
59	59	6
59	61	3
79	79	1
158	158	4
174	175	3
140	150	3
195	196	3
71	71	4
9	43	2
4	16	1
136	171	2
104	109	1
67	67	1
56	85	1
12	114	1
16	17	2
175	183	2
172	195	1
20	20	4
77	78	3
5	23	1
132	151	1
151	158	1
9	42	5
69	82	1
27	94	1
80	82	3
131	134	4
119	122	4
38	89	1
4	7	1
112	115	1
153	155	2
138	169	3
98	99	3
178	178	3
194	195	5
146	168	1
26	34	1
0	42	1
17	20	2
34	37	1
100	166	2
0	38	1
120	138	1
28	29	3
44	47	2
69	77	1
62	65	2
54	55	5
48	49	3
3	38	1
148	159	2
19	20	3
44	45	1
64	70	2
13	33	1
79	80	3
24	25	1
68	68	3
118	119	1
73	75	1
130	150	1
90	90	1
58	59	1
158	172	1
46	50	2
118	121	1
33	57	3
150	152	1
146	153	1
103	103	4
4	88	1
34	34	2
36	63	2
99	141	1
82	83	4
8	42	1
58	88	6
22	50	2
135	137	1
150	171	2
171	186	1
74	74	1
89	90	1
116	123	1
134	150	1
107	130	1
72	76	2
182	190	1
161	163	1
3	30	1
96	115	3
4	9	2
116	118	2
52	54	1
87	88	2
116	121	2
122	136	1
24	113	1
156	169	1
59	70	2
106	147	1
84	122	1
48	122	1
17	33	1
137	150	2
172	185	1
23	31	1
71	72	2
27	87	1
135	150	1
181	182	1
112	156	1
103	144	1
56	63	1
102	103	1
57	82	1
167	170	1
88	89	1
10	11	1
163	170	1
183	188	1
153	154	1
154	163	1
28	35	2
67	69	1
34	93	1
76	77	1
112	121	1
191	192	1
60	62	1
72	75	2
63	67	2
110	111	1
11	14	1
49	122	2
23	28	1
162	162	2
144	159	1
50	51	1
149	153	1
108	112	1
46	49	1
134	149	1
25	95	2
29	30	1
146	169	1
167	169	1
180	186	1
2	4	1
154	182	1
68	77	1
18	39	1
141	157	1
112	119	1
38	39	1
163	171	1
20	99	1
21	23	1
102	141	1
164	165	1
3	5	1
160	170	1
112	114	1
65	71	1
