83	85	9
106	107	2
20	20	13
30	30	4
114	114	10
135	135	23
36	36	21
111	111	6
100	100	12
1	2	2
14	23	5
107	107	14
125	137	3
137	137	14
107	117	3
80	100	5
84	85	15
22	22	8
94	94	7
29	30	2
74	74	6
22	26	1
14	14	12
88	88	4
127	128	2
102	102	11
27	28	6
89	89	14
78	78	14
3	3	25
120	122	5
1	1	2
10	11	3
84	106	2
101	110	1
125	125	20
5	13	2
128	128	12
38	38	2
23	23	5
138	138	12
131	132	7
115	115	11
11	25	3
11	11	7
24	24	6
96	96	7
83	84	8
134	135	9
120	120	1
110	110	7
77	77	13
101	101	12
8	13	4
116	116	10
139	139	16
103	104	4
131	133	1
109	109	5
132	132	27
124	124	12
87	88	5
37	115	3
99	99	2
37	140	1
5	5	5
0	0	4
115	121	6
32	32	10
16	16	9
0	1	2
121	122	4
139	140	3
76	76	16
119	119	10
16	18	1
140	140	18
82	84	6
11	24	2
90	90	3
129	129	13
133	133	9
112	112	12
121	121	13
108	108	2
28	28	10
76	93	2
121	123	4
35	35	7
134	134	15
103	103	5
104	109	1
9	9	4
14	22	8
126	126	8
21	22	1
12	12	6
125	126	6
81	82	2
36	112	3
10	10	11
95	95	6
72	72	5
72	74	1
95	107	2
135	136	6
113	113	3
72	73	2
12	13	2
91	93	3
81	81	15
7	7	4
97	100	3
7	9	3
136	136	15
80	80	10
23	26	3
131	131	12
113	134	5
23	24	8
12	16	2
104	104	20
82	83	2
71	71	8
30	31	8
123	124	4
117	123	2
36	127	2
118	119	3
89	90	4
125	134	2
117	117	4
37	37	5
72	77	4
104	118	2
33	33	9
98	98	3
6	6	3
27	31	1
110	125	10
122	122	5
129	130	1
101	117	2
90	91	5
19	19	2
75	75	7
33	34	1
35	128	2
22	23	2
93	93	3
73	73	6
108	109	6
91	91	5
10	13	3
130	130	10
79	99	1
76	81	6
4	5	1
15	22	2
108	118	2
74	75	4
4	4	3
34	34	9
1	8	2
24	25	7
116	122	8
2	2	9
73	74	3
77	78	3
137	138	3
97	97	7
25	25	3
123	123	4
12	21	2
127	127	8
38	94	1
81	105	1
86	87	1
6	7	1
8	12	1
118	118	10
31	31	2
101	118	4
27	27	2
104	106	2
126	127	4
105	109	2
17	19	1
92	101	2
3	32	2
105	106	2
132	133	3
20	23	3
20	21	1
94	96	2
122	123	5
85	86	5
105	105	2
15	33	2
136	137	1
7	12	1
92	92	4
120	121	2
111	112	2
82	85	3
80	81	3
79	79	3
73	77	4
17	17	1
85	85	2
97	124	4
21	21	2
7	10	2
106	118	2
94	95	1
110	120	1
129	132	1
19	21	5
110	111	4
104	105	2
94	99	1
99	100	1
111	115	2
87	87	5
103	120	1
7	25	1
11	12	1
72	76	2
86	86	1
29	29	1
12	14	1
119	120	1
8	10	1
95	120	3
115	120	1
26	26	1
92	94	1
84	84	1
95	108	1
101	123	1
14	21	1
34	35	1
79	81	2
124	125	2
23	25	1
8	8	2
90	97	1
93	94	2
91	101	1
76	82	2
119	123	1
86	88	1
109	110	1
5	21	1
37	126	3
17	18	1
134	136	1
130	131	1
137	139	2
26	32	1
89	92	1
24	26	1
18	18	1
20	25	1
13	13	1
82	104	1
2	6	2
44	96	1
123	135	1
79	80	1
101	102	1
7	8	1
31	32	1
12	17	1
81	124	1
105	108	1
