31	31	14
61	76	3
6	6	16
108	108	2
11	11	9
10	10	6
55	96	2
48	49	3
33	33	4
91	92	3
108	109	2
47	47	12
6	121	7
99	100	4
123	123	12
79	79	6
73	73	15
118	118	4
112	112	10
25	25	3
95	95	7
26	26	6
39	42	3
85	93	1
85	85	10
24	25	10
26	47	2
95	121	1
35	35	10
39	39	5
58	120	2
59	98	7
90	90	8
100	100	16
86	86	14
18	18	3
69	70	2
125	125	7
67	78	1
22	22	3
5	5	3
12	96	2
97	121	2
97	97	3
15	15	3
19	20	9
75	75	6
83	83	4
107	107	12
27	98	2
46	47	3
92	92	4
94	94	3
80	80	20
25	93	6
57	57	4
63	63	4
36	37	5
36	36	10
26	27	6
101	101	13
48	48	4
45	84	1
82	82	7
82	103	4
75	76	3
71	71	12
38	40	3
61	61	4
81	81	9
29	29	6
56	79	1
97	98	4
128	128	5
10	47	3
65	65	7
32	90	3
119	119	14
32	32	11
16	16	1
95	126	1
14	14	7
97	115	4
114	122	3
98	98	5
67	67	5
38	39	3
29	49	1
90	93	2
87	87	6
82	83	2
96	126	1
56	121	4
76	77	1
4	6	1
115	116	1
93	96	3
116	116	3
28	28	5
64	64	2
14	38	2
78	82	4
122	122	1
92	94	2
121	121	1
93	93	11
81	82	3
80	81	3
78	78	3
30	32	1
54	97	2
7	61	3
99	99	6
61	85	2
70	73	2
3	3	8
30	30	1
78	93	2
126	126	4
96	96	4
91	95	3
133	133	3
87	88	3
70	70	5
132	132	8
37	37	2
94	96	3
38	38	2
25	26	2
66	66	4
12	72	1
59	60	3
28	82	2
103	132	3
74	74	4
76	76	6
78	81	4
37	42	9
109	109	2
105	128	1
72	72	2
77	77	4
27	78	4
118	119	1
58	58	2
2	32	1
7	46	2
33	36	2
55	121	3
114	116	6
68	104	2
31	130	3
105	110	1
26	129	1
18	33	2
49	98	2
78	79	1
63	69	4
40	40	2
45	45	11
2	10	1
68	71	2
93	97	1
74	77	1
60	60	6
8	10	3
120	126	1
20	82	2
41	41	4
127	127	3
134	134	3
81	94	1
68	68	5
82	123	2
21	21	1
59	59	1
131	131	2
57	92	3
69	69	4
9	9	10
110	110	1
56	57	3
40	42	1
28	99	2
121	123	2
4	15	1
43	43	1
111	116	2
84	85	2
11	93	3
77	78	3
9	46	3
74	75	3
124	126	1
28	36	2
68	69	3
12	12	8
104	104	1
2	2	3
62	62	2
63	68	1
128	129	2
83	84	3
96	125	3
130	130	4
13	20	1
103	103	8
7	7	2
91	91	4
44	47	3
34	34	6
124	124	3
7	8	3
67	68	1
46	46	3
89	91	2
34	93	1
5	10	1
93	94	1
23	49	4
84	84	4
47	93	1
89	89	1
6	7	1
27	27	3
44	49	4
18	83	7
25	27	4
10	11	3
21	62	1
18	22	1
29	30	3
6	84	3
4	4	1
102	102	2
11	27	1
23	23	3
61	62	1
25	30	1
12	61	2
90	91	1
19	22	2
42	47	2
70	71	3
19	19	2
100	101	1
44	45	2
120	120	2
47	62	1
31	43	1
10	12	2
26	48	1
115	115	3
81	91	1
13	15	2
32	35	1
49	50	1
106	116	1
47	78	1
25	29	1
71	72	1
90	92	1
82	89	1
40	45	1
61	64	2
27	48	1
48	84	2
106	108	2
12	18	1
113	113	1
79	80	1
133	134	1
90	126	1
64	93	2
107	108	1
117	117	2
89	125	1
6	83	2
61	72	1
86	89	1
48	79	1
39	46	2
107	109	2
74	83	1
26	30	1
45	46	1
62	66	1
38	48	1
78	134	1
8	8	1
24	29	1
76	118	1
4	5	1
81	90	1
16	41	1
