166	167	8
164	165	7
241	241	13
144	145	3
171	171	21
20	20	11
76	81	4
149	150	3
33	75	1
120	156	1
81	93	5
89	89	8
167	195	3
98	98	9
106	106	11
166	188	8
187	189	1
3	5	10
45	46	5
181	182	2
164	198	1
178	198	3
19	19	11
230	230	11
185	186	3
77	177	4
196	196	3
174	238	4
212	212	14
212	215	1
75	86	1
214	214	4
84	85	5
60	61	9
71	197	3
235	236	2
45	45	9
31	37	2
68	68	19
51	51	8
243	246	2
93	94	9
154	154	4
153	171	6
217	217	4
69	82	4
34	34	15
108	108	5
104	105	8
211	212	3
29	29	3
102	102	8
111	111	13
56	79	2
6	32	2
68	71	2
95	95	8
114	117	1
94	94	18
79	81	1
27	27	10
46	46	9
110	110	19
168	202	1
77	77	7
49	177	4
117	117	15
186	186	10
78	78	8
44	109	2
90	90	12
71	71	17
21	105	3
78	86	1
164	164	8
154	173	1
232	238	1
41	41	11
35	36	5
16	54	3
40	40	12
121	247	2
55	58	1
205	209	5
62	62	5
174	175	3
24	24	7
15	15	9
93	93	5
53	53	9
65	94	3
119	165	2
43	43	9
225	225	6
222	222	1
242	242	4
24	25	13
239	239	8
192	193	10
152	152	4
5	29	2
244	244	9
65	66	6
32	32	12
114	115	7
1	1	7
169	169	3
234	234	13
232	240	3
239	240	6
10	10	3
248	249	2
228	228	5
112	118	5
201	210	2
17	37	4
213	213	6
57	64	2
89	90	5
112	112	13
200	200	11
219	221	3
149	149	3
121	147	8
198	198	17
25	25	6
181	189	3
242	243	3
170	170	3
188	188	6
88	164	5
72	72	9
162	163	4
176	198	3
14	34	10
70	70	10
208	208	7
216	216	7
49	49	4
107	107	9
207	209	2
112	247	3
173	174	3
173	173	14
155	155	6
219	220	6
247	247	8
76	77	7
192	192	9
163	190	4
114	184	2
38	38	17
165	169	7
82	82	13
5	34	2
94	95	13
50	166	1
67	67	7
231	231	6
235	235	7
72	75	2
182	182	5
111	117	2
224	224	8
16	16	8
36	36	6
165	192	2
51	52	1
171	194	2
209	209	16
78	79	4
25	26	4
223	223	7
73	86	4
62	63	2
21	21	16
57	58	4
226	230	2
114	118	2
181	181	7
231	232	5
88	88	13
86	86	6
205	205	6
77	178	3
14	35	4
166	166	11
23	23	8
232	233	2
72	196	3
158	158	1
8	8	18
163	163	4
2	11	1
69	69	8
49	87	1
145	145	8
5	22	5
67	68	3
152	171	6
117	187	1
161	161	12
195	196	2
191	191	4
54	54	20
152	184	5
56	56	3
215	217	1
18	18	1
242	246	1
165	167	5
221	221	4
2	38	2
35	35	5
47	47	13
100	100	4
220	220	8
22	25	1
21	24	1
113	117	3
43	44	4
163	188	2
198	234	2
165	165	10
61	61	5
167	203	1
14	61	5
86	87	6
76	78	3
43	53	1
151	151	6
71	78	3
5	5	5
199	199	8
190	191	4
97	97	2
218	218	2
64	66	6
229	229	6
159	169	5
117	118	1
9	9	12
56	59	3
233	233	4
9	10	5
58	76	6
183	183	5
215	232	3
228	230	2
193	196	2
187	187	2
2	3	5
58	58	4
91	91	11
12	35	1
165	230	3
206	206	4
19	38	2
185	185	7
160	186	2
85	85	5
115	115	5
1	160	1
172	206	6
100	109	2
160	160	9
2	40	1
212	214	6
214	242	1
97	99	1
44	44	11
1	26	2
68	175	3
31	42	2
119	163	3
175	178	4
59	59	2
201	201	8
152	246	5
158	173	2
189	196	3
223	224	3
221	222	3
240	241	4
120	246	7
195	212	1
243	244	3
2	2	2
97	98	5
197	197	4
88	200	1
175	175	11
99	99	4
62	64	5
176	188	1
149	156	3
48	178	2
76	106	1
157	159	2
223	225	3
174	176	4
103	103	5
116	116	11
112	113	3
204	204	12
96	102	1
215	215	10
119	119	4
193	193	4
63	63	10
232	241	1
31	31	14
243	243	11
22	22	7
68	70	3
96	96	14
40	49	6
160	190	4
158	165	5
181	188	4
151	173	4
69	71	1
159	166	5
118	118	7
229	230	2
182	210	3
194	194	5
23	55	1
21	204	3
219	219	3
11	11	9
23	25	4
108	110	3
236	238	1
74	74	12
39	39	2
29	33	2
111	113	4
188	195	4
162	185	1
168	168	5
213	241	5
110	116	3
3	38	3
3	30	2
12	12	3
162	162	5
110	111	5
58	65	1
70	71	1
7	7	6
225	240	3
84	178	1
240	240	9
231	242	2
84	84	5
111	118	2
223	234	2
20	23	1
93	97	2
158	181	2
48	104	1
30	63	1
184	186	2
33	61	1
63	64	3
150	156	1
54	55	3
47	48	3
168	174	3
79	82	2
39	40	4
170	175	1
76	79	5
55	55	4
1	44	2
30	30	8
233	242	2
42	42	4
82	84	1
230	237	2
226	226	5
211	214	1
63	110	1
50	50	4
92	105	3
234	235	2
144	144	4
156	156	10
236	236	13
17	39	2
57	57	8
114	114	5
22	23	8
71	75	1
181	197	1
55	62	1
44	224	1
154	155	4
79	106	5
6	28	3
4	37	4
183	184	3
69	73	3
75	84	2
233	237	1
228	229	4
109	109	6
15	19	1
102	103	3
0	0	1
30	37	4
76	76	5
167	167	4
2	44	2
161	162	2
179	179	2
4	4	8
67	69	2
184	184	5
157	164	2
237	237	5
74	200	1
177	177	8
58	61	3
208	209	8
145	177	2
81	81	2
52	52	8
37	37	2
28	28	1
245	245	4
93	102	2
50	165	1
163	186	3
2	30	1
69	91	2
58	68	1
48	57	1
22	37	2
9	210	9
43	61	3
56	57	1
207	207	4
182	187	2
82	106	2
150	150	6
34	35	3
75	75	13
180	180	4
115	116	3
172	172	8
166	169	4
213	214	1
89	164	1
159	174	1
98	99	1
202	202	10
232	232	2
238	238	2
88	90	4
44	65	1
44	45	1
169	170	3
246	246	7
92	92	6
244	245	2
15	36	1
19	28	2
46	87	3
192	207	1
244	247	2
75	77	1
3	17	1
58	60	4
197	199	2
226	227	3
2	42	3
242	244	3
48	48	1
119	161	3
194	211	3
1	189	5
6	7	2
1	2	2
15	23	1
75	192	4
97	100	1
121	121	2
49	60	3
49	50	5
57	177	4
221	223	1
43	55	2
6	6	4
98	177	3
58	62	2
73	73	10
10	22	1
29	30	1
214	232	1
29	36	2
65	86	2
13	14	4
102	104	1
120	120	2
156	201	2
23	202	3
175	176	3
213	236	1
33	241	2
12	244	2
198	216	2
3	4	1
11	12	3
3	37	1
88	91	3
14	14	4
113	113	13
37	54	3
103	106	1
19	48	2
31	56	1
96	107	1
118	121	2
72	85	2
3	56	4
105	107	2
101	101	5
47	52	1
11	38	1
190	194	5
159	237	2
213	237	1
24	28	4
83	87	4
71	72	2
20	25	3
163	191	4
22	213	2
204	208	1
176	176	3
152	157	1
11	22	1
81	84	2
80	80	4
203	203	1
171	187	2
35	245	3
59	60	2
72	78	5
101	102	1
182	183	3
4	5	3
4	20	1
174	229	2
104	106	3
56	75	1
66	66	7
58	74	5
195	199	6
199	213	1
65	65	7
191	195	1
158	211	2
93	105	2
86	91	1
26	41	2
6	22	2
71	177	1
110	114	1
195	230	1
12	34	3
105	105	2
67	85	2
224	247	3
45	47	3
55	56	3
103	107	1
35	37	2
191	218	3
191	194	3
200	209	1
4	61	2
168	184	2
204	207	2
196	219	2
75	76	2
195	195	3
236	237	5
168	185	1
73	166	1
187	195	2
248	248	5
18	59	2
200	222	3
245	248	3
64	64	3
111	114	1
12	54	1
205	235	1
153	153	2
176	177	3
43	54	1
163	200	2
75	78	2
33	33	4
76	82	3
75	83	3
158	189	1
189	190	1
165	188	1
26	26	6
100	101	1
5	37	3
106	108	3
224	232	2
40	64	1
53	105	3
212	213	2
87	87	2
198	232	4
198	218	2
159	159	1
173	180	1
79	79	4
29	53	1
95	100	2
60	68	2
50	93	3
29	31	1
28	32	2
110	119	2
180	220	1
5	35	2
33	35	1
163	167	1
97	115	1
151	179	1
17	17	3
159	193	1
73	167	2
171	177	1
166	196	2
5	6	1
216	218	1
92	120	1
14	15	2
85	86	1
25	109	3
119	120	2
159	195	3
75	200	1
6	37	1
85	87	1
23	37	1
29	55	2
163	169	1
247	248	2
92	93	1
77	82	1
19	33	1
3	20	1
105	108	1
194	215	2
39	47	1
20	21	2
171	202	1
31	36	1
204	228	1
28	40	1
168	171	1
165	166	1
204	211	1
189	189	1
53	221	1
179	220	1
210	231	1
153	201	1
6	21	1
3	15	2
50	91	1
157	168	1
197	198	2
211	211	1
40	101	1
91	92	1
44	93	1
58	175	1
35	246	1
190	190	1
160	201	1
43	51	1
173	207	1
64	65	1
233	243	1
230	236	1
157	158	1
90	91	3
178	178	1
200	211	1
4	14	2
48	58	1
67	81	1
167	168	1
172	175	1
155	201	1
180	184	1
152	174	1
160	162	1
30	31	1
156	206	1
63	66	1
166	194	1
56	60	1
111	245	1
4	60	1
237	238	1
5	19	1
76	99	1
205	210	1
67	197	2
227	227	2
3	40	1
191	238	1
157	163	1
5	17	1
192	214	1
111	115	1
54	99	1
43	49	1
179	180	1
193	194	1
58	75	1
41	71	1
163	193	1
49	175	1
163	164	1
71	210	1
31	41	1
121	239	1
4	24	3
87	90	1
241	242	2
1	110	1
47	179	1
110	117	1
60	60	1
202	203	1
210	210	1
3	39	1
67	90	1
157	157	1
153	172	1
177	219	1
184	185	1
