11	11	11
121	121	9
113	114	5
141	142	8
9	98	1
26	26	13
66	66	8
8	11	1
19	20	3
10	10	7
125	125	15
117	121	1
18	18	17
154	154	17
95	97	9
146	146	7
78	96	3
69	155	1
13	20	3
67	68	7
130	154	3
25	25	7
32	32	3
69	147	5
36	36	10
79	126	3
36	38	5
93	93	19
106	106	11
104	155	1
48	48	3
48	49	5
156	156	4
123	123	6
38	42	4
68	68	14
28	28	13
131	157	4
5	5	10
118	118	17
23	23	3
38	38	17
83	83	8
25	138	2
17	18	6
77	78	5
63	63	5
119	141	2
19	19	4
46	47	7
155	155	12
4	4	17
125	126	10
69	70	10
127	127	11
135	136	10
151	151	13
109	109	6
127	128	3
111	124	2
1	35	3
21	21	23
17	17	14
64	64	13
147	147	2
112	112	14
33	33	12
136	136	23
5	35	3
62	62	5
32	34	1
12	51	2
88	89	8
25	39	2
3	3	28
110	110	3
110	111	8
16	16	8
132	132	9
26	36	1
138	157	1
38	39	2
27	27	13
29	141	1
118	141	2
140	141	8
0	36	1
149	150	3
142	142	9
95	95	14
14	14	14
126	126	13
89	121	4
17	28	3
54	54	2
131	131	6
38	45	3
97	149	2
129	129	11
104	105	8
9	9	9
155	156	7
104	141	1
47	49	2
123	124	1
0	2	5
6	6	3
41	66	1
10	12	1
140	140	11
88	147	4
35	35	6
146	147	3
141	141	20
45	45	7
91	91	5
46	46	7
142	144	1
125	127	3
91	130	3
145	146	3
122	123	6
102	102	8
24	44	2
86	112	1
47	48	2
150	156	2
124	126	8
84	127	5
126	156	1
28	29	2
50	52	2
101	101	12
20	44	1
149	157	3
88	88	9
131	133	2
3	4	4
119	119	13
137	137	11
69	69	5
114	114	11
49	49	5
75	75	14
107	141	3
22	23	8
89	96	4
111	112	7
86	117	3
65	65	6
84	122	1
15	50	2
8	8	9
92	116	3
138	147	4
84	84	8
158	158	6
152	153	1
85	85	21
99	99	22
41	41	11
148	148	19
57	131	1
106	107	1
13	14	3
3	96	3
29	29	9
83	88	1
116	116	10
95	96	7
112	158	1
38	49	2
145	145	4
108	126	2
30	30	7
71	78	4
150	150	10
12	12	11
111	126	3
128	128	17
70	70	3
93	108	5
21	29	2
82	126	5
87	135	3
143	143	8
98	98	4
71	71	8
40	40	4
136	137	3
90	96	2
33	34	3
2	2	9
90	90	8
139	139	12
107	134	1
77	77	8
89	89	11
80	80	7
23	24	6
24	24	10
36	54	1
124	152	3
20	20	5
35	36	7
152	152	6
15	15	3
123	153	1
23	75	2
52	52	3
56	56	2
80	81	2
117	117	11
117	118	5
87	87	7
62	67	1
78	80	1
55	55	5
0	0	16
104	104	8
111	111	6
136	141	4
144	144	14
100	100	16
48	50	2
79	80	8
113	113	8
94	94	11
30	98	1
31	44	2
53	53	8
134	135	5
34	34	12
30	37	1
138	138	15
65	68	4
86	86	9
134	137	6
19	23	1
149	149	3
107	107	8
73	73	10
135	135	11
75	128	1
37	94	1
21	22	2
116	117	1
46	49	1
130	139	3
108	113	1
10	152	3
120	156	2
108	108	4
144	145	4
11	12	5
159	159	1
3	16	1
52	53	2
105	107	3
42	43	4
33	47	2
105	105	5
134	136	2
8	9	6
114	116	1
66	157	4
76	76	2
16	17	2
78	83	4
104	114	2
27	30	3
130	130	11
50	134	3
43	43	12
78	148	3
44	44	2
65	70	1
131	146	1
93	94	3
40	41	1
120	120	10
41	104	1
47	47	7
8	17	2
141	153	2
42	105	4
57	57	3
50	50	5
20	21	1
118	119	3
96	112	4
37	40	1
80	92	1
73	106	1
157	157	6
119	121	5
81	83	2
25	26	1
129	130	3
39	135	1
89	145	2
45	49	2
50	51	2
111	131	5
125	150	1
32	45	6
37	49	1
7	7	14
42	113	2
67	69	4
86	104	1
20	47	3
103	104	1
1	3	1
13	13	7
134	134	10
88	122	2
99	100	4
82	82	12
150	151	1
97	97	4
88	145	1
87	130	4
104	109	1
0	22	2
107	148	2
112	113	4
92	92	4
31	50	4
67	67	14
27	28	1
21	55	2
74	74	4
133	133	12
96	96	6
29	30	4
39	39	1
133	149	2
112	117	1
84	85	6
32	43	2
3	32	3
156	157	3
78	78	3
53	147	3
105	106	4
124	125	1
75	94	2
79	79	5
72	120	1
79	94	2
31	31	3
87	88	2
4	96	1
37	37	8
57	69	2
25	42	1
119	138	1
112	130	1
135	137	1
5	11	1
88	90	2
7	8	4
120	141	3
111	146	1
22	22	4
1	1	9
134	139	2
111	114	1
29	45	2
115	115	3
4	22	1
12	13	4
123	131	2
88	118	4
19	22	2
28	145	1
90	109	1
135	146	3
67	70	2
94	107	3
142	152	2
80	127	2
55	90	2
1	2	1
98	107	4
53	55	1
120	140	1
87	117	5
71	114	3
40	135	1
26	27	4
108	109	1
17	41	2
81	81	4
49	53	1
31	43	1
99	130	1
22	39	2
103	103	8
56	154	1
96	97	2
18	19	4
14	19	1
142	156	1
67	121	3
35	151	2
91	113	1
41	42	3
109	110	4
13	21	1
122	122	7
35	48	3
126	134	2
22	29	1
34	35	3
68	71	1
56	156	3
37	106	2
86	120	2
111	150	1
70	155	1
18	109	2
41	115	3
14	16	1
45	107	1
91	92	2
138	158	3
87	104	1
120	143	4
143	145	1
82	83	2
104	113	1
27	80	2
52	54	3
54	121	1
131	132	1
28	43	1
2	17	2
93	104	4
9	10	2
91	135	2
39	108	3
106	152	1
25	148	2
84	111	1
49	106	1
20	43	2
89	90	2
94	116	2
108	112	1
3	25	1
30	44	1
14	15	1
50	64	3
31	48	2
61	61	1
39	126	1
62	70	1
114	115	2
117	120	1
39	70	2
43	112	3
105	108	1
119	133	1
88	97	1
77	79	2
21	43	1
83	90	1
86	121	1
5	55	1
68	70	4
3	13	3
119	120	2
154	155	2
134	142	1
25	27	1
6	18	3
83	84	1
68	77	2
158	159	1
68	88	2
31	45	3
136	139	3
91	94	4
93	95	1
30	46	1
28	141	3
117	143	2
137	141	2
31	42	1
39	43	1
121	122	1
64	121	1
42	75	1
35	49	2
97	107	3
64	70	2
85	127	2
64	69	1
132	154	2
66	71	1
9	19	2
80	158	1
128	139	1
72	72	2
120	121	1
90	91	1
142	149	1
98	105	1
0	12	1
132	133	1
23	25	1
62	88	2
133	154	2
118	136	1
49	50	1
20	38	1
85	132	1
94	95	2
36	37	2
124	124	3
56	64	1
141	152	1
51	53	1
78	81	2
92	110	1
7	154	1
11	79	1
3	83	3
23	26	1
77	95	1
0	11	1
51	51	1
30	136	2
76	77	2
79	93	1
139	140	1
70	108	1
131	154	1
67	155	1
119	129	2
9	92	1
115	116	2
71	155	1
155	158	1
134	155	1
128	140	2
97	98	1
54	55	2
3	11	1
78	79	2
115	117	1
17	36	1
30	31	1
45	46	2
128	151	1
98	99	1
98	104	1
43	52	1
9	15	1
146	148	1
42	44	1
142	157	1
53	54	1
92	93	1
64	65	1
49	51	1
7	13	1
72	100	1
119	143	1
138	139	1
18	35	1
118	142	1
70	97	1
42	42	1
0	99	1
