132	133	11
78	79	12
70	70	7
42	42	12
81	82	7
115	141	2
5	5	17
54	56	3
93	94	14
18	28	2
72	110	2
21	21	10
141	141	19
81	81	20
115	115	18
40	40	12
118	119	6
95	95	12
94	94	13
139	139	10
34	34	5
50	53	2
142	143	6
61	62	7
110	111	4
122	123	12
146	146	6
75	96	3
70	73	5
6	31	5
145	145	13
28	28	25
88	88	4
121	122	11
83	96	3
69	69	11
140	140	17
95	102	1
116	116	29
2	2	10
62	62	13
11	11	12
32	139	2
130	130	11
133	133	21
98	98	10
25	25	13
1	3	5
130	139	2
26	26	20
23	23	27
124	124	12
15	15	14
131	131	25
3	4	2
68	93	3
85	87	5
138	138	11
88	90	10
112	112	7
6	128	3
27	27	13
123	125	2
128	128	18
22	22	24
120	120	47
82	82	8
116	117	6
103	103	9
99	99	22
74	103	1
96	97	3
80	80	14
60	60	14
76	78	9
30	31	6
101	101	14
113	113	14
15	16	9
102	103	4
110	110	6
63	63	23
114	116	7
91	91	3
64	65	7
85	89	1
5	14	2
49	50	2
69	70	8
108	109	9
14	15	3
122	127	3
95	98	8
122	122	26
4	5	3
143	144	8
73	73	14
136	136	27
87	90	4
58	58	15
29	29	7
8	8	9
58	63	1
77	77	14
120	128	2
19	19	19
20	21	8
57	58	14
49	61	8
12	16	1
126	128	8
28	29	9
73	83	1
105	105	6
111	111	5
78	80	9
110	112	9
129	129	12
12	41	1
92	92	12
93	93	8
121	143	2
65	65	6
18	19	14
74	74	18
14	14	9
59	59	9
9	9	8
66	70	4
4	4	2
41	41	22
114	128	3
95	97	4
74	75	14
134	134	21
6	6	7
131	134	2
54	55	4
11	14	5
20	20	7
31	33	6
41	42	6
33	33	18
134	135	8
126	126	20
87	87	12
3	3	12
125	125	8
107	115	3
17	17	28
48	49	6
50	51	3
64	64	9
128	129	3
48	48	9
144	144	7
106	133	1
10	32	3
70	139	2
23	62	4
14	31	2
36	36	11
96	98	1
61	61	21
16	16	19
31	32	1
5	6	1
97	98	4
67	67	5
135	136	7
127	127	9
86	86	7
137	138	3
145	146	2
75	75	5
105	116	2
90	91	6
58	59	5
89	89	20
66	67	7
78	78	12
109	109	7
117	127	5
0	0	14
76	76	7
59	60	6
72	73	2
137	137	17
10	10	12
71	71	22
118	132	1
106	106	26
15	31	1
37	37	18
135	135	15
11	17	3
84	84	16
72	72	16
43	49	2
129	131	1
30	30	26
68	70	2
65	66	8
39	39	9
90	90	10
35	35	10
114	115	5
70	71	10
4	6	1
119	119	11
34	47	6
114	114	8
143	143	9
18	18	10
106	114	1
79	79	6
133	136	2
24	24	14
140	141	11
85	85	13
1	9	5
59	61	1
84	85	8
39	98	2
39	40	3
32	32	8
7	13	2
76	79	5
118	118	18
97	97	13
51	52	2
88	92	5
11	12	6
104	104	4
96	109	9
42	43	4
13	13	5
12	12	3
113	114	6
25	26	9
2	4	10
18	22	5
107	107	5
54	54	13
17	18	2
89	90	1
66	68	4
49	49	9
121	121	12
70	94	3
100	100	4
21	22	5
5	43	1
0	1	7
91	92	1
8	9	6
131	132	8
118	120	3
113	115	3
119	130	1
50	50	9
127	129	6
124	125	5
49	51	3
77	103	2
117	117	27
86	87	4
60	62	1
67	142	1
127	132	2
87	89	3
121	127	4
55	55	5
142	142	6
100	101	9
34	70	3
83	95	1
75	132	1
79	80	3
1	1	12
123	123	6
43	48	7
122	129	4
71	72	7
26	90	5
53	55	2
67	68	5
119	131	2
123	124	9
68	68	6
69	84	4
71	134	2
112	113	2
94	98	2
51	64	4
71	76	1
2	3	6
55	57	1
79	112	2
14	16	1
125	127	1
62	63	5
57	57	13
111	124	2
89	92	3
57	59	2
105	106	2
119	133	3
15	37	1
82	118	2
52	52	8
19	57	2
30	32	1
132	132	7
33	36	3
120	121	3
122	137	4
77	87	2
38	81	3
83	83	12
27	99	6
35	36	5
53	53	3
127	130	13
102	102	12
47	48	2
133	135	2
74	108	2
38	38	9
97	115	2
31	31	3
99	100	2
121	123	3
90	99	1
70	72	3
72	84	1
128	130	2
4	40	2
47	47	4
52	65	2
124	141	4
87	91	5
70	134	4
119	120	2
116	118	1
33	35	2
109	110	7
13	14	6
28	143	3
34	84	2
48	87	1
36	38	1
126	127	7
72	76	1
123	126	1
87	88	2
99	110	4
108	108	5
78	91	2
69	78	1
92	93	3
56	57	2
104	106	5
57	60	1
96	96	2
77	78	7
26	27	2
136	139	4
109	124	1
33	112	3
52	54	1
138	139	5
56	56	11
17	30	1
84	135	1
34	35	7
66	66	9
71	84	1
133	134	2
55	56	4
31	36	3
19	21	2
93	136	1
76	77	2
91	112	2
73	86	2
116	141	2
115	116	5
50	64	1
114	125	2
33	100	1
139	140	6
120	131	3
106	107	5
99	140	1
51	63	2
83	94	2
137	139	2
84	88	1
122	131	4
122	124	4
108	110	2
38	39	1
101	102	1
36	86	2
88	126	1
69	137	1
141	142	3
5	34	1
56	127	2
74	141	1
21	37	2
68	87	3
69	93	3
136	137	7
130	131	1
127	128	5
73	82	1
129	130	6
32	99	2
40	41	1
9	31	2
71	135	1
124	126	2
28	30	1
4	12	2
71	110	1
104	105	2
66	95	2
92	127	1
0	8	1
28	39	1
84	87	6
66	92	2
68	69	1
49	52	1
36	39	3
135	140	2
56	58	1
112	140	1
29	119	3
115	118	1
67	86	2
113	118	1
33	34	2
125	128	1
92	111	4
62	64	4
103	104	1
106	117	3
123	130	1
32	80	1
88	91	2
117	143	2
121	132	2
51	51	1
73	74	1
93	114	1
126	130	2
119	135	2
34	36	2
37	38	2
83	84	2
77	119	1
111	115	1
92	109	3
19	20	3
46	46	1
112	117	1
101	116	3
2	137	1
83	91	2
67	71	1
16	17	3
72	83	1
72	103	1
124	130	1
10	11	4
40	129	1
65	98	1
140	142	1
142	144	2
92	112	1
135	141	1
36	37	1
73	75	1
97	107	1
108	120	1
48	80	1
73	103	1
79	89	2
24	25	1
74	120	6
41	82	1
82	85	1
34	41	1
23	24	1
75	97	2
1	2	1
99	101	1
117	144	2
95	96	2
77	117	1
53	121	1
82	83	1
98	99	1
50	54	1
120	130	1
90	92	1
30	54	1
23	102	1
13	20	1
4	13	1
134	136	1
16	35	1
73	77	1
0	21	1
84	134	1
22	23	1
111	141	1
95	142	1
85	86	1
15	17	1
69	71	1
34	71	1
124	127	1
62	74	2
117	142	1
109	111	1
41	102	1
13	15	1
66	93	1
41	43	1
110	134	1
75	87	1
