35	36	17
57	57	19
56	56	20
53	54	3
39	42	4
44	44	22
45	45	27
50	57	4
40	56	4
37	37	6
38	45	3
42	42	14
33	35	4
56	58	4
15	16	13
38	38	19
5	8	4
11	12	6
51	51	21
9	10	7
31	59	4
12	12	14
40	51	4
36	48	1
47	48	7
5	15	5
36	60	5
14	14	3
15	15	3
33	33	23
54	57	7
48	48	23
59	60	4
35	35	9
51	52	5
19	19	7
37	38	8
24	38	3
30	30	11
34	34	21
24	37	5
25	57	1
49	49	10
14	15	8
59	59	13
30	37	4
47	47	23
30	38	3
57	58	6
41	41	6
55	55	18
1	1	13
13	14	1
58	58	3
4	4	8
54	54	9
0	0	5
13	17	1
53	53	12
6	6	3
20	20	2
16	16	6
44	45	5
2	2	10
31	31	8
38	41	4
39	39	12
17	17	1
37	39	2
42	45	7
10	12	2
57	59	1
62	62	10
31	32	2
9	9	10
21	49	2
5	5	8
44	56	6
39	40	3
60	60	10
36	36	12
24	24	6
37	41	4
33	62	4
10	10	13
13	13	10
23	25	3
25	25	2
40	57	4
50	50	17
29	60	5
1	49	2
6	10	2
42	43	4
52	52	5
31	40	1
4	5	5
7	7	10
34	62	3
20	21	7
50	58	2
8	8	12
57	60	1
50	55	6
2	7	2
3	7	3
44	54	1
10	11	1
37	60	1
3	3	5
37	46	2
40	52	5
0	1	2
45	46	3
23	23	7
58	59	1
32	33	5
47	56	2
36	58	2
37	57	2
24	41	2
18	45	4
6	7	2
32	32	12
36	42	1
13	16	4
16	17	1
41	42	1
41	59	1
41	58	1
18	19	5
38	39	1
29	29	4
32	40	3
49	55	3
20	22	7
43	43	4
46	61	2
16	19	2
48	60	1
54	59	3
5	17	2
29	57	2
44	46	3
31	61	2
45	51	1
9	12	3
22	22	3
47	57	1
39	56	3
39	47	1
24	25	2
45	53	1
5	7	1
22	23	1
40	40	4
37	59	1
34	36	2
40	53	1
11	14	3
38	42	2
39	58	2
21	21	3
55	60	2
1	11	2
36	57	1
46	46	3
25	60	1
40	58	3
18	53	1
31	60	1
56	60	1
43	44	1
24	53	1
11	11	8
23	24	3
38	58	1
61	61	2
41	54	1
9	15	1
8	46	2
50	51	1
2	3	2
17	18	1
37	58	1
20	51	1
34	35	2
36	37	1
32	60	2
45	50	1
31	39	1
40	59	2
44	48	1
29	38	1
9	19	1
37	52	2
39	57	1
32	62	1
46	47	1
7	51	1
32	39	1
48	62	2
29	37	1
30	54	2
47	60	1
43	58	1
46	57	1
46	52	1
6	20	1
31	62	1
43	49	1
31	58	1
58	60	1
33	34	1
