114	114	2
47	47	17
74	75	4
47	48	6
111	111	3
110	111	6
29	48	3
9	10	7
16	16	12
23	23	8
5	5	3
105	108	6
119	119	3
3	3	19
66	67	5
60	60	3
7	7	11
73	73	43
87	88	5
118	119	3
129	129	11
7	8	3
74	74	13
107	108	6
33	35	7
46	70	1
62	62	19
88	92	3
70	70	13
1	2	1
107	107	5
115	116	4
71	71	11
65	65	29
72	72	32
126	126	12
119	120	1
114	115	3
35	35	17
62	72	1
133	133	4
86	86	5
117	123	1
46	46	26
15	15	4
40	41	2
121	122	1
91	92	4
14	15	3
12	12	17
66	66	26
83	83	10
34	63	5
80	80	7
69	123	2
108	108	5
61	61	14
64	64	14
25	47	1
4	17	2
81	81	14
2	2	1
127	128	3
75	75	18
42	42	4
54	55	2
86	87	1
15	17	4
68	68	17
27	28	7
30	30	10
109	125	2
17	17	10
99	100	7
82	83	3
99	99	6
130	133	4
89	89	3
118	118	9
105	105	5
20	21	6
10	10	11
29	30	8
8	8	13
93	93	9
33	33	14
82	84	1
132	132	6
8	18	3
79	80	4
59	59	6
11	11	13
28	79	1
102	104	2
4	4	2
11	12	6
90	90	6
106	106	4
8	47	6
55	55	1
25	27	1
123	124	2
110	110	7
92	92	5
87	92	5
67	68	5
34	34	15
124	124	7
9	9	21
78	79	5
61	77	3
123	123	11
75	76	4
21	21	8
30	31	3
33	34	9
115	115	14
4	6	5
12	19	2
85	85	10
38	38	6
63	68	4
28	29	2
55	56	5
121	121	6
1	1	5
26	27	4
78	80	5
86	90	2
5	6	3
104	104	7
67	67	3
45	71	2
78	78	5
18	18	8
13	13	12
96	98	4
70	71	3
101	102	10
65	67	2
26	48	2
0	0	5
105	107	1
8	36	3
12	13	4
91	91	5
114	126	1
41	83	1
110	115	1
46	85	3
36	37	1
39	40	1
51	51	2
44	44	2
117	117	8
101	101	11
95	95	14
112	113	4
63	67	1
62	67	3
24	24	4
35	74	2
111	116	4
70	76	3
104	105	3
122	122	9
96	96	6
32	32	5
97	97	9
90	91	1
71	72	2
51	55	3
25	25	6
4	95	1
38	42	3
27	27	3
88	88	2
128	128	4
3	96	1
77	77	15
26	26	15
118	121	3
118	123	3
128	129	1
113	113	4
79	79	7
98	98	3
85	86	1
61	72	3
69	70	5
85	88	1
110	122	2
104	108	2
86	88	1
76	76	7
45	77	2
31	32	2
129	131	1
60	92	2
94	95	3
31	31	3
91	98	1
14	14	7
94	101	3
29	29	14
100	100	2
133	134	7
49	49	6
70	118	1
131	131	4
62	74	1
34	35	4
15	16	1
117	118	1
63	74	1
20	20	2
29	32	3
65	66	7
100	101	2
56	56	1
19	19	2
7	47	1
82	82	5
3	4	5
94	94	6
127	127	2
101	113	1
7	26	1
39	43	2
26	28	4
122	123	6
3	122	2
98	102	1
102	103	3
68	69	2
111	112	1
63	63	5
73	74	3
32	33	4
8	10	1
131	132	1
109	110	4
45	101	1
64	65	3
21	62	1
69	69	5
95	98	2
45	45	11
107	110	2
46	47	6
8	21	2
116	116	2
84	84	4
85	102	3
3	66	1
60	61	1
60	93	3
57	57	5
20	22	1
126	128	3
44	60	1
2	4	1
35	36	3
3	85	2
39	82	1
0	72	1
110	125	3
115	117	1
58	58	1
102	102	4
97	99	1
95	96	1
64	69	1
29	31	4
11	93	1
13	130	2
38	39	1
6	6	2
34	73	1
39	41	4
77	78	4
85	93	4
119	122	1
74	76	2
98	99	1
113	114	1
7	48	3
94	100	1
76	77	2
30	32	1
121	132	1
48	48	2
41	41	1
13	25	3
45	46	4
8	37	2
69	122	1
24	25	3
10	11	4
93	98	1
40	42	1
16	17	1
88	90	3
90	92	1
22	22	1
83	95	4
16	24	1
130	130	1
111	117	2
125	125	4
97	98	1
112	112	1
35	47	4
118	122	3
89	90	4
132	134	2
72	116	2
107	126	1
41	42	5
130	131	1
34	67	2
8	11	1
126	127	2
27	93	3
17	72	1
37	37	2
76	110	1
70	72	2
4	5	4
63	64	4
43	43	1
11	92	1
72	73	5
96	99	2
36	36	1
87	87	1
60	83	1
20	75	1
17	28	1
38	56	4
29	80	1
21	22	1
46	61	2
59	87	1
28	33	1
17	18	1
126	130	1
28	28	1
54	54	2
104	110	2
61	76	2
80	82	1
29	49	1
107	114	1
93	94	2
59	101	1
7	94	1
44	75	2
83	84	2
103	103	2
80	85	1
92	100	1
13	14	1
85	92	1
