64	64	7
69	69	9
94	94	18
57	57	11
38	38	10
103	103	19
48	48	6
52	52	13
74	75	7
61	61	6
95	101	1
71	71	10
98	98	8
66	67	8
50	75	4
24	24	14
20	20	7
95	95	9
79	79	18
60	60	9
81	81	26
71	72	1
75	76	4
68	68	15
96	96	24
46	47	8
59	60	2
42	43	4
49	49	10
87	88	2
26	27	10
77	77	5
65	65	5
107	107	13
43	43	4
80	80	13
38	39	3
34	34	13
51	51	10
82	82	14
90	91	1
85	85	14
30	30	15
59	61	4
61	62	6
55	61	2
70	92	2
22	22	6
70	76	3
50	50	28
99	99	12
62	62	12
40	43	3
29	30	7
42	45	10
23	23	5
84	86	5
100	100	9
76	76	17
89	90	9
86	86	6
53	53	4
70	70	11
72	72	11
45	45	4
91	91	6
88	88	16
83	83	19
79	80	4
61	85	2
55	56	6
81	87	4
81	82	2
56	57	5
55	55	3
41	44	8
94	98	4
67	67	11
41	41	7
97	97	19
104	104	19
83	84	5
92	92	10
94	101	1
56	56	14
94	95	10
29	33	3
57	58	25
21	21	10
36	36	8
25	27	1
66	66	11
28	28	7
32	32	12
39	39	5
42	44	7
26	29	3
93	94	7
62	71	4
90	90	11
42	42	6
36	40	2
99	100	3
51	53	4
74	74	11
67	84	3
27	46	3
60	84	1
100	102	8
58	59	4
102	104	4
36	37	3
82	86	2
28	30	2
25	25	6
35	35	19
27	27	10
75	75	4
80	81	2
27	28	5
40	41	9
84	84	9
46	46	13
52	53	6
105	106	2
33	33	11
37	37	3
45	48	5
91	103	9
91	104	1
76	77	4
95	103	1
67	68	1
69	70	5
29	29	7
73	73	8
82	83	2
91	92	1
96	97	5
26	26	8
98	101	1
36	56	3
85	90	6
105	105	10
87	89	1
47	48	5
26	49	1
97	98	3
70	71	2
50	51	4
47	47	10
40	99	6
43	44	1
29	32	1
54	62	1
94	96	4
92	97	2
35	39	1
32	33	2
78	78	4
62	63	3
91	106	1
54	55	3
45	49	5
99	102	2
104	105	4
93	93	12
40	40	7
49	81	2
47	83	1
42	97	1
84	85	6
86	87	3
87	87	4
79	81	2
101	101	8
31	31	3
72	79	1
46	48	1
63	63	3
43	46	2
88	90	6
25	34	2
52	54	3
86	91	1
82	85	2
44	44	9
52	76	2
20	50	1
60	61	2
54	54	5
27	34	2
70	79	1
71	75	1
48	50	2
102	102	6
19	20	3
73	74	2
63	70	1
20	21	2
47	82	1
44	45	2
53	54	3
78	79	2
91	99	1
88	89	4
89	89	6
28	29	1
96	99	2
61	63	2
63	64	2
83	86	3
78	80	4
40	96	1
98	99	7
48	49	1
81	85	1
68	69	1
58	58	4
27	30	1
57	59	1
33	34	3
60	62	1
55	57	1
106	106	1
66	83	4
21	22	2
33	73	2
49	80	1
26	30	1
63	71	1
39	51	2
33	47	1
91	102	2
88	98	1
24	45	2
44	48	1
95	96	3
42	96	1
24	25	1
65	69	2
61	71	1
51	52	1
52	93	1
39	42	1
64	65	1
59	59	1
101	102	1
