126	127	7
6	6	14
78	79	9
125	125	17
47	47	32
68	69	4
66	119	1
97	97	18
52	53	14
113	131	2
108	109	8
45	68	3
29	111	3
82	111	2
54	130	5
63	100	9
13	13	10
90	90	12
56	111	1
24	28	2
96	96	13
43	43	22
41	42	12
83	86	1
112	123	1
86	88	6
23	25	4
0	1	2
9	9	17
83	83	12
24	24	13
13	14	15
114	116	7
106	106	17
84	84	9
72	72	8
18	18	14
34	34	13
53	105	5
51	51	30
82	82	7
67	67	12
8	13	4
115	124	4
7	21	3
25	25	9
12	12	26
48	56	2
4	4	19
2	2	21
117	118	7
83	84	16
23	24	5
109	109	24
85	85	13
2	40	1
109	110	2
101	102	2
108	108	18
3	95	3
130	131	4
127	128	7
8	8	6
18	19	12
56	56	33
41	41	20
12	13	3
124	124	32
87	87	11
115	115	22
129	129	13
30	30	13
1	33	2
63	64	8
20	119	4
40	40	11
113	113	7
77	77	15
102	130	4
85	88	3
0	0	16
38	39	8
129	131	3
5	18	4
63	63	16
47	70	2
92	92	21
71	72	3
54	54	34
14	14	27
0	108	2
118	119	5
66	107	4
39	39	23
39	59	1
115	127	2
91	91	14
106	107	2
21	21	11
132	132	12
103	103	22
19	125	1
10	10	17
45	49	4
17	18	3
8	18	1
4	11	4
5	6	7
91	93	4
7	11	1
52	52	10
110	111	2
20	26	5
50	50	16
57	57	7
100	114	4
47	68	4
11	18	3
5	12	8
42	43	2
21	90	3
120	120	13
99	101	3
93	93	12
81	81	16
71	71	11
3	3	10
69	69	14
7	8	7
55	55	9
72	73	8
55	130	8
26	26	8
58	58	10
23	23	8
48	48	12
88	88	16
100	100	26
82	128	1
11	11	11
86	86	12
123	123	14
111	111	5
27	27	15
56	63	6
61	102	4
82	124	1
81	133	3
114	114	19
4	18	4
25	26	6
68	68	20
108	131	2
21	22	4
32	32	7
2	7	2
94	95	5
90	94	4
44	45	9
53	53	14
76	76	25
42	42	32
76	77	6
3	43	2
32	98	2
4	95	1
20	20	10
83	99	6
121	121	8
54	62	2
44	44	11
32	113	5
102	103	8
99	99	16
94	94	15
47	111	1
62	62	1
54	56	4
73	73	11
99	104	2
10	22	7
44	80	5
62	117	2
7	7	6
55	78	4
51	65	3
99	103	6
82	125	2
66	68	4
30	31	7
124	129	4
81	99	6
131	132	4
131	131	7
90	91	3
60	61	6
21	23	1
5	5	22
118	118	12
87	88	4
45	45	9
46	47	10
28	28	25
48	72	5
96	104	8
28	29	13
63	79	10
119	119	7
84	94	3
103	116	3
82	84	3
112	112	15
2	3	7
123	124	5
73	74	6
106	133	2
114	117	1
1	1	15
13	15	10
65	82	3
111	124	2
43	44	5
110	117	2
38	38	2
33	84	1
59	67	3
16	17	1
91	115	6
108	129	5
23	34	2
54	65	4
67	68	5
10	89	1
2	4	3
17	17	7
56	78	2
101	101	12
12	20	1
40	41	1
107	107	12
45	54	5
72	74	4
22	91	1
3	108	6
117	117	14
66	127	4
120	123	1
59	59	4
33	33	14
6	9	3
62	63	5
27	121	1
79	80	7
116	116	6
71	121	1
66	66	6
64	64	4
31	126	3
32	108	3
79	79	11
4	43	1
0	86	3
1	2	4
16	16	16
44	53	2
111	123	2
117	126	6
41	45	3
83	111	4
116	117	3
126	126	10
88	93	10
97	98	2
31	31	3
14	118	1
49	49	12
27	90	3
58	110	1
102	132	5
65	65	5
77	78	4
88	89	3
129	130	4
46	111	2
1	42	1
38	119	2
46	46	12
89	89	11
48	49	5
47	55	1
73	75	3
6	13	3
26	86	4
110	110	10
22	23	2
84	93	5
93	94	3
8	16	1
66	101	4
118	126	2
103	107	1
46	82	4
1	3	3
40	86	2
85	86	5
74	74	8
40	43	3
61	62	7
78	80	6
60	63	5
27	89	2
39	119	1
0	2	2
102	102	10
30	118	2
39	43	2
105	105	7
105	133	1
39	69	3
77	79	1
104	105	4
53	54	4
33	34	2
114	121	2
92	116	3
9	11	1
45	58	1
98	98	13
108	130	1
59	60	5
63	69	2
82	97	3
55	125	1
20	90	2
45	46	10
102	125	1
46	58	1
58	59	5
60	62	4
12	18	3
20	86	1
89	90	10
50	52	1
67	118	4
80	81	1
115	128	3
26	88	2
54	64	1
57	110	1
5	17	1
122	122	8
117	125	1
99	116	1
31	32	4
11	17	3
26	27	4
95	95	8
46	81	2
85	92	4
104	104	4
104	120	3
82	95	2
79	99	3
51	52	13
15	16	5
98	128	2
107	127	2
101	114	2
4	98	1
80	105	2
22	22	4
62	69	2
133	133	11
58	63	5
40	42	3
113	114	1
51	53	3
40	44	2
96	105	3
55	72	1
0	30	2
61	61	5
84	96	2
59	85	1
2	31	4
81	83	1
71	74	2
82	87	1
13	17	3
103	104	3
128	128	5
11	74	4
104	106	1
40	92	1
50	71	2
5	14	3
38	45	2
3	4	4
1	85	1
70	111	1
120	121	2
15	18	2
70	70	3
112	132	10
124	125	4
100	113	2
6	16	2
39	94	1
80	99	3
17	21	2
97	128	6
90	123	1
81	100	1
65	66	2
60	60	4
55	81	3
24	29	1
9	22	1
100	101	3
22	29	2
125	127	1
110	112	3
46	50	4
74	76	2
38	43	1
93	95	1
40	70	1
85	87	1
99	100	2
22	110	2
107	126	2
115	116	1
14	15	2
19	19	3
6	7	1
83	93	2
104	121	4
126	128	2
106	125	2
15	15	10
67	117	1
56	57	2
57	58	1
11	72	3
53	113	3
114	120	3
111	122	1
28	30	1
16	23	1
88	92	2
22	25	1
128	129	1
121	122	2
32	41	1
80	83	1
103	124	2
116	118	1
19	94	1
0	33	3
97	107	1
55	74	1
30	32	1
22	117	2
61	120	2
107	125	2
80	80	3
25	29	2
48	100	2
81	97	1
97	108	1
130	130	2
95	96	1
45	73	1
113	130	2
29	29	3
88	91	1
70	71	1
69	70	1
29	118	1
10	73	1
22	109	1
77	80	2
54	61	1
71	91	4
63	80	1
24	34	2
49	50	1
101	103	2
31	41	1
99	102	2
8	9	1
29	101	1
55	67	2
4	97	1
70	121	1
126	130	1
65	74	1
1	82	1
98	99	2
59	87	1
22	115	5
102	119	1
4	15	1
78	78	6
26	28	2
64	65	2
3	7	1
94	116	1
54	74	1
1	84	1
47	71	1
27	31	1
99	130	3
32	109	1
95	115	1
81	82	1
4	5	1
99	124	1
96	97	1
3	14	1
75	76	1
37	39	2
115	117	2
82	99	1
10	11	1
19	20	2
19	24	1
81	113	1
43	59	1
56	70	1
95	109	1
11	16	1
75	75	1
27	74	1
103	130	1
28	32	1
80	100	1
21	25	1
45	69	1
103	108	1
17	23	1
113	125	1
44	47	1
101	119	2
125	128	1
127	127	1
101	116	1
7	24	1
122	124	1
6	18	1
11	29	1
127	129	1
117	127	1
89	124	1
2	14	1
20	88	2
11	30	1
69	71	1
5	114	1
38	44	1
66	115	1
58	78	1
84	85	1
