91	91	3
108	108	12
60	60	4
88	88	2
41	41	11
81	81	2
105	105	14
60	61	8
36	36	8
99	99	3
76	76	2
63	84	2
42	59	2
104	104	10
76	103	4
64	80	2
103	103	5
29	29	3
76	77	1
49	49	7
82	82	9
88	89	2
102	102	4
92	92	4
95	96	5
70	70	6
47	51	3
95	95	5
26	26	5
83	83	2
82	85	5
43	44	2
110	110	4
80	82	2
73	73	11
99	100	3
34	35	3
105	107	3
83	85	7
68	69	3
76	92	1
44	44	7
113	113	3
54	56	1
36	38	4
74	74	6
21	21	4
35	35	11
19	25	2
106	106	4
59	61	6
59	60	1
83	84	5
94	96	1
67	67	3
97	98	1
90	91	5
22	26	1
71	76	2
24	32	4
21	22	5
111	111	10
62	63	3
93	93	5
74	75	4
104	107	5
87	87	9
87	92	3
89	89	4
22	27	1
58	78	6
53	53	3
34	34	4
89	90	3
64	64	5
47	47	7
37	64	1
58	107	4
42	42	6
69	70	2
105	106	3
57	57	1
103	107	5
68	71	2
45	48	4
71	71	1
31	31	5
108	112	3
43	43	5
66	66	2
27	27	6
71	72	1
65	65	6
51	52	7
93	94	1
102	107	2
78	78	3
65	71	4
98	103	1
33	33	1
69	69	12
75	84	4
30	41	2
101	102	1
98	98	4
52	52	2
68	68	4
68	81	1
109	113	2
87	91	1
29	33	3
85	86	1
99	107	2
109	109	3
58	59	1
39	41	1
85	87	1
32	32	2
56	59	1
102	103	2
69	76	5
96	97	4
25	25	1
59	59	13
84	84	1
45	45	3
96	107	1
101	101	3
94	94	3
86	86	4
72	72	3
29	31	1
56	58	3
112	112	2
75	75	2
78	79	2
73	74	1
22	39	2
104	105	2
45	49	1
48	49	1
114	114	1
19	20	2
68	70	1
94	102	1
87	88	1
77	78	3
64	66	2
85	88	1
35	36	1
46	46	2
30	30	1
21	41	1
30	33	1
66	80	2
30	31	1
63	67	1
36	37	1
64	67	1
52	53	1
28	28	1
38	38	2
86	89	1
41	42	1
20	40	1
28	29	2
109	110	1
97	97	3
40	40	1
25	26	1
90	97	2
107	108	1
70	73	1
23	26	1
28	39	2
98	107	1
30	45	1
51	51	1
100	100	2
72	73	1
62	62	1
45	46	1
91	93	1
31	35	2
79	79	1
63	63	1
84	85	1
86	87	1
102	105	1
79	80	1
57	58	1
76	85	1
