108	108	14
45	45	10
102	102	5
84	84	10
77	77	4
96	97	11
16	16	5
93	93	4
148	148	10
55	56	7
47	48	4
92	93	5
66	125	7
106	106	5
82	82	7
104	104	2
54	54	20
5	9	2
141	141	6
45	46	3
165	165	4
27	27	4
41	51	3
14	48	3
93	95	6
115	123	4
143	151	3
20	20	16
124	125	6
35	35	4
71	75	1
39	40	3
26	26	8
101	101	3
66	66	8
150	150	8
50	50	9
2	2	17
46	46	13
53	53	5
38	38	10
104	105	6
139	139	6
113	114	5
14	15	4
137	137	5
51	51	10
3	3	15
46	47	1
143	147	3
17	17	15
55	55	10
34	34	25
160	161	8
115	120	1
10	11	6
80	80	7
72	72	4
139	140	3
97	112	2
76	79	1
169	169	9
98	102	2
7	8	3
143	143	4
78	78	3
79	79	6
75	76	2
79	80	4
62	63	1
114	115	4
111	111	9
98	99	3
81	84	1
126	126	5
135	136	3
145	146	8
18	18	13
63	70	3
170	170	8
126	128	4
110	111	8
6	44	1
24	24	21
88	90	4
39	39	7
160	160	3
91	91	4
81	81	12
57	57	8
74	74	8
125	128	1
155	156	8
41	130	2
142	143	4
108	131	3
44	46	3
143	148	2
151	151	7
5	5	10
148	149	3
136	137	2
28	28	8
14	14	2
48	48	12
8	9	6
89	89	4
58	104	3
4	5	4
161	161	12
35	36	2
15	33	2
166	166	4
6	80	4
86	92	2
44	44	1
0	0	4
116	117	3
50	128	2
145	145	5
85	130	3
87	87	6
157	157	6
27	28	2
4	8	3
77	78	3
139	141	2
112	113	3
56	57	1
89	93	3
147	148	11
67	68	2
120	121	3
12	12	4
54	55	3
85	85	2
146	146	5
2	11	1
18	168	1
25	25	9
95	95	1
147	147	5
47	47	2
83	83	12
154	154	12
107	107	9
150	151	3
19	19	4
158	158	4
153	154	3
160	163	1
90	91	3
9	10	8
8	8	13
23	24	6
11	11	9
133	134	8
96	101	4
117	117	5
24	26	1
110	110	11
99	99	7
81	82	2
140	154	2
109	109	2
5	12	2
117	118	3
17	18	5
64	64	5
15	15	4
1	1	13
42	42	9
166	167	1
88	89	5
68	68	4
52	52	12
136	136	7
162	162	2
104	106	3
155	155	4
163	165	1
18	19	5
97	99	3
151	152	3
10	12	1
56	56	8
20	21	9
41	41	6
0	1	10
157	159	3
7	7	6
21	21	10
57	100	4
65	117	1
145	147	1
52	54	4
103	104	6
11	15	3
97	97	2
36	36	7
90	93	1
9	9	4
62	69	1
142	142	3
168	168	8
131	131	5
118	163	5
42	53	2
14	49	4
88	88	6
69	69	25
118	118	4
115	124	3
37	39	2
149	149	7
13	13	9
116	116	4
129	129	10
22	23	1
47	167	1
97	98	4
49	49	9
156	158	1
40	87	2
64	105	3
121	125	1
6	107	2
10	10	10
11	83	2
119	119	4
86	89	2
75	89	1
100	100	7
34	35	12
96	102	1
120	138	3
92	95	4
91	92	3
6	8	1
12	13	1
70	70	14
152	152	11
126	138	1
0	83	2
126	127	5
46	51	6
22	22	7
154	160	1
64	67	1
98	98	11
159	159	1
72	73	4
16	17	6
47	50	4
62	70	2
43	43	2
42	127	1
83	108	3
53	55	1
9	11	3
6	6	3
8	10	2
119	120	3
113	113	14
5	80	1
2	3	4
146	164	3
86	86	3
76	77	2
35	42	1
38	39	5
20	24	1
120	120	5
140	141	1
1	2	2
98	101	6
140	140	5
20	22	3
130	130	4
50	130	3
41	44	2
67	69	1
11	13	3
155	157	2
69	71	2
65	66	5
47	51	7
38	40	2
58	74	5
13	14	1
162	163	5
51	145	2
130	131	1
111	138	1
125	125	5
33	33	2
75	75	6
25	27	2
112	112	3
94	96	2
103	105	1
147	157	1
74	76	1
76	76	7
42	43	8
128	128	1
106	107	5
161	165	1
0	80	1
40	40	6
37	38	2
15	141	1
141	143	2
86	88	2
85	86	2
102	103	1
156	156	2
115	116	1
5	6	1
37	37	11
117	123	3
127	150	2
65	65	3
153	153	4
111	112	1
102	105	2
167	167	4
83	84	1
114	114	5
67	67	2
71	71	9
9	28	1
90	90	1
72	83	2
66	67	3
48	49	4
133	133	7
89	100	1
43	56	2
41	45	1
78	79	2
62	62	2
80	81	2
135	137	5
93	96	1
152	163	1
47	49	4
16	25	2
115	122	1
53	110	2
75	79	1
69	70	2
73	77	1
1	3	1
115	142	1
138	138	6
16	38	1
39	150	1
15	44	1
3	4	1
94	95	4
141	142	2
117	119	2
153	162	1
129	130	1
144	144	3
63	63	3
92	107	1
71	79	1
96	104	3
3	5	4
120	123	1
129	131	2
36	37	1
95	96	1
12	14	1
159	160	4
121	166	1
158	159	3
68	69	1
21	22	3
46	49	2
9	12	2
23	23	1
127	127	5
107	110	1
121	121	2
112	116	3
38	41	1
52	129	1
11	12	1
49	162	1
147	160	1
155	158	2
71	73	1
28	40	1
15	43	2
77	82	1
124	124	6
112	114	1
33	34	2
19	40	1
6	7	1
50	62	1
130	132	1
39	50	1
96	99	1
152	154	1
16	47	1
11	72	3
21	25	2
19	21	2
14	19	4
57	109	2
123	123	1
82	84	1
120	162	1
123	159	1
64	87	1
9	68	1
0	82	2
58	58	1
122	122	1
167	168	3
95	102	1
92	94	2
128	131	2
101	106	1
52	53	2
144	148	2
108	109	2
23	48	2
0	2	1
44	45	1
46	131	2
62	87	3
4	4	2
13	40	1
44	80	1
51	52	2
96	96	2
26	36	1
92	92	3
122	124	2
107	111	1
25	28	1
100	101	1
90	96	2
164	164	3
132	132	1
35	51	1
121	143	2
87	89	1
15	16	2
97	100	1
125	126	1
105	106	3
69	86	1
163	163	1
103	103	2
10	80	1
119	162	1
143	144	2
51	129	1
62	65	1
163	166	2
110	140	1
14	16	1
76	80	2
165	166	2
132	133	1
64	69	1
41	42	1
136	143	1
118	119	1
96	100	1
85	89	1
98	112	1
86	108	1
75	87	1
87	92	1
154	159	2
18	20	1
164	165	1
119	154	1
135	150	1
51	154	1
128	130	1
43	44	2
88	108	1
125	133	2
94	94	1
43	57	2
140	158	1
58	96	1
57	65	1
112	119	1
147	149	1
97	115	1
163	164	1
98	100	1
34	36	1
116	119	1
43	55	1
132	161	1
157	158	4
55	134	1
62	101	1
50	85	1
53	54	1
161	162	1
119	121	1
46	48	1
105	108	1
146	148	1
156	160	1
71	72	1
64	106	1
21	48	1
