0	0	13
39	39	13
161	163	5
167	168	4
33	37	1
5	6	4
7	40	2
20	20	4
72	72	6
44	44	16
20	33	1
112	112	4
82	82	11
96	97	8
1	17	1
173	173	4
171	173	4
27	27	10
97	101	6
40	40	9
158	158	2
86	86	13
164	166	2
119	119	8
134	157	4
170	170	9
50	50	4
42	44	2
56	56	5
154	154	6
33	38	3
13	13	15
138	138	4
31	31	11
10	11	5
134	134	10
121	121	7
33	33	15
116	116	6
26	51	3
8	9	20
107	107	7
42	43	8
171	172	3
21	21	6
102	150	2
58	59	3
15	15	19
87	87	12
4	4	11
17	17	10
127	128	3
67	98	3
19	19	10
3	7	2
136	136	8
167	167	4
36	80	1
15	16	3
175	175	7
61	61	5
57	83	2
88	89	1
94	95	1
75	75	17
97	97	9
2	4	6
63	63	6
88	106	1
24	24	9
150	150	4
60	60	8
108	108	5
163	163	12
59	59	7
67	67	14
22	22	17
35	35	20
66	66	5
16	16	7
8	10	4
73	78	3
114	148	2
137	137	1
24	26	6
45	117	3
55	133	3
60	64	3
142	142	11
11	11	18
1	2	5
98	112	2
62	62	8
18	18	6
140	140	8
70	71	6
6	8	5
29	126	3
162	163	2
37	78	3
26	26	6
30	30	15
25	26	8
57	57	6
68	68	3
35	36	4
0	23	1
30	31	9
23	23	22
152	155	3
35	110	2
109	112	2
10	10	11
41	41	12
8	8	23
141	141	9
1	1	13
153	153	10
24	40	2
100	101	1
29	30	5
174	174	5
67	68	2
40	43	4
6	6	14
137	138	2
5	15	3
1	5	1
36	81	1
139	139	10
55	55	7
162	162	6
156	156	8
120	120	7
148	158	4
33	40	1
115	118	2
3	4	4
12	12	9
146	146	5
85	85	9
38	38	16
45	45	9
98	99	2
43	44	4
144	152	3
176	176	8
3	9	2
24	25	3
172	172	2
118	118	4
12	17	1
104	107	3
62	64	5
64	65	2
170	171	3
122	130	4
93	137	2
52	53	2
98	98	6
104	104	4
3	12	2
28	29	3
32	131	1
32	32	12
73	73	2
10	33	2
9	9	8
173	177	2
3	8	2
160	160	12
126	129	1
12	13	9
28	28	10
157	157	1
64	64	3
22	88	1
96	96	9
136	137	1
155	164	1
29	29	10
171	171	3
148	148	6
1	6	1
154	159	2
161	162	6
27	28	2
31	32	7
28	31	3
163	164	3
122	124	7
63	67	4
115	157	1
74	77	1
161	161	7
128	129	1
3	3	6
129	130	4
10	15	1
91	92	3
83	93	3
83	83	6
155	155	11
165	165	3
166	166	8
92	92	6
13	18	2
7	15	2
131	143	3
37	46	1
38	39	1
2	2	9
40	74	1
40	41	3
103	105	3
101	107	3
10	13	1
128	128	4
37	37	6
28	30	3
81	82	1
161	164	1
117	118	2
84	84	4
21	22	4
130	153	1
125	126	6
120	147	1
90	91	3
26	28	4
85	111	4
149	149	2
108	109	2
36	38	1
32	33	5
18	19	2
102	112	2
4	7	1
7	22	3
5	19	1
168	168	6
79	80	3
98	100	2
155	160	2
44	123	1
179	180	3
132	132	6
20	62	1
115	115	3
87	96	2
100	100	2
138	139	1
152	153	1
177	178	2
79	79	9
43	45	1
122	122	4
88	91	3
63	65	4
21	33	2
4	6	3
131	131	5
91	91	2
123	123	5
137	148	1
34	40	3
150	151	1
114	114	6
88	88	4
108	110	2
77	77	1
107	110	2
34	36	1
54	54	4
168	169	1
4	5	3
146	168	4
78	78	2
123	135	3
105	105	2
43	43	7
15	32	1
152	156	2
2	5	3
145	145	7
82	84	2
66	82	1
66	67	2
6	43	3
6	22	1
3	15	4
14	14	21
117	117	6
59	78	1
135	135	11
117	119	3
9	16	3
152	157	1
10	14	3
25	25	10
92	93	2
22	66	1
139	142	1
74	74	7
6	7	1
44	63	1
10	17	4
72	80	5
81	81	7
53	54	8
133	133	6
20	22	2
157	158	3
34	110	2
19	25	3
147	148	1
93	93	6
152	154	6
178	178	4
74	92	1
125	125	7
19	45	1
146	147	2
101	101	1
6	19	1
7	7	5
103	104	4
11	15	1
106	107	1
45	114	3
116	118	4
141	142	3
2	3	1
39	40	2
60	93	1
19	44	2
21	88	1
110	110	10
151	169	1
80	80	6
124	124	10
152	152	2
8	22	2
111	111	2
131	132	3
126	126	5
102	130	1
151	168	1
125	134	1
37	39	3
108	111	1
144	144	4
89	90	1
36	41	1
151	151	4
103	128	1
149	167	1
141	143	2
13	36	1
145	171	3
87	90	1
49	114	2
57	59	2
7	8	2
89	95	2
33	39	1
76	76	2
101	113	1
42	42	9
17	19	1
114	115	2
52	52	7
7	9	1
121	122	2
73	75	1
30	32	2
36	37	4
56	57	1
71	85	3
5	5	9
140	162	5
144	145	1
98	101	2
77	78	2
7	44	1
71	71	5
109	128	1
147	147	5
76	80	2
11	16	1
169	169	5
14	32	1
130	130	3
4	45	1
123	124	1
171	176	3
155	161	1
155	158	1
109	109	5
34	106	3
74	75	2
65	66	1
35	45	1
53	53	2
32	59	1
12	34	2
34	35	3
81	86	1
100	102	1
165	170	1
33	35	2
8	35	2
115	158	1
61	63	1
84	102	1
76	77	1
99	99	2
90	90	1
40	45	2
159	160	3
7	41	1
106	106	3
84	85	4
155	156	3
11	13	2
142	143	2
108	112	6
80	123	1
5	7	2
41	45	1
27	40	2
99	103	2
2	15	1
132	133	1
8	32	1
159	159	3
41	42	1
12	15	2
23	60	1
116	117	1
97	98	1
164	167	1
21	59	2
143	145	1
71	72	2
135	141	2
23	37	1
150	176	1
124	125	3
151	154	1
161	167	2
99	104	1
3	11	1
131	136	1
14	16	1
65	65	2
70	70	1
157	172	3
23	25	1
10	34	1
94	94	2
102	108	1
10	16	1
117	126	1
175	179	1
137	147	1
102	102	3
154	155	1
36	36	4
103	147	2
147	149	1
125	133	1
122	128	1
166	167	1
31	36	1
179	179	1
131	153	1
89	145	1
55	56	1
12	16	1
17	18	2
51	51	3
74	82	1
149	176	1
164	164	2
35	42	1
127	127	2
113	113	3
56	82	1
148	149	1
146	167	2
135	136	1
2	21	2
86	91	1
111	113	2
1	9	1
27	33	1
33	34	1
9	10	1
78	79	1
74	76	1
143	153	1
88	100	1
66	97	1
26	57	1
89	89	2
6	9	1
38	71	1
143	144	1
96	99	1
2	20	1
107	158	1
2	7	2
102	105	1
90	92	1
62	63	1
65	97	1
128	158	1
151	166	1
103	103	1
177	177	1
