164	164	4
26	116	2
17	17	6
86	136	2
133	133	4
10	10	11
166	166	3
146	147	1
144	144	6
142	142	2
10	13	1
13	14	3
78	78	1
15	15	6
120	131	1
88	88	2
31	31	2
129	177	3
9	12	9
29	34	1
13	13	9
115	158	2
36	37	5
74	102	4
109	109	8
24	37	1
37	37	6
110	110	3
108	108	2
136	136	5
10	17	2
52	66	1
26	26	14
24	24	7
34	36	4
122	122	7
21	28	1
28	28	2
15	16	2
38	132	3
148	148	3
30	30	4
132	132	3
87	87	2
8	16	4
27	27	10
76	76	3
37	38	4
8	15	3
154	169	2
14	14	14
102	102	5
7	7	7
128	145	1
166	169	1
33	33	8
14	32	3
2	29	2
40	40	6
151	151	4
138	138	6
92	92	1
160	160	2
6	6	7
91	94	2
96	141	2
111	111	6
128	154	1
61	87	2
155	163	2
43	64	1
43	44	3
180	180	1
20	21	3
119	119	2
158	159	2
90	92	4
41	41	5
143	144	3
85	89	1
2	2	4
159	159	7
4	7	1
3	3	12
136	137	2
70	71	3
12	13	2
89	105	2
38	41	3
97	97	2
23	43	1
102	116	1
94	97	3
43	43	3
18	127	3
71	71	4
24	44	2
33	39	1
8	8	9
60	60	6
78	132	2
19	19	3
103	103	5
46	46	1
91	92	2
156	156	4
53	53	4
147	180	1
21	21	2
24	25	5
23	23	4
25	26	2
35	35	3
130	131	1
152	162	2
38	115	1
57	57	4
157	157	4
170	170	5
96	96	1
65	65	3
105	105	3
100	101	3
2	7	3
23	24	4
18	19	7
152	152	2
37	40	4
167	167	2
115	118	3
108	166	1
79	174	1
81	81	3
34	34	4
18	21	2
18	18	5
104	104	3
27	29	2
31	73	3
144	178	4
33	37	5
64	109	3
45	46	3
153	153	3
39	40	3
160	161	3
74	74	1
89	89	3
165	166	5
83	83	3
98	119	2
157	158	2
174	174	6
75	157	1
175	179	1
1	1	1
50	50	1
172	172	3
30	31	3
124	124	4
9	11	4
125	169	1
116	119	2
82	155	1
11	42	2
24	56	2
39	39	4
99	100	1
54	54	2
27	104	1
127	127	1
91	91	3
143	143	2
104	109	4
26	29	2
25	25	2
78	173	1
178	178	3
153	155	1
8	10	1
4	5	3
173	175	2
106	112	1
12	45	5
15	18	1
168	171	1
77	170	1
107	107	2
10	11	4
156	160	1
32	80	3
29	29	3
125	125	3
16	16	5
44	46	2
35	72	1
88	89	1
73	73	7
44	44	6
61	61	4
83	84	4
4	45	2
26	31	3
109	140	1
130	178	1
131	131	2
173	173	1
100	104	1
128	128	2
120	120	2
5	16	1
85	88	3
0	6	2
90	94	2
66	66	3
67	68	2
24	38	2
22	22	3
29	129	1
169	170	2
59	153	1
93	93	2
158	158	2
38	38	1
38	39	1
5	5	4
98	98	3
134	137	1
61	116	3
93	94	3
179	179	3
97	156	1
32	39	3
62	62	3
60	106	2
95	167	1
31	80	1
135	135	3
154	154	3
62	115	2
11	11	5
24	75	2
19	104	1
27	28	3
21	22	2
63	63	1
116	116	3
162	166	1
36	36	3
22	104	1
80	81	1
29	33	1
12	20	1
8	18	1
60	107	1
102	158	1
128	131	1
122	170	1
139	139	1
42	42	1
163	166	3
80	95	3
55	55	1
22	26	1
147	147	1
145	145	2
112	112	4
25	61	2
105	106	1
25	116	1
4	17	1
148	149	1
20	20	2
2	5	1
9	41	1
27	30	1
12	15	1
16	18	2
99	167	1
86	86	1
95	95	1
163	163	1
29	37	1
77	77	1
58	58	1
164	166	1
37	39	1
135	136	2
175	175	1
45	45	3
14	31	2
52	52	1
72	72	4
4	4	2
24	26	1
91	156	1
131	136	1
79	105	1
126	126	1
154	155	3
3	4	1
76	168	2
1	7	1
130	179	1
104	172	1
15	41	1
26	27	1
11	13	1
130	130	1
117	117	2
134	134	2
116	117	2
22	117	1
163	164	1
57	60	1
129	129	1
120	163	1
85	85	2
141	141	2
40	42	1
5	23	1
98	105	1
2	4	3
98	99	1
23	27	1
20	39	1
32	34	1
119	168	1
1	2	1
85	90	1
10	18	1
23	25	1
24	27	1
120	130	1
165	165	1
77	79	1
33	36	1
0	0	1
94	94	1
127	128	1
164	165	1
150	150	1
16	17	1
84	84	1
170	175	1
