10	13	15
26	27	9
27	27	30
162	170	1
41	42	12
137	142	2
79	79	9
151	151	20
78	78	6
113	113	4
115	115	13
38	38	37
92	92	11
39	39	36
171	171	8
6	6	41
14	14	37
172	180	2
13	13	14
56	56	19
24	32	5
61	61	11
23	26	2
19	21	4
103	136	8
18	18	23
109	111	2
34	34	26
94	94	13
0	0	30
110	110	8
129	129	14
23	23	28
26	26	29
112	114	3
108	108	9
43	43	14
155	157	2
0	53	2
135	135	10
106	106	9
27	28	10
141	149	5
24	24	22
170	171	1
20	20	16
25	25	31
103	104	6
124	124	9
122	122	13
129	130	4
54	54	13
9	154	4
21	24	2
25	26	12
62	62	8
169	169	6
139	140	4
175	175	15
41	41	19
130	130	20
168	168	14
98	154	1
22	22	11
5	32	2
44	44	14
128	128	14
156	168	1
19	19	20
24	27	8
172	172	18
3	3	22
113	115	2
7	10	2
6	15	5
2	3	17
28	30	6
160	161	4
30	91	3
31	31	25
8	19	4
85	105	4
15	15	23
142	142	17
40	40	23
93	93	13
90	91	1
86	132	2
4	4	12
138	138	14
80	80	10
17	17	23
57	57	15
32	32	25
120	120	1
90	165	3
58	58	11
73	73	6
11	12	15
30	30	13
154	154	5
33	33	32
17	36	12
137	137	6
95	141	4
37	37	24
65	67	2
16	39	1
4	5	5
131	131	10
42	43	11
17	40	5
66	66	5
39	40	6
8	11	2
100	115	1
101	101	17
6	13	5
35	35	21
101	151	1
96	96	4
167	173	1
90	92	4
91	91	9
107	150	1
121	121	4
127	152	1
2	6	2
117	117	12
75	85	4
32	33	27
141	141	20
8	12	9
13	34	4
88	89	2
102	102	7
71	71	14
87	87	18
174	174	8
111	111	7
24	25	8
12	12	17
110	112	6
87	99	2
42	42	20
84	85	10
8	9	22
28	29	18
83	83	6
153	153	5
135	143	5
15	31	3
3	46	4
119	119	8
134	137	3
7	11	3
15	16	6
179	179	19
1	5	3
35	162	2
28	31	6
14	16	5
166	166	13
8	8	30
1	4	1
97	147	5
11	13	12
2	2	30
74	74	12
139	139	22
37	38	4
94	95	11
51	51	9
72	145	2
147	152	2
104	104	5
160	162	2
123	123	14
55	56	5
59	86	5
16	17	15
5	5	12
4	6	2
95	95	24
98	100	3
129	136	3
166	167	1
107	107	8
167	169	5
136	136	15
27	30	4
9	9	25
83	100	3
3	45	9
26	30	6
97	97	4
158	167	4
14	22	1
13	14	9
150	150	9
35	36	6
62	63	3
29	29	20
32	36	4
126	126	13
37	52	1
22	23	9
18	19	11
132	132	4
28	28	18
170	170	7
18	42	2
114	114	7
49	49	11
160	160	12
3	53	2
43	44	13
79	80	10
24	26	7
118	121	6
128	136	2
157	157	9
78	117	2
9	10	5
4	20	1
17	44	3
126	133	1
39	45	3
99	153	4
145	145	6
30	31	11
112	112	7
2	17	2
156	157	4
10	10	11
144	144	3
23	24	7
6	14	1
161	161	5
118	118	5
63	67	3
144	145	2
31	32	11
56	57	7
70	70	3
179	180	9
89	89	11
118	126	2
15	19	2
8	10	3
164	164	8
108	109	3
140	140	5
3	8	4
55	55	21
12	13	19
5	15	2
168	179	3
37	55	1
5	7	3
99	100	8
103	103	6
14	35	3
173	174	6
3	40	2
96	144	1
80	82	3
127	127	4
78	79	6
159	160	7
161	162	4
77	77	3
53	53	11
20	21	6
20	38	7
133	134	5
153	173	1
17	18	3
103	105	4
109	109	12
8	44	6
14	41	4
53	54	3
16	16	13
60	68	7
105	106	7
149	149	26
98	98	6
90	90	14
127	130	3
172	176	1
19	20	16
5	22	6
11	11	9
3	4	12
95	96	10
64	120	3
173	173	6
67	67	8
121	122	1
127	129	2
101	176	1
70	141	4
33	42	1
152	153	6
40	41	9
107	111	1
10	11	6
34	101	4
6	21	2
146	167	2
93	95	3
35	168	7
155	156	3
1	13	1
125	125	11
154	168	2
163	163	14
122	123	2
108	125	2
24	44	3
10	12	3
65	65	17
10	35	3
154	176	3
3	7	3
14	32	10
68	68	12
20	37	1
150	151	6
147	147	7
64	64	7
25	42	2
59	59	3
38	43	5
110	111	4
17	31	2
177	179	2
60	67	2
81	82	5
15	44	4
12	35	1
83	85	2
156	156	5
121	136	1
12	42	1
99	99	5
45	45	9
159	159	22
4	41	1
178	178	8
102	112	3
162	163	4
115	121	1
16	38	1
4	45	2
7	9	4
97	154	5
146	146	5
21	21	4
113	153	4
167	167	16
118	120	3
5	6	20
50	50	6
100	100	2
23	27	2
14	15	6
152	152	7
56	72	4
13	16	1
133	133	7
36	41	4
97	151	2
35	160	2
10	44	2
8	15	4
25	27	2
74	75	2
11	31	3
176	176	15
165	165	10
8	18	2
23	32	1
158	159	3
158	158	5
36	36	25
153	160	1
1	2	6
9	12	2
90	107	4
75	110	2
76	76	8
160	165	3
82	82	6
139	167	3
0	6	3
81	81	6
86	97	4
41	44	7
0	1	4
153	156	4
5	9	3
59	96	2
27	43	3
75	76	2
44	45	5
76	77	2
12	20	1
77	79	2
142	147	4
143	146	2
148	148	9
122	145	2
0	38	3
96	97	1
55	164	1
63	63	8
7	7	12
14	26	2
90	108	4
9	33	2
6	23	5
93	94	3
1	14	1
112	150	2
15	33	4
101	102	5
39	41	5
1	1	5
52	52	6
6	7	10
148	151	2
106	107	3
85	111	6
18	36	1
23	39	1
126	132	3
29	30	2
57	58	2
146	147	3
120	121	2
23	33	1
113	151	5
33	34	3
8	13	2
155	155	6
33	35	1
19	40	3
28	36	3
164	165	5
157	158	2
122	127	1
134	134	12
98	114	1
86	107	2
143	144	5
11	44	2
16	21	1
2	4	5
22	41	4
20	31	3
21	22	7
71	72	2
10	16	3
128	129	1
132	133	4
21	31	1
73	108	1
35	146	1
86	90	2
9	16	3
72	72	16
169	171	4
35	58	4
57	101	1
104	105	8
2	54	1
34	77	1
154	157	2
159	162	2
162	162	6
172	173	2
10	14	5
146	164	3
15	17	1
111	115	4
44	46	1
58	73	2
124	125	1
5	43	1
152	155	1
88	88	4
3	5	2
100	152	2
80	81	2
43	54	2
59	140	1
21	43	2
76	79	1
88	90	3
3	33	1
119	120	3
17	20	1
116	117	1
147	151	1
15	20	2
89	163	3
36	55	1
103	122	1
98	152	3
139	147	1
7	16	1
1	180	2
88	111	1
118	119	2
0	5	1
4	43	1
51	52	3
106	122	1
146	162	3
85	85	6
147	148	4
39	55	2
97	102	2
1	36	2
169	170	4
17	39	2
60	109	1
172	179	1
19	22	2
54	78	1
58	100	2
36	37	6
42	44	2
159	175	5
162	164	1
5	41	2
143	143	10
177	178	2
127	128	4
86	86	2
134	135	1
38	39	7
29	43	1
17	45	1
75	107	4
9	11	3
29	31	2
1	17	2
105	138	2
150	173	2
16	42	3
62	114	4
61	66	1
83	86	2
131	132	2
88	99	1
84	89	4
10	177	2
86	89	4
157	170	1
103	106	5
12	14	1
5	23	3
31	89	1
72	73	3
154	155	3
28	34	1
114	121	1
106	138	1
12	46	1
31	33	2
96	149	1
163	164	2
7	8	1
72	108	1
10	45	1
113	150	2
21	23	5
27	57	1
5	40	1
89	164	2
165	167	1
105	107	2
38	42	2
53	55	1
106	131	1
153	154	4
148	172	2
20	22	2
33	45	2
127	148	3
63	65	2
26	28	5
4	9	3
50	52	1
6	16	2
66	67	4
76	83	1
25	30	1
29	57	2
3	24	2
148	173	1
84	111	2
62	113	1
117	119	1
147	166	1
126	127	1
180	180	1
76	80	2
92	93	2
107	108	1
81	110	2
73	75	1
107	109	1
24	38	1
16	19	1
75	75	5
91	92	3
131	133	1
18	21	1
162	165	2
12	30	3
82	103	1
98	99	2
10	17	2
116	116	4
165	168	1
93	102	2
38	41	1
7	12	1
160	174	1
6	10	2
2	7	1
1	6	1
95	100	1
18	41	1
80	171	1
114	120	3
72	100	1
154	156	1
95	99	1
51	53	1
105	143	1
25	29	1
104	125	1
35	39	1
3	22	1
175	176	4
136	137	1
89	107	1
75	131	1
2	24	1
72	89	2
80	103	1
122	128	2
157	163	1
90	167	1
145	146	1
24	43	2
120	136	2
32	55	1
17	21	1
61	63	1
29	32	2
35	151	2
36	164	2
119	128	1
120	128	1
10	33	2
23	43	2
168	169	1
100	101	1
114	126	1
14	30	3
123	124	1
26	57	1
11	35	1
67	68	1
2	46	1
1	3	2
60	60	2
42	45	1
22	36	1
125	130	1
18	37	1
31	168	1
152	156	1
105	105	1
4	44	1
120	125	1
80	100	1
57	100	2
141	142	4
6	54	1
6	17	1
135	142	1
23	29	1
57	127	2
14	45	1
28	95	1
0	19	1
16	18	1
29	101	1
167	168	2
49	50	1
5	10	1
94	149	1
16	22	2
142	145	1
17	38	1
11	45	1
153	168	1
171	173	1
62	67	1
39	52	1
64	65	1
71	140	1
29	35	1
50	51	1
