68	75	5
10	10	13
3	6	1
92	93	9
12	13	5
92	92	3
116	116	6
78	79	2
108	109	9
50	50	21
104	105	4
5	5	9
112	112	8
4	4	1
28	28	5
118	124	3
67	67	4
85	85	4
52	52	5
2	2	7
68	96	2
19	21	5
55	55	2
103	103	3
113	113	5
61	62	3
5	8	1
111	111	10
79	79	4
33	33	1
108	111	3
46	46	15
65	66	1
29	30	9
7	7	8
59	59	12
108	108	5
23	23	5
93	93	5
47	48	2
84	84	5
49	49	12
17	18	14
124	131	1
14	14	9
96	96	5
109	110	3
46	57	10
48	49	5
58	58	3
64	64	2
68	72	2
11	13	3
111	112	3
54	54	10
53	53	7
110	110	4
90	96	4
24	26	6
44	45	3
118	119	3
48	48	3
53	54	5
66	86	1
63	63	1
8	8	2
119	119	5
9	9	10
4	5	4
56	56	2
57	111	1
102	104	1
126	129	2
120	120	5
80	80	6
42	43	2
5	6	5
46	53	3
128	129	2
3	5	7
107	107	9
88	89	6
42	48	3
89	90	2
55	99	2
122	122	4
19	19	2
63	64	2
94	94	9
98	99	2
57	60	1
130	132	2
108	110	1
114	114	6
51	52	8
126	126	3
71	71	3
6	6	7
13	44	6
18	20	4
111	114	3
18	22	4
125	125	2
89	89	5
42	42	4
73	73	5
62	117	1
43	43	10
1	5	3
50	52	2
97	97	5
39	42	3
25	25	4
69	70	4
91	91	2
25	26	5
45	47	3
67	68	2
11	11	3
114	126	7
10	11	3
78	78	4
94	95	5
40	40	3
57	57	6
106	107	5
113	116	2
94	120	2
17	22	1
123	132	1
0	1	4
32	33	3
50	113	4
97	98	1
1	1	7
86	87	6
99	100	2
104	106	1
66	66	11
39	41	2
117	117	4
87	88	2
45	62	4
4	13	3
127	129	1
41	44	1
13	13	3
15	15	4
23	24	4
115	116	2
106	106	1
86	86	2
33	34	6
20	20	2
51	51	3
43	44	3
102	103	3
100	111	3
70	72	6
27	29	1
107	108	6
84	85	4
133	133	2
44	44	3
127	128	1
8	9	3
41	43	1
52	53	5
70	71	3
26	26	5
115	125	5
39	39	3
125	130	4
109	109	4
65	65	6
104	104	3
121	121	4
68	68	5
65	75	1
47	47	3
56	58	3
58	95	2
125	129	1
11	94	1
29	31	1
72	72	4
27	27	3
124	124	4
22	22	1
81	98	2
29	29	3
59	60	3
118	118	5
1	2	4
105	106	1
12	12	2
125	126	4
38	38	3
66	68	1
98	98	3
30	31	2
118	129	3
105	105	2
130	131	2
21	21	4
69	69	2
17	17	3
84	87	2
81	83	6
108	127	2
40	41	5
27	32	1
17	23	1
18	19	4
30	33	2
62	114	2
22	23	7
101	101	1
61	61	4
113	120	1
25	51	1
100	102	2
32	32	3
40	44	1
60	118	1
82	82	3
109	116	1
21	25	2
2	6	2
12	22	1
114	117	1
61	117	2
31	32	2
18	18	1
76	76	4
41	41	1
100	101	2
85	86	1
7	23	2
59	81	1
34	34	1
45	59	3
101	130	3
62	62	2
117	118	1
115	115	1
99	101	1
79	99	1
54	55	3
75	75	4
3	3	2
128	128	1
30	30	2
83	83	2
27	31	3
46	104	1
83	84	2
88	88	2
56	65	2
51	53	1
40	45	1
29	44	1
130	130	2
13	24	1
15	24	2
73	74	1
95	95	1
99	99	2
71	72	1
45	45	2
66	75	1
108	113	1
30	40	1
61	89	1
45	58	1
61	78	1
41	42	1
96	97	1
58	119	1
114	131	1
18	21	1
50	51	1
131	131	1
78	84	1
2	3	2
19	55	1
59	63	1
46	47	2
127	127	1
132	132	1
49	52	1
47	64	1
