5	149	2
114	114	4
12	12	24
165	166	12
141	141	17
28	28	31
22	28	4
124	125	7
80	80	10
25	25	13
158	158	16
36	36	50
10	12	2
32	59	4
2	2	27
58	141	2
7	7	25
143	143	9
56	56	14
150	151	6
25	26	13
144	144	6
103	103	11
19	19	19
108	108	12
55	55	24
17	17	20
172	172	17
27	27	29
42	42	24
38	38	33
5	5	39
175	175	2
18	18	18
20	20	14
2	7	4
103	119	1
8	8	27
115	162	3
40	82	1
11	11	58
26	26	15
73	73	22
16	16	36
22	22	25
29	29	27
21	21	27
155	163	1
0	0	13
30	30	18
117	118	5
20	21	10
151	152	6
41	41	34
3	18	1
8	9	20
31	32	8
140	140	19
138	139	2
35	36	14
163	165	1
43	45	10
37	37	27
39	39	20
110	110	13
139	139	22
45	45	17
76	76	22
154	155	12
167	167	8
78	78	11
14	14	24
24	24	22
9	23	1
71	71	10
120	120	16
54	54	11
37	38	2
77	78	5
31	33	4
96	96	18
107	107	13
124	124	5
176	176	24
11	13	16
62	66	2
145	145	18
32	32	41
86	86	10
40	80	4
28	29	14
22	23	17
42	43	1
7	8	15
23	23	18
146	146	11
15	16	4
79	79	17
31	35	3
138	138	17
180	180	7
149	149	15
83	85	5
105	105	11
43	44	9
168	169	15
89	89	17
29	30	9
27	35	4
153	153	13
178	179	2
128	130	9
59	104	4
16	18	3
21	64	2
66	66	10
72	72	24
32	90	2
171	172	6
10	41	4
135	135	15
17	36	5
60	61	6
131	131	10
136	136	10
3	3	25
35	35	24
26	27	7
46	46	2
121	122	3
153	167	1
108	109	5
111	113	2
142	143	9
154	154	15
153	154	9
150	179	2
13	20	4
4	4	28
151	151	13
112	125	2
58	150	2
30	31	11
43	43	39
91	91	8
113	113	12
10	11	2
26	29	3
117	117	19
56	57	8
147	147	18
132	132	16
128	129	9
144	162	2
21	23	9
33	36	4
28	31	2
10	10	22
95	95	10
171	171	11
80	81	5
84	84	9
13	13	18
134	134	24
15	15	25
137	137	21
44	44	41
165	165	8
12	18	1
62	63	12
132	133	7
77	171	1
4	8	5
52	176	2
73	106	2
113	114	7
148	148	7
59	59	13
179	179	27
4	6	2
59	60	3
10	89	3
68	68	12
33	35	2
37	40	2
119	120	3
158	169	2
41	42	11
6	81	2
6	6	22
64	64	10
40	40	19
173	173	29
70	77	3
106	123	2
62	62	5
156	157	6
14	179	2
159	159	24
128	128	7
95	96	11
142	142	13
16	23	7
146	151	1
100	113	3
178	178	14
0	1	13
8	10	2
168	168	13
51	51	8
85	87	1
11	12	10
77	79	3
57	57	11
177	177	10
12	20	1
128	135	3
104	108	2
160	160	25
143	144	3
98	98	5
90	129	2
121	121	3
77	77	11
4	13	6
104	107	9
159	176	3
134	150	4
40	42	6
97	110	4
27	28	12
65	65	4
58	59	4
25	43	1
12	14	3
130	165	1
6	180	1
127	161	4
78	79	4
170	171	3
174	174	13
39	63	3
2	4	11
67	67	24
36	37	5
159	160	3
89	91	2
143	145	8
26	105	7
57	141	3
2	3	15
64	150	1
33	33	23
127	137	4
81	81	22
58	58	15
18	19	8
72	85	4
74	76	1
75	75	19
12	36	3
172	173	2
23	25	9
150	150	20
129	130	3
67	68	2
12	13	16
102	103	3
54	79	2
98	99	1
59	61	1
129	135	6
125	126	4
104	104	5
80	132	2
120	146	3
17	43	3
21	39	5
7	81	8
111	115	5
122	122	9
102	102	6
9	9	16
162	163	3
61	72	4
130	136	6
136	158	2
133	133	10
71	72	5
164	165	5
119	119	4
63	63	4
64	65	12
1	18	2
160	162	3
105	123	1
103	104	4
100	101	4
2	5	6
162	162	11
73	74	9
130	130	8
170	170	12
120	145	1
100	135	3
88	88	9
50	50	5
91	97	4
111	141	6
145	146	4
6	9	3
14	27	2
160	169	1
163	167	1
112	112	9
32	33	10
39	40	11
90	90	22
15	19	2
100	100	6
126	146	1
5	6	8
84	85	7
72	78	4
93	93	10
37	41	2
31	31	22
5	8	4
164	164	5
94	117	3
39	43	1
85	85	13
90	92	2
118	118	16
94	139	6
74	86	3
142	144	1
16	17	7
52	53	2
130	131	2
135	136	4
3	11	1
94	95	4
16	22	3
60	74	3
53	53	3
169	169	22
18	20	6
125	125	12
112	115	3
126	126	20
116	118	1
39	163	2
91	92	3
19	20	10
5	45	1
72	176	3
151	156	3
87	87	11
129	162	1
29	32	6
94	94	15
8	15	1
163	164	6
159	161	6
9	152	1
158	159	8
115	116	3
129	129	5
136	137	4
102	114	2
31	51	2
131	132	4
24	141	2
102	106	1
10	15	2
61	174	2
97	147	1
60	60	15
24	68	1
17	109	2
42	44	3
148	159	5
156	156	14
92	92	7
113	144	1
22	30	3
114	170	2
6	35	2
108	120	1
97	98	2
32	36	2
19	22	4
39	169	1
24	26	7
29	44	1
122	132	3
71	133	1
127	127	11
24	57	3
166	166	4
10	14	3
144	147	8
38	39	7
110	111	2
70	71	3
2	18	1
52	52	6
2	14	3
45	46	2
144	145	4
93	111	3
90	94	1
8	11	4
163	163	3
109	115	9
111	112	6
64	90	3
36	88	1
16	37	1
97	97	7
74	74	8
5	10	1
4	18	2
125	137	5
30	37	3
26	28	2
28	34	1
34	34	10
25	37	4
7	12	1
109	109	8
153	155	4
61	61	7
40	41	5
21	40	4
165	169	2
74	75	8
71	95	1
40	71	5
94	163	5
123	124	4
64	78	1
33	34	1
92	93	2
28	50	2
19	21	5
53	54	5
15	17	3
28	30	2
82	82	5
14	23	1
6	32	4
90	91	2
23	30	1
1	13	1
6	82	1
131	142	1
111	111	7
134	135	3
8	33	5
9	10	6
22	35	2
95	105	3
66	67	2
35	41	2
94	138	1
11	14	7
116	117	4
109	111	3
115	115	6
39	80	5
55	58	5
68	72	1
133	179	2
22	65	4
13	14	2
63	64	1
170	174	4
129	137	2
102	126	2
147	159	1
64	98	1
35	42	1
105	106	4
133	171	2
99	99	3
144	174	2
24	25	7
75	76	2
6	33	1
34	42	1
75	86	2
127	130	1
152	152	8
10	13	3
41	43	1
127	146	2
7	10	1
165	167	4
34	35	1
131	148	2
15	22	3
123	123	5
1	1	9
99	106	1
23	65	1
33	42	4
11	80	1
71	92	2
65	70	4
57	59	1
167	175	2
6	43	1
133	134	5
96	97	5
112	138	2
134	147	3
141	152	2
11	16	3
38	164	1
148	149	4
18	21	1
14	15	6
106	106	4
4	5	10
138	145	4
116	116	6
11	18	1
76	91	2
40	150	3
31	50	2
44	45	2
3	4	13
76	177	2
38	43	3
55	105	2
161	162	7
23	24	3
1	16	2
3	6	1
117	178	4
105	109	1
3	45	8
104	165	1
49	49	1
151	154	1
55	57	1
96	112	1
154	173	1
157	158	2
135	158	2
12	45	3
143	157	1
76	90	1
101	101	6
2	8	2
58	60	1
17	128	2
27	37	2
72	90	4
62	65	1
1	2	6
30	35	3
166	173	3
59	172	3
91	93	3
166	167	4
114	115	1
38	44	1
14	16	1
21	33	1
62	74	3
50	51	3
67	73	3
25	57	1
107	114	2
107	109	3
31	43	2
161	161	6
79	80	4
37	39	1
96	98	3
94	96	1
14	20	1
30	50	2
38	52	1
110	117	1
2	6	1
9	11	2
153	168	2
63	66	2
14	18	2
97	114	2
112	113	3
81	82	5
113	143	2
17	26	2
169	172	4
38	42	1
41	84	1
33	160	3
157	157	8
152	153	4
5	33	2
1	14	2
21	28	1
80	133	1
76	133	2
98	113	2
101	115	2
126	145	3
24	32	1
1	9	2
147	148	1
171	173	3
153	164	1
112	126	2
1	17	1
99	100	5
52	54	2
59	143	1
13	15	2
70	70	4
36	94	3
91	133	1
121	124	2
5	32	2
21	22	1
63	87	2
127	156	2
86	87	2
43	65	1
2	41	1
141	178	2
90	105	4
7	9	2
24	31	2
12	22	2
139	148	1
17	18	2
61	64	1
161	180	3
111	118	1
118	124	1
57	103	2
18	26	2
150	161	2
140	141	1
5	7	1
75	78	1
141	144	1
39	42	1
24	77	2
63	65	1
4	30	1
30	33	1
13	45	2
55	124	1
30	41	2
126	134	1
2	15	1
60	131	1
98	129	1
131	164	1
17	21	1
154	157	1
126	141	3
31	157	1
32	34	1
55	56	1
34	41	1
20	41	1
10	18	3
25	29	1
27	29	2
2	12	3
143	155	1
20	42	1
156	160	1
146	147	3
39	54	2
36	39	1
43	91	1
24	33	2
3	10	1
78	85	1
118	120	1
13	19	1
104	119	2
55	146	1
91	112	2
146	150	2
145	148	2
149	159	1
104	106	1
20	23	1
117	145	2
1	3	2
154	159	1
31	34	1
5	29	1
3	5	1
21	43	1
92	94	1
9	14	1
169	170	2
73	148	2
82	145	1
25	58	1
56	105	1
10	33	1
155	155	1
128	142	1
122	125	3
140	150	1
132	141	1
61	62	2
155	156	2
27	50	1
36	106	1
112	142	1
24	28	1
136	140	1
60	139	1
33	45	1
22	24	1
104	120	1
28	32	1
22	107	1
11	120	1
2	42	1
29	39	1
17	42	1
110	115	1
53	176	1
23	41	1
127	170	1
22	42	1
132	149	1
135	141	1
44	46	1
54	55	1
111	116	1
