8	8	5
11	32	1
89	89	6
88	88	4
68	68	8
86	96	4
19	20	7
130	130	8
104	104	8
60	60	5
29	29	18
114	114	13
72	72	8
82	87	2
99	134	1
127	129	4
102	103	2
16	16	3
80	80	7
65	66	2
69	70	9
44	44	11
109	122	1
52	52	11
124	125	4
98	119	2
61	62	3
65	65	4
101	101	7
74	74	13
95	95	16
30	30	6
84	106	2
70	70	13
53	53	11
107	117	4
106	110	4
131	131	7
25	25	7
69	83	3
82	83	5
113	113	9
43	45	3
59	68	1
69	69	12
55	55	6
79	92	4
52	53	1
107	107	9
56	69	1
28	28	5
111	117	2
60	64	3
90	90	7
67	67	13
21	21	11
120	120	9
108	108	8
128	128	11
36	36	4
38	38	6
108	110	3
56	56	5
121	121	6
28	29	5
69	72	5
54	54	9
45	45	7
93	93	6
62	62	13
79	79	6
22	22	9
118	118	15
2	2	6
57	57	5
10	58	4
35	36	8
88	89	2
57	58	4
68	82	2
78	78	4
109	109	6
56	61	14
106	107	1
19	19	2
110	110	4
11	11	3
99	99	13
98	116	4
64	66	1
63	63	11
2	3	2
97	110	3
55	77	1
94	94	6
4	4	6
49	49	5
132	132	6
129	129	8
24	43	4
66	66	6
52	56	2
71	71	7
116	116	7
82	82	4
34	34	9
62	64	1
92	92	4
6	6	11
64	68	3
18	18	2
117	117	6
103	103	4
50	57	1
49	50	3
97	97	10
46	51	1
126	127	1
61	61	5
127	127	4
119	120	1
89	112	2
81	96	1
117	118	4
58	58	14
119	119	4
85	88	3
54	55	1
123	129	2
128	129	2
32	32	1
133	133	3
112	112	10
86	86	2
129	130	5
96	97	2
38	43	1
81	87	2
56	57	5
73	73	4
63	64	2
87	87	4
105	105	11
67	68	6
88	95	1
126	126	16
81	131	3
77	77	9
42	42	1
24	26	1
91	97	3
64	65	4
43	53	2
5	5	2
37	37	2
102	102	3
89	125	3
76	76	9
112	114	4
64	64	3
123	123	5
46	46	1
86	87	2
78	81	1
35	35	4
124	124	8
3	3	3
116	120	1
59	59	8
108	122	3
68	77	2
106	106	3
3	4	2
82	99	2
101	103	1
81	81	4
9	15	4
8	13	3
55	56	3
79	109	1
91	91	5
1	1	2
33	33	5
83	83	12
97	102	3
10	10	3
134	134	9
78	83	3
78	79	2
62	63	1
131	132	5
107	133	2
37	58	1
45	48	3
8	12	6
96	101	1
110	120	2
59	61	1
53	56	1
83	85	3
108	109	4
86	106	2
0	0	1
57	68	4
18	20	3
31	77	1
54	57	5
91	92	6
14	14	3
55	57	3
28	33	2
10	16	1
79	106	1
70	71	2
24	24	6
50	50	1
106	116	2
45	60	5
107	116	3
72	78	1
118	119	6
58	59	1
96	129	1
5	6	2
12	12	2
32	33	3
52	54	2
43	43	3
98	98	1
27	27	4
79	131	1
20	20	2
125	126	1
97	124	2
71	127	1
56	62	1
47	47	2
31	31	4
66	109	1
111	111	4
21	22	6
115	116	3
43	46	2
84	85	6
68	78	1
109	110	1
26	36	1
9	10	1
33	34	2
84	108	1
85	134	3
23	44	1
98	124	1
69	109	1
47	50	1
125	125	3
133	134	3
60	61	1
69	103	2
9	9	1
69	132	1
68	108	1
88	127	1
66	84	2
84	84	7
93	94	1
79	91	1
31	34	2
107	108	1
113	114	2
70	73	1
88	123	1
97	98	2
16	17	1
15	16	3
91	95	2
81	101	2
120	131	1
116	117	2
86	120	1
66	69	1
14	37	4
85	85	3
75	75	4
69	78	1
96	96	4
17	127	1
125	130	2
133	135	1
19	21	1
13	13	4
67	78	1
100	100	1
11	17	2
115	115	2
106	133	1
102	104	1
52	77	2
26	26	1
4	5	2
43	44	2
97	123	1
104	105	1
22	38	2
83	84	1
123	130	2
45	46	1
97	101	1
84	107	1
105	115	1
117	119	1
80	129	1
121	122	1
81	82	1
45	54	1
27	30	1
68	69	2
53	55	1
98	126	1
127	130	1
42	56	1
25	36	1
66	68	1
110	114	1
34	35	1
55	76	1
6	7	1
107	118	1
78	84	1
59	60	1
85	86	1
116	123	1
