26	26	3
27	27	4
0	66	1
55	55	5
46	47	2
87	87	7
141	141	6
43	109	1
137	155	2
86	87	15
119	120	6
1	2	17
11	52	1
82	90	1
129	129	3
91	156	5
42	42	8
114	114	2
97	98	1
74	75	11
147	148	7
26	151	3
104	104	6
10	10	4
58	106	1
54	54	1
146	146	8
143	168	2
6	14	1
139	139	9
44	46	2
137	146	2
138	145	1
140	140	5
12	12	6
71	71	8
56	90	2
65	65	2
35	35	5
16	45	1
92	93	2
50	50	13
21	24	4
101	101	6
99	99	6
88	89	5
39	55	4
108	169	1
24	24	8
100	101	2
20	20	18
105	107	2
148	162	5
141	143	2
5	74	2
2	2	9
168	168	3
105	105	8
56	56	8
6	6	1
14	14	2
13	13	8
18	57	5
22	23	2
111	111	9
100	132	3
36	36	7
103	103	7
17	19	5
153	153	4
103	105	2
11	28	3
70	72	1
53	54	1
19	19	14
76	78	1
119	119	8
92	94	2
94	159	3
86	86	8
97	97	8
11	13	4
17	17	6
49	49	4
39	39	2
58	67	1
77	127	3
110	110	6
151	151	5
101	102	7
105	106	1
109	109	3
81	81	9
103	104	5
125	125	2
109	110	2
159	159	4
83	84	4
21	23	3
53	56	1
149	149	1
122	166	1
14	15	2
11	11	7
102	102	8
88	98	2
115	115	6
164	165	5
100	104	2
39	40	3
135	136	4
5	5	12
75	75	7
1	74	5
7	7	12
11	47	1
63	90	3
113	114	3
126	127	7
79	80	2
97	99	2
163	163	4
134	134	7
90	90	1
81	86	1
91	91	1
108	112	5
128	128	7
5	6	3
57	57	4
91	161	1
37	37	3
132	132	9
44	44	4
13	52	3
115	118	2
9	9	4
93	93	7
94	95	1
67	68	1
154	154	6
116	116	3
22	22	5
69	69	6
106	106	5
110	143	6
34	35	5
50	51	3
38	38	4
147	156	5
18	18	5
127	127	7
104	105	3
102	103	1
170	170	1
55	56	3
72	86	1
13	16	1
99	105	1
46	86	2
153	154	1
24	28	4
91	104	1
42	43	6
15	46	1
66	66	1
48	48	4
139	145	4
66	67	6
126	126	5
11	33	2
162	162	12
69	72	4
120	120	1
7	24	2
142	144	2
93	95	4
114	120	3
113	113	4
62	63	4
147	147	3
100	166	2
80	80	1
106	136	2
119	121	5
23	24	1
8	8	1
47	47	4
74	74	4
95	95	2
10	49	2
36	37	1
88	107	4
134	139	1
4	10	2
64	104	2
120	155	2
84	85	2
88	88	5
137	138	1
53	55	2
51	51	1
4	54	1
157	157	2
144	144	4
10	13	1
91	93	2
45	56	2
169	169	4
108	109	1
10	11	4
161	161	9
24	75	1
83	83	6
2	52	1
53	53	2
21	40	1
15	17	3
148	148	9
72	72	2
47	50	1
118	164	3
130	130	1
100	100	1
109	112	4
34	40	3
110	167	1
109	132	2
7	10	4
9	15	1
25	40	1
64	65	1
83	105	2
77	78	3
132	133	4
45	55	4
73	86	1
81	83	3
16	16	1
70	91	3
107	108	5
79	79	4
96	96	6
84	84	5
41	138	1
76	90	2
142	142	1
166	166	3
108	108	3
157	158	3
124	124	1
82	83	1
101	103	3
5	15	2
56	57	1
4	5	4
11	53	4
138	139	1
109	120	2
40	40	6
14	54	1
45	45	2
112	134	2
139	140	1
114	115	1
6	7	6
73	73	1
8	9	3
48	49	5
62	62	2
140	141	3
18	19	3
92	113	1
169	170	2
145	168	1
111	145	1
77	77	1
89	89	4
15	38	2
81	82	1
94	109	1
0	6	3
138	138	2
114	162	3
1	1	6
71	77	2
58	58	1
121	121	2
37	38	3
107	107	2
39	51	1
28	28	2
92	92	5
123	123	1
95	147	2
123	124	1
3	86	3
154	161	2
162	169	4
63	63	1
41	41	4
152	152	1
148	150	1
51	52	2
15	15	1
40	52	1
0	1	1
162	163	3
63	84	2
118	132	1
168	169	4
105	136	1
11	25	2
17	44	1
128	129	2
107	159	1
146	154	2
146	157	2
94	104	2
67	73	1
95	97	2
68	69	4
55	82	1
154	164	1
95	130	2
57	148	2
40	55	1
130	131	2
165	169	1
19	38	2
104	150	2
84	86	2
72	79	1
17	20	4
70	71	1
58	97	1
36	56	1
115	119	3
25	25	2
106	107	1
72	78	1
65	66	1
143	143	1
87	90	2
63	69	3
122	152	1
52	53	1
52	56	1
57	92	2
7	35	1
49	50	2
127	165	1
17	18	1
151	152	1
52	52	1
79	155	1
66	81	1
64	73	2
90	98	1
155	155	3
83	153	1
162	165	1
78	91	2
68	68	4
64	111	2
164	164	1
122	122	1
85	105	1
10	12	1
90	123	1
87	88	1
113	148	1
38	39	1
123	148	1
99	118	1
19	20	1
155	156	1
131	132	1
108	159	1
138	142	2
92	110	2
35	36	1
116	122	1
77	79	1
139	143	1
21	22	1
17	21	1
7	54	1
163	164	2
72	76	1
76	77	1
146	164	1
112	112	1
33	33	1
131	131	1
57	58	1
1	10	1
