87	87	13
33	33	14
26	26	18
90	92	3
12	12	13
94	94	17
25	25	16
128	131	1
24	63	2
102	103	5
116	116	5
56	56	11
37	39	2
42	43	2
125	126	5
38	38	19
63	64	8
26	72	6
3	3	10
129	133	2
62	62	15
107	108	1
26	27	4
64	73	1
50	50	5
40	40	9
122	122	12
90	95	8
131	131	7
28	28	10
119	121	2
57	59	2
61	61	25
10	14	6
104	104	10
79	79	31
74	74	13
102	102	12
95	95	14
64	76	4
71	71	17
134	134	19
3	4	5
16	16	15
35	35	25
90	90	15
10	11	7
21	21	22
11	21	5
34	34	4
113	113	16
103	103	12
13	13	17
67	67	8
107	107	15
69	69	23
11	39	4
20	21	5
39	39	18
46	62	2
30	30	13
0	0	16
31	43	4
66	66	17
84	84	15
44	45	2
11	100	1
24	83	1
78	119	4
42	86	1
88	88	6
21	25	2
23	23	13
46	46	19
25	47	1
112	112	3
41	41	15
79	80	6
23	74	1
46	60	3
44	60	2
20	56	5
73	73	16
20	30	2
86	86	23
126	128	2
45	60	6
123	123	18
11	11	24
47	48	1
32	32	21
34	73	2
27	27	25
10	74	2
68	70	7
26	47	3
60	131	3
89	96	2
101	115	6
113	114	3
21	59	1
20	22	1
47	47	40
103	104	9
106	130	2
29	29	23
48	89	3
120	121	11
37	40	2
71	72	4
18	18	9
34	36	6
20	20	19
65	65	15
130	130	10
68	69	14
37	37	8
91	91	7
69	70	4
77	77	11
121	121	7
82	82	12
5	25	1
6	6	19
44	44	5
72	72	30
112	123	6
115	116	2
21	81	3
1	1	4
83	83	19
12	15	2
31	31	11
92	92	13
93	94	12
47	60	5
126	126	10
111	122	1
9	9	9
20	57	2
59	59	15
124	124	11
92	116	5
23	24	2
10	10	21
78	78	30
45	45	13
78	79	4
64	64	13
8	8	11
99	100	5
129	129	18
57	57	11
73	74	10
38	39	8
18	31	2
36	36	22
128	133	2
35	77	3
118	118	10
117	117	3
76	76	9
78	82	4
127	127	10
39	40	6
132	133	4
66	73	1
83	96	5
7	7	10
7	68	3
110	110	5
27	95	2
6	18	4
64	65	3
72	73	5
101	108	3
6	7	6
112	114	3
75	75	19
97	99	3
61	69	2
120	120	11
28	80	4
61	62	2
88	90	4
109	109	5
26	71	4
123	125	1
95	96	3
21	22	8
90	94	1
115	115	15
96	97	5
10	27	3
89	93	5
22	22	6
4	5	18
11	19	7
11	20	4
62	124	2
21	30	2
68	68	12
7	71	1
115	130	1
59	60	6
116	131	4
15	15	10
112	113	4
12	18	3
60	75	4
13	15	4
19	19	10
103	108	4
35	74	3
22	29	2
83	94	1
14	14	6
131	132	9
74	75	1
70	70	18
130	131	5
85	85	20
91	97	6
26	49	2
55	56	3
4	9	1
62	82	2
91	96	2
18	35	1
4	29	3
90	102	1
80	80	12
133	133	7
4	93	2
17	19	2
102	109	1
17	70	2
113	124	3
56	91	2
23	25	4
27	28	10
106	132	3
101	101	14
16	17	1
3	22	4
45	70	7
93	96	4
63	79	6
114	115	7
22	49	3
60	60	5
111	111	7
7	29	4
19	30	2
32	92	2
63	63	17
10	94	2
100	100	14
89	90	1
116	130	4
96	96	5
27	92	2
31	36	1
72	93	2
63	105	1
23	69	3
58	58	6
78	124	1
93	95	10
35	36	7
15	16	9
90	97	3
1	2	2
31	48	1
44	74	1
13	14	2
70	71	4
51	51	3
32	40	1
11	33	2
88	89	2
3	46	4
98	99	6
68	75	1
24	24	9
106	109	1
21	84	4
2	6	5
5	19	3
82	83	2
111	112	3
7	89	3
126	132	1
106	106	7
81	91	5
78	125	5
129	130	2
11	93	6
27	62	1
87	98	3
10	28	3
114	117	2
61	68	1
121	129	3
37	38	2
90	93	1
81	81	5
120	122	6
75	127	2
77	82	5
101	125	1
37	81	4
101	102	3
70	79	2
25	49	1
93	93	23
51	133	2
11	16	4
8	32	1
119	120	2
78	91	6
7	26	8
96	98	1
100	113	1
75	83	3
69	71	2
37	72	2
83	85	2
11	91	2
58	60	4
2	2	7
99	99	7
61	115	1
17	18	1
73	80	1
18	19	4
5	5	5
77	90	5
64	72	4
5	6	2
119	119	3
21	23	3
44	82	3
15	17	1
32	49	2
91	92	3
65	68	2
4	21	2
37	43	2
33	62	4
33	76	5
45	72	3
11	15	4
48	48	4
105	105	4
61	63	2
28	29	2
34	35	5
9	27	2
11	12	7
109	110	1
2	22	2
14	95	5
30	39	1
86	95	4
87	99	1
26	48	1
12	60	7
114	116	2
57	58	3
4	83	1
4	30	4
101	124	3
27	96	1
97	97	7
103	105	2
113	123	4
72	75	2
5	29	3
30	31	4
29	47	2
30	32	3
62	78	1
110	130	3
95	101	1
56	58	3
62	68	2
61	116	2
108	108	8
85	86	3
64	85	2
46	47	4
113	117	1
14	97	3
8	11	1
83	87	3
43	44	2
4	4	9
20	85	2
110	111	3
42	42	3
108	109	4
10	23	1
7	22	2
45	89	1
70	83	1
85	102	1
124	125	2
45	64	1
27	78	1
79	81	2
119	123	2
56	131	1
116	128	4
78	81	1
35	75	2
79	92	2
101	114	4
128	134	7
123	124	3
87	88	3
8	38	1
77	78	1
45	71	3
14	24	2
43	43	9
17	35	1
90	91	2
37	59	2
98	98	8
9	10	2
17	17	4
22	23	3
94	97	4
127	132	6
11	92	2
4	18	1
34	77	1
49	49	2
11	99	5
76	113	2
40	41	1
63	77	1
3	98	1
104	105	5
15	25	2
93	118	2
66	67	2
70	81	2
55	55	5
48	49	2
10	95	2
77	111	1
46	73	1
24	25	2
65	66	2
101	103	1
26	29	2
132	132	8
125	125	2
64	71	3
84	96	1
4	11	1
13	94	2
23	26	2
5	14	1
83	88	3
1	21	1
20	36	2
83	84	1
96	116	2
49	56	1
67	68	3
32	39	1
14	18	3
11	85	2
75	119	2
92	118	2
87	97	1
44	62	1
48	58	2
100	101	1
34	74	1
4	20	1
3	27	3
4	10	2
14	16	2
86	88	1
102	112	1
29	31	1
88	103	1
63	69	1
29	49	3
5	95	2
106	107	1
5	27	2
4	27	1
80	82	1
58	82	1
10	33	1
58	59	2
49	97	1
49	50	2
104	113	3
39	43	2
96	99	1
55	81	1
3	48	1
128	129	1
14	17	1
114	114	2
73	76	1
6	11	1
21	97	1
37	83	1
42	44	1
25	26	1
40	91	1
49	59	1
89	97	1
127	133	1
8	30	1
49	74	1
76	102	2
5	7	1
8	82	2
6	8	1
10	58	1
107	113	1
122	124	1
11	13	1
46	61	1
13	98	1
106	129	1
33	34	1
82	125	1
77	79	1
18	61	1
87	109	1
94	95	1
60	126	1
92	93	1
5	22	2
29	41	1
62	63	1
27	63	1
