90	90	8
66	69	2
105	106	1
11	11	1
54	63	1
109	110	5
62	62	3
19	19	5
125	125	5
22	23	1
76	78	6
115	115	5
111	116	3
108	122	3
29	29	5
49	49	2
105	105	5
50	50	6
6	6	3
61	67	2
48	49	5
78	79	9
69	69	3
109	111	2
91	91	2
98	98	8
26	27	3
117	117	4
64	64	2
60	64	2
113	115	4
0	0	6
112	112	4
69	70	4
102	110	2
131	131	4
49	50	1
35	35	9
94	94	1
25	25	4
5	5	3
0	1	1
2	2	5
9	56	1
100	100	5
12	12	5
75	75	11
48	52	2
66	87	4
95	95	6
73	73	12
124	124	4
34	34	6
105	115	3
56	59	2
70	70	8
14	14	7
4	127	2
55	55	3
119	120	5
79	83	2
58	117	1
2	3	5
90	91	1
55	62	3
27	27	3
64	67	4
93	93	7
78	78	3
89	89	4
106	106	5
107	129	12
74	74	2
53	53	3
114	114	5
76	77	3
60	61	4
73	74	4
24	25	6
80	80	1
119	119	6
13	45	3
50	51	1
66	84	1
79	80	1
79	106	2
108	108	2
44	44	8
38	38	4
98	99	2
71	71	6
120	120	4
66	85	2
103	103	3
71	121	4
44	62	3
66	67	3
83	83	2
79	115	2
68	69	2
90	103	3
126	127	5
98	107	3
50	83	3
16	17	5
113	113	12
68	68	7
90	105	2
116	126	3
134	134	8
54	54	3
61	61	7
87	87	6
47	47	2
20	23	2
63	65	2
52	52	5
129	131	1
44	97	1
44	132	1
107	108	4
15	15	4
26	26	6
100	101	5
133	133	6
45	50	1
55	57	2
44	49	2
118	128	2
58	58	4
32	32	3
128	128	5
78	105	1
51	51	3
78	106	2
82	107	2
65	83	1
10	10	2
122	122	5
54	96	2
66	70	1
72	72	3
83	84	3
67	100	1
15	16	2
65	65	3
57	58	3
83	85	1
85	85	3
45	45	3
57	72	1
76	76	6
13	13	6
95	96	2
66	92	1
86	87	2
69	80	2
7	25	2
97	97	2
104	104	6
55	56	4
6	20	3
55	96	1
78	104	2
43	45	4
33	33	2
132	133	1
79	81	4
124	125	1
78	120	1
122	123	1
10	37	2
71	72	2
9	13	3
22	22	2
131	132	2
91	92	2
54	91	1
101	101	3
4	4	2
63	63	2
80	81	1
60	121	2
98	111	1
72	135	1
59	90	1
132	132	1
123	123	8
96	97	1
17	17	1
70	95	2
45	84	2
106	107	2
77	77	5
49	54	1
67	83	2
27	33	3
24	24	1
127	127	3
18	18	1
77	88	1
84	86	1
53	54	1
5	21	1
0	27	1
77	84	1
49	52	1
92	92	1
118	129	1
97	98	1
72	103	3
36	37	1
23	23	1
99	99	1
21	21	1
59	59	2
82	82	4
83	109	1
61	87	2
3	3	2
18	36	1
1	54	2
58	100	2
5	29	1
60	62	1
84	85	1
109	109	3
84	95	2
85	87	1
19	20	3
121	121	1
81	81	1
102	103	2
89	90	3
58	67	1
1	1	2
50	52	1
56	56	2
103	104	1
86	86	1
63	97	1
0	2	1
82	87	1
88	88	2
4	32	1
102	102	2
118	118	1
92	120	1
43	43	1
90	106	1
97	105	1
135	135	1
3	4	1
107	111	1
67	67	1
33	34	1
77	78	1
107	107	1
63	64	1
62	65	2
61	62	1
28	31	1
84	90	1
79	79	1
60	60	1
130	130	1
77	96	1
