44	110	8
88	88	21
65	87	2
112	112	13
106	112	3
109	111	2
127	128	17
114	114	14
125	125	17
121	121	9
92	92	21
83	83	14
75	75	23
48	85	5
101	102	3
7	7	14
95	96	11
104	128	2
123	123	26
68	112	3
99	101	2
83	110	5
3	4	10
74	74	19
65	65	21
111	111	31
69	69	22
45	45	13
70	70	22
20	52	1
0	0	6
77	77	11
5	5	14
11	12	3
93	93	26
122	135	3
60	60	10
14	14	14
130	131	6
50	50	16
34	34	5
25	27	1
33	33	14
96	96	14
133	135	4
129	129	21
116	116	8
105	105	27
117	117	9
117	120	1
130	130	11
66	67	4
118	118	11
30	34	2
102	102	14
33	36	1
22	22	7
25	25	9
32	32	9
72	78	4
100	101	6
30	30	18
61	61	12
116	118	4
97	97	16
63	64	4
93	95	5
54	54	27
55	55	5
6	6	16
106	106	6
123	125	3
130	132	1
113	132	3
16	16	7
78	78	30
2	4	6
92	95	5
49	49	14
53	54	7
52	52	29
114	128	4
85	85	9
76	76	27
104	104	19
35	37	4
121	122	9
22	24	6
17	17	8
62	62	9
70	82	3
21	22	11
48	82	2
46	46	2
133	133	10
104	105	11
77	112	2
92	94	3
100	114	1
71	71	10
47	47	10
88	89	2
8	9	2
119	119	13
82	83	10
112	121	2
7	13	4
32	54	4
11	11	10
24	25	5
93	103	4
26	27	3
69	70	9
28	28	8
21	82	2
73	74	7
101	113	4
3	3	18
4	4	6
92	93	5
67	67	5
8	8	5
20	20	7
131	131	10
31	32	4
123	124	2
126	128	7
135	135	5
101	101	4
72	73	11
36	36	11
132	133	3
91	91	9
114	115	6
33	34	4
72	80	3
79	79	15
122	122	21
112	113	7
88	97	1
90	90	11
68	69	3
95	95	6
62	64	7
105	106	5
113	113	6
68	68	24
122	123	5
124	124	11
115	116	5
97	98	10
26	26	12
109	109	3
15	16	5
107	108	7
115	115	21
13	13	16
52	59	2
7	9	7
134	134	10
13	25	2
51	85	7
98	98	12
127	127	6
86	87	5
120	120	12
20	22	7
103	103	16
88	90	1
1	1	10
112	130	5
78	79	10
1	77	2
81	81	2
53	53	15
58	59	2
71	72	4
29	29	9
80	80	14
88	94	2
66	107	5
10	10	2
72	72	20
91	92	6
12	12	7
64	65	9
86	86	8
91	101	2
83	84	4
2	2	5
87	100	1
9	9	5
89	90	9
99	99	22
22	23	7
66	66	4
5	80	6
13	15	4
87	101	3
108	111	4
94	94	11
89	89	7
56	57	4
5	6	3
7	11	4
100	100	6
27	28	5
21	21	10
76	113	1
35	89	2
43	65	3
66	68	1
32	34	6
67	109	3
120	121	4
67	68	12
66	109	2
35	35	7
96	97	6
108	108	3
73	73	12
125	129	1
87	87	10
18	18	5
46	48	2
96	106	7
106	133	5
63	63	2
77	108	1
29	51	1
126	127	8
78	102	2
59	59	17
70	81	1
17	18	1
125	127	2
79	80	4
126	126	13
14	15	3
57	57	2
78	80	3
120	128	1
49	50	4
52	53	4
2	3	3
28	29	1
110	110	4
60	65	2
96	113	2
74	103	3
7	8	6
58	58	3
23	70	3
58	60	1
125	130	4
30	32	2
93	104	1
76	89	1
121	123	4
38	38	1
84	84	2
45	47	2
44	44	4
43	47	2
65	108	1
6	7	5
0	3	3
94	95	3
35	36	3
117	119	2
24	24	4
98	114	3
97	99	1
87	88	1
79	107	3
106	109	6
105	112	1
105	126	3
15	18	2
124	125	2
132	134	4
85	101	2
19	21	9
34	35	5
116	120	2
80	81	1
106	130	2
114	127	3
82	82	1
19	20	2
107	107	4
99	113	1
132	132	3
103	127	1
66	82	1
83	85	4
106	113	3
87	96	2
133	134	2
119	126	2
43	45	1
16	17	4
103	129	4
6	8	1
31	31	14
15	24	1
109	110	1
117	118	5
67	108	3
56	56	10
23	24	3
114	121	2
60	63	1
62	90	4
84	87	2
36	37	2
48	48	2
34	55	1
64	64	12
85	86	2
82	85	1
23	23	1
93	105	1
15	15	4
78	107	4
0	1	7
79	81	2
71	74	2
67	84	3
43	43	4
112	120	1
128	128	10
30	31	2
113	114	2
58	108	1
34	89	4
47	49	4
1	2	3
9	10	4
90	101	2
90	91	3
26	32	1
114	129	1
32	33	2
61	62	1
86	100	3
73	75	2
26	29	6
79	100	2
75	76	5
110	111	3
116	117	1
76	120	3
71	80	1
69	87	5
33	35	2
118	119	2
94	96	1
99	106	1
23	87	2
128	129	1
87	92	3
85	87	2
0	4	2
35	46	1
8	74	1
55	57	3
18	22	3
3	5	4
12	13	2
99	120	1
127	134	1
125	126	1
82	102	1
95	113	1
10	11	1
112	115	1
55	56	2
134	135	2
29	30	2
101	112	3
115	120	1
86	88	1
18	21	1
122	131	1
85	99	1
37	37	2
90	93	1
46	51	1
119	120	2
26	28	2
103	104	1
114	120	1
77	78	2
20	21	3
4	6	1
27	27	2
82	110	1
38	63	1
65	66	2
19	19	2
27	29	1
76	77	1
93	101	1
112	114	1
89	94	1
60	64	1
11	14	1
36	45	1
69	111	1
86	91	1
25	28	1
31	33	2
1	4	1
18	50	1
31	52	2
79	82	2
44	45	2
85	88	1
58	61	1
74	77	1
127	129	1
102	135	1
99	105	1
81	120	1
0	2	1
12	15	1
82	84	1
74	80	1
