97	123	3
113	114	1
91	91	5
156	156	7
95	95	5
31	31	6
97	97	4
80	80	5
2	2	3
138	138	7
90	115	1
23	23	5
80	81	7
136	144	1
36	38	2
49	49	8
37	37	3
0	0	1
11	12	6
104	104	8
121	121	5
1	1	4
55	55	1
134	134	5
97	98	1
36	36	8
137	137	5
129	130	1
154	154	9
11	14	3
150	150	7
158	158	5
12	17	1
138	148	2
66	137	1
39	40	4
19	20	1
11	11	1
116	130	1
109	112	2
22	25	1
107	107	3
138	139	3
114	114	1
125	126	2
99	99	1
10	10	4
80	152	4
26	26	3
111	112	2
43	43	7
40	52	4
104	111	4
90	91	1
72	158	1
28	28	4
109	111	3
89	89	5
118	149	2
107	122	3
78	79	2
119	120	3
132	132	6
144	144	3
151	151	9
32	33	2
88	89	2
80	82	1
147	147	5
68	68	6
57	57	1
139	139	4
131	131	6
71	71	5
21	21	3
112	124	2
22	22	1
116	116	6
65	138	2
113	115	5
7	65	1
36	37	3
103	103	3
84	86	1
19	19	7
41	41	4
56	57	1
18	18	6
140	140	6
95	96	2
73	73	8
100	100	2
87	93	1
123	124	1
47	47	3
41	42	5
22	89	2
115	115	3
46	46	3
46	47	1
24	24	10
80	89	3
144	145	2
79	91	3
10	13	2
101	101	3
155	156	3
80	127	1
126	127	1
92	92	2
20	20	1
118	119	2
77	77	3
106	106	2
133	134	6
92	93	4
42	42	2
1	15	3
34	43	2
51	51	1
6	6	2
1	2	2
6	9	3
83	83	4
27	27	2
52	52	1
29	29	4
72	72	1
142	142	4
112	122	1
102	104	1
50	50	4
67	70	1
30	31	1
149	149	2
91	92	1
85	85	1
113	121	1
41	53	3
127	127	2
123	135	1
113	113	5
96	97	2
84	84	2
7	8	1
115	116	2
96	142	1
102	102	1
45	46	3
88	120	3
140	141	4
21	22	1
123	123	1
123	127	1
108	108	3
31	143	3
4	4	4
82	130	2
12	13	4
33	33	4
146	146	2
7	7	2
77	97	3
85	86	2
9	16	4
107	117	1
14	18	1
82	82	2
133	133	2
62	69	1
115	151	2
110	110	1
52	53	3
15	15	2
130	131	1
45	45	2
70	70	1
13	53	1
122	123	1
16	16	1
81	81	2
85	139	1
11	13	1
78	89	1
89	153	3
63	65	2
56	56	2
25	25	4
17	17	2
23	24	4
53	53	2
14	14	1
108	109	4
14	15	2
114	115	1
28	29	3
145	145	3
108	111	1
159	159	1
23	31	1
118	118	1
152	152	1
120	126	2
8	9	1
87	87	2
18	19	2
155	155	3
135	141	1
125	127	1
146	147	1
37	48	1
34	34	2
7	63	1
93	93	3
124	126	1
132	133	3
5	5	2
124	124	1
138	151	1
125	125	1
135	135	1
77	79	1
62	63	1
65	66	1
40	40	1
122	155	1
62	80	3
151	158	1
52	56	1
78	80	1
104	105	2
20	48	1
88	149	1
69	70	1
13	14	1
7	131	1
99	102	1
19	22	1
88	88	1
119	119	1
133	149	2
54	54	2
153	153	2
120	120	1
38	49	1
157	157	1
111	111	1
31	85	1
24	29	1
43	44	1
112	112	1
117	117	2
117	148	1
20	146	1
24	25	1
90	90	1
3	3	1
51	52	1
131	132	2
13	13	1
145	146	1
71	111	1
141	142	1
122	126	1
75	75	1
122	122	1
112	113	1
39	39	1
103	104	1
65	65	1
