18	19	13
48	48	8
60	60	3
121	121	12
78	81	3
51	51	8
72	101	5
113	113	10
113	123	2
127	128	2
26	84	1
0	0	2
80	80	6
40	40	3
20	27	2
14	14	5
100	100	9
112	120	3
76	76	1
111	114	1
46	47	4
98	119	3
123	123	3
67	73	1
107	108	9
119	119	7
129	129	2
123	124	1
120	122	3
70	70	10
65	68	1
23	23	8
19	19	1
55	55	6
113	118	2
50	50	7
66	68	2
84	86	4
126	126	8
19	20	6
42	42	9
27	44	3
94	94	3
115	119	2
29	30	5
38	61	6
13	14	8
33	33	4
30	31	2
122	122	6
92	94	3
102	130	7
88	88	5
29	41	3
93	94	4
72	74	2
110	110	5
84	84	6
126	127	3
8	8	1
69	69	7
22	23	3
31	31	5
43	43	7
95	95	3
58	59	2
59	61	4
51	77	5
7	22	4
113	127	2
130	132	3
10	102	4
31	42	5
98	99	2
132	132	3
4	4	6
25	27	2
111	119	5
90	91	3
49	49	6
10	10	10
42	45	1
63	72	2
57	57	6
114	114	5
75	101	4
19	43	6
91	91	8
114	127	2
78	80	1
108	109	2
18	40	4
105	106	2
98	103	1
71	71	5
133	133	1
102	102	8
44	44	7
7	8	4
129	130	2
0	1	8
131	131	9
101	102	4
78	79	2
39	39	9
7	11	1
79	79	3
118	126	1
7	17	5
117	125	1
117	130	5
45	72	4
88	89	1
130	130	5
111	111	3
41	94	1
86	88	3
107	107	3
53	53	3
28	28	2
73	74	3
52	53	4
125	126	3
16	27	5
32	33	1
68	68	1
48	50	4
82	82	2
96	100	2
59	62	3
83	83	1
29	29	4
3	4	3
52	75	3
72	75	2
117	117	3
107	120	1
122	123	4
124	125	1
18	42	3
52	56	1
105	105	4
5	5	2
93	93	3
115	116	3
9	9	3
74	74	4
47	47	4
47	104	3
128	129	1
112	113	1
124	124	5
79	81	2
61	61	5
0	2	2
43	45	2
17	18	3
63	63	3
86	86	3
38	38	4
116	129	2
102	125	2
1	1	3
107	118	4
116	117	3
114	129	1
113	119	6
90	90	2
128	128	11
52	52	2
88	90	5
82	83	2
65	90	4
107	119	2
56	56	5
96	107	2
20	21	3
54	54	3
26	26	4
112	112	3
53	54	1
89	89	1
98	127	1
7	7	8
17	42	3
126	128	3
44	45	1
44	74	2
44	67	4
65	65	1
100	114	2
66	66	7
92	92	1
96	97	2
10	11	1
109	127	1
47	67	1
103	131	1
109	110	3
30	30	2
120	120	3
101	109	2
68	73	2
106	106	3
9	29	2
78	78	3
11	11	2
100	102	1
29	31	3
10	23	1
108	112	3
18	18	1
131	132	3
91	92	2
121	122	2
103	106	1
80	81	2
72	100	4
17	21	1
48	49	2
127	127	1
10	72	1
24	24	2
8	17	1
9	28	1
58	126	1
28	29	2
97	100	2
64	65	2
9	45	1
34	34	2
32	32	1
116	130	1
115	115	2
80	95	2
86	91	2
118	131	1
113	131	1
81	81	3
68	83	1
109	109	2
54	55	2
21	21	5
78	82	1
9	10	1
107	113	3
126	133	2
108	108	3
104	104	4
89	91	2
72	72	2
125	125	1
116	116	1
104	111	2
100	123	1
100	108	1
103	103	1
13	13	1
0	26	1
77	78	2
64	107	1
2	2	1
114	117	1
103	111	1
65	67	1
70	81	1
110	118	1
3	3	1
46	46	1
