15	16	5
98	98	7
108	108	4
140	141	3
40	40	2
75	75	3
8	9	10
79	83	3
138	138	6
15	25	5
142	142	6
99	99	1
68	68	5
120	120	2
18	36	1
37	37	4
115	116	4
85	111	3
10	14	2
113	114	1
97	121	2
6	7	4
145	145	6
22	23	4
2	43	6
11	11	3
84	84	2
124	124	5
84	89	4
56	67	5
34	34	9
67	67	2
26	137	2
8	12	2
80	81	3
36	36	6
3	15	5
107	108	2
127	127	8
19	19	2
8	19	3
46	148	3
119	119	11
79	79	2
98	117	1
129	129	10
87	91	2
121	121	5
71	71	6
14	32	1
57	57	4
33	34	7
85	86	4
20	20	9
150	154	3
102	102	1
139	139	4
21	21	2
0	0	8
55	55	2
81	81	7
121	122	14
155	155	5
124	141	2
83	89	4
30	30	5
2	2	9
156	157	1
133	133	13
85	85	6
86	86	6
122	122	5
141	141	3
22	22	6
132	134	3
79	82	4
90	91	1
56	57	1
144	144	5
112	112	2
65	65	5
41	44	2
43	43	2
19	35	1
31	31	13
141	144	9
51	109	3
39	39	9
111	111	5
78	78	7
41	42	4
16	17	2
46	46	2
8	11	4
121	153	4
76	77	1
121	154	3
52	53	1
77	78	2
112	113	2
10	10	2
67	68	3
86	111	2
146	146	6
113	116	2
22	48	2
112	114	1
64	64	2
64	65	2
64	122	2
85	89	3
128	139	1
50	52	2
63	63	1
5	5	7
61	61	2
123	124	3
17	35	2
93	120	1
131	131	4
28	29	4
119	121	3
131	133	2
46	109	1
149	149	3
53	78	2
85	87	2
157	157	3
108	145	3
40	43	3
65	82	5
111	113	2
25	25	4
134	135	3
114	114	6
18	18	4
8	8	7
49	49	5
69	69	2
9	9	5
19	25	1
80	99	1
90	155	2
130	130	2
150	150	3
123	125	2
11	14	2
1	23	1
88	88	6
153	153	6
101	101	7
66	69	1
117	117	4
145	146	1
128	128	4
73	73	1
32	33	1
42	42	3
41	41	5
100	100	4
125	137	1
33	33	6
144	147	6
14	14	3
72	72	2
92	92	3
87	87	4
15	15	2
118	122	3
28	28	4
118	118	7
41	105	1
89	118	2
109	109	3
17	33	1
29	30	9
32	32	6
88	95	1
4	4	4
23	24	4
152	154	2
12	12	2
24	24	3
142	152	1
148	148	6
48	53	1
1	34	2
135	136	7
21	31	1
96	97	1
134	134	4
26	26	1
87	98	2
7	7	2
2	3	2
10	38	2
82	83	2
98	101	3
46	77	1
42	45	1
23	29	1
107	155	5
90	97	1
54	54	1
50	50	3
104	147	1
80	80	5
45	46	1
71	72	1
36	38	1
128	138	1
30	52	3
40	98	3
122	124	3
82	86	3
41	54	2
67	71	2
62	63	2
38	39	1
48	48	2
153	154	1
97	97	2
103	103	2
154	156	2
47	47	3
91	91	1
124	140	1
44	44	1
42	43	3
55	56	2
67	69	3
20	76	1
116	123	1
145	147	3
5	6	1
100	101	1
105	105	2
53	79	2
13	37	1
96	96	2
114	115	4
9	31	1
12	23	1
49	50	2
106	154	4
45	47	1
89	96	2
147	149	1
2	44	1
4	5	2
31	36	1
66	84	1
140	140	1
125	125	2
142	143	1
82	82	2
17	26	1
13	27	1
108	109	2
130	138	2
95	95	5
13	13	2
77	77	2
0	35	1
35	36	3
126	126	1
36	54	2
67	82	1
46	102	1
37	54	3
156	156	3
126	145	2
37	102	1
78	79	1
25	29	2
54	55	1
110	155	2
86	87	1
105	106	1
125	126	2
132	132	1
149	158	1
2	21	2
11	33	3
70	80	3
110	110	1
106	106	1
16	16	1
118	119	1
86	88	3
87	92	2
130	131	1
51	51	1
147	147	1
129	130	1
126	137	1
83	88	1
84	85	3
92	95	1
135	151	1
158	158	2
126	146	1
157	158	2
66	67	1
84	112	1
17	17	1
104	142	1
47	78	1
83	83	1
124	127	1
135	135	1
29	35	1
24	37	1
11	12	1
23	50	1
50	104	1
20	21	1
87	95	1
29	36	1
