23	23	4
120	120	8
16	16	1
116	116	6
69	69	3
75	79	5
12	13	1
83	85	2
61	61	5
3	3	9
106	106	5
56	59	3
82	106	2
21	21	7
128	128	9
127	127	13
99	99	18
53	53	4
112	112	6
46	47	1
101	101	2
49	49	8
83	100	3
126	126	2
107	108	1
118	118	7
90	90	14
123	124	9
30	31	2
119	123	5
86	86	4
94	94	11
68	68	6
69	70	4
111	127	2
54	55	4
77	77	14
60	61	7
60	60	6
93	93	10
67	68	4
3	4	2
89	89	4
98	131	1
78	78	8
75	75	5
4	4	4
87	107	1
114	114	12
130	131	9
92	92	4
11	12	4
59	72	1
70	71	5
74	74	4
91	91	5
98	99	1
16	17	1
85	85	5
103	103	8
72	72	10
116	117	5
81	85	5
87	87	3
135	135	2
113	113	6
94	95	2
106	113	1
83	84	5
58	58	2
102	102	15
121	121	10
62	62	10
134	134	8
88	105	1
15	16	2
28	28	4
114	115	6
105	105	7
64	65	2
104	104	8
14	14	7
53	99	1
124	124	13
86	91	3
54	54	5
55	55	7
2	2	7
15	15	5
4	5	2
102	103	3
5	9	1
22	22	5
107	131	1
117	117	2
37	37	4
47	49	2
122	122	6
34	34	6
19	20	3
125	125	3
56	57	2
108	121	1
8	11	1
106	121	2
19	19	4
44	44	7
17	18	4
125	126	1
132	132	2
91	95	3
126	128	1
108	109	2
82	82	1
28	29	2
117	132	5
74	103	2
25	25	7
68	69	1
124	126	3
109	112	2
20	21	4
108	108	6
107	107	2
29	29	7
113	114	4
114	118	2
63	63	6
80	80	5
102	104	2
5	5	4
75	90	1
33	33	6
103	104	1
76	76	3
73	73	5
115	115	4
93	103	3
80	82	3
84	85	1
124	125	1
96	96	5
31	32	3
128	129	2
130	130	5
5	8	1
133	133	1
50	56	3
97	97	7
100	100	9
70	70	1
110	110	1
19	95	3
13	14	3
119	119	3
90	106	1
7	80	1
55	58	2
106	107	2
66	69	3
89	90	1
11	11	1
6	7	3
83	130	1
27	36	2
91	104	1
65	88	2
31	33	1
55	56	5
131	133	2
79	98	2
12	12	5
99	100	1
62	67	4
82	86	2
33	34	2
125	127	3
43	43	7
105	127	1
56	56	3
29	30	1
17	17	1
109	110	1
92	117	1
52	52	1
79	80	6
88	89	1
121	124	2
77	79	2
71	71	3
10	24	1
45	54	1
65	66	3
30	30	1
7	7	1
34	35	1
88	88	4
98	98	5
8	8	3
64	103	1
64	64	2
117	121	1
109	121	2
106	108	1
58	59	5
20	20	2
108	131	2
67	67	12
81	94	1
66	66	2
61	86	5
38	57	1
5	6	4
24	24	2
84	84	2
9	11	2
32	32	4
79	79	4
25	99	1
99	120	2
54	56	3
90	92	1
65	65	2
26	26	2
24	25	3
10	10	4
72	73	1
110	128	3
103	105	5
111	111	3
50	50	3
14	15	2
74	75	5
55	57	1
96	98	3
27	28	1
52	55	2
121	122	1
115	116	1
129	129	2
113	115	1
87	91	3
87	88	3
8	9	1
92	109	3
57	57	1
32	63	3
84	87	1
66	67	1
42	42	2
101	102	1
36	36	1
82	83	2
5	46	2
107	127	2
13	13	4
14	20	1
56	58	1
78	91	1
7	8	2
92	123	3
94	106	1
15	17	2
105	128	1
93	94	2
66	68	3
95	96	1
26	81	1
35	44	1
99	112	1
1	1	1
31	31	2
109	111	1
81	81	2
78	79	2
96	99	1
45	45	2
94	105	2
119	120	1
82	85	2
18	18	1
23	25	1
77	78	2
9	10	1
25	28	1
97	98	1
109	109	2
106	127	1
108	134	1
88	90	1
65	76	1
6	6	1
117	119	1
14	17	1
43	54	1
114	120	1
64	76	1
20	38	1
32	33	1
129	130	1
25	122	1
