27	27	11
2	2	17
20	20	14
17	19	3
21	21	10
68	68	7
22	23	4
17	18	5
49	50	7
59	59	8
15	15	11
9	12	1
8	12	3
25	25	15
50	50	19
23	24	3
13	13	12
9	9	5
17	22	3
83	84	5
11	11	21
76	80	5
28	28	10
78	79	2
7	61	4
9	10	9
89	89	9
19	19	16
61	62	7
83	83	11
9	66	1
62	62	16
73	73	8
11	12	3
10	12	3
49	49	14
65	65	19
69	69	27
14	14	10
3	3	15
7	78	3
79	82	3
63	64	6
48	55	4
84	88	3
21	22	7
28	30	3
12	17	4
17	20	2
8	13	1
5	6	3
29	30	4
5	21	3
56	57	8
82	82	21
79	79	11
78	78	11
58	75	1
64	65	14
51	53	1
51	79	4
55	55	4
66	66	9
19	68	6
8	8	25
25	26	9
11	13	4
6	6	7
72	72	9
57	57	17
31	31	11
2	85	2
60	60	5
86	86	12
0	0	14
52	70	1
46	53	2
5	5	11
24	24	4
56	56	20
47	47	15
7	7	11
22	22	5
17	62	5
27	74	2
59	60	2
80	80	6
82	83	21
77	77	8
22	26	5
54	55	12
23	23	19
27	71	2
84	85	3
21	26	2
75	81	4
10	11	9
16	25	4
4	4	18
76	77	1
46	48	3
50	51	9
55	61	5
88	88	3
57	68	1
55	77	6
46	47	1
3	4	6
54	59	1
54	77	2
22	31	1
16	24	3
31	71	2
88	89	2
25	77	2
62	64	4
48	48	17
12	12	11
58	67	1
23	31	1
47	48	3
84	84	10
58	58	18
26	26	15
67	67	11
25	31	1
87	87	10
75	75	14
54	54	14
51	51	9
48	59	2
30	31	9
60	61	3
62	63	6
6	7	6
14	15	3
48	73	4
24	31	1
53	53	5
48	49	4
32	71	1
13	18	7
55	56	8
27	49	1
9	13	1
54	75	4
46	49	1
21	23	3
47	52	2
6	17	6
10	10	10
52	52	6
55	62	4
49	66	1
16	16	3
70	73	1
6	61	5
50	74	4
80	81	6
18	21	2
48	61	3
29	29	5
64	64	10
17	17	5
66	78	8
1	1	8
3	68	3
7	8	9
62	65	1
5	20	4
75	84	2
24	27	1
24	75	4
64	66	4
4	69	1
23	52	2
74	84	2
27	28	3
16	20	2
71	71	11
6	25	1
48	52	2
22	25	1
70	72	3
3	11	1
81	81	10
18	19	3
27	78	1
26	49	1
49	77	3
24	66	3
55	81	1
52	53	1
76	79	2
13	14	1
34	34	3
51	52	2
47	51	3
61	61	1
54	82	1
52	77	1
17	21	1
81	82	1
24	77	1
63	63	4
9	21	5
51	56	6
8	19	2
56	75	1
19	20	2
75	77	2
62	78	1
74	75	3
15	68	3
33	33	2
12	51	4
75	76	2
25	78	1
15	16	1
53	59	2
26	65	1
28	71	1
48	58	1
8	9	2
9	26	2
49	65	2
70	70	1
48	68	1
26	48	2
85	85	5
54	83	1
8	17	1
9	49	1
77	78	1
65	80	1
18	20	1
74	74	14
30	30	3
77	80	1
77	81	2
50	56	3
9	71	1
22	87	3
52	55	2
28	29	1
76	76	2
46	69	2
11	19	2
53	54	2
5	19	2
58	84	1
47	55	1
31	75	1
72	73	5
86	87	3
55	76	1
26	32	1
76	78	1
9	78	1
78	82	1
71	72	1
59	62	1
10	85	2
48	56	1
3	85	2
21	85	1
52	76	1
24	25	1
5	12	1
7	12	1
20	31	1
30	84	1
49	60	1
46	46	2
46	59	1
47	72	1
12	16	1
5	17	1
49	55	1
10	81	1
57	58	1
68	86	1
52	79	1
29	57	1
18	18	1
