84	84	6
23	23	4
26	38	3
81	91	8
100	100	7
58	99	1
64	65	6
75	75	11
41	41	9
65	65	15
51	80	3
36	36	14
98	98	21
61	61	14
46	46	11
70	77	1
60	62	6
52	52	12
66	91	5
50	50	19
93	93	8
81	81	9
77	77	14
42	42	9
97	98	7
59	59	20
40	41	4
35	37	2
43	43	8
51	52	3
41	42	7
72	72	21
84	88	4
51	79	1
90	90	5
27	27	5
100	101	5
31	32	5
55	89	2
45	45	8
97	97	3
46	101	5
63	96	5
53	54	3
76	77	7
34	94	3
33	45	2
71	71	14
101	101	17
52	56	2
52	90	1
80	80	4
63	63	16
33	33	7
64	64	8
50	79	3
60	61	4
51	51	10
95	95	20
59	95	4
44	44	18
50	99	1
73	73	14
56	70	4
35	35	4
66	69	3
58	58	10
44	71	3
87	97	5
83	84	4
23	27	2
47	47	5
40	40	17
48	78	5
58	62	2
56	58	3
44	76	2
53	89	3
26	27	4
26	53	3
80	81	10
81	82	7
78	99	2
83	83	10
20	24	1
79	79	9
44	45	3
48	86	5
74	87	1
86	86	15
42	43	5
66	68	1
99	100	4
39	39	7
38	38	14
67	67	6
52	53	2
68	68	10
91	91	21
48	49	6
53	53	5
71	72	4
62	88	1
79	92	1
55	55	8
74	74	7
34	34	12
33	94	5
85	95	1
89	89	6
46	80	1
43	58	3
70	70	11
87	88	3
91	92	3
48	53	2
24	24	7
62	62	10
55	56	2
92	92	10
84	87	4
54	55	5
84	94	2
56	56	3
96	96	6
54	54	8
33	83	1
43	75	1
94	96	3
34	35	2
82	82	1
66	90	1
91	99	2
88	88	3
32	80	4
94	94	3
58	60	3
47	78	3
85	93	4
81	83	4
69	69	11
28	28	10
48	48	7
71	74	2
49	49	7
93	100	1
81	84	2
76	76	4
94	98	2
85	85	5
40	48	2
69	90	2
42	59	2
51	55	4
73	75	3
53	55	1
95	98	3
34	46	2
73	74	4
46	94	4
46	84	5
52	80	2
40	78	1
60	60	2
32	100	1
62	76	2
87	87	2
79	80	2
91	98	2
29	29	2
39	40	2
99	99	6
35	36	3
86	89	1
33	87	2
47	48	6
57	57	5
65	67	3
92	93	5
72	75	2
53	83	2
33	37	2
90	91	3
31	90	1
55	61	1
34	73	1
51	77	3
66	66	9
45	84	1
33	92	2
43	59	1
54	89	1
86	88	3
66	67	3
88	101	1
33	80	2
46	78	3
86	99	2
57	98	2
64	67	4
63	75	3
36	38	2
37	37	1
25	25	4
89	98	1
67	68	1
58	59	6
37	38	1
83	91	1
31	31	3
45	77	2
22	55	2
57	58	3
95	96	4
50	101	1
28	100	3
22	33	1
34	84	1
65	91	2
56	75	2
33	35	3
92	100	3
71	73	1
68	78	1
32	32	1
45	46	4
65	66	6
22	26	1
33	99	2
51	71	1
27	98	3
59	62	2
20	102	3
68	70	2
84	97	3
34	52	1
25	99	1
95	97	2
78	78	2
102	102	2
79	91	1
30	30	4
49	50	4
52	62	1
47	50	1
98	100	1
43	44	1
30	37	1
49	51	3
98	99	1
61	84	1
24	27	2
93	101	1
30	33	1
86	87	2
56	57	1
51	76	1
31	38	1
54	61	1
44	77	1
56	77	1
70	71	1
26	26	3
48	94	1
51	56	2
84	98	1
31	46	1
45	47	2
29	61	2
94	95	1
57	74	1
80	86	1
46	47	1
71	77	2
91	94	1
34	37	1
87	94	1
65	69	1
34	51	1
50	51	1
92	101	1
78	79	1
51	59	1
84	96	1
74	75	1
80	82	2
45	48	1
63	97	1
51	54	1
47	79	1
86	97	1
28	37	1
47	53	1
25	26	1
63	64	1
62	71	1
49	62	1
