48	49	4
18	20	9
35	35	13
42	42	18
37	37	26
24	24	5
0	0	13
44	44	22
50	50	13
56	56	20
43	43	14
32	35	1
40	58	5
62	62	10
19	52	1
48	48	20
31	33	1
23	23	21
54	54	5
42	58	2
36	36	15
1	2	3
39	41	3
53	53	18
6	6	5
34	34	22
15	16	11
38	39	9
30	30	13
43	52	7
52	52	8
7	11	8
1	1	5
37	58	3
45	46	6
7	7	8
38	38	13
47	48	3
31	60	6
14	16	3
51	52	5
55	55	11
14	14	9
40	53	1
16	19	3
49	49	28
16	53	5
19	19	5
29	40	3
45	45	26
17	21	1
41	41	5
37	39	9
36	37	6
39	39	11
40	40	14
20	20	8
49	50	8
47	47	18
46	46	13
40	41	5
32	32	17
35	36	17
31	37	4
37	43	4
37	60	5
8	8	7
18	19	7
40	51	4
6	13	2
31	31	21
56	57	7
39	42	1
45	47	6
15	15	8
45	57	1
31	32	6
7	8	6
36	43	2
5	5	5
11	11	7
60	60	5
10	11	3
52	53	2
57	60	5
61	61	14
10	10	9
14	53	1
8	9	5
59	59	16
19	21	4
33	33	11
16	16	4
44	48	4
60	61	3
33	34	7
44	50	6
20	21	4
42	44	2
34	35	3
57	57	8
14	32	2
10	59	2
12	12	9
58	58	5
1	37	3
17	52	1
23	29	9
31	58	3
47	56	1
51	51	7
23	54	3
23	53	4
4	4	2
2	2	4
19	20	2
61	62	8
44	57	2
23	24	2
39	40	4
58	59	2
30	42	2
11	12	5
37	40	3
13	32	3
12	59	3
0	1	1
3	47	2
5	31	3
44	56	1
32	33	1
15	56	1
51	58	6
6	12	1
9	9	5
14	17	2
4	5	2
22	22	4
6	7	9
18	18	3
19	25	1
30	49	1
41	51	2
22	24	1
17	59	1
44	45	1
43	44	3
16	17	4
30	31	7
46	62	6
9	10	1
25	25	5
3	3	3
12	21	4
42	59	3
10	12	1
11	15	1
2	3	1
24	25	1
31	44	1
49	55	1
13	13	3
0	46	1
55	58	1
55	60	2
47	49	6
39	59	3
3	4	3
16	31	2
49	60	3
2	61	2
33	35	1
35	45	1
49	59	1
5	7	1
35	43	1
50	51	1
53	54	1
15	24	5
44	46	1
56	60	1
32	34	2
7	13	3
14	15	3
34	50	1
37	44	1
55	56	1
34	36	3
39	52	2
56	58	1
21	21	2
13	17	1
35	55	1
4	52	1
38	58	1
46	47	4
16	54	1
2	47	1
38	41	1
32	36	1
50	58	1
32	55	1
5	6	1
30	56	2
54	55	1
23	37	1
9	11	1
4	58	1
31	57	1
44	55	1
58	60	1
38	60	1
14	30	1
