79	81	4
81	81	17
66	67	5
5	5	8
109	109	6
28	29	16
125	125	5
142	144	1
156	189	3
48	91	5
101	103	4
73	74	6
67	89	2
1	1	5
159	167	1
135	135	5
139	150	2
55	56	8
23	23	6
63	63	7
55	55	4
26	42	1
152	152	8
91	94	1
1	2	4
76	76	6
23	41	5
37	37	7
12	13	4
29	29	5
86	87	6
101	101	11
57	57	1
140	140	11
182	182	4
159	166	7
71	72	4
113	113	6
145	145	15
116	116	4
124	145	4
138	138	7
76	110	3
118	119	4
21	21	4
80	80	4
86	88	3
56	56	5
144	144	6
42	42	5
27	27	5
74	138	1
111	113	2
126	127	4
96	97	3
119	119	4
68	68	5
31	31	9
123	123	4
6	6	3
2	26	4
21	23	2
25	25	8
126	126	7
114	114	3
48	48	4
19	19	12
143	144	4
87	87	10
91	110	2
35	35	5
37	44	2
62	64	2
156	158	3
87	95	1
106	111	5
101	113	1
7	7	10
162	183	1
85	85	8
146	146	5
180	181	4
161	171	1
179	180	2
100	100	6
112	112	4
77	77	14
140	142	3
36	37	5
63	64	2
10	10	5
127	127	8
43	47	4
176	178	3
38	48	2
44	59	6
150	150	8
153	153	10
20	26	4
72	72	6
75	76	2
120	120	6
44	44	5
36	36	8
98	157	2
156	156	2
130	130	4
124	124	4
154	184	1
147	149	3
24	24	7
169	169	10
21	22	12
18	18	5
160	188	2
101	164	2
16	17	2
93	93	3
142	142	7
159	159	5
108	131	2
92	94	5
89	89	6
13	13	5
71	71	1
94	112	3
65	67	7
107	107	6
43	43	2
151	151	5
79	79	3
34	34	5
96	104	2
64	64	4
96	96	1
59	59	7
28	28	4
74	74	4
147	147	6
14	14	10
149	149	3
82	94	1
92	93	9
27	29	5
90	90	6
33	34	2
45	45	5
77	124	2
128	131	3
30	32	5
145	146	2
4	4	12
151	183	2
3	7	3
62	63	2
4	26	1
88	88	10
88	119	3
128	128	4
159	160	3
102	102	8
16	16	4
140	143	3
90	91	1
88	91	3
86	86	3
182	183	5
173	173	3
18	26	3
38	38	3
82	83	3
116	117	6
75	77	1
165	179	1
109	110	4
105	105	5
118	118	10
166	167	1
178	178	9
164	164	1
3	5	1
187	188	2
117	118	2
142	143	2
160	162	6
81	102	1
133	138	7
11	12	5
156	187	3
136	136	4
41	42	3
152	170	1
66	66	2
84	85	3
17	25	3
157	165	1
175	178	3
149	163	1
121	121	3
67	70	1
119	120	2
65	65	4
31	32	2
123	145	5
93	122	1
127	128	5
154	154	9
40	41	1
39	40	2
148	149	5
141	141	7
103	103	10
13	14	6
2	2	9
75	75	1
179	179	3
16	55	2
119	122	4
15	15	4
126	135	2
136	137	1
33	38	1
30	31	1
29	58	2
117	117	2
98	100	2
58	59	2
34	43	1
35	45	3
26	59	3
158	189	1
161	161	3
92	92	8
111	111	5
143	143	8
161	162	2
62	62	1
18	108	4
151	153	2
83	83	4
4	5	1
37	38	3
58	58	1
77	78	1
5	8	2
167	169	4
98	98	3
46	47	2
97	98	4
123	124	4
110	162	3
167	167	1
1	67	2
39	39	3
136	138	1
189	189	2
82	82	6
67	67	1
132	132	4
91	92	1
111	112	6
132	133	2
144	145	4
155	157	1
54	54	6
129	148	1
152	153	5
139	180	3
40	40	6
127	165	2
23	24	2
130	135	3
58	61	1
113	114	1
34	47	1
64	73	1
180	183	2
180	180	2
149	150	2
146	161	3
88	95	2
185	186	1
30	34	5
14	33	1
25	26	3
53	53	1
165	165	7
15	31	2
78	92	1
100	101	2
151	184	5
34	35	2
76	95	3
20	108	2
17	106	4
18	43	1
89	92	1
171	173	1
57	64	2
139	139	8
19	52	5
132	188	3
134	134	3
184	185	3
181	183	1
95	118	3
114	121	2
110	111	1
86	121	1
0	0	1
29	59	3
17	18	6
141	143	2
83	84	3
24	31	2
124	154	1
129	129	2
22	22	2
147	148	5
13	26	2
33	33	1
81	87	1
102	103	1
46	46	4
97	114	1
73	75	2
4	10	1
123	155	2
21	24	1
154	187	1
106	113	1
96	100	2
78	111	3
105	111	1
99	99	4
72	102	2
160	165	1
118	126	2
56	57	2
153	154	2
7	8	4
130	132	2
41	41	6
140	151	1
61	61	3
27	28	1
128	130	1
73	73	4
20	21	2
26	26	1
155	155	1
124	127	1
14	16	2
26	44	2
45	46	1
95	111	2
94	94	4
11	11	5
124	140	2
115	117	1
107	115	2
17	32	4
170	184	3
8	8	4
19	20	2
135	147	2
89	93	4
31	33	1
146	147	1
5	13	1
29	57	1
89	91	1
52	53	4
155	156	3
137	137	1
32	32	1
133	133	3
66	70	2
79	80	1
105	107	2
9	9	1
172	175	1
67	71	1
25	56	1
123	147	1
85	86	1
108	108	1
87	89	2
183	183	1
171	179	1
93	94	1
118	125	1
104	104	1
55	58	1
35	36	1
110	154	3
157	164	2
18	19	1
2	3	1
3	3	1
6	90	1
8	68	1
103	154	1
0	1	1
175	175	1
87	93	1
106	106	3
94	105	2
65	66	1
174	174	1
132	137	2
6	8	1
176	177	2
153	156	1
129	150	1
115	115	1
89	108	1
126	128	2
86	116	1
60	60	1
29	64	1
145	174	1
81	84	1
162	163	1
124	125	2
82	84	3
76	77	1
61	64	1
35	37	1
157	157	3
45	47	1
115	118	1
80	92	1
38	84	1
131	131	1
47	80	1
158	158	2
88	89	1
187	190	1
91	91	1
128	145	1
12	15	1
17	17	1
122	122	1
68	69	2
39	41	1
