179	180	4
65	159	3
14	14	5
36	100	2
112	117	2
4	4	4
187	221	1
36	36	4
23	23	8
116	116	8
165	165	7
95	95	5
112	112	2
232	238	2
184	184	2
76	83	1
85	85	3
189	190	5
190	190	10
191	192	7
221	221	12
209	209	6
111	202	2
198	198	19
235	235	2
149	149	5
169	169	3
106	107	2
49	103	4
247	249	1
217	247	1
64	69	1
100	100	9
170	170	3
78	78	7
102	102	2
187	187	4
202	202	7
180	180	5
240	240	14
73	73	9
34	119	3
219	220	2
195	195	3
236	237	1
220	220	10
20	20	7
27	27	7
193	193	12
70	70	5
244	244	9
168	168	8
160	163	1
241	241	13
74	101	1
160	233	1
62	62	5
172	172	9
9	9	3
41	46	4
110	112	2
32	33	3
15	15	5
205	205	6
160	160	6
114	116	2
176	192	4
109	198	2
58	58	3
108	203	1
158	182	3
173	187	3
26	26	5
180	182	1
89	89	3
85	89	2
26	27	3
47	47	4
159	208	1
38	38	12
87	87	6
214	214	4
223	223	4
43	43	6
109	109	2
208	213	1
179	184	3
82	83	2
219	219	3
91	114	1
230	230	6
64	66	2
200	200	9
175	176	3
204	204	11
188	191	2
18	18	7
198	200	5
9	10	1
97	99	2
245	245	9
156	208	1
144	157	3
193	195	4
159	159	6
56	56	3
164	183	3
94	94	3
90	91	6
55	107	2
54	114	2
168	169	3
93	94	1
246	246	3
185	185	5
74	96	3
165	218	1
164	248	2
202	209	2
39	91	1
111	119	2
245	246	8
90	90	4
46	60	2
175	181	5
81	89	1
65	158	3
65	154	1
113	113	7
106	106	8
193	215	2
173	174	1
59	59	4
116	117	3
75	75	9
54	54	5
165	184	1
4	20	2
228	239	4
181	181	3
12	12	4
101	244	1
161	161	3
242	242	13
226	231	2
15	39	4
158	176	2
118	118	6
179	179	3
65	67	2
88	88	4
11	14	1
183	183	23
241	242	1
218	218	3
43	204	1
107	118	3
209	211	3
37	59	2
50	76	3
157	157	8
44	228	1
158	163	3
40	40	8
175	175	15
174	174	5
24	25	2
60	60	4
34	35	7
17	17	3
236	236	2
53	53	1
107	108	4
19	80	3
104	104	2
163	163	5
117	117	11
153	153	5
150	150	7
152	152	3
215	216	3
85	231	1
50	103	3
119	119	10
216	217	2
81	96	6
114	114	8
226	226	6
210	224	1
121	212	2
208	208	4
178	185	1
167	167	2
182	182	3
14	246	1
66	66	5
101	101	4
192	195	4
79	79	3
189	208	1
103	104	4
11	12	2
210	220	4
0	0	3
210	215	2
169	170	4
224	225	1
40	43	1
92	95	3
7	7	2
105	105	12
76	112	3
187	212	3
41	41	5
188	188	2
32	35	2
7	84	3
44	44	1
31	32	8
232	232	4
236	239	4
224	224	3
119	230	2
185	186	8
246	247	2
87	106	3
210	210	6
213	213	6
34	57	1
173	173	5
104	105	4
203	203	6
96	96	1
184	185	1
13	15	2
247	248	3
167	177	2
52	52	7
191	191	4
62	113	1
163	192	2
82	82	2
84	85	2
225	239	1
238	238	5
184	215	2
221	222	2
1	1	4
21	94	1
156	206	2
229	229	1
102	113	3
77	77	2
21	21	6
13	14	2
163	164	1
7	12	3
68	68	3
196	199	1
155	155	11
115	115	1
59	69	1
99	99	4
160	208	4
19	19	4
186	186	3
233	233	3
42	204	3
165	166	3
170	171	1
34	243	1
181	232	2
80	95	2
36	47	3
178	178	8
192	192	5
55	108	2
222	222	1
62	87	5
194	194	2
248	248	4
159	230	2
202	247	2
176	189	5
228	228	2
5	34	3
234	234	7
103	103	6
169	238	2
28	28	4
78	82	2
4	5	4
172	212	2
162	178	3
159	160	1
44	45	1
111	111	4
48	48	4
20	31	5
22	22	3
162	162	5
167	237	1
115	116	1
31	111	1
211	211	9
156	167	1
5	23	1
69	69	2
196	198	5
94	212	4
222	223	3
193	205	1
172	237	2
218	248	3
108	110	2
35	35	3
75	89	1
156	156	3
167	236	3
215	215	4
3	3	4
11	11	2
8	8	9
243	244	1
39	39	4
188	193	2
98	99	4
202	237	1
199	199	3
197	204	2
207	207	3
92	92	4
92	97	1
166	166	4
217	217	5
171	237	3
118	119	6
79	94	2
37	38	1
151	151	6
228	229	4
37	244	1
152	234	2
149	157	2
237	237	1
61	61	3
242	244	2
114	117	1
201	246	2
214	220	5
238	239	3
48	92	4
87	99	1
188	189	1
175	183	2
76	108	2
176	176	2
36	43	2
170	225	1
74	77	2
197	197	7
11	50	3
231	231	1
156	198	1
111	245	1
189	189	3
5	18	2
46	46	3
161	201	1
65	65	2
71	102	1
100	113	1
152	186	1
154	154	4
42	43	2
115	119	3
247	247	2
15	246	1
15	112	4
39	85	1
57	57	1
157	183	2
223	244	2
88	106	3
72	72	1
6	6	1
168	236	2
177	177	2
83	89	2
112	116	5
33	57	1
108	108	2
237	242	2
170	246	2
238	242	2
153	241	1
194	201	1
5	5	2
55	55	1
55	110	2
57	59	3
212	213	1
160	167	2
64	64	1
211	212	1
32	32	4
48	112	1
67	67	4
100	101	3
95	98	1
218	219	5
102	103	2
110	116	3
226	227	3
204	212	1
165	216	1
37	101	3
110	110	4
146	146	2
86	86	5
24	115	4
61	63	1
220	223	2
46	58	2
67	68	4
202	212	2
173	210	1
118	244	1
85	88	3
227	228	3
202	219	2
176	205	1
182	183	1
179	225	1
163	170	3
34	120	3
71	103	1
205	212	1
99	102	1
34	50	1
146	147	3
91	91	5
49	50	1
50	83	2
157	159	1
193	196	2
233	237	2
86	99	1
216	218	1
209	210	2
25	26	5
178	237	1
237	239	1
97	97	1
20	22	1
56	60	2
197	199	1
14	111	2
71	71	2
217	243	1
199	203	1
98	98	1
29	29	2
23	52	1
214	240	1
26	31	1
165	175	1
208	214	1
225	226	3
210	211	2
206	207	1
158	200	1
16	16	2
144	148	1
38	39	2
192	203	2
170	217	2
209	224	2
206	206	1
113	211	2
182	184	1
158	198	1
58	59	2
160	226	1
51	66	1
14	15	2
63	197	1
241	244	1
39	101	1
101	102	2
66	67	3
117	118	1
74	83	1
7	11	1
231	236	1
198	199	1
153	157	1
243	243	1
82	118	1
34	34	2
15	56	2
10	14	1
19	21	1
172	182	2
158	158	3
107	107	3
46	144	1
80	91	1
5	81	3
53	94	2
167	168	1
65	201	1
192	193	1
42	42	3
196	196	1
110	114	2
35	96	1
32	57	1
114	115	2
176	179	1
110	180	1
200	201	1
70	76	1
153	199	2
201	201	1
225	225	1
50	60	1
217	218	2
154	196	2
57	58	4
82	85	1
74	75	2
152	231	1
75	105	1
237	238	2
169	246	1
71	76	2
168	178	1
153	214	1
181	231	1
10	11	2
165	248	1
80	94	2
63	63	1
33	33	1
242	243	1
167	239	1
173	186	1
46	80	1
116	118	1
167	234	1
69	72	1
158	235	1
14	48	1
11	87	1
166	167	1
113	114	1
164	178	1
24	24	2
61	65	1
214	231	1
47	49	1
87	98	1
165	168	1
153	193	1
10	15	1
12	245	1
187	201	1
224	235	1
18	82	1
240	242	1
174	209	1
201	212	2
182	230	1
212	212	1
145	184	1
172	173	1
