87	87	8
33	85	1
66	69	1
45	45	5
40	51	3
61	61	10
98	98	12
51	51	12
32	32	8
86	87	4
93	100	5
56	57	9
78	79	2
91	91	7
36	36	10
58	78	1
93	94	7
44	44	5
76	76	11
99	99	12
22	25	3
64	64	15
84	92	8
43	43	6
59	59	13
71	71	9
65	66	4
101	102	3
44	76	3
98	99	6
40	40	12
92	94	7
57	57	4
79	95	1
46	50	5
81	81	9
100	101	8
39	39	11
48	52	4
79	80	3
29	29	5
63	63	10
79	98	1
48	50	3
40	50	1
58	58	12
77	77	7
47	51	2
83	83	5
75	75	9
70	70	7
74	75	5
66	66	7
47	47	2
86	100	3
97	97	13
90	90	7
35	36	3
27	27	7
84	84	8
54	54	14
69	69	19
52	52	6
41	41	19
53	53	12
37	38	4
74	74	9
47	52	4
86	88	5
40	75	1
39	40	2
53	54	2
44	60	2
39	56	3
42	42	2
60	60	8
95	95	6
46	47	4
47	48	6
61	62	1
48	48	10
37	37	4
45	48	2
92	95	1
46	46	8
96	97	6
41	43	8
71	72	1
92	92	11
24	24	4
95	96	4
49	66	1
82	83	5
78	80	2
68	68	2
93	93	9
22	27	3
40	41	5
72	72	1
80	81	4
78	78	6
49	50	6
80	80	11
51	85	4
24	26	1
73	73	5
87	97	1
54	55	4
35	40	1
30	38	1
100	100	5
85	92	1
57	77	1
59	60	2
90	91	5
97	98	2
66	67	3
62	85	2
85	85	5
35	35	3
68	69	5
61	83	2
38	38	3
94	99	1
99	100	1
89	89	6
49	49	3
26	27	5
61	87	1
41	63	3
92	93	6
96	96	4
42	59	1
50	50	3
55	55	6
31	31	4
33	33	3
58	64	1
33	80	1
94	98	5
30	31	1
45	49	2
41	42	1
61	84	1
89	90	1
25	25	4
72	73	2
70	74	3
67	71	1
94	97	4
22	28	3
88	88	7
58	59	2
85	86	1
28	29	2
88	92	2
62	62	2
33	34	3
35	91	1
101	101	6
73	82	3
28	63	1
55	56	2
74	76	3
67	67	7
43	44	1
30	30	1
25	26	4
53	55	2
84	101	1
27	29	2
65	76	2
62	63	1
88	99	1
57	58	1
45	57	1
67	72	2
45	67	1
94	94	1
96	98	1
38	39	1
36	81	1
79	81	1
82	82	1
45	56	1
43	77	2
60	81	1
59	64	3
23	23	1
31	33	1
79	79	3
64	65	3
48	101	2
62	101	1
30	81	1
78	81	1
59	63	1
65	65	1
50	63	1
102	102	1
23	25	1
89	98	1
42	43	1
24	25	1
87	88	1
40	65	1
81	83	1
59	80	1
26	26	1
34	34	1
31	37	1
50	51	1
91	92	1
95	99	1
