94	96	3
40	41	1
87	108	2
83	83	1
68	69	4
109	109	6
103	106	1
93	96	2
111	112	3
98	99	5
29	29	2
102	103	7
100	104	3
70	74	1
80	80	2
63	66	2
20	26	2
31	31	3
25	27	3
86	87	3
33	35	2
82	83	5
48	49	1
96	96	3
42	49	1
104	106	5
76	77	1
91	100	2
46	49	1
39	39	2
66	102	3
99	100	4
75	79	9
100	102	3
91	92	3
31	33	2
80	81	3
60	70	1
48	51	2
67	69	1
20	20	2
103	104	5
45	45	6
102	109	4
102	102	7
47	48	3
71	96	2
52	54	3
89	90	8
73	73	1
64	64	7
85	85	2
94	94	1
21	34	3
110	114	2
63	110	2
64	67	4
70	71	4
28	38	2
77	78	4
30	45	3
90	93	5
90	92	3
93	108	1
64	65	2
76	83	4
26	29	3
93	97	1
26	37	5
24	28	2
55	56	5
95	95	2
26	32	1
106	109	3
61	82	2
88	88	4
64	89	2
19	20	1
44	50	1
19	35	1
101	101	8
63	63	5
72	96	1
55	55	11
85	110	2
70	70	3
90	95	3
97	100	4
108	108	9
62	69	1
46	53	3
84	90	5
99	103	3
86	91	1
81	84	1
51	60	1
66	72	2
31	32	2
81	82	2
36	39	1
95	97	3
77	87	5
105	108	3
112	113	1
54	60	4
40	40	2
91	91	3
59	67	1
108	109	1
46	46	2
113	113	4
65	86	1
89	94	7
29	30	3
82	87	1
60	66	3
35	51	1
65	66	11
59	60	2
85	91	3
96	97	2
55	57	3
70	72	3
54	54	5
106	107	1
104	108	2
97	97	2
70	85	4
109	113	1
53	61	3
29	46	1
90	90	2
103	107	1
38	38	4
93	93	2
98	98	5
66	74	3
19	19	1
94	95	2
102	107	2
90	104	4
108	112	2
105	105	5
61	68	1
75	77	2
60	60	2
70	104	1
60	63	1
31	47	1
111	111	2
67	83	1
79	82	1
57	60	2
88	89	1
96	98	1
67	67	1
46	48	1
36	58	2
99	99	10
110	110	2
21	26	1
72	76	2
31	34	2
43	48	5
59	103	2
104	105	2
31	69	3
45	73	2
68	68	1
93	111	1
22	23	2
87	95	2
42	56	1
25	26	2
50	52	1
26	31	1
85	88	1
70	81	1
65	67	2
109	111	1
94	113	2
90	113	2
97	101	4
85	96	1
91	109	1
27	47	1
109	110	3
71	74	2
78	78	1
106	108	1
86	86	1
75	75	2
102	105	1
58	58	2
109	112	1
67	94	1
77	82	1
98	108	1
113	114	1
43	77	1
91	112	1
50	50	1
73	76	1
112	112	1
68	82	1
103	105	2
71	88	1
99	101	2
72	79	1
72	78	1
84	110	2
63	64	1
62	63	1
107	107	1
43	52	1
34	35	1
105	109	1
50	55	1
39	41	1
89	96	1
86	90	1
71	71	1
95	96	1
104	107	1
43	43	1
84	96	1
62	64	1
48	52	1
108	110	1
56	57	1
89	92	1
