40	40	11
134	153	3
44	46	4
158	158	2
46	46	13
73	73	6
160	162	4
135	136	7
179	179	2
184	184	17
77	77	9
104	105	7
12	12	10
160	183	1
115	117	3
65	66	4
99	108	2
48	48	16
83	83	11
183	183	15
129	133	1
80	80	2
124	124	6
169	169	12
23	23	5
66	67	9
153	153	6
74	75	4
64	81	3
78	79	8
185	185	5
145	145	7
151	151	9
10	11	2
82	86	1
166	169	3
41	41	5
93	94	5
146	181	2
10	14	4
149	149	7
45	45	4
108	108	6
181	185	1
154	155	1
76	115	4
117	118	5
91	92	2
136	136	6
113	113	7
132	133	1
16	17	6
37	37	22
44	47	4
123	123	30
178	179	1
109	133	4
184	185	9
66	66	2
19	161	4
177	177	6
154	154	5
23	74	1
86	86	1
103	132	1
146	147	7
1	2	3
140	140	12
94	94	4
110	110	14
31	31	3
117	130	2
111	112	5
53	53	5
30	31	5
150	150	11
47	47	10
65	68	2
130	131	5
166	167	3
103	107	7
117	117	10
161	162	2
155	155	10
95	108	1
156	163	3
19	20	2
103	103	8
152	152	9
122	128	4
164	164	4
175	180	2
110	111	4
79	79	11
39	40	6
142	143	5
35	35	3
125	127	4
60	61	5
78	78	6
148	148	12
75	75	11
125	125	6
149	157	4
58	58	8
17	17	6
24	152	2
0	0	7
150	152	2
58	71	4
157	158	2
22	23	4
139	139	10
74	154	2
112	112	9
111	113	13
147	148	3
15	15	13
159	169	7
186	186	18
8	10	3
77	78	9
46	47	2
139	140	5
173	173	6
55	55	21
82	83	5
157	157	7
148	152	1
81	81	6
22	22	3
169	186	3
83	84	1
44	45	1
89	89	34
123	124	3
82	82	10
30	30	5
129	136	4
180	181	8
80	81	3
7	8	7
60	60	4
183	184	12
2	2	20
83	108	5
155	156	3
163	163	5
60	118	5
38	38	14
42	57	5
119	119	14
53	54	2
104	104	15
83	89	3
186	187	3
103	104	3
182	183	10
106	106	4
137	138	2
5	5	7
5	6	7
25	45	4
170	170	11
45	47	2
26	33	1
42	42	6
32	32	6
36	36	5
93	93	10
24	24	12
124	186	1
90	90	9
174	175	2
68	79	5
134	134	6
9	9	3
90	110	3
64	65	4
178	178	5
130	132	2
135	135	2
4	4	8
56	57	5
173	174	3
85	85	10
12	44	2
63	64	3
25	30	1
34	36	4
10	10	5
26	26	5
67	68	2
150	154	3
93	95	1
179	185	2
119	135	5
92	93	9
58	76	2
87	87	7
84	84	9
170	171	1
57	57	9
11	13	4
28	28	6
166	168	3
171	183	2
129	129	18
91	91	4
26	28	2
131	132	1
103	106	5
79	80	6
146	146	5
169	172	3
147	147	6
120	120	1
92	94	1
116	118	2
42	48	5
134	154	2
29	30	4
53	55	6
188	188	5
167	167	3
145	152	2
34	34	2
84	85	5
8	8	5
137	137	3
72	73	1
63	63	2
149	168	2
95	96	4
25	25	6
171	172	2
27	27	5
181	182	2
98	106	2
29	29	9
44	44	1
102	102	3
189	189	5
56	56	5
0	1	6
21	22	3
157	161	2
116	117	2
65	65	6
142	142	6
84	87	4
141	141	6
128	154	3
99	99	7
20	21	2
178	187	2
70	71	1
121	121	5
3	3	13
126	126	2
182	182	5
12	147	2
68	68	8
55	56	7
130	143	1
38	39	7
4	5	4
1	1	6
110	115	1
122	122	8
169	170	3
18	144	2
130	134	5
176	177	2
43	44	4
131	133	2
132	132	2
71	73	3
113	114	1
165	165	7
11	42	1
38	42	1
19	19	3
177	182	2
179	183	5
114	149	3
16	16	4
6	6	15
174	174	16
116	116	3
88	88	20
61	62	2
140	141	9
60	62	3
29	32	7
16	170	3
151	169	6
7	7	14
124	130	1
180	180	4
168	168	7
107	107	6
74	74	8
133	133	8
94	95	1
22	44	3
176	176	3
58	59	2
187	188	3
9	12	3
119	164	1
183	188	1
175	176	3
123	128	1
151	153	1
67	67	4
98	99	2
140	144	3
18	170	3
151	152	4
146	148	1
102	103	4
116	130	1
131	131	3
20	141	2
115	144	1
81	82	1
21	26	1
174	177	1
67	94	3
62	62	6
80	114	3
20	20	7
100	101	5
59	59	1
83	100	1
171	171	5
71	90	7
31	32	2
70	70	2
143	143	5
21	24	1
20	35	2
182	190	1
166	177	2
124	185	1
115	142	1
60	80	2
106	107	7
6	40	1
179	182	1
27	36	3
6	41	3
75	76	5
97	97	3
176	178	2
23	24	8
171	175	1
43	48	1
15	16	3
105	107	1
126	128	3
177	179	1
33	34	2
89	110	1
181	181	5
20	74	1
138	139	7
134	135	2
6	7	7
166	166	3
96	96	5
129	141	3
172	172	4
101	102	1
111	111	7
179	181	1
121	122	9
32	36	3
119	120	1
26	48	2
63	92	2
119	134	2
99	100	1
72	72	3
143	144	3
164	171	1
3	4	1
39	39	9
125	126	1
129	139	2
71	71	2
105	109	1
63	65	6
159	160	1
73	133	3
160	160	1
174	176	1
42	146	1
47	139	1
87	88	4
130	136	2
37	76	1
100	103	1
128	128	3
52	52	2
102	104	2
75	112	1
47	48	2
27	28	3
11	14	1
54	54	4
114	119	1
129	140	2
89	90	2
127	155	2
100	100	3
43	43	5
76	76	1
119	130	1
75	138	2
98	100	1
25	33	2
92	92	8
24	25	1
53	58	3
72	132	2
13	15	2
185	190	2
144	144	1
148	150	1
109	109	4
179	180	2
17	152	2
27	34	3
33	33	2
41	42	1
183	190	1
70	73	4
57	74	1
115	115	1
175	175	3
129	130	3
122	124	1
45	46	1
84	121	2
114	115	1
175	183	1
83	97	2
101	116	1
159	184	1
48	55	2
188	189	3
134	136	1
43	45	1
37	38	2
18	171	1
70	74	1
90	96	2
102	108	1
165	166	2
107	109	1
129	138	1
161	161	1
169	185	2
185	187	1
100	109	2
62	65	1
170	186	1
74	138	2
63	70	1
120	174	1
12	46	1
183	186	1
146	184	1
130	130	2
14	14	1
105	105	2
141	142	1
175	182	1
73	74	1
13	13	1
75	104	2
152	153	1
64	64	2
180	190	1
35	36	1
40	41	1
107	110	1
189	190	1
25	26	1
190	190	2
48	56	1
80	113	1
27	38	2
23	129	1
127	127	2
150	158	1
140	151	1
128	137	1
90	91	2
94	112	1
75	77	1
60	63	1
187	187	2
150	151	1
22	46	2
136	137	1
121	136	1
58	60	1
2	3	3
73	129	1
110	113	2
24	55	1
5	48	1
57	89	1
122	127	1
162	162	1
76	77	2
121	131	1
26	36	1
81	90	2
105	106	1
140	152	1
109	110	1
96	98	2
172	175	1
188	190	1
32	34	1
76	110	1
122	123	1
21	143	1
156	156	1
54	55	1
148	151	1
160	184	1
108	109	2
42	43	1
13	24	1
