117	117	12
42	125	1
105	105	12
51	52	3
26	27	1
56	56	9
130	131	4
17	18	2
51	51	17
7	7	7
105	106	6
62	77	3
65	65	9
126	126	8
78	78	3
107	107	7
63	69	4
71	71	7
40	42	1
60	63	2
117	118	2
84	84	13
92	92	7
14	14	8
67	68	4
45	46	14
55	64	9
50	50	12
72	72	5
100	101	6
63	63	22
2	2	7
67	67	5
30	34	2
69	70	6
33	33	12
74	75	4
5	5	7
109	109	11
28	28	8
25	25	6
70	94	2
115	115	8
29	39	3
19	19	5
62	62	10
43	43	13
20	20	7
120	120	15
118	118	11
57	101	1
57	57	14
103	103	10
13	13	3
81	81	18
103	107	2
26	26	12
1	1	7
130	130	3
46	46	16
122	122	4
99	119	2
107	108	4
102	103	9
54	54	12
21	22	10
92	93	2
123	123	13
66	66	3
22	22	2
71	72	5
27	27	11
87	87	3
32	126	3
48	104	1
109	110	4
98	99	2
0	0	11
55	59	1
70	78	2
32	32	7
77	77	6
50	52	7
68	68	8
110	111	3
29	29	5
40	41	11
44	45	4
132	132	2
104	105	4
101	102	1
79	80	7
131	131	8
87	90	5
84	88	2
124	124	5
116	117	5
97	126	5
89	89	4
27	45	2
121	131	1
85	85	1
128	128	8
47	47	9
93	93	9
55	103	2
54	64	1
123	124	5
92	94	1
86	88	5
24	28	5
11	11	7
108	109	4
42	42	11
56	104	1
55	56	2
125	125	11
46	118	4
21	21	6
119	120	3
14	15	4
131	132	4
91	92	3
91	91	7
6	48	5
52	52	7
106	106	15
133	133	7
111	111	1
53	56	2
114	114	8
61	62	7
45	45	5
18	18	5
54	103	1
13	113	1
16	16	6
119	129	3
9	9	3
76	76	11
127	129	4
76	87	3
59	59	6
20	26	1
15	17	1
70	76	2
115	116	2
73	73	1
89	94	3
129	130	3
26	46	2
88	96	1
79	95	3
46	52	2
62	67	1
31	31	10
50	51	4
95	95	8
30	31	5
24	25	2
39	39	12
39	45	2
23	23	3
52	53	3
100	118	3
75	76	3
1	9	4
43	44	3
40	40	3
99	116	3
48	48	2
100	100	2
67	73	2
85	99	2
82	82	1
55	55	6
80	80	5
6	6	9
64	64	6
19	21	1
101	101	3
27	47	1
47	48	5
102	102	5
116	124	1
57	118	3
127	127	9
86	87	4
22	23	3
99	99	11
32	33	1
11	115	1
101	103	5
96	96	6
58	58	5
87	88	4
15	19	1
24	24	2
27	51	1
94	95	3
112	112	3
84	85	4
94	94	6
41	42	1
27	43	3
10	12	1
98	98	2
20	21	2
108	108	2
129	129	8
79	79	3
1	2	1
38	38	2
74	74	2
69	118	3
119	124	2
108	115	4
115	124	3
59	60	1
34	37	1
67	76	3
121	121	3
41	41	5
39	40	3
68	69	4
30	30	6
3	4	1
79	104	2
33	34	1
83	83	2
18	21	2
49	49	9
60	61	4
33	60	1
76	77	1
99	117	3
9	26	3
4	4	5
12	13	3
18	19	3
113	114	3
110	110	5
12	14	3
119	119	9
22	25	1
104	106	1
116	116	3
49	54	2
69	69	3
90	90	6
54	55	2
47	69	3
53	53	1
20	115	1
96	97	4
46	57	2
100	119	1
8	8	2
115	129	1
77	78	1
70	70	6
64	65	3
104	104	4
71	76	1
49	50	3
29	30	4
34	53	1
33	58	1
10	10	3
28	29	1
120	122	2
47	106	1
126	127	2
75	75	1
58	59	1
59	65	2
120	121	1
56	102	3
34	34	2
103	119	1
96	114	1
86	86	1
95	121	1
97	120	1
82	83	1
15	16	2
72	73	2
96	98	1
106	117	1
26	30	1
110	113	1
60	62	1
17	17	3
42	62	1
3	6	1
60	60	1
106	118	1
69	95	1
116	119	1
128	130	1
15	15	1
16	18	1
104	114	1
5	6	1
61	61	1
103	104	1
3	3	2
31	32	2
73	74	2
127	128	1
95	97	1
40	43	1
89	95	1
4	5	1
109	112	1
93	123	1
34	59	1
10	30	1
0	2	1
54	102	1
75	77	1
26	28	1
30	32	1
64	92	1
