79	79	28
42	42	13
40	40	16
1	1	12
45	45	16
41	41	22
34	35	7
68	69	10
46	47	5
26	26	17
11	12	4
9	9	11
29	29	9
73	73	10
10	10	10
6	11	2
64	64	23
64	72	2
37	37	23
14	14	11
53	53	8
4	4	26
0	0	8
17	17	23
57	58	6
67	67	9
27	27	18
66	67	15
55	55	17
51	51	15
9	10	3
9	14	2
48	48	29
4	5	8
5	6	5
72	72	17
29	30	8
1	18	7
28	28	12
37	38	7
50	50	10
36	36	11
5	39	1
76	76	11
38	38	16
8	8	16
7	7	19
2	2	31
71	71	26
74	75	2
41	42	11
8	9	1
46	46	11
4	75	4
63	64	11
30	30	8
49	51	7
47	48	4
66	66	6
16	17	3
31	31	34
49	75	4
9	30	14
42	43	11
78	78	19
69	70	3
13	13	12
5	21	6
50	51	5
34	34	9
57	57	4
62	62	15
59	60	9
39	39	19
70	71	17
55	56	5
1	2	2
14	15	1
70	70	15
36	37	9
25	26	4
75	75	12
33	33	15
37	40	2
37	39	13
65	72	4
34	36	1
59	59	20
19	19	24
67	72	3
11	32	2
67	68	10
11	11	14
4	6	5
56	69	2
38	39	4
8	13	1
1	79	2
48	55	3
31	32	16
56	56	13
51	55	5
21	21	6
64	65	1
53	54	9
32	32	6
49	49	14
54	54	14
13	20	2
77	77	7
10	26	3
41	46	6
60	60	11
35	35	5
71	72	10
33	34	11
58	60	4
65	65	9
20	20	7
0	12	1
3	6	3
25	25	15
74	74	17
4	37	4
12	12	14
75	77	6
43	43	6
13	15	3
77	78	3
3	3	11
5	5	11
61	64	3
63	65	3
56	57	7
49	50	3
47	72	2
60	62	2
75	76	6
14	31	5
41	73	2
77	79	2
4	58	1
1	80	1
60	61	7
18	18	8
59	65	2
63	63	8
2	4	2
16	20	3
15	15	7
8	33	3
9	34	1
17	18	3
57	66	2
6	6	9
49	54	2
80	81	5
58	58	12
3	11	2
52	52	14
2	3	12
75	80	2
6	33	1
41	80	1
54	55	5
80	80	10
28	29	3
52	53	8
9	12	2
48	77	1
3	44	1
61	62	6
30	31	2
73	74	1
51	52	4
41	74	1
56	70	2
59	61	3
47	47	8
66	73	1
6	7	2
11	14	3
27	28	5
43	44	3
72	73	2
6	35	1
0	3	2
63	71	3
62	63	2
40	41	4
3	4	3
69	69	8
76	79	2
49	76	1
7	8	6
2	78	1
20	21	7
44	44	2
11	15	1
26	30	1
35	36	2
79	80	1
66	70	1
49	53	5
74	76	4
18	19	1
30	33	2
65	76	1
10	11	6
3	5	1
67	71	2
9	27	1
51	54	4
48	49	4
6	13	1
44	45	3
13	14	5
6	30	2
61	61	8
54	74	3
26	27	1
12	14	1
11	21	1
5	8	2
45	61	1
50	53	1
9	20	2
13	36	3
4	9	1
19	20	2
8	10	2
16	16	7
15	20	1
66	72	1
5	9	1
35	77	1
4	74	1
7	30	1
9	13	2
2	79	1
39	42	1
58	59	2
8	14	1
48	74	1
74	77	1
67	70	1
