33	33	7
8	9	3
19	19	27
0	1	3
64	66	1
39	48	5
61	61	8
63	64	6
53	53	8
9	9	12
59	59	14
2	3	3
28	28	9
70	71	2
9	11	2
21	21	4
10	10	9
42	43	2
24	24	8
74	74	6
38	38	4
6	7	1
37	37	2
6	6	13
76	77	2
65	65	13
3	4	3
11	11	6
20	20	10
73	74	3
68	69	1
48	51	3
12	13	18
67	68	2
69	70	4
48	48	7
34	35	4
28	30	4
23	23	5
35	42	3
21	22	6
54	54	5
23	24	2
47	47	3
56	56	8
57	57	14
10	11	8
5	5	16
48	56	2
44	45	8
78	78	1
22	22	16
60	60	5
77	77	11
23	25	3
31	42	2
66	67	8
43	43	6
8	8	8
54	56	3
26	27	11
39	41	3
45	45	10
1	3	2
24	25	6
32	42	1
19	20	13
61	62	2
67	67	6
71	75	1
29	30	9
42	42	15
58	58	10
1	1	7
33	42	3
29	29	5
0	0	11
64	64	5
2	2	11
23	31	8
63	63	13
0	4	4
12	12	4
29	33	2
49	49	5
68	68	4
52	54	3
31	32	6
0	2	2
20	21	11
75	75	2
30	31	5
40	40	7
64	65	1
56	57	1
70	73	1
5	6	5
2	4	4
59	63	1
31	44	1
22	31	6
32	32	3
49	50	2
4	4	7
26	26	1
25	25	8
18	19	1
35	36	5
6	12	2
31	31	5
38	39	3
33	34	2
7	8	4
23	29	3
0	3	1
46	47	4
29	40	2
74	75	3
72	72	5
58	77	2
32	33	2
18	21	1
54	63	1
24	27	8
39	40	2
35	35	6
73	73	3
51	51	7
7	12	2
5	7	2
60	77	2
7	10	5
66	66	1
34	34	8
21	71	1
3	28	3
57	58	5
36	39	3
4	5	2
24	30	2
28	29	6
67	69	2
52	52	4
33	35	1
55	56	6
36	38	5
44	44	4
25	26	5
46	48	3
6	8	1
76	76	2
67	76	1
41	42	2
3	3	5
13	14	1
24	29	1
62	62	4
73	75	6
57	59	3
29	32	5
12	29	2
39	39	1
14	25	2
22	24	4
55	55	4
45	46	2
44	46	3
22	73	2
11	12	1
7	7	3
32	44	1
71	73	2
25	28	1
23	48	1
70	70	3
27	29	1
7	18	2
5	8	3
27	28	5
13	13	6
34	38	1
49	54	1
40	42	1
36	36	2
31	33	1
55	75	1
54	55	3
47	48	4
51	72	2
45	54	1
52	53	1
18	26	1
18	18	1
30	30	2
58	59	1
62	64	2
48	49	1
47	52	3
28	40	1
22	23	1
59	77	1
24	32	1
55	63	1
36	37	1
50	51	1
71	71	2
44	56	1
