90	90	4
86	103	7
140	140	8
130	155	4
130	130	5
170	175	1
151	153	8
123	123	5
138	138	6
155	155	8
157	157	2
135	157	1
141	141	5
145	152	6
86	86	2
31	94	4
0	0	1
120	122	5
110	110	2
78	78	5
146	147	5
81	82	2
137	138	3
95	95	2
34	36	1
0	45	1
98	98	4
136	138	1
187	187	4
75	103	2
177	177	9
111	111	3
112	112	3
117	117	5
54	54	4
91	91	2
76	79	4
121	121	7
98	99	2
4	10	2
85	85	3
83	83	7
166	166	1
76	76	7
163	165	1
29	29	4
105	105	10
125	125	2
96	96	4
99	100	2
127	127	3
47	124	3
7	7	3
135	136	2
186	186	8
6	7	2
21	21	6
99	99	12
36	37	5
5	5	4
19	21	3
36	41	4
160	160	7
56	56	5
78	79	2
57	57	6
139	139	8
72	72	4
121	125	3
115	122	3
2	2	6
16	16	8
150	150	8
58	58	1
40	40	2
16	17	4
174	177	3
3	3	3
118	118	4
93	94	1
94	95	3
25	26	2
115	115	8
22	24	2
168	168	3
28	28	3
188	188	3
156	156	3
142	142	4
187	188	5
113	114	11
60	74	3
55	55	5
113	113	10
94	96	2
145	154	2
23	29	2
14	122	3
145	145	2
104	104	4
16	44	1
43	43	3
33	33	1
183	183	3
38	38	1
161	161	8
149	149	7
73	74	6
114	114	6
28	29	3
115	116	2
111	112	4
152	153	3
134	134	4
116	125	3
25	25	1
127	128	2
180	180	1
75	75	1
101	101	10
137	137	7
150	155	2
7	8	3
55	57	3
82	83	1
145	146	1
24	24	3
97	99	2
178	178	1
18	18	5
48	48	3
30	30	4
136	137	2
150	151	2
64	65	3
151	151	6
185	185	1
154	155	2
20	20	1
63	63	2
65	65	4
156	158	2
60	73	2
4	4	2
77	77	8
42	42	3
80	80	7
12	13	3
129	138	1
70	70	3
45	45	4
125	126	1
33	34	1
163	163	1
73	73	8
94	94	4
171	173	1
0	18	2
61	62	3
124	125	3
130	143	1
159	159	2
117	118	1
88	97	3
74	81	4
89	90	1
71	71	4
147	148	1
177	178	3
22	55	2
3	17	2
146	164	1
141	142	1
72	74	3
102	102	4
173	173	1
128	128	1
8	15	4
176	178	6
122	125	5
103	103	8
88	88	4
106	106	3
143	160	1
114	126	3
163	164	4
58	65	4
81	81	1
122	122	2
11	11	1
89	89	4
15	47	1
54	55	1
67	68	1
24	25	4
75	102	1
108	108	2
162	162	1
178	180	1
31	58	1
30	94	5
17	43	3
14	16	1
4	5	5
128	129	2
167	167	2
81	85	2
52	53	1
86	104	1
76	90	1
164	164	2
97	97	2
110	119	2
23	23	1
27	27	4
165	165	4
3	7	1
15	44	1
55	56	2
176	177	1
34	34	3
181	190	1
10	96	2
113	124	1
110	151	1
102	103	2
180	181	4
19	19	1
121	122	1
100	100	2
10	10	1
158	158	2
130	132	1
146	149	2
108	110	1
41	42	2
146	146	1
104	105	3
83	85	1
42	56	1
14	14	2
120	120	3
153	153	1
29	110	2
96	97	3
113	151	2
155	156	1
35	35	1
75	76	1
154	154	1
179	179	3
147	147	3
129	129	2
15	16	2
79	79	3
15	103	2
107	108	1
42	44	1
170	170	2
88	89	2
182	183	2
8	8	5
160	161	2
66	67	1
131	155	1
152	154	1
91	100	1
93	96	4
169	169	5
135	135	1
175	175	3
124	124	1
84	84	2
1	1	1
147	149	1
183	184	1
99	110	1
85	86	2
56	57	1
133	133	2
39	39	1
174	174	2
26	27	1
31	31	1
77	79	1
114	123	2
120	121	1
30	31	1
190	190	1
73	103	1
4	6	1
73	118	1
169	170	1
68	72	1
149	150	1
7	11	1
138	139	1
30	93	1
152	152	1
1	15	1
172	173	1
187	190	1
