25	26	3
34	34	6
65	72	2
100	100	5
80	81	4
29	33	2
49	65	3
58	59	7
102	102	4
37	38	10
88	89	2
75	75	15
87	87	18
90	90	14
92	93	5
41	92	1
48	48	4
69	69	13
37	49	4
49	58	3
28	28	9
51	95	1
84	86	2
96	96	14
38	39	6
89	90	3
43	43	16
98	98	20
22	25	2
24	49	4
107	107	1
23	34	1
34	38	3
32	32	3
85	88	2
100	101	8
73	73	8
39	39	14
38	38	17
31	32	1
51	51	9
50	50	8
36	37	3
62	63	2
78	79	2
92	92	12
36	36	7
72	72	4
104	104	3
25	30	6
71	71	7
74	74	7
61	79	3
68	68	8
30	30	6
61	61	9
95	95	9
37	57	1
53	53	10
79	80	8
91	91	7
94	94	12
83	83	12
21	21	5
62	68	3
54	54	9
63	63	6
26	30	1
44	44	11
105	106	1
42	91	10
99	99	4
86	86	10
82	82	15
67	67	4
56	56	6
33	33	10
26	63	3
27	27	10
39	91	5
41	41	10
24	48	1
31	33	2
62	62	3
24	24	8
26	26	5
67	68	4
29	31	3
60	60	1
51	52	2
28	61	5
54	80	9
25	25	1
104	105	3
54	56	2
78	88	4
95	99	1
31	31	12
50	67	2
89	89	11
23	23	15
28	32	3
77	77	2
95	96	10
101	101	6
33	34	4
82	85	3
88	90	2
93	93	3
46	49	3
105	105	1
29	60	1
52	52	2
97	97	10
85	86	7
78	78	3
27	28	1
49	49	10
81	81	4
65	65	7
106	106	8
21	45	2
26	27	6
97	99	5
59	61	1
55	55	4
101	102	5
84	85	8
80	89	1
73	74	1
47	47	7
42	45	2
62	66	3
52	53	8
47	48	2
22	24	7
79	79	3
48	49	3
33	43	2
54	55	2
83	94	2
21	51	5
43	55	2
78	94	3
76	76	4
74	75	4
85	85	12
103	103	10
65	66	1
57	57	2
83	88	2
64	64	5
82	87	1
53	54	1
30	37	2
84	84	4
56	96	1
50	94	1
54	57	1
60	63	1
76	100	1
20	20	6
58	99	3
23	24	4
40	84	4
68	69	4
96	98	1
37	37	3
86	87	1
22	22	4
63	64	2
29	29	6
31	64	1
58	66	1
21	101	1
53	57	2
77	91	1
82	83	4
80	80	5
87	88	2
56	57	1
76	101	3
21	22	3
35	50	1
24	36	2
47	98	2
23	51	2
85	87	1
46	47	1
55	69	2
25	31	1
50	74	1
93	94	2
61	67	2
65	71	3
55	56	1
59	59	3
41	85	1
37	39	2
34	35	1
42	42	2
44	47	2
29	46	1
96	99	1
78	97	1
79	81	5
45	45	2
77	78	2
72	73	2
42	43	1
58	58	2
25	29	1
47	49	1
58	96	1
37	47	2
104	106	1
46	46	2
50	58	2
40	40	3
90	91	1
24	47	1
30	31	1
28	30	1
45	71	1
62	64	1
35	35	1
64	68	1
75	76	1
70	70	1
57	96	2
22	35	1
43	44	2
66	66	1
61	66	1
50	51	1
20	21	2
102	103	1
41	88	1
97	98	1
43	49	1
20	38	1
23	50	1
89	91	1
23	56	1
40	42	1
35	65	1
