49	49	38
55	55	29
79	79	35
58	65	1
70	70	29
23	23	31
6	9	12
61	61	32
31	31	35
86	87	23
9	10	11
54	56	5
11	12	7
70	71	4
26	26	40
67	69	2
11	11	26
56	57	4
58	61	4
13	19	7
48	59	2
51	51	24
51	52	6
16	20	4
15	15	17
74	75	5
62	62	28
2	2	7
10	10	32
49	51	3
12	13	8
6	6	16
75	75	24
68	68	29
19	19	34
67	67	18
52	61	7
31	66	3
53	53	41
3	4	11
84	84	25
82	82	43
76	76	31
52	54	11
6	7	10
71	73	5
86	86	24
48	49	9
57	57	30
9	9	26
12	19	6
85	85	35
25	25	19
63	63	10
88	88	20
57	73	2
76	79	5
60	60	12
77	77	25
75	80	6
24	25	8
14	14	27
72	72	9
18	20	8
8	8	12
52	52	26
76	80	5
73	73	38
62	63	12
56	56	29
21	22	10
63	65	7
27	72	1
5	9	4
17	20	3
66	66	20
52	58	3
59	62	10
73	74	5
53	58	6
58	58	24
81	81	32
64	65	4
74	74	28
50	50	18
13	17	14
76	81	2
82	83	7
72	73	17
12	12	24
15	16	11
24	24	31
52	66	4
63	77	2
30	30	33
52	60	3
22	24	4
83	83	46
54	55	9
69	69	28
22	23	6
0	0	12
55	56	9
66	75	2
71	71	19
20	20	24
54	54	46
72	76	3
80	80	15
88	89	12
83	84	7
49	58	2
47	47	23
28	28	20
4	4	25
7	7	10
14	17	2
48	48	22
15	82	3
60	61	8
87	87	17
67	68	10
3	3	17
29	29	13
17	17	38
29	30	7
14	69	1
89	90	5
65	66	15
59	59	26
16	16	17
52	55	4
53	54	11
50	52	5
33	33	2
27	28	5
34	34	16
64	64	9
26	27	12
78	78	25
87	88	3
59	60	9
46	46	13
57	75	1
48	58	4
1	1	24
49	59	3
72	83	8
49	50	16
22	26	2
52	53	14
13	14	2
1	2	3
65	65	15
27	27	17
25	26	9
24	26	1
74	82	4
51	61	5
71	72	3
89	89	21
75	76	3
58	59	6
13	13	16
57	58	2
28	30	1
18	18	6
19	20	6
65	79	2
85	86	5
5	6	11
2	3	4
87	89	1
76	77	8
4	17	3
48	65	1
21	21	13
31	32	5
68	69	12
79	80	10
69	70	11
30	70	4
0	3	4
46	53	3
61	62	18
5	5	7
7	9	10
8	31	5
10	11	6
22	22	17
77	78	7
50	51	6
77	79	7
48	78	2
84	85	7
7	31	3
15	81	1
54	66	11
16	17	5
10	19	1
4	5	4
90	90	1
32	33	1
46	47	6
63	79	5
5	8	6
30	31	1
49	53	1
62	65	9
14	20	5
79	82	4
51	62	3
55	66	2
60	63	1
63	64	7
60	64	5
51	63	1
17	18	2
23	26	1
52	64	5
13	18	2
18	19	9
4	9	3
64	66	2
51	59	1
76	78	2
46	48	4
81	82	3
72	74	3
56	66	10
63	78	3
7	8	3
55	75	3
21	23	7
20	22	5
29	70	1
80	82	2
24	27	4
23	24	5
11	85	1
47	66	2
51	80	2
27	29	1
25	27	5
61	66	1
5	10	2
53	55	4
10	85	2
66	79	2
35	35	1
8	9	5
59	61	1
58	60	3
80	81	5
49	60	2
20	21	9
5	7	2
6	10	1
27	71	2
31	50	4
0	1	2
6	8	3
63	76	2
53	66	2
10	28	3
23	25	3
12	85	1
59	63	1
66	67	5
52	56	2
19	86	2
22	74	1
77	82	1
55	76	1
29	68	1
69	73	2
60	62	2
27	33	1
32	50	1
65	80	1
24	74	3
52	57	1
24	85	1
19	85	2
23	27	3
54	57	2
9	29	2
73	81	3
76	82	4
48	50	2
50	62	1
52	63	2
46	65	2
25	66	2
49	78	1
47	48	2
55	59	2
81	83	2
79	83	1
16	74	1
15	21	1
73	75	2
80	83	1
65	76	1
66	80	1
75	77	2
7	10	2
9	85	1
3	5	2
75	81	1
47	65	1
49	56	1
50	61	2
19	28	1
23	71	1
71	84	1
32	32	1
63	66	1
