128	128	15
219	219	6
148	148	4
108	108	2
157	165	1
5	6	2
170	170	6
210	211	3
8	10	3
71	71	7
30	31	5
200	200	8
26	27	2
218	219	5
121	123	4
198	207	3
85	86	9
63	63	5
178	179	1
47	48	2
191	191	8
33	33	1
227	227	10
20	20	6
105	107	3
49	49	7
97	97	11
65	65	4
44	47	3
84	85	3
214	215	1
177	177	6
152	152	6
229	229	2
46	46	8
100	100	9
148	149	1
104	106	3
102	102	4
42	42	5
191	192	9
10	10	12
86	86	8
42	61	2
18	41	4
48	48	8
124	125	4
167	167	9
90	90	3
174	174	3
201	201	4
239	239	4
178	178	2
103	103	4
171	171	1
15	16	4
75	78	2
78	81	3
45	45	16
64	64	6
211	214	1
16	16	3
41	116	1
17	17	12
56	57	4
112	112	3
200	201	5
168	168	1
143	144	1
45	46	5
225	227	1
141	143	3
14	14	2
2	2	5
144	147	2
48	51	5
192	194	2
181	182	11
25	56	2
35	35	8
47	47	15
101	102	3
7	7	2
203	204	9
119	119	6
219	220	2
67	67	14
206	206	10
70	70	6
84	84	9
226	227	6
55	55	4
202	202	4
118	120	3
13	13	1
154	154	13
196	202	2
45	47	2
9	10	7
171	175	2
88	88	1
205	225	3
123	126	3
44	44	9
43	47	1
36	36	12
220	220	5
74	197	5
117	126	3
122	122	3
230	230	10
187	187	3
150	150	4
204	204	11
236	236	1
71	72	2
56	56	8
67	233	5
240	240	3
51	51	5
161	161	7
57	57	5
217	218	4
180	180	8
85	85	10
118	157	2
190	198	1
85	197	4
75	76	2
189	189	1
69	86	5
142	142	6
175	176	3
69	70	3
44	61	1
13	18	1
30	30	2
147	147	2
19	19	9
221	222	1
202	203	1
165	165	2
37	61	1
105	141	3
36	48	4
54	55	8
186	187	4
188	201	2
28	28	7
77	79	3
45	113	2
60	60	2
163	164	2
156	157	5
118	118	3
141	141	2
17	29	2
77	82	4
7	31	1
228	228	5
104	104	3
32	32	5
133	133	2
80	80	2
64	65	3
6	9	3
21	22	3
173	173	6
173	174	8
149	149	5
7	8	3
29	29	16
52	57	2
205	205	1
146	156	1
11	12	3
58	58	4
207	207	1
165	166	4
63	130	1
54	54	5
8	8	3
36	54	2
242	242	7
114	114	6
69	69	5
53	53	10
15	15	3
19	20	4
24	24	6
54	84	3
78	78	1
55	122	2
122	128	1
4	4	8
69	78	3
3	3	2
150	152	4
38	47	2
42	44	4
190	190	2
20	43	2
113	171	2
63	72	1
82	83	2
163	163	2
33	34	4
169	169	3
227	228	7
57	60	2
184	187	4
22	23	4
11	11	20
19	58	1
145	146	4
153	153	3
173	232	2
215	217	3
133	134	2
37	37	11
96	102	2
136	161	3
203	203	8
43	44	3
43	43	7
47	53	1
2	6	1
27	27	8
40	40	3
35	36	2
198	204	3
41	41	1
214	214	3
172	173	1
59	59	2
45	171	2
210	210	3
81	81	5
44	170	2
14	16	4
133	153	3
173	175	3
141	162	2
238	238	3
95	95	1
48	57	1
9	9	8
77	81	2
212	213	2
111	111	4
30	36	1
151	151	1
193	193	3
120	121	1
55	133	2
220	221	2
234	234	4
215	215	3
37	38	4
110	159	1
98	99	3
171	172	2
161	162	3
56	74	2
49	58	2
140	242	1
7	17	5
168	169	3
0	0	3
83	83	2
144	148	2
12	12	6
10	16	2
137	139	3
224	227	2
109	114	2
170	186	4
182	182	5
42	64	1
39	39	10
29	30	2
177	178	3
66	66	4
50	50	3
101	110	1
79	80	2
79	79	7
129	129	3
172	172	2
179	200	2
4	7	2
80	81	1
218	218	5
130	130	3
8	15	1
192	196	1
210	212	1
38	39	5
98	98	1
181	181	3
179	180	4
38	38	6
73	73	3
236	237	1
51	119	1
84	196	1
31	31	2
33	52	1
66	68	1
11	28	2
56	122	1
104	123	1
146	146	3
96	97	4
63	65	2
30	37	2
28	29	4
82	84	1
152	153	2
149	151	1
126	126	6
83	84	2
10	26	2
138	139	2
127	129	4
1	7	2
76	76	1
40	41	2
12	14	3
156	156	2
145	147	1
217	228	2
34	34	1
184	185	3
134	159	2
81	83	3
58	59	2
175	192	2
161	164	1
188	188	4
224	225	5
119	157	1
65	66	2
184	184	3
44	113	1
162	164	1
70	102	1
3	8	4
75	79	1
139	140	1
157	157	2
145	145	1
41	42	1
209	209	2
48	50	2
98	101	1
78	79	3
164	164	3
153	154	1
38	52	1
167	169	1
3	4	1
176	194	1
2	18	1
86	112	1
38	48	1
20	24	1
197	197	1
126	127	2
78	82	3
208	210	2
55	56	2
116	116	1
67	232	2
61	61	3
219	230	1
62	175	3
115	117	2
1	2	3
68	68	4
237	237	1
127	127	1
98	100	1
28	32	1
52	52	3
198	198	1
25	43	1
179	212	1
18	21	2
49	110	2
137	138	2
122	123	3
25	25	3
115	166	1
29	48	2
192	195	1
26	26	1
190	191	1
230	231	2
117	118	1
19	38	2
195	195	1
143	155	2
137	137	2
77	77	2
120	120	2
213	213	4
21	21	4
185	185	1
126	129	1
208	208	1
82	89	1
232	232	3
223	223	1
95	191	1
117	117	1
211	211	3
99	131	1
62	62	3
34	35	2
29	115	1
103	108	1
18	18	1
65	67	1
159	159	2
57	75	1
12	16	1
101	111	1
32	34	1
149	150	2
4	6	1
174	233	1
59	60	1
0	6	2
103	105	1
179	179	1
86	87	1
75	82	1
182	227	1
101	101	1
121	121	2
151	155	1
69	238	1
23	23	1
45	172	1
172	190	1
176	176	1
36	47	1
105	142	1
70	242	1
139	139	1
105	168	2
45	175	1
49	50	2
78	85	1
225	226	1
42	43	1
27	28	1
101	157	1
63	66	1
113	113	2
124	169	1
3	15	1
20	23	1
140	140	1
240	241	1
204	205	1
163	165	2
51	170	1
