130	131	7
19	46	2
23	41	4
129	158	3
131	131	10
128	128	4
88	132	3
81	82	1
28	28	10
80	80	5
26	26	7
151	152	2
117	117	8
74	74	1
24	50	2
57	57	2
27	27	10
86	86	7
69	69	8
157	157	6
49	49	3
37	37	6
5	6	1
89	96	1
110	110	14
14	14	5
158	158	7
83	83	3
105	105	6
147	147	6
77	77	5
77	79	2
4	4	1
123	123	3
28	37	2
82	85	3
124	124	5
36	36	1
142	142	3
146	146	5
143	143	5
16	16	5
65	65	3
103	103	3
45	45	5
53	53	4
78	78	2
25	25	3
113	113	8
52	52	1
19	33	4
84	91	2
117	118	2
139	140	3
18	18	10
45	46	4
16	46	2
118	164	2
33	34	1
112	112	9
19	20	4
123	169	5
84	84	2
7	18	2
87	87	3
41	42	4
8	8	5
34	35	1
44	44	5
51	51	4
68	69	5
55	55	6
133	133	4
95	95	3
154	154	6
68	68	5
114	114	2
108	109	2
154	159	3
57	123	4
141	142	2
10	10	3
52	103	1
96	96	3
11	11	5
111	111	2
49	50	4
48	48	3
6	7	2
150	151	4
121	121	5
71	71	2
135	135	3
20	43	1
132	160	4
53	117	1
62	119	1
43	43	4
63	79	3
82	82	5
42	42	4
151	151	7
56	57	3
8	10	2
129	129	6
163	163	3
5	9	4
133	134	2
73	114	5
137	137	5
104	105	3
9	9	7
0	0	3
92	92	1
131	164	1
46	46	2
73	111	3
85	85	4
1	2	2
101	101	3
120	120	6
10	16	4
140	142	1
6	6	5
74	76	3
17	17	4
88	88	2
169	170	2
24	24	3
127	127	2
14	15	2
138	138	1
76	77	4
99	99	3
153	153	2
156	156	3
120	121	5
7	7	7
40	40	8
22	22	11
162	162	2
19	19	3
63	63	7
75	75	2
143	147	1
12	13	2
113	114	3
81	85	3
35	35	3
46	119	3
1	35	2
45	47	1
70	70	3
21	47	2
53	54	3
48	49	1
156	160	2
106	106	1
39	39	6
102	103	3
168	169	2
57	116	1
91	91	4
157	158	2
104	104	2
147	148	4
66	66	3
148	155	1
118	165	4
152	152	1
115	115	4
57	62	2
2	2	6
105	158	1
11	15	1
64	129	1
136	136	3
10	11	1
166	166	1
20	26	3
168	168	1
97	162	1
52	134	2
159	159	1
141	151	3
149	149	3
105	106	2
40	46	1
4	5	2
144	144	2
5	133	2
99	100	4
20	21	3
140	140	1
108	110	1
100	104	1
12	15	1
168	170	2
89	95	1
9	108	1
150	150	2
57	69	1
0	39	1
66	102	1
107	111	2
12	12	2
62	62	2
82	86	2
98	98	1
122	122	2
15	16	2
119	119	2
108	108	5
151	156	1
57	162	2
165	165	2
23	40	2
162	164	1
13	13	2
100	100	2
68	99	2
69	163	2
7	16	2
18	49	1
23	24	2
126	126	2
71	105	2
90	90	3
54	54	2
169	169	1
14	44	2
141	141	1
3	3	1
41	41	2
45	73	1
68	161	2
75	101	1
85	94	1
92	131	2
125	125	3
15	15	2
123	164	2
145	145	1
139	141	1
123	127	1
89	121	1
159	161	1
21	57	1
21	42	1
21	21	1
97	97	2
33	33	3
34	34	1
11	14	1
56	116	1
5	5	1
118	118	2
126	127	1
94	94	1
148	154	2
13	44	1
109	109	1
24	37	1
161	161	1
51	115	1
6	28	1
100	116	2
86	162	1
111	112	1
1	1	1
67	123	1
116	116	1
36	43	1
138	139	1
88	89	1
137	151	1
79	85	1
162	163	1
86	87	1
118	162	1
17	26	1
56	56	1
6	58	1
39	45	1
4	44	1
