65	65	6
89	89	5
114	116	2
35	35	5
129	129	3
23	23	3
123	124	9
71	71	12
112	115	1
108	108	4
82	82	2
131	131	7
132	132	8
29	53	1
93	115	3
88	101	1
57	78	2
43	55	3
101	101	4
20	20	2
131	132	6
125	125	6
64	65	4
128	128	9
108	124	4
118	118	6
87	87	5
19	19	3
56	56	3
34	34	3
96	96	7
6	7	6
91	134	2
77	77	9
124	124	10
66	67	3
79	83	2
64	122	2
20	80	4
83	84	4
78	78	3
60	65	2
7	13	1
73	75	8
49	50	1
119	120	2
98	98	6
106	106	5
30	30	7
54	54	4
103	103	4
52	85	6
104	104	12
5	5	2
116	116	4
95	95	5
71	103	3
25	25	5
93	93	4
79	118	4
127	127	5
119	119	3
121	121	2
14	14	6
31	31	3
45	45	4
60	60	3
110	132	1
120	120	3
130	130	4
132	133	2
77	78	2
84	100	4
91	91	2
80	80	2
111	112	1
21	21	2
7	54	4
33	33	6
67	69	2
31	36	1
108	109	7
56	60	5
84	85	5
89	90	1
9	57	4
109	123	2
114	114	3
49	55	2
42	43	3
97	97	9
73	76	3
49	49	7
8	11	4
122	124	2
20	106	1
50	50	4
60	69	1
111	131	2
112	112	3
6	12	1
111	123	2
84	84	1
68	68	3
88	88	4
107	110	2
16	17	3
69	69	2
117	117	3
1	2	1
109	110	1
32	75	1
10	10	2
17	67	1
59	60	2
92	92	4
8	37	5
66	66	2
90	90	2
105	106	2
121	126	1
122	122	11
74	74	2
0	0	2
99	99	2
93	99	1
38	42	1
44	45	1
100	100	3
123	123	3
100	118	1
50	60	2
15	16	1
81	81	5
29	29	2
124	131	1
12	70	3
122	123	3
14	67	2
54	59	1
8	14	1
16	16	2
75	76	3
18	22	1
15	17	1
2	2	2
43	43	3
93	94	1
66	83	1
74	80	2
72	73	2
118	124	2
72	72	1
24	24	6
15	68	3
62	63	1
114	115	2
77	121	1
99	118	1
79	79	3
109	109	2
28	28	1
17	17	3
85	87	3
20	57	1
97	98	1
92	122	1
44	110	2
106	107	3
8	8	1
75	75	1
92	111	3
99	100	2
124	125	3
33	34	1
126	126	1
36	36	1
70	99	1
32	72	2
107	107	2
16	18	1
129	130	1
77	81	2
12	12	1
104	105	1
113	113	2
100	126	1
56	66	1
115	115	1
6	6	1
61	62	2
59	59	1
82	83	2
64	110	1
81	82	1
17	20	1
99	133	1
49	77	1
80	99	1
15	66	2
71	72	1
13	15	1
15	18	1
77	80	2
93	96	1
106	123	1
131	133	1
59	95	1
58	58	1
103	104	1
23	58	1
8	16	2
3	3	1
83	83	1
113	129	1
