32	33	10
93	93	4
95	96	9
118	118	1
37	37	4
122	122	9
13	14	5
117	119	3
101	101	11
65	65	6
131	132	4
30	65	5
33	33	14
23	23	7
99	131	4
45	46	1
64	79	1
52	52	3
79	80	4
120	120	11
119	120	7
53	53	7
79	125	2
106	129	4
56	57	2
62	62	9
116	116	15
45	119	2
17	29	4
5	5	4
69	69	16
3	3	4
4	4	1
113	125	3
89	115	4
81	99	2
128	128	8
30	30	2
95	95	5
114	114	9
112	119	3
83	83	5
5	6	3
117	117	5
58	79	5
32	32	3
133	133	11
92	92	2
43	53	5
45	48	1
100	100	3
90	90	9
112	116	3
82	83	1
19	21	1
60	60	6
59	72	2
93	97	4
110	110	5
72	72	6
38	38	4
82	92	1
62	117	3
108	110	1
6	6	11
104	104	7
22	22	6
59	59	6
130	130	6
82	88	2
64	64	3
98	98	4
111	112	3
29	33	2
44	51	2
113	113	1
66	68	2
127	127	10
100	106	2
35	35	5
14	15	3
96	96	2
88	114	1
73	74	1
132	135	2
21	21	5
107	107	12
8	11	1
28	28	2
75	75	6
99	130	3
127	128	3
108	109	4
82	112	2
111	111	2
61	61	3
68	68	3
0	2	4
58	59	4
61	64	3
122	123	2
129	132	2
22	23	3
71	76	3
67	68	3
63	63	11
6	7	3
102	102	5
0	0	3
105	105	9
125	126	4
129	130	3
91	125	2
99	99	7
109	110	3
44	45	2
73	73	9
50	50	3
80	100	2
19	19	6
70	70	1
23	68	1
88	88	6
73	119	2
86	106	4
85	129	1
62	63	2
129	129	4
77	77	4
31	31	3
9	38	2
2	2	4
114	125	3
2	4	2
16	21	2
103	103	8
14	14	3
71	71	6
36	37	5
50	123	2
110	131	2
124	125	2
80	80	5
126	126	3
11	11	5
17	35	2
7	8	1
57	58	2
81	81	1
57	57	3
106	108	3
67	70	1
58	82	2
85	91	2
12	12	2
97	98	3
23	24	1
49	123	1
82	87	1
78	78	2
21	26	2
79	79	2
84	85	2
112	113	5
32	66	2
121	121	1
115	115	5
99	100	2
34	34	4
46	47	3
127	132	3
8	8	3
77	108	1
84	113	1
106	130	2
83	84	3
56	95	2
87	87	5
26	26	2
82	133	2
121	122	1
10	10	5
130	131	1
88	117	1
76	76	2
47	47	3
53	57	2
54	54	5
134	134	1
17	17	1
86	128	1
60	77	2
25	100	2
49	49	3
120	121	1
124	126	3
33	66	1
13	17	1
9	9	2
105	106	2
84	97	2
70	71	2
18	18	1
55	58	1
65	66	1
97	109	2
45	95	2
79	81	1
16	16	1
97	100	1
3	4	2
119	124	3
80	93	4
94	94	5
7	7	3
83	96	3
60	83	1
16	19	1
58	108	1
68	69	6
85	111	1
87	111	1
84	84	2
86	86	1
8	38	2
84	111	1
62	131	1
131	131	2
95	98	2
24	24	2
112	112	1
97	97	2
91	91	1
50	55	1
30	64	1
13	13	1
36	36	1
125	125	3
9	15	1
108	108	1
52	53	2
76	77	1
25	25	1
82	85	1
29	29	1
6	8	1
76	107	1
95	97	1
4	7	1
92	118	1
10	11	1
72	73	3
59	81	1
87	117	1
75	124	1
128	134	1
100	109	1
49	50	1
42	66	1
99	106	1
36	51	1
53	54	1
124	124	1
132	132	3
83	108	1
92	93	1
21	67	1
45	56	1
128	129	2
75	114	2
79	111	2
59	82	1
74	75	1
27	27	1
67	71	1
20	22	1
85	86	1
93	94	1
96	109	1
102	103	1
55	55	1
69	85	1
