99	99	17
57	57	13
79	79	7
47	47	16
44	44	7
84	84	6
61	61	9
80	85	1
97	97	1
94	98	9
65	78	1
66	75	2
90	91	7
51	68	1
50	50	16
42	72	5
29	29	13
98	98	9
66	66	6
73	73	8
100	100	9
40	40	6
36	36	7
92	92	14
39	39	10
74	78	9
61	62	2
49	89	1
32	32	4
83	93	1
58	58	8
56	56	10
63	64	3
65	65	5
72	72	3
54	54	21
63	63	13
72	74	4
91	92	2
60	86	2
88	88	1
90	90	10
96	97	6
89	90	3
51	88	3
87	88	11
84	97	3
52	95	4
67	67	15
94	94	5
53	53	4
58	71	3
81	81	23
69	69	16
86	89	1
80	81	6
87	87	10
41	42	5
59	85	1
60	60	21
51	85	3
62	74	2
65	68	7
76	76	9
55	55	8
34	34	3
36	38	1
54	86	3
86	88	3
66	77	4
43	43	4
56	57	10
31	31	8
26	26	10
58	59	6
55	56	3
89	92	4
74	74	10
80	80	11
35	35	6
46	47	2
25	26	5
49	49	6
95	96	7
58	62	2
20	20	2
70	70	15
89	89	6
97	98	5
71	71	10
33	34	3
70	71	4
66	74	2
77	77	5
63	65	4
67	68	5
47	48	12
45	45	1
92	93	1
79	84	2
68	68	6
79	93	2
27	28	1
64	64	9
99	101	2
82	93	2
101	101	17
62	62	11
49	99	6
59	59	9
69	73	3
83	84	4
75	75	8
49	92	1
41	99	1
68	69	2
55	86	1
49	50	3
60	85	3
79	81	5
38	38	3
69	70	4
46	46	5
98	99	1
42	42	1
37	37	7
70	76	1
41	41	9
41	102	1
74	75	4
29	31	2
93	93	5
48	48	10
27	27	2
91	91	5
46	52	1
33	46	1
60	63	3
56	89	1
86	86	3
33	33	4
85	85	3
36	37	1
95	98	1
60	61	1
72	73	3
58	60	1
73	90	2
54	55	1
51	90	2
47	55	2
78	78	4
96	98	2
54	96	2
48	99	2
56	74	1
45	46	1
83	83	7
52	52	6
73	86	1
35	36	4
81	82	2
51	51	3
34	35	1
55	59	3
48	98	2
96	96	2
99	100	2
80	100	3
24	24	1
46	48	1
80	96	3
45	48	5
78	91	2
95	95	3
31	42	2
33	47	1
59	88	4
80	93	1
95	97	6
62	73	4
62	63	4
55	91	1
47	75	1
73	74	1
85	91	3
41	51	2
50	51	1
49	101	1
76	77	3
51	92	1
67	78	1
49	64	1
53	89	1
35	37	2
53	54	1
25	25	3
53	88	1
23	24	1
57	59	1
53	60	1
82	82	2
30	30	3
46	89	1
51	52	1
93	97	1
87	93	1
51	86	1
23	23	1
55	75	1
93	98	1
93	96	1
49	59	1
45	51	1
91	93	1
46	93	1
