59	59	2
92	153	2
117	117	2
129	129	3
99	111	4
128	134	4
23	125	3
38	66	3
92	97	3
84	127	2
114	114	3
97	105	1
72	76	4
115	116	7
116	131	3
121	121	2
55	55	5
109	110	3
63	63	4
174	174	3
116	116	8
102	103	1
36	36	3
104	104	2
141	142	1
39	40	1
116	119	1
40	115	4
45	46	6
183	183	4
27	27	4
135	135	4
109	109	5
108	108	5
148	151	6
34	34	4
159	160	1
43	44	5
177	177	2
35	35	4
46	46	1
11	12	1
119	119	5
140	144	4
155	155	1
75	150	1
13	13	4
106	108	4
103	103	5
118	118	9
157	157	3
15	16	3
106	106	6
103	110	2
166	173	1
167	187	1
140	140	5
26	29	1
154	154	6
111	112	3
122	122	6
99	99	1
34	121	2
115	119	2
91	91	4
138	138	3
149	149	7
101	103	2
37	66	1
39	39	3
71	128	2
102	124	1
136	136	8
43	43	4
120	121	2
164	177	1
148	148	2
101	124	2
100	112	1
2	2	13
38	123	3
74	74	3
130	130	5
137	137	7
168	170	2
80	85	1
104	109	3
123	123	7
62	62	2
73	79	1
30	30	4
3	3	1
24	24	4
27	44	2
142	142	6
11	11	1
94	94	5
150	172	2
111	111	4
165	165	1
125	126	3
56	56	1
25	37	3
93	95	2
81	118	1
9	9	1
113	113	2
134	134	2
122	162	2
141	170	4
85	105	3
190	190	4
95	95	2
26	32	1
25	25	3
40	40	1
150	188	2
10	21	1
24	125	1
79	79	1
15	15	1
0	3	1
180	183	1
164	164	4
61	61	2
0	0	3
8	8	5
73	73	5
179	179	4
18	18	2
57	111	1
94	95	1
89	95	3
62	63	2
38	114	1
116	117	3
133	136	1
31	31	3
53	111	1
163	163	2
144	145	4
149	150	1
45	45	7
26	26	3
63	64	2
90	90	5
13	33	3
20	22	2
37	37	3
132	133	1
153	153	2
44	44	4
152	152	3
134	135	2
3	8	3
155	180	1
37	41	3
56	57	2
68	68	1
12	12	1
124	124	6
28	28	3
115	121	2
125	125	2
16	20	1
158	158	4
86	86	1
38	38	3
79	84	1
178	178	1
150	151	1
19	25	2
131	131	1
41	44	5
81	81	1
29	29	1
17	18	1
48	48	5
110	110	1
178	179	2
189	190	1
20	20	2
57	57	2
175	175	5
5	5	2
75	148	3
11	27	1
141	141	2
73	78	2
175	176	1
26	30	1
12	13	2
80	82	2
124	163	1
126	126	1
21	22	1
80	80	2
171	171	2
54	54	1
173	184	1
87	87	1
181	182	2
47	47	2
92	102	1
149	171	1
93	93	2
14	14	3
17	17	2
26	59	2
39	121	1
126	127	1
36	37	3
16	17	1
32	33	1
25	126	2
101	126	1
22	23	2
185	186	1
33	36	2
143	143	2
120	120	2
142	149	1
46	47	1
35	62	2
10	17	1
2	7	1
116	118	1
139	139	1
169	187	1
23	31	1
33	33	1
64	72	2
127	127	2
58	58	1
75	75	2
43	65	1
64	64	1
90	91	1
127	128	1
150	150	2
29	30	2
145	145	1
156	162	1
7	7	2
128	129	1
4	4	3
172	184	1
156	156	1
182	182	1
149	156	1
102	123	1
89	89	1
56	110	1
125	165	1
23	24	1
149	172	1
103	113	1
149	161	1
67	67	1
11	82	1
96	96	1
151	183	1
107	107	1
152	153	1
156	158	1
185	185	1
101	102	1
