111	112	6
25	25	4
15	16	3
119	147	1
146	146	8
53	53	11
41	42	8
130	130	11
55	55	5
167	167	2
3	3	7
28	29	4
122	123	4
1	1	8
176	176	5
74	74	5
170	170	3
1	4	2
16	18	3
50	50	5
76	77	3
41	41	13
25	142	5
11	11	20
36	37	6
149	149	2
79	79	8
14	32	2
35	36	4
109	159	2
114	114	7
159	161	4
58	61	4
177	177	3
67	106	1
109	109	4
15	15	13
81	81	7
39	39	7
76	124	2
25	26	6
154	155	4
154	154	7
141	141	18
159	159	10
16	16	17
144	144	5
66	75	3
52	52	7
50	52	6
13	13	22
23	24	11
90	94	2
37	37	22
145	167	2
175	178	1
121	121	7
117	117	2
80	80	11
54	54	4
10	13	1
112	133	4
28	36	2
152	152	9
99	100	2
31	31	13
20	20	6
157	159	7
171	171	7
56	60	2
17	17	17
42	43	3
0	14	1
51	51	7
125	125	8
40	40	12
77	77	7
23	23	11
172	172	7
133	135	3
6	6	13
158	158	12
160	160	4
6	7	1
43	43	18
95	95	10
137	137	10
30	31	2
13	15	5
29	30	7
94	94	5
36	36	13
29	29	18
170	171	3
107	107	4
7	7	10
38	38	16
77	108	2
56	56	5
6	19	4
62	64	4
1	55	1
132	132	2
4	5	10
32	33	4
127	127	17
19	19	3
165	165	9
134	134	14
157	160	2
35	35	4
18	18	5
84	84	4
9	13	1
39	40	5
9	9	11
38	106	5
5	5	7
11	15	1
94	149	1
37	38	8
29	58	2
180	180	4
24	24	12
108	149	1
139	139	9
94	95	2
2	44	2
75	75	4
10	10	18
86	87	2
43	44	5
124	134	1
119	119	2
66	68	2
22	27	1
0	1	8
151	151	1
131	131	6
87	107	2
147	176	1
98	98	11
173	173	5
89	89	6
106	106	4
100	100	1
92	92	5
174	175	4
28	28	13
147	147	3
164	164	3
113	114	2
82	82	4
91	94	1
168	168	9
137	153	1
130	132	3
128	135	7
3	9	3
71	71	8
62	63	2
135	139	2
72	72	4
2	6	1
124	124	4
9	10	2
132	133	3
74	106	1
34	34	6
21	21	6
43	61	5
11	12	3
32	32	20
149	150	8
98	99	2
137	139	2
12	12	2
42	42	10
104	104	2
135	135	5
19	33	2
65	66	2
44	61	1
115	115	7
79	106	2
101	113	3
146	162	2
78	78	2
7	11	3
14	25	4
20	31	1
14	14	13
140	141	2
141	142	6
135	160	3
0	0	7
136	152	2
57	59	1
57	57	9
10	11	2
153	153	4
13	14	7
52	53	6
27	28	2
6	15	4
45	62	1
77	79	1
104	124	1
64	64	5
9	11	1
111	150	1
135	151	5
73	73	3
123	124	2
4	13	3
95	124	1
135	136	3
90	93	2
85	85	8
60	78	1
14	15	3
38	39	9
96	96	2
148	148	8
160	161	3
27	30	1
27	27	5
45	45	9
2	7	4
120	120	10
156	156	1
44	45	7
91	92	5
58	59	1
124	125	1
97	97	7
3	10	2
130	136	6
58	66	3
166	166	10
63	63	7
118	118	4
167	169	2
155	155	7
108	108	3
65	65	3
74	77	1
101	101	5
140	140	3
134	152	3
6	10	3
97	126	1
90	91	2
161	161	3
112	112	9
26	26	2
62	62	4
5	10	1
162	162	6
136	163	2
33	33	16
52	58	2
8	9	2
88	88	1
16	17	6
90	90	4
123	123	4
103	103	2
138	139	4
116	145	1
44	44	10
101	103	2
59	80	2
24	25	4
163	163	3
113	113	3
71	72	3
51	53	2
152	156	2
8	8	8
166	169	3
24	27	1
129	136	1
63	64	1
102	103	9
11	35	5
64	75	1
9	15	3
2	12	2
70	71	2
108	157	1
99	101	1
110	110	1
131	136	1
153	157	1
153	161	3
33	35	5
21	52	4
93	94	1
85	86	6
57	61	1
24	26	2
112	167	3
8	10	2
97	98	2
118	149	2
36	38	3
23	25	5
118	119	2
24	33	1
35	73	3
45	46	1
87	135	2
5	6	2
39	43	4
30	30	2
11	23	1
11	13	2
161	162	5
6	26	2
174	174	1
4	4	5
143	143	4
138	138	2
61	78	1
66	76	2
168	169	6
129	129	1
126	126	2
178	178	3
56	57	3
144	165	1
91	91	3
19	42	2
172	173	2
96	105	2
113	115	1
67	67	4
76	125	1
148	149	1
22	22	12
169	170	1
64	66	2
136	136	2
61	62	3
107	120	1
28	30	1
144	161	2
83	83	1
173	176	1
60	61	10
17	28	1
136	137	3
12	13	1
122	122	2
60	60	5
143	150	1
165	166	5
42	45	1
38	40	1
142	143	3
75	76	1
158	159	3
5	7	2
10	34	2
73	103	1
3	29	2
155	156	1
29	52	1
35	40	2
108	117	1
116	123	1
17	18	1
114	115	2
163	164	1
51	145	1
95	120	1
141	143	2
139	150	1
17	137	1
106	130	1
107	130	1
66	66	1
14	19	2
75	81	2
21	22	2
137	138	4
76	76	3
39	41	2
13	26	1
1	2	2
59	59	1
73	74	1
68	68	4
34	35	1
155	157	1
4	51	3
16	19	4
5	16	1
92	132	1
85	87	1
103	122	2
87	88	1
157	157	1
2	2	1
89	90	2
108	161	2
84	97	1
173	175	3
9	34	1
22	23	5
2	11	3
163	166	1
149	159	1
13	22	1
109	110	1
23	37	1
56	58	1
133	133	1
116	116	3
131	132	1
118	160	1
115	146	1
166	168	3
65	77	2
145	146	1
20	21	1
173	174	1
142	142	3
127	129	2
105	105	2
3	23	1
164	165	3
3	4	2
149	158	1
50	51	1
144	153	1
159	160	2
150	151	1
98	100	1
23	138	2
1	43	1
153	155	1
143	145	1
6	43	1
157	158	1
58	58	2
4	6	1
104	105	1
169	169	8
18	19	1
42	143	2
126	127	3
26	27	1
17	30	2
31	32	1
80	86	4
71	76	1
152	154	1
54	55	1
102	127	1
177	178	1
144	145	1
35	37	1
96	120	1
87	99	1
92	123	1
91	107	1
61	61	1
11	40	1
19	20	1
134	135	1
172	176	1
40	41	1
147	153	1
145	179	1
82	85	1
130	131	1
88	89	1
30	40	1
87	87	1
81	121	1
1	6	2
29	38	1
7	8	1
73	75	1
10	28	1
105	107	1
179	180	1
74	105	1
65	83	1
17	23	1
102	102	1
27	143	1
151	153	1
21	33	1
144	169	1
73	76	1
110	111	1
60	80	1
147	148	1
16	25	1
88	102	1
40	42	1
