131	131	5
121	122	3
78	92	2
85	86	1
89	135	1
98	98	6
109	120	2
119	119	2
26	29	4
25	25	4
131	132	5
126	127	2
3	4	4
76	76	3
88	88	1
4	4	7
7	7	2
76	123	1
19	19	1
126	126	5
139	139	4
98	135	2
20	22	2
73	73	7
36	36	5
129	129	11
124	124	5
116	116	3
107	107	6
135	137	1
125	125	3
95	138	1
15	15	9
77	77	8
118	118	7
111	111	4
135	136	3
122	122	3
113	113	5
108	108	4
90	90	5
112	112	3
16	16	5
78	78	5
94	95	2
83	83	2
128	129	2
84	85	2
71	79	2
117	117	5
10	31	5
71	96	3
139	140	6
31	31	4
12	12	1
7	16	1
33	33	4
14	23	2
127	127	3
1	1	1
27	28	2
132	138	1
7	8	2
137	137	6
13	14	8
93	93	3
82	85	3
104	105	5
75	116	4
27	27	4
35	35	2
89	94	3
108	115	2
132	132	11
5	6	1
89	89	3
71	76	3
94	99	3
120	133	2
138	138	6
83	120	3
135	135	2
30	30	1
85	85	2
97	134	3
74	75	1
100	100	3
101	115	2
72	72	3
134	134	5
114	114	1
123	123	3
12	13	1
73	120	2
120	122	3
18	18	8
37	38	1
118	119	2
71	72	2
115	115	3
98	100	1
94	94	4
11	11	1
5	27	2
35	36	1
17	18	5
0	38	3
101	103	2
5	5	2
106	106	1
123	124	1
91	91	2
133	135	1
125	126	4
110	110	4
6	29	2
32	33	3
0	14	1
140	140	4
97	97	3
104	106	2
1	12	1
120	120	4
116	119	1
79	80	1
20	20	6
97	101	1
90	91	2
88	95	2
133	133	2
86	114	1
15	16	2
124	125	2
28	28	1
17	17	2
92	103	2
2	2	3
21	21	1
136	136	3
14	14	3
128	128	1
135	138	2
26	26	2
137	138	1
120	121	1
96	140	2
74	74	1
134	136	1
101	101	2
82	83	1
113	114	2
84	84	2
130	130	3
97	124	1
2	3	1
121	121	2
100	102	1
81	83	1
87	87	1
107	119	1
127	130	1
102	102	1
131	139	1
3	3	1
105	105	1
119	122	1
99	99	1
6	7	3
105	121	1
121	132	1
14	17	1
