29	29	18
117	118	3
28	28	8
135	135	9
38	38	14
47	47	7
98	100	2
64	64	8
124	124	11
58	82	1
130	130	7
129	129	10
88	88	3
64	67	4
90	91	5
59	59	14
65	66	8
137	139	4
75	75	5
99	99	10
78	79	3
104	104	5
27	37	4
105	105	4
115	115	3
126	126	12
84	84	3
83	85	2
22	22	9
75	80	2
3	3	4
91	91	13
39	55	2
18	18	13
49	49	7
58	58	1
134	134	17
16	40	2
112	112	7
8	9	3
72	72	4
70	70	8
50	50	6
142	142	12
110	112	7
143	144	8
79	79	9
40	40	2
66	66	2
41	41	9
72	74	2
47	48	2
32	128	1
62	62	6
10	10	2
113	115	2
122	123	8
109	110	1
39	39	3
139	142	6
116	116	3
126	130	2
81	81	2
115	134	4
11	11	9
19	19	11
135	143	1
131	131	8
73	73	7
4	4	9
117	144	1
129	130	7
101	120	1
1	1	1
95	95	9
95	112	1
142	143	1
57	57	9
98	98	6
67	67	6
110	110	8
32	39	1
106	112	2
126	141	2
56	64	1
59	61	2
23	23	10
55	57	1
121	121	2
52	52	8
118	118	12
96	96	9
66	74	6
65	71	1
103	103	4
0	0	8
119	143	2
79	80	3
136	137	3
14	14	3
105	109	3
111	112	3
100	101	4
99	100	1
106	131	2
17	17	5
28	29	4
2	3	1
0	15	2
32	126	4
22	23	9
122	122	8
75	82	3
143	143	8
2	21	6
141	141	6
27	27	5
21	22	1
25	25	9
134	135	8
123	132	2
145	145	4
5	14	3
15	16	2
124	126	4
35	54	1
85	88	1
34	35	4
118	119	2
66	67	2
100	120	2
24	24	2
74	74	2
117	120	1
31	31	4
51	51	7
126	131	1
113	113	6
1	9	1
135	136	8
73	74	1
26	110	2
119	119	3
72	84	1
4	5	8
15	15	4
128	128	7
101	101	8
13	14	5
133	134	3
71	71	11
41	62	3
97	97	2
53	53	6
63	63	5
42	47	2
139	139	2
112	113	1
40	41	1
53	61	3
56	57	5
70	72	1
135	138	2
95	110	4
55	55	5
90	90	10
50	65	1
80	80	7
33	140	1
141	143	2
120	120	3
139	140	2
130	131	3
39	40	3
127	128	2
105	106	2
87	87	1
83	84	2
122	135	1
60	60	1
59	60	2
16	16	2
88	89	2
48	48	2
102	102	3
126	127	3
36	36	6
101	102	1
127	130	4
117	134	4
114	115	1
125	126	3
131	132	4
47	50	3
95	96	4
21	21	3
58	69	4
32	32	4
10	11	2
69	69	3
92	92	1
57	62	1
68	69	5
140	142	1
27	137	1
38	57	1
136	138	2
50	55	2
31	32	1
76	79	1
133	133	3
116	118	2
68	68	5
13	13	10
42	99	3
18	42	1
111	113	2
113	116	5
141	142	5
72	73	1
33	33	1
138	139	2
107	108	2
92	93	1
6	6	1
93	94	1
115	116	1
72	85	2
81	99	1
12	13	1
102	129	2
1	10	1
144	144	3
12	12	3
62	74	2
54	57	1
50	51	2
134	138	3
86	86	1
62	63	1
67	68	2
84	87	2
86	87	2
70	71	8
74	75	3
20	21	2
26	26	3
31	36	1
123	123	3
50	58	3
104	108	1
77	77	5
8	8	5
138	138	2
128	129	3
20	20	1
34	34	1
27	142	1
87	88	3
124	125	1
74	81	1
140	141	2
125	141	1
113	114	3
136	139	1
14	15	1
61	61	4
125	125	3
106	106	1
82	84	1
0	12	1
140	140	4
114	114	6
43	43	2
117	117	5
120	128	1
63	81	1
78	78	1
50	53	2
2	2	3
25	108	1
109	109	1
99	101	1
56	56	3
119	135	2
35	35	1
26	135	2
47	66	2
69	90	1
133	141	1
5	5	1
42	42	1
96	97	1
15	27	2
69	87	2
84	85	2
24	27	1
81	91	1
136	136	2
95	134	1
33	139	1
99	119	1
98	99	1
121	122	1
96	130	1
54	54	1
111	111	1
108	108	1
137	138	1
54	68	2
110	121	1
54	55	1
