48	52	3
68	68	9
50	51	6
53	53	13
29	29	17
70	70	10
61	63	5
61	65	2
57	57	14
2	2	12
28	29	6
39	40	1
75	75	8
41	41	8
74	74	8
26	28	5
54	54	5
57	68	2
31	53	2
9	9	15
20	20	13
21	22	2
57	59	3
46	46	16
14	14	2
67	67	12
19	19	6
26	26	14
7	7	2
24	37	7
33	33	12
56	56	10
10	10	4
69	70	11
8	8	9
63	63	2
37	37	14
12	58	1
11	11	2
73	73	7
47	50	1
3	7	2
43	43	7
22	33	5
69	69	12
7	8	13
65	65	12
59	66	1
41	42	13
58	58	11
6	6	19
45	45	14
24	24	10
62	62	4
27	28	4
35	36	9
10	11	12
68	70	1
12	12	14
32	36	4
48	48	13
5	57	3
25	25	4
5	5	13
42	42	18
37	38	9
77	77	6
60	60	9
30	31	7
48	54	3
74	77	3
51	64	6
67	73	4
4	7	1
49	53	3
36	38	1
71	71	15
31	35	4
27	27	8
54	57	3
64	64	8
32	32	14
7	11	1
34	34	8
68	69	8
51	51	7
26	27	10
75	76	4
33	34	2
28	28	8
0	1	4
4	13	3
53	59	4
56	60	2
42	43	11
29	39	1
72	72	6
52	55	5
23	23	5
55	58	2
22	22	8
0	10	5
27	29	3
33	35	2
48	49	2
5	14	4
66	66	4
44	45	7
62	63	1
67	68	4
8	75	5
1	60	5
69	77	3
34	39	2
50	54	1
25	28	5
52	69	2
44	44	5
30	30	4
23	24	2
36	36	5
47	49	1
61	62	9
30	50	1
4	4	3
49	49	7
35	35	9
64	65	5
5	9	3
59	59	1
33	76	1
62	66	4
73	74	7
50	52	1
0	0	4
62	77	5
63	64	3
20	21	6
22	23	7
62	67	3
24	25	1
4	6	5
1	14	4
50	50	10
34	36	1
21	26	2
76	76	1
63	76	2
50	72	3
55	56	5
66	69	5
55	55	5
9	26	1
30	51	1
50	73	4
1	2	3
7	12	1
52	68	6
21	70	3
76	77	2
18	18	4
13	52	3
12	57	5
28	30	1
40	41	7
63	68	4
68	76	2
57	58	5
53	54	2
39	39	7
73	75	4
33	45	1
25	26	2
66	67	3
68	72	2
18	19	2
61	61	5
37	69	1
35	37	6
23	25	2
22	31	2
52	53	2
52	52	4
1	1	1
19	20	2
2	12	3
23	28	2
3	3	2
3	30	6
45	46	2
4	30	3
6	29	2
31	50	1
32	34	1
35	70	3
49	51	1
13	58	2
38	38	6
58	69	2
6	7	3
38	39	3
46	48	1
32	58	2
40	40	4
7	34	1
48	50	1
43	47	1
22	25	2
42	51	1
9	11	2
29	53	1
12	54	1
2	3	1
36	37	2
3	57	1
70	71	2
13	47	2
47	47	6
32	37	1
12	74	2
0	31	3
29	44	1
60	62	1
21	21	2
60	68	2
11	12	1
56	57	1
36	50	1
29	30	2
4	8	1
40	48	2
58	61	1
34	76	1
1	7	1
13	13	2
58	59	1
27	64	1
44	51	1
19	77	1
33	48	1
34	38	1
31	31	2
43	51	1
42	74	1
