5	6	12
105	169	2
9	42	11
181	181	12
149	149	20
10	14	10
130	131	13
53	57	3
45	45	12
0	1	6
189	189	23
73	80	3
100	111	3
176	177	6
133	157	3
27	58	6
135	135	37
57	57	11
112	113	8
122	127	8
28	28	22
2	2	12
168	169	6
65	65	5
185	185	13
196	197	11
133	194	2
50	50	21
116	117	6
42	46	10
52	52	24
100	100	17
182	182	25
19	22	2
136	152	1
190	191	5
136	136	23
32	32	10
182	183	12
137	137	26
155	155	16
79	79	8
175	175	18
59	61	2
152	156	4
62	87	3
77	78	7
114	115	12
0	46	2
58	58	18
111	127	2
158	158	28
178	178	15
94	110	3
21	21	6
4	4	9
125	126	7
76	76	27
197	197	17
9	9	41
34	34	22
184	184	18
17	17	27
37	37	18
36	36	18
135	136	20
94	95	12
15	18	5
5	5	17
194	194	21
183	183	31
108	108	8
124	124	22
150	150	11
146	146	10
10	10	9
6	8	6
77	77	5
29	29	21
120	120	16
139	139	20
148	148	13
81	114	3
136	176	4
78	79	5
130	132	6
74	74	10
152	152	16
128	133	5
14	52	1
167	168	7
161	166	4
169	169	29
19	19	8
176	178	11
49	49	29
64	66	7
23	23	17
69	70	15
27	27	27
153	153	13
121	121	27
112	112	16
55	56	9
49	50	7
125	125	8
35	35	13
162	162	14
68	68	13
72	79	1
116	118	4
43	43	8
96	96	14
25	25	5
158	179	4
11	11	16
119	119	26
103	103	9
138	139	13
138	140	6
157	157	12
174	174	22
55	70	4
96	97	19
193	193	18
40	41	7
139	140	1
172	174	4
99	108	2
143	143	13
108	143	5
30	30	12
192	192	22
99	99	19
11	12	21
141	141	15
164	164	6
161	161	21
190	190	19
37	38	12
59	59	12
13	14	10
147	147	24
187	187	33
119	135	4
196	196	19
9	41	12
46	46	17
121	122	15
172	173	7
159	160	5
61	63	4
130	130	6
134	134	25
154	154	9
105	105	16
14	14	12
24	24	15
133	133	9
36	120	3
31	32	2
132	132	16
183	187	3
1	15	5
43	44	6
163	163	16
109	109	4
191	192	16
132	197	2
54	58	2
149	152	4
2	3	6
140	140	16
124	125	4
114	114	19
26	130	2
160	160	28
165	172	6
151	151	16
128	128	16
65	78	7
80	81	4
15	23	1
144	144	14
143	144	3
156	157	5
127	133	2
131	131	7
7	40	5
1	1	12
13	13	6
177	177	13
15	15	15
18	18	10
105	129	1
187	193	4
185	186	7
48	50	6
63	65	4
178	182	2
186	194	1
68	70	2
145	145	4
22	33	5
113	119	6
77	87	3
187	194	3
66	69	2
24	25	5
54	54	22
127	194	2
142	142	7
87	88	6
112	141	3
125	164	4
3	3	22
147	148	10
131	132	4
10	12	5
44	44	10
173	174	9
5	11	2
137	176	5
143	146	3
179	179	24
129	193	1
53	53	19
184	185	6
188	188	27
36	37	5
1	3	10
171	171	19
174	175	5
93	93	6
139	178	3
101	102	7
173	173	22
183	184	8
65	66	3
108	168	5
187	188	10
169	193	1
93	94	12
48	190	3
170	193	6
45	72	3
16	17	13
38	38	14
34	118	3
143	152	5
117	117	6
106	106	6
117	118	3
27	30	1
84	192	3
168	173	3
107	115	3
51	51	16
105	124	10
168	168	15
160	161	12
83	88	3
64	64	5
155	161	3
41	42	6
105	106	1
74	75	5
48	48	30
42	42	28
44	47	2
113	113	14
157	161	4
172	172	16
138	138	22
117	132	4
70	71	8
2	4	1
170	170	17
166	172	2
77	112	3
122	122	14
16	16	22
160	163	1
88	111	4
88	89	4
95	95	13
20	21	6
86	86	5
110	111	2
45	46	12
0	18	5
0	0	13
136	137	3
58	61	3
45	47	4
39	39	10
108	109	2
99	100	8
186	186	17
113	117	4
43	47	1
80	80	3
9	11	1
26	26	21
181	182	4
171	192	2
107	107	7
110	110	12
33	33	9
12	67	1
171	172	10
32	33	11
41	41	8
8	37	4
127	184	1
151	152	21
188	193	1
87	87	2
115	115	11
170	173	6
117	135	2
14	50	1
72	72	6
45	50	1
108	111	7
29	30	2
16	19	4
116	192	1
156	156	10
6	7	9
188	192	6
28	29	7
31	31	18
126	126	28
20	30	5
174	193	4
81	83	4
4	69	3
193	194	11
97	97	6
94	94	10
189	193	5
103	104	4
40	40	11
176	176	17
127	127	5
5	26	1
167	167	5
133	134	4
159	161	2
175	176	8
71	71	9
170	171	13
98	98	7
52	56	2
148	154	3
100	102	4
129	129	11
22	26	3
44	45	6
63	63	3
148	149	11
31	57	3
165	165	6
7	29	2
104	104	22
166	166	4
53	58	7
100	106	2
46	47	2
191	191	12
22	39	3
51	52	9
23	66	6
79	80	5
119	120	14
111	144	3
17	18	5
47	47	14
34	35	11
123	124	1
66	66	13
187	192	7
102	102	13
123	123	18
33	34	5
85	86	3
6	6	4
179	181	1
25	26	2
8	8	8
114	133	3
125	183	7
150	151	3
10	11	4
113	114	4
98	100	2
67	69	11
184	186	1
124	128	1
154	155	16
22	22	13
169	170	7
12	12	13
99	103	4
6	22	2
13	127	4
50	51	6
3	39	4
99	101	2
32	51	1
55	55	15
71	72	2
73	73	10
5	67	3
180	190	4
150	156	3
135	177	2
155	159	1
29	70	1
83	84	4
153	155	5
67	67	8
157	158	8
111	111	7
137	138	6
188	189	7
29	31	3
158	159	1
38	39	4
29	54	2
24	81	1
5	40	1
172	176	2
66	67	7
106	141	1
35	120	1
59	60	4
81	81	13
133	171	2
17	23	4
139	142	2
31	38	2
155	156	2
1	2	7
112	118	4
23	41	1
136	177	4
143	153	2
65	73	6
62	62	6
66	68	2
180	180	4
5	68	2
5	7	4
128	193	1
146	147	5
30	52	2
190	192	4
45	48	1
4	8	2
52	53	2
115	118	3
27	28	6
143	167	2
116	131	6
185	187	2
139	152	4
107	108	2
126	188	2
118	118	5
138	141	1
131	188	2
12	14	4
116	116	3
23	24	4
120	121	5
9	189	2
86	105	1
10	123	4
128	129	9
26	131	2
8	40	3
133	193	2
7	7	6
147	149	3
23	134	2
61	61	4
70	70	6
178	179	5
195	195	8
86	87	4
11	13	1
121	123	2
21	22	2
188	190	2
159	159	12
93	110	1
135	154	1
82	82	2
5	39	1
42	44	2
107	113	1
98	109	4
163	164	2
113	118	2
48	49	3
10	44	2
85	85	2
139	143	1
189	190	5
140	150	4
77	116	2
63	66	3
4	189	4
101	101	5
89	112	1
8	12	1
37	41	5
73	74	7
103	105	5
42	43	3
155	172	1
159	167	4
106	107	4
162	163	9
106	108	1
89	89	3
135	156	1
45	71	2
137	142	2
135	137	4
149	150	6
192	193	3
75	76	1
88	88	3
159	166	1
185	189	4
122	123	3
6	182	2
187	189	5
12	30	2
134	194	2
140	141	3
110	114	2
128	136	4
43	45	3
39	40	8
98	107	2
108	110	1
126	127	5
116	134	4
146	148	2
5	34	2
169	172	1
54	55	5
18	31	1
144	152	2
184	187	2
186	187	3
16	32	3
129	130	4
168	170	4
119	121	1
95	96	5
4	42	2
56	56	6
166	167	3
12	127	1
24	67	2
68	73	4
31	52	3
125	127	4
27	33	4
89	111	3
22	40	1
4	9	2
153	154	3
101	125	3
47	48	1
164	165	1
44	46	6
167	172	1
62	63	3
76	78	4
29	39	4
65	72	1
3	4	6
179	180	4
9	12	1
190	193	1
148	150	6
5	8	1
155	178	1
173	176	1
86	89	3
152	153	7
24	40	4
115	117	1
174	189	4
171	191	5
132	134	1
6	16	1
23	27	1
123	125	2
129	142	3
130	133	1
103	125	1
186	190	2
11	121	1
30	32	2
140	177	4
127	134	2
122	187	1
111	135	1
15	30	2
6	190	1
133	179	2
22	35	2
161	163	1
120	122	2
157	179	2
177	178	1
174	177	4
73	75	3
12	43	1
43	46	3
152	173	1
177	188	3
121	127	3
138	184	1
173	175	1
43	51	2
182	184	1
11	17	2
63	64	2
143	145	1
160	179	2
54	69	1
10	15	3
13	41	2
106	170	1
181	183	1
60	61	1
128	185	1
7	191	4
12	13	4
2	19	2
53	54	3
97	98	2
60	60	3
182	193	1
17	70	7
132	133	2
170	172	3
15	41	1
2	20	5
152	155	2
50	52	2
106	113	1
63	76	3
195	196	2
9	43	2
83	118	3
32	36	1
23	67	1
136	154	1
93	109	1
158	160	2
11	125	1
142	147	2
132	193	1
107	169	1
0	2	1
146	150	1
38	42	1
144	145	1
163	182	1
4	191	1
178	180	3
113	115	1
39	182	2
145	146	1
111	134	2
4	71	1
136	138	6
183	188	1
15	16	5
0	20	1
185	193	1
100	101	2
151	172	1
64	78	3
172	191	2
69	69	2
8	41	2
122	125	1
9	14	1
30	31	2
27	59	3
136	139	1
144	153	1
121	129	1
111	112	1
82	84	3
131	197	2
119	134	3
76	77	1
4	41	1
104	106	1
67	68	2
1	21	1
10	42	1
128	184	1
148	157	1
8	191	1
8	39	3
118	133	1
6	40	1
36	121	2
134	137	1
111	129	2
142	143	1
161	162	2
53	56	1
100	109	1
17	31	1
134	150	1
37	42	3
64	65	1
142	176	1
89	117	2
98	106	1
134	138	1
0	3	1
162	164	2
103	111	1
10	13	1
118	119	1
127	195	1
13	16	1
105	115	1
3	5	1
0	79	1
93	96	1
28	30	2
142	170	1
94	98	1
168	172	1
39	181	1
57	58	1
107	168	1
160	162	1
19	21	1
28	31	1
120	123	1
8	38	1
135	176	1
104	105	1
18	71	1
103	156	1
142	152	1
124	126	2
148	151	1
150	196	1
77	83	1
26	61	1
81	192	1
115	132	1
38	183	1
32	45	1
134	193	1
194	195	1
18	73	1
28	39	1
86	88	1
68	69	1
