105	105	4
40	45	3
88	105	5
131	131	4
83	83	3
8	8	13
118	119	5
107	131	5
76	77	4
110	110	6
104	104	7
52	53	7
107	107	2
123	123	2
50	50	13
0	1	2
111	111	10
53	56	3
10	91	1
72	84	2
72	75	2
44	44	2
126	127	6
103	118	4
19	19	3
108	108	4
85	88	3
9	9	8
15	17	4
112	113	1
132	133	7
63	67	1
129	129	7
31	43	2
62	62	3
86	88	3
13	14	2
120	132	1
59	59	5
8	9	1
32	57	3
0	27	3
52	52	1
101	102	3
106	106	2
85	85	5
7	7	4
68	102	3
101	108	1
54	56	2
47	47	4
18	18	7
71	71	7
41	44	5
51	51	2
23	23	2
54	54	6
111	121	1
20	39	3
29	29	3
114	114	5
0	0	4
102	102	8
63	69	1
125	125	5
90	90	3
114	120	4
3	3	5
109	109	2
131	133	1
68	68	3
109	120	4
86	96	3
92	92	3
14	15	1
130	130	2
96	124	2
24	24	3
29	30	3
130	131	4
16	16	5
111	112	2
49	50	3
10	10	7
77	78	4
56	56	7
45	46	3
26	26	2
91	91	5
55	55	5
122	123	3
120	121	3
113	120	2
88	88	1
98	98	2
91	98	4
120	120	2
122	122	4
66	66	3
67	86	1
57	57	3
53	53	10
48	48	7
112	112	8
32	32	4
90	92	2
114	116	4
59	60	3
16	17	3
124	125	2
81	81	1
121	121	5
64	64	5
51	53	2
26	49	3
50	51	3
46	46	8
61	68	3
30	31	3
58	58	5
50	98	1
9	15	2
14	14	1
80	96	2
18	19	2
128	128	1
7	38	1
20	20	7
6	6	7
84	86	4
55	133	1
51	52	2
100	130	1
41	46	1
49	49	8
83	111	1
33	33	1
65	65	2
5	6	1
109	110	1
30	30	1
108	109	1
19	20	2
28	30	1
113	113	5
106	107	1
87	88	1
12	12	2
7	8	1
60	60	1
67	67	1
0	70	1
58	69	2
2	3	1
65	110	1
42	42	2
72	72	1
127	127	1
99	99	2
25	33	1
62	63	1
96	97	1
16	20	1
119	119	1
46	56	1
21	26	1
45	45	2
97	97	1
2	2	3
11	11	1
132	132	2
116	128	1
17	17	2
85	86	2
38	38	1
74	74	1
6	7	4
41	42	1
79	79	3
41	41	3
56	57	1
69	69	1
4	5	2
86	86	3
75	76	2
85	109	1
114	115	1
70	70	3
34	43	1
96	96	1
46	47	3
100	100	1
126	126	1
82	83	1
59	122	1
47	48	1
26	27	1
58	59	1
15	16	1
124	124	1
