3	3	13
11	71	4
41	41	16
29	29	13
12	12	10
29	30	9
64	65	3
4	4	15
76	76	20
3	4	2
39	39	9
26	26	4
18	18	5
10	33	2
78	78	20
40	40	11
42	68	2
53	53	2
2	2	13
39	77	2
36	36	5
65	65	14
47	47	14
54	54	11
19	19	8
73	73	14
25	52	4
21	21	13
67	67	5
72	72	6
11	33	6
6	6	17
34	36	1
32	33	5
12	13	1
64	64	7
63	63	10
50	50	8
9	9	23
20	20	2
0	0	5
16	19	3
49	56	5
33	33	9
31	31	16
15	15	14
39	40	9
10	10	10
80	80	8
49	52	4
51	51	2
27	27	8
41	76	2
59	59	6
57	57	3
58	59	8
9	71	2
38	39	10
13	31	2
5	5	7
8	8	8
46	46	17
17	17	5
5	6	3
46	80	3
30	56	2
58	61	2
75	75	4
13	13	8
28	45	4
79	79	3
0	18	5
30	62	5
46	56	4
66	66	10
54	80	3
67	69	7
49	50	4
16	62	1
55	55	7
52	52	8
41	42	2
61	61	10
78	80	2
25	25	7
17	46	4
11	12	3
49	51	4
34	34	1
35	35	4
25	26	6
28	28	8
32	32	10
1	1	10
37	37	8
50	52	5
42	42	3
9	10	4
11	11	5
49	49	12
50	51	2
40	41	8
16	17	3
70	71	2
48	48	3
2	5	2
58	58	4
69	69	9
67	70	1
38	38	4
62	63	2
45	45	12
25	76	3
27	73	1
65	66	2
55	56	1
19	55	1
17	20	3
46	54	2
56	56	2
32	35	1
13	30	3
69	70	2
20	55	3
51	74	2
26	56	3
78	79	1
7	7	7
68	68	6
1	2	1
19	20	3
62	62	2
30	30	9
13	14	1
28	57	2
48	67	2
67	68	5
9	46	1
51	52	1
70	70	2
68	69	4
33	55	2
43	43	1
36	55	2
79	80	3
46	47	5
74	74	3
28	74	3
9	12	4
8	70	1
7	9	2
12	57	2
50	53	2
14	14	2
37	59	2
16	16	3
8	71	3
14	31	2
62	65	1
20	73	1
27	28	3
73	74	1
35	63	3
27	46	2
39	74	1
26	55	1
69	71	1
10	12	1
20	21	3
48	80	3
9	61	1
57	61	1
37	42	2
9	21	1
29	63	2
53	54	1
30	31	3
30	75	1
26	66	2
60	61	1
2	3	1
6	9	2
75	76	1
34	35	1
52	53	1
6	70	1
71	73	1
71	71	1
77	78	1
60	60	1
12	72	1
32	70	1
21	32	1
3	6	1
33	64	1
59	78	1
16	18	1
26	27	1
3	5	1
28	42	1
39	41	1
31	32	1
