86	88	1
4	4	4
111	112	4
177	180	8
100	100	6
25	25	4
81	102	4
5	12	3
119	143	3
82	82	14
17	17	6
33	36	3
27	36	2
8	8	6
125	125	3
119	162	3
86	86	22
53	54	5
95	95	5
139	139	3
34	34	3
13	14	6
4	7	5
0	0	10
16	17	3
172	176	3
183	183	13
42	42	10
74	75	8
174	174	17
126	129	3
155	157	4
10	25	5
10	11	2
167	167	8
146	146	3
40	40	7
22	25	3
110	110	15
11	11	4
90	91	5
44	44	6
65	65	4
175	179	2
3	3	12
54	54	5
103	103	8
147	147	13
41	41	7
73	85	1
116	121	2
11	32	2
29	29	7
182	182	9
39	39	11
22	26	2
16	16	4
131	131	4
23	23	9
167	168	2
142	142	9
155	165	1
7	8	4
136	140	3
24	24	6
133	145	4
173	173	6
101	104	4
47	47	9
58	58	6
102	114	4
150	151	7
87	131	4
10	10	7
121	122	5
148	149	3
100	103	2
153	189	2
0	4	2
56	67	3
84	89	5
99	99	11
104	107	1
4	5	2
175	176	5
56	56	8
38	38	4
21	23	4
105	107	3
111	137	3
177	177	6
29	30	4
60	61	7
152	152	16
33	33	3
106	106	2
21	22	10
129	130	2
48	48	8
135	135	4
14	15	2
89	89	2
137	139	2
188	188	5
172	173	1
40	41	3
11	12	5
140	140	8
155	163	4
14	14	8
72	72	2
79	79	7
187	188	6
98	98	4
119	130	1
153	154	4
55	55	7
12	14	2
122	122	7
166	166	5
102	102	4
180	180	5
124	124	3
45	45	3
43	43	8
188	189	2
96	96	6
138	138	4
22	88	2
152	185	4
90	93	4
63	63	6
181	190	2
70	86	3
167	170	2
76	76	7
45	46	5
37	38	5
91	92	4
6	29	1
122	123	3
20	37	4
22	22	5
10	36	4
136	137	7
95	97	5
119	119	2
1	47	1
10	32	1
31	32	10
153	153	6
117	117	3
183	185	3
164	164	9
57	58	2
123	123	8
151	151	10
61	65	4
143	144	2
150	150	7
178	180	2
77	77	13
103	104	1
65	67	4
75	100	2
171	173	3
175	175	8
11	15	3
82	85	3
30	30	3
92	92	6
3	4	6
84	131	4
74	74	6
28	28	6
179	180	4
147	148	3
73	73	2
127	127	4
91	95	2
78	80	3
158	171	5
132	146	1
169	169	5
21	21	5
57	57	10
170	170	4
114	114	2
65	66	1
37	37	5
82	83	5
130	131	1
159	159	2
6	7	7
184	184	4
133	133	4
43	63	3
161	182	2
106	129	1
38	40	6
64	64	5
30	31	1
53	53	4
148	148	5
33	34	4
162	166	2
23	26	5
111	111	18
123	125	4
55	58	1
101	103	1
62	63	4
18	18	8
112	138	3
36	37	1
88	90	1
27	29	4
158	181	7
181	181	3
90	90	4
137	137	3
13	15	2
54	55	1
118	161	1
66	68	1
105	105	4
85	85	3
159	160	3
69	69	6
94	94	4
142	143	1
98	115	1
108	109	2
44	45	5
122	172	3
152	153	4
2	52	1
141	141	2
173	181	5
16	42	2
70	72	3
155	167	3
112	127	1
32	32	3
129	134	4
109	109	5
134	137	4
151	153	5
12	13	2
115	121	2
154	154	4
57	62	3
5	5	7
38	39	1
10	29	4
189	189	1
127	128	2
43	44	3
2	54	3
146	167	3
131	189	1
158	182	1
138	139	2
27	27	2
108	121	2
182	183	4
172	174	2
161	179	1
68	68	3
131	132	1
165	173	2
114	130	1
28	32	1
88	88	2
84	85	2
71	73	3
112	112	3
160	171	3
59	59	2
6	6	5
105	127	3
108	108	7
94	104	1
171	172	2
66	67	4
29	36	1
24	25	2
165	165	2
134	134	3
1	1	1
84	87	3
130	132	1
92	94	3
5	9	2
15	16	6
149	150	5
130	130	1
94	125	3
3	5	3
179	188	1
145	145	3
156	156	1
126	126	1
84	86	2
93	93	3
96	137	3
178	178	3
2	53	1
187	187	1
135	144	1
39	103	2
113	113	1
25	26	3
83	83	1
47	48	2
135	140	2
59	61	2
155	155	3
129	129	2
19	20	1
57	78	1
169	170	2
78	81	2
107	125	3
116	132	1
163	164	1
108	128	1
73	108	1
159	183	1
100	101	2
132	132	3
185	185	1
93	94	2
55	56	1
63	64	1
114	116	2
104	125	2
81	81	2
163	163	1
185	186	2
93	97	1
3	6	1
5	48	1
73	82	1
162	162	3
176	176	2
97	97	7
180	188	2
2	3	2
158	158	1
14	97	1
172	184	1
104	130	3
135	136	2
174	184	2
131	188	1
91	91	1
154	156	2
94	95	3
78	78	2
186	186	4
136	136	1
135	146	2
146	169	2
169	173	1
120	120	1
113	117	1
124	126	1
22	23	2
158	164	1
84	84	2
53	90	2
165	170	1
55	114	1
147	149	1
17	42	2
171	177	2
87	89	2
119	120	1
56	59	1
179	179	2
162	163	2
110	141	1
155	156	1
170	171	1
171	176	1
9	92	1
12	12	1
10	12	1
121	123	1
19	19	1
149	149	1
146	148	1
121	157	1
31	34	2
173	174	1
81	82	3
1	2	2
26	26	1
137	140	1
52	53	1
41	45	2
164	172	2
63	72	1
7	7	1
143	147	1
115	115	1
189	190	1
183	184	1
85	86	1
9	10	1
46	46	1
143	169	2
55	57	1
64	65	1
144	144	1
119	161	1
182	188	1
157	158	1
159	169	1
39	40	1
32	34	2
105	106	1
140	141	1
112	113	2
114	129	1
87	88	1
31	31	1
119	155	1
161	161	1
110	111	1
54	86	1
5	63	1
8	22	2
110	128	2
171	179	1
179	181	1
113	114	1
61	61	1
121	128	1
