105	105	40
101	102	15
63	63	36
7	7	33
80	80	19
129	132	2
15	33	7
56	56	32
12	12	34
114	114	32
68	69	12
8	9	6
59	60	13
116	117	23
40	40	38
107	108	10
99	99	44
125	125	23
75	99	1
27	28	8
52	52	42
67	68	21
125	126	21
100	100	30
62	75	1
28	29	21
44	44	57
107	107	28
54	120	3
48	48	57
126	128	14
120	121	21
16	18	6
41	41	39
49	49	77
81	81	22
54	54	36
77	97	5
60	62	4
121	121	30
111	114	2
123	123	35
58	59	4
73	74	25
57	69	8
46	46	34
101	101	33
110	111	4
103	103	28
102	103	12
50	51	12
112	114	8
46	47	13
13	13	31
97	98	27
20	27	4
45	45	25
94	94	63
95	95	32
113	113	36
97	97	30
122	124	3
70	71	15
5	5	20
2	6	2
43	43	36
90	90	23
78	78	40
131	132	25
21	21	27
67	67	42
22	22	28
123	124	13
84	84	31
89	89	22
91	91	25
65	65	31
127	127	43
0	1	17
77	78	18
48	54	1
17	55	4
108	109	15
132	132	28
18	18	38
98	98	21
69	69	30
106	106	34
60	61	13
125	130	6
50	50	59
18	19	6
53	53	25
40	41	6
82	82	51
20	21	10
93	95	7
105	107	2
126	127	10
94	95	32
15	15	26
113	117	1
65	77	2
112	113	14
0	3	14
41	42	17
49	50	13
65	66	15
52	53	17
4	5	3
62	63	19
53	106	5
74	74	24
111	111	17
93	94	18
71	80	1
122	123	18
93	93	24
67	82	3
109	111	4
16	22	2
100	101	18
122	122	23
115	115	29
75	75	32
41	43	14
8	123	1
60	60	26
28	28	28
50	57	2
10	11	10
47	47	35
102	102	35
124	124	37
115	116	15
119	119	22
117	117	28
113	114	16
72	75	4
104	104	33
64	64	16
118	119	19
72	72	20
31	32	13
3	3	20
119	120	6
14	14	28
14	21	1
57	117	3
6	110	3
85	85	25
55	55	43
26	118	1
61	61	22
14	55	2
1	4	4
28	33	4
24	24	30
29	29	18
76	76	47
30	30	28
33	40	1
54	77	1
97	100	2
83	84	21
116	116	35
23	24	17
112	112	22
28	67	4
100	102	7
47	48	8
81	84	7
17	17	41
57	57	28
120	120	28
92	92	34
30	34	4
7	29	2
6	6	20
95	96	12
22	24	7
16	16	22
128	128	26
18	23	6
2	4	2
87	87	36
94	126	1
45	46	21
131	131	23
39	45	1
18	22	8
24	127	1
70	70	20
83	85	4
124	125	18
13	14	9
7	45	1
89	91	6
2	2	31
39	39	29
80	81	12
43	60	1
11	11	8
110	112	2
126	126	27
27	29	8
75	76	23
78	79	19
19	20	8
11	13	8
27	27	31
60	65	1
121	122	11
96	99	4
85	89	4
118	118	32
51	52	8
16	17	31
89	90	9
4	4	32
96	127	6
42	43	9
19	19	20
25	25	27
77	89	2
79	79	16
1	1	17
66	66	35
23	23	30
20	20	36
78	81	14
118	120	12
19	21	12
117	118	17
113	118	2
129	130	21
21	22	22
42	42	35
21	65	2
73	73	25
40	42	9
32	33	4
79	85	1
71	72	12
14	15	15
133	133	17
73	101	3
62	62	13
130	130	32
31	31	20
14	38	4
28	30	12
75	77	10
104	105	13
106	107	13
91	92	23
87	88	16
12	83	1
109	110	8
34	34	10
88	103	2
33	38	11
10	48	2
124	129	6
44	45	21
14	28	2
12	108	6
8	8	27
94	104	2
51	70	2
126	130	8
59	61	15
74	77	2
83	83	33
77	77	23
74	75	2
26	26	33
29	31	4
25	114	6
79	81	7
43	45	3
45	47	16
46	57	4
22	23	13
61	62	10
43	56	1
15	24	4
40	63	2
125	127	6
53	76	4
88	88	28
111	113	11
43	55	4
45	109	1
98	128	8
76	77	23
92	93	10
101	104	6
9	9	17
24	25	4
9	12	3
126	133	4
38	40	5
13	45	1
96	100	3
32	32	24
33	33	41
129	129	19
38	38	11
102	105	3
88	89	25
86	87	19
14	43	5
39	44	1
48	133	4
127	128	21
66	68	1
29	30	16
0	0	18
79	80	9
10	10	34
26	27	8
96	96	37
105	106	17
30	47	2
24	76	5
110	110	24
132	133	9
18	21	4
76	100	3
58	61	6
51	51	22
65	74	7
118	129	2
62	64	3
97	99	3
97	101	3
0	27	3
58	58	14
108	108	25
44	55	1
114	117	5
7	8	9
48	49	18
13	90	2
3	129	3
69	85	3
126	129	3
42	72	1
10	12	2
47	72	3
90	91	7
106	109	2
108	119	1
85	88	6
46	103	5
17	21	5
85	86	12
92	94	4
23	67	3
106	108	2
71	71	14
114	118	2
27	67	3
119	121	1
128	129	4
86	89	5
17	22	1
63	78	4
21	23	4
38	41	10
105	109	1
18	44	2
78	80	5
3	4	6
44	82	1
72	73	11
117	126	4
81	82	10
75	100	2
66	67	5
63	79	1
80	86	3
59	59	18
109	109	14
55	56	9
17	29	4
71	73	4
68	68	32
109	119	1
58	63	6
77	100	6
19	27	1
125	132	1
103	104	11
58	60	2
54	55	6
15	43	1
17	18	20
3	130	3
25	26	23
111	112	15
87	89	3
6	28	5
3	114	3
80	126	6
99	103	3
68	74	4
57	58	9
114	129	5
81	96	1
15	26	1
55	78	3
72	76	4
41	44	7
43	61	2
114	123	3
39	40	12
1	28	1
65	91	2
17	24	2
8	10	9
38	39	11
64	75	2
20	22	2
104	117	4
7	28	3
84	85	8
94	105	2
73	99	2
53	54	7
96	97	4
79	82	1
91	93	6
2	3	8
11	54	4
69	83	2
89	95	1
98	99	4
42	46	5
69	71	8
105	116	2
80	96	5
38	102	1
12	13	4
57	70	3
44	73	4
72	104	1
1	3	4
113	131	2
81	88	2
20	29	5
97	130	2
13	66	2
43	75	7
82	83	4
21	39	2
44	47	1
13	29	3
80	83	4
18	30	1
46	48	4
102	104	4
98	126	1
53	104	1
88	93	1
113	115	3
64	66	4
11	12	6
99	100	7
94	96	3
20	26	2
71	106	3
58	73	1
31	53	3
104	106	1
20	32	3
52	71	2
15	16	13
58	74	1
17	19	2
19	41	3
88	90	2
20	39	1
58	62	1
90	92	2
58	65	2
114	115	2
58	72	2
53	56	4
86	86	8
110	113	2
71	102	1
37	39	1
47	51	5
68	71	4
85	104	1
98	103	1
71	74	2
17	30	3
56	69	3
84	89	3
64	71	2
47	53	4
84	96	2
59	62	1
43	44	8
9	11	1
16	38	3
11	40	3
58	67	3
51	54	1
69	81	2
74	81	3
14	56	1
9	121	1
54	57	1
100	103	4
40	48	1
83	94	1
64	65	3
1	5	2
116	118	2
1	32	1
29	47	4
27	56	2
93	133	1
4	26	1
5	113	1
13	28	2
19	22	1
33	34	4
47	64	1
53	107	2
46	54	3
16	34	5
65	69	2
93	97	2
103	105	3
59	68	1
33	39	1
76	83	2
112	117	1
44	60	5
86	88	3
58	64	1
6	7	2
44	71	4
94	106	2
45	103	1
57	95	2
56	62	3
69	70	8
52	54	4
73	76	1
130	132	3
63	74	2
63	70	2
72	74	2
34	37	3
45	94	1
19	24	5
65	73	2
16	23	1
49	51	1
26	28	1
106	120	1
46	98	2
60	63	1
101	103	5
79	97	4
74	79	7
123	131	1
91	94	1
87	90	3
14	29	2
19	32	1
66	69	1
112	123	1
54	69	4
40	43	1
13	31	1
52	57	4
66	76	2
130	133	1
54	71	2
16	33	1
86	90	1
96	98	2
44	70	1
25	28	1
9	122	1
2	5	2
98	130	1
4	132	1
41	47	2
74	78	2
46	129	2
67	71	2
123	125	1
37	38	1
43	63	1
12	54	1
111	120	1
85	87	3
46	51	1
73	81	1
88	91	3
19	26	1
76	80	2
43	68	5
95	100	1
57	120	1
125	129	1
124	131	6
30	39	3
39	55	2
2	130	3
83	91	3
80	100	1
3	26	1
96	125	1
120	122	3
130	131	2
63	65	5
125	131	1
62	72	1
52	70	1
7	9	2
45	60	1
131	133	1
45	63	2
25	128	1
128	130	3
26	114	2
61	63	2
129	131	2
108	110	4
110	116	1
63	69	2
14	41	2
12	29	2
11	45	4
19	30	3
29	39	1
19	31	1
9	10	3
16	19	1
25	27	3
57	119	1
47	54	2
3	132	2
63	67	2
79	100	2
46	69	6
84	87	2
92	95	1
63	66	2
44	99	2
40	66	2
55	84	1
70	83	1
13	33	1
39	41	2
33	68	2
71	105	1
115	118	2
96	102	1
109	117	1
2	131	1
71	82	2
86	91	1
59	65	1
5	6	2
20	24	1
61	66	1
99	102	2
47	52	1
14	39	1
40	67	2
107	115	1
115	128	1
67	69	1
1	19	1
39	43	3
54	56	3
44	61	1
43	62	1
72	101	3
83	90	1
106	117	1
107	114	1
78	100	1
75	81	1
95	126	1
95	104	1
56	120	1
45	108	2
53	55	1
29	32	3
40	68	1
40	105	2
10	53	2
40	101	1
80	112	1
81	100	2
78	82	1
3	5	2
24	75	1
127	131	1
60	67	1
19	23	2
51	95	1
104	116	1
0	4	2
67	125	1
84	86	1
71	88	1
120	131	1
110	118	1
9	45	1
6	29	1
63	72	1
75	83	1
40	99	2
86	95	1
47	50	2
99	101	1
12	43	1
84	93	2
58	68	1
94	130	2
119	126	1
13	54	1
64	67	1
10	28	1
1	31	1
82	85	1
