186	187	5
182	182	6
131	133	1
188	188	1
103	106	4
191	191	4
51	51	8
165	165	4
5	18	1
1	7	2
148	148	6
3	3	11
119	119	3
50	50	9
121	121	1
43	44	5
59	59	2
88	88	6
64	69	3
161	164	1
44	44	7
72	72	2
115	115	2
14	14	9
30	31	7
190	192	1
8	8	6
77	80	1
99	99	4
68	78	1
109	111	3
195	195	5
174	174	3
189	190	3
50	51	4
44	125	1
13	13	7
180	181	1
29	42	2
98	106	1
19	19	3
161	161	3
113	113	4
28	39	2
155	155	3
10	14	3
164	164	5
119	120	4
108	132	1
41	41	7
114	117	5
47	47	7
58	58	4
33	36	3
131	132	2
180	193	4
159	175	2
9	9	7
3	39	2
62	142	2
124	125	3
137	138	1
87	87	3
32	32	2
26	56	2
128	128	6
168	175	3
180	180	8
70	70	5
145	152	3
11	23	2
158	159	4
37	37	3
1	2	4
178	178	5
16	16	5
30	30	2
168	169	3
177	178	5
48	48	1
158	158	1
0	0	3
108	109	2
7	18	2
142	142	2
53	53	4
136	141	1
104	158	2
85	85	5
33	33	7
103	159	3
25	54	3
9	10	5
123	134	2
184	194	1
2	2	5
33	50	2
116	116	4
18	18	3
34	34	8
183	197	4
16	17	4
141	141	2
25	26	5
170	171	2
22	23	3
109	115	3
7	94	1
27	27	10
5	6	3
101	102	2
156	167	1
76	76	2
147	147	5
36	38	1
76	115	3
120	120	5
144	144	4
25	25	7
2	3	3
29	31	1
153	153	8
165	182	4
130	159	4
7	25	1
61	61	1
22	22	6
193	193	4
96	96	4
115	117	2
123	123	3
108	108	9
45	45	2
152	153	1
168	168	5
88	89	2
163	164	2
26	59	1
123	135	1
188	189	2
59	60	3
135	140	3
177	177	5
43	114	2
146	146	9
60	61	2
169	175	3
139	139	2
53	56	6
166	166	1
30	65	1
68	79	3
162	162	6
101	101	2
103	103	3
104	106	1
175	175	1
116	117	7
5	17	2
153	169	3
88	110	2
12	12	4
27	69	3
30	67	2
118	169	2
192	193	5
194	194	5
129	129	4
173	173	2
125	126	5
159	159	5
114	114	5
179	191	2
54	54	4
79	79	3
187	187	2
132	132	2
167	178	4
55	55	13
116	180	2
184	184	12
163	163	5
7	8	3
156	156	5
167	167	1
184	185	2
58	59	6
25	41	2
99	184	4
120	121	1
138	174	2
117	118	2
192	192	5
10	10	7
52	52	3
122	122	3
42	71	3
19	21	2
174	181	1
196	196	5
156	157	1
151	152	1
155	156	1
3	86	2
98	98	3
12	13	2
7	7	4
112	112	2
26	26	3
72	73	2
176	177	2
84	84	5
71	73	2
108	128	3
77	79	1
110	110	2
149	149	4
68	73	1
147	156	2
87	88	2
15	15	10
62	123	3
6	7	2
23	23	4
173	174	5
27	70	6
10	54	2
170	196	1
181	181	13
7	22	4
75	76	1
63	64	1
183	184	6
57	72	1
73	73	3
24	25	2
8	80	2
138	138	8
59	65	1
130	130	4
36	36	2
152	155	2
171	172	2
77	85	4
47	48	5
97	97	1
182	184	1
62	62	7
114	122	1
115	134	1
66	67	3
16	53	1
159	173	4
80	80	4
24	24	1
17	17	3
133	133	2
49	49	2
35	35	4
137	137	4
156	171	1
83	83	2
106	106	1
176	178	3
189	189	6
53	54	1
31	43	1
191	192	3
1	1	5
149	150	3
143	144	3
145	159	1
109	109	1
82	82	6
145	145	3
130	158	4
6	8	1
160	160	4
10	13	4
4	5	3
40	41	3
137	142	4
79	80	1
19	22	1
74	74	2
28	40	2
34	35	2
23	51	3
71	71	1
46	46	1
0	23	2
143	192	2
153	180	1
3	5	3
40	40	2
105	105	3
64	66	1
66	66	1
95	111	5
35	36	1
69	70	3
2	8	2
57	57	3
21	73	1
78	85	1
104	131	1
119	122	1
156	158	1
90	90	1
72	130	1
27	33	2
66	69	1
31	31	2
102	103	3
140	174	1
34	59	2
40	51	2
182	194	1
46	47	3
187	194	1
149	151	1
73	74	1
21	21	1
151	151	2
147	157	1
18	21	2
6	80	2
35	55	1
105	131	1
76	85	2
122	123	2
83	84	4
27	28	2
64	70	2
150	150	4
86	86	1
127	127	2
9	38	2
152	152	2
123	124	2
76	117	3
8	16	1
67	72	2
173	182	1
185	185	1
66	68	1
157	159	3
31	32	1
190	190	2
38	39	2
0	2	1
51	52	1
153	182	1
151	176	1
11	11	2
7	24	1
3	4	2
22	25	2
154	154	1
67	71	1
68	68	2
15	76	3
104	104	1
41	64	1
183	194	1
20	20	2
170	188	3
95	131	1
151	155	1
107	107	2
25	51	2
173	176	3
148	170	2
0	4	1
149	170	1
169	170	1
50	57	1
161	171	1
140	140	1
81	87	1
171	171	1
29	37	1
162	165	1
95	115	1
1	94	1
53	57	1
126	126	1
140	175	1
107	160	1
45	46	1
81	82	1
157	158	1
161	163	1
3	41	1
148	151	1
26	27	1
136	136	1
54	55	1
87	89	1
170	178	1
132	170	1
160	173	1
162	163	1
14	15	1
186	186	1
103	104	1
179	192	2
51	59	1
74	76	1
69	69	1
42	72	1
76	93	1
115	120	1
82	83	1
58	61	1
126	127	1
124	124	1
197	197	2
88	90	1
68	118	1
