38	49	6
37	37	16
23	23	19
158	158	11
20	20	24
197	197	5
171	171	6
185	185	13
242	243	4
30	30	14
192	236	2
210	211	1
211	211	8
207	207	21
95	95	14
83	84	2
168	168	13
194	221	3
206	206	11
188	188	29
71	71	12
2	2	11
213	215	6
237	237	21
106	106	11
238	238	14
226	226	8
146	147	4
232	233	5
15	15	23
229	229	6
170	171	2
156	156	9
211	212	5
91	92	1
60	60	3
171	193	5
33	33	14
51	51	5
70	70	7
89	89	4
38	38	18
69	174	1
212	212	23
6	6	19
173	175	3
224	224	7
86	86	15
230	230	14
72	77	1
14	14	7
30	31	6
187	195	1
208	209	8
78	78	11
115	115	31
166	166	18
27	234	4
97	104	4
64	65	7
113	113	12
70	73	1
49	49	7
154	154	10
197	244	9
68	68	15
162	162	12
73	73	7
58	59	6
232	232	6
43	43	13
112	112	12
203	209	2
61	61	15
243	244	11
32	32	8
87	87	5
85	85	1
200	200	9
17	17	9
173	212	3
44	44	11
48	59	9
241	241	11
79	79	8
48	48	7
51	56	1
2	27	1
7	7	9
150	153	2
217	217	10
102	102	13
227	235	3
167	167	7
226	227	4
213	213	23
41	229	6
77	83	2
105	107	2
173	173	11
36	36	9
59	59	14
80	80	4
227	227	7
168	182	3
169	169	6
7	43	1
194	195	4
158	160	4
208	211	3
161	162	1
177	177	23
243	243	6
210	210	9
202	202	15
19	19	9
116	117	3
64	70	2
54	54	20
72	72	17
177	181	6
56	59	1
26	26	8
39	41	5
45	210	3
74	79	1
228	228	6
9	31	2
159	165	3
94	94	9
25	25	11
58	58	24
165	166	5
56	57	2
238	246	2
205	206	2
209	209	6
38	39	5
152	152	5
10	10	16
31	35	2
155	155	17
14	15	4
91	91	14
11	11	16
24	24	11
106	170	5
233	234	6
4	5	3
12	43	2
101	119	1
242	242	10
107	107	22
169	170	1
234	234	15
84	118	2
201	202	5
247	247	16
7	10	2
198	199	1
145	145	15
5	6	2
172	180	7
27	27	11
241	242	9
66	66	14
111	111	14
153	153	11
65	65	7
245	246	10
178	178	7
2	203	1
57	58	4
159	159	18
61	62	6
223	231	2
101	111	2
6	32	3
76	76	9
174	178	2
3	3	7
168	172	4
109	109	7
152	183	6
28	28	18
240	241	13
27	28	4
62	62	8
34	34	13
248	248	20
81	84	3
26	233	2
31	201	2
46	46	5
74	74	11
85	86	2
93	93	9
59	62	4
179	179	17
90	90	14
190	191	5
239	239	14
13	14	3
79	81	3
182	182	21
103	103	7
112	118	3
146	146	12
65	93	4
223	240	4
29	29	3
159	160	6
161	161	7
181	181	19
219	241	1
12	46	3
11	222	3
192	192	10
170	170	17
222	222	5
204	204	8
21	23	1
53	54	7
172	172	6
172	179	1
28	54	3
221	222	2
84	84	9
18	18	7
160	160	11
157	159	7
114	116	1
198	198	11
238	239	6
188	189	4
186	235	2
176	176	7
40	40	11
27	150	5
203	203	8
83	102	1
147	147	7
99	99	10
235	235	16
218	218	3
221	221	23
5	5	17
43	53	1
166	170	3
47	48	2
63	63	3
118	119	3
163	164	4
112	117	2
216	216	9
69	69	3
46	47	4
75	75	10
199	210	2
42	42	21
107	118	3
59	60	8
157	157	12
168	169	7
86	87	4
174	183	3
208	208	16
23	201	1
6	224	3
107	112	4
176	182	2
220	233	8
70	76	1
196	196	15
50	50	6
237	244	1
199	200	4
176	211	2
203	212	3
151	151	17
60	61	2
94	101	4
97	98	6
73	75	3
55	67	1
188	199	1
72	170	1
77	119	4
8	8	13
81	81	9
58	75	2
84	102	2
220	221	9
149	155	10
187	188	12
193	193	8
1	1	7
90	91	2
52	55	3
22	22	14
179	199	5
205	227	2
25	204	3
20	207	4
183	245	2
157	170	2
188	243	1
211	223	6
180	200	1
52	52	7
186	186	12
117	155	7
78	116	2
183	246	1
31	196	3
64	64	15
189	189	2
220	228	1
49	68	2
0	0	3
195	196	3
110	110	13
14	50	1
180	180	13
172	178	1
45	45	12
76	78	2
210	232	1
55	55	10
39	39	3
116	162	4
75	77	1
164	164	7
5	39	3
83	83	7
98	98	13
42	209	1
187	187	12
82	90	8
206	220	5
97	97	15
25	28	1
77	79	2
80	81	6
149	150	1
31	31	5
61	70	4
30	37	4
175	176	2
154	155	2
98	109	1
41	41	16
165	165	8
184	192	2
115	118	3
239	243	6
173	174	7
198	236	4
191	191	10
55	56	4
217	218	1
225	225	7
208	210	3
72	119	3
4	224	1
113	181	3
179	180	3
199	199	2
117	117	5
77	77	6
108	108	6
50	236	2
62	68	10
70	72	2
201	222	3
75	95	3
14	30	2
53	93	7
35	35	4
100	118	2
34	50	1
220	220	11
12	24	1
41	43	4
34	35	2
163	163	6
78	170	1
21	21	5
9	9	11
76	77	3
91	93	2
167	168	8
104	104	4
219	222	2
24	31	1
90	95	4
24	65	4
215	220	1
53	53	4
185	186	7
63	69	2
214	217	3
50	58	3
214	214	3
195	195	5
32	211	2
212	238	3
157	161	2
74	85	4
82	82	6
95	108	5
93	233	1
246	246	7
102	108	2
114	114	9
104	105	3
54	67	3
194	197	2
150	150	12
240	246	3
65	101	2
66	70	5
87	113	2
190	190	4
223	223	6
103	108	2
188	190	4
3	4	3
235	236	5
15	49	3
193	195	1
188	209	1
72	117	2
67	67	4
112	237	6
119	119	7
178	182	1
245	245	8
201	201	8
184	184	12
175	175	8
153	201	3
215	216	2
197	198	4
221	234	4
190	212	1
50	60	2
32	33	1
238	243	1
118	118	6
0	235	3
99	112	1
110	111	5
42	45	3
189	190	2
225	226	1
194	194	3
7	8	2
197	237	1
183	183	5
51	59	2
32	235	1
100	101	3
168	173	1
195	197	1
242	244	2
203	204	1
63	101	1
117	119	1
181	182	2
71	72	3
158	159	7
56	56	2
34	60	1
241	244	2
166	167	6
193	194	4
28	174	2
73	79	3
116	116	4
65	66	2
73	74	1
177	184	3
244	244	8
111	118	2
88	88	2
40	43	1
192	214	1
108	118	4
101	104	2
47	47	9
175	211	5
61	64	1
214	215	3
96	96	3
86	94	3
39	47	6
145	147	4
39	60	5
33	46	5
67	180	1
246	247	6
212	213	5
18	19	3
104	119	2
109	111	3
236	236	15
195	247	3
69	71	2
205	205	3
216	218	2
232	240	4
157	160	1
10	28	1
238	240	7
69	70	1
233	233	2
48	49	1
15	39	4
216	237	3
74	78	2
92	93	2
101	101	3
11	12	2
117	118	3
153	202	3
31	36	3
236	237	1
71	84	1
247	248	1
163	171	2
12	47	1
71	78	1
32	46	1
12	12	2
85	89	2
241	243	3
33	48	4
26	161	1
63	65	3
61	72	2
147	152	2
227	228	3
77	78	6
4	4	5
99	110	1
190	196	2
231	231	1
149	151	2
1	20	2
223	226	1
39	40	3
111	120	4
158	164	2
183	193	4
2	3	3
12	65	2
158	248	1
47	52	2
56	67	1
240	240	5
144	154	2
25	181	1
197	199	3
64	84	3
20	156	1
191	243	3
109	110	4
27	172	1
193	203	1
16	16	2
218	219	2
172	174	3
191	192	1
33	37	1
32	38	3
197	212	2
29	35	2
80	112	1
107	110	1
168	180	2
169	171	1
5	15	3
102	105	1
225	247	1
96	118	1
44	45	2
68	70	1
215	215	1
215	217	1
161	163	1
67	68	2
193	198	2
187	194	2
247	249	1
242	245	2
24	37	1
105	106	3
80	83	2
31	53	1
172	173	2
146	159	2
114	115	4
10	36	1
119	120	2
171	179	1
80	92	1
208	213	2
108	237	2
18	25	3
156	206	1
174	174	1
54	55	1
42	228	1
109	144	1
206	219	1
16	17	1
178	211	1
41	109	1
19	20	3
229	232	2
224	226	2
104	107	1
88	104	1
249	249	1
112	113	1
19	25	1
179	196	1
175	180	2
95	96	3
20	22	2
23	93	2
6	9	1
182	185	2
58	71	1
172	184	1
93	103	1
217	224	1
192	199	1
17	114	2
203	205	1
33	36	1
36	41	1
19	24	1
75	85	1
173	240	1
40	56	1
113	116	1
153	154	2
245	247	1
188	203	1
53	55	1
189	193	1
110	114	2
100	100	3
113	115	1
25	180	1
71	85	2
164	165	2
72	116	1
175	183	2
62	70	1
91	106	1
14	18	1
165	175	2
175	177	1
102	119	2
209	213	1
216	225	1
15	16	1
29	37	1
64	82	2
11	28	1
82	83	1
85	120	1
34	57	1
78	79	2
162	186	1
42	233	1
96	97	1
40	224	1
33	47	1
3	29	2
110	150	1
229	233	1
76	117	1
10	237	1
52	64	1
177	182	1
159	176	1
103	104	1
74	75	1
43	210	1
42	43	1
11	53	1
181	204	1
160	178	1
26	27	2
26	174	1
176	187	1
181	210	1
176	177	1
43	55	1
195	198	1
237	240	1
150	155	1
41	42	1
