105	105	17
86	87	3
126	127	11
60	61	2
115	126	2
104	104	5
9	55	3
77	77	5
120	121	4
29	30	3
129	131	4
75	75	4
23	24	1
61	64	8
72	80	3
69	69	2
130	131	2
108	108	6
1	2	4
80	98	3
77	78	7
112	112	11
36	36	12
12	35	3
62	62	7
107	110	1
50	50	11
80	80	15
118	118	11
105	106	6
100	100	7
60	60	10
64	64	19
117	117	8
61	61	10
107	107	5
128	133	2
68	68	4
88	88	8
96	96	3
50	52	7
75	89	4
128	128	10
76	76	10
108	109	6
134	134	11
111	111	9
127	127	18
114	114	9
14	14	12
27	27	10
111	113	1
50	58	2
126	126	14
52	52	6
84	86	1
92	97	1
72	72	7
109	109	3
94	94	6
35	35	9
132	132	7
78	78	15
19	20	5
103	103	4
28	30	6
7	82	1
120	120	11
90	91	4
31	31	17
115	128	10
91	91	14
119	119	25
9	25	1
98	105	3
100	101	5
13	13	12
97	97	4
35	36	3
117	118	2
65	68	1
74	74	18
1	1	8
8	10	3
8	8	6
27	28	5
2	2	3
90	90	13
99	106	4
59	59	12
44	44	4
63	63	11
45	45	11
74	76	3
106	111	1
111	112	2
73	73	5
22	22	13
3	70	2
58	59	1
91	102	2
74	79	1
66	66	4
106	106	13
102	102	5
50	57	8
133	133	6
15	16	2
11	12	4
54	54	8
113	113	10
28	28	6
3	4	8
33	33	13
31	32	1
83	86	1
23	23	4
99	99	7
93	94	3
32	32	10
100	105	1
100	111	4
58	58	5
135	135	1
84	85	7
20	53	2
101	101	9
21	24	1
113	123	7
102	104	5
93	93	14
70	70	5
121	122	16
1	5	2
125	126	5
65	66	5
98	98	23
67	67	5
43	43	10
20	20	6
121	121	16
116	118	2
38	39	2
124	124	14
34	36	3
115	133	3
103	105	2
65	65	8
69	71	1
30	30	11
99	101	8
29	29	4
90	95	1
62	64	5
114	115	4
53	53	11
54	59	2
30	47	1
83	87	8
66	69	4
97	98	6
5	5	7
123	123	8
115	118	4
124	125	5
88	99	3
16	16	1
118	120	1
98	99	5
62	89	3
115	115	10
102	110	1
113	127	2
106	108	4
28	29	1
110	122	1
15	15	2
71	72	5
50	51	7
114	119	2
103	104	2
85	86	1
49	50	4
113	114	2
19	19	2
11	13	7
123	125	3
17	25	4
105	107	2
125	125	3
113	124	5
17	17	3
56	56	3
29	35	2
64	65	8
93	104	7
127	128	5
62	63	7
118	119	1
90	93	1
98	111	1
72	83	4
84	84	4
121	124	1
122	122	1
76	88	3
82	83	5
63	71	2
71	71	11
68	69	4
78	88	2
55	55	3
116	128	2
83	84	3
55	57	4
93	95	3
55	56	1
59	60	4
86	86	2
85	85	2
8	9	4
116	131	2
91	92	2
70	71	3
60	62	1
92	92	5
62	71	2
50	63	1
21	21	2
10	10	4
24	29	3
69	70	9
82	84	3
130	132	1
115	123	1
95	95	17
16	24	4
121	128	3
74	90	2
33	34	3
92	93	3
64	68	3
115	116	2
21	53	1
71	85	1
119	120	3
82	82	5
32	35	4
63	64	1
94	95	2
79	80	8
62	69	1
108	111	1
87	88	3
115	130	1
49	49	2
18	18	1
81	87	2
112	113	6
108	110	1
12	12	2
89	89	3
9	15	2
104	127	3
68	71	2
98	100	1
24	24	3
63	89	1
87	91	1
19	23	1
37	37	2
85	92	1
106	107	3
114	123	2
76	77	3
83	83	2
83	85	1
26	26	5
12	13	2
79	100	1
101	102	2
114	134	2
79	79	2
65	69	1
27	49	3
80	81	3
18	52	1
73	74	1
81	88	1
56	59	2
3	52	1
66	67	1
72	82	3
7	7	4
4	5	1
133	134	1
104	105	1
3	3	4
116	116	2
105	125	1
96	98	2
34	47	1
109	110	3
129	129	2
55	59	1
29	32	1
78	84	1
4	127	1
75	76	2
48	48	2
134	135	1
12	15	1
87	87	1
4	6	2
9	53	1
76	97	2
114	129	1
33	51	1
77	87	1
78	81	1
122	124	2
13	14	2
110	110	1
22	27	1
90	94	2
8	26	1
12	25	1
78	87	1
77	79	2
4	4	1
15	26	1
7	8	2
90	120	1
71	86	1
26	27	1
108	122	1
131	131	2
12	26	1
120	127	1
20	21	1
0	0	2
85	95	1
16	25	1
74	75	1
6	77	1
129	133	2
6	6	4
114	127	1
89	120	1
56	86	1
93	101	1
95	96	1
89	90	1
5	7	1
72	73	1
34	34	1
115	119	1
76	84	1
