193	193	27
66	68	15
9	39	2
33	37	5
97	97	39
194	197	4
137	137	22
80	80	39
148	148	31
77	78	38
56	56	30
36	36	32
130	215	5
176	176	28
96	97	12
52	52	32
10	10	64
60	60	62
140	140	26
31	33	14
74	74	55
68	68	44
30	39	1
53	54	7
204	204	55
235	235	41
61	62	12
8	8	58
101	103	3
26	48	4
119	119	35
181	181	46
131	131	16
121	195	3
165	165	22
232	235	6
20	20	72
233	233	26
24	25	15
112	112	20
28	84	3
84	84	47
121	122	6
201	201	44
190	190	32
134	138	1
28	28	69
86	86	40
19	19	52
174	174	57
49	50	31
200	200	38
41	42	10
239	240	6
17	17	40
12	12	46
209	209	41
183	183	34
194	195	13
113	116	1
5	79	2
51	52	30
7	7	57
3	3	30
101	102	24
36	50	2
234	242	1
40	40	59
67	67	53
38	38	39
66	66	49
47	141	4
83	83	57
151	152	16
4	6	9
2	2	59
226	226	51
232	232	32
220	221	12
29	29	76
58	58	58
238	238	36
34	35	21
143	148	2
13	13	40
55	55	39
135	135	35
133	133	45
122	122	22
48	240	2
3	5	5
83	84	20
187	217	7
23	30	5
4	4	52
154	154	31
48	48	45
104	104	39
77	80	11
113	118	3
76	76	41
185	185	30
181	184	3
126	127	11
211	212	15
127	129	3
5	5	47
208	208	39
179	179	33
215	217	2
105	105	31
231	231	29
191	191	36
31	31	36
13	14	12
212	216	3
199	221	4
84	109	3
144	144	11
21	59	2
173	173	38
159	179	2
237	237	35
189	189	28
1	17	6
75	76	9
52	54	5
64	64	49
32	32	42
206	206	35
181	229	3
120	208	4
14	14	26
105	106	23
143	174	5
144	145	15
46	46	73
170	170	28
164	164	26
36	73	2
53	53	67
107	127	3
199	200	30
85	85	55
75	75	45
209	210	27
184	184	32
193	194	15
189	190	7
62	62	54
15	15	42
68	137	2
81	82	16
128	128	31
100	108	3
23	63	3
78	78	47
185	186	14
37	37	44
9	10	15
30	31	23
35	35	58
220	220	38
189	224	1
16	16	36
125	125	24
195	195	17
42	61	3
120	121	16
141	167	3
144	146	17
239	242	3
113	113	33
78	83	4
99	99	47
223	223	44
103	104	23
83	235	3
69	104	3
61	136	5
135	136	14
218	219	2
175	175	38
131	160	1
102	102	55
155	155	24
191	196	4
22	34	6
25	25	34
17	22	5
13	49	4
157	157	36
117	118	17
177	177	35
27	54	2
50	51	18
37	38	36
34	34	27
9	9	25
66	67	30
171	171	30
221	223	20
98	102	7
104	137	4
228	229	21
140	243	2
23	24	11
129	129	19
13	15	8
2	5	10
30	30	54
15	28	2
179	180	7
117	123	2
234	234	27
163	181	1
62	63	39
168	168	30
27	73	3
181	183	2
126	126	25
178	178	19
160	160	32
216	218	3
10	11	5
47	47	78
225	228	6
111	112	2
163	163	36
199	199	23
57	141	5
202	203	3
101	120	2
24	103	1
20	21	6
196	197	16
105	108	11
103	103	30
70	71	22
156	156	28
211	213	6
57	57	71
80	81	20
218	218	19
106	107	5
181	182	9
110	173	2
186	186	36
173	174	9
92	105	3
12	29	4
199	209	2
240	240	34
110	110	10
39	63	3
49	56	2
1	2	14
39	39	68
36	77	3
62	81	4
18	77	9
6	8	7
70	70	47
63	63	47
174	175	14
177	179	4
9	21	7
33	53	2
188	189	10
221	221	34
22	35	3
65	67	13
162	163	5
45	55	4
31	34	2
42	42	35
106	106	38
46	142	5
203	205	11
224	228	5
5	18	4
224	225	7
34	41	2
30	32	7
33	52	1
24	100	2
220	223	9
19	23	3
15	129	2
182	182	40
141	177	4
166	168	6
159	164	5
192	192	34
50	50	44
216	216	43
211	214	6
242	242	35
0	10	2
7	12	5
0	0	57
227	227	39
239	239	19
197	198	13
43	43	50
129	135	6
15	171	1
98	99	21
31	32	12
225	226	16
59	60	36
45	78	1
177	178	10
7	23	2
211	211	33
147	147	12
65	226	4
95	95	13
100	104	4
115	115	24
230	230	21
77	77	41
171	172	6
59	59	56
102	103	34
177	209	2
98	101	1
74	75	22
47	51	3
101	109	5
162	162	44
192	197	2
161	161	36
0	14	3
5	15	4
29	33	9
170	171	11
219	219	39
8	23	1
167	168	20
64	65	14
175	219	1
72	74	2
197	197	23
186	190	4
27	28	16
137	139	1
10	24	2
71	71	45
241	241	54
121	121	34
65	65	52
100	101	13
215	215	45
23	23	30
156	163	1
145	145	39
190	191	24
72	73	9
180	181	4
117	124	1
159	159	20
202	202	49
142	142	36
145	146	15
173	230	5
203	203	44
107	107	18
152	228	4
180	180	35
188	188	19
179	208	2
40	41	23
126	132	5
28	39	5
49	68	2
62	73	2
69	69	33
49	49	51
168	171	3
28	29	7
183	185	5
153	153	10
36	37	15
105	208	2
217	219	5
73	73	48
175	177	8
122	124	8
109	113	5
24	24	45
198	199	10
18	80	2
22	23	19
79	79	36
132	139	3
26	26	35
148	177	3
145	173	1
228	230	15
191	243	2
16	47	2
143	192	3
27	113	1
207	207	29
199	222	2
108	121	8
27	32	3
183	197	8
3	8	10
173	233	2
62	64	2
223	227	7
55	72	3
25	26	10
78	105	3
233	235	4
33	33	60
180	229	5
194	194	27
194	196	10
39	61	3
124	125	9
32	74	1
18	18	32
182	183	3
118	119	8
123	123	25
98	98	31
39	67	3
133	182	2
186	187	10
76	79	6
16	18	8
173	178	4
206	207	5
141	142	10
114	114	15
8	15	2
232	233	9
68	69	12
20	33	3
4	15	6
140	143	3
236	237	5
196	196	26
167	167	34
108	108	20
207	216	3
81	81	57
64	74	2
91	107	2
98	131	2
21	61	2
2	6	6
111	121	3
163	200	4
100	106	8
29	36	1
100	100	41
113	229	2
172	175	11
82	222	1
44	169	3
150	152	1
2	7	8
3	4	12
138	159	1
88	88	47
153	154	17
44	45	40
151	156	4
43	44	9
217	217	27
1	1	34
205	205	33
72	72	50
202	205	4
64	71	4
77	79	10
28	86	6
141	160	1
210	210	26
11	11	52
21	22	22
217	218	23
116	116	21
149	149	13
29	32	6
21	21	34
207	208	7
40	49	4
7	48	4
226	227	25
224	224	29
191	192	9
73	86	5
126	129	4
213	214	5
229	229	31
75	159	7
82	82	25
170	176	1
78	79	19
74	134	2
41	41	29
168	219	3
195	201	4
141	172	2
153	159	2
142	144	2
61	61	59
34	58	2
204	207	4
18	20	11
96	96	25
7	8	32
125	127	2
144	164	2
42	63	2
43	45	6
134	135	16
139	140	7
27	27	43
128	129	7
235	236	6
107	124	2
19	20	20
82	83	24
90	99	3
104	107	2
216	219	3
6	6	33
54	70	4
162	169	4
109	109	15
179	202	2
58	59	25
151	151	35
33	34	10
22	79	3
179	190	2
60	61	6
55	56	2
47	50	2
27	88	2
73	74	8
60	69	2
79	80	16
105	168	2
163	167	5
29	30	29
95	97	1
176	177	17
172	172	30
231	232	7
212	212	49
240	241	7
54	55	15
21	90	3
214	214	32
172	197	5
170	207	3
84	85	9
175	176	8
1	29	2
9	44	5
213	213	31
209	218	1
203	204	8
138	138	23
212	213	18
105	107	2
25	68	1
145	189	4
46	48	10
22	22	59
138	139	3
228	228	20
230	231	24
128	138	3
41	56	2
194	199	3
29	42	5
13	21	5
119	155	1
96	124	6
141	143	8
3	11	1
42	48	1
20	139	3
0	1	9
146	147	16
171	232	1
180	182	5
21	67	4
20	34	1
1	164	2
45	82	1
156	157	15
12	67	2
169	169	15
18	19	16
193	218	2
8	13	2
187	187	28
28	56	2
172	227	7
163	168	6
56	57	13
105	114	3
14	16	7
57	58	18
5	13	6
166	166	24
46	47	14
21	23	23
99	100	18
8	54	3
138	169	5
195	196	17
153	156	2
205	206	22
223	224	22
12	13	17
125	126	15
55	61	1
91	91	8
142	143	4
45	45	31
158	159	14
143	143	38
188	200	4
200	201	25
22	76	1
8	20	7
198	198	38
10	37	5
222	222	20
22	77	2
136	149	3
60	78	3
37	39	4
191	227	3
138	141	5
121	126	4
148	149	7
28	38	8
124	126	6
11	78	4
76	77	5
143	145	5
18	37	8
170	178	4
4	66	1
163	165	10
136	136	18
54	54	49
36	38	4
146	146	20
211	215	3
2	8	5
142	145	2
23	67	2
196	237	5
7	22	1
4	117	4
101	101	22
105	204	2
117	117	10
44	44	44
118	129	4
61	207	2
6	7	22
50	138	3
172	173	5
0	12	3
161	177	1
179	186	2
24	219	3
67	227	1
39	42	3
154	159	2
78	84	2
51	203	1
15	16	23
0	26	1
205	207	8
115	120	3
225	225	24
135	234	1
113	114	7
139	139	28
111	111	10
77	127	3
104	116	3
198	201	4
60	105	7
48	56	3
139	240	8
210	214	2
118	121	2
30	89	7
139	185	1
0	89	1
214	215	20
168	170	2
123	124	10
169	170	13
48	49	5
80	97	3
137	201	3
55	58	3
115	116	12
9	47	1
43	228	1
80	84	1
163	185	6
211	229	4
34	50	5
162	168	2
65	66	19
51	54	8
21	33	1
16	17	6
214	216	9
236	236	19
136	176	5
20	190	1
193	195	7
120	120	13
154	155	7
0	75	3
54	64	1
222	227	2
159	163	5
139	179	2
65	70	4
152	152	30
209	241	1
60	96	2
219	225	9
54	56	5
115	129	2
21	34	4
105	112	3
114	117	1
176	210	2
118	118	14
39	41	7
187	189	7
149	175	4
23	76	2
216	217	10
46	55	2
52	112	4
51	51	35
115	117	5
101	133	1
95	122	1
23	68	7
14	15	12
10	20	2
99	161	2
53	64	3
77	236	3
192	196	4
37	67	2
18	21	6
193	237	4
62	65	2
237	238	6
45	46	11
69	85	5
212	214	5
13	23	9
7	14	4
205	221	3
145	147	4
75	78	5
63	64	11
37	65	5
190	203	4
164	165	13
155	187	2
217	226	3
81	83	12
139	174	3
228	231	6
52	55	1
5	6	10
139	188	4
30	41	1
42	53	4
57	59	5
3	18	3
56	117	1
202	228	2
81	84	6
8	9	18
150	150	30
48	67	2
129	215	6
13	31	7
201	202	6
136	139	7
186	212	1
3	7	3
61	67	1
182	184	3
186	215	3
140	169	4
104	105	20
204	206	4
199	206	1
84	236	1
235	239	3
131	158	2
37	64	2
171	176	2
109	110	8
167	176	1
4	7	7
97	101	2
4	17	4
62	72	3
239	241	14
36	165	2
56	230	2
213	216	2
64	153	2
0	221	2
40	43	4
38	75	4
42	56	2
139	143	3
108	117	5
173	194	1
205	220	6
116	123	11
86	186	4
21	50	2
155	156	7
230	240	2
149	174	2
24	27	6
12	19	3
17	23	2
134	134	26
65	128	1
120	134	1
185	207	1
108	169	3
228	241	6
156	165	1
11	13	10
68	159	1
217	223	6
168	173	1
115	140	3
182	185	1
15	168	2
156	158	8
213	215	4
121	171	5
0	32	4
216	239	1
59	115	1
70	86	4
197	243	1
28	34	2
191	242	2
198	212	2
169	206	3
71	73	5
154	229	2
95	106	3
197	224	3
159	230	1
155	157	4
122	123	9
137	138	12
56	58	8
141	218	1
71	113	1
192	201	4
85	87	5
129	130	13
46	106	2
62	105	2
14	21	4
164	191	6
14	168	8
4	5	20
43	86	4
106	114	1
121	124	4
143	149	1
47	209	2
145	152	5
140	141	12
6	12	4
99	106	2
46	64	1
100	154	1
64	175	1
124	127	5
187	193	7
2	3	13
219	230	1
67	69	3
15	75	2
193	199	4
221	230	2
103	105	6
6	13	4
54	106	3
116	118	3
102	109	1
14	29	4
64	70	1
109	123	1
65	165	2
136	171	2
47	53	4
24	74	8
103	106	4
18	24	2
133	134	10
98	107	2
183	202	1
22	31	2
42	49	4
162	166	2
70	72	3
23	83	2
175	204	2
170	233	2
215	216	15
11	34	4
187	190	1
139	142	1
33	221	3
124	124	24
80	82	2
147	148	7
163	166	1
11	12	4
220	222	5
238	240	2
86	87	1
81	86	2
42	71	4
226	240	2
158	227	1
5	14	4
91	154	5
39	43	3
182	188	4
95	98	2
59	61	2
149	150	3
40	74	2
149	151	2
4	126	3
1	15	3
139	151	4
7	123	2
44	48	5
74	80	1
35	36	13
60	106	3
26	44	2
43	46	6
215	218	3
119	120	12
103	118	5
158	167	4
152	153	7
21	66	2
8	96	1
31	88	6
7	17	2
19	32	1
178	179	12
188	199	1
234	235	6
5	60	3
11	43	3
150	151	10
200	202	2
14	17	5
204	205	14
55	86	4
205	208	1
5	125	1
179	232	1
163	164	3
145	159	2
69	70	18
140	183	1
67	79	2
149	190	3
230	235	1
27	61	1
222	230	9
77	116	2
1	32	1
71	76	1
195	197	2
28	211	2
229	240	1
32	81	1
200	227	2
57	60	6
141	146	2
109	174	1
84	162	4
75	81	3
50	52	7
9	45	3
158	158	15
64	66	4
208	209	4
13	38	1
117	158	3
226	230	2
165	166	11
84	86	5
101	124	1
188	190	5
6	79	5
236	238	4
39	177	1
169	179	2
47	127	1
54	72	1
109	211	3
183	187	3
127	127	26
80	96	1
179	185	3
54	66	4
61	71	3
23	37	2
61	72	1
51	181	3
77	152	1
64	67	4
31	77	4
9	15	10
172	208	5
9	32	1
156	230	2
95	96	7
80	83	4
32	61	7
233	234	5
35	40	3
180	183	4
95	124	4
129	133	2
15	46	1
7	13	6
31	60	4
60	111	2
15	49	2
73	102	1
130	134	2
185	187	4
22	25	2
20	23	6
120	123	2
215	221	1
51	56	3
58	68	1
23	73	2
11	64	1
40	44	10
208	210	3
185	205	2
60	66	6
119	167	2
8	48	7
202	204	6
45	109	4
5	8	1
83	195	1
52	53	18
115	123	1
6	84	3
221	222	10
152	240	2
161	162	10
73	183	3
101	104	3
118	130	4
173	191	4
63	81	2
140	142	6
208	231	2
54	57	2
46	52	3
49	51	9
64	72	2
42	78	3
0	34	3
154	232	3
114	146	1
29	57	2
75	216	3
107	108	7
31	100	1
66	69	5
210	216	1
3	6	2
168	169	3
42	43	7
72	92	1
70	113	2
36	48	2
166	179	1
68	165	3
26	201	2
229	232	2
24	32	3
97	131	2
66	135	5
120	229	2
135	159	3
59	186	5
24	55	3
35	183	3
229	230	16
8	41	3
48	58	2
32	35	4
22	24	4
53	65	1
19	22	2
241	242	4
16	35	4
80	88	1
187	215	1
16	30	3
165	203	1
184	209	2
6	17	5
22	60	4
47	48	3
63	71	1
172	190	2
130	130	9
184	186	9
187	218	3
159	161	8
39	76	2
227	228	4
29	63	5
224	227	5
127	130	1
67	125	1
61	99	2
178	203	3
82	86	2
29	56	1
138	150	2
21	79	5
89	89	8
127	128	13
170	173	1
130	158	1
194	198	2
187	199	1
152	235	4
99	102	2
44	182	4
123	125	1
34	75	6
176	190	3
7	16	2
162	178	3
74	153	3
146	153	1
17	21	7
166	175	1
65	68	3
84	88	7
165	175	2
143	144	5
24	79	2
43	47	2
163	169	4
119	169	1
95	103	3
135	142	3
35	48	5
31	105	1
75	77	3
227	233	2
196	198	4
65	185	1
15	35	1
159	160	8
26	27	4
108	119	2
13	17	1
21	30	1
73	171	2
78	80	3
225	227	5
1	12	3
230	243	2
211	220	2
79	157	3
4	18	3
47	54	3
144	195	2
230	232	6
148	150	3
11	15	4
26	71	2
35	58	2
73	75	2
231	238	2
219	220	8
39	127	3
116	190	2
213	222	2
153	155	2
71	100	1
27	78	5
69	71	4
198	200	8
125	132	2
132	132	2
171	178	5
52	76	2
168	208	2
234	240	1
116	126	2
42	54	2
44	213	1
12	15	2
183	189	2
8	31	4
192	194	8
57	61	3
131	132	4
34	63	1
133	153	3
142	147	3
131	143	2
40	67	2
40	76	2
11	97	1
30	49	1
5	49	1
140	146	2
136	138	5
172	236	1
102	105	1
47	161	3
58	60	12
67	68	6
59	65	3
21	123	3
17	18	9
76	80	1
8	22	8
33	129	4
143	147	2
39	40	6
115	118	2
243	243	4
193	197	3
177	198	1
49	186	4
138	143	2
30	145	2
15	127	1
12	68	1
211	222	4
24	101	1
149	157	1
205	216	1
116	122	5
181	185	4
37	63	2
119	122	1
155	159	3
5	78	2
31	128	2
6	151	1
153	201	2
120	167	1
0	2	4
134	136	4
67	78	1
30	80	1
35	37	10
10	15	1
80	91	3
149	152	3
102	235	2
35	50	1
183	212	3
197	200	3
50	53	2
30	98	2
128	131	5
28	122	3
96	242	4
4	79	1
126	130	4
222	223	1
59	66	2
25	61	1
162	228	4
99	235	4
238	239	5
25	74	2
1	74	1
176	183	2
12	125	1
0	16	1
85	86	10
8	33	2
38	48	1
187	188	4
104	124	4
65	137	3
69	138	2
10	28	1
99	105	3
31	76	2
124	203	1
202	232	4
172	178	1
86	145	1
25	39	3
48	77	2
135	138	1
47	188	1
100	103	7
35	63	1
148	166	1
136	137	9
223	225	4
41	48	2
58	79	2
147	153	1
154	187	4
134	139	2
116	125	4
11	86	1
144	159	2
209	211	2
212	230	1
193	200	1
23	48	3
56	186	2
8	12	7
131	171	1
46	138	2
29	43	1
219	229	7
30	34	3
42	178	1
215	227	1
190	214	4
87	87	3
22	59	2
198	233	1
148	175	3
99	144	1
34	36	4
26	74	3
95	184	2
29	69	1
122	129	1
144	154	1
128	157	3
123	129	2
156	168	2
206	238	2
51	53	4
47	64	1
74	101	1
68	73	2
4	16	5
5	23	2
160	164	3
26	188	1
108	110	2
1	11	2
196	202	1
141	179	1
206	208	5
1	37	1
84	228	1
49	54	3
171	221	1
6	16	1
226	228	4
164	235	3
165	168	5
54	159	1
35	60	1
8	76	1
160	183	1
111	113	1
182	186	2
210	225	1
2	116	4
160	227	1
162	209	4
105	165	1
19	137	1
36	78	2
56	68	3
63	70	1
121	187	3
158	177	2
144	153	2
58	66	4
66	73	4
98	113	2
139	168	2
4	190	5
100	109	2
166	167	5
53	95	1
161	171	1
134	234	2
65	84	3
28	74	4
74	76	1
12	14	13
71	202	2
3	33	2
17	29	4
13	79	1
210	211	3
41	49	1
133	220	4
4	34	2
181	230	1
175	221	1
55	74	3
122	127	2
22	126	1
37	62	2
71	72	7
89	163	3
1	33	1
65	72	4
42	68	1
15	17	7
178	211	7
33	75	1
139	141	5
118	168	3
4	14	4
50	80	1
72	202	2
38	39	5
231	234	4
183	186	6
42	84	1
142	190	1
135	153	2
100	107	3
179	188	3
40	75	2
65	69	3
68	70	4
172	180	1
86	97	1
200	205	4
210	217	1
159	173	1
36	61	1
196	243	2
25	32	6
162	170	2
157	159	3
191	225	1
205	213	2
136	175	4
204	242	1
120	128	2
136	189	2
15	39	2
20	32	5
212	228	1
196	201	1
112	129	1
133	136	2
4	33	1
17	20	1
68	143	1
3	105	2
9	53	1
48	50	3
139	176	4
5	21	1
11	62	2
36	40	1
38	51	1
101	170	2
86	91	1
48	187	4
222	224	1
51	57	5
153	241	1
181	221	1
121	128	1
171	207	1
215	222	3
110	172	3
102	209	2
49	53	2
33	35	2
48	51	2
59	221	3
103	218	1
95	147	1
108	130	1
22	130	2
166	226	1
44	111	1
5	12	1
56	91	1
118	124	1
136	142	1
110	143	3
207	209	4
135	137	5
20	28	6
76	78	3
21	37	2
1	75	1
109	191	3
60	108	3
58	61	2
148	153	2
163	198	3
72	82	3
102	173	3
104	118	1
154	161	1
19	41	5
119	126	1
122	125	1
114	115	1
32	33	9
146	151	1
3	28	2
10	82	2
171	173	5
5	36	3
12	16	2
169	234	2
189	192	2
23	66	3
175	181	1
19	88	2
65	80	1
41	89	5
1	34	1
15	19	2
53	63	1
102	164	3
23	75	2
237	239	2
132	134	1
19	31	2
168	179	1
120	154	2
18	75	2
219	223	1
25	147	4
52	88	1
150	176	1
182	237	2
44	110	2
118	122	3
12	18	1
95	150	1
123	222	3
99	129	2
126	168	5
220	226	2
5	7	1
149	185	1
142	218	1
120	153	3
107	115	2
7	31	3
73	109	2
34	222	3
70	78	2
56	143	2
189	197	3
0	116	2
228	235	2
160	161	1
28	32	1
209	216	2
3	9	3
191	194	1
28	99	1
55	101	4
10	64	1
33	36	1
202	231	1
202	208	6
169	178	1
40	42	2
98	100	4
191	221	2
8	18	1
184	185	6
76	116	1
47	160	1
85	132	2
137	145	1
136	140	1
50	61	2
86	101	1
129	168	1
195	199	3
82	84	1
53	58	3
138	218	1
82	225	2
146	187	3
53	162	3
172	233	3
47	165	2
106	108	7
63	73	1
40	69	2
74	78	1
73	99	1
23	38	2
17	231	2
69	72	2
91	103	1
40	48	2
17	30	2
59	62	1
100	179	1
3	124	1
158	161	3
79	95	1
180	232	3
10	45	1
37	41	2
128	154	3
12	127	2
79	84	3
3	48	2
30	118	2
55	67	2
27	30	5
47	183	2
24	29	2
19	40	1
14	18	1
195	209	1
180	211	1
59	68	1
148	163	2
104	108	1
18	79	1
1	3	1
99	113	2
152	154	2
231	233	1
38	40	1
30	134	2
179	212	1
60	73	1
79	107	1
174	204	2
57	107	1
24	69	2
28	43	2
108	170	1
173	176	2
203	230	3
15	104	1
2	19	1
3	43	1
130	149	2
8	78	1
138	140	1
50	59	1
11	40	1
70	85	1
65	122	1
171	231	2
145	155	2
20	25	3
103	207	2
0	231	1
30	113	1
169	222	3
159	227	1
192	193	2
197	242	3
19	58	2
67	82	1
142	180	1
1	13	1
61	64	6
60	92	1
34	42	2
55	57	3
165	167	1
66	154	1
29	114	1
144	147	2
158	165	1
67	85	2
148	154	3
153	157	5
122	211	2
166	200	1
158	160	2
3	96	1
11	190	2
13	30	2
22	80	1
31	40	1
103	178	1
119	180	1
173	224	1
23	32	2
42	226	1
183	188	4
32	52	2
127	137	2
108	129	6
160	172	3
22	41	2
14	125	1
234	241	2
118	120	3
79	82	1
175	178	3
232	236	1
17	45	2
47	190	2
200	217	1
148	152	1
97	98	1
209	212	1
77	86	3
23	25	1
47	52	1
156	159	1
20	45	1
26	31	1
195	200	3
21	29	1
13	35	1
25	40	1
79	81	4
7	41	1
10	19	1
50	55	1
9	123	2
40	45	1
42	45	3
62	100	1
116	117	5
34	59	3
162	172	1
86	88	7
120	122	3
59	64	2
77	90	2
204	216	1
130	164	1
197	208	1
12	79	2
165	215	1
132	133	1
3	38	1
157	158	3
98	104	2
43	210	3
164	179	1
12	80	2
85	159	2
172	232	3
48	53	2
21	24	2
14	46	2
237	242	1
31	66	1
64	78	1
47	49	1
27	67	1
134	161	1
142	205	2
180	210	1
140	160	2
16	19	1
18	32	2
11	65	2
3	74	3
7	138	1
120	161	1
37	47	3
140	179	3
203	217	1
49	60	2
28	134	2
225	241	2
107	110	2
76	148	2
29	31	4
40	57	1
171	233	1
49	65	1
109	173	1
33	61	1
178	231	1
43	162	2
141	141	6
149	154	2
113	121	1
43	48	1
124	130	1
152	184	1
228	232	2
0	35	1
44	47	1
136	152	1
143	146	1
160	193	1
70	73	2
24	35	1
29	66	1
177	218	1
36	43	1
11	39	3
136	151	1
42	50	1
201	205	1
188	197	1
21	41	2
18	95	1
217	239	2
167	170	1
11	192	1
41	60	1
11	189	2
104	122	1
133	161	1
145	181	1
177	200	1
170	206	3
192	195	3
129	216	1
15	24	1
140	217	2
32	55	1
209	221	1
97	106	1
117	189	2
119	161	4
15	31	1
121	129	3
48	60	1
72	189	1
3	12	4
110	111	4
141	155	1
34	38	1
193	196	2
40	92	2
38	42	2
9	58	1
198	228	3
6	207	1
176	179	2
146	149	2
21	62	1
128	132	1
129	156	1
143	150	1
11	28	1
145	156	1
219	227	1
63	68	4
38	46	3
120	127	3
2	32	1
41	43	1
129	137	2
194	220	1
109	160	2
48	75	1
10	61	1
65	164	1
17	98	1
49	58	1
34	77	1
137	170	1
145	192	1
51	59	4
32	36	1
24	128	1
24	26	1
131	141	1
131	137	1
17	19	2
192	199	2
1	52	2
240	242	1
190	222	1
211	230	1
145	236	1
226	229	1
27	87	1
178	242	3
162	180	1
134	236	1
159	208	1
118	123	1
89	122	2
119	123	1
202	217	2
6	9	1
78	81	1
8	137	1
215	228	1
122	126	2
26	151	1
121	123	2
131	188	2
25	188	1
115	128	1
186	188	1
15	30	1
5	17	1
198	230	1
9	11	1
108	206	2
71	75	1
152	159	1
233	242	1
3	75	2
178	208	1
6	49	1
185	189	1
233	238	1
36	75	4
192	208	1
68	72	1
119	124	3
209	213	2
21	125	1
5	22	1
32	45	1
173	202	2
18	91	1
25	28	1
7	21	3
156	236	1
114	121	1
154	156	1
120	156	2
44	46	2
138	237	1
27	55	1
79	85	1
150	235	1
117	121	1
184	224	2
183	198	1
13	16	1
42	60	1
61	165	1
49	77	1
180	215	1
88	89	2
158	171	2
15	173	1
56	59	1
169	172	2
138	242	1
91	129	2
38	69	1
203	236	1
99	107	1
137	188	1
103	169	1
0	37	1
176	199	1
24	75	1
126	164	1
76	81	2
62	88	1
134	150	2
103	176	1
0	45	1
39	50	1
35	62	1
178	232	1
95	100	1
35	49	1
177	199	1
8	97	1
62	66	1
67	155	1
61	101	1
199	229	1
9	26	1
29	38	1
71	112	1
213	219	1
30	33	1
224	230	1
76	105	1
56	66	1
151	235	1
144	148	1
40	55	1
109	111	1
64	178	2
25	102	2
1	14	1
58	235	2
209	226	1
207	223	1
3	117	1
188	193	1
19	37	1
42	44	1
115	122	1
151	162	1
169	177	1
136	182	1
63	65	1
26	70	1
230	241	1
78	82	2
23	69	1
190	227	1
30	119	1
100	133	1
190	213	1
154	157	1
231	240	1
46	57	1
147	165	1
107	126	1
54	62	1
138	185	1
69	73	1
189	222	1
55	65	1
2	92	2
134	242	1
150	195	1
44	72	1
25	89	1
59	69	1
4	124	1
210	223	1
160	187	1
142	183	1
62	83	1
158	230	2
167	169	1
60	75	2
136	242	1
105	109	1
34	82	1
64	163	1
114	125	1
101	106	1
49	57	1
38	63	1
146	175	1
30	35	1
156	160	1
132	137	1
99	103	2
173	175	1
23	27	1
60	77	1
83	154	1
109	114	1
132	220	1
30	38	1
131	165	1
186	189	1
184	187	1
25	109	1
60	107	1
11	122	1
213	229	1
8	10	1
185	188	1
151	155	2
1	116	1
48	242	1
12	36	1
118	148	1
