147	147	10
100	100	9
79	79	11
125	126	10
117	117	20
113	115	7
104	104	15
8	8	11
116	116	10
32	32	11
46	46	15
18	18	20
41	41	7
24	25	6
144	144	8
81	81	8
52	54	3
8	9	2
4	4	7
93	97	5
124	124	2
91	92	13
94	94	10
23	24	5
7	7	15
150	151	10
105	105	14
24	24	11
107	109	5
65	65	4
75	75	21
5	5	8
73	73	12
24	53	4
39	39	16
43	43	23
5	8	1
50	50	6
18	28	4
156	156	11
16	18	3
9	9	9
1	1	14
70	70	4
52	52	11
34	35	3
88	88	9
15	30	6
149	149	5
43	52	1
71	72	1
77	77	13
80	81	6
130	131	6
9	10	7
135	137	5
139	139	19
56	56	10
125	125	5
135	136	9
44	45	11
51	52	5
35	35	19
31	95	3
6	87	2
32	33	4
130	130	26
116	117	3
119	120	2
0	0	8
85	85	8
108	108	16
36	36	6
112	112	15
122	123	10
53	54	5
34	34	13
103	104	5
93	95	5
45	47	7
33	33	21
19	19	4
27	27	11
93	93	4
84	84	11
117	141	1
47	48	1
25	26	5
80	80	2
33	34	5
127	127	19
5	6	8
140	140	8
19	20	6
157	157	9
27	28	7
154	154	4
144	146	6
20	21	3
69	70	7
134	139	2
142	155	4
98	98	14
29	29	15
134	134	14
37	40	2
23	25	1
38	38	9
89	90	7
7	8	9
2	2	9
152	154	10
91	91	16
142	142	5
78	79	7
67	67	13
51	54	4
25	25	10
156	157	2
131	136	4
82	83	8
16	16	4
92	95	5
30	30	21
132	132	8
73	81	1
97	97	13
28	28	12
133	133	14
91	94	1
126	126	9
21	21	12
92	92	10
45	46	4
99	99	9
69	69	3
74	74	2
105	124	3
63	64	1
77	79	2
92	94	2
83	85	6
22	22	6
129	129	17
103	103	13
40	40	16
12	16	2
88	89	8
48	48	10
88	96	4
42	43	2
9	11	3
124	128	4
34	88	2
138	139	6
21	22	6
52	53	4
90	91	1
113	113	6
36	37	5
54	55	7
18	26	1
138	138	12
5	7	2
95	95	11
106	109	5
72	72	5
47	51	1
24	116	1
87	87	9
106	107	7
27	29	6
107	107	4
8	10	3
68	68	4
96	97	3
96	96	13
6	6	6
142	144	3
33	36	3
140	141	1
0	72	2
114	114	7
102	105	1
20	22	1
72	73	2
49	50	3
44	44	14
122	122	5
84	86	2
45	48	5
90	90	16
78	78	3
101	111	2
111	111	13
20	20	4
3	3	10
131	132	3
66	73	4
93	94	4
155	155	6
37	37	9
31	113	2
123	123	4
22	24	3
141	141	6
98	99	4
45	96	1
82	88	6
15	28	7
153	153	2
79	81	7
54	54	5
82	85	2
106	106	4
19	21	2
65	66	3
73	99	2
146	146	4
158	158	8
0	3	5
12	12	10
136	136	4
82	82	8
76	78	1
152	152	7
44	55	7
112	115	4
45	45	11
120	120	6
26	26	3
114	116	2
66	66	15
150	150	8
115	117	1
145	147	1
147	153	4
94	97	3
16	19	2
24	26	1
87	90	4
34	38	4
121	123	3
151	151	3
148	149	1
105	106	1
153	155	1
110	110	4
4	8	2
67	69	2
55	55	9
74	75	3
11	11	2
115	116	1
129	131	3
146	147	4
115	141	1
47	47	13
139	140	1
117	118	5
133	138	2
17	156	2
97	98	3
39	41	2
75	76	1
148	148	6
2	5	2
137	137	1
42	53	1
83	83	2
34	36	3
87	93	4
31	31	5
118	142	1
6	7	1
39	43	2
38	41	4
53	53	1
128	128	8
29	31	2
150	157	6
0	1	7
23	23	8
101	101	11
31	33	1
35	36	1
17	18	4
10	10	3
143	143	9
131	133	3
122	127	3
17	17	9
18	19	11
79	82	1
16	36	2
55	56	3
19	141	3
75	108	2
128	129	1
137	139	1
149	150	3
130	133	2
4	5	6
92	114	2
1	2	10
91	100	4
62	62	2
40	150	4
104	106	1
120	122	1
68	71	3
89	89	3
64	90	3
95	97	1
65	142	2
109	109	4
129	130	5
26	28	2
30	110	1
15	16	2
111	129	2
71	71	9
131	137	1
41	110	2
15	15	1
152	155	3
29	30	5
132	133	1
76	76	3
132	137	1
141	142	3
131	131	5
118	119	2
145	145	5
13	28	1
144	156	1
43	55	3
28	29	3
5	99	1
102	125	2
35	39	2
155	157	1
41	43	3
157	158	1
86	87	1
75	81	2
146	154	3
22	116	1
87	88	5
110	111	4
67	68	3
115	115	5
77	112	2
1	3	2
76	79	2
123	124	1
102	102	1
137	138	3
42	42	6
30	32	1
12	17	1
46	48	3
117	120	1
124	125	2
125	136	3
99	100	3
86	86	3
13	13	4
99	149	1
92	93	3
106	108	2
112	126	1
28	30	2
115	131	1
4	7	3
142	156	2
141	144	1
144	152	1
17	83	1
95	96	2
124	135	1
150	156	1
22	23	4
119	133	1
127	128	3
48	49	2
114	115	3
6	39	1
132	134	1
128	138	1
3	4	2
43	51	2
51	51	3
79	80	1
16	17	1
42	51	4
50	51	3
29	116	2
1	90	2
17	20	1
77	103	1
117	130	1
44	46	1
141	156	1
133	134	4
117	119	1
62	63	1
136	137	2
117	131	1
43	44	1
47	50	1
135	135	3
140	149	1
141	143	1
122	125	1
88	93	2
118	118	2
120	121	1
137	147	1
68	69	1
127	139	1
79	98	2
13	14	2
20	43	1
114	117	2
57	63	1
100	101	2
1	4	2
43	46	1
14	14	1
91	101	1
119	119	1
14	16	2
121	125	2
39	40	1
8	11	1
82	84	1
111	113	1
109	112	3
46	72	1
10	11	1
141	153	1
13	15	1
141	152	1
24	30	2
109	111	1
129	139	1
92	116	1
26	27	2
128	133	1
151	154	1
69	91	1
11	16	1
123	138	1
11	120	1
145	150	1
32	39	1
66	70	1
55	72	1
40	46	1
134	135	1
51	55	2
56	61	1
26	79	1
30	31	1
46	47	3
129	134	1
41	42	1
40	41	1
90	96	1
113	119	1
