23	31	6
103	129	4
50	50	8
89	89	6
75	75	13
77	77	7
115	117	2
131	131	18
29	29	11
118	119	4
104	104	20
57	57	9
128	128	20
90	91	10
130	131	4
4	5	9
54	55	14
8	8	8
103	103	22
70	70	6
117	117	20
71	73	4
135	135	17
21	21	19
141	141	25
92	95	2
91	91	12
17	17	13
92	92	13
118	123	5
143	143	14
42	59	7
83	96	3
118	135	3
120	120	13
133	134	7
30	38	3
50	51	6
138	138	7
68	68	9
59	79	2
6	6	12
133	137	2
19	19	19
37	42	3
53	53	3
116	116	8
122	123	12
137	140	1
36	36	18
78	78	13
126	127	20
119	119	23
32	35	4
113	123	2
129	129	10
20	20	26
108	108	13
3	35	1
144	144	19
60	60	2
125	142	2
49	50	7
121	123	3
54	54	11
123	123	18
111	111	12
100	100	16
63	64	7
126	126	22
107	107	10
10	10	15
132	139	3
73	73	3
61	64	4
127	130	19
99	99	18
28	38	5
77	78	10
62	62	15
40	40	15
96	113	1
9	9	8
133	138	6
123	124	17
104	141	1
101	101	25
122	122	10
39	39	20
106	106	1
130	130	23
41	42	4
86	88	7
83	84	1
26	26	12
116	117	5
109	109	14
29	38	3
88	88	8
134	140	5
16	66	4
113	114	2
24	26	9
1	1	19
18	18	15
120	143	6
55	56	9
25	25	14
51	51	10
127	129	12
123	140	4
71	100	2
110	110	6
83	95	3
105	105	16
23	27	1
74	102	3
134	141	5
42	42	10
87	87	4
22	22	26
63	63	9
82	84	9
6	49	4
38	41	3
62	63	7
135	136	2
26	38	5
69	69	9
33	33	8
23	23	10
127	127	11
50	83	3
125	130	4
29	30	4
88	90	3
41	41	18
54	60	4
113	113	9
28	28	15
102	103	9
38	38	14
67	80	12
60	69	2
84	84	7
17	20	2
125	125	11
87	93	1
120	121	1
49	49	14
76	89	1
64	66	2
67	67	27
23	30	4
56	56	12
125	131	1
16	16	17
96	96	4
103	109	3
37	37	9
47	48	2
10	20	2
102	133	4
95	95	6
139	139	11
71	101	2
86	87	3
87	90	4
27	27	30
83	83	9
137	137	9
38	40	3
121	137	1
24	24	8
61	62	4
142	142	9
17	48	4
103	108	3
55	55	11
13	18	2
76	76	5
5	5	12
15	15	16
13	13	8
83	98	1
55	64	1
112	113	8
30	30	13
124	125	8
85	85	9
89	90	3
34	35	14
56	57	4
96	98	7
140	140	15
111	131	3
138	140	3
76	78	3
137	138	8
21	22	4
140	141	7
14	16	3
99	101	2
82	88	4
145	145	7
3	34	2
129	130	13
133	141	2
31	37	3
141	142	6
58	59	3
94	94	10
136	137	6
55	67	2
124	131	11
121	121	7
18	19	12
66	67	3
66	66	22
72	100	1
108	138	1
124	141	2
42	49	2
92	93	2
75	76	3
2	4	2
124	142	4
112	127	2
126	130	4
9	24	5
39	51	2
119	120	9
80	80	8
12	13	8
79	79	6
128	130	4
43	88	2
0	21	8
132	132	6
118	118	22
82	95	2
82	83	6
34	34	8
136	136	6
114	114	8
60	61	7
74	90	2
133	139	1
133	133	9
78	79	3
124	143	1
31	32	2
118	120	1
100	101	1
119	130	5
113	122	1
102	134	4
48	49	2
26	102	5
135	138	4
121	136	2
126	129	3
24	37	6
74	74	16
90	95	2
75	91	3
115	115	9
109	139	3
110	133	1
124	133	5
124	124	21
73	74	9
52	52	4
23	24	5
102	102	17
87	88	3
66	81	1
59	59	8
48	48	6
26	74	2
5	63	4
72	72	7
90	90	6
43	43	12
95	96	6
88	89	3
25	26	4
77	80	1
12	14	3
119	128	5
104	107	2
76	91	2
122	134	4
101	102	2
17	29	3
3	3	4
3	4	5
65	65	3
128	129	5
143	144	4
31	36	3
110	141	5
82	85	8
100	126	1
11	63	3
117	123	1
127	128	6
117	118	5
19	24	3
33	34	4
94	95	1
74	99	1
84	85	4
51	83	1
11	11	3
132	133	4
30	32	3
36	37	3
111	112	6
139	140	6
64	64	7
5	47	3
110	113	1
28	29	2
89	102	4
82	82	1
126	128	5
93	93	9
2	36	2
88	103	3
9	10	4
134	134	11
103	104	2
71	71	5
65	66	1
65	71	2
81	81	5
107	108	5
145	146	2
121	122	2
101	134	5
69	70	4
32	32	4
6	48	6
121	139	3
68	71	2
71	99	3
98	98	9
138	139	6
89	103	1
18	24	3
32	34	5
66	100	5
124	134	3
63	65	2
104	140	1
20	21	1
108	139	2
15	16	3
4	4	2
8	13	3
118	141	2
131	132	2
118	122	1
61	61	6
89	91	4
14	14	6
13	20	4
102	109	1
67	68	2
76	79	2
60	62	2
125	127	3
27	102	2
66	68	1
99	100	7
115	116	1
108	135	1
50	52	2
79	81	1
50	53	5
135	141	3
13	14	2
96	97	3
110	139	1
8	23	4
74	76	1
134	138	1
40	41	5
93	94	10
39	40	5
59	60	2
91	101	1
57	60	3
58	58	3
47	47	4
59	64	1
69	75	1
97	97	4
10	11	5
66	79	1
74	75	1
38	42	2
133	136	7
58	84	1
37	38	2
2	6	3
142	144	2
35	35	5
38	39	3
125	126	4
71	74	4
26	37	2
109	112	2
50	82	4
92	113	2
80	81	4
68	69	2
72	102	1
93	97	3
2	2	7
125	128	1
92	98	2
142	143	4
5	48	2
74	100	2
134	135	4
117	125	1
2	3	4
104	118	2
73	75	1
79	80	4
27	28	2
93	114	2
117	119	2
77	79	2
137	139	3
4	34	1
65	69	1
115	128	4
21	35	1
109	110	2
140	143	2
90	92	1
103	143	1
26	41	4
39	41	3
33	36	2
136	138	2
17	18	1
114	115	3
8	21	1
92	114	1
125	141	1
131	140	1
105	120	1
0	38	1
135	137	1
101	128	1
2	62	1
68	70	3
76	77	1
18	27	3
40	52	1
22	28	1
65	83	1
26	127	2
12	15	1
85	87	1
43	60	1
53	54	1
108	109	2
31	33	1
66	69	1
33	38	1
104	105	2
19	23	1
112	112	4
110	111	1
31	31	2
64	65	2
33	37	1
112	124	1
131	137	1
49	51	1
119	143	1
4	35	1
69	71	1
8	9	2
112	125	1
86	97	1
131	133	2
105	106	2
19	21	1
81	87	1
121	134	1
104	135	2
37	60	1
123	133	1
66	87	1
1	3	1
59	61	1
81	82	1
73	101	1
66	72	2
12	20	1
22	23	1
26	27	1
112	132	1
27	128	1
42	58	1
57	62	1
38	128	1
83	85	2
30	31	1
6	21	1
27	67	1
82	87	1
120	144	1
25	37	2
117	141	1
56	65	1
5	6	1
102	110	1
58	61	1
