109	111	1
66	125	1
121	122	2
68	68	3
33	33	4
18	18	9
37	37	2
138	138	5
6	67	1
8	8	5
32	32	9
32	48	3
134	135	1
116	116	8
112	139	2
62	66	2
73	73	2
2	23	1
14	90	2
18	19	4
117	117	8
80	81	1
90	90	2
36	36	2
72	72	6
13	127	3
63	63	5
121	121	2
118	119	5
20	20	5
15	15	4
93	106	4
128	128	6
24	24	3
140	141	4
26	127	2
89	89	2
12	108	2
87	87	6
62	117	2
118	118	5
108	125	2
50	51	3
34	34	1
55	134	4
101	101	4
24	26	1
32	33	1
38	38	6
109	109	4
119	119	6
93	93	3
110	110	6
141	141	4
62	63	3
75	132	1
105	105	2
15	16	4
91	92	1
64	65	2
53	62	1
107	107	6
34	41	3
75	75	8
25	25	1
81	81	4
17	22	1
5	5	2
135	135	4
100	100	5
92	93	2
17	29	1
19	19	6
42	42	4
76	76	4
79	96	1
35	69	5
125	125	2
23	23	3
31	116	1
33	34	3
14	15	4
30	30	2
131	131	1
143	144	2
78	78	3
74	131	2
69	69	4
50	66	2
85	131	2
4	4	7
119	135	1
1	61	2
91	124	5
33	35	2
111	111	1
113	114	3
75	96	1
126	126	2
123	123	2
58	58	5
2	3	5
21	26	2
48	52	1
66	82	2
139	139	4
77	78	3
62	62	3
87	91	1
22	22	4
130	141	1
21	21	3
61	61	3
125	126	1
136	137	3
9	9	3
51	52	2
120	120	2
145	146	1
19	99	5
0	3	1
41	41	8
54	55	2
91	91	4
66	66	2
64	64	7
124	132	4
67	67	1
51	77	4
124	124	1
51	87	2
98	98	6
144	144	3
29	29	3
142	144	2
134	141	2
20	21	4
15	125	3
47	47	4
140	140	5
38	41	1
95	97	1
56	85	2
92	94	1
61	126	1
33	62	3
133	133	4
106	113	1
49	50	4
16	17	1
131	137	1
141	143	1
57	58	1
48	48	4
119	121	2
18	24	3
48	57	1
26	73	1
31	31	3
82	82	2
14	14	3
13	14	2
60	60	6
102	102	2
89	90	1
13	108	3
52	52	3
110	111	1
95	103	2
63	65	3
87	90	1
49	49	4
98	99	1
10	25	2
6	6	1
69	70	1
129	129	2
87	88	1
114	114	1
112	112	2
12	31	1
99	105	2
129	130	2
39	39	2
57	133	1
59	60	2
17	17	1
60	133	3
72	73	2
5	6	1
79	80	1
87	101	2
133	136	2
139	140	1
16	16	3
50	50	1
92	92	1
5	85	2
77	77	1
66	70	4
57	57	2
112	114	1
75	118	3
77	118	1
57	127	2
59	67	1
46	47	2
54	64	2
10	10	1
79	79	3
128	129	1
4	81	2
93	108	1
99	100	3
92	106	1
110	136	2
96	97	1
145	145	1
132	132	3
124	127	1
117	118	1
115	115	2
57	113	1
66	67	2
6	10	2
55	145	2
33	50	1
81	85	1
95	95	2
49	122	1
62	125	1
4	65	1
47	78	2
26	26	1
104	107	2
106	127	3
65	65	2
39	54	1
56	114	1
71	81	1
3	35	1
65	140	1
61	130	1
51	85	1
73	74	1
107	112	1
53	73	1
138	139	2
135	138	1
71	127	1
67	99	1
100	101	1
35	36	1
24	25	1
107	110	1
40	40	3
122	141	1
62	74	1
113	113	2
55	73	1
13	16	1
106	106	3
53	58	1
6	19	2
130	130	1
21	22	1
62	88	1
1	3	1
38	55	1
26	81	1
42	53	1
122	122	2
94	94	1
103	103	1
8	9	1
11	11	1
11	40	1
55	56	1
