93	93	2
120	120	1
201	201	10
214	214	11
153	169	5
43	43	7
69	71	2
20	57	3
155	155	9
230	231	2
110	246	5
236	236	3
86	86	1
50	50	2
48	48	4
40	40	3
85	85	1
68	70	1
67	69	1
207	207	4
9	10	1
52	52	6
159	159	2
205	205	12
152	152	4
56	56	2
215	215	3
95	95	5
234	234	1
212	212	5
158	158	3
242	242	1
73	73	5
16	16	5
75	111	2
24	24	2
70	70	2
57	62	3
165	184	1
103	107	2
237	238	1
10	19	3
182	182	7
191	224	3
27	28	4
22	22	5
225	225	2
165	165	6
111	113	2
42	42	10
71	72	3
89	89	2
200	200	4
6	6	3
113	113	2
195	195	5
241	242	3
105	105	4
76	77	2
165	171	2
100	205	1
180	181	2
202	202	7
150	150	5
247	247	4
157	157	1
90	91	3
26	26	10
167	167	1
44	44	3
94	94	1
85	183	1
153	153	6
75	75	3
203	203	1
27	27	2
167	217	1
83	84	1
231	231	2
62	62	3
32	32	2
198	199	4
39	39	4
33	33	5
23	23	4
41	41	2
244	246	2
190	190	5
191	192	3
67	67	6
81	230	1
72	72	1
112	112	2
162	162	4
233	234	1
227	227	4
158	160	1
200	201	2
161	161	4
165	193	2
194	194	5
184	185	1
177	181	3
144	145	2
27	220	1
229	229	2
166	217	4
110	110	9
156	173	2
97	97	2
156	156	1
211	239	1
238	238	5
146	147	3
66	66	5
245	245	3
80	83	2
30	34	3
209	243	1
63	63	3
64	64	3
240	241	3
216	217	2
221	221	3
243	243	3
110	145	4
229	230	6
42	43	3
189	189	2
164	164	6
44	54	1
18	18	2
65	229	2
187	187	1
61	61	2
78	78	2
68	68	1
102	102	3
109	109	4
108	108	2
84	86	1
40	41	3
54	55	1
237	237	4
178	178	4
20	20	1
48	77	1
210	210	1
98	98	1
51	51	5
117	119	2
117	117	3
145	181	2
168	168	2
38	49	1
192	193	2
178	179	2
20	30	2
5	74	3
151	151	4
9	9	1
200	203	1
175	175	3
7	7	3
240	240	5
74	74	2
63	64	1
224	224	2
20	33	1
186	234	2
187	188	4
166	166	3
176	176	2
172	172	5
147	151	1
106	106	1
211	237	1
184	184	4
243	248	1
195	196	1
188	188	4
176	177	1
70	71	2
36	36	3
157	163	1
232	233	4
167	169	2
84	84	3
152	166	4
46	47	3
34	34	2
171	171	4
11	11	2
149	149	1
216	216	1
179	179	1
54	54	2
33	49	2
99	99	5
212	242	1
47	47	1
7	8	2
1	1	4
57	58	1
208	208	1
30	55	3
6	39	1
115	116	1
198	198	4
53	53	2
232	237	4
11	12	1
59	60	1
45	46	3
197	197	1
102	118	1
106	149	1
186	221	1
55	55	2
192	192	1
57	59	1
199	200	1
160	160	2
87	87	4
239	239	2
213	214	2
109	112	3
29	29	1
209	209	6
39	41	1
211	211	2
185	185	3
65	65	2
20	22	1
33	34	1
174	174	2
163	165	2
173	212	1
15	16	1
163	163	1
67	154	1
190	191	1
224	236	1
180	184	1
113	114	1
64	66	1
105	118	2
235	235	1
176	180	1
31	31	1
234	235	2
233	238	1
192	195	1
99	100	4
37	38	1
8	8	2
192	207	1
25	26	1
160	210	1
119	119	1
157	158	1
38	47	1
58	90	1
226	228	1
93	94	1
246	246	3
110	118	1
178	180	1
30	30	3
78	79	1
101	101	1
226	229	1
193	193	2
168	200	1
165	166	1
229	231	2
145	145	1
116	116	2
217	217	1
114	115	1
81	82	1
91	91	1
46	55	1
212	226	2
168	173	1
47	50	3
204	205	1
97	98	1
25	25	1
168	202	1
169	171	1
76	80	1
247	248	1
5	5	1
220	220	2
186	186	1
203	204	2
168	169	1
170	211	1
164	177	2
79	85	1
214	221	1
95	96	2
19	19	1
181	181	1
244	244	1
