155	155	6
21	31	2
134	134	4
14	31	2
58	58	7
17	17	17
62	62	15
8	9	10
10	10	13
72	84	2
16	16	7
176	176	12
139	139	3
117	117	9
127	127	18
32	32	13
15	15	21
73	119	3
39	39	13
79	79	5
2	22	1
58	126	4
10	31	3
173	175	3
30	30	19
9	10	6
166	170	1
38	42	2
169	169	17
65	65	6
8	8	10
23	23	10
37	37	20
74	74	15
157	157	5
18	19	7
170	170	4
95	95	12
22	22	17
141	141	6
94	95	1
161	161	7
16	24	2
174	175	7
107	107	4
26	27	6
156	156	8
100	100	10
36	39	8
52	53	3
131	131	9
27	27	20
90	171	1
12	12	8
55	133	4
143	143	5
4	12	3
6	11	4
113	120	2
39	40	11
35	35	15
1	5	6
22	51	3
110	110	7
133	139	6
62	63	2
129	129	8
92	92	8
81	81	6
168	169	1
132	132	9
166	166	14
29	30	6
118	118	4
44	45	2
4	4	22
1	1	12
113	113	12
108	132	1
114	115	4
28	28	9
41	41	8
113	114	6
155	178	3
155	156	8
121	121	5
158	158	12
118	122	4
71	71	10
112	112	4
45	45	5
5	5	7
160	160	6
99	110	7
83	85	2
15	30	2
116	116	16
79	80	3
53	85	2
100	101	3
168	168	5
33	33	10
78	80	3
83	108	1
97	154	1
19	19	24
67	112	4
85	85	2
89	89	3
34	34	13
148	148	12
54	81	2
64	64	3
141	149	2
105	106	5
59	106	4
77	78	5
17	18	5
44	44	18
4	6	6
20	20	1
23	24	9
164	164	3
97	97	15
26	59	1
32	33	7
143	161	2
158	159	5
54	55	6
25	25	8
138	138	5
73	73	21
5	7	5
31	31	10
115	115	8
60	64	1
118	120	1
154	154	6
27	103	2
101	101	5
178	178	7
40	40	11
144	144	9
133	138	1
175	175	4
98	98	6
3	3	13
138	139	6
139	171	1
2	2	11
165	166	3
96	96	8
20	25	2
128	143	3
104	110	3
11	11	19
11	12	8
14	14	18
14	15	3
58	59	3
85	86	4
63	63	2
6	6	9
103	104	2
88	88	2
57	108	4
91	92	6
67	114	1
36	36	6
84	84	7
6	7	4
40	41	8
30	36	4
29	29	8
35	36	9
24	25	7
120	121	5
51	87	2
92	106	2
95	121	2
72	72	5
36	41	2
111	111	4
109	152	2
145	146	4
140	172	1
2	3	2
43	87	3
146	147	1
108	108	7
153	174	1
99	99	4
24	29	3
27	29	7
52	52	4
18	18	7
111	113	2
10	12	2
33	41	2
167	167	14
13	13	13
32	34	2
161	163	2
123	124	7
101	102	7
15	16	5
12	13	9
22	33	4
179	179	3
85	111	1
33	38	1
83	147	2
61	61	9
130	130	3
94	127	2
85	95	1
148	170	3
73	74	5
57	96	1
11	13	6
170	173	4
60	60	6
18	21	3
55	56	2
127	176	1
132	171	1
94	94	7
68	68	7
68	74	3
151	156	1
18	33	1
119	119	11
126	126	7
86	86	2
129	130	2
97	98	2
172	172	10
22	23	4
100	119	3
101	104	2
162	162	4
114	114	5
150	156	1
147	147	11
103	103	4
1	4	3
127	128	7
60	90	3
168	174	3
142	143	5
70	123	2
50	51	3
7	18	2
100	145	3
105	105	2
26	29	2
90	90	10
33	34	5
87	98	1
124	124	5
94	105	2
0	0	6
101	119	4
88	89	6
58	106	3
20	21	2
38	38	9
153	153	4
21	21	6
27	28	7
99	100	2
24	24	5
28	31	3
74	116	3
2	31	1
112	154	2
145	145	6
163	163	3
90	91	3
128	128	6
30	33	3
0	1	3
123	123	7
139	140	2
160	166	1
109	109	7
51	51	5
92	110	1
10	11	2
151	151	5
109	110	1
56	57	2
78	83	2
78	84	1
43	43	9
99	129	1
82	84	1
7	7	14
98	112	3
137	137	6
135	174	1
54	58	4
152	152	2
143	145	2
174	174	4
99	108	1
144	145	3
98	116	1
83	84	1
61	68	4
154	155	2
162	175	1
159	168	4
28	30	1
36	42	1
96	97	8
81	83	3
83	83	7
66	67	3
14	16	3
156	157	5
21	126	2
76	76	7
131	154	2
42	42	10
141	142	1
165	165	8
159	159	4
6	8	2
117	126	2
50	50	8
93	93	1
25	26	4
5	6	6
106	106	6
57	57	3
86	87	2
133	134	7
102	108	2
117	120	2
107	108	2
78	79	3
152	153	1
119	121	1
142	142	3
127	155	1
84	85	5
3	43	2
140	170	1
123	125	3
54	54	5
14	44	2
87	87	7
150	150	1
8	30	2
104	104	6
142	148	2
56	56	1
21	22	3
100	146	1
118	119	2
54	82	3
136	136	2
77	106	1
82	82	6
7	9	4
161	162	3
101	109	1
10	28	2
80	80	1
55	57	1
53	54	3
25	28	1
41	42	3
140	167	1
102	122	4
25	33	3
91	91	4
98	99	2
106	107	3
159	167	1
132	134	2
94	99	1
157	158	3
92	112	1
6	44	2
26	26	6
15	45	2
14	19	3
103	118	1
149	149	2
22	34	3
53	77	2
4	5	1
67	68	1
52	59	1
9	12	1
58	77	1
70	95	2
16	18	2
115	116	1
96	141	1
126	142	4
80	176	1
3	5	1
102	102	2
125	125	5
36	37	1
4	19	1
109	115	2
22	28	2
53	123	1
140	140	3
110	111	1
160	161	1
5	13	2
102	104	1
137	164	1
78	78	1
128	129	2
165	167	2
10	32	4
65	66	3
29	39	2
92	130	2
0	10	1
82	85	1
85	87	1
72	106	1
26	33	1
16	17	1
81	114	1
132	176	1
108	152	1
171	172	1
70	92	1
92	93	1
3	9	2
64	65	1
13	14	2
92	151	1
173	173	3
64	127	1
41	43	2
4	33	3
9	9	2
75	75	4
35	39	1
80	107	2
78	81	1
164	165	1
37	41	2
122	122	3
10	27	1
1	6	2
7	44	2
76	77	1
59	60	1
99	101	2
124	125	3
90	95	1
121	122	3
36	40	5
1	2	1
55	55	1
173	174	2
22	45	2
6	10	1
3	24	2
142	161	1
58	132	1
14	32	1
66	66	1
16	23	1
67	67	3
19	20	2
30	32	1
106	136	1
120	120	2
74	75	1
108	109	1
171	171	1
146	146	3
107	172	1
95	102	1
49	68	1
117	119	2
21	24	1
59	90	1
66	102	1
116	153	2
21	23	1
65	97	1
73	81	1
93	104	2
156	178	1
111	154	1
52	65	1
73	117	1
111	112	1
119	120	1
26	28	1
93	102	1
135	135	1
49	49	1
36	38	1
30	31	1
68	73	1
2	7	1
113	117	1
78	95	1
15	22	1
82	113	1
43	44	1
133	133	3
143	144	1
24	45	1
55	59	1
86	118	1
130	131	2
75	113	1
59	105	1
87	90	1
136	174	1
93	94	1
104	106	1
55	61	1
