164	164	12
190	190	14
124	136	1
78	78	5
40	40	6
120	120	15
134	137	4
186	186	11
173	173	5
79	79	10
157	158	1
161	193	5
39	39	7
11	11	17
180	181	10
24	53	2
53	53	5
154	154	6
113	116	5
116	117	1
152	153	3
161	162	1
146	151	2
10	10	13
111	111	13
163	163	2
60	75	2
103	103	15
51	51	5
34	34	6
155	179	2
179	179	7
93	96	5
74	74	1
100	178	5
57	57	11
1	1	8
153	156	1
0	0	9
141	141	13
181	181	21
156	156	11
163	167	7
160	179	2
119	119	5
171	171	6
195	195	6
147	147	9
131	131	5
54	54	12
16	17	5
139	139	7
97	97	8
25	29	1
193	193	6
106	106	6
122	142	2
54	55	6
130	144	3
68	68	9
155	155	8
148	167	3
14	14	6
95	111	2
37	37	10
125	125	5
142	143	2
196	196	21
113	189	2
90	90	4
102	102	7
0	24	7
153	180	3
8	9	11
161	167	3
182	182	12
165	165	12
144	144	6
22	22	6
77	77	4
153	153	8
52	52	7
133	133	3
20	20	8
23	42	2
94	140	4
45	45	12
130	135	8
33	34	1
112	112	4
49	49	12
0	23	10
12	12	5
26	26	15
101	101	16
48	48	10
142	142	3
183	183	11
50	50	11
126	127	3
122	122	13
184	184	4
98	98	14
123	123	4
96	110	1
177	177	10
25	25	5
7	19	1
197	197	8
93	97	3
100	104	4
94	95	6
15	16	13
192	194	5
43	43	9
3	34	3
36	36	12
62	62	4
130	130	9
138	138	9
111	158	3
16	16	20
87	90	4
145	146	4
103	118	1
143	145	5
47	47	14
104	104	8
99	113	2
160	160	11
53	54	6
125	127	6
176	179	3
2	3	11
100	100	6
66	66	14
135	135	4
164	169	4
120	122	8
170	171	7
139	144	4
155	156	4
115	115	3
149	149	18
5	5	9
34	112	6
12	13	5
160	169	4
151	152	3
192	193	3
173	174	1
178	182	3
158	191	2
188	188	12
24	24	13
95	161	4
132	148	4
133	134	1
124	124	10
189	189	14
9	135	2
13	13	6
163	164	6
89	89	7
162	163	3
41	41	9
60	74	1
153	154	6
96	96	8
196	197	2
168	168	5
165	166	3
67	68	1
27	30	3
135	190	2
4	33	1
159	159	8
110	110	14
100	101	4
32	32	9
0	1	2
129	129	5
148	149	3
15	18	1
139	140	8
103	104	4
161	161	9
114	114	3
9	9	7
101	105	4
148	180	1
7	7	7
186	187	1
178	178	10
55	57	6
130	134	1
151	151	10
14	122	9
132	132	9
27	28	1
55	56	2
149	168	5
155	191	5
6	18	1
11	12	6
188	191	2
83	85	1
154	155	1
117	118	3
99	100	5
57	58	5
190	191	2
3	23	2
157	159	2
83	84	3
169	189	2
18	18	4
115	191	1
35	35	9
69	71	3
55	55	7
65	69	1
123	192	1
180	180	6
175	175	9
39	40	3
45	85	2
146	146	9
58	58	4
110	111	6
44	44	10
162	168	5
23	23	7
191	191	11
42	42	9
15	27	1
13	14	2
66	86	5
19	20	3
46	64	3
2	2	6
185	185	7
140	140	2
111	186	3
166	166	9
150	151	3
11	137	1
76	76	1
136	157	1
115	140	1
82	88	2
176	178	4
123	156	1
46	46	11
174	174	8
162	162	6
34	36	2
127	127	6
125	128	2
192	192	2
64	68	1
194	194	7
117	117	2
172	172	13
187	187	6
8	61	1
82	82	8
3	4	3
27	27	11
164	166	2
102	107	1
180	191	4
159	161	2
7	18	1
148	148	7
11	122	2
107	107	3
65	65	5
68	87	4
86	86	2
150	150	10
109	110	1
152	152	6
118	118	10
43	45	2
7	55	2
174	176	7
116	147	9
93	94	1
34	35	4
152	180	4
189	190	2
116	116	11
193	194	1
140	141	2
185	186	8
52	57	1
14	15	1
165	167	3
95	95	7
71	72	1
119	138	3
101	102	3
140	144	2
145	145	6
137	137	5
121	122	3
6	6	9
158	158	13
29	29	7
47	48	3
114	115	4
43	46	4
3	3	3
12	146	1
138	146	2
186	189	2
28	28	2
85	86	1
144	156	2
143	143	2
108	108	1
174	175	5
12	140	1
21	21	6
147	174	3
136	136	5
179	181	5
113	159	4
112	192	1
173	176	5
46	53	1
132	146	1
99	178	4
44	56	4
169	169	5
3	36	2
141	142	1
188	189	5
44	55	4
102	104	3
94	94	4
53	57	2
29	30	5
52	55	1
124	125	4
113	113	4
148	150	4
131	140	1
163	168	2
7	9	1
41	61	4
97	99	1
106	158	3
150	152	2
5	18	4
23	24	3
4	4	8
48	49	1
116	118	1
11	123	1
1	2	1
1	22	2
38	38	1
159	160	7
181	182	1
28	29	6
118	145	1
10	13	2
89	90	1
43	59	1
155	168	5
6	7	4
35	36	5
115	124	2
104	118	3
79	80	1
99	99	6
118	119	2
131	155	3
81	82	6
19	19	3
108	186	2
131	173	2
162	174	1
40	44	1
153	155	5
130	145	1
187	189	1
45	46	5
71	71	4
118	138	1
49	156	2
30	30	5
166	169	4
109	117	5
70	70	3
115	156	1
138	156	4
120	121	2
27	33	3
146	152	1
7	8	2
40	42	3
105	106	6
190	192	4
124	127	2
97	169	1
170	170	3
194	195	1
167	171	1
102	103	7
164	181	1
157	157	11
109	109	4
120	138	1
23	37	1
187	188	3
15	17	3
40	43	4
177	179	2
10	14	1
155	190	2
83	83	3
65	85	2
195	196	2
64	64	1
1	5	1
87	87	2
45	83	1
156	182	2
119	131	2
88	89	4
60	61	1
50	51	3
154	179	3
46	63	1
121	121	2
96	97	3
20	21	5
15	15	4
105	121	1
107	110	1
54	79	6
95	96	4
168	170	1
136	137	2
3	33	2
175	179	1
126	126	4
43	62	1
105	107	2
176	177	1
85	87	3
3	7	2
136	190	3
87	89	2
167	168	2
179	180	2
162	172	1
156	183	2
160	161	1
128	128	6
33	33	3
163	174	2
9	10	2
6	55	1
64	88	1
80	80	4
0	42	2
188	192	2
65	67	1
115	185	2
61	61	3
20	22	1
12	144	1
147	180	1
0	3	1
5	6	2
113	115	1
132	133	1
145	175	3
152	159	2
174	179	3
63	63	4
38	40	1
19	43	3
158	159	1
123	140	1
40	41	2
5	37	1
151	167	3
30	31	1
1	3	3
119	121	1
73	73	1
17	17	4
97	98	2
99	112	2
81	81	2
176	176	3
10	141	1
104	106	1
161	163	1
162	170	1
94	96	1
144	175	1
145	173	1
180	182	1
6	61	1
134	153	1
169	172	1
109	111	1
173	175	1
17	18	1
112	157	1
107	108	2
63	65	1
173	179	1
171	173	1
4	38	2
146	147	2
99	107	1
19	21	1
179	182	2
127	128	2
142	146	1
178	179	4
105	105	1
112	159	1
168	174	1
6	60	1
72	72	1
5	7	1
67	67	2
74	75	1
81	84	1
18	19	1
7	60	2
38	41	1
61	74	2
4	37	3
36	38	1
166	167	2
98	170	1
182	183	1
19	58	1
188	190	1
56	56	1
43	56	2
138	139	1
31	31	2
95	168	1
164	167	1
103	105	1
100	108	2
64	69	1
138	145	1
75	75	1
135	138	1
155	180	1
69	70	1
114	124	1
64	75	1
155	157	1
85	85	1
147	148	2
13	16	1
72	108	1
135	137	1
59	59	1
22	23	1
22	36	1
