6	9	5
85	85	17
81	81	5
110	110	4
122	123	8
18	20	1
94	94	7
8	8	4
102	120	3
80	80	6
124	125	6
136	136	15
91	92	2
12	12	5
139	139	19
36	36	1
95	95	8
101	105	2
124	124	14
127	127	14
27	29	1
9	9	7
74	75	4
37	37	5
129	129	17
14	14	6
130	130	20
132	132	9
137	137	14
97	100	3
115	115	5
117	119	6
4	29	3
28	28	8
6	6	5
95	96	1
73	73	10
106	106	8
121	121	11
2	2	6
115	117	3
135	135	5
36	37	3
33	33	8
117	117	5
74	74	11
0	22	1
78	78	4
137	138	3
24	24	17
102	121	3
122	122	4
88	88	3
133	133	9
96	96	3
134	134	9
91	91	6
75	75	1
3	77	2
119	119	3
27	28	5
98	99	2
114	115	1
75	112	4
85	88	1
116	117	4
94	95	2
91	94	5
81	109	2
100	101	4
139	140	3
18	18	1
90	92	2
102	102	4
130	131	10
35	36	3
98	137	2
5	6	2
89	89	9
107	107	4
125	125	6
17	17	5
104	104	5
106	122	1
123	123	9
13	14	3
29	29	3
19	20	3
21	21	5
121	122	8
128	128	12
72	72	8
126	126	18
22	22	3
29	36	1
3	3	5
115	124	3
84	84	2
10	11	4
71	72	3
118	118	3
71	126	1
79	79	9
98	98	4
72	73	1
125	127	7
131	131	16
138	138	6
0	0	2
140	140	15
120	120	3
35	35	2
114	114	7
37	38	2
83	84	1
76	86	2
128	129	3
34	34	5
38	38	1
16	21	3
107	108	2
104	105	1
112	113	3
17	27	2
87	88	4
113	113	4
37	100	1
101	103	2
18	34	3
20	20	3
77	77	6
96	115	2
109	109	7
126	127	4
103	108	1
87	87	11
29	31	3
4	4	6
28	31	3
7	7	3
90	90	8
86	86	2
5	5	1
126	128	1
103	103	6
75	76	1
31	31	1
111	111	3
105	105	2
15	15	3
4	20	1
77	119	2
116	116	7
3	28	1
0	12	1
105	106	2
112	112	3
100	100	2
6	36	1
101	101	9
99	113	2
79	117	1
20	21	2
127	128	1
125	126	5
26	26	6
119	122	1
136	137	3
93	93	4
133	134	1
138	139	4
106	107	1
17	19	2
123	124	3
94	98	1
83	85	4
9	14	1
73	74	3
79	93	1
15	17	1
97	97	2
3	5	1
134	135	1
94	103	1
19	24	1
137	139	2
76	76	1
1	1	1
28	29	1
71	71	3
101	104	1
3	89	1
27	27	2
35	37	1
117	118	1
82	84	1
99	99	2
32	32	1
127	129	1
7	8	1
82	82	1
30	30	1
17	35	1
92	92	2
29	30	1
31	32	2
106	121	1
112	126	1
119	120	2
129	130	1
19	19	1
132	133	1
92	102	1
87	118	1
13	17	1
118	123	1
87	123	1
132	137	1
16	132	1
73	116	1
