73	124	3
119	126	3
20	38	2
27	27	6
31	31	19
104	104	4
100	101	10
2	2	9
1	1	3
65	65	12
5	48	4
62	62	10
6	128	2
23	24	2
92	92	11
84	84	14
61	61	7
82	82	14
93	93	6
28	49	2
12	17	2
79	83	2
5	112	1
121	121	5
87	88	1
128	128	7
75	75	12
36	60	1
87	115	2
21	22	2
30	30	10
44	48	4
74	74	8
131	131	2
101	101	5
80	80	26
32	32	13
9	71	4
96	127	4
100	100	5
117	124	2
118	118	6
85	85	5
111	111	13
83	115	5
83	84	3
59	80	5
11	12	6
43	44	1
30	60	4
26	40	4
8	13	4
97	99	1
47	47	15
29	29	8
56	56	8
35	35	14
5	26	2
119	120	6
113	115	1
108	108	8
19	19	3
38	39	3
29	78	1
11	11	12
43	43	3
129	129	2
97	97	4
3	4	8
74	123	5
127	129	1
78	90	4
90	95	2
96	96	9
81	129	2
64	64	19
79	79	8
18	42	1
90	91	5
126	126	5
62	67	1
112	112	3
42	42	11
15	78	1
34	77	5
4	60	1
98	98	3
34	34	9
46	47	4
66	100	3
17	41	2
86	103	1
20	20	8
59	59	7
21	57	1
57	57	12
95	95	16
7	16	4
115	116	3
81	85	3
50	51	2
45	83	1
108	111	4
18	77	2
12	12	11
4	84	2
57	114	2
83	83	13
16	29	1
109	109	11
123	124	3
13	62	1
110	110	14
113	113	4
91	92	4
86	86	12
131	134	2
109	115	3
29	30	6
79	82	2
109	110	2
4	18	2
33	33	4
82	83	2
0	0	2
40	49	3
14	14	8
23	23	12
26	26	9
107	107	3
23	27	3
109	112	2
81	81	8
67	121	1
10	10	4
102	102	5
82	92	2
40	57	2
95	101	1
88	113	2
37	39	2
93	97	4
117	117	4
44	44	3
21	21	4
5	66	1
18	18	2
26	48	2
36	79	2
123	123	3
26	84	2
27	38	2
28	28	3
98	99	3
74	75	2
39	42	1
90	90	4
16	16	11
27	36	4
71	73	2
36	36	3
18	60	1
66	66	12
72	72	4
101	106	6
45	61	1
88	88	7
38	38	7
7	7	10
43	56	1
16	17	2
71	71	5
69	71	4
40	108	3
37	80	6
40	84	3
47	66	1
99	99	7
9	9	6
79	80	3
6	18	2
26	38	1
36	38	3
24	25	1
130	130	4
116	116	3
47	72	2
8	14	2
25	28	2
59	79	1
68	68	10
19	36	3
67	67	2
20	50	2
49	55	1
8	8	6
49	49	6
87	105	1
6	6	5
26	27	2
120	120	7
48	81	2
40	40	3
13	34	2
96	129	4
25	27	2
43	81	4
34	71	2
13	14	2
61	76	3
100	133	1
15	15	6
77	79	2
72	81	6
0	32	4
44	58	1
17	17	4
63	64	3
115	115	4
78	78	5
67	68	2
63	63	5
85	86	2
75	124	1
126	127	2
121	131	2
78	84	2
72	73	1
14	16	1
35	36	3
46	46	8
45	45	2
16	39	1
98	100	2
92	130	4
74	124	3
89	89	3
124	124	3
15	35	2
37	37	3
39	39	2
36	37	3
45	55	2
4	91	1
29	48	3
83	114	1
81	92	2
72	122	1
81	127	2
74	76	1
95	130	1
38	40	4
92	93	4
13	13	13
29	61	1
20	26	1
16	35	1
84	91	1
27	79	2
28	66	2
25	25	3
73	73	5
41	42	7
21	32	2
105	107	2
62	64	1
114	115	2
48	78	1
94	95	2
15	39	3
42	43	1
110	113	2
10	74	2
95	121	2
16	92	1
18	78	3
69	69	2
24	24	1
6	26	2
93	98	1
84	107	1
28	94	2
28	29	5
27	78	3
98	101	1
12	35	1
127	133	3
125	126	1
11	13	2
80	91	2
83	99	2
107	110	1
11	15	1
94	94	3
119	121	1
38	41	3
65	68	1
70	71	2
10	65	4
70	84	2
16	42	1
55	55	2
76	77	1
45	48	3
2	3	1
19	38	1
21	36	3
36	40	2
58	58	2
28	34	1
48	50	1
15	16	1
94	101	1
43	45	1
62	63	1
85	98	2
12	13	3
77	77	2
47	48	2
91	100	3
96	99	1
8	51	1
5	5	4
13	55	3
44	45	2
22	40	2
12	24	1
3	99	2
134	134	6
64	65	1
49	90	5
44	75	2
90	126	1
76	118	1
25	26	2
9	11	2
18	102	2
81	84	1
11	48	1
116	130	1
106	109	1
103	103	3
82	94	1
79	126	1
58	60	2
51	55	1
11	27	2
91	91	2
71	72	2
133	133	2
106	106	1
83	95	2
129	131	1
19	67	4
49	61	1
45	70	2
44	62	2
67	77	2
21	60	1
70	70	2
99	128	3
89	105	2
4	4	2
8	47	1
11	93	3
12	32	1
60	60	4
132	132	2
103	127	1
61	62	2
96	130	1
47	74	3
13	70	1
6	38	2
68	69	1
93	94	2
17	19	1
30	62	3
28	79	2
3	3	1
45	47	2
17	78	4
27	71	1
58	59	1
71	116	1
78	127	2
60	128	2
46	62	1
2	11	1
50	54	3
105	112	2
16	22	1
8	12	1
129	134	1
21	29	1
32	93	1
33	84	1
87	87	1
21	72	1
108	110	2
3	66	1
93	99	1
55	84	2
78	80	1
77	78	1
78	79	1
4	7	3
75	76	1
93	100	1
54	131	1
49	50	1
72	125	1
10	59	2
90	98	1
56	93	1
83	85	1
29	79	1
81	83	1
15	29	1
28	83	1
123	125	1
65	66	1
131	133	1
20	21	1
42	48	1
