209	222	3
19	19	17
24	24	11
216	216	10
189	189	6
208	209	9
57	57	11
239	242	2
76	90	5
20	30	6
182	183	10
150	150	21
7	7	19
212	212	17
116	116	11
159	165	6
0	1	3
40	40	12
3	3	5
233	233	12
208	208	17
246	246	6
71	75	1
225	225	9
34	37	2
23	31	2
26	26	14
167	187	4
2	3	7
71	74	2
73	74	4
28	28	5
221	221	9
206	207	3
202	202	9
233	241	3
33	35	7
38	38	35
1	42	4
150	154	3
9	9	7
185	185	8
48	48	10
214	214	21
113	150	1
220	244	1
110	110	24
14	14	11
22	23	4
22	22	27
173	194	5
111	112	11
20	21	5
174	185	2
96	96	10
175	177	6
237	239	5
244	244	13
36	36	3
192	194	4
178	179	9
203	203	16
239	239	5
208	210	7
247	247	4
223	226	3
120	120	5
51	52	7
121	144	3
27	27	20
222	223	11
197	200	3
57	58	4
68	68	4
43	43	15
117	117	9
79	79	1
67	67	7
8	17	1
173	177	3
70	169	3
199	214	3
237	237	13
226	226	10
202	203	4
86	86	9
20	31	1
195	195	8
193	194	7
183	183	18
54	206	3
46	46	6
158	158	13
214	215	1
175	175	9
177	177	11
151	151	16
231	231	14
69	70	6
99	99	5
48	49	4
2	2	8
97	99	8
88	88	5
215	217	3
220	224	3
88	99	2
5	5	10
98	98	10
3	6	1
97	97	10
240	241	3
167	167	10
156	156	14
213	213	10
92	92	9
96	99	3
157	158	10
11	12	7
104	105	3
176	176	9
61	61	7
207	207	12
205	205	12
109	109	12
54	54	21
159	159	13
58	58	8
195	242	4
216	217	3
224	224	8
100	101	3
115	115	15
180	180	20
186	187	7
188	191	4
171	192	2
199	245	5
210	212	3
210	211	3
155	155	15
112	112	26
190	238	5
14	39	2
226	227	4
106	107	7
197	198	2
187	187	6
57	60	3
52	52	14
84	85	3
23	24	2
90	90	17
178	178	9
161	161	15
66	66	8
98	99	8
240	240	19
168	168	8
55	55	10
161	183	3
162	162	8
73	73	4
242	242	9
217	217	13
51	51	3
65	74	2
59	59	5
188	189	3
230	231	3
197	197	3
169	169	9
16	16	8
119	119	6
196	196	5
44	45	2
92	93	3
53	54	2
173	173	12
184	185	13
160	160	9
85	85	9
4	61	3
238	239	13
229	230	4
174	174	9
179	179	28
198	199	3
190	190	11
42	42	7
226	230	8
5	18	1
111	111	8
56	58	5
35	163	3
11	11	10
193	230	2
179	186	2
182	201	4
201	201	6
107	107	16
45	45	13
37	37	14
209	210	7
193	193	7
30	30	9
28	29	4
158	159	1
229	229	13
70	73	2
29	30	3
218	219	13
164	164	10
12	62	3
32	33	4
147	147	5
82	82	8
181	181	15
209	209	4
25	26	1
38	39	5
241	241	18
245	245	9
60	61	6
50	50	3
52	53	5
6	7	3
54	55	5
73	75	1
34	35	6
113	117	2
30	31	6
192	195	2
42	43	5
44	44	3
97	120	5
18	18	7
77	78	5
113	114	5
204	204	3
179	180	3
243	243	12
210	210	6
1	1	3
206	208	1
232	232	8
182	182	11
17	17	5
235	235	9
80	81	11
145	145	8
166	213	3
225	226	3
69	69	5
192	193	2
51	66	1
167	180	2
163	165	2
100	100	3
60	60	4
118	118	6
71	71	5
232	233	7
102	102	13
36	46	3
222	222	7
62	64	2
185	207	4
179	198	5
211	211	15
202	204	1
65	65	5
183	186	1
242	243	8
234	234	8
166	167	7
116	117	3
17	18	9
194	239	6
113	113	7
213	214	3
212	213	3
239	246	1
80	80	2
36	93	1
231	232	2
191	191	9
103	103	4
227	227	8
169	170	7
49	49	8
91	91	2
200	212	1
226	241	2
34	36	1
165	167	5
10	10	3
8	8	6
53	53	6
246	247	8
19	20	9
78	82	3
227	228	6
152	152	9
47	65	2
152	154	2
101	101	7
221	222	4
154	154	7
187	196	5
174	175	6
114	114	9
53	201	6
82	84	2
241	245	1
199	216	2
49	50	14
220	221	3
230	230	7
32	32	14
167	169	6
217	219	3
215	215	7
33	33	10
95	95	6
56	204	2
56	57	4
33	34	2
12	14	1
204	205	3
104	108	3
62	62	4
13	13	5
23	23	8
232	241	5
29	29	7
87	87	15
105	106	4
47	49	1
171	172	6
219	219	9
167	168	4
198	198	11
39	39	3
105	105	5
236	236	7
72	170	4
177	178	2
31	34	1
211	213	4
165	165	15
223	223	4
89	98	1
172	224	4
20	20	10
220	220	4
176	232	1
12	19	3
168	171	3
238	238	3
15	15	7
181	182	3
46	48	4
182	209	1
115	116	2
35	35	5
56	60	3
21	21	8
111	236	4
10	61	2
249	249	6
170	202	1
152	153	4
163	164	8
65	67	5
157	157	9
30	65	1
22	24	1
4	14	1
189	248	1
108	111	1
6	6	5
219	222	2
45	46	4
24	26	6
16	17	6
168	170	2
193	200	1
165	166	2
172	172	10
153	154	7
187	188	3
108	108	2
14	15	2
244	245	8
53	63	1
11	18	1
241	242	11
74	74	6
185	247	3
185	190	6
239	240	4
59	61	1
171	183	2
176	177	3
93	94	2
47	47	8
83	83	2
23	25	1
70	70	5
89	89	3
217	218	4
144	145	3
4	48	1
76	87	2
71	72	2
58	64	2
185	186	3
102	115	3
82	85	1
84	84	4
83	84	2
164	166	2
7	8	2
200	200	4
65	66	4
73	103	1
206	206	5
199	199	2
241	243	4
171	171	7
98	100	1
61	62	1
223	243	2
191	192	3
34	34	7
38	40	1
46	81	2
59	60	2
58	60	2
41	41	18
218	243	1
56	56	7
114	116	1
176	181	3
163	163	3
146	147	2
8	9	5
184	184	5
165	206	4
89	90	2
21	22	1
63	63	10
4	5	4
196	197	1
215	216	1
149	149	1
173	184	2
29	34	3
1	93	3
72	74	2
104	106	1
225	241	3
223	224	3
160	161	3
94	95	2
166	176	2
24	25	6
95	97	2
192	192	5
153	157	1
9	10	1
87	88	5
190	196	3
2	20	1
231	240	1
72	77	4
146	146	1
43	44	3
70	71	2
77	77	1
248	248	1
52	180	3
70	72	2
94	94	3
162	163	3
205	206	2
224	230	2
226	231	2
184	195	2
198	200	4
228	229	1
12	234	3
1	8	2
204	207	2
196	199	2
144	144	1
237	242	2
100	117	2
46	51	2
146	164	2
103	108	1
78	78	2
186	186	2
243	245	3
174	220	2
110	111	4
88	116	2
32	36	1
75	75	1
156	157	1
46	62	3
71	170	1
171	180	3
47	57	4
197	199	1
203	204	2
99	100	5
35	36	2
82	83	1
68	71	2
146	151	3
218	232	1
175	183	2
191	238	1
85	86	3
174	223	2
93	93	4
50	61	1
193	195	1
50	199	2
176	194	4
76	77	1
159	160	2
172	173	3
31	35	2
31	92	3
102	107	1
159	166	4
4	4	3
156	211	2
89	99	3
12	12	4
172	174	2
166	181	1
52	61	1
228	228	2
169	172	2
182	184	2
161	162	3
16	18	2
226	235	1
218	224	1
109	110	2
186	188	1
167	179	1
185	203	2
245	246	5
179	182	2
64	66	3
166	179	1
86	115	1
236	237	1
114	115	1
217	235	1
14	29	1
177	184	2
218	220	3
170	170	1
162	168	2
10	11	2
175	176	3
208	223	1
95	99	1
240	242	1
196	245	1
180	183	2
83	92	4
76	76	1
201	202	4
193	239	1
84	86	1
155	167	1
226	228	2
75	76	2
233	234	1
47	59	1
47	48	4
91	92	2
169	171	1
179	197	1
14	30	1
2	30	1
63	64	4
44	46	2
160	163	2
173	225	2
237	247	1
247	248	1
111	144	1
82	91	1
192	243	2
245	247	1
72	75	1
221	225	1
178	186	2
112	113	3
106	119	1
178	180	2
70	178	3
35	164	1
81	85	1
161	164	1
201	222	1
64	64	1
198	231	1
87	162	1
65	89	1
11	37	1
154	155	2
171	231	1
36	65	2
37	38	1
220	223	1
224	225	1
223	225	1
219	241	1
49	64	2
211	212	2
74	80	1
79	80	1
173	234	1
162	203	2
209	221	1
31	31	2
68	168	2
5	37	1
218	244	2
86	87	1
81	81	1
117	118	1
92	115	1
78	85	1
18	19	1
72	73	2
164	203	1
224	234	1
15	18	1
88	101	1
146	152	1
12	38	1
60	62	1
3	20	4
218	218	1
17	29	1
168	169	3
86	98	1
12	29	1
2	39	1
78	81	1
72	72	1
79	81	2
41	42	1
184	187	1
156	167	2
163	209	2
194	196	1
25	25	2
183	208	1
180	213	2
199	201	1
205	207	1
220	234	1
86	96	1
74	170	1
112	114	1
238	240	1
193	224	1
1	41	1
182	215	1
242	244	1
9	61	2
190	192	1
157	160	1
218	225	1
