47	48	5
38	81	5
99	99	22
66	67	7
30	30	1
11	11	41
79	79	14
11	12	8
36	36	24
34	34	44
129	129	13
36	37	3
110	111	13
82	82	8
61	61	15
86	86	23
67	68	5
126	130	1
92	96	1
83	84	4
66	66	23
84	84	14
95	95	20
5	5	12
92	93	2
105	107	6
27	27	16
1	1	11
127	127	8
18	18	18
128	128	18
93	93	5
44	44	23
104	104	11
110	110	12
58	58	13
74	75	8
45	45	33
6	9	1
118	118	10
5	7	4
123	124	10
24	85	3
129	130	6
87	87	19
120	122	4
22	22	6
29	31	2
32	33	11
16	66	1
55	56	4
75	76	17
126	126	10
102	102	13
20	21	8
8	9	12
117	117	14
68	68	16
35	35	11
85	86	11
33	33	20
12	13	8
19	20	7
20	20	12
19	19	15
81	81	11
73	73	25
117	118	2
29	62	1
93	98	2
77	78	16
62	62	16
100	100	9
22	27	2
85	85	9
99	100	10
12	12	38
9	10	4
46	46	17
112	112	13
64	65	4
122	122	7
94	109	3
32	32	16
39	39	6
7	7	23
33	34	4
26	26	16
83	83	28
117	123	2
13	13	17
64	64	27
104	105	2
61	64	1
70	70	12
59	59	19
78	78	17
87	94	4
28	91	4
15	15	4
102	103	1
76	76	24
23	23	8
17	17	28
82	89	4
38	39	21
29	29	13
11	96	3
27	79	3
101	101	5
97	97	4
37	37	6
65	65	29
39	40	10
72	72	17
29	43	1
75	75	27
58	60	2
8	89	2
126	127	5
104	106	3
67	67	15
16	21	2
77	77	12
94	94	19
117	122	4
114	114	12
19	25	3
71	71	27
9	11	1
30	84	3
26	27	5
33	44	3
121	122	6
106	106	6
29	30	16
134	134	4
93	108	6
18	19	7
96	97	2
14	14	6
59	83	1
92	92	7
63	74	6
73	74	9
62	72	5
30	60	2
9	9	16
24	26	1
47	47	36
6	7	6
63	64	4
63	63	34
7	8	4
114	126	3
94	95	3
11	43	3
94	97	1
131	131	4
36	38	3
112	116	4
78	111	1
74	74	14
76	77	8
100	101	1
105	105	6
37	38	2
48	48	22
69	69	6
10	12	5
76	79	2
49	49	4
113	113	5
75	104	3
111	111	9
8	8	14
35	36	7
60	60	13
25	26	10
26	47	3
16	16	7
90	96	1
40	41	3
116	117	2
41	42	7
115	131	1
125	134	3
84	85	13
82	84	5
57	58	1
56	56	3
34	45	1
10	10	21
126	128	2
121	121	5
46	47	3
27	32	5
132	133	6
7	84	4
3	3	7
5	6	3
10	46	1
66	87	1
6	6	5
123	123	7
40	40	19
115	115	5
91	91	6
89	92	2
25	25	19
21	84	2
57	57	6
25	48	5
32	78	4
6	92	3
101	103	4
27	92	3
48	50	1
21	21	3
4	4	8
96	96	12
29	61	6
103	104	4
29	49	3
96	99	1
93	109	1
82	83	14
89	90	3
88	88	9
87	88	7
60	93	2
42	42	1
112	113	1
13	18	3
103	103	8
32	43	2
71	72	7
14	15	3
2	2	12
81	87	1
78	80	2
17	18	4
98	98	19
70	71	12
33	77	2
4	6	4
43	43	4
56	58	2
89	112	1
25	75	2
81	91	2
4	8	3
61	73	3
20	35	3
66	83	11
119	119	11
25	47	4
8	92	2
7	25	3
130	134	3
130	130	8
23	24	4
75	77	1
125	126	3
47	92	2
65	86	1
3	5	3
63	118	7
62	63	5
97	98	10
124	124	12
38	42	1
48	49	4
77	86	4
128	129	4
7	9	3
58	59	4
60	61	1
90	92	2
93	95	1
80	85	1
60	91	2
31	32	5
124	134	2
10	17	2
31	31	5
13	19	3
28	49	2
120	121	2
89	89	2
30	83	2
35	74	1
35	101	3
28	78	2
13	16	2
116	116	10
36	107	3
36	101	1
4	5	7
72	73	5
21	75	2
79	80	3
133	133	9
84	86	1
13	97	1
54	55	6
90	90	3
69	118	3
107	107	7
78	79	3
88	93	2
32	62	2
2	4	1
32	80	1
126	133	2
109	109	4
111	112	4
101	107	8
5	14	4
80	81	3
24	24	2
60	63	7
69	70	5
60	76	2
20	23	4
62	66	1
24	74	3
45	48	2
125	125	5
43	44	7
15	16	1
12	96	2
92	101	1
9	46	1
108	108	3
76	83	1
83	107	2
22	83	2
8	12	9
20	83	2
80	80	3
41	41	6
76	86	2
6	86	1
61	117	1
22	24	3
3	101	3
40	42	2
32	45	3
78	101	2
31	110	1
22	26	1
25	27	1
34	35	7
98	100	4
32	46	1
21	38	2
61	75	3
35	60	1
129	134	3
87	113	1
26	92	8
10	11	2
62	64	2
80	97	3
116	123	1
4	26	4
13	82	2
65	66	2
113	115	3
8	14	2
6	74	1
75	83	3
16	17	2
90	97	4
119	129	1
38	82	3
91	93	1
76	110	2
0	0	1
49	55	2
49	50	4
132	132	6
78	87	1
4	14	1
111	132	5
105	106	2
11	49	1
125	128	3
88	90	2
24	45	1
106	107	4
36	76	2
85	116	3
38	101	2
11	93	3
18	46	2
61	72	4
11	27	3
4	7	3
12	46	2
7	86	2
50	50	2
6	15	1
95	109	2
126	129	1
31	43	2
39	41	1
117	120	1
45	46	2
76	80	1
8	43	1
79	99	2
127	132	2
44	45	5
27	29	2
111	134	1
91	92	2
8	10	2
4	101	1
63	76	3
46	61	4
36	93	2
2	3	5
60	62	5
109	110	1
51	55	1
23	32	3
95	97	1
114	128	3
77	92	1
130	133	1
98	99	2
37	42	1
126	134	3
110	112	1
27	106	1
111	131	2
13	14	1
124	125	1
91	98	1
41	82	1
29	47	2
62	117	2
34	59	1
39	42	1
101	102	4
37	39	2
46	82	1
95	110	2
90	98	1
32	34	2
46	71	1
13	46	1
1	2	2
38	38	2
95	96	4
80	102	1
44	82	1
61	77	1
24	78	1
13	27	2
76	81	1
30	32	3
118	119	3
10	18	1
27	123	1
119	121	1
111	113	1
86	87	2
59	60	1
55	55	1
102	111	1
28	28	1
87	116	1
28	61	2
8	83	1
24	83	1
42	43	1
102	124	1
80	82	1
27	105	1
112	131	1
120	120	1
86	88	1
93	99	1
27	101	1
26	28	1
11	18	1
127	128	1
11	92	1
126	132	1
