79	79	9
60	60	3
69	71	2
110	111	1
37	37	4
102	102	4
52	58	3
58	58	3
73	73	5
51	52	7
112	112	5
84	84	11
67	109	1
63	64	4
109	111	3
77	79	1
47	47	7
90	90	11
78	78	7
66	68	3
111	111	2
32	32	6
107	108	1
42	42	1
46	46	9
76	78	5
53	54	2
31	31	1
42	45	4
104	105	7
56	57	5
106	106	6
39	39	2
89	110	1
26	26	3
85	96	1
71	71	3
63	65	2
70	70	6
88	88	6
109	109	8
87	87	8
33	33	2
57	57	3
81	84	2
97	98	6
29	29	5
62	62	4
89	90	4
50	51	3
105	108	5
28	28	7
24	24	1
49	60	2
36	37	1
66	66	6
95	101	4
91	91	7
95	95	2
77	77	2
81	81	6
98	98	3
72	74	2
85	85	3
108	108	4
49	49	7
68	68	1
67	67	3
86	86	1
50	50	7
82	83	5
47	83	1
57	61	2
104	106	1
78	79	6
62	63	1
94	94	3
110	110	4
58	60	4
94	99	1
70	103	1
41	41	1
88	98	1
53	53	4
102	108	4
36	36	4
68	70	3
20	43	2
40	43	3
72	72	6
65	65	6
91	105	2
105	105	5
97	97	8
51	51	4
30	30	1
75	75	4
93	93	3
56	56	2
52	52	2
108	109	2
68	69	4
105	112	2
39	55	2
48	82	4
104	112	1
25	29	2
70	73	4
113	113	6
77	78	2
75	88	3
55	56	7
73	74	3
76	76	10
35	35	2
64	111	2
106	107	4
74	109	1
74	74	5
63	87	6
61	61	5
90	98	3
97	101	2
80	80	5
43	95	1
64	65	1
58	59	2
59	59	3
45	60	3
114	114	2
64	73	1
83	83	6
100	100	2
40	40	6
65	95	2
104	104	4
23	24	1
63	85	1
34	34	2
23	23	2
84	85	1
53	92	5
82	82	3
69	69	7
50	52	1
19	37	1
88	89	3
104	107	2
20	20	3
55	55	3
96	96	2
90	92	1
111	113	1
21	38	2
92	92	6
33	34	3
72	75	5
113	114	1
87	89	1
61	63	3
54	55	5
75	77	1
44	44	3
89	93	1
87	88	4
44	64	2
85	89	1
75	76	1
99	100	1
43	43	2
90	91	1
38	39	1
41	42	2
53	57	3
27	27	1
78	80	1
43	44	1
64	70	1
64	66	3
72	73	2
101	101	2
40	41	1
103	104	3
19	19	2
41	63	1
62	91	1
81	82	2
93	94	3
39	88	2
105	107	1
83	84	1
75	79	2
93	100	1
66	67	1
103	105	1
43	99	1
63	92	1
26	50	1
92	93	1
65	83	2
109	110	1
99	99	2
101	103	3
105	109	1
103	106	1
83	85	1
63	63	2
107	107	2
106	108	1
74	88	1
105	106	1
22	22	2
44	45	1
103	107	2
48	60	1
69	70	1
94	97	1
65	66	2
103	103	2
62	64	1
92	94	1
89	89	1
60	61	1
93	95	1
64	64	1
56	82	1
89	92	1
33	35	2
59	61	1
101	102	1
47	48	1
25	25	1
76	77	1
54	54	1
47	82	1
73	84	1
91	92	1
83	87	1
73	80	1
45	45	1
57	93	1
83	95	1
