244	245	3
32	32	4
14	14	9
214	216	1
79	170	1
11	11	5
7	7	7
41	65	2
181	182	1
31	31	5
29	29	2
242	243	10
184	185	2
10	46	1
115	115	6
213	215	1
210	211	2
113	114	7
61	61	2
188	188	6
239	239	7
105	106	1
182	184	3
218	241	1
182	182	12
200	222	1
215	224	4
20	20	8
37	37	10
244	244	3
241	241	8
192	192	3
17	18	3
34	96	2
68	69	6
223	223	5
156	157	2
69	71	2
170	170	7
186	186	6
15	15	4
167	183	1
77	84	4
195	195	4
219	224	3
35	35	3
183	230	2
111	111	2
37	38	1
155	156	4
213	213	5
178	178	19
225	228	7
69	69	9
109	109	2
184	184	3
203	203	7
42	42	1
47	47	7
71	71	4
40	40	3
176	176	2
168	168	3
161	221	3
182	239	4
48	48	5
32	33	1
228	229	4
116	116	12
174	200	1
208	208	8
104	105	1
180	180	3
59	62	5
225	225	3
82	82	2
187	187	3
181	181	7
179	186	5
245	245	9
157	157	9
8	230	3
47	62	3
3	3	2
152	205	3
47	93	5
74	74	8
2	2	2
181	186	10
6	6	5
19	20	3
156	156	5
63	63	4
54	55	1
167	167	3
199	199	3
5	5	10
98	99	2
101	105	3
211	211	2
185	185	5
204	204	11
170	171	1
108	117	1
197	214	2
111	112	4
188	246	3
182	207	1
197	199	1
4	4	2
109	110	7
184	213	3
69	74	3
80	80	2
160	178	3
190	190	3
118	118	5
223	246	1
154	154	6
223	240	4
209	209	2
224	224	5
41	41	2
211	228	1
55	55	3
44	44	9
231	232	4
243	243	3
155	155	6
234	234	8
190	191	3
160	160	8
238	238	5
59	59	17
201	201	12
208	209	7
76	76	2
46	46	2
87	88	1
47	48	3
50	50	6
23	23	3
112	112	1
7	53	1
227	228	1
175	176	5
52	52	6
196	196	2
159	180	2
93	93	5
39	90	1
215	236	2
65	65	2
56	57	2
223	244	1
4	5	2
10	11	3
218	218	2
26	26	5
159	159	2
102	102	4
73	74	4
57	61	4
119	120	2
75	79	2
56	56	2
185	186	2
110	110	6
8	8	6
205	205	9
183	183	2
17	17	4
100	100	3
84	84	5
145	145	6
97	97	3
35	36	2
168	204	2
192	194	1
232	233	3
16	16	4
105	107	2
219	242	3
207	207	2
36	45	2
238	239	6
110	245	4
153	153	4
162	162	7
174	174	2
119	119	8
44	45	2
241	244	2
103	104	2
158	161	2
31	35	4
243	244	5
24	24	2
216	217	3
113	113	5
161	161	3
36	36	6
165	165	8
164	164	8
28	28	5
166	171	3
221	221	2
13	13	2
59	113	1
237	238	2
33	33	5
153	154	2
161	168	1
25	27	4
205	226	1
216	216	1
232	232	3
187	188	2
51	51	4
86	86	2
200	200	9
169	169	3
198	198	2
26	28	2
107	107	2
184	195	2
60	60	2
75	75	6
80	82	1
172	173	4
99	101	4
214	214	5
164	176	1
174	175	2
206	206	7
221	223	2
94	94	1
79	80	6
189	189	1
78	78	6
172	209	4
166	190	1
167	169	4
96	100	1
49	49	2
193	193	5
223	224	2
210	210	2
150	150	3
108	236	2
10	95	3
179	179	7
10	10	3
202	202	2
108	119	2
88	88	1
12	12	1
27	27	4
114	114	1
246	248	3
21	21	2
45	45	3
165	166	5
237	237	4
54	54	3
183	186	3
162	163	4
194	196	1
93	219	2
215	215	3
229	229	1
160	181	1
237	240	3
95	95	4
158	248	1
62	62	3
64	65	4
212	212	2
207	208	3
187	208	2
201	204	1
55	247	2
211	212	1
173	176	1
99	99	2
70	73	1
73	79	2
66	66	5
96	96	4
204	205	2
226	226	3
166	182	1
19	19	2
9	202	1
91	92	4
98	98	3
31	33	2
71	73	3
219	219	4
180	212	1
166	191	1
233	233	1
23	38	1
80	107	2
230	231	3
150	151	1
79	84	2
19	113	3
76	77	1
168	169	3
101	101	2
51	52	1
197	211	3
112	113	1
220	220	3
37	58	1
43	43	4
106	106	2
196	204	2
172	177	2
56	58	4
50	100	3
171	172	3
177	177	2
41	66	1
78	83	1
202	228	1
113	118	2
64	74	1
117	117	3
185	195	2
194	194	2
108	109	3
63	199	1
55	57	1
9	10	1
207	221	2
240	240	1
33	68	2
217	247	1
12	64	1
65	201	1
64	64	2
147	147	3
47	154	1
242	245	3
163	163	7
28	52	1
160	179	2
151	151	3
85	85	2
26	156	1
113	115	1
163	231	4
18	29	1
29	30	2
157	240	1
79	107	3
221	222	1
152	241	1
39	39	6
65	74	1
72	111	1
230	230	1
217	217	2
50	51	2
91	91	2
51	235	1
172	185	1
175	175	2
57	57	1
107	120	1
33	34	1
60	67	1
248	248	1
169	173	1
96	97	1
246	246	2
75	78	1
22	22	1
67	67	3
160	165	1
150	205	2
146	146	1
158	192	1
158	158	1
182	192	2
19	25	2
70	76	1
202	203	1
158	159	1
111	245	1
81	81	1
58	58	1
61	64	1
9	9	2
163	166	1
97	98	1
14	15	1
74	77	1
1	1	1
70	70	2
183	229	1
176	177	1
41	42	1
160	161	1
227	227	1
221	243	1
145	156	1
175	177	1
187	192	1
18	18	1
115	116	1
213	217	1
168	172	1
43	117	1
36	74	1
207	222	1
81	82	1
247	248	1
194	195	1
