58	60	1
74	75	3
110	110	5
5	6	1
78	78	7
80	80	8
7	12	3
56	59	2
108	109	3
75	75	6
57	57	4
16	17	7
25	25	4
77	79	8
69	70	4
87	87	10
30	30	1
11	11	8
32	33	6
23	23	7
25	26	3
132	132	10
93	95	2
73	74	2
101	101	7
58	58	9
50	56	5
35	65	5
28	29	2
64	64	11
54	56	1
115	115	3
60	60	6
50	52	4
24	24	4
118	118	14
75	76	2
76	77	5
125	125	7
76	79	1
126	128	6
37	37	2
19	19	6
123	123	8
38	38	5
79	79	5
5	5	12
107	107	4
1	96	1
64	116	3
88	88	7
119	119	8
119	122	4
23	24	3
43	43	6
42	45	4
83	84	6
11	27	3
89	89	8
90	91	1
16	16	7
21	21	2
71	71	3
127	127	8
107	109	3
124	124	12
121	122	4
1	2	2
67	67	5
122	122	4
34	34	4
112	112	9
134	134	5
28	28	2
114	114	3
36	37	5
61	61	8
20	23	1
87	88	3
133	133	8
93	93	5
66	66	4
3	4	4
9	21	3
78	98	1
99	100	4
4	4	6
20	20	6
12	12	3
53	53	1
52	57	3
29	29	11
26	26	6
3	3	6
122	125	1
50	50	7
74	74	2
95	104	4
68	68	9
127	128	2
52	61	4
1	124	3
91	91	7
2	4	4
55	65	2
72	76	2
77	77	6
110	123	2
84	85	1
91	92	2
106	106	5
32	32	8
120	120	7
12	27	1
60	61	2
104	105	1
70	79	1
104	104	7
93	94	7
98	125	1
50	63	3
105	105	5
63	64	4
71	72	3
113	132	5
97	99	2
96	126	1
103	103	4
44	44	10
77	80	3
70	71	2
55	55	9
59	59	1
83	83	5
72	72	16
132	133	1
48	48	1
130	132	1
112	133	2
47	47	3
110	111	5
98	98	6
82	83	1
13	28	1
106	107	2
66	67	4
84	84	3
69	121	3
119	120	10
37	60	4
126	126	4
120	131	3
37	58	2
81	81	2
114	133	3
97	97	2
45	78	2
44	50	1
9	32	2
80	116	2
125	132	3
10	10	1
85	85	1
121	121	9
95	95	4
70	78	1
86	86	10
59	61	2
61	62	6
8	10	1
101	102	2
45	46	1
101	131	1
35	35	3
90	90	2
44	56	1
36	36	1
15	15	2
73	73	4
68	120	1
123	124	1
45	55	1
62	64	4
95	96	2
82	120	1
42	43	1
94	97	1
72	103	3
6	6	2
63	63	2
21	22	4
100	100	2
87	95	2
103	104	2
48	49	1
44	45	2
100	107	2
109	134	2
30	78	1
22	22	1
87	123	1
54	54	4
43	44	1
16	18	5
64	65	3
45	59	1
6	7	1
113	113	4
52	52	3
112	113	1
88	122	2
13	26	2
113	130	2
128	128	6
92	92	3
124	126	2
85	86	2
1	1	2
5	8	2
117	117	4
112	132	1
117	124	1
117	118	1
50	62	1
54	55	1
113	131	1
11	35	6
88	89	1
109	110	1
129	129	3
80	81	1
77	78	1
80	110	2
46	70	1
88	103	1
10	11	1
33	34	2
1	68	1
93	111	1
126	127	1
122	132	2
122	123	2
124	125	1
71	112	1
8	47	1
126	129	2
9	11	1
34	61	1
108	110	2
14	14	1
70	70	1
118	123	1
76	76	3
115	121	1
120	122	1
38	52	2
130	131	1
62	65	2
60	65	1
42	42	2
118	119	1
27	28	2
35	59	1
12	13	1
94	95	1
129	130	2
131	131	1
114	130	1
55	57	1
82	106	1
45	45	1
106	129	1
13	15	1
99	105	1
85	119	1
95	125	1
17	17	1
69	78	1
53	59	1
8	8	2
94	94	1
57	59	1
1	3	1
31	32	1
85	106	1
99	99	1
