58	60	7
51	52	4
61	62	2
84	86	7
97	97	8
45	46	3
23	24	1
94	94	16
101	104	2
29	41	5
82	98	1
96	96	5
45	47	1
101	101	12
97	98	10
40	41	5
45	45	9
88	96	3
63	63	2
66	66	3
83	83	8
72	76	1
94	99	2
20	22	4
30	30	2
53	53	2
67	67	3
70	70	12
65	66	4
99	99	6
36	36	8
65	65	6
25	25	9
84	85	7
69	69	18
90	93	1
78	78	10
68	68	7
23	30	1
88	88	9
92	92	6
50	50	6
76	76	12
22	42	2
86	87	4
100	100	3
71	76	1
105	105	10
103	103	9
42	43	5
77	99	2
35	35	9
74	75	7
43	43	3
79	80	4
91	92	1
77	77	2
23	23	11
82	82	6
87	92	1
28	38	1
97	99	3
58	58	5
52	52	6
100	101	8
80	94	6
62	63	5
59	59	7
38	39	4
102	103	3
78	98	3
47	82	2
26	29	2
104	104	6
41	41	1
22	22	2
39	39	5
80	81	4
83	85	2
55	55	7
62	66	3
77	78	2
27	27	2
102	102	2
68	78	2
79	107	2
71	77	1
63	103	3
95	96	6
70	72	5
58	66	1
53	55	2
24	26	1
98	99	11
79	79	6
83	88	2
87	88	3
31	31	5
26	26	2
28	47	2
64	64	1
71	71	12
34	46	3
37	37	4
48	83	2
86	88	3
67	68	1
32	32	3
92	95	2
65	68	2
70	71	5
76	77	4
87	87	3
72	72	2
90	91	3
52	53	1
63	64	2
31	37	2
30	36	1
48	48	5
75	76	3
41	46	1
69	70	1
90	90	9
24	24	5
81	81	2
57	57	5
100	102	3
96	97	1
31	55	3
89	89	8
79	81	3
26	30	1
22	23	6
94	96	2
98	98	2
30	47	4
52	54	1
33	36	2
54	54	4
71	72	3
100	105	4
49	87	2
44	44	1
74	74	2
62	103	5
50	51	3
49	97	2
34	34	1
47	48	1
33	46	6
43	44	1
73	73	2
70	75	1
50	72	3
84	84	1
96	98	1
21	21	1
92	93	1
68	69	1
99	100	3
67	76	1
82	83	1
46	52	1
57	66	1
66	67	1
60	61	2
39	45	1
93	94	1
28	28	1
47	47	1
73	74	3
27	48	1
38	41	3
31	35	1
95	95	2
46	46	1
80	80	1
61	61	1
71	74	1
85	86	3
28	30	1
35	36	1
82	89	1
107	107	1
38	38	1
93	93	1
