70	70	6
20	21	5
146	147	5
73	74	4
52	52	11
25	29	1
40	40	5
103	118	4
120	120	3
67	70	1
92	92	8
109	110	5
104	105	2
143	144	3
147	147	6
23	33	1
88	89	2
21	21	1
98	98	2
115	124	5
106	107	3
115	116	3
112	113	1
64	64	3
135	135	4
12	12	4
137	139	4
51	52	4
62	62	4
51	51	1
47	48	4
63	63	6
146	146	3
85	85	7
27	29	1
42	42	5
7	7	3
35	35	1
75	75	2
86	87	2
101	101	3
119	120	1
15	15	8
158	158	8
39	39	4
67	67	4
154	155	2
150	152	1
17	18	7
11	11	2
27	28	4
104	104	4
131	131	9
89	91	2
9	9	2
7	11	3
5	5	10
0	1	2
143	143	8
156	156	5
19	19	6
44	44	5
136	137	2
2	46	4
54	54	1
154	154	6
3	4	3
43	43	3
35	67	3
73	73	6
38	38	4
149	149	1
25	25	3
99	99	6
84	84	7
144	145	2
35	36	6
117	124	3
34	34	3
24	24	2
138	148	6
100	100	4
81	82	1
142	143	2
134	134	10
4	4	2
22	22	10
66	66	3
106	141	5
140	141	5
40	41	12
39	43	2
33	39	2
18	90	2
132	152	3
92	94	5
45	48	4
151	151	2
50	50	4
33	33	4
141	141	5
28	71	3
122	133	3
26	26	1
40	43	2
30	30	4
66	68	1
125	125	6
94	94	3
9	10	7
116	116	1
1	1	1
119	119	2
123	123	2
26	27	3
144	144	6
28	28	2
10	10	3
118	135	3
90	90	9
114	115	2
79	79	2
46	46	3
21	81	2
117	117	5
123	128	4
4	32	1
136	136	1
130	131	5
27	91	2
79	80	2
9	11	2
20	39	1
47	47	5
121	121	2
107	108	1
14	15	6
18	19	3
87	87	3
13	52	2
105	125	1
103	113	1
124	124	4
1	2	2
3	3	5
100	101	2
37	37	1
91	91	2
110	111	3
81	81	9
76	76	1
31	31	2
153	153	4
142	142	4
78	79	1
132	133	1
55	56	4
86	109	1
152	152	2
114	114	3
133	134	2
45	45	3
17	17	6
127	127	6
96	96	1
27	27	6
107	107	7
49	50	1
18	21	2
115	115	1
40	47	2
1	4	1
155	156	2
103	103	4
29	29	4
154	156	2
134	135	1
23	24	1
71	77	1
131	132	3
36	36	4
111	116	1
103	104	5
115	133	5
138	138	4
121	133	2
4	31	1
52	105	2
136	148	3
116	140	1
157	157	3
67	68	2
23	23	5
107	111	3
1	101	1
80	80	3
105	105	2
93	93	2
149	150	2
46	47	3
83	86	1
113	126	3
3	28	2
4	78	1
49	52	1
22	23	3
26	77	2
15	18	2
55	55	2
50	52	3
112	112	5
148	148	2
87	103	1
129	129	1
16	16	5
102	115	2
4	5	1
85	87	1
74	74	1
14	14	1
5	6	1
140	140	3
123	143	2
16	18	1
118	118	2
142	150	1
95	96	1
30	81	1
29	69	1
8	15	2
24	25	2
120	123	1
91	93	1
53	53	1
33	55	1
101	105	1
8	8	3
0	0	1
111	115	1
78	78	2
129	130	3
37	63	1
20	20	1
15	16	2
103	124	1
132	135	1
31	45	3
30	31	1
95	95	1
64	101	1
20	22	2
110	110	1
57	65	2
77	80	1
7	8	1
111	114	1
140	142	1
65	67	1
80	81	1
150	154	1
105	106	1
53	56	1
130	130	1
123	126	2
69	69	1
10	11	1
97	97	2
137	137	2
124	126	1
139	139	2
104	135	1
155	155	1
49	49	1
