21	31	2
72	72	42
36	70	2
3	9	1
80	80	16
118	119	4
3	3	20
117	118	2
10	61	4
73	73	31
90	97	5
9	10	18
68	68	54
104	104	13
51	56	1
6	24	2
46	46	25
126	126	27
29	85	7
64	64	32
31	31	18
104	110	4
94	95	16
9	45	5
132	132	13
40	40	14
17	21	5
11	11	45
123	123	14
6	6	18
81	84	5
76	76	45
62	62	54
34	34	23
7	83	9
35	36	9
66	66	27
14	18	2
93	93	12
99	99	25
119	119	39
81	82	6
28	29	2
8	22	2
12	12	28
47	47	67
65	65	41
85	86	17
74	74	33
95	96	13
84	84	11
30	55	1
59	61	1
4	4	15
13	17	4
47	48	7
29	56	9
67	67	28
89	96	1
4	6	8
39	40	4
64	74	1
0	1	3
22	22	12
20	36	3
32	32	31
21	37	3
79	80	14
92	93	3
34	78	4
70	70	20
11	27	4
48	48	20
38	81	5
57	57	21
21	70	4
63	63	39
11	93	5
112	113	8
39	42	5
101	101	10
59	62	5
5	10	3
30	30	15
2	125	1
122	124	6
86	86	22
15	42	6
10	134	4
90	90	18
58	58	22
25	26	6
5	95	2
42	42	13
48	55	2
7	132	5
102	103	1
19	19	16
15	49	2
71	71	1
110	124	1
78	78	11
108	108	3
49	49	12
46	47	17
75	75	27
13	13	10
45	45	22
12	17	1
82	88	5
117	117	23
89	89	4
26	28	3
9	9	32
6	7	5
64	75	2
100	101	17
35	76	6
26	98	3
4	5	13
7	7	11
5	12	2
61	61	41
98	99	13
7	8	5
17	17	12
102	110	3
112	112	22
58	59	5
71	72	5
92	92	6
10	10	22
32	33	12
95	95	19
119	120	5
33	45	3
25	25	9
97	98	2
19	59	2
80	81	6
96	96	29
72	74	4
34	35	10
55	56	7
74	75	9
65	111	3
33	33	26
79	79	18
110	110	6
6	19	8
87	88	6
69	69	16
39	43	4
84	86	3
11	12	5
1	3	4
13	25	4
27	28	4
107	130	4
33	34	3
114	115	5
77	78	11
6	27	5
39	41	5
82	83	7
120	120	10
122	123	2
85	85	13
28	49	6
67	68	10
118	118	16
36	36	21
28	28	19
94	101	2
124	125	10
16	30	2
128	128	4
8	17	4
2	3	6
14	14	6
90	94	2
104	125	9
38	97	1
26	27	5
85	99	3
122	122	9
25	47	6
22	25	3
46	62	1
1	1	9
19	25	4
83	84	5
97	97	15
77	79	2
83	83	15
63	66	3
40	42	4
5	90	2
8	35	3
55	55	8
20	60	6
115	116	4
10	96	3
90	91	9
14	16	2
19	21	4
26	26	18
67	71	4
3	101	2
78	81	5
10	47	6
105	106	5
16	39	5
16	48	1
16	17	1
61	74	2
18	22	4
8	8	25
27	27	19
100	100	15
7	14	1
69	73	5
108	109	1
24	43	3
9	47	3
10	34	2
38	38	5
37	37	12
61	62	7
37	38	7
9	44	3
41	43	4
45	46	7
75	76	8
13	14	5
113	113	8
97	99	5
78	79	9
15	16	3
37	46	3
111	112	3
35	38	1
2	10	1
16	16	8
59	59	12
94	94	16
73	74	9
65	66	12
91	91	7
17	18	8
30	31	5
18	18	12
43	51	1
116	116	3
81	81	10
14	23	5
115	115	14
49	50	1
16	18	4
38	39	1
77	128	2
5	7	3
27	92	3
131	132	5
85	87	2
5	98	4
86	109	1
77	82	6
29	30	1
23	24	3
60	60	9
33	41	2
41	42	13
88	88	7
44	84	1
131	131	2
32	43	1
86	100	4
45	47	2
120	121	7
134	134	5
98	110	3
4	19	5
125	125	5
9	100	1
98	98	14
35	35	11
36	38	2
121	121	2
57	58	5
14	38	2
88	90	4
113	116	2
56	56	4
21	36	2
39	39	6
29	32	3
26	29	2
0	0	15
121	122	1
21	21	12
44	44	11
13	93	4
18	21	2
114	116	13
45	55	3
101	102	1
16	23	2
103	103	7
24	24	1
102	102	13
29	29	16
77	77	13
93	99	4
38	80	7
78	82	5
15	21	3
96	97	13
87	87	9
90	98	7
130	130	6
8	27	2
103	106	4
66	67	3
93	94	7
61	63	1
5	5	8
68	74	1
64	65	3
129	129	5
76	130	3
8	15	6
34	43	2
99	100	2
62	65	2
59	60	3
91	92	10
47	77	2
16	85	3
8	9	8
0	65	1
99	101	3
94	96	4
29	33	2
119	121	7
114	114	7
48	49	4
21	42	2
88	89	2
111	111	12
60	61	1
10	11	1
43	99	2
106	106	2
6	93	3
46	68	1
2	2	16
45	97	2
78	128	1
19	20	9
14	17	2
20	32	3
14	15	4
14	43	2
22	23	1
82	82	7
89	95	2
7	13	2
56	59	1
26	46	2
43	43	11
28	80	1
76	77	4
110	130	2
31	32	4
63	64	5
19	72	1
7	19	4
15	15	7
12	48	3
54	55	3
32	80	6
23	26	1
11	47	1
98	100	5
49	98	2
15	74	1
2	9	3
29	31	3
12	13	3
119	122	3
18	58	3
8	10	2
63	68	2
70	71	1
108	117	4
4	32	1
5	31	1
76	78	2
31	58	3
86	88	4
102	104	4
121	127	2
101	107	4
101	109	2
19	61	2
105	111	3
15	20	2
40	43	4
87	108	5
9	75	5
26	48	1
90	92	1
89	93	2
41	41	6
15	24	3
35	74	1
20	21	2
118	126	1
62	72	6
105	105	4
124	124	9
46	77	2
69	71	1
125	127	2
79	82	2
111	113	1
10	16	2
45	69	2
8	33	5
11	13	1
87	96	5
62	63	5
7	66	2
95	108	1
17	132	3
28	91	1
16	42	1
93	102	3
8	134	1
44	45	1
63	124	2
65	70	2
110	111	2
24	25	2
48	83	1
32	79	4
27	47	1
85	91	1
5	21	2
12	46	1
56	81	1
23	30	1
37	84	3
4	88	1
12	134	4
34	74	1
130	131	3
89	106	4
14	25	1
11	17	2
28	97	2
96	98	1
120	124	2
36	79	2
93	101	1
31	47	3
86	94	2
82	84	2
100	129	2
87	93	1
17	131	1
7	63	2
12	40	2
34	39	2
23	23	6
4	31	2
21	61	1
81	131	3
113	131	1
86	90	4
25	32	1
28	66	1
46	95	3
23	43	2
90	93	2
72	73	3
16	83	2
38	43	3
20	20	3
10	100	1
33	80	2
96	101	2
101	103	2
20	43	1
68	69	3
29	48	2
93	100	3
113	115	1
6	11	1
62	75	2
64	67	2
55	57	1
78	130	2
123	124	6
118	120	1
46	69	2
107	107	2
89	98	1
94	100	2
100	102	1
9	14	1
67	116	1
2	117	1
17	61	2
105	125	1
104	105	1
19	71	1
15	23	1
0	73	1
40	41	2
133	133	3
45	71	1
37	39	1
12	93	1
76	88	1
66	112	1
9	27	1
65	68	2
24	26	1
87	92	2
50	50	1
66	83	1
66	71	2
36	47	1
3	4	2
9	35	1
37	41	2
107	108	1
79	81	3
46	118	3
96	100	1
44	47	1
1	2	5
37	83	2
27	49	3
46	74	1
1	125	1
6	92	1
10	12	2
33	35	1
27	30	1
112	116	1
12	27	2
36	61	1
9	11	1
36	44	1
116	117	1
33	36	2
56	58	1
85	98	1
130	132	2
20	42	1
31	49	1
29	47	1
56	60	2
105	110	1
9	126	1
125	126	1
39	82	1
18	19	1
85	122	1
16	46	1
