17	20	3
49	51	3
9	10	8
30	30	23
46	47	9
11	12	3
75	75	21
18	18	4
2	2	9
74	74	15
6	6	14
81	81	17
20	25	4
50	50	13
5	70	6
4	5	4
48	53	5
65	65	19
27	27	21
46	46	9
23	23	15
85	85	25
59	59	7
47	47	12
48	49	15
51	55	3
48	48	22
15	15	8
82	88	2
87	87	19
5	6	7
70	70	12
6	82	2
22	22	8
6	78	2
48	54	7
77	80	4
3	3	23
66	66	22
5	26	1
53	57	5
14	14	18
1	1	14
24	24	26
77	77	8
68	68	22
62	64	3
66	67	5
72	73	21
84	84	22
74	75	10
79	82	5
9	9	15
25	25	29
10	10	9
31	31	8
58	71	5
13	13	7
12	75	4
12	12	14
83	83	10
73	74	12
48	51	3
12	13	6
58	59	4
63	65	23
25	27	10
7	7	19
10	11	6
86	86	16
8	9	6
52	54	1
73	73	29
71	71	42
55	73	1
76	80	6
57	57	33
58	58	13
20	21	4
16	19	4
6	55	3
4	23	6
18	27	4
53	53	10
48	50	5
82	84	2
88	88	8
5	81	2
26	26	12
71	72	11
54	54	11
80	82	1
4	4	16
19	19	13
20	20	5
30	48	2
59	61	3
82	82	19
9	12	3
80	80	15
76	76	13
9	25	2
11	50	3
56	56	20
6	80	4
71	73	3
63	63	4
61	61	10
64	65	4
5	5	10
22	23	7
0	0	13
56	57	6
67	67	13
29	29	4
9	74	3
88	89	7
62	63	5
54	72	2
71	84	1
53	54	6
89	89	11
20	34	3
62	65	1
70	71	4
18	19	5
64	83	7
8	8	10
54	74	1
3	4	3
27	28	14
60	60	11
64	78	2
59	63	5
63	83	3
24	25	12
86	87	6
57	58	4
84	85	2
72	72	7
62	66	2
84	86	1
46	75	2
78	78	4
67	68	10
52	52	11
19	24	3
71	81	1
8	76	4
55	72	4
61	62	6
64	82	2
78	79	1
10	13	2
23	25	2
0	1	4
16	18	5
61	63	3
85	86	5
51	51	11
57	73	3
74	77	2
7	12	1
12	51	2
70	74	3
20	22	2
81	83	1
25	26	1
68	69	3
69	69	5
13	31	3
65	66	2
53	55	3
17	17	5
7	8	4
59	60	2
77	78	2
56	72	1
2	4	2
23	24	5
79	79	3
54	71	1
85	89	2
50	62	2
28	28	6
79	80	5
46	48	2
34	34	3
13	14	3
11	11	12
60	64	1
76	77	3
54	82	6
47	56	3
69	75	2
63	66	1
6	7	6
15	20	2
7	77	2
6	77	1
80	81	7
54	73	4
83	84	3
11	28	2
52	55	3
10	12	5
16	16	7
50	52	2
51	52	7
22	24	1
14	18	1
67	75	1
46	52	3
19	26	2
29	30	1
4	24	5
22	28	2
15	16	6
17	27	1
78	82	2
78	81	1
21	21	3
49	49	5
32	32	1
58	70	2
8	25	1
55	56	5
7	26	4
72	74	1
69	74	1
73	76	2
11	26	1
47	48	3
71	80	5
49	50	1
9	73	1
21	23	2
53	71	1
2	3	2
55	55	1
61	77	1
61	64	2
21	49	2
19	22	3
67	85	1
56	73	1
21	22	1
8	12	1
1	2	1
78	80	2
30	31	1
54	55	3
26	27	2
1	87	1
19	49	2
82	83	2
8	19	1
31	47	1
11	27	2
22	27	1
47	54	1
17	18	2
81	82	2
87	88	1
67	69	1
50	51	1
74	78	1
75	76	1
9	78	1
7	76	1
71	77	1
