84	86	3
61	62	6
100	101	1
29	30	5
33	34	9
45	45	10
62	62	7
75	75	6
40	63	4
88	88	6
87	87	16
58	58	25
91	91	9
75	86	4
52	52	13
49	49	10
27	27	10
30	30	5
47	47	10
29	58	9
29	29	6
66	66	10
92	93	11
83	96	4
89	89	14
59	63	10
57	57	5
86	86	19
64	64	13
65	65	16
60	60	12
100	100	4
41	63	2
57	59	7
35	36	5
37	38	9
53	53	18
48	48	5
36	36	19
80	81	8
64	93	3
77	77	15
74	74	6
89	99	5
56	62	3
69	69	14
98	98	6
29	43	2
24	24	6
86	94	1
44	66	1
38	63	2
70	70	15
35	35	4
42	44	4
48	49	4
95	96	2
51	51	8
42	42	18
46	46	17
39	39	15
59	59	14
35	66	4
61	61	14
81	95	3
56	83	2
47	48	8
101	101	16
84	93	8
80	95	3
83	89	3
79	79	5
48	55	3
25	25	5
95	95	20
41	41	8
77	78	5
77	100	6
79	82	1
96	96	11
58	60	1
67	68	8
73	73	3
85	85	10
53	55	3
31	71	2
97	98	7
76	77	2
23	25	6
71	72	5
43	101	2
63	89	2
97	97	14
43	43	1
44	44	15
40	40	6
94	96	2
95	98	1
67	67	8
71	73	5
83	83	4
93	93	13
23	26	3
38	38	7
75	76	3
93	98	6
93	94	4
31	31	3
42	64	5
61	89	5
69	70	5
40	41	2
79	92	1
90	90	23
98	100	3
83	84	4
20	20	7
80	94	1
68	68	11
76	76	8
80	80	28
78	78	14
26	26	2
22	22	4
46	82	3
96	98	7
32	35	2
81	82	2
87	88	4
84	84	9
62	63	1
32	33	3
75	85	2
63	92	1
55	58	3
38	57	3
61	63	1
32	56	1
24	27	1
70	71	1
42	51	1
63	63	6
46	55	5
33	33	5
66	73	1
31	77	3
81	83	1
47	52	2
94	94	4
80	93	8
81	81	8
28	28	1
65	66	5
54	54	4
30	78	5
92	92	8
99	99	12
50	50	6
24	25	6
57	63	2
68	72	2
81	93	3
84	92	5
51	52	6
82	87	2
25	27	2
52	78	3
63	72	2
45	46	4
50	51	2
59	60	3
91	92	3
97	100	2
37	37	4
80	92	1
87	98	3
46	54	2
63	64	1
73	95	1
22	23	2
57	82	2
40	67	1
54	55	2
72	72	11
56	59	1
65	90	1
82	82	1
56	56	2
83	97	3
59	62	2
34	34	3
58	68	3
71	71	2
46	47	6
79	95	3
42	43	2
31	57	3
38	61	2
37	57	1
45	47	2
73	74	3
102	102	4
74	75	4
53	60	4
36	66	1
41	42	1
60	61	1
60	62	2
45	52	1
35	37	1
96	102	1
73	76	1
53	54	1
44	50	1
62	92	1
45	50	1
68	100	1
74	89	1
62	78	2
79	81	2
20	25	1
57	58	1
45	48	1
56	57	2
46	62	1
46	60	2
64	71	1
78	79	2
39	41	1
39	67	2
73	86	1
88	89	1
56	73	1
57	78	1
84	97	1
65	67	1
73	77	1
38	39	1
53	62	1
66	75	1
