65	108	7
112	114	7
163	163	10
114	114	9
24	67	2
157	157	13
135	136	3
129	130	5
101	101	10
20	22	4
27	27	8
22	22	14
63	69	5
65	65	7
117	119	2
37	37	19
25	25	12
7	16	1
21	22	10
133	133	7
115	115	13
76	76	5
117	117	13
0	0	18
7	7	12
78	79	10
7	9	3
88	88	12
144	145	8
98	98	7
43	43	17
98	113	4
99	99	9
51	51	10
90	90	6
144	159	2
113	113	9
56	56	14
134	135	13
50	50	8
159	159	13
18	19	8
147	148	7
57	63	4
20	21	4
85	105	2
42	42	14
126	126	8
48	48	6
139	139	6
90	91	7
16	17	3
47	47	15
17	27	2
110	110	11
35	35	8
9	13	1
63	70	5
53	53	11
68	68	4
16	16	12
33	43	1
24	113	5
47	51	1
40	51	4
148	148	11
115	116	10
156	156	10
21	21	20
151	151	9
114	118	1
96	97	4
12	13	9
6	6	9
88	89	15
68	73	4
36	36	18
147	151	3
54	55	4
100	101	1
39	52	1
107	107	3
1	1	23
25	130	1
123	126	1
47	52	1
148	149	4
111	111	8
20	23	2
112	112	15
52	52	9
17	18	2
122	122	18
117	146	1
8	8	16
114	116	7
119	119	4
132	132	10
37	38	7
142	147	2
152	152	4
40	40	9
95	95	6
4	5	5
144	144	21
109	109	15
143	143	9
130	131	6
117	118	2
103	105	1
118	118	12
26	27	8
112	125	3
62	62	6
18	18	8
98	99	4
162	165	1
71	71	11
1	167	8
129	129	4
124	125	2
21	40	3
57	67	2
76	79	3
24	52	4
68	71	5
0	162	2
96	115	2
3	4	6
115	120	2
140	140	9
101	102	2
72	72	10
20	116	1
33	33	1
39	40	12
11	11	13
57	62	4
24	24	9
145	145	2
33	34	2
41	41	15
67	67	2
139	140	14
83	83	8
34	34	8
76	78	1
4	136	3
119	123	2
23	69	2
9	9	12
123	124	3
151	152	8
108	108	6
132	133	4
121	122	2
3	3	15
110	111	1
135	135	11
23	24	3
128	128	10
93	93	2
162	164	3
17	17	9
141	143	3
66	69	2
66	66	4
87	87	12
20	20	8
45	46	5
53	56	1
136	136	6
109	111	2
166	166	5
1	48	1
144	146	5
57	57	8
153	153	6
159	160	12
80	80	7
158	158	2
163	164	7
0	7	2
169	169	8
121	121	8
70	70	1
62	63	4
131	131	4
39	39	12
108	109	4
94	94	5
81	81	8
113	125	4
148	151	3
37	52	1
106	106	7
48	49	8
67	69	3
38	38	5
13	13	13
92	92	8
137	137	5
147	147	5
137	138	4
124	124	9
39	117	2
39	50	1
123	123	16
22	24	2
5	5	8
158	159	2
11	24	3
49	49	11
123	138	6
45	45	11
73	73	6
14	15	5
154	156	2
53	55	4
44	45	5
106	108	2
85	85	16
142	142	5
40	52	2
23	23	9
53	54	2
49	67	2
1	165	2
165	168	3
49	166	1
69	69	4
115	118	5
82	82	5
4	141	2
41	91	4
57	95	4
114	115	5
4	4	12
122	125	1
21	114	1
155	155	5
150	151	5
10	45	1
164	169	2
158	160	3
145	146	1
160	160	1
113	137	3
153	156	4
146	146	11
162	162	9
141	149	1
71	72	5
111	112	5
6	7	7
125	125	5
21	163	3
28	28	1
78	80	5
54	54	3
82	83	2
140	144	2
134	134	5
64	64	3
104	104	10
94	97	1
161	161	3
103	104	4
127	129	3
90	94	1
170	170	6
112	137	3
117	138	1
149	151	1
81	97	2
12	24	3
86	86	5
91	91	2
20	39	1
75	75	6
19	19	6
46	46	11
68	69	3
161	164	2
63	63	5
10	10	9
4	156	1
7	45	3
49	51	3
9	10	3
69	72	2
141	142	1
154	154	6
120	120	3
91	93	6
97	98	1
12	12	15
91	96	1
73	74	3
124	126	1
127	127	6
7	8	8
81	83	4
92	98	3
109	110	6
15	15	8
13	121	1
98	116	1
150	150	6
118	119	1
4	11	2
153	154	7
96	96	6
2	2	5
50	51	3
26	26	9
149	149	6
0	1	3
156	164	3
21	113	2
102	104	3
22	23	4
56	95	1
56	127	4
8	10	2
116	116	5
46	47	2
54	93	3
40	53	1
97	113	2
161	162	2
38	39	2
74	74	4
89	89	4
148	157	2
67	68	9
2	3	3
89	91	2
86	87	6
163	165	2
133	135	1
25	47	2
105	105	2
8	9	7
39	114	3
136	137	1
93	94	5
142	144	7
155	157	1
142	143	2
117	122	2
1	9	1
136	158	7
114	120	2
167	167	4
142	145	4
97	97	9
10	46	1
73	77	2
111	116	4
55	55	9
133	134	3
138	138	8
79	80	6
55	56	3
119	121	1
111	113	2
45	73	2
14	33	1
13	14	2
48	52	1
43	44	9
102	102	9
57	126	4
158	163	1
52	99	1
40	41	2
138	139	2
140	141	3
51	69	3
69	107	3
44	46	1
20	25	1
5	134	1
44	44	4
100	102	6
113	114	3
104	106	1
149	150	2
77	77	6
91	94	2
9	14	3
14	14	4
121	123	2
165	169	2
51	52	3
125	126	1
47	57	1
120	121	5
55	98	2
48	166	1
19	20	1
100	100	1
80	88	1
168	168	2
106	107	3
74	75	4
67	70	2
10	11	4
88	90	1
103	106	3
91	95	3
22	116	2
168	170	1
87	89	2
1	3	3
87	88	2
14	16	2
6	8	1
91	92	2
11	23	1
7	125	1
0	166	3
63	114	1
145	148	4
164	165	4
99	105	2
13	15	1
167	168	2
53	98	1
101	103	2
38	43	1
15	16	3
63	115	1
120	122	2
79	79	3
20	68	1
5	15	1
24	25	5
150	152	1
11	12	1
11	131	1
5	6	1
1	2	2
38	52	1
72	73	3
56	57	1
42	43	1
8	134	1
113	123	1
79	97	1
40	89	1
134	140	2
6	26	1
79	82	1
92	94	2
18	20	1
165	165	1
75	76	2
112	113	1
27	28	1
119	142	2
94	96	2
131	132	1
77	88	3
119	122	1
62	123	3
50	103	1
92	93	2
23	63	1
16	46	2
138	140	1
64	69	1
95	96	1
41	97	1
12	25	1
132	148	2
63	64	1
137	139	1
112	117	2
41	42	1
65	66	5
113	115	2
83	84	2
120	159	2
26	128	1
116	120	2
141	141	1
2	10	1
157	159	2
130	130	2
62	124	1
100	107	2
143	144	2
153	155	1
24	112	2
24	41	2
164	164	1
143	145	2
18	26	1
1	161	1
147	149	1
33	35	1
77	80	1
25	37	1
3	12	1
162	163	1
148	155	1
67	108	1
72	74	1
112	120	1
107	109	1
155	156	1
65	125	1
66	108	1
58	58	1
48	50	1
57	114	1
47	50	1
148	152	2
50	102	1
141	145	1
