73	73	14
207	207	15
26	26	15
163	163	12
3	9	2
56	56	14
128	128	24
40	41	6
131	133	3
106	130	3
27	27	23
214	216	8
81	81	14
56	57	4
59	60	3
174	174	4
100	100	14
9	9	8
4	4	23
78	113	1
141	223	2
83	83	14
108	108	2
2	2	23
177	177	17
39	39	15
10	11	6
82	82	9
54	65	1
21	21	10
18	18	17
86	86	31
52	53	4
193	193	20
79	81	2
199	200	8
17	21	1
204	204	12
78	107	6
234	236	6
166	166	17
3	36	2
220	221	6
49	49	17
11	11	36
168	169	5
117	123	1
26	202	8
218	221	2
10	10	12
78	109	1
65	65	12
120	191	2
168	168	2
173	174	12
141	141	5
74	74	12
171	171	12
73	74	2
231	231	12
116	125	1
15	15	7
33	34	1
176	176	13
212	214	1
79	80	18
20	23	11
34	35	9
182	183	2
32	48	6
12	79	1
146	149	6
22	22	9
50	50	10
201	201	20
41	42	3
104	104	10
35	37	1
27	28	11
5	12	2
54	55	9
183	183	14
40	40	20
120	120	19
179	179	14
38	39	6
188	189	6
152	152	4
193	199	5
108	109	2
125	125	10
182	185	4
29	29	12
42	43	9
59	59	14
226	227	9
2	40	2
238	240	6
75	84	2
123	123	9
13	15	1
44	45	5
133	133	7
165	165	3
21	22	15
70	73	5
203	203	9
119	119	10
217	217	12
23	23	20
144	144	7
101	101	20
161	161	11
2	36	3
2	3	8
169	169	9
12	36	5
100	101	4
74	85	2
35	35	6
71	71	11
34	34	8
0	33	1
113	160	4
127	127	6
70	70	9
66	66	17
200	200	7
97	101	1
45	45	8
146	147	1
24	24	16
54	54	14
12	14	2
76	77	7
7	11	1
221	221	8
78	124	2
122	122	5
227	229	4
195	195	8
102	119	2
175	176	4
8	15	3
47	47	18
66	67	7
213	213	12
225	225	13
129	133	4
145	145	6
31	32	4
190	190	14
80	115	1
131	134	3
16	16	15
25	26	4
114	114	8
28	28	25
139	154	2
55	67	1
158	158	7
64	65	9
182	182	14
13	13	13
0	36	5
181	183	2
17	17	26
135	135	14
89	102	2
163	169	1
55	56	4
134	134	11
47	48	3
98	98	5
25	243	1
38	38	19
45	55	6
237	237	10
85	86	2
162	217	1
36	57	1
151	151	1
23	228	4
52	52	12
43	44	12
60	60	10
1	1	8
180	188	2
199	199	15
204	208	1
22	95	3
139	143	2
76	76	12
204	207	7
2	35	1
221	222	5
17	33	1
106	109	5
33	33	17
80	80	2
42	42	15
46	47	4
4	5	2
180	180	20
25	25	17
7	10	2
43	43	5
30	60	2
43	221	2
225	226	1
215	221	3
188	188	4
39	40	3
147	223	4
212	212	5
220	220	3
217	218	19
220	222	6
186	186	9
0	35	5
85	101	2
39	42	4
97	97	18
0	0	22
5	14	3
31	33	1
52	237	3
205	206	13
0	8	2
137	137	10
185	185	10
5	7	7
16	81	3
238	239	8
32	32	11
219	219	6
139	139	5
70	71	1
85	85	13
13	14	7
22	63	1
242	242	13
63	63	10
36	36	11
62	62	14
42	48	2
51	54	2
227	227	15
232	232	9
136	138	2
107	115	4
23	24	3
70	103	1
22	154	2
191	191	10
234	235	3
123	127	2
124	125	7
5	13	5
189	189	6
0	42	7
155	161	8
20	20	23
135	136	4
105	123	3
6	7	1
175	175	13
89	89	5
182	217	6
143	144	5
14	16	14
19	19	14
100	104	1
107	107	5
68	73	3
71	72	2
233	238	1
8	11	4
229	230	4
84	84	9
113	113	5
233	233	7
69	69	11
16	17	4
79	79	10
209	210	7
147	148	6
134	150	3
1	2	9
168	170	4
160	160	10
48	48	9
148	148	6
195	196	3
189	190	9
236	237	4
15	17	5
173	218	2
153	153	8
53	55	7
192	192	10
210	210	14
4	13	5
0	1	9
10	55	2
75	76	3
215	215	7
75	112	5
5	5	9
211	211	15
0	2	3
162	162	10
32	33	3
162	163	1
226	226	8
77	79	5
53	53	15
159	161	3
6	6	9
8	8	14
136	223	2
146	146	2
29	35	1
137	138	5
38	239	1
117	117	6
236	236	15
83	84	2
77	77	5
78	80	1
32	97	1
123	124	6
12	80	6
224	225	4
60	62	1
183	184	2
103	104	5
232	233	1
7	7	14
198	198	3
40	65	3
121	121	19
136	145	3
30	40	3
192	197	2
127	159	3
148	237	3
184	186	2
34	79	6
185	186	10
58	59	7
223	223	5
82	84	8
150	151	3
19	20	6
99	106	2
16	22	2
222	222	6
233	234	2
37	37	11
75	75	7
44	47	3
107	129	2
8	106	1
5	34	2
162	242	2
161	162	2
72	72	12
230	231	9
20	56	4
168	176	2
144	149	1
158	159	5
22	23	18
209	209	6
53	69	1
231	232	4
224	224	16
106	107	3
221	224	3
16	34	2
80	81	12
219	220	5
89	106	3
174	175	1
58	58	20
29	30	10
71	73	5
228	228	14
149	150	1
187	187	11
163	213	5
20	33	1
241	241	5
65	68	3
159	159	7
36	99	2
177	179	4
67	67	8
152	155	2
26	27	6
186	187	6
238	238	14
16	95	1
35	36	2
172	172	9
108	111	4
95	95	5
208	208	5
61	62	3
213	221	2
29	99	2
38	40	4
176	177	4
44	44	8
164	164	2
7	8	8
105	106	2
46	46	7
167	168	6
12	13	2
18	20	1
60	63	4
95	97	1
19	34	2
197	197	11
18	19	10
31	31	8
126	126	1
24	37	6
182	186	2
206	208	1
167	167	7
220	225	5
81	117	1
30	30	20
230	230	5
40	201	5
176	182	1
53	65	2
164	165	2
213	214	3
64	64	4
126	155	2
2	4	1
67	235	4
178	178	7
8	9	3
211	212	4
14	58	2
240	241	16
157	157	2
196	196	3
2	15	1
157	172	3
57	57	4
52	100	2
120	131	2
77	78	4
204	206	2
6	77	4
61	61	14
20	97	1
136	141	2
14	15	2
216	216	6
17	34	2
1	36	2
11	12	2
19	22	5
3	3	21
200	205	2
119	121	3
128	223	2
157	158	2
63	64	2
97	102	4
239	239	7
156	204	2
173	173	8
184	184	2
12	12	12
138	156	2
95	102	3
58	60	3
156	156	3
138	154	3
3	19	2
240	240	3
120	122	3
205	205	10
13	74	2
143	143	6
170	172	3
134	135	6
68	68	13
200	204	1
218	239	2
16	57	4
131	131	4
168	178	1
215	216	2
208	210	3
152	186	1
57	58	1
136	136	8
118	120	4
138	138	6
30	67	2
212	213	6
48	49	5
29	198	2
219	223	2
27	162	1
183	185	2
81	83	5
124	158	3
28	85	1
3	10	2
162	198	2
199	223	3
181	181	5
192	220	1
14	14	8
124	127	6
9	20	4
218	218	12
88	121	2
208	229	2
21	34	1
99	100	2
118	157	2
68	69	6
16	21	2
11	30	5
154	204	3
228	229	3
98	101	3
209	224	3
34	57	4
45	46	9
106	106	5
77	80	1
120	121	5
56	74	3
140	143	4
102	102	8
50	53	2
10	27	2
200	201	1
228	231	3
3	8	1
193	194	5
165	166	3
62	71	1
118	118	1
167	171	4
78	78	5
55	55	5
204	205	3
214	215	3
211	224	2
210	224	1
193	226	5
37	38	2
140	140	7
21	23	10
76	133	6
191	192	3
162	197	2
199	218	1
48	60	1
46	54	2
151	202	2
12	15	4
216	217	5
179	180	5
176	178	10
162	177	3
130	130	2
234	234	6
79	125	4
52	64	3
124	124	3
27	85	2
160	161	3
106	129	2
141	142	2
51	53	4
134	138	1
54	98	1
192	226	2
15	16	2
56	226	2
192	193	1
65	66	4
7	16	2
65	69	1
57	59	4
177	178	1
200	208	3
235	235	4
146	150	2
17	56	2
103	107	1
146	148	3
241	242	2
22	36	1
169	180	3
137	153	4
31	75	5
129	130	5
3	4	11
144	146	4
230	234	3
50	52	1
6	8	3
29	31	2
192	196	3
47	50	2
21	58	2
147	224	2
107	118	2
223	224	1
128	129	2
118	160	1
3	53	2
28	29	2
149	149	2
153	154	2
15	18	2
99	99	7
117	118	3
67	68	4
77	133	1
214	214	7
17	19	2
161	172	5
6	35	2
235	237	3
201	202	2
4	6	3
165	167	1
114	118	2
190	191	2
103	108	3
202	202	6
118	125	2
152	205	2
206	206	3
121	125	3
194	199	2
198	201	1
142	223	1
76	114	1
70	72	4
43	52	2
162	202	1
104	105	1
9	10	1
32	38	4
15	58	1
107	123	2
104	125	1
102	105	1
26	55	1
31	67	1
167	176	3
185	191	1
17	36	2
148	149	3
37	99	2
4	34	1
117	125	1
165	172	2
46	55	1
51	97	1
29	85	1
78	79	4
223	227	3
213	216	1
65	225	1
3	46	3
149	207	3
129	129	3
152	153	1
187	189	1
159	166	1
154	154	7
192	225	1
81	82	3
41	146	2
168	171	2
75	99	3
200	222	1
102	103	4
229	229	5
5	6	2
105	105	4
96	96	4
24	25	4
147	171	1
180	181	1
133	134	1
12	22	2
139	142	1
36	56	1
155	158	2
184	185	5
123	125	3
216	224	1
167	184	1
31	48	2
107	116	2
170	170	6
115	115	1
239	241	2
100	113	2
75	113	3
88	88	11
189	198	1
142	143	1
106	132	1
90	90	1
89	126	1
222	223	4
166	167	3
225	229	1
80	117	3
3	51	1
30	61	2
59	63	1
116	117	2
229	232	2
26	232	1
233	237	2
37	40	1
131	132	1
159	164	2
13	17	2
51	51	2
226	230	1
229	235	2
24	55	3
20	24	1
25	64	1
62	63	1
19	23	2
169	231	1
151	152	4
118	121	2
133	135	3
156	157	2
84	104	1
39	219	1
109	139	1
21	37	1
96	105	2
29	76	2
150	150	1
169	182	1
23	61	1
171	179	1
76	82	1
183	193	1
69	72	1
123	126	1
103	103	3
155	155	2
6	16	1
25	242	1
27	29	1
17	64	2
108	114	1
115	118	1
57	60	1
84	85	2
96	97	3
5	15	1
136	137	3
24	28	2
170	180	1
48	58	2
223	237	1
4	7	1
15	33	2
105	107	1
42	47	1
1	50	1
122	123	2
165	168	2
136	140	3
41	41	2
76	81	1
43	45	2
107	108	4
181	184	2
194	197	1
184	187	2
174	217	1
170	171	1
74	75	2
26	28	1
39	67	1
122	130	3
79	126	1
187	190	1
179	182	2
185	223	1
41	49	2
208	209	1
134	207	1
5	16	2
75	77	2
64	232	2
21	227	2
127	128	2
156	170	1
206	207	1
36	37	1
170	176	1
2	7	1
81	89	1
221	238	1
153	203	3
41	62	1
170	231	2
212	220	2
44	141	3
185	194	1
8	61	1
1	218	1
142	153	1
72	73	1
39	41	2
66	69	1
224	226	1
2	50	1
236	238	1
175	217	1
13	34	1
49	50	2
78	84	1
121	122	1
210	229	1
12	17	1
109	109	1
196	201	2
155	157	2
186	222	1
172	232	1
31	41	1
98	99	1
40	200	1
50	51	2
21	97	1
183	205	2
18	51	1
139	140	1
194	196	1
196	197	2
196	210	1
19	21	1
20	53	1
17	18	1
28	60	1
30	58	1
183	191	1
194	195	1
100	105	1
172	173	1
126	130	1
209	211	1
81	119	1
208	228	1
18	22	1
10	37	1
49	52	1
194	194	1
37	55	1
13	78	1
40	49	1
3	37	1
37	56	1
66	68	1
