74	75	4
141	141	7
51	52	1
93	93	10
95	95	15
74	89	2
137	137	11
113	113	10
92	93	1
67	68	5
53	55	3
60	135	6
137	140	2
19	19	6
105	109	4
55	55	11
94	94	4
21	77	1
34	34	6
35	43	5
68	68	1
43	94	2
30	30	12
17	17	5
37	38	2
4	5	2
125	126	1
99	100	6
6	21	8
87	91	1
92	92	14
40	130	5
119	120	4
83	84	8
3	4	6
84	84	6
126	126	5
97	101	1
94	95	2
16	16	10
49	63	2
2	2	7
63	63	3
137	138	4
60	61	3
40	40	15
50	50	7
58	58	7
114	115	1
39	39	6
91	92	2
36	67	4
86	86	4
24	25	1
61	61	8
72	73	4
56	56	6
73	82	5
29	29	6
105	105	7
87	118	2
4	4	1
36	58	3
15	15	10
74	135	3
100	100	4
118	119	3
102	102	8
85	87	6
128	140	2
117	118	3
8	8	4
62	64	10
81	81	9
104	112	5
101	102	3
66	129	2
88	91	2
145	145	7
3	3	4
9	10	7
41	42	2
114	114	5
88	88	2
135	139	1
71	74	2
32	32	10
2	6	1
133	133	2
73	73	5
82	82	6
116	121	1
97	104	2
62	63	4
55	56	3
49	49	6
80	91	1
60	81	5
118	118	4
32	33	2
66	130	3
76	119	3
108	109	4
55	87	3
82	89	4
9	9	2
51	51	3
139	139	5
121	122	1
11	41	2
75	75	8
25	25	3
76	78	1
74	74	4
35	37	3
18	19	1
75	96	2
84	85	3
97	103	1
23	105	1
66	67	1
80	81	4
89	134	5
106	107	3
49	124	6
51	107	1
85	118	2
99	106	3
135	138	3
6	33	1
112	112	7
128	141	6
48	134	1
59	59	1
55	66	4
69	70	4
76	76	1
22	78	1
18	18	4
107	109	3
35	35	3
121	121	6
85	91	1
116	133	2
48	49	1
28	28	4
116	117	1
3	69	2
20	25	4
136	139	1
52	56	3
102	103	3
128	142	1
88	134	2
143	143	1
29	33	2
115	116	1
10	10	7
142	142	6
28	30	1
0	1	2
15	75	3
131	131	7
54	54	2
127	127	4
112	113	1
129	129	15
21	21	1
10	11	2
111	111	7
128	128	5
135	135	10
40	42	2
127	128	3
134	135	3
99	99	3
132	134	2
130	132	3
136	136	3
129	130	9
26	35	3
47	67	1
31	31	6
101	101	3
108	108	3
29	32	2
19	77	2
48	57	2
34	92	1
98	99	8
87	88	5
67	71	2
37	82	1
12	107	2
64	108	6
52	52	2
1	29	4
107	107	10
90	90	3
125	133	1
101	133	6
43	43	3
119	119	2
28	33	2
91	91	2
135	136	1
85	85	2
58	65	3
97	98	5
66	73	1
67	129	4
2	68	3
98	106	3
73	134	1
87	135	2
69	112	3
48	56	5
25	26	2
0	0	2
85	92	3
83	85	1
131	134	3
117	117	2
43	130	2
82	86	1
20	33	1
15	33	3
26	26	2
37	102	1
103	112	2
138	138	1
76	77	1
84	118	3
40	41	1
99	139	2
102	130	1
95	96	2
81	128	1
88	108	2
38	38	4
97	97	2
119	132	3
37	37	1
97	99	2
107	123	2
140	140	3
110	111	3
122	122	3
48	48	7
132	139	1
105	116	3
72	72	1
104	110	3
110	110	2
94	113	1
124	126	3
98	143	1
78	90	5
61	63	1
120	120	6
20	22	1
104	104	1
42	43	1
39	40	1
16	34	2
103	103	2
78	78	8
74	134	2
109	111	2
63	72	1
15	93	1
14	16	7
23	23	7
28	95	2
79	79	1
20	124	1
24	24	2
57	58	1
13	13	3
70	71	2
69	94	1
134	134	3
77	78	2
46	47	1
117	136	2
55	64	3
20	20	1
56	64	1
22	22	1
81	87	1
41	142	1
64	65	1
83	86	2
64	64	1
84	132	1
78	80	1
100	133	1
50	137	2
0	23	1
65	84	1
109	109	1
56	89	1
57	118	2
36	43	1
17	61	2
1	1	1
16	73	2
60	82	2
82	87	2
90	126	1
17	18	1
31	98	1
39	98	1
71	72	1
124	124	4
53	53	3
56	88	1
129	138	1
35	36	2
132	132	3
78	79	1
109	134	1
134	140	2
69	72	4
27	27	2
71	71	1
36	37	1
56	59	2
4	33	1
53	118	2
36	36	2
69	69	1
50	121	3
141	142	2
125	125	2
138	141	1
87	126	1
80	80	3
87	90	3
14	96	1
1	68	1
92	94	2
27	30	1
66	127	1
30	90	1
118	134	1
58	119	1
99	101	1
66	126	2
70	70	1
50	65	1
64	71	1
105	106	4
5	50	1
16	23	1
58	64	1
113	121	2
21	25	1
133	139	1
43	47	1
2	4	1
20	21	1
58	109	1
68	69	1
62	86	1
95	103	1
35	47	1
84	86	1
65	70	2
73	74	1
34	88	1
136	137	1
87	93	1
13	83	1
116	116	1
61	64	1
60	60	2
83	83	1
39	72	1
140	141	1
1	15	1
