22	22	7
37	38	9
5	5	27
141	141	7
10	10	39
27	27	14
41	66	1
118	118	12
23	24	6
146	146	14
71	71	12
33	35	3
29	31	8
5	12	13
60	60	7
131	138	2
31	31	23
36	36	22
157	159	1
39	39	13
66	66	16
82	82	6
145	145	21
126	126	21
110	111	6
50	51	2
8	20	8
54	54	12
81	81	7
114	115	10
0	0	9
116	117	5
2	3	2
29	29	8
137	137	9
15	15	8
161	162	1
157	157	7
77	121	2
150	151	6
9	10	6
28	28	17
3	15	5
134	137	1
170	171	1
21	22	4
83	83	4
17	17	14
43	43	26
63	63	10
18	18	11
127	128	4
166	166	9
36	38	2
95	95	15
58	58	1
3	3	14
111	111	6
121	121	7
87	95	2
53	56	6
163	163	16
124	124	16
59	60	7
91	121	3
108	108	8
71	81	2
150	150	9
133	133	19
115	115	7
98	109	2
169	169	7
107	114	2
102	102	9
78	79	5
37	37	16
132	132	5
44	44	16
2	2	8
34	35	1
79	79	7
142	143	5
18	19	4
65	65	10
25	33	6
25	26	5
34	34	15
152	152	10
76	76	11
2	41	1
32	32	12
138	139	2
128	130	8
11	11	19
109	109	16
123	124	4
131	132	4
52	64	2
6	44	2
89	89	14
167	168	10
14	14	24
100	122	2
23	23	20
6	6	14
54	55	4
39	40	5
43	62	3
57	75	4
156	157	5
35	35	18
51	59	1
98	98	10
80	81	2
13	13	10
23	41	4
73	73	12
128	128	9
12	13	4
107	107	10
121	123	3
2	19	2
16	16	9
140	141	5
90	90	5
122	122	15
7	7	7
135	179	5
9	9	16
59	63	2
168	168	14
134	134	7
167	167	5
30	30	11
123	123	6
105	105	7
24	75	5
73	83	3
136	136	8
57	61	4
17	19	3
87	87	2
135	136	6
6	7	7
171	171	18
10	39	2
66	67	10
77	77	16
149	151	2
114	114	12
131	131	8
105	115	2
40	41	12
106	106	24
112	112	9
52	54	3
157	170	4
165	165	13
144	144	3
5	6	8
25	25	15
143	143	4
92	92	8
68	68	10
111	112	4
129	129	8
22	23	7
33	33	15
26	26	4
45	45	11
108	118	2
117	117	6
8	8	6
139	142	4
158	160	2
42	42	15
135	135	12
159	161	2
59	75	2
23	29	3
55	56	3
130	130	13
96	96	4
16	38	1
56	56	15
140	144	5
0	1	1
130	131	6
93	93	5
109	110	7
110	110	5
25	30	4
16	39	3
102	112	3
4	19	1
85	85	10
59	59	7
26	27	8
97	97	5
2	11	6
126	133	2
172	173	2
62	62	11
151	152	9
1	134	3
88	89	2
74	74	2
67	68	3
154	154	11
113	125	6
113	127	3
125	125	2
11	13	4
73	77	4
131	158	2
64	64	12
142	142	19
104	104	4
71	138	1
152	153	3
3	61	2
75	75	13
120	120	1
13	15	6
43	44	7
153	153	8
111	159	2
43	45	2
172	172	9
158	158	6
4	8	1
158	159	4
35	36	6
77	78	3
56	60	2
115	116	2
24	24	5
119	120	5
42	43	6
21	43	4
140	140	7
115	121	2
67	72	2
176	177	3
14	15	4
40	42	1
141	143	2
157	158	4
100	100	10
124	125	4
41	43	1
5	7	1
7	9	1
160	160	8
21	21	7
136	140	2
173	173	13
52	52	9
101	102	2
5	18	4
74	171	1
11	12	3
0	5	1
54	74	3
127	127	3
154	155	1
133	179	1
16	43	2
40	40	7
107	108	2
38	39	4
122	123	3
149	149	17
50	57	1
161	161	9
41	42	5
7	33	1
119	161	2
50	50	5
94	94	5
138	138	4
173	174	5
25	80	4
158	166	3
26	80	3
41	41	23
123	180	1
133	135	1
23	25	1
58	59	3
124	133	2
174	175	1
101	101	6
4	4	7
126	127	2
20	21	1
3	11	2
9	37	6
86	86	7
32	36	3
61	63	1
174	174	9
147	147	9
127	131	4
1	1	8
0	17	1
76	77	5
60	61	1
13	14	8
1	2	4
105	106	1
116	116	1
156	156	2
78	81	1
12	22	2
0	14	1
6	9	3
167	169	1
72	72	6
145	146	8
133	134	2
91	91	5
52	53	1
78	124	1
80	86	1
151	151	3
51	53	1
61	62	3
144	174	4
45	46	5
133	136	1
86	87	2
67	67	3
170	170	9
28	30	1
160	161	4
31	32	7
89	99	1
159	159	3
26	28	1
10	18	2
162	165	1
10	172	1
113	113	1
123	135	2
57	57	12
104	105	2
33	34	1
20	20	7
84	84	1
7	13	2
101	114	3
65	66	7
166	167	4
103	103	2
58	72	4
106	125	1
11	40	2
15	16	5
23	51	2
59	85	2
147	148	4
99	100	1
148	148	3
127	130	4
91	97	1
71	73	2
3	4	3
54	66	2
37	93	3
176	176	7
97	98	1
121	138	3
162	162	4
131	134	1
88	88	5
117	118	6
1	17	1
71	83	2
90	92	2
4	5	4
58	78	1
19	42	2
101	125	1
143	144	5
10	12	2
62	65	1
72	73	4
119	119	5
12	12	7
118	142	4
43	51	5
77	135	1
21	38	2
177	178	1
92	93	2
9	29	2
12	19	1
80	80	6
127	140	2
0	2	2
101	109	1
19	24	2
178	178	4
36	37	7
172	176	4
24	26	2
5	61	1
12	137	2
39	61	2
120	123	1
85	86	2
146	147	3
38	38	11
16	19	1
139	150	1
153	154	3
132	139	2
54	77	1
165	167	2
25	31	2
134	135	2
7	8	6
118	119	1
64	65	4
94	106	1
68	80	1
83	84	2
4	56	1
14	23	2
38	79	1
5	24	2
55	55	8
111	113	5
16	18	3
179	179	4
87	88	3
113	114	2
2	15	2
159	160	4
5	16	2
5	64	2
78	78	1
168	169	1
72	74	2
10	11	3
164	164	3
155	155	4
46	46	2
90	94	3
7	11	1
151	166	1
128	131	1
70	70	2
35	37	1
106	107	6
175	175	1
159	167	1
103	106	2
51	51	1
120	121	2
118	139	3
98	112	2
11	18	5
27	28	3
95	97	4
166	168	1
79	118	2
163	179	1
120	122	1
144	145	2
159	166	2
108	109	4
74	78	4
123	132	1
68	86	2
148	149	2
180	180	1
119	159	2
160	162	1
11	14	3
115	117	2
4	35	1
80	88	1
49	50	2
28	29	4
24	33	2
54	56	2
24	74	1
9	11	1
99	116	2
61	64	2
54	57	3
140	145	2
32	33	6
151	163	2
151	156	1
92	94	1
150	158	2
0	55	1
9	41	1
50	52	1
119	145	1
16	17	3
131	133	1
37	64	1
95	111	1
17	18	3
119	124	1
68	76	1
15	17	1
63	64	1
95	110	1
94	95	2
142	150	1
30	32	1
163	164	1
108	133	1
162	163	1
11	31	1
24	40	1
61	61	1
145	174	1
136	145	1
56	57	1
6	10	3
35	41	1
74	80	1
2	4	1
12	14	3
6	40	1
102	103	1
142	149	3
9	42	1
90	91	2
89	90	2
21	23	1
74	75	1
122	125	1
146	153	1
4	13	1
1	10	1
34	42	1
24	50	1
8	9	1
3	19	2
37	40	2
35	80	2
107	166	1
177	177	1
158	170	1
10	32	1
156	162	1
141	142	1
150	161	1
91	92	2
19	20	2
3	12	1
97	111	1
16	23	2
6	11	1
171	172	1
121	122	1
53	54	1
78	94	1
9	33	1
108	125	1
113	115	1
178	180	1
3	35	1
56	58	1
64	66	1
95	96	2
91	122	1
107	132	1
21	27	1
81	82	1
63	66	1
5	40	1
146	154	1
106	122	1
53	53	1
76	78	1
166	177	1
20	24	1
91	93	1
12	20	1
107	167	1
99	99	1
34	38	1
10	21	1
5	14	1
98	100	1
5	11	1
104	106	1
102	111	1
73	81	1
139	149	1
