143	143	10
140	141	2
67	81	2
41	42	9
85	85	5
132	132	6
103	103	10
71	71	3
91	115	2
30	30	10
108	108	8
37	37	14
88	89	3
43	65	2
28	29	3
127	127	11
86	110	5
6	6	6
101	101	6
137	138	2
114	114	3
120	120	7
57	89	1
26	27	1
124	124	15
29	29	13
92	92	12
10	10	6
68	68	6
64	64	9
122	122	19
27	27	16
107	109	2
106	106	2
117	117	13
76	76	9
96	96	11
61	61	6
59	59	6
124	143	2
32	33	3
145	145	13
49	50	4
129	129	4
18	18	8
88	109	5
128	141	4
144	144	5
137	141	1
69	71	5
16	30	5
16	16	10
18	19	5
50	52	3
88	90	2
111	111	3
136	136	9
23	23	11
80	80	4
99	99	6
42	42	16
118	119	8
102	113	3
63	63	7
133	133	12
145	146	4
137	137	10
17	17	2
27	28	5
92	96	3
139	139	5
87	89	1
39	64	3
107	107	3
112	121	5
61	85	2
65	65	8
69	69	5
126	127	9
141	141	11
26	26	6
125	129	4
67	71	2
54	56	3
135	135	10
0	0	8
87	87	3
92	108	2
130	130	4
119	119	4
14	14	6
17	18	4
95	96	3
102	114	3
2	2	5
137	139	5
134	134	6
53	53	1
12	13	5
28	28	4
33	34	4
20	20	6
2	3	2
130	131	3
70	71	1
38	66	4
90	103	1
123	123	13
25	25	4
39	39	9
75	75	8
19	29	3
48	66	2
66	98	2
134	139	5
64	66	2
131	131	8
125	125	4
112	113	3
15	15	7
19	19	12
100	100	3
16	17	5
55	56	2
69	70	4
88	88	1
86	86	5
18	28	4
58	87	1
65	66	2
72	76	2
43	96	3
51	52	2
98	110	2
118	118	1
60	61	2
126	126	12
38	89	3
73	73	4
110	110	6
64	65	9
40	40	9
98	102	5
124	130	4
89	90	8
22	22	3
104	112	1
91	91	9
110	114	5
55	55	6
81	81	9
41	41	10
50	56	2
61	62	3
4	14	1
119	132	3
11	11	5
58	60	4
66	78	1
112	112	1
90	99	2
5	15	1
62	62	5
56	56	6
1	13	2
36	47	1
92	107	1
144	146	1
98	109	1
115	116	2
97	98	1
94	94	4
121	121	12
4	12	2
15	78	1
95	95	4
79	80	1
140	140	7
52	66	3
27	40	1
97	97	4
47	47	7
104	111	3
90	90	6
54	54	3
58	89	1
91	93	1
29	30	1
74	75	3
39	40	3
47	48	3
13	14	5
21	21	3
34	35	4
8	19	1
83	84	3
35	35	6
0	1	2
84	85	1
9	9	5
27	41	2
77	78	3
6	8	1
49	51	4
88	108	2
38	38	10
128	128	3
62	63	2
53	54	3
24	24	2
57	57	4
108	109	1
72	72	3
43	48	3
113	113	6
14	16	1
15	17	2
12	48	1
2	13	2
49	49	4
94	126	2
73	74	1
119	131	2
136	137	1
3	5	2
88	107	2
23	24	2
96	107	2
48	48	2
5	5	5
22	23	1
8	13	5
67	72	4
128	129	2
5	14	4
30	33	1
135	139	1
134	135	1
67	78	1
66	66	2
67	87	3
23	25	1
20	31	1
70	70	5
146	146	4
1	1	2
8	9	1
98	116	2
67	68	4
102	116	1
0	3	3
102	102	3
6	11	1
52	52	4
104	107	1
94	96	3
38	39	3
71	73	5
29	74	3
105	112	2
31	31	4
70	72	4
84	84	3
142	142	7
72	90	2
74	74	3
13	13	2
49	59	1
141	142	2
31	33	1
4	63	1
11	27	2
70	73	4
59	60	2
96	98	1
120	121	1
102	117	2
98	98	2
109	110	2
63	64	1
121	122	3
112	114	5
112	115	2
5	31	3
25	82	1
89	89	3
96	106	2
135	140	3
106	107	2
52	61	1
83	85	2
58	59	2
42	43	2
4	4	1
94	95	1
132	133	1
97	128	2
134	140	1
2	6	2
65	96	1
110	115	1
20	21	4
124	142	1
37	50	2
3	3	2
104	104	4
57	58	2
83	83	2
78	79	3
115	115	3
131	132	2
105	107	1
72	138	2
41	104	2
82	110	1
114	115	3
43	97	2
124	144	3
69	83	2
24	25	1
15	16	1
131	142	1
60	60	6
113	114	2
114	116	2
76	88	1
142	143	1
93	93	1
39	90	1
118	120	2
35	47	1
67	67	1
97	104	1
2	4	1
36	36	2
21	37	3
74	104	1
14	15	1
136	138	1
34	34	3
36	37	3
4	8	2
99	100	2
59	61	1
28	30	2
8	8	5
136	139	2
50	54	1
49	53	3
93	95	1
138	138	1
82	83	3
48	50	1
111	112	1
127	129	1
105	105	1
113	125	1
25	26	3
68	85	1
43	49	1
96	108	1
6	26	1
87	88	1
92	93	1
117	119	1
72	134	1
64	89	1
97	108	1
24	76	1
90	102	1
6	15	1
72	74	1
99	101	1
93	94	1
138	140	1
123	143	1
20	29	2
55	65	1
65	85	1
71	74	1
98	101	1
134	141	1
12	15	1
105	106	1
76	79	1
41	66	1
