55	55	25
38	38	26
47	47	25
56	61	5
57	58	5
40	40	17
50	51	9
66	67	12
26	26	24
49	50	2
77	77	11
18	18	13
64	65	8
3	55	1
27	27	10
30	30	23
64	64	19
8	8	16
34	34	8
69	70	6
66	66	34
67	68	5
46	46	11
4	40	1
37	37	19
31	31	14
49	49	13
50	50	7
25	25	13
3	3	17
6	6	25
13	13	11
56	56	16
75	76	2
55	56	6
48	48	9
62	62	7
79	79	9
2	2	17
20	20	7
1	1	26
60	61	3
78	78	17
28	28	16
3	4	12
11	12	5
21	21	6
19	72	2
37	38	13
28	65	1
45	45	15
61	61	18
18	30	6
6	70	2
51	52	5
76	76	10
7	7	20
10	10	9
73	73	26
42	47	8
29	30	7
63	63	21
41	41	16
13	14	11
0	1	3
19	29	2
68	68	11
5	6	12
45	46	14
54	54	16
58	58	15
39	49	3
65	65	23
57	61	2
72	72	26
35	80	3
37	39	5
56	57	7
39	39	18
74	75	6
74	80	2
32	32	3
71	71	13
7	8	11
60	60	17
74	74	16
33	33	19
77	78	5
71	72	2
44	45	3
32	33	4
36	36	21
16	16	12
70	70	7
69	69	11
67	67	13
35	35	14
59	59	9
35	73	2
17	28	1
3	6	5
36	37	2
58	74	1
9	9	17
51	53	1
12	12	11
15	15	8
59	60	7
42	78	2
53	54	4
1	43	3
33	54	8
45	59	2
33	35	2
17	18	3
80	80	14
14	15	2
5	5	9
34	35	2
48	58	2
4	4	23
10	18	2
72	73	2
70	71	2
42	42	14
54	55	10
31	33	3
7	49	3
62	63	4
19	19	9
29	29	14
40	41	6
1	2	4
17	68	10
57	57	14
42	48	3
53	55	5
9	10	7
26	27	1
35	36	5
75	75	11
22	22	1
25	72	2
46	55	1
0	0	6
27	28	11
6	7	4
48	49	2
29	67	4
15	16	2
19	21	3
35	48	3
66	68	2
10	30	1
17	17	11
68	71	3
61	62	6
37	43	1
4	7	1
74	79	8
29	48	2
39	40	7
46	47	2
73	80	1
52	52	10
14	14	4
16	17	2
21	71	4
73	74	1
10	12	3
37	42	1
19	20	4
43	48	2
38	39	4
78	79	4
56	60	3
42	43	5
19	30	4
69	71	1
2	3	6
27	73	2
60	64	3
28	71	1
38	45	2
43	43	4
71	75	2
17	67	2
8	9	1
40	53	1
11	11	3
46	60	2
41	49	2
45	61	3
30	55	3
29	47	2
16	26	1
79	80	1
12	13	3
55	57	1
53	53	2
16	21	1
63	64	3
76	78	1
9	27	1
17	71	2
19	40	1
7	27	1
12	46	1
3	5	1
10	14	3
13	15	1
30	51	2
38	66	2
31	32	1
26	72	1
12	14	1
20	26	1
8	41	1
73	75	1
80	81	1
17	75	1
50	53	1
7	63	1
30	50	1
41	42	1
58	59	2
19	31	1
10	15	1
