53	53	11
70	70	2
65	65	11
0	0	5
48	48	9
49	49	13
23	23	15
56	56	5
76	76	10
70	74	3
27	27	12
28	30	1
72	72	6
72	73	6
25	32	3
20	20	11
0	3	1
75	75	5
54	55	5
67	74	2
17	18	7
66	66	3
88	88	9
68	68	18
85	85	3
28	28	5
11	11	6
3	3	19
52	52	15
69	69	14
60	62	2
57	57	19
7	19	4
90	90	4
20	22	3
5	6	5
33	33	4
51	51	9
67	67	12
22	23	3
81	81	4
49	50	4
1	1	10
12	14	4
4	4	3
9	10	7
8	8	11
54	54	14
63	65	2
13	13	11
84	84	2
25	26	2
55	55	3
22	22	12
6	6	8
66	75	1
60	60	9
19	22	3
59	62	8
24	24	9
54	70	3
4	48	4
13	26	3
23	24	3
48	51	2
86	86	10
63	75	2
58	58	8
19	19	4
46	48	2
3	48	2
2	2	9
9	17	1
63	63	3
88	89	4
47	47	10
81	84	2
86	87	1
80	80	5
64	64	3
5	5	3
55	56	4
14	14	11
50	50	8
15	15	1
8	9	4
75	77	2
58	59	5
73	73	10
4	8	2
79	79	3
79	82	1
89	89	7
10	83	4
60	61	4
68	85	3
21	22	1
24	25	2
48	52	1
71	73	1
66	67	1
59	61	2
59	72	2
71	71	1
59	59	4
31	31	13
24	31	1
82	82	6
50	52	1
79	80	3
22	64	3
9	9	3
74	74	5
62	62	4
9	83	3
61	61	1
7	7	5
68	86	2
77	78	1
51	52	2
7	12	3
82	83	2
47	48	4
32	32	1
67	68	4
11	14	1
74	75	2
50	55	1
52	61	1
56	57	2
78	78	5
47	50	2
7	8	1
7	9	1
74	78	4
30	31	2
7	33	5
34	34	4
12	12	3
78	79	1
61	63	1
17	17	6
7	10	1
27	28	2
19	46	1
47	51	1
77	79	2
4	74	1
33	34	2
18	18	1
54	60	2
72	74	2
8	22	1
75	76	1
17	19	1
10	10	3
29	29	1
46	46	3
59	60	3
27	31	2
26	26	4
5	9	1
51	53	3
10	11	4
7	26	1
19	20	3
65	66	3
50	66	3
19	25	1
60	64	1
16	16	3
25	25	2
78	81	1
30	30	1
67	69	2
53	54	1
5	46	1
77	77	2
78	80	2
55	83	1
54	77	2
6	8	1
2	3	1
87	88	2
23	25	1
50	54	1
76	77	1
34	70	2
16	17	1
20	21	1
81	83	1
87	87	1
22	27	2
5	17	1
8	13	1
7	20	1
64	65	1
4	11	1
61	65	1
