20	54	4
155	156	9
74	83	2
182	183	4
157	157	4
48	48	8
27	28	4
97	98	3
91	91	4
182	182	3
126	126	3
133	133	4
31	35	7
25	25	9
152	154	2
15	15	7
112	113	5
136	136	6
141	144	2
96	97	6
39	39	5
143	144	4
103	103	10
115	118	4
184	185	3
142	143	1
120	121	3
146	170	2
30	32	1
13	13	2
178	178	4
47	47	6
110	110	5
152	152	9
150	150	8
79	81	1
35	35	1
0	0	2
147	149	4
6	6	6
10	11	1
20	20	5
26	28	3
121	122	6
108	109	2
131	131	5
83	83	2
137	138	6
44	54	2
123	125	3
119	120	1
123	123	7
121	121	7
114	114	4
128	128	14
143	157	4
161	162	3
2	2	15
26	26	4
23	24	2
56	56	9
72	72	3
92	92	1
142	142	4
59	59	1
99	139	2
97	97	2
69	69	5
145	145	4
68	68	7
112	112	6
77	78	2
33	33	2
179	180	3
84	84	2
65	66	5
182	185	1
91	94	3
4	42	1
118	118	6
94	94	9
158	159	3
177	178	2
99	99	8
92	94	1
149	149	2
164	165	2
108	108	6
87	90	1
124	124	1
114	115	2
116	116	4
80	81	4
110	120	1
106	107	1
44	62	2
86	86	6
111	113	2
142	157	2
130	130	4
122	122	5
176	177	8
184	184	2
42	42	4
135	135	6
108	114	3
157	158	2
79	80	1
142	166	3
162	162	3
93	93	3
155	174	5
38	39	1
22	22	3
102	102	4
64	64	2
97	127	1
132	132	2
172	173	1
110	111	3
187	187	3
66	66	3
150	151	4
28	32	2
62	63	2
163	163	1
164	164	7
183	187	1
115	115	2
160	160	3
47	48	3
127	128	2
124	125	4
154	175	1
55	56	1
75	75	3
28	28	6
11	12	1
3	3	3
98	98	1
158	158	6
60	134	1
73	121	1
139	139	3
172	172	1
136	163	1
41	41	6
87	87	14
61	61	5
111	111	7
138	139	4
24	24	9
21	47	1
53	54	2
160	161	4
4	6	4
31	31	1
77	142	2
14	14	3
103	127	1
17	18	1
82	105	1
170	175	1
159	159	2
38	38	4
181	181	2
67	67	2
127	127	1
179	181	4
60	60	2
18	37	2
173	173	5
96	96	3
151	154	4
24	26	2
29	29	4
85	85	5
62	62	3
71	71	4
27	27	5
18	19	1
79	79	7
80	83	2
91	104	1
89	90	1
161	161	1
106	106	3
134	138	1
35	36	1
153	154	1
89	95	2
20	21	4
174	175	4
30	31	1
40	40	4
6	82	3
32	32	1
19	19	1
140	140	5
9	10	1
127	129	5
115	116	2
125	126	3
175	175	2
144	144	1
133	136	2
107	107	5
117	117	3
1	2	2
10	20	1
8	8	1
178	181	4
88	99	2
57	57	1
78	79	1
136	137	3
153	169	1
87	93	1
95	95	7
153	153	2
156	158	2
82	82	2
147	147	1
134	134	2
148	148	4
53	60	1
10	17	1
107	120	1
152	153	2
53	53	1
157	167	2
5	57	1
57	58	1
103	104	1
0	2	1
134	135	2
155	157	2
162	163	2
108	110	2
166	166	1
88	88	3
141	141	2
118	119	2
21	22	1
90	90	5
127	135	1
4	45	1
99	134	2
47	54	1
4	20	2
113	113	1
55	58	1
84	85	3
117	120	1
80	146	2
100	100	1
130	137	2
104	105	1
74	75	2
59	64	1
45	45	3
109	110	1
86	106	1
125	125	2
76	77	2
32	33	1
85	106	1
30	44	2
82	92	3
70	70	1
13	14	1
86	88	2
91	93	2
54	54	2
109	113	2
110	112	1
186	186	1
15	39	1
88	90	1
91	92	2
107	108	2
142	154	1
130	131	1
165	165	2
106	121	1
143	143	1
89	89	2
7	7	1
75	76	1
116	117	2
66	69	1
95	106	1
23	23	1
60	93	1
11	37	1
5	5	1
137	137	1
158	160	1
