182	182	7
89	130	2
95	103	3
198	207	6
96	96	2
40	40	10
200	200	5
20	20	20
159	159	11
78	78	7
26	27	3
124	124	10
42	42	4
215	215	4
179	223	2
45	46	4
122	126	3
55	55	13
147	147	13
135	217	5
71	71	10
101	101	16
162	162	10
26	26	14
140	141	8
50	50	6
160	160	11
181	182	7
40	67	3
65	65	7
6	13	3
117	117	4
8	8	12
152	191	2
22	83	7
43	43	15
20	21	10
213	214	4
108	108	6
107	109	3
81	81	18
30	68	3
135	138	5
4	81	7
81	82	4
195	196	6
133	133	6
46	46	14
58	59	5
75	75	5
103	117	2
236	236	6
229	230	1
217	218	2
70	70	4
144	144	9
104	105	1
202	202	1
38	85	3
106	186	1
21	22	20
174	182	2
154	175	6
232	232	5
210	210	13
83	83	5
233	233	4
33	53	5
180	180	8
147	180	1
183	183	8
53	88	1
59	60	9
1	3	1
100	100	12
237	237	4
59	59	19
155	163	5
56	62	1
210	211	2
74	74	9
37	37	10
17	50	4
62	62	4
241	241	3
203	203	19
146	146	2
220	220	9
224	224	11
68	68	12
104	104	6
4	5	5
47	47	9
103	116	1
33	37	4
157	157	8
49	49	7
99	146	3
156	159	5
25	63	5
223	223	7
208	208	2
82	82	6
10	10	6
77	115	6
149	184	1
135	218	4
195	222	3
179	199	1
32	36	4
216	217	3
242	242	2
154	154	7
129	130	7
228	228	10
36	57	3
21	21	7
2	2	11
30	114	1
45	45	16
149	150	3
140	196	7
99	99	6
58	58	10
218	218	4
116	116	4
142	142	4
54	54	6
226	227	4
226	226	3
80	80	2
178	178	5
95	106	2
26	39	1
0	0	14
36	36	13
194	195	8
11	46	3
123	123	1
4	16	8
17	17	10
197	226	4
234	235	8
231	231	10
25	85	2
108	185	2
20	85	5
217	217	5
6	16	3
204	207	4
79	79	4
19	85	2
53	53	10
13	14	3
119	129	5
194	194	1
89	98	2
190	190	11
0	1	4
115	117	5
140	195	1
107	107	2
61	61	8
172	172	8
3	3	10
102	102	12
16	79	2
163	163	3
56	56	7
199	199	2
1	1	12
20	33	1
188	188	10
23	155	1
4	4	12
51	53	5
196	196	8
197	197	6
173	173	14
56	57	4
6	6	9
159	160	1
25	25	9
31	31	8
136	136	3
194	196	8
150	157	4
7	7	11
28	28	7
240	240	4
238	238	9
97	145	6
4	6	1
85	85	14
67	67	7
67	68	6
198	200	2
79	80	5
43	74	4
30	55	1
83	84	1
148	179	2
166	166	10
76	80	1
185	185	5
63	63	19
218	219	3
16	16	3
158	158	9
53	103	2
221	221	2
98	98	3
80	84	1
135	135	4
5	81	1
89	89	2
111	111	12
133	177	3
133	208	2
64	65	1
198	218	3
50	52	1
174	174	8
189	217	4
196	226	2
88	88	6
19	20	2
118	119	3
31	95	2
198	198	4
125	126	5
141	141	7
44	45	2
77	78	6
154	164	1
226	233	2
87	87	6
78	79	5
236	240	2
231	239	2
12	13	3
239	239	9
64	64	8
100	104	1
195	195	3
24	24	5
57	80	3
41	41	7
144	181	5
145	145	3
66	66	11
73	73	2
16	78	1
81	84	2
138	186	1
176	177	3
27	61	1
3	12	2
116	117	4
17	48	1
120	120	10
106	106	2
138	138	3
181	181	8
225	228	1
32	32	12
141	142	2
69	69	8
48	48	11
211	211	2
60	60	2
79	98	3
174	196	2
18	77	1
75	77	6
24	63	5
225	225	6
199	211	1
77	80	1
117	118	6
16	34	1
30	75	3
38	42	1
30	30	10
37	40	1
175	175	1
118	124	3
152	178	5
44	71	3
234	234	6
117	126	2
140	140	5
5	16	1
121	126	3
118	121	2
115	116	5
19	19	2
107	108	1
184	200	1
134	196	4
179	179	2
189	203	1
51	51	1
182	231	1
204	204	3
11	12	5
15	16	3
60	82	3
147	235	1
64	69	3
179	185	3
177	181	1
180	184	1
11	11	8
17	53	5
12	31	1
170	170	9
172	173	4
29	31	1
99	100	5
69	74	1
150	188	5
12	12	11
195	199	1
125	125	6
30	31	1
20	64	2
161	161	4
197	200	2
116	118	2
16	48	1
58	67	1
15	49	1
135	214	1
126	127	4
165	165	4
177	177	3
72	86	6
30	78	1
200	226	2
202	229	2
231	232	1
71	86	2
13	15	1
152	152	2
7	143	2
95	95	1
38	38	6
27	27	10
103	103	3
127	129	3
7	9	4
9	9	8
26	28	4
33	34	1
16	17	3
29	64	2
101	151	1
41	84	1
155	155	10
98	130	1
28	39	3
229	229	11
198	208	1
17	49	2
42	43	2
187	187	1
201	201	9
238	239	1
29	29	3
39	70	1
34	35	1
235	235	8
99	102	3
230	230	9
99	116	1
184	185	2
219	219	4
144	145	1
9	42	3
22	22	1
71	217	3
189	189	2
8	14	1
15	15	5
209	209	9
228	230	4
18	88	2
213	213	3
52	52	6
176	176	1
82	84	4
27	99	1
25	39	2
109	192	4
150	150	3
34	34	5
118	118	3
136	195	1
80	81	3
7	76	2
51	52	4
173	175	3
104	118	1
63	65	2
239	240	2
18	19	1
232	236	3
124	130	1
36	37	2
151	169	4
186	186	4
131	131	1
28	122	1
216	216	2
29	114	1
66	68	2
137	138	5
54	61	1
4	7	1
140	193	1
175	188	4
17	59	3
212	217	1
107	186	1
196	210	1
223	224	1
103	104	3
26	128	1
228	229	6
214	214	2
197	198	2
44	44	1
227	227	3
22	75	4
12	14	2
65	66	2
77	77	8
163	164	1
235	236	4
101	128	4
45	70	1
113	129	5
114	114	5
121	121	4
114	122	1
137	137	5
4	13	3
124	125	3
101	116	3
95	105	1
180	182	5
63	64	4
18	18	3
127	127	2
36	84	1
11	24	6
153	153	3
21	75	1
60	79	2
46	47	1
23	77	1
212	214	1
21	83	1
30	79	1
168	171	4
98	221	2
61	62	2
150	153	3
116	126	1
19	52	3
146	154	2
212	212	1
63	77	1
143	143	1
119	120	1
144	232	1
197	211	3
119	171	1
231	242	1
105	130	1
99	127	2
34	49	1
151	152	2
109	177	1
153	157	4
4	14	2
24	38	3
69	196	1
139	139	2
96	226	2
32	115	1
169	169	1
148	148	1
99	113	2
22	79	2
28	159	2
145	169	1
23	23	3
104	130	1
65	171	1
167	167	2
168	168	1
193	194	3
136	137	1
152	153	1
68	69	1
207	219	1
171	171	5
10	11	2
164	164	1
128	130	4
192	192	5
149	195	1
177	185	1
153	188	3
69	70	1
72	72	2
97	97	3
151	189	1
215	217	1
42	53	1
197	227	3
155	175	1
3	19	1
34	50	2
202	219	1
114	116	1
39	39	2
184	186	1
226	228	4
86	86	2
5	88	3
207	207	2
128	128	1
205	206	2
186	187	2
9	11	3
100	101	1
34	91	1
7	8	5
160	183	2
8	62	2
57	57	1
201	202	1
75	96	1
154	166	1
227	228	3
17	20	2
187	191	2
117	125	1
137	186	1
134	188	1
148	183	1
57	60	1
2	3	1
176	188	2
105	220	2
137	140	1
39	40	1
98	172	1
20	38	1
147	155	1
65	68	1
40	41	1
241	242	1
98	120	3
70	71	1
208	209	3
5	6	2
73	74	1
25	32	1
211	218	1
186	223	1
136	197	2
134	134	2
15	18	1
9	10	1
163	226	1
23	85	1
52	53	1
213	229	1
129	158	1
48	65	1
206	206	1
41	67	1
37	85	2
186	194	1
142	143	1
110	110	1
135	136	1
31	87	1
70	74	3
150	193	2
220	221	2
33	35	1
99	120	1
22	77	1
182	183	1
29	78	1
147	148	1
17	88	1
29	81	1
33	33	2
179	180	1
27	28	1
137	187	1
76	76	1
0	13	1
185	186	2
31	103	2
23	60	2
49	50	1
129	168	1
12	15	2
193	193	1
139	140	1
134	143	2
203	204	1
193	196	1
123	125	1
75	79	1
161	192	1
86	120	1
99	101	2
105	105	2
221	222	1
138	139	1
48	61	1
172	235	1
174	175	1
56	65	1
22	49	1
46	128	1
31	35	1
148	180	1
84	84	1
181	183	1
180	195	1
195	211	1
174	197	1
47	73	1
