27	28	7
58	59	10
91	109	1
178	178	7
53	53	2
62	62	13
174	174	3
31	90	1
122	124	3
184	184	3
158	158	2
143	143	3
59	59	3
78	83	3
72	72	10
106	106	2
169	173	3
31	31	6
23	33	3
44	71	3
74	74	8
87	88	4
140	170	4
136	136	5
34	34	8
112	119	3
120	120	8
76	76	14
19	19	7
94	94	4
116	117	4
46	46	12
95	96	2
138	138	8
77	77	10
140	141	8
88	89	2
157	175	2
60	60	6
126	126	14
136	137	4
16	16	13
48	48	4
45	46	4
127	127	13
14	14	9
186	186	3
133	133	2
127	128	1
18	20	2
121	122	1
182	182	2
8	38	1
130	131	2
110	110	5
122	122	7
19	22	3
100	100	7
20	20	6
58	58	2
77	78	5
18	19	5
41	41	9
177	177	2
3	3	4
55	55	13
78	78	5
79	79	5
52	53	3
68	68	6
159	159	3
125	127	4
132	132	4
66	66	15
81	82	3
63	64	4
32	33	3
144	144	6
71	71	14
112	112	5
14	16	2
17	34	3
162	162	5
90	166	3
111	111	11
124	124	6
57	57	8
69	69	8
12	12	11
137	138	3
4	4	7
54	54	5
17	24	2
19	20	4
65	65	14
104	105	5
156	156	7
88	90	4
93	94	3
73	115	1
106	107	1
80	80	7
2	2	7
168	168	1
97	97	5
98	98	5
91	98	2
5	6	1
130	130	1
131	132	1
151	151	5
171	172	8
103	108	2
4	5	3
178	179	6
74	106	4
122	123	8
81	81	3
109	110	5
73	75	1
92	120	2
27	31	3
187	190	4
105	107	1
15	15	2
128	139	1
174	175	4
12	13	11
97	98	2
113	116	5
4	26	4
145	145	7
179	180	3
83	101	2
84	84	6
17	22	1
158	160	2
9	15	3
173	174	2
5	8	1
159	160	3
84	85	4
105	105	5
9	9	3
10	10	5
45	45	12
96	133	6
24	24	9
41	42	1
129	129	9
183	189	1
35	35	7
10	11	3
98	101	2
18	18	3
75	75	11
53	58	6
70	70	9
10	38	2
188	188	2
28	28	9
147	147	6
137	137	7
0	0	1
171	174	1
77	87	1
15	16	2
38	38	7
74	76	5
37	37	3
11	11	13
15	21	1
170	174	2
143	145	1
1	1	3
26	73	1
65	79	1
85	85	10
21	22	2
100	111	2
7	7	4
43	43	1
138	139	4
104	104	5
108	189	2
52	52	8
190	190	7
40	40	6
75	76	6
134	134	3
123	125	4
114	115	6
163	163	4
131	131	3
72	73	7
107	118	2
12	14	2
28	69	4
29	33	6
111	112	2
83	125	1
16	17	3
38	39	4
63	63	5
100	101	1
4	6	2
125	125	13
188	190	3
179	179	2
117	118	3
30	33	2
82	82	2
64	81	2
109	171	2
4	25	4
101	102	3
83	84	1
47	47	8
86	86	4
73	73	5
34	35	8
17	17	4
123	123	5
92	92	3
6	6	3
83	102	1
121	123	2
103	103	5
23	24	7
147	148	5
128	128	2
44	44	2
66	67	1
22	30	1
80	108	2
121	121	6
19	56	4
62	77	3
5	10	1
53	55	2
76	106	1
104	106	4
130	132	2
56	56	7
107	108	3
96	96	7
158	177	2
167	168	2
76	79	3
102	103	2
5	5	7
89	89	9
0	2	2
152	153	2
88	88	6
77	86	2
74	75	3
164	164	5
29	29	6
154	154	2
128	129	5
166	166	6
108	108	1
1	2	1
13	13	3
105	147	4
145	149	2
99	100	4
149	149	8
161	163	1
55	56	2
164	165	4
35	41	5
19	21	1
13	14	4
95	95	9
13	15	2
23	25	6
36	37	2
81	112	2
7	39	2
83	83	3
132	134	3
175	175	1
21	21	6
170	170	1
109	118	3
23	44	4
6	8	4
68	79	1
45	72	4
137	169	4
146	146	4
124	126	1
153	153	3
34	37	1
40	41	1
129	144	2
126	127	2
134	135	2
25	25	4
148	148	3
23	23	6
26	26	1
181	181	1
127	129	2
141	141	1
168	170	3
35	37	2
162	163	1
4	24	4
22	22	2
161	161	1
149	150	3
175	176	2
172	173	1
0	1	1
7	36	3
116	116	4
11	21	2
101	101	5
92	119	1
176	176	1
76	103	2
115	115	3
114	114	1
124	141	2
187	187	3
177	178	3
71	72	1
112	113	3
90	90	5
96	97	1
6	87	2
140	140	2
158	161	2
17	19	1
172	172	1
56	57	1
48	82	1
113	113	7
161	162	3
44	45	1
33	34	2
8	36	1
78	86	2
173	173	4
155	155	4
77	83	1
166	169	1
9	13	3
96	98	3
54	55	2
67	68	1
100	133	1
185	185	1
154	179	1
32	32	3
16	25	1
67	67	1
8	74	1
96	99	1
94	167	1
32	34	2
5	25	1
141	142	3
188	189	1
89	120	1
12	72	1
65	67	2
65	66	2
4	23	1
62	63	1
33	35	1
0	24	2
42	42	1
3	7	1
70	71	1
91	114	1
121	142	1
35	36	1
52	58	2
108	109	1
141	143	2
62	65	1
164	171	1
91	93	2
33	33	1
186	188	1
6	7	2
118	118	1
135	135	2
44	47	1
180	181	1
14	73	1
159	174	2
139	139	2
14	15	1
13	26	1
11	15	1
137	164	1
