146	147	4
102	114	1
191	191	7
48	49	2
90	90	8
101	102	2
100	100	3
175	175	8
36	36	6
94	94	7
21	23	2
160	171	1
171	171	14
159	159	8
11	79	4
64	64	3
49	49	4
138	148	3
111	111	11
11	11	5
47	47	7
124	128	2
107	107	3
120	120	2
163	163	3
87	88	1
104	104	9
87	87	6
69	71	3
45	45	5
116	117	3
172	172	12
48	48	6
157	157	14
187	187	12
141	141	10
18	18	8
128	131	1
34	34	1
0	0	5
28	28	14
95	97	4
22	111	3
136	136	8
110	110	9
184	184	7
54	54	16
85	88	2
16	25	5
139	139	3
194	194	1
65	65	9
190	192	4
146	146	1
5	6	4
181	181	14
38	39	4
115	115	7
181	189	3
15	23	2
190	191	5
122	122	2
52	52	10
53	53	20
124	126	1
187	188	6
3	4	7
173	173	16
103	110	3
131	131	10
112	112	17
21	22	1
17	17	3
69	69	1
151	151	5
145	145	3
89	89	5
197	197	10
150	150	11
16	16	10
177	177	8
39	39	7
12	12	8
134	135	1
195	195	17
96	96	4
153	154	3
170	170	7
193	193	1
50	50	4
186	186	8
162	166	2
154	158	5
20	20	11
5	30	2
2	19	2
195	196	4
162	162	7
153	155	4
51	63	3
13	13	4
109	109	2
105	111	4
126	126	10
102	103	2
119	119	8
109	111	6
104	107	2
158	158	4
20	21	2
34	36	1
21	21	5
19	19	5
23	23	6
71	72	3
66	76	2
152	152	2
114	115	3
146	157	3
42	42	4
144	144	6
114	114	7
168	168	6
182	183	3
84	85	4
2	26	1
183	184	2
165	166	11
184	190	1
130	150	3
189	189	16
42	78	2
14	14	4
18	19	3
119	140	2
43	43	4
134	140	1
169	169	3
155	156	3
23	24	2
22	22	7
174	175	7
118	118	8
121	121	8
46	183	2
0	22	5
15	15	3
22	23	1
132	133	2
3	38	2
179	180	2
100	120	1
70	70	5
149	149	8
186	194	3
108	166	1
55	56	8
134	134	7
10	10	17
2	2	5
168	170	1
165	165	6
79	79	5
176	177	7
98	99	4
39	43	3
93	93	6
28	29	7
37	37	4
4	4	4
115	116	6
140	140	3
150	161	3
159	160	1
109	112	3
83	85	2
181	182	2
143	143	4
123	123	1
33	37	4
133	141	1
42	86	3
180	181	1
19	21	6
69	70	1
59	59	5
126	127	1
170	171	5
89	94	2
150	152	5
144	145	2
81	82	5
174	174	8
148	148	5
25	25	3
5	33	1
141	142	1
73	74	2
73	76	2
71	71	6
108	108	8
56	57	1
196	196	7
168	169	1
58	61	4
140	141	4
127	127	2
147	147	7
117	117	2
170	186	1
120	121	1
153	153	8
101	101	2
145	159	2
125	127	1
108	117	2
99	136	3
142	142	1
7	26	1
36	37	3
102	161	2
180	188	3
154	154	1
33	33	3
109	180	2
161	164	4
83	83	5
47	129	2
26	26	5
0	21	1
161	165	1
109	110	4
98	98	1
98	177	1
116	118	2
29	33	4
192	192	2
10	11	5
184	185	2
41	41	1
164	164	5
122	123	3
155	155	1
155	171	1
182	182	3
32	32	1
112	113	1
119	120	6
190	190	8
113	113	4
176	176	5
139	140	1
42	155	1
58	58	3
3	7	1
85	86	1
166	166	6
73	75	2
103	104	3
38	43	2
147	154	2
156	156	2
103	105	2
147	153	1
191	193	2
84	84	1
124	124	3
72	83	3
13	113	1
15	187	1
120	138	2
88	89	4
105	115	3
7	68	2
9	11	2
132	132	3
59	60	3
7	8	4
185	185	4
3	3	6
128	129	2
192	193	3
44	44	1
97	98	6
178	178	4
123	124	3
125	125	3
100	101	1
63	63	2
172	179	2
172	174	2
42	156	1
59	61	3
101	153	1
24	189	1
7	19	2
83	84	3
188	188	3
8	9	2
125	128	3
34	35	3
127	128	5
109	181	3
155	165	1
129	129	5
0	1	1
38	38	4
137	137	2
6	7	1
76	76	2
99	178	1
117	119	2
133	133	4
5	5	4
49	50	3
157	160	2
101	108	1
179	181	1
78	78	4
124	131	2
37	38	2
130	132	2
127	130	1
189	190	1
81	81	2
104	110	3
151	152	4
29	29	1
114	149	2
131	132	2
121	122	2
107	108	2
180	180	7
56	56	5
101	114	1
57	58	2
146	154	1
116	116	4
143	144	1
150	165	1
5	31	1
59	78	2
128	128	3
185	186	2
107	116	2
105	105	1
102	118	3
119	136	2
93	94	3
160	160	2
69	72	3
103	111	1
15	16	2
99	99	1
62	66	2
55	55	2
20	143	2
32	33	2
155	159	1
0	20	1
78	79	1
40	40	1
7	21	1
163	164	1
183	183	6
154	155	3
113	114	2
68	77	1
95	95	1
9	9	1
45	46	2
156	157	1
169	186	1
132	155	1
97	97	2
31	31	1
77	77	1
65	66	1
112	118	2
18	26	3
174	176	3
150	151	2
111	127	1
175	176	3
101	103	1
105	114	1
31	47	2
31	38	1
43	86	1
117	118	1
9	52	2
135	135	2
60	62	1
1	4	1
138	138	2
183	185	1
115	172	1
103	117	1
19	22	2
134	137	1
77	79	2
72	73	2
13	124	1
133	176	2
142	145	2
113	116	1
100	122	1
7	7	2
35	35	2
35	36	1
3	37	1
161	161	2
159	186	2
66	66	1
124	149	1
102	102	2
5	18	1
111	169	1
30	30	1
143	172	1
72	72	1
51	51	2
157	158	1
7	61	1
22	181	1
110	169	1
37	56	1
173	174	1
179	179	1
37	43	1
58	62	1
152	171	1
12	16	1
124	150	1
102	104	1
52	58	1
5	17	1
106	106	1
33	34	1
16	27	1
131	150	1
1	1	1
144	153	1
168	179	1
3	18	1
8	8	1
6	6	1
