4	12	4
122	125	2
40	40	9
218	218	6
8	9	6
242	242	8
150	151	10
156	158	7
121	121	3
51	52	8
105	106	2
134	142	2
189	189	3
26	26	12
0	0	12
182	190	1
34	35	2
59	59	8
209	209	4
237	238	7
74	74	9
16	16	7
64	68	2
45	45	4
185	185	6
27	27	14
137	137	6
184	186	2
2	12	4
17	17	5
77	83	4
192	195	3
47	47	11
66	67	9
184	184	4
16	129	8
182	194	5
219	219	4
71	101	3
20	180	7
60	63	6
32	38	1
18	20	3
172	172	6
12	13	6
80	80	7
20	20	8
133	134	2
165	188	2
147	149	5
106	106	4
35	35	5
147	147	6
100	104	3
50	50	3
3	15	6
99	99	3
171	171	5
206	206	7
60	62	3
149	149	5
213	213	1
155	155	3
239	239	9
124	124	3
208	208	8
31	31	4
16	126	5
161	161	3
48	48	9
65	65	6
49	56	1
128	128	6
233	233	8
21	21	3
185	187	4
113	113	5
187	215	3
156	170	2
162	162	2
183	193	2
223	223	6
12	16	2
175	180	4
195	199	1
55	55	12
200	200	3
57	59	2
13	20	3
123	124	9
211	211	23
59	60	5
24	56	2
168	169	3
212	212	7
57	57	3
137	167	6
140	166	2
183	183	4
170	171	4
182	182	13
13	13	4
207	209	5
39	39	7
160	162	5
2	125	1
178	180	2
144	144	7
81	81	11
15	15	9
6	34	3
70	70	5
162	163	4
216	216	8
113	114	2
122	123	2
168	168	8
171	223	1
35	36	1
175	211	1
60	60	14
14	15	7
78	84	3
236	238	2
80	82	2
196	196	4
202	202	1
83	84	3
69	69	13
6	6	6
16	20	3
207	207	12
175	175	2
77	79	9
88	108	3
5	7	1
25	25	7
73	73	6
7	7	4
71	71	2
3	3	3
205	222	8
229	230	8
238	238	2
146	147	4
50	55	2
35	37	4
69	71	2
61	61	4
158	162	4
234	234	2
160	160	2
53	175	2
40	43	7
214	215	5
236	236	2
152	152	9
102	103	2
58	59	4
196	203	1
101	102	3
145	146	5
176	193	3
144	147	2
166	166	6
46	46	15
4	6	7
25	26	5
235	235	10
77	84	6
199	201	5
154	154	5
39	50	4
37	126	2
75	76	6
164	165	3
34	38	2
3	23	3
227	227	8
117	117	4
203	203	7
39	43	1
41	41	2
85	86	4
84	84	8
68	68	2
240	241	4
197	200	2
159	159	5
56	56	2
19	19	5
177	177	11
118	119	10
30	30	9
187	187	4
143	143	5
57	58	2
202	219	6
181	182	6
136	137	2
205	205	6
49	80	2
43	43	8
124	127	1
151	152	3
234	235	3
198	218	2
83	83	3
124	181	3
183	187	1
186	188	9
177	192	3
9	10	1
150	155	2
163	187	1
191	191	6
225	227	1
120	120	8
137	138	5
209	211	2
237	237	6
232	233	1
133	133	1
34	34	4
62	63	5
26	28	2
150	150	6
170	170	1
184	185	4
24	25	4
100	100	7
139	140	4
180	190	2
10	10	5
9	174	1
173	173	1
136	138	2
4	7	4
7	9	3
226	229	1
229	229	3
171	243	2
158	163	6
75	75	1
39	42	4
200	218	1
115	115	1
16	18	1
111	113	1
214	214	5
30	31	3
11	11	4
103	103	4
215	215	9
169	169	5
201	201	7
13	17	8
220	220	4
196	199	5
138	139	2
182	184	2
238	239	1
120	125	2
123	125	2
178	178	2
167	169	5
153	153	3
155	158	3
224	224	4
2	2	2
0	29	1
104	104	3
18	19	3
107	109	2
236	237	1
97	105	1
75	77	1
63	63	6
130	171	2
29	29	8
132	163	1
81	82	7
217	217	6
153	154	8
158	161	3
32	32	6
190	190	4
159	186	4
112	112	2
194	194	4
167	168	1
2	30	2
103	117	4
27	28	4
3	30	2
77	78	2
65	66	3
160	161	4
234	237	3
204	205	1
203	217	1
33	33	3
1	1	2
171	221	1
127	130	1
184	189	2
2	33	1
39	40	5
58	58	3
215	217	3
54	54	6
136	136	2
72	72	4
66	66	4
21	125	2
56	80	3
231	231	4
73	74	5
78	78	3
56	57	5
1	20	5
148	148	4
9	218	1
228	229	1
116	131	2
226	227	5
184	187	2
165	186	1
26	72	3
26	29	1
50	54	1
76	76	2
197	198	5
228	228	6
58	78	1
77	77	4
14	14	5
52	52	8
186	186	1
122	151	2
152	153	3
10	11	3
82	82	2
172	174	5
22	23	5
98	99	3
71	74	2
40	41	1
8	24	1
67	67	8
140	140	2
159	160	5
230	230	3
143	146	2
19	21	1
9	9	1
104	115	2
53	54	2
198	198	4
241	241	4
33	36	2
217	218	2
225	225	7
73	75	2
28	29	2
108	119	3
119	119	2
82	83	1
119	120	2
164	164	1
145	145	8
24	24	4
37	37	4
14	16	2
20	37	1
37	84	2
216	223	1
139	139	3
86	86	1
140	141	3
205	221	1
13	18	1
76	77	2
6	7	1
56	81	1
226	226	1
224	225	3
121	126	4
133	135	5
20	21	1
80	81	2
44	45	4
174	204	2
208	210	2
43	112	1
215	216	2
50	51	1
6	38	1
182	188	2
11	13	1
8	10	1
156	157	1
118	118	2
128	178	2
208	209	2
125	127	1
1	15	1
101	101	4
23	31	2
60	61	1
137	139	2
96	97	2
15	21	1
4	34	1
147	148	1
84	85	1
159	165	4
156	159	1
174	175	1
137	166	1
88	89	1
1	23	2
218	219	2
67	68	1
203	219	3
157	158	1
41	42	2
131	131	1
210	210	2
38	38	3
209	210	2
183	185	1
199	200	2
130	206	2
157	157	2
12	12	2
6	8	2
123	153	1
224	226	2
194	195	1
108	108	1
59	91	2
148	149	2
0	1	1
112	113	1
71	72	1
173	176	1
22	30	1
20	25	1
104	117	1
220	221	2
155	156	1
143	148	2
110	110	3
135	135	4
25	81	1
8	8	1
24	55	2
65	68	1
180	180	1
215	223	1
64	64	1
127	127	2
12	14	1
143	166	1
59	86	1
4	5	1
62	62	1
151	151	1
205	211	1
33	34	2
80	130	1
203	221	1
8	122	1
10	20	1
240	243	1
79	79	1
134	167	1
181	188	1
97	97	3
128	130	1
105	105	1
138	138	2
31	32	2
53	53	1
142	142	3
174	174	1
0	21	1
105	110	1
210	213	1
135	139	1
146	146	1
20	23	1
157	159	1
182	193	1
123	123	1
179	179	1
180	181	1
51	53	3
85	85	1
55	56	1
100	101	1
69	72	2
1	45	1
115	116	1
136	168	1
154	156	1
5	8	1
7	12	1
158	160	1
114	119	1
216	224	1
44	44	1
199	199	1
52	54	1
134	134	1
131	134	1
145	148	1
188	188	1
