3	4	6
59	60	13
34	38	6
44	44	21
58	59	15
42	45	4
69	69	17
33	33	23
27	28	3
71	71	18
23	23	22
4	4	21
57	57	13
7	7	24
29	51	1
51	52	6
5	6	21
12	12	21
62	62	18
53	53	10
46	46	14
60	64	5
19	19	14
5	5	32
3	6	4
45	45	27
24	24	9
49	49	17
43	43	26
28	41	3
47	47	8
22	22	24
53	63	6
49	50	22
37	37	8
4	5	7
2	2	8
70	70	16
63	64	13
25	25	12
76	77	1
41	41	23
38	38	14
76	76	22
68	70	3
50	50	17
36	37	4
0	0	25
65	65	10
29	29	14
10	10	28
18	28	6
13	13	19
49	51	8
40	40	23
60	63	4
13	62	4
37	38	8
26	47	4
54	54	18
30	30	11
11	11	14
36	36	8
35	35	18
6	8	2
57	58	8
9	10	5
29	32	5
55	55	20
67	67	19
25	27	8
21	21	10
18	22	2
1	1	27
26	27	4
28	50	4
67	68	6
56	76	5
0	5	5
22	23	24
61	61	21
30	39	1
30	40	10
27	27	7
64	68	1
34	35	6
66	66	6
13	14	14
32	37	2
41	61	1
75	75	12
19	20	19
31	57	4
52	52	25
27	69	7
24	26	4
72	72	12
56	56	18
31	31	6
31	51	1
72	77	4
63	63	8
42	65	1
37	39	10
3	3	15
75	76	2
38	39	2
33	34	6
23	24	6
18	19	2
68	68	15
11	12	8
41	42	3
42	42	15
25	29	5
41	45	6
34	64	5
60	67	4
67	72	2
67	69	1
6	6	13
60	60	10
19	38	2
57	64	1
52	53	7
14	14	11
48	49	3
31	38	1
34	34	23
42	47	1
48	48	18
35	36	22
2	77	4
59	77	4
39	57	9
50	51	8
51	51	16
24	44	3
60	61	4
8	8	5
49	52	1
61	76	2
58	58	13
62	69	3
64	64	14
74	74	10
2	3	4
50	53	3
9	9	13
28	29	6
73	73	10
57	76	5
30	50	6
66	67	9
65	66	8
21	22	1
28	28	2
54	55	4
48	51	1
59	59	18
41	67	1
65	67	1
26	26	9
28	73	5
45	47	6
48	52	2
35	38	2
8	9	8
14	24	1
27	68	3
11	13	1
53	64	2
29	30	6
18	18	4
7	8	4
24	25	2
12	15	2
27	53	1
30	31	8
20	20	7
63	72	3
43	44	6
26	53	8
26	54	5
31	36	2
58	61	2
30	41	2
45	46	3
42	43	4
21	42	1
1	3	2
22	48	5
35	37	7
74	77	1
75	77	1
69	70	4
77	77	5
39	40	10
53	59	5
22	26	1
41	43	1
64	66	3
52	54	4
64	72	4
32	32	16
52	66	2
64	65	3
8	11	2
11	70	2
3	5	2
25	26	4
70	71	5
61	69	1
14	15	2
32	44	2
59	63	2
8	26	1
60	68	2
70	75	1
62	63	2
51	57	3
74	75	3
3	76	1
29	40	2
58	72	2
53	54	1
59	75	1
24	29	1
63	66	1
27	29	2
24	28	2
49	56	2
28	66	1
36	38	2
71	76	1
34	36	1
54	66	3
45	57	1
41	44	2
14	62	1
0	2	2
51	63	1
31	58	2
48	57	1
44	47	2
32	35	3
29	48	3
20	21	1
47	48	1
48	63	2
57	59	1
25	54	1
10	11	4
72	73	2
68	69	4
72	74	2
30	42	1
27	40	5
61	65	2
30	53	1
39	39	2
73	74	1
45	56	1
9	11	2
56	57	4
55	71	2
52	57	1
28	40	1
33	65	1
42	48	2
28	68	1
62	72	2
30	58	2
39	43	2
32	33	1
42	55	1
50	64	2
7	28	2
62	64	1
44	45	2
1	5	1
45	68	1
25	28	1
38	44	3
69	74	1
13	59	1
5	12	2
53	62	1
12	61	2
32	40	1
34	72	1
31	32	1
24	48	1
61	68	1
32	34	1
35	73	1
