17	17	5
78	78	9
76	77	8
112	112	2
7	8	3
4	9	1
69	69	9
24	35	1
66	66	7
58	58	2
100	101	1
131	133	2
33	33	7
31	32	4
41	42	4
134	134	4
56	56	7
22	22	7
69	78	2
36	37	1
31	31	2
141	141	6
132	132	11
21	21	2
83	87	2
110	113	1
124	139	5
132	133	12
52	52	1
75	75	10
55	56	10
48	53	3
25	25	5
120	120	7
110	123	1
117	120	2
122	122	2
13	13	4
24	40	1
117	119	2
38	38	14
93	93	3
41	41	2
71	71	13
77	79	3
68	68	12
14	15	8
15	15	5
135	135	10
101	101	1
6	64	1
107	107	3
57	58	2
64	66	2
24	25	4
27	27	3
127	138	8
37	39	2
65	65	5
130	130	25
9	10	9
97	97	12
144	147	1
152	152	5
24	24	14
48	48	16
29	29	5
53	55	6
73	87	4
84	84	8
103	105	6
23	23	8
114	114	3
55	55	1
116	116	6
20	20	9
37	40	1
53	53	13
44	44	12
80	81	1
15	17	2
30	52	1
134	138	2
57	57	9
69	70	3
98	113	3
115	115	5
46	46	17
47	153	2
77	77	13
79	79	2
8	8	6
118	118	7
45	45	6
149	151	5
67	67	7
34	35	1
22	23	3
43	43	6
71	77	1
99	99	14
85	88	2
151	151	8
10	11	4
26	26	4
145	146	3
75	76	11
14	14	8
108	109	6
10	10	8
113	113	8
128	131	1
103	104	1
124	125	2
119	119	1
13	14	1
50	50	5
150	150	8
12	12	8
150	151	1
154	154	10
63	63	3
76	76	9
104	104	4
36	36	6
67	68	7
9	9	18
72	73	3
127	127	7
44	46	2
45	46	3
96	97	2
80	80	7
49	49	6
131	131	8
54	54	6
35	35	6
70	70	5
142	143	4
147	147	8
124	154	4
78	79	2
100	100	3
103	113	3
62	63	3
42	42	7
139	141	2
25	26	2
115	117	3
50	51	3
96	96	6
40	40	17
143	143	4
11	11	4
92	93	3
137	137	3
31	52	1
23	24	3
84	85	3
19	19	6
76	90	2
82	82	1
123	123	9
13	24	2
30	30	5
97	98	3
111	111	2
35	37	2
153	153	3
38	39	2
100	106	7
87	129	3
90	90	6
81	98	4
104	110	7
20	42	1
130	131	7
18	24	4
121	124	1
85	99	3
85	85	6
17	36	2
5	5	3
37	37	7
81	81	3
143	146	4
49	58	4
138	142	2
37	57	4
69	71	1
102	128	1
126	128	2
110	111	3
127	132	1
56	58	1
18	18	6
129	130	1
65	66	6
136	136	5
104	122	4
74	85	1
38	40	2
128	128	5
73	73	6
110	112	3
118	121	3
74	86	2
120	130	3
6	49	1
26	39	1
132	134	5
64	65	1
47	47	9
108	108	2
91	92	5
109	109	3
88	88	4
94	95	1
16	16	9
4	4	4
94	94	6
48	56	4
98	99	3
20	44	3
110	110	3
15	16	2
39	39	3
9	24	4
136	137	3
82	84	2
117	117	1
3	56	1
147	148	2
105	106	2
74	77	2
103	103	7
67	100	3
102	102	11
34	57	1
8	12	1
7	7	4
29	40	1
124	143	1
121	122	2
3	3	1
17	31	3
6	6	2
34	34	5
87	87	2
70	71	3
73	128	1
122	123	4
48	49	3
129	129	9
39	40	3
35	36	1
20	21	2
142	144	1
109	110	4
17	18	7
140	140	2
143	144	1
62	62	9
146	146	3
142	142	2
144	144	2
107	115	2
64	64	5
83	84	4
81	82	2
16	46	1
25	27	2
53	56	1
117	118	4
144	146	2
18	19	2
83	83	4
86	86	3
92	92	12
144	145	1
66	67	1
72	74	1
21	23	1
49	52	2
7	13	1
40	44	2
74	75	1
72	72	2
112	113	2
95	98	2
37	38	3
77	78	2
33	34	3
21	22	1
133	135	1
124	124	3
107	117	1
68	72	2
148	148	3
28	28	5
32	33	2
34	37	1
132	151	3
13	19	2
124	127	1
106	106	3
56	57	1
114	133	1
7	79	2
9	37	1
69	76	3
73	75	1
114	135	2
26	28	2
93	94	1
13	16	3
120	121	2
24	27	1
15	20	1
19	24	1
125	125	1
43	44	2
87	89	3
110	122	2
133	133	3
6	8	2
122	144	1
19	20	2
32	34	2
149	149	3
14	39	1
55	61	1
77	82	1
145	148	3
63	65	1
130	134	1
138	143	1
55	81	1
133	134	2
73	99	1
37	47	1
123	124	1
84	92	1
128	129	1
130	133	1
47	48	2
99	109	1
96	114	1
45	47	1
22	25	1
46	100	1
97	99	1
95	102	1
53	54	1
