48	48	14
113	113	15
48	50	4
55	57	6
22	22	18
63	69	1
21	21	18
89	89	17
24	61	2
86	86	7
24	24	5
82	82	9
93	93	3
72	77	3
95	95	11
53	58	8
96	96	4
27	29	3
79	79	14
75	75	11
97	99	1
88	90	4
70	91	1
33	34	4
42	43	3
69	69	13
55	56	5
30	31	5
49	49	6
58	61	5
101	102	12
26	57	2
68	68	15
42	42	3
111	112	5
71	85	4
39	40	7
46	50	1
76	77	10
102	102	8
34	34	12
62	70	2
74	74	14
32	34	2
90	90	10
69	70	1
45	45	11
109	110	11
29	29	17
97	100	3
44	44	5
53	53	20
112	112	11
19	19	4
43	43	9
90	91	5
20	22	2
47	47	10
79	80	4
75	77	6
66	67	9
93	107	3
43	46	1
35	35	10
30	30	9
49	52	3
85	86	7
40	41	4
111	111	18
81	81	2
83	84	6
75	76	3
58	58	8
22	23	3
23	23	5
84	84	1
38	38	8
92	92	5
97	97	9
68	69	5
54	54	5
78	78	8
60	61	3
91	92	3
73	73	9
77	87	3
51	52	7
65	65	7
46	46	8
66	66	2
67	68	4
22	24	1
89	92	1
86	95	2
103	103	9
103	104	7
41	41	7
31	31	8
100	100	8
70	73	1
87	92	4
59	59	7
81	82	4
102	103	2
73	74	12
62	63	1
33	39	3
94	94	4
76	78	3
77	79	1
29	30	5
83	83	12
110	110	3
86	87	5
34	36	3
25	28	1
85	85	7
112	113	3
59	60	4
47	51	5
104	104	2
106	107	4
75	104	1
33	33	5
37	37	3
38	39	3
23	24	3
28	29	3
45	46	9
69	73	1
26	26	7
36	36	8
76	103	3
68	73	1
80	101	2
77	90	4
80	80	11
98	98	6
62	66	4
76	76	22
71	72	1
61	62	5
41	42	1
91	91	5
46	51	3
91	102	2
109	112	5
85	87	2
98	99	1
82	83	2
87	91	2
56	71	1
32	35	1
25	27	5
105	111	2
63	65	3
53	57	3
28	28	2
56	109	1
47	48	11
110	111	8
65	71	1
64	65	2
80	106	2
77	77	6
72	72	7
107	108	3
70	70	7
30	37	1
57	61	1
103	106	1
25	58	2
43	44	4
92	93	2
60	62	1
88	92	1
61	69	2
105	106	3
108	108	3
96	97	4
50	52	5
38	40	2
99	99	3
56	78	1
79	88	1
104	105	6
68	74	1
67	67	7
87	87	4
76	106	4
83	102	1
40	40	6
35	37	1
20	21	1
40	42	1
64	64	1
54	56	4
101	112	3
32	33	4
95	96	2
56	57	4
52	52	6
60	63	1
45	47	2
57	76	1
42	45	2
109	111	1
99	100	3
69	111	1
74	75	2
81	84	2
25	29	1
62	62	2
73	83	2
57	59	1
67	69	2
65	67	3
91	94	2
91	93	3
52	53	3
96	101	1
101	101	7
47	49	3
63	63	2
27	27	1
71	75	2
44	45	5
51	51	3
80	102	2
56	107	2
69	113	2
73	79	2
56	56	2
79	109	1
73	75	2
87	89	3
37	38	1
79	110	3
64	71	1
35	87	1
103	107	1
108	109	3
42	44	1
93	95	2
63	67	2
88	88	2
27	60	1
78	108	1
48	49	1
61	74	2
71	71	3
35	36	1
88	89	1
111	114	2
74	99	1
102	109	3
45	49	1
72	74	1
85	92	1
97	98	1
57	78	1
74	83	3
33	35	3
71	96	1
65	72	2
47	53	1
20	20	3
29	31	1
32	32	1
24	91	2
72	73	6
55	62	1
80	92	1
39	48	2
103	105	1
79	111	2
79	91	1
113	114	2
79	81	1
104	106	1
83	105	1
78	88	1
106	106	1
114	114	1
64	105	1
69	76	1
70	110	1
22	53	1
91	108	2
98	100	2
82	105	2
50	85	2
106	108	1
67	82	1
65	66	1
40	43	1
115	115	1
90	93	1
30	32	1
40	44	1
82	85	1
99	102	1
21	22	1
