217	217	7
34	34	10
173	173	6
20	20	18
161	202	1
204	204	5
28	28	13
56	56	16
44	44	7
19	19	6
42	42	14
158	158	10
234	234	6
98	98	7
33	33	2
19	20	10
113	113	4
171	171	4
162	162	5
96	96	7
109	111	3
3	33	2
40	40	8
121	121	6
145	145	1
46	47	1
18	18	5
39	85	1
192	192	4
82	83	5
115	115	11
17	17	11
20	35	2
171	173	1
75	75	2
128	128	3
165	165	2
208	208	6
8	8	11
62	62	7
85	86	4
232	232	9
120	120	4
16	16	13
102	102	25
2	8	2
30	30	12
76	76	7
16	59	2
45	45	4
119	119	2
65	91	3
99	99	11
177	177	9
104	104	7
148	148	6
0	1	3
133	134	2
43	43	17
83	84	2
14	21	3
239	240	4
10	11	2
21	21	5
104	106	3
103	104	6
233	233	1
64	64	4
56	57	3
138	138	13
75	77	2
194	194	6
217	218	1
146	146	1
105	105	9
15	33	2
190	191	3
148	149	10
218	218	3
38	38	12
78	78	7
100	100	15
166	166	18
133	133	6
220	220	14
241	241	4
80	80	8
46	46	13
176	177	3
228	228	7
205	205	5
62	64	7
160	197	4
136	137	3
235	235	3
191	201	2
80	84	2
140	163	2
65	68	3
9	9	14
77	81	5
210	210	4
80	116	1
17	21	4
206	206	5
118	130	3
4	5	1
159	159	3
141	141	2
23	23	8
59	59	13
167	167	10
80	90	1
173	174	5
180	180	12
9	10	1
25	57	1
52	52	2
134	134	7
242	242	7
38	39	5
70	71	5
102	118	2
70	70	7
135	135	8
37	79	3
55	56	4
7	8	12
71	191	1
164	165	3
81	116	2
103	103	17
235	236	2
228	229	2
219	219	3
71	71	10
229	230	1
189	209	1
85	85	8
223	223	9
2	2	5
48	78	1
62	63	3
72	99	2
140	146	1
55	55	7
37	37	5
15	18	2
11	37	4
151	151	3
116	116	11
24	33	5
16	34	3
31	31	6
185	187	3
213	214	2
227	227	7
2	30	3
216	216	6
200	201	5
207	207	6
69	69	8
152	170	1
156	170	6
88	89	4
48	48	7
50	62	3
125	125	2
139	139	5
22	23	6
82	84	1
146	147	2
53	53	11
26	26	7
58	58	8
174	174	9
196	200	3
47	228	4
161	161	5
9	15	3
118	125	1
108	116	3
47	49	1
197	210	4
13	13	7
15	15	4
231	231	6
176	176	7
180	187	3
57	57	3
27	28	3
21	22	2
25	25	8
199	200	2
127	127	3
82	82	4
149	149	9
172	183	4
86	86	3
96	97	3
73	86	2
212	215	3
175	175	9
209	210	2
117	130	3
150	202	7
67	67	7
143	144	2
81	81	9
25	46	1
76	78	1
66	67	3
154	157	1
203	203	2
58	60	3
16	18	2
140	141	3
53	61	1
150	151	2
167	169	2
157	159	5
153	155	2
61	61	6
101	135	2
223	224	1
85	89	1
141	180	4
201	201	3
19	47	4
11	20	1
155	170	4
126	126	4
160	160	5
136	136	1
117	117	2
134	159	2
98	101	4
131	131	3
161	183	3
236	236	6
180	182	3
58	59	3
22	22	9
170	170	4
123	123	5
236	238	3
38	79	1
50	88	1
144	144	1
189	189	3
190	190	2
83	83	2
59	60	6
174	175	2
138	143	1
60	61	1
213	213	2
35	35	9
49	51	3
26	156	2
29	29	10
99	128	1
181	182	2
155	155	6
221	223	2
145	146	4
151	188	2
28	29	5
79	79	10
80	83	3
112	113	3
149	151	2
101	101	3
100	158	3
53	54	1
100	116	6
97	97	3
212	213	11
0	46	2
189	190	1
143	143	3
9	20	1
39	39	4
124	126	4
84	84	9
196	208	2
54	54	10
157	157	4
29	30	2
215	215	2
109	121	5
77	77	7
136	164	2
54	61	1
17	22	2
230	231	5
57	58	2
65	90	4
106	106	1
11	11	7
128	158	2
19	46	1
10	10	5
202	203	1
119	131	1
0	0	6
101	110	2
185	185	1
103	107	4
164	164	7
204	219	1
15	17	1
78	96	2
27	27	6
33	34	1
101	118	1
73	74	5
186	186	5
130	130	5
1	25	1
198	218	1
32	35	3
65	65	3
124	124	5
118	118	2
139	163	3
51	75	2
60	60	7
222	222	4
191	191	6
49	75	1
181	181	3
36	36	5
195	196	2
225	225	5
48	77	1
5	10	1
80	81	9
117	119	3
61	64	1
51	51	4
13	33	4
147	167	1
24	28	1
7	7	8
151	187	2
66	66	4
84	85	2
40	107	3
157	169	3
199	199	2
178	178	4
68	68	5
239	239	9
52	75	6
220	221	2
120	127	2
107	108	2
74	74	4
73	73	2
140	162	1
1	47	1
153	153	5
188	189	1
22	54	2
161	162	4
160	183	2
104	134	2
28	58	2
160	201	2
229	229	2
32	32	1
27	36	2
44	45	1
48	49	1
82	154	1
39	45	2
224	224	2
11	19	1
2	29	1
130	131	1
50	51	2
141	179	1
206	233	2
72	72	3
154	154	1
211	212	1
181	183	1
35	36	1
127	142	1
187	187	3
15	16	2
42	43	1
129	129	3
42	128	2
122	123	1
107	119	2
132	132	2
128	131	3
236	237	4
198	199	1
72	73	1
177	214	1
183	183	2
77	80	3
63	64	2
2	3	1
20	21	2
231	232	1
14	34	1
88	88	1
197	197	1
63	63	2
6	7	1
47	47	3
193	194	1
120	121	1
195	195	2
64	74	1
240	240	1
5	6	2
76	79	2
4	6	1
72	97	2
101	119	1
64	65	1
212	212	2
172	172	1
103	105	2
208	209	1
49	49	1
50	50	5
138	139	3
66	90	1
21	121	3
29	34	1
208	221	2
184	184	1
182	183	2
162	163	2
171	176	1
11	12	1
49	50	2
40	80	2
200	207	1
181	187	2
30	31	1
190	213	1
9	11	1
6	11	1
205	206	4
173	182	1
238	238	1
23	31	1
10	20	2
236	242	1
91	91	2
116	117	1
221	221	3
154	200	2
192	193	2
109	109	1
148	150	1
152	153	1
182	182	3
137	142	1
81	104	1
233	234	2
186	189	1
70	98	1
137	137	1
152	152	1
24	24	1
203	204	1
142	145	1
234	235	1
96	113	2
163	186	1
14	16	1
45	46	2
121	122	1
69	70	1
145	167	1
1	1	1
80	105	1
86	112	1
91	159	1
196	197	1
98	129	1
0	63	2
148	198	1
79	80	1
152	210	1
204	205	1
50	75	1
185	192	1
120	131	1
226	226	1
6	19	1
198	208	1
174	213	1
175	242	1
