37	37	22
153	154	9
30	30	12
31	31	11
102	102	10
76	76	4
178	179	10
44	44	17
16	16	17
34	44	2
160	164	1
186	186	14
146	148	4
117	145	6
188	188	23
107	108	5
116	132	1
142	144	3
52	57	1
139	140	5
170	172	2
26	39	4
187	194	6
173	173	17
167	169	3
135	136	5
168	168	29
187	188	13
47	47	14
173	174	2
172	172	24
150	150	17
163	193	1
177	177	22
114	114	12
11	22	2
163	164	17
21	21	6
137	193	3
153	160	2
124	124	19
160	193	2
114	124	4
173	175	5
158	158	8
15	15	14
24	24	12
34	63	2
7	39	2
14	14	13
115	115	9
180	180	14
13	13	6
26	38	2
182	184	4
69	69	15
191	191	9
167	167	19
49	49	13
133	134	6
34	34	11
56	56	16
196	197	2
170	170	10
136	136	12
9	11	3
125	185	4
78	87	6
37	86	1
127	127	17
116	118	5
67	70	6
139	139	13
109	110	12
176	176	10
130	131	5
95	95	12
38	62	1
192	193	4
46	47	6
47	48	14
169	169	8
89	89	10
105	105	7
180	181	3
84	85	9
140	140	10
149	149	23
148	148	12
9	9	10
141	142	4
171	171	9
179	193	2
80	86	1
175	175	27
109	109	9
111	111	19
107	152	3
145	145	10
25	26	9
79	79	9
112	115	1
160	160	17
80	84	1
135	135	11
5	5	12
184	186	1
187	187	10
121	170	1
70	72	5
88	88	3
57	57	16
63	63	5
28	32	4
81	174	1
28	29	6
185	185	19
108	108	12
179	185	5
141	141	28
59	59	15
25	25	15
81	81	3
26	59	3
131	131	8
45	55	3
86	147	1
74	86	1
151	151	9
114	115	6
116	140	1
100	151	5
195	195	10
82	83	2
116	131	1
161	161	12
152	153	6
184	184	19
158	178	6
9	12	3
0	46	5
144	159	2
123	130	2
179	179	16
7	7	9
151	193	7
181	181	18
20	23	4
194	194	27
62	62	5
63	69	2
123	156	1
94	94	9
64	64	10
182	182	16
142	142	15
138	138	10
61	61	7
164	170	4
5	8	4
3	3	9
4	8	2
172	173	11
41	55	2
171	181	1
150	175	1
3	17	2
196	196	14
168	169	4
179	180	6
129	129	15
112	113	3
82	177	1
143	143	8
122	122	13
190	191	3
125	125	6
165	165	23
155	155	9
157	157	13
169	170	9
0	29	2
156	156	13
147	147	12
184	185	6
29	29	7
53	53	9
185	186	1
81	82	5
95	96	6
16	45	1
55	55	20
157	158	9
162	163	12
126	126	17
7	86	2
178	178	24
62	63	2
103	103	12
193	193	13
107	107	7
99	117	1
65	75	3
195	196	4
7	83	3
58	58	10
108	134	2
118	149	3
188	189	5
156	157	8
19	19	14
120	122	2
96	96	6
63	76	3
34	64	2
108	145	1
37	68	1
139	167	5
183	183	18
5	35	1
76	77	5
129	132	2
65	65	3
197	197	8
178	181	3
107	154	7
11	123	2
142	143	7
8	8	13
10	10	10
106	106	15
96	112	1
164	164	4
26	26	5
172	174	4
27	27	13
5	7	6
32	33	5
126	127	4
182	197	3
132	135	1
38	39	5
159	159	20
14	17	3
39	62	5
129	135	2
110	148	4
23	23	12
20	25	3
155	161	1
110	110	15
143	144	8
112	112	12
61	62	2
36	36	14
67	67	5
40	40	26
142	145	5
63	93	3
126	130	3
23	38	1
67	75	1
33	44	5
78	78	15
155	176	2
145	153	6
22	22	11
34	35	4
110	115	3
12	16	2
130	134	1
10	11	1
6	7	4
77	176	1
72	72	5
121	121	14
81	180	2
171	174	4
144	144	10
101	101	15
10	18	2
8	16	2
32	32	7
145	146	6
110	132	1
175	176	5
64	65	4
113	113	9
11	32	1
19	21	3
106	153	1
81	175	1
100	100	12
63	64	3
18	18	17
179	186	2
129	174	2
44	45	3
150	151	1
45	46	5
1	1	15
87	94	3
12	12	16
74	75	5
182	194	1
193	197	3
164	167	1
137	137	7
8	127	1
118	153	5
22	23	3
7	82	6
109	131	3
133	133	8
77	147	2
63	70	1
180	195	1
190	190	7
58	59	6
40	41	15
33	36	1
77	77	15
12	14	1
134	140	3
46	46	16
41	41	13
189	189	7
147	187	1
86	94	1
31	63	3
97	97	12
0	0	8
104	107	2
130	130	14
153	155	5
60	61	2
116	117	7
13	47	1
103	104	5
3	16	1
68	69	1
80	177	3
153	176	4
117	117	10
62	93	3
109	145	4
130	136	3
115	151	2
104	145	1
35	35	6
39	39	9
38	68	3
115	152	6
156	161	4
101	106	5
104	104	10
48	48	10
132	132	16
99	119	2
165	166	2
67	148	4
108	154	2
116	116	3
42	45	2
159	160	2
20	20	14
146	147	8
192	192	14
152	152	11
33	63	1
118	118	17
82	82	7
171	172	1
149	151	2
104	105	3
25	37	3
101	107	3
32	94	1
89	90	5
120	120	8
171	182	1
80	80	12
77	78	7
104	113	2
51	52	1
131	135	1
6	67	3
4	57	2
162	162	13
106	107	3
127	128	4
154	177	1
97	145	2
147	149	1
163	165	3
125	126	2
99	99	6
2	81	2
5	22	2
7	8	4
131	134	1
153	153	7
23	72	5
123	123	9
108	146	1
43	43	12
51	55	5
121	164	1
74	74	4
50	51	4
177	179	1
86	195	4
124	125	3
123	161	2
113	132	2
97	111	3
49	129	3
6	20	2
60	60	1
2	8	5
134	138	1
131	170	4
4	4	13
20	26	3
131	133	2
102	103	6
75	75	2
96	113	4
9	13	1
3	47	3
61	75	1
22	44	2
170	171	9
178	185	2
53	54	4
62	75	1
22	85	2
17	17	13
154	157	3
137	138	7
8	23	1
7	22	2
112	116	2
66	66	8
7	44	2
137	139	1
2	2	8
186	188	2
42	42	9
40	45	3
24	70	7
56	159	2
9	56	5
83	83	5
24	127	5
158	159	4
151	174	1
8	73	2
78	79	2
174	177	1
98	98	5
146	155	3
45	45	10
8	59	1
7	67	1
100	101	4
174	174	15
96	111	1
187	190	2
33	33	3
157	159	2
154	154	9
31	84	3
180	188	1
27	28	6
123	125	4
119	119	8
65	66	1
42	43	3
5	6	2
85	85	4
144	155	3
88	89	1
5	47	3
32	64	4
131	155	2
191	192	5
99	100	1
134	137	1
154	160	2
62	66	4
174	181	1
44	47	1
39	41	3
69	94	1
128	128	11
158	162	1
11	12	3
104	111	2
9	126	4
134	151	2
50	57	1
144	145	2
132	134	3
30	65	3
7	9	2
145	159	1
24	71	1
135	137	2
163	180	2
0	1	3
54	54	1
2	3	8
167	168	3
20	22	4
56	57	4
32	66	2
155	156	3
113	114	1
149	150	2
52	52	7
132	133	1
163	192	1
116	153	2
166	166	13
110	117	2
84	88	1
109	111	2
171	183	5
183	194	6
90	90	2
54	55	4
38	38	6
4	18	1
11	11	15
129	142	1
194	195	1
113	133	3
50	195	4
118	150	6
119	120	1
115	126	1
182	192	1
117	148	2
109	127	1
71	71	8
137	155	5
98	99	1
93	93	1
129	134	1
30	83	1
27	30	1
146	146	5
5	28	2
138	139	4
59	69	3
3	18	3
37	71	3
177	178	5
59	98	1
114	128	1
0	17	2
57	150	2
3	6	3
37	88	3
119	152	1
170	174	1
179	181	1
144	154	1
35	40	1
57	193	1
10	124	1
148	149	3
31	55	6
112	165	2
190	192	2
6	6	8
136	137	4
37	38	1
157	178	2
6	41	3
186	187	2
181	182	2
159	165	3
121	122	6
87	88	1
100	107	1
0	4	3
111	136	3
21	36	1
10	19	3
117	118	3
97	131	2
30	121	1
97	98	2
117	139	2
8	9	5
107	169	1
50	50	8
180	182	10
39	40	3
73	73	4
115	116	2
70	70	3
42	86	1
0	48	4
168	172	1
151	152	1
113	115	2
116	123	1
66	69	2
157	166	1
104	168	1
50	56	1
63	68	1
116	156	1
43	45	1
4	5	2
43	44	6
113	189	2
170	184	2
106	154	4
29	84	1
6	22	1
74	90	1
13	15	3
160	162	2
70	71	1
99	120	5
120	126	3
60	146	1
77	83	2
160	161	2
116	130	4
126	151	2
172	175	1
9	10	5
21	37	1
135	193	1
111	112	3
176	178	1
11	19	5
183	193	2
156	166	1
29	30	1
79	177	1
36	66	2
101	104	1
83	84	2
131	132	1
174	178	1
59	64	1
0	182	1
116	146	2
127	151	2
38	43	1
76	85	2
137	164	1
12	44	3
176	190	1
116	151	2
28	28	6
30	127	1
134	134	4
128	149	2
3	59	1
67	146	3
143	153	1
143	157	1
138	143	3
110	111	2
151	161	4
144	153	3
34	58	1
18	44	2
53	56	1
179	192	1
172	183	2
19	20	4
20	21	2
108	131	1
101	103	1
182	183	1
41	43	1
75	86	2
3	8	2
110	149	3
78	148	1
123	138	1
32	65	1
175	186	1
35	37	1
118	119	1
61	76	1
193	194	3
76	87	1
187	195	2
150	155	3
108	155	1
57	72	2
38	66	1
65	74	2
189	190	3
121	169	1
133	140	2
9	63	1
99	107	1
14	15	3
5	18	2
169	184	1
157	179	1
177	190	1
111	129	1
185	192	3
66	68	1
122	161	1
147	148	4
148	153	1
185	194	2
54	56	3
102	104	2
62	69	1
119	121	1
23	127	1
47	58	2
154	155	1
46	81	2
18	34	1
183	184	1
50	193	1
163	163	4
152	155	1
172	185	1
179	182	1
0	2	1
44	77	1
110	116	1
39	63	1
170	183	1
50	85	1
26	36	1
87	89	1
101	113	1
104	152	1
117	123	1
22	58	1
7	73	2
12	123	2
62	64	1
111	131	3
38	50	1
3	4	1
158	180	1
32	58	2
19	26	1
162	167	2
24	100	1
84	84	1
64	75	1
169	172	1
160	163	2
17	28	1
37	39	1
6	73	1
136	139	1
112	128	1
26	67	2
191	195	1
15	16	1
61	68	1
134	139	2
143	158	1
123	152	3
59	73	3
42	44	2
11	31	1
176	177	1
21	35	1
131	168	1
64	67	2
63	73	1
188	190	2
77	86	2
120	121	2
34	76	1
151	175	1
173	177	1
57	58	1
181	187	1
124	151	1
161	162	2
117	154	2
155	164	1
34	36	1
160	173	1
87	90	1
94	95	1
137	146	1
123	154	1
135	140	1
118	156	1
41	44	2
148	150	1
135	169	2
36	55	1
135	139	1
12	30	1
130	171	1
4	12	1
133	148	1
162	164	2
133	136	1
27	33	1
49	51	1
38	40	1
164	166	1
81	181	2
87	87	1
39	68	1
29	32	1
136	138	1
21	22	1
18	20	1
23	58	2
27	29	1
186	190	1
115	123	1
22	24	1
121	135	1
134	135	1
46	179	1
177	189	1
51	51	2
96	97	1
140	142	1
8	22	1
180	183	1
25	29	1
99	151	1
83	177	1
