147	147	24
157	160	1
39	40	21
49	90	5
52	55	3
171	171	7
173	174	3
112	112	9
42	44	4
6	6	21
19	21	4
92	93	9
155	156	7
108	108	15
75	75	18
35	72	7
61	81	2
11	45	1
161	167	3
175	175	6
0	0	29
15	16	22
130	160	2
16	16	33
55	55	9
71	71	17
3	8	11
0	2	3
157	157	26
132	132	17
176	176	9
50	50	8
107	107	16
140	154	2
11	11	26
57	138	3
65	65	8
8	9	6
41	42	7
22	23	8
110	150	10
146	146	13
123	123	13
2	7	9
35	46	1
13	43	5
4	12	7
27	27	24
101	101	12
134	134	12
84	85	14
157	162	2
177	177	11
10	19	1
5	5	30
26	26	17
109	150	2
11	33	1
29	29	12
127	128	6
30	31	6
24	24	46
59	59	11
104	138	2
21	27	3
45	45	20
161	169	2
33	41	4
124	124	8
157	161	4
102	126	4
174	180	2
107	134	6
24	173	3
3	13	2
93	93	21
30	30	24
145	145	16
147	148	2
98	98	16
13	28	10
139	139	10
9	9	21
36	36	25
76	76	18
111	111	19
84	84	4
23	44	2
41	41	24
131	135	1
2	2	20
105	125	2
138	139	4
62	62	11
119	119	7
7	7	33
72	72	17
99	100	13
103	122	4
8	20	6
157	167	1
8	45	8
14	29	7
25	37	4
79	79	9
7	11	4
7	16	2
96	102	6
58	86	2
15	19	5
17	26	1
4	18	3
88	88	21
149	149	15
126	126	13
110	111	5
77	77	13
169	170	4
76	91	5
64	64	20
21	21	22
35	44	2
63	91	6
85	85	18
58	58	11
169	169	11
32	32	25
76	77	3
168	168	13
148	148	25
62	126	1
14	14	34
95	95	34
9	12	1
7	28	4
45	88	3
42	42	28
163	163	18
137	137	16
11	22	3
40	40	16
5	7	6
162	163	4
36	55	1
92	92	15
3	3	35
64	68	3
23	23	26
22	44	2
18	18	32
39	41	3
19	19	20
13	29	2
127	131	1
13	16	1
63	63	8
10	10	28
180	180	4
8	8	34
98	101	5
4	45	2
38	38	35
14	30	4
13	13	29
17	17	25
153	153	12
109	109	13
100	105	7
33	33	26
31	31	22
15	37	3
127	127	26
103	109	3
15	15	21
63	116	1
54	79	3
5	6	9
131	131	17
61	80	4
159	167	5
16	45	2
135	157	5
12	13	4
96	96	8
10	46	1
125	133	1
98	99	2
7	19	1
119	120	7
23	36	1
54	54	5
160	160	25
166	167	4
7	13	9
12	12	33
147	162	4
29	30	5
110	132	1
151	160	2
54	62	2
72	87	1
125	149	3
143	144	8
63	64	5
34	34	32
129	130	2
76	85	4
128	128	15
38	39	12
35	35	10
60	76	3
86	86	20
20	143	2
115	116	5
25	174	3
61	63	4
35	36	9
118	122	3
27	28	20
118	118	12
83	108	4
110	110	12
119	122	1
97	97	20
1	1	29
102	119	1
159	159	13
125	125	16
68	68	7
160	161	4
18	21	6
26	27	8
40	41	3
25	26	3
51	51	12
20	21	5
32	33	11
2	22	9
56	56	14
66	66	15
110	151	3
144	162	1
11	12	11
115	115	6
101	117	1
150	153	2
151	164	1
17	38	2
132	133	3
19	20	12
43	44	8
20	145	3
136	136	3
91	91	13
41	43	1
66	87	2
170	170	15
145	169	4
120	120	8
49	50	4
17	19	4
174	174	13
33	35	3
94	94	14
156	156	4
13	15	6
37	38	8
133	133	10
173	173	9
61	61	5
140	176	1
5	38	5
166	166	10
43	43	29
52	53	6
33	34	11
81	81	14
178	178	11
148	164	2
59	60	4
99	99	9
148	155	3
130	131	4
96	98	3
28	28	15
170	174	3
113	144	2
83	84	9
158	158	15
10	20	4
112	134	3
90	91	6
136	167	4
28	29	8
161	161	15
140	142	1
93	123	4
118	127	3
85	87	4
159	164	4
45	46	2
2	4	3
101	102	13
74	75	9
11	18	2
123	124	13
56	72	3
121	130	6
110	130	3
58	96	4
4	4	22
17	36	7
60	60	16
114	114	7
52	76	5
121	121	9
62	87	4
130	130	17
4	41	4
101	119	3
56	70	2
9	31	1
62	85	1
118	119	2
24	28	3
10	41	5
157	164	2
141	173	2
60	67	5
105	105	7
25	27	6
25	45	2
56	57	5
87	88	4
122	123	8
132	152	5
25	25	35
148	154	16
102	102	16
179	179	12
112	114	4
106	107	10
24	25	7
113	113	6
11	13	1
112	115	6
2	3	12
168	169	2
34	36	1
66	102	3
65	80	4
161	162	6
144	145	7
52	52	14
22	22	9
86	87	3
140	140	5
3	9	1
4	11	5
117	121	2
116	116	10
78	78	5
154	166	2
10	37	1
98	126	2
10	15	7
156	163	3
11	29	1
143	143	7
8	15	4
91	92	6
105	106	2
100	100	6
156	164	5
104	110	3
66	80	1
16	17	8
2	9	4
167	174	2
137	138	4
55	61	1
98	100	4
44	45	6
4	5	2
10	11	4
3	33	1
175	176	5
89	89	13
154	155	8
151	159	4
157	158	2
38	41	2
97	99	3
147	167	3
0	1	2
77	94	4
110	116	7
12	27	4
160	162	2
82	97	3
14	37	1
138	138	5
153	156	3
127	162	1
90	123	1
58	60	2
5	33	6
18	20	6
178	180	2
116	117	13
6	16	5
136	157	2
3	32	4
52	77	1
5	40	5
146	147	5
124	138	1
74	102	3
1	35	5
129	146	2
10	35	1
101	107	1
6	13	1
134	165	2
39	39	23
44	44	24
70	72	4
177	178	3
113	117	2
128	150	3
61	65	1
30	32	2
79	112	4
160	164	3
111	131	1
3	12	6
62	66	2
100	101	4
28	31	2
131	161	4
7	45	4
66	121	2
142	167	2
10	14	3
21	23	5
137	169	5
103	103	12
79	93	1
67	67	4
57	57	16
4	38	1
36	37	5
164	164	20
53	61	3
165	165	14
26	38	6
172	173	5
75	76	2
90	90	4
13	40	2
97	122	2
49	49	3
172	172	5
142	142	7
94	141	1
110	152	5
73	73	7
106	106	11
152	153	6
80	86	2
51	80	3
21	22	5
22	28	2
172	174	3
93	102	3
123	125	4
5	23	5
12	15	4
102	103	3
23	24	2
151	152	1
119	127	1
150	151	3
8	23	3
36	43	1
9	17	2
65	121	1
120	121	8
115	133	2
139	151	2
124	125	5
18	45	2
61	79	4
6	20	3
5	8	2
20	36	3
62	63	2
155	155	6
135	136	9
65	81	1
88	92	1
5	21	4
53	53	11
14	15	4
105	113	3
10	13	3
163	164	5
9	10	3
143	145	2
167	167	7
74	74	6
64	78	2
20	20	6
87	87	6
15	42	1
145	146	5
80	81	4
108	153	6
65	76	4
5	30	1
121	122	1
154	180	3
52	54	8
3	7	1
108	109	5
165	173	2
9	22	2
122	122	14
35	37	1
116	150	2
32	44	4
167	172	3
152	163	4
152	152	6
95	96	2
96	148	1
112	113	3
10	18	2
16	30	3
165	167	2
22	30	4
114	115	4
147	154	1
32	43	6
53	66	4
132	150	4
118	126	7
3	4	7
95	122	1
44	77	2
104	135	3
104	104	8
141	141	7
156	157	5
131	169	1
83	83	1
132	138	1
81	87	1
36	45	4
68	76	3
117	117	3
49	87	3
24	31	2
133	152	2
2	42	1
7	8	5
20	22	1
51	63	1
154	156	2
146	168	2
77	78	5
31	32	8
117	128	6
131	162	3
35	41	3
136	174	4
104	142	4
57	123	1
16	19	1
129	151	1
50	51	7
126	127	6
67	75	2
37	37	13
112	142	4
119	131	1
9	33	5
24	26	7
38	42	1
81	82	5
29	31	2
160	167	3
44	46	1
7	36	1
7	35	4
144	144	12
77	91	3
80	80	8
68	77	1
174	176	1
17	95	2
55	66	2
58	103	2
44	53	1
11	23	2
91	115	1
4	9	6
35	57	1
78	79	1
16	23	2
129	129	6
9	15	1
135	135	5
116	118	2
107	117	2
20	31	2
21	30	3
6	28	2
150	150	3
57	124	6
140	153	1
174	175	4
23	38	2
169	173	1
2	12	3
37	55	1
12	22	1
10	16	1
72	93	2
32	34	2
82	100	3
52	79	1
112	120	2
4	10	3
129	165	1
96	99	2
9	45	2
121	123	1
67	68	3
54	64	2
33	172	1
158	179	2
35	58	3
52	63	1
63	81	4
27	36	1
109	110	1
59	142	1
136	178	1
140	173	2
93	94	4
9	57	1
54	57	1
140	158	1
28	30	1
14	33	1
119	128	2
87	97	1
23	26	3
151	151	5
54	58	2
20	33	1
53	79	2
16	144	1
140	167	1
12	25	1
169	175	2
5	45	4
118	125	1
135	171	1
24	35	1
3	10	1
7	10	1
92	122	1
102	106	2
111	112	2
13	14	4
8	12	2
1	26	2
127	129	1
54	55	3
16	20	1
6	22	1
92	102	1
147	177	3
79	116	2
80	94	3
70	71	4
39	96	1
63	115	1
131	132	2
82	82	8
9	36	1
134	173	3
108	134	2
151	156	2
2	31	1
171	172	3
61	77	2
40	42	3
17	42	1
159	160	4
5	46	1
10	33	1
59	92	2
134	149	2
9	11	4
19	22	8
62	79	1
163	170	1
14	16	5
135	145	1
73	82	3
16	25	1
117	119	1
140	160	1
104	144	2
109	118	1
133	154	3
5	44	2
139	150	2
9	20	2
64	126	1
22	31	3
2	21	2
25	172	4
95	106	2
153	154	1
54	63	1
23	29	4
65	75	1
17	144	2
35	42	2
36	40	2
0	175	1
4	19	3
5	32	2
13	30	2
19	37	3
17	18	1
85	86	1
10	36	1
18	19	2
2	5	1
173	176	1
109	148	1
104	162	1
141	156	5
3	18	4
11	19	1
166	174	1
59	79	1
4	37	1
131	142	4
10	29	2
154	154	3
149	150	2
6	73	2
142	145	1
162	165	1
5	14	1
148	149	1
9	13	2
1	44	1
38	148	1
16	36	1
109	128	2
160	174	1
51	52	2
38	43	3
153	155	2
12	33	2
147	156	3
10	31	2
7	44	1
14	32	1
6	36	1
94	95	1
105	114	1
19	167	1
35	43	2
31	43	1
50	52	1
162	162	5
152	160	1
1	2	3
15	20	1
168	178	1
58	104	1
23	136	2
139	148	1
133	134	1
165	174	1
12	26	1
147	155	1
81	83	1
43	71	1
14	45	1
104	147	1
139	166	1
15	22	2
60	100	1
83	86	1
83	90	1
65	66	1
158	159	1
23	30	1
114	116	1
1	34	2
67	74	1
28	35	2
23	28	1
105	107	1
53	142	1
51	61	1
37	40	1
133	153	1
6	31	1
20	23	1
97	126	1
119	121	1
136	158	1
8	14	1
143	171	3
162	167	1
102	120	1
60	61	1
84	99	1
157	180	1
147	149	1
110	154	2
68	79	1
4	17	1
159	179	1
127	130	1
163	167	1
141	142	1
57	58	1
51	68	1
37	39	1
7	9	1
170	171	1
6	41	1
12	19	1
114	126	1
162	171	2
5	13	1
71	77	1
6	37	1
54	83	1
107	108	1
14	148	1
24	37	1
134	166	1
81	90	1
151	153	1
161	165	1
4	7	1
11	15	1
50	61	1
