16	16	6
67	67	6
9	18	4
71	71	8
142	142	5
31	31	6
99	145	6
54	54	3
132	132	6
39	39	11
130	130	6
92	92	2
22	22	13
5	53	2
141	141	5
77	78	3
128	128	12
118	119	7
113	113	5
65	65	6
51	52	9
64	64	3
64	65	5
144	144	15
120	120	2
39	40	4
27	27	18
129	129	16
123	123	20
50	50	3
140	140	11
12	12	4
23	23	17
114	115	2
13	13	10
127	127	13
60	103	3
71	72	12
27	28	3
43	50	6
5	32	2
133	134	5
91	107	2
129	130	7
119	119	15
66	68	3
127	128	5
138	138	7
60	61	6
24	24	21
54	55	3
143	143	10
4	4	8
71	82	4
8	8	8
58	61	4
11	11	3
70	70	7
101	104	1
75	79	3
81	81	8
33	34	3
142	143	3
37	37	14
75	125	3
105	105	10
116	129	1
60	60	3
62	120	2
59	60	6
85	85	5
94	115	3
116	117	2
121	121	4
95	102	5
73	75	4
95	95	9
67	141	1
93	127	1
11	136	5
48	48	10
118	118	5
32	32	4
28	28	10
135	135	9
52	53	2
20	132	5
83	85	5
11	21	5
41	41	10
46	47	3
58	58	9
26	26	13
58	59	5
134	135	5
49	49	11
2	2	6
96	110	4
73	73	8
26	27	1
62	62	7
68	69	2
103	103	2
83	83	8
106	115	9
57	57	5
140	143	1
106	106	4
19	19	15
127	140	2
63	64	6
76	100	1
100	101	4
37	38	1
53	54	2
69	69	5
134	138	1
131	131	14
124	124	18
21	21	6
35	35	5
72	74	5
145	145	3
98	98	5
102	118	4
88	89	6
105	115	1
84	84	2
79	79	8
47	52	1
102	102	5
87	87	6
17	17	12
126	126	7
133	133	7
98	106	4
18	18	9
23	24	4
66	67	3
111	111	4
93	94	2
22	23	4
107	107	9
68	68	4
30	30	9
18	29	4
140	141	3
123	141	6
138	139	6
50	52	3
34	47	2
104	106	3
61	61	8
131	132	6
16	109	3
10	10	13
117	117	6
81	129	3
90	90	3
144	145	2
88	91	1
38	39	3
96	97	7
35	36	3
109	109	4
104	104	5
47	50	2
122	123	3
55	55	6
119	126	1
122	122	3
42	96	1
119	139	1
89	89	2
96	96	8
122	124	1
31	32	3
123	140	1
134	134	6
47	47	3
127	129	2
100	119	4
124	125	3
99	100	2
29	29	10
38	38	1
19	124	3
68	85	2
115	118	4
82	108	2
33	33	4
94	109	1
28	29	3
0	14	2
77	77	2
42	42	7
68	83	1
97	97	13
62	63	2
132	133	3
103	117	3
64	66	1
89	91	2
105	106	2
99	121	1
49	50	1
65	66	2
32	33	4
25	26	2
117	120	2
81	82	3
102	120	2
43	43	3
110	110	8
65	72	4
61	65	2
95	96	2
105	131	2
119	120	2
5	5	4
0	0	3
139	140	2
116	116	4
23	84	1
80	80	3
56	58	2
9	10	1
48	49	5
100	100	10
31	39	3
137	138	2
55	56	3
35	38	1
101	101	8
113	114	1
21	22	2
112	112	1
82	82	9
35	83	1
139	139	2
25	25	5
80	81	4
14	14	2
59	59	1
66	92	1
29	30	1
21	25	2
40	41	1
6	6	5
143	144	2
74	76	1
114	114	5
125	125	5
66	66	1
78	94	1
117	139	3
75	94	2
57	59	2
6	21	1
84	121	2
137	137	5
61	62	2
52	52	1
90	91	1
67	68	1
5	20	1
46	46	2
74	74	1
56	56	3
84	85	2
99	99	1
40	40	2
97	98	2
77	125	2
36	85	1
75	75	3
15	16	2
25	27	2
136	136	4
123	124	1
118	138	1
122	132	1
76	126	2
76	79	2
120	138	2
1	1	1
35	42	2
3	3	1
134	137	1
136	141	1
11	13	1
42	48	1
53	57	1
126	131	1
37	125	1
21	28	1
8	134	2
5	6	1
0	33	1
131	133	1
20	20	2
53	64	1
72	72	2
55	63	1
13	17	3
18	41	1
85	112	1
109	130	1
34	34	2
111	113	2
23	38	1
51	51	1
36	127	1
75	76	1
18	19	1
78	78	1
130	132	2
40	56	1
141	142	2
30	31	2
97	99	1
109	112	1
91	91	3
35	66	1
14	53	1
22	29	1
21	26	1
109	110	1
86	140	1
51	78	1
128	130	1
36	36	1
64	72	1
28	126	1
108	109	1
136	137	1
138	140	1
63	128	1
6	17	1
79	141	1
