66	67	21
107	107	8
95	108	4
67	67	14
78	80	5
23	25	2
43	43	19
26	30	3
30	30	23
94	95	4
109	109	18
35	61	3
90	90	9
66	66	17
40	40	7
47	47	6
30	31	2
68	70	7
58	58	4
61	61	4
95	96	16
42	42	11
24	24	5
71	90	2
79	79	22
103	104	8
25	26	11
111	111	10
100	100	13
77	77	22
29	30	1
88	88	7
86	86	4
60	61	7
82	82	14
68	69	6
86	113	4
37	37	9
27	28	7
85	85	20
38	39	2
87	87	7
62	64	7
76	76	20
56	57	6
89	89	4
44	87	1
70	71	4
74	74	22
105	105	8
95	103	5
77	78	6
23	23	3
58	96	2
87	105	2
56	59	2
31	40	4
110	112	3
108	109	17
70	70	10
101	101	15
114	114	1
79	80	12
34	34	6
105	106	5
57	57	3
73	73	10
35	35	6
109	112	6
41	41	20
60	60	8
103	103	8
71	71	13
76	97	2
68	89	5
68	68	12
99	99	7
88	89	7
74	96	2
42	44	3
102	102	41
87	88	9
73	75	5
41	42	9
58	60	1
69	69	12
40	52	2
64	64	5
106	107	2
99	100	5
21	21	14
61	62	10
78	78	7
69	73	1
113	113	9
22	22	11
101	103	9
67	88	4
98	98	6
45	114	1
51	52	11
50	50	17
48	48	5
94	94	8
33	33	9
81	81	11
81	83	1
53	53	5
78	79	5
56	73	6
62	63	2
89	92	3
82	83	6
72	72	12
98	100	4
95	102	1
106	106	2
59	59	10
101	102	10
91	94	10
43	89	3
65	65	8
69	72	1
65	66	3
74	75	7
106	108	2
80	80	9
33	34	3
93	94	7
96	96	14
63	63	2
102	103	2
41	44	1
66	68	5
73	74	7
72	73	10
54	54	2
97	113	3
97	97	25
83	83	10
97	98	10
91	91	11
86	92	6
32	32	10
41	51	2
71	72	2
37	52	8
43	62	1
80	81	5
99	111	4
52	52	7
32	33	6
51	51	7
104	105	2
98	99	4
66	69	3
36	36	10
98	112	4
85	88	1
45	45	17
104	108	4
57	95	2
56	96	1
106	109	3
21	27	3
21	22	4
24	26	2
75	75	13
99	112	5
99	101	4
93	109	3
59	92	1
101	105	4
43	44	3
110	111	3
69	70	7
39	53	2
36	63	2
20	22	1
72	75	8
44	44	7
51	73	3
95	95	17
81	82	5
104	106	2
43	88	3
59	60	1
30	32	3
33	36	2
106	112	4
20	21	3
62	92	1
74	77	1
46	46	4
29	31	2
104	109	2
67	87	5
110	110	4
72	74	3
31	31	2
64	65	3
100	109	3
28	28	6
94	105	1
94	107	1
102	108	2
47	48	1
103	111	1
99	108	2
30	40	2
35	36	5
25	25	4
112	112	7
40	41	2
64	67	1
109	110	1
105	107	1
33	35	1
51	53	4
108	108	2
98	109	5
77	79	3
93	103	3
71	95	3
55	56	1
43	45	1
84	85	4
104	104	5
20	20	4
51	60	1
58	59	2
26	27	1
68	84	3
53	54	4
101	112	1
45	46	2
76	77	10
49	50	5
66	91	3
37	42	1
38	68	4
44	67	1
58	62	1
27	29	1
109	111	3
44	88	1
32	34	2
105	108	3
64	66	1
37	53	1
44	45	1
39	40	1
59	61	4
31	32	4
103	107	2
19	20	2
49	49	3
40	53	1
76	81	3
39	39	2
103	108	3
86	87	2
95	109	1
41	56	1
31	48	1
100	101	3
67	83	1
55	87	2
88	108	2
57	60	2
69	88	2
23	24	2
93	93	1
39	42	2
103	105	1
100	113	2
67	68	1
92	92	3
85	86	2
36	37	2
22	23	2
43	55	3
27	27	5
37	60	1
38	41	1
38	54	1
92	103	1
89	108	2
26	26	1
33	37	1
113	114	2
68	71	1
62	62	1
115	115	1
90	91	1
67	79	1
100	103	1
