134	134	2
33	33	5
1	1	8
102	126	3
92	113	2
125	125	1
57	58	4
26	27	6
50	52	6
118	118	3
88	89	3
80	80	5
64	64	5
66	66	9
92	92	3
81	85	2
74	75	4
1	2	7
10	10	6
75	75	8
77	77	12
72	72	6
83	83	14
110	110	4
105	111	2
106	106	12
11	11	3
9	9	4
93	102	5
84	84	8
97	98	8
47	48	6
71	71	8
128	128	8
43	44	3
44	51	6
124	129	7
5	5	4
112	122	7
95	95	10
13	15	2
65	65	5
87	87	7
0	0	8
96	130	5
120	120	11
71	78	2
30	31	4
104	104	17
89	89	1
55	56	2
74	74	7
105	105	2
61	61	5
27	28	6
105	107	1
110	112	4
52	53	4
23	23	3
27	33	3
102	102	3
117	117	4
87	105	5
16	16	2
85	85	9
112	112	8
79	79	10
103	104	3
36	36	3
81	82	2
49	50	2
64	67	3
56	57	10
104	112	3
86	86	6
83	84	2
45	45	5
9	10	3
88	116	4
7	9	1
126	126	8
11	19	4
91	91	1
33	35	2
17	17	1
105	106	3
95	96	15
50	50	8
99	100	5
82	86	3
119	121	4
124	124	5
58	63	2
116	116	5
32	76	2
99	99	5
114	114	4
19	44	3
94	94	10
63	63	11
108	110	4
97	97	6
22	22	3
50	51	4
123	125	11
52	52	9
121	121	10
88	88	15
12	12	3
111	111	6
124	133	4
75	76	1
128	129	2
55	55	8
112	114	1
79	80	6
43	43	4
38	38	3
130	130	9
18	20	3
90	91	2
132	133	2
127	127	4
64	68	3
6	7	5
36	38	2
76	96	3
100	101	4
29	29	7
50	53	6
14	14	4
71	72	1
14	15	3
70	70	6
62	65	3
83	86	2
83	85	3
44	44	4
58	58	3
96	119	2
21	21	1
13	16	2
48	53	3
98	98	3
92	95	2
7	7	1
107	107	8
62	62	8
108	108	6
131	131	1
127	128	2
45	51	1
87	99	1
98	126	3
53	53	6
0	2	2
46	46	1
119	119	11
115	115	2
33	34	3
24	24	3
91	92	1
32	33	5
26	26	10
127	129	2
30	35	1
25	25	3
54	54	3
31	31	3
15	15	3
100	105	1
66	69	4
72	73	2
33	36	2
78	106	2
80	81	6
93	93	2
123	123	6
107	108	4
129	129	3
115	116	2
71	89	3
98	132	2
59	59	2
107	110	3
131	132	1
82	85	2
0	1	2
82	82	1
93	135	2
29	30	3
130	132	4
8	8	1
44	45	2
118	125	1
30	76	3
86	90	3
131	135	2
109	109	3
0	4	2
18	18	1
12	134	1
67	68	2
45	86	1
73	78	3
87	91	2
101	102	2
118	122	1
67	67	6
69	70	2
55	58	1
132	132	5
34	42	1
8	9	3
106	111	2
121	122	3
13	13	4
60	60	1
21	22	2
133	135	1
103	103	2
22	24	2
77	78	1
81	114	1
89	90	1
100	115	2
94	95	2
111	114	1
19	20	1
129	134	1
13	14	3
112	113	1
30	30	1
123	124	4
96	96	2
81	81	1
109	110	4
73	73	1
108	113	1
52	54	3
91	94	2
29	90	3
134	135	1
3	3	2
8	10	2
73	74	4
82	84	3
37	37	1
93	94	2
62	63	3
10	37	4
4	5	3
111	112	1
5	6	1
56	66	2
85	87	2
69	74	1
69	76	1
78	80	1
24	26	1
118	123	3
66	68	1
3	29	1
59	64	1
84	85	3
78	79	2
72	75	2
100	100	2
56	56	2
96	97	1
29	89	3
62	69	1
65	90	2
54	57	1
100	131	2
113	113	1
31	43	1
104	114	2
123	126	1
86	88	2
68	68	2
104	105	1
19	19	1
58	59	1
35	35	2
47	47	1
63	69	1
117	122	1
35	36	3
76	76	1
35	37	1
122	125	2
122	122	1
99	121	1
101	101	1
90	90	2
85	117	1
63	65	1
67	69	1
121	123	1
0	3	1
69	79	1
107	111	1
43	57	1
90	92	1
