180	180	17
211	213	6
20	20	14
11	11	23
198	198	28
91	104	2
116	116	15
241	241	30
188	193	5
174	187	9
187	187	18
55	55	19
10	41	5
77	85	1
184	184	13
50	60	2
36	36	15
29	29	10
193	195	6
85	89	3
14	14	8
28	29	5
182	183	15
221	221	12
115	116	8
159	159	9
119	152	3
170	175	3
210	210	24
181	184	1
244	244	18
22	22	11
62	62	21
8	8	16
163	166	3
150	150	39
199	200	14
184	186	1
171	172	13
163	164	8
224	225	3
72	74	5
68	75	3
46	92	1
47	48	9
69	69	19
197	197	27
183	183	24
167	167	22
120	144	6
218	218	15
201	201	39
78	79	14
87	103	3
79	79	22
222	222	12
83	84	4
41	42	1
162	162	26
240	244	5
96	96	14
157	170	2
116	119	7
117	117	22
217	217	21
34	34	9
85	87	1
78	78	15
204	204	36
20	22	3
209	210	3
17	17	14
67	67	27
145	145	13
225	225	15
66	69	6
57	74	3
229	229	18
94	94	18
163	163	14
69	70	8
144	144	5
233	234	7
60	61	9
102	103	5
13	13	6
214	214	14
160	160	19
68	68	23
187	188	3
109	237	3
21	21	9
78	194	2
85	118	1
48	59	1
111	246	3
113	114	12
239	241	6
199	199	22
186	244	4
37	37	17
100	100	9
210	231	3
8	9	7
119	119	25
24	24	19
83	88	7
82	82	25
228	229	7
56	56	11
202	203	13
38	38	21
237	238	6
153	153	34
165	166	8
92	93	2
32	32	13
197	198	12
31	31	10
75	77	8
181	182	6
50	50	12
170	171	6
52	100	2
186	186	15
98	101	2
178	196	3
32	33	5
63	63	18
57	57	13
103	104	2
226	227	8
75	75	17
211	212	2
202	202	29
176	176	10
147	147	6
5	6	9
85	85	20
101	101	17
112	112	28
53	53	16
171	171	20
12	15	3
216	219	4
191	191	11
44	44	34
181	181	29
217	218	4
230	240	5
35	35	17
172	172	12
36	37	6
219	219	22
230	234	8
175	177	4
90	112	3
79	81	7
50	70	4
195	196	13
166	171	8
3	7	3
229	230	10
45	45	19
236	236	16
71	73	2
66	66	14
104	108	5
98	107	2
56	78	2
180	201	4
152	153	10
80	80	14
116	117	5
6	9	4
4	5	9
85	95	5
205	205	29
185	186	16
85	86	10
45	46	5
118	118	16
58	59	6
108	108	10
166	167	7
188	191	18
57	210	3
118	152	1
230	230	19
212	213	6
214	215	13
245	245	22
193	194	4
163	174	1
223	223	24
8	152	2
241	244	2
74	120	1
158	198	3
90	91	18
4	4	20
167	168	12
203	203	25
229	234	1
174	176	8
18	18	18
18	227	7
209	214	2
183	229	5
189	202	2
241	243	8
158	159	8
35	36	7
77	93	2
183	185	9
7	8	7
161	161	26
10	10	24
54	59	4
84	84	12
10	11	10
114	114	7
107	107	14
33	34	4
110	110	17
38	39	4
188	188	11
104	104	23
47	57	3
205	206	2
117	119	2
175	176	5
175	175	37
49	49	16
80	82	6
111	245	3
99	99	21
182	184	2
154	154	31
170	170	43
102	102	9
162	163	15
156	156	34
59	59	15
91	91	9
88	118	4
87	87	8
30	30	19
193	197	1
5	5	17
194	194	8
232	232	22
223	225	2
49	50	7
247	247	13
208	208	17
244	245	7
25	26	5
235	235	15
224	224	13
60	60	5
242	242	20
12	58	1
248	249	2
213	218	3
198	201	4
234	235	26
215	216	10
190	212	2
234	234	16
243	243	7
216	216	13
112	113	11
232	234	4
23	24	6
6	6	17
193	193	18
240	240	32
79	84	6
97	98	10
48	160	4
149	149	8
191	192	6
59	62	7
110	111	13
210	211	14
190	191	9
186	187	7
64	64	16
39	39	12
4	119	4
103	103	6
56	57	4
95	95	18
91	92	7
105	107	8
28	28	23
46	114	2
191	194	5
179	180	2
207	207	17
158	158	16
145	229	4
41	41	20
92	92	25
4	34	2
212	228	5
71	71	9
39	40	7
82	96	2
2	2	4
37	121	6
238	239	20
149	158	6
105	106	2
226	234	3
116	118	5
189	189	15
87	89	5
149	150	4
237	237	10
216	217	6
226	226	11
182	185	2
34	35	8
164	164	28
225	231	3
213	215	2
158	177	1
157	157	11
12	12	25
85	94	1
15	15	10
52	59	4
237	239	4
190	190	22
239	239	20
111	111	17
112	200	2
179	179	20
115	119	2
48	48	12
99	100	6
24	195	2
23	23	19
43	46	6
187	196	2
74	77	11
45	57	1
152	152	10
75	76	10
73	106	6
5	119	2
90	90	20
87	117	2
182	192	4
222	223	15
211	211	8
46	47	7
0	0	6
245	246	12
113	113	11
42	42	10
20	21	2
79	104	5
46	46	13
98	98	9
40	40	15
82	105	1
109	109	20
64	65	6
93	93	11
227	227	13
206	206	18
26	26	15
188	190	3
71	72	4
65	65	13
96	97	13
30	161	3
12	54	6
28	151	3
246	246	20
74	74	34
221	222	4
15	41	7
151	153	3
203	204	8
7	7	20
1	1	6
47	47	14
209	213	7
209	209	21
81	81	8
103	105	3
155	155	14
72	72	11
14	18	3
184	185	5
206	207	14
28	35	1
157	179	1
44	151	1
181	183	7
168	169	9
110	112	1
188	234	1
182	182	16
77	77	17
86	87	7
173	174	8
34	37	1
81	83	2
200	200	21
63	64	8
63	95	1
29	30	6
19	19	13
52	52	9
160	164	3
151	151	13
22	26	2
51	51	6
84	85	6
55	57	8
35	39	4
88	89	7
97	97	13
58	62	1
155	156	6
172	174	1
83	111	2
160	216	2
72	106	1
187	189	16
68	71	4
120	152	3
177	177	10
117	118	6
115	115	16
90	95	2
191	209	3
189	194	3
193	196	7
165	165	32
174	174	11
72	73	9
120	120	6
26	173	1
33	33	16
104	106	11
73	73	14
43	43	11
100	101	3
98	116	3
101	104	1
9	9	19
74	78	4
99	101	3
181	192	3
151	152	1
58	58	17
115	117	4
173	173	15
146	146	7
54	54	17
69	71	4
79	95	4
237	240	1
212	222	2
238	238	16
95	96	10
76	76	11
15	53	3
27	28	4
48	74	3
178	178	16
208	209	19
150	227	1
8	33	5
61	61	18
108	111	1
159	172	1
89	90	3
105	105	10
55	59	1
153	154	12
88	88	13
151	169	1
167	169	3
119	151	4
58	77	3
19	227	1
37	144	2
28	36	4
88	97	2
63	65	3
167	171	1
31	32	8
74	75	1
0	32	2
57	58	3
180	182	2
22	23	7
178	179	9
160	233	1
187	190	5
24	201	1
14	55	8
164	165	5
168	168	22
11	51	2
57	77	4
213	213	14
242	243	3
101	102	2
243	247	7
73	75	2
118	119	9
226	231	5
76	77	12
211	237	2
33	35	5
223	224	8
98	108	2
85	90	3
230	231	5
12	64	2
3	3	10
63	71	2
164	166	5
233	233	13
4	42	7
15	16	5
121	121	2
231	231	14
72	75	6
177	178	3
170	176	4
14	15	3
31	43	6
84	86	5
99	113	1
246	247	10
169	171	5
163	165	7
91	158	5
166	166	9
16	16	3
83	99	2
177	193	4
55	67	3
37	38	13
73	76	4
84	94	1
218	241	2
112	156	1
67	68	6
186	189	2
56	88	1
228	228	4
192	192	13
87	118	4
50	91	4
231	232	3
76	78	2
188	189	1
208	212	2
185	192	1
48	60	3
169	175	2
89	89	10
11	13	3
213	214	8
241	242	6
169	169	14
80	81	7
30	31	7
110	159	1
32	44	1
187	230	1
111	112	5
157	199	2
11	211	2
82	86	2
240	241	4
104	107	2
152	204	1
55	56	1
96	105	5
9	10	1
194	197	1
65	66	7
98	104	1
187	191	1
181	195	3
194	195	6
214	235	3
87	88	10
51	52	8
106	106	3
150	151	4
169	170	7
169	172	1
247	248	3
114	115	1
68	70	4
160	161	1
236	243	3
86	86	9
3	29	2
215	215	8
18	19	7
34	36	4
235	236	11
218	219	4
217	220	5
63	84	4
212	212	16
17	227	4
60	65	2
242	248	3
207	212	1
183	194	1
55	76	1
165	167	5
44	45	7
184	195	2
71	76	3
14	31	4
59	60	10
208	213	1
178	180	2
153	202	1
55	240	2
53	55	2
81	107	2
83	83	9
80	85	2
77	78	3
96	98	1
55	160	4
78	80	1
248	248	3
214	240	2
209	212	1
111	244	6
92	111	4
50	52	2
225	226	4
43	151	2
60	63	1
92	113	1
82	85	4
185	185	9
59	82	4
161	162	7
42	247	3
93	94	3
95	114	5
58	79	1
30	186	3
90	97	3
56	63	1
52	53	5
159	160	6
190	192	4
54	55	4
182	198	2
155	237	3
45	154	1
191	195	10
83	86	3
97	120	3
47	114	2
195	195	4
42	204	4
73	105	5
220	220	9
165	175	1
192	193	7
9	62	2
85	111	1
113	118	4
37	45	3
100	113	2
223	227	5
229	236	1
172	227	2
81	145	3
12	80	2
167	172	5
197	213	2
61	62	3
60	73	2
89	96	4
178	202	3
190	246	3
218	220	6
96	104	2
8	76	3
70	71	2
27	27	5
81	90	1
192	194	4
179	181	3
188	226	4
92	94	2
205	207	2
42	43	5
24	25	5
195	215	1
11	23	3
3	5	1
57	59	2
246	248	3
188	228	1
173	177	1
5	7	3
52	61	2
236	237	4
24	161	2
217	221	3
212	231	1
9	98	3
74	80	2
238	247	3
247	249	2
44	46	1
26	32	1
157	167	3
162	173	1
149	164	1
17	18	1
198	217	2
116	152	2
168	186	4
190	193	2
145	197	1
14	17	2
151	162	1
194	211	1
159	163	3
173	178	4
244	247	3
197	199	1
156	157	5
180	181	2
157	158	7
20	207	3
224	236	1
119	120	2
184	199	2
144	206	2
96	107	1
11	12	2
188	243	3
230	237	2
111	236	1
162	199	2
230	238	1
80	84	2
57	75	6
221	238	1
109	110	7
33	207	1
107	108	1
9	160	2
47	160	1
181	194	4
157	159	3
236	238	1
33	181	3
198	199	2
154	155	1
44	68	1
53	57	1
6	147	3
49	75	3
172	173	2
2	30	3
11	20	1
14	54	1
210	216	3
165	171	2
197	214	2
38	43	2
2	3	5
109	112	2
191	246	2
240	242	1
189	233	1
44	117	1
51	61	1
11	15	3
50	58	2
191	196	3
21	28	3
180	198	1
113	115	1
110	180	1
249	249	1
6	11	2
219	221	1
67	171	1
87	97	3
62	73	1
71	106	1
66	70	5
222	229	1
189	246	4
25	25	4
229	232	1
43	44	2
62	63	2
109	240	3
86	119	1
19	21	3
15	54	4
56	67	1
171	173	6
27	31	1
45	229	1
14	59	1
228	237	2
53	54	3
12	13	1
231	233	1
226	229	3
91	110	1
1	2	2
157	176	1
214	233	1
114	162	2
73	74	4
197	200	1
59	67	1
171	174	4
232	233	6
184	189	2
78	84	1
209	211	1
60	72	1
6	7	6
9	115	1
238	241	2
79	106	2
12	61	2
184	190	3
16	17	1
5	30	3
67	80	3
62	104	1
54	57	2
18	20	2
6	39	1
168	185	1
243	245	2
182	186	2
86	105	2
70	70	4
241	248	1
40	41	3
68	69	1
216	220	3
41	43	4
165	168	1
151	204	3
185	195	4
73	104	4
2	33	3
46	48	1
38	117	1
242	244	1
6	30	2
48	158	1
90	111	1
13	15	1
183	184	4
69	79	1
207	208	2
108	109	2
194	196	2
174	175	1
7	29	2
10	60	1
100	110	6
200	201	1
243	244	2
189	193	2
185	188	1
174	177	1
50	62	1
111	200	2
11	21	1
57	76	1
15	17	1
106	108	5
79	83	1
158	165	2
191	234	1
227	228	3
26	44	1
8	77	2
172	177	1
1	34	4
184	192	4
222	242	1
30	42	1
68	76	1
161	163	2
193	221	4
53	67	1
19	20	1
240	245	1
244	246	2
104	105	1
45	47	1
6	10	2
97	105	1
144	151	1
87	90	1
159	164	2
81	120	1
103	106	1
70	79	1
92	95	1
5	117	2
196	199	1
50	71	2
114	147	2
180	195	1
195	201	1
78	85	1
212	214	3
25	145	1
19	228	1
189	190	3
84	105	1
93	119	1
78	82	1
210	214	2
157	162	6
177	181	1
48	50	2
214	221	3
78	157	2
68	94	2
215	217	1
170	177	1
227	233	1
80	83	1
12	65	2
163	171	3
211	214	3
204	205	1
47	51	1
21	220	1
80	107	2
26	27	1
170	187	2
3	30	2
1	44	1
74	81	1
190	232	1
75	82	1
101	103	2
111	226	1
13	14	2
213	223	1
9	94	1
107	112	1
209	215	3
216	218	1
152	162	1
63	74	1
99	107	1
90	163	1
232	240	1
176	177	2
10	62	1
61	71	1
77	190	1
35	55	1
245	248	3
19	212	1
61	103	1
71	74	1
208	210	1
100	103	1
219	220	2
156	164	1
192	196	1
194	200	2
157	181	2
61	64	1
47	72	1
94	114	1
161	172	2
181	185	1
4	6	1
116	145	2
214	223	1
60	62	1
67	72	1
79	80	1
90	92	1
186	192	1
210	215	1
55	78	1
198	207	1
98	106	1
59	64	1
9	59	1
70	104	1
168	170	2
186	194	1
34	39	1
184	194	1
29	43	1
158	179	1
224	235	1
217	248	1
12	63	1
78	83	1
173	236	1
5	40	1
151	175	1
210	213	1
200	240	1
76	93	1
175	178	1
71	80	1
92	110	1
91	112	1
33	37	1
87	164	1
172	188	1
180	197	1
109	111	1
