77	77	15
134	134	22
60	61	2
107	107	4
83	83	9
78	78	3
123	135	3
84	84	13
21	21	8
100	101	6
56	56	11
59	88	1
121	121	10
73	73	9
135	135	27
1	1	6
9	40	1
90	90	10
18	18	7
29	30	3
137	138	11
35	36	4
131	131	6
42	51	2
79	79	4
95	95	8
61	61	3
62	62	11
114	114	10
6	6	4
79	81	2
126	126	12
6	19	6
142	143	4
119	127	1
93	93	4
105	105	6
112	113	5
117	117	4
98	98	4
40	40	9
130	130	20
91	91	5
39	39	12
119	119	10
124	132	4
82	82	8
129	129	6
28	28	8
8	8	11
59	75	3
125	126	6
139	139	7
10	10	8
22	23	3
141	141	11
101	102	5
86	87	2
120	129	4
60	74	3
16	39	8
136	140	1
80	80	22
12	12	3
43	43	5
25	25	6
104	104	2
135	136	4
101	101	2
100	100	6
76	116	2
106	107	1
116	117	2
75	76	1
97	98	8
61	62	5
41	95	3
19	19	8
94	94	14
104	117	3
111	116	1
32	32	13
29	29	18
133	133	13
120	120	12
111	138	1
5	5	3
123	123	16
84	85	3
74	74	7
34	35	5
1	12	3
127	128	4
145	145	1
119	120	11
74	91	3
102	134	3
41	99	2
47	62	3
94	95	3
132	132	14
123	128	3
15	38	1
109	109	11
49	49	12
93	99	3
60	60	3
114	120	1
51	51	4
102	102	5
31	33	2
118	138	4
16	62	4
27	27	7
36	38	3
73	76	2
63	91	1
1	11	2
104	111	2
133	137	4
96	96	7
34	34	9
146	146	2
96	116	8
81	81	6
122	123	10
80	89	3
108	109	6
144	144	10
137	137	5
54	71	1
52	52	12
30	30	5
22	22	12
41	41	3
13	13	3
124	124	5
85	87	5
55	55	14
103	103	5
140	140	10
15	16	5
111	111	3
64	64	4
115	119	1
38	39	3
97	97	6
30	32	3
115	115	4
136	136	5
31	32	4
116	116	7
30	62	4
63	63	9
20	22	1
89	101	1
31	31	4
118	118	11
28	48	2
101	103	9
46	47	2
118	120	5
113	113	3
21	22	1
58	59	11
99	110	1
55	69	1
118	119	5
9	10	9
16	16	4
54	55	2
125	125	5
9	9	5
91	92	4
48	54	2
65	65	4
50	50	5
74	75	8
75	75	14
66	66	2
143	144	2
37	37	13
50	53	2
140	141	3
62	83	1
104	107	2
81	82	1
68	68	5
23	23	5
142	142	9
49	50	3
47	57	2
6	23	3
127	127	7
128	128	3
87	87	11
133	134	9
35	35	7
10	11	4
38	104	4
55	59	2
85	85	5
71	72	7
92	92	3
69	69	2
41	42	3
120	123	3
117	118	7
95	96	1
40	63	1
24	28	1
143	143	4
67	68	3
61	66	4
47	47	5
32	37	1
15	15	9
28	30	1
55	71	4
138	139	3
23	57	1
90	94	2
51	52	2
50	80	1
133	136	1
138	138	5
22	24	1
141	142	6
76	76	6
38	38	6
137	139	2
67	74	2
99	113	1
99	99	5
19	27	4
3	4	2
59	59	3
85	123	1
32	41	1
26	27	2
93	96	5
53	53	1
131	132	3
24	24	7
33	33	5
97	140	1
42	42	4
5	10	4
132	134	3
40	120	1
4	4	5
20	20	4
24	25	3
71	71	5
0	33	1
106	106	8
58	58	3
125	134	1
20	21	4
19	20	1
113	116	2
72	72	4
0	30	1
93	94	1
127	131	3
2	17	2
26	26	5
126	127	3
53	94	2
26	28	1
0	0	1
114	116	3
55	68	2
88	88	1
94	96	2
71	88	1
33	34	1
53	54	6
36	36	4
107	108	2
135	140	1
132	133	4
16	37	2
19	124	1
127	129	2
48	60	1
14	16	2
108	108	6
35	99	2
86	88	1
65	70	2
122	141	1
70	70	2
13	15	2
64	65	1
58	63	1
103	104	1
0	1	2
82	84	1
37	38	1
11	11	5
78	87	1
28	29	1
38	112	2
121	122	3
63	99	1
127	130	2
117	129	1
8	10	1
61	91	1
103	113	2
77	88	1
56	66	1
62	85	2
77	78	1
123	141	1
64	87	1
25	28	1
122	122	2
126	131	1
123	130	2
66	67	3
82	83	1
132	137	1
86	86	1
52	53	3
59	60	3
110	111	1
145	146	3
48	48	1
139	140	1
17	17	3
2	2	2
89	89	2
58	87	1
57	82	2
119	130	1
4	13	1
76	121	1
25	26	2
95	114	1
116	120	2
124	134	1
115	117	1
123	132	2
76	77	1
123	136	2
49	73	1
123	126	1
52	69	1
57	57	2
97	117	1
46	46	2
64	103	2
121	123	2
16	38	1
27	29	1
123	124	2
136	137	1
74	90	1
52	70	1
41	51	1
128	137	1
71	76	2
108	116	1
96	97	1
21	24	1
40	112	1
55	67	1
102	103	1
103	111	1
3	34	1
98	117	1
53	68	1
88	90	1
54	54	1
34	54	1
131	133	1
3	3	1
123	144	1
67	67	2
8	38	1
57	67	1
62	104	2
113	115	1
34	98	1
18	19	1
68	69	1
113	114	1
91	101	1
48	49	1
