50	51	5
79	92	2
93	111	2
106	106	3
112	112	4
31	31	2
96	96	3
94	96	1
72	72	5
100	110	1
53	84	6
43	46	3
80	80	6
41	41	5
83	84	3
24	24	12
77	77	8
113	113	12
52	52	7
68	68	9
57	57	11
79	79	5
59	59	4
38	38	8
82	82	4
94	97	2
26	26	8
29	29	7
78	78	8
39	39	3
32	34	1
93	112	4
88	88	5
101	103	1
48	49	5
36	40	3
32	32	10
21	23	2
110	110	14
73	73	5
102	102	5
80	83	5
19	22	3
92	94	3
46	46	14
73	74	2
100	101	3
37	38	6
36	36	5
63	64	4
47	47	5
87	87	2
97	97	1
66	66	11
92	92	6
23	24	2
40	41	2
49	49	10
81	89	2
55	55	12
54	93	3
44	45	4
29	30	5
91	91	6
91	93	2
70	70	1
103	103	7
63	63	4
34	35	2
98	98	11
103	112	2
101	102	5
31	34	1
78	79	7
58	58	17
27	36	1
33	33	5
42	42	6
98	103	1
53	89	1
89	89	1
25	26	4
92	93	2
67	68	5
113	114	3
60	60	5
19	39	3
109	110	4
97	102	2
97	99	1
37	37	16
102	103	3
83	83	5
88	89	7
66	67	4
58	59	10
27	27	3
95	95	4
90	90	5
98	101	1
62	95	2
90	91	2
95	96	1
53	53	7
45	45	6
25	25	7
22	23	4
89	90	1
81	81	3
31	55	1
76	76	8
22	22	11
29	63	3
55	60	2
111	111	4
108	108	5
51	51	3
68	71	4
20	20	5
94	94	9
68	69	1
28	48	1
98	109	2
72	74	1
107	110	2
80	87	3
61	74	2
99	111	2
64	65	1
63	67	3
78	98	3
40	42	2
99	101	2
82	84	5
45	47	1
91	109	1
60	71	4
97	98	1
39	40	7
55	61	4
54	61	1
104	107	4
62	62	3
101	101	3
23	23	3
61	62	3
63	71	2
20	26	1
105	105	9
107	108	5
69	69	3
49	86	2
109	109	9
82	87	2
70	72	1
48	48	5
27	29	1
93	94	1
77	78	3
72	73	2
111	112	2
21	21	2
107	107	9
75	78	2
30	39	1
41	46	3
19	34	3
35	35	5
23	25	1
51	54	1
58	95	5
89	91	3
20	39	1
98	102	2
43	43	3
62	70	1
71	74	1
48	65	2
85	86	4
30	30	2
28	33	1
100	100	6
90	94	3
58	81	1
38	39	3
65	66	2
53	55	3
98	99	3
46	85	3
36	38	4
65	65	2
75	75	5
52	60	1
24	25	1
55	67	1
28	30	2
96	97	1
74	74	2
33	34	2
59	62	2
53	60	1
114	114	3
106	109	1
62	67	1
75	76	1
37	40	1
93	113	2
82	86	3
78	88	1
59	69	1
67	69	2
34	34	2
29	31	3
80	81	2
60	95	5
105	109	2
33	37	3
54	73	1
83	85	2
81	82	2
35	56	2
92	95	1
90	93	2
71	71	2
40	53	2
39	91	1
79	104	1
79	98	2
83	86	3
105	107	1
41	42	4
79	87	1
47	48	3
64	64	1
50	50	3
112	113	2
57	58	1
104	106	2
99	100	2
67	67	3
34	59	1
28	29	4
60	94	2
31	35	1
95	102	1
31	72	1
85	85	3
80	86	2
97	103	1
110	111	1
88	102	1
53	66	3
53	79	1
93	93	1
23	34	1
58	80	2
54	57	1
19	19	1
32	60	2
84	105	2
76	77	1
70	71	1
94	95	1
54	59	1
108	111	1
46	49	1
62	94	1
32	33	1
38	57	1
31	32	2
100	103	1
43	44	2
86	86	1
53	54	2
104	109	1
56	59	1
74	75	1
78	97	1
60	63	1
44	44	2
96	104	1
47	49	1
40	40	1
54	56	1
42	46	1
28	28	1
33	93	1
87	90	1
48	89	1
61	84	1
82	83	1
55	59	1
91	95	2
81	83	1
28	71	1
81	85	1
39	59	1
