150	150	20
220	220	22
171	171	14
107	107	17
210	210	23
43	43	24
113	113	11
156	156	15
15	15	4
70	70	9
190	191	7
211	212	6
192	192	23
15	36	3
8	8	24
86	86	12
184	185	5
55	63	1
41	41	23
110	110	23
1	1	7
225	226	7
213	213	16
156	158	1
216	218	4
157	157	11
40	46	2
152	152	19
199	199	9
205	205	19
218	218	8
216	216	12
21	21	13
159	159	23
119	247	4
35	36	5
119	119	20
182	183	7
30	37	4
20	20	10
73	73	4
45	46	1
50	50	6
185	222	1
105	105	6
208	209	6
97	114	3
176	176	31
203	203	20
118	119	8
14	14	12
88	88	9
200	201	2
28	28	10
167	210	8
208	208	24
231	232	1
245	245	13
164	164	20
101	102	4
119	120	3
47	47	17
30	30	12
208	211	2
187	188	17
90	90	12
212	218	1
172	172	9
101	101	20
2	2	6
15	37	1
160	160	19
184	184	26
167	167	15
227	228	3
226	226	14
219	219	21
103	103	8
197	198	14
3	3	9
20	21	1
107	118	7
219	246	5
168	168	20
59	59	17
76	76	13
223	223	13
187	189	4
200	205	1
190	190	8
217	218	7
111	111	12
116	116	25
42	43	5
241	241	19
120	120	13
104	104	8
77	77	10
80	80	12
185	185	4
36	40	3
27	27	13
11	11	12
50	51	1
153	195	3
193	195	3
191	191	15
185	189	4
110	111	7
214	214	20
54	54	14
145	145	18
19	19	8
49	49	14
32	86	6
114	114	8
118	118	19
71	102	2
106	106	18
35	35	5
55	55	8
237	237	24
104	106	6
227	234	2
217	217	17
175	175	26
95	98	2
202	202	20
99	99	12
7	7	11
8	9	1
228	228	10
211	216	3
155	155	20
226	233	4
117	117	7
238	239	7
177	178	2
58	58	10
227	227	10
200	200	13
6	6	16
58	59	2
40	40	10
47	58	4
84	84	4
187	190	4
63	63	11
68	69	9
167	169	4
17	17	7
197	197	15
177	177	19
43	44	3
34	47	3
24	24	9
165	166	15
23	23	9
181	181	17
58	61	2
215	215	12
93	93	11
100	101	6
183	185	1
234	234	24
42	42	11
58	60	5
194	221	2
57	58	4
230	230	18
202	222	2
80	81	5
149	150	2
158	158	28
227	229	3
83	83	12
224	224	6
108	108	11
194	194	5
174	174	4
244	244	10
94	95	8
212	212	36
65	66	4
211	211	12
68	68	23
2	3	4
196	196	5
182	182	9
247	247	11
36	36	19
155	156	6
209	210	7
189	191	5
233	233	9
112	112	17
170	170	21
54	55	3
162	162	21
83	84	2
4	4	9
239	240	2
109	109	8
156	157	7
10	10	17
108	119	10
85	86	8
242	244	5
45	45	9
236	237	11
15	16	4
41	42	5
237	239	2
204	204	12
195	196	3
189	212	1
16	21	1
224	225	4
111	245	9
232	232	4
32	32	15
161	161	15
46	46	9
246	246	23
248	248	3
166	166	16
151	151	14
209	209	20
186	186	22
102	103	7
29	29	5
183	184	7
214	215	6
32	49	1
30	31	5
57	57	5
31	31	12
163	166	3
183	183	8
78	95	6
76	98	4
60	60	13
103	104	3
206	207	4
238	238	4
74	74	16
22	22	4
0	0	3
37	37	10
204	205	5
114	115	8
68	89	2
107	108	7
13	14	3
34	34	2
28	29	1
146	146	4
79	79	9
69	69	18
207	207	13
162	163	11
53	53	2
158	159	8
92	92	8
230	231	12
81	81	14
34	35	8
117	246	3
195	195	13
213	214	10
44	44	14
189	189	17
238	246	5
115	115	7
197	199	5
201	201	18
194	198	3
163	165	3
48	50	4
169	169	20
81	82	5
12	12	3
235	235	21
181	184	7
185	186	3
3	11	5
65	93	3
180	180	19
117	118	3
194	195	3
171	173	3
62	169	4
58	62	1
243	243	8
38	50	2
60	61	4
69	72	5
23	93	2
115	118	1
26	26	20
96	96	16
42	179	1
176	177	5
51	52	3
188	190	8
3	4	9
82	82	1
18	20	2
98	98	9
111	113	4
179	179	17
32	36	2
16	16	6
167	168	4
75	97	3
21	22	3
225	225	12
64	87	4
167	170	3
42	48	2
172	173	7
67	67	14
215	219	4
76	80	4
88	89	8
235	236	1
192	208	1
5	5	4
64	64	11
237	238	4
165	176	3
188	188	5
115	116	6
30	87	3
65	65	9
78	78	5
167	237	3
63	94	1
56	56	13
6	8	7
48	48	18
43	179	1
239	242	1
66	66	6
230	233	1
170	176	3
160	165	4
212	213	4
157	158	3
14	15	8
91	91	3
244	245	3
191	192	4
159	160	1
97	97	14
6	7	12
163	164	7
8	10	5
175	176	9
61	61	3
198	198	26
165	165	15
180	181	2
160	161	5
170	171	6
236	236	12
94	94	17
9	11	6
79	80	6
245	246	2
244	247	2
52	52	3
237	243	2
153	209	1
62	72	4
116	168	4
89	90	3
87	87	10
70	90	2
75	76	9
241	242	3
208	216	2
97	98	3
52	62	8
185	219	3
66	67	6
187	191	5
33	33	8
154	154	17
207	208	6
113	114	2
18	55	3
157	178	1
167	211	4
214	216	2
9	9	10
184	215	1
179	180	9
198	200	5
64	66	3
102	102	7
55	56	10
210	211	6
247	248	4
231	231	12
172	178	2
72	72	10
91	92	4
239	239	8
16	190	2
76	77	5
186	189	3
62	62	2
87	92	1
11	204	4
159	166	5
156	162	2
162	165	2
190	196	3
98	99	4
193	194	5
229	229	2
219	224	2
186	198	2
10	11	3
51	65	3
195	198	3
75	75	13
232	233	1
242	242	16
237	240	2
96	97	3
57	245	1
106	108	2
73	74	7
152	160	2
168	237	3
99	101	4
216	217	6
169	171	3
31	44	1
68	72	3
37	91	1
145	172	2
171	244	7
51	51	9
52	241	1
38	38	11
25	64	3
208	210	5
221	222	10
72	89	1
153	153	8
76	83	2
188	189	6
174	176	3
181	182	3
59	60	2
163	163	5
84	98	1
199	234	3
240	240	5
166	167	8
158	166	2
226	234	1
34	39	3
233	234	3
209	211	1
164	166	6
226	228	3
32	33	1
100	100	7
207	219	1
240	241	5
52	59	2
31	45	2
18	18	3
39	46	1
96	212	1
193	193	8
27	28	2
187	187	6
173	173	4
151	160	2
73	75	6
168	169	5
22	26	3
36	39	2
93	167	2
55	245	1
72	73	2
7	17	3
155	205	2
112	113	1
89	89	2
221	221	7
71	71	10
146	147	3
249	249	4
71	145	2
2	27	1
161	162	2
16	44	3
178	179	10
178	178	8
23	24	2
239	241	2
222	222	3
206	206	10
193	196	1
25	25	4
196	197	5
167	177	3
5	146	4
175	178	1
153	154	4
199	200	3
170	177	1
51	78	1
192	215	3
39	39	9
205	206	2
223	224	3
95	95	1
194	196	3
246	247	2
90	91	5
226	227	3
211	213	5
240	242	1
33	34	1
53	172	2
116	117	2
201	202	9
87	89	2
29	30	2
35	39	1
189	192	1
232	234	1
42	81	2
25	26	3
78	79	4
49	58	2
110	112	4
206	212	1
15	19	3
32	44	1
61	63	1
116	162	2
165	210	1
56	57	1
89	91	2
12	19	2
35	47	2
193	197	1
183	223	2
210	213	3
185	212	2
149	149	6
14	18	4
202	203	2
20	22	2
180	183	4
204	224	2
201	204	3
109	110	3
59	61	2
158	177	1
47	48	3
71	73	1
119	153	1
215	216	5
189	218	4
191	196	5
162	219	2
78	82	1
91	119	3
5	6	1
198	199	1
33	39	2
165	178	2
150	162	3
33	38	4
241	245	6
65	67	2
189	190	5
185	210	3
49	50	1
244	246	1
186	208	1
143	147	3
210	214	2
219	220	2
189	196	2
10	26	1
1	2	1
82	83	5
153	155	1
22	23	1
163	171	1
28	90	2
190	195	1
0	1	3
48	69	1
9	16	1
175	244	1
87	90	2
161	163	2
175	182	2
239	249	1
40	42	2
191	194	2
84	151	2
34	99	1
62	168	3
40	41	4
198	221	2
100	159	2
106	119	1
68	70	1
77	78	2
152	153	2
156	164	1
194	199	1
240	248	1
34	86	1
114	150	1
74	75	2
31	32	2
95	97	2
186	187	3
68	75	1
26	205	2
215	218	1
171	174	2
8	15	1
70	75	2
189	215	1
157	166	2
85	85	4
225	234	1
218	245	1
186	219	2
27	41	1
18	19	2
160	167	1
49	70	1
218	246	1
98	100	1
192	193	1
54	66	1
185	238	2
222	223	1
71	72	1
64	65	3
150	153	2
186	224	1
44	46	2
188	196	1
35	76	1
108	110	1
72	90	1
166	236	2
209	214	3
245	247	1
76	99	1
105	106	2
31	33	1
55	57	1
215	217	2
176	180	1
32	39	1
104	105	1
248	249	1
154	199	1
231	233	1
9	10	1
165	167	1
158	189	3
172	240	2
180	193	1
183	218	1
78	94	1
114	116	3
108	109	1
16	36	1
5	18	1
151	155	1
30	216	1
77	79	1
88	95	1
62	63	1
81	83	1
84	85	2
50	61	2
78	80	1
12	18	1
34	71	1
42	172	2
109	115	1
2	28	1
163	177	1
38	192	1
56	60	2
199	220	1
30	144	1
41	43	1
109	118	2
121	121	1
148	247	1
63	64	1
152	196	1
173	177	1
78	100	1
49	85	1
46	47	1
104	107	1
171	172	1
35	85	1
89	94	1
236	243	1
69	71	1
240	247	1
35	49	1
174	183	2
222	224	1
154	200	1
99	100	1
80	83	1
238	247	1
115	207	1
