138	205	3
106	106	15
10	19	1
66	67	3
85	85	33
134	134	14
53	54	5
101	101	21
77	77	14
65	65	23
133	134	11
200	200	5
56	57	10
213	214	3
80	84	6
149	189	1
51	51	5
9	29	2
131	133	4
142	143	7
208	208	14
144	174	3
37	37	37
133	227	1
140	142	5
141	141	7
189	190	9
203	203	17
20	20	18
43	43	38
232	233	11
2	65	5
153	153	37
33	36	5
43	45	3
235	235	17
185	186	2
49	49	10
157	157	13
211	212	7
30	30	19
43	44	4
140	140	15
46	46	25
66	66	16
236	237	5
56	62	3
39	39	40
9	10	14
161	161	17
79	86	4
100	128	7
209	210	4
141	192	2
39	43	2
184	184	10
32	32	12
2	22	8
210	218	4
20	25	2
44	46	3
73	73	5
161	228	3
113	113	9
10	10	24
147	148	3
21	25	2
147	147	7
211	216	2
13	17	3
135	204	6
15	16	23
172	172	19
76	77	9
12	13	5
177	177	7
100	126	3
25	26	11
25	29	4
47	47	22
110	110	11
57	58	8
167	168	7
38	38	22
228	228	9
70	70	33
60	60	26
24	25	7
144	144	12
229	229	5
162	162	13
139	143	1
189	189	14
164	165	7
52	53	5
108	108	6
135	135	9
67	68	1
41	75	2
212	213	8
59	59	11
40	76	5
68	68	4
193	196	1
52	52	13
1	50	4
233	233	19
206	207	3
1	3	11
69	69	27
140	186	3
160	162	5
26	26	22
84	84	18
36	36	25
28	28	25
232	232	12
173	173	12
31	31	15
70	71	7
37	41	4
131	131	3
146	147	7
8	8	13
191	191	17
197	197	24
21	21	6
139	139	12
29	29	21
195	196	4
79	80	4
28	43	1
51	52	10
210	210	15
63	63	21
122	122	4
50	50	18
4	8	4
37	38	9
44	45	8
179	179	1
86	86	29
12	12	34
104	123	1
9	9	32
198	198	20
130	130	8
23	24	10
16	21	2
45	45	11
195	195	10
104	104	9
194	194	5
7	7	11
67	67	7
136	136	9
34	34	4
190	203	4
105	105	8
220	220	17
192	192	10
190	218	1
35	35	13
17	17	17
236	236	15
48	48	13
183	183	21
146	146	8
40	40	15
170	170	12
107	108	2
54	55	11
97	97	18
135	136	11
7	16	5
173	174	3
128	131	4
27	28	6
13	13	7
223	223	8
55	56	4
33	33	14
169	174	4
44	67	2
47	62	2
88	89	5
240	240	10
102	103	3
27	27	26
222	222	7
181	183	9
46	64	3
62	65	3
224	224	7
26	27	8
207	208	6
204	204	22
7	17	3
25	25	22
136	138	1
102	128	2
62	62	29
102	102	21
127	127	7
1	29	1
226	227	4
186	186	4
242	242	16
42	42	23
152	152	16
175	175	7
225	225	13
189	191	1
2	2	4
115	115	5
146	174	2
1	1	10
212	214	2
111	112	3
137	138	8
71	71	15
192	193	6
237	237	10
138	138	6
202	202	9
199	199	6
9	20	4
96	96	7
194	195	6
24	24	15
88	88	14
0	1	10
82	82	7
46	68	2
117	117	7
209	209	12
171	179	1
238	238	12
91	91	2
169	170	4
194	196	1
22	23	8
196	196	13
193	202	3
182	183	6
158	162	8
143	143	10
171	172	7
213	213	14
118	119	3
16	16	8
154	155	8
174	174	18
126	126	5
228	231	1
145	166	2
39	40	5
53	53	21
159	163	6
170	173	9
82	83	15
219	219	12
169	169	3
22	84	1
5	7	5
227	227	16
145	145	6
188	188	11
187	188	6
134	135	7
10	71	1
11	11	9
184	188	1
159	159	15
125	126	14
25	36	1
230	237	2
153	154	5
64	64	29
211	211	12
23	23	18
139	186	4
115	121	3
216	216	12
54	56	3
158	158	7
169	175	2
127	128	6
219	232	6
182	182	19
240	241	1
98	98	8
151	218	2
2	3	3
128	128	18
228	230	1
168	168	6
231	231	16
154	154	16
41	52	1
65	66	9
34	35	11
156	158	1
50	57	2
4	4	3
139	142	2
56	56	22
68	69	5
32	33	9
191	219	4
139	205	2
76	79	4
12	14	7
115	123	2
2	29	2
224	225	9
136	236	4
63	64	5
125	129	2
165	165	11
195	202	2
49	72	1
20	37	1
35	36	2
141	186	6
217	217	14
160	160	12
44	74	3
9	28	3
219	221	1
100	192	5
42	43	8
3	44	3
159	160	1
57	61	2
120	120	7
19	19	13
204	205	5
19	22	3
39	60	2
166	166	6
103	105	2
26	44	2
172	205	4
187	187	10
193	193	11
5	5	3
205	205	3
217	218	6
55	61	6
220	221	1
83	83	3
74	75	6
24	27	4
78	78	11
18	18	11
181	181	10
6	14	7
5	22	4
151	151	11
227	228	7
236	239	5
7	15	3
61	61	17
76	80	5
55	55	9
218	218	5
72	97	1
1	67	3
22	22	4
125	125	3
155	159	5
144	154	4
119	121	5
241	241	7
149	209	5
124	124	3
74	74	24
104	105	2
171	171	14
12	15	2
135	193	7
3	3	8
64	214	4
177	210	4
228	229	3
234	237	3
99	100	3
100	125	2
200	201	10
6	13	7
59	60	2
6	6	12
108	121	3
35	59	3
229	230	10
68	71	3
167	167	13
142	142	6
61	62	5
44	44	9
75	75	6
57	57	4
219	220	5
155	157	2
78	79	5
137	137	5
106	107	3
42	48	2
198	200	5
225	227	2
33	58	3
238	240	4
113	118	3
190	190	14
50	51	9
175	208	4
180	181	2
9	65	4
168	170	4
51	72	4
57	59	4
151	189	2
118	118	1
199	200	6
201	201	12
128	129	7
239	239	10
23	37	4
184	185	1
4	7	5
9	11	2
17	32	2
221	222	1
5	12	1
56	60	1
235	239	3
54	65	2
133	135	4
231	234	4
119	131	2
177	178	1
136	137	4
230	230	4
97	101	5
166	167	5
72	72	3
163	163	8
26	110	2
108	125	3
163	208	2
29	30	5
30	31	1
188	189	3
40	41	12
215	215	6
210	213	1
207	207	14
234	234	11
114	115	2
12	19	1
21	23	3
135	138	1
148	149	3
212	212	6
144	207	4
63	120	1
163	164	11
69	70	11
190	204	3
103	103	7
237	238	10
0	67	5
36	39	2
149	149	10
67	72	3
231	232	6
173	175	4
239	240	7
218	219	5
18	19	3
37	39	3
45	46	6
178	182	3
71	72	11
3	4	5
203	204	1
181	185	3
222	223	3
169	176	4
45	216	3
2	5	2
23	81	6
147	203	2
129	129	4
13	14	7
80	80	7
38	64	1
56	59	3
183	184	8
177	209	6
9	26	6
76	76	6
9	27	2
62	64	2
150	150	12
135	191	1
206	206	3
139	141	3
155	155	3
99	99	5
208	210	2
112	122	2
202	203	4
178	178	5
8	9	2
47	56	1
186	219	2
146	148	1
48	65	1
133	133	7
231	237	3
71	99	2
54	54	16
140	194	1
53	61	2
86	88	2
156	159	3
37	86	2
182	191	2
121	121	4
234	235	3
41	41	5
168	225	1
12	70	1
101	126	4
105	125	3
172	174	1
46	101	5
124	126	3
215	223	2
117	118	3
73	74	8
41	80	1
62	63	3
127	129	2
107	123	3
39	42	5
191	218	2
85	86	8
107	124	1
130	131	1
228	233	1
14	136	4
34	36	2
146	153	1
89	89	5
145	147	2
47	48	3
38	63	2
0	49	3
21	32	1
139	187	2
162	174	4
176	177	3
190	191	3
43	46	3
58	58	16
49	50	10
29	41	1
109	150	2
234	236	5
12	17	6
191	192	2
82	84	2
146	154	2
220	222	2
81	81	3
95	108	7
223	228	2
41	49	2
98	99	3
128	176	1
148	153	1
178	202	1
109	110	6
162	165	2
70	85	1
159	175	5
38	39	1
38	65	2
14	34	2
173	189	1
8	18	2
173	180	5
144	204	1
78	81	3
233	242	2
111	111	8
161	172	3
161	162	6
197	198	5
45	97	3
201	202	4
174	189	5
128	134	1
146	204	1
40	67	3
79	79	4
170	175	1
71	74	3
116	116	6
61	65	5
17	77	4
210	211	3
53	55	2
204	206	2
214	214	7
167	169	3
114	114	4
231	233	2
41	42	4
209	228	4
11	13	3
140	219	5
28	33	1
156	156	4
138	187	3
179	188	2
28	29	6
8	11	1
109	216	3
205	215	3
172	190	2
225	226	1
103	122	2
138	139	2
69	88	5
178	199	2
7	8	6
36	58	3
11	70	1
173	178	3
190	224	2
41	78	2
145	213	4
15	15	4
110	134	4
181	182	2
37	65	1
125	127	3
205	206	4
27	76	2
161	224	2
144	155	1
190	205	1
16	17	2
58	59	5
193	220	1
79	118	1
133	198	1
74	88	3
182	223	3
100	100	5
0	21	1
203	218	1
46	47	3
20	75	1
81	84	2
147	153	1
221	221	8
19	66	6
4	16	2
145	146	6
136	203	5
138	142	1
185	185	3
71	86	2
196	197	2
176	176	2
220	223	3
233	236	1
36	38	2
142	187	2
167	170	3
16	33	1
121	122	1
87	88	2
24	38	2
33	35	2
155	156	2
209	229	1
0	0	3
11	19	2
46	199	1
159	165	1
98	100	2
18	31	1
81	89	2
21	22	5
70	99	1
0	24	2
164	164	1
5	8	2
147	216	2
155	160	2
164	209	1
241	242	1
13	19	2
20	21	4
161	191	3
36	37	2
6	34	2
3	29	1
43	47	2
126	129	4
72	74	3
172	175	1
151	184	2
9	70	1
144	203	1
73	85	1
163	228	1
148	148	5
132	133	3
8	20	3
230	231	1
2	31	1
19	20	3
123	124	2
100	101	3
41	90	1
178	201	1
26	38	1
217	219	4
75	83	1
81	82	3
113	120	2
136	193	1
112	112	4
177	211	1
216	217	2
33	34	5
101	102	2
48	50	1
138	143	1
77	104	2
5	6	3
177	201	1
112	113	1
85	211	1
235	237	1
70	89	1
96	97	1
56	58	3
76	78	1
71	73	2
78	84	2
36	42	2
25	33	2
159	164	2
15	36	2
35	39	1
182	188	1
29	38	2
60	61	1
193	194	1
103	124	2
165	173	1
109	109	4
7	12	5
17	75	1
2	6	3
23	27	1
64	65	3
12	16	1
0	8	2
103	106	2
150	151	3
195	197	1
38	69	1
66	72	2
207	209	3
171	173	1
95	103	1
182	184	1
3	5	1
193	201	2
63	65	1
45	68	1
172	179	1
29	32	1
85	96	1
84	85	3
137	143	1
23	91	2
12	89	2
144	175	2
179	180	9
1	2	2
72	100	1
181	186	2
0	32	1
37	43	1
8	62	1
11	12	1
58	60	2
180	180	1
186	187	1
109	121	1
6	7	3
116	117	1
144	146	1
104	124	1
14	16	1
52	66	1
144	210	1
204	208	1
171	225	1
178	218	1
81	83	1
16	19	1
16	34	1
189	218	1
193	195	1
140	153	1
17	18	1
120	121	1
13	54	1
41	50	1
51	53	2
3	17	2
99	101	2
236	238	1
139	206	1
107	107	1
58	61	1
32	34	1
168	208	1
104	126	1
75	76	1
175	207	1
0	3	2
135	137	1
24	85	2
123	126	1
170	172	1
85	118	1
0	5	1
161	174	1
137	205	2
24	28	1
42	58	1
183	189	2
176	178	1
186	192	1
30	33	1
233	234	1
134	194	1
75	88	1
80	82	1
39	76	1
141	189	1
222	227	1
183	222	3
220	231	1
234	238	1
96	101	1
172	191	1
162	175	1
28	62	1
104	129	1
214	215	1
135	192	1
30	37	1
14	79	1
141	187	1
140	141	1
103	104	1
