152	152	7
24	40	1
23	23	12
4	4	3
96	96	1
55	71	1
19	37	3
165	165	2
140	141	1
56	65	4
66	66	9
78	79	2
59	59	5
91	137	2
156	167	4
52	53	1
81	81	5
23	24	5
163	163	4
153	153	5
30	30	3
24	24	4
91	91	8
46	46	3
55	55	3
101	103	2
164	165	3
139	139	2
64	98	2
172	172	3
11	11	2
93	93	3
179	181	2
136	136	2
80	80	3
65	65	3
164	164	3
72	72	7
138	138	3
67	67	5
40	40	4
128	128	8
174	174	6
27	31	3
120	120	2
105	179	1
135	135	2
161	163	2
96	137	3
156	157	2
178	179	2
106	106	3
38	38	7
190	190	2
19	19	5
155	171	3
182	182	6
143	143	2
172	173	3
115	118	3
108	117	2
12	13	1
1	5	1
68	68	1
146	147	1
173	173	6
13	33	4
111	111	10
72	98	1
110	113	2
72	73	3
22	22	2
127	127	7
82	82	1
38	48	3
87	87	3
41	41	2
14	15	2
31	31	5
173	174	2
126	127	1
132	132	3
28	28	3
18	18	3
69	70	2
184	184	14
73	74	3
21	21	7
22	23	3
95	100	1
6	6	3
156	156	2
5	6	5
112	112	5
121	121	4
13	13	2
154	154	2
148	151	3
56	56	6
126	141	1
43	73	4
117	117	1
84	84	8
21	27	2
109	109	1
149	150	3
2	26	1
115	116	2
169	169	3
105	178	2
57	156	2
129	130	1
29	29	3
75	92	1
180	181	2
176	176	1
57	152	2
47	48	1
77	78	2
167	190	1
133	133	2
189	189	1
185	185	2
145	145	3
28	42	2
133	136	1
30	32	1
7	42	2
14	47	3
123	123	2
89	89	6
35	35	6
28	31	1
102	102	1
134	134	2
79	79	4
55	56	1
53	55	3
109	153	2
62	81	1
122	122	1
25	25	5
188	190	4
98	98	2
70	72	1
73	73	3
137	137	3
63	63	4
33	34	2
58	59	5
52	52	2
175	181	1
107	108	3
45	76	2
61	177	2
69	69	1
7	7	2
137	138	2
93	134	1
15	15	7
42	42	3
165	166	6
116	171	3
47	60	1
171	173	4
155	165	2
2	3	1
180	180	1
65	106	1
150	150	3
142	142	3
109	121	3
88	88	3
41	42	2
105	180	1
56	83	1
76	76	2
76	77	4
46	79	3
97	97	1
171	171	6
91	93	2
54	54	3
157	157	2
48	48	3
16	39	1
64	92	3
8	34	3
86	91	5
32	34	1
74	74	2
146	146	5
37	37	6
44	44	2
117	118	1
65	67	6
118	118	3
3	3	3
109	156	2
71	99	2
25	46	3
113	113	3
0	76	2
178	180	2
32	33	1
43	43	1
110	116	1
160	165	2
79	95	2
104	175	2
177	178	2
155	155	5
14	117	1
189	190	2
183	184	5
178	178	1
10	11	2
39	40	1
115	115	1
24	25	2
114	114	5
18	35	1
53	54	3
1	76	1
144	144	3
147	167	1
69	85	1
83	137	1
15	183	3
171	172	2
55	67	1
113	182	3
61	61	1
14	35	1
84	85	1
2	40	3
90	91	2
101	101	1
177	177	1
26	37	2
183	183	2
133	137	1
157	162	5
80	118	1
27	28	2
110	110	1
147	147	2
125	125	2
166	169	1
72	96	1
133	140	1
90	90	1
116	116	2
57	57	4
11	26	3
27	27	4
113	122	2
72	83	1
91	92	3
39	42	1
112	113	1
129	129	2
60	60	1
34	34	3
20	20	1
94	94	2
139	142	1
188	189	2
94	95	1
125	149	3
8	8	2
168	168	1
155	158	1
63	109	1
18	52	1
162	162	1
107	118	1
148	148	3
16	17	1
20	46	1
10	53	1
130	135	1
46	47	3
108	108	2
131	131	1
62	155	1
17	26	1
145	185	1
57	119	2
98	99	1
102	146	1
18	20	1
74	76	1
145	146	1
83	83	1
63	64	1
17	47	1
76	84	2
94	100	1
101	147	1
133	135	1
40	41	1
99	137	1
100	100	1
33	33	1
7	43	1
63	117	1
5	5	1
116	117	1
0	62	1
121	122	1
130	133	1
3	19	1
95	95	1
82	83	1
92	93	1
186	186	1
73	86	2
181	182	1
56	64	1
62	63	2
58	82	1
89	90	1
115	119	1
12	14	1
48	93	1
162	174	1
14	34	1
55	59	1
167	167	1
