85	85	8
21	22	7
37	37	18
119	119	6
34	34	11
120	123	1
136	137	11
31	31	11
83	83	5
59	82	4
63	63	10
81	81	9
38	40	4
58	58	17
121	121	12
136	140	2
3	31	4
76	76	11
22	22	16
13	13	9
78	78	3
134	134	14
54	54	22
97	98	6
125	126	9
137	137	15
79	79	17
29	29	20
70	71	6
99	123	7
61	64	1
86	86	1
71	128	3
20	35	4
70	70	12
115	115	14
55	55	11
127	144	2
74	75	3
28	28	23
69	69	9
36	36	7
1	1	9
57	57	11
37	48	3
98	98	11
126	143	1
111	139	2
67	67	6
97	97	7
130	130	9
112	112	10
25	26	9
95	141	5
93	94	9
80	80	8
64	64	7
84	84	18
140	140	9
55	130	4
39	47	2
51	52	5
19	19	11
12	12	4
77	79	6
14	15	4
139	140	6
24	26	3
3	83	3
136	136	11
64	136	2
119	132	2
122	122	14
74	74	11
24	24	15
57	58	6
11	11	10
27	27	20
40	50	4
35	121	2
40	40	17
90	90	3
56	56	10
72	79	1
26	26	9
126	126	22
99	99	7
32	32	7
28	29	4
18	18	18
97	110	3
95	119	3
24	25	11
73	110	1
51	86	2
105	106	5
59	89	5
60	60	14
100	100	13
30	30	14
133	137	3
135	135	19
142	143	7
59	59	9
122	123	3
56	88	1
114	114	7
14	14	10
19	20	3
111	111	3
15	15	4
5	5	7
110	110	5
62	64	3
17	18	7
21	21	3
33	35	2
41	42	4
94	94	4
143	143	10
4	34	5
131	131	20
2	2	4
120	120	14
106	131	2
124	141	3
110	118	2
11	36	5
95	97	2
39	39	12
9	49	5
127	129	2
77	78	3
13	24	1
140	141	2
105	105	12
94	120	6
115	117	1
20	20	13
95	95	11
112	117	1
106	107	5
20	21	5
21	38	5
117	117	16
9	16	2
135	136	3
12	83	3
77	77	8
67	73	2
3	9	2
91	91	11
118	138	2
51	51	11
133	134	1
72	108	6
49	105	3
144	144	11
109	110	1
128	128	15
67	126	1
64	67	4
118	118	18
90	112	1
32	55	3
141	141	8
39	40	5
138	139	4
92	93	2
88	120	4
71	72	2
89	89	13
120	138	5
52	52	5
88	112	1
20	47	3
103	103	11
38	38	19
53	54	2
123	123	25
63	64	6
138	138	21
35	35	6
109	109	9
19	25	4
17	17	11
85	125	5
64	85	3
8	8	13
88	88	1
3	4	7
75	107	4
9	89	2
81	106	3
1	48	3
137	140	1
91	136	1
25	25	5
139	139	14
48	48	10
0	0	8
0	6	1
49	50	5
24	108	2
101	101	4
16	24	1
92	137	4
17	23	1
59	100	3
61	61	7
107	107	8
87	109	3
58	59	2
43	43	9
91	92	2
32	33	1
9	9	6
116	132	4
125	125	21
65	65	11
114	118	3
108	108	8
118	120	3
3	3	13
41	41	7
56	109	3
47	47	3
123	124	3
59	60	5
72	72	8
97	107	3
127	128	2
66	68	3
1	10	1
48	55	1
67	86	3
35	36	4
81	82	3
119	122	2
141	142	3
124	124	3
71	71	18
94	95	1
132	133	1
18	60	2
72	128	2
13	35	3
137	138	10
4	4	6
118	139	3
94	116	1
108	140	1
82	82	7
2	26	3
1	5	2
99	101	1
71	133	3
118	119	6
94	97	2
50	50	9
75	75	3
139	141	3
53	53	7
59	141	2
89	112	2
69	70	3
36	96	2
64	65	2
69	129	2
73	73	6
79	127	1
79	85	3
46	72	2
52	108	1
68	127	2
110	133	2
121	123	4
52	99	3
71	87	1
132	138	3
128	129	3
4	5	4
99	121	1
62	62	2
87	88	4
112	119	1
10	11	5
76	107	1
90	92	2
22	41	1
3	33	2
101	141	1
23	23	11
115	116	1
66	66	7
16	16	7
134	135	3
73	74	6
136	139	1
53	101	1
8	9	3
108	118	3
36	37	3
10	27	1
38	125	2
20	55	2
136	138	3
87	107	2
129	129	10
52	72	1
83	88	4
87	92	3
40	41	2
62	63	2
65	66	2
22	38	2
61	106	2
88	90	1
6	6	4
92	92	8
31	33	5
38	48	2
130	134	2
56	57	3
56	62	2
95	124	1
100	101	4
34	35	2
24	50	2
13	14	3
42	42	4
66	126	3
15	16	1
68	68	7
127	135	1
72	98	1
144	145	2
145	145	3
65	98	1
146	146	4
117	119	1
113	122	1
33	33	7
24	143	2
116	116	9
14	16	1
104	104	3
29	141	2
49	49	2
50	126	2
12	14	2
131	132	4
73	81	1
61	62	2
60	83	1
90	99	1
19	105	1
79	138	2
29	30	4
125	130	3
25	62	1
105	109	2
93	106	1
120	126	2
88	89	3
79	142	1
93	93	13
53	100	1
57	99	1
16	17	3
120	121	4
99	100	3
106	106	6
113	117	3
83	90	3
55	140	1
10	10	6
37	123	2
3	97	1
66	90	1
82	83	2
20	26	1
50	52	1
32	34	1
50	89	1
135	139	3
31	72	1
18	19	2
68	75	2
96	119	1
96	96	2
8	28	1
142	142	5
9	50	3
67	144	1
132	132	5
71	105	2
124	126	1
33	56	2
92	95	1
2	3	9
110	111	1
113	113	3
31	43	1
75	109	2
30	41	1
35	133	1
103	115	2
126	141	3
49	144	2
62	65	2
106	138	3
2	20	2
110	134	2
47	48	2
4	35	2
106	121	3
127	130	2
13	15	1
68	70	1
102	128	3
65	68	2
87	87	2
122	128	1
102	125	3
112	139	2
53	84	2
83	85	1
57	59	2
81	90	3
31	32	1
91	132	1
114	115	2
24	47	1
102	124	1
129	139	2
53	57	1
78	79	3
16	34	3
5	6	1
8	57	2
130	139	3
8	37	3
120	125	1
19	36	2
59	99	3
89	90	2
34	58	1
53	64	3
111	129	2
102	115	1
23	50	1
53	119	2
119	143	3
67	68	3
112	138	1
55	56	3
58	142	1
69	113	1
113	114	1
143	144	2
99	126	1
111	115	1
133	133	1
83	84	1
3	35	2
0	33	2
74	80	2
115	139	1
102	104	1
83	108	1
95	136	1
133	141	1
82	136	1
62	137	2
89	133	1
36	97	1
29	120	2
127	127	4
119	123	2
117	118	2
88	110	1
39	66	1
89	140	1
125	143	2
94	106	1
47	88	1
32	43	2
96	98	1
20	31	2
136	141	2
124	130	1
103	108	2
112	131	1
70	72	2
23	102	1
119	120	1
73	76	1
119	121	2
32	38	1
62	83	2
34	43	3
60	62	2
98	107	1
117	141	2
93	116	2
27	28	1
9	10	7
38	39	1
70	91	3
7	13	1
83	106	1
66	67	1
91	93	1
104	105	3
64	70	1
79	83	1
74	146	1
6	11	3
96	132	1
100	125	1
40	139	1
16	64	1
65	71	1
57	70	1
96	137	1
130	131	1
132	134	2
84	85	1
10	40	1
24	63	1
114	116	1
11	101	1
129	130	1
3	5	1
73	82	1
52	56	1
69	84	1
17	94	1
66	136	1
41	80	1
85	89	1
102	103	1
58	143	1
43	118	1
9	21	1
12	13	1
58	90	1
71	81	1
83	109	1
53	55	2
61	68	1
23	62	1
102	102	1
15	54	2
87	132	1
102	119	1
90	129	2
105	108	1
75	81	1
26	141	1
25	48	1
126	127	1
117	137	1
47	51	1
48	60	1
25	63	2
125	136	1
20	24	1
92	135	1
121	138	1
10	20	1
128	130	1
