175	221	4
21	21	23
69	70	9
206	207	4
193	193	13
206	206	32
20	20	28
74	74	31
113	113	6
41	41	16
100	100	42
180	181	6
62	63	8
141	141	15
181	181	18
118	118	17
75	80	2
33	33	30
114	114	15
86	86	22
137	137	8
177	183	5
73	73	17
60	60	24
143	146	4
53	53	34
1	1	18
29	29	54
177	178	14
166	167	8
60	62	1
27	27	15
3	3	29
164	164	22
40	41	21
203	204	8
30	208	1
161	161	18
196	196	19
221	222	12
128	128	10
67	67	35
19	19	27
5	5	27
168	168	13
136	136	11
32	32	35
44	70	5
169	170	16
34	35	8
97	97	14
57	57	28
30	138	2
38	39	8
190	191	9
29	30	27
118	119	18
10	173	6
230	230	12
43	122	4
3	23	4
189	191	7
108	119	4
27	43	6
183	196	11
43	44	5
101	101	16
127	127	10
185	187	3
81	81	11
202	215	2
234	234	18
47	47	31
41	172	1
79	157	1
117	117	13
154	165	1
11	11	31
39	41	8
187	187	23
65	66	4
71	71	25
126	128	2
26	26	52
122	122	16
39	68	2
133	133	11
182	182	5
220	220	37
166	166	6
59	59	20
143	144	5
235	235	26
32	173	3
200	207	1
147	147	3
34	34	18
75	75	32
32	42	1
109	109	7
232	234	8
114	115	5
141	142	3
106	106	12
142	142	29
70	70	41
98	98	31
11	12	8
159	159	15
104	105	14
207	207	18
184	184	29
72	84	3
238	240	8
205	205	13
61	62	14
6	19	6
6	6	11
13	20	1
81	82	3
139	139	24
46	46	25
143	143	11
99	99	19
96	96	11
237	237	11
167	170	3
27	28	11
242	242	14
114	119	4
170	171	6
156	159	2
103	103	20
39	39	25
95	95	15
209	209	10
214	214	8
68	145	1
109	110	6
135	137	4
241	242	1
107	128	1
109	123	2
210	210	14
211	211	16
78	79	5
185	185	6
40	43	2
35	36	17
13	13	10
56	57	19
164	165	22
226	226	9
199	222	3
170	170	13
174	205	8
202	202	9
14	14	5
145	147	9
63	63	22
45	45	19
48	48	14
9	9	24
8	20	8
110	110	10
1	134	7
9	147	1
58	58	31
104	104	7
15	15	18
10	27	4
66	67	8
1	99	3
12	12	20
138	138	7
79	80	12
72	195	2
36	36	22
124	124	11
17	17	17
158	162	5
74	182	3
38	38	29
126	126	11
191	191	12
72	74	4
49	49	5
3	5	8
169	169	11
52	52	14
187	229	5
197	197	24
140	141	12
61	61	17
214	216	5
229	230	10
224	224	17
68	68	18
31	31	15
48	50	1
64	67	7
8	12	4
165	165	10
125	125	9
48	63	2
76	76	44
13	14	9
37	37	32
56	56	24
34	36	6
43	43	15
179	213	4
140	140	24
22	22	15
77	77	18
177	177	13
229	229	18
146	147	6
230	233	1
149	149	9
171	171	5
167	168	5
75	167	3
214	215	6
179	179	17
204	207	1
40	40	22
7	21	2
116	116	4
203	203	8
161	162	5
153	153	11
200	200	21
73	74	3
120	120	11
151	151	9
69	73	7
158	159	8
160	203	1
225	225	17
199	199	22
115	118	7
154	154	25
181	183	3
239	239	11
175	176	6
62	78	3
135	136	4
208	208	13
175	175	17
176	176	20
127	129	3
186	186	17
139	140	8
174	175	9
84	86	3
231	231	10
96	128	1
116	118	9
115	115	4
103	104	7
234	235	18
6	7	3
192	218	5
28	29	5
79	128	3
223	223	9
79	82	3
55	79	6
25	161	1
219	219	48
25	27	3
62	62	12
221	221	6
161	195	4
212	212	14
31	138	4
122	123	4
1	2	15
10	20	7
70	72	10
188	188	9
9	30	5
223	224	18
84	84	16
175	197	2
26	27	9
51	51	12
37	38	5
226	227	11
161	203	3
209	212	3
179	182	1
200	210	2
32	35	4
218	218	15
155	155	11
187	188	7
133	134	6
50	51	7
233	233	17
30	32	2
98	113	3
153	155	10
147	148	9
99	106	2
211	212	12
160	160	21
74	77	7
158	158	6
106	209	1
31	36	2
144	146	5
145	145	14
198	198	7
36	37	3
179	197	4
163	164	9
20	22	3
24	24	20
48	49	6
215	216	10
65	65	13
2	2	25
136	137	13
36	55	3
154	172	2
7	7	10
163	165	10
178	178	11
191	226	6
183	184	4
65	85	3
73	127	2
140	145	2
180	180	30
11	21	1
58	141	2
42	42	28
194	194	20
150	150	10
156	157	10
51	53	4
146	150	3
10	47	6
192	192	21
232	232	10
83	84	5
8	8	19
183	183	9
112	113	5
192	217	3
50	50	8
31	32	7
61	68	3
10	29	1
51	63	2
137	138	5
51	52	7
181	184	9
214	221	3
55	56	5
162	162	30
191	192	4
157	157	9
85	86	1
99	137	3
149	150	3
16	16	3
165	166	4
188	189	11
174	174	16
179	180	8
148	148	6
113	114	3
7	8	7
30	30	18
10	207	4
55	55	27
42	44	5
144	145	11
162	163	6
152	152	9
50	53	7
119	119	20
3	6	8
208	209	4
227	227	11
10	11	8
188	190	5
56	59	1
3	8	7
177	179	1
38	43	2
176	221	5
190	190	10
88	91	2
146	146	8
76	77	17
24	162	4
66	66	13
69	69	14
85	85	26
171	188	1
83	113	5
65	68	5
152	153	6
139	141	2
201	202	12
7	19	4
228	231	4
43	69	4
241	241	15
57	59	8
187	225	2
105	106	4
54	54	21
15	16	4
158	165	2
217	220	7
14	35	4
121	122	8
55	83	2
141	153	2
10	10	12
4	4	17
176	199	4
98	106	2
193	211	2
82	82	14
9	144	6
172	172	21
69	148	3
123	123	12
83	83	20
34	37	2
32	34	3
194	213	7
154	196	2
200	215	5
78	78	15
134	134	15
54	62	4
45	46	15
29	103	1
133	142	1
101	103	6
207	208	9
225	230	3
181	182	3
130	130	9
133	136	3
173	174	3
3	4	13
196	201	2
88	88	11
79	79	21
109	111	1
236	237	13
171	172	11
148	173	2
12	13	12
121	121	8
121	126	4
236	236	7
165	167	6
193	195	4
177	198	1
44	44	21
176	177	4
135	153	3
233	234	7
177	209	4
52	53	21
114	118	9
157	171	2
131	142	1
28	28	26
71	73	10
105	105	16
229	231	2
8	21	4
120	122	7
173	173	9
220	223	1
80	81	2
3	20	3
138	139	8
218	220	6
238	239	6
238	238	18
80	80	12
106	107	2
23	23	26
205	207	5
225	227	5
209	210	4
100	101	4
74	75	8
26	43	2
3	32	2
0	0	24
144	144	5
19	21	1
195	197	3
5	29	6
180	184	5
129	130	10
53	57	1
189	190	5
135	135	15
113	120	1
184	230	5
237	240	2
19	180	4
2	3	2
127	128	7
215	215	10
64	69	6
5	8	1
98	100	6
129	129	11
240	242	6
228	228	11
192	193	4
186	188	4
108	108	7
200	202	2
162	182	7
181	229	1
71	72	17
103	199	4
46	76	6
98	99	7
213	213	8
201	201	20
183	194	2
35	35	5
84	119	5
73	170	2
216	216	10
41	44	2
163	163	16
156	163	5
24	25	9
102	102	27
48	51	1
6	29	3
232	233	5
85	118	1
66	122	2
72	72	15
159	160	8
61	66	4
222	222	11
147	150	2
225	228	3
0	140	3
176	195	1
202	207	1
9	29	8
123	124	3
36	48	1
180	198	1
235	237	6
209	216	1
131	143	3
214	220	7
70	74	5
204	204	9
44	45	6
215	221	2
115	116	2
117	118	4
182	226	2
140	156	2
186	187	3
22	119	2
15	35	5
33	34	6
36	210	1
19	20	1
144	147	4
9	20	3
124	125	3
99	135	1
39	42	8
21	212	2
77	79	4
111	112	5
71	76	4
10	205	2
106	109	5
11	56	2
154	155	6
10	46	1
14	15	2
196	197	3
6	18	2
35	76	1
34	210	1
140	194	4
29	32	1
10	26	3
4	132	2
119	122	2
25	26	7
9	10	14
138	155	3
200	203	4
164	166	3
12	21	7
195	195	17
19	212	2
240	241	2
46	47	20
68	72	1
3	30	4
141	143	4
181	198	1
10	143	1
96	114	1
198	200	6
146	154	1
0	130	5
182	183	4
64	64	22
107	107	8
240	240	8
160	162	2
158	160	1
236	240	7
99	101	1
111	113	2
213	214	2
242	243	1
156	156	5
19	33	4
32	33	3
145	150	4
180	182	1
2	9	3
137	139	2
63	64	2
224	225	3
96	97	4
40	42	2
18	18	5
66	68	6
25	25	10
73	136	4
14	18	3
42	63	1
157	189	2
150	151	4
209	213	1
132	171	1
176	220	7
82	83	4
4	6	5
72	73	9
98	129	1
133	135	2
39	40	4
141	194	1
102	103	3
74	76	2
46	70	1
217	217	9
31	137	2
3	133	1
21	22	5
99	102	1
171	178	2
46	53	1
184	185	8
1	133	2
107	108	3
178	179	8
30	33	4
225	226	7
186	189	1
136	138	1
20	23	1
220	221	5
172	173	5
193	194	10
175	190	2
128	129	4
91	91	1
223	225	1
78	158	5
68	144	3
189	189	3
176	194	2
59	235	3
142	153	1
84	85	6
98	134	1
23	24	2
122	124	4
46	77	4
8	11	7
174	193	1
239	240	4
98	128	4
2	30	2
202	216	2
195	201	8
75	77	5
0	1	3
129	134	3
26	152	2
10	21	2
173	190	2
239	241	5
67	68	4
100	129	1
37	42	1
57	58	4
115	117	3
169	171	3
75	78	1
218	219	5
22	23	3
54	55	8
150	152	8
168	169	1
142	143	4
237	238	7
10	12	3
75	76	2
73	77	2
5	7	1
174	190	1
49	51	2
83	140	3
122	126	10
55	84	4
50	224	3
210	211	14
95	99	4
224	228	1
197	216	4
194	197	3
11	164	1
25	65	4
103	105	7
96	113	3
153	154	7
135	140	2
160	161	2
197	213	1
10	204	2
99	129	2
189	201	3
199	209	3
5	20	2
100	102	2
30	136	2
6	13	3
132	133	2
141	159	1
31	34	3
20	32	1
183	192	1
47	49	4
176	180	1
131	131	4
129	133	2
191	218	1
165	194	1
187	230	1
58	59	3
70	75	2
25	207	4
85	119	2
56	58	5
86	153	1
19	211	1
105	129	4
217	218	7
77	78	4
202	203	4
80	82	1
144	150	1
33	37	2
199	210	2
106	128	1
235	236	1
108	109	2
18	19	3
228	235	2
177	213	3
205	206	6
141	155	1
64	65	2
63	230	1
197	198	5
42	43	3
56	140	5
47	67	2
217	237	3
13	58	2
12	14	8
4	31	3
118	120	2
195	220	2
156	158	1
28	42	2
76	78	4
3	29	2
212	213	6
138	141	2
11	34	1
12	20	2
30	31	1
27	97	1
20	21	9
184	223	1
12	23	4
3	31	1
62	68	2
82	88	1
48	64	1
142	154	3
168	177	1
101	102	4
83	85	1
78	80	1
77	80	2
143	175	4
161	202	4
52	76	4
201	203	4
64	66	1
227	229	2
65	67	2
77	92	1
122	125	2
26	62	1
238	241	2
38	173	1
201	214	3
204	206	2
100	103	1
194	195	1
219	221	5
28	44	3
4	21	3
35	204	3
68	69	2
160	164	1
167	167	7
149	152	2
173	178	1
73	164	1
63	147	1
35	180	1
79	81	3
209	211	3
182	185	2
229	232	1
213	216	3
19	34	2
205	210	2
120	121	3
31	33	3
89	89	1
161	163	1
72	145	1
184	225	1
24	133	1
101	106	2
60	80	1
143	153	2
65	71	1
179	199	3
78	86	1
55	62	2
29	31	1
130	131	1
182	229	1
28	43	2
215	224	1
6	20	1
148	151	4
28	143	3
88	89	5
65	70	1
156	164	2
59	60	2
49	50	6
11	23	2
199	200	4
70	142	3
55	228	1
112	112	2
96	99	1
200	204	2
172	174	1
8	19	3
6	21	1
16	17	1
178	196	1
145	148	2
21	23	1
19	30	3
155	172	1
205	209	2
102	135	1
140	146	1
174	206	1
196	205	2
74	78	1
7	29	2
18	31	5
5	6	2
113	128	5
68	71	2
201	215	1
115	125	1
227	228	1
2	8	2
182	195	1
143	147	1
134	170	1
108	130	1
17	18	2
26	206	1
123	126	3
179	198	2
72	173	2
21	34	3
189	224	2
230	231	1
116	117	1
39	43	2
173	206	1
131	171	4
97	104	1
188	224	1
9	28	3
47	53	1
57	80	1
68	70	1
25	134	1
97	99	3
129	131	2
28	38	1
103	106	1
146	149	2
105	130	1
63	66	2
76	176	1
146	193	1
100	128	1
192	226	2
43	70	2
156	161	1
36	209	1
236	239	1
237	239	1
27	44	1
210	213	1
1	130	2
54	228	1
90	90	2
159	161	1
175	205	2
70	71	1
182	193	1
74	157	2
199	205	1
54	56	1
200	213	2
159	207	2
150	163	1
114	117	1
10	28	1
216	220	1
48	54	1
145	146	1
124	126	1
155	159	1
14	17	1
11	165	1
97	98	1
53	54	2
74	164	1
191	196	1
2	5	1
231	232	1
23	131	1
153	159	3
184	186	2
116	127	1
175	189	1
54	84	1
76	86	1
63	65	1
228	229	1
137	154	1
217	219	1
159	163	1
176	179	1
52	54	1
42	221	1
182	192	1
155	171	1
40	66	1
195	196	1
101	104	1
177	181	1
115	122	1
185	224	1
53	154	1
38	144	1
58	80	1
154	156	1
4	5	1
184	229	1
22	24	1
15	147	1
153	174	1
40	54	1
135	138	1
160	204	1
100	106	1
110	113	1
111	119	1
