35	36	8
44	44	13
75	75	19
4	4	11
52	67	6
1	2	8
64	64	16
41	41	16
22	24	1
60	61	1
74	74	3
30	40	2
45	45	10
8	8	5
48	48	16
30	31	11
53	54	2
31	40	3
67	67	18
49	59	4
68	68	4
32	33	5
36	37	4
72	72	18
73	73	14
58	58	13
68	73	2
39	39	4
57	57	8
62	62	18
48	57	3
22	22	12
70	70	9
56	76	3
14	14	10
28	29	7
27	28	4
47	47	11
42	42	12
27	27	7
8	9	4
51	53	2
38	38	6
18	60	3
58	59	4
32	32	9
41	42	6
30	41	5
3	3	14
2	2	10
36	36	19
55	55	9
36	73	2
55	60	1
51	51	4
19	20	8
28	28	4
11	11	4
69	70	5
64	67	5
47	57	1
19	19	8
0	0	7
46	46	6
41	51	1
52	68	4
10	10	7
68	69	3
3	7	1
40	48	5
6	11	5
24	24	4
23	61	7
9	9	15
52	53	6
43	77	5
50	53	4
6	6	12
37	37	4
29	29	4
54	54	16
26	26	9
21	21	7
13	13	10
53	53	6
61	61	5
24	28	2
18	18	4
53	68	1
45	55	3
66	66	4
44	45	7
66	67	6
30	37	3
48	49	6
63	63	2
77	77	6
35	35	6
59	59	8
4	5	10
7	7	5
26	28	4
23	23	4
76	76	7
48	62	2
56	56	5
54	55	3
5	6	6
49	50	6
43	43	23
23	30	1
5	20	2
6	22	1
21	24	1
70	74	1
51	65	3
60	60	8
0	1	2
33	33	12
26	55	2
42	43	1
75	76	2
45	65	2
30	51	1
10	12	2
37	38	3
22	23	3
54	60	1
61	64	2
52	52	7
30	71	2
31	31	7
32	39	5
69	72	3
48	63	2
61	62	4
34	34	6
31	32	2
49	49	3
69	69	6
69	73	1
10	11	2
37	39	1
40	42	3
39	40	1
38	39	2
29	47	2
20	20	2
29	73	1
34	64	2
3	46	6
21	64	2
23	25	4
46	74	3
25	25	2
30	30	2
21	23	1
36	40	2
71	71	5
65	65	4
58	69	3
50	50	2
72	73	1
57	59	4
49	51	1
51	68	1
29	30	2
61	66	1
46	48	1
55	57	1
51	63	2
64	66	2
8	43	1
5	5	1
51	70	1
34	36	2
68	72	1
19	34	3
71	72	1
40	40	1
20	62	1
20	21	1
54	66	2
24	26	1
12	12	4
67	68	1
58	64	1
23	24	2
62	64	1
26	29	1
54	56	1
1	1	1
57	65	1
35	37	2
23	32	1
55	74	1
67	73	1
55	64	1
29	34	2
58	67	1
36	41	1
52	56	1
65	67	1
74	76	1
50	52	1
7	13	1
74	75	1
6	13	1
18	19	1
34	44	1
57	69	1
49	69	1
