141	141	19
31	32	26
37	38	30
177	177	11
95	108	4
154	154	27
163	163	38
10	10	61
32	32	39
131	131	25
174	174	8
73	74	27
125	125	32
106	107	13
84	84	6
37	37	52
29	29	46
17	32	1
103	104	2
41	41	53
52	52	21
151	151	19
167	167	33
108	108	21
143	144	3
6	17	2
44	44	44
89	89	39
124	124	9
169	169	39
94	94	18
100	100	11
88	107	1
122	159	2
151	152	10
118	118	33
82	109	4
122	124	7
28	28	32
168	168	31
80	80	20
0	0	21
42	43	3
10	12	2
75	75	29
38	39	15
71	71	27
93	102	2
23	23	35
107	107	32
156	156	16
6	6	65
148	149	4
132	132	25
34	34	17
160	160	24
120	120	25
144	144	15
38	38	53
59	60	16
44	45	24
173	173	31
14	42	2
153	154	14
62	62	21
5	6	30
126	126	22
177	178	17
70	70	10
11	14	12
111	111	48
33	34	23
25	25	25
60	64	4
56	57	6
33	33	48
139	139	14
77	78	2
9	38	7
147	148	7
101	111	5
24	25	13
43	43	30
87	87	16
13	29	4
176	176	17
13	14	22
134	136	2
150	151	10
22	23	24
9	11	5
130	130	42
127	141	4
171	174	2
35	38	2
54	55	10
36	37	13
136	160	2
15	15	65
13	13	63
132	137	4
14	14	48
102	102	36
74	79	6
43	44	30
36	36	45
170	170	11
57	57	28
21	21	37
83	92	8
105	106	12
170	171	12
141	143	3
15	42	1
11	11	51
117	117	18
73	73	24
160	163	3
78	81	4
52	53	15
172	173	12
18	18	21
175	175	26
158	158	32
106	106	30
20	20	24
85	86	5
104	106	6
102	104	11
148	148	15
3	3	22
88	88	9
9	9	63
170	172	2
171	171	19
16	17	28
57	61	4
32	33	25
125	147	1
142	142	40
148	158	2
134	134	19
167	168	9
163	165	19
95	118	2
169	171	5
163	166	8
12	133	2
159	159	38
129	129	9
26	28	10
65	65	20
121	122	4
51	84	3
146	147	12
9	153	5
119	119	22
2	7	4
14	15	16
174	177	6
78	78	13
9	66	4
10	11	32
22	22	30
75	78	5
90	90	22
145	145	34
51	51	38
16	16	28
143	143	46
20	31	2
114	115	9
135	137	2
24	24	22
53	54	2
52	71	2
81	81	21
20	21	6
45	45	45
87	88	9
26	26	47
83	83	10
73	75	10
56	56	17
113	131	3
51	53	11
79	86	2
86	86	9
91	91	24
96	109	2
158	167	5
9	15	1
35	35	31
6	35	6
64	65	13
0	1	7
114	176	2
92	92	10
155	164	3
9	86	3
95	95	20
79	82	5
50	50	12
67	72	7
117	135	3
60	61	7
115	117	1
35	36	8
110	114	4
30	30	24
7	21	4
124	125	17
113	113	38
118	119	10
127	127	38
178	178	33
21	22	19
171	172	15
121	121	25
115	115	22
132	133	8
61	61	27
168	170	5
60	60	11
92	106	4
73	80	2
146	146	29
81	87	3
92	93	13
14	43	1
89	94	1
157	158	11
93	94	9
97	97	12
50	64	3
133	133	18
104	104	13
111	116	7
41	42	19
93	93	24
79	89	11
140	140	43
81	90	4
162	162	20
76	76	27
128	128	16
179	179	9
4	8	5
8	9	16
3	4	29
146	168	3
9	40	6
98	98	11
7	7	19
59	59	13
81	89	7
63	63	25
155	157	5
6	8	5
52	77	1
154	155	22
177	179	6
147	147	37
119	123	3
27	27	33
105	105	17
158	160	14
171	177	5
18	22	2
4	4	14
42	42	33
173	174	7
17	18	21
28	30	2
175	176	7
39	39	43
67	75	1
53	53	16
103	103	27
20	22	4
123	123	27
97	98	3
96	96	19
56	59	5
9	16	6
141	142	15
153	153	14
128	129	10
4	5	3
137	138	9
178	179	3
26	27	11
109	110	7
51	52	3
118	148	2
89	90	3
150	150	26
24	27	3
106	166	3
68	68	8
180	180	11
152	163	3
81	82	2
5	7	2
117	118	2
21	31	7
141	146	2
45	46	9
174	176	4
150	162	1
28	31	8
102	103	8
119	162	5
131	135	9
151	153	7
14	22	10
158	159	22
41	49	1
9	23	3
54	54	28
7	10	3
51	93	1
136	147	5
112	112	27
6	16	4
109	109	10
64	64	19
2	2	20
100	103	2
8	19	4
31	66	5
176	177	9
84	91	4
142	145	6
66	66	14
112	149	2
19	19	21
24	94	3
94	145	2
136	136	14
99	99	13
12	15	4
38	40	4
107	127	2
177	180	4
115	118	11
132	135	5
43	45	8
114	114	18
107	108	20
76	88	2
14	17	4
62	63	7
155	156	4
50	51	21
67	67	12
164	164	9
72	72	28
72	73	12
113	114	21
96	97	14
6	33	3
51	61	5
119	120	6
111	115	6
13	31	1
57	89	1
89	97	2
34	35	22
81	88	2
90	95	3
79	80	5
19	20	12
131	132	5
74	75	8
111	112	4
97	99	3
12	12	17
149	161	7
17	17	32
94	126	2
110	111	8
25	26	8
31	36	2
55	56	26
101	102	9
168	169	6
31	31	46
59	65	10
166	166	39
170	174	4
156	168	2
161	162	29
82	83	4
162	163	11
55	55	21
135	135	27
8	8	29
29	40	2
125	131	2
29	43	2
80	89	4
179	180	6
5	93	4
63	64	3
85	85	8
72	74	1
172	172	15
132	134	1
14	39	4
67	68	13
8	33	6
2	18	6
10	15	8
101	110	4
132	143	1
67	73	3
11	42	4
2	26	1
54	61	5
27	36	2
76	78	4
163	164	6
19	125	2
20	57	3
76	77	13
125	126	4
152	153	11
91	92	7
138	138	10
115	116	10
166	167	10
144	146	1
17	19	1
40	40	31
106	108	5
31	33	5
104	133	1
10	37	4
157	164	3
106	131	6
98	105	4
82	82	19
157	157	6
30	31	9
95	96	20
17	41	3
122	161	1
27	28	9
110	110	6
77	77	22
56	70	2
74	88	2
65	66	6
2	28	8
165	165	7
79	79	17
23	95	1
161	161	8
99	100	11
152	152	4
128	142	2
57	59	5
150	165	3
149	149	22
153	165	3
9	30	4
22	30	3
90	91	6
123	136	4
74	74	13
155	155	19
133	134	4
10	39	4
125	155	1
134	137	2
23	60	8
142	143	8
36	45	5
19	21	6
5	5	20
172	174	4
2	33	3
11	13	7
67	76	1
118	149	3
136	137	2
89	99	2
122	122	7
40	41	9
153	156	2
90	94	5
24	121	1
59	64	5
140	141	7
1	1	11
134	138	6
54	59	10
32	70	6
15	16	13
39	40	6
127	151	3
157	163	6
82	97	5
40	96	2
58	59	17
8	36	3
106	109	1
101	101	20
18	19	7
127	128	9
39	45	2
116	116	11
4	6	1
54	71	2
159	160	13
76	86	8
140	143	3
13	15	5
36	38	5
157	159	2
144	145	14
173	175	2
37	39	7
9	32	1
68	71	4
18	21	3
26	34	2
79	81	1
122	162	1
3	19	2
58	58	8
66	85	3
131	133	6
93	134	2
17	23	1
112	113	5
9	10	12
49	50	2
75	77	8
112	114	4
91	93	8
154	167	4
78	79	6
15	43	3
38	43	2
156	157	3
8	18	7
27	31	8
132	175	2
135	136	2
27	29	9
75	76	9
9	152	5
5	35	2
80	81	2
125	159	1
73	76	3
150	159	3
92	94	2
66	67	1
76	81	4
37	40	5
170	177	1
16	18	2
145	173	6
35	45	2
131	164	2
123	147	4
24	26	2
10	40	3
77	94	3
143	145	3
17	28	1
18	27	1
125	148	1
154	156	4
128	130	8
125	153	1
107	109	6
32	35	3
153	155	8
155	170	2
139	140	3
79	88	4
8	44	4
84	85	4
125	136	2
82	100	2
17	38	4
146	148	5
12	13	15
138	175	5
13	42	2
35	54	2
40	53	2
52	60	1
2	3	5
134	135	2
98	101	8
9	37	6
36	44	1
34	36	3
128	131	2
138	139	11
8	15	8
9	22	1
122	123	6
2	6	6
151	161	5
1	37	3
55	58	2
88	89	4
174	175	5
128	154	2
169	170	3
29	30	4
19	84	2
134	140	5
78	145	2
123	146	7
10	14	2
34	45	7
104	105	4
53	71	3
127	130	7
55	57	11
15	18	7
21	111	1
161	169	1
39	42	3
83	95	4
22	81	2
140	142	5
150	158	3
55	59	3
128	147	2
130	131	3
175	178	4
129	143	1
61	64	9
105	112	2
2	4	4
57	58	2
20	23	2
6	7	9
90	114	2
62	66	2
71	72	12
1	3	2
40	49	4
61	62	4
91	126	3
74	77	6
29	45	6
83	122	7
35	64	4
151	168	5
26	78	1
54	60	1
28	29	7
108	109	5
78	93	2
148	150	5
127	129	5
13	21	1
50	52	3
83	84	7
3	6	2
160	162	1
51	65	1
7	8	5
80	90	2
91	94	3
56	58	3
147	161	5
132	138	2
55	61	1
90	107	1
123	148	2
27	37	2
115	120	2
6	21	1
31	37	2
124	138	1
166	168	1
103	107	3
126	127	3
110	116	6
30	32	6
1	2	1
5	22	1
102	115	8
5	41	2
76	87	1
92	95	1
124	155	3
23	26	3
101	103	5
93	106	3
129	130	3
165	166	2
9	44	1
49	49	1
30	46	2
139	146	1
136	149	1
148	167	2
151	155	3
121	147	3
36	40	3
3	5	4
81	86	1
80	146	1
16	42	1
127	142	1
60	62	2
137	139	3
147	168	1
42	45	2
68	70	2
117	119	1
58	63	1
150	167	3
149	150	1
17	40	3
114	127	3
50	63	1
36	62	2
77	145	2
97	117	3
76	79	1
51	66	3
110	119	1
93	126	1
22	24	4
155	169	2
6	34	3
121	123	3
12	87	1
51	54	4
82	87	1
24	34	1
85	89	2
50	72	1
139	175	2
15	44	1
152	165	1
154	165	3
97	105	4
64	66	4
135	164	2
30	77	1
139	142	1
100	101	4
114	130	1
153	163	1
10	38	3
5	33	1
131	163	2
133	136	2
41	43	3
160	168	4
94	122	5
70	71	6
7	9	3
53	78	2
137	137	4
25	28	3
52	78	2
154	158	2
11	12	5
96	106	1
158	161	2
145	175	1
160	161	1
28	41	1
115	130	1
154	168	1
135	175	1
147	170	1
123	124	3
37	43	1
27	78	3
67	83	1
135	138	1
108	114	1
23	24	3
78	87	1
152	166	3
128	145	2
38	64	2
59	61	5
95	121	3
126	142	2
71	73	4
28	84	2
90	97	1
25	29	1
18	44	1
68	73	3
161	166	2
29	44	1
21	84	2
86	89	2
113	130	3
116	119	1
6	27	1
83	86	2
126	153	2
90	127	2
40	52	1
139	141	1
81	95	1
115	125	1
12	41	1
162	170	2
157	165	1
32	65	1
74	76	1
132	160	1
2	5	1
126	146	2
80	94	1
158	163	2
85	87	2
78	94	1
8	12	1
90	116	1
129	142	1
35	37	1
110	117	1
60	93	1
33	35	1
39	43	2
83	91	1
150	153	1
23	25	1
131	142	1
20	73	1
12	31	1
96	104	1
82	95	1
143	164	1
15	22	1
24	30	1
4	23	1
142	146	3
128	144	1
145	146	3
22	31	1
61	63	1
114	148	1
141	145	1
171	173	1
10	31	1
55	60	1
36	52	1
37	44	1
9	163	1
120	162	1
73	79	2
50	65	1
133	137	1
30	76	1
102	131	3
95	98	1
24	28	2
18	20	1
90	179	1
133	138	2
29	46	1
159	175	1
122	160	1
148	171	1
167	170	1
19	83	1
40	42	1
10	44	1
95	126	1
53	62	1
38	62	1
71	74	1
24	33	1
117	161	1
28	95	1
79	87	1
94	95	1
56	61	1
124	136	1
95	97	1
111	114	1
21	33	1
21	82	1
