36	37	4
71	75	4
21	93	1
90	90	6
26	27	10
76	79	8
37	98	7
20	36	5
103	103	12
21	21	6
45	47	3
49	49	7
73	73	5
45	46	1
54	54	7
96	97	1
25	26	2
33	94	1
37	38	3
94	94	8
37	37	3
23	23	3
101	101	12
53	53	9
97	97	6
80	80	3
60	60	3
90	91	5
74	74	10
31	31	14
66	66	3
76	76	8
85	85	3
39	89	2
26	26	8
64	64	10
47	89	3
51	54	2
97	99	2
50	77	1
87	88	2
99	99	10
55	102	3
78	81	1
44	55	2
74	75	6
29	29	3
51	51	2
79	90	1
35	35	5
96	106	4
77	77	4
20	20	3
79	79	7
48	48	5
79	82	2
71	71	4
97	98	6
92	92	5
96	96	1
44	44	4
86	88	1
61	85	1
78	99	1
50	50	12
89	90	4
26	71	3
105	105	8
62	63	5
50	51	1
58	76	5
93	93	7
61	62	4
25	59	1
81	81	3
48	89	1
82	83	2
64	69	1
62	65	1
24	24	6
83	88	7
70	70	4
23	36	1
32	32	5
81	90	3
31	39	2
29	107	1
72	72	1
87	87	6
43	95	3
40	41	2
98	98	7
84	84	9
28	28	7
100	100	1
48	59	2
104	104	1
36	36	3
83	83	3
21	22	3
65	66	2
19	45	4
55	55	1
40	40	3
43	44	1
45	99	1
37	44	3
56	56	9
80	83	2
59	59	8
46	46	6
33	33	2
37	100	2
49	81	5
84	85	1
61	63	2
99	106	6
29	32	4
46	48	2
39	39	2
65	65	2
33	34	1
75	75	4
89	97	2
68	68	3
25	25	3
50	53	1
21	42	2
78	98	2
59	94	1
79	81	2
49	50	5
76	85	3
22	22	1
62	62	6
88	88	4
95	95	7
38	100	4
68	69	1
91	92	2
23	24	1
107	107	2
21	88	1
86	100	2
102	102	5
69	69	3
75	76	1
44	45	2
41	41	2
32	57	1
58	63	2
45	45	1
72	77	3
58	106	2
104	105	1
58	88	2
33	96	3
41	42	1
19	58	2
86	87	5
54	55	1
94	97	1
19	19	1
45	89	2
95	96	3
48	79	3
61	61	5
33	55	1
40	47	2
101	105	2
64	65	2
34	34	1
80	106	5
88	93	1
23	25	1
55	81	1
70	72	1
24	25	3
95	106	1
22	23	1
30	98	1
52	52	5
62	78	2
21	82	1
82	88	2
49	78	1
51	55	1
96	98	2
33	43	1
57	57	1
50	78	2
61	67	1
38	38	4
64	67	2
48	49	1
57	97	2
32	33	1
27	28	1
30	30	1
21	35	1
42	42	1
59	61	3
25	28	1
76	96	1
57	89	1
25	72	1
37	42	1
23	70	2
49	65	1
36	100	1
67	67	1
37	105	1
29	31	1
29	30	1
35	37	1
38	87	2
73	82	1
57	100	1
101	103	1
98	99	2
52	75	1
80	81	1
56	57	1
76	77	1
38	45	1
43	43	1
