72	72	6
1	1	10
85	85	14
66	66	22
4	4	14
76	76	16
58	78	3
74	82	9
52	52	17
48	57	5
72	73	11
24	26	1
5	16	1
80	80	8
50	52	1
52	56	5
81	82	3
56	56	22
25	25	14
88	88	8
65	66	3
58	58	12
83	83	10
13	13	19
27	33	3
50	50	15
68	68	14
59	63	1
71	71	6
62	73	1
77	78	13
19	19	14
20	20	9
24	25	3
59	62	4
82	82	14
59	59	13
47	47	28
78	78	7
63	63	6
53	53	10
30	30	18
57	57	8
48	48	17
60	61	2
57	58	5
9	49	2
51	51	13
76	77	11
60	65	5
61	62	6
70	70	15
29	30	7
58	77	2
46	48	3
63	64	8
17	17	12
51	53	5
82	83	6
59	60	3
61	61	7
62	62	12
77	77	22
55	62	2
81	81	7
89	89	9
28	28	7
64	64	5
53	75	3
2	2	6
78	80	2
65	65	11
69	70	5
4	8	2
49	52	7
34	34	9
64	65	6
10	10	11
12	13	5
73	74	6
69	69	7
11	13	3
52	55	1
84	84	7
61	82	4
74	81	2
60	82	1
55	55	12
50	53	3
67	67	16
86	86	9
49	49	15
71	73	1
24	24	12
87	87	15
12	12	7
86	87	3
74	75	6
48	66	5
6	19	3
78	79	7
27	27	6
25	26	13
54	55	5
8	8	12
52	64	4
60	60	16
26	27	4
5	27	5
8	13	1
56	77	3
3	3	11
77	82	1
49	50	3
8	9	1
9	9	5
75	76	7
31	31	8
5	5	10
14	14	4
0	0	5
70	73	1
53	66	1
75	75	3
35	35	1
26	26	8
59	78	3
6	9	3
84	85	3
66	68	2
7	7	6
54	63	2
3	4	4
16	66	2
15	15	1
20	69	1
73	73	8
5	6	6
67	68	3
79	79	6
77	81	2
9	50	4
23	23	12
48	50	5
56	57	4
16	16	3
62	63	2
75	80	3
31	33	1
46	47	1
47	48	8
74	74	3
19	20	2
6	6	4
29	89	1
73	82	1
17	49	1
74	83	2
53	54	3
7	8	3
54	54	9
51	66	1
47	51	1
75	77	2
7	12	2
54	66	2
79	80	2
71	74	2
54	78	2
55	64	4
52	53	3
72	74	3
5	25	2
9	10	5
34	35	1
19	27	1
68	74	1
18	50	1
51	83	2
11	11	4
85	86	2
50	65	1
89	90	2
68	69	2
67	85	2
58	61	2
88	89	4
55	59	2
61	63	2
48	65	1
1	4	1
22	22	2
23	24	3
17	22	1
55	66	3
49	58	2
10	24	1
5	12	1
12	29	1
50	62	1
47	50	2
56	64	1
54	64	1
0	71	1
54	61	1
18	19	1
87	88	1
50	66	1
50	51	1
25	76	1
21	71	2
19	21	3
17	18	2
66	67	1
53	55	1
53	62	1
21	22	1
50	63	2
46	46	1
31	32	1
49	63	1
79	81	2
50	55	1
5	17	1
79	83	1
16	17	1
1	3	1
9	12	1
59	80	1
70	72	1
56	62	1
24	46	1
22	31	1
8	12	1
