45	45	12
89	91	2
10	10	8
108	112	3
90	90	8
103	103	9
171	173	6
44	67	3
122	123	12
182	182	8
84	99	3
99	104	1
140	152	4
135	135	16
145	145	10
59	59	9
80	82	2
16	16	13
8	8	19
78	79	6
7	7	10
75	76	6
3	6	5
106	129	3
164	164	16
172	172	7
122	122	10
141	141	5
48	48	9
27	29	3
150	150	3
83	85	3
153	153	8
154	154	5
52	52	4
74	74	8
117	118	7
119	119	9
6	24	3
89	89	9
134	135	5
136	136	6
108	108	10
70	70	3
39	40	8
79	79	18
40	77	2
79	81	1
99	115	4
126	126	8
77	77	11
123	124	7
102	102	6
112	113	4
27	28	4
159	159	5
24	24	12
39	39	11
47	47	9
133	133	9
125	126	13
96	99	5
99	99	5
108	114	1
16	17	3
131	131	7
54	142	5
147	147	7
26	26	14
118	118	6
149	149	16
25	25	4
91	91	7
20	20	1
84	100	2
97	98	4
107	107	2
15	16	2
12	12	5
137	139	1
37	150	2
28	28	11
155	155	16
106	106	1
4	23	2
106	107	3
13	47	2
92	92	11
177	177	4
69	99	3
140	142	4
114	119	6
89	96	1
188	189	6
140	141	2
165	166	2
78	94	2
107	112	2
78	78	6
40	40	5
167	168	3
12	13	5
127	168	7
38	39	5
68	68	11
161	172	5
89	92	1
81	81	7
85	85	7
162	173	3
46	46	8
108	111	4
142	142	10
42	42	3
30	35	4
170	170	3
41	41	8
68	133	4
96	100	4
136	137	5
5	5	4
57	57	9
55	55	9
159	172	1
173	173	9
3	3	7
21	23	2
40	41	2
152	152	8
169	169	4
22	24	8
41	42	3
156	156	9
18	19	3
2	79	5
60	61	2
31	31	5
135	138	4
32	33	5
84	85	7
128	128	6
72	72	17
103	129	1
120	120	2
20	21	1
158	158	7
78	80	2
22	23	4
80	81	1
101	102	4
113	113	6
138	138	1
35	189	2
33	33	2
178	179	3
116	116	1
44	47	4
62	62	5
129	153	2
132	132	4
5	25	1
99	100	2
130	130	6
139	139	4
14	14	7
21	21	5
92	95	2
148	148	7
21	43	1
59	60	3
121	121	5
80	80	4
109	109	7
37	40	1
166	169	7
67	67	3
123	123	9
38	38	3
61	61	9
127	138	1
137	137	13
182	184	8
87	87	4
100	101	2
71	79	1
58	76	3
83	83	13
88	88	10
171	171	3
73	74	3
94	95	1
84	86	1
37	57	2
159	175	3
0	0	5
73	75	1
13	15	8
109	110	7
6	78	2
105	115	5
2	2	13
78	89	1
125	125	6
65	133	3
30	32	4
147	156	1
58	59	6
95	95	3
60	65	2
57	58	1
31	35	1
2	3	3
154	155	1
150	151	2
57	76	1
111	111	8
18	20	3
100	103	1
84	87	1
57	77	2
117	117	6
165	165	8
48	63	2
14	47	2
43	147	2
105	111	2
129	129	12
110	111	3
152	153	10
54	54	4
176	176	2
139	153	2
76	76	4
24	25	3
141	143	1
56	56	5
188	188	4
54	70	1
34	34	5
82	86	3
119	120	3
158	161	2
63	63	2
63	103	2
124	124	3
43	43	1
163	165	1
43	44	3
41	76	1
155	156	9
10	11	6
152	154	2
0	1	1
47	68	3
15	15	4
84	84	6
157	162	4
160	160	3
56	57	5
23	24	3
19	36	3
22	22	10
179	190	2
157	157	3
6	6	8
21	22	5
94	97	1
89	101	1
187	188	3
104	127	2
35	36	5
46	49	4
174	174	2
29	29	6
6	7	3
169	170	2
5	8	4
93	116	2
147	148	3
23	23	9
42	43	2
161	174	6
130	131	10
114	114	6
143	144	1
12	15	6
71	71	2
104	105	3
73	73	1
159	176	1
105	107	1
75	75	6
114	115	7
17	17	9
147	149	3
151	151	10
100	100	3
14	42	1
66	67	4
181	181	3
58	58	2
168	168	2
160	162	3
82	85	2
96	96	3
144	144	5
17	38	2
149	150	5
157	158	1
111	112	5
52	53	2
35	35	4
25	39	4
18	35	1
65	66	6
29	30	3
183	184	7
166	166	5
127	161	2
103	104	5
179	179	2
72	73	5
146	147	2
44	152	1
29	36	3
17	33	2
146	146	4
48	140	1
66	68	2
27	27	6
146	149	3
184	184	3
165	167	1
93	112	1
175	175	2
13	13	2
145	146	2
29	31	3
1	2	2
4	6	3
161	161	3
40	152	3
75	78	1
30	30	2
19	19	2
151	156	2
60	133	3
189	190	3
61	76	3
36	36	4
151	154	3
44	155	1
59	77	2
115	115	3
87	88	2
107	110	3
57	59	3
44	44	4
44	46	3
7	9	3
92	113	1
109	119	2
60	60	3
114	116	2
37	55	2
138	153	4
25	28	2
162	162	2
108	115	3
168	170	1
157	190	1
121	122	4
181	182	1
90	92	2
1	1	5
87	90	1
93	113	2
45	46	2
104	128	1
178	178	6
14	15	2
118	119	4
9	9	4
190	190	1
186	186	3
112	112	3
146	148	3
121	129	2
17	18	2
13	46	1
111	113	3
6	26	2
32	32	1
189	189	3
25	26	1
2	189	2
64	65	2
57	62	1
148	149	1
86	86	3
35	188	2
127	128	2
5	6	2
45	144	1
65	65	2
185	185	1
144	145	2
37	38	1
96	97	3
160	161	2
14	46	1
106	108	1
10	24	2
46	47	3
101	103	4
134	139	2
53	54	1
53	53	2
143	143	1
100	104	1
67	68	2
1	87	2
94	113	3
18	18	5
27	38	1
30	31	1
10	23	3
90	91	3
59	117	2
91	92	6
126	127	2
32	35	3
156	162	2
82	99	1
76	99	1
148	154	2
176	179	1
142	144	2
159	160	1
74	75	2
36	37	1
187	187	3
163	175	1
78	87	1
25	132	1
82	83	1
140	140	2
72	81	1
5	21	3
28	38	1
20	26	1
124	132	1
0	2	1
125	155	1
58	75	1
4	4	2
115	116	1
13	14	3
137	138	1
134	134	1
15	40	1
166	170	1
115	118	1
38	40	1
71	78	1
16	19	2
126	128	1
106	110	3
56	140	1
97	97	1
142	143	1
79	98	1
93	94	1
124	125	3
13	20	1
69	75	2
122	130	1
83	84	2
162	163	1
180	181	1
150	153	1
105	105	2
64	133	1
148	153	1
70	92	1
32	34	1
17	23	1
167	183	1
139	152	1
17	24	1
79	89	1
78	93	1
31	33	1
156	157	1
98	98	1
41	57	1
68	69	1
116	119	1
11	11	1
127	127	1
7	21	1
141	145	1
78	88	1
150	154	1
110	110	1
