68	68	7
13	14	4
11	11	18
24	80	2
66	66	10
91	114	2
17	34	1
96	96	2
5	5	12
72	72	2
93	134	3
21	42	1
9	9	5
77	77	6
11	93	5
42	79	4
94	94	6
69	69	2
38	48	2
46	62	3
73	73	7
27	92	1
63	75	1
62	62	10
15	30	3
64	65	1
5	6	1
8	8	8
78	78	3
113	133	4
116	116	5
104	104	2
61	61	5
81	82	9
115	121	2
97	98	5
102	102	2
82	85	3
11	101	1
84	92	1
14	14	5
33	33	6
110	128	1
17	17	2
100	101	1
2	2	3
71	71	3
59	61	1
21	21	6
92	92	2
82	92	3
60	60	12
101	101	6
120	120	6
79	79	6
1	3	2
114	131	7
17	18	2
32	32	10
112	114	4
31	33	2
44	97	1
40	40	3
15	32	2
3	6	3
11	12	4
30	78	5
104	105	4
129	130	1
41	48	4
11	82	7
25	25	3
28	29	6
78	79	3
16	16	6
11	48	2
19	19	6
75	75	10
84	89	6
83	83	4
100	100	5
18	80	1
70	70	2
61	73	2
65	65	9
42	84	2
30	32	2
110	111	2
76	76	3
39	39	3
46	46	5
67	67	2
21	62	1
6	6	4
27	97	2
44	44	5
29	29	3
10	29	4
6	7	7
121	121	6
48	49	3
90	90	11
82	86	2
27	81	2
57	109	1
126	129	2
81	92	1
98	98	7
65	73	2
15	15	1
82	82	8
59	59	3
105	105	2
15	59	1
27	27	3
87	88	7
9	116	3
106	107	3
26	26	2
128	128	5
118	118	5
42	42	3
15	38	2
22	22	5
26	48	2
20	21	3
130	131	1
39	40	2
13	13	4
74	74	2
28	77	2
9	12	3
47	47	5
61	62	4
133	133	5
95	95	3
66	71	2
105	123	2
68	71	3
21	39	2
102	109	1
57	58	3
21	96	2
84	87	1
4	97	3
64	64	10
85	85	4
90	92	1
70	71	1
32	33	2
114	120	2
37	63	1
115	115	1
4	5	3
29	60	4
23	31	2
127	127	4
23	23	2
11	92	3
5	7	4
57	57	6
7	7	6
73	74	2
128	129	3
16	37	2
38	38	1
30	30	2
45	45	5
28	28	3
88	88	5
126	134	2
70	72	2
43	43	4
10	10	4
44	64	2
18	20	2
99	99	1
41	45	1
28	79	1
118	119	1
28	91	4
27	93	2
99	100	4
23	27	1
33	34	1
12	128	2
126	133	3
46	95	1
24	25	1
75	76	2
18	18	2
97	97	3
23	32	3
48	48	4
8	30	2
69	120	1
26	47	2
131	131	2
26	83	1
34	34	2
37	44	4
4	4	4
67	68	3
29	30	2
81	116	3
19	20	6
114	128	2
60	79	1
87	87	5
45	47	1
18	101	2
108	115	2
71	72	2
63	63	6
66	68	1
37	37	7
37	38	3
41	42	1
117	117	2
63	77	3
25	47	1
36	36	1
35	35	3
2	6	1
130	130	2
54	54	2
68	70	1
134	134	3
4	40	2
56	78	1
0	0	1
91	132	1
35	36	2
96	97	1
123	124	2
15	16	1
47	61	1
56	56	3
78	94	2
93	94	2
12	12	1
41	41	1
49	58	2
93	93	1
115	116	2
34	35	2
22	80	1
81	81	1
29	61	1
13	75	1
38	81	2
25	26	1
21	84	2
109	109	1
61	72	1
39	55	1
122	122	2
22	36	1
20	20	1
14	77	2
69	72	1
12	33	1
83	91	1
55	70	1
129	129	2
55	56	1
127	134	2
112	113	1
62	64	1
21	22	1
126	127	1
84	84	2
26	31	2
66	67	1
28	90	1
95	96	1
84	93	1
74	121	1
45	96	1
32	60	1
