49	49	15
97	97	17
41	41	5
91	91	21
66	66	20
31	31	15
70	70	25
49	70	1
26	68	2
103	103	20
92	93	10
30	31	6
78	78	16
89	104	3
25	111	2
89	89	9
76	77	11
90	91	11
31	73	1
27	27	26
113	113	5
23	23	3
101	101	9
54	54	8
101	108	2
113	114	6
69	69	20
21	22	1
111	112	5
36	36	22
54	57	1
48	48	15
30	30	12
67	68	7
60	60	4
32	33	5
33	33	26
83	83	17
88	91	6
66	67	16
40	40	13
32	32	10
24	25	10
72	72	21
100	102	2
88	88	3
106	106	5
45	54	3
80	80	15
68	68	20
62	64	3
53	53	5
90	93	6
63	63	6
95	95	15
77	78	10
29	29	17
62	66	4
44	46	2
77	77	13
66	68	5
48	49	6
92	95	8
36	41	2
21	21	12
98	98	29
38	38	13
85	86	5
25	25	12
47	47	8
109	109	10
40	41	6
74	74	12
87	88	9
97	98	5
64	64	2
104	106	2
71	73	2
44	44	13
100	101	6
79	79	27
94	94	12
59	62	6
73	74	9
81	83	3
73	73	20
92	92	36
84	85	5
64	65	3
101	102	7
25	27	6
65	66	3
104	107	8
22	57	2
62	62	4
43	47	4
70	71	11
107	107	7
82	83	4
34	34	4
95	96	15
35	35	8
102	102	20
65	65	13
82	85	1
84	84	7
67	67	9
88	89	6
83	87	2
105	106	2
36	37	5
93	93	14
81	81	15
59	59	1
90	90	14
51	52	9
95	97	2
45	45	21
110	111	11
75	75	13
92	94	1
99	99	4
28	73	1
108	108	10
43	43	9
58	62	2
79	81	2
93	97	3
111	111	10
107	108	9
112	112	5
46	46	2
80	81	7
50	50	5
56	56	8
102	103	16
45	49	2
86	86	6
94	95	10
99	103	4
27	33	1
83	84	6
20	20	6
101	104	4
79	80	11
44	45	5
24	24	4
39	39	12
37	38	2
50	72	1
83	86	2
82	82	11
96	96	14
53	67	1
39	78	1
37	79	2
33	34	6
108	110	2
87	87	5
25	26	3
93	94	10
45	46	3
103	107	2
22	23	3
63	65	2
61	61	13
33	35	5
29	34	3
32	45	1
57	59	1
19	19	4
79	84	2
22	22	10
66	82	3
99	105	3
28	28	5
74	77	1
30	78	3
23	25	3
27	28	3
56	57	4
56	61	1
43	46	3
67	69	2
99	107	3
100	111	2
87	90	3
56	63	1
90	92	1
54	55	4
39	40	7
103	104	4
103	108	1
50	51	12
72	78	3
105	105	6
47	48	8
96	97	6
25	68	3
32	44	5
51	51	6
85	85	6
111	114	1
43	45	9
100	100	4
97	107	4
71	74	7
30	34	1
76	76	23
99	100	6
51	53	5
49	50	5
72	74	5
23	24	8
59	61	8
72	75	3
110	112	2
39	41	6
42	46	2
110	110	6
78	80	2
31	33	1
42	42	4
48	51	1
89	90	7
72	73	3
28	29	5
61	62	1
41	53	2
37	37	10
26	67	1
39	80	1
71	71	10
102	104	5
77	79	3
57	60	2
78	93	2
95	98	1
55	62	1
114	114	5
99	113	1
58	61	4
61	68	1
71	109	2
54	56	3
91	92	4
112	114	6
55	57	6
52	52	4
57	65	1
55	56	3
31	44	5
21	53	3
108	109	5
86	87	1
53	54	1
26	26	9
104	104	3
58	58	5
74	75	3
69	70	4
86	91	1
60	96	4
83	85	1
71	72	4
68	109	1
68	80	1
34	56	2
37	39	2
78	81	3
46	50	1
109	110	4
43	49	1
55	55	1
34	58	2
61	63	1
24	67	2
109	112	1
98	99	2
73	76	2
35	36	6
25	112	1
20	69	5
57	58	2
87	94	1
62	63	2
19	20	3
81	82	5
32	43	2
31	32	4
101	107	1
27	89	2
99	112	1
58	66	3
75	76	1
29	30	2
72	76	1
49	88	1
51	76	3
31	50	2
24	26	1
20	21	2
38	39	1
33	79	2
58	59	2
48	88	4
47	50	2
46	51	2
22	55	2
78	79	4
30	33	1
65	67	3
76	78	4
49	69	1
72	88	1
47	88	2
105	107	3
43	44	2
95	107	1
49	72	2
27	109	1
57	68	1
33	54	1
104	105	3
34	35	1
32	46	2
110	113	1
35	54	1
26	27	2
74	76	1
106	107	1
115	115	1
53	55	1
91	97	1
37	40	1
37	81	1
47	49	1
112	113	1
32	40	1
75	78	1
37	41	1
