99	107	1
198	198	12
10	11	4
219	219	10
164	164	22
179	179	6
204	205	2
17	33	2
170	177	12
177	177	7
22	22	21
15	15	10
12	12	8
59	65	6
34	187	1
210	210	18
156	161	2
156	173	2
118	119	4
80	80	9
159	159	3
160	160	22
231	231	5
161	161	5
157	180	1
79	80	4
212	212	4
66	67	9
81	81	7
6	10	3
217	217	11
49	49	3
112	112	9
16	28	3
214	214	7
201	201	14
40	40	10
191	192	8
104	104	13
209	209	11
233	236	1
52	52	3
62	71	2
178	178	16
211	211	12
151	151	15
10	45	3
144	149	4
115	221	5
198	199	2
213	213	10
52	89	2
105	105	12
172	184	2
108	108	11
93	94	5
5	5	4
7	22	2
105	107	3
170	182	2
158	158	15
175	175	10
236	239	2
153	154	2
15	16	1
16	16	9
168	170	4
20	89	2
46	46	10
116	116	12
113	116	1
189	190	6
9	64	3
185	185	15
119	119	15
156	156	10
97	99	4
167	167	8
34	50	1
147	147	1
218	242	4
170	170	4
167	173	1
90	90	5
18	50	6
160	199	1
172	172	7
170	243	5
242	242	7
200	200	15
218	218	13
223	223	11
96	97	5
14	14	16
14	82	2
246	247	3
109	109	8
220	220	7
184	184	15
48	48	8
213	243	2
224	224	15
225	225	5
237	237	11
217	218	6
181	182	3
97	98	10
57	72	3
4	19	6
158	159	6
39	45	3
67	68	13
24	25	4
74	79	3
75	95	1
246	246	11
218	219	8
7	7	10
78	78	9
165	165	7
64	64	5
1	150	2
171	174	5
113	113	7
73	73	5
57	57	7
211	212	10
60	71	7
25	25	8
34	35	3
240	242	2
30	31	7
203	203	24
214	223	6
115	115	5
193	193	7
173	173	18
49	60	1
51	208	2
103	103	12
8	8	5
229	229	7
190	190	8
154	154	6
70	73	3
52	54	4
88	88	11
180	184	1
240	240	10
169	169	15
168	209	2
155	156	3
3	19	2
156	157	1
202	205	1
100	100	4
44	44	10
32	33	8
61	61	5
68	68	3
90	106	1
183	184	5
4	4	6
210	215	4
35	35	10
6	6	11
182	186	4
85	89	1
33	47	1
163	184	1
239	239	15
176	177	1
228	229	3
66	69	1
45	56	2
32	32	5
89	116	3
161	162	2
145	145	2
59	60	4
91	91	9
59	59	3
14	21	3
50	50	9
61	62	6
171	171	12
95	95	6
153	153	12
178	179	2
189	189	9
199	199	8
180	180	8
9	9	15
22	23	6
188	189	10
64	65	4
171	175	1
213	217	5
55	55	5
169	182	2
10	10	6
194	194	10
158	191	1
115	117	2
241	241	20
52	55	5
163	163	5
217	243	2
71	76	1
117	119	4
31	31	3
176	176	7
54	55	4
84	111	2
18	61	2
58	58	3
20	23	3
27	27	5
163	165	6
49	61	7
166	166	9
195	196	14
57	63	2
37	37	9
232	232	6
7	8	4
39	39	13
161	169	4
167	191	4
218	223	3
159	160	3
191	191	14
96	96	4
170	187	7
74	75	3
219	240	7
114	114	4
226	226	6
35	202	4
13	60	2
53	92	3
247	247	7
56	56	8
232	248	3
187	190	4
225	227	3
222	222	14
230	230	5
235	235	9
31	40	4
22	29	1
40	207	3
208	209	4
205	205	6
34	34	9
162	205	1
30	30	2
75	77	2
23	23	13
35	186	2
33	33	9
231	244	4
11	20	2
100	114	2
116	117	12
186	186	15
212	227	3
38	38	8
144	192	2
22	56	1
208	208	10
93	93	6
89	90	2
171	178	3
204	204	6
58	59	8
181	181	3
228	228	8
206	206	4
194	210	2
181	184	4
27	28	2
174	174	9
238	239	3
158	198	2
95	102	2
50	60	1
202	202	3
159	180	3
92	92	2
215	215	9
242	245	7
51	51	6
192	192	18
21	22	2
17	208	1
162	204	1
86	86	11
51	86	3
79	79	4
117	117	5
145	192	1
107	107	5
182	187	3
213	215	2
5	59	3
102	102	10
146	146	1
75	76	6
87	87	3
54	87	1
47	47	8
232	245	3
193	194	4
43	55	2
102	105	4
206	207	4
28	28	5
89	89	5
120	207	5
98	98	4
2	2	7
210	224	2
88	94	1
212	223	1
41	56	2
35	80	2
157	157	7
165	213	3
216	216	3
174	225	5
80	81	4
197	197	15
76	78	1
102	104	3
97	97	8
60	61	1
11	11	7
166	169	1
196	197	2
76	77	4
152	152	8
101	101	1
26	162	1
185	186	2
29	29	7
17	17	5
18	18	6
152	178	1
233	233	7
66	77	2
28	29	4
85	87	4
28	113	2
216	218	4
80	86	2
99	99	3
6	19	2
35	188	2
98	99	3
162	163	2
104	115	6
233	235	1
214	215	8
187	188	2
192	196	2
144	175	1
41	41	4
71	74	2
157	175	6
188	188	2
101	104	2
2	3	1
147	174	4
19	50	1
236	237	7
50	58	2
29	30	4
152	174	2
224	240	1
242	244	1
10	241	1
26	28	1
201	227	2
157	169	3
75	75	3
110	110	4
37	38	5
87	88	4
182	185	4
153	175	1
85	88	5
82	82	12
26	26	3
51	52	1
238	238	7
81	83	2
112	242	1
187	189	1
24	54	1
165	168	1
150	185	3
154	202	3
158	170	2
79	92	6
80	104	4
51	88	1
230	244	1
159	164	2
172	174	3
112	113	1
15	84	4
161	201	1
36	36	3
4	5	2
151	152	3
72	72	11
84	85	10
48	58	1
20	20	3
52	91	2
21	68	4
236	240	2
49	79	1
53	173	2
165	169	2
106	106	4
59	76	1
146	184	2
230	231	2
57	95	2
38	197	3
80	102	1
84	86	4
157	158	2
183	183	7
17	64	2
158	194	1
71	72	4
19	20	1
199	200	6
195	218	1
207	235	1
10	150	5
3	6	2
212	222	1
50	77	2
177	179	3
5	12	1
55	56	5
207	218	1
96	104	3
113	114	2
178	182	1
66	66	1
110	111	1
190	197	3
19	19	6
66	109	1
241	246	1
54	54	3
73	187	3
161	176	4
75	84	1
57	82	3
48	49	3
245	245	1
162	162	4
236	236	3
244	244	8
167	198	2
211	213	1
219	224	2
102	112	1
69	69	6
120	144	2
209	210	5
21	57	2
234	234	9
207	221	1
85	85	2
147	182	1
88	89	2
175	181	2
76	102	4
90	105	2
13	37	3
197	198	4
18	49	4
21	21	2
2	14	2
11	45	2
90	117	3
14	15	2
150	202	2
48	76	2
72	73	1
172	173	3
52	53	2
149	149	4
35	144	3
68	77	2
100	101	1
120	120	1
80	82	1
209	225	2
11	23	1
45	94	1
20	22	4
221	222	4
207	223	3
76	76	2
147	192	3
225	231	1
243	243	2
210	211	4
163	164	1
145	167	2
247	248	3
69	84	2
207	207	4
58	94	3
240	241	4
239	240	3
6	22	3
158	188	2
227	227	1
237	238	1
20	21	2
95	96	1
206	220	1
214	226	1
1	1	5
96	98	1
208	215	3
101	102	1
93	95	1
157	159	5
10	22	1
165	167	1
91	94	1
35	50	1
39	46	1
209	211	4
102	103	2
24	26	1
29	205	1
104	107	1
193	195	3
65	66	2
156	166	1
168	168	3
10	21	3
171	179	1
32	44	1
70	70	4
29	44	2
51	67	1
184	242	2
155	155	5
81	82	1
168	169	1
31	32	1
49	80	2
50	59	4
164	166	2
4	15	2
150	150	2
13	61	2
213	214	1
15	34	1
187	187	2
94	94	1
172	232	4
157	218	1
197	209	2
169	170	2
49	231	1
201	203	1
71	71	5
24	31	2
239	242	1
18	62	2
221	224	1
241	248	1
46	61	1
91	113	2
16	87	2
245	246	1
47	231	2
58	60	1
208	210	2
85	86	4
36	43	1
53	53	1
23	58	2
179	180	1
43	43	4
156	179	2
145	163	4
82	83	1
164	211	1
39	40	1
49	57	2
87	92	1
27	113	1
90	103	1
65	65	1
169	177	1
146	147	1
188	191	2
50	57	2
6	20	1
78	92	2
166	177	2
32	110	2
191	196	1
5	17	1
218	240	1
71	73	1
96	101	1
158	181	1
47	48	1
89	113	1
184	192	1
234	235	1
203	204	1
110	246	1
15	55	1
221	221	2
45	45	2
4	14	2
16	36	1
196	210	2
162	201	1
169	180	1
225	239	3
48	50	1
94	95	1
248	248	1
232	247	1
118	118	1
114	116	1
77	77	1
47	77	1
111	111	3
70	72	1
196	196	2
2	57	2
33	34	2
60	60	2
215	223	1
184	185	1
67	67	1
214	216	1
37	43	1
161	177	1
166	179	1
146	183	1
168	201	1
102	107	1
21	150	1
74	74	1
46	47	1
242	243	2
11	38	1
52	145	1
78	84	1
90	112	1
104	105	1
241	242	1
114	115	1
35	36	1
212	213	1
112	243	1
156	178	1
63	72	1
96	103	1
32	40	1
208	233	1
216	220	1
21	25	1
169	201	1
46	64	1
