2	2	5
141	141	10
59	77	7
59	59	1
198	198	1
49	50	5
140	142	2
157	158	3
174	182	4
134	134	5
158	158	6
15	15	4
184	184	3
221	222	2
97	98	1
18	18	8
168	168	1
23	24	2
45	74	2
241	241	5
186	186	4
154	174	2
241	242	1
188	188	5
199	199	4
5	6	5
95	95	4
218	218	2
212	212	4
205	206	3
173	174	2
76	79	3
122	122	2
178	178	4
2	41	10
150	213	1
51	52	11
200	200	5
214	214	5
234	234	8
20	143	3
69	83	3
168	170	6
7	12	1
86	86	3
204	205	2
29	66	2
8	8	6
220	225	2
16	16	13
185	185	9
149	149	1
49	67	2
127	127	5
189	190	3
70	71	4
20	24	4
215	216	3
30	53	6
203	204	3
57	57	7
107	108	8
210	210	3
195	195	6
161	161	2
197	197	4
175	212	5
53	53	7
120	121	4
35	35	3
240	240	4
34	34	4
47	47	6
69	69	8
42	42	9
18	21	7
144	145	5
11	58	1
226	226	3
141	143	5
212	213	5
46	48	1
4	4	5
10	11	2
27	27	9
101	101	3
30	56	4
9	10	8
3	3	7
13	13	7
121	121	3
30	79	5
167	167	5
113	113	9
140	140	3
39	39	4
193	193	5
10	10	5
9	15	2
3	48	5
214	215	1
45	45	1
98	98	3
154	156	3
3	8	2
102	102	9
126	127	2
232	233	1
108	129	1
189	189	3
82	82	8
149	150	2
223	223	1
200	229	2
105	134	3
20	20	3
37	39	2
2	7	7
62	62	5
111	118	6
193	200	1
219	219	4
16	17	2
209	209	3
70	70	5
99	99	4
151	151	3
54	86	4
6	7	2
206	206	2
11	23	3
74	74	9
118	118	1
104	106	2
103	103	3
30	30	3
75	75	2
26	27	1
148	148	3
43	43	3
40	40	12
147	199	5
135	135	6
56	57	2
137	137	2
228	229	2
33	51	1
196	211	1
202	202	5
205	205	6
187	205	4
158	159	3
14	15	8
32	32	2
80	222	3
201	201	3
100	100	6
114	128	1
58	61	3
142	142	4
31	31	3
179	188	1
21	21	3
107	117	2
184	187	3
81	81	1
6	6	4
231	231	7
115	116	2
21	22	2
51	51	6
46	241	3
4	7	4
28	37	2
77	77	4
155	155	3
31	32	2
11	12	1
138	139	4
37	38	1
66	66	9
72	72	9
120	120	11
130	167	2
24	24	9
19	19	1
8	34	1
45	159	3
200	216	2
220	220	7
165	166	3
36	36	2
14	14	2
207	207	4
19	21	1
166	179	8
65	65	5
204	204	2
111	111	1
29	31	3
4	5	1
136	136	2
4	58	1
105	105	3
239	240	3
180	180	3
146	146	5
145	145	4
63	69	4
50	60	2
29	48	2
153	154	4
212	216	5
175	176	2
217	217	2
165	165	4
64	64	2
28	42	2
112	153	2
144	144	2
201	202	1
61	61	5
38	153	1
50	50	1
187	188	6
238	238	3
60	60	4
153	153	1
48	78	2
58	58	1
19	20	1
57	79	4
95	96	2
56	77	2
139	139	1
98	99	2
17	17	4
227	227	4
43	236	1
34	36	5
195	197	2
60	61	1
215	215	2
12	12	3
76	78	3
13	16	1
236	236	3
179	179	2
85	85	1
105	107	3
190	190	2
97	97	1
173	173	3
5	5	3
21	41	1
124	124	4
175	186	5
28	28	2
216	217	2
0	0	3
143	143	2
79	79	2
5	9	1
152	171	3
190	237	3
226	227	1
66	67	1
176	176	4
60	81	1
146	162	2
116	116	2
128	128	1
159	159	1
176	183	2
31	48	3
106	106	2
125	129	4
9	11	1
41	41	5
15	16	4
129	130	1
81	82	1
20	84	1
127	128	1
7	7	4
224	224	2
26	26	3
48	48	2
167	177	1
180	197	5
162	162	1
23	23	2
170	170	1
150	150	2
135	136	2
82	83	1
114	170	3
109	109	2
84	84	1
123	123	2
220	239	1
9	9	6
223	224	3
160	172	1
239	239	3
233	234	1
32	33	1
33	33	2
235	235	1
202	235	2
83	83	5
145	148	1
31	45	4
126	126	3
151	152	1
229	229	1
164	164	3
182	182	3
219	224	2
177	185	3
67	67	2
128	169	3
7	8	2
194	211	2
217	218	1
26	52	1
2	16	1
150	153	1
31	56	1
63	67	1
73	73	2
216	216	1
18	22	1
169	171	1
83	89	1
116	140	1
160	161	1
242	242	1
31	59	2
211	234	1
48	51	1
222	222	1
71	71	1
215	218	3
34	37	3
171	172	1
44	44	2
228	228	1
1	1	3
96	96	2
25	25	2
199	217	1
46	46	1
71	73	1
230	230	1
55	85	2
192	216	2
219	228	1
160	160	1
39	54	1
115	115	1
54	54	1
19	76	1
192	198	1
49	49	1
187	187	1
33	34	1
152	173	1
180	183	2
27	70	1
8	33	1
31	58	1
76	77	1
225	225	1
49	59	1
37	37	1
63	63	1
208	229	1
143	145	1
48	49	1
95	123	1
24	25	1
5	7	1
154	162	1
