134	137	4
134	134	24
38	38	10
9	9	7
118	119	10
29	29	22
52	52	8
133	136	1
18	18	17
69	71	3
137	138	10
118	120	3
60	66	2
126	126	40
117	118	8
80	80	12
8	8	15
22	22	13
33	34	5
30	30	5
89	89	11
132	133	4
131	131	19
123	131	3
101	101	2
17	82	4
39	39	12
59	60	2
135	138	3
133	133	16
125	129	9
103	104	2
142	142	18
8	9	8
28	29	5
23	24	11
20	20	10
64	76	2
58	58	4
125	128	6
114	114	13
101	134	3
138	138	10
130	131	5
13	14	3
2	2	22
125	127	16
107	108	9
133	140	2
64	64	6
55	55	7
10	10	11
64	74	2
17	18	6
13	47	2
35	36	5
134	135	9
31	31	20
16	16	8
50	50	6
118	118	38
140	141	10
81	81	4
128	128	27
26	26	9
51	52	5
87	120	2
132	132	11
28	28	13
2	3	1
15	17	7
145	145	6
69	69	8
0	2	1
24	122	2
103	103	13
60	61	5
86	86	9
68	68	4
80	89	1
83	83	6
22	23	11
89	90	10
123	123	19
115	116	4
26	27	5
94	112	3
60	68	3
34	34	11
69	70	3
16	18	5
67	68	7
61	61	11
9	10	7
95	95	10
129	129	14
128	129	8
100	101	2
97	97	7
1	18	1
1	1	4
25	80	3
123	124	11
24	24	7
38	41	2
29	40	3
80	81	6
138	141	6
104	104	12
124	124	19
23	23	9
120	120	3
19	19	16
115	117	2
3	3	4
65	66	7
130	134	3
135	135	10
88	89	5
43	43	2
21	21	12
107	107	8
99	99	15
59	61	1
72	72	7
124	126	2
63	63	2
39	95	2
136	136	13
49	49	10
73	73	6
16	43	2
66	66	13
120	121	2
108	108	8
59	81	3
137	137	6
132	137	4
117	117	10
54	71	1
128	130	2
84	85	6
32	98	6
27	27	9
35	35	4
98	98	12
79	80	4
33	33	6
65	65	7
96	109	6
69	88	1
6	6	10
4	4	7
68	70	1
49	53	1
58	60	2
113	113	12
62	63	6
32	32	6
101	114	3
84	118	2
124	125	5
124	144	3
38	39	1
140	140	18
104	105	4
56	56	5
121	121	11
119	119	14
144	144	2
119	123	5
91	91	7
124	129	3
1	4	4
125	125	11
68	69	9
25	27	3
66	69	1
32	33	1
87	94	2
122	134	1
98	103	3
112	117	2
102	104	3
29	32	5
74	120	7
136	137	3
78	78	2
17	17	1
67	67	9
36	37	4
119	130	4
74	74	10
18	19	10
123	142	1
115	115	11
115	120	7
76	117	2
14	14	7
58	59	9
133	134	6
54	54	5
2	26	2
105	106	2
130	132	1
92	92	4
74	101	4
70	73	3
16	17	2
5	6	2
116	120	2
127	127	9
23	74	1
109	109	2
20	26	9
84	84	8
83	136	1
8	15	4
83	118	2
110	111	4
3	47	4
73	74	2
36	36	14
47	70	1
5	12	2
138	139	7
92	93	3
13	13	6
24	25	1
82	82	7
48	48	12
97	106	2
102	102	7
27	28	3
59	76	3
110	110	3
74	75	2
141	141	7
12	13	3
140	143	1
77	77	4
50	51	2
86	87	3
125	126	5
41	41	5
66	68	1
109	111	4
99	137	4
0	12	2
133	135	3
119	124	3
66	80	1
130	130	5
80	82	4
10	12	1
5	5	6
20	24	1
37	37	6
96	96	8
98	104	3
113	114	3
61	62	2
137	139	5
85	85	3
18	27	4
95	110	6
93	93	4
79	79	4
105	105	11
57	57	4
88	88	3
122	123	8
42	42	5
118	121	3
18	25	1
100	128	2
21	37	1
5	15	1
62	62	5
102	143	3
80	113	1
87	88	3
102	103	3
144	145	2
89	115	3
99	101	2
126	130	2
96	100	1
53	53	3
47	47	6
66	67	3
94	94	8
25	25	1
117	124	1
139	139	6
66	77	4
30	94	2
38	40	2
30	32	1
29	39	2
85	113	4
100	110	1
143	143	4
113	116	2
25	28	2
101	116	1
102	124	1
31	39	1
48	50	4
59	59	5
65	76	1
76	78	2
66	75	1
12	12	3
74	102	1
97	98	3
2	4	3
5	14	3
0	43	1
100	115	1
0	0	2
78	79	3
82	141	1
129	130	2
25	26	4
11	38	2
131	132	4
30	31	1
131	142	4
40	40	11
90	90	5
119	120	2
142	143	1
20	21	4
122	122	4
123	129	3
60	60	6
13	15	1
111	112	2
87	87	4
141	143	2
122	124	1
76	80	1
27	38	1
21	33	1
127	131	1
34	35	6
122	136	1
25	82	1
61	100	1
18	141	2
83	128	3
2	89	3
3	33	3
143	144	4
127	130	5
95	99	2
139	140	3
95	96	2
49	144	2
15	15	2
8	22	2
85	86	1
124	137	1
2	38	1
49	50	4
100	100	6
84	110	1
81	82	2
75	77	1
96	97	3
31	33	1
97	117	1
91	93	2
30	115	1
21	36	1
26	80	1
30	96	1
83	84	1
3	34	1
77	78	2
39	41	2
119	121	1
4	47	2
141	142	1
27	37	3
96	129	1
102	121	1
106	106	1
101	126	2
93	94	1
99	100	2
52	53	2
98	115	1
96	106	4
15	16	1
11	11	3
132	135	3
127	129	1
89	91	3
76	76	2
101	127	4
57	59	1
30	52	1
101	102	4
111	123	1
64	65	2
114	117	1
112	112	1
74	97	3
139	142	2
135	137	1
101	123	1
35	37	1
120	134	1
75	75	2
104	113	2
78	86	1
16	25	1
70	86	2
17	53	1
63	75	1
55	56	1
127	132	1
122	135	1
63	64	2
91	92	1
87	128	1
72	110	2
14	15	1
99	102	1
60	67	1
116	134	1
98	99	4
104	119	1
51	51	1
39	94	1
71	72	1
30	62	1
55	57	1
25	87	2
3	4	1
128	132	1
14	16	1
76	79	1
23	71	1
70	70	1
114	116	1
95	139	1
55	58	1
94	96	1
70	122	1
38	88	1
108	109	1
27	29	1
5	39	1
26	37	1
48	49	1
