179	191	3
0	12	5
138	139	5
174	175	9
18	23	2
57	57	3
36	36	2
174	176	4
11	25	3
178	178	10
112	112	7
70	70	4
192	192	14
194	194	17
187	187	23
127	127	10
161	161	16
117	117	13
121	121	9
30	181	2
161	162	12
182	182	17
154	155	3
38	39	3
19	19	13
153	153	23
163	163	4
15	15	12
48	196	2
105	105	13
183	183	19
11	11	8
116	118	3
119	141	6
142	157	1
181	182	4
108	108	16
43	194	2
40	41	8
26	26	10
14	14	5
41	41	16
19	35	2
32	64	2
174	174	7
117	155	3
169	169	13
10	10	21
3	4	9
119	136	5
173	178	3
43	43	15
103	103	5
126	126	20
148	149	2
186	186	11
133	136	4
180	181	8
137	157	5
110	112	2
81	81	2
54	54	20
176	178	4
139	139	6
178	190	2
187	188	6
162	162	7
150	151	2
98	98	9
134	135	5
116	116	3
140	140	7
54	56	5
62	63	11
125	196	3
182	183	4
68	77	2
111	148	1
143	157	5
72	72	6
165	165	3
143	143	19
185	185	7
132	135	4
184	184	4
155	156	7
69	73	4
10	12	1
170	170	17
145	158	2
128	128	14
88	89	6
173	173	10
31	37	9
34	38	5
177	177	9
175	175	14
4	4	6
82	83	6
122	122	5
7	7	11
166	166	13
96	96	6
131	132	1
151	151	14
175	191	1
26	27	4
142	142	22
179	179	13
68	68	2
124	124	12
116	117	6
3	3	8
167	191	1
21	21	2
53	54	2
70	78	6
133	133	12
138	179	2
105	107	8
132	144	6
12	23	1
160	160	13
172	172	10
158	158	7
143	163	3
137	137	12
130	130	7
109	109	7
146	156	2
148	172	2
129	129	3
159	160	14
18	21	2
82	82	5
22	23	1
125	125	12
101	101	3
108	109	6
102	102	6
31	31	11
131	148	5
193	193	11
160	171	1
119	182	2
101	148	6
181	181	6
154	154	6
105	106	15
170	171	2
62	62	10
147	152	7
178	180	4
28	28	6
139	141	1
133	135	6
189	189	8
83	84	6
141	141	4
150	150	9
110	110	12
136	136	10
76	76	1
132	146	2
147	147	4
39	39	16
180	180	8
137	144	1
131	144	2
104	105	5
196	196	19
169	170	1
23	23	14
113	114	2
101	107	2
37	37	7
9	9	18
149	151	5
11	13	4
164	164	3
29	29	13
83	85	1
171	171	15
155	159	2
146	147	7
30	183	6
145	145	11
56	88	1
53	124	1
4	10	2
124	197	3
0	2	2
196	197	9
87	197	2
159	171	2
31	32	7
131	131	6
35	76	6
32	32	11
188	188	12
64	85	2
60	60	3
38	38	16
132	132	16
16	16	9
49	49	6
195	195	12
120	121	1
102	164	2
8	8	10
52	52	12
144	144	9
5	10	2
157	158	9
191	192	5
168	168	1
99	99	9
94	94	15
8	9	3
82	111	5
179	180	5
47	47	12
190	190	15
25	40	5
61	64	6
104	104	8
141	142	2
15	196	4
105	110	3
168	169	4
111	111	9
86	86	2
149	149	20
171	172	6
3	19	4
13	44	3
173	175	8
35	35	8
59	60	2
67	67	4
54	55	3
77	77	4
30	31	2
22	45	1
102	103	3
62	64	2
54	107	2
23	24	2
9	33	1
115	115	12
159	159	16
27	181	3
101	103	2
83	83	5
74	75	2
46	47	6
123	124	2
89	89	2
188	191	5
19	20	3
103	163	1
135	135	4
107	107	8
64	64	9
107	177	1
110	140	4
20	22	5
161	165	1
156	156	9
177	178	3
32	58	1
176	177	7
123	123	8
5	5	4
75	76	1
145	146	1
168	191	3
10	13	1
6	8	3
156	157	2
100	104	3
24	24	10
160	166	1
50	184	3
100	149	3
46	46	13
53	55	4
1	4	2
165	191	3
186	193	5
106	106	8
24	25	2
95	95	1
157	157	3
126	186	1
155	174	2
72	76	3
105	145	3
163	164	6
177	191	3
95	117	2
13	13	5
167	167	8
154	179	2
115	127	4
12	12	3
146	146	9
107	108	8
101	149	1
59	90	5
9	194	3
133	141	2
152	159	3
85	85	3
27	27	6
175	178	4
120	120	7
161	163	1
100	100	8
30	45	3
136	137	5
197	197	2
182	195	3
148	148	5
74	74	2
132	156	2
147	179	3
114	115	3
160	172	1
162	163	4
141	149	2
51	51	8
29	62	4
160	164	1
30	34	2
143	146	1
42	43	1
69	69	3
128	149	1
139	140	3
19	22	1
131	142	2
106	189	2
168	197	3
45	45	6
186	187	5
44	186	1
102	178	3
124	125	2
32	37	3
50	50	10
28	29	1
53	56	4
56	56	2
23	38	2
25	25	1
12	24	3
158	159	4
44	45	1
188	189	4
143	145	1
131	135	2
0	1	7
38	58	1
16	18	1
160	182	2
48	49	3
102	104	5
133	162	3
48	48	10
148	151	1
119	132	5
10	25	2
27	30	1
151	167	9
108	148	3
103	178	1
97	97	3
174	177	3
100	101	3
14	15	4
33	33	7
134	134	4
113	113	6
80	80	1
34	34	6
14	44	3
79	80	1
53	53	5
55	55	4
74	76	3
194	195	2
50	54	4
146	181	2
64	66	2
136	156	2
125	194	1
95	100	3
118	118	4
25	26	1
1	1	8
7	8	1
121	122	2
167	171	2
10	42	2
172	173	4
185	191	1
3	8	4
34	37	1
6	10	3
93	93	4
63	63	4
34	35	3
85	86	2
152	152	4
159	173	4
119	122	1
84	84	3
166	167	1
176	176	8
18	18	4
100	120	3
81	82	3
9	13	2
55	79	1
98	100	1
154	174	1
34	61	1
115	118	3
109	110	3
133	177	1
101	105	4
167	168	1
9	25	2
191	191	4
71	72	1
16	17	6
101	185	1
147	180	1
114	125	2
58	58	2
40	40	4
130	153	1
62	84	3
69	78	2
135	136	3
50	51	4
189	190	2
19	38	2
129	152	1
1	12	5
10	11	6
61	61	3
114	114	4
79	81	2
88	88	2
125	129	6
78	78	2
161	169	2
61	85	3
152	167	2
44	44	8
137	145	1
96	119	4
68	79	1
73	74	4
96	97	1
67	68	2
32	196	1
185	186	1
30	30	2
50	56	3
143	179	4
162	181	2
162	180	2
157	161	1
132	133	1
4	7	1
167	169	1
20	20	6
42	42	4
149	172	2
1	23	3
48	52	2
71	75	1
17	23	1
149	150	2
15	43	1
5	6	1
160	170	1
181	193	1
132	141	2
101	189	3
110	121	1
151	152	2
4	9	3
149	176	1
112	141	1
83	94	4
158	161	2
125	127	1
0	18	1
195	196	4
120	125	1
143	180	6
2	2	3
89	90	1
6	19	1
183	188	1
20	21	1
19	23	2
59	64	3
152	173	1
53	197	1
143	144	1
150	152	1
17	20	1
109	111	2
131	143	2
138	138	3
45	48	1
190	192	2
142	143	1
54	101	2
6	20	1
65	66	1
156	158	1
66	171	1
157	172	2
0	4	2
145	177	1
75	75	3
131	134	1
149	171	3
59	59	2
71	71	5
129	136	3
126	127	3
82	93	1
120	132	1
77	78	1
87	87	2
27	28	1
16	25	3
79	79	2
165	167	1
73	77	2
112	113	1
22	29	1
120	126	1
1	2	3
119	157	2
122	128	1
123	149	1
11	12	1
17	17	1
35	38	2
103	104	1
60	65	1
156	160	2
7	20	2
113	166	1
150	167	2
147	173	1
175	179	1
98	99	1
2	20	1
47	54	1
90	90	5
109	162	1
193	194	1
6	7	1
5	7	1
141	148	2
21	29	2
134	179	1
30	35	1
169	171	1
165	166	1
152	153	1
122	123	1
60	64	1
153	155	1
72	75	1
31	130	1
26	193	1
132	134	1
43	48	1
15	16	1
182	184	1
144	147	1
99	101	1
96	116	1
39	40	1
95	97	1
33	37	1
119	150	1
160	163	1
140	144	1
