34	42	1
102	102	25
28	28	10
58	58	11
56	56	15
33	33	6
23	74	2
105	105	26
31	31	17
46	46	14
106	106	7
91	91	13
96	96	30
49	70	1
32	32	7
24	24	23
75	76	4
23	39	1
100	100	14
88	90	1
53	104	4
68	68	13
40	45	1
65	91	1
52	53	10
51	51	13
65	65	20
84	84	20
71	71	18
77	77	14
97	98	12
62	62	16
35	35	18
52	52	8
46	94	7
90	90	15
38	38	6
20	31	2
28	48	8
72	90	2
97	97	15
89	89	11
64	64	13
21	21	3
77	91	1
73	89	6
74	75	2
66	66	11
27	27	6
32	33	3
81	81	14
27	28	7
50	50	16
41	41	6
57	57	12
67	67	6
103	104	3
49	49	6
94	94	22
95	95	28
90	95	7
104	105	8
86	87	4
92	95	4
93	93	17
44	44	9
86	88	4
82	83	8
55	63	3
98	98	21
39	39	10
75	75	21
87	89	3
61	61	25
23	23	15
38	39	14
26	26	10
58	60	12
72	72	4
26	27	2
82	82	12
21	22	4
66	67	5
34	34	13
73	74	4
96	97	1
36	36	9
48	48	11
80	93	1
25	29	4
78	78	11
40	47	1
101	101	19
73	73	15
44	58	3
76	78	3
61	63	4
60	60	11
57	58	7
77	89	1
62	64	3
67	68	2
69	69	2
80	80	17
47	47	2
55	56	4
76	77	5
21	71	2
57	60	3
103	103	24
27	35	2
104	104	11
70	70	10
77	78	3
78	91	3
41	43	1
71	101	3
26	28	4
72	107	1
71	73	1
22	22	6
80	81	15
25	25	8
45	68	4
36	37	3
29	35	3
83	85	2
61	62	10
53	54	3
83	84	10
41	87	4
86	86	3
71	72	8
63	64	9
53	53	8
76	76	12
20	20	7
79	79	10
55	70	3
42	44	2
85	86	2
65	67	1
79	81	1
54	54	7
55	55	12
48	50	1
35	75	1
29	44	1
35	74	1
35	39	2
59	60	7
30	40	1
72	106	1
43	44	6
85	85	5
64	65	4
60	64	4
29	29	7
22	50	2
56	72	2
83	83	17
61	70	5
99	99	6
53	93	1
25	46	3
42	49	2
29	30	3
21	23	1
33	34	6
32	85	2
39	40	3
25	44	2
35	37	3
78	81	1
49	92	2
40	40	5
35	36	4
98	99	4
56	73	1
46	47	1
73	83	3
69	71	6
56	57	3
65	66	7
107	107	2
59	74	2
72	73	2
78	96	2
34	70	1
72	91	4
60	81	1
74	74	10
30	30	8
33	71	1
87	87	17
95	96	4
35	104	2
101	102	5
49	50	4
77	79	2
53	102	1
31	43	4
69	70	2
45	45	6
73	95	1
70	71	2
51	66	2
94	97	2
30	31	3
63	63	4
100	101	6
62	63	3
22	74	1
88	88	6
48	49	1
70	75	2
97	99	3
47	77	2
47	48	8
43	43	1
51	53	1
92	97	1
41	45	2
91	92	1
57	61	1
73	77	2
100	103	3
25	28	2
92	93	2
37	37	5
46	84	1
22	23	5
103	106	2
71	92	3
26	29	1
32	35	2
79	82	1
95	98	1
61	102	2
56	67	3
99	105	1
58	61	1
75	91	1
43	55	1
28	30	2
89	90	3
52	64	1
50	91	1
65	68	2
68	69	6
44	66	2
51	52	1
52	93	1
96	103	2
35	40	1
99	106	1
51	65	1
102	103	2
41	44	1
58	62	1
47	57	2
87	88	1
62	65	2
85	88	2
58	83	1
32	34	2
59	59	2
93	94	1
22	36	3
37	38	3
88	89	1
25	27	2
79	80	2
25	30	3
80	88	1
42	42	2
74	90	2
94	99	1
83	86	2
23	24	1
78	93	1
70	103	1
101	103	1
29	66	2
45	86	1
47	49	1
94	96	1
52	70	1
71	103	1
33	48	1
50	51	1
47	94	1
56	63	1
66	81	1
45	87	2
31	34	1
25	49	1
37	101	1
