72	72	4
48	48	15
68	68	22
63	63	14
41	42	6
71	71	35
25	25	4
68	100	2
52	73	2
48	92	7
65	65	20
20	20	5
62	62	12
79	79	22
32	32	5
97	97	15
52	52	11
64	80	4
67	67	18
31	34	1
23	84	5
80	85	5
41	69	4
59	59	20
29	85	1
22	66	3
34	34	6
40	40	7
57	57	19
95	96	6
49	50	5
84	84	7
31	31	5
40	72	1
75	75	12
93	93	18
70	70	9
42	43	3
99	100	4
58	58	19
74	74	10
45	50	2
89	89	3
37	94	5
32	45	2
86	87	7
76	76	17
90	91	4
92	92	14
90	90	19
101	101	17
79	80	11
81	81	9
83	92	2
51	52	13
24	24	11
95	97	5
73	74	9
80	80	13
38	38	12
101	102	6
45	45	20
74	86	6
66	66	11
69	69	17
88	88	6
45	82	1
33	87	1
47	100	3
39	63	4
98	98	11
42	101	1
58	59	7
31	55	5
102	102	3
24	98	4
30	55	5
41	41	15
59	65	2
71	72	4
53	53	13
36	56	5
30	30	11
70	79	3
51	51	9
38	94	3
66	72	5
50	50	18
71	76	1
77	77	17
86	86	15
94	99	2
35	35	7
26	26	2
49	49	8
32	54	8
83	83	12
51	55	3
47	48	10
61	61	18
34	57	4
36	36	9
87	87	11
38	78	4
64	65	4
24	25	2
73	73	10
47	47	14
62	63	4
62	95	1
34	35	3
29	29	11
69	70	9
91	91	10
49	83	3
87	88	9
38	61	10
33	33	9
66	76	3
76	77	7
42	42	18
70	71	5
99	99	14
96	98	2
85	85	12
60	60	17
67	69	1
28	28	12
46	47	6
93	99	3
95	95	10
33	34	5
94	94	15
96	96	8
44	71	3
49	76	4
99	101	3
94	98	4
71	86	4
80	83	1
65	85	4
22	40	3
65	74	2
23	76	1
63	90	7
86	88	9
46	46	10
34	77	3
56	56	3
61	91	4
80	86	3
22	22	4
30	92	1
78	78	12
88	99	4
27	91	3
55	55	6
26	93	2
20	21	2
22	51	1
28	29	1
23	66	3
81	101	6
42	44	2
63	64	2
76	80	3
21	22	1
37	38	6
43	43	4
67	83	1
22	41	2
45	46	6
27	98	4
59	66	2
44	44	10
39	40	5
67	68	8
56	57	2
29	30	1
97	98	2
45	100	2
48	49	2
57	93	7
46	49	2
45	93	1
71	88	1
63	97	1
54	54	5
87	93	7
81	82	6
37	83	2
38	96	7
34	56	2
94	96	5
39	39	5
83	94	3
32	33	1
96	97	1
80	87	3
66	101	1
94	97	3
26	28	2
44	45	3
53	93	3
84	89	1
42	76	2
35	55	1
31	51	3
79	101	2
46	87	3
100	101	1
46	92	2
54	55	2
27	54	1
77	93	2
65	66	1
29	100	5
82	82	6
100	100	7
77	79	2
49	100	3
61	62	1
43	72	2
47	83	2
74	76	1
23	60	4
53	54	2
98	99	3
72	75	1
25	26	1
20	83	3
41	66	1
64	64	7
55	78	1
23	98	2
42	72	1
34	41	2
50	90	2
93	94	2
27	28	3
80	82	1
26	94	1
69	77	1
44	73	2
29	52	3
59	63	1
57	92	3
86	92	2
71	83	2
35	37	2
50	99	1
38	60	1
40	43	1
91	93	2
41	44	3
50	92	1
24	61	1
73	88	1
84	87	1
70	78	1
88	98	4
70	76	1
29	32	1
77	78	1
56	93	1
91	92	1
30	59	2
27	27	1
83	99	1
50	51	1
38	91	1
65	87	4
74	75	2
94	95	2
27	57	1
33	94	1
46	101	1
64	101	2
36	37	1
37	46	1
35	63	1
37	37	1
78	91	2
56	92	1
64	73	1
87	97	1
69	78	1
