45	45	5
156	167	8
16	16	12
35	35	5
217	217	13
198	198	4
207	207	11
201	220	5
47	47	10
179	179	2
64	64	5
54	55	4
46	47	11
15	21	4
98	98	4
74	74	19
63	64	2
81	81	7
184	185	10
11	11	11
96	96	11
21	21	5
86	86	6
58	61	2
223	223	2
164	165	7
236	236	13
63	63	4
152	153	2
75	76	2
221	222	2
5	7	2
13	13	7
170	179	4
141	142	6
226	226	2
11	18	2
85	85	12
215	221	1
15	15	8
37	37	5
140	157	3
56	56	15
25	25	5
49	75	1
30	47	3
88	88	5
235	235	14
29	46	4
153	154	3
143	143	12
215	228	2
11	13	4
168	168	5
193	194	5
39	46	3
13	14	9
215	216	1
139	140	3
49	54	3
141	141	5
227	227	3
16	56	2
55	55	4
69	69	4
17	23	3
136	136	4
116	117	6
21	48	3
113	113	2
181	181	5
1	33	4
19	19	4
81	82	4
2	4	4
4	5	2
49	88	3
42	42	12
78	80	3
10	29	3
23	23	5
30	31	1
83	83	7
204	206	7
205	210	3
5	5	9
172	185	2
33	33	8
74	231	3
85	86	4
84	84	7
213	213	4
58	58	4
62	63	2
189	189	3
12	13	6
0	18	1
97	97	2
205	205	6
178	178	2
168	169	4
10	21	4
169	169	10
32	32	3
167	188	4
215	215	6
18	18	9
147	153	3
40	40	11
37	56	3
169	199	4
25	26	5
3	3	4
31	49	2
186	186	2
17	31	1
161	161	2
30	30	9
237	237	13
209	215	2
229	229	12
66	66	16
113	114	2
174	174	4
232	232	4
35	54	6
57	57	8
8	8	5
24	24	3
240	240	9
4	6	1
34	34	7
128	128	5
152	152	11
48	48	2
35	36	7
96	102	3
238	242	2
21	22	11
145	150	5
239	239	2
22	22	9
80	84	2
187	188	2
193	195	6
66	67	1
53	53	7
100	100	6
146	147	5
165	227	2
107	108	4
29	30	3
104	105	1
137	145	1
0	0	5
234	234	2
179	180	2
3	9	3
12	78	2
220	221	3
76	78	7
44	44	9
208	209	2
105	105	4
50	50	14
39	39	1
218	218	7
172	201	3
139	139	1
192	196	1
202	203	1
136	143	4
65	67	6
97	124	2
69	71	9
210	215	4
144	148	3
120	120	11
13	58	5
38	38	6
220	224	2
219	231	3
199	200	3
46	46	11
208	208	3
118	125	1
74	75	3
107	118	2
7	7	6
32	53	5
145	145	6
182	182	5
138	190	1
118	118	3
195	195	1
123	126	4
209	209	3
58	80	5
26	27	3
179	186	3
174	201	4
10	11	4
59	80	2
64	65	3
145	146	7
203	221	3
158	158	5
65	65	7
172	172	3
161	220	2
70	74	4
5	6	8
89	89	1
21	23	6
14	79	1
49	49	7
4	4	8
169	171	6
68	68	4
80	83	3
148	186	5
52	52	3
106	106	3
170	170	3
173	178	2
26	26	9
11	38	1
38	47	3
170	176	2
242	242	7
49	56	1
40	41	4
77	77	9
72	72	6
222	222	8
175	175	8
15	16	5
33	36	2
45	96	5
149	150	1
101	101	9
104	104	6
216	216	3
14	14	4
153	153	4
195	229	2
41	41	12
57	58	5
177	178	3
38	73	3
224	224	6
97	102	1
128	137	3
181	183	6
48	49	6
211	212	1
27	27	5
189	225	6
156	158	2
145	159	2
199	199	6
241	242	1
72	97	7
101	102	3
17	17	6
109	110	2
144	146	5
32	57	2
10	27	6
3	8	3
82	83	9
176	185	1
165	165	5
55	56	2
102	102	4
67	98	3
52	142	3
125	125	3
196	196	1
48	66	2
135	151	1
186	187	7
59	82	4
193	196	2
119	119	3
106	108	2
15	37	2
61	128	1
191	191	5
203	205	2
129	129	3
200	200	2
36	36	7
10	28	2
213	215	1
67	81	1
70	70	4
51	52	6
72	83	1
138	138	5
62	62	6
201	201	4
71	131	1
225	225	8
193	193	4
127	127	1
48	74	3
130	130	2
45	46	2
159	159	9
11	12	2
185	185	3
99	99	3
35	48	3
33	48	4
23	57	1
131	144	1
45	133	3
189	192	2
74	86	3
13	38	2
75	81	1
140	140	6
26	232	3
5	16	3
69	72	3
105	118	2
228	228	5
40	42	2
20	20	7
155	156	8
146	146	3
166	190	1
190	190	2
103	106	1
180	180	3
12	18	3
173	173	3
48	62	1
157	157	2
97	99	3
66	77	5
80	82	1
26	218	2
16	31	6
141	158	4
48	75	1
62	64	1
83	142	2
113	118	6
78	84	1
217	218	3
103	103	7
149	152	4
17	34	3
180	184	2
15	30	3
12	15	2
77	80	4
50	57	1
20	231	4
151	152	5
184	201	2
12	12	3
115	126	2
10	10	6
194	195	3
211	211	3
166	193	2
210	210	6
1	1	3
67	75	3
195	227	2
83	88	2
114	114	1
63	84	1
11	30	2
43	145	3
18	19	1
183	184	2
19	196	1
197	197	1
0	7	1
4	7	2
188	189	2
241	241	1
107	107	3
65	70	1
223	224	2
234	235	4
162	162	6
17	40	1
214	214	1
164	188	2
46	133	2
12	28	1
0	23	3
34	75	2
51	51	6
19	21	1
144	147	4
213	214	2
33	37	1
167	167	3
187	187	3
10	58	1
124	124	3
69	70	3
145	191	2
163	167	7
73	74	3
184	184	7
102	106	1
60	88	2
151	151	2
179	185	2
155	155	1
83	84	2
171	171	5
54	54	5
192	193	5
59	151	1
55	58	3
61	61	5
160	161	3
6	6	2
204	205	1
177	177	2
60	60	2
73	73	9
220	222	1
150	151	2
99	100	8
111	149	2
160	160	2
61	69	1
142	143	3
107	115	1
82	82	1
198	221	1
23	49	1
3	7	2
41	167	1
104	116	1
43	43	1
58	60	1
203	206	1
61	62	3
137	168	3
154	155	1
146	148	1
137	142	2
33	34	2
207	208	2
177	179	2
44	45	2
28	47	1
50	56	1
13	17	1
153	155	3
118	119	2
95	95	1
147	149	2
185	186	1
69	76	1
144	144	2
214	216	5
19	20	3
32	33	2
203	220	1
25	217	1
176	176	2
227	229	6
112	121	1
127	129	1
193	226	1
135	136	2
98	100	2
17	49	3
202	202	2
221	221	1
143	144	1
129	131	1
170	187	3
86	88	1
164	224	1
67	74	1
103	117	4
31	31	1
102	121	2
201	202	1
104	115	1
148	150	4
78	79	4
140	158	1
104	117	1
72	73	2
156	157	2
60	125	1
133	133	2
209	211	3
52	81	1
9	19	3
48	50	2
90	98	1
173	183	1
228	229	1
178	179	2
28	28	2
156	156	1
191	192	1
134	135	1
28	228	3
219	219	3
95	130	1
59	59	1
98	101	2
203	204	2
47	64	1
166	194	1
190	191	1
147	147	1
150	150	3
103	104	1
33	51	2
115	115	1
0	20	1
126	126	2
56	60	1
60	128	1
134	136	1
15	48	1
197	231	1
7	8	1
132	132	2
56	57	2
81	107	1
117	119	1
227	228	1
163	165	1
171	200	1
123	123	2
1	59	1
72	132	2
14	16	3
103	122	1
78	96	1
23	47	1
72	133	1
154	154	1
53	54	1
27	42	1
43	146	2
17	21	1
220	220	1
139	169	1
14	41	1
23	29	1
40	166	2
34	36	1
45	47	1
203	217	1
76	76	1
105	106	1
