99	99	10
79	79	14
75	75	4
96	97	1
74	74	13
122	127	3
80	133	5
84	85	4
104	104	6
9	9	13
13	13	5
29	95	4
2	2	11
21	22	2
70	71	3
90	92	6
6	6	8
131	132	4
17	18	3
26	26	11
47	47	12
5	6	9
73	73	8
124	124	5
21	21	5
2	3	6
67	67	2
62	63	6
8	35	4
39	40	4
101	101	13
98	98	2
77	77	4
56	56	12
35	35	7
125	125	2
11	11	9
8	20	5
95	95	7
20	27	1
79	87	2
7	7	6
76	77	4
11	45	2
38	38	6
96	96	5
37	37	2
94	94	13
82	82	11
80	80	4
93	93	9
134	134	4
27	27	6
60	60	7
32	32	9
80	122	1
33	33	10
131	133	9
32	36	3
128	128	5
12	26	2
39	39	7
15	16	2
14	14	4
97	97	5
15	15	5
7	94	1
110	111	3
11	36	4
63	63	8
81	132	2
126	126	2
29	94	4
65	65	2
7	88	5
28	28	8
70	70	3
11	21	3
31	31	10
29	29	6
64	64	4
75	76	1
121	122	4
4	4	11
21	51	3
16	16	7
113	113	1
69	69	4
59	59	9
81	82	3
10	27	5
10	10	17
30	30	8
72	72	3
29	30	3
108	109	3
88	88	1
112	112	3
84	84	2
89	89	4
42	58	4
72	73	2
59	60	2
100	101	1
51	55	2
8	8	3
117	117	13
79	106	1
38	39	2
119	119	3
102	102	5
68	69	3
22	37	1
5	93	1
3	3	7
25	26	2
58	58	3
30	79	2
6	80	4
12	127	1
66	67	5
45	45	8
8	47	1
87	87	4
34	34	2
12	12	5
34	35	5
78	79	3
55	57	2
104	105	7
123	123	5
68	68	7
26	27	4
26	31	2
132	133	2
66	66	3
49	49	5
27	28	2
116	116	2
106	106	4
4	6	1
10	12	1
120	120	7
48	60	4
65	75	1
97	98	4
83	84	2
5	11	2
99	100	2
24	25	2
11	26	1
115	115	1
92	92	6
6	8	1
14	15	4
97	108	2
81	81	2
129	129	5
100	100	3
14	44	3
76	76	4
8	37	4
46	46	9
44	44	6
106	133	2
117	118	2
71	71	4
25	25	2
90	90	2
28	94	3
61	61	3
45	57	1
0	0	3
18	18	3
31	32	3
95	99	2
81	127	4
107	108	1
79	133	3
42	42	3
5	5	2
75	118	2
78	78	5
54	54	1
4	7	2
7	95	2
22	22	1
77	120	2
24	24	2
35	36	3
118	118	3
46	47	3
11	31	2
41	41	3
36	36	6
98	103	1
90	95	1
4	90	3
34	68	2
58	60	2
22	33	2
19	31	1
28	78	2
133	133	1
31	43	3
25	82	3
66	83	2
83	83	7
89	92	4
80	128	2
60	76	2
62	62	3
43	43	3
111	122	2
84	117	2
6	7	2
122	122	2
125	131	1
112	113	1
48	48	1
100	102	2
91	91	4
11	18	3
7	10	1
80	132	2
17	17	2
125	126	3
74	89	1
42	43	2
90	91	2
23	23	1
11	81	1
118	119	1
19	33	2
47	59	1
14	27	2
82	83	1
94	95	1
110	110	1
85	85	1
7	60	1
13	33	1
18	19	1
8	12	1
32	33	2
27	92	1
79	121	1
105	105	2
11	12	1
7	8	2
12	33	1
24	82	2
45	71	1
86	87	1
3	73	1
46	61	2
21	81	1
95	96	1
132	132	1
81	94	1
25	95	1
82	94	1
28	29	1
12	35	1
