68	68	5
101	102	3
39	40	3
110	110	4
78	79	1
62	64	1
63	64	4
94	95	6
78	80	7
34	38	4
98	98	3
107	107	3
87	87	3
94	97	7
40	49	2
73	75	7
29	30	6
91	91	4
111	111	6
25	70	3
59	59	5
82	82	3
96	97	4
86	91	3
30	30	1
38	39	7
72	78	3
72	72	6
108	108	3
57	68	2
100	100	5
27	27	5
77	77	7
71	79	3
81	81	2
96	96	6
58	60	1
28	28	1
92	92	6
66	66	3
26	40	5
35	35	4
78	94	1
99	100	3
64	68	1
45	45	5
102	102	3
32	32	10
113	113	10
29	29	4
33	34	3
58	58	4
69	69	4
113	114	3
105	106	5
81	86	3
76	95	4
97	98	3
79	89	2
87	88	3
75	75	9
22	22	7
112	112	3
63	63	5
66	67	1
70	71	3
62	63	1
105	105	5
26	26	6
69	70	4
32	46	1
42	44	1
88	91	8
65	66	3
25	25	5
90	91	3
56	56	4
90	90	1
42	52	1
30	31	6
104	104	2
57	57	4
51	51	2
20	21	1
95	98	1
81	87	1
74	74	3
83	83	4
40	104	1
85	92	1
65	65	2
85	85	1
42	42	10
28	79	2
39	58	2
76	76	2
101	107	1
89	89	4
32	33	1
60	61	1
67	67	2
34	41	2
37	37	6
40	40	3
29	31	2
84	86	4
85	94	1
33	73	2
102	104	1
73	73	4
104	105	1
36	37	2
95	104	2
80	80	1
101	103	3
38	38	2
101	101	4
99	99	3
60	60	3
55	55	5
24	24	5
81	105	2
83	89	1
103	104	3
46	47	2
58	59	3
97	106	4
39	39	1
95	95	3
83	85	2
33	33	1
47	47	8
54	55	2
102	105	1
51	52	8
28	34	2
20	20	7
37	38	3
44	44	4
36	36	1
76	77	6
60	62	2
67	68	2
36	38	3
109	109	6
31	32	2
31	112	1
106	111	3
22	23	1
79	80	3
103	103	2
34	34	1
79	79	4
41	43	1
59	60	1
50	50	6
88	89	3
114	114	1
46	46	2
44	45	4
48	48	1
39	77	1
81	85	4
66	68	3
21	21	4
48	49	2
100	101	3
61	62	3
79	90	1
59	62	2
74	77	2
43	44	2
81	83	2
54	60	2
93	93	3
109	110	2
75	76	2
85	86	3
33	35	3
91	94	3
22	26	1
40	54	2
41	41	1
64	67	1
23	24	2
86	86	1
55	57	1
106	106	2
39	41	1
75	93	1
23	23	1
106	108	1
87	91	1
26	27	1
93	94	1
84	85	1
32	60	1
34	35	1
64	66	1
32	34	1
27	29	1
89	91	2
83	84	1
47	48	2
54	61	1
43	43	1
112	113	1
87	93	1
70	70	1
98	108	1
97	97	1
85	87	1
104	106	1
