85	87	2
89	89	17
82	86	7
49	83	2
66	94	1
83	83	4
36	36	3
102	103	4
59	59	11
55	55	18
49	49	4
91	91	4
76	76	19
47	49	6
83	84	5
49	95	1
46	46	3
43	101	7
31	31	8
87	87	6
39	65	2
96	96	3
49	62	1
32	32	3
70	70	4
39	39	5
89	90	3
21	21	7
48	48	8
69	70	10
88	96	2
53	53	1
50	67	4
75	75	4
80	80	2
72	94	4
92	92	7
74	74	7
36	37	3
77	77	5
78	78	5
89	97	4
100	100	5
102	102	9
97	98	1
48	56	3
98	99	3
92	95	1
78	80	3
68	69	5
48	49	2
104	104	6
98	98	5
95	97	1
33	65	4
24	24	9
43	44	4
47	48	5
81	81	11
66	66	4
47	47	6
63	63	4
92	97	1
85	85	13
31	89	2
89	106	4
79	79	3
91	92	7
42	43	4
34	34	2
20	21	3
61	62	1
67	95	4
73	94	5
100	101	7
60	100	1
103	103	9
36	38	2
23	23	5
58	73	5
50	50	4
40	41	6
26	30	5
43	43	2
73	73	5
94	96	7
32	67	3
32	93	2
36	63	1
80	81	3
27	27	6
33	33	2
71	71	2
48	54	1
99	99	4
32	33	5
57	94	2
70	73	2
69	69	7
49	54	2
44	53	3
30	79	2
51	51	5
61	61	6
28	29	1
25	25	1
88	90	1
40	40	3
94	95	1
42	42	8
70	71	1
29	29	1
54	54	1
40	44	4
48	53	3
103	104	3
60	62	5
56	58	1
34	59	1
95	95	4
66	69	4
74	102	1
40	101	3
37	72	1
70	95	2
32	60	2
40	46	6
41	43	3
58	77	4
26	27	2
35	35	6
78	85	2
84	85	1
51	52	3
30	30	1
67	67	4
27	28	3
50	53	1
93	93	1
92	98	1
88	106	1
58	58	3
32	98	4
51	54	1
45	54	2
67	68	1
64	64	3
65	97	1
60	60	1
59	72	3
72	72	2
41	47	2
61	99	2
52	52	2
57	57	2
71	100	3
65	65	1
58	94	1
71	72	3
30	89	1
36	60	1
87	89	1
80	83	1
86	87	2
43	45	2
62	63	3
65	66	2
72	98	2
37	37	1
95	102	2
94	94	1
84	86	2
58	66	1
50	65	1
58	68	1
79	94	2
30	58	2
95	96	1
68	68	1
31	34	2
59	71	1
32	59	1
98	107	1
79	81	1
67	71	1
46	54	1
70	94	1
59	94	2
54	56	1
105	105	3
101	102	1
66	98	1
86	86	1
22	23	1
49	100	1
93	94	1
58	59	1
101	101	1
84	84	1
87	88	1
29	40	1
78	98	1
97	97	1
52	53	1
71	79	1
87	97	1
79	90	1
46	53	1
