126	130	6
81	81	15
9	9	5
128	128	11
71	135	1
10	10	5
134	134	7
106	106	2
141	142	7
89	90	8
129	129	10
78	78	3
75	76	2
137	137	7
95	95	2
61	61	8
51	129	1
127	138	1
69	126	3
109	109	4
144	145	1
56	71	2
57	57	4
71	78	1
141	141	11
2	4	1
41	41	11
88	88	4
38	38	4
74	74	3
34	34	6
119	125	2
77	78	1
22	22	11
124	124	7
59	59	2
103	104	4
102	116	3
118	118	11
11	66	2
15	20	4
3	4	2
0	26	1
130	130	9
101	101	9
5	5	9
125	125	5
120	120	11
121	122	3
59	61	4
18	129	2
93	105	4
70	70	3
123	123	11
64	64	4
82	134	3
85	85	1
118	121	2
144	144	7
76	76	3
27	27	7
30	30	2
50	94	1
107	108	1
0	15	5
131	131	4
13	105	5
18	18	10
87	87	2
54	66	2
88	94	4
121	121	7
98	98	7
122	122	6
100	100	8
50	95	2
127	139	5
88	138	3
118	139	5
60	98	1
1	16	2
143	144	3
120	140	2
25	25	8
94	103	2
66	66	7
133	134	3
108	108	3
47	47	5
31	31	3
62	62	3
135	135	8
119	133	2
40	40	18
90	90	3
132	133	7
133	133	6
120	124	3
113	113	4
99	110	2
21	36	1
117	118	4
128	129	6
5	36	3
36	36	4
0	0	2
1	1	2
77	79	2
100	101	1
67	67	8
24	24	3
105	105	3
84	84	12
20	21	1
93	103	4
41	95	1
20	20	4
61	108	5
91	96	2
67	71	2
117	120	8
145	145	6
101	102	2
83	133	1
135	143	2
135	137	2
69	75	2
127	127	3
111	113	3
75	96	3
119	119	9
96	98	2
116	116	3
89	89	4
19	40	1
135	136	1
115	115	6
140	140	4
16	21	3
29	29	9
56	94	7
111	136	4
124	140	1
63	63	5
53	86	1
106	138	2
110	110	6
32	71	1
138	138	5
72	111	2
119	122	1
40	130	3
113	116	2
117	117	6
107	107	8
56	56	3
36	37	6
55	55	10
1	40	1
23	23	4
58	59	3
77	77	13
91	91	3
39	131	1
18	100	5
140	143	2
140	141	5
3	3	4
127	132	4
9	27	1
132	132	1
68	68	3
130	131	3
143	143	11
126	126	1
89	99	3
17	18	7
54	54	6
60	62	1
16	33	2
14	88	1
4	116	2
99	100	7
139	140	2
102	102	3
114	114	3
118	120	3
121	139	2
122	127	1
49	52	3
104	104	2
9	10	4
72	72	6
33	34	3
94	95	1
6	36	3
19	30	2
0	30	4
125	126	2
99	109	5
86	86	5
33	43	1
133	136	2
37	37	7
34	65	2
2	20	1
49	49	4
88	137	2
38	39	1
67	79	3
86	117	1
136	136	1
90	99	4
15	15	3
32	32	1
75	75	10
14	31	1
35	35	7
132	135	1
100	124	1
14	73	3
139	139	4
70	140	3
20	56	1
16	43	1
70	71	1
74	75	6
11	136	1
52	52	6
111	111	5
29	128	2
54	65	2
13	13	1
113	138	2
56	57	3
107	136	1
112	113	3
48	48	8
58	58	5
79	79	2
17	17	5
35	47	2
97	98	4
106	107	1
124	132	2
13	43	1
57	59	1
94	127	1
42	43	2
1	140	1
92	106	2
120	135	2
2	12	5
82	82	2
119	136	3
52	136	2
37	38	1
142	142	2
122	139	1
60	60	1
136	137	2
116	122	1
79	131	3
13	14	2
77	143	1
53	94	3
103	128	1
6	6	2
95	141	1
26	26	4
49	71	3
0	39	1
67	82	1
86	94	2
98	121	1
4	117	2
67	68	1
66	67	2
71	71	5
33	33	1
20	37	1
114	125	1
106	108	2
62	63	1
43	43	5
94	110	1
19	19	1
50	106	1
0	21	3
54	96	1
104	107	1
4	36	1
69	70	2
24	25	2
10	32	1
128	142	2
27	29	2
8	28	1
97	97	2
89	91	1
33	107	1
93	109	1
105	119	1
96	96	2
75	79	1
146	146	1
92	109	1
117	119	1
127	130	3
12	12	1
116	117	1
41	110	1
93	93	2
1	87	1
2	13	1
53	125	4
117	122	2
74	104	2
110	124	3
109	123	1
105	127	2
118	122	1
65	65	1
100	103	1
1	2	1
73	111	1
93	94	2
65	67	1
18	49	1
16	16	3
67	81	2
68	80	1
53	53	3
63	123	1
26	105	2
1	43	1
50	133	2
19	27	1
92	105	2
2	2	1
119	120	3
118	119	3
89	94	2
139	144	1
40	41	1
87	88	2
54	110	1
22	23	3
39	58	1
53	102	2
56	66	1
10	11	1
50	135	1
92	92	1
67	70	2
94	94	1
15	25	1
119	127	1
101	103	2
4	4	1
39	39	1
28	30	1
76	77	1
78	139	3
39	40	1
92	95	1
52	99	1
86	120	2
18	37	1
113	115	1
86	112	2
52	103	1
103	103	2
73	73	1
103	127	1
80	99	1
88	108	2
64	65	1
110	111	1
127	137	1
121	140	1
111	112	1
19	49	1
99	99	1
47	48	1
89	129	1
87	135	1
95	140	1
