93	93	10
25	46	2
57	58	4
105	105	3
72	80	1
96	96	8
91	92	5
97	98	3
75	102	5
96	99	7
20	37	2
27	27	6
68	68	14
98	98	6
29	53	2
86	86	2
60	60	11
33	107	6
38	57	1
104	104	9
42	44	3
53	53	7
21	76	1
26	26	2
80	89	3
54	54	11
27	29	5
34	93	1
22	22	3
84	85	7
41	82	5
79	81	3
73	101	1
103	103	4
50	50	5
80	80	9
79	93	1
24	27	2
87	87	5
22	101	3
38	39	4
65	65	7
80	81	5
74	76	2
89	90	6
79	90	3
69	69	6
82	82	9
73	74	3
24	24	4
61	61	3
34	34	2
90	91	4
41	70	1
49	95	3
34	37	2
67	70	3
89	89	1
41	41	3
49	80	1
22	72	2
75	75	12
58	58	2
64	64	8
95	97	2
25	45	3
45	45	5
94	94	5
71	72	2
95	95	4
102	102	10
40	49	4
21	21	5
32	33	4
56	56	7
78	78	5
84	86	5
30	30	4
52	52	5
71	71	5
37	38	6
74	75	3
51	56	2
62	62	5
77	77	4
100	100	8
51	52	7
49	98	1
62	67	6
73	105	2
28	30	1
46	46	2
76	102	4
90	90	2
44	45	1
83	85	1
67	67	2
98	99	5
29	100	3
89	91	3
53	86	2
31	31	6
92	92	5
50	104	2
33	36	2
32	41	2
46	49	2
24	31	2
95	96	5
47	48	5
29	29	7
41	88	1
22	73	6
63	64	2
37	37	2
99	99	9
97	97	5
57	57	2
86	95	1
57	77	2
35	42	1
79	80	4
40	79	1
90	95	1
85	85	11
59	59	4
28	28	5
81	88	1
66	66	4
97	100	1
90	99	1
53	54	2
48	78	1
28	33	2
72	101	1
43	43	3
79	79	5
47	49	1
20	38	2
67	76	4
86	87	1
91	91	4
82	95	1
96	106	2
96	98	4
48	48	2
89	96	2
36	36	3
47	53	2
20	36	2
88	88	2
45	78	1
21	22	4
63	63	3
56	99	1
83	86	1
21	60	2
38	38	6
76	76	2
79	86	1
84	84	1
104	105	1
78	79	1
22	42	2
51	51	3
55	55	3
72	72	5
25	25	4
35	35	3
66	67	2
32	32	4
70	70	1
27	28	1
20	35	3
48	98	1
59	66	1
41	48	1
62	63	1
64	65	2
34	51	3
29	31	1
29	92	2
94	95	1
21	52	3
57	88	2
24	36	1
40	40	1
44	44	3
73	106	2
33	33	1
101	105	2
75	77	2
73	73	5
38	99	2
36	106	1
39	39	2
103	104	3
51	53	1
81	87	1
40	87	1
23	23	3
82	98	1
42	42	1
60	62	2
28	31	1
80	94	1
97	99	4
59	69	2
76	78	1
41	47	1
93	94	1
81	81	4
90	94	1
41	42	1
41	77	1
40	41	1
29	40	1
58	80	1
49	49	1
67	77	1
56	57	2
23	70	2
83	83	1
75	76	1
74	74	3
74	102	1
30	49	1
50	51	1
36	37	1
75	84	1
106	106	2
31	33	1
54	56	1
