138	138	17
155	155	13
24	25	14
10	34	4
147	147	23
91	92	14
72	73	13
126	126	22
113	113	7
3	3	18
109	111	2
136	137	13
103	140	1
144	145	8
47	47	20
103	103	22
135	152	5
5	6	3
97	97	16
40	40	10
156	156	19
134	154	2
103	125	1
155	156	11
56	56	7
141	141	24
116	116	23
100	101	6
105	105	14
54	54	10
31	31	9
154	155	12
4	27	1
152	152	22
38	38	24
115	121	1
33	39	1
87	92	2
129	129	8
68	136	3
22	22	14
105	139	3
37	37	15
44	44	25
134	134	33
68	69	7
51	51	11
81	149	3
130	130	15
1	3	2
27	28	3
14	15	6
67	67	18
49	49	16
4	21	7
42	43	9
47	52	3
83	83	17
145	146	7
11	12	11
135	135	21
12	14	5
1	1	26
132	132	22
26	26	27
56	63	6
103	104	5
6	6	21
48	48	2
55	55	11
6	11	7
93	94	12
9	9	14
145	145	19
2	2	25
8	8	16
49	52	6
51	53	2
33	35	2
75	75	26
102	103	3
34	35	8
84	84	11
142	150	6
77	77	13
106	106	18
81	81	9
86	86	16
126	127	8
122	126	6
30	31	6
136	136	12
18	19	7
133	133	8
134	135	8
50	54	3
28	28	16
29	29	9
125	125	20
144	151	2
101	101	28
45	48	10
118	121	10
23	23	18
143	153	1
140	140	12
91	91	14
73	73	22
117	117	15
21	21	27
85	85	11
144	144	17
15	15	14
30	40	3
41	41	11
36	36	18
7	7	17
55	65	2
68	68	14
104	121	8
82	90	3
98	99	4
144	149	1
23	24	15
87	90	4
67	83	2
8	9	11
129	130	10
55	57	3
148	148	14
133	154	12
12	13	16
24	24	10
107	108	6
28	53	3
53	57	3
92	92	7
66	67	2
18	18	12
93	93	14
63	63	3
5	5	25
6	7	9
35	38	2
111	111	14
88	88	16
26	28	7
2	3	2
150	150	22
104	104	25
34	37	1
146	148	2
124	125	10
98	98	9
43	73	2
111	112	8
66	66	11
108	119	4
12	12	13
56	68	2
65	65	13
52	67	7
45	45	23
118	120	7
119	122	1
139	139	17
114	114	17
82	142	3
75	76	7
0	0	9
94	95	11
84	86	5
52	55	3
83	86	4
110	110	13
137	137	6
67	71	3
66	68	2
35	35	11
10	10	14
149	149	11
118	118	5
13	13	25
28	29	4
108	111	6
21	24	1
39	39	10
49	50	1
57	57	2
135	137	13
69	69	23
115	115	11
52	57	1
114	115	15
124	124	23
45	47	8
87	87	20
89	89	11
77	139	2
100	100	24
96	96	7
119	119	13
87	114	6
22	23	3
7	139	4
3	4	14
128	142	6
19	22	3
17	17	19
17	19	3
26	27	2
112	115	3
86	147	5
14	14	11
137	138	1
131	134	1
107	107	15
34	34	24
132	133	3
65	138	1
76	100	1
40	41	8
9	11	4
35	47	1
132	139	2
42	42	17
1	2	9
25	25	8
13	14	5
36	37	6
146	147	8
75	129	4
121	121	17
10	22	1
78	78	17
112	112	17
94	94	10
27	27	11
88	92	4
95	95	35
116	117	10
123	127	7
107	117	6
50	51	12
139	140	4
30	44	1
4	4	16
105	106	10
95	96	6
33	33	15
152	159	1
87	112	1
79	79	11
125	127	2
32	32	20
73	74	7
117	121	11
130	133	4
77	141	2
30	38	3
90	117	3
123	132	4
83	84	6
72	72	9
109	119	1
77	78	3
11	11	16
110	111	14
71	71	19
104	106	2
51	72	2
70	71	3
69	70	2
30	30	6
52	52	10
84	137	1
142	142	24
150	152	5
76	158	1
109	110	6
83	108	7
43	43	11
113	115	11
79	125	5
92	95	3
96	97	8
87	91	7
10	11	6
151	156	2
154	154	22
135	138	2
97	111	3
31	51	4
106	107	13
41	70	3
98	100	2
91	93	5
78	140	4
53	53	9
73	101	6
14	21	2
23	26	4
82	82	12
152	153	10
134	137	6
108	108	22
79	81	1
122	122	15
15	19	5
143	143	8
20	20	7
128	128	25
68	70	3
90	114	1
105	124	2
113	114	4
51	70	9
99	99	14
108	109	9
143	150	1
70	155	2
105	107	1
158	158	9
17	18	9
90	92	13
42	68	3
98	116	2
133	155	2
103	109	1
29	41	6
39	41	2
50	50	10
131	132	5
129	132	2
138	139	6
85	86	8
119	120	12
21	37	4
156	158	5
83	115	3
32	36	6
146	146	12
120	120	8
131	133	2
88	103	3
74	74	1
157	158	6
114	116	7
19	19	11
54	67	2
29	30	2
102	106	3
85	92	2
46	46	10
150	158	2
99	100	2
136	138	2
98	124	7
41	62	2
88	90	5
80	80	9
154	158	2
43	62	1
123	126	5
51	69	1
2	6	2
112	113	4
81	82	11
125	126	4
50	53	1
25	26	2
38	93	1
123	123	13
127	128	1
40	42	3
130	131	3
41	42	1
87	89	5
21	22	9
46	47	6
103	137	2
84	85	7
4	5	4
134	155	2
3	5	7
50	57	1
76	76	4
110	118	3
131	131	6
118	119	8
88	89	2
50	52	7
0	1	4
152	154	8
41	43	1
100	104	2
78	79	6
81	150	2
7	134	3
65	70	1
92	98	2
3	26	5
20	22	5
157	157	8
54	55	7
70	72	4
102	135	2
63	64	8
153	154	8
94	97	1
66	137	6
130	132	2
137	139	2
9	12	3
46	139	1
6	9	1
7	27	1
151	151	8
156	157	3
133	139	4
5	22	5
128	158	1
115	116	5
7	8	9
109	109	8
143	152	1
88	96	1
49	54	4
96	109	4
90	90	2
121	122	12
112	121	2
124	127	3
44	45	6
79	80	5
67	68	3
127	127	13
152	155	1
106	109	3
71	72	3
119	128	2
35	36	3
5	24	5
91	97	3
80	81	2
25	27	2
97	98	5
112	114	3
117	120	8
123	124	8
104	105	7
86	87	3
123	125	4
153	153	4
101	104	2
57	65	3
70	70	11
32	50	2
12	146	1
106	111	4
26	35	3
124	126	2
127	148	1
134	152	5
67	85	3
32	33	2
91	96	1
65	137	1
111	122	2
10	24	3
4	22	4
129	131	4
141	147	3
93	116	3
132	157	4
95	97	3
36	70	2
9	15	1
31	32	3
143	144	1
18	23	2
77	80	3
16	16	9
85	124	1
140	141	5
89	90	5
33	34	6
83	90	1
78	141	3
77	88	1
41	87	2
131	139	5
117	118	2
133	134	6
20	21	8
99	142	2
114	125	2
77	86	1
21	33	1
62	62	4
98	107	1
68	71	6
126	141	2
52	66	2
16	20	4
42	70	1
78	88	2
128	129	4
62	63	2
145	147	3
141	142	6
83	91	9
37	71	4
88	93	1
9	37	1
67	136	4
21	36	3
47	51	3
8	10	4
44	47	5
145	151	3
106	124	3
147	148	4
16	18	1
64	64	7
106	110	3
93	95	2
112	117	1
56	65	1
86	148	3
53	85	4
62	64	1
158	159	1
91	95	2
120	124	1
13	21	1
77	81	1
13	24	3
105	109	2
122	123	2
84	136	3
90	96	3
39	40	4
86	107	1
49	57	1
1	4	3
138	144	2
19	21	3
22	36	2
100	113	1
1	20	1
153	155	3
50	66	6
43	70	3
131	151	3
149	150	3
113	121	1
148	149	5
45	46	2
83	96	2
15	16	2
84	109	1
85	136	1
117	122	1
25	28	1
109	112	3
11	26	1
4	6	1
103	138	2
8	11	1
51	56	4
118	133	1
121	136	4
85	87	4
1	7	1
53	54	2
75	130	1
69	77	1
12	21	1
46	50	1
37	70	1
8	18	1
19	20	1
94	98	1
22	24	1
48	50	1
138	156	1
148	153	1
150	153	2
0	2	2
88	115	3
111	116	2
3	21	2
56	66	4
102	107	1
12	24	2
34	48	1
100	102	1
0	5	1
40	90	1
79	140	1
0	3	1
109	120	1
137	154	2
34	38	2
9	10	3
122	125	3
35	37	1
78	81	1
17	23	1
29	42	1
79	152	1
87	88	1
102	102	3
83	107	1
103	141	1
135	136	3
28	54	1
68	137	1
151	152	1
134	136	2
82	89	1
5	7	1
22	95	2
48	52	1
37	38	1
131	156	2
92	94	2
129	151	2
67	70	1
95	110	2
123	139	2
6	25	1
8	38	1
43	72	1
9	26	1
67	69	2
78	138	1
90	112	1
107	112	1
150	151	2
83	138	1
130	151	1
103	139	1
9	141	1
130	157	1
140	148	2
82	86	1
18	21	1
29	55	1
129	133	1
119	142	1
154	157	1
128	145	1
71	155	1
131	158	1
78	87	1
150	156	2
127	151	1
0	7	1
122	124	1
120	121	2
51	52	2
27	29	1
56	67	1
29	39	1
29	54	1
52	73	1
50	68	1
131	138	1
2	21	1
126	133	1
110	129	1
30	43	1
76	80	1
16	22	1
58	58	1
85	137	1
38	39	1
83	93	1
