25	27	5
161	162	6
17	17	29
62	62	29
162	162	19
52	52	26
82	82	13
8	8	25
17	39	1
140	157	3
14	14	51
68	111	4
125	125	14
8	10	8
91	91	9
23	28	2
138	138	21
24	24	34
10	11	10
137	137	17
20	31	3
1	1	21
65	65	31
175	176	3
6	6	36
88	88	8
73	74	5
95	95	18
97	117	5
23	36	3
96	98	3
83	100	4
89	89	3
72	72	10
125	134	4
35	36	4
11	22	2
53	53	12
84	84	12
113	115	4
152	152	15
6	61	3
2	3	15
158	158	15
23	23	16
11	13	8
132	132	10
154	156	4
131	131	22
19	19	29
21	94	3
75	75	17
79	107	1
35	35	32
103	104	7
37	127	3
168	168	25
31	31	27
43	43	31
112	114	5
9	27	2
41	42	10
30	30	21
120	120	22
67	67	14
34	34	13
5	8	1
23	24	11
2	2	32
117	118	10
126	140	7
22	22	8
155	167	1
162	167	4
9	10	12
153	153	20
121	121	18
96	124	4
21	21	16
107	107	12
175	175	3
170	170	15
2	19	3
145	145	25
18	18	15
107	108	4
40	41	17
51	51	8
130	130	12
151	153	2
179	179	10
140	140	15
129	129	14
24	31	5
166	166	20
40	40	32
152	178	1
36	36	31
111	111	13
5	5	24
2	11	10
151	151	6
66	67	8
104	105	11
147	147	3
8	9	14
89	117	1
134	134	5
100	100	11
7	8	14
155	164	4
38	38	34
156	156	5
66	66	13
135	135	11
2	9	4
90	90	8
141	167	1
79	79	14
144	144	10
4	4	48
78	78	8
33	33	53
104	104	8
62	67	3
71	71	11
59	84	1
27	28	9
165	167	3
35	72	6
29	29	23
11	12	15
4	5	2
119	119	11
78	90	6
26	28	8
10	10	37
3	3	31
133	133	29
135	150	3
92	92	14
152	153	6
39	40	12
62	63	9
137	138	10
127	127	9
104	123	1
127	128	9
15	31	5
83	140	4
77	77	13
113	113	9
138	148	4
73	73	14
122	122	12
155	165	5
130	132	4
63	63	18
2	5	5
15	15	21
9	9	30
157	157	21
50	51	6
74	74	22
29	40	4
113	156	2
115	115	11
139	139	2
144	166	3
55	56	8
150	150	9
116	116	4
141	141	6
16	18	5
149	150	8
108	108	4
57	60	6
49	49	6
42	67	1
54	54	10
177	178	7
102	102	13
36	37	2
12	12	27
156	158	3
42	42	33
45	45	15
126	126	10
32	32	38
6	7	4
86	86	17
109	119	1
132	133	5
163	163	8
117	128	4
106	106	8
28	30	7
65	74	2
60	60	18
30	31	14
32	34	3
80	81	10
41	41	25
67	110	2
143	143	7
123	123	12
163	164	5
52	53	3
5	22	1
160	162	6
102	129	7
110	110	11
59	59	11
20	20	36
128	129	2
12	32	3
58	58	8
18	19	12
167	167	18
131	132	8
16	16	24
24	25	12
123	124	5
97	97	16
154	154	5
171	171	16
31	44	2
112	129	5
87	87	12
164	171	3
151	173	2
7	15	5
112	112	21
163	174	4
79	80	9
149	149	20
44	44	17
33	41	7
118	118	9
139	141	5
1	39	1
28	28	17
35	63	3
12	24	6
13	16	2
11	19	1
83	83	14
26	27	13
19	20	12
17	18	6
93	94	12
39	39	19
99	99	2
121	122	1
13	15	1
129	131	3
9	12	4
11	11	34
13	13	43
15	41	3
61	62	6
2	4	6
8	31	3
64	65	3
148	148	13
75	132	3
134	135	6
124	124	12
177	177	6
10	13	2
111	128	6
12	35	2
81	82	6
103	103	3
91	92	3
167	168	4
83	84	5
3	4	13
65	73	3
18	23	5
0	0	16
13	27	2
87	115	4
68	68	18
98	99	1
7	7	18
129	130	4
116	121	5
101	101	8
169	169	6
23	32	7
5	7	9
33	43	3
30	43	6
1	5	1
142	166	2
75	107	2
129	132	7
72	108	5
173	174	5
21	23	8
128	128	4
142	142	14
84	86	3
26	31	1
24	29	1
28	31	1
159	159	13
151	154	11
1	10	6
17	42	1
36	38	6
114	115	2
176	176	17
59	82	7
117	117	13
101	122	1
146	146	13
139	166	1
72	82	4
81	93	2
171	172	3
151	152	9
96	123	3
27	27	26
173	173	8
172	172	3
118	128	3
14	18	2
98	98	3
37	37	20
80	80	9
105	105	3
94	94	6
160	169	8
118	119	12
11	28	5
70	70	2
7	13	1
81	81	17
148	170	1
17	135	8
1	24	2
57	57	5
168	179	4
96	96	10
76	76	6
143	145	12
14	16	3
151	174	3
38	39	16
64	64	4
154	166	1
102	103	2
33	118	4
126	131	1
155	155	9
110	127	2
1	2	5
6	17	2
2	31	1
33	121	2
49	66	3
133	137	3
25	26	10
107	109	5
83	86	3
10	45	3
109	109	7
28	29	5
114	114	7
5	6	9
141	163	1
3	10	5
159	165	4
174	174	12
141	142	3
164	164	8
20	23	3
26	26	19
136	150	3
2	20	5
37	72	5
39	41	8
121	123	9
144	145	9
97	101	1
6	42	1
9	11	4
14	36	4
8	23	2
150	167	2
84	85	2
93	93	2
155	166	4
76	91	1
85	85	5
65	93	3
56	57	6
9	14	1
10	41	4
120	127	4
79	158	1
22	23	1
55	55	6
130	131	1
3	9	4
151	171	3
49	87	2
10	30	3
50	50	15
153	167	1
165	165	9
31	32	7
4	20	4
20	21	4
136	136	17
100	109	3
28	33	1
13	14	7
101	116	1
110	156	4
88	89	2
110	131	1
31	38	1
162	168	6
113	114	7
17	23	4
56	56	10
59	89	4
78	79	4
102	153	4
55	59	4
107	126	2
160	160	3
125	139	1
141	151	2
112	113	1
83	113	1
15	16	10
141	153	2
103	121	3
0	78	5
104	106	2
110	129	1
5	9	4
178	178	8
119	172	1
105	133	2
38	89	4
124	125	4
25	25	15
139	140	4
54	55	2
99	100	4
130	173	3
37	44	2
120	121	5
21	22	9
166	167	2
65	66	8
121	124	1
128	130	2
161	161	9
38	41	3
174	175	4
89	90	2
24	27	4
115	117	1
21	28	3
32	33	4
140	143	4
94	111	1
106	107	3
110	111	2
15	19	4
14	34	1
111	119	3
102	131	3
11	20	5
31	72	2
1	32	1
156	157	2
21	24	3
148	163	1
67	68	8
139	167	3
144	146	2
54	59	3
172	174	6
101	117	2
6	29	4
147	149	1
135	170	1
81	108	1
14	15	3
163	172	5
99	101	3
133	136	1
159	160	4
95	96	1
132	138	2
93	105	3
72	86	1
63	64	2
152	154	1
99	139	3
128	156	6
82	86	1
165	166	8
161	163	7
0	7	2
112	155	2
9	21	4
98	101	1
61	61	1
153	178	4
150	157	2
21	43	1
37	93	1
20	26	2
71	74	1
139	148	5
1	6	4
39	116	1
43	45	4
59	80	1
11	14	1
23	34	7
143	144	5
3	5	2
21	31	1
20	34	2
66	71	3
43	44	5
29	38	3
79	81	3
109	169	1
17	31	5
119	120	3
0	1	2
74	90	1
108	109	3
90	93	3
14	17	1
45	98	1
90	92	1
16	38	1
131	173	1
75	158	1
9	22	1
63	65	5
85	108	1
31	41	2
25	76	3
135	171	4
85	107	1
154	155	3
76	87	3
40	88	2
76	136	2
64	67	1
8	15	1
35	40	1
87	88	5
33	36	3
113	130	1
101	154	1
86	87	2
32	43	1
62	71	1
51	106	2
30	45	4
0	108	1
133	134	3
157	175	1
107	112	1
20	43	1
12	13	5
96	122	2
22	65	2
149	167	3
96	97	2
75	157	4
122	123	4
12	14	1
150	166	2
37	89	3
0	5	2
110	128	2
17	28	2
144	162	1
127	155	2
68	74	1
42	43	1
111	157	1
39	44	2
159	168	3
180	180	2
157	169	1
2	10	2
150	179	3
71	72	3
10	21	3
14	26	1
9	18	1
94	110	1
0	80	1
76	88	1
10	22	4
29	30	5
28	39	2
13	18	2
37	40	3
115	119	5
149	170	1
71	91	1
135	136	2
52	54	2
10	25	1
41	43	1
2	17	1
14	65	3
5	27	1
68	86	1
59	61	3
2	15	3
37	41	1
74	111	1
26	30	2
40	115	2
7	10	1
12	15	1
18	25	3
158	178	3
135	172	3
92	93	2
157	158	1
59	79	3
141	143	1
46	46	1
76	93	2
1	18	1
79	103	1
101	127	1
161	179	1
1	56	1
97	102	1
51	53	1
42	46	1
164	173	2
126	144	1
145	147	1
105	106	1
76	82	1
39	43	2
110	126	1
98	123	1
44	45	1
55	93	2
5	10	3
113	117	2
158	159	1
142	143	1
123	141	1
100	112	1
89	115	3
50	63	1
156	166	2
25	31	1
31	67	1
51	93	1
18	28	1
36	105	1
83	91	2
68	110	1
151	179	1
16	31	3
129	155	1
2	33	2
163	165	1
66	152	2
170	172	1
146	147	1
116	117	1
32	36	1
155	156	1
56	79	1
56	78	1
39	119	1
127	156	1
134	179	1
18	26	1
16	17	2
94	106	1
102	123	1
86	110	1
5	37	1
27	29	1
75	82	1
4	12	1
10	120	1
37	38	1
6	10	1
126	146	1
8	36	2
17	24	1
110	169	1
123	154	1
11	15	1
34	36	1
125	127	1
77	78	1
54	58	2
115	116	1
126	127	1
170	174	1
4	6	1
60	61	1
30	41	1
79	139	1
78	80	1
109	110	1
45	100	1
90	112	1
73	111	1
31	45	1
