87	87	10
43	43	38
44	46	1
32	32	37
143	143	21
60	60	20
169	169	22
91	91	16
34	34	3
132	132	9
11	11	18
17	17	15
176	176	18
44	44	26
10	18	6
172	177	2
145	145	6
3	3	23
39	39	27
96	96	15
142	142	8
41	41	22
29	29	15
38	38	35
21	21	11
57	57	8
138	138	32
170	170	10
141	141	26
11	14	7
9	9	25
23	23	20
31	31	18
111	111	7
4	16	2
56	56	8
65	65	11
38	39	13
180	180	4
107	107	5
9	20	6
72	72	6
152	154	7
134	148	1
81	82	11
25	25	14
15	16	8
8	8	24
21	22	7
92	92	16
7	9	2
159	161	2
51	51	3
2	3	13
89	90	4
114	136	2
94	95	4
84	85	6
10	11	11
173	173	21
132	133	3
115	116	4
134	134	10
13	33	4
131	131	8
93	93	16
128	128	5
137	137	22
13	13	22
54	56	3
144	144	15
118	118	11
21	28	1
93	94	9
135	135	12
4	4	24
42	42	13
28	28	27
74	74	13
1	13	1
87	90	12
90	90	18
99	100	4
67	67	8
167	178	4
27	31	1
35	35	20
76	76	6
68	68	13
118	121	7
102	102	3
171	171	14
88	88	2
3	4	9
150	172	3
71	71	8
139	140	13
61	68	4
126	158	10
121	121	16
12	12	9
78	79	6
172	172	16
105	107	2
34	35	9
58	59	2
131	143	1
176	177	4
16	16	39
12	31	2
108	108	4
129	145	3
5	5	21
103	103	24
81	81	10
86	86	14
73	73	17
158	162	2
18	18	6
20	20	13
28	29	8
41	42	4
140	140	16
1	34	4
10	10	33
75	76	3
174	174	12
151	151	9
59	103	2
30	30	23
145	158	3
109	110	7
22	26	5
71	72	7
179	179	16
32	33	10
167	167	12
70	70	6
4	21	1
83	84	2
40	40	11
162	162	18
63	63	10
22	23	6
95	109	1
134	165	1
70	71	1
65	90	6
150	165	4
20	21	2
98	98	7
12	13	12
73	90	6
62	62	7
59	59	22
19	19	11
114	115	6
146	146	10
54	54	3
168	168	16
140	155	5
154	155	4
152	164	3
124	125	8
72	73	4
170	171	12
9	10	5
13	166	2
95	96	6
43	44	5
12	14	8
78	78	14
122	122	26
23	26	3
123	123	7
130	130	10
135	136	2
83	83	8
149	149	16
118	146	11
7	7	20
37	37	25
147	159	1
136	137	9
133	135	5
7	35	2
10	32	5
2	2	33
77	80	2
126	130	4
75	75	18
159	159	13
15	15	24
145	159	10
33	33	15
139	139	18
107	109	2
18	44	2
146	160	3
171	173	1
5	15	5
145	154	2
58	58	12
53	53	8
22	22	13
167	169	2
178	178	5
130	143	2
163	165	1
150	150	10
1	1	15
153	154	4
112	112	5
27	28	2
9	31	3
82	82	13
108	125	3
65	66	4
165	165	7
155	155	7
43	45	4
148	148	7
142	143	11
133	133	20
15	17	2
92	94	9
19	20	5
50	50	8
140	154	2
26	26	11
116	116	7
55	55	14
175	175	6
72	75	2
152	153	4
147	148	11
13	14	11
52	52	11
56	57	5
119	120	6
67	107	1
27	27	16
158	158	18
111	112	7
14	16	8
96	101	1
79	79	10
130	145	2
17	20	1
109	109	19
143	170	1
89	89	6
114	123	3
149	173	3
122	123	3
61	61	9
134	142	2
178	179	6
148	152	1
34	36	2
131	159	2
68	71	7
148	176	3
99	99	2
4	35	2
164	164	7
176	179	7
2	11	2
169	177	2
33	34	5
166	166	8
131	132	3
24	24	18
51	52	3
159	172	8
115	123	3
23	32	1
169	170	2
93	122	4
153	153	14
77	77	14
130	131	3
14	14	22
36	36	17
161	161	9
157	158	6
177	177	5
174	175	1
160	161	4
75	114	6
0	0	10
151	155	2
126	126	16
142	170	3
148	149	4
142	171	3
9	37	1
6	6	9
40	41	3
39	43	4
94	94	6
136	136	13
163	163	2
6	64	3
23	33	1
149	150	4
140	144	1
158	160	6
155	156	4
80	80	17
139	141	4
97	101	1
5	6	7
17	21	1
12	19	2
77	122	1
1	2	1
79	87	3
76	95	2
141	142	4
113	113	14
95	95	18
30	31	9
160	160	3
35	36	9
92	95	2
83	85	2
134	145	4
112	142	3
115	115	12
107	130	3
19	22	1
137	138	6
6	7	8
100	125	3
100	120	1
57	142	3
56	58	2
150	154	1
118	160	1
39	40	19
125	126	3
102	103	1
168	169	1
95	124	3
66	67	2
129	129	5
12	40	2
76	77	4
104	104	1
62	63	1
124	124	8
157	157	6
151	153	1
144	145	4
80	83	2
127	127	8
25	30	2
125	125	12
112	135	9
38	94	1
164	165	2
0	1	1
130	142	2
42	43	3
45	45	14
110	126	1
106	106	7
26	27	2
10	28	2
172	173	6
65	89	3
120	120	6
113	136	3
31	73	2
150	152	3
80	102	2
88	91	2
157	159	1
80	81	2
68	81	1
134	159	2
120	169	5
163	174	2
126	129	3
151	152	2
38	68	1
73	76	1
30	38	2
87	101	1
8	33	2
150	151	4
87	88	6
110	128	3
20	50	1
15	34	2
8	9	7
35	41	2
132	143	4
118	119	10
147	147	3
94	96	1
62	64	1
134	149	4
37	38	8
16	17	14
77	81	3
98	100	2
3	5	1
81	123	1
146	171	3
97	97	11
6	36	1
30	33	1
41	54	3
152	152	6
64	64	4
80	120	1
156	158	2
80	117	2
165	166	2
145	156	2
101	102	2
156	157	3
76	82	1
148	167	2
117	117	4
57	59	9
146	159	4
10	39	1
173	174	2
142	144	2
13	15	2
82	83	2
51	53	2
8	31	1
103	104	3
7	8	2
126	128	3
100	105	1
61	64	2
36	37	4
143	145	1
39	57	1
14	17	1
154	154	9
1	150	2
23	24	6
45	46	4
167	168	8
133	134	4
139	149	1
100	100	4
26	31	2
101	105	1
90	102	2
85	121	2
96	98	5
168	171	3
88	89	2
63	73	1
37	137	1
140	141	1
118	120	1
22	24	1
110	111	2
44	45	6
78	124	1
112	136	1
97	135	1
11	12	12
23	25	2
41	43	5
158	159	1
31	84	1
54	55	3
91	92	3
80	97	4
74	103	3
24	25	6
160	166	2
2	4	3
150	163	4
132	142	1
12	41	1
11	19	1
101	101	4
79	81	1
128	129	1
114	114	2
53	74	1
98	136	1
77	78	2
73	74	1
84	84	3
4	7	2
72	74	3
77	79	1
104	105	1
31	32	3
11	37	1
32	120	2
179	180	2
52	53	3
4	22	5
107	111	1
66	66	2
14	36	4
177	178	1
12	26	3
80	116	3
73	75	1
18	19	5
18	42	3
133	136	1
16	18	2
38	40	2
22	25	1
110	113	2
151	156	1
138	139	1
76	90	1
55	72	2
121	122	2
175	176	1
90	94	2
166	167	3
131	139	1
33	151	2
74	102	1
9	29	1
33	35	3
25	31	2
14	15	1
30	34	1
9	22	1
4	5	4
61	84	1
1	31	1
29	30	2
98	99	2
55	56	3
92	93	2
95	125	2
128	145	1
112	134	2
18	21	1
116	123	3
14	148	2
80	82	1
92	96	2
9	17	2
146	157	1
159	160	6
136	149	1
50	51	1
53	54	1
39	55	1
0	38	1
17	18	3
123	124	2
21	151	2
119	119	2
163	169	1
110	139	1
159	162	2
35	117	1
21	30	1
109	129	1
154	157	1
112	139	1
3	35	2
4	147	1
9	11	1
29	40	1
173	175	2
81	104	2
96	119	1
100	101	1
31	38	1
34	37	1
2	18	1
136	138	1
19	21	1
102	116	1
17	43	2
58	77	1
29	32	1
59	72	1
156	159	1
107	108	1
11	40	1
99	125	1
127	128	1
17	148	1
110	110	1
151	161	1
25	26	1
135	137	3
171	172	1
43	134	1
122	130	1
3	11	1
36	41	1
84	96	2
124	128	1
14	20	1
18	20	2
8	10	1
11	13	1
15	42	1
74	75	1
63	64	1
105	130	1
148	153	2
57	58	1
49	49	1
3	147	1
134	135	1
51	56	1
154	173	1
42	44	1
130	170	1
113	114	1
