74	74	12
22	23	1
51	52	1
126	126	3
116	116	8
56	66	1
11	11	6
97	97	9
4	5	4
12	154	1
129	129	4
82	82	5
115	116	2
12	12	16
55	57	1
69	69	2
65	65	3
50	50	11
8	8	6
99	99	8
16	16	5
88	152	1
53	73	3
102	102	10
30	48	1
43	47	7
132	132	3
3	10	1
103	105	3
22	22	12
72	72	11
152	152	2
38	38	4
112	113	2
4	29	1
136	136	3
84	85	2
4	67	3
43	43	6
100	100	10
101	101	6
147	147	1
96	136	2
67	67	3
131	132	6
138	138	3
29	30	1
44	45	2
17	17	19
96	96	13
32	32	7
5	11	5
80	80	1
33	33	8
73	75	2
68	68	9
65	66	1
27	45	3
83	83	5
48	48	5
6	68	1
84	84	8
141	142	1
87	87	11
6	7	7
73	73	8
9	9	10
63	63	10
97	98	3
121	122	1
94	95	2
40	41	2
48	51	4
76	77	2
107	107	1
125	129	1
24	24	4
137	147	1
4	4	9
10	11	1
46	46	12
120	120	9
124	124	7
131	131	6
11	12	7
117	117	3
25	25	9
41	41	3
30	30	6
122	138	5
94	99	3
94	94	8
133	133	5
65	74	2
93	94	5
79	79	7
45	46	5
39	40	5
154	154	3
7	27	1
108	108	3
104	105	3
110	110	5
13	14	2
144	147	3
17	18	2
93	93	3
135	137	1
42	43	7
66	66	16
84	86	7
128	129	5
106	106	1
12	13	2
105	105	1
32	35	1
107	118	3
57	57	6
70	115	2
42	42	5
123	123	4
153	153	2
10	10	7
40	48	1
37	37	2
149	149	2
47	47	5
56	58	1
56	56	3
5	65	1
21	21	6
14	14	7
137	137	1
71	71	3
92	116	2
62	62	6
73	74	4
107	109	5
119	119	3
19	19	12
2	3	2
122	122	5
78	78	3
79	84	6
12	14	4
83	116	3
150	152	1
87	94	4
5	5	3
120	121	4
111	112	3
27	37	1
27	30	1
38	39	1
75	75	1
3	6	1
125	125	3
139	140	1
31	63	1
148	148	4
145	146	4
110	111	2
76	79	3
98	98	2
125	126	3
10	23	3
61	61	1
88	88	5
134	134	3
119	140	3
84	116	1
135	135	2
25	27	2
130	130	6
37	45	1
96	150	1
38	62	2
149	150	1
64	64	1
67	68	1
11	76	3
121	121	4
18	19	1
87	92	2
151	151	6
40	40	4
87	93	2
28	28	4
145	147	4
20	21	5
111	113	1
88	92	2
50	82	4
53	57	3
63	64	3
144	144	4
91	93	1
3	4	1
142	142	5
44	47	4
15	63	1
54	55	6
94	98	2
85	98	1
136	137	6
140	142	4
148	149	2
70	71	1
26	26	3
53	53	3
62	63	1
41	43	5
101	102	3
49	56	3
64	65	3
74	77	2
55	55	4
118	118	3
96	97	4
13	13	4
138	146	1
25	26	3
140	146	1
80	111	3
8	9	3
25	64	1
142	143	2
114	114	4
14	42	1
34	63	1
118	140	1
12	16	3
29	29	5
48	53	1
8	13	3
56	79	1
136	139	2
135	148	3
6	13	1
130	131	1
70	70	2
32	33	1
131	135	3
65	77	3
4	6	2
43	44	5
103	103	2
131	134	1
13	23	1
68	72	1
140	140	3
61	80	1
15	45	1
11	23	1
146	146	1
95	95	3
101	144	1
35	36	1
18	18	5
5	33	1
104	104	1
34	50	1
93	108	1
72	73	5
2	13	1
133	134	2
12	76	1
130	132	1
45	45	3
4	26	3
27	27	3
34	67	2
58	79	1
34	36	1
123	124	1
94	107	1
129	130	2
63	85	3
5	31	3
75	83	2
5	7	3
76	95	1
70	73	2
77	83	1
82	113	2
144	145	1
14	15	2
100	101	2
27	38	2
109	109	2
50	68	1
15	15	3
11	18	1
80	81	1
77	77	2
6	6	2
20	20	4
74	76	2
124	126	2
76	76	5
36	36	1
65	79	2
142	144	1
27	29	1
26	27	1
21	23	2
141	149	1
45	80	2
3	7	1
65	78	2
75	99	1
44	44	3
37	46	1
96	120	1
62	64	2
137	138	3
85	85	3
55	64	2
28	29	1
75	79	1
64	76	2
25	38	1
140	141	3
106	119	3
39	39	1
87	147	2
110	153	1
41	44	1
74	75	1
2	2	3
100	102	1
98	122	2
36	37	1
86	112	2
101	142	1
4	27	2
115	117	1
62	97	1
11	77	1
106	107	1
51	56	1
96	98	1
103	135	1
91	91	1
7	7	1
56	78	1
78	81	1
124	125	1
5	6	1
127	127	2
5	67	1
99	121	1
103	107	2
13	17	1
123	126	1
87	152	2
143	143	1
92	92	1
121	126	1
83	95	1
133	141	1
4	7	1
4	66	1
50	53	1
95	96	2
81	82	1
75	77	1
24	67	1
17	23	1
108	111	1
90	90	1
136	146	1
68	70	1
7	16	1
52	74	1
80	82	1
126	127	1
100	151	1
14	43	1
39	45	1
86	93	1
78	79	1
50	51	1
31	45	1
99	105	1
141	147	1
145	145	1
88	105	1
150	150	1
63	75	1
128	132	1
