70	77	6
31	32	6
52	52	7
76	83	2
38	38	9
103	103	27
48	49	12
39	44	2
61	61	19
42	42	17
100	100	33
76	76	19
40	41	10
93	93	19
75	75	28
42	44	3
92	105	1
95	97	16
36	36	31
64	64	13
35	35	26
67	68	4
50	50	21
25	25	23
88	88	6
48	48	17
67	67	33
49	50	6
75	76	8
91	91	27
60	99	6
55	55	25
96	96	16
46	46	19
105	105	17
54	54	12
63	64	10
57	57	11
43	44	7
53	53	16
74	74	30
82	86	2
92	94	4
27	29	1
78	82	3
84	85	4
101	101	12
80	81	8
84	84	15
94	97	1
26	26	14
69	69	7
100	101	7
80	80	16
76	82	3
49	49	24
46	59	3
71	72	3
76	78	4
104	104	17
58	58	27
102	102	24
77	81	9
51	51	6
71	78	3
21	21	6
68	68	31
23	24	2
62	62	27
41	41	14
33	33	15
94	94	11
45	46	3
26	63	1
38	40	10
56	56	21
71	82	3
70	70	33
39	39	9
97	97	9
47	59	7
50	51	7
22	23	5
89	90	2
47	47	8
82	82	29
24	24	24
35	36	5
84	87	3
77	78	7
31	50	3
53	73	2
95	95	13
72	72	23
37	39	6
83	84	5
24	25	5
81	81	8
37	38	1
105	106	8
37	37	26
101	102	3
23	23	26
30	30	11
71	75	1
56	57	7
60	60	14
53	55	4
37	60	4
61	62	13
77	77	15
99	99	7
26	30	2
45	45	9
46	52	2
92	92	9
98	98	8
79	80	10
45	47	3
78	78	14
44	45	6
28	28	3
61	64	1
55	56	14
57	59	9
58	59	8
96	97	5
40	43	3
57	58	15
30	32	3
34	35	6
85	85	7
78	79	3
60	61	13
63	63	8
97	98	11
35	38	2
83	83	12
37	55	4
50	55	1
79	79	15
21	22	14
40	44	1
73	74	2
102	104	2
84	86	8
106	106	9
40	42	4
92	99	3
89	89	20
83	87	1
103	104	5
73	73	14
74	102	2
39	42	3
59	59	9
89	92	2
82	87	5
87	88	13
95	96	11
85	86	9
102	103	6
29	30	4
81	82	1
42	82	3
44	44	10
80	82	8
93	105	2
33	34	10
67	69	5
27	28	1
68	69	9
22	22	19
66	66	8
54	56	6
25	46	5
83	86	3
74	75	10
34	34	14
38	71	2
41	66	4
59	61	6
70	71	5
85	87	6
93	94	3
86	87	4
27	27	16
53	54	8
47	49	1
82	92	1
47	50	4
86	95	1
67	72	3
65	65	10
86	86	9
56	58	2
64	65	5
66	67	4
81	83	1
40	40	5
98	99	11
76	102	1
92	93	4
36	37	3
54	55	7
45	84	1
28	32	4
52	53	4
78	83	3
104	105	6
29	29	5
65	93	3
36	50	2
71	71	5
69	70	5
41	43	2
90	105	1
62	64	3
81	89	4
47	63	1
66	101	2
99	100	3
44	65	1
100	105	7
31	31	23
21	29	2
75	77	1
65	66	3
26	64	3
74	76	2
47	48	11
20	20	3
46	57	1
73	77	1
37	71	1
90	90	3
69	71	2
35	50	1
34	36	1
70	73	1
107	107	2
36	39	1
71	76	1
25	29	6
78	81	4
59	84	1
51	54	3
41	42	7
68	78	1
66	96	5
46	58	3
80	90	5
58	60	2
69	73	1
32	34	1
69	78	2
50	99	1
42	43	1
72	87	4
99	105	1
62	63	5
43	45	1
43	65	4
95	99	1
32	32	5
42	81	1
60	98	3
75	102	3
90	91	2
54	61	1
24	64	1
53	68	2
91	95	2
41	44	1
38	39	3
26	28	1
51	52	5
68	72	1
93	103	1
59	60	1
46	48	2
24	51	1
94	95	4
73	82	1
88	90	2
43	43	2
71	86	1
91	92	1
39	50	1
23	51	1
91	105	1
72	73	3
24	50	2
76	96	2
73	83	3
78	80	3
79	81	3
39	71	1
69	100	2
39	45	1
37	42	1
96	99	4
23	28	1
94	99	2
67	84	1
87	87	2
76	77	3
72	82	2
90	106	1
41	45	2
104	106	1
62	75	2
88	89	1
68	73	1
44	82	1
52	54	1
79	82	2
100	102	2
91	96	2
48	62	1
78	84	1
29	32	1
72	74	1
91	99	1
77	79	1
91	94	1
38	72	1
