46	101	4
126	126	4
201	201	3
77	78	1
88	88	3
50	64	5
174	174	3
60	61	1
212	212	5
56	56	13
67	67	6
125	125	8
58	58	7
60	168	2
38	39	6
225	225	1
193	196	2
217	217	12
63	64	3
70	70	14
237	237	9
167	167	6
157	157	5
187	187	5
113	114	2
0	3	2
83	83	6
34	34	4
224	224	6
33	34	4
33	36	5
143	143	3
215	215	8
163	164	1
105	105	6
76	76	15
186	186	7
6	6	6
85	85	1
180	180	1
138	138	7
78	78	7
185	199	4
179	179	5
52	52	1
2	221	1
30	30	8
221	221	7
6	78	2
160	160	5
33	33	6
48	48	13
151	151	4
8	17	1
162	162	3
8	15	3
6	7	3
10	10	5
137	137	2
177	177	2
37	37	11
46	46	10
25	25	6
98	98	1
143	168	2
20	20	4
119	119	5
36	100	5
65	65	5
72	72	4
79	80	1
221	223	3
4	4	7
81	119	2
54	54	5
150	150	1
6	16	7
233	233	4
37	41	2
139	142	3
139	141	3
127	129	4
14	14	7
153	153	4
234	234	6
84	85	4
136	136	5
70	71	1
182	182	4
86	99	1
8	8	7
5	7	2
192	222	3
104	105	3
86	86	4
173	173	3
165	165	4
100	100	10
20	74	2
79	79	7
195	231	3
1	39	1
148	148	7
41	43	2
168	168	6
56	57	4
66	68	3
17	17	6
37	38	4
162	163	4
228	228	5
61	61	4
24	24	3
42	42	6
10	14	2
228	229	3
31	32	4
133	133	3
22	22	5
116	117	6
16	17	2
78	79	4
59	168	1
31	31	3
128	128	5
66	66	8
198	198	4
232	233	1
158	159	4
154	154	2
193	193	4
163	163	6
44	44	6
224	225	2
175	175	2
29	30	3
18	18	4
217	218	5
120	120	2
152	152	1
50	50	5
184	184	6
82	83	4
39	39	11
13	14	1
196	197	5
99	100	2
80	80	8
32	47	2
20	136	2
106	118	1
76	78	5
12	37	2
114	115	2
238	238	8
206	207	4
203	203	9
204	205	4
205	206	1
108	127	3
214	214	6
65	68	5
239	239	5
1	1	5
4	58	1
82	82	6
168	176	4
129	129	3
26	27	1
21	21	4
48	49	1
81	81	10
49	59	1
211	211	5
26	26	10
120	124	3
227	227	5
240	240	7
121	121	2
51	51	3
107	140	2
210	211	3
76	103	2
202	202	1
227	228	3
3	3	4
85	86	3
81	84	1
112	112	1
188	188	4
97	97	7
4	6	4
41	101	3
185	185	2
6	21	8
170	171	1
62	168	3
122	122	9
181	198	1
17	37	3
38	68	3
139	140	1
55	56	2
71	72	2
55	55	4
38	38	9
226	226	1
197	197	3
222	225	3
124	124	3
53	53	5
153	155	1
194	195	5
24	25	2
11	11	8
65	67	3
40	40	3
62	62	2
167	168	3
71	71	2
235	235	2
43	43	8
161	161	6
83	85	2
30	48	3
59	59	5
69	69	4
97	232	1
75	80	3
9	9	15
118	118	5
10	11	3
91	91	3
17	34	2
8	140	4
69	70	4
67	236	1
5	5	7
57	58	1
109	235	3
119	120	2
192	195	3
118	129	1
222	222	1
112	113	2
142	143	4
19	32	2
190	190	3
172	172	6
52	65	2
103	119	1
219	219	2
225	226	2
139	145	4
36	36	5
13	13	1
178	178	1
149	152	3
181	181	4
117	118	3
38	77	4
194	194	5
111	111	1
146	146	6
9	11	2
109	134	2
158	158	2
207	207	1
133	147	1
55	164	2
53	57	1
26	72	1
73	73	3
73	75	1
191	221	3
11	14	1
3	53	1
20	41	1
232	232	7
16	16	2
99	103	1
141	165	5
180	184	1
117	119	1
145	145	3
28	28	7
99	99	2
104	126	3
116	129	2
147	147	2
101	101	7
195	230	4
6	22	3
96	97	1
192	192	1
23	47	4
113	113	5
123	126	2
19	78	2
68	69	2
156	158	3
51	54	1
186	187	2
181	182	1
8	105	2
30	123	2
156	157	3
159	160	3
45	45	1
0	11	2
82	84	2
182	185	2
47	47	1
29	62	4
174	175	1
45	47	2
218	218	1
176	176	3
52	53	1
139	153	1
198	211	2
109	137	1
7	12	2
2	2	3
45	46	1
205	205	6
19	19	3
127	128	2
49	49	2
23	23	3
141	142	1
230	230	2
190	191	2
103	103	3
149	202	1
26	242	1
20	23	1
118	119	1
142	153	1
40	43	1
208	208	3
46	223	2
75	151	2
165	173	4
21	22	2
173	178	1
19	80	1
0	7	1
191	228	3
154	156	1
115	117	2
40	42	3
163	200	1
139	143	2
58	60	2
166	189	3
84	122	3
5	23	1
204	210	2
75	75	2
223	223	1
31	95	1
148	155	4
216	216	4
84	101	1
52	212	1
62	171	1
60	170	4
213	223	1
56	59	4
22	52	4
29	49	2
135	235	1
145	148	4
135	160	1
169	179	1
109	133	1
23	38	1
16	57	1
34	37	2
195	197	3
127	127	1
12	20	1
30	31	3
166	199	1
74	74	2
27	62	2
138	159	1
32	32	1
110	161	1
81	82	1
2	14	2
171	171	3
148	149	1
220	220	2
57	62	1
106	144	1
7	14	1
11	13	1
66	67	2
134	159	3
139	139	1
84	102	1
188	189	1
235	241	3
124	125	2
149	149	1
9	10	1
123	124	2
132	144	1
84	99	1
183	208	1
60	60	1
101	102	2
48	101	1
236	236	2
229	231	2
105	106	2
80	89	1
14	15	1
143	144	2
98	99	1
16	24	2
77	77	1
33	58	4
57	59	1
15	15	2
1	2	3
64	64	1
38	84	1
170	170	3
68	80	1
204	204	2
104	104	2
203	204	2
50	127	2
10	24	1
32	99	1
137	143	1
102	103	1
35	35	1
137	139	1
48	60	3
31	128	3
15	17	2
105	120	2
155	155	1
17	23	1
214	216	1
241	241	6
39	44	2
44	97	2
63	63	1
20	101	1
114	114	2
111	235	1
199	200	1
7	7	1
16	23	1
84	84	2
189	189	3
191	191	1
27	27	5
142	142	1
167	169	2
196	223	1
127	130	1
0	12	1
177	178	1
139	165	1
134	134	4
166	166	2
135	136	2
81	83	1
90	90	1
21	75	1
46	47	2
28	55	1
135	145	1
177	179	1
73	235	1
78	116	1
34	35	2
28	47	1
157	158	2
23	100	1
159	159	1
5	17	3
124	127	1
0	0	1
35	103	1
7	8	1
41	41	2
17	149	1
102	102	1
135	139	1
71	73	1
135	135	1
9	12	1
138	162	1
18	19	1
110	235	1
59	106	1
47	54	1
185	192	1
25	26	1
95	102	1
122	131	1
0	219	1
131	134	1
134	135	2
137	162	1
107	108	1
123	123	1
17	36	1
164	164	1
27	73	1
5	6	1
158	161	1
171	172	1
58	124	1
3	218	1
220	222	1
