84	85	13
77	78	7
48	48	26
70	70	22
123	126	6
132	137	1
33	34	6
12	13	9
79	79	8
154	154	9
103	103	4
75	76	10
13	15	2
118	118	31
49	71	2
11	11	10
18	18	20
40	40	17
119	119	1
99	130	2
40	109	1
49	49	12
77	79	4
9	31	4
53	53	21
39	39	10
44	44	4
9	9	11
76	86	3
26	26	14
106	107	1
33	33	7
75	75	5
72	72	14
15	15	9
85	85	10
94	94	10
47	47	22
46	129	3
45	45	16
24	24	3
86	86	2
150	150	4
20	21	5
116	117	2
93	105	4
85	86	2
17	17	19
13	23	2
112	112	7
27	27	3
117	117	3
107	117	1
29	29	8
67	68	4
5	5	1
4	4	1
119	122	3
40	41	19
21	22	3
105	105	3
73	73	2
102	102	9
38	38	4
13	13	12
128	128	4
14	22	8
56	56	13
28	28	2
134	134	5
41	42	1
104	138	6
32	40	4
16	16	6
12	12	10
63	66	8
123	123	12
124	137	1
100	131	3
106	106	5
42	50	2
100	100	11
138	138	5
132	132	9
153	154	3
117	118	3
29	56	5
25	81	6
75	79	1
94	95	3
134	135	5
35	36	2
107	107	2
41	41	10
39	40	5
65	68	2
139	139	3
103	104	6
11	12	9
40	64	1
109	109	5
8	8	12
53	80	3
57	67	1
25	25	4
30	54	3
115	115	3
55	55	6
42	114	2
133	133	10
28	29	7
131	134	2
129	129	10
36	37	1
3	6	3
103	105	4
74	122	2
113	114	7
120	121	6
54	54	3
97	131	3
113	113	3
34	63	1
136	138	4
97	97	11
148	148	3
66	79	1
76	76	7
50	50	7
68	71	1
57	58	2
17	18	9
39	57	3
99	99	12
74	95	3
145	145	6
10	10	5
93	110	3
3	70	2
56	57	2
41	45	2
83	125	7
34	36	3
135	135	2
13	22	1
131	131	9
107	115	4
82	83	5
142	142	4
4	6	2
98	98	2
66	67	4
64	64	12
4	5	8
16	17	5
51	51	7
135	136	2
19	19	7
108	108	10
153	153	6
57	57	2
106	113	2
66	66	6
141	150	1
87	122	1
52	52	2
84	84	6
87	120	5
8	9	6
35	35	12
37	46	2
98	99	1
126	128	3
81	82	7
124	124	2
20	20	10
71	76	1
25	28	4
10	12	4
28	30	4
14	15	6
78	78	4
25	29	3
111	111	3
3	23	4
104	106	3
29	31	1
108	109	1
149	149	6
46	46	7
15	19	3
68	68	2
147	148	4
22	22	4
128	129	2
83	83	3
96	96	5
34	34	4
108	110	4
29	62	3
151	152	6
15	34	2
114	114	4
23	24	2
146	146	2
68	69	1
141	141	5
63	63	6
6	6	6
64	82	3
31	39	2
131	132	4
77	85	1
28	35	2
3	7	2
74	74	2
141	142	4
121	122	3
9	24	5
94	138	1
79	81	2
77	77	4
21	23	2
126	147	1
37	37	4
95	97	1
38	39	9
62	62	6
95	95	1
108	115	1
66	68	2
53	54	2
73	74	3
18	19	2
80	80	4
81	81	1
152	152	4
82	82	2
42	42	2
136	136	4
76	77	4
87	87	5
9	10	3
84	125	1
14	66	1
32	32	4
7	9	2
70	96	1
130	132	3
63	83	1
55	84	1
75	98	3
13	19	2
147	147	5
50	51	1
86	88	3
139	146	2
127	128	2
137	139	3
110	110	1
104	105	3
4	23	2
70	73	3
101	101	2
98	152	1
34	64	2
34	37	2
24	25	3
25	27	2
42	51	1
36	36	3
30	62	2
47	48	1
6	8	3
20	70	1
14	14	5
38	50	2
6	7	1
120	120	1
19	20	2
100	123	2
96	111	1
90	90	1
143	143	4
74	86	2
30	30	2
3	3	4
137	137	1
140	140	3
42	43	2
67	67	7
93	93	3
94	110	2
80	81	6
106	130	1
41	102	1
118	149	1
43	43	2
62	70	1
86	87	2
150	151	1
30	31	4
27	29	2
111	112	3
43	45	1
136	139	2
21	21	4
143	144	1
121	121	1
78	79	2
63	65	1
123	125	2
151	151	2
137	146	1
84	93	2
71	71	2
83	84	1
5	7	1
95	124	1
42	44	1
12	20	1
88	92	1
45	46	1
4	21	2
118	119	2
22	23	1
105	114	1
114	115	1
98	136	1
54	55	1
28	122	2
74	75	1
126	127	3
3	8	1
29	51	1
16	19	2
88	88	1
84	137	1
38	45	1
76	122	1
17	69	2
26	50	1
98	130	1
43	48	1
24	41	2
32	33	1
66	84	2
71	73	1
110	111	1
15	24	1
55	56	1
32	37	1
28	77	1
130	130	1
15	16	1
42	45	1
142	143	1
