18	18	13
4	4	20
75	75	15
33	33	12
15	54	3
74	74	18
38	38	11
44	76	1
63	71	3
10	11	14
53	53	16
32	32	31
6	6	20
79	79	17
8	8	15
1	1	19
60	60	17
56	56	14
62	62	12
27	29	3
57	57	13
63	63	28
59	68	8
10	10	17
3	3	19
41	41	21
64	64	23
77	77	14
76	76	11
28	28	17
59	70	2
80	80	14
27	27	16
13	13	14
34	55	3
30	31	6
51	52	4
11	12	5
59	59	17
13	14	14
65	65	13
16	61	6
64	65	10
7	8	3
78	78	24
35	46	1
5	6	9
27	31	3
46	46	22
75	76	6
50	70	1
71	71	14
7	7	10
55	55	6
0	57	3
42	47	3
16	16	16
9	10	4
40	40	18
9	9	9
46	77	5
50	50	11
50	52	10
31	31	13
61	61	15
47	76	1
2	18	1
17	17	23
59	69	2
44	44	4
57	72	6
11	11	17
8	9	14
63	67	3
25	25	18
29	29	3
46	71	3
36	36	6
37	37	22
21	21	10
5	5	9
42	42	28
70	72	5
19	19	8
2	2	14
33	38	1
74	78	10
42	43	1
73	73	14
45	45	15
35	36	3
51	51	11
14	14	17
49	49	18
74	75	3
63	64	9
40	67	5
34	54	2
49	50	1
39	39	17
54	67	2
74	76	3
25	30	4
34	34	21
67	68	4
50	51	3
52	52	26
57	60	2
13	32	3
26	29	3
30	30	11
48	48	21
46	56	11
46	63	3
32	33	1
13	15	4
56	59	1
10	12	1
33	75	1
25	49	6
38	39	4
47	47	11
35	35	13
66	66	17
26	26	15
0	0	13
29	30	3
0	19	6
21	54	3
16	46	1
26	47	2
20	20	5
9	54	1
12	14	4
48	61	1
5	13	3
0	8	3
15	32	1
51	69	2
49	51	5
45	69	3
17	73	4
11	15	3
70	70	13
17	18	1
55	56	6
21	22	1
69	71	1
36	37	4
53	68	4
67	67	8
8	80	5
54	54	19
74	80	2
42	72	1
68	68	9
69	69	8
43	43	6
8	55	5
70	71	3
27	28	2
58	73	3
4	5	2
48	49	6
38	71	2
57	58	6
46	47	3
58	59	2
15	56	2
12	12	12
27	80	2
19	20	5
58	67	1
1	2	5
55	68	5
47	48	12
69	70	8
72	72	20
58	58	6
38	50	6
42	48	3
31	32	2
57	67	2
3	4	2
20	47	6
1	7	2
3	30	4
53	54	5
41	66	3
20	53	7
17	68	1
41	62	1
30	33	2
71	72	5
55	60	4
6	7	2
51	70	3
52	68	3
58	72	2
81	81	2
34	37	1
61	66	3
66	68	3
45	72	2
65	66	4
79	80	3
35	48	3
9	56	2
4	20	3
46	69	2
59	67	3
20	21	1
80	81	2
35	72	2
51	63	4
64	67	2
56	73	3
33	34	3
56	68	1
52	69	2
56	67	1
21	31	5
26	48	2
7	56	2
66	67	3
46	55	1
60	61	3
19	61	1
39	40	1
64	66	3
1	41	1
18	61	4
15	15	5
3	26	1
25	45	3
1	19	2
59	72	2
75	77	1
44	69	2
76	77	1
9	11	2
35	61	1
74	81	1
41	71	2
37	66	2
18	58	1
2	3	3
25	26	2
78	79	1
37	39	1
56	57	1
25	35	1
77	79	1
63	69	2
40	41	1
26	30	1
38	53	2
31	43	1
34	61	1
14	54	1
10	32	1
34	71	1
8	11	1
34	62	1
22	25	1
50	68	1
21	29	1
58	78	1
27	30	1
