96	98	3
162	162	32
218	218	16
25	25	19
240	241	4
57	57	15
25	109	1
28	28	10
111	237	4
59	60	11
153	206	1
115	115	39
221	221	20
152	155	4
113	114	8
177	181	9
185	185	44
89	89	27
224	224	12
164	199	8
237	238	5
52	52	18
234	234	25
214	214	20
80	84	4
155	157	1
43	43	34
23	23	17
164	167	3
36	36	16
151	152	5
151	151	25
188	189	12
198	199	8
212	213	16
62	62	22
84	84	6
67	67	20
160	160	29
200	201	15
183	184	9
150	150	23
162	164	4
105	106	7
183	183	18
5	5	19
214	215	5
192	192	9
161	163	5
179	185	3
12	12	21
153	153	42
70	101	4
26	26	36
17	18	11
35	35	14
40	40	23
168	172	6
179	181	10
110	110	52
31	31	18
157	157	16
44	45	5
99	99	13
17	17	12
66	66	25
146	146	2
191	192	4
185	186	8
51	51	23
156	157	15
166	166	11
11	11	32
40	41	7
193	215	3
204	204	42
9	9	30
200	200	25
46	46	18
18	30	7
112	113	2
42	42	17
152	153	8
72	72	7
120	120	20
201	201	40
157	158	11
223	224	2
37	37	13
54	113	2
164	164	26
2	2	12
85	86	10
39	39	18
238	238	13
157	160	1
154	154	23
174	236	1
179	180	15
246	246	30
165	165	32
8	8	22
68	68	13
73	74	4
44	44	23
6	6	14
162	179	3
27	27	17
34	35	3
195	198	2
222	222	9
56	56	16
80	81	9
198	200	12
168	168	33
154	155	5
61	66	4
235	236	8
219	230	5
66	67	12
212	212	26
180	183	4
32	32	17
53	53	24
82	82	11
21	23	6
170	170	6
229	229	25
178	183	1
202	226	2
182	183	13
207	207	50
200	230	4
38	39	4
215	215	16
220	220	29
241	249	5
37	38	2
187	188	6
59	59	18
186	207	3
56	65	6
156	156	41
79	80	3
95	95	27
24	24	10
178	178	24
206	206	16
69	71	1
11	17	1
244	244	15
162	172	9
161	161	15
179	179	27
178	179	8
114	115	12
75	75	15
162	167	3
186	186	51
192	199	3
245	245	17
163	171	2
226	227	7
180	180	18
159	159	18
94	94	24
45	45	13
169	170	10
62	65	13
209	212	2
78	79	16
93	94	20
206	207	13
174	175	2
240	240	21
216	216	11
168	173	3
29	29	14
109	109	38
202	204	4
202	202	24
16	48	1
240	242	3
161	200	4
86	86	13
35	52	2
172	172	7
91	92	5
73	73	15
108	108	17
197	197	28
242	243	2
87	87	16
203	203	29
17	22	2
85	98	6
30	30	15
241	241	18
28	29	14
6	185	1
96	96	6
181	184	2
77	78	16
15	15	18
104	106	5
199	199	22
92	92	21
37	104	2
173	173	30
10	153	2
205	206	13
152	152	25
181	181	13
195	195	15
19	19	28
226	226	28
18	19	4
33	34	7
82	84	4
203	204	8
169	169	25
19	20	5
116	118	2
233	233	8
175	179	5
16	16	15
220	243	4
145	152	1
9	10	5
50	51	5
18	22	2
14	14	16
174	178	1
198	198	22
42	43	4
79	79	34
213	213	16
6	64	2
234	236	6
145	145	9
47	48	15
201	228	1
156	160	6
55	56	7
36	48	3
153	156	3
113	113	28
174	174	23
81	81	8
93	93	30
99	100	12
241	245	4
36	154	3
221	222	16
181	182	7
230	230	15
100	100	13
101	101	7
26	27	15
223	223	18
20	20	15
174	177	3
201	223	9
211	211	29
98	98	37
116	116	19
115	116	17
153	154	15
29	31	2
18	20	3
190	190	15
225	226	4
13	13	5
159	160	11
7	61	5
36	37	6
18	29	1
197	198	12
173	187	3
20	30	7
47	47	11
10	10	20
54	54	14
111	115	2
186	187	9
55	55	16
245	246	14
37	39	2
147	226	2
25	26	5
151	156	5
194	196	4
37	106	2
202	221	1
201	226	2
167	167	12
91	91	19
90	90	23
6	7	18
48	89	3
237	237	14
186	196	5
236	238	2
175	177	3
176	176	7
211	214	1
57	58	9
209	209	13
219	220	4
231	242	8
182	182	18
175	176	3
46	47	3
99	168	1
3	3	13
189	189	9
177	177	7
4	156	4
41	41	16
4	4	12
147	147	14
88	88	16
155	155	24
155	156	6
163	163	11
118	120	1
164	165	2
185	211	3
220	221	3
208	211	2
247	247	15
79	94	3
167	224	1
78	78	17
69	69	5
224	225	15
208	208	29
153	200	2
171	171	16
196	197	7
61	62	9
4	5	5
225	225	16
48	48	24
193	193	8
239	246	2
108	109	15
76	76	6
205	205	16
34	34	10
21	100	2
22	26	3
7	8	8
20	31	2
31	40	1
244	245	7
71	92	2
57	76	6
57	60	8
74	74	15
186	194	4
180	181	12
218	244	3
39	40	11
150	151	4
235	235	17
208	213	6
1	1	9
112	118	2
149	150	10
103	103	15
147	151	3
190	191	6
74	106	1
154	156	9
111	111	20
187	189	1
217	218	7
49	88	1
65	66	16
87	88	2
31	32	5
95	96	6
32	35	2
176	177	9
196	247	2
105	105	11
114	119	2
171	172	4
96	97	3
106	107	5
162	174	1
110	111	8
203	213	1
188	231	1
97	97	15
161	162	6
204	205	2
107	107	9
84	85	10
188	188	4
211	220	1
47	208	1
5	50	7
187	187	4
114	114	13
216	218	2
22	22	21
5	6	4
180	220	2
28	110	3
2	68	5
109	110	9
208	239	7
65	65	10
50	50	11
227	228	11
191	191	14
98	99	6
175	180	3
38	40	1
166	167	5
208	209	5
43	222	2
158	159	5
33	33	22
71	71	4
180	184	2
149	149	7
70	111	3
86	97	1
219	219	23
21	21	13
150	155	1
119	119	10
217	217	3
5	158	4
42	231	4
18	31	3
216	233	1
184	194	2
115	145	4
104	107	1
83	83	13
20	21	6
13	14	1
239	239	12
80	80	9
29	30	6
19	31	1
184	184	9
28	103	3
82	83	12
207	240	3
89	90	8
174	188	1
228	229	9
222	223	3
160	166	3
16	46	2
40	190	3
118	118	2
211	213	2
170	171	9
78	80	2
238	239	5
18	18	10
246	247	5
163	182	3
47	187	2
112	112	5
85	85	16
59	115	1
165	168	2
72	98	3
179	187	5
202	227	4
90	91	3
241	242	5
4	7	3
8	10	6
208	223	1
178	181	2
201	202	15
188	194	2
184	185	9
210	211	1
180	213	3
61	61	6
21	22	10
56	92	3
233	234	9
117	118	1
49	56	3
201	229	1
164	166	9
81	82	6
117	117	11
48	50	6
58	76	1
63	64	8
168	169	7
201	206	3
92	93	5
211	212	8
113	241	3
70	118	1
210	210	8
175	175	13
18	21	1
176	182	6
169	218	3
10	11	7
236	237	8
211	235	1
192	195	2
205	225	4
68	70	2
53	54	3
20	22	5
7	7	24
177	178	2
231	232	2
232	232	7
22	111	2
165	166	7
24	25	5
60	67	9
70	70	5
87	97	3
49	82	1
62	63	3
186	206	2
32	33	13
35	36	2
179	201	2
186	201	1
204	206	3
242	242	9
187	191	6
77	77	22
82	91	2
227	227	16
88	89	2
165	167	2
167	168	16
200	236	9
194	195	10
172	179	3
45	185	2
230	231	13
167	173	2
102	103	4
56	68	3
100	101	5
110	150	2
178	201	6
247	248	6
9	32	4
110	113	2
163	165	2
108	111	1
174	179	1
218	220	1
88	90	1
198	225	1
195	197	3
68	69	2
58	75	1
100	102	4
60	61	2
23	24	2
57	67	1
196	196	16
69	70	9
152	166	1
39	42	2
87	90	2
70	71	4
186	195	2
43	44	7
22	54	2
179	202	2
229	230	3
104	104	4
183	185	1
92	108	3
2	3	7
108	145	5
205	212	5
51	52	8
57	220	2
58	78	7
201	205	3
213	214	5
189	190	5
97	98	6
8	11	2
39	47	3
239	245	3
76	119	1
187	190	5
61	68	1
29	46	2
75	97	1
228	228	11
3	158	3
75	76	5
146	147	1
85	87	4
6	154	3
15	48	1
188	193	7
44	186	3
170	231	1
56	86	3
85	93	5
1	4	1
168	222	3
98	100	2
68	225	3
74	184	1
242	248	3
44	46	1
12	14	1
243	244	4
38	38	7
60	117	2
176	181	2
206	223	2
48	88	1
193	195	3
34	36	1
67	68	5
116	117	6
236	239	4
172	173	4
52	53	3
237	240	1
149	151	1
173	180	1
248	249	3
206	222	3
19	52	1
80	89	1
189	192	3
22	30	1
118	119	2
193	194	4
236	236	17
15	16	1
47	53	1
86	91	1
218	219	4
70	103	1
103	108	3
157	159	1
174	176	1
239	242	2
158	158	6
48	49	6
106	106	8
111	236	1
55	68	2
208	220	3
208	214	5
19	58	2
179	182	2
108	247	2
237	239	1
3	4	5
172	175	1
230	243	1
11	12	1
163	164	7
108	207	2
80	82	3
84	86	1
178	203	3
81	93	1
195	196	2
35	37	1
87	95	1
72	74	6
178	182	1
145	160	1
209	213	3
215	216	3
243	243	2
152	193	2
117	176	2
219	243	1
198	201	2
114	116	2
153	161	1
20	29	3
147	191	2
248	248	2
178	202	2
96	107	1
58	59	6
104	108	1
83	84	3
30	31	3
190	216	2
185	188	1
215	218	2
63	120	2
56	84	1
202	205	3
203	205	1
169	224	2
239	243	3
63	63	17
49	91	2
174	187	1
241	248	2
14	15	2
78	81	2
74	75	1
215	217	2
184	195	9
18	36	2
236	246	4
79	84	3
194	194	3
35	39	2
1	3	1
229	231	2
95	107	2
199	200	10
59	79	3
42	202	2
94	95	2
160	162	3
145	169	1
52	66	2
161	167	1
151	160	2
56	69	4
44	150	1
46	222	2
173	190	6
249	249	7
166	170	2
43	150	2
171	174	2
217	232	5
163	178	3
20	55	1
107	108	3
208	222	3
223	225	4
41	202	1
64	64	7
37	42	2
175	178	4
238	244	1
55	117	2
62	68	1
164	170	2
36	45	3
103	106	2
239	241	1
111	112	4
48	208	2
209	214	2
105	107	4
33	100	2
144	153	1
222	224	1
181	183	1
165	184	1
181	213	2
76	77	5
192	194	3
111	120	1
207	209	1
204	240	1
71	75	1
182	184	3
185	200	2
55	58	1
20	23	1
32	39	2
210	214	1
6	10	2
41	185	2
114	117	1
166	184	2
207	213	1
184	186	1
13	15	1
19	53	1
58	58	11
160	173	5
211	232	2
103	104	2
49	50	1
4	48	1
219	245	1
217	244	2
3	159	1
59	78	2
95	97	1
215	248	4
81	91	1
163	169	3
5	157	2
201	222	1
4	153	1
55	63	5
27	30	3
58	60	1
83	85	2
11	46	1
162	163	5
212	220	1
9	29	1
233	235	1
202	203	3
240	244	2
234	237	1
205	240	1
152	165	1
186	198	1
212	214	1
173	181	1
174	180	1
152	160	1
60	60	1
5	156	1
146	231	3
16	19	1
234	235	2
25	27	1
68	82	1
216	248	2
21	178	1
56	57	2
36	149	1
172	174	1
42	203	1
176	186	2
95	99	2
216	217	1
239	247	2
44	47	1
158	161	1
41	42	1
163	198	1
37	47	1
175	181	2
172	189	1
43	226	1
144	207	1
80	93	2
61	116	1
202	222	3
78	84	1
179	213	1
209	233	2
82	86	1
28	30	1
111	246	2
119	120	1
45	46	1
68	120	3
49	208	1
49	49	1
27	92	1
71	102	2
200	235	1
196	199	4
101	104	1
159	197	3
181	210	1
11	16	2
169	231	1
239	240	2
73	101	2
157	197	1
182	223	1
162	170	2
169	171	2
205	207	1
111	119	2
207	208	2
38	47	1
48	51	1
220	245	1
242	246	1
169	172	1
236	244	1
78	95	1
94	110	1
31	38	1
48	57	1
240	247	1
147	173	1
0	1	1
229	241	2
183	195	2
220	225	4
92	94	2
63	101	2
144	144	1
33	38	2
21	29	2
217	238	1
70	93	1
164	182	1
188	191	2
27	28	3
186	193	1
88	94	2
50	89	1
46	157	1
166	174	1
11	145	1
71	73	2
54	63	1
69	75	1
77	95	1
231	231	2
159	200	1
47	115	1
97	109	1
205	226	1
8	9	3
112	114	1
35	156	1
161	225	1
68	71	1
200	212	1
242	244	1
22	23	1
86	87	1
182	210	1
34	37	1
86	96	2
160	161	1
25	110	1
9	52	2
171	173	1
189	196	1
77	89	1
117	119	1
56	83	1
162	201	1
69	72	1
44	205	1
86	89	1
192	211	1
7	62	1
78	92	1
17	50	1
85	92	1
235	237	1
173	174	1
201	225	1
