53	54	13
81	82	3
69	69	17
25	26	16
64	64	13
51	65	6
31	31	5
9	9	10
23	24	7
14	14	8
79	79	23
11	11	17
85	85	11
53	61	1
75	75	21
82	83	16
47	48	4
8	10	4
71	74	4
52	52	21
67	68	5
68	68	35
81	81	26
11	16	5
87	87	21
15	15	9
53	53	21
7	8	8
54	84	2
7	31	5
5	5	14
51	51	21
27	27	15
64	66	7
77	77	5
17	18	7
56	56	14
47	52	4
54	54	16
86	86	9
76	77	3
54	55	11
0	0	21
49	49	6
21	23	1
30	31	4
7	7	17
22	23	8
82	82	17
75	77	8
24	25	8
61	61	13
89	89	8
57	57	19
58	58	21
51	58	1
12	12	17
22	22	5
50	87	2
20	22	3
13	26	1
66	66	19
25	27	3
51	80	3
74	74	17
1	1	21
72	81	2
72	74	8
3	3	17
65	65	22
55	55	21
52	64	1
83	83	7
12	26	6
77	78	3
47	50	1
63	63	9
78	82	4
72	73	13
48	48	26
55	78	2
51	52	5
48	68	4
59	59	12
78	81	5
35	35	2
49	61	3
24	24	14
77	82	1
84	85	10
50	50	8
71	73	4
7	17	5
53	58	5
47	47	12
59	60	12
48	55	1
88	89	12
56	58	5
73	73	4
66	83	4
80	81	5
20	23	7
49	62	2
11	30	2
49	50	17
20	20	9
29	30	6
76	78	6
84	84	2
80	80	7
16	16	2
55	58	2
12	13	10
2	2	8
19	19	16
57	58	6
62	62	24
27	28	8
30	30	19
67	67	16
69	81	2
78	78	7
49	82	1
70	70	5
25	25	11
4	5	6
33	35	3
21	26	3
4	4	12
56	74	2
20	25	1
6	7	16
52	58	7
71	71	17
74	75	3
34	34	9
9	10	2
88	88	20
46	85	3
56	57	3
1	2	3
21	21	2
28	87	2
13	13	7
72	72	10
68	86	2
76	76	17
8	8	15
53	60	6
48	54	3
5	7	7
6	11	4
66	68	1
76	80	7
75	88	3
29	29	13
46	48	4
87	88	7
27	85	1
63	64	4
50	51	6
26	26	12
2	3	5
2	19	1
56	66	2
50	54	2
62	65	5
77	80	4
78	79	9
18	24	1
16	17	2
51	62	2
26	79	6
79	82	1
27	84	1
6	6	12
3	4	6
54	83	5
17	17	15
67	71	3
64	65	4
28	28	9
70	80	2
55	56	7
70	71	3
60	61	1
53	55	5
85	86	3
23	23	9
50	53	5
55	59	1
10	20	1
60	62	3
13	25	1
47	55	2
19	25	4
76	82	1
10	13	2
54	61	1
58	78	1
13	27	1
59	77	2
71	82	1
62	66	1
46	47	4
26	78	2
66	85	3
60	60	2
46	53	3
9	17	3
11	19	1
74	89	1
17	19	2
6	9	2
61	62	1
54	56	1
81	84	3
22	24	1
34	35	2
49	54	3
75	81	2
46	46	3
66	71	2
10	10	3
56	85	1
17	25	1
74	77	1
0	7	2
9	13	1
74	88	1
53	66	3
66	67	3
80	82	5
8	11	3
69	71	4
69	70	3
90	90	1
48	51	3
65	66	1
75	76	4
23	31	2
20	21	3
32	33	1
50	52	3
10	19	1
68	69	1
48	50	1
8	9	6
19	24	3
32	32	2
79	80	6
59	82	2
62	64	1
47	85	1
76	79	1
54	74	2
58	83	1
48	53	3
78	83	3
26	77	1
21	83	1
64	79	2
58	75	1
49	52	1
52	54	2
66	72	2
53	81	3
0	1	2
15	30	1
19	27	1
30	55	4
77	79	3
11	14	1
67	82	1
55	65	1
51	54	1
74	90	1
59	63	1
62	63	1
62	73	1
74	84	1
5	8	1
5	6	1
58	59	1
64	78	1
67	69	1
11	12	2
59	62	1
19	30	1
13	16	1
49	51	1
64	82	1
83	84	1
85	87	1
10	31	1
71	78	1
61	73	1
