60	60	10
152	152	3
62	62	14
234	234	6
78	78	3
110	137	2
75	75	13
197	197	7
0	1	9
158	159	2
41	108	2
56	56	16
33	128	3
188	190	2
216	222	2
216	219	8
6	6	4
115	115	9
66	67	8
78	79	7
146	147	4
71	71	7
14	124	5
40	40	5
16	123	2
238	238	3
172	172	6
173	190	8
223	224	5
53	53	18
149	153	1
174	174	4
17	17	10
211	211	8
47	97	1
164	164	4
66	66	5
37	190	7
116	116	9
178	178	8
48	48	4
205	205	1
12	12	21
191	191	5
185	185	1
188	209	7
187	187	11
138	140	2
86	86	14
76	76	4
180	180	6
133	133	11
119	140	4
188	210	1
199	199	5
135	137	2
190	190	10
191	209	1
47	47	5
153	153	13
141	141	10
125	126	5
227	228	1
58	58	8
45	45	20
41	41	3
7	7	8
88	88	6
96	96	8
15	15	9
62	64	2
80	87	2
140	140	6
51	52	6
52	52	6
236	237	6
203	203	4
210	210	4
221	223	2
221	224	1
60	61	4
49	137	5
13	57	1
19	20	7
50	50	2
239	239	6
145	173	2
17	18	3
159	160	8
214	215	5
62	70	4
30	30	2
131	131	1
9	9	19
47	115	3
28	28	22
113	138	1
242	242	7
236	236	7
65	65	17
55	55	9
54	54	9
189	190	5
156	157	4
127	127	10
222	222	6
95	105	4
212	231	2
165	165	11
13	14	19
124	138	2
97	97	2
166	166	5
171	171	12
55	61	5
14	17	2
137	137	7
24	51	2
49	50	7
143	144	7
186	186	2
8	8	6
160	184	4
34	35	7
1	2	2
85	86	3
33	33	13
72	72	10
174	192	1
100	122	5
61	61	8
20	20	20
46	112	2
4	5	7
103	105	7
99	122	2
136	172	5
8	9	2
44	72	1
195	196	4
29	66	1
121	123	2
43	43	11
109	109	8
224	224	8
193	193	7
230	231	7
191	196	4
143	143	7
21	21	8
165	212	2
103	103	5
4	4	7
108	108	14
170	172	2
160	161	7
25	25	11
35	35	3
73	79	2
21	22	1
10	10	14
160	160	6
74	75	2
157	158	1
195	233	1
83	83	11
191	192	2
38	39	3
84	84	4
82	82	4
129	129	8
227	227	14
175	175	6
65	66	1
64	178	5
0	0	12
26	26	13
4	15	6
83	86	2
44	102	2
173	173	12
200	200	5
209	209	2
63	63	20
219	219	5
78	157	10
98	228	2
145	145	11
130	130	17
31	33	3
59	60	4
51	51	4
73	73	4
220	221	6
167	170	1
49	153	4
119	220	8
64	64	8
59	59	6
22	23	8
116	126	4
161	161	5
233	233	5
206	206	5
107	107	7
51	73	1
39	39	9
25	42	5
12	14	3
40	41	4
119	130	1
68	68	7
9	165	1
77	78	4
102	103	3
77	148	3
13	15	5
201	201	8
240	240	7
225	226	1
32	32	9
2	2	8
105	105	13
182	183	7
140	141	6
67	67	12
1	3	3
181	181	14
113	135	2
134	134	7
142	143	9
169	178	2
24	25	3
162	188	4
133	134	3
189	212	1
181	203	5
226	228	3
112	112	2
196	196	3
57	60	3
42	204	1
212	212	4
213	213	7
27	28	3
29	31	1
148	148	6
3	3	6
216	216	7
171	172	2
135	135	9
215	217	2
172	183	3
176	176	2
29	29	4
11	11	11
158	158	2
118	133	4
215	216	2
101	101	5
128	128	6
184	185	3
5	8	1
80	80	9
192	193	4
159	159	2
33	34	2
222	223	3
176	180	3
217	217	6
100	100	5
85	85	6
144	145	1
127	128	3
45	160	5
155	178	1
220	223	3
75	76	4
228	228	14
193	196	3
220	222	1
57	57	6
165	209	1
88	89	6
221	225	5
81	83	2
217	218	5
4	6	2
177	177	4
156	196	2
118	128	1
167	167	11
145	153	3
49	52	3
183	183	13
237	237	4
48	49	7
10	20	3
79	81	3
69	69	6
159	198	1
236	240	2
153	154	1
53	64	3
118	118	3
38	38	3
232	232	3
228	229	3
126	127	2
77	77	10
136	136	2
45	161	1
31	31	11
141	142	2
129	138	2
0	3	3
188	188	7
220	220	9
207	207	4
71	72	3
108	111	1
137	138	4
147	148	7
70	70	4
56	79	4
157	157	7
187	188	3
223	223	10
138	139	2
89	89	2
221	221	16
30	34	1
217	224	1
27	27	7
4	7	5
163	209	2
122	139	5
98	98	5
113	113	6
24	24	12
187	190	3
72	74	3
176	177	3
10	11	2
131	132	1
55	65	3
230	230	6
105	112	3
131	162	1
63	64	4
50	68	3
95	95	2
3	10	3
35	36	3
36	36	8
50	112	5
118	123	1
76	77	4
144	180	3
184	184	12
42	102	4
1	1	5
122	123	5
212	213	4
52	54	1
78	148	3
76	99	6
50	51	3
211	228	1
146	224	1
104	106	5
118	125	3
37	211	1
6	12	4
62	71	1
6	8	2
48	68	2
111	133	2
52	55	2
120	121	3
195	195	4
182	182	5
117	118	6
18	18	3
232	233	5
27	54	7
95	99	1
136	137	3
13	88	2
129	130	6
32	33	2
164	208	3
215	215	1
17	81	1
5	151	6
28	29	1
0	156	3
179	180	1
71	74	1
75	156	2
29	30	4
116	130	1
163	163	6
137	154	1
31	36	3
139	139	1
198	200	2
58	59	1
181	194	7
175	181	1
121	139	1
14	14	15
20	122	4
37	37	6
120	120	5
240	242	1
37	165	1
39	108	2
156	158	1
83	152	1
173	180	1
45	46	2
154	154	6
3	34	2
218	218	4
172	191	2
107	111	1
8	11	2
175	194	1
40	206	2
106	106	6
42	43	1
139	141	1
117	117	5
62	83	1
54	55	5
75	77	3
33	119	3
164	206	6
226	226	2
192	233	1
122	122	6
6	105	1
204	204	7
158	198	4
241	241	8
140	171	3
0	20	2
39	40	4
217	219	3
160	195	2
67	68	3
79	156	1
111	111	4
77	79	2
101	131	2
104	104	5
150	151	2
14	64	3
156	156	2
142	221	2
74	74	8
121	121	8
164	205	7
44	44	4
67	177	1
36	125	5
214	214	2
146	146	1
47	48	1
19	19	6
13	23	1
121	163	1
74	201	3
168	213	1
171	186	1
101	135	1
156	159	3
231	231	3
36	119	1
226	227	6
99	100	3
240	241	1
120	218	1
220	225	3
83	85	3
234	235	3
3	89	2
13	13	7
81	82	3
115	117	1
69	85	1
185	212	2
119	119	5
47	50	1
117	126	2
34	34	7
121	218	2
150	150	5
140	142	2
46	53	4
202	203	3
147	147	1
107	141	5
169	169	4
225	225	7
7	8	2
106	109	4
189	189	2
12	18	1
102	104	3
114	114	2
32	115	1
155	155	6
62	63	3
47	114	3
141	169	2
40	160	2
162	163	1
114	119	1
202	202	7
81	84	4
229	230	1
74	228	1
3	7	1
21	61	2
114	115	1
192	192	7
211	212	2
169	177	2
173	175	1
209	210	2
77	154	2
101	102	1
194	195	3
18	19	2
52	110	5
79	79	3
186	212	5
118	119	1
42	42	4
176	185	1
97	99	1
35	37	1
125	125	2
21	124	1
124	124	3
35	166	1
173	182	1
41	184	1
41	186	1
101	129	1
81	81	5
14	18	1
13	18	2
207	208	1
174	177	4
24	128	1
180	182	3
122	140	2
77	223	2
9	10	1
143	169	3
118	223	2
185	186	1
2	154	1
38	40	1
228	237	2
8	12	1
22	24	4
135	136	1
37	160	2
59	68	1
49	113	1
21	23	1
144	144	8
153	174	1
5	5	1
70	71	3
150	172	2
83	84	1
39	164	1
23	23	2
119	124	1
145	146	4
47	52	2
32	37	3
31	34	1
28	50	6
82	84	1
21	40	5
80	82	2
198	199	4
210	213	1
141	216	2
235	236	2
74	145	2
99	99	4
16	18	3
55	69	1
233	234	1
16	16	4
30	114	2
2	41	3
69	151	2
229	229	1
64	151	3
123	140	1
51	155	2
169	216	3
149	150	1
121	162	1
1	12	2
168	168	3
86	144	2
16	17	2
209	211	2
25	47	1
201	224	1
20	21	3
15	16	1
162	162	3
148	197	2
24	41	1
52	112	2
118	126	1
123	138	1
157	207	2
75	100	2
3	143	2
174	197	3
159	206	1
168	169	2
104	105	2
186	211	1
104	135	2
16	81	1
149	197	2
103	133	1
110	139	1
45	112	2
23	35	1
12	13	2
153	178	1
39	41	1
152	153	1
103	208	3
158	189	1
22	39	1
56	57	1
179	179	2
103	104	2
39	163	1
123	221	2
13	16	1
4	78	1
193	194	2
205	206	2
8	135	2
164	165	2
5	6	2
191	197	2
181	196	2
42	203	1
43	204	1
57	58	1
96	97	1
134	135	1
20	23	1
72	73	3
2	141	1
241	242	1
14	15	1
121	219	1
102	102	1
15	80	1
102	109	1
62	69	1
46	46	1
123	124	1
4	14	1
46	54	2
121	124	1
0	136	1
132	132	1
100	121	1
13	20	1
165	172	1
140	221	1
95	96	2
80	81	1
41	165	1
176	179	1
117	123	1
167	169	1
4	79	1
175	176	2
162	209	2
138	138	2
41	107	1
151	177	2
228	231	1
0	2	2
42	105	1
143	221	1
83	151	1
151	151	1
21	24	1
197	198	1
123	123	1
18	88	2
58	60	1
20	31	1
52	53	1
79	127	1
184	193	1
61	62	1
16	125	1
136	204	1
26	27	1
90	90	1
11	12	1
3	11	1
53	134	1
123	125	1
140	170	1
217	221	1
