148	151	2
114	149	3
169	169	5
11	46	1
71	71	3
160	161	3
34	34	4
179	180	4
119	119	5
34	35	8
103	103	3
37	37	14
124	125	6
123	123	5
171	177	5
74	76	2
178	178	5
13	86	1
187	187	3
144	144	7
10	11	3
50	50	3
160	189	1
196	196	5
117	118	1
30	32	4
181	195	2
114	114	9
139	140	3
45	45	6
167	167	4
77	77	3
13	42	1
61	61	4
26	26	8
104	194	2
80	80	2
51	51	4
128	196	5
152	152	8
186	186	4
146	147	4
72	72	5
40	40	12
114	118	1
67	68	1
190	190	7
149	150	1
175	175	1
0	0	2
32	56	4
147	147	5
116	116	2
99	136	1
56	56	7
161	161	3
165	167	3
108	109	5
21	21	1
131	179	1
134	134	9
183	184	2
38	38	13
121	122	4
11	53	1
8	8	9
1	2	6
28	28	11
59	60	4
137	146	3
68	68	2
140	140	5
129	129	7
163	163	6
98	98	2
138	139	7
6	18	1
111	111	4
21	25	3
54	55	1
10	10	9
177	177	7
192	193	9
26	27	1
135	135	9
17	17	10
83	181	1
194	194	5
120	120	5
33	33	6
73	74	3
168	169	2
121	146	2
36	36	7
156	156	10
101	101	4
44	44	2
2	2	8
105	138	1
35	36	2
13	14	5
52	54	5
189	190	4
62	72	4
151	151	5
120	148	1
78	79	8
193	193	3
29	29	4
183	183	2
143	144	1
11	44	3
35	65	3
117	117	9
47	47	5
154	159	7
39	41	1
1	1	9
108	116	4
147	171	4
150	150	2
187	188	3
171	171	7
53	53	5
43	43	7
152	153	3
142	142	2
3	3	5
185	185	1
114	191	2
25	30	1
158	158	7
46	50	2
176	176	5
182	182	5
100	100	6
137	144	1
188	188	5
106	106	11
113	183	1
142	145	3
54	54	10
137	137	1
162	173	4
184	184	13
94	94	5
146	146	6
69	69	1
18	19	1
180	180	7
190	193	1
71	72	1
12	13	7
60	60	3
105	110	2
142	143	2
72	162	5
115	151	4
79	79	5
131	133	2
190	191	9
116	131	1
48	48	8
189	191	1
61	62	2
191	192	3
32	43	3
43	46	3
122	122	6
105	105	3
165	165	4
173	180	4
88	88	6
5	5	4
125	125	1
124	124	3
170	182	2
107	122	5
59	59	5
30	30	3
11	11	7
32	32	5
9	9	9
13	13	3
114	177	1
117	159	1
120	146	2
157	157	4
31	31	2
148	149	9
120	150	3
109	129	1
164	164	2
87	87	2
151	152	2
39	39	3
89	89	3
7	7	1
153	153	11
159	159	5
154	154	3
162	163	3
110	110	8
113	113	7
9	10	1
64	68	4
50	51	3
14	14	3
164	165	2
162	162	4
112	112	6
129	159	1
170	171	2
46	46	4
1	3	2
160	172	5
192	192	5
145	171	2
110	112	1
121	121	6
78	80	4
4	4	5
156	185	2
155	155	6
108	178	3
195	195	2
57	57	4
79	80	2
38	40	1
49	49	4
174	174	13
20	20	3
165	194	6
166	166	2
115	148	1
62	63	1
136	136	6
99	166	4
107	108	1
0	1	2
133	133	1
189	189	3
44	53	1
181	181	2
148	148	3
159	183	1
132	152	3
103	104	1
130	130	6
82	82	2
97	97	5
19	21	2
73	73	3
191	191	3
41	41	2
29	30	1
145	146	5
185	186	2
174	181	2
83	83	1
38	42	2
121	177	2
148	152	2
127	128	3
11	13	1
47	48	5
141	141	2
93	93	5
157	158	3
118	130	2
25	26	1
143	143	8
149	185	1
33	93	2
131	131	5
33	34	1
35	39	3
108	158	3
37	95	1
35	42	2
173	175	4
77	78	2
130	146	1
167	197	1
28	29	2
155	157	2
132	139	1
149	151	4
180	185	1
173	173	1
60	62	2
114	126	2
179	192	1
166	178	2
88	90	2
178	192	2
135	136	3
42	42	1
24	27	2
30	72	1
136	157	3
10	44	1
105	106	2
100	115	2
138	138	2
133	180	2
169	171	1
118	118	1
141	197	2
12	12	1
107	107	1
172	177	1
31	32	2
98	174	2
120	121	3
158	159	1
109	111	1
108	155	4
176	179	1
116	118	2
141	143	1
30	66	3
160	160	1
108	121	2
7	18	1
119	147	2
52	52	1
59	64	2
168	186	1
161	197	1
130	134	2
98	128	1
100	120	2
53	54	1
21	64	1
72	78	2
139	139	4
99	149	1
24	24	2
181	182	2
122	123	2
139	148	1
17	19	1
172	181	1
109	109	2
174	185	1
3	6	3
172	173	1
163	181	1
103	119	1
135	137	1
156	157	2
81	81	4
16	16	1
197	197	1
106	123	1
168	168	1
121	172	1
95	95	1
85	85	1
27	63	1
39	58	1
167	178	1
136	137	2
2	3	1
0	2	1
140	153	1
161	166	1
107	123	2
148	169	1
131	132	1
126	126	1
