50	50	6
173	175	2
156	157	4
8	9	3
195	195	11
163	164	3
153	154	6
62	62	5
139	139	17
150	153	5
8	8	7
137	146	2
179	179	23
122	122	15
96	96	13
22	22	18
42	43	2
119	119	17
104	104	5
43	54	2
172	172	14
179	180	15
194	194	15
99	101	4
68	68	16
186	187	9
143	143	14
0	1	5
111	112	4
154	164	3
125	126	7
191	191	15
159	159	29
174	175	7
147	148	6
48	48	13
26	26	8
15	15	12
107	111	3
147	147	32
141	167	3
106	107	2
63	63	6
109	111	11
10	45	3
5	5	9
54	54	17
150	150	15
30	31	10
3	3	11
123	123	14
170	171	10
117	117	23
67	67	7
100	190	1
157	157	25
178	178	22
59	60	3
187	187	7
138	138	5
20	20	12
185	186	7
180	181	10
155	156	8
123	124	7
149	149	17
115	121	2
159	161	9
35	35	19
109	109	8
55	56	2
185	185	14
108	108	12
83	84	7
130	130	9
9	53	5
134	134	20
33	33	11
176	177	12
193	193	12
94	95	5
116	117	5
170	170	8
168	169	10
31	31	11
38	79	6
131	154	3
110	111	2
16	16	9
146	146	21
173	174	8
155	155	24
118	118	10
124	128	3
169	169	29
168	168	17
177	191	1
48	49	2
102	102	14
53	53	16
162	162	12
192	192	9
163	163	11
46	46	6
136	136	10
165	166	14
38	38	15
136	137	6
130	150	4
23	23	11
134	136	2
37	38	5
68	88	2
43	58	3
81	81	4
2	3	6
186	186	12
132	137	4
59	61	5
94	94	13
62	63	12
153	153	7
145	146	8
70	70	16
160	160	11
112	113	16
27	28	4
58	58	18
167	167	17
127	128	5
82	88	1
120	122	2
2	2	13
131	131	11
134	135	3
4	15	2
115	115	15
13	13	13
128	128	15
25	25	9
188	188	5
122	123	2
102	105	4
1	1	8
161	161	25
114	114	17
156	156	20
72	72	7
28	31	3
192	193	13
101	101	12
51	51	11
29	30	9
133	133	5
44	44	12
29	29	11
76	76	6
110	120	3
181	181	23
17	17	15
132	133	3
53	79	2
49	49	15
113	115	3
21	21	11
37	37	8
7	56	4
154	154	8
7	7	23
39	40	9
66	67	4
148	148	23
102	111	2
130	131	10
22	23	15
19	19	16
141	142	5
67	68	3
196	196	11
176	176	9
132	138	2
144	145	2
88	89	3
89	90	1
77	78	2
148	152	2
103	103	11
145	145	16
128	192	2
146	153	5
39	39	14
130	133	1
6	8	5
178	182	3
166	166	18
28	163	1
161	166	1
35	41	1
183	184	2
183	183	10
56	56	7
153	155	7
134	140	4
59	59	22
16	67	1
30	30	13
36	36	14
74	74	12
130	134	4
121	121	8
112	112	10
61	61	12
85	90	4
72	73	2
18	18	5
43	43	6
10	10	5
64	66	3
108	146	1
83	88	4
7	26	6
56	61	4
0	0	8
135	184	2
176	178	10
38	41	1
72	88	1
181	182	7
69	69	5
32	36	2
60	61	4
151	151	15
140	140	22
190	190	15
148	150	1
27	27	10
180	180	12
14	14	12
3	18	5
121	122	6
54	69	2
110	110	9
34	42	2
151	167	3
125	128	4
191	194	1
34	35	9
165	165	13
129	129	9
195	196	5
130	192	2
132	132	12
73	73	9
117	118	5
150	151	5
121	124	1
4	11	4
69	70	2
53	56	4
164	166	3
177	177	13
190	191	5
152	153	6
131	140	2
33	35	2
152	152	10
17	18	12
1	26	2
29	162	1
86	86	2
10	11	4
116	116	12
85	85	4
124	124	22
127	127	6
188	189	6
21	24	1
120	120	9
109	143	1
28	28	17
77	88	4
74	87	5
181	193	3
88	88	4
158	158	12
4	132	2
184	185	2
29	43	2
194	195	7
175	175	13
135	135	6
40	40	11
129	191	1
42	42	8
107	107	5
1	2	14
57	61	3
78	78	12
25	26	7
19	21	2
143	149	1
102	103	1
189	189	16
101	110	2
19	20	7
55	69	2
55	55	19
128	189	1
11	11	9
34	34	7
162	178	3
41	41	10
53	101	1
159	160	4
83	83	6
53	55	2
142	142	12
103	104	3
54	56	7
155	158	1
99	99	5
38	39	2
161	162	8
102	107	3
172	174	4
158	161	1
57	58	1
9	9	9
45	45	23
22	25	1
35	43	1
62	94	1
146	175	2
29	163	1
71	74	2
7	10	1
79	80	3
111	111	16
5	19	1
109	110	1
54	55	5
52	52	9
105	107	5
44	45	4
51	52	2
21	39	1
121	123	1
7	19	3
5	20	6
5	7	8
137	137	8
142	167	1
5	6	7
141	141	10
174	174	9
40	41	2
128	134	4
75	84	1
47	47	4
159	162	3
184	184	12
109	113	3
172	191	1
120	121	6
60	60	2
151	153	2
176	191	1
53	58	2
58	59	11
81	82	6
79	79	6
131	132	3
108	110	1
105	105	3
28	30	7
46	47	4
71	72	5
50	51	2
158	159	2
28	32	4
79	86	2
96	97	3
58	64	2
106	106	8
154	155	7
36	37	10
134	137	4
192	197	3
1	66	2
2	8	1
187	188	12
116	165	5
142	143	4
0	64	4
119	125	3
140	155	3
164	164	9
19	41	3
109	150	1
11	12	2
171	194	1
15	69	2
157	158	13
6	61	2
78	79	2
7	34	4
167	168	3
67	69	2
12	12	8
24	26	2
80	81	2
113	114	4
5	67	2
162	166	3
148	190	1
193	194	5
80	80	4
66	66	4
4	7	4
8	129	2
129	189	2
197	197	13
101	102	1
97	97	6
104	130	1
21	43	1
65	66	2
144	144	8
182	182	20
9	11	1
143	147	4
31	40	1
43	44	2
103	117	2
16	68	1
140	141	2
0	7	3
35	57	3
164	165	4
57	57	12
74	76	5
34	43	4
0	2	3
169	170	3
156	184	2
16	17	11
115	116	8
163	166	2
109	149	4
172	173	1
185	190	1
87	87	3
151	179	2
141	143	3
135	137	6
105	106	1
173	173	10
32	32	3
191	192	5
83	85	2
172	176	3
3	19	1
31	33	1
35	80	2
100	100	6
0	3	2
98	98	5
6	7	4
3	4	2
21	22	8
95	95	5
29	38	1
1	3	2
11	47	1
163	170	1
166	169	1
65	65	4
56	58	3
6	67	1
53	59	3
3	58	3
41	42	5
25	39	1
4	14	4
108	109	2
178	179	7
114	115	2
187	189	6
2	66	1
54	87	1
196	197	1
24	24	4
77	79	3
9	10	2
73	171	3
140	152	1
16	31	1
24	25	3
93	93	8
191	193	2
4	64	1
143	144	2
133	142	3
166	168	1
78	145	3
77	77	4
159	163	3
4	29	1
3	27	1
0	14	2
12	58	1
113	113	9
82	82	3
21	23	1
167	169	3
174	176	1
192	194	1
31	32	10
125	127	2
42	44	6
146	150	1
130	132	2
2	18	1
154	159	1
7	8	3
189	191	2
189	190	2
149	150	6
4	4	7
156	168	1
100	101	1
190	193	2
4	5	5
156	174	1
35	68	2
163	165	5
145	155	1
25	29	1
84	84	3
124	125	2
0	65	3
85	86	3
171	171	5
132	140	1
6	6	8
64	64	7
157	161	3
138	154	3
44	71	5
17	19	1
61	62	2
160	161	2
59	101	4
126	126	4
187	193	1
95	97	2
158	185	1
3	6	2
16	29	1
20	24	1
139	155	1
99	100	1
153	173	4
30	32	1
94	96	1
7	35	2
36	45	2
147	155	3
156	158	2
177	178	1
110	147	3
3	8	2
156	169	3
61	100	2
158	160	1
56	71	2
8	58	1
12	53	1
15	66	1
149	158	1
33	36	1
7	130	3
66	158	1
8	21	1
152	179	2
20	21	7
26	27	5
113	116	1
0	22	1
177	179	1
85	88	3
32	33	1
0	13	1
7	20	1
172	175	3
9	128	1
0	37	1
18	19	4
162	163	5
33	34	2
139	140	5
114	119	1
88	90	2
53	54	1
168	196	1
57	127	1
0	26	1
150	152	1
40	43	3
103	106	2
52	53	2
22	26	1
4	6	2
151	169	3
163	173	2
171	172	2
63	65	3
172	181	5
4	21	5
17	62	1
36	39	3
105	134	2
59	100	2
167	180	1
24	27	2
185	187	1
26	38	1
35	79	4
86	88	1
15	16	4
53	88	2
121	126	3
112	115	1
146	147	1
149	183	1
71	73	2
89	89	7
149	151	2
79	81	1
31	56	2
161	165	2
152	183	1
66	77	1
7	54	1
104	119	1
94	97	1
55	58	1
22	30	1
167	193	1
109	112	1
90	90	2
142	145	1
118	120	1
189	194	2
8	13	2
55	77	1
175	178	1
3	14	1
145	148	1
71	71	1
23	26	1
140	154	3
193	195	6
162	173	2
66	69	1
119	121	1
61	78	1
58	88	2
102	117	3
101	113	2
163	169	1
4	17	1
33	43	2
100	103	1
190	194	1
99	125	1
73	76	1
9	14	1
0	4	2
136	138	2
117	119	1
136	192	2
44	57	1
135	146	2
158	184	1
47	52	1
26	28	1
169	171	2
139	152	1
71	102	2
57	99	1
133	135	3
55	101	1
40	44	2
126	127	2
182	183	1
39	42	1
60	62	1
148	178	1
13	58	1
45	46	1
5	14	1
149	156	1
119	120	2
161	184	1
21	25	1
2	61	1
37	80	1
30	34	1
43	56	3
107	109	1
154	192	1
154	157	3
125	125	3
73	74	1
114	150	2
80	83	2
34	37	1
3	13	1
114	149	1
98	99	1
39	41	3
129	130	1
165	168	1
12	72	1
70	71	1
175	177	1
153	157	1
46	51	1
163	176	1
1	64	2
107	108	1
38	69	1
147	157	1
138	139	1
2	64	1
100	112	1
15	32	1
134	138	1
26	37	1
135	147	1
154	158	1
8	20	1
158	174	2
101	129	1
137	155	1
100	120	1
34	44	2
130	147	1
37	184	1
77	86	1
87	88	1
8	53	1
155	169	1
44	58	1
102	112	1
118	119	1
8	54	1
156	159	1
124	136	1
9	44	1
76	79	1
57	60	1
74	75	1
23	69	1
133	134	1
34	41	1
142	165	1
95	96	1
148	191	1
