14	29	4
45	62	1
14	14	7
93	93	10
98	102	1
47	48	1
74	85	7
127	131	4
33	33	9
98	99	7
61	69	2
131	131	8
28	40	1
105	106	4
21	48	1
40	48	1
67	68	7
90	96	2
95	95	4
86	86	9
67	67	8
80	80	8
68	76	4
17	17	5
21	21	4
73	73	4
81	82	3
123	123	2
33	44	1
104	107	5
30	31	4
26	78	2
16	16	9
30	40	4
11	11	7
46	47	1
27	28	8
57	60	2
84	84	5
41	42	4
129	129	13
70	70	6
127	127	5
12	12	10
36	36	11
41	43	1
94	94	10
6	7	2
20	20	7
131	133	8
84	101	1
107	107	9
112	112	11
31	40	3
113	113	2
73	74	3
56	56	8
2	46	5
118	118	5
68	68	7
122	122	3
116	117	8
126	126	2
3	10	1
71	71	7
45	45	11
61	61	12
27	80	3
117	117	4
92	93	3
127	132	2
98	101	5
31	31	5
84	116	1
109	109	7
67	69	4
2	2	4
88	88	6
8	9	5
48	49	2
65	65	17
110	111	3
36	39	1
121	134	3
79	79	8
100	101	2
78	78	12
58	58	3
99	102	1
10	10	13
133	133	4
89	89	7
57	58	2
78	81	3
37	37	6
96	97	3
45	99	1
9	66	2
14	49	1
60	61	2
7	8	3
82	82	8
31	32	3
93	94	1
124	124	7
22	24	2
7	7	7
111	111	5
99	100	11
44	56	3
21	51	3
126	130	2
47	47	14
62	62	6
13	110	1
14	20	2
16	109	2
16	73	1
10	47	1
60	71	2
83	84	2
114	114	5
78	84	5
21	22	5
57	79	1
46	46	13
17	18	2
60	60	3
24	32	4
41	41	4
25	83	3
116	116	4
8	8	6
8	12	1
5	5	2
26	26	13
115	115	5
6	20	2
125	125	3
64	64	10
3	3	4
32	32	1
18	57	1
64	128	2
89	108	1
15	25	1
4	45	1
29	50	2
59	59	4
12	43	1
62	63	2
35	35	7
21	84	3
59	107	2
63	63	4
9	9	15
87	93	1
130	130	1
38	38	5
40	41	1
28	29	4
6	6	2
76	121	3
56	85	2
83	83	5
28	28	4
3	5	2
61	119	3
26	79	2
44	44	4
3	98	5
57	57	10
120	120	4
27	27	5
11	12	1
70	75	1
111	112	2
45	95	1
24	26	4
120	132	2
29	91	1
12	98	4
131	132	5
27	29	1
101	116	2
77	77	8
91	100	3
86	87	3
21	62	3
106	106	4
109	111	1
71	82	2
85	108	2
26	27	3
99	99	1
2	3	2
22	55	2
92	92	5
81	81	1
56	116	4
45	61	1
97	98	1
23	23	2
78	79	5
20	62	1
8	37	2
28	36	2
23	28	1
125	126	4
116	118	1
72	72	14
68	69	4
37	46	3
32	41	1
45	90	1
100	100	6
10	12	3
42	55	3
85	85	3
9	10	2
60	70	1
57	59	1
25	95	4
19	35	1
96	96	3
72	74	2
87	88	3
42	42	4
5	11	1
20	26	1
15	15	3
75	75	4
25	79	2
108	108	4
29	57	1
6	15	1
40	42	1
124	126	2
35	36	2
34	34	3
119	119	1
79	80	3
49	49	2
121	121	3
13	13	3
43	45	5
37	38	4
66	71	1
101	102	1
7	28	1
16	22	2
25	26	6
26	96	1
45	71	1
102	102	1
62	75	3
90	91	1
56	107	2
75	119	1
15	19	1
91	114	1
24	25	2
113	114	4
69	69	4
66	66	3
38	81	2
120	123	1
13	16	2
20	95	1
82	84	1
77	85	1
15	16	3
77	119	1
90	90	4
27	95	1
26	93	4
40	40	6
24	24	2
74	74	5
20	82	1
24	36	2
101	101	4
0	0	1
127	128	3
88	91	1
43	43	1
28	55	1
4	4	7
77	122	1
84	89	2
74	120	1
101	110	1
23	24	2
70	71	1
87	87	4
44	60	1
104	105	2
9	47	1
9	12	1
77	120	2
126	129	2
44	45	3
76	76	1
21	30	1
91	117	1
56	109	2
65	129	3
5	93	1
42	81	2
84	121	1
26	48	4
43	47	1
30	30	1
57	63	2
73	75	1
51	51	1
37	43	1
14	23	1
110	110	2
61	68	1
61	72	2
106	108	1
90	103	1
5	92	2
91	91	2
25	25	1
26	107	1
112	113	2
50	50	1
6	66	1
22	23	1
4	49	1
18	69	1
97	97	1
61	62	1
130	131	1
12	93	1
15	20	1
34	82	1
86	121	1
56	84	1
95	108	1
105	105	2
45	46	1
29	29	1
22	29	1
66	111	1
9	11	1
22	22	1
18	18	1
83	86	1
19	76	1
14	26	1
84	122	1
26	47	1
76	123	1
27	79	1
85	86	1
90	95	1
21	49	1
31	60	1
85	122	1
91	92	1
30	32	1
89	90	2
6	46	1
78	134	1
15	21	1
35	37	1
