16	16	21
74	74	13
83	84	1
148	148	16
136	137	11
71	74	4
124	125	1
37	41	3
4	4	10
87	141	2
134	135	6
133	136	3
54	54	10
1	1	5
42	42	10
152	152	7
89	89	15
12	12	12
10	12	5
56	57	10
47	48	3
151	151	9
0	0	8
109	110	6
97	97	10
111	111	7
70	72	1
24	24	16
75	78	3
78	78	7
104	104	7
141	141	8
18	42	2
122	122	6
146	146	14
107	107	5
102	102	7
180	182	3
41	41	7
98	98	8
6	7	3
156	157	4
53	53	17
165	165	8
21	23	6
96	96	6
164	164	4
107	118	2
94	121	3
143	143	4
75	75	10
93	94	1
87	87	6
153	153	5
126	126	3
80	80	6
48	48	9
165	170	1
57	57	10
72	91	1
23	77	7
81	82	2
131	133	5
17	17	9
72	76	2
7	7	17
146	148	2
153	154	1
133	133	7
6	15	1
83	83	3
92	93	5
72	92	5
142	142	9
155	155	5
162	163	7
128	139	1
131	132	2
77	77	22
167	167	5
149	149	8
61	63	2
6	6	8
16	39	2
129	153	4
12	53	1
60	61	6
187	187	5
106	119	1
111	131	7
62	62	4
40	40	12
72	73	4
54	55	3
162	162	4
156	168	3
15	15	12
39	39	9
0	1	2
119	119	2
38	39	11
90	90	5
27	38	1
9	10	11
108	108	4
2	2	12
94	108	1
88	88	21
179	180	3
58	61	4
62	63	4
30	32	4
64	84	2
175	188	3
28	28	3
111	145	2
184	184	5
129	129	3
149	150	11
113	129	5
103	103	10
138	139	3
81	81	3
137	138	2
124	124	12
24	39	2
151	152	4
112	112	5
20	24	4
130	130	3
20	40	1
96	97	5
99	100	4
19	19	7
61	65	2
146	147	9
137	137	8
139	139	13
80	81	3
95	101	4
127	127	7
84	85	6
8	8	14
135	135	6
31	38	4
38	38	16
110	110	10
155	165	5
120	120	16
71	71	5
74	76	5
23	23	11
150	150	1
93	93	6
86	94	6
29	59	7
157	161	3
120	125	2
109	140	3
154	154	4
79	79	4
134	134	5
119	124	4
65	65	8
90	91	1
140	140	11
81	83	1
53	55	8
101	101	3
31	31	5
79	83	4
173	182	4
141	143	1
180	181	1
2	109	4
147	151	1
59	59	5
18	18	5
66	85	5
91	94	1
0	4	2
36	36	6
173	185	1
76	77	8
75	80	2
27	29	1
146	150	3
55	55	4
141	144	2
105	105	2
76	76	12
30	46	2
85	94	1
48	53	1
14	15	1
17	24	7
27	27	8
89	91	1
66	66	6
91	92	8
136	138	8
73	73	7
78	79	4
58	60	4
30	30	2
106	106	1
86	86	2
85	85	7
36	57	3
129	131	3
164	165	1
135	136	3
22	23	2
35	41	3
134	144	2
27	28	5
140	141	2
70	71	7
21	21	3
109	119	4
130	131	4
71	73	1
144	144	3
71	75	2
127	128	4
79	80	5
84	84	13
9	9	3
47	47	5
125	126	2
159	160	2
131	137	2
171	173	3
95	95	8
5	5	14
84	94	1
110	120	2
13	20	1
17	18	1
114	114	3
29	46	2
176	176	3
18	20	1
116	119	1
117	118	4
13	14	2
28	61	1
56	56	18
18	19	1
133	134	5
81	86	5
175	175	6
40	41	3
163	163	8
114	119	3
55	56	4
81	93	4
156	156	13
68	69	2
64	65	2
127	155	1
16	38	2
43	43	8
86	106	3
92	137	3
22	22	3
59	62	2
141	142	2
14	14	5
92	92	5
85	87	1
189	190	1
171	171	4
118	119	1
7	8	3
82	82	4
35	45	2
69	69	1
36	38	1
16	23	1
20	20	6
177	180	5
108	109	4
116	116	8
27	37	4
10	10	6
180	180	5
63	64	7
175	176	2
18	23	4
34	34	6
104	105	2
29	30	1
66	67	1
45	45	7
122	123	2
76	78	2
48	56	3
128	149	2
139	158	1
61	62	3
168	170	6
2	120	3
109	109	7
66	82	1
94	94	6
116	117	5
169	170	6
46	46	3
188	188	3
115	130	1
12	13	1
113	113	4
169	169	3
13	13	3
130	134	4
115	117	4
178	178	6
102	103	8
33	34	4
140	148	1
175	178	1
82	84	1
39	55	1
178	182	1
17	26	1
168	169	3
33	57	1
36	59	1
128	129	1
98	100	4
139	157	2
25	38	2
85	86	3
34	35	1
72	72	9
44	45	2
75	76	3
189	189	2
23	24	5
121	121	5
106	107	1
160	160	3
68	71	1
118	118	3
41	44	1
78	80	3
10	11	2
126	128	1
36	45	2
43	44	2
114	115	2
89	90	4
14	24	2
166	167	1
120	121	3
166	166	1
69	70	2
103	110	2
115	115	2
147	148	1
120	123	2
100	100	3
111	151	2
68	70	2
3	3	1
26	27	2
62	64	2
127	135	4
99	101	1
95	98	1
21	44	1
123	123	4
91	91	1
70	70	2
111	112	1
64	64	4
143	144	1
185	185	1
126	137	3
35	43	2
90	110	3
26	26	3
183	183	5
165	167	2
94	120	2
176	177	2
108	118	4
95	102	1
30	31	1
128	128	1
39	40	1
63	80	1
87	89	2
52	52	3
172	172	2
167	168	1
84	91	1
37	38	1
124	130	1
22	25	2
112	113	1
33	33	4
161	163	5
24	77	3
27	101	2
35	35	2
129	130	1
67	67	1
109	142	1
147	149	1
48	54	2
122	124	1
19	20	1
111	115	1
133	135	2
57	58	2
133	144	1
26	67	5
15	23	2
15	24	3
164	168	2
13	53	4
44	44	1
48	49	3
113	115	1
103	104	4
20	21	2
24	74	1
18	21	2
176	178	1
138	140	1
19	24	1
68	87	1
89	109	1
73	76	3
47	56	1
17	43	2
11	12	1
115	128	1
58	58	1
21	29	1
79	81	1
157	157	2
8	13	1
17	57	1
97	101	1
131	131	1
157	158	2
119	120	1
69	81	1
109	113	1
95	97	1
126	155	1
46	47	1
25	25	3
126	127	1
110	140	1
29	29	2
95	99	1
34	40	1
148	149	2
37	37	2
88	90	1
145	145	2
179	179	1
75	83	1
125	155	1
188	189	1
97	100	2
117	117	1
21	66	2
161	161	1
71	72	2
125	153	1
130	133	1
25	67	1
56	102	1
136	136	1
137	139	1
160	167	1
72	74	1
36	37	1
82	83	1
177	177	1
8	24	1
182	182	2
1	2	1
61	81	1
125	128	1
146	149	1
138	154	1
170	170	1
