139	140	3
87	87	4
95	95	9
52	53	4
51	52	10
158	158	3
127	127	6
51	54	2
112	115	5
136	136	7
93	93	6
83	97	2
77	77	11
102	102	5
28	28	11
112	112	8
157	157	5
84	86	4
117	117	14
46	46	1
142	142	5
147	152	4
139	139	6
76	76	4
104	105	2
72	77	2
68	68	1
37	37	7
145	145	8
148	148	13
113	127	1
120	120	8
149	149	11
45	45	5
105	106	1
40	41	5
130	131	3
20	20	9
157	158	7
24	24	6
52	52	5
146	146	2
133	133	6
23	23	3
96	97	10
137	137	6
17	17	2
131	157	2
32	38	2
99	99	5
114	114	8
3	3	6
70	71	2
38	38	4
150	150	3
64	64	5
20	21	6
75	99	4
103	103	3
73	73	7
41	42	2
71	71	5
156	156	5
93	94	2
126	142	3
151	156	2
81	81	8
84	85	2
75	75	8
144	144	3
43	43	12
79	79	3
92	92	6
54	54	3
140	149	1
135	135	3
123	124	3
101	101	5
43	91	3
113	113	1
7	7	5
1	2	2
69	70	2
147	147	2
47	50	1
14	14	1
65	65	2
31	33	2
43	77	2
44	44	3
34	34	8
67	71	3
31	31	4
53	53	4
138	138	1
116	116	2
26	27	7
113	117	2
32	32	7
132	133	9
153	153	3
138	139	5
86	95	1
91	91	3
156	157	2
128	129	3
30	30	2
87	88	6
29	29	2
51	55	3
54	55	4
51	51	10
50	51	1
121	122	2
2	2	1
42	79	2
74	74	1
140	141	4
27	27	6
106	107	3
25	25	1
2	4	2
111	111	5
52	55	2
131	146	3
47	47	6
109	109	3
8	9	3
113	114	5
39	41	2
24	34	1
96	112	1
99	100	1
106	109	4
134	138	2
82	82	3
106	111	3
39	42	4
45	46	5
107	127	3
88	88	4
29	30	3
95	96	5
135	136	1
120	121	1
50	52	2
67	67	6
78	78	3
128	128	2
48	48	1
51	70	2
21	21	8
97	97	3
150	152	1
92	93	3
28	29	3
74	111	4
34	35	5
18	21	2
5	6	2
50	50	6
148	150	1
105	116	1
1	1	3
31	32	3
122	123	1
49	52	1
116	117	2
57	70	2
107	107	5
124	126	3
13	14	1
8	10	2
44	45	1
33	33	3
53	67	3
135	139	1
131	133	1
0	1	2
72	101	1
151	152	3
84	96	2
130	133	1
23	24	4
131	150	1
131	131	4
27	28	2
116	139	1
119	120	5
18	19	1
133	137	2
80	80	1
133	140	3
70	70	1
105	105	3
110	122	2
104	104	3
15	18	2
117	118	4
131	155	1
129	132	1
0	0	3
83	84	2
23	25	2
16	22	1
9	19	1
26	29	1
73	75	4
155	155	3
26	26	2
50	65	1
129	129	1
6	6	2
144	146	2
39	39	2
123	123	1
85	85	5
115	127	3
93	95	2
67	69	1
116	134	3
46	47	1
94	94	3
90	90	1
8	8	3
79	91	1
145	147	1
109	110	1
43	44	1
129	131	1
69	69	1
65	66	3
112	116	3
67	68	1
121	121	3
132	134	4
63	63	2
89	90	2
101	102	1
132	132	1
22	22	1
113	115	1
113	122	1
78	82	1
9	9	1
42	42	3
115	116	2
106	106	1
125	126	1
10	12	1
130	130	3
5	5	1
92	95	1
5	27	2
152	152	3
66	72	2
69	71	1
34	40	1
56	86	1
56	56	1
66	102	1
87	89	2
35	35	2
122	122	2
145	153	1
32	34	1
116	119	1
127	154	1
131	135	1
98	98	2
12	12	1
67	70	1
42	80	1
7	8	1
96	104	1
117	123	1
87	90	1
51	71	2
123	141	1
13	85	1
82	83	1
48	64	1
