32	32	5
58	59	7
103	103	7
27	27	7
81	81	11
50	50	22
119	119	20
131	131	7
99	99	3
94	95	5
121	121	17
132	132	8
79	79	9
67	77	2
88	89	3
112	112	12
114	125	2
111	111	12
57	58	2
55	55	8
129	129	7
130	130	6
10	46	1
48	48	10
100	100	5
50	51	15
57	57	23
18	18	7
120	120	12
40	40	10
71	71	16
73	73	3
93	94	4
84	84	3
118	120	3
110	110	9
38	44	2
107	107	9
52	52	7
3	4	1
23	25	2
81	83	4
52	53	10
85	85	5
2	2	8
98	98	2
47	47	19
44	45	6
117	120	7
49	49	13
94	133	2
59	61	3
104	105	11
10	28	2
23	23	5
14	14	9
87	87	6
67	76	3
6	6	12
109	111	5
7	7	6
11	11	11
19	20	4
39	39	5
90	90	7
91	93	4
34	34	6
75	75	12
95	111	2
104	104	17
42	43	5
11	12	6
51	108	1
106	106	7
38	38	12
127	127	4
126	129	5
76	77	2
43	43	16
7	8	6
61	61	11
122	122	14
96	97	1
63	63	3
28	29	5
3	3	11
16	16	9
12	12	13
116	118	3
5	5	8
92	92	10
45	47	4
59	59	7
25	25	13
49	95	1
125	125	8
91	91	12
30	30	6
105	106	9
20	20	3
7	51	4
23	40	2
53	127	1
54	55	11
89	90	6
27	49	1
93	93	8
41	41	9
4	4	7
97	130	1
76	76	19
62	62	10
76	78	3
1	1	17
93	104	2
106	107	3
93	96	2
53	53	15
46	47	3
117	117	9
18	21	5
114	118	4
87	92	4
126	126	9
80	82	4
4	5	3
104	107	6
32	40	2
54	54	11
47	84	2
58	58	8
72	73	1
11	13	3
102	103	4
67	68	4
108	113	1
82	82	8
99	128	4
29	31	1
97	126	1
19	21	2
88	105	3
13	13	13
26	26	17
69	69	7
124	125	7
29	42	5
113	113	4
10	12	2
91	92	10
70	70	10
26	27	5
8	8	8
46	48	2
123	124	1
24	24	5
14	15	4
118	118	3
33	33	7
65	65	1
65	82	2
9	10	4
124	133	2
87	88	1
68	68	3
97	97	7
89	105	4
11	38	2
10	10	4
118	119	11
103	104	3
33	34	1
56	111	1
26	29	2
109	109	10
129	130	3
2	3	5
43	44	3
80	80	1
3	5	4
28	28	4
114	124	4
58	61	2
56	56	7
39	40	2
90	94	1
94	94	11
71	74	3
21	22	6
96	96	7
9	9	6
31	39	2
114	114	7
16	18	2
18	19	2
78	78	4
48	86	4
15	16	8
6	10	1
77	77	5
58	60	2
111	112	3
61	62	5
72	72	3
121	122	4
115	115	7
0	1	4
97	120	1
79	80	4
59	62	2
41	63	2
0	5	1
19	19	7
46	46	9
22	23	1
17	17	4
44	44	5
15	15	10
64	64	7
25	48	3
41	47	2
30	42	2
21	21	6
115	116	4
123	123	3
113	117	1
74	74	4
13	23	1
86	98	2
8	11	4
55	66	1
133	133	5
94	117	1
60	60	3
67	67	2
0	0	2
37	37	1
6	12	1
32	33	3
98	118	4
32	34	2
131	132	2
78	80	2
70	71	4
86	87	1
23	24	5
84	85	2
95	132	1
38	60	3
126	128	3
125	127	1
57	60	1
42	42	2
16	42	2
88	91	4
113	114	2
62	63	3
78	81	4
108	108	3
86	86	4
79	86	3
96	118	1
120	121	2
101	101	2
31	32	1
72	74	2
28	38	1
89	91	2
60	61	2
63	64	2
95	95	3
29	60	2
124	124	8
114	116	1
114	119	1
67	79	6
31	31	5
115	117	2
98	99	2
87	89	1
119	120	1
89	93	2
119	130	1
105	105	2
80	81	2
102	102	4
47	82	2
116	116	1
115	119	1
15	27	2
43	47	1
88	88	5
101	103	2
110	111	2
65	66	2
30	39	1
59	76	2
69	70	1
127	128	4
117	118	2
129	131	1
83	83	1
1	4	1
77	78	2
24	39	1
124	131	2
90	93	3
75	76	1
67	78	1
8	15	5
15	39	1
29	29	1
51	53	1
25	26	2
114	127	1
17	23	2
6	13	1
47	85	1
48	57	1
1	6	1
22	22	3
59	60	3
18	20	1
128	128	2
38	39	2
73	77	1
24	25	1
49	88	3
45	46	1
53	80	1
100	102	1
68	78	1
14	23	1
51	111	1
30	59	2
10	11	1
12	24	2
41	43	1
72	75	1
107	108	1
66	66	2
107	109	1
106	111	3
114	115	3
17	28	1
27	28	2
102	106	1
85	87	2
51	51	2
22	25	1
100	101	1
47	48	1
125	126	1
111	114	1
50	110	2
114	129	1
23	28	1
14	22	2
113	124	1
109	110	1
64	66	1
130	131	1
56	57	1
4	6	1
59	63	1
17	18	1
16	24	1
9	56	1
102	104	1
20	21	1
68	76	1
