105	105	10
70	70	18
117	117	29
2	5	4
33	33	15
128	129	9
13	13	9
143	143	9
33	41	2
12	13	2
75	75	13
85	85	17
134	134	19
76	84	1
64	65	2
137	137	24
120	121	7
101	124	2
24	26	3
109	109	16
72	72	7
129	130	4
30	38	1
113	114	8
90	91	2
63	77	5
81	81	24
144	144	7
119	119	20
140	140	25
15	18	3
2	2	10
120	120	25
110	110	15
37	37	14
78	120	4
106	106	16
127	128	5
118	119	7
28	29	4
138	138	21
4	5	8
14	110	1
58	58	23
108	108	13
55	55	16
14	14	18
66	78	1
97	97	10
23	23	57
19	19	16
63	63	12
0	0	9
94	121	2
14	17	3
25	26	7
115	116	3
10	10	2
52	52	10
82	82	7
104	105	5
31	32	13
113	133	2
121	121	25
88	88	7
97	110	1
141	141	12
27	27	16
116	131	2
60	60	15
33	35	5
80	103	1
98	98	5
13	14	9
36	37	5
106	107	4
11	12	1
31	31	16
135	139	4
96	96	9
72	73	9
118	121	2
131	132	15
113	113	7
54	54	12
38	42	6
75	82	2
116	117	13
40	40	12
77	78	5
65	66	6
110	114	4
48	48	18
25	25	14
127	127	28
71	74	3
33	56	6
112	112	6
5	13	3
50	50	10
114	117	7
103	103	11
74	74	17
100	100	9
56	56	12
61	61	10
29	29	14
10	74	5
20	21	28
129	129	21
67	67	11
134	139	5
134	137	3
114	128	2
139	139	6
118	137	3
136	136	14
118	133	1
114	115	8
124	124	13
82	84	1
89	90	5
24	78	1
123	137	2
93	94	5
128	128	8
34	43	4
101	101	18
42	42	3
21	21	12
30	30	11
119	120	15
15	15	11
69	70	7
62	63	5
20	20	25
105	106	3
145	146	5
132	132	17
83	83	5
107	107	19
10	11	9
132	133	9
13	16	1
68	68	19
120	126	2
133	133	19
79	79	6
133	136	4
135	137	2
5	5	11
2	129	2
136	137	8
79	80	9
49	49	10
80	104	5
142	142	7
126	126	24
47	47	7
111	113	1
50	52	3
118	120	3
66	67	3
22	23	6
23	25	3
22	25	1
121	123	7
122	122	23
106	112	2
92	94	2
15	16	17
49	50	5
82	107	5
56	60	2
95	95	11
76	82	4
65	65	13
8	8	13
54	55	5
16	24	1
84	84	6
76	77	4
111	111	10
102	102	9
30	33	3
92	92	13
90	90	6
75	83	2
99	99	10
135	140	3
28	28	5
65	67	1
118	118	11
126	142	5
1	1	13
61	62	3
93	95	3
82	103	4
143	144	7
91	93	2
76	83	4
2	3	6
72	84	3
139	140	11
104	104	10
94	98	1
80	80	13
39	39	10
16	17	1
73	74	2
58	61	5
115	115	11
114	114	9
58	59	3
66	66	9
18	18	5
17	56	3
50	51	6
33	34	3
60	61	5
94	95	8
138	139	6
88	89	4
131	140	1
24	25	9
125	125	15
92	93	7
3	4	8
36	51	4
77	77	12
64	64	10
91	91	16
35	43	3
108	109	4
53	54	1
96	97	3
4	4	12
2	113	1
73	73	7
34	37	2
87	90	8
14	15	5
23	24	6
74	77	4
96	111	2
116	116	4
51	52	3
109	110	3
16	16	8
22	22	14
97	98	7
78	105	8
9	10	11
93	93	10
140	141	3
53	53	14
77	79	4
57	61	6
131	131	19
21	25	3
134	135	8
18	19	4
2	130	1
76	76	2
71	71	7
40	52	2
38	56	1
57	57	12
18	20	5
59	59	12
87	87	8
80	107	5
19	22	1
62	62	7
134	141	3
5	6	9
133	135	7
78	79	3
135	135	12
138	140	5
3	3	11
136	138	12
19	27	2
2	4	3
119	128	3
136	139	8
122	123	4
17	18	4
110	111	5
21	22	5
80	81	3
96	118	1
100	102	6
18	21	1
121	122	4
95	96	7
112	114	2
120	131	4
49	51	3
20	24	1
103	122	1
51	51	10
145	145	3
37	38	2
134	136	2
111	114	3
41	41	15
47	88	4
24	24	12
67	68	7
56	58	1
132	137	9
26	26	6
121	131	3
1	2	1
130	130	9
36	36	9
108	111	9
46	46	2
115	117	4
117	118	7
14	18	6
134	143	2
0	23	1
29	96	2
69	69	17
88	95	2
2	128	1
75	77	2
26	52	1
92	96	1
87	88	3
32	32	10
11	21	1
123	123	12
118	131	1
111	112	2
68	69	4
52	54	5
127	130	5
34	34	9
75	76	6
126	127	10
124	131	2
125	128	2
35	35	5
146	146	4
77	105	2
107	120	8
20	25	1
114	121	2
101	103	4
127	143	3
102	103	15
99	109	5
112	115	5
65	118	2
142	144	7
120	123	1
128	144	3
2	6	1
40	41	2
95	98	2
19	21	2
29	32	1
83	85	3
62	78	1
78	78	10
51	55	1
56	59	3
70	71	8
89	92	3
101	107	2
73	91	3
11	11	7
114	118	3
81	103	2
89	91	2
8	9	3
9	53	4
86	87	6
47	49	4
130	131	1
73	84	5
101	102	4
114	122	3
2	90	3
99	100	10
32	96	2
37	42	1
12	12	1
94	94	2
6	6	4
82	83	4
91	92	2
89	95	1
27	28	2
55	59	2
47	51	1
42	43	3
81	82	6
47	50	4
31	56	3
116	121	2
42	56	2
109	122	1
70	85	1
36	38	3
141	142	4
110	113	2
78	104	2
99	106	2
121	137	1
4	13	1
124	143	1
20	26	2
9	11	1
32	36	1
136	140	2
88	102	3
88	90	1
53	55	3
88	91	1
137	140	2
34	39	2
107	108	12
6	11	1
41	47	2
133	137	2
64	71	2
17	21	2
17	23	1
15	22	2
137	139	4
73	75	3
9	9	10
142	143	1
35	36	3
122	124	4
105	107	2
100	101	3
126	133	3
131	138	4
131	139	3
79	81	1
40	42	3
19	58	2
15	57	1
66	71	2
52	53	3
65	78	2
93	121	3
41	43	1
84	85	2
112	113	6
4	10	2
37	39	2
26	27	3
71	72	3
30	39	2
106	108	3
49	52	4
13	15	3
17	17	9
38	38	3
19	81	2
87	89	2
29	38	2
51	53	1
9	115	2
63	65	1
55	129	2
50	53	1
34	35	2
31	34	4
114	116	5
123	128	2
82	85	2
36	39	3
20	34	1
12	16	2
128	130	2
110	127	3
53	56	1
119	139	3
131	133	2
123	131	1
123	124	2
39	40	4
104	106	1
57	60	2
119	137	3
86	86	4
92	121	2
90	94	1
126	130	2
14	24	2
59	60	3
76	79	3
29	30	4
15	58	1
15	23	1
118	144	2
30	32	3
117	144	1
127	142	1
43	43	3
48	49	2
83	86	1
92	98	1
52	85	2
68	77	3
89	89	6
17	66	4
69	72	2
125	127	3
82	105	2
136	141	3
81	83	1
108	121	3
43	47	1
137	138	2
39	50	1
62	81	1
116	135	1
60	62	3
131	134	1
96	112	2
27	32	1
112	122	1
132	134	2
32	34	4
86	89	1
62	65	1
0	1	4
27	29	2
75	78	1
37	57	1
61	65	2
74	86	2
70	72	2
124	125	1
65	77	1
73	85	1
102	105	1
91	95	3
39	43	2
101	104	1
125	143	1
31	33	1
129	133	1
35	37	1
72	78	1
2	11	1
106	122	1
119	144	2
59	62	1
67	74	1
99	128	2
140	142	1
15	68	2
92	95	1
79	90	1
41	42	1
14	80	1
68	82	1
124	126	1
87	102	2
54	56	1
85	102	1
54	68	1
83	84	1
85	86	2
6	9	1
68	70	1
98	99	1
89	130	1
119	132	1
98	120	1
3	9	1
66	68	1
125	126	2
96	135	1
133	141	1
83	141	2
14	16	1
32	33	1
59	61	1
25	33	1
18	60	1
110	112	1
82	102	1
135	136	1
121	138	1
75	99	1
18	26	2
8	66	1
74	75	1
49	53	1
1	4	1
134	140	1
68	71	1
30	31	1
117	120	2
8	101	1
133	138	1
9	71	1
24	144	2
112	123	1
55	64	1
20	80	1
20	27	1
