2	2	12
94	94	6
110	110	25
122	124	5
16	16	13
41	41	22
15	15	15
40	40	9
161	164	3
18	18	14
38	40	1
113	143	3
132	146	2
134	134	20
79	87	1
13	13	20
24	26	2
67	69	5
6	6	13
154	154	7
144	145	5
7	8	6
17	17	15
167	168	6
82	82	5
159	159	14
106	106	5
111	161	1
118	118	9
136	137	5
165	165	6
5	5	9
148	148	19
141	141	12
14	14	9
109	109	14
12	12	12
137	139	2
22	22	17
8	8	19
119	119	5
78	78	8
76	76	11
84	84	8
26	26	11
130	130	9
112	112	18
50	61	2
119	123	6
158	159	7
28	28	14
132	151	1
52	52	11
45	45	8
120	122	1
167	167	9
20	22	1
55	56	12
129	129	14
74	75	3
92	93	1
70	70	10
33	33	12
113	113	16
63	64	14
135	135	12
34	34	12
76	77	5
72	72	3
36	36	14
149	149	7
128	128	4
62	63	7
53	53	11
54	54	23
39	39	11
38	38	3
143	144	4
41	111	4
127	128	8
0	0	9
138	138	3
20	20	17
74	74	3
104	105	12
141	142	2
122	122	8
23	23	6
86	86	4
152	153	1
88	89	4
159	160	4
11	13	2
74	76	5
7	7	17
139	140	12
143	145	1
26	109	2
65	65	11
42	42	24
63	63	11
142	142	11
9	11	1
120	120	7
137	137	8
96	97	3
147	147	16
101	101	3
20	21	10
21	21	4
51	51	2
152	168	2
11	11	8
113	114	5
49	50	3
150	150	8
102	102	5
111	111	22
107	107	3
9	10	10
21	23	2
37	37	21
108	108	16
69	69	7
133	133	6
37	111	3
54	56	7
46	46	8
154	155	4
3	3	23
126	126	7
42	43	6
79	79	7
136	136	11
109	129	3
81	81	5
43	43	14
26	27	5
156	156	8
129	137	4
3	11	1
127	127	8
87	87	9
153	153	12
35	36	3
18	19	3
166	166	7
116	120	5
139	139	14
47	47	7
123	123	7
151	152	1
9	9	15
47	107	2
132	132	12
49	84	4
56	56	6
112	142	2
12	13	1
134	135	3
4	4	5
124	125	7
162	164	3
131	131	10
132	138	6
130	131	6
100	100	3
64	71	3
143	143	10
24	24	14
117	118	5
19	19	18
156	159	1
1	2	11
132	145	4
42	44	6
68	69	3
10	10	19
132	133	1
77	77	3
128	137	3
44	44	11
43	45	1
103	103	9
40	50	2
91	93	1
130	136	3
39	40	8
1	16	8
40	41	4
49	58	2
43	55	2
35	35	19
37	38	4
165	166	3
99	99	8
27	27	6
115	151	2
163	165	1
48	86	3
104	106	6
110	111	4
83	83	3
140	140	3
139	142	6
131	146	2
107	108	4
52	53	7
94	95	3
126	130	2
139	141	12
53	54	7
113	115	1
111	112	10
54	55	7
23	24	6
4	24	4
81	106	2
132	144	2
148	149	10
34	36	2
16	17	6
8	10	3
5	6	4
119	120	3
5	16	9
64	65	3
168	168	2
53	56	6
73	76	2
129	140	3
65	66	3
161	161	6
36	37	5
8	11	2
55	55	6
93	97	3
52	55	2
164	165	5
93	94	1
45	63	2
157	158	4
116	116	9
73	73	4
126	127	7
122	157	2
101	102	5
4	7	3
98	100	2
133	138	1
80	82	5
1	1	7
4	8	7
50	51	2
129	130	6
0	2	4
127	165	3
58	62	2
164	164	1
81	83	2
48	48	8
25	25	12
85	86	1
129	146	2
71	72	1
2	3	4
158	158	13
36	38	3
48	54	3
140	141	5
71	71	4
0	1	3
36	160	1
3	4	6
91	91	1
115	116	8
160	160	1
79	80	2
97	99	2
121	121	3
34	35	3
124	124	10
117	117	7
39	46	1
38	39	3
95	98	1
134	160	3
133	140	1
122	143	2
103	104	1
147	148	4
145	145	3
64	64	2
152	152	4
120	121	3
84	93	1
124	159	2
131	132	1
53	55	3
127	131	1
86	87	3
72	73	2
66	66	2
18	24	1
126	142	2
80	87	1
44	45	1
163	163	5
135	136	4
112	114	1
58	58	1
95	96	2
146	146	4
146	149	1
160	162	1
103	105	2
114	116	4
88	105	3
151	160	1
14	23	3
82	83	2
93	93	1
131	134	3
114	120	1
85	85	3
113	127	3
130	140	4
105	106	2
84	85	3
49	49	1
142	143	2
144	144	4
89	89	3
125	126	1
74	109	1
97	100	2
100	101	3
37	108	2
39	41	3
112	144	3
71	77	3
139	143	1
7	15	1
8	12	1
155	166	1
159	161	1
24	25	2
127	129	1
19	20	1
39	47	2
13	19	2
90	90	3
17	22	2
70	71	5
41	43	2
81	82	2
37	109	1
158	165	1
46	47	1
127	154	2
57	62	1
11	12	2
25	114	2
43	44	1
133	135	3
128	130	2
70	74	1
130	133	2
130	137	1
152	155	1
111	114	2
25	139	1
157	157	2
168	170	1
108	109	1
73	75	1
6	17	2
4	9	2
166	167	2
75	75	1
82	106	3
36	109	1
93	95	1
105	105	3
70	107	1
16	18	1
80	81	2
121	157	1
128	151	1
121	122	1
44	75	1
21	22	1
165	167	1
152	170	1
125	125	1
146	147	1
5	13	2
170	170	2
45	74	1
5	21	1
146	153	1
52	79	1
162	163	1
116	117	1
138	139	1
68	68	1
151	151	1
122	127	1
22	23	1
151	169	1
151	158	1
113	144	1
152	166	1
