236	236	17
117	118	9
49	59	3
63	63	32
182	183	3
177	177	10
177	178	12
77	77	5
75	75	14
119	119	5
80	82	1
23	23	8
161	161	10
76	77	12
138	138	14
97	97	11
64	64	23
46	46	10
69	69	23
242	242	6
179	207	4
118	120	4
61	62	4
128	128	13
193	195	2
26	27	7
114	118	1
88	200	3
164	164	10
14	21	3
31	31	12
158	159	5
179	179	3
156	156	6
181	183	2
162	163	3
127	127	8
36	36	7
72	73	15
21	21	13
182	184	3
33	33	14
209	209	8
44	45	9
96	99	5
57	57	13
211	211	12
24	24	11
70	70	22
118	118	8
0	6	1
47	48	3
178	225	2
200	200	5
101	101	11
59	59	13
125	127	3
4	4	15
199	199	11
162	190	5
190	191	9
191	191	12
102	103	4
99	99	8
109	109	10
139	139	9
142	143	2
42	42	6
60	61	2
193	194	7
82	115	2
161	162	4
19	21	5
82	142	1
12	16	9
103	104	9
175	180	5
10	170	3
12	13	3
219	219	6
223	223	12
231	231	8
39	232	1
25	25	14
217	217	13
181	181	11
17	17	6
49	50	3
34	35	2
212	212	9
48	48	5
230	230	9
123	124	1
45	45	14
46	47	1
189	192	1
127	128	7
220	220	7
1	8	2
74	74	13
158	158	10
74	75	3
226	227	8
10	10	7
83	84	6
68	68	15
48	84	1
39	39	10
175	175	7
134	134	8
41	42	4
14	14	10
215	215	10
57	58	1
146	157	3
104	106	1
75	77	3
75	79	6
66	66	20
206	206	6
50	79	3
43	43	16
25	174	3
16	16	15
49	52	2
163	166	3
55	55	14
2	77	3
160	160	18
71	71	9
114	114	5
189	189	12
111	111	3
239	239	6
227	227	3
39	40	2
193	221	3
225	225	5
73	73	6
30	31	6
210	210	9
9	24	3
52	85	1
52	53	15
31	32	6
205	206	3
38	38	13
32	33	5
197	197	8
139	140	5
2	8	5
62	64	1
222	222	12
81	82	4
1	29	6
154	154	10
62	62	9
7	7	18
141	142	3
229	229	14
47	47	9
81	83	3
50	51	5
198	198	17
163	163	9
60	60	8
102	102	19
83	83	10
38	39	1
17	92	2
236	238	1
20	20	14
66	67	9
103	105	9
123	126	2
158	236	1
201	202	9
182	189	2
107	107	8
21	22	6
96	102	3
184	185	4
129	129	2
140	141	8
215	216	6
217	218	12
13	13	6
217	221	2
40	185	4
115	115	9
194	195	2
133	133	8
0	0	7
150	153	5
70	73	6
104	104	12
214	214	11
31	33	7
0	2	4
123	125	3
155	155	9
5	6	3
82	102	1
232	234	3
28	28	14
26	26	8
35	35	5
30	30	16
201	201	16
89	89	4
61	67	2
23	24	6
86	86	14
233	233	10
218	220	2
178	178	12
85	85	10
56	57	3
192	193	1
14	16	1
95	95	2
3	8	3
121	122	2
78	78	8
84	85	8
183	186	2
170	171	4
221	221	13
27	27	10
224	224	9
168	206	1
32	106	2
163	165	3
22	23	1
107	108	4
82	214	6
40	41	3
113	113	13
124	124	7
164	192	2
15	16	6
7	153	7
190	196	1
18	18	6
194	194	4
121	127	4
46	48	2
220	222	7
54	54	7
81	102	2
52	52	11
49	60	3
12	21	1
148	169	1
11	11	12
37	37	13
177	231	1
213	214	3
188	188	6
45	46	3
232	232	8
119	120	7
117	117	9
51	52	8
14	15	6
174	183	2
111	112	1
19	19	12
98	98	4
53	53	13
137	137	16
123	123	5
178	206	2
223	224	6
139	142	5
68	69	3
79	100	1
67	139	3
31	41	5
33	41	3
186	186	1
15	23	1
84	84	7
153	154	3
170	170	4
5	30	3
240	240	6
105	122	1
222	223	3
137	147	4
206	211	3
50	77	1
229	230	5
175	184	2
14	17	7
81	81	8
150	152	5
136	233	1
88	110	1
5	5	11
46	122	2
75	173	1
51	58	1
122	122	10
203	203	10
69	71	4
166	166	7
202	202	9
205	205	5
180	184	4
56	56	5
152	154	5
26	152	1
176	176	5
27	28	4
232	233	1
6	6	10
29	29	6
82	83	8
1	1	4
49	49	14
241	241	4
65	68	4
197	198	6
237	237	10
235	235	4
210	212	3
106	108	4
40	40	12
76	78	1
51	78	3
131	131	3
213	213	3
196	196	5
115	117	3
180	183	1
7	106	3
58	59	4
174	174	13
183	196	6
100	100	9
212	213	5
58	58	16
135	135	7
90	104	1
146	146	6
201	203	2
162	162	12
99	100	11
182	182	8
9	9	7
67	71	2
126	126	13
214	217	1
9	12	4
77	78	3
172	174	1
208	209	1
22	22	19
116	116	2
160	161	1
159	159	7
50	50	8
54	84	3
187	187	5
216	217	1
71	72	4
10	67	1
238	238	2
150	151	4
76	76	10
4	5	4
178	179	6
198	199	5
34	34	7
198	200	2
2	29	1
132	132	1
44	44	4
136	141	3
47	85	1
15	15	11
133	156	1
26	135	1
80	84	8
157	157	7
151	152	3
120	130	2
26	242	2
68	70	1
173	174	8
82	82	3
234	234	2
168	205	2
220	221	7
25	60	1
159	160	2
152	169	1
113	114	4
147	147	6
67	67	15
120	120	8
8	8	5
112	112	3
228	229	5
4	7	2
1	22	5
67	98	2
149	169	1
208	213	2
149	149	4
88	88	11
152	152	6
149	152	2
121	121	8
194	198	3
106	106	5
192	192	10
6	29	1
41	129	3
151	151	3
32	32	14
124	125	8
26	241	3
89	90	1
193	193	4
125	129	2
183	183	3
184	189	1
19	88	3
103	103	11
167	168	2
36	230	5
208	211	1
194	196	3
17	109	2
83	214	1
47	49	1
208	208	7
72	72	15
43	44	3
178	228	2
148	153	3
32	38	1
146	148	1
141	141	4
3	3	7
145	147	4
165	193	2
81	138	3
79	79	6
143	143	10
165	190	2
144	145	3
135	160	3
46	54	6
65	65	6
14	37	1
206	209	3
190	190	4
51	54	4
165	165	6
6	8	3
51	79	2
1	3	1
29	30	6
172	172	10
230	232	3
12	12	8
144	156	1
195	195	7
37	38	6
211	212	4
95	127	2
55	56	2
226	226	7
95	128	3
211	213	3
95	97	2
183	184	3
116	118	2
208	212	1
73	74	2
61	61	13
144	144	6
22	24	5
115	116	5
176	177	5
140	140	3
28	29	4
146	147	3
204	204	6
47	56	1
188	189	5
34	40	3
41	41	6
176	178	2
132	134	1
18	88	2
33	76	1
207	207	5
192	221	2
147	149	3
184	186	6
39	41	2
145	146	2
24	26	1
169	169	9
168	168	9
236	237	4
62	65	2
120	127	1
149	150	6
153	153	4
135	235	2
79	98	1
31	35	3
40	43	3
14	39	6
101	103	4
163	168	3
80	80	8
33	34	1
217	223	1
100	101	3
10	239	2
105	105	6
216	216	2
177	230	1
12	20	3
20	37	2
125	125	6
39	148	2
142	142	7
71	225	1
187	188	4
24	25	2
146	149	2
24	39	5
136	143	1
180	180	4
36	109	1
11	12	4
199	200	3
51	51	3
120	126	3
155	156	3
65	71	3
188	195	3
96	97	4
59	60	6
207	208	5
228	228	3
171	172	2
167	167	1
70	71	3
7	8	3
63	65	5
179	180	2
167	205	1
218	218	5
172	173	1
77	226	1
18	87	1
179	206	2
141	145	1
185	185	6
18	21	2
145	145	4
143	145	2
55	62	1
25	27	1
45	160	2
19	20	4
0	8	1
169	171	3
35	36	3
79	213	2
108	108	4
218	219	1
79	84	2
108	109	2
135	233	2
174	175	4
133	135	1
200	201	1
216	220	1
164	193	1
171	206	2
63	64	3
219	220	1
77	228	1
81	201	1
234	235	1
37	39	1
237	238	3
15	18	1
64	69	1
53	54	3
9	238	2
27	29	1
75	98	1
107	115	1
210	216	1
82	202	1
100	104	1
219	224	2
20	21	3
148	151	2
150	150	8
136	136	3
143	144	4
140	142	5
112	113	2
162	165	1
49	75	1
206	222	1
66	68	4
23	76	2
52	54	2
34	36	2
239	240	3
64	65	1
185	186	5
23	38	4
224	225	2
74	78	2
88	105	1
95	120	1
189	190	5
18	108	1
62	63	3
17	19	2
116	117	3
43	45	2
28	32	1
32	231	2
131	234	1
57	60	1
214	215	2
147	148	2
122	129	1
81	143	1
31	106	1
136	138	2
13	19	3
24	36	3
164	165	4
64	241	1
58	76	3
235	238	1
196	197	1
79	80	4
70	72	1
46	76	1
203	221	1
39	228	2
191	192	3
115	119	1
14	83	1
18	19	1
78	79	1
16	17	2
221	222	6
152	153	3
13	16	1
54	55	1
88	89	1
30	129	1
187	195	4
173	173	2
171	171	1
35	72	1
75	80	1
50	56	3
179	209	1
169	197	1
15	17	1
80	83	1
230	231	6
96	96	2
49	80	1
74	227	1
170	172	3
67	68	3
37	229	1
202	203	2
133	159	2
64	240	3
3	4	2
38	231	1
13	14	1
86	201	1
123	129	2
55	229	3
224	226	5
76	229	5
81	139	1
42	175	2
168	171	1
5	7	2
149	153	2
178	227	1
57	65	1
50	75	3
206	213	1
96	128	2
148	150	2
106	107	1
24	32	1
104	105	1
184	184	3
206	207	2
50	54	1
68	71	3
237	240	1
116	119	2
33	40	2
149	154	3
125	126	2
135	156	1
118	119	3
29	42	3
163	194	2
54	73	1
20	23	1
48	98	1
88	199	1
128	130	1
17	21	1
49	84	1
33	36	1
86	128	1
33	37	3
195	196	3
113	128	1
56	60	1
218	221	1
54	97	1
33	228	1
130	130	7
71	73	1
129	130	2
131	132	1
2	2	3
107	126	2
69	72	1
145	155	1
233	235	1
132	133	1
9	10	5
33	106	1
160	162	2
141	143	1
204	216	1
40	42	2
168	179	1
86	87	1
50	78	1
37	42	1
65	66	2
25	175	1
17	18	2
118	164	1
50	53	2
12	17	1
213	215	1
42	62	1
14	38	1
148	148	2
97	120	1
11	20	1
139	156	1
114	115	1
186	187	1
56	98	1
9	113	1
78	98	2
42	47	1
100	103	1
180	182	1
56	62	1
181	182	1
138	139	1
231	233	1
115	118	1
2	31	1
85	128	1
169	205	1
57	62	1
182	188	2
66	78	1
101	102	2
191	197	1
55	202	1
217	222	1
21	78	1
137	153	1
170	181	1
138	151	3
36	129	2
48	82	1
51	80	1
30	33	1
203	204	1
158	161	1
191	223	1
169	206	1
49	78	1
63	68	1
126	129	1
206	221	1
151	170	2
144	147	1
18	77	1
95	102	1
157	234	1
124	127	2
122	123	1
145	148	1
210	211	1
120	122	1
134	160	1
43	48	1
1	235	1
157	158	1
166	169	1
98	104	2
36	77	1
80	81	1
25	32	1
54	71	1
76	230	1
186	191	1
26	43	1
175	176	1
23	60	1
108	126	1
61	73	1
43	191	1
1	2	1
15	86	1
168	169	1
165	166	1
156	157	1
207	209	1
195	202	1
133	134	1
