5	5	8
80	80	22
24	64	2
89	89	5
135	135	13
12	17	2
156	158	2
156	157	7
87	89	3
11	38	4
28	28	31
129	129	13
94	96	3
7	7	7
95	95	25
114	114	5
32	64	4
12	12	3
112	112	16
111	112	4
40	40	9
69	70	6
16	16	11
73	73	7
22	22	14
117	117	20
20	22	3
54	54	12
90	90	24
96	97	2
78	81	3
82	83	1
57	70	4
106	106	6
31	31	10
149	149	12
84	87	2
7	11	1
97	97	5
103	105	4
138	150	2
38	38	9
73	74	3
29	30	3
44	44	17
11	48	1
45	46	6
138	138	6
56	56	10
41	41	10
136	136	23
18	30	1
95	96	6
18	19	9
157	157	6
17	17	12
127	127	9
133	138	1
96	96	9
158	158	10
104	104	11
112	114	2
34	34	6
103	103	21
108	108	10
90	91	14
148	148	8
109	109	13
110	110	12
15	15	11
21	22	1
8	9	4
77	77	14
24	24	11
94	94	6
104	105	7
16	46	3
64	65	1
105	106	4
47	47	6
142	148	4
79	80	2
137	137	12
71	71	7
75	75	10
37	37	8
13	14	4
34	35	5
78	78	6
91	91	11
151	151	13
27	27	10
148	156	2
120	120	11
152	154	2
113	113	6
32	33	1
137	138	5
83	83	4
156	156	11
51	51	20
126	127	4
84	84	5
29	31	4
148	149	2
143	143	8
66	67	2
130	130	12
118	118	5
147	147	9
34	41	2
133	136	2
41	55	3
44	45	2
122	122	11
98	99	2
39	141	2
150	150	21
51	52	5
115	116	7
32	32	6
42	42	9
107	108	5
32	38	2
26	26	10
125	126	2
50	51	3
37	38	2
115	115	8
135	136	8
140	140	2
92	92	9
0	1	3
128	130	2
4	4	11
124	155	4
28	35	5
111	111	5
92	95	3
23	23	5
66	66	12
46	46	30
139	139	7
31	32	7
124	124	9
107	107	8
39	39	8
19	22	2
40	86	2
70	71	4
93	93	6
152	152	9
119	119	9
133	152	2
39	40	5
29	29	7
12	16	3
135	137	2
101	104	4
128	149	5
87	87	8
81	82	4
127	137	1
106	107	5
15	16	4
155	155	9
53	55	4
16	18	1
32	52	2
68	69	1
128	129	3
138	143	2
48	48	7
37	39	2
30	32	1
43	43	5
63	63	11
41	50	2
112	113	2
33	33	10
41	42	2
36	36	9
134	134	11
131	131	10
65	65	5
100	100	7
8	8	9
18	23	3
41	94	2
45	45	7
146	147	3
12	66	1
102	103	7
86	86	5
76	96	3
2	43	2
8	65	1
123	123	12
9	9	10
103	106	2
113	115	1
33	35	1
25	27	2
80	93	2
106	111	2
108	122	2
73	81	1
127	153	3
130	158	1
88	88	14
144	146	2
9	10	6
101	101	7
76	77	2
90	96	1
127	152	2
77	79	1
139	140	9
135	139	2
116	116	8
157	158	3
28	36	3
14	15	2
154	156	2
144	145	2
22	27	3
34	36	1
18	22	2
50	50	5
143	144	2
18	46	2
131	132	5
53	53	2
149	150	3
141	141	4
8	81	1
35	35	4
48	70	3
62	62	2
13	13	13
49	49	10
41	44	3
26	46	1
16	50	3
81	81	9
54	55	5
154	155	4
3	5	3
82	88	5
155	156	4
7	8	1
55	56	5
50	54	1
150	151	3
98	98	2
158	159	2
118	119	3
30	30	20
48	50	3
53	54	1
13	37	1
32	47	3
81	85	2
125	145	1
149	155	1
20	20	4
86	87	4
1	1	7
18	18	2
83	84	1
121	121	12
25	25	6
39	54	1
39	42	4
49	56	3
11	12	4
105	105	2
133	133	5
130	131	4
42	43	4
118	122	3
28	30	5
120	126	1
36	48	1
30	31	7
14	68	1
107	120	3
82	82	9
129	149	1
8	29	2
3	3	10
132	132	3
138	153	1
144	144	13
93	94	7
102	102	11
22	23	3
22	56	2
79	79	11
52	54	1
10	10	4
64	64	4
3	4	1
70	70	2
145	146	5
40	41	9
35	36	1
103	104	3
73	82	1
132	133	6
140	153	1
104	108	1
28	54	3
117	125	1
20	21	1
132	155	2
39	41	4
128	128	4
2	24	1
67	67	8
99	99	5
80	81	4
21	21	8
6	6	5
2	113	1
108	111	3
94	99	2
134	152	1
11	11	6
77	81	3
79	92	2
103	109	2
123	125	2
83	87	4
145	145	4
121	122	4
82	92	2
8	33	1
49	50	1
153	153	3
54	67	2
16	48	1
152	153	2
19	19	1
127	128	1
76	76	4
107	122	1
2	3	1
87	110	1
14	14	3
81	84	6
85	85	2
125	127	3
85	86	3
82	91	1
131	133	3
91	92	4
31	56	1
47	48	1
127	151	1
0	0	4
113	118	1
91	105	1
119	120	1
127	144	1
29	54	3
46	72	1
79	96	1
90	103	2
92	94	1
49	54	3
124	127	1
69	69	1
93	99	1
33	34	6
36	37	1
17	77	2
145	148	1
84	85	2
2	2	1
136	152	1
128	131	2
80	92	2
47	103	1
72	73	2
47	51	5
147	148	2
134	139	1
18	88	2
146	146	2
134	137	1
142	142	4
10	63	1
44	46	1
11	16	1
23	25	2
17	18	7
92	99	1
153	154	1
86	89	2
102	104	1
87	92	1
55	55	4
30	41	1
142	143	4
68	70	1
124	125	2
75	99	1
105	111	1
28	37	2
18	48	1
1	99	1
80	82	1
132	138	1
28	29	1
1	2	1
126	126	1
39	43	3
27	28	3
38	39	1
39	55	2
84	94	2
25	26	2
6	7	1
154	154	4
100	111	1
97	98	3
15	88	1
139	142	1
87	96	1
108	109	1
24	25	1
99	110	1
48	49	3
8	11	1
134	135	1
136	137	1
116	147	1
28	53	1
32	62	1
12	65	1
99	106	1
72	99	1
4	5	2
28	34	1
12	36	1
145	147	3
73	98	1
51	61	1
40	55	1
116	117	1
52	53	1
38	41	1
9	21	1
26	28	1
116	119	1
75	77	1
155	157	2
40	50	1
99	100	1
16	19	1
136	138	1
107	111	1
137	148	1
151	152	1
78	79	1
46	47	1
9	31	1
