69	242	3
211	213	3
133	133	4
179	183	1
184	184	7
203	204	3
11	133	4
142	143	3
213	213	5
180	180	6
183	183	7
208	225	1
106	108	6
188	188	12
32	39	7
31	32	6
58	58	10
208	219	2
119	119	7
41	41	5
37	204	4
2	3	12
51	85	2
206	206	12
219	228	3
14	14	2
34	52	2
215	216	1
156	158	3
5	5	19
10	44	3
229	229	6
207	207	3
153	154	3
123	123	4
131	131	5
33	34	7
126	126	5
231	231	6
190	190	9
212	213	6
236	236	7
30	30	16
46	46	6
11	16	5
160	160	13
27	28	5
47	140	4
114	114	7
225	225	7
144	147	4
65	65	13
129	129	7
10	10	13
202	214	5
109	115	2
196	196	5
151	230	2
194	195	4
186	197	3
240	240	11
158	158	2
49	49	11
205	205	3
60	60	12
120	121	16
81	82	4
146	146	2
200	200	6
16	16	6
207	209	4
40	40	5
189	189	6
163	163	4
238	238	2
192	192	18
97	97	3
235	235	9
151	153	6
125	125	9
29	29	19
149	149	6
11	13	7
103	103	13
66	113	3
15	16	3
168	168	10
101	101	10
84	84	10
166	167	9
182	183	4
14	29	4
177	177	10
102	102	8
75	75	8
182	182	13
204	205	2
4	4	8
9	13	2
15	17	3
21	21	6
6	6	6
156	198	4
28	28	6
159	160	1
44	232	3
4	12	2
29	30	11
192	216	4
208	208	4
2	163	3
210	212	6
44	44	6
50	60	5
3	3	14
204	204	2
138	138	7
65	66	4
193	193	2
193	194	6
229	235	3
96	96	3
139	139	5
211	211	2
169	169	11
43	44	1
162	198	2
150	231	3
181	200	2
33	39	4
68	105	4
18	31	6
173	173	4
35	50	1
22	62	1
32	32	5
233	233	11
41	45	3
47	48	4
31	31	12
36	53	1
26	26	9
173	174	2
19	211	2
103	105	3
70	70	8
181	181	7
37	42	2
105	105	2
19	213	2
16	17	7
42	53	2
55	55	10
88	106	4
27	27	7
88	88	4
89	89	5
30	32	4
159	218	4
61	61	13
145	149	4
34	53	4
157	157	4
80	80	1
82	82	5
53	72	2
54	54	8
148	151	4
15	38	5
63	134	1
0	1	4
23	29	2
17	22	1
138	139	3
18	35	7
209	225	1
34	37	6
166	166	8
15	15	11
19	20	4
66	68	4
186	214	5
205	206	5
196	215	2
41	203	5
49	138	3
203	203	1
214	222	2
46	48	5
211	212	12
17	18	8
15	18	2
51	52	1
56	57	10
27	83	1
171	198	7
152	192	2
124	124	5
25	25	5
71	71	6
17	17	13
99	99	6
101	102	1
192	195	4
9	134	5
3	7	2
12	22	1
217	220	2
197	215	4
1	3	9
140	142	4
169	182	1
192	193	3
151	151	3
154	191	3
186	186	3
50	80	6
219	219	4
84	85	5
18	19	3
14	15	1
239	239	5
48	48	4
67	69	2
228	228	4
231	237	4
42	191	3
175	216	4
12	13	3
81	84	5
5	212	1
234	234	2
235	238	8
182	193	1
216	216	17
9	12	3
79	79	3
165	187	1
28	29	3
202	202	6
22	61	2
187	188	2
22	60	3
49	139	2
164	173	2
171	176	2
215	215	10
1	217	1
0	0	9
62	62	6
57	137	1
25	122	2
37	37	9
12	12	3
33	33	8
32	33	5
201	211	2
187	187	9
212	212	7
25	152	4
128	132	1
210	210	9
179	184	1
224	224	8
154	178	1
62	63	3
178	178	2
226	227	1
157	198	2
136	136	6
35	35	4
170	187	1
10	28	1
225	226	5
85	85	6
137	138	7
45	45	3
169	184	4
26	27	7
212	222	2
60	61	3
74	74	9
127	127	11
134	134	4
51	75	4
214	215	4
201	201	6
171	171	4
106	107	2
153	153	3
67	101	1
67	67	8
115	117	4
95	95	4
133	134	2
97	98	3
102	103	3
59	60	5
168	184	1
179	193	2
206	209	2
212	214	2
154	155	2
57	57	4
174	175	4
99	100	2
214	214	5
39	40	1
79	80	4
184	185	3
22	22	4
18	21	1
175	211	1
20	20	10
71	73	3
1	1	4
51	51	5
36	208	2
86	86	6
145	145	2
50	77	3
43	43	9
6	34	4
185	185	8
161	161	4
209	209	1
75	83	3
73	74	9
77	77	2
25	53	1
147	149	4
227	227	6
183	185	2
140	140	8
36	205	7
181	187	2
9	9	1
96	97	3
11	11	14
209	210	1
165	165	8
172	172	4
173	237	1
25	26	5
23	23	4
42	42	5
146	148	1
72	102	3
38	38	14
118	118	2
7	8	5
21	23	5
29	83	1
98	98	5
131	136	1
170	171	5
152	153	3
202	229	1
45	47	3
69	69	5
207	208	6
198	199	4
152	218	4
186	187	4
158	190	1
205	207	1
9	10	3
139	140	1
230	230	1
184	187	1
206	221	2
171	175	3
9	11	4
172	194	4
63	63	7
20	161	1
81	81	4
188	189	7
8	20	6
39	41	1
78	78	5
164	174	3
120	120	2
171	195	3
44	219	1
197	198	3
181	185	5
73	73	4
141	141	3
111	111	5
234	236	2
35	210	2
56	56	7
172	174	1
241	242	3
181	182	3
150	151	1
80	83	4
170	198	3
164	172	1
170	185	2
198	201	2
176	211	2
48	49	4
43	53	4
143	147	3
218	218	5
224	230	2
34	41	1
185	186	2
206	210	2
49	81	1
229	230	1
2	2	6
193	199	4
191	192	1
70	71	1
24	24	4
54	65	2
52	52	2
7	7	4
98	120	2
77	78	2
114	115	1
144	146	3
12	21	4
18	18	6
54	55	2
112	112	6
192	221	1
186	215	2
168	185	1
108	143	1
210	211	2
34	44	1
196	199	1
86	87	1
165	189	2
51	53	1
0	150	2
159	171	1
176	176	3
180	184	1
100	100	3
65	67	1
190	191	3
242	242	2
32	58	3
135	136	3
151	218	2
118	119	1
198	198	3
83	83	3
8	13	3
206	207	2
52	139	3
171	177	2
172	192	3
170	202	4
53	53	5
107	107	1
46	101	3
145	146	1
72	73	1
177	179	4
13	13	4
47	47	1
65	73	2
0	10	3
49	50	1
223	223	6
3	18	2
36	207	1
217	217	4
170	181	1
141	142	3
52	53	4
108	108	2
92	92	1
53	56	1
191	191	2
170	177	1
195	196	2
9	50	2
105	119	2
66	67	1
104	105	4
20	159	3
221	221	1
235	236	1
220	223	4
68	74	1
231	236	1
14	34	1
69	135	2
36	36	9
22	58	2
202	203	2
24	55	1
155	155	5
117	119	3
128	128	2
20	30	3
4	22	4
109	110	1
129	130	4
199	199	1
125	162	1
130	131	3
27	46	2
116	116	5
41	42	1
177	199	1
155	157	2
48	81	2
184	190	1
34	203	1
29	80	3
195	195	2
199	200	2
76	77	1
172	228	2
7	9	2
217	228	2
64	64	5
238	239	1
52	55	2
19	31	2
38	203	1
33	190	1
1	150	1
29	84	1
189	190	4
162	190	1
67	68	1
213	216	2
74	78	1
192	194	1
16	23	4
30	36	1
162	162	1
154	154	2
18	38	2
165	166	1
146	147	1
148	148	3
227	228	1
232	232	4
0	213	1
10	11	1
170	211	1
34	34	1
77	79	2
181	184	5
142	142	1
134	135	1
44	45	1
37	38	1
26	241	1
205	220	2
61	62	2
68	69	1
22	30	1
50	51	2
48	143	1
212	216	2
220	220	1
175	236	2
143	148	1
6	12	1
1	221	2
241	241	3
108	116	1
40	42	1
162	163	1
42	44	2
194	222	2
0	4	1
194	196	4
2	8	2
22	59	1
72	72	2
231	233	1
153	166	1
80	84	1
206	220	1
4	7	1
240	241	2
1	2	2
75	82	1
35	36	2
5	6	2
42	103	1
39	39	2
122	122	3
179	205	1
16	21	1
80	81	1
108	118	2
50	50	2
162	242	1
3	5	1
192	201	1
22	64	1
35	204	1
43	45	2
19	19	3
124	126	2
25	27	1
14	32	1
43	54	2
91	102	1
143	145	1
187	191	1
173	203	2
104	104	2
113	115	1
175	175	3
8	28	2
8	162	1
218	219	1
59	59	1
40	41	1
164	190	2
211	214	1
197	197	1
200	201	2
174	174	1
58	59	1
180	197	1
55	64	1
9	24	2
21	29	2
230	235	1
144	151	1
178	183	1
176	179	1
99	104	2
11	14	2
82	83	2
81	83	1
0	211	1
57	60	1
36	42	1
152	172	1
143	143	1
35	62	1
122	123	1
150	152	1
232	233	1
115	115	1
35	37	1
37	41	1
152	154	1
39	190	1
225	228	1
54	56	1
41	202	1
142	145	1
30	80	1
173	236	1
12	34	1
