33	33	31
148	150	2
41	41	29
138	139	3
4	4	16
118	149	1
90	90	4
35	35	16
42	42	14
5	5	21
123	123	8
160	161	1
140	140	9
108	108	5
132	143	5
143	145	4
15	16	6
60	124	1
116	156	3
0	35	4
57	60	2
14	35	1
14	14	27
129	133	5
107	107	5
148	148	8
169	169	9
131	131	8
84	93	3
157	157	2
169	170	5
166	167	3
59	59	8
164	165	2
89	91	2
4	6	9
164	166	2
102	126	2
2	3	9
84	84	4
127	127	13
33	34	8
95	96	1
174	174	19
0	34	2
46	46	4
10	11	6
77	77	9
91	91	15
21	21	11
18	24	4
96	96	6
96	97	3
118	118	8
18	18	8
19	19	8
17	17	10
31	31	11
5	125	2
119	119	10
15	15	15
9	9	20
45	45	10
142	154	5
88	88	8
89	90	3
135	136	2
139	139	7
30	30	18
16	17	8
58	59	2
99	99	7
24	37	3
61	61	8
97	97	5
125	125	7
26	28	8
38	38	22
95	168	1
75	75	5
25	25	12
99	128	4
161	161	7
172	172	15
60	60	2
78	78	8
64	65	4
107	110	4
161	162	4
146	146	5
91	92	5
9	36	2
117	147	1
60	61	7
19	21	4
117	155	2
74	137	3
73	73	8
49	53	1
3	10	1
28	29	8
59	105	1
109	109	14
135	135	13
27	38	2
86	89	3
8	9	10
30	42	1
168	169	5
128	128	6
84	85	3
27	28	13
110	141	7
14	173	2
120	120	2
112	112	7
82	82	3
100	100	5
37	38	1
4	42	7
70	73	3
44	44	14
123	124	4
94	126	2
157	159	6
22	22	15
5	6	13
1	1	12
19	20	5
2	30	8
101	112	2
75	76	8
12	19	4
36	37	4
71	71	15
62	97	2
28	30	5
105	131	1
90	91	3
36	36	24
44	177	2
13	13	26
83	83	8
43	45	3
113	113	4
88	89	8
145	150	2
28	28	16
10	10	17
77	135	1
18	19	6
6	6	21
92	92	5
149	149	13
72	72	10
11	11	14
7	122	1
81	82	5
60	106	2
124	124	9
32	111	2
26	36	2
75	116	3
102	103	2
174	178	1
90	93	1
26	26	11
94	137	5
167	167	10
95	95	11
103	107	1
156	159	2
94	94	4
43	44	4
94	101	1
156	156	11
61	78	1
105	106	5
4	7	2
16	42	2
152	160	4
81	81	11
13	19	2
132	132	10
2	43	1
16	16	23
131	132	3
139	140	4
106	120	1
62	128	2
76	76	10
53	54	5
127	154	1
88	91	2
16	21	4
130	171	1
42	43	2
12	13	12
79	79	12
28	37	4
87	88	4
80	81	3
56	56	3
17	19	1
39	39	7
8	8	10
121	123	6
86	99	2
158	174	4
7	8	5
147	148	6
141	145	2
108	151	2
6	7	9
154	154	3
15	63	2
9	11	6
24	24	7
43	43	13
141	141	13
106	106	13
3	3	7
150	170	5
27	27	18
3	32	1
11	21	2
72	85	3
63	66	2
81	164	1
23	23	20
144	145	5
179	179	7
15	35	5
29	137	3
77	78	10
114	115	2
24	27	4
34	34	7
40	41	7
12	16	2
50	50	3
176	176	9
39	40	3
168	168	3
2	2	11
86	86	3
84	105	5
97	98	7
73	109	2
32	33	8
107	126	2
124	137	2
22	42	2
19	82	2
158	159	3
26	29	1
2	22	1
9	13	2
11	15	9
87	89	2
114	165	1
27	29	9
138	138	5
133	133	3
104	105	4
32	32	25
20	20	3
126	140	2
107	108	1
25	37	2
62	62	4
117	148	3
12	12	17
25	29	3
130	130	8
11	13	7
64	64	7
79	80	2
66	66	11
147	157	3
57	57	9
18	21	1
136	136	2
26	30	5
162	162	5
5	18	2
177	177	3
101	120	1
67	67	5
23	27	3
129	130	2
45	152	5
158	158	5
74	74	5
23	28	3
9	29	2
13	15	4
170	171	1
157	158	4
144	144	7
62	63	3
170	170	5
55	57	2
76	77	1
155	155	3
2	12	2
132	136	1
33	35	8
170	178	3
22	23	6
65	66	3
7	7	10
128	130	3
151	178	3
40	40	11
1	12	3
4	19	3
171	171	3
74	100	2
94	99	2
144	168	2
3	43	3
126	130	1
133	140	3
131	158	3
150	150	3
35	36	2
153	153	3
93	93	2
25	26	5
75	147	4
137	137	4
163	166	3
118	120	2
11	22	2
103	103	3
173	174	5
53	53	4
154	155	3
94	102	2
99	136	6
10	41	3
16	31	1
134	134	8
130	133	1
147	153	5
172	174	3
121	122	3
10	14	3
29	29	8
109	130	3
122	124	3
151	151	6
91	94	3
63	64	6
160	162	1
21	24	1
116	116	7
96	166	1
0	1	2
59	60	5
87	87	5
51	162	4
6	40	2
76	78	1
115	115	3
44	45	3
73	74	1
167	171	1
162	163	3
55	55	4
65	65	2
13	31	1
54	54	4
0	74	4
160	165	1
163	163	8
46	52	1
166	166	5
25	27	3
15	27	1
21	44	3
6	30	6
113	115	2
7	9	2
127	130	3
124	127	3
11	16	5
18	20	5
145	146	3
159	160	1
163	164	1
52	52	3
173	173	6
0	0	10
22	26	1
31	67	3
16	32	1
105	128	2
13	14	6
159	167	1
159	159	6
170	177	1
29	30	4
67	68	1
71	72	2
29	31	3
110	110	3
115	135	1
38	39	3
18	34	3
20	21	3
152	152	6
142	142	4
143	143	3
0	32	2
25	115	2
56	57	2
145	145	7
74	75	1
38	170	5
162	164	3
92	136	4
132	133	1
144	160	2
24	25	2
126	126	10
7	10	3
7	22	1
68	68	9
32	43	5
102	112	2
11	14	3
82	85	3
141	142	3
171	172	2
73	110	1
102	111	2
128	129	4
57	61	3
131	134	1
80	80	2
21	23	3
117	117	6
154	158	1
130	146	2
164	164	5
12	41	3
85	106	2
80	101	1
30	31	7
4	8	1
57	172	1
72	73	1
67	76	2
4	38	3
105	126	1
57	58	6
29	39	2
34	37	3
110	111	5
158	170	1
36	170	2
55	58	1
10	15	1
114	116	1
97	141	3
4	5	3
6	8	2
27	30	2
153	154	2
131	136	4
6	49	2
19	22	3
129	157	1
16	18	2
174	179	1
56	59	3
31	33	2
75	161	2
5	7	2
2	4	2
138	140	2
111	112	2
100	120	3
61	107	1
156	157	3
14	36	1
14	32	2
177	178	5
139	167	1
108	131	3
147	151	1
24	26	2
37	37	4
10	12	1
104	130	1
12	27	2
23	26	1
137	138	2
51	93	1
74	77	1
28	41	1
17	36	3
143	144	4
17	130	1
136	137	3
85	85	3
3	8	2
3	5	1
7	17	3
19	159	1
26	27	3
23	39	3
119	168	3
73	75	5
174	180	1
114	114	4
51	51	3
8	15	4
165	165	8
0	11	1
31	32	4
151	152	1
58	58	2
114	158	3
11	20	1
32	35	2
113	114	1
160	160	2
7	31	2
172	173	4
37	40	1
11	32	2
112	113	3
107	111	2
30	33	1
100	136	1
22	34	1
147	155	2
78	86	4
160	174	3
9	33	1
1	7	1
127	128	5
7	36	1
96	136	1
118	154	1
102	106	2
98	104	2
1	25	1
12	24	2
116	120	1
101	101	3
21	31	2
20	22	2
16	37	2
99	113	2
180	180	1
50	61	1
4	31	3
102	134	1
104	104	1
118	121	1
90	94	5
6	10	1
175	175	1
51	79	3
3	12	1
41	45	1
43	80	1
14	20	2
116	131	1
73	76	1
103	111	2
78	79	2
14	15	3
99	103	1
54	104	2
165	166	3
3	7	2
7	62	1
63	63	1
111	111	4
70	127	1
104	106	2
1	2	1
20	23	1
49	140	1
89	89	2
68	85	1
6	37	1
93	102	1
45	180	1
14	16	2
24	31	2
134	135	2
9	21	1
67	72	1
44	46	1
169	172	1
9	34	1
8	10	1
92	95	1
119	120	1
116	117	1
75	99	1
72	134	1
151	164	1
6	29	2
105	105	2
158	160	1
2	10	1
36	41	2
159	162	1
61	65	1
10	45	2
124	125	1
11	12	1
45	49	1
82	146	1
119	121	1
50	51	1
98	98	1
92	93	1
17	29	3
33	51	1
122	125	1
105	108	1
31	40	1
97	100	1
21	25	1
12	22	1
58	60	1
35	37	1
165	167	1
102	102	1
71	75	2
3	4	1
57	59	1
16	66	1
100	101	1
38	41	1
80	82	1
173	176	1
113	151	1
71	73	2
62	66	1
4	9	1
56	89	1
142	164	1
133	145	1
155	157	1
118	119	1
49	79	1
41	42	1
101	113	1
121	154	1
94	96	1
2	42	1
22	38	1
24	136	1
83	85	1
13	18	1
2	31	1
36	39	1
