89	90	6
114	115	8
123	123	22
106	106	13
136	136	19
11	11	2
78	78	9
17	25	4
17	17	12
1	1	13
137	137	8
117	117	14
27	29	16
37	80	2
34	34	10
129	129	8
119	119	15
102	102	16
104	105	5
93	93	7
134	135	4
115	116	7
121	121	9
98	98	8
126	133	2
133	133	26
119	120	4
34	35	5
73	74	2
127	128	8
19	19	10
101	101	8
118	119	13
36	36	4
26	26	12
16	16	12
122	123	8
30	30	10
71	71	14
76	76	6
134	134	20
88	89	4
86	87	4
13	14	5
10	10	8
4	4	7
34	37	1
18	18	16
89	89	12
94	127	2
104	104	1
88	88	9
7	8	2
123	126	7
21	21	8
122	122	13
123	124	12
100	100	6
112	113	5
127	127	26
15	15	13
92	92	3
18	19	8
94	94	6
128	128	31
37	38	12
91	94	2
112	112	14
96	128	6
139	139	7
79	79	5
125	125	6
77	77	7
124	124	9
5	16	3
3	3	11
19	20	3
123	125	7
16	20	2
32	81	4
17	19	7
108	111	1
37	37	9
84	84	2
5	6	11
86	86	12
5	5	20
21	22	4
35	35	14
8	8	11
76	78	13
131	132	5
38	38	4
0	0	3
28	28	12
98	100	6
133	134	4
33	33	10
97	97	5
96	96	3
103	106	6
95	95	16
130	130	13
116	116	6
99	100	9
6	22	2
16	28	7
99	99	8
29	29	12
75	75	15
111	111	31
137	138	6
27	27	12
27	28	6
102	103	8
125	126	3
132	132	16
73	73	12
107	108	4
74	74	6
16	19	1
2	3	12
127	134	2
108	108	9
12	14	2
4	5	7
80	80	7
16	17	7
121	122	5
123	128	3
13	13	6
87	87	13
100	101	8
20	20	7
10	23	2
131	131	12
111	114	1
7	10	4
135	135	12
0	30	2
103	107	2
114	114	5
129	133	2
128	129	2
136	137	7
126	126	16
111	112	5
24	24	3
115	115	12
129	130	4
126	129	9
22	22	4
91	91	7
106	109	5
35	130	3
6	6	7
96	129	2
81	81	8
74	75	5
15	98	1
103	103	2
138	138	6
135	138	1
26	27	1
98	99	3
120	121	6
33	35	4
84	87	3
76	77	1
17	18	3
123	129	2
139	140	3
2	2	5
107	107	8
6	14	2
22	36	2
79	87	3
92	94	1
32	32	9
0	114	2
36	37	5
75	77	2
113	114	6
30	84	3
140	140	14
15	17	1
129	138	3
101	103	1
29	31	3
135	137	3
120	122	2
126	127	2
75	76	3
17	21	4
16	18	1
80	88	2
100	108	1
33	34	4
92	93	3
109	109	3
30	85	4
121	123	2
97	98	9
21	108	4
134	138	2
5	20	2
25	25	2
25	26	1
113	113	10
3	4	1
113	121	4
101	102	5
93	118	1
22	24	2
126	128	4
118	122	1
87	88	2
20	127	3
119	123	1
21	25	1
9	11	1
109	110	1
7	7	5
120	120	3
105	107	2
117	118	4
10	12	3
130	132	1
15	16	1
20	26	1
7	14	1
27	32	1
130	134	1
82	82	3
94	101	6
104	106	2
93	124	1
17	96	2
112	118	1
14	27	2
118	118	2
130	133	2
14	14	3
128	133	1
72	72	3
80	101	1
36	71	2
30	32	2
129	136	3
124	126	1
107	109	1
103	105	2
19	21	1
14	23	3
0	1	2
119	122	1
23	24	3
96	98	1
127	129	3
10	11	1
24	87	1
126	134	1
130	131	4
12	12	1
85	86	2
8	10	1
90	90	2
105	105	1
21	26	1
135	136	1
15	21	1
84	88	1
29	80	1
134	136	1
79	80	2
125	128	2
109	111	1
35	74	4
9	14	1
22	23	1
132	133	2
85	85	2
31	32	1
116	117	3
0	28	1
16	26	2
95	100	1
124	125	1
119	121	1
138	139	2
83	84	1
8	11	1
37	72	1
15	38	1
2	115	1
80	81	1
127	130	1
137	140	1
33	74	1
23	23	1
