19	20	14
61	66	1
32	34	6
8	8	29
52	52	27
2	22	5
13	23	4
7	7	35
32	32	24
46	46	28
26	41	3
0	0	20
63	63	18
56	56	28
35	35	29
9	10	21
31	32	10
69	69	11
25	28	3
20	20	32
13	14	5
64	67	4
53	53	20
43	44	13
11	12	12
24	24	18
45	45	31
1	4	3
47	47	28
36	36	26
68	69	15
45	46	7
21	22	12
53	55	4
72	72	27
3	3	34
35	42	10
75	76	8
37	38	11
25	27	6
29	29	30
25	26	6
73	73	31
12	12	20
51	62	6
18	19	10
22	22	26
6	7	5
41	44	3
76	76	17
58	58	31
60	60	19
5	6	14
39	39	17
49	49	19
63	64	7
74	74	24
10	10	18
26	36	1
24	25	12
4	6	4
55	56	10
66	73	4
9	9	39
65	65	11
21	21	32
48	48	29
59	59	21
64	65	9
43	43	39
52	53	7
2	2	16
33	34	6
30	30	20
34	34	11
28	28	33
75	75	24
6	6	17
31	39	3
18	48	2
66	66	24
29	31	1
19	19	26
67	67	31
0	1	7
55	55	25
37	37	28
27	27	18
22	23	10
42	42	27
34	35	12
69	70	12
23	23	22
8	9	11
28	29	11
27	28	11
26	26	14
35	51	1
64	64	19
13	13	16
25	25	2
1	6	3
3	19	3
36	38	2
58	59	25
51	53	4
12	13	10
41	42	10
1	1	18
26	28	2
44	45	13
38	49	2
40	40	24
26	27	9
4	5	16
40	71	5
65	74	8
70	70	12
24	32	2
7	9	6
47	72	2
50	50	11
36	37	11
35	39	3
35	36	12
30	48	1
66	67	14
7	52	7
24	51	3
57	58	16
3	7	2
61	61	30
53	65	4
71	71	19
62	62	23
31	31	19
48	60	3
3	8	3
44	44	33
53	58	2
26	39	1
77	77	14
68	73	9
57	57	24
2	3	14
65	75	4
23	33	2
39	40	8
6	52	4
31	34	5
68	68	28
64	66	10
4	8	3
22	42	2
10	11	8
33	33	24
11	11	19
18	18	5
4	4	18
71	75	5
23	24	4
1	23	1
70	76	5
71	72	16
26	49	2
1	2	4
31	33	6
24	28	5
23	47	1
62	63	7
20	21	12
37	63	1
30	31	10
6	22	4
34	50	1
23	42	2
54	54	8
48	70	1
44	46	4
51	52	16
35	37	7
2	7	5
70	71	5
37	58	1
38	38	13
47	73	3
72	77	3
31	35	2
34	37	3
21	35	2
61	63	3
24	39	3
49	50	11
70	74	4
70	72	7
41	68	4
59	60	3
51	51	26
3	6	1
47	49	5
47	48	8
57	61	1
43	47	2
25	29	2
29	61	1
46	63	2
72	74	2
60	61	7
42	58	7
32	64	2
6	8	3
54	67	2
5	21	3
69	71	3
3	4	5
35	38	2
44	47	3
46	48	3
42	43	8
49	51	2
26	40	1
0	3	2
32	33	16
2	4	13
54	55	13
55	68	3
41	41	11
13	35	1
46	56	1
41	52	4
67	69	1
22	25	2
60	66	4
58	60	2
12	28	5
48	51	4
52	69	1
22	37	3
37	60	1
33	61	1
48	56	3
45	47	2
7	8	20
41	49	1
74	75	6
30	34	2
63	66	2
62	69	1
23	28	5
31	70	2
25	66	3
43	45	1
3	5	3
69	74	3
6	57	1
47	57	3
48	59	1
29	30	5
57	60	6
50	51	7
5	5	8
43	57	2
38	50	1
30	36	4
14	14	3
36	54	3
56	57	10
50	68	3
63	67	2
23	25	1
41	43	1
22	34	1
76	77	1
65	66	9
66	68	10
53	54	5
49	67	2
47	59	1
36	55	1
62	64	5
48	50	4
48	49	9
4	42	2
59	69	2
44	48	1
60	62	1
68	70	2
12	54	2
54	61	2
20	42	2
48	73	2
51	58	6
0	7	2
47	68	1
53	76	2
46	60	1
67	74	1
75	77	2
24	27	3
34	64	3
52	55	2
61	64	1
3	14	2
10	21	1
71	73	1
2	6	1
24	26	1
6	13	1
12	60	1
45	58	1
73	74	1
39	43	3
32	43	4
5	20	1
77	78	1
4	7	1
74	77	2
40	59	1
61	62	4
54	76	4
26	50	1
36	40	1
56	62	1
38	39	5
0	2	1
60	70	1
40	70	1
8	20	1
34	38	1
14	15	2
28	40	1
57	59	5
24	30	2
30	40	3
62	67	1
31	50	2
43	61	2
36	39	2
55	65	1
22	24	4
65	77	1
30	39	2
28	30	1
34	63	2
29	76	1
12	23	2
8	10	3
66	71	1
29	60	2
40	41	2
30	35	1
33	64	1
36	63	2
31	68	1
62	66	2
35	52	1
61	65	1
59	61	2
2	47	1
55	59	4
54	58	2
11	13	2
26	56	1
30	49	1
39	41	2
0	37	2
65	67	1
9	20	1
9	13	1
53	61	3
32	36	1
50	52	1
28	66	1
54	57	1
64	75	2
23	29	1
5	7	1
28	41	1
30	51	1
61	74	1
4	22	2
54	56	1
5	72	1
73	75	1
26	69	1
37	56	1
21	38	1
29	34	1
71	74	1
72	73	1
13	39	1
42	47	1
29	48	1
37	47	2
46	47	1
