84	84	8
100	100	7
90	90	10
101	101	8
66	68	1
22	34	1
70	70	9
79	101	2
90	93	3
77	78	1
95	104	3
81	93	3
22	25	2
51	51	13
58	58	5
83	83	14
97	97	6
38	51	1
108	108	12
69	69	19
65	65	13
86	87	4
63	67	3
53	53	6
90	92	3
26	26	2
93	99	3
69	75	3
69	77	15
30	30	5
24	24	7
95	95	15
31	31	9
75	75	9
82	83	8
82	82	14
89	89	13
109	109	11
35	74	1
71	76	6
95	96	1
104	104	11
88	92	4
101	114	2
88	90	3
38	38	4
103	103	6
83	85	4
89	90	2
98	98	8
53	59	4
59	59	6
41	41	5
90	91	10
21	21	16
60	60	13
83	108	1
77	77	5
43	45	2
35	65	3
100	110	2
47	47	4
42	42	8
26	27	3
72	99	3
39	39	4
36	36	3
61	64	2
79	79	2
44	44	7
73	74	4
34	64	2
104	105	2
52	57	2
80	80	7
100	101	9
71	77	2
105	105	3
37	38	4
112	112	4
37	37	3
82	84	1
27	28	2
33	34	3
52	52	7
58	59	10
47	48	11
99	102	2
49	50	3
113	113	10
88	89	4
85	86	3
64	64	6
106	107	3
71	74	5
25	25	10
81	81	8
35	35	8
111	111	9
68	68	11
104	107	5
92	92	7
44	45	1
97	103	6
40	56	2
68	69	7
93	95	1
102	102	4
39	60	1
96	97	9
64	65	1
35	67	1
63	64	3
85	88	3
85	87	2
39	56	7
68	77	4
49	49	3
42	47	1
49	51	6
38	45	3
38	39	5
45	45	9
43	44	5
93	94	2
74	74	7
76	77	2
110	111	7
75	76	2
59	61	4
97	98	4
74	75	2
54	54	7
42	43	4
21	22	2
88	88	1
46	46	5
39	55	2
95	97	2
43	43	4
63	65	4
71	71	7
66	100	1
105	106	5
34	34	5
87	89	3
55	55	2
62	95	2
76	76	5
89	97	2
27	27	3
54	56	3
23	23	2
110	110	2
72	72	4
62	93	2
57	60	2
87	95	3
63	63	9
61	61	5
79	95	1
30	31	2
67	67	2
28	28	4
39	41	2
72	75	1
83	93	2
61	98	1
52	53	2
47	49	1
86	86	1
78	78	6
106	106	6
65	66	2
62	62	4
34	36	4
56	57	1
32	44	3
32	112	1
66	66	3
83	84	2
22	22	1
55	57	1
34	74	4
97	99	1
84	85	5
24	25	1
64	66	2
99	99	1
70	78	3
71	99	3
78	79	4
50	51	5
22	23	2
31	32	3
81	82	4
58	64	1
94	94	2
114	114	5
62	67	1
73	73	9
46	47	4
31	112	2
107	107	1
96	107	1
29	29	4
58	62	3
70	98	1
98	104	1
63	76	1
20	21	1
71	72	3
91	113	1
92	95	2
91	91	1
20	20	1
101	108	1
81	101	3
101	111	1
56	79	1
97	105	1
83	88	3
69	71	3
61	65	1
31	37	2
35	60	2
56	56	5
67	68	1
66	67	3
109	110	2
74	76	1
40	40	3
40	41	1
41	42	1
50	50	2
84	93	1
101	102	1
77	102	1
61	62	1
78	102	1
99	100	1
62	65	1
57	66	1
64	76	1
98	99	2
54	55	1
102	103	2
23	24	1
72	98	3
32	32	1
70	102	1
60	64	1
82	108	1
102	108	1
81	107	1
45	46	1
35	36	1
82	86	2
85	85	1
93	93	1
48	48	1
59	60	1
58	70	1
79	108	1
80	94	1
96	96	1
68	70	1
48	49	1
37	39	1
