103	103	4
119	119	6
112	112	2
125	125	2
35	36	2
19	21	1
68	73	1
121	122	2
46	46	4
33	33	1
17	17	4
130	130	4
79	79	4
14	14	5
57	57	3
124	126	2
116	117	2
106	106	1
144	145	2
81	81	6
11	11	12
69	69	1
62	67	1
16	16	3
42	43	3
32	33	3
72	73	2
138	138	2
55	57	1
38	40	2
99	112	2
98	99	2
19	20	2
71	71	2
121	124	2
67	67	2
36	36	4
111	111	2
71	72	2
109	113	2
11	14	1
73	84	2
43	45	1
31	31	3
142	142	2
56	56	2
10	10	5
39	39	4
5	6	6
13	15	2
47	51	1
54	54	5
66	110	3
48	63	1
21	72	3
97	98	3
129	133	2
146	146	4
99	101	1
26	30	3
15	16	1
135	135	1
22	68	1
19	19	3
127	138	2
25	25	2
120	122	1
32	38	2
17	24	4
13	13	1
68	68	3
115	115	1
112	120	1
3	12	3
75	76	1
72	74	1
120	121	1
8	10	3
114	114	4
105	105	2
20	21	1
23	23	3
35	35	1
102	103	3
5	25	2
72	72	5
37	37	3
46	53	1
74	74	3
2	2	2
102	102	1
148	148	4
133	133	4
131	131	2
124	124	6
139	142	2
70	70	2
117	117	1
56	57	1
95	95	1
151	151	3
86	87	4
76	76	2
21	21	4
87	89	1
80	82	3
63	66	1
104	115	2
94	94	1
135	136	4
62	62	1
81	82	3
29	30	1
124	136	1
132	132	1
73	73	1
80	80	4
92	92	1
25	46	3
55	55	1
22	22	2
97	97	3
34	36	1
39	42	2
75	75	1
11	38	1
45	45	4
28	28	4
4	23	2
64	64	1
12	12	2
48	48	1
38	38	2
153	153	2
120	133	1
75	77	1
95	98	1
150	152	1
72	83	1
109	109	3
27	27	2
133	134	1
94	98	2
40	41	1
136	136	1
16	17	2
130	131	1
28	39	1
149	149	4
40	56	1
67	114	1
104	110	2
50	64	1
49	49	4
86	103	1
31	33	1
56	58	1
84	84	1
121	121	2
3	4	1
40	40	1
43	43	1
7	7	1
77	77	1
99	99	1
17	19	1
75	84	1
65	69	1
126	136	1
147	148	1
105	112	1
86	86	1
123	123	2
96	102	2
112	116	1
54	55	1
123	124	1
118	118	1
30	30	1
122	122	1
121	137	1
4	5	1
85	92	1
119	132	1
104	105	1
45	46	1
112	114	1
