23	24	3
15	16	5
43	43	8
7	18	6
157	177	1
168	168	17
159	159	10
62	62	6
180	180	11
194	194	8
179	179	4
100	100	6
120	121	7
28	28	9
32	32	2
152	176	2
70	90	1
167	172	2
16	16	2
10	158	6
150	164	7
45	46	5
24	25	7
181	181	3
119	131	1
81	83	2
183	183	17
183	184	4
53	53	5
4	20	3
123	123	9
132	132	2
65	65	8
16	17	7
37	37	17
178	178	12
81	99	1
109	109	8
173	173	9
34	59	2
160	160	2
188	193	4
6	28	4
76	76	8
49	49	5
100	101	4
83	83	8
187	187	8
130	131	3
104	104	6
77	77	5
61	132	5
20	26	4
8	8	17
5	5	8
11	151	5
118	118	5
167	168	14
165	165	5
162	162	7
14	14	10
15	17	11
182	182	1
193	193	13
89	89	6
124	124	8
52	52	13
190	190	11
40	41	2
0	0	5
169	170	1
40	56	1
146	148	15
15	15	1
172	172	11
61	68	2
25	25	3
184	184	9
111	178	2
12	120	1
126	126	6
36	36	10
42	44	4
158	159	12
58	132	3
152	152	10
176	176	11
1	1	7
69	69	12
6	8	2
17	22	2
152	153	5
3	31	4
11	11	8
109	179	2
159	161	5
95	95	1
191	191	5
135	135	11
35	35	7
150	150	9
51	51	7
158	158	7
188	189	3
189	189	13
196	196	13
90	90	5
155	155	15
119	119	5
10	11	7
143	143	8
31	32	1
82	85	3
170	170	11
188	188	11
168	169	7
163	163	6
177	177	10
118	121	1
137	137	3
38	38	13
56	57	1
47	47	14
0	6	4
141	141	2
20	44	3
168	176	2
136	136	5
27	28	4
101	101	11
99	102	1
120	123	1
189	193	1
16	22	3
45	45	4
167	167	4
33	34	5
12	42	3
135	139	2
161	161	9
171	171	14
179	187	1
60	62	3
131	169	1
179	182	7
77	79	3
64	74	1
153	153	13
26	26	9
121	123	4
50	50	15
145	146	4
195	195	9
59	62	2
121	121	8
150	171	2
21	38	2
155	156	7
154	154	9
174	174	8
39	132	1
64	64	8
134	135	7
97	97	1
18	44	1
79	160	1
139	145	1
165	166	4
103	103	4
114	115	3
3	4	6
59	83	1
9	53	1
185	185	5
31	31	6
146	146	6
156	156	7
180	192	1
138	138	9
133	133	4
156	158	2
112	113	5
34	38	2
117	121	4
53	54	1
173	174	3
10	10	4
144	146	3
159	160	1
63	88	4
73	73	7
106	107	1
129	134	1
157	190	6
150	192	2
21	23	2
172	173	6
56	69	3
196	197	3
19	21	4
17	17	2
1	4	3
25	168	4
116	117	3
62	67	3
34	34	5
61	66	6
34	137	3
152	188	2
57	57	8
48	49	2
139	139	2
194	195	3
181	182	3
13	196	1
1	8	1
113	114	5
4	4	3
143	158	4
22	32	1
39	39	5
11	12	2
147	147	4
13	150	1
0	1	3
150	176	4
190	191	2
186	186	7
131	133	1
141	142	1
23	23	5
2	21	1
2	2	6
180	193	6
117	132	1
106	106	15
102	102	1
152	154	2
34	35	5
115	115	4
35	40	2
72	72	7
12	12	7
50	51	3
120	160	1
96	96	1
38	39	5
148	148	10
128	128	10
46	46	6
19	44	4
122	171	5
111	111	2
117	160	3
166	166	4
122	122	8
70	78	2
102	105	2
133	148	1
9	51	3
44	52	2
93	110	4
151	151	3
129	129	2
24	27	2
174	175	4
116	119	1
32	51	2
34	37	1
20	20	3
184	195	4
113	133	3
99	99	7
37	56	3
42	42	8
33	37	4
20	30	4
13	50	3
36	67	1
110	110	6
7	7	3
71	72	1
30	135	4
98	115	3
197	197	2
71	71	1
168	172	1
154	155	4
176	177	1
84	84	2
108	140	2
155	179	2
53	56	2
140	140	4
184	185	4
142	142	5
99	100	3
157	157	10
124	125	1
6	6	10
169	169	9
153	173	2
132	152	2
113	113	10
130	133	1
30	30	5
177	178	3
5	41	4
30	31	5
107	108	3
157	189	1
145	160	3
119	121	1
129	130	3
192	193	2
63	63	1
48	129	1
130	132	1
38	134	1
140	145	1
48	69	1
125	125	8
173	175	2
10	39	1
154	181	2
2	6	2
98	139	4
136	142	1
148	149	1
104	134	2
157	159	2
136	149	2
21	21	1
74	74	6
80	80	5
88	88	3
157	158	4
131	150	1
5	43	4
27	27	4
155	188	4
177	181	2
60	60	5
107	109	4
164	164	4
39	42	3
23	29	2
156	182	2
170	171	1
70	70	6
130	158	2
102	103	6
97	98	1
43	45	1
114	114	3
3	3	4
60	86	2
11	13	1
40	40	1
17	19	1
108	108	6
193	194	3
139	162	2
115	145	3
116	151	2
3	16	2
137	138	1
98	117	3
14	28	2
33	53	1
85	85	4
104	105	1
75	75	1
157	182	1
151	168	2
52	53	3
171	173	3
94	115	5
135	140	2
134	134	3
163	164	1
105	106	1
30	32	1
153	155	3
133	134	5
144	144	4
32	33	1
175	175	6
117	117	3
74	76	2
20	43	1
182	183	1
27	152	2
56	56	2
113	134	2
25	56	1
187	188	2
80	81	1
161	189	2
97	161	2
169	172	2
155	180	2
24	56	2
112	112	4
93	97	5
149	150	2
59	59	3
135	137	3
28	152	1
1	6	2
54	54	3
115	116	4
139	143	1
58	58	3
162	163	1
45	52	1
13	120	3
23	58	2
5	16	1
160	172	4
145	145	2
127	128	1
136	137	3
146	147	2
179	181	1
28	41	3
33	42	1
40	43	2
135	136	1
53	148	1
149	149	12
79	80	1
124	131	1
4	24	3
67	68	1
134	137	1
13	13	2
41	41	1
21	22	1
41	43	1
175	181	1
86	105	3
124	143	2
24	24	1
98	98	1
87	87	5
180	181	2
22	22	3
165	167	2
37	61	1
136	138	2
146	191	2
161	162	2
61	63	1
119	123	1
153	165	1
161	166	4
48	48	3
57	58	1
165	180	1
24	120	1
121	158	2
13	14	1
172	177	2
144	164	2
164	181	1
78	79	2
152	173	1
119	124	3
42	43	2
154	173	2
138	162	1
123	125	1
172	176	1
179	180	1
25	169	1
153	154	4
189	190	2
88	89	2
163	180	1
164	184	2
126	129	3
155	181	4
116	131	1
117	136	1
164	180	2
12	149	1
170	176	1
138	139	3
160	161	1
94	96	2
171	172	3
127	127	1
38	41	1
121	157	3
188	197	2
76	78	1
25	39	2
146	150	2
176	178	1
164	167	1
144	147	1
69	71	1
7	9	1
28	29	2
82	84	1
29	29	3
73	76	1
139	147	1
118	119	1
9	18	1
59	64	1
143	145	2
122	157	1
20	22	2
133	149	1
19	19	1
157	163	1
119	179	1
23	25	1
106	108	1
1	16	1
32	55	1
23	31	2
8	121	2
128	149	1
34	67	1
109	110	1
28	42	1
130	130	1
50	54	1
100	105	1
173	176	1
154	168	1
145	175	1
144	161	1
77	78	1
107	135	2
40	54	1
150	163	1
96	97	1
26	123	1
191	192	2
148	163	1
72	73	1
118	150	1
61	62	1
8	19	1
117	120	1
131	131	1
134	140	1
111	112	1
53	57	1
7	17	1
23	57	1
119	120	1
113	130	1
144	150	1
113	119	1
186	187	1
79	79	1
18	18	1
108	136	1
78	78	1
75	124	1
150	152	1
