97	98	4
88	88	6
88	89	8
55	56	2
96	99	4
114	114	3
86	100	5
69	71	5
94	95	6
50	73	2
27	27	8
76	77	5
60	66	3
112	112	8
62	103	2
82	82	8
26	29	1
94	99	2
100	100	13
109	109	10
73	73	4
80	81	4
20	21	2
103	103	9
74	74	9
100	105	3
91	91	5
86	99	1
105	108	7
59	80	4
90	90	11
36	36	4
105	106	4
59	59	11
50	50	5
56	56	12
70	86	2
47	47	15
85	86	3
87	87	13
111	111	8
95	96	5
39	39	2
70	71	16
67	68	3
97	97	13
71	71	12
31	31	9
95	95	7
35	37	2
24	24	8
26	26	5
105	107	3
53	53	3
101	104	3
33	33	6
70	70	11
68	68	15
43	44	3
51	51	14
110	110	13
58	60	5
63	106	1
101	101	10
63	65	4
60	60	6
106	106	23
55	55	9
28	87	1
57	58	4
37	64	3
41	47	8
21	22	4
101	109	2
20	70	2
99	99	20
73	74	2
54	55	2
91	95	4
44	44	2
80	80	1
83	83	3
54	54	4
107	108	2
82	108	6
40	41	2
102	103	8
74	75	8
86	86	7
63	64	6
63	63	6
96	96	14
69	70	1
91	93	1
64	64	3
106	108	4
34	36	3
75	75	19
23	23	14
71	72	1
77	77	7
108	108	8
98	98	6
84	84	5
102	102	8
61	66	2
85	85	4
66	66	3
57	57	2
106	107	7
93	93	9
22	24	7
76	76	5
98	109	3
39	41	2
96	97	11
101	102	4
103	104	3
94	94	6
84	85	3
25	71	3
91	92	5
48	69	6
107	107	10
89	89	6
98	108	1
104	104	3
51	52	3
28	28	7
25	25	4
87	89	3
109	110	6
69	69	6
89	90	5
34	34	10
52	52	3
98	99	5
30	30	6
65	65	15
94	97	3
32	99	2
28	40	1
65	66	4
79	79	8
30	35	3
28	92	4
67	86	3
82	85	3
93	95	5
58	58	9
21	21	10
101	108	2
49	50	6
75	78	2
47	86	2
77	78	5
85	108	2
77	81	3
58	80	3
41	46	3
92	93	2
110	111	2
43	43	4
37	37	1
99	109	1
47	48	4
61	61	5
93	94	3
29	30	2
108	109	1
46	47	2
46	46	4
56	58	4
105	105	7
62	63	4
60	61	2
22	22	6
52	88	2
28	39	1
35	35	3
48	49	1
57	92	3
86	88	1
100	101	2
90	100	1
90	91	7
102	108	2
68	69	1
19	19	1
92	92	8
83	84	3
73	104	1
41	41	4
59	65	3
78	79	5
63	95	4
59	60	2
93	101	2
40	47	4
81	81	3
65	71	1
61	65	2
49	49	3
83	92	1
102	104	4
29	39	3
42	42	2
83	102	2
75	76	1
52	102	1
62	106	1
38	63	2
81	104	2
56	112	3
66	68	1
74	97	1
75	113	3
62	62	3
29	29	3
76	105	1
58	59	2
26	37	2
104	108	1
54	56	2
104	105	3
77	80	1
32	32	2
56	66	2
27	90	2
75	80	3
75	102	2
51	100	3
26	42	2
34	38	1
78	83	2
36	41	2
79	93	2
30	107	1
72	73	2
79	109	1
83	86	1
81	97	1
113	113	2
36	88	1
81	82	2
87	91	1
69	94	2
103	105	1
53	112	1
48	48	1
72	72	2
29	32	1
55	72	1
22	23	3
62	64	1
66	67	3
23	24	1
81	106	2
57	78	2
78	107	1
28	64	1
58	72	1
78	78	1
112	113	1
56	57	1
85	104	1
27	43	2
92	95	2
22	25	1
44	114	1
40	40	1
62	69	1
79	81	1
58	79	1
63	99	1
