27	102	2
86	86	7
92	92	16
98	98	13
97	97	8
89	89	9
36	36	7
27	27	9
51	52	2
79	80	10
97	108	1
54	58	3
73	74	3
84	84	7
103	107	5
20	20	11
76	77	2
96	97	7
67	68	7
78	96	4
32	33	8
45	45	8
26	63	2
61	111	2
84	87	2
88	88	5
31	31	2
22	22	13
24	94	4
64	72	2
43	44	4
42	43	8
49	51	7
105	106	2
111	111	3
56	56	2
75	75	10
55	59	2
59	59	3
103	103	8
82	83	6
49	49	8
26	26	5
93	96	2
79	105	7
90	91	5
71	75	1
65	65	12
33	33	3
102	102	9
97	101	1
69	110	1
52	52	6
58	58	1
88	89	9
93	95	4
55	56	3
48	93	2
41	41	6
101	102	8
27	59	1
47	100	3
61	93	2
47	48	3
107	108	3
105	105	11
78	78	2
38	39	2
51	51	6
62	76	7
28	28	1
70	113	3
62	63	4
60	96	2
35	35	1
63	65	2
21	22	6
32	32	1
23	93	1
98	99	4
40	59	1
100	101	7
44	44	6
54	55	10
72	74	4
87	87	5
50	52	2
93	93	4
106	107	5
112	112	5
100	109	2
98	108	3
85	86	5
78	97	2
32	59	2
106	106	9
54	54	4
27	81	7
55	70	1
24	25	2
88	95	1
94	95	5
83	84	6
109	110	7
21	21	11
95	96	3
53	64	1
94	94	6
105	107	8
104	104	8
50	50	6
32	60	6
54	64	3
67	92	1
39	40	1
24	24	2
78	98	4
72	72	14
85	93	3
87	91	4
75	76	4
104	105	2
109	109	7
90	90	7
96	109	1
67	67	8
41	68	1
43	43	3
47	47	2
85	85	9
89	90	10
108	108	12
31	95	4
101	101	2
79	102	1
87	88	4
46	46	2
113	114	4
59	62	3
39	39	2
81	98	2
25	64	3
115	115	1
58	62	1
86	87	5
95	95	1
58	98	3
110	111	2
58	110	5
84	107	2
99	100	3
80	102	3
62	62	5
33	53	1
65	66	5
80	80	4
38	38	8
91	91	3
107	107	2
34	34	1
95	101	7
97	103	1
30	30	3
91	101	6
73	73	5
69	69	14
67	74	3
99	99	9
93	94	2
61	76	1
62	77	1
80	81	1
60	62	2
87	101	1
48	69	2
61	61	3
40	40	7
66	66	3
97	107	3
70	76	2
102	107	2
63	63	3
113	113	5
57	57	9
114	114	1
22	26	1
40	41	3
29	101	1
79	79	5
81	103	1
36	39	3
79	108	2
60	61	2
30	73	3
82	108	1
54	72	1
31	94	2
93	99	5
68	79	1
27	31	1
101	112	2
100	111	2
42	42	5
81	85	5
99	109	5
92	95	2
68	69	5
31	74	1
50	65	2
61	110	4
37	37	5
70	111	2
32	97	2
65	74	1
77	77	5
95	99	4
53	80	1
64	64	1
110	110	4
26	103	2
101	103	3
29	102	2
23	23	2
85	105	1
25	108	1
86	106	3
56	57	6
31	57	2
99	106	2
82	84	1
94	98	4
82	82	2
22	79	2
54	76	2
71	71	6
65	75	1
78	108	5
92	93	5
57	59	1
78	81	2
81	107	1
48	48	2
68	68	1
34	35	1
71	72	1
33	59	1
77	97	1
88	92	1
103	104	2
70	99	1
66	70	1
21	24	2
81	83	1
74	75	2
23	32	1
63	78	1
98	107	3
58	59	1
30	99	1
19	19	3
30	74	1
76	76	2
25	98	2
84	89	2
100	100	1
45	49	2
25	99	1
96	96	4
98	102	2
50	51	2
97	106	2
35	36	1
85	106	1
41	52	2
105	108	1
84	85	1
94	96	1
53	59	1
33	34	2
83	87	1
62	79	2
39	56	1
74	74	3
24	31	1
56	58	1
33	52	1
23	59	2
30	68	1
63	64	1
105	109	1
97	98	2
81	81	2
20	32	1
36	53	1
53	53	1
93	98	1
64	74	1
102	103	1
54	56	1
22	97	1
70	74	1
42	99	3
22	37	1
54	81	1
59	71	1
49	50	1
20	28	1
55	58	1
37	40	1
