64	70	3
61	62	16
11	11	27
121	121	13
7	7	13
101	101	9
58	58	10
8	8	26
45	95	2
10	10	11
116	133	8
69	69	6
33	33	11
112	117	9
45	45	23
76	76	11
19	19	14
108	109	3
98	99	4
0	0	5
91	91	6
70	134	6
41	41	11
29	30	5
103	103	7
29	29	27
61	61	19
62	62	19
63	63	19
80	80	4
84	84	11
74	74	20
92	93	4
94	95	9
37	41	4
131	131	11
47	47	25
20	21	1
13	27	4
88	88	14
27	27	23
117	117	7
26	27	3
129	129	10
26	26	24
57	57	11
119	119	4
75	75	22
117	126	3
46	46	23
12	46	4
91	101	7
127	127	12
73	73	6
27	29	6
67	72	2
72	72	3
99	100	4
35	36	10
30	30	14
94	94	10
16	16	11
76	77	6
25	47	5
134	134	6
82	82	8
87	88	7
34	34	12
125	125	2
19	20	5
108	108	4
90	90	9
96	96	8
90	91	4
29	78	2
130	132	5
29	49	6
28	91	6
32	82	3
62	63	6
93	93	23
50	50	6
44	44	7
114	114	10
130	130	7
67	67	9
100	100	12
68	68	12
14	14	6
97	99	10
35	82	1
0	2	5
22	26	6
66	93	4
21	27	1
41	42	7
120	120	8
75	77	1
37	39	4
121	122	2
122	122	8
2	102	4
86	90	2
118	123	2
81	81	10
15	15	14
126	126	14
33	35	3
4	4	5
28	28	9
83	83	12
107	107	6
25	71	2
25	25	5
27	97	1
63	75	2
56	56	4
110	111	3
86	86	19
6	7	1
8	130	2
106	107	5
116	116	2
21	26	3
60	60	10
48	49	4
12	12	9
7	58	2
67	68	2
3	3	2
133	133	2
119	125	7
92	92	7
15	17	4
40	41	11
66	83	5
39	39	8
113	113	6
115	126	10
117	119	4
118	118	3
67	71	3
20	20	4
79	79	14
87	101	4
5	5	17
59	59	16
40	40	8
85	87	1
9	10	8
11	92	3
17	17	17
2	9	1
11	34	5
77	77	8
131	132	4
37	46	1
78	79	4
19	21	3
64	64	13
86	87	4
112	112	9
96	97	10
10	31	4
48	48	7
57	59	4
81	82	8
3	4	8
77	78	1
119	124	2
37	38	8
85	86	2
75	76	3
6	6	7
4	5	5
98	98	4
67	69	2
26	93	2
99	99	8
128	128	1
8	43	2
124	124	6
23	26	1
104	104	6
23	23	1
123	123	8
65	65	16
89	101	5
35	35	14
8	9	6
31	32	6
90	95	1
13	15	1
23	25	2
97	97	13
10	21	2
71	134	2
105	106	6
102	103	2
90	94	2
20	25	3
91	96	2
32	32	11
63	77	2
22	22	10
68	71	2
51	51	2
41	43	5
107	108	3
29	59	2
79	80	19
31	42	5
95	95	4
130	131	4
70	70	16
11	93	7
116	117	4
70	71	1
36	48	3
95	96	6
64	65	1
36	36	7
32	37	2
11	14	2
37	43	1
36	44	3
102	122	3
9	9	14
85	108	3
64	75	2
111	111	3
110	110	5
133	134	3
65	95	3
32	36	2
95	98	5
18	18	3
21	85	2
27	28	3
57	58	1
89	90	2
27	92	3
59	60	6
26	49	3
12	58	1
84	85	4
42	42	8
74	75	4
66	94	3
24	24	4
100	101	7
69	71	4
23	24	2
12	13	8
47	65	2
21	21	6
18	20	3
78	81	1
119	120	3
15	16	1
71	71	8
38	39	2
11	12	2
102	102	4
8	10	4
66	66	5
24	25	3
109	113	2
18	19	3
45	100	3
13	18	2
115	116	4
43	43	2
31	31	2
56	58	1
55	55	7
20	62	1
49	49	2
36	45	2
39	40	2
87	87	3
128	131	4
28	80	2
16	17	3
82	83	6
9	92	1
46	47	9
35	74	4
64	66	1
50	51	1
13	13	10
85	85	2
3	10	3
65	73	1
22	30	2
39	83	2
45	89	1
22	37	1
95	99	2
93	95	2
61	75	5
113	114	2
97	100	2
13	14	1
84	116	2
37	37	1
113	115	1
72	73	3
114	134	1
115	115	3
10	14	4
64	74	2
70	75	2
26	47	1
14	74	1
63	64	5
104	106	1
89	89	2
68	69	2
48	92	2
75	86	1
24	26	2
29	35	1
4	7	5
2	2	3
45	70	2
82	84	2
1	1	1
36	39	2
114	130	1
48	90	1
78	80	2
103	106	2
106	106	2
25	27	1
4	10	1
63	73	1
98	101	1
96	99	1
31	37	2
11	13	1
115	117	2
112	121	2
114	115	1
27	99	1
46	75	1
116	134	2
60	76	3
117	122	2
20	27	3
45	62	1
84	90	2
12	14	1
101	122	1
27	91	1
25	81	1
130	133	3
93	96	1
31	36	2
113	117	1
22	36	1
62	65	3
84	88	1
48	55	1
120	121	1
49	54	2
65	66	1
111	131	1
5	6	1
95	100	1
78	78	2
6	8	1
89	92	1
27	90	1
4	11	1
71	72	2
95	118	1
38	59	1
33	34	2
98	124	1
74	119	1
70	133	1
98	130	2
33	37	1
101	102	4
99	101	1
79	81	1
35	77	1
18	50	1
20	32	1
90	100	1
33	43	2
20	60	1
61	77	1
11	60	1
62	122	2
14	15	2
28	78	1
36	42	1
36	43	1
