15	16	5
43	43	11
17	20	2
8	8	9
14	76	2
14	14	18
1	2	2
74	74	1
150	167	3
33	33	3
44	45	11
48	48	10
113	113	5
94	94	15
76	76	13
157	157	3
82	104	1
125	125	9
144	145	2
92	93	11
72	110	3
150	150	7
24	24	6
80	89	5
97	97	17
72	72	5
88	88	5
90	90	15
3	3	9
146	146	4
17	27	3
163	164	1
106	106	15
82	83	2
149	149	12
153	154	6
47	48	2
117	118	4
92	94	6
127	130	6
134	135	5
86	87	7
100	169	1
104	104	6
52	53	5
57	63	1
62	62	8
134	134	7
103	161	4
127	132	3
8	43	3
129	129	10
12	12	18
137	137	11
82	82	10
84	84	1
119	149	4
131	150	1
49	49	7
156	156	7
116	143	1
109	109	16
93	93	6
81	82	8
111	111	13
89	90	1
77	78	3
161	162	4
110	110	11
127	127	8
152	153	5
102	102	12
147	147	14
103	115	1
68	157	1
41	41	4
63	70	1
75	133	2
34	34	16
119	153	2
155	156	5
128	132	2
8	9	3
131	132	8
170	170	4
14	23	1
141	163	1
46	49	3
27	27	12
98	98	6
26	56	2
21	21	13
45	45	7
21	22	8
52	102	4
9	9	8
24	38	6
55	55	4
85	85	11
96	97	6
56	84	5
169	169	6
99	100	3
48	49	4
116	149	3
118	166	1
9	10	3
105	105	7
77	77	7
125	155	5
19	19	12
36	36	12
26	26	14
41	169	2
45	46	1
2	42	2
168	169	2
100	101	3
27	28	5
27	55	2
42	42	8
43	44	10
44	44	12
16	16	6
28	28	7
7	8	3
124	153	2
52	52	6
91	105	1
159	160	4
14	15	13
107	107	6
15	15	8
25	25	6
87	87	6
23	23	1
131	131	6
112	112	7
161	161	8
23	97	3
2	2	10
75	75	5
11	11	13
1	1	8
70	70	14
50	99	5
123	123	4
53	56	3
36	41	3
100	100	5
10	10	8
153	153	4
135	136	4
136	140	3
64	70	4
89	89	2
81	128	2
13	13	11
101	102	7
156	166	2
158	158	3
118	120	3
148	149	4
73	73	8
56	56	11
39	39	13
79	79	7
81	141	5
160	160	3
46	46	16
38	41	4
4	4	10
85	86	6
50	50	5
57	58	2
101	105	2
151	151	3
54	55	6
4	5	20
48	93	3
47	47	2
142	142	6
162	162	4
165	166	2
120	120	7
114	114	10
47	49	5
77	96	2
78	79	4
154	154	6
16	18	4
158	159	4
22	22	7
73	114	2
20	21	7
118	118	2
81	81	4
104	105	3
147	148	2
50	98	3
150	154	1
80	80	6
3	4	2
162	164	11
9	12	2
62	115	1
12	15	1
68	68	11
90	116	1
40	40	9
42	43	3
65	67	5
45	70	2
38	155	4
142	143	2
17	17	9
96	96	3
64	66	3
97	98	5
45	57	4
124	156	5
87	115	2
101	101	6
113	114	4
10	64	1
57	62	4
155	155	3
120	121	3
164	164	2
72	157	1
119	119	8
71	71	6
115	115	3
46	70	5
90	98	3
41	42	1
140	141	4
141	142	1
138	138	6
37	90	2
92	142	1
72	73	1
86	86	7
54	101	1
49	50	1
24	86	3
19	20	4
136	170	3
1	136	5
152	152	6
50	53	2
1	108	1
24	55	2
8	10	6
161	164	3
139	139	4
20	20	5
62	112	1
126	126	6
147	151	1
133	133	3
13	14	1
143	143	3
18	18	1
38	38	2
70	99	1
64	71	3
6	7	2
10	135	1
80	144	1
49	93	2
83	128	2
142	164	2
124	125	3
74	107	2
67	67	8
147	163	1
160	161	4
133	143	2
126	131	5
54	85	1
101	103	2
7	7	2
64	69	1
64	65	1
97	99	3
163	163	5
110	168	1
119	120	2
107	108	1
95	96	3
51	98	1
53	53	5
21	45	2
76	108	4
132	132	8
66	67	1
2	94	1
37	114	1
5	5	4
12	14	3
69	70	7
119	165	3
95	95	2
86	123	1
122	122	4
63	94	1
64	64	5
131	147	4
77	167	3
52	74	1
130	148	1
23	153	3
93	94	1
74	75	2
66	66	4
86	125	1
79	88	3
3	5	2
22	25	2
108	111	5
76	98	3
145	146	3
86	124	3
92	92	4
145	145	4
96	104	2
46	98	1
117	143	1
108	108	8
6	6	4
138	139	1
168	168	1
81	90	1
14	64	4
79	89	2
93	95	2
166	167	2
91	91	5
5	6	1
94	95	1
123	126	1
137	138	4
145	147	1
92	144	1
65	70	3
154	158	2
103	103	1
121	155	1
70	71	1
21	57	2
53	55	1
38	39	3
94	162	3
50	51	4
133	166	2
58	58	4
151	154	1
40	41	2
46	47	2
11	13	1
117	117	3
17	21	2
35	36	3
92	166	1
15	41	2
90	91	1
81	98	1
51	52	2
148	159	1
13	80	1
169	170	1
167	167	1
139	141	1
130	147	1
43	92	1
87	165	2
120	151	1
73	85	2
23	86	2
83	83	1
43	45	1
79	166	1
144	146	2
66	71	1
38	42	2
26	27	3
114	116	1
98	103	1
91	143	1
69	71	1
85	126	2
11	109	2
116	116	1
123	125	4
25	90	1
124	124	5
132	133	1
19	86	3
39	150	1
144	144	1
37	37	5
56	57	3
19	23	1
83	84	4
49	58	2
56	106	1
136	136	2
122	126	1
54	54	5
39	155	1
93	96	3
135	142	2
118	122	2
149	163	1
38	151	2
126	127	2
53	54	1
135	135	1
44	97	1
72	114	1
148	161	1
69	69	3
98	99	1
131	149	1
42	44	1
126	155	1
55	56	1
19	21	1
150	151	1
35	35	2
44	98	1
62	63	1
45	47	1
91	92	2
112	114	2
1	94	1
33	34	1
112	113	1
88	144	1
122	128	1
11	134	1
159	159	1
63	75	2
63	72	2
80	81	2
94	97	1
119	163	1
140	140	2
157	158	1
23	155	1
71	75	2
57	86	2
64	68	1
101	136	1
90	135	1
86	165	2
71	72	1
22	86	1
7	47	1
108	109	1
35	104	1
143	144	1
84	85	1
147	161	1
117	149	1
71	100	1
51	51	1
83	86	1
146	152	1
52	54	1
121	122	1
11	14	1
8	45	1
165	165	1
4	47	1
131	163	1
134	140	1
61	62	1
51	78	1
78	78	1
18	21	1
39	84	1
