193	193	1
85	85	4
164	164	7
103	103	1
79	79	8
156	167	2
183	183	7
13	13	2
118	119	4
106	171	1
219	219	6
135	135	6
52	53	1
31	31	4
177	177	4
166	167	1
83	83	3
47	51	1
37	56	5
228	228	3
82	82	1
185	185	4
122	122	5
22	25	5
59	59	4
77	80	1
198	199	4
120	121	3
40	40	4
9	9	6
80	80	5
178	178	2
204	204	3
226	226	4
14	15	2
45	45	12
155	162	1
53	62	6
216	216	3
230	230	2
81	81	2
70	71	2
6	6	5
82	83	7
78	79	1
28	28	5
88	137	2
19	19	3
129	130	3
56	56	2
6	13	5
207	207	4
225	225	1
8	41	2
27	70	3
25	42	1
84	85	7
76	96	1
99	99	9
181	181	4
238	238	7
68	68	4
55	96	2
20	20	8
81	82	2
33	33	2
163	163	4
125	125	4
50	50	4
213	214	2
115	123	1
116	127	3
0	15	1
204	205	2
41	68	3
138	138	1
37	37	7
35	35	1
138	181	4
111	111	1
153	154	1
62	66	2
55	84	3
149	184	1
21	21	5
174	175	4
180	193	1
201	201	4
5	6	3
118	118	2
86	86	1
215	215	3
123	130	2
103	117	2
8	18	1
233	233	5
19	45	3
169	176	3
196	197	1
19	20	1
146	156	1
99	115	1
15	18	2
142	142	5
183	208	2
1	1	3
25	40	1
176	176	3
133	180	2
158	158	4
79	80	2
5	52	2
53	53	4
212	212	5
232	242	1
122	123	1
79	126	3
34	36	2
42	56	7
100	101	4
8	8	1
4	4	1
3	57	1
48	56	6
176	178	1
50	229	1
182	182	2
11	11	2
136	137	2
54	54	1
108	108	4
16	17	3
140	171	2
82	84	1
122	237	2
24	39	2
33	70	1
7	7	2
64	73	2
197	211	2
8	14	6
78	78	7
157	158	2
42	42	3
168	168	2
112	113	2
220	220	5
115	124	5
65	65	4
80	84	1
234	239	2
128	128	1
51	54	1
151	227	3
134	135	2
236	237	1
64	64	2
27	27	3
61	83	1
180	180	1
3	3	3
98	98	1
171	209	1
34	34	5
5	5	3
23	23	2
42	46	2
13	14	3
63	71	5
100	100	2
38	38	1
17	17	2
150	207	2
39	39	1
21	23	4
231	232	2
54	55	7
15	16	3
113	237	2
104	118	1
63	63	1
101	103	2
17	46	2
171	171	2
242	242	2
49	49	3
129	129	3
29	29	1
26	42	2
188	188	8
143	143	1
218	218	2
30	30	5
44	44	5
220	221	2
239	239	4
197	197	2
75	76	1
20	40	3
95	120	1
124	125	1
231	231	2
164	168	3
108	109	1
4	6	1
149	152	2
5	49	4
45	74	2
217	217	2
147	150	1
63	241	1
88	88	1
146	182	1
13	18	1
0	1	3
217	221	2
172	172	1
184	184	2
19	47	1
199	199	4
32	49	1
61	61	1
29	30	1
124	126	1
149	149	3
8	15	3
112	112	3
160	206	1
67	68	2
16	16	1
46	46	5
30	31	2
232	232	2
62	64	2
1	2	3
7	17	4
173	217	1
119	125	3
226	227	1
229	229	1
4	5	2
133	133	2
119	120	3
37	47	2
138	139	2
133	201	2
115	117	1
3	26	1
202	208	1
207	208	1
21	22	3
113	122	1
175	176	1
12	12	1
75	80	2
101	101	3
48	48	2
39	40	1
55	55	3
17	36	2
24	24	1
28	33	1
97	97	1
38	55	2
175	175	1
114	128	1
36	36	1
208	208	2
186	186	1
147	162	1
62	63	1
53	63	2
172	174	2
181	182	1
85	86	1
154	155	1
52	52	2
234	234	2
15	109	1
123	125	1
51	51	2
197	201	2
225	228	1
192	197	1
205	206	1
192	192	2
131	139	2
133	194	2
2	3	1
147	184	2
209	209	1
6	50	1
114	114	1
167	168	1
222	222	2
63	64	1
60	60	1
174	181	1
157	164	1
115	126	1
67	102	1
119	119	1
174	219	1
2	8	1
139	139	1
44	54	1
98	115	1
223	223	2
48	75	1
133	134	1
59	95	2
16	66	1
107	109	1
96	96	1
18	20	1
157	161	1
102	165	1
137	137	1
170	170	1
116	116	1
150	175	1
