55	55	13
11	11	6
60	61	2
37	37	7
22	22	9
32	32	16
38	38	19
46	47	5
43	43	8
47	47	12
62	62	8
36	36	7
42	42	24
53	54	3
2	2	3
36	44	8
57	57	23
31	31	8
46	57	4
39	53	2
8	22	3
52	59	2
58	58	13
39	46	1
11	25	1
58	59	4
48	48	22
9	13	1
30	58	3
46	46	11
57	62	3
43	44	3
14	15	8
24	24	4
40	45	8
39	56	4
19	19	3
2	39	3
49	49	21
4	4	6
43	54	4
38	52	3
0	31	4
40	40	12
6	7	3
47	60	2
13	13	12
54	54	7
37	39	2
61	61	8
15	15	2
7	7	3
37	58	5
22	24	3
41	41	5
3	3	6
55	56	1
6	19	1
30	30	13
19	38	1
52	54	3
12	22	1
3	34	1
4	49	2
42	45	3
14	14	5
46	60	2
12	12	5
10	10	6
47	59	1
53	59	2
1	2	6
34	34	16
41	46	2
11	12	4
6	6	8
39	50	1
21	24	1
56	57	3
37	56	2
45	45	10
60	62	3
16	18	3
45	49	8
35	35	12
54	55	2
53	55	2
50	53	5
21	21	9
32	33	6
44	44	10
31	35	3
32	62	2
2	37	3
44	46	1
0	2	2
39	54	4
7	15	3
3	37	2
50	50	13
39	39	4
5	5	5
51	51	15
1	19	2
56	56	17
46	56	6
41	53	4
29	54	2
29	38	2
0	4	3
1	3	3
30	52	1
51	52	8
41	47	1
38	39	5
53	53	7
33	34	4
1	4	1
57	60	5
44	60	1
31	32	6
7	16	5
10	32	4
29	51	3
52	52	4
35	36	1
11	13	1
61	62	1
0	0	2
40	51	6
60	60	11
2	5	1
44	58	2
25	25	2
23	24	5
45	58	5
45	54	5
18	18	5
0	50	1
38	41	1
10	55	4
30	37	2
8	37	4
12	13	3
37	53	1
33	35	3
24	60	1
41	58	2
40	54	4
0	7	3
47	58	2
45	50	3
31	36	1
59	59	1
40	58	4
49	56	1
2	20	2
44	47	2
1	1	4
51	55	1
37	40	1
56	59	1
8	54	2
33	33	2
8	9	2
52	56	1
20	20	4
18	19	3
30	31	2
25	56	1
20	23	1
23	23	2
34	35	2
1	20	1
57	58	2
41	54	1
52	53	1
47	48	2
17	19	2
31	58	1
3	7	2
45	57	2
26	26	2
7	21	1
39	51	1
15	16	1
0	1	2
5	49	1
7	20	1
0	49	3
46	54	2
32	37	2
0	3	1
36	37	1
49	52	1
54	56	1
14	20	2
31	39	1
31	44	2
42	46	1
24	56	1
16	16	1
46	53	1
17	17	1
39	40	2
30	54	1
17	50	1
3	14	1
25	62	1
0	8	1
32	48	1
45	47	1
