19	174	1
34	35	1
219	242	1
237	245	1
168	182	1
240	240	8
42	42	2
115	115	11
209	209	5
109	117	1
215	215	3
89	89	4
188	189	5
183	183	3
242	242	12
168	169	1
225	225	2
99	99	1
191	191	3
236	246	3
201	201	4
196	196	1
214	214	2
195	205	1
150	150	4
103	104	2
101	101	5
53	53	4
85	115	1
173	173	4
164	164	8
246	246	5
72	72	2
217	217	2
183	184	2
78	78	1
200	200	5
204	204	7
96	98	1
175	175	3
161	231	1
161	161	3
102	102	5
221	221	3
55	55	5
86	86	4
180	180	5
174	243	2
178	178	4
171	172	1
20	37	2
30	30	8
34	34	10
218	218	2
4	48	3
177	200	3
170	170	8
166	167	5
118	118	3
248	248	3
215	217	1
112	113	3
2	3	1
156	156	6
21	21	11
20	20	2
216	239	1
172	173	2
114	115	2
81	82	1
163	163	2
25	25	1
90	91	1
104	105	5
170	189	2
61	108	2
7	8	2
78	102	2
68	70	1
209	210	5
210	210	3
162	162	5
11	43	6
152	152	2
18	47	1
92	92	1
34	246	2
23	23	4
18	18	1
204	205	1
231	233	2
28	28	2
186	229	3
199	199	3
17	17	1
58	62	3
181	181	4
32	57	2
167	167	5
20	33	2
113	113	3
190	190	3
179	214	3
179	179	4
69	69	1
223	223	2
229	229	2
8	9	1
198	198	13
33	45	2
239	247	2
245	246	4
240	241	5
39	46	4
192	213	1
165	166	3
62	118	1
21	45	4
116	117	1
238	239	2
157	157	7
160	160	1
52	52	3
111	245	2
32	34	1
188	188	2
76	77	2
213	214	1
12	16	1
27	29	1
31	31	5
26	27	2
32	33	3
236	236	1
212	212	1
168	168	6
4	5	2
245	245	4
222	222	5
151	151	5
171	171	5
60	60	1
185	185	7
234	234	1
118	144	1
157	176	1
194	194	5
18	19	5
178	180	2
81	81	5
59	59	4
164	192	5
80	80	3
118	119	1
193	210	3
51	51	4
163	189	1
62	75	1
94	94	4
192	193	1
152	195	2
182	183	2
179	185	1
230	245	2
55	158	1
16	51	2
205	205	4
77	83	1
94	98	2
5	42	1
163	242	2
247	248	2
182	182	1
196	223	2
173	174	1
174	174	4
74	90	2
58	58	4
78	93	3
38	44	1
43	43	1
29	48	2
100	100	1
176	177	2
31	52	1
73	73	1
93	110	3
169	169	3
193	194	4
116	116	6
189	215	2
14	57	2
119	119	2
240	248	3
35	35	3
22	26	1
208	209	2
103	103	3
203	229	1
77	119	2
79	79	3
158	158	1
207	207	6
163	175	1
153	153	2
202	202	5
192	192	2
176	176	5
105	107	1
153	191	2
236	241	2
217	218	3
62	110	2
40	42	1
5	72	2
3	31	1
172	172	2
117	236	1
84	84	2
154	154	4
226	226	5
79	80	1
163	164	1
42	44	1
56	56	5
73	75	3
100	119	1
85	85	2
101	102	1
68	68	4
224	224	2
249	249	2
187	189	1
147	198	1
202	204	1
40	119	1
162	186	2
203	211	3
162	163	1
83	83	4
166	166	4
65	66	1
31	56	3
173	181	4
195	195	3
109	110	1
186	186	3
177	178	4
49	59	2
112	112	2
147	147	1
4	4	1
111	112	1
25	26	1
238	238	2
12	12	2
219	220	1
11	11	1
121	144	2
75	102	2
224	225	1
73	97	2
20	76	1
29	206	1
150	156	3
211	211	3
16	45	1
214	216	1
73	74	4
159	159	2
111	111	2
60	61	2
85	99	2
88	89	2
117	117	3
31	32	1
176	182	2
196	197	1
72	95	2
61	61	2
85	86	1
164	190	1
67	67	1
104	104	2
68	92	1
3	30	1
17	33	1
44	44	2
189	189	1
66	67	1
96	96	2
33	39	1
187	211	2
16	16	3
165	214	2
190	191	1
72	73	2
26	26	3
9	27	2
55	56	1
155	156	2
2	53	1
159	166	3
220	220	2
221	222	1
239	239	4
47	47	1
87	89	1
184	184	4
219	239	1
98	98	2
95	98	1
111	146	1
210	243	2
105	105	1
16	60	1
241	243	2
18	34	4
161	208	1
223	224	1
198	199	1
60	77	1
193	195	1
242	243	1
50	50	1
232	232	2
178	179	2
10	10	1
187	190	1
95	95	1
234	246	2
168	178	3
87	88	1
151	185	1
217	222	1
231	231	1
57	83	2
45	45	1
175	224	1
223	232	1
209	211	1
60	75	1
99	106	4
75	115	1
26	64	1
72	74	1
224	234	1
152	157	1
52	53	1
159	231	1
187	188	2
70	70	1
32	32	1
91	91	1
18	35	1
167	181	1
210	211	1
247	247	1
173	242	1
40	40	1
48	49	1
76	76	2
35	44	1
63	63	1
38	38	1
57	58	2
205	230	1
85	94	1
107	107	1
50	113	1
82	82	1
63	64	1
62	62	1
9	10	1
58	61	1
207	226	1
216	216	1
38	45	1
119	120	1
159	187	1
24	24	1
18	48	1
175	176	1
235	235	1
80	100	1
22	65	1
