21	21	13
22	39	4
20	20	22
58	58	10
51	54	1
0	0	11
42	42	43
38	38	16
53	53	12
35	35	21
44	51	2
11	11	11
40	58	2
15	15	6
34	34	15
49	49	19
41	41	29
43	43	14
20	30	1
50	50	22
7	12	5
6	6	22
46	47	6
12	13	6
49	50	4
44	54	3
37	37	21
56	60	10
36	36	15
5	5	23
62	62	4
7	7	13
34	35	5
40	40	14
42	46	4
33	34	1
13	13	4
47	47	10
31	31	13
41	59	7
32	32	27
51	52	8
2	2	6
15	18	5
12	12	6
4	4	12
36	60	2
23	24	1
39	39	12
20	47	1
25	25	6
38	40	5
47	55	6
45	45	17
61	61	9
6	9	4
54	56	3
44	45	8
60	60	22
39	46	4
55	55	9
56	56	12
47	48	3
14	15	7
7	8	3
18	31	3
1	1	5
40	41	8
1	3	6
30	30	21
51	51	22
29	31	4
45	46	11
37	55	9
9	10	9
33	33	12
17	24	3
29	42	1
10	10	7
55	56	6
50	62	2
19	19	12
9	9	4
49	57	7
16	16	4
59	59	13
55	57	3
53	54	32
8	8	20
24	24	8
46	49	5
9	12	1
46	46	7
58	60	13
29	30	1
6	7	2
52	52	14
48	48	19
34	62	4
4	11	1
55	58	12
44	60	2
57	57	11
46	54	2
0	4	1
47	52	5
45	51	3
52	54	1
45	50	5
54	54	10
44	44	7
50	52	1
4	8	4
49	52	5
40	57	1
37	47	3
50	51	3
37	38	3
21	30	4
55	62	2
56	59	3
22	38	3
39	42	1
10	12	3
16	49	3
1	14	2
17	17	8
22	23	12
57	58	2
21	22	10
22	22	3
46	53	5
30	31	5
20	22	5
42	43	2
42	45	9
1	2	3
32	33	11
10	11	3
29	39	2
50	53	1
56	58	4
48	49	5
53	61	2
16	17	2
36	37	3
54	59	5
9	14	2
48	62	2
35	56	3
40	49	4
3	3	4
39	40	2
40	42	1
36	47	2
24	45	1
37	45	4
2	13	3
40	46	1
56	57	2
19	20	2
31	50	4
61	62	2
38	57	3
54	58	2
41	57	3
37	39	4
15	24	1
41	58	2
14	14	3
4	17	5
56	61	4
22	60	1
50	56	2
40	43	2
52	55	1
38	45	2
34	37	2
18	18	6
18	21	3
11	12	2
16	25	3
23	39	4
37	52	1
34	46	1
8	24	1
52	53	7
23	26	2
31	62	6
30	62	1
32	62	3
34	50	1
54	55	4
38	51	2
49	54	5
38	39	2
31	32	3
8	31	1
3	17	1
19	32	1
3	14	2
38	46	1
48	57	1
48	61	1
45	52	1
15	16	1
39	45	1
55	60	2
44	53	4
15	17	2
22	50	1
39	56	1
17	21	3
4	5	1
0	1	1
24	55	1
29	51	1
33	46	1
39	54	1
9	16	1
54	57	1
39	50	1
42	55	1
34	38	1
16	24	1
33	37	1
38	41	1
25	40	1
13	14	1
44	46	1
