80	80	3
36	36	2
127	151	1
0	0	3
112	112	3
13	14	1
125	125	4
105	106	1
30	30	2
14	15	4
45	47	2
106	106	2
37	120	1
82	142	3
38	38	6
29	29	1
107	107	4
46	46	5
114	115	3
82	82	6
49	49	1
156	156	5
129	131	2
57	57	3
33	33	6
75	75	6
66	66	3
109	109	1
63	64	1
77	77	1
90	90	6
47	48	1
41	41	5
66	80	3
37	37	4
118	121	2
40	42	1
73	73	3
70	71	2
40	40	4
64	98	1
93	106	1
29	31	3
76	76	4
27	97	4
135	135	3
132	132	2
128	150	1
132	134	2
120	121	4
84	84	5
41	127	2
143	144	1
10	49	1
128	131	2
101	101	3
69	69	3
31	32	2
18	19	2
129	129	1
138	139	1
90	92	1
11	31	2
13	42	1
144	144	1
110	112	2
19	35	1
119	119	2
72	94	1
95	95	9
91	91	4
92	102	2
79	80	1
22	22	3
119	120	5
105	105	2
15	15	7
90	91	3
145	145	2
147	147	6
148	148	3
89	95	1
136	136	4
67	67	2
44	44	2
31	31	1
88	89	1
40	41	3
140	141	1
118	118	4
3	4	3
84	85	1
88	109	3
22	23	2
8	39	1
88	88	1
44	125	1
98	98	2
27	27	2
108	109	2
7	7	1
22	32	1
92	93	3
4	4	1
112	113	6
8	11	2
29	34	1
54	54	1
36	140	1
114	114	3
131	132	1
64	64	4
17	43	1
124	124	2
52	52	4
146	146	1
11	48	2
14	14	4
116	116	6
62	63	1
9	9	5
47	47	1
26	26	5
0	1	1
47	51	2
130	130	4
88	90	2
104	144	1
152	154	1
99	99	2
150	150	1
27	156	1
137	137	1
139	139	2
34	35	1
52	55	1
96	96	1
146	147	1
42	43	2
28	28	2
86	86	2
113	113	1
10	10	2
129	135	3
17	18	3
75	128	1
8	9	2
8	8	2
86	90	1
67	68	1
5	5	2
63	96	1
75	76	5
157	158	2
51	51	3
131	133	4
7	8	2
1	1	2
6	6	1
31	69	1
21	21	4
155	155	3
66	68	2
108	111	1
138	138	2
107	110	1
34	34	1
29	30	1
142	154	2
23	26	2
6	99	1
95	96	1
56	56	1
117	150	2
100	100	2
158	158	1
83	83	2
38	52	1
16	48	2
120	120	1
7	17	1
41	116	1
123	123	6
12	55	1
89	89	3
31	68	1
11	11	2
32	36	1
12	12	1
71	71	4
52	53	1
18	47	2
125	143	1
79	82	1
113	145	1
54	95	1
41	43	2
84	127	1
121	156	2
139	140	1
32	32	1
92	92	1
131	131	1
78	113	1
41	118	1
149	149	1
17	17	1
79	79	2
25	25	1
83	143	1
24	24	1
116	118	2
10	11	1
3	22	1
38	39	1
11	62	1
127	127	1
19	19	1
93	93	1
133	133	2
23	139	1
134	134	1
116	117	1
23	23	1
76	77	1
135	137	1
96	97	2
93	95	1
70	70	2
109	110	1
50	50	1
87	87	1
102	102	1
135	136	1
122	122	1
28	50	1
35	35	2
145	151	1
130	133	1
47	127	1
