61	61	48
58	58	51
26	26	39
3	3	25
30	30	16
54	54	44
41	41	46
36	36	32
8	8	38
31	31	23
74	74	28
60	60	34
46	46	30
75	75	37
9	17	5
57	57	56
67	67	21
17	17	34
51	51	17
37	39	2
25	50	1
7	7	45
69	70	21
56	56	32
3	72	1
38	38	46
42	42	40
39	39	52
32	34	3
62	62	35
35	35	43
76	76	47
80	80	44
43	43	13
64	64	25
35	36	7
65	65	32
47	47	39
12	12	10
1	1	41
6	6	19
72	72	30
2	2	35
64	66	5
27	27	53
37	37	41
11	11	32
51	52	10
5	5	33
29	35	2
73	73	47
71	71	22
66	66	32
48	48	37
59	59	36
18	18	6
25	26	3
21	21	14
64	65	6
11	13	5
72	73	7
4	62	3
36	37	10
45	46	4
55	79	2
45	45	49
9	9	46
63	63	28
47	48	10
10	11	16
44	44	4
27	28	18
63	64	16
65	66	15
49	49	24
40	41	13
10	10	29
54	56	2
59	60	6
16	17	19
40	40	38
10	12	6
14	14	15
3	40	2
55	55	18
8	37	2
50	51	6
67	72	3
38	39	10
78	78	30
48	74	4
50	50	23
1	39	2
32	71	1
41	42	3
4	4	47
18	30	2
2	40	4
7	8	17
79	79	28
10	13	11
48	54	3
52	52	13
70	70	24
15	15	7
30	32	5
16	16	24
13	13	19
78	79	9
30	33	2
53	72	6
29	29	33
58	59	14
51	65	2
25	25	14
26	27	17
70	71	2
12	31	4
53	53	24
9	12	6
8	17	4
4	43	2
32	32	21
52	53	5
4	5	10
67	68	24
15	16	10
42	45	4
12	14	4
49	50	7
55	56	15
67	70	2
46	56	1
62	63	3
0	2	3
76	78	6
56	73	2
46	47	7
60	61	22
69	69	29
77	77	24
9	26	1
33	33	21
40	43	3
35	80	5
48	58	4
30	31	3
32	33	12
19	74	5
28	28	27
15	39	1
28	29	6
17	30	1
3	75	3
20	20	7
3	4	6
68	70	8
47	63	4
56	57	11
61	64	1
71	72	6
70	72	3
34	42	1
42	43	5
31	71	1
62	66	2
73	77	2
12	15	9
0	0	9
75	77	4
34	34	9
2	38	2
16	20	5
57	58	7
66	68	3
19	19	13
9	10	5
10	15	2
69	72	3
7	20	1
53	54	4
69	71	3
68	68	14
34	35	6
38	59	4
11	32	2
27	56	3
33	65	2
19	20	4
56	62	2
5	9	3
51	53	9
1	2	8
49	52	2
2	3	3
62	65	2
59	62	3
54	67	2
30	77	1
33	34	3
15	19	1
34	36	4
10	31	1
0	1	3
39	40	10
17	18	2
54	55	4
74	75	8
31	32	3
20	21	2
14	32	5
14	15	7
6	7	7
20	55	1
21	22	1
8	16	1
46	64	3
27	46	2
5	6	7
57	59	1
8	54	1
66	67	8
29	36	3
49	51	1
19	21	2
72	77	5
9	16	1
79	80	5
36	80	3
8	74	2
45	62	3
45	59	2
66	70	1
49	55	3
37	64	1
71	74	1
60	62	1
13	14	4
18	27	1
28	58	1
42	73	4
13	21	1
29	30	7
48	52	2
49	67	2
2	55	1
48	49	4
11	12	2
8	36	2
13	36	2
11	15	1
18	26	1
48	66	3
73	74	4
13	15	1
43	74	4
76	77	1
36	40	2
40	42	2
54	68	1
48	55	1
3	5	1
2	48	2
51	64	2
7	80	3
11	14	1
16	28	1
7	72	1
11	31	2
54	69	1
50	54	2
4	57	1
72	74	2
27	30	1
44	48	1
6	15	1
2	76	2
48	73	2
37	38	5
33	35	1
47	56	2
17	28	1
40	65	2
65	72	1
42	47	2
29	80	1
12	13	3
80	81	2
5	12	1
76	80	1
35	38	1
43	65	1
32	70	2
8	71	1
61	62	2
43	48	1
67	69	1
37	58	1
20	65	1
65	73	1
5	38	1
75	76	1
8	28	3
8	9	1
55	58	1
2	44	2
26	73	1
68	69	3
14	34	1
6	17	1
47	61	1
7	27	1
9	14	1
77	78	1
12	32	1
47	65	1
32	36	1
46	55	1
63	65	1
0	5	1
11	25	1
73	75	1
28	30	1
29	74	1
30	47	1
34	60	1
0	4	1
58	65	1
64	72	1
