82	82	22
50	50	4
9	10	9
34	34	14
23	24	7
1	6	2
133	139	6
57	57	14
59	61	2
101	124	8
134	134	21
57	67	3
98	98	13
61	61	29
128	131	1
97	97	22
117	117	10
130	130	24
62	62	14
89	104	3
88	88	22
134	138	5
133	133	29
38	38	23
81	81	6
91	91	13
114	114	14
13	14	6
132	132	18
120	120	12
14	35	2
123	124	10
31	32	4
47	48	4
54	56	4
131	131	23
133	135	6
34	85	5
136	136	9
96	96	14
88	89	5
27	27	28
20	20	10
25	25	14
31	96	2
13	15	3
102	102	17
32	33	2
17	17	10
111	132	2
19	107	5
23	39	4
29	29	21
49	52	3
58	58	10
121	131	2
16	16	12
42	42	15
39	40	8
95	95	9
86	87	4
48	48	17
79	80	5
19	19	13
135	139	2
66	66	18
17	19	5
38	104	3
124	124	23
140	141	6
128	128	32
0	1	4
65	65	10
67	67	25
80	80	14
143	144	1
25	32	1
139	140	11
47	49	6
70	70	5
59	62	2
81	82	11
20	21	11
101	102	10
22	102	2
118	118	22
117	118	9
28	28	16
126	126	25
102	103	12
113	113	10
110	111	5
59	59	18
143	143	16
60	61	6
63	64	7
3	3	14
65	66	5
40	40	12
144	145	2
97	140	1
79	79	15
74	74	10
105	114	3
119	119	20
22	22	19
68	69	1
144	144	11
124	126	4
137	137	17
50	56	3
133	140	3
131	132	6
51	52	13
39	39	23
26	26	22
52	52	14
122	122	12
20	90	4
87	87	14
56	140	1
60	60	13
63	63	19
92	92	12
114	118	3
26	106	3
1	4	4
49	60	4
77	77	12
111	130	2
37	87	2
21	22	5
103	103	26
12	14	2
4	4	8
2	33	3
54	54	13
31	31	7
58	67	3
56	56	9
4	5	4
115	115	4
111	111	24
47	78	1
12	13	7
34	36	10
101	101	19
33	94	3
92	108	3
32	32	8
53	53	12
71	72	5
13	16	4
58	59	14
100	100	15
8	38	5
11	11	7
129	129	17
122	143	1
2	3	1
138	138	16
75	76	8
84	84	21
49	50	10
18	18	14
26	107	3
102	142	3
134	135	11
124	125	7
90	90	11
77	78	5
102	141	1
24	25	4
68	73	2
135	135	12
18	22	4
116	117	8
82	86	1
91	98	2
105	107	1
8	17	1
133	134	10
89	90	4
116	116	17
30	30	14
53	61	7
64	65	11
26	39	2
24	24	7
49	49	18
1	21	2
63	65	1
22	143	2
8	8	20
142	142	31
106	106	12
21	92	1
136	139	1
76	76	16
118	136	2
146	146	8
123	123	13
37	37	23
32	105	2
71	106	3
136	137	8
15	15	8
6	10	3
85	106	7
89	89	10
51	51	5
81	140	3
102	128	3
10	10	11
108	108	16
53	135	3
126	127	10
72	73	10
99	99	18
62	81	3
105	105	5
55	55	15
125	133	4
72	72	17
6	109	2
113	133	6
25	98	2
49	51	4
127	130	2
127	127	18
130	142	1
40	41	5
3	5	12
67	68	5
29	30	5
114	115	4
72	76	1
140	140	26
132	133	6
17	27	5
110	131	5
64	64	5
99	104	1
135	137	2
9	9	17
50	58	4
68	70	3
8	9	1
34	133	1
15	64	3
47	47	9
18	19	9
102	124	2
117	140	1
107	109	4
108	109	3
139	139	13
66	67	10
113	132	2
71	87	7
105	110	3
51	93	2
80	122	9
26	27	6
97	107	4
59	60	4
121	122	4
121	127	2
38	39	4
17	90	1
85	85	6
86	86	8
6	6	11
87	88	5
36	36	10
2	2	13
52	53	4
76	79	5
94	95	3
33	33	21
74	75	1
32	98	1
77	106	2
115	117	2
2	4	7
70	73	5
105	106	5
122	133	1
38	103	1
110	110	4
0	0	9
140	143	4
93	94	5
126	129	1
22	23	2
138	139	8
41	41	9
78	78	7
35	36	9
28	29	5
3	9	2
130	131	9
23	23	12
141	141	12
10	11	5
145	145	9
112	112	7
35	51	1
0	2	5
14	15	7
43	74	1
118	126	3
99	118	3
128	129	6
125	139	2
14	73	4
105	108	2
52	76	2
87	101	3
1	142	2
25	38	4
43	43	3
91	92	6
137	138	11
27	28	2
104	109	2
72	87	1
78	106	6
38	61	4
120	137	4
71	92	1
57	62	2
117	123	2
62	64	1
77	129	2
94	104	2
12	37	3
14	14	7
61	75	3
122	125	3
119	120	6
0	143	5
88	90	2
97	98	11
13	13	12
23	25	4
34	107	2
21	21	4
63	79	3
46	47	2
115	132	1
79	115	2
75	75	14
119	129	2
118	120	2
31	34	2
119	121	3
83	85	2
48	49	1
127	128	1
24	99	2
24	100	3
32	85	2
136	138	3
99	100	4
16	59	4
92	93	2
116	118	1
64	79	3
20	51	3
107	108	2
123	133	2
46	70	4
28	117	1
69	141	1
118	125	3
56	58	2
71	71	14
90	91	4
47	80	2
109	109	7
104	104	12
113	116	3
5	5	7
71	84	1
60	76	6
25	33	1
41	42	3
69	69	7
18	117	4
24	27	2
76	84	1
84	90	1
69	84	3
68	68	6
125	125	18
8	10	3
60	73	3
50	51	4
52	56	1
8	26	2
19	30	3
42	94	2
3	4	5
117	133	1
6	90	1
8	29	1
129	130	3
81	115	1
95	117	2
1	1	9
35	35	7
38	98	2
100	101	3
94	94	1
121	124	3
85	93	2
107	107	6
58	63	1
19	20	5
84	85	2
63	70	4
142	143	4
112	131	2
93	123	2
70	87	2
124	128	2
109	111	4
93	132	2
131	133	3
76	77	4
9	25	2
63	75	3
73	98	2
62	63	5
75	77	2
85	105	4
53	56	1
51	70	4
42	68	1
129	138	1
93	93	4
56	134	2
121	121	6
37	38	1
33	34	1
125	129	4
145	146	3
120	132	2
58	61	3
103	104	6
30	31	1
66	69	3
112	121	3
17	18	4
95	107	2
134	139	2
141	142	2
37	133	2
73	73	10
14	36	3
34	35	1
98	104	4
68	75	2
69	72	2
105	115	1
120	121	2
87	144	5
119	144	1
50	53	2
6	37	1
60	77	5
57	58	1
42	43	1
96	98	2
41	129	2
103	119	3
21	104	1
113	118	1
48	74	2
124	127	2
55	66	2
37	65	1
113	117	2
98	107	4
16	24	1
26	104	3
13	35	1
85	86	3
103	121	4
129	142	2
129	143	1
109	114	2
57	75	2
112	113	2
125	134	1
46	89	1
21	42	1
13	36	1
16	36	2
119	126	1
137	139	3
87	105	1
87	94	1
48	60	3
18	20	1
122	124	2
23	50	3
68	87	1
92	97	3
90	96	2
87	112	1
85	125	5
81	83	1
96	105	2
38	101	1
114	117	5
125	137	1
15	16	2
55	69	1
138	141	1
10	35	2
9	18	3
77	79	2
105	140	1
18	119	1
87	92	1
96	107	4
76	78	1
36	37	2
137	141	1
102	125	2
75	92	1
67	73	1
43	54	1
78	84	1
112	115	2
38	41	1
9	21	5
140	142	2
48	63	2
16	66	2
52	135	1
55	56	6
68	74	1
23	27	1
97	115	2
112	127	1
70	72	2
88	91	1
73	74	3
78	94	1
49	58	1
74	81	4
69	71	1
40	102	2
92	122	2
42	62	1
33	37	1
98	122	1
67	89	1
79	91	3
78	79	3
98	99	1
115	116	7
26	94	1
20	36	1
33	50	1
83	96	2
66	72	2
55	67	1
122	123	4
91	93	4
33	85	1
125	127	2
9	20	1
9	14	3
69	70	2
22	101	2
98	108	1
48	72	1
69	74	2
86	93	1
87	106	1
5	7	1
47	70	1
99	102	2
9	19	2
26	145	2
8	13	2
21	27	2
64	66	1
125	128	1
74	99	1
14	83	1
39	105	1
69	81	3
27	87	1
131	134	4
11	31	1
47	71	1
3	31	1
127	129	2
131	140	1
61	65	2
75	80	2
142	144	1
76	87	2
50	52	1
100	103	1
64	69	3
54	57	2
83	83	1
57	64	2
135	138	1
0	67	1
10	12	1
92	104	1
101	104	1
75	86	1
136	140	2
1	2	2
74	80	1
82	96	2
47	61	2
5	6	2
20	91	1
96	97	1
107	112	2
123	137	1
16	20	2
87	90	1
12	12	1
54	55	1
39	127	1
8	41	2
118	142	1
35	107	1
22	27	1
113	114	1
31	33	1
57	59	2
51	135	1
122	127	1
6	12	1
111	112	1
122	128	1
120	142	1
115	119	1
117	144	1
58	62	2
59	66	2
84	86	2
118	119	1
81	122	1
106	113	1
20	73	1
32	110	1
42	63	1
37	59	1
5	30	1
76	133	1
128	130	3
36	85	1
80	83	1
79	124	1
15	23	2
71	90	1
70	71	1
138	140	1
21	95	1
1	33	1
24	30	1
9	12	1
80	81	3
125	130	1
74	87	2
48	80	1
109	130	2
74	90	1
37	89	1
106	118	1
73	85	1
56	57	1
128	142	1
6	18	1
101	123	1
93	141	2
42	120	1
119	131	1
0	30	1
79	142	1
49	59	1
110	122	1
75	88	1
130	139	1
95	96	2
10	13	1
90	95	2
87	95	1
10	14	1
55	57	1
27	67	1
127	135	1
4	57	1
77	136	1
48	103	1
104	105	1
112	118	1
37	48	1
20	92	1
31	109	1
114	121	1
