93	94	8
57	57	8
100	100	14
58	58	6
36	73	2
80	80	3
96	97	7
49	49	6
47	48	7
82	90	3
100	103	2
100	101	10
110	110	5
73	73	7
40	40	14
36	36	12
32	32	6
112	112	2
56	56	6
71	71	11
28	28	6
55	55	13
32	56	3
66	66	7
89	89	6
109	109	3
49	73	1
34	34	9
25	25	10
39	39	11
59	59	10
42	42	4
107	107	15
62	63	6
72	75	11
44	44	6
90	90	6
84	88	2
19	19	6
84	84	5
105	106	11
22	71	1
30	57	2
22	22	6
89	94	2
34	73	7
60	61	1
95	96	8
99	99	14
112	113	1
50	52	1
51	51	11
92	94	3
101	101	13
54	63	3
102	102	11
86	90	5
67	67	7
40	41	5
97	98	3
29	58	7
24	24	6
82	82	3
104	104	4
62	64	3
54	54	9
65	65	7
56	69	1
46	47	6
46	46	9
25	35	7
50	50	8
88	95	3
46	48	5
34	35	1
73	76	4
91	93	3
99	100	5
31	32	1
58	59	8
36	37	3
33	49	3
87	89	5
75	75	9
76	76	4
23	29	3
105	105	10
83	83	7
74	75	11
43	44	4
92	92	8
103	103	11
92	93	6
27	111	2
85	85	2
89	90	2
41	42	1
35	35	2
48	49	10
96	98	2
91	92	5
39	60	4
79	97	2
62	62	4
23	24	3
86	86	9
28	29	5
43	43	6
69	69	6
58	60	5
76	77	8
94	94	10
28	33	2
72	72	11
113	113	4
38	73	2
52	53	2
81	81	8
26	27	4
41	41	8
96	96	13
21	21	8
30	31	2
45	45	7
20	20	8
48	48	7
104	107	7
98	98	8
102	103	6
38	38	8
108	108	8
106	106	5
95	97	2
89	93	1
85	87	5
88	88	2
90	93	2
70	70	15
43	49	2
60	60	5
38	39	12
79	79	11
64	65	4
66	68	11
78	78	9
72	73	2
23	23	2
79	80	4
28	51	1
37	38	4
88	90	5
61	65	1
96	99	5
23	70	3
68	68	9
37	37	15
98	108	3
64	64	2
19	20	1
53	54	2
57	58	4
56	57	6
87	90	1
25	112	4
27	27	2
59	60	3
49	50	3
85	86	1
20	22	2
61	61	6
100	102	2
63	63	2
106	107	2
77	78	4
77	77	14
70	71	1
31	31	5
63	66	2
45	48	1
107	108	1
104	106	4
53	55	4
36	39	1
37	70	1
93	93	8
95	95	8
88	89	5
83	84	8
97	103	1
75	76	6
78	79	3
94	95	3
65	67	2
53	53	8
29	29	5
86	87	2
28	98	1
108	111	2
22	23	3
32	52	1
87	87	7
114	114	1
78	81	1
33	33	2
26	26	4
74	74	5
34	76	1
60	63	2
54	58	2
91	91	2
59	61	1
38	71	2
50	51	4
84	85	3
27	112	1
47	47	2
81	113	2
55	68	2
61	62	2
55	56	2
90	94	1
56	68	4
80	81	5
102	104	2
30	58	1
109	110	4
69	70	3
27	29	2
43	45	2
33	70	2
25	36	1
53	58	1
52	74	2
67	70	1
96	106	2
103	105	5
25	26	1
59	77	1
51	52	1
54	59	2
97	97	3
38	74	1
26	29	3
26	28	1
82	84	1
83	94	1
99	108	2
108	109	2
29	56	2
81	82	2
30	30	3
54	55	1
99	102	1
54	62	1
111	111	2
83	86	1
52	52	1
39	40	2
34	37	3
35	36	2
110	111	1
111	112	1
111	113	2
36	71	1
65	66	1
60	62	1
50	74	1
24	26	1
101	102	1
26	46	2
98	99	3
35	76	1
36	72	1
48	73	1
23	71	1
29	57	1
53	61	3
39	41	1
21	22	1
27	28	1
68	69	1
102	108	2
76	78	1
30	60	1
