130	130	5
86	88	4
128	128	6
89	89	4
78	79	2
85	85	6
77	77	13
127	127	10
132	132	10
106	111	1
118	118	9
43	43	6
60	61	6
7	7	6
57	58	5
13	27	3
131	131	1
87	106	6
55	55	8
119	119	9
87	100	5
121	121	2
122	128	5
83	83	11
71	71	10
45	49	2
70	71	1
110	111	3
45	45	4
29	29	6
10	11	2
63	65	5
24	24	3
123	124	1
34	35	8
121	122	6
65	65	14
70	135	1
117	118	4
9	9	1
52	55	7
112	112	12
33	33	11
34	34	7
117	119	3
125	125	18
67	67	10
84	84	5
80	81	3
118	120	7
2	3	5
93	93	11
1	2	7
19	20	3
129	130	3
130	131	6
5	5	4
38	38	2
127	128	5
52	57	1
99	99	14
80	80	11
82	82	4
126	127	5
96	96	5
106	112	4
20	20	7
86	87	3
95	116	1
117	132	1
105	105	17
79	79	10
62	63	2
116	116	10
84	118	2
113	131	6
107	110	1
91	91	7
106	106	2
12	12	3
129	129	6
88	100	1
42	42	9
78	78	11
86	86	9
76	77	1
73	74	2
124	124	9
67	68	3
52	53	2
108	110	5
83	86	5
122	122	11
45	85	3
26	45	3
110	130	3
74	114	2
66	66	10
68	77	1
43	82	2
69	69	10
123	123	2
52	52	5
59	60	7
108	109	2
20	23	1
113	113	12
1	1	4
62	62	6
35	35	4
47	50	1
124	125	3
16	16	3
64	65	1
84	85	4
74	74	10
37	45	2
43	81	2
53	93	2
122	127	2
82	83	2
116	133	2
55	56	2
60	60	8
103	103	3
64	64	8
68	68	5
32	32	3
106	107	4
94	95	1
63	68	2
115	116	3
14	15	4
81	116	1
122	123	3
18	18	5
87	87	9
120	120	9
16	17	1
25	25	6
89	105	1
61	62	1
0	0	4
8	8	2
94	94	7
54	55	4
75	75	13
73	73	4
106	132	1
88	88	4
88	101	2
86	100	2
134	134	8
14	14	10
92	101	4
68	80	4
97	97	9
44	84	4
51	51	2
4	4	3
83	106	1
21	22	1
56	67	2
38	53	3
89	104	1
2	2	2
88	90	4
102	102	6
84	109	4
63	63	5
61	61	7
26	26	4
15	16	1
76	120	1
104	104	6
8	10	3
44	44	7
131	133	1
96	115	1
56	59	2
117	117	5
88	91	5
119	120	3
13	13	4
47	51	1
129	131	3
50	60	2
100	117	2
37	38	4
18	43	5
52	54	3
44	86	2
63	66	2
67	99	3
93	109	2
15	15	4
23	24	1
45	61	3
32	33	2
83	117	4
25	26	1
96	98	1
57	57	3
86	97	5
13	14	2
98	98	7
31	31	1
114	115	3
95	96	5
111	113	3
92	92	2
84	86	3
75	104	1
68	69	1
112	134	1
89	90	4
4	5	1
113	135	1
30	31	2
7	49	2
52	91	1
100	101	2
108	131	2
109	113	2
42	77	2
22	61	3
67	131	3
14	21	1
77	78	6
115	115	4
54	57	1
95	95	6
53	53	3
124	126	1
100	100	3
98	99	2
69	80	1
9	25	1
121	133	1
16	18	4
56	61	1
21	23	1
10	10	2
119	131	4
116	119	2
48	48	4
19	19	1
7	9	1
48	61	1
108	108	2
47	47	2
83	107	2
63	79	1
56	130	2
37	51	1
83	88	2
59	59	4
49	104	2
107	107	3
85	100	2
49	50	1
76	76	2
26	105	1
101	101	2
98	100	1
38	43	1
18	19	1
105	133	1
82	117	1
70	70	1
10	44	1
84	117	1
111	111	1
120	121	3
81	99	2
0	114	2
133	133	1
21	21	1
3	3	1
114	134	1
72	72	5
71	102	1
56	56	4
55	98	1
57	59	1
9	49	1
44	45	2
52	133	1
65	134	2
74	94	2
23	23	2
69	74	1
90	90	2
77	99	1
58	58	1
95	103	3
79	80	1
88	97	1
11	11	1
81	98	2
77	79	1
109	115	2
93	94	1
91	96	2
83	132	1
31	129	1
50	50	1
45	48	4
29	30	1
79	81	1
7	22	1
123	129	1
4	34	1
79	119	1
126	126	2
66	68	1
133	134	1
52	59	1
76	121	1
61	94	1
52	105	3
106	110	1
60	89	1
14	16	1
27	27	1
36	37	1
108	111	1
58	59	1
122	132	1
