2	10	2
38	38	11
35	35	8
43	43	17
5	35	1
44	45	3
2	44	5
17	17	8
117	122	1
32	35	2
89	89	3
6	7	5
164	167	2
6	6	11
124	124	5
49	50	2
169	169	8
112	112	7
155	155	4
151	151	7
68	75	3
32	34	6
85	85	3
145	145	7
76	78	2
7	7	8
11	11	13
161	161	4
4	4	5
18	22	3
81	81	2
169	170	2
176	176	11
45	45	5
172	172	9
15	16	2
94	94	19
133	133	13
8	12	1
126	126	2
28	28	3
137	137	14
175	175	3
37	37	7
126	129	5
34	34	3
135	135	4
4	5	5
151	153	4
61	89	2
179	179	4
10	10	11
171	171	10
13	13	5
150	154	2
149	149	11
9	9	10
55	90	1
0	32	1
12	12	13
78	79	5
106	106	5
135	147	3
37	158	3
176	177	4
40	40	7
94	149	1
18	18	9
73	73	5
56	56	13
13	14	4
144	144	8
50	51	3
57	61	1
3	4	4
163	167	2
32	32	10
9	10	10
152	152	6
83	84	3
134	134	7
92	92	8
28	30	2
110	122	2
136	175	2
180	180	2
64	66	1
162	162	8
67	67	4
96	96	10
22	22	7
20	25	2
76	131	1
118	118	1
86	86	3
97	97	9
139	139	3
14	16	9
8	9	3
171	172	5
14	14	15
29	34	1
100	105	2
95	138	1
168	168	5
21	23	4
27	27	9
104	108	5
156	168	1
68	68	3
39	39	6
3	5	2
80	80	1
78	80	1
160	160	1
174	174	4
66	66	1
41	41	6
90	91	8
173	173	17
75	75	5
0	0	4
158	158	4
107	107	2
73	74	4
143	145	1
167	167	2
55	55	9
178	180	2
57	57	1
34	35	3
176	178	5
109	117	1
27	28	2
155	156	3
1	30	3
163	164	3
72	123	4
166	166	9
145	146	5
171	176	2
12	13	3
73	131	3
25	26	1
20	21	2
78	78	3
90	90	4
36	39	2
139	171	4
2	4	8
142	142	10
120	120	4
113	113	6
108	108	8
55	95	3
2	42	1
100	100	1
129	129	4
6	52	5
2	3	2
124	125	2
62	62	1
23	24	5
140	140	4
65	115	1
29	30	1
156	158	1
98	98	3
17	42	2
19	19	1
111	111	2
26	39	2
38	39	1
121	122	6
74	75	2
144	145	3
107	109	2
36	36	7
140	141	2
71	71	3
64	65	3
5	7	3
110	125	1
44	44	3
104	105	6
107	117	2
26	29	5
146	146	2
36	37	4
57	58	3
101	114	4
163	163	4
5	5	9
23	23	10
73	147	3
140	178	3
54	54	4
113	114	5
77	92	3
19	20	3
77	77	2
15	15	3
59	59	3
125	125	2
132	133	4
171	173	4
140	174	1
24	24	7
79	88	1
32	33	3
121	121	3
131	131	9
84	85	2
148	148	12
94	95	2
99	100	7
119	119	2
19	21	2
63	63	2
16	16	11
72	72	3
95	95	11
101	101	11
0	6	1
29	31	2
53	53	8
61	61	3
114	115	2
93	94	3
39	42	2
37	38	8
116	116	4
74	74	4
150	150	7
165	166	7
30	31	6
31	32	1
64	68	1
136	136	4
141	141	4
64	64	3
67	75	2
101	112	1
96	138	2
153	153	1
76	76	1
108	109	5
33	35	3
52	52	2
165	165	1
33	33	9
105	106	6
130	130	7
98	120	1
1	1	3
63	89	2
53	58	3
140	173	1
26	27	2
85	86	1
150	168	3
15	25	1
83	86	2
2	8	2
152	154	2
25	25	3
79	79	6
8	8	7
115	115	4
87	87	1
39	40	2
1	2	3
60	61	1
93	93	3
21	33	1
134	135	3
3	9	1
84	89	4
77	79	3
7	10	2
97	98	4
129	130	2
86	90	2
5	19	2
123	123	3
105	105	6
23	25	5
17	18	1
42	42	4
168	169	1
141	154	1
67	68	1
120	147	5
106	107	2
114	114	1
138	138	2
51	52	1
55	56	1
18	20	1
170	170	2
106	109	1
30	30	5
26	26	1
50	50	2
20	20	5
77	96	1
46	46	1
128	128	1
126	128	2
148	149	3
149	150	4
110	110	2
114	171	2
102	102	2
26	42	1
54	55	1
35	37	1
81	86	3
80	94	2
91	91	3
117	123	3
147	169	2
163	165	1
158	159	2
122	173	2
10	11	3
40	41	1
147	166	2
97	112	1
71	72	2
29	40	2
143	143	5
166	175	2
11	16	1
175	176	1
130	134	1
18	19	1
117	118	1
52	53	3
119	120	2
29	29	2
42	43	4
51	54	1
14	31	1
98	102	1
95	162	2
88	90	2
157	157	1
84	84	1
90	93	1
11	12	3
16	23	1
1	20	1
147	147	1
19	34	1
13	15	2
51	51	5
122	122	1
116	117	2
105	107	2
66	67	1
109	124	5
177	177	1
114	163	1
58	176	1
94	103	1
123	131	1
35	36	2
102	103	2
50	52	1
27	32	1
2	2	1
102	132	2
23	28	1
107	108	1
161	162	2
117	129	1
143	144	1
119	163	2
5	6	1
88	88	2
99	99	2
53	57	2
103	104	1
132	132	1
78	85	1
164	164	1
65	66	1
76	77	1
139	140	1
91	92	1
58	58	1
22	25	1
137	138	1
82	82	1
141	142	1
