150	151	2
11	12	9
108	136	2
82	91	1
40	40	9
118	118	8
73	75	3
53	53	6
81	81	3
124	145	2
6	6	5
56	57	3
65	85	2
119	119	7
11	51	5
40	41	2
6	51	2
108	146	3
10	10	6
35	35	1
120	139	1
38	54	2
75	75	6
79	79	3
127	143	3
64	64	5
18	22	2
54	54	5
126	127	3
96	96	9
36	36	8
138	138	3
63	86	1
122	135	5
31	31	2
104	134	1
70	70	5
90	90	3
55	55	5
35	36	4
49	76	2
74	74	4
129	130	1
103	103	6
80	97	2
146	146	5
126	126	3
97	97	4
66	94	1
53	58	2
68	73	2
30	37	4
140	140	2
133	133	6
101	101	4
93	93	1
44	44	8
3	23	1
88	88	4
135	135	2
66	66	5
49	51	2
121	121	2
84	92	2
26	26	7
67	67	3
9	29	2
9	9	9
84	84	2
25	86	1
8	43	1
47	48	3
57	57	4
41	41	6
131	132	1
42	42	5
4	12	2
50	50	4
108	138	3
21	21	1
22	22	6
66	99	2
5	27	1
98	130	2
15	15	2
77	77	4
65	66	3
129	129	1
16	17	3
85	85	1
65	67	2
139	142	3
34	36	4
103	104	3
48	48	5
137	137	1
5	5	1
104	104	2
69	70	3
18	18	3
67	75	1
63	64	6
46	46	2
20	25	5
65	75	6
43	43	4
65	65	4
68	68	4
7	8	2
41	43	1
19	24	2
63	84	2
117	117	4
135	152	2
68	72	2
102	109	4
123	130	1
101	106	3
73	80	3
33	34	2
15	24	2
114	150	1
23	25	1
75	88	1
27	27	8
131	142	3
76	76	5
12	12	4
104	110	3
149	151	1
125	125	6
29	30	2
48	57	2
82	142	1
11	29	2
42	43	2
26	37	3
93	138	1
104	105	3
22	31	1
74	83	1
107	107	1
127	129	1
132	139	3
135	151	1
95	95	4
145	146	2
140	141	1
154	154	1
105	139	1
72	75	2
13	14	3
51	54	3
138	139	6
96	99	1
92	95	2
9	10	1
33	51	3
84	94	2
63	63	3
77	79	5
41	54	1
6	14	1
62	62	3
50	52	1
20	20	1
30	30	4
9	41	1
46	53	2
8	8	2
42	78	1
128	145	1
13	13	3
130	130	2
12	22	1
22	39	1
73	78	1
80	85	3
66	73	3
111	111	2
41	42	2
151	151	4
21	31	2
72	72	3
39	40	2
153	153	3
44	45	1
130	143	1
82	82	3
94	94	1
29	29	4
85	86	1
68	71	2
123	143	1
78	82	2
111	148	1
4	26	1
23	24	3
17	25	2
78	98	1
8	9	2
129	131	1
94	95	1
51	51	3
10	14	2
86	93	2
17	19	2
27	29	1
112	112	4
17	17	3
108	108	2
23	23	3
45	46	1
106	111	2
49	49	1
28	28	2
108	109	3
78	84	1
86	148	1
6	38	1
134	134	2
123	135	2
131	131	2
13	47	1
94	99	1
100	102	1
15	17	3
113	149	1
83	83	3
5	25	2
115	115	1
19	19	1
32	68	1
34	34	3
120	146	2
6	7	1
4	4	1
78	87	1
42	46	3
110	110	3
14	14	1
99	100	1
109	115	2
128	131	2
55	57	1
125	126	1
25	72	1
25	25	3
45	73	1
107	113	2
45	45	2
142	142	4
24	24	1
20	24	1
32	32	1
40	46	4
68	69	1
6	10	1
74	85	1
141	141	2
135	136	1
36	67	2
116	117	1
116	116	2
26	28	1
136	148	1
98	98	1
86	97	2
86	108	1
73	73	1
78	78	1
137	144	1
25	31	1
128	128	2
138	147	1
11	11	1
3	19	1
39	39	1
109	109	1
81	86	2
82	89	1
22	23	1
69	71	1
11	30	1
77	84	1
15	16	1
131	138	1
11	27	1
126	130	2
109	134	2
62	64	2
144	145	1
20	21	1
13	24	1
24	67	2
69	72	2
141	142	2
47	47	1
19	38	2
121	122	1
78	95	1
16	20	1
16	19	1
85	93	1
83	86	1
111	113	1
6	11	1
147	147	1
95	97	1
92	93	1
