103	103	10
36	36	11
68	68	12
90	91	4
11	25	1
38	38	6
48	48	9
35	42	3
18	18	6
76	76	7
63	101	1
11	11	9
17	18	1
21	21	1
64	64	11
29	29	9
51	51	4
83	83	15
66	66	16
38	39	2
9	9	12
98	100	3
27	78	2
93	93	4
68	69	1
35	35	15
23	23	12
25	47	1
63	63	11
121	122	7
78	78	9
45	45	7
75	76	7
5	5	6
95	100	2
28	28	4
33	125	2
131	133	5
76	77	5
61	72	4
129	129	6
61	111	1
33	33	10
13	14	3
31	31	14
112	112	2
25	93	2
87	88	7
74	75	3
34	34	7
12	13	7
7	7	2
125	127	2
117	118	1
59	128	1
46	46	7
65	66	6
9	132	6
25	85	2
61	62	7
93	94	2
36	44	2
37	40	3
92	92	2
13	13	5
72	72	7
59	59	7
8	8	3
44	44	7
90	90	6
75	75	10
35	94	3
71	72	2
100	101	2
12	12	3
109	109	3
119	123	3
88	88	6
18	85	2
5	47	2
11	17	2
22	55	2
20	22	2
127	127	3
94	94	10
4	89	2
115	116	2
111	112	3
36	75	1
15	15	13
4	4	6
10	10	4
36	39	2
41	134	1
56	58	5
49	49	3
2	2	5
26	62	2
65	65	4
32	32	8
19	19	2
61	61	11
28	96	1
95	98	3
79	81	4
47	47	4
82	85	1
122	122	4
62	72	2
0	0	5
87	87	4
102	104	2
27	27	6
65	67	4
73	73	5
3	3	2
132	133	4
71	71	5
19	20	2
60	60	7
33	34	2
57	57	6
84	84	4
96	96	6
31	106	3
30	30	8
105	105	2
81	81	8
18	20	1
92	93	5
29	30	6
100	100	5
61	71	3
126	126	5
81	82	4
20	20	7
55	97	1
5	6	1
134	134	2
77	77	2
43	124	2
97	98	2
124	124	3
78	79	5
120	121	4
109	110	2
25	25	2
34	35	1
131	132	1
6	7	2
91	123	1
56	60	2
95	95	4
115	134	1
20	46	1
34	46	2
79	80	1
36	133	3
27	92	3
48	49	2
96	97	1
33	83	3
117	117	2
62	62	8
79	79	1
50	50	1
39	40	2
45	64	1
27	96	2
27	44	4
62	63	3
17	17	5
26	27	2
81	84	2
6	29	3
98	98	9
18	41	1
25	62	1
46	47	3
68	74	2
102	102	4
121	121	6
104	105	1
99	99	4
77	79	1
28	77	1
26	26	2
5	12	1
63	65	2
116	116	4
108	109	1
70	70	3
91	113	1
20	129	2
124	125	1
73	74	5
22	56	1
118	118	1
32	33	2
37	37	1
114	115	2
123	123	5
15	23	5
27	77	2
91	91	4
37	39	1
35	36	2
101	101	1
10	12	1
60	61	1
39	41	1
33	76	3
55	55	2
35	75	2
41	41	4
93	98	5
69	69	3
17	60	2
20	92	1
130	130	6
69	70	5
36	37	2
33	46	1
59	60	3
90	124	2
27	93	2
122	123	1
98	99	2
58	58	3
110	111	1
85	86	3
119	119	4
90	92	3
59	83	1
80	80	2
63	69	2
114	114	2
6	28	1
86	86	4
30	32	1
101	102	1
23	45	1
5	28	1
28	97	1
106	106	3
21	22	3
74	74	2
89	89	1
20	21	1
112	113	2
97	97	1
49	86	1
77	78	3
45	74	1
63	64	2
20	31	1
56	56	5
4	76	1
15	46	1
5	88	1
6	6	2
14	46	1
22	131	1
20	131	1
19	61	4
34	75	1
116	117	1
47	48	1
41	42	3
82	82	1
103	115	1
30	125	1
9	10	3
57	58	2
8	29	1
16	16	1
106	107	2
29	66	2
66	67	1
1	1	1
42	42	2
120	120	2
56	98	1
17	130	1
72	76	1
48	86	1
115	115	2
44	45	4
124	126	1
39	39	2
24	81	1
126	127	1
80	81	3
43	43	1
97	100	1
72	73	1
40	40	4
17	57	1
51	56	2
15	16	1
8	11	2
33	79	1
28	79	1
97	99	1
113	116	2
99	100	2
108	110	1
107	108	1
101	106	1
5	84	1
126	128	1
125	125	1
8	25	1
114	121	1
129	130	1
111	111	2
91	103	1
67	68	1
86	87	2
80	82	1
89	90	1
84	85	1
