134	134	11
176	176	13
76	76	15
23	23	24
161	161	6
183	183	20
160	160	4
106	106	18
127	127	9
113	113	13
34	34	6
2	2	6
26	27	4
94	95	9
5	6	8
80	84	3
175	175	14
20	29	2
136	145	3
26	44	1
171	171	14
85	85	12
1	1	9
125	126	13
152	161	3
102	102	10
132	134	2
89	89	13
13	13	20
135	140	2
173	173	7
76	87	7
12	13	4
193	193	8
57	57	16
8	24	4
149	149	12
43	43	5
153	153	14
145	145	15
15	32	3
151	151	10
176	189	4
74	74	5
176	177	9
116	117	4
146	146	16
103	103	10
39	40	3
144	144	7
122	122	25
138	138	23
79	79	16
17	31	2
10	10	17
162	163	4
175	176	9
40	40	10
9	41	6
62	63	3
190	192	6
49	49	22
194	194	16
114	115	6
136	136	8
141	141	5
46	46	21
179	188	3
117	118	5
165	166	5
10	14	1
105	105	3
17	17	11
7	8	1
137	137	7
141	194	2
154	154	13
7	34	6
142	143	5
137	149	2
59	59	7
170	170	14
119	119	11
64	64	8
194	195	6
138	139	2
132	133	7
28	28	11
114	114	3
71	77	1
150	171	1
8	8	12
157	157	19
16	16	3
133	134	2
3	5	3
9	9	14
100	100	11
150	150	22
128	128	15
131	131	4
39	39	21
140	142	4
115	115	6
38	38	19
186	186	3
1	2	4
63	87	6
184	184	17
79	80	3
177	177	16
144	159	1
17	34	2
162	162	17
44	114	4
105	113	1
5	51	5
177	179	3
17	18	5
69	70	3
150	152	1
12	12	17
63	63	6
107	108	9
113	158	1
48	125	1
3	3	8
174	175	20
192	192	4
183	186	3
160	161	7
179	184	3
62	62	6
6	26	5
115	119	4
189	189	21
155	165	3
51	51	15
130	130	7
50	51	11
178	178	10
126	126	12
180	184	2
114	156	3
139	139	14
94	112	2
190	190	13
185	186	9
2	5	5
181	181	6
168	168	18
73	73	9
192	193	8
45	45	18
196	196	7
27	32	1
67	67	14
24	24	11
8	65	2
45	58	3
101	101	17
63	179	3
187	187	14
7	7	11
32	33	7
116	118	3
34	36	2
173	174	8
55	55	15
99	99	9
138	170	4
132	132	2
4	4	6
69	69	4
44	45	2
143	145	9
148	148	13
178	190	3
152	153	5
162	169	3
48	48	10
42	43	2
159	170	3
8	9	1
72	72	3
195	196	5
42	59	3
112	112	21
191	191	7
18	18	3
12	14	3
37	37	11
36	36	18
58	58	11
3	23	5
136	142	5
111	112	3
78	89	2
159	160	4
5	5	10
33	34	1
25	25	6
152	152	8
38	41	3
163	163	20
106	107	5
165	167	11
7	19	2
3	37	2
15	15	13
166	166	15
47	48	5
4	5	2
94	105	4
50	50	8
123	123	20
176	178	3
171	174	2
161	164	4
93	94	4
41	129	2
0	9	4
186	187	3
49	52	1
77	77	2
111	111	18
115	116	8
117	117	5
109	111	1
184	185	4
172	172	12
50	181	2
130	132	2
102	115	2
5	37	4
168	169	5
36	37	5
65	65	7
156	156	13
6	7	4
34	35	4
105	106	2
120	120	7
169	169	12
25	26	6
88	88	2
167	167	7
43	44	7
122	171	2
60	60	2
71	72	2
67	68	4
188	188	17
116	116	14
9	24	3
137	138	2
46	47	2
121	122	6
74	75	6
59	61	1
142	142	3
4	60	1
140	140	8
161	162	16
138	140	5
130	134	1
82	180	2
109	109	11
168	194	2
33	33	9
27	27	11
22	22	7
26	26	16
19	40	7
10	45	2
40	89	3
56	56	11
24	27	2
128	129	1
183	184	1
152	172	1
99	104	4
104	104	5
150	155	1
21	28	2
35	35	5
30	30	19
96	96	7
90	90	2
81	89	5
186	193	2
143	149	2
180	181	5
166	167	9
185	185	7
154	161	10
15	16	11
95	96	1
16	32	6
25	29	4
121	121	8
87	87	6
133	133	8
88	93	1
159	169	1
68	68	2
171	193	2
84	85	2
49	196	2
165	165	10
31	31	8
42	58	5
94	94	11
122	131	2
132	136	2
47	47	12
124	124	9
180	180	10
53	53	15
109	110	1
108	109	2
174	174	8
59	81	1
107	107	14
6	6	6
86	86	3
76	79	2
52	52	7
155	155	9
180	192	5
123	172	2
2	14	1
19	21	1
44	44	17
2	3	3
167	191	2
197	197	2
123	124	6
54	54	8
30	56	1
172	174	2
159	162	4
164	167	3
51	58	4
187	188	9
80	80	8
8	35	2
149	151	11
8	39	2
181	182	6
120	133	3
51	57	1
104	105	2
23	58	2
188	192	1
98	99	3
24	25	2
56	57	4
3	38	1
20	20	8
68	76	1
188	195	6
139	172	2
153	154	2
72	78	4
21	21	12
70	70	8
143	154	1
131	135	4
157	158	5
161	177	5
0	0	14
139	143	1
151	152	5
154	166	1
182	182	14
158	158	8
14	48	2
168	181	2
81	132	1
171	172	5
190	191	3
169	170	5
145	146	9
55	56	2
155	156	13
143	143	6
95	95	9
121	129	2
93	100	4
120	156	4
40	41	6
114	147	4
18	19	2
33	37	2
14	14	5
159	159	7
81	84	1
150	169	2
173	175	3
62	82	1
0	71	2
183	194	1
120	121	3
106	108	3
46	122	1
182	193	4
121	136	1
84	84	2
182	194	3
123	129	2
160	171	3
67	87	3
129	129	8
164	178	1
39	63	5
183	195	2
156	166	2
63	180	3
9	51	3
21	22	8
189	193	1
103	104	2
141	172	2
114	196	4
134	135	6
6	8	4
49	55	1
139	140	3
52	53	1
10	13	3
52	56	3
46	57	1
195	195	9
88	129	2
27	31	3
98	100	1
132	135	1
41	41	4
104	124	2
81	81	5
87	88	4
179	190	10
179	180	8
174	177	4
134	153	1
180	182	2
35	36	2
66	132	3
2	19	1
118	130	3
170	171	6
9	35	4
24	33	4
10	94	2
69	78	3
1	13	2
122	196	3
153	155	4
136	137	2
42	42	5
19	19	6
22	23	3
118	192	1
16	18	1
20	23	2
78	78	2
83	83	5
108	108	2
193	194	1
66	77	3
191	192	2
152	187	1
178	179	4
77	78	3
163	164	1
2	8	3
136	146	1
145	147	2
36	64	1
154	155	1
103	108	2
97	97	2
86	87	1
182	183	5
148	166	1
150	151	1
50	82	2
96	100	2
29	30	3
110	110	3
27	53	2
5	8	4
158	159	1
118	133	1
129	130	2
129	134	4
182	189	4
101	114	1
0	68	2
81	82	1
179	179	7
62	180	1
11	46	4
113	145	1
33	71	2
63	81	3
9	17	3
71	71	1
65	84	3
7	192	1
102	103	3
5	7	3
67	75	3
51	60	3
7	39	1
167	190	2
118	118	3
98	98	1
179	185	1
53	55	1
89	130	4
51	59	4
146	155	2
165	182	1
70	71	2
94	97	1
4	8	1
163	172	1
136	157	3
137	164	1
167	169	2
93	104	3
19	35	1
134	142	2
65	75	2
159	163	3
119	134	2
28	29	2
159	161	2
150	167	1
163	169	4
44	150	1
37	180	1
61	62	1
188	194	5
5	17	2
9	10	1
143	152	1
104	107	2
99	103	1
102	114	1
164	182	1
5	73	2
37	78	2
58	81	3
189	190	3
154	158	3
137	143	2
172	173	1
137	166	3
59	62	1
163	167	3
184	195	2
6	191	2
0	2	2
97	98	1
6	27	1
22	28	1
136	138	5
157	160	1
3	8	3
176	197	1
101	105	2
49	50	1
21	25	1
147	147	1
150	156	1
29	29	3
96	97	2
167	194	1
22	40	1
64	73	1
115	156	1
139	170	2
10	93	2
152	160	1
121	123	1
130	131	2
51	192	2
159	165	2
65	66	1
82	82	3
124	125	1
138	158	2
93	93	4
112	113	2
23	39	2
83	84	1
184	186	3
155	181	2
76	124	4
146	147	1
102	129	2
30	37	2
178	181	1
8	18	1
125	125	1
69	80	1
136	139	1
105	107	2
154	162	1
191	197	1
143	144	4
147	165	1
124	134	3
32	32	2
133	135	1
40	42	1
16	17	3
163	165	2
169	187	2
169	174	1
41	86	1
154	190	1
164	165	1
118	122	1
11	74	1
81	83	1
149	150	1
177	180	1
48	49	3
179	197	1
7	26	1
43	45	1
175	177	2
183	187	1
142	148	1
10	38	3
190	197	1
181	183	1
64	65	1
162	165	1
87	103	1
157	180	1
155	163	1
189	191	1
114	150	1
144	145	2
6	60	1
135	135	1
30	57	1
26	39	2
15	37	1
144	152	1
194	196	1
162	174	1
7	30	1
13	14	1
160	192	1
