38	38	10
115	115	5
117	117	6
192	192	2
106	106	4
178	179	2
112	123	2
179	179	8
190	191	6
19	175	1
128	128	3
3	4	3
184	184	7
22	85	1
156	173	3
109	110	5
111	112	5
167	167	11
78	122	1
170	170	16
2	7	1
36	36	15
30	30	3
5	26	4
14	16	2
44	46	5
42	72	2
57	57	12
7	7	4
166	166	5
155	177	4
55	56	2
143	143	12
126	127	10
132	139	1
16	16	6
151	151	13
46	46	3
148	148	4
111	111	6
185	185	7
153	153	16
156	156	3
175	178	4
17	17	2
195	195	1
52	54	2
176	176	2
189	189	3
51	51	7
43	43	3
61	61	2
25	58	2
109	131	1
20	22	4
45	46	3
101	101	11
25	25	1
165	165	10
180	181	1
34	34	7
161	162	5
76	76	7
180	180	8
182	182	4
41	41	1
41	71	4
115	179	2
69	97	1
193	193	5
118	118	2
187	187	9
44	44	4
22	22	2
155	155	2
10	48	2
162	163	8
158	159	2
147	147	3
126	131	3
77	77	1
135	136	3
20	40	1
112	112	10
38	44	2
29	29	8
157	159	2
136	136	8
132	133	1
119	153	2
59	59	4
4	4	5
164	167	1
103	104	3
73	116	1
144	182	1
46	57	3
15	80	4
103	103	2
157	168	2
100	100	2
191	191	8
62	82	1
128	129	6
93	96	3
101	107	2
48	48	7
125	150	1
104	104	2
174	175	2
172	173	1
10	10	7
19	44	2
30	31	3
67	68	4
77	78	2
42	44	5
196	196	16
164	164	7
171	172	3
9	51	1
178	180	3
43	44	6
16	17	7
117	118	4
165	166	2
1	10	3
159	163	1
58	58	5
127	127	10
160	160	11
194	194	5
168	169	7
117	149	2
47	47	4
35	82	1
5	5	2
0	0	3
42	42	3
56	56	6
85	85	1
45	45	4
167	168	3
173	173	5
141	141	12
37	37	6
116	116	4
110	110	2
134	183	2
114	114	3
136	137	2
115	144	1
177	178	1
23	23	8
100	103	2
142	142	8
107	108	5
158	158	3
90	90	5
67	102	2
174	174	3
126	126	2
157	158	2
175	175	3
113	122	1
84	84	3
191	192	4
42	62	1
167	169	3
173	174	3
129	129	3
149	149	3
88	88	4
24	24	3
190	190	5
7	8	1
137	137	2
9	14	2
14	14	7
124	125	2
68	68	3
137	138	3
9	10	3
168	168	1
54	55	2
162	167	4
9	9	3
107	107	8
31	31	4
11	11	11
49	50	2
77	81	1
21	21	2
39	39	2
3	3	3
172	172	5
178	178	4
73	75	4
48	49	3
78	83	2
112	122	2
17	19	1
23	47	2
177	177	11
23	83	3
130	155	3
187	188	7
157	157	5
64	68	4
179	180	4
17	150	1
102	103	1
121	121	2
118	130	2
102	102	2
78	150	1
133	140	1
133	133	2
3	59	1
80	80	1
123	138	1
20	20	4
145	146	4
58	59	11
162	162	1
119	119	8
34	39	3
96	99	2
17	18	6
9	18	3
27	27	3
169	170	1
123	124	1
53	54	2
66	102	1
139	139	1
86	87	4
4	10	1
40	41	7
164	182	1
33	33	10
84	85	1
6	7	4
16	79	1
52	52	3
188	188	6
9	45	1
86	86	2
186	187	2
21	174	1
130	130	7
12	12	1
193	194	3
156	182	2
197	197	6
78	121	2
132	158	1
11	14	1
83	84	1
150	151	2
3	6	3
54	54	5
114	119	1
49	49	2
163	163	4
118	154	1
171	171	5
155	156	2
110	123	3
81	81	1
64	64	3
148	184	1
161	164	2
108	108	4
107	111	3
50	51	2
4	58	4
72	72	1
74	74	1
6	6	2
147	148	2
186	186	4
176	177	4
131	131	5
55	55	1
32	33	1
108	112	2
138	139	1
133	135	1
98	98	2
71	72	1
134	134	3
0	86	1
39	41	1
94	94	7
182	183	4
99	99	1
107	109	3
127	128	1
69	69	2
17	44	3
108	139	1
144	175	2
35	36	1
154	155	3
27	83	4
96	96	3
132	132	6
132	135	1
94	96	3
125	125	2
152	154	1
22	83	1
120	120	4
121	122	2
6	56	3
169	169	1
49	57	1
113	114	3
154	154	3
20	21	2
170	172	4
32	54	1
59	61	2
107	128	2
181	182	1
63	63	4
10	11	1
7	27	1
67	67	1
159	159	5
132	152	3
33	34	1
113	113	2
5	8	1
108	141	3
101	102	1
13	14	2
17	21	1
177	179	2
143	172	2
98	105	2
37	38	1
152	152	5
26	26	2
9	174	1
5	7	1
2	2	2
77	79	1
35	35	5
105	106	1
109	109	3
43	83	1
53	53	2
131	132	1
163	165	3
117	155	2
89	153	1
122	124	2
163	182	2
18	18	3
161	163	3
166	167	1
162	164	1
68	98	2
163	179	1
15	15	3
34	68	2
131	153	1
81	82	2
123	123	1
83	102	1
73	74	3
131	134	1
122	122	6
161	161	3
161	165	1
160	166	1
156	157	2
21	175	1
116	168	2
114	171	2
102	106	1
168	172	1
34	35	1
117	154	2
115	140	2
143	155	1
58	62	2
120	121	1
176	181	1
8	28	1
134	197	1
117	181	2
183	191	1
0	4	2
65	65	4
13	13	1
183	183	3
8	81	1
78	151	2
86	162	1
139	140	2
145	147	1
173	178	1
10	154	1
73	73	1
39	87	2
23	87	2
22	84	2
52	56	1
181	181	1
18	81	1
131	197	1
153	154	2
138	138	1
132	157	1
195	196	1
21	26	1
111	138	1
0	1	1
1	1	1
145	175	1
72	73	1
119	154	1
50	50	2
192	193	2
102	105	1
12	13	2
128	130	2
66	66	1
143	173	1
170	171	1
43	87	1
24	25	1
139	154	1
93	93	1
130	131	1
41	74	1
16	18	1
111	131	2
105	105	1
4	39	1
137	183	1
8	8	1
9	28	1
140	140	2
18	19	1
40	40	3
28	29	1
152	153	2
114	115	1
66	67	1
102	104	1
158	169	1
60	61	1
133	160	1
88	89	1
127	186	1
164	165	1
144	144	1
137	144	1
160	172	1
131	139	1
118	155	1
161	175	2
33	42	1
1	59	1
82	97	1
2	6	1
86	95	1
137	147	1
155	158	1
29	30	1
