0	121	1
182	183	5
82	83	11
34	34	3
19	19	23
24	24	3
130	130	15
90	90	12
28	32	5
71	71	5
70	70	7
115	117	3
150	183	5
129	129	13
101	102	3
115	116	9
142	142	4
143	147	3
12	14	9
10	13	1
83	85	3
118	118	6
176	178	3
123	125	4
140	140	5
158	175	3
156	189	4
146	146	6
149	149	6
106	107	3
161	161	5
158	164	5
24	31	2
21	21	3
57	57	6
105	108	3
0	0	7
143	175	5
37	40	1
108	110	9
26	26	4
142	143	3
162	162	9
147	148	2
170	173	2
78	83	4
94	94	4
32	34	5
14	14	4
120	123	3
121	121	6
58	64	4
63	105	4
104	105	2
27	27	2
179	181	5
97	101	1
106	109	4
26	27	1
187	187	6
179	180	3
174	174	9
4	4	7
124	124	3
179	179	7
60	68	4
40	40	5
117	117	6
29	30	9
175	175	7
134	134	3
47	48	1
41	54	4
127	127	7
61	62	4
67	104	3
86	86	6
185	185	14
11	13	1
3	3	4
35	114	1
80	86	3
128	142	1
17	17	4
45	45	9
66	67	2
92	92	7
13	13	4
165	165	6
16	16	8
58	58	7
111	115	3
46	46	2
80	80	4
56	56	3
170	171	3
5	37	2
10	10	8
6	6	7
132	133	4
164	164	8
180	181	4
159	159	2
121	122	5
173	173	4
73	145	3
62	63	3
36	37	2
64	105	6
87	88	2
34	36	2
143	146	3
75	92	1
120	120	4
108	108	4
157	157	8
138	139	3
184	184	11
92	93	6
178	178	4
162	163	4
137	137	2
108	111	5
66	66	3
143	144	2
123	124	3
158	158	2
152	152	3
31	32	3
172	172	12
21	33	4
155	155	10
116	118	6
30	31	3
22	22	10
44	44	4
125	125	11
74	106	3
126	126	2
170	170	7
102	102	3
156	156	3
101	101	2
177	177	5
32	32	3
66	84	1
33	34	6
16	21	3
150	151	5
186	187	5
127	128	6
85	86	9
100	100	8
168	168	5
38	38	1
67	68	3
14	18	5
87	87	1
145	145	12
141	141	5
178	179	1
22	34	4
42	42	1
169	169	7
115	115	1
93	93	6
33	33	2
60	60	1
138	138	1
122	125	1
5	5	4
98	100	5
156	158	2
139	139	3
4	6	8
8	8	10
78	78	3
15	15	7
172	173	4
12	12	2
63	64	1
1	1	2
164	165	3
71	75	2
47	47	4
98	98	3
29	35	1
2	24	3
81	83	3
55	56	3
88	116	3
53	53	6
19	20	5
33	121	3
99	100	2
113	114	4
58	60	1
153	153	5
25	32	2
28	29	2
156	175	2
1	4	1
185	186	6
6	7	8
56	59	3
182	187	1
154	154	7
122	122	8
114	117	2
32	35	4
22	25	3
55	55	2
96	96	3
21	23	4
129	139	1
79	79	3
10	12	2
78	79	1
75	75	4
49	49	2
23	25	2
76	76	5
147	149	2
66	81	2
36	36	3
102	132	2
144	144	6
68	68	2
109	109	2
108	112	1
61	63	2
59	59	2
113	113	9
80	81	3
59	69	1
112	112	5
182	182	4
7	7	7
130	134	2
148	148	9
84	84	3
99	99	2
101	103	1
172	176	1
71	175	2
152	155	1
124	161	3
25	25	2
1	3	1
9	21	1
33	36	4
155	176	2
81	81	3
38	39	2
39	39	2
73	75	2
92	94	2
67	67	3
126	127	4
18	18	4
78	81	6
116	116	2
117	118	3
68	107	2
55	65	3
119	119	3
141	142	1
180	180	4
29	29	10
13	127	2
26	30	1
37	37	4
163	189	3
134	135	3
141	144	1
111	130	2
187	190	1
107	109	2
174	175	4
65	65	7
128	129	1
72	73	3
126	128	2
176	176	2
52	52	2
2	2	3
62	62	4
165	168	4
133	133	7
93	94	3
55	110	2
131	131	1
89	89	2
95	95	1
157	187	1
11	14	1
148	149	6
27	125	3
117	119	1
186	186	4
155	179	2
160	160	1
15	21	3
67	105	2
82	82	5
103	103	2
103	104	2
128	143	2
183	187	1
45	47	1
107	107	3
20	20	3
171	171	3
31	31	1
116	119	3
183	183	2
147	147	1
182	184	3
98	99	1
166	166	2
97	97	3
158	161	2
88	89	2
132	132	3
69	74	2
33	38	1
73	73	2
105	106	1
83	83	1
184	185	1
150	150	3
59	60	1
163	163	1
122	124	1
58	59	1
152	153	2
41	41	2
154	157	1
18	19	3
65	68	2
102	103	1
76	140	1
166	167	1
105	105	6
63	81	1
77	91	1
97	103	2
69	69	2
95	103	1
28	36	1
13	130	1
9	9	1
10	21	1
58	61	2
91	91	3
30	33	1
30	164	2
70	142	1
43	43	1
96	97	1
77	84	1
107	116	2
173	174	3
82	84	3
157	181	1
78	80	1
91	92	1
17	18	1
190	190	1
111	116	1
156	179	1
131	133	1
12	13	3
8	14	1
185	189	1
144	146	1
42	54	1
113	135	2
140	141	1
43	44	2
46	47	1
70	105	1
54	54	1
65	67	1
151	151	1
154	181	1
135	135	1
124	126	1
90	92	1
65	104	1
18	43	1
135	136	1
97	98	1
112	113	1
121	124	1
64	64	2
15	18	1
53	54	1
126	143	1
177	178	1
64	115	1
181	181	1
111	112	1
167	168	1
104	106	1
55	57	1
40	106	1
148	151	1
