42	56	3
36	38	2
75	75	13
101	101	11
42	43	3
76	76	12
91	91	13
46	47	4
91	95	1
76	77	6
80	80	15
56	56	4
73	73	15
67	67	11
83	83	8
33	38	3
62	62	7
22	22	2
80	81	4
51	51	6
37	37	15
34	36	1
98	98	19
69	69	8
62	84	1
81	84	2
72	72	17
49	49	13
52	52	11
76	92	1
45	46	8
81	88	3
73	77	1
97	98	4
57	57	12
61	62	6
70	70	23
84	84	18
91	92	5
96	98	1
89	89	11
41	41	10
100	100	7
43	43	17
64	64	18
66	66	11
91	100	3
40	40	10
92	92	9
54	61	2
78	90	3
47	47	7
55	96	2
31	102	2
30	78	1
35	35	23
38	38	10
54	55	10
77	77	11
47	48	4
65	65	9
25	25	7
42	64	6
81	81	3
88	88	14
96	96	2
45	45	11
88	89	5
34	34	15
36	37	3
51	59	3
53	55	5
93	93	9
25	27	2
65	71	3
29	31	4
26	27	5
94	94	12
65	66	3
65	90	6
23	23	3
48	48	10
102	102	7
68	68	19
63	63	3
67	68	5
97	97	9
31	59	1
59	59	10
48	88	1
50	59	2
79	81	3
90	90	3
39	39	17
87	87	13
78	78	4
27	28	7
55	56	1
52	53	3
42	51	2
56	57	1
32	32	10
86	86	18
33	34	2
98	102	3
48	49	2
99	99	14
29	29	3
100	101	2
46	86	3
66	70	3
45	49	1
44	44	9
57	61	6
55	97	2
55	77	1
88	100	1
92	94	6
60	60	17
86	87	18
42	42	12
71	71	4
31	100	5
93	95	3
69	94	2
52	64	3
85	85	16
61	61	10
20	22	1
47	51	2
55	55	8
53	98	5
46	46	10
36	36	6
96	97	3
94	98	8
58	58	5
79	79	8
94	95	1
33	33	8
51	52	3
53	96	2
35	38	2
80	88	2
46	76	5
54	54	8
79	80	4
82	98	2
50	50	9
26	26	3
74	94	2
77	93	1
59	91	2
92	93	2
27	27	4
53	61	5
101	102	3
88	90	2
32	91	1
57	59	2
55	62	1
44	90	1
82	82	5
92	97	4
53	54	2
22	33	3
57	58	2
42	73	2
34	35	1
98	100	3
30	30	2
55	98	2
31	31	7
23	27	1
81	82	3
24	24	1
35	42	3
78	79	6
63	64	2
37	46	2
58	62	1
84	87	3
60	61	2
91	93	1
38	39	2
67	71	4
45	53	3
23	24	7
48	50	5
33	35	3
93	94	3
42	100	1
20	24	1
53	53	3
35	46	4
51	98	1
26	31	2
94	96	2
74	92	2
96	100	1
77	100	1
86	88	2
82	87	1
76	95	1
30	91	1
34	70	3
99	100	1
57	62	2
95	95	2
74	74	3
27	33	1
56	100	1
87	88	1
40	41	1
71	72	6
41	56	1
50	51	1
83	92	1
24	26	1
45	80	1
89	90	1
55	91	1
26	32	1
72	73	1
64	67	1
34	47	1
50	66	2
25	66	1
78	92	3
91	97	1
79	89	1
61	92	1
42	77	1
65	73	1
37	41	1
58	61	2
56	93	1
56	101	1
67	69	1
95	96	1
53	97	1
83	102	2
59	93	1
57	85	1
90	99	1
41	55	1
57	60	1
