130	130	13
42	43	5
112	112	12
102	102	8
2	13	2
39	40	4
28	28	12
59	59	9
71	71	10
23	113	1
65	65	10
109	109	14
48	48	13
67	68	4
66	66	11
12	12	5
106	106	9
99	101	4
14	14	8
97	98	5
103	103	10
116	117	1
52	52	19
48	49	2
62	68	2
88	88	6
93	93	4
16	33	2
68	69	1
97	97	2
94	94	12
99	99	7
95	95	6
4	4	12
19	19	11
45	45	8
18	33	2
2	5	2
6	6	11
43	43	13
133	133	6
103	128	3
77	78	3
46	46	11
80	81	1
42	42	9
23	23	9
95	96	6
44	44	13
16	16	7
126	126	6
77	77	8
82	82	8
34	34	1
80	130	1
111	118	1
78	101	4
110	132	1
80	80	17
17	22	5
8	8	9
18	18	3
41	41	3
7	8	1
57	58	4
70	100	1
80	114	3
118	119	3
104	105	5
84	92	1
73	74	7
56	56	11
105	116	2
70	70	6
127	129	2
1	13	3
13	13	8
20	20	5
117	117	19
49	49	13
118	118	7
44	45	6
17	19	3
103	104	3
50	50	16
29	109	1
46	47	14
121	121	10
6	27	2
83	83	9
51	51	7
60	60	11
74	74	5
56	97	2
92	92	3
82	85	2
78	79	8
10	10	14
122	123	6
110	110	10
48	60	6
39	77	5
115	115	13
38	38	6
76	96	3
38	39	6
0	0	3
24	25	2
43	68	1
72	74	3
61	61	6
62	62	9
5	5	7
122	122	10
65	72	1
44	65	4
63	68	1
111	111	10
30	30	11
53	53	16
108	114	4
124	124	4
31	32	2
105	117	2
98	99	4
40	62	6
81	81	3
65	66	3
43	44	2
114	114	21
113	113	6
109	110	5
116	116	11
101	101	5
86	87	4
86	86	7
11	12	3
64	66	4
47	47	6
19	20	3
1	14	2
100	127	3
89	90	7
73	73	7
76	76	12
69	69	10
51	52	3
27	30	3
21	21	5
12	13	12
29	30	4
33	33	9
48	56	3
68	94	1
125	125	6
22	32	4
4	5	2
17	23	1
63	76	1
0	2	2
24	40	2
70	71	7
72	73	4
82	88	3
31	111	7
102	103	6
111	117	2
112	116	2
57	121	1
16	23	3
21	22	2
105	120	3
3	3	1
52	54	5
132	132	7
10	11	3
84	85	1
126	129	5
128	128	2
24	28	3
98	126	4
114	116	2
67	95	3
24	24	8
1	1	4
57	57	13
131	131	13
63	63	4
16	21	3
85	85	7
121	123	3
44	62	2
123	124	2
51	78	3
83	84	6
25	26	4
58	68	4
106	107	2
1	12	1
33	40	2
58	61	2
76	77	1
17	30	2
97	103	4
119	119	2
54	54	11
45	46	2
30	31	2
20	122	2
94	95	4
2	4	3
17	24	2
91	91	4
91	109	1
8	9	8
15	33	3
26	26	8
55	55	8
1	3	3
9	9	5
29	29	2
120	120	2
14	15	2
51	53	7
27	27	4
82	86	1
15	16	3
128	130	2
12	20	2
17	25	6
52	53	6
68	68	5
15	18	2
74	81	2
75	77	1
42	49	2
61	62	2
98	127	3
41	42	2
77	79	2
109	125	4
15	15	2
43	50	1
22	22	4
25	97	1
60	79	3
84	108	2
4	7	3
2	7	1
21	44	2
131	132	2
109	128	1
31	31	6
107	107	2
60	61	3
104	104	7
127	127	7
109	127	2
93	95	6
38	100	1
109	130	3
69	70	3
26	27	2
126	130	1
112	113	2
68	76	1
0	3	1
20	26	3
88	133	3
11	11	2
103	129	3
105	105	4
17	17	5
87	87	9
100	100	9
45	67	1
69	111	1
71	102	2
72	72	7
89	109	1
0	1	1
58	59	8
89	89	3
67	67	4
25	25	4
49	50	3
75	84	2
47	52	1
108	108	5
41	44	2
38	55	1
96	97	1
7	7	2
22	23	2
120	123	1
18	31	1
55	56	1
2	11	3
129	129	2
65	71	2
27	28	1
89	93	2
90	90	6
2	37	1
11	22	2
55	77	3
107	113	1
81	83	1
24	30	1
125	126	3
32	33	1
99	108	1
107	119	1
97	114	1
32	32	2
129	130	2
58	123	1
10	94	1
54	56	1
79	79	1
88	89	1
121	122	3
111	116	1
124	125	2
81	87	1
76	98	1
58	58	2
7	18	1
50	51	1
12	19	2
59	60	1
83	87	1
90	92	3
23	30	1
96	99	1
98	98	2
13	14	1
48	59	2
64	64	3
87	88	1
65	67	3
42	58	1
81	82	3
10	17	4
125	130	1
85	91	1
42	57	1
7	16	1
46	48	1
23	25	3
110	111	1
72	75	1
46	50	1
70	115	1
128	129	2
120	121	2
105	124	1
45	61	1
82	133	2
80	91	1
40	40	2
96	96	3
7	15	1
79	99	2
115	116	1
11	13	2
12	33	2
26	96	2
25	29	1
67	79	1
60	63	2
85	86	1
111	123	1
30	32	1
70	105	1
91	92	2
53	55	1
41	121	1
114	117	1
28	29	1
81	88	1
84	84	1
8	13	1
52	55	1
90	91	1
88	91	2
110	130	1
27	120	1
100	101	1
108	125	1
39	52	1
90	106	1
54	57	1
23	24	1
45	60	1
57	98	1
127	128	1
107	116	1
117	126	1
82	84	1
40	42	1
99	127	1
