9	9	15
17	17	16
40	40	23
18	19	4
14	14	9
78	78	22
53	53	5
69	69	7
14	63	2
65	65	26
54	54	6
7	7	11
12	13	1
35	35	12
33	33	23
0	0	16
26	26	17
62	62	24
66	67	6
13	14	6
50	50	3
67	67	12
66	66	9
21	21	9
57	57	11
38	38	12
38	39	8
12	12	2
72	72	10
60	60	8
19	19	15
7	27	3
8	16	3
18	18	8
56	56	12
16	16	5
75	75	16
6	6	13
68	68	8
39	39	28
22	22	2
62	63	9
60	61	8
55	56	11
74	74	19
73	73	14
48	49	10
1	2	2
70	70	7
76	76	9
36	36	8
42	42	14
52	67	1
71	71	12
5	5	10
9	10	7
16	17	3
4	4	16
48	48	20
35	36	3
41	41	10
43	43	4
5	6	8
1	1	8
68	71	2
51	51	9
27	27	25
63	63	16
51	53	3
28	28	9
51	52	7
61	61	18
72	73	2
49	49	8
75	77	2
57	58	7
79	79	10
59	59	6
58	58	20
10	10	11
45	45	10
26	27	8
47	47	10
8	8	5
16	19	8
50	51	4
11	14	3
12	64	1
28	29	7
64	64	9
77	77	3
37	37	15
55	55	8
69	70	4
29	29	13
10	14	1
63	64	3
6	7	1
2	2	15
3	3	15
36	37	4
45	46	9
77	78	1
9	66	2
49	53	5
15	15	9
68	70	6
45	57	5
32	32	2
12	14	4
30	30	4
53	54	1
61	62	3
27	29	3
52	52	2
9	16	2
34	34	8
49	50	3
8	36	2
31	31	3
16	18	3
16	48	1
7	37	3
5	7	2
71	72	1
41	81	1
25	26	4
67	68	1
59	61	4
76	77	2
77	79	3
49	72	3
37	38	3
13	13	2
46	57	1
40	45	1
3	39	2
64	66	1
74	75	2
48	72	3
3	76	2
80	80	4
20	25	1
7	72	5
20	69	1
25	25	2
69	71	2
6	75	2
65	66	2
45	74	6
9	67	2
42	76	1
10	11	1
40	42	3
4	5	5
25	32	1
39	45	2
64	65	1
12	53	2
46	46	6
9	31	2
27	28	4
29	33	2
70	71	6
21	25	1
15	71	3
46	47	1
8	9	4
49	52	2
33	34	1
21	31	2
8	33	3
25	27	3
56	57	2
50	70	2
59	60	1
0	1	2
16	67	1
21	30	5
39	40	5
73	74	7
5	75	1
9	11	1
29	56	2
7	8	1
49	71	1
63	65	1
3	4	2
20	21	3
10	15	1
42	43	2
6	59	4
35	41	1
40	41	1
49	51	1
48	52	1
46	74	1
7	40	1
30	31	1
40	46	2
34	53	1
79	80	1
6	46	2
3	38	1
4	27	1
54	56	1
6	40	1
11	13	1
11	11	2
0	4	1
42	59	1
