9	9	21
56	56	40
172	172	23
178	178	28
237	246	8
77	77	46
85	85	25
61	62	15
65	115	4
156	156	49
201	202	20
247	247	39
155	155	50
108	109	10
227	231	5
168	169	22
245	246	23
245	245	48
231	231	35
176	219	1
187	187	38
172	173	21
166	167	21
5	14	5
176	176	66
48	48	49
162	162	55
3	3	23
84	85	14
209	210	27
96	98	7
40	40	33
243	249	4
111	111	43
66	67	13
113	156	2
205	205	48
199	199	38
185	185	50
60	60	19
110	111	15
170	170	36
191	191	37
179	180	41
56	66	4
79	81	11
237	237	47
216	217	18
65	66	21
198	198	44
163	165	33
235	235	41
196	196	43
94	95	14
64	64	38
201	201	43
117	117	22
89	89	34
242	243	15
171	184	3
234	235	10
207	207	40
2	4	5
152	165	4
43	44	12
99	99	20
205	224	1
220	246	3
228	229	18
25	26	7
230	231	15
86	86	26
213	213	35
182	182	42
223	223	38
215	215	46
221	221	25
106	106	16
44	44	40
165	169	3
174	175	14
175	175	48
202	202	41
180	180	41
66	66	32
217	217	40
208	209	42
101	101	33
240	240	55
13	14	6
114	114	25
76	77	16
147	147	17
243	243	14
232	232	37
41	41	26
108	153	4
193	193	30
237	238	13
96	100	10
197	197	45
158	159	12
71	71	34
200	240	2
76	78	6
68	87	4
100	100	44
82	82	30
43	43	27
222	222	29
155	184	1
150	151	15
172	174	4
177	177	42
120	120	20
180	181	16
166	166	42
225	226	16
237	241	5
31	32	7
151	151	58
73	73	31
152	181	6
197	198	20
209	209	55
113	113	39
233	233	15
236	237	18
242	242	29
3	4	7
27	28	21
208	208	45
97	97	29
47	48	8
246	247	5
32	32	33
70	71	10
62	62	36
28	29	10
158	160	10
161	164	6
168	168	50
72	74	9
214	215	10
199	200	22
239	240	31
53	54	11
200	225	5
171	171	37
108	108	18
217	218	11
20	20	11
118	118	42
204	204	78
39	46	3
4	14	6
103	103	22
164	164	35
241	242	25
200	200	47
169	169	34
229	230	7
35	35	33
100	101	23
186	187	20
4	11	2
188	189	9
154	175	1
165	170	4
11	11	36
73	74	7
119	119	59
87	88	10
50	50	36
90	90	31
72	73	23
223	224	17
159	161	3
68	115	3
78	79	10
217	219	3
52	55	4
76	76	31
112	114	2
58	61	1
92	92	29
10	180	1
70	70	24
30	30	15
229	229	27
194	194	34
188	200	5
239	239	34
79	97	5
96	97	13
116	201	1
63	64	17
105	105	13
156	242	2
235	236	12
40	43	3
226	227	1
38	38	39
181	182	20
44	62	2
113	114	11
181	181	44
161	161	35
75	96	8
112	112	28
244	244	53
174	178	2
202	203	31
23	23	35
212	212	42
183	183	59
11	12	19
210	210	56
220	220	59
174	182	4
188	188	50
205	233	2
57	60	9
145	173	6
22	25	9
214	214	56
220	237	3
21	21	27
53	53	33
158	162	1
244	245	21
10	10	29
212	215	12
187	191	7
153	177	3
39	39	26
60	61	14
5	7	3
53	230	4
61	61	37
210	214	2
84	102	8
246	246	35
59	59	17
213	247	2
19	19	33
237	240	11
93	94	9
14	30	5
31	38	9
176	177	24
156	202	8
50	52	2
115	116	8
45	46	8
59	64	3
94	94	38
168	183	4
115	115	39
226	228	5
186	186	66
26	26	34
236	236	33
152	152	37
78	106	4
48	241	2
222	223	10
193	194	29
186	189	6
224	224	20
190	191	23
102	102	28
154	155	5
37	38	6
65	74	2
182	183	14
63	63	38
12	12	25
27	27	31
157	165	8
218	218	34
187	188	25
145	145	12
75	76	21
157	210	5
153	153	66
179	182	1
15	15	22
28	28	16
77	79	7
4	4	21
81	86	4
187	190	6
184	184	50
191	192	21
105	107	7
183	184	21
238	240	12
244	247	8
57	58	22
63	167	5
95	97	3
163	163	40
84	84	30
65	65	15
9	10	14
36	36	18
203	205	3
170	197	1
192	214	3
160	161	12
226	226	22
58	58	38
150	150	54
63	65	1
17	19	4
195	195	25
206	206	19
238	238	66
160	160	40
154	154	40
40	151	1
244	246	8
120	145	3
175	202	2
203	203	29
241	244	3
167	179	1
6	6	29
185	186	18
92	93	22
220	222	11
97	98	20
20	26	2
154	168	2
4	15	3
183	205	3
182	192	4
165	165	36
179	181	11
92	99	1
173	192	3
210	211	27
198	210	1
196	208	6
34	34	16
29	29	21
31	31	37
47	49	2
65	116	1
214	247	3
14	15	9
57	59	2
80	82	11
178	180	5
205	206	6
16	16	14
39	40	10
53	56	2
104	104	13
19	20	7
211	212	12
33	35	5
57	165	1
245	248	7
59	108	4
86	105	1
89	231	7
85	86	24
174	174	26
50	106	5
199	208	1
95	95	23
79	82	8
203	234	1
107	107	37
53	57	7
181	216	1
93	93	35
59	60	16
170	171	1
159	217	2
211	223	1
242	248	4
157	158	12
102	119	1
108	113	7
173	173	33
106	237	4
118	185	2
205	222	16
87	102	1
192	193	20
222	234	5
60	64	4
232	233	9
211	211	34
165	166	20
146	146	14
10	47	2
212	214	6
86	119	11
92	94	3
167	183	2
170	174	2
216	216	23
111	112	23
29	32	3
179	179	42
162	164	12
234	234	23
159	159	47
171	173	7
116	116	22
51	52	11
47	47	21
167	167	46
238	239	20
55	55	26
7	7	29
192	195	10
175	177	18
116	118	5
215	216	20
78	87	1
2	26	3
205	207	2
104	106	15
204	205	14
168	197	5
89	90	11
71	73	9
48	73	6
165	167	7
69	88	3
167	169	6
81	82	3
91	91	11
68	69	15
177	192	5
186	196	2
109	109	62
94	98	1
227	228	4
231	232	12
98	98	18
32	33	15
42	42	25
243	244	28
159	181	1
110	110	38
153	154	18
54	207	2
19	23	3
172	196	4
78	78	45
17	18	5
221	222	24
146	150	4
159	169	4
37	37	30
186	190	4
162	163	5
225	233	5
17	17	12
57	160	1
160	187	3
117	118	8
171	178	2
45	45	26
74	75	12
229	232	8
206	207	11
18	19	3
52	52	54
26	27	11
219	222	3
72	72	30
157	157	39
33	33	23
46	175	1
206	233	3
164	166	6
96	171	2
212	213	16
192	192	28
107	153	2
57	57	21
200	201	27
99	100	15
189	189	28
209	211	3
67	67	33
81	81	22
8	8	33
179	231	1
75	75	26
34	37	9
24	40	1
54	54	47
203	204	22
184	189	1
202	204	4
68	68	30
80	153	1
68	70	7
187	189	18
14	14	15
155	166	3
162	179	3
208	212	8
195	196	14
18	18	31
160	167	3
169	170	17
82	83	11
82	84	6
35	226	1
175	176	29
159	176	4
164	165	16
41	43	6
190	190	29
91	92	14
164	191	2
83	83	14
49	50	17
81	84	1
55	57	10
218	219	18
54	233	4
76	106	1
160	162	7
82	85	5
71	72	9
62	63	13
198	199	23
85	119	3
47	192	4
106	119	3
69	72	3
158	176	4
230	230	19
182	212	3
173	174	15
182	193	7
208	210	7
110	116	1
158	158	32
196	197	7
46	46	21
67	68	11
220	221	19
194	196	16
145	195	2
180	223	3
153	212	1
177	215	4
64	65	7
249	249	4
107	108	7
116	117	14
171	175	1
166	175	1
194	195	7
246	249	3
170	176	2
80	80	19
79	92	3
213	214	34
43	45	4
79	80	20
96	103	1
147	152	1
183	186	4
55	56	11
96	99	10
196	199	3
57	166	2
144	229	1
54	57	1
232	234	11
153	175	3
238	245	1
186	199	6
208	213	1
163	177	3
185	190	3
41	42	15
51	76	2
30	34	12
216	218	10
223	235	3
174	207	3
51	51	35
30	31	8
90	118	3
163	183	4
157	216	1
241	241	39
74	74	24
118	184	4
193	213	4
58	145	1
152	175	2
119	160	1
1	1	15
109	234	6
233	234	18
98	99	9
69	69	33
176	192	2
88	172	2
179	222	1
202	205	1
219	220	7
38	39	6
80	108	4
98	108	3
169	180	3
235	238	2
86	87	7
90	91	17
88	88	24
184	185	13
97	104	4
157	160	14
9	51	3
79	79	33
98	101	3
87	87	17
204	227	2
74	100	8
113	115	11
168	176	5
163	166	3
178	179	15
95	98	4
240	243	5
46	193	5
162	165	2
54	55	5
51	55	2
55	58	7
152	153	3
219	219	9
35	36	7
193	247	6
2	5	3
69	79	1
61	63	1
236	238	11
118	119	15
208	236	4
71	74	5
214	245	5
34	36	1
203	233	2
5	5	24
171	174	6
46	47	7
37	40	3
20	21	7
185	207	2
209	217	3
213	237	4
168	200	3
248	248	23
87	119	5
109	117	5
144	144	4
104	105	4
157	163	5
225	225	21
185	187	3
192	212	2
189	210	2
242	244	5
96	96	21
84	238	3
169	178	1
104	190	2
156	226	2
49	61	4
36	37	1
227	227	18
100	104	3
204	224	5
27	53	2
48	190	2
82	93	2
189	191	5
90	92	6
55	62	2
228	230	5
1	26	4
25	25	18
47	167	3
212	223	3
49	49	29
150	172	2
195	197	3
28	39	6
152	205	3
160	218	1
239	241	5
63	109	6
5	25	1
157	162	1
146	153	5
69	71	4
52	74	2
181	183	5
245	247	4
50	51	4
157	171	2
83	85	5
207	235	3
58	101	4
22	22	23
144	241	2
184	197	2
4	18	6
24	25	13
117	174	3
66	109	3
80	83	5
213	245	6
156	157	8
20	42	1
69	70	13
173	175	3
167	168	19
209	222	5
50	71	2
58	166	2
10	14	1
164	213	1
56	166	2
69	86	1
197	229	2
4	33	2
200	211	1
68	86	1
153	237	4
221	244	4
46	65	1
85	101	2
80	232	1
182	216	2
157	246	1
54	58	4
162	168	2
161	190	1
51	165	5
88	89	8
120	206	3
58	163	2
232	247	10
112	113	4
21	22	6
189	190	11
50	76	1
75	77	7
119	120	13
149	171	3
51	74	5
174	198	1
18	31	2
51	102	1
2	14	3
105	106	11
75	103	2
14	34	2
163	164	12
194	213	1
144	205	2
211	213	4
108	214	1
61	75	2
2	2	6
161	188	2
248	249	4
219	237	4
150	155	3
101	102	6
15	16	8
171	176	1
7	8	15
213	238	3
227	229	12
1	4	3
179	207	7
174	176	8
213	215	6
56	57	4
120	189	2
57	163	3
72	75	3
95	96	6
38	154	1
206	234	4
0	0	2
187	216	10
75	99	3
33	85	4
197	200	3
80	88	2
59	145	3
31	33	8
214	238	1
162	178	1
29	42	4
171	180	1
197	199	3
62	144	2
247	248	8
104	163	3
175	181	3
145	147	4
187	192	5
17	22	5
44	47	3
166	169	1
1	3	1
213	217	3
68	71	7
192	194	10
40	41	10
208	237	3
193	195	6
23	24	7
59	63	1
44	45	7
106	167	1
71	75	2
158	171	1
200	212	6
23	25	4
6	7	7
76	100	2
22	23	4
222	241	1
102	105	1
167	209	2
85	88	2
51	53	1
190	215	2
209	246	1
199	211	1
166	179	2
61	65	2
192	196	6
105	213	1
34	39	5
114	116	5
188	190	6
238	241	4
235	237	4
228	228	18
115	119	2
160	190	3
50	70	6
178	201	1
164	184	2
216	242	2
236	239	2
84	108	3
159	160	17
226	231	2
186	191	3
19	21	2
238	246	1
6	11	1
109	110	15
42	50	1
95	99	1
193	211	3
166	172	7
175	201	5
214	216	4
58	59	6
50	58	1
4	34	3
221	223	3
29	30	9
72	99	1
175	178	12
177	188	1
51	187	8
5	21	3
151	207	4
177	189	6
53	70	1
117	120	1
110	117	5
102	104	5
120	162	1
234	243	4
166	191	1
85	111	2
106	107	9
214	219	1
205	226	6
112	116	5
182	186	2
77	78	10
199	212	2
56	60	5
240	241	10
173	233	3
81	83	4
52	103	2
204	228	1
191	193	4
146	147	4
168	199	2
40	42	2
46	53	3
2	6	5
1	12	2
151	167	1
151	164	1
114	115	16
18	20	6
209	216	1
97	108	2
193	209	1
118	186	1
178	200	6
17	20	1
20	31	2
161	162	3
29	38	4
181	198	1
97	100	2
3	5	2
246	248	3
149	149	4
170	172	2
32	85	2
84	96	2
53	58	5
186	193	4
156	167	2
236	241	1
65	68	1
35	153	2
155	168	1
78	92	2
51	178	1
159	171	5
38	76	1
230	232	7
198	211	3
28	222	2
14	161	3
184	236	2
56	102	2
107	214	2
52	53	7
169	197	6
150	204	2
60	62	5
69	73	5
178	195	1
177	179	1
34	35	3
91	101	5
109	113	2
73	75	4
177	178	7
181	184	1
152	180	1
70	73	2
159	183	1
197	204	3
10	34	1
8	9	5
62	187	1
174	177	7
105	118	1
160	188	3
162	184	5
222	224	2
198	200	2
3	17	1
32	38	1
51	56	1
115	145	3
152	166	2
162	212	3
101	103	3
177	180	1
211	214	1
89	91	2
68	73	3
190	192	3
103	104	11
5	18	5
236	245	3
219	221	2
151	223	1
66	92	2
154	163	1
176	179	1
64	108	2
159	221	2
14	31	1
193	199	2
73	98	4
160	200	3
1	47	2
78	81	3
12	15	2
102	103	4
60	151	1
62	64	5
42	91	1
73	95	2
247	249	6
172	195	1
170	177	1
157	243	2
177	194	1
75	104	6
151	152	3
85	246	2
80	103	3
103	107	2
59	69	4
81	152	6
202	206	2
109	111	4
24	24	6
62	153	2
214	220	2
62	72	1
118	159	4
237	244	3
105	108	2
218	220	8
205	235	3
21	28	1
38	78	2
186	188	4
5	6	8
223	225	2
75	101	2
91	93	5
196	248	4
59	84	2
62	66	1
38	46	1
211	220	1
84	248	1
86	93	2
58	213	1
195	225	1
56	58	3
115	144	2
188	191	3
119	241	2
10	11	1
235	244	3
30	32	2
56	59	6
163	184	2
207	232	1
165	190	2
174	209	4
6	36	3
209	212	1
212	239	2
91	97	2
62	152	2
85	118	2
186	222	2
111	117	2
187	200	1
213	246	2
118	199	2
177	223	2
171	172	11
107	188	3
171	177	1
241	246	1
80	81	12
193	196	3
210	219	2
212	219	4
59	66	3
47	187	2
180	196	1
198	213	1
186	194	4
183	198	1
12	33	1
147	181	2
97	101	1
87	118	2
84	95	1
58	60	2
149	150	4
121	121	6
120	185	1
78	171	1
237	245	2
10	187	1
6	17	2
157	159	4
211	216	3
211	221	2
57	64	2
70	164	1
195	209	2
30	35	2
22	24	2
39	204	2
192	197	1
104	198	1
18	29	4
168	178	2
161	163	1
48	49	3
47	51	2
42	51	2
182	184	3
79	95	1
84	94	2
184	208	1
176	188	2
191	194	2
5	49	2
160	165	1
42	44	1
178	212	2
65	67	3
157	161	3
52	65	1
111	245	1
92	100	1
160	226	2
4	37	3
50	102	1
174	179	3
64	179	3
185	197	2
7	44	3
118	120	1
144	201	1
15	156	4
229	231	1
191	214	2
117	145	2
92	97	1
218	221	1
85	93	1
240	244	1
53	55	5
69	80	2
116	119	1
3	79	1
51	242	2
190	195	3
184	195	1
60	104	2
8	16	1
186	219	2
237	239	3
111	114	1
172	176	5
61	67	4
208	211	1
147	154	1
39	43	1
20	29	2
167	172	1
166	176	2
197	202	1
196	200	1
104	107	3
94	96	2
35	83	2
49	53	1
5	35	2
35	42	4
6	21	2
83	84	4
210	244	2
188	192	4
116	172	3
49	57	3
36	79	1
239	246	4
110	231	1
76	82	1
168	170	5
30	85	6
38	53	3
169	171	6
50	77	1
40	46	1
44	48	1
57	68	3
52	54	4
156	244	2
86	115	2
45	183	1
75	102	3
117	161	2
76	97	2
159	182	4
34	38	1
48	50	5
159	179	5
194	210	2
224	225	1
51	163	2
147	150	1
183	185	5
153	160	6
209	236	3
145	161	1
180	182	3
191	220	1
14	171	2
55	103	3
33	36	3
18	34	3
45	110	3
158	166	1
42	43	3
60	86	1
225	232	1
52	76	1
79	154	1
161	171	1
15	18	1
59	76	1
185	196	2
184	186	2
3	15	2
216	219	1
190	194	2
153	155	2
193	198	2
103	105	2
216	246	3
146	152	1
11	34	1
31	72	2
66	87	1
183	201	2
4	5	2
104	239	2
76	79	5
200	203	2
37	39	5
157	237	1
146	154	3
57	63	1
218	248	1
0	28	3
44	46	1
5	13	2
180	198	2
81	94	1
222	246	2
31	39	4
177	214	1
198	202	1
209	213	2
48	191	1
1	46	1
81	85	3
77	175	2
109	167	2
211	219	2
97	105	4
59	88	1
160	181	1
59	91	2
183	189	1
162	177	5
159	230	1
47	168	1
5	15	1
213	235	2
222	225	1
170	175	2
97	99	1
87	89	2
112	115	2
18	22	1
58	152	1
56	61	5
38	185	1
121	175	2
159	241	2
1	2	5
100	105	2
76	169	1
11	30	1
38	155	1
245	249	1
161	165	1
210	213	2
233	247	1
58	68	1
66	101	2
54	234	2
169	191	2
58	162	6
161	203	2
173	196	1
163	233	4
15	17	2
4	30	1
99	104	1
30	42	1
69	87	1
38	203	1
238	248	1
193	222	3
70	88	1
30	33	5
55	234	1
6	37	1
89	109	1
4	6	1
240	245	2
84	93	1
178	207	1
167	229	2
99	107	2
69	198	1
38	43	2
32	72	1
47	179	2
153	179	2
69	105	1
241	245	2
116	196	1
71	88	2
176	200	2
177	199	5
214	239	2
219	225	1
241	243	2
213	220	4
169	177	1
209	218	1
192	223	1
61	186	2
214	249	1
109	170	2
160	163	1
155	171	2
77	86	1
207	208	2
29	31	1
36	80	1
191	219	1
78	80	3
57	98	1
60	66	1
3	228	2
70	109	1
205	230	1
240	242	3
56	67	2
187	215	4
80	85	2
210	217	1
104	108	1
59	168	2
169	223	1
152	161	1
177	195	2
33	38	1
99	101	1
183	214	1
64	109	1
29	175	2
49	189	1
32	37	1
67	70	2
5	85	1
158	172	1
181	211	1
174	181	1
49	102	4
238	247	2
70	80	1
69	77	2
62	154	2
182	198	1
84	119	2
190	210	1
158	216	1
55	231	1
151	155	1
168	208	1
76	99	1
106	108	4
2	46	1
37	42	1
103	108	2
197	228	1
163	213	1
162	180	1
51	215	4
32	34	1
9	173	1
60	164	1
86	106	1
15	42	1
110	115	1
172	175	1
68	84	1
7	11	2
157	247	1
204	226	1
157	212	1
150	154	2
212	222	2
176	218	1
175	226	1
220	245	1
200	229	1
65	110	2
206	229	1
81	95	1
85	94	1
166	189	2
194	198	1
193	197	1
159	165	1
12	169	1
74	81	2
161	212	2
199	201	2
206	223	4
194	223	3
211	222	1
3	30	2
195	208	1
20	206	2
179	201	2
115	117	2
48	189	1
107	191	1
3	20	1
189	193	2
47	191	1
219	241	1
153	168	1
10	12	1
30	39	2
212	221	1
110	198	1
108	170	2
58	151	1
87	109	2
76	108	1
185	188	1
107	187	1
158	163	1
79	170	1
93	97	1
215	217	1
68	88	1
158	217	3
6	18	1
77	80	2
159	162	1
15	85	1
215	248	1
16	17	2
70	200	1
232	235	1
112	246	1
58	62	1
27	29	1
60	106	1
48	54	1
108	112	1
217	240	1
111	115	1
242	245	1
200	209	1
93	95	1
47	205	1
75	175	1
65	91	1
201	211	1
173	193	1
157	174	1
175	234	1
176	224	1
184	198	1
206	232	1
38	44	1
15	177	1
47	58	1
99	102	1
240	248	1
69	85	1
49	51	1
59	167	1
241	247	1
168	198	1
200	230	1
48	57	1
6	154	1
204	223	1
35	109	2
93	105	1
64	103	1
87	117	1
157	172	2
163	176	1
55	59	1
155	156	1
170	184	1
221	243	1
18	48	1
218	249	1
177	187	1
120	121	1
25	165	1
2	29	1
144	183	1
151	186	1
169	213	1
5	84	1
148	149	1
174	195	1
27	39	1
194	199	1
