33	33	16
9	9	13
62	62	7
2	3	2
10	12	1
51	52	2
30	31	6
70	70	6
44	44	6
55	55	16
3	4	5
8	8	4
35	35	4
59	72	5
62	64	4
25	27	3
48	48	8
57	57	9
40	40	14
10	10	8
69	70	4
37	72	2
38	38	12
60	60	4
13	13	5
49	53	2
1	1	1
71	71	5
33	34	9
49	49	8
55	56	1
70	71	5
34	34	5
33	42	2
19	19	10
36	36	8
54	54	5
2	2	14
59	60	2
63	63	11
2	4	2
59	59	3
39	49	1
52	52	5
66	66	9
29	29	4
24	24	5
56	56	7
20	20	5
66	67	3
74	74	10
42	43	6
35	39	2
60	61	8
4	4	6
22	23	5
36	37	4
6	6	5
75	76	2
65	66	2
55	70	2
25	25	12
61	61	4
30	71	2
58	58	3
5	6	3
53	53	9
27	27	10
77	77	5
41	41	8
38	39	3
34	36	4
6	7	3
51	53	5
75	75	4
65	65	6
4	5	4
5	5	4
73	74	4
34	35	2
68	68	9
41	68	1
29	42	2
7	18	1
37	66	2
11	11	3
31	32	4
30	40	3
40	49	2
67	67	3
32	32	6
55	60	3
36	38	3
23	24	9
30	51	1
63	64	2
3	3	6
35	58	4
74	75	5
61	62	2
30	48	1
49	51	2
31	57	3
61	63	1
7	7	3
62	73	2
22	22	3
52	77	1
47	47	5
31	71	2
22	24	7
33	67	2
36	63	1
45	45	5
34	54	1
56	59	1
64	64	3
73	73	3
19	20	5
11	12	1
58	59	3
42	42	4
27	48	2
68	71	2
1	2	4
40	44	5
73	76	5
30	70	2
37	37	10
60	63	2
21	23	2
29	32	1
45	46	4
26	26	5
10	11	2
36	39	5
40	51	1
69	69	6
57	59	3
46	47	5
28	48	1
72	73	1
24	51	1
33	55	2
46	46	6
31	31	7
3	9	2
13	30	2
12	12	3
36	64	1
65	67	2
26	27	2
35	36	1
19	51	4
14	25	3
26	28	2
18	18	5
21	21	2
43	48	1
40	50	1
39	52	2
48	73	1
5	9	1
28	28	2
57	58	1
24	27	2
61	67	1
30	54	2
39	39	5
31	54	1
32	33	5
20	21	1
25	26	1
0	5	3
64	66	2
54	55	1
49	50	1
30	30	5
1	3	2
45	47	2
63	66	3
38	42	2
0	1	1
67	69	2
33	56	1
61	72	2
59	75	2
59	74	1
53	75	1
76	76	3
39	56	1
62	68	1
43	44	1
40	69	1
13	14	3
43	43	3
42	49	2
41	48	1
23	23	1
63	68	1
51	51	1
29	77	1
29	73	1
24	25	2
72	74	1
39	40	1
28	76	1
10	13	1
14	14	1
41	43	1
32	34	2
54	58	1
