96	97	16
75	75	12
137	138	3
80	80	6
110	110	10
84	85	2
90	90	9
22	107	1
78	78	11
20	34	5
155	156	10
145	146	8
68	68	10
131	134	7
73	73	17
148	149	3
49	72	1
129	129	7
34	34	9
6	6	14
29	29	20
28	28	10
72	72	9
156	158	2
158	158	8
151	151	21
56	56	11
0	2	2
101	102	3
13	13	3
17	18	5
101	101	18
0	5	2
142	144	4
113	114	3
115	115	4
79	79	13
126	126	7
149	150	2
76	76	5
103	103	13
38	38	9
107	107	10
132	132	12
110	111	6
150	150	5
40	41	11
24	24	16
134	134	7
153	153	1
152	156	1
15	16	5
141	152	3
131	131	8
36	36	2
77	77	10
49	49	3
112	113	1
89	91	2
135	143	6
31	34	6
33	33	9
108	108	15
106	131	1
153	156	3
39	40	5
147	148	5
53	55	3
130	138	3
144	148	1
112	112	10
142	142	14
45	45	9
39	39	4
22	113	2
89	89	7
139	140	4
2	2	14
64	88	2
78	133	3
137	137	8
15	15	20
114	114	15
146	154	6
55	55	3
8	9	3
53	54	1
113	113	5
46	46	13
70	70	13
69	69	8
96	139	1
122	123	2
89	90	4
133	133	10
140	140	9
135	136	9
144	147	1
86	122	4
128	129	3
155	158	3
37	39	3
52	56	2
137	156	1
42	42	11
147	147	7
120	122	1
84	84	10
19	19	5
118	119	10
127	128	2
0	0	14
132	133	10
22	22	11
96	96	4
17	17	8
111	112	7
68	70	3
21	21	9
111	113	3
40	112	1
30	30	13
34	35	3
115	117	2
92	92	7
26	28	1
30	31	6
95	96	6
14	18	4
109	113	1
87	133	1
7	7	27
65	65	10
127	127	5
105	105	7
137	143	3
50	51	3
71	71	3
98	98	9
12	13	2
108	112	1
52	53	10
37	38	5
2	3	2
49	50	2
4	4	14
92	93	1
13	25	2
124	125	1
4	5	2
148	148	3
97	97	6
13	15	1
20	21	4
32	32	20
20	20	7
40	40	6
10	10	7
144	144	15
128	128	12
16	119	1
123	123	12
144	146	2
18	24	2
9	9	10
48	49	4
136	136	13
117	117	2
104	104	7
116	116	10
152	154	4
108	110	2
20	22	4
94	94	3
156	156	6
90	91	7
125	125	11
120	120	12
135	135	3
152	152	9
130	130	10
79	80	4
121	121	11
7	8	7
123	124	6
8	17	4
117	120	1
65	75	7
50	50	11
9	42	3
21	112	3
109	110	7
139	139	11
93	103	3
96	98	1
25	28	2
77	133	1
157	158	3
41	41	22
91	113	5
52	52	5
23	25	3
93	96	3
82	82	7
1	1	8
154	154	9
51	51	8
138	138	4
92	96	1
24	40	4
24	30	3
109	111	2
120	121	7
9	11	5
3	3	12
111	111	14
14	14	12
83	83	3
25	25	10
18	18	7
100	100	10
88	88	8
85	85	7
44	45	4
66	108	1
48	48	4
43	43	7
63	64	6
152	155	2
1	2	5
26	26	9
36	37	2
12	14	3
25	40	5
28	41	2
27	41	2
18	114	2
44	44	6
119	119	9
38	113	1
145	145	4
54	54	12
6	18	1
27	27	11
132	150	5
124	124	3
106	106	10
68	69	5
16	83	1
157	157	6
16	16	3
116	149	3
21	111	3
146	148	4
18	107	2
37	41	2
22	108	1
93	94	14
13	14	5
29	37	1
105	106	5
122	122	8
8	8	2
53	53	4
22	112	1
26	35	2
147	152	1
117	122	4
81	87	2
18	42	1
10	42	3
95	102	2
132	134	1
32	33	6
67	67	3
87	88	6
1	5	2
130	133	1
99	99	6
99	102	1
115	116	4
127	158	3
54	55	3
81	81	4
35	35	2
80	82	5
24	34	2
77	95	3
124	126	2
31	32	5
8	11	3
10	11	1
116	117	2
62	63	3
48	56	2
16	18	2
30	33	1
132	138	3
93	93	4
31	31	10
23	23	3
109	109	7
19	107	2
12	25	2
42	101	1
22	38	1
22	39	3
12	12	5
63	63	3
57	62	5
95	95	4
122	127	2
125	126	8
155	155	3
86	86	2
16	17	1
145	149	2
100	101	4
9	10	6
92	102	3
8	10	5
91	91	4
146	146	3
114	115	1
154	156	1
26	27	2
81	89	2
83	119	2
83	85	2
20	110	2
117	131	1
38	39	2
37	37	6
77	86	2
92	103	1
126	127	4
57	68	1
78	79	5
47	47	5
26	34	1
78	80	1
117	121	2
1	8	2
16	21	1
139	145	1
11	30	1
152	153	2
14	15	1
77	79	1
117	118	2
119	120	3
79	115	2
39	41	4
30	35	2
108	109	5
143	143	1
33	34	3
11	12	2
9	12	1
96	101	1
121	122	4
39	42	2
40	110	2
36	103	1
7	43	1
96	104	3
19	110	1
29	34	1
88	89	5
92	95	2
57	69	2
77	131	2
86	87	1
11	11	5
21	107	1
66	68	3
87	87	2
110	113	2
141	142	2
3	4	2
113	116	2
134	140	1
135	137	2
30	39	2
118	118	5
150	152	1
134	139	1
38	40	1
45	46	1
72	73	1
12	20	3
62	62	1
39	113	1
63	71	1
21	110	1
6	8	2
56	87	2
102	103	1
12	21	1
17	110	1
18	39	2
41	42	2
117	130	2
67	70	2
9	108	4
18	115	2
29	35	1
5	5	3
64	64	2
28	37	1
21	44	4
132	135	1
49	67	2
140	141	1
124	127	1
66	76	2
81	130	1
123	127	1
80	81	4
53	69	2
18	19	2
107	108	3
97	104	1
51	52	2
134	136	2
43	44	1
66	88	1
132	142	3
6	19	2
17	20	1
104	105	1
141	141	4
22	104	1
24	25	1
134	137	1
153	157	2
64	70	2
128	156	1
83	137	1
138	139	1
55	75	1
146	149	1
78	106	1
84	87	1
27	28	1
77	134	1
101	105	2
75	87	1
81	82	1
36	39	1
51	54	1
136	137	1
89	96	1
29	39	1
87	89	1
97	98	1
9	40	1
65	66	1
154	155	1
27	100	1
54	75	1
149	149	1
16	23	1
41	43	1
28	30	1
144	145	1
86	126	1
80	108	1
89	115	1
0	1	1
29	38	1
