12	12	10
81	82	5
39	50	4
106	113	2
121	121	2
67	68	4
54	54	7
69	70	3
94	94	17
111	111	11
40	40	5
32	32	2
122	122	12
135	135	16
80	80	1
14	14	12
144	144	8
155	155	7
156	156	18
110	122	6
71	72	2
89	89	9
150	150	8
91	91	5
7	7	12
51	64	2
24	32	2
36	36	11
6	6	9
96	96	14
99	100	2
75	75	12
69	69	7
8	9	17
155	156	2
108	108	6
10	10	13
154	157	1
137	151	4
53	53	4
121	123	4
11	13	2
110	110	10
84	84	8
141	146	1
114	114	8
158	158	4
110	120	3
2	115	5
115	115	7
46	47	2
31	31	16
131	131	9
98	98	6
129	129	15
46	46	11
50	50	14
109	110	3
41	43	4
123	141	3
15	16	7
127	127	5
146	146	13
147	147	5
28	28	9
137	137	13
142	142	7
82	82	9
9	11	3
5	5	9
37	38	4
15	15	7
97	97	9
93	94	2
44	44	8
22	22	4
36	37	6
11	11	8
141	141	10
30	30	22
144	145	8
119	119	7
62	62	3
27	28	3
148	148	6
152	152	5
11	35	6
38	38	3
35	35	2
131	132	3
24	24	12
16	70	3
84	85	3
35	39	2
100	100	12
66	66	3
78	116	2
3	3	8
134	134	8
137	155	3
86	86	5
79	81	4
0	0	8
52	52	9
108	113	3
21	21	1
21	22	1
16	18	1
124	141	3
2	2	14
136	136	9
49	64	2
14	22	1
135	150	3
27	29	2
149	149	2
44	65	1
30	48	3
67	72	2
82	127	5
51	51	1
10	11	3
152	157	1
105	105	5
125	148	1
0	99	1
139	140	3
19	20	9
73	73	9
90	120	2
116	125	3
81	116	1
111	119	3
104	105	6
76	76	2
87	92	1
104	104	6
106	120	5
48	48	2
1	2	4
52	53	1
121	124	6
63	63	5
85	85	6
3	4	3
118	118	12
69	71	2
99	99	7
50	53	4
13	14	2
45	46	1
16	57	3
153	153	5
73	74	3
110	139	1
77	77	8
88	88	4
14	19	2
130	134	4
130	131	3
55	86	1
82	84	1
83	83	11
30	104	1
42	42	10
72	72	7
49	49	4
3	14	2
151	151	5
26	26	5
118	119	4
53	71	3
113	113	5
13	13	3
8	8	1
55	55	6
23	23	2
56	56	2
106	106	6
77	81	5
16	28	3
158	159	3
65	65	4
95	95	7
17	26	1
4	4	5
116	116	10
124	124	6
43	43	16
52	69	1
27	134	3
87	88	3
111	117	2
27	27	2
128	128	4
125	125	7
132	133	6
4	21	1
11	12	2
119	120	2
41	41	5
107	111	3
109	109	7
37	37	6
87	87	7
83	84	3
40	41	2
55	78	1
147	150	2
130	133	3
18	18	5
49	71	1
117	119	1
148	151	3
143	143	3
64	64	1
32	33	4
116	117	2
147	148	3
16	19	3
95	96	3
140	141	4
135	136	1
10	35	3
112	112	4
47	47	2
124	125	4
157	157	2
134	137	3
1	1	12
23	24	4
127	151	1
8	49	3
106	143	3
1	19	1
108	109	4
117	118	3
4	20	3
94	95	7
82	83	1
117	117	1
132	148	1
8	11	4
93	93	4
67	69	2
140	140	1
76	78	1
70	70	5
128	151	3
133	133	2
107	137	4
71	71	1
126	126	8
120	121	2
127	128	1
24	47	2
148	149	1
139	139	11
143	144	1
33	35	2
51	55	1
139	142	4
141	142	4
122	123	3
5	36	1
145	145	1
5	6	2
123	124	2
88	157	3
141	154	1
25	38	3
20	20	6
80	82	2
64	70	2
7	30	1
117	121	3
48	49	1
77	79	2
17	17	1
146	149	4
68	68	4
115	128	1
29	132	3
31	57	3
154	154	3
85	86	3
34	34	5
14	15	1
120	120	4
45	45	2
28	29	2
118	147	4
34	114	1
101	101	2
81	158	4
35	37	2
80	83	2
94	102	1
9	9	1
155	158	1
6	74	1
103	103	2
79	79	2
85	87	3
77	78	4
76	77	2
68	71	2
106	119	1
119	121	1
52	71	3
107	110	1
2	3	1
101	128	1
7	8	2
95	97	1
53	54	1
16	17	2
19	19	4
3	10	3
16	42	1
62	67	1
47	48	2
132	132	2
67	90	2
86	87	2
92	92	5
24	92	2
105	106	1
31	32	2
21	25	2
24	26	3
24	42	1
11	25	2
146	147	5
39	40	1
130	136	1
57	62	1
10	12	1
66	90	1
8	25	2
54	83	1
153	154	1
12	19	1
100	124	1
125	126	3
57	57	3
17	18	1
6	45	1
107	108	2
90	90	4
111	147	1
130	130	1
16	16	1
38	53	1
141	157	2
13	15	1
67	67	2
81	81	2
15	20	1
107	107	4
113	114	1
118	121	1
44	72	1
152	154	1
94	96	2
86	122	2
106	109	1
25	26	1
40	51	1
107	115	1
23	73	1
91	127	1
38	50	1
30	31	1
135	137	1
9	10	1
138	138	1
24	27	1
123	125	2
13	30	1
129	130	1
26	94	1
50	65	1
123	123	1
41	42	1
50	70	1
25	25	2
131	135	1
154	155	1
118	146	1
29	30	2
14	21	1
102	102	2
137	138	1
