139	143	3
28	48	1
145	146	10
100	100	12
11	12	5
54	54	6
30	30	9
88	89	19
11	11	22
77	78	7
80	82	3
36	38	2
101	101	9
4	4	6
122	122	21
126	127	15
35	35	7
37	37	8
136	136	7
16	16	15
29	30	13
72	72	6
91	91	15
109	111	3
81	119	2
109	115	1
147	147	18
73	74	3
97	97	10
135	135	19
38	38	6
51	53	4
40	40	8
138	138	11
107	107	12
142	142	10
87	92	1
36	36	10
34	35	10
68	69	5
10	10	14
41	41	8
81	81	4
116	116	12
20	53	4
52	52	17
93	93	17
118	118	8
146	148	3
56	56	7
67	67	26
122	124	2
8	8	16
136	152	1
33	40	3
150	157	10
41	45	3
99	99	7
12	12	23
117	117	10
3	3	11
109	109	13
113	113	9
95	96	6
71	105	1
123	126	4
15	15	13
82	82	16
94	94	19
41	42	10
121	122	9
69	70	6
23	23	13
94	95	7
25	25	19
51	54	2
33	33	4
114	114	10
92	92	2
98	98	16
80	80	15
1	2	5
21	27	2
68	119	5
125	126	9
133	157	2
0	0	13
4	150	3
109	113	2
17	17	8
39	46	2
134	135	5
96	97	3
76	78	3
65	65	10
158	158	14
153	154	3
43	47	1
150	150	10
131	133	5
82	83	7
106	106	23
82	84	5
108	114	2
78	128	1
99	100	4
143	143	3
110	110	8
115	118	1
111	111	11
64	64	8
44	44	13
16	55	8
141	148	4
127	127	11
5	30	2
49	52	2
39	42	2
57	57	4
27	27	12
91	94	1
92	93	5
120	137	3
45	46	4
20	22	3
95	95	7
124	126	6
7	8	11
108	109	11
140	140	15
22	22	16
24	25	3
32	32	8
79	79	13
124	124	8
22	51	3
64	104	1
93	94	8
36	39	3
17	55	3
150	151	3
139	139	13
73	73	14
62	95	5
133	133	17
5	5	13
42	42	18
22	93	3
83	90	6
19	19	10
20	21	1
101	130	4
96	105	5
107	108	3
24	24	14
151	156	2
121	121	18
1	1	18
125	125	6
51	52	4
88	88	8
152	152	4
18	50	1
5	6	2
119	120	9
71	71	10
111	115	4
50	50	6
87	108	7
39	41	2
114	115	10
130	131	6
108	122	3
4	30	3
56	68	6
79	81	1
12	120	4
131	132	9
81	82	6
48	48	5
78	132	2
113	122	4
4	5	3
17	65	2
139	142	2
139	140	7
86	87	6
39	39	9
27	36	2
91	92	8
110	114	2
87	89	3
140	146	1
6	6	10
33	34	3
37	135	1
26	26	13
41	43	9
73	129	1
28	28	6
12	13	8
123	123	22
132	132	12
14	14	12
145	145	10
107	109	5
23	43	3
7	7	17
70	70	8
103	103	13
135	136	6
47	47	15
69	119	2
140	147	3
23	25	2
96	96	17
9	9	5
90	111	1
14	26	1
129	129	8
120	120	8
125	135	3
75	75	12
21	51	1
149	149	11
42	44	1
46	47	2
90	90	10
108	140	3
56	57	3
57	70	4
34	34	6
28	29	4
141	141	11
2	2	3
80	81	11
142	143	4
116	138	4
115	115	10
22	25	4
13	13	8
65	71	2
118	119	3
137	138	9
6	7	4
76	76	4
118	120	2
100	101	1
110	115	1
52	54	6
111	113	1
64	71	1
84	84	14
112	113	3
71	72	5
140	141	7
122	123	7
87	87	22
69	69	6
129	130	5
121	148	1
132	134	3
87	88	4
23	30	5
127	139	1
106	107	6
133	134	4
63	63	7
104	105	8
125	138	1
157	157	6
143	144	1
91	105	1
43	43	15
2	5	3
85	87	4
77	77	12
104	104	3
105	105	5
146	146	7
38	39	10
32	33	5
132	133	21
78	79	9
152	153	4
14	16	4
20	20	4
56	127	1
108	115	2
10	11	2
46	46	9
11	137	3
119	121	2
126	126	10
131	131	5
48	49	6
86	86	15
139	158	5
16	56	2
83	85	1
114	116	1
105	106	4
68	68	13
144	144	14
78	78	6
143	145	1
91	126	1
85	85	4
42	45	2
87	149	1
110	124	3
137	137	11
40	41	9
105	126	2
43	46	3
28	31	5
3	23	2
79	132	5
30	31	3
91	106	2
62	62	2
31	36	2
27	31	1
116	117	2
18	18	6
25	29	1
117	118	4
153	153	18
134	134	5
30	46	1
106	127	1
23	24	5
148	148	5
25	52	3
0	1	1
89	89	8
29	91	2
31	32	6
32	54	2
97	121	1
55	127	1
123	124	4
67	126	1
154	155	4
147	152	2
124	125	1
67	140	1
108	110	2
55	56	1
144	153	1
55	55	5
135	156	1
18	19	6
112	112	2
69	71	1
147	148	4
120	121	2
29	29	4
90	92	2
64	68	1
87	90	2
9	19	1
8	9	8
68	126	1
71	98	1
63	69	2
47	51	2
43	83	1
44	45	4
49	49	6
82	103	3
74	74	2
30	89	2
89	92	3
38	48	2
109	110	5
39	40	1
96	103	1
155	155	6
21	21	3
123	127	1
152	156	3
98	99	1
120	141	1
36	155	5
111	123	2
113	114	5
69	124	3
90	91	6
89	127	2
61	61	2
114	118	1
151	151	3
49	53	3
9	16	1
136	155	4
81	137	2
36	154	1
26	52	1
54	97	1
15	18	1
157	158	2
21	65	1
45	45	8
156	156	2
129	139	2
37	137	1
13	14	1
67	68	2
146	155	1
9	18	3
7	135	1
108	108	4
134	138	1
91	93	5
27	54	3
100	129	2
128	133	1
29	39	3
52	151	2
51	51	6
25	49	2
91	97	1
114	141	2
88	92	4
33	37	1
21	22	9
52	88	1
111	112	1
9	10	8
132	157	2
31	35	3
150	153	1
104	128	2
22	50	2
137	157	2
139	149	1
137	154	2
128	129	2
155	156	3
25	27	1
66	70	1
115	117	1
34	86	1
49	51	2
88	148	1
23	93	1
79	104	2
19	52	1
101	102	2
111	138	1
106	148	1
35	37	2
133	150	2
135	146	2
102	102	6
57	127	1
117	122	1
22	31	2
94	98	2
134	137	4
111	117	4
66	127	1
97	98	2
70	95	1
119	126	1
141	149	1
105	139	1
152	154	1
14	15	4
110	117	2
56	62	1
82	90	2
88	91	2
83	84	2
148	150	2
95	123	2
118	124	2
50	52	2
53	53	5
115	116	4
33	35	3
119	119	4
36	156	1
22	49	1
95	122	1
75	80	2
90	105	1
31	33	2
49	50	1
30	32	1
142	149	2
104	107	2
117	121	2
128	128	2
102	103	2
62	71	1
56	69	3
126	128	1
89	90	1
85	86	3
67	71	4
63	96	1
79	113	1
98	104	2
142	155	3
52	53	1
108	111	2
84	85	1
66	67	1
144	146	1
131	134	1
34	42	3
89	146	1
45	47	1
5	29	1
151	152	2
108	112	1
154	154	3
11	13	1
3	133	2
54	55	1
95	106	3
144	145	4
153	156	2
11	120	1
86	88	1
149	157	1
89	91	1
31	50	1
136	137	1
31	31	5
63	64	4
115	121	1
54	109	1
82	86	1
24	28	1
34	36	1
104	108	1
130	130	2
108	118	1
92	94	2
67	70	1
2	4	1
79	80	4
83	83	2
61	62	1
37	152	1
36	48	1
137	153	1
95	97	1
116	120	1
20	49	1
156	157	2
91	123	1
7	11	1
66	98	2
20	47	1
3	32	1
35	132	1
43	45	4
116	140	1
128	130	2
3	132	2
29	31	1
50	51	4
152	155	3
12	117	1
105	107	2
57	63	2
101	129	2
37	156	2
16	19	1
31	34	1
10	138	1
1	131	1
137	158	1
18	54	1
136	154	1
17	18	1
13	15	1
82	125	1
7	55	2
118	121	2
122	137	2
5	47	1
92	97	1
88	123	1
68	124	1
84	123	1
155	157	1
12	16	1
64	106	1
98	100	1
64	70	1
113	115	1
81	114	1
84	92	1
22	28	1
107	112	1
48	50	2
136	141	1
110	138	1
42	43	2
98	103	1
