83	85	2
9	9	26
78	78	14
1	1	10
47	48	13
85	85	7
70	70	16
10	11	4
50	50	14
26	54	2
11	11	21
54	62	3
78	79	3
74	77	5
69	69	19
19	24	7
20	20	15
31	31	12
52	52	7
82	82	14
68	68	16
17	19	5
30	30	8
65	65	12
25	25	21
76	76	9
16	16	5
56	60	4
19	20	10
25	26	9
61	62	6
67	67	21
50	52	7
56	81	4
60	61	6
80	80	15
77	77	9
74	74	17
19	19	12
22	22	15
29	29	8
57	57	25
84	84	8
53	82	6
61	61	13
56	74	3
50	60	3
14	14	21
50	51	6
65	66	1
3	3	24
6	6	18
9	10	1
54	54	28
89	89	13
55	55	11
79	79	13
48	50	3
81	81	12
57	68	2
59	59	9
70	81	2
28	28	8
50	61	1
18	22	2
21	22	2
26	26	7
23	23	10
58	58	10
5	6	4
24	74	4
69	74	1
87	87	17
61	83	2
7	7	9
55	56	6
10	10	5
47	47	12
24	27	5
46	46	2
72	72	10
4	4	18
66	66	14
0	0	10
20	21	2
68	83	4
64	66	1
5	5	10
17	23	9
33	33	5
59	60	6
27	27	12
86	86	17
57	75	1
13	13	5
7	8	3
57	69	2
48	48	21
16	17	3
64	65	2
28	29	2
51	51	5
53	66	2
56	56	7
72	83	2
79	81	4
50	58	4
12	12	3
4	31	1
73	85	2
12	13	10
52	55	2
52	60	4
64	64	10
67	71	1
80	83	2
71	71	3
83	83	13
58	67	4
21	21	5
63	63	18
76	77	3
54	79	2
62	65	4
73	73	3
88	88	6
32	32	2
71	72	4
2	2	2
23	75	2
53	53	8
49	49	8
67	73	1
55	62	1
19	21	4
48	70	5
15	15	7
54	59	1
54	58	2
6	7	10
72	74	4
4	5	2
29	74	5
28	53	4
63	64	3
58	60	1
34	34	6
32	34	1
86	87	7
24	25	1
54	55	2
75	76	2
5	17	1
57	85	2
80	85	2
87	88	2
24	31	1
63	65	1
66	74	1
53	80	3
23	24	7
77	80	2
77	78	3
50	53	1
8	8	3
27	54	2
76	82	2
60	60	5
50	54	3
14	73	1
62	62	4
6	9	1
4	75	1
62	66	3
55	66	2
51	52	2
14	23	1
17	17	9
52	53	3
24	24	8
81	83	2
27	28	1
29	30	4
23	31	2
4	10	2
3	4	1
10	17	3
82	83	2
56	62	1
79	80	5
26	27	5
49	67	2
49	52	2
58	81	4
84	85	2
89	90	1
9	27	1
7	31	1
79	82	2
6	16	1
49	84	1
9	18	1
26	65	1
75	75	1
21	31	2
60	76	1
68	74	1
23	74	1
46	70	1
58	71	1
9	24	1
58	59	1
49	53	1
88	89	2
77	79	1
59	62	2
6	8	1
57	58	2
52	76	1
4	28	1
90	90	1
25	32	1
