131	131	8
126	126	6
112	112	16
172	174	7
153	153	8
129	129	12
0	30	1
145	146	2
53	69	1
130	138	2
142	142	7
36	37	5
122	122	4
0	0	1
185	185	10
187	187	14
72	72	6
197	197	18
162	164	2
106	109	2
149	149	20
15	30	8
3	3	10
157	157	3
51	51	10
28	28	4
69	70	10
124	124	11
130	131	5
172	172	12
196	196	10
139	140	9
18	18	2
179	180	2
156	157	4
180	182	1
188	188	6
182	182	4
121	121	3
132	132	5
127	128	2
38	38	9
135	135	5
88	88	5
124	125	8
176	177	1
17	18	7
141	141	5
184	184	13
170	170	10
195	195	13
169	169	18
41	41	9
114	114	6
139	139	4
12	57	6
26	26	6
71	71	7
136	151	1
162	174	5
15	15	8
72	73	3
170	186	4
140	140	3
70	70	18
125	125	3
69	72	2
50	50	4
133	133	22
31	33	3
183	196	1
101	158	1
111	111	13
182	183	7
42	43	3
6	6	10
130	130	8
174	174	5
169	170	5
115	116	4
129	155	4
34	34	3
17	17	2
28	29	2
47	47	10
70	86	4
29	29	4
148	148	15
104	104	9
55	56	5
190	190	8
56	56	6
163	166	4
138	138	6
56	69	4
154	164	2
167	169	4
66	66	2
155	156	1
18	20	2
125	126	5
22	24	4
55	55	1
161	164	2
40	40	7
160	160	9
39	41	3
14	45	2
180	180	9
133	137	1
34	36	2
178	178	15
147	147	7
194	194	20
45	135	4
120	171	5
9	53	2
16	37	1
135	136	4
181	181	5
7	7	7
42	42	6
123	123	8
48	48	8
180	181	3
117	117	5
132	135	2
127	127	5
186	187	3
49	49	10
93	93	3
93	95	2
22	35	2
151	151	4
81	81	1
189	191	4
110	111	3
18	19	4
168	169	4
126	141	1
171	174	1
20	20	8
150	155	2
171	171	14
34	35	8
148	149	2
2	5	3
39	39	9
15	16	2
138	141	2
45	45	7
173	173	3
52	52	6
21	26	3
30	30	8
144	147	1
46	46	6
144	144	8
57	57	7
11	11	11
27	27	5
68	68	3
79	79	2
157	158	1
133	160	4
24	24	4
54	54	7
136	136	15
35	35	5
192	192	4
155	155	5
161	162	4
109	109	3
58	58	10
39	40	1
147	178	1
154	159	6
167	167	8
179	179	10
1	2	5
40	43	1
119	119	8
9	33	2
25	27	2
61	64	3
154	155	8
193	193	9
42	46	1
158	159	6
105	106	6
53	53	15
40	41	6
78	78	3
165	166	4
173	174	6
177	177	3
89	89	6
183	183	12
94	94	3
175	176	2
4	4	7
25	25	4
5	16	2
189	189	7
107	129	3
176	176	14
101	101	8
162	162	2
96	97	1
118	118	3
155	157	4
150	152	1
146	146	6
81	83	3
18	35	3
1	30	2
186	186	4
6	9	3
80	82	1
172	173	1
143	144	2
12	45	1
46	47	2
108	108	6
84	85	1
151	152	3
180	190	8
163	163	7
175	175	2
11	44	2
80	95	4
196	197	2
101	189	1
139	146	1
132	156	4
166	167	1
52	58	3
21	21	2
152	152	9
106	106	1
23	23	5
30	31	2
99	99	9
43	44	4
158	158	5
171	179	1
27	32	1
137	140	1
123	124	1
113	114	2
114	115	6
32	54	1
187	188	6
176	178	2
13	13	6
33	33	5
59	59	4
143	143	4
104	153	3
154	154	5
137	137	4
124	176	4
84	84	4
189	190	4
150	151	2
195	196	3
162	167	2
151	161	2
117	118	3
12	51	5
45	46	4
107	107	2
102	104	1
128	128	11
47	48	3
19	19	7
44	44	1
2	3	2
126	127	3
17	19	1
10	10	8
77	78	6
163	167	2
122	123	6
165	165	1
54	55	3
170	171	4
169	178	2
120	121	1
136	137	1
190	194	2
80	81	4
120	124	1
95	95	3
100	100	2
52	53	3
44	45	1
114	121	1
21	34	3
17	36	1
62	62	4
153	155	1
194	195	3
188	194	1
138	139	1
175	179	1
178	179	1
90	90	1
86	86	1
58	62	3
150	180	2
188	197	2
162	166	2
43	43	7
37	37	8
189	193	2
159	172	2
150	150	2
160	189	3
156	156	7
11	12	3
128	129	3
7	9	3
171	172	4
60	60	1
69	71	3
193	194	3
14	14	6
54	68	2
119	121	1
70	71	3
109	111	2
58	59	3
191	191	3
116	116	6
36	36	8
37	38	2
28	32	1
141	142	2
142	149	1
10	11	3
42	44	1
137	150	3
168	168	9
27	28	1
121	137	1
9	47	4
8	8	3
113	113	3
76	76	1
165	172	1
0	17	2
17	35	1
166	166	2
134	134	1
1	1	4
100	149	1
136	140	1
59	61	3
26	28	4
38	39	3
62	63	2
12	13	1
52	55	2
169	177	1
133	136	1
21	28	1
127	129	1
132	133	3
9	9	5
168	181	2
114	129	1
147	148	1
139	144	1
35	36	2
77	77	1
29	31	1
12	12	4
133	134	3
62	72	2
155	158	1
47	53	4
54	56	5
1	33	2
122	124	4
193	195	2
115	117	2
171	182	2
19	20	1
145	145	1
67	73	1
94	95	2
67	67	1
131	132	1
100	101	3
1	31	1
9	11	1
102	102	2
4	6	1
105	108	1
160	161	1
135	151	1
86	88	1
65	66	1
120	120	2
43	55	2
45	47	1
110	110	1
62	97	1
50	51	2
79	80	4
190	191	3
14	15	1
1	19	1
22	22	4
159	159	2
183	186	1
104	105	5
166	180	2
147	176	2
121	142	1
187	191	1
167	168	2
134	149	1
116	119	2
150	153	1
87	87	1
17	21	2
181	190	2
87	89	1
115	115	3
1	4	1
164	164	1
2	2	4
119	123	2
174	175	2
16	16	2
164	165	1
125	128	1
133	157	2
39	42	1
111	129	1
146	147	2
111	116	1
9	14	1
111	115	1
9	32	1
26	30	1
111	112	3
4	11	1
82	87	2
40	42	1
36	38	1
103	103	2
144	145	1
102	147	1
145	147	1
163	164	1
156	158	1
22	25	1
39	54	1
70	72	1
118	120	2
177	178	2
98	98	1
169	176	2
144	155	1
5	5	1
0	2	1
122	125	1
5	6	1
23	34	1
135	137	1
54	59	1
181	182	2
111	139	1
20	54	1
130	153	1
188	189	1
185	193	1
69	188	1
15	17	1
148	156	1
148	152	1
177	179	1
56	57	1
83	85	1
85	86	1
27	58	1
119	124	1
17	37	1
53	54	1
16	17	1
33	53	1
8	14	1
190	193	1
24	25	1
163	176	1
87	88	1
