98	98	8
26	26	5
51	51	8
50	50	15
18	19	2
126	127	9
111	111	8
106	107	4
120	121	5
31	31	9
90	91	2
24	25	3
33	33	4
86	86	4
29	34	4
131	132	3
97	97	2
23	23	6
16	16	8
126	126	6
6	31	2
58	58	1
114	114	2
115	116	10
44	44	10
77	88	4
67	67	7
127	128	6
57	57	13
86	88	3
132	132	4
63	63	2
121	123	3
43	45	1
82	82	1
127	127	7
29	30	4
63	75	3
11	19	3
83	87	3
45	45	11
6	6	12
19	25	1
75	79	1
104	105	1
15	15	7
42	42	9
118	118	5
73	74	2
59	59	3
41	42	4
130	130	5
12	12	4
64	64	3
97	103	1
17	18	3
90	90	3
80	80	10
120	120	3
106	106	3
87	87	2
96	106	1
47	47	12
83	83	3
14	16	2
43	101	1
24	82	1
32	32	5
20	20	10
105	105	4
11	29	1
64	75	4
70	72	7
111	112	1
23	66	1
25	25	5
53	53	7
112	122	1
49	53	1
72	72	8
107	126	3
59	64	5
27	27	4
39	39	7
76	76	4
125	125	6
11	11	2
54	54	8
102	103	4
119	119	4
107	107	3
124	124	3
104	104	4
39	40	4
49	49	9
71	71	4
10	10	14
129	129	6
70	71	3
113	114	11
55	55	1
13	13	11
42	112	2
117	117	5
108	108	4
115	115	2
77	77	7
121	121	2
101	101	5
91	91	9
122	122	7
72	73	5
8	10	3
79	79	13
68	68	5
67	68	4
60	60	3
23	102	2
44	45	11
34	34	2
3	4	6
40	40	9
19	19	4
21	21	7
46	47	5
50	54	5
77	78	1
12	15	7
42	131	5
25	83	3
93	93	9
41	41	6
45	83	1
85	85	5
56	56	3
112	112	9
25	32	3
29	29	6
116	116	2
78	80	3
5	41	1
81	102	1
107	114	3
14	15	1
108	131	1
94	94	4
112	113	8
76	83	2
74	74	5
75	75	3
69	69	5
60	63	9
88	88	7
46	48	2
116	117	2
100	113	1
22	64	4
110	110	4
32	33	3
109	110	5
1	1	6
39	79	2
96	96	5
6	27	3
17	17	4
107	108	2
89	89	4
8	8	4
95	106	1
104	113	1
131	131	7
4	4	3
92	92	11
73	73	2
99	99	3
40	46	4
48	48	4
49	50	1
30	30	4
54	125	1
3	3	3
42	109	1
11	12	3
38	38	4
13	14	1
38	39	2
31	32	1
107	113	1
66	120	3
125	127	1
78	79	1
123	123	2
33	34	1
2	2	2
82	117	1
11	16	2
43	43	5
22	22	4
96	109	1
18	38	1
76	80	1
102	102	1
12	16	1
64	65	1
64	79	1
81	81	3
126	128	3
70	70	3
119	133	2
0	0	2
67	69	2
96	104	1
113	113	5
88	89	3
12	13	1
49	51	2
41	45	2
68	113	3
24	24	4
46	46	1
107	118	1
20	25	2
42	43	4
7	7	1
78	78	1
67	113	1
109	109	1
51	52	1
15	16	1
9	10	1
27	30	2
28	28	1
18	18	1
112	117	1
0	83	1
95	95	1
74	75	1
50	51	1
52	52	1
90	93	1
110	112	1
5	5	2
82	87	1
75	77	1
81	83	1
25	68	2
1	25	1
59	61	1
51	53	1
58	59	1
9	9	1
109	133	1
