24	24	5
11	11	21
9	9	11
68	71	1
72	72	16
93	94	3
29	61	3
86	86	5
78	78	3
111	111	7
21	84	3
45	45	8
3	4	8
10	10	12
39	41	3
19	19	14
75	75	19
31	31	8
9	75	5
47	47	27
26	26	18
4	4	6
24	60	1
7	83	1
8	34	1
28	33	3
129	130	4
67	68	13
33	33	21
65	65	24
48	59	1
14	14	8
79	79	8
118	118	3
62	63	3
61	61	16
35	36	10
88	121	4
23	23	6
61	75	4
107	107	10
18	104	4
98	99	7
111	112	5
28	29	2
80	90	3
64	64	8
80	82	3
33	34	5
132	133	2
94	94	11
129	129	7
38	97	1
124	129	1
77	77	21
5	65	1
85	87	4
103	107	11
113	114	3
109	113	4
46	46	11
121	121	5
76	76	12
27	93	3
22	26	1
63	63	4
82	83	10
12	12	11
102	128	4
87	87	8
131	132	3
116	116	9
48	48	4
88	89	3
38	40	8
11	14	3
100	101	5
11	92	3
68	68	8
77	85	3
59	59	1
60	60	11
27	27	13
25	38	1
32	32	12
45	47	2
7	7	4
10	12	5
99	100	4
7	39	2
34	35	8
15	36	1
4	13	2
66	67	11
70	70	5
101	101	22
22	56	4
114	114	6
119	119	11
113	131	1
100	100	5
97	97	7
38	38	8
126	126	8
26	48	1
89	91	3
88	122	3
15	15	11
71	72	4
35	48	3
119	120	4
75	76	6
96	96	3
77	78	3
6	8	3
125	126	5
104	104	8
36	36	9
21	81	3
57	58	2
24	82	2
17	17	3
95	95	6
73	73	4
103	116	2
84	85	5
89	120	2
71	71	5
115	115	8
90	93	3
91	92	3
66	66	7
109	109	1
11	13	6
2	2	2
44	45	7
122	122	10
94	96	4
18	18	3
25	25	7
18	19	1
35	35	15
93	93	3
19	20	3
125	125	13
62	62	6
13	80	2
119	124	8
95	96	8
27	29	1
113	113	6
11	12	2
1	1	3
81	81	2
58	58	2
72	73	2
56	56	4
12	46	4
96	99	5
8	9	3
127	127	2
102	103	3
87	120	1
15	23	6
45	58	4
20	42	2
27	105	3
87	91	3
83	83	1
21	43	1
123	123	6
8	8	7
6	6	7
125	128	2
37	37	8
9	11	1
74	74	12
38	39	1
110	110	9
17	18	4
123	124	3
115	121	2
47	48	1
63	74	1
48	50	3
76	78	4
63	75	1
18	37	3
43	43	4
20	25	3
19	28	1
124	125	2
24	25	2
21	42	2
13	14	2
82	82	13
57	57	6
29	30	11
80	81	1
27	32	2
84	84	6
87	88	5
85	85	13
131	134	4
39	43	6
92	92	3
83	84	5
45	91	3
115	116	3
78	80	3
27	97	1
39	39	4
124	124	11
29	29	4
133	134	5
21	30	3
2	4	4
78	79	5
110	111	1
117	117	6
93	98	3
66	68	3
98	98	3
21	85	1
26	29	3
128	129	4
58	63	3
3	3	3
95	99	2
85	86	2
112	112	12
80	80	4
69	69	4
25	77	1
29	59	3
105	109	1
56	59	1
117	119	3
102	102	5
55	56	1
106	109	2
20	85	1
76	77	6
4	15	2
22	23	1
94	95	3
102	126	6
35	74	4
13	46	2
75	86	3
131	133	2
8	16	3
31	32	2
12	75	2
35	60	1
44	44	5
4	82	1
9	47	3
40	40	2
7	10	1
39	42	5
82	93	1
99	99	3
5	5	6
73	76	1
3	88	1
34	34	4
105	105	3
12	48	3
126	127	1
9	10	4
47	86	2
27	117	4
27	28	2
78	85	3
23	37	1
21	22	2
112	113	4
2	3	6
113	115	1
11	26	1
130	130	2
45	48	2
92	99	1
59	61	1
20	21	1
92	93	1
96	97	1
109	110	1
36	72	1
20	20	4
82	85	1
34	36	2
88	88	1
60	61	4
17	60	1
67	67	3
68	69	3
32	33	1
123	125	2
41	55	2
11	75	3
7	8	1
23	31	2
21	56	2
5	12	3
103	103	2
22	33	1
8	10	3
39	45	1
108	108	1
81	85	1
97	129	2
38	95	2
41	48	1
28	28	3
122	123	2
28	80	1
49	49	1
132	132	1
39	40	1
91	98	1
121	126	3
58	85	1
36	37	2
78	94	3
63	64	3
17	90	1
17	19	1
56	57	1
117	118	1
4	96	1
7	30	3
11	48	1
121	122	2
45	73	2
41	42	3
70	74	1
113	130	3
23	24	2
121	125	1
117	120	1
7	16	3
128	128	2
21	21	3
26	27	1
25	39	1
90	92	3
31	59	3
26	46	2
14	16	1
89	102	1
28	118	1
4	45	1
12	13	3
22	22	1
27	78	1
76	93	1
112	129	1
34	74	1
106	107	2
25	44	2
80	83	1
81	82	3
25	93	2
41	41	1
65	67	2
79	80	2
91	91	3
46	72	2
120	120	2
6	84	1
90	101	2
93	100	1
48	77	1
9	13	1
29	62	1
12	60	1
94	99	1
9	72	2
29	35	2
97	98	2
21	55	1
82	96	2
16	59	1
14	57	1
42	82	1
30	48	1
43	44	1
96	98	1
59	60	1
107	113	1
46	59	1
102	122	1
57	59	1
40	41	2
68	70	1
95	100	1
37	39	1
30	32	1
45	90	2
101	107	1
130	131	1
