92	92	16
65	69	5
79	79	28
33	39	2
63	86	3
80	80	20
52	52	28
61	61	12
84	101	7
33	36	3
34	40	4
87	91	5
51	51	15
100	101	21
96	96	22
102	102	10
70	70	14
69	84	5
26	27	13
86	89	3
31	32	7
27	27	17
72	72	16
88	88	12
66	67	12
90	90	23
62	62	15
31	33	5
84	84	18
39	39	17
56	57	3
44	75	3
89	90	4
50	50	23
33	33	21
49	49	12
54	61	3
67	67	26
79	80	9
29	29	8
101	102	6
93	93	15
97	97	20
54	89	1
51	55	1
78	78	20
41	41	17
86	87	6
57	57	16
96	97	13
55	67	4
89	89	18
86	93	6
88	89	5
34	38	1
68	70	3
82	82	13
24	25	5
44	44	19
61	62	7
75	75	18
95	99	8
81	81	21
39	40	2
65	88	3
22	84	3
72	73	2
60	61	9
46	83	3
23	32	3
36	36	13
42	42	28
55	57	1
55	59	3
59	59	14
34	35	9
34	34	5
22	52	3
60	62	2
74	74	33
54	56	8
48	48	15
71	72	6
43	43	19
35	36	2
35	47	3
86	88	4
100	100	23
24	24	9
70	71	7
55	56	4
46	58	3
38	38	14
63	63	30
49	50	16
81	82	9
69	69	14
99	100	4
91	91	14
64	65	9
66	78	2
94	100	3
74	75	9
85	85	20
69	72	4
95	95	22
57	58	4
91	92	5
64	64	13
99	99	15
69	70	13
26	79	3
54	55	11
77	77	12
33	38	3
72	74	3
50	51	4
79	98	5
35	35	7
53	53	10
86	86	8
88	100	3
65	67	6
51	68	4
33	55	1
45	45	15
68	68	7
76	76	12
60	60	7
64	79	3
20	20	9
42	43	1
62	78	2
80	81	7
90	91	5
97	98	8
34	58	2
47	47	11
37	54	3
30	30	2
28	28	4
98	98	10
26	28	6
59	65	5
24	26	5
79	96	2
31	31	16
66	66	17
98	100	8
71	71	14
80	85	5
68	69	1
40	41	3
83	83	20
72	78	3
94	94	11
38	39	3
20	22	3
32	46	1
70	72	1
95	96	2
53	87	3
73	73	5
34	45	3
65	65	9
46	46	7
65	86	2
89	98	4
26	26	6
80	82	2
25	25	4
55	66	4
38	41	5
86	95	3
93	94	3
84	100	1
41	42	3
58	58	9
45	68	5
45	48	3
87	99	1
40	48	1
57	64	4
65	66	4
56	56	4
37	38	4
87	88	6
38	46	3
35	37	5
69	73	3
67	78	2
83	99	2
25	26	3
34	37	1
54	80	3
62	63	3
22	22	4
20	79	4
56	67	3
64	77	1
46	84	2
87	87	8
93	98	4
38	93	2
84	88	2
71	74	1
67	69	1
36	37	5
52	66	1
54	54	7
101	101	7
61	96	2
85	86	5
27	69	1
89	91	1
50	74	3
28	71	4
52	54	2
27	28	4
95	101	2
76	77	9
42	44	2
53	54	8
40	40	4
46	47	1
23	23	6
86	98	3
66	99	2
63	76	2
55	55	5
47	49	1
53	95	1
45	46	2
28	29	1
30	37	1
95	98	2
83	85	1
58	59	3
59	77	1
53	56	2
59	74	1
48	64	1
99	102	3
83	91	1
59	78	1
92	93	1
59	71	2
48	66	2
55	65	1
66	89	1
54	92	2
79	93	1
24	27	1
78	79	2
38	52	1
63	65	2
56	59	1
96	100	1
49	55	1
66	88	1
26	69	1
34	36	3
98	99	1
33	34	2
35	40	2
67	102	4
84	86	2
85	92	1
37	37	2
45	47	1
38	95	1
73	74	3
40	49	1
32	32	1
24	57	1
29	30	1
79	83	1
63	88	1
52	53	1
33	47	1
44	49	1
73	84	1
32	33	1
60	80	1
38	89	1
81	83	1
52	90	1
