14	14	17
69	69	8
1	1	5
9	10	11
59	59	13
23	47	1
2	2	15
12	12	15
79	83	3
47	47	8
15	15	10
24	25	6
14	47	1
23	30	1
84	84	7
57	74	6
81	81	13
80	81	6
78	78	14
5	7	2
57	57	26
65	66	6
55	55	6
52	53	3
20	20	9
23	23	9
4	4	2
22	23	8
13	13	8
71	71	10
76	76	9
26	26	22
20	26	4
84	88	3
65	65	5
54	54	7
73	74	4
3	3	12
6	13	4
69	71	4
70	74	1
72	72	17
51	61	6
74	74	21
87	87	10
57	75	5
55	66	3
23	25	1
60	62	8
88	89	6
4	19	4
6	6	3
52	52	8
27	28	7
83	84	3
18	18	2
68	68	14
6	22	1
73	73	6
46	46	5
15	20	1
75	75	13
11	11	9
88	88	7
86	86	5
16	16	7
58	58	10
0	0	11
31	31	14
47	48	2
28	29	1
62	62	3
30	30	15
74	84	3
74	75	1
19	19	12
66	67	4
5	5	6
63	64	3
51	51	15
12	54	3
8	31	2
80	80	9
9	54	2
58	61	2
8	10	7
61	61	7
58	59	3
59	62	2
82	82	12
19	20	4
3	4	1
51	52	6
69	81	4
13	20	1
28	28	6
85	85	9
53	54	2
34	34	8
14	20	1
75	76	3
67	84	2
56	56	8
78	79	7
84	85	2
12	13	10
8	8	9
10	10	6
47	66	1
1	2	8
54	55	7
22	22	5
83	83	6
7	8	2
24	24	11
2	15	2
71	73	3
55	60	2
79	80	4
49	49	8
0	89	3
53	53	8
66	66	2
5	8	5
27	27	9
66	83	1
67	68	3
73	76	1
89	90	3
89	89	12
70	70	5
67	67	11
47	50	1
60	66	2
10	22	3
79	79	11
81	84	3
57	58	4
75	81	1
72	86	1
51	73	2
26	27	3
27	34	2
48	49	2
25	25	5
86	87	2
71	72	1
58	74	5
33	46	1
64	64	6
25	30	2
81	85	1
15	46	3
62	63	2
72	73	5
77	77	8
18	19	3
90	90	1
21	21	5
78	80	3
49	53	1
56	66	2
9	9	1
65	82	2
14	16	1
49	61	4
53	75	1
29	29	3
66	71	2
50	72	3
26	31	1
70	81	1
21	29	3
56	57	3
50	50	1
59	60	1
13	19	1
14	15	1
47	59	2
12	14	2
61	78	2
65	79	2
1	4	1
26	28	1
63	66	1
17	18	5
64	65	1
10	12	1
53	64	3
5	6	2
9	27	1
25	26	2
16	19	1
52	56	3
76	77	2
49	52	1
72	74	2
31	46	1
5	9	1
4	11	1
79	81	1
50	51	2
8	14	1
7	9	1
17	17	2
77	78	1
29	30	1
7	7	4
46	58	1
87	88	1
70	71	1
12	27	1
80	83	1
55	57	1
10	13	1
24	27	1
