45	45	8
76	82	2
38	50	3
89	89	10
55	55	11
58	87	3
93	93	17
103	103	16
107	107	4
99	99	22
61	63	2
101	102	8
51	51	3
81	82	3
93	102	2
82	82	17
42	43	7
68	72	7
71	71	16
102	102	16
68	68	5
93	95	8
28	28	14
105	105	19
111	111	12
108	108	13
81	81	6
59	59	10
112	113	8
87	90	3
110	110	8
19	19	5
46	87	3
92	100	1
113	113	10
73	87	4
96	96	19
41	42	7
69	71	1
105	106	8
54	54	5
79	79	5
58	63	1
72	73	4
97	97	13
103	105	6
70	70	8
59	63	3
77	77	10
92	94	5
99	110	3
30	30	7
61	62	5
57	95	3
49	49	19
34	35	3
104	104	15
93	94	4
61	65	4
83	84	6
55	56	7
35	36	3
87	87	21
74	75	3
30	31	1
22	22	8
67	68	3
75	79	7
100	100	7
63	63	10
64	66	2
44	44	7
23	23	9
58	58	32
27	29	2
33	37	2
78	79	8
61	87	2
28	29	2
50	51	5
106	107	4
25	39	2
77	79	5
69	69	13
78	78	9
42	42	5
111	113	2
27	27	10
62	64	8
84	84	9
31	37	3
29	29	8
46	46	14
94	95	7
72	72	11
109	109	5
26	36	3
47	47	12
33	34	5
63	80	2
69	73	2
80	80	18
37	37	15
83	83	7
67	67	13
46	92	3
74	95	1
88	88	6
73	73	16
39	57	3
85	90	6
91	91	7
38	38	5
52	52	3
65	87	1
57	57	9
109	111	5
75	75	11
105	108	1
48	48	9
61	61	9
80	108	1
114	115	2
41	52	1
44	45	5
94	94	9
71	72	4
102	103	3
105	110	2
80	85	3
98	103	2
85	85	5
87	89	4
101	101	21
43	44	2
114	114	8
105	111	1
54	56	2
98	98	22
65	65	11
99	109	1
41	41	13
89	91	3
39	47	1
32	58	1
86	87	3
60	60	13
99	100	1
32	36	5
29	30	2
85	93	2
39	39	1
82	90	2
63	73	1
39	40	3
47	48	9
58	59	6
74	74	16
37	38	12
100	101	4
42	47	1
103	104	3
83	88	3
56	56	7
104	109	2
95	96	5
44	86	2
57	58	1
105	107	9
95	102	3
70	71	6
73	74	3
84	85	11
92	92	13
79	82	1
25	25	3
36	36	4
115	115	1
82	83	4
21	21	5
55	60	2
61	64	1
112	112	10
98	109	1
26	26	3
86	109	2
104	107	4
90	90	7
92	93	3
65	67	3
109	110	4
89	90	3
71	75	2
31	31	4
26	63	2
53	99	4
76	95	3
39	52	1
95	95	8
45	98	2
76	79	3
71	73	1
33	33	4
99	101	1
21	24	1
55	57	5
76	76	9
64	65	1
77	81	1
48	102	1
99	102	1
35	35	4
53	68	1
107	108	2
67	70	3
110	111	6
52	54	2
29	75	2
106	106	5
64	64	5
46	52	1
53	55	1
58	60	2
84	89	2
95	97	1
53	54	2
21	22	3
69	75	4
70	77	1
53	53	3
104	105	6
66	66	5
67	110	4
87	95	3
62	62	7
61	75	1
65	88	2
91	100	2
31	34	6
39	49	1
86	86	5
88	89	1
32	32	2
79	81	2
61	82	2
80	81	7
90	91	5
63	74	4
67	80	3
56	59	1
94	96	3
63	103	2
81	88	1
20	22	1
74	86	1
83	87	2
60	95	2
53	71	4
75	105	1
82	85	3
66	69	1
43	75	2
20	20	4
85	92	1
39	54	3
81	84	3
59	60	5
107	109	2
62	71	1
45	49	1
84	94	4
68	105	1
57	59	1
31	32	2
50	50	5
96	99	2
24	24	7
77	80	2
59	86	2
66	67	1
49	51	1
37	39	1
62	63	5
26	65	1
32	34	3
33	36	1
81	108	1
58	92	2
76	77	4
92	114	1
99	112	2
76	78	1
56	61	4
27	65	4
67	100	2
68	69	1
67	72	2
20	21	1
24	72	2
35	58	1
56	73	2
75	87	1
62	66	2
79	80	1
92	110	2
43	45	1
75	76	1
59	61	3
80	92	3
34	34	1
49	50	2
88	90	3
62	90	1
62	75	3
77	78	1
110	113	2
27	30	1
38	51	2
59	87	4
85	86	1
46	54	1
87	109	3
34	89	1
38	47	1
80	82	1
87	91	3
58	78	4
72	77	1
38	114	1
36	39	1
79	108	1
22	26	1
91	95	1
79	87	1
37	54	1
103	106	1
60	61	3
55	78	1
78	82	1
65	79	1
53	59	1
102	107	2
45	99	1
39	41	1
66	72	1
71	90	2
99	108	1
65	66	2
98	99	1
64	72	1
81	93	1
66	85	1
91	92	2
59	91	1
97	104	1
43	43	4
76	97	1
68	98	1
113	114	2
38	41	1
69	70	1
101	105	2
80	105	1
53	70	1
22	23	1
53	74	1
43	86	1
96	97	1
86	90	1
56	58	1
