9	10	4
86	123	2
127	127	5
13	29	2
39	40	1
77	77	3
94	94	3
44	45	4
38	39	4
7	50	2
39	39	2
100	101	2
15	21	2
25	27	2
43	43	3
17	18	1
84	123	3
119	119	7
93	128	2
29	29	4
74	76	2
151	152	3
33	33	5
28	28	2
129	130	1
66	66	7
13	13	5
139	139	4
67	67	4
49	50	4
28	65	2
150	150	3
68	80	2
42	43	1
82	93	3
120	122	2
25	143	3
45	45	1
141	142	2
132	132	1
31	37	2
40	42	1
42	42	3
64	64	2
31	33	7
23	26	1
119	122	1
50	50	3
19	19	3
104	104	4
35	35	4
84	86	5
46	46	5
34	34	2
84	138	1
31	31	2
11	27	1
73	136	1
47	48	4
76	76	3
53	53	3
126	127	1
43	44	1
14	15	3
149	149	4
20	20	9
41	42	4
136	136	2
97	97	4
71	75	2
13	14	1
103	105	3
92	92	2
26	26	2
25	62	1
93	98	2
129	151	4
5	7	1
112	112	1
38	40	2
34	68	1
120	120	5
23	23	5
21	21	1
93	99	2
111	116	3
12	12	2
34	74	1
8	18	1
63	63	2
131	132	5
11	11	3
17	23	4
85	85	2
126	126	2
154	154	2
24	24	4
81	82	3
18	18	3
103	109	1
98	138	2
5	64	1
82	82	3
30	39	2
133	133	3
101	103	3
96	96	2
56	57	3
4	63	2
7	21	1
65	65	2
54	55	1
130	130	3
100	106	1
56	56	3
3	18	2
8	8	2
47	70	2
52	65	1
79	80	4
79	79	3
8	9	2
36	36	6
13	25	1
7	10	2
124	124	7
113	113	2
131	133	1
16	35	2
52	52	2
128	136	1
103	103	3
111	112	3
35	38	5
93	94	3
129	133	1
85	87	1
97	138	1
6	56	1
57	57	1
120	121	3
80	85	1
20	21	2
110	111	1
55	80	2
109	110	2
7	7	2
113	114	2
18	142	2
32	33	3
58	58	1
6	6	1
6	64	3
91	92	3
122	128	1
18	31	2
4	6	4
62	63	1
14	14	5
55	55	2
77	84	2
9	66	1
15	17	2
78	80	1
124	137	1
104	113	2
112	139	1
17	17	3
10	16	1
94	95	1
129	129	2
67	68	1
10	24	2
28	29	2
83	84	1
86	127	1
133	134	2
28	32	3
25	28	1
118	118	2
128	128	1
78	79	1
140	141	1
44	67	2
109	109	1
150	151	1
105	105	1
120	147	2
9	9	4
34	69	2
5	26	2
11	12	1
140	144	1
97	127	1
53	54	1
44	48	1
40	40	2
15	15	3
38	77	1
29	31	1
131	131	1
4	5	2
122	122	4
26	42	2
75	78	1
45	152	1
124	126	1
68	70	1
73	74	1
132	139	1
78	78	1
111	111	1
26	27	1
123	123	1
25	25	1
87	87	2
16	17	1
81	81	1
3	77	1
103	106	1
74	80	1
76	94	1
93	93	1
110	114	1
22	29	1
11	50	1
98	136	1
50	51	1
96	97	1
44	47	1
80	94	1
8	26	1
72	84	1
34	35	2
75	99	1
5	75	1
140	143	1
76	78	1
147	148	1
