90	90	5
97	97	10
31	31	10
123	123	10
128	128	14
18	19	3
97	98	6
110	110	8
132	132	5
105	105	7
79	79	7
27	27	8
10	22	5
33	33	2
126	127	5
1	2	2
58	58	9
122	122	9
66	66	6
20	20	16
57	57	12
55	107	2
104	104	11
119	119	9
59	59	2
6	6	6
53	53	9
83	86	2
19	19	8
126	126	9
65	65	1
71	76	3
49	49	9
38	38	7
117	117	5
39	39	1
113	113	2
76	76	8
15	15	8
74	75	1
50	50	11
68	68	4
29	30	12
100	100	2
80	82	3
12	27	2
97	99	5
89	89	4
19	20	2
96	104	2
62	62	3
121	121	8
21	21	4
95	96	2
83	85	3
73	73	3
98	119	2
94	94	5
9	9	5
45	45	4
125	127	2
74	74	7
81	108	4
49	51	1
99	100	3
129	130	3
10	11	7
58	59	3
46	47	4
116	117	4
72	72	4
67	68	11
103	103	5
86	88	2
75	76	2
42	43	6
47	47	9
1	1	8
60	60	5
86	86	8
44	48	5
40	40	8
23	23	9
18	18	3
71	71	7
17	18	2
111	111	6
127	127	1
25	26	3
3	3	10
56	56	10
125	125	8
131	131	1
73	75	1
75	81	4
116	116	9
89	90	2
43	44	3
70	80	2
7	7	4
41	41	6
8	8	4
102	102	6
31	47	1
87	87	1
107	108	9
128	129	3
108	108	7
39	47	2
57	58	2
32	32	11
114	114	8
5	5	10
70	70	4
44	45	5
11	11	1
84	84	3
106	117	2
120	121	3
46	46	10
62	85	2
55	55	5
52	52	8
124	131	2
60	61	3
95	95	3
69	69	4
14	15	6
129	129	2
48	48	6
42	42	5
44	44	6
91	93	7
58	60	2
78	79	2
87	88	7
64	64	4
108	109	4
133	133	2
30	30	5
100	106	1
16	32	1
34	34	7
27	55	3
122	123	3
92	92	6
39	44	1
77	77	7
98	98	3
96	96	5
10	10	11
109	109	3
92	121	4
17	17	3
42	44	3
101	112	2
118	119	1
14	14	4
96	117	2
24	25	4
99	105	2
54	60	1
25	25	5
16	17	5
2	6	1
80	80	6
4	5	2
85	85	3
29	29	5
65	66	1
103	117	2
90	91	4
123	124	2
118	118	3
84	91	2
86	87	3
112	113	3
13	14	4
85	86	2
107	107	3
12	12	7
65	69	2
54	54	9
23	24	3
53	54	2
4	4	4
43	43	3
71	72	1
83	84	1
99	99	3
124	124	2
115	115	3
77	80	2
27	29	7
75	75	1
28	29	5
16	16	5
50	51	5
2	2	5
0	1	3
75	77	1
39	41	2
120	120	3
77	78	2
130	130	2
52	53	2
106	107	2
91	91	2
106	108	1
61	61	3
0	0	5
49	50	3
67	67	3
24	24	7
73	77	1
20	27	2
99	132	3
93	94	1
93	93	3
81	81	2
111	112	1
73	74	5
88	88	2
55	56	1
110	111	1
13	13	5
63	63	2
65	67	1
51	52	1
32	33	1
104	105	1
101	102	1
88	89	3
27	28	1
106	106	1
92	93	1
93	106	1
59	61	1
84	85	1
76	77	1
63	64	1
71	73	1
43	61	1
83	83	1
103	104	2
79	80	1
63	66	1
70	130	2
12	26	1
53	121	2
118	132	1
59	86	1
128	131	1
125	126	1
127	128	2
37	47	1
