93	101	1
122	122	7
79	80	6
65	65	24
103	105	2
19	20	8
67	68	2
30	81	11
47	74	7
77	85	2
44	77	2
47	95	2
7	7	1
104	110	2
59	60	9
12	13	3
112	133	2
49	81	2
37	37	7
47	47	13
68	68	10
102	102	4
25	25	12
30	43	3
88	91	4
68	69	5
89	94	5
1	66	7
32	32	6
46	46	13
57	57	7
9	10	8
70	70	8
86	90	5
34	102	6
40	40	6
22	25	2
80	81	3
36	37	2
16	16	5
23	26	2
7	8	4
85	85	8
27	28	3
2	10	3
26	26	8
79	79	9
106	127	5
63	63	6
56	79	1
112	113	2
38	40	8
94	94	5
73	73	5
27	79	3
123	126	3
31	32	10
11	92	4
103	104	4
56	57	3
25	77	1
12	32	3
27	31	3
0	12	4
28	29	4
35	35	9
43	77	3
93	93	10
99	99	6
47	75	3
28	28	12
121	127	3
14	22	2
74	74	14
48	92	1
78	82	1
64	64	10
10	11	7
121	122	7
11	13	6
45	78	2
6	82	1
131	132	1
66	85	1
120	122	1
81	81	4
2	3	4
11	11	14
51	60	3
31	31	4
20	84	2
88	88	6
3	45	1
100	114	3
58	58	7
36	73	3
34	35	2
117	122	2
48	102	3
30	31	6
98	99	2
11	17	2
21	82	2
58	82	3
20	21	7
13	42	1
130	131	6
73	78	3
45	45	13
116	126	2
117	117	3
111	111	6
76	77	7
119	127	3
112	120	2
120	120	9
70	71	6
34	34	18
113	113	5
21	21	6
101	101	6
39	40	5
45	109	2
97	97	7
76	76	5
113	116	4
29	29	1
109	109	2
6	7	10
11	34	1
60	60	4
17	24	4
5	5	5
15	15	3
16	24	5
30	30	3
101	102	11
129	129	2
59	84	2
12	73	2
95	96	8
11	12	3
57	58	1
13	65	1
19	19	7
128	129	7
12	12	6
82	83	4
132	133	1
130	130	8
100	100	14
55	81	4
56	81	2
48	49	3
134	134	10
94	96	1
104	104	2
7	11	4
108	111	2
110	111	3
9	9	3
58	93	2
13	14	3
82	82	5
85	91	5
15	42	3
102	110	2
44	45	10
80	80	2
111	113	1
131	131	2
72	72	9
87	88	7
37	74	2
124	124	2
4	4	4
66	66	9
37	78	3
104	107	3
29	33	1
9	26	1
99	101	4
83	84	10
106	108	1
32	33	2
61	76	2
119	120	4
4	121	4
36	36	7
8	8	11
59	59	2
96	96	3
37	80	3
27	27	9
56	59	3
133	133	8
23	23	2
23	86	1
110	110	7
26	47	2
55	55	3
4	5	10
46	71	2
41	82	3
38	38	2
56	56	3
7	27	1
93	98	3
109	111	1
6	6	2
96	109	2
105	106	4
18	39	1
126	127	1
97	100	3
3	3	6
103	128	1
116	125	2
97	98	5
126	133	1
103	103	2
74	77	1
11	21	1
85	90	3
69	71	1
42	42	5
19	41	2
123	124	4
125	127	4
17	27	1
107	107	5
101	106	2
116	119	2
94	99	3
22	22	7
28	38	4
47	128	1
41	41	2
42	43	9
15	27	2
127	127	3
3	4	2
61	71	1
47	78	1
17	62	1
49	49	2
24	25	4
5	6	2
69	69	1
92	94	1
33	33	9
23	30	2
10	77	1
10	10	6
46	47	2
119	119	5
44	44	2
3	94	1
60	78	1
20	20	3
113	117	1
21	24	4
10	15	2
95	98	2
7	16	1
17	17	3
21	79	2
99	114	2
119	124	2
84	84	8
98	98	2
8	14	1
9	11	2
133	134	3
84	88	1
27	83	2
106	106	2
83	83	3
43	43	1
98	100	3
62	62	4
61	73	1
61	61	1
108	108	3
9	14	2
99	134	1
79	83	2
41	42	1
94	101	2
95	95	4
54	55	2
91	91	1
85	87	1
126	126	3
78	78	3
18	28	3
1	12	1
3	88	2
90	91	3
3	101	1
11	36	2
71	72	1
37	81	1
124	125	2
20	25	1
120	121	2
46	65	1
81	83	1
26	27	2
106	115	1
75	75	3
28	91	1
25	26	3
83	88	1
125	126	4
4	80	3
102	103	1
132	132	2
46	77	1
45	48	2
100	101	1
104	105	3
14	14	2
10	21	1
41	55	1
48	61	2
116	117	3
7	58	1
86	86	3
39	42	1
56	58	1
112	112	2
12	42	4
87	89	1
113	133	2
13	13	2
99	120	1
58	81	1
0	1	2
44	124	1
84	85	1
7	30	1
127	128	2
124	126	1
71	71	3
48	82	2
48	48	4
43	44	1
25	27	1
121	121	1
45	89	2
6	57	2
70	72	1
92	92	1
39	39	1
3	96	2
89	89	2
47	48	1
69	111	2
129	130	1
41	81	2
20	88	1
114	114	3
116	116	1
8	13	1
12	76	2
84	90	2
29	32	2
18	18	1
116	127	1
95	99	1
15	84	1
115	116	1
28	90	2
4	6	1
69	70	1
45	94	1
14	27	1
80	85	1
2	2	3
87	87	1
46	62	1
21	84	1
105	105	1
123	123	1
72	73	1
94	102	1
25	36	1
34	77	2
8	75	1
11	93	1
25	32	1
62	72	1
2	63	1
117	120	1
95	97	1
96	97	1
