130	130	11
116	116	9
114	114	3
108	109	10
80	80	18
121	121	15
103	103	4
72	80	3
22	23	7
133	134	1
99	99	13
99	111	2
52	69	2
95	95	6
120	122	1
3	3	6
112	112	6
81	81	6
106	106	7
98	101	3
26	26	7
34	34	13
31	32	5
43	43	4
12	12	8
108	115	3
120	120	6
38	39	4
22	22	9
122	122	5
89	89	7
131	133	2
1	2	5
84	107	3
112	117	2
35	35	10
19	19	5
110	110	1
6	7	2
7	7	7
115	115	8
9	9	2
90	91	3
88	88	19
124	124	11
118	118	3
102	113	2
36	36	7
91	92	1
131	132	5
98	98	8
105	106	2
120	121	4
3	5	3
93	93	9
119	119	11
44	44	4
61	61	5
122	123	3
120	134	3
12	13	3
80	81	2
113	113	4
79	79	16
134	134	5
109	109	4
13	13	3
77	78	4
52	52	8
62	64	4
102	102	6
92	119	2
50	58	1
73	73	11
129	129	6
46	47	1
87	87	18
32	32	4
93	103	4
0	2	5
67	67	4
108	111	2
49	50	3
1	6	2
126	127	4
74	74	5
133	133	10
15	34	1
75	105	6
27	27	9
76	76	11
119	120	6
63	63	13
105	105	7
72	72	7
66	66	13
123	124	5
38	38	1
104	104	11
14	14	4
1	1	4
98	107	1
77	77	11
129	132	2
14	15	3
94	95	2
96	96	3
110	111	1
3	4	8
59	60	4
96	97	8
81	82	1
82	82	6
48	48	2
60	60	4
65	65	4
50	51	1
112	113	10
123	123	9
115	124	1
68	69	5
61	79	3
70	70	11
108	108	5
62	62	8
47	47	4
131	131	2
97	97	3
1	3	3
29	29	2
62	93	1
69	69	9
21	21	4
123	125	1
126	126	5
64	81	1
59	59	1
54	54	9
25	26	2
74	75	1
98	105	2
100	100	9
111	133	1
100	111	1
44	45	2
64	65	4
49	49	2
82	88	4
5	5	7
30	30	2
95	96	1
51	64	1
83	83	2
91	91	2
114	134	2
14	33	2
11	11	6
18	18	3
24	24	4
126	128	4
78	78	5
75	75	4
16	16	1
73	78	1
33	33	6
85	85	7
86	86	2
20	20	3
35	38	1
89	91	1
89	131	1
101	102	4
71	71	6
94	102	1
28	28	5
132	132	11
4	4	3
55	55	6
53	53	5
25	25	6
61	74	2
60	61	3
79	80	3
85	105	3
66	68	1
31	31	5
127	127	6
98	99	3
83	85	1
61	93	1
50	50	4
10	100	1
21	24	3
3	72	3
37	37	2
132	133	6
94	118	2
14	112	2
89	90	3
46	64	3
0	0	1
125	125	6
67	116	1
2	2	3
71	72	1
130	131	2
85	86	2
113	116	3
101	113	2
128	128	5
48	51	1
67	68	2
82	97	3
42	43	1
117	117	2
57	57	1
106	116	1
123	126	1
121	126	1
127	128	3
15	15	2
17	17	1
35	36	2
65	86	1
12	71	1
107	108	2
21	22	2
9	57	3
67	119	1
111	111	3
104	105	2
33	34	3
101	101	1
64	64	3
88	131	2
78	79	1
88	95	2
114	115	2
121	127	2
77	98	1
26	27	1
120	133	1
90	90	6
86	87	1
0	1	1
97	98	1
87	88	1
56	56	2
68	68	1
44	57	1
116	123	2
50	88	1
66	67	2
107	107	1
29	68	1
73	115	1
14	27	1
106	110	1
12	14	2
0	6	1
118	119	1
102	112	1
80	89	1
52	53	1
4	72	1
77	109	2
95	111	2
62	63	1
92	92	1
73	74	2
6	6	1
83	84	1
116	133	2
8	8	1
10	55	1
58	59	1
97	119	1
30	31	1
94	94	1
0	135	1
77	82	1
55	56	1
