38	38	17
147	148	5
18	31	4
234	234	18
54	198	4
211	213	9
127	127	8
85	85	10
48	57	1
68	196	2
124	138	4
206	211	6
47	47	19
163	169	3
54	55	16
185	185	11
53	72	1
33	33	25
80	80	31
19	19	20
127	162	2
97	97	12
234	235	4
106	106	27
11	29	4
42	215	3
35	36	9
101	107	3
153	154	16
181	181	10
155	155	9
135	135	14
228	230	2
108	108	13
17	24	4
171	176	3
225	225	17
237	237	15
63	63	17
2	2	24
39	40	8
233	233	8
18	35	2
145	145	14
161	161	16
159	159	9
68	104	3
22	22	11
9	42	3
204	206	5
195	196	8
5	13	8
227	228	6
219	220	3
219	219	20
71	72	9
154	154	6
201	209	3
211	212	18
204	204	13
123	124	3
162	162	12
207	209	1
83	83	12
156	157	8
104	106	1
15	15	19
26	26	23
172	172	12
105	105	13
196	196	17
116	117	13
148	150	3
16	16	14
84	136	3
240	240	16
17	18	9
221	222	8
36	58	1
42	42	15
30	30	23
21	21	17
57	57	9
221	223	6
84	84	13
13	18	1
171	179	3
201	222	3
3	4	4
59	59	22
38	39	2
141	141	10
102	102	18
220	221	4
25	25	18
73	73	26
103	104	5
45	45	19
80	83	4
180	180	14
24	51	4
56	56	11
70	232	1
11	12	3
167	167	8
67	72	5
69	70	6
1	64	4
117	126	4
4	4	12
43	43	13
78	78	16
209	212	6
50	50	20
109	161	3
26	235	2
104	114	3
20	21	5
43	45	5
242	242	5
112	112	7
179	185	8
125	125	5
28	28	23
69	69	14
92	104	3
157	157	18
223	224	1
129	129	24
41	49	6
49	50	14
14	15	5
180	181	1
42	43	9
64	65	4
217	217	14
36	165	3
178	178	9
75	76	2
204	207	5
183	183	17
31	35	4
103	105	9
58	59	5
76	76	11
177	177	14
157	169	1
136	136	13
241	241	7
19	34	1
32	32	18
82	82	18
192	194	4
34	34	25
109	162	2
9	10	6
61	61	18
187	187	12
56	57	4
11	11	9
150	150	9
223	223	7
52	53	7
206	223	9
7	8	5
36	36	22
206	207	7
227	227	17
101	101	20
105	106	5
145	146	1
72	72	15
151	151	13
120	121	8
214	214	5
23	23	23
79	79	11
164	164	7
174	174	15
128	161	2
44	45	10
225	226	6
216	216	14
158	158	2
146	146	11
176	177	7
1	117	4
96	96	13
172	181	3
134	134	9
119	119	25
10	10	7
137	137	17
166	166	17
153	153	15
27	28	8
3	3	15
8	8	29
42	120	1
61	62	9
233	234	9
177	178	2
182	182	6
60	60	16
171	171	11
124	126	1
103	106	7
147	168	4
153	163	1
40	48	4
107	108	5
29	29	6
228	229	4
205	205	13
118	118	14
4	7	7
148	148	7
81	81	18
2	3	5
63	159	1
11	15	3
89	89	4
107	117	2
17	17	19
148	155	1
208	208	15
5	16	4
104	104	15
202	202	7
39	39	22
27	27	32
125	126	6
64	64	21
70	70	13
51	51	3
13	24	3
237	242	3
138	139	8
96	97	4
200	200	8
62	62	17
170	170	10
123	123	7
226	226	18
163	163	11
54	54	28
114	162	2
130	130	10
132	134	4
98	99	11
189	189	3
86	87	1
228	228	12
68	68	5
113	113	9
184	192	4
18	18	30
197	197	7
173	192	1
69	108	1
80	115	1
58	58	20
88	88	12
175	176	3
184	222	3
98	98	14
1	2	17
201	201	12
43	231	3
118	122	1
170	177	2
114	114	4
67	67	18
141	142	8
187	188	4
210	210	18
86	86	20
118	146	2
236	236	10
101	115	2
212	212	18
49	57	1
20	26	5
143	144	5
187	208	3
191	191	8
84	104	4
121	165	6
41	41	11
221	221	9
53	54	1
152	152	8
121	122	2
76	86	3
77	91	1
232	232	13
73	85	2
52	64	5
117	117	6
175	219	2
74	74	26
99	99	9
111	112	1
126	127	3
218	218	4
137	138	8
163	176	5
190	190	9
138	138	7
120	120	12
58	61	3
5	5	24
189	228	2
1	1	15
148	179	3
237	238	10
209	209	11
73	176	4
210	211	9
52	52	18
222	223	4
165	180	4
20	42	1
30	34	4
151	153	3
203	204	6
220	220	9
110	111	4
71	71	16
40	40	16
198	200	4
131	131	8
214	215	10
61	63	3
156	156	15
181	182	1
44	46	5
12	12	7
238	238	10
34	36	4
131	155	1
231	232	6
229	229	13
26	27	6
200	207	2
46	72	6
197	216	3
224	225	5
132	132	4
235	235	7
9	9	15
46	47	4
57	213	3
20	28	6
66	66	8
140	140	10
65	65	12
80	84	1
144	144	12
182	183	2
44	44	11
12	40	8
49	49	12
26	43	1
104	105	5
38	46	2
38	147	2
198	198	5
48	55	1
118	138	2
154	158	1
169	186	2
48	48	10
82	105	3
53	53	10
16	60	7
45	105	1
217	219	2
203	206	2
192	192	10
101	183	5
59	60	16
126	126	5
20	20	17
160	160	6
103	103	18
18	29	5
142	142	4
183	187	2
241	242	6
40	41	6
217	218	2
67	68	6
128	128	8
203	223	1
176	176	5
209	223	1
194	194	3
201	210	2
34	168	2
207	207	4
145	147	5
128	140	1
149	149	7
122	122	9
25	148	3
168	168	7
106	108	3
11	120	1
3	11	1
153	164	7
4	16	1
107	109	3
60	162	3
27	69	7
118	119	1
102	103	5
188	188	7
186	186	6
29	30	6
9	13	2
216	227	8
231	231	17
211	211	6
76	77	9
124	124	12
23	138	4
224	224	14
55	55	18
115	116	5
34	50	1
66	67	3
190	191	6
35	35	22
29	32	6
142	180	3
197	206	4
91	91	4
38	145	4
148	168	8
221	224	6
195	195	2
235	236	3
30	47	2
79	102	2
230	230	12
161	173	4
102	182	3
24	24	8
198	199	8
101	150	7
6	6	6
207	208	3
51	52	5
0	0	11
42	205	1
34	122	6
175	175	5
105	114	4
172	175	1
186	187	3
95	114	1
61	196	3
215	215	6
206	206	9
19	21	4
120	144	1
173	173	7
85	176	4
115	126	5
13	13	8
110	110	10
100	100	8
139	139	13
6	7	10
165	165	9
105	107	4
11	13	1
176	201	2
226	231	3
61	144	1
199	200	2
239	239	14
0	4	7
77	77	9
158	159	9
180	184	5
147	155	6
85	101	1
203	203	5
12	30	1
29	61	2
150	151	7
148	178	3
204	211	3
57	59	3
37	55	4
0	1	7
104	107	3
5	6	7
148	172	3
136	138	2
115	115	8
186	229	3
47	192	3
135	136	4
25	138	1
21	23	4
7	7	8
145	178	2
171	177	2
75	79	6
154	179	1
190	196	2
15	60	1
28	73	2
142	144	2
150	152	7
7	16	12
39	42	3
188	190	2
31	212	2
4	6	5
149	178	1
9	43	4
25	43	1
46	46	7
121	121	9
166	171	3
124	133	1
119	120	3
68	195	3
213	213	3
121	131	2
45	46	2
78	79	6
80	103	3
184	184	6
107	107	11
76	81	1
3	39	2
144	145	7
37	38	8
125	175	1
193	193	10
81	82	3
121	182	3
141	143	1
12	14	4
119	123	5
65	67	4
48	49	1
188	193	1
199	206	1
177	183	1
67	70	1
8	15	3
3	6	2
147	147	9
11	54	4
222	222	3
201	208	3
239	241	3
155	156	3
65	98	2
133	142	1
13	14	5
200	201	5
101	102	7
62	65	8
36	37	4
19	20	2
144	151	2
134	135	3
85	226	3
149	172	4
169	169	9
70	71	3
235	238	1
179	180	2
152	153	2
178	179	2
188	189	6
133	139	1
48	56	4
80	102	2
37	197	6
14	18	2
167	168	1
204	219	2
160	164	3
62	103	3
33	35	2
226	227	4
47	48	2
68	72	5
44	66	3
109	113	1
102	107	1
212	213	3
12	42	3
149	155	2
37	37	4
40	59	2
21	41	4
151	160	1
204	205	4
37	44	1
108	110	2
57	58	9
39	44	1
12	41	1
113	114	1
209	210	2
143	143	4
21	22	10
153	167	1
6	13	4
31	31	5
2	7	4
53	55	1
15	49	1
119	151	1
187	200	1
171	172	1
78	81	2
9	61	2
215	228	5
63	171	2
49	56	1
124	139	1
230	231	4
107	115	3
222	224	1
39	56	2
200	223	2
3	9	1
25	26	5
219	226	3
73	175	3
179	179	4
85	201	5
148	184	2
6	14	2
77	80	3
144	164	3
111	111	4
23	143	1
157	158	5
205	231	2
64	116	1
201	202	3
14	14	3
106	107	3
150	172	3
77	78	2
50	57	2
163	164	1
50	52	2
62	66	6
19	229	1
220	223	5
42	48	5
215	216	7
37	214	3
188	223	3
239	240	2
81	83	3
179	186	3
143	181	1
100	101	2
199	199	8
26	69	3
190	223	2
23	57	1
200	212	2
30	31	8
42	55	1
191	192	2
214	216	2
229	230	3
79	81	2
35	39	4
29	73	1
151	164	2
80	104	1
30	32	3
19	22	2
41	42	1
18	19	1
116	116	4
13	17	1
122	145	1
86	136	1
41	48	1
32	34	1
213	215	2
184	185	2
18	30	2
3	7	2
79	80	3
50	51	3
163	165	1
149	153	1
84	105	1
11	30	3
13	35	1
208	209	1
121	181	3
58	60	1
103	107	3
4	5	1
116	124	3
125	127	1
20	212	2
206	213	3
162	187	4
190	217	3
48	53	2
23	42	5
89	100	1
37	63	1
84	85	1
75	82	3
112	113	1
191	195	1
22	136	2
220	222	4
110	114	1
165	167	3
24	136	1
168	169	2
163	178	1
74	86	2
65	196	4
118	125	1
43	230	1
236	241	5
49	59	3
173	174	8
159	167	2
78	106	3
39	47	1
47	201	1
200	222	1
42	47	2
65	233	2
8	20	3
65	144	1
33	34	3
191	201	1
157	217	2
10	11	1
56	58	1
155	170	1
3	42	1
132	133	1
64	103	1
48	52	2
230	232	2
142	143	2
219	225	1
193	196	1
14	60	1
34	35	2
130	157	1
68	109	1
158	217	1
164	168	1
95	95	5
65	69	1
83	103	1
175	228	3
82	83	4
238	239	5
150	164	1
173	232	5
74	75	1
140	146	1
119	122	1
150	182	1
211	229	2
56	60	2
205	206	1
224	228	2
134	136	1
167	169	1
20	231	1
137	231	1
166	168	1
8	16	3
216	220	2
173	191	1
133	133	2
16	17	1
33	168	2
211	228	2
2	40	1
117	178	1
157	221	1
63	106	2
56	212	1
48	59	1
89	115	1
144	146	1
174	175	1
39	120	2
85	227	3
158	223	3
19	228	2
37	51	2
149	157	2
22	206	1
20	32	1
114	123	2
150	166	1
176	178	1
33	123	1
148	149	2
47	202	2
185	193	2
207	223	2
109	110	2
28	99	1
2	108	1
32	33	4
32	36	1
12	13	3
22	124	2
81	134	2
99	238	2
129	168	1
45	67	2
39	50	1
197	200	1
100	123	1
61	65	1
41	56	2
121	123	2
183	184	2
87	175	1
99	235	2
22	23	4
141	165	1
178	181	2
118	137	1
61	120	1
227	231	1
24	39	1
79	83	1
5	7	1
205	230	1
133	138	1
41	50	1
65	142	2
170	171	1
153	168	1
21	25	1
139	140	2
116	137	1
62	117	1
75	232	1
106	109	1
53	74	1
207	230	1
40	120	1
62	144	1
88	174	1
196	217	1
150	183	1
81	92	1
156	186	1
0	11	1
17	23	1
118	179	1
160	162	1
51	63	1
147	149	2
145	158	1
17	35	2
210	226	1
185	187	1
75	75	1
124	125	1
128	184	1
150	226	1
99	234	1
109	109	1
81	101	1
76	78	1
69	71	1
65	66	1
119	137	1
61	164	1
198	208	1
64	75	2
65	72	1
131	171	1
74	170	1
52	63	1
31	36	1
123	137	1
140	142	1
5	12	1
197	198	2
13	50	1
26	51	1
126	181	1
16	18	3
15	31	1
135	149	1
25	44	1
187	194	1
204	230	2
210	222	1
154	157	1
64	179	1
51	53	1
129	130	2
130	218	1
172	173	1
176	184	1
77	215	1
51	54	2
40	204	1
161	164	2
15	17	2
165	166	1
185	186	1
25	133	1
194	195	1
20	24	1
114	118	1
146	147	1
164	171	1
32	121	1
63	116	1
166	170	1
20	228	1
68	70	1
207	222	1
32	198	1
115	124	1
