12	12	16
107	107	14
113	113	15
15	16	14
12	13	14
14	14	38
8	8	19
137	138	5
46	47	7
13	13	37
131	131	12
8	31	4
54	55	11
106	106	11
43	43	13
98	99	5
47	47	14
75	97	3
76	76	18
117	118	3
152	152	14
134	134	13
80	80	17
37	38	7
49	49	5
104	106	5
24	25	24
17	17	23
45	45	7
74	80	2
78	78	16
125	126	8
87	87	22
83	85	9
46	46	18
34	34	22
35	35	23
151	151	12
54	54	18
10	10	25
121	122	15
141	141	24
47	71	2
86	86	13
102	102	7
105	109	5
50	55	4
41	42	6
7	8	18
20	20	23
9	37	4
75	75	15
75	77	7
145	145	14
49	52	4
26	26	8
53	53	29
68	68	23
27	27	14
99	99	17
62	63	3
79	83	1
93	96	1
71	73	7
67	67	15
128	128	16
34	36	8
82	82	16
116	116	8
114	114	15
105	105	5
118	119	6
18	19	11
101	101	10
9	9	11
64	69	11
41	43	3
68	69	12
55	64	7
48	53	4
98	98	27
80	81	4
75	76	8
143	143	7
37	37	17
71	71	21
104	104	15
71	82	3
103	119	1
112	118	8
149	152	2
112	112	11
88	88	11
65	65	14
41	44	3
68	119	2
16	16	17
140	143	6
16	130	2
136	136	4
22	22	26
92	93	2
45	46	15
3	3	8
25	26	5
77	100	1
24	24	30
23	39	4
40	40	6
35	36	16
77	77	21
11	11	13
73	73	14
76	77	10
9	33	1
148	148	11
7	7	5
39	40	10
64	64	17
142	143	1
30	31	5
138	138	12
132	135	5
151	152	3
6	7	5
78	97	2
112	114	5
36	36	20
57	58	9
71	114	3
129	131	5
19	19	14
135	150	4
111	111	3
94	94	16
127	127	9
69	70	3
53	54	8
115	116	13
148	150	2
43	44	10
8	9	13
108	110	3
122	122	11
23	25	6
78	85	5
114	116	3
40	41	3
4	5	12
100	100	17
117	117	20
31	36	4
5	40	3
16	19	2
57	81	1
30	30	13
71	72	4
153	153	12
48	48	25
12	28	6
128	130	10
21	35	1
57	80	4
44	45	17
83	83	3
20	23	3
14	15	22
93	93	11
56	57	1
72	114	2
21	24	4
57	57	19
119	121	4
105	107	1
15	15	24
95	96	5
6	27	2
72	100	2
154	154	11
135	135	22
123	123	16
80	85	3
92	92	8
79	82	5
108	108	14
17	18	2
120	120	10
20	34	5
150	153	2
99	125	1
51	55	2
32	32	12
70	70	15
62	66	2
33	33	7
77	125	1
113	114	2
99	101	1
114	115	1
38	39	4
66	67	7
85	85	17
31	31	25
72	72	14
11	42	5
41	41	19
105	111	5
9	41	5
87	88	15
142	142	8
128	129	8
4	4	9
44	46	10
138	142	2
123	128	1
13	29	4
132	150	3
29	29	8
20	21	12
63	65	1
31	43	2
11	12	23
103	104	3
144	144	14
123	134	6
64	93	1
48	50	8
63	63	9
115	118	4
77	79	3
25	25	7
86	90	6
98	100	7
129	129	10
13	14	5
83	86	7
3	20	1
81	82	18
112	113	2
38	38	19
110	112	1
141	143	3
42	42	12
104	113	1
72	73	10
29	32	2
86	87	10
48	49	4
34	37	10
102	103	4
119	119	16
24	31	3
15	17	7
49	122	3
12	17	1
84	84	9
3	8	3
6	29	1
21	40	3
139	139	4
31	33	2
31	32	3
43	45	7
104	109	1
39	39	25
64	66	1
74	74	17
137	139	1
10	11	5
21	21	24
93	95	2
132	132	23
55	55	2
94	98	4
25	29	1
50	50	13
147	148	6
104	111	1
103	103	9
109	110	7
22	24	2
52	52	7
62	62	5
20	28	3
145	146	5
48	122	3
131	135	1
16	17	4
146	146	11
64	65	7
52	57	2
146	147	4
121	121	6
50	51	7
132	137	2
133	133	8
39	42	2
107	109	2
38	40	3
102	133	5
79	79	4
14	20	5
33	37	5
79	97	2
118	118	13
5	17	3
152	154	10
97	97	15
109	109	10
50	52	3
40	42	4
21	22	13
67	68	4
66	66	7
96	96	11
10	30	1
73	74	2
69	69	21
150	151	6
73	112	1
83	84	8
115	115	19
130	130	18
23	23	15
84	92	1
56	56	7
25	48	5
106	107	6
21	30	9
110	114	1
57	76	1
136	137	5
54	70	3
12	14	3
81	94	2
61	62	4
96	97	7
51	53	2
32	33	7
19	20	5
110	110	12
97	98	4
54	69	5
21	23	2
91	91	2
115	117	2
127	146	1
123	124	4
64	139	2
34	35	6
66	83	2
30	33	1
78	83	1
68	80	2
27	31	4
17	19	3
113	115	1
65	69	3
44	44	17
94	95	5
20	36	1
130	131	5
28	29	2
5	5	8
150	150	11
20	22	5
76	135	2
18	18	11
58	147	2
26	30	4
66	81	3
10	45	6
107	108	1
80	84	7
137	137	10
93	94	4
51	51	4
149	150	10
131	133	3
22	31	1
23	24	10
71	85	7
130	134	2
153	154	4
102	129	3
65	66	9
55	56	2
40	153	1
124	128	1
123	141	2
125	141	2
149	149	11
25	30	2
15	32	3
139	149	2
110	111	2
124	141	3
26	28	1
38	41	6
95	104	3
124	125	1
136	149	3
21	39	2
7	19	4
82	94	2
133	136	2
53	55	2
81	81	5
6	6	3
132	151	3
9	52	6
110	113	2
61	61	3
112	116	4
42	43	2
49	50	6
90	90	8
5	9	1
126	133	5
147	147	2
127	130	3
86	97	6
109	111	1
16	35	1
122	123	4
22	23	9
29	30	7
3	4	6
52	53	2
77	78	3
53	57	6
30	36	5
62	83	3
57	144	2
140	149	1
25	28	2
95	95	13
138	139	5
133	134	2
16	40	2
64	67	2
18	24	3
121	125	2
49	121	2
66	68	2
131	151	4
57	78	1
28	28	2
19	32	2
131	132	2
22	30	1
127	144	3
73	96	3
85	87	1
103	123	4
86	94	3
26	27	3
67	69	2
22	38	2
8	21	3
138	149	1
71	74	2
5	27	3
74	75	4
69	71	1
10	44	4
132	136	4
7	34	1
75	78	1
8	20	3
77	98	1
80	87	3
65	68	4
77	135	3
78	80	2
62	64	1
73	95	1
101	103	1
24	47	2
77	99	1
25	51	2
61	63	1
14	21	2
64	78	1
71	96	1
21	44	1
125	128	3
84	93	3
15	18	1
106	108	1
30	32	2
102	122	3
39	41	3
79	87	1
26	37	1
47	48	5
134	135	3
28	30	1
12	31	3
28	31	1
6	18	1
64	83	3
105	110	2
103	122	1
125	127	1
70	71	6
79	80	1
27	30	3
41	52	1
116	117	2
18	34	1
98	121	1
56	76	2
124	134	1
113	116	1
4	6	2
20	33	1
63	154	2
123	140	1
110	118	1
140	140	3
93	100	2
56	148	1
22	39	2
104	105	1
143	146	2
2	2	1
103	120	3
108	112	3
101	102	1
65	67	1
7	38	1
9	20	2
94	96	2
130	142	1
52	55	1
69	73	1
119	122	2
6	12	1
17	20	2
125	145	2
78	79	1
152	153	2
74	99	1
85	110	1
8	12	1
64	138	2
120	122	1
129	130	1
135	151	1
92	96	1
138	143	1
43	46	1
53	71	1
108	109	1
84	86	3
5	6	1
22	36	1
12	30	1
7	20	1
132	133	1
8	11	1
57	63	1
140	141	2
127	128	1
8	32	1
78	93	1
49	123	1
2	3	1
141	149	1
47	50	1
44	47	1
125	144	1
133	150	1
57	145	1
74	79	1
141	142	1
49	51	1
104	112	1
40	43	1
69	116	1
142	147	1
7	9	1
22	40	1
20	41	1
91	92	1
97	105	1
