75	75	27
4	5	12
102	102	21
48	48	9
135	135	42
90	90	21
134	134	62
126	131	1
108	108	14
28	29	14
107	107	16
91	91	24
127	127	33
66	82	8
104	105	10
49	104	2
28	28	29
37	37	43
61	61	17
19	19	22
39	139	1
58	58	23
37	38	4
135	140	4
31	31	23
78	78	9
129	129	33
75	100	5
120	120	36
136	136	16
139	142	1
24	24	21
101	101	38
126	126	51
19	20	7
66	66	32
26	26	18
93	94	16
140	140	36
17	17	48
57	92	2
80	81	6
99	100	23
120	121	4
31	36	5
81	81	27
74	74	39
131	132	14
3	3	5
63	64	6
87	108	3
6	6	14
130	142	3
119	119	50
139	139	23
18	18	28
32	80	2
21	21	34
62	62	20
141	142	13
63	63	22
121	126	1
79	80	8
104	104	15
14	14	14
130	130	43
32	32	23
122	140	2
13	14	6
17	18	8
85	85	12
93	95	7
69	69	11
98	99	10
26	27	3
51	52	20
41	41	18
54	54	21
82	83	7
85	86	7
40	40	10
39	39	25
131	131	36
59	59	11
72	72	19
103	126	6
2	2	14
137	137	16
33	49	1
9	9	21
96	104	10
72	132	2
17	27	1
132	132	10
132	133	8
16	48	2
117	117	20
73	73	28
121	131	1
59	66	2
96	96	27
65	65	14
88	88	12
77	77	16
85	91	9
22	22	30
21	23	4
71	72	8
133	133	25
97	97	14
59	64	8
50	133	4
50	130	1
25	27	3
29	29	27
124	124	30
135	139	3
46	47	2
30	143	2
14	47	5
121	121	22
98	98	36
125	125	30
83	84	7
143	143	19
106	109	5
94	95	3
75	77	1
121	123	10
79	90	1
144	145	3
120	131	2
61	62	8
128	128	34
99	101	6
56	56	18
27	27	32
112	112	15
111	114	1
123	123	31
60	62	3
39	40	24
67	67	29
57	57	12
121	124	3
73	74	14
36	36	26
80	80	33
137	139	10
18	19	12
20	115	1
116	116	16
13	13	13
105	120	4
130	134	3
135	143	1
95	95	17
128	129	10
66	95	2
79	79	13
102	103	14
6	9	1
2	4	7
103	103	24
100	101	4
35	35	14
69	73	1
40	42	7
114	115	9
140	141	5
73	86	2
56	109	1
67	69	3
38	40	7
60	61	11
59	126	5
42	42	24
68	69	5
23	32	1
49	49	5
142	143	14
26	31	4
48	126	2
54	134	7
84	120	1
11	49	1
109	110	7
8	136	5
55	55	29
38	38	35
101	102	6
122	123	15
100	100	28
96	98	3
11	11	19
105	105	10
25	36	2
15	34	1
74	76	7
105	122	1
112	113	9
89	89	9
134	135	16
105	106	1
138	138	21
81	82	7
41	42	20
69	70	12
102	123	1
111	111	7
124	125	19
123	124	20
91	141	1
36	47	2
114	114	21
10	11	12
124	131	6
10	10	12
122	122	14
107	125	5
17	19	4
115	115	11
96	103	2
41	43	2
141	141	31
137	138	7
68	68	26
60	60	19
10	122	2
87	88	15
23	25	3
56	101	4
6	8	2
92	110	2
77	78	8
95	96	5
95	140	2
18	29	1
25	25	23
52	52	3
87	89	6
30	131	7
4	4	17
33	48	3
49	118	6
83	92	2
67	68	15
76	90	2
86	86	10
65	66	6
76	77	8
25	26	2
97	98	4
98	140	4
96	97	4
125	127	6
40	41	3
31	131	2
127	130	5
71	71	12
97	102	5
1	17	5
68	82	5
53	54	3
106	106	6
75	91	1
47	47	16
49	117	2
50	117	3
20	20	24
115	136	1
119	134	1
10	141	3
66	67	5
127	129	7
116	117	5
129	130	20
91	98	2
33	34	2
118	118	32
109	109	9
34	35	5
146	146	11
36	37	8
8	8	33
86	108	2
10	17	4
133	135	5
120	132	1
42	43	6
144	144	22
1	1	9
120	122	6
82	82	11
20	21	5
119	120	17
62	96	1
49	107	3
58	59	6
142	144	5
107	109	4
99	141	2
22	23	5
17	36	5
15	15	15
116	120	1
117	119	6
24	40	4
99	142	2
103	119	1
6	25	1
16	16	9
142	142	15
99	99	19
32	47	1
27	29	3
8	22	3
83	93	2
84	84	13
47	48	2
40	43	1
8	9	22
5	5	5
33	33	20
21	22	6
96	137	1
30	30	38
25	31	8
126	127	12
29	37	3
23	23	18
92	92	11
118	119	16
64	64	14
51	133	2
55	132	2
17	33	2
53	103	2
75	81	1
117	140	2
94	94	6
90	95	1
14	16	2
30	80	6
83	109	2
138	139	3
31	51	1
120	129	1
133	134	19
10	123	1
37	102	1
31	48	4
24	25	8
55	56	9
30	104	2
16	17	4
50	50	9
105	110	3
90	92	2
38	39	8
99	120	2
31	32	13
49	50	7
76	79	2
37	136	2
18	114	1
136	139	4
36	41	1
78	79	5
62	63	6
119	132	3
27	137	2
68	76	2
23	40	2
28	30	3
99	103	1
67	86	6
53	113	2
135	136	11
58	60	5
6	41	1
53	53	11
3	9	1
8	10	1
101	104	1
145	145	6
76	76	7
112	114	4
77	79	2
56	102	3
51	53	2
55	134	2
15	22	1
6	141	1
56	58	7
123	137	2
2	6	2
78	90	5
98	142	2
92	94	3
38	137	2
27	144	3
127	141	2
74	89	2
1	10	4
105	124	1
119	135	1
114	133	5
95	103	6
63	65	4
95	131	4
58	102	3
109	112	1
51	54	4
15	16	9
88	89	6
106	107	7
120	123	7
138	142	2
9	136	3
14	15	6
105	123	4
98	101	6
67	96	1
48	117	3
51	51	8
33	35	5
11	16	3
58	125	4
94	111	1
143	144	17
58	65	1
9	10	4
84	86	3
136	137	7
121	122	5
89	90	8
107	118	1
19	29	4
113	113	6
5	6	9
1	42	3
115	119	1
74	75	8
91	92	2
72	80	5
55	102	4
6	90	2
74	90	4
23	24	14
58	126	2
58	66	2
0	1	9
121	130	1
105	107	1
49	54	2
82	86	3
23	28	2
135	137	2
64	67	3
62	64	3
24	39	3
111	112	2
31	82	2
50	129	2
0	16	3
52	132	2
128	130	5
130	132	2
0	9	1
92	95	6
59	60	7
117	144	1
117	118	9
26	138	1
18	140	3
124	129	2
82	84	3
119	129	5
123	128	4
95	124	3
114	141	1
49	52	2
103	104	5
70	70	8
107	108	1
58	98	2
139	140	12
93	108	3
107	124	2
107	117	2
35	36	7
82	95	2
121	127	3
0	0	11
124	128	1
17	28	5
121	140	3
72	73	3
68	71	3
107	123	2
50	104	5
23	26	2
144	146	3
57	93	2
115	133	1
56	57	2
125	126	4
116	118	4
12	12	9
65	68	1
13	16	1
47	49	2
83	83	5
126	141	3
80	82	2
34	34	2
97	143	1
104	121	2
135	144	1
29	39	2
49	105	2
13	18	2
65	131	1
117	141	4
114	117	2
17	29	2
87	107	1
66	73	1
117	133	1
124	127	1
125	141	2
11	80	2
32	33	4
84	87	2
1	6	1
118	120	6
98	136	1
106	117	1
91	94	1
95	109	1
42	61	2
49	115	3
52	53	2
138	141	1
32	34	2
91	113	1
2	12	1
62	65	4
59	95	3
59	62	1
29	30	5
66	84	3
60	63	1
38	136	1
71	74	2
55	133	2
145	146	5
97	108	2
33	47	2
11	107	1
57	83	1
91	93	2
84	85	4
110	116	1
106	112	1
90	104	2
50	115	1
36	128	2
108	125	3
54	55	4
25	38	1
117	132	4
93	93	5
114	116	3
103	125	1
76	101	2
92	93	10
29	142	2
98	100	4
27	136	1
76	78	1
131	138	1
27	37	1
66	83	1
56	134	2
3	34	1
82	94	2
75	76	1
115	139	1
112	137	2
101	134	2
27	142	1
90	94	1
27	28	2
38	139	1
113	141	1
88	90	4
91	132	1
38	129	1
53	56	2
1	143	2
84	91	1
130	144	1
91	110	1
83	96	2
123	127	1
119	133	3
65	98	1
59	124	1
38	134	2
115	141	1
10	29	1
27	30	1
105	119	2
98	117	5
77	81	2
38	140	3
2	3	2
87	87	3
123	125	2
10	106	1
3	4	6
84	88	2
77	103	2
58	101	1
34	71	1
66	76	1
106	108	1
82	92	1
2	13	1
102	104	1
120	134	1
126	135	1
110	114	1
108	136	1
119	131	2
110	115	2
35	37	2
141	143	2
25	43	2
70	71	1
81	83	1
65	95	2
29	36	1
82	85	2
15	20	1
19	113	1
97	100	2
110	113	1
29	62	1
9	106	2
96	99	1
56	59	2
119	128	2
90	91	6
71	87	1
106	118	1
73	76	1
105	136	3
115	120	1
43	43	4
136	138	1
140	143	2
95	126	1
96	102	1
85	92	1
49	123	1
126	130	3
35	38	1
2	5	2
114	121	1
92	104	2
11	15	3
6	20	2
58	83	1
62	104	2
79	86	2
37	135	1
54	118	1
90	97	1
126	134	1
65	126	3
110	110	2
27	31	1
108	109	1
16	32	3
123	131	1
59	125	1
36	43	1
85	109	1
133	136	2
33	36	1
95	111	1
82	88	1
96	123	1
60	98	2
98	106	1
30	31	2
35	43	2
57	108	3
0	143	2
26	37	1
82	119	1
38	53	1
58	62	1
56	114	1
49	129	1
141	144	1
125	130	1
36	125	2
75	101	1
26	32	1
34	36	1
37	41	2
49	65	2
127	131	1
5	90	1
119	125	1
61	134	1
20	23	1
51	114	1
32	48	1
16	33	1
5	42	1
66	98	2
52	110	1
118	136	1
30	94	1
89	112	1
117	138	1
96	124	1
83	87	1
97	142	1
50	51	2
98	134	1
9	11	1
96	121	1
104	123	1
56	132	1
106	119	2
39	62	1
98	137	1
39	61	1
49	134	1
21	37	1
110	111	1
113	114	1
54	56	1
70	73	1
35	47	1
57	131	1
117	121	1
1	2	1
28	33	1
61	97	1
113	117	1
63	100	2
69	80	1
97	109	1
67	83	1
6	33	1
85	87	2
50	105	1
72	74	1
106	138	1
71	73	1
63	66	2
116	140	1
97	99	1
88	105	1
50	52	1
13	27	1
88	92	1
26	38	1
17	30	1
107	121	1
101	143	1
124	126	1
120	124	1
26	41	1
12	13	1
92	132	1
3	12	1
27	38	1
50	53	1
107	122	1
128	144	1
115	116	2
102	134	3
107	141	1
66	78	1
56	115	1
115	118	1
127	128	1
143	145	1
140	142	1
4	6	1
65	67	1
