119	119	4
99	101	3
84	92	2
50	50	19
113	122	4
29	29	4
45	45	10
84	85	1
125	125	10
54	55	3
64	94	4
102	102	8
16	17	6
90	91	6
130	130	5
89	89	6
131	131	3
114	114	9
120	131	1
113	113	10
65	66	1
6	7	5
121	122	1
25	26	3
49	50	5
17	18	1
126	126	6
82	84	7
25	25	6
44	45	6
93	94	4
111	131	3
71	71	6
128	128	9
27	62	5
108	108	5
78	108	2
100	122	1
23	23	8
34	37	3
106	106	4
100	101	1
64	91	2
56	56	4
62	68	2
121	121	8
70	70	10
77	77	9
90	90	2
82	97	1
130	132	6
7	9	5
68	68	4
104	104	2
62	105	1
14	14	4
83	84	5
123	123	12
11	11	8
99	121	3
84	91	1
52	53	1
2	81	4
35	35	12
2	57	1
62	97	2
87	87	4
33	33	4
123	124	3
28	33	1
129	129	8
61	61	10
19	19	5
24	45	3
18	21	1
79	108	5
78	78	5
58	83	4
124	124	2
44	44	1
98	109	2
94	94	6
16	16	9
114	131	2
122	122	6
67	67	1
24	24	1
45	59	2
1	2	3
38	38	4
122	124	2
78	79	5
96	96	2
57	57	4
104	105	5
6	6	6
38	60	1
101	101	8
66	67	1
109	109	8
108	122	3
67	68	5
111	123	3
7	7	2
27	28	5
74	74	4
45	47	2
2	2	12
21	22	5
7	10	4
60	69	4
64	64	6
49	49	5
105	105	7
97	97	2
58	58	2
66	68	2
53	87	2
72	72	9
91	91	3
84	84	4
8	8	6
80	80	9
3	3	3
58	65	2
37	38	1
132	132	5
44	52	1
63	63	3
69	69	2
53	54	3
127	127	3
87	100	3
32	32	4
82	83	3
115	115	5
77	78	1
88	88	4
46	54	3
36	106	2
73	74	1
26	53	3
95	95	10
112	112	7
83	83	14
54	104	2
110	110	2
20	109	2
97	101	3
98	105	1
76	77	3
112	126	2
66	69	1
115	130	4
86	87	1
75	79	1
18	18	5
32	33	2
93	93	2
60	76	2
108	110	2
62	63	1
111	111	2
86	86	2
101	112	1
54	69	1
49	53	1
72	73	3
106	124	2
4	4	2
119	120	2
3	4	1
28	28	6
15	15	2
67	69	3
75	75	3
73	73	5
18	19	1
9	9	2
63	64	3
62	62	4
99	99	7
64	82	1
122	123	3
61	63	4
100	100	5
118	118	11
87	96	4
79	131	3
85	85	8
69	70	2
5	45	1
79	80	1
34	34	3
76	76	5
33	34	2
103	103	5
109	111	4
2	3	1
102	104	1
66	81	3
36	36	4
1	1	4
80	82	3
52	52	6
92	92	3
57	58	3
134	134	1
129	132	1
122	134	2
100	107	2
101	102	1
61	79	2
59	59	2
88	100	1
54	68	2
31	31	5
20	21	3
22	22	2
45	57	1
29	30	1
120	120	4
59	63	1
109	129	2
84	94	1
53	53	4
118	120	2
97	124	2
112	116	4
117	117	8
107	107	2
61	81	1
64	65	2
1	71	2
124	125	1
54	84	1
89	101	1
54	63	1
61	62	1
92	95	3
43	43	4
69	79	1
18	22	1
58	59	3
117	118	4
100	111	1
2	104	1
98	98	1
42	43	2
54	54	5
79	79	1
83	100	1
130	131	1
37	37	1
106	108	1
48	48	1
54	61	2
82	82	2
16	21	1
83	96	1
90	104	2
27	27	1
64	87	1
80	88	1
115	116	3
92	94	1
5	25	3
127	134	1
86	97	3
86	98	1
20	20	2
69	81	1
75	80	1
66	66	2
110	111	1
31	32	1
57	79	1
129	131	1
9	10	1
5	5	3
108	116	1
47	47	1
106	112	2
128	131	1
81	97	2
44	59	2
108	109	1
95	106	2
110	124	3
95	98	1
11	16	3
133	133	1
63	69	1
94	113	1
13	13	2
107	108	1
64	90	2
21	21	1
135	135	1
61	65	1
132	133	2
22	26	3
78	131	2
45	49	2
90	93	1
49	55	1
7	53	1
43	69	1
61	96	2
87	99	1
62	69	1
120	121	1
45	81	1
94	109	1
119	133	1
7	8	1
11	22	1
116	116	2
91	92	1
124	126	1
53	59	1
89	90	1
65	91	1
115	118	1
98	107	1
103	105	1
24	25	1
