53	53	6
31	59	3
12	104	4
15	15	5
84	84	9
89	89	2
17	29	2
77	77	10
134	134	11
50	54	1
46	47	3
73	98	1
97	97	6
118	118	5
90	90	9
79	98	5
12	12	3
35	36	2
65	71	1
73	89	2
7	7	3
34	64	2
31	56	1
116	116	9
132	132	4
3	3	7
106	111	1
82	111	5
68	68	8
29	29	2
80	80	9
23	23	7
74	75	5
119	119	12
63	63	7
57	61	1
56	57	3
65	79	3
6	6	4
58	58	5
78	78	8
23	24	1
83	106	2
61	61	6
72	72	4
91	125	4
89	90	5
130	131	1
48	48	1
19	19	1
131	131	7
91	109	2
121	121	2
109	109	2
1	1	2
43	43	2
65	69	2
30	30	3
114	114	2
16	16	4
82	82	6
44	45	3
120	120	5
32	32	1
28	28	3
106	109	4
4	5	4
78	109	2
87	97	4
127	128	5
2	2	2
127	127	5
75	75	4
95	95	11
62	62	4
76	76	3
92	92	4
122	132	4
91	97	2
125	127	1
108	111	3
36	37	1
111	111	2
112	113	5
106	112	3
82	83	3
61	68	2
107	107	3
14	14	1
76	99	1
35	35	5
56	56	3
88	95	1
43	44	3
110	111	2
101	101	2
122	123	1
77	78	5
82	107	1
82	108	1
24	24	5
87	96	1
126	126	3
66	66	1
22	22	4
75	94	1
79	79	7
83	83	2
112	112	3
109	123	1
26	26	2
45	46	1
55	66	1
91	91	2
102	102	5
117	118	4
52	54	2
70	70	7
94	94	2
36	36	1
86	86	3
87	87	8
35	69	1
90	91	2
64	66	1
1	2	4
72	73	3
92	108	5
74	103	2
27	64	1
95	96	2
99	105	2
50	50	4
118	119	2
123	124	2
110	110	2
33	33	4
62	90	2
74	74	3
31	31	5
69	70	1
65	65	1
35	38	2
98	98	1
113	116	2
133	134	1
74	89	1
73	73	7
125	125	2
64	64	5
115	115	4
98	99	1
57	57	1
93	93	4
55	55	4
49	51	1
62	63	3
106	106	1
45	59	2
109	110	1
124	124	4
112	114	2
111	125	2
68	85	2
30	85	1
71	71	1
105	105	4
123	126	1
98	100	1
126	127	1
84	85	1
121	122	2
20	20	7
13	13	1
76	79	1
82	106	2
31	32	1
60	65	2
60	61	2
102	105	1
43	47	3
54	54	2
107	109	2
132	133	1
93	94	1
131	132	1
85	107	2
86	88	1
67	67	1
15	16	2
21	21	2
96	109	1
6	7	1
81	97	2
71	105	1
106	107	1
133	133	2
98	118	1
84	109	1
82	84	1
128	128	1
83	87	1
113	123	2
69	69	1
42	56	1
60	88	1
94	96	2
23	25	1
38	38	1
7	8	2
14	19	1
88	102	1
47	47	1
6	25	1
80	81	2
57	83	1
9	9	2
81	82	1
113	113	2
80	97	1
88	97	1
27	27	1
108	110	2
34	63	1
85	105	1
60	69	1
122	129	1
124	126	1
121	131	2
68	81	1
4	4	1
96	96	1
30	31	1
93	113	1
85	85	1
20	23	1
103	103	1
117	117	1
70	104	1
97	117	1
86	87	1
