118	119	3
77	77	4
113	113	9
71	78	3
116	116	3
4	4	6
126	126	9
94	94	4
15	15	1
87	87	6
109	109	11
11	11	7
96	99	2
129	129	6
25	25	3
12	16	3
96	128	1
31	33	1
81	81	2
122	123	8
90	91	2
112	112	8
2	2	7
71	72	6
135	135	8
119	120	3
110	111	6
5	5	7
29	29	5
130	130	2
17	18	3
123	124	1
97	97	2
96	96	7
121	122	5
120	120	2
131	131	6
16	16	6
0	1	2
14	14	4
126	127	3
102	102	14
11	13	1
101	102	4
124	125	1
118	118	4
92	92	3
125	125	10
134	135	6
18	18	5
88	126	6
35	35	4
122	122	7
18	88	2
71	71	5
80	92	3
81	111	4
6	9	2
129	134	1
119	119	7
140	140	4
97	98	3
30	30	3
8	9	2
83	84	3
79	79	4
88	88	4
71	76	1
113	123	1
137	137	2
72	72	6
20	98	3
117	117	2
123	123	4
14	18	2
106	107	3
111	111	1
27	27	8
84	84	3
78	78	4
10	12	3
124	124	6
121	121	6
79	86	1
24	25	3
17	17	4
98	98	4
110	110	2
3	6	1
103	103	6
92	93	4
28	28	6
13	14	7
133	133	3
22	22	4
6	6	1
112	119	1
76	76	1
34	34	6
73	77	1
34	35	3
134	134	8
128	128	5
99	99	3
114	114	4
5	6	2
101	101	2
113	117	1
7	7	2
4	5	2
138	139	1
14	16	1
5	10	4
107	107	2
90	90	4
20	20	4
91	91	1
19	22	2
97	133	1
18	19	2
89	89	1
19	21	2
27	32	1
27	33	1
105	108	1
9	9	3
108	108	2
21	21	4
6	8	3
80	85	2
36	36	1
7	9	4
26	26	1
90	129	2
100	100	2
3	11	1
119	121	1
29	32	1
3	3	6
37	38	1
115	115	4
101	123	1
108	109	2
136	136	2
25	26	1
21	91	1
6	37	2
80	115	1
19	19	2
20	21	1
131	132	1
13	13	1
31	32	1
127	127	3
80	80	1
105	105	1
81	119	1
31	31	1
104	107	1
86	86	1
7	8	1
73	75	1
99	111	2
106	106	1
19	76	1
93	94	1
93	121	1
3	15	1
72	113	1
39	120	1
74	74	1
33	33	1
103	125	2
3	16	1
74	75	1
83	120	1
30	32	1
81	125	1
6	38	1
96	136	1
12	12	1
73	73	1
117	124	1
82	113	1
135	136	2
99	112	1
27	28	1
132	132	1
21	22	1
15	97	1
82	82	1
16	35	1
84	85	1
93	93	1
10	11	1
29	31	1
128	129	1
