16	30	1
34	73	3
19	19	14
34	63	1
12	12	5
64	84	2
56	57	10
6	12	2
61	81	2
54	54	8
27	27	8
79	80	10
65	66	5
25	26	5
63	63	3
63	70	2
17	32	4
57	85	1
59	60	7
68	68	6
58	58	16
62	63	4
6	6	9
73	73	11
11	11	5
72	74	3
9	27	5
2	2	8
60	62	5
71	71	4
22	22	9
14	14	1
53	65	2
80	80	15
52	61	4
84	90	1
24	24	6
0	0	6
17	17	9
60	60	4
72	73	3
23	23	11
5	5	10
50	50	6
81	81	22
6	18	1
78	84	3
85	85	13
14	53	2
30	30	7
56	56	7
5	12	7
64	65	7
55	76	2
61	84	3
13	13	9
9	9	11
77	77	12
12	13	4
3	3	7
48	48	9
7	8	3
67	67	5
8	10	4
21	21	5
19	21	1
10	17	3
34	34	5
88	89	3
84	86	1
33	65	8
79	79	9
5	8	4
4	11	2
52	72	2
86	86	16
8	8	4
78	79	11
72	72	9
62	65	1
62	62	11
84	84	10
86	87	13
49	49	11
80	82	1
55	55	6
63	79	4
19	81	1
19	24	2
25	25	3
65	79	4
73	74	4
3	27	3
53	63	1
28	28	4
59	59	9
83	83	7
85	87	4
49	71	1
82	82	7
74	84	3
87	87	3
17	27	3
64	82	5
66	74	3
53	53	9
57	57	17
6	13	1
7	7	1
64	64	11
89	89	10
14	66	1
67	68	2
53	55	4
24	28	1
74	74	5
63	64	6
5	18	1
18	18	3
78	78	5
60	61	1
62	64	5
66	66	5
61	61	7
50	52	6
46	49	2
79	82	3
10	27	1
15	15	6
29	30	2
27	29	3
63	65	11
10	33	1
75	76	2
56	65	1
4	19	2
69	70	2
16	18	2
82	84	1
0	85	1
20	21	1
62	83	1
10	10	4
16	19	1
47	49	3
21	22	3
68	69	2
84	85	1
59	62	1
69	69	4
84	89	2
58	62	2
82	83	6
4	4	6
63	78	1
16	16	5
26	26	1
53	77	1
19	20	1
27	28	3
47	47	6
85	86	1
9	18	2
29	29	4
2	87	4
76	78	2
50	72	2
52	52	4
8	86	1
12	27	7
70	71	2
57	84	1
66	77	3
57	58	1
27	52	3
12	31	1
73	84	1
54	56	2
87	89	2
2	7	1
4	24	3
22	24	2
60	78	3
81	82	3
9	26	1
12	20	1
64	66	1
3	24	2
22	27	1
64	80	3
51	51	2
48	49	1
7	20	1
24	25	1
56	60	1
14	15	1
10	26	1
53	82	2
82	85	1
5	7	1
9	10	1
6	7	2
60	82	1
18	27	1
12	19	1
7	12	1
17	25	1
5	17	1
77	82	1
34	35	2
60	79	3
23	24	2
88	88	2
30	31	1
62	78	1
57	87	2
28	29	1
3	87	1
75	75	5
9	23	2
12	26	1
4	5	1
20	22	1
0	57	1
66	67	2
34	62	1
52	53	2
64	79	1
51	76	1
22	34	2
3	29	2
1	1	1
4	16	2
53	54	1
77	83	2
84	87	1
26	27	1
58	59	1
21	24	1
48	83	1
47	48	1
60	80	1
53	64	1
16	25	1
