96	96	18
94	94	26
7	7	79
16	16	57
14	14	90
100	102	6
82	86	1
31	31	60
11	11	75
43	43	50
26	26	44
40	41	8
168	168	34
37	37	67
25	25	52
35	37	7
159	159	13
11	12	24
23	23	90
8	9	49
10	21	6
54	54	23
10	17	6
86	88	4
113	113	30
1	5	5
42	42	55
11	13	12
74	87	3
163	164	6
66	66	15
151	151	13
71	71	15
58	83	3
99	100	13
30	30	55
166	166	20
1	1	54
65	66	3
175	175	14
103	105	8
3	3	72
50	50	17
125	132	1
64	79	4
63	76	4
2	2	88
14	15	17
55	78	5
8	8	129
72	77	7
9	9	82
15	16	27
0	0	37
29	29	72
156	156	25
24	28	11
33	33	73
31	158	1
40	159	4
119	120	9
28	28	56
78	78	19
92	92	22
10	10	87
133	133	23
43	163	1
51	100	6
113	114	6
1	17	2
38	38	66
59	59	26
162	166	3
63	107	6
20	20	48
1	2	9
17	17	43
111	111	24
3	44	3
14	37	1
33	122	4
136	154	2
6	6	103
164	164	19
13	13	80
110	111	7
39	39	57
169	169	33
90	90	18
109	109	22
82	82	23
24	24	88
32	32	63
135	135	20
180	180	7
171	171	41
74	107	1
18	18	42
86	96	3
59	60	12
103	104	14
116	116	22
51	95	1
131	155	6
91	93	9
24	25	24
19	19	62
65	65	19
18	26	2
173	174	15
2	11	1
33	135	3
112	112	29
50	57	2
7	8	27
57	99	3
101	101	16
32	35	6
115	116	16
94	95	5
83	86	4
3	9	3
106	127	1
32	33	32
161	161	14
2	30	5
23	27	8
163	163	24
151	153	8
50	51	8
6	18	1
93	94	3
140	141	4
64	64	29
7	10	7
59	84	2
34	42	4
82	90	3
3	4	42
159	164	7
80	80	23
41	41	58
56	57	3
58	59	6
73	73	31
119	119	18
5	5	80
72	178	2
176	176	23
30	102	4
87	87	19
83	84	3
12	13	41
117	117	18
6	7	32
22	32	2
88	89	4
174	174	27
27	27	66
139	140	7
1	3	8
153	155	4
30	31	31
39	40	33
46	46	8
156	157	10
36	36	63
108	108	21
115	115	14
107	123	1
45	45	53
81	81	16
24	31	4
5	6	27
57	57	20
170	170	22
9	23	1
52	72	1
124	124	14
23	24	22
78	81	5
138	138	15
67	81	6
36	37	10
123	123	12
51	51	15
68	85	1
150	150	26
21	21	44
129	155	3
17	31	2
155	156	8
35	35	49
26	27	22
130	130	10
86	86	21
7	16	5
158	158	20
9	12	7
29	30	18
75	93	1
107	107	10
33	36	2
136	136	27
44	44	64
21	25	5
122	128	1
23	40	2
15	15	58
27	78	6
58	91	4
4	4	89
10	11	17
51	52	3
60	60	22
17	18	11
4	5	21
160	160	19
147	147	11
144	180	2
147	151	3
83	83	14
128	128	38
72	76	5
146	146	27
139	139	31
33	179	3
153	153	21
152	160	2
10	14	10
121	121	20
165	166	9
2	6	2
172	172	21
81	118	1
89	89	34
107	108	14
23	25	5
41	44	7
155	155	21
140	154	2
22	22	67
22	23	11
170	173	2
12	14	5
29	33	5
142	167	2
159	170	1
76	76	19
148	148	19
81	135	4
12	12	57
26	33	5
114	129	3
97	97	17
135	144	6
162	164	5
151	154	3
125	125	30
84	84	29
157	167	2
33	34	13
6	8	4
134	134	14
141	141	28
162	162	34
79	79	22
147	148	5
96	99	4
118	148	1
72	72	12
129	151	2
123	124	20
92	96	7
32	34	3
95	95	20
75	89	2
66	75	2
125	133	4
23	39	2
43	44	14
45	46	9
134	135	8
134	149	2
8	12	3
122	122	22
98	99	9
148	149	9
40	42	3
67	91	3
14	16	9
121	122	4
88	88	27
139	141	5
151	156	4
20	29	3
14	20	2
5	8	5
37	42	3
126	126	27
102	125	3
142	142	14
91	91	27
58	58	29
73	75	1
149	149	26
104	104	16
134	142	5
126	130	3
114	114	19
39	122	1
18	31	7
140	140	25
85	86	12
66	67	13
12	17	1
6	12	2
142	143	8
34	34	44
77	78	10
144	146	2
18	21	7
52	52	36
19	20	22
151	152	7
53	53	12
16	24	4
83	85	2
118	118	27
40	40	49
94	107	3
158	161	1
113	169	6
74	74	13
64	95	1
34	72	2
83	94	4
177	179	1
165	165	17
132	133	11
37	38	24
142	145	2
51	91	1
100	100	16
33	37	4
2	5	8
15	18	10
14	17	3
67	67	19
114	118	5
140	149	4
29	35	3
44	45	14
104	108	1
23	28	7
92	101	3
99	99	7
82	107	1
104	116	4
102	103	4
179	179	20
31	32	18
98	98	17
0	146	1
162	169	1
161	162	6
77	77	16
20	21	7
54	62	10
145	145	15
15	24	1
22	30	4
40	173	2
70	70	10
103	103	16
10	13	8
28	29	28
129	154	2
9	22	7
60	103	1
12	33	2
124	131	1
55	55	26
63	103	6
139	142	6
106	106	20
144	144	17
169	170	6
1	10	9
162	163	3
39	158	5
74	104	5
146	153	2
21	39	3
42	43	8
18	28	1
91	94	8
11	20	5
17	22	5
25	26	40
102	102	21
167	167	34
129	129	27
24	40	3
68	68	10
36	45	2
102	104	1
88	98	4
152	152	16
111	112	3
28	30	9
5	7	6
19	24	2
150	170	1
74	88	2
135	136	11
173	173	19
38	45	1
87	100	5
16	44	8
4	7	6
88	96	5
51	112	3
75	75	8
24	26	21
26	35	10
168	170	1
6	29	3
128	130	3
27	35	4
6	13	5
162	168	2
105	106	18
11	22	5
78	107	1
126	127	11
82	85	4
142	153	7
137	145	1
61	61	21
68	75	1
21	23	4
87	176	1
1	144	1
114	116	4
112	114	4
33	51	3
25	45	3
176	177	1
2	40	3
96	107	1
134	137	14
56	56	21
59	81	4
52	77	3
162	173	5
2	4	13
56	88	3
151	162	1
13	19	3
29	31	9
80	81	10
9	10	12
19	21	13
143	145	8
16	26	1
132	141	2
62	140	2
123	144	2
146	154	2
107	115	3
1	4	4
77	137	7
13	14	17
131	131	25
54	77	4
156	158	8
106	117	2
97	98	8
64	139	2
151	155	8
20	25	4
160	161	17
105	133	3
158	159	5
141	143	2
13	41	3
51	86	7
133	134	2
7	9	11
137	137	18
131	153	2
25	29	4
15	21	1
55	56	8
73	74	4
157	157	18
22	33	1
12	38	2
29	45	1
8	10	9
16	17	19
137	138	13
4	46	1
102	107	4
105	105	13
63	63	11
134	136	9
150	152	2
61	87	3
177	178	9
90	109	4
133	142	1
26	28	5
93	108	2
71	100	3
11	24	1
125	139	3
34	43	2
54	55	4
4	174	4
58	78	1
28	32	2
126	153	3
31	38	3
81	92	1
25	33	3
127	128	7
58	84	5
13	32	2
5	11	3
147	167	1
86	87	6
120	121	6
52	59	4
132	132	17
154	154	15
116	120	5
6	20	2
132	134	3
32	43	2
104	106	3
16	138	2
18	25	2
13	22	12
160	162	3
106	107	7
19	27	1
0	36	4
43	158	1
161	178	1
121	123	1
109	122	2
15	45	3
2	3	21
27	33	2
65	95	1
164	165	4
92	93	9
17	26	2
16	21	5
14	24	1
63	85	5
39	107	1
179	180	1
11	14	2
123	125	2
8	18	3
149	150	4
156	159	3
40	43	2
15	20	1
14	38	2
117	118	8
52	61	1
6	33	2
21	22	5
76	79	5
18	19	21
166	174	1
62	62	16
33	41	3
11	27	3
88	90	3
152	165	9
41	42	7
10	16	6
14	42	2
72	95	2
2	8	5
5	36	2
85	103	3
152	168	2
176	179	8
27	39	2
54	130	2
61	62	1
54	56	1
166	167	13
165	175	2
58	82	3
11	16	5
3	23	4
35	42	1
6	28	3
148	159	3
111	118	2
26	29	5
50	76	3
95	150	2
14	130	3
91	92	7
33	176	4
106	122	2
62	63	7
3	16	1
34	39	3
34	36	4
20	22	1
136	137	6
93	93	11
49	68	2
29	40	3
130	156	1
17	83	1
22	45	2
88	142	2
39	44	1
1	44	1
175	176	6
129	140	6
35	169	4
2	13	2
74	86	1
99	105	6
127	127	13
143	143	9
8	30	2
3	7	3
19	26	1
13	15	8
145	157	6
118	119	2
31	42	2
95	96	7
150	155	3
153	154	5
16	29	1
2	9	4
5	9	5
126	152	1
18	20	8
165	173	2
15	30	3
33	178	2
16	22	4
27	28	14
52	54	1
20	109	2
153	165	4
5	13	2
18	34	1
8	32	1
120	120	29
103	128	3
99	123	6
49	53	1
72	75	2
51	53	5
68	140	2
151	158	3
3	5	7
40	161	4
55	120	1
49	50	2
0	1	10
92	94	3
159	160	4
158	160	8
29	34	4
78	149	1
62	66	2
144	159	1
102	127	5
150	151	4
25	36	1
52	95	8
158	168	4
35	68	1
89	98	6
28	31	6
125	130	6
108	109	10
6	9	2
126	129	3
35	41	4
34	44	1
22	25	7
89	96	2
105	115	2
64	83	3
4	45	3
157	158	4
6	55	4
108	126	3
124	125	5
11	15	5
144	145	3
164	170	1
45	66	4
109	110	4
155	157	2
89	92	3
59	62	2
1	31	4
30	33	5
71	77	3
131	139	4
10	34	3
139	160	4
26	42	1
71	126	2
45	154	2
12	31	2
170	171	7
89	97	1
13	21	3
52	58	3
56	97	5
80	135	3
112	113	6
54	88	5
178	178	8
114	115	1
55	122	1
30	36	2
143	146	4
152	153	3
8	23	2
152	156	3
157	165	1
19	23	3
32	178	4
90	91	4
5	10	3
58	132	1
1	19	4
57	97	2
146	152	3
24	27	3
8	35	1
7	33	1
12	15	6
110	110	8
65	98	1
56	58	3
38	68	3
43	120	2
140	147	2
90	93	3
63	80	1
33	72	2
168	169	1
125	127	1
152	154	2
37	56	2
74	76	1
126	142	4
176	178	2
2	7	3
127	129	1
32	36	2
177	177	8
160	165	9
165	167	4
86	98	2
13	16	7
128	129	2
30	42	4
77	107	2
152	157	2
78	79	5
143	144	11
51	60	3
20	26	1
38	155	1
34	35	6
136	142	6
2	39	1
52	53	9
159	162	4
21	24	5
91	97	3
42	45	2
77	80	1
121	125	3
102	108	1
70	143	1
3	31	2
43	53	1
120	135	2
157	166	2
134	138	2
56	128	3
112	115	3
71	142	4
44	46	1
99	106	1
159	166	1
127	143	1
67	68	7
36	39	1
83	91	2
77	81	2
8	15	4
61	86	2
141	149	1
36	40	4
14	29	3
159	165	1
38	39	3
102	106	4
15	31	4
64	76	3
152	166	1
8	38	3
129	164	2
106	109	1
53	127	3
143	147	5
8	20	3
114	117	3
88	95	1
35	36	22
19	34	2
62	67	1
16	25	1
119	121	2
33	38	1
109	113	2
15	36	4
153	157	4
20	33	1
173	179	5
71	107	4
78	90	2
11	31	3
20	23	2
53	95	2
41	43	7
149	151	6
23	44	3
43	49	1
16	18	4
85	85	11
132	136	3
110	129	2
110	128	2
87	89	1
26	30	1
37	150	3
4	41	2
32	38	2
58	103	4
33	43	3
76	77	10
59	94	2
33	35	4
154	155	3
30	44	1
64	107	4
23	26	1
148	154	2
124	153	3
4	16	1
12	44	2
5	16	6
81	111	2
81	82	3
7	25	2
22	145	1
8	55	2
13	36	1
90	92	4
60	61	3
17	38	2
63	141	2
39	53	2
7	49	1
17	37	2
104	107	1
103	109	3
34	40	4
38	81	1
74	75	5
68	91	1
32	40	4
126	128	2
51	99	1
22	41	2
114	171	1
32	39	2
62	86	1
144	161	1
38	57	4
13	27	3
34	68	2
5	32	2
94	96	3
50	61	2
74	118	2
2	176	4
1	27	3
110	114	1
130	158	1
20	24	2
27	30	5
178	179	3
110	125	1
4	10	2
14	32	5
27	29	3
52	57	1
24	29	2
12	16	2
120	164	2
83	109	4
77	88	1
3	8	6
84	90	2
19	38	1
112	122	2
11	40	1
28	33	7
93	102	3
29	44	1
27	32	3
55	94	1
5	15	2
65	130	4
118	145	2
114	119	3
98	102	1
118	144	3
54	60	1
94	97	1
101	102	4
33	39	1
161	163	4
159	161	1
104	105	5
174	175	2
38	56	3
115	177	1
9	11	3
2	14	6
73	96	3
41	49	1
73	108	1
173	175	2
71	72	2
142	154	1
1	16	1
159	163	1
13	18	3
17	19	1
90	97	1
31	34	4
97	109	1
95	127	3
111	124	2
57	78	2
26	40	2
145	166	1
29	42	4
75	76	1
158	166	2
38	72	1
37	43	3
13	34	5
99	101	1
146	147	2
1	6	1
82	83	3
75	87	2
19	22	4
12	20	5
167	172	3
7	15	4
16	31	1
7	42	3
53	54	4
22	26	2
44	154	1
19	28	2
32	41	1
142	150	1
82	92	3
4	20	4
8	43	1
22	28	1
33	180	1
153	166	3
7	11	2
53	107	2
94	176	1
51	101	3
124	127	2
74	92	5
154	167	2
2	23	1
129	130	2
116	145	1
137	141	2
163	169	1
35	65	1
73	87	1
167	168	2
40	50	2
62	64	1
144	157	1
8	11	6
1	14	1
29	41	1
6	46	1
59	80	1
20	35	1
41	46	1
63	82	1
24	33	1
26	31	2
4	6	5
37	40	1
61	107	1
18	23	4
42	44	3
54	66	2
25	27	3
34	37	1
80	118	4
132	139	2
7	14	2
38	107	1
116	121	1
78	95	2
18	45	1
68	81	1
89	136	1
136	143	5
156	167	2
167	174	2
102	122	2
79	81	1
111	128	2
161	166	1
28	39	7
61	85	1
10	18	3
6	27	1
72	107	1
60	125	2
50	104	1
84	85	4
21	32	1
76	89	2
29	36	2
80	82	1
171	174	1
130	152	1
124	146	2
38	148	2
54	138	1
53	117	2
116	117	4
2	22	2
82	84	5
140	153	1
12	26	2
58	94	4
86	103	1
16	20	2
16	27	5
34	130	1
131	138	2
0	32	2
33	163	2
81	137	2
119	144	4
71	73	2
31	35	1
54	65	1
58	102	1
43	130	1
3	45	3
121	128	1
61	64	1
79	80	2
44	61	1
28	40	3
151	159	3
18	29	1
143	157	1
172	175	2
2	43	1
6	26	1
4	9	2
130	140	1
11	19	1
57	68	2
120	122	3
152	155	1
89	91	3
67	75	2
3	6	1
100	101	1
11	35	2
164	169	2
107	110	1
136	149	1
57	58	4
6	10	1
43	149	2
77	89	2
156	164	1
9	37	1
142	147	1
29	43	1
122	125	2
12	29	1
85	89	1
21	33	1
17	24	1
53	60	1
116	118	1
22	151	1
11	36	1
112	117	1
118	121	1
24	35	1
166	175	1
73	95	3
62	65	1
173	180	2
144	154	1
80	121	1
113	168	1
4	8	2
41	51	2
141	142	2
16	40	1
112	116	1
134	173	1
1	37	1
34	41	2
171	172	3
3	11	1
53	106	2
52	101	1
5	37	1
26	45	1
53	100	1
78	105	1
2	33	1
61	131	2
23	79	2
9	33	3
81	114	2
14	21	1
26	41	3
5	33	2
18	22	2
85	93	1
115	170	3
177	180	1
149	157	1
78	86	1
132	170	2
25	35	1
14	33	1
53	61	1
25	31	1
64	65	1
16	33	2
63	64	2
27	46	1
23	29	1
18	35	1
13	157	1
149	170	1
3	38	2
2	41	1
23	45	3
21	30	2
105	127	1
19	31	2
77	86	1
55	91	1
165	168	2
131	133	1
154	156	2
78	80	1
122	153	1
74	102	1
82	135	1
38	40	2
148	150	3
45	49	2
111	113	1
30	43	2
23	41	1
14	26	2
105	128	1
15	136	1
136	141	1
138	173	1
13	23	1
62	126	1
131	140	1
27	34	1
77	91	2
28	38	1
68	87	2
144	151	1
97	110	2
16	19	1
2	112	2
11	26	1
37	68	1
166	168	2
51	68	1
103	144	2
5	27	2
150	154	1
10	12	3
38	158	1
53	56	1
104	115	2
89	90	1
145	159	1
64	102	3
10	15	1
18	30	1
132	154	1
91	96	2
41	45	1
6	45	1
54	59	1
8	21	2
20	30	1
40	83	1
129	156	1
3	18	1
14	23	1
11	30	1
49	54	1
7	20	1
35	170	1
85	144	1
50	52	1
153	167	1
145	146	1
149	172	1
77	83	2
27	45	1
73	76	2
164	168	1
16	28	1
40	100	1
105	107	2
14	31	1
24	30	1
12	94	1
67	76	1
145	153	2
88	91	1
96	105	1
41	160	1
15	23	2
54	87	1
171	173	2
54	76	2
172	173	1
113	118	2
99	116	1
70	71	1
13	33	1
147	154	1
23	32	1
4	22	1
7	17	1
74	138	1
37	74	1
154	157	1
1	13	1
101	108	1
17	21	1
88	94	1
74	108	1
96	104	1
22	43	1
135	143	1
54	61	1
49	49	1
130	131	2
101	107	1
90	108	1
58	79	2
28	36	1
135	147	1
55	119	1
158	167	1
130	132	1
120	134	1
113	116	1
3	19	1
88	92	1
35	89	1
103	106	1
17	39	1
26	36	1
154	166	1
37	67	1
