61	61	19
60	60	18
52	53	7
9	9	20
27	28	9
57	57	30
83	83	19
56	57	7
79	79	13
68	69	14
85	85	20
69	69	17
47	48	14
55	55	12
72	77	1
25	25	15
34	35	5
50	56	8
88	89	3
27	27	11
50	50	8
12	13	2
67	67	9
61	62	2
25	26	1
5	9	1
59	59	4
78	78	15
89	89	6
3	3	8
57	58	7
53	53	11
12	12	5
29	29	4
5	20	2
79	80	2
74	75	3
1	1	12
52	52	12
54	55	10
24	25	5
21	21	5
61	76	3
86	86	7
48	49	3
6	19	2
11	11	11
77	77	8
81	81	11
49	50	3
31	31	13
8	8	14
59	60	9
21	22	12
88	88	2
85	86	5
9	10	2
7	7	12
16	16	8
48	62	1
26	27	4
72	73	7
48	60	1
54	54	9
18	23	4
70	70	6
26	26	19
64	64	8
20	22	2
24	26	1
34	34	9
7	18	1
28	28	7
24	24	17
67	68	3
47	54	1
56	56	18
76	76	8
13	17	1
63	64	9
33	33	1
22	22	4
7	20	2
75	81	2
16	17	2
73	74	4
73	80	1
75	76	6
49	49	10
48	48	7
79	83	1
82	83	6
14	14	15
68	68	6
63	83	1
11	12	2
10	10	12
72	74	3
71	71	18
72	72	11
21	27	1
5	51	1
6	9	2
66	79	4
4	5	2
15	15	5
10	11	3
78	79	11
17	17	11
55	61	1
5	17	3
0	0	8
62	62	12
71	72	1
80	81	3
70	81	3
60	61	1
77	78	6
74	74	8
30	30	4
30	74	4
77	80	4
80	80	10
4	4	7
66	66	16
46	46	10
9	13	1
2	3	3
65	78	4
0	2	1
73	73	10
2	2	3
58	59	3
54	56	4
5	5	6
31	33	3
51	72	1
20	21	1
19	20	1
66	69	1
64	65	5
64	79	4
65	79	2
51	51	2
57	61	1
13	50	2
58	58	17
6	64	1
60	74	2
89	90	2
47	47	3
23	23	14
52	55	5
20	20	6
8	10	2
6	13	3
72	81	2
75	75	13
15	50	4
18	19	1
13	13	13
7	8	2
76	77	5
10	48	1
66	67	6
81	85	1
13	49	1
8	9	2
60	62	4
23	24	3
7	12	5
75	77	3
57	73	1
80	82	1
19	19	6
64	83	1
57	59	4
63	63	8
8	17	1
51	52	2
79	81	3
46	50	1
74	78	1
24	65	1
15	16	3
9	12	2
84	85	2
4	68	2
81	83	6
48	50	2
87	89	2
65	65	4
59	62	2
57	85	2
63	65	3
70	71	2
6	12	1
7	51	1
17	65	2
5	6	6
4	48	1
60	65	1
52	56	2
51	74	2
50	54	1
7	9	1
23	25	3
6	6	3
46	47	1
6	10	2
59	71	2
3	69	1
57	74	1
22	27	1
17	64	1
17	63	1
50	52	1
20	49	2
69	80	1
63	79	1
62	65	1
50	51	1
46	69	1
56	75	1
64	78	1
84	84	2
33	46	1
62	63	1
64	73	1
10	12	2
14	15	2
51	54	1
68	70	1
67	69	1
7	10	1
87	87	1
13	51	2
55	56	1
53	55	1
80	84	1
11	63	1
59	75	1
86	87	1
1	2	1
13	14	1
6	7	1
49	60	1
5	12	1
52	71	1
51	53	1
71	76	1
5	54	1
64	66	1
