135	135	7
140	141	8
4	4	26
37	38	4
69	69	6
98	99	9
37	37	15
99	99	7
22	22	8
153	153	5
54	146	1
39	39	5
119	119	2
127	127	7
142	142	15
19	19	7
54	151	1
7	8	5
6	7	4
82	82	11
134	134	6
148	155	2
115	160	5
137	137	10
40	40	12
33	33	7
10	25	1
9	112	1
7	26	3
93	93	6
157	158	3
78	79	1
160	161	2
80	80	3
13	13	15
91	94	2
86	86	5
10	10	6
161	161	3
139	139	7
56	56	12
52	53	5
97	97	9
117	117	12
62	62	12
94	94	5
111	111	7
12	15	5
148	148	7
131	131	2
147	147	2
20	76	2
74	74	9
53	54	7
56	151	2
161	162	1
45	47	3
16	17	6
20	21	7
27	27	17
2	2	8
38	38	10
11	37	4
107	108	6
15	54	4
91	91	10
138	138	7
49	49	9
107	107	7
147	166	5
144	150	3
45	46	10
54	54	16
108	111	6
76	76	5
105	105	10
48	49	6
5	5	11
9	9	6
14	14	11
100	100	6
7	7	1
143	143	6
0	1	6
75	75	12
91	93	8
122	122	9
63	69	8
91	98	2
168	168	5
154	154	1
23	23	4
57	143	2
136	137	3
54	130	2
44	44	2
102	102	2
41	41	10
35	35	14
103	104	11
64	64	7
133	133	12
125	128	1
77	79	7
127	143	2
65	66	4
39	40	11
132	133	3
116	159	4
103	103	4
133	134	5
82	89	5
24	24	12
136	136	10
5	6	11
51	122	1
25	26	2
15	100	5
162	164	6
118	118	11
165	166	4
125	132	3
151	152	2
36	36	15
109	109	8
169	169	8
37	41	4
70	70	9
130	130	10
148	149	3
71	71	6
98	98	6
12	52	1
51	51	10
64	65	8
48	48	12
57	58	6
150	150	5
2	150	4
111	158	3
14	159	4
49	50	3
114	114	12
45	45	6
142	151	4
8	133	2
136	140	2
50	50	6
63	63	9
0	0	5
58	62	1
46	47	5
81	82	2
94	96	2
108	109	3
8	8	5
1	1	9
152	152	3
25	25	13
17	17	10
6	6	12
133	140	1
94	95	1
42	43	4
168	169	2
21	21	3
56	57	2
155	155	8
107	110	2
11	11	6
124	126	4
124	124	3
79	80	5
156	156	9
98	154	1
125	133	2
12	13	2
158	158	5
112	113	4
119	122	1
12	12	4
14	53	1
37	139	2
8	10	9
77	78	5
108	108	7
53	142	1
85	85	1
71	86	1
104	104	3
18	18	7
144	144	7
116	117	2
130	148	1
88	89	5
7	54	3
129	129	12
116	120	6
110	110	6
70	71	5
135	136	6
143	144	3
99	116	3
57	57	8
55	55	8
1	2	4
8	9	3
42	42	7
159	159	2
53	150	1
89	89	4
126	133	1
26	26	3
163	163	7
85	86	1
122	123	5
68	68	3
43	43	7
134	135	8
36	138	1
55	129	5
113	113	1
66	67	4
91	92	8
11	81	1
170	170	4
38	67	3
167	168	3
34	34	7
150	151	4
6	112	4
1	3	1
141	141	6
71	93	2
128	128	7
87	88	7
87	87	4
90	91	2
73	73	3
15	55	2
22	23	8
81	81	4
35	42	4
3	3	7
9	10	2
146	146	8
3	4	1
112	167	2
67	68	2
145	145	5
125	125	2
16	16	5
79	79	2
103	105	2
123	125	2
62	63	2
119	121	1
116	157	1
43	44	1
138	139	2
27	28	3
11	12	11
72	75	2
24	25	3
138	140	2
34	35	3
81	89	2
162	162	3
166	166	4
27	105	3
118	121	1
150	154	1
15	15	4
100	102	4
164	164	2
53	53	6
88	151	2
116	118	1
73	78	2
81	130	1
47	47	4
44	45	5
13	95	1
78	78	4
123	123	10
36	37	3
48	50	2
0	4	1
149	149	8
46	46	5
157	166	3
126	143	3
15	92	2
95	96	3
121	121	6
11	16	4
7	127	3
76	77	2
72	72	5
167	167	4
102	103	1
21	22	1
9	136	1
84	85	2
140	140	2
80	82	2
99	100	1
110	111	5
112	112	7
0	3	1
106	110	1
99	154	1
17	157	2
35	36	1
53	124	4
101	101	4
1	170	2
90	90	7
72	96	1
14	150	1
16	52	4
163	164	3
134	136	4
26	137	2
106	106	5
8	134	1
21	23	2
18	49	1
46	69	1
83	129	6
84	84	3
9	139	1
164	165	2
92	92	2
6	108	2
11	74	2
90	155	1
77	77	3
11	79	2
13	17	3
5	123	1
19	20	2
116	160	1
137	138	3
16	56	1
96	96	5
52	55	1
0	170	1
116	116	3
54	55	2
151	151	2
72	80	1
4	7	1
119	161	2
73	98	1
47	49	2
10	74	2
51	124	2
73	80	1
161	163	4
153	161	3
12	38	1
90	93	1
41	136	1
93	94	3
115	115	1
9	113	1
65	65	3
108	110	3
12	14	1
88	88	2
121	122	2
114	115	2
55	56	2
77	95	1
92	93	1
149	150	1
35	37	4
52	52	2
52	151	3
116	155	1
43	120	1
117	125	2
153	154	1
100	101	1
157	157	3
119	120	2
78	80	1
80	87	1
106	107	1
102	104	1
24	26	1
132	135	1
111	112	1
82	131	1
10	40	1
117	118	1
15	16	1
169	170	1
81	151	1
145	147	2
22	24	1
126	126	1
83	90	1
154	155	1
120	121	1
17	48	1
4	5	1
