66	79	2
132	132	5
103	105	3
53	55	4
18	36	3
124	128	2
63	63	6
79	79	1
77	77	7
3	3	3
62	63	1
124	126	1
33	33	3
22	22	3
154	154	11
14	54	2
139	139	3
67	67	7
47	47	9
2	54	1
48	53	3
49	49	3
104	104	6
35	35	7
100	101	2
75	75	4
105	105	1
93	99	3
34	34	6
112	112	1
38	39	2
61	76	2
26	26	6
43	45	1
54	54	10
42	50	1
6	6	5
10	10	2
112	113	5
19	19	4
70	70	7
32	32	2
110	110	4
17	19	6
34	44	5
5	6	7
131	131	2
4	4	8
97	97	4
38	38	6
69	69	2
39	39	9
68	68	4
25	65	1
80	81	2
41	41	5
12	50	2
4	36	5
17	17	10
21	21	2
75	76	2
31	33	3
64	64	9
28	30	3
58	58	8
138	138	3
16	68	4
141	142	4
109	118	1
107	107	9
40	57	4
9	39	2
73	86	1
10	38	2
90	93	1
137	137	10
24	24	4
101	149	2
39	40	3
35	36	2
82	82	2
15	53	3
100	106	1
28	57	3
9	19	4
151	151	3
72	72	2
9	67	1
4	65	3
40	40	4
5	5	4
14	26	5
16	16	4
4	5	3
8	9	1
19	23	2
77	79	3
66	78	2
7	17	2
37	37	1
53	54	2
9	9	3
147	147	2
96	96	8
81	81	5
30	30	7
26	27	6
139	146	1
116	116	4
51	51	4
22	24	2
28	28	7
95	95	5
118	118	5
37	40	4
8	8	6
28	32	3
29	35	2
4	30	7
56	66	1
153	154	8
15	22	2
100	100	2
11	11	5
31	32	3
12	12	3
108	108	5
149	150	5
133	133	7
89	89	3
90	90	3
55	55	10
95	97	1
123	124	1
125	143	3
110	112	2
8	10	2
6	7	6
136	136	5
16	17	2
145	145	3
96	118	1
44	44	7
35	39	4
57	57	3
111	111	4
153	153	3
131	132	5
135	146	1
13	53	6
34	35	1
22	23	4
18	18	3
7	7	1
62	62	1
128	129	3
74	74	1
13	13	3
93	93	3
45	46	1
124	138	2
44	45	1
120	122	2
44	46	3
85	98	2
94	97	5
5	19	1
119	119	4
18	19	1
141	141	5
51	65	4
78	78	4
13	36	1
135	135	4
78	79	2
106	106	1
29	29	5
139	142	1
32	33	2
40	41	2
30	36	1
98	98	1
14	14	3
123	132	3
16	20	4
29	30	5
85	86	3
48	52	1
103	103	1
75	86	2
150	150	2
129	129	5
48	48	5
99	99	2
103	109	5
6	63	2
78	81	1
74	75	4
66	80	1
66	66	1
30	31	3
45	45	9
109	112	3
43	43	6
51	52	2
66	84	2
125	126	3
97	105	2
15	15	1
17	21	1
50	51	2
31	31	2
4	27	1
28	29	1
56	56	2
4	6	2
130	130	4
127	150	4
114	117	1
80	80	5
75	77	2
65	66	1
20	54	1
6	52	3
55	56	1
24	71	4
71	71	2
11	25	1
113	113	3
101	101	7
149	149	5
97	99	4
13	20	1
152	152	2
102	102	1
122	122	2
14	77	1
15	25	1
140	140	1
93	97	2
6	25	1
126	127	3
4	34	3
109	137	2
86	87	1
15	57	1
6	55	1
126	126	1
65	65	1
100	139	1
66	83	1
11	32	1
3	33	2
41	48	2
19	20	2
84	84	1
26	28	1
27	84	2
120	121	1
129	143	2
111	145	1
150	151	2
22	74	2
9	53	1
64	69	1
31	47	1
143	143	1
23	23	2
121	121	2
118	143	1
73	73	1
67	72	1
123	123	2
103	104	2
146	146	1
41	42	1
83	88	1
42	47	1
56	81	1
57	65	1
82	84	1
14	75	2
36	36	1
33	34	1
69	70	1
50	96	1
31	38	1
132	133	1
42	43	1
115	115	1
72	73	1
18	35	1
