128	134	3
22	22	6
100	100	4
75	78	4
78	78	7
154	154	4
32	33	4
27	37	2
107	118	2
138	143	8
94	98	4
74	74	8
67	77	4
17	45	4
117	117	2
120	148	5
19	19	4
110	110	8
122	147	3
37	39	5
101	101	5
82	82	5
43	43	12
56	56	5
134	134	5
9	9	8
84	84	5
51	77	3
121	121	6
146	146	6
123	126	1
147	147	5
50	57	3
138	139	1
122	122	6
104	123	3
96	135	1
65	67	6
79	85	7
48	68	6
98	99	2
3	3	4
48	48	9
63	63	9
19	70	1
143	144	2
85	121	2
42	69	3
76	77	1
29	30	7
130	130	5
4	4	11
79	79	5
20	24	2
92	96	1
102	103	7
15	20	2
4	5	3
96	96	2
85	88	3
19	48	1
16	17	1
126	135	1
53	53	5
73	113	4
12	13	2
35	151	3
118	118	4
17	17	9
20	20	7
72	72	4
129	134	1
67	68	4
57	57	2
5	74	2
21	22	2
86	93	2
104	143	3
24	24	3
26	29	3
31	31	8
17	20	3
70	70	7
119	119	4
32	34	3
14	15	1
28	28	1
152	152	5
18	18	6
31	32	1
48	55	1
32	32	10
97	141	3
41	41	1
137	139	2
104	118	2
140	145	2
83	83	4
69	71	4
98	98	2
52	109	4
14	16	4
75	75	4
88	89	2
54	54	4
109	114	1
106	106	5
13	13	1
150	151	3
55	56	5
67	67	7
39	40	4
134	136	3
22	28	3
40	40	7
99	100	2
94	94	3
37	38	7
88	135	1
69	72	2
128	128	3
132	133	2
122	143	1
23	24	1
34	35	7
12	14	3
5	5	6
4	126	1
33	38	1
94	136	3
141	141	5
126	127	2
146	154	3
99	135	2
48	64	2
145	145	3
73	74	3
17	18	3
34	37	2
110	111	2
140	141	1
46	46	8
126	128	2
31	37	1
150	150	4
26	26	2
109	109	8
11	57	3
144	144	1
8	48	5
113	113	1
62	64	1
50	66	1
50	50	2
115	116	1
80	81	2
115	115	4
7	26	1
90	117	2
120	144	9
153	153	6
108	118	1
10	10	4
34	36	1
85	85	6
28	30	5
69	70	5
42	44	2
72	79	1
124	127	1
48	51	2
42	42	4
80	80	3
43	44	1
68	68	2
103	103	4
72	73	4
94	95	3
51	52	1
21	21	4
106	107	1
9	10	2
52	68	1
66	66	9
131	132	4
80	84	3
33	33	3
11	11	1
18	80	2
51	51	4
11	13	2
96	142	3
139	143	2
6	6	3
105	106	2
98	123	4
131	131	2
35	38	2
9	54	2
97	98	5
11	22	1
149	149	4
33	34	2
26	31	4
118	119	1
72	74	2
124	126	1
6	151	1
35	36	1
37	37	3
68	73	3
42	45	1
119	144	3
104	104	3
17	77	2
71	71	2
76	76	7
12	12	3
64	66	1
15	16	3
84	86	1
131	133	3
44	44	6
143	143	1
50	76	1
97	97	3
105	107	1
116	116	4
94	133	6
38	39	3
48	49	2
151	152	4
88	92	2
82	84	2
69	73	1
22	23	2
15	15	2
71	76	1
58	58	2
20	25	3
54	71	1
94	132	1
69	69	1
129	130	3
95	99	1
101	105	1
102	102	4
30	30	4
49	50	1
94	140	1
13	41	2
83	84	1
23	23	4
145	146	2
125	126	1
118	120	1
23	26	1
93	94	1
25	25	1
25	27	1
95	95	1
112	113	4
25	38	2
39	46	1
109	110	2
39	39	1
120	121	1
47	49	2
30	150	1
99	99	4
61	77	2
42	43	1
65	65	6
61	65	1
18	20	1
65	138	1
85	89	2
99	141	3
95	142	2
78	79	1
79	92	2
133	133	2
94	144	1
12	52	1
123	130	1
75	132	1
80	87	1
12	15	1
45	46	1
42	47	3
36	36	2
4	75	2
23	154	1
28	29	2
20	21	1
86	86	3
77	105	1
94	139	2
95	143	1
140	140	2
120	146	4
100	102	1
21	25	2
102	107	1
53	54	2
123	144	1
43	55	1
80	83	1
8	9	1
11	65	2
73	78	1
88	88	3
47	47	1
117	118	1
38	38	3
3	4	1
13	88	2
76	85	1
18	35	2
142	142	2
77	78	1
64	64	1
61	61	3
83	88	1
108	109	1
66	75	1
112	144	2
29	51	1
69	76	1
124	143	1
27	27	1
92	92	2
97	124	1
123	123	1
110	132	1
116	121	1
30	31	1
137	143	3
11	12	1
54	57	1
67	136	1
8	146	1
129	129	1
14	82	2
73	73	1
50	53	1
82	88	1
14	14	1
82	83	1
85	86	1
58	67	1
