18	20	2
20	53	2
126	126	4
33	34	3
46	47	2
131	131	8
59	62	4
14	14	10
82	83	2
1	1	2
28	31	2
77	77	1
70	70	5
85	85	6
48	48	5
56	80	3
130	131	2
95	96	3
118	119	5
71	72	1
76	76	6
59	60	2
39	39	7
131	132	3
28	28	10
61	61	8
73	73	9
2	2	4
117	130	1
98	98	2
65	65	11
111	111	3
72	72	2
119	119	5
96	97	2
21	21	8
12	12	7
31	91	1
24	25	2
114	117	5
97	97	4
51	51	3
106	106	4
114	114	7
6	6	3
9	50	3
22	22	8
19	19	5
67	67	5
90	90	3
126	127	1
64	64	3
94	94	4
79	80	1
45	46	6
52	52	4
95	95	2
49	49	3
89	93	3
129	129	3
0	0	2
91	91	3
25	26	1
31	31	3
109	113	1
83	83	1
23	24	1
43	47	5
18	21	2
56	56	7
40	40	4
104	107	1
67	68	4
130	130	9
81	82	2
4	5	2
104	112	1
110	110	3
124	124	5
100	100	1
106	111	3
40	41	4
50	50	8
127	127	3
26	26	3
47	47	5
20	28	1
105	105	7
80	82	1
110	111	5
46	46	1
13	14	2
30	30	3
60	60	2
42	42	1
89	89	2
71	71	1
77	78	2
101	103	2
96	124	1
115	116	2
86	86	2
55	56	3
39	47	3
75	77	4
56	85	1
108	109	1
12	24	3
45	47	3
29	29	3
27	27	5
7	7	2
81	83	1
50	51	1
13	45	1
5	11	1
69	69	3
56	57	2
54	54	1
63	66	3
56	72	2
86	87	2
53	53	2
3	3	2
41	41	2
2	9	1
112	113	1
128	129	4
44	44	2
75	75	1
128	128	3
123	123	6
33	33	2
63	67	1
105	120	2
45	45	1
25	25	3
72	75	1
104	105	4
54	56	3
8	11	1
19	21	1
88	91	2
101	102	4
63	65	1
32	32	3
18	18	4
16	16	5
66	66	1
116	116	4
10	11	2
112	112	2
84	103	2
101	125	1
133	133	1
57	57	6
68	68	2
55	55	5
84	86	1
97	98	3
46	60	1
11	12	3
28	29	1
94	95	2
103	103	3
5	6	2
15	15	6
91	94	3
7	9	2
123	124	1
70	89	1
109	110	1
58	58	2
117	125	2
10	10	1
43	43	5
78	78	1
63	63	1
81	81	1
84	84	3
44	46	2
10	13	2
8	12	2
29	30	1
109	112	1
101	114	1
29	31	1
101	101	2
11	21	1
63	97	2
102	102	2
58	59	1
52	120	1
49	50	2
96	96	5
4	14	2
64	69	3
41	42	3
42	44	2
7	44	1
6	85	1
101	107	1
107	107	2
90	91	1
109	109	1
91	92	4
9	9	1
108	108	1
26	27	1
32	71	1
2	131	1
63	99	2
107	109	1
24	33	1
105	106	2
94	96	2
13	13	4
0	131	1
6	7	1
65	70	1
125	125	1
121	121	1
115	115	1
13	15	1
8	14	1
114	119	2
69	71	1
18	19	1
110	124	1
6	31	1
54	55	1
37	37	1
132	132	1
129	130	2
70	71	1
41	59	1
52	56	2
99	99	1
122	122	1
19	29	1
92	92	1
13	20	1
52	53	1
102	107	1
