72	72	15
61	61	11
88	88	8
84	85	7
86	101	3
28	28	11
62	64	8
112	133	2
115	115	9
6	7	3
7	9	5
75	75	22
107	107	9
124	131	3
44	44	10
86	86	5
54	54	9
70	70	9
64	66	6
124	124	4
78	78	12
103	103	17
85	110	2
127	127	6
81	81	15
82	82	10
134	134	4
100	107	2
11	11	15
87	95	2
66	67	6
91	91	13
108	108	1
114	115	8
52	53	6
97	97	8
53	83	3
79	81	3
31	31	12
71	73	12
85	85	4
29	29	12
12	12	7
93	93	11
32	45	7
27	27	18
35	35	2
45	45	13
30	31	5
78	80	5
113	114	5
2	2	7
6	8	5
55	55	9
77	77	14
50	50	4
70	85	4
114	114	7
130	132	2
99	99	16
100	100	7
119	119	6
63	63	4
71	71	10
36	37	1
97	135	1
16	17	2
114	116	5
134	135	6
90	92	3
49	50	3
64	65	4
49	49	4
105	106	4
83	84	11
10	13	1
118	118	12
129	130	4
33	34	2
51	51	5
128	128	3
53	53	12
34	34	15
93	96	2
119	123	2
97	99	2
106	106	4
76	76	21
79	79	6
77	81	2
26	26	2
14	15	6
111	111	6
129	129	10
15	15	4
95	95	6
77	80	1
133	133	4
122	122	13
87	87	7
75	89	1
109	119	3
112	113	4
82	83	2
3	3	4
116	117	7
48	48	8
19	19	7
7	7	1
119	122	1
0	2	1
56	56	6
62	63	3
111	120	3
124	126	5
112	114	4
92	92	11
24	24	8
20	22	4
78	82	1
105	105	14
94	94	1
126	128	5
24	26	2
89	89	6
131	134	1
110	120	3
52	56	3
64	64	6
100	133	2
17	17	5
129	132	2
101	101	16
112	112	9
132	133	2
21	23	3
65	87	5
69	70	5
135	135	4
1	53	1
73	73	10
11	18	5
113	113	5
127	129	3
2	3	2
7	45	1
63	64	3
126	126	3
69	69	4
99	100	1
123	123	4
108	110	2
111	114	2
90	102	1
18	20	3
3	4	2
79	86	2
79	87	1
128	129	4
56	57	2
43	43	6
121	122	5
103	104	2
117	117	6
53	58	8
68	87	2
66	84	4
89	135	3
130	134	2
9	28	2
78	83	4
47	47	2
14	14	2
24	25	5
58	58	3
38	42	2
82	87	5
125	131	6
77	86	2
52	52	6
130	130	6
108	112	1
16	16	1
9	10	1
110	113	1
97	98	5
61	62	4
119	120	3
50	51	2
81	125	2
114	118	3
4	4	2
107	110	5
79	80	8
72	73	9
80	80	6
23	24	1
5	5	3
44	45	2
126	127	8
117	118	4
25	25	8
73	75	2
95	124	2
95	96	3
8	8	1
10	15	2
82	86	2
72	125	1
14	20	3
125	133	2
81	82	1
132	135	3
107	111	2
131	132	5
56	64	4
11	12	1
85	87	2
116	116	3
93	94	3
133	134	1
96	96	3
71	81	1
79	82	1
19	25	4
51	52	2
10	44	2
110	110	4
131	131	6
10	11	1
47	48	1
31	34	1
91	92	7
23	23	3
90	91	5
125	125	2
115	121	2
108	111	3
118	119	2
109	109	5
62	62	2
34	35	2
47	88	1
90	90	3
118	121	1
63	76	2
8	9	1
102	102	5
102	104	2
85	132	1
1	2	3
131	135	2
107	120	3
22	22	3
98	98	10
72	128	2
60	60	1
107	135	3
18	18	1
127	128	2
36	36	3
83	87	3
66	66	2
132	134	1
89	90	1
46	46	1
27	35	6
79	83	1
74	74	6
107	109	3
29	31	1
11	16	1
132	132	3
68	83	1
85	125	1
128	133	1
72	131	1
52	78	1
77	84	1
55	57	2
123	124	3
8	24	1
72	74	1
45	54	3
124	134	1
21	22	2
116	122	1
32	32	2
85	86	1
102	103	3
109	110	2
84	84	3
126	129	2
77	82	1
25	28	3
65	66	2
66	69	2
84	87	2
13	13	2
65	65	4
72	133	1
58	60	2
73	126	1
106	108	1
71	72	1
117	121	2
130	131	2
3	6	1
67	67	2
104	104	4
60	61	5
66	86	2
74	75	1
35	36	1
110	111	1
96	97	1
8	23	2
27	33	1
125	126	1
121	121	1
6	6	3
48	49	3
31	33	1
54	55	1
115	116	1
104	126	2
117	119	3
91	97	1
11	13	1
82	84	2
59	59	1
70	88	2
82	85	1
0	0	1
83	83	1
84	86	1
108	113	2
99	132	1
96	98	1
1	1	3
88	89	1
12	13	1
28	29	1
8	20	1
36	47	1
4	53	1
0	1	1
72	132	1
98	99	1
71	77	1
50	53	1
118	123	1
30	30	1
