97	97	16
96	96	5
103	103	11
65	65	8
107	108	5
29	56	6
45	45	4
61	61	6
79	79	6
103	105	4
49	49	5
37	37	9
99	99	4
80	80	3
39	39	4
78	79	3
103	104	4
47	47	5
78	78	3
73	107	5
58	58	5
89	91	2
57	57	7
82	82	7
76	78	3
73	75	2
34	35	1
101	101	12
73	73	18
96	97	6
30	34	2
86	88	2
29	29	4
43	43	12
77	96	1
75	75	2
74	75	6
24	32	2
87	89	1
55	55	6
79	94	4
68	68	10
89	89	3
48	48	4
68	69	6
78	86	1
47	49	4
50	50	3
47	48	3
46	47	1
77	77	11
33	33	5
22	22	7
46	46	10
94	94	9
114	114	6
108	108	2
87	88	3
36	36	4
76	76	2
59	60	1
79	101	3
105	105	4
27	27	7
67	67	6
111	113	2
113	113	6
108	109	1
39	40	3
101	102	4
73	74	2
62	62	4
75	100	2
104	106	3
62	81	1
84	84	2
102	103	4
51	51	6
110	111	1
47	92	3
58	107	1
71	73	1
77	78	3
32	32	3
109	109	7
61	62	1
64	67	2
81	81	5
57	59	4
98	98	7
25	25	2
97	105	5
62	63	2
83	83	11
27	28	4
61	112	1
56	56	9
34	34	2
30	30	5
111	111	5
80	81	1
41	42	3
25	53	2
85	86	4
92	92	1
80	95	1
91	91	4
37	39	3
60	60	3
36	85	2
74	99	1
41	41	2
31	31	1
19	66	3
70	107	5
107	107	1
102	102	4
76	77	1
59	59	3
74	74	5
58	105	2
53	65	2
62	105	1
21	27	3
20	21	4
101	103	2
52	73	2
73	76	2
33	53	4
42	42	7
22	53	1
69	69	3
61	107	1
52	63	1
100	100	7
72	77	2
71	75	3
44	44	1
48	50	1
61	81	1
87	90	4
48	65	1
60	61	1
71	99	3
111	114	1
30	101	3
47	62	1
95	95	3
82	89	2
93	96	2
85	87	3
38	38	1
77	101	3
88	88	4
58	61	6
28	30	4
76	91	3
78	85	2
66	66	4
70	70	5
76	97	2
62	64	5
112	112	5
61	97	1
87	87	2
104	105	1
26	26	3
64	64	2
54	58	5
101	110	4
104	104	2
103	106	2
100	101	1
55	56	1
96	106	2
83	85	2
19	33	1
20	20	2
90	91	2
58	73	1
28	39	1
65	71	1
91	108	1
95	106	1
53	59	3
72	107	1
53	53	3
93	93	1
105	107	2
38	39	1
60	110	1
91	95	1
32	35	2
64	71	1
60	103	1
113	114	2
33	34	1
71	71	4
78	82	1
40	40	2
89	95	1
52	52	2
77	98	1
27	102	1
20	47	1
72	72	1
20	28	1
44	52	1
30	60	1
105	106	1
19	46	1
24	25	1
