14	14	15
126	130	4
79	80	5
38	96	1
38	38	27
56	56	38
91	91	17
117	117	42
5	5	14
65	66	9
39	40	11
18	18	12
93	93	9
129	129	7
49	49	34
29	31	2
112	112	20
34	34	10
53	54	5
58	59	11
119	119	20
7	7	20
116	126	1
94	94	23
93	95	5
101	104	2
124	124	17
122	122	21
83	83	15
102	103	9
95	97	3
87	89	3
120	121	10
115	115	10
21	21	17
96	96	25
10	57	2
50	50	35
78	78	18
71	71	26
51	51	30
0	2	3
61	62	7
85	85	17
6	6	39
91	93	2
112	113	10
12	70	5
86	98	3
46	46	31
10	12	7
16	16	7
42	42	16
80	80	9
132	132	16
60	60	7
58	58	35
102	102	16
29	30	10
70	70	19
54	132	2
121	121	30
44	46	4
12	12	11
19	21	1
65	65	11
63	65	3
113	113	25
111	111	25
26	27	5
62	67	8
33	33	9
97	97	11
108	108	11
2	2	18
52	52	25
112	124	2
114	114	21
80	81	4
107	108	3
73	73	10
8	8	13
71	72	6
68	68	16
11	11	12
123	124	17
72	73	7
29	29	16
109	109	13
104	126	1
48	48	17
40	40	20
31	31	9
2	3	6
107	109	15
133	133	10
51	52	13
46	52	1
96	99	5
110	110	17
0	0	8
12	13	6
13	49	3
11	12	7
100	101	5
104	104	16
67	67	16
19	19	36
90	90	16
88	93	1
105	131	1
63	78	1
16	32	7
1	1	20
20	38	2
102	126	4
107	107	12
106	106	23
100	116	2
17	18	9
66	66	17
32	32	11
10	10	11
77	77	18
116	116	19
110	111	10
9	10	4
122	123	6
99	99	11
95	95	21
111	112	12
13	14	6
25	26	15
131	131	26
19	26	2
27	27	25
125	125	27
56	65	6
24	25	8
113	125	5
81	81	14
129	130	8
97	117	9
68	83	2
104	109	5
118	118	15
16	39	2
126	126	10
88	88	6
69	69	15
103	103	30
126	127	6
26	26	22
121	132	4
24	24	16
108	109	13
63	67	2
56	58	2
47	56	1
86	86	4
123	123	24
59	59	6
64	64	4
56	57	4
67	68	10
98	100	6
79	79	8
24	27	3
65	71	2
16	60	3
57	57	15
53	53	30
84	84	8
63	63	7
101	101	9
54	54	45
127	127	17
76	76	7
3	3	10
97	98	5
10	11	8
130	130	20
99	100	8
105	105	13
118	128	1
15	16	12
19	20	15
86	88	2
104	120	2
46	47	17
41	41	10
127	128	8
88	90	2
116	129	3
75	76	10
130	131	13
125	131	5
70	71	11
4	4	1
41	63	3
82	82	6
43	43	9
62	68	6
103	104	10
94	99	3
101	103	2
116	118	3
59	69	4
73	74	2
121	122	6
105	106	6
42	46	3
89	90	2
33	46	2
92	93	6
23	23	11
13	22	5
115	116	7
94	98	13
79	91	3
101	109	3
15	39	5
50	51	6
38	39	13
72	74	5
89	89	3
109	110	7
17	29	5
41	42	4
95	112	3
98	98	9
20	20	17
54	55	13
98	115	4
12	49	2
80	82	3
60	62	4
74	74	10
128	128	12
116	131	1
18	23	2
4	5	5
15	17	2
114	126	3
96	97	2
21	25	2
39	39	8
127	130	2
50	95	4
25	25	5
94	95	9
31	39	3
63	79	1
104	105	13
16	17	7
55	65	3
92	94	11
114	128	3
102	119	4
83	84	1
54	56	6
55	55	20
20	49	2
48	49	3
88	89	11
60	61	4
73	76	2
15	23	1
66	67	9
49	51	3
28	28	3
120	120	9
7	8	12
17	20	2
125	126	2
0	1	6
18	22	1
76	77	8
78	79	5
93	94	6
16	20	6
64	79	1
90	91	4
85	86	3
2	4	2
107	111	1
30	31	3
128	129	6
113	126	2
22	26	5
30	30	4
83	92	2
64	67	4
41	44	5
60	69	3
38	120	1
128	131	3
33	45	1
59	61	1
87	100	5
47	53	1
17	61	4
84	92	2
89	101	1
85	98	2
89	91	2
47	48	5
17	21	7
104	132	3
10	49	1
69	70	12
72	72	14
116	117	2
114	115	1
9	9	15
77	80	3
116	128	2
101	102	4
43	44	2
117	125	2
45	46	9
44	44	10
13	13	12
72	96	2
20	58	4
52	120	1
48	50	3
131	132	7
98	114	2
23	24	5
99	107	5
116	130	1
119	120	4
72	88	9
92	92	7
92	95	2
28	29	5
16	28	2
125	127	2
82	83	8
68	72	1
75	75	9
47	47	16
100	100	10
105	109	3
109	114	3
87	87	6
68	80	2
118	127	5
22	22	6
63	75	2
64	80	3
56	67	8
57	67	2
82	84	2
98	99	1
41	46	1
8	10	4
113	114	6
62	62	4
14	57	1
66	75	3
113	128	5
18	19	5
50	57	2
65	70	1
66	71	1
17	17	6
98	109	1
22	58	5
45	45	9
106	108	2
127	129	1
82	87	1
126	128	2
115	117	3
47	54	2
57	58	4
79	81	3
27	57	1
74	75	3
25	27	4
70	112	2
71	76	3
18	24	1
58	62	3
15	15	6
39	45	1
13	31	1
45	104	1
18	21	2
69	71	1
40	41	1
79	93	1
78	80	2
118	119	6
74	79	1
119	126	3
72	121	1
43	55	1
95	107	1
16	18	5
14	15	1
81	82	1
117	120	2
1	2	6
86	103	1
0	6	3
63	66	5
64	68	1
61	82	1
89	95	3
124	125	6
117	129	3
83	88	1
12	56	3
59	62	1
113	115	3
32	39	1
72	78	2
51	53	1
85	88	1
94	109	1
21	22	5
69	73	2
53	55	1
100	107	1
79	88	5
114	124	1
70	76	1
14	26	3
98	116	3
53	120	1
49	50	1
4	6	3
71	130	2
100	108	2
12	48	1
52	53	4
91	92	1
40	97	1
14	40	1
27	28	4
45	47	6
42	44	1
91	98	1
77	78	1
108	111	2
59	63	1
22	23	3
3	6	3
51	124	1
118	120	1
67	73	2
61	61	2
22	30	4
15	47	1
56	86	1
55	56	1
125	130	1
15	59	2
6	7	1
65	72	1
64	65	1
58	66	1
114	118	1
50	53	1
68	69	2
77	81	1
102	104	1
71	77	1
3	5	3
72	80	1
86	97	1
106	130	1
117	118	3
21	26	1
110	113	1
106	107	2
101	127	2
81	91	2
95	113	1
2	5	4
119	125	1
42	43	3
9	13	2
62	69	1
19	70	1
27	43	3
32	33	1
86	87	4
44	54	1
18	58	2
96	117	3
107	114	1
15	18	1
109	115	1
62	78	2
8	13	1
15	20	1
24	26	1
110	112	1
28	80	1
3	4	2
97	115	1
114	116	1
78	90	1
101	118	1
13	29	1
31	32	1
87	88	1
23	58	1
50	84	1
88	94	2
20	21	1
19	25	1
22	24	1
64	73	1
37	38	1
62	75	1
