97	97	7
35	35	3
96	96	9
104	104	6
23	23	10
62	62	16
90	90	6
70	70	17
95	97	5
56	56	14
100	100	18
27	27	8
98	98	9
82	98	4
101	101	8
38	39	8
40	40	20
89	89	8
73	73	22
31	32	6
89	90	5
50	51	3
74	74	8
96	97	10
62	63	8
71	71	5
53	53	12
63	63	8
66	67	6
46	46	2
85	86	1
31	31	9
27	28	4
50	50	8
66	66	5
102	103	5
20	21	5
58	101	1
79	81	4
88	89	2
78	79	3
30	30	9
80	81	10
69	69	15
61	61	9
92	92	2
91	91	11
43	43	7
82	82	7
22	22	11
47	48	2
79	79	2
67	67	21
52	62	1
103	103	5
44	91	1
88	88	3
51	52	1
84	84	3
98	99	5
32	33	5
52	53	7
67	69	1
55	56	5
78	78	20
49	49	12
21	22	4
100	103	1
100	101	3
87	87	7
51	51	6
26	32	3
58	58	7
55	55	6
23	35	5
25	25	5
85	93	1
22	24	3
71	72	7
65	65	4
44	45	1
60	61	3
91	92	7
57	58	1
64	64	5
81	81	7
48	49	7
51	62	3
84	88	1
52	52	8
25	26	7
105	105	3
97	98	5
54	55	3
34	34	10
72	72	4
43	45	2
41	41	1
67	76	8
63	68	1
77	79	2
59	59	12
49	52	1
42	42	7
50	52	3
48	48	4
64	65	1
24	24	6
80	80	2
75	75	6
93	93	3
25	27	3
104	105	1
52	54	1
95	98	3
84	99	2
100	102	2
70	73	3
77	77	2
70	72	1
68	69	11
58	59	3
70	74	3
32	32	7
61	62	5
57	57	8
56	101	1
73	75	1
69	70	4
76	76	5
26	26	6
59	60	1
68	75	2
22	23	2
102	102	10
45	45	4
86	87	3
95	95	5
37	41	1
92	102	3
43	44	1
67	68	4
69	73	2
29	29	3
39	39	6
57	59	2
106	106	3
81	84	1
99	99	7
85	85	5
95	99	1
57	66	1
86	86	3
58	62	3
39	49	1
83	83	2
74	105	3
54	54	10
38	38	4
60	66	1
76	77	1
21	21	4
84	93	2
95	96	1
53	54	2
34	35	2
74	77	5
75	77	2
37	37	3
37	52	1
90	97	1
34	36	2
29	36	1
60	60	3
46	49	2
65	66	4
89	91	1
29	30	2
77	78	4
65	67	3
85	99	1
101	102	4
87	88	5
33	34	3
68	101	1
24	31	1
36	37	1
68	100	1
33	36	1
26	30	2
69	100	1
83	84	1
94	94	2
60	101	1
74	75	1
50	55	1
102	104	2
82	84	1
92	93	1
77	105	1
30	45	1
82	83	1
39	40	2
90	93	1
63	64	1
25	32	1
68	99	1
67	99	1
39	64	1
45	48	1
40	42	1
72	73	1
81	107	1
20	22	1
96	106	1
50	56	1
