70	70	17
20	20	2
52	52	5
77	77	7
19	31	1
65	65	7
78	78	4
50	50	16
81	81	7
89	90	5
105	106	4
121	126	1
130	134	1
129	130	8
10	13	5
129	129	15
2	90	3
28	28	6
45	45	9
85	85	18
127	128	13
56	56	9
106	117	7
14	14	14
87	88	5
86	86	7
58	109	3
96	113	1
88	88	14
13	13	10
52	126	4
7	16	4
43	44	1
96	96	15
31	31	10
69	112	1
99	128	3
59	59	13
75	75	19
72	73	2
95	95	19
107	109	5
71	79	5
7	7	12
53	53	11
44	44	13
114	114	8
63	63	11
99	99	20
92	92	14
104	104	19
23	23	21
102	103	6
93	93	13
14	15	3
121	134	3
81	84	2
11	11	14
60	120	2
57	57	12
27	27	10
94	111	3
34	34	9
9	44	2
79	101	3
55	55	7
76	76	27
16	18	1
5	5	7
87	87	18
4	4	10
43	43	29
113	113	17
131	131	17
124	124	9
115	124	3
70	86	2
3	4	2
58	66	1
38	43	3
64	133	1
21	21	12
132	132	12
59	133	3
85	122	4
74	74	8
61	62	6
126	129	4
64	129	1
55	110	3
67	131	5
67	123	3
119	119	15
128	128	8
66	118	3
109	109	16
114	115	3
93	96	3
80	125	3
2	2	10
33	33	6
123	123	5
12	12	2
103	103	13
23	24	3
126	127	5
59	61	5
83	110	7
34	132	1
116	116	25
118	118	9
0	1	3
57	66	3
125	125	10
54	95	4
132	133	4
112	113	2
51	127	2
26	26	9
115	116	3
94	130	1
25	81	2
15	15	8
34	35	7
120	120	12
89	89	8
94	95	5
127	127	10
25	25	23
79	111	1
79	79	11
11	33	1
95	107	2
69	69	9
18	18	4
1	2	3
115	115	9
121	122	2
24	24	6
67	81	4
110	111	3
28	29	2
107	107	16
100	126	6
3	94	1
53	62	2
84	108	2
24	53	6
77	78	4
130	130	22
36	36	16
72	72	10
62	134	3
6	6	19
83	87	1
35	35	7
19	39	3
71	71	13
112	112	22
16	16	13
62	71	2
38	39	1
64	64	10
59	91	3
119	121	4
110	122	7
60	60	16
54	87	4
108	108	28
18	52	6
8	8	12
48	49	1
105	105	7
52	54	4
74	78	1
127	129	1
48	115	3
22	22	12
78	86	2
66	76	3
8	88	4
79	107	1
22	33	1
47	54	3
119	123	3
48	48	16
48	129	2
9	78	4
58	101	2
90	90	10
52	124	6
135	135	4
113	115	3
76	79	2
90	91	5
107	130	9
101	101	10
58	117	2
70	92	3
56	57	5
91	91	11
68	130	2
91	124	5
126	126	14
117	122	9
77	86	8
83	98	1
127	135	11
96	97	9
133	133	10
30	116	1
72	125	1
75	76	4
18	128	6
79	120	1
17	62	5
130	133	2
31	75	3
86	89	1
111	111	3
54	54	14
73	74	4
67	68	2
108	114	1
118	119	1
0	0	7
122	122	12
62	62	9
103	105	2
43	87	4
128	129	2
110	110	10
67	67	10
24	25	3
66	66	6
106	106	4
108	109	2
105	126	1
21	37	1
9	11	5
110	121	1
108	110	5
78	87	1
103	129	2
124	125	2
21	59	1
18	25	9
44	109	2
55	56	2
61	61	6
43	47	3
73	77	1
9	35	1
94	94	22
59	134	1
54	109	2
65	66	3
80	89	1
60	61	6
67	69	8
57	87	3
78	79	4
65	105	1
23	120	2
121	121	18
33	89	2
68	68	3
82	106	2
5	6	4
66	130	2
98	98	11
65	86	1
30	30	5
94	109	6
117	117	4
59	130	2
65	132	1
9	9	2
84	110	3
119	125	4
78	92	5
102	121	1
7	9	1
71	72	6
13	43	1
65	87	3
106	134	2
122	123	3
15	62	1
95	110	2
60	62	3
27	28	5
1	1	9
79	128	2
58	58	11
86	118	4
111	125	1
61	134	1
114	116	3
106	122	1
82	113	2
56	58	4
100	100	8
54	56	8
24	33	6
32	94	4
114	121	1
91	93	2
131	133	2
11	12	1
3	3	11
16	20	4
113	117	1
19	123	1
100	109	1
61	125	1
90	119	1
130	131	4
55	88	2
56	61	6
102	102	3
111	112	3
23	38	3
123	134	4
107	117	1
66	117	4
16	62	3
70	76	2
73	73	8
17	20	1
15	18	1
82	83	3
64	127	2
73	80	2
18	19	1
125	126	2
84	85	5
47	47	1
50	101	1
17	128	4
82	85	2
57	80	2
92	116	1
8	48	2
54	124	3
38	38	8
1	119	2
99	124	1
99	118	1
10	10	3
66	69	3
113	133	6
34	50	6
56	59	5
68	69	1
55	93	1
31	32	5
109	110	2
50	53	8
44	83	1
103	104	3
123	135	1
14	29	2
25	113	1
22	24	1
38	109	3
10	24	5
76	90	3
20	23	2
105	122	1
94	120	2
69	111	1
8	14	3
49	49	1
67	74	1
132	134	2
57	67	3
59	87	3
21	26	1
45	46	1
26	36	5
90	108	3
16	90	3
86	123	3
32	32	2
25	130	2
59	124	3
82	84	2
107	122	1
90	92	3
12	18	1
108	113	3
15	16	3
71	80	1
83	83	5
10	50	4
21	23	1
80	80	5
92	124	2
93	94	1
7	100	3
25	53	1
48	50	2
33	34	4
62	96	2
3	115	1
126	130	3
25	26	3
47	101	1
124	129	2
63	64	1
9	117	2
128	131	1
29	29	7
116	118	1
15	36	1
53	58	3
107	110	3
85	135	1
36	37	2
5	7	3
20	123	2
112	115	3
101	116	3
29	30	2
51	54	2
8	9	2
85	106	1
117	119	2
61	91	1
19	19	6
64	65	4
13	33	1
11	14	2
120	121	2
62	63	7
106	107	1
20	37	1
58	83	1
7	17	3
107	108	6
61	126	1
56	110	1
47	74	3
71	94	2
77	129	2
125	130	1
19	20	3
57	122	1
111	124	2
98	116	1
82	82	8
70	71	3
79	124	2
95	96	2
99	127	2
90	125	1
16	63	1
112	114	1
97	106	2
119	122	4
49	71	3
54	55	1
81	130	3
54	61	7
59	111	1
90	120	1
47	51	3
58	130	1
89	104	2
55	87	2
44	45	2
106	108	2
37	38	3
74	77	1
29	79	1
61	107	2
55	92	1
104	112	1
45	85	2
116	128	1
102	109	1
68	81	2
123	128	1
19	21	1
58	60	2
97	98	3
98	102	1
21	22	2
97	97	2
81	90	1
53	99	3
57	58	1
71	78	2
24	88	1
68	133	2
8	60	2
35	89	2
55	96	4
33	35	1
99	123	1
104	111	1
67	130	1
77	84	1
31	79	5
109	111	2
22	23	1
3	88	2
87	108	1
109	129	3
3	128	1
67	105	1
45	61	1
74	104	1
27	29	2
69	106	1
86	87	1
4	60	3
8	49	2
20	126	1
101	102	1
106	121	1
3	5	4
58	123	1
57	84	2
69	128	1
84	84	2
117	118	2
13	14	1
31	114	2
9	15	2
100	105	3
66	67	1
53	56	1
67	82	2
91	92	2
65	107	1
7	21	2
102	104	1
1	24	1
104	105	1
92	96	1
94	108	1
107	114	1
78	80	1
79	134	1
109	130	1
70	90	1
81	127	1
4	5	1
52	53	1
43	129	1
16	21	1
94	96	1
44	110	1
80	81	1
104	116	1
65	68	2
44	84	1
19	37	1
52	57	3
80	124	2
43	45	1
51	128	1
96	134	1
36	38	2
36	49	1
44	132	1
45	129	1
65	118	1
26	130	1
6	115	1
94	100	1
70	131	1
116	117	1
18	122	1
33	36	1
44	86	1
12	13	1
57	123	1
70	120	1
96	106	1
10	11	1
12	43	1
20	54	1
59	125	1
69	113	1
