146	147	1
178	178	2
171	173	1
121	129	3
141	142	4
43	43	8
11	11	7
148	148	9
15	15	3
113	113	4
63	63	1
171	178	1
140	140	11
33	33	4
118	118	4
111	111	7
56	56	1
130	130	4
145	145	2
182	183	4
186	186	1
14	14	14
36	37	2
7	7	4
185	185	5
52	52	8
23	23	2
121	121	4
148	149	2
130	131	3
20	20	7
3	105	2
113	114	1
49	49	1
103	103	2
130	134	1
168	169	5
18	18	2
24	24	9
188	188	8
22	22	3
72	88	1
41	184	2
142	142	7
39	39	4
17	18	4
30	30	6
4	4	5
189	189	5
27	27	3
194	194	5
45	45	5
134	134	3
127	127	7
16	16	7
16	33	1
58	59	2
15	16	1
169	186	1
18	22	1
0	0	1
191	191	4
194	195	2
35	170	4
10	10	4
141	141	6
172	174	1
158	158	6
187	188	3
17	17	5
39	41	2
151	151	8
169	169	2
2	5	2
128	128	7
37	66	2
114	114	4
197	197	1
132	132	6
74	76	3
162	163	3
180	180	8
153	153	5
179	179	5
132	133	3
185	186	6
39	42	1
67	68	1
133	159	3
196	196	7
68	68	10
48	49	1
110	110	4
112	113	1
44	45	3
161	168	3
72	72	1
138	138	1
40	41	5
9	9	4
20	21	2
72	78	1
193	193	6
121	128	3
41	41	6
53	53	3
37	39	2
26	27	2
13	13	2
185	192	1
17	37	1
176	177	1
150	151	2
34	34	1
116	116	4
11	13	6
111	112	2
170	171	3
173	174	1
18	21	3
8	8	2
118	119	2
170	170	4
171	171	2
191	193	4
101	101	1
26	26	6
58	58	3
123	124	1
12	12	2
134	135	4
3	5	1
152	152	4
46	46	4
76	76	4
170	172	1
144	146	2
5	5	2
183	184	1
29	29	2
88	90	1
10	12	2
183	183	3
89	89	4
63	72	3
74	75	1
0	1	2
17	19	3
54	54	1
135	136	1
179	180	3
160	160	1
166	166	3
175	175	2
173	173	3
137	137	1
119	131	4
144	145	1
35	142	1
59	94	1
122	123	2
47	48	1
108	111	1
171	172	3
123	123	3
146	146	3
159	160	2
133	133	5
149	171	1
6	7	1
80	81	3
149	149	1
114	148	1
120	122	1
113	185	1
47	47	2
18	23	1
136	136	1
97	97	2
23	52	1
166	167	2
59	59	3
120	120	2
149	150	2
195	195	2
44	46	1
161	161	3
168	168	5
113	186	1
38	50	2
44	44	3
107	107	1
184	184	3
16	32	2
189	190	1
167	167	4
38	38	1
82	82	1
122	122	3
96	97	1
176	176	3
137	138	3
19	19	2
132	173	4
1	3	2
163	163	3
45	46	1
47	195	1
101	102	1
184	185	2
99	99	2
125	125	2
182	182	3
12	13	1
192	192	1
139	139	1
172	172	2
109	109	4
80	80	3
135	135	2
63	65	2
155	155	2
2	3	2
160	167	4
141	148	1
57	58	1
84	84	1
36	36	1
175	177	3
86	86	2
110	111	1
114	115	1
5	187	2
181	181	1
115	116	1
105	105	1
4	181	2
73	79	1
13	14	2
9	12	1
120	121	3
71	72	1
154	154	1
157	157	2
37	37	1
25	25	1
29	34	1
21	21	2
108	116	1
147	147	1
79	79	1
169	178	1
42	42	1
112	114	1
104	110	3
98	179	1
24	25	1
128	185	1
168	170	1
160	161	1
77	79	2
5	8	1
54	55	2
168	180	1
174	174	1
103	112	1
51	52	1
165	167	2
131	135	1
102	102	1
6	6	1
43	44	1
133	134	1
100	100	1
13	52	1
165	166	1
148	172	1
69	69	1
109	111	2
147	148	1
55	55	1
139	140	2
16	17	1
150	150	1
163	186	1
159	169	1
187	187	1
5	24	1
56	57	1
62	71	1
31	31	1
178	179	1
168	186	1
73	75	1
85	86	1
7	8	1
55	56	1
