129	131	3
174	174	18
17	21	2
74	74	12
154	154	6
10	43	1
127	127	14
79	79	11
147	180	1
143	143	6
162	181	1
172	172	6
22	37	2
177	177	5
4	6	5
90	90	9
133	133	12
103	123	1
48	48	4
75	75	4
34	34	9
151	151	5
132	133	4
60	64	3
21	21	7
12	12	7
62	62	15
28	28	4
38	39	3
36	36	5
20	20	11
104	111	3
66	66	12
165	166	6
23	25	4
148	148	12
187	188	3
55	57	3
71	71	8
38	38	1
85	86	1
1	1	6
131	131	2
24	24	9
0	0	18
15	15	10
54	65	2
61	65	9
188	188	4
83	83	4
14	63	5
76	77	7
97	97	16
99	99	6
147	147	10
177	189	2
88	171	2
58	69	4
113	161	1
2	2	8
84	84	10
115	115	3
73	73	5
187	187	10
84	173	3
30	32	4
31	31	5
33	33	10
41	41	5
13	14	4
65	67	2
119	153	2
27	64	1
135	139	2
33	38	3
103	103	3
43	43	7
124	124	7
136	137	5
17	72	1
35	35	7
99	116	1
140	140	7
67	67	6
190	190	2
167	167	4
130	130	7
61	68	4
137	137	9
42	42	9
32	32	7
40	40	7
89	89	5
74	110	3
43	44	4
124	125	5
125	126	1
121	121	9
155	155	6
55	55	11
174	180	3
28	29	3
18	18	8
106	106	1
70	71	7
175	175	10
34	42	4
149	149	7
17	18	5
185	186	4
109	109	9
97	98	14
164	165	10
118	120	5
87	87	5
153	166	5
165	165	7
145	150	6
146	146	6
134	135	5
71	73	1
19	19	14
122	126	3
130	131	6
57	59	1
69	69	4
155	156	1
103	106	1
77	110	2
174	175	5
30	30	2
178	178	12
66	67	7
16	16	8
32	33	2
13	42	1
45	63	2
54	54	6
48	54	3
153	153	13
92	94	3
152	170	1
13	17	3
34	38	2
169	169	10
145	146	2
15	16	2
180	180	9
170	170	6
31	32	6
134	144	2
120	122	5
161	190	1
57	57	2
6	6	8
23	23	9
93	93	4
138	138	3
181	181	10
158	160	2
63	63	3
94	94	5
45	45	6
163	163	3
157	158	4
72	76	1
110	112	5
68	68	9
152	152	12
90	94	4
114	114	3
114	115	3
82	83	1
27	27	8
18	20	5
46	46	2
29	29	4
145	145	6
133	163	2
3	43	2
9	10	4
161	164	1
10	13	2
97	103	1
176	178	7
126	130	1
75	107	1
136	136	6
80	81	4
104	108	3
3	3	6
141	141	4
22	23	2
116	123	1
11	43	2
105	105	3
125	128	2
39	39	6
44	44	3
70	118	1
58	62	3
59	59	3
33	41	3
90	147	2
156	156	9
91	91	4
14	14	9
33	34	6
117	158	4
180	181	4
23	24	5
16	66	1
189	189	6
7	7	9
119	120	4
48	114	1
53	53	7
161	161	3
96	98	4
19	20	5
27	30	1
136	166	5
22	22	10
43	138	1
134	134	11
96	96	4
166	168	4
88	89	1
56	56	5
143	150	1
70	70	2
118	122	3
99	107	2
124	137	7
17	27	2
164	180	2
10	10	8
4	46	1
126	126	3
26	67	1
146	150	3
80	107	2
113	117	3
146	147	2
33	36	1
7	14	2
34	39	1
136	150	3
5	5	4
52	52	1
1	2	6
58	58	5
117	117	4
11	11	5
152	153	3
127	133	1
100	101	5
30	61	1
109	112	1
89	90	1
118	119	6
167	168	1
168	168	6
62	97	3
112	124	2
186	186	10
173	176	2
148	149	2
37	37	7
143	180	2
76	76	2
11	48	1
108	108	4
185	185	5
184	184	5
11	64	3
71	72	6
18	21	3
60	60	6
99	124	2
36	37	2
9	9	1
177	179	1
79	82	2
156	157	1
171	172	3
141	155	3
65	65	1
17	56	3
2	3	2
140	144	1
21	37	1
61	61	4
56	108	1
17	17	6
10	12	1
99	100	3
61	62	10
129	130	3
118	149	3
153	165	4
105	106	2
148	154	2
112	113	3
181	182	5
149	150	4
120	120	5
104	128	1
82	82	8
8	41	2
72	72	3
100	100	10
124	131	2
15	66	2
7	43	1
47	82	1
159	159	5
152	168	4
76	91	2
122	123	2
162	162	3
66	71	1
4	41	1
167	188	4
118	143	1
4	25	1
166	166	10
155	165	1
123	123	6
15	32	5
30	31	2
111	111	4
157	157	2
91	93	3
176	176	3
96	97	4
113	113	5
132	132	1
65	66	3
12	43	2
112	127	3
129	185	2
57	68	2
189	190	1
129	129	2
70	99	1
27	65	2
174	176	1
106	107	5
183	183	1
47	47	2
20	53	1
23	53	3
101	101	4
55	81	5
42	47	2
2	68	4
79	90	3
26	26	2
113	115	2
121	137	1
82	84	1
117	118	2
78	83	2
76	87	3
100	117	1
14	16	2
112	117	1
141	149	1
158	158	4
120	121	3
115	150	1
140	170	4
85	85	4
49	54	1
9	14	1
166	167	2
10	63	1
30	40	2
145	147	2
188	189	2
156	163	3
101	102	1
169	170	4
104	104	2
76	78	1
70	116	1
85	87	1
37	44	1
45	46	3
67	68	2
155	166	1
128	128	9
70	72	1
76	84	1
73	76	1
25	25	1
175	176	2
47	48	2
103	110	1
31	33	1
101	187	1
100	183	1
135	137	2
60	61	2
142	142	4
187	189	1
63	64	1
164	164	6
115	131	1
107	108	1
172	177	1
110	115	5
100	107	2
148	157	1
142	143	1
130	134	1
57	58	3
32	36	1
63	130	1
102	184	2
132	137	5
150	150	8
32	34	1
126	127	1
79	119	2
123	125	1
4	4	5
115	126	4
144	149	1
12	47	2
163	189	1
18	19	1
78	80	1
59	64	2
65	75	2
65	68	1
122	133	1
75	76	2
26	66	1
86	86	8
179	180	1
13	13	2
6	17	1
107	107	1
114	117	3
111	115	3
116	116	1
116	117	1
93	100	3
91	92	1
6	24	3
144	144	5
81	96	2
43	139	1
86	87	1
172	173	2
174	184	2
25	37	2
179	179	3
9	12	2
122	122	3
17	20	2
158	162	3
109	111	2
111	112	1
129	137	1
60	63	1
169	171	2
101	164	1
176	177	1
13	16	1
80	80	1
3	9	2
41	62	1
98	185	1
148	151	2
121	139	1
77	77	7
142	151	1
127	131	1
86	158	1
118	121	2
30	34	3
161	162	2
184	185	1
25	80	1
108	112	1
58	72	1
170	176	1
121	125	1
98	116	1
121	138	2
78	78	3
88	88	2
35	37	1
14	73	1
13	18	1
44	46	1
69	70	1
173	173	2
14	15	2
134	142	3
13	59	1
94	95	3
167	170	1
11	12	2
55	85	5
92	92	5
140	141	1
147	157	2
148	170	1
146	149	2
17	19	1
129	134	1
3	164	1
55	56	3
133	134	1
184	186	1
56	65	1
154	161	1
4	8	1
95	95	1
115	118	1
84	85	1
24	25	1
119	123	1
62	63	1
8	47	1
11	13	1
58	59	1
72	91	1
139	139	1
112	112	4
129	163	2
109	128	2
12	62	1
175	177	1
81	81	1
44	81	1
95	108	1
92	93	1
58	97	1
182	182	2
13	71	1
137	138	2
102	102	3
163	165	1
3	6	1
114	118	1
144	155	1
47	140	1
5	46	1
164	168	2
78	79	1
180	189	1
58	71	1
68	78	1
7	8	2
95	98	2
4	7	1
88	160	1
62	130	3
120	138	1
23	46	1
117	119	1
154	174	2
49	49	1
117	147	3
71	118	1
62	70	1
54	66	2
33	35	1
38	47	1
5	25	1
110	111	1
134	137	2
85	93	1
104	107	1
134	152	1
35	36	1
28	40	1
12	13	3
58	61	2
16	17	1
10	11	1
133	136	1
7	30	1
16	85	1
147	158	1
111	116	1
162	175	1
98	98	1
138	155	1
47	94	1
163	164	1
121	183	1
100	112	2
10	44	1
8	8	1
151	156	1
160	160	1
144	176	1
107	109	1
56	59	1
121	122	1
15	23	1
104	106	1
59	63	1
17	23	1
111	118	1
10	16	1
44	45	1
102	152	1
169	177	1
21	58	1
173	174	1
128	130	1
118	118	1
5	24	1
