31	32	6
127	127	15
66	66	9
122	125	1
87	87	8
80	80	11
129	129	6
116	116	10
129	130	4
1	2	6
69	69	8
108	108	19
97	97	2
115	116	5
122	122	14
126	126	6
55	55	10
127	128	1
3	5	5
115	120	6
79	79	14
64	64	21
12	13	3
123	124	4
86	86	8
127	129	4
105	107	1
89	89	10
111	114	1
70	70	9
122	123	10
105	106	8
77	77	10
88	88	8
111	111	20
73	75	2
30	70	3
109	109	13
97	107	1
125	125	9
130	130	8
64	65	9
74	74	9
128	128	3
100	101	1
83	86	7
121	122	4
56	57	5
121	121	14
26	26	5
66	67	1
58	58	14
37	37	2
114	114	5
119	119	21
99	99	14
63	64	4
78	78	8
101	101	5
116	120	4
63	63	4
93	93	10
91	92	2
105	112	5
126	127	6
36	36	4
5	6	2
43	43	5
75	75	15
69	70	8
83	83	12
62	64	4
115	117	2
17	17	1
70	71	2
42	42	4
50	50	9
84	86	6
52	54	3
62	62	7
56	56	2
61	61	8
99	100	5
117	117	9
113	113	5
112	112	8
68	68	5
104	104	15
118	118	13
75	76	2
120	120	10
122	124	4
110	110	4
53	53	2
132	134	2
57	58	5
99	102	2
51	52	2
65	66	5
85	87	3
111	118	3
84	85	8
45	45	5
112	113	4
134	135	2
105	105	5
27	28	2
106	109	2
7	25	3
104	105	5
100	100	4
116	124	3
47	47	8
103	104	5
109	111	3
89	91	2
34	34	2
106	108	4
71	71	19
55	56	5
91	93	4
60	60	4
44	44	5
60	66	1
79	80	14
34	35	1
67	68	9
3	3	10
57	60	1
96	97	5
19	20	2
90	90	7
118	119	1
58	62	4
134	134	7
124	124	13
84	84	6
74	96	3
110	112	6
31	33	5
117	118	7
107	110	2
47	50	2
10	10	8
45	69	1
26	27	2
105	111	1
103	116	3
5	5	6
11	17	1
24	24	5
98	98	6
110	113	5
14	14	8
78	79	1
74	95	3
6	6	7
97	98	2
35	35	5
22	23	3
112	114	4
20	20	5
106	116	1
21	21	5
113	115	2
101	105	4
42	43	3
73	73	7
59	59	4
28	34	1
96	96	4
119	121	4
123	125	4
0	0	3
37	38	3
57	57	3
45	47	2
78	80	2
50	68	1
13	18	1
90	91	3
12	12	2
82	83	4
124	125	3
72	73	2
92	93	3
54	54	6
52	52	16
53	56	1
89	112	2
6	8	2
91	91	5
107	108	4
76	76	7
103	103	8
116	117	2
30	35	1
106	106	6
71	72	6
107	107	6
85	85	6
92	92	5
5	13	7
126	128	4
18	18	4
23	23	5
86	100	3
133	133	4
57	59	1
48	69	2
8	8	7
63	67	2
121	123	6
117	124	4
10	11	3
95	97	1
77	79	1
82	82	5
133	134	1
51	70	1
81	81	1
31	34	1
9	9	2
93	94	3
1	1	2
27	29	2
81	82	3
3	4	4
132	133	3
62	63	2
54	55	4
98	99	3
94	94	3
43	44	1
27	27	1
98	109	1
102	102	4
104	108	4
108	109	4
60	61	4
73	74	4
25	25	1
52	53	2
105	116	1
67	67	5
126	130	1
115	118	5
65	65	7
124	133	2
124	132	4
72	72	8
102	103	2
33	33	3
107	113	1
64	76	2
102	114	1
113	114	2
127	130	1
131	132	2
132	132	6
32	33	1
87	88	3
115	121	2
60	122	2
49	49	1
113	118	1
31	31	3
49	50	4
80	100	3
124	126	3
44	45	1
1	4	1
117	120	1
74	92	2
15	15	2
66	68	2
16	16	2
68	69	2
81	100	2
125	126	1
123	123	4
11	11	4
7	7	1
50	52	1
85	114	1
89	90	2
59	61	1
25	36	1
111	112	1
92	94	1
58	59	1
78	100	1
28	28	4
128	129	2
119	120	3
9	10	1
55	58	1
111	115	1
95	95	1
120	121	2
46	46	1
108	113	1
102	104	2
9	13	1
38	38	2
8	37	1
77	131	2
95	96	1
10	37	1
101	102	1
48	48	1
107	109	2
78	86	2
110	111	1
71	73	1
30	30	1
131	131	2
64	66	1
126	129	1
114	115	1
84	100	1
13	13	1
66	77	1
66	70	1
79	81	1
45	49	1
8	9	1
14	19	1
54	57	1
