117	117	26
34	34	18
166	166	12
23	23	21
140	140	11
18	19	16
36	37	13
151	151	17
131	131	11
122	122	20
132	133	8
50	50	21
25	25	8
38	38	17
39	39	25
17	17	11
38	39	5
146	146	4
55	55	14
42	42	25
15	15	48
165	165	16
12	12	14
62	62	5
30	30	22
55	56	12
46	47	6
16	16	11
44	44	19
192	193	4
86	86	1
193	194	11
187	188	22
179	180	14
181	181	14
106	106	13
127	129	2
24	24	9
42	43	8
172	172	27
68	68	15
103	118	5
8	9	6
133	134	6
182	182	21
45	71	6
174	175	5
140	141	6
81	83	3
136	137	8
195	195	27
13	13	16
148	148	11
134	134	11
159	159	18
171	171	14
187	187	18
155	155	14
87	87	9
173	174	13
26	26	15
5	5	22
105	105	7
119	119	19
149	149	24
65	66	3
42	44	8
54	54	30
158	159	17
127	128	9
41	42	7
19	22	3
165	166	6
3	3	17
11	12	7
162	166	5
101	101	6
167	167	18
4	39	9
168	170	4
58	58	14
143	143	18
146	148	9
194	195	4
39	40	8
190	190	7
185	185	6
163	165	4
29	35	2
34	35	9
52	52	20
106	107	4
188	188	11
39	44	2
49	49	17
118	118	9
150	150	18
103	103	18
34	57	1
48	49	7
163	164	13
153	192	4
43	43	15
114	114	13
88	90	2
184	184	17
116	116	5
171	172	16
57	58	25
104	105	4
176	177	9
164	164	14
182	183	6
132	132	18
126	126	14
77	77	6
138	138	22
18	18	7
56	62	5
47	47	10
161	161	12
102	102	9
20	22	5
177	177	16
196	196	36
62	72	5
175	175	9
48	48	12
127	127	14
4	5	12
9	9	26
154	155	2
180	182	4
131	168	4
144	145	11
100	101	3
128	128	16
123	123	21
25	27	7
30	31	13
4	4	10
70	70	11
9	10	1
178	178	17
24	29	5
53	55	6
37	37	19
82	83	3
93	96	5
7	7	18
87	136	4
152	152	14
122	129	6
100	120	2
72	72	3
14	14	12
119	145	3
149	150	3
24	26	3
57	57	16
110	110	15
40	41	6
99	100	2
162	164	1
153	155	2
111	111	32
54	55	7
103	104	7
124	135	1
109	109	9
69	69	16
22	23	4
170	170	21
41	41	9
10	10	33
135	135	14
150	151	4
67	67	7
55	57	1
33	37	3
180	181	7
133	133	29
129	129	16
193	193	6
121	121	17
183	183	30
194	194	20
56	56	11
6	6	7
100	154	2
141	141	11
93	95	6
137	143	3
157	157	13
45	45	17
171	176	3
53	53	15
113	113	16
49	50	1
191	191	9
99	99	24
195	196	1
128	140	1
84	84	9
140	143	2
38	42	5
10	71	5
177	178	12
191	192	5
158	158	14
188	189	6
83	83	7
117	118	3
189	189	9
35	35	16
145	145	10
169	169	18
132	139	4
1	1	10
156	156	15
101	122	3
25	33	3
37	41	2
0	0	6
153	153	6
173	173	29
176	176	6
8	8	5
119	120	6
136	136	13
180	180	11
22	22	5
2	2	13
99	170	2
179	179	12
51	52	7
113	116	2
156	157	4
11	11	24
5	13	2
32	32	8
140	142	1
10	11	7
170	176	4
31	31	13
13	14	3
51	51	20
153	154	5
154	154	7
135	136	13
94	94	5
31	57	2
104	107	1
152	153	10
150	152	2
125	125	5
29	29	6
20	20	4
148	149	4
139	139	9
59	61	7
107	108	3
56	61	1
108	109	1
184	185	8
157	158	11
5	6	6
33	41	2
159	160	1
115	115	8
78	78	2
186	186	11
124	136	3
123	124	1
98	98	4
5	39	3
64	64	18
178	179	4
46	46	8
160	169	3
27	27	4
107	107	6
63	63	2
62	63	4
167	169	12
118	133	2
119	123	4
14	15	11
66	66	8
196	197	2
59	85	1
46	142	1
58	62	1
146	177	4
33	34	2
57	62	2
47	48	4
148	154	3
85	85	4
45	46	8
125	144	2
115	124	3
94	96	3
128	129	3
31	32	2
3	16	2
125	128	4
112	112	9
114	142	3
10	13	6
97	98	3
10	45	2
134	137	6
124	124	14
126	127	5
44	45	5
178	180	4
144	144	5
105	108	1
54	57	6
129	130	2
170	171	9
169	170	9
174	174	6
161	162	3
97	97	17
170	172	3
19	20	2
110	111	4
8	39	3
63	64	2
0	3	3
74	76	1
151	152	5
19	19	4
163	163	6
160	161	4
7	8	5
63	66	7
147	147	16
183	184	4
37	152	2
160	160	15
134	141	2
159	184	1
120	120	9
43	44	6
71	71	6
23	24	3
101	105	1
192	194	2
36	61	3
141	142	8
168	169	13
67	68	5
112	113	2
104	115	1
142	143	5
37	69	7
124	129	2
86	87	2
166	167	6
63	68	4
94	95	1
145	172	1
24	34	3
173	181	1
94	152	5
103	107	4
121	129	5
21	21	8
36	36	18
147	176	3
140	169	1
82	82	2
12	14	4
121	123	4
4	14	2
116	117	8
131	144	1
168	168	7
162	162	3
138	139	5
58	66	2
5	7	1
172	174	4
111	112	6
173	176	4
197	197	5
35	36	4
33	33	2
53	54	12
138	142	2
27	29	5
60	61	2
175	177	1
10	14	3
142	142	15
187	192	2
5	9	1
190	192	2
96	96	7
109	111	2
14	16	1
132	134	2
173	175	3
0	6	3
102	103	1
121	130	2
173	182	1
181	182	7
30	33	1
71	72	2
162	163	2
27	28	10
30	57	3
146	149	1
84	85	1
82	84	1
155	156	2
137	139	3
100	100	5
47	49	1
119	124	1
26	28	1
170	174	1
0	1	1
71	73	4
186	187	3
150	179	1
32	33	5
15	23	5
118	119	1
20	21	2
37	42	2
109	113	3
29	30	4
14	31	4
112	119	1
15	32	1
29	169	2
52	53	4
59	60	2
56	69	2
156	183	2
99	172	3
175	182	2
14	70	3
0	14	1
174	177	2
150	155	1
10	12	3
113	124	1
130	144	5
147	148	3
104	104	1
130	131	2
142	169	2
171	185	4
89	90	4
54	56	2
76	77	2
6	7	3
137	137	5
169	171	2
7	40	2
130	132	5
115	119	2
16	24	3
105	107	1
76	79	1
17	18	3
4	23	2
19	26	1
29	52	1
27	164	1
192	192	9
170	184	2
80	80	2
73	73	2
149	177	2
109	110	3
156	159	1
179	181	2
105	106	5
21	61	1
124	125	2
81	81	4
60	60	1
4	8	2
75	75	3
98	106	4
168	172	2
15	33	2
134	138	4
49	52	1
40	40	3
100	119	1
148	150	1
190	191	4
116	144	1
136	149	1
120	123	1
90	90	2
143	145	1
120	121	6
43	45	1
25	34	3
4	9	1
64	65	3
163	182	2
43	196	1
2	3	2
74	75	1
160	183	1
79	79	3
14	32	3
179	182	1
125	126	3
136	143	2
23	25	1
2	26	1
99	149	2
129	131	1
189	190	2
55	59	2
58	59	2
97	171	1
27	160	1
121	122	1
7	39	1
141	172	1
3	4	1
134	135	2
25	26	2
176	178	2
78	79	2
174	176	1
108	108	5
185	186	1
93	152	1
70	71	1
99	169	1
98	100	1
24	27	2
98	99	1
131	132	2
93	94	1
64	68	1
77	78	1
147	167	5
106	115	2
177	184	1
85	86	2
58	83	4
88	88	1
9	42	1
101	120	1
134	147	1
76	76	1
76	82	2
108	115	2
164	171	1
159	181	1
151	153	1
185	187	2
177	180	1
125	142	1
118	124	1
130	142	2
169	176	1
37	38	1
130	130	2
132	138	1
137	140	1
3	157	1
74	74	2
52	182	1
168	179	1
133	140	1
194	197	2
4	197	1
15	16	1
152	158	1
139	140	1
23	31	2
10	43	1
25	35	1
142	149	1
125	145	1
188	193	1
15	37	1
11	99	2
155	182	1
40	42	1
36	55	1
12	13	1
59	59	1
124	145	1
151	193	1
