36	183	5
209	209	12
242	242	12
213	215	3
202	202	11
40	40	9
204	205	6
170	171	1
67	68	5
33	33	12
157	171	1
237	237	7
83	83	3
176	176	9
110	111	3
16	16	9
4	234	1
36	36	5
9	26	3
26	26	12
235	235	7
94	94	10
60	61	2
46	46	20
183	184	7
44	44	3
113	113	7
111	111	3
56	56	3
14	14	8
158	158	2
76	85	1
65	66	4
212	212	12
91	91	7
23	23	13
13	13	5
30	204	3
193	193	5
199	199	1
157	157	8
43	43	8
161	167	2
214	215	2
169	170	8
197	197	6
181	181	17
74	74	10
82	82	3
211	211	6
196	196	9
37	37	5
171	171	8
67	180	1
93	93	1
159	159	12
245	246	2
57	58	6
71	71	6
95	95	11
215	215	3
196	197	12
228	228	7
199	222	2
8	17	3
111	245	2
230	230	6
163	164	2
119	119	8
36	48	1
55	55	7
184	184	5
70	70	1
238	240	5
172	174	2
186	186	22
61	61	3
64	64	5
219	219	4
30	37	1
166	166	4
73	73	16
85	85	9
169	169	4
84	85	5
33	68	3
24	24	6
69	181	2
17	17	3
69	70	1
19	19	2
63	63	11
157	181	1
58	61	1
42	42	6
220	220	4
10	10	6
75	75	4
39	39	9
30	30	6
18	203	2
71	72	3
114	114	6
80	86	1
9	20	3
221	221	9
245	245	12
248	248	8
179	180	5
115	115	2
78	85	1
246	246	4
236	236	16
179	179	7
107	108	6
196	209	3
158	166	5
45	59	3
80	80	5
151	151	10
75	78	4
189	189	4
157	158	4
69	69	10
120	120	9
88	89	4
81	81	4
37	38	4
100	100	8
247	247	8
76	76	9
241	245	4
89	89	9
45	206	3
227	227	6
240	241	6
49	60	1
164	164	9
244	244	4
70	71	1
108	108	3
162	162	11
97	97	12
108	109	3
15	16	6
184	196	1
102	102	5
11	16	5
223	223	7
184	193	1
106	106	5
73	76	3
49	49	5
226	231	3
92	92	8
152	152	6
213	213	9
50	62	4
78	78	4
156	156	11
112	112	3
164	169	2
234	234	10
18	18	9
84	86	3
203	203	10
58	58	5
113	247	1
4	5	4
165	165	10
240	240	8
197	211	1
209	211	2
222	223	2
101	102	4
23	56	4
8	8	6
175	175	5
185	198	1
206	207	3
25	220	3
114	116	2
21	21	8
79	79	9
29	31	2
59	60	3
160	164	5
177	188	5
86	89	2
190	190	4
107	107	10
207	207	10
43	87	4
209	210	2
194	194	7
109	109	7
143	147	3
226	227	3
8	50	1
73	75	2
201	201	6
14	159	2
115	119	2
96	97	3
211	248	1
161	161	4
54	54	10
99	99	5
35	36	2
171	172	4
56	62	2
212	214	1
241	241	9
73	74	3
233	234	2
66	66	7
173	180	1
222	222	6
238	238	7
90	90	11
198	198	5
115	155	3
101	101	5
163	165	4
200	200	8
62	62	8
67	67	2
185	186	5
26	27	4
178	186	2
232	232	3
208	208	8
25	25	6
168	170	1
226	226	4
80	81	3
20	20	1
248	249	4
242	243	3
181	202	1
199	200	3
15	15	3
178	178	2
40	41	1
106	108	1
59	59	8
10	11	2
64	67	2
155	155	7
199	211	2
18	30	2
216	236	4
64	65	6
45	204	1
154	155	2
160	170	2
79	90	2
168	168	6
5	5	7
32	32	7
2	2	4
80	96	2
186	188	2
34	158	2
191	191	4
22	56	2
46	205	4
159	160	1
167	167	5
181	189	4
217	217	5
158	159	3
170	170	4
225	225	3
172	172	6
167	169	2
81	83	5
144	146	1
185	193	3
172	192	1
205	206	2
34	180	2
205	205	5
22	22	3
231	231	3
38	40	2
118	241	4
48	65	2
199	215	3
118	172	3
208	209	2
74	102	1
165	166	1
213	214	3
68	68	5
51	52	2
115	152	2
239	239	4
52	53	1
149	151	4
193	210	4
229	232	1
150	150	7
28	28	4
170	176	1
79	108	1
152	153	2
74	75	5
38	39	2
51	55	3
177	190	1
50	50	5
38	38	5
224	224	4
17	46	3
177	177	7
178	202	1
182	185	2
55	63	1
153	153	2
4	4	5
218	237	2
96	96	4
197	202	2
183	183	5
79	86	1
60	60	8
90	91	3
160	242	1
57	57	4
226	229	1
182	182	4
48	48	4
236	243	2
229	229	4
186	187	4
208	217	1
27	46	1
41	42	4
9	28	1
152	163	1
33	183	1
191	192	6
87	88	3
103	104	1
1	1	2
10	56	2
73	77	3
243	243	4
79	91	1
28	51	2
45	45	8
41	41	4
161	178	2
110	110	5
71	77	3
114	117	1
188	188	5
43	149	1
51	51	5
38	110	1
61	62	4
115	116	4
116	116	7
50	61	1
72	99	2
195	211	4
181	190	1
104	104	14
112	206	1
150	154	1
36	237	2
200	201	1
165	167	3
7	8	1
163	163	2
51	205	1
98	98	6
187	191	1
80	82	1
181	182	3
98	99	3
214	218	2
108	145	3
192	192	8
195	196	3
213	216	2
47	47	4
48	49	3
103	103	1
211	212	1
29	30	2
207	208	2
65	65	2
163	198	1
36	37	1
233	233	2
227	228	1
195	195	4
46	223	4
76	86	1
182	187	1
226	230	1
155	156	1
172	184	1
208	214	2
58	157	1
180	181	2
9	40	2
30	31	1
63	172	1
32	40	1
184	185	2
52	52	2
213	241	1
117	117	5
3	3	6
217	239	2
35	185	2
199	247	3
72	72	4
164	165	1
185	207	2
62	71	2
113	114	2
176	177	5
77	77	2
238	241	1
161	194	1
201	202	1
88	88	1
191	235	1
67	182	1
238	239	5
176	184	2
40	116	1
46	54	2
4	232	1
68	95	1
164	190	3
86	87	3
195	210	1
210	211	2
211	247	2
75	77	1
12	12	4
1	7	2
39	40	2
87	89	1
180	180	3
228	229	1
118	119	1
165	213	1
16	22	2
203	223	1
9	10	1
156	178	1
79	80	2
69	96	2
92	109	1
72	74	2
214	214	9
66	69	1
160	160	4
86	86	3
206	206	1
95	152	2
29	29	5
225	226	2
99	103	1
97	98	1
64	97	1
93	94	4
40	235	1
35	72	2
84	84	3
204	204	5
56	57	3
9	54	1
27	157	1
163	200	1
72	73	1
154	154	1
55	56	1
76	77	4
50	220	1
25	47	1
105	105	3
5	14	1
53	56	1
189	190	3
200	248	1
20	42	1
188	190	3
219	220	1
198	211	1
184	238	1
27	27	2
241	248	1
12	62	2
181	223	1
174	174	2
186	193	1
62	104	1
53	54	5
105	106	2
118	118	3
180	182	2
177	181	1
42	245	1
41	116	1
28	40	1
87	87	9
35	35	3
6	33	1
31	41	1
87	153	1
206	209	3
202	203	1
162	164	1
7	49	1
219	222	1
75	88	1
194	195	1
211	213	1
213	236	1
76	80	1
110	114	1
218	220	1
9	9	2
11	11	2
175	176	1
247	248	2
236	237	1
208	211	1
26	155	1
111	118	2
34	103	2
74	103	3
242	244	1
234	235	3
36	50	1
33	35	2
31	31	1
171	190	1
45	205	1
104	105	2
22	46	1
187	187	5
197	198	2
39	115	1
165	176	1
58	90	1
188	189	2
184	194	1
150	156	1
7	7	2
22	30	1
55	62	1
12	64	1
189	201	1
89	101	1
20	203	1
7	51	1
6	8	1
34	172	1
157	160	2
65	156	1
192	193	1
24	25	1
37	48	1
147	147	1
187	190	1
166	167	1
22	28	2
44	230	1
13	158	1
88	152	1
75	91	1
14	15	1
55	59	1
86	108	1
30	119	1
160	163	1
163	191	1
47	48	2
188	191	2
210	210	2
82	84	1
110	113	1
18	20	1
116	117	1
121	121	1
234	240	1
176	182	1
165	173	2
171	173	1
243	244	1
48	50	1
218	218	1
111	144	1
157	187	1
92	113	1
55	93	1
244	247	1
112	120	1
45	46	1
108	243	1
193	194	2
53	53	1
20	179	1
89	90	1
38	53	1
28	42	1
73	95	2
193	195	1
237	240	1
104	106	1
19	29	1
30	39	1
34	34	1
198	208	1
19	31	1
210	247	2
239	242	1
188	199	1
161	191	1
159	191	1
209	213	1
99	158	1
42	43	1
