1	1	8
95	96	7
114	132	1
17	28	1
59	59	20
15	15	23
95	95	17
36	36	17
95	110	3
58	77	1
33	33	24
92	92	20
35	77	1
70	70	23
117	117	10
133	133	10
112	112	23
134	134	12
20	20	30
62	101	4
12	12	14
28	90	8
74	74	13
90	93	1
82	83	7
64	64	17
16	16	23
36	79	1
96	97	2
14	74	4
26	82	4
75	75	14
80	80	19
128	128	15
11	12	8
27	27	25
11	11	26
14	119	1
11	94	2
35	36	6
81	82	14
17	119	3
76	76	20
12	28	6
99	99	18
11	84	3
30	30	17
62	62	10
87	88	9
10	43	5
14	27	3
125	125	7
13	43	4
25	25	16
20	21	5
1	123	3
98	99	6
4	5	17
64	75	2
101	101	23
94	96	4
31	35	2
35	35	15
14	14	13
13	37	5
15	16	2
46	47	5
102	102	15
97	102	4
132	132	10
44	44	11
28	28	19
21	22	3
47	77	2
57	58	6
3	46	4
50	50	8
58	58	16
124	126	2
36	100	2
98	98	18
26	26	17
78	78	31
9	9	9
15	45	4
25	92	2
5	5	8
69	69	8
130	131	10
79	79	48
104	105	4
47	47	21
17	19	5
85	86	14
119	119	19
95	109	2
32	32	14
34	34	13
18	18	21
98	103	2
118	120	2
118	118	3
82	82	9
58	120	2
94	100	4
28	96	9
123	123	13
29	49	4
65	65	35
81	81	15
105	105	17
20	92	13
45	45	28
21	41	3
42	43	11
0	0	7
56	86	3
129	129	16
63	63	12
43	114	4
28	31	8
66	66	29
94	95	7
24	24	13
31	31	6
103	104	7
73	73	20
91	91	10
71	77	1
106	106	12
36	78	1
127	127	17
119	120	6
27	42	4
23	23	11
96	99	2
120	120	6
9	10	4
14	91	8
27	28	5
93	98	4
78	79	6
13	94	2
31	78	4
37	38	3
3	3	11
115	132	7
58	60	4
7	11	3
132	134	4
100	128	4
5	45	3
71	72	5
121	121	10
128	132	5
65	74	1
89	92	5
92	95	5
76	77	2
37	44	3
43	43	11
10	44	2
19	19	16
59	80	2
77	77	2
90	91	12
38	38	8
15	93	1
4	91	2
31	79	12
41	42	8
8	8	20
12	13	12
6	8	5
103	105	5
109	110	2
90	92	1
61	61	11
15	43	3
110	110	16
114	134	4
62	64	6
85	85	15
95	131	2
11	13	6
108	108	10
10	20	3
31	60	3
22	22	16
89	90	4
117	129	2
111	111	9
89	89	5
130	130	8
3	12	4
128	129	5
91	112	2
62	81	2
29	29	27
68	69	9
78	90	2
100	100	15
61	62	5
72	72	9
93	93	9
40	40	10
100	101	1
91	92	4
16	43	6
93	94	7
12	94	4
12	118	2
17	18	3
61	77	3
94	133	3
44	87	1
56	56	14
55	55	6
11	93	5
126	128	4
29	31	1
6	100	2
62	70	1
59	79	3
91	119	4
103	103	10
83	83	6
11	81	2
8	32	1
7	7	20
46	46	15
38	112	4
11	47	1
79	81	5
114	114	6
57	59	4
113	113	16
23	25	5
116	116	12
126	126	12
64	73	5
41	81	3
95	113	3
60	60	13
36	38	7
2	2	9
34	35	2
131	131	10
8	26	7
42	42	7
22	27	4
99	100	20
80	81	2
38	111	3
112	113	10
124	125	2
7	55	1
43	44	2
96	121	4
106	112	2
96	128	5
119	126	2
3	23	2
79	80	3
84	90	1
49	49	3
10	10	14
43	93	4
12	23	1
49	59	4
57	94	2
29	81	2
22	36	4
60	62	1
8	24	3
37	57	1
30	31	4
31	32	5
39	40	9
73	74	3
63	98	1
83	94	2
14	46	1
20	41	2
69	124	1
4	94	1
124	124	9
39	94	2
11	26	2
103	129	4
100	124	1
21	32	1
54	55	2
5	24	4
5	6	5
22	23	4
56	96	6
87	87	9
63	70	6
122	126	1
13	14	13
111	117	2
5	8	2
71	102	2
32	64	2
37	58	1
9	19	5
38	60	2
71	128	3
74	75	4
29	30	2
58	85	1
89	91	3
90	90	15
104	108	3
111	116	1
6	93	3
6	94	8
67	67	13
49	50	2
108	109	4
26	27	7
96	96	26
69	126	2
25	29	5
84	85	1
64	70	1
11	78	4
26	40	4
50	55	2
3	93	6
68	68	17
57	85	8
45	46	5
13	74	2
81	83	5
32	114	3
130	132	3
33	34	9
34	73	1
97	97	10
38	81	3
91	98	4
84	84	6
4	98	3
6	83	3
90	94	3
57	57	13
70	79	3
15	44	3
106	109	4
25	75	5
86	86	16
123	124	1
33	73	1
7	94	1
18	118	1
82	84	4
14	75	2
77	78	1
13	118	1
21	45	1
10	91	3
40	42	2
34	59	3
109	109	3
71	71	9
131	133	1
98	100	3
83	84	4
127	128	3
24	60	2
6	6	9
95	123	1
19	20	4
21	44	3
15	30	1
16	124	1
112	115	4
88	89	5
114	115	2
4	6	6
62	75	2
21	21	14
29	60	3
110	112	1
13	13	8
121	122	10
17	17	8
22	43	1
94	134	5
38	93	3
21	85	3
85	92	2
36	64	1
41	41	8
4	11	1
114	121	1
38	78	2
21	35	4
107	107	3
90	97	2
99	128	1
57	89	1
70	71	6
48	48	5
63	81	5
38	61	1
60	61	1
20	91	2
13	36	3
127	132	2
12	16	1
77	85	4
110	111	1
36	41	1
65	66	5
99	105	3
93	117	1
47	61	1
84	93	2
122	125	5
44	48	3
64	72	4
47	93	1
96	100	3
56	95	4
16	88	2
92	93	2
37	81	1
61	83	6
29	79	1
35	64	1
95	103	3
120	127	1
48	93	3
94	99	1
19	92	1
101	102	3
17	120	1
59	78	2
64	67	2
24	26	4
93	97	2
15	27	3
17	46	1
61	122	1
115	115	4
98	101	2
39	39	3
40	45	3
15	21	6
62	72	3
22	84	3
14	86	1
106	107	1
21	42	2
16	45	3
7	86	2
133	134	2
16	75	2
129	133	1
11	20	2
26	45	1
4	4	3
10	90	1
95	124	2
101	111	4
88	92	1
101	133	1
59	91	1
60	63	1
84	89	1
117	132	3
25	79	1
36	37	2
28	78	1
96	125	2
83	102	3
116	130	2
5	96	1
40	82	3
37	111	1
10	11	2
5	98	1
88	88	7
71	82	3
94	94	5
6	23	1
18	75	2
63	74	1
47	48	3
105	116	3
7	8	1
14	18	1
7	85	1
112	116	1
15	28	2
64	87	4
11	45	1
11	14	1
96	104	1
36	45	3
106	134	2
29	32	2
63	76	2
131	132	2
10	21	3
90	95	3
12	43	1
75	76	2
123	126	1
15	26	1
78	119	1
70	84	1
119	124	1
11	85	2
105	106	2
122	124	1
22	30	1
93	116	1
15	24	1
32	33	3
95	128	3
43	45	2
27	33	1
9	47	1
57	95	2
7	57	2
86	87	1
128	131	1
113	114	2
4	7	1
79	82	1
34	72	1
31	49	1
60	119	1
32	35	2
59	86	1
85	120	3
97	99	1
61	78	1
20	42	1
128	130	1
10	61	2
27	29	1
26	86	2
65	85	1
44	46	1
60	74	2
51	55	1
37	37	3
25	35	2
36	115	2
74	76	2
37	39	4
122	123	2
48	49	1
3	91	1
5	97	1
7	99	2
62	102	1
1	2	1
36	60	1
45	89	1
6	7	3
13	96	1
32	74	1
71	123	1
36	44	1
50	87	1
58	59	2
25	48	1
6	89	1
18	119	1
3	47	1
28	93	3
16	119	2
29	48	3
45	62	1
25	46	2
119	125	1
25	26	1
65	67	1
95	101	1
132	133	2
70	93	1
55	59	2
107	134	1
61	76	2
88	93	1
71	76	1
6	45	1
112	122	1
27	93	1
14	45	1
38	70	1
12	18	2
7	25	1
33	70	2
114	127	1
49	55	1
21	92	1
33	35	1
35	93	1
35	43	1
62	71	1
35	74	1
69	100	1
22	25	1
64	90	1
27	84	1
65	73	1
16	46	1
8	124	1
19	61	1
41	66	1
