84	84	1
59	60	2
96	96	2
45	45	1
99	99	5
7	8	3
70	102	3
79	79	2
59	67	5
73	75	1
98	98	6
95	95	9
123	123	2
115	115	2
73	76	1
49	49	5
45	100	1
15	15	2
37	77	2
128	134	3
116	117	1
102	103	8
134	134	2
94	95	1
74	74	3
46	87	1
20	20	3
117	118	3
55	65	2
43	43	4
116	116	9
131	131	6
69	69	3
31	31	6
125	126	2
127	128	1
29	58	2
70	70	4
44	67	2
117	117	2
133	133	5
46	46	1
45	49	3
50	63	2
80	113	2
57	59	3
83	84	6
80	80	2
75	75	3
132	132	3
108	108	4
2	2	1
32	73	2
13	13	3
128	128	9
127	127	2
61	64	1
33	33	1
111	111	4
6	10	1
109	132	2
61	61	2
44	44	5
7	9	1
78	125	2
121	121	4
63	63	6
78	96	1
42	42	3
117	120	1
8	8	5
101	101	3
16	16	1
35	35	1
93	94	1
6	6	3
119	120	1
103	103	3
49	50	2
26	26	3
36	69	1
30	62	3
72	73	2
56	56	9
6	60	2
98	116	1
47	47	2
85	85	5
97	97	4
125	125	1
28	32	1
28	28	6
37	37	2
12	28	3
57	77	1
66	66	1
59	59	2
25	25	4
86	95	1
4	4	3
33	35	1
113	120	1
58	59	1
8	9	1
100	101	5
68	68	2
43	126	1
103	104	2
73	73	3
96	100	4
49	69	1
119	119	2
78	78	5
77	106	1
120	121	1
95	100	1
106	106	4
56	84	2
19	26	3
129	129	3
134	135	1
130	130	4
112	112	3
48	71	1
95	110	1
77	81	2
71	72	2
52	102	1
104	104	3
22	22	2
0	3	1
135	135	1
100	100	1
23	23	2
64	65	1
87	87	6
132	133	1
45	101	1
118	118	1
124	124	1
36	131	2
110	111	3
17	18	2
114	114	1
65	66	1
60	67	1
11	36	1
21	70	2
45	106	2
29	29	2
46	109	3
21	25	1
120	120	2
106	107	2
108	109	3
54	78	1
86	86	4
14	14	3
73	74	1
98	132	1
87	88	1
119	127	2
21	23	2
62	77	2
117	125	2
58	67	3
55	59	1
107	107	2
90	94	2
74	76	2
10	14	1
109	109	2
8	24	1
70	74	1
91	92	1
92	109	2
102	102	1
29	84	1
50	106	1
34	76	4
54	55	3
90	90	1
6	7	1
7	7	2
130	131	2
15	25	2
61	66	3
126	126	2
58	58	2
91	91	1
17	17	1
87	110	1
78	85	1
116	120	1
77	79	2
78	108	2
27	27	1
66	67	1
7	17	1
35	37	1
64	64	1
19	19	1
55	55	1
23	33	1
31	73	1
19	20	3
107	108	1
52	55	2
92	92	1
34	34	1
99	106	1
86	94	1
89	89	2
67	68	1
5	5	2
79	81	1
113	114	1
76	76	1
12	75	1
110	112	1
68	88	1
71	71	1
26	33	1
109	110	1
84	85	1
67	67	1
62	64	1
102	105	1
