39	40	13
11	14	5
163	164	11
50	50	20
30	30	8
125	126	5
149	187	6
189	189	17
105	105	4
156	156	15
33	33	5
22	22	4
147	153	2
197	197	8
54	54	8
40	41	4
166	166	10
131	131	8
142	142	5
104	116	3
11	12	4
95	96	7
85	96	1
190	191	7
191	191	9
58	64	1
151	152	6
52	52	14
178	178	12
148	148	12
104	144	5
117	136	2
120	120	8
153	153	12
133	133	10
114	166	7
157	157	18
155	155	6
185	186	3
137	172	1
170	170	18
37	37	10
170	184	2
101	117	1
57	57	9
151	154	2
43	43	7
131	133	2
117	118	2
34	35	4
134	136	1
140	141	1
127	127	16
128	128	14
159	160	7
150	150	8
58	58	4
138	138	11
186	189	1
138	170	5
95	95	7
10	10	10
117	117	13
96	97	4
3	3	4
196	196	8
25	25	3
186	188	10
144	145	5
9	9	3
62	62	9
55	55	20
6	74	1
195	195	16
100	100	7
168	169	6
5	5	7
187	187	7
53	55	2
148	149	2
169	169	20
148	186	3
104	106	1
109	109	9
174	177	1
179	189	3
116	118	6
121	122	8
101	123	4
1	1	8
49	49	23
158	158	14
63	63	3
158	182	5
99	99	5
159	159	9
167	168	7
77	78	2
141	142	7
45	45	17
11	11	15
48	48	9
184	184	16
195	196	3
94	94	15
167	167	15
190	195	3
37	38	5
0	58	5
143	143	5
57	58	2
20	22	6
178	179	3
192	192	17
32	32	3
186	187	5
61	68	3
71	71	2
83	85	4
42	42	10
94	95	3
177	177	6
154	154	6
116	117	1
169	172	3
139	139	18
123	123	15
122	122	10
134	137	2
140	142	1
166	183	1
171	171	5
26	26	9
160	161	6
174	174	6
14	15	1
46	47	5
111	111	7
152	153	3
46	46	6
181	181	11
143	144	3
159	179	4
96	119	4
6	6	5
102	102	5
34	63	2
164	196	1
7	7	12
180	180	16
10	11	1
119	121	2
113	114	3
53	53	9
14	52	1
148	188	3
115	118	2
64	73	5
18	27	4
130	131	4
146	146	8
160	160	2
32	33	4
72	72	7
161	163	7
161	161	12
182	182	11
179	179	11
9	10	3
121	125	3
38	54	1
40	59	1
38	38	10
41	41	5
79	79	7
42	44	3
33	156	1
84	84	4
129	129	10
23	26	3
180	192	1
101	101	11
187	188	18
180	182	6
108	108	9
16	16	4
176	176	11
56	56	6
173	174	2
113	113	9
139	144	1
151	151	21
20	41	3
141	143	10
89	94	2
20	21	4
24	24	8
164	164	11
80	83	1
99	101	2
113	119	2
100	101	2
3	8	2
175	181	3
141	147	4
16	17	2
78	78	3
2	2	7
132	132	6
21	21	2
193	193	12
174	175	8
165	181	4
20	20	4
83	83	11
120	122	5
133	186	8
149	151	4
21	22	4
120	121	3
125	125	5
166	169	5
135	135	10
23	23	10
130	130	9
139	148	4
105	106	4
115	116	4
85	85	2
156	193	1
17	67	1
177	178	4
24	25	3
149	149	17
145	145	8
70	70	5
168	178	2
29	41	1
186	186	4
36	36	6
67	67	4
25	26	5
182	185	2
27	27	11
145	151	5
12	12	9
50	51	3
31	35	4
6	7	3
118	118	2
103	103	8
183	184	4
165	165	5
137	148	2
141	148	1
14	14	8
43	44	1
111	151	3
183	183	10
142	143	3
28	29	2
71	72	2
36	37	7
134	135	3
190	190	6
5	7	1
112	151	2
23	24	2
184	197	1
166	189	3
176	177	3
86	116	2
17	18	6
162	162	7
109	110	3
97	97	7
107	107	8
39	39	5
8	8	5
138	171	1
47	47	11
59	59	7
69	71	3
9	25	1
162	190	1
139	149	2
116	169	3
61	66	1
181	192	2
132	133	4
51	51	2
146	148	3
193	194	8
106	106	13
158	179	2
0	1	1
162	189	2
130	134	1
175	175	6
125	128	1
151	155	1
118	169	2
3	9	2
124	124	12
121	121	5
5	8	6
93	93	4
179	180	4
154	155	7
33	35	2
8	31	2
136	137	4
101	137	4
110	153	3
135	157	1
42	43	2
103	105	2
106	115	3
100	113	5
192	193	4
82	82	3
175	194	2
77	77	1
40	40	2
155	156	4
152	155	3
163	163	2
180	183	2
126	126	2
38	59	6
23	27	1
172	172	4
98	98	10
154	158	5
116	116	11
22	23	1
106	107	4
141	141	6
168	168	10
140	140	5
188	188	10
126	127	3
180	181	3
4	4	4
178	181	2
182	191	4
161	162	1
8	16	1
145	146	5
173	173	6
102	105	2
157	159	4
143	181	3
88	89	1
162	164	1
23	41	2
110	110	7
143	147	4
181	182	3
64	64	8
139	141	1
139	140	6
86	98	3
31	32	1
97	138	1
118	119	5
152	152	3
137	139	2
112	189	5
109	145	2
123	124	2
134	134	3
99	100	4
87	87	2
147	159	3
137	137	4
194	194	5
187	189	2
133	137	2
33	38	1
29	43	2
156	158	1
151	153	2
172	195	1
79	99	2
6	61	2
114	119	1
107	108	4
93	94	3
81	83	2
138	148	2
7	34	2
101	146	1
86	87	1
108	109	3
55	56	2
169	170	2
98	99	2
131	132	2
39	77	3
144	144	3
0	28	1
147	147	9
111	112	1
177	179	1
111	114	1
127	128	5
133	134	3
44	44	9
121	126	1
0	33	6
33	34	1
149	150	5
13	13	6
45	53	3
109	111	2
31	31	4
165	169	2
77	193	3
48	49	2
161	176	4
54	55	1
172	174	1
169	173	1
27	28	4
173	186	4
54	56	3
67	68	2
73	73	2
121	128	2
58	61	1
29	29	2
12	13	2
146	147	2
75	75	1
173	176	2
69	69	1
61	75	1
196	197	3
3	60	2
136	164	1
107	184	1
16	19	2
35	54	1
113	115	3
61	74	5
13	14	2
113	178	3
104	104	1
133	184	1
39	58	2
35	35	8
102	103	1
97	98	6
115	115	1
191	192	2
96	98	2
97	99	1
101	171	1
21	25	2
112	112	3
40	42	1
76	76	4
161	169	1
167	169	1
184	187	2
174	176	2
41	64	1
119	137	3
65	65	1
157	158	1
140	148	1
184	193	1
103	104	1
117	140	2
17	17	1
34	34	1
185	185	2
185	196	1
38	39	1
113	128	3
83	94	1
182	192	1
9	36	1
165	168	2
0	2	1
160	164	2
130	139	1
19	59	1
183	191	2
140	146	1
136	136	3
168	177	3
184	185	1
95	97	1
97	133	2
15	15	2
177	182	1
132	186	2
189	190	1
112	128	2
162	194	1
79	194	1
0	4	1
8	73	1
182	184	1
108	144	2
99	135	1
102	107	3
153	155	1
52	53	2
117	119	2
1	3	1
96	96	1
119	119	2
179	190	1
135	137	1
87	173	1
89	89	1
86	86	1
189	191	1
121	166	1
28	28	2
175	176	2
120	127	1
8	90	1
120	132	1
37	77	1
43	63	1
4	38	1
115	132	2
111	126	1
180	187	2
9	44	1
137	140	3
137	149	1
90	90	2
4	5	1
147	148	1
148	156	3
66	68	1
111	159	2
96	185	1
82	85	1
70	72	1
133	170	1
134	139	3
98	134	1
150	152	2
25	27	1
101	105	1
84	86	1
129	130	2
141	169	1
106	116	2
1	17	2
106	137	2
171	173	1
80	82	1
18	18	3
53	54	1
144	154	2
113	116	1
158	195	2
62	79	1
17	19	1
139	155	1
108	147	2
115	178	1
12	52	1
86	94	1
158	159	1
104	108	1
191	193	1
168	172	1
144	174	1
5	6	1
39	59	1
80	192	1
112	156	1
35	55	1
183	192	1
118	178	1
2	3	1
