9	32	1
24	24	2
11	12	2
72	73	4
3	3	19
42	42	10
26	26	7
73	74	8
3	12	3
23	23	11
41	42	4
66	67	8
49	50	4
12	12	16
34	76	1
29	34	3
29	30	5
56	56	11
46	46	14
18	18	6
66	66	13
20	21	5
59	59	6
30	30	8
1	2	4
27	27	5
47	47	5
42	43	2
28	28	14
43	43	21
24	28	3
27	63	4
13	13	12
36	36	4
32	32	11
28	29	6
5	5	7
40	51	2
42	49	1
41	50	2
10	11	2
31	32	3
62	63	7
9	10	11
31	31	9
35	38	3
19	19	18
11	11	15
0	6	1
61	62	7
10	10	16
58	58	4
48	48	5
40	61	3
40	53	4
21	61	5
33	33	8
25	25	4
22	27	2
19	44	2
50	51	7
67	67	11
25	76	5
35	35	9
0	5	2
23	24	2
5	26	2
9	9	15
39	39	3
49	49	5
21	72	2
21	71	2
37	37	3
7	7	10
0	1	4
2	2	8
7	46	2
31	62	5
21	21	11
6	9	2
74	74	3
68	71	2
48	50	1
62	62	12
25	26	5
5	6	6
41	41	6
72	72	5
26	27	4
20	20	17
40	41	1
18	19	4
76	76	5
38	38	6
23	29	2
30	32	4
35	36	4
58	59	6
22	24	2
50	50	8
4	4	10
25	27	3
49	51	6
1	1	11
24	25	4
7	8	4
31	33	2
44	45	1
56	57	1
45	45	6
63	63	2
12	13	1
6	6	2
29	32	4
64	66	6
76	77	3
3	8	2
61	61	7
32	53	2
22	26	5
37	44	2
22	22	4
39	74	4
0	0	5
2	58	5
8	9	3
22	73	1
2	3	3
41	66	6
11	19	1
55	55	7
57	57	3
73	73	8
29	29	10
65	67	1
69	70	1
59	74	3
68	68	7
25	30	3
53	53	6
28	75	5
69	76	5
4	13	1
36	38	2
51	51	6
23	25	4
1	20	2
52	53	3
68	70	5
60	60	7
37	38	1
54	54	7
68	69	2
65	66	6
22	23	7
64	65	2
45	55	4
0	10	3
60	61	4
30	76	3
64	64	2
2	21	4
21	22	3
59	75	3
34	35	4
6	14	2
24	42	2
75	75	9
3	7	2
39	40	6
19	20	2
50	53	2
21	28	4
48	49	1
24	29	2
44	44	5
69	69	1
71	74	1
70	71	2
62	74	2
46	47	2
63	64	1
48	51	1
8	8	7
33	34	1
77	77	1
65	65	2
34	34	4
9	11	3
1	23	2
48	55	1
61	63	3
20	33	3
52	52	2
4	5	1
0	38	2
29	36	2
47	48	2
62	67	2
13	14	3
7	21	1
22	25	1
57	58	1
36	37	2
8	10	1
22	69	1
28	58	2
58	75	1
47	55	1
23	40	1
7	38	2
5	30	2
27	30	1
37	39	1
28	30	1
41	49	1
25	28	1
21	27	1
64	67	1
