109	110	2
164	167	4
95	95	1
102	103	8
196	197	1
87	88	3
94	94	3
13	16	2
1	3	5
109	109	8
58	66	6
68	68	7
12	40	2
5	62	2
148	148	6
171	172	3
16	16	7
20	22	3
23	23	6
163	164	11
175	175	5
130	131	9
70	70	6
38	40	2
17	17	8
33	37	1
168	180	4
0	25	5
114	114	11
156	156	16
38	38	7
62	98	3
176	178	3
9	13	2
193	194	2
42	42	1
81	81	6
27	67	2
108	111	1
53	54	1
173	175	12
16	41	3
45	45	11
10	11	2
4	53	2
187	189	1
118	121	4
141	141	5
145	145	6
22	22	14
142	153	3
7	64	8
195	195	8
186	186	5
194	194	9
39	39	15
35	37	1
151	154	5
114	131	2
143	148	3
28	28	5
15	15	7
185	185	10
154	154	3
63	63	1
160	160	10
34	34	6
29	30	4
11	11	4
82	84	5
123	123	4
197	197	3
105	105	8
165	167	4
8	8	11
146	146	19
124	124	7
128	140	7
110	110	6
173	173	2
18	19	3
77	77	4
174	174	2
8	9	4
3	22	1
31	33	3
126	126	3
142	157	1
56	56	15
98	98	1
165	166	5
125	125	4
54	54	4
3	28	1
152	152	3
51	51	7
158	171	2
8	24	1
67	69	3
94	165	1
50	50	6
1	1	7
163	163	5
134	134	3
55	55	3
86	127	1
172	172	8
111	111	4
35	36	7
0	27	2
183	194	6
29	29	2
156	168	7
165	165	6
138	167	3
168	168	6
35	35	8
177	178	7
161	169	2
182	183	5
66	66	8
12	12	5
147	148	2
67	89	1
18	38	2
132	133	3
179	179	6
168	181	3
16	18	2
124	125	3
101	195	3
78	78	3
189	189	7
121	121	5
79	79	4
76	79	1
17	38	2
181	181	8
108	116	3
112	189	3
6	6	2
63	193	1
166	167	1
12	49	1
1	4	3
106	107	4
62	62	3
5	22	1
24	39	1
134	167	2
71	71	2
117	118	5
63	194	4
93	95	3
144	144	3
101	196	1
95	98	1
10	10	12
167	167	1
45	54	2
36	37	1
137	137	4
96	96	6
77	78	8
120	120	4
59	59	1
115	119	2
149	150	5
32	32	6
170	170	12
8	17	2
37	38	2
146	150	2
11	33	1
153	155	2
157	157	5
183	185	2
43	43	2
82	82	8
72	72	2
163	165	2
110	111	1
9	9	4
159	161	6
184	184	6
191	192	5
189	193	1
193	193	8
108	118	1
95	197	1
147	147	1
139	139	7
88	88	5
57	58	1
167	193	1
2	25	3
136	138	5
87	87	4
102	105	4
117	117	3
168	169	5
49	49	5
60	60	3
57	57	5
95	99	2
6	64	1
133	133	5
108	108	7
144	172	1
153	153	12
180	180	3
192	193	5
109	111	2
27	28	2
115	116	1
33	36	4
151	151	6
159	159	4
167	170	2
109	119	3
132	132	3
143	143	6
67	71	5
85	86	1
138	138	5
8	56	4
104	104	7
3	8	3
122	122	4
15	16	6
177	177	6
30	31	1
36	61	3
7	17	1
26	26	5
153	157	3
169	169	1
136	137	3
83	85	2
180	181	3
135	136	2
2	4	3
113	115	1
192	192	1
160	162	4
153	154	5
13	13	4
154	155	2
56	57	3
16	196	3
21	23	2
154	178	1
191	191	3
53	53	12
0	188	4
158	162	4
152	154	1
174	176	5
5	17	2
153	180	4
28	29	1
172	175	1
23	37	1
14	14	6
17	18	2
164	164	7
104	109	4
7	7	5
65	66	2
196	196	3
134	135	2
32	45	3
55	81	2
105	106	3
112	113	1
78	85	3
2	5	2
161	161	4
78	94	1
36	38	3
161	163	2
33	33	6
138	142	1
84	84	3
99	100	4
108	110	1
53	55	2
100	100	8
190	191	2
103	103	3
150	150	7
118	196	1
178	178	3
146	149	3
19	19	6
3	3	2
5	31	3
125	126	3
179	191	4
189	190	2
19	39	1
45	46	1
19	37	2
48	48	4
140	140	7
148	153	1
173	176	1
148	155	1
135	137	2
138	139	6
145	151	1
136	136	5
98	99	2
41	41	3
142	145	1
74	75	2
162	163	3
2	23	3
77	94	1
30	30	2
115	123	5
135	135	2
12	14	1
47	47	4
96	97	1
136	186	1
121	122	5
5	56	2
185	186	1
36	36	3
97	98	4
82	83	2
171	171	2
180	193	2
4	4	1
58	84	3
67	68	4
116	116	2
26	28	2
52	53	4
5	58	3
62	64	3
0	1	3
3	61	2
158	158	3
99	99	1
160	161	3
130	130	4
88	90	2
162	162	3
47	48	4
166	166	7
86	88	1
44	44	2
175	176	3
113	113	2
123	124	1
133	136	1
151	164	2
175	178	1
187	187	2
143	155	2
11	44	1
3	27	1
190	190	2
100	118	1
54	55	3
161	162	1
72	73	1
152	153	2
5	5	2
144	155	1
21	40	2
115	115	2
18	18	2
24	32	1
129	141	2
103	104	5
142	142	2
129	129	2
139	140	2
146	147	2
119	119	3
174	184	1
167	179	1
64	64	1
64	66	1
89	89	2
116	121	2
169	172	2
139	179	1
57	174	1
163	167	1
33	39	1
21	21	5
25	25	1
69	194	4
146	174	1
50	52	1
158	161	1
52	52	2
93	94	1
143	145	2
139	176	1
188	189	1
179	190	2
146	148	1
167	182	2
113	116	1
100	101	1
3	64	1
28	30	1
133	161	1
83	84	2
78	101	2
183	183	5
128	128	1
131	131	3
144	145	1
101	101	2
106	106	1
1	2	1
116	118	1
46	46	2
152	173	2
23	24	1
3	5	1
43	44	1
30	62	1
125	127	1
3	60	1
25	29	2
79	89	2
182	182	3
58	58	2
40	41	2
19	21	1
158	159	1
117	194	1
14	55	1
127	127	1
24	24	1
116	117	1
59	69	1
104	112	1
44	45	1
15	37	1
174	187	1
70	71	2
0	4	1
82	85	1
157	158	1
114	115	1
59	63	1
112	112	2
3	62	1
76	86	1
176	177	2
175	185	1
11	57	1
15	42	1
21	39	2
2	2	1
45	47	1
145	157	1
149	149	1
90	90	1
16	17	1
150	151	1
0	0	1
58	59	1
168	190	1
24	25	1
5	8	1
20	20	2
80	83	1
107	107	1
12	13	1
67	67	1
23	65	1
17	19	1
12	33	1
