21	21	12
91	91	15
16	16	11
30	32	3
117	117	11
80	80	2
17	17	5
145	145	6
56	56	7
111	111	2
51	52	4
62	63	3
41	63	4
18	18	4
135	139	4
35	35	1
38	38	6
19	19	10
4	5	2
99	100	5
133	133	6
118	118	15
78	132	2
133	139	1
62	62	7
115	115	4
52	52	2
11	11	14
118	136	6
121	123	3
121	122	1
33	33	3
42	59	7
51	51	9
51	72	5
85	110	2
22	22	14
142	142	3
134	134	10
108	136	3
54	141	3
92	94	3
95	95	4
102	102	6
51	73	1
90	90	1
41	42	3
108	108	8
25	25	5
131	135	2
83	97	6
129	130	2
1	9	2
58	59	4
67	102	3
69	69	6
128	128	7
89	101	3
14	14	6
26	27	3
146	146	4
126	131	2
11	17	3
4	4	5
22	23	14
111	112	3
86	86	3
13	48	2
137	138	6
138	138	4
140	140	1
110	110	6
32	33	4
33	34	2
136	139	7
26	26	10
97	99	4
49	57	8
31	37	1
68	68	9
112	113	6
100	100	2
63	63	4
67	67	5
73	73	10
101	101	13
135	137	2
141	141	3
98	98	6
105	105	6
79	80	3
135	135	7
31	32	1
64	83	1
137	137	1
121	121	13
136	136	5
85	115	2
23	23	6
58	58	5
35	60	3
30	52	1
37	81	2
43	47	3
42	48	3
143	143	8
50	51	3
1	1	3
49	49	5
17	18	1
132	139	4
19	61	7
76	120	5
43	43	3
129	131	3
67	126	5
124	125	1
81	101	4
71	116	1
81	81	7
27	27	6
55	55	2
37	38	1
109	109	2
28	53	1
127	140	1
136	138	5
100	122	8
122	122	13
30	30	9
69	73	2
141	142	4
103	133	4
50	50	5
74	74	3
10	11	4
39	70	2
37	37	5
53	53	10
42	42	10
85	92	1
113	114	8
28	29	5
129	129	5
60	60	6
123	138	3
40	59	1
34	40	3
112	112	5
5	38	2
32	37	3
122	123	7
29	29	6
14	15	2
125	125	2
83	85	2
114	117	2
12	12	2
68	70	2
89	95	2
5	23	1
52	94	1
133	140	4
94	94	4
17	20	2
142	143	9
12	15	1
82	92	1
106	122	2
8	8	1
132	132	6
76	76	1
71	71	8
131	139	1
13	107	3
127	129	4
89	98	6
9	10	3
70	70	7
54	54	3
117	124	2
82	122	1
104	104	9
23	24	2
107	107	2
66	67	3
91	99	1
3	3	5
132	134	1
60	62	2
64	65	3
61	61	6
36	36	2
116	116	9
123	124	1
128	130	2
72	72	3
53	59	4
124	124	8
127	131	3
135	136	2
24	24	1
102	106	2
122	137	3
85	85	5
87	133	2
98	99	3
88	90	2
104	112	1
103	103	3
1	18	3
57	58	2
67	120	2
131	131	2
4	23	1
133	134	3
15	16	2
17	52	4
35	43	2
70	130	1
79	119	1
118	120	2
88	88	4
76	79	2
38	63	2
64	66	2
6	6	8
67	130	7
23	30	4
76	125	2
107	136	2
13	13	3
36	63	1
130	130	2
69	70	2
93	93	3
76	136	2
75	75	4
106	130	1
40	58	1
84	91	2
100	101	2
57	57	1
13	14	3
46	47	1
97	97	7
86	96	4
48	49	1
57	65	2
15	15	6
42	56	1
121	132	1
23	25	1
96	96	1
41	41	1
31	58	4
29	129	2
14	108	4
118	119	1
126	126	4
24	110	2
50	63	2
33	36	3
92	106	1
18	32	3
55	56	1
82	97	1
143	144	2
80	109	1
82	94	1
87	87	1
79	79	3
144	144	4
9	9	1
0	20	1
11	21	1
39	40	1
117	138	1
2	10	1
37	63	1
40	40	5
4	6	1
0	0	1
68	69	3
119	119	8
84	84	1
130	131	1
10	10	3
5	6	2
113	113	3
109	127	1
127	127	3
1	2	1
28	28	4
103	104	3
65	65	1
32	42	1
123	123	3
77	78	1
99	99	4
134	135	4
106	106	2
77	79	7
56	58	1
4	35	4
114	131	1
47	56	1
75	76	1
111	113	3
108	109	2
75	136	1
82	120	1
48	48	3
102	112	1
92	92	1
132	137	1
31	61	2
55	92	2
64	64	3
79	128	1
31	31	2
32	32	3
42	43	1
105	106	1
2	8	1
99	125	2
34	58	1
132	133	2
34	64	1
3	31	1
66	66	2
131	133	1
77	121	1
85	105	1
74	79	1
34	34	1
122	132	1
83	83	2
134	137	1
90	101	1
52	68	1
48	54	1
94	95	2
38	68	1
69	104	1
136	137	1
109	137	2
4	15	2
76	78	1
82	82	1
72	129	1
17	19	2
118	131	1
116	123	2
36	115	1
73	126	1
87	106	1
102	103	1
80	127	1
59	60	1
20	20	1
78	78	1
83	84	1
47	58	1
112	116	1
73	140	1
63	70	1
129	134	1
