47	102	2
101	102	4
102	102	6
3	4	3
92	109	8
27	27	1
41	90	1
158	158	7
7	17	4
74	80	1
78	79	3
52	52	1
114	115	2
47	47	16
11	11	3
20	21	1
167	167	5
167	169	2
123	123	4
0	0	1
8	8	3
97	118	2
121	124	3
67	130	2
144	144	4
166	166	3
137	162	4
3	138	2
63	63	1
112	112	7
135	136	4
5	19	1
165	165	6
6	6	4
2	2	10
26	27	11
10	11	2
52	53	3
15	15	6
8	9	3
105	111	3
160	162	3
23	23	1
5	23	2
21	21	5
160	160	1
124	124	3
5	15	1
76	76	5
106	110	5
109	109	3
39	40	6
51	51	4
85	86	5
10	10	4
108	108	3
34	34	1
49	105	3
65	73	1
50	51	3
36	36	4
48	54	5
48	49	4
17	17	3
150	152	2
63	68	3
125	128	3
92	92	8
133	133	5
53	55	3
161	161	1
94	95	3
110	125	2
45	45	2
117	117	3
121	121	2
58	70	2
42	42	5
40	58	1
53	53	3
114	114	5
142	159	1
102	103	2
152	152	4
74	76	3
5	5	7
105	106	4
145	145	3
128	129	1
22	23	3
134	135	1
125	125	2
164	164	1
41	41	3
54	55	3
54	54	6
1	156	6
4	4	3
133	134	2
138	138	1
16	17	2
22	22	10
4	6	2
130	131	3
40	85	1
101	103	1
48	48	2
99	99	4
0	22	4
147	147	1
86	86	7
12	12	1
106	108	2
13	14	3
19	19	3
17	18	2
14	15	3
126	126	2
14	43	2
95	95	2
3	3	5
38	76	1
136	136	2
14	14	4
1	1	3
18	18	2
112	114	3
72	72	3
143	143	1
151	151	2
50	148	1
85	85	2
13	24	1
113	145	2
65	68	2
125	127	2
40	40	3
9	10	2
25	25	1
12	14	1
118	118	1
148	148	3
40	64	1
88	89	3
83	84	3
103	103	4
142	143	1
16	16	2
110	111	1
109	110	2
80	80	2
161	163	1
10	27	5
62	62	2
47	48	2
157	158	1
121	125	3
33	33	3
109	116	2
110	110	2
5	17	1
20	24	1
119	119	1
70	70	3
13	18	1
162	162	2
68	115	1
109	133	2
134	134	6
39	39	2
46	46	1
111	111	1
108	126	1
54	151	1
133	138	1
7	7	1
86	96	2
44	44	3
162	164	1
150	150	1
63	67	2
145	157	1
135	135	3
75	75	1
116	116	1
107	107	2
77	77	1
127	127	1
64	64	1
82	82	1
105	105	1
47	55	1
5	6	1
106	106	1
44	45	1
137	137	1
71	71	1
69	69	1
67	133	2
141	142	1
38	38	1
15	19	1
126	127	2
1	22	1
56	57	1
74	74	1
11	12	1
119	165	1
56	134	1
167	168	1
78	78	1
153	153	1
75	85	1
58	58	1
50	50	1
