91	91	7
8	8	6
40	40	5
13	24	6
83	83	4
101	114	2
116	116	8
94	94	4
102	111	2
107	107	2
47	47	16
131	132	4
84	84	6
12	12	7
46	88	5
39	39	4
66	66	8
25	26	3
98	109	2
98	108	5
73	73	3
99	115	8
53	53	6
83	86	2
127	127	1
29	30	8
92	92	13
13	14	1
72	74	3
115	115	12
82	82	5
2	3	7
97	107	1
10	10	5
101	101	6
126	126	6
124	125	2
56	56	4
46	46	2
89	89	2
72	127	3
19	19	4
11	12	4
77	77	5
30	30	7
43	43	6
76	89	1
74	74	3
60	62	9
4	4	4
114	114	5
71	72	2
63	63	8
107	111	7
55	117	3
110	110	1
25	25	2
99	128	6
0	0	5
108	108	10
97	97	3
96	105	2
55	55	1
2	2	5
124	124	10
45	45	2
45	51	2
10	52	3
130	132	5
69	69	1
54	54	3
27	27	3
59	62	8
13	13	2
66	67	3
94	95	3
68	68	3
88	90	2
72	73	3
65	67	3
34	38	3
88	88	5
8	30	2
57	58	3
95	124	5
99	99	4
46	48	4
118	118	3
9	9	6
63	66	1
61	62	5
113	113	2
66	68	3
93	93	4
131	131	10
81	103	1
114	119	4
44	45	1
106	106	2
105	105	2
3	4	4
86	86	5
85	85	5
31	46	1
90	91	1
113	114	2
64	64	4
2	4	4
100	115	3
78	78	2
115	125	3
52	91	1
112	112	7
48	48	2
16	16	3
51	51	3
84	123	1
56	115	1
58	58	6
98	98	1
41	41	9
120	124	3
33	33	6
64	71	1
13	46	2
108	109	1
4	5	4
60	60	1
70	70	3
132	132	2
26	26	3
57	57	8
41	43	2
120	121	2
109	110	1
28	28	2
58	130	1
39	42	2
80	87	2
29	29	2
49	49	3
103	103	1
18	28	1
120	120	4
81	81	3
15	15	3
125	125	4
28	91	1
69	72	2
23	23	1
50	50	5
72	72	5
67	67	3
21	21	2
6	6	3
59	59	2
28	29	4
12	87	1
12	89	2
38	38	3
71	71	3
14	92	1
117	117	1
76	77	1
11	11	1
104	104	2
28	93	1
79	79	1
129	129	2
24	24	4
32	42	3
42	42	2
31	31	1
91	92	1
23	24	2
122	122	1
72	119	2
41	42	3
73	74	2
26	54	1
126	129	1
1	1	2
80	80	3
56	125	1
107	108	5
115	116	3
65	65	1
127	128	2
112	133	2
102	107	2
75	113	1
121	121	4
5	5	2
3	16	1
121	122	1
126	127	2
128	128	3
38	39	2
129	130	1
109	109	1
88	93	1
97	98	1
111	111	2
73	79	1
0	1	2
27	31	2
77	78	1
70	74	1
61	64	2
72	76	1
61	61	1
31	32	2
55	121	1
56	95	1
8	9	1
54	55	1
102	102	1
9	10	2
112	115	1
45	46	1
55	58	1
106	107	1
15	16	1
96	96	1
