23	23	13
98	99	3
56	57	2
31	34	2
22	23	4
39	39	9
23	54	4
50	50	9
59	60	7
78	80	5
99	101	1
40	41	11
59	59	3
23	55	1
96	96	3
21	22	4
73	73	10
82	83	8
25	26	3
103	103	6
76	76	17
39	61	3
64	64	7
90	90	16
94	99	1
79	80	12
94	94	9
67	73	4
36	38	1
58	58	2
49	49	5
52	52	1
85	85	3
63	73	1
70	71	4
68	69	5
60	60	10
37	37	8
39	40	2
35	50	3
32	33	7
62	62	9
103	105	6
24	24	4
78	97	1
42	43	2
78	81	1
102	102	10
26	40	2
53	53	5
22	39	5
23	24	8
54	54	9
35	35	9
51	51	13
62	63	7
38	38	10
34	35	3
72	73	2
26	26	5
70	70	5
31	32	3
86	86	3
55	66	2
37	39	1
43	43	12
100	100	1
66	67	9
67	67	4
105	105	11
101	101	7
36	36	10
40	40	11
77	77	3
97	98	2
68	68	5
40	42	4
55	55	9
98	98	4
64	65	3
36	39	4
104	104	9
21	25	1
71	72	4
77	79	2
31	31	8
51	52	8
46	46	3
86	106	2
21	21	6
47	47	2
95	95	1
30	31	3
29	30	3
25	25	8
33	33	6
30	30	9
45	45	4
63	64	2
45	49	4
77	80	1
69	69	6
92	94	2
21	23	3
88	103	3
58	62	5
65	65	4
91	91	10
70	72	1
99	99	9
44	44	2
48	48	3
65	66	2
75	76	2
80	87	2
76	77	3
27	27	3
33	34	6
78	79	1
49	50	1
74	74	7
97	97	2
73	74	2
104	106	3
26	27	5
53	58	2
35	36	5
57	59	4
66	66	5
29	29	2
65	81	1
57	57	6
88	88	1
80	80	2
55	56	5
50	51	1
81	81	3
71	89	1
89	90	6
78	78	6
44	46	1
42	42	2
71	71	4
103	104	1
63	78	2
81	86	1
22	22	3
26	29	1
66	80	4
93	93	1
58	61	2
79	79	2
25	42	2
90	103	2
70	73	3
20	21	1
84	86	1
81	82	3
25	27	2
77	78	3
87	91	6
105	106	1
34	34	3
52	61	1
84	92	1
63	63	2
74	75	1
32	32	2
87	87	5
94	101	3
83	83	3
50	54	1
96	99	1
97	100	2
61	62	1
75	75	4
61	64	2
76	91	1
53	54	5
92	92	2
56	56	1
72	106	1
67	68	1
69	71	1
38	45	4
92	93	1
61	63	1
52	54	2
23	44	1
41	44	1
24	40	1
25	41	1
82	82	2
77	99	2
63	81	1
64	72	1
90	91	1
91	102	1
71	92	2
63	71	1
81	93	1
61	61	4
83	85	1
41	41	1
61	65	1
97	99	1
80	81	1
75	91	1
53	65	1
106	106	1
47	48	1
84	85	1
101	102	1
24	25	1
52	53	1
