35	35	5
184	190	2
35	36	2
3	3	1
51	51	6
195	195	12
134	134	4
71	71	3
40	88	7
147	147	4
112	112	17
131	132	3
174	174	4
156	158	2
103	103	6
102	115	4
83	85	7
2	2	1
5	6	5
34	34	7
169	169	5
53	53	5
171	171	9
151	151	8
11	128	2
135	135	3
47	48	5
17	17	3
192	193	3
175	176	4
7	68	2
24	24	5
20	21	5
98	102	5
134	178	3
153	153	3
191	191	2
111	111	9
172	173	2
9	9	6
181	181	5
114	129	3
180	182	4
116	132	2
156	185	3
194	194	10
7	21	1
118	192	2
5	7	4
19	19	4
150	150	7
37	37	5
80	86	1
135	139	3
10	10	3
34	35	3
135	137	4
55	58	1
176	176	7
47	47	4
41	41	3
124	125	2
121	122	3
178	179	2
60	60	3
131	133	3
130	131	3
106	106	4
166	167	4
132	146	5
88	88	5
141	192	5
100	119	11
30	133	2
94	114	1
86	86	2
190	191	1
29	31	2
118	119	1
159	165	2
183	183	11
163	164	1
129	184	3
100	100	1
28	28	2
158	158	6
54	55	1
52	52	12
75	75	6
129	132	3
156	156	6
120	120	6
24	26	6
122	191	1
177	177	12
99	99	7
171	190	1
82	84	1
180	181	4
140	140	5
85	85	3
55	55	6
161	161	11
50	50	4
77	77	4
117	118	3
77	78	2
54	54	7
178	182	3
79	80	6
24	28	4
106	111	3
95	95	7
137	138	1
155	155	6
61	74	3
132	149	2
10	69	2
137	137	6
54	64	2
159	159	3
79	79	4
17	18	2
123	123	3
114	114	2
18	21	2
113	114	5
79	85	2
27	27	8
40	55	4
44	44	5
49	49	13
147	188	5
126	127	4
146	155	3
18	18	7
176	178	4
39	39	3
104	104	3
53	57	2
47	51	2
117	139	3
197	197	5
149	149	7
59	60	1
45	45	8
174	176	4
81	81	5
131	143	3
189	190	1
141	142	2
166	166	9
37	38	3
132	132	2
158	186	2
70	77	1
22	24	1
87	87	3
139	140	4
157	158	5
108	109	1
168	168	11
7	7	4
140	144	3
147	155	6
36	36	2
105	106	6
16	19	5
185	185	9
129	129	6
42	58	3
76	79	3
63	66	1
72	72	2
76	76	3
84	84	3
1	7	3
130	145	1
67	67	10
40	44	4
0	7	3
132	148	3
182	182	2
184	184	3
167	167	6
190	190	5
36	58	3
158	159	3
138	138	1
98	108	4
43	43	3
189	189	2
172	194	2
8	8	2
128	129	4
136	140	3
10	11	1
70	76	1
169	189	3
148	149	7
175	177	2
131	155	6
40	40	5
80	80	4
0	0	6
193	193	10
109	110	2
172	189	2
96	96	7
100	101	1
176	181	2
53	54	1
70	70	1
57	57	5
13	14	3
133	133	3
160	160	9
23	194	1
154	156	3
69	77	3
94	95	3
133	139	3
187	187	7
101	115	2
150	151	3
193	194	2
117	166	4
110	111	1
64	66	8
39	41	5
128	128	6
178	178	3
1	1	4
5	21	3
164	164	9
56	56	6
114	142	3
12	14	4
65	65	2
114	115	3
40	42	1
59	93	2
101	101	9
4	8	4
169	171	2
28	41	3
155	168	2
54	56	2
56	64	4
64	64	4
170	181	2
11	11	4
179	179	3
4	10	2
45	46	2
40	59	3
118	131	1
196	196	1
17	19	1
180	180	2
157	160	1
3	10	4
34	36	3
50	51	2
40	41	5
69	69	3
144	158	2
9	33	1
4	15	1
42	42	2
110	110	1
148	148	2
155	156	1
145	180	4
119	184	1
58	58	2
130	149	5
10	62	4
37	39	3
105	162	1
98	98	1
163	163	5
48	49	5
157	166	1
24	32	1
145	145	2
136	136	5
26	26	4
3	18	1
131	131	2
48	48	6
127	127	3
146	146	2
13	38	2
125	125	2
190	194	1
179	185	2
168	169	1
31	31	6
25	25	3
171	174	1
93	105	1
70	83	1
168	182	3
109	180	1
3	83	6
22	22	1
94	94	2
134	143	1
134	146	2
9	37	1
28	29	5
26	192	1
107	163	1
31	32	2
161	162	1
43	56	1
8	35	1
179	194	1
154	154	4
123	141	1
102	108	1
142	142	1
147	186	3
133	149	2
141	196	1
107	107	4
143	154	2
170	171	3
129	131	1
10	15	1
153	158	1
109	109	5
29	29	2
58	61	1
6	6	1
23	23	1
163	170	2
106	115	2
117	117	1
154	167	1
156	157	3
14	14	1
2	3	6
127	129	2
152	152	1
173	173	5
52	53	1
102	102	3
157	157	2
162	166	1
38	39	2
116	160	1
104	110	1
127	128	4
158	182	1
5	53	2
181	192	1
15	23	1
27	35	1
59	59	1
122	122	2
107	108	1
132	141	2
22	25	1
2	19	1
106	107	2
156	179	3
174	175	2
5	61	1
161	165	1
46	46	3
173	175	3
111	146	2
58	59	1
16	16	1
126	184	1
7	8	1
0	21	2
184	186	2
80	83	1
132	133	3
118	118	2
144	182	1
187	188	5
115	116	2
155	159	2
62	62	3
170	172	1
118	142	2
170	170	4
56	62	2
141	141	3
30	30	1
173	179	1
116	144	2
60	64	1
69	76	1
69	70	4
0	2	5
115	115	1
159	160	1
3	4	3
116	116	1
161	163	1
26	27	2
145	154	2
147	157	1
72	73	2
12	13	1
104	108	1
32	33	1
196	197	1
190	192	2
13	13	1
78	78	2
149	156	2
6	28	2
124	126	1
176	177	2
27	34	2
12	15	1
74	74	1
43	44	2
139	139	1
10	78	1
89	89	1
25	26	1
119	132	1
43	53	1
104	105	1
5	65	1
162	162	2
36	37	2
140	175	1
158	180	1
33	77	1
157	182	1
39	40	2
165	165	2
66	66	3
38	38	1
6	8	1
2	4	1
2	8	1
104	116	1
41	42	1
11	47	1
51	52	1
29	30	1
1	2	2
137	154	1
25	28	1
104	106	1
31	132	1
144	144	1
39	42	1
30	189	1
140	159	1
111	113	1
152	153	1
149	167	1
108	108	1
61	61	4
163	165	1
183	184	1
74	75	1
49	50	1
143	143	1
166	182	1
98	99	1
