105	105	3
43	43	13
82	84	3
85	86	3
90	126	8
126	127	4
21	21	7
12	12	9
111	114	1
100	100	6
114	117	4
76	76	10
47	47	8
40	40	10
41	42	3
28	29	1
109	110	2
15	21	6
117	117	6
0	0	4
23	23	21
96	99	4
87	88	3
84	85	4
92	92	8
45	45	4
49	49	5
2	4	1
109	109	7
24	67	2
38	39	4
55	55	5
46	46	2
95	96	6
105	106	3
58	85	2
107	107	10
5	5	4
72	72	7
104	104	13
4	44	2
64	69	5
52	52	13
27	28	2
77	78	7
22	22	3
101	103	4
67	68	2
101	102	3
59	81	4
39	40	9
70	70	12
107	108	10
78	79	7
38	126	2
114	115	5
114	114	4
93	95	2
20	20	7
22	48	1
50	51	6
52	53	6
99	99	9
19	21	2
59	61	5
94	95	6
2	2	10
44	44	6
68	69	4
45	53	2
16	16	13
17	45	5
118	119	3
58	59	8
88	89	5
8	9	3
33	34	1
79	79	2
86	86	8
87	87	8
118	120	3
26	26	3
117	119	2
61	61	5
116	117	5
66	68	1
1	1	5
104	105	5
123	123	16
38	38	4
65	65	12
127	128	1
19	19	8
78	81	2
91	93	1
54	54	13
120	120	13
31	33	1
88	128	1
79	84	3
110	110	8
90	90	5
72	116	1
14	14	6
16	18	4
133	133	7
26	29	5
81	81	6
72	78	2
124	125	2
3	3	6
53	53	14
103	103	13
102	103	5
122	122	5
16	17	6
113	113	2
54	55	3
56	56	7
78	78	8
29	30	1
116	118	2
126	129	9
89	89	2
87	89	1
118	118	4
56	58	1
21	48	4
98	98	5
102	102	10
96	98	1
82	82	8
111	111	6
29	41	1
5	23	2
97	113	2
51	51	15
126	126	8
42	44	2
130	130	2
9	9	6
81	97	3
112	112	5
97	97	8
80	80	14
31	32	2
24	24	9
121	122	3
40	46	1
93	93	9
129	129	4
83	84	2
42	46	2
93	121	1
42	42	8
18	22	3
85	85	5
8	8	4
70	71	2
71	72	2
55	82	2
27	29	4
10	10	2
83	98	7
27	27	4
19	33	2
11	63	2
121	121	5
116	116	2
17	22	2
94	94	6
25	115	3
41	41	7
7	16	1
82	96	6
124	131	6
80	81	8
25	26	3
48	49	1
15	15	14
68	68	3
95	100	1
73	73	15
106	116	1
15	23	1
19	20	2
69	69	5
39	41	2
59	60	4
41	44	2
89	92	1
29	42	2
5	118	2
13	13	6
74	74	2
28	28	4
71	71	1
7	7	1
17	21	1
48	48	7
67	67	9
17	44	1
75	76	1
57	58	1
97	98	1
100	102	2
62	62	5
54	56	3
115	115	5
7	15	1
62	63	5
91	91	4
75	75	5
120	121	5
108	130	1
111	116	3
108	108	3
11	12	2
69	70	2
75	78	1
23	34	4
125	125	4
101	101	1
93	96	2
74	84	2
32	33	1
18	19	4
125	127	1
128	128	3
25	27	4
32	32	2
95	95	4
4	4	6
74	98	3
119	119	10
60	62	1
25	25	2
113	114	3
83	83	6
10	27	1
55	76	1
3	109	4
89	91	6
73	81	1
103	104	2
128	130	4
99	101	1
132	132	4
40	45	1
43	44	2
131	131	4
92	121	1
48	55	1
130	131	1
65	66	5
16	24	3
99	100	2
39	39	2
110	114	4
24	25	3
66	66	5
40	66	1
97	105	2
73	74	2
77	77	6
129	130	3
66	67	2
50	50	8
108	109	2
14	117	1
109	111	4
14	16	1
5	34	1
33	115	2
123	124	2
30	30	2
89	90	1
3	5	2
38	41	2
115	116	1
15	16	4
88	88	1
12	19	1
115	118	1
13	14	4
46	47	2
110	111	4
57	95	1
87	94	2
38	98	2
72	125	1
37	38	1
111	112	2
84	87	1
73	76	2
81	83	2
124	124	6
98	106	3
92	94	1
38	40	3
57	57	2
6	6	2
8	10	2
93	94	3
51	52	1
60	63	2
50	57	1
60	60	4
125	126	1
53	57	1
14	26	1
79	80	2
31	31	3
96	96	3
73	98	1
79	82	3
46	48	2
112	113	2
90	91	1
18	21	1
33	33	1
59	59	3
106	106	2
120	125	1
30	41	1
49	50	2
102	105	2
18	18	3
92	93	1
40	119	1
88	90	2
7	114	1
12	27	2
8	63	1
94	96	1
53	112	1
65	68	1
29	29	1
60	61	1
127	127	3
71	79	1
34	39	2
61	63	1
99	102	1
111	118	1
62	68	1
72	73	2
58	58	4
34	34	2
111	117	1
98	99	1
20	21	2
99	105	2
23	25	1
127	129	1
58	65	1
7	9	1
42	43	1
41	43	3
83	97	1
55	84	1
24	30	2
117	118	1
75	129	1
74	97	1
21	34	2
68	79	1
77	108	1
39	127	1
23	24	1
45	54	1
111	113	1
65	67	1
63	63	1
6	17	1
83	85	2
29	78	1
122	123	1
64	64	1
8	28	1
17	23	1
3	4	1
93	125	1
82	98	1
86	88	1
97	106	1
61	62	1
97	103	1
103	107	1
