1	2	8
76	77	8
34	35	2
7	8	8
87	87	12
3	3	34
76	76	25
12	12	9
81	82	3
82	82	24
1	1	28
53	53	24
47	48	1
66	73	3
28	29	6
27	47	5
85	85	26
30	30	23
30	31	16
55	56	9
8	19	3
18	18	6
14	14	23
72	74	1
9	9	37
70	82	6
74	74	28
19	19	21
88	88	16
55	55	20
24	24	27
54	54	24
12	71	3
3	4	16
28	28	16
63	63	28
2	3	7
50	50	10
57	57	39
89	89	17
7	20	2
66	66	20
8	8	36
59	79	9
25	25	18
66	77	2
73	73	12
24	25	6
79	80	4
58	58	27
5	5	12
76	83	3
7	7	12
87	88	5
68	69	6
72	73	19
66	67	5
61	61	4
21	22	14
21	21	15
52	52	21
27	28	4
59	59	12
63	66	3
8	9	11
23	23	23
17	17	7
7	26	4
22	23	1
77	77	17
67	68	8
75	75	21
71	71	10
56	56	42
25	53	2
4	4	23
6	6	10
11	11	38
22	22	9
2	2	14
30	69	1
34	34	9
9	10	15
7	21	3
29	29	12
65	65	11
12	13	14
82	83	12
86	86	16
73	74	5
66	78	2
83	83	12
80	80	22
17	35	5
27	27	6
84	86	1
48	49	5
16	16	11
0	0	9
72	75	4
25	26	4
5	14	1
19	21	4
78	79	2
10	10	11
70	70	14
68	68	41
63	65	2
6	13	2
5	8	7
81	81	12
23	24	15
62	62	3
58	79	3
22	30	2
47	47	6
56	57	13
54	56	5
31	31	13
15	16	16
69	70	5
48	48	6
15	15	9
80	81	2
70	71	5
50	51	10
59	60	3
69	69	18
58	66	3
51	51	26
5	12	4
6	8	4
6	18	3
67	67	47
77	80	8
74	78	1
58	61	3
78	80	3
17	46	1
23	25	7
57	58	11
64	65	2
13	73	2
35	35	2
54	55	12
53	54	5
66	68	11
84	84	18
66	75	2
75	80	3
48	64	2
64	64	4
84	85	1
64	66	7
22	25	1
46	47	4
7	31	2
59	61	6
60	60	6
52	54	1
71	84	3
7	13	6
78	78	13
25	27	3
72	72	8
22	31	2
20	20	4
46	48	3
58	69	1
4	5	1
7	9	4
56	61	2
10	11	3
49	64	11
6	7	5
18	26	3
75	76	5
85	86	2
78	81	3
19	20	8
26	27	4
49	49	4
61	62	1
52	53	7
17	21	4
26	26	5
59	64	1
17	20	3
23	26	1
65	76	4
46	46	2
58	60	8
18	19	4
62	63	4
75	77	5
79	79	12
63	64	8
24	51	2
25	28	3
7	18	1
47	49	2
57	68	2
49	50	2
64	73	3
9	12	1
21	27	2
46	49	1
72	84	1
24	27	3
46	75	3
59	62	1
86	87	2
57	66	1
60	65	1
14	72	4
5	21	1
8	83	3
50	61	3
14	15	1
89	90	1
5	7	1
7	17	2
0	1	3
16	19	1
5	6	4
8	18	1
71	86	3
65	71	1
64	72	6
8	17	1
46	74	1
60	78	3
50	59	3
7	27	1
65	77	4
19	85	2
72	82	1
51	52	6
73	75	1
88	89	1
13	14	1
81	83	1
77	78	1
75	79	2
5	17	3
54	57	1
56	67	1
57	67	1
47	76	1
18	20	1
15	73	1
13	13	1
14	31	1
65	66	3
77	83	2
68	80	2
75	81	3
17	18	2
71	72	1
67	81	1
60	62	1
29	30	1
63	73	1
62	66	1
90	90	1
6	17	1
21	23	1
