129	129	17
166	166	9
152	152	2
55	56	5
92	93	8
47	51	4
72	72	9
131	132	3
116	116	10
18	18	10
124	124	2
102	103	5
140	141	6
85	87	2
73	73	8
15	15	8
158	158	9
10	14	1
139	140	5
24	24	19
134	134	3
13	13	16
88	88	11
21	21	5
86	87	9
161	162	4
12	12	11
9	9	16
77	77	8
146	146	4
100	100	9
133	135	5
41	48	2
42	43	2
82	82	7
121	122	3
136	136	16
137	138	9
105	105	4
99	99	7
63	65	2
103	103	3
57	57	2
156	156	7
44	44	10
34	34	13
104	107	2
165	165	5
55	55	6
116	119	1
67	100	1
144	144	19
81	82	3
6	6	11
95	95	7
47	47	9
119	119	4
3	3	15
157	158	3
125	125	6
6	8	4
54	54	3
16	17	1
43	43	16
11	12	2
6	7	10
103	105	1
87	88	5
111	111	6
2	2	14
115	118	6
130	130	2
18	19	2
48	48	7
37	37	9
135	135	11
5	8	2
143	143	8
56	56	8
33	33	2
20	22	2
39	39	7
82	112	2
9	19	1
19	20	1
63	63	2
22	22	4
113	113	2
159	159	10
9	142	1
93	93	1
108	109	1
74	76	4
49	55	1
65	65	3
131	131	2
14	14	17
19	19	11
45	45	11
51	51	10
159	160	2
7	8	5
133	134	1
69	69	5
67	67	4
79	80	6
157	157	8
127	127	5
75	75	11
138	138	12
78	78	5
10	11	2
119	120	6
112	112	5
49	49	8
10	141	2
37	38	5
108	108	8
39	53	4
112	113	3
14	15	11
122	122	2
5	5	4
8	24	1
74	75	1
41	42	4
101	113	3
139	139	7
17	17	8
41	43	4
153	153	3
10	10	9
0	0	6
40	40	12
20	21	5
53	53	3
44	45	6
115	123	4
17	18	5
113	114	4
111	112	4
17	24	4
27	27	4
123	124	2
123	123	5
161	165	4
3	138	2
86	86	7
8	8	8
158	160	2
96	96	4
151	155	2
10	12	3
110	111	1
160	167	4
110	110	8
64	64	1
107	107	2
114	114	4
165	166	6
121	121	4
102	102	9
52	65	3
137	137	13
25	25	11
126	126	7
62	62	4
161	161	4
81	81	3
132	133	3
124	125	2
7	7	18
140	158	5
167	167	1
5	6	7
38	84	1
1	1	7
114	118	1
137	156	3
13	18	1
115	115	4
48	49	3
148	149	2
20	23	7
120	122	1
96	97	1
132	132	11
81	116	2
15	19	1
36	40	1
76	77	4
163	163	1
108	126	2
38	38	15
74	74	4
101	101	1
90	104	2
73	74	2
64	65	2
155	155	2
142	142	3
1	135	1
50	68	3
66	66	6
106	106	8
35	35	6
110	116	1
149	149	6
112	114	4
164	164	2
1	138	1
119	121	3
52	64	3
15	22	3
50	50	6
26	26	5
13	167	2
152	166	1
128	128	3
169	169	2
49	120	2
36	45	1
9	10	4
52	52	11
147	148	5
35	36	1
168	168	4
45	47	2
20	24	1
13	15	2
100	101	3
4	36	2
15	23	1
35	38	2
113	115	1
46	46	3
45	46	3
95	135	1
97	99	3
64	69	2
141	141	4
41	44	1
76	76	2
8	9	1
4	4	4
131	135	5
133	133	6
70	70	7
148	148	4
13	14	3
132	156	3
154	155	2
77	78	4
153	154	4
116	117	1
36	36	3
24	25	9
103	104	4
52	53	4
98	99	2
42	42	4
19	89	1
11	11	6
20	20	3
104	105	1
162	165	3
104	104	2
4	136	2
120	120	3
112	124	4
37	41	1
28	28	11
97	101	1
124	155	4
150	150	7
56	57	2
22	23	1
145	146	2
38	40	2
1	2	6
160	160	3
56	65	1
170	170	1
90	102	1
115	116	5
16	16	3
125	127	1
168	170	4
50	52	1
87	89	3
84	85	5
144	145	2
9	11	3
152	153	2
97	97	7
9	12	2
41	41	6
88	89	4
17	91	2
66	68	1
132	137	1
142	145	1
91	91	2
125	126	1
134	135	2
85	86	2
164	165	3
27	28	2
154	154	1
74	85	2
155	156	5
34	36	1
7	10	2
8	11	1
25	26	2
146	150	2
89	144	1
85	85	2
149	150	1
92	92	3
106	107	1
15	16	4
63	70	1
116	118	1
128	154	1
90	90	3
68	71	1
35	46	1
8	20	1
6	15	1
2	3	5
2	17	1
40	57	1
126	127	2
136	137	1
52	67	2
91	92	2
151	151	3
19	144	2
18	20	2
21	23	2
43	44	1
63	77	1
89	90	4
147	151	3
89	89	2
82	109	2
83	83	3
123	154	1
7	14	2
118	119	1
98	98	2
38	41	3
35	45	1
128	129	1
73	76	1
107	108	2
117	118	1
113	123	3
135	136	2
80	80	2
159	169	1
71	99	1
151	152	1
33	34	1
68	69	2
118	156	1
150	155	2
3	4	2
44	47	1
76	78	1
23	24	1
48	52	1
39	56	1
103	106	1
118	118	1
69	71	1
8	140	1
34	35	1
23	23	2
15	18	1
82	90	1
109	110	2
94	94	1
109	109	2
79	157	1
70	71	1
39	40	1
131	169	1
65	67	1
101	102	1
133	166	1
113	159	2
18	99	2
167	168	1
127	152	1
