89	90	9
53	53	2
56	61	2
92	92	18
95	96	9
94	94	10
38	38	11
41	56	4
79	79	5
66	67	3
41	64	1
44	44	16
89	89	13
79	84	1
25	28	5
47	47	9
65	65	16
69	69	8
91	91	11
101	101	7
29	31	1
86	86	12
48	48	13
24	25	3
75	75	13
60	60	18
68	69	2
92	100	2
99	99	13
56	57	2
54	54	10
34	48	2
56	58	1
97	97	10
93	93	10
42	42	12
96	98	5
27	27	6
35	35	9
60	61	11
59	59	11
98	98	17
62	62	9
23	27	2
53	55	2
96	97	8
83	83	4
46	47	7
87	100	1
88	88	9
82	82	6
41	41	7
39	86	5
67	72	2
67	67	7
61	62	5
40	40	17
51	63	4
39	52	3
96	96	15
85	85	8
50	50	6
29	29	7
88	100	4
53	54	9
43	51	2
45	47	3
77	77	8
71	72	5
49	51	4
74	75	2
63	63	9
88	99	1
26	27	4
26	26	6
66	66	9
36	36	7
76	77	5
28	28	3
31	33	2
76	76	7
90	90	9
61	61	13
50	65	3
35	36	2
57	62	1
61	96	4
40	50	1
100	100	10
80	80	5
80	81	6
85	99	5
72	72	6
87	87	8
74	74	9
41	43	7
51	51	9
95	97	5
43	43	10
39	39	8
46	46	4
55	97	2
80	84	1
57	57	13
86	93	3
84	84	4
52	97	3
94	97	6
55	55	7
101	102	8
70	70	9
25	27	1
78	78	8
73	73	7
83	84	6
64	64	4
52	55	3
83	85	2
56	87	1
32	49	1
37	37	8
22	22	4
98	100	6
81	81	5
52	52	3
58	60	8
99	100	2
74	81	2
51	52	5
67	70	2
94	100	6
95	98	1
47	55	3
81	87	1
67	73	1
91	93	2
49	49	6
56	88	3
47	48	2
78	79	1
69	70	1
63	64	2
56	96	1
71	71	7
80	88	3
58	58	9
49	50	2
31	31	3
95	95	9
24	26	1
71	74	2
73	74	4
33	33	4
69	72	7
92	102	1
69	76	2
32	33	5
95	100	6
75	76	3
48	50	2
62	64	2
51	54	1
86	99	1
100	101	2
88	89	3
44	45	3
58	88	4
60	62	3
22	36	1
61	84	2
84	85	2
69	71	3
68	68	4
87	88	3
64	65	2
90	93	1
42	91	2
52	86	2
25	25	7
34	34	5
83	101	1
77	78	1
66	69	2
86	87	5
31	32	1
51	65	1
53	97	1
58	83	1
89	93	3
79	90	2
91	98	3
54	56	1
57	58	3
95	101	1
79	81	2
48	49	3
70	71	2
20	22	1
22	23	1
56	89	1
78	89	1
58	89	2
62	65	3
39	95	1
56	56	2
54	55	2
102	102	3
59	60	3
71	86	2
88	94	1
42	43	1
41	42	2
37	46	2
96	100	1
62	88	2
87	94	1
74	76	1
67	68	1
62	63	1
46	55	1
45	46	1
64	67	1
53	93	1
98	99	1
57	78	1
91	95	1
50	60	1
34	35	1
24	24	2
54	94	1
39	87	1
