80	80	12
29	74	1
175	175	6
6	12	3
74	75	15
59	59	19
163	163	24
208	208	12
217	217	7
135	135	6
21	22	8
215	215	3
85	85	5
207	208	3
18	18	21
48	50	4
63	63	15
101	101	7
86	86	10
153	153	11
54	65	4
20	21	5
154	154	5
70	70	13
62	62	7
96	96	18
152	153	5
11	12	7
165	165	3
177	177	9
79	80	3
232	232	17
108	108	9
127	127	13
177	179	2
37	37	11
28	113	5
69	69	12
48	48	6
71	71	12
5	5	9
5	6	2
189	198	1
52	54	6
25	25	7
44	48	1
124	125	4
11	11	23
68	69	4
6	6	9
55	55	12
221	221	6
31	33	3
77	77	6
241	241	3
53	53	9
21	21	7
122	122	9
200	201	6
33	34	10
231	231	6
142	142	8
104	104	22
128	128	5
199	201	1
137	138	3
19	19	24
185	187	7
160	160	3
10	10	11
44	44	11
203	203	2
73	73	9
179	179	7
56	56	14
228	229	6
207	207	11
52	52	6
171	214	7
23	23	8
4	4	12
32	39	2
190	192	1
190	190	6
29	31	4
17	17	7
166	224	2
47	48	9
200	200	7
216	216	2
24	27	4
133	133	3
9	10	7
45	45	6
40	41	8
174	174	7
15	227	2
210	210	11
230	230	7
18	40	3
192	192	8
171	171	3
162	162	3
33	33	15
166	166	6
72	109	2
194	195	7
121	127	4
74	74	15
180	181	4
227	227	2
236	236	9
82	123	3
19	88	2
55	56	6
65	65	9
158	161	5
233	234	2
212	215	5
1	1	7
81	81	11
157	159	1
17	84	2
31	31	26
202	202	11
32	32	8
24	25	9
64	64	6
28	28	17
188	189	8
154	157	3
78	79	4
26	26	18
24	24	6
29	36	8
199	220	2
214	214	6
206	206	6
40	40	14
4	6	5
79	82	3
6	7	2
60	61	4
142	184	3
114	118	2
53	55	1
193	193	8
70	100	3
80	81	5
119	119	6
150	150	7
220	220	6
21	23	6
203	231	1
81	82	4
0	31	1
165	166	6
143	143	10
72	72	11
200	204	3
48	57	2
161	161	6
159	201	3
42	42	13
3	3	3
148	148	5
199	200	11
138	138	4
156	157	5
180	182	4
194	194	10
226	226	3
102	102	12
164	165	4
153	154	4
158	158	9
99	103	2
140	142	3
51	61	3
196	196	3
172	173	3
2	2	7
1	2	3
188	188	8
69	108	5
9	9	11
123	123	5
120	121	4
227	229	13
176	176	13
18	84	3
201	205	4
183	183	6
12	33	2
27	35	7
239	240	4
19	20	1
83	83	7
13	13	8
18	19	9
38	41	1
187	187	6
30	31	1
66	66	7
137	137	5
129	130	3
187	188	12
212	217	3
14	15	4
20	20	6
121	121	4
180	180	7
36	37	6
75	75	14
192	195	7
10	33	4
237	237	11
184	186	6
70	71	8
23	25	4
127	128	1
106	106	8
27	87	4
142	143	5
84	84	19
54	54	16
24	28	5
221	222	4
195	195	4
28	29	4
140	141	5
159	159	2
49	49	5
28	74	2
215	216	4
230	231	13
204	209	2
204	205	8
224	225	8
5	7	1
95	95	1
189	189	11
112	112	3
120	120	8
22	22	17
105	106	10
22	23	8
7	7	2
35	35	8
47	47	12
83	84	3
42	43	1
223	223	3
212	212	7
39	39	20
100	100	3
107	107	6
145	145	5
91	121	4
177	178	15
1	5	2
212	213	8
104	151	1
210	220	2
203	212	3
43	43	14
60	60	9
50	50	3
205	205	3
225	225	3
73	74	8
101	102	7
57	57	7
199	199	7
164	164	4
8	8	10
72	73	8
51	52	6
130	130	4
30	32	1
184	184	3
36	36	10
238	238	5
226	229	3
83	85	4
54	58	3
218	218	15
62	63	2
55	63	1
34	34	3
198	198	6
96	97	1
38	48	1
63	70	1
60	62	2
166	205	4
58	58	1
133	134	3
78	78	2
191	191	1
69	71	4
29	29	12
229	229	18
118	118	4
58	59	5
50	54	3
27	27	14
15	18	2
71	72	5
98	98	3
101	131	3
3	8	3
141	143	3
33	38	2
133	196	1
229	230	2
205	230	2
217	218	7
151	151	5
47	59	1
178	178	16
233	233	12
111	111	2
103	103	3
14	14	5
51	51	6
15	17	2
65	72	5
74	78	1
24	33	2
171	204	2
38	38	9
219	219	4
79	79	7
43	46	4
144	146	3
64	65	7
30	36	1
72	101	1
12	12	16
173	173	2
38	39	6
19	21	7
157	158	2
169	206	5
56	57	5
201	201	13
214	225	6
168	168	3
181	184	6
220	221	6
89	103	1
109	109	3
191	193	5
112	113	2
106	107	3
226	228	5
134	134	5
17	18	3
182	182	7
207	218	6
157	157	2
145	153	3
85	86	4
136	139	3
202	231	2
186	186	2
80	127	3
6	8	1
146	148	5
223	224	10
220	222	3
117	117	5
67	68	4
20	24	1
65	68	4
71	166	1
139	141	3
218	221	1
155	155	2
26	28	1
239	239	6
84	85	7
24	29	2
164	203	1
15	15	6
241	242	7
24	26	5
41	41	10
30	30	13
6	9	3
222	222	2
98	99	8
105	105	4
65	66	4
134	135	3
99	100	3
208	210	2
124	124	1
22	200	1
78	89	1
45	46	4
147	161	3
187	189	2
47	49	1
182	189	1
68	103	1
157	160	2
53	54	4
16	21	4
129	129	2
0	1	4
223	225	1
212	214	4
156	237	3
31	59	1
69	70	6
46	61	2
169	169	2
44	45	1
135	159	1
76	86	1
32	35	1
170	171	1
139	139	1
0	0	4
144	155	4
133	140	4
234	234	5
3	7	3
61	61	13
43	72	3
116	118	4
117	118	4
48	53	1
113	113	3
72	78	4
159	162	4
134	140	3
194	212	1
60	75	2
16	17	3
213	213	9
16	16	4
181	181	8
76	76	11
46	47	1
78	104	2
209	210	2
88	88	7
23	24	1
180	183	1
103	104	2
140	140	9
211	212	2
174	219	2
11	179	2
114	115	5
239	241	2
59	60	2
107	108	2
31	32	1
192	197	4
1	16	1
62	66	2
24	42	2
166	167	1
226	227	5
46	46	2
159	160	3
76	81	1
51	54	1
224	224	6
95	99	1
191	192	2
231	237	1
115	115	3
164	202	4
15	41	2
54	55	5
232	233	4
219	220	1
75	77	3
43	64	3
34	35	3
145	149	3
95	101	2
48	54	3
86	121	3
21	34	1
132	136	1
157	233	3
151	153	1
26	27	4
235	235	8
156	232	3
73	110	2
86	201	1
5	85	5
197	198	7
66	67	1
48	49	2
147	148	3
173	174	4
25	28	1
231	240	2
228	230	2
1	25	2
79	81	2
242	242	4
101	108	1
116	116	1
53	56	2
228	242	1
208	217	1
184	185	1
142	144	2
137	146	3
20	30	2
89	95	1
194	196	1
25	26	5
10	15	3
12	13	2
205	208	1
49	50	2
122	124	5
49	51	2
171	211	2
114	114	4
47	56	4
48	105	3
89	89	5
74	76	2
64	73	2
168	169	1
2	11	1
179	180	1
213	214	2
2	23	1
4	5	1
204	204	3
40	48	1
7	8	1
40	42	1
192	196	1
144	145	1
32	48	4
172	172	6
69	72	1
9	25	1
209	209	9
152	152	2
76	105	3
87	88	1
88	102	1
145	147	1
216	217	2
147	147	2
9	11	1
29	30	3
228	228	2
166	229	1
60	63	2
111	112	1
70	72	1
10	12	1
128	129	5
41	67	1
44	47	3
43	86	1
99	99	2
23	26	1
8	226	1
235	236	2
100	101	7
19	29	1
1	13	1
8	9	1
156	156	1
30	123	1
68	68	1
28	47	1
143	150	3
81	83	1
232	242	1
71	100	2
193	196	2
209	217	2
65	67	1
7	9	1
82	82	2
186	187	2
68	71	2
95	96	2
195	220	1
11	13	1
109	132	3
66	101	2
160	164	2
39	40	2
86	88	1
35	37	1
185	186	1
61	62	2
37	38	3
34	36	1
189	216	1
67	67	1
199	222	2
45	86	2
77	78	1
141	154	1
141	141	1
2	12	1
77	79	2
197	199	1
163	165	1
162	163	1
52	53	1
86	114	1
144	144	1
97	97	1
96	135	1
135	136	1
13	15	2
217	219	2
63	64	1
50	51	1
183	189	1
16	19	1
149	238	1
71	73	1
13	33	1
111	113	1
82	84	1
49	60	2
202	226	2
19	31	1
146	146	2
231	233	1
136	136	1
33	36	1
73	75	1
1	31	1
218	220	2
13	14	1
1	46	1
167	168	1
161	163	1
2	7	1
82	83	1
160	161	1
202	206	1
134	137	1
