72	73	10
106	106	10
123	124	5
124	125	4
8	8	9
35	35	12
33	33	4
31	31	9
13	30	1
50	64	2
105	105	11
86	86	7
96	96	6
69	69	7
99	133	5
39	39	15
10	10	5
108	120	3
82	111	2
80	81	3
20	20	5
121	121	7
120	126	4
27	80	2
52	52	2
116	118	7
67	67	7
153	154	1
85	86	1
92	113	5
6	6	7
68	68	15
33	56	5
27	28	4
54	54	5
51	51	5
41	57	1
22	24	2
138	139	6
25	25	16
61	68	2
88	94	2
126	126	13
27	27	8
38	38	11
33	38	1
24	29	4
13	13	15
131	132	5
55	55	8
7	8	2
95	96	4
82	83	1
23	23	7
76	85	5
73	96	2
40	40	6
105	113	4
38	40	1
65	67	3
94	95	5
24	25	4
107	107	6
7	9	2
97	100	2
93	94	2
120	121	6
17	17	22
25	82	4
143	144	3
69	97	5
62	62	3
13	28	3
36	37	7
131	131	5
9	9	15
34	36	1
30	31	1
125	130	1
39	41	4
95	95	5
64	65	2
21	21	16
117	117	5
65	98	2
83	83	14
82	82	5
101	103	1
72	72	12
6	7	5
32	33	8
43	44	6
110	115	1
79	80	6
87	88	3
128	128	10
94	114	2
70	70	4
22	30	1
30	30	4
43	43	12
33	36	8
64	66	3
147	147	4
100	100	6
45	45	5
77	78	3
82	93	1
123	123	5
142	142	4
34	34	7
50	50	11
116	119	1
65	65	7
16	30	2
136	136	6
53	53	14
144	145	3
117	123	2
147	148	5
4	4	6
42	51	2
113	113	1
148	148	1
105	138	1
77	79	6
74	75	2
48	48	11
54	55	2
19	21	2
70	76	4
141	141	9
144	146	4
37	37	5
63	63	4
78	79	2
88	88	2
16	16	8
102	102	5
142	149	3
85	85	12
56	57	2
5	5	8
37	40	7
33	37	2
58	58	1
67	70	2
133	137	1
12	12	7
41	42	6
78	78	5
112	112	3
31	41	3
152	153	2
115	120	4
96	106	1
145	145	7
62	63	5
15	16	5
135	135	7
77	77	9
14	14	3
14	15	2
28	79	1
51	52	3
68	69	3
124	124	7
99	99	7
49	52	2
99	104	1
33	34	4
19	19	4
4	5	2
136	137	3
57	57	12
55	56	6
146	146	9
50	51	2
141	143	3
104	105	1
103	114	1
74	74	7
17	24	2
100	129	5
26	28	3
6	8	1
151	151	11
125	137	3
87	112	3
87	87	5
105	125	1
129	130	1
83	93	1
71	71	2
12	33	3
63	64	2
73	73	5
42	49	4
72	75	1
140	140	1
81	84	2
98	99	1
8	11	1
116	125	3
26	26	4
20	21	10
38	39	5
46	46	3
66	74	1
118	118	13
86	88	1
5	49	2
150	150	4
136	138	6
122	126	2
62	68	1
154	154	8
64	64	6
18	19	4
64	98	4
106	107	11
126	128	3
119	124	2
128	129	8
39	40	9
132	134	3
121	123	7
133	134	2
18	18	5
24	24	5
118	119	6
146	147	3
64	68	3
34	35	2
80	112	3
75	79	1
49	50	1
123	129	1
8	9	1
113	121	2
78	83	2
32	38	3
47	47	6
124	128	2
149	149	5
150	151	3
66	75	2
94	94	14
85	108	1
41	43	4
72	83	1
13	14	3
82	84	1
117	118	1
152	152	2
46	47	5
69	77	2
18	23	4
8	21	3
148	149	3
76	76	7
67	105	1
75	75	5
137	150	1
15	35	11
28	28	3
13	25	2
10	11	9
120	120	1
106	108	2
20	24	3
114	114	5
85	147	1
67	72	1
51	63	2
138	143	2
32	50	1
122	122	1
145	146	2
117	122	1
42	42	4
12	24	2
31	32	2
96	97	1
80	80	5
25	61	3
111	114	1
68	97	3
65	68	1
8	10	2
125	136	1
153	153	1
139	143	1
79	83	1
19	24	2
63	76	2
32	32	1
41	41	3
66	67	2
132	132	4
94	112	1
22	22	1
116	116	1
26	98	1
7	31	4
53	54	1
44	48	1
5	6	3
74	82	1
18	22	1
139	139	3
127	145	2
20	22	1
19	27	1
86	97	2
144	144	2
103	103	2
79	81	2
127	130	5
32	37	2
100	125	3
125	125	4
26	97	2
22	23	2
3	4	1
3	5	4
68	77	1
25	27	1
133	144	2
137	137	3
49	49	6
91	92	3
11	23	4
45	49	1
133	133	3
15	18	1
36	36	6
11	13	2
66	99	1
92	92	2
107	114	2
103	110	1
77	81	1
127	127	2
44	52	1
16	17	5
75	114	1
31	33	6
26	66	4
25	30	1
103	111	1
26	27	3
77	80	2
107	108	2
86	94	3
40	41	1
106	114	1
98	114	2
73	78	2
83	87	3
47	154	1
87	93	1
115	116	1
27	62	1
111	112	2
47	48	2
145	148	2
32	36	2
115	140	1
72	85	2
89	90	1
108	125	2
22	95	1
29	29	1
112	114	1
64	76	1
44	45	1
97	98	1
102	112	2
37	38	2
13	29	2
15	34	2
108	115	1
30	62	1
35	36	1
27	30	3
122	124	1
48	53	1
75	76	2
82	85	3
48	69	1
42	53	2
28	66	1
28	83	1
130	132	1
93	99	1
74	79	1
55	63	1
15	29	1
101	101	1
43	51	1
52	53	1
104	104	1
91	115	1
126	127	1
14	77	1
119	121	1
18	21	2
39	44	1
93	93	1
139	140	1
15	15	3
17	19	2
128	130	1
12	16	1
67	74	1
30	32	1
28	29	1
85	114	1
108	108	1
44	44	1
6	17	2
89	89	2
90	94	2
146	148	1
7	24	1
54	57	1
55	58	2
53	55	1
84	84	1
98	98	1
141	142	1
21	22	1
43	45	1
66	66	1
139	144	1
115	119	1
44	76	1
130	130	1
