40	207	2
84	84	1
99	99	3
204	204	2
14	14	6
113	113	8
193	193	10
20	21	4
16	16	2
109	109	2
15	15	8
40	41	7
100	119	1
115	116	3
234	235	2
173	173	6
59	60	6
166	166	2
66	69	4
103	103	2
152	152	1
39	42	1
79	110	1
57	59	3
55	55	7
100	100	5
189	189	4
76	76	5
83	83	5
221	221	6
99	133	2
232	232	10
66	67	5
175	175	2
206	206	2
154	155	1
69	99	3
40	40	6
41	41	5
201	201	5
61	110	2
98	98	3
136	136	9
236	236	2
105	105	4
61	64	1
0	1	1
16	18	4
70	70	12
103	104	1
144	144	6
10	10	3
26	26	9
228	228	2
27	27	10
42	42	8
46	46	8
151	158	2
11	11	8
233	239	5
62	62	4
85	86	1
151	151	4
143	143	4
209	210	1
67	74	5
89	89	2
217	220	2
24	25	1
210	225	1
188	189	1
150	150	4
80	80	2
164	164	4
42	43	2
75	178	1
217	217	4
221	222	1
3	11	3
54	55	1
101	101	2
123	123	2
9	9	13
24	24	6
42	54	1
45	45	2
29	30	1
199	199	5
149	149	4
69	212	1
8	8	4
50	50	5
62	63	3
85	85	13
32	32	3
30	30	3
229	229	2
60	60	5
203	206	4
116	116	2
160	160	4
195	201	3
36	36	3
19	19	7
6	231	3
238	239	1
25	25	8
52	52	4
216	218	1
200	200	4
235	237	4
70	225	6
65	72	4
75	76	2
12	12	3
233	233	5
67	67	3
59	63	2
18	44	1
156	156	1
176	176	3
202	203	2
159	159	2
176	199	3
17	35	2
190	190	6
203	204	1
205	205	4
53	53	5
239	239	3
223	230	1
211	211	1
207	207	6
70	72	2
107	107	3
50	68	1
44	53	2
140	140	1
63	63	3
225	227	3
148	149	2
240	240	3
202	202	3
146	146	5
11	13	1
115	115	2
145	145	2
211	212	2
187	187	4
216	216	2
39	39	2
178	202	2
66	66	8
119	119	5
84	96	1
238	238	7
57	68	3
50	82	1
169	169	2
63	86	3
37	38	3
241	242	1
241	241	3
192	192	4
187	199	3
28	28	5
127	128	2
37	43	4
4	6	2
166	198	2
15	16	1
170	170	7
27	31	3
134	134	4
180	180	2
14	218	2
136	173	2
185	186	4
48	48	5
183	183	2
37	37	2
224	224	4
208	208	5
6	6	1
47	47	5
143	155	2
205	206	6
123	125	1
203	203	2
102	104	2
29	29	4
210	212	1
219	219	6
23	23	8
20	20	2
91	91	1
54	54	5
153	153	1
128	136	2
145	154	2
75	75	6
84	85	1
44	44	2
0	0	1
124	124	1
64	64	6
192	195	1
27	28	4
219	231	1
128	128	5
121	124	3
40	68	2
2	2	4
184	184	2
125	125	1
76	77	1
13	15	1
42	44	4
108	108	7
63	74	1
242	242	1
118	118	3
133	133	4
185	237	1
211	213	2
69	214	1
71	71	1
64	65	3
168	168	7
97	97	1
223	225	1
157	158	1
9	10	3
82	84	1
83	84	2
6	235	1
53	54	1
175	179	2
14	15	1
143	145	2
57	57	1
147	148	2
72	72	2
3	3	5
137	137	2
31	41	2
199	201	2
233	234	1
165	166	2
2	3	5
31	31	1
29	32	2
174	174	1
215	215	1
178	178	2
194	194	2
122	124	7
109	110	3
78	78	2
69	210	2
17	21	4
20	24	1
81	82	2
222	222	2
68	69	1
21	22	1
16	17	1
69	69	1
198	198	1
192	201	2
13	14	4
60	61	1
209	209	1
227	227	2
170	176	1
198	199	1
164	165	1
207	208	1
111	111	3
18	19	1
152	158	1
153	154	1
171	171	2
138	139	1
104	104	1
122	122	2
90	100	2
81	83	1
230	231	1
170	175	2
222	230	1
125	129	3
199	200	2
163	165	3
231	231	1
28	29	1
223	223	1
194	196	1
83	86	2
220	221	2
101	102	2
183	188	2
25	39	3
17	22	1
122	126	1
121	121	1
74	78	1
237	237	1
74	183	1
26	43	2
82	83	1
174	183	2
235	235	1
141	142	2
209	222	3
68	68	2
46	50	2
22	24	1
234	234	2
114	119	1
140	164	1
56	56	1
161	161	1
161	163	1
19	21	1
81	89	2
59	59	1
20	43	1
5	6	2
77	79	1
197	205	1
38	38	1
127	127	1
66	68	2
77	77	2
161	166	1
142	145	1
148	148	1
105	135	2
124	125	1
141	141	1
12	13	1
126	126	1
11	24	1
159	162	1
138	138	1
33	38	1
30	55	1
133	140	1
14	59	1
220	220	1
235	236	1
21	21	1
