33	34	2
12	113	6
56	58	4
37	38	8
186	186	12
76	77	1
234	235	8
227	239	4
246	247	7
157	157	20
160	160	14
47	78	1
26	26	19
157	158	8
222	222	14
145	145	8
91	91	14
92	169	2
216	216	8
46	46	8
186	212	3
92	92	8
169	169	13
91	92	5
113	114	6
150	150	17
204	204	24
56	56	4
114	114	16
156	156	25
111	204	4
177	178	4
221	221	8
181	214	2
10	11	5
12	114	2
201	201	23
18	18	9
65	65	13
108	154	3
22	22	9
9	9	12
37	37	22
175	175	9
225	225	9
89	89	5
157	159	11
66	67	4
95	95	9
23	23	18
58	59	10
154	154	17
11	11	5
89	116	6
110	110	15
69	69	10
155	155	10
46	68	3
60	71	4
85	85	4
162	162	8
98	99	5
95	98	2
94	95	4
226	226	14
112	112	7
167	167	18
177	177	7
111	112	10
2	2	7
175	196	1
5	5	20
3	179	3
65	66	4
229	230	3
61	62	18
161	168	2
116	117	2
218	218	8
27	45	1
31	32	7
161	161	11
43	43	16
78	78	7
67	68	3
194	195	6
30	34	1
202	202	8
74	74	4
32	35	8
155	156	4
40	40	14
238	238	4
210	211	5
15	15	10
63	64	3
41	41	8
236	237	5
29	29	9
75	90	1
212	213	3
214	215	5
222	223	1
14	14	6
176	177	4
182	184	3
191	213	3
245	246	2
236	236	5
208	208	13
207	207	18
244	244	9
61	61	11
8	8	10
164	164	13
52	54	1
206	206	12
30	30	5
52	52	11
55	55	20
102	105	3
50	50	7
187	190	2
67	67	15
212	212	22
38	38	14
196	196	14
178	178	12
21	36	3
248	248	2
151	151	17
5	239	2
28	29	6
152	153	7
170	170	7
193	193	10
167	168	4
51	88	2
88	89	5
27	28	1
185	187	4
244	245	6
162	163	8
7	7	16
45	45	6
57	60	3
211	211	14
176	176	7
20	20	18
64	65	2
158	158	4
49	49	10
60	60	11
229	229	8
4	5	6
187	192	2
109	109	10
197	199	3
64	64	6
76	96	3
181	182	1
17	18	5
190	192	3
103	103	4
159	159	18
63	66	2
100	167	5
233	234	5
71	74	2
168	168	1
33	33	7
82	82	3
47	47	15
217	218	6
233	235	3
17	32	2
177	183	1
163	163	3
221	222	5
209	209	5
91	169	3
66	66	13
30	49	3
180	180	9
32	32	9
86	87	13
6	7	2
168	169	2
173	178	3
234	234	18
29	31	1
19	47	3
213	214	4
23	24	1
59	59	9
174	220	1
19	25	1
21	21	8
78	80	3
53	53	13
111	114	1
200	201	3
224	224	2
34	35	6
230	230	5
173	174	3
15	16	3
199	199	13
48	48	10
24	24	8
26	112	3
17	20	4
146	146	4
190	191	8
183	183	14
35	35	4
36	36	4
172	173	6
25	26	8
101	167	2
72	175	4
166	166	2
203	207	2
86	86	2
161	167	7
163	167	2
19	19	4
119	119	6
237	237	4
6	6	10
83	87	3
116	116	6
208	209	7
34	38	6
94	97	1
197	209	2
68	68	13
235	235	10
50	51	5
240	240	4
18	27	7
80	80	9
16	17	1
74	75	8
96	96	5
179	179	10
57	233	1
241	241	11
79	80	2
31	38	1
201	209	1
152	152	11
28	28	7
204	205	6
14	45	2
200	200	13
94	100	1
231	231	13
34	34	9
57	57	6
3	176	3
53	58	2
70	71	1
232	232	13
205	205	1
118	240	1
48	78	3
32	230	5
60	61	3
174	174	11
202	203	3
16	19	1
210	210	6
171	171	3
198	198	3
161	164	2
157	160	2
153	154	3
10	37	1
219	220	2
213	213	12
189	189	9
39	39	7
223	223	13
227	228	3
79	79	3
246	248	4
183	185	2
205	206	2
242	242	8
27	27	3
18	226	1
243	243	5
42	46	1
179	180	4
33	233	2
241	242	6
77	77	5
197	198	3
201	203	1
94	98	1
161	162	2
58	67	3
247	248	7
153	162	3
220	220	7
43	45	1
172	174	3
63	63	2
94	94	8
154	155	7
151	152	2
24	31	3
166	167	1
109	238	6
203	203	7
87	88	3
151	174	1
17	17	2
185	186	2
44	44	9
185	185	12
47	176	2
183	190	2
111	154	3
211	212	9
154	157	4
196	211	2
28	46	6
42	43	5
195	213	1
102	109	1
173	173	6
175	176	6
225	226	2
188	189	1
68	69	3
168	195	2
179	212	1
16	16	2
48	87	2
227	227	15
14	15	1
91	115	1
90	90	8
48	50	2
51	52	4
100	101	3
63	65	3
181	181	4
198	199	4
114	115	8
196	199	2
175	177	4
119	120	4
200	202	4
75	75	3
226	227	1
81	84	2
93	94	11
207	208	1
240	241	5
207	223	2
38	39	1
72	82	3
91	93	2
28	146	3
19	27	2
200	203	3
76	169	4
110	246	2
158	159	5
182	183	4
20	32	3
227	233	2
21	22	5
0	2	2
63	67	2
5	6	4
115	116	5
153	153	10
117	117	2
46	62	1
109	236	3
205	207	2
190	190	2
94	168	1
57	59	2
45	86	4
19	29	2
151	204	1
53	54	1
85	86	2
199	200	4
1	26	1
48	153	1
113	115	2
40	41	2
172	172	1
10	10	3
245	245	5
232	233	2
174	175	1
157	164	2
111	111	12
170	172	1
72	98	3
169	170	2
215	215	6
2	34	4
176	179	4
174	193	1
108	110	2
58	58	6
29	30	4
192	192	6
105	105	3
239	239	4
181	213	2
87	87	5
180	183	3
41	54	4
112	113	1
8	45	1
113	113	3
18	32	1
4	4	3
72	170	2
31	31	7
188	188	5
52	53	2
12	38	1
70	175	2
67	72	1
90	92	1
37	39	2
41	42	5
47	48	4
54	66	4
79	81	2
203	226	5
90	91	1
184	184	8
13	14	8
25	31	3
145	158	2
209	211	1
97	97	2
84	85	3
103	108	2
197	197	6
42	55	2
17	19	3
167	206	1
214	214	6
224	226	2
7	31	1
62	62	6
183	184	2
99	209	1
71	89	1
233	246	1
94	167	2
102	102	4
203	242	3
106	107	2
180	181	3
197	221	2
239	240	7
59	62	1
101	103	2
43	44	3
76	81	2
8	11	1
26	28	1
186	187	3
245	248	2
231	232	2
32	33	4
99	99	2
174	225	1
12	12	4
209	210	5
101	101	4
246	246	3
72	75	1
54	55	3
19	32	2
56	68	2
93	168	3
105	107	1
105	106	5
1	1	5
12	15	1
85	90	2
160	164	3
30	31	2
17	107	2
197	211	2
115	115	8
203	205	3
187	187	5
49	50	3
59	60	1
95	96	3
114	145	2
75	83	1
14	38	1
46	61	1
98	98	6
96	208	1
9	30	2
12	44	2
32	36	2
215	217	1
5	41	1
165	165	3
82	83	2
2	4	2
81	81	2
36	44	1
152	154	2
108	167	5
46	47	1
109	246	2
160	161	2
96	97	2
219	224	1
118	118	1
233	233	3
75	173	2
195	195	6
55	56	3
178	179	1
107	108	1
55	205	1
107	107	1
64	68	2
108	108	8
45	53	2
79	100	1
93	114	2
51	51	6
249	249	1
41	65	2
37	52	3
46	52	1
226	239	8
187	188	3
182	182	6
195	199	1
223	226	2
176	181	2
224	225	1
184	185	2
194	194	4
93	93	3
71	71	3
28	201	2
106	110	1
204	212	1
158	165	1
75	169	1
242	243	2
248	249	2
71	73	1
216	218	2
19	33	1
247	249	1
204	226	2
42	42	2
234	236	1
70	88	1
207	209	1
108	109	1
8	25	1
155	164	2
56	189	1
34	39	1
43	54	2
200	244	1
15	29	1
94	206	1
93	95	1
62	205	1
52	62	2
47	64	1
15	28	1
10	16	1
54	54	3
6	15	3
157	165	1
162	178	2
195	197	1
221	247	1
57	61	1
219	246	1
151	156	1
169	181	1
172	213	1
61	158	1
219	219	2
110	205	3
57	58	4
156	162	2
114	116	1
52	117	2
144	145	2
226	228	2
45	54	1
3	3	1
0	229	1
206	225	1
182	192	1
213	219	3
44	45	2
167	169	2
12	17	2
25	25	6
64	66	2
111	245	2
30	33	1
13	13	1
69	70	1
19	30	1
84	84	3
45	68	1
155	168	1
17	241	1
228	229	1
227	230	1
162	167	1
16	53	1
7	8	1
106	106	1
147	147	2
202	222	2
61	165	1
184	188	1
192	193	1
150	151	1
64	88	1
191	191	1
146	147	1
247	247	1
165	177	1
69	87	1
100	109	1
189	190	1
100	100	1
20	34	1
110	112	1
172	178	1
1	3	3
96	98	1
198	211	1
235	236	1
39	40	2
237	238	1
188	190	2
76	91	2
223	224	1
210	216	2
56	57	1
8	10	1
246	249	1
70	87	1
8	9	1
33	35	1
184	192	1
206	210	1
196	197	1
230	235	1
200	205	1
163	164	1
110	204	1
173	182	2
149	149	1
