117	117	13
99	99	9
78	78	20
153	153	20
113	114	5
13	13	22
20	21	6
106	106	18
150	150	19
30	30	24
38	38	33
147	147	19
5	10	12
64	64	7
93	93	18
4	4	33
29	29	37
33	33	29
134	172	4
18	18	23
54	78	1
110	110	5
175	178	2
52	52	12
111	116	1
36	36	43
103	106	1
41	42	19
159	159	17
34	35	10
103	103	5
25	25	33
127	127	16
76	76	6
168	168	18
176	176	11
124	125	11
173	173	23
132	132	3
135	135	18
41	41	35
22	22	21
115	115	10
125	125	11
156	170	2
14	14	36
107	107	5
74	74	22
167	167	30
7	7	21
28	28	38
152	152	10
35	35	41
10	10	38
54	54	17
75	76	1
94	94	14
31	32	5
3	20	3
32	32	43
33	34	19
146	147	6
56	57	8
156	157	5
136	136	14
81	82	4
102	102	12
83	83	16
82	82	13
100	100	9
20	26	2
131	132	4
15	16	11
17	17	31
37	37	31
110	111	5
50	52	5
87	87	18
126	126	14
59	59	17
32	33	26
88	88	16
8	33	4
164	166	2
80	80	23
116	116	13
15	15	36
12	13	21
70	70	4
45	45	12
163	164	3
87	132	2
160	163	3
17	18	12
20	20	24
101	101	8
7	34	8
39	39	21
75	85	2
23	33	2
24	26	10
104	104	9
122	122	23
76	86	1
5	24	4
7	177	1
81	81	10
60	65	8
37	38	7
115	166	3
24	24	30
39	40	12
144	147	2
143	143	13
28	44	2
12	12	25
84	109	6
49	50	2
149	149	23
11	13	6
18	20	8
144	144	9
7	25	2
171	171	9
8	9	18
21	31	5
6	15	9
91	94	2
133	133	17
27	27	38
72	74	2
119	119	19
137	137	10
142	142	6
154	154	23
26	28	5
59	61	3
0	0	18
178	178	9
98	98	18
2	2	31
9	9	27
14	33	3
115	119	1
141	141	12
6	6	17
15	33	2
20	25	1
0	1	16
172	172	11
140	151	8
87	89	2
31	31	19
12	19	8
25	37	3
73	98	1
141	142	5
1	39	3
72	72	12
145	145	14
106	133	2
136	159	3
89	90	4
89	89	18
11	31	8
25	30	10
53	61	7
74	75	9
42	42	26
5	5	26
19	20	13
90	90	9
64	115	1
4	43	3
40	40	23
162	167	3
26	26	13
7	16	5
53	53	8
25	28	7
52	58	1
27	30	1
1	144	4
79	79	25
71	71	26
11	22	7
58	58	9
111	111	18
65	66	8
25	29	2
123	124	14
6	10	3
140	140	17
6	7	11
88	89	3
110	152	3
28	58	2
104	106	4
142	143	8
120	121	15
85	85	8
67	87	4
96	96	13
100	105	4
174	174	8
161	161	9
62	62	14
20	24	1
160	160	15
63	109	3
64	108	1
5	16	2
21	51	1
67	67	11
111	115	5
76	77	8
121	121	6
21	21	22
3	5	3
16	180	2
86	88	12
49	49	9
70	74	3
35	41	6
147	148	6
11	12	12
127	139	1
98	122	6
166	166	15
27	31	1
165	166	15
16	26	2
70	71	1
123	123	11
1	2	8
138	138	7
51	51	10
121	126	2
1	40	2
8	8	29
160	164	4
131	131	18
18	19	7
139	176	6
72	98	4
109	112	4
108	108	15
64	71	3
150	158	2
172	173	7
34	34	20
46	46	7
21	44	2
114	114	9
116	168	4
90	91	6
1	8	3
23	23	23
139	139	21
62	63	7
1	1	16
16	31	2
169	169	10
160	166	2
60	60	24
120	120	10
143	146	3
147	153	4
97	98	7
24	25	7
5	42	11
148	148	15
40	42	2
95	95	9
2	22	1
151	163	1
177	178	2
154	155	6
19	21	2
22	38	3
18	26	2
99	101	1
1	19	1
88	107	1
92	92	8
105	107	2
132	139	6
31	44	5
25	26	9
142	149	6
86	87	5
124	124	18
160	167	1
158	161	4
57	58	4
11	11	25
165	165	10
23	34	1
179	179	11
143	144	5
13	14	10
95	114	2
155	156	12
89	93	4
57	57	6
6	11	3
17	40	1
151	153	2
92	106	3
50	50	16
30	31	9
151	151	18
9	11	2
176	177	2
137	138	9
164	164	9
2	3	8
28	29	2
155	155	8
3	4	6
43	44	12
157	157	17
140	162	1
23	32	4
143	153	1
141	152	1
101	105	5
52	53	20
163	168	3
132	174	3
21	58	4
14	159	2
62	128	1
20	49	3
158	158	8
25	58	3
27	28	23
4	8	1
84	99	4
44	44	17
71	78	3
150	156	1
145	165	3
70	128	2
11	18	2
141	176	3
14	22	3
10	14	10
109	109	12
62	67	2
91	91	15
111	114	1
120	123	1
102	106	2
22	23	10
10	35	3
96	97	3
114	131	2
134	134	11
19	24	1
17	37	2
145	170	1
15	42	2
128	160	2
142	147	5
101	103	3
8	30	4
86	89	4
24	34	1
114	122	2
91	101	2
2	11	1
92	93	2
33	35	3
126	153	3
161	162	5
94	114	3
5	21	6
3	3	35
108	166	3
57	60	1
61	63	1
16	17	7
15	27	5
36	57	4
61	61	6
79	83	3
0	19	2
16	21	4
43	43	19
13	34	2
135	159	5
12	22	2
77	77	8
149	176	3
127	140	1
17	30	1
21	26	6
96	113	4
38	43	3
25	27	9
158	159	5
5	35	4
143	164	2
122	133	4
73	100	1
162	162	15
122	123	3
151	158	1
84	84	14
94	98	6
9	13	3
97	121	3
136	157	4
117	127	1
78	149	1
153	154	3
66	66	6
16	16	19
152	153	11
108	165	1
75	75	9
144	170	3
72	84	1
43	45	2
175	176	2
132	176	3
112	112	14
142	146	1
64	110	3
163	165	12
55	122	5
97	97	9
61	62	1
65	67	4
130	130	1
149	150	1
17	38	1
8	14	1
16	37	2
56	56	6
1	37	4
157	167	3
115	140	4
94	97	2
42	45	1
39	59	2
38	58	2
138	146	6
117	129	2
136	154	3
39	41	3
160	168	3
19	19	14
71	74	1
81	91	2
116	118	11
26	30	2
155	157	2
81	92	2
119	121	9
76	80	6
111	123	4
113	113	10
102	103	4
135	170	1
13	22	2
132	133	6
34	36	4
162	168	3
12	31	3
85	86	1
101	102	3
170	170	6
156	156	6
167	176	5
50	51	4
14	15	5
5	177	1
9	10	12
4	41	1
8	13	2
101	120	3
95	96	7
93	104	3
129	146	1
21	22	6
8	29	3
126	150	1
175	175	4
146	169	3
142	173	4
150	171	3
104	179	4
10	32	2
166	167	2
139	160	3
97	166	4
17	39	3
101	104	2
33	39	2
153	171	2
32	40	2
84	92	3
128	128	4
136	155	1
30	44	3
44	45	10
95	158	1
93	95	1
20	30	7
180	180	5
40	41	7
128	137	3
100	101	7
9	21	2
3	7	2
2	43	2
4	30	2
81	88	1
126	178	1
63	68	1
144	150	4
24	66	2
159	176	5
115	116	6
164	165	4
101	140	1
151	161	4
15	26	5
174	175	2
158	168	2
112	118	2
26	27	5
71	72	4
0	10	2
131	139	5
168	169	6
134	152	6
124	171	1
77	81	5
177	177	4
1	3	1
0	20	1
2	5	4
34	45	3
16	20	2
144	145	2
104	132	3
31	37	5
54	75	1
108	109	4
31	43	3
57	61	1
158	175	2
7	9	3
117	118	9
9	19	1
15	28	3
28	30	4
99	100	5
82	100	1
26	41	1
125	153	3
141	171	5
64	65	5
5	15	1
9	35	3
16	43	8
85	91	3
16	77	2
19	42	2
24	38	4
122	127	2
94	104	3
54	73	8
68	68	3
31	39	4
56	67	1
104	115	3
98	99	7
19	30	2
139	161	2
75	99	2
151	152	4
62	71	1
17	42	5
140	150	2
57	59	3
93	100	2
30	77	2
148	170	2
52	55	2
66	87	4
147	170	1
1	5	3
17	24	4
119	120	4
83	85	2
8	10	3
21	23	4
5	20	4
22	42	3
36	37	5
60	61	3
80	99	1
114	116	4
163	163	2
80	81	1
11	23	2
61	70	1
7	155	2
153	158	2
14	19	3
43	70	3
12	24	3
153	168	1
5	37	1
105	105	8
35	42	1
98	100	2
127	148	3
155	166	2
159	173	1
112	114	2
10	15	4
24	29	4
169	177	1
41	45	4
23	106	1
157	162	1
163	176	2
111	152	3
6	25	2
29	59	1
77	78	2
5	9	2
118	131	1
55	123	2
87	88	4
66	108	1
41	43	3
55	55	7
111	151	4
160	162	2
58	59	5
25	136	1
116	117	3
156	177	4
2	35	1
5	6	4
108	112	5
6	178	1
3	11	2
73	99	1
143	171	3
94	95	4
3	18	2
52	73	1
13	15	2
130	131	3
59	78	1
56	62	2
3	9	2
11	16	3
120	132	3
155	170	2
61	87	3
81	85	1
150	168	2
170	171	1
23	45	1
81	84	1
146	146	3
143	145	2
87	116	2
5	28	1
9	178	4
111	112	1
98	124	1
170	176	2
139	177	2
86	108	3
123	125	1
2	9	2
19	29	1
19	22	3
4	7	1
85	100	4
6	43	2
90	92	4
2	45	3
98	121	1
142	145	2
134	149	3
135	152	1
17	32	2
32	38	2
36	40	1
145	146	5
15	25	2
17	31	2
13	19	2
23	40	1
101	118	1
31	35	2
3	178	1
140	161	5
61	106	1
97	165	1
7	8	4
165	169	1
55	77	1
3	33	1
4	9	3
121	127	1
153	169	3
118	118	3
0	180	1
38	39	5
109	111	1
141	158	1
54	74	4
129	129	2
91	92	4
20	42	1
20	23	1
53	54	4
96	118	1
18	155	2
129	148	1
9	23	4
113	154	1
11	155	1
79	80	1
11	41	2
8	34	1
112	153	1
42	43	9
3	19	1
62	66	1
10	24	3
11	15	3
12	16	2
88	93	1
135	158	3
154	157	1
13	28	2
14	180	3
101	106	2
154	159	1
24	27	5
29	30	4
170	173	1
53	56	1
163	169	3
7	10	2
18	29	1
10	11	7
4	6	3
74	76	1
179	180	4
120	122	1
7	15	2
88	114	2
81	107	3
64	126	2
107	108	2
10	25	3
74	77	1
120	133	1
42	77	1
95	131	2
5	38	1
80	112	1
128	140	5
127	128	4
87	115	1
118	120	1
5	23	1
116	120	1
9	12	3
3	46	1
65	65	5
90	94	5
8	12	1
22	24	3
127	132	1
65	73	2
0	40	1
63	63	2
12	15	2
14	21	1
55	76	2
21	45	2
10	20	1
66	94	3
8	31	1
86	107	1
17	43	3
86	86	2
72	75	1
32	43	1
78	79	2
109	114	2
20	31	1
155	160	1
11	20	1
135	136	1
116	162	1
22	31	1
122	125	1
27	35	1
66	67	3
138	166	1
157	161	1
98	120	1
18	41	3
82	88	2
145	169	2
55	79	1
150	170	1
169	175	2
149	171	2
15	18	5
73	73	4
113	144	3
5	19	1
11	14	3
84	85	2
173	174	1
1	177	1
4	61	2
11	21	1
112	117	1
102	144	1
150	151	2
105	115	2
5	31	1
32	80	1
92	100	1
10	42	1
25	35	1
11	19	1
134	173	1
61	68	1
3	42	1
105	106	4
102	107	1
2	8	2
107	109	2
127	150	2
83	84	1
104	108	3
103	105	1
80	92	2
12	14	2
92	153	1
71	77	1
31	102	1
167	175	1
134	141	2
102	140	1
6	16	1
0	143	1
10	155	1
36	44	1
25	31	1
32	34	1
81	90	2
104	105	2
118	126	1
6	8	5
97	113	1
126	175	2
129	138	2
152	157	1
16	18	2
162	169	1
33	42	1
24	30	1
54	58	1
37	39	1
27	29	1
54	56	1
76	78	1
76	94	1
11	27	1
12	17	1
144	173	1
55	72	2
16	30	2
157	174	2
38	40	2
119	162	1
31	79	1
161	167	1
40	43	1
83	93	1
171	172	2
17	26	1
92	152	1
17	25	1
168	174	1
111	113	1
98	101	1
110	151	1
0	33	1
122	138	1
98	115	1
62	65	1
133	167	1
157	158	1
134	136	1
81	106	2
5	41	1
39	43	1
123	138	1
67	68	1
28	31	1
34	178	1
54	81	1
88	94	1
91	100	1
96	116	1
112	152	1
15	20	1
129	130	2
5	12	1
6	30	1
61	128	1
33	40	1
126	162	1
92	99	1
77	86	1
118	165	1
44	74	1
64	74	1
23	64	1
86	113	1
5	11	1
10	13	1
19	26	1
1	6	1
82	87	1
134	159	1
12	20	1
55	56	1
170	174	1
83	86	1
