119	119	18
77	87	2
128	128	8
92	92	7
137	137	8
75	75	13
27	27	16
110	111	5
104	104	16
90	90	3
112	115	1
36	36	6
4	4	11
116	116	15
94	105	1
3	4	2
129	130	9
127	127	24
124	124	28
8	8	7
25	26	15
120	120	16
136	136	14
78	85	3
14	14	21
86	87	9
122	122	19
9	9	16
118	119	6
25	25	7
112	114	2
103	103	11
80	92	3
121	122	18
77	78	12
103	104	10
110	110	13
35	134	3
134	134	15
108	108	11
126	127	8
81	86	5
123	123	33
121	121	26
96	96	22
99	99	14
77	117	4
17	17	7
18	19	7
115	115	10
133	133	13
107	108	2
94	94	10
134	135	14
107	107	14
20	20	14
139	139	16
111	111	8
113	113	10
33	34	5
102	106	2
16	16	3
120	121	8
91	91	13
93	94	7
100	100	16
97	97	13
22	38	1
93	104	3
101	101	6
17	18	13
22	23	3
88	88	9
78	79	6
117	119	4
114	114	13
115	118	7
72	73	26
93	125	1
30	30	7
82	83	6
125	128	7
135	135	14
115	125	1
112	113	4
28	28	5
103	122	3
117	117	15
31	32	1
71	71	23
36	37	2
82	87	5
74	74	16
118	118	11
79	80	9
105	105	8
6	6	14
13	13	6
37	38	4
119	120	8
35	36	5
74	75	11
106	106	18
93	93	7
28	29	5
118	121	4
130	130	14
72	72	27
126	126	16
82	82	11
2	2	7
18	18	8
112	117	1
15	15	5
5	5	5
22	22	5
21	21	14
87	106	2
92	93	5
10	11	8
81	82	12
125	125	18
99	100	5
80	80	12
100	101	4
140	140	6
11	11	13
77	77	13
77	79	2
105	106	1
102	103	3
71	81	2
129	129	36
8	9	2
95	95	5
135	136	8
79	122	2
87	87	19
101	102	7
103	120	2
119	121	7
114	115	5
81	81	17
85	86	12
132	133	1
75	122	3
101	105	1
124	128	3
79	79	20
75	102	1
108	119	1
75	76	5
131	131	16
0	0	9
132	132	12
73	88	4
38	38	5
1	9	3
89	90	1
93	128	2
24	25	3
71	72	6
21	25	3
19	19	15
33	33	12
81	85	2
20	21	3
78	78	15
76	77	6
83	84	5
29	29	7
125	126	6
79	88	3
116	117	6
18	20	4
126	128	4
104	105	10
114	127	1
133	135	2
24	24	7
85	85	7
23	24	2
131	132	6
120	122	9
92	94	2
124	125	3
126	129	1
115	124	1
1	7	1
80	83	5
112	112	3
15	16	2
75	100	1
22	25	1
94	95	6
75	101	4
7	7	1
11	14	3
108	109	3
1	13	3
127	128	1
3	3	5
89	89	7
89	100	1
104	106	4
138	138	6
96	112	3
86	121	3
7	8	4
75	77	3
89	91	1
2	3	5
82	105	12
14	20	2
84	84	7
72	74	4
102	104	2
23	23	9
93	109	3
136	137	3
90	91	4
34	34	3
34	35	1
106	107	13
37	37	5
94	125	5
13	14	6
86	123	1
95	96	4
130	131	4
98	98	11
113	120	2
94	113	2
81	102	1
102	105	1
14	15	1
79	85	2
27	31	2
132	136	4
109	109	5
82	84	4
125	127	2
2	4	3
12	15	4
80	86	2
32	32	7
21	36	2
11	12	8
30	33	2
37	78	1
26	26	3
38	39	3
91	92	2
86	86	8
128	129	9
25	28	1
81	110	1
81	108	2
109	111	1
66	71	1
35	35	1
20	28	2
111	112	4
113	115	2
73	73	4
80	81	1
100	104	2
1	24	4
12	12	6
109	110	3
88	115	2
102	102	2
93	105	3
32	33	2
87	88	2
113	114	4
16	29	2
1	1	10
2	6	1
27	29	2
83	92	2
123	124	2
77	112	1
75	123	1
115	116	1
113	116	3
120	123	3
82	85	1
83	83	2
110	118	1
26	27	1
103	110	4
84	85	1
116	123	3
31	31	1
127	133	1
81	88	1
87	107	1
74	76	1
135	138	2
127	130	1
79	121	1
107	109	2
15	22	1
117	118	1
27	30	1
131	135	2
125	129	1
2	7	1
78	121	1
38	79	1
139	140	2
92	111	1
95	99	1
14	16	1
75	121	1
16	17	2
101	103	1
88	89	2
76	76	2
79	84	1
71	73	1
111	113	1
