77	77	4
129	129	11
3	100	3
106	106	6
112	112	3
9	100	9
229	230	2
232	232	14
61	70	2
193	193	6
36	36	6
159	185	3
123	124	2
16	16	8
145	148	1
54	68	2
75	78	2
104	105	11
3	150	1
100	176	2
225	225	10
169	169	10
228	231	2
24	54	2
234	234	15
17	35	2
4	19	3
69	69	12
172	204	3
175	204	1
139	142	2
3	3	6
117	117	3
100	100	12
138	139	1
79	106	3
137	137	3
86	158	5
99	99	7
150	220	2
124	124	5
31	40	1
156	156	4
101	101	12
188	189	3
98	98	4
163	164	4
140	140	9
214	214	8
111	111	2
29	29	7
202	202	14
47	47	4
46	47	6
86	86	9
107	165	6
11	11	11
33	33	3
2	2	10
28	28	13
47	74	3
203	203	2
28	29	1
19	20	3
130	144	1
177	177	7
228	228	8
45	216	2
8	8	10
46	46	10
5	17	5
87	204	1
30	106	1
6	31	1
159	186	4
153	197	3
147	159	1
32	33	3
240	240	11
12	12	11
126	126	12
78	90	8
60	60	8
37	37	6
215	215	3
184	194	2
232	233	2
43	43	8
31	31	17
58	58	6
40	74	3
12	13	9
170	170	2
113	113	6
59	62	1
240	241	4
162	168	4
27	27	15
229	229	8
45	45	5
128	128	2
185	185	3
65	66	3
64	85	1
220	224	1
183	183	7
106	108	3
105	105	5
85	85	5
10	10	2
18	35	11
200	202	3
3	6	4
133	133	4
146	146	4
66	74	7
104	104	5
20	20	6
59	60	8
153	153	8
29	102	3
219	219	6
59	59	9
56	56	5
49	50	5
15	15	3
21	23	3
204	206	3
195	196	7
175	176	1
186	186	6
7	7	5
183	188	2
66	66	7
215	216	5
1	7	3
199	199	5
62	62	11
8	16	4
238	238	10
145	147	2
38	38	6
46	171	5
184	184	7
0	7	5
75	111	3
209	209	3
23	23	12
1	1	6
157	157	9
163	210	3
26	120	1
137	147	4
46	73	1
86	87	1
52	121	1
85	151	4
43	71	2
64	64	5
21	22	6
17	17	10
45	175	3
133	137	1
86	220	2
70	70	10
78	78	5
188	188	5
103	110	2
6	6	4
13	56	1
15	18	3
13	14	7
209	221	1
84	84	4
54	54	4
192	192	6
65	65	6
64	236	2
34	36	1
88	88	2
168	180	2
115	126	2
177	186	1
78	80	4
98	100	3
24	25	3
117	118	1
142	142	3
133	134	5
163	163	2
221	223	2
96	104	1
15	41	1
8	48	1
72	72	3
123	123	4
76	76	3
78	79	4
102	102	2
109	182	3
30	31	6
97	97	2
77	84	2
153	155	1
52	54	4
61	64	3
179	179	6
145	145	4
134	134	5
53	53	7
105	107	2
31	104	1
23	24	7
164	164	9
181	183	3
2	3	10
142	143	4
2	41	2
24	24	7
223	223	3
81	83	1
35	35	8
41	41	4
8	12	2
30	30	4
14	242	1
75	75	6
235	238	2
205	205	10
180	180	5
57	57	10
30	108	4
178	179	2
14	14	3
4	5	5
218	241	6
38	47	1
5	6	6
211	214	2
108	114	1
20	23	4
23	56	2
68	68	6
239	239	3
227	227	6
1	100	2
69	236	2
42	42	6
54	224	2
15	221	2
0	0	4
176	176	6
5	19	7
7	54	2
9	9	5
237	237	4
114	114	4
118	119	1
39	40	3
155	155	1
202	207	2
61	61	9
79	86	1
9	59	2
171	171	3
127	144	3
26	26	9
231	231	5
40	107	1
148	151	1
6	14	2
70	86	3
36	210	3
226	227	2
197	197	3
115	115	1
197	198	3
63	63	1
121	121	7
158	158	8
85	110	2
196	198	4
78	92	1
194	223	3
161	161	5
76	77	3
25	25	4
125	125	5
118	124	1
118	118	2
236	236	8
226	226	8
58	75	3
141	141	6
75	76	3
74	74	8
80	80	2
55	57	3
114	134	1
23	38	1
38	39	4
16	220	1
122	122	3
193	195	4
177	178	2
214	216	2
120	123	1
13	17	1
192	194	2
42	43	2
13	16	3
55	55	3
166	168	2
73	73	4
175	192	3
34	34	3
136	138	1
141	143	5
65	67	2
36	77	2
20	68	1
170	187	4
160	161	2
82	84	5
80	91	1
32	32	3
174	174	3
44	44	4
149	150	3
71	71	8
198	198	4
82	83	4
132	132	3
147	148	2
67	68	6
178	178	5
40	41	2
158	163	3
59	67	3
51	197	1
134	144	3
145	164	2
15	75	1
200	200	3
57	60	5
209	210	3
129	130	1
9	10	3
127	127	3
168	178	1
230	230	4
60	63	1
35	80	5
21	21	1
31	70	1
34	41	1
45	202	1
48	54	2
13	49	6
152	152	1
181	182	2
167	167	2
151	152	2
231	232	1
171	192	1
98	212	1
201	201	3
56	57	6
166	166	4
102	103	2
45	46	1
52	106	1
150	151	3
60	61	1
220	223	1
235	236	4
80	81	6
150	150	3
199	207	1
14	16	1
159	159	1
53	73	1
157	176	3
1	2	2
139	139	2
135	135	2
54	55	3
132	135	1
168	221	1
13	18	4
168	168	3
68	237	1
90	109	2
242	242	1
130	130	2
53	55	1
0	10	6
157	158	1
26	138	1
120	120	1
193	197	3
163	214	2
102	135	1
17	33	1
167	214	2
234	235	3
139	140	2
102	160	1
169	171	1
119	125	4
30	99	3
136	136	2
114	117	2
39	39	3
45	236	1
122	125	1
212	212	5
51	52	3
82	82	6
170	171	2
1	14	1
2	8	1
80	116	1
55	56	4
44	216	5
1	6	2
206	206	2
30	212	4
19	19	5
218	218	2
144	144	1
29	30	3
50	50	10
144	148	4
29	222	1
138	138	2
33	77	1
220	220	2
9	32	3
196	196	2
13	242	1
2	6	4
222	222	2
115	127	1
8	9	2
40	208	2
32	118	2
205	206	2
183	187	1
70	242	1
34	35	4
59	63	1
89	105	1
175	175	4
162	162	1
148	165	2
39	61	1
66	67	3
139	141	2
51	51	3
50	79	1
125	126	7
222	223	2
67	67	2
15	212	1
84	85	2
162	163	5
80	84	3
89	106	1
232	238	1
47	60	1
112	219	4
189	189	4
40	40	1
233	233	4
101	103	2
167	169	1
198	236	1
217	226	2
168	169	1
16	19	1
154	197	1
197	200	1
234	238	2
180	183	2
17	57	4
75	77	4
143	143	2
35	41	2
29	31	1
104	153	1
24	101	1
184	206	1
109	109	2
221	222	1
171	199	1
4	60	4
33	54	2
235	235	2
83	84	3
37	38	1
175	189	2
173	175	2
83	83	3
123	129	3
167	199	1
39	62	2
175	221	4
226	235	1
100	102	1
44	86	2
118	127	2
47	49	2
11	23	1
116	116	4
72	73	3
158	162	2
31	49	2
121	123	2
199	200	1
22	23	1
138	143	2
70	72	3
236	238	2
67	85	2
3	14	2
145	146	1
46	235	3
46	86	1
143	147	2
75	84	1
154	154	1
31	39	3
200	207	1
44	46	2
172	172	1
50	62	3
97	98	1
81	81	2
189	190	1
126	128	2
204	215	1
96	96	2
25	27	2
161	162	1
184	185	1
155	195	2
107	107	2
152	200	2
128	131	1
20	37	4
119	149	1
154	155	1
49	51	2
97	161	1
100	105	1
20	21	1
120	126	1
190	190	1
15	52	1
101	102	1
144	145	1
211	211	1
119	119	2
15	17	1
168	174	1
27	138	1
191	191	1
17	31	2
71	73	3
203	204	3
65	68	1
18	34	1
37	196	1
187	187	1
57	130	1
127	128	1
45	47	2
214	217	1
153	154	1
124	129	1
48	64	2
27	28	1
113	114	1
43	112	1
187	194	1
53	108	1
79	187	1
122	144	1
39	172	1
198	210	2
9	20	1
0	1	2
58	78	2
137	138	2
54	70	1
221	221	1
190	191	1
0	18	1
120	122	2
95	95	1
15	16	2
217	217	1
103	104	2
17	32	1
120	222	1
25	26	1
0	52	2
191	195	1
22	22	2
79	98	1
129	135	1
9	55	1
73	173	1
213	213	2
63	68	1
164	165	1
103	103	1
175	233	1
7	8	1
51	53	1
241	241	1
11	20	1
207	207	1
86	137	2
216	222	1
218	219	1
241	242	1
33	223	1
30	49	1
165	165	1
52	53	1
3	4	1
16	18	1
17	23	1
200	201	1
62	64	1
26	27	1
129	152	1
56	76	1
206	208	1
