12	85	2
113	113	7
111	112	4
114	114	10
133	142	5
49	49	2
66	70	2
114	115	15
120	121	1
33	35	2
68	68	5
42	42	7
8	9	7
39	39	10
17	18	6
45	45	1
83	84	5
13	17	2
149	149	4
150	151	1
4	8	2
0	0	8
73	73	8
157	158	2
124	126	3
125	125	4
25	68	3
154	154	9
133	133	13
33	33	6
48	49	7
20	141	6
154	155	1
55	55	5
54	54	13
52	54	4
142	156	4
91	92	8
8	10	1
103	108	2
112	112	8
135	136	4
110	110	7
97	98	2
42	45	2
14	14	4
66	71	1
86	86	4
78	78	5
69	69	3
20	20	8
16	16	17
135	135	6
89	89	10
11	12	7
156	156	21
5	5	9
151	152	4
92	92	19
109	111	2
28	28	8
83	83	8
66	67	7
104	104	6
99	99	14
129	129	15
64	65	1
117	117	8
34	34	13
134	134	10
17	17	8
84	84	25
47	48	6
66	66	6
80	80	7
128	128	18
18	18	3
14	78	3
104	105	2
131	132	7
35	50	2
1	1	9
131	136	2
115	115	5
111	111	10
69	70	2
77	81	5
51	53	2
20	21	4
63	80	6
19	28	1
6	6	7
19	20	3
151	151	6
150	150	7
75	79	1
40	40	6
23	24	2
130	131	4
2	2	13
21	28	3
12	13	5
70	70	3
142	142	8
40	41	5
117	123	1
54	55	4
103	103	20
62	109	2
143	143	7
152	157	3
12	12	8
26	26	12
96	101	2
127	143	1
131	131	6
94	95	7
129	139	5
86	90	1
39	40	6
147	153	1
88	88	3
8	8	3
47	47	2
102	102	4
18	20	4
137	137	10
104	106	4
19	19	11
22	23	7
29	29	2
3	3	10
96	96	5
94	116	4
137	138	1
71	71	4
93	93	5
123	123	5
67	70	4
97	138	4
10	16	4
111	116	4
50	51	5
114	130	6
139	142	4
5	24	5
68	69	3
36	36	6
90	90	4
30	30	2
82	83	1
88	89	12
44	44	4
121	121	4
22	51	1
27	27	2
105	105	5
18	66	1
144	145	5
91	94	2
152	152	10
23	23	11
105	106	4
33	151	2
92	94	4
99	100	6
95	96	2
85	86	3
136	136	4
91	91	8
41	41	3
131	133	2
97	136	6
118	118	5
53	54	2
138	138	10
139	140	4
34	36	4
97	106	2
26	28	3
101	101	4
97	102	2
41	46	2
140	140	2
48	48	5
51	107	3
10	10	1
130	130	10
32	36	2
89	90	2
9	9	4
128	129	5
115	138	2
44	45	1
37	49	1
110	111	1
147	147	4
85	85	3
51	51	5
139	139	12
106	108	2
81	81	10
42	43	4
142	144	1
151	156	7
108	112	3
32	32	3
148	148	12
47	88	1
106	106	7
80	82	2
83	103	1
116	117	8
35	36	3
100	100	7
94	94	8
43	43	8
25	26	5
158	158	10
81	82	6
57	57	2
25	25	15
79	81	6
96	97	4
136	153	1
129	131	3
48	51	2
148	150	1
65	115	3
18	21	2
147	155	2
118	122	1
46	46	5
4	5	2
126	126	4
102	106	1
87	87	3
71	72	4
79	80	3
107	107	5
24	25	4
21	53	3
22	22	1
13	14	9
36	50	4
136	137	3
144	146	1
124	125	1
32	53	2
26	27	3
67	69	4
86	109	2
83	85	4
100	101	4
56	56	3
113	141	3
37	53	1
95	97	1
35	37	1
54	56	1
3	4	3
101	106	1
81	89	1
119	152	3
123	126	1
2	95	4
121	123	2
116	116	3
34	35	3
29	32	1
120	153	3
138	139	6
83	102	2
11	11	2
16	18	5
78	79	2
75	75	4
149	152	4
80	81	2
106	107	2
127	157	2
21	22	2
109	114	1
77	77	1
13	13	2
136	138	1
50	50	5
134	155	3
145	146	3
52	52	1
119	119	1
57	68	3
127	131	3
38	46	1
27	28	5
98	148	3
36	52	1
11	15	2
146	146	1
155	156	4
5	17	1
140	141	1
123	124	5
150	153	3
10	11	3
95	95	7
105	119	1
127	127	4
148	152	1
66	73	1
73	74	1
98	101	5
31	31	2
77	78	1
119	120	3
24	24	4
113	115	2
129	130	1
105	122	1
48	53	1
109	109	3
20	22	1
19	21	2
148	149	2
107	108	2
111	132	1
124	127	2
144	147	1
132	132	2
82	82	5
120	120	3
84	86	2
97	97	2
4	7	2
0	155	6
18	19	5
8	20	1
10	18	1
111	139	2
15	15	1
7	8	2
38	73	1
152	153	2
103	104	5
2	30	3
141	141	2
149	156	1
35	35	3
127	156	1
31	32	3
78	82	2
52	61	1
87	96	1
81	110	4
98	98	5
120	137	1
9	10	4
37	38	1
14	100	1
14	31	2
135	146	3
52	53	2
72	72	1
25	28	2
51	52	3
18	28	3
150	154	1
127	128	3
94	134	1
29	30	5
5	6	1
1	2	3
21	21	1
82	86	2
32	33	3
43	45	2
7	13	2
84	118	1
90	132	2
126	127	1
153	154	3
9	14	1
2	73	1
124	124	1
24	27	1
44	46	2
132	133	3
152	154	1
47	101	2
44	73	1
23	25	1
1	30	1
157	157	2
28	31	1
144	144	3
96	107	1
115	116	3
14	15	2
70	71	1
75	76	2
17	22	1
113	114	3
94	135	1
44	47	1
105	107	2
87	91	2
49	50	1
83	86	1
84	85	1
79	79	1
87	115	1
147	148	1
39	43	1
117	120	1
122	122	2
64	66	1
123	127	1
108	109	1
88	110	1
2	3	1
45	105	2
138	140	1
124	143	1
126	147	1
17	79	1
10	52	2
117	118	1
153	153	2
130	139	1
0	158	1
9	13	2
106	110	1
67	67	1
13	85	2
98	100	1
39	41	1
88	90	1
46	47	1
29	37	1
30	31	1
