99	99	9
45	73	2
129	130	1
43	43	8
13	14	8
26	26	9
150	150	14
93	93	3
94	94	10
136	137	4
136	136	9
157	157	4
78	78	4
51	51	1
7	7	11
46	46	7
139	139	7
29	30	4
151	151	5
38	38	8
147	147	5
54	54	9
137	137	5
78	79	1
127	128	1
70	104	2
87	87	2
5	5	11
18	19	3
39	39	3
10	10	2
77	77	4
122	122	12
97	120	3
148	148	2
148	152	3
33	33	4
154	154	10
41	46	4
64	64	6
80	106	3
106	106	7
128	128	5
144	147	8
144	144	8
131	131	7
52	53	5
130	131	5
158	158	9
133	133	4
141	141	1
20	38	3
113	113	5
107	117	3
143	144	3
19	19	5
88	88	7
135	137	2
20	20	7
24	25	7
65	144	2
151	154	1
122	145	1
72	72	3
40	41	6
152	153	4
34	51	2
142	143	5
55	65	1
64	147	4
127	127	3
31	31	7
144	145	1
6	6	6
67	67	5
15	32	2
101	150	3
41	41	4
140	140	3
43	45	1
110	112	6
112	113	5
115	116	7
28	28	15
79	79	3
3	4	4
41	43	5
93	94	4
105	105	5
120	121	1
147	153	3
65	65	7
47	47	3
3	3	12
126	126	3
51	52	2
52	72	3
85	85	5
44	44	3
25	51	4
62	62	7
86	86	8
37	37	7
145	145	4
29	29	4
9	12	2
142	142	5
113	117	3
89	89	3
97	153	1
149	150	1
34	54	2
70	70	4
30	44	1
113	115	4
26	27	3
152	152	2
132	132	6
25	25	2
96	103	4
76	77	3
125	125	4
33	148	2
7	120	4
145	147	1
68	68	3
36	155	3
81	81	5
14	14	1
68	69	3
98	98	3
9	9	4
119	119	3
110	111	1
67	68	1
114	114	7
36	36	3
101	101	3
106	137	3
8	8	2
80	80	2
14	147	2
77	81	2
104	104	4
47	48	1
110	110	8
33	55	6
106	138	3
75	75	5
97	97	2
90	90	3
32	32	2
100	100	4
12	139	4
120	122	1
14	15	2
23	26	1
108	108	1
21	21	8
112	112	2
111	111	2
30	30	3
9	11	1
71	71	4
115	150	4
7	8	1
26	34	2
118	145	1
21	22	3
14	16	4
4	4	4
117	117	3
15	15	2
38	39	3
103	104	5
81	83	1
16	36	2
13	15	2
53	71	1
66	67	1
155	155	1
156	156	2
48	48	3
95	101	2
33	146	1
80	110	1
92	92	2
88	89	1
69	69	5
22	22	2
8	9	4
1	1	1
18	18	3
16	16	5
12	12	3
4	35	4
83	83	1
53	53	2
35	35	3
84	85	1
26	75	1
146	146	3
56	56	3
130	139	4
123	142	1
4	5	3
84	84	2
16	38	1
51	54	1
45	45	3
13	13	1
69	71	1
73	73	1
7	12	3
118	118	2
150	151	1
95	95	2
89	90	1
34	148	1
76	76	1
66	66	1
123	147	2
88	90	1
126	141	1
67	69	1
143	143	5
24	24	2
78	82	2
153	154	1
145	149	1
107	107	2
69	70	1
116	116	7
29	45	1
2	2	5
149	149	2
30	47	2
142	145	2
25	55	2
42	42	1
126	140	1
118	146	2
8	110	4
102	102	1
33	36	1
2	4	1
11	142	1
52	52	2
34	152	1
138	138	1
91	116	1
120	120	1
45	47	1
32	38	1
96	104	2
130	130	3
124	124	2
121	122	1
18	52	1
3	37	2
17	17	2
3	35	1
91	91	1
116	117	1
94	95	1
127	140	2
16	43	1
63	63	2
46	48	3
26	33	2
11	11	2
105	116	1
122	151	1
69	143	1
111	112	1
22	51	1
19	20	2
108	121	1
109	109	1
83	86	1
134	134	1
108	109	1
132	133	2
0	0	1
16	31	1
114	116	1
48	49	1
68	158	1
23	27	1
70	145	1
23	23	3
83	85	1
25	26	1
