132	132	4
76	79	5
89	89	6
95	95	10
138	138	4
125	125	11
4	4	4
30	30	3
129	131	6
34	34	3
50	50	1
114	116	3
55	55	1
32	33	1
70	89	3
53	53	1
83	83	6
24	24	1
112	112	14
110	110	7
120	120	2
25	25	7
122	122	1
65	66	2
56	56	8
106	109	5
50	70	1
62	65	3
143	143	2
26	26	2
0	1	3
133	134	3
139	140	5
49	50	3
0	0	3
17	17	2
101	101	1
69	69	3
81	144	5
118	118	6
14	16	1
131	131	3
113	113	2
38	123	3
20	20	2
10	32	5
53	99	3
83	85	1
40	40	4
133	135	4
88	125	3
145	145	3
35	36	5
31	139	1
109	109	4
22	22	4
80	80	7
32	32	4
133	133	6
19	19	4
129	129	2
140	141	3
139	139	5
23	23	1
87	133	3
49	49	5
93	94	3
131	133	3
108	108	4
68	78	1
52	52	4
60	60	5
93	93	6
135	135	1
134	134	2
126	126	3
116	116	1
31	32	2
38	39	5
10	25	3
41	41	5
27	120	1
37	37	3
99	100	4
135	140	2
135	138	6
1	1	1
123	127	1
11	31	1
63	64	5
123	125	4
74	74	1
90	90	3
84	84	6
3	11	1
125	130	2
128	128	3
131	138	2
73	74	1
85	113	1
64	64	2
72	79	2
13	13	2
77	78	4
8	9	2
88	89	1
27	33	3
2	35	6
6	73	2
5	5	2
68	70	1
132	133	3
55	64	1
61	61	3
127	127	5
50	51	3
107	124	1
136	140	1
92	94	2
71	72	2
117	119	1
73	75	1
105	105	1
6	6	2
119	119	2
11	34	1
3	3	1
106	106	1
5	6	1
65	65	1
83	84	2
14	103	3
24	25	2
88	88	3
68	68	1
125	143	1
118	125	1
38	124	1
124	132	1
9	27	1
41	42	1
137	138	2
121	129	1
119	123	1
114	114	1
82	84	2
93	107	1
29	137	1
40	48	2
121	121	3
120	132	2
12	20	1
49	53	4
67	67	2
59	59	2
4	64	1
136	137	1
78	79	1
13	14	1
81	81	1
142	142	1
39	40	1
54	55	2
96	96	1
107	107	3
100	100	1
57	58	1
18	18	1
2	4	1
94	99	1
143	144	1
124	124	2
72	72	1
118	140	1
43	43	1
8	8	1
2	2	1
115	144	1
135	142	2
16	103	1
113	115	2
11	16	1
57	57	1
101	131	2
85	85	1
105	106	1
130	131	1
125	127	1
123	123	1
127	128	1
136	143	1
124	125	1
