40	40	6
49	49	2
128	128	1
21	21	4
25	125	2
13	13	1
39	39	3
142	142	4
25	37	3
119	119	2
94	94	5
44	45	2
1	101	2
97	97	7
25	27	3
148	151	2
119	120	5
8	9	4
48	56	1
132	139	4
3	3	10
1	1	2
95	95	3
150	151	1
54	55	1
47	73	1
127	127	6
72	73	1
3	4	3
6	103	1
88	88	1
40	41	2
128	129	2
73	73	2
52	52	5
31	122	3
28	28	3
0	0	3
35	35	4
63	63	4
80	80	1
105	106	3
147	147	4
6	6	4
78	78	4
124	125	3
22	22	2
156	156	2
118	118	1
121	121	6
147	148	2
84	85	2
116	116	8
54	140	3
28	99	2
28	29	3
114	114	4
108	110	1
137	151	2
85	85	6
112	112	2
54	54	2
117	120	4
154	157	2
67	67	1
123	123	2
148	150	1
131	131	5
48	49	3
102	102	3
69	70	2
144	144	1
36	36	2
24	24	3
154	154	2
57	57	1
110	110	2
129	130	3
77	84	3
101	101	1
96	137	2
8	8	4
105	105	5
11	11	9
54	68	2
146	147	2
77	98	1
104	115	2
126	126	2
25	25	6
8	11	1
41	41	4
136	138	3
136	136	2
114	127	3
82	82	3
137	138	2
86	86	2
34	34	9
37	38	1
98	99	2
150	150	3
130	130	2
119	122	1
51	52	4
103	103	5
22	83	2
11	15	2
50	51	1
155	156	3
32	32	2
53	54	1
28	32	1
31	32	2
150	156	3
16	16	3
75	98	2
79	80	2
23	23	1
134	134	1
121	122	2
157	157	2
4	4	1
118	119	2
158	158	1
152	152	3
38	38	2
87	89	2
83	85	1
53	53	4
126	127	2
27	39	1
72	72	1
93	95	1
34	35	2
43	43	3
106	106	7
80	81	1
23	24	1
22	23	2
77	78	2
135	141	1
130	131	1
51	54	1
43	87	1
110	132	1
132	132	2
116	134	2
116	117	3
103	104	3
26	27	2
92	92	1
15	15	1
95	106	1
108	108	1
9	15	1
42	46	1
55	55	4
109	112	2
32	81	1
13	14	1
83	83	1
9	13	1
25	26	2
37	37	1
91	94	1
100	100	1
159	159	1
30	77	1
29	29	1
70	70	2
40	111	1
22	124	1
46	46	1
31	31	1
157	158	1
8	128	1
2	2	1
120	122	1
129	129	1
32	33	1
117	119	2
122	150	1
109	110	1
13	16	1
9	10	1
123	130	1
149	149	1
19	20	1
93	94	1
75	99	1
86	106	1
10	10	1
