161	161	28
155	156	18
0	133	2
2	5	8
113	113	7
140	140	27
40	40	33
67	67	21
121	125	2
7	8	10
165	167	4
165	165	10
59	59	37
92	93	12
56	56	28
75	76	6
172	172	25
126	156	2
37	37	30
116	117	13
35	35	25
87	88	3
152	155	3
18	18	34
5	10	7
25	26	16
13	13	38
156	156	2
83	166	5
95	95	21
68	68	12
158	158	19
36	37	3
140	179	2
80	80	18
146	146	19
31	33	7
138	138	17
72	72	20
14	14	27
30	31	14
103	103	9
124	125	5
122	122	16
54	54	11
15	27	2
127	127	19
125	154	5
120	120	15
100	110	5
90	90	31
117	119	2
66	67	1
176	176	19
75	75	5
83	84	6
139	139	9
77	77	22
120	121	7
164	165	13
60	60	14
7	7	21
112	112	9
136	136	23
95	108	2
5	33	12
138	140	3
81	81	19
104	105	7
31	31	30
14	27	3
90	91	11
142	163	6
60	95	2
25	25	31
106	130	2
155	155	9
119	146	3
104	166	3
43	43	22
74	74	7
97	110	4
56	57	7
10	10	30
79	80	8
30	30	43
129	129	20
54	73	4
136	137	1
112	114	11
170	170	24
147	147	26
151	152	8
63	63	14
132	132	17
139	140	9
173	173	20
9	9	21
17	17	33
118	118	8
5	11	7
134	135	2
178	178	22
143	144	8
22	45	3
135	136	5
38	38	29
24	24	16
50	97	8
144	144	6
26	26	22
18	19	5
78	78	8
32	32	28
171	176	8
96	97	10
160	160	32
169	170	6
8	8	20
111	111	17
2	4	4
6	7	3
142	143	29
56	60	1
55	57	2
22	22	15
41	41	19
124	124	13
119	119	5
27	32	3
71	71	25
156	160	6
97	97	12
82	82	21
137	137	8
11	12	25
18	22	8
45	45	19
28	28	23
171	171	16
149	149	25
45	51	3
82	104	4
165	166	4
29	41	2
83	113	4
37	53	6
23	23	30
23	24	13
129	130	7
11	31	1
88	88	20
4	4	39
12	12	23
11	11	30
134	134	17
3	8	4
1	1	23
20	27	2
75	78	1
134	174	2
14	31	1
142	146	1
27	28	11
54	55	2
53	161	3
37	38	10
50	51	7
73	73	17
117	129	2
3	4	14
107	107	13
65	66	11
164	164	10
6	31	1
2	7	7
3	3	16
3	16	3
55	55	13
161	162	14
154	155	11
23	25	7
105	107	3
148	148	17
101	101	16
123	124	5
29	29	22
169	169	16
128	128	11
33	107	4
158	159	8
61	76	5
174	175	6
16	16	20
2	2	36
44	44	12
15	16	9
145	145	16
52	52	17
88	89	3
110	110	8
125	137	9
15	21	3
100	107	4
164	169	6
39	39	28
109	109	7
85	85	10
89	89	15
57	68	1
126	126	13
33	33	39
60	61	8
86	88	5
43	44	15
99	118	2
106	106	10
55	93	2
106	113	3
102	102	19
128	129	4
104	104	20
86	90	2
2	22	4
26	28	6
122	132	1
31	109	1
4	12	3
5	34	1
22	23	8
41	42	13
25	29	9
17	18	10
166	167	3
167	167	15
42	42	25
71	72	6
65	65	12
177	179	1
159	173	7
14	16	2
163	163	29
156	157	2
150	150	29
71	93	2
12	13	19
76	133	3
67	71	1
114	123	3
125	125	15
38	114	2
62	62	12
174	176	2
168	171	1
29	35	2
20	21	6
76	93	1
34	36	6
19	19	15
86	86	13
24	25	5
71	94	1
101	126	1
157	157	8
110	158	2
70	85	2
34	115	10
168	168	26
27	27	29
33	34	3
111	151	2
96	173	4
62	76	2
99	100	11
108	109	1
91	91	10
76	76	12
4	11	9
64	123	3
105	106	7
141	141	12
65	70	6
9	10	4
116	116	13
112	113	3
64	74	6
81	87	3
170	172	3
51	54	2
15	15	37
41	67	3
166	166	16
59	103	1
51	51	11
6	6	20
103	121	9
6	8	7
143	166	2
113	115	3
8	11	5
133	133	16
2	32	3
66	66	14
121	122	6
77	102	3
174	174	14
159	161	7
126	129	3
28	29	10
52	57	1
122	124	7
154	154	9
57	59	2
121	121	11
96	96	16
179	179	18
52	61	1
7	12	5
13	16	6
54	57	2
173	174	10
34	35	8
105	105	10
92	137	1
109	113	3
5	5	19
78	124	5
62	63	8
159	159	14
87	87	11
38	44	1
64	64	24
151	151	16
86	98	4
160	161	5
39	61	2
126	158	6
84	85	12
53	53	19
98	150	2
37	42	3
126	127	14
159	165	1
141	147	6
36	114	6
105	122	5
99	99	4
28	33	2
131	158	2
152	153	23
52	53	8
143	143	10
24	27	2
152	157	1
100	101	6
127	128	6
34	34	14
133	149	4
2	6	1
94	95	5
40	41	6
125	134	3
145	146	7
20	20	17
123	123	14
117	121	1
19	20	18
41	97	2
159	160	5
5	6	24
117	117	11
58	60	2
21	43	1
36	36	8
131	147	2
90	109	1
157	161	1
90	104	1
26	32	5
92	92	8
3	11	5
11	13	9
83	83	14
27	31	5
84	86	3
38	49	1
17	20	4
57	58	9
78	133	2
67	68	1
16	43	3
37	44	6
49	50	5
50	50	18
131	131	8
142	142	8
57	57	12
2	13	3
94	104	2
153	153	9
20	22	2
17	27	1
10	14	4
61	63	2
39	55	1
2	8	9
21	21	11
152	152	20
31	32	8
102	105	1
33	36	2
125	126	6
162	162	7
72	108	3
55	56	3
107	163	2
72	136	3
62	75	2
65	123	1
11	16	8
3	5	9
121	124	2
13	14	7
107	108	10
49	52	3
172	177	1
156	165	1
108	108	8
87	167	2
82	85	1
128	130	3
53	76	3
165	171	1
37	50	1
25	27	4
100	100	5
135	135	6
85	87	1
84	84	8
111	113	9
27	30	4
118	130	3
86	87	6
66	126	2
98	99	5
42	43	2
139	150	2
8	9	9
3	9	6
29	31	5
79	79	11
54	95	6
177	177	14
124	151	2
154	173	4
10	11	8
50	104	2
39	40	8
143	151	3
118	119	6
81	83	4
20	26	2
44	49	4
21	45	3
12	24	2
127	131	3
10	12	1
86	103	3
126	154	1
130	130	7
18	20	2
86	94	2
61	61	4
91	92	1
14	15	5
119	120	6
92	94	1
167	168	4
101	130	1
94	112	1
94	94	7
37	112	1
72	134	1
21	24	5
97	173	3
53	54	6
73	79	2
103	120	1
1	5	5
90	168	2
100	130	5
177	178	1
67	86	5
123	153	4
76	91	5
80	81	3
26	27	7
100	165	3
60	103	2
42	67	1
4	13	4
73	77	3
78	79	5
93	107	4
24	44	3
76	77	7
0	0	9
40	98	2
138	139	1
74	77	2
109	141	1
24	43	2
127	142	4
136	160	4
7	9	4
35	36	2
144	145	10
115	115	6
137	138	4
24	26	8
124	158	1
16	85	3
149	150	2
53	65	5
157	160	3
50	102	2
100	103	2
173	175	8
42	44	3
62	82	3
109	110	2
2	3	3
122	125	1
92	170	2
63	74	2
58	59	6
155	158	2
54	56	4
157	158	2
17	149	3
170	171	1
44	45	2
143	163	6
16	17	7
21	22	7
1	2	6
30	38	1
177	180	1
151	158	2
100	151	5
119	125	4
167	170	2
114	114	12
18	30	2
87	97	1
63	66	4
151	155	2
15	17	2
147	148	3
83	103	1
60	94	1
71	78	1
89	109	2
169	175	1
28	45	3
178	179	1
124	157	3
102	130	1
175	176	3
14	43	4
158	172	4
58	58	5
61	93	4
88	108	2
34	53	2
32	33	3
11	42	2
153	154	4
115	117	5
49	63	1
168	169	3
123	125	4
108	112	1
73	82	3
117	123	1
50	62	3
41	96	4
29	30	15
115	116	9
97	98	2
120	133	2
6	15	1
30	33	1
24	28	7
87	109	6
81	82	5
168	175	2
68	95	5
87	107	1
109	111	2
37	45	1
16	18	4
90	125	3
172	173	2
38	39	5
159	164	4
163	164	3
90	92	1
103	104	10
4	6	1
93	93	7
4	15	3
5	14	2
3	14	1
156	161	2
82	84	3
144	154	1
79	132	3
145	149	3
143	145	3
111	165	2
152	163	2
53	96	1
99	111	2
139	153	4
89	108	1
101	102	2
8	10	5
98	110	1
37	41	3
11	18	2
77	107	3
10	16	2
125	127	4
93	94	6
90	171	1
91	93	2
116	127	5
5	16	4
104	130	1
50	96	2
100	160	3
76	110	1
180	180	4
74	93	1
76	79	2
39	59	1
41	86	1
17	85	1
125	158	2
151	170	1
73	74	5
169	174	1
139	154	4
86	101	6
4	5	3
64	143	2
75	82	2
153	167	1
101	129	2
3	15	1
108	111	1
77	78	1
98	98	9
73	102	1
87	90	3
7	11	2
13	15	2
75	79	1
40	97	1
81	114	1
3	6	4
16	21	2
40	61	5
86	167	2
128	160	3
15	18	2
124	153	2
80	82	4
89	107	1
83	115	2
149	173	2
21	25	4
111	112	1
172	175	2
146	147	2
128	156	3
7	10	1
164	173	1
171	172	3
0	13	4
101	103	1
154	158	1
90	93	1
158	160	1
53	55	1
102	103	1
52	95	1
150	151	2
40	55	3
70	70	2
122	133	1
94	133	1
115	124	1
88	97	1
77	93	1
88	151	1
36	41	2
22	43	2
22	80	1
163	166	1
167	169	2
98	102	1
125	128	1
128	137	2
88	101	1
51	103	1
130	157	1
13	30	1
57	112	1
5	8	3
155	157	2
131	132	1
16	86	2
46	46	1
29	34	3
74	75	1
162	164	1
130	131	1
154	156	1
175	175	1
16	158	1
137	176	2
90	150	1
15	30	2
113	114	1
10	33	2
104	164	3
88	107	1
38	53	2
50	61	2
22	25	1
4	134	2
45	49	2
103	107	2
98	111	3
151	169	1
5	7	1
86	93	1
43	112	2
43	45	2
133	134	1
10	13	1
97	111	1
85	127	1
17	42	1
106	107	1
38	92	1
82	83	1
68	86	4
98	100	1
78	134	1
128	157	1
60	72	3
45	52	1
18	27	1
147	180	1
31	34	1
2	12	2
75	132	1
11	14	1
79	81	1
83	164	1
59	60	2
54	75	1
117	118	2
16	40	1
176	177	1
136	176	2
148	149	3
6	10	2
23	116	1
2	16	2
12	15	2
72	113	1
21	44	1
61	62	1
76	101	1
155	161	1
62	73	1
15	22	1
22	44	2
109	148	2
72	80	1
113	117	2
4	7	1
113	135	1
72	78	1
89	96	1
132	133	1
2	11	2
124	133	1
113	141	1
162	169	2
36	115	1
161	169	1
128	136	1
127	154	2
110	111	1
62	66	1
133	159	1
99	150	2
68	92	3
141	149	1
74	76	1
117	125	1
80	105	1
14	17	1
106	166	1
160	162	2
154	167	1
61	97	1
112	167	2
164	174	1
67	70	1
150	152	1
123	162	3
9	33	2
163	165	1
38	41	1
105	123	1
126	137	2
43	53	1
80	170	1
3	10	1
2	10	1
85	88	1
89	99	1
26	33	1
12	16	1
89	110	1
125	161	1
110	120	1
23	36	1
18	60	2
141	148	1
