67	67	19
137	138	9
136	136	11
67	82	3
64	64	12
92	92	8
3	3	9
41	42	9
26	75	5
69	72	4
21	21	17
31	32	9
34	35	12
98	113	2
145	146	6
49	75	1
77	78	2
19	19	10
57	80	5
62	72	1
25	72	2
94	94	24
37	38	4
14	16	12
76	77	9
82	82	8
62	66	5
138	138	9
137	144	4
150	150	12
92	110	4
21	22	12
147	147	17
148	148	10
7	7	15
132	132	18
27	79	10
16	95	1
127	127	19
87	87	21
31	51	8
20	20	19
27	27	20
88	93	4
73	73	7
80	80	15
36	36	9
79	79	18
14	14	7
33	33	4
95	97	5
119	122	3
69	70	9
17	17	23
56	77	3
5	5	13
50	52	4
120	121	4
116	117	5
108	109	8
131	131	8
45	45	10
96	96	17
67	68	6
142	142	5
63	65	1
30	31	11
78	78	6
26	32	1
121	121	19
140	140	10
10	11	6
6	6	12
15	16	2
17	18	2
68	68	10
24	25	6
51	68	4
125	144	6
29	30	2
70	70	9
84	86	6
148	149	1
29	32	1
48	49	12
43	43	9
126	145	1
42	43	6
112	112	19
12	20	3
100	115	2
117	117	7
73	76	10
5	8	3
16	16	13
128	132	3
41	41	6
47	47	26
26	26	11
73	114	5
123	124	6
146	148	2
69	69	13
54	54	14
147	148	4
15	15	9
45	46	7
56	56	16
40	41	12
122	122	7
53	53	15
113	113	3
110	110	12
125	126	4
50	50	13
34	34	6
135	135	5
104	104	5
39	39	17
29	54	1
136	145	1
137	137	3
25	25	13
124	125	9
136	144	3
88	88	9
22	23	10
81	82	1
86	105	3
106	108	3
38	39	9
111	111	7
125	125	14
97	98	5
78	79	5
44	45	7
25	65	3
125	142	3
24	24	8
61	64	2
31	31	24
78	83	2
120	120	4
115	117	4
100	101	2
98	104	5
146	147	8
32	113	3
117	118	4
23	23	16
4	64	5
124	124	14
143	143	4
74	74	5
65	66	8
33	119	1
141	141	14
71	85	1
131	142	3
18	18	23
20	22	2
55	56	5
46	46	23
12	12	26
113	114	2
12	13	11
99	101	4
152	153	5
153	153	13
16	143	2
119	119	7
103	114	3
20	21	2
106	107	1
84	105	4
32	32	5
131	132	2
128	129	3
40	70	4
7	9	5
51	54	2
4	5	15
65	65	10
82	83	4
101	113	2
144	144	13
5	7	2
95	98	11
51	51	7
43	44	12
81	81	9
4	12	4
9	9	11
3	8	2
104	109	3
145	145	6
18	141	3
141	142	6
37	37	11
75	78	9
19	21	1
109	109	10
8	9	5
102	103	2
74	78	8
7	10	9
19	70	3
79	80	7
95	99	2
106	106	4
100	100	8
126	126	3
13	14	7
93	93	15
22	22	8
28	28	17
89	89	1
139	142	2
23	26	3
97	97	9
30	30	8
83	84	9
62	62	10
66	66	9
48	48	15
10	10	11
122	123	2
19	20	2
105	105	5
27	28	5
41	43	5
98	98	5
118	118	4
76	76	9
133	149	1
11	14	5
134	139	3
54	76	5
94	97	9
121	124	1
42	46	9
138	139	3
152	152	9
150	151	2
108	110	2
117	129	1
84	108	4
85	86	2
48	50	6
128	128	8
63	64	5
144	145	4
38	38	15
143	144	2
103	104	1
57	57	7
22	25	4
83	83	11
140	142	6
95	96	9
123	128	4
13	13	15
53	56	3
125	130	2
93	95	4
138	146	3
149	149	16
75	75	7
140	144	2
77	84	3
8	8	7
27	30	2
116	116	6
139	139	10
4	19	2
146	146	5
107	109	2
106	109	5
103	103	3
4	6	2
69	74	1
36	72	3
120	126	1
134	134	4
29	29	6
134	135	3
58	65	3
133	133	7
11	12	5
99	112	3
43	48	4
86	87	3
23	24	5
100	102	5
86	112	1
102	114	2
37	51	2
85	85	4
42	45	2
140	141	1
78	82	2
126	128	2
127	128	3
153	154	1
11	11	8
74	75	3
108	108	5
49	49	4
42	42	10
14	15	6
151	152	2
65	81	4
19	58	1
57	58	5
104	114	1
38	52	1
124	126	1
54	77	2
75	76	3
28	63	2
129	129	2
95	112	1
28	29	2
78	112	3
121	122	9
32	122	1
4	29	1
46	47	2
8	29	3
102	102	2
119	124	1
103	108	5
84	84	2
58	75	3
9	26	3
50	56	2
82	84	1
40	51	1
101	101	2
75	77	2
122	130	1
2	2	2
35	37	1
32	50	1
91	92	1
7	31	3
38	51	4
107	107	3
136	137	2
129	130	2
68	70	2
62	76	1
80	83	3
87	94	2
84	85	7
154	154	8
131	149	5
5	30	3
57	71	3
52	69	3
76	80	3
9	10	3
4	8	1
97	99	1
125	136	2
52	52	2
7	8	8
71	71	2
120	127	2
27	58	3
130	133	2
55	55	5
56	80	3
62	65	3
131	139	5
30	62	6
107	108	2
5	6	6
8	10	1
3	18	2
130	135	2
134	138	1
64	78	1
64	66	5
63	66	3
129	131	6
47	48	1
61	75	3
142	143	6
18	20	1
77	77	9
66	67	3
9	13	4
36	50	1
71	113	1
77	88	1
86	86	4
69	73	5
147	149	3
130	130	9
68	69	2
139	144	2
27	29	3
31	65	3
101	102	2
4	4	4
123	147	1
4	66	4
123	123	5
73	113	2
119	121	3
64	65	1
128	146	2
27	57	2
32	36	3
120	135	2
38	50	3
115	116	3
26	33	3
115	115	3
56	57	3
99	113	3
94	95	4
98	125	1
28	66	1
62	73	1
48	51	1
100	112	1
4	28	3
18	71	1
112	115	3
99	99	4
63	72	3
18	19	1
123	125	1
95	105	4
35	35	4
33	122	2
39	40	2
130	131	2
126	127	1
66	79	1
55	57	3
42	48	2
51	79	2
15	88	3
30	32	1
66	82	1
95	113	1
32	35	3
72	72	10
119	120	5
36	37	1
89	96	1
85	90	2
111	114	1
6	7	1
78	80	3
99	100	2
5	28	1
139	146	2
57	67	1
79	86	2
53	54	1
128	133	2
38	47	1
23	25	2
138	145	1
50	84	1
93	94	3
90	90	1
19	46	2
99	111	4
11	22	1
85	96	1
50	55	1
56	79	1
55	80	1
95	120	2
49	53	1
50	69	3
127	145	1
108	111	2
7	11	1
44	44	5
26	29	3
6	9	1
90	96	1
50	51	1
24	54	1
125	143	2
53	69	1
110	111	1
82	86	1
97	108	1
65	67	1
114	114	1
101	103	3
40	40	1
9	71	2
151	151	5
118	131	1
87	88	1
11	15	1
63	63	4
103	111	1
49	67	1
104	111	1
2	4	1
62	64	3
33	36	2
137	139	2
73	74	3
123	130	1
73	77	1
102	107	1
25	27	1
74	77	1
87	93	1
94	98	1
25	26	3
25	66	1
54	55	1
142	148	1
14	31	1
29	50	1
112	113	1
131	136	1
73	78	1
136	139	1
64	67	1
19	56	1
103	110	1
58	72	1
51	132	1
21	78	1
93	97	1
112	114	1
34	36	1
21	24	1
92	93	1
121	123	1
121	126	1
109	110	1
138	143	1
15	85	1
99	103	1
17	141	1
