84	84	11
31	31	1
16	17	2
79	79	4
77	78	2
111	112	2
10	10	4
134	135	2
108	120	1
133	134	7
126	126	7
133	133	14
36	36	6
123	126	2
71	109	3
27	29	2
35	35	8
112	112	5
131	131	11
74	121	5
36	75	2
134	136	5
81	82	12
138	138	4
21	25	1
102	102	7
126	128	2
95	97	1
13	14	7
27	27	5
26	33	2
109	109	5
75	81	6
120	120	19
106	121	2
19	19	5
11	11	3
86	104	3
80	80	11
4	6	1
30	31	3
110	111	2
118	119	4
85	85	3
110	110	9
83	83	5
18	18	10
85	86	2
79	82	3
130	130	14
25	26	4
123	123	14
38	38	2
94	94	3
134	134	5
71	72	5
115	116	10
73	73	12
122	122	4
100	100	3
111	111	9
11	12	4
82	82	5
102	103	2
118	118	2
28	29	6
23	23	4
88	107	2
93	93	6
96	96	9
103	103	1
16	16	7
15	15	3
6	6	5
121	122	4
22	24	1
127	127	13
90	90	3
33	33	3
125	125	3
123	124	2
128	128	2
136	136	6
7	72	2
74	74	8
131	136	7
114	115	3
104	112	3
95	95	19
132	132	11
98	98	2
103	107	1
124	125	2
132	135	5
93	96	3
101	101	3
15	16	3
108	121	5
12	12	1
79	86	1
105	105	7
10	11	4
25	82	3
127	128	1
8	8	2
19	66	2
81	81	5
84	105	2
87	87	2
20	23	5
115	115	4
91	91	3
109	110	2
20	20	3
104	106	5
35	36	2
112	114	2
116	116	6
1	1	6
28	30	1
12	13	2
32	33	6
82	84	3
15	18	3
114	114	5
92	93	1
89	89	3
28	28	6
0	0	3
7	8	4
107	109	2
4	4	3
5	5	2
22	22	1
106	106	1
37	37	4
88	88	5
0	1	2
25	25	2
137	138	6
73	74	1
23	24	2
21	21	4
119	121	3
127	130	1
77	103	1
120	122	2
7	7	2
139	139	3
119	119	2
113	114	1
85	87	1
107	108	1
13	15	2
98	99	3
27	78	1
77	77	3
3	7	1
104	109	1
73	80	2
120	121	1
87	88	3
37	38	1
118	121	1
1	13	1
135	135	1
6	7	1
126	127	1
140	140	1
3	4	4
32	32	1
132	133	2
113	113	2
77	80	2
76	77	1
14	14	1
34	34	2
82	105	1
26	27	1
88	108	3
78	78	2
72	73	1
129	129	3
127	129	1
99	99	2
131	133	1
9	10	2
72	75	3
5	6	1
30	30	2
82	83	1
77	82	1
92	92	1
18	19	1
88	90	1
71	71	1
3	3	2
16	18	1
71	83	1
124	127	1
34	35	2
1	2	1
119	120	2
137	137	2
27	28	1
31	79	1
3	14	1
108	109	1
130	131	1
17	17	1
76	76	2
25	99	1
83	89	1
138	139	1
4	5	1
134	138	1
29	30	1
13	13	1
131	132	1
139	140	1
8	12	1
92	110	1
97	97	1
76	79	1
17	77	1
3	5	1
86	88	1
101	102	1
80	88	1
