97	97	9
49	50	3
71	71	6
98	98	5
48	48	11
41	41	7
63	63	8
86	87	4
93	94	6
51	51	6
95	96	1
72	72	7
48	59	1
68	68	7
53	53	8
33	33	2
52	80	1
91	100	2
52	52	5
64	64	7
89	89	3
60	61	4
100	100	3
49	49	6
56	89	1
76	76	1
54	60	4
82	82	4
99	99	7
49	51	2
43	75	4
99	101	4
42	42	7
40	69	3
38	69	1
59	59	11
85	89	4
61	61	6
47	48	7
79	79	4
55	60	5
24	27	5
44	45	3
43	43	6
31	59	2
95	98	2
27	27	2
92	92	9
83	87	3
95	95	5
40	40	9
25	25	5
101	101	10
62	62	6
93	93	9
20	22	5
59	89	2
33	92	1
40	43	5
28	28	3
54	54	8
68	90	3
70	70	8
25	31	1
29	62	1
42	76	3
90	90	6
57	63	1
69	69	2
66	67	3
54	86	1
77	90	1
44	44	2
86	86	1
81	101	1
74	74	7
58	61	1
83	83	6
46	88	3
87	87	10
94	94	5
84	84	3
51	56	1
91	92	3
24	24	5
87	89	1
56	56	1
80	80	2
54	56	1
71	72	1
32	58	1
36	36	6
58	59	3
79	100	1
56	57	5
57	57	5
26	31	2
88	89	5
87	88	11
39	39	7
45	47	2
67	67	4
68	69	3
102	102	3
24	25	2
39	40	2
24	29	1
87	92	1
47	47	6
39	77	2
34	82	3
31	31	3
65	66	4
89	90	2
60	60	4
23	30	2
65	67	3
21	92	1
28	29	4
98	100	1
22	24	2
97	98	1
86	98	1
25	33	2
73	74	2
47	55	6
55	88	3
25	26	2
29	29	2
55	81	2
42	75	1
27	54	1
55	94	2
45	46	1
26	26	4
55	86	1
92	102	1
65	74	1
91	91	4
88	88	5
66	66	7
62	101	4
23	27	1
53	100	2
58	58	1
37	37	4
50	57	3
43	80	2
23	93	3
84	98	2
87	96	2
46	46	2
73	73	3
48	92	1
41	42	1
96	96	4
40	75	2
53	55	1
39	91	1
20	34	1
64	65	1
92	93	1
86	97	1
48	80	1
24	26	3
76	77	4
48	49	1
32	34	2
83	89	3
78	78	2
87	91	1
61	62	3
52	84	2
83	96	3
65	65	4
41	64	1
85	85	6
33	35	1
100	102	1
96	98	2
36	37	2
84	89	1
98	99	1
81	81	1
35	61	1
30	30	1
83	84	2
38	38	1
58	63	1
56	60	1
54	55	1
90	91	1
27	28	1
22	22	1
64	90	1
79	82	1
37	85	1
66	101	1
63	64	1
55	56	1
