54	56	3
66	66	6
172	172	5
29	32	3
40	139	3
65	65	5
148	148	20
114	118	5
174	174	9
85	90	1
88	88	1
120	120	5
171	171	1
94	94	2
44	126	1
165	165	6
3	152	3
130	137	2
43	44	4
87	87	5
48	48	3
134	135	1
55	55	8
95	95	3
118	118	6
64	64	8
30	66	3
158	158	3
105	114	1
19	149	2
59	59	8
39	39	1
62	62	3
95	98	1
37	46	2
83	84	3
83	83	6
105	151	1
24	84	5
33	33	6
23	24	1
64	82	2
95	96	3
102	102	3
150	151	10
5	12	5
94	98	1
47	74	1
141	143	2
21	156	4
29	118	2
57	81	6
122	122	3
9	10	1
181	181	1
137	137	7
150	150	2
25	34	1
117	118	6
41	41	6
178	178	3
37	107	1
5	5	4
73	73	5
174	175	1
143	143	9
27	116	4
47	48	6
81	81	9
112	112	7
29	29	5
137	138	3
104	104	3
166	182	2
33	34	10
90	90	3
12	13	2
152	152	7
65	67	3
19	99	1
151	151	5
33	107	2
94	120	4
10	10	1
69	69	2
80	80	8
68	68	5
0	119	1
11	12	2
13	13	3
74	74	6
147	147	6
40	40	7
57	68	1
113	113	4
127	127	5
82	82	3
121	121	7
6	7	1
56	56	4
43	43	13
32	117	2
142	142	3
20	99	1
53	54	2
26	46	5
140	140	2
117	117	12
18	20	4
104	108	1
155	155	5
56	155	3
124	124	5
108	108	8
164	164	2
114	114	6
81	83	1
101	101	6
116	116	1
84	123	1
7	8	6
46	47	6
18	100	1
12	146	1
84	84	1
107	107	1
12	12	7
15	19	1
91	93	7
86	86	8
123	123	3
27	29	3
143	144	1
129	142	1
44	45	3
14	15	3
32	35	7
6	149	2
66	67	3
54	54	2
47	123	3
182	184	4
21	21	3
16	16	12
142	174	8
102	108	1
107	108	3
14	14	4
16	20	1
110	113	2
190	190	1
31	31	5
19	126	2
96	97	1
23	89	2
142	143	1
140	142	2
160	174	1
53	148	1
46	46	5
24	24	8
139	139	4
81	122	1
138	146	1
11	29	6
89	122	3
27	27	2
123	148	2
173	173	5
140	141	1
104	131	1
32	36	3
182	182	3
99	99	1
19	151	2
3	5	3
158	162	5
39	123	4
61	61	1
43	45	3
67	67	3
20	155	1
185	185	2
1	1	1
31	34	4
153	153	2
70	71	4
10	155	1
54	154	1
111	111	7
75	77	3
180	180	2
160	160	1
29	137	4
71	73	2
63	165	4
116	119	8
71	71	2
110	110	4
28	28	3
90	107	2
119	120	4
42	46	1
134	134	4
127	128	2
131	165	1
149	150	1
105	105	6
19	19	6
79	80	2
130	157	3
106	106	3
17	18	5
57	60	3
126	126	1
26	59	1
91	112	1
11	146	3
103	103	1
3	3	3
19	21	2
150	152	1
103	129	4
178	179	1
102	103	1
57	57	3
54	55	2
65	66	2
115	119	1
36	37	2
170	170	1
143	176	1
6	6	2
65	165	2
43	126	2
130	130	5
141	141	6
156	157	2
20	20	3
26	26	3
144	144	4
38	80	1
104	151	1
59	165	2
184	184	1
136	136	3
5	6	3
68	136	3
4	153	3
138	143	1
16	17	3
53	53	1
24	25	2
123	125	4
97	97	1
63	65	1
93	93	4
37	37	1
38	38	5
68	69	1
21	22	2
106	107	2
35	36	1
34	34	4
92	93	1
30	117	2
83	164	2
72	72	2
36	113	2
31	33	4
109	109	2
5	149	1
177	177	2
72	73	3
45	46	2
7	11	3
163	165	2
124	125	1
29	105	2
133	136	2
71	72	1
118	119	2
171	172	2
28	130	1
86	87	2
134	137	3
157	157	2
76	76	1
75	76	1
188	188	2
2	2	1
34	57	1
103	109	2
94	95	2
100	100	4
78	88	2
121	122	1
131	156	2
76	77	1
72	190	4
46	81	1
183	183	2
13	111	1
11	147	1
23	23	2
74	78	1
4	85	1
43	131	2
22	89	3
15	126	1
72	130	2
160	170	2
25	25	1
78	78	3
77	77	1
35	35	1
25	165	1
20	21	3
30	30	3
70	74	1
89	90	3
15	103	1
23	87	1
147	150	1
179	183	3
44	46	1
17	100	1
34	35	1
17	52	3
16	48	1
25	64	1
64	65	1
24	114	1
92	92	1
96	96	1
0	0	1
61	162	2
81	154	1
123	124	1
163	163	1
119	119	1
109	110	1
138	138	2
0	13	1
41	139	1
114	115	1
13	114	1
13	14	1
0	35	1
26	43	1
42	42	1
46	78	1
47	47	1
152	153	1
24	78	1
30	137	1
32	32	1
57	67	1
128	128	2
26	116	2
135	136	2
45	45	1
59	79	1
18	21	2
39	144	1
134	151	1
132	132	1
52	52	1
109	111	1
13	15	1
10	156	1
36	45	1
33	144	1
62	63	1
60	154	1
53	56	1
38	39	2
17	103	1
36	112	1
89	89	1
33	35	1
116	156	1
22	156	1
132	135	2
22	22	1
109	130	1
4	4	1
2	120	1
71	148	1
81	162	1
