58	58	23
95	95	17
65	65	23
49	50	15
52	52	23
45	45	11
90	92	3
51	81	1
82	82	13
71	71	13
29	79	2
86	91	2
25	25	4
72	72	26
67	69	3
40	76	1
48	48	27
81	81	22
46	46	20
73	73	22
92	93	3
64	64	14
44	44	11
57	57	28
36	36	8
61	61	17
67	68	4
80	80	25
47	47	13
88	89	5
83	92	5
55	55	12
86	86	21
60	60	18
93	94	10
38	38	10
89	89	19
90	90	14
47	48	14
51	52	4
56	71	5
85	85	17
102	102	5
63	64	9
51	51	14
86	88	4
81	82	7
79	79	6
49	49	18
52	56	4
30	30	2
92	92	10
65	66	7
78	79	1
68	68	21
59	59	15
92	95	5
56	58	6
26	27	2
56	56	18
37	38	5
66	66	10
55	100	2
88	88	8
46	53	2
76	76	5
67	67	26
32	32	2
94	94	7
99	100	12
69	69	15
50	50	32
80	83	1
76	77	10
40	40	13
86	87	2
45	53	4
73	74	6
56	57	10
71	72	17
34	34	11
46	47	7
99	99	15
79	83	7
48	49	12
98	99	6
91	91	14
51	85	2
31	76	8
75	77	1
57	73	1
87	88	9
83	83	8
58	59	7
42	42	15
63	63	26
97	97	6
37	37	9
70	70	20
60	61	3
33	33	4
34	35	3
78	78	16
43	44	8
61	62	7
91	92	8
82	84	1
39	39	28
62	63	2
87	87	7
35	35	21
49	51	3
85	86	6
56	65	1
29	29	3
75	75	5
62	62	11
62	66	1
77	77	10
67	75	3
61	64	1
82	98	2
84	84	5
67	76	1
38	57	1
98	98	6
48	50	6
38	79	1
53	53	8
69	72	2
100	100	11
47	49	1
88	90	2
44	50	6
41	57	3
79	100	2
55	56	1
66	69	2
79	80	1
41	41	18
50	51	4
51	79	3
94	96	3
70	72	3
58	81	1
29	77	3
76	79	3
25	26	4
44	45	3
97	98	7
26	97	1
51	99	1
28	28	3
89	91	3
87	94	2
32	33	5
60	63	1
69	75	1
74	75	7
54	54	4
30	93	1
89	98	1
74	74	10
101	101	15
68	69	3
83	93	2
38	59	4
72	73	3
69	76	1
23	23	1
93	93	7
61	78	2
52	53	4
96	97	1
64	69	3
41	43	2
55	57	1
40	41	5
20	30	2
31	31	6
84	99	1
36	37	1
36	40	4
83	84	6
64	65	1
70	77	2
58	60	2
68	76	5
65	67	2
63	72	1
55	69	1
71	77	1
93	98	2
69	77	1
101	102	1
76	81	3
89	90	4
81	84	3
51	86	2
39	79	1
80	81	3
75	76	2
58	73	3
100	101	1
71	73	1
33	35	3
26	26	1
84	86	2
62	82	1
42	43	4
64	68	1
27	95	1
66	70	2
68	74	1
24	24	1
83	98	1
77	98	2
49	78	4
57	58	1
27	27	1
72	74	1
31	78	4
92	94	1
53	96	1
68	70	1
88	98	2
59	60	2
59	65	3
53	55	1
67	74	2
53	54	2
22	22	1
96	96	2
46	54	3
28	89	1
27	28	1
77	78	2
41	42	4
38	90	2
24	87	3
57	72	1
70	71	2
35	36	1
54	55	2
62	84	1
38	47	1
41	56	2
51	88	1
93	99	2
95	96	1
32	100	1
100	102	2
32	98	1
43	43	3
91	93	1
66	67	1
29	95	2
86	89	1
72	75	1
40	90	1
55	85	1
87	89	1
94	98	1
27	96	1
38	39	1
81	83	1
45	49	1
51	55	1
