112	113	4
42	43	3
98	103	8
132	133	10
128	128	5
20	50	1
38	39	4
84	87	2
29	29	9
114	115	3
46	47	13
11	12	8
119	119	20
58	58	10
92	92	7
53	54	2
119	120	6
50	50	5
104	104	17
45	46	4
53	53	6
39	39	9
78	79	16
62	63	1
90	91	5
7	7	16
24	24	9
123	123	10
19	21	8
41	41	5
26	26	6
41	43	6
89	93	2
51	51	19
22	22	15
54	54	23
71	73	1
67	68	6
73	73	4
131	131	5
93	105	3
64	89	3
23	23	5
52	52	16
42	42	6
84	88	2
55	55	14
71	71	8
124	125	15
109	110	1
58	59	4
15	24	3
113	113	4
110	111	10
18	19	8
48	49	9
97	98	4
70	79	1
109	109	10
80	80	10
108	130	3
62	62	14
108	109	4
50	77	1
45	45	6
97	99	4
5	7	4
33	73	5
125	128	1
114	114	9
32	34	1
1	2	9
63	82	2
76	85	2
48	50	4
74	74	7
31	32	7
46	46	17
95	95	8
89	91	3
85	89	4
123	124	6
52	111	6
47	48	2
72	72	8
28	29	9
82	82	11
132	132	3
9	9	14
50	51	1
112	112	10
121	122	4
87	88	6
48	48	18
0	1	4
76	76	11
118	129	4
12	12	4
20	20	14
118	120	2
11	11	13
74	75	7
67	67	3
38	38	7
85	85	7
72	73	2
4	6	4
33	33	3
0	49	2
122	122	14
57	57	12
115	115	17
51	111	3
61	62	7
106	106	9
101	102	10
51	52	13
122	124	1
13	14	5
98	98	11
29	30	6
8	8	2
65	65	9
26	64	2
115	116	6
86	86	15
3	41	1
89	89	12
2	2	10
104	105	6
5	5	8
0	56	2
26	27	5
101	101	18
40	41	6
72	85	4
15	16	9
31	33	1
56	56	8
34	34	9
131	132	2
60	63	5
99	104	4
83	84	4
87	109	1
90	90	2
126	126	13
30	30	8
6	6	9
64	69	5
91	91	11
126	131	3
13	13	5
32	32	8
15	15	10
118	118	8
106	107	8
127	128	4
108	117	3
102	106	3
69	69	4
118	125	3
19	20	9
25	25	6
68	68	7
14	14	15
17	18	3
102	103	7
118	124	3
66	66	9
59	61	2
90	122	3
24	26	5
107	108	3
95	97	4
94	94	13
27	27	4
94	95	8
88	88	6
100	100	6
121	121	5
31	31	3
21	53	1
47	47	10
119	130	4
63	81	1
58	62	1
129	130	3
49	49	10
3	3	3
83	83	4
20	22	3
38	50	2
0	40	4
4	4	2
115	130	2
2	30	1
60	62	2
96	99	4
70	71	4
102	102	10
81	81	3
12	79	1
109	117	1
40	40	6
79	80	4
99	99	8
9	10	3
11	102	2
88	90	1
110	110	8
77	78	1
105	105	11
107	118	2
1	1	4
98	99	3
14	47	2
110	112	2
10	47	1
101	104	4
78	82	2
125	125	5
60	61	3
116	117	1
127	127	5
95	96	6
55	64	1
16	16	13
52	56	2
130	131	4
109	111	1
72	75	3
68	76	2
110	114	1
50	76	2
118	131	3
120	120	18
125	126	2
99	100	2
116	116	7
87	87	3
122	123	7
111	111	14
126	127	2
87	89	2
112	120	1
80	85	2
0	0	4
24	55	1
133	133	5
106	108	2
85	87	1
123	125	1
49	50	6
38	72	1
117	117	12
64	64	7
49	64	4
79	79	4
5	6	4
91	92	4
76	84	1
92	93	2
4	85	3
18	20	1
94	96	6
59	62	3
10	10	3
2	3	2
70	70	4
53	110	2
0	2	5
19	19	3
119	125	2
45	47	3
112	132	2
68	83	3
84	84	5
113	114	3
87	105	2
63	64	2
93	93	5
8	61	2
47	71	2
108	108	3
89	90	5
75	76	4
63	102	1
71	72	3
0	57	1
107	107	4
50	64	2
25	26	1
86	87	1
16	53	4
75	85	2
76	79	1
119	128	1
60	60	4
7	86	1
114	130	2
98	131	1
30	31	1
117	118	3
44	44	7
126	128	2
120	125	1
107	109	8
57	82	1
59	60	5
75	84	2
93	94	1
7	11	1
46	48	2
99	125	1
52	131	1
54	56	1
43	45	4
76	94	1
116	131	2
55	57	6
56	57	1
8	12	4
103	104	1
120	121	2
76	77	1
20	21	1
129	131	1
10	11	1
88	122	1
50	52	1
17	17	1
60	88	2
23	24	2
6	9	3
73	75	3
124	124	5
3	59	2
110	122	1
69	70	2
130	130	4
54	64	2
12	89	1
103	103	1
120	130	1
46	72	1
43	43	2
64	71	1
22	30	1
63	63	1
66	76	2
52	53	2
39	43	1
40	46	2
39	73	2
49	54	1
26	51	2
21	22	1
52	55	3
3	50	4
102	104	1
26	68	2
85	86	1
3	4	1
77	77	2
39	55	2
98	108	1
75	75	3
82	83	1
18	86	1
54	55	3
72	74	2
2	27	3
96	96	1
84	85	1
100	101	1
78	78	1
14	25	1
95	125	1
51	53	1
56	64	1
28	28	2
97	97	1
4	47	1
17	40	1
3	30	1
27	28	1
65	66	1
111	112	1
8	10	1
124	130	1
73	74	1
94	103	1
21	31	1
30	86	1
129	129	1
2	50	1
94	100	1
59	63	1
64	65	1
121	123	1
7	19	1
109	118	1
6	88	1
8	11	1
21	21	1
96	97	1
3	13	2
61	61	1
42	54	1
80	81	1
57	78	1
20	88	1
34	39	1
105	106	1
64	79	1
70	123	1
