104	104	8
60	82	5
165	166	3
67	67	6
142	142	5
141	149	3
23	23	10
125	126	1
39	39	13
110	110	4
181	182	2
21	21	18
63	63	8
62	62	11
42	48	3
121	121	5
77	78	2
66	67	11
161	166	4
16	16	7
99	99	9
79	79	6
86	89	2
59	61	3
45	45	2
57	86	4
82	83	3
90	130	3
8	9	1
61	73	4
72	72	6
23	24	2
115	115	3
119	122	1
90	91	3
46	46	16
111	111	9
104	112	2
8	28	3
103	103	10
162	162	6
178	178	3
80	81	11
87	88	3
149	150	5
143	143	14
41	41	10
14	17	6
18	19	2
73	73	5
112	112	4
135	138	2
96	97	1
123	123	6
39	40	4
38	38	3
29	29	6
20	20	2
57	57	8
2	3	2
53	53	2
63	64	2
161	161	2
150	151	1
97	115	1
48	48	2
120	122	5
85	85	5
133	154	2
155	155	1
134	137	2
60	73	3
22	118	1
7	7	17
144	144	4
98	99	2
5	6	3
27	28	6
20	27	3
141	141	9
22	44	1
23	155	2
35	35	6
184	184	3
56	72	2
26	26	9
170	170	1
139	139	4
149	149	3
90	90	10
134	155	2
123	124	3
114	114	10
79	81	4
121	183	3
3	3	7
163	163	2
12	140	1
58	58	5
74	78	1
103	151	2
150	157	4
23	83	1
91	93	4
106	106	11
21	22	6
88	127	2
58	95	1
117	183	3
25	25	1
121	180	4
108	108	7
6	6	4
39	41	1
20	43	3
74	74	5
86	86	2
47	48	2
190	190	3
32	153	2
31	36	4
61	62	3
101	115	1
157	159	1
64	65	3
130	130	4
109	110	5
18	18	1
61	61	3
146	146	14
96	113	2
121	146	1
105	105	9
138	139	2
44	44	10
36	37	5
145	145	7
9	11	3
13	17	1
155	166	2
59	60	6
91	91	10
12	16	4
101	102	4
127	127	6
64	67	3
71	71	8
84	84	10
3	4	1
88	88	11
118	133	2
99	128	5
128	129	1
96	131	4
143	159	1
177	177	5
138	157	1
148	148	1
70	72	4
124	124	5
93	131	6
21	64	2
89	89	10
57	95	3
74	75	3
35	63	2
55	55	3
142	143	7
73	78	3
161	164	6
78	81	1
16	17	3
21	66	3
96	96	6
156	156	3
28	28	7
156	157	4
53	54	2
43	44	1
123	125	3
62	63	3
119	120	1
100	100	11
136	146	5
120	120	9
132	132	2
12	13	3
4	5	2
9	42	5
32	35	2
131	131	6
189	189	7
175	175	1
152	152	8
136	136	7
139	177	3
56	56	13
135	155	2
1	1	2
26	29	4
123	153	3
67	68	4
4	4	6
43	53	1
97	118	3
7	8	1
91	130	7
13	16	3
20	42	4
113	113	11
0	17	1
5	12	1
20	21	3
145	160	4
59	59	3
25	26	1
93	93	6
78	78	6
143	160	1
172	173	7
31	31	8
56	59	5
34	34	5
167	168	3
85	104	1
115	135	3
25	174	2
74	76	4
58	59	4
60	60	3
68	68	10
13	14	1
98	98	8
136	137	4
26	176	1
30	30	4
32	33	3
94	94	4
92	92	6
77	81	3
75	75	1
54	54	1
82	82	9
174	174	6
174	176	2
71	76	2
150	150	1
101	101	9
102	103	5
164	165	1
169	169	1
56	57	3
23	44	3
117	120	1
35	64	2
155	165	2
68	70	1
10	11	3
40	40	7
129	147	3
15	15	5
183	183	2
103	106	1
42	42	4
85	95	1
24	24	2
87	87	2
110	111	2
58	86	4
21	121	2
157	158	1
75	76	2
100	108	2
19	20	3
153	154	4
76	79	1
102	102	2
103	110	2
37	37	1
137	137	2
34	66	2
121	167	1
153	153	5
33	34	2
146	158	1
137	156	4
2	40	2
11	11	3
52	60	1
125	125	13
137	138	1
60	72	1
22	65	2
20	121	3
95	109	2
187	187	6
37	68	3
27	27	5
155	156	3
136	157	1
65	65	5
29	45	2
107	108	3
116	116	3
83	83	3
124	125	2
28	29	2
27	171	4
26	30	1
14	15	6
11	12	2
4	12	2
26	174	2
19	19	4
136	139	2
40	74	3
113	131	3
171	171	3
22	23	1
59	63	2
23	152	1
129	129	9
32	32	2
121	122	1
151	151	2
45	47	1
5	5	3
31	32	1
36	44	1
0	0	1
30	31	4
133	133	4
53	55	4
17	17	5
188	190	5
37	80	1
45	155	1
34	35	3
131	132	1
40	41	3
25	28	4
118	118	3
130	131	4
118	120	1
70	70	4
181	181	1
154	154	2
19	42	1
22	22	1
36	36	2
104	113	2
136	168	1
82	95	2
64	64	1
2	2	3
28	153	2
165	165	2
38	40	2
125	129	1
32	34	2
122	123	5
11	19	1
135	139	3
84	94	1
134	135	5
166	166	1
9	9	1
44	45	3
134	168	1
167	167	1
132	136	1
6	9	3
138	138	6
20	46	2
37	74	1
76	81	2
147	147	3
25	27	2
134	134	1
115	131	2
31	67	2
84	99	1
145	147	1
117	117	1
164	164	3
148	149	3
147	148	2
86	94	1
114	118	3
132	133	1
97	97	5
109	109	1
154	155	1
115	145	3
47	47	5
135	137	2
111	112	2
79	80	2
106	107	1
94	95	1
95	111	3
0	10	1
57	68	2
73	77	2
105	106	1
8	8	3
84	122	1
28	36	1
61	64	1
77	77	3
142	160	1
85	86	1
45	46	1
21	46	1
102	126	3
136	156	2
80	80	2
17	108	1
126	127	1
63	65	1
88	110	1
169	172	1
52	58	1
179	179	1
188	188	1
116	118	1
73	82	1
157	160	2
137	158	2
59	73	1
101	125	2
163	167	2
150	158	1
139	169	2
135	136	1
121	168	1
140	142	1
104	105	1
119	165	2
10	10	1
66	66	1
95	95	3
150	162	1
140	141	3
89	108	1
21	119	1
162	165	1
0	18	2
173	173	1
55	76	1
92	95	1
43	43	1
119	119	1
76	76	1
100	120	4
84	85	1
109	112	1
30	37	2
63	84	1
188	189	1
157	157	1
36	38	1
111	113	1
161	162	1
116	129	1
108	109	1
27	29	1
64	68	1
182	182	1
142	148	1
104	109	1
117	118	1
1	7	1
135	135	1
37	57	1
57	96	1
14	14	1
30	45	1
32	66	1
144	162	1
35	66	1
23	25	1
35	36	1
170	181	1
13	13	1
