85	86	5
58	58	6
19	20	1
54	54	7
47	76	6
140	142	4
4	8	5
234	240	2
193	193	5
5	7	8
212	212	12
50	50	9
8	36	3
211	211	5
56	56	1
20	21	1
197	197	3
139	139	5
183	183	1
153	153	4
182	182	9
239	239	2
42	42	4
177	177	7
48	48	13
209	209	2
128	129	4
13	16	5
65	65	15
213	213	5
67	67	9
104	195	5
98	98	14
140	140	2
223	224	2
155	161	1
17	17	5
27	27	10
59	81	1
210	210	10
122	122	4
32	32	4
61	61	3
223	223	4
155	158	4
167	172	2
230	230	7
158	159	3
191	192	1
114	114	3
238	238	3
102	102	5
26	26	11
3	8	4
25	26	3
6	34	4
189	189	4
217	218	2
152	162	1
53	53	13
14	14	2
16	16	3
181	181	16
56	57	5
136	136	1
218	218	6
8	16	3
77	78	9
135	136	3
220	222	5
157	200	1
49	53	6
128	130	2
175	176	3
115	116	4
119	123	4
105	115	5
228	228	2
178	187	1
28	28	9
74	74	6
6	11	3
98	99	2
19	19	9
144	168	2
176	216	1
180	180	2
194	196	1
150	150	7
51	51	12
101	101	2
9	20	4
152	152	2
165	165	5
85	85	9
226	227	3
98	100	3
12	12	4
145	147	3
228	229	4
167	167	4
60	60	2
210	212	1
55	55	6
72	233	3
71	73	2
29	29	10
43	72	1
191	191	2
88	88	8
137	137	4
83	84	2
215	217	2
52	82	4
211	212	3
111	111	2
63	63	10
167	168	1
63	64	3
9	19	1
119	119	1
22	33	2
25	37	4
126	126	1
62	101	1
141	141	8
146	146	4
161	161	3
125	126	2
133	174	3
172	173	3
1	3	6
113	113	2
8	8	6
199	207	3
47	47	5
77	77	1
11	11	4
35	38	5
145	145	4
237	237	2
116	145	1
203	203	2
158	198	3
217	217	3
180	181	5
153	154	3
36	39	2
166	169	3
155	188	2
150	151	2
154	154	2
20	64	1
209	210	1
75	80	2
157	158	3
174	174	1
141	142	5
165	167	2
4	4	2
81	82	4
13	13	3
8	23	4
239	240	4
57	57	4
205	206	3
4	5	2
224	224	2
135	217	1
163	163	9
198	198	9
136	138	2
76	76	2
128	128	1
100	100	3
175	175	3
68	68	5
79	79	7
121	121	3
147	147	5
179	180	2
234	234	2
37	43	2
105	154	3
11	46	1
220	220	5
142	142	1
221	223	1
186	186	3
180	205	1
201	201	2
38	38	5
174	175	7
9	9	3
186	189	4
8	39	2
76	79	2
19	54	2
104	105	2
18	18	4
236	236	7
46	72	4
0	0	2
181	182	3
37	38	3
32	33	3
23	59	2
48	83	3
124	154	1
158	158	4
46	46	4
69	69	7
78	78	1
20	20	2
220	232	2
127	128	4
34	34	5
211	228	1
107	125	2
118	118	4
76	77	1
170	170	3
97	97	1
183	184	3
6	21	1
9	36	1
156	157	3
50	51	1
10	38	1
41	41	3
52	62	2
40	42	1
31	31	3
43	69	2
4	7	3
15	29	3
183	187	1
72	72	4
65	82	3
2	23	1
27	70	3
144	163	1
39	39	7
158	188	1
66	66	3
106	106	5
86	86	2
35	35	4
34	35	2
14	16	3
73	73	1
33	35	1
130	130	3
28	31	2
107	126	2
15	228	1
135	135	4
42	220	2
103	137	1
109	109	6
105	105	2
64	66	1
118	129	4
70	70	5
125	127	2
168	168	4
64	65	1
102	157	1
0	26	3
9	32	4
58	59	1
58	103	1
41	221	1
197	231	1
214	214	3
191	214	3
22	22	5
62	86	2
148	158	2
184	184	1
159	165	2
155	157	1
25	25	1
24	25	2
129	129	3
124	126	1
13	41	2
67	69	2
17	18	3
80	81	2
73	74	3
215	215	2
59	74	1
156	156	1
118	122	3
138	138	4
72	121	4
82	82	2
109	111	3
23	23	2
24	27	1
60	61	2
120	120	2
233	233	2
37	37	2
40	95	1
103	103	1
195	213	1
200	200	3
174	180	2
133	133	3
117	117	6
140	141	1
121	122	1
5	21	1
204	204	3
57	60	2
70	95	1
70	97	3
186	195	2
10	10	3
16	64	2
240	242	1
129	131	2
18	55	1
69	197	1
179	179	1
59	59	7
184	209	3
99	99	2
186	188	4
177	203	1
203	204	2
40	41	4
11	13	1
2	3	3
51	62	1
195	195	1
166	166	6
191	220	3
45	74	4
52	53	3
96	96	3
192	193	1
176	176	2
64	64	1
205	205	3
14	15	2
195	211	1
204	217	1
18	21	1
153	197	2
224	229	2
169	169	1
173	173	2
66	68	1
115	144	1
80	83	1
234	239	1
120	125	2
199	199	3
227	227	2
192	192	1
101	174	2
65	66	1
7	7	1
173	174	1
33	33	1
36	42	1
238	240	3
43	43	1
68	69	1
75	75	1
221	222	2
21	24	1
51	75	2
13	14	4
176	178	3
170	176	1
154	157	2
71	71	1
55	68	1
17	22	1
96	97	1
219	224	1
46	64	1
74	121	1
189	198	1
143	144	1
171	171	1
4	12	3
77	79	2
133	175	1
105	117	1
74	79	2
151	152	1
235	235	1
160	160	1
199	200	1
190	191	4
162	163	1
116	116	2
136	154	1
50	52	1
80	80	1
18	59	2
208	208	1
187	187	1
162	162	2
115	115	2
123	123	2
6	6	3
88	101	2
0	11	1
222	222	2
44	44	1
44	139	2
49	49	1
210	230	3
48	53	1
3	6	2
219	220	4
216	216	1
63	97	1
117	118	1
62	62	2
200	201	1
58	84	1
240	240	2
29	30	1
15	150	1
27	28	1
111	113	1
192	222	1
30	32	1
204	215	2
12	13	2
15	17	2
20	23	1
12	35	1
9	24	1
119	146	2
124	124	2
12	37	1
127	127	1
1	1	1
233	236	1
149	153	1
7	21	1
226	226	1
30	30	1
221	221	1
200	211	2
75	85	1
103	126	1
80	119	1
4	6	1
54	68	1
55	66	1
197	232	1
