86	86	9
57	57	4
70	70	5
35	35	8
8	11	2
25	26	2
14	74	5
133	133	7
56	84	1
1	1	2
6	7	4
69	69	2
68	70	1
68	76	3
106	106	3
79	80	2
122	122	4
28	29	1
100	108	2
68	77	4
76	76	4
131	132	2
118	118	5
10	63	3
47	47	10
18	18	3
25	25	6
56	56	3
59	101	1
134	134	5
62	62	3
95	95	4
79	79	8
27	83	1
32	32	5
119	119	1
93	100	2
61	75	2
123	123	4
94	94	3
4	6	6
57	60	1
108	108	4
0	0	3
26	81	1
81	81	2
28	30	1
132	132	14
20	20	4
104	104	3
66	66	3
67	67	6
10	10	3
18	23	2
60	85	1
63	64	2
57	58	2
35	118	2
74	74	5
91	91	4
87	89	3
108	109	1
131	131	3
115	128	3
121	121	2
59	59	5
85	85	2
22	35	2
3	44	5
23	25	4
16	20	2
96	96	9
82	83	4
11	21	4
125	125	6
27	28	1
22	93	1
121	122	4
3	3	5
65	65	3
7	8	4
118	126	1
129	133	1
14	23	2
46	46	6
22	22	2
93	93	6
30	134	1
93	98	4
27	29	3
0	20	2
12	44	1
36	36	2
73	74	1
7	15	2
87	87	1
34	47	2
77	77	6
102	102	6
64	64	3
22	31	4
41	42	2
128	128	1
11	27	1
99	99	4
19	19	2
12	12	10
4	5	2
94	95	1
6	96	1
74	99	4
26	26	3
38	40	1
42	117	2
30	59	3
90	90	3
91	92	2
95	96	2
5	20	1
100	100	2
26	27	3
70	75	2
29	29	1
16	16	5
73	73	6
115	129	1
59	62	1
23	24	2
60	84	3
60	116	4
11	88	1
71	76	1
21	21	3
16	36	2
17	17	1
89	89	4
64	65	1
126	126	1
45	45	1
7	7	2
46	47	3
105	110	1
86	98	3
4	93	2
112	112	1
47	48	1
61	61	1
5	15	2
33	37	1
59	60	2
5	5	2
28	28	2
40	84	1
43	43	2
31	34	1
51	56	1
115	126	2
11	87	1
113	114	2
94	96	1
62	63	1
34	38	1
40	82	2
120	121	1
37	37	1
31	32	2
44	44	2
34	35	1
80	80	1
31	31	2
13	90	1
14	14	1
82	82	3
85	86	2
70	72	3
109	113	1
55	55	1
71	77	1
42	42	1
60	80	1
30	35	1
20	27	3
63	82	1
29	30	2
4	4	1
9	9	1
1	22	2
62	80	1
11	86	1
83	83	1
31	35	2
27	27	1
103	104	1
78	78	2
40	42	1
42	43	1
20	63	1
111	111	1
104	105	1
124	124	1
113	113	1
64	103	1
114	114	1
103	103	1
