240	242	3
234	234	9
173	173	11
21	22	7
185	185	4
64	65	3
79	80	6
226	226	2
228	228	7
135	135	12
55	56	3
107	108	7
50	189	2
160	161	6
40	40	9
235	236	9
60	61	6
192	196	5
123	123	2
219	219	18
50	51	3
2	2	9
63	77	1
55	55	8
128	128	5
73	74	2
153	155	1
116	119	7
175	175	9
198	198	3
140	146	5
43	43	7
240	240	9
4	6	2
185	186	10
74	74	17
84	84	1
22	22	3
141	141	1
120	120	8
30	30	6
42	200	4
176	176	4
190	191	5
208	208	6
169	170	1
104	104	4
61	61	17
2	25	2
60	76	7
221	221	4
28	28	23
148	153	5
23	24	3
46	46	16
10	38	2
200	200	12
136	136	13
20	21	2
203	203	16
4	4	8
5	6	3
15	16	5
0	0	2
42	42	20
8	8	17
16	16	7
11	11	8
27	27	18
178	178	4
207	208	4
39	40	5
75	76	1
210	211	1
4	12	3
230	230	10
154	162	1
79	79	5
40	80	3
38	38	9
37	37	6
86	86	12
115	116	4
26	28	3
32	32	9
5	14	2
35	35	6
160	160	10
10	10	9
188	188	3
226	229	2
170	170	15
20	20	12
6	6	4
21	21	10
52	157	1
129	129	4
118	118	5
56	56	2
131	131	5
77	77	7
217	230	1
45	45	8
170	172	2
223	223	6
16	17	2
49	50	1
70	70	9
30	31	1
20	26	1
197	200	3
11	46	1
24	25	9
7	7	7
118	119	4
19	31	1
23	23	11
38	39	13
39	41	1
171	201	3
51	51	5
218	220	3
232	232	9
14	14	5
226	227	4
58	58	6
217	217	6
82	82	4
5	7	2
73	73	10
108	108	2
148	148	4
122	143	5
184	185	6
5	16	2
63	63	7
229	230	2
41	41	7
1	1	2
229	231	3
61	62	2
65	65	11
29	30	2
31	31	5
156	156	1
147	148	7
144	145	7
117	118	7
74	75	3
214	214	5
7	8	17
150	154	1
134	135	3
9	9	9
97	97	14
209	209	7
11	12	2
224	224	4
134	134	14
27	233	3
24	24	2
239	239	8
65	66	9
3	3	10
159	159	11
26	26	5
106	106	2
144	144	4
143	168	3
147	147	3
88	97	2
187	187	5
67	82	1
39	39	15
149	149	7
109	111	2
161	161	8
183	183	5
206	206	3
229	229	6
143	145	4
213	213	4
158	158	2
26	44	3
85	85	21
80	80	3
66	66	7
210	210	2
98	100	2
66	67	6
62	62	7
106	108	2
148	149	5
125	125	3
231	231	6
18	52	7
109	109	6
103	103	9
179	179	3
201	201	10
152	152	5
186	188	4
25	25	5
127	127	4
137	137	5
208	219	4
171	171	6
241	242	5
64	64	4
62	63	3
44	44	4
120	121	2
161	165	1
40	43	3
48	48	6
132	132	3
81	81	1
111	113	1
216	216	7
129	130	6
68	69	1
69	69	17
123	124	7
53	53	5
204	204	5
220	220	9
145	169	1
241	241	1
118	120	4
72	72	3
211	212	6
38	197	3
126	127	2
152	153	6
228	229	2
124	126	2
140	141	2
99	99	8
205	205	2
34	36	1
98	98	6
102	102	8
52	52	2
85	86	3
233	233	7
212	212	4
163	183	2
18	19	9
125	129	1
111	111	4
135	138	1
105	105	14
154	166	3
192	197	2
143	143	3
142	142	5
180	181	1
235	240	1
61	69	4
39	42	2
112	112	8
194	194	3
55	67	2
232	233	1
136	137	3
36	36	10
177	199	1
103	134	1
56	57	2
197	198	4
139	139	8
16	221	1
16	18	1
36	38	2
189	190	6
182	183	6
68	68	2
144	151	2
191	191	9
95	95	4
182	182	5
155	155	4
69	70	4
21	23	3
58	59	5
211	211	2
235	237	1
42	197	2
164	164	8
16	23	2
122	123	1
157	159	2
33	33	2
120	127	3
167	167	1
69	82	2
140	140	4
206	207	3
157	158	4
219	221	2
190	193	2
224	226	4
4	9	4
235	235	7
12	15	1
36	62	3
102	134	2
181	182	3
160	183	5
4	7	6
100	100	2
20	196	1
83	84	7
67	67	3
88	96	3
29	33	3
236	236	8
54	54	14
25	38	2
97	108	1
70	71	1
130	130	3
120	122	7
50	52	5
9	231	2
30	32	1
103	104	2
71	72	2
47	47	6
113	113	14
157	157	3
178	186	4
7	9	3
172	172	2
238	238	3
13	13	9
101	101	3
138	140	1
14	32	1
155	167	5
201	202	3
59	59	5
198	200	2
81	82	5
144	167	3
35	36	2
52	53	3
227	227	3
187	199	2
75	75	11
17	18	1
39	75	1
223	227	2
56	58	2
190	190	7
146	146	6
184	184	4
163	163	1
54	55	6
161	172	2
162	162	3
188	193	2
103	133	2
74	85	3
45	46	2
100	101	5
65	75	3
39	198	3
202	203	4
96	96	2
63	64	1
135	136	2
47	50	2
71	239	2
172	173	3
12	13	3
136	145	2
111	112	1
18	31	1
165	165	1
10	54	1
31	32	4
76	80	1
12	14	6
19	19	4
145	145	6
231	232	4
150	150	4
3	6	1
82	84	1
188	189	3
46	47	2
238	239	2
153	153	5
11	13	5
37	55	2
197	197	4
60	60	5
88	89	2
242	242	5
164	174	1
159	163	4
41	45	1
234	236	1
114	114	4
104	107	1
47	53	2
191	232	2
196	197	1
9	60	1
159	160	1
77	149	4
66	80	3
177	177	6
132	133	3
91	115	2
138	138	10
220	221	1
178	179	4
204	207	1
21	31	1
130	142	1
214	216	3
104	105	2
36	65	2
162	186	2
71	71	4
225	229	1
156	166	2
186	186	1
21	32	6
146	147	4
76	76	2
57	57	2
29	29	4
76	77	1
17	17	4
80	81	2
169	169	1
3	5	1
18	53	1
174	174	1
13	14	1
43	124	2
125	126	1
51	157	2
229	240	2
114	115	1
44	225	4
136	152	2
62	85	2
167	181	1
155	156	2
137	143	1
219	220	1
237	237	5
96	123	1
114	116	1
175	208	2
27	28	1
177	180	1
40	143	1
60	64	1
221	222	3
123	127	1
31	33	1
25	32	2
99	100	1
218	218	2
53	54	1
175	183	1
191	215	2
154	198	1
0	2	2
116	116	1
212	213	1
167	168	1
192	192	1
189	189	2
105	106	3
215	215	1
43	45	3
99	101	1
219	228	3
148	150	3
43	224	1
223	228	1
158	159	1
166	168	1
50	149	1
12	12	4
152	160	1
2	3	2
10	11	3
81	84	1
178	192	1
117	117	2
208	209	1
205	210	1
126	126	1
33	219	2
222	222	1
214	215	4
12	36	1
53	190	1
160	178	2
18	54	1
37	198	1
107	107	1
196	196	2
201	223	1
22	23	1
176	206	1
154	154	3
14	15	1
71	73	1
153	154	1
77	78	1
86	87	1
119	130	1
20	25	1
202	202	2
143	169	1
168	168	2
119	119	2
26	41	2
204	214	1
227	238	3
233	235	1
138	142	1
19	33	1
34	35	2
116	125	1
79	103	1
209	210	1
124	124	1
106	107	2
178	180	1
141	142	1
76	78	1
72	75	1
79	82	2
13	15	2
38	79	1
134	138	2
34	34	1
133	133	1
121	235	1
193	193	1
49	49	1
207	207	2
44	46	1
175	180	1
192	195	1
18	51	1
28	29	1
195	195	1
41	42	1
119	120	1
19	21	1
6	23	1
156	157	1
240	241	1
122	122	1
62	64	1
22	48	1
89	89	1
124	127	1
220	223	1
187	209	1
96	97	1
