94	95	6
5	26	3
91	92	10
10	12	3
2	18	1
26	122	4
126	127	4
10	60	5
78	78	16
129	129	19
105	105	14
93	94	7
100	102	2
115	115	16
85	85	11
76	76	17
110	111	2
95	95	17
10	10	13
29	59	2
26	47	9
92	110	3
96	97	10
94	94	14
14	16	2
62	63	7
131	133	2
117	117	3
103	129	2
77	77	16
15	15	10
62	62	18
7	7	11
106	107	5
60	60	19
14	33	1
102	102	11
26	29	3
48	49	4
111	113	2
64	64	23
74	74	6
81	81	8
70	71	3
27	27	24
10	17	3
95	97	4
32	33	5
121	121	10
31	31	18
18	18	13
31	32	11
112	112	15
57	57	11
123	124	12
18	23	1
120	121	12
91	93	4
134	134	1
60	114	2
108	108	6
69	69	24
47	47	13
32	32	5
130	130	10
22	37	7
26	26	18
88	94	2
11	16	3
16	17	6
70	79	6
5	5	7
11	11	32
68	68	24
109	109	18
112	113	4
71	116	4
63	64	1
124	124	12
69	70	7
127	127	10
71	72	8
72	74	4
1	1	4
97	98	9
127	132	4
27	90	2
42	42	6
96	100	3
108	111	3
67	67	20
10	16	2
28	28	15
111	132	2
100	100	15
20	60	3
80	82	2
60	88	2
75	75	15
111	116	1
27	28	11
70	70	12
90	110	3
26	80	6
112	114	2
98	100	1
72	72	25
42	43	4
44	91	2
16	16	9
119	119	10
17	17	8
59	59	8
92	92	22
23	23	8
71	71	10
6	6	11
75	77	4
132	132	8
8	8	10
120	120	8
87	88	4
5	92	4
90	91	8
116	116	5
30	30	15
74	78	1
128	130	4
61	61	13
46	46	11
37	39	3
39	41	4
3	4	1
41	56	1
95	125	3
83	84	4
82	83	7
21	22	3
16	41	4
22	36	2
39	39	7
46	49	3
39	40	9
97	97	15
20	20	15
12	12	22
77	78	9
5	25	1
97	99	6
12	17	7
79	79	16
58	58	8
4	4	17
66	66	18
45	89	4
57	72	2
16	20	2
57	58	6
87	87	8
29	49	4
29	29	12
7	11	4
35	35	14
45	45	12
88	88	8
22	22	6
99	101	4
112	123	3
114	114	6
38	38	6
64	65	1
118	118	4
106	129	1
131	132	11
11	15	2
96	96	5
93	93	15
125	125	8
86	88	4
113	113	17
117	125	5
83	83	9
30	49	2
123	123	17
33	33	26
21	60	2
90	92	6
27	91	3
3	3	8
2	2	3
7	8	1
73	73	18
86	86	9
95	96	4
109	110	3
88	89	1
76	80	2
29	47	8
131	131	7
23	24	7
65	65	13
61	62	2
18	19	2
58	59	1
128	128	16
86	89	2
40	40	11
84	85	5
36	37	7
126	128	4
85	87	2
15	16	7
55	55	4
15	21	3
27	92	1
82	85	1
111	111	4
14	14	5
12	15	1
115	133	4
13	13	7
88	93	1
80	88	2
82	82	21
94	99	3
21	21	12
106	108	1
47	122	3
125	128	2
78	79	7
47	57	2
72	73	6
45	46	1
37	37	4
122	122	7
110	128	1
61	72	2
28	45	3
4	5	9
29	32	3
19	19	17
84	84	12
0	1	1
104	122	2
59	60	2
25	26	12
94	100	2
116	127	2
126	132	3
29	82	1
107	108	3
76	77	5
27	41	2
112	132	2
33	34	10
99	99	17
9	9	23
91	94	3
29	48	6
98	99	2
30	58	2
120	122	2
29	60	1
43	43	7
98	98	5
38	41	2
28	97	3
91	97	5
85	86	1
17	19	3
6	7	2
10	14	2
6	93	1
92	93	4
44	44	7
64	113	1
51	55	5
36	43	1
21	32	3
113	119	5
41	41	5
104	104	6
91	98	4
120	131	3
101	102	6
121	122	1
68	69	5
89	89	8
45	62	2
25	25	9
34	36	4
95	111	1
106	106	9
106	111	2
56	56	3
54	55	1
103	103	7
105	115	2
49	49	3
34	34	10
4	20	2
31	60	1
110	110	6
47	101	1
18	30	1
81	88	1
87	110	1
27	47	2
60	81	3
21	41	1
79	83	2
38	39	6
114	132	2
63	63	6
20	121	2
128	134	1
23	44	2
92	98	3
14	15	2
34	35	9
16	22	2
126	126	4
20	57	3
67	68	1
37	41	2
91	91	14
24	31	1
62	84	5
10	11	3
69	77	1
27	77	2
73	74	4
98	101	5
4	6	4
80	81	2
44	57	1
19	32	1
90	90	10
27	39	4
89	91	2
116	126	2
117	122	1
29	35	1
94	101	2
57	93	4
26	93	2
81	84	1
119	120	1
8	9	1
75	76	7
126	130	3
133	133	3
80	86	2
36	36	3
11	50	2
33	60	1
11	101	3
123	134	3
107	107	13
6	18	2
21	28	1
34	130	3
50	50	1
48	48	6
90	93	1
48	72	3
66	67	1
18	26	3
44	85	2
90	125	2
130	132	2
24	24	7
6	85	2
100	101	4
45	63	1
46	47	2
70	77	2
29	30	1
1	2	5
111	112	1
33	35	1
0	0	1
37	81	1
83	85	2
15	26	3
25	27	1
70	82	1
69	81	3
105	106	4
38	95	2
22	132	2
37	38	2
124	128	2
7	49	2
19	20	2
49	55	1
101	101	8
35	46	2
36	123	1
30	32	1
110	129	1
30	33	3
18	24	1
42	133	2
109	126	4
80	80	8
20	32	1
68	70	1
19	21	1
29	31	2
38	56	2
79	80	2
18	70	1
12	13	3
72	113	2
115	116	2
21	40	1
117	134	1
4	96	3
13	14	1
108	109	2
41	133	1
11	100	1
60	113	1
46	61	1
40	41	3
29	43	1
124	125	2
94	96	2
21	55	2
42	55	1
96	98	2
26	27	4
11	39	1
79	81	2
17	20	1
76	79	2
114	131	1
97	100	2
11	48	1
116	130	1
108	110	4
31	36	1
127	128	2
4	85	1
89	93	1
16	24	1
88	92	2
109	116	1
25	47	2
62	80	1
114	115	2
41	81	2
46	99	1
5	6	1
49	51	2
28	35	1
71	80	1
120	134	1
114	116	2
35	61	2
22	25	1
88	90	1
28	29	3
110	130	3
30	134	2
24	25	1
83	90	1
11	93	2
79	88	1
130	131	2
46	102	1
44	58	1
109	111	2
30	35	2
10	94	1
30	31	1
80	87	1
81	82	2
11	14	1
118	119	1
11	12	3
73	77	1
56	57	1
87	101	1
15	41	2
28	98	1
5	101	1
114	117	1
71	117	1
71	112	1
56	94	2
95	99	1
47	66	1
20	22	1
106	130	1
28	96	1
7	61	1
61	113	1
113	125	1
107	131	1
43	80	1
129	130	1
111	128	1
36	39	1
20	23	1
92	100	1
24	27	2
9	18	1
99	100	1
133	134	1
123	125	1
