139	139	2
13	13	10
92	92	10
124	151	4
138	138	9
52	82	4
147	147	12
132	132	12
94	94	8
37	39	3
117	159	4
48	49	1
53	56	2
148	167	5
145	147	6
53	53	21
9	9	17
76	76	5
19	45	7
136	136	19
120	154	5
13	14	5
123	123	11
151	151	3
63	63	10
17	17	10
17	18	7
112	118	1
38	38	9
47	48	3
148	168	2
142	143	1
108	109	3
116	117	5
6	6	8
18	18	5
169	169	17
115	115	16
67	68	6
71	71	9
122	153	6
114	115	9
37	38	5
103	103	13
17	26	1
50	50	6
113	128	4
64	64	15
130	130	13
15	15	13
98	99	13
135	135	8
117	152	2
23	23	6
0	34	2
74	74	17
92	116	3
34	34	14
120	120	1
103	104	3
3	3	21
124	124	5
44	45	4
128	137	11
108	108	3
117	153	1
156	157	12
115	153	1
49	49	7
39	39	16
91	92	4
95	95	8
65	65	4
165	166	7
162	163	2
21	21	7
62	62	9
63	80	4
27	27	16
7	7	14
113	113	13
3	42	9
5	44	8
119	151	4
9	10	2
42	42	9
126	127	4
5	5	9
129	137	4
164	168	1
89	89	3
105	105	10
74	75	8
22	22	9
46	46	9
12	18	1
99	114	1
16	17	4
134	134	15
4	5	5
128	138	3
148	148	6
112	112	2
88	89	3
0	0	9
114	114	6
82	82	5
40	40	6
170	170	2
6	89	3
13	18	7
23	24	9
83	83	3
157	157	8
1	2	6
73	73	13
68	97	3
52	52	11
158	158	16
45	46	2
25	25	12
162	165	7
140	140	7
150	150	1
81	81	11
128	128	4
19	19	11
109	109	12
130	131	3
68	68	4
118	118	5
44	44	8
87	87	7
39	46	3
166	166	15
75	112	3
56	56	17
129	129	3
118	153	6
21	56	1
36	36	10
125	164	2
146	146	4
16	24	1
112	122	3
4	4	9
69	69	5
17	24	2
116	121	1
72	72	3
57	57	11
152	152	10
43	43	12
165	165	1
95	153	3
154	154	8
122	154	4
51	52	4
144	144	9
97	116	2
127	127	4
33	33	8
67	67	8
97	99	4
168	168	9
133	138	1
13	19	3
167	167	10
35	58	3
2	2	10
3	4	2
21	55	6
33	34	1
155	155	4
81	82	3
128	132	4
100	100	1
98	98	4
53	54	4
97	97	6
28	37	2
92	93	6
14	14	8
121	122	15
28	41	2
54	54	11
24	25	2
161	162	5
149	149	8
27	37	3
142	142	6
110	112	5
18	19	3
56	57	2
20	25	2
96	99	8
99	99	9
26	26	3
38	76	2
22	91	3
118	152	3
67	70	1
55	55	6
20	20	7
42	43	4
163	164	3
97	98	1
121	146	2
3	36	4
22	23	3
63	64	4
11	12	5
41	41	15
169	170	2
111	111	1
65	66	1
131	131	3
84	85	2
11	17	4
119	120	7
114	164	3
50	79	1
14	15	13
113	119	4
91	94	1
101	102	3
66	87	4
12	14	2
125	145	6
70	70	5
85	85	2
78	79	2
114	165	2
93	93	3
6	42	3
134	137	2
146	147	2
77	77	3
88	90	1
28	28	2
160	160	4
83	84	2
1	6	4
149	150	3
142	145	4
37	37	11
35	36	3
12	12	6
20	106	7
117	118	7
48	48	6
159	160	3
147	148	11
77	78	2
75	113	2
84	103	3
75	75	2
10	10	4
132	138	2
143	143	3
164	165	3
85	88	4
39	40	8
11	11	8
105	106	1
35	35	10
101	101	6
68	96	3
101	104	3
6	37	1
76	77	2
24	24	2
66	70	3
109	110	1
91	93	6
55	56	1
1	3	1
16	16	4
159	159	5
90	90	5
85	86	1
127	139	2
106	112	1
47	47	10
121	153	2
126	137	2
40	41	2
81	83	1
140	151	2
140	141	3
99	100	3
52	55	3
73	74	2
108	112	1
47	49	2
143	144	2
37	110	1
125	125	11
129	131	1
24	41	2
88	88	2
127	133	2
155	157	1
91	91	7
52	53	4
119	119	3
18	45	2
129	130	1
10	11	4
51	51	10
96	97	4
93	94	3
122	159	2
125	161	2
110	110	2
106	119	4
0	1	3
107	107	3
147	160	1
106	106	1
86	87	4
92	152	1
13	15	1
18	24	5
2	4	1
20	21	1
127	134	3
167	170	3
145	146	2
154	155	5
46	50	1
24	44	1
62	84	1
112	113	3
95	96	2
104	105	4
126	152	1
1	1	2
123	146	2
141	142	1
161	161	3
26	56	1
17	41	2
150	152	1
19	20	1
5	6	2
84	84	3
6	44	3
69	70	5
137	138	2
156	156	1
126	126	3
40	85	2
7	8	3
72	73	2
19	105	1
144	145	4
117	117	1
6	7	1
153	153	1
21	22	2
80	80	4
90	93	2
8	8	3
128	129	2
72	99	1
163	163	3
82	107	2
71	78	2
57	62	3
124	161	1
73	108	1
79	87	2
164	164	1
0	43	4
136	137	2
5	19	1
163	170	3
93	167	2
113	165	2
9	11	1
44	90	2
57	82	1
36	37	1
50	80	2
18	21	1
5	20	2
26	27	3
140	150	1
6	15	1
133	133	1
16	28	1
104	104	3
67	69	2
145	145	1
50	51	1
64	71	1
40	46	1
128	166	1
66	67	1
6	22	1
113	114	1
64	65	1
10	43	1
9	49	1
136	142	2
93	105	1
107	117	1
93	117	1
43	44	1
28	52	1
86	86	1
1	43	2
121	154	1
37	58	1
49	56	1
75	109	1
164	170	1
2	56	1
36	54	1
13	44	1
134	135	1
114	169	1
101	106	1
94	118	1
100	101	1
107	108	1
24	37	1
15	38	1
153	154	1
16	23	1
23	54	1
2	3	1
