51	51	8
22	22	8
156	156	10
151	151	8
227	230	4
168	180	3
98	109	3
200	200	9
188	188	6
217	218	10
175	203	1
161	161	15
61	77	1
207	207	18
158	165	5
190	191	7
47	48	5
23	23	9
24	24	5
88	92	2
18	47	1
170	170	12
17	19	1
37	38	1
238	238	11
107	108	10
14	15	2
186	186	9
242	242	7
204	204	19
83	83	9
91	91	9
74	74	9
13	14	4
223	223	12
108	109	3
245	245	6
108	108	2
178	178	16
18	49	6
214	215	2
11	230	1
85	85	3
64	78	1
26	27	3
50	59	7
177	177	7
201	201	11
8	22	2
37	53	4
155	155	14
10	10	10
185	185	26
199	200	3
219	219	14
215	215	11
115	116	3
224	224	11
233	233	8
241	241	22
117	118	3
163	166	6
19	48	1
193	193	12
104	104	12
86	86	1
114	114	6
53	53	8
168	169	6
77	78	1
231	231	8
169	170	8
149	151	3
225	225	7
206	207	2
153	153	20
34	34	15
58	69	2
206	241	5
76	76	8
150	150	13
168	168	6
216	216	15
171	171	5
74	75	3
228	228	7
170	171	3
243	244	2
87	88	6
16	17	4
42	52	1
244	244	5
186	203	1
203	203	4
58	246	1
61	73	2
197	197	12
5	29	5
189	189	6
87	116	1
155	157	1
92	116	1
182	213	2
196	196	2
43	149	1
176	176	9
37	59	2
11	11	3
185	204	6
190	192	9
238	239	12
180	182	1
4	233	2
205	205	15
61	61	4
229	229	3
88	192	1
63	64	4
158	200	2
144	233	1
210	214	3
117	117	20
165	166	4
3	32	2
111	111	9
236	237	6
78	78	7
175	175	3
16	16	3
93	93	8
92	92	10
38	38	11
81	81	3
211	211	5
213	213	8
188	189	2
62	62	6
68	68	9
187	187	4
39	39	4
97	97	6
69	69	19
236	236	10
20	20	8
162	163	3
220	220	7
21	21	11
64	64	5
162	178	6
94	97	3
49	49	9
232	232	5
118	119	5
38	55	4
221	221	4
236	240	1
167	167	5
34	79	1
116	117	4
31	154	3
185	186	6
181	182	9
239	239	2
28	28	5
28	40	4
82	82	5
100	100	2
99	99	9
106	107	4
46	46	15
102	104	3
226	226	10
246	247	4
66	66	7
215	230	3
4	4	11
65	65	7
237	237	6
152	153	1
207	229	7
210	211	3
202	202	6
175	176	7
28	224	1
115	115	8
183	183	9
113	113	11
161	162	5
19	45	3
37	37	7
45	45	11
164	174	8
109	113	2
184	184	21
182	182	6
36	36	15
26	28	2
199	199	7
230	230	6
169	169	3
104	117	2
210	210	9
92	110	3
233	234	6
166	166	17
89	89	6
18	18	7
119	119	6
41	41	13
195	196	4
43	43	16
114	116	1
5	5	3
218	226	1
217	217	12
208	209	2
10	52	1
164	191	4
182	187	2
219	243	2
15	20	1
7	7	10
158	158	6
80	80	8
101	101	8
55	71	1
55	247	3
208	208	7
109	109	1
204	205	4
212	212	20
150	151	1
166	167	1
26	26	5
65	66	3
29	37	1
10	11	2
73	73	3
57	57	5
83	84	1
41	109	2
35	77	1
181	181	5
84	85	1
76	77	2
19	55	4
218	218	4
44	44	13
233	236	1
154	154	7
209	223	1
6	7	2
116	116	7
246	246	5
200	201	1
240	240	6
235	235	5
163	163	6
77	77	6
159	160	2
86	89	2
59	60	10
218	219	5
198	200	4
184	185	8
153	159	2
194	196	2
187	188	2
59	59	2
82	83	12
173	173	13
62	81	1
96	97	2
9	9	2
6	235	5
60	60	4
52	66	1
248	248	13
47	47	4
160	160	6
151	194	2
19	56	1
20	21	1
37	68	1
55	55	3
1	1	3
71	100	4
15	235	3
198	199	3
69	70	6
0	0	1
174	204	4
154	161	2
72	72	4
159	159	11
204	208	1
48	48	5
165	165	7
120	120	2
75	78	3
212	215	3
190	194	10
239	240	4
219	220	3
19	19	1
96	101	3
95	95	3
71	72	3
194	194	7
98	102	8
110	111	9
111	118	5
211	214	2
35	35	7
227	227	2
8	23	1
30	243	2
244	247	1
12	18	1
14	14	10
191	209	1
54	62	3
242	243	3
180	180	15
224	225	2
240	241	5
112	112	7
215	239	1
190	190	2
94	94	6
107	117	1
65	115	1
86	116	1
214	214	11
11	222	1
156	171	2
157	157	8
36	70	4
179	179	15
110	110	13
25	25	6
238	240	8
85	86	3
17	17	3
79	85	2
15	205	4
207	227	3
46	81	2
60	61	4
54	55	1
103	103	2
191	192	2
105	107	4
243	243	15
7	16	2
172	172	5
20	58	3
191	191	2
96	96	10
16	37	1
239	248	1
153	155	2
247	247	9
185	202	5
98	98	2
51	201	3
192	197	3
187	189	3
29	245	2
184	203	1
63	78	1
174	174	6
70	70	11
5	30	1
189	190	7
13	13	2
68	69	6
213	240	1
169	173	2
197	198	2
57	58	6
32	32	6
188	190	5
104	105	6
84	84	10
224	226	1
110	246	4
53	54	6
112	113	1
12	12	8
86	101	2
44	45	3
185	203	1
47	84	2
6	6	12
73	74	4
222	222	5
111	112	4
102	102	5
82	85	5
95	96	1
211	213	2
145	153	2
52	62	3
87	87	3
30	30	6
153	156	5
74	87	3
172	173	1
209	209	6
244	245	3
234	234	6
60	73	1
193	194	3
88	89	2
15	70	2
52	52	2
192	203	4
166	184	2
176	177	1
80	91	2
207	210	3
107	118	1
109	110	1
52	53	5
29	31	1
180	188	2
177	196	1
105	105	3
31	244	1
168	189	1
216	217	6
174	197	2
186	187	2
146	146	4
29	30	4
71	71	5
42	42	7
67	67	3
97	99	3
247	248	2
171	173	1
228	229	3
165	193	1
231	237	3
58	58	4
95	98	1
237	241	5
74	80	1
40	40	1
24	25	1
68	74	2
50	50	2
62	67	1
18	48	5
107	107	3
5	12	1
90	90	4
152	152	5
64	87	1
74	78	2
33	44	1
118	118	3
75	76	1
10	229	1
100	117	1
213	214	2
31	245	6
33	33	2
79	79	2
106	106	3
30	246	2
182	184	1
32	64	2
37	63	2
62	63	1
56	56	2
33	36	1
6	205	1
195	195	3
198	198	4
56	57	1
165	167	1
88	88	7
192	192	1
68	85	4
31	230	4
27	27	2
199	204	1
6	16	2
84	86	1
49	50	2
172	200	1
203	204	4
242	247	1
186	189	1
4	6	3
39	48	1
150	183	4
59	78	1
232	234	1
213	222	3
29	29	1
76	101	2
188	198	1
6	8	2
240	249	1
20	195	1
74	77	1
171	211	3
72	74	1
234	242	1
2	2	3
15	64	1
207	243	1
215	222	2
147	147	4
144	144	3
163	181	1
51	65	2
54	56	2
97	98	4
221	247	1
24	161	1
79	81	2
206	228	1
48	63	1
8	9	5
51	72	2
147	151	2
11	62	5
16	67	1
151	153	1
222	235	3
21	23	1
75	75	2
10	188	1
85	87	4
64	65	1
210	223	2
39	50	2
215	216	2
227	228	1
98	104	2
41	221	1
74	95	1
72	73	3
153	154	1
104	120	2
176	183	1
76	86	2
150	221	1
223	224	2
88	116	3
215	217	1
206	206	1
41	51	1
92	93	1
13	37	1
226	227	1
65	67	1
169	180	1
113	114	4
36	41	3
35	40	1
90	92	2
117	156	1
188	194	1
102	103	2
8	8	1
12	244	2
60	90	1
163	164	2
61	74	2
222	224	1
7	32	1
15	15	1
145	145	1
57	59	2
155	156	2
2	40	1
206	216	1
203	233	1
190	195	2
68	77	1
11	33	2
17	18	2
194	197	1
187	200	2
10	17	1
30	31	1
98	108	1
183	184	1
230	231	1
219	228	1
146	224	1
46	51	1
98	101	1
165	183	1
16	36	1
63	63	1
108	117	1
119	120	1
71	75	1
22	23	1
156	157	1
168	173	1
199	208	1
33	73	1
85	97	2
92	94	1
207	223	1
26	201	1
51	52	1
96	102	1
3	17	1
160	189	1
164	164	1
80	90	1
150	201	1
173	174	1
211	217	2
94	113	1
15	38	1
241	242	1
40	53	1
31	32	1
215	248	1
241	244	1
146	147	1
70	75	1
35	169	1
224	235	2
16	21	2
98	99	1
17	74	1
194	195	1
1	44	1
11	16	1
186	193	1
196	197	1
38	63	1
193	209	1
7	8	1
47	50	1
63	65	1
232	240	1
70	71	1
176	208	1
234	235	1
112	244	1
42	43	1
