11	11	4
39	41	3
55	55	6
0	3	1
67	67	6
111	111	1
71	71	1
35	35	5
106	106	4
122	155	1
57	58	4
147	152	3
154	154	6
15	16	5
79	82	2
79	79	2
7	7	3
74	74	4
35	36	1
147	148	3
45	45	6
11	26	1
10	136	3
112	145	2
70	70	4
91	94	2
133	133	1
24	24	5
165	166	1
101	101	11
82	82	2
113	113	1
157	158	2
6	14	1
77	79	1
102	102	3
68	69	2
10	11	1
168	169	2
1	3	1
13	13	5
4	4	3
44	44	2
52	52	8
84	86	2
14	15	4
126	143	2
132	132	6
83	83	1
98	98	5
76	76	7
155	155	9
152	152	2
146	147	1
144	144	1
108	108	5
73	73	3
72	75	1
88	88	3
161	161	1
44	45	2
22	70	2
160	160	9
160	170	4
43	43	1
38	41	1
136	136	5
78	80	1
119	119	5
162	162	2
54	65	1
1	1	3
90	90	7
38	38	10
125	143	1
48	48	4
58	62	1
14	40	4
86	86	2
49	49	4
141	141	3
163	163	5
56	56	1
0	25	2
17	17	2
37	38	1
153	153	1
46	46	2
19	40	2
100	100	3
0	0	1
123	123	3
16	16	2
80	86	3
84	84	2
84	85	3
2	54	1
93	93	3
4	5	1
148	150	3
22	22	3
111	112	5
128	129	2
36	36	5
64	64	2
41	41	3
90	91	2
131	131	2
98	99	4
112	158	2
20	22	2
44	52	2
9	9	5
110	111	1
140	140	1
33	35	4
86	102	4
96	96	1
4	36	2
130	132	1
78	78	1
150	150	2
10	141	2
10	10	1
7	27	1
72	95	5
94	94	2
143	143	3
21	118	3
137	143	3
20	21	4
64	73	2
164	164	1
73	74	4
8	140	1
114	114	1
111	134	5
20	20	2
158	158	3
92	92	2
97	126	2
54	165	1
63	63	5
92	93	1
53	53	6
116	159	4
100	101	4
52	53	1
27	27	1
8	9	2
84	88	1
47	47	6
5	38	2
94	99	2
148	149	1
66	66	3
151	152	2
157	157	1
57	63	1
34	35	3
97	130	2
5	5	3
3	3	1
97	97	2
4	74	1
105	106	2
12	75	1
62	62	3
124	124	1
25	25	3
42	43	1
23	57	1
118	119	1
8	12	1
89	90	2
70	71	2
74	82	1
110	116	2
2	20	1
148	148	2
166	166	1
33	33	2
106	111	1
37	41	2
69	69	2
74	83	1
108	112	1
77	78	1
168	168	2
72	73	2
58	63	1
74	76	1
34	80	1
51	51	1
101	105	1
65	67	1
79	80	2
58	58	2
115	115	2
99	100	1
19	19	1
112	144	1
72	72	1
53	54	1
77	85	1
164	165	2
2	2	1
12	27	1
62	85	1
83	145	1
69	70	1
48	49	2
97	105	1
90	99	1
73	85	1
65	78	1
123	124	1
65	65	1
40	40	3
138	138	2
74	75	1
6	25	1
15	27	1
159	161	1
76	86	1
160	161	1
1	2	1
125	125	1
104	104	1
133	134	1
116	116	1
120	120	1
37	37	1
99	99	1
18	24	1
84	89	1
114	136	1
26	27	1
78	82	1
95	162	2
67	68	1
2	81	1
99	110	1
