58	58	10
50	50	19
39	57	7
46	46	22
52	52	23
47	47	13
24	24	37
22	22	11
5	10	3
33	34	10
41	46	2
17	18	10
36	36	16
35	35	22
13	48	6
1	1	18
16	16	20
31	31	17
20	30	2
38	39	10
21	22	7
32	35	9
11	13	10
40	50	6
40	40	17
17	21	3
56	57	10
43	43	14
51	51	24
48	48	25
23	23	11
6	7	4
45	56	1
10	10	20
17	17	4
14	14	30
5	5	17
8	11	2
29	29	3
30	30	14
43	44	4
55	59	3
13	13	20
42	60	1
62	62	15
2	2	6
37	39	11
14	17	7
35	36	14
3	3	15
39	60	5
10	29	1
8	8	6
4	4	14
9	9	6
36	37	3
60	60	11
39	40	4
41	44	3
55	55	16
44	44	24
60	61	1
45	45	15
40	51	5
61	62	8
23	25	8
49	50	7
34	34	16
6	40	3
34	36	4
42	58	5
37	57	4
40	41	5
49	49	10
18	32	1
34	35	9
4	34	2
33	33	9
58	59	5
42	42	20
59	59	13
0	0	4
37	37	23
56	56	11
51	52	13
11	11	8
41	41	18
45	46	6
54	54	10
20	29	2
32	34	4
45	47	3
25	25	16
36	46	2
44	45	1
16	17	7
3	37	3
57	57	10
12	13	4
47	62	1
20	21	7
49	52	1
23	46	2
41	42	2
40	57	3
61	61	15
48	49	3
8	12	3
15	15	9
41	54	2
43	55	3
4	37	3
44	56	6
9	10	5
14	15	7
56	60	4
44	48	2
8	39	1
40	53	1
32	33	6
53	54	10
41	60	2
39	39	7
19	31	3
31	32	9
37	40	5
52	56	2
3	34	1
40	43	3
50	52	5
47	59	1
22	46	1
43	49	4
5	7	4
45	50	4
11	12	1
7	7	10
46	62	7
18	18	13
44	61	4
53	53	2
0	62	5
19	21	6
10	11	5
24	25	2
4	5	9
0	1	1
60	62	5
11	47	2
33	35	2
32	32	17
7	39	2
38	55	1
21	21	2
47	48	6
30	32	2
9	11	8
26	52	2
4	38	1
42	43	3
2	35	1
38	38	7
46	47	3
10	12	6
0	12	1
57	58	2
42	55	6
38	57	2
58	60	2
45	60	2
14	16	1
51	53	1
5	11	3
6	37	1
44	47	3
20	20	5
9	31	1
46	48	3
19	19	1
10	34	2
3	55	2
23	24	1
26	26	2
30	33	3
2	57	3
31	36	1
44	50	2
5	8	1
42	57	2
15	16	2
39	55	3
51	54	1
19	20	4
7	41	1
25	26	1
52	54	4
10	13	2
55	56	1
52	53	1
38	40	3
14	18	1
49	55	1
30	31	4
6	6	2
44	46	1
35	37	1
5	43	1
18	19	2
3	30	1
13	18	1
7	40	1
7	8	1
1	2	1
5	38	1
50	59	1
40	42	1
