135	135	20
12	13	30
136	136	17
84	85	20
135	136	14
32	34	3
26	26	52
121	121	20
144	144	18
12	12	44
4	6	8
95	96	10
24	24	59
124	124	22
24	30	3
132	132	27
110	112	1
163	164	17
14	14	60
170	171	1
142	142	18
27	27	36
137	138	6
2	6	3
180	180	21
30	30	30
87	102	6
158	158	19
89	98	5
3	4	23
108	109	5
59	61	2
38	38	40
36	36	44
23	23	36
29	29	48
32	32	55
83	85	8
62	63	16
156	159	5
2	2	20
83	84	7
74	74	14
102	102	16
17	17	25
121	122	17
87	87	15
177	180	3
58	58	10
156	156	16
62	62	7
18	18	24
121	131	3
94	95	3
44	44	22
74	75	7
6	6	59
84	84	22
141	141	15
86	124	3
33	33	53
26	28	12
37	38	19
11	11	34
137	137	15
44	45	15
177	178	3
32	33	17
158	159	17
157	157	16
40	40	39
126	160	2
6	45	2
106	135	2
76	76	14
19	20	13
165	167	7
178	179	11
42	42	26
20	20	33
15	15	33
67	68	9
110	111	13
43	43	36
4	4	50
39	40	16
21	21	38
88	89	17
65	65	8
155	157	3
176	177	4
79	80	6
16	16	50
19	19	49
145	145	38
24	25	28
1	1	26
132	133	8
43	44	8
67	67	15
131	131	13
32	36	3
78	78	19
7	7	36
134	134	24
14	16	6
161	162	7
25	25	43
56	56	12
117	117	28
179	179	25
167	168	7
59	59	15
99	100	7
37	37	29
141	163	1
151	151	19
95	95	28
41	41	24
64	65	11
22	37	1
25	28	3
5	6	25
113	114	10
8	8	28
19	127	3
42	43	13
34	34	32
28	29	18
146	147	7
128	150	3
97	97	18
5	5	43
128	128	21
104	104	5
100	108	2
122	124	4
55	55	27
96	110	1
139	139	31
35	35	24
173	173	18
60	60	25
120	120	16
27	29	6
108	108	21
27	28	12
111	111	9
112	112	26
116	135	4
46	46	10
119	119	19
41	42	8
124	133	3
146	146	24
89	89	16
123	123	18
81	106	1
13	14	11
72	74	4
2	7	3
92	93	6
169	169	20
164	164	8
0	1	6
37	78	2
151	152	12
140	140	24
147	147	24
10	29	2
3	3	24
169	170	7
15	18	2
156	162	1
115	116	11
129	132	2
109	114	5
155	155	11
134	135	5
1	14	1
109	109	11
4	9	3
10	12	6
122	122	32
116	116	23
127	127	12
160	160	19
103	136	1
10	10	58
123	124	12
81	134	2
45	45	24
68	68	11
178	178	15
33	126	8
9	10	18
143	145	10
124	125	9
39	39	37
15	16	25
17	31	2
117	119	1
45	49	1
24	26	8
165	166	5
6	7	16
14	15	10
15	17	5
148	167	1
20	21	5
31	36	1
175	175	16
166	166	23
54	55	6
53	53	23
2	3	31
31	32	15
143	144	5
161	161	23
63	63	15
129	129	15
134	159	3
133	133	30
152	162	1
106	116	1
93	93	12
51	51	11
96	96	15
10	13	5
103	103	22
97	101	3
121	143	4
17	18	19
101	101	14
0	0	41
35	36	13
22	25	1
11	13	10
156	160	4
77	77	20
82	82	27
71	71	24
61	61	18
148	165	4
15	26	2
147	148	6
138	138	28
92	92	9
128	156	2
22	22	22
64	64	18
75	75	15
111	112	18
121	142	2
91	91	13
133	149	1
149	149	28
18	19	14
99	99	11
162	162	16
154	154	10
25	30	5
104	106	4
126	130	4
118	118	28
126	128	4
125	125	25
114	124	3
31	37	3
13	15	5
130	130	14
31	31	32
53	54	6
90	90	22
122	131	1
72	72	22
176	178	3
132	139	2
75	76	3
54	137	4
118	121	2
26	121	2
106	106	18
31	35	6
73	73	7
8	9	29
83	86	1
148	148	28
27	30	2
133	134	5
93	94	10
81	81	13
113	127	3
28	30	10
54	54	12
32	120	1
28	28	47
75	128	2
71	72	8
142	143	8
130	131	7
4	8	6
98	98	10
171	175	1
97	99	5
103	135	3
25	26	16
119	122	1
167	167	39
22	27	2
57	57	6
101	143	1
155	156	7
172	173	6
88	88	15
165	165	12
102	103	9
15	19	4
166	167	9
158	167	5
131	132	3
30	34	1
152	152	15
19	35	5
126	127	6
66	68	2
30	31	14
35	172	2
115	136	3
110	110	24
115	115	10
111	114	13
38	39	14
140	145	2
10	16	1
5	24	3
40	64	4
7	31	4
34	40	1
102	107	5
59	60	2
152	153	6
171	171	27
58	59	10
59	86	1
52	52	12
44	66	4
16	18	7
123	125	7
172	172	27
2	8	10
114	125	1
139	149	1
100	100	24
144	146	11
120	121	11
2	5	4
66	142	1
12	15	1
73	74	7
40	43	1
64	82	2
11	14	8
117	118	15
152	167	1
106	111	3
163	163	9
2	4	12
78	121	3
113	113	17
150	150	18
159	159	22
81	82	12
3	41	7
7	9	11
10	11	13
14	35	3
126	126	21
88	94	4
8	11	2
24	31	3
12	19	4
13	22	5
7	11	6
13	13	30
80	80	17
77	92	3
35	37	1
138	139	6
97	113	2
24	33	5
91	92	8
15	28	6
63	73	5
66	67	4
58	60	3
129	136	2
80	122	6
114	114	27
114	115	8
1	8	2
117	136	4
68	76	5
52	64	2
115	118	1
101	102	7
87	89	1
21	30	2
87	88	4
41	43	9
3	9	3
169	171	4
141	142	6
9	9	28
76	77	6
85	86	8
169	172	10
103	105	6
86	103	6
23	24	12
29	34	3
5	10	2
55	56	6
160	162	6
15	22	1
65	145	4
31	120	5
79	121	2
42	44	2
173	174	13
100	101	4
5	35	1
29	31	5
90	92	3
114	117	1
91	97	4
94	94	21
108	112	4
67	73	8
105	106	16
10	17	3
145	146	1
170	172	3
73	136	4
107	107	12
86	87	11
79	79	15
12	26	2
143	143	18
16	17	20
112	113	6
146	157	6
175	176	11
83	83	14
36	37	5
86	86	10
7	8	6
34	35	6
36	123	4
176	176	29
29	30	14
152	165	2
97	98	2
12	17	4
99	110	4
133	137	1
60	77	1
11	46	1
139	140	3
25	29	4
129	160	6
51	52	2
87	117	2
2	35	4
3	5	6
141	143	1
91	93	4
30	157	1
112	151	2
8	30	6
101	131	3
136	137	4
116	117	11
56	58	2
5	31	3
168	171	1
52	53	7
106	107	5
7	15	2
31	34	7
145	165	1
111	126	5
5	17	3
150	151	5
38	40	3
20	26	4
36	38	5
26	45	3
174	174	17
18	20	3
75	106	4
66	70	2
51	65	1
135	140	4
86	143	1
29	36	2
21	26	2
101	103	4
159	160	4
64	68	3
40	41	4
170	170	17
82	108	2
173	176	1
4	7	5
160	161	3
107	141	1
131	158	2
65	67	2
62	74	2
88	90	2
94	98	5
82	122	1
136	139	1
108	151	2
15	20	3
112	137	3
60	61	5
74	161	2
163	166	6
167	169	2
96	112	3
94	96	1
103	143	2
25	27	4
112	114	2
9	12	3
18	22	3
22	30	4
128	147	1
153	154	2
13	16	5
4	20	2
105	105	11
77	91	4
168	172	1
122	132	7
9	11	3
20	24	3
125	130	3
67	72	5
168	168	14
3	42	7
66	66	14
152	155	6
65	66	5
125	162	3
168	169	8
104	107	6
80	81	4
9	22	4
153	153	8
91	94	2
17	21	1
146	148	8
154	161	2
171	177	3
160	164	2
28	31	1
151	155	1
1	2	8
32	159	3
3	45	1
177	179	1
9	15	2
68	71	7
49	67	1
88	91	3
84	139	3
153	156	2
11	12	12
50	50	7
26	158	2
1	5	1
103	107	2
61	72	3
111	113	5
50	57	2
74	99	2
24	124	1
66	73	5
117	159	1
20	22	6
106	143	1
88	108	1
5	7	4
22	23	7
90	93	3
113	151	1
83	111	1
4	37	2
115	119	4
82	114	1
153	160	2
157	167	1
102	143	1
0	18	2
20	30	2
11	15	4
77	100	1
10	15	1
124	150	1
23	126	2
43	45	5
33	34	9
157	162	1
116	120	3
90	91	4
7	13	1
108	111	1
31	33	2
151	153	9
60	64	3
144	145	5
8	20	1
10	14	4
136	138	1
162	163	1
14	31	1
23	27	1
152	164	2
73	135	2
158	161	3
6	35	3
59	76	1
66	71	1
100	107	2
152	154	3
12	18	2
1	30	1
129	155	2
172	178	1
54	56	2
169	176	1
94	97	1
81	123	2
63	64	3
21	22	1
109	111	3
33	35	7
70	70	3
1	4	1
31	38	1
5	27	4
148	156	1
36	61	2
106	137	1
5	25	4
91	98	2
151	167	2
77	79	2
14	26	2
164	167	3
3	15	1
116	118	4
21	36	2
64	67	3
56	57	6
109	110	1
3	30	4
99	101	3
174	175	4
54	89	3
81	102	3
117	124	2
128	130	2
61	68	2
85	124	2
129	161	1
87	112	1
50	52	2
130	148	2
129	151	3
19	23	2
19	44	2
107	108	7
93	136	2
88	101	1
52	55	1
101	129	1
6	36	1
6	21	2
142	145	2
178	180	4
96	97	1
166	169	3
32	130	2
87	148	2
5	30	3
154	156	3
84	86	4
100	114	2
15	29	3
17	54	1
123	140	1
40	59	1
4	5	6
33	37	2
87	126	2
1	28	1
29	35	1
133	136	1
10	23	1
39	45	4
135	137	1
129	162	1
7	32	3
63	65	2
171	173	1
146	156	1
61	62	3
10	26	2
166	168	5
8	29	3
102	144	2
60	62	1
73	75	2
168	170	3
8	19	1
104	105	3
130	158	1
98	99	4
152	161	2
110	151	1
83	108	2
142	146	2
76	79	5
17	34	2
1	15	2
72	145	1
81	133	1
113	157	1
5	21	2
32	35	6
159	162	3
103	104	2
170	173	3
159	167	2
108	135	1
57	60	1
153	155	1
153	171	2
3	31	1
119	135	1
141	148	3
129	130	3
21	25	1
128	159	5
72	139	1
62	67	3
142	144	2
81	121	1
33	125	1
151	157	1
20	23	2
85	85	10
26	27	2
82	89	2
163	165	3
12	16	1
130	136	3
83	116	4
53	55	2
150	169	1
77	78	2
128	129	1
104	135	1
3	8	1
70	72	1
34	36	1
85	93	1
57	58	4
7	10	1
86	99	1
36	122	1
26	30	3
21	33	4
7	33	2
131	133	1
23	31	3
137	139	1
13	21	1
77	94	2
89	90	2
122	139	1
153	157	1
30	33	1
26	109	1
175	180	1
39	41	3
66	72	1
5	37	1
177	177	5
13	28	2
21	23	3
1	44	1
101	127	1
127	162	1
150	155	9
6	25	1
164	165	1
60	76	1
127	147	2
54	64	1
9	18	2
148	149	1
65	77	2
78	95	1
107	109	3
122	123	2
17	23	2
18	130	1
151	173	2
0	14	1
123	132	2
169	174	1
121	126	1
57	59	1
170	175	1
5	33	1
119	120	1
153	162	1
154	155	2
122	125	1
131	134	2
49	49	1
22	24	1
133	159	1
16	36	4
171	172	1
35	40	2
170	180	1
114	138	1
13	25	2
9	31	2
24	130	1
3	16	1
49	82	1
112	179	1
0	4	1
9	13	1
5	11	2
90	94	1
106	136	1
3	32	1
74	80	1
1	6	1
127	131	2
154	157	1
127	128	2
15	21	1
164	168	2
40	42	2
31	39	1
11	18	1
8	10	1
50	51	1
152	174	1
6	124	1
26	31	3
118	119	1
2	33	1
108	110	2
25	36	1
61	64	1
104	136	1
121	130	2
80	106	1
10	31	1
82	90	1
73	76	1
132	149	1
92	100	3
24	27	1
129	150	1
0	5	1
157	160	2
118	120	1
17	27	2
14	17	1
89	118	1
106	108	1
36	85	1
12	20	1
120	145	1
174	180	1
0	61	3
166	176	1
92	94	2
21	24	1
19	21	1
18	23	1
5	8	2
33	108	1
143	147	2
42	49	1
136	162	2
170	174	1
13	19	1
139	167	2
42	45	1
18	21	1
38	119	1
96	98	1
3	33	1
18	68	1
25	35	1
14	28	1
81	107	1
150	168	1
35	41	1
171	178	1
102	104	1
72	73	1
158	168	1
81	84	1
83	132	1
88	99	1
22	75	1
84	114	1
5	15	1
65	76	1
40	145	1
4	10	1
149	151	1
140	141	1
145	147	1
2	36	1
14	34	1
22	35	1
109	115	1
16	29	1
23	35	1
129	153	1
14	25	1
158	160	1
99	107	1
39	42	1
