97	97	11
105	105	13
95	95	20
53	53	17
72	72	6
33	33	6
99	100	1
49	49	25
38	39	5
31	31	22
62	62	18
36	62	4
66	67	3
96	96	11
74	74	24
21	99	1
37	37	21
34	34	33
68	69	9
61	61	24
82	82	7
35	35	42
102	102	19
52	52	24
104	104	13
50	88	4
25	28	4
88	88	8
87	96	4
91	91	15
96	97	7
76	76	18
20	21	7
85	85	20
87	87	23
68	68	12
54	54	24
57	86	5
36	37	13
89	91	6
75	75	25
81	81	11
93	96	4
83	83	14
38	38	25
77	77	27
94	102	1
56	56	11
64	64	12
43	43	9
90	90	20
103	103	16
89	99	1
25	88	2
51	52	3
85	86	2
37	38	12
77	78	3
22	30	4
36	92	3
22	34	3
29	30	12
73	73	7
22	22	19
99	99	11
27	27	18
91	92	6
76	78	8
49	50	2
21	97	3
42	43	6
21	21	17
44	45	7
96	99	2
42	44	4
89	89	11
20	27	1
66	66	22
67	67	23
37	62	2
79	79	16
63	63	7
33	36	3
20	20	4
73	74	5
67	71	4
37	42	5
39	46	2
92	92	13
51	51	9
32	32	16
86	86	13
80	81	7
29	29	20
28	28	13
41	51	6
66	78	2
27	28	12
70	71	9
41	41	12
78	78	7
70	70	16
90	91	9
57	57	15
100	100	11
45	46	4
50	50	11
26	26	25
45	45	11
96	106	3
24	24	13
57	58	3
89	90	6
93	102	5
55	55	19
63	66	1
47	88	2
33	35	1
40	40	14
61	62	4
106	106	11
83	84	12
20	22	2
67	78	2
79	81	4
53	54	9
52	54	1
72	73	9
27	44	8
82	83	4
54	55	2
23	24	7
31	32	5
86	87	8
69	69	17
94	94	9
40	42	4
93	100	6
97	98	4
44	44	11
48	48	9
60	60	20
39	41	4
25	26	9
93	93	14
24	94	3
25	25	7
71	71	16
46	48	5
23	23	16
36	36	8
36	38	2
47	47	5
26	27	8
40	41	6
98	99	7
65	65	11
27	29	8
78	82	2
37	45	5
21	31	1
22	23	4
69	101	4
45	57	2
97	99	7
56	58	1
54	90	1
50	51	6
58	58	11
64	65	2
84	85	9
79	82	6
101	101	17
34	35	1
46	46	5
58	59	3
104	105	3
81	82	2
21	50	2
47	48	4
59	59	21
58	66	1
58	85	2
65	66	3
33	34	2
98	98	14
94	100	3
58	60	2
44	91	3
28	45	5
41	45	1
28	29	4
80	80	11
92	95	4
36	63	2
21	93	3
39	45	4
31	39	5
84	84	13
70	79	2
43	44	2
45	90	3
65	78	5
30	31	3
21	22	7
88	96	1
59	87	1
85	88	2
66	74	3
101	102	4
25	27	1
95	98	3
38	42	3
79	80	7
55	56	2
36	55	4
68	71	2
58	67	2
95	105	3
24	99	1
30	30	8
106	107	2
37	43	2
76	79	5
74	75	4
100	101	2
39	43	1
45	47	2
63	64	4
22	33	1
21	25	5
42	42	2
89	98	2
66	72	3
57	88	2
83	86	1
107	107	2
27	33	5
87	88	9
52	53	2
94	99	1
88	98	1
36	53	3
64	75	2
67	68	1
81	83	1
92	93	3
95	104	3
48	49	3
51	92	1
50	60	3
32	46	3
62	64	2
39	39	2
57	60	3
56	57	4
46	47	1
43	51	1
37	44	2
66	70	1
65	79	3
93	94	2
64	68	2
46	49	1
78	81	1
44	89	2
82	87	1
24	28	1
65	72	1
53	55	1
55	57	3
67	77	1
63	67	1
95	100	3
64	105	2
59	88	1
82	88	2
70	73	2
39	57	1
27	30	1
29	44	1
94	95	2
23	50	1
83	99	1
42	45	1
83	97	2
22	25	3
25	42	2
69	70	3
70	72	1
84	88	1
60	61	1
64	67	1
82	90	1
58	87	1
78	100	1
34	36	1
32	34	1
59	62	1
25	33	1
22	28	1
29	31	1
