93	93	7
92	93	4
117	117	14
61	61	12
24	32	2
5	6	4
142	142	17
55	56	2
139	139	7
125	125	17
61	62	4
73	73	8
64	65	9
3	3	1
18	24	1
99	99	15
89	89	9
100	100	9
92	92	4
108	109	2
123	124	6
124	124	29
59	74	1
119	119	23
118	118	7
131	132	5
126	126	25
23	23	15
22	22	23
144	144	24
39	39	10
78	79	4
102	103	7
115	116	4
133	133	21
54	54	9
124	125	4
115	119	3
116	116	5
42	42	6
66	66	21
137	138	9
127	127	11
128	128	12
9	9	10
118	135	1
65	65	9
144	145	1
101	101	12
121	121	15
130	137	1
141	141	7
17	17	10
95	100	3
74	74	5
8	8	15
111	112	5
25	25	12
37	37	12
62	92	2
27	28	1
71	72	4
47	47	2
10	11	8
84	92	3
51	52	3
84	84	5
130	130	19
18	19	4
68	68	3
77	78	6
131	131	17
71	105	2
32	32	12
1	20	1
104	107	2
8	15	1
81	81	14
15	15	2
88	88	9
127	128	9
39	120	1
72	72	9
48	48	18
56	56	12
67	67	21
112	112	2
120	120	6
95	96	10
114	114	6
128	129	4
80	141	2
26	27	7
8	17	2
68	69	9
38	38	24
102	102	16
30	30	10
75	110	2
29	29	13
135	135	8
98	98	7
50	51	4
103	103	7
126	127	3
142	143	7
137	137	11
57	57	11
89	90	3
57	144	3
94	95	2
90	90	19
112	113	3
26	26	17
63	72	3
79	79	4
93	103	3
134	134	11
68	142	6
104	104	12
98	99	1
72	76	4
136	137	8
141	143	4
126	129	3
83	99	1
96	96	15
34	34	3
71	86	3
123	123	9
47	48	5
118	119	7
40	118	3
120	121	3
135	139	2
28	30	6
28	28	14
27	27	10
13	13	11
110	110	11
113	113	7
125	127	4
71	71	3
35	53	1
132	132	15
54	55	2
59	60	8
91	91	22
32	61	5
39	133	4
53	53	14
0	1	2
24	31	1
31	31	3
76	76	1
100	128	2
106	106	4
40	40	20
79	129	3
135	136	7
0	0	12
61	75	3
105	106	11
137	139	2
127	129	2
68	72	2
129	129	11
141	142	8
82	95	3
114	115	4
13	17	2
19	19	9
80	91	1
69	69	10
56	69	4
94	94	15
81	82	4
11	11	8
132	135	1
145	146	4
62	63	5
77	77	10
58	60	3
35	35	4
27	72	2
95	122	2
106	107	4
74	94	2
88	121	2
9	10	2
2	3	2
85	105	2
19	31	6
90	98	6
25	26	4
116	133	1
19	20	3
95	95	13
80	80	9
58	58	6
97	98	6
119	120	8
10	10	11
4	6	1
91	100	2
136	138	2
59	59	5
111	111	3
18	18	11
61	99	3
87	87	8
76	103	4
136	136	4
132	133	6
8	9	2
62	62	15
14	14	2
19	30	1
41	41	12
130	131	2
64	64	3
4	20	2
97	97	7
100	101	6
52	52	6
135	140	1
107	117	1
79	130	1
67	81	1
94	103	1
78	78	8
58	59	5
13	15	3
34	35	9
134	137	1
83	93	2
104	105	1
18	22	2
134	136	1
143	144	4
107	107	3
16	18	1
132	144	1
13	14	2
24	24	5
11	16	3
145	145	11
30	37	4
109	109	4
92	95	3
47	106	4
24	25	3
92	105	1
57	58	1
16	17	3
112	120	1
28	71	6
11	15	3
72	85	1
4	4	2
3	5	1
12	13	2
122	122	1
117	118	3
73	74	4
16	16	4
95	99	2
143	143	12
40	120	2
41	143	2
138	138	8
34	36	3
111	113	3
47	69	3
94	123	3
69	86	1
39	54	1
6	6	2
6	19	2
51	51	4
65	144	2
70	71	4
68	81	1
146	146	3
39	40	4
32	65	2
52	53	2
82	82	11
85	85	6
72	86	1
39	124	2
111	114	1
50	123	1
101	102	1
93	122	3
82	100	3
0	99	1
122	123	5
105	105	5
67	79	1
33	34	1
101	141	2
32	33	1
17	143	1
30	31	1
24	26	5
134	135	6
28	31	1
118	130	2
1	2	1
67	68	6
36	36	7
77	79	1
66	67	1
28	29	1
63	63	13
60	60	1
51	53	3
84	85	6
95	102	1
42	103	1
61	66	1
123	129	1
21	21	11
85	96	1
111	120	4
71	90	3
80	142	1
91	124	3
75	92	1
117	133	2
33	33	6
36	38	4
94	99	2
98	129	2
112	115	1
43	43	2
88	90	6
117	129	1
65	83	2
41	142	3
83	83	5
140	141	1
142	144	1
129	141	2
103	110	1
36	37	3
85	86	1
114	119	2
37	38	1
98	124	2
95	110	1
99	100	4
14	33	3
87	88	1
87	89	2
75	76	1
130	139	3
118	138	1
81	128	1
1	5	2
23	32	2
130	136	1
117	134	2
16	27	1
131	142	1
79	83	1
38	120	2
116	117	2
50	50	3
75	85	4
91	121	2
132	139	2
125	126	2
120	126	2
92	104	2
27	30	1
13	21	1
96	97	1
129	131	2
132	134	1
86	86	2
52	55	2
6	15	1
52	54	1
0	34	1
17	99	4
17	29	1
49	49	8
41	42	2
95	120	1
69	85	1
110	137	1
2	2	2
112	130	1
34	51	3
8	18	1
22	23	1
17	80	2
81	92	3
23	24	1
3	4	1
31	33	1
42	142	2
91	92	2
78	80	2
1	21	2
80	81	2
10	17	1
67	80	2
113	119	1
70	73	1
103	104	3
107	108	1
57	67	1
65	84	1
38	124	1
144	146	2
140	140	4
105	121	1
91	109	1
20	20	1
113	114	2
50	52	1
18	81	1
32	64	1
75	75	3
131	141	1
108	108	2
14	15	1
21	64	1
86	98	1
119	135	1
104	124	1
36	122	2
77	126	1
18	20	2
5	139	1
17	18	1
16	84	4
113	115	2
49	51	1
67	143	1
50	54	1
4	5	2
49	50	1
20	21	1
9	14	1
75	79	1
57	109	1
76	78	1
20	31	2
97	110	1
34	53	1
104	125	1
98	128	1
100	119	1
133	134	1
48	107	1
129	130	1
136	139	1
79	142	1
2	10	1
103	120	1
62	94	2
138	139	1
0	119	1
42	104	1
66	80	1
87	90	1
135	138	2
120	124	1
133	143	1
90	99	1
