42	43	9
61	61	16
80	86	2
46	78	1
87	87	16
34	47	2
45	45	16
68	93	4
73	73	22
52	52	11
49	49	28
72	73	6
36	39	2
41	41	21
28	92	5
66	67	5
64	64	27
29	29	14
56	56	21
23	24	8
67	67	22
63	63	22
82	98	4
48	67	4
67	68	6
66	66	24
49	50	2
86	86	16
62	62	21
99	99	15
53	53	20
86	99	3
51	51	17
68	91	4
62	63	14
22	22	14
94	94	16
102	102	22
98	99	8
41	42	7
68	68	32
97	98	7
65	65	22
100	100	18
96	96	21
91	95	3
98	98	14
58	64	2
44	44	23
31	31	25
42	46	3
36	64	2
36	36	19
43	43	9
79	82	8
40	63	1
37	38	9
29	30	9
81	82	3
57	63	4
37	39	6
51	52	3
76	76	29
90	97	7
21	60	1
55	62	1
63	94	1
31	45	5
21	22	6
82	82	23
85	85	38
37	37	27
54	70	1
106	106	16
29	40	1
62	80	5
101	102	5
91	91	24
60	61	11
24	24	18
69	69	21
93	93	15
100	101	5
45	97	1
55	65	5
52	70	1
89	89	26
38	38	8
43	45	5
87	94	1
61	78	3
73	75	4
95	95	22
72	72	18
28	78	2
60	60	40
22	51	2
53	89	1
38	41	2
26	26	16
25	26	5
83	83	13
103	105	5
32	37	2
25	25	30
59	59	15
64	72	2
20	20	19
104	106	2
40	40	13
67	79	1
29	44	1
80	98	7
103	103	22
45	94	1
39	39	22
51	70	7
28	28	12
97	97	22
35	39	1
34	34	12
96	98	1
67	81	4
58	59	3
32	34	9
26	27	14
87	99	2
36	75	2
95	96	3
29	78	2
71	90	2
82	84	1
75	75	18
71	72	13
62	64	4
78	78	19
81	81	21
88	89	1
46	46	17
21	21	17
52	67	3
54	54	13
64	101	2
78	79	4
77	77	14
48	48	9
58	58	21
20	41	2
51	91	6
81	99	4
35	35	21
23	23	17
89	90	17
43	44	6
31	38	3
40	41	4
33	33	12
50	55	9
101	101	21
86	87	7
105	105	21
47	63	3
53	90	1
83	98	4
45	54	1
47	89	1
43	46	4
88	90	5
64	74	5
89	93	3
70	70	10
59	60	6
41	44	5
84	85	12
50	51	14
77	97	3
89	92	4
32	32	27
75	76	9
51	73	6
62	94	5
92	92	10
37	41	4
71	78	2
74	74	25
31	46	2
55	68	8
48	49	3
78	80	1
51	53	2
92	93	13
64	93	3
57	57	18
93	100	2
27	42	3
45	46	3
47	49	2
45	92	3
20	24	1
80	90	5
80	81	11
42	42	12
34	37	1
104	104	16
69	70	1
103	104	3
33	47	5
53	54	5
83	87	3
80	82	1
84	86	2
31	32	13
84	84	16
21	107	1
105	106	13
57	58	6
74	76	3
42	45	5
26	42	1
61	72	2
50	57	1
39	48	1
102	106	2
59	96	3
27	27	14
39	41	2
88	94	7
90	90	6
55	55	13
79	79	15
100	104	2
46	47	7
47	47	16
71	71	21
27	94	4
59	73	4
50	50	6
47	94	4
70	73	5
85	86	6
68	69	10
82	83	7
65	81	1
56	58	3
88	97	4
58	84	2
61	62	3
68	76	3
56	60	2
34	69	1
39	89	2
28	45	1
96	99	6
35	104	2
91	102	1
20	61	1
21	26	1
35	36	10
65	67	3
42	64	1
77	93	5
60	62	2
79	81	4
72	100	1
48	87	3
91	98	3
47	90	2
82	99	5
88	98	2
79	80	6
69	91	4
79	83	1
80	85	7
55	67	2
91	93	1
90	92	2
48	82	1
87	97	6
40	89	3
88	88	15
40	45	6
75	97	4
39	92	4
106	107	8
45	70	1
33	37	1
22	43	1
80	80	9
23	36	3
63	64	7
56	66	3
92	96	2
93	94	8
66	90	1
52	95	2
79	97	1
27	29	1
68	92	1
48	66	3
39	40	3
68	90	3
36	37	2
64	69	2
51	54	2
23	34	1
83	84	7
61	63	1
60	99	2
22	25	6
28	51	3
65	91	2
90	96	1
70	71	5
58	78	2
65	68	2
85	97	1
76	91	2
57	64	5
30	30	4
48	50	1
52	90	1
97	99	4
73	101	1
93	97	1
76	77	5
77	81	1
33	34	6
49	56	2
31	44	4
74	75	7
65	69	3
26	28	9
91	96	2
59	62	3
92	101	4
33	40	1
73	74	4
86	97	2
49	78	3
34	74	1
34	39	2
42	60	3
41	88	2
27	56	1
20	25	3
93	101	10
27	28	3
89	94	1
66	68	1
90	94	1
24	42	2
76	80	4
46	63	1
66	83	3
36	43	1
22	28	1
83	86	4
26	31	2
51	104	1
102	103	3
28	30	2
81	98	6
20	21	3
65	72	3
29	34	1
73	76	2
39	57	1
38	40	1
28	40	3
21	51	2
38	57	4
55	78	1
45	53	2
26	45	3
82	90	2
85	87	2
85	88	5
28	52	1
74	90	7
56	62	2
56	64	1
63	65	2
62	93	1
53	99	1
47	48	1
30	31	3
59	72	2
24	72	1
96	97	5
40	94	1
25	31	1
55	76	1
47	81	2
22	23	2
64	68	1
41	45	3
55	77	3
82	85	3
64	65	2
68	86	2
88	95	7
55	58	1
84	97	3
40	59	1
44	67	2
63	67	1
39	59	1
45	64	2
20	106	1
68	70	2
23	63	3
57	66	2
24	39	1
65	66	2
57	78	3
55	61	1
71	73	3
94	101	1
104	105	2
36	44	3
30	78	1
71	89	3
102	104	1
65	89	1
57	62	1
76	95	2
55	71	4
70	100	2
69	92	4
22	49	2
75	77	2
56	57	3
70	72	1
21	23	4
32	33	3
107	107	4
59	95	2
78	83	2
51	55	1
41	58	1
53	67	1
29	33	2
83	94	2
66	85	2
25	27	2
53	97	3
48	59	1
80	83	1
99	100	3
58	83	2
55	66	5
48	83	2
51	56	1
28	29	3
67	92	1
54	55	1
61	95	1
24	37	1
37	44	2
59	87	1
34	36	2
65	85	2
50	52	1
64	88	1
44	45	4
51	93	3
66	86	2
86	94	1
21	29	1
22	59	1
48	86	1
28	32	2
36	58	2
46	69	1
36	38	2
76	79	4
55	75	1
77	78	2
83	95	1
81	91	2
87	88	1
51	64	1
77	79	1
20	60	2
28	90	1
81	87	3
70	78	3
29	39	1
21	91	1
45	47	1
20	22	1
85	98	2
83	85	1
59	67	2
24	38	1
50	91	1
32	45	1
53	102	1
77	105	1
49	54	1
72	77	2
52	54	1
21	93	1
29	51	1
49	58	1
87	98	1
90	91	2
24	75	1
58	85	1
69	96	1
62	67	1
50	75	1
64	97	1
64	94	1
57	67	1
95	97	1
77	95	2
21	54	1
75	106	1
23	64	1
61	69	1
45	61	1
28	49	1
88	91	1
76	97	1
19	41	1
54	73	1
59	63	1
