93	93	14
19	19	2
1	1	5
75	75	2
131	133	7
58	59	7
96	96	3
71	72	3
58	58	3
34	79	1
20	57	2
12	12	9
35	72	2
113	113	6
28	80	8
25	25	14
30	30	6
82	83	6
69	70	3
75	76	8
8	8	10
23	23	7
90	115	5
24	24	5
85	85	9
100	100	10
72	72	10
15	15	2
8	14	5
29	29	5
41	41	8
65	65	8
24	25	2
111	113	6
102	120	1
127	127	3
24	26	2
115	116	1
61	61	9
22	22	8
46	62	4
8	11	2
11	11	17
62	73	2
103	105	2
83	86	3
130	131	7
47	47	7
76	78	1
105	105	9
69	69	9
107	109	7
60	60	14
19	23	3
122	122	8
17	18	7
12	61	5
64	64	2
21	29	2
40	40	7
9	10	15
99	100	2
66	66	7
14	31	3
81	81	1
25	81	2
46	46	4
47	83	1
88	88	6
26	26	18
115	131	3
62	62	8
50	50	6
90	90	10
93	111	3
16	16	5
36	36	9
5	47	1
35	35	7
9	27	3
31	31	5
113	116	4
125	125	1
43	43	3
103	103	4
2	45	2
40	60	3
126	126	6
68	69	4
32	33	4
75	77	4
95	95	17
21	21	7
21	81	6
7	7	5
78	80	4
27	28	10
103	104	9
6	6	10
83	83	4
8	65	2
27	27	5
130	130	4
132	132	2
92	92	6
17	17	4
37	88	1
70	70	9
122	123	1
97	98	2
22	26	3
27	92	1
28	47	3
71	71	1
97	97	11
116	116	4
78	78	4
33	35	3
11	25	1
94	123	4
20	29	2
4	32	3
29	87	10
33	33	4
45	45	2
102	122	3
108	109	2
6	7	7
89	91	2
82	82	6
86	87	1
76	76	6
29	30	3
57	58	3
109	109	4
104	105	5
31	32	3
115	115	2
102	102	5
20	23	1
101	102	1
126	129	2
29	78	1
39	43	6
128	128	10
59	59	2
68	68	3
128	130	1
20	20	4
37	42	1
94	95	6
120	120	2
134	134	4
106	107	6
4	4	2
132	133	5
11	32	4
79	91	5
3	3	3
73	74	5
91	91	6
112	112	4
4	38	2
73	73	4
44	78	2
7	30	2
126	127	1
26	27	4
5	5	5
119	119	2
33	97	1
10	14	2
14	93	2
92	110	1
22	27	2
22	23	1
16	17	4
1	46	3
109	111	1
124	124	2
109	110	6
107	107	4
28	28	6
80	80	8
67	68	2
79	82	5
13	13	3
73	107	1
111	111	3
127	129	3
89	89	2
83	89	4
44	44	3
10	10	9
68	70	7
101	114	2
42	42	5
21	27	1
129	130	2
105	110	3
44	45	4
4	5	3
43	78	1
34	34	3
27	78	2
124	126	1
95	96	3
44	57	2
9	9	3
91	94	5
48	70	2
133	134	2
8	12	1
86	86	5
124	130	1
21	25	2
43	58	2
11	48	1
114	114	2
77	77	3
36	40	2
90	98	1
41	51	2
80	82	1
32	76	2
131	134	1
19	20	1
12	13	1
79	79	4
91	93	4
35	74	2
15	16	2
129	129	3
55	55	2
6	36	2
9	68	1
62	76	2
20	56	3
95	97	2
79	80	5
48	48	2
13	16	2
43	74	1
81	82	4
120	121	2
39	39	2
15	22	1
21	35	1
74	74	5
121	121	1
84	84	4
114	132	2
47	62	1
126	128	1
11	26	3
45	47	2
47	79	3
100	101	1
13	23	1
40	79	1
30	36	2
8	25	3
33	34	5
29	77	1
106	109	2
94	94	5
93	114	3
32	32	1
11	12	1
84	101	1
87	87	1
27	29	3
110	128	2
7	15	1
73	75	2
27	30	3
117	117	2
49	49	1
126	134	2
80	81	1
26	78	1
110	110	1
25	26	3
6	101	1
14	92	1
56	56	1
87	88	1
18	18	1
25	83	1
56	57	1
40	41	1
130	134	1
74	76	1
114	115	1
90	99	1
32	34	2
10	12	1
123	124	2
14	15	1
74	116	1
125	126	1
6	14	2
20	25	1
36	44	1
42	60	1
2	3	1
90	97	1
89	94	1
18	45	1
45	46	1
3	4	1
102	103	1
26	93	1
46	60	1
13	17	1
6	88	1
14	27	1
30	32	1
88	98	1
67	67	1
23	24	1
14	14	2
38	56	1
11	13	1
