60	67	2
94	94	14
74	76	3
55	81	3
111	113	2
47	47	5
82	82	3
42	42	10
33	39	6
33	35	5
89	89	12
45	45	28
41	42	7
103	111	3
57	70	2
20	20	5
78	95	3
82	84	3
23	24	12
28	28	8
95	101	2
77	77	14
93	93	8
112	113	6
93	94	11
106	106	11
26	27	4
60	60	4
34	34	7
45	51	5
21	21	10
85	87	2
96	100	2
38	38	3
74	74	11
38	39	5
91	91	10
105	106	4
19	20	1
76	82	3
43	43	9
32	32	15
77	78	8
35	35	8
51	52	4
30	30	15
70	81	7
40	41	8
86	86	7
101	102	3
63	64	1
71	71	11
20	21	4
81	81	12
41	45	3
66	66	8
59	59	15
103	103	16
100	100	13
76	76	5
85	86	8
28	30	4
52	52	5
88	90	2
85	85	11
98	99	5
49	49	4
30	31	7
50	50	9
103	104	3
98	98	13
24	25	5
62	74	5
22	22	15
71	79	7
26	26	9
82	83	7
81	96	2
65	65	12
96	97	3
68	68	3
99	107	2
96	96	6
42	43	2
104	104	21
71	72	6
109	110	3
104	106	1
105	107	4
35	37	2
104	105	3
81	97	1
78	78	13
71	83	4
37	37	6
83	83	3
58	58	3
46	57	1
83	84	6
45	46	4
63	63	16
112	112	7
88	88	3
46	60	2
107	107	3
62	62	8
31	31	19
36	36	4
33	33	9
72	72	9
86	87	3
47	48	3
42	51	5
67	67	8
77	94	6
41	41	9
106	107	6
110	111	4
29	29	12
97	97	9
110	110	4
40	40	4
79	87	1
27	28	7
107	111	1
52	53	3
55	55	3
81	86	1
92	92	12
111	111	7
75	76	8
81	85	3
102	102	4
64	64	8
56	57	3
89	90	1
88	89	4
99	99	13
108	111	4
23	23	2
75	77	7
48	61	2
49	50	6
44	44	10
89	94	2
101	101	4
90	105	2
105	105	4
60	68	5
95	95	5
53	53	4
71	95	5
91	105	5
32	35	1
98	112	1
93	107	1
72	78	2
78	80	1
90	91	1
64	67	3
107	112	4
54	75	1
108	108	8
84	84	8
68	76	1
69	69	7
85	92	1
113	113	7
109	109	5
25	25	6
37	38	2
79	91	3
87	87	5
99	108	3
84	97	1
34	35	2
43	54	2
65	88	3
46	46	9
24	62	3
79	83	2
79	94	1
19	19	2
32	33	3
105	112	2
27	27	2
56	56	6
78	103	1
62	67	1
75	75	4
103	109	6
23	47	4
55	56	1
66	73	5
70	77	3
30	39	3
44	76	3
61	68	1
114	114	2
84	85	1
66	67	3
66	74	1
95	113	2
56	71	2
79	79	2
107	108	2
115	115	1
46	71	1
68	81	2
90	90	9
61	61	1
69	79	1
36	39	1
80	82	2
43	44	1
62	63	1
86	94	2
30	36	1
31	32	3
73	73	3
26	29	3
57	58	2
50	52	2
67	74	2
79	114	1
68	69	3
78	94	1
57	57	1
54	69	1
43	50	1
22	26	2
44	47	1
39	39	1
104	107	1
70	83	2
104	110	3
93	95	2
43	67	1
78	79	1
61	62	1
80	80	4
59	60	1
91	92	1
48	71	2
80	95	1
70	71	1
57	59	1
24	24	1
27	31	1
56	59	1
69	81	1
64	74	2
50	51	2
83	102	1
48	48	1
