157	157	3
8	8	11
220	220	8
5	6	6
127	133	4
72	72	7
62	62	19
76	77	4
137	175	2
177	177	11
63	63	7
179	179	9
87	87	2
141	143	4
30	30	11
138	138	5
159	159	5
161	165	4
131	131	2
61	62	12
164	165	4
191	191	9
5	48	2
41	42	3
134	134	5
22	69	10
28	29	7
31	31	3
74	74	13
29	29	6
40	40	8
227	227	3
48	48	6
168	168	5
29	30	4
237	238	5
182	184	3
167	168	8
219	221	4
166	166	2
100	100	7
15	16	2
103	104	5
84	84	1
43	71	3
196	196	10
193	195	1
208	208	5
139	140	5
151	153	4
153	183	3
39	39	8
73	74	1
224	225	4
2	4	2
222	223	2
128	128	2
106	114	1
69	108	5
221	221	4
105	105	3
71	71	6
65	66	1
194	196	2
77	77	4
233	233	3
205	205	3
211	218	4
143	143	6
115	115	6
86	86	8
133	133	10
47	51	2
216	216	5
212	212	9
156	156	3
219	219	12
242	242	8
237	237	5
25	25	2
135	136	1
98	98	9
106	106	5
81	84	2
126	126	2
59	59	7
79	104	2
12	12	2
201	205	2
140	140	6
235	235	3
137	138	3
64	120	3
118	118	4
201	206	2
24	174	1
217	220	1
88	88	9
207	207	9
88	120	1
209	225	3
97	98	8
209	210	5
66	66	10
47	47	7
1	1	1
2	2	4
142	142	1
10	10	16
130	130	5
188	188	1
172	173	8
135	135	6
137	141	1
154	154	17
89	102	1
136	183	5
142	143	6
121	122	1
98	99	3
223	223	6
141	142	8
37	85	4
172	172	11
12	13	3
35	64	3
205	206	1
199	200	8
43	43	7
159	165	3
52	52	4
145	146	7
214	217	1
54	54	8
21	21	7
197	197	6
206	206	1
214	215	7
212	213	3
22	22	9
147	148	3
190	190	4
204	205	10
11	11	10
212	217	1
44	44	6
6	51	3
50	50	2
34	35	1
104	105	3
38	38	4
193	193	4
102	103	5
137	140	7
194	221	1
228	228	9
7	12	3
152	152	5
171	171	2
236	236	6
33	33	7
142	145	1
136	136	4
75	75	4
136	137	4
22	23	4
144	145	5
35	36	3
129	130	5
202	202	15
124	124	3
199	199	6
23	23	15
64	64	5
73	73	3
29	134	4
129	129	1
212	214	1
156	158	2
180	180	5
210	211	4
72	73	2
9	48	1
166	167	5
155	160	1
67	67	10
82	83	2
40	76	5
68	121	5
215	215	1
230	230	4
28	28	9
218	228	2
137	137	6
227	228	2
175	175	4
158	158	5
99	99	1
174	175	5
169	169	6
68	69	1
18	18	3
117	118	1
176	176	6
101	101	4
69	69	2
226	226	8
78	78	4
16	17	2
78	80	2
20	20	9
66	67	2
35	35	6
187	188	6
210	210	3
189	189	6
157	158	3
202	203	5
96	97	5
32	32	1
164	164	3
19	21	3
218	218	4
141	145	3
229	229	13
103	103	3
46	46	5
36	36	5
153	154	4
19	19	3
189	190	1
70	70	3
45	45	9
2	42	2
169	170	1
14	15	4
37	37	2
63	64	7
26	26	5
239	239	2
160	160	3
188	189	6
153	170	3
23	179	7
116	117	1
147	147	1
79	79	3
142	144	2
165	166	5
148	148	2
80	80	2
209	209	4
234	235	1
97	97	7
61	61	3
53	53	3
68	68	1
218	220	1
181	181	5
8	9	2
178	179	3
155	155	3
225	225	8
65	65	1
41	41	2
60	60	5
231	232	3
64	65	3
143	172	2
205	207	3
185	187	2
236	239	1
85	85	7
25	27	4
174	174	1
120	129	1
206	207	1
162	162	3
76	80	2
117	117	2
27	27	8
192	196	1
191	196	1
137	176	1
24	24	2
24	68	2
16	66	1
71	72	3
25	74	1
175	178	1
87	98	1
147	149	2
220	221	2
47	54	1
198	198	2
153	153	4
44	45	2
156	182	3
151	151	6
207	208	2
195	196	1
199	228	4
226	227	2
47	53	2
113	113	1
10	11	3
158	181	1
83	84	2
127	128	1
170	182	2
141	141	1
223	224	5
232	232	3
6	6	4
114	114	4
178	221	2
11	22	1
51	52	2
23	24	1
70	75	3
48	64	2
2	3	3
84	85	1
13	13	1
62	74	2
182	182	5
49	49	1
211	211	2
177	178	3
173	175	3
181	182	4
146	146	3
221	222	3
18	19	1
213	214	1
57	57	3
3	4	2
153	165	2
155	165	4
198	199	4
74	75	1
9	10	1
33	69	4
55	55	4
1	3	1
39	104	1
236	237	1
95	95	1
217	218	3
61	100	3
138	139	2
219	227	3
163	187	1
99	100	3
8	12	1
36	37	3
107	109	1
201	201	5
169	171	2
104	115	3
0	0	2
122	122	8
64	66	1
44	64	1
196	219	2
60	61	1
162	163	4
102	118	1
30	35	2
75	102	1
24	37	2
137	139	1
219	225	2
69	75	1
192	192	5
214	216	1
3	7	1
102	102	3
31	37	1
39	71	1
103	118	1
24	28	2
144	144	3
25	32	2
53	63	1
40	41	5
68	145	2
170	171	1
133	134	2
67	68	1
198	204	1
68	143	1
233	234	3
80	83	3
128	133	1
143	145	2
9	9	1
191	193	1
231	231	3
56	56	2
180	181	1
114	118	2
47	63	3
203	204	1
173	173	2
111	111	3
30	50	1
49	50	2
51	51	1
6	7	3
27	28	5
2	60	5
5	5	2
159	161	2
108	109	2
139	139	3
194	194	1
28	74	1
70	71	2
17	17	2
121	121	1
154	163	3
80	81	1
183	183	2
76	76	1
75	85	1
217	217	1
219	222	1
222	222	3
125	126	1
13	15	1
159	160	1
47	50	1
96	96	1
6	8	2
3	3	1
211	223	2
27	36	1
90	116	1
204	204	2
213	213	2
95	97	1
182	183	2
154	155	2
67	74	2
160	161	2
200	231	1
222	225	1
52	54	2
36	63	1
29	75	1
17	23	1
165	165	1
47	65	1
11	20	2
52	53	1
127	131	1
85	88	1
74	101	1
203	203	2
196	221	1
100	237	1
152	153	1
178	178	1
197	198	1
178	182	1
170	170	1
111	112	1
15	15	1
142	146	2
200	200	1
101	102	1
83	83	1
26	85	1
198	228	1
4	5	2
171	180	1
161	161	1
79	80	1
168	169	2
82	82	1
126	127	1
225	227	1
61	84	1
86	110	1
217	227	1
40	42	2
28	73	1
62	63	1
44	70	2
156	159	1
54	204	1
37	38	1
108	108	2
241	242	1
183	184	1
171	172	1
82	84	1
188	192	1
176	177	1
