56	131	1
104	104	12
95	96	6
43	62	2
64	64	15
111	111	8
78	78	15
4	5	10
71	71	22
66	68	11
87	87	11
98	100	2
69	82	3
84	97	3
80	80	24
76	127	1
125	125	13
83	84	4
43	107	1
118	118	13
86	130	4
62	62	5
130	130	15
71	126	4
96	97	6
79	80	2
12	12	15
24	24	7
55	56	3
60	62	5
35	35	12
77	78	14
69	69	15
99	99	19
12	101	4
12	23	3
47	50	2
9	36	4
81	123	4
106	108	3
6	22	2
21	24	2
31	31	12
88	91	3
33	33	5
120	120	11
97	97	19
63	63	11
85	114	6
59	60	2
66	95	3
122	122	12
128	128	7
58	58	6
127	128	1
85	106	9
117	117	20
89	90	12
72	121	1
56	120	1
89	128	3
54	119	5
121	121	12
67	67	9
109	110	7
78	79	4
9	11	2
76	78	4
11	11	7
55	55	4
116	116	5
73	97	3
81	82	2
10	10	9
49	49	1
25	25	8
65	65	6
2	2	9
58	59	7
45	127	2
102	102	6
36	36	11
74	74	26
20	26	4
127	127	14
134	134	11
87	106	9
115	115	11
19	19	3
75	75	13
47	51	2
133	133	9
27	27	8
114	115	7
73	73	9
70	88	4
9	9	5
47	87	7
125	126	3
82	85	3
82	116	3
93	125	3
82	83	2
131	131	9
26	26	9
69	76	1
32	33	4
111	112	1
4	4	10
52	52	5
132	134	3
126	126	19
9	16	1
6	6	4
89	89	7
79	79	18
1	1	6
44	44	9
46	46	2
0	0	3
42	58	3
110	110	4
68	68	3
49	50	3
15	15	9
105	105	18
65	67	4
63	116	3
54	56	6
43	43	5
109	109	5
135	135	4
124	125	4
129	129	12
67	68	7
103	103	6
90	123	4
91	92	9
57	57	6
25	31	7
33	34	4
112	120	5
87	108	2
84	88	3
123	123	18
34	34	5
67	129	3
22	22	11
63	64	4
112	112	13
98	132	5
54	54	8
69	89	1
134	135	1
90	90	11
54	69	2
65	130	7
132	133	7
56	111	3
124	124	12
50	50	9
105	114	1
106	106	8
31	32	9
22	80	6
28	28	3
7	19	1
83	100	5
114	114	12
113	113	6
56	119	3
128	129	6
61	61	8
97	98	6
82	87	5
74	103	3
85	85	10
119	119	9
100	101	3
25	32	6
108	108	11
44	58	5
30	30	6
16	16	9
68	69	4
58	65	1
14	112	1
112	114	1
54	55	6
0	1	3
105	134	3
107	111	2
43	79	1
21	21	6
93	93	7
83	117	6
50	60	4
60	60	7
65	81	2
70	127	7
71	98	1
62	68	1
101	101	11
82	82	4
87	88	1
103	104	5
97	107	4
35	43	2
48	52	2
123	124	2
86	86	3
32	32	7
14	14	3
1	3	2
9	10	2
77	77	9
107	113	1
62	63	5
29	29	4
108	113	2
32	74	2
59	59	6
113	121	3
126	127	3
95	95	21
83	83	2
57	58	1
132	132	3
98	99	3
53	53	10
76	76	9
51	52	2
116	118	2
109	134	7
94	95	2
90	91	8
106	133	3
83	85	4
100	100	3
72	134	10
102	103	5
13	13	11
73	102	2
131	132	1
107	108	2
7	50	4
99	134	2
55	61	1
48	48	2
8	8	10
107	107	6
92	92	6
11	35	1
119	133	2
25	50	2
109	111	2
70	71	2
72	88	2
57	114	2
45	45	5
54	57	4
100	111	1
96	96	1
88	88	6
56	85	3
48	77	1
54	114	1
71	124	1
108	133	1
75	76	3
43	111	3
13	31	1
98	106	3
61	68	1
84	130	3
44	86	1
77	79	3
109	116	3
84	85	3
11	20	2
52	53	3
61	65	2
81	124	1
22	23	2
52	65	3
19	21	2
33	35	1
30	103	2
116	117	3
2	3	2
86	87	2
10	11	1
72	72	1
21	26	2
98	98	2
94	120	4
57	59	1
108	110	1
85	117	1
86	91	2
20	20	5
72	117	2
7	8	2
73	120	1
35	36	1
19	26	1
94	96	1
97	101	1
56	56	2
104	105	4
12	46	1
61	62	4
63	72	1
3	3	1
83	111	2
112	113	3
46	78	1
37	50	2
98	126	1
92	93	2
66	66	1
66	67	2
44	67	1
17	101	1
25	104	2
90	92	1
64	92	1
114	116	2
79	102	1
71	76	2
86	88	2
12	47	3
105	112	1
51	51	2
8	19	2
86	118	3
108	109	1
94	94	4
77	101	1
43	63	1
5	5	1
122	123	2
110	116	2
73	134	1
91	91	2
81	106	1
20	21	2
64	123	2
81	81	1
11	34	1
124	126	1
71	75	1
69	75	5
63	91	2
119	120	2
105	127	3
29	31	1
45	56	2
18	18	4
63	70	3
60	64	2
70	72	2
7	11	1
35	114	1
1	2	1
34	35	2
123	129	1
58	68	1
64	65	1
7	7	1
69	98	1
118	121	1
70	70	2
58	66	1
84	87	1
122	133	1
92	100	2
59	61	2
115	134	3
66	128	1
101	102	1
65	68	1
75	102	2
8	34	1
18	20	1
2	4	2
70	115	1
130	131	1
9	39	1
60	65	1
13	28	1
10	14	1
85	118	1
110	111	1
80	89	1
86	106	1
69	74	1
88	89	2
68	88	1
25	26	1
15	100	1
88	106	1
83	87	1
14	31	1
23	23	1
122	124	1
106	123	1
54	81	1
119	131	1
111	113	1
14	101	1
115	119	1
67	86	1
85	100	1
79	95	1
