38	38	6
104	105	7
72	72	5
44	48	2
71	79	6
88	89	4
145	146	2
2	2	18
75	75	11
142	142	9
101	101	16
101	103	4
112	112	6
13	13	6
93	93	15
143	143	6
35	37	8
109	110	9
128	128	5
158	162	2
175	175	8
183	183	4
167	167	6
149	149	7
7	8	9
44	46	5
69	69	2
84	85	10
137	145	3
136	136	10
57	57	13
84	113	2
182	182	9
155	158	3
38	57	4
111	111	20
89	89	7
12	13	9
10	11	5
22	23	7
172	172	8
90	90	3
59	61	3
8	79	2
14	14	4
68	68	3
159	159	3
96	96	4
6	6	6
110	110	7
123	123	3
10	10	9
126	126	6
158	158	11
174	175	11
83	83	6
185	186	5
10	16	2
77	77	10
188	189	10
130	131	1
121	121	17
11	17	3
115	115	9
41	41	8
39	39	17
167	177	2
82	84	3
103	140	4
137	138	7
108	108	7
42	42	6
157	157	17
54	55	5
177	178	6
146	147	1
126	127	1
48	48	6
20	20	2
45	47	3
22	22	8
88	88	7
19	32	4
47	47	11
71	71	13
60	60	17
34	35	11
135	139	3
177	177	9
9	9	3
43	44	5
12	12	2
140	140	1
133	135	4
148	165	1
17	46	1
53	53	12
17	17	6
178	178	5
7	22	2
70	70	7
87	88	3
59	59	4
162	162	4
75	76	6
136	137	6
155	155	13
95	98	3
18	47	2
135	137	2
63	72	2
102	103	4
141	141	7
102	102	4
129	169	4
79	80	5
76	76	5
105	106	2
45	45	4
187	187	9
129	129	6
62	62	9
101	102	6
84	84	5
46	46	11
30	30	8
90	91	2
159	160	8
67	67	11
121	122	3
18	28	1
163	164	6
118	119	4
25	25	7
7	79	2
153	153	7
122	124	3
153	154	4
0	0	6
55	55	7
133	133	1
111	146	1
164	172	3
183	185	2
126	155	6
127	127	2
94	101	5
154	154	4
156	156	5
184	184	5
21	23	1
124	124	12
109	109	3
31	32	2
164	165	1
113	113	5
3	8	3
151	152	3
166	166	8
52	52	2
157	182	5
174	174	8
148	149	1
176	177	1
10	12	1
14	42	6
116	117	6
65	69	3
99	106	1
66	66	4
15	42	2
25	27	1
34	34	4
129	131	1
4	5	9
37	54	1
107	108	3
119	119	10
58	58	14
106	106	6
149	165	1
19	27	3
186	186	3
124	131	3
107	107	1
105	108	8
163	163	9
125	125	9
0	2	1
93	94	11
32	33	5
72	73	6
84	88	6
95	99	4
114	116	7
11	11	6
152	153	4
34	36	1
87	87	4
152	184	1
11	13	4
124	125	3
168	168	8
180	180	6
80	82	3
6	78	4
95	95	12
24	25	4
148	148	3
56	57	8
80	81	7
94	94	3
106	108	2
131	132	1
12	44	1
164	164	6
132	135	4
23	23	1
158	166	4
179	180	5
124	152	8
16	16	8
128	130	2
49	49	2
147	148	4
119	121	5
36	36	7
42	49	2
138	138	2
0	1	10
45	46	4
92	93	4
157	166	2
169	169	15
99	99	4
23	24	2
90	145	6
7	7	7
63	64	1
70	73	4
176	178	5
15	43	3
85	85	11
5	5	3
188	188	11
18	34	3
64	97	4
190	190	6
176	176	3
89	92	1
172	174	1
85	91	7
100	103	3
13	14	5
86	87	1
3	16	2
78	78	6
175	176	6
164	168	2
122	145	3
105	107	4
92	94	2
12	81	2
95	96	2
189	189	4
44	45	8
4	22	1
81	82	2
145	145	4
166	177	3
70	72	3
157	161	4
17	22	1
31	31	3
117	124	1
141	144	5
59	60	4
71	72	3
18	20	3
37	37	2
118	118	5
103	103	6
120	120	14
173	173	3
117	117	3
25	26	4
43	43	4
80	80	6
18	18	3
99	110	2
114	114	4
85	88	6
79	79	9
97	99	1
134	135	5
181	182	4
134	177	2
171	173	4
2	3	2
151	190	2
82	83	1
78	79	3
8	56	4
135	135	5
3	3	1
123	124	14
150	150	1
21	21	2
169	170	2
138	139	14
156	168	3
82	85	2
122	122	3
116	116	7
170	176	1
108	111	9
55	58	1
106	107	3
83	113	5
27	28	2
98	98	3
36	37	6
125	153	2
170	170	3
97	97	3
184	185	4
58	76	7
90	93	2
65	65	2
105	105	6
103	106	2
124	126	3
58	78	2
104	104	4
131	150	5
26	27	1
146	146	8
26	26	4
93	101	1
67	68	5
160	160	2
154	169	1
57	76	2
24	24	5
47	54	3
122	123	5
120	132	4
155	178	3
139	140	3
15	15	1
185	185	2
151	153	2
15	16	3
66	106	2
19	19	4
128	129	3
147	147	5
119	120	1
163	165	3
30	31	2
121	143	2
134	134	7
130	132	1
100	100	3
111	112	2
13	53	3
152	190	3
114	115	1
21	22	2
73	73	4
127	166	1
106	139	2
132	134	1
44	44	4
157	162	1
6	7	5
67	70	1
74	75	1
11	58	1
161	161	5
31	33	5
97	98	2
32	34	3
173	174	4
4	23	2
81	81	7
27	27	2
165	178	5
165	165	2
73	74	1
181	181	3
11	12	1
81	109	1
35	65	4
40	42	2
38	39	1
131	137	1
79	93	2
61	62	3
126	154	2
74	74	2
45	59	1
151	151	6
44	47	3
64	108	1
137	137	3
33	34	4
154	155	2
137	139	3
71	74	1
89	90	2
29	29	1
155	163	2
40	40	5
130	130	5
8	8	6
46	47	3
93	109	1
83	84	1
33	33	3
132	133	1
129	142	1
142	143	4
29	34	1
134	183	2
133	134	1
35	36	2
20	60	1
73	76	1
35	35	4
145	148	1
112	146	2
189	190	1
16	23	1
37	48	2
64	64	1
12	84	1
160	161	2
15	94	2
179	189	1
115	147	2
109	111	3
60	61	3
41	42	1
103	108	1
162	179	1
183	184	3
8	55	1
92	92	2
11	16	1
134	136	1
38	41	1
123	151	1
5	10	2
84	86	1
23	40	1
162	163	1
109	146	2
155	165	1
104	106	2
58	60	1
59	74	1
39	40	2
116	133	1
57	77	1
63	63	1
121	152	2
168	170	2
9	16	1
8	16	1
11	80	1
1	1	2
106	109	2
9	10	2
187	188	2
10	56	1
16	21	1
52	53	1
86	86	1
123	128	2
165	166	1
47	48	1
19	20	1
172	173	1
41	148	2
22	24	2
115	148	1
179	179	1
165	168	2
10	52	1
90	110	1
136	148	3
16	18	1
8	54	1
166	167	1
27	30	1
152	152	1
144	144	2
30	32	1
90	119	1
103	110	1
