116	122	4
183	183	2
119	129	2
55	56	6
31	31	3
58	58	3
10	10	5
12	37	2
15	15	7
30	30	4
55	55	7
62	62	5
43	43	5
171	173	1
30	32	1
6	11	2
91	91	4
64	64	2
89	89	9
173	173	9
96	97	2
26	26	4
119	122	4
77	78	2
1	114	1
38	46	1
135	144	2
57	129	1
68	69	2
139	139	2
116	126	2
38	53	1
58	60	9
97	100	1
138	154	2
136	137	2
65	85	3
152	153	5
10	11	4
4	19	3
158	158	1
132	133	2
92	92	2
27	27	3
100	100	2
125	128	2
22	23	3
16	17	2
94	94	2
187	187	5
143	143	9
56	56	3
145	166	4
157	157	6
36	49	2
102	102	4
65	65	4
66	67	3
87	87	5
46	46	4
188	188	9
47	48	1
33	45	2
116	116	3
177	177	8
158	161	1
114	114	5
90	90	3
81	118	2
137	137	5
135	137	1
78	124	1
57	57	5
185	186	2
32	36	3
16	16	2
68	68	5
187	188	1
95	95	4
92	93	1
63	63	8
113	114	6
68	87	2
45	47	1
121	122	1
24	24	7
44	46	4
156	156	8
83	83	4
21	21	2
139	142	1
53	55	1
172	174	4
185	185	3
8	8	4
155	156	3
94	104	1
148	149	2
86	118	2
6	9	1
136	136	4
133	147	2
150	157	2
184	184	5
186	186	7
10	14	2
42	44	1
38	38	7
86	86	3
33	33	5
126	162	2
88	88	1
14	14	4
29	32	1
178	178	5
48	48	3
17	91	1
26	43	2
133	133	11
120	186	4
148	148	6
18	19	3
108	127	3
176	176	1
172	173	3
22	22	4
175	179	3
60	62	2
174	175	2
118	119	1
138	139	5
95	96	3
71	117	1
189	190	2
108	108	2
153	154	2
3	3	1
1	2	1
144	145	1
133	135	3
109	113	2
9	10	5
103	103	7
175	176	1
37	47	3
134	134	2
140	142	1
16	182	1
109	109	5
105	106	4
152	152	3
137	138	1
79	79	3
18	18	3
45	46	10
39	39	6
27	33	2
107	107	5
111	112	2
131	131	1
167	187	1
106	106	8
20	20	8
6	8	4
112	112	8
105	105	5
124	124	2
61	63	1
82	100	1
103	139	1
97	145	1
78	78	2
95	115	2
80	80	4
28	28	7
135	135	2
25	38	1
124	125	6
5	5	1
36	36	1
107	108	2
71	72	1
110	177	5
86	95	1
154	154	3
0	56	3
93	93	3
45	45	1
162	162	1
17	18	2
68	70	1
142	142	3
179	179	5
5	8	1
186	187	3
21	22	4
151	151	1
30	31	3
96	96	4
153	155	1
84	85	3
81	81	4
29	29	3
8	9	1
161	161	3
70	75	2
129	131	1
52	52	1
97	97	4
4	4	3
169	186	2
159	160	2
30	37	3
92	95	3
0	0	2
110	112	2
33	34	4
96	98	1
128	128	1
174	180	1
113	187	2
163	164	2
177	178	2
6	6	1
144	153	1
20	38	3
34	34	3
130	131	3
117	122	2
157	159	1
2	2	2
182	187	1
190	190	4
181	181	2
37	38	2
145	145	4
151	166	5
119	143	1
72	72	1
13	16	1
110	110	5
54	56	2
58	59	1
164	165	1
121	121	1
11	11	2
106	153	1
12	12	4
174	174	3
42	42	1
67	67	1
150	165	1
37	37	3
19	20	1
158	190	2
173	187	2
74	74	5
170	170	3
121	133	1
1	1	1
36	41	1
70	82	1
153	153	3
122	122	6
127	165	1
124	126	2
140	144	2
25	39	3
19	136	1
99	105	1
123	123	1
25	27	1
175	175	2
19	21	1
29	30	3
97	98	4
147	147	3
20	24	1
97	102	1
55	63	1
146	146	2
140	140	3
9	9	2
119	121	2
149	149	4
130	156	1
146	148	1
75	108	1
118	162	2
101	101	2
18	23	1
132	136	2
66	66	2
172	172	2
85	90	1
95	100	1
58	64	2
99	99	4
13	13	1
19	19	2
109	110	2
76	82	1
140	153	1
144	144	4
95	99	2
47	47	2
53	53	6
5	7	1
160	160	3
80	81	2
64	73	2
7	7	5
131	134	1
82	82	2
10	12	2
55	57	2
25	25	2
94	95	1
41	41	3
101	103	2
163	163	1
83	113	1
167	167	1
138	138	3
129	129	2
42	43	3
130	130	1
32	32	1
102	133	1
151	152	2
68	85	1
28	29	1
150	150	2
182	182	2
56	173	1
126	126	2
178	179	2
19	144	1
117	119	1
79	80	2
61	61	1
98	99	3
141	144	1
64	65	2
59	59	1
21	93	2
76	83	1
106	108	1
85	85	2
120	120	2
107	119	2
126	127	3
154	155	1
137	158	1
166	166	2
164	164	2
90	91	1
164	179	1
165	165	2
60	60	3
85	113	2
14	15	1
19	145	2
17	23	2
104	130	1
40	40	2
58	63	2
189	189	4
113	186	1
6	7	2
38	39	2
84	84	1
171	171	1
118	118	1
156	158	1
122	147	1
130	155	1
77	77	1
43	44	1
21	43	1
2	56	1
44	45	1
146	147	1
30	41	1
75	75	2
106	118	1
113	113	1
118	121	2
96	99	2
14	16	1
39	41	1
183	184	2
157	181	1
49	49	1
76	76	1
85	86	1
25	28	1
69	69	1
99	116	1
110	126	1
125	176	1
173	175	1
20	21	1
147	164	1
134	135	3
155	155	2
72	111	1
98	138	1
11	13	1
28	35	1
54	54	1
4	5	1
187	189	1
5	14	1
157	158	1
78	79	1
33	130	1
102	103	1
27	28	1
114	115	1
110	113	1
