104	104	15
173	174	3
88	88	8
153	153	1
8	8	4
184	185	9
91	92	4
109	110	8
106	106	10
44	44	6
117	117	12
168	168	7
35	35	8
177	180	1
79	80	2
102	143	2
4	6	10
155	155	3
7	8	3
46	47	4
129	146	1
20	20	11
91	151	2
75	80	3
159	160	7
118	118	11
104	105	4
107	113	2
56	63	2
160	160	4
69	91	3
129	129	6
27	28	7
69	69	2
75	75	6
131	131	4
171	171	9
167	167	2
26	26	5
165	165	9
53	53	12
21	21	6
76	190	4
143	159	1
56	163	1
47	65	3
86	86	4
130	130	8
73	73	4
96	98	2
27	27	5
187	187	6
186	187	4
42	42	5
78	79	5
23	25	3
134	164	2
176	179	3
144	166	1
45	46	4
85	85	4
17	18	1
84	84	5
143	143	7
87	88	5
131	133	1
22	23	5
43	44	3
157	157	6
70	70	6
107	107	2
23	43	2
87	87	4
45	45	2
37	132	12
176	176	1
155	169	2
82	82	11
34	34	3
8	12	2
146	146	5
138	138	5
48	48	3
159	187	1
40	40	6
137	137	7
73	74	6
169	184	4
19	19	7
101	150	1
103	103	2
19	20	4
136	136	2
77	77	7
86	87	4
176	185	3
47	47	8
70	84	6
72	72	3
28	28	3
56	57	1
181	181	12
113	114	1
45	62	2
90	90	8
178	178	6
22	156	1
163	163	3
100	154	2
65	75	3
67	67	7
147	147	5
15	15	5
169	170	5
67	68	3
88	89	1
185	185	2
48	114	2
6	6	5
154	154	3
132	132	5
26	27	2
65	65	7
124	124	6
134	135	1
96	96	6
141	141	9
126	127	5
91	95	3
101	101	7
21	130	1
108	109	3
70	110	2
83	83	3
121	121	8
125	125	2
179	179	4
100	110	1
5	29	4
140	141	3
113	113	3
149	150	2
87	119	1
122	122	6
29	29	1
162	162	8
127	128	5
94	94	2
58	58	2
131	164	5
107	108	1
175	176	2
142	159	4
152	152	1
184	186	2
170	177	3
108	119	1
57	57	4
120	120	8
183	183	5
71	71	5
111	111	4
10	11	2
14	15	1
171	173	3
29	30	5
64	64	5
76	84	7
156	156	3
38	38	8
152	153	3
139	170	1
9	116	1
5	13	3
175	178	2
188	188	3
33	100	3
166	170	2
22	42	2
175	175	1
0	1	2
48	101	1
25	26	3
131	132	1
81	81	6
104	151	4
147	148	3
133	137	4
154	162	1
25	25	3
150	150	4
151	152	2
156	157	4
70	73	2
71	94	3
189	189	2
133	135	1
190	190	7
78	78	3
89	89	1
169	183	3
17	17	5
80	80	2
14	22	1
18	38	1
42	156	1
95	95	3
39	39	2
114	120	5
81	190	3
164	173	2
48	62	3
92	93	6
60	63	1
68	90	2
60	113	3
31	31	3
91	91	7
28	29	6
116	117	1
180	181	3
101	102	1
90	94	2
4	25	1
105	105	2
2	3	2
32	33	3
133	133	3
123	131	2
105	108	3
25	44	1
36	36	3
90	98	1
1	7	1
39	121	1
111	126	5
145	187	2
95	121	3
9	13	3
169	169	2
182	183	1
66	66	1
37	98	1
42	65	3
23	46	1
5	14	2
0	28	2
183	188	1
129	130	1
21	39	5
23	23	4
30	30	2
54	55	1
165	176	3
110	110	3
138	140	2
161	161	3
74	75	1
164	167	1
117	118	2
22	22	4
24	24	3
153	154	1
157	177	2
47	68	1
165	167	2
10	10	2
173	173	2
122	123	1
114	114	5
149	149	1
181	182	3
85	86	3
55	55	5
60	60	5
83	84	1
27	29	2
41	89	1
151	151	1
95	122	1
128	129	2
179	181	2
182	182	4
14	14	1
186	186	3
174	176	1
79	79	2
107	155	1
43	155	1
31	45	3
140	140	1
69	153	1
144	148	5
98	98	2
144	144	2
187	188	1
174	174	1
80	81	2
75	76	3
8	15	3
126	126	1
163	188	1
15	25	1
152	154	1
22	85	2
34	35	3
97	97	6
0	0	1
176	177	2
188	189	2
68	154	2
12	13	1
184	184	3
94	95	2
70	71	3
119	122	2
129	131	1
41	98	1
45	115	1
134	137	1
76	79	2
125	126	1
76	76	2
11	16	1
130	135	2
109	109	2
71	153	2
19	115	1
180	180	1
3	40	1
177	178	2
9	10	2
58	59	3
174	175	1
12	12	3
115	115	5
66	73	2
44	52	1
127	127	1
162	164	2
73	153	1
143	154	1
61	61	5
40	95	1
80	86	2
18	19	1
101	103	1
116	131	1
74	74	2
81	86	1
64	115	1
58	79	1
81	82	2
11	12	1
32	32	3
33	34	2
67	124	2
7	7	2
114	115	4
170	179	2
13	13	3
164	169	1
136	137	1
102	102	1
138	139	1
61	62	1
77	78	1
177	177	1
56	56	2
63	63	1
154	156	1
156	162	2
35	105	3
18	18	1
72	73	3
142	142	1
59	59	1
169	175	1
159	182	2
77	142	1
53	122	1
62	121	1
80	82	2
16	43	1
58	60	1
156	167	1
17	38	1
148	148	1
124	125	2
9	9	1
102	150	1
189	190	1
37	37	1
165	180	1
79	83	1
76	184	2
20	98	1
64	65	1
119	120	1
142	143	1
18	96	1
4	5	1
112	112	1
85	163	1
178	181	1
92	92	1
59	81	1
111	153	1
94	122	1
178	179	1
163	190	1
120	123	1
109	144	1
145	145	1
154	163	1
37	96	1
112	119	1
24	29	1
21	36	1
158	158	1
30	32	1
