127	127	13
15	15	12
94	94	9
3	3	6
61	68	2
27	30	3
112	112	18
77	80	2
84	84	6
122	124	4
123	129	6
47	48	4
60	61	5
40	41	1
62	62	10
80	80	4
96	96	14
120	124	2
68	68	11
13	14	14
109	109	4
42	42	17
16	16	5
29	29	9
4	13	1
28	28	5
129	129	6
64	65	2
56	56	13
91	91	10
84	99	1
92	92	2
119	119	7
59	62	3
7	14	8
96	128	2
59	59	8
117	128	1
1	1	10
66	66	5
22	22	5
104	104	9
67	77	5
74	74	10
38	39	6
41	41	5
97	98	9
12	12	6
43	43	4
116	116	10
63	64	5
67	68	5
93	95	6
122	122	13
30	30	6
50	50	7
88	88	10
40	40	5
42	44	5
6	6	6
46	47	11
117	126	2
129	130	4
131	132	5
30	61	1
69	69	9
17	21	3
72	72	3
91	92	3
53	57	1
90	90	3
71	72	5
125	128	2
126	126	8
2	2	5
117	117	10
45	47	4
120	132	3
49	49	8
65	93	3
10	10	9
102	102	8
26	26	9
89	89	6
108	109	4
57	57	8
94	95	6
106	107	3
84	86	3
33	58	1
101	101	18
112	113	2
3	4	6
46	46	9
14	14	2
3	24	7
48	48	6
21	21	8
99	128	1
54	120	3
78	79	1
64	64	3
115	116	3
114	114	12
73	73	11
83	84	13
123	123	5
47	47	16
63	63	8
21	22	6
130	130	7
5	23	4
108	108	6
51	51	3
8	19	7
113	113	9
97	100	6
121	122	2
61	61	4
61	62	3
34	67	1
0	0	3
53	56	2
5	55	3
54	64	1
106	106	15
58	58	9
1	6	7
99	99	9
121	121	6
26	32	1
81	81	6
20	32	2
103	108	1
96	106	2
71	71	3
119	127	2
44	67	1
6	8	1
92	103	2
53	108	1
90	91	7
31	60	2
53	53	5
85	85	8
14	15	4
106	115	6
84	94	3
7	7	6
41	64	2
13	13	10
133	133	7
115	115	5
68	71	3
19	21	2
60	67	3
67	67	7
52	53	2
78	78	11
98	98	6
23	24	5
70	71	2
113	121	3
123	126	2
33	33	11
0	6	1
49	112	1
124	124	4
88	89	4
77	77	3
57	76	1
0	93	1
24	24	11
23	23	8
100	100	6
58	108	3
77	85	3
72	73	5
45	68	2
110	110	3
65	65	6
27	27	3
11	11	1
117	118	2
104	131	2
83	83	10
18	18	8
25	91	4
102	104	4
107	107	7
40	52	1
111	111	5
75	106	1
55	100	2
132	132	5
47	65	1
27	28	3
96	97	1
103	103	2
82	82	6
31	46	2
129	131	1
2	13	3
118	118	3
45	45	4
2	3	2
62	89	2
32	32	1
52	52	10
25	26	5
53	64	3
76	76	2
82	83	1
73	74	2
44	44	3
102	103	6
112	118	2
61	67	2
87	88	2
19	19	7
76	92	2
60	60	7
66	67	2
131	131	8
22	23	1
10	12	1
42	43	2
0	1	1
61	63	2
75	76	1
52	69	2
116	124	2
92	98	2
123	125	1
97	97	3
29	30	3
109	110	8
76	77	2
9	9	3
14	113	4
25	25	7
64	89	5
41	42	4
47	49	4
17	17	4
58	64	1
55	60	3
39	39	4
114	123	1
128	128	4
125	126	2
45	67	1
77	78	4
83	85	3
22	29	1
26	27	1
39	111	2
72	74	4
116	117	2
32	58	1
30	58	1
26	28	2
24	60	2
5	5	3
101	127	1
121	123	2
38	40	1
68	78	1
55	55	7
52	56	1
47	82	2
45	69	3
19	58	3
8	16	2
54	56	1
120	120	4
25	39	2
9	10	1
10	29	2
0	12	1
51	52	3
68	74	5
34	34	1
43	44	3
55	66	1
115	124	1
75	75	10
44	45	3
20	20	5
65	71	3
3	32	1
75	97	1
49	120	1
4	4	2
119	120	4
128	130	1
32	33	1
118	131	1
84	85	4
31	32	1
90	99	3
68	104	2
11	102	1
65	66	1
8	26	1
25	27	1
93	93	3
70	70	2
55	57	2
118	128	1
95	95	5
30	34	1
8	8	2
79	80	1
23	87	1
97	99	1
10	11	2
113	117	1
8	31	1
123	124	1
22	26	1
101	107	1
125	125	2
33	34	2
29	61	1
86	86	5
1	95	1
102	105	1
16	18	1
98	99	1
126	128	1
104	105	1
118	119	1
127	131	1
61	102	1
74	75	1
43	45	1
55	65	1
87	89	1
54	55	1
31	31	1
83	99	1
16	17	2
124	125	1
20	23	1
86	87	1
4	5	1
87	87	1
105	106	1
100	101	1
5	6	1
60	86	1
9	49	2
95	122	1
54	54	1
53	67	1
2	24	1
50	84	1
76	85	1
