50	50	14
139	139	26
127	148	2
30	30	14
6	6	12
124	125	5
75	126	2
31	31	12
8	8	24
10	12	6
80	89	4
135	135	10
16	16	12
81	81	6
76	76	9
43	43	26
57	57	6
108	110	7
5	5	9
70	146	4
117	117	9
97	97	13
68	85	2
142	147	2
128	128	20
91	143	3
41	41	12
94	158	3
144	144	8
36	36	8
105	106	5
22	22	10
109	109	11
130	130	15
68	71	3
146	146	12
119	119	4
87	110	2
99	99	27
26	27	15
17	26	3
34	34	23
49	69	3
112	120	1
126	126	9
68	68	13
138	138	8
13	29	1
122	122	13
151	151	24
129	129	15
16	19	2
40	40	13
16	30	1
153	154	4
12	158	6
77	77	8
48	48	7
78	78	18
85	85	5
55	55	16
53	54	4
46	46	7
136	136	16
124	128	5
106	128	2
32	50	2
48	51	6
40	41	16
157	158	8
119	121	7
80	80	15
92	103	4
69	78	4
148	148	13
146	147	6
112	147	2
2	4	4
0	151	1
100	100	15
107	107	4
70	112	1
112	156	3
10	10	7
79	79	24
24	25	8
90	90	10
111	121	5
110	142	2
86	86	12
15	15	13
72	73	7
44	44	8
52	53	3
75	127	1
62	126	3
17	17	18
139	140	7
82	84	2
123	123	9
18	18	14
29	29	16
53	53	9
131	132	10
22	27	3
18	22	1
62	152	5
89	138	4
39	40	3
48	69	4
83	83	3
101	101	11
111	111	26
98	98	15
127	128	5
151	157	6
93	94	6
25	25	13
2	2	12
131	131	30
108	142	4
150	151	2
137	138	3
87	88	1
19	19	8
62	63	6
19	37	4
77	78	6
127	127	12
113	141	2
127	137	2
87	122	2
3	3	19
104	154	4
97	110	2
9	45	6
88	142	2
14	14	3
2	5	2
54	54	11
99	100	2
22	37	1
113	113	11
63	64	2
0	0	35
48	50	10
143	144	5
110	143	1
1	2	7
12	47	1
113	145	3
67	70	10
42	141	3
154	154	12
70	70	6
127	135	4
134	135	2
83	84	5
52	56	5
75	75	15
153	155	3
107	142	2
94	94	10
87	112	2
128	133	1
91	150	1
69	70	6
49	66	2
134	134	8
116	116	13
127	138	8
35	50	1
155	158	2
51	56	1
155	157	3
129	130	6
94	95	1
123	126	5
36	45	2
126	142	1
80	149	3
121	121	10
91	91	6
19	42	4
108	109	9
124	124	5
26	26	9
154	155	1
74	105	1
70	145	4
43	54	4
134	137	4
103	117	1
68	151	3
94	139	1
145	152	1
140	140	17
73	73	24
110	155	4
21	32	9
107	109	2
34	36	4
9	110	1
33	37	1
75	104	7
136	140	3
37	37	7
82	85	3
137	140	6
42	42	4
45	45	5
39	39	14
2	21	3
65	101	1
140	141	2
4	4	10
75	105	4
92	104	3
106	108	3
111	124	3
152	152	11
110	110	7
13	13	5
0	99	2
84	84	11
133	133	6
132	132	4
139	151	3
125	125	12
110	118	5
89	108	6
33	33	13
71	83	2
19	31	5
91	152	10
25	57	8
147	152	5
77	154	5
118	122	3
112	112	1
95	96	3
68	148	3
19	20	5
84	117	2
82	82	15
91	102	4
56	56	2
110	111	2
107	138	1
21	39	4
67	83	3
9	10	10
4	42	7
80	100	3
55	158	1
2	10	7
133	158	1
38	38	10
120	120	6
113	123	6
66	72	2
7	8	5
106	107	8
119	142	4
24	24	5
42	46	3
93	93	16
33	36	8
11	11	5
25	30	2
49	122	3
39	49	3
128	129	5
36	37	13
9	11	5
105	105	4
92	93	3
116	121	2
157	157	10
50	51	4
12	14	1
52	54	5
10	48	6
65	65	7
80	81	2
0	47	2
22	30	3
46	75	8
123	153	4
49	49	3
111	123	3
26	39	1
112	141	2
105	148	1
70	71	8
144	145	7
113	120	3
114	115	5
21	21	9
125	126	6
1	102	1
42	54	5
1	4	2
4	28	5
112	119	5
25	27	2
66	66	10
9	9	13
154	157	1
93	103	1
47	47	12
81	82	4
142	142	3
56	63	1
11	12	5
131	134	6
8	12	4
35	35	7
7	7	8
6	7	1
91	93	2
90	91	6
108	115	1
130	133	2
89	154	4
95	95	6
13	31	2
96	148	1
21	22	7
106	106	10
24	83	2
13	19	2
136	137	5
28	28	3
105	115	1
94	138	2
2	3	2
9	49	4
15	53	3
108	108	21
23	24	13
3	20	5
70	149	1
111	133	2
88	88	11
119	147	4
105	152	3
120	121	7
148	149	2
137	137	9
69	146	5
52	52	4
149	149	6
109	111	1
73	80	2
134	138	2
43	46	2
103	103	4
23	23	16
49	50	2
69	69	8
132	149	3
138	140	4
13	15	4
95	107	3
135	137	5
4	27	2
143	145	1
3	4	8
96	145	2
117	154	4
70	85	3
78	142	2
103	154	2
8	9	3
158	158	4
141	141	3
19	22	1
32	32	6
19	26	2
86	87	2
138	141	2
14	15	3
113	114	5
68	70	4
113	143	1
83	117	1
155	155	5
104	105	5
81	105	3
4	29	1
114	122	3
84	85	4
82	149	6
138	139	3
12	12	7
126	141	2
48	157	1
12	13	2
38	43	4
87	87	3
91	92	4
150	150	6
132	133	2
111	154	2
113	136	1
37	38	6
99	151	1
38	39	4
91	104	2
91	103	1
90	95	1
15	28	5
78	79	10
141	146	4
88	90	1
134	141	3
115	136	3
27	27	6
65	138	2
127	134	4
13	27	2
71	71	3
8	46	2
42	47	1
23	38	5
9	48	2
21	27	3
149	153	2
48	53	6
1	1	8
98	121	1
154	158	1
65	100	4
114	114	4
51	51	10
99	134	5
132	134	1
78	89	1
16	17	2
75	107	2
62	62	2
79	106	1
35	37	5
41	42	2
41	48	1
87	111	3
118	142	2
79	80	2
122	123	7
104	116	1
116	123	4
132	157	3
96	96	7
30	31	1
148	151	4
148	154	1
147	147	4
78	81	4
95	102	2
97	98	1
90	142	1
89	153	3
116	117	2
34	35	5
39	41	2
118	118	1
83	106	1
106	142	2
95	97	1
3	31	2
135	136	2
75	157	2
91	148	1
104	104	15
5	30	1
38	52	3
43	126	3
46	47	2
52	135	2
76	77	1
153	153	4
22	52	2
106	154	2
153	158	2
84	86	3
8	15	2
7	42	1
156	156	3
119	120	5
42	86	1
122	146	1
4	30	3
116	130	1
51	53	2
62	124	1
12	44	1
3	29	2
144	146	3
55	56	1
71	127	2
49	157	1
89	110	3
56	64	1
67	72	2
70	72	3
4	14	3
67	68	2
68	69	3
108	113	4
3	51	2
89	91	2
67	146	3
11	28	3
145	145	7
28	30	2
3	42	2
156	158	1
7	9	2
53	56	1
48	71	2
1	3	3
14	20	3
13	28	4
6	65	3
85	154	2
46	158	2
119	140	1
31	39	1
67	69	4
16	27	1
112	113	2
94	146	1
106	155	1
92	92	9
90	115	3
14	37	2
17	18	1
101	158	2
21	25	2
28	29	3
35	36	2
54	57	1
61	61	3
90	123	2
115	122	2
120	123	2
53	70	2
81	107	1
145	146	2
69	79	2
7	18	1
86	154	1
96	97	2
1	5	1
67	67	3
21	38	2
43	69	1
89	111	2
90	105	4
6	43	1
82	106	1
79	89	3
2	37	1
13	130	2
88	89	3
65	130	2
51	57	1
78	85	1
109	110	3
13	20	3
81	148	2
89	89	1
127	130	3
4	31	1
0	21	2
18	20	1
86	119	2
54	55	4
63	63	3
102	134	1
77	104	3
4	19	2
40	42	2
119	146	1
79	86	1
5	51	1
0	14	1
0	138	1
104	106	3
68	72	2
4	32	3
35	51	2
67	71	2
13	14	5
118	141	1
115	137	2
79	117	2
106	109	1
120	150	1
120	125	3
36	38	2
12	54	2
35	41	1
4	5	1
48	49	4
82	83	1
119	123	1
79	121	1
103	104	1
25	28	1
115	135	1
40	49	1
79	149	2
29	39	1
110	112	2
75	106	1
9	97	1
48	141	2
122	147	3
38	40	2
9	15	1
55	70	1
108	112	1
15	55	1
152	155	2
128	158	1
129	132	1
95	137	2
135	141	1
73	120	1
16	21	2
77	82	1
125	127	1
5	31	1
27	28	2
12	27	1
143	143	1
1	101	1
3	38	1
155	156	1
14	16	3
34	37	1
65	66	1
55	134	1
71	149	1
126	127	2
118	119	4
71	72	1
38	47	1
70	139	3
54	85	1
84	144	1
9	46	1
13	32	3
65	158	1
64	64	1
118	120	1
114	118	1
43	44	1
111	112	1
124	126	1
115	120	1
10	11	1
94	98	1
14	19	1
68	81	1
85	90	1
20	20	1
92	153	2
90	145	1
116	131	1
91	116	1
16	28	1
42	45	1
93	127	1
85	87	1
69	83	1
75	135	1
89	90	1
3	27	1
92	94	1
122	144	1
115	115	1
83	89	1
8	10	2
90	112	1
3	14	1
67	141	1
39	148	1
21	41	1
