53	53	18
90	91	3
96	96	7
50	50	7
63	63	8
88	88	11
143	148	1
134	134	9
139	140	1
106	106	18
112	114	2
130	131	1
36	36	11
99	125	9
94	94	23
44	47	2
107	122	5
24	39	3
116	119	2
93	94	3
68	68	9
134	136	5
40	40	12
63	64	4
132	132	6
157	158	5
116	116	18
162	162	7
17	18	4
4	4	15
67	67	14
25	53	2
65	65	9
155	156	8
127	127	13
52	52	5
167	167	16
164	164	5
156	156	7
17	17	7
93	93	18
69	70	7
72	97	1
18	40	3
137	137	3
82	85	2
170	170	6
47	47	10
12	16	3
108	124	3
2	2	13
72	72	18
25	25	21
92	93	3
103	104	15
114	131	1
165	165	8
7	7	11
57	57	7
109	111	1
63	66	2
122	122	11
96	98	6
37	38	6
131	132	2
84	91	3
23	23	9
46	47	4
64	100	1
128	128	5
40	49	1
41	41	16
155	155	8
129	136	3
91	95	1
0	9	2
78	79	2
39	40	14
82	82	16
110	110	14
143	143	10
26	26	7
5	5	16
3	111	6
1	1	3
46	50	1
64	89	1
84	84	19
146	147	6
47	54	6
9	9	7
37	42	6
67	68	4
3	3	13
41	64	3
142	142	9
48	48	14
74	114	2
144	144	6
81	81	10
81	111	1
62	62	6
109	110	6
73	91	1
39	39	9
21	24	2
49	49	3
33	40	7
11	12	6
27	97	1
120	130	1
149	149	12
12	13	1
24	24	17
73	73	18
16	52	3
145	146	2
69	113	4
64	66	4
26	27	4
147	147	11
49	51	9
135	135	12
21	21	11
67	105	2
157	157	10
160	160	8
7	10	5
14	23	3
169	170	2
20	20	10
3	24	4
123	123	8
75	103	2
142	143	7
54	54	13
22	23	5
7	8	4
76	78	4
97	123	5
99	99	8
125	125	7
98	124	3
18	18	16
138	140	3
66	66	1
10	10	3
18	39	4
5	117	2
18	78	3
115	115	11
67	109	7
14	21	2
35	35	19
105	106	8
27	103	1
74	74	5
56	56	6
109	168	4
44	44	8
11	110	2
83	84	2
138	138	7
106	113	1
104	110	1
84	85	8
121	121	2
6	10	1
91	92	12
62	63	5
91	91	12
70	79	1
79	79	3
75	75	16
52	53	5
77	77	14
94	95	15
98	98	11
66	67	16
117	117	2
26	111	1
97	97	6
105	105	6
18	20	3
49	89	2
64	64	7
102	103	3
41	42	2
159	159	12
20	114	1
47	49	4
116	118	2
87	87	15
150	150	6
136	136	4
80	80	15
95	96	9
163	163	7
161	161	18
145	145	12
6	16	1
102	102	7
20	57	1
15	41	2
139	139	8
7	9	2
129	129	12
82	135	1
83	83	13
15	52	4
149	151	3
115	163	4
12	12	11
108	109	6
124	124	4
68	105	1
162	165	1
111	111	11
37	37	7
22	22	9
11	16	2
55	56	2
55	55	12
51	55	7
71	86	1
43	43	8
104	104	5
131	134	2
86	89	1
17	44	1
51	51	8
85	85	22
153	154	2
57	113	1
19	106	1
140	140	10
27	27	9
13	13	8
134	135	2
64	73	1
147	151	1
168	168	6
107	109	1
36	37	4
69	69	7
90	90	10
169	169	11
128	129	4
34	34	12
107	107	11
129	148	1
38	38	12
159	160	4
64	105	2
97	98	5
76	77	5
113	113	16
102	104	6
38	41	2
154	154	8
154	163	2
44	45	13
19	19	17
11	107	2
89	114	3
71	71	8
18	26	2
50	51	5
114	116	5
70	70	3
4	74	2
151	153	1
114	114	8
76	94	2
152	152	2
48	49	5
5	6	7
11	24	1
81	134	2
142	144	1
16	17	3
62	91	4
38	106	3
67	69	1
12	14	2
6	8	1
38	39	5
150	151	4
73	78	3
143	165	1
70	71	4
79	169	2
26	78	6
92	94	3
57	62	4
46	46	12
129	167	5
126	126	5
11	15	2
98	99	4
125	131	3
116	141	2
146	146	8
17	78	1
0	0	10
57	63	3
109	109	13
125	132	6
135	136	9
14	15	10
19	112	1
19	49	5
130	130	5
154	158	2
0	1	4
26	28	1
166	166	8
3	64	1
74	75	6
151	151	7
14	14	8
88	89	5
112	112	5
22	24	2
6	6	5
33	166	5
140	141	2
50	69	2
87	89	1
100	130	5
8	13	1
119	119	8
137	138	2
133	133	4
69	157	4
78	164	1
95	95	3
100	100	8
4	6	3
92	92	5
21	48	5
54	56	2
100	101	4
108	108	12
158	170	2
57	58	2
10	11	2
141	141	4
107	108	1
76	105	1
72	86	4
139	143	1
62	97	2
11	11	2
144	147	1
158	159	3
40	45	4
162	163	2
129	130	3
12	22	1
1	2	3
84	142	2
131	131	10
66	105	2
80	170	1
101	101	4
86	86	6
45	45	15
42	42	9
74	77	1
110	111	6
9	57	1
13	16	1
19	46	1
142	163	2
20	38	5
74	97	1
72	73	2
105	130	4
19	23	3
91	121	2
122	125	3
93	118	1
33	33	4
54	64	1
105	136	1
80	82	1
7	45	2
103	103	2
51	52	1
161	162	4
10	23	1
160	162	2
0	11	4
53	54	1
127	130	1
16	16	6
83	166	2
108	121	4
81	82	2
97	115	1
83	128	1
21	57	1
27	55	3
158	158	1
132	133	2
149	168	1
13	14	6
84	90	2
1	11	2
23	58	4
90	92	1
161	163	4
18	19	8
42	43	2
72	74	1
20	21	7
150	160	3
37	110	1
6	74	1
126	127	1
9	10	3
65	87	2
39	41	1
130	167	2
120	165	3
90	94	1
67	104	2
46	51	1
85	86	1
122	133	2
145	148	1
66	87	1
49	72	1
72	134	1
120	121	2
17	24	3
100	125	2
45	55	2
10	21	1
122	132	1
153	153	5
143	144	1
80	99	4
21	23	2
53	55	1
88	133	2
58	63	2
17	40	1
144	148	2
95	99	3
150	153	2
1	10	1
86	115	4
168	169	1
8	8	4
82	91	1
44	46	1
58	58	4
73	114	1
115	124	3
28	52	1
3	18	1
88	93	1
97	124	1
82	83	2
116	124	2
120	120	2
119	121	2
41	45	2
7	15	2
50	70	1
25	44	1
45	63	1
50	52	1
90	135	1
69	104	1
90	121	1
63	68	1
83	90	2
9	12	4
160	164	5
95	124	4
51	64	2
136	137	3
4	5	1
69	83	1
40	47	1
68	69	2
104	105	2
127	132	1
34	167	1
25	43	2
97	121	1
5	166	2
71	77	1
35	38	2
13	15	2
19	113	1
48	51	1
147	149	2
158	160	1
15	17	1
147	148	3
13	20	1
15	15	3
127	129	1
127	128	2
144	146	3
7	13	3
69	126	1
19	114	2
6	44	1
155	159	2
49	50	2
61	122	1
121	134	2
73	97	2
150	155	1
46	90	3
22	57	1
167	169	2
120	131	1
82	127	2
122	123	1
142	169	1
99	124	2
76	76	3
20	52	2
147	166	2
150	163	1
156	157	1
74	76	1
136	138	3
143	158	1
144	145	3
70	97	1
53	111	3
28	28	1
115	116	4
123	124	2
86	136	4
124	125	1
82	134	1
9	47	1
45	89	1
8	48	1
69	97	2
140	144	2
112	136	3
107	133	1
89	89	2
45	64	1
27	114	1
17	45	1
154	155	1
152	158	1
101	130	1
112	119	1
122	124	1
101	102	1
16	41	1
23	57	1
34	38	2
118	119	1
102	126	2
126	133	1
27	36	1
126	134	1
46	57	2
23	51	2
3	109	1
70	77	1
74	102	1
144	154	1
129	135	1
65	66	1
113	116	1
148	148	1
85	110	1
48	70	1
71	72	1
80	81	2
22	46	1
141	143	2
21	39	2
2	67	1
8	9	5
62	123	1
87	88	1
34	35	2
55	57	2
95	116	1
138	139	2
7	17	1
71	73	1
88	137	2
166	167	1
114	120	1
99	123	1
122	126	1
124	130	2
36	111	1
90	96	1
12	15	1
74	124	1
14	52	1
13	58	1
149	158	1
81	168	1
117	162	1
7	90	1
19	58	1
47	51	1
37	106	1
118	118	1
20	56	1
4	10	1
51	57	1
18	23	1
57	97	1
77	111	1
142	150	1
80	93	1
51	69	1
145	165	1
151	152	1
141	142	1
16	22	1
21	56	1
21	22	1
116	163	1
72	88	1
118	165	1
38	40	1
14	41	1
128	130	1
139	142	1
148	154	1
