74	75	6
33	33	16
32	37	2
95	95	7
55	55	2
35	120	2
120	134	3
27	46	6
85	86	14
66	66	7
21	125	5
127	127	1
9	9	12
15	16	6
10	10	11
20	46	2
27	117	1
86	86	10
35	35	21
109	109	7
21	21	5
82	83	2
58	58	4
62	62	15
98	98	6
103	103	6
23	74	2
16	16	3
108	111	4
44	72	3
4	20	4
48	56	3
130	131	3
85	85	4
64	64	17
26	26	12
101	101	6
10	14	2
19	19	3
30	30	7
125	125	2
63	63	7
74	74	9
59	59	18
75	117	4
4	96	2
99	101	1
29	29	18
80	116	2
23	26	2
8	8	20
4	4	11
11	11	18
64	67	1
75	82	3
38	81	4
11	19	3
113	115	3
109	110	7
57	58	4
12	12	4
46	46	17
127	128	5
124	126	1
22	28	2
128	128	2
30	79	3
15	15	7
91	97	1
34	34	10
33	128	3
93	93	15
81	127	2
113	113	3
107	113	1
25	48	1
100	100	9
9	11	1
34	35	14
2	2	4
37	37	3
12	33	4
83	83	13
88	93	1
26	93	1
115	130	7
96	96	2
47	47	27
79	79	6
76	76	7
9	10	11
94	95	3
41	43	3
121	122	1
44	44	4
76	77	4
1	1	6
61	62	3
50	50	4
12	15	3
6	7	4
129	133	3
68	68	7
82	84	2
90	96	1
82	82	8
75	76	12
130	133	5
68	69	1
60	60	16
12	13	4
47	61	1
20	21	5
45	45	9
114	115	1
71	72	6
11	93	3
77	77	6
65	66	7
80	81	5
72	72	4
109	121	1
37	42	3
4	94	6
104	104	5
73	73	15
55	56	3
13	110	2
62	71	9
6	6	3
131	131	3
65	65	22
4	5	2
25	95	5
62	64	1
111	111	7
99	100	3
88	88	7
78	78	3
92	92	3
104	105	2
85	89	3
13	73	4
117	117	2
6	8	1
25	78	3
89	89	2
47	57	4
11	12	3
34	131	1
122	122	2
46	47	3
80	80	6
111	131	3
21	22	3
11	26	1
82	120	4
71	77	2
110	110	4
47	95	1
61	61	7
22	22	7
57	101	2
7	91	1
99	99	5
97	97	5
10	27	3
126	126	6
66	83	1
79	80	1
112	112	2
131	132	1
7	26	1
37	38	1
41	41	1
33	34	3
106	108	2
129	129	5
84	85	1
106	106	1
11	16	1
33	36	3
96	101	3
29	32	3
2	3	3
81	81	3
45	73	1
57	57	10
80	82	1
30	31	3
36	36	11
42	42	12
84	84	3
125	126	3
89	91	3
47	85	4
76	79	1
9	12	1
108	108	4
14	14	2
75	75	8
38	40	1
0	1	3
63	64	1
63	74	1
75	94	3
85	88	4
28	28	4
5	6	8
120	121	3
33	75	2
132	132	3
91	91	3
118	118	4
94	105	3
32	32	5
81	82	5
13	17	3
55	93	1
56	56	5
77	86	1
92	96	1
87	91	1
25	25	8
35	36	2
121	121	1
67	68	4
97	98	3
90	98	3
94	94	1
67	67	5
118	120	2
60	97	1
48	48	2
82	86	2
71	71	4
66	67	2
13	14	2
100	101	2
12	110	1
7	7	8
33	35	2
51	55	1
119	119	3
90	90	5
48	62	1
33	79	2
37	39	1
124	125	1
40	82	2
102	102	1
1	17	3
38	38	2
23	23	2
3	3	4
87	87	2
78	86	1
124	124	4
25	77	2
8	9	4
93	96	2
131	134	3
97	99	4
10	32	1
31	31	3
77	79	3
134	134	4
65	88	2
32	128	1
17	17	4
49	49	1
20	20	2
18	18	5
13	13	5
77	78	3
3	94	2
39	40	6
120	120	5
7	95	1
70	71	3
68	87	1
27	48	1
40	43	1
26	47	1
38	39	3
123	123	3
61	102	1
115	116	1
123	127	2
44	83	3
25	26	1
39	46	2
32	35	1
79	115	2
60	79	1
27	28	1
69	69	3
35	78	1
47	65	2
98	99	1
23	24	2
10	67	1
69	71	1
61	80	1
90	95	1
26	35	1
116	116	1
42	44	1
12	16	1
104	110	1
76	117	2
92	93	2
27	47	1
49	56	2
90	91	3
29	79	1
27	92	2
27	27	2
62	74	1
93	94	2
25	47	2
117	118	2
81	83	1
83	84	2
74	101	2
126	127	2
117	119	1
95	96	1
69	70	1
116	123	3
41	82	2
12	18	2
123	128	1
66	72	2
130	130	2
127	130	1
30	81	1
26	27	1
8	10	1
78	115	1
25	82	1
39	39	3
6	26	2
45	71	1
102	126	1
22	36	1
54	55	1
9	27	1
67	69	1
55	99	1
5	48	1
102	105	1
119	120	1
111	113	1
2	96	1
32	47	1
33	74	1
92	100	1
8	93	1
48	93	1
24	117	1
73	74	1
115	115	1
112	119	1
42	84	1
