114	114	11
32	33	4
11	11	2
22	23	4
103	103	8
76	76	4
126	126	6
124	125	3
10	11	3
102	102	8
110	110	5
85	91	1
115	115	1
69	70	2
122	122	8
30	30	1
79	79	9
2	2	7
93	93	10
95	95	4
121	121	5
50	50	9
58	58	1
57	65	2
109	110	1
55	55	3
26	26	3
68	80	1
111	111	2
31	31	9
100	100	6
9	11	3
62	62	2
75	75	7
59	59	7
108	113	4
68	68	5
57	57	7
91	91	5
31	32	1
32	32	2
108	111	3
125	125	4
11	14	1
44	45	3
116	117	5
104	104	9
127	127	13
10	10	5
8	9	2
125	131	1
83	83	2
112	114	5
77	77	4
6	7	2
33	34	3
8	8	3
72	72	4
52	116	2
128	135	2
65	65	2
21	22	2
3	3	3
116	116	9
1	106	2
24	25	3
69	69	3
3	4	2
1	1	5
34	35	3
105	105	2
81	88	1
129	129	2
63	63	2
24	24	1
20	25	1
120	120	6
103	104	2
108	109	2
78	113	2
89	89	3
4	4	3
67	67	1
99	99	5
132	132	2
101	101	1
43	43	2
25	25	3
131	133	3
18	22	1
56	56	3
56	65	3
55	56	2
85	85	4
130	130	2
35	35	2
118	124	2
132	133	1
69	71	1
15	15	3
95	96	4
82	117	1
48	73	2
106	106	1
98	98	3
70	70	5
45	47	3
56	67	2
66	66	2
49	64	3
128	128	5
112	112	8
23	23	3
53	53	2
133	133	2
131	132	2
28	28	2
14	14	1
71	71	4
5	6	2
50	54	4
86	113	2
119	119	4
92	92	1
70	71	2
106	107	4
14	15	1
28	29	2
16	17	1
19	36	1
69	118	1
84	86	1
109	111	2
92	103	2
51	80	1
30	120	1
128	134	4
70	106	1
89	90	1
127	128	2
109	109	1
90	90	1
104	105	1
119	121	1
128	129	1
50	66	1
19	19	1
105	106	1
84	117	2
58	66	1
25	74	1
91	93	1
130	132	1
2	3	2
26	27	3
25	26	1
44	88	2
22	27	1
89	92	1
82	91	1
73	73	2
56	58	1
50	86	1
98	99	2
78	112	1
13	13	1
107	114	1
123	123	1
124	124	2
7	8	2
54	107	1
71	72	1
91	99	1
78	87	1
110	113	1
34	34	1
74	74	1
11	12	1
56	117	1
