6	6	19
152	152	14
137	137	11
15	73	4
146	147	4
169	169	14
37	38	13
120	120	15
165	165	32
0	168	6
26	26	21
99	99	12
31	31	14
130	130	7
132	132	27
38	38	13
179	179	15
30	30	16
194	194	22
50	50	10
64	64	9
154	154	47
174	175	16
105	106	20
87	87	21
15	16	10
190	192	5
184	184	23
181	183	5
105	105	16
186	186	19
116	116	16
84	84	9
36	36	19
181	182	6
141	141	19
7	16	2
171	171	12
65	65	3
192	192	25
45	113	9
161	161	24
49	51	1
186	187	6
119	119	14
160	160	34
143	144	22
186	188	4
79	86	1
113	113	18
141	142	13
155	155	34
78	78	15
22	23	4
56	56	4
167	167	28
185	185	19
24	24	25
149	184	3
197	197	8
59	62	8
79	80	7
163	164	5
180	180	26
148	152	4
7	9	3
65	111	3
4	4	23
77	78	11
134	135	5
176	177	12
67	67	13
136	136	23
58	70	5
183	183	23
28	30	5
195	195	18
167	169	3
22	22	9
25	37	1
59	72	5
128	128	13
8	8	24
132	133	13
103	103	17
182	182	25
158	158	17
147	147	23
1	2	19
35	35	8
28	28	2
19	19	20
146	146	25
190	190	25
143	143	29
191	191	10
34	35	7
122	122	18
172	172	29
63	80	1
123	124	9
130	131	5
161	162	8
149	149	30
141	149	2
7	7	10
165	166	20
129	129	19
150	150	20
52	121	1
74	74	7
188	188	12
49	49	12
180	181	11
189	193	1
40	40	9
108	108	13
170	170	11
66	66	6
60	74	1
126	126	15
2	2	5
177	177	12
108	115	2
148	190	3
94	94	11
22	28	4
187	187	22
183	197	3
129	132	2
131	131	9
151	151	28
54	54	9
110	110	5
148	148	16
75	75	3
181	181	19
175	192	2
142	143	4
111	120	1
27	27	21
155	158	2
60	61	5
157	157	10
88	90	2
173	173	8
37	37	7
109	109	13
52	52	27
51	52	1
148	179	3
127	127	19
156	157	12
79	79	10
134	136	2
147	148	5
13	47	1
173	174	6
54	55	11
9	53	5
107	118	4
26	27	6
5	6	9
196	196	18
181	190	2
43	43	11
21	21	10
22	25	7
116	117	5
135	176	6
138	141	2
20	20	11
110	111	5
188	194	3
120	121	8
45	45	16
9	9	14
95	96	5
31	55	2
53	53	12
11	46	6
52	53	11
162	172	1
153	190	1
50	51	4
24	25	9
123	123	9
15	15	11
163	163	9
18	19	3
188	195	2
142	180	6
71	71	13
138	138	10
80	80	7
51	51	20
149	150	9
61	73	2
188	190	3
107	107	12
102	102	7
117	118	2
160	161	9
42	42	18
144	155	2
69	69	10
118	119	3
132	147	3
57	57	18
171	172	11
81	81	7
25	25	27
115	117	1
140	140	24
175	175	12
139	145	2
125	125	12
191	193	4
73	74	3
176	176	13
32	32	7
170	183	3
83	83	11
57	58	9
134	134	13
0	75	3
8	21	2
168	168	20
0	1	2
155	157	3
107	108	6
190	191	6
23	72	1
2	3	5
103	104	6
146	148	2
134	137	6
150	156	2
10	11	5
61	77	2
133	134	3
115	115	13
23	27	1
133	133	19
0	2	2
85	99	4
10	10	4
23	29	1
23	23	7
114	114	9
159	159	19
161	164	1
135	135	19
180	182	2
106	106	14
88	88	3
15	48	1
178	178	11
179	180	10
41	41	7
112	112	22
164	164	15
58	58	13
157	164	2
125	196	3
9	41	2
16	16	8
139	139	10
182	183	1
27	28	9
194	195	8
89	89	10
135	137	2
142	144	4
48	49	3
34	34	9
13	13	12
148	178	5
25	34	3
15	194	1
144	144	16
86	87	1
114	197	3
126	138	1
34	37	1
81	82	3
100	100	12
165	188	2
71	78	2
47	47	10
143	153	4
21	167	3
63	64	4
57	69	4
159	161	2
105	118	2
179	182	1
19	71	1
100	106	2
18	18	14
72	72	6
48	48	19
168	169	9
49	50	4
78	86	4
193	193	17
86	86	11
55	55	9
29	31	1
7	8	5
170	171	8
59	59	10
188	189	4
19	20	7
3	3	18
68	68	12
89	90	2
151	155	3
109	119	1
97	97	10
189	189	21
28	29	7
162	162	2
157	158	11
185	186	7
34	84	5
2	86	2
158	159	7
23	58	3
135	136	8
23	24	2
58	66	3
39	39	5
80	81	2
12	12	13
104	160	1
62	62	12
38	39	10
46	46	9
130	132	5
17	18	6
146	153	2
191	192	2
107	116	1
179	181	7
40	83	4
167	178	2
184	185	4
151	152	5
33	117	1
17	19	6
152	153	14
134	158	6
63	72	5
4	5	9
5	5	5
173	176	9
41	139	2
170	172	2
149	170	1
101	102	3
82	82	4
44	44	11
11	12	4
158	161	2
172	178	1
39	40	2
8	26	3
31	32	6
68	83	2
96	96	5
14	14	10
44	105	3
65	66	3
153	153	16
148	177	3
5	7	2
187	189	5
10	42	5
104	104	9
192	193	17
113	115	2
166	167	5
164	166	11
151	153	5
109	110	6
1	86	2
155	156	6
86	102	1
39	84	2
121	121	19
125	126	5
109	113	2
176	188	1
139	140	13
141	144	2
20	61	2
15	17	1
169	170	6
196	197	6
111	118	3
166	166	7
59	63	4
32	33	8
94	95	7
164	165	2
101	101	11
142	142	11
73	78	2
160	162	3
67	68	3
70	70	3
165	167	2
108	109	1
17	17	8
28	36	3
34	67	3
27	35	3
162	163	5
7	23	3
90	108	2
177	184	1
9	21	1
86	88	5
4	169	3
159	162	2
72	73	4
117	117	8
59	75	5
101	105	2
154	155	6
137	138	5
158	160	2
34	81	1
11	47	3
112	120	6
110	112	1
60	87	3
145	146	2
93	94	4
30	54	3
176	178	1
6	7	1
8	45	2
73	73	9
136	140	1
23	71	2
54	56	3
148	149	7
85	85	6
40	168	6
183	185	1
113	114	2
1	1	5
95	95	1
11	11	9
162	164	6
146	154	3
56	57	1
156	156	4
111	111	6
33	33	7
37	83	3
63	63	4
35	83	1
21	22	4
138	139	3
0	0	2
140	144	1
58	62	3
5	169	3
54	71	2
124	124	8
116	118	1
2	39	3
24	53	2
144	145	3
175	176	2
178	181	1
55	57	1
85	86	2
154	158	1
53	55	8
124	125	2
147	152	1
189	190	2
22	27	4
16	17	2
76	76	8
174	174	5
49	123	2
83	85	3
130	135	1
142	150	2
99	100	4
0	22	1
170	187	1
30	31	1
43	44	5
152	154	2
181	194	3
31	33	3
152	189	2
44	45	1
115	118	2
167	172	3
58	63	2
187	188	3
77	77	2
93	93	2
171	188	1
1	25	2
9	24	1
75	76	4
70	71	1
137	139	3
108	116	2
1	7	2
87	88	3
3	7	2
104	105	4
104	106	5
172	173	1
145	145	4
135	156	2
59	60	2
134	177	2
193	194	2
26	34	2
99	108	3
177	187	1
96	97	2
40	41	7
153	154	3
46	47	4
37	69	1
67	70	1
146	155	3
39	41	2
132	137	2
55	56	7
19	25	2
1	30	2
122	124	1
175	177	1
25	38	2
108	118	1
16	42	2
63	79	4
7	39	1
12	47	1
128	129	2
47	48	3
25	35	1
151	190	2
150	171	1
2	38	4
119	120	1
1	9	2
141	143	1
4	17	1
103	105	2
29	38	2
167	180	1
137	152	4
59	65	2
136	137	2
6	40	3
41	167	3
129	130	2
78	79	3
134	166	3
150	151	2
58	123	2
109	112	4
118	118	6
98	98	4
49	52	1
1	3	1
186	194	1
17	21	1
83	84	1
14	15	1
126	127	1
184	186	1
110	117	1
106	118	2
42	43	4
17	28	1
145	177	1
181	191	2
147	149	2
29	29	4
140	184	1
156	163	1
9	46	2
62	63	3
128	149	2
156	160	1
164	178	1
147	153	2
25	26	3
45	46	2
121	122	1
166	168	1
5	15	1
168	174	2
174	180	1
119	121	1
140	141	7
131	132	2
111	119	2
5	40	1
0	24	1
102	105	1
98	99	4
61	62	4
109	115	2
28	53	1
139	142	1
8	46	1
82	83	1
113	126	1
139	146	3
94	97	2
154	167	1
103	106	1
110	120	2
143	148	1
123	145	1
5	41	1
45	47	1
53	57	3
65	73	2
0	59	1
13	14	3
6	156	2
171	197	1
1	167	1
2	61	1
106	107	1
33	56	1
120	122	1
167	177	1
152	173	1
114	115	3
156	161	1
112	113	1
3	4	1
145	159	1
177	179	1
183	184	2
61	65	3
148	157	2
161	163	1
117	119	1
43	46	1
160	169	2
9	10	1
33	81	1
102	106	1
178	193	2
29	30	1
162	165	1
41	43	1
64	73	1
111	121	1
101	104	1
179	190	2
8	17	1
74	76	1
166	189	1
171	187	1
165	178	1
76	77	1
178	179	1
5	39	1
63	77	1
21	27	1
33	82	1
137	154	1
171	186	1
18	26	1
134	147	2
1	54	1
35	36	1
139	141	1
160	164	1
4	15	1
147	157	1
128	133	1
