142	142	6
175	176	4
148	148	15
78	78	8
26	26	15
10	10	26
27	28	16
21	41	1
40	51	3
25	26	16
106	106	6
172	172	19
164	164	11
7	7	19
50	51	7
10	11	2
78	79	7
179	179	8
116	116	10
42	42	11
120	120	4
160	160	10
38	38	14
74	74	20
58	58	3
127	128	10
38	39	2
4	15	6
98	99	4
13	13	20
19	19	13
84	84	7
39	39	8
26	29	1
89	89	9
127	127	8
122	122	4
145	146	5
6	74	1
14	25	1
40	40	11
2	2	17
63	100	3
113	114	12
95	95	11
159	166	1
164	167	10
110	112	4
1	76	3
9	9	14
51	51	8
18	20	3
14	15	4
140	140	16
32	32	12
119	119	21
81	81	15
17	17	28
118	118	11
14	14	28
1	14	4
73	74	3
7	38	4
90	92	4
23	24	9
158	158	9
142	143	4
159	162	2
66	103	4
152	152	6
50	50	10
117	122	4
130	151	2
92	92	5
63	63	10
28	31	5
2	4	6
154	160	8
18	18	13
5	8	3
62	63	5
29	30	4
8	9	5
128	134	3
110	156	2
175	175	4
174	175	3
60	60	10
134	136	2
178	178	4
133	133	10
5	5	20
28	29	7
117	124	3
29	29	27
70	70	8
169	169	9
91	97	3
20	31	3
114	116	3
137	148	3
86	88	3
22	22	23
143	143	4
3	8	7
35	99	4
101	111	5
176	176	13
41	64	3
90	90	13
7	9	3
142	145	4
100	101	8
53	53	5
41	41	12
54	54	10
130	130	6
9	12	3
41	43	2
15	16	9
138	138	12
23	107	1
167	167	11
10	42	2
11	11	14
114	154	1
151	151	10
20	20	6
103	104	2
28	71	1
124	125	1
141	173	2
137	175	2
23	26	2
3	4	17
143	145	6
60	86	1
18	19	3
115	115	11
11	30	2
79	79	8
17	18	3
166	166	10
15	15	11
162	162	9
8	12	4
71	95	1
154	156	7
8	8	13
133	138	2
8	11	3
44	44	19
133	134	5
52	52	6
107	107	5
33	33	15
6	6	16
43	43	13
105	105	12
135	135	8
4	12	4
22	23	8
126	127	3
35	35	16
66	101	3
128	128	12
28	28	18
83	85	4
109	115	1
52	59	4
161	161	9
56	56	5
1	33	3
37	37	15
103	103	11
168	168	11
64	64	8
92	94	2
171	175	1
77	77	8
139	139	10
66	100	1
12	12	8
131	131	15
39	40	11
63	89	1
97	97	13
16	66	1
165	165	21
43	44	6
159	159	11
31	72	1
130	141	3
146	146	11
138	148	4
24	24	19
88	175	2
123	124	4
126	126	10
147	147	18
93	94	6
83	83	9
44	64	1
51	53	1
169	170	6
1	1	10
65	65	12
63	66	3
135	136	7
117	117	10
45	72	3
6	7	11
123	123	3
30	30	11
170	170	9
3	3	11
31	31	18
58	90	1
2	80	3
136	136	8
39	41	3
34	34	5
116	117	6
74	84	6
1	35	1
36	38	1
145	145	13
129	129	8
57	57	2
173	173	8
148	149	4
33	39	2
158	159	1
111	111	7
94	94	1
98	100	4
109	109	8
119	145	1
97	98	4
4	4	24
155	155	7
95	96	4
82	82	10
149	149	11
128	129	5
104	105	8
172	173	6
18	65	2
137	137	18
54	132	3
93	93	9
173	176	1
17	23	4
0	1	6
164	166	3
124	176	1
28	30	3
31	33	1
4	10	3
127	174	1
66	67	4
32	33	2
45	82	3
61	63	4
27	45	3
157	157	8
7	12	2
17	19	4
5	75	2
33	34	1
36	36	10
96	97	1
154	154	8
143	157	2
23	23	8
84	85	8
174	174	7
161	162	9
5	7	1
21	21	9
52	53	5
62	62	9
76	76	22
5	11	2
91	93	5
147	148	1
121	121	4
141	141	10
137	138	1
86	89	4
56	180	2
106	107	5
4	7	5
7	8	1
27	27	8
6	75	2
72	72	8
27	32	3
170	175	5
67	67	16
132	134	3
84	86	5
124	124	4
75	76	6
86	86	6
163	165	4
134	134	10
99	99	6
102	102	5
24	31	1
34	35	2
0	0	4
102	104	3
136	174	5
171	176	1
5	13	2
151	153	3
121	147	1
55	55	3
76	86	1
37	126	2
41	131	3
40	41	3
113	146	1
162	167	2
109	110	4
30	31	8
105	109	1
45	45	8
51	115	3
19	42	2
171	172	4
160	168	2
177	177	5
122	124	2
163	163	4
2	3	8
168	176	5
67	73	1
120	147	2
88	107	2
61	61	2
150	151	4
89	93	1
102	106	1
122	126	3
128	143	1
21	123	3
135	138	2
37	38	13
67	96	1
75	75	8
53	54	2
104	104	6
16	18	3
132	132	4
124	152	1
11	12	6
68	68	4
88	89	5
44	45	3
150	150	11
55	56	5
44	62	3
131	172	7
3	15	1
101	101	10
11	15	3
92	97	2
73	73	2
91	94	5
71	71	3
35	36	2
129	130	2
90	94	1
7	10	1
120	121	3
137	149	1
20	50	1
122	157	2
163	167	2
93	99	1
156	156	8
88	88	1
171	171	8
114	115	3
64	65	2
37	128	1
116	149	2
136	137	2
168	173	3
153	153	6
99	100	3
138	143	3
109	119	3
11	13	1
84	97	7
19	21	7
21	25	4
122	158	1
19	22	2
116	118	4
57	58	2
59	78	2
16	43	4
119	147	1
23	28	2
61	84	1
42	43	2
91	91	6
26	30	5
50	74	1
102	119	1
5	6	7
105	106	1
173	174	2
12	27	1
12	13	6
68	74	4
124	126	2
142	170	2
109	153	2
12	31	2
118	119	1
29	31	1
20	98	2
117	155	1
59	59	8
65	66	2
127	148	1
83	112	2
18	50	1
14	20	1
102	103	3
145	148	1
108	109	5
138	147	2
24	25	8
112	112	6
66	109	5
121	156	1
71	93	2
13	22	5
21	31	3
121	122	3
133	135	3
94	96	3
86	87	1
144	171	4
21	101	1
116	146	2
108	108	3
37	98	1
123	152	3
82	83	3
18	24	4
36	91	2
107	108	2
9	32	1
2	6	2
43	71	2
6	9	2
149	157	1
8	33	3
26	32	4
54	55	2
144	144	3
41	44	1
59	61	2
11	14	5
16	20	1
103	107	1
15	17	1
12	28	2
21	22	2
29	38	7
85	97	2
25	25	2
9	31	2
160	161	2
25	27	2
105	107	3
81	82	4
34	67	1
116	157	1
18	25	1
35	98	1
180	180	4
115	116	5
91	92	2
91	169	2
119	120	1
26	31	3
126	173	2
110	166	1
56	57	1
84	113	1
152	155	2
23	25	2
68	95	1
90	169	2
143	144	4
169	174	1
130	167	2
161	164	3
87	88	3
165	166	2
167	168	2
62	84	2
10	36	3
42	135	3
29	32	2
54	77	1
125	168	1
136	143	2
155	156	2
41	42	1
26	27	1
111	146	2
73	79	1
163	166	3
4	79	1
97	99	6
119	128	3
104	107	2
21	100	2
120	143	1
122	123	1
90	101	2
1	9	1
115	156	1
113	113	3
144	145	2
64	90	1
90	91	1
131	132	1
16	16	3
125	125	5
22	41	3
39	44	1
34	96	2
66	66	3
113	154	2
15	26	1
128	147	1
117	121	1
114	157	1
67	103	2
32	71	2
4	6	2
150	153	1
131	139	1
1	2	2
11	34	2
87	87	2
68	71	2
104	106	2
14	17	1
21	23	3
114	160	3
13	14	2
83	84	1
59	180	1
121	136	1
43	93	1
94	95	3
4	9	3
120	146	2
61	62	2
87	89	2
142	172	1
12	14	4
126	174	1
1	38	1
96	96	2
21	40	1
67	108	1
12	15	2
88	170	1
95	97	1
83	86	1
160	164	2
54	60	1
9	11	2
0	3	1
16	17	4
71	94	1
63	64	2
135	137	1
117	156	1
25	33	1
159	161	1
156	157	1
65	100	1
62	66	2
16	45	1
158	161	2
75	84	1
154	158	1
98	98	2
112	144	2
100	100	1
60	68	1
64	88	1
53	61	2
103	167	1
10	34	1
126	128	2
9	10	3
122	138	1
62	67	1
115	146	1
151	156	1
22	24	1
118	126	1
145	154	1
26	28	1
15	36	1
168	169	1
33	42	1
92	93	2
60	71	1
165	167	1
130	143	2
105	152	2
22	101	1
152	157	1
4	83	2
60	72	1
101	102	1
51	114	1
89	94	2
112	114	1
13	28	1
17	21	1
74	83	1
3	20	1
151	155	1
41	51	1
80	80	1
107	163	1
13	16	1
12	83	1
2	14	1
85	85	2
39	42	2
79	80	1
110	110	1
149	156	1
1	37	1
129	144	1
44	46	1
35	41	1
3	12	1
54	73	1
130	144	1
119	130	1
160	169	1
1	78	1
80	85	1
9	35	1
2	12	1
13	33	1
155	158	1
130	171	1
118	147	1
74	79	1
159	160	1
71	72	1
125	175	1
119	126	1
49	101	1
