12	12	4
3	6	1
128	128	6
42	42	11
76	77	1
23	23	4
145	145	5
67	67	3
114	114	4
10	11	5
3	5	2
14	26	2
45	45	2
119	137	3
116	116	10
136	138	13
108	109	6
110	110	3
53	53	11
93	94	3
76	76	4
39	39	5
75	76	1
92	94	4
95	99	3
7	7	3
111	111	3
8	8	8
134	134	4
11	11	6
130	130	6
105	106	2
133	134	11
93	98	2
48	48	5
42	45	4
52	64	3
128	137	4
69	95	2
18	19	7
111	114	3
119	119	5
77	78	3
63	64	3
10	10	8
56	56	6
77	81	2
50	50	2
101	101	1
99	124	1
83	90	2
47	47	7
70	70	5
96	96	4
43	43	4
129	130	3
80	82	1
52	52	3
6	6	3
35	37	4
15	21	3
103	105	4
79	79	1
5	11	1
97	133	3
4	14	4
78	85	2
126	126	3
142	143	5
49	49	3
107	107	3
92	92	4
108	118	4
144	145	4
42	52	3
147	148	5
15	15	2
97	97	2
107	108	3
150	150	3
141	141	8
125	125	3
72	109	1
102	102	4
148	148	1
130	131	1
17	18	3
133	133	2
40	46	4
112	137	1
113	113	4
135	135	4
121	123	6
24	24	3
4	5	2
99	101	3
33	33	1
61	62	2
9	9	3
81	101	3
132	132	7
36	38	1
90	92	2
32	32	5
65	68	2
136	137	5
34	63	3
38	39	3
80	80	2
84	84	4
72	79	3
18	18	1
99	99	3
85	97	6
98	105	1
87	90	2
58	62	3
81	90	1
15	24	1
25	30	1
143	143	4
114	116	1
26	26	3
71	71	6
4	143	3
153	154	4
132	133	2
20	21	3
12	30	5
25	25	1
11	12	1
62	64	1
48	77	1
108	108	2
15	19	2
17	17	2
41	41	6
109	109	5
28	32	1
48	57	1
70	73	1
33	49	5
28	28	2
129	138	3
33	50	2
98	101	2
4	144	1
77	82	1
141	143	2
49	57	1
5	7	1
95	96	4
44	44	2
151	151	1
4	6	4
5	6	2
85	88	2
106	106	2
29	30	2
68	68	1
16	16	2
38	38	4
21	76	4
45	46	2
72	73	2
13	30	2
25	26	3
29	29	3
135	144	1
126	127	2
109	114	1
76	78	1
57	57	3
83	83	2
46	46	3
74	74	3
100	100	3
70	76	2
89	97	2
137	137	2
131	131	1
13	56	1
51	51	3
50	51	1
122	122	2
19	19	3
54	54	3
48	49	2
121	121	2
55	56	3
41	42	3
33	34	1
22	22	1
30	85	1
72	75	1
77	96	1
31	31	3
118	118	2
93	95	1
88	88	4
5	141	1
153	153	2
37	38	3
147	147	1
82	84	1
69	115	2
110	111	2
34	35	2
94	94	2
6	7	1
85	87	2
47	48	3
131	132	1
150	151	1
146	147	1
36	36	1
11	81	1
11	29	1
129	131	1
64	64	1
137	138	2
124	124	1
13	45	1
144	148	1
107	115	2
127	127	1
126	136	1
86	86	1
57	58	1
91	97	1
29	33	1
4	11	1
63	63	1
80	100	1
4	4	1
