130	133	5
95	95	16
134	134	29
124	125	9
116	116	31
119	120	3
114	114	15
85	87	3
110	110	12
36	36	26
132	132	38
13	14	17
99	99	7
7	19	2
91	91	22
35	35	33
78	78	14
126	127	8
94	94	17
111	125	1
100	129	5
85	85	21
131	131	23
22	22	15
17	19	1
20	20	17
107	107	26
0	0	6
24	25	2
102	103	7
2	2	9
125	125	37
138	138	16
74	74	13
75	75	21
123	123	32
8	8	9
22	24	3
113	113	11
11	11	12
136	136	11
27	27	3
140	140	20
72	72	5
86	87	17
92	92	14
10	15	2
89	89	18
114	124	5
15	15	9
133	134	3
127	127	28
107	108	2
9	9	2
92	93	1
82	83	2
106	106	6
135	135	23
34	34	26
104	104	8
126	126	19
101	101	23
71	71	15
124	124	33
32	34	4
118	118	17
28	29	6
82	82	15
115	116	9
32	32	7
16	16	14
115	115	22
31	31	13
7	9	1
26	26	4
0	4	5
137	138	6
120	120	6
110	114	3
98	99	4
81	122	2
131	132	6
76	80	2
75	76	7
73	92	3
125	126	5
1	2	9
73	73	11
108	108	6
133	133	28
105	107	3
110	111	8
129	129	26
99	126	4
22	38	5
24	24	17
82	85	2
130	130	35
128	129	5
100	102	2
80	80	12
4	26	1
102	102	25
3	3	13
93	93	15
97	97	12
1	1	15
75	80	4
89	124	2
129	130	10
5	5	13
17	28	4
111	111	23
112	112	6
80	105	4
38	66	2
127	128	6
18	18	9
75	78	3
90	98	6
104	105	10
37	37	20
7	7	11
130	131	3
119	119	17
25	25	6
133	140	2
90	90	12
11	20	5
96	96	8
21	21	15
93	101	2
14	14	9
19	20	3
109	109	10
83	85	6
76	78	6
137	137	9
139	139	25
0	3	4
114	115	4
100	100	12
83	83	20
21	22	13
23	24	8
17	17	17
12	12	10
30	31	4
9	10	3
128	128	10
85	86	2
81	88	5
29	29	6
95	96	2
27	35	1
81	82	3
111	118	3
134	135	4
135	136	7
79	85	3
5	15	5
111	112	2
117	121	2
23	23	8
88	88	3
37	38	1
4	4	5
87	87	7
23	30	4
86	86	8
76	76	6
117	117	24
33	33	25
90	91	14
17	18	9
78	119	6
81	81	9
6	13	2
10	10	4
77	78	5
132	133	15
22	25	1
94	95	11
24	27	1
13	13	4
22	26	3
19	19	11
5	6	2
38	38	4
19	22	2
13	19	1
8	9	6
113	114	3
7	10	2
79	92	1
20	21	6
28	28	7
138	139	8
82	87	2
116	140	4
6	6	22
28	31	1
3	5	5
28	95	2
80	82	2
72	93	3
33	34	6
9	11	4
36	37	5
103	103	12
104	107	4
118	119	5
75	82	3
121	122	12
35	36	2
73	76	1
129	133	1
135	137	2
121	121	10
26	27	4
77	118	1
79	79	4
34	35	3
81	123	2
123	124	12
104	106	4
101	102	8
12	13	4
79	90	1
128	134	1
29	30	4
25	26	2
73	74	10
28	32	5
24	26	4
108	112	4
139	140	5
91	93	4
71	82	6
6	7	8
32	37	1
27	31	2
32	33	5
122	122	23
98	98	13
113	115	1
2	4	3
113	117	2
18	19	5
87	88	1
93	94	5
7	8	8
79	82	2
136	137	2
117	118	3
22	27	7
129	134	2
105	105	2
15	16	3
116	117	6
108	118	5
23	25	4
76	109	2
127	129	2
19	24	1
16	17	1
77	77	11
26	29	3
93	95	5
90	104	2
29	31	1
0	5	1
2	3	2
84	84	6
112	120	1
82	120	2
87	109	3
11	16	2
96	115	2
81	124	5
100	103	1
18	35	3
31	32	2
72	105	2
14	15	6
72	73	2
66	67	1
88	120	1
84	120	1
82	84	4
32	35	2
78	86	7
22	29	1
100	127	2
89	90	5
6	10	3
12	14	4
71	72	1
26	28	1
97	98	2
120	121	2
4	5	7
111	117	2
90	106	4
134	137	1
80	107	4
120	122	2
14	18	2
71	74	1
27	28	3
10	11	2
103	105	4
117	123	2
87	120	1
130	132	2
106	107	1
108	120	1
83	84	2
76	77	1
91	92	1
92	94	2
90	102	1
19	21	1
86	88	2
77	79	1
76	108	1
7	14	2
25	29	2
111	114	2
105	109	1
16	37	1
125	140	1
88	90	1
17	34	1
73	79	3
30	30	1
124	134	2
108	109	1
126	130	1
119	121	1
122	123	1
100	101	1
6	16	1
103	104	2
88	118	1
132	134	1
90	103	1
81	83	1
15	19	1
89	114	1
3	4	1
21	23	1
3	22	1
10	14	1
78	118	1
140	141	1
83	86	1
110	126	2
17	26	1
13	20	1
88	98	1
91	113	1
12	15	1
