49	49	7
32	32	4
19	48	1
28	28	5
77	80	4
75	75	8
20	20	11
4	5	2
6	17	5
82	83	5
1	1	5
76	78	5
66	66	9
9	9	15
14	14	20
86	86	5
87	88	3
68	68	12
52	53	1
63	63	4
56	82	2
24	82	1
20	34	1
69	69	12
16	16	12
24	25	7
82	82	5
72	73	13
77	82	3
81	81	13
52	52	6
64	64	9
73	73	10
48	48	4
66	79	3
20	21	6
25	25	11
75	83	3
23	23	17
3	3	12
85	86	6
47	48	9
22	22	9
57	57	13
59	59	19
54	54	9
71	71	6
58	58	15
83	83	11
12	12	11
79	80	4
60	64	2
21	71	2
10	10	11
55	56	2
12	14	4
65	65	6
85	85	18
61	61	12
84	84	6
68	69	1
65	66	4
47	47	20
87	87	12
22	23	10
56	57	1
90	90	1
50	55	3
21	34	2
19	19	16
24	31	4
19	27	1
72	72	12
19	49	3
13	13	11
50	50	13
46	46	7
30	30	8
5	7	6
60	62	5
22	50	3
8	8	15
55	55	11
81	83	3
5	6	7
75	84	1
49	50	3
18	19	1
7	10	3
74	75	7
34	34	2
67	67	8
2	2	8
70	71	4
18	18	5
63	64	1
51	55	4
54	55	6
17	17	9
58	59	3
71	72	2
27	27	16
21	22	6
78	78	10
53	56	5
6	6	5
15	15	4
11	14	3
74	74	7
31	31	9
58	64	1
27	28	10
24	24	11
53	54	4
27	29	2
60	60	5
57	58	3
0	1	2
76	80	5
51	53	5
79	79	5
4	25	3
77	77	5
70	70	8
5	5	9
67	68	5
53	53	7
8	9	4
47	52	1
62	64	2
80	80	8
50	71	3
13	14	1
19	20	3
88	88	7
7	8	3
76	77	5
9	10	11
59	64	3
0	0	3
15	70	1
11	11	8
4	4	12
8	10	3
50	54	3
56	56	7
3	4	2
26	27	4
6	7	1
61	62	1
20	48	3
11	19	1
47	57	1
75	76	5
75	81	6
23	24	6
76	76	6
29	29	5
12	13	2
30	31	3
51	51	3
17	18	2
5	8	2
11	12	2
23	25	1
25	26	2
48	49	3
77	78	1
31	66	1
14	16	1
80	81	5
77	87	3
89	89	9
2	3	1
7	7	5
66	77	1
22	52	1
69	70	2
47	49	2
21	25	2
59	62	2
22	34	2
86	87	3
81	82	1
12	17	1
21	21	8
51	52	2
59	83	1
20	71	1
60	61	1
24	81	2
10	12	1
22	86	1
26	26	3
6	10	1
29	30	1
65	82	1
73	74	2
62	62	2
15	20	2
46	49	2
68	72	1
1	2	1
58	68	2
32	66	1
19	21	1
66	68	1
57	68	1
61	63	1
29	46	1
28	30	1
46	47	3
79	81	1
77	79	2
66	67	1
72	74	3
59	61	1
57	67	1
14	73	1
71	80	1
3	5	1
