33	33	3
21	22	1
118	119	5
0	0	1
92	105	2
11	31	2
43	117	4
111	130	5
62	85	2
58	58	1
100	100	5
60	108	7
46	94	1
78	80	1
112	112	6
103	103	7
117	117	12
133	134	4
102	102	8
131	131	6
90	90	12
132	133	6
13	13	2
115	116	2
19	19	7
82	86	2
87	87	3
71	71	6
67	67	2
73	73	9
32	32	6
52	52	3
110	110	6
64	64	3
74	74	4
14	14	7
7	14	1
119	119	9
104	104	11
81	82	5
96	97	2
27	30	1
81	106	2
67	110	3
76	76	5
4	4	2
107	109	5
61	61	10
95	96	5
60	60	8
61	97	3
54	66	3
131	134	4
8	15	1
68	68	2
16	34	3
129	130	4
97	97	3
125	125	2
10	10	5
101	101	5
126	126	8
114	133	1
114	114	12
70	84	3
72	72	5
8	13	3
59	64	1
69	92	4
95	95	7
75	95	1
113	113	17
8	9	2
121	121	5
55	57	1
68	118	3
59	59	5
7	7	8
81	92	4
106	106	6
66	68	2
106	107	8
55	55	7
109	109	1
81	93	2
3	4	1
98	99	5
44	66	1
84	84	1
5	5	4
78	83	1
2	2	1
75	75	9
130	130	8
70	91	4
94	94	7
9	21	1
32	35	2
72	73	5
105	105	3
25	25	5
120	130	1
44	45	2
120	121	3
82	83	1
125	126	4
107	107	3
45	76	4
124	125	4
49	53	5
62	63	5
38	54	3
60	66	4
28	29	2
132	132	4
108	108	2
37	38	3
43	43	3
38	48	1
89	89	11
78	78	3
11	25	5
1	1	5
69	69	1
64	65	2
29	30	5
45	45	4
14	19	5
99	103	1
48	48	2
3	3	2
133	133	4
109	128	2
18	18	2
115	115	3
96	124	1
124	126	2
77	77	6
83	118	1
86	86	11
92	92	7
68	83	3
99	100	2
110	111	1
16	16	7
57	57	2
109	110	3
130	131	3
117	122	2
21	21	2
54	98	3
121	128	2
28	28	5
123	132	3
57	58	2
114	118	1
91	91	9
122	125	1
53	54	1
52	95	2
98	98	5
88	107	2
83	115	3
68	72	1
117	130	4
67	111	2
54	57	6
79	79	4
88	88	3
77	78	1
17	35	3
108	111	4
119	120	1
111	111	1
54	97	7
26	26	1
121	130	2
72	104	1
50	69	2
79	116	1
82	96	1
123	124	2
112	117	1
102	104	1
54	55	3
9	10	1
83	83	1
55	58	3
7	25	1
59	117	1
6	6	2
31	33	4
129	129	7
64	82	5
98	101	2
36	36	3
135	135	3
112	113	2
19	21	1
30	34	1
99	99	4
94	126	1
26	27	2
12	13	1
81	81	4
83	84	1
121	131	1
11	11	1
33	35	2
10	19	1
110	130	3
83	111	1
15	15	1
66	66	1
111	132	1
8	8	1
68	113	1
24	35	3
49	50	2
92	108	1
25	32	1
80	116	2
122	122	1
89	102	1
59	122	3
78	79	1
63	104	1
113	114	2
81	96	1
45	56	3
91	92	3
56	56	1
28	32	1
120	127	3
79	106	1
91	98	1
54	105	1
122	123	4
63	63	2
108	109	1
93	93	2
70	70	2
124	124	3
95	126	4
57	66	3
14	20	1
9	9	1
120	120	7
81	86	1
38	42	2
83	88	2
81	114	1
63	85	2
31	31	3
134	134	2
80	80	7
50	50	1
65	65	2
56	82	1
93	94	2
36	37	1
102	103	1
125	127	1
29	29	1
125	131	2
70	119	1
127	133	2
11	22	4
24	25	1
111	112	2
70	71	1
52	86	2
101	102	1
116	129	1
109	111	2
23	23	2
84	100	2
14	15	1
58	84	1
61	83	1
113	132	1
65	85	1
6	7	1
62	92	1
118	118	1
0	93	1
119	129	1
120	129	2
61	110	1
59	116	2
35	35	1
23	37	1
110	122	1
92	111	1
63	64	1
24	24	1
55	109	1
129	133	1
121	126	1
27	32	1
33	34	1
