166	166	5
108	108	11
107	109	4
90	90	8
2	2	8
105	106	10
23	23	23
77	78	3
36	38	5
158	158	13
61	80	1
100	101	4
59	60	6
148	173	2
51	52	3
113	117	4
143	143	21
36	36	36
157	159	4
19	21	1
140	140	18
114	115	14
98	98	9
52	54	6
54	55	7
139	139	16
115	115	18
135	135	11
9	9	18
29	30	4
171	171	19
42	43	16
18	18	10
140	168	1
111	111	10
121	122	3
12	13	17
21	21	14
15	15	30
122	122	11
68	98	1
11	11	29
24	36	1
96	99	6
42	42	28
162	162	11
28	29	8
65	66	2
38	39	6
71	71	15
52	52	18
22	22	10
106	112	1
84	126	3
119	121	6
75	75	14
88	88	14
22	23	4
24	26	3
64	64	12
43	43	26
80	80	12
58	64	4
130	131	5
12	40	5
150	151	12
101	102	10
178	179	1
17	17	14
31	32	13
24	29	2
96	97	13
4	4	16
145	145	21
5	5	16
119	120	5
8	9	8
108	112	5
153	153	22
33	33	26
97	97	15
13	13	12
11	30	2
9	10	25
101	167	5
27	32	3
61	61	13
35	35	16
149	150	4
44	44	17
13	14	6
147	147	6
164	164	7
26	26	10
94	133	3
39	39	13
8	8	14
147	148	5
55	55	6
83	83	6
63	63	8
34	35	18
105	105	5
134	134	20
68	68	8
163	163	14
79	80	6
18	22	1
172	172	10
130	130	6
145	171	1
52	61	3
71	149	3
26	27	10
87	87	12
158	159	5
53	53	15
80	81	5
28	28	13
132	132	23
14	14	14
90	95	1
1	1	14
30	31	2
146	146	5
117	117	10
57	58	10
73	73	12
132	133	5
29	29	13
31	31	19
102	102	9
10	11	6
10	10	20
40	40	15
123	127	2
16	16	20
24	24	22
7	42	4
168	168	16
143	146	2
108	109	9
85	123	8
34	40	2
119	147	4
98	129	3
135	136	5
154	167	2
23	24	6
33	34	7
173	173	21
99	99	3
19	19	9
56	56	6
175	176	4
59	59	6
157	158	9
148	148	5
126	126	22
20	20	14
40	81	3
6	6	24
89	89	13
88	89	9
1	9	3
96	96	8
30	30	26
88	115	2
95	95	11
79	79	11
60	61	5
159	159	12
91	92	5
23	29	3
114	114	17
152	152	10
76	151	1
110	110	9
67	68	4
131	132	3
85	86	3
14	19	1
154	155	3
133	133	11
38	38	17
57	57	15
51	51	20
77	77	8
5	6	13
113	113	7
84	84	6
79	106	7
94	94	17
41	41	26
19	20	3
13	23	1
76	76	14
139	170	3
10	40	1
54	54	10
25	25	11
31	33	1
154	154	11
118	118	9
144	144	7
84	87	2
170	170	15
134	158	2
129	130	7
101	103	6
166	167	12
25	38	2
109	111	2
81	82	3
53	93	2
102	106	5
40	41	6
37	37	15
100	100	10
139	140	1
6	9	6
17	147	4
31	36	5
58	59	3
24	25	3
141	141	32
73	74	2
160	168	4
0	1	3
159	162	4
23	40	1
137	179	2
93	93	4
58	58	10
99	126	4
141	143	1
112	112	10
3	3	32
1	33	3
34	34	8
149	149	5
140	142	1
9	17	2
92	92	4
78	89	1
142	142	9
70	70	5
113	164	2
44	64	2
155	155	12
150	152	1
25	42	3
161	161	10
150	158	2
6	37	2
39	40	13
17	19	4
125	125	4
91	118	1
136	136	10
128	128	2
24	31	4
101	101	9
5	36	4
52	53	8
50	50	7
139	142	3
15	16	6
134	135	7
2	4	1
40	68	5
150	150	6
172	173	3
137	138	9
54	93	1
33	35	4
17	25	5
160	160	7
129	129	9
178	178	9
6	7	4
168	169	3
144	145	3
3	4	10
127	127	12
65	65	8
12	12	6
17	18	8
99	100	3
138	138	17
171	172	1
66	79	3
161	168	3
109	116	3
32	32	18
133	134	4
0	0	9
43	44	6
76	77	4
86	86	8
148	149	5
169	169	11
38	41	1
173	175	3
110	114	2
180	180	6
81	81	5
37	41	6
26	29	1
107	138	2
152	153	8
159	169	3
117	119	1
20	21	6
16	25	4
38	114	1
13	15	2
41	42	7
179	180	3
49	49	3
116	117	4
58	114	6
104	107	3
135	140	4
67	67	6
86	89	1
60	60	7
165	165	9
118	124	3
16	17	10
43	45	5
25	31	3
175	175	5
89	90	2
118	121	1
130	147	4
1	2	4
179	179	8
14	17	2
23	26	2
72	77	4
133	150	3
55	179	3
131	131	5
97	98	1
75	77	2
121	121	5
72	72	15
12	14	2
66	107	1
104	105	1
118	119	3
27	27	7
11	18	4
126	127	2
113	114	1
154	168	5
117	118	1
169	170	6
106	107	2
113	118	1
160	162	1
136	163	4
6	24	3
159	170	2
135	142	1
122	152	3
127	152	2
61	65	1
103	104	1
91	91	4
104	104	5
116	116	3
167	167	7
23	31	4
5	43	2
124	124	5
57	114	3
176	176	19
168	172	2
65	68	2
7	7	11
13	24	4
107	107	7
25	26	8
59	61	1
10	15	2
37	38	7
4	8	1
136	137	4
32	33	5
177	178	4
121	173	2
50	80	1
61	62	6
102	103	5
78	78	7
166	168	2
143	144	2
18	19	2
119	119	10
140	141	2
153	171	3
23	28	3
157	157	9
16	37	2
74	75	1
160	161	3
52	63	1
55	57	1
172	174	1
10	13	2
174	174	9
156	156	3
13	32	2
109	109	4
27	28	3
61	92	1
9	11	5
49	52	3
156	157	2
123	123	11
141	142	2
143	147	1
103	103	5
112	130	1
118	120	1
61	108	2
154	159	4
94	106	2
79	129	3
56	57	1
62	62	5
35	36	3
177	177	1
159	160	1
163	168	6
45	45	6
79	93	3
16	31	1
36	43	1
13	16	4
78	79	1
82	82	6
68	95	4
107	116	3
28	35	2
64	90	1
63	65	1
145	146	5
135	158	3
98	102	1
108	116	2
74	74	4
174	178	4
164	166	2
10	43	1
20	22	3
90	92	3
139	147	1
2	31	2
57	60	2
137	137	3
98	100	2
111	112	4
171	173	1
163	165	1
98	101	1
95	112	2
59	115	1
72	73	6
57	149	2
55	64	2
83	84	1
127	130	5
95	96	4
61	111	1
124	156	2
10	41	2
12	18	1
115	145	3
172	176	2
151	152	1
55	56	1
10	19	3
21	22	3
0	14	1
80	126	3
6	43	1
91	94	2
170	173	4
63	157	1
0	131	1
75	76	2
36	37	1
133	168	2
14	38	2
142	144	1
115	130	1
89	156	2
120	120	3
44	45	2
103	151	3
55	65	1
40	43	1
163	164	2
90	91	1
16	26	1
54	65	2
33	36	2
66	67	2
164	165	3
115	116	6
11	20	1
110	111	3
153	154	6
32	38	1
120	123	3
50	56	2
71	179	3
91	93	1
37	39	2
151	151	3
2	3	2
158	168	2
142	149	2
146	148	1
137	167	1
40	67	1
52	81	1
142	143	3
90	102	2
135	159	1
131	143	2
162	163	1
10	42	2
122	130	2
29	36	1
6	8	2
71	90	2
174	175	2
23	32	1
122	123	2
23	30	2
4	6	1
81	89	1
21	33	2
42	64	2
71	72	2
0	21	1
84	85	2
132	135	2
79	89	2
111	118	1
136	147	2
27	29	1
63	89	3
54	64	3
7	141	1
112	113	1
140	146	1
173	174	1
156	158	2
167	168	1
52	142	1
14	16	2
110	137	1
99	104	1
12	33	1
50	52	1
7	25	1
94	96	1
90	132	3
10	39	1
27	31	1
1	6	1
5	9	1
176	177	1
6	26	1
26	31	1
4	16	2
14	15	5
144	147	1
2	10	1
18	21	2
70	78	1
107	108	1
106	115	1
137	163	1
83	85	1
19	134	1
5	7	1
123	125	2
128	148	1
17	23	1
19	36	1
46	46	1
58	121	1
155	156	2
108	114	1
22	24	1
61	109	1
124	125	2
6	31	2
63	64	1
60	73	1
57	177	1
10	16	1
11	12	1
136	157	1
4	5	1
137	157	1
138	157	1
15	17	1
14	30	1
58	91	1
63	66	1
130	151	1
135	146	1
168	173	1
127	128	1
138	139	1
154	176	1
96	98	1
10	14	1
93	134	1
2	33	1
85	85	1
101	126	1
61	107	1
93	95	1
