22	22	13
131	132	2
39	39	11
10	10	5
152	152	4
64	82	2
48	49	4
54	54	11
8	8	3
48	48	6
47	47	10
56	64	2
78	78	6
84	84	1
128	128	10
55	56	2
34	34	9
119	122	1
98	99	1
149	149	5
115	115	4
99	100	11
16	16	12
138	148	1
131	131	4
144	144	8
22	23	4
129	129	15
120	150	1
114	114	11
150	151	5
150	150	2
139	140	2
43	45	2
24	24	17
77	78	2
26	26	1
124	137	3
53	53	5
128	139	7
19	19	5
142	142	2
144	145	6
112	112	1
45	45	8
138	144	3
35	35	1
36	36	8
102	107	3
31	31	6
77	77	14
138	140	2
33	34	11
51	51	9
57	57	6
118	119	4
9	40	1
36	38	4
97	97	5
55	55	5
67	73	1
38	38	7
39	40	10
8	10	3
66	66	9
76	77	6
100	101	5
67	67	5
130	135	2
66	67	6
130	136	3
72	72	8
144	147	3
88	90	1
71	71	11
75	85	2
19	105	1
119	119	2
140	141	6
3	27	3
50	51	1
29	31	5
72	75	4
121	122	4
120	121	3
107	107	10
100	100	8
17	34	2
44	44	5
56	56	7
85	85	5
64	67	3
124	127	2
79	82	4
15	15	6
37	37	16
12	51	3
21	23	3
21	21	5
10	12	5
23	33	1
98	98	7
19	24	2
104	106	2
64	64	13
139	143	1
4	11	2
101	102	4
28	29	2
81	82	3
84	85	1
12	12	14
73	73	9
116	116	10
99	99	8
13	21	5
10	49	2
10	28	2
113	114	1
95	95	2
109	109	5
41	43	7
68	68	7
20	20	4
145	147	4
16	56	4
13	67	1
115	117	3
17	17	11
86	95	1
69	69	10
83	83	3
40	40	8
146	146	2
75	75	7
110	110	3
132	133	2
122	122	4
143	143	2
25	29	2
49	49	7
26	33	2
26	29	1
137	142	3
146	147	1
9	12	2
79	80	4
4	6	1
32	33	3
141	141	4
96	96	5
137	138	2
30	30	6
117	117	4
137	143	1
17	20	4
79	83	1
9	9	12
123	123	3
28	30	5
137	145	1
104	105	5
25	33	3
106	106	4
21	36	2
12	13	6
18	19	1
139	144	4
13	13	6
126	127	4
7	8	5
81	84	2
67	71	4
84	87	3
14	15	6
4	5	3
41	41	8
38	47	1
78	82	2
46	46	6
15	16	1
86	86	3
78	79	4
125	125	5
28	28	1
131	135	1
120	146	1
25	28	1
29	37	3
19	29	2
107	108	5
54	55	1
140	140	1
3	9	1
49	50	4
14	14	3
134	135	5
154	154	5
42	43	5
136	136	1
74	78	4
102	102	7
67	70	1
82	82	2
112	113	1
53	64	1
58	58	3
130	130	1
29	29	2
47	49	2
127	127	1
103	108	1
70	71	1
132	134	3
134	134	4
139	139	3
25	39	1
43	44	3
5	10	2
63	63	2
133	133	3
19	23	2
102	103	3
76	76	6
103	103	3
53	54	5
107	109	2
122	123	1
124	125	3
80	80	2
82	83	1
153	153	5
6	6	3
75	79	1
27	29	3
25	26	2
9	47	2
87	88	1
66	68	2
9	38	1
57	58	1
86	93	1
26	30	3
69	70	3
87	87	4
67	68	1
74	152	3
102	117	1
26	27	2
19	21	2
45	48	4
50	52	1
119	120	2
70	70	4
88	89	1
65	65	1
56	152	1
44	45	1
65	67	2
115	116	1
145	145	1
10	11	2
80	81	3
123	124	2
23	23	3
110	111	1
120	120	1
24	37	1
93	93	1
138	138	2
131	134	1
18	18	3
65	81	1
11	29	3
65	72	1
20	25	2
18	24	1
136	138	1
65	66	1
141	143	2
40	41	4
106	107	4
113	113	5
73	74	2
13	22	1
133	134	2
13	14	1
108	109	3
54	56	1
8	9	1
108	108	1
33	35	4
104	104	2
93	96	1
125	128	1
98	103	3
77	79	1
139	145	2
28	31	1
64	65	1
44	46	1
147	147	1
110	114	1
38	40	1
135	135	4
25	38	1
50	50	1
83	85	3
142	152	1
30	32	2
124	130	1
87	90	3
104	110	1
43	46	4
31	33	1
40	47	1
144	151	5
24	29	2
46	47	1
39	48	1
121	124	1
65	73	1
134	136	2
7	7	2
79	79	2
144	146	1
33	37	1
122	151	2
41	42	2
72	73	1
102	104	2
27	27	3
117	118	2
3	3	1
11	11	4
128	129	1
92	93	1
43	43	1
81	85	1
137	137	1
31	34	1
45	49	1
24	152	1
15	37	1
30	39	1
