13	13	4
72	72	14
4	4	8
129	137	2
80	80	12
104	115	7
82	82	5
83	85	5
118	118	17
97	98	5
99	99	6
11	36	1
27	27	11
115	115	7
13	15	4
136	137	5
125	126	4
73	73	12
1	1	11
29	31	6
16	18	1
114	114	13
113	117	6
78	95	2
14	14	15
0	0	9
78	78	8
122	122	11
17	19	4
131	131	10
32	33	15
80	81	3
87	87	16
21	21	11
120	121	5
98	98	7
109	109	21
23	23	13
74	74	6
124	124	15
126	127	4
93	94	1
103	107	3
100	102	1
27	29	7
140	140	5
73	124	4
33	33	6
4	5	8
134	134	13
12	12	4
76	77	1
110	110	14
101	102	2
108	108	4
123	124	3
104	105	7
71	72	3
16	16	11
104	107	6
81	81	11
82	83	6
112	112	23
128	128	7
88	88	17
22	22	16
1	2	5
17	17	6
25	25	5
125	125	14
18	18	10
127	128	3
130	130	12
26	26	2
2	3	7
120	120	11
104	104	14
28	29	6
20	32	2
31	31	9
16	37	1
94	94	3
93	93	5
134	135	6
83	87	3
34	35	9
15	17	3
137	137	8
109	113	3
73	77	4
14	15	4
90	90	4
27	31	4
85	85	4
9	9	5
111	111	8
101	101	7
9	11	1
22	24	3
28	30	5
110	114	2
126	126	13
77	79	1
96	96	14
132	133	2
7	9	1
84	85	4
75	75	6
75	78	2
113	113	7
12	15	2
135	136	10
30	31	3
19	19	2
72	80	1
115	123	4
106	106	17
71	71	6
15	15	11
107	109	2
89	89	11
116	117	7
89	92	2
74	75	5
96	98	5
135	135	14
33	34	2
8	8	11
100	100	21
19	22	3
139	139	4
105	107	5
37	37	11
30	30	4
76	76	10
3	3	6
15	18	3
117	119	4
76	79	1
79	79	9
101	103	1
84	84	2
9	10	2
114	115	8
28	28	5
5	5	9
133	133	7
35	35	11
7	7	11
29	32	1
11	11	9
131	132	2
106	107	6
100	101	5
96	100	3
129	129	4
97	97	4
115	116	2
102	102	9
119	119	7
83	84	10
6	6	5
118	119	2
73	79	4
72	73	9
88	90	5
71	73	2
105	106	3
120	122	6
113	119	3
75	80	2
124	125	3
75	76	1
0	8	4
24	24	10
96	97	3
75	86	3
103	103	5
112	113	6
79	124	1
109	110	2
103	117	3
20	20	13
98	99	3
3	4	1
113	114	2
10	10	3
121	122	5
93	95	3
110	111	5
119	120	5
136	136	1
76	82	1
38	38	10
15	30	2
36	37	6
21	23	5
92	92	5
74	76	3
91	91	1
101	107	1
79	104	3
89	90	2
95	96	1
92	93	1
92	96	5
32	32	2
81	82	6
71	113	1
17	35	1
18	19	2
109	115	1
122	123	2
12	14	2
17	18	3
105	105	4
79	82	1
85	86	3
77	115	1
20	21	1
108	109	7
137	139	1
137	138	2
118	122	1
21	27	1
7	8	2
77	77	4
128	129	1
23	26	1
123	123	4
117	118	1
76	78	2
86	86	3
133	134	3
90	92	4
19	21	1
74	89	3
107	107	4
90	91	1
132	132	2
119	122	1
12	13	1
127	127	3
25	27	3
17	27	1
117	117	3
98	108	1
16	17	1
5	7	4
76	124	1
79	81	5
93	98	3
130	131	2
89	91	1
15	37	1
15	19	1
28	31	1
79	125	2
124	130	1
74	81	2
109	111	2
95	95	1
78	125	1
72	114	1
97	129	1
111	112	1
93	127	2
138	139	1
16	32	1
7	12	1
115	125	1
5	98	1
75	77	1
13	14	1
11	37	1
24	25	1
1	6	2
100	123	1
5	6	3
21	22	2
21	24	1
2	2	1
78	107	1
68	71	1
104	108	1
128	138	2
27	28	1
114	123	1
109	112	1
85	87	1
10	11	1
121	121	1
19	35	1
86	87	1
