19	31	2
62	62	9
54	55	11
29	29	5
7	9	3
50	64	2
50	63	2
64	65	6
48	66	7
72	80	2
10	10	18
13	20	2
75	75	26
21	21	8
67	67	12
24	25	12
56	56	16
22	23	10
81	82	8
69	69	17
77	77	11
81	81	24
1	1	19
12	12	31
6	8	3
63	64	14
15	15	16
26	26	12
76	76	9
78	78	10
72	72	18
47	47	10
8	8	35
31	62	3
83	83	8
6	6	7
24	24	13
54	76	3
50	50	18
7	8	5
51	58	2
66	66	21
80	81	6
22	22	14
57	58	4
72	73	3
9	9	4
28	28	12
51	51	34
66	67	3
14	14	18
26	31	2
3	3	12
27	27	15
3	4	9
85	87	3
66	75	5
4	5	11
2	2	16
62	76	2
71	71	24
90	90	4
27	46	7
48	81	1
12	13	2
82	82	26
53	53	23
64	64	19
87	87	23
9	31	1
74	74	12
73	73	25
25	25	17
29	31	1
78	83	3
15	19	3
60	61	4
6	7	8
57	57	15
5	5	11
66	71	3
75	76	1
67	68	2
5	26	4
81	84	2
63	63	20
72	78	1
0	0	6
70	70	11
17	17	16
30	30	22
60	63	4
19	19	20
72	83	8
34	34	18
65	65	6
65	66	7
49	49	11
84	84	13
23	23	9
78	79	3
8	9	5
11	90	3
63	79	1
60	60	20
85	85	13
29	30	4
59	59	24
68	68	15
54	54	17
13	82	1
84	85	8
61	61	6
51	52	6
17	56	2
2	3	3
80	87	4
70	71	2
5	6	7
66	70	4
58	58	8
9	57	1
50	52	1
88	88	11
31	31	24
82	87	3
11	11	12
61	63	3
30	31	3
4	4	26
75	81	2
71	74	2
80	80	16
20	20	5
81	83	2
49	50	5
78	82	2
68	71	7
52	52	7
70	87	1
18	19	3
63	76	4
86	86	20
27	30	4
48	48	9
81	85	5
50	53	4
49	58	1
49	77	3
46	47	5
10	11	5
14	16	5
79	79	4
19	20	4
76	82	3
9	25	5
79	80	3
66	85	3
58	67	3
53	54	7
54	73	3
50	60	2
82	83	5
9	28	1
74	83	1
89	89	8
48	49	8
22	25	2
77	83	4
35	35	1
13	13	7
7	62	3
3	5	4
65	78	1
34	35	1
11	53	1
77	80	3
63	66	9
71	72	4
5	31	1
8	20	1
21	22	4
46	56	1
75	86	2
13	17	8
88	89	3
55	55	20
65	71	4
56	74	3
5	10	1
0	1	1
28	29	1
16	16	2
51	71	1
26	27	3
24	30	4
10	12	1
81	88	1
5	28	1
56	57	2
4	30	1
52	53	3
10	17	2
50	51	7
75	84	1
28	66	4
77	82	1
66	73	2
61	78	3
0	2	1
9	13	1
1	2	3
76	77	1
85	86	2
9	18	2
53	55	1
76	79	1
12	17	1
5	27	1
86	87	2
25	27	2
11	21	1
59	60	3
60	66	1
77	79	1
51	53	5
71	81	1
23	25	1
71	77	3
62	64	2
9	17	1
78	80	4
15	88	2
17	78	1
67	69	1
87	88	1
48	55	1
5	66	1
79	82	1
27	28	2
78	87	1
61	68	1
9	20	1
58	75	2
75	87	3
46	46	1
64	66	2
18	18	2
30	57	1
47	48	1
54	56	2
6	20	1
7	7	3
27	31	1
69	70	2
20	21	1
48	52	1
76	83	1
25	26	1
18	54	1
62	63	1
77	78	2
23	24	2
46	51	1
51	59	2
16	17	1
49	78	1
81	87	1
54	60	1
6	26	1
19	61	1
5	22	1
46	49	1
13	14	1
64	82	1
61	62	1
89	90	1
20	23	1
