22	22	7
43	53	1
126	127	2
70	70	4
53	53	21
15	15	6
172	175	1
113	145	1
22	30	2
27	27	6
78	132	3
42	42	18
29	127	6
136	136	10
134	135	8
79	79	7
6	7	1
154	154	15
28	54	13
104	104	8
13	13	15
66	66	3
184	184	12
131	131	15
57	58	5
175	175	4
194	194	15
100	100	12
173	175	6
93	93	1
123	123	2
182	182	9
182	183	11
170	171	2
60	60	2
34	134	1
28	28	16
167	170	7
54	55	3
194	196	2
153	153	26
164	164	9
51	51	4
123	124	7
31	31	10
46	46	13
162	162	8
147	147	9
29	30	5
161	161	16
149	149	9
151	153	2
51	57	2
63	68	5
1	2	15
178	190	5
94	100	1
34	138	6
71	71	10
32	33	4
82	149	6
23	25	2
14	15	2
173	173	15
176	177	12
152	152	11
188	188	14
3	7	7
7	7	9
10	10	21
5	143	2
189	189	21
115	118	7
19	19	10
96	96	3
145	145	11
63	194	1
168	169	9
127	127	11
143	143	16
154	155	6
103	104	9
190	190	14
77	78	6
140	140	9
34	34	5
135	135	3
78	78	4
185	185	17
103	103	9
133	133	14
41	41	7
8	8	13
142	142	5
16	17	10
156	156	17
55	55	2
138	139	4
82	83	3
37	37	8
166	166	14
2	2	17
187	187	15
81	81	9
124	125	1
186	186	8
148	148	12
191	191	12
50	50	12
53	54	2
116	130	3
163	163	15
17	17	11
96	97	6
161	162	8
0	28	1
152	153	5
3	3	9
190	191	9
0	0	14
22	23	4
160	160	11
145	151	3
151	155	1
131	132	4
24	25	4
151	151	17
112	112	8
116	116	6
195	195	16
33	33	13
99	99	5
174	174	23
23	53	1
39	42	2
88	88	6
65	77	5
10	11	2
12	18	1
173	191	3
139	140	4
5	5	12
6	150	5
110	110	8
6	6	4
168	168	15
106	107	3
184	189	4
150	150	16
192	192	11
163	164	9
165	165	12
19	21	10
169	169	2
129	129	4
18	26	2
185	186	5
11	13	5
24	24	19
173	192	2
147	148	10
74	74	5
114	114	3
172	173	1
105	124	2
83	83	5
158	158	12
107	107	10
139	152	1
36	37	2
21	21	2
69	70	9
144	145	8
30	65	4
18	18	21
176	178	6
141	141	11
14	14	6
158	172	7
103	112	5
57	57	7
28	29	2
159	159	14
105	105	3
45	45	9
177	189	1
174	175	3
26	26	10
108	139	1
154	173	2
35	35	14
29	29	5
157	157	21
170	170	3
144	154	4
2	9	3
98	121	1
40	40	14
119	123	5
15	50	2
111	111	7
124	124	9
48	48	10
119	120	8
56	56	11
178	178	3
181	182	6
1	1	6
94	94	2
142	152	1
59	59	10
134	137	1
18	58	4
173	189	4
105	106	7
180	180	4
168	187	3
143	144	11
184	185	9
30	38	5
168	193	3
114	122	2
176	176	10
60	130	4
137	137	2
191	193	3
32	32	11
172	172	11
106	124	2
65	65	4
186	187	2
11	12	5
122	122	5
106	138	3
132	132	7
11	11	13
53	56	2
164	167	2
98	98	5
105	161	1
155	159	1
99	113	3
196	196	10
130	130	2
104	161	10
95	95	6
155	155	7
52	53	2
157	192	4
14	48	4
140	141	2
36	36	5
97	97	6
113	118	1
128	128	11
100	126	7
5	20	4
106	106	3
100	101	1
138	138	12
82	82	5
134	134	6
38	56	4
122	124	5
98	110	6
61	62	5
128	129	5
67	68	5
165	167	2
47	47	1
143	164	2
149	150	6
2	6	3
113	113	6
109	138	2
177	177	9
183	183	10
52	52	12
64	64	7
38	38	9
109	109	3
143	152	6
0	1	3
115	122	3
76	76	5
4	4	4
4	27	6
52	168	2
16	53	3
179	179	3
62	62	7
101	102	1
157	174	3
142	149	6
154	178	3
0	6	3
110	121	2
84	85	3
10	12	4
158	175	2
148	149	4
145	147	3
144	144	12
192	193	8
58	59	1
173	174	3
127	128	2
118	118	4
44	52	2
153	159	2
116	126	1
44	59	2
179	180	5
11	20	1
59	60	4
102	105	1
1	3	2
63	195	1
62	63	1
137	138	1
114	127	3
158	180	5
104	105	1
23	23	6
47	57	2
28	30	1
93	100	8
158	159	4
167	171	2
160	171	2
112	162	3
102	124	1
122	126	4
173	180	3
142	151	2
145	146	10
17	18	1
26	140	1
173	181	1
20	38	1
87	133	2
166	185	6
39	39	13
167	167	4
142	169	2
93	94	1
139	139	5
30	31	4
25	25	8
190	192	2
73	73	5
41	42	1
88	89	8
137	147	7
83	84	3
132	133	1
146	146	3
45	77	4
181	181	8
97	127	6
16	16	3
45	78	1
155	156	4
58	58	5
162	163	2
127	133	3
188	189	3
121	121	4
20	20	4
155	191	5
94	95	3
112	141	5
155	168	2
101	101	2
109	111	3
9	9	8
44	46	1
108	108	4
150	181	4
0	19	4
64	68	3
44	44	3
157	158	3
54	54	3
10	14	4
43	43	1
4	6	1
3	5	3
170	195	1
142	144	2
69	69	1
1	4	2
22	25	1
152	194	1
178	180	3
5	7	1
30	30	3
155	173	2
142	147	3
8	9	3
107	171	1
11	19	4
47	49	2
84	84	3
171	171	1
27	140	4
32	38	1
34	35	5
172	185	1
167	168	3
125	126	1
166	167	4
50	61	1
111	123	3
160	161	1
21	39	3
115	127	1
16	31	2
188	193	2
157	159	3
63	95	3
143	148	2
156	193	2
21	24	1
152	188	1
43	47	1
113	116	1
85	85	3
189	193	1
101	107	1
70	71	2
150	183	1
158	192	1
141	194	2
164	165	1
4	28	3
193	193	1
12	12	5
123	125	1
65	185	2
160	166	1
72	72	2
15	16	3
174	192	2
158	165	3
153	154	3
125	125	5
87	88	1
74	75	4
19	22	4
56	57	3
31	32	3
21	22	3
19	23	2
60	61	3
197	197	9
77	77	3
51	96	2
40	41	2
45	50	1
31	37	2
174	189	1
113	114	4
171	186	2
115	115	3
63	63	2
153	160	1
9	10	4
136	169	1
27	28	1
128	132	2
12	58	1
143	145	1
36	110	1
46	69	1
75	75	1
159	193	1
168	181	4
127	129	2
169	170	1
50	195	2
63	64	4
150	151	1
102	103	1
118	119	2
146	147	1
73	74	1
175	189	1
144	153	1
186	194	1
4	7	2
81	82	1
13	32	2
11	18	2
67	67	2
148	150	1
148	178	1
175	176	2
187	188	1
142	143	1
0	8	1
86	86	3
168	182	1
119	119	2
11	14	3
5	8	1
89	89	1
169	171	1
22	31	1
102	104	1
5	27	1
3	51	1
117	117	3
177	178	1
22	41	1
99	116	1
100	128	1
162	164	1
24	28	1
172	177	1
43	95	1
19	20	1
3	151	1
191	192	1
