52	53	13
106	106	6
62	63	24
64	64	28
50	50	33
27	27	29
94	94	24
22	22	49
105	105	15
99	99	34
52	65	3
26	26	37
22	41	1
70	70	40
28	28	23
59	59	24
42	42	26
91	91	13
100	101	10
35	35	33
21	21	22
34	34	35
30	33	6
94	95	9
39	40	7
68	68	29
85	90	2
107	107	6
103	103	38
83	89	3
76	76	55
40	43	5
24	24	40
47	56	1
62	62	21
48	49	15
75	75	36
97	97	25
24	40	5
47	47	22
68	69	14
80	80	34
72	72	35
54	71	5
57	57	20
61	62	30
60	60	32
27	28	10
58	58	43
52	52	21
42	45	4
74	74	13
44	44	34
81	82	6
55	57	3
33	36	7
102	102	36
100	100	27
82	88	6
92	95	8
25	25	33
38	38	32
90	90	24
39	39	14
98	99	22
77	78	4
93	93	36
41	41	26
36	39	6
63	63	26
67	68	3
56	56	22
32	32	28
46	47	12
83	85	4
48	48	30
51	54	8
103	105	1
47	50	3
78	81	5
87	96	2
63	66	2
47	88	10
83	83	14
33	33	16
37	38	7
61	61	23
81	81	16
60	61	22
83	87	4
51	91	2
89	89	12
88	88	31
98	98	33
82	89	2
101	101	20
82	82	30
47	85	4
77	77	20
28	29	6
38	47	4
82	84	3
29	29	19
31	31	27
38	39	21
73	73	30
83	86	16
46	49	9
63	64	12
93	95	5
65	65	27
91	99	5
30	30	25
70	71	17
70	72	11
43	43	17
51	58	1
31	33	2
53	53	27
75	77	2
33	34	18
78	78	35
46	46	20
79	88	2
87	99	1
85	93	3
53	55	2
87	87	25
88	89	15
56	58	7
23	45	4
29	34	1
50	51	19
73	74	17
53	54	12
37	37	30
71	72	14
48	89	5
96	98	7
100	102	5
23	23	25
26	42	1
92	93	12
36	37	16
66	66	22
53	72	5
92	92	37
86	86	16
36	36	23
91	95	5
24	45	4
91	92	12
96	96	33
41	42	16
85	85	24
58	59	9
69	69	23
45	46	6
40	40	30
30	34	3
84	86	15
97	98	10
24	41	3
87	91	3
40	41	20
84	85	13
42	43	26
45	45	13
49	49	20
51	51	33
95	96	8
55	55	14
82	85	3
74	75	9
106	107	6
31	35	4
55	81	1
55	56	9
83	88	8
51	55	1
22	24	2
31	34	7
54	76	2
61	82	3
62	89	2
41	45	3
80	81	10
85	87	18
49	50	10
60	64	2
38	42	3
64	65	10
78	82	5
42	44	21
67	67	27
31	36	2
54	55	27
105	106	12
21	22	3
86	87	5
79	83	2
79	79	22
38	45	1
60	83	3
63	70	2
72	73	12
52	54	7
95	95	39
104	104	19
52	90	3
101	102	9
81	85	3
103	104	10
57	58	9
20	20	19
26	29	4
94	96	3
34	35	2
88	90	5
59	63	5
83	84	12
30	32	7
52	64	2
53	58	4
92	96	1
64	67	3
44	57	3
95	99	8
43	46	4
92	97	5
69	70	3
42	58	6
61	72	1
41	43	2
71	71	29
25	26	4
50	52	3
47	87	2
21	28	4
20	22	4
87	92	2
20	21	3
52	60	1
24	25	11
23	24	7
99	100	8
49	55	1
47	86	1
22	33	1
52	72	1
47	48	6
79	80	11
45	93	2
26	28	3
43	48	4
40	42	3
78	79	10
63	65	4
34	36	5
82	83	14
44	47	2
22	28	4
79	81	13
26	27	14
56	57	14
96	97	10
21	37	3
84	87	1
75	78	1
20	28	7
39	58	4
29	30	7
35	36	1
86	88	5
48	88	1
65	70	2
27	29	4
81	86	4
70	76	1
66	86	1
79	95	5
32	36	6
82	98	3
54	54	6
59	60	7
71	77	1
102	103	4
97	99	8
84	84	11
68	101	3
23	42	1
81	84	2
54	59	3
45	58	1
55	101	3
40	45	1
24	39	3
22	25	5
89	90	3
75	76	9
28	54	1
38	74	1
62	66	1
89	98	2
82	87	6
81	96	2
24	26	2
58	60	6
30	36	2
83	99	2
36	38	5
87	88	8
43	65	1
93	94	12
39	41	5
73	75	2
90	91	5
50	56	2
31	32	9
35	38	3
59	61	2
85	86	6
65	67	5
25	57	10
86	92	1
61	64	5
77	85	3
22	23	4
90	99	1
25	29	2
51	52	12
55	62	2
21	25	5
78	80	4
92	94	4
51	72	1
51	70	2
95	103	3
21	35	1
93	100	1
54	81	1
30	31	1
46	86	1
46	89	1
27	38	1
52	96	1
32	34	3
69	71	1
43	44	2
81	83	5
80	87	1
52	73	1
25	31	3
44	45	4
39	42	2
53	63	1
96	99	3
79	89	1
53	67	1
82	86	2
79	82	1
52	91	2
76	77	3
84	99	1
50	63	3
37	42	2
35	37	1
32	33	1
102	104	1
23	40	2
26	30	2
19	40	3
28	34	5
46	87	2
68	77	1
99	103	1
47	49	2
54	66	1
91	97	3
62	64	2
71	74	2
47	61	3
52	77	2
77	104	2
58	61	1
26	39	1
85	94	1
70	77	2
46	53	1
37	40	1
87	98	5
24	38	1
43	62	1
90	97	1
78	85	1
35	75	3
68	70	2
61	84	1
46	90	2
69	91	3
71	90	2
44	46	1
52	71	1
61	105	1
80	100	2
43	66	1
56	59	6
80	95	1
41	44	1
29	33	1
76	104	1
87	90	1
100	103	1
57	66	2
48	56	2
65	66	3
57	63	1
37	57	1
95	97	1
50	53	2
46	88	3
46	94	2
37	39	2
60	62	2
22	43	1
80	83	1
67	70	1
52	55	1
25	28	1
22	29	2
66	67	2
43	54	1
81	88	2
87	97	1
24	46	1
92	104	1
48	50	1
39	47	1
49	51	1
81	89	1
79	91	2
66	84	1
47	55	1
68	103	1
101	103	1
53	66	1
25	27	1
104	105	1
63	71	1
57	82	1
71	73	1
22	40	1
22	61	1
