88	100	4
53	54	6
179	179	13
164	164	16
30	30	29
42	42	14
6	37	2
151	151	20
174	174	4
8	8	14
118	118	19
2	2	5
160	160	10
126	127	9
53	53	10
65	71	3
45	45	21
150	162	2
132	133	2
174	175	3
97	100	2
30	31	9
18	18	20
29	29	23
91	91	9
123	125	4
13	158	2
119	119	9
62	73	1
36	89	10
84	86	2
169	169	4
12	12	16
30	46	2
41	41	10
104	105	5
116	117	6
161	178	1
18	38	6
134	134	17
126	128	3
28	28	15
36	158	2
143	143	7
75	153	2
93	95	1
71	73	3
93	93	15
71	77	8
127	127	14
94	130	4
167	167	4
3	15	5
149	149	7
154	166	3
152	155	3
163	163	18
137	137	22
36	36	27
172	176	3
167	168	1
173	173	13
35	37	4
124	125	3
17	18	7
176	176	17
13	13	22
117	117	15
166	166	11
111	112	7
57	59	4
139	139	6
129	130	8
24	30	2
154	154	8
24	25	21
24	24	16
162	169	4
98	98	13
138	139	4
114	142	2
150	150	6
157	170	1
6	7	6
15	45	1
133	151	5
63	140	5
159	160	7
26	26	9
12	14	8
161	161	7
9	9	15
14	18	1
1	1	15
142	143	3
78	78	11
143	147	3
26	30	7
19	20	8
4	9	9
95	95	7
96	97	3
10	10	23
110	110	13
155	159	3
99	99	10
151	152	3
51	51	4
82	87	1
156	156	8
14	14	18
84	84	13
136	137	2
72	72	2
4	4	9
34	34	9
98	112	3
178	178	10
52	88	7
30	42	4
28	29	14
32	32	10
156	171	1
161	162	6
18	169	7
125	131	3
57	65	2
118	126	3
11	16	4
152	152	8
71	71	21
131	131	16
120	120	5
125	125	10
7	7	19
180	180	9
32	33	7
161	169	4
157	157	12
17	31	5
38	38	16
108	108	13
113	129	1
152	171	1
55	55	23
2	3	2
16	20	3
77	106	4
15	15	12
66	66	4
25	41	3
40	40	17
57	57	8
2	4	3
172	172	15
80	82	4
111	111	8
71	72	2
128	128	7
90	91	6
25	25	9
122	122	7
80	95	1
96	96	8
65	66	9
52	53	6
14	40	3
25	35	2
18	20	2
62	63	6
84	85	10
60	60	10
97	111	1
107	107	9
9	15	3
177	179	1
1	10	2
123	124	4
61	61	7
19	19	14
174	178	4
104	104	17
138	138	16
64	64	7
78	79	6
14	23	4
15	22	4
7	19	2
131	160	2
79	85	1
127	128	7
37	133	2
44	45	9
165	165	3
92	92	13
148	148	17
171	171	6
158	158	7
18	19	8
35	35	17
150	154	1
9	11	5
23	23	12
15	171	4
62	83	2
163	164	2
121	130	2
129	144	3
32	123	6
92	113	1
5	6	7
112	113	3
9	13	3
78	87	1
141	141	9
2	15	5
133	133	7
117	118	11
3	4	9
63	107	3
44	44	13
88	155	1
39	53	3
77	102	3
175	177	6
101	101	6
96	98	5
173	174	8
121	121	10
66	76	1
87	87	14
11	35	1
41	43	3
50	50	16
158	159	4
153	153	14
64	134	1
37	38	5
30	51	3
88	88	4
21	21	14
42	43	7
27	27	9
145	145	10
62	65	4
104	125	6
106	107	11
29	30	5
86	87	2
123	148	6
14	32	3
146	146	16
75	135	1
35	36	11
7	8	4
152	153	5
21	37	1
34	40	2
21	24	4
133	150	2
17	17	23
89	158	6
75	76	3
131	132	5
0	0	11
20	20	3
82	83	6
155	155	5
133	139	2
75	75	8
108	109	2
54	55	7
94	127	3
112	112	4
159	159	5
93	121	1
79	79	10
27	28	2
74	151	2
40	70	2
43	43	9
169	173	8
98	100	4
2	10	2
32	36	4
2	8	2
54	54	9
11	11	15
109	109	12
113	113	6
65	67	2
91	92	5
7	115	4
3	3	7
28	31	5
59	59	5
116	116	5
157	161	3
21	23	3
126	126	7
32	35	4
155	168	3
54	87	1
100	100	7
96	111	1
14	33	4
168	169	6
54	82	2
36	37	3
8	9	5
33	33	10
64	153	2
121	131	1
39	40	8
67	67	9
120	121	7
147	165	4
168	168	11
64	133	1
43	44	6
129	129	8
148	149	3
73	103	1
171	177	5
29	37	3
40	63	3
22	23	2
105	147	1
121	122	5
118	119	2
39	44	3
37	37	11
16	16	8
128	140	1
177	177	10
44	46	1
11	15	1
130	148	7
165	166	3
6	21	1
2	29	3
14	16	2
31	31	13
63	103	1
103	124	2
99	107	2
106	106	2
12	42	4
8	13	3
68	75	1
144	144	8
122	123	4
29	31	4
41	42	1
113	117	1
16	22	3
102	102	13
34	44	1
70	71	2
112	114	2
133	153	2
126	170	5
141	145	4
103	103	5
119	126	2
149	150	2
157	158	7
130	132	2
23	50	2
23	27	1
80	80	3
0	1	1
11	12	3
132	132	12
124	142	3
21	43	1
56	58	9
34	35	1
112	130	3
11	14	4
72	169	4
61	136	4
82	82	12
130	130	5
155	170	1
120	148	2
169	171	4
112	148	1
162	166	2
6	6	10
2	9	6
89	112	1
93	174	5
105	105	3
63	85	1
25	26	2
136	136	5
85	98	1
142	148	3
124	124	10
54	77	5
144	148	4
22	22	7
168	173	2
26	27	10
154	156	4
91	113	1
63	63	5
65	153	3
92	114	3
30	33	1
154	157	6
86	108	1
114	114	3
52	52	1
73	151	1
107	109	2
3	45	1
76	76	13
80	94	4
140	150	1
0	33	2
137	139	1
119	121	3
96	109	2
154	160	2
3	31	3
57	58	6
3	8	2
170	170	3
146	148	3
166	167	5
134	136	1
32	34	2
16	169	4
97	97	3
95	96	5
104	106	1
2	5	4
6	16	2
115	115	5
5	5	14
115	120	2
20	33	6
132	134	2
162	162	9
81	81	7
105	106	2
110	132	3
14	126	1
111	113	1
111	154	2
28	52	2
127	139	2
50	51	7
4	7	2
136	162	1
111	129	1
79	86	2
34	50	3
54	71	2
8	11	2
83	83	4
165	168	6
170	171	1
10	11	2
123	123	7
27	32	1
37	44	1
49	49	6
147	147	4
66	139	2
61	134	1
39	52	3
67	74	2
18	41	1
73	73	9
100	136	2
115	118	3
50	53	2
118	148	2
60	76	3
49	56	2
38	39	2
160	161	1
177	178	1
118	130	1
135	135	5
147	167	1
145	146	3
23	36	2
107	108	2
13	35	5
72	74	4
9	17	1
14	157	5
33	60	4
8	12	1
146	156	3
172	173	7
5	9	1
89	89	4
18	21	2
61	132	1
157	178	1
97	153	2
66	67	2
40	53	2
147	148	3
58	82	3
143	145	1
58	59	1
31	42	1
25	31	1
23	30	2
32	39	2
59	60	6
140	148	2
16	17	3
23	28	3
101	152	2
147	149	3
96	166	2
178	180	1
31	41	1
153	154	3
65	65	8
175	175	3
42	50	1
74	74	6
125	144	1
57	136	1
3	9	1
22	43	1
39	39	5
166	168	6
64	157	1
164	166	1
173	176	1
132	149	2
157	160	8
58	77	1
98	113	4
29	45	2
93	94	2
55	57	3
156	169	3
135	136	1
40	42	1
78	138	2
93	113	1
168	172	3
111	119	3
12	33	3
8	22	1
8	50	2
140	180	1
65	150	2
170	178	1
56	77	1
90	92	1
87	88	2
5	8	2
77	108	1
54	56	4
75	110	4
155	157	2
141	160	2
29	43	2
62	62	2
153	156	1
33	34	1
166	174	1
155	156	5
136	140	3
17	29	1
143	144	2
150	151	2
107	120	4
172	174	2
56	56	4
74	103	1
98	158	4
80	85	1
97	178	1
4	16	2
156	157	2
79	80	2
140	140	3
27	31	4
15	126	1
33	35	1
109	110	3
102	130	2
90	93	2
115	116	3
11	157	2
142	142	4
150	153	1
59	64	1
92	170	1
10	18	1
7	34	1
57	108	1
42	51	1
156	158	2
3	46	1
78	85	2
176	177	1
54	81	1
39	51	1
118	121	2
37	152	2
100	109	1
90	90	4
11	40	4
23	26	2
144	145	1
23	24	1
151	156	3
34	38	4
6	10	1
7	15	3
171	172	2
19	43	1
74	153	2
77	77	3
39	50	4
55	135	2
36	44	1
138	159	1
151	158	2
11	34	2
40	51	1
146	167	1
30	35	2
83	86	2
75	152	1
74	110	1
45	46	1
51	52	4
49	68	1
99	100	1
8	33	3
31	32	1
102	103	1
11	13	2
86	86	3
32	65	2
95	111	1
145	154	2
131	150	1
5	15	2
3	7	3
35	50	3
165	177	2
29	42	3
5	33	1
87	89	1
139	140	1
39	43	1
59	76	1
15	20	3
35	44	2
40	41	2
146	165	2
52	57	1
98	115	1
78	102	1
94	149	2
114	125	1
8	16	1
56	57	1
121	125	1
95	107	1
91	93	1
121	123	1
26	28	1
105	107	1
134	145	1
25	27	3
81	82	1
67	68	1
2	19	1
92	94	1
33	59	1
178	179	3
158	161	3
139	153	1
75	156	3
21	22	1
155	178	1
100	108	1
37	39	3
56	106	2
50	52	1
157	168	1
86	102	1
102	114	1
73	150	1
76	77	3
103	104	1
99	101	2
14	22	1
11	24	1
94	94	3
143	146	1
70	75	2
98	101	3
60	61	2
50	63	1
79	94	1
92	130	2
90	137	2
116	126	1
9	14	1
98	152	2
129	145	1
78	89	2
143	175	1
42	44	1
97	99	1
96	112	2
153	178	2
143	150	1
102	106	1
10	20	1
15	33	1
168	174	1
173	180	1
100	101	1
85	102	1
1	37	1
7	22	1
150	152	1
80	106	2
78	96	1
3	16	1
2	37	1
103	121	1
160	170	1
101	107	1
110	154	1
90	94	1
96	115	1
15	160	1
125	127	1
154	178	1
34	36	1
112	145	1
16	171	1
141	168	1
122	125	1
85	85	2
145	147	1
29	39	1
77	78	1
173	175	1
97	98	1
18	45	1
2	7	2
8	20	1
80	83	1
132	151	1
78	90	1
81	106	1
168	170	1
13	14	1
92	112	1
25	32	1
128	138	1
25	30	1
107	115	1
12	13	1
8	31	1
151	173	1
33	38	1
141	156	1
50	59	1
