109	110	6
76	77	1
125	125	7
48	48	17
13	13	2
53	53	30
19	21	6
108	108	11
2	2	12
24	24	9
77	77	17
34	34	10
85	85	22
72	72	13
28	28	4
66	67	7
109	109	7
69	69	9
80	80	15
60	60	25
63	63	14
44	45	9
129	131	2
96	96	23
64	64	15
87	108	5
115	126	2
122	122	13
105	106	5
83	84	12
84	84	15
86	87	10
90	90	27
0	0	1
124	124	34
127	129	4
79	79	15
61	61	12
105	105	18
73	73	17
106	106	17
115	116	13
49	51	2
67	68	3
64	67	3
26	26	13
87	87	19
88	89	1
95	95	25
132	133	6
97	106	5
130	131	5
128	128	6
35	35	9
111	111	15
65	68	1
79	80	2
26	34	8
31	31	6
107	108	9
100	100	11
54	54	5
60	61	7
101	101	6
77	78	11
123	123	11
66	66	10
126	127	7
57	65	1
83	85	2
50	50	8
97	111	3
68	78	4
23	24	7
89	91	8
119	130	3
68	68	11
84	85	8
131	131	3
45	45	11
118	118	13
78	78	10
88	90	3
95	104	4
81	83	1
82	86	5
92	93	6
112	113	5
90	91	3
15	17	2
20	20	6
55	67	2
14	17	1
6	6	6
3	3	8
89	89	17
129	129	9
104	104	22
126	126	13
123	124	6
120	120	14
22	23	7
14	15	2
16	16	13
58	59	11
8	8	1
133	133	9
62	64	5
113	113	7
114	114	19
7	7	2
82	82	18
116	116	11
21	24	1
49	49	11
64	109	3
69	90	6
66	110	1
23	23	7
75	75	20
106	120	4
69	70	2
74	74	12
90	95	3
66	130	3
37	37	9
129	130	6
64	91	4
109	119	6
57	57	9
36	36	1
91	92	12
117	117	8
14	14	4
124	125	8
65	67	5
99	100	10
70	70	9
94	94	4
100	115	4
83	83	7
116	117	3
15	15	13
121	121	8
36	37	5
58	66	6
96	97	6
112	112	15
123	129	4
76	88	1
77	79	1
21	22	5
95	129	3
118	120	1
19	19	6
38	38	4
128	129	6
68	87	6
66	68	3
128	135	3
102	102	24
134	134	4
45	50	2
1	1	5
88	88	15
92	92	17
76	76	11
62	62	7
25	25	13
64	98	1
61	62	2
22	27	1
66	87	3
89	124	1
62	80	1
129	134	3
124	128	4
48	49	6
94	95	8
71	71	6
97	97	5
121	129	1
68	69	5
133	134	9
45	64	1
99	99	29
132	132	11
47	51	2
110	111	1
71	72	2
115	115	25
42	60	1
9	10	10
102	103	8
100	101	5
127	127	12
51	64	4
122	123	7
22	22	8
91	91	11
10	10	5
113	125	4
107	107	13
12	13	5
110	110	11
58	58	6
100	109	3
62	63	7
50	64	2
24	26	1
65	65	16
53	54	1
67	121	3
56	57	3
31	32	2
10	11	1
49	69	2
118	121	7
26	36	6
108	112	2
112	115	2
44	44	9
91	93	2
103	103	11
52	53	9
67	67	5
93	93	12
56	56	5
63	125	3
111	116	1
86	86	2
43	43	12
5	5	4
97	98	7
101	102	1
52	52	8
123	130	2
32	33	2
113	115	5
23	37	2
4	5	2
130	130	9
78	79	6
12	12	6
4	4	4
84	100	3
94	126	3
11	11	4
19	60	4
81	81	8
43	44	1
75	76	3
70	80	1
59	59	4
118	119	3
95	105	2
96	119	7
45	56	6
79	116	3
55	56	3
66	79	3
9	9	6
95	120	1
29	30	4
98	98	3
121	123	5
64	110	2
117	118	2
59	60	6
19	20	5
64	65	8
120	133	1
1	71	1
110	117	2
80	81	3
35	79	4
5	80	5
120	129	4
127	128	5
93	94	2
120	130	3
112	122	1
78	81	2
98	106	1
66	69	3
48	80	2
54	69	1
113	114	2
89	90	2
57	58	3
50	116	2
20	21	8
86	131	2
10	18	5
5	7	1
108	109	4
57	68	1
65	66	4
121	134	5
9	15	4
68	70	1
14	18	2
16	18	2
72	73	4
33	33	2
67	69	5
45	49	1
116	120	2
44	48	3
82	85	2
106	109	1
98	101	1
111	112	2
54	55	4
113	117	2
75	79	3
124	126	1
15	16	1
27	27	2
30	31	2
120	131	3
107	120	2
86	88	1
30	30	4
130	132	1
96	129	2
134	135	1
119	119	4
49	50	1
71	73	4
96	98	2
86	90	1
22	24	1
95	96	1
66	117	3
89	99	2
121	122	2
27	29	1
112	121	1
0	114	3
54	57	1
77	81	2
44	54	2
117	130	1
18	19	2
112	120	2
69	114	1
59	61	1
64	77	1
97	108	3
79	101	2
47	65	1
106	107	4
6	12	1
91	110	4
82	83	5
60	63	1
103	104	3
46	47	1
70	71	2
112	114	1
45	68	1
73	77	3
87	88	2
116	118	1
50	51	1
127	131	1
46	46	1
79	106	1
47	47	1
104	112	1
105	107	1
58	65	2
17	17	1
85	86	2
110	113	1
3	4	1
42	42	1
26	61	1
54	58	1
39	39	1
84	98	1
79	81	2
85	109	2
63	82	1
57	59	1
105	119	1
7	10	1
69	71	2
6	7	2
7	8	1
43	66	1
62	65	1
98	99	1
114	125	1
107	109	1
62	85	1
5	12	1
21	21	1
8	9	1
115	117	1
101	134	1
65	69	1
120	121	1
11	14	1
59	68	1
7	11	1
129	133	1
96	100	1
106	121	1
20	60	1
7	21	1
88	124	1
119	120	1
98	111	1
10	25	1
45	55	1
92	123	1
