133	133	3
173	173	4
39	39	16
11	11	14
98	98	11
34	35	3
55	55	14
30	30	12
142	147	3
37	37	16
12	12	12
24	24	25
95	115	1
171	175	8
146	150	4
18	18	9
4	7	5
79	85	2
82	82	12
73	73	3
51	51	5
8	10	3
6	6	10
165	166	5
37	40	3
128	128	5
8	67	3
146	146	9
96	96	20
106	107	3
25	25	13
119	119	20
4	4	10
7	9	2
66	67	3
2	2	9
107	133	1
99	99	10
64	71	3
24	32	1
57	57	15
121	122	6
122	122	4
150	150	3
19	19	18
161	162	8
152	153	6
163	164	1
147	148	3
75	76	1
141	141	13
87	93	5
54	54	12
10	10	19
72	73	4
164	164	10
60	60	7
120	128	2
102	103	4
127	127	7
22	22	9
94	94	6
158	168	3
14	33	5
66	68	3
92	92	9
93	93	6
33	33	18
8	15	5
46	46	2
138	138	4
9	9	8
149	167	3
31	31	20
110	110	6
96	125	4
42	44	4
99	101	4
13	15	2
17	17	16
101	104	2
85	85	4
115	115	5
57	61	5
123	135	4
32	32	30
67	67	5
83	85	4
116	117	3
145	145	16
42	42	20
171	171	9
79	79	3
10	14	4
76	77	3
36	44	5
137	137	8
11	19	4
89	92	2
142	142	11
120	120	3
118	118	12
117	117	6
41	44	2
43	139	4
175	175	11
109	127	3
27	27	16
151	168	2
176	176	7
113	114	2
55	61	3
26	26	9
38	38	18
126	126	6
39	40	1
58	58	6
12	13	11
132	132	5
153	153	4
28	30	2
178	178	15
107	107	9
5	18	1
28	29	11
36	37	2
143	144	11
61	66	2
19	22	6
15	15	11
61	61	2
141	149	5
17	40	2
157	157	2
18	19	5
55	56	2
21	28	3
34	71	1
89	90	5
56	56	12
2	4	4
113	113	8
34	34	6
112	112	11
166	166	5
100	100	13
96	97	2
16	16	9
4	25	2
109	109	8
83	84	4
12	64	2
108	108	12
81	86	5
7	7	6
16	19	3
149	153	2
40	41	7
149	149	10
84	86	3
24	26	2
100	101	2
13	13	7
168	168	13
23	27	2
26	33	1
59	59	3
24	27	7
57	106	3
83	83	7
162	162	15
36	36	16
146	151	6
50	59	1
50	51	1
57	72	2
0	0	17
179	179	10
172	172	15
154	154	8
35	35	15
118	119	4
98	103	2
45	45	8
82	86	4
7	20	3
2	9	1
94	97	7
64	64	9
75	86	5
159	159	14
168	178	2
75	75	8
76	76	6
103	124	4
169	169	7
68	70	3
165	170	1
27	143	10
114	119	1
120	121	5
165	171	1
32	43	2
43	43	14
11	15	2
41	45	2
140	179	1
25	27	3
50	50	7
38	39	2
22	26	1
3	3	24
97	97	4
81	81	10
177	178	1
91	92	6
114	154	2
28	28	6
136	136	3
57	64	3
101	101	5
3	10	1
90	90	8
162	169	2
121	121	5
144	145	4
98	101	3
72	72	2
152	152	10
161	164	5
17	88	1
4	6	2
53	53	7
104	117	1
148	149	1
31	43	1
6	7	5
116	116	10
165	165	5
142	143	2
2	16	5
33	130	4
159	168	3
22	28	2
104	119	3
17	18	2
124	125	2
86	87	8
125	125	9
91	93	1
5	6	6
85	86	1
134	173	2
6	45	5
107	126	2
71	71	14
131	131	2
26	28	6
78	78	10
13	21	1
19	20	6
66	66	7
156	164	2
130	132	3
75	88	1
151	152	3
25	26	3
97	99	4
105	105	12
21	32	4
114	156	4
79	81	3
158	159	4
26	30	4
1	1	8
160	162	2
147	147	4
81	82	2
35	36	8
24	28	6
26	27	9
9	15	2
5	16	2
13	26	2
30	31	4
174	174	3
170	171	5
89	89	11
14	141	4
160	160	5
57	59	1
157	169	2
152	155	4
105	112	1
143	143	4
114	114	5
156	156	7
139	139	8
36	38	4
108	110	2
63	63	6
172	175	1
41	42	7
35	38	5
8	9	4
40	40	4
24	25	6
62	65	3
2	3	3
158	158	4
0	1	3
5	5	4
106	106	6
77	77	5
122	131	2
28	144	1
20	22	4
152	154	4
9	35	8
2	23	3
91	100	2
56	58	1
17	34	3
95	96	4
29	142	2
14	14	17
23	24	3
128	129	4
56	61	6
70	84	6
10	15	3
3	7	2
134	134	9
111	111	2
29	30	4
25	28	1
177	177	2
5	19	2
179	180	3
133	138	1
18	20	1
44	44	7
104	104	9
7	8	1
107	124	3
14	136	5
20	20	9
51	85	2
97	144	4
4	5	4
140	140	5
157	158	2
152	156	6
13	25	7
86	86	7
146	170	2
68	68	1
134	135	3
21	21	4
15	22	3
80	80	8
11	23	1
52	73	4
165	168	3
112	113	2
113	118	3
122	173	1
8	141	4
63	64	2
15	16	2
75	84	3
13	14	5
41	41	13
135	142	1
52	52	2
66	71	1
59	62	3
110	147	6
11	13	3
9	10	3
93	94	3
63	65	4
103	103	10
67	68	2
110	111	3
133	135	1
50	74	2
142	149	1
145	146	1
51	60	1
21	30	2
44	50	1
8	8	9
142	172	3
114	116	3
106	118	2
45	91	1
124	124	5
102	102	4
77	78	3
64	96	1
37	38	3
27	29	2
170	170	6
141	144	2
178	179	4
104	111	2
172	173	6
123	123	6
70	70	1
109	123	1
144	144	7
103	113	3
154	155	1
97	157	2
86	101	1
53	81	1
161	161	6
4	11	1
145	157	3
58	59	4
54	55	3
163	168	3
4	8	9
137	138	3
159	163	1
94	142	2
133	136	1
95	95	7
19	41	1
14	32	2
3	16	1
29	118	1
136	137	2
130	142	2
164	170	6
10	18	2
28	31	5
134	143	3
17	44	2
88	88	4
90	100	1
104	110	4
151	165	5
85	93	1
150	165	2
53	54	4
8	11	1
173	174	2
29	29	8
6	19	2
120	127	2
56	57	2
36	39	1
31	118	1
31	32	1
76	78	1
59	65	1
3	4	2
91	91	7
130	130	7
151	153	3
105	107	5
155	155	3
116	131	3
160	163	2
122	126	1
14	144	2
125	128	1
23	23	7
6	8	1
157	167	1
158	167	1
22	23	1
103	119	4
74	83	1
5	41	4
158	164	1
75	82	1
108	119	2
122	124	2
111	115	1
103	120	2
95	125	1
153	167	1
50	88	2
97	126	1
140	141	1
21	22	1
97	123	1
92	98	1
102	105	3
22	24	1
102	106	4
167	167	2
141	142	1
75	91	1
108	109	3
119	120	1
54	76	2
110	166	1
75	93	1
107	109	1
20	30	2
63	98	1
101	106	1
73	75	2
23	30	1
76	79	3
10	16	2
163	163	2
84	85	2
9	11	2
96	124	3
123	125	2
77	80	1
155	156	2
148	156	1
9	140	3
76	85	1
9	22	1
113	115	2
27	33	3
26	35	1
39	43	1
175	176	2
75	83	1
17	82	3
127	128	2
50	91	1
97	98	2
87	87	1
156	157	1
172	176	1
7	15	3
88	89	3
6	15	1
4	33	2
51	74	2
62	74	1
8	140	2
105	115	1
135	135	4
109	178	1
51	75	2
90	92	1
3	42	1
74	100	1
94	114	1
97	158	1
163	166	2
33	43	1
21	26	1
103	104	1
27	28	2
16	21	1
131	132	2
10	11	1
80	81	1
2	19	1
33	34	1
103	125	1
149	150	1
76	86	1
23	26	1
11	12	1
61	62	1
174	177	1
39	41	2
160	161	1
11	39	1
105	106	1
11	138	1
151	151	1
124	135	2
5	139	1
19	23	1
4	35	1
33	42	1
130	143	1
165	167	1
86	92	1
4	34	1
7	139	1
155	164	1
65	75	1
164	165	1
83	86	1
70	72	1
65	65	1
52	68	1
123	124	1
104	105	1
2	6	1
57	62	1
148	148	1
27	32	1
74	85	1
159	170	1
1	4	1
114	115	1
11	64	1
3	9	1
