29	29	7
192	192	10
31	31	10
187	188	3
17	19	5
19	19	13
57	57	9
146	147	2
56	56	12
150	184	3
48	48	10
21	21	7
117	118	4
157	157	12
170	171	4
38	114	2
164	164	5
121	128	2
4	21	1
147	147	10
171	171	5
155	155	3
125	125	5
145	145	6
54	54	7
152	152	8
59	59	3
195	195	8
163	167	4
141	141	3
193	193	2
184	184	10
132	132	1
95	95	8
41	41	5
119	120	1
101	107	1
7	23	1
108	108	8
77	85	3
40	41	7
180	181	4
162	162	4
40	40	17
140	143	1
172	174	1
86	86	4
96	96	4
112	112	6
11	13	8
174	174	12
36	36	6
166	167	4
168	169	4
20	20	4
26	26	13
136	136	5
29	30	3
8	8	7
183	183	7
82	82	3
100	194	1
23	30	2
179	179	9
138	138	11
109	109	1
147	154	1
169	169	12
6	6	6
26	40	3
151	151	5
144	145	6
83	83	6
188	188	10
59	65	2
140	140	5
62	63	3
34	34	14
178	180	3
141	191	3
63	64	4
17	56	2
27	31	5
116	117	2
142	145	1
102	103	4
36	37	4
146	169	4
71	111	2
118	118	6
100	100	8
39	55	1
156	156	6
172	176	1
8	9	3
74	74	11
127	127	9
116	116	11
189	189	9
161	161	8
99	99	4
166	166	10
134	135	3
187	187	13
38	40	3
123	124	2
30	30	13
23	23	6
124	124	8
42	42	3
6	7	7
160	184	2
64	75	1
155	159	2
127	165	9
10	10	8
39	39	6
32	32	7
171	189	1
164	167	1
171	172	2
129	129	8
154	154	4
23	31	2
192	193	3
68	68	7
99	110	1
63	63	3
9	9	4
154	155	4
27	28	8
55	55	9
33	33	12
18	18	4
181	191	2
185	186	2
13	46	3
169	171	2
103	106	5
4	4	7
24	25	7
41	84	1
78	79	2
46	148	3
143	143	4
186	187	4
178	182	1
186	186	12
128	128	3
160	160	13
112	120	1
113	120	1
159	167	7
148	148	9
22	22	12
25	36	5
17	17	9
149	149	4
149	151	1
175	176	2
129	130	3
49	49	6
146	148	2
138	141	2
151	159	2
74	75	5
165	168	1
109	131	4
142	142	2
37	37	9
122	122	5
17	55	1
149	182	5
168	168	8
41	107	1
115	115	6
105	131	2
194	194	5
16	16	12
118	135	2
159	176	1
133	133	3
151	152	1
27	116	2
71	108	1
191	191	4
2	21	3
57	59	1
107	113	1
185	185	2
163	163	5
30	32	1
110	110	9
153	154	4
52	52	8
46	46	6
105	110	3
23	24	2
72	72	8
1	2	5
20	39	1
149	183	3
165	165	6
24	57	1
155	172	2
34	35	9
106	106	8
30	99	3
161	172	3
182	190	1
66	66	3
163	164	4
181	181	9
66	72	4
158	190	2
152	153	2
13	14	3
72	87	2
179	180	4
159	159	5
131	135	2
111	111	1
25	26	2
133	155	1
97	100	3
28	28	12
9	10	2
151	157	2
184	186	1
27	27	4
98	98	1
161	162	3
41	115	1
7	21	1
65	87	1
161	169	2
120	163	2
61	73	1
157	158	7
153	153	2
183	184	3
47	47	3
113	113	7
13	13	7
33	35	2
114	114	4
126	179	3
24	24	2
110	113	2
45	46	5
22	24	3
73	76	2
178	178	4
117	117	4
43	57	3
88	94	2
134	153	1
7	8	7
15	33	2
5	5	11
190	192	3
132	133	6
67	70	2
37	44	2
166	176	1
139	140	4
0	3	1
123	123	3
126	126	4
155	176	1
93	94	2
54	55	3
152	157	1
43	43	6
66	71	1
41	96	2
65	65	5
150	150	1
137	152	1
79	80	3
3	5	1
159	175	1
16	17	5
190	194	2
175	175	2
182	182	2
90	90	5
65	72	4
153	176	1
102	102	5
7	7	2
30	31	5
75	75	1
6	27	2
38	38	9
8	20	2
42	43	3
137	137	2
15	15	5
160	161	2
40	115	3
171	193	4
122	130	1
1	1	10
3	3	2
88	89	2
114	115	3
122	123	3
153	156	2
95	113	3
118	137	4
106	139	3
166	168	2
80	116	2
139	167	2
146	146	9
5	6	2
53	53	7
115	116	2
103	103	4
159	192	1
62	62	3
187	196	2
45	45	4
40	42	2
165	166	1
40	157	2
100	101	3
81	81	1
156	158	1
139	139	4
133	156	2
94	114	1
58	58	4
29	31	2
98	158	3
35	35	4
131	133	3
174	187	5
82	83	2
2	2	3
167	176	1
61	61	3
170	170	3
70	71	2
176	176	7
191	192	4
169	170	2
98	104	1
37	42	1
180	182	2
26	29	5
119	119	6
141	160	1
149	178	2
94	102	1
58	71	1
3	4	2
172	172	5
84	84	4
38	39	2
114	140	2
184	193	1
167	168	2
54	196	1
18	21	1
180	180	3
167	167	1
107	107	4
0	36	1
175	181	3
104	104	5
148	152	1
121	121	1
84	85	1
65	85	3
109	110	2
14	14	6
50	52	1
15	16	2
103	104	2
26	27	2
181	192	1
50	51	3
80	80	5
159	188	1
35	36	1
11	11	3
20	21	7
10	44	1
138	139	5
31	32	3
175	179	3
71	72	4
158	158	1
173	173	6
130	138	1
79	79	2
169	172	2
28	29	2
145	146	1
143	144	4
120	120	4
133	135	3
89	89	1
144	173	2
197	197	3
46	47	4
108	132	4
53	54	1
196	196	5
80	120	1
107	112	1
22	25	2
40	96	1
166	183	2
5	8	1
162	179	1
98	100	2
44	44	8
101	194	2
164	192	1
166	182	1
18	19	2
63	73	3
33	34	2
101	105	1
76	76	2
101	101	1
1	4	1
33	45	2
76	77	1
141	142	1
148	170	2
67	67	2
85	88	1
100	103	1
69	69	6
71	71	2
189	194	1
50	50	1
5	20	1
10	11	2
117	119	1
41	42	1
169	183	1
126	150	1
24	55	1
22	23	1
155	157	1
188	189	1
14	45	1
70	70	4
3	21	1
39	42	1
96	97	2
133	134	1
194	195	3
79	81	1
9	16	2
62	65	3
158	159	1
182	183	1
77	87	2
77	78	2
97	97	1
40	85	1
102	129	2
5	7	1
77	77	2
27	34	2
157	169	1
150	172	1
3	20	1
127	160	1
28	114	1
127	150	1
11	37	2
61	74	1
54	56	2
118	121	2
133	157	1
146	152	1
93	122	1
190	190	3
55	101	1
186	188	1
173	174	1
193	194	2
82	84	1
94	103	1
73	73	3
16	34	1
134	134	2
181	182	2
13	39	1
84	86	4
113	114	2
3	22	2
38	42	1
52	53	1
94	94	2
149	172	1
144	144	1
107	110	2
147	152	1
177	177	1
81	83	1
136	137	1
149	161	1
69	71	1
162	163	1
124	149	1
159	160	1
139	175	1
76	78	1
67	68	1
80	81	1
0	35	2
41	78	1
67	69	2
168	170	2
58	111	1
161	167	1
184	185	2
94	122	1
103	128	1
97	185	1
142	158	2
59	60	1
15	57	1
154	159	1
111	113	2
94	96	1
7	20	1
69	72	1
39	115	1
110	111	1
37	78	1
154	175	1
148	184	1
160	182	1
60	62	1
186	189	1
14	16	1
19	22	1
15	36	1
173	181	1
147	148	1
