164	164	9
166	167	3
20	20	4
203	203	11
26	26	5
147	147	3
165	166	3
228	228	1
44	44	9
164	165	2
200	200	8
235	235	8
205	205	13
168	168	4
203	220	2
156	228	2
0	1	6
168	169	6
100	151	2
227	227	3
67	71	1
2	3	6
101	101	6
187	187	15
68	70	2
212	212	8
208	209	8
232	233	2
201	207	2
30	30	8
71	72	3
177	177	13
229	229	11
29	29	5
181	181	12
151	155	4
12	12	3
46	46	8
187	189	1
70	109	2
107	107	5
118	118	8
53	53	8
58	58	7
79	79	3
197	210	4
51	52	1
210	210	5
117	117	7
197	203	5
74	153	1
17	169	4
149	149	3
72	72	7
68	68	6
224	224	14
151	151	8
8	44	2
182	211	3
152	171	2
75	75	2
197	198	8
45	74	2
175	176	3
213	233	1
6	6	3
162	174	1
169	178	1
25	188	4
83	83	4
211	211	4
84	85	6
176	177	1
242	242	4
68	180	2
81	81	1
150	150	5
178	178	15
120	120	4
153	153	7
118	120	6
21	21	2
57	57	8
48	173	1
80	81	6
154	155	6
165	213	1
47	47	4
155	203	3
232	243	2
97	98	9
217	217	5
176	176	8
152	152	1
202	202	5
220	220	6
163	164	7
118	240	5
180	180	10
145	145	5
19	19	7
64	65	3
214	233	2
165	165	8
105	105	3
2	13	4
152	157	2
185	185	4
216	216	9
240	240	4
245	245	9
233	233	4
1	1	9
99	99	2
89	215	7
214	216	3
22	22	6
204	204	5
14	14	11
152	162	1
116	116	6
145	162	2
74	75	1
225	225	2
182	183	1
115	239	3
225	226	1
171	178	2
228	229	8
175	179	2
110	110	8
219	219	5
199	209	2
76	76	5
54	93	3
33	184	1
207	244	1
197	197	5
174	176	4
180	239	3
192	192	2
89	89	12
230	230	13
90	90	7
38	38	6
77	78	2
41	42	5
203	204	7
33	33	7
169	169	6
49	49	1
8	25	1
186	186	6
118	119	7
218	219	2
28	28	4
160	160	5
86	87	2
67	67	9
194	194	4
115	115	4
222	229	4
200	206	2
92	92	6
72	85	5
26	27	3
109	109	6
167	167	6
172	176	2
188	188	7
25	25	8
5	5	15
66	90	2
44	45	2
210	211	1
34	245	1
163	167	2
247	247	6
163	163	5
49	74	1
59	59	10
229	230	3
207	207	9
47	97	4
187	190	2
237	237	11
194	195	5
51	63	3
193	194	1
176	211	6
218	218	7
15	16	5
155	230	1
31	214	1
241	241	7
165	214	1
201	201	10
55	185	1
22	23	2
11	11	2
2	25	3
65	65	4
87	87	1
185	187	2
48	48	1
172	173	3
62	83	1
98	98	3
112	112	6
195	197	3
213	214	1
34	34	11
100	162	5
153	154	2
162	167	2
187	188	5
237	239	4
26	33	2
25	226	4
198	213	2
95	95	3
188	189	8
89	90	1
211	212	6
35	244	2
96	96	3
51	62	1
161	161	1
18	19	1
232	232	1
56	65	1
29	215	4
158	158	1
244	244	6
38	39	6
41	236	3
12	37	2
110	111	6
19	21	2
198	209	4
168	189	2
213	213	4
56	56	2
23	23	4
153	157	3
200	233	1
43	202	2
93	93	6
73	74	3
158	159	3
222	222	3
217	244	2
55	56	4
4	5	2
243	243	5
79	82	2
190	216	2
163	225	2
184	184	3
111	117	1
8	8	2
26	41	3
38	233	2
22	115	2
87	173	1
21	23	3
179	179	7
179	180	4
185	188	3
183	183	6
27	28	1
15	15	1
172	172	3
181	246	5
111	181	1
170	170	1
162	192	2
198	198	10
11	12	2
202	203	1
97	97	5
30	31	4
169	170	2
116	118	3
188	236	1
43	43	12
60	73	5
105	106	5
83	120	6
209	210	1
162	162	2
63	64	2
106	106	1
42	43	2
190	190	4
103	103	3
27	27	4
108	226	2
66	67	4
10	37	6
189	190	1
48	116	2
246	246	2
108	108	5
3	3	7
191	191	3
3	14	1
153	182	1
215	217	2
7	7	2
204	208	3
61	61	3
39	39	3
85	87	2
208	208	2
45	88	2
196	209	4
49	114	2
64	64	2
157	158	2
90	95	1
53	54	1
220	223	4
51	51	2
209	209	3
40	41	3
175	175	4
73	73	8
227	228	1
61	62	6
237	243	3
49	50	5
154	202	2
195	195	1
231	232	2
113	116	1
55	55	3
226	226	3
78	79	3
116	117	2
42	42	3
10	10	3
31	31	4
81	82	1
151	178	3
114	114	2
111	111	3
100	104	6
113	113	5
248	248	2
16	16	3
242	243	4
12	36	2
234	235	1
157	157	1
62	84	2
37	37	2
49	87	1
22	224	1
32	33	3
180	213	3
74	104	4
84	87	3
221	221	3
47	62	3
231	242	2
1	23	1
168	171	1
231	231	6
154	154	4
84	84	2
147	154	2
219	220	1
87	88	2
199	245	3
82	83	1
156	156	1
29	220	3
61	86	1
75	79	3
242	247	2
156	157	5
66	66	1
86	113	1
9	9	9
17	18	2
62	97	1
107	119	1
24	24	2
40	40	2
43	53	2
112	120	2
193	197	2
241	247	3
79	103	1
170	171	3
109	153	1
40	63	2
117	118	2
46	52	1
181	196	3
181	209	1
116	239	1
185	186	2
169	239	1
119	120	2
195	214	2
173	173	1
153	197	3
5	14	2
29	76	2
84	86	1
30	77	3
223	223	4
182	182	3
166	166	2
44	74	2
75	78	1
48	238	2
6	9	1
86	86	2
237	241	1
204	220	1
52	52	1
114	115	3
73	75	3
245	246	4
186	187	2
221	222	1
213	216	1
28	219	2
196	196	1
35	39	1
70	70	4
29	30	1
74	74	1
102	103	2
81	92	1
168	188	2
51	96	1
30	39	1
50	86	2
18	18	1
113	117	1
216	233	2
112	113	2
210	215	1
189	189	2
174	174	1
93	106	1
165	192	1
146	146	2
161	198	1
190	191	2
160	161	1
167	170	1
234	234	3
54	173	1
239	240	1
82	82	1
48	104	1
114	116	1
39	227	1
178	232	1
91	111	1
80	80	1
78	78	2
157	164	1
11	40	1
17	17	1
10	36	1
35	37	1
46	47	1
179	223	1
59	60	1
79	80	1
