9	12	1
16	16	7
47	47	10
54	54	15
4	89	4
8	69	3
54	55	7
51	51	8
81	81	15
75	75	7
14	14	4
85	85	9
47	48	7
6	26	1
85	87	3
3	3	15
8	8	6
47	72	3
54	66	2
5	6	1
12	47	1
74	74	13
88	88	4
49	58	4
57	84	2
48	48	12
24	24	8
30	30	14
13	13	9
70	70	7
72	80	1
55	56	3
9	9	17
65	65	11
5	5	11
56	56	14
83	83	2
76	76	7
77	79	4
63	65	3
4	4	9
4	22	5
9	22	1
81	82	2
50	50	8
15	15	6
27	28	2
69	69	10
8	9	4
50	51	4
10	10	10
71	80	6
67	68	5
2	2	5
11	11	13
27	27	8
24	25	6
25	47	4
69	70	6
10	62	4
49	52	2
67	67	10
71	72	4
75	76	1
20	20	10
89	89	8
21	22	3
7	7	10
12	12	10
25	25	10
28	28	7
1	2	3
79	79	6
68	71	2
61	61	9
74	75	4
18	19	5
22	23	3
73	73	13
46	46	5
18	18	1
23	23	8
88	89	3
58	59	2
54	58	2
19	19	11
27	29	4
66	66	9
14	51	2
2	3	2
22	22	5
86	86	8
63	63	3
82	83	10
59	59	5
54	64	2
51	55	3
16	66	1
47	73	6
51	65	3
68	69	6
11	46	3
84	85	6
31	31	2
53	53	4
78	79	2
46	48	2
5	9	1
58	58	4
5	8	1
79	80	6
10	11	4
68	68	7
82	82	7
12	13	4
10	13	1
57	57	8
4	6	2
10	17	4
7	8	4
15	16	1
25	26	12
59	60	2
80	80	3
55	58	1
0	1	2
84	84	6
48	49	6
49	49	6
49	50	3
81	83	1
7	34	2
22	27	2
54	62	2
81	85	5
31	63	5
84	89	1
12	16	2
5	10	1
1	1	6
51	52	3
55	55	4
53	54	1
52	52	2
29	30	2
48	53	1
78	78	2
23	24	1
57	85	2
67	70	1
13	47	1
6	6	3
35	35	2
72	72	2
8	13	1
10	14	1
58	67	1
59	66	5
17	19	2
73	74	1
48	79	2
53	55	1
8	21	2
34	34	1
77	77	3
29	29	2
47	54	3
67	87	3
26	26	1
4	5	2
6	46	1
32	35	1
72	73	1
70	88	3
64	65	1
22	89	1
10	24	1
76	77	2
0	0	4
67	69	1
21	21	2
49	56	1
60	61	4
23	25	4
46	52	1
52	54	1
68	70	1
60	62	1
76	80	2
50	55	1
21	30	1
17	17	1
59	77	2
80	81	1
48	55	1
77	81	1
14	53	2
22	26	1
87	88	1
87	87	4
84	87	1
16	17	1
4	11	1
48	62	1
9	10	1
62	66	2
66	67	1
48	58	1
