190	191	2
75	75	16
34	35	7
100	100	18
104	104	5
21	21	16
217	217	10
222	222	5
204	204	8
31	31	16
52	71	3
148	148	13
158	158	12
193	193	4
200	201	8
71	72	1
242	242	16
196	196	21
61	61	37
208	208	10
144	145	4
164	165	2
36	36	14
181	182	4
43	44	6
28	28	12
41	41	21
136	136	4
54	57	1
174	206	2
69	86	6
99	99	8
72	72	13
24	25	6
121	121	15
37	38	10
46	46	14
11	33	1
162	162	23
20	20	17
156	157	4
128	128	21
135	135	9
228	228	18
11	11	28
176	176	11
26	26	17
149	149	18
45	46	6
146	146	6
145	145	7
83	83	15
114	115	2
201	201	6
27	27	9
8	22	6
6	8	3
140	153	2
203	203	8
16	17	1
24	24	22
185	186	5
164	168	5
29	29	16
159	160	2
225	225	7
37	43	2
104	125	2
54	55	7
227	227	18
223	223	12
209	209	23
143	144	4
51	56	7
0	0	7
79	79	5
10	10	22
4	4	11
139	139	3
183	183	9
43	43	5
50	50	9
188	189	5
239	240	3
40	52	3
115	115	5
30	31	7
231	232	2
80	81	7
86	86	12
63	63	20
210	210	5
169	184	2
210	211	7
5	6	4
134	134	6
181	181	9
72	73	7
97	98	2
124	126	6
223	224	6
164	164	6
74	121	1
199	199	14
74	74	15
82	229	1
191	191	16
226	227	10
198	211	3
222	230	3
149	150	3
61	64	4
181	183	2
112	112	10
212	212	10
138	138	5
155	166	3
16	25	6
20	23	1
62	62	17
166	166	9
175	175	9
163	163	2
51	189	1
88	88	8
33	33	9
55	58	2
13	14	2
158	167	3
85	85	25
152	152	8
133	133	5
161	161	17
157	157	12
180	180	3
119	119	4
138	163	2
4	6	4
28	37	1
205	205	3
37	37	15
199	200	10
64	64	15
21	22	15
1	1	12
105	105	11
190	190	7
4	5	13
167	168	3
211	213	5
232	233	10
9	9	10
99	142	1
137	138	5
67	67	8
111	111	3
95	96	2
140	140	11
19	19	12
68	71	6
187	188	4
29	47	1
55	56	8
20	180	3
179	180	5
22	23	13
13	15	2
64	65	11
8	8	9
172	172	9
74	75	6
202	202	16
55	55	17
48	48	19
219	219	14
159	159	5
35	35	3
154	155	10
59	60	5
46	47	1
29	32	2
135	136	11
105	107	2
18	18	8
25	25	14
168	182	3
125	125	3
87	87	3
9	29	5
29	214	3
80	80	12
233	235	4
139	140	2
156	156	10
70	70	6
1	2	4
42	44	8
2	2	8
182	182	17
60	69	3
140	181	2
58	58	14
47	47	6
186	186	6
68	69	7
147	147	7
239	239	14
236	236	10
208	210	1
13	231	1
153	153	6
128	129	3
69	70	7
231	231	15
29	30	6
237	238	6
141	141	11
211	211	3
18	19	9
59	59	4
52	54	6
20	21	9
49	49	8
156	185	1
158	159	3
3	60	1
31	231	1
152	153	3
129	129	4
211	218	1
27	96	1
189	189	10
161	164	2
45	45	15
7	7	4
44	44	6
175	183	1
77	77	3
26	27	7
238	238	13
170	171	2
68	68	15
84	84	11
203	204	6
135	150	1
34	34	9
27	28	9
2	3	4
197	197	19
132	132	2
143	149	1
63	64	2
170	170	14
4	60	3
186	188	8
127	127	11
203	215	1
58	60	6
53	53	11
10	227	2
216	216	4
99	100	13
151	152	6
23	23	20
197	211	2
230	230	4
159	191	7
137	149	1
150	150	6
17	18	4
100	101	3
187	191	7
189	219	1
69	69	14
189	190	1
22	22	3
151	151	3
26	28	6
184	184	6
229	231	2
97	121	1
197	198	3
181	239	5
7	8	3
233	233	4
11	85	1
113	113	8
56	56	4
66	69	1
47	48	3
106	107	1
198	198	9
209	211	8
66	66	4
116	116	7
51	51	2
149	240	2
113	114	7
155	155	8
196	197	5
113	188	1
57	57	11
83	84	2
200	216	3
115	116	2
134	135	2
104	105	5
185	185	5
234	235	2
201	203	3
134	137	5
16	106	2
105	106	4
1	3	3
101	101	17
221	221	5
52	52	9
168	168	6
128	131	2
206	206	4
211	212	2
15	32	2
32	33	6
172	175	2
3	3	11
224	225	6
59	125	1
235	235	8
241	241	5
96	96	3
30	32	1
177	178	1
53	75	3
42	59	4
232	232	3
107	107	13
208	221	3
136	163	2
71	73	3
38	38	14
39	39	17
195	196	5
166	172	1
225	226	6
37	64	1
118	118	4
51	55	1
100	102	3
174	174	8
8	15	1
151	165	3
59	78	1
73	75	2
65	66	6
106	130	1
229	230	1
163	169	1
142	148	2
214	214	2
78	78	9
190	196	2
150	151	3
42	43	6
140	143	2
108	108	4
162	172	3
102	102	6
98	151	1
33	34	3
79	100	2
2	5	1
73	73	5
30	30	6
179	179	6
98	98	1
42	42	14
207	208	1
220	221	3
235	236	6
97	97	7
143	143	4
194	194	3
48	49	4
17	17	7
9	10	5
73	74	3
154	188	1
37	39	3
7	18	1
200	200	1
215	215	7
32	32	13
60	60	11
220	220	6
161	162	4
79	80	1
131	131	20
180	198	2
3	12	3
238	239	1
14	14	2
136	137	4
0	135	1
24	191	1
84	85	2
75	76	3
230	231	1
218	218	5
127	129	1
177	206	2
54	54	4
162	169	3
146	147	2
167	198	2
225	227	4
135	137	5
35	49	2
9	224	4
67	70	1
171	171	8
16	30	3
71	71	8
49	51	2
12	36	2
165	165	6
122	122	1
12	12	6
237	237	1
114	114	2
16	16	4
109	109	1
188	188	6
28	32	3
51	53	3
221	223	1
168	171	1
112	113	3
75	192	3
25	101	2
192	192	5
216	217	2
140	141	1
45	85	3
187	187	10
33	47	1
85	228	2
126	126	2
210	213	1
154	154	6
154	158	1
173	174	3
203	225	3
39	130	2
212	213	2
57	63	2
10	11	1
52	53	3
178	178	5
48	128	1
11	13	1
160	161	3
194	195	4
226	226	7
198	199	3
124	125	2
6	9	2
58	59	2
101	104	4
241	242	3
186	192	2
192	193	1
155	156	3
177	177	3
215	216	2
24	27	1
127	137	2
106	106	2
127	182	1
160	160	1
67	68	2
125	126	1
2	183	1
6	21	1
213	222	1
171	228	1
140	142	1
65	67	5
8	179	1
38	39	2
169	171	2
204	205	2
147	148	2
4	79	2
117	117	4
117	119	1
178	182	3
141	143	1
120	120	3
0	1	4
217	218	3
78	79	2
122	134	3
6	6	2
23	36	3
9	203	2
37	42	4
50	56	1
169	170	2
224	226	2
127	136	1
222	223	4
233	236	1
103	103	2
213	213	2
214	215	3
53	54	3
82	83	1
210	214	1
184	185	4
0	9	2
207	207	4
65	65	10
129	130	1
110	143	1
8	9	1
191	195	2
137	159	3
38	43	1
129	135	6
214	217	3
37	48	1
186	187	2
229	229	8
125	127	1
13	29	4
35	40	2
169	169	3
54	56	4
167	167	1
178	206	2
133	159	3
36	49	1
8	30	2
40	41	2
42	73	1
67	203	2
54	74	2
108	109	2
67	69	1
174	175	2
137	137	3
142	142	5
73	97	1
44	45	4
40	40	5
15	57	2
164	194	3
233	234	6
13	13	5
10	206	1
139	143	2
55	181	1
64	86	2
14	16	1
62	63	3
75	84	2
3	18	1
149	235	2
2	12	1
201	243	1
76	77	2
0	57	1
143	145	1
234	236	1
183	186	5
20	53	1
104	106	1
235	237	3
19	83	1
119	129	1
24	39	1
0	20	2
121	227	1
106	127	2
121	122	5
103	107	2
11	29	1
151	241	1
170	197	1
225	238	1
12	34	1
162	163	1
9	220	4
127	222	1
0	3	1
138	139	5
146	148	1
9	45	1
15	15	4
9	14	2
15	16	5
234	234	3
170	178	1
69	190	1
12	128	2
144	144	1
3	4	1
1	122	1
23	218	3
49	50	1
142	144	2
14	15	5
137	163	2
27	44	1
10	38	1
45	66	2
174	182	1
162	164	2
141	142	2
198	205	1
45	68	1
43	46	1
48	110	1
4	18	3
3	20	1
39	40	3
28	29	1
228	229	1
172	189	2
127	223	1
95	95	1
77	80	1
204	207	1
36	189	1
89	89	1
66	67	3
219	220	2
84	88	1
130	131	1
46	58	2
192	194	2
95	106	1
200	218	1
9	11	1
2	210	1
61	62	2
157	158	1
163	165	1
103	123	1
173	180	1
123	123	2
195	195	2
127	130	1
9	24	1
224	224	4
113	190	1
57	193	1
202	209	1
61	63	1
150	152	1
21	23	1
207	226	1
132	133	1
57	59	2
122	123	1
46	54	1
57	61	1
8	11	2
74	218	1
172	197	1
10	13	1
100	103	1
122	129	1
19	20	1
133	134	1
7	123	1
82	82	2
184	189	1
19	62	1
168	169	1
73	85	2
236	237	1
119	157	1
56	72	2
12	13	1
210	224	1
183	230	1
44	46	1
111	228	1
123	124	1
33	54	1
202	234	1
57	65	1
76	76	1
192	205	1
175	176	1
202	203	1
46	70	1
182	184	1
