92	92	9
26	26	10
82	84	11
77	78	3
70	70	19
78	79	13
42	42	6
69	92	3
93	94	1
71	82	2
59	59	8
111	111	12
96	98	1
76	77	4
100	101	4
98	99	5
48	48	14
109	109	18
48	49	3
21	22	1
67	67	8
64	64	12
46	46	7
72	72	6
45	45	17
34	35	4
90	90	7
97	97	17
68	68	18
57	58	2
78	80	4
84	84	9
90	91	8
106	107	3
66	66	20
19	19	4
112	113	3
44	50	2
50	50	10
109	111	3
46	48	3
98	98	23
41	41	6
112	112	17
80	81	4
61	61	17
91	91	18
106	108	2
101	103	4
66	68	2
85	85	13
81	94	1
65	65	15
85	86	5
110	110	13
63	65	5
59	86	1
86	87	10
87	87	14
38	39	8
61	77	1
76	111	1
87	89	7
34	34	5
95	97	2
22	23	3
20	26	6
83	86	11
23	23	4
89	90	5
47	50	3
64	66	4
107	107	14
31	31	10
82	83	2
94	94	9
51	51	7
62	66	5
31	33	2
109	110	2
73	73	7
86	86	6
27	27	16
104	104	9
90	105	1
68	69	4
75	75	6
35	35	3
89	94	3
40	40	10
56	57	3
74	74	10
91	93	1
60	73	5
62	64	3
50	51	8
100	100	8
20	46	1
32	32	3
44	49	2
30	31	6
58	59	3
80	80	20
66	67	8
58	58	3
97	98	7
88	89	6
25	25	9
103	106	6
79	79	7
36	36	12
88	90	9
38	38	15
70	78	2
108	108	9
93	93	18
56	56	9
28	29	5
54	54	11
99	99	15
100	107	1
58	70	2
28	30	2
99	107	2
49	50	4
55	75	6
108	110	5
85	95	5
105	106	4
98	100	4
24	24	4
86	91	1
52	52	5
73	74	12
46	52	1
41	43	2
37	39	8
73	76	3
90	97	3
98	103	5
77	77	12
101	101	12
100	102	3
89	89	9
102	102	13
49	49	6
41	42	1
107	108	9
79	108	4
94	96	2
33	34	6
42	44	2
33	33	3
104	106	5
74	80	1
82	82	21
106	106	8
20	41	6
105	105	10
81	81	2
39	39	10
92	94	2
45	46	1
71	71	11
103	110	3
43	43	8
72	76	1
36	37	2
83	83	8
69	69	8
23	24	6
53	53	10
47	47	6
79	80	2
64	67	2
99	108	2
31	32	5
79	97	4
76	78	3
86	90	2
73	77	7
40	41	2
82	91	3
92	93	2
51	112	1
72	73	2
61	62	6
67	70	7
72	75	8
27	28	4
99	100	8
22	54	3
96	96	15
63	63	5
59	90	1
77	79	2
22	55	1
89	106	3
62	62	8
75	76	4
29	38	1
21	21	4
75	77	1
57	57	11
19	26	1
55	59	2
37	37	13
74	82	1
113	113	4
103	104	2
81	90	5
81	82	5
21	53	5
103	103	2
74	78	1
71	72	6
28	53	2
102	106	3
61	64	3
79	96	3
76	76	7
95	95	4
26	51	2
44	44	5
101	108	1
36	38	3
88	88	2
55	56	5
47	51	2
84	85	1
24	25	3
51	52	4
83	87	3
67	73	6
69	70	3
62	82	2
68	74	1
41	76	1
34	36	1
77	111	1
46	51	1
22	22	7
78	107	3
47	48	2
102	104	1
70	71	6
54	61	2
91	94	2
20	20	3
54	56	2
44	45	2
26	96	1
59	61	3
92	97	1
80	88	3
69	71	1
37	38	3
35	36	5
26	42	1
73	80	1
105	114	1
84	93	1
79	95	2
83	84	3
95	109	2
61	63	3
20	32	1
26	50	1
98	107	1
104	105	1
89	91	1
37	41	2
101	102	1
86	89	1
100	109	2
40	59	2
60	60	3
20	76	1
83	93	2
104	107	3
39	40	2
30	30	9
95	98	2
46	47	3
65	66	2
82	85	3
74	75	1
89	97	2
94	95	4
79	81	1
91	97	2
75	79	4
60	61	4
29	53	2
30	52	1
81	84	2
98	101	1
80	94	1
35	57	1
78	97	2
95	96	2
72	90	4
61	73	1
91	92	3
81	88	1
65	69	1
28	28	4
57	75	2
65	80	1
60	63	3
114	114	1
20	30	1
19	22	2
34	38	1
113	114	2
27	29	2
70	81	1
20	21	1
59	60	2
72	74	3
82	89	1
20	22	1
61	72	1
79	99	1
114	115	2
23	25	2
71	75	1
57	59	1
22	25	2
67	77	1
103	108	3
61	67	2
60	62	1
54	55	1
21	25	1
23	53	1
52	53	1
37	53	1
112	114	1
56	58	3
63	64	1
28	111	1
72	78	1
101	104	1
78	78	1
102	103	1
66	82	1
107	110	1
95	105	1
115	115	1
59	70	1
36	54	1
25	48	1
98	108	1
28	66	2
60	75	1
22	48	1
27	32	1
57	78	1
43	44	3
49	51	2
65	82	1
84	105	1
54	75	1
96	97	3
55	55	3
63	85	1
55	77	1
67	68	4
88	100	1
97	103	2
62	74	1
107	111	1
58	71	1
59	71	1
72	79	1
