45	77	4
53	53	16
130	131	6
75	75	20
76	76	12
104	104	19
121	121	10
47	47	3
127	127	11
16	28	2
105	115	5
7	7	19
128	129	13
132	132	13
80	108	1
81	92	2
108	130	3
108	109	8
101	101	19
109	109	6
72	72	10
58	59	6
30	103	4
105	114	4
11	12	4
105	105	11
99	99	16
91	93	4
119	119	9
58	58	11
78	113	3
130	130	16
118	118	19
129	129	19
44	45	10
108	111	4
3	4	5
124	125	8
113	113	13
82	82	10
129	131	2
92	92	13
82	83	5
131	131	3
49	50	9
125	125	28
25	25	8
52	53	4
103	103	8
65	65	13
71	71	17
96	96	9
120	120	20
124	124	21
128	128	16
33	34	4
107	122	2
126	126	22
24	24	6
7	11	4
60	60	23
112	112	16
31	32	3
114	135	3
44	44	6
116	117	18
51	51	2
86	125	9
75	77	3
6	6	3
55	55	10
106	106	20
14	14	9
55	111	2
8	11	2
43	43	15
116	116	9
83	110	2
108	128	2
13	13	4
129	130	4
89	90	4
117	117	9
106	107	7
29	29	5
75	76	5
69	69	12
66	83	3
52	52	14
24	25	4
53	54	7
46	49	10
68	68	15
4	4	6
94	94	13
55	67	3
89	89	6
88	88	4
50	51	3
1	1	8
86	87	4
54	86	5
32	34	12
8	8	9
111	111	7
114	114	13
77	83	1
63	63	11
90	90	12
2	3	4
1	12	8
107	107	10
22	24	1
11	11	3
115	115	18
96	122	1
56	56	16
118	120	3
91	91	3
33	121	3
133	133	4
78	79	1
12	13	5
93	94	6
79	79	12
87	98	3
80	80	7
70	70	11
99	100	1
28	28	12
33	33	9
74	74	8
45	45	4
22	22	5
22	23	5
47	131	4
102	102	3
81	106	1
134	134	13
69	105	3
73	73	10
32	32	2
59	59	7
8	9	5
33	38	1
86	86	7
98	98	14
61	61	10
98	99	1
58	65	1
108	108	8
112	113	4
87	88	3
78	130	2
7	35	5
3	61	1
77	77	5
83	84	9
106	111	5
10	10	13
122	132	2
123	123	12
119	120	5
84	85	6
36	36	2
78	108	2
25	28	2
9	38	3
62	62	4
2	2	1
67	67	5
85	85	24
92	93	8
75	99	3
55	56	1
26	26	13
86	92	6
58	68	1
108	110	3
49	49	6
82	86	5
79	105	1
46	46	8
32	134	3
34	34	10
95	95	7
93	93	9
110	111	3
3	3	4
0	0	8
106	110	1
107	111	3
110	120	1
0	1	2
50	50	4
33	120	2
92	96	2
67	99	1
1	2	4
126	127	3
112	121	5
111	112	6
37	37	3
21	21	5
71	72	2
64	64	5
9	11	3
83	86	6
97	123	2
23	23	4
63	64	3
50	132	4
79	80	3
50	114	1
73	100	2
64	68	2
87	87	4
106	122	6
83	83	8
105	123	1
20	20	3
97	97	12
121	122	4
110	110	22
7	8	4
60	76	2
122	122	6
89	98	1
12	12	8
94	95	4
135	135	3
111	121	3
80	81	1
130	132	2
61	62	3
122	123	7
81	126	1
124	127	2
90	98	3
125	126	7
47	110	1
82	87	2
65	102	5
19	21	2
127	129	2
88	90	2
117	122	2
56	58	2
28	29	3
88	124	3
65	73	2
100	100	5
100	101	1
54	55	5
13	14	1
81	81	3
114	115	4
82	127	2
57	57	8
78	78	1
107	110	5
61	66	1
69	78	1
78	107	2
65	67	4
19	20	8
36	60	1
113	121	5
96	97	1
82	109	3
75	111	1
12	14	1
16	16	2
58	67	1
56	57	5
126	128	2
126	129	1
134	135	3
15	119	4
95	96	2
48	132	1
97	99	7
18	19	1
55	59	2
19	19	1
125	130	3
117	118	1
73	74	3
127	128	2
28	30	2
110	119	3
68	78	4
15	16	1
116	120	2
12	33	1
31	38	2
81	102	1
57	58	2
16	18	2
97	98	2
6	11	3
92	95	2
5	5	4
103	104	6
56	87	2
31	34	2
79	90	2
105	106	2
42	42	2
88	98	1
54	56	4
82	84	2
65	81	1
32	33	1
86	126	1
24	33	3
116	118	2
5	6	1
67	68	1
77	135	1
36	61	1
98	126	2
84	84	4
33	134	1
90	95	1
30	30	3
43	44	4
86	91	2
18	18	1
54	54	2
83	85	2
35	35	3
38	38	1
84	92	1
106	120	1
62	63	2
80	110	1
44	64	1
114	123	1
82	125	1
123	124	1
109	110	3
91	92	1
97	112	1
21	22	2
124	129	1
13	26	1
23	24	1
83	125	1
71	74	1
6	7	1
113	129	1
50	129	1
66	68	1
68	107	2
55	57	1
89	92	1
54	59	1
6	35	1
35	36	1
59	68	1
78	81	1
69	70	1
85	128	1
122	133	1
87	124	1
17	17	1
