50	50	17
51	51	5
60	60	21
27	28	12
24	24	12
41	48	3
30	69	4
36	36	7
2	2	8
5	31	1
21	21	15
38	38	9
6	6	15
39	39	10
76	76	3
57	57	10
4	12	3
10	11	20
21	26	4
60	70	1
4	5	6
45	45	17
47	77	5
21	59	2
40	64	2
63	64	8
70	70	2
12	12	13
7	8	10
68	68	8
65	66	6
3	3	23
11	11	21
29	29	18
26	27	9
41	42	8
64	64	6
58	59	7
43	63	3
56	56	5
30	30	17
48	50	1
25	25	3
34	35	1
62	64	5
28	28	9
0	4	3
32	44	5
56	57	5
7	70	1
31	31	4
74	74	4
0	1	8
39	42	6
23	24	8
53	53	8
20	20	10
27	41	3
2	3	3
63	69	6
35	36	4
61	61	22
1	1	7
12	13	5
36	37	11
19	19	10
64	65	1
75	75	7
37	42	4
3	5	3
10	10	23
9	9	10
54	54	7
26	26	4
40	73	3
13	13	12
44	62	2
73	73	8
18	18	3
62	63	4
48	53	4
23	23	12
0	0	9
32	32	9
6	8	2
6	7	2
22	31	1
34	55	2
4	4	9
48	48	6
72	77	3
22	32	2
5	5	15
46	46	8
69	70	2
41	41	7
22	22	14
7	7	6
52	52	3
42	69	1
46	47	2
54	62	3
66	66	6
42	43	4
39	40	10
67	67	7
72	72	10
19	20	9
25	26	6
14	14	1
40	40	4
0	2	4
52	67	2
66	68	4
72	73	2
20	22	5
35	35	7
6	30	1
62	62	2
11	21	3
33	33	8
49	50	1
1	5	1
38	39	8
47	47	11
24	61	3
42	42	4
43	44	4
39	48	2
0	12	6
47	48	3
49	73	1
9	10	4
68	70	3
31	71	3
73	76	1
37	37	5
28	29	1
77	77	1
44	45	4
60	61	3
19	33	4
0	5	2
27	27	9
39	44	1
40	41	1
67	68	4
74	77	5
8	71	2
58	66	1
49	49	10
38	55	3
2	7	3
38	71	3
45	46	2
20	74	3
39	51	2
50	51	1
5	13	2
5	8	2
6	18	3
75	76	5
26	28	4
15	15	1
46	56	2
5	30	1
41	50	4
23	72	2
39	50	1
49	72	2
63	71	1
24	29	4
28	61	2
22	23	4
8	8	4
24	30	1
8	9	2
71	71	2
44	44	2
24	26	1
12	19	2
37	55	1
6	23	2
31	73	1
12	21	1
27	40	1
23	52	1
59	67	4
19	21	1
30	31	1
57	59	2
3	77	2
29	30	2
4	77	1
5	7	2
21	23	2
52	53	2
65	65	1
35	38	1
63	63	1
6	55	1
19	22	3
49	53	1
22	61	1
53	62	1
32	43	2
35	37	2
73	75	1
35	39	1
55	55	2
65	67	3
45	60	1
19	29	1
29	72	1
43	43	1
23	29	1
11	12	1
55	70	2
54	55	2
55	56	1
12	22	1
20	21	1
4	31	1
58	58	1
40	44	1
20	47	1
