108	108	17
121	124	2
25	25	11
102	102	2
150	150	12
77	77	3
40	43	2
50	51	5
1	115	3
118	118	9
82	82	4
119	125	3
37	37	13
91	91	9
29	29	12
123	123	18
4	132	3
6	34	3
117	117	5
131	132	7
48	49	3
83	84	5
133	133	7
66	95	2
86	86	14
39	39	9
88	90	3
97	97	7
67	95	2
114	114	12
22	103	2
46	46	15
26	46	1
149	149	3
84	85	2
111	111	12
91	92	5
107	110	1
6	6	10
120	120	13
88	121	3
116	117	6
124	126	11
44	44	11
12	12	19
103	136	1
26	26	6
135	135	13
78	79	3
95	96	3
50	50	7
34	34	10
110	110	8
18	18	5
139	139	7
30	79	4
67	71	6
42	51	1
3	61	2
65	65	3
80	80	11
66	136	1
92	92	8
69	69	8
88	113	6
17	17	9
107	107	9
122	124	3
14	15	4
147	147	12
48	53	1
54	54	11
144	145	2
66	68	4
75	75	12
52	52	4
83	89	5
22	22	7
154	154	7
33	34	1
113	115	4
153	154	5
143	143	1
112	147	6
105	140	1
28	28	11
113	114	3
92	97	4
85	85	6
119	126	5
45	45	5
109	149	3
148	149	3
107	128	2
79	80	2
19	20	8
45	47	1
93	93	11
113	113	5
16	17	1
120	137	1
131	134	1
10	37	7
8	8	8
4	131	3
73	138	6
40	48	3
126	126	13
116	116	6
126	156	1
25	53	6
63	63	5
10	10	2
135	136	2
70	70	11
71	71	10
134	134	3
3	4	3
13	13	6
155	155	3
25	130	3
75	98	1
105	105	4
137	138	3
122	122	6
72	72	3
8	13	1
151	151	13
112	113	11
44	46	5
67	69	2
87	101	1
12	13	6
144	144	11
7	7	6
142	142	4
43	43	10
112	119	2
102	157	3
144	152	1
46	48	4
66	70	1
124	124	13
84	86	5
112	112	4
25	27	2
51	51	2
3	8	1
40	55	4
100	100	7
47	47	6
106	106	5
157	157	5
105	135	5
81	81	4
93	158	1
28	83	1
133	134	5
140	157	5
4	4	5
77	79	7
53	53	1
158	159	3
140	141	1
123	124	7
11	11	8
56	56	2
119	119	11
26	30	5
153	156	2
43	46	1
36	36	5
27	28	3
120	126	5
105	106	3
146	153	1
24	25	2
10	11	3
16	40	6
35	35	5
89	113	1
27	27	1
91	129	2
78	78	2
136	136	9
19	49	6
131	133	3
119	144	1
113	118	5
45	46	5
8	9	2
9	9	2
125	126	10
20	20	4
87	87	12
89	97	1
33	65	1
27	46	5
101	102	4
68	68	4
141	141	3
65	66	2
96	97	3
96	96	4
127	128	3
145	145	4
6	7	5
97	98	6
109	110	1
108	110	3
67	67	2
125	125	8
108	142	5
11	12	2
31	31	6
134	156	2
40	40	2
132	132	12
26	45	1
40	47	1
40	41	4
55	119	2
68	71	3
129	129	5
72	73	2
131	131	4
55	55	4
33	55	3
122	123	2
25	54	1
57	57	1
67	70	2
121	121	16
154	155	2
31	50	1
158	158	2
107	132	2
14	18	3
71	110	4
50	66	3
0	149	1
104	104	4
46	55	2
93	94	6
38	54	2
98	98	6
68	70	4
31	62	2
48	65	1
84	84	5
69	95	5
33	33	1
118	119	1
116	123	2
129	130	5
152	153	8
104	105	7
30	66	1
122	144	2
104	113	4
135	139	2
141	145	3
107	116	2
73	73	3
13	14	2
113	121	1
31	79	3
115	115	2
79	79	6
101	129	2
37	47	3
41	41	5
144	146	3
5	5	4
128	128	6
51	52	3
47	48	2
23	24	3
39	53	2
112	118	2
16	16	3
46	51	1
100	133	2
70	95	2
63	64	3
46	115	2
127	152	5
81	82	3
82	99	1
10	15	2
13	18	1
130	130	4
67	142	5
19	50	1
30	33	2
39	54	5
31	64	3
88	88	1
138	138	4
31	32	3
49	49	5
21	21	1
128	130	1
48	48	1
9	34	1
84	88	1
138	139	3
151	156	1
24	24	1
22	34	2
87	90	3
114	115	3
90	98	1
151	152	2
79	101	3
45	53	2
137	139	1
54	110	4
119	120	3
103	113	3
30	30	4
22	23	1
111	113	2
92	93	2
71	82	1
99	99	5
94	94	2
108	131	2
148	150	1
126	127	2
119	155	6
107	108	2
34	67	1
32	32	3
146	146	3
3	3	2
38	38	4
2	2	1
67	156	1
68	69	2
85	89	2
107	130	1
103	103	1
75	100	1
114	124	1
78	81	3
134	135	1
120	155	1
123	127	2
77	120	1
61	61	1
148	148	6
148	156	1
64	64	2
36	37	2
27	80	1
29	78	1
133	135	1
11	36	1
104	157	1
13	19	5
145	146	1
1	1	2
16	19	2
70	71	1
28	132	2
101	101	3
118	146	1
67	68	2
116	122	1
78	97	1
65	72	1
153	153	1
16	24	1
49	50	3
0	0	3
117	120	1
37	40	2
86	89	2
103	141	2
70	76	1
101	116	1
152	152	1
104	122	2
90	91	2
125	127	2
36	51	2
21	22	3
114	135	2
15	49	2
88	130	1
127	138	1
122	125	2
37	54	1
64	90	3
95	95	3
2	12	2
114	141	1
44	45	1
127	127	2
11	16	1
33	68	1
20	71	1
89	89	1
150	151	1
36	54	1
32	33	1
76	76	2
23	47	1
40	75	1
10	34	1
31	37	2
155	156	1
143	158	1
142	143	1
72	128	1
94	96	1
16	18	1
19	19	1
38	53	1
156	158	1
10	52	1
1	2	1
32	37	2
109	109	2
137	137	5
4	27	1
14	14	1
151	158	1
25	26	1
66	69	1
107	156	1
64	92	1
141	142	1
120	123	1
0	158	1
116	120	1
66	142	1
86	87	1
90	90	2
15	16	1
25	47	1
85	86	1
