70	71	5
6	47	5
41	42	9
61	64	5
77	77	6
68	72	2
42	43	10
22	22	2
24	24	10
4	5	3
33	33	17
57	59	2
9	9	7
45	45	14
7	7	11
20	20	9
62	62	3
50	50	6
13	14	7
48	64	2
58	67	2
43	43	9
27	28	5
76	76	4
69	74	1
6	6	6
51	54	5
66	66	11
61	61	4
73	76	7
39	40	6
64	64	4
43	72	4
71	71	10
8	8	4
56	56	6
4	4	10
67	67	7
41	72	2
59	59	17
29	29	10
0	0	4
39	43	2
50	52	6
54	54	12
69	69	9
25	26	7
47	47	8
49	49	6
32	32	5
39	44	5
55	55	12
49	50	15
14	33	4
38	38	4
61	63	7
26	26	17
34	53	1
18	18	5
34	34	8
32	33	4
68	68	7
60	60	11
21	22	7
35	35	13
22	23	8
73	75	3
48	48	14
3	3	11
28	28	4
46	46	11
1	2	9
33	34	4
55	61	4
65	65	4
53	53	4
2	2	10
57	57	15
58	58	9
61	62	2
45	46	5
40	40	6
60	61	9
73	74	3
44	54	1
74	76	2
52	53	5
30	30	6
10	11	4
74	75	2
19	19	6
30	31	7
26	33	2
49	67	1
41	49	4
28	29	3
72	73	4
18	19	2
49	51	2
25	27	4
75	75	4
63	64	6
44	60	1
36	38	3
63	63	5
35	37	1
27	27	7
44	75	3
1	5	2
68	69	8
0	1	6
74	74	2
71	72	3
5	28	4
51	53	4
70	73	1
26	28	1
73	73	3
1	1	4
32	47	2
46	48	1
25	28	1
59	61	1
25	25	3
3	4	2
41	41	10
55	71	1
54	56	5
36	43	1
44	44	2
10	10	3
58	59	2
62	64	3
36	36	12
43	71	1
29	30	3
22	24	1
13	13	6
2	3	8
52	52	5
21	21	5
15	24	3
6	28	3
19	20	3
7	22	3
35	41	1
14	14	4
35	36	5
23	24	3
44	46	1
31	32	6
6	11	1
44	53	2
49	66	1
75	76	2
46	47	1
38	42	4
42	42	3
40	41	2
31	31	1
34	54	1
36	37	6
40	43	3
37	40	1
8	9	7
59	67	2
6	7	4
41	58	1
54	71	2
37	37	3
41	43	1
64	66	1
74	77	1
31	49	3
27	29	2
48	49	1
44	73	1
39	39	1
31	39	1
51	59	2
61	69	2
12	19	1
57	58	3
61	68	2
48	50	3
2	5	1
11	12	2
43	44	2
40	48	1
33	45	2
64	67	1
7	8	1
32	37	1
63	76	1
5	5	2
72	77	2
68	71	1
62	65	2
5	13	1
34	37	1
72	72	1
26	27	1
