15	19	2
13	13	52
29	29	23
48	49	20
31	31	47
70	70	57
7	8	8
7	7	62
2	3	6
57	58	31
59	69	1
9	12	13
63	64	29
9	27	4
28	69	2
4	4	56
9	10	17
69	69	96
82	82	86
15	16	9
54	54	63
71	71	47
61	61	77
13	14	7
19	19	61
6	7	22
55	55	55
60	60	52
14	14	67
53	53	76
15	15	37
83	83	78
57	57	72
58	58	58
18	21	2
30	31	4
52	52	63
26	72	4
3	3	61
34	35	17
27	27	75
65	71	2
51	51	57
76	76	46
22	23	4
26	26	45
66	67	24
12	15	6
10	10	53
86	86	62
17	49	5
75	76	19
60	73	7
26	27	23
11	11	47
16	26	4
66	66	80
20	54	3
23	23	54
74	74	54
47	78	2
69	87	3
2	2	79
52	54	3
1	1	39
48	48	54
15	23	1
24	69	2
11	21	1
60	62	12
56	56	58
67	67	93
72	72	57
19	20	21
8	47	2
59	60	41
59	78	5
68	68	80
2	71	2
30	30	95
17	17	56
78	80	7
17	20	10
10	13	15
81	81	79
53	61	2
21	25	2
87	87	67
75	75	88
84	84	55
78	79	36
22	22	41
77	77	54
9	9	58
50	50	73
54	65	2
49	49	80
17	19	7
6	32	3
85	85	64
47	55	3
20	20	53
62	63	26
34	34	33
4	58	3
86	87	17
67	80	2
28	28	25
77	78	20
61	62	24
78	78	59
9	49	4
25	25	39
47	47	57
78	83	6
6	51	3
54	56	5
29	66	3
8	8	43
12	17	2
77	82	1
24	24	85
21	21	36
89	89	75
17	18	7
83	86	6
80	80	88
58	61	5
61	66	7
0	1	16
60	83	2
26	68	2
64	65	20
12	13	25
85	86	9
63	65	19
10	12	8
58	74	2
15	27	2
68	84	1
75	77	16
53	75	8
12	28	3
54	55	15
72	81	4
5	6	10
53	55	21
59	61	16
63	63	36
13	17	4
0	0	35
79	79	66
52	53	6
9	80	2
13	78	3
56	57	2
52	56	2
21	22	10
1	2	8
5	5	22
21	30	2
25	26	16
59	59	47
65	82	2
3	85	5
65	66	8
19	26	4
58	59	9
8	9	17
62	62	50
23	25	5
8	53	6
53	57	3
46	46	26
18	18	19
74	75	16
34	77	2
51	77	1
47	48	28
76	77	23
27	49	4
82	83	30
64	64	32
11	13	6
18	19	8
53	82	6
24	27	4
64	66	4
5	10	5
11	17	2
58	85	4
50	60	6
50	51	20
75	81	5
1	3	4
73	73	64
6	87	1
49	83	4
65	65	34
19	25	7
62	65	7
10	11	8
60	61	28
25	27	21
49	62	3
9	53	2
79	80	20
77	87	2
67	89	2
49	50	28
15	57	3
23	48	2
88	88	30
0	50	2
73	83	2
53	81	10
56	75	4
54	66	4
79	81	15
80	90	6
84	85	25
67	72	1
80	81	20
59	63	14
81	82	22
16	16	12
12	12	50
62	64	18
7	62	2
75	80	2
12	49	5
46	79	3
52	77	4
76	78	5
9	28	2
72	73	18
31	68	1
64	74	1
6	8	8
47	49	7
80	83	1
47	83	3
56	67	2
11	14	4
63	66	4
21	48	4
69	70	10
46	47	5
53	79	5
77	80	6
3	4	24
52	55	9
78	84	3
51	60	2
55	71	4
29	30	9
27	83	2
55	56	4
68	80	1
52	78	14
6	23	3
13	26	7
2	19	3
48	58	4
7	26	5
11	46	2
59	82	1
1	85	3
53	54	25
32	32	5
59	65	2
12	19	4
11	12	14
54	77	1
51	78	2
48	61	3
26	83	2
10	30	3
67	75	4
57	89	1
4	14	2
5	8	13
7	49	6
70	71	6
16	17	10
61	75	1
9	22	4
27	28	12
7	19	2
12	21	2
63	78	11
14	22	1
66	71	1
64	82	3
88	89	17
62	73	3
16	18	4
49	58	2
72	74	8
17	31	2
69	82	2
9	66	2
71	77	1
61	76	2
27	47	2
35	35	5
49	78	1
52	58	2
84	86	6
57	74	2
19	23	1
8	55	2
55	61	2
6	6	56
69	85	1
19	31	2
26	47	8
5	47	1
52	57	3
61	74	4
51	52	28
16	19	5
52	73	1
76	83	7
70	79	1
79	83	15
52	59	2
74	83	1
48	51	3
5	75	2
4	77	2
1	14	2
6	9	4
7	52	2
24	25	13
5	66	5
68	86	1
67	69	2
54	63	1
49	66	2
73	74	6
90	90	14
20	21	16
30	84	1
55	66	2
14	53	5
7	13	2
6	78	6
4	57	2
51	55	2
14	19	3
63	73	1
73	76	5
20	26	8
6	52	4
35	63	3
54	58	1
65	80	2
56	77	1
9	83	1
48	83	1
72	77	4
51	53	3
14	30	3
50	54	2
63	77	1
66	81	5
6	10	3
55	82	3
12	47	2
23	24	21
59	62	4
8	17	5
7	20	3
20	47	1
58	81	3
9	64	3
72	80	2
20	22	3
56	61	2
66	78	2
15	20	1
50	52	1
28	30	4
50	77	2
10	55	2
5	13	1
8	10	11
10	17	3
60	63	3
8	60	2
68	69	24
6	46	3
58	60	5
7	67	2
5	34	1
51	63	6
58	63	2
50	53	5
72	82	2
57	80	1
58	79	2
49	67	2
61	63	6
6	13	2
5	20	5
17	51	1
14	48	4
54	57	3
67	71	4
3	87	4
22	26	2
11	65	1
66	79	9
48	77	4
24	79	3
60	80	2
20	27	4
66	73	1
49	56	1
49	64	3
53	72	1
57	87	3
25	75	1
2	14	1
20	76	1
46	49	6
62	78	1
77	79	7
16	25	4
34	51	4
28	29	4
83	84	3
53	66	6
61	72	1
50	57	2
46	89	3
13	50	1
49	51	3
55	83	3
55	76	2
7	46	1
57	70	1
48	55	1
56	74	1
6	17	2
4	11	1
87	88	1
62	79	1
78	82	2
9	24	3
13	20	2
13	16	1
17	25	3
21	47	2
69	81	1
1	71	1
67	74	1
0	69	1
9	23	5
50	56	2
21	26	3
53	85	2
20	48	1
63	82	1
49	77	4
5	56	1
0	67	2
21	23	2
61	64	1
7	64	3
12	85	3
67	85	1
4	24	2
31	32	2
4	5	2
33	47	2
6	27	5
71	72	2
54	60	1
60	79	7
69	83	2
16	27	1
5	22	2
6	59	1
71	74	2
51	83	1
60	71	4
15	87	4
51	56	3
6	25	3
5	28	1
65	78	2
19	27	2
35	52	1
5	26	2
75	86	2
47	82	1
76	79	4
82	85	2
21	71	3
3	74	2
56	65	2
13	71	2
29	58	1
55	81	1
23	86	1
69	73	2
19	89	3
15	48	1
48	74	1
8	24	1
54	85	1
11	50	1
16	47	2
9	21	1
49	59	3
56	80	1
57	81	1
15	21	3
65	87	1
49	73	1
32	33	2
19	24	1
5	25	2
72	75	2
55	60	1
50	65	1
27	82	2
10	20	2
6	26	3
81	83	1
5	79	2
20	23	3
31	83	3
22	24	2
57	72	1
53	58	1
51	65	1
73	82	3
54	59	2
46	64	1
26	48	1
30	32	1
53	84	2
7	79	1
47	77	1
17	71	1
76	80	2
22	48	2
74	76	1
50	63	2
55	69	4
6	65	1
31	52	2
24	47	2
5	51	1
9	11	2
30	77	2
24	26	1
48	50	5
19	77	1
53	83	1
10	28	3
51	54	1
46	48	3
77	84	1
8	78	2
67	68	6
50	59	2
70	75	1
60	64	2
11	25	2
2	86	3
51	72	1
80	85	3
49	55	2
13	49	1
65	68	4
59	64	1
81	86	1
53	60	2
59	77	3
27	31	1
16	57	1
8	34	1
80	84	2
12	14	1
58	64	1
6	64	1
0	75	1
5	76	1
19	78	2
84	88	1
15	29	1
62	72	2
9	20	2
22	25	2
46	71	1
3	21	1
20	25	1
10	31	1
88	90	2
48	87	1
53	56	1
70	72	1
11	26	1
49	52	2
3	11	1
59	66	2
50	80	1
5	12	2
70	74	2
73	79	1
48	66	1
50	55	1
6	49	1
73	75	2
14	15	1
54	80	1
6	19	2
50	79	1
66	75	1
74	81	1
65	83	1
9	13	1
54	83	1
68	70	1
13	30	1
66	87	1
15	18	2
19	84	1
4	22	1
21	24	1
72	88	1
70	86	2
8	51	1
57	75	1
49	60	1
17	27	1
50	61	1
8	12	1
58	80	1
56	82	1
1	89	1
50	58	1
66	80	1
0	66	1
55	65	1
89	90	1
9	54	1
62	82	1
77	90	1
71	73	1
23	26	1
8	25	1
21	49	1
50	67	1
7	22	1
25	29	1
50	83	1
25	28	1
49	74	1
26	82	1
57	68	1
22	67	1
12	82	1
66	84	1
14	17	1
52	81	1
67	87	1
49	54	1
17	32	1
62	66	1
7	12	1
86	88	1
5	9	1
49	65	1
19	62	1
