97	98	6
63	63	23
81	127	3
6	15	3
47	47	50
9	9	33
96	97	8
119	119	9
93	100	5
85	86	11
17	45	1
34	34	40
66	66	21
96	96	27
7	25	2
9	20	4
114	114	24
71	71	21
4	5	6
33	33	38
27	27	5
70	70	15
81	81	12
12	13	8
45	61	3
114	127	1
32	33	12
99	102	1
124	124	10
26	92	6
68	68	16
127	134	2
47	48	16
41	85	2
45	45	33
112	112	13
77	79	4
57	108	3
7	7	25
19	19	20
110	110	19
5	5	34
13	14	13
31	31	10
61	62	9
65	65	31
14	14	21
121	123	2
125	126	10
123	124	10
7	23	5
16	20	3
19	35	7
19	96	1
8	17	9
95	95	24
114	126	5
43	43	8
19	34	2
99	99	18
62	62	22
94	94	18
48	48	14
78	78	42
56	57	10
60	60	26
76	77	7
103	104	8
76	76	20
36	83	2
6	6	25
56	58	5
82	83	11
47	97	3
26	26	34
27	93	3
61	76	1
37	37	22
107	107	3
11	12	6
102	102	4
29	30	7
79	79	8
24	26	1
98	98	10
13	15	4
45	46	10
41	42	6
7	95	2
122	122	20
72	72	9
64	64	39
85	85	15
124	125	4
40	40	15
88	88	16
93	93	41
11	11	22
92	93	6
117	117	12
111	112	6
25	48	3
2	102	3
87	131	2
23	23	12
82	82	10
83	83	9
87	132	2
45	95	1
18	18	12
94	101	1
44	44	16
13	75	6
126	127	6
11	93	8
86	98	4
74	75	8
26	31	4
46	93	2
88	94	1
123	123	4
113	115	6
21	61	2
34	35	8
64	68	3
63	68	3
90	91	6
112	113	9
67	68	6
101	101	16
23	25	4
126	126	8
91	92	4
12	12	21
77	82	7
32	32	25
36	57	1
130	130	10
59	59	27
21	82	3
63	64	8
2	3	8
102	103	3
95	96	5
79	84	1
87	87	22
33	45	4
44	91	3
80	81	8
93	98	1
106	107	2
43	85	5
9	10	15
56	56	12
101	102	1
21	39	2
46	46	17
16	16	18
109	109	16
94	95	11
45	96	1
23	24	3
107	109	3
11	73	1
99	101	5
96	101	5
29	29	24
84	85	7
104	104	8
8	8	24
95	109	3
3	3	7
77	77	12
75	76	12
67	70	2
25	25	18
114	115	1
20	23	4
110	111	8
30	30	7
111	111	11
100	101	3
75	75	27
113	114	7
97	97	3
128	133	3
4	16	1
26	27	13
69	69	25
105	105	10
4	14	1
22	44	3
113	113	6
86	86	15
79	80	3
22	22	7
103	103	6
15	16	7
59	60	6
88	90	4
89	89	7
78	79	8
87	88	5
9	46	1
71	72	12
42	43	1
17	71	1
62	64	5
128	128	16
69	71	6
61	61	12
84	87	7
31	32	5
28	61	3
37	55	4
100	100	18
72	73	5
62	63	3
74	74	14
101	104	5
7	26	1
39	39	6
59	106	1
106	106	5
116	116	15
8	36	2
0	1	1
66	68	1
59	62	3
4	7	3
24	83	6
66	67	7
109	110	7
21	21	15
15	15	14
56	82	3
16	23	2
121	122	4
38	38	4
3	4	3
126	129	6
75	117	6
30	73	2
104	108	3
81	83	5
22	89	1
13	13	12
93	95	7
16	17	3
37	39	1
91	91	14
57	58	13
32	40	1
6	97	1
4	4	16
23	31	2
4	6	6
96	98	3
6	8	8
27	28	3
10	10	11
36	36	10
9	16	3
20	20	7
110	126	1
126	134	3
24	24	8
79	81	3
35	73	4
115	116	3
2	63	3
41	41	6
20	21	5
4	60	5
36	91	5
42	42	2
84	84	21
28	28	19
20	35	4
57	57	12
35	36	12
21	42	4
96	100	1
19	71	2
29	47	3
117	118	4
17	17	11
118	118	7
35	74	3
28	30	4
125	125	10
74	77	3
39	41	5
23	74	2
30	31	5
119	120	3
13	46	2
117	119	9
127	127	4
67	67	4
6	95	5
62	76	2
88	92	2
19	20	12
116	117	5
14	15	3
2	2	7
62	75	5
33	46	2
20	36	1
55	55	7
88	91	4
1	1	6
17	18	3
11	69	5
1	6	3
12	74	1
27	58	4
4	116	7
73	73	11
11	46	3
38	43	2
49	49	7
51	82	4
27	80	5
48	49	7
68	69	8
85	131	3
128	129	4
29	74	2
82	84	3
35	35	18
97	101	1
15	30	4
61	96	1
18	45	1
18	71	4
43	48	2
67	69	1
113	117	2
10	13	2
6	22	3
11	44	4
25	26	3
89	91	2
24	25	8
16	18	3
38	42	1
93	94	8
117	120	4
129	129	4
98	100	6
69	70	13
19	44	2
80	80	11
39	40	2
11	31	1
118	119	4
12	81	2
0	2	1
126	128	3
58	59	3
95	99	2
75	134	2
0	0	3
32	36	5
12	83	4
67	73	3
27	48	6
26	29	4
36	56	1
93	109	1
70	74	2
70	71	1
10	11	4
131	133	3
121	121	1
90	90	4
45	89	2
81	82	3
108	108	9
9	11	6
101	108	1
58	58	17
45	78	1
34	76	4
43	44	4
10	12	1
112	117	1
14	72	2
28	49	4
122	125	1
11	28	3
19	46	2
7	8	5
26	91	2
99	100	3
86	92	3
13	23	1
17	73	1
14	22	5
134	134	5
73	74	2
20	38	1
10	44	3
3	8	2
33	34	5
98	99	2
90	92	3
18	19	6
36	37	2
15	31	2
85	102	1
65	86	1
101	103	3
94	96	3
15	29	4
84	86	2
37	82	1
14	94	3
45	70	3
78	129	2
99	104	1
100	107	1
78	85	2
31	59	2
10	75	2
20	62	1
100	103	4
12	45	3
39	50	2
120	120	6
120	121	6
88	89	1
73	76	2
32	79	1
116	118	3
85	128	1
62	68	5
120	122	2
92	92	4
23	77	1
117	123	4
122	124	2
48	79	1
32	92	3
97	99	1
20	43	1
35	37	1
55	56	1
17	41	2
118	120	2
6	20	1
115	115	4
41	50	5
25	49	1
24	82	3
25	61	2
81	129	1
8	96	2
77	78	1
130	134	2
1	69	1
94	131	1
105	112	2
49	50	1
7	15	2
12	14	2
19	39	2
101	105	2
60	61	1
11	13	3
44	45	5
78	127	1
27	29	3
3	95	4
64	65	4
111	126	3
3	61	1
33	35	6
5	6	3
86	88	1
8	9	10
23	93	1
45	113	1
65	66	2
64	78	1
3	60	1
112	129	2
66	83	1
129	134	4
24	57	2
65	67	1
108	124	1
16	73	2
66	73	3
6	92	2
37	38	1
25	93	1
9	45	1
102	110	2
73	129	1
114	116	2
12	103	1
83	133	1
89	95	3
29	91	2
76	82	1
46	47	5
16	44	1
3	102	3
85	87	3
76	78	1
29	49	4
11	24	5
41	45	1
85	129	1
54	54	1
3	10	1
26	47	1
29	34	3
17	85	1
32	39	1
102	104	1
11	74	1
113	120	2
21	41	1
97	104	1
3	20	1
28	29	2
33	36	1
19	45	1
35	45	1
48	78	1
74	96	2
17	44	3
27	90	1
62	78	1
86	87	2
45	62	1
64	86	1
107	108	1
6	88	2
12	32	1
7	82	1
33	60	1
6	7	2
21	43	1
78	80	2
132	132	1
61	72	1
6	96	1
78	86	1
89	93	1
19	70	1
33	38	1
26	93	1
83	84	3
95	106	1
113	119	1
34	104	1
66	98	1
4	15	1
6	94	1
94	128	1
96	104	1
21	76	1
