163	163	7
102	102	7
129	169	3
3	3	8
82	103	6
204	206	3
16	16	3
12	13	3
128	173	2
58	59	4
33	57	2
191	191	3
17	17	5
178	180	3
167	168	2
27	27	15
70	70	1
177	177	5
182	188	3
113	113	4
18	18	8
239	239	5
39	136	2
48	58	1
33	33	7
23	23	6
158	158	12
66	68	5
61	62	2
233	233	2
69	69	10
169	170	1
3	7	3
222	226	3
217	217	4
153	153	4
215	215	3
125	126	4
216	216	9
224	224	10
186	187	3
148	156	7
185	187	5
113	114	7
44	44	5
31	60	3
9	9	15
88	238	2
45	63	3
168	172	2
164	185	2
240	240	10
60	60	4
200	200	3
52	58	6
20	20	3
222	222	3
56	57	7
9	20	2
15	41	4
78	79	2
67	67	10
82	82	4
84	84	6
96	96	4
25	68	4
66	66	11
12	37	2
131	152	4
64	65	6
122	122	4
212	212	8
119	143	1
86	86	9
189	189	4
171	171	4
50	50	2
221	221	7
25	25	7
176	176	5
59	60	4
198	200	5
165	166	3
35	35	8
81	81	2
46	72	2
5	212	1
23	34	1
74	74	3
8	22	5
101	101	6
214	214	16
133	148	3
168	170	7
163	170	2
12	31	3
104	105	3
109	109	2
40	40	2
49	60	2
21	21	7
138	139	6
15	37	2
150	150	2
103	119	4
63	63	4
198	198	4
172	172	1
105	105	7
21	22	1
121	121	6
63	64	2
161	161	6
141	141	3
156	189	4
140	143	4
57	57	2
52	52	4
20	188	2
68	68	1
19	19	4
68	69	2
100	100	3
83	83	6
163	164	1
164	164	4
44	55	2
173	173	2
72	72	4
35	36	2
160	160	4
78	78	4
237	237	9
200	205	1
235	236	2
143	154	3
77	127	1
65	71	1
204	215	3
81	83	3
108	114	3
28	28	6
84	113	1
228	228	7
152	152	1
153	155	1
219	219	2
16	17	1
178	178	4
38	38	7
217	218	3
182	182	2
65	65	7
22	22	1
148	148	4
49	50	1
9	10	4
76	76	2
149	150	2
205	205	4
74	101	3
99	99	7
64	64	4
44	74	3
228	231	2
202	202	8
127	127	4
10	212	4
46	46	2
115	115	4
169	184	3
9	57	2
42	51	2
146	155	1
46	47	2
2	2	2
9	88	2
40	41	3
141	146	2
27	38	1
29	30	1
9	11	4
144	144	2
5	88	3
6	6	4
1	1	3
123	123	1
62	62	2
131	131	1
123	127	1
224	225	1
233	234	4
0	0	5
12	12	3
178	179	2
77	79	1
24	24	3
47	47	6
77	78	1
230	230	1
237	238	1
168	168	3
117	117	4
71	88	4
22	31	1
155	156	2
80	80	1
194	196	2
223	223	1
137	137	3
234	234	1
142	142	5
48	186	1
53	53	2
73	73	7
238	238	2
7	7	1
36	36	5
104	116	5
130	169	1
206	213	1
61	61	1
143	146	1
2	3	2
67	70	2
29	29	2
98	239	2
201	226	1
116	117	1
228	229	4
14	15	1
11	17	2
112	112	1
179	180	2
227	227	1
197	197	2
11	11	3
1	7	2
102	135	1
125	125	2
120	120	4
22	23	1
103	103	2
71	72	2
7	22	2
37	37	4
128	128	3
44	73	1
101	102	1
198	199	2
98	98	3
39	39	5
0	1	3
163	167	1
221	222	1
114	114	2
23	30	1
181	181	3
108	109	2
163	171	1
169	169	1
206	223	1
69	70	1
187	222	1
79	80	3
109	157	1
5	6	1
31	33	1
220	220	1
59	61	1
31	34	4
32	32	1
135	135	1
54	76	1
175	175	1
170	172	2
180	180	1
4	4	1
40	42	2
157	157	1
74	193	1
39	201	2
8	8	2
76	95	2
28	35	1
203	203	1
225	225	2
173	174	2
156	156	2
55	55	3
109	181	1
25	28	1
147	147	2
229	229	1
10	10	3
5	5	3
30	30	1
136	136	1
4	5	1
207	207	2
11	19	2
44	232	1
229	230	2
167	172	1
218	219	1
15	38	1
122	123	2
141	142	1
85	85	1
117	119	1
193	193	1
153	154	1
146	146	1
29	36	1
58	58	3
195	215	1
81	84	1
27	28	2
190	191	1
4	7	1
149	196	1
175	182	1
71	71	2
37	38	1
114	116	1
195	195	1
225	226	1
176	207	1
19	20	1
3	79	2
51	52	1
185	185	1
129	129	1
208	209	1
211	212	1
143	190	1
174	174	1
120	170	1
164	165	1
197	228	1
121	127	1
79	79	1
65	66	1
54	55	1
199	220	2
11	59	1
103	104	3
147	148	1
187	188	1
108	108	2
112	113	1
12	39	2
95	110	1
199	199	1
54	54	1
98	99	1
232	232	1
9	42	1
172	173	1
11	36	1
199	200	1
