10	11	18
12	13	34
153	153	35
68	68	17
3	3	58
121	122	14
0	0	43
27	29	10
116	120	2
30	31	24
19	19	63
30	30	79
107	107	26
88	89	17
12	12	46
145	145	33
11	45	2
61	62	15
6	7	12
44	44	48
18	21	11
59	60	17
20	20	50
3	4	23
19	31	7
10	10	79
117	117	29
25	26	23
114	114	22
129	129	29
32	32	68
28	28	62
12	16	4
8	9	32
2	6	4
157	157	42
101	102	11
155	155	42
72	73	12
105	107	6
159	160	5
55	55	27
13	13	76
137	137	28
39	41	3
58	58	7
9	9	82
53	56	2
163	165	8
3	11	11
4	7	20
142	142	24
4	4	66
140	161	3
113	113	23
105	106	15
31	31	52
17	115	1
135	157	5
126	128	4
180	180	20
63	63	22
128	128	24
29	29	47
24	25	51
60	60	21
104	104	28
23	23	77
160	161	13
32	33	21
29	30	23
154	154	34
170	170	35
123	124	18
43	45	8
59	61	8
171	171	45
14	14	94
125	125	30
97	97	26
18	23	3
15	16	22
150	152	1
118	119	7
173	173	44
127	128	15
94	94	16
122	124	10
31	32	26
37	37	59
100	108	1
81	89	8
7	14	5
8	11	8
43	44	15
93	94	16
24	24	44
39	40	36
18	49	3
151	152	10
146	146	38
60	78	5
26	29	4
21	23	10
18	19	22
100	100	33
38	38	66
57	58	3
5	33	4
172	172	29
76	76	25
175	175	19
41	41	46
144	144	18
166	168	12
29	33	7
103	104	9
11	11	70
112	114	16
27	27	58
169	169	29
34	34	39
33	34	15
85	108	1
35	35	58
21	21	27
19	42	2
9	11	11
28	30	25
77	78	9
147	148	25
82	82	18
9	33	2
90	90	23
109	109	48
111	118	5
100	101	16
140	140	35
140	174	14
117	121	2
73	73	16
4	6	11
121	121	28
24	26	11
156	156	31
115	116	14
93	93	29
142	145	5
158	158	33
15	91	1
40	41	12
127	131	3
80	80	21
43	43	51
87	87	34
51	51	29
115	115	22
66	67	11
56	56	21
20	23	5
102	105	5
37	38	13
17	23	3
16	16	58
87	90	3
141	141	23
14	35	5
162	162	34
111	111	34
3	23	2
7	7	50
123	123	18
119	119	24
86	86	18
74	76	3
18	18	34
5	20	2
124	124	19
116	116	28
22	23	32
17	25	2
84	84	14
154	155	4
99	102	1
138	139	8
79	79	25
56	57	7
65	66	10
13	16	3
145	163	2
22	22	35
108	108	21
20	21	18
106	121	2
168	168	29
64	86	2
169	170	15
161	161	35
12	35	2
5	7	21
15	15	60
164	169	6
166	166	26
164	165	24
157	158	13
126	126	29
21	22	19
163	163	25
0	1	12
29	41	5
38	39	21
10	73	4
97	98	9
143	143	23
90	93	6
145	153	3
60	64	2
136	136	8
59	59	21
148	148	44
12	43	2
7	8	15
106	107	16
91	91	18
75	136	4
33	33	37
8	43	5
5	5	63
25	25	33
6	45	1
102	102	43
127	152	4
52	54	1
32	36	7
35	37	3
129	130	8
28	29	25
150	150	40
75	75	31
149	149	26
44	45	18
86	87	19
78	81	5
23	24	30
28	31	9
143	146	5
9	12	8
97	117	2
108	109	10
170	171	21
122	123	2
30	35	4
179	179	27
34	58	5
27	40	2
51	52	6
92	143	4
178	179	10
174	174	20
98	98	22
101	112	3
80	83	4
130	130	18
15	18	10
158	166	1
61	105	1
13	42	5
19	21	4
70	71	6
176	176	26
67	68	7
16	17	19
112	112	36
45	45	52
165	165	23
8	20	2
143	144	24
77	77	25
121	128	2
25	41	6
117	118	16
122	125	7
132	133	21
36	36	51
110	111	24
84	85	11
85	99	6
118	118	36
42	42	44
17	17	44
163	164	13
86	117	1
32	64	2
34	36	8
103	105	8
53	77	2
71	71	40
10	16	18
5	6	33
33	76	3
1	2	14
120	129	2
165	168	10
85	94	4
4	8	2
146	161	4
62	62	17
112	113	15
26	26	52
53	53	15
2	2	31
174	175	16
105	129	3
26	27	16
64	64	22
90	122	1
27	28	38
52	52	35
167	168	12
40	40	50
89	89	11
92	92	33
27	32	3
60	65	1
8	8	62
110	110	38
62	63	24
66	66	17
1	31	2
3	5	8
105	105	29
1	1	34
102	103	16
10	17	1
155	157	3
62	81	1
146	147	5
8	10	11
14	78	3
81	81	27
50	51	21
143	145	11
99	99	15
117	119	9
151	167	7
85	110	4
151	155	3
4	22	3
4	5	23
106	106	33
139	139	28
142	150	1
14	15	10
80	82	4
165	166	18
60	77	1
72	138	3
151	151	28
6	6	59
49	50	4
13	81	2
11	15	6
93	117	1
103	103	38
96	100	6
120	120	32
67	67	11
2	3	27
94	96	1
45	46	5
122	122	22
116	123	3
36	38	5
74	74	15
152	152	35
14	23	2
4	36	1
90	92	11
87	88	9
88	88	17
85	109	5
63	115	3
2	4	5
161	162	14
95	95	39
57	57	11
65	65	13
147	147	25
156	157	5
25	28	5
22	25	7
175	177	2
26	28	25
78	79	13
162	164	3
111	114	5
177	178	16
9	10	19
28	39	3
114	116	5
104	130	19
145	146	13
166	167	14
50	50	16
102	106	3
173	174	12
20	161	2
159	161	7
64	115	1
131	132	6
162	163	14
101	105	1
135	135	16
12	27	2
97	100	1
140	143	2
149	151	3
146	152	3
115	117	3
158	159	24
96	96	13
121	123	1
130	131	6
141	147	3
116	125	9
35	38	6
7	17	1
43	60	3
85	86	8
57	61	5
139	142	1
20	33	2
39	39	46
9	45	2
150	151	10
14	91	1
133	134	13
106	130	2
65	90	2
83	83	26
58	74	2
87	89	7
65	96	2
24	31	3
44	74	5
10	90	2
59	65	2
79	81	5
52	53	19
99	100	18
167	167	33
81	82	8
172	173	12
86	92	2
79	83	1
120	121	15
178	178	24
51	53	3
30	68	2
159	159	25
78	78	29
57	59	11
95	96	4
149	150	7
22	28	4
21	24	2
8	12	8
6	44	5
147	163	3
85	85	25
54	56	7
98	101	2
33	35	10
58	71	1
162	166	1
148	165	1
158	160	7
177	177	2
17	18	10
9	14	7
1	3	5
83	89	3
124	125	11
57	139	3
35	36	12
142	159	2
84	107	2
167	170	4
11	20	4
5	34	1
171	172	5
66	102	4
118	154	1
89	90	4
61	91	2
114	115	4
12	14	3
26	31	2
83	85	1
141	174	1
110	112	2
54	55	3
33	38	6
172	174	5
19	20	15
152	156	7
11	23	3
158	162	5
16	44	4
155	156	19
72	72	29
16	20	1
100	107	4
107	109	4
60	61	21
68	72	1
149	154	3
94	142	3
170	172	3
146	148	6
118	121	1
75	76	14
13	14	16
159	162	8
127	133	4
123	125	5
21	104	1
88	119	3
84	113	3
150	169	8
54	54	12
13	30	5
127	127	21
104	105	13
36	155	1
104	117	4
107	108	7
105	111	1
151	154	2
80	81	12
113	114	11
53	59	4
110	119	1
160	163	2
118	153	3
10	14	11
29	38	4
142	143	9
155	158	5
23	27	7
11	12	11
120	157	3
158	161	4
167	180	6
4	18	4
40	42	9
91	146	2
114	172	2
156	158	3
118	156	3
119	125	8
116	117	15
36	37	25
45	85	4
139	174	5
80	91	2
110	115	2
115	118	6
42	87	2
37	72	2
132	136	5
136	137	3
166	169	1
6	38	2
131	131	21
160	160	12
113	117	5
42	43	12
150	170	3
150	154	8
8	44	3
95	114	3
14	19	5
85	89	1
138	138	29
64	66	6
0	38	2
40	43	4
134	134	21
56	75	2
92	93	3
124	126	4
3	13	4
25	31	2
21	28	4
11	13	11
56	58	5
83	87	5
55	56	6
141	158	5
103	107	7
19	22	5
174	177	1
112	115	4
128	130	6
128	129	10
34	35	16
113	115	3
129	151	1
79	80	17
101	101	23
141	159	9
1	5	6
168	169	20
5	10	5
132	132	23
53	54	17
164	164	26
15	19	4
141	142	4
87	110	5
14	16	8
156	164	1
27	30	4
68	71	2
2	33	6
104	110	1
111	112	3
35	44	1
96	112	4
62	82	3
94	95	5
23	31	1
10	13	7
152	153	8
61	61	25
70	90	1
108	111	2
49	51	2
99	101	9
53	71	2
11	167	1
156	167	4
134	156	3
16	18	15
58	72	4
38	42	1
75	135	1
29	31	13
126	127	14
96	97	6
63	64	10
45	74	3
76	77	15
109	119	8
156	170	1
151	153	7
91	93	2
120	173	3
102	111	1
175	176	7
125	140	2
129	152	4
3	7	2
32	38	4
117	146	2
58	105	4
143	150	3
16	21	4
140	154	1
57	62	7
18	91	1
130	144	2
86	112	2
18	20	3
8	13	6
57	75	1
146	150	4
176	177	1
6	95	1
94	146	1
94	143	2
18	22	3
17	33	2
42	45	4
62	83	1
135	136	8
14	81	2
134	135	4
67	96	2
109	110	2
90	91	12
58	64	1
9	19	5
4	33	8
119	120	3
67	72	1
18	115	2
63	117	2
44	54	3
105	130	1
53	61	2
25	34	3
91	94	3
161	170	2
59	64	1
63	103	2
37	40	2
63	82	3
37	71	2
5	24	2
137	174	3
41	42	18
2	17	5
3	9	4
146	154	2
127	129	1
173	177	4
2	7	6
4	37	2
141	143	4
62	103	3
99	113	1
22	27	4
53	57	3
112	149	1
133	137	6
139	140	4
44	87	4
70	74	4
57	60	9
132	134	5
84	112	1
144	145	10
23	25	7
67	73	4
155	170	3
27	39	2
64	65	12
103	120	1
154	156	5
4	16	6
6	32	3
20	40	6
158	164	3
12	15	1
71	72	5
74	75	3
23	29	1
24	27	6
82	113	1
11	14	2
141	175	2
31	33	6
147	162	5
81	83	7
66	101	3
38	45	2
155	159	2
107	110	4
53	78	3
8	16	4
23	26	5
95	97	2
15	33	2
137	140	4
98	114	3
21	33	2
21	49	3
155	167	1
153	155	3
100	149	2
11	16	2
125	130	3
133	133	20
140	142	2
166	171	1
1	27	5
152	155	3
111	113	4
141	153	1
13	43	5
156	169	2
18	33	2
140	141	12
63	65	1
54	59	1
137	173	5
76	94	1
91	92	8
66	96	1
160	162	8
58	76	1
4	9	1
108	127	3
134	136	1
137	170	1
143	155	1
167	169	2
104	119	2
168	172	1
11	43	2
98	99	6
25	32	1
40	54	3
9	15	3
21	30	4
60	81	1
30	32	3
27	42	1
84	86	8
14	22	3
113	116	1
14	45	2
18	27	2
16	29	2
152	154	3
73	74	7
84	108	4
34	37	2
44	66	1
82	87	3
155	163	2
16	23	2
124	129	1
6	14	1
58	59	2
56	60	5
31	35	2
63	84	7
44	68	1
34	72	1
7	86	4
0	17	2
153	154	3
10	24	3
55	57	3
9	18	2
157	159	2
5	94	2
55	72	2
10	43	2
3	17	1
6	86	1
148	158	5
137	169	2
140	166	1
90	120	2
25	35	1
22	31	2
63	81	1
61	115	2
61	64	1
80	90	1
49	49	6
81	90	3
13	41	1
26	30	3
79	115	1
0	10	2
8	19	4
168	170	1
141	144	3
122	132	1
14	44	1
148	149	4
123	140	1
10	15	3
32	34	5
147	164	3
86	88	2
61	103	1
31	54	1
6	20	1
13	15	7
132	149	6
84	99	1
10	42	1
125	128	2
89	123	2
7	15	3
23	43	1
15	80	1
16	91	1
103	114	1
129	155	2
23	160	2
108	122	2
65	82	4
119	146	5
79	105	1
176	180	2
137	138	7
85	111	1
125	127	5
22	142	2
104	106	3
21	27	2
19	50	2
103	106	5
5	51	1
2	16	1
16	94	3
39	72	2
10	22	1
98	113	1
65	83	1
91	143	1
72	75	2
99	107	2
6	17	3
98	151	1
149	163	2
15	41	2
61	87	2
116	164	1
138	172	2
103	113	1
141	152	3
14	18	4
36	39	2
21	167	1
80	93	1
85	113	1
26	38	2
90	94	2
111	115	2
93	102	1
122	139	1
1	6	5
1	94	2
98	150	1
41	43	1
83	84	6
23	34	1
143	156	2
106	115	4
139	175	4
113	119	2
17	24	1
105	110	2
102	118	2
66	95	2
6	43	1
166	170	1
179	180	1
1	37	1
3	6	2
107	142	2
33	44	2
102	150	2
145	150	2
9	13	4
23	142	1
162	167	2
2	15	3
98	100	3
3	20	1
101	110	3
53	139	4
50	53	3
14	68	1
52	94	4
1	14	1
10	21	1
22	24	1
56	61	2
97	101	1
1	52	2
154	170	3
104	108	3
150	157	1
60	66	1
62	64	2
109	123	1
171	173	4
1	95	1
96	98	1
25	58	1
78	103	2
111	116	5
115	122	2
83	91	1
30	33	3
5	22	7
120	125	1
56	73	3
173	175	2
111	156	3
116	119	2
20	27	3
163	179	1
70	73	1
50	52	2
43	46	1
114	118	1
102	112	1
55	89	1
134	137	1
1	178	1
128	131	5
167	172	3
151	168	4
147	150	2
92	94	2
39	43	1
45	66	1
104	109	1
37	41	4
67	101	2
10	132	1
19	105	2
16	19	3
53	60	2
163	169	1
109	118	2
97	118	4
25	106	2
62	113	1
15	32	2
55	60	1
159	167	2
17	91	1
96	101	1
127	179	1
136	174	1
14	92	2
140	172	5
144	146	2
15	144	3
126	140	1
31	73	2
4	160	1
93	103	2
14	165	2
119	122	7
38	71	3
140	160	1
142	144	1
1	12	1
43	72	1
11	24	3
74	136	2
45	81	2
98	110	3
142	171	1
139	141	4
135	137	1
55	59	1
61	81	2
7	44	1
24	33	1
66	75	3
136	157	1
14	34	2
141	176	1
153	172	1
151	169	2
7	9	1
0	29	1
63	116	2
10	64	3
126	131	2
17	21	1
110	116	1
95	135	2
24	37	2
77	81	1
65	102	1
103	110	1
7	11	1
33	39	1
52	59	1
119	129	1
72	82	2
161	163	2
44	85	1
54	57	2
97	132	1
97	111	2
118	151	1
111	149	1
35	39	1
94	108	2
22	29	2
106	108	1
44	46	1
2	37	1
74	77	2
131	152	1
61	63	4
2	39	1
117	147	4
90	146	1
56	59	1
15	17	1
35	76	1
111	135	2
39	133	1
155	166	2
17	19	1
0	5	1
10	12	4
150	153	2
17	42	2
123	154	1
99	110	1
14	82	1
139	143	1
27	31	2
12	21	1
55	71	1
120	122	1
173	178	1
96	121	1
31	34	2
56	76	2
27	41	2
58	60	1
12	33	1
38	40	2
93	104	1
6	23	1
111	164	1
33	72	1
73	79	1
165	170	1
152	162	1
3	15	1
42	86	1
139	154	1
89	120	1
10	166	2
16	38	1
44	60	1
143	147	1
114	144	2
54	74	1
20	49	1
157	164	1
17	22	2
137	171	1
25	27	2
8	15	1
129	154	1
177	180	1
74	135	1
10	33	2
96	104	1
120	128	1
94	145	1
28	55	2
101	107	1
16	41	2
144	151	2
4	40	1
123	130	1
74	138	1
152	170	2
10	84	1
143	154	1
65	101	1
29	32	1
101	111	1
5	23	2
8	55	1
152	166	1
43	74	2
127	151	1
54	77	1
41	44	1
125	126	2
72	76	1
96	99	1
17	55	1
139	176	1
65	97	2
97	124	1
5	8	2
142	156	1
139	171	1
26	50	1
126	133	1
138	171	1
97	122	1
7	22	1
19	106	1
6	13	1
90	135	1
110	113	1
3	18	1
105	128	1
32	35	1
141	167	2
148	157	1
63	66	1
10	23	2
6	9	1
73	75	1
93	124	1
50	93	1
89	146	1
10	32	1
0	91	1
116	163	1
155	169	1
11	18	1
119	121	1
7	45	1
14	166	1
6	12	1
22	30	1
83	116	1
18	25	1
116	128	1
53	82	1
74	133	1
135	156	1
