5	5	10
34	35	3
33	42	4
87	129	1
128	129	11
55	55	2
60	60	5
127	127	18
33	34	5
45	56	6
23	23	5
43	47	2
90	90	7
125	125	11
101	101	10
2	2	7
131	133	5
17	17	3
95	95	12
114	114	4
96	97	3
45	45	4
16	16	6
110	118	2
86	86	4
95	105	3
127	134	4
69	69	13
108	108	6
7	7	1
32	32	5
77	78	4
43	43	18
49	50	7
54	54	9
66	67	2
24	24	6
109	110	5
79	79	14
133	133	1
102	102	6
114	115	1
60	61	2
6	6	6
130	130	8
28	28	2
43	48	3
122	122	5
6	22	3
31	57	2
12	12	8
43	88	5
78	84	2
73	73	8
35	36	3
100	100	9
67	67	4
131	131	3
67	68	3
134	134	4
22	25	2
85	127	3
66	68	6
74	76	6
3	3	6
93	93	2
104	104	11
105	105	13
119	122	1
36	37	2
33	76	3
14	14	4
93	121	2
121	121	5
73	74	2
52	85	6
94	95	3
59	59	7
113	113	7
55	56	1
135	135	4
22	22	4
66	86	2
51	51	1
93	101	4
27	28	3
102	103	4
106	106	18
24	25	2
106	108	3
117	117	7
51	79	2
4	5	2
70	71	2
96	96	3
76	82	3
64	64	8
84	88	3
122	123	2
74	74	2
119	119	7
111	115	3
80	80	9
55	57	1
126	126	4
32	33	5
43	58	4
123	123	8
6	12	1
87	88	2
37	37	4
44	48	2
59	60	10
112	113	3
95	123	3
106	113	1
61	61	1
85	85	4
88	89	4
121	122	4
98	98	10
111	112	7
86	87	1
101	113	2
63	64	3
37	105	1
83	83	1
85	88	2
106	118	1
70	70	5
118	118	2
99	99	11
4	31	2
63	63	6
50	51	5
109	111	3
75	75	20
112	112	14
131	132	1
78	78	6
91	94	2
110	110	2
89	89	4
103	103	9
116	117	3
132	132	4
94	123	1
19	19	6
111	113	3
88	88	5
83	84	2
54	55	1
129	131	1
53	53	5
82	84	2
117	118	2
109	109	3
111	111	5
19	20	1
80	81	1
94	94	5
0	0	4
108	111	4
85	121	2
79	80	2
76	76	2
14	15	1
14	88	1
49	63	1
77	77	6
61	106	1
53	84	2
1	2	1
60	76	3
91	92	2
107	108	7
101	115	2
117	119	2
11	43	3
66	66	3
72	73	2
124	124	2
65	79	2
13	13	1
56	59	2
34	34	5
108	109	2
81	81	1
10	10	4
76	88	1
35	78	1
106	107	4
128	128	2
92	92	1
38	66	4
91	91	3
107	107	5
129	129	2
91	113	1
18	21	1
50	50	1
105	129	4
120	121	1
75	76	1
30	32	2
100	120	3
79	94	1
62	63	4
57	58	2
46	57	1
75	99	2
64	65	1
26	26	1
125	135	1
86	88	1
22	23	1
119	124	2
130	131	2
79	103	2
92	93	5
71	71	4
43	44	8
46	49	1
81	89	1
100	117	1
20	20	8
58	58	2
97	106	1
57	84	1
93	120	2
8	8	5
87	115	2
44	44	4
7	8	1
107	115	2
98	109	2
44	45	1
103	113	3
21	25	1
58	59	2
115	115	2
99	103	2
42	43	4
30	30	1
74	75	1
56	56	1
35	91	1
38	38	2
49	52	1
87	87	5
8	18	2
29	29	2
88	127	2
118	120	1
125	126	2
15	15	2
62	64	2
52	52	1
45	97	1
113	114	1
31	61	1
67	82	1
110	111	1
82	83	2
0	43	1
13	95	1
20	86	1
49	54	1
48	48	2
9	25	1
9	9	2
68	68	1
27	27	2
69	70	1
23	24	1
100	101	1
124	130	1
65	66	1
52	53	2
1	1	1
38	42	1
18	18	1
116	116	1
65	69	1
17	18	1
47	132	1
12	36	1
73	89	1
69	77	1
3	4	1
72	125	1
