30	32	4
51	56	2
61	61	16
21	21	13
54	56	3
3	3	5
38	38	15
51	53	5
40	40	11
51	51	15
60	60	16
57	57	18
23	24	1
54	54	14
6	6	9
1	3	3
22	22	6
58	59	12
8	58	2
32	32	18
2	2	12
14	15	3
30	31	5
43	43	16
33	33	23
9	9	5
45	45	18
46	46	8
20	20	4
16	17	5
44	44	13
39	40	8
22	24	2
4	4	6
20	57	1
29	30	3
9	18	6
47	57	1
32	35	1
30	47	2
33	34	5
7	58	3
23	23	16
58	60	4
36	36	20
41	59	3
25	25	10
12	12	8
0	0	15
42	61	2
5	5	14
10	10	5
47	47	12
16	16	7
32	36	1
30	30	10
30	36	2
58	58	16
52	52	11
32	37	3
8	8	8
19	19	7
29	29	2
47	48	4
8	21	2
32	33	5
52	53	5
49	49	9
47	49	2
56	56	13
39	39	16
11	12	6
40	42	6
1	56	2
34	35	5
50	50	27
42	52	3
41	41	9
1	1	5
35	35	14
56	60	2
44	61	1
13	13	12
47	58	1
10	11	8
31	31	15
14	14	9
32	34	1
31	33	1
3	52	3
50	52	2
48	48	8
29	44	2
18	21	2
18	23	3
34	34	12
59	59	9
4	10	2
37	48	1
15	16	4
38	39	9
18	62	2
4	9	4
56	57	4
53	54	13
45	46	5
3	4	1
55	56	3
15	15	11
38	54	1
37	37	11
55	55	21
39	55	1
49	50	5
47	60	1
18	18	6
17	17	4
4	5	2
7	7	5
44	46	2
37	38	5
39	58	1
31	32	4
3	56	1
36	43	2
11	20	3
18	19	3
30	35	4
19	37	2
21	24	3
0	1	3
51	54	6
6	9	1
40	41	3
42	42	13
38	41	2
2	52	2
46	47	3
30	46	3
53	53	7
3	51	3
39	46	1
19	23	3
11	11	5
1	52	1
24	24	6
33	36	1
40	55	2
3	53	1
52	54	2
2	3	1
25	50	1
9	57	1
57	58	2
25	47	1
62	62	6
42	43	2
60	61	3
37	61	2
37	40	1
19	57	2
46	58	2
34	49	2
46	59	2
29	40	2
37	39	1
45	51	2
7	59	1
21	23	3
22	23	3
40	46	1
31	38	4
50	53	3
45	57	2
38	49	1
22	40	2
39	42	2
1	58	1
2	4	1
0	51	3
1	2	1
55	57	1
40	51	1
35	36	2
54	55	1
30	44	2
35	37	2
42	44	1
41	45	1
1	25	1
10	50	2
3	9	2
44	45	1
9	50	2
59	60	1
40	50	1
57	59	1
42	49	1
33	35	2
52	60	3
2	49	1
41	53	1
1	57	1
34	62	2
7	8	1
31	49	1
6	7	1
25	44	1
36	42	1
12	13	1
11	13	1
50	55	1
29	41	1
31	37	1
47	55	1
24	55	1
42	46	1
46	60	1
