17	17	15
9	9	17
62	62	22
57	57	23
4	4	11
1	2	9
11	11	16
69	69	20
73	73	11
81	81	21
88	89	4
56	56	15
51	51	15
57	71	2
85	85	16
1	1	10
50	50	20
75	75	16
49	49	14
88	88	5
9	13	3
20	20	18
23	23	18
5	8	3
87	87	12
58	66	1
52	52	14
73	74	12
47	48	8
78	78	17
14	14	11
82	82	25
77	77	20
7	7	15
80	81	11
72	73	9
63	63	8
61	83	3
5	5	9
60	60	13
52	70	2
70	72	1
51	71	1
71	71	22
63	65	3
57	74	7
16	26	2
84	84	15
9	11	4
72	72	9
56	57	3
55	55	5
5	6	15
27	27	14
71	79	6
65	66	4
86	87	11
19	19	16
82	83	7
58	58	20
3	3	8
62	63	8
11	31	4
62	64	1
76	82	4
81	82	5
1	3	6
78	79	20
65	65	7
6	6	14
89	89	25
47	47	11
15	15	10
25	25	15
8	34	3
3	10	2
61	61	4
76	76	13
50	56	6
19	28	4
48	49	11
54	56	1
48	48	8
20	22	3
66	66	14
86	86	10
10	10	16
54	55	5
74	74	19
22	22	14
13	13	9
76	77	7
80	80	11
49	56	6
84	87	2
21	23	1
8	9	3
10	13	3
59	59	12
50	52	4
49	54	3
7	8	6
60	62	9
69	87	2
23	31	1
79	80	3
59	82	8
63	64	9
50	83	1
71	81	8
31	31	11
49	83	4
30	30	11
72	76	1
48	81	4
48	56	5
14	15	2
10	14	3
2	2	10
51	53	2
83	83	4
74	77	3
17	22	2
49	52	3
67	67	6
68	69	3
81	83	2
24	84	1
8	8	6
5	7	4
63	66	4
70	70	5
53	53	17
79	83	3
26	26	26
33	35	5
20	34	1
24	24	8
83	87	2
50	51	2
34	34	11
18	19	4
77	78	5
67	69	1
6	7	11
64	66	2
20	27	3
47	51	2
50	82	4
55	58	2
75	76	4
9	28	3
28	28	7
51	61	3
80	85	4
68	68	9
23	28	3
52	59	1
50	55	1
58	87	2
64	64	8
59	61	1
77	83	2
46	47	3
85	86	5
48	54	2
75	78	1
12	12	6
23	24	2
11	12	1
10	12	5
79	79	9
18	20	3
33	34	1
47	79	3
51	52	11
71	72	3
65	87	3
22	23	1
13	25	1
60	61	2
52	53	3
61	62	2
27	28	2
53	55	2
48	80	4
10	29	4
29	57	1
46	49	2
25	26	2
55	56	2
7	20	1
25	28	2
70	71	1
60	82	1
54	54	6
3	12	3
89	90	2
62	65	2
57	58	1
29	86	4
69	74	1
57	66	4
20	55	2
70	73	3
67	68	2
18	18	4
54	78	2
72	80	1
75	77	3
58	61	3
19	20	1
59	63	2
58	86	1
54	75	1
64	71	1
8	20	3
64	65	1
19	21	1
22	25	1
26	27	2
57	69	3
49	53	1
58	81	1
52	63	1
19	31	1
17	18	4
6	19	5
75	82	1
6	16	1
16	68	1
15	16	2
47	86	2
74	85	1
23	75	2
56	59	1
9	10	4
21	22	3
71	80	1
17	19	2
83	84	1
31	84	2
79	85	1
67	84	2
90	90	2
29	29	2
47	80	2
63	81	1
54	82	1
12	24	1
34	35	1
10	27	2
55	59	2
48	84	2
58	60	1
84	85	2
66	67	1
62	83	2
61	77	1
0	0	1
46	54	1
20	31	1
12	13	2
68	89	1
57	86	1
2	3	1
68	84	2
53	54	1
69	75	1
12	32	1
60	81	1
77	79	1
57	67	1
27	30	1
