44	51	2
40	40	15
34	34	21
43	43	26
48	48	31
57	57	14
42	42	16
23	23	8
22	22	10
31	55	4
54	54	18
3	4	1
22	24	4
35	37	1
32	32	18
58	58	13
48	60	1
23	24	2
35	35	14
1	1	11
12	12	9
43	47	1
17	18	3
32	40	1
56	56	8
50	50	21
1	15	2
29	37	1
40	42	4
2	6	3
9	9	7
46	46	9
15	15	9
54	60	1
13	14	1
11	11	2
46	47	1
54	56	1
31	31	7
56	59	9
42	44	4
55	55	15
16	17	6
9	13	3
37	60	1
18	53	4
30	30	12
51	51	16
4	4	5
35	36	2
11	12	3
30	31	12
32	45	2
31	54	3
30	61	2
47	47	12
38	38	17
38	40	4
60	60	6
52	53	4
13	42	3
45	47	2
45	45	18
18	18	6
17	17	9
53	53	4
24	24	12
38	59	1
44	44	14
0	0	4
16	19	10
62	62	12
5	14	1
4	5	5
36	37	3
8	8	2
41	41	20
61	61	4
45	56	3
52	52	13
6	7	6
31	32	3
8	13	3
36	51	1
3	3	8
48	49	6
34	37	2
55	59	3
42	45	2
0	2	2
50	60	1
33	34	6
51	52	7
13	13	9
18	19	2
22	41	1
14	15	4
32	35	1
45	59	4
7	7	5
10	10	5
37	37	7
42	48	1
6	6	6
39	61	2
25	30	2
59	59	12
25	25	9
55	56	2
47	56	2
39	39	5
5	8	4
44	45	2
36	36	10
57	59	2
43	44	6
35	49	2
20	21	3
44	58	1
31	44	3
49	49	7
21	21	10
36	60	1
16	16	5
2	2	4
51	58	3
58	59	4
45	57	2
46	48	3
55	57	2
38	41	2
36	58	1
31	45	3
0	52	1
41	43	1
49	52	3
56	60	6
22	23	1
50	51	6
37	39	5
44	46	4
45	49	1
53	54	4
0	1	4
4	6	1
53	55	4
5	6	3
15	17	5
32	44	2
8	9	3
51	53	4
3	5	2
38	39	4
20	20	2
36	38	3
9	12	3
44	59	2
44	60	5
7	14	2
59	60	3
41	42	1
5	7	3
14	22	1
54	59	1
50	52	2
61	62	3
37	38	1
34	35	3
47	48	1
21	24	1
12	14	4
40	41	4
43	62	1
22	25	2
44	62	1
12	41	1
52	57	2
60	61	1
37	56	1
58	60	1
42	56	2
57	58	3
10	11	2
39	40	2
56	58	5
15	18	1
23	26	2
17	20	2
36	39	3
44	56	1
57	60	1
19	19	2
33	33	5
36	59	1
34	46	1
45	50	2
5	5	1
49	50	1
37	57	1
37	51	1
30	60	1
13	15	2
45	46	1
55	58	1
24	41	2
42	60	1
34	36	1
9	39	1
37	43	1
31	60	1
49	58	1
46	59	1
15	16	1
14	48	1
17	41	1
1	2	2
9	14	1
49	51	1
