190	190	17
241	241	23
26	26	19
14	14	22
109	109	8
20	107	2
25	25	19
27	27	11
111	111	14
47	47	25
23	23	32
227	227	20
191	195	3
174	178	2
201	201	25
15	79	5
221	222	7
155	155	38
176	210	4
178	178	22
211	245	2
231	231	11
238	239	5
76	108	7
176	177	5
229	229	14
191	215	8
153	153	25
167	167	9
164	164	21
33	36	10
17	52	5
107	108	3
72	73	7
227	228	7
22	23	6
3	12	2
241	243	5
166	170	5
171	171	16
226	226	30
106	107	7
51	52	4
36	36	14
113	113	17
69	69	16
192	192	13
172	172	15
115	115	18
176	176	15
240	243	4
191	191	12
68	69	6
25	26	16
56	56	27
119	119	17
36	37	2
213	213	13
233	233	6
74	77	3
205	205	33
247	247	14
10	11	3
14	236	3
237	243	4
170	195	3
64	65	9
182	182	24
170	171	7
172	173	6
160	160	39
196	196	10
56	58	1
71	90	1
202	202	18
104	120	6
85	116	4
64	64	19
24	24	10
90	105	1
217	217	15
81	81	13
8	40	3
197	197	8
28	28	31
58	58	18
10	10	18
200	202	3
17	18	8
92	92	14
237	247	1
8	22	4
95	97	2
51	51	27
108	109	8
50	50	10
6	32	5
118	119	6
99	103	4
186	186	15
190	191	9
91	106	2
199	199	8
223	223	19
84	85	5
38	38	19
37	37	18
218	219	8
181	181	17
27	39	13
209	209	31
156	156	34
12	59	2
179	179	24
58	60	9
112	243	4
51	79	2
211	211	6
17	38	8
151	151	27
32	32	13
42	42	18
94	94	17
66	67	4
188	193	5
12	12	10
204	204	26
43	43	19
48	48	19
234	246	3
152	152	16
234	235	4
244	245	10
50	61	5
34	34	18
102	102	14
117	117	18
163	164	21
234	234	13
88	88	13
33	33	25
41	41	21
114	114	12
197	200	3
52	52	19
34	37	6
158	220	2
104	105	9
120	120	23
55	55	8
239	240	3
108	108	24
22	22	23
209	210	8
7	7	17
79	79	15
230	230	17
165	165	12
48	99	1
61	61	6
112	112	17
94	95	3
111	244	1
203	203	18
163	163	17
99	101	9
52	72	1
20	20	17
174	174	22
193	193	7
177	177	16
8	206	1
116	116	17
207	211	5
88	154	3
87	87	12
19	19	25
77	77	32
5	5	22
200	200	21
245	245	22
11	11	13
189	189	29
244	244	15
239	239	14
222	222	18
146	152	7
65	65	12
17	17	16
245	246	9
168	168	26
151	152	3
52	73	5
185	185	19
49	49	26
205	219	1
147	147	3
75	76	6
188	189	15
198	199	14
12	15	2
18	18	14
47	48	9
100	100	12
93	93	11
145	145	10
82	82	5
200	212	2
48	55	4
240	244	4
212	212	17
236	236	17
207	212	13
159	159	32
76	76	7
217	218	1
162	162	18
169	169	10
169	200	2
9	9	23
214	214	16
113	144	1
99	100	5
157	158	8
93	101	2
199	231	1
3	6	2
53	67	4
237	237	9
216	216	19
38	39	3
64	71	2
242	242	11
221	221	6
215	215	21
31	40	6
110	110	22
57	58	11
68	68	15
67	67	6
188	194	2
246	246	14
233	234	2
71	71	33
248	248	10
60	60	6
76	77	4
59	60	7
204	225	1
59	59	13
90	91	6
194	194	12
192	195	7
154	154	21
67	86	2
3	35	2
214	215	11
33	34	3
53	66	2
29	29	3
96	96	24
51	87	6
171	172	9
1	1	18
240	241	2
207	207	9
238	238	22
35	35	16
3	3	5
91	91	12
210	211	9
20	22	1
86	86	9
80	81	4
1	157	2
188	205	2
218	218	5
199	200	3
83	84	18
215	216	8
2	3	9
72	118	6
158	158	15
0	1	1
46	76	3
166	179	1
21	21	11
174	244	2
102	104	1
183	183	12
210	213	1
161	161	8
72	72	8
232	232	10
105	106	13
106	106	6
15	220	2
99	99	8
210	210	15
97	98	4
16	218	3
104	104	12
180	180	5
39	39	17
15	15	19
237	248	8
212	220	7
188	188	14
47	49	1
74	75	3
32	33	2
32	39	4
95	95	14
156	157	7
53	53	14
118	118	22
195	196	7
114	115	6
11	12	3
70	70	10
187	190	1
209	213	8
146	146	10
100	101	5
101	101	16
62	78	3
144	144	19
89	93	3
164	181	2
101	200	3
73	186	3
75	75	21
175	175	13
100	106	6
170	193	3
39	40	4
157	157	13
107	184	2
240	240	14
4	4	15
208	208	28
25	29	2
27	41	1
119	120	4
29	30	3
176	209	3
94	110	7
85	86	12
100	104	2
74	87	5
170	222	1
242	243	8
195	195	18
87	88	3
74	85	7
44	44	12
211	212	6
175	176	17
187	187	13
49	51	3
58	62	1
219	219	19
104	189	1
102	103	4
8	8	12
173	173	16
230	231	4
84	84	6
63	119	2
171	173	3
158	160	2
51	90	4
98	98	8
207	208	2
198	198	16
197	198	3
208	209	6
201	206	5
113	193	4
45	46	3
238	247	8
30	30	11
180	187	5
170	170	22
72	112	3
31	31	12
208	210	1
78	79	5
55	75	2
176	211	2
106	108	1
82	83	9
194	195	8
191	240	2
85	85	15
113	114	5
73	74	5
220	220	16
225	225	17
236	248	4
50	51	1
42	149	3
38	40	4
223	224	7
84	87	4
103	103	5
8	11	1
14	15	7
97	97	7
171	175	3
145	178	3
57	57	5
121	121	4
241	245	6
106	164	2
228	228	4
69	71	2
191	192	12
117	119	2
4	238	1
66	110	2
196	208	3
235	235	3
89	89	5
77	90	1
54	55	4
17	69	1
45	45	5
243	243	8
15	69	6
114	145	5
48	61	2
4	5	9
70	114	2
83	83	4
174	209	7
229	230	12
27	28	3
183	184	3
54	88	2
24	27	3
9	11	6
225	226	2
185	186	3
192	211	1
62	62	21
184	184	8
189	190	9
204	205	2
90	90	12
107	116	5
53	62	4
150	150	12
73	73	6
146	159	2
171	244	3
55	57	5
152	153	3
222	223	1
85	109	4
26	64	6
81	83	3
46	201	2
249	249	6
2	2	6
16	70	1
161	162	3
189	197	6
164	209	3
101	107	2
146	153	2
224	229	1
77	117	2
157	159	5
12	68	2
101	103	2
193	209	3
67	116	3
8	20	1
90	114	2
38	70	2
6	6	9
226	230	2
192	239	5
179	185	3
187	188	13
224	225	6
194	210	3
190	240	3
96	97	6
214	247	2
158	179	2
78	78	7
43	105	3
7	17	3
98	103	1
190	243	3
185	189	1
80	80	13
81	82	8
191	218	2
190	193	1
166	167	3
82	92	7
107	107	5
246	247	3
65	184	4
15	16	2
118	187	2
34	48	4
188	237	2
16	16	7
48	50	3
92	95	4
181	196	5
216	236	5
166	166	13
30	31	3
92	93	2
193	194	5
247	248	3
120	157	3
23	24	2
96	98	3
58	119	2
46	46	7
190	233	1
163	165	1
88	229	2
164	194	2
32	44	2
64	186	2
178	180	1
116	119	1
72	87	3
94	106	4
92	162	3
203	204	11
111	112	3
179	180	1
71	111	1
226	227	2
65	111	1
33	35	1
161	167	1
37	48	1
171	174	2
150	195	2
91	99	2
224	224	5
21	22	1
58	155	4
2	38	1
197	221	1
162	165	1
33	162	1
213	214	6
1	185	1
7	18	3
145	156	1
34	38	2
165	167	2
215	218	7
74	74	12
201	223	2
187	191	2
162	163	3
110	111	6
13	14	2
45	113	2
176	228	2
3	41	9
234	237	2
63	63	4
224	227	2
34	36	4
151	169	2
26	94	2
165	177	1
79	89	1
115	117	5
198	235	1
5	39	1
195	208	2
3	4	2
203	229	2
56	57	1
177	180	3
114	155	1
209	211	3
158	166	2
51	108	1
43	230	4
164	180	2
243	244	4
72	74	1
152	183	7
33	58	1
183	209	2
115	116	2
17	19	3
99	102	3
42	55	1
112	113	9
144	148	2
104	106	7
202	203	1
101	102	4
155	156	4
207	219	2
238	249	2
187	247	2
205	232	2
205	228	1
210	216	2
6	16	2
189	191	2
6	7	1
199	223	1
92	105	2
63	74	1
146	147	1
206	206	4
92	100	1
62	118	4
30	32	1
105	105	4
185	192	1
190	213	1
144	225	1
21	91	3
77	78	4
166	177	1
163	177	2
159	163	3
214	242	1
40	40	3
174	194	2
52	56	1
186	189	3
182	210	1
71	120	1
56	121	4
166	176	1
65	66	1
213	218	1
56	62	3
183	193	5
8	218	1
90	116	2
44	204	3
95	96	5
151	179	1
165	166	1
87	197	1
175	182	2
231	232	2
219	236	1
215	247	2
79	85	3
205	206	1
32	36	2
159	165	2
34	35	3
44	78	2
211	213	1
2	37	2
95	161	2
183	198	2
63	115	3
70	111	1
15	236	1
90	106	3
7	41	3
66	180	2
15	54	2
167	189	1
188	190	1
76	84	1
63	120	1
206	207	3
180	195	2
167	190	1
46	47	1
46	118	1
160	165	3
184	185	2
7	206	2
183	225	2
97	153	1
235	242	1
91	184	3
198	200	1
55	56	3
160	162	4
43	44	3
111	245	2
9	19	2
76	85	1
19	24	1
231	234	1
100	102	1
65	180	3
79	88	2
158	165	2
86	90	2
242	246	2
150	161	1
188	215	2
62	64	2
69	88	2
162	164	1
69	70	2
8	9	3
45	66	1
89	90	4
61	62	2
184	224	2
167	207	2
185	219	1
78	84	2
25	27	1
44	88	1
228	229	1
28	32	2
75	103	4
44	45	4
24	26	1
162	168	1
6	60	1
167	169	2
181	182	3
163	194	1
31	205	1
37	38	2
175	209	1
169	170	5
226	245	1
55	84	1
54	54	3
191	231	1
232	233	2
207	220	4
151	153	1
48	49	1
184	225	1
186	221	4
66	66	3
78	103	1
179	183	3
243	245	2
161	219	1
187	199	1
28	207	3
224	226	3
37	162	3
219	220	3
182	183	1
1	2	1
180	183	2
7	8	3
164	177	1
160	167	2
28	29	4
44	230	1
216	218	1
21	90	1
51	249	4
44	228	1
97	107	1
161	218	1
197	231	2
144	145	1
29	33	1
159	160	1
150	151	1
188	199	1
110	113	3
238	240	1
167	168	2
6	40	1
59	186	2
8	23	1
173	201	1
156	167	2
166	191	1
35	48	3
7	44	1
173	178	2
183	208	2
183	211	1
33	39	1
38	53	1
91	97	1
110	153	1
49	60	1
75	108	1
81	120	1
116	120	3
117	193	1
212	232	1
1	42	1
24	25	1
86	114	1
90	95	1
21	23	2
222	241	1
195	211	1
36	161	1
168	169	1
31	32	1
63	118	1
115	156	1
192	193	1
92	98	1
206	211	1
163	167	2
3	36	1
145	220	1
170	217	1
15	55	2
149	149	2
9	26	1
177	194	1
59	86	1
20	21	1
116	241	1
23	90	1
94	185	1
175	210	1
39	47	1
178	226	1
49	50	1
171	180	1
181	208	1
220	221	1
62	93	1
