26	27	8
29	37	3
50	54	1
46	46	8
52	53	2
23	44	6
24	25	1
2	3	8
49	49	11
62	62	4
41	42	3
29	29	10
32	67	2
66	67	11
27	27	8
66	66	10
35	54	2
51	51	11
71	71	18
68	68	5
20	25	2
39	39	13
65	65	8
8	8	17
70	71	11
36	37	3
23	24	5
45	46	1
30	30	7
8	76	3
44	44	9
3	3	10
50	50	8
31	74	1
60	60	18
40	40	7
23	54	2
10	10	12
5	6	12
0	1	5
12	12	10
26	28	5
18	36	2
8	28	3
21	22	8
6	6	5
18	19	6
28	28	8
28	29	5
22	22	13
37	37	6
30	31	2
55	55	5
28	68	1
6	41	6
30	53	8
76	76	3
22	25	5
45	45	6
34	61	2
19	20	1
56	56	5
3	4	3
22	23	7
9	9	7
13	64	3
74	74	2
29	63	5
63	66	4
11	11	14
58	58	4
31	31	3
40	72	3
21	38	3
5	5	2
48	67	2
1	1	6
14	14	3
32	32	8
18	18	6
5	8	2
53	53	11
32	62	1
5	62	1
43	44	4
69	69	9
4	5	5
7	28	1
20	20	12
32	59	6
36	36	2
13	13	2
43	54	2
30	33	3
24	42	6
43	43	4
63	63	1
65	66	3
67	77	3
72	72	4
35	51	2
50	51	6
13	67	1
72	74	2
37	38	1
21	21	6
70	70	2
2	2	10
49	51	2
20	21	4
42	42	3
61	61	3
35	60	3
57	57	9
46	47	3
13	68	3
52	52	1
8	9	3
33	65	3
29	67	1
73	73	3
27	28	2
30	52	3
36	39	1
32	45	1
53	57	3
20	55	4
59	59	6
42	44	2
45	74	1
43	53	1
1	13	2
74	76	2
67	67	2
54	54	1
4	4	2
25	25	3
5	42	1
45	72	1
26	26	2
7	8	4
23	57	1
34	35	3
24	24	2
48	48	8
72	73	6
5	64	2
19	19	4
77	77	3
9	26	4
51	52	2
41	41	2
6	9	5
49	74	1
35	59	1
35	36	1
38	38	5
41	45	1
34	59	1
39	40	1
6	8	1
21	35	1
61	62	2
6	42	1
31	33	1
2	13	1
64	64	1
24	27	2
24	30	1
0	0	1
23	23	2
12	23	1
45	47	2
71	72	1
31	39	1
9	28	1
62	65	1
28	30	1
6	62	2
41	50	2
43	51	1
13	45	1
30	68	2
50	53	1
32	33	2
64	67	1
22	28	1
56	72	1
29	68	1
45	50	1
31	68	1
7	7	1
10	11	1
24	53	1
75	75	1
7	29	1
40	41	1
12	43	1
47	47	1
6	12	1
64	68	1
52	54	1
35	35	1
36	61	1
48	70	1
53	54	1
