45	45	3
94	94	6
44	46	1
113	113	2
101	101	8
165	165	6
79	93	6
128	128	2
109	109	2
133	133	4
158	160	2
125	130	3
134	134	5
25	25	1
2	2	8
120	153	1
14	14	6
35	35	8
145	146	2
122	127	1
130	146	2
108	108	2
98	127	3
105	115	4
88	90	4
108	110	1
24	28	1
26	26	5
76	77	2
48	49	8
74	76	2
121	122	2
50	51	6
136	136	2
99	99	5
12	117	7
116	122	1
100	100	3
7	13	1
135	137	2
162	165	1
137	137	4
36	36	4
7	9	2
143	143	1
73	81	1
11	11	5
27	27	4
114	115	3
81	82	5
93	93	2
44	55	3
34	169	1
145	145	6
49	119	3
9	9	1
76	76	4
135	135	3
63	69	1
96	96	5
1	2	2
22	24	1
82	82	4
162	162	1
146	147	1
42	42	7
75	75	2
15	15	8
49	123	1
127	127	8
132	132	3
48	48	4
74	74	1
20	52	6
0	0	6
124	125	3
95	95	1
79	79	13
14	15	5
19	19	6
86	87	2
150	150	2
63	66	2
118	122	2
163	164	5
128	147	5
21	22	3
87	88	1
107	108	3
97	110	2
117	121	1
124	129	2
47	47	4
156	156	2
17	17	4
148	150	1
22	22	10
130	130	3
9	10	4
57	57	2
46	46	3
49	49	4
34	34	8
69	69	6
39	40	1
115	115	3
126	126	2
102	102	5
147	151	1
54	54	4
4	4	5
112	112	3
97	97	2
34	35	1
129	156	6
119	119	3
38	38	3
163	163	5
63	73	3
11	12	3
123	123	2
142	142	2
9	81	1
71	71	3
77	77	2
87	87	1
42	43	1
154	162	6
104	106	2
81	81	6
20	46	1
68	81	1
8	8	3
39	39	4
124	124	7
114	114	5
35	36	3
86	89	1
72	72	3
84	91	1
26	39	2
47	63	1
117	117	1
43	43	4
112	114	1
165	166	1
84	85	4
118	118	3
83	83	1
103	104	2
151	151	4
100	104	2
138	138	1
84	84	5
107	107	3
138	151	2
113	114	3
154	159	4
78	80	2
23	23	1
0	1	3
144	144	4
147	147	1
66	66	1
98	116	1
141	141	1
53	53	2
146	146	3
147	158	2
83	92	2
106	106	3
88	88	1
1	1	3
151	152	1
21	24	1
129	152	2
111	112	1
13	48	2
148	148	2
162	163	1
38	42	2
70	70	3
111	111	3
80	80	1
89	89	3
3	3	2
78	79	2
116	161	2
141	142	1
102	106	1
116	131	1
92	92	5
110	115	1
54	56	1
24	24	3
105	109	1
37	37	3
55	55	2
83	165	1
51	51	1
16	20	1
167	169	1
159	159	1
139	139	2
155	155	2
40	40	1
134	135	2
20	27	1
54	55	3
126	127	1
88	89	1
51	52	1
126	132	1
18	19	2
146	156	4
161	161	1
94	96	2
97	126	1
90	90	1
27	66	2
110	170	1
9	84	1
6	6	4
99	100	2
166	167	2
101	109	2
98	99	2
140	140	2
119	120	1
27	67	1
61	62	1
153	159	2
166	166	1
5	9	1
122	123	1
19	21	2
50	50	2
161	162	2
85	85	1
7	7	1
90	140	1
2	79	1
10	85	1
55	56	1
45	79	1
115	165	1
56	56	4
110	110	3
168	168	1
71	89	1
72	73	1
154	154	1
21	21	1
18	18	1
46	47	1
124	131	1
105	105	1
20	20	1
41	41	1
6	50	1
21	23	1
