24	25	4
106	106	12
103	103	15
57	57	14
22	25	3
76	76	21
82	83	13
35	37	3
23	36	5
62	63	22
70	70	42
91	92	6
104	104	14
83	84	3
64	64	34
100	101	14
51	75	1
91	91	16
21	25	1
100	100	24
95	97	2
49	50	2
49	49	12
22	38	1
32	32	20
99	99	19
69	69	31
21	21	15
93	94	1
30	30	17
65	65	15
77	78	1
44	46	3
55	56	6
73	74	10
65	67	5
96	97	3
85	85	12
35	35	22
21	37	1
63	63	20
104	105	17
54	54	25
26	26	9
62	62	19
50	50	12
50	51	7
52	52	25
93	93	17
101	101	28
60	82	4
79	82	5
68	68	34
61	61	20
94	106	2
23	23	30
75	75	7
47	48	4
34	34	18
30	31	8
95	96	17
31	31	29
84	85	3
53	53	30
69	70	18
92	92	19
20	20	10
40	42	1
41	41	14
40	50	3
53	63	5
54	66	1
60	60	13
49	76	2
89	90	4
24	39	3
38	38	17
64	65	7
25	25	13
61	62	6
83	85	3
64	68	6
95	95	20
53	54	9
72	72	9
48	48	3
37	37	17
59	59	11
55	55	33
38	39	7
41	42	2
47	47	9
60	89	5
59	62	3
97	97	19
71	71	13
67	68	6
29	29	2
40	40	14
31	32	12
48	78	4
45	46	4
61	88	1
36	37	7
24	24	10
50	80	2
36	36	15
45	45	7
72	73	4
87	88	4
61	63	2
33	34	2
39	41	3
46	46	7
58	58	5
105	105	19
79	80	7
27	28	6
77	82	1
74	74	19
94	94	14
85	99	1
63	64	7
62	64	4
96	96	12
73	73	27
23	30	3
20	21	9
55	66	4
83	83	18
52	53	5
25	27	1
25	35	1
42	43	4
98	98	4
75	76	4
68	69	17
56	56	8
23	37	4
65	66	2
39	39	11
51	51	20
39	58	2
38	40	4
81	86	4
89	89	13
102	102	17
82	86	1
42	45	2
67	67	19
86	86	4
24	26	4
97	98	6
44	44	10
22	22	11
98	100	2
54	55	5
39	42	5
106	107	5
80	81	3
74	76	2
60	62	2
88	88	2
26	28	6
82	97	3
64	74	1
87	87	8
103	104	13
78	101	4
90	91	1
56	59	3
22	23	2
78	78	15
84	84	5
33	33	10
54	67	5
57	58	2
71	72	7
43	43	9
102	104	2
84	87	1
66	66	2
44	58	1
92	93	4
80	80	4
59	61	2
51	52	12
57	62	2
79	79	5
86	87	4
37	38	1
54	74	1
27	27	4
76	77	7
67	74	1
79	100	1
43	44	2
85	88	2
49	59	3
70	71	9
80	101	5
64	100	6
26	29	3
92	98	1
98	99	4
42	56	2
65	68	2
93	97	5
82	82	3
43	56	1
93	96	3
81	98	3
62	76	1
46	57	2
29	30	3
52	87	2
46	59	2
69	103	2
78	79	6
46	47	6
65	75	3
58	59	2
49	55	3
88	89	1
25	30	2
21	26	2
41	43	2
45	57	2
34	35	5
32	38	3
40	41	1
28	28	3
45	47	1
68	103	2
102	103	2
101	102	2
99	100	1
68	73	1
56	66	1
79	81	3
44	62	2
69	71	1
87	89	1
49	79	1
90	90	7
27	29	3
49	60	2
85	87	1
97	99	3
28	29	2
49	77	1
26	27	5
45	55	1
78	81	1
20	35	1
70	72	1
105	106	1
44	47	2
34	36	1
51	88	1
100	102	2
35	36	1
42	42	3
57	60	1
46	49	2
47	49	1
74	75	1
22	36	1
77	77	2
107	107	2
64	69	2
79	84	4
50	84	1
68	70	1
23	24	1
24	94	1
67	103	1
85	86	1
25	26	1
77	86	1
59	60	2
21	35	2
53	55	1
64	102	1
85	98	1
23	39	2
29	32	1
55	65	1
