78	78	10
19	19	3
38	38	10
37	37	5
41	42	5
115	115	1
40	41	2
33	34	6
80	81	3
35	35	6
62	63	5
79	81	2
32	32	2
90	91	2
86	86	1
76	76	3
51	52	2
75	75	6
71	71	9
104	104	4
46	47	3
103	110	1
41	48	4
43	43	2
66	66	7
47	47	9
62	62	6
37	38	4
73	73	4
79	79	3
62	104	1
59	59	4
27	28	3
86	105	1
50	51	3
42	45	1
111	111	2
81	81	2
50	52	1
40	40	3
96	96	3
90	90	2
46	112	2
97	98	3
65	65	1
36	36	7
77	77	3
27	78	2
102	103	4
95	95	5
100	100	5
40	47	1
45	45	8
105	108	2
33	33	7
41	41	5
62	109	1
41	49	2
31	32	3
97	97	5
89	90	2
29	34	1
80	80	5
70	70	3
30	30	1
22	22	4
43	47	1
58	80	2
20	21	3
82	82	1
99	99	10
24	24	2
51	51	4
49	51	3
85	99	2
109	109	3
60	64	1
93	93	3
104	105	3
55	56	2
52	102	1
30	32	1
48	49	1
61	69	1
43	110	1
58	63	1
94	95	3
67	67	3
86	106	2
39	39	1
46	46	1
102	104	1
113	114	3
66	68	2
100	101	5
106	107	3
95	96	1
31	31	2
54	54	2
43	45	3
50	50	2
49	49	2
67	68	2
106	109	2
61	61	4
70	71	1
73	74	1
98	98	3
68	68	1
74	74	3
60	80	3
92	92	2
26	27	3
73	76	1
64	64	4
29	29	2
88	88	2
95	97	2
63	63	4
45	46	2
103	103	6
58	58	1
91	93	1
66	67	2
42	42	1
43	46	1
60	61	1
61	67	2
67	79	1
105	105	1
20	23	1
29	30	4
69	69	1
112	112	3
108	110	1
71	82	1
76	78	1
85	85	3
79	80	2
21	21	2
42	44	1
60	106	1
110	112	1
43	44	4
102	102	3
36	37	2
74	104	3
87	88	1
52	80	3
111	112	2
49	50	1
47	49	2
28	37	1
25	80	1
35	50	1
101	102	1
72	72	1
22	23	1
34	49	1
77	78	1
110	110	1
61	64	1
26	26	1
94	103	1
99	100	1
105	106	1
56	57	1
35	41	1
82	84	1
61	62	3
43	100	1
101	104	1
44	44	1
108	108	1
100	108	1
40	51	1
106	108	1
57	57	1
34	43	1
76	110	2
56	68	1
45	111	1
99	101	1
