89	90	5
32	32	7
99	99	15
7	9	4
92	94	9
107	109	4
132	132	33
22	22	19
27	37	1
130	130	29
8	8	5
74	74	11
73	73	14
7	8	6
26	30	3
79	79	10
105	105	1
90	91	13
87	135	3
86	86	14
35	36	1
131	131	18
124	124	19
30	30	6
122	122	32
21	25	5
98	101	1
12	12	14
114	125	2
88	88	15
33	33	22
108	108	11
16	16	8
80	80	12
138	139	14
81	86	5
134	135	11
84	120	7
103	103	10
28	28	12
113	115	2
106	109	1
10	10	9
95	95	12
106	106	13
25	26	5
98	112	1
102	102	14
3	3	11
118	118	6
129	129	38
2	2	12
127	127	28
93	93	3
126	126	18
77	77	12
132	134	5
72	109	3
15	17	1
140	140	25
21	21	8
70	106	2
139	140	7
96	106	1
14	14	6
123	125	5
125	134	2
21	22	4
125	130	3
36	135	2
10	11	1
92	92	6
86	87	3
36	37	5
109	127	1
137	137	21
11	12	7
25	25	6
137	138	13
118	119	5
23	23	15
81	81	11
0	0	11
19	19	10
19	77	2
35	35	5
135	137	6
7	15	4
87	87	10
37	37	5
115	116	3
119	119	6
82	82	5
121	121	18
80	82	4
123	123	9
121	122	17
19	20	8
111	111	13
100	100	14
107	107	14
117	121	3
123	124	3
29	29	10
37	38	5
101	102	7
75	75	8
18	79	3
125	125	14
4	108	3
117	117	13
133	134	7
139	139	19
132	133	11
17	17	11
108	112	2
5	5	13
104	104	17
133	133	22
13	14	6
16	19	6
119	120	3
96	96	22
109	109	15
89	89	13
136	136	21
101	101	32
90	90	18
1	1	3
128	128	13
0	1	4
5	6	4
12	13	7
125	126	8
116	116	13
71	118	1
74	97	1
75	76	9
94	96	2
1	7	6
130	131	2
98	98	17
0	8	7
91	92	1
91	91	21
18	18	7
89	96	3
127	137	3
124	125	9
98	128	2
116	117	2
83	83	2
138	138	15
24	24	7
103	104	5
20	20	9
135	136	5
135	135	17
111	114	1
7	7	8
111	112	5
112	112	13
78	78	12
132	139	1
17	18	4
1	2	6
110	110	21
13	13	11
100	110	3
72	73	4
94	94	1
20	21	3
114	114	14
96	97	8
31	31	2
20	26	2
119	131	1
120	121	2
131	132	8
27	31	4
122	124	1
6	6	8
120	120	4
92	93	5
100	101	4
4	4	7
9	15	1
31	32	8
82	85	2
82	122	4
10	12	4
15	16	9
125	127	3
71	120	4
11	11	6
71	71	7
73	74	11
75	90	4
38	38	2
89	94	4
73	81	3
136	138	6
85	85	4
134	134	16
72	94	1
88	118	2
131	139	1
9	11	5
100	112	2
84	84	9
15	15	11
110	112	9
106	107	5
16	20	1
101	116	5
97	97	5
79	80	3
104	106	3
91	93	2
24	25	2
3	6	4
108	109	6
110	111	7
0	2	5
99	100	2
0	38	1
117	118	5
12	20	2
108	111	2
6	7	2
118	121	5
87	88	2
80	118	1
132	136	3
0	5	3
26	26	6
17	78	2
71	121	1
131	135	2
109	111	3
9	9	5
113	113	9
20	78	1
96	129	1
16	17	5
81	123	2
72	72	6
29	31	2
127	128	4
15	82	2
33	34	2
129	130	4
93	95	3
99	110	3
107	108	3
116	125	1
78	80	1
2	4	4
14	15	7
34	35	2
71	116	7
71	106	3
102	103	7
75	89	1
36	36	5
29	30	5
126	127	11
77	78	3
3	4	2
81	85	3
19	22	2
135	138	4
72	74	2
80	81	1
81	89	3
83	85	1
120	123	1
20	31	1
0	37	1
128	129	3
27	29	2
88	89	1
5	8	1
19	78	2
98	99	3
74	94	3
136	139	4
89	91	1
128	130	3
95	96	2
109	112	1
73	75	3
27	27	5
76	76	2
107	110	2
73	76	2
20	32	3
68	118	4
117	133	1
137	139	1
29	32	2
71	107	1
108	113	1
115	115	2
113	114	3
96	100	3
76	77	1
28	29	1
126	128	2
115	125	1
9	12	1
116	124	1
117	120	1
30	37	1
23	26	3
5	34	1
119	124	1
81	82	2
88	90	2
81	87	1
76	78	1
78	79	1
27	28	1
99	131	1
132	135	1
73	94	1
140	141	1
22	23	1
116	134	1
19	90	1
19	79	1
122	123	2
114	115	1
104	105	1
84	128	2
18	19	1
23	24	1
44	44	1
18	88	1
112	113	1
