43	43	2
121	121	5
110	110	5
134	134	9
118	118	10
136	138	4
103	103	4
59	59	8
80	96	2
110	114	4
66	68	2
76	78	4
79	79	1
143	143	6
32	33	1
72	72	2
122	122	2
96	97	2
48	48	7
13	13	2
76	76	2
64	72	2
99	100	4
29	29	12
101	101	5
90	95	2
5	6	6
139	139	5
128	128	7
2	2	4
71	104	4
22	22	9
135	139	2
119	120	2
24	32	6
51	52	3
99	99	1
70	70	1
3	3	8
5	13	1
93	93	2
85	87	2
54	104	3
56	68	2
144	144	2
138	138	7
54	54	1
106	123	4
132	132	5
80	80	3
114	115	4
127	130	4
9	10	3
126	126	7
113	113	2
118	119	4
20	31	4
39	39	3
57	64	1
51	68	7
33	33	3
137	137	5
127	127	2
60	60	5
61	61	5
65	66	1
21	31	5
18	18	3
101	102	1
116	117	2
15	15	2
95	95	3
63	63	4
131	131	3
50	51	3
11	13	3
89	90	2
20	20	3
24	24	3
88	129	3
81	81	3
106	106	2
27	27	4
5	15	2
139	141	1
136	137	3
0	35	1
116	116	8
146	146	1
137	141	5
81	82	5
10	10	4
1	1	1
129	129	4
73	73	9
6	10	2
6	17	2
50	52	1
84	85	3
13	14	3
133	133	9
140	140	2
19	19	7
39	140	2
35	35	2
124	130	1
16	33	2
113	114	2
28	29	1
61	62	2
136	136	8
120	120	2
115	115	1
71	72	3
64	65	1
134	140	4
33	39	4
123	123	6
96	96	1
64	64	5
95	96	3
33	35	2
31	31	1
48	54	2
29	30	1
4	6	2
88	132	1
14	14	4
74	75	1
79	80	1
67	67	4
49	53	2
32	37	1
110	121	3
111	112	1
82	92	2
107	121	2
14	41	2
23	23	2
94	94	1
15	136	2
55	56	4
125	141	1
94	111	2
70	75	1
108	108	1
139	140	3
88	88	4
79	106	2
76	77	2
49	49	3
119	125	1
105	105	2
32	32	3
30	38	1
33	37	3
8	41	1
58	58	1
142	142	3
34	34	1
71	105	1
112	112	4
55	55	4
89	96	2
0	1	1
57	78	2
56	56	2
135	135	1
33	70	1
27	28	1
109	109	2
17	17	1
101	128	1
85	121	2
50	81	1
81	120	1
17	40	1
123	125	2
62	62	2
101	142	1
117	118	1
119	119	3
137	138	1
14	15	1
87	87	2
57	59	2
23	32	1
90	96	1
71	71	1
84	93	1
124	125	2
20	37	2
78	79	1
66	74	2
21	33	1
26	26	1
76	90	1
102	102	3
29	38	2
53	53	2
11	141	1
67	75	1
31	32	2
9	41	2
39	73	1
125	125	1
50	50	1
6	42	1
64	87	1
12	13	1
61	63	1
124	132	1
85	86	1
107	107	2
74	74	1
141	141	2
16	17	1
42	42	1
