14	80	1
86	86	22
183	230	4
30	31	10
36	36	13
202	202	11
38	83	2
205	205	6
51	135	8
232	235	5
200	220	2
212	215	3
28	28	11
115	184	5
153	154	5
100	113	1
70	70	13
223	224	2
39	40	8
147	148	6
87	87	5
124	125	3
14	15	5
118	126	3
74	225	1
129	130	2
225	225	11
58	77	2
43	43	8
34	35	7
143	186	5
117	117	5
37	38	5
49	50	10
18	18	14
231	231	13
216	216	4
139	139	7
188	192	2
241	241	7
185	185	6
170	171	2
204	205	8
105	198	1
177	177	10
60	60	10
111	111	9
34	34	3
161	161	1
148	148	17
67	67	14
154	164	7
80	80	17
9	27	5
223	223	6
97	238	3
165	167	5
232	233	2
179	180	3
81	81	6
66	66	12
191	196	5
199	199	2
227	227	13
238	238	12
118	242	1
111	126	2
160	160	9
59	59	3
197	202	2
73	73	6
138	164	4
75	75	10
226	226	9
206	206	5
145	145	3
114	115	6
27	27	19
7	8	16
25	25	8
147	147	10
115	119	1
10	46	3
57	57	10
225	228	1
101	101	9
242	242	16
60	61	3
211	220	2
144	144	14
162	162	4
35	35	8
20	24	1
20	68	2
66	67	7
106	114	3
57	58	5
165	165	16
50	77	1
9	9	15
233	234	1
88	89	5
150	150	2
58	58	26
72	72	7
62	218	2
184	185	3
209	209	4
220	220	7
82	82	5
113	120	3
125	194	4
61	197	1
134	134	6
150	151	11
182	182	7
6	13	3
182	183	4
137	137	5
204	206	2
146	161	2
214	214	6
63	63	16
106	106	9
116	125	3
33	79	3
69	70	3
120	226	1
10	10	5
74	74	16
164	164	5
140	140	4
32	32	8
172	172	14
2	2	12
56	78	2
174	174	2
212	213	11
95	96	1
82	83	6
12	12	10
181	208	4
50	85	1
14	49	4
4	49	7
40	40	16
156	163	2
183	183	7
124	127	2
175	176	1
39	39	10
143	143	4
76	99	2
221	221	11
173	173	10
228	229	2
237	237	7
103	104	9
45	46	5
8	12	3
51	51	5
177	204	2
81	82	4
9	10	2
11	43	2
42	42	11
153	153	5
91	102	3
84	84	9
71	71	13
152	152	3
36	38	3
169	176	5
104	105	1
133	177	1
16	36	2
100	100	10
162	228	4
51	53	5
70	72	1
198	198	6
88	88	10
171	172	2
151	151	8
219	219	15
209	214	1
53	98	2
51	119	2
144	174	3
152	175	1
104	113	3
77	80	3
50	51	1
5	14	3
128	227	1
123	129	5
29	29	8
95	95	3
123	124	8
120	128	1
23	54	2
188	190	2
170	170	7
49	49	5
168	169	4
46	85	2
229	229	8
209	210	4
84	85	7
32	85	2
224	224	8
10	33	4
141	141	3
165	166	6
66	191	1
23	23	16
54	55	2
53	54	2
5	12	3
6	80	3
17	31	1
217	217	20
48	52	1
200	201	2
6	45	2
14	37	5
68	113	3
136	136	14
0	53	4
44	48	6
133	133	7
195	195	9
161	165	2
152	187	1
65	192	4
217	218	2
146	146	10
21	22	10
21	21	18
0	0	16
33	33	14
57	60	5
114	230	2
155	163	2
26	26	11
160	182	4
142	142	6
137	138	4
38	38	13
134	169	6
217	220	1
64	64	9
41	41	8
8	8	14
99	100	2
130	130	6
78	78	7
61	61	15
61	62	6
105	105	4
6	8	2
201	201	6
34	40	5
158	158	3
77	79	7
172	202	2
188	200	1
118	179	1
13	46	2
104	162	2
79	79	2
20	20	3
162	185	4
215	234	1
96	96	7
218	218	8
69	77	6
62	63	1
121	121	4
69	195	2
17	17	9
104	122	2
5	5	7
24	143	2
95	155	2
12	44	3
11	11	10
6	6	7
68	112	2
158	159	4
173	174	1
21	23	3
77	77	2
123	126	1
138	242	1
124	126	3
234	235	1
107	118	4
83	84	5
31	31	15
52	52	6
105	122	3
186	219	2
68	68	2
126	189	2
123	123	3
154	154	1
181	182	6
113	235	2
191	192	6
50	50	5
197	197	6
116	117	9
129	129	5
24	25	2
4	90	2
19	19	9
24	101	2
46	46	4
109	178	1
123	127	3
7	15	2
127	180	2
17	21	2
176	177	4
215	216	2
194	194	6
98	103	2
21	54	1
95	103	3
6	12	1
210	210	1
58	61	1
62	64	6
7	12	5
148	150	2
235	235	8
118	118	4
49	79	9
64	67	4
79	191	6
212	240	1
22	23	3
15	40	1
4	6	2
211	211	6
37	37	2
181	181	2
21	64	3
4	4	12
170	177	3
29	85	3
13	16	2
194	223	1
64	202	2
153	224	6
48	48	5
78	79	8
156	156	3
162	163	1
17	18	5
2	3	3
5	45	1
7	7	5
188	227	1
32	33	5
99	99	4
207	207	11
107	107	2
85	85	10
59	60	4
99	102	1
109	198	2
20	22	1
22	34	2
191	191	4
203	203	14
81	195	2
2	49	1
232	232	2
134	135	4
122	122	9
200	222	1
69	69	12
155	155	8
175	175	2
165	168	2
188	189	2
53	53	6
32	83	2
152	153	2
51	138	2
37	42	1
104	104	6
118	125	1
20	48	1
15	42	1
167	168	9
188	188	1
19	91	2
44	44	6
63	134	2
116	118	2
33	42	1
148	149	6
207	208	3
98	98	4
153	165	3
148	169	3
81	83	1
168	168	7
192	192	6
230	230	9
136	137	4
241	242	1
98	99	4
236	236	2
122	124	3
239	239	2
199	206	6
112	180	1
35	48	2
136	242	3
171	171	5
113	113	11
22	71	2
196	196	2
16	30	1
233	233	3
11	42	3
18	19	1
59	91	2
78	141	2
51	84	2
179	179	5
7	34	1
16	31	1
134	206	4
28	32	2
111	223	4
128	128	2
118	128	2
31	79	3
24	24	6
15	15	11
215	215	4
157	164	3
8	45	4
193	194	1
141	142	1
187	190	1
143	144	1
114	160	2
55	56	1
188	230	2
47	47	5
187	188	4
149	152	1
89	136	2
86	202	1
82	102	2
159	159	3
86	228	2
89	89	2
53	61	1
204	204	4
233	235	5
64	119	1
80	81	1
119	128	2
211	214	1
101	128	1
185	218	1
153	164	1
160	181	2
131	165	1
172	173	1
169	169	5
49	76	2
48	50	3
79	95	3
56	57	2
120	120	2
179	185	4
29	30	1
43	44	4
97	97	2
126	129	1
109	160	2
196	197	1
54	74	4
133	218	1
78	118	1
5	8	4
85	86	2
213	214	3
36	37	1
147	171	1
65	65	7
5	7	1
147	172	2
86	143	1
240	240	7
0	67	2
110	181	2
182	206	3
81	88	2
54	198	2
95	105	3
42	43	4
95	125	2
6	34	2
126	126	2
122	125	1
16	41	1
15	17	4
178	178	5
219	221	5
148	158	1
45	45	3
140	142	1
76	76	3
220	223	1
8	75	1
133	153	3
193	201	1
52	85	2
190	190	5
81	84	1
138	138	5
65	225	1
222	223	4
10	11	2
107	108	6
3	4	3
121	122	2
79	85	2
51	52	3
24	27	1
153	198	1
29	41	2
174	207	1
13	40	1
116	116	5
89	231	1
234	234	3
61	160	2
219	234	2
174	217	3
211	221	1
54	54	3
34	36	2
13	78	2
53	75	1
212	212	7
98	102	5
67	225	3
118	180	1
16	16	3
38	39	3
127	128	1
112	179	2
18	20	2
189	189	3
133	134	5
19	57	1
144	161	1
119	119	6
111	221	1
88	137	1
68	102	1
51	85	3
20	28	1
23	62	1
33	34	3
53	80	1
48	49	3
159	182	1
26	27	3
55	55	3
187	187	1
132	133	2
197	224	2
38	47	1
36	76	1
178	179	1
187	200	2
221	222	4
100	103	1
55	142	2
80	103	2
54	137	1
15	16	2
11	47	1
86	172	1
153	197	4
68	85	6
104	229	6
109	109	2
200	224	1
80	82	1
149	149	2
186	216	3
62	62	4
91	107	1
116	126	1
213	213	1
10	42	1
131	210	1
11	15	2
135	205	3
14	41	4
112	194	1
128	165	2
86	91	1
163	168	2
140	141	2
14	40	1
107	125	2
61	206	1
163	166	2
200	200	2
105	170	4
8	11	1
3	3	1
1	2	1
122	123	2
183	202	2
168	224	1
13	14	5
131	131	2
121	124	1
47	52	2
83	83	2
17	48	2
23	34	1
138	139	1
42	56	2
213	215	1
68	194	2
106	124	2
76	140	1
13	37	1
176	176	1
5	6	2
35	78	1
20	73	1
35	39	1
0	1	2
25	27	1
227	228	3
153	221	3
110	110	1
111	222	1
15	43	1
25	54	1
67	70	1
73	74	3
144	146	1
135	135	1
25	26	1
109	212	1
95	100	3
101	113	1
12	35	1
127	127	1
150	186	1
58	196	2
10	31	1
130	222	2
136	180	1
54	101	1
222	222	1
30	30	1
34	50	1
99	132	2
105	123	1
228	228	3
56	56	3
106	115	1
151	201	1
59	159	1
106	163	2
10	27	1
8	9	1
151	152	1
44	47	2
79	197	1
208	208	1
19	48	1
55	61	1
80	115	1
234	240	1
23	25	1
102	102	3
86	135	1
181	209	2
14	47	2
157	157	1
177	200	1
97	112	1
131	171	1
208	218	1
75	91	1
1	1	2
120	122	1
86	225	1
58	59	1
199	204	1
143	184	2
49	78	1
6	50	1
113	125	1
33	37	1
27	28	1
22	22	1
192	194	1
20	21	1
116	168	1
135	138	1
86	141	2
120	166	1
132	132	1
239	240	1
101	208	1
106	192	1
190	199	1
13	76	1
19	50	1
105	169	1
17	50	1
195	216	1
189	190	1
69	72	1
104	163	1
109	133	1
137	231	1
8	80	1
149	150	1
143	187	1
