46	46	18
86	86	9
119	120	6
5	98	1
47	47	10
8	93	1
20	23	2
43	43	7
31	32	3
58	58	3
96	96	1
93	101	1
33	33	7
25	26	3
17	18	4
121	121	1
33	46	1
70	70	6
15	15	2
112	112	12
43	44	3
11	27	2
90	90	6
27	27	7
92	92	5
26	26	14
1	40	3
78	78	4
37	39	3
110	110	13
81	81	1
16	75	2
83	83	8
44	44	7
73	74	4
29	49	1
101	102	4
131	132	2
18	18	3
33	117	3
49	49	8
73	73	12
76	76	2
20	35	1
82	82	2
76	77	4
29	48	1
79	81	2
81	82	2
77	77	4
111	111	6
10	10	4
77	80	5
33	78	2
101	101	5
86	87	2
62	62	5
77	78	10
21	21	7
79	79	4
118	118	5
28	78	1
26	28	2
6	6	1
9	9	7
29	32	1
28	29	1
32	32	4
30	30	6
116	116	3
59	59	1
34	34	9
27	97	3
16	16	2
66	66	3
12	12	1
5	6	5
4	4	4
108	108	5
120	121	1
25	25	3
27	77	1
83	90	3
7	7	5
68	68	7
59	75	3
127	129	2
67	67	3
13	61	3
83	85	2
45	45	9
19	20	3
126	126	3
100	101	1
35	36	3
14	83	4
115	116	1
90	92	1
59	60	5
65	66	2
74	75	3
97	132	2
25	47	2
29	29	9
60	60	3
133	133	1
10	11	1
133	134	1
94	94	2
20	20	3
74	74	4
45	64	1
14	14	4
3	86	2
73	109	5
56	56	2
37	37	1
80	81	3
103	103	2
75	75	9
129	129	2
108	109	4
119	119	5
35	35	7
82	83	2
63	63	3
91	92	3
73	75	1
125	125	2
114	116	3
70	75	1
62	64	1
65	65	6
28	32	2
110	111	1
34	46	1
33	35	3
83	84	2
93	94	3
17	17	2
75	76	1
39	40	3
49	131	1
15	18	1
8	9	2
92	93	3
114	114	3
68	69	3
66	67	1
83	96	2
93	93	3
110	118	4
72	72	3
11	11	5
37	42	3
3	3	2
0	0	1
19	74	1
34	36	2
39	41	3
102	103	2
104	105	1
122	122	2
64	64	3
27	28	3
64	79	1
27	79	3
16	20	1
117	118	1
44	70	1
72	73	2
8	8	3
97	99	1
31	31	2
69	69	1
116	117	1
115	115	1
21	27	1
2	9	1
28	62	1
80	80	1
104	122	1
123	123	1
127	127	1
22	22	1
40	118	1
79	80	1
109	109	1
11	29	1
9	12	1
10	21	1
99	99	1
13	14	3
85	86	2
48	48	3
85	85	2
90	91	1
5	97	1
121	122	1
87	88	1
81	83	1
60	76	1
