0	0	12
42	42	6
77	77	2
27	27	9
109	109	6
113	145	4
26	112	3
125	126	1
35	35	3
32	32	5
83	84	7
80	80	7
149	149	4
46	46	8
22	30	3
147	147	8
19	20	1
3	4	2
77	79	4
140	142	2
64	104	2
68	69	5
107	107	4
41	41	6
119	144	2
47	48	3
150	150	8
121	121	5
118	118	4
123	123	3
49	55	1
79	79	13
103	104	4
23	24	5
25	25	6
5	5	6
145	146	3
14	14	6
116	119	4
100	101	3
68	68	3
97	97	6
9	29	3
7	7	10
154	154	14
106	106	5
105	108	1
52	53	8
101	129	1
47	47	6
19	22	2
141	142	1
117	117	3
84	87	2
95	95	6
17	17	11
12	22	2
140	141	7
113	126	2
28	28	5
49	49	5
88	88	7
92	92	3
18	50	1
54	54	11
40	40	9
119	120	6
124	126	4
124	125	2
64	140	3
89	93	2
26	27	3
72	72	5
94	95	4
42	70	1
51	51	7
143	143	5
142	147	2
12	12	10
111	111	2
4	4	10
23	23	9
30	30	5
94	94	9
69	69	7
123	124	3
8	9	7
39	39	2
120	120	3
76	76	2
87	88	5
119	119	2
108	109	4
100	100	10
11	14	4
155	156	7
122	122	9
134	134	6
21	21	3
112	148	2
87	87	11
85	85	9
84	84	11
29	29	3
50	50	8
132	132	5
43	43	10
109	110	4
28	29	3
24	25	4
99	99	6
146	147	2
116	134	1
56	67	1
113	147	2
75	105	2
23	46	3
56	56	2
155	155	12
138	138	7
55	55	3
48	56	3
18	18	7
98	98	4
25	28	2
15	21	1
55	97	3
95	98	2
90	90	10
36	36	6
45	46	6
2	2	2
91	91	6
82	82	5
127	127	4
110	114	2
30	32	5
31	31	4
134	137	5
20	20	6
62	63	3
8	91	2
128	128	11
13	13	5
3	3	10
0	1	2
48	57	1
114	119	2
145	145	5
152	152	7
149	158	1
53	57	1
93	94	4
137	137	10
90	91	2
63	63	2
67	70	1
33	33	12
131	132	9
71	71	8
66	66	5
37	37	8
123	126	2
36	37	1
39	71	1
36	50	7
34	95	3
96	142	1
8	8	6
130	130	12
112	133	3
83	83	6
126	127	4
77	119	4
114	114	5
48	48	2
24	24	8
37	48	2
77	113	4
158	158	3
68	70	2
37	49	2
18	20	2
17	18	7
157	157	6
75	75	6
80	116	2
110	110	2
86	87	3
132	133	1
93	95	1
15	15	6
88	90	1
21	22	1
80	90	2
16	17	5
124	124	6
148	148	3
73	73	4
139	139	6
38	70	2
101	101	3
8	87	1
94	114	1
112	112	3
108	111	1
107	108	1
78	88	3
133	133	2
67	67	3
52	54	2
153	153	5
70	70	3
102	102	1
69	70	1
74	74	2
93	93	2
47	50	3
38	38	3
9	68	3
53	58	1
88	117	1
26	28	1
138	139	1
122	125	4
77	139	1
122	124	2
81	81	7
77	78	2
144	144	5
103	132	2
9	16	2
76	77	1
124	159	3
1	1	3
9	12	1
105	105	6
11	11	1
8	11	3
22	34	4
121	122	3
34	51	2
88	89	4
50	51	2
141	141	7
81	82	2
136	136	4
69	71	2
44	44	7
64	64	4
31	90	3
104	104	2
38	45	1
45	45	6
25	30	1
66	98	4
88	118	1
40	148	1
46	65	1
65	65	5
103	122	1
27	29	2
129	129	4
113	153	1
9	9	9
10	15	3
24	65	1
116	117	4
5	6	7
53	53	4
31	35	1
124	130	2
37	67	1
101	114	2
21	23	2
4	5	3
108	108	8
85	118	2
140	140	5
144	146	3
115	115	5
18	19	3
116	116	8
8	12	2
32	42	1
105	107	2
130	152	1
84	85	3
4	39	4
136	138	1
70	71	3
52	52	3
22	25	1
42	68	1
146	146	1
37	38	1
142	142	6
90	112	1
78	78	2
86	86	3
19	19	1
9	67	1
110	113	1
151	151	3
120	151	3
8	88	1
20	22	2
8	71	3
102	158	2
110	112	1
69	84	1
102	104	1
76	102	1
128	129	1
23	29	1
88	95	2
15	22	2
109	141	1
125	125	3
105	140	1
10	11	1
67	68	1
131	131	4
89	89	1
11	31	2
115	121	2
34	35	2
112	146	1
135	135	2
15	16	1
54	55	1
85	86	2
57	57	1
34	53	2
16	16	2
34	34	2
115	131	1
132	138	1
39	70	3
110	111	2
83	118	1
6	35	2
104	114	2
35	158	1
10	10	1
38	40	1
104	121	2
6	6	3
16	25	1
38	44	1
152	154	1
145	148	1
82	141	2
98	99	1
8	13	2
127	131	1
99	101	1
104	105	2
7	34	1
26	26	5
88	94	1
64	86	2
123	146	1
155	158	1
29	30	1
106	108	2
20	70	1
81	140	1
22	22	1
129	130	4
31	37	1
79	80	3
134	135	1
82	85	1
80	140	1
28	30	1
141	147	2
40	41	2
87	89	1
115	139	1
25	46	1
156	156	3
62	71	1
77	80	1
106	134	2
120	121	1
30	34	2
66	71	1
12	13	1
91	92	1
25	50	1
4	38	1
127	128	2
80	86	2
144	145	2
126	126	1
89	117	1
8	21	1
141	148	1
76	95	1
77	106	1
66	68	1
32	33	1
151	152	1
64	96	1
148	149	1
3	33	1
117	134	1
49	50	1
48	50	1
34	132	1
133	138	1
122	134	1
133	134	1
122	141	1
63	88	1
86	121	1
42	43	1
25	43	1
