89	89	5
131	131	15
132	132	16
101	101	8
119	120	2
123	123	20
127	127	16
15	16	4
108	109	4
105	105	2
111	111	13
117	117	6
30	31	2
114	114	7
14	75	3
136	136	6
135	135	6
79	79	5
86	86	2
31	31	4
130	130	24
22	23	2
84	85	3
126	128	1
34	34	2
140	141	1
77	77	4
85	86	3
29	29	4
96	96	3
139	139	12
119	119	8
103	106	2
120	121	4
17	17	3
125	125	5
85	85	4
140	140	8
131	132	1
32	32	1
122	122	4
109	109	10
128	128	5
121	121	4
134	134	14
30	30	4
137	138	6
118	119	3
33	34	2
133	133	13
74	114	3
124	124	7
126	126	11
88	88	3
94	94	3
116	126	1
82	82	2
100	117	2
10	10	5
3	4	4
35	35	6
101	102	1
87	87	8
129	129	8
137	137	7
117	118	2
112	112	7
21	21	2
138	138	9
113	114	10
8	8	3
10	12	2
135	136	3
72	74	1
83	83	4
131	137	1
115	115	2
107	107	3
103	103	2
5	6	3
91	91	1
125	126	3
34	35	2
95	95	7
117	126	3
123	124	4
1	1	2
78	80	1
75	75	2
110	110	2
73	73	4
8	9	3
81	81	1
33	33	1
133	134	2
6	7	1
80	80	6
11	12	1
33	116	1
5	5	2
24	24	2
77	78	2
104	104	4
81	83	3
136	137	1
103	127	2
88	89	2
133	138	1
132	135	1
80	81	3
28	30	1
11	11	2
22	29	1
35	112	1
82	84	1
118	118	3
130	136	2
31	32	1
0	0	9
22	22	5
100	115	1
13	15	1
109	110	3
72	72	4
98	133	3
32	34	1
105	106	2
76	76	1
16	16	4
16	17	2
77	88	4
90	90	3
76	77	1
113	113	1
71	71	1
132	134	1
96	99	1
3	3	1
21	27	2
116	117	1
73	123	1
14	76	1
12	98	3
26	32	2
17	18	2
128	129	1
100	100	2
90	132	1
13	13	4
3	125	1
120	124	1
115	116	2
92	92	1
102	103	1
9	19	1
130	131	2
21	22	1
73	124	1
91	92	2
84	84	3
36	36	1
98	98	4
9	12	1
120	122	4
137	139	4
28	37	2
102	102	3
71	75	1
27	28	2
9	9	1
74	74	2
35	36	1
131	133	2
81	95	1
74	75	1
4	5	1
14	14	1
37	37	1
82	93	1
38	38	1
71	72	1
83	84	1
80	85	1
106	107	1
5	21	1
2	2	1
10	13	1
71	101	1
100	101	1
23	23	2
90	92	1
6	6	1
15	15	1
6	20	1
