49	49	5
131	131	4
93	94	8
113	114	1
18	52	1
83	86	1
131	132	2
57	58	7
33	34	6
113	116	6
71	71	5
115	115	7
84	92	2
16	16	4
43	45	4
19	20	1
129	129	8
4	4	4
112	112	4
63	63	5
66	83	2
76	78	1
100	100	5
113	113	16
80	80	9
45	45	9
83	85	6
90	90	12
76	76	10
120	121	8
132	132	11
130	130	17
73	73	1
96	97	2
53	54	10
78	78	1
44	44	5
76	105	3
95	96	11
20	25	1
123	123	1
117	119	2
42	44	2
82	82	7
121	123	1
106	111	1
61	61	6
107	107	10
85	90	2
19	19	10
117	117	7
122	122	4
102	102	9
120	120	6
68	68	5
119	119	10
23	23	7
111	111	3
109	109	13
79	118	5
81	116	1
118	124	4
61	62	2
88	88	6
34	34	9
116	116	7
66	67	5
78	100	3
12	13	1
128	128	6
51	70	2
105	105	5
125	125	2
118	122	5
57	57	7
133	133	4
8	9	3
91	91	5
108	110	7
69	69	2
129	131	4
60	61	1
85	85	4
108	118	1
43	43	2
95	95	8
123	124	2
6	6	2
65	65	2
100	116	2
0	0	4
38	38	6
28	28	3
116	117	5
62	62	6
69	70	2
64	64	8
52	52	3
48	50	4
72	72	3
44	45	3
74	74	4
101	101	11
93	93	4
96	96	4
107	118	1
124	125	4
13	43	2
48	48	5
126	133	1
65	66	2
81	81	8
86	87	4
78	116	3
108	108	9
68	69	2
110	110	7
116	118	2
59	59	4
82	83	6
16	26	1
112	113	5
89	90	1
48	68	2
58	59	1
86	86	2
77	78	6
125	129	3
134	134	8
83	102	1
2	2	8
49	50	2
75	75	4
52	53	2
31	34	1
21	22	1
104	104	3
83	83	6
79	79	4
22	22	5
31	32	1
30	30	2
84	84	12
59	63	1
101	102	1
13	14	3
94	99	1
103	103	2
97	97	8
105	124	1
66	68	2
1	3	2
121	122	5
124	124	2
60	60	6
118	121	1
29	32	5
31	31	1
127	129	3
79	80	2
10	10	5
87	87	1
70	104	2
95	103	4
70	71	5
84	119	2
43	65	1
17	17	2
82	119	1
25	25	3
71	72	2
54	55	6
9	9	1
27	27	2
18	19	2
37	37	3
122	129	1
96	122	1
62	64	3
82	102	2
130	132	2
106	106	4
114	115	2
3	6	1
94	95	3
85	119	1
36	36	2
126	129	4
127	127	1
94	94	9
119	121	4
3	3	2
21	21	4
85	86	1
70	70	2
30	34	1
92	92	3
98	105	2
20	58	1
42	83	2
83	84	1
84	85	1
84	120	1
23	24	1
46	68	1
114	114	2
99	112	1
55	55	3
8	72	1
89	89	2
98	99	2
29	29	6
14	54	1
56	57	1
7	72	1
121	121	1
44	83	1
3	4	4
56	56	1
21	25	1
106	110	2
25	58	1
125	130	1
126	128	2
111	115	4
115	116	1
0	2	3
5	5	1
67	68	2
2	3	3
119	120	4
47	47	3
39	39	2
91	97	1
15	15	3
128	132	1
16	50	1
14	14	1
69	78	1
75	105	1
107	123	1
67	67	2
58	58	1
69	103	2
82	84	1
126	126	5
26	26	2
50	59	2
24	25	1
65	67	1
112	115	2
13	13	2
52	57	1
102	103	1
83	87	1
12	12	1
112	116	3
98	98	1
80	103	1
81	82	1
81	111	1
117	118	2
61	64	1
115	126	1
55	57	1
76	133	1
115	129	1
92	117	1
50	52	1
59	81	1
106	107	1
65	68	1
54	54	2
53	53	1
84	86	1
