79	110	5
89	90	6
83	83	7
72	102	6
153	153	2
105	105	2
76	76	8
93	93	8
107	143	1
169	169	8
66	71	2
45	45	10
138	144	3
41	41	1
20	20	6
15	20	2
12	12	5
113	113	2
97	97	10
99	99	14
148	148	7
107	167	1
84	169	4
79	80	2
122	123	2
100	100	16
40	40	18
51	51	3
87	87	7
42	43	2
144	168	5
11	11	14
6	123	1
110	110	5
18	20	9
55	55	3
35	53	7
69	78	5
15	15	5
16	16	7
24	24	17
81	82	5
96	96	2
84	84	18
63	114	2
103	105	1
69	73	6
95	95	2
4	4	6
42	42	4
14	14	4
56	56	2
90	90	4
117	122	3
47	47	11
62	62	3
62	116	3
123	123	5
143	143	10
164	164	2
75	75	2
14	17	2
155	156	2
157	157	4
34	34	5
128	128	2
91	91	4
13	25	3
96	117	1
91	92	2
71	71	8
38	38	4
102	102	4
98	98	3
81	113	3
134	134	4
13	13	2
109	109	3
14	15	6
152	152	4
133	133	4
68	68	3
100	102	3
97	98	2
158	159	4
136	145	1
127	133	4
123	138	2
115	115	4
99	100	5
101	146	2
40	41	2
23	23	4
16	17	7
125	138	3
90	91	5
69	69	6
144	145	1
160	160	5
17	17	1
131	131	3
77	77	2
45	153	2
89	89	5
88	98	3
135	136	1
139	140	4
49	49	5
73	73	9
66	66	3
35	35	3
47	48	4
138	138	4
152	161	1
119	119	4
58	62	3
108	108	5
82	82	6
19	19	1
107	107	1
5	6	4
37	47	2
25	25	2
94	94	3
112	112	7
58	58	2
124	124	1
56	57	1
45	163	2
141	141	4
133	136	1
44	44	2
63	63	1
47	49	3
88	88	1
54	54	3
135	137	5
46	46	3
0	0	6
0	1	1
3	127	4
48	82	3
52	52	4
111	112	4
57	57	9
120	120	4
39	40	1
57	73	5
21	22	4
49	50	1
141	142	3
41	53	1
133	134	2
104	104	2
134	135	2
68	69	1
6	6	5
63	64	1
98	99	3
37	38	4
142	143	2
140	140	1
5	5	6
152	153	2
140	155	1
153	154	2
126	126	3
163	163	6
63	66	2
109	143	1
107	111	1
146	146	3
92	92	3
9	23	2
104	105	3
122	122	3
162	162	1
113	114	5
53	53	2
147	148	3
123	163	3
62	69	1
145	145	1
8	8	1
56	104	3
154	159	1
37	37	2
43	43	4
80	80	4
94	95	2
23	24	2
159	159	2
100	117	1
39	39	3
163	164	5
155	155	3
24	25	4
27	141	2
39	50	2
9	9	1
106	108	1
114	114	2
117	118	2
6	18	1
147	147	2
42	130	2
4	13	2
137	147	1
138	139	1
165	165	1
127	127	2
166	170	4
91	116	1
76	77	2
150	150	1
9	10	3
85	85	3
80	143	1
119	121	3
132	151	3
106	106	2
80	111	1
26	142	2
63	69	1
33	34	1
90	93	1
149	149	2
18	18	1
86	89	1
110	111	3
18	22	1
69	74	3
3	3	1
43	44	2
78	79	1
167	167	1
154	154	1
77	78	1
6	145	1
47	54	1
101	102	1
72	73	1
158	158	1
70	72	1
1	1	2
103	103	2
74	74	1
50	51	1
70	113	1
27	38	1
64	64	1
22	22	1
15	24	1
109	110	1
36	37	1
7	7	1
74	78	1
69	70	2
118	118	1
21	21	1
68	71	1
161	164	1
10	10	1
123	150	1
101	105	1
33	138	1
