114	114	34
50	54	6
82	82	32
125	125	11
9	9	14
87	87	36
58	58	21
124	124	29
65	65	37
7	7	18
99	99	33
79	79	30
76	76	38
130	130	35
81	81	28
32	33	4
49	80	2
101	101	28
84	84	19
85	126	3
20	21	4
59	59	26
25	25	11
126	127	12
8	87	2
44	44	15
50	50	17
128	128	27
45	45	28
29	31	2
100	100	21
90	90	39
95	106	5
48	48	10
77	77	28
63	63	20
73	73	30
8	67	3
78	78	28
98	101	4
117	118	7
69	69	11
44	45	15
61	62	4
14	14	20
96	98	4
92	92	28
1	1	30
56	56	14
114	115	19
133	134	5
105	105	43
125	131	4
33	33	17
8	8	14
65	66	10
71	71	35
115	115	40
107	108	10
109	109	30
118	122	5
16	68	3
99	135	2
64	64	22
82	114	5
2	2	19
15	15	17
106	108	14
60	61	9
53	53	24
126	126	28
90	91	12
16	17	14
61	61	44
81	114	1
94	114	8
89	89	19
50	52	6
3	3	14
54	54	14
120	123	1
7	8	7
133	133	11
89	90	7
16	16	11
108	108	21
75	75	22
71	88	2
58	84	4
12	27	1
34	34	12
12	12	18
106	106	18
60	64	5
61	64	5
0	3	4
55	55	21
112	113	12
95	132	9
97	97	37
120	120	40
43	43	19
18	18	5
4	4	13
101	102	18
91	91	28
37	38	4
93	101	5
85	93	5
87	88	9
116	116	27
98	98	34
62	62	26
96	96	19
93	93	17
123	124	7
2	3	4
92	125	2
56	58	8
96	131	5
82	84	6
132	133	7
131	132	5
70	70	25
68	68	26
20	20	19
76	90	4
103	104	8
27	29	1
68	80	2
50	82	2
50	68	4
88	88	28
23	23	15
4	28	3
122	123	7
108	109	8
104	104	37
24	25	1
129	129	26
58	60	4
77	78	31
83	92	5
94	132	9
102	102	40
115	116	5
125	130	3
66	66	12
60	60	20
67	69	6
122	122	36
111	111	25
95	96	5
80	80	22
28	28	17
114	117	3
14	15	9
0	0	13
57	57	12
107	123	4
95	95	19
80	86	3
127	128	28
86	86	12
131	131	34
21	21	14
77	79	2
79	80	11
127	127	29
79	102	5
54	56	1
118	118	12
38	39	1
116	117	11
17	121	1
25	26	6
107	107	18
100	123	1
14	101	1
67	67	28
43	59	5
112	112	37
125	129	4
134	134	31
64	65	12
58	59	8
21	22	4
13	13	20
45	46	7
135	135	10
8	11	2
23	24	6
3	4	15
51	52	2
6	6	18
16	18	3
121	121	22
88	92	2
59	80	1
22	23	5
35	35	19
62	63	19
111	116	4
45	58	3
130	131	8
108	128	4
7	34	7
83	91	3
9	87	2
37	37	12
4	6	5
35	36	3
49	50	6
47	47	9
67	68	6
83	83	18
43	56	2
102	120	2
31	31	9
8	65	3
55	57	13
52	53	11
96	97	3
53	82	2
5	5	18
53	54	12
19	20	2
84	85	23
66	87	2
91	92	10
119	121	2
78	79	18
6	7	17
113	113	20
46	48	1
115	123	3
80	93	1
30	30	20
67	79	1
60	69	2
66	67	8
12	13	4
14	100	4
26	26	14
86	87	8
127	129	7
55	56	10
13	28	2
54	83	5
76	98	2
82	83	16
99	100	8
74	89	3
52	86	3
74	74	21
11	30	4
94	94	13
75	101	3
107	130	6
99	104	5
96	107	2
78	82	9
20	119	2
54	55	5
96	116	2
110	110	20
72	72	28
119	119	30
64	69	1
44	54	2
86	95	1
117	132	4
105	120	5
86	88	3
103	103	28
52	111	1
123	123	15
116	123	1
22	22	8
87	91	3
125	126	4
8	9	7
116	130	2
34	35	4
115	118	3
17	25	3
65	87	6
126	133	2
72	73	10
72	74	1
96	117	3
54	58	1
52	61	2
34	36	3
73	76	7
36	36	8
82	86	2
12	104	3
116	120	2
19	19	5
60	63	3
96	100	2
132	132	19
62	88	1
29	29	10
15	16	6
124	126	8
49	49	12
95	107	3
105	106	7
68	72	4
57	58	9
24	24	6
102	124	1
103	127	1
130	133	4
71	72	15
52	52	14
4	5	7
69	70	4
19	23	6
94	120	4
10	10	10
98	103	1
85	85	13
101	126	5
104	105	3
98	99	3
97	98	9
17	69	1
50	79	1
1	4	2
18	24	2
15	126	3
21	121	2
26	32	3
9	10	2
53	93	2
27	27	10
97	117	2
33	34	7
106	109	6
98	117	3
108	110	4
118	132	8
55	58	2
104	134	4
117	117	22
75	76	7
14	125	4
83	84	5
35	38	1
113	115	1
69	71	4
66	68	9
46	46	7
120	121	6
107	117	2
11	11	16
14	126	3
99	105	7
42	42	5
58	61	2
11	67	2
14	26	3
84	129	3
95	110	1
118	119	6
97	100	5
52	54	3
109	130	2
2	4	1
11	63	3
93	94	8
69	73	5
14	17	3
131	134	1
113	127	2
18	20	2
56	83	2
121	128	2
25	32	2
63	69	4
56	57	8
106	107	9
79	114	3
100	101	10
79	81	2
73	74	4
109	117	2
9	66	1
109	122	1
80	130	3
74	75	4
131	133	3
59	85	1
107	118	3
102	103	2
63	64	4
53	59	1
105	108	3
106	114	3
83	102	3
17	17	12
35	60	3
110	111	6
121	124	1
110	112	2
53	84	1
7	9	6
106	119	1
111	122	4
70	71	2
1	2	5
79	125	4
80	131	1
35	45	2
30	32	2
52	84	2
45	87	7
128	129	8
71	73	2
14	27	2
15	26	3
7	11	2
117	128	3
78	131	3
118	130	2
22	24	2
17	21	1
36	38	2
32	34	2
124	125	10
16	69	1
105	109	1
118	131	1
85	87	2
113	130	3
42	63	2
107	116	5
123	126	1
10	67	1
58	83	1
11	12	1
95	100	3
109	128	2
124	130	6
129	130	2
62	129	1
91	97	1
78	80	3
111	112	3
92	102	1
32	32	5
90	101	2
8	50	1
119	122	1
76	77	1
95	115	5
94	95	2
106	111	2
64	87	4
79	103	3
10	11	2
100	107	2
129	135	1
121	123	4
78	92	2
62	65	2
3	13	2
37	58	1
106	116	2
73	99	1
49	81	2
112	115	1
83	85	1
105	125	2
50	86	2
1	102	3
50	81	2
106	123	2
113	114	1
52	87	1
111	127	1
130	132	4
115	121	1
80	87	3
87	93	5
97	128	1
123	125	3
31	34	1
67	78	1
17	23	1
126	128	3
118	133	1
114	124	1
11	56	2
11	61	1
61	66	1
59	60	2
49	65	1
100	125	3
7	35	3
74	110	1
91	95	2
112	114	1
86	91	1
29	73	2
114	134	1
120	122	2
53	85	4
31	32	5
57	61	1
60	129	2
32	36	1
86	107	2
106	113	1
106	122	2
22	124	1
43	55	3
74	76	1
91	93	3
47	49	2
7	13	3
44	47	2
122	124	1
43	88	3
85	118	1
118	123	2
53	86	1
125	134	2
81	87	1
37	54	1
19	24	1
96	132	2
18	21	3
65	68	1
29	30	2
13	115	3
10	86	1
28	29	1
52	115	2
108	111	2
98	125	1
119	120	4
12	28	1
73	101	2
38	57	1
33	35	1
123	128	1
55	82	1
27	28	3
16	37	2
104	114	1
38	38	1
7	59	2
92	101	2
53	69	2
113	117	2
83	121	1
30	31	2
3	6	1
114	116	4
80	88	1
81	112	1
96	122	3
26	33	1
44	65	3
108	127	2
93	114	2
38	44	3
79	82	1
105	131	1
17	18	3
18	22	1
53	60	1
43	45	1
14	29	1
66	88	1
48	49	1
6	104	1
90	94	1
109	112	1
3	80	2
6	64	1
84	87	1
26	27	2
47	89	1
85	130	1
57	60	2
82	112	2
80	81	1
94	102	1
32	35	1
94	133	1
65	73	1
65	67	1
63	68	2
121	122	4
57	82	1
70	72	1
72	129	1
91	94	1
71	87	1
59	83	1
50	87	1
123	127	1
47	51	1
16	20	1
97	126	1
77	108	1
126	129	2
37	57	1
44	62	2
77	82	1
43	44	1
53	87	1
97	113	1
116	129	1
52	85	2
93	105	1
96	130	1
3	5	2
83	93	1
111	117	1
98	104	1
109	132	1
63	65	1
33	36	1
76	88	1
97	99	1
97	106	1
85	86	1
82	126	1
109	110	1
4	79	1
70	104	1
98	135	1
