25	25	11
56	56	15
17	19	12
44	90	6
133	134	8
100	101	12
165	165	11
14	14	13
17	17	18
41	41	6
105	156	5
156	156	19
36	108	4
50	128	1
62	63	5
79	79	16
5	44	2
95	95	8
157	157	2
137	137	4
169	169	2
74	79	3
139	139	8
19	20	3
81	83	5
114	114	17
128	129	9
104	104	14
125	125	6
77	80	4
101	102	9
118	118	6
68	68	12
91	94	6
49	50	3
22	22	8
63	63	14
48	75	1
76	76	19
122	122	8
108	109	7
18	18	22
87	88	8
3	3	9
36	36	10
96	97	6
87	87	15
98	98	14
35	36	13
134	134	16
21	21	15
103	103	11
35	35	20
119	119	9
6	6	17
120	120	12
152	153	2
148	148	4
152	152	6
50	51	3
76	108	7
83	83	22
50	67	3
110	111	13
38	38	19
107	108	3
48	53	7
99	100	3
42	42	18
50	50	17
94	94	8
7	7	18
85	85	17
123	123	8
169	170	10
81	81	8
126	126	10
52	52	19
77	106	3
54	54	15
153	154	12
100	100	21
9	9	9
90	91	5
48	48	16
40	54	1
23	23	12
74	74	5
125	126	3
55	56	4
106	107	1
53	53	18
12	12	15
135	135	9
13	13	15
33	34	2
79	80	16
98	155	1
98	99	3
47	47	11
87	89	14
82	92	6
164	164	9
39	39	5
28	28	4
82	82	20
124	124	10
90	90	12
92	93	10
107	107	6
160	161	4
80	80	7
150	150	7
161	165	5
72	72	2
151	151	5
37	37	9
41	166	2
20	20	11
73	77	6
94	105	1
63	96	1
24	24	14
37	38	10
131	131	3
93	93	14
86	86	5
95	131	2
160	160	7
96	96	20
69	69	7
97	98	6
8	9	2
71	148	3
26	27	4
133	133	7
147	147	3
136	168	2
108	108	9
76	78	4
9	10	6
49	49	7
80	81	11
132	133	9
70	71	2
117	117	6
79	81	3
147	148	5
140	144	3
81	82	3
90	103	4
22	54	4
0	0	4
46	46	13
54	68	1
155	155	7
141	141	4
67	68	2
155	157	2
78	105	6
101	101	16
65	65	5
155	156	5
8	8	17
106	106	9
96	164	4
58	89	6
163	163	7
70	72	6
23	24	15
77	77	6
111	112	2
19	19	4
41	53	5
55	55	14
14	15	6
1	2	5
74	117	4
45	46	10
20	21	6
39	40	7
71	71	14
67	112	1
7	10	3
20	26	4
127	128	10
46	164	3
123	125	2
13	14	3
43	43	13
27	27	11
44	44	15
128	128	5
66	66	11
100	121	2
129	129	7
75	93	5
111	111	12
149	150	5
15	17	7
79	93	1
44	45	6
6	34	1
162	162	12
51	63	4
75	88	4
47	48	7
62	62	8
76	77	4
34	35	10
140	140	4
145	146	4
94	95	4
63	65	4
92	92	10
95	104	2
45	110	3
113	113	9
26	26	11
34	36	2
75	75	5
86	87	7
71	73	5
79	85	1
127	127	10
83	113	3
159	159	12
64	64	6
110	110	12
126	127	4
91	91	16
149	149	5
112	112	10
9	25	1
84	85	7
158	158	4
57	58	3
15	15	12
53	54	1
119	120	3
11	16	2
116	116	7
83	89	1
65	109	1
99	99	10
117	124	1
117	122	3
88	88	8
85	89	1
84	84	13
102	102	5
4	4	6
161	161	6
164	165	1
17	18	3
143	144	2
144	144	11
69	70	10
121	121	4
97	99	1
27	105	1
105	106	3
89	89	6
77	78	4
11	12	6
70	70	14
167	167	3
55	58	2
127	150	2
68	87	1
91	98	1
3	28	2
130	131	7
73	73	14
67	67	2
113	143	2
121	122	3
115	155	3
89	90	4
85	87	9
114	115	5
21	22	2
72	86	2
168	168	4
81	84	1
67	87	3
1	3	2
49	83	5
34	34	7
85	86	1
11	11	7
115	115	6
56	57	2
97	97	9
54	58	3
95	96	8
142	142	7
107	139	2
43	44	1
20	41	2
47	56	1
7	122	2
104	105	3
5	5	7
47	49	8
102	151	2
84	86	6
166	166	4
80	82	1
91	92	3
33	33	3
155	158	1
103	167	2
44	46	3
21	24	1
57	63	1
163	164	2
125	127	3
97	100	1
93	101	3
74	119	3
66	69	5
37	169	2
54	56	3
14	164	5
72	73	5
46	93	2
45	45	6
74	93	2
5	6	6
15	16	3
97	138	1
159	160	3
40	40	9
64	127	1
45	99	5
155	161	3
137	138	3
66	67	2
139	170	2
58	58	3
109	109	7
49	112	2
38	40	2
39	62	7
2	2	8
51	51	5
97	165	4
13	147	1
51	52	4
47	127	2
130	130	2
139	147	1
94	131	1
38	39	1
19	46	2
101	103	2
116	117	4
105	111	3
6	7	10
36	38	1
101	131	1
37	56	3
94	100	1
4	41	1
52	53	5
4	5	1
71	72	6
40	55	2
0	48	3
103	104	2
146	146	9
56	58	1
154	154	4
16	139	1
95	132	1
135	147	1
82	106	1
3	4	1
117	118	3
10	10	6
46	50	1
47	64	1
157	158	6
20	112	1
144	149	3
48	49	3
105	105	3
93	95	2
144	145	2
162	168	4
16	16	9
115	116	2
170	170	4
148	149	2
112	158	3
83	106	2
48	55	2
36	37	3
82	91	1
148	150	1
13	16	3
79	102	2
57	57	2
21	115	1
140	141	1
91	96	2
1	1	5
88	89	2
1	5	1
58	90	1
2	3	3
145	145	7
120	132	1
90	99	1
50	57	1
143	143	2
118	125	1
13	15	2
86	91	1
150	151	2
142	144	2
52	57	3
4	6	1
44	85	2
68	110	3
165	167	1
65	68	3
161	162	2
46	63	1
136	157	2
132	132	4
54	55	1
136	136	2
135	136	1
45	47	1
18	22	1
85	104	2
52	58	2
64	66	1
40	41	3
10	11	2
74	80	2
126	129	1
72	75	1
24	25	1
109	112	2
75	109	2
65	87	1
58	62	2
74	151	1
122	123	2
78	80	1
2	97	1
91	93	1
116	129	1
64	88	1
12	16	1
0	52	2
39	67	1
41	42	2
153	155	1
25	26	1
20	22	2
68	69	1
52	64	1
156	163	1
125	132	1
77	83	2
77	104	1
7	112	1
41	43	1
6	110	1
69	77	2
78	78	1
73	74	1
79	94	1
91	100	2
8	10	1
20	72	1
113	114	1
92	95	2
49	129	1
131	132	2
12	14	1
40	58	1
78	112	1
166	167	1
14	137	1
120	121	1
19	22	1
127	129	1
22	23	1
103	107	1
18	19	3
142	146	1
14	18	2
12	13	1
50	71	1
16	17	1
38	111	1
88	102	1
18	23	1
1	120	1
109	110	2
154	155	1
151	157	1
3	5	1
157	169	1
73	117	2
14	19	1
149	156	1
