33	34	2
105	105	5
83	87	3
119	119	2
98	98	2
35	38	2
63	63	9
93	113	7
69	69	8
19	20	4
99	106	7
122	122	6
100	119	2
9	9	2
10	42	1
12	12	2
88	88	6
134	134	6
59	59	3
107	107	7
65	69	1
124	124	3
99	100	7
93	93	5
22	22	5
118	118	4
116	116	5
125	126	3
114	114	7
110	110	11
34	34	7
94	94	4
81	84	2
95	96	2
11	16	2
86	87	5
27	28	3
114	116	6
8	8	8
120	120	2
113	113	5
106	130	5
57	57	3
4	4	6
58	58	6
48	50	5
64	65	1
70	70	6
50	50	3
97	97	9
94	133	5
54	54	3
132	132	5
115	116	5
18	24	2
29	29	2
53	53	3
104	104	2
8	9	4
11	11	3
69	104	4
109	109	6
26	26	1
16	16	2
103	104	4
37	37	6
33	33	2
44	44	7
111	111	9
131	131	9
98	99	4
121	122	2
27	27	7
123	123	7
1	1	2
126	126	3
79	79	6
52	53	1
133	133	2
89	89	9
13	14	2
101	101	4
109	128	2
11	42	3
111	133	3
17	23	1
91	91	4
99	101	1
61	61	3
82	114	3
82	124	5
6	9	1
65	67	2
128	129	5
55	78	3
28	28	4
21	22	2
86	86	7
15	15	5
55	55	6
96	96	2
120	129	1
68	68	1
93	118	3
34	35	2
117	118	1
75	75	5
11	15	1
77	80	1
12	65	1
32	74	1
49	114	2
101	121	5
87	87	5
121	121	6
90	90	4
106	115	2
78	78	5
102	103	2
20	20	13
119	120	2
127	127	10
36	36	4
44	84	2
106	110	3
22	23	1
24	24	4
82	82	1
68	69	2
129	130	1
10	11	1
60	60	6
19	19	4
63	64	3
96	132	2
30	30	3
46	46	1
115	115	2
26	27	1
106	132	1
45	45	3
57	62	1
108	108	1
66	134	1
44	56	1
65	95	1
11	12	3
77	77	2
88	90	2
8	77	2
48	116	3
128	128	3
63	84	1
132	135	3
43	43	2
117	122	2
130	130	2
134	135	3
111	112	1
100	101	3
95	95	3
103	103	3
56	57	1
23	127	2
81	82	3
56	66	1
50	125	2
74	74	3
8	127	4
25	125	1
10	22	1
106	107	1
7	8	4
120	121	2
55	56	4
127	128	1
67	83	3
14	127	1
116	118	1
112	113	4
85	88	2
71	73	1
4	5	1
66	95	2
110	111	3
32	32	1
3	4	2
126	127	1
105	106	1
112	112	1
120	126	2
124	126	1
113	114	2
33	63	1
121	130	2
109	116	1
30	73	1
105	128	2
99	118	2
65	111	1
100	108	1
92	92	1
108	109	3
56	56	1
23	23	2
1	2	1
25	122	1
98	122	1
18	20	3
36	37	3
109	111	1
65	65	2
31	31	1
102	102	1
48	108	1
84	84	1
29	121	1
13	18	1
84	87	1
52	52	1
49	50	2
63	77	1
87	91	1
47	120	1
104	112	1
59	62	1
64	135	1
14	20	1
127	131	2
80	80	1
61	65	1
45	108	1
132	133	1
33	62	1
83	116	1
76	76	1
33	80	1
67	91	1
52	56	1
58	70	1
16	22	1
66	67	1
81	124	1
7	7	1
27	122	1
