148	148	3
1	2	5
46	46	6
110	110	8
88	88	4
119	155	1
120	120	2
7	8	4
5	43	3
38	38	3
116	116	4
14	14	8
18	19	2
51	51	5
111	111	4
141	141	3
8	8	8
117	117	1
163	163	4
52	52	6
38	39	5
15	15	12
3	11	2
44	44	2
25	25	8
94	94	4
130	131	5
106	106	2
111	113	2
139	139	8
165	166	5
160	160	2
18	18	5
21	22	3
10	11	1
152	152	2
112	112	6
112	160	3
144	144	4
66	66	3
153	153	3
3	4	3
5	5	5
119	119	3
166	166	6
8	12	3
127	128	3
93	93	1
68	120	1
34	34	6
63	69	4
95	96	2
47	47	4
99	158	3
43	44	1
97	97	4
24	24	6
103	103	1
132	133	4
65	66	2
13	13	5
169	170	1
1	1	1
3	27	8
22	24	1
162	165	8
100	100	3
41	41	6
134	134	5
27	27	4
117	118	7
117	119	1
69	74	2
23	23	6
18	20	2
4	5	2
133	133	10
20	127	3
73	73	3
16	16	3
122	122	2
84	84	2
122	123	2
54	56	7
48	49	3
129	129	6
100	102	2
4	4	1
40	40	2
153	162	1
77	77	3
68	69	2
76	151	4
3	3	3
62	63	1
131	132	3
85	85	4
137	147	3
19	19	11
113	114	1
111	112	2
17	17	10
62	69	3
150	150	3
49	49	2
10	10	4
108	109	2
121	121	7
118	119	1
36	36	4
25	26	1
157	157	7
64	64	3
35	37	1
116	155	1
133	134	4
68	68	3
63	68	3
50	50	6
114	115	5
133	136	4
123	124	1
124	124	2
107	107	4
9	10	1
146	146	2
131	133	3
149	149	1
93	94	4
63	66	2
22	46	3
108	124	5
90	90	3
92	93	1
139	140	2
105	105	4
102	104	1
13	14	1
20	20	1
70	70	1
55	55	1
107	113	2
6	17	1
2	2	7
114	114	4
164	165	2
36	43	5
12	13	1
83	83	4
82	152	2
70	124	3
58	71	3
81	82	2
115	115	1
6	8	1
56	57	2
126	127	4
58	62	2
57	57	2
92	92	1
71	71	1
155	155	5
12	106	1
155	157	3
103	106	3
137	137	3
109	109	1
82	83	2
54	68	4
125	126	3
69	117	1
147	147	1
143	146	1
140	140	3
85	109	1
126	126	1
108	108	2
69	69	4
6	7	2
7	7	5
90	91	1
154	154	1
63	63	3
46	50	1
76	76	4
132	167	3
128	129	2
20	21	4
153	161	1
51	66	1
0	1	4
167	167	3
69	70	3
141	142	1
14	15	1
40	41	1
133	161	1
99	99	4
43	43	3
17	18	1
6	6	2
16	17	2
125	125	1
54	55	4
97	99	1
78	78	3
44	46	2
74	74	3
54	54	2
146	147	1
39	50	1
61	62	2
160	163	2
166	167	1
163	164	2
3	113	2
103	104	1
91	91	3
48	58	1
145	145	2
4	147	1
70	112	1
44	45	3
37	37	1
87	87	1
51	58	1
96	96	2
123	123	1
155	156	1
170	170	1
132	132	1
128	128	1
74	75	1
95	95	2
35	35	3
80	80	1
127	127	1
53	53	2
102	102	1
58	67	1
72	72	1
98	100	1
12	12	1
73	112	1
120	121	1
72	74	1
85	126	2
86	86	1
82	82	1
26	28	1
80	81	1
5	6	1
159	159	1
129	130	1
2	35	1
24	49	1
67	67	1
