116	157	1
9	13	3
12	12	30
139	139	8
24	24	18
73	73	7
67	68	2
9	9	27
52	61	3
26	27	17
4	4	20
44	44	22
102	134	1
3	3	34
29	29	25
168	168	14
15	15	17
34	40	1
19	30	2
31	32	15
175	176	2
104	104	11
135	135	6
78	78	8
118	118	8
160	160	10
67	70	2
4	5	10
74	136	2
52	52	15
99	135	3
126	157	1
82	82	9
34	34	3
177	177	8
11	11	15
67	67	21
1	2	4
109	169	1
178	178	17
67	71	2
32	32	29
76	76	14
17	17	24
26	26	21
176	177	1
87	87	8
12	13	16
65	66	2
18	150	3
68	169	1
13	16	2
56	57	5
90	90	13
100	108	5
66	107	1
111	112	7
29	96	1
84	85	9
53	53	10
134	134	8
14	36	2
113	113	9
93	94	8
81	101	4
142	142	11
32	33	9
149	149	7
90	121	2
147	147	5
124	125	6
2	6	3
132	150	4
172	172	11
49	49	5
91	92	5
134	178	3
146	146	9
109	130	1
23	31	2
15	73	1
4	18	4
31	31	23
143	145	4
140	140	6
130	130	4
56	97	1
160	162	1
31	40	1
17	68	5
7	30	3
5	5	21
9	10	6
57	91	2
45	45	29
75	75	4
144	144	5
41	44	8
3	5	3
33	33	36
37	37	22
68	68	11
34	35	4
142	143	14
140	159	2
71	91	3
151	156	4
168	169	8
101	108	4
44	45	5
36	36	26
115	116	8
110	110	10
21	22	2
25	25	27
16	16	15
149	150	4
82	119	2
27	27	15
35	36	3
164	164	9
10	10	32
17	18	9
76	77	3
167	167	14
155	156	6
116	116	17
42	42	19
23	23	30
18	20	4
28	28	20
92	113	3
41	42	8
18	18	20
23	39	4
14	14	15
63	63	8
101	109	4
83	84	2
74	74	10
84	140	7
95	95	11
8	8	31
2	2	30
2	3	8
16	17	12
29	30	6
59	147	2
10	15	3
86	178	5
35	35	14
30	30	21
1	1	23
168	170	1
9	11	1
123	123	13
13	13	26
166	166	9
2	15	1
0	4	1
124	124	17
54	173	2
50	50	6
54	56	6
159	160	6
42	164	1
10	60	2
92	93	3
128	128	19
37	42	2
130	131	2
148	148	11
16	173	3
81	81	9
81	140	4
19	20	8
97	97	4
65	65	11
101	107	3
33	144	2
87	89	5
58	58	15
10	13	5
173	173	14
19	21	1
13	73	6
118	120	3
125	125	4
7	7	22
2	4	10
22	22	17
97	124	2
9	16	2
43	43	20
158	158	13
7	9	2
10	34	1
28	29	4
55	55	10
146	147	4
132	133	2
151	157	2
120	120	5
72	74	4
165	165	6
20	22	3
99	100	4
70	71	7
50	143	1
104	107	1
0	0	12
13	14	5
19	25	4
169	169	9
97	98	2
23	120	3
121	122	4
30	31	5
19	19	22
114	114	4
109	109	9
82	118	3
6	7	11
55	136	1
88	88	12
25	26	19
176	176	8
79	80	3
128	151	3
157	158	9
101	103	3
145	146	3
15	144	6
40	40	18
15	19	1
21	21	14
111	117	1
137	137	10
91	106	1
53	71	2
6	6	13
108	108	12
169	175	3
180	180	4
170	170	21
123	173	7
177	178	3
7	53	4
24	25	17
6	41	1
68	86	4
95	149	3
117	169	2
77	78	3
85	87	1
27	31	1
56	90	2
107	107	10
28	30	3
89	89	8
14	80	2
17	20	2
118	172	4
8	9	12
20	20	9
61	61	8
34	57	1
92	94	1
2	31	1
103	103	4
3	4	18
118	128	2
91	91	9
79	79	4
35	42	3
67	85	2
105	106	2
122	122	24
45	126	3
14	31	2
136	136	11
13	35	7
8	12	7
15	16	6
133	133	15
26	28	4
173	174	2
170	171	5
138	138	8
66	66	9
59	59	3
39	39	9
23	44	5
41	164	3
26	35	2
111	111	10
7	10	4
143	143	5
160	164	2
72	72	5
112	114	5
33	41	2
61	146	1
105	146	1
154	158	1
50	51	5
123	124	3
57	57	6
84	84	3
101	101	7
99	99	1
117	117	4
18	19	6
152	165	2
64	64	3
154	154	16
98	99	3
11	13	8
100	105	2
5	6	17
147	148	3
33	39	3
88	89	1
138	153	1
23	29	2
170	172	5
154	159	1
131	173	4
145	145	1
156	157	2
121	121	7
87	112	4
103	105	4
32	43	2
9	17	2
5	7	9
88	141	2
117	118	4
114	159	2
119	119	6
2	20	2
114	115	4
38	150	1
71	71	15
41	41	15
116	128	1
62	62	5
21	44	2
18	22	3
12	15	2
46	46	1
39	41	1
74	76	2
28	64	2
126	144	3
85	85	5
58	120	1
135	140	2
152	153	4
10	11	6
122	158	2
53	54	4
75	83	2
121	139	1
19	41	1
126	128	1
172	173	2
158	159	4
4	8	1
63	64	2
82	84	2
102	102	8
144	145	2
14	17	1
27	130	1
157	157	4
23	24	5
116	117	2
151	151	7
1	21	1
40	41	2
106	136	1
30	33	3
39	40	8
38	38	11
66	136	2
9	61	1
174	174	8
5	33	1
20	21	11
36	38	1
16	19	1
50	77	3
13	44	3
179	179	8
5	17	4
58	167	1
15	45	2
99	158	3
129	129	8
32	45	1
82	148	4
15	25	1
64	66	2
62	84	2
126	150	5
27	28	6
131	131	8
161	161	5
14	149	2
162	162	2
108	109	7
163	163	7
129	134	4
22	23	2
43	44	4
5	45	3
13	41	1
26	46	1
102	103	7
8	40	2
159	159	10
141	141	6
33	131	3
141	148	3
32	58	1
92	92	6
80	81	2
121	126	1
34	130	4
33	136	1
110	113	2
13	15	2
51	52	3
150	150	10
14	74	2
115	115	5
126	161	2
19	33	2
32	134	1
57	139	2
0	1	4
123	130	2
171	171	6
15	142	1
151	155	2
75	76	3
29	31	3
85	93	1
23	25	3
120	121	3
114	119	4
153	153	2
117	151	3
66	119	1
52	53	1
155	155	6
41	45	1
80	80	13
126	143	1
122	123	1
127	130	2
35	172	2
138	179	3
13	43	2
50	53	2
127	143	3
80	94	1
81	82	4
132	132	6
22	43	1
163	164	5
101	102	3
113	114	1
87	174	3
54	54	7
51	122	4
43	179	1
76	130	2
25	32	1
129	153	2
27	42	2
104	105	5
4	7	2
59	86	2
11	12	5
65	107	3
59	61	3
17	23	2
122	173	1
14	15	5
119	121	1
154	172	1
37	38	3
104	168	3
67	86	2
31	34	1
22	33	2
31	33	4
79	92	1
95	96	2
62	63	4
174	175	2
88	96	1
5	13	3
166	174	2
166	170	1
103	130	1
17	93	1
85	86	1
7	19	1
0	32	1
50	102	4
167	168	3
161	163	3
123	135	2
87	120	2
35	173	3
107	108	2
106	106	2
62	97	1
33	34	3
68	85	2
130	154	1
118	149	4
29	60	1
78	86	1
96	96	2
156	156	2
127	128	2
161	162	2
99	156	2
12	28	2
35	168	1
169	170	1
127	127	3
4	51	1
143	175	1
24	39	4
80	112	2
153	154	1
143	169	2
154	155	3
8	15	2
173	178	2
64	65	1
100	121	2
51	51	3
91	104	1
76	125	3
1	4	1
171	172	1
4	9	2
126	158	1
112	112	4
109	111	1
0	52	1
79	145	2
42	43	5
29	50	1
98	112	3
11	63	1
83	85	2
57	85	2
134	137	2
58	59	1
15	41	1
98	98	3
14	67	2
42	132	1
53	146	2
80	142	1
25	31	1
6	34	1
100	100	3
20	155	1
110	151	1
39	82	1
111	160	3
44	46	1
36	135	1
126	127	4
73	74	1
66	67	2
83	83	7
101	121	2
154	167	1
56	79	1
21	33	1
2	5	4
94	94	4
159	168	2
161	169	1
33	40	1
123	125	1
87	154	1
15	18	1
60	146	1
155	157	2
110	117	1
136	180	2
12	82	1
43	102	2
126	126	3
33	43	2
103	104	1
128	129	2
31	76	4
95	130	3
160	166	2
81	111	3
90	91	1
94	176	1
137	138	2
3	16	2
10	14	2
63	86	1
120	171	2
77	121	1
71	77	2
161	167	3
50	63	2
132	135	2
160	161	3
157	163	2
108	153	1
28	31	1
71	72	4
64	109	1
15	141	1
15	37	1
151	153	2
40	106	1
4	10	3
163	170	1
77	127	1
152	152	1
133	174	2
130	133	1
35	38	1
163	165	2
164	165	2
37	40	1
77	77	7
0	10	1
119	122	1
109	110	1
53	171	2
16	80	3
1	9	1
178	180	1
116	156	1
135	136	2
35	37	1
16	30	2
111	114	2
167	173	1
89	94	2
45	46	2
22	29	2
50	104	1
105	105	3
52	146	1
41	43	3
131	132	1
58	91	2
112	172	2
66	168	2
6	25	1
162	166	2
127	175	3
8	10	1
7	36	1
131	134	1
82	85	1
143	144	1
81	118	1
125	135	2
17	19	1
16	27	1
1	10	2
125	127	1
9	51	1
33	132	1
130	157	1
165	170	2
111	116	1
62	113	2
70	94	1
63	115	1
100	155	1
12	18	1
175	175	1
60	122	1
165	166	2
63	109	1
91	112	2
23	30	1
63	127	1
15	31	1
60	121	1
169	174	2
106	142	1
164	170	2
118	151	1
12	42	1
3	163	1
19	27	1
55	56	1
67	84	1
104	145	1
72	73	1
60	60	2
142	144	2
12	35	1
135	180	1
87	119	1
57	96	1
94	96	1
54	57	1
130	150	1
43	45	3
60	102	1
93	138	2
14	83	1
18	110	2
158	160	1
7	11	1
16	25	1
24	28	1
59	102	1
50	74	1
96	97	1
8	44	1
23	168	1
117	156	1
14	81	1
115	129	1
4	15	1
2	78	1
17	22	1
167	169	1
7	8	2
115	121	1
135	174	1
87	88	1
161	168	1
4	30	1
37	39	1
31	43	2
39	148	1
106	107	1
170	173	1
16	31	1
110	161	1
52	168	1
106	139	1
133	138	2
75	114	1
26	29	1
65	85	1
162	163	1
50	88	1
62	126	1
131	154	1
102	122	1
140	153	1
87	98	1
59	60	1
1	20	1
101	120	1
82	116	1
36	37	1
31	136	1
31	58	1
