42	42	7
17	17	15
64	64	10
27	28	11
144	144	15
81	81	10
120	120	9
75	76	3
89	90	18
66	66	6
32	32	19
49	50	7
103	103	3
12	13	2
99	99	15
65	65	8
15	15	9
25	26	7
100	100	13
1	1	8
63	64	4
36	37	5
124	125	8
118	119	5
140	142	8
67	68	4
17	18	3
41	83	2
119	120	5
21	22	1
41	41	21
122	123	9
35	35	4
136	137	9
125	126	4
111	111	7
111	125	4
47	68	4
34	34	6
33	41	1
83	83	13
126	130	2
80	80	7
100	101	2
140	140	15
102	102	10
12	12	3
143	144	9
89	89	9
29	29	13
91	140	5
134	134	8
69	71	8
47	48	1
53	54	4
52	52	10
39	39	6
26	26	10
8	8	4
26	29	7
129	134	1
31	32	5
73	101	4
55	55	3
146	146	5
86	86	5
92	96	3
128	129	7
52	54	1
23	23	14
99	100	5
133	133	12
92	92	9
90	90	4
76	77	9
74	74	19
113	113	7
125	125	11
27	27	14
101	101	17
87	88	1
47	47	9
19	19	10
88	89	6
8	10	6
67	67	19
8	9	7
133	134	5
142	142	10
124	127	7
28	28	20
145	146	2
127	127	10
135	138	1
52	55	7
97	97	12
131	131	22
10	11	6
83	86	8
84	85	9
123	123	12
18	18	12
131	133	11
29	141	2
124	124	18
114	114	6
49	49	2
26	27	2
48	49	9
137	139	2
117	118	6
6	49	2
135	135	11
37	38	5
61	61	10
73	74	6
95	95	18
3	3	8
91	91	9
96	96	15
4	6	2
51	51	5
95	96	6
11	11	1
121	121	16
75	75	7
72	80	1
46	46	1
115	124	1
90	91	10
69	70	2
126	126	24
73	73	3
56	56	4
9	10	3
99	140	1
131	134	1
135	140	4
9	9	7
30	36	2
123	124	1
63	63	3
126	129	3
104	104	22
24	24	11
50	52	1
60	60	5
76	76	11
50	50	2
112	113	9
39	40	3
70	74	1
118	121	5
101	110	1
14	14	1
77	79	5
49	52	6
23	129	2
31	31	6
70	70	4
75	139	1
138	140	3
82	103	1
145	145	11
90	95	2
132	132	5
25	27	3
54	54	5
48	48	6
20	20	3
105	106	4
119	121	5
135	136	1
70	71	2
71	71	7
2	4	2
118	132	3
38	57	1
140	141	8
58	58	6
40	40	8
80	81	5
79	85	4
23	25	3
62	62	8
68	68	7
136	139	6
38	128	1
52	62	1
72	72	3
72	78	5
65	66	4
138	138	8
116	117	7
118	118	6
38	38	10
24	25	5
129	129	3
125	129	1
53	56	1
20	21	10
75	77	2
95	97	3
87	87	2
13	15	1
96	97	2
16	16	15
93	117	1
110	110	3
93	94	4
130	130	5
34	35	8
118	124	2
75	78	5
57	57	3
141	143	6
119	119	5
122	122	11
78	79	3
22	23	4
139	139	3
21	21	7
98	99	1
16	17	1
62	71	3
25	25	4
107	107	2
74	78	1
10	10	3
41	42	9
43	80	4
135	141	2
141	141	14
94	94	6
88	88	7
74	76	4
137	138	1
127	130	8
93	114	3
3	4	6
139	140	3
114	116	1
54	56	3
0	6	1
110	112	1
105	108	1
109	109	4
72	73	6
57	60	3
35	36	11
140	143	2
30	32	2
43	43	3
120	128	2
32	33	1
62	63	9
107	108	8
27	91	1
98	98	4
22	22	5
138	139	8
81	84	4
33	36	2
122	133	2
26	127	1
66	67	3
4	30	2
4	4	7
107	109	1
100	135	4
136	136	4
52	63	1
97	99	1
59	59	2
70	72	3
37	37	8
80	85	3
121	122	3
77	77	5
67	72	1
128	128	8
15	16	2
30	38	1
132	133	2
77	85	2
28	29	6
122	124	1
130	134	1
41	81	2
25	129	3
42	43	4
100	110	1
50	51	2
101	102	1
40	41	5
63	66	5
92	93	1
131	132	2
127	129	8
6	13	2
134	135	2
130	131	2
93	95	1
36	36	5
113	114	3
31	39	1
30	30	6
79	79	6
58	59	5
132	134	4
117	121	1
118	120	2
63	65	1
83	84	2
78	82	1
96	102	1
92	94	5
56	61	1
115	115	5
125	127	4
87	102	3
89	92	4
40	81	1
47	51	1
0	9	1
89	94	2
85	85	1
140	144	1
58	71	1
56	58	5
90	94	1
18	19	1
50	53	2
86	88	2
106	106	1
63	73	1
34	36	2
98	100	2
108	108	1
137	137	2
113	117	3
100	102	1
90	102	2
24	26	2
142	143	4
6	6	2
82	82	1
144	145	1
57	58	2
23	126	3
93	93	8
71	72	2
33	35	5
124	129	6
72	74	1
88	92	2
26	128	1
47	69	1
0	1	2
14	16	1
141	142	8
139	144	1
117	120	2
142	144	1
78	78	1
143	143	6
107	115	1
16	18	1
117	117	2
121	123	1
117	135	2
126	142	2
32	91	4
106	133	1
94	95	3
19	20	4
87	89	1
106	109	2
126	127	1
59	60	3
73	83	2
53	53	3
33	58	1
84	84	1
107	111	5
61	62	2
103	104	3
74	75	1
94	97	2
73	103	1
91	92	2
80	82	1
25	128	2
112	112	1
91	96	1
38	120	1
86	87	1
70	73	1
19	135	1
52	56	3
76	78	1
79	80	3
6	81	1
24	128	1
13	13	3
17	22	2
100	134	1
117	139	2
3	5	2
39	41	3
82	83	1
59	61	1
70	76	3
82	85	1
5	5	3
94	141	2
53	55	1
57	59	1
14	34	1
119	123	1
0	3	1
75	91	1
1	11	1
119	124	1
39	74	1
109	110	1
69	75	1
29	41	1
104	105	1
22	24	1
66	72	1
89	142	1
62	64	2
97	139	1
8	16	1
28	80	1
17	21	1
29	30	1
120	141	3
22	25	1
55	56	1
58	65	1
