2	2	5
158	158	4
70	71	4
32	32	7
102	103	2
199	199	2
242	242	5
113	113	5
125	125	4
62	63	6
8	52	1
40	40	7
75	77	3
51	51	7
49	49	1
84	91	2
10	109	2
56	57	7
116	116	1
75	127	1
184	184	1
167	167	3
5	5	2
56	196	2
69	69	3
218	218	4
36	37	3
192	192	6
10	181	1
146	146	3
25	122	5
68	154	1
154	169	4
114	131	2
211	211	4
24	25	3
99	99	6
130	130	5
65	65	4
0	1	2
104	104	4
198	199	2
28	28	9
206	206	7
191	192	3
70	70	3
165	165	3
41	41	8
123	126	1
123	155	1
39	55	3
107	108	4
61	61	6
173	176	3
239	239	3
137	137	3
151	170	1
61	63	5
54	54	10
36	73	3
201	227	4
97	98	5
66	67	7
4	22	1
36	36	6
115	116	2
119	119	3
31	31	3
2	15	1
58	58	6
119	121	1
107	107	4
5	6	8
124	124	3
157	157	7
85	86	4
46	48	4
42	42	8
75	80	5
4	6	1
96	96	3
73	73	3
125	139	1
11	11	5
45	45	3
118	124	2
12	12	2
44	122	2
43	43	2
200	200	10
223	224	1
136	149	2
21	21	9
46	46	8
7	7	3
56	56	4
14	14	2
134	138	3
124	127	3
131	144	4
203	226	3
219	219	4
88	88	1
207	207	4
196	196	11
20	29	1
18	18	6
215	231	2
122	122	2
103	104	7
160	161	4
78	124	4
42	72	1
64	64	7
86	101	1
4	17	2
228	231	3
0	0	6
102	102	5
182	182	5
53	53	10
201	201	5
173	173	3
55	55	4
27	217	4
20	36	5
8	8	5
11	24	1
180	180	3
76	77	2
33	34	2
2	3	9
136	136	8
117	126	1
224	234	2
217	219	1
71	71	7
143	143	4
195	195	1
82	82	3
142	142	8
62	153	2
119	132	1
128	128	6
49	100	3
177	177	1
38	38	9
236	236	1
46	47	3
84	101	2
31	35	1
109	109	8
156	158	1
117	129	2
231	231	6
216	216	4
89	134	2
135	137	1
238	238	7
54	163	1
28	209	2
18	29	2
59	59	10
21	22	2
14	15	3
184	188	1
186	205	1
175	175	2
227	227	4
72	97	2
8	59	1
211	216	2
233	233	4
216	219	1
98	98	6
232	232	2
11	166	4
17	193	2
20	20	3
15	15	8
16	16	3
67	67	11
125	127	2
97	97	1
79	106	3
85	85	11
43	163	1
183	183	5
72	72	9
30	66	2
13	14	8
183	188	1
2	7	1
3	17	1
63	63	4
17	34	2
222	222	2
128	129	1
30	57	3
77	77	2
86	86	3
141	143	2
30	30	2
176	176	4
75	76	1
187	188	1
208	208	2
88	101	1
82	83	4
155	156	4
23	23	8
59	67	1
203	203	2
44	44	4
19	28	1
3	9	8
133	133	4
61	62	2
178	183	2
150	150	1
57	57	2
235	235	1
179	179	6
26	69	3
213	213	2
14	195	2
40	60	1
77	79	3
6	8	2
35	35	3
7	18	2
137	160	1
105	105	1
73	74	4
36	39	2
126	127	1
220	223	2
37	55	1
81	81	7
50	51	2
40	42	4
25	25	3
214	214	3
40	48	1
154	154	2
210	210	6
215	215	6
84	84	1
173	175	4
53	69	2
19	21	1
27	29	2
216	221	3
19	19	6
40	160	2
141	141	1
182	201	4
209	210	1
17	17	2
191	191	3
45	75	1
162	164	1
133	134	3
48	115	4
22	33	4
13	171	2
115	115	4
43	239	1
172	172	1
63	163	1
126	126	2
25	28	1
64	65	1
30	55	1
195	198	2
29	29	4
100	105	3
27	237	1
6	51	2
56	194	2
49	50	3
68	68	5
129	129	1
221	221	2
166	166	5
188	190	1
52	53	2
192	202	6
11	15	1
202	202	4
148	148	1
9	9	2
175	176	2
144	144	2
100	100	7
140	140	1
45	47	1
135	135	3
181	181	3
173	183	2
34	34	5
1	47	1
20	37	2
17	22	2
24	55	1
184	192	1
16	31	1
241	241	1
194	195	5
212	213	2
187	192	3
78	123	1
7	21	3
193	212	1
24	32	2
152	152	1
83	83	2
34	36	2
112	112	1
22	22	6
22	29	2
6	6	1
55	239	2
9	17	4
143	144	1
226	226	2
182	207	1
168	168	1
23	112	2
62	62	1
74	75	1
16	32	2
107	126	1
215	216	1
25	39	1
119	120	1
16	21	1
56	70	3
229	242	1
234	236	2
125	159	1
239	240	1
108	108	3
127	127	3
45	46	1
220	220	1
18	21	1
121	137	2
124	129	1
217	221	1
39	39	1
117	117	1
58	66	2
171	171	1
118	120	1
78	78	1
16	198	1
106	106	3
178	207	1
58	59	1
1	1	5
168	169	1
48	48	1
29	39	2
56	173	1
183	184	2
66	66	2
240	240	2
161	162	1
206	209	1
4	111	1
164	164	1
140	143	2
145	146	2
11	31	1
145	145	1
47	50	1
136	154	1
129	146	1
180	209	1
163	164	1
4	5	2
21	84	1
55	56	1
235	236	1
24	24	2
134	136	1
142	168	2
142	143	2
59	60	1
159	160	2
88	105	1
116	129	1
190	226	1
230	230	1
225	225	1
167	176	2
170	170	2
174	180	2
10	20	2
155	155	1
86	100	2
173	174	1
229	229	1
116	135	1
13	195	1
121	160	1
223	223	2
120	121	2
149	149	1
25	26	1
20	21	2
148	149	2
158	159	1
116	122	1
75	79	1
137	139	1
4	8	2
158	176	1
5	34	2
3	3	1
159	170	1
190	191	1
209	209	1
74	74	1
61	74	1
10	10	1
138	138	1
19	36	1
79	79	1
189	189	1
66	200	1
132	133	1
187	187	1
179	180	1
40	49	1
44	120	1
211	225	1
32	64	1
72	100	1
43	53	2
220	222	1
131	131	1
151	151	1
160	165	1
156	157	1
