207	207	3
95	95	6
56	56	8
104	105	2
191	192	2
77	77	5
178	178	3
213	213	2
8	8	6
223	224	2
218	218	4
96	97	2
245	245	4
86	218	1
2	18	1
8	9	3
2	3	5
155	155	10
36	38	2
98	98	3
69	69	9
181	181	10
101	101	8
15	177	1
189	194	1
157	160	3
194	195	1
111	111	5
196	196	3
99	99	4
158	165	3
214	219	3
77	78	2
36	36	4
10	10	9
64	90	2
209	223	1
153	153	3
165	243	3
3	3	3
36	37	2
236	236	6
151	151	6
17	17	5
24	24	7
69	113	2
84	91	2
160	217	2
51	51	1
231	231	6
176	177	8
48	48	3
85	86	5
107	116	3
65	65	7
218	242	1
219	219	4
114	114	1
183	183	7
196	197	2
156	156	11
232	232	3
111	112	5
229	230	5
72	72	4
52	52	9
216	216	4
39	40	1
18	18	8
30	30	5
219	242	2
11	11	1
202	224	2
104	104	11
109	109	4
1	1	2
188	188	5
25	25	5
6	6	7
216	218	1
55	57	3
163	166	2
61	61	4
154	154	8
161	162	2
185	185	3
242	242	9
170	194	1
42	43	4
165	165	10
118	119	1
117	117	2
113	113	4
244	244	5
76	104	7
52	186	2
241	243	6
187	191	4
116	116	6
92	110	1
182	182	2
64	69	2
65	66	4
228	231	3
160	179	3
15	15	2
162	162	9
175	175	6
208	208	6
215	216	2
214	214	8
45	45	1
234	234	2
159	159	4
107	107	3
79	80	3
161	161	3
187	187	15
203	203	5
212	212	10
28	28	5
172	173	2
82	83	7
68	87	2
55	56	6
164	180	4
5	175	1
170	182	3
157	157	1
166	170	1
173	173	4
3	63	2
176	176	5
221	221	3
167	198	2
94	95	2
103	103	3
175	180	1
59	60	2
1	157	2
31	31	3
183	213	2
212	213	4
193	193	3
204	205	1
164	166	1
67	87	3
46	46	4
115	115	9
162	163	4
241	241	10
12	12	3
189	191	3
68	230	4
235	235	2
63	63	2
243	243	3
199	199	4
100	100	5
187	215	3
77	97	1
34	71	3
53	218	1
79	85	3
2	5	3
79	81	2
183	214	4
190	190	3
239	240	1
41	41	5
169	169	6
96	96	1
84	84	2
116	217	4
174	235	2
19	19	6
106	106	2
48	60	3
173	174	7
83	84	2
65	91	1
229	232	2
44	44	8
57	57	2
65	95	1
46	96	2
202	202	7
115	118	1
32	32	2
187	188	2
105	105	7
47	47	6
5	5	4
233	233	1
166	166	4
204	204	12
150	150	3
48	111	4
183	184	1
20	21	6
190	191	2
191	191	2
200	200	4
37	53	4
187	245	1
34	104	1
211	211	3
192	192	5
235	247	4
167	167	5
205	207	7
223	225	2
164	164	3
97	98	3
107	108	2
169	171	2
96	106	3
144	145	2
37	37	5
213	217	2
85	113	2
64	64	1
121	121	4
86	87	1
160	160	3
211	212	1
85	90	3
35	50	1
213	214	5
239	239	3
100	101	6
215	215	3
206	206	1
47	58	2
21	230	1
177	177	4
18	22	1
37	167	2
5	159	4
231	232	2
90	185	3
97	97	2
238	238	3
54	54	1
68	68	4
19	57	1
216	219	1
46	65	2
34	34	9
152	153	2
198	199	3
87	115	1
62	117	1
182	191	2
168	168	2
11	12	1
95	96	1
75	75	2
209	210	5
79	79	1
80	80	4
145	198	1
82	82	2
22	23	1
161	217	2
185	244	2
227	232	1
158	159	1
182	183	4
226	228	1
23	23	1
149	172	2
169	212	1
64	230	1
145	223	3
193	194	3
225	225	1
61	62	1
112	112	5
3	75	1
95	119	1
33	70	2
62	63	3
37	38	3
221	222	1
10	44	4
167	169	1
180	180	4
74	74	3
202	203	2
174	174	3
179	179	3
16	18	1
111	145	1
55	55	3
87	88	2
51	101	1
160	213	1
4	18	3
151	193	1
228	229	1
67	89	1
108	119	1
6	7	1
152	152	2
102	102	1
233	234	2
94	94	2
33	34	3
116	245	1
117	118	1
175	176	2
76	76	2
6	57	3
229	229	2
159	240	1
89	91	1
149	149	3
40	43	1
68	88	1
54	206	1
222	223	2
66	69	2
170	170	2
103	106	2
47	95	3
5	29	1
82	86	1
53	53	2
63	75	1
197	202	1
183	186	2
210	210	1
238	247	3
160	220	2
236	244	1
171	172	3
21	22	1
201	201	3
236	240	3
146	147	1
42	42	2
155	156	2
198	198	4
47	60	1
152	238	1
78	87	1
177	246	2
6	29	1
228	228	4
40	40	2
206	207	1
237	237	6
58	59	1
217	247	1
26	26	2
74	75	1
82	106	1
217	217	2
119	119	4
114	115	3
66	66	2
194	194	4
223	223	4
166	208	1
155	235	1
201	202	2
70	113	2
57	59	1
207	212	1
167	183	2
181	210	2
5	146	1
214	215	2
247	249	1
222	222	1
234	235	1
59	59	3
67	67	2
85	85	1
171	171	5
166	226	1
7	7	2
248	249	4
52	53	2
173	212	2
246	248	1
11	113	1
14	14	3
108	111	1
148	210	2
246	247	1
209	209	1
106	114	3
78	78	2
47	55	1
182	189	2
105	106	1
81	81	1
27	27	2
166	185	1
60	60	1
238	240	3
83	90	2
42	45	1
20	225	1
244	247	2
111	245	1
226	226	2
158	226	2
165	166	1
152	159	2
15	228	1
91	92	1
158	158	3
86	86	1
73	73	2
156	211	1
169	182	1
184	184	1
53	54	1
83	165	1
35	38	2
166	171	1
171	194	1
220	220	1
189	210	1
34	35	1
110	110	1
225	226	1
186	187	1
147	147	1
7	8	1
38	54	1
84	217	1
240	240	1
246	246	1
156	162	1
164	181	1
109	110	3
93	94	1
205	205	2
18	19	1
186	186	1
49	76	1
167	168	1
163	163	1
231	233	1
62	90	1
199	203	1
88	88	1
43	43	1
118	118	2
195	196	1
35	35	2
106	107	1
92	92	1
90	90	1
49	177	1
178	181	1
156	206	1
222	224	1
21	21	3
87	154	1
48	50	1
210	211	1
56	57	1
108	108	1
20	55	1
8	47	1
91	91	1
179	232	1
