42	43	3
7	9	2
21	21	18
3	3	24
2	60	4
20	20	25
65	65	10
69	70	6
19	19	25
8	9	4
36	36	6
57	57	8
20	43	4
40	40	7
19	20	10
60	61	7
2	4	4
5	6	3
68	73	8
60	60	6
68	71	4
23	23	9
56	56	9
47	47	17
6	70	2
56	57	2
26	26	6
0	0	15
69	69	6
9	10	6
45	45	8
72	74	3
11	11	12
74	74	4
63	63	5
68	68	7
9	9	27
75	75	4
62	62	14
61	62	2
44	45	6
53	60	4
5	5	3
4	12	3
55	55	17
67	67	10
40	52	5
42	42	9
68	70	3
21	39	7
6	6	10
42	49	3
31	32	5
34	34	18
11	12	3
53	54	3
73	74	4
25	61	7
59	59	13
13	29	3
25	27	6
31	70	3
33	33	9
10	10	12
35	35	5
32	32	13
24	24	11
48	48	5
36	68	1
12	12	9
7	7	15
35	40	1
35	39	2
13	28	3
13	13	15
4	4	7
54	55	6
39	39	7
7	12	2
39	43	5
64	64	7
46	46	16
55	68	4
10	11	7
41	41	9
31	31	10
43	44	5
21	24	2
22	39	4
69	71	2
28	28	9
34	43	1
71	71	3
49	49	6
39	42	1
12	19	5
76	76	3
4	64	1
58	58	6
35	36	5
22	22	10
67	68	4
73	76	2
9	11	1
54	57	2
2	2	13
1	2	4
24	25	5
53	53	6
28	32	3
68	72	1
6	7	5
30	30	10
26	28	2
18	18	3
56	59	8
43	43	4
61	61	11
54	54	8
55	56	3
64	65	2
43	48	5
23	36	2
51	51	4
35	37	2
1	23	3
8	18	1
0	1	8
22	35	4
26	27	7
31	51	1
51	59	4
44	44	4
23	26	1
2	3	3
25	25	3
8	11	2
75	76	5
0	2	1
62	64	4
53	67	1
20	21	1
64	66	1
1	1	2
77	77	4
74	76	1
72	72	2
4	5	4
66	66	10
70	71	1
7	75	2
7	71	1
3	4	5
13	14	6
29	30	3
29	29	2
52	52	4
22	23	1
30	31	2
7	8	7
63	69	3
45	47	2
53	66	1
38	38	3
29	70	1
36	37	3
61	63	2
23	24	5
73	73	6
54	75	3
50	51	3
7	18	2
52	59	2
21	42	2
68	69	4
8	8	5
55	75	2
28	30	2
25	26	1
53	59	1
54	77	1
4	26	1
27	27	2
37	43	1
33	36	2
49	51	1
26	61	1
46	47	1
22	37	1
27	39	2
38	51	1
21	61	1
72	75	2
21	22	1
33	35	1
62	63	1
65	70	1
64	69	2
73	75	1
58	59	1
