81	91	2
74	79	4
68	70	9
101	107	3
25	25	8
69	81	2
113	113	17
32	57	4
105	106	3
38	39	3
64	64	13
96	98	3
90	90	5
103	103	7
99	99	9
69	69	7
33	33	7
87	88	4
29	52	4
107	107	8
20	20	8
100	101	4
78	78	5
22	22	1
96	99	3
110	111	2
53	53	7
47	47	4
84	84	9
91	91	5
101	101	5
65	101	1
73	73	7
36	86	9
54	57	4
63	63	7
65	65	3
57	108	1
81	82	5
38	38	5
79	79	6
22	54	1
70	73	1
93	94	4
93	93	6
89	89	9
20	21	5
80	80	4
52	52	7
40	47	2
110	110	7
56	59	1
70	70	10
68	69	5
86	86	9
102	103	5
67	67	8
34	36	4
38	42	2
88	88	5
77	77	8
45	45	10
28	28	8
60	60	3
84	96	1
85	85	3
83	83	2
56	56	10
56	57	6
94	94	8
69	80	2
64	66	3
71	71	3
40	40	7
19	28	1
42	42	3
105	105	2
81	81	5
43	43	9
84	97	1
59	59	9
62	69	6
99	109	1
35	35	7
112	113	3
107	108	2
56	104	2
96	96	3
43	44	6
66	109	3
75	94	2
94	104	1
57	58	2
32	33	3
91	92	2
32	32	3
57	57	7
95	95	2
113	114	8
98	98	2
101	106	1
89	90	2
50	51	1
31	32	1
35	64	3
103	107	2
80	98	2
109	110	2
26	26	9
26	29	3
71	91	1
44	45	5
51	51	5
97	97	4
76	76	5
100	100	10
85	87	1
56	83	1
97	111	3
70	108	1
60	61	2
86	87	1
20	50	1
49	50	3
72	72	5
74	74	4
108	108	3
85	88	1
66	66	3
42	45	1
109	109	5
70	71	4
99	110	2
31	37	1
108	110	1
63	70	2
115	115	1
87	87	2
30	30	4
104	107	1
82	84	1
112	112	5
57	99	2
31	56	2
48	48	4
55	57	1
53	54	5
48	49	1
27	27	3
30	66	4
102	108	1
47	49	2
41	41	3
89	91	2
24	28	2
75	76	3
82	85	1
40	41	2
76	77	4
99	100	2
75	75	5
31	31	4
54	59	1
31	34	5
90	91	1
75	105	3
71	76	3
32	35	2
57	95	1
44	44	1
56	60	1
78	86	1
111	111	1
75	106	2
80	81	4
84	85	2
101	102	1
65	66	4
63	110	1
104	105	2
55	61	1
55	59	2
54	56	1
26	28	3
106	106	2
61	61	2
69	71	2
36	81	2
25	28	2
49	49	2
78	79	2
81	104	1
39	39	1
71	77	2
72	73	1
29	29	1
63	84	1
21	22	2
69	85	2
68	68	3
36	37	1
70	74	1
102	105	1
41	45	1
60	108	1
68	71	2
102	102	1
106	107	1
22	23	1
93	99	1
103	106	1
24	24	1
34	35	1
95	96	1
64	65	2
58	103	1
24	102	1
50	50	2
92	92	1
62	67	1
62	62	1
31	99	1
55	55	1
73	74	1
21	21	1
72	75	1
