38	38	8
125	127	4
159	159	22
150	151	15
35	36	2
9	9	13
34	35	4
7	7	6
22	23	2
46	46	7
37	118	2
81	82	4
112	112	11
111	126	1
10	11	6
34	34	8
104	105	8
3	17	3
35	35	15
167	167	6
15	18	2
119	120	3
6	6	17
52	53	4
4	4	11
89	90	6
77	78	4
76	77	5
133	133	17
149	149	8
71	72	2
24	24	20
109	110	4
14	14	9
84	84	9
2	2	10
156	159	2
16	16	7
136	137	6
94	95	3
41	41	14
16	17	4
37	38	13
150	150	7
65	65	9
135	135	13
8	8	4
88	88	7
26	26	10
143	143	20
116	116	12
160	161	3
87	88	5
143	153	1
133	134	4
36	37	2
76	76	4
163	163	4
129	130	2
106	107	9
93	93	4
82	84	2
156	160	1
160	162	2
90	90	11
95	95	2
165	165	17
116	117	2
18	23	4
52	52	15
105	105	5
140	147	2
128	128	8
49	49	7
5	5	18
124	124	2
10	10	15
157	160	4
43	43	19
166	166	5
20	20	5
167	169	2
64	65	5
144	144	12
18	26	1
39	41	2
3	5	1
143	144	7
2	9	1
109	109	10
36	36	15
118	121	2
58	58	2
110	110	11
115	116	3
162	164	1
55	56	11
51	51	10
25	25	9
79	79	7
79	80	4
48	48	9
85	87	1
153	153	15
101	111	4
13	26	2
103	103	3
140	140	7
151	153	2
157	157	8
55	111	3
74	74	10
114	116	1
143	154	1
73	73	4
165	166	2
27	28	4
5	16	3
44	45	8
11	11	10
160	160	5
129	129	4
117	117	12
39	39	13
70	70	3
12	26	2
42	53	1
75	83	1
74	91	2
74	75	7
113	113	15
82	82	10
144	146	3
108	109	4
36	38	5
80	80	13
38	46	2
147	147	6
27	27	6
42	134	1
37	37	10
154	154	6
15	15	11
95	96	1
17	17	17
67	67	2
113	114	2
42	42	20
137	137	2
33	33	4
17	18	5
7	8	2
111	111	4
155	156	3
47	47	10
111	113	2
44	44	9
148	149	6
54	56	1
87	89	3
152	152	5
100	101	2
6	16	4
72	72	4
127	140	5
66	132	2
44	54	3
107	107	4
86	87	6
136	136	8
137	138	2
101	103	3
99	99	1
6	8	2
40	40	9
116	163	2
73	74	2
120	123	1
128	131	1
45	64	3
131	142	1
156	156	6
8	9	3
84	85	2
144	145	5
3	6	6
148	148	4
126	126	12
3	3	12
141	141	5
155	155	3
23	24	4
134	135	5
91	91	6
116	132	3
153	158	2
118	118	4
45	45	1
75	75	4
4	10	2
11	12	5
108	126	1
12	12	11
70	72	6
138	148	1
20	21	1
158	167	1
146	146	5
142	143	7
15	17	2
58	70	2
54	107	3
140	142	1
158	158	8
14	20	3
45	46	1
47	49	2
168	170	3
148	157	3
43	44	10
104	104	3
57	62	4
134	137	3
35	37	2
57	57	5
53	53	6
7	15	2
115	115	4
120	120	6
76	100	4
149	150	6
46	52	1
63	63	5
18	19	1
143	161	3
114	114	1
114	115	1
110	111	3
53	133	1
107	108	5
164	164	3
89	89	4
17	27	2
55	57	2
64	64	1
154	155	3
1	1	5
90	91	6
132	134	2
5	7	2
57	58	1
38	39	1
43	45	1
161	165	1
106	106	8
123	124	2
56	56	4
142	144	9
73	90	1
107	110	1
81	81	6
142	142	6
48	51	2
57	65	4
36	111	1
18	18	6
108	132	1
90	102	3
62	62	3
125	125	11
55	55	9
151	151	4
164	165	5
74	92	1
9	10	4
1	147	1
5	6	4
53	54	8
162	165	4
123	123	3
152	153	1
68	68	6
76	80	4
40	51	4
16	25	2
105	106	1
154	157	1
56	57	1
110	112	1
93	125	3
19	19	2
17	80	1
85	85	2
2	6	1
45	52	1
98	99	2
62	63	2
170	170	2
38	41	2
23	23	5
139	140	4
161	163	2
153	154	2
1	4	1
57	61	1
122	123	1
4	5	1
74	111	1
2	3	2
121	121	1
169	169	2
161	161	7
24	25	3
44	46	2
132	132	1
147	148	2
130	130	4
120	122	2
124	125	2
12	14	3
134	134	2
103	104	1
75	92	1
16	18	2
92	92	4
167	168	3
16	23	2
148	151	4
0	1	4
37	110	3
87	87	4
14	15	4
140	167	3
42	43	7
36	133	1
6	7	8
1	2	3
49	51	1
39	40	2
122	122	2
45	55	1
22	22	2
126	127	1
94	96	1
50	50	2
4	21	1
131	131	4
102	103	2
91	126	1
47	48	7
0	0	1
119	121	2
120	121	1
156	165	2
41	42	2
36	107	1
122	126	1
21	24	2
71	100	1
155	163	1
97	125	1
97	99	1
28	28	3
52	70	1
92	126	3
108	108	3
54	55	2
83	83	5
26	27	2
0	24	2
100	100	2
14	19	1
54	54	1
18	22	2
56	64	1
8	16	1
45	47	2
72	97	1
96	96	1
138	138	1
21	21	2
1	10	1
57	109	1
91	93	1
125	126	1
159	160	1
94	94	1
105	109	1
21	22	1
50	51	2
72	90	1
0	148	1
151	152	1
43	53	1
100	111	1
10	12	1
117	131	1
36	54	1
78	79	1
20	22	1
86	86	2
119	123	1
101	104	1
36	43	1
98	98	1
107	120	1
3	72	1
168	168	1
63	64	1
