118	118	3
88	117	2
158	158	2
95	96	3
31	48	2
1	2	5
54	54	6
26	29	1
30	42	2
49	49	8
21	21	3
0	0	4
79	124	3
65	66	3
18	18	4
107	112	5
28	42	3
125	125	1
114	114	1
37	53	1
70	70	3
119	119	4
157	157	3
63	70	3
23	23	1
78	78	4
37	37	1
39	112	2
16	34	3
53	53	1
41	52	1
88	88	6
28	36	6
2	17	4
130	134	2
50	50	1
12	13	4
147	147	3
101	101	1
17	17	1
21	22	3
16	52	4
106	106	2
77	82	7
15	15	3
20	20	4
4	22	1
67	67	3
78	131	2
3	15	3
40	41	1
15	39	4
3	4	3
5	152	1
16	16	3
111	134	1
8	51	5
3	47	2
122	122	8
34	57	2
146	154	1
29	32	2
50	52	1
66	74	5
124	124	2
13	13	1
45	45	2
30	45	2
110	110	5
151	152	3
36	36	1
105	105	4
12	12	2
38	38	5
30	30	1
125	156	1
13	14	3
99	119	3
133	133	6
28	28	4
107	107	2
109	110	1
34	34	2
56	63	5
67	69	1
12	65	1
6	31	3
55	56	3
91	116	1
140	140	2
137	140	2
119	124	3
28	34	1
37	49	4
34	51	4
7	8	2
79	82	2
104	118	1
148	148	3
104	106	2
110	134	1
81	81	3
112	112	2
96	96	1
145	146	3
79	126	2
17	20	2
2	30	1
98	98	1
24	24	4
86	89	4
3	3	6
33	33	1
86	86	1
129	153	3
13	21	2
83	84	4
92	99	2
7	7	3
88	126	2
23	24	1
99	99	3
16	21	1
109	109	2
4	25	4
93	99	3
82	82	2
136	137	2
94	94	3
24	25	4
48	48	1
43	45	1
77	78	1
69	97	2
68	111	1
79	79	1
37	38	2
5	10	1
108	108	1
112	113	1
29	29	1
64	111	3
127	128	3
111	113	1
14	65	1
62	62	2
104	144	3
153	153	1
87	87	2
131	131	1
71	95	3
151	154	1
40	46	1
68	83	1
11	65	1
38	39	1
152	153	1
77	79	1
18	75	1
52	52	1
46	47	1
141	156	3
15	53	1
46	46	1
12	30	1
17	26	2
25	25	1
139	139	1
5	34	1
132	133	1
28	30	1
142	147	2
39	48	1
18	22	1
85	86	1
3	53	1
2	12	1
67	132	1
70	132	1
9	10	1
138	139	1
142	142	1
