38	38	2
135	135	3
137	137	2
18	32	2
72	89	1
66	82	6
134	134	4
26	26	2
19	20	5
16	16	2
122	122	6
64	64	3
51	60	2
90	90	6
21	21	2
114	133	1
23	28	6
73	73	3
129	129	5
68	68	3
48	49	5
18	22	1
50	51	3
123	125	3
67	69	2
111	111	3
117	130	1
19	71	1
5	5	2
60	60	4
81	85	1
142	142	4
61	61	1
27	27	2
99	99	3
6	6	1
104	113	1
40	40	7
79	79	1
19	19	2
140	140	2
66	131	1
24	26	2
61	62	2
52	52	1
13	13	3
10	10	2
136	136	8
111	113	1
113	116	2
114	141	1
71	92	1
20	20	3
2	2	5
66	66	4
51	51	5
87	88	1
52	92	4
144	144	2
2	4	2
34	34	6
117	118	4
43	43	4
130	130	2
62	63	1
58	59	3
83	84	2
121	124	1
119	120	1
32	32	6
10	13	2
66	135	1
47	48	2
94	94	3
126	131	2
36	36	1
42	42	3
116	125	2
92	92	3
11	11	1
63	99	4
96	104	4
128	129	3
97	98	1
135	136	3
102	142	3
14	14	3
3	4	2
56	56	1
35	35	1
124	124	1
55	56	2
26	57	2
39	40	1
102	102	6
99	106	3
142	143	2
9	25	1
49	49	1
110	139	1
120	123	1
24	25	3
5	6	1
121	122	3
2	3	3
137	138	3
75	87	2
131	131	5
0	3	1
71	71	1
72	73	2
106	112	1
12	20	2
72	72	1
15	39	1
127	138	1
71	72	2
105	140	2
121	121	1
70	72	1
120	144	4
29	29	2
82	91	1
138	138	2
91	91	4
143	143	1
108	108	1
75	75	4
113	113	1
47	53	1
0	39	2
103	103	1
126	126	1
39	39	1
38	63	2
123	123	2
132	133	1
62	62	2
96	96	1
89	89	1
33	33	2
34	35	2
4	4	1
47	74	1
4	5	3
73	85	1
31	31	2
47	47	3
112	112	2
91	92	1
50	50	1
133	137	1
5	21	1
136	137	1
95	95	1
38	62	4
17	21	1
8	8	1
53	54	1
107	108	1
60	129	1
41	41	3
23	23	3
69	69	3
9	39	1
40	41	1
123	124	1
87	87	2
77	77	3
25	40	1
82	82	1
57	57	1
125	126	1
111	141	1
133	133	3
84	91	1
41	72	1
88	89	1
28	28	1
22	22	1
67	67	2
108	109	1
12	12	1
113	140	1
71	73	1
33	34	1
119	138	1
63	63	2
119	119	1
77	78	1
9	81	1
127	134	1
19	38	1
31	32	1
92	93	1
127	127	2
3	13	1
102	107	1
83	83	1
27	52	1
48	48	1
58	58	1
54	54	1
70	70	1
5	20	1
29	30	1
19	74	1
18	37	1
86	86	2
23	37	1
0	24	1
117	117	2
93	93	1
65	65	1
