15	15	5
77	77	20
73	73	9
15	74	1
93	93	7
27	27	19
108	109	1
127	127	3
83	83	8
30	51	5
125	125	4
96	96	7
74	74	8
131	131	4
19	19	6
63	98	2
71	71	8
66	66	6
20	21	4
21	21	16
34	45	3
8	20	4
72	72	8
6	6	5
92	92	2
23	28	4
8	8	14
18	33	3
51	51	5
67	67	5
111	111	4
107	108	3
8	14	1
30	31	10
86	86	9
13	13	6
11	29	2
39	39	5
19	95	3
34	34	17
8	36	2
43	43	6
68	68	1
91	92	7
29	29	15
36	36	13
130	131	4
61	61	11
82	84	10
48	49	2
33	47	1
110	110	4
90	90	13
44	44	4
59	59	6
35	35	11
80	80	3
94	94	15
21	22	1
29	32	3
120	122	2
34	68	2
103	103	4
63	63	12
108	117	1
5	5	4
15	38	2
94	98	2
3	3	9
121	125	1
47	47	12
98	98	8
107	113	2
25	82	4
76	76	7
69	69	13
70	70	13
15	32	3
67	68	2
50	50	8
25	26	1
90	91	2
93	99	3
115	116	5
64	64	6
67	119	1
97	113	2
95	97	2
37	37	2
33	36	4
78	79	8
45	125	2
134	134	11
79	79	7
40	41	9
64	65	5
126	126	11
89	90	5
23	101	2
81	82	6
78	78	1
26	26	14
103	104	7
131	132	3
56	57	1
1	1	3
4	4	3
33	33	5
28	28	8
32	33	4
120	120	3
117	117	2
40	40	2
18	41	1
62	62	4
28	29	2
8	19	2
46	46	1
42	42	6
100	101	7
60	60	10
6	22	3
59	60	3
9	10	2
132	133	7
24	31	2
30	30	6
100	112	2
130	130	5
27	29	4
12	15	2
93	94	2
4	24	3
118	118	2
110	113	1
9	9	4
21	84	4
66	71	2
17	33	2
46	47	3
11	11	3
46	69	2
113	113	5
57	57	8
95	95	2
8	100	1
117	119	4
24	41	1
38	38	4
92	93	1
48	48	3
9	46	2
11	90	3
29	49	1
81	101	1
20	75	2
25	29	1
55	56	4
44	46	4
104	107	2
44	62	3
43	45	1
46	76	3
59	126	1
123	123	3
0	97	1
22	22	7
50	79	1
50	55	1
105	105	6
129	130	1
23	23	2
17	34	2
45	45	5
31	31	3
24	109	2
99	99	12
127	130	2
19	27	3
1	7	3
1	113	1
9	11	1
25	25	9
91	91	5
34	46	1
45	78	2
112	113	1
10	60	1
32	32	5
114	122	2
17	25	2
34	61	3
33	35	1
6	45	2
26	30	4
79	114	6
15	18	1
89	89	4
94	95	2
119	119	4
105	130	2
49	49	4
61	72	1
125	126	1
33	75	1
29	38	2
27	49	2
91	96	1
97	98	2
66	89	6
33	39	1
84	84	2
82	82	3
79	80	2
9	34	4
4	90	1
4	89	1
116	121	1
101	101	4
7	7	9
69	70	1
4	94	1
96	97	1
131	133	2
10	10	2
2	102	2
55	81	1
46	84	2
99	100	2
104	104	4
26	27	4
79	83	1
98	103	6
88	88	2
6	93	1
126	127	1
6	60	1
4	87	2
116	116	3
58	58	2
23	32	4
62	63	2
29	56	2
9	33	2
27	93	1
20	84	1
107	107	3
65	65	2
33	83	1
8	9	6
14	14	3
120	121	2
118	125	1
2	2	2
68	76	1
16	16	2
58	127	1
13	100	3
4	5	3
90	92	1
78	81	1
20	29	1
58	59	1
48	80	2
102	102	2
24	24	2
60	126	1
0	0	1
133	133	1
113	119	1
56	81	1
4	6	1
100	100	1
18	28	2
47	64	2
11	41	1
15	39	1
12	12	3
15	19	2
14	23	1
48	55	1
102	103	1
112	112	2
56	94	1
59	99	1
67	96	1
89	95	3
47	75	2
91	97	1
50	133	1
57	128	2
11	25	1
30	81	2
128	128	2
27	47	1
46	86	1
72	119	1
55	92	2
73	74	2
30	80	2
51	55	2
27	34	1
41	57	2
56	56	4
97	97	2
46	83	1
114	114	2
12	13	1
62	73	2
27	31	1
2	62	1
121	121	1
14	61	1
104	105	1
34	35	1
77	80	2
106	107	1
55	87	1
131	134	1
60	70	1
124	125	1
97	99	1
75	75	1
57	59	1
57	130	1
87	88	1
27	92	1
24	34	1
66	96	1
11	27	1
83	87	1
