72	72	5
202	202	17
205	205	6
210	211	6
194	195	2
211	217	4
211	213	2
219	219	10
130	145	7
15	15	14
209	210	7
58	58	13
4	4	8
39	39	20
29	29	10
23	23	11
128	128	8
6	6	6
216	217	4
80	83	2
24	148	7
63	63	23
217	217	16
138	138	6
39	44	2
66	67	6
78	78	11
150	150	7
28	28	20
241	242	3
192	192	9
236	237	3
69	69	11
198	198	4
0	0	20
126	127	2
54	54	22
231	231	10
87	87	5
65	66	4
134	135	3
76	76	2
215	216	5
56	56	8
116	116	3
46	46	15
8	8	10
126	126	8
136	136	26
220	226	3
137	156	1
22	23	4
86	86	15
180	184	1
186	186	10
14	14	13
42	61	1
21	59	2
177	181	1
178	196	6
204	204	9
84	84	19
152	152	6
17	19	7
57	57	18
3	3	16
197	198	8
193	194	6
11	45	3
82	180	5
102	103	6
173	173	6
210	210	8
61	61	13
193	193	10
26	26	17
173	174	4
53	59	3
217	219	2
71	71	10
59	66	1
212	212	7
89	89	4
215	215	20
178	178	9
59	59	8
49	49	17
20	20	11
88	88	1
101	101	16
58	84	1
154	155	10
77	79	2
120	120	1
24	25	2
14	21	2
52	53	4
43	43	22
171	171	4
63	80	3
121	121	8
98	98	10
51	53	3
195	206	1
136	137	5
27	27	6
227	228	4
163	163	18
203	204	6
19	19	14
64	64	19
43	45	2
46	47	6
16	230	3
140	142	1
26	28	2
117	119	2
55	55	12
140	141	7
27	28	7
165	166	5
226	229	2
48	53	2
137	137	9
185	185	9
158	159	3
56	57	4
63	183	5
60	82	3
125	127	5
122	124	2
17	17	15
97	97	15
38	39	6
9	81	3
40	40	7
227	227	14
221	221	12
178	197	3
169	169	3
174	174	6
1	8	2
71	72	1
239	239	7
68	68	10
188	188	10
67	67	12
219	220	2
187	187	7
147	147	3
181	181	8
162	186	4
235	238	2
107	108	2
167	169	6
149	150	4
201	210	2
53	53	14
150	151	4
30	30	8
100	100	6
51	51	14
191	191	9
116	117	12
62	63	5
180	187	3
13	14	16
125	126	7
226	226	13
236	236	8
11	11	12
62	62	7
26	173	2
233	239	2
2	8	2
182	182	11
26	232	4
195	196	8
209	209	14
115	115	12
44	44	15
25	25	12
211	212	1
48	48	9
200	200	9
183	183	7
30	54	1
230	231	9
10	11	3
105	106	5
41	56	1
124	125	2
233	233	9
50	51	11
79	80	10
142	143	10
52	52	14
1	1	13
60	60	10
47	47	16
105	105	6
179	179	6
45	45	5
170	170	13
144	146	7
58	59	3
220	220	16
216	216	17
229	230	4
176	176	9
199	229	3
9	9	8
231	242	2
18	18	7
66	66	12
124	124	3
148	152	1
54	78	4
16	16	14
81	81	11
42	42	14
141	141	10
18	207	1
21	21	19
8	81	5
177	177	12
166	166	4
31	31	19
73	73	8
186	187	6
37	37	12
95	95	7
175	175	5
192	193	6
161	161	10
77	95	4
103	103	12
51	64	3
101	102	6
2	2	4
162	190	2
106	125	1
152	192	5
77	80	1
104	104	23
205	206	12
174	201	1
50	50	4
159	160	3
10	10	11
164	164	8
178	179	3
96	97	9
12	21	3
139	140	2
149	151	2
49	50	11
119	194	2
127	127	7
203	203	12
133	133	4
230	230	5
165	165	3
175	200	2
187	189	7
206	206	13
139	139	6
83	83	10
33	33	26
82	85	2
232	233	6
222	226	3
53	54	5
27	71	1
162	184	1
85	85	20
196	196	9
204	217	3
48	52	3
190	190	2
182	183	3
167	167	10
10	43	3
148	149	5
161	183	3
42	43	6
208	220	3
2	134	2
3	9	3
35	80	4
3	4	4
3	5	1
228	228	9
32	32	12
15	16	3
194	194	1
127	159	3
225	226	4
184	185	7
224	224	13
117	117	11
7	7	3
214	216	7
65	65	6
130	131	4
41	41	11
134	134	10
102	102	6
102	104	2
201	209	7
223	223	3
68	149	2
174	177	1
10	26	4
96	96	1
199	200	2
47	55	1
108	108	5
198	201	1
160	161	11
41	88	1
156	156	8
40	186	1
99	99	6
145	145	4
120	121	1
122	122	5
133	135	2
21	22	7
136	141	1
69	84	1
213	213	12
37	72	1
208	208	7
19	57	2
80	80	7
149	156	2
160	160	7
183	187	7
34	34	11
12	12	7
139	167	2
15	122	2
199	199	5
65	68	4
156	157	7
144	147	1
193	195	9
83	84	2
226	227	1
24	24	8
211	211	4
136	138	1
106	106	10
241	241	4
172	172	3
29	31	4
184	184	2
201	201	8
30	38	4
107	115	2
181	182	6
36	37	4
144	145	6
11	177	2
13	21	2
180	180	8
77	77	5
18	19	6
166	182	3
30	71	1
138	144	1
222	222	13
69	175	2
35	36	4
118	126	3
68	69	6
35	35	12
129	129	3
74	74	4
95	97	1
238	238	6
12	15	4
5	22	4
58	60	1
7	13	1
213	214	1
101	113	1
29	63	3
0	53	4
146	147	3
14	123	1
195	195	12
36	36	7
235	235	3
161	219	5
159	159	11
38	38	17
40	41	4
110	110	2
75	80	2
45	191	5
172	173	6
5	11	2
5	5	1
26	27	12
212	213	4
50	53	7
28	136	2
237	237	7
204	207	1
127	177	3
75	75	15
160	203	1
32	33	2
68	74	1
163	164	6
80	81	4
31	70	1
29	138	3
177	196	1
59	60	5
4	5	2
189	189	8
73	74	2
11	12	3
114	114	1
146	146	4
1	221	2
148	148	2
16	19	1
13	13	7
162	189	3
176	177	2
63	64	2
207	207	3
25	26	1
191	196	1
234	234	7
184	186	2
43	46	3
197	197	6
205	208	3
51	52	5
76	77	7
112	113	3
44	183	1
140	140	7
107	107	2
162	162	6
26	96	2
218	218	9
98	99	5
85	86	6
14	36	3
149	178	1
151	215	2
237	238	7
34	36	6
232	232	8
152	153	3
162	163	2
3	71	3
91	91	1
22	22	4
119	119	11
113	113	6
36	38	1
7	8	5
42	74	1
51	63	2
240	241	3
174	175	2
5	12	2
127	134	3
207	208	3
225	225	4
1	2	3
144	144	8
42	44	1
113	135	4
198	199	1
51	56	3
66	68	2
171	172	3
166	220	2
30	32	2
191	231	3
106	115	2
157	175	2
79	79	2
240	240	10
187	213	1
40	42	3
188	207	2
185	229	2
229	229	5
5	6	3
13	23	1
170	182	1
208	211	1
238	239	4
48	74	4
180	182	1
97	98	2
166	181	4
70	70	10
165	191	3
181	191	1
30	49	2
14	34	3
201	202	1
154	154	4
8	217	1
143	143	5
136	144	1
117	118	5
3	40	1
143	150	1
69	70	1
179	180	2
162	217	1
120	131	2
98	100	1
176	196	2
52	54	3
185	186	2
153	226	1
189	191	1
220	232	1
119	123	1
77	78	3
58	85	1
188	214	2
158	158	4
27	29	2
197	200	1
141	148	3
242	242	1
129	130	1
181	185	3
78	79	2
97	100	2
49	103	1
99	100	3
55	59	2
9	10	3
181	199	1
210	212	1
208	209	1
71	73	2
192	236	1
224	225	3
3	6	2
6	8	2
12	13	2
22	34	1
23	59	3
34	67	1
219	233	2
151	151	3
199	213	1
33	37	1
37	231	1
227	230	1
29	39	3
103	106	1
197	224	1
66	84	1
7	45	2
29	38	1
222	225	1
37	39	5
142	148	2
156	162	1
115	116	3
32	54	1
5	7	1
2	4	9
39	40	1
104	105	6
194	196	3
162	205	1
61	72	3
193	198	2
228	229	2
11	23	1
234	237	1
165	167	2
82	82	7
8	134	1
60	61	1
102	202	1
8	9	2
100	102	1
32	36	1
223	224	1
109	109	6
162	218	3
239	241	3
26	97	1
15	32	2
189	194	2
135	136	3
135	135	5
180	197	1
169	170	1
67	169	2
8	86	2
137	138	1
37	54	1
37	38	3
26	238	1
118	118	2
151	213	1
219	225	1
157	157	3
54	66	1
138	139	1
156	159	1
1	3	2
24	54	2
133	134	1
156	165	1
116	167	1
206	207	1
171	174	1
6	7	2
139	142	7
59	75	1
153	154	1
44	45	1
149	149	3
9	16	2
121	175	1
103	105	2
14	15	2
29	30	3
164	183	2
92	92	1
153	153	4
6	13	1
159	163	1
8	66	3
14	35	1
122	123	1
100	145	1
125	125	1
0	1	2
139	141	2
62	82	1
202	203	2
180	181	3
21	33	1
70	71	2
80	82	1
214	214	1
131	131	1
17	18	1
119	121	2
48	49	1
88	105	2
40	56	2
134	137	2
81	84	2
203	218	1
155	156	1
165	192	2
206	208	1
31	33	3
152	191	1
75	76	1
82	83	2
198	224	1
33	34	1
175	176	2
69	168	2
65	169	1
118	119	3
11	19	1
18	20	1
84	106	1
45	183	1
147	148	1
20	21	2
127	133	1
208	221	1
162	164	1
21	23	3
155	155	1
123	123	2
158	170	2
131	133	1
4	7	1
175	180	1
214	215	3
156	158	2
200	201	1
221	222	2
48	55	1
59	68	1
226	230	1
145	146	1
113	114	2
232	234	1
212	220	2
189	190	2
208	212	1
75	96	1
160	226	1
12	14	1
187	188	1
8	21	2
146	148	1
47	48	1
192	194	1
66	168	1
117	176	1
55	56	2
142	142	1
221	226	1
168	169	1
122	129	1
207	209	1
190	191	1
30	51	1
195	223	2
121	122	1
115	118	1
224	227	1
161	190	1
200	202	1
154	157	1
168	181	1
97	109	1
108	113	1
