7	12	1
15	15	3
133	133	10
130	132	1
3	3	11
3	107	3
95	96	2
71	72	9
106	107	5
47	49	1
14	15	6
89	90	2
103	123	1
93	93	6
65	65	13
50	50	5
28	28	11
11	11	10
22	22	7
104	104	6
128	129	5
114	114	11
5	6	3
124	124	8
52	52	4
73	73	9
126	127	8
32	32	7
18	19	4
16	16	4
50	51	2
4	5	13
87	87	8
108	122	3
3	4	3
125	125	4
44	44	8
26	26	8
76	76	17
36	36	12
13	15	3
94	95	5
102	102	5
87	93	3
123	123	9
17	17	5
128	128	7
88	92	3
119	119	5
82	87	2
59	59	6
81	88	1
81	90	2
53	53	9
83	83	2
103	103	7
45	45	2
67	110	2
91	91	5
88	88	11
19	23	2
57	57	7
34	34	8
71	76	4
81	83	1
98	98	8
116	118	2
55	55	3
112	112	5
90	92	5
23	23	3
14	24	2
113	117	2
86	118	2
120	120	11
64	65	1
124	127	3
80	122	2
29	29	15
96	97	7
123	133	6
83	85	1
94	94	1
80	80	7
109	109	7
72	72	6
125	129	3
5	5	9
118	118	3
71	71	8
63	63	9
131	132	1
70	72	6
61	61	6
25	25	6
112	115	2
47	47	4
85	121	3
38	38	3
104	111	1
15	16	3
57	59	1
112	123	3
68	68	14
19	19	4
45	51	2
84	85	1
0	0	2
87	88	2
21	21	4
126	126	6
86	88	5
70	70	1
128	131	3
135	135	5
54	54	13
26	28	4
31	31	10
53	54	2
95	120	2
96	96	13
83	109	1
92	92	6
134	134	11
116	116	7
13	13	12
2	3	4
69	70	4
90	91	3
113	114	2
101	101	2
95	95	2
97	97	5
60	61	12
104	105	2
96	132	4
131	131	5
70	88	1
42	42	1
112	113	9
84	84	6
20	23	2
35	35	4
77	77	5
69	69	6
4	4	1
127	127	3
52	54	2
87	108	2
51	51	1
103	104	1
114	115	2
56	59	1
26	45	1
74	74	5
85	85	4
86	107	6
82	86	1
35	45	4
113	119	3
130	130	5
14	36	1
126	129	2
30	31	2
98	100	1
86	87	3
113	113	4
111	113	1
49	78	3
129	129	8
56	57	9
52	134	3
67	67	7
82	110	1
82	82	2
115	123	2
19	20	1
63	64	4
5	32	2
75	75	4
32	34	1
87	92	3
88	119	7
105	105	5
65	96	3
123	124	4
115	115	6
68	112	4
55	56	3
59	63	5
33	34	10
12	12	6
65	66	2
0	33	2
108	111	3
83	84	2
109	119	5
31	32	1
58	58	2
48	79	5
70	71	2
90	90	3
89	89	4
55	58	4
9	10	1
80	125	4
15	24	3
80	126	1
108	109	1
105	106	2
72	73	2
102	104	1
37	38	5
74	75	1
5	12	1
132	133	2
97	98	3
110	117	2
99	99	6
71	73	3
55	117	1
79	133	2
108	119	3
112	118	2
91	93	1
33	45	1
91	92	1
92	100	1
35	37	3
8	8	3
66	68	4
130	133	3
1	1	3
112	121	3
121	121	3
27	28	1
60	60	2
27	46	2
111	122	1
73	103	4
37	37	2
78	78	1
58	59	2
82	123	1
124	125	5
62	62	4
81	82	1
53	107	4
63	65	2
103	112	1
67	68	3
121	122	3
36	45	2
129	134	2
9	11	1
0	1	2
37	44	2
79	79	2
123	127	1
86	86	3
49	50	1
98	99	1
18	18	3
124	129	3
20	20	2
23	24	1
68	116	1
91	121	1
48	48	2
122	125	2
78	110	1
111	112	1
99	132	1
81	123	1
33	33	1
7	44	1
48	51	1
26	27	1
9	9	1
82	83	1
50	122	3
43	43	3
66	67	1
58	120	1
116	117	1
50	135	1
83	110	1
103	105	1
110	111	2
64	68	1
43	46	2
108	110	1
117	119	1
24	24	1
107	123	1
107	107	1
120	121	1
53	93	1
85	122	1
27	27	1
117	117	1
114	121	1
87	96	1
6	46	1
49	49	1
84	114	1
