242	242	4
161	162	1
247	248	2
10	10	3
162	162	11
21	21	22
217	217	5
192	192	7
242	243	2
212	212	19
48	109	5
153	153	9
89	89	13
26	26	7
62	62	6
40	40	13
54	54	11
204	212	1
47	47	13
179	179	6
174	174	2
109	109	17
160	160	9
19	19	4
187	188	4
234	235	3
102	102	4
3	210	3
105	105	9
66	66	6
116	117	6
22	22	9
204	204	14
145	145	11
62	63	3
186	186	3
177	177	13
107	107	4
230	230	7
74	74	3
154	154	6
232	233	4
233	233	4
73	74	4
70	70	7
239	239	16
47	88	3
167	167	5
216	217	6
100	101	4
48	49	1
202	235	4
25	25	9
246	247	1
214	214	8
240	240	12
75	75	3
152	154	2
45	45	2
221	221	9
237	238	1
97	99	4
218	218	11
215	215	1
11	11	9
164	164	11
65	66	3
28	28	11
8	8	5
5	6	2
165	166	8
169	170	9
227	227	7
23	24	3
39	56	1
180	180	7
211	211	15
213	213	3
14	15	1
76	77	6
30	30	2
204	205	5
200	238	4
183	211	5
157	157	6
201	201	7
53	70	4
52	53	4
228	229	2
206	226	3
107	110	4
245	245	16
91	99	2
207	228	3
57	57	7
76	76	5
41	42	2
169	169	1
1	1	4
24	24	7
222	222	5
107	189	3
178	178	16
26	29	3
39	55	1
214	215	2
49	91	5
5	246	4
151	151	14
191	191	2
46	114	7
198	199	2
93	109	1
231	231	2
63	63	9
210	214	1
54	55	4
205	205	18
163	164	6
93	93	5
197	197	4
52	52	12
59	60	8
168	172	1
188	188	4
77	77	4
110	110	9
176	191	4
117	118	6
183	183	14
183	184	3
120	120	2
39	39	6
236	236	2
38	38	8
229	229	2
98	98	8
87	87	5
161	193	4
228	228	9
57	58	2
156	161	4
53	53	10
20	20	8
4	5	4
200	200	6
36	36	8
235	239	1
166	166	1
33	90	4
55	68	2
48	48	9
51	174	1
35	35	1
101	101	6
43	44	3
103	103	3
198	198	7
55	55	3
63	66	1
46	46	9
108	224	3
161	161	8
245	246	3
85	85	4
119	119	7
31	31	5
95	95	7
152	219	4
108	108	7
16	16	7
210	247	1
200	224	2
174	192	1
156	156	17
112	112	9
65	65	3
241	241	6
171	172	4
61	61	4
94	101	3
27	27	5
150	150	18
72	72	4
87	88	5
44	45	2
155	155	11
149	150	1
13	13	2
235	236	5
68	68	6
161	168	3
115	116	1
193	195	2
65	69	2
100	100	4
157	188	1
235	237	3
53	54	1
247	247	9
152	152	12
199	199	3
20	21	1
5	5	7
184	184	6
114	114	1
158	159	3
9	9	10
205	206	1
44	44	9
67	67	2
49	49	6
238	239	6
173	212	3
182	182	7
21	22	3
115	155	1
66	85	1
206	206	14
33	33	5
15	15	5
115	240	2
231	240	1
225	225	5
81	84	3
181	181	6
30	118	1
24	39	1
54	68	3
224	224	7
168	187	3
26	70	1
78	78	5
88	90	1
204	206	4
156	188	1
183	188	1
172	178	1
94	94	13
73	73	4
79	79	9
62	68	3
200	236	3
185	185	5
72	74	3
17	94	6
14	14	8
24	33	2
36	47	2
42	63	2
47	55	1
71	72	9
67	79	1
162	184	2
173	173	4
58	60	1
180	205	2
38	184	3
171	212	2
111	115	1
82	85	3
71	71	2
66	67	1
90	98	4
190	191	1
42	42	5
29	29	9
72	73	2
62	67	1
193	210	1
203	203	11
219	219	7
170	170	8
92	92	6
60	62	2
65	114	1
194	194	3
24	51	2
226	226	3
213	214	2
209	209	7
163	163	4
115	243	1
117	117	9
115	244	2
94	96	2
43	43	6
27	33	1
73	75	4
157	159	2
41	41	6
189	212	1
164	165	1
159	191	1
151	224	2
56	56	2
29	51	2
82	150	1
186	203	1
154	155	1
23	26	1
161	213	2
50	50	3
78	83	1
55	56	3
235	235	2
158	164	1
60	60	10
58	58	6
53	112	1
115	115	1
78	81	1
208	208	8
36	53	1
194	198	1
36	113	4
157	162	1
98	99	1
162	206	5
153	154	5
118	118	6
169	187	1
204	223	3
149	149	2
243	243	1
112	234	4
186	190	1
168	168	8
88	88	3
7	7	6
86	87	1
201	209	3
6	6	4
106	115	3
176	177	2
11	15	1
97	97	4
26	230	1
207	207	12
175	176	1
240	241	2
97	98	2
196	196	4
37	37	5
106	106	3
145	154	1
38	39	2
4	4	2
99	101	6
186	192	2
15	84	2
219	220	2
31	153	1
66	229	2
181	197	1
229	230	4
52	117	2
96	96	5
63	115	4
107	108	1
183	210	1
113	113	5
173	176	2
36	37	6
111	111	7
87	89	1
199	200	2
85	236	2
12	12	4
146	147	2
205	207	2
63	64	4
47	90	2
6	203	1
239	240	2
202	202	8
59	59	3
118	119	2
159	159	2
109	113	4
199	210	1
201	202	2
213	244	1
16	91	2
49	50	2
115	119	1
52	54	3
162	163	2
23	23	2
238	238	3
207	229	2
114	115	4
16	17	3
36	59	2
153	201	2
90	91	4
174	180	2
9	22	1
57	64	1
169	171	2
81	82	1
181	182	3
191	192	3
147	147	3
19	113	1
101	116	1
226	227	1
51	51	1
35	90	3
193	193	4
48	95	4
175	175	2
216	218	1
42	43	1
2	2	2
195	196	1
81	81	2
34	119	2
94	95	2
213	234	3
56	116	2
51	156	2
212	213	4
174	178	1
0	0	2
7	8	3
180	181	2
220	220	4
165	165	2
68	69	1
185	186	2
156	165	2
79	109	1
45	48	1
96	97	2
166	167	2
40	54	2
161	214	2
192	194	1
209	225	3
79	85	1
189	191	1
78	79	1
175	197	2
43	205	2
40	193	1
234	234	3
32	78	1
186	212	2
79	80	1
199	236	2
246	246	1
231	233	1
0	1	3
198	200	1
178	203	2
90	116	1
230	240	1
167	235	2
171	171	3
224	227	1
50	92	3
55	70	1
229	244	2
64	64	3
104	104	2
49	70	2
218	220	1
91	91	1
106	108	1
9	10	2
70	71	1
99	186	2
200	240	2
167	172	2
172	173	2
46	97	1
77	82	1
239	241	1
8	21	3
3	3	1
33	34	1
237	237	1
189	189	1
207	209	1
200	201	1
104	108	1
179	180	3
211	222	1
64	65	1
107	177	2
221	222	1
30	45	1
27	28	1
121	144	1
214	221	3
100	106	1
94	156	1
167	169	1
60	61	1
48	50	1
223	223	1
32	32	1
31	32	1
39	40	2
45	46	2
25	52	1
150	208	1
50	51	1
96	98	1
209	214	1
78	88	1
190	198	1
163	165	1
103	114	1
168	197	2
216	216	1
175	177	1
180	182	1
195	199	1
232	232	1
104	105	2
47	92	1
69	73	1
211	212	1
81	83	2
230	231	1
81	180	1
197	199	1
5	9	1
2	20	1
37	39	1
144	144	1
198	235	1
19	25	1
67	109	1
34	34	1
197	210	1
54	110	1
101	104	1
