60	60	6
108	111	5
73	74	2
11	11	5
114	121	1
84	97	5
76	76	14
126	126	12
131	132	2
69	69	6
103	103	7
110	110	5
93	93	10
4	5	4
9	17	1
64	64	6
129	131	3
74	75	10
86	87	3
121	121	1
77	77	8
55	57	3
71	71	6
70	70	8
111	111	5
95	95	8
61	61	4
44	44	3
101	101	2
90	90	9
120	120	14
31	35	4
10	10	3
75	75	7
43	43	5
84	86	1
109	110	1
54	88	1
62	64	1
91	107	2
94	94	8
69	70	8
93	94	2
76	80	2
80	81	3
99	130	5
16	20	4
129	130	3
114	128	2
119	120	5
2	2	1
99	121	3
59	62	3
92	93	3
52	52	4
103	104	4
62	63	5
116	116	6
60	61	4
133	134	7
102	102	5
65	65	7
32	33	2
73	73	2
86	86	4
6	6	7
95	118	2
76	128	2
30	30	5
96	97	3
74	74	6
44	45	5
55	55	2
123	124	5
5	5	2
105	115	2
54	54	5
9	9	4
108	109	3
107	108	4
112	117	3
91	91	5
0	0	4
16	16	3
82	82	1
104	104	4
23	24	2
52	87	1
58	58	2
57	81	3
45	45	1
108	124	2
112	112	11
49	84	3
127	127	5
105	105	12
106	110	4
122	122	5
119	121	2
75	76	3
114	114	1
98	98	4
87	87	16
24	60	2
57	58	2
107	107	6
33	33	7
18	18	1
17	17	1
130	130	3
33	36	6
28	28	7
45	80	2
79	79	2
88	88	1
99	101	1
116	118	2
106	106	5
132	132	4
98	107	1
1	2	2
78	78	5
26	26	2
92	92	6
98	101	2
99	99	8
38	38	1
72	72	8
13	13	4
122	130	6
123	123	7
111	112	1
23	23	5
64	65	1
80	80	4
120	121	2
63	63	8
96	96	8
59	60	1
124	125	1
114	115	1
72	73	1
84	84	3
98	99	1
82	97	1
117	117	2
27	27	1
113	113	3
38	42	1
50	50	6
82	83	1
109	109	2
48	48	3
124	124	2
85	85	2
12	12	5
1	1	7
119	119	3
101	102	5
33	34	1
116	117	1
53	54	3
100	100	3
87	116	1
108	110	1
35	35	3
18	25	1
24	24	1
83	83	1
3	4	4
21	22	1
65	70	2
66	67	4
86	92	1
83	98	1
93	98	1
17	18	1
63	71	1
117	126	1
88	90	2
126	127	1
89	89	1
8	24	1
118	118	1
66	66	3
65	68	1
93	99	1
71	72	1
7	7	2
99	108	2
25	26	1
87	88	1
55	56	1
122	123	1
56	56	1
36	36	1
15	15	1
104	105	1
19	21	1
63	64	1
83	84	1
49	49	1
32	32	4
79	80	1
95	97	1
108	108	2
94	105	1
47	47	2
8	8	2
108	112	1
76	91	3
126	128	1
50	88	1
6	11	1
129	129	1
31	32	1
3	3	1
0	3	1
115	115	1
10	11	1
13	14	1
31	31	1
26	27	1
67	67	1
20	20	1
85	100	1
1	13	1
105	107	1
82	84	2
112	118	1
55	58	1
33	37	1
107	111	1
