90	90	20
127	127	25
111	113	2
65	70	4
100	100	10
87	87	8
101	132	4
55	56	11
80	80	10
98	119	3
55	55	2
92	94	7
94	97	2
102	102	22
58	58	8
29	29	21
77	77	24
27	27	21
131	131	11
71	71	23
63	63	13
75	75	25
33	33	9
74	74	28
123	124	12
11	11	6
31	31	15
66	66	9
127	129	5
45	46	3
86	86	15
107	108	5
56	57	7
129	129	25
73	76	1
18	19	4
52	52	11
84	94	5
95	96	6
122	123	5
127	128	7
121	123	9
124	124	18
31	47	1
29	35	1
130	130	18
30	30	12
83	83	24
65	65	14
121	121	21
31	32	3
19	19	5
112	113	3
73	73	11
122	125	4
113	131	6
89	89	25
106	111	9
72	72	27
73	74	8
86	87	10
65	66	11
106	106	12
12	12	15
70	70	18
125	126	23
82	82	8
13	14	3
83	93	7
17	17	20
91	91	22
83	87	1
126	126	14
29	30	4
64	64	27
114	114	10
96	96	16
95	95	6
105	105	48
25	25	6
54	54	15
88	88	9
60	60	5
64	65	5
34	34	4
36	38	1
98	98	15
61	61	6
132	133	6
99	99	19
21	22	9
106	107	3
94	94	27
78	79	2
120	120	17
104	104	27
113	114	15
12	14	2
12	30	1
84	84	8
9	9	8
64	94	3
49	50	8
100	101	10
92	92	4
67	68	2
111	111	12
76	77	11
55	60	2
76	76	35
109	110	4
51	51	4
117	117	15
50	50	30
36	53	1
32	32	14
112	115	10
134	134	24
36	36	17
110	111	3
69	70	6
119	122	1
3	19	2
77	78	10
45	45	12
109	109	9
119	121	6
15	54	2
129	135	3
112	112	26
80	81	4
62	62	19
93	94	3
89	90	7
32	33	9
30	33	1
22	23	5
125	125	12
130	131	8
133	133	15
69	69	16
20	20	1
14	28	1
28	28	14
50	52	2
93	93	24
67	67	10
7	7	7
108	110	3
96	98	1
56	59	2
8	9	6
101	101	18
58	59	11
126	129	5
112	114	9
4	5	8
102	103	3
54	55	6
87	88	4
16	52	2
78	78	11
106	110	7
7	10	3
32	61	5
79	80	6
92	98	2
113	113	33
117	121	2
5	5	4
103	103	19
113	115	3
117	118	5
103	105	2
10	10	3
107	107	4
5	13	3
43	43	3
108	108	18
128	129	7
5	33	3
11	12	4
118	122	4
131	132	11
45	50	3
108	109	4
58	60	4
126	127	16
20	34	4
85	85	6
3	3	4
102	115	2
42	42	4
2	3	1
85	94	3
18	18	3
115	115	16
109	111	7
96	97	4
2	2	7
78	96	2
35	35	7
7	74	6
43	73	2
92	93	3
80	89	4
68	69	2
65	93	4
24	24	18
90	91	5
6	13	6
22	22	3
81	81	12
119	119	13
15	25	4
107	109	2
36	57	3
44	47	4
80	92	1
79	79	25
26	26	10
126	128	9
47	47	7
66	67	10
62	73	3
21	21	2
114	118	2
16	16	8
129	130	1
21	29	2
99	101	3
101	102	9
102	116	4
43	53	1
56	58	6
106	108	2
53	53	9
1	2	4
2	29	2
122	122	6
48	52	4
132	132	9
100	102	5
101	104	1
83	94	4
67	80	5
23	24	2
95	107	2
16	30	1
17	25	1
23	23	9
63	64	3
27	28	4
12	61	2
107	110	1
128	128	2
54	58	2
99	122	2
15	19	2
89	94	1
4	30	2
67	69	2
0	0	11
116	116	5
16	53	1
115	116	4
7	71	1
1	1	2
16	17	1
37	38	2
68	68	6
24	25	6
48	49	5
72	73	6
13	13	6
5	6	4
70	72	4
99	104	6
43	69	1
0	3	2
48	51	4
4	4	9
70	71	6
8	8	6
84	85	11
78	97	1
73	79	1
20	23	1
106	113	2
81	95	4
98	99	10
15	74	2
106	109	4
71	72	5
65	68	5
98	122	4
15	15	4
110	110	9
67	77	4
12	32	7
52	62	3
13	28	3
12	13	2
83	91	2
104	105	9
59	60	10
123	123	5
71	73	1
77	92	2
75	76	4
79	91	4
122	124	2
101	131	3
87	92	7
66	77	2
82	95	2
98	102	4
118	121	6
15	30	5
89	93	1
118	118	3
97	97	6
33	35	1
59	59	12
25	38	5
1	12	2
86	88	2
6	7	3
38	38	5
108	111	1
57	59	3
85	93	1
65	76	3
77	79	2
94	95	5
97	98	2
5	14	1
97	118	1
130	133	3
76	89	2
18	30	6
95	113	4
26	27	1
123	127	1
70	73	1
6	6	2
119	120	3
3	4	3
118	119	3
98	121	1
56	61	2
81	85	2
105	106	3
82	83	2
113	127	3
49	52	3
52	54	3
44	65	3
56	56	3
19	29	2
26	43	1
62	63	1
60	61	1
10	11	8
74	75	6
17	18	1
44	44	2
113	119	2
14	14	2
93	98	1
49	49	1
46	47	2
118	133	1
91	99	1
0	1	1
73	75	5
96	120	3
84	87	1
76	93	2
82	94	1
9	11	1
111	112	1
55	58	2
133	134	1
56	67	1
50	74	2
61	65	2
36	58	1
116	122	2
99	100	3
92	95	2
114	127	1
23	43	2
64	76	2
132	135	4
104	114	1
73	77	2
2	36	1
120	121	3
13	61	1
4	17	1
28	29	1
78	81	1
98	120	2
53	54	3
121	122	1
83	88	1
16	25	2
17	31	2
91	94	2
76	94	2
15	16	1
112	130	1
134	135	1
123	125	1
103	114	1
9	10	1
30	32	2
91	92	1
15	26	1
82	87	2
50	51	2
1	5	1
81	87	1
114	115	1
61	62	1
118	126	4
21	104	2
112	127	1
94	96	1
29	74	2
35	43	1
55	74	1
135	135	2
88	97	2
114	116	1
105	111	1
83	84	1
58	61	3
44	55	1
75	77	1
114	131	1
82	86	1
2	5	1
110	120	3
17	61	1
91	95	1
121	126	1
