32	33	3
44	44	10
39	64	1
54	54	15
90	96	5
33	33	15
62	64	3
67	68	9
34	34	14
48	50	2
50	50	18
42	44	3
83	84	4
32	32	19
29	29	1
87	87	5
51	51	15
35	35	12
37	37	8
31	32	4
92	92	11
88	88	10
46	46	8
76	76	11
91	91	13
52	52	10
93	100	1
56	56	10
62	62	8
38	39	6
106	106	3
92	93	6
47	47	8
31	33	2
68	68	13
80	80	7
71	71	19
75	75	11
93	93	9
78	78	7
60	60	10
57	57	3
37	38	1
90	90	13
98	99	8
71	72	3
59	99	1
21	21	10
55	91	3
49	49	13
38	38	11
58	58	13
62	63	7
64	64	19
59	60	4
40	40	8
24	24	15
85	85	9
94	95	1
29	44	2
36	39	2
53	53	14
100	101	6
63	64	3
20	21	8
98	98	5
48	48	1
69	74	8
100	102	5
39	40	3
61	62	5
89	89	24
52	74	3
23	23	8
79	79	3
100	100	10
45	45	5
69	69	8
50	51	11
89	90	7
65	66	1
95	95	8
27	27	2
82	82	6
73	73	3
22	22	17
99	99	12
70	70	10
79	87	1
77	78	4
101	104	2
86	87	2
81	81	6
90	100	3
60	84	1
104	104	2
31	31	10
75	76	2
63	63	8
72	89	3
46	47	3
94	94	7
78	90	3
67	67	7
72	72	1
64	68	2
74	75	12
62	75	5
36	36	9
55	55	7
56	91	3
52	54	4
74	74	9
103	103	8
41	41	2
51	52	5
25	25	7
49	51	4
84	85	5
46	84	3
26	26	2
82	88	1
87	88	7
61	61	6
104	105	3
75	95	1
40	67	1
80	82	2
42	43	1
39	39	4
99	100	5
78	79	2
96	96	14
96	97	3
90	91	3
25	29	3
31	39	1
58	59	2
54	59	1
30	45	6
100	104	1
43	43	4
54	55	7
98	106	1
71	76	2
97	98	2
86	86	1
62	89	2
67	69	1
65	65	3
80	81	2
44	50	1
22	23	2
74	77	1
29	73	2
68	85	4
68	69	2
70	73	2
26	42	1
30	30	4
69	71	1
101	101	12
74	91	2
50	78	1
30	31	3
72	73	2
55	90	1
105	105	1
55	56	1
55	66	1
27	29	2
101	102	2
107	107	3
102	103	2
45	64	2
35	36	4
72	92	5
102	102	12
40	44	1
43	44	3
45	46	2
53	55	1
66	66	7
48	49	1
69	77	1
56	57	1
28	29	3
23	51	4
43	50	2
40	41	6
76	77	4
54	90	3
82	85	1
53	57	2
50	74	2
70	77	1
65	68	1
82	83	2
23	69	1
84	84	4
41	45	3
37	39	2
65	91	2
78	106	2
53	59	1
32	34	1
49	50	1
20	20	1
45	97	3
70	72	2
37	67	1
77	77	1
40	59	1
59	59	1
53	54	1
40	42	1
33	34	2
26	27	1
75	90	2
97	97	1
84	88	1
72	91	1
66	67	1
31	44	2
49	88	1
24	25	2
28	28	1
58	96	1
25	26	2
102	104	1
44	49	1
25	28	1
69	70	1
41	58	1
