93	93	13
63	64	4
91	91	10
31	44	1
56	56	19
94	101	3
33	34	4
66	66	14
76	77	5
67	67	28
47	50	2
90	90	33
101	101	12
89	89	21
42	42	18
61	61	21
63	82	2
68	70	1
34	34	7
81	82	10
70	70	21
77	77	11
78	78	12
22	22	2
41	41	25
84	84	14
45	45	17
71	71	17
90	101	6
79	93	2
38	39	1
51	51	27
63	75	1
98	99	3
79	80	5
40	40	22
59	59	26
100	100	15
98	98	16
75	75	25
41	42	11
50	50	11
89	99	3
93	94	9
71	74	4
35	35	10
68	79	5
58	58	14
81	81	5
34	45	4
68	69	9
47	52	3
33	33	19
44	44	22
69	70	6
36	36	10
39	39	20
99	99	13
44	45	8
35	36	2
58	59	11
83	86	2
48	48	21
72	72	3
55	56	6
43	43	11
30	32	3
46	47	8
94	94	3
85	86	3
38	38	11
47	48	5
62	62	14
76	76	21
86	86	12
52	52	12
30	30	3
47	47	15
89	101	2
97	97	9
60	61	14
95	95	14
65	69	1
79	81	2
101	102	3
94	95	7
44	50	3
85	85	13
90	91	4
68	68	17
85	89	2
94	98	1
63	63	14
80	80	13
52	53	17
51	52	10
74	74	8
59	60	3
46	46	5
53	61	4
73	73	5
55	55	22
92	93	1
52	55	5
29	29	14
49	49	12
87	94	4
53	53	16
48	51	2
89	91	6
96	96	6
31	31	7
51	53	2
54	55	6
32	32	2
89	92	1
83	83	12
39	40	5
99	100	4
48	49	9
95	96	9
49	50	7
70	71	4
54	54	4
78	79	3
50	51	8
60	60	18
53	54	2
24	24	1
86	87	8
35	37	1
87	87	9
33	36	4
63	77	1
92	92	17
87	88	1
67	68	3
26	27	5
37	38	3
58	100	1
96	97	3
25	25	7
79	79	14
100	101	6
74	75	2
43	44	1
87	89	2
94	102	1
64	64	9
52	59	2
51	69	1
60	62	3
42	69	1
22	23	1
79	88	1
50	59	3
22	49	3
102	102	3
61	66	2
61	68	2
76	78	3
25	27	1
65	73	2
58	83	1
86	89	5
77	78	2
81	92	3
97	98	3
84	86	5
41	43	4
34	47	1
41	44	6
100	102	1
75	76	2
91	93	1
57	58	1
54	83	3
65	66	2
27	27	1
88	88	6
65	65	7
55	58	1
68	80	2
78	82	3
72	78	1
32	48	1
26	26	7
40	42	1
20	22	2
34	35	8
63	65	2
57	57	11
71	72	3
36	40	1
69	69	3
54	60	4
74	76	2
55	57	1
91	92	4
40	41	5
60	92	5
68	73	1
88	89	5
65	68	3
72	73	5
86	102	1
90	92	1
37	40	2
86	99	3
34	39	1
57	68	1
54	58	1
71	73	1
87	90	3
87	97	2
64	91	1
29	31	1
61	62	3
30	31	3
69	72	2
88	96	2
88	91	1
42	44	2
56	57	4
34	44	1
58	61	1
61	77	1
29	30	1
32	35	1
76	85	2
72	76	1
85	98	2
42	43	2
82	82	6
66	68	1
98	100	1
64	85	1
23	24	1
37	37	1
81	98	2
52	70	1
69	71	1
70	81	1
85	99	3
62	63	1
58	65	1
48	50	2
66	67	1
45	50	1
46	53	1
24	26	1
83	84	1
87	93	1
66	73	1
80	89	1
75	77	1
69	73	1
57	63	1
47	49	1
49	59	1
90	93	1
