76	77	12
168	168	20
170	190	2
171	171	15
214	214	31
177	177	33
169	189	7
40	40	19
207	207	26
28	28	25
69	74	1
195	195	11
49	49	28
165	165	21
157	158	5
172	180	1
186	186	28
243	243	9
213	213	19
45	45	18
77	80	5
112	112	29
75	75	6
84	84	18
174	174	31
160	160	25
95	101	6
166	167	6
235	235	7
66	66	16
184	184	19
74	76	5
210	210	13
210	211	13
109	109	28
9	14	2
144	245	1
36	42	5
208	208	23
151	240	1
49	107	2
198	198	22
163	163	30
187	199	2
68	91	1
9	27	1
201	201	35
156	156	34
112	113	6
64	64	17
71	71	13
216	216	8
188	192	8
188	189	11
93	110	1
89	102	7
44	44	12
229	229	13
152	158	2
6	21	3
190	190	16
239	239	32
22	22	8
243	244	9
228	228	13
99	99	20
107	107	13
80	80	21
18	30	2
165	167	1
64	73	4
92	171	4
210	244	1
230	230	12
19	19	23
170	170	18
57	57	10
1	1	12
21	27	3
157	160	3
229	230	3
117	117	11
178	184	2
193	193	16
232	233	8
27	27	22
29	30	8
192	194	1
221	221	15
36	36	13
77	77	15
19	29	2
196	196	29
63	63	16
58	58	15
90	101	4
209	209	32
31	31	13
88	88	13
205	205	14
246	246	23
201	221	4
185	185	20
175	175	26
164	164	25
192	192	10
73	81	6
115	115	24
189	196	3
48	48	10
197	199	6
179	183	4
79	118	3
247	247	21
15	15	30
51	51	18
46	46	15
43	43	25
16	16	12
212	237	1
85	102	1
200	200	19
74	83	2
236	238	1
241	241	33
52	52	19
63	86	1
154	154	36
245	246	18
222	222	10
74	74	7
222	223	8
150	151	6
83	83	12
204	208	2
200	207	1
231	231	5
118	118	15
152	157	7
236	237	16
11	11	15
204	204	17
186	198	4
225	228	3
245	245	11
204	205	12
152	152	20
32	32	24
114	114	28
90	90	7
212	212	28
146	146	4
68	68	22
169	169	23
218	218	15
50	54	4
206	222	3
199	199	19
164	196	1
9	9	12
8	8	12
221	222	7
91	91	22
71	72	6
110	110	27
233	234	7
35	36	4
81	81	6
238	238	16
158	159	9
227	227	20
183	183	31
12	12	12
105	105	12
197	198	14
24	24	8
183	185	3
54	54	25
217	218	5
118	244	4
197	213	4
218	243	1
187	241	1
206	206	12
111	112	4
17	17	21
205	218	3
236	241	1
159	159	24
73	82	3
175	177	2
228	229	8
197	197	19
176	176	16
168	176	4
32	63	2
155	155	12
210	215	7
187	188	5
77	82	2
3	3	13
78	78	16
166	166	23
86	86	14
2	3	6
60	104	3
69	69	11
219	219	17
70	70	17
89	101	3
211	211	18
113	113	26
18	18	16
178	178	17
188	188	10
114	116	4
111	111	10
181	181	20
59	61	7
55	58	2
9	10	2
102	103	4
6	6	7
78	94	2
92	120	6
95	95	25
153	154	8
49	50	4
203	203	24
30	30	5
63	65	2
242	242	12
237	237	13
26	26	12
189	189	22
242	243	6
101	101	9
152	153	10
144	145	3
88	112	3
51	85	3
95	96	3
159	171	3
5	5	27
47	116	2
225	225	7
161	172	2
168	179	1
201	234	2
55	55	5
61	71	9
159	164	2
197	209	2
97	97	5
62	88	6
61	112	1
172	175	5
79	79	17
206	207	6
210	213	6
240	240	19
117	167	3
178	179	1
234	234	23
119	119	16
18	31	3
56	99	2
109	111	3
198	210	3
65	192	1
119	243	10
218	221	2
165	166	12
67	67	20
150	150	26
115	116	7
180	180	13
186	195	1
32	33	3
235	236	9
173	173	10
109	161	2
100	100	10
118	119	8
201	202	5
167	167	22
214	247	6
75	76	12
9	28	3
183	184	3
198	199	1
207	209	4
99	100	10
97	108	1
186	225	3
116	119	3
202	202	14
44	67	2
117	245	5
196	213	2
93	93	10
219	220	3
65	67	5
64	65	3
52	53	7
169	170	9
117	119	2
84	85	10
211	246	1
158	160	5
35	35	11
97	105	4
185	247	4
96	96	9
151	151	14
116	116	24
168	170	6
162	162	19
212	242	5
203	205	1
117	118	8
0	24	2
85	85	9
3	61	6
163	166	4
223	223	10
170	171	8
165	241	5
152	179	5
96	106	3
35	93	7
237	243	2
56	91	3
115	146	3
206	209	1
70	71	1
98	98	17
41	41	25
80	88	1
37	38	2
4	4	8
155	180	2
6	16	2
164	165	2
198	208	5
82	82	14
61	61	26
73	76	1
56	57	2
248	248	7
81	84	6
41	43	4
220	220	11
48	50	3
174	185	2
52	63	2
217	217	19
157	186	3
20	20	18
161	161	22
222	225	5
167	169	1
30	33	6
182	182	12
120	120	13
111	245	2
239	240	4
67	111	3
158	158	11
74	77	1
113	116	5
85	93	2
14	15	6
63	80	1
4	12	2
68	112	3
165	170	1
47	78	3
163	165	7
191	191	27
19	22	4
59	60	7
70	86	1
238	242	1
7	7	24
2	4	1
202	203	3
31	32	3
214	248	1
195	211	5
179	179	17
33	33	20
47	47	16
196	197	3
65	65	19
172	185	1
104	104	11
2	2	12
172	172	24
81	85	1
55	61	4
218	219	8
198	209	1
6	51	1
27	28	7
188	190	2
85	86	6
163	168	1
76	191	3
213	214	7
215	216	2
83	86	2
25	25	10
147	147	5
195	196	7
237	240	5
47	95	1
92	176	3
119	190	2
173	181	6
49	96	3
227	231	2
50	50	20
119	166	3
185	195	5
105	106	4
89	95	2
146	147	4
112	146	2
77	104	1
191	209	2
199	207	3
158	163	9
93	100	2
57	58	11
4	61	1
104	106	8
159	160	3
191	194	2
55	59	3
224	225	7
92	113	3
144	228	2
181	192	3
113	168	3
155	160	1
215	215	18
55	57	4
23	23	22
233	233	15
175	176	4
171	191	1
233	235	1
60	61	4
203	234	2
56	56	15
115	149	4
106	119	2
46	47	2
108	119	5
36	67	4
176	190	2
72	80	2
74	97	2
39	40	6
77	101	2
189	223	5
102	104	3
111	156	4
160	161	1
34	34	17
102	102	10
29	29	6
163	164	9
14	14	17
38	38	11
227	233	4
186	189	6
92	98	2
244	246	6
180	187	5
232	232	11
76	76	8
46	64	3
177	184	4
56	62	5
113	114	11
25	110	1
174	175	2
110	156	1
59	59	14
172	173	10
44	46	3
151	241	1
76	78	7
186	203	1
187	244	6
202	207	2
238	239	8
154	179	1
33	115	1
196	214	3
149	150	7
39	39	11
167	168	6
47	117	3
44	54	2
34	35	3
169	176	4
118	243	1
78	79	4
157	157	10
199	200	3
21	38	2
79	81	5
79	80	5
42	54	5
28	31	2
161	201	2
36	64	1
91	175	1
187	189	2
198	200	2
187	187	18
227	235	2
45	66	3
165	196	4
24	25	3
211	213	6
205	228	1
10	27	3
50	96	3
63	66	2
153	153	20
226	227	9
8	25	1
179	226	3
97	101	2
226	226	10
194	198	2
21	46	3
194	195	5
177	180	3
247	248	2
186	234	2
61	62	2
153	165	1
97	118	7
203	204	4
189	215	1
21	21	12
3	12	1
93	94	1
85	90	2
80	112	4
185	229	5
53	53	14
182	206	1
154	156	1
25	32	3
220	224	3
214	249	3
157	163	4
110	147	4
36	110	2
87	88	5
189	222	1
102	119	1
194	194	21
208	209	9
55	62	2
226	232	3
87	87	13
144	178	2
181	190	5
159	184	3
181	182	3
78	165	3
106	107	8
235	245	4
47	53	1
82	84	3
79	170	2
209	210	4
64	68	2
92	175	2
187	198	1
28	37	2
173	174	8
241	242	4
214	215	5
157	165	1
197	227	6
158	164	1
76	83	2
106	165	1
92	92	8
43	44	4
74	75	4
20	37	8
162	168	4
94	116	4
157	159	5
41	42	9
49	61	1
96	97	5
230	231	1
188	212	1
47	49	1
109	160	4
105	107	3
156	183	2
172	186	5
111	243	1
14	30	2
223	225	2
189	190	6
156	160	1
109	110	4
60	60	7
205	209	3
5	51	3
57	145	1
186	196	4
181	206	1
10	14	3
162	163	4
166	197	3
150	182	3
184	185	1
41	93	2
195	214	1
145	145	9
37	37	9
35	155	1
29	33	4
61	70	1
34	38	1
152	160	3
72	73	3
63	117	1
180	186	3
166	169	1
55	56	9
83	85	1
84	101	1
71	82	2
190	191	5
50	74	1
237	238	3
164	166	1
56	74	3
156	157	4
26	27	3
193	195	3
60	71	1
111	237	4
54	78	3
38	39	7
63	88	2
224	244	4
21	25	2
92	118	3
62	71	1
35	38	2
106	106	4
227	228	1
91	94	2
236	236	13
201	203	1
56	116	3
179	180	9
196	209	1
156	208	2
237	246	1
194	217	2
221	223	2
57	91	1
93	167	1
64	72	1
10	28	1
40	52	1
242	247	2
110	161	5
48	64	3
222	224	3
89	89	4
108	108	11
16	184	5
108	120	2
170	181	4
90	98	2
68	69	2
236	240	4
209	215	1
176	177	5
98	100	2
79	103	1
103	103	11
47	50	5
174	192	4
118	240	1
201	231	3
204	224	2
186	187	3
193	196	2
81	89	3
211	244	2
190	192	2
62	62	13
249	249	3
224	224	4
164	167	1
169	190	2
69	85	7
160	173	4
21	23	1
226	228	5
96	104	1
175	184	1
175	183	2
36	115	2
153	169	2
73	73	6
110	113	3
169	234	2
97	99	3
92	178	2
65	66	7
173	204	1
20	21	2
62	67	1
104	105	6
238	247	1
74	82	2
77	90	1
168	169	6
119	244	5
68	85	3
157	164	1
160	164	3
165	184	2
44	52	5
234	235	4
98	99	5
198	235	1
170	193	3
151	152	1
94	184	1
64	111	2
158	183	1
194	211	1
166	248	1
173	193	1
152	242	3
76	102	2
42	42	11
86	87	2
4	14	1
90	104	2
220	244	1
206	211	2
118	120	1
33	35	2
173	200	3
111	115	2
88	89	2
2	28	2
10	10	9
215	242	1
109	113	1
117	171	1
64	234	5
211	212	3
48	79	1
85	120	3
174	182	1
101	114	3
193	194	4
110	160	2
95	98	2
65	190	1
115	117	3
36	66	2
212	214	5
204	230	3
112	114	1
52	62	6
8	20	3
6	15	3
193	197	1
110	114	3
230	232	2
94	99	2
18	29	1
156	186	1
3	35	4
160	199	1
176	179	3
77	78	1
70	89	1
5	11	2
144	144	1
94	94	10
159	199	4
117	155	1
46	51	1
51	64	1
182	209	1
153	172	2
25	66	3
223	224	1
19	31	3
95	117	1
228	232	2
178	180	7
93	120	2
150	178	1
178	207	2
81	83	2
63	67	2
72	72	9
145	218	1
192	193	2
55	116	2
98	114	1
244	245	4
119	120	1
185	196	1
79	88	1
241	243	2
78	82	3
55	79	6
159	163	2
172	178	2
103	104	2
68	117	2
177	194	1
189	191	2
145	156	1
60	63	1
210	212	2
90	116	1
55	100	1
235	240	3
220	221	1
68	87	2
22	23	2
4	5	2
49	51	3
168	247	1
188	196	4
210	214	2
213	215	1
38	242	5
171	177	2
205	208	1
108	166	1
42	43	2
109	171	1
69	70	3
203	231	3
101	102	5
164	170	1
96	98	1
64	151	1
239	242	2
172	179	3
71	73	4
42	45	2
82	86	1
35	87	2
53	54	4
169	198	4
90	91	2
18	19	2
113	117	2
89	97	3
97	98	1
188	221	2
187	196	2
237	248	1
80	81	3
227	234	3
94	100	2
152	243	1
75	80	3
165	177	2
156	200	2
58	62	1
182	183	1
39	42	1
161	162	2
180	184	1
149	153	1
214	239	1
27	36	2
158	162	3
62	63	2
67	68	2
163	194	1
47	51	1
178	206	1
96	105	1
195	198	3
161	173	1
244	244	10
119	169	1
94	95	2
5	14	3
100	113	2
189	192	2
184	208	1
185	186	2
178	211	4
110	163	1
238	240	1
89	90	3
110	245	1
169	194	1
48	55	1
69	71	2
33	38	3
55	115	1
46	48	1
171	178	4
170	176	2
200	201	1
54	61	1
177	178	1
4	114	2
231	233	2
173	182	1
46	54	2
157	187	2
85	100	1
91	93	2
225	226	1
79	82	3
32	62	2
186	226	3
7	13	1
117	244	2
114	115	2
182	200	1
70	85	1
91	96	2
62	65	1
100	112	1
237	244	3
46	79	1
208	219	2
120	150	1
7	12	2
30	111	1
173	185	2
92	93	3
4	11	1
105	163	1
229	231	3
13	30	1
170	182	2
12	15	2
60	91	1
15	44	1
149	149	3
205	206	2
6	7	2
159	200	1
4	7	1
66	87	1
205	230	1
173	175	5
176	189	2
47	48	3
6	11	1
237	241	2
170	209	1
109	247	1
116	117	2
144	244	1
186	188	1
116	144	1
106	118	2
107	111	1
21	22	1
197	245	1
165	171	1
1	2	1
240	249	1
70	117	1
111	155	1
182	197	2
4	50	3
154	155	1
175	178	1
76	79	1
147	152	1
194	213	1
228	233	1
237	249	1
50	56	1
60	66	1
192	208	1
107	163	1
208	210	2
171	198	1
198	207	1
71	74	1
199	230	1
90	120	2
10	11	1
95	104	1
160	162	1
174	196	2
15	41	2
64	88	1
70	76	1
48	95	1
108	239	1
19	30	1
215	244	1
187	195	1
93	174	2
51	53	1
96	101	1
40	41	1
161	198	1
188	220	2
83	84	1
238	244	1
145	223	2
32	109	2
241	247	1
5	7	1
23	32	1
164	169	2
109	234	1
219	242	1
168	184	4
51	59	1
101	104	2
180	181	2
169	174	1
184	227	1
191	192	3
156	245	1
195	223	1
0	0	2
90	99	2
66	67	1
16	41	2
98	162	1
207	218	2
214	217	1
198	213	1
231	232	2
171	172	2
187	190	3
48	59	1
211	226	1
176	185	1
94	193	2
30	31	1
49	54	1
10	89	1
94	182	1
156	161	3
241	248	1
179	245	1
170	183	1
41	53	2
177	181	1
15	16	1
57	71	1
219	244	1
51	52	1
50	71	1
164	195	1
161	171	1
185	205	1
190	239	1
46	53	1
84	102	1
157	193	1
82	83	1
241	249	1
29	31	1
3	203	1
79	116	1
166	193	1
78	84	1
91	176	1
109	164	1
47	58	2
112	118	1
218	220	2
65	156	1
7	8	1
226	231	1
112	171	2
182	184	1
75	103	1
117	164	1
212	213	1
167	197	1
84	104	1
145	245	1
89	103	1
73	74	1
153	157	1
109	154	1
6	113	1
209	214	1
85	91	1
179	211	1
196	198	1
56	98	1
145	150	1
92	119	1
49	58	1
82	118	1
207	210	1
