74	77	4
128	128	9
15	15	2
20	20	3
86	108	1
126	126	15
82	85	2
28	28	3
89	89	8
77	103	1
80	80	3
116	138	8
118	118	3
18	18	4
117	118	1
103	103	6
72	72	4
87	87	1
4	4	4
92	92	4
19	20	3
77	107	1
100	119	3
101	101	3
7	7	5
112	113	1
21	21	5
16	140	2
93	93	4
26	26	6
93	110	3
85	101	1
134	134	3
33	33	5
95	95	3
95	98	1
137	137	10
119	119	7
104	104	8
80	119	2
83	83	5
111	111	13
130	130	5
92	106	1
96	96	2
105	106	1
1	1	3
84	119	1
130	131	2
133	133	8
139	139	7
140	140	11
74	74	5
25	25	5
90	90	3
107	108	1
103	113	1
102	102	8
116	116	2
2	2	5
122	122	6
91	91	6
10	11	6
24	24	2
104	105	2
73	73	2
113	113	11
0	20	1
76	76	7
97	98	2
84	104	1
0	6	2
117	117	4
129	129	7
77	77	10
35	35	4
101	114	1
124	131	2
84	84	3
119	136	1
21	110	3
11	25	1
114	114	3
9	14	1
127	128	2
71	71	4
78	78	3
86	86	1
100	100	1
110	110	4
106	106	4
8	8	4
37	37	3
108	135	3
27	29	4
125	125	7
1	31	3
7	9	1
31	31	2
134	135	2
115	125	2
10	12	1
127	127	7
104	118	2
89	91	1
125	126	1
0	0	1
73	85	3
94	94	4
32	32	6
79	102	6
12	106	1
14	14	3
0	27	3
16	21	4
107	107	3
5	5	7
112	112	7
10	10	4
105	105	8
76	89	1
36	36	2
75	75	1
37	102	4
76	78	2
34	34	5
81	82	1
85	140	1
120	120	4
99	99	2
74	87	4
22	23	1
13	13	5
3	4	1
132	132	4
113	119	2
14	16	2
98	98	4
89	90	3
12	12	2
131	131	11
124	127	1
37	80	4
71	78	2
77	105	1
98	131	2
85	85	3
19	19	1
9	31	2
15	105	2
105	109	1
76	77	2
11	12	1
81	110	2
97	97	2
136	136	2
110	111	3
119	121	2
80	91	3
138	138	2
76	93	2
29	29	2
116	137	3
79	79	1
116	122	2
23	24	2
104	107	3
1	38	2
91	126	1
121	121	2
72	87	1
15	26	2
131	132	1
123	123	1
110	113	3
85	86	2
102	103	1
114	116	2
4	7	2
85	90	2
137	138	1
25	26	1
82	82	1
82	83	1
75	119	2
124	124	1
136	138	1
8	30	1
85	87	1
73	114	1
93	119	1
17	18	2
121	122	3
90	101	1
141	141	1
30	78	2
116	118	1
124	125	2
9	12	1
74	75	1
124	129	2
135	136	1
81	118	2
7	26	2
7	31	1
90	96	2
78	79	2
81	111	2
116	126	2
84	128	1
33	109	1
113	131	1
109	109	3
103	107	1
9	9	2
103	104	2
101	102	1
133	135	1
103	110	1
90	91	1
120	121	1
81	81	2
126	128	1
135	135	2
29	36	1
14	118	1
111	112	1
95	113	1
126	133	1
86	140	1
125	132	1
71	92	1
110	112	1
80	118	1
112	114	1
108	108	1
