78	78	11
58	58	19
92	92	16
63	63	9
84	84	18
49	49	11
76	76	5
69	70	3
68	68	8
75	80	2
61	61	16
77	77	16
55	61	3
94	97	8
97	97	14
89	89	6
84	94	7
22	22	1
56	57	4
71	71	9
52	52	9
98	100	5
74	74	5
81	89	5
54	54	6
22	27	5
60	60	6
99	100	2
75	78	2
97	98	4
32	32	5
93	95	7
67	70	2
70	70	17
35	35	17
64	64	10
100	101	4
88	88	10
94	94	12
93	94	4
85	85	10
44	44	15
57	57	16
41	41	9
25	26	3
94	98	1
26	26	4
51	79	1
99	99	9
95	96	3
42	42	13
56	56	4
67	67	8
69	69	5
37	38	4
59	59	4
72	72	5
76	77	7
73	73	7
39	39	9
29	33	7
31	31	4
65	66	8
53	55	1
57	63	2
80	80	10
81	95	6
82	82	6
37	85	3
83	83	8
53	54	3
96	98	1
49	101	8
46	94	3
101	101	13
95	95	13
40	40	17
50	50	5
86	90	3
50	57	2
90	90	9
73	75	1
30	30	4
52	79	2
44	49	3
43	43	8
100	100	8
38	92	4
87	88	7
86	86	5
93	100	3
67	68	1
49	50	15
51	51	5
47	47	8
24	25	1
33	33	17
45	45	13
48	48	14
88	95	1
95	100	2
20	22	3
60	73	4
55	56	1
93	93	8
88	96	1
66	70	3
47	56	2
38	55	3
42	44	4
47	48	3
72	73	3
36	36	8
65	65	10
29	80	1
48	52	3
98	98	10
39	40	7
37	55	4
52	53	4
83	84	4
36	37	2
57	58	2
96	96	9
97	102	1
73	80	2
79	94	2
46	46	6
50	77	1
23	24	3
84	92	5
22	26	2
91	91	9
61	62	2
87	87	2
81	82	3
81	86	1
62	76	4
74	75	2
59	60	1
78	91	1
81	83	1
27	27	1
79	79	1
65	78	1
66	66	4
63	64	2
42	59	1
48	49	2
79	80	3
24	27	1
25	25	4
90	92	2
80	81	1
64	75	5
29	29	5
76	90	2
81	81	3
49	92	1
29	88	2
92	93	3
35	37	5
90	91	1
46	96	1
60	61	2
82	86	1
92	94	3
75	75	4
31	40	1
78	89	1
54	68	1
95	98	5
46	48	3
34	87	1
34	34	2
29	71	1
26	54	4
46	47	2
54	55	1
77	78	1
22	56	1
85	86	1
46	60	4
86	89	2
29	52	1
97	101	1
66	67	3
33	37	1
53	53	2
56	78	2
53	94	1
32	76	3
75	76	1
82	90	1
42	43	3
94	96	1
96	97	1
38	38	2
95	99	2
20	81	2
42	60	1
52	58	1
23	81	1
94	100	1
82	89	2
24	26	1
68	74	1
32	33	2
56	77	1
55	55	2
102	102	1
87	89	2
62	62	1
20	20	1
73	88	1
79	81	2
49	61	1
50	76	1
84	97	1
98	101	1
28	86	1
46	49	1
68	73	1
48	58	1
68	69	1
34	56	1
