6	7	9
34	35	8
47	48	4
12	19	5
8	12	2
12	13	1
128	135	8
18	24	1
4	5	4
5	6	12
140	141	5
48	48	17
135	135	17
90	91	10
24	24	34
128	130	7
89	89	15
124	124	18
162	163	2
72	74	3
107	107	20
136	136	22
138	138	6
138	141	7
76	80	3
12	18	3
125	127	1
38	48	2
24	26	1
72	73	3
42	42	33
129	129	27
90	130	3
16	17	10
26	27	8
3	3	27
63	63	4
18	21	8
71	72	6
48	49	15
150	151	5
69	69	3
23	23	30
94	94	20
5	5	27
40	40	23
104	104	14
126	126	12
44	44	14
18	19	25
167	168	9
86	86	20
101	103	6
2	2	28
0	1	8
150	150	12
85	85	10
34	34	20
64	66	4
40	41	5
87	88	10
49	49	19
7	7	23
162	162	8
6	8	9
130	130	26
133	133	22
24	25	8
120	121	3
8	8	38
143	145	2
12	23	3
7	28	2
21	21	21
18	18	15
78	79	6
95	95	14
121	123	4
38	38	26
26	33	7
17	18	8
106	108	3
151	151	11
124	126	2
105	105	17
167	167	9
113	113	12
166	166	12
144	144	8
20	22	10
25	25	27
123	123	20
111	112	8
35	35	26
11	11	23
10	26	6
26	39	1
97	99	11
84	98	5
36	36	40
98	99	10
20	20	18
56	56	16
22	22	27
42	43	15
26	26	14
169	170	6
117	117	14
87	87	6
67	98	5
39	46	1
53	53	17
45	45	20
104	114	4
6	6	20
16	16	32
134	134	18
37	43	1
46	48	2
80	80	16
85	86	6
146	148	4
137	137	9
52	52	27
131	131	9
79	80	3
104	112	2
121	122	6
135	136	4
71	71	7
158	169	5
168	169	3
23	24	19
39	42	4
125	125	15
119	121	10
21	22	9
7	9	4
47	51	4
117	118	6
98	122	3
112	112	25
27	27	21
70	70	10
79	79	11
65	65	10
142	142	19
115	115	13
116	116	24
160	160	9
110	110	16
132	132	11
148	149	6
41	52	6
102	102	2
58	58	12
158	158	7
3	4	3
37	37	32
159	159	17
76	76	4
119	119	10
96	99	4
11	28	1
111	116	2
18	63	3
13	13	19
81	82	7
127	127	12
96	96	10
143	144	10
96	97	8
9	9	11
157	157	12
124	125	3
131	135	5
45	58	2
153	153	11
143	143	14
152	153	9
78	119	2
139	141	12
154	155	4
44	45	13
100	120	2
83	83	18
118	118	17
106	106	18
11	12	4
74	74	16
46	46	24
0	0	22
21	24	1
19	19	14
126	127	10
163	164	12
128	128	10
146	146	4
13	19	2
130	131	9
152	152	16
108	109	1
114	115	15
129	130	7
140	140	9
63	69	3
115	117	10
42	51	5
112	119	4
119	123	2
118	165	3
28	28	10
4	7	2
138	140	4
117	150	2
133	135	4
145	145	18
20	25	3
82	82	19
10	11	10
57	57	15
139	140	5
168	170	5
121	121	12
94	96	2
99	100	3
33	34	9
39	39	27
147	148	15
153	156	3
16	19	4
64	69	1
75	75	6
43	44	6
154	154	13
17	27	3
163	165	5
87	95	2
155	155	22
72	72	7
51	51	16
165	166	6
154	161	2
112	122	3
17	21	7
156	161	9
109	109	11
47	56	3
13	14	16
73	74	10
16	18	3
99	99	15
50	50	24
39	48	3
7	8	3
12	12	19
164	164	8
10	13	2
114	119	3
97	97	10
92	94	1
153	165	6
100	100	5
5	8	7
148	148	7
9	28	3
20	24	6
135	140	3
10	10	22
58	72	1
41	41	14
4	136	2
62	62	7
27	28	13
14	15	18
55	55	15
101	101	11
92	93	10
45	57	1
134	135	13
97	98	4
93	93	8
74	76	5
54	62	1
94	95	5
33	33	4
108	108	37
8	9	8
68	83	3
113	114	6
114	114	11
42	47	1
16	47	8
86	87	15
127	129	6
90	131	2
111	111	13
169	169	10
141	141	8
155	156	2
68	71	2
124	150	4
157	158	15
165	165	7
67	68	8
106	107	4
55	56	2
123	125	1
104	118	2
163	163	11
67	67	11
90	90	4
7	10	4
153	166	5
57	58	2
144	145	12
73	78	2
56	57	4
17	63	5
63	64	2
139	139	14
39	51	3
80	81	1
41	51	1
133	134	4
93	126	1
65	67	4
18	49	3
12	20	2
23	39	7
66	66	8
71	77	3
39	40	9
54	99	2
14	14	24
98	98	9
64	96	4
105	113	2
84	85	8
81	81	9
4	4	21
0	6	1
53	56	6
87	96	3
86	96	4
159	160	2
50	51	6
110	112	5
49	57	3
64	64	13
115	118	4
116	117	4
161	161	6
82	83	3
118	121	1
133	139	2
162	165	6
3	137	1
47	47	16
40	47	1
101	104	3
38	39	4
43	43	22
112	115	2
52	53	2
3	136	1
37	52	8
120	120	8
152	168	3
102	119	1
2	138	4
54	54	10
20	23	1
150	153	2
53	55	3
13	15	3
44	47	2
69	99	3
105	106	10
101	125	5
43	47	1
88	88	2
39	41	6
73	73	6
64	65	7
147	147	4
9	11	1
129	131	2
17	17	14
18	23	3
37	38	8
123	124	2
151	152	4
86	142	1
54	55	3
0	2	2
20	21	12
149	149	12
115	116	5
35	36	8
109	113	7
86	89	3
51	52	1
170	170	17
104	105	1
142	143	5
5	21	1
50	53	5
15	16	3
77	78	8
99	121	1
88	89	3
121	124	3
127	130	1
98	121	1
0	147	2
22	23	4
62	69	2
103	125	1
80	82	3
77	79	1
109	110	8
40	46	2
48	57	1
57	69	4
19	20	1
145	146	1
1	1	17
110	113	2
116	119	3
76	81	1
76	79	4
119	122	2
8	11	3
165	170	2
114	118	4
85	99	5
145	148	1
81	83	1
84	84	11
6	14	1
46	57	2
137	139	1
91	91	11
76	78	3
106	112	1
126	129	8
11	25	1
68	68	2
109	112	3
47	65	3
93	95	1
104	106	1
103	103	9
4	6	2
103	104	3
66	68	4
70	71	9
1	2	3
136	141	2
57	61	1
62	67	2
115	121	2
139	142	3
41	47	6
166	167	3
113	115	5
1	7	2
160	162	1
92	127	1
11	13	1
95	96	8
107	108	6
11	19	1
75	81	1
23	27	3
156	156	15
165	168	2
21	23	3
107	109	4
54	56	3
76	77	2
138	139	3
37	39	1
40	49	2
13	25	1
27	138	2
10	12	2
65	71	2
15	17	1
85	98	2
12	14	2
98	123	1
45	46	2
158	159	2
118	164	1
49	52	3
139	144	1
154	158	1
168	168	8
3	7	4
89	90	3
16	20	1
53	54	1
15	49	1
63	70	2
136	149	1
44	46	3
15	15	10
112	127	1
69	70	4
151	153	1
85	97	4
39	49	6
3	25	1
133	137	2
91	93	5
91	95	2
150	163	2
51	53	2
40	45	1
65	66	2
108	113	2
137	141	2
35	41	1
111	151	1
40	48	4
137	138	7
91	94	1
124	147	1
12	25	3
54	63	1
56	109	2
100	101	1
114	125	1
152	170	3
126	128	2
149	150	1
91	96	1
4	24	2
14	25	2
9	13	1
15	24	1
9	10	2
108	115	1
7	26	2
92	92	2
115	119	1
108	114	1
114	117	3
68	98	2
54	125	5
122	122	2
83	84	2
101	114	2
51	66	2
80	83	2
132	137	1
11	14	1
91	126	3
117	151	1
134	143	2
1	3	6
116	118	2
74	77	1
40	51	1
22	45	3
37	42	1
26	34	1
151	168	2
93	94	3
73	79	1
15	47	2
114	116	3
79	83	2
91	92	1
11	22	1
78	78	3
93	102	1
87	89	2
132	133	3
62	98	1
74	78	1
11	64	2
20	42	2
36	142	1
50	52	2
128	129	2
17	19	4
114	120	2
113	119	2
103	105	2
128	133	3
87	97	1
106	110	1
126	130	1
122	123	1
117	152	1
41	49	2
2	26	1
76	82	2
21	40	1
125	130	1
112	113	3
99	133	1
37	41	1
63	67	1
66	67	3
153	155	1
136	140	1
52	149	1
3	27	1
141	142	1
39	50	2
101	116	1
15	55	3
124	130	1
24	27	1
5	25	2
125	150	1
0	140	3
145	149	1
108	110	1
58	67	1
17	62	1
36	37	2
132	138	1
77	77	1
134	136	1
49	51	1
142	145	1
139	143	2
55	91	1
49	50	1
118	150	1
58	98	1
13	17	1
16	34	1
141	143	1
156	165	1
114	154	1
6	13	1
132	136	1
84	97	1
120	123	1
58	69	1
36	52	1
14	48	1
125	126	1
99	123	1
