51	53	1
58	68	2
57	64	2
103	108	4
70	71	9
20	20	9
87	89	7
91	91	6
47	111	2
38	38	4
28	28	4
84	84	2
37	38	6
39	39	6
103	112	3
96	96	3
90	90	11
113	113	5
71	71	4
73	73	8
55	55	3
49	49	6
113	114	3
67	67	1
63	63	21
44	102	2
40	42	2
38	54	1
54	54	6
60	65	1
107	108	4
80	81	4
41	42	6
83	83	10
98	99	5
78	81	6
40	40	6
101	101	4
109	110	4
88	91	3
38	39	5
25	25	9
67	77	1
43	46	5
54	69	3
28	36	4
29	29	1
83	84	11
47	48	6
54	55	2
62	62	4
33	34	6
102	103	10
53	53	3
105	107	6
74	75	1
77	102	2
83	99	3
100	100	3
102	102	5
30	30	6
104	106	2
96	105	4
72	72	7
72	76	3
75	76	2
64	64	7
88	88	5
92	94	4
94	105	4
90	93	2
54	60	1
52	97	1
34	34	1
63	64	4
79	79	6
95	99	3
101	102	3
22	22	1
39	62	3
26	27	1
78	79	1
45	113	3
49	50	3
58	70	2
92	92	6
110	110	2
36	36	3
38	53	4
34	35	3
57	63	5
31	33	8
61	62	6
85	85	4
50	50	3
86	103	1
73	75	4
69	69	4
105	108	5
112	113	2
108	109	2
95	98	7
95	95	5
98	98	9
19	19	3
71	107	1
89	89	4
32	32	5
89	91	5
104	104	6
64	65	2
95	96	5
103	103	5
45	45	7
22	23	6
28	44	8
93	113	1
64	66	1
52	52	6
86	94	2
24	66	4
47	47	3
44	44	4
58	58	3
58	77	2
46	46	3
54	100	3
30	31	3
80	101	1
94	94	3
67	76	3
86	89	4
106	107	3
50	92	1
70	75	2
22	36	3
76	77	1
22	24	1
77	77	1
62	63	4
78	78	3
51	54	5
63	66	1
26	26	2
81	83	3
97	97	1
86	86	3
20	21	4
83	93	3
94	106	4
23	25	1
101	113	2
51	51	4
28	29	3
91	93	1
30	46	2
31	32	3
48	48	1
93	99	1
20	60	2
76	76	1
59	68	4
55	80	1
21	22	2
43	43	4
56	84	4
49	112	2
106	109	1
99	103	2
47	78	1
99	99	1
35	35	2
57	57	3
24	24	2
66	66	3
91	92	1
87	88	1
73	80	3
41	44	1
58	61	2
96	100	2
66	67	2
106	106	3
110	112	2
71	72	4
48	49	1
93	93	1
24	64	1
42	42	2
74	74	3
88	103	2
81	81	1
20	36	1
61	68	1
58	69	2
92	111	4
82	97	1
50	54	2
109	111	2
86	87	2
19	22	3
46	48	1
20	61	1
75	75	1
71	82	1
81	102	2
24	37	1
82	102	1
36	63	1
111	111	2
68	68	4
105	110	1
112	115	1
106	110	1
80	80	2
82	84	1
50	93	1
105	111	1
25	26	1
110	113	1
41	41	1
36	38	1
108	108	1
83	92	1
49	114	1
