25	25	6
105	105	8
94	95	5
113	113	3
121	121	2
29	29	4
10	10	11
36	36	4
133	136	1
151	152	4
30	33	1
21	32	6
122	122	3
96	96	1
31	31	6
67	67	3
95	99	2
5	5	2
156	156	5
109	109	5
43	43	7
27	34	3
119	120	1
79	79	18
8	8	10
95	134	4
138	138	7
149	149	6
73	73	8
103	104	2
70	70	7
87	87	2
15	15	3
156	157	2
118	121	4
137	137	9
9	68	7
18	20	2
147	149	3
135	136	6
25	111	3
1	4	6
26	26	5
30	30	3
133	133	5
118	118	1
69	69	2
23	30	1
99	99	11
40	41	7
128	128	3
22	36	7
90	90	3
71	71	1
19	19	6
37	38	4
150	150	1
125	125	2
141	141	2
65	75	1
20	64	2
53	54	3
98	98	8
131	132	11
142	142	2
153	154	1
45	45	7
67	69	1
24	24	3
132	133	4
33	33	5
74	75	1
3	3	11
13	13	4
82	82	1
131	131	7
68	68	2
139	139	14
92	93	3
81	82	1
119	119	3
27	28	1
54	55	4
0	35	1
140	140	3
52	54	2
81	81	2
23	23	1
88	95	4
118	148	2
148	149	9
54	54	2
34	34	6
66	70	1
135	135	4
5	73	1
80	80	5
68	71	2
35	50	3
13	14	2
129	129	8
93	93	1
141	148	1
135	153	1
28	28	6
25	90	2
111	111	3
92	92	5
100	100	2
79	148	1
107	107	3
88	88	2
48	49	1
44	44	2
158	158	3
151	151	7
93	94	3
50	50	5
95	95	6
38	38	6
104	104	3
103	134	2
45	46	2
16	16	5
22	27	2
37	37	7
94	135	3
97	97	4
11	11	2
124	143	1
85	85	1
22	22	1
91	92	2
84	84	1
91	91	3
135	139	2
98	140	1
34	38	2
97	108	2
0	0	6
123	123	4
7	71	3
14	14	1
155	155	2
89	89	2
45	156	1
154	154	5
50	54	1
79	145	2
127	127	2
66	66	4
110	110	1
120	122	1
72	72	2
18	53	2
29	64	1
147	147	2
27	27	3
124	124	1
101	101	1
76	76	3
125	126	1
124	127	1
113	127	2
121	134	2
127	128	1
109	110	2
39	39	1
9	10	2
118	146	3
103	103	4
117	117	6
152	152	4
21	48	1
110	111	2
96	112	1
81	87	2
73	74	4
2	3	1
40	40	4
122	123	2
50	51	1
144	144	2
116	140	2
62	62	1
64	65	3
20	20	2
132	132	2
99	134	1
114	116	2
114	130	2
94	94	1
32	32	3
64	64	1
143	143	1
89	90	2
157	157	3
135	151	2
65	65	1
82	83	1
92	94	3
75	75	3
29	47	1
136	136	1
87	88	1
0	1	2
145	147	1
131	134	3
21	30	1
132	134	1
46	46	1
12	12	1
23	44	1
24	25	1
29	66	1
57	57	1
