19	19	10
8	9	4
22	25	6
68	68	4
9	10	6
61	71	2
41	41	7
5	5	12
37	37	15
12	12	8
3	3	10
22	22	7
11	12	1
30	30	10
61	61	5
36	36	8
7	7	8
6	75	4
44	45	2
26	27	1
8	8	8
9	9	22
7	8	10
6	6	19
21	21	12
21	22	3
53	53	4
53	73	3
19	76	1
58	58	3
71	71	6
2	2	9
39	40	4
33	33	6
63	63	8
0	0	8
12	46	3
69	69	8
58	59	2
45	45	9
36	37	10
32	48	4
49	49	6
35	35	3
29	29	9
42	42	7
56	56	10
50	50	2
50	51	2
18	37	2
1	1	10
28	28	7
64	64	4
48	49	6
42	50	1
61	62	4
31	35	1
77	77	5
37	39	2
52	52	10
33	37	4
18	18	8
13	27	2
37	38	5
0	12	2
13	13	11
34	35	3
47	47	6
4	5	1
53	54	3
48	48	4
26	26	12
42	43	1
23	23	4
66	66	7
12	33	2
30	32	1
52	53	2
5	62	3
51	51	4
34	34	9
13	14	2
48	51	3
75	75	6
13	34	1
39	39	1
54	54	4
8	19	3
23	58	3
64	66	1
76	76	6
23	36	2
57	57	5
18	39	4
30	31	4
7	9	1
7	34	1
61	65	4
38	39	5
34	62	3
29	37	1
74	74	7
21	24	1
3	13	2
31	32	3
67	71	2
24	24	6
32	32	5
20	20	16
4	4	4
18	19	2
54	55	1
33	41	1
6	39	2
71	76	4
65	65	5
10	11	1
2	13	1
23	24	7
29	54	1
59	59	4
0	13	2
20	44	3
73	73	7
47	73	1
38	38	5
28	31	1
33	49	4
68	69	1
59	60	1
49	51	1
5	6	6
46	46	5
72	73	1
29	30	5
31	34	2
72	72	1
35	63	1
11	11	5
12	21	3
62	70	2
31	31	3
10	10	9
41	50	3
54	68	2
15	15	1
59	62	1
68	71	1
48	50	1
20	21	2
65	71	3
40	73	4
27	27	4
44	72	4
21	23	1
58	65	1
43	43	2
44	44	1
35	36	4
31	33	1
23	32	1
25	25	2
55	55	1
22	23	4
1	2	3
24	25	3
5	58	1
40	40	3
25	58	1
62	63	2
5	59	1
2	3	1
26	28	1
26	77	1
21	54	1
59	66	3
60	60	4
27	28	2
70	70	1
4	35	2
40	44	1
0	76	1
28	29	1
67	67	2
76	77	1
40	43	1
54	69	2
9	73	1
53	65	1
47	48	1
5	14	2
24	59	1
25	26	1
49	70	1
74	77	1
57	58	1
41	43	1
22	28	1
69	70	1
33	34	1
14	14	1
2	4	1
49	69	1
66	67	1
