66	66	5
2	2	8
72	72	2
181	181	11
175	175	4
241	241	5
47	55	3
205	205	3
229	229	1
191	201	1
33	52	2
104	105	6
8	9	2
99	196	3
50	50	4
20	20	6
160	160	2
21	22	14
5	7	1
75	75	17
240	240	14
107	183	2
61	62	3
125	125	11
22	75	1
68	69	4
207	207	6
105	105	5
76	76	1
135	137	3
74	74	11
158	179	5
63	63	10
184	184	3
205	206	4
185	186	8
99	116	5
34	34	4
119	119	4
96	97	4
44	46	1
145	145	14
173	183	1
224	224	5
106	106	8
19	20	5
227	227	2
208	210	1
102	120	2
32	33	7
29	29	6
82	82	14
13	13	8
57	59	7
166	189	3
204	204	6
206	206	4
10	10	9
70	70	6
18	18	2
60	60	6
38	38	11
21	23	4
22	22	7
46	47	4
24	25	4
22	30	2
28	28	6
103	103	10
119	131	5
117	117	1
106	158	2
62	75	2
47	47	6
47	56	1
76	78	2
45	45	8
33	37	2
84	84	3
65	160	4
33	33	8
41	49	3
212	212	7
146	153	1
16	16	4
40	79	1
16	17	4
97	97	12
122	123	4
150	150	8
108	141	2
30	30	1
6	6	14
176	176	7
81	81	1
141	147	2
4	78	3
10	70	4
141	177	6
83	83	6
216	216	9
214	216	1
207	217	2
135	135	8
134	134	7
122	127	2
233	233	1
138	162	2
14	14	8
21	53	3
217	217	4
59	92	4
226	226	3
100	100	8
202	203	2
98	98	2
109	154	3
219	219	2
18	41	4
71	71	10
11	12	2
77	77	1
31	34	4
0	0	4
130	133	2
238	238	2
56	57	5
198	201	4
48	48	10
125	177	3
202	202	6
188	188	6
2	3	2
141	142	2
3	8	1
76	77	7
149	150	5
151	151	3
15	51	4
105	106	1
170	198	6
64	64	8
166	167	1
186	190	2
183	214	2
188	190	4
8	8	5
69	102	2
171	171	4
17	17	8
228	228	2
99	100	1
26	26	5
8	79	2
29	32	1
115	115	1
208	208	4
118	118	4
131	131	2
62	62	8
18	52	2
85	85	6
121	124	4
35	35	3
101	226	2
108	108	3
209	209	5
102	103	1
37	37	7
185	185	3
169	169	3
159	159	3
168	168	9
152	152	7
35	36	4
62	68	2
116	117	3
223	223	5
42	45	3
173	173	3
195	195	6
51	53	5
170	171	2
222	222	2
237	237	2
50	51	5
174	174	2
200	201	1
55	55	11
13	16	1
39	202	2
155	158	1
7	7	2
5	5	4
222	223	3
138	175	1
95	95	2
67	67	5
194	197	2
136	136	3
45	46	2
219	220	3
128	128	4
22	23	4
125	126	3
34	35	2
9	54	3
160	161	3
146	152	3
96	96	2
183	217	4
147	147	4
106	163	6
30	31	1
172	216	2
10	71	3
12	12	12
32	53	2
79	79	6
21	21	6
123	180	3
44	45	5
5	6	1
193	193	7
40	41	1
4	7	5
66	173	2
79	81	4
236	237	1
152	153	6
53	67	1
221	221	8
71	72	2
240	241	3
70	71	2
15	15	4
211	212	3
145	203	2
158	159	1
167	168	4
9	9	5
53	53	5
130	131	4
185	187	3
158	158	3
25	26	1
116	129	2
81	82	3
109	109	3
179	179	4
163	163	1
142	143	1
108	140	1
52	52	3
43	43	7
99	99	4
107	108	3
29	206	6
129	129	3
235	238	6
32	32	10
137	143	1
49	53	1
162	162	1
30	44	4
43	45	4
191	216	2
197	197	3
168	169	2
161	173	1
221	222	3
48	49	3
214	214	1
196	197	1
67	74	1
72	73	3
48	54	1
88	88	3
40	40	4
80	83	1
67	121	1
42	42	6
155	155	3
165	186	1
59	59	4
98	194	1
49	49	3
130	130	1
1	2	1
142	142	2
198	199	1
36	36	2
4	4	6
177	177	7
213	216	1
23	23	5
165	179	1
112	112	2
75	76	2
118	129	2
213	213	2
211	211	3
43	203	3
136	139	1
44	62	1
210	210	3
141	141	1
140	141	2
24	24	3
192	192	3
121	127	1
222	224	4
227	228	2
3	3	2
68	68	1
178	180	1
218	218	4
102	102	2
77	78	4
32	35	3
184	187	1
69	71	1
116	116	2
7	78	1
97	101	1
151	155	2
183	183	6
0	23	2
46	46	3
212	213	1
190	190	4
106	187	1
51	52	1
226	227	4
58	58	8
23	24	3
65	70	2
65	65	1
187	216	1
58	60	1
214	215	2
147	148	2
236	238	2
201	201	3
26	27	1
122	122	3
23	27	1
10	24	2
29	30	3
154	155	2
242	242	8
196	196	3
123	124	2
27	27	7
109	110	1
215	215	2
189	194	2
54	54	4
39	39	2
68	70	1
69	69	2
165	165	2
225	225	10
31	31	8
73	73	2
117	118	4
123	123	1
235	235	2
23	30	3
37	38	3
126	126	1
188	193	1
54	55	3
154	154	2
78	78	1
221	224	1
1	6	1
144	145	1
99	118	2
235	236	1
91	104	1
232	232	5
73	105	1
59	60	4
86	86	1
12	51	2
239	239	7
33	36	3
63	184	1
198	198	2
1	3	1
231	232	1
67	68	1
231	231	1
182	182	2
82	83	2
113	113	3
57	57	3
127	127	5
0	1	3
41	44	1
138	139	1
182	196	1
8	38	1
155	156	2
107	179	2
66	67	5
230	230	2
39	40	1
51	51	4
83	84	3
136	175	1
4	5	2
138	142	2
140	140	2
166	169	1
133	133	3
122	179	4
169	170	2
148	150	1
148	148	5
119	130	1
29	37	2
133	134	3
27	28	2
26	54	2
129	133	1
41	48	1
82	103	1
150	151	1
104	104	3
144	144	2
180	198	2
15	19	1
87	91	1
68	71	1
5	77	1
103	231	1
65	140	1
184	185	2
115	126	1
49	50	1
44	44	3
164	164	1
14	16	2
138	141	1
69	126	2
143	143	1
199	199	2
109	174	1
99	106	2
64	65	2
101	101	2
208	209	1
175	177	1
124	124	1
187	187	3
140	174	3
153	153	2
170	170	1
62	65	1
162	184	2
28	232	1
101	136	1
166	185	1
19	52	1
172	240	1
65	66	1
47	64	1
227	232	1
143	144	1
5	12	2
139	141	1
230	232	1
19	19	1
99	128	1
117	133	2
114	114	1
212	231	1
121	125	1
146	146	1
188	194	1
143	145	1
181	191	1
224	225	1
114	116	1
161	172	1
99	115	2
197	198	1
103	104	2
178	178	1
189	235	1
225	226	1
103	105	1
111	112	1
106	107	1
38	54	2
186	186	1
13	14	1
194	194	1
160	182	1
181	216	1
20	22	1
180	180	1
50	224	1
213	224	1
183	186	1
191	193	1
139	163	1
11	11	2
202	242	1
147	153	1
33	35	1
