183	185	2
139	139	5
84	142	2
110	111	4
8	54	2
82	82	2
2	2	8
100	100	1
23	23	3
171	171	5
41	41	5
121	122	5
155	156	2
97	97	6
81	81	5
145	169	3
63	78	5
8	29	6
126	128	1
151	151	4
16	48	2
102	102	6
13	14	5
114	118	1
143	143	3
123	123	5
32	32	7
68	68	3
111	111	1
10	12	2
13	13	8
53	54	10
8	17	1
124	124	5
126	126	2
29	30	9
36	36	3
177	177	1
9	9	5
137	138	3
67	67	4
19	19	10
17	18	1
109	109	1
178	180	3
6	7	2
80	80	4
33	33	3
29	29	4
96	96	9
28	28	1
103	103	1
104	104	3
61	61	3
98	98	3
31	31	4
62	62	7
12	12	8
111	120	1
137	139	3
45	61	5
12	13	3
44	45	1
90	90	3
130	131	6
77	77	3
53	53	3
95	96	1
182	182	3
56	56	5
97	112	2
43	44	2
131	132	2
11	11	2
62	78	1
87	87	2
130	136	4
40	55	3
154	154	4
140	140	4
129	185	2
172	173	2
27	27	3
91	92	3
185	185	3
6	108	2
175	176	1
123	124	3
134	134	5
101	101	4
78	79	4
115	118	2
92	92	2
132	133	2
120	121	3
127	145	1
128	128	4
94	94	5
161	177	1
149	149	2
118	118	6
45	48	2
63	148	2
20	20	4
159	159	2
48	48	3
121	121	3
34	34	8
176	176	1
159	160	2
33	34	1
72	72	9
107	116	1
113	113	4
44	46	1
118	119	2
148	148	3
14	38	2
62	86	1
89	89	3
38	38	1
3	3	3
94	148	1
16	41	1
130	137	6
64	65	3
120	120	3
84	84	4
111	116	2
188	189	2
31	32	5
112	112	2
9	10	3
170	179	3
26	26	4
21	22	3
137	156	1
180	181	2
129	130	2
85	85	8
39	39	6
27	35	1
105	106	2
22	23	3
69	69	4
138	148	3
63	67	1
64	78	1
165	165	1
48	62	3
15	38	1
22	22	2
134	139	5
108	109	3
153	153	4
19	23	1
106	107	2
90	91	4
82	115	3
83	84	1
60	60	2
48	54	3
161	180	2
87	92	1
27	28	1
189	189	1
5	5	6
122	122	5
46	46	1
6	6	4
73	73	8
29	60	1
81	104	1
24	24	3
6	116	1
18	18	2
105	120	1
174	174	2
102	106	2
164	165	3
110	144	3
84	94	3
107	108	2
4	5	1
103	143	1
63	86	2
74	181	3
63	68	4
170	173	2
141	144	1
165	188	1
115	115	3
93	93	1
35	36	1
141	141	3
110	151	2
55	62	1
23	24	5
42	42	1
9	52	1
111	112	2
10	10	1
40	40	4
1	98	2
65	80	4
141	143	3
42	43	1
55	55	5
172	172	1
182	188	1
15	23	2
129	129	2
97	98	4
39	40	1
57	57	3
8	53	1
160	160	1
5	58	1
146	146	4
147	147	3
108	119	1
36	37	2
30	30	2
7	118	1
70	71	1
7	117	2
47	47	3
114	114	2
91	91	1
63	64	2
163	163	2
18	19	1
125	125	3
184	184	1
110	110	2
6	100	1
162	163	1
134	135	1
181	183	2
54	54	1
141	185	1
143	186	1
4	4	1
115	119	4
149	150	3
142	144	3
138	138	1
93	94	1
38	40	1
135	135	5
129	132	2
133	135	1
135	184	1
25	25	5
14	14	3
61	62	2
64	64	2
152	153	1
21	21	1
81	114	3
150	150	1
164	164	1
100	117	1
93	155	1
128	153	1
112	113	1
1	1	3
75	110	1
60	85	1
131	131	1
58	99	1
37	37	1
170	170	1
13	32	1
64	77	2
38	39	1
37	45	1
73	74	1
150	161	1
124	140	1
1	56	1
37	43	1
84	85	1
132	132	1
78	80	1
105	105	3
83	95	2
76	76	1
71	71	3
173	173	2
1	8	1
17	17	1
123	141	1
58	58	2
28	29	1
0	54	1
130	130	1
32	33	1
70	86	1
86	86	1
156	170	1
145	187	1
116	116	1
89	152	1
60	94	1
81	82	2
60	64	1
144	144	1
0	60	1
14	15	1
101	102	1
149	171	1
110	127	1
