3	4	9
68	114	2
119	130	3
25	26	5
97	98	5
56	112	1
96	96	4
108	108	2
105	112	5
20	69	1
53	71	2
69	69	4
99	99	2
41	41	5
55	55	6
1	12	4
127	128	4
127	127	5
27	27	2
51	51	7
70	71	4
43	43	6
113	113	4
22	22	8
74	74	2
27	28	1
132	132	3
88	89	3
107	126	2
85	85	4
81	81	1
128	128	3
46	46	7
2	18	1
107	116	1
12	13	3
50	50	11
71	71	4
107	107	7
1	1	5
50	51	1
118	126	1
38	38	7
79	81	3
16	17	3
97	97	2
31	56	3
44	45	8
120	120	3
9	88	1
24	25	5
125	125	4
80	81	2
20	52	3
6	6	5
131	131	1
72	74	2
103	116	1
98	99	4
58	123	1
48	51	1
100	128	1
130	130	3
120	124	1
80	80	5
14	14	3
91	91	1
125	130	1
20	20	6
106	106	5
25	123	2
76	96	1
76	76	7
41	42	1
53	53	2
104	104	4
16	72	1
10	11	4
122	122	3
97	128	3
39	40	1
60	62	5
33	33	3
101	102	1
114	115	1
69	72	3
124	124	1
90	90	2
73	130	1
19	19	5
121	121	2
62	63	5
54	55	4
68	115	3
54	54	5
118	118	2
118	119	4
112	122	2
56	56	2
13	14	1
31	31	2
51	53	2
126	126	1
49	49	4
45	47	1
5	5	1
17	17	6
25	25	6
56	98	1
59	59	7
78	78	6
67	67	3
110	110	3
63	64	1
45	46	1
90	94	1
94	94	3
42	42	2
3	3	1
109	109	4
52	52	2
67	81	1
46	47	2
124	125	5
117	117	3
109	118	1
114	114	1
18	19	4
47	70	1
13	13	1
108	125	2
44	51	1
58	58	4
16	16	1
105	124	2
78	80	1
68	95	1
7	41	3
52	53	1
95	95	2
111	111	1
82	82	2
4	27	4
9	9	1
106	108	3
103	103	2
68	72	1
114	118	1
65	66	1
92	92	2
86	87	1
64	64	1
77	77	4
15	15	6
116	116	2
111	119	1
107	109	3
12	12	5
112	112	3
72	72	2
28	28	1
119	119	1
64	120	1
125	127	1
66	112	1
21	21	3
75	75	1
9	15	1
48	48	4
70	70	2
100	100	3
61	62	1
88	88	4
116	117	1
59	61	1
57	105	2
76	97	1
105	105	2
47	47	3
7	7	3
132	133	2
33	34	1
123	123	3
10	10	1
129	129	1
11	38	1
83	84	1
105	106	1
26	26	2
79	79	2
115	116	3
87	87	1
47	56	3
18	54	1
0	0	1
52	64	1
104	112	1
30	30	2
84	84	3
71	72	1
39	39	1
62	121	1
131	132	1
51	110	1
98	103	1
53	67	1
110	111	3
89	89	1
32	32	1
9	12	1
8	8	1
38	74	1
80	82	1
65	112	1
63	63	1
14	15	1
