17	17	3
2	8	3
25	57	1
11	13	2
48	48	4
183	183	6
13	48	4
22	193	4
99	99	3
39	48	6
70	70	9
89	89	8
14	14	4
182	182	4
69	69	6
26	26	1
108	108	3
21	21	8
122	131	4
177	177	6
158	162	3
45	45	6
85	85	9
242	242	1
186	186	2
53	53	4
62	71	4
227	228	7
122	122	2
188	188	2
197	197	4
104	104	4
142	142	11
2	2	2
201	208	2
29	29	6
154	154	2
40	56	3
189	190	1
217	217	1
115	115	7
163	164	3
10	50	1
172	190	3
6	6	5
101	101	6
134	134	8
102	102	6
75	78	6
74	86	1
207	207	5
180	180	1
35	35	3
172	218	1
103	103	3
214	214	2
53	54	4
130	130	5
107	107	3
191	197	7
48	52	1
77	77	3
194	194	4
56	56	2
179	193	2
31	31	9
84	84	4
73	73	12
8	16	2
158	158	1
20	55	2
13	14	2
240	242	2
144	165	2
228	228	3
150	150	3
118	140	3
105	105	8
215	216	3
1	3	1
88	88	2
144	144	2
158	160	1
187	187	3
211	211	3
39	43	3
141	142	3
234	238	2
190	198	3
234	235	1
192	211	1
195	195	2
95	96	1
109	109	1
240	240	6
124	124	1
237	237	5
52	52	3
1	1	9
233	233	3
222	222	4
42	45	2
179	185	3
119	119	3
227	227	3
229	229	2
21	22	3
155	157	4
15	16	2
76	77	3
219	220	4
210	216	1
20	32	3
49	49	3
235	236	5
160	160	3
149	150	3
41	41	5
74	74	7
132	132	1
84	97	2
1	2	2
100	100	6
234	234	7
126	129	1
217	218	9
54	54	6
178	178	2
11	11	7
5	57	2
85	86	6
63	63	5
30	68	2
202	202	7
193	193	1
72	72	1
20	20	2
50	50	8
79	84	2
60	60	7
117	117	3
174	186	2
137	137	2
190	190	10
40	58	4
3	179	2
133	136	5
22	22	9
153	153	2
218	218	1
47	47	2
20	69	10
113	113	4
80	80	3
214	216	3
75	75	2
213	221	2
40	40	3
227	229	1
185	186	2
8	8	4
19	19	1
43	43	5
212	212	1
46	46	6
232	232	1
70	71	3
96	96	4
143	143	2
30	30	8
107	148	2
34	34	3
163	165	4
16	17	4
6	17	2
44	44	1
167	167	1
166	186	1
27	39	4
35	49	3
23	23	4
223	230	1
142	143	1
193	195	2
126	167	5
68	68	10
7	9	3
239	239	1
46	47	1
208	208	3
103	104	3
28	28	3
126	126	1
199	200	8
24	24	7
114	116	1
226	227	1
0	0	5
203	203	3
141	181	1
36	36	3
202	232	2
148	148	2
224	226	1
175	175	1
199	199	1
2	23	1
223	231	2
28	46	4
41	59	2
176	176	3
213	214	2
67	67	3
77	89	3
184	184	4
218	219	1
16	16	9
145	145	4
78	78	4
151	151	2
67	236	1
33	36	1
128	128	2
105	115	1
231	231	3
151	152	2
136	136	1
127	127	1
129	130	7
163	163	6
5	6	4
40	57	3
21	31	2
220	221	4
160	174	3
68	69	1
215	233	1
167	168	3
170	170	2
18	21	2
106	108	2
172	173	2
184	217	1
206	233	1
9	9	2
12	12	4
228	229	1
121	129	1
225	225	3
182	189	2
106	148	3
50	57	1
26	120	2
146	146	3
223	223	1
40	41	1
13	13	1
110	110	1
11	12	4
204	205	2
5	15	2
179	182	2
201	201	3
58	60	2
145	147	2
9	55	2
108	179	2
192	193	2
147	152	3
66	66	3
144	177	2
238	238	3
180	181	4
72	79	1
214	215	2
225	229	1
204	204	3
38	48	1
172	172	2
144	189	3
183	189	2
154	155	1
101	165	3
39	39	3
170	172	1
207	208	1
50	53	2
134	135	1
33	33	2
7	7	1
19	52	2
14	15	1
9	11	2
59	83	2
178	187	2
171	171	3
81	81	5
124	167	1
236	242	3
71	84	3
193	196	1
125	125	2
121	121	1
59	60	1
42	42	1
11	70	1
108	117	2
15	15	6
169	169	1
60	68	1
67	68	1
220	231	1
25	58	2
208	220	3
241	241	2
148	153	1
99	235	1
200	212	2
3	6	2
211	213	2
189	238	1
192	192	3
205	205	2
188	189	2
185	185	2
138	138	1
219	219	1
38	38	1
10	10	1
0	22	1
57	58	2
12	13	2
0	2	3
51	53	1
150	151	1
6	7	1
14	16	1
181	221	1
21	59	1
226	226	1
120	120	3
71	131	1
181	206	1
83	83	1
18	19	1
21	68	1
200	227	1
58	58	1
27	27	1
102	109	1
198	219	1
180	206	3
25	25	1
4	52	2
86	86	1
137	138	1
62	62	1
115	118	1
27	28	1
106	107	3
56	57	1
211	212	1
7	8	1
192	217	1
103	115	1
158	159	1
8	54	1
146	212	1
23	29	1
229	241	1
168	189	1
200	200	1
198	217	1
188	221	1
43	62	1
104	126	1
144	164	1
60	66	1
51	51	1
11	17	1
165	165	1
