220	221	1
57	61	8
184	184	16
189	189	9
79	79	6
235	235	14
183	227	3
150	154	1
40	40	5
166	166	7
54	54	10
168	168	15
11	12	3
97	97	5
58	60	1
57	57	12
198	199	5
30	30	13
80	80	12
91	97	3
175	175	8
87	87	2
107	107	8
57	58	10
232	232	11
166	181	8
114	114	16
182	182	16
28	29	1
188	188	15
100	101	10
70	90	3
81	81	7
194	194	10
95	95	11
180	180	21
217	217	20
162	162	9
118	119	4
20	20	11
66	66	12
149	149	5
81	113	1
42	42	13
18	18	16
205	205	13
151	151	16
35	35	14
170	170	19
169	170	8
21	21	4
194	224	2
172	173	8
73	73	15
67	67	9
18	19	5
109	109	9
227	227	10
103	230	2
99	99	11
33	94	2
171	171	10
3	33	5
24	25	5
161	162	2
198	198	14
112	112	5
117	117	14
204	205	5
43	43	12
60	60	15
207	207	13
118	118	20
71	71	8
91	91	10
96	102	3
157	158	8
53	53	19
193	193	4
199	199	16
49	49	9
115	115	12
114	115	7
151	178	2
114	120	1
72	74	2
54	55	3
48	49	10
191	191	4
71	72	4
111	229	1
170	175	1
183	183	13
189	192	3
4	237	2
15	15	8
214	214	6
158	158	9
101	101	15
27	27	15
45	222	6
67	69	1
160	160	11
2	2	5
28	28	19
195	213	1
210	210	8
221	221	2
10	10	7
178	178	14
155	155	11
240	247	2
55	55	16
9	9	16
243	248	1
93	94	1
68	68	15
40	55	2
155	161	3
238	239	7
172	172	18
41	44	4
176	218	4
24	24	11
31	31	7
46	77	3
202	202	11
49	63	1
156	220	1
30	113	1
181	182	3
213	242	2
226	227	1
170	171	3
52	52	9
248	248	6
32	32	9
116	116	16
153	158	7
108	108	17
113	118	6
44	44	7
23	35	1
41	41	11
159	159	30
199	200	4
48	48	9
4	4	9
245	246	11
157	157	13
13	13	4
119	120	2
152	157	6
185	185	28
183	213	1
76	76	6
181	181	10
239	241	2
179	180	3
223	223	14
94	94	11
187	188	5
36	61	2
116	118	5
11	11	7
211	211	13
150	167	1
115	116	9
209	209	10
29	29	3
51	52	6
176	177	4
68	69	2
58	58	6
32	33	3
167	167	12
5	112	2
50	51	6
105	105	13
233	233	4
92	109	5
76	96	1
38	38	14
153	153	10
113	113	12
215	215	14
102	102	9
84	85	6
74	74	18
78	114	4
116	117	2
104	105	8
244	244	16
232	237	1
10	11	2
234	234	10
236	237	4
7	7	22
164	237	4
186	220	1
45	45	9
14	14	14
47	59	2
168	169	5
45	223	4
61	61	10
180	183	4
34	230	4
218	219	6
185	245	1
164	243	2
197	198	2
70	103	2
150	151	4
224	233	3
89	89	11
177	177	13
193	195	10
231	242	2
168	196	4
82	120	1
215	217	1
82	83	7
34	34	7
110	116	3
119	119	13
52	53	4
33	103	1
145	203	3
84	237	1
150	197	2
156	180	3
225	225	2
228	229	3
17	17	14
242	242	12
214	215	6
37	37	13
147	160	3
83	84	10
163	164	4
40	46	2
72	72	9
23	46	6
51	61	4
82	82	2
145	145	12
198	207	1
229	229	13
71	75	5
222	230	2
218	218	9
49	64	3
60	64	3
173	180	2
203	203	10
99	108	3
188	211	7
150	150	14
190	190	5
192	195	4
46	47	1
104	107	3
91	98	1
241	241	5
175	178	1
63	63	11
5	237	1
201	201	16
86	87	3
222	240	1
193	194	5
46	46	12
222	222	4
243	244	7
195	195	18
1	1	11
101	107	3
21	22	3
204	204	12
86	86	15
118	120	2
5	5	11
75	75	11
189	191	3
228	228	2
92	92	15
42	44	4
240	240	13
59	59	2
94	95	6
180	184	4
14	49	4
100	100	5
5	67	1
161	161	8
213	213	15
78	112	3
188	210	3
163	163	3
69	69	13
101	105	1
246	246	8
192	192	16
167	187	3
65	66	10
106	106	12
61	63	2
84	84	13
194	211	3
164	164	16
60	66	1
0	0	2
231	231	6
53	117	1
12	109	1
76	92	3
19	19	6
247	247	7
225	226	4
168	226	2
96	96	4
194	195	4
34	72	1
35	66	2
102	103	7
23	23	9
194	198	3
56	56	17
185	186	2
2	31	2
175	176	3
50	74	1
241	242	4
92	93	2
71	98	2
166	180	1
156	156	16
105	120	2
82	237	2
173	173	9
67	68	6
212	212	10
184	243	1
170	201	3
83	106	1
219	219	11
3	17	3
202	203	2
39	39	4
3	3	5
36	36	11
225	227	2
6	6	6
2	12	2
64	64	10
74	98	2
92	107	8
88	88	7
156	157	2
90	90	10
26	26	9
197	197	7
71	73	4
67	93	3
106	107	3
23	169	1
154	168	5
186	219	3
164	200	3
212	240	1
155	168	1
180	187	4
155	185	3
217	218	8
201	202	4
208	208	8
243	246	1
35	36	3
33	35	3
49	58	3
5	235	2
185	219	2
207	214	2
111	111	11
189	193	1
150	168	1
25	186	2
230	234	2
104	104	7
85	85	6
208	242	2
216	218	1
30	111	3
79	80	6
3	230	3
101	199	3
74	91	4
154	154	7
183	209	2
79	81	2
165	165	13
182	191	5
169	169	12
43	44	1
48	77	1
166	167	3
95	97	1
65	65	13
85	237	1
167	196	2
40	53	3
74	85	2
208	246	1
176	176	11
230	230	14
103	103	11
167	168	1
206	207	3
68	92	4
150	231	1
62	62	13
216	217	6
177	178	3
95	96	3
23	24	2
55	56	13
70	71	5
55	57	3
166	234	2
223	229	2
114	117	2
196	196	5
214	216	1
99	107	3
97	98	2
221	222	6
186	186	4
59	66	3
27	28	4
38	52	2
222	223	2
120	120	8
111	112	7
105	117	3
183	184	5
220	220	4
64	65	5
205	207	1
44	45	1
111	246	5
185	217	1
206	206	9
156	186	1
197	199	3
16	56	2
152	190	4
226	226	5
170	176	4
22	22	5
4	175	2
48	50	4
154	155	1
78	78	6
51	51	3
96	97	3
172	226	1
116	166	6
36	232	1
158	159	1
155	194	1
216	216	6
48	76	1
235	242	1
189	190	5
165	187	2
57	65	3
28	235	1
52	54	1
8	8	6
76	77	6
208	209	2
170	242	3
211	232	1
179	179	9
185	212	3
237	242	3
110	110	8
2	109	3
197	236	1
66	119	2
158	174	3
80	84	1
177	181	2
239	239	6
60	61	5
238	238	7
98	98	8
150	195	2
152	153	3
184	185	4
229	230	4
101	104	4
12	12	7
174	174	5
41	42	1
166	183	2
188	189	2
18	50	3
70	70	5
60	65	3
241	243	4
34	108	1
30	31	3
247	248	2
91	100	3
146	147	4
240	241	2
163	214	5
152	152	6
90	91	2
236	236	6
239	242	3
113	114	9
85	86	3
165	244	1
179	218	2
153	199	3
77	78	4
47	47	8
93	93	7
75	103	2
243	243	7
164	244	5
30	85	3
69	70	4
43	113	1
33	105	1
27	70	2
165	166	1
239	240	2
106	120	1
20	22	1
212	229	1
206	225	1
108	109	1
237	237	5
163	189	2
189	218	4
50	50	6
173	224	4
166	225	4
121	121	1
153	161	1
40	41	5
82	85	1
171	179	1
181	216	1
50	90	2
200	200	7
231	232	1
163	240	3
25	25	3
109	110	4
40	52	3
224	243	1
28	207	2
30	42	1
4	30	1
193	233	1
12	66	1
78	79	1
27	29	2
175	208	1
49	50	6
179	214	3
180	181	1
166	208	2
40	62	1
47	48	4
214	229	1
184	209	2
117	118	3
178	201	2
233	234	1
101	103	1
30	235	2
182	186	1
1	11	1
68	103	4
224	227	3
239	246	2
51	54	2
21	203	1
213	214	3
81	83	1
53	54	1
190	209	2
77	77	4
110	111	3
187	209	4
153	157	3
18	34	3
59	90	2
93	95	1
224	225	1
2	34	2
178	179	2
75	108	1
58	59	1
4	5	4
65	67	3
39	61	1
184	213	2
73	75	3
146	178	1
157	181	1
187	190	2
152	160	2
70	82	1
42	43	3
92	198	1
18	35	3
73	78	1
209	211	2
179	201	1
36	195	1
36	53	1
245	245	2
159	160	1
75	111	1
144	145	3
38	39	1
98	104	1
167	220	1
26	46	1
232	233	1
169	191	3
164	165	1
8	43	1
170	172	1
178	182	1
147	147	2
81	85	1
84	114	1
67	94	1
149	150	1
190	214	1
19	115	2
114	244	1
6	16	1
74	102	1
14	50	3
156	212	2
194	196	1
114	118	1
47	57	2
144	144	1
172	224	2
224	244	2
224	224	1
191	192	2
159	217	1
175	211	1
68	81	1
187	187	4
49	77	1
2	3	1
108	245	2
205	214	2
8	9	2
187	189	2
36	38	2
16	16	2
172	219	1
3	34	1
38	49	1
6	228	1
56	59	1
79	105	2
213	229	3
176	182	2
200	203	2
204	206	1
234	238	1
104	106	1
107	232	2
82	84	1
246	248	1
144	157	1
80	81	3
75	92	2
17	204	2
210	211	2
183	191	3
108	111	1
26	37	1
84	119	1
59	60	2
197	200	1
190	191	1
151	196	1
183	208	2
195	198	2
176	215	1
168	171	1
6	7	1
48	59	1
161	180	1
173	193	2
187	191	2
37	38	1
153	160	1
43	45	1
176	213	1
52	87	2
211	212	1
77	119	1
85	119	1
111	244	1
208	228	1
29	30	1
94	100	1
242	248	1
19	20	1
18	26	2
188	192	2
5	68	1
73	74	1
98	99	1
15	56	1
13	49	1
99	103	1
206	220	1
16	110	1
6	43	1
18	20	1
189	194	1
33	102	1
174	193	1
97	119	1
153	156	1
173	190	1
112	113	1
162	163	1
5	111	1
8	200	1
64	90	1
75	76	1
47	56	1
8	201	1
81	82	1
32	68	1
26	27	1
72	73	1
144	205	1
158	160	1
205	206	1
217	227	1
212	213	1
7	200	1
146	146	1
57	60	1
217	239	1
95	102	1
20	21	1
240	244	1
232	238	1
108	119	1
39	40	1
161	190	1
