76	110	3
26	26	7
76	77	5
56	56	2
22	22	6
79	79	13
68	68	10
71	71	15
77	78	1
78	79	2
80	82	5
45	45	13
66	66	6
70	70	2
71	78	5
50	51	2
33	33	9
47	47	17
64	65	9
113	113	4
66	87	3
57	59	3
53	54	3
46	46	5
67	67	8
72	72	15
68	70	2
25	37	4
82	82	3
81	81	3
84	85	4
98	103	2
96	96	3
69	72	3
58	58	12
101	101	5
96	100	2
106	106	7
80	80	5
23	28	2
105	106	3
85	85	6
23	29	2
73	74	5
31	32	9
38	56	4
100	100	8
114	114	10
76	76	4
64	81	2
30	30	2
107	107	13
34	35	10
85	86	4
37	58	4
50	61	1
93	94	5
37	56	3
75	75	5
81	85	2
72	73	1
60	62	6
74	74	3
62	66	4
78	78	2
48	48	5
88	88	6
73	73	10
32	59	3
108	108	2
19	26	2
93	93	6
98	98	15
87	87	3
93	107	3
109	109	13
91	91	1
45	92	2
90	91	6
25	25	3
69	95	4
105	107	1
72	77	2
42	42	12
22	50	4
24	24	5
111	111	7
65	65	7
29	29	2
66	69	3
95	95	5
34	34	3
32	63	3
26	65	1
69	69	4
80	86	3
109	110	7
27	27	2
21	21	6
100	101	3
95	106	3
41	41	4
83	83	2
70	77	2
40	54	1
55	56	1
51	52	2
31	31	7
99	99	5
29	32	2
63	64	2
52	52	10
24	27	3
38	55	4
38	38	4
48	49	3
57	57	3
50	50	7
86	86	8
48	90	3
24	98	2
47	48	5
29	42	1
43	48	1
51	59	1
23	23	9
99	100	2
49	92	2
90	90	3
70	81	4
51	51	8
110	110	4
112	112	3
82	87	1
89	90	4
20	38	1
98	99	4
104	106	2
106	107	4
110	111	1
20	20	5
58	61	2
28	28	7
101	107	2
26	27	4
34	60	2
23	31	1
41	51	2
29	30	4
92	92	2
49	49	4
40	41	5
82	94	3
94	95	1
68	69	4
43	43	4
102	102	3
22	51	1
64	64	5
81	82	1
104	104	5
55	58	1
37	37	5
80	83	1
19	19	2
32	36	2
105	105	8
84	84	5
103	103	6
79	85	1
92	108	1
62	63	4
77	77	1
37	40	2
47	49	3
88	89	1
97	97	2
37	38	5
22	54	3
62	62	3
33	34	1
28	31	2
59	59	4
39	56	1
36	37	3
70	71	6
96	97	1
32	32	3
55	55	2
83	87	1
49	53	2
54	54	3
89	89	1
40	40	4
102	103	1
39	55	1
35	51	2
30	31	2
54	55	1
46	53	2
61	61	2
96	99	1
53	53	2
49	91	1
26	39	1
35	35	7
38	52	5
80	87	1
28	62	2
74	78	1
71	72	2
21	37	1
34	61	1
32	60	1
36	36	1
41	114	3
70	72	1
33	47	1
65	66	1
97	99	1
101	104	2
51	62	2
46	92	1
27	28	1
85	87	1
73	75	1
86	87	1
23	40	1
72	75	2
86	88	2
25	41	1
66	70	1
54	97	1
22	23	1
97	101	2
28	32	2
82	84	1
91	108	1
29	36	1
59	60	2
43	44	1
21	33	1
59	61	1
115	115	1
