51	52	5
97	97	11
87	88	3
71	71	11
33	35	2
31	32	1
82	82	8
116	116	5
132	132	9
121	121	1
99	99	12
131	131	14
145	145	12
37	37	6
82	105	3
102	102	4
108	108	10
50	50	8
107	107	6
102	103	2
34	35	5
83	83	13
19	24	6
76	76	12
41	41	7
6	14	3
135	135	14
130	132	2
58	58	4
12	28	1
36	36	4
94	94	8
54	54	13
39	40	7
38	39	4
96	97	6
44	44	13
5	6	4
152	152	4
143	143	6
106	106	4
17	17	23
130	134	1
39	41	2
15	16	6
37	50	3
125	125	5
5	5	7
21	21	13
86	87	1
10	10	9
67	68	15
73	74	9
95	95	12
93	94	5
20	23	3
146	146	10
25	27	4
126	126	2
119	119	10
149	152	2
105	105	4
23	23	18
22	22	16
78	83	2
33	33	10
33	34	8
13	13	21
8	17	1
78	78	7
45	46	6
149	149	10
114	114	4
4	4	16
40	47	5
71	76	3
31	48	1
92	93	5
27	29	5
139	146	2
69	70	5
20	20	6
99	100	3
117	117	5
57	57	16
73	73	21
9	9	12
62	74	1
28	28	7
18	18	7
153	153	5
38	42	5
14	14	11
77	77	18
28	29	2
40	41	5
112	113	4
27	27	1
31	31	11
46	46	7
141	142	3
115	115	7
153	154	4
21	23	6
54	55	4
44	46	1
154	154	7
81	98	4
67	67	9
140	140	7
12	12	13
72	73	4
53	134	1
20	25	1
19	19	12
135	136	1
66	80	3
100	100	14
51	51	7
29	29	4
13	17	6
11	11	11
138	140	1
109	130	2
63	64	3
17	19	1
18	19	4
128	128	5
98	99	4
51	56	2
109	148	1
16	16	17
46	47	7
104	121	3
137	139	3
15	15	8
47	50	6
129	129	8
57	68	2
14	16	6
140	141	9
51	58	1
122	123	4
124	124	4
148	149	2
8	8	9
79	79	1
84	84	9
131	134	1
34	34	11
30	30	10
98	98	3
49	49	5
101	101	3
35	35	5
138	139	2
7	7	8
130	130	9
123	123	10
141	141	8
142	142	5
17	18	5
65	98	4
95	101	3
121	123	1
6	9	4
133	133	7
20	21	8
112	112	7
125	126	4
39	39	11
72	72	7
103	104	1
127	127	4
6	8	4
113	116	1
24	25	3
145	146	2
24	24	11
80	80	6
50	73	3
19	20	4
92	92	3
38	38	8
47	49	5
14	15	5
5	23	1
45	45	5
68	68	10
141	151	3
26	26	2
13	81	1
64	64	6
69	69	8
26	31	4
136	137	3
53	54	4
54	77	1
96	136	3
10	12	1
77	78	4
116	117	3
25	25	3
113	113	7
118	118	6
2	2	6
53	53	2
71	79	2
8	11	2
65	65	9
74	75	3
96	96	12
97	98	1
4	5	6
7	8	4
74	74	4
11	12	2
137	137	1
111	112	9
147	147	4
123	151	5
72	77	1
41	67	3
110	111	3
88	88	5
111	111	3
11	14	2
81	81	2
10	11	3
124	127	6
26	74	3
42	43	2
56	57	10
24	26	3
86	86	8
135	137	5
48	49	3
40	40	11
79	80	1
85	85	6
10	16	3
136	136	1
133	134	1
61	62	2
144	147	3
6	6	12
42	62	6
76	77	3
8	9	3
104	104	2
143	147	11
68	72	1
115	116	2
96	102	3
130	148	4
139	139	6
65	78	3
124	142	3
45	49	3
87	87	1
110	112	4
151	151	3
107	108	2
103	103	6
133	135	1
67	69	1
70	70	7
9	36	3
63	63	4
27	70	1
15	18	3
146	148	4
47	47	6
23	73	3
43	43	6
150	150	4
33	97	1
76	78	2
25	26	3
49	76	2
42	42	3
23	25	3
122	122	4
26	32	3
64	75	2
38	153	1
78	79	2
23	24	2
28	30	1
33	57	2
82	96	2
117	118	2
32	33	4
9	11	4
37	57	1
49	57	1
151	152	3
85	86	2
65	66	1
122	129	5
129	130	1
124	126	2
116	118	1
25	37	2
25	54	2
145	148	1
44	45	1
7	10	1
69	120	2
29	30	2
125	149	2
110	110	4
99	110	1
37	41	2
134	134	1
28	54	2
86	88	4
39	65	1
104	119	1
69	72	1
148	154	3
77	81	1
14	26	1
45	48	3
94	95	3
47	48	2
103	107	2
93	95	3
109	109	1
109	113	4
142	151	1
108	110	1
91	91	3
119	122	1
143	148	2
43	56	2
32	32	2
66	66	2
128	129	2
7	14	1
40	70	1
50	93	1
150	151	1
53	81	1
104	105	6
23	57	2
113	114	4
129	131	3
48	48	2
123	124	3
8	10	1
21	129	1
43	55	1
37	76	2
57	67	1
25	28	2
142	153	1
9	13	2
129	148	1
128	137	2
77	100	1
129	146	2
113	129	4
95	96	1
94	99	1
101	102	1
74	96	2
79	85	2
66	67	1
105	106	1
149	150	1
138	138	1
20	98	1
131	132	3
71	72	1
103	106	2
62	62	2
19	40	1
106	107	3
48	50	2
44	47	1
126	128	1
17	25	2
31	33	1
19	85	3
37	38	1
64	85	1
40	42	1
12	13	5
13	14	1
114	115	1
52	53	1
13	23	1
64	77	2
21	24	1
57	58	2
55	55	2
62	76	1
18	21	1
7	64	1
120	120	3
134	135	1
75	76	1
80	82	1
35	37	1
67	119	1
52	52	2
5	29	1
128	146	1
144	145	1
147	148	1
148	152	1
95	97	1
130	131	1
24	133	1
