69	69	5
43	45	3
94	94	6
58	58	2
51	52	2
90	90	4
4	4	5
50	50	8
102	102	7
110	110	8
42	42	13
5	22	2
86	86	6
16	17	3
93	95	3
54	54	16
9	9	9
18	34	2
12	13	4
46	48	3
72	75	3
89	124	1
115	129	1
30	30	4
5	18	1
114	114	7
2	4	2
85	85	9
59	59	2
127	127	3
104	104	4
44	68	1
108	108	4
124	124	3
67	67	4
120	124	2
113	114	3
47	47	5
46	46	7
41	77	3
70	70	2
34	34	4
53	53	7
4	116	1
31	32	3
67	68	7
88	90	2
15	15	8
27	29	5
102	103	2
88	88	6
64	80	3
0	31	3
68	68	7
123	123	7
66	66	5
48	48	4
81	81	4
17	23	2
23	23	8
113	113	5
99	117	1
89	117	1
105	105	7
13	20	3
61	61	3
125	126	1
43	81	2
28	71	2
46	47	1
31	31	6
6	90	3
57	57	5
10	12	1
107	107	3
39	39	2
0	0	1
79	79	1
83	84	6
77	77	8
65	66	1
57	117	2
89	89	2
75	75	5
44	44	7
49	49	7
76	102	1
19	19	7
52	52	5
7	7	2
109	109	8
80	80	1
120	120	2
41	67	4
96	96	4
60	60	8
84	85	2
85	87	3
52	53	3
25	28	1
99	114	7
119	132	2
57	58	2
75	76	5
96	97	2
4	5	2
26	26	2
17	18	2
58	128	2
5	10	3
3	100	2
91	91	6
59	61	3
115	119	1
55	55	4
7	49	1
100	100	1
93	93	3
105	108	2
58	60	1
40	42	4
101	101	4
24	30	4
29	29	2
2	44	2
64	64	4
2	2	4
61	62	2
97	102	2
126	127	1
106	106	2
84	84	2
81	110	1
92	95	4
87	87	5
20	46	1
85	86	3
5	38	4
65	65	3
130	130	1
128	129	1
80	81	1
43	46	3
63	63	4
16	16	7
115	115	5
77	101	2
56	56	4
13	33	1
104	105	1
72	72	4
40	45	3
95	96	7
48	52	3
51	51	2
95	106	1
5	13	1
128	128	5
118	118	3
8	70	2
93	94	4
8	32	3
57	63	1
45	45	4
2	114	1
116	117	1
97	114	2
38	106	1
69	84	3
27	32	4
133	133	6
113	119	1
24	33	1
45	47	1
96	112	6
47	48	3
94	106	1
83	87	2
43	43	6
49	53	2
27	27	5
16	103	1
45	46	2
62	62	1
77	96	2
17	17	3
119	119	2
120	125	2
46	66	2
89	91	1
6	17	1
116	127	3
16	119	2
76	93	5
22	22	4
11	11	3
23	72	2
70	113	1
12	12	1
82	101	1
8	104	1
107	108	1
10	10	1
99	99	1
11	12	2
18	18	1
49	50	1
98	108	4
58	116	3
90	91	2
48	49	2
129	129	1
6	14	1
5	5	4
40	81	2
76	76	1
47	63	1
103	103	1
89	90	1
17	97	2
62	117	1
14	14	3
121	121	1
95	95	1
127	130	3
117	131	5
109	112	2
87	88	1
1	1	1
82	83	1
33	34	2
28	28	1
106	109	1
49	54	1
97	101	1
82	82	1
40	41	2
121	125	2
22	23	2
26	27	1
8	28	1
6	13	1
41	108	1
131	132	2
85	88	1
46	130	2
129	130	2
7	46	1
14	73	3
70	96	1
4	13	1
78	78	1
114	119	1
92	92	2
85	95	1
15	17	1
56	75	1
112	112	2
77	79	1
126	126	1
122	122	1
25	25	1
76	77	1
119	126	1
111	111	1
116	118	1
15	113	1
98	98	1
49	87	1
58	129	1
114	127	1
20	93	1
21	21	1
92	117	1
