205	205	12
77	78	3
71	72	3
201	201	12
38	38	2
163	164	5
111	112	5
52	52	9
20	20	10
8	8	18
157	160	5
209	237	3
98	98	10
191	191	6
194	194	6
160	160	23
90	91	3
37	37	4
165	165	13
219	219	9
233	233	2
64	64	14
63	63	6
7	7	6
40	40	8
163	163	21
245	245	4
6	6	17
66	66	5
154	154	5
203	203	8
231	231	5
9	9	4
74	74	11
162	162	14
208	208	7
44	46	3
114	115	6
33	33	11
231	232	14
22	23	4
173	174	7
89	89	5
200	203	3
103	108	1
246	246	18
85	85	9
214	239	4
199	199	23
235	235	8
35	35	10
180	206	2
74	99	2
78	78	12
167	167	8
212	222	2
220	220	23
119	119	10
25	25	5
157	215	2
59	60	8
90	90	4
175	175	2
222	222	9
190	190	8
164	164	15
166	166	6
48	49	3
43	43	11
45	78	3
93	93	6
159	159	11
181	182	4
181	181	9
59	59	8
112	112	8
87	87	4
247	247	11
189	189	4
176	176	4
187	193	1
224	224	16
16	16	8
48	48	3
176	177	3
106	107	1
25	41	1
77	77	16
96	96	7
49	71	3
113	116	3
105	105	10
167	168	6
114	156	3
111	245	4
116	116	5
88	88	8
86	86	4
161	161	6
61	61	10
236	236	4
50	224	1
169	169	17
58	58	13
146	192	1
240	240	11
241	241	5
170	170	17
37	38	1
153	159	2
20	53	4
190	192	2
217	217	11
211	211	9
180	185	6
70	70	3
198	198	14
47	158	2
111	111	8
238	239	1
223	223	3
217	218	1
208	211	5
108	108	9
153	153	3
67	68	2
200	200	13
237	237	10
23	23	10
238	243	5
56	56	17
43	67	3
114	116	3
234	234	12
92	92	8
53	53	5
115	115	8
180	212	2
239	239	3
107	108	3
22	22	8
27	41	3
115	116	3
113	114	3
220	233	1
197	197	20
151	151	6
160	186	4
207	207	9
30	31	4
110	110	11
26	27	1
114	114	12
163	165	11
57	57	6
5	13	2
54	54	10
85	119	3
15	16	3
9	10	1
206	207	3
109	109	9
162	163	1
107	119	3
67	73	2
26	26	8
75	76	4
182	182	6
96	97	4
150	150	7
42	42	10
221	221	11
168	177	4
202	203	5
76	77	6
33	35	5
202	202	15
166	175	2
51	169	4
187	188	3
24	25	3
3	6	1
81	98	2
68	68	4
156	156	5
163	166	2
183	183	8
81	81	7
55	55	5
101	101	10
159	197	2
215	215	10
228	228	4
108	111	2
178	178	9
95	95	13
97	97	4
185	185	2
168	168	2
82	83	1
208	209	2
118	118	8
220	221	7
212	212	14
115	157	3
28	28	7
168	169	6
14	14	5
232	232	8
100	100	7
80	104	4
223	226	3
30	30	7
244	244	11
2	41	2
172	204	1
29	29	7
182	183	6
18	153	2
174	174	7
221	229	4
15	15	6
91	91	7
213	213	17
74	118	1
193	194	4
145	145	9
158	158	3
98	99	2
68	100	2
4	4	11
14	158	3
103	104	2
190	191	7
67	167	4
41	41	12
46	46	5
227	227	8
75	75	7
84	84	3
173	173	10
209	210	11
85	110	1
171	172	3
14	47	1
107	110	4
238	238	12
16	21	5
146	147	2
84	112	1
47	47	6
20	22	2
2	16	2
224	225	3
226	226	1
64	66	4
44	44	6
188	188	3
226	227	3
36	36	6
159	208	2
175	239	2
117	117	9
28	29	2
18	37	2
172	172	6
73	73	9
241	242	4
27	27	3
65	65	2
39	39	1
105	111	1
45	45	3
196	196	3
73	90	1
204	204	5
173	208	1
109	117	2
111	246	3
184	185	10
160	182	3
157	157	10
190	245	3
209	209	3
218	218	6
4	14	1
161	162	1
104	104	3
192	192	5
233	234	4
47	51	2
76	76	2
185	186	2
186	186	5
187	189	6
99	99	3
111	117	3
24	24	9
60	60	8
71	71	5
237	240	2
78	93	2
5	6	3
230	230	7
229	229	3
186	193	3
89	116	2
155	155	4
227	228	2
248	249	2
36	38	4
188	189	2
187	212	2
235	236	1
146	146	4
245	246	5
204	206	1
92	115	1
164	225	1
80	80	3
169	170	5
3	3	3
10	10	9
178	179	6
70	116	3
191	232	3
230	233	2
74	120	2
115	119	1
106	108	1
101	105	1
10	11	3
164	165	2
38	39	1
48	50	1
88	114	2
57	60	3
29	34	1
49	158	1
45	99	4
21	41	1
95	96	1
102	102	6
187	187	5
28	42	4
86	95	1
193	193	6
4	5	3
199	200	6
195	195	7
13	15	1
117	244	2
158	159	2
169	174	2
93	108	7
177	178	1
18	18	7
55	113	1
92	93	3
85	100	1
11	11	4
214	214	7
180	180	11
171	171	1
167	172	3
72	72	1
238	240	2
88	99	2
60	61	2
87	99	3
44	81	2
80	83	1
31	31	7
177	187	2
147	147	5
51	52	1
81	82	4
86	118	3
5	50	1
230	234	2
94	94	1
161	178	4
56	58	2
242	242	2
38	40	4
167	184	1
51	167	1
30	36	2
74	76	1
50	58	1
28	32	2
165	226	2
65	74	6
113	113	4
36	39	5
65	68	2
2	2	3
20	23	1
197	198	8
155	156	4
229	246	2
20	205	2
33	70	1
217	219	3
42	64	1
12	195	1
210	210	6
32	32	1
163	185	1
225	225	5
214	247	1
30	37	1
99	100	1
68	70	2
63	149	2
184	184	6
192	193	2
177	181	3
183	184	5
103	103	2
112	113	3
62	62	1
2	11	2
52	167	1
14	15	1
165	175	1
84	240	1
180	181	3
1	1	2
184	209	2
51	63	2
230	231	1
1	9	1
29	63	2
21	21	5
152	153	2
152	152	1
24	26	2
196	197	2
165	166	2
29	30	9
88	89	1
25	42	2
51	168	1
48	68	3
241	243	1
45	46	3
14	35	1
91	92	1
50	50	3
17	17	1
52	68	2
159	210	1
201	202	2
87	90	1
39	40	1
166	167	1
29	31	2
157	158	2
162	216	1
240	242	1
83	83	1
19	19	2
64	65	3
236	241	2
206	206	1
26	43	2
143	146	2
232	233	1
243	243	1
12	12	3
190	246	1
184	214	1
181	210	2
218	220	1
211	218	1
236	237	1
47	114	1
178	204	2
146	160	3
19	29	1
69	69	3
97	98	1
49	50	1
17	20	2
30	35	2
223	225	1
67	67	5
86	96	3
225	226	3
89	109	2
166	179	1
51	55	1
49	49	3
177	177	2
189	192	1
68	69	1
216	217	4
117	238	1
31	149	1
61	62	2
215	218	1
183	191	1
29	37	2
190	218	2
121	144	1
24	28	2
166	177	2
181	183	2
51	51	4
228	229	2
78	109	1
207	208	2
220	249	2
15	46	3
176	211	1
209	248	2
59	171	1
41	43	1
33	48	2
73	75	2
189	190	2
36	37	1
74	75	3
147	171	2
31	32	1
220	222	1
216	216	1
174	204	2
163	178	1
3	18	3
89	119	2
75	79	1
79	79	1
179	179	2
21	22	1
28	117	1
234	235	1
27	28	1
69	100	1
55	56	2
151	156	1
19	80	2
42	43	1
56	114	1
46	64	1
30	63	1
207	249	1
35	116	1
62	83	1
62	161	2
111	244	2
108	247	2
242	243	1
47	48	1
153	154	1
29	109	1
5	18	2
209	241	1
100	101	1
161	214	1
52	53	1
240	241	1
48	170	1
188	192	1
0	1	1
170	214	1
57	58	1
171	198	1
184	188	1
94	98	2
82	82	1
78	103	1
101	102	1
179	181	1
212	213	1
224	226	1
213	239	1
198	199	1
59	62	1
56	57	1
194	212	1
12	47	1
216	218	1
