22	23	2
102	110	2
14	14	2
94	94	4
17	17	11
20	22	3
112	114	4
49	50	3
79	79	6
82	82	6
81	98	1
103	103	5
11	11	3
46	46	11
47	47	6
74	75	7
37	37	2
67	68	2
7	33	1
15	15	4
70	106	1
14	15	1
135	151	4
21	21	4
13	13	13
14	33	3
74	74	5
22	41	2
8	9	2
29	29	1
84	84	6
47	52	2
109	109	4
129	131	2
115	115	1
31	53	5
81	112	4
141	141	2
35	38	1
123	124	4
38	38	1
17	18	5
35	35	9
101	103	2
30	30	6
22	22	7
28	28	4
56	56	3
66	66	12
31	38	2
78	78	14
4	4	12
55	56	5
6	9	1
16	16	5
143	143	3
106	106	5
21	24	3
54	55	1
28	50	2
73	73	11
40	40	6
36	36	7
71	71	4
28	84	2
54	150	6
147	147	2
34	35	6
64	64	6
36	37	2
98	98	7
106	107	6
67	67	10
24	39	3
153	153	3
25	25	4
121	122	3
80	80	5
95	96	4
128	128	1
127	127	5
107	107	1
23	24	3
8	8	11
84	87	3
124	124	4
85	85	8
47	152	1
33	69	1
138	138	5
44	44	7
19	19	3
16	27	2
45	45	11
134	135	3
31	31	6
51	109	1
126	143	1
29	57	1
139	139	5
87	87	5
92	92	2
76	85	4
32	38	2
30	84	2
23	23	7
149	149	6
86	86	5
99	111	4
57	57	6
63	87	3
34	34	5
83	84	3
130	130	4
73	132	2
72	72	1
49	49	5
90	90	5
104	132	1
63	150	3
55	150	1
104	104	7
127	143	2
126	127	3
93	94	6
94	95	5
39	39	10
102	106	3
82	83	3
43	43	4
101	102	1
45	64	1
131	132	2
10	10	5
41	41	5
142	144	1
48	48	1
13	25	1
27	28	6
47	53	3
27	27	1
10	11	1
117	117	8
73	109	7
131	131	4
149	150	3
95	97	1
100	117	1
102	103	5
32	32	1
123	126	3
146	147	1
97	145	1
137	137	7
39	42	2
100	100	1
54	54	4
86	87	2
94	125	2
35	36	3
25	40	2
53	53	4
46	48	1
118	118	4
69	75	3
75	75	1
74	95	1
135	135	2
73	136	1
105	105	4
45	46	2
9	9	2
92	112	2
63	63	4
33	33	3
136	138	4
43	62	7
75	78	1
137	138	3
4	8	2
97	138	2
55	55	4
2	6	2
144	146	4
6	6	5
3	48	4
146	148	6
62	62	2
140	140	1
152	152	2
32	37	2
51	51	2
150	151	3
81	81	2
34	36	3
96	99	5
13	29	2
74	84	3
24	24	3
5	29	1
121	121	2
4	20	2
122	122	1
145	146	4
129	129	4
43	44	6
70	77	4
113	114	1
113	113	8
88	88	3
105	108	2
95	95	4
31	50	1
23	41	1
7	9	2
133	134	1
61	61	3
26	27	3
64	68	3
95	99	1
3	3	3
40	43	2
65	68	2
136	139	2
56	58	1
20	23	2
6	8	3
119	119	4
136	136	2
66	145	1
114	114	5
120	120	4
76	76	3
82	92	1
18	18	9
65	66	1
130	131	3
42	42	1
72	111	1
142	150	2
33	34	3
65	65	3
96	96	4
87	88	5
65	72	1
98	99	3
20	44	1
100	144	2
127	128	2
47	48	2
137	139	1
90	93	1
78	79	3
41	42	3
74	104	1
139	145	2
61	62	2
143	150	2
68	150	1
142	142	2
42	43	3
46	53	1
75	80	2
42	66	1
85	86	2
105	120	3
50	53	1
26	26	3
79	83	1
79	94	2
27	33	1
65	78	2
112	112	1
29	118	1
68	76	1
96	137	2
30	114	2
111	111	1
49	58	1
143	144	1
28	68	4
3	51	2
12	12	4
154	154	3
94	128	2
143	151	1
102	107	2
133	133	3
112	113	1
42	70	1
53	54	4
74	105	1
86	145	1
11	14	3
97	97	3
83	96	3
44	45	1
142	154	2
57	58	1
25	39	1
135	136	2
20	21	1
85	87	2
90	137	1
87	94	1
68	68	1
145	145	2
119	131	2
139	141	1
144	144	2
64	76	2
6	7	2
69	69	1
5	5	2
68	72	1
75	91	1
38	39	1
153	154	1
63	71	1
10	12	2
70	83	1
71	86	1
80	110	1
28	32	1
146	146	1
7	7	3
150	150	1
123	125	1
126	132	1
37	38	2
70	70	1
12	14	1
27	29	1
77	78	1
5	6	1
73	102	1
69	73	1
109	110	1
27	32	1
116	116	2
93	93	1
108	108	1
14	28	2
27	31	1
126	126	1
16	19	1
40	41	2
88	121	1
48	55	1
50	51	1
30	32	1
47	77	1
105	122	1
80	82	2
2	2	1
75	84	1
5	33	1
120	123	1
21	54	1
76	87	1
14	37	1
63	72	1
99	101	1
