34	35	2
123	123	1
67	67	7
110	110	1
118	118	2
85	85	3
97	98	1
125	125	6
136	136	6
141	141	4
18	18	4
67	74	1
103	107	4
88	109	1
33	41	2
124	124	8
119	119	8
51	51	2
83	84	2
109	109	5
15	15	6
83	85	5
88	88	12
16	23	2
90	90	2
51	56	3
77	77	4
89	89	6
1	5	2
115	115	4
76	76	2
97	97	11
113	114	3
0	1	5
92	92	1
48	48	5
133	136	2
58	58	7
13	13	7
107	120	3
60	98	2
95	95	6
83	83	2
101	101	2
120	120	3
97	126	3
134	134	1
25	25	3
99	100	2
66	66	2
16	16	5
137	137	3
14	14	5
133	143	2
18	28	3
107	108	3
12	16	3
33	43	2
26	26	2
143	143	3
19	19	2
135	135	1
36	36	1
84	85	4
2	3	4
21	23	2
22	22	7
138	138	3
128	129	3
96	97	1
56	67	1
0	0	1
58	59	6
81	81	1
91	91	1
132	137	3
58	67	2
14	21	1
142	142	1
41	41	1
140	143	1
87	87	1
132	132	3
62	63	1
59	68	2
68	68	1
0	2	2
55	70	5
82	82	2
140	140	1
61	63	2
16	17	2
126	126	5
10	10	3
123	124	1
60	60	1
142	143	2
8	11	4
89	110	1
67	90	2
67	68	3
110	111	4
35	35	1
127	127	2
95	97	2
134	140	1
15	20	1
31	54	1
1	6	3
54	54	2
30	31	2
2	2	5
104	104	1
80	84	1
43	65	6
106	106	1
70	73	3
120	121	1
4	4	3
122	123	1
30	30	2
78	78	1
8	8	1
38	38	1
104	136	1
86	86	1
131	131	3
56	56	1
129	129	7
121	126	1
33	33	2
32	32	1
55	56	3
87	88	3
71	71	3
104	105	1
54	55	1
87	145	1
31	31	2
4	6	1
20	22	1
13	15	1
94	94	1
105	105	1
138	144	2
50	55	1
90	91	2
20	20	1
2	4	1
29	29	1
64	66	1
17	17	1
139	139	2
20	24	1
118	119	2
129	136	1
87	95	1
126	127	2
135	137	2
138	140	1
125	126	1
91	125	1
128	128	3
3	3	3
42	42	2
118	120	2
47	47	1
23	112	1
112	116	1
143	144	1
130	130	2
76	79	1
32	36	1
51	52	1
105	117	2
136	138	1
40	41	1
43	43	1
130	131	1
133	133	1
96	96	1
55	55	1
108	108	1
26	27	1
110	139	1
15	16	1
138	141	1
103	103	1
49	49	1
40	40	1
65	65	1
9	9	1
52	66	1
43	47	1
104	108	1
