3	4	7
15	15	9
97	146	3
48	49	7
27	29	7
19	19	8
99	101	2
31	37	3
130	130	9
123	125	7
29	29	13
5	5	4
32	32	5
39	51	2
46	46	10
127	127	7
153	153	4
112	113	6
54	54	6
114	115	2
106	106	13
9	9	8
80	81	5
21	21	9
36	36	11
6	6	5
51	51	6
83	109	2
4	4	3
0	0	7
21	118	1
148	148	4
16	17	8
42	42	12
30	30	14
84	84	6
71	72	4
84	142	3
119	119	2
118	120	2
96	97	3
86	86	7
79	79	5
31	51	8
43	43	12
22	22	11
114	114	14
154	156	2
83	83	2
131	154	3
12	12	11
118	119	5
17	18	1
39	39	13
50	50	14
28	28	9
16	16	5
2	2	10
143	143	2
89	89	5
17	17	10
3	79	3
150	150	8
140	140	1
85	86	2
137	138	7
18	20	4
122	122	11
8	31	3
113	113	6
70	70	4
83	95	2
135	135	6
66	106	1
129	129	5
24	24	3
20	20	9
125	147	2
65	65	5
78	78	6
80	80	6
87	88	7
111	111	3
26	26	10
99	99	6
11	12	1
95	95	4
133	133	6
38	38	11
96	96	5
14	14	9
52	52	2
30	75	2
9	26	2
1	12	1
138	138	7
56	57	4
8	8	8
45	46	7
132	144	4
29	35	3
69	71	4
44	44	4
81	81	5
19	23	1
13	13	6
73	73	9
101	101	2
89	103	2
128	129	2
37	37	13
41	41	13
113	147	3
97	97	2
49	49	6
126	126	11
30	32	1
142	143	2
88	126	2
40	41	1
117	117	5
146	147	2
132	133	6
94	94	7
91	91	3
108	109	2
140	142	1
98	98	14
147	147	11
46	48	3
102	102	3
125	125	11
84	85	3
22	29	1
110	110	2
41	42	3
37	38	3
82	83	7
48	48	5
137	137	7
66	66	3
107	107	5
57	61	1
17	23	2
113	120	5
77	77	2
121	144	2
41	83	1
31	31	5
116	116	2
69	69	3
140	141	2
112	112	6
83	84	4
76	77	1
113	114	2
144	145	2
131	150	2
3	96	3
18	19	1
145	145	2
102	103	3
12	13	1
96	126	4
21	117	3
110	113	2
77	78	2
90	90	2
100	100	3
56	56	1
26	27	2
19	20	2
81	83	1
90	98	3
149	149	4
117	118	1
40	42	2
115	115	4
51	52	3
145	153	2
94	96	2
34	112	1
141	154	5
41	93	1
47	47	5
132	132	3
120	120	1
87	87	2
124	124	6
96	147	2
52	55	1
120	150	3
109	109	1
20	21	4
67	67	4
105	156	3
94	95	2
111	112	1
144	148	3
145	147	5
126	127	6
82	82	11
71	71	3
85	96	3
120	139	3
113	115	1
156	156	3
75	75	3
31	32	3
23	24	2
76	76	4
4	5	1
1	2	3
35	94	2
143	147	1
11	11	4
33	33	2
35	35	6
22	116	1
55	55	4
54	55	3
31	39	3
118	118	6
67	68	4
10	10	2
46	47	1
18	21	2
141	141	2
12	50	1
36	90	2
108	108	3
153	156	3
18	18	1
93	93	5
103	103	4
114	117	5
105	105	9
33	34	2
25	25	9
152	152	2
61	61	4
11	47	1
19	49	3
144	144	5
38	113	3
121	123	1
64	64	7
32	39	2
63	64	1
136	137	2
115	123	1
10	26	1
34	34	4
7	28	1
67	70	1
85	85	8
68	69	1
139	139	4
118	123	3
81	82	2
68	68	3
111	154	4
114	149	2
144	147	4
43	158	2
123	123	3
136	144	1
121	121	3
12	18	2
126	144	2
108	113	1
66	69	2
14	21	2
124	126	2
96	98	1
108	116	1
151	151	3
133	142	1
107	114	1
91	94	2
65	66	4
123	143	2
108	140	2
25	50	1
146	146	5
25	45	3
125	127	2
104	105	2
96	132	2
38	39	1
15	49	1
14	20	1
103	104	3
48	51	4
134	137	1
15	19	3
95	97	4
3	3	4
115	116	2
106	135	1
44	45	1
110	114	1
150	153	1
133	134	4
154	154	2
117	120	3
29	78	1
106	137	1
116	117	2
154	155	3
125	126	4
40	92	2
21	22	1
3	8	1
134	135	3
126	149	2
107	108	1
112	117	3
131	133	1
138	140	2
30	37	1
105	106	1
23	36	1
9	11	1
31	38	4
34	41	2
51	55	1
64	65	2
22	110	1
63	63	1
22	77	1
108	126	1
32	36	1
87	94	2
107	125	1
82	88	1
136	136	3
93	94	3
72	73	1
116	123	2
27	33	2
15	51	2
22	38	1
18	27	1
7	7	1
13	14	1
110	111	2
124	137	4
52	54	1
27	28	1
37	62	1
11	46	1
32	33	1
39	41	1
5	9	1
90	91	1
142	142	1
24	32	2
8	28	2
17	34	1
28	29	1
148	151	1
14	125	1
155	155	1
68	70	1
108	122	1
52	53	1
13	94	2
121	122	2
50	51	2
22	23	1
147	148	1
101	126	1
69	70	1
156	157	2
42	43	2
84	87	1
105	126	1
123	141	1
158	159	1
137	152	1
155	156	2
93	96	1
129	131	1
33	108	1
22	111	1
10	11	1
14	22	2
120	154	1
62	63	1
109	111	1
42	156	2
128	128	2
111	140	2
34	35	1
67	71	1
45	45	1
41	94	2
16	129	1
42	107	1
131	132	1
129	130	1
149	150	1
92	92	1
23	23	1
118	153	1
16	18	1
20	141	2
131	131	1
82	85	1
113	123	1
