116	128	5
35	35	17
2	7	2
150	150	6
145	146	3
100	100	7
147	147	10
127	127	7
176	176	20
28	28	10
71	133	2
103	104	4
81	81	13
122	143	1
104	104	10
44	45	3
91	92	3
9	9	25
11	12	9
106	114	2
21	21	10
154	167	6
133	134	4
49	90	1
2	2	18
11	11	18
18	18	12
160	161	5
164	166	2
135	156	1
3	41	1
36	36	30
17	17	25
14	15	8
64	64	2
21	22	9
114	114	5
34	39	3
149	149	17
35	36	8
13	13	29
9	10	5
2	3	9
102	102	11
6	6	23
5	6	4
10	15	7
26	27	9
135	136	11
39	39	21
8	9	8
158	158	6
107	111	3
44	44	18
145	145	10
108	108	7
134	134	10
8	21	3
6	7	2
33	33	22
127	131	3
38	38	22
133	133	12
42	42	6
23	43	1
159	172	3
56	56	8
37	37	23
101	101	7
51	51	9
63	63	10
168	168	12
62	62	14
11	16	2
161	162	8
27	28	9
4	5	5
88	88	7
0	0	23
117	117	17
22	22	24
73	73	12
104	124	3
7	7	20
139	139	9
30	43	3
15	43	3
93	102	2
86	86	10
9	13	3
130	131	1
148	161	3
44	107	3
65	67	1
147	165	2
131	131	15
152	152	9
73	75	6
41	41	24
32	93	5
116	154	4
81	82	1
52	53	5
3	3	19
89	89	8
0	36	1
90	93	1
119	119	7
17	32	2
134	135	2
8	8	31
43	44	11
161	169	2
32	33	10
24	26	9
168	177	4
26	26	12
11	14	8
159	159	22
121	121	5
25	25	15
77	79	2
64	117	1
52	52	9
167	167	10
66	66	7
7	43	8
61	61	11
170	170	12
95	95	6
106	106	6
60	61	9
1	1	16
90	90	7
132	132	22
96	109	2
34	34	17
125	176	3
120	120	13
59	86	2
58	58	2
10	10	12
24	104	3
86	87	3
138	138	11
0	26	2
173	173	13
45	45	7
10	11	11
144	145	5
140	140	4
161	161	8
67	67	3
108	109	4
110	110	7
15	15	25
24	24	12
131	135	3
82	82	10
131	136	3
74	75	3
156	175	2
126	126	8
5	10	5
8	33	1
164	169	5
13	17	1
76	76	12
10	16	1
51	52	2
135	135	11
18	33	2
83	83	6
43	43	6
71	71	3
177	180	8
20	20	15
45	51	1
78	78	5
168	169	6
66	128	2
3	5	8
158	160	2
125	125	11
105	105	16
37	41	1
3	4	5
26	28	4
20	21	4
22	45	1
9	15	5
28	29	4
173	174	2
151	151	14
71	72	8
2	30	8
23	25	5
19	21	3
12	27	2
33	34	4
32	94	2
18	20	2
148	148	13
57	59	5
29	29	11
65	65	11
151	174	4
3	7	5
73	78	1
29	32	2
34	35	4
138	139	2
179	179	6
39	40	19
118	119	4
97	98	13
97	97	9
129	129	7
122	122	22
27	27	18
124	141	3
19	19	15
143	154	4
40	44	2
40	41	4
30	87	5
109	109	8
25	26	5
128	153	3
113	133	2
12	13	10
154	154	7
5	12	2
27	84	2
147	161	2
25	27	1
4	6	3
170	171	1
106	123	1
84	84	2
16	16	18
115	115	5
4	4	13
12	12	22
55	80	2
112	113	4
92	93	2
143	143	8
158	159	3
162	162	6
172	173	1
177	177	6
16	33	2
112	131	2
157	157	16
79	79	6
166	166	5
130	130	7
118	170	1
155	157	2
5	17	2
59	92	5
89	129	4
106	107	1
159	160	10
144	144	10
85	85	5
173	180	4
174	174	1
180	180	6
14	14	29
128	156	5
103	105	1
19	26	2
65	66	1
113	113	6
19	20	3
6	15	2
175	175	6
54	54	6
128	141	2
85	112	3
36	42	1
143	151	1
31	31	22
76	82	4
113	114	8
0	43	5
94	97	4
88	116	2
40	40	9
102	103	3
80	80	11
118	118	5
5	5	11
151	153	4
14	27	2
143	144	4
171	171	7
81	137	1
128	128	8
20	29	4
53	78	1
142	142	14
20	27	4
53	53	11
30	30	14
51	67	5
23	23	13
160	160	5
57	58	3
155	156	2
162	175	3
169	169	7
100	101	3
86	88	1
72	72	10
51	86	1
2	4	6
16	41	1
111	111	2
60	138	2
38	40	7
30	33	5
154	160	4
3	15	3
73	138	1
40	90	2
162	164	4
105	106	2
140	141	1
88	89	6
112	112	6
96	110	2
10	43	4
53	54	4
3	112	2
22	26	1
28	30	3
177	178	1
165	167	3
1	2	1
164	164	7
34	97	3
91	108	2
116	116	3
151	157	3
137	137	10
28	33	1
41	42	7
141	141	9
0	14	3
130	135	1
60	60	11
169	170	3
7	8	5
146	160	4
84	85	6
83	114	2
60	94	2
2	6	5
127	153	2
92	92	6
99	99	1
60	145	2
163	163	4
57	57	3
136	143	1
163	166	4
59	60	1
36	109	1
25	61	2
78	172	3
120	121	1
68	93	1
16	17	4
68	92	2
30	108	2
43	96	4
17	18	8
91	95	6
120	122	2
49	75	5
128	152	4
33	35	4
9	11	3
10	12	8
98	101	1
32	40	2
91	91	4
136	137	1
94	94	4
136	136	1
159	162	3
64	65	7
123	123	9
1	4	3
88	153	1
55	55	5
107	108	2
74	74	26
29	31	1
111	112	5
68	94	1
95	132	2
68	68	4
51	66	1
19	27	5
163	167	2
162	171	2
107	146	3
37	38	4
32	32	4
157	158	3
35	42	4
125	174	1
178	178	1
115	128	2
129	130	3
104	105	2
123	124	3
128	130	1
22	23	3
38	39	3
43	110	3
116	130	2
152	170	1
10	14	1
82	87	3
93	93	1
20	46	3
90	92	1
21	27	1
172	172	6
156	156	7
77	77	5
24	27	2
79	81	5
113	132	2
41	73	2
17	20	3
35	96	2
7	9	3
145	159	2
96	107	1
50	50	6
55	83	1
15	16	2
35	99	3
117	126	2
117	174	1
18	19	7
87	89	1
167	168	2
50	62	1
156	157	5
76	131	2
22	108	3
25	79	5
68	126	1
1	16	6
96	115	2
122	124	3
103	103	2
93	94	6
123	125	1
98	98	1
59	96	1
24	25	5
141	165	1
43	45	2
3	8	1
162	169	1
30	31	2
44	100	2
23	24	4
6	21	2
99	100	3
137	140	4
129	141	1
20	22	1
143	145	1
160	169	1
72	73	6
109	127	2
146	146	3
73	74	5
155	155	3
52	59	1
160	178	2
59	59	9
2	31	4
97	99	4
153	153	3
150	154	2
44	52	2
125	126	3
21	23	3
119	130	1
28	34	3
40	94	2
0	5	4
126	130	2
126	154	2
44	61	1
121	122	3
134	137	2
120	145	2
0	44	2
14	36	1
108	153	1
70	70	1
126	152	1
55	77	1
86	90	1
127	129	1
6	14	1
80	81	3
153	156	2
26	98	1
160	162	2
89	116	1
52	140	3
122	134	1
150	153	1
5	140	2
122	123	1
98	99	1
165	165	3
9	22	1
76	132	2
37	39	2
120	136	2
17	35	1
16	32	2
104	125	1
33	45	3
9	17	2
124	124	1
62	63	5
10	13	1
15	18	2
61	139	1
39	43	1
141	142	1
46	46	1
148	171	1
44	91	1
123	136	1
32	43	4
128	129	1
16	109	1
65	83	1
152	156	1
91	94	1
17	28	1
119	120	2
110	116	2
76	77	1
107	107	2
131	142	2
21	26	2
28	31	1
163	164	1
72	76	1
9	18	3
141	167	1
0	1	1
175	176	2
85	86	1
35	39	1
42	110	1
154	161	1
119	121	1
79	84	1
7	13	1
55	76	1
19	35	1
10	44	1
131	132	1
76	172	1
156	174	2
19	30	1
158	161	2
13	42	1
115	127	1
143	150	2
154	155	2
118	127	1
110	111	1
131	141	1
173	175	1
51	87	1
9	30	1
37	43	1
147	173	1
87	88	1
83	84	1
142	143	3
34	36	1
2	16	1
26	88	1
145	160	1
28	95	1
31	32	1
8	11	1
93	99	1
11	15	1
142	165	1
124	125	1
56	74	1
100	102	1
177	179	1
98	114	1
116	159	1
75	75	3
114	115	1
169	178	2
14	16	1
2	61	1
166	167	1
87	87	1
