96	96	12
59	59	11
30	30	15
95	95	7
3	3	9
82	82	19
67	69	3
45	51	3
19	58	2
118	118	13
71	71	22
101	102	7
24	25	5
26	26	13
50	50	9
72	72	15
14	14	8
47	47	6
128	128	4
1	2	9
60	61	3
77	77	13
88	88	12
54	54	17
71	93	2
54	55	3
51	54	3
0	1	4
21	21	20
66	68	5
38	38	11
68	69	2
94	94	12
43	43	18
109	109	5
60	60	2
106	110	3
8	8	15
107	107	19
103	103	11
101	101	7
20	66	4
108	109	4
91	92	4
112	123	1
45	46	2
104	104	17
67	67	6
24	95	3
23	23	11
15	15	6
113	113	9
83	84	18
25	25	8
119	119	16
62	65	4
11	77	1
58	58	8
121	121	14
87	87	7
100	101	8
74	74	18
16	18	7
7	11	6
111	113	5
66	67	4
69	71	2
27	27	15
56	67	2
10	11	5
52	55	1
112	112	12
133	133	19
99	99	18
83	83	8
127	128	3
70	70	11
117	117	9
57	65	2
128	129	10
16	16	10
114	114	13
78	101	3
37	37	4
80	80	10
114	118	2
116	116	14
124	124	19
29	31	2
107	108	6
17	18	7
120	120	19
130	132	6
63	64	5
122	122	21
131	131	9
123	124	5
130	130	26
123	123	11
3	85	1
102	103	2
65	65	17
126	126	21
36	36	9
97	100	6
67	70	1
5	6	3
98	99	4
111	111	19
3	4	9
85	91	1
66	66	12
110	110	14
65	66	5
71	72	5
73	73	14
105	111	2
32	72	3
102	102	19
25	57	1
20	21	1
15	16	3
69	69	7
31	73	2
58	59	4
44	54	2
36	37	4
20	20	10
83	85	3
0	0	8
84	84	5
52	52	15
75	75	17
58	110	2
116	117	8
108	131	3
70	71	4
28	52	1
13	13	10
93	94	6
80	81	4
9	9	6
42	46	3
90	92	3
110	111	7
125	125	10
127	129	7
93	93	10
42	42	4
129	129	16
24	24	11
10	10	23
44	45	5
45	45	11
70	82	2
114	116	6
121	122	3
90	90	14
2	3	3
127	127	10
6	85	1
53	54	3
68	81	3
106	106	21
54	56	5
33	33	2
100	100	10
78	78	11
61	61	6
18	19	5
52	54	10
105	105	6
106	107	4
118	119	5
133	135	5
55	55	5
64	64	16
17	17	8
6	6	5
125	126	2
76	76	9
82	88	3
13	15	2
85	85	15
108	130	2
98	98	16
7	68	5
79	79	8
115	117	5
92	93	4
97	98	7
21	63	1
57	57	4
65	67	7
102	112	2
17	36	3
120	121	17
98	100	1
110	116	3
53	53	10
11	11	8
132	133	6
32	32	8
81	81	1
86	87	4
92	96	1
2	2	6
64	66	2
115	115	24
98	117	1
34	71	1
34	34	5
134	134	5
129	133	1
35	35	17
94	99	3
50	59	5
99	100	6
123	131	3
109	111	4
7	81	1
71	94	2
117	119	1
47	49	1
68	68	6
10	14	2
107	132	1
48	54	3
9	20	2
122	123	7
119	120	8
86	86	12
117	118	7
100	102	4
18	18	3
16	77	1
29	30	7
7	8	5
116	118	3
4	5	5
63	63	6
106	111	2
90	91	3
49	59	3
64	67	1
69	70	4
82	84	1
126	128	5
36	116	1
48	48	1
110	122	1
62	62	7
87	88	4
135	135	4
14	77	3
22	25	6
80	93	2
12	13	2
106	108	3
34	35	1
43	45	3
116	120	1
61	93	6
7	7	2
104	129	2
28	28	4
36	38	1
113	124	2
105	127	3
102	105	1
12	12	3
22	23	1
16	54	1
97	97	7
94	103	2
68	85	3
6	7	5
88	89	1
130	131	3
42	45	2
109	130	3
69	73	2
83	122	2
31	31	6
84	95	1
61	94	2
22	22	4
4	4	6
9	61	1
110	113	4
82	86	1
43	88	1
19	19	4
64	65	9
129	130	2
56	56	11
126	129	2
16	19	2
95	96	6
44	44	6
84	85	6
89	92	2
28	29	5
31	33	3
27	28	5
33	34	2
115	123	2
50	54	1
62	64	2
111	116	2
79	105	2
72	75	2
108	108	8
77	78	4
78	98	1
97	118	3
78	97	1
17	55	1
126	127	4
68	88	3
23	24	3
91	91	2
106	120	5
111	112	10
25	102	3
75	76	1
112	124	2
26	77	2
49	60	2
89	90	6
80	106	1
81	88	2
109	110	8
73	75	2
105	112	6
113	115	6
116	121	2
57	58	3
103	126	1
98	102	3
108	112	1
5	5	2
5	69	3
98	106	3
35	36	3
57	59	4
19	20	2
112	116	2
113	114	3
103	104	1
133	134	1
16	17	1
118	131	1
87	95	2
9	21	2
1	5	1
66	93	1
89	91	2
83	123	1
115	116	3
79	80	5
55	58	3
29	29	2
59	60	2
16	43	1
7	79	1
30	31	2
51	52	2
89	89	3
88	120	1
50	52	7
24	60	3
93	96	1
30	58	2
80	92	2
84	87	1
62	63	5
124	125	3
114	115	6
67	68	2
96	97	3
123	135	1
58	60	1
88	124	2
82	83	1
78	127	1
79	81	2
132	132	7
78	99	1
99	132	1
72	73	2
14	15	1
19	66	2
55	56	1
32	33	3
72	78	4
92	92	5
25	101	1
81	94	2
75	88	1
94	95	1
110	120	1
31	72	1
99	134	1
25	96	2
84	96	2
79	85	1
14	54	2
9	10	7
117	122	1
37	42	1
119	121	3
46	47	1
110	114	2
78	79	1
31	35	1
19	68	1
79	106	2
57	61	1
78	96	1
76	79	2
110	124	1
77	103	1
62	66	2
7	78	2
76	77	3
134	135	3
52	53	1
131	134	2
42	43	1
131	132	1
8	78	1
85	96	3
27	76	3
15	17	2
116	122	1
49	49	1
94	98	1
56	57	2
111	124	2
11	12	1
69	82	1
45	47	1
77	97	1
21	23	1
61	64	2
56	59	1
11	16	1
3	37	1
3	19	1
1	3	1
43	44	1
107	131	1
1	1	1
22	59	1
86	95	1
82	85	1
22	33	1
34	38	1
22	69	1
8	17	1
11	17	1
104	105	1
30	32	1
80	96	1
22	61	1
78	80	1
