58	58	2
173	174	6
7	7	13
57	57	5
161	162	6
5	14	1
148	148	11
43	45	7
1	1	9
9	20	2
110	111	9
98	99	7
10	43	4
142	145	7
160	160	4
171	171	14
4	20	4
157	157	13
168	169	4
168	168	16
8	9	7
26	26	15
39	39	8
21	23	5
60	60	7
100	101	8
9	15	1
130	131	7
80	90	5
151	152	7
19	19	12
24	28	1
26	28	5
124	125	5
40	40	11
123	127	2
7	8	4
18	167	2
6	6	23
110	157	6
119	119	3
6	38	4
139	139	5
4	5	11
83	83	9
10	10	19
35	35	26
24	24	15
171	172	6
66	67	5
45	45	12
177	180	1
125	126	3
73	99	1
28	30	1
61	94	1
79	89	1
160	161	3
32	32	13
85	85	5
38	38	9
81	81	3
148	149	3
172	172	5
152	153	1
28	28	15
30	30	4
14	15	7
11	23	5
141	141	5
92	92	3
122	122	5
16	18	7
133	133	15
120	120	6
52	52	3
166	166	10
114	114	13
29	29	6
84	84	1
37	38	4
13	14	9
25	26	5
16	20	3
66	79	1
86	87	4
8	8	11
115	121	3
149	149	12
118	119	2
16	17	4
77	77	5
9	9	8
127	127	2
3	5	1
17	17	16
40	41	5
132	132	9
52	53	1
25	25	5
169	169	3
17	19	4
97	97	2
54	60	2
91	93	2
170	170	8
99	100	8
38	39	5
75	81	3
20	20	6
51	51	5
63	63	7
96	96	2
68	140	1
167	167	7
34	34	9
43	43	4
125	125	3
5	27	2
19	22	5
179	179	3
177	177	5
9	33	3
108	131	2
13	13	19
82	86	2
89	89	13
163	170	2
176	176	9
33	33	18
42	42	12
95	95	11
173	173	4
78	78	10
5	5	10
56	59	3
158	158	9
123	172	1
49	51	1
162	162	8
154	160	2
144	145	3
11	19	2
54	55	2
28	29	5
133	134	4
101	101	5
81	123	2
121	122	2
140	140	6
3	3	5
12	13	4
39	40	12
145	145	9
80	80	7
94	97	3
120	121	6
76	77	9
11	11	7
161	166	1
59	59	5
139	140	4
87	92	5
124	124	3
134	134	4
13	117	1
128	129	5
72	72	8
18	19	4
156	157	3
92	132	2
88	89	6
54	65	1
136	136	6
101	105	3
44	44	6
164	167	2
91	91	2
113	113	4
22	22	11
112	112	3
71	71	5
66	66	2
107	109	3
23	35	1
165	165	12
146	146	8
111	113	6
153	154	5
157	158	3
159	162	4
64	64	6
108	108	9
62	63	9
30	31	4
159	159	5
134	175	2
61	61	7
3	7	3
2	2	18
82	84	1
87	99	5
85	88	2
106	106	4
4	4	14
14	14	10
12	12	3
53	54	3
86	92	1
122	171	1
110	110	2
40	42	1
68	68	8
131	131	6
37	37	5
18	18	6
54	54	14
20	22	2
136	137	3
152	154	1
117	127	1
16	16	6
24	26	3
25	32	1
0	0	8
73	98	1
23	23	16
154	154	2
7	22	1
83	87	3
18	21	2
151	151	2
85	99	2
151	154	3
163	163	6
169	170	4
102	114	1
121	124	1
34	36	4
146	171	4
83	84	1
155	155	13
6	11	4
10	11	11
144	164	1
178	179	4
1	10	1
151	153	1
50	64	2
98	98	5
117	129	2
115	163	4
15	15	3
121	121	1
110	150	1
31	31	3
118	122	3
94	98	1
9	46	2
161	161	4
19	20	5
180	180	3
92	93	4
90	90	3
9	22	3
126	126	4
159	160	1
11	12	10
37	39	2
117	130	1
87	89	1
0	1	1
65	91	3
94	95	4
88	88	8
102	102	1
144	144	5
165	166	2
55	55	4
56	56	3
175	176	2
6	8	4
98	101	1
42	43	2
50	50	2
75	75	3
12	41	1
123	125	2
13	36	2
128	128	3
63	67	1
154	156	2
11	174	2
29	30	2
79	79	10
22	34	1
65	78	4
123	123	4
90	91	4
11	15	3
88	96	3
153	153	6
54	61	6
111	111	3
13	15	4
143	143	11
80	81	4
174	174	2
123	124	6
146	150	4
141	147	2
87	87	8
146	147	2
91	94	1
80	89	1
55	56	5
99	107	1
67	68	1
114	118	2
3	44	2
164	164	4
125	129	1
42	62	1
104	104	4
175	175	6
31	33	3
155	156	6
67	78	3
142	146	2
34	35	4
115	118	3
10	33	2
86	86	4
15	16	3
23	36	2
3	4	5
11	13	2
58	59	2
78	88	2
41	41	9
118	118	3
73	73	2
50	53	1
129	129	5
75	78	6
50	51	2
163	164	1
5	30	1
5	7	4
143	150	1
107	108	5
136	175	3
21	21	2
119	120	1
107	107	5
92	102	2
71	72	5
116	117	2
114	164	1
39	122	3
17	23	2
52	84	1
147	148	6
99	99	4
156	159	2
2	9	3
120	128	2
127	128	1
143	145	1
114	115	1
89	91	3
147	150	2
132	133	6
19	23	2
63	68	2
35	36	3
100	100	5
45	62	2
57	59	1
150	177	2
75	76	3
175	178	2
155	160	2
160	162	9
49	49	3
33	35	1
172	174	4
160	164	2
160	169	1
118	125	1
60	61	5
61	70	1
102	130	1
111	114	3
130	130	4
33	34	4
4	17	3
68	71	2
74	75	2
15	17	1
32	33	2
135	135	1
9	21	1
103	104	4
150	150	3
7	20	5
141	171	3
177	179	3
156	158	4
65	66	1
17	44	3
102	142	2
142	142	10
178	178	1
44	45	1
109	109	3
32	34	1
5	6	4
93	93	2
142	143	5
113	114	3
4	18	1
17	174	1
27	28	3
12	19	2
102	104	1
65	65	1
104	105	2
156	166	5
106	107	2
6	25	4
97	98	3
103	103	1
110	141	1
27	27	3
19	33	2
142	150	1
150	151	3
17	18	1
89	94	1
31	32	3
174	176	1
90	93	1
27	30	3
75	82	1
36	36	2
117	118	2
154	155	3
82	82	7
115	116	2
91	92	2
105	105	3
142	157	1
36	39	4
11	16	3
38	41	1
137	138	1
62	62	3
147	147	2
41	42	4
55	57	1
16	23	1
39	41	1
6	7	2
27	31	2
101	106	1
166	167	1
2	8	2
149	150	1
146	170	2
36	37	3
170	171	1
117	117	2
2	6	2
18	20	2
19	30	1
59	93	1
71	73	2
101	102	1
13	16	1
82	127	1
29	45	1
177	178	1
21	33	1
109	110	1
23	24	1
41	102	1
101	110	1
9	11	2
10	14	1
16	21	2
13	174	1
3	21	2
2	20	1
76	76	2
7	9	2
64	65	3
109	111	1
18	23	1
43	44	2
122	123	1
38	58	1
81	122	1
112	114	2
124	129	2
102	103	1
137	172	1
165	168	1
78	149	1
14	16	1
42	45	2
84	85	1
137	137	1
102	106	1
55	59	2
169	174	1
81	86	2
73	111	1
37	40	1
77	78	1
156	156	1
166	169	1
112	145	1
152	152	2
143	144	2
28	33	1
71	147	1
38	44	2
57	58	1
6	9	1
160	163	1
138	138	1
5	15	1
115	115	1
24	25	1
4	11	1
53	53	2
150	163	1
80	93	1
114	117	1
26	27	2
1	43	1
63	64	1
5	8	1
172	178	2
22	23	1
94	94	1
67	67	1
66	68	1
1	21	1
12	16	1
164	165	2
