152	155	1
0	17	3
98	98	9
66	66	6
101	101	2
151	152	3
56	57	5
112	112	8
21	22	2
23	23	17
54	54	8
109	109	12
100	107	1
8	9	5
152	152	10
14	14	16
8	47	2
105	105	13
26	27	6
100	102	3
99	99	5
50	50	8
155	156	4
49	50	3
70	79	2
127	127	5
7	152	4
18	18	9
10	10	11
160	162	6
70	103	4
105	106	5
119	119	9
137	137	7
79	80	5
141	141	2
51	51	5
135	135	5
4	4	8
130	130	14
2	55	4
7	7	4
142	142	5
114	114	9
123	124	8
147	147	8
5	14	4
97	97	3
0	112	3
22	24	7
65	107	1
16	16	10
76	79	1
34	34	20
41	57	2
126	127	2
17	17	14
157	158	5
58	58	2
11	12	1
38	44	5
63	97	3
45	45	8
72	85	2
78	78	6
105	125	2
71	71	7
68	68	3
94	94	4
23	24	4
110	110	7
76	80	4
145	146	1
148	148	13
70	70	6
72	72	5
166	166	2
145	145	7
44	44	8
43	44	6
19	19	9
34	35	4
3	3	4
24	25	3
115	116	8
111	112	4
64	64	10
36	42	1
96	96	5
150	151	2
5	5	7
48	49	5
140	140	8
46	46	6
56	56	14
7	16	2
128	128	13
58	69	4
35	35	11
85	85	8
12	12	11
62	62	3
47	48	1
88	88	6
132	132	7
134	134	4
100	100	4
107	107	4
18	20	1
151	155	2
66	108	2
0	75	1
88	90	7
36	36	3
90	91	3
66	67	4
81	81	2
154	156	3
28	28	6
0	18	2
43	43	8
14	15	6
122	123	7
137	138	2
2	2	9
18	48	4
18	21	2
35	57	3
151	157	2
63	75	1
17	18	1
116	116	23
129	129	4
161	161	6
162	162	3
139	142	3
20	105	3
83	83	2
109	147	5
51	83	3
101	102	1
143	144	4
158	158	2
0	1	5
125	126	3
113	120	13
125	125	10
10	11	1
37	37	4
39	97	2
6	6	13
15	15	6
38	47	4
168	169	3
13	13	5
37	38	1
22	104	1
54	55	6
168	168	3
85	86	2
33	33	1
111	111	7
144	144	2
160	161	2
84	86	3
159	165	3
76	77	1
118	118	5
61	62	1
159	159	4
105	121	2
7	8	1
5	6	2
87	87	4
106	106	3
16	17	4
49	117	1
164	164	6
45	110	3
20	23	1
117	117	3
151	161	1
143	148	1
16	117	3
149	149	9
39	68	4
131	131	6
26	26	4
53	53	9
72	78	1
6	44	3
123	123	8
157	157	6
54	97	2
139	143	3
121	165	3
113	113	7
94	95	3
146	146	4
76	76	1
1	1	3
136	136	6
150	150	6
0	54	2
69	69	7
47	50	2
84	85	1
27	27	3
39	67	2
63	68	4
41	110	2
108	108	5
74	74	7
50	93	1
21	23	3
75	90	1
16	18	2
82	82	2
3	11	5
38	38	7
67	67	2
78	82	2
155	155	2
8	8	4
106	112	2
51	52	3
77	78	1
20	21	8
24	24	5
13	15	2
151	153	2
100	101	2
51	117	5
3	7	5
52	52	5
25	25	10
80	80	1
101	106	1
114	121	3
150	163	3
19	24	2
143	143	5
52	132	2
111	133	1
42	42	6
93	93	9
153	159	2
135	136	1
69	70	7
40	112	3
103	103	3
27	28	1
76	78	1
0	2	1
87	88	3
151	151	3
147	166	4
49	49	3
110	138	1
144	145	1
32	32	1
11	11	7
20	20	6
23	48	1
44	84	2
154	154	3
48	92	2
75	75	5
133	133	5
25	128	3
42	43	5
153	153	2
53	54	2
67	69	2
115	115	2
163	164	3
62	114	2
48	48	2
21	47	1
24	26	2
163	163	2
21	24	1
52	106	2
112	113	6
106	132	1
74	78	1
55	55	7
73	73	1
124	147	7
16	151	1
162	163	2
102	102	2
21	21	4
168	170	5
147	148	2
64	108	3
46	51	4
24	160	4
55	111	3
128	129	3
63	74	5
129	166	1
55	56	3
7	47	1
15	16	2
124	125	3
9	9	6
63	70	1
88	89	4
115	118	4
0	0	1
116	118	1
52	86	1
10	136	1
90	90	3
22	23	1
1	2	2
6	7	5
47	47	2
13	36	2
104	104	3
54	64	3
51	62	1
154	164	1
33	36	1
37	48	1
128	166	5
92	95	1
57	57	1
124	124	2
86	87	2
76	82	2
115	117	1
89	89	3
79	79	1
90	96	3
117	118	1
10	18	2
160	160	3
91	95	2
22	22	2
39	39	1
1	38	1
132	136	1
45	106	3
160	164	1
5	81	2
58	62	3
3	102	3
123	126	4
39	96	1
25	130	1
159	162	1
9	10	1
50	68	1
20	48	1
86	169	1
24	104	1
65	66	3
54	76	2
41	105	1
19	20	1
22	111	2
57	63	3
51	76	1
122	122	2
86	86	1
44	58	3
161	163	2
161	164	1
9	52	1
165	165	1
57	115	1
20	63	1
47	49	1
130	166	2
120	121	1
51	94	2
156	156	1
34	97	1
120	120	1
89	97	2
72	87	1
155	158	1
40	40	1
92	93	1
78	79	1
0	40	1
85	97	1
12	13	1
92	92	1
148	149	2
36	46	1
169	170	1
45	99	1
55	74	1
122	148	1
58	63	1
45	100	1
70	71	1
13	14	1
151	158	1
169	169	1
64	103	1
