1	5	3
45	46	6
36	36	7
161	161	16
145	148	3
56	56	2
15	15	10
120	120	4
126	126	9
70	70	3
69	72	1
9	101	5
84	84	2
19	19	13
133	133	13
169	169	7
4	4	3
80	110	4
54	55	4
106	112	4
109	109	10
157	157	8
6	6	7
87	87	4
114	115	1
1	1	11
109	110	14
160	161	1
154	154	6
0	2	3
145	145	1
169	170	3
44	45	3
27	28	5
81	81	3
115	137	2
28	28	12
97	98	2
184	184	7
2	26	2
115	115	10
78	86	1
168	192	4
155	156	3
80	80	10
24	24	9
161	168	4
9	9	6
15	18	3
185	185	6
52	55	2
101	101	4
88	89	1
17	19	2
194	194	19
97	97	17
98	98	6
51	51	5
58	59	3
38	66	1
139	141	1
180	181	3
183	183	16
163	163	6
167	167	3
45	45	7
34	36	1
19	20	1
143	144	6
55	56	2
22	100	2
156	156	6
140	140	9
71	72	2
55	55	4
183	184	1
100	100	12
164	170	4
48	48	6
99	148	3
123	135	2
105	105	14
43	43	11
164	165	6
122	122	6
21	41	3
6	7	8
160	167	1
189	197	3
146	149	2
164	168	2
166	168	6
186	187	3
149	149	7
67	67	3
47	47	10
12	12	5
168	170	2
39	40	6
50	50	6
112	118	3
11	11	10
105	107	3
189	190	1
161	162	2
173	176	1
181	181	3
173	173	6
49	49	8
98	99	4
103	103	8
165	166	2
58	136	2
62	62	9
21	21	15
58	73	1
112	112	6
179	181	2
192	192	6
102	102	5
178	178	7
172	173	1
128	128	4
13	42	2
38	41	3
145	178	3
182	182	6
142	146	5
47	48	5
25	26	7
136	136	4
186	186	12
16	16	7
101	119	2
58	61	2
141	141	2
112	116	3
144	144	5
168	171	4
175	175	6
156	157	4
119	119	4
190	191	4
5	8	3
101	122	1
20	20	4
171	171	16
113	120	2
66	66	2
179	179	4
150	151	3
69	70	7
34	35	7
174	176	3
177	177	10
38	38	4
175	178	5
162	163	1
79	79	1
2	27	1
146	148	3
59	60	1
99	99	4
137	140	3
0	5	1
174	174	9
131	131	2
51	52	2
30	30	4
147	147	4
86	106	2
9	43	3
36	37	2
23	23	1
137	139	3
155	155	3
19	32	2
8	10	3
65	65	3
17	17	3
7	7	3
46	46	6
12	20	1
172	172	5
37	37	5
8	8	3
159	159	5
34	38	4
153	180	4
23	27	2
190	196	3
71	71	1
18	18	6
190	190	3
124	130	5
169	176	2
188	188	7
135	136	2
31	31	16
94	101	4
19	68	2
149	150	5
139	139	3
118	118	6
157	158	1
88	88	4
59	59	9
158	158	8
77	77	2
23	25	3
108	109	2
192	194	1
48	49	4
149	151	1
34	168	2
158	181	1
118	139	1
129	129	5
192	193	3
135	135	5
151	155	1
177	178	13
164	164	3
189	196	1
66	171	5
140	151	2
116	116	7
104	104	5
8	9	1
111	111	2
41	60	1
146	146	7
94	94	2
153	153	11
166	166	10
42	42	2
102	103	3
193	194	3
62	64	2
60	163	1
166	194	5
118	152	1
74	74	4
83	83	3
101	103	1
124	188	3
75	75	1
44	44	10
187	187	10
145	177	1
64	64	2
66	169	1
28	29	3
130	137	3
131	132	2
170	170	3
168	168	8
81	109	1
129	196	2
132	157	1
37	51	1
105	106	2
137	137	3
40	41	1
3	13	3
158	159	4
83	84	3
170	175	1
11	14	2
22	26	2
52	52	2
4	5	1
41	41	7
169	181	2
149	193	1
0	0	5
142	142	8
86	87	3
52	53	2
0	1	3
124	125	4
5	9	1
141	148	3
61	132	2
138	138	5
93	149	1
152	153	2
53	56	4
134	135	2
171	172	5
195	195	5
50	52	1
159	165	1
3	3	8
132	132	6
53	57	2
46	52	2
195	196	3
84	85	1
5	7	2
25	27	2
132	133	7
197	197	2
41	42	2
172	192	1
32	32	3
29	29	5
169	194	1
53	53	1
63	63	3
148	149	2
8	33	1
160	160	5
113	117	3
74	168	1
102	104	1
150	150	6
58	58	3
165	165	4
11	20	3
141	142	1
70	71	1
185	188	1
143	143	2
26	26	4
191	191	6
182	183	4
34	34	3
146	147	4
38	39	2
58	115	1
194	195	3
121	121	3
193	193	4
191	192	6
190	197	2
126	151	1
22	24	2
35	35	3
2	2	2
9	10	2
106	110	1
170	172	1
68	73	1
95	95	4
40	40	2
151	151	6
69	69	2
148	148	5
86	86	2
119	129	3
196	196	7
82	82	1
156	168	2
144	169	1
10	21	2
40	42	2
72	169	1
47	50	4
189	189	4
122	123	1
34	73	2
24	25	1
180	180	2
45	55	3
22	22	1
18	26	3
158	180	2
113	150	2
63	64	3
126	161	1
85	105	3
170	179	1
107	107	3
115	182	2
63	88	1
104	108	1
156	166	1
57	57	3
110	111	2
130	139	2
9	42	1
111	112	2
14	14	9
174	175	1
171	189	2
5	5	1
53	54	2
143	167	3
181	182	1
65	67	3
121	123	1
140	141	1
130	153	1
30	31	2
155	181	1
108	108	1
165	167	1
131	144	2
27	27	1
40	46	2
38	73	1
167	169	1
176	178	1
42	44	1
110	110	2
158	184	2
154	179	2
4	10	3
5	6	1
182	197	2
111	116	1
0	21	1
39	39	1
108	111	5
54	109	1
154	180	2
80	82	1
8	99	1
129	135	1
171	176	2
78	79	3
144	161	1
134	134	1
147	148	2
93	98	1
140	148	1
180	182	3
9	37	2
32	33	1
1	2	2
43	45	1
142	143	2
12	13	1
114	114	1
75	77	1
4	48	1
157	192	1
160	177	2
115	117	1
10	11	1
14	42	1
106	106	1
2	3	1
136	137	1
116	118	1
67	69	1
160	178	1
36	39	1
1	19	1
36	38	2
4	21	1
141	193	1
163	168	1
25	25	1
130	131	1
138	139	2
158	176	1
107	108	1
15	42	1
158	161	1
95	97	2
173	174	2
152	152	1
156	183	2
142	144	1
99	138	1
99	101	1
6	8	1
81	82	1
54	54	1
127	128	1
79	80	1
82	84	1
172	187	1
20	21	4
19	100	2
177	184	1
138	141	1
45	53	2
166	167	1
144	155	1
102	105	1
69	79	1
118	130	1
165	174	1
109	111	1
89	89	1
33	36	1
14	17	1
99	109	1
3	20	1
