192	211	1
9	10	2
179	179	18
15	15	15
204	236	2
220	221	2
232	232	8
88	88	13
110	246	2
113	113	14
238	239	4
197	197	15
205	205	14
212	212	19
89	89	16
102	102	10
215	245	4
185	192	1
199	200	14
76	77	2
164	165	6
69	70	6
78	78	21
31	31	5
52	52	16
26	26	19
163	164	6
18	18	4
50	50	13
81	81	5
91	91	8
78	87	2
113	114	15
111	111	16
235	235	9
54	55	3
217	218	8
9	201	3
42	43	4
183	183	11
150	163	2
228	228	9
229	229	14
211	213	3
117	146	1
48	49	3
66	66	12
90	92	5
35	239	3
12	12	20
245	245	15
224	228	3
160	160	15
82	83	2
17	17	3
116	116	8
203	204	11
211	212	6
80	82	4
227	227	12
75	100	5
209	212	4
108	223	2
24	24	11
112	112	17
115	115	10
29	30	4
203	203	15
179	187	1
151	151	19
22	22	6
230	231	8
14	15	10
218	218	10
32	32	8
211	211	11
34	35	5
35	35	9
174	174	7
162	163	5
34	34	21
225	225	4
20	20	9
23	156	2
58	58	29
214	218	2
97	97	12
241	242	13
171	172	7
175	175	28
120	120	14
157	157	11
25	26	4
170	170	12
207	207	11
62	62	13
86	145	2
220	220	12
208	209	7
75	77	5
46	47	3
163	183	1
88	89	5
184	185	4
78	79	7
97	99	1
204	204	15
118	118	9
186	212	4
217	217	4
240	240	22
22	36	1
116	117	3
182	182	19
52	54	2
37	38	6
190	213	5
56	56	6
168	182	4
192	193	7
111	245	5
246	247	3
160	163	3
52	116	1
83	83	7
166	166	15
38	40	3
40	40	10
104	105	2
43	43	18
154	154	15
7	8	3
54	117	7
57	57	8
111	244	2
222	222	5
181	193	2
85	85	14
174	175	3
164	164	20
4	5	7
114	114	22
156	156	20
71	72	2
68	68	8
99	99	6
150	151	7
220	243	3
33	33	20
55	55	5
69	69	5
77	77	6
44	44	9
206	206	5
19	19	16
95	95	15
156	157	9
73	73	18
146	146	6
195	195	11
233	233	5
165	166	8
176	182	1
117	165	1
2	3	4
191	191	11
16	45	3
197	198	3
27	27	14
145	145	5
33	34	5
158	196	1
61	61	11
247	247	8
11	11	18
58	59	2
223	224	3
8	9	7
90	90	6
51	52	1
62	65	6
193	196	4
219	219	7
242	243	7
16	49	2
208	208	4
172	172	19
75	113	2
230	230	18
178	181	1
74	74	4
185	186	3
176	177	5
6	7	1
181	181	18
168	168	25
16	16	3
161	161	11
149	149	3
201	201	21
49	50	8
223	223	17
159	159	19
87	88	6
171	171	10
60	60	12
226	226	15
150	150	19
231	231	7
155	155	15
20	154	2
162	162	7
151	183	2
239	239	14
30	31	9
72	72	11
165	169	3
49	49	11
108	108	7
212	219	8
152	152	12
248	248	14
87	87	11
167	167	11
77	78	6
174	227	2
61	62	12
221	243	3
174	202	2
0	0	1
27	153	5
7	7	18
3	223	5
67	67	5
171	183	1
3	3	3
118	119	8
170	171	5
46	46	7
23	23	13
10	11	3
168	169	6
247	248	2
19	152	2
240	241	2
225	227	3
189	189	4
205	206	2
207	244	2
119	119	10
90	101	2
67	68	7
6	6	18
8	8	9
28	28	8
207	241	1
186	196	2
41	42	2
200	200	8
53	53	16
70	85	2
213	213	6
94	94	12
176	176	10
189	195	2
218	219	3
48	84	2
96	96	8
5	224	5
1	1	5
172	183	4
175	178	2
10	104	1
179	180	4
244	244	15
184	184	17
227	228	6
38	38	4
49	211	3
93	93	7
189	191	3
118	246	5
46	65	2
180	180	5
47	47	11
169	170	3
178	203	2
178	183	2
25	25	9
5	5	6
10	10	12
65	65	11
45	45	11
16	155	2
9	54	2
30	30	14
189	212	3
59	59	17
42	42	10
31	233	3
85	94	2
248	249	6
159	184	3
104	104	4
86	86	15
188	188	9
205	212	4
4	6	2
216	217	11
106	106	2
111	120	1
174	186	3
81	98	2
215	216	2
39	39	8
160	161	3
234	234	4
64	64	12
84	85	13
194	194	7
178	178	21
121	121	1
198	199	4
178	179	3
29	37	4
110	113	2
37	37	9
107	107	2
190	208	2
244	245	3
180	181	6
205	234	3
215	215	8
243	244	3
109	110	2
112	114	1
40	41	3
58	66	2
180	204	1
29	29	3
177	177	26
238	238	8
31	41	2
214	215	5
213	214	7
243	245	6
41	41	4
192	217	4
66	67	6
14	14	13
92	93	6
165	165	6
221	221	4
16	52	2
9	9	9
163	163	13
80	191	2
94	99	3
146	202	2
186	186	16
98	98	16
219	233	1
33	152	1
178	194	2
89	90	4
185	185	17
76	76	3
187	187	2
147	202	2
46	48	1
109	109	16
210	211	10
53	115	1
210	210	14
64	90	1
196	196	15
202	202	13
54	54	6
209	209	8
95	96	5
101	101	10
60	114	2
157	159	4
113	118	3
192	192	14
235	236	1
100	101	2
230	236	2
168	171	2
241	241	7
173	176	3
102	105	2
153	153	14
52	53	2
71	87	3
79	80	7
198	198	13
51	51	6
79	79	7
55	57	2
92	92	10
195	196	2
194	210	3
113	115	1
75	75	3
2	2	12
182	193	2
186	187	2
39	40	8
173	173	10
17	30	3
219	220	5
236	236	10
63	63	9
197	199	2
172	173	2
110	111	7
36	36	14
206	207	4
176	181	3
198	206	2
167	169	3
84	84	2
166	167	4
151	153	2
20	153	1
152	203	2
82	85	1
47	48	2
242	242	7
177	226	1
31	42	2
231	233	1
35	36	2
159	163	1
213	215	4
56	57	6
169	172	1
55	94	2
229	230	8
47	49	2
57	80	1
18	19	6
157	241	4
149	152	1
231	247	2
220	222	3
182	199	3
179	223	1
219	222	4
112	118	1
90	100	2
198	200	1
6	8	1
15	16	3
205	207	2
173	174	3
68	69	2
97	98	6
215	242	2
65	67	3
179	200	1
167	168	5
209	210	9
55	62	1
180	193	1
81	82	5
96	238	2
9	53	2
80	83	2
112	113	1
193	193	16
224	224	10
110	110	11
237	237	4
18	98	3
177	229	1
183	184	4
146	194	2
102	103	3
61	117	2
171	187	2
223	233	1
243	243	5
179	183	3
185	191	1
101	102	2
67	69	3
233	234	11
189	190	3
161	162	4
57	62	1
190	190	6
37	39	2
230	234	1
48	48	18
169	176	1
100	100	3
21	23	1
193	207	4
75	76	4
38	39	4
246	246	7
116	188	2
115	246	2
72	75	2
85	86	6
237	238	1
191	192	3
70	70	1
212	214	3
65	66	5
94	95	1
90	180	3
57	58	3
175	184	4
80	80	3
155	234	1
165	175	1
202	203	3
233	247	1
27	53	2
21	21	4
74	75	1
227	229	1
105	105	2
222	223	3
165	181	3
26	46	2
86	97	3
117	117	3
198	202	2
147	147	4
118	245	2
4	19	1
178	182	2
155	156	3
182	185	4
145	155	2
165	176	3
190	191	12
204	231	1
177	181	1
160	162	4
71	71	13
178	215	1
6	39	3
171	213	3
103	103	3
144	179	1
215	218	2
93	95	1
219	241	1
221	222	5
87	89	1
236	237	6
117	118	3
4	4	9
199	199	3
44	155	1
158	158	6
191	214	1
28	29	3
111	112	2
119	120	1
26	27	1
114	115	3
19	20	1
84	99	1
38	54	1
14	34	2
147	234	2
20	155	1
226	227	1
49	85	3
181	221	2
17	31	3
214	214	8
156	184	1
71	84	2
176	227	1
193	210	2
207	215	1
157	193	2
60	73	1
27	28	4
153	155	1
188	189	3
111	246	1
75	114	1
30	37	1
110	171	2
82	82	2
149	201	2
220	228	2
207	212	1
232	233	1
204	205	2
48	50	1
200	202	1
173	175	2
106	116	1
107	172	4
179	181	1
65	68	3
33	35	1
210	247	2
91	92	2
181	182	4
21	22	2
20	21	4
238	240	1
231	234	2
216	216	4
118	120	1
215	243	4
16	31	4
172	179	1
169	169	2
28	43	2
220	233	3
152	158	2
99	100	3
205	213	3
7	223	2
90	91	5
72	73	4
1	226	2
175	176	2
193	194	3
194	209	1
24	25	1
219	236	1
11	12	3
166	182	1
79	87	1
146	147	1
152	153	4
45	46	1
22	42	1
165	182	2
109	117	2
201	202	3
73	74	3
48	58	1
197	208	1
73	78	2
22	27	1
58	61	1
29	36	1
110	114	1
167	197	1
159	161	2
164	241	2
200	201	2
170	182	1
8	58	1
179	201	1
32	222	1
224	225	1
49	76	1
153	159	1
115	196	1
218	220	3
225	226	1
158	217	1
178	225	1
12	15	1
48	57	2
91	93	1
54	84	1
167	198	1
207	208	2
153	154	3
59	184	2
242	244	1
228	229	6
111	119	1
64	67	1
21	24	1
86	87	2
95	98	2
183	193	1
44	45	1
150	159	1
99	103	2
96	97	1
5	6	2
191	207	1
78	226	1
239	240	2
75	99	1
108	110	4
166	169	1
60	61	1
93	98	1
144	206	1
107	108	3
212	213	2
170	174	1
12	35	1
220	223	1
207	213	2
94	97	1
70	71	2
109	115	1
55	68	1
151	184	1
222	235	1
193	216	1
10	12	1
167	183	1
71	86	1
234	235	1
18	30	1
157	184	1
1	2	1
225	230	1
165	170	1
173	186	1
108	109	1
169	174	1
59	60	1
63	92	1
221	234	1
11	46	1
79	82	1
46	66	1
67	88	1
193	205	1
108	236	1
210	212	1
55	117	1
14	30	1
0	1	1
