5	6	4
69	69	8
21	22	2
162	162	6
58	58	1
76	85	5
38	46	2
45	45	13
79	81	1
102	102	8
34	34	16
112	112	24
150	164	3
136	136	9
157	159	2
83	83	11
110	110	3
27	56	1
46	47	5
85	85	5
151	151	4
147	148	6
44	44	6
2	3	4
85	86	5
134	134	11
23	24	1
155	156	1
98	113	4
119	119	5
82	82	7
40	40	9
25	25	11
139	139	5
84	84	13
34	35	7
38	38	7
56	56	7
88	88	6
100	104	4
168	169	2
123	142	3
39	39	5
49	50	4
48	48	8
145	146	5
143	143	7
1	1	9
163	163	4
107	108	10
137	137	5
14	14	5
99	99	4
49	54	5
4	4	7
20	20	6
124	125	4
24	24	9
21	21	4
96	96	10
65	67	3
13	13	11
15	15	8
12	12	3
91	94	3
122	122	7
37	37	10
81	81	3
2	2	7
22	23	3
158	158	6
70	70	5
126	126	2
101	104	3
2	134	1
150	150	5
86	86	6
11	13	8
95	95	4
41	41	9
156	156	9
140	141	3
113	159	2
150	163	3
142	142	1
53	54	2
77	78	1
11	12	3
100	100	6
144	145	7
102	106	5
105	105	6
152	152	9
8	9	5
54	56	4
47	47	3
115	115	14
3	131	4
49	49	10
3	3	1
72	73	5
18	21	3
42	42	17
148	148	8
1	2	4
6	53	6
58	104	2
3	4	3
102	105	2
91	97	5
119	123	4
52	52	5
27	27	6
76	83	1
26	26	2
141	141	10
124	124	5
107	107	10
20	22	3
114	114	7
33	35	4
22	22	5
96	97	3
7	7	9
108	108	6
50	51	6
125	129	1
36	36	18
145	145	5
161	161	2
153	154	1
66	66	7
101	101	8
74	74	5
152	162	1
91	91	5
113	113	9
18	18	2
99	100	3
14	15	6
43	44	5
22	46	3
103	104	1
75	75	1
8	8	6
78	80	2
10	10	8
19	19	5
143	144	3
43	43	9
75	84	3
117	119	2
47	49	6
114	115	1
94	94	1
80	80	10
35	35	11
73	75	3
154	162	3
159	160	2
22	49	1
147	147	4
120	120	6
17	17	12
78	78	11
48	49	3
90	90	9
165	168	3
45	120	2
89	89	4
77	77	3
5	5	5
72	72	4
133	154	1
17	18	1
57	57	8
169	170	5
94	119	3
97	97	10
64	64	3
51	51	4
5	24	2
163	164	4
149	150	4
43	53	1
78	79	2
104	104	6
37	47	3
109	110	1
9	10	2
91	93	1
93	93	10
111	111	7
131	131	5
74	79	1
75	87	3
25	26	4
50	50	4
92	92	6
42	43	1
153	160	1
38	39	1
20	23	1
153	165	1
121	121	8
35	36	4
140	140	2
53	53	8
133	133	3
56	58	1
33	33	8
6	10	4
62	62	5
21	23	4
118	118	5
162	164	1
53	55	2
105	106	3
130	166	1
72	86	1
54	54	3
84	87	4
65	65	4
10	12	2
161	164	2
25	27	1
138	138	5
73	74	5
112	166	2
55	56	5
132	154	3
1	135	1
167	167	3
39	40	2
41	169	2
144	144	4
67	68	2
134	135	7
22	27	2
55	55	10
163	168	2
113	114	2
58	101	3
117	121	1
74	83	1
73	73	4
139	140	1
146	146	4
132	133	3
83	84	7
12	20	1
157	167	1
128	128	5
39	118	2
92	119	1
65	66	2
88	89	2
71	71	6
45	95	1
57	69	2
119	121	2
71	72	6
3	170	4
9	54	2
19	23	2
166	166	1
123	124	2
16	26	2
79	79	3
75	89	1
91	92	2
88	90	2
57	71	2
131	153	2
91	96	2
9	9	3
55	73	7
94	95	2
62	77	3
84	86	1
110	111	3
68	68	3
28	28	3
106	106	11
165	165	4
98	99	2
10	11	2
116	123	1
93	96	2
153	156	1
135	136	3
27	28	3
97	115	4
23	51	2
48	77	4
76	76	3
120	156	1
21	28	4
58	63	1
74	87	1
23	23	6
86	87	2
36	90	4
57	68	1
38	47	2
169	169	2
125	125	12
96	112	2
80	81	1
24	37	1
134	155	1
0	3	2
75	86	5
76	77	3
46	46	6
69	70	1
101	102	2
89	99	2
87	87	5
95	97	1
99	108	2
65	73	1
108	169	4
168	168	2
44	45	5
86	100	1
37	161	2
154	155	2
148	162	2
81	82	3
159	159	3
37	41	1
93	113	1
103	103	1
16	16	3
17	19	1
47	48	1
98	98	3
79	80	2
154	156	1
162	165	1
0	4	1
106	107	3
50	52	1
33	159	1
157	158	1
153	153	1
135	135	2
0	0	3
11	11	1
96	98	2
57	62	1
86	89	1
79	82	1
153	155	1
102	103	2
80	83	2
19	146	1
148	149	2
112	114	2
10	53	2
149	149	2
126	127	2
108	170	2
109	109	1
123	123	2
127	127	3
152	153	1
156	165	1
152	163	1
121	122	2
125	166	1
5	7	1
116	116	2
86	99	1
92	96	1
15	16	2
38	169	2
41	45	3
110	116	1
139	166	1
128	129	1
133	134	1
52	55	1
70	72	2
155	155	2
55	84	2
116	125	1
36	37	1
113	156	2
112	113	2
117	117	1
17	25	1
86	88	2
104	105	1
157	157	1
154	154	1
26	52	1
90	91	1
39	119	1
125	127	1
134	154	1
127	128	1
22	51	1
97	98	1
161	170	1
90	97	1
57	77	1
108	168	1
67	77	1
48	54	1
