39	39	6
98	98	5
165	189	2
33	35	3
135	137	3
87	87	5
163	164	6
170	170	3
38	38	10
18	18	2
83	113	3
76	76	3
4	5	3
80	107	2
83	114	4
30	32	4
109	112	2
136	136	4
127	131	2
124	125	3
150	179	2
15	15	3
53	53	5
111	111	2
19	132	3
189	189	3
142	152	3
46	46	4
165	165	2
115	125	5
174	175	1
12	54	2
23	30	6
53	59	1
26	26	4
157	161	1
23	23	6
186	189	1
105	105	8
19	32	2
35	36	2
154	154	5
23	81	1
27	99	9
83	83	3
98	154	3
127	142	1
183	183	2
129	129	4
108	147	5
12	12	4
25	26	4
8	8	8
72	156	2
80	80	5
132	132	10
143	143	1
133	133	2
113	114	1
131	132	6
84	84	5
134	134	3
67	67	7
91	91	8
87	88	6
14	15	3
148	154	3
90	90	4
171	172	5
128	132	2
46	47	3
159	160	4
141	141	6
137	156	7
120	120	3
179	179	4
75	79	7
139	139	2
15	114	1
81	107	2
126	127	4
89	89	6
78	79	3
34	34	6
112	112	4
62	62	8
65	65	3
10	10	1
21	21	7
28	28	3
81	81	4
177	177	2
155	156	2
20	22	2
23	25	7
121	121	5
105	117	3
82	82	7
137	139	1
43	43	4
99	99	4
20	21	2
19	20	2
148	148	6
160	161	2
137	149	2
14	17	1
32	33	8
164	164	2
43	44	5
71	71	15
129	131	3
140	152	1
25	25	3
41	41	2
56	78	3
7	7	7
61	64	4
171	171	3
118	118	4
5	5	6
11	12	4
4	4	2
79	79	3
188	188	3
85	93	2
170	174	1
106	106	1
102	150	1
24	24	4
105	107	2
97	145	2
103	103	5
108	108	3
61	61	4
3	3	4
77	78	3
17	65	3
80	109	1
149	149	3
174	174	3
72	73	4
20	20	1
127	127	2
145	146	5
167	167	2
127	141	3
11	11	7
33	34	3
161	162	1
119	123	1
80	81	1
48	48	7
47	47	1
145	145	6
73	73	4
175	175	4
70	70	6
32	94	4
101	103	1
27	28	1
136	137	4
100	100	1
157	157	1
56	56	4
36	36	3
185	185	2
6	6	2
58	109	2
62	65	1
158	158	2
9	9	2
76	77	1
177	185	2
128	131	6
117	117	1
141	143	2
161	161	1
86	86	2
16	16	3
182	182	2
27	104	4
130	151	1
20	30	1
186	186	1
116	116	6
179	180	1
9	12	2
113	113	1
61	62	4
15	16	2
45	45	3
134	135	2
165	166	2
44	72	3
31	32	2
102	103	5
118	135	3
126	126	1
55	55	3
82	83	3
63	63	3
20	81	1
27	98	1
37	37	7
162	188	3
121	122	3
10	12	1
69	78	1
182	184	1
177	186	2
104	104	5
131	131	1
185	186	2
32	35	3
135	135	3
126	141	1
23	109	1
53	123	1
35	104	1
73	96	1
36	43	1
177	178	4
130	130	5
153	183	1
1	1	2
14	14	1
144	144	3
29	101	2
40	40	2
62	63	2
163	163	2
75	75	4
74	74	2
73	149	1
27	27	2
170	181	2
142	142	6
109	109	2
86	109	1
78	78	1
60	65	1
127	128	4
124	149	1
105	108	1
9	58	2
138	138	1
32	32	1
58	58	2
29	42	1
79	81	1
116	119	2
27	29	1
101	101	6
17	18	1
45	46	2
94	94	1
84	85	2
131	134	2
85	85	1
60	60	1
155	181	1
151	151	4
24	42	2
106	121	2
135	161	3
107	107	2
87	89	2
127	144	1
96	96	1
16	65	1
92	94	1
30	30	2
24	26	2
2	6	1
103	175	1
26	99	1
75	80	1
125	125	1
118	119	1
175	181	2
140	140	3
81	111	3
67	70	2
97	97	1
57	57	1
77	109	2
28	29	1
70	71	1
56	94	2
106	108	1
18	31	1
77	77	1
126	143	1
144	145	2
154	155	1
122	126	1
52	52	1
160	183	1
149	154	1
22	22	1
15	115	1
59	59	1
22	108	1
183	184	1
173	173	1
169	169	1
110	111	1
107	114	1
124	124	2
168	173	1
60	61	1
85	86	1
75	82	1
36	37	1
30	95	1
19	40	1
146	146	1
63	98	1
122	122	1
150	180	1
19	114	1
78	121	1
41	85	1
146	149	1
166	170	1
15	106	1
