81	82	8
72	72	11
8	9	5
8	8	8
6	8	4
79	80	8
67	67	15
12	17	1
58	58	11
13	20	2
10	10	10
25	25	4
75	75	9
61	61	8
5	6	6
9	10	5
23	25	3
24	24	17
82	82	20
89	89	11
9	9	8
48	48	10
81	81	24
12	13	3
23	23	17
85	85	7
6	6	3
48	55	3
78	79	6
77	80	2
29	29	8
73	77	3
46	46	5
30	30	7
13	13	11
4	4	9
8	11	1
54	54	8
21	22	1
31	31	5
78	78	2
61	64	3
68	68	10
69	69	14
26	26	6
49	49	12
8	10	3
86	87	1
20	21	6
83	83	15
88	89	3
85	87	1
52	52	4
59	59	8
57	57	10
11	19	1
9	12	6
22	22	11
73	73	7
5	5	3
76	77	4
50	52	3
1	1	5
64	64	12
82	83	4
12	12	3
75	89	2
56	56	4
28	28	9
50	66	1
20	20	10
75	88	2
52	65	8
7	7	6
0	0	1
64	77	2
2	2	4
51	60	1
67	68	1
74	74	5
60	61	4
51	53	1
3	3	6
27	27	11
53	53	3
87	87	7
7	17	2
59	82	1
90	90	1
75	76	4
71	72	3
50	50	17
24	26	3
69	70	4
86	86	4
85	89	3
17	17	4
32	33	2
80	81	5
11	11	17
51	54	3
59	62	3
84	87	1
20	23	1
75	77	1
3	4	2
77	77	10
34	34	3
28	30	2
50	51	6
19	19	3
5	19	1
71	71	4
59	78	2
84	84	6
52	55	6
58	60	2
63	64	2
65	78	1
66	67	1
65	73	1
28	29	2
50	53	1
52	53	2
77	79	2
47	47	6
13	23	3
48	56	1
50	65	5
79	79	5
70	70	9
55	55	4
66	66	4
68	69	5
80	80	4
54	55	2
61	62	1
14	24	2
32	34	6
60	64	4
60	78	4
84	85	6
85	86	2
62	63	2
46	62	1
81	83	3
55	87	1
58	62	2
22	23	2
58	59	5
74	75	2
25	26	2
51	58	3
49	55	1
65	65	3
70	81	1
8	12	2
15	15	5
47	48	2
51	51	4
51	81	3
60	65	3
63	65	3
76	76	2
1	2	2
60	60	2
21	21	1
84	89	2
60	62	2
56	71	1
72	73	1
58	61	1
14	16	1
53	56	2
29	30	1
77	82	1
63	63	6
51	59	1
17	18	1
48	49	1
0	1	3
56	57	1
46	48	2
79	81	1
58	78	2
18	18	1
24	25	1
57	85	1
33	33	1
6	7	1
53	55	1
80	83	1
75	80	1
72	80	2
50	56	1
49	53	1
16	16	1
48	50	1
4	71	1
26	27	1
12	18	1
76	80	1
52	61	1
