40	40	8
70	70	8
83	87	2
31	31	7
105	105	18
91	99	4
29	29	17
61	61	9
89	90	10
101	102	8
97	97	14
98	99	5
97	99	7
88	89	3
27	27	5
79	79	9
92	92	9
83	84	6
54	54	14
38	38	2
60	60	9
38	67	1
96	97	6
83	83	9
77	77	4
82	82	13
26	27	12
44	61	2
27	29	5
80	80	10
76	76	18
93	94	8
93	95	3
66	67	7
30	30	5
41	41	11
91	91	9
23	23	11
53	53	18
98	98	17
89	89	12
71	73	1
53	55	5
61	65	1
78	78	3
32	32	8
66	73	5
51	60	2
35	35	7
104	104	11
91	95	6
48	48	4
34	34	16
21	21	18
30	49	3
67	67	11
79	80	4
70	71	1
46	46	17
73	73	9
45	45	10
93	99	5
72	76	1
85	85	4
31	64	3
81	81	13
72	72	6
84	86	6
78	100	2
73	74	4
72	73	8
103	103	18
93	93	6
60	61	1
58	67	2
64	64	8
101	101	10
84	85	9
84	84	6
100	101	11
93	96	1
55	55	10
96	96	17
66	92	2
79	81	13
37	37	5
25	73	5
51	51	14
62	63	4
38	39	7
58	61	11
65	65	14
91	94	3
39	39	5
36	37	12
31	86	6
71	72	2
91	92	4
31	32	2
67	91	2
57	64	4
28	42	7
50	50	10
90	90	8
87	87	8
23	59	2
78	103	1
42	43	4
82	83	4
63	63	8
22	22	2
67	70	2
21	22	1
86	86	11
81	89	2
99	99	6
59	61	2
92	93	8
96	99	3
36	36	14
56	56	9
75	75	5
42	47	7
94	106	5
94	95	7
41	42	6
35	57	2
94	96	6
65	66	5
46	47	2
50	51	2
90	97	2
78	82	1
97	98	5
41	48	1
34	35	2
88	88	3
76	81	5
59	59	8
86	87	2
43	43	2
83	94	3
26	26	6
102	102	12
42	42	2
67	68	5
71	75	2
80	82	1
20	26	1
95	95	5
41	80	3
49	49	9
28	28	2
37	38	4
20	20	4
27	28	1
32	38	1
54	55	2
78	97	1
83	85	6
61	64	1
75	76	2
38	70	3
52	52	5
79	82	1
85	87	5
33	33	5
24	35	2
25	25	3
53	54	7
68	75	1
78	99	1
66	72	5
30	58	1
99	100	3
24	25	2
77	93	4
83	86	2
26	30	2
26	28	1
80	81	1
71	71	8
41	44	2
90	91	4
78	98	2
58	58	8
91	93	2
44	44	2
67	85	2
88	93	1
46	51	1
68	68	2
94	94	6
24	24	4
69	70	1
95	96	2
61	62	2
42	44	1
78	81	3
100	102	4
76	77	3
100	100	3
24	36	3
67	84	1
83	92	3
58	59	1
41	59	3
23	24	1
44	55	1
69	72	2
56	90	2
68	69	2
84	88	2
59	95	2
57	57	9
51	58	2
62	75	1
66	66	2
106	106	1
103	104	1
69	69	4
59	60	1
78	79	1
103	105	1
36	49	1
20	22	1
65	100	1
94	97	1
25	56	2
38	40	1
40	44	2
47	47	1
92	94	1
74	74	4
105	106	1
40	42	1
39	40	1
57	93	2
57	58	1
104	105	1
77	79	1
80	83	1
70	72	2
82	86	1
33	59	1
39	52	1
60	94	1
35	36	1
77	89	2
81	86	1
47	48	1
31	49	1
65	73	1
89	95	1
