82	82	7
60	60	22
84	86	4
116	116	20
49	49	4
59	60	3
9	38	1
68	91	8
27	27	9
26	70	1
30	32	2
100	130	4
95	134	3
128	128	10
20	20	14
5	15	2
1	3	2
27	28	9
134	134	29
126	128	5
114	114	13
83	84	3
116	117	7
3	3	12
121	121	22
85	85	18
79	82	4
129	129	13
122	123	7
8	8	18
23	23	18
131	131	10
84	84	12
131	132	3
89	89	9
127	133	1
48	70	4
76	76	26
126	126	24
45	97	4
26	27	15
117	117	24
9	9	4
45	63	1
62	64	8
30	31	5
125	125	18
6	6	12
125	129	2
18	18	11
70	70	27
71	72	6
87	98	1
14	15	5
112	112	19
99	131	1
66	67	10
87	87	26
13	15	3
132	133	11
98	99	13
12	13	1
22	22	19
124	125	12
129	131	9
98	98	23
29	126	1
38	38	17
90	91	11
98	125	2
106	106	9
70	93	1
115	129	6
64	64	16
50	52	3
33	33	14
31	32	4
60	115	1
119	119	17
126	127	6
71	71	18
106	108	8
55	80	2
105	105	4
43	59	3
32	32	16
111	115	2
29	29	9
25	25	12
79	79	13
94	94	14
100	101	7
16	16	11
123	123	15
74	74	37
81	85	5
127	129	11
127	128	13
119	120	17
52	100	2
28	28	15
77	78	11
88	90	4
47	50	1
4	4	12
19	33	2
69	70	8
102	102	10
67	67	14
31	31	9
125	127	4
34	34	8
15	16	2
132	134	2
111	111	5
125	130	3
43	43	7
30	30	14
95	95	9
56	56	10
91	91	20
109	110	7
35	37	3
130	130	13
133	134	5
14	14	9
45	100	4
45	109	9
50	78	1
107	110	2
84	104	5
127	127	12
120	121	8
55	55	9
50	50	13
73	73	17
3	4	8
43	106	1
54	55	6
79	80	11
61	61	5
80	80	18
69	91	1
63	63	21
17	17	4
1	1	3
67	70	3
86	86	21
86	97	1
22	25	2
93	93	14
90	103	3
91	92	16
59	59	10
110	110	2
84	85	9
92	92	20
130	133	2
71	73	1
72	72	17
29	71	7
115	115	10
100	100	10
105	108	5
54	96	3
57	57	5
52	52	12
35	35	11
111	113	2
23	24	4
21	25	4
19	24	1
103	103	20
124	124	9
11	11	4
5	61	5
21	21	13
9	10	4
118	120	2
63	64	4
65	65	20
68	68	11
74	103	7
54	95	1
53	100	6
62	70	2
19	19	22
75	76	6
65	66	5
85	103	1
118	119	4
102	103	4
99	99	5
34	35	8
78	79	5
45	83	5
57	59	2
2	53	3
53	53	21
67	68	5
33	34	7
66	66	8
71	74	2
45	81	1
97	98	6
111	114	5
7	7	10
81	81	13
73	74	4
62	62	16
91	95	3
42	42	1
72	73	14
57	58	8
45	107	3
61	63	2
117	118	4
11	12	7
7	27	1
57	113	4
98	102	2
120	120	11
112	115	4
114	115	5
115	125	1
88	88	11
1	13	2
106	110	4
83	83	7
42	59	1
13	17	7
68	69	9
113	113	6
119	123	4
10	11	1
78	78	10
58	59	9
9	68	1
114	129	1
115	116	11
31	59	2
79	83	2
75	75	21
13	106	2
13	14	6
63	85	1
63	69	3
4	53	3
90	90	16
60	82	6
72	75	5
120	122	3
64	65	5
107	107	4
43	112	5
117	123	1
57	80	2
70	71	4
13	13	4
114	117	4
57	69	4
104	104	11
18	101	2
113	129	3
87	107	4
17	18	1
43	114	3
45	52	1
54	54	3
96	96	7
133	133	2
65	69	1
8	110	1
99	128	5
126	133	1
77	77	15
45	110	2
32	54	4
45	45	12
122	122	14
0	3	1
48	111	1
45	106	2
44	110	2
45	82	1
61	64	2
58	58	7
46	49	2
44	45	11
2	3	1
105	107	3
52	105	3
35	118	4
90	92	1
52	53	2
10	10	10
53	106	5
19	22	6
131	133	3
130	135	1
95	96	4
43	113	3
96	99	5
55	56	13
114	118	3
63	84	1
123	124	1
0	1	4
35	114	2
86	87	8
128	129	4
88	95	4
0	0	5
63	79	3
88	89	4
108	109	7
79	97	2
81	82	3
24	24	15
78	87	2
44	111	8
121	122	5
62	85	3
44	107	2
103	111	2
85	100	2
130	131	7
53	54	2
67	69	5
44	83	2
53	110	1
75	103	2
105	111	5
36	67	3
64	73	2
31	125	1
119	122	4
129	132	5
85	95	2
2	2	7
15	15	2
64	94	1
82	84	1
69	82	2
66	69	1
92	93	3
37	37	10
109	109	8
34	123	2
28	127	1
118	118	17
128	134	4
76	105	1
63	70	1
68	78	2
12	12	7
43	44	5
60	61	4
18	23	4
62	66	3
32	56	1
45	55	3
10	25	2
43	81	3
45	46	1
48	48	3
18	109	1
97	97	5
47	79	1
69	69	10
19	20	2
94	95	5
6	9	1
6	7	2
113	115	1
31	124	2
60	64	4
111	112	2
59	117	4
5	60	2
24	25	4
3	12	2
11	28	1
47	49	2
97	99	1
55	79	2
101	102	4
125	133	1
37	38	2
42	43	4
87	90	6
88	99	4
73	75	1
44	79	3
66	68	2
125	128	3
135	135	1
44	80	1
101	101	5
102	130	1
85	101	2
76	78	1
10	128	1
112	129	1
49	82	3
112	113	7
80	81	3
31	34	2
54	97	2
93	94	2
126	132	3
5	9	3
85	91	1
88	91	1
33	36	1
126	129	5
60	62	1
16	17	2
106	109	2
20	21	4
4	61	2
13	16	2
68	81	1
32	34	3
108	108	6
5	5	3
26	26	4
116	118	5
88	96	2
111	126	3
19	26	2
56	57	2
89	90	2
132	132	3
113	114	2
6	8	2
77	82	1
46	58	1
1	2	1
110	111	5
49	78	2
52	87	3
84	124	1
17	105	2
98	101	1
47	109	1
61	84	1
3	69	1
11	108	3
93	99	1
44	44	3
32	122	2
35	36	3
5	6	1
4	6	1
58	81	1
82	110	2
25	27	1
35	116	1
96	124	4
115	123	2
119	121	1
29	129	1
2	74	2
21	22	1
32	33	1
100	105	2
10	14	3
86	102	1
48	82	2
88	92	2
21	36	3
50	51	1
44	82	2
100	107	1
49	61	1
22	23	1
99	103	1
6	21	1
78	97	3
125	126	5
118	121	3
7	9	1
104	105	3
47	122	2
57	115	1
117	119	3
62	63	3
55	57	1
81	83	2
47	77	2
19	107	1
45	51	1
106	107	2
3	5	3
99	100	2
49	50	5
28	33	2
8	109	3
96	97	2
4	5	1
58	115	3
53	96	2
19	109	2
107	108	1
0	13	1
85	86	1
33	112	1
95	97	3
75	77	1
25	26	1
126	131	3
46	50	4
64	85	1
56	60	2
7	15	1
118	122	1
111	125	1
82	83	3
7	8	2
36	38	2
61	69	1
95	98	2
125	131	1
89	93	1
18	19	2
61	68	1
36	36	1
59	118	1
74	101	1
8	10	1
56	81	3
50	88	1
7	14	1
34	122	2
129	130	1
44	60	1
51	51	1
20	26	1
8	11	1
63	91	1
3	55	1
12	25	1
35	119	1
114	127	1
47	47	1
92	128	1
94	98	2
74	75	1
43	126	1
108	110	1
68	92	1
78	80	1
114	116	1
15	17	1
115	117	1
