81	81	1
46	51	5
77	77	9
22	23	2
62	67	5
77	78	2
53	54	1
29	29	7
45	52	4
56	68	1
32	111	1
54	55	1
40	40	6
32	40	2
112	112	8
38	79	2
63	63	4
32	32	8
86	87	6
45	45	11
50	51	4
56	59	2
46	46	12
50	50	6
104	106	2
43	45	2
104	104	7
40	41	9
73	73	5
47	48	4
62	62	4
74	74	10
109	110	2
81	83	2
30	41	3
91	92	1
66	66	4
72	73	2
55	62	6
111	111	10
61	61	1
60	60	4
21	21	2
28	28	7
74	75	4
69	69	7
94	94	2
27	28	2
43	43	9
74	77	4
27	27	5
59	59	2
31	31	8
101	103	3
97	97	9
113	113	4
87	88	3
74	78	2
44	45	4
92	92	9
63	64	12
107	107	3
33	33	10
62	63	3
64	65	7
64	64	3
76	76	4
104	107	3
26	28	2
30	31	1
101	108	1
26	26	3
40	46	4
101	101	12
86	98	2
34	34	2
32	33	6
58	59	1
53	64	6
47	47	9
32	44	2
114	114	9
80	80	4
96	96	8
31	44	3
92	93	2
36	39	2
71	77	1
65	66	1
90	91	1
46	61	7
85	85	3
64	72	2
110	111	3
35	35	9
70	70	1
81	82	3
93	93	2
47	52	4
75	75	5
51	52	4
25	25	2
105	106	2
49	49	5
44	44	5
53	60	5
25	40	3
86	86	4
76	89	1
102	102	6
41	41	5
19	20	1
60	61	1
84	87	2
71	73	2
39	39	4
78	78	3
99	99	1
102	103	1
35	76	1
85	86	3
110	110	5
79	79	2
65	65	2
100	100	2
52	84	3
45	47	6
49	50	5
46	55	1
52	52	1
74	94	1
104	105	8
53	53	3
78	79	1
42	42	2
94	97	2
48	49	2
96	97	4
72	77	1
79	80	3
86	97	3
28	29	2
30	30	6
105	105	1
71	71	2
36	36	1
88	88	4
98	98	5
67	67	4
83	83	1
22	22	4
41	52	1
109	109	1
43	44	5
90	90	2
44	89	4
95	95	2
113	114	1
29	42	1
95	99	1
76	77	1
48	48	2
33	34	2
29	49	1
44	48	2
58	58	1
51	51	4
101	102	1
28	30	3
53	57	1
92	100	1
91	91	4
42	43	1
51	63	1
93	110	1
73	74	1
34	37	1
38	39	1
60	82	1
75	76	2
41	50	1
36	42	1
51	80	1
22	26	1
85	92	2
66	70	1
44	88	1
59	60	1
100	102	1
55	55	1
106	106	1
25	26	1
87	95	1
103	103	1
54	57	1
82	87	1
