39	39	24
43	43	16
76	76	6
128	128	29
120	120	12
37	39	8
51	54	4
6	6	24
128	129	3
24	92	4
13	13	7
41	41	15
121	122	6
104	104	12
127	127	23
114	114	18
73	73	27
34	34	14
30	72	5
72	73	4
18	18	11
115	117	4
89	89	10
13	14	5
4	5	9
92	92	16
92	93	6
123	124	5
70	76	2
143	143	16
101	101	21
113	114	8
22	53	2
38	54	1
37	41	7
90	90	16
102	103	3
31	32	8
67	67	20
4	4	17
5	5	17
91	91	18
25	25	9
133	133	24
124	124	10
29	30	3
70	71	11
134	134	10
119	119	15
40	53	3
46	46	23
19	19	18
108	108	11
23	23	21
44	44	10
79	79	4
115	116	3
15	15	7
116	117	2
48	48	18
154	157	3
70	70	9
1	1	14
115	115	14
86	86	11
119	142	2
69	70	7
36	36	13
88	89	7
75	75	11
153	154	5
22	22	18
42	42	10
135	135	7
138	138	18
122	122	17
87	87	20
105	105	19
29	29	12
63	67	8
68	69	12
51	52	7
98	98	13
9	9	14
84	109	4
150	150	19
38	39	6
23	24	10
103	103	23
97	97	5
121	121	5
22	23	12
113	117	11
131	132	4
20	20	19
66	69	1
16	16	19
14	15	12
111	111	26
125	125	11
83	83	13
26	26	19
135	146	3
63	64	2
96	96	9
26	27	12
17	17	12
102	116	1
130	130	13
8	91	2
57	63	6
148	149	4
152	152	20
40	40	20
77	77	7
22	90	5
68	68	12
84	85	11
109	110	7
141	142	10
97	155	3
9	11	5
94	94	13
126	126	22
7	7	24
77	85	3
117	142	5
30	30	11
100	101	5
75	116	1
86	93	4
93	93	15
144	144	10
28	28	12
37	49	3
106	106	6
126	127	4
53	71	1
117	117	7
8	8	14
140	140	11
123	140	2
128	139	2
77	135	3
81	116	5
82	82	11
20	135	2
24	24	16
10	21	1
27	28	3
28	29	20
110	111	11
9	10	1
118	137	3
80	80	20
85	88	5
115	150	4
66	66	20
50	50	7
136	137	8
57	68	2
81	85	3
95	95	14
11	11	12
62	63	6
112	116	2
99	99	19
115	123	4
57	67	1
83	86	5
53	53	6
136	138	8
15	16	6
2	2	11
130	137	1
35	35	15
7	73	1
10	11	9
145	145	19
53	54	3
5	9	1
97	151	2
129	129	23
49	49	13
153	153	6
45	45	14
12	35	2
132	132	13
150	151	2
135	137	1
114	115	8
79	80	5
147	147	23
30	31	8
69	69	9
8	9	3
52	53	12
95	96	4
123	125	7
93	95	2
105	106	1
24	78	2
68	76	4
23	79	2
120	121	1
98	150	3
2	4	4
23	32	2
71	73	2
85	85	12
21	21	17
114	150	2
55	55	4
123	123	15
21	97	2
83	134	2
12	12	9
139	139	16
115	151	4
151	158	2
8	33	2
22	25	5
151	151	16
122	126	4
137	137	20
100	100	13
157	158	7
12	13	5
119	140	5
94	95	2
106	136	1
23	28	2
136	136	12
107	108	6
107	110	1
81	81	5
56	57	2
88	90	2
87	90	5
13	36	4
155	155	9
147	148	7
40	56	1
6	7	5
70	82	5
45	46	9
113	151	5
118	119	2
31	53	6
88	88	13
95	117	2
102	102	7
47	47	22
54	61	2
116	116	16
3	3	10
148	148	12
109	109	11
71	72	4
38	40	3
83	85	6
78	78	16
27	27	11
65	73	2
139	158	1
16	19	5
156	156	14
73	75	8
33	33	12
157	157	9
158	159	8
1	2	2
67	70	3
31	52	5
109	123	1
123	135	1
80	132	1
134	135	2
35	50	2
156	157	4
50	51	13
10	10	6
141	153	2
31	31	9
54	54	7
31	54	1
13	18	5
104	127	4
129	130	7
56	58	3
158	158	14
85	121	1
41	83	3
33	84	1
81	82	4
76	82	1
15	39	7
117	120	7
103	113	2
139	140	4
75	131	2
55	56	1
111	112	2
31	51	5
25	26	3
127	148	1
146	146	19
36	37	11
157	159	1
98	156	2
52	52	3
81	110	1
16	17	1
89	90	3
112	112	8
45	47	6
24	25	3
32	32	3
142	143	2
125	132	2
64	64	3
48	49	5
77	80	6
91	93	1
14	18	5
125	147	5
67	69	8
110	112	7
3	5	4
56	56	3
37	38	8
92	94	1
68	71	2
72	72	2
102	114	1
122	124	3
84	119	3
117	118	1
111	134	1
108	109	4
54	55	1
11	12	10
17	23	1
112	126	2
103	104	6
48	55	1
54	66	3
90	96	2
29	67	1
137	138	4
108	125	7
49	52	2
118	133	3
39	66	1
104	146	1
131	131	13
31	34	3
118	123	1
80	81	4
144	145	4
121	151	3
124	135	3
13	23	2
130	133	2
107	137	2
78	79	13
95	97	3
2	3	4
44	45	2
30	65	3
77	78	11
57	69	3
68	70	18
21	28	7
110	110	11
51	51	9
0	1	6
120	140	4
113	119	2
142	142	5
63	63	5
91	111	2
21	22	3
29	63	3
127	133	2
62	62	5
0	0	2
106	113	5
20	144	1
78	88	3
126	141	4
127	154	3
39	100	3
85	86	2
36	81	4
22	51	4
38	38	3
40	54	2
37	37	5
7	99	1
3	9	1
8	13	2
107	107	5
86	120	2
103	112	1
34	50	2
124	125	5
143	145	3
116	134	2
2	5	1
3	100	1
119	124	1
21	137	3
9	70	2
84	84	9
106	135	1
93	94	4
149	156	2
19	21	1
149	149	10
24	91	1
141	141	10
20	21	2
105	149	3
50	70	6
30	64	3
125	126	3
142	155	1
112	117	2
30	40	3
127	140	1
148	153	2
7	36	1
32	34	3
43	44	2
108	122	4
40	62	3
152	153	5
77	87	1
100	135	2
43	46	4
96	97	2
98	151	7
91	92	6
67	68	3
31	33	1
154	154	5
85	112	2
33	51	1
114	125	3
126	154	1
84	86	2
35	54	1
87	120	2
39	81	1
104	105	3
33	34	3
32	33	5
84	87	2
149	150	2
28	30	7
11	14	1
39	43	1
30	33	2
21	27	2
80	135	1
104	126	3
151	154	2
98	99	1
15	37	3
36	55	5
18	22	2
104	151	2
36	50	1
6	71	3
36	46	1
76	77	6
126	132	4
43	84	1
121	147	2
105	107	2
107	114	2
12	38	2
114	123	2
119	141	4
110	123	1
64	68	3
2	100	1
24	37	2
40	41	3
27	133	1
144	146	2
109	111	1
154	155	1
138	139	5
54	70	2
86	134	1
75	130	1
27	54	2
127	142	1
127	138	1
42	43	1
87	88	5
118	132	2
152	154	2
48	56	1
57	57	4
104	149	1
19	20	2
10	13	3
13	15	1
104	112	2
127	132	5
22	70	2
117	133	1
106	109	1
42	50	4
18	19	3
128	138	1
47	49	2
76	79	4
18	21	1
47	48	1
122	123	5
8	10	2
93	111	1
90	92	1
103	115	2
113	121	2
105	159	1
140	142	4
113	113	4
105	113	3
140	150	1
119	120	3
50	53	1
50	76	1
156	158	3
69	72	2
90	95	8
114	117	3
75	129	1
118	118	7
14	14	4
131	135	2
6	87	1
80	128	2
61	61	2
141	144	1
106	107	3
126	131	1
98	158	3
82	110	2
81	84	2
10	17	1
90	121	2
104	106	1
22	26	1
87	92	1
29	71	1
41	43	1
48	50	2
11	138	1
146	152	3
15	18	2
20	84	2
132	133	4
77	120	1
7	8	1
39	40	3
56	64	1
65	66	2
67	71	3
25	55	2
97	98	1
10	40	1
71	71	6
10	33	2
41	77	1
67	81	1
17	18	3
111	116	3
113	118	1
110	121	1
110	135	1
92	119	1
104	145	2
10	14	1
65	72	1
7	31	1
65	65	3
26	132	1
122	125	1
29	31	3
119	121	2
51	53	1
43	49	1
91	96	1
28	137	2
130	131	2
90	112	1
26	75	1
140	158	1
29	68	1
145	146	1
19	128	1
124	126	2
122	147	2
106	111	2
134	137	2
109	124	2
155	156	2
148	154	1
75	76	1
110	124	4
36	42	1
80	131	1
10	22	1
80	93	1
104	117	1
104	116	1
3	34	1
3	4	2
145	152	1
104	115	1
61	63	1
9	12	1
77	86	1
146	147	2
4	32	1
5	6	1
122	142	1
39	42	1
34	51	2
7	72	2
118	139	1
81	133	1
121	158	2
150	154	1
78	82	1
140	149	1
129	138	1
83	84	1
29	64	1
121	124	1
34	36	1
30	37	1
46	66	1
11	22	1
8	12	1
141	143	1
18	138	1
64	71	1
120	143	1
23	91	1
16	18	1
9	22	1
108	110	1
121	145	1
31	36	1
