36	36	7
51	58	6
74	74	17
48	49	11
52	52	22
56	57	18
53	54	9
83	84	18
90	90	26
53	56	4
92	98	4
64	65	9
100	100	18
98	98	26
46	49	3
44	44	26
85	87	5
34	34	14
86	87	15
76	77	8
95	97	5
87	87	18
83	83	9
78	78	29
33	35	3
60	60	34
68	68	15
62	62	15
82	82	9
59	59	54
66	67	22
42	42	26
94	94	23
72	73	21
85	85	20
72	75	3
81	81	22
60	89	3
59	73	5
70	70	10
92	93	12
67	78	6
98	99	9
72	72	18
79	80	9
41	42	8
48	48	15
66	66	18
45	49	1
63	63	37
93	94	15
64	64	14
65	68	3
73	80	3
51	51	12
49	50	2
46	46	20
100	102	2
83	90	7
51	71	2
86	94	2
96	97	4
86	93	3
89	92	7
65	66	4
79	79	10
49	49	23
55	56	15
89	89	19
53	58	6
91	93	5
69	74	1
65	65	17
91	94	1
69	69	16
61	61	33
71	71	13
90	91	6
76	76	19
39	40	3
63	64	5
54	57	3
47	47	19
97	97	10
87	88	5
73	73	28
70	72	4
55	66	1
61	80	7
43	43	12
84	86	2
33	34	1
23	23	7
42	43	12
57	58	5
50	50	17
35	35	9
92	94	5
95	95	13
77	77	14
55	55	24
96	96	12
47	48	16
87	91	3
57	59	2
59	65	3
47	77	7
57	57	40
101	101	16
56	56	20
44	45	18
32	34	4
65	69	2
30	31	2
91	91	18
92	92	31
47	51	1
24	24	6
70	71	6
49	58	1
88	88	21
53	53	14
45	45	12
86	86	15
76	78	1
86	88	9
91	92	3
57	78	3
39	39	20
90	93	2
100	101	7
75	75	20
99	99	28
69	70	15
53	60	8
51	86	2
75	76	10
45	76	3
69	71	2
99	100	12
80	80	8
37	37	7
50	65	1
41	41	16
71	78	5
40	41	6
80	81	7
76	101	2
55	61	2
35	36	13
95	96	5
54	54	14
97	98	5
22	22	3
52	58	3
31	31	14
74	75	3
67	68	8
89	91	6
31	34	1
81	89	1
50	91	3
52	76	1
67	67	16
68	69	12
51	53	1
78	81	3
32	32	2
84	84	10
40	40	10
31	39	3
61	62	5
25	25	2
93	93	8
27	27	3
58	59	4
82	89	3
81	82	8
52	57	4
88	89	2
49	67	4
78	79	5
38	38	6
94	95	8
66	69	5
96	98	5
46	47	1
22	91	2
61	84	2
36	38	1
64	73	1
38	40	1
86	92	1
48	50	8
80	84	3
53	55	8
77	79	4
58	58	8
65	67	2
47	79	1
66	68	5
61	71	1
82	91	2
64	67	4
89	90	4
83	86	1
83	93	1
101	102	5
29	29	13
44	48	2
90	92	5
54	56	1
32	38	4
63	75	1
88	92	3
77	78	6
42	77	2
87	94	2
93	100	3
102	102	5
78	100	1
76	79	2
75	77	4
79	83	3
62	63	3
44	80	4
67	90	1
26	26	4
52	59	3
52	53	2
61	83	3
45	47	5
55	58	2
66	73	1
57	63	4
68	70	1
83	85	2
87	89	1
54	55	2
40	43	2
32	33	1
92	99	2
30	30	2
29	30	1
90	101	2
61	81	1
66	70	1
51	67	1
56	58	1
29	32	4
25	26	4
33	33	3
46	48	2
68	91	1
60	61	3
94	96	4
36	37	1
52	56	1
34	35	2
20	20	1
24	25	1
58	61	1
48	52	1
75	79	1
47	84	1
56	77	1
61	63	2
66	72	1
59	85	2
85	88	1
40	49	1
83	96	1
87	92	1
60	85	1
70	77	1
50	86	1
47	50	1
51	52	1
83	95	1
99	101	1
35	37	2
24	26	1
73	74	1
65	84	1
23	76	1
32	39	2
38	39	2
41	43	1
37	38	1
48	51	1
