63	63	11
95	95	11
29	42	2
25	29	3
20	20	9
26	26	12
62	62	6
46	97	5
39	39	8
80	81	3
45	45	4
42	49	1
56	56	15
97	98	2
28	44	7
39	50	3
52	55	2
41	42	2
99	99	3
46	46	4
85	85	5
92	92	8
37	37	1
65	65	3
67	67	9
51	51	6
39	68	2
55	69	2
106	106	9
84	85	9
47	47	9
82	82	13
22	22	7
33	67	6
81	81	6
23	23	3
103	104	4
40	43	1
69	91	4
79	79	1
81	105	4
54	54	6
69	69	7
36	36	3
40	42	3
23	24	2
33	39	2
39	42	3
55	55	5
28	28	4
24	95	3
31	98	1
46	47	2
21	21	4
57	57	2
89	96	6
78	78	6
104	104	5
71	73	2
75	76	1
47	49	1
91	91	4
43	45	2
55	71	8
77	77	6
78	79	5
70	70	6
31	31	6
70	71	4
89	97	3
31	97	1
101	101	13
52	52	4
64	65	1
55	72	2
78	106	2
59	88	7
80	80	3
83	85	3
32	32	8
19	19	3
26	67	1
90	90	9
58	58	3
39	43	1
68	69	3
27	28	1
103	103	5
30	48	1
61	61	5
73	73	4
68	68	5
50	50	1
62	63	2
47	96	1
38	38	2
98	99	6
30	30	1
47	48	5
29	30	9
38	39	1
83	84	4
83	88	5
21	27	2
64	64	1
29	29	2
53	71	3
105	105	7
89	89	4
95	96	3
24	24	3
65	96	3
34	34	5
72	72	3
74	75	2
93	93	3
84	84	2
35	35	4
60	60	4
76	77	2
24	100	2
104	105	1
81	88	8
22	73	1
25	27	1
31	49	3
66	69	1
96	99	1
97	97	5
93	94	3
94	94	1
101	102	2
92	94	1
74	74	2
33	34	3
78	81	2
37	38	3
33	33	3
98	98	3
40	40	1
76	105	1
64	68	4
54	72	3
100	100	6
57	58	1
45	50	1
53	69	3
95	99	2
71	71	2
75	80	1
64	72	2
56	57	1
91	92	7
85	88	1
78	80	1
52	62	2
51	53	2
92	96	1
83	83	3
85	86	1
85	87	2
56	63	1
32	85	1
25	26	2
97	99	1
77	78	1
73	74	1
96	96	1
59	59	2
49	49	2
45	49	1
44	44	1
30	43	1
100	102	1
83	87	1
58	60	2
55	58	1
89	90	1
43	43	1
48	49	1
25	30	2
41	41	1
75	75	1
107	107	1
21	22	1
38	62	1
77	105	1
31	32	1
61	63	1
72	73	1
