115	116	15
76	78	5
15	15	15
120	120	11
90	91	11
18	18	24
138	138	20
145	146	14
32	32	40
9	10	28
115	115	32
149	149	17
68	68	13
3	4	8
90	90	25
100	100	22
20	20	12
107	107	13
124	125	16
159	160	11
44	45	15
91	93	3
174	177	2
118	119	20
142	142	36
12	13	16
162	162	15
99	99	15
136	141	3
130	130	26
174	174	21
29	29	16
33	33	31
141	141	29
121	123	9
14	14	47
101	101	24
150	150	15
42	42	35
22	23	17
148	148	33
31	31	28
17	17	37
148	150	2
89	89	22
80	80	20
111	113	2
168	168	29
75	78	1
8	9	15
26	27	2
5	5	25
157	157	13
67	79	3
63	64	9
61	61	14
100	106	2
14	16	10
130	132	4
136	136	19
137	139	8
158	161	1
7	7	20
111	112	9
23	51	4
96	99	5
152	152	22
43	43	38
17	20	3
43	44	18
140	140	14
160	161	21
125	126	6
82	82	17
55	55	33
2	6	2
23	23	44
133	134	11
123	123	19
115	117	12
100	105	2
40	40	38
8	8	15
154	154	17
7	10	8
88	89	6
114	115	4
158	158	24
24	26	1
145	145	42
65	65	25
136	138	4
72	72	18
96	97	1
54	54	13
2	2	29
52	52	15
44	65	5
155	155	23
154	159	3
179	179	18
138	139	16
35	35	38
44	44	29
76	76	14
74	74	14
97	98	16
1	1	23
67	67	15
4	4	14
113	114	11
111	111	19
126	126	18
53	86	1
63	66	3
170	170	17
146	146	37
58	59	7
120	121	9
30	30	22
79	80	6
38	38	38
85	91	2
133	161	3
135	167	3
29	30	14
155	157	12
134	137	1
98	98	11
58	58	14
93	93	6
119	120	3
169	169	19
36	36	25
11	12	20
132	132	21
56	58	4
167	167	34
119	119	28
134	134	30
120	122	4
73	73	19
92	93	10
64	64	19
11	11	36
113	113	24
78	78	26
96	96	10
65	66	9
103	103	33
91	148	2
92	92	16
41	41	36
6	6	22
146	148	3
59	59	11
160	160	13
141	143	4
145	151	4
37	37	26
139	139	34
144	150	6
67	80	3
3	3	18
158	159	12
102	102	13
137	137	20
84	137	2
149	150	5
106	109	5
27	27	17
29	31	5
171	171	10
128	128	22
176	177	9
51	51	21
124	124	17
26	28	4
105	107	10
67	134	3
107	108	15
36	102	5
56	56	18
80	81	10
81	81	14
21	24	8
14	15	7
153	153	26
9	9	21
25	25	28
141	154	2
35	37	5
114	114	21
167	168	7
172	173	7
93	94	6
25	35	2
144	146	3
156	157	12
172	174	3
177	177	12
35	36	15
75	94	2
113	118	5
2	18	3
104	105	3
81	137	3
176	176	16
160	162	17
41	106	2
45	45	22
9	11	10
16	16	20
112	113	4
65	78	3
91	91	6
79	79	15
68	79	4
16	43	1
166	166	26
157	161	2
70	70	4
39	39	30
25	27	4
117	117	28
53	53	16
85	85	6
54	56	1
173	173	21
118	118	10
120	124	1
2	5	12
108	149	4
152	153	7
144	144	15
71	72	16
22	22	24
77	77	14
106	107	7
59	61	4
87	89	4
70	71	4
161	161	2
101	104	4
57	59	5
36	37	12
123	124	16
13	30	2
92	94	7
21	21	23
11	13	7
61	62	5
129	130	22
135	135	46
50	51	12
127	150	5
163	163	11
32	33	21
157	160	2
37	38	9
63	63	15
58	60	1
148	151	2
114	148	1
153	156	3
125	125	9
88	88	8
146	150	1
110	110	24
125	135	1
60	60	8
49	49	1
126	142	4
84	84	12
24	24	21
6	9	9
62	67	5
133	133	21
66	66	13
23	26	3
13	13	34
41	42	12
117	118	7
40	41	13
151	151	11
159	159	31
121	125	6
112	114	4
34	34	9
10	10	34
40	44	2
24	25	29
163	164	3
52	53	13
175	180	2
17	18	17
165	166	8
141	151	1
157	158	17
112	112	23
10	15	2
113	115	7
71	74	4
25	26	14
116	117	5
52	54	8
33	39	1
13	43	3
23	45	1
54	55	8
124	149	1
129	143	7
122	149	4
19	20	18
23	24	8
81	86	7
38	39	6
12	12	13
22	25	6
6	22	1
26	26	16
106	106	9
131	131	16
97	97	14
30	31	11
126	128	4
164	166	3
94	95	5
131	161	3
160	166	4
110	111	10
1	6	5
20	21	5
1	2	4
130	140	3
56	59	2
127	127	34
86	86	16
164	164	10
19	19	10
62	62	20
96	98	11
162	168	2
121	130	1
57	57	17
61	66	1
161	162	12
21	25	3
10	13	4
39	40	24
135	136	14
21	23	4
135	140	5
6	7	3
64	79	4
5	6	3
85	87	1
80	82	2
150	154	5
136	140	3
168	169	14
6	10	1
15	16	8
4	23	1
88	90	2
33	34	7
71	71	13
35	92	2
129	129	19
136	137	6
140	144	4
139	140	7
18	19	8
108	108	16
81	85	1
141	142	11
154	155	10
142	143	16
100	101	5
60	61	3
81	134	4
41	89	4
105	105	12
131	133	5
148	149	5
122	123	6
124	131	1
174	175	1
23	25	1
34	35	6
101	102	9
115	118	2
169	173	10
51	66	10
82	90	1
20	22	3
143	143	21
52	86	2
121	121	16
18	21	4
27	30	9
90	101	1
28	28	19
173	174	7
164	174	2
132	137	3
0	1	10
55	85	5
108	111	3
13	15	8
83	84	5
147	147	15
174	178	6
137	140	3
131	153	5
133	156	2
74	75	11
122	124	7
97	105	2
178	178	9
104	104	5
145	150	4
132	133	7
180	180	12
75	77	3
41	45	3
172	172	18
35	93	5
72	73	13
102	103	6
136	144	3
7	8	11
123	125	6
76	77	7
123	131	4
175	175	11
27	52	2
2	3	11
132	150	2
128	135	2
138	157	3
82	87	2
33	35	2
41	43	9
37	108	5
157	159	4
171	172	8
13	14	10
165	167	6
81	88	9
105	106	4
147	148	9
99	100	4
169	171	4
3	81	1
95	95	6
15	20	3
131	132	11
156	156	7
14	17	8
39	44	1
15	21	1
65	80	6
24	29	3
122	131	1
5	8	6
62	63	6
83	83	6
16	17	5
55	56	7
137	167	7
75	75	15
109	109	10
99	101	4
116	116	15
31	32	14
77	78	6
154	158	5
122	122	10
95	96	8
91	136	2
135	142	1
112	116	2
38	40	3
54	173	1
27	28	4
10	95	2
81	82	1
67	78	1
57	58	2
167	175	3
95	123	2
65	74	2
94	102	3
71	79	3
134	136	6
35	45	1
79	153	1
153	154	7
168	174	4
24	52	4
117	119	4
156	158	1
20	32	4
146	151	5
16	19	5
165	165	12
104	106	1
0	0	11
0	17	2
141	156	2
61	122	1
108	109	4
18	24	2
61	65	7
61	110	3
130	153	1
40	45	1
170	171	11
87	91	1
160	170	1
120	123	1
41	111	4
20	23	6
146	147	6
107	109	8
151	153	2
147	152	2
130	145	4
91	94	1
6	21	2
153	158	2
101	103	3
118	120	8
73	147	1
121	122	9
119	127	1
8	15	2
17	44	2
66	71	2
51	52	3
131	152	1
153	155	4
162	164	1
126	140	2
127	135	3
3	5	4
6	23	1
3	99	1
147	151	3
87	88	7
113	146	3
36	40	2
81	83	2
18	20	6
10	16	2
21	22	3
169	170	6
34	36	3
68	71	1
130	131	1
155	166	2
63	67	1
127	152	4
9	30	1
161	168	3
82	85	4
144	145	12
104	107	1
170	175	2
42	43	4
7	9	8
5	9	3
74	117	2
135	141	1
41	44	2
77	79	6
95	101	5
140	166	7
46	46	2
94	94	5
87	87	4
5	10	3
68	78	4
168	170	3
159	161	1
2	99	1
51	61	6
16	18	10
134	135	6
171	176	3
156	160	1
66	78	1
144	149	1
137	138	3
50	50	12
112	117	6
124	162	5
82	134	2
91	144	3
64	65	1
127	128	5
93	95	1
16	27	2
0	94	1
127	140	2
82	137	2
91	92	6
151	152	3
119	121	2
91	103	1
78	81	3
156	159	1
51	54	2
22	27	1
1	100	2
65	67	4
64	82	4
84	85	4
72	76	5
98	125	1
126	129	2
143	151	2
96	122	3
152	158	1
11	16	4
26	50	1
66	67	4
130	137	2
166	178	1
12	18	1
68	70	1
106	118	2
31	33	5
43	46	3
162	163	2
73	118	1
68	80	1
38	41	3
30	33	3
162	169	1
177	178	4
52	66	1
1	5	3
78	80	2
29	44	2
4	98	1
98	99	1
73	76	1
118	148	2
94	133	3
51	62	1
27	29	1
10	11	4
3	10	1
78	115	1
8	10	3
88	137	1
155	159	1
126	150	2
32	111	1
56	57	5
106	112	2
144	152	1
25	52	2
66	108	2
52	91	3
130	150	1
37	40	3
1	30	2
139	143	3
13	17	3
61	77	2
42	44	1
25	28	1
63	74	3
5	7	3
164	165	5
129	140	1
28	29	2
2	4	1
52	60	2
113	117	2
33	37	2
133	150	1
138	169	1
14	31	2
39	43	1
36	38	1
83	86	1
90	95	2
62	77	2
134	142	4
103	105	1
42	45	1
55	58	2
146	155	1
133	137	4
144	151	2
33	36	1
133	149	2
9	31	1
128	131	1
39	41	2
90	94	2
130	146	4
13	33	1
36	93	1
43	65	2
106	108	2
139	142	1
37	42	1
169	172	2
99	124	2
14	18	1
106	133	1
143	144	1
78	79	3
89	90	1
92	103	2
62	107	2
43	59	1
155	156	2
71	108	1
109	112	2
59	60	1
42	93	1
8	11	1
90	139	2
62	66	3
103	104	1
98	123	1
53	54	3
86	87	1
96	102	1
4	5	1
88	107	1
31	39	3
154	156	1
67	68	2
127	136	2
73	75	1
52	55	1
125	129	1
137	151	1
135	144	1
0	89	1
63	80	1
141	144	1
169	176	2
102	104	2
122	130	1
97	101	2
33	38	2
174	176	1
12	43	1
119	130	3
128	129	1
146	149	1
14	39	1
37	111	1
121	126	1
9	12	1
74	76	1
61	68	1
128	136	1
63	109	1
79	133	1
131	140	1
93	96	1
10	12	1
125	130	1
42	175	1
55	61	1
135	137	1
16	23	1
7	11	1
161	164	1
150	151	2
125	166	1
126	127	1
129	141	1
179	180	1
9	146	1
