53	53	15
55	74	3
12	12	16
7	8	15
69	69	8
66	67	6
22	22	27
60	60	17
20	20	31
30	30	15
57	57	5
9	10	7
63	63	15
8	9	10
65	67	1
18	18	4
21	21	33
18	19	11
50	50	8
8	8	21
76	76	18
36	66	7
47	47	21
43	49	5
4	5	5
19	19	31
29	29	18
9	9	41
31	31	13
26	29	2
45	47	4
10	11	23
39	39	9
6	7	10
23	23	22
51	52	6
49	49	21
33	33	15
39	40	4
61	61	29
3	5	8
7	7	33
4	4	28
46	47	12
34	37	4
54	54	15
43	43	24
45	45	18
75	76	6
11	11	29
6	8	7
5	6	14
4	42	8
48	48	23
31	32	8
56	57	10
27	27	13
36	38	9
1	4	5
0	0	18
39	71	1
52	52	12
3	4	6
0	2	2
10	10	25
67	68	5
45	54	5
19	20	10
58	64	2
54	55	8
59	59	18
55	55	23
8	10	4
60	61	17
44	44	19
66	66	7
75	75	10
2	2	21
56	56	21
40	41	1
6	6	15
30	31	10
1	1	9
49	51	2
24	33	3
36	40	3
65	65	10
11	12	18
13	14	5
62	62	14
49	50	1
1	2	11
55	56	6
60	63	2
40	40	10
36	43	3
26	26	16
13	20	2
68	69	8
71	71	3
51	51	3
41	42	12
59	60	7
33	47	2
74	76	1
24	24	21
44	49	3
13	13	17
72	72	8
35	36	3
4	38	3
2	5	1
44	55	1
24	28	2
47	55	2
74	74	15
50	51	7
36	68	3
72	73	11
36	37	7
3	3	30
53	54	11
44	47	2
64	64	18
25	25	7
42	42	11
27	28	9
35	35	10
46	46	19
5	5	16
77	77	3
34	47	4
35	66	1
41	41	3
12	13	6
67	67	17
40	69	5
62	63	3
44	45	6
68	68	18
23	24	2
33	53	4
2	3	4
37	38	5
23	25	5
55	60	3
2	8	2
25	26	8
39	54	1
32	33	6
48	49	3
33	34	6
47	49	2
28	28	9
32	32	15
34	34	11
34	48	1
48	51	1
26	27	7
22	24	1
2	9	3
0	1	11
57	58	5
71	74	1
47	48	7
25	30	5
58	59	2
30	33	1
37	37	14
64	66	3
32	46	2
3	38	2
64	65	6
37	42	2
30	51	3
45	46	8
73	75	2
21	22	5
29	32	1
34	35	1
70	70	2
22	23	5
42	65	1
38	38	9
58	58	3
4	40	3
38	39	2
28	29	4
36	36	12
24	29	1
50	54	2
7	9	2
2	7	1
42	68	1
43	45	2
39	41	4
43	44	2
35	40	3
20	21	10
72	74	5
74	77	1
73	73	4
31	54	1
21	56	3
64	67	3
3	45	1
56	77	1
65	66	3
34	41	1
73	74	2
63	64	4
14	14	1
42	43	2
34	40	3
48	53	4
29	33	3
12	20	1
25	28	1
42	44	1
29	30	3
48	63	1
46	56	1
1	6	2
66	68	3
69	70	2
48	55	1
35	37	1
31	53	2
57	63	1
56	60	2
61	71	1
10	12	2
4	6	1
63	65	1
43	67	3
19	22	1
24	25	4
13	19	1
2	42	1
43	48	2
59	61	4
31	52	1
4	36	2
58	65	1
68	71	2
3	36	1
37	39	1
26	28	1
39	73	1
1	7	2
36	39	1
32	47	1
8	12	1
21	27	2
70	74	1
10	21	1
7	10	1
57	74	2
71	72	1
34	43	1
30	53	1
56	62	2
22	28	1
69	71	1
76	77	3
70	71	1
29	31	1
63	66	1
9	11	1
2	4	1
7	22	2
56	74	1
48	75	1
26	30	1
63	67	1
23	54	1
70	73	1
70	72	1
30	32	1
24	62	1
18	20	1
31	51	1
