186	186	18
20	20	6
171	172	4
191	208	8
26	27	3
152	163	2
175	175	5
241	242	2
63	63	8
188	188	6
46	46	13
31	32	1
74	74	3
19	20	4
207	207	7
178	183	2
211	211	6
161	161	11
119	119	13
210	211	11
66	91	1
181	181	7
161	162	4
10	19	1
89	89	4
93	93	9
92	92	14
226	227	5
182	182	13
150	150	9
179	186	4
173	174	7
14	37	2
29	29	18
15	48	2
180	181	5
236	236	14
164	165	6
153	154	3
104	105	5
157	157	16
210	210	23
48	48	3
67	68	2
204	204	15
222	223	4
177	177	4
164	164	4
87	87	8
180	180	15
32	33	1
7	7	4
72	72	2
193	193	2
176	176	11
57	57	4
49	77	1
112	118	6
194	236	2
56	56	18
6	6	7
51	51	4
38	38	17
171	188	2
44	44	6
86	86	2
80	80	6
240	240	13
160	160	10
185	186	6
168	169	4
201	201	6
233	234	2
112	112	4
234	234	4
177	178	9
97	97	9
193	195	2
58	58	6
90	91	2
178	178	5
144	145	6
52	53	7
210	213	2
156	156	17
165	165	6
190	196	4
152	152	5
53	54	3
235	235	7
113	113	15
162	162	10
221	221	19
207	214	4
106	106	5
104	106	4
5	37	3
82	83	3
218	218	10
155	155	15
223	225	4
119	120	1
229	229	6
14	242	2
78	83	7
14	14	3
91	91	2
187	187	5
32	32	12
215	215	11
167	167	8
44	45	2
235	241	4
34	34	17
241	241	14
5	5	11
75	75	5
238	238	5
51	85	3
177	184	5
175	196	1
27	183	2
55	56	3
12	33	2
150	151	9
107	107	6
110	110	13
226	226	4
196	197	11
53	53	9
39	39	5
169	169	15
243	243	10
9	9	5
179	179	15
206	207	9
29	30	3
170	170	11
214	215	3
88	108	4
87	88	3
159	160	1
14	234	2
166	166	13
146	147	1
190	190	7
214	240	3
208	208	13
30	36	2
214	214	11
217	240	2
85	85	1
193	194	5
234	235	12
160	161	6
77	109	3
192	192	8
211	212	4
228	228	8
153	153	14
203	203	7
36	36	4
162	163	7
145	145	6
65	65	8
158	163	6
94	94	12
178	184	1
15	20	5
59	59	7
52	52	13
188	194	3
61	61	2
95	108	2
18	18	8
41	41	13
38	39	3
14	15	2
196	196	2
95	95	8
57	58	4
94	108	2
8	8	13
113	115	1
24	24	6
224	225	7
101	101	7
197	197	12
15	15	3
233	233	7
174	175	2
221	228	3
186	187	1
20	21	8
228	229	7
67	67	4
68	75	2
106	110	4
60	60	6
195	196	1
19	19	7
96	96	2
55	55	6
225	231	3
169	210	4
39	40	3
43	44	2
98	99	7
58	59	2
81	83	1
176	177	2
193	208	2
227	228	5
45	46	2
172	172	6
98	98	1
215	216	2
181	183	1
42	42	10
78	78	6
86	87	5
205	205	10
172	173	7
200	238	1
154	155	2
185	185	13
12	12	8
64	64	5
194	194	5
71	71	4
47	48	2
110	155	3
224	224	12
114	114	5
209	210	8
117	118	3
3	28	3
34	35	8
208	226	3
248	248	4
74	75	3
26	26	11
10	10	8
154	154	13
35	35	7
239	239	3
69	70	6
172	234	1
22	23	2
183	183	4
166	199	1
22	22	8
191	192	6
207	208	2
209	209	23
174	176	1
70	70	6
11	11	5
115	115	7
106	118	4
146	153	2
208	213	2
198	198	9
201	202	4
110	111	5
151	151	7
221	226	2
30	30	6
85	86	7
212	212	5
21	21	9
205	206	3
213	213	7
242	246	1
35	43	3
223	224	6
199	199	3
200	200	9
17	17	7
236	237	3
235	236	1
191	191	6
197	198	4
245	245	6
70	71	2
97	98	10
213	214	8
159	159	9
146	148	1
165	168	1
54	87	2
43	43	7
78	79	2
149	156	2
51	95	4
25	25	7
163	164	3
101	105	1
109	109	8
111	111	5
240	241	2
192	196	3
184	184	1
177	179	3
99	99	5
220	222	2
68	68	12
84	84	11
241	244	1
72	73	2
177	182	1
188	189	2
6	9	1
23	23	3
109	110	3
219	219	3
231	231	4
41	42	3
216	216	7
190	191	3
31	49	2
117	117	1
191	237	4
157	158	3
192	208	1
83	84	2
64	66	3
179	180	3
203	225	4
3	5	2
54	54	5
0	1	1
196	200	1
244	246	3
55	59	3
37	37	2
158	158	3
221	222	5
60	63	1
35	118	1
152	153	2
243	244	4
242	242	11
200	201	3
33	35	1
178	187	5
157	171	5
116	116	18
31	31	7
170	171	7
108	236	1
16	16	6
99	101	3
37	38	3
163	163	12
59	60	6
175	176	3
76	106	3
36	40	5
79	79	4
113	114	1
190	193	2
225	225	2
40	43	2
151	152	2
230	230	6
94	95	1
218	219	2
209	212	4
62	63	3
163	165	4
227	227	3
4	14	1
84	85	2
4	20	2
78	84	3
238	240	3
47	47	6
88	88	5
150	156	4
77	79	2
237	237	4
28	28	3
70	75	1
212	247	1
27	28	4
162	164	1
100	100	5
77	77	6
93	94	5
12	19	1
80	81	2
76	76	6
217	236	1
217	241	4
14	17	1
104	104	1
183	201	2
151	154	2
57	59	1
64	65	2
28	29	3
36	53	2
222	222	2
48	51	1
77	107	1
194	195	3
180	182	2
75	76	8
6	11	2
11	230	3
173	173	3
4	5	4
171	171	7
209	211	1
181	186	3
232	232	2
171	175	2
191	193	4
91	93	1
197	235	3
4	49	1
187	188	4
247	248	1
8	33	1
151	223	1
21	64	1
88	103	1
27	27	2
223	223	3
170	178	1
106	107	3
168	236	1
3	4	1
208	209	4
165	166	3
110	247	2
11	35	1
221	227	1
229	231	3
91	92	4
77	78	6
220	220	9
108	108	2
51	53	1
23	204	3
147	147	4
49	49	3
70	73	1
90	90	7
202	202	6
21	22	2
114	115	1
45	45	1
52	67	4
208	235	2
173	209	1
4	4	1
238	239	1
95	112	1
152	154	1
111	113	2
25	26	1
153	164	2
172	174	8
10	18	1
168	168	4
49	50	2
29	31	2
183	199	2
220	221	2
120	145	3
10	230	2
145	147	4
73	107	2
112	115	1
56	57	3
142	142	1
209	236	2
63	92	2
247	247	3
96	97	2
203	233	1
3	22	3
51	114	2
72	75	1
33	51	2
174	197	2
33	33	2
229	230	3
149	149	4
32	46	3
115	116	2
49	120	1
41	156	1
62	62	4
76	79	2
66	67	2
145	161	1
42	43	3
37	160	2
31	202	1
30	37	3
45	65	1
179	181	1
5	39	2
7	40	2
9	55	2
178	182	1
170	175	2
202	203	1
105	106	1
40	41	1
206	206	1
239	240	1
213	215	2
24	52	2
230	231	3
51	52	1
112	113	1
147	161	1
173	205	2
69	69	4
38	40	1
230	233	3
67	93	1
162	165	5
90	99	1
111	118	2
105	105	1
116	118	1
66	66	2
18	22	1
116	117	1
246	246	1
204	205	1
77	80	2
202	224	1
182	183	2
173	186	1
174	174	2
233	235	3
54	55	1
50	95	2
30	34	1
170	210	1
77	82	1
108	109	1
241	246	1
2	5	1
112	114	1
195	195	1
156	170	2
101	107	1
92	94	1
248	249	1
18	31	3
76	78	1
33	49	1
198	199	1
215	227	1
212	236	1
111	245	1
10	36	1
179	204	1
172	182	1
198	213	1
197	200	1
60	61	1
156	157	1
99	104	1
89	90	1
159	165	1
113	117	1
152	175	1
58	60	1
118	119	2
157	163	1
15	29	1
159	166	1
30	38	1
180	184	1
11	12	1
244	244	1
164	200	1
120	155	1
216	218	1
29	36	1
11	38	1
215	240	1
231	234	1
5	29	1
177	187	1
50	50	1
9	33	1
97	99	1
107	108	1
41	43	1
42	44	1
68	73	1
193	196	1
