17	17	12
1	1	8
0	28	1
49	50	3
69	69	13
72	72	11
4	4	6
83	83	5
13	17	11
81	81	15
64	77	5
5	5	12
47	56	4
30	30	10
58	58	9
54	54	14
89	89	12
59	59	6
82	82	14
20	20	9
64	81	3
27	28	1
67	67	19
73	74	5
79	79	6
47	48	6
21	21	11
85	85	8
66	67	7
80	80	6
69	70	3
83	84	6
14	14	12
11	11	14
12	13	10
51	55	6
19	19	12
46	53	3
21	26	2
53	56	4
47	47	4
56	56	28
84	84	10
6	6	15
61	83	8
56	69	1
71	71	9
2	2	16
15	15	22
77	78	1
5	53	5
10	10	14
74	74	10
88	88	6
50	50	14
22	23	3
86	86	11
19	27	1
46	46	6
57	80	2
22	24	2
55	75	3
55	63	1
20	26	1
15	24	5
3	3	16
62	65	1
53	53	16
76	77	6
54	77	1
9	49	3
55	58	1
78	78	6
23	23	17
63	63	9
18	18	7
65	66	1
26	27	6
87	87	18
75	75	18
1	11	1
22	22	5
55	55	7
66	74	2
58	86	4
65	65	17
66	81	6
4	19	4
49	49	8
50	70	3
51	52	2
7	46	4
61	61	8
49	66	2
86	87	1
70	70	6
78	81	4
62	62	5
62	78	4
52	54	2
59	63	5
79	80	15
1	2	2
0	0	5
66	66	15
76	76	10
0	2	1
27	27	7
25	25	3
34	34	21
12	12	5
60	62	9
24	24	13
10	12	1
77	77	7
72	74	3
81	83	4
17	46	2
9	10	9
54	58	2
60	83	4
29	30	2
5	6	2
56	57	5
0	1	2
47	52	5
77	79	4
8	8	6
62	63	3
74	75	3
31	31	6
71	79	2
22	27	4
6	8	1
64	64	13
87	89	2
31	80	6
55	59	2
8	11	1
20	80	1
52	55	1
23	24	2
28	28	2
65	76	4
68	68	10
59	82	2
75	79	3
31	48	3
50	75	1
59	61	6
12	17	2
87	88	4
56	80	4
8	50	5
7	7	3
63	64	2
16	18	3
5	68	1
71	74	1
68	69	1
82	83	3
53	54	1
54	79	4
23	29	1
26	26	5
55	56	1
75	76	4
56	68	1
49	63	1
54	78	2
16	17	2
31	49	2
61	62	4
3	4	2
13	13	2
49	79	4
52	53	3
5	12	4
21	52	2
82	84	1
53	77	3
78	79	2
57	57	16
60	61	3
30	87	3
11	13	1
48	48	4
51	51	3
50	51	3
67	68	4
31	78	1
60	78	1
16	16	3
88	89	1
48	65	1
59	60	1
6	7	4
21	48	1
9	9	6
17	25	1
80	84	4
19	21	2
34	46	1
51	66	1
9	14	1
25	27	1
21	51	3
68	71	1
22	26	1
63	66	2
60	60	3
52	52	5
58	61	1
8	10	2
67	71	2
80	81	3
51	65	4
57	86	2
29	29	1
1	28	1
6	52	2
19	20	1
49	82	2
64	65	1
81	84	1
34	35	1
9	12	3
11	21	1
21	22	2
48	49	1
72	83	2
52	67	1
59	62	2
20	49	2
19	84	2
20	21	2
30	31	2
8	9	1
12	18	2
72	89	1
73	73	2
76	78	1
4	22	2
7	34	2
51	64	2
57	58	1
72	73	2
12	16	1
51	54	1
47	49	2
60	81	2
30	50	2
10	28	1
50	78	1
19	50	1
25	26	1
47	82	1
66	82	1
61	64	1
59	64	1
7	8	1
64	80	1
50	52	1
50	66	1
