136	136	9
28	28	12
134	134	4
106	106	3
135	135	8
90	90	2
113	115	2
112	112	4
99	100	3
6	6	4
115	118	4
37	37	9
117	117	8
132	133	5
114	114	5
111	111	12
131	131	11
9	9	6
80	113	5
26	26	2
115	126	1
24	24	13
4	29	6
133	133	7
88	88	6
104	104	4
96	96	9
102	107	2
27	32	4
10	10	5
89	89	6
29	30	1
81	81	1
13	13	10
17	21	2
34	34	4
113	113	2
126	127	7
108	108	1
2	13	2
14	15	6
3	6	1
33	33	4
74	77	3
10	12	2
11	11	8
104	105	3
84	84	9
107	112	3
99	99	8
15	16	5
109	109	5
14	14	5
0	0	4
108	116	2
78	78	10
101	107	4
90	91	2
30	30	9
95	95	2
0	1	3
96	97	3
80	80	4
116	117	1
6	8	5
71	71	10
19	20	5
11	24	3
22	22	3
101	102	2
14	27	1
29	29	8
73	74	4
87	87	3
118	118	2
110	110	3
31	31	6
129	130	7
107	107	6
120	120	1
27	27	3
116	116	4
92	97	4
7	8	7
22	25	1
138	138	2
126	126	10
98	98	3
110	115	2
74	74	6
101	101	5
8	8	4
18	32	2
92	92	2
38	38	4
119	119	3
128	128	6
121	121	2
108	110	1
84	85	5
12	21	2
134	135	3
126	129	1
18	18	5
6	27	3
137	137	8
100	100	6
75	75	2
19	81	3
1	1	3
16	16	4
92	94	1
103	107	2
115	115	4
98	100	2
12	13	5
21	21	3
23	23	3
129	129	7
106	107	2
121	122	2
81	84	1
127	127	7
4	4	9
15	15	1
120	121	2
19	27	3
10	11	1
9	13	2
97	97	4
35	35	9
76	80	1
93	93	2
120	122	2
125	126	2
76	83	2
7	7	3
103	112	2
2	2	5
139	139	2
20	30	2
35	72	1
7	9	1
5	8	1
25	25	4
30	76	1
77	77	2
93	94	6
83	84	1
140	140	2
82	85	1
2	3	1
20	20	1
19	21	2
9	23	2
86	99	1
91	91	2
139	140	4
3	5	1
132	132	2
32	32	1
24	25	1
97	98	1
85	85	2
86	86	5
130	130	1
94	94	1
112	113	2
118	119	3
24	122	2
20	126	1
98	99	1
80	112	2
103	109	1
78	79	2
19	19	4
102	102	1
16	17	2
29	31	1
13	25	1
117	121	1
122	122	3
76	76	5
73	73	3
103	103	2
18	91	1
5	5	1
103	104	1
82	82	2
17	17	2
138	139	1
8	9	3
114	115	1
95	96	1
85	87	1
23	122	1
119	122	2
83	83	1
117	119	1
12	12	1
9	14	1
79	86	1
34	74	1
20	118	1
