73	73	29
55	55	36
17	17	34
75	76	12
35	35	19
36	36	11
11	14	5
29	29	21
57	57	19
60	60	12
6	6	33
16	17	8
3	3	20
9	16	2
79	79	35
38	39	15
40	40	10
47	48	7
4	4	26
1	1	25
56	56	19
74	74	43
41	41	40
76	76	30
13	31	2
31	31	9
9	9	17
72	72	19
4	59	6
47	55	2
70	74	3
8	8	28
65	65	22
74	75	17
37	37	31
66	66	19
27	27	30
30	30	13
38	38	32
39	39	28
34	50	4
64	64	24
49	49	30
78	78	26
71	71	16
47	47	26
69	69	11
59	60	5
50	50	7
6	80	1
59	59	22
62	62	16
2	2	25
45	45	12
75	75	27
8	9	4
28	28	19
54	54	14
80	81	2
42	42	36
58	58	16
77	78	4
3	4	4
19	19	19
12	31	4
26	26	43
63	63	18
53	54	7
46	46	19
3	5	2
12	14	2
70	78	1
37	38	10
67	67	14
9	10	1
11	11	15
50	52	2
70	70	13
48	48	28
7	8	10
80	80	17
19	20	7
20	21	1
21	33	5
49	52	4
36	37	5
77	77	31
35	36	7
46	47	8
10	10	20
34	34	16
33	33	11
12	12	7
57	73	1
21	21	8
81	81	2
3	6	1
7	7	24
33	34	8
40	41	6
68	68	6
20	20	5
14	14	9
4	5	8
48	49	7
14	22	1
18	19	3
25	25	5
53	53	6
42	43	7
8	10	1
37	40	6
12	13	15
2	3	3
62	63	2
70	71	7
34	39	2
5	5	15
79	80	10
61	61	21
69	80	2
0	0	13
15	15	8
19	21	1
18	56	2
61	62	7
70	72	5
29	47	8
30	46	4
10	11	9
26	27	4
32	32	2
44	49	10
17	66	2
27	28	4
18	18	5
28	30	3
16	16	21
33	38	1
29	30	8
12	30	3
55	56	4
73	78	2
43	47	3
53	55	1
39	40	5
6	7	3
73	74	8
58	59	11
4	6	3
68	70	4
34	46	1
18	28	6
76	77	7
39	42	2
37	41	2
43	43	4
44	46	3
34	35	5
60	61	3
50	51	1
41	45	1
10	13	7
57	59	1
47	76	3
19	42	2
38	40	3
38	66	7
61	65	4
65	66	2
67	80	3
5	7	7
60	63	3
34	37	4
5	6	4
49	76	2
67	68	8
1	2	8
13	13	9
0	5	2
16	37	2
45	46	4
60	62	2
15	55	1
63	64	2
0	1	2
71	72	4
56	57	5
14	15	1
77	79	1
41	42	3
28	73	2
68	69	1
48	71	1
51	52	1
61	74	3
45	49	4
66	67	1
76	78	3
44	45	1
36	40	2
20	34	3
48	54	1
1	5	1
62	68	3
51	51	1
68	78	2
72	73	1
27	47	1
31	32	3
66	69	1
52	52	2
19	32	2
33	43	1
50	53	1
32	33	1
21	26	1
17	18	1
3	8	1
15	16	1
34	42	1
47	75	2
16	66	1
4	7	1
30	32	2
36	39	1
64	65	1
39	43	2
2	6	1
56	59	1
35	40	1
6	25	1
12	22	1
1	6	1
