58	71	2
77	77	14
62	62	9
49	49	7
51	51	12
68	73	5
84	84	11
89	90	8
81	81	11
84	85	7
56	56	19
96	96	16
53	54	5
85	85	8
24	24	18
76	76	13
45	49	2
71	71	7
23	23	9
80	82	4
70	73	7
59	60	14
43	44	5
100	100	9
90	94	1
99	99	15
95	95	5
48	49	6
35	35	6
53	53	8
44	46	1
42	45	5
55	56	14
23	24	2
82	82	5
63	64	2
34	34	2
24	30	3
52	53	6
90	106	2
57	65	3
60	62	7
75	75	13
74	75	1
66	66	9
25	26	4
92	92	9
29	30	5
30	31	6
83	83	5
82	85	2
90	90	6
60	61	2
98	98	4
88	89	3
65	65	6
93	93	19
30	30	7
27	27	1
58	58	7
25	25	20
94	94	12
69	69	15
87	87	7
79	79	8
32	37	1
31	32	8
45	45	13
49	50	3
101	102	3
42	42	9
61	61	16
69	70	1
51	52	6
90	91	8
51	53	7
75	77	2
80	80	13
87	88	4
56	58	2
73	74	6
45	50	1
86	87	4
21	21	12
33	51	2
57	61	1
104	104	3
96	97	6
79	80	3
97	99	5
35	51	5
89	89	3
101	101	10
77	79	4
102	102	8
22	32	3
59	59	10
74	74	18
83	85	3
38	38	12
67	67	17
100	101	7
39	57	1
33	33	8
61	74	2
73	73	10
72	81	3
102	106	1
69	72	3
39	39	10
86	86	2
105	105	9
76	77	5
31	31	15
58	61	6
87	89	2
67	69	7
82	86	3
64	64	10
28	28	3
55	55	9
60	78	4
26	27	9
33	35	1
28	32	3
62	63	10
40	41	2
28	29	2
91	91	4
40	46	3
36	36	5
70	70	11
38	44	3
61	65	3
36	37	6
33	34	10
82	84	2
78	78	10
57	58	4
97	98	4
32	34	2
95	99	1
93	95	4
64	65	7
24	25	7
21	30	2
100	102	7
63	63	3
31	33	3
40	40	8
38	50	1
38	39	2
68	96	2
37	41	3
80	81	7
71	72	3
64	77	2
20	21	4
82	83	3
46	47	2
41	41	4
104	105	2
20	30	1
95	97	4
92	93	2
85	89	5
39	40	4
45	52	3
99	105	1
62	88	2
95	96	1
57	57	7
106	106	6
72	72	5
84	86	3
37	39	2
102	104	1
77	92	3
73	75	1
99	100	1
43	49	1
37	38	5
93	99	1
26	49	2
103	103	8
74	91	2
68	68	5
101	106	1
93	94	4
61	62	5
99	106	1
91	92	1
31	39	1
25	30	3
46	46	5
67	70	2
70	71	7
49	51	2
89	93	2
50	50	2
29	29	3
27	32	2
58	60	1
37	37	3
41	42	5
35	37	1
28	31	2
42	43	9
88	88	2
96	99	3
56	57	3
26	26	4
97	97	3
82	95	1
84	88	1
68	69	3
50	53	1
24	49	3
47	47	5
65	66	1
22	22	4
56	59	1
40	45	2
83	95	1
32	32	1
43	43	3
77	78	4
83	84	1
101	104	1
38	42	1
54	54	6
95	101	1
57	60	1
35	36	2
69	73	1
78	79	5
71	75	1
21	35	1
51	57	2
63	66	1
34	39	2
21	22	2
85	86	6
71	74	1
63	65	1
58	59	2
55	57	1
93	96	1
34	35	1
22	23	1
72	73	3
28	30	1
81	82	2
60	60	4
54	56	1
37	53	2
76	79	2
76	78	2
81	83	1
98	104	1
35	48	3
36	51	1
26	48	1
22	25	1
52	58	2
24	29	1
78	82	1
25	29	2
20	20	2
41	43	1
104	106	1
90	93	1
69	71	1
91	93	1
75	80	1
32	33	1
79	88	2
42	101	1
80	88	1
67	68	1
88	90	1
46	48	1
54	55	1
25	31	1
52	52	1
96	106	1
