24	24	9
43	43	7
54	57	10
56	95	1
76	76	8
48	48	8
74	75	3
50	50	12
37	39	2
82	84	7
63	64	6
106	106	4
100	100	7
104	106	4
41	42	4
62	62	5
98	98	5
61	61	7
80	80	4
93	94	4
47	52	2
53	83	3
54	55	5
21	100	4
96	97	5
63	63	2
30	31	3
58	82	2
31	33	6
96	98	2
83	83	2
35	35	7
65	69	3
60	60	4
46	46	6
19	59	4
73	73	3
92	92	5
66	66	1
77	77	2
69	69	2
103	103	5
68	68	5
59	97	5
93	93	6
74	96	8
90	91	1
72	73	3
77	78	2
44	47	1
103	104	2
111	111	5
63	70	5
41	41	3
26	27	3
53	59	3
71	71	6
94	94	3
24	25	5
75	75	8
38	93	4
47	49	6
95	96	2
95	109	4
38	91	2
51	52	7
97	99	2
51	51	4
71	76	5
82	82	5
110	110	7
87	87	5
70	70	1
29	29	11
105	105	4
99	99	5
56	56	4
32	32	6
76	77	2
60	100	1
58	58	2
21	21	12
69	85	3
30	30	2
82	107	6
31	31	7
62	81	1
108	108	1
36	36	1
107	107	10
89	89	2
74	99	1
87	88	1
59	101	3
27	27	6
86	96	3
113	113	5
46	47	2
55	56	3
89	91	1
42	44	1
54	58	3
53	57	1
42	42	1
47	48	5
79	79	1
97	97	5
73	75	1
89	90	1
109	109	5
74	74	2
29	52	2
88	89	1
73	74	2
70	71	3
66	67	8
92	98	1
22	24	4
86	86	1
81	86	2
43	44	1
101	108	3
96	96	3
109	111	2
69	70	4
20	20	5
103	107	2
57	57	3
108	109	2
70	87	1
20	107	1
82	83	1
86	109	1
61	66	1
22	22	5
26	26	1
53	60	2
95	95	3
91	93	3
59	59	2
87	89	2
94	97	1
54	69	4
96	105	2
63	65	1
112	112	6
49	49	4
84	85	2
46	87	2
37	37	1
81	81	4
90	90	2
40	41	2
68	69	1
51	55	1
23	25	3
102	102	1
23	23	1
75	82	1
104	105	2
78	78	2
101	101	3
40	40	1
98	100	2
33	33	4
58	84	1
55	105	1
64	64	1
97	98	1
34	35	2
32	33	1
59	86	1
107	108	1
64	65	2
59	60	1
104	104	1
33	44	1
108	110	1
25	25	1
39	44	1
88	88	2
50	51	1
98	102	1
29	34	1
106	110	1
60	107	1
85	86	1
96	104	1
58	60	1
34	34	1
92	95	2
82	85	1
46	88	1
110	111	1
105	107	1
32	34	1
54	54	1
38	38	1
51	56	1
47	47	1
37	46	1
