140	140	9
17	17	11
137	138	9
24	24	6
107	107	2
29	29	10
32	33	1
87	87	1
128	128	10
136	136	11
120	122	2
37	37	16
96	96	4
98	98	11
26	26	8
99	99	7
80	119	2
4	13	3
8	11	1
33	33	8
125	126	3
27	110	3
9	11	3
1	140	2
127	128	5
102	102	3
9	24	2
131	131	9
135	135	12
132	139	1
85	85	4
7	11	5
4	4	3
18	120	3
0	0	3
127	127	24
126	133	2
16	16	7
7	8	7
75	76	4
111	114	2
28	28	4
28	117	1
9	10	3
92	99	3
120	121	10
103	103	8
129	129	2
132	132	7
117	117	19
22	22	2
131	135	2
81	82	3
139	139	6
27	30	6
130	130	3
108	108	5
23	23	9
92	116	1
104	125	3
112	115	3
134	134	4
90	90	5
89	89	6
101	135	1
92	92	3
12	12	4
1	2	2
19	121	1
32	91	2
82	85	4
125	125	11
94	94	7
2	14	1
126	126	11
32	32	8
115	116	2
77	77	5
34	34	4
0	2	1
111	117	1
24	31	3
100	100	13
138	140	1
71	104	2
106	106	6
84	140	1
5	130	2
2	23	1
123	124	4
79	80	2
95	98	4
72	75	2
83	84	3
81	81	3
133	138	3
115	115	4
113	114	1
134	135	4
88	88	6
5	6	4
8	10	6
21	21	6
97	98	1
102	113	2
3	3	2
28	126	3
107	123	2
112	112	3
121	121	10
110	110	1
119	120	1
136	139	3
89	90	5
124	124	9
93	94	3
72	72	2
103	108	4
20	20	4
133	134	3
140	141	2
75	79	3
116	116	4
28	122	2
27	28	3
135	137	3
35	35	7
138	138	1
82	83	1
26	88	2
86	90	2
6	131	4
110	114	2
109	109	10
71	73	2
107	108	2
133	133	2
120	120	6
132	134	2
113	113	7
2	133	1
85	87	2
75	75	5
13	13	8
11	11	6
124	138	2
5	5	1
78	79	5
17	18	3
101	103	2
22	23	2
5	20	1
97	97	1
83	83	1
102	121	2
73	120	3
106	107	1
109	112	3
101	101	2
139	140	2
115	117	2
23	25	1
111	111	5
73	73	2
25	36	2
117	122	1
31	31	1
102	107	2
112	113	2
116	121	2
126	136	1
38	38	3
121	122	1
98	99	4
19	22	1
79	122	1
25	26	2
131	132	2
92	121	1
76	76	3
78	78	5
96	125	1
112	116	1
122	122	4
15	22	3
1	1	4
98	100	2
128	129	6
22	27	2
95	95	3
18	74	2
14	14	1
19	19	4
84	87	1
3	4	3
93	107	1
123	123	3
121	123	3
7	7	2
2	2	2
0	3	2
82	130	3
101	117	1
27	27	3
114	114	3
105	107	1
108	109	3
100	101	1
132	135	1
9	9	1
82	82	1
114	115	3
74	74	4
81	119	1
2	13	1
13	128	1
21	112	1
109	110	2
118	118	2
80	80	1
94	96	1
15	140	2
112	122	1
35	37	1
95	96	2
135	136	1
15	21	1
118	119	1
13	14	2
25	30	1
94	103	1
91	91	1
103	122	1
10	12	2
24	32	1
37	38	1
10	11	1
84	84	1
72	84	1
2	140	1
31	78	1
124	125	1
