11	11	6
2	3	1
129	129	9
12	13	4
108	108	3
155	155	7
13	13	8
97	98	4
4	7	4
8	8	15
153	174	2
179	180	1
67	67	6
103	103	5
102	103	2
137	168	2
24	24	7
33	33	5
141	141	4
112	113	4
158	163	1
99	99	6
27	27	8
25	33	5
76	76	10
78	79	3
101	101	3
143	143	5
18	19	17
40	41	3
22	22	10
72	94	1
177	179	2
71	71	7
176	176	15
43	43	7
5	6	5
169	169	9
5	15	1
134	134	7
164	165	1
131	142	1
61	61	2
5	5	10
57	57	4
111	111	1
140	140	11
104	105	2
16	16	7
142	142	5
44	44	6
15	15	12
75	84	5
79	79	4
148	148	3
102	108	2
158	166	2
6	6	4
133	133	9
2	2	5
177	177	2
135	136	1
115	115	1
137	137	3
117	117	3
20	21	2
44	45	3
151	153	3
7	7	10
41	41	3
19	19	6
36	125	2
161	162	2
32	33	1
8	10	1
14	14	10
66	92	5
180	180	7
153	153	11
132	132	2
138	138	8
162	162	2
150	153	4
38	39	5
121	121	5
87	87	3
77	77	5
156	156	1
97	97	4
6	7	6
50	72	2
34	36	5
17	18	2
116	135	2
95	95	4
114	137	2
32	32	6
18	20	6
92	92	5
6	26	5
171	172	1
112	135	2
60	61	1
7	9	4
25	25	12
80	80	4
3	7	3
22	33	4
56	58	4
0	0	3
172	172	4
99	101	1
127	128	4
42	42	8
173	173	3
1	1	5
24	43	1
72	72	2
161	165	2
159	159	4
28	28	11
131	131	4
139	139	7
44	59	2
56	56	1
68	68	3
59	59	1
127	146	4
31	31	9
42	68	2
142	143	6
99	100	2
112	112	5
84	84	1
10	14	1
118	119	4
106	120	1
118	118	6
42	93	2
167	168	2
38	40	4
2	9	2
26	26	9
37	37	2
62	62	2
23	23	3
81	91	2
157	157	8
21	21	2
12	26	5
109	113	6
89	89	4
123	123	8
82	126	2
156	157	1
55	57	1
128	129	3
126	128	1
83	83	2
94	94	2
9	15	1
117	124	4
93	93	1
151	159	3
165	167	1
60	60	5
102	158	1
75	75	3
23	24	3
121	122	3
10	10	2
65	65	4
175	175	3
65	67	2
11	13	2
153	160	1
64	65	2
93	94	1
5	10	1
53	124	2
52	52	3
5	14	2
90	176	3
70	71	2
66	66	2
58	77	1
2	26	4
146	146	2
57	125	6
64	64	5
112	147	6
102	104	2
24	31	1
85	89	2
19	20	3
171	171	6
3	3	1
155	156	2
147	147	3
38	38	5
106	106	2
78	140	1
68	90	1
175	176	1
170	176	2
9	9	10
140	168	1
151	151	8
110	163	4
1	7	3
22	23	2
49	50	3
133	134	4
106	144	4
8	9	5
126	126	2
73	73	7
54	54	3
30	30	4
149	149	2
35	35	3
17	19	2
18	28	2
19	41	1
43	44	2
153	172	1
157	159	2
144	144	3
164	164	1
122	122	4
45	46	2
39	39	7
102	106	2
55	55	1
153	171	3
108	109	1
168	169	2
178	178	2
164	166	3
50	135	1
160	162	4
71	86	1
150	155	1
87	88	1
17	17	2
55	90	2
119	121	1
78	136	1
29	29	3
45	45	3
79	80	5
40	42	1
3	21	2
136	164	2
50	50	1
112	136	3
101	109	1
63	96	5
53	112	2
127	151	4
169	170	4
117	119	1
60	64	3
119	119	6
81	102	1
6	8	1
26	28	1
152	174	1
18	18	4
116	116	3
53	53	3
149	163	2
83	85	1
140	142	1
168	168	1
111	179	1
34	34	1
6	24	2
114	114	2
22	35	1
74	74	1
109	109	2
140	146	1
150	150	3
65	77	1
31	34	1
98	98	1
113	113	3
105	105	3
103	104	1
107	107	2
24	26	1
21	22	1
4	4	5
77	78	2
127	127	3
16	17	4
29	31	1
152	152	2
60	75	2
101	114	1
54	56	1
105	145	1
124	124	1
18	31	1
2	4	2
104	106	2
161	161	1
5	7	1
44	67	1
115	116	1
6	15	2
58	58	1
20	20	1
19	27	1
82	82	1
154	174	1
30	31	2
4	15	2
57	60	3
174	176	3
37	38	2
126	127	2
16	40	1
29	30	1
1	2	1
22	24	2
176	178	1
127	137	2
3	12	1
170	170	2
137	138	1
110	110	1
68	100	1
51	63	2
7	10	1
140	141	1
145	146	1
62	96	2
136	174	1
19	22	2
104	104	2
149	162	1
4	5	3
83	98	1
84	85	1
100	100	2
12	12	2
32	37	1
117	128	1
130	141	1
6	20	1
59	65	1
114	125	1
125	125	3
1	16	1
6	9	2
110	111	1
145	145	1
145	162	1
14	27	1
167	167	1
160	160	2
154	155	1
143	144	1
76	77	1
3	5	1
152	162	1
135	135	1
50	67	1
38	71	1
101	102	1
59	60	1
122	123	1
61	63	1
96	97	1
35	36	1
147	148	1
30	35	1
13	14	1
112	126	1
