164	164	7
42	42	11
30	30	13
12	12	9
68	68	28
101	101	14
5	5	17
83	84	5
196	197	8
135	153	4
59	60	3
38	38	17
182	182	17
190	190	14
149	149	38
193	193	11
151	161	3
133	134	5
44	44	10
70	70	8
100	100	14
46	53	4
54	57	5
159	159	16
6	6	3
22	22	8
111	148	1
65	65	5
52	52	19
118	119	2
97	98	10
140	143	4
158	172	3
94	94	12
147	147	2
158	161	5
140	140	11
31	31	19
183	183	13
49	49	11
25	25	13
196	196	20
99	99	10
158	158	7
126	126	8
161	190	3
33	33	6
106	107	4
192	193	12
141	141	24
186	186	11
102	102	9
8	8	4
149	150	13
189	191	6
27	27	9
154	154	4
84	84	3
117	118	10
163	163	14
51	51	16
188	189	4
80	81	7
142	142	20
189	190	4
55	55	10
166	166	9
87	89	2
171	194	1
134	153	5
179	180	7
100	106	1
48	48	16
187	187	20
11	11	8
153	153	6
79	79	5
125	125	6
128	128	21
158	159	1
177	177	20
56	56	18
131	131	12
132	132	10
137	137	10
130	142	2
135	169	5
69	134	1
163	167	5
156	156	9
50	50	16
9	9	23
148	148	25
117	117	9
135	135	19
28	28	4
121	121	19
37	37	12
104	104	5
129	129	15
170	170	18
111	119	4
13	13	8
172	172	18
100	117	3
113	113	11
57	57	13
153	171	6
41	41	22
155	157	1
176	176	17
119	119	8
161	161	24
169	169	25
1	2	6
129	130	9
26	26	4
59	59	12
115	115	11
107	107	4
51	52	5
139	139	6
146	147	5
176	177	6
159	161	3
105	105	7
36	36	15
195	196	1
154	155	8
122	122	21
43	44	6
3	23	2
185	185	16
114	114	19
189	189	16
132	133	6
178	179	5
125	126	10
15	54	6
45	49	1
86	86	3
29	29	1
168	169	6
60	60	11
194	195	8
159	160	4
85	85	10
47	47	15
43	43	11
111	111	17
178	178	12
109	137	1
161	162	2
108	109	5
73	74	11
4	5	9
2	2	7
56	57	8
135	137	10
96	97	6
183	192	1
144	159	3
21	24	4
127	127	7
82	82	7
162	162	6
123	123	7
24	25	3
30	33	2
158	174	3
45	45	9
8	166	1
69	70	7
15	15	11
118	118	6
134	155	2
1	1	5
67	121	2
93	93	2
100	107	8
45	72	1
150	151	6
174	174	5
133	133	8
148	152	2
113	114	11
23	31	1
108	108	10
4	9	3
4	4	15
22	23	12
11	14	2
74	74	3
15	37	5
53	54	7
15	16	1
136	136	10
40	41	10
115	118	2
70	85	3
36	37	3
195	195	6
108	110	1
110	111	3
100	112	3
157	157	12
194	194	15
188	188	21
10	10	4
172	173	2
16	17	3
171	171	21
115	116	2
101	114	7
175	176	4
104	105	3
101	113	1
165	165	17
155	155	16
15	32	2
48	49	1
171	172	10
151	151	15
170	171	5
60	61	5
0	0	7
16	16	10
173	174	7
19	161	5
156	157	7
113	140	4
150	150	20
3	3	7
160	160	6
54	54	11
9	10	12
180	180	6
131	196	4
143	143	11
172	193	5
68	69	7
18	18	5
173	173	5
7	7	3
171	189	5
9	14	1
37	53	3
184	185	12
112	117	2
32	55	5
101	112	2
164	169	3
131	132	5
152	160	3
62	62	6
132	141	2
75	76	5
137	138	6
134	134	12
19	21	2
14	37	1
58	58	14
31	32	8
172	179	2
109	109	3
16	138	1
19	19	5
72	74	4
165	166	6
42	44	2
106	106	6
192	192	7
23	23	11
110	118	2
102	115	3
148	150	5
122	123	6
181	181	7
88	88	2
53	53	13
138	138	16
8	9	8
69	74	5
78	78	12
34	34	10
142	143	4
10	11	2
20	158	1
77	77	5
183	184	1
32	32	12
20	22	1
74	76	4
183	185	4
174	175	2
95	96	2
148	183	1
171	193	3
187	191	3
166	167	5
146	146	6
187	188	3
191	191	3
32	54	7
75	75	4
130	130	5
139	156	3
20	20	5
103	103	3
112	115	2
179	179	13
19	59	2
111	113	6
111	112	2
191	192	3
6	10	1
122	124	3
176	179	6
82	83	9
15	38	3
33	36	2
141	142	2
116	116	5
18	19	2
160	161	6
24	24	5
45	54	1
165	192	1
138	143	5
136	137	6
14	14	11
37	55	1
150	170	3
2	3	4
124	124	5
110	110	4
11	109	3
114	141	3
101	137	1
143	144	5
81	81	8
153	154	3
34	35	2
71	71	2
11	73	1
97	97	6
28	59	5
14	32	1
99	100	3
155	156	6
17	161	1
119	121	4
4	15	6
5	8	1
46	46	8
11	36	2
101	102	2
76	86	1
45	46	2
182	183	2
174	191	1
129	132	4
20	59	2
162	166	2
151	169	1
169	188	1
65	66	7
152	171	1
58	60	1
30	36	7
23	52	1
133	135	6
150	160	4
193	194	4
155	171	2
19	20	5
22	59	4
152	152	1
27	28	2
114	115	2
123	124	2
111	115	5
184	184	7
42	43	4
12	13	2
25	32	1
164	194	3
67	67	7
25	27	5
119	120	5
63	63	1
149	158	2
148	149	8
107	116	5
147	149	3
121	122	1
129	156	1
135	154	2
81	82	1
20	58	1
147	148	4
38	39	3
14	15	1
150	166	1
58	59	3
24	45	4
95	95	4
121	123	1
72	72	1
104	106	3
108	111	1
20	157	1
144	144	3
21	21	4
46	72	2
130	131	8
186	187	2
8	10	3
63	75	3
9	12	3
3	4	5
38	41	2
185	186	1
3	7	3
55	56	2
13	14	2
1	36	1
152	172	3
5	36	2
12	33	3
151	152	1
122	137	2
39	39	1
52	53	4
35	35	2
23	50	6
25	26	3
140	141	7
177	186	1
172	180	1
6	7	3
145	148	1
125	127	5
130	132	1
72	73	1
120	120	4
148	176	1
179	182	3
176	178	4
16	38	1
113	147	2
13	33	1
189	194	4
28	29	5
57	59	4
197	197	10
127	128	2
27	29	3
113	115	3
37	54	2
128	136	2
20	26	1
167	168	1
143	171	1
152	154	1
161	197	2
138	145	1
133	155	1
139	147	2
40	40	5
187	189	2
157	158	2
32	33	3
155	192	1
147	161	4
67	68	4
46	47	3
101	116	1
62	64	1
135	160	3
38	45	1
183	194	4
71	73	1
155	172	2
175	175	2
30	57	1
169	170	2
30	31	1
35	36	3
120	121	1
180	181	1
165	170	2
80	80	5
146	148	3
83	83	5
112	112	5
190	191	6
148	190	1
167	167	5
140	172	2
148	151	3
23	160	2
169	173	2
37	38	2
64	89	4
150	171	1
119	122	2
164	165	4
151	172	1
141	149	1
64	64	2
84	85	1
17	23	1
32	88	1
185	187	2
11	12	1
112	113	3
151	188	1
151	167	1
68	88	1
71	72	2
43	68	2
168	168	2
27	58	1
135	159	3
161	189	2
26	80	2
162	164	1
29	35	1
7	8	1
44	67	3
181	182	3
127	185	1
23	24	2
82	84	1
126	127	1
113	118	1
101	106	2
10	12	1
11	27	1
134	135	5
58	63	1
151	187	1
73	73	2
12	32	1
24	27	1
142	149	1
43	115	2
0	36	2
109	118	1
99	107	2
111	120	1
158	177	1
134	154	1
134	151	1
31	57	1
139	172	1
144	145	1
177	183	1
94	95	1
116	117	1
0	2	1
47	48	2
102	103	1
179	181	1
23	25	2
96	96	1
50	52	1
145	145	1
171	173	2
112	118	1
61	62	1
10	13	1
140	154	2
87	87	1
163	194	1
46	54	2
164	190	1
136	170	1
24	31	1
25	82	1
32	148	1
113	117	1
148	189	1
147	153	1
69	71	1
20	21	1
60	62	2
191	193	1
10	37	1
136	139	1
17	17	1
20	57	1
163	164	1
5	9	1
