75	75	22
75	77	4
93	93	18
104	105	6
71	72	2
102	103	18
58	81	3
37	98	2
78	78	12
82	82	15
100	100	13
43	43	20
90	91	5
92	93	14
45	79	3
53	55	1
24	24	13
104	104	25
31	34	7
22	22	14
71	73	5
106	106	20
95	99	2
37	38	4
59	59	14
26	26	13
33	33	22
54	55	6
60	60	11
56	56	13
49	49	13
47	49	6
51	51	17
83	83	14
88	88	3
65	66	10
41	97	7
28	29	6
57	59	6
71	71	20
53	53	14
88	106	4
61	62	11
34	34	26
35	35	17
26	29	4
86	86	18
42	42	9
29	29	14
68	68	23
79	80	16
59	60	4
55	55	18
95	96	11
26	30	6
73	73	12
77	77	18
29	30	7
47	48	8
57	58	3
46	46	11
105	105	18
30	30	16
26	27	9
52	52	9
89	89	7
27	28	4
38	39	7
20	23	3
70	70	19
62	63	4
84	84	7
37	37	14
30	44	5
74	75	17
98	99	18
47	51	2
40	44	5
83	87	1
98	98	23
40	99	1
92	92	16
73	74	3
80	81	7
67	67	22
96	96	17
81	81	16
97	97	10
25	25	11
21	21	14
51	52	8
54	54	17
52	53	2
32	32	16
48	57	4
94	94	8
36	36	9
58	60	10
55	56	4
95	95	14
73	95	2
67	68	2
76	77	2
44	44	13
94	105	4
83	86	3
46	80	5
38	38	9
79	79	7
41	44	4
40	41	8
102	104	4
75	101	4
38	43	4
72	72	14
58	58	19
61	61	11
56	57	4
54	57	2
30	40	9
66	66	10
93	94	6
62	62	12
81	82	8
58	107	2
107	107	4
57	57	11
63	65	3
74	74	12
83	85	6
90	90	3
47	56	2
45	56	1
35	36	7
46	58	2
46	49	4
61	64	1
48	49	8
41	49	4
31	76	2
88	90	11
50	50	8
45	45	15
53	54	4
31	31	14
45	46	5
68	69	17
50	51	8
31	51	3
82	85	1
80	80	6
40	40	6
87	87	8
76	100	1
29	41	2
23	37	1
91	91	8
38	46	3
61	63	8
91	92	4
82	83	12
23	23	12
23	24	5
83	84	4
57	60	3
98	106	3
20	21	2
81	86	2
28	28	8
35	37	3
69	69	20
46	88	1
75	76	8
79	100	4
43	44	1
64	67	3
82	93	5
41	41	14
79	83	1
42	45	6
78	79	7
94	95	5
69	70	5
59	99	1
32	33	6
67	74	2
29	40	2
47	78	5
101	101	8
96	98	1
46	50	2
76	76	18
102	102	10
31	33	6
34	38	1
58	59	7
40	48	3
95	97	10
58	61	3
30	34	3
47	47	6
41	47	3
81	99	4
71	74	5
85	88	2
22	75	5
84	86	2
60	106	3
21	86	4
97	106	1
21	82	3
25	26	6
86	92	4
47	60	3
103	104	1
38	67	3
84	85	3
22	23	3
89	90	10
85	87	3
39	59	4
48	48	8
63	64	3
51	69	1
82	86	4
93	95	1
97	98	9
42	66	3
37	70	7
88	89	3
72	73	3
29	33	6
40	45	6
39	39	23
59	66	1
49	57	3
59	80	4
85	86	7
97	99	5
46	47	3
30	41	3
60	61	1
29	32	1
63	63	8
65	65	8
82	94	1
62	64	2
44	45	4
41	48	2
21	23	2
41	43	1
39	99	2
64	64	9
79	99	2
78	88	1
100	102	4
25	27	4
37	39	2
36	55	1
35	51	4
39	40	1
99	99	2
100	101	2
61	65	2
32	34	1
45	49	2
81	87	2
77	78	1
99	100	1
41	46	1
86	87	5
80	99	1
27	27	2
87	90	1
89	94	4
77	81	2
50	70	1
20	20	1
55	57	1
27	32	2
52	55	1
79	81	1
86	88	2
70	72	2
76	88	1
78	81	3
41	45	3
46	59	1
32	44	2
21	94	1
36	37	1
26	33	1
60	77	1
54	72	2
85	85	2
93	96	2
54	70	1
80	88	1
96	99	1
25	33	2
41	42	3
53	57	1
36	38	3
91	93	1
47	57	2
31	35	1
87	92	2
31	32	1
44	58	2
46	57	3
49	50	1
40	97	2
64	65	2
84	87	2
87	88	1
27	29	3
103	103	2
30	31	1
71	75	1
59	65	1
39	45	1
90	94	3
34	36	3
19	22	2
81	93	1
21	22	2
66	67	1
44	86	1
30	49	1
33	34	1
60	65	1
34	35	1
84	91	1
39	49	1
29	38	1
