79	80	6
103	103	14
89	90	3
105	105	4
62	66	2
98	98	10
80	81	4
33	33	8
76	76	22
36	38	2
94	94	13
101	103	2
26	26	7
93	93	10
60	60	2
102	102	11
23	23	3
65	78	1
65	66	4
84	84	2
57	57	3
69	69	6
82	82	6
29	29	5
53	54	3
41	41	5
76	77	5
89	89	12
68	69	8
90	90	6
50	50	11
31	55	7
47	48	3
94	98	2
100	100	12
80	80	8
37	37	9
58	58	14
72	72	12
48	48	7
92	92	8
83	86	8
79	79	10
43	43	4
62	62	6
40	41	5
65	65	10
42	42	6
22	23	5
82	83	5
81	85	1
87	88	1
71	72	7
59	59	10
62	64	4
37	76	3
64	64	5
59	60	7
69	70	5
57	58	2
21	21	4
38	38	8
73	73	10
88	89	5
63	63	1
97	98	4
38	39	6
51	51	6
30	33	4
31	32	3
86	88	3
82	86	1
47	47	7
70	70	12
44	44	4
78	99	1
55	55	10
95	95	7
25	25	6
66	66	3
34	34	7
42	44	3
24	24	2
82	99	1
79	89	1
56	67	2
36	36	8
85	85	2
102	104	2
96	97	5
40	43	6
90	91	7
79	81	2
67	67	8
103	104	9
36	72	2
35	36	3
48	49	1
41	43	2
68	68	9
91	91	3
95	96	3
22	22	6
46	46	7
56	56	3
78	78	7
96	96	9
81	82	1
82	85	4
50	53	2
88	95	1
77	77	6
78	106	5
81	81	11
100	101	3
43	104	2
40	49	2
104	104	4
28	28	8
83	83	6
87	87	4
66	67	1
96	99	2
39	39	2
27	27	5
83	84	1
37	38	2
88	88	5
50	51	6
77	78	1
35	35	3
51	52	6
106	106	5
46	49	1
78	85	3
48	81	2
52	54	1
27	29	2
92	93	2
42	43	3
102	103	1
54	54	1
47	87	1
105	106	1
99	100	1
101	102	2
52	52	8
98	99	5
64	66	2
63	86	5
84	86	1
40	40	2
77	99	2
73	74	3
49	49	3
46	86	1
31	33	1
82	88	3
19	20	1
104	105	4
74	74	1
92	94	3
43	45	1
60	61	1
20	22	4
57	67	1
75	75	3
88	90	4
101	101	1
86	86	6
55	75	1
78	79	4
72	73	1
25	27	2
25	41	1
61	106	3
27	28	1
33	41	2
45	83	3
51	54	1
54	55	2
23	24	2
26	40	4
99	105	1
76	85	2
106	107	1
91	97	1
67	68	3
62	63	1
86	87	2
71	71	3
44	45	3
84	85	2
84	87	2
100	104	1
20	20	2
40	42	1
31	31	2
25	26	1
52	53	2
53	53	2
43	44	1
83	97	2
36	42	1
30	37	1
79	107	1
37	71	1
45	45	1
91	107	1
31	38	1
91	95	1
35	70	1
26	28	1
63	64	1
67	81	1
97	97	2
32	32	2
82	98	1
46	82	1
25	47	1
92	98	2
