154	158	1
2	9	4
60	65	4
46	46	10
189	189	6
115	115	3
29	30	5
49	50	1
133	133	11
99	99	12
32	41	5
31	35	2
33	33	16
197	197	9
0	58	4
49	49	6
102	106	1
43	43	12
214	214	5
97	97	7
197	198	3
69	70	3
15	17	5
183	183	5
62	62	15
219	225	3
178	182	3
67	67	7
144	145	5
192	192	4
58	58	19
119	213	2
44	44	5
172	172	4
212	212	3
81	82	12
168	168	5
194	194	3
238	239	1
59	217	1
159	159	3
141	141	4
20	21	2
48	48	14
110	111	3
117	117	2
98	99	7
19	19	9
63	63	7
31	62	1
110	110	5
44	45	6
65	65	5
164	164	5
155	230	6
69	69	12
198	198	9
222	222	4
74	74	9
106	106	5
28	28	18
220	220	3
15	15	8
79	79	8
66	66	10
88	88	2
5	5	2
28	181	2
155	155	4
49	53	5
33	51	6
77	77	2
181	181	6
158	158	4
177	177	5
143	143	11
29	36	1
21	21	9
72	73	4
10	10	12
21	22	2
203	204	4
120	183	6
153	153	10
28	101	3
128	154	2
98	104	6
78	80	1
65	69	2
103	103	6
122	122	5
54	54	6
17	18	5
138	138	2
35	35	5
215	226	4
1	12	3
215	215	5
80	80	14
140	140	1
34	51	1
162	162	4
59	60	1
31	31	9
11	11	9
70	70	12
6	7	7
187	213	3
168	215	2
48	49	2
150	150	4
8	11	2
154	155	1
202	202	18
123	123	6
8	60	1
182	182	6
4	76	2
37	95	5
174	175	1
18	22	1
223	223	6
104	104	7
58	59	5
242	242	1
163	163	5
109	109	1
30	30	5
10	60	2
217	217	5
230	231	1
172	173	6
180	180	6
53	76	2
236	236	3
138	139	1
142	142	12
2	4	4
188	190	3
47	47	7
65	68	3
60	60	17
217	218	7
4	5	6
165	166	3
121	121	7
15	16	3
159	217	1
63	64	7
237	237	3
232	232	9
8	8	3
32	32	4
160	160	9
167	177	1
117	177	2
27	27	13
54	55	10
169	169	6
12	12	14
1	1	1
38	38	7
134	134	7
50	50	8
139	140	4
227	227	9
22	22	4
75	75	7
214	215	8
36	36	5
59	168	1
201	201	4
156	156	2
49	79	1
194	196	1
26	26	1
51	52	4
27	34	2
124	124	4
19	81	3
187	227	1
119	223	3
61	61	2
234	234	2
75	77	5
149	149	3
34	62	1
165	167	1
27	29	4
60	61	4
2	5	2
161	161	6
4	4	5
232	237	1
27	28	1
2	6	4
165	165	13
28	30	5
203	208	2
5	49	2
192	232	6
78	79	4
56	56	4
240	240	7
0	0	7
25	25	5
88	145	1
34	55	1
72	81	3
95	96	1
46	73	1
40	40	1
229	229	8
123	127	2
177	227	1
84	84	8
0	74	2
55	65	4
191	191	3
120	120	6
149	150	6
203	203	4
16	16	7
200	201	5
13	13	6
39	39	6
35	51	1
13	16	3
168	169	2
3	4	1
176	176	5
239	239	10
120	152	2
212	213	3
56	57	2
11	12	8
115	117	3
49	57	3
136	136	4
146	146	4
175	175	4
43	44	4
37	48	2
9	9	5
57	57	1
204	205	6
88	101	1
46	47	1
221	221	2
7	22	2
151	152	2
98	98	10
133	134	3
66	67	3
218	218	6
107	108	1
167	168	1
55	78	2
73	74	3
171	171	6
7	8	1
192	196	4
157	157	12
81	83	1
99	100	1
45	45	4
59	59	15
51	51	6
38	82	1
181	183	2
170	171	2
208	208	2
9	10	4
205	209	1
167	214	2
112	112	3
14	16	6
126	126	4
10	11	3
213	213	6
37	39	3
128	128	8
207	208	2
119	120	3
211	212	1
132	153	1
55	55	5
0	1	1
144	144	8
239	240	5
20	20	10
91	91	2
80	83	1
167	167	6
211	211	5
29	29	6
165	168	1
216	216	5
228	229	3
6	21	2
162	163	5
14	14	1
105	105	2
166	176	2
167	169	3
7	7	4
154	157	1
187	224	2
190	190	3
145	146	2
241	241	1
43	99	1
10	74	2
81	81	3
70	72	5
105	134	2
170	170	5
47	48	1
17	17	7
57	59	4
209	209	9
200	200	3
122	128	3
31	33	1
80	84	1
179	183	2
83	83	1
131	132	2
74	75	1
65	89	1
114	220	1
119	119	6
118	168	1
185	229	2
37	74	3
45	75	1
225	225	5
27	32	5
57	58	3
127	134	3
127	127	3
113	113	2
2	3	6
178	178	3
193	193	6
103	104	4
13	14	2
67	68	3
6	16	2
84	207	1
37	38	4
199	200	4
71	72	2
53	53	6
123	124	3
91	100	1
126	127	5
36	39	2
82	83	3
19	53	3
18	18	3
87	238	1
24	25	2
3	101	4
40	83	4
161	205	4
19	22	3
226	226	2
166	167	2
17	79	1
188	188	3
211	213	1
76	76	11
53	73	2
119	210	3
214	226	2
115	116	3
166	166	3
169	215	2
225	228	2
100	104	1
22	23	1
137	148	1
101	101	4
184	184	3
145	147	1
102	102	3
5	17	2
227	228	1
65	66	3
85	85	3
124	130	1
23	23	2
52	52	4
228	228	5
46	75	1
3	7	1
219	219	3
27	37	2
128	131	1
143	147	3
180	182	1
88	200	2
108	108	5
131	131	2
115	221	2
233	233	4
37	37	3
61	63	2
220	223	1
214	216	2
138	148	3
154	154	3
83	84	5
201	202	1
183	220	5
186	223	2
223	224	2
105	208	4
8	48	1
193	195	2
41	81	3
24	24	3
174	225	4
30	34	1
130	130	1
118	121	2
224	225	1
146	148	1
183	222	2
173	173	6
125	218	1
86	87	1
9	23	1
42	97	2
78	78	1
31	32	1
107	150	2
139	224	2
2	2	3
131	221	1
60	64	1
234	235	2
39	41	2
158	210	3
52	53	1
31	101	1
159	218	2
116	118	1
96	96	3
161	184	1
41	41	2
107	107	3
13	15	4
186	220	2
8	9	1
187	187	4
116	116	1
50	53	4
35	52	1
12	24	1
138	141	1
39	80	1
231	232	2
160	204	2
156	221	1
71	71	3
179	190	2
148	148	2
24	41	1
178	183	1
39	97	1
178	240	1
84	85	3
15	21	2
210	210	3
81	84	1
54	197	1
85	219	1
88	238	1
174	174	1
83	161	1
82	82	2
164	178	1
82	84	2
204	204	1
65	71	1
70	71	2
19	20	1
15	67	1
63	65	2
32	33	1
235	235	2
181	202	3
57	65	1
7	48	1
161	207	1
140	142	2
131	133	1
160	207	2
29	31	1
106	222	1
121	122	3
72	72	1
118	118	1
231	231	1
58	198	1
100	100	2
77	78	1
192	193	1
11	88	1
6	17	1
9	46	1
1	74	2
196	196	1
28	31	2
12	19	1
180	185	1
169	187	2
34	34	1
124	129	1
137	138	1
45	76	2
20	23	1
173	228	2
16	22	3
26	27	2
179	180	1
58	60	1
129	211	1
55	62	1
14	107	1
166	209	1
122	130	1
64	64	1
163	164	1
66	89	1
141	152	1
144	228	1
149	152	1
182	192	1
214	225	1
175	200	1
173	179	1
86	86	1
87	87	1
185	185	2
132	132	1
64	65	1
139	139	1
153	158	1
164	165	1
55	64	1
215	217	1
86	231	1
49	78	1
16	17	2
235	236	1
176	229	1
80	81	1
