79	79	7
48	48	5
9	9	4
127	128	5
64	64	10
73	73	9
60	60	3
123	134	2
117	117	5
120	120	9
106	107	1
115	115	4
79	80	5
106	106	3
49	52	1
113	113	3
22	22	2
111	113	1
99	128	1
90	90	9
103	105	4
103	104	3
57	69	4
64	81	2
101	114	1
25	25	6
14	14	5
13	13	2
117	119	3
129	129	11
6	24	2
131	132	5
112	112	8
8	8	4
124	124	5
121	121	2
65	65	5
95	95	9
104	104	6
85	85	1
15	15	1
100	100	1
97	99	2
117	118	2
84	84	6
71	71	5
5	5	10
102	102	6
65	67	2
91	91	9
116	118	5
108	108	2
24	25	1
77	77	5
111	111	10
101	128	1
62	63	4
112	114	2
28	28	8
93	95	2
108	128	1
129	130	1
36	36	4
80	80	4
78	78	4
9	12	2
34	34	1
95	96	2
10	10	5
3	4	1
55	58	5
25	27	1
62	62	7
20	20	4
74	74	3
130	131	2
12	114	2
94	94	11
101	101	5
77	78	9
105	105	3
80	101	2
27	27	5
69	69	4
13	116	2
120	121	1
83	83	3
92	92	4
64	67	4
99	99	3
53	54	1
35	35	2
66	66	1
63	63	7
119	119	7
90	91	4
18	18	3
36	37	1
118	119	3
4	5	1
93	93	2
75	75	5
83	84	4
12	12	2
116	117	4
81	121	2
92	96	3
50	105	1
55	56	2
47	47	1
98	99	2
65	69	1
126	126	1
58	59	2
30	30	2
127	127	4
131	131	8
34	35	1
96	96	2
102	105	1
109	110	1
96	97	2
76	77	1
121	130	1
89	90	4
76	76	1
77	92	1
103	103	1
93	94	3
97	97	4
134	134	5
26	26	2
118	118	1
1	2	1
91	92	2
107	108	1
107	110	2
29	29	3
10	24	1
108	124	1
50	50	5
25	26	1
24	60	1
111	128	1
56	56	2
73	74	1
108	109	1
125	125	3
114	114	5
114	115	1
19	21	1
53	91	2
7	7	4
80	121	1
23	23	1
112	113	1
78	79	1
16	16	1
116	119	2
80	99	4
79	92	1
116	116	1
109	112	2
52	52	1
50	52	1
101	102	1
68	68	2
30	32	1
10	18	1
29	63	3
2	3	3
48	66	1
37	37	1
12	14	1
124	125	1
126	131	1
72	74	1
130	130	4
50	68	2
75	93	1
86	87	1
82	82	2
29	73	4
44	44	1
49	50	1
53	53	1
31	31	1
112	117	4
93	98	2
24	24	1
11	11	2
124	130	1
124	133	1
34	69	1
82	83	1
81	82	1
122	122	2
123	123	1
44	45	1
109	109	1
88	88	1
19	19	1
98	98	1
72	73	1
88	92	1
57	57	1
84	86	2
100	101	1
32	64	1
13	14	1
13	118	1
