72	72	3
81	82	8
136	137	1
221	224	3
229	229	1
108	108	1
4	5	8
16	30	1
73	73	1
78	78	3
1	1	6
120	120	4
70	71	4
122	124	4
25	25	5
43	44	1
182	182	1
28	28	4
165	227	2
203	203	4
74	74	4
128	128	1
11	12	2
30	31	3
32	32	1
29	48	1
22	23	6
65	65	3
142	142	2
164	164	1
4	6	2
230	231	2
9	9	3
72	73	4
29	42	4
182	183	2
228	228	1
199	200	6
68	68	4
235	235	4
180	180	6
200	200	3
44	44	2
17	18	2
131	131	1
64	64	5
175	175	3
60	60	5
83	84	1
17	17	4
221	221	1
45	45	5
174	192	4
36	36	3
136	174	4
5	5	4
48	48	3
66	66	9
179	179	3
211	212	3
16	17	1
176	176	8
129	130	2
117	117	4
219	219	5
11	26	2
64	188	3
18	20	1
176	229	3
13	58	1
49	49	1
149	150	3
206	206	1
135	136	7
230	230	3
40	40	1
52	52	1
99	99	4
159	159	4
48	55	1
103	104	3
157	157	1
205	205	1
58	58	4
96	126	1
181	181	2
0	50	3
30	30	4
183	183	3
217	217	4
59	59	1
84	84	4
218	218	4
97	97	5
57	57	1
37	37	3
27	27	1
5	14	3
168	168	2
46	46	3
196	204	1
54	83	2
195	196	1
102	108	2
81	81	3
180	183	1
7	8	2
216	231	2
234	239	5
61	61	3
198	198	1
143	151	1
185	228	3
192	192	5
38	38	6
51	51	6
14	16	1
237	238	1
204	206	2
6	6	5
142	171	2
11	11	1
8	8	5
192	193	4
123	123	6
209	209	3
75	84	8
146	147	4
88	217	1
71	71	1
29	29	2
15	17	1
34	34	4
3	3	3
77	80	1
11	57	2
30	33	1
234	234	7
181	187	1
8	57	1
69	86	1
51	52	2
3	5	2
222	222	6
67	67	4
148	149	2
238	238	5
79	79	3
64	70	1
99	215	2
50	66	2
68	69	3
191	192	2
153	153	3
202	202	2
159	218	1
63	63	2
163	225	2
86	86	3
44	69	1
1	2	1
172	172	2
178	178	2
206	207	1
152	155	2
31	31	2
184	185	1
13	13	2
143	143	3
241	241	3
240	241	1
134	139	1
6	7	1
159	185	1
101	101	4
66	68	1
77	77	1
121	121	2
119	119	3
193	193	2
136	136	3
39	39	3
15	61	3
116	117	2
4	4	1
24	62	1
137	137	1
184	184	1
48	80	3
197	200	1
129	129	2
76	81	2
66	79	1
70	70	5
160	160	3
188	189	2
201	201	1
95	96	1
133	154	1
19	23	1
8	61	1
124	125	1
130	130	1
176	177	1
41	41	1
62	62	1
140	140	3
16	16	4
55	55	2
190	201	1
194	194	3
77	78	2
163	163	1
220	220	1
80	81	3
24	61	1
15	18	1
19	19	1
226	227	2
173	193	1
118	118	1
33	79	1
107	125	1
124	126	1
202	218	2
116	116	1
95	127	1
117	122	1
115	115	3
79	80	3
50	52	1
21	21	4
80	83	1
213	214	1
7	7	2
82	84	4
111	111	2
202	219	2
207	207	1
170	171	1
169	170	2
191	191	2
189	200	3
31	32	1
134	134	2
182	200	2
7	21	1
54	54	2
226	226	1
155	221	2
107	107	1
17	23	1
13	14	1
30	66	1
181	228	1
101	121	1
204	210	1
194	206	2
58	59	1
77	81	1
82	82	4
104	130	2
5	187	1
49	83	1
115	116	2
159	212	1
42	42	1
237	237	1
177	177	2
82	83	1
181	204	1
176	206	1
176	179	1
20	20	1
59	60	1
227	227	3
154	154	1
159	183	1
12	12	1
43	43	1
122	123	1
52	53	1
156	156	1
80	80	2
239	239	3
187	187	1
127	127	2
186	187	1
89	89	1
88	88	1
173	173	2
196	206	1
143	156	1
3	12	1
52	84	1
10	47	1
141	143	1
10	25	1
107	120	1
170	170	1
15	15	1
138	139	1
8	12	1
2	190	1
20	47	1
35	35	1
102	103	1
22	22	1
2	2	1
188	200	2
63	64	1
78	80	1
147	148	1
39	47	1
216	216	1
185	187	1
179	184	1
85	85	1
236	236	1
239	241	1
