27	39	2
75	79	1
101	101	2
116	116	2
35	39	2
36	36	8
57	57	8
137	137	2
79	82	1
140	140	5
142	143	2
107	118	2
61	145	2
72	72	3
17	17	6
134	134	4
121	121	3
80	82	1
29	29	7
126	126	2
124	124	1
16	58	1
56	56	2
95	102	1
71	113	8
1	23	1
106	106	1
108	109	7
52	65	3
43	43	5
97	132	6
4	34	7
139	139	5
127	127	3
30	30	4
62	74	2
127	130	3
30	72	1
94	94	8
143	143	1
28	29	2
3	3	1
20	20	3
0	30	3
122	123	1
81	141	2
18	18	5
20	22	1
115	126	1
128	129	2
9	38	2
99	100	2
120	138	1
131	131	5
1	6	1
48	94	1
14	14	4
81	81	5
35	35	2
37	39	1
130	130	6
104	105	2
141	141	4
70	103	1
31	32	1
120	120	3
70	70	6
134	135	1
133	133	4
122	122	4
117	117	6
91	91	5
93	93	2
13	52	2
92	94	1
59	62	1
124	130	2
132	133	4
124	140	1
85	102	1
126	127	3
119	120	4
100	100	1
85	104	2
76	78	3
60	60	1
5	35	1
35	59	4
120	122	2
107	107	3
23	26	1
124	125	2
3	5	2
139	141	1
21	56	1
79	106	2
143	144	3
135	137	2
19	19	5
119	136	3
61	64	2
74	76	2
113	115	1
37	37	2
136	137	2
84	131	2
39	40	1
78	86	1
125	137	1
131	136	1
29	67	1
129	129	1
48	48	5
48	49	2
43	125	2
118	118	3
123	140	2
85	106	2
42	42	2
128	128	2
13	13	2
53	53	1
27	128	5
87	97	1
76	77	2
138	138	2
106	114	3
109	118	2
89	89	1
58	58	1
121	133	1
119	119	3
75	75	2
77	99	1
75	76	1
122	125	3
32	32	3
41	134	1
2	2	4
112	125	2
65	69	1
109	109	2
142	142	4
139	140	5
11	11	6
1	10	2
62	67	2
101	102	1
19	28	3
140	141	2
1	12	1
104	104	4
59	60	2
38	38	5
9	9	1
77	83	2
105	144	1
141	143	1
72	116	1
83	83	1
126	128	1
21	75	1
9	34	1
138	140	3
65	65	1
98	98	3
21	21	1
83	106	1
10	29	3
38	61	1
100	101	2
84	84	1
9	136	1
68	68	1
92	111	3
23	24	1
72	127	2
8	8	2
79	110	1
0	1	1
73	83	1
12	14	1
13	14	1
66	66	3
51	75	1
40	40	1
96	96	1
106	107	1
31	36	1
113	113	2
136	136	1
133	140	1
10	33	1
20	21	2
77	77	1
122	126	1
89	96	1
93	96	1
75	101	1
94	131	1
86	123	2
10	23	1
73	74	2
131	132	1
41	139	1
121	136	1
62	63	1
21	22	1
49	49	2
135	135	1
83	107	1
28	128	1
22	25	1
71	71	1
23	23	1
94	120	1
54	54	1
6	6	1
51	52	1
80	110	1
123	123	1
118	119	1
63	63	1
126	129	1
52	52	1
64	64	1
