132	132	9
97	97	11
109	109	10
125	130	5
95	126	1
82	126	2
91	99	6
76	76	13
34	34	13
28	28	13
65	65	7
103	103	19
121	121	15
11	11	2
89	89	9
63	116	2
87	125	3
108	111	3
72	74	2
131	131	11
9	37	7
118	135	4
76	118	2
4	34	3
9	9	7
108	125	3
35	35	8
93	97	1
134	134	7
1	2	2
87	88	4
122	122	11
50	50	15
114	115	17
130	132	5
88	88	14
110	125	1
44	44	8
81	123	2
95	95	20
60	61	8
38	38	6
86	86	5
10	10	17
84	84	24
53	67	3
125	125	5
104	104	9
8	45	2
63	64	5
45	81	3
133	133	8
33	34	13
93	94	10
5	5	7
2	3	1
15	15	8
23	23	13
56	56	12
78	78	8
17	18	2
77	77	7
87	100	4
33	33	6
1	1	7
74	74	5
114	114	12
116	116	15
52	52	14
78	87	5
127	127	11
116	120	2
95	96	4
86	133	2
100	116	2
43	52	1
108	108	14
60	60	12
58	60	3
113	113	19
87	132	10
58	59	2
28	29	6
75	75	34
106	106	4
129	133	3
107	108	1
126	126	10
110	110	3
10	33	6
55	55	3
29	29	15
111	112	3
68	69	6
68	85	4
13	13	12
101	101	19
118	119	6
22	95	2
45	83	5
49	123	2
54	54	15
80	126	3
2	2	8
130	131	7
120	129	6
70	70	6
38	39	1
12	12	19
32	36	1
63	63	10
30	30	17
4	4	4
107	125	4
79	79	8
52	53	13
98	98	11
16	33	5
98	127	1
43	56	3
3	4	4
93	93	6
67	67	6
53	53	23
14	25	1
93	108	3
60	115	1
112	112	9
104	105	1
91	91	16
17	17	10
118	118	22
82	131	4
104	127	1
3	3	9
108	116	3
10	106	2
100	100	9
112	117	6
63	102	2
119	120	3
66	67	3
72	129	3
45	45	6
65	68	2
96	98	6
102	102	14
11	55	4
69	91	4
80	125	4
54	56	2
82	82	5
25	25	11
78	122	3
105	109	1
26	27	3
78	117	2
110	111	3
109	113	5
34	35	9
49	107	3
64	67	2
54	62	9
100	103	1
96	96	3
64	64	13
112	118	3
7	8	6
61	116	4
120	127	6
81	100	4
14	14	8
47	48	6
56	78	1
58	58	9
108	110	3
77	79	1
6	6	7
85	85	2
77	125	1
80	80	9
113	115	6
119	134	3
131	133	6
15	16	3
27	27	15
90	90	7
105	114	4
115	115	9
69	69	9
57	59	2
12	13	11
101	102	9
129	129	5
59	59	13
3	29	3
51	127	1
31	31	4
71	127	2
0	9	4
80	81	2
13	25	2
4	5	1
68	68	12
73	75	6
9	53	2
53	82	1
62	62	10
4	38	3
97	100	6
19	76	1
44	45	1
96	127	5
121	130	3
108	109	7
14	28	6
16	17	3
126	131	2
76	97	2
14	26	3
67	83	1
73	73	8
106	107	1
77	78	5
57	73	2
37	38	3
44	54	2
72	128	2
0	1	3
69	70	2
50	52	2
91	128	1
24	24	11
77	107	1
1	5	4
62	63	1
134	135	2
0	109	5
57	58	4
122	123	6
67	85	1
119	119	11
78	131	2
6	31	3
98	99	3
26	26	6
113	118	2
62	73	4
6	44	2
111	114	3
113	135	2
106	110	2
10	19	2
6	7	6
111	125	1
1	3	3
127	131	2
123	124	6
83	108	2
56	58	1
19	75	2
78	130	2
49	108	2
124	124	9
84	85	9
68	126	2
31	33	5
118	134	1
122	125	2
59	61	1
55	56	5
53	60	2
86	132	2
115	116	6
111	117	3
92	92	14
45	77	3
45	79	2
105	105	6
69	76	2
128	129	4
54	59	2
13	14	1
65	66	2
7	7	13
78	80	2
43	55	1
36	36	3
9	10	8
61	61	21
123	123	5
105	106	1
46	110	1
47	47	4
123	125	2
31	32	4
49	49	2
112	114	6
88	108	1
11	12	3
102	103	2
110	113	1
76	114	1
86	99	3
67	68	14
49	84	2
122	131	2
130	133	6
7	11	3
8	44	2
43	44	3
95	97	3
61	62	2
73	128	1
44	50	2
60	62	1
85	87	1
72	82	2
7	32	2
103	105	2
17	21	9
8	10	2
81	81	1
107	107	5
68	88	1
16	34	1
8	8	5
66	66	7
120	121	1
68	71	2
38	66	1
90	92	1
88	96	3
101	134	1
79	120	2
90	91	6
19	37	1
18	18	3
64	78	1
124	130	1
99	99	5
89	90	3
79	82	2
113	114	2
72	72	10
63	78	2
50	84	1
69	90	3
107	122	2
105	107	3
111	111	10
35	36	7
93	95	5
21	22	3
78	79	7
130	130	3
94	94	7
93	99	1
5	6	1
86	92	1
118	120	1
61	115	1
42	125	1
65	78	1
106	113	1
94	96	1
117	117	3
132	133	5
83	106	1
63	77	2
49	105	1
68	98	1
58	61	1
18	21	3
71	73	1
2	5	1
29	35	1
27	28	1
9	31	1
12	14	2
6	9	1
67	129	2
72	79	3
19	19	5
129	131	1
127	128	3
56	61	3
55	58	2
56	57	3
70	71	1
43	45	2
15	25	1
22	22	1
115	120	1
30	31	3
87	87	6
45	108	2
66	68	1
42	42	3
19	20	4
79	80	4
32	32	6
97	98	1
20	20	6
66	69	2
77	117	1
49	59	1
73	129	1
22	23	3
78	123	2
6	102	1
120	120	6
5	35	1
104	116	2
95	98	2
19	21	4
71	71	5
117	134	1
51	52	2
110	123	2
10	74	3
49	111	4
28	37	1
56	68	2
66	78	3
50	126	1
29	34	1
107	123	1
86	87	4
116	129	2
21	21	1
82	124	1
92	93	1
119	132	1
48	131	2
109	125	1
97	110	1
2	105	1
73	127	1
82	104	1
105	123	1
55	60	2
53	61	2
53	62	1
50	58	1
81	99	1
126	132	3
48	79	1
131	132	1
101	121	2
106	108	1
83	110	1
11	97	1
69	71	1
72	81	2
96	109	1
71	126	1
59	82	1
81	118	2
13	26	3
71	72	2
12	26	1
45	49	1
50	122	3
117	135	2
43	57	2
113	119	1
53	83	1
80	131	1
19	77	2
30	32	2
83	83	1
104	126	2
66	110	2
52	73	1
96	124	1
53	112	2
13	92	1
103	104	2
54	83	1
125	126	1
128	132	1
10	11	1
6	30	1
53	56	2
128	128	1
25	26	1
65	67	2
82	83	2
115	122	1
48	48	1
43	49	1
109	110	2
19	36	1
78	83	1
0	0	1
85	98	1
17	95	1
49	106	1
88	97	1
77	83	1
16	16	1
55	115	2
19	83	1
59	60	1
85	88	1
50	63	1
53	59	1
86	88	1
74	77	1
9	11	1
3	5	1
122	135	1
126	129	1
99	100	1
64	82	1
54	60	1
84	106	1
20	37	1
