98	105	1
130	130	11
17	17	1
114	114	10
80	80	12
62	63	1
122	122	9
19	63	5
107	107	6
76	76	7
118	132	1
97	97	6
90	90	17
74	74	9
95	95	19
60	60	3
134	134	7
4	4	6
86	86	11
30	30	7
33	37	2
43	45	3
96	96	6
54	54	8
85	85	7
129	129	15
18	23	4
59	60	3
99	99	11
105	105	15
113	131	2
44	53	1
63	64	1
63	80	1
77	78	4
111	117	5
102	103	1
28	35	3
120	120	13
21	21	4
79	79	11
5	49	1
5	5	8
92	92	6
100	100	15
54	87	1
82	82	6
115	115	12
129	130	3
32	32	2
57	59	2
70	84	2
121	121	6
68	68	12
108	110	3
78	97	2
66	67	5
89	90	2
64	65	1
52	53	4
102	102	13
53	113	1
91	91	6
77	77	14
89	118	2
113	113	2
70	71	3
128	128	16
109	109	4
15	15	5
3	7	4
0	4	6
125	125	5
45	58	3
62	62	4
114	115	6
110	115	3
116	116	11
1	1	7
106	106	11
58	59	3
69	69	8
52	52	3
48	48	3
33	33	3
36	37	5
31	32	7
111	111	6
43	43	8
45	50	3
99	102	3
2	4	2
110	110	9
30	32	4
48	55	1
101	103	1
81	81	2
10	10	6
125	128	1
8	10	1
126	126	2
119	120	7
125	127	2
101	101	5
120	121	2
22	22	7
9	9	1
124	134	1
101	102	5
130	132	3
57	83	2
46	46	1
26	26	5
84	84	7
29	29	1
34	35	4
103	104	6
106	107	5
113	114	4
0	2	1
123	123	3
115	125	4
92	96	1
119	119	4
94	94	3
88	100	1
90	91	6
131	131	5
59	66	4
83	84	4
27	27	5
65	81	3
45	51	1
95	99	1
26	36	5
70	70	8
64	67	1
132	132	7
118	118	4
93	93	6
73	74	1
7	7	4
71	71	6
88	88	4
12	12	2
86	114	4
126	127	9
121	124	1
77	86	4
67	80	3
60	61	3
35	35	4
103	103	3
27	36	4
18	18	2
5	8	4
100	101	1
61	61	6
5	15	2
3	4	1
57	57	6
69	86	1
2	2	1
53	69	2
119	124	3
53	53	2
97	101	3
25	26	5
86	87	2
82	85	2
7	25	2
104	104	6
68	69	2
27	34	1
18	26	1
8	8	7
80	83	2
119	134	4
58	64	2
93	94	6
50	50	2
63	63	4
75	76	3
67	67	10
105	126	2
65	66	3
18	36	6
74	75	3
0	0	2
3	3	1
25	57	1
45	67	1
73	73	6
126	133	5
42	46	1
64	64	2
19	67	3
109	113	3
110	111	1
64	111	2
33	35	1
54	113	1
44	45	4
132	133	4
27	35	2
44	44	3
7	9	2
52	58	2
121	122	3
24	24	3
55	55	4
21	24	3
78	92	2
125	129	2
89	89	2
121	133	2
132	134	3
28	28	5
42	56	1
21	23	2
108	108	3
86	104	3
109	117	1
50	54	2
112	112	2
82	83	4
77	84	3
114	130	4
72	72	2
124	132	3
54	79	1
123	129	1
6	68	3
87	87	3
116	118	3
10	53	2
127	128	7
91	103	2
50	52	2
109	110	3
97	98	2
92	93	2
116	117	3
66	69	1
6	7	3
70	80	3
115	129	1
80	85	1
16	17	1
97	100	2
98	98	2
49	49	3
16	33	6
123	124	4
126	130	2
65	65	3
24	25	1
15	16	1
61	99	1
25	25	5
23	23	1
58	58	3
34	34	1
45	77	1
81	82	1
44	56	1
96	101	1
117	120	2
60	67	3
49	58	1
83	100	1
11	12	3
59	109	1
83	83	1
55	56	3
71	72	1
108	111	1
127	129	1
31	31	3
47	47	3
67	69	1
86	111	2
71	73	1
114	116	1
80	82	2
8	36	2
119	123	1
103	127	2
19	24	2
118	125	1
37	38	2
107	108	3
101	120	1
101	104	1
23	63	1
133	133	3
91	100	1
84	86	3
102	134	1
47	51	1
48	49	2
94	95	1
124	124	2
59	84	2
53	57	1
126	134	1
89	133	1
22	23	1
108	109	3
93	114	1
52	108	2
100	106	1
71	100	1
83	111	1
109	122	1
6	6	2
58	77	1
118	135	1
20	65	2
20	26	2
23	74	1
45	45	2
107	124	1
75	75	1
85	111	2
117	122	3
67	68	3
122	129	3
69	78	1
78	99	3
127	134	1
20	54	1
52	83	1
53	56	3
9	10	1
29	38	2
49	50	2
64	69	1
53	54	1
42	42	1
71	92	1
14	14	1
74	77	1
107	110	1
117	119	1
81	108	1
39	67	3
78	86	1
42	55	2
1	2	1
74	76	1
13	13	3
56	56	1
80	81	1
73	93	1
78	82	1
1	3	1
29	30	1
113	120	1
26	27	1
126	128	1
67	86	1
56	67	1
117	117	2
78	87	1
