192	192	6
160	178	5
154	154	27
58	58	14
116	140	4
175	183	1
47	47	7
2	7	4
43	44	6
182	182	6
35	35	9
152	152	9
128	128	1
32	32	13
94	96	2
20	21	3
139	182	5
38	38	7
31	99	6
148	148	9
134	134	14
146	181	1
105	109	1
102	183	1
36	36	14
176	176	6
46	46	18
0	37	2
165	171	10
9	13	5
71	71	5
179	187	5
164	164	17
52	52	5
108	177	4
97	103	3
146	146	6
1	9	2
156	157	5
96	96	5
123	123	8
178	179	5
109	115	3
39	58	1
62	66	2
83	84	1
165	166	5
17	26	2
180	181	5
17	34	6
5	26	1
29	29	10
6	16	3
100	100	10
193	193	9
178	178	14
184	184	8
185	187	6
172	172	27
139	140	2
124	125	3
9	9	21
66	66	7
136	136	7
39	41	2
34	42	1
11	11	6
32	90	2
76	86	3
190	190	17
171	171	23
90	90	3
142	142	9
186	186	9
37	37	12
7	8	4
191	191	13
159	159	18
68	68	15
65	76	4
94	94	13
131	139	3
152	157	5
127	127	6
160	180	5
19	19	10
105	105	6
129	141	1
167	167	13
197	197	4
35	167	5
76	77	2
130	131	2
139	180	3
89	89	9
169	170	7
194	194	26
184	185	3
30	31	4
126	126	16
108	109	6
54	55	7
161	161	6
40	41	4
50	191	2
48	48	18
153	180	2
107	108	6
117	175	5
117	117	19
188	188	10
137	143	1
175	175	10
41	41	8
189	189	16
155	155	13
182	188	3
34	65	1
2	2	5
125	126	6
163	174	2
196	196	6
113	113	3
26	26	5
141	141	5
77	78	6
58	164	2
179	179	10
13	13	11
10	10	11
116	116	3
174	174	24
187	188	8
69	69	9
114	146	6
68	69	2
156	168	4
33	34	3
62	63	3
5	7	1
42	42	7
144	144	2
166	167	10
56	56	9
139	173	1
79	80	6
64	64	8
154	155	2
107	107	6
184	196	3
4	4	4
130	130	5
117	118	6
158	179	2
52	197	2
122	122	7
41	42	3
30	30	9
16	16	14
129	129	14
118	118	6
116	143	5
21	25	2
105	106	3
119	119	10
118	121	1
99	100	6
15	15	5
31	31	7
59	59	9
46	47	3
107	132	4
27	27	10
12	12	10
64	65	2
125	125	6
183	183	12
53	56	3
177	177	12
22	62	6
13	21	2
157	158	8
133	133	5
168	168	7
151	195	4
6	67	1
83	83	3
103	103	6
124	168	3
17	43	9
156	156	11
51	51	4
178	197	3
72	72	10
104	108	1
25	25	3
81	82	5
130	137	1
39	76	5
22	22	8
5	5	10
24	66	1
178	180	2
17	17	7
43	45	5
38	58	5
124	124	16
53	53	12
73	73	7
27	34	1
195	195	12
75	86	1
45	45	7
40	40	7
160	161	5
25	62	2
107	131	3
142	152	3
53	168	1
7	30	1
103	185	2
115	115	5
26	34	3
8	39	5
181	181	2
174	175	2
35	46	2
118	157	4
32	43	3
38	85	4
77	79	1
94	95	2
60	61	5
18	18	9
4	5	4
168	169	4
33	167	1
16	43	1
111	111	1
35	64	3
87	89	6
151	151	3
129	136	1
149	149	15
74	86	3
29	79	2
109	110	8
6	97	1
80	80	4
127	128	2
135	136	4
148	149	9
55	55	11
37	59	1
109	111	3
57	57	11
49	49	5
166	166	13
39	40	2
15	16	14
173	173	6
185	185	20
114	114	4
141	167	2
6	64	4
132	134	1
3	7	2
44	44	6
39	39	9
119	146	4
145	146	3
110	110	6
161	175	8
1	97	1
135	180	4
172	173	3
98	99	5
141	168	5
35	74	2
146	161	2
8	8	6
82	82	6
141	142	6
131	131	7
43	43	9
177	178	5
101	103	1
139	142	3
140	142	5
22	36	3
128	189	1
187	187	11
40	94	2
108	112	3
3	3	1
58	62	2
76	76	3
153	153	3
50	51	7
160	160	9
4	35	2
103	129	2
5	6	4
155	156	11
153	155	2
135	146	2
24	35	4
11	62	5
130	139	2
193	194	3
173	181	3
183	184	1
119	191	1
101	101	1
137	137	5
51	184	6
52	133	3
58	60	1
111	112	2
120	195	2
140	140	9
62	62	13
180	180	4
121	121	3
74	74	1
177	182	3
84	84	2
160	191	1
55	56	4
47	50	3
139	153	2
163	163	1
2	21	1
104	106	3
132	132	5
147	156	3
86	87	1
112	119	4
133	138	2
102	103	3
12	57	3
189	195	3
163	164	3
65	75	3
185	186	4
139	139	1
23	23	3
131	132	5
185	190	1
169	169	11
88	89	1
88	88	4
14	14	6
2	4	3
144	145	9
179	181	1
14	44	2
147	147	3
6	68	3
103	191	1
25	36	3
82	84	1
161	162	3
151	163	1
135	135	2
174	181	3
19	20	3
138	139	3
1	2	6
19	86	2
8	9	1
138	138	6
24	46	4
188	189	2
115	178	1
70	71	4
119	195	2
114	121	1
147	178	5
158	158	6
45	75	1
131	181	1
21	80	2
102	105	1
162	164	5
170	170	11
140	173	1
69	71	1
51	197	2
93	94	3
47	48	1
162	162	7
7	29	1
54	54	5
170	192	2
4	103	4
132	133	1
113	146	4
157	157	5
84	155	2
6	34	1
102	102	6
0	3	3
122	160	3
4	27	3
51	101	3
40	93	1
104	104	1
78	79	1
11	12	3
65	65	5
96	102	3
65	66	2
96	187	2
161	163	1
118	156	1
148	180	2
106	107	1
164	166	2
134	182	2
28	28	6
119	121	3
47	197	1
139	158	2
62	145	1
33	33	14
131	133	1
133	179	9
109	109	9
32	44	1
133	178	3
173	176	5
0	5	2
137	181	7
128	129	4
81	81	9
96	97	7
85	85	6
156	175	4
74	75	1
34	34	3
22	23	1
44	45	3
6	22	6
189	190	4
19	62	1
63	89	2
0	0	6
38	39	4
0	11	1
37	38	2
136	168	4
184	195	2
45	84	4
61	143	7
15	28	2
33	136	2
97	97	6
2	107	1
64	76	5
117	180	4
63	63	2
163	170	2
3	21	2
30	99	3
114	135	4
56	168	2
153	187	1
153	168	4
137	162	1
160	179	1
18	20	2
1	1	4
10	11	1
48	49	2
24	24	3
29	30	1
19	63	2
114	133	1
99	99	4
100	157	2
177	179	1
5	15	1
98	101	4
95	95	5
172	182	3
158	176	2
120	120	3
25	68	1
5	10	4
2	10	2
19	27	2
173	174	1
23	67	2
50	184	3
86	160	1
123	162	2
50	50	5
4	167	1
146	147	1
111	119	2
127	191	1
148	163	3
6	8	1
70	70	7
105	107	2
121	159	2
160	163	1
130	135	4
138	152	5
143	143	2
21	63	1
115	143	1
58	64	1
170	172	3
63	64	1
108	108	7
150	150	8
73	75	2
162	163	1
174	183	2
86	155	2
6	6	1
130	173	3
147	188	2
45	86	1
16	42	1
36	37	3
189	192	2
59	60	2
79	79	2
59	89	1
58	59	1
133	169	3
116	175	2
24	25	1
117	176	2
16	54	1
141	187	4
106	109	2
133	134	5
71	72	2
110	114	2
27	33	1
118	144	2
42	43	4
132	178	1
100	103	3
159	179	5
134	160	1
102	137	1
59	163	1
25	74	5
191	196	1
70	72	2
3	16	2
192	193	2
7	7	4
63	86	2
103	131	1
16	89	2
145	145	3
112	136	2
114	115	1
85	87	1
152	153	3
12	62	1
186	191	2
108	111	2
4	23	2
115	116	2
108	110	1
119	120	2
103	104	3
54	140	2
191	192	1
87	87	1
175	180	4
83	85	4
126	127	4
69	84	1
6	9	3
45	83	2
43	69	1
106	175	1
94	122	2
110	181	1
0	38	2
14	25	1
122	124	1
123	131	1
11	126	1
20	20	1
34	60	1
191	195	1
59	87	2
36	82	1
139	143	2
165	168	2
38	76	1
134	137	1
188	191	1
118	138	1
24	41	3
177	183	6
40	42	1
52	53	1
134	135	2
3	5	1
115	193	1
110	111	1
142	172	2
4	39	2
114	123	1
140	168	4
176	181	2
84	85	1
95	122	1
144	182	2
67	67	2
16	17	2
151	152	2
54	57	1
100	112	1
26	27	2
13	14	2
132	152	1
9	142	1
3	22	1
121	131	1
54	121	1
17	20	1
138	157	1
140	154	1
48	50	1
68	70	1
167	178	1
158	159	1
111	156	2
50	193	1
176	180	1
136	141	1
17	42	1
112	112	1
101	110	1
59	61	1
103	105	1
176	183	1
137	154	1
17	18	2
36	59	1
124	128	1
173	175	1
123	192	1
151	193	1
153	154	2
58	87	1
89	90	1
133	135	1
69	70	1
51	196	2
99	108	1
31	43	1
33	35	1
181	182	1
102	130	1
4	25	2
57	59	1
101	102	1
10	12	1
2	31	1
139	172	1
143	144	1
98	100	1
44	80	2
162	175	1
78	78	1
18	79	1
95	187	1
25	27	1
