37	37	24
74	74	28
103	105	1
90	97	3
37	38	10
80	80	57
64	71	13
59	59	49
98	98	25
90	99	14
89	89	32
55	55	34
41	41	20
29	29	35
33	33	28
77	78	11
83	83	27
67	70	2
79	81	15
52	52	23
61	61	29
87	97	8
67	67	24
66	66	41
92	93	21
84	85	26
87	98	3
34	42	1
60	60	23
34	34	21
56	56	25
26	26	43
28	29	20
75	75	35
103	103	40
96	96	36
29	30	13
31	32	2
38	38	33
44	44	27
36	37	18
63	63	19
27	55	1
50	50	42
36	36	21
64	65	11
45	46	8
35	35	42
51	52	27
30	30	24
39	40	5
30	31	10
87	87	29
91	91	17
101	102	10
58	58	42
85	85	23
69	69	26
70	70	23
33	49	1
73	73	22
45	45	37
78	78	24
23	23	28
22	79	6
21	21	33
39	39	27
81	81	16
102	103	6
104	104	31
93	93	24
20	20	26
77	77	25
48	49	13
25	25	43
47	47	11
52	75	1
27	31	3
47	48	3
71	72	16
88	88	37
24	24	38
72	72	24
43	45	3
72	73	14
82	82	30
66	67	13
83	86	8
26	27	13
27	27	41
57	57	24
64	64	31
31	31	45
22	49	2
86	86	23
71	71	40
92	92	39
85	86	9
78	79	6
97	98	18
40	40	43
105	105	34
53	54	15
28	28	28
51	53	8
81	82	14
67	68	9
41	44	16
63	64	15
73	74	9
99	99	26
102	102	24
97	97	45
94	96	8
32	32	35
33	34	9
101	105	2
62	63	20
97	99	9
59	62	2
68	69	20
27	29	5
27	57	3
89	96	9
42	62	3
42	42	31
38	39	20
90	91	8
72	100	2
103	104	11
88	98	3
63	66	2
38	80	3
55	56	15
93	95	1
50	51	8
79	80	10
24	25	7
41	43	3
68	70	6
65	66	6
46	46	34
43	44	7
62	62	16
22	25	2
84	84	32
39	76	6
96	97	19
94	94	20
22	46	1
54	54	24
100	100	24
101	101	32
79	79	24
76	76	30
31	33	10
35	42	2
87	88	9
49	49	23
44	45	3
61	67	5
82	83	7
22	22	42
37	42	3
86	87	17
75	76	16
68	68	11
88	89	15
78	89	5
87	91	4
26	31	3
55	57	4
90	90	22
27	28	13
23	82	5
92	94	3
25	26	16
100	102	1
61	62	9
80	81	9
40	41	12
81	97	6
70	71	6
95	96	10
51	51	25
94	95	3
20	49	5
58	59	10
40	42	1
46	54	2
22	78	8
61	66	6
22	43	7
56	58	6
23	81	3
25	39	4
102	104	12
20	45	7
26	56	2
77	89	2
43	43	18
95	95	16
34	44	2
64	68	4
65	70	5
47	49	3
65	65	19
42	44	8
37	39	4
40	57	1
52	54	8
106	106	8
53	53	14
80	82	7
89	99	3
22	80	5
52	53	10
50	52	3
31	41	6
106	107	3
28	30	3
76	101	4
20	21	2
53	55	5
46	47	3
107	107	7
88	91	6
42	43	6
56	57	3
81	98	2
76	77	3
32	45	5
91	92	5
21	47	3
89	90	13
83	84	10
82	97	1
78	97	1
22	23	4
52	91	1
91	99	1
100	101	11
32	43	2
21	58	1
20	22	5
25	40	2
68	72	2
54	55	5
104	105	7
102	105	2
57	60	3
56	59	2
89	97	1
21	32	3
61	64	9
60	61	5
38	43	1
38	42	2
76	91	1
40	45	2
49	54	3
37	81	2
48	48	6
20	41	2
38	84	1
91	102	3
22	53	2
37	40	4
36	80	2
89	91	1
36	81	6
90	100	5
23	32	2
92	95	8
57	58	5
90	102	2
98	99	11
45	49	5
78	92	2
35	36	6
78	80	2
46	48	5
38	40	8
80	95	3
62	64	2
23	54	2
54	90	2
81	86	2
78	88	6
37	51	1
69	70	2
21	22	6
105	106	1
51	54	1
39	82	4
99	100	2
21	80	1
24	31	5
20	50	2
71	74	1
30	41	5
23	24	2
70	72	2
41	45	1
48	51	4
93	96	2
99	101	3
78	95	2
36	39	3
38	82	2
49	52	2
34	35	5
22	33	3
50	84	1
25	27	3
30	32	3
84	86	4
35	37	1
77	93	2
32	33	4
26	38	2
76	81	1
41	57	2
62	66	2
32	34	1
59	60	5
83	87	1
79	103	3
24	55	2
97	106	2
101	104	3
93	94	2
82	99	2
25	59	5
27	56	2
90	96	1
43	59	2
61	63	2
27	30	2
76	99	2
64	66	1
20	47	2
38	41	1
37	57	1
30	33	1
51	68	1
24	28	1
83	85	3
77	79	3
82	84	3
85	87	2
56	60	2
44	60	1
56	76	1
69	72	1
71	75	1
28	31	1
86	88	2
86	91	1
57	68	1
93	100	2
24	35	1
76	90	3
82	98	4
59	61	2
34	36	1
40	44	1
22	24	1
26	30	1
20	59	1
71	104	1
26	40	1
28	32	1
71	73	2
84	101	1
66	68	1
40	43	1
24	39	1
21	79	2
78	82	1
79	88	1
22	45	1
91	101	1
86	97	2
29	32	1
65	67	1
39	83	1
31	40	1
23	53	1
90	106	1
23	52	1
87	89	1
81	99	1
20	54	1
88	99	1
75	77	1
