11	34	2
132	132	9
101	101	6
49	49	4
18	18	10
151	157	4
98	98	8
44	47	2
116	117	8
146	146	16
112	112	8
109	111	7
23	23	5
90	95	2
64	65	4
125	125	14
106	107	13
120	138	2
38	40	1
48	48	10
81	81	11
156	156	5
149	150	2
97	120	3
139	146	1
21	21	8
110	111	3
48	51	4
135	135	5
99	100	2
87	87	10
141	141	15
10	10	9
68	68	4
37	38	2
78	83	2
22	22	3
1	1	4
131	133	3
16	16	9
94	96	2
54	55	3
117	117	8
91	91	11
129	129	13
89	89	12
31	32	2
55	55	9
79	79	13
17	29	1
132	151	4
98	131	3
99	99	11
140	140	5
80	80	8
89	90	6
104	121	4
97	97	7
46	46	9
116	116	25
18	19	11
21	28	6
90	90	9
92	96	4
94	95	10
137	137	8
124	151	2
122	134	6
54	56	4
114	114	6
39	39	8
146	152	7
28	29	8
105	108	2
100	133	2
141	145	1
15	15	9
132	133	6
133	152	3
119	137	2
3	3	1
115	125	1
88	88	6
142	147	4
110	114	2
122	122	6
152	153	10
83	88	1
130	130	10
108	109	8
119	119	5
52	53	4
118	118	13
115	115	6
148	148	7
44	44	9
147	147	13
90	108	5
92	95	8
83	84	6
103	103	3
138	138	10
95	95	7
77	77	8
16	39	4
94	94	11
53	54	3
100	100	12
36	37	4
44	48	2
96	97	5
111	111	10
26	26	8
124	124	6
75	75	8
110	126	6
11	12	10
51	51	2
140	153	1
43	43	4
66	66	9
50	50	6
144	146	2
78	78	9
90	91	5
120	120	3
125	126	4
131	131	5
106	106	9
17	130	3
67	67	13
19	106	6
152	154	2
14	16	2
124	125	11
31	31	11
97	131	1
13	13	3
52	54	1
35	35	4
36	70	3
126	126	4
150	150	7
131	157	3
63	63	3
135	138	1
33	33	2
52	70	1
12	12	8
84	84	2
128	128	5
134	142	4
134	135	1
109	110	2
123	125	2
123	127	2
108	108	8
155	155	8
97	133	2
142	142	4
154	155	4
20	20	4
110	110	15
95	109	3
50	51	3
134	134	8
78	80	3
140	147	4
158	158	4
154	154	2
115	117	3
28	28	3
34	34	2
49	133	2
38	38	4
7	7	9
42	56	3
94	107	2
121	133	3
16	25	2
64	64	4
128	132	2
8	11	4
72	72	3
119	127	1
82	82	10
98	150	2
48	49	1
102	102	4
143	143	12
40	50	3
7	8	5
47	47	4
41	50	1
146	147	2
23	24	3
50	122	1
1	2	2
53	53	5
0	1	1
4	4	2
50	54	1
110	117	5
86	86	11
43	55	2
15	16	8
70	70	6
150	151	2
109	109	7
8	8	4
145	145	12
114	120	1
4	8	3
139	148	1
96	96	4
151	154	1
63	68	5
142	158	1
36	36	3
118	119	5
84	85	5
144	144	6
115	116	3
126	127	5
77	82	5
93	95	2
78	81	3
16	18	2
37	43	1
105	106	7
14	14	2
84	96	1
131	132	3
26	136	2
145	146	2
134	137	2
82	83	1
152	152	1
41	41	8
155	156	7
54	54	8
37	37	11
34	35	5
121	121	13
155	158	2
47	48	2
70	89	2
70	71	4
24	26	3
102	139	3
30	41	2
27	28	8
151	151	8
46	65	2
71	85	1
98	158	3
117	119	1
1	5	1
127	127	4
81	103	2
73	73	6
95	111	1
120	122	5
25	33	2
88	97	2
25	156	1
9	67	1
135	136	3
20	117	2
123	124	3
32	33	4
65	65	1
127	129	1
42	42	8
71	71	5
21	125	5
63	64	2
131	137	5
100	101	2
129	151	2
68	72	2
23	27	2
8	44	1
149	149	7
93	93	8
101	102	1
13	14	3
52	87	1
29	29	3
137	138	4
125	127	1
17	17	3
77	86	1
121	157	3
44	45	1
113	113	1
17	20	5
33	34	2
128	129	3
45	45	2
120	141	5
92	92	8
12	15	1
54	96	2
27	120	1
55	56	2
32	32	5
121	136	3
80	81	5
42	43	4
134	138	1
131	156	2
123	133	2
56	56	1
156	157	1
140	141	6
24	25	3
149	151	1
122	141	4
138	139	2
109	142	2
83	83	6
2	2	3
133	133	4
20	107	2
122	123	4
95	107	2
140	150	2
22	23	1
0	0	2
152	157	3
25	25	1
35	36	1
8	12	1
81	85	2
157	157	2
104	150	2
148	149	2
144	147	3
148	152	1
62	63	1
19	20	1
52	52	6
140	148	3
108	110	2
144	145	5
129	130	1
41	42	4
86	87	2
97	136	1
20	21	1
104	104	4
30	36	2
142	144	1
93	108	1
128	156	1
154	157	3
5	6	4
132	158	3
90	97	1
107	109	1
26	118	1
29	70	1
14	15	3
90	92	1
19	19	1
43	54	1
141	142	3
39	126	1
80	130	1
88	90	1
6	7	2
9	9	4
123	123	2
114	115	4
102	130	1
15	106	1
31	38	1
134	158	1
24	66	4
103	148	2
53	70	3
2	3	1
48	56	1
36	91	1
54	95	1
0	2	1
95	96	1
139	158	4
85	87	1
95	97	3
139	139	5
45	46	1
78	82	1
141	146	1
81	82	1
141	153	2
121	135	1
132	137	1
141	147	3
102	116	1
119	121	2
113	114	1
107	112	1
30	31	1
57	63	2
121	134	1
105	105	1
63	67	1
46	63	1
44	65	1
103	108	1
104	105	1
105	114	1
64	102	1
151	152	1
117	118	1
49	81	2
27	119	1
139	150	1
69	69	3
54	88	1
38	39	1
43	51	1
139	147	1
7	32	1
42	44	2
67	71	2
127	131	1
39	43	1
31	37	2
51	53	1
51	55	1
118	120	3
107	107	1
85	85	2
147	153	1
53	94	1
156	158	1
92	114	1
18	21	1
23	29	1
70	95	1
40	41	1
17	19	1
21	38	1
33	38	1
48	54	1
4	101	1
131	134	1
146	153	1
78	79	1
64	70	1
78	85	1
130	131	1
93	94	1
92	93	1
39	40	1
45	47	1
