7	7	17
139	139	5
13	13	8
68	68	10
14	15	2
28	48	2
8	24	2
11	12	3
14	14	12
25	25	11
127	127	9
28	29	4
126	153	3
104	104	2
119	121	3
127	155	4
128	128	5
85	123	3
74	74	6
68	69	5
98	98	9
48	48	5
141	142	8
34	34	5
150	150	2
46	46	6
8	27	4
141	141	4
12	13	2
85	86	7
12	48	4
91	92	1
23	24	3
133	133	2
39	39	3
33	36	2
45	46	2
30	30	3
125	125	5
82	82	2
84	84	2
55	55	4
18	18	1
5	5	8
1	2	4
2	2	15
76	77	1
100	100	11
52	52	11
78	88	1
32	32	6
97	125	2
107	107	7
147	147	18
138	138	1
55	66	3
21	21	8
5	6	4
80	117	2
5	8	3
126	150	5
128	129	2
112	113	1
71	71	15
120	120	1
124	124	6
158	158	2
146	147	4
14	48	6
106	106	4
29	29	1
132	132	7
156	156	5
154	155	2
122	145	3
145	145	11
151	152	1
97	97	5
78	78	2
122	122	9
28	148	4
117	117	7
17	17	8
86	88	1
148	149	2
129	130	1
52	97	4
56	71	1
103	103	2
62	63	1
45	131	2
112	112	3
3	21	3
75	75	5
0	0	17
63	63	7
65	65	2
67	67	7
132	133	3
129	129	6
31	31	9
90	90	1
13	14	2
24	150	1
19	90	4
109	109	3
81	82	2
77	113	1
24	24	5
149	149	6
45	137	1
57	57	5
7	12	1
67	108	1
148	148	2
146	146	3
55	56	4
27	50	2
73	75	1
9	9	6
153	153	5
136	136	5
10	10	3
114	115	6
130	134	2
28	28	7
154	157	2
81	93	3
23	23	2
99	99	6
144	144	11
146	154	5
70	70	5
105	110	1
84	131	4
104	121	2
21	51	1
113	113	4
78	120	2
4	4	10
95	95	4
6	6	7
43	43	2
51	51	4
40	50	2
11	11	4
152	152	2
79	80	8
43	129	2
140	140	4
92	92	1
49	50	2
157	157	4
82	83	3
77	77	2
118	145	2
118	119	5
76	120	2
25	37	1
49	49	3
131	141	2
56	66	2
7	8	5
91	134	2
126	144	3
12	55	2
101	101	9
84	114	2
12	49	2
16	16	4
40	43	3
30	51	2
131	134	2
7	9	2
25	38	1
140	141	1
130	130	3
16	17	1
2	40	1
153	154	1
1	1	6
94	94	3
155	155	2
91	94	3
111	111	6
89	89	1
16	18	2
82	103	1
111	117	2
80	80	1
123	135	3
19	20	2
36	36	4
143	151	3
73	73	5
40	41	3
15	15	2
63	69	2
20	20	4
50	71	3
87	97	3
95	96	1
152	154	1
126	132	1
90	132	1
22	22	2
148	156	2
145	153	1
157	158	2
77	117	1
66	66	3
135	136	2
114	114	1
134	136	2
3	3	3
29	103	1
16	22	4
155	156	2
51	53	1
154	154	5
38	38	1
41	41	3
64	64	1
137	137	2
121	153	1
142	152	1
44	44	2
54	54	2
118	118	1
86	87	2
79	115	3
87	113	2
29	35	1
33	33	3
124	150	1
121	121	1
84	92	1
81	81	1
67	68	2
40	40	1
26	27	1
38	50	3
62	68	1
78	113	1
37	37	1
112	154	1
85	90	1
134	134	2
116	117	1
8	14	1
151	151	2
147	154	2
78	103	2
106	107	2
87	92	2
79	156	1
31	32	2
117	122	2
119	120	1
118	143	2
29	30	1
43	55	1
98	124	1
103	121	1
127	142	1
13	22	1
80	81	1
101	102	1
26	28	1
110	114	1
149	158	1
93	93	1
140	144	1
26	26	1
35	36	1
67	69	1
105	105	1
47	47	1
56	56	1
92	150	1
111	116	1
123	146	1
