79	81	5
161	161	3
5	6	2
181	181	14
228	231	2
38	38	13
56	56	4
81	82	12
12	12	9
155	155	8
188	188	4
23	23	13
197	197	4
21	21	6
20	20	12
190	191	3
99	100	2
119	119	6
160	160	5
29	29	5
221	230	1
59	174	2
1	1	9
181	182	5
113	113	8
5	5	8
116	116	6
225	226	8
126	126	1
179	179	5
70	70	6
69	151	4
191	191	2
54	55	4
241	241	4
125	127	5
36	56	4
42	42	9
46	46	8
45	45	15
167	167	10
43	232	1
100	100	9
11	11	2
88	88	12
171	171	4
78	79	7
16	32	2
203	207	4
101	102	2
0	0	7
64	64	6
156	157	9
219	219	9
231	241	1
64	149	6
105	105	2
201	203	2
102	103	2
127	128	2
137	137	6
81	85	1
202	202	3
35	35	6
153	153	8
33	33	5
60	60	13
10	11	1
24	81	6
98	98	11
2	2	3
235	236	2
65	65	7
104	104	6
30	52	3
8	8	5
3	4	3
235	235	5
85	96	2
162	162	4
95	96	3
6	6	12
22	22	12
83	84	11
35	37	5
196	196	11
67	68	2
207	207	6
191	210	3
80	84	1
192	193	3
225	227	2
157	157	8
67	67	3
127	127	5
178	178	5
99	182	3
9	9	6
224	224	4
36	36	7
136	136	8
62	63	4
63	65	2
51	51	5
5	7	2
25	25	7
236	236	3
7	7	10
198	198	9
76	78	2
158	158	7
82	82	4
152	160	2
187	187	2
222	222	6
43	43	5
28	28	12
167	187	2
135	136	2
22	24	1
37	37	4
120	121	2
103	199	1
189	196	4
15	15	8
166	166	2
144	159	2
101	101	6
229	229	9
66	106	3
37	127	3
95	95	3
30	30	7
31	32	3
138	138	6
117	117	1
62	62	9
128	128	11
44	45	3
218	226	2
182	182	5
53	53	5
75	77	4
97	140	2
209	209	4
17	17	19
68	76	1
204	204	8
234	234	3
140	141	5
218	227	4
185	195	1
233	233	4
4	5	3
50	50	4
39	54	3
213	214	3
60	206	2
112	113	5
39	39	3
11	15	2
81	81	13
149	150	2
58	58	13
44	55	3
158	161	1
145	146	1
210	210	6
22	23	1
55	55	3
172	173	2
21	50	3
107	122	5
170	170	8
47	47	6
200	200	2
4	4	2
108	112	1
8	37	5
223	223	2
1	10	2
83	92	1
27	27	8
32	33	1
196	197	5
82	83	3
130	130	7
176	176	7
52	54	6
183	183	6
9	65	3
210	211	3
205	205	7
24	25	5
54	54	9
103	103	4
44	152	1
217	217	2
76	76	3
147	148	2
229	230	2
71	237	3
168	168	5
151	151	2
38	39	3
212	212	3
28	29	4
79	79	11
32	32	6
160	161	4
230	231	3
0	1	7
173	173	6
232	234	2
102	102	10
238	238	3
120	140	1
218	218	5
63	63	3
49	50	7
139	204	2
43	152	1
4	7	1
60	171	1
237	237	9
170	189	2
195	195	4
18	20	1
69	69	4
32	211	1
75	109	2
43	64	6
31	31	4
31	33	4
8	16	1
39	154	1
66	66	6
108	113	1
195	196	1
126	127	5
122	122	4
79	80	1
202	242	2
134	149	1
179	209	4
154	165	3
185	185	3
25	234	2
11	12	2
80	80	7
69	86	3
109	109	1
20	83	2
81	88	6
74	74	6
12	15	4
220	221	2
83	83	3
144	144	3
118	118	8
13	29	2
97	97	4
116	132	2
217	232	4
222	223	2
29	48	3
211	211	4
157	160	1
184	188	4
214	215	4
189	189	3
75	75	5
186	209	2
241	242	5
62	66	4
40	154	2
30	44	3
13	14	7
201	201	6
85	86	2
175	230	2
12	13	5
52	53	3
49	49	4
143	147	3
68	225	2
183	219	1
154	160	1
101	198	2
24	24	9
10	10	2
186	186	11
134	134	2
140	142	5
86	86	6
221	221	5
16	16	5
34	34	1
37	38	2
234	235	1
15	20	4
33	34	2
19	19	6
142	142	2
159	159	4
102	104	3
61	61	5
179	181	3
60	205	2
184	184	1
36	66	3
178	223	2
169	194	1
239	239	1
154	157	2
59	60	2
16	17	2
85	85	4
122	123	3
62	232	1
213	215	1
218	231	1
216	230	1
215	215	3
183	201	3
18	19	1
197	198	1
73	73	4
125	125	3
175	208	2
68	68	3
1	15	1
226	227	2
10	55	1
39	40	1
199	199	9
137	143	2
110	112	1
26	26	5
177	222	1
84	84	9
126	131	2
141	142	2
200	210	3
184	200	1
139	139	1
34	35	2
212	215	1
5	34	2
18	18	8
72	72	5
6	7	3
96	96	3
14	14	8
64	73	1
203	203	1
197	202	1
3	8	3
71	73	3
89	89	1
48	48	1
226	226	3
40	40	6
25	27	2
155	156	1
2	13	1
27	69	2
150	150	1
178	217	1
10	43	2
177	177	6
164	164	5
169	169	2
131	133	3
107	107	2
240	240	3
185	188	2
230	230	4
227	227	1
29	30	2
2	29	1
43	44	2
207	208	1
143	146	1
216	216	1
45	232	2
77	78	4
66	68	1
77	77	1
45	238	3
57	59	1
75	79	1
194	194	1
213	213	3
43	163	2
124	124	2
184	185	4
103	104	4
175	175	3
187	188	1
180	180	5
115	117	4
26	55	2
59	59	1
119	120	1
194	209	2
71	71	2
40	178	1
13	13	3
104	126	2
149	149	1
159	210	2
42	152	2
6	67	1
36	220	2
86	151	1
21	23	2
123	123	2
165	165	2
17	19	2
169	186	1
59	205	2
44	44	1
8	30	2
114	116	1
69	148	2
40	41	2
7	8	1
31	50	2
44	67	1
141	141	1
51	52	2
39	121	2
166	186	1
6	66	1
120	135	4
13	15	1
189	190	1
37	140	2
98	115	2
41	104	1
188	189	1
96	97	1
37	205	2
168	188	1
231	231	1
103	106	1
111	111	1
193	194	2
145	145	1
68	69	2
101	182	1
113	118	1
2	3	1
62	137	1
170	192	1
88	158	1
81	83	2
242	242	1
128	129	1
222	229	1
35	229	1
48	59	1
214	214	4
161	191	1
21	48	1
140	145	1
25	26	1
34	215	1
110	110	1
147	147	2
63	64	2
193	193	1
84	85	1
103	177	1
178	199	2
209	210	1
22	48	1
38	54	1
189	191	1
56	142	1
138	139	1
232	232	2
41	89	2
221	222	2
46	54	2
11	14	1
63	66	1
3	3	3
143	144	1
220	220	4
57	57	1
78	78	2
116	117	1
114	115	1
124	125	1
121	121	1
208	208	1
35	51	1
185	187	1
151	152	2
220	226	1
178	197	1
175	184	1
115	115	3
39	44	1
35	36	1
182	183	1
198	206	1
132	135	1
137	138	1
68	80	1
217	231	1
206	206	1
210	213	1
15	22	3
124	126	1
184	187	1
161	163	1
66	229	1
37	121	1
84	86	1
62	76	1
200	201	1
64	69	1
17	18	1
174	200	1
173	174	1
20	23	1
128	176	1
14	15	1
123	124	1
219	220	1
133	134	1
36	127	1
178	183	1
212	243	1
