50	61	2
75	75	16
93	101	1
95	96	3
39	39	11
81	94	7
44	58	1
53	54	3
53	53	18
80	102	7
59	59	34
84	84	15
54	54	11
63	63	12
49	49	6
87	87	3
81	84	6
40	41	1
49	56	2
93	93	17
81	81	12
33	33	17
101	101	15
70	70	19
65	67	3
52	52	11
47	47	6
56	56	5
83	83	10
40	40	12
69	70	7
27	27	4
29	29	6
61	61	16
30	30	2
32	32	4
73	73	8
85	85	7
44	44	10
20	22	2
79	79	29
78	80	4
46	46	7
34	34	10
43	43	12
71	71	17
57	73	6
47	48	10
59	60	5
66	66	20
68	68	16
88	88	15
89	89	10
31	62	2
72	73	4
83	84	2
66	67	7
102	102	6
48	48	19
26	26	4
57	57	21
90	91	3
51	51	10
31	31	8
99	99	9
97	97	6
96	97	11
78	78	10
63	64	8
51	53	7
50	50	14
98	98	5
64	64	6
41	42	6
73	75	3
90	90	19
58	58	8
25	25	8
38	102	3
76	76	9
94	94	10
91	91	19
86	87	6
69	76	1
67	67	11
74	75	1
52	92	4
71	72	7
23	23	5
42	42	4
37	38	1
92	101	6
49	78	2
92	92	8
35	35	2
95	95	12
86	86	16
56	58	1
33	34	4
55	55	14
41	41	17
34	41	1
65	65	7
72	72	15
80	100	2
56	57	2
98	101	4
92	100	1
34	78	3
55	60	4
57	58	5
65	69	3
90	93	2
61	100	3
62	62	12
38	38	8
44	50	1
80	81	3
22	22	4
69	69	14
79	85	2
63	99	1
60	60	5
87	88	7
37	37	7
36	36	3
44	45	5
45	45	4
48	50	1
49	50	2
65	72	1
74	74	12
61	62	7
46	47	5
77	77	6
97	98	2
48	54	4
34	35	2
50	92	1
68	72	2
80	93	1
100	101	3
75	77	6
89	90	7
73	74	1
52	54	4
89	102	2
60	100	4
88	89	1
81	82	2
57	90	3
52	62	2
39	40	5
47	55	3
83	93	2
100	100	7
32	33	4
60	61	4
42	44	2
91	92	2
48	58	2
59	64	4
81	93	1
61	70	1
65	78	3
80	80	8
27	53	3
68	71	1
61	99	1
82	82	1
64	83	4
69	72	2
50	51	2
46	51	2
85	99	2
32	35	1
62	63	7
49	63	3
64	78	1
55	86	2
99	100	2
20	24	3
58	59	3
91	93	2
77	78	1
42	43	2
49	90	5
25	26	2
52	99	2
59	66	2
68	70	3
34	36	1
51	52	2
85	86	2
36	37	3
69	77	1
96	98	1
55	67	1
46	58	1
56	92	3
75	76	2
43	69	2
49	52	1
79	80	2
80	85	1
25	27	1
94	96	2
38	39	3
65	66	1
72	76	3
22	26	1
92	94	1
46	48	1
60	83	1
31	32	3
70	71	1
59	83	1
78	79	1
92	93	3
63	70	1
51	99	1
81	86	2
38	84	2
69	71	2
46	70	1
98	99	3
79	81	1
54	55	1
71	74	1
91	100	2
67	69	1
92	99	1
89	99	1
53	62	1
93	94	1
57	91	1
82	84	1
93	97	1
57	72	1
65	68	1
