149	149	10
137	137	5
69	69	13
20	20	16
43	43	5
25	68	1
47	48	2
41	41	11
85	89	3
49	50	1
153	153	12
112	113	1
84	84	4
23	23	5
5	6	2
22	22	4
83	84	1
54	54	3
135	152	4
22	24	3
124	125	6
8	9	6
58	77	1
14	15	2
72	74	3
106	106	11
69	70	1
135	135	11
81	82	2
142	142	4
45	46	3
14	14	12
85	93	1
28	28	4
30	31	9
46	46	13
125	125	6
100	100	14
79	79	3
18	22	2
96	96	10
134	134	6
78	81	5
4	84	4
9	18	1
106	107	3
57	57	16
118	118	15
129	129	8
31	31	2
27	27	4
84	87	1
10	22	2
55	55	6
131	153	6
97	97	2
128	128	8
84	85	3
10	19	3
142	143	1
132	134	3
48	48	5
80	81	2
41	42	2
133	134	4
48	49	6
116	116	1
99	99	6
65	65	9
73	73	11
42	43	2
3	3	3
68	68	10
40	40	16
42	42	8
131	131	4
77	77	8
139	146	1
26	26	4
135	141	2
57	58	5
9	9	9
152	152	2
117	117	8
37	37	12
16	16	8
4	5	2
35	36	1
45	45	6
39	39	13
51	51	6
124	124	2
102	103	4
105	111	4
150	150	8
70	96	2
53	53	5
99	100	3
8	8	9
35	35	3
147	147	2
5	5	8
86	86	4
148	149	1
21	21	7
25	25	4
105	105	1
58	58	2
71	71	6
52	53	1
104	104	9
115	115	7
13	13	11
143	143	11
100	102	1
82	82	2
6	6	1
65	66	1
8	17	2
78	79	2
10	12	2
70	71	1
112	124	4
67	67	15
11	11	8
95	95	2
111	113	1
56	56	4
9	11	4
103	111	2
17	17	8
37	40	3
44	44	6
87	87	7
18	18	10
94	95	4
111	127	1
24	24	6
111	111	2
102	117	5
85	85	3
9	129	1
80	85	3
147	148	2
122	122	7
29	29	3
123	126	4
145	146	2
9	106	1
2	2	3
107	107	11
10	11	6
22	23	2
70	70	8
47	47	3
87	88	1
134	135	3
145	147	3
130	130	5
16	18	2
102	102	9
103	103	2
4	7	5
12	12	5
70	77	1
38	38	8
49	49	2
137	146	2
16	17	2
64	64	6
146	146	6
67	68	1
63	63	5
39	40	3
7	25	1
100	101	1
18	39	1
36	36	7
38	45	2
33	33	1
38	40	5
53	54	1
76	76	7
92	92	3
111	128	1
113	113	3
109	129	3
76	77	3
10	10	5
114	115	1
15	18	1
126	127	4
3	9	2
138	139	3
138	138	2
121	122	3
144	145	6
23	101	3
73	76	4
21	22	1
9	10	1
15	15	4
120	139	1
80	80	7
133	133	3
49	68	1
124	132	1
62	64	2
5	7	2
143	145	1
30	65	5
148	148	5
83	83	1
92	96	2
2	8	1
19	19	4
8	18	2
32	33	4
93	98	3
43	44	7
94	94	5
31	62	2
30	33	3
4	4	3
78	95	1
40	41	7
77	79	2
9	23	1
112	112	3
40	68	1
130	132	1
149	150	3
17	107	2
130	131	3
120	122	1
24	25	5
105	109	1
72	72	2
132	132	2
136	146	3
109	109	3
74	74	3
145	145	4
4	21	2
13	14	1
55	56	1
62	76	1
34	34	5
121	126	1
136	136	1
119	126	1
68	69	2
20	22	1
107	109	1
7	74	1
81	81	4
77	78	1
144	147	1
84	93	1
74	112	1
103	114	2
47	50	1
27	32	1
56	58	3
150	151	3
73	75	3
54	56	1
123	124	1
131	132	2
97	99	1
79	80	3
34	35	2
121	121	2
115	116	1
140	140	1
55	63	1
64	65	2
93	93	3
66	66	3
69	76	2
95	97	1
82	83	1
72	76	2
27	28	1
50	50	1
35	37	1
11	12	1
40	47	2
154	154	2
110	110	1
32	32	1
20	21	2
108	108	3
93	94	1
99	116	1
100	106	1
81	84	2
64	74	1
105	106	1
124	127	1
75	75	2
12	26	1
93	97	1
98	98	2
127	128	1
61	61	3
15	34	1
100	114	2
120	144	1
17	36	1
13	25	1
72	73	1
40	42	1
7	7	1
74	75	1
128	129	1
107	108	1
80	82	1
85	86	2
15	16	1
37	38	1
127	127	1
113	114	1
144	144	1
4	39	1
141	142	1
10	41	1
82	85	1
2	3	1
118	153	2
141	141	2
86	98	1
151	151	2
114	114	1
78	80	1
96	97	1
101	101	2
9	19	1
51	55	1
15	17	2
97	98	1
94	96	1
14	24	1
74	105	1
116	121	1
