30	30	11
22	22	11
20	20	4
86	95	1
44	47	6
18	19	10
12	14	4
104	104	15
57	57	11
65	65	8
49	49	27
97	100	1
103	126	6
44	44	11
15	15	17
122	122	8
58	58	18
66	98	4
17	24	2
31	32	3
112	112	15
102	102	17
47	47	22
27	27	12
93	94	3
118	118	10
38	38	5
86	86	5
110	110	3
127	128	12
52	54	3
93	93	10
125	125	10
70	92	6
131	131	13
116	116	12
23	24	8
5	5	14
53	53	18
90	90	8
61	62	5
121	121	19
23	23	11
1	2	2
128	128	16
29	32	2
62	63	1
1	1	10
0	0	4
13	13	25
3	3	5
19	19	21
46	47	9
103	103	20
111	111	10
95	96	11
75	78	6
95	95	8
46	46	21
89	94	7
74	74	6
80	107	3
98	98	14
50	53	2
45	88	4
79	108	3
2	2	11
133	133	6
24	25	8
8	8	9
81	81	9
96	96	12
6	6	17
40	41	15
55	104	4
114	116	4
17	17	13
41	41	19
16	16	15
25	25	3
109	109	19
43	43	5
94	95	3
27	28	7
59	59	11
76	77	5
107	107	5
91	91	16
97	97	7
102	103	10
56	56	11
32	32	10
62	62	3
76	76	21
32	106	2
104	105	15
33	83	4
123	123	7
50	58	2
115	116	3
105	106	4
69	69	21
73	73	7
101	102	5
29	108	4
24	24	12
110	112	1
82	82	10
50	54	1
40	40	20
124	124	10
50	50	17
107	109	1
65	68	4
26	26	7
129	129	4
52	52	15
132	132	11
33	106	2
55	128	4
88	122	2
76	88	2
29	30	1
94	94	5
126	129	5
94	110	1
73	74	5
75	77	5
28	28	7
59	63	1
56	57	2
17	22	3
99	99	3
104	118	4
7	7	11
84	108	3
70	70	5
60	61	7
55	55	7
105	105	10
76	80	2
106	125	2
11	15	2
64	64	10
51	51	9
50	51	5
44	46	4
87	88	4
73	101	4
56	125	1
70	71	5
12	12	5
83	83	12
75	87	3
20	23	3
45	45	9
47	112	2
132	133	4
11	12	4
113	113	17
68	68	12
115	115	6
29	29	9
48	48	10
29	110	1
9	12	7
116	117	4
123	124	5
39	39	6
80	80	7
44	45	5
119	119	6
2	3	1
125	129	5
61	61	3
100	101	5
89	89	4
43	44	3
47	57	1
11	11	4
59	62	1
81	82	9
32	80	1
87	87	8
60	60	2
72	73	4
78	103	1
103	104	1
120	120	14
105	120	5
114	120	1
77	77	5
107	108	6
7	111	2
85	85	5
126	127	2
5	14	7
76	78	3
85	86	3
45	46	3
108	108	7
97	98	2
10	11	6
117	117	7
80	81	2
18	18	4
42	42	6
19	20	2
34	34	3
46	60	3
68	69	6
104	106	3
77	81	6
38	113	2
67	67	12
82	85	5
52	53	1
6	116	1
39	43	1
56	100	6
100	100	2
33	34	2
53	54	1
13	117	3
6	105	3
4	4	13
37	38	1
79	80	9
91	113	2
10	10	6
59	61	1
69	70	2
14	14	7
88	89	1
41	42	3
88	88	3
64	123	5
72	72	7
107	111	4
73	98	4
53	57	4
63	63	10
120	121	4
69	76	1
49	104	1
33	33	6
68	73	1
13	16	4
104	119	1
106	106	4
55	126	2
101	101	6
113	114	2
106	129	1
48	49	2
125	128	5
70	88	2
20	31	4
63	64	2
41	45	1
42	43	7
91	92	1
7	8	5
24	34	2
49	51	2
112	130	2
119	121	7
54	54	4
95	133	3
115	117	1
66	66	5
21	42	1
58	109	2
68	100	1
49	50	2
71	75	2
49	71	3
53	60	2
106	107	2
88	90	2
59	77	1
75	82	4
82	87	4
55	65	2
25	124	4
66	67	2
39	40	4
16	17	4
50	104	1
27	116	1
7	13	3
65	66	4
128	129	2
28	29	3
64	103	1
16	115	2
41	106	1
99	100	1
69	104	3
68	84	3
56	132	4
119	120	4
21	21	6
72	101	1
13	14	4
62	64	1
78	119	3
73	102	4
41	44	3
127	127	2
38	39	2
67	97	3
27	29	2
79	79	4
26	27	1
84	84	4
79	120	1
54	125	2
45	104	2
77	78	3
77	123	2
22	23	1
3	4	1
78	78	3
82	84	5
104	125	1
98	99	1
130	130	2
9	9	2
59	60	1
75	75	1
34	113	1
2	14	1
54	123	1
114	114	4
92	93	5
46	105	4
27	106	1
21	22	2
90	91	1
41	105	1
32	69	1
24	33	3
90	92	2
32	95	2
9	10	1
71	88	2
44	89	1
40	42	3
1	12	2
54	130	1
82	99	1
71	73	1
69	71	2
49	112	2
113	119	1
42	91	2
19	33	2
129	130	1
65	69	3
14	15	1
19	32	1
32	96	2
85	87	2
96	103	2
128	131	1
18	40	1
11	13	1
7	98	1
56	124	1
34	99	1
108	113	1
18	41	1
88	91	2
4	9	1
56	65	1
79	81	1
118	119	1
57	58	1
91	94	1
48	72	1
68	86	2
32	93	1
96	97	1
