140	150	11
69	69	14
114	114	6
76	76	6
20	20	9
153	154	3
100	110	18
10	11	3
78	78	5
38	38	8
96	97	3
77	85	5
81	81	9
21	86	3
92	92	15
110	110	7
75	75	9
5	5	4
101	101	7
125	125	10
157	157	7
76	82	1
29	29	12
30	30	22
28	38	6
27	27	21
42	42	12
144	155	1
77	77	17
90	90	7
116	126	2
8	12	3
92	145	2
16	18	1
118	118	20
146	146	10
15	16	5
72	72	2
90	91	9
31	32	3
33	34	5
28	28	7
149	149	6
18	19	11
147	147	7
21	21	17
34	35	1
41	41	11
114	116	1
17	17	14
17	97	3
16	22	1
132	132	12
150	158	1
57	57	8
86	86	8
11	13	1
9	65	5
103	103	10
145	147	3
105	139	4
122	139	5
23	25	2
152	152	8
144	145	5
108	108	9
7	41	1
117	117	5
116	116	14
4	16	1
106	106	8
107	107	15
100	148	1
22	22	13
46	46	12
106	131	3
18	18	10
88	97	5
85	86	1
114	115	4
81	84	2
28	29	3
109	118	6
8	8	15
120	120	10
150	150	9
22	37	3
104	104	11
43	43	11
4	4	13
13	13	2
47	47	4
43	138	1
154	154	10
34	48	2
129	129	12
23	30	1
134	135	2
66	66	6
48	50	3
101	146	2
32	83	1
34	85	1
2	2	4
68	68	5
63	64	1
144	157	3
95	95	6
6	6	7
85	114	1
101	139	1
123	123	12
76	114	9
135	140	1
110	132	1
50	50	13
83	94	2
113	113	3
44	44	9
154	155	3
11	64	5
119	119	11
126	126	18
132	134	2
4	42	5
93	93	13
91	94	3
63	63	8
5	28	2
113	115	4
50	54	1
154	156	4
105	105	4
110	111	3
17	18	4
63	95	4
131	133	3
21	22	2
136	137	4
25	51	4
17	20	3
27	53	3
3	4	7
105	113	6
9	13	2
68	145	1
51	52	5
45	47	3
84	84	11
148	148	14
3	3	6
120	126	6
118	126	2
0	97	1
10	10	10
53	53	19
52	54	2
85	85	8
49	49	3
144	144	5
159	159	9
100	100	11
11	11	4
153	153	9
8	10	6
15	15	15
1	1	16
87	87	6
36	39	4
84	89	1
131	131	6
38	39	4
135	138	4
105	110	3
23	27	3
95	104	2
67	70	3
98	157	1
83	83	4
131	134	2
152	154	3
71	119	2
18	23	3
134	134	5
9	10	2
127	134	3
19	20	6
54	55	4
73	152	1
16	41	2
7	8	4
117	120	2
117	118	3
102	102	6
155	158	1
54	54	11
102	110	4
127	127	9
77	78	4
94	94	4
24	24	5
137	137	13
38	40	1
28	36	2
15	31	5
40	41	1
2	4	2
23	23	6
0	2	5
115	115	4
36	36	14
98	99	2
67	67	11
55	71	1
73	73	14
136	136	8
135	135	7
40	40	4
12	12	7
34	34	7
96	146	2
42	43	1
104	146	3
121	132	1
36	37	1
69	71	2
40	51	1
39	39	7
0	0	6
4	5	1
25	25	10
71	71	17
45	45	4
10	77	1
52	52	9
148	149	4
79	79	3
91	117	2
95	153	3
10	76	5
139	139	6
138	139	3
121	121	9
122	138	1
44	45	3
51	51	15
36	150	2
95	154	2
120	141	3
94	112	5
7	7	14
123	127	4
64	90	1
135	151	1
98	156	2
139	140	7
126	132	3
98	98	3
123	124	3
29	38	1
2	3	2
48	77	2
126	127	5
48	48	2
27	28	5
106	117	3
82	82	11
50	51	3
37	37	5
157	158	3
13	14	3
119	120	7
11	14	3
83	84	2
53	56	6
142	142	2
6	7	3
101	102	1
109	109	1
135	136	5
14	51	1
36	50	1
96	147	3
34	54	3
92	109	2
54	141	4
68	69	3
134	138	1
40	42	2
135	137	1
103	120	2
109	146	2
32	77	3
126	131	2
1	2	1
3	29	2
88	89	3
14	14	12
2	44	1
121	127	1
96	98	2
26	27	3
158	158	3
4	50	2
142	151	2
26	83	2
121	123	5
92	116	2
151	154	1
106	107	4
122	122	6
55	55	9
90	94	1
144	148	2
41	42	5
156	156	3
99	156	3
96	96	4
62	66	3
124	124	1
141	141	6
15	22	6
49	70	2
45	46	4
90	112	3
109	112	3
133	133	7
2	29	3
50	52	3
16	16	4
19	86	3
120	121	1
95	103	2
90	141	1
90	140	1
124	125	3
74	75	1
99	99	5
26	26	2
2	5	1
91	141	3
1	27	1
87	93	1
56	56	2
13	21	2
118	127	2
108	110	4
10	67	3
92	108	5
62	67	1
126	147	3
7	45	2
146	157	2
118	147	1
56	61	1
97	97	2
16	20	1
145	146	5
155	155	4
117	144	2
51	66	3
62	71	1
104	135	4
65	65	7
71	72	1
6	64	1
24	78	2
124	126	2
15	61	1
134	156	3
43	48	1
150	157	2
95	96	4
9	11	1
9	96	1
96	153	2
69	144	2
0	95	1
55	66	1
32	32	3
142	144	2
133	134	7
52	57	1
31	31	8
140	149	1
130	130	5
48	49	1
80	81	2
124	127	2
145	145	2
79	81	2
147	150	3
137	138	2
121	137	1
5	158	1
33	33	4
52	53	2
86	105	1
127	150	2
71	144	1
18	20	3
30	56	2
117	146	1
35	51	1
138	140	3
100	106	2
63	67	2
72	81	3
65	70	2
137	140	1
112	112	7
1	44	1
97	158	2
67	69	1
111	113	3
22	26	2
66	78	1
69	112	1
88	107	6
95	112	1
104	148	3
106	134	1
47	96	1
100	149	1
35	55	1
3	42	2
25	36	2
55	56	1
78	82	3
98	139	4
49	67	4
7	143	2
25	35	1
75	78	1
63	72	1
141	142	1
104	141	1
20	21	4
82	85	1
111	111	2
41	56	1
19	25	2
123	132	2
89	89	1
143	143	3
107	148	1
90	118	1
66	67	2
9	9	2
90	92	1
80	80	5
123	137	2
3	26	1
148	150	3
64	156	4
151	151	1
54	87	2
140	140	3
47	48	1
157	159	1
93	94	1
134	158	1
17	117	2
31	153	1
67	68	1
27	30	1
116	150	1
38	45	1
4	49	2
88	109	1
70	71	2
125	155	2
69	113	2
53	141	1
18	25	1
129	131	1
33	40	2
25	50	2
3	25	1
124	156	1
30	70	1
14	31	1
64	64	2
127	131	1
91	91	1
158	159	3
115	156	1
65	86	1
64	71	1
87	111	1
92	146	1
33	48	1
24	25	1
49	52	1
4	28	1
68	71	1
16	17	1
72	119	1
151	155	1
125	126	1
94	150	1
89	90	1
22	23	4
128	128	3
44	48	1
146	147	1
87	88	1
4	22	1
24	30	1
45	91	1
1	73	1
3	84	1
62	153	3
130	131	3
84	103	1
4	66	1
120	127	1
5	45	1
124	154	1
29	36	1
8	47	1
121	136	2
98	150	1
98	145	1
19	21	1
116	144	1
48	56	1
120	144	1
63	154	1
108	109	1
73	84	1
6	158	1
5	50	1
88	88	1
88	90	1
16	21	1
92	113	1
110	119	1
122	124	1
77	86	1
35	41	1
116	120	1
100	135	2
7	43	1
3	71	1
48	90	1
93	108	1
9	12	1
127	147	1
44	54	1
40	49	1
