26	26	12
13	13	5
77	77	15
56	56	14
0	63	2
27	30	2
6	7	9
52	52	10
40	40	10
38	38	8
21	27	1
46	55	3
3	4	8
2	2	9
33	33	8
66	80	4
37	37	16
73	74	3
1	1	12
49	53	2
9	9	13
66	66	11
59	59	12
11	14	4
27	27	8
10	10	10
31	35	6
79	79	15
65	65	9
78	79	2
18	19	4
47	47	17
42	42	4
5	5	17
58	58	6
4	43	1
28	28	9
31	33	3
75	75	5
0	21	1
74	74	9
55	55	10
73	73	9
69	70	5
37	38	1
39	46	1
33	34	4
50	50	5
78	78	14
80	80	1
1	2	4
31	32	8
50	52	8
8	26	1
54	54	10
58	59	2
48	75	4
16	30	4
16	18	3
0	32	1
69	69	5
48	49	7
36	36	13
60	60	11
63	63	3
32	33	7
71	72	9
65	70	1
31	38	2
3	3	10
4	4	9
71	71	3
27	29	8
79	80	2
11	12	2
46	46	9
53	54	10
64	64	3
53	70	1
1	3	2
57	57	15
39	39	14
61	61	2
10	11	3
13	14	5
7	7	14
15	18	1
55	56	7
49	49	7
16	16	5
8	9	7
76	76	6
0	0	6
55	61	1
33	56	3
42	43	2
49	51	6
45	45	5
19	20	2
46	47	2
20	20	6
75	78	2
36	65	3
15	15	6
5	6	5
51	51	6
63	64	3
2	10	1
11	11	5
2	3	4
35	76	3
14	17	5
12	32	4
9	10	3
6	6	8
32	32	8
30	40	2
0	3	2
1	17	1
34	56	1
14	14	2
74	78	4
10	30	3
25	25	1
34	34	5
45	46	3
35	56	1
58	60	2
21	30	1
15	16	2
17	17	5
41	47	3
4	5	3
47	64	1
11	19	3
29	30	4
8	8	9
18	18	2
1	37	1
57	60	6
77	79	1
7	8	1
67	67	3
46	66	3
16	29	4
19	26	3
49	65	1
21	36	3
19	19	5
74	75	1
77	78	3
40	41	3
50	70	1
42	47	2
72	72	1
48	78	5
28	34	2
2	37	2
35	35	3
47	68	2
48	48	1
56	59	2
58	62	1
66	74	1
48	77	2
21	21	5
5	21	1
42	63	1
1	20	1
16	31	2
63	65	4
2	4	1
31	31	2
33	42	1
56	57	1
67	70	2
28	35	1
37	41	1
2	19	1
64	65	1
38	39	2
60	61	2
29	29	2
62	62	4
37	48	1
50	53	2
51	52	1
28	29	1
26	27	1
75	76	1
14	30	1
50	63	1
68	68	2
38	42	4
57	63	1
39	40	1
53	53	1
66	67	1
41	41	1
5	25	1
38	45	1
14	16	1
74	76	1
70	70	1
39	55	1
59	60	1
59	62	1
0	17	1
