43	43	12
102	102	30
15	60	4
66	67	3
55	55	46
76	78	1
120	120	41
85	85	45
118	125	2
72	72	18
79	80	13
40	41	14
100	104	6
39	40	5
52	53	23
45	45	32
56	56	41
20	20	48
117	117	21
53	53	90
50	50	54
86	86	26
51	51	57
46	71	3
109	109	37
75	77	4
132	132	35
26	26	39
10	10	30
130	130	22
12	12	39
104	105	13
81	90	1
0	1	12
1	1	36
112	112	47
75	82	3
96	97	9
68	78	2
23	23	27
73	74	21
2	2	33
74	74	19
52	52	55
47	47	43
123	124	14
129	129	23
76	94	9
89	89	42
73	73	15
39	44	3
98	98	36
124	124	35
19	19	22
111	111	38
11	12	8
106	106	22
97	97	19
113	114	8
73	75	8
72	96	1
65	65	18
22	22	13
38	38	14
9	9	21
119	120	5
41	41	33
66	68	2
114	115	14
63	64	2
17	17	17
26	71	4
96	98	5
1	39	3
45	46	13
104	107	3
75	75	37
56	68	8
107	107	22
105	124	5
68	69	5
114	114	17
62	62	40
46	46	52
41	42	9
87	87	17
58	58	42
102	106	5
42	42	45
13	13	47
54	54	59
110	112	4
68	77	4
8	11	5
65	66	16
2	4	14
68	68	24
41	43	3
49	50	8
91	91	21
122	122	53
91	99	4
96	96	31
21	21	30
119	119	34
125	125	26
7	7	47
40	40	26
13	21	3
48	48	60
78	78	20
113	113	52
91	125	4
105	106	15
70	71	16
126	128	12
92	92	37
3	3	21
29	29	23
44	45	13
66	69	3
32	33	7
54	55	4
96	120	1
80	80	45
121	121	37
67	67	11
69	69	37
128	128	23
133	133	14
104	104	53
113	132	1
0	0	22
118	131	2
63	88	5
118	118	19
110	110	53
24	28	5
89	95	1
88	89	4
122	123	9
25	26	8
118	119	15
32	32	21
88	88	20
98	99	4
6	6	74
120	127	2
116	116	21
67	68	11
124	126	1
69	70	4
85	86	9
66	72	3
115	131	1
49	49	42
109	125	3
39	39	27
63	63	40
6	9	9
87	88	9
27	27	33
61	61	15
103	104	12
5	5	16
84	84	22
15	15	17
25	25	12
62	77	3
7	12	5
116	130	4
105	131	2
6	20	2
85	131	5
96	102	1
102	103	14
115	117	3
127	127	21
18	18	18
57	57	38
90	90	15
126	126	25
125	128	4
77	77	28
31	31	20
97	98	14
102	130	2
65	123	2
1	123	3
86	87	9
110	111	16
71	72	15
31	40	1
108	108	30
3	5	2
109	118	5
18	33	2
27	28	7
13	104	5
83	84	12
80	81	16
16	16	21
92	93	13
101	102	11
59	68	2
53	54	13
123	123	31
95	95	19
92	108	4
72	74	9
94	95	8
63	77	7
8	9	8
2	3	12
31	32	9
108	130	3
111	112	19
85	106	1
18	23	1
15	55	2
66	78	7
33	33	18
5	22	4
59	60	13
74	75	5
60	85	2
129	130	16
115	118	2
99	99	22
45	55	2
19	30	3
60	60	20
116	117	13
34	39	3
79	86	1
99	100	3
85	88	3
30	31	3
101	114	2
9	10	4
13	85	3
83	83	15
105	105	22
5	6	5
43	63	1
59	59	23
44	44	21
38	41	1
20	21	3
79	79	25
64	64	31
43	128	2
46	47	33
131	131	11
115	128	1
71	71	29
112	113	10
108	109	8
14	39	1
43	61	6
4	4	11
57	62	1
12	13	9
31	48	2
42	69	1
42	64	3
98	100	4
28	28	18
118	129	2
102	114	5
78	80	2
93	93	21
76	76	35
15	17	2
13	17	2
76	86	7
85	89	1
85	104	2
117	119	6
55	68	3
4	5	16
81	81	16
84	88	1
47	48	4
19	26	1
90	93	4
109	110	8
93	94	11
7	8	8
64	67	3
74	76	5
24	24	24
78	79	6
94	96	3
91	127	1
103	103	14
105	112	2
100	100	13
22	25	1
5	55	6
57	58	2
61	62	8
115	115	21
29	48	2
40	42	1
94	94	20
4	19	1
14	14	16
58	59	11
126	127	9
3	4	5
55	56	4
49	51	1
4	7	4
30	32	4
101	101	33
66	66	25
13	23	2
28	29	9
27	46	2
18	22	1
11	11	21
47	51	3
19	20	12
115	116	13
27	121	2
13	26	2
0	10	2
114	128	4
10	11	6
69	113	3
57	78	2
45	54	2
112	119	2
70	70	9
106	109	4
82	82	18
58	69	4
111	113	5
128	129	4
2	6	2
21	45	2
83	89	4
127	128	2
55	69	3
59	61	2
112	120	1
8	8	11
44	46	2
72	73	5
119	129	3
96	99	3
109	127	1
51	122	1
29	39	1
114	131	3
101	103	2
7	21	2
99	106	11
110	118	1
130	131	8
46	51	1
43	79	2
107	131	1
2	69	1
62	63	10
90	91	8
95	96	10
61	63	1
66	71	2
131	132	12
114	116	7
56	59	1
85	87	2
126	130	6
63	72	7
5	7	2
101	108	1
6	7	8
88	107	2
18	19	6
90	97	2
28	31	3
14	41	1
77	78	3
10	52	1
81	88	1
26	27	4
18	44	4
76	83	2
60	62	4
16	18	13
89	90	9
38	39	8
17	18	2
54	65	1
45	90	4
105	107	2
125	126	7
107	108	5
70	75	2
56	77	2
88	90	4
115	129	3
51	53	2
91	92	13
10	49	4
80	84	1
80	82	2
37	39	8
30	30	13
58	88	1
15	24	1
58	96	1
8	50	3
86	88	1
75	83	2
64	89	4
34	34	12
9	69	3
79	96	4
65	80	1
57	92	1
13	14	13
27	29	2
32	90	1
15	21	3
127	129	3
14	15	10
21	22	5
96	100	1
78	83	1
21	29	1
21	24	2
104	106	4
46	57	4
100	101	4
124	125	11
23	24	9
89	92	1
120	132	2
84	85	6
43	85	1
72	95	1
68	113	2
15	16	3
121	122	2
21	33	2
18	20	3
126	129	4
29	30	16
89	125	1
115	119	4
93	110	1
10	12	2
86	100	3
53	57	2
6	53	1
39	48	2
105	127	1
20	46	4
80	85	1
60	93	1
3	11	2
65	68	1
132	133	5
39	41	1
18	21	1
65	88	7
18	62	4
62	106	1
76	80	4
26	42	4
16	39	2
105	114	1
49	53	3
75	80	1
73	76	2
44	48	2
47	54	1
30	47	1
21	23	1
104	123	1
92	107	4
72	127	2
5	114	3
46	63	2
16	19	2
119	126	1
119	127	3
75	76	2
41	128	3
48	49	4
92	94	1
51	52	9
74	92	1
124	131	1
13	19	2
13	16	1
43	44	8
17	38	1
70	72	3
7	10	3
55	67	2
65	67	2
21	28	1
106	107	6
0	11	2
64	70	3
19	21	4
42	44	1
63	66	2
69	112	1
12	32	1
3	13	2
104	126	2
115	126	1
108	120	1
19	33	1
53	113	1
20	49	2
3	9	1
58	97	3
50	52	6
69	85	2
63	79	3
17	21	1
20	39	1
42	43	5
55	61	1
81	82	5
62	85	2
55	65	3
38	40	4
113	125	1
45	63	8
121	132	2
64	132	2
15	23	1
120	131	1
17	42	1
83	99	2
38	47	2
86	116	1
54	71	4
20	22	1
107	130	2
11	56	2
90	125	3
103	125	3
55	63	1
12	47	6
14	42	4
19	46	5
117	118	6
120	121	4
99	101	5
76	79	1
47	52	3
20	28	2
4	8	1
48	52	1
7	30	1
12	15	1
70	90	2
6	109	2
53	122	1
50	56	1
71	122	1
101	130	3
46	56	2
55	79	2
117	128	2
7	28	1
16	17	8
66	109	1
106	110	1
60	63	1
102	104	4
107	123	5
69	80	1
117	129	2
94	104	3
58	92	2
54	57	1
117	130	1
82	85	4
71	95	3
54	93	1
122	132	4
116	129	1
64	68	1
1	12	2
3	43	2
99	104	1
89	109	2
105	113	1
89	91	1
45	76	2
123	132	1
52	70	3
116	119	1
7	20	2
5	8	1
57	79	2
120	124	1
13	20	2
33	34	2
97	99	2
55	77	2
87	93	4
65	95	2
129	131	1
1	2	6
102	128	2
48	106	1
88	105	2
51	132	1
43	45	3
22	24	1
53	73	3
90	92	1
84	86	2
33	58	1
107	118	3
26	47	3
114	125	1
116	124	1
52	69	1
109	126	1
42	59	2
5	14	2
112	132	1
54	94	1
117	124	1
16	22	2
0	6	2
42	89	2
57	76	1
38	83	2
83	107	2
89	93	1
5	108	1
20	48	1
106	111	1
10	46	2
50	51	4
81	87	1
125	130	1
18	25	1
62	88	1
17	69	2
41	61	1
105	110	2
46	69	1
73	82	1
16	61	1
48	54	1
12	46	2
13	113	2
64	79	1
94	111	1
65	96	2
62	70	1
114	132	1
97	100	1
65	74	3
54	56	2
42	47	1
13	15	1
100	108	1
29	75	1
44	47	3
95	105	2
57	80	1
101	119	1
13	24	1
76	77	1
43	129	1
4	13	2
91	97	2
76	84	1
67	72	1
112	133	1
50	112	1
42	46	1
16	21	2
128	131	1
19	23	2
40	76	2
11	21	1
60	61	3
27	30	1
82	105	1
96	101	1
116	131	2
28	30	1
74	93	1
4	6	1
64	86	1
82	84	1
22	50	2
37	38	1
124	130	1
72	75	1
17	61	1
9	20	1
119	122	1
119	125	1
115	125	1
93	95	1
57	84	1
128	130	1
27	40	1
2	5	1
82	83	1
45	48	1
44	63	1
113	129	1
40	49	1
96	110	1
59	62	1
44	79	1
107	109	1
14	22	1
108	118	1
58	62	1
99	105	1
113	116	2
