35	35	16
130	130	4
109	109	6
62	66	5
141	148	6
103	103	6
9	9	17
44	44	8
23	23	11
56	56	4
101	116	5
32	32	8
39	39	8
168	168	10
135	135	5
121	125	5
25	25	5
94	99	2
156	156	2
6	39	3
37	38	4
164	164	10
2	3	4
157	158	6
118	119	5
133	136	1
155	155	6
4	4	16
55	55	6
40	40	7
10	10	10
177	177	5
134	134	15
26	26	19
106	106	2
7	8	6
31	35	6
117	134	2
10	11	8
13	14	9
61	61	13
98	98	4
15	15	17
3	3	34
22	22	18
100	101	5
80	80	5
169	169	8
139	139	10
13	13	14
138	138	12
12	13	5
27	27	4
7	7	13
166	168	5
122	125	4
24	33	4
6	6	19
20	20	20
18	18	5
8	8	8
159	159	7
151	151	10
150	150	7
2	2	9
41	41	25
179	179	2
102	137	4
114	122	1
141	144	2
22	23	10
156	157	7
74	74	3
33	33	18
178	178	1
104	104	13
127	127	1
16	16	12
96	96	5
148	148	3
4	38	3
21	35	1
53	54	4
28	28	14
79	176	6
19	19	14
29	50	3
112	112	3
86	86	6
2	6	1
135	136	1
50	50	5
133	135	2
12	78	3
50	53	3
126	126	5
1	1	6
129	129	5
72	151	5
41	44	4
29	29	18
110	111	2
21	22	3
143	143	6
114	114	7
62	63	9
123	123	11
25	29	2
160	160	1
132	132	8
149	149	5
102	102	4
78	78	7
32	44	3
43	43	15
83	83	4
63	65	8
14	16	3
87	108	1
117	117	17
36	38	1
60	60	4
175	175	3
84	84	12
104	106	3
152	152	5
81	81	4
160	161	2
4	35	1
65	65	6
75	147	1
108	109	4
12	12	7
39	40	12
27	51	2
75	84	1
110	110	2
147	147	4
180	180	3
144	144	2
88	88	3
170	170	8
142	143	2
6	23	2
34	34	10
157	157	8
50	66	2
103	105	2
0	21	2
38	44	2
101	101	6
36	39	1
11	11	9
116	117	3
121	121	5
106	114	1
5	43	3
128	135	3
24	24	14
114	144	2
173	173	6
167	172	4
5	21	1
50	52	2
85	85	4
125	137	3
32	38	4
33	43	2
23	25	7
32	33	5
73	110	3
125	149	1
7	42	3
80	97	3
115	115	3
90	91	1
152	160	3
16	36	4
37	37	13
30	135	1
146	146	4
163	163	7
68	100	2
24	58	3
140	140	4
53	53	1
116	170	1
70	70	2
161	161	5
98	99	4
13	42	3
171	173	2
44	45	8
11	30	6
30	31	5
17	18	2
21	95	2
36	37	6
144	145	1
25	28	2
174	174	11
82	82	2
145	146	2
107	107	2
14	14	12
129	130	2
57	57	19
12	75	3
79	79	1
117	126	5
5	5	11
14	39	2
2	9	3
144	160	2
115	120	6
88	131	2
66	66	5
18	19	10
128	166	5
7	16	1
36	43	1
66	67	3
61	62	3
7	9	1
24	31	2
167	167	2
15	16	3
17	17	5
12	42	1
56	58	3
72	72	13
38	39	2
50	51	1
26	29	5
26	28	5
93	106	2
117	135	2
152	156	2
6	15	6
43	44	10
29	31	3
12	30	1
100	100	2
107	111	3
112	113	1
91	91	3
145	164	1
56	61	3
141	141	10
21	21	10
143	144	1
11	31	2
29	30	2
76	147	1
10	24	2
160	162	4
111	113	2
4	5	1
136	136	2
124	124	1
99	99	8
38	38	7
36	58	2
20	37	2
171	172	3
131	131	4
155	156	3
76	76	1
97	97	4
52	53	2
29	38	2
78	106	3
162	162	3
61	64	2
9	38	1
116	116	6
35	40	2
91	102	3
26	27	2
172	173	2
130	131	1
129	173	3
8	15	2
72	111	3
23	30	3
75	75	2
25	26	3
137	138	3
165	169	2
90	98	2
99	100	3
115	173	3
145	162	3
168	169	3
104	110	4
102	140	2
163	164	6
73	140	4
46	46	3
121	166	1
6	7	2
8	33	4
63	63	1
92	140	2
62	62	6
122	122	5
166	166	4
52	52	6
15	18	3
77	77	4
108	108	2
134	166	1
1	11	1
74	170	1
87	87	4
58	58	1
27	41	1
74	75	1
137	137	8
10	27	1
171	171	2
77	106	2
111	112	1
90	93	3
133	133	2
176	176	5
155	161	2
45	45	4
59	59	2
126	127	2
35	39	1
78	79	3
24	35	3
127	128	5
87	88	1
77	179	2
71	71	5
94	98	1
122	124	2
149	179	3
139	171	1
19	33	1
68	68	1
3	38	1
98	178	1
119	120	2
161	163	1
5	6	2
1	8	1
79	80	6
9	45	3
95	95	3
25	36	2
160	174	1
127	130	3
104	105	2
8	10	2
34	35	1
118	135	2
75	76	2
33	41	1
116	173	1
149	150	1
5	7	3
119	119	2
80	98	2
55	60	2
20	21	1
12	28	1
83	86	1
158	158	3
128	128	5
170	174	1
30	30	5
24	25	5
92	92	4
83	89	2
94	94	1
101	115	1
81	93	1
13	78	1
42	42	7
128	129	1
17	26	1
153	153	1
11	12	1
62	64	2
16	17	1
67	68	2
111	111	2
30	97	1
6	8	1
71	131	1
151	153	2
142	142	1
96	97	1
121	122	1
160	164	1
41	42	1
156	167	2
75	81	1
74	159	1
16	31	1
45	46	1
7	23	1
163	171	1
108	112	1
18	22	1
165	165	2
4	15	1
98	101	5
30	85	1
160	165	2
103	139	1
7	10	2
23	32	1
154	155	1
154	162	1
89	110	2
55	56	1
177	178	1
42	43	1
115	158	1
105	105	2
111	120	1
113	113	2
34	39	2
36	36	5
20	22	1
118	118	4
0	1	1
15	35	1
125	163	1
45	54	1
102	112	1
10	14	3
74	79	1
92	169	1
166	167	1
118	128	1
7	12	2
83	98	2
54	54	1
150	151	1
67	67	1
16	35	1
123	132	1
8	9	3
31	31	2
164	165	1
159	160	2
141	153	2
78	95	1
28	29	2
113	114	1
159	163	1
91	97	1
2	4	2
35	44	1
38	40	1
145	145	2
64	80	2
65	68	1
157	177	1
49	49	1
138	140	3
121	127	1
24	41	1
125	125	1
35	38	1
56	59	1
158	159	1
18	33	1
173	174	2
11	27	1
0	0	1
32	95	1
91	98	1
24	26	1
3	9	1
82	86	1
134	137	1
106	130	1
24	32	1
64	64	1
