36	36	6
9	9	15
58	86	3
47	47	13
21	21	11
93	94	12
56	57	5
45	45	23
100	100	6
77	77	12
65	65	18
83	83	23
126	126	14
61	61	14
134	134	9
44	44	16
62	62	13
123	123	9
110	110	7
24	24	5
106	106	7
79	79	7
120	120	5
8	15	2
91	91	5
86	114	4
75	75	11
19	19	19
33	33	16
104	104	4
68	68	15
0	0	10
20	28	2
56	56	12
94	94	12
114	115	2
25	25	7
9	94	4
46	46	22
98	98	7
132	133	7
7	10	1
82	83	5
30	30	9
131	132	2
10	10	9
6	20	3
17	99	6
71	71	16
115	115	3
12	12	13
85	85	5
72	72	23
23	103	4
82	82	21
26	27	12
57	58	3
3	3	11
128	132	3
89	89	2
7	7	11
13	14	4
41	42	7
21	22	3
123	125	2
86	87	2
32	34	1
118	119	9
109	109	6
101	131	3
11	11	9
111	111	9
20	76	3
107	107	3
55	101	1
80	80	3
116	116	6
63	63	7
76	76	5
28	29	1
18	98	2
77	79	1
31	62	4
6	8	4
122	122	8
20	21	4
18	18	8
21	84	1
95	95	7
34	60	1
57	110	1
83	84	3
63	64	5
25	26	1
44	73	1
124	124	2
66	66	10
45	46	5
120	121	3
67	67	6
78	86	4
4	4	7
20	20	9
62	63	3
4	5	1
6	6	6
27	80	1
27	27	13
128	129	3
111	117	2
33	47	1
99	99	6
72	73	5
119	119	11
22	22	3
106	127	2
9	73	3
133	133	4
97	97	7
26	26	4
47	48	7
59	59	14
25	27	2
34	34	9
61	72	2
71	72	6
111	113	1
39	39	2
101	101	14
74	75	2
85	86	4
99	100	4
56	106	1
105	105	6
88	108	1
2	2	7
61	76	2
128	128	1
47	67	3
78	78	8
90	93	2
29	30	3
60	72	4
90	91	3
47	117	3
43	43	6
84	84	5
58	58	5
48	77	1
3	6	1
29	29	4
37	38	2
114	114	5
8	36	5
68	69	4
26	92	2
42	43	3
86	86	4
69	69	8
97	98	1
57	97	1
40	40	6
3	27	3
17	17	5
117	117	6
2	3	1
64	64	8
20	25	1
121	121	1
102	102	8
60	60	13
49	80	4
59	60	10
14	14	4
65	66	3
3	4	2
89	98	2
78	81	1
95	98	4
45	59	2
101	103	1
19	20	4
86	110	1
91	103	2
86	112	3
73	74	3
62	72	3
32	32	7
32	35	1
34	35	1
20	22	2
129	129	3
76	85	1
78	99	1
8	8	5
16	74	1
70	70	13
15	22	2
64	69	2
87	87	5
57	57	6
45	83	5
93	93	3
32	33	1
98	127	2
30	31	1
41	41	3
48	48	5
130	130	5
101	102	4
92	92	1
73	73	3
112	112	3
133	134	1
3	101	1
6	7	2
26	35	2
58	59	2
7	20	1
38	39	3
88	88	1
42	42	4
66	67	1
19	27	6
8	9	2
124	125	2
132	132	5
107	108	1
14	20	2
38	38	2
27	28	1
47	89	1
7	93	2
13	13	2
23	23	2
1	3	1
56	59	3
91	92	2
19	26	3
31	31	2
67	69	2
28	38	3
12	70	1
29	33	1
88	91	1
10	11	3
74	74	8
35	36	3
87	88	4
122	123	1
7	8	3
107	111	1
45	89	1
32	59	1
114	133	1
93	101	1
39	40	5
113	113	3
39	82	1
76	77	1
125	125	3
100	101	3
5	5	2
15	16	2
10	85	1
92	106	1
37	37	2
105	106	1
46	59	2
108	109	1
15	15	4
46	83	1
117	130	1
2	11	2
95	96	1
36	44	2
79	80	1
78	79	2
28	28	3
85	101	2
66	90	1
79	83	1
4	46	1
46	47	2
22	27	2
96	96	1
105	130	2
6	40	1
67	71	1
96	98	1
46	75	3
76	83	1
81	81	1
121	122	1
4	98	1
103	125	1
37	39	1
90	90	3
22	24	1
2	5	1
35	35	3
104	132	1
8	12	1
117	118	1
36	37	1
81	83	1
62	67	1
20	27	1
