171	172	3
152	153	6
14	14	11
28	28	9
129	136	5
26	26	11
173	175	8
100	100	2
94	94	12
186	187	7
150	150	13
39	39	12
20	21	7
40	41	3
163	164	5
1	1	8
4	4	8
131	131	11
37	40	1
25	25	4
27	30	2
178	178	9
89	104	3
132	135	2
163	192	4
36	36	8
189	190	8
10	10	9
167	168	3
181	182	9
153	175	4
116	158	2
183	183	8
134	135	9
66	89	2
189	189	13
155	156	6
33	33	7
117	144	2
36	37	6
5	8	1
159	159	10
152	152	6
19	19	7
187	187	16
16	25	2
161	165	3
15	15	5
96	96	6
63	66	1
57	57	8
191	191	10
151	167	4
30	30	6
139	139	8
123	123	7
148	148	2
54	54	10
42	42	8
161	161	5
18	20	3
0	2	2
52	53	1
51	52	2
11	11	9
107	107	8
187	188	4
172	192	1
0	1	1
19	25	2
186	186	11
70	70	5
147	147	4
30	31	9
148	149	7
196	197	2
89	89	4
142	142	14
95	95	5
49	49	5
168	169	1
177	178	3
74	74	11
163	163	9
173	173	12
101	101	12
131	136	2
135	135	13
80	80	3
2	7	2
118	119	6
124	125	9
18	21	3
1	15	1
122	122	11
188	188	19
103	103	10
69	71	6
37	37	10
176	177	7
9	10	6
106	106	9
123	124	6
193	193	4
156	156	8
0	0	3
167	176	2
38	38	8
164	164	6
13	13	4
173	176	10
132	132	3
130	130	6
169	169	13
1	3	4
166	167	5
62	86	5
156	184	3
113	114	9
3	4	3
73	74	3
50	51	3
147	150	1
172	172	5
31	32	3
155	155	8
17	35	1
24	25	7
150	152	1
99	103	5
32	33	5
128	128	6
47	48	3
40	40	17
160	165	2
67	67	1
110	124	3
35	37	4
143	147	5
127	127	5
25	28	4
146	148	4
23	23	4
177	177	4
40	42	2
2	2	6
184	184	14
163	175	2
48	48	3
121	121	6
41	42	3
5	7	2
29	29	2
185	187	2
102	102	4
12	13	7
185	186	2
170	170	6
180	180	6
140	140	5
93	93	3
41	41	3
179	180	1
126	126	3
62	74	1
125	126	7
125	127	2
194	196	1
192	192	8
69	87	1
44	44	6
166	166	7
79	80	1
191	192	3
72	72	3
81	82	2
165	166	3
17	19	1
104	105	2
110	110	2
122	123	3
169	189	1
194	194	8
134	136	2
141	142	2
161	162	8
88	88	4
84	109	2
45	45	9
78	114	2
174	193	7
137	137	3
195	195	13
176	176	3
26	28	3
47	49	1
115	115	3
24	24	14
24	27	4
122	125	4
154	154	10
160	169	5
109	111	4
53	53	6
143	151	1
170	179	1
118	118	1
158	159	4
101	102	1
178	180	3
116	118	4
138	140	1
171	171	7
194	195	4
66	95	1
23	25	5
5	5	12
25	26	4
104	106	1
159	174	8
85	85	9
158	158	2
152	165	3
138	139	1
34	35	2
99	107	2
65	68	3
77	77	4
151	151	8
149	149	2
114	114	9
176	178	7
157	157	5
133	135	3
139	141	5
22	23	4
186	188	4
171	182	3
66	67	2
197	197	2
16	18	6
37	44	1
17	17	2
146	146	8
186	193	1
98	98	1
126	127	5
90	90	2
152	160	5
119	119	9
149	151	2
27	27	5
145	148	1
124	124	3
12	24	1
22	36	1
59	76	1
27	28	3
136	136	6
103	105	2
69	69	4
196	196	7
185	185	6
129	129	5
195	196	3
56	56	1
35	36	2
47	50	2
130	189	3
168	168	11
112	112	3
59	59	4
0	8	2
31	31	4
172	183	1
135	138	1
172	177	1
193	194	2
100	132	1
172	178	3
160	170	6
169	172	5
42	44	1
190	190	3
149	150	2
21	21	4
161	163	2
70	71	2
145	145	4
157	159	3
146	151	2
175	175	9
182	182	5
106	107	5
139	140	4
167	167	4
17	18	2
144	144	2
154	157	4
160	197	2
16	19	2
23	24	7
183	184	1
43	43	2
16	17	3
112	113	4
105	105	5
19	20	7
130	158	2
173	174	4
26	27	1
154	155	2
35	35	2
141	141	2
145	146	2
45	55	2
104	104	2
3	3	3
68	68	3
60	62	2
123	125	2
162	162	3
28	29	4
147	149	1
165	175	4
160	171	3
126	128	1
58	58	4
181	181	2
81	83	1
184	187	1
22	22	3
47	47	7
46	46	4
50	50	2
54	57	1
170	189	1
94	97	3
137	138	1
132	133	8
34	37	1
21	23	1
117	117	3
133	133	5
43	44	3
134	134	8
171	179	1
130	131	3
34	34	1
99	99	1
138	138	6
174	176	5
179	179	4
20	20	9
134	137	4
59	73	1
5	9	1
143	143	3
171	197	2
89	90	4
184	188	1
108	108	1
115	117	4
153	165	1
83	83	1
118	139	3
155	157	1
120	120	3
65	65	1
80	81	4
193	195	1
12	12	3
50	52	1
4	5	5
135	157	4
103	132	1
159	166	1
172	174	2
52	121	2
149	157	1
6	8	1
79	82	1
105	108	5
136	138	1
88	110	1
39	40	2
49	187	2
167	171	2
18	18	2
160	161	1
112	116	5
156	157	2
151	152	4
25	27	2
147	172	1
121	123	2
62	76	2
137	139	2
66	66	1
142	151	1
1	5	2
62	65	1
113	113	2
120	121	5
137	181	2
33	34	2
13	14	3
81	84	2
6	6	2
131	166	3
151	155	4
2	4	3
164	166	1
3	37	1
111	111	1
93	94	1
77	114	2
169	195	1
159	164	2
192	193	1
156	159	1
55	56	1
147	154	1
71	71	2
60	63	3
3	6	1
79	79	1
22	191	3
174	174	1
7	8	2
60	64	1
174	175	2
115	116	1
37	39	1
162	163	3
165	165	1
10	11	1
182	183	4
135	154	1
108	118	1
156	174	5
64	68	1
167	174	1
51	51	1
163	168	1
55	55	1
28	32	2
114	115	2
20	189	1
146	166	2
161	166	2
36	38	1
9	9	1
170	188	1
140	144	1
11	12	1
94	95	1
134	138	1
113	118	2
8	8	1
25	34	1
110	116	1
147	148	1
107	112	1
138	142	1
140	147	1
62	62	1
153	154	1
152	156	1
105	106	1
125	125	1
147	164	1
19	37	1
129	133	1
6	37	1
