41	41	9
120	121	8
53	53	28
24	25	6
82	82	8
129	129	11
136	137	3
63	64	6
85	87	3
26	26	34
28	28	14
150	151	15
48	48	9
10	10	18
17	23	1
159	159	21
79	79	15
46	46	16
15	15	25
65	65	10
112	113	6
111	111	14
77	78	14
78	80	8
158	159	13
52	52	15
48	49	7
44	44	14
64	64	19
70	70	20
3	4	6
81	81	12
54	54	8
13	13	26
146	147	7
84	109	2
40	40	12
72	72	39
151	151	23
118	118	6
165	167	11
5	6	5
103	103	12
114	115	1
122	123	9
25	40	9
163	163	17
132	134	5
17	24	2
145	148	8
106	107	7
107	108	11
22	22	7
112	112	23
165	165	6
25	25	22
43	77	2
136	136	8
47	47	25
112	114	4
2	2	24
105	105	13
39	39	25
161	163	2
153	154	16
95	101	2
108	109	21
73	83	6
44	45	7
34	35	8
138	138	9
160	160	14
38	40	1
127	128	2
78	78	9
93	93	11
96	96	20
34	34	42
130	130	16
144	144	20
71	72	24
51	51	22
81	82	4
50	50	15
24	24	22
27	27	11
69	69	15
111	112	10
134	134	21
49	49	26
106	106	11
49	54	1
73	73	30
111	129	3
116	117	13
115	115	34
1	1	24
92	92	15
18	20	8
74	74	27
167	167	18
132	132	9
4	4	15
155	155	13
101	104	2
94	94	23
87	87	23
76	76	17
164	165	3
139	139	13
88	88	26
49	51	4
13	15	5
55	56	18
43	45	2
17	17	10
0	2	7
159	160	6
9	9	14
110	126	3
150	150	12
20	25	4
127	130	2
74	75	5
49	52	5
126	126	18
74	77	3
43	94	3
33	33	9
99	99	13
102	102	8
127	127	11
119	119	13
1	18	1
44	47	6
48	57	3
143	143	16
6	7	11
138	141	3
155	156	9
1	2	4
38	38	8
53	84	3
22	23	10
89	89	17
108	110	2
5	5	26
76	77	7
23	23	13
5	7	3
156	164	3
8	9	7
154	155	12
13	14	9
107	110	3
146	146	14
124	126	7
62	64	6
152	152	11
43	43	20
116	116	26
109	111	8
36	36	18
17	18	6
122	122	18
141	141	14
40	110	4
8	8	24
102	104	5
21	24	2
156	166	4
88	89	15
63	63	29
119	121	2
140	141	7
154	154	14
1	3	3
11	11	22
133	133	13
161	161	18
156	157	4
113	113	21
132	147	8
12	12	9
16	16	9
164	167	3
149	149	27
100	100	20
38	39	4
72	73	8
0	1	7
127	132	5
66	68	3
55	55	23
10	12	3
9	11	4
123	123	7
40	48	2
45	45	21
120	120	12
139	141	7
114	114	21
55	83	5
18	19	1
152	169	2
32	110	3
32	70	1
161	162	7
110	111	7
14	15	10
53	54	9
109	109	21
19	19	10
101	101	22
107	132	2
116	169	3
168	168	11
113	116	6
79	83	7
71	71	23
57	72	2
105	106	7
143	144	9
128	132	3
10	11	7
71	84	2
80	81	4
137	138	7
110	110	21
16	17	10
86	87	9
25	34	1
86	86	23
7	7	31
80	82	10
117	118	8
153	153	15
102	103	12
107	107	16
38	47	5
124	124	11
68	68	3
89	90	5
103	104	14
4	5	7
144	149	2
3	3	13
7	8	1
109	127	2
168	169	4
9	10	6
43	44	5
65	73	6
145	145	5
93	95	3
63	65	3
129	131	2
96	157	6
26	28	2
49	83	3
50	52	3
121	137	3
56	56	19
94	100	3
97	97	7
166	167	6
91	91	2
39	40	15
151	152	4
147	147	13
77	77	12
90	90	17
135	136	2
108	160	3
70	127	1
166	168	3
21	21	10
80	80	7
35	35	16
1	155	3
27	28	4
156	156	13
108	108	19
105	107	2
164	164	5
25	39	2
50	51	12
142	142	15
106	128	2
84	84	21
140	140	9
20	21	11
118	121	8
74	76	14
125	125	11
128	140	5
157	158	1
157	157	11
38	70	3
106	129	6
105	165	6
110	165	3
51	53	5
133	136	1
81	83	6
148	148	8
166	166	13
98	101	10
124	125	7
121	121	4
170	170	5
36	45	1
127	169	2
40	46	3
37	39	2
66	74	3
138	139	12
135	137	1
56	57	7
62	63	9
4	15	4
125	126	9
84	94	3
149	150	7
23	24	4
62	62	4
40	56	1
64	65	11
132	143	2
96	107	3
6	6	6
118	119	5
104	104	14
91	95	1
131	132	5
79	81	3
133	148	3
87	88	9
38	64	2
37	37	8
144	159	6
20	20	8
9	82	2
169	169	11
82	83	4
54	55	5
38	56	3
42	42	25
132	149	4
140	163	1
109	110	3
128	128	10
47	50	4
7	9	3
86	88	4
1	13	2
96	100	3
73	77	3
22	36	2
89	103	2
18	18	13
2	3	2
66	66	12
57	57	4
150	170	1
134	142	2
34	100	4
1	38	4
0	17	1
146	148	5
99	100	8
90	103	2
75	75	22
11	13	11
41	42	2
116	124	4
22	24	3
109	126	3
47	49	6
135	135	10
3	5	3
40	41	5
113	114	5
19	20	2
155	163	2
48	51	2
67	70	5
97	98	4
42	79	2
47	74	4
75	77	5
123	124	3
46	49	2
106	151	2
84	101	2
67	68	2
119	122	4
76	127	1
106	158	8
58	58	4
83	84	10
92	93	12
158	158	5
37	38	10
145	146	5
125	134	1
87	92	3
79	104	2
45	47	2
136	138	4
144	145	4
93	94	5
85	85	8
27	76	2
155	157	1
69	70	3
42	44	1
85	101	9
155	160	1
42	43	5
100	102	2
134	139	2
39	41	6
72	78	1
115	117	3
67	73	4
134	135	4
14	14	8
95	95	5
14	21	3
122	165	1
93	101	1
0	0	13
137	137	10
83	85	3
139	140	7
116	123	2
114	166	1
105	152	6
140	144	4
164	166	2
49	82	2
11	12	10
137	139	3
115	116	6
85	86	3
0	18	2
56	58	1
83	83	18
47	73	2
100	109	3
98	99	5
70	71	5
51	54	1
19	21	2
116	141	3
35	55	3
57	62	5
169	170	2
95	96	5
128	130	2
104	105	5
92	94	2
8	10	1
146	170	1
157	165	3
126	166	1
122	137	2
117	123	2
47	56	2
96	158	2
48	64	1
18	24	1
110	113	2
4	8	1
121	122	8
54	58	2
129	130	2
144	147	3
44	77	2
162	162	3
114	116	2
95	111	2
84	85	6
68	76	4
27	32	3
160	161	5
106	112	4
125	127	2
72	80	1
94	95	3
71	76	2
158	161	1
98	98	3
129	142	3
48	62	2
135	141	3
102	105	3
44	75	3
140	143	3
54	56	3
123	126	2
4	10	3
132	133	4
152	153	2
86	92	1
76	129	2
126	127	5
127	129	3
34	38	2
85	91	1
42	45	4
165	166	1
80	83	3
158	160	2
99	112	2
128	134	3
121	123	4
137	141	1
17	19	3
132	150	3
107	109	2
45	94	3
117	164	1
98	114	2
68	78	2
159	165	1
110	166	2
52	54	2
147	148	2
26	27	2
39	70	2
75	76	3
35	36	2
120	137	1
96	97	2
141	143	2
134	159	1
49	73	1
49	62	2
90	91	2
103	106	2
36	38	3
18	23	3
167	169	1
48	50	1
90	104	2
73	74	1
46	47	3
36	37	2
101	102	4
156	159	1
43	76	1
136	140	1
124	153	2
44	46	4
113	115	1
133	135	4
49	50	3
7	77	1
3	6	2
52	56	1
163	164	8
91	92	1
73	75	1
53	56	1
75	131	2
117	117	1
110	112	2
21	37	1
153	167	2
126	128	2
141	166	2
100	101	2
64	72	1
81	84	1
105	151	1
88	100	1
143	145	4
47	51	2
33	34	1
140	142	5
24	26	2
153	156	1
155	162	2
21	23	1
118	164	4
55	81	3
118	139	2
37	56	1
118	122	2
112	115	4
116	170	1
132	146	2
35	37	2
100	105	2
16	80	2
23	28	3
78	85	4
150	164	1
131	131	3
148	150	1
2	5	1
93	112	1
14	16	2
27	35	2
51	52	1
140	165	1
24	36	1
1	16	1
95	166	2
128	129	3
47	62	1
119	137	1
66	67	1
103	114	2
15	81	1
133	143	1
132	153	1
50	154	1
79	94	1
3	11	3
52	58	3
142	161	1
148	149	1
101	108	2
162	163	3
117	141	1
68	69	1
88	90	1
119	166	1
37	55	1
79	80	3
124	129	1
76	78	1
130	142	1
123	125	1
28	73	1
55	108	2
105	120	1
26	40	1
127	167	1
84	91	1
43	46	1
93	115	1
25	33	1
36	41	1
156	167	1
67	67	1
38	55	1
116	156	1
130	131	1
27	34	1
13	18	1
159	164	1
84	86	1
53	127	1
160	163	2
133	134	1
156	162	1
