23	23	9
187	187	2
46	46	5
107	129	1
83	83	3
115	115	10
119	119	7
24	24	10
3	3	9
192	192	6
82	84	2
54	54	10
139	141	2
9	9	13
179	179	14
56	56	10
94	94	14
11	11	7
25	25	3
162	162	7
93	93	2
148	148	4
184	194	2
36	36	7
57	57	9
87	87	3
12	13	2
43	43	7
177	177	7
107	108	1
158	158	4
187	188	4
99	135	2
153	153	6
156	158	2
36	37	4
89	103	2
154	159	3
179	180	1
3	5	2
170	170	11
100	100	10
161	161	11
129	129	7
122	122	4
94	95	13
167	167	8
3	54	2
107	131	3
191	191	3
124	191	6
104	116	1
154	157	4
188	188	8
2	2	8
53	53	6
186	186	8
105	106	5
93	96	6
135	135	5
39	39	10
128	128	2
172	172	12
174	174	7
167	191	1
105	105	5
5	31	5
117	117	7
144	144	3
176	179	6
55	55	7
168	169	7
27	58	2
49	49	9
61	61	4
155	155	7
167	168	7
42	44	4
157	157	9
141	141	11
190	191	4
47	48	7
125	125	3
21	21	4
150	155	4
182	182	15
180	180	5
112	136	2
178	182	2
159	167	1
112	113	1
15	15	3
20	23	4
106	106	7
80	80	6
185	185	7
156	156	14
108	154	3
133	135	1
193	193	6
101	101	9
121	149	6
16	50	4
113	114	6
142	142	3
158	159	5
1	1	6
22	22	4
152	160	1
58	58	4
139	139	4
18	18	3
98	117	3
177	178	4
47	47	9
14	14	4
121	121	19
117	118	5
37	37	5
131	131	3
171	172	5
181	181	16
19	29	4
178	178	3
96	96	9
102	115	1
141	150	4
116	116	6
24	26	1
97	98	4
166	166	8
102	116	4
189	190	4
140	141	9
64	67	2
123	123	3
170	171	4
184	184	9
26	28	5
38	38	4
134	134	12
133	133	4
170	175	2
158	165	5
20	20	8
166	167	3
186	187	3
190	190	9
111	115	6
81	81	5
4	124	2
173	176	6
52	52	6
58	62	5
145	145	6
122	125	3
147	147	13
172	175	2
169	190	2
171	171	3
10	10	3
33	33	7
4	56	1
122	138	1
163	163	4
28	28	5
126	126	3
4	4	1
189	191	3
98	146	3
104	104	2
70	72	5
173	173	3
39	42	3
183	183	8
60	63	1
162	169	1
176	176	4
181	193	2
103	118	2
152	152	6
150	150	15
136	146	2
169	169	4
180	182	3
131	150	2
59	59	4
153	160	2
174	181	4
33	58	2
109	109	4
48	48	9
57	58	2
114	114	11
43	151	3
112	125	1
106	115	4
131	147	3
168	168	3
16	16	5
17	17	8
88	88	4
61	62	1
195	195	7
68	69	5
158	164	3
1	39	1
149	151	6
62	62	7
59	72	1
71	71	3
161	162	3
136	136	2
160	172	3
18	20	3
151	151	7
99	166	2
149	150	3
77	77	3
111	120	1
32	33	2
87	88	4
22	24	1
97	97	3
118	118	6
56	57	2
7	21	1
116	117	3
151	153	2
17	33	2
9	11	4
0	16	1
110	110	11
146	148	4
158	184	1
131	133	1
35	38	5
19	19	2
174	175	7
151	155	3
95	95	5
130	130	1
10	12	3
161	163	5
135	169	2
150	188	1
102	102	6
56	58	1
157	158	2
85	85	4
5	7	2
197	197	6
145	154	4
109	110	4
86	86	1
5	5	1
116	119	2
107	107	8
79	81	1
104	107	2
4	40	1
65	65	4
16	51	2
115	121	1
176	178	2
117	131	1
98	98	7
144	145	4
146	146	8
185	187	1
37	47	3
9	10	2
113	113	2
73	73	2
30	30	5
72	74	1
102	103	4
133	143	1
64	64	5
159	184	1
93	128	1
63	63	4
150	152	1
125	126	4
131	144	5
112	112	5
69	70	4
170	172	2
129	151	2
156	173	1
134	135	3
119	130	1
163	166	2
99	164	1
160	160	9
26	62	3
97	117	3
180	181	3
160	165	1
143	143	4
152	153	1
155	156	2
124	125	2
32	45	2
172	194	1
163	164	2
189	189	7
111	119	2
40	42	2
7	7	1
8	8	2
8	9	1
5	6	2
53	57	4
89	89	2
146	147	3
195	196	3
62	63	3
39	56	1
164	164	5
184	185	1
34	34	2
108	150	2
157	159	1
78	78	3
141	151	1
155	171	2
76	76	4
80	84	2
109	116	2
66	68	2
6	6	2
159	159	1
86	87	1
42	42	3
39	40	6
184	186	1
194	194	2
23	57	1
20	25	1
146	159	1
75	75	2
135	136	3
7	20	1
99	99	2
127	127	4
111	112	2
74	76	1
26	26	1
163	171	2
154	154	4
58	59	1
44	44	4
7	53	1
65	77	2
15	16	1
33	37	1
145	166	4
134	177	1
35	35	3
41	41	3
120	120	2
0	39	1
146	153	2
181	182	1
80	81	1
27	27	3
166	194	2
48	49	2
120	138	1
50	128	1
82	83	2
38	40	1
182	183	1
1	3	2
122	123	2
17	34	3
107	130	1
51	51	3
22	23	1
130	131	1
106	130	3
154	158	1
16	17	3
143	144	2
169	170	1
165	166	7
27	28	1
77	78	1
132	132	2
124	124	1
5	8	1
40	56	2
2	54	2
133	146	4
67	67	2
96	182	1
161	164	2
186	188	2
15	57	1
159	185	1
165	165	2
113	115	1
179	181	1
101	113	2
98	99	1
26	27	1
39	55	3
159	160	3
64	78	1
118	126	2
19	55	1
152	154	3
31	31	1
185	189	1
54	55	1
174	182	1
196	196	2
162	190	2
14	30	1
140	142	1
153	192	1
16	29	3
64	65	3
61	72	1
40	40	1
121	139	2
145	146	1
153	180	1
1	2	1
174	192	1
12	14	1
111	111	1
45	45	1
104	117	1
51	54	1
24	27	2
0	1	1
8	32	1
113	136	1
50	50	2
112	122	1
123	125	1
115	116	1
175	175	1
172	173	1
29	29	1
34	35	1
81	82	1
85	88	1
83	84	1
176	177	2
0	0	1
53	143	1
16	37	1
192	193	1
