32	32	4
105	105	15
84	85	17
76	76	19
61	61	13
49	49	3
87	87	14
83	84	9
31	32	2
83	87	3
22	38	1
74	74	17
21	22	10
103	103	10
66	66	13
64	64	18
40	47	5
41	42	1
22	22	11
87	90	4
101	101	9
66	67	2
57	57	13
78	78	10
68	70	3
33	34	5
77	77	26
72	72	19
70	70	26
46	47	15
92	92	13
101	103	5
52	54	5
51	51	5
106	107	5
29	29	4
21	21	11
90	90	9
95	95	32
26	26	15
88	95	1
58	58	6
86	89	2
97	99	17
27	27	13
104	104	23
80	81	16
31	31	10
53	54	9
68	68	18
59	59	18
79	80	6
69	71	4
100	100	17
40	40	12
47	48	3
86	86	12
58	60	2
104	105	8
84	84	7
35	37	10
42	43	3
35	36	7
75	75	21
38	38	10
23	23	16
56	61	2
26	27	13
85	87	4
25	32	1
57	58	10
93	93	19
83	86	13
79	79	12
47	49	11
52	52	7
44	45	7
91	92	6
98	98	16
25	25	13
39	39	10
50	51	10
50	50	31
25	26	5
60	64	2
69	69	18
74	76	1
54	54	12
64	65	1
70	73	2
75	76	7
88	88	6
42	42	14
94	95	5
97	97	7
91	91	10
73	78	4
60	60	22
82	82	15
43	45	4
99	100	1
33	33	6
45	46	12
35	35	13
65	66	11
50	53	1
85	86	4
97	98	7
100	101	2
96	96	18
60	65	1
92	96	1
89	89	12
71	71	21
47	51	1
53	53	19
62	62	12
37	38	3
67	68	1
76	91	2
51	52	6
88	89	7
81	81	10
63	63	15
43	44	9
55	56	8
104	106	9
56	59	1
30	30	9
56	57	1
82	83	4
93	94	7
62	63	10
58	79	1
27	28	7
72	73	6
57	59	2
65	65	12
61	62	12
101	102	9
46	46	18
23	24	13
86	87	6
36	37	8
85	85	11
74	75	2
73	73	13
102	102	9
68	72	2
90	91	2
27	34	3
71	73	2
96	98	3
24	38	1
37	45	8
45	45	14
50	52	8
61	63	10
67	102	4
47	47	3
22	39	4
56	58	6
36	36	12
32	33	1
65	67	13
58	64	2
59	60	4
95	97	3
40	41	4
56	56	8
29	30	5
95	98	6
105	106	3
89	91	4
88	90	4
79	82	4
37	37	9
92	93	5
96	97	12
25	27	6
80	96	2
70	71	1
64	69	3
60	61	1
31	34	2
99	99	6
48	72	2
77	78	1
81	85	2
61	64	2
82	96	2
42	44	7
26	30	5
107	107	5
106	106	9
48	48	8
58	59	5
48	49	6
34	34	4
24	32	1
93	96	2
89	92	2
71	72	3
95	96	9
54	61	2
82	97	3
24	33	3
26	28	2
94	94	17
61	68	1
24	24	5
54	55	2
55	55	10
61	69	1
47	60	2
19	19	3
94	99	1
68	75	1
103	104	3
55	68	3
32	34	6
88	96	4
44	44	7
41	43	3
60	63	7
31	33	3
27	29	2
79	81	3
80	80	8
23	39	3
67	67	6
38	39	1
22	102	1
42	45	5
59	78	1
73	74	3
84	98	3
40	48	1
30	33	4
34	43	2
20	20	2
68	69	3
63	64	3
43	43	3
52	68	3
78	98	2
30	34	2
98	99	9
33	38	4
66	78	4
47	50	2
44	46	4
55	61	1
83	85	7
81	89	2
38	54	4
71	74	1
46	51	2
52	55	1
52	56	3
78	88	2
67	69	1
52	71	4
60	66	1
39	42	1
25	29	1
51	54	1
89	90	3
47	67	2
37	39	2
62	64	2
37	43	2
23	37	2
72	75	1
82	86	3
100	102	1
69	70	2
82	87	2
76	77	5
41	41	1
59	79	1
29	33	1
70	72	1
84	99	1
26	29	1
68	73	1
59	70	1
41	47	1
30	32	1
88	94	2
90	92	2
86	97	1
46	60	2
85	96	1
26	33	1
87	88	1
