110	110	17
16	18	1
68	69	11
124	125	8
10	10	21
3	3	8
107	107	4
33	34	3
13	72	3
0	32	2
89	90	3
84	88	1
124	124	11
12	13	14
57	57	11
97	97	16
78	78	2
106	106	7
67	67	4
28	28	16
121	121	13
54	54	15
111	111	13
73	73	8
133	133	9
33	33	2
25	26	14
47	59	3
13	14	5
77	78	6
9	12	2
122	122	22
100	100	8
108	110	5
38	38	4
75	75	4
123	123	20
65	65	8
98	116	2
80	83	4
27	27	20
49	49	10
72	76	2
64	64	17
113	132	5
84	84	14
116	116	10
31	31	8
130	131	3
25	25	10
75	80	1
96	118	3
85	85	17
42	42	11
3	5	3
87	87	3
129	129	8
7	7	7
56	57	4
113	113	15
94	105	4
4	4	6
51	52	1
14	15	8
2	7	1
119	119	8
29	30	3
18	18	5
125	125	16
17	17	7
46	46	16
50	50	12
86	87	1
48	48	20
114	114	8
16	22	2
66	122	3
23	23	7
10	12	2
60	61	2
18	19	7
30	30	19
102	102	23
67	69	1
29	68	2
20	20	14
69	121	5
89	89	9
90	90	10
107	108	6
78	117	1
82	82	5
0	0	5
93	93	6
118	119	6
58	58	7
47	47	13
101	103	1
49	50	2
120	120	20
8	8	7
81	81	7
50	64	3
1	1	9
5	5	9
113	130	5
65	66	8
55	55	15
84	86	3
131	131	12
15	15	7
84	85	9
99	101	5
71	71	16
11	12	6
115	116	5
95	95	10
132	132	6
88	88	4
6	7	1
14	14	9
92	92	3
59	60	7
87	92	1
52	52	12
80	80	6
51	51	17
13	13	12
69	69	19
72	72	22
118	118	17
77	77	7
45	56	3
66	67	4
43	43	9
53	53	17
63	63	8
24	25	3
91	91	7
2	2	27
11	11	18
94	94	11
0	1	6
94	95	4
45	46	10
6	6	19
112	112	12
128	128	4
104	105	16
79	81	5
16	16	1
4	117	3
109	109	10
72	75	6
108	109	6
46	47	3
118	120	2
99	114	3
119	120	1
11	13	1
45	60	2
111	113	6
79	79	2
48	57	3
33	63	2
68	68	6
27	28	6
69	85	2
115	115	12
34	63	6
77	79	5
77	80	5
123	125	5
132	133	2
31	32	6
50	53	1
39	39	7
99	103	2
126	127	2
73	110	3
40	40	6
131	133	3
99	99	12
3	30	2
12	19	5
126	128	1
65	67	2
92	93	2
57	58	5
45	45	7
108	108	8
74	75	1
122	123	6
45	61	6
7	8	3
26	26	9
66	68	3
47	54	4
93	109	4
76	93	4
119	128	3
59	59	6
96	96	4
56	56	11
19	19	6
105	105	8
62	62	8
77	81	3
125	126	7
126	126	4
18	26	4
71	74	6
3	4	3
13	19	3
28	29	4
109	110	3
117	117	14
74	74	5
91	97	2
123	124	4
4	6	1
64	65	5
80	81	7
61	61	2
76	76	6
89	108	4
13	18	5
76	77	2
28	30	5
82	85	2
103	103	1
42	43	4
72	74	1
81	120	2
32	63	1
73	74	5
18	23	1
98	98	2
13	20	2
6	132	1
70	70	6
81	117	1
53	54	5
9	10	5
4	76	2
22	76	2
126	130	3
10	69	1
73	82	3
29	29	3
97	119	1
34	34	2
106	108	2
86	86	11
104	104	7
44	45	1
8	9	1
60	60	7
49	53	4
4	7	4
38	45	1
43	44	2
113	114	1
70	71	1
111	112	2
5	114	2
27	29	1
104	109	1
24	24	8
83	85	5
25	27	5
58	59	3
75	77	4
104	108	3
59	63	3
81	103	2
17	18	1
50	51	9
12	12	8
100	119	1
13	15	4
22	23	4
59	61	2
32	32	3
58	61	2
9	79	5
45	58	1
89	115	1
12	20	1
52	54	1
19	21	8
97	101	1
41	41	10
104	113	2
95	96	4
127	127	4
54	55	2
109	112	2
23	24	7
22	24	4
94	113	2
40	41	3
46	48	6
97	100	2
50	52	3
49	52	2
7	113	3
23	76	1
71	72	3
85	86	3
69	70	3
43	45	1
90	108	4
101	101	6
130	130	4
26	27	3
45	92	2
99	102	4
51	64	5
100	101	2
13	25	2
21	21	1
97	103	1
77	115	2
19	20	2
69	90	2
7	77	1
63	64	1
93	95	2
1	2	1
9	9	2
116	117	3
90	91	2
44	46	2
60	63	2
103	106	2
77	103	2
109	119	1
30	65	1
85	88	4
64	66	2
87	88	1
114	130	2
128	129	1
89	109	3
70	86	1
79	89	1
78	81	2
114	115	2
41	55	2
8	10	1
83	83	4
120	133	2
26	73	2
69	86	1
80	82	1
103	107	2
125	130	1
91	93	1
52	53	2
18	21	2
124	132	1
38	40	5
8	21	1
67	68	1
40	61	1
6	32	1
22	25	2
7	68	1
95	100	2
79	83	3
49	54	1
97	98	3
70	72	1
51	53	1
17	24	1
125	129	3
92	94	2
101	113	2
110	112	3
125	131	1
81	82	2
97	115	1
109	116	1
6	29	1
76	78	3
86	90	1
102	103	3
59	62	1
88	90	1
2	30	1
6	79	1
79	117	1
100	114	1
91	94	1
120	121	2
2	32	1
16	17	3
93	98	1
96	97	2
101	102	3
75	76	1
43	48	1
70	120	1
30	32	1
26	72	1
125	127	1
11	18	1
101	128	1
2	31	1
4	5	1
25	121	3
55	56	2
70	84	2
3	31	1
37	37	3
46	57	1
10	11	1
99	118	1
0	122	1
12	22	1
122	124	1
44	44	2
0	30	1
2	5	1
29	79	1
2	8	1
9	67	1
93	94	1
66	66	1
