60	175	3
94	94	5
176	176	6
50	51	2
175	175	14
42	45	5
45	46	5
25	25	4
135	135	5
37	60	5
171	171	12
81	81	7
19	19	7
136	136	2
122	122	5
66	66	4
18	50	2
86	86	9
57	94	3
36	36	7
76	77	2
65	166	3
115	115	5
103	107	2
8	8	4
110	111	4
142	142	9
13	13	19
102	102	4
117	117	3
113	113	3
132	173	6
162	162	11
75	123	2
17	17	10
73	74	2
133	134	1
27	27	4
26	26	10
131	136	2
51	62	3
169	169	11
26	27	17
55	55	3
24	24	19
161	161	8
128	128	13
159	159	7
50	50	6
36	37	8
132	170	1
140	140	2
133	133	4
68	130	1
33	33	15
16	16	13
33	143	5
12	36	1
99	102	1
94	95	3
56	107	1
174	174	4
167	167	5
150	151	1
83	83	7
42	42	18
121	121	7
128	129	2
29	29	9
3	42	2
0	1	5
163	164	3
128	145	2
10	11	9
102	103	4
61	61	7
98	98	5
17	18	2
93	93	4
104	150	2
44	44	9
76	76	6
12	31	2
31	32	4
37	37	16
32	32	4
131	131	8
53	89	3
2	31	8
98	167	2
53	53	9
58	167	1
172	172	8
34	34	4
4	4	6
43	44	2
8	31	2
20	27	1
108	108	9
11	11	4
14	14	9
6	6	8
16	26	6
111	112	3
10	10	6
153	153	3
38	39	1
40	41	3
41	42	2
151	152	2
146	146	3
44	45	3
119	120	5
119	119	6
1	1	15
139	139	9
63	73	1
78	78	1
92	162	3
128	130	6
2	45	3
28	28	4
170	174	4
64	102	2
97	98	7
147	147	5
41	41	18
23	23	3
62	86	3
153	154	5
2	2	9
14	131	3
80	80	3
58	179	1
45	45	6
52	53	4
5	8	2
40	40	1
124	124	2
26	28	4
68	165	1
11	141	1
140	178	2
83	152	1
19	23	3
74	74	3
126	126	2
116	117	3
22	22	6
59	72	1
73	155	2
27	32	2
5	11	1
97	97	5
28	117	1
3	3	3
70	73	5
35	35	14
173	173	7
120	121	4
141	141	9
167	168	6
161	162	1
51	51	3
0	34	2
79	106	2
24	27	4
112	112	6
123	123	3
58	59	1
87	87	4
172	174	1
73	73	2
27	30	2
90	92	5
80	81	2
15	15	4
12	12	4
124	131	1
158	158	2
7	42	1
14	41	1
177	177	5
20	20	10
96	98	2
180	180	3
105	105	3
25	26	5
1	4	5
123	179	1
64	65	1
11	14	4
7	7	11
55	86	1
75	75	4
124	127	4
170	170	9
114	114	2
31	31	3
120	120	3
143	144	3
124	125	3
148	148	11
8	9	1
91	94	3
122	126	5
65	65	2
111	111	5
157	157	10
151	151	4
12	13	4
9	87	2
18	18	4
83	85	1
119	167	1
1	31	2
9	9	1
67	67	8
86	100	1
11	44	1
18	31	2
137	137	2
156	156	1
84	85	1
14	43	3
149	149	3
153	159	1
75	165	2
155	155	6
179	179	3
19	45	1
84	84	5
118	118	7
57	85	2
156	165	1
90	90	4
103	104	3
142	144	1
18	20	1
52	52	7
2	4	5
5	5	5
96	110	1
125	125	5
51	108	3
92	92	1
3	4	9
150	150	6
77	77	3
39	44	4
131	133	2
60	61	2
72	72	2
134	134	1
18	19	4
30	30	7
155	156	2
58	79	2
95	95	7
104	105	5
135	136	1
166	166	8
107	107	2
6	7	10
58	176	1
1	45	1
138	138	1
68	180	1
28	29	3
145	146	2
91	91	1
163	165	3
106	107	3
60	60	4
71	72	2
110	110	2
11	12	3
12	42	1
3	5	4
177	179	1
94	162	4
123	124	2
94	161	1
90	91	1
100	102	2
107	108	1
7	8	2
27	38	2
64	64	4
108	109	3
38	38	2
24	25	2
105	108	3
5	7	1
154	165	1
32	35	1
89	89	1
24	29	2
51	52	2
106	106	7
21	23	2
103	164	1
20	22	1
43	43	3
22	23	2
141	142	1
13	44	2
58	106	3
96	97	2
29	31	2
9	37	1
119	129	1
103	142	1
137	171	2
2	3	3
84	152	2
96	96	1
54	57	1
18	30	1
57	57	4
60	142	1
13	14	1
5	41	1
68	166	1
103	103	1
15	136	2
14	142	1
11	86	2
129	129	2
14	15	2
21	21	1
31	39	1
172	173	2
12	45	1
23	45	2
143	143	2
116	120	2
178	178	2
96	178	1
118	119	2
132	150	1
63	132	1
14	42	1
28	30	1
67	157	2
130	135	1
99	100	1
113	119	1
20	44	2
2	7	1
137	147	2
57	58	1
17	40	2
144	144	6
0	0	2
160	164	1
30	31	3
81	93	1
50	52	1
174	176	1
84	117	1
5	10	1
126	127	1
67	75	1
12	33	1
94	96	1
130	130	1
152	152	1
58	58	1
3	8	1
24	115	1
31	103	1
70	70	1
3	14	1
155	157	1
116	156	2
115	116	1
79	107	1
27	28	2
25	28	1
93	94	1
94	157	1
158	162	1
61	104	1
144	145	2
10	77	1
11	33	1
14	16	1
23	30	1
163	163	1
71	71	1
90	94	1
101	102	3
53	66	1
97	178	1
5	9	1
156	174	1
50	108	1
168	168	1
62	62	1
160	160	3
157	164	1
19	20	1
77	123	1
114	119	1
89	92	1
86	153	1
12	77	1
33	35	1
156	157	1
32	33	1
154	154	1
155	164	1
130	131	1
68	68	1
