72	73	9
87	87	16
62	62	16
52	52	10
66	67	13
10	10	16
8	24	2
76	76	6
16	17	3
59	64	3
20	20	5
15	15	6
27	27	19
7	7	10
80	81	6
9	9	6
31	31	16
24	24	4
78	78	8
58	58	10
48	48	18
31	34	5
8	8	5
47	47	3
13	13	2
5	5	9
89	89	3
13	16	5
12	12	14
67	67	15
75	78	3
7	17	4
14	14	8
30	30	6
59	62	1
54	55	5
69	69	12
76	78	3
75	75	14
85	85	4
4	4	8
47	83	3
61	61	5
23	24	4
54	76	1
81	83	3
51	51	11
62	63	4
70	70	10
78	81	3
52	53	4
72	74	2
62	81	2
83	83	14
66	66	4
82	83	6
1	1	7
57	57	13
75	76	2
17	20	4
51	76	1
11	11	5
13	21	1
15	22	3
46	46	4
49	49	5
9	66	1
68	71	1
81	81	15
59	61	3
62	64	1
14	82	2
57	58	3
28	28	8
11	73	1
59	63	1
50	82	1
21	22	1
61	78	2
63	64	1
59	59	1
9	10	2
17	17	12
73	73	8
22	23	2
22	22	12
64	64	2
60	62	1
29	29	7
87	88	1
63	63	4
55	55	12
7	24	4
66	73	3
75	77	4
47	48	2
74	81	2
12	25	7
7	9	6
7	25	2
48	53	1
78	83	4
50	50	5
3	3	16
53	53	8
77	77	1
78	79	2
56	59	1
8	9	6
74	74	5
0	89	1
48	83	1
49	82	3
50	51	2
26	26	6
18	18	1
24	27	1
88	88	6
6	7	4
11	12	2
56	57	2
11	30	1
65	65	6
8	10	3
25	25	7
6	6	10
23	23	3
11	26	1
34	34	4
84	84	6
48	59	1
14	51	2
68	68	5
0	0	9
51	52	1
6	17	1
71	72	5
16	23	3
80	80	3
73	74	2
53	54	2
72	72	2
15	25	2
47	61	2
2	28	1
34	35	2
47	51	1
71	71	4
50	54	5
21	65	3
79	81	1
52	56	2
49	77	1
49	50	2
12	26	4
67	74	2
55	78	1
56	56	7
2	2	3
49	52	1
46	77	3
21	21	2
62	76	1
77	83	1
60	66	1
51	55	2
54	54	2
16	16	3
68	70	1
20	83	2
84	85	2
50	56	3
81	85	1
66	87	1
83	84	2
51	54	1
49	84	1
86	86	5
4	28	1
7	72	2
6	9	3
12	20	1
49	58	1
46	75	2
2	3	1
9	11	1
15	16	2
9	73	1
47	57	5
1	28	1
26	53	1
17	18	2
4	31	1
9	20	3
83	90	1
79	80	2
59	77	1
52	78	1
82	84	1
25	27	3
85	90	2
46	50	2
61	81	1
47	85	1
55	61	3
22	82	1
14	81	1
81	82	1
13	33	1
17	66	1
51	62	1
90	90	1
56	61	1
14	78	1
86	87	2
19	19	3
4	6	2
6	26	2
23	25	2
64	78	3
52	55	1
49	54	1
63	79	1
4	21	1
49	66	2
51	79	1
50	52	2
0	1	1
8	22	1
14	15	1
10	73	1
19	59	1
27	55	1
83	85	1
77	81	1
13	63	1
59	78	1
