98	98	4
50	50	7
31	31	1
24	24	15
7	7	8
48	105	2
132	132	2
77	80	1
21	21	6
96	100	1
44	44	9
129	130	7
40	95	7
23	23	2
12	18	3
1	1	6
4	108	2
110	111	3
71	71	4
73	73	6
41	41	5
53	53	11
86	86	1
126	126	4
10	25	3
7	28	3
111	122	6
72	73	5
34	34	2
86	87	4
11	32	4
109	109	3
111	111	16
97	98	2
103	114	1
30	105	2
127	127	4
15	29	4
28	50	3
30	30	7
14	23	7
3	5	2
66	101	2
55	55	9
48	92	1
103	103	10
59	59	7
99	99	7
90	90	9
67	67	3
33	33	3
20	26	2
114	114	10
39	63	2
107	107	2
40	41	2
114	116	3
45	45	2
24	108	2
27	27	4
100	103	2
52	52	1
22	22	4
105	105	6
44	79	1
69	69	8
10	10	8
62	62	9
15	32	1
59	62	5
8	8	3
120	120	7
58	90	2
54	54	7
2	4	5
42	45	3
50	62	1
61	61	5
43	43	2
83	83	3
110	110	5
42	43	6
33	41	1
115	116	3
68	68	17
90	91	5
21	25	1
129	129	3
39	39	3
20	20	1
58	58	5
41	43	2
40	42	3
46	47	3
70	70	4
28	28	3
112	112	9
101	101	6
41	42	3
75	75	10
119	126	2
51	64	3
88	89	1
120	121	4
113	114	4
29	29	2
51	54	2
46	63	2
91	95	4
4	4	6
104	108	1
70	71	3
116	116	5
76	76	5
41	53	2
5	5	8
131	131	3
93	93	5
82	82	9
108	108	13
119	119	4
26	29	2
122	122	11
68	75	1
82	84	5
91	92	3
94	95	7
85	85	4
98	99	6
77	77	9
46	46	6
10	12	2
6	7	1
87	87	3
118	118	3
65	65	3
106	112	2
23	30	5
40	40	5
85	88	2
57	57	5
42	42	4
74	74	2
116	117	4
38	39	1
78	79	1
88	88	2
66	66	5
69	91	2
21	26	2
11	11	1
4	55	1
105	109	1
6	13	6
104	105	2
72	72	1
49	49	6
46	54	1
108	116	1
18	18	5
96	96	3
131	132	1
94	94	3
119	130	2
38	38	3
21	44	4
104	104	9
126	129	1
47	47	4
79	80	4
101	115	3
115	115	7
75	76	2
123	123	1
50	57	3
3	22	1
76	105	3
84	89	2
32	41	4
97	97	4
67	68	1
14	15	1
56	96	1
15	15	7
104	121	2
113	113	9
84	84	1
41	99	2
72	75	4
106	118	1
13	13	1
128	128	4
13	23	6
24	33	1
34	40	3
95	95	6
62	63	1
96	111	1
98	130	2
7	15	4
14	22	3
54	55	1
114	127	4
65	100	1
117	117	2
64	74	3
29	89	1
93	95	4
39	110	1
102	102	5
12	12	1
20	22	4
127	128	1
78	100	1
59	60	1
52	53	3
39	69	2
81	81	5
9	9	4
106	107	3
92	94	2
19	25	2
26	26	4
93	94	1
103	112	2
57	102	1
27	47	1
14	34	4
5	107	1
48	49	3
72	83	4
112	133	2
31	33	1
124	124	5
89	89	1
58	114	2
10	11	5
125	126	1
16	25	2
48	48	3
117	127	2
57	124	1
51	51	4
14	14	5
31	32	3
130	130	5
57	111	1
22	25	1
1	2	1
84	91	4
65	102	1
45	67	1
108	115	2
114	129	1
59	103	2
38	62	1
72	82	1
3	13	1
100	100	2
25	26	3
85	86	2
47	71	1
93	121	1
119	131	1
21	22	2
18	19	1
6	6	5
23	24	1
99	117	2
121	121	3
12	14	1
48	120	1
105	106	4
101	112	1
13	17	1
62	97	1
1	8	1
24	32	1
6	52	3
24	81	1
45	99	1
20	27	1
11	15	1
64	75	2
89	90	1
19	21	1
29	31	1
8	9	1
96	98	1
39	82	1
54	120	1
60	66	1
59	102	2
22	24	2
15	18	1
68	97	2
50	123	4
114	115	1
100	117	1
90	92	3
119	127	1
39	40	1
122	123	1
78	78	1
29	30	1
59	131	2
19	45	2
49	51	1
30	50	2
121	130	1
61	100	2
33	34	1
44	45	2
72	97	1
13	24	1
91	91	1
90	95	1
3	3	1
99	100	1
81	82	1
16	16	1
107	108	1
118	120	1
9	26	1
98	118	1
16	22	1
16	29	1
58	59	1
62	98	1
47	111	1
114	132	1
63	63	1
55	97	1
17	17	1
