1	1	16
93	93	13
68	68	13
124	124	6
131	131	9
104	105	5
116	117	5
63	63	7
88	88	10
59	60	5
42	42	7
12	12	11
112	112	5
39	40	7
109	111	2
65	65	11
71	71	8
89	89	5
101	101	15
76	76	9
115	115	18
52	52	15
99	99	12
90	90	2
21	21	14
124	131	7
77	77	4
6	6	5
100	100	7
116	116	17
69	69	8
86	86	11
49	57	4
87	88	2
16	17	3
33	33	10
16	27	2
31	31	3
111	112	8
109	109	26
121	121	7
64	64	18
131	132	2
96	96	2
39	39	6
51	51	9
3	3	9
85	117	3
70	98	5
20	20	9
4	4	8
125	126	2
48	48	9
60	60	2
14	14	3
111	111	1
0	0	12
0	10	1
59	59	6
38	38	6
80	80	10
46	48	1
104	104	12
91	93	4
94	94	8
9	9	14
48	49	8
120	121	1
96	98	3
126	126	3
7	8	2
120	120	6
94	95	4
107	107	2
91	92	6
104	118	2
11	33	1
92	92	9
13	14	2
58	58	10
13	13	7
64	65	5
69	71	3
16	16	6
129	129	8
41	42	5
81	91	3
75	75	4
47	47	9
44	44	13
112	125	2
11	11	9
92	93	2
132	132	11
23	23	2
48	53	2
18	18	12
70	71	1
79	79	14
74	81	1
102	102	4
41	41	10
89	90	10
65	66	4
15	15	7
26	26	7
65	69	2
23	32	1
93	94	7
56	56	8
117	122	1
26	27	2
113	113	9
125	125	13
61	61	8
19	21	3
19	19	10
18	42	4
102	103	7
46	46	7
95	95	6
77	78	5
55	56	3
53	53	4
111	116	1
57	57	5
25	26	2
118	119	2
6	7	4
87	87	5
28	28	2
133	133	7
13	27	2
80	81	3
48	54	2
109	110	1
112	113	2
10	10	14
85	85	9
44	45	6
13	33	1
130	132	2
70	70	6
98	98	6
97	97	7
0	1	3
106	106	12
9	10	2
73	73	4
122	122	13
130	130	11
27	27	11
50	50	8
84	85	2
125	130	1
15	83	1
114	116	2
3	4	1
22	22	7
5	5	3
32	33	6
108	108	4
14	85	2
80	91	1
51	52	2
59	118	2
52	53	6
31	32	8
111	122	1
69	97	4
25	25	2
15	85	1
40	40	6
100	102	1
82	82	2
108	109	4
30	31	1
88	89	2
32	32	9
72	72	5
2	2	7
17	84	5
18	25	1
20	94	2
49	58	1
118	118	3
21	40	1
27	49	1
32	46	1
63	64	1
89	94	2
68	69	6
54	57	2
99	107	2
2	4	1
93	110	2
12	47	3
57	58	1
110	110	3
12	13	3
7	7	3
106	109	2
78	78	3
79	80	1
129	130	3
74	75	3
117	118	4
117	117	3
132	133	5
67	67	2
51	58	1
69	70	3
62	63	1
101	102	3
0	12	3
30	30	10
128	129	2
19	20	1
107	108	3
97	98	7
58	60	2
27	46	1
127	127	3
81	81	9
32	95	1
15	17	1
105	105	4
14	15	1
72	73	1
124	125	1
119	119	2
1	2	1
28	30	1
112	124	3
115	116	5
33	45	1
127	130	1
84	84	4
49	49	3
114	114	2
114	129	1
24	25	3
67	68	2
77	91	1
56	57	3
73	82	1
41	117	1
46	47	3
17	17	3
8	9	2
17	18	1
106	107	2
24	24	9
15	80	3
89	93	1
47	65	1
113	116	1
112	122	1
96	108	1
30	118	1
54	54	4
65	68	1
43	44	5
15	16	2
43	43	1
73	97	1
123	123	2
8	8	3
53	54	1
62	62	1
20	40	1
117	120	1
55	55	4
46	82	1
29	41	1
78	79	2
54	104	1
64	71	1
108	114	2
126	128	1
45	46	1
69	84	1
29	29	3
106	129	1
128	128	1
71	91	1
58	59	1
45	94	3
70	89	1
82	118	1
26	28	1
45	45	2
127	129	1
76	77	1
82	83	2
21	85	1
110	111	2
66	66	2
50	52	1
103	103	1
59	61	1
28	47	2
130	131	1
69	99	1
94	122	1
71	72	2
98	99	1
0	132	1
8	10	1
29	80	1
53	57	1
12	130	1
124	132	1
105	107	1
58	97	1
