82	82	6
74	74	27
121	121	12
92	92	17
22	22	16
132	132	4
26	26	17
128	128	22
34	35	13
3	5	2
73	85	4
59	60	7
52	52	20
59	59	20
142	142	8
119	119	21
112	112	11
122	122	11
16	20	2
137	138	11
102	102	10
128	129	3
18	55	2
28	29	2
101	101	12
107	122	2
41	41	16
36	36	7
81	81	3
54	117	1
131	131	21
123	123	13
77	78	6
110	110	21
73	134	3
29	29	28
111	117	1
96	96	9
86	106	5
34	36	10
133	140	8
19	24	3
25	26	3
30	30	6
129	129	13
142	143	9
66	67	17
143	143	18
134	142	3
122	123	9
82	102	3
5	63	2
17	18	6
21	21	11
26	27	10
2	4	4
61	62	7
125	125	18
69	69	14
33	35	4
102	104	4
61	119	3
38	38	13
68	69	10
128	130	2
55	73	1
76	80	4
0	91	5
15	15	8
49	50	5
2	2	13
66	66	7
1	13	2
117	117	27
17	17	9
4	4	6
15	36	4
87	88	4
60	60	19
93	93	5
68	71	2
106	106	13
106	107	1
110	112	5
127	127	6
27	27	10
138	138	5
56	88	1
101	102	3
108	112	2
24	25	4
72	72	9
124	124	22
23	23	14
64	64	11
64	113	2
92	139	1
103	103	12
109	109	4
83	83	7
139	140	10
140	141	7
25	25	12
134	134	18
100	100	10
39	40	5
42	42	16
136	139	4
135	135	10
70	72	8
9	10	2
54	54	11
5	5	12
85	85	8
47	50	6
76	76	7
75	75	6
19	19	9
12	12	2
6	11	6
38	75	1
136	137	11
97	134	3
91	91	11
143	144	1
1	21	1
8	27	3
50	50	10
124	126	1
33	63	2
60	121	4
11	11	7
66	71	1
70	70	13
80	144	2
94	94	20
18	18	8
15	17	1
87	107	3
33	56	5
73	73	16
26	31	1
112	114	7
109	110	4
117	118	2
118	118	8
13	63	2
60	62	7
10	10	11
77	77	22
93	136	12
144	144	14
63	63	18
82	94	2
117	123	1
105	117	2
114	114	7
121	122	4
53	53	8
40	42	3
119	128	6
109	119	7
97	97	14
137	137	10
58	59	5
62	62	9
125	133	3
87	111	2
38	39	5
47	51	2
14	14	3
37	120	3
37	37	20
98	137	4
34	65	3
72	85	2
95	139	2
67	69	1
2	5	2
20	62	2
65	65	13
3	4	13
132	136	6
134	135	13
64	118	4
19	27	1
87	91	1
95	98	4
61	61	8
55	56	7
113	118	4
1	9	4
122	130	1
83	85	4
32	33	7
27	29	2
114	116	6
47	56	3
61	64	1
127	130	1
18	19	1
121	129	4
124	127	1
84	104	3
119	121	3
134	141	1
11	12	4
63	64	15
3	140	4
105	105	10
129	130	7
135	137	6
1	119	5
0	9	1
0	0	13
110	133	2
67	136	3
49	49	8
87	92	5
67	68	1
70	71	5
20	20	8
24	24	10
138	139	3
87	109	4
68	68	13
9	48	4
104	106	5
93	133	4
39	56	1
84	84	7
137	139	5
11	19	5
48	48	17
23	35	5
24	91	7
3	3	7
140	140	15
90	90	10
113	131	1
62	76	1
32	53	2
123	145	2
27	28	11
39	41	3
98	98	7
108	109	4
34	55	5
85	107	2
63	69	1
116	116	13
58	104	1
104	104	10
113	113	10
34	34	5
102	103	5
13	56	2
26	40	2
58	58	6
43	143	1
88	88	11
66	89	3
145	145	3
139	139	16
37	38	2
70	135	1
39	39	9
8	8	7
41	125	1
141	141	19
19	30	3
56	60	3
32	43	1
54	55	2
120	124	4
87	87	7
40	41	3
67	71	3
14	20	3
83	97	4
38	41	2
97	98	8
71	71	9
40	40	9
85	93	3
64	104	2
32	32	11
16	16	6
110	111	13
126	126	15
118	119	5
31	31	7
102	124	2
91	127	1
141	142	9
51	51	7
1	1	8
103	120	4
112	113	1
133	133	12
88	108	3
99	101	4
69	73	2
61	130	5
64	66	2
2	26	5
85	136	3
57	57	3
89	89	19
80	80	10
55	55	6
56	56	14
60	61	6
36	39	5
116	117	11
33	33	7
26	38	1
133	141	3
125	126	3
6	52	2
71	72	6
79	130	2
59	81	3
31	42	3
111	111	21
134	138	7
86	109	2
55	74	2
79	79	4
95	95	8
94	95	3
124	144	2
91	141	3
68	70	3
83	84	6
107	121	1
80	91	1
23	53	3
104	105	2
88	105	1
13	31	3
89	91	4
39	66	2
82	97	5
38	48	1
113	116	2
33	78	1
92	93	4
146	146	3
78	78	14
81	82	8
19	39	3
118	121	1
75	76	6
70	88	1
62	63	5
130	132	1
131	133	4
87	93	2
31	32	3
10	49	5
108	108	7
55	65	1
93	94	2
116	123	3
91	92	3
118	120	4
40	74	2
133	134	3
32	36	3
31	33	2
6	6	9
98	99	1
51	52	6
107	123	2
4	6	5
74	78	2
26	32	2
101	109	1
131	132	2
105	130	2
115	117	5
38	40	5
69	70	4
121	123	4
136	136	4
31	67	2
56	58	1
99	99	5
24	53	6
88	128	2
39	48	2
72	134	2
58	70	3
102	128	1
92	95	1
39	52	1
35	36	6
67	67	4
58	73	1
105	110	4
15	16	2
16	81	2
47	66	1
34	39	2
89	133	2
47	47	8
99	100	4
86	92	1
73	105	3
32	34	1
93	139	1
65	66	2
53	72	1
13	54	3
130	130	8
21	58	1
81	91	3
101	125	1
25	27	6
39	73	1
132	134	1
76	90	1
30	42	2
88	91	3
91	134	1
28	28	13
36	37	1
21	22	2
42	52	4
53	54	5
46	47	2
111	133	4
17	128	2
107	107	5
94	113	1
34	63	1
87	90	2
59	101	1
75	80	1
142	145	1
107	109	3
81	84	2
98	138	3
3	92	2
130	133	1
64	79	1
84	85	4
76	78	15
111	128	4
21	35	2
8	19	2
87	138	3
86	86	1
21	33	3
75	85	1
13	13	11
145	146	1
107	108	4
80	81	5
55	71	1
31	34	1
18	83	1
105	106	1
134	139	3
10	11	4
132	138	1
40	59	4
37	63	3
126	127	4
16	19	2
5	51	1
64	65	3
31	35	1
115	115	3
142	144	4
105	108	2
85	90	1
59	76	1
109	136	3
76	77	1
16	22	2
79	127	1
113	114	2
69	71	1
32	47	1
59	106	1
50	51	6
19	28	3
29	42	1
27	63	1
96	97	2
52	53	2
110	115	1
53	59	3
0	1	1
70	138	4
3	24	1
117	119	3
53	74	1
3	22	4
1	32	2
35	35	3
80	88	1
26	28	2
91	135	1
12	21	3
43	43	4
81	120	2
4	20	2
125	129	3
75	118	1
6	31	1
103	140	5
108	111	2
68	88	1
14	15	1
88	96	1
13	14	2
85	96	4
85	92	1
60	97	2
4	5	2
116	122	4
137	140	3
36	43	1
119	130	3
119	131	2
67	70	1
130	144	3
87	106	1
5	62	3
22	58	2
105	121	2
119	137	1
53	116	3
79	81	1
132	137	4
139	141	2
130	131	1
41	42	1
4	11	1
18	23	3
64	73	1
57	62	1
117	130	3
110	116	2
9	9	2
136	140	4
73	75	1
24	38	3
129	142	3
31	53	2
33	34	1
85	88	2
73	111	1
22	27	1
128	134	1
93	113	1
1	2	4
13	20	1
82	83	1
111	116	1
122	131	1
120	121	2
89	108	1
124	125	1
120	120	1
64	71	1
128	143	1
119	120	1
126	129	1
81	121	1
96	135	1
2	21	1
23	38	1
23	52	1
116	118	1
20	21	3
95	140	1
105	132	1
1	142	1
135	139	2
23	33	1
21	31	1
62	103	1
18	61	1
65	73	1
38	42	2
46	94	1
65	108	2
114	117	1
4	50	1
30	38	1
57	59	1
66	68	1
111	112	2
90	98	1
123	125	1
24	41	1
17	56	1
3	6	1
105	109	1
111	113	1
85	127	1
61	80	3
56	59	1
80	92	1
13	36	1
61	88	1
115	129	1
91	107	2
128	142	2
108	116	2
56	57	1
69	98	1
82	90	1
72	104	1
56	61	1
88	89	2
30	48	1
70	137	3
126	128	1
10	28	1
31	43	1
68	82	1
48	49	1
114	115	2
99	141	1
41	58	2
4	9	1
92	96	1
64	110	1
2	129	1
5	6	1
127	129	1
24	34	1
50	62	1
10	21	1
135	136	1
67	84	1
94	109	1
74	84	1
43	47	1
98	141	2
63	105	1
123	127	1
74	87	1
74	80	2
24	27	2
64	106	1
90	134	1
132	133	1
21	23	1
111	140	1
133	139	1
8	30	1
26	85	1
26	87	1
56	73	1
64	108	1
94	134	1
69	91	1
48	71	1
83	95	1
86	104	1
22	37	1
23	24	1
89	97	1
113	128	1
36	76	1
29	30	1
127	132	1
