11	15	2
159	159	5
141	141	4
93	94	3
142	142	4
170	184	3
13	14	7
11	12	1
106	139	3
122	163	3
19	23	2
72	72	15
87	87	1
88	88	8
157	157	5
149	156	3
124	147	1
11	13	4
63	111	5
46	46	9
10	22	2
70	71	2
45	45	9
121	151	1
75	130	1
80	80	8
7	8	5
6	8	6
116	116	7
58	132	1
58	108	1
103	126	1
5	5	7
55	58	2
10	11	5
155	182	3
17	58	1
17	32	1
154	154	9
182	183	6
138	138	8
135	135	3
16	16	3
13	13	2
78	78	8
108	111	4
3	3	6
127	128	2
104	107	4
95	95	4
121	121	2
105	105	5
178	180	7
142	143	11
99	99	2
122	122	1
65	66	3
12	12	10
68	68	7
43	43	4
144	145	2
82	82	4
64	104	2
41	42	2
53	59	2
125	128	2
183	184	3
129	156	4
137	137	5
38	38	8
119	135	2
70	70	5
2	2	7
10	10	11
77	77	8
158	158	2
112	112	11
123	127	3
89	89	7
4	12	1
45	46	8
152	152	9
153	167	2
180	180	1
129	129	6
78	79	2
7	26	5
43	44	6
142	144	6
104	106	5
11	82	2
172	172	2
102	126	5
162	164	1
39	39	7
71	71	4
48	48	3
134	135	3
126	126	2
132	134	1
117	117	6
132	136	1
90	90	4
9	76	6
56	56	8
120	122	1
38	40	4
160	160	3
23	38	3
67	153	3
141	147	3
176	177	1
76	76	6
12	13	2
125	126	2
37	37	1
136	137	1
117	119	4
33	33	11
165	165	4
44	54	3
148	148	4
115	115	5
62	82	2
62	62	4
56	109	1
59	113	1
143	144	1
36	36	3
19	44	3
162	163	1
35	37	1
25	25	5
124	124	6
4	4	3
21	22	2
14	14	5
130	130	5
56	57	3
103	103	4
34	34	1
53	54	6
68	78	1
114	114	6
151	151	2
123	123	8
30	30	3
146	149	1
9	10	3
42	66	3
118	118	3
150	150	2
59	61	1
163	163	5
148	150	4
54	55	1
75	82	2
101	102	3
148	179	4
22	23	6
84	84	2
129	130	3
35	35	1
115	134	3
47	47	6
95	109	4
26	26	5
69	101	1
22	22	6
11	99	3
150	178	1
163	164	4
25	27	4
66	130	2
36	38	3
99	130	5
62	63	4
179	180	1
59	59	2
136	136	4
44	55	3
97	100	1
85	113	2
123	124	1
63	70	2
102	102	2
59	60	2
121	134	2
157	159	2
15	48	4
91	92	2
47	55	2
128	128	4
7	7	3
86	87	1
111	139	3
65	130	2
20	27	3
15	45	2
115	133	2
129	154	2
139	140	2
44	44	1
131	139	2
111	120	3
54	149	1
1	1	1
124	125	5
158	165	3
182	188	5
145	147	2
74	74	3
114	136	4
57	62	1
64	64	2
96	100	1
72	74	7
64	131	1
143	143	5
104	108	2
164	164	2
13	20	2
54	54	1
130	135	3
30	33	1
32	32	3
55	55	6
15	15	2
115	120	1
62	108	3
165	166	2
1	57	1
82	100	2
176	176	2
64	70	1
0	56	1
52	83	1
171	173	5
107	117	5
75	75	2
31	35	1
184	184	3
89	91	1
14	48	3
183	183	1
61	62	5
9	82	1
23	23	6
112	153	1
109	110	2
96	98	1
122	139	5
91	94	1
68	76	2
103	104	1
110	110	4
150	187	2
127	127	6
32	45	1
24	24	3
68	77	2
82	107	2
86	107	1
85	96	3
17	60	1
181	182	2
2	46	1
173	179	2
119	119	2
125	129	2
6	6	1
58	63	1
120	120	3
97	97	1
188	188	2
1	14	5
157	163	1
169	169	3
62	113	1
54	79	1
27	27	1
67	70	1
125	125	2
174	174	5
178	178	1
126	162	2
0	1	3
133	134	1
100	103	2
66	66	2
88	89	3
147	147	2
183	185	2
59	62	1
40	41	2
149	149	1
6	7	1
0	191	2
81	81	1
111	111	3
144	150	3
155	155	2
20	20	1
109	112	1
151	152	1
61	97	4
182	187	2
84	85	5
103	187	1
52	52	2
91	97	1
81	82	1
21	21	2
61	96	2
28	28	1
96	99	1
91	91	1
151	157	2
19	19	2
145	145	2
60	60	3
102	104	1
54	81	2
67	129	1
96	97	1
73	73	2
137	140	1
39	40	1
12	49	5
182	182	2
123	125	1
121	122	3
124	126	3
115	119	1
180	190	1
112	120	1
66	67	2
144	147	1
69	78	1
42	42	3
186	190	1
113	122	2
61	95	1
79	79	2
55	80	1
44	58	1
33	35	3
53	60	1
150	151	2
94	94	1
68	108	1
131	133	1
71	74	1
54	59	2
85	86	1
58	58	5
83	97	1
83	95	1
15	16	1
146	161	1
113	139	1
79	80	1
85	85	2
41	41	1
101	162	1
5	9	1
73	94	1
58	96	1
83	84	1
9	11	1
114	145	1
91	93	1
162	165	1
158	164	2
186	186	1
54	83	1
65	131	1
166	168	1
33	34	1
140	140	1
68	70	1
18	43	1
102	107	1
