94	95	3
95	95	3
15	16	1
156	156	16
205	205	5
152	152	10
63	64	3
115	116	4
116	117	3
166	210	4
245	247	6
115	115	2
5	5	13
18	232	3
8	12	6
67	185	4
74	74	5
32	32	13
5	15	6
198	198	10
204	204	8
226	226	7
159	159	6
210	210	8
26	26	5
202	204	6
240	241	3
98	100	1
111	111	8
210	211	4
170	170	6
22	23	8
237	239	2
164	164	10
93	93	14
207	207	13
56	56	8
169	170	3
88	89	9
184	184	11
167	167	7
41	41	8
217	217	7
182	182	14
47	47	6
111	117	4
71	72	3
45	45	6
118	118	13
68	68	10
180	197	1
40	40	13
23	23	11
110	110	11
170	210	3
36	36	17
81	82	1
62	63	1
94	94	6
6	6	2
109	109	13
174	174	8
203	203	4
214	215	3
235	235	8
55	55	5
8	8	8
29	29	12
240	240	5
52	52	8
111	174	1
58	63	3
160	171	3
108	108	4
197	197	5
202	202	6
237	237	5
65	66	4
202	203	3
219	220	4
154	154	17
39	39	5
20	21	6
157	157	8
213	213	5
7	20	3
9	9	9
67	70	3
15	20	1
189	189	3
194	194	4
70	72	1
30	31	4
51	78	7
54	54	1
87	88	4
104	106	1
20	20	17
172	173	6
192	192	6
184	239	1
150	198	4
152	153	4
213	214	13
30	30	5
89	89	4
197	198	3
25	226	1
196	199	2
217	218	5
205	206	6
20	23	5
33	34	1
6	8	2
36	81	3
18	18	7
120	120	8
63	63	7
86	86	8
69	69	9
64	66	1
82	85	3
161	161	4
193	200	3
17	232	1
91	91	4
181	181	3
61	61	10
176	178	4
112	112	12
244	244	5
153	154	3
211	233	3
232	233	2
206	213	2
246	246	2
2	2	2
88	88	6
110	247	3
218	218	2
183	183	7
102	102	12
238	238	6
174	179	5
117	117	7
178	179	3
201	201	14
41	42	2
87	87	8
21	21	2
115	235	2
92	92	3
198	204	2
98	98	2
102	103	7
8	9	4
66	66	1
16	91	3
191	192	2
22	22	10
90	90	3
145	145	5
15	15	2
206	207	2
158	167	2
65	65	3
37	38	8
47	89	1
38	38	10
18	19	3
54	55	4
17	17	5
119	119	1
76	76	17
107	107	4
195	196	1
228	228	4
67	67	8
76	77	3
163	163	3
97	97	4
2	3	3
53	53	5
97	99	2
162	162	14
152	199	3
48	49	3
97	98	2
63	114	3
239	248	1
216	217	2
176	177	7
46	46	9
51	51	4
193	193	5
14	14	5
111	112	5
185	216	1
243	245	4
71	71	4
113	114	2
173	183	2
48	48	7
247	247	4
68	69	4
185	215	4
178	178	1
199	200	2
27	27	4
19	35	1
22	30	1
62	62	5
78	78	2
71	81	2
21	22	5
163	170	3
149	197	5
165	165	8
82	84	4
190	191	5
19	19	8
208	209	6
44	46	2
33	33	4
200	200	7
112	120	4
31	31	3
211	211	16
11	11	1
209	209	3
113	115	2
100	100	2
173	173	12
151	151	11
60	61	4
185	207	2
109	110	3
76	78	3
108	109	2
83	86	2
1	1	11
175	181	2
12	12	9
183	213	3
25	204	2
75	83	3
38	40	2
164	165	1
234	234	2
44	93	1
121	121	4
184	196	2
212	212	5
166	170	2
212	233	2
215	217	2
42	44	1
104	104	3
37	37	3
172	172	8
161	162	9
181	184	2
218	219	1
7	19	1
193	195	1
186	186	2
179	179	7
153	153	13
103	103	3
10	10	5
43	43	3
4	4	2
236	236	4
70	71	3
216	216	4
170	171	2
226	227	2
203	205	3
52	53	4
163	169	5
113	155	1
76	82	2
172	193	2
59	59	3
70	89	3
169	169	3
186	209	1
96	96	2
227	227	3
206	225	3
3	5	1
7	7	2
155	155	9
113	117	3
211	230	1
224	224	2
29	39	3
208	210	2
223	224	8
157	162	1
176	182	1
163	166	1
116	116	1
57	57	4
49	49	6
28	28	5
57	58	2
211	213	2
34	232	3
220	220	1
43	44	2
107	109	3
12	237	3
235	246	2
223	223	4
206	206	2
167	168	4
188	188	1
221	225	3
150	150	4
203	204	4
167	169	1
153	155	2
147	149	1
46	47	1
50	50	3
226	229	1
51	52	4
48	66	4
201	202	4
9	54	1
195	195	1
66	211	1
27	42	2
199	209	1
165	166	2
1	5	1
242	243	4
2	29	1
83	85	2
233	233	2
6	23	1
93	94	5
38	60	1
24	24	2
183	186	2
176	176	1
34	35	2
74	75	2
164	172	1
196	196	6
182	183	2
167	200	2
147	152	3
177	178	6
168	168	1
231	234	2
10	20	2
180	180	3
24	25	1
92	100	1
40	113	2
199	199	4
162	201	1
37	39	6
10	11	2
236	237	2
187	187	5
24	173	2
31	54	1
212	229	1
246	247	4
241	242	3
242	242	2
164	166	3
214	214	2
202	226	1
58	59	1
229	230	1
50	77	2
42	42	11
202	222	1
232	232	4
60	60	4
92	99	1
52	55	3
245	245	5
192	193	3
215	215	1
176	190	1
225	225	3
188	190	4
160	170	2
173	192	3
221	221	4
175	175	2
16	16	1
17	18	2
211	212	3
158	200	2
248	248	1
191	191	4
175	176	1
164	199	1
6	10	1
186	192	5
107	175	1
77	77	3
77	78	2
114	114	3
56	106	2
214	219	1
95	98	2
241	241	4
160	160	4
110	111	2
58	89	1
154	204	1
53	54	2
86	88	3
55	57	1
221	233	2
188	189	1
174	214	3
213	241	2
81	81	2
50	69	1
174	176	1
44	44	1
60	238	2
89	101	1
11	16	1
204	205	4
34	34	6
207	208	2
69	78	1
185	214	2
233	235	3
234	237	2
165	171	2
49	50	3
84	84	1
31	46	1
185	198	2
113	113	8
236	239	1
14	33	1
82	83	1
6	33	2
66	78	1
3	3	1
230	230	4
28	153	1
1	2	1
111	186	3
71	74	2
191	194	1
99	103	1
85	85	2
45	46	1
172	189	1
33	51	1
171	211	2
70	70	2
74	89	4
198	199	1
183	185	1
195	197	2
187	190	1
171	200	1
185	186	1
166	166	9
168	169	2
155	162	1
185	185	4
73	73	1
227	228	2
38	39	3
163	164	1
118	163	1
219	219	1
64	65	1
213	240	2
47	55	1
183	198	1
209	212	1
101	101	1
186	220	1
25	25	2
78	80	1
69	79	2
180	182	2
113	234	4
6	222	1
69	76	1
212	230	1
161	201	1
16	62	2
63	65	1
4	14	1
175	190	2
181	212	1
9	10	1
72	73	1
25	156	1
60	62	2
71	77	3
208	208	1
49	63	1
209	210	1
18	234	1
40	59	1
182	186	1
72	90	1
28	40	1
19	20	1
36	37	1
221	222	1
114	156	1
25	94	1
181	182	1
64	64	2
6	7	1
234	241	2
72	72	1
157	196	1
80	81	1
99	100	1
190	190	2
160	193	2
19	62	1
182	184	1
24	32	1
80	85	1
173	207	1
214	216	1
193	194	1
68	70	1
231	231	2
146	147	3
113	145	1
183	184	2
173	179	2
167	208	3
10	228	1
91	93	2
83	84	1
31	32	1
83	83	1
117	118	1
5	14	1
157	167	1
162	167	1
58	58	1
75	86	1
0	0	1
163	209	1
202	207	1
244	248	1
46	150	1
170	193	1
6	113	1
214	241	1
74	77	1
26	27	1
