127	127	10
37	37	6
12	12	17
121	121	8
70	70	6
90	90	15
103	103	5
31	31	12
140	156	2
50	51	5
21	22	12
120	120	14
30	51	5
4	4	5
136	158	1
17	139	1
85	103	1
37	38	3
39	39	10
148	148	7
112	112	7
92	96	3
3	3	10
134	134	9
32	34	1
136	137	7
54	54	4
26	26	4
116	116	6
46	75	2
29	30	2
1	6	2
45	46	3
48	49	7
107	107	11
80	81	4
113	114	3
91	91	16
28	28	7
29	51	1
63	70	4
153	153	17
76	79	2
22	22	14
89	89	6
15	15	8
62	67	6
67	67	7
10	12	3
154	158	1
79	81	1
10	10	9
7	8	7
11	12	1
0	1	3
81	81	9
154	155	3
94	94	5
138	138	24
52	53	5
8	10	8
146	147	8
87	87	6
131	131	12
23	23	12
147	153	5
45	45	3
117	117	23
43	43	6
23	25	3
103	104	3
1	1	7
51	51	5
40	40	5
3	67	1
20	157	1
115	115	12
28	29	2
7	7	13
147	155	1
25	25	6
14	14	3
19	19	8
68	69	4
118	118	4
154	154	6
35	35	6
97	97	9
62	68	1
128	129	4
105	105	15
21	21	9
8	16	2
118	119	9
49	51	5
55	55	3
96	97	5
27	28	5
130	156	1
24	24	12
95	95	18
139	139	9
85	85	15
38	50	4
34	34	14
56	56	2
150	150	14
125	125	9
65	65	10
5	6	4
22	23	3
73	74	2
22	129	3
140	140	8
141	141	5
93	93	5
156	157	4
18	19	13
19	20	14
83	83	6
135	136	3
46	46	21
151	151	7
33	34	6
87	89	4
140	141	3
155	155	9
4	5	3
82	82	5
120	121	14
32	32	2
30	30	4
77	77	7
147	147	7
113	115	3
39	40	1
104	104	3
109	109	10
144	147	4
13	13	2
96	96	2
80	80	6
127	137	6
123	123	7
54	56	1
6	6	11
49	49	3
75	75	8
109	110	1
117	118	8
3	30	3
78	80	2
128	128	10
143	143	3
140	158	6
38	38	11
137	137	8
152	152	7
113	113	5
3	26	1
108	134	2
84	101	4
7	10	4
8	9	1
75	77	4
68	71	3
0	0	4
130	130	14
99	99	14
129	129	5
110	112	1
42	48	2
149	150	3
142	142	9
31	33	2
146	146	3
149	149	10
144	148	2
88	88	3
5	5	7
24	107	6
11	15	1
32	33	3
121	122	13
131	132	4
54	101	1
44	45	3
81	99	4
124	126	2
132	132	12
44	44	7
115	116	7
139	141	2
15	16	1
90	104	3
50	50	5
133	133	8
124	127	2
39	50	2
3	22	4
20	21	5
50	54	1
71	71	6
81	88	3
145	145	8
29	29	6
1	2	5
114	114	8
121	145	1
137	139	2
2	2	8
42	51	1
136	136	8
110	110	11
119	119	8
42	42	5
12	13	2
148	149	2
158	158	13
50	91	2
100	100	9
123	127	2
47	69	1
22	30	1
135	135	3
30	31	3
128	134	3
86	91	1
37	105	1
14	15	1
17	17	5
22	25	2
47	98	1
98	98	7
33	33	3
152	153	2
72	81	5
82	131	1
41	50	3
68	68	6
145	146	6
79	79	5
114	116	1
92	92	9
110	127	2
35	36	2
108	111	1
11	11	6
37	106	2
66	66	3
93	94	3
88	89	1
129	135	1
48	48	3
101	101	6
141	142	1
111	113	1
116	117	3
57	69	2
24	136	1
78	78	7
106	106	1
151	157	1
108	108	1
78	82	1
152	154	2
16	17	2
95	100	3
17	18	3
139	140	4
64	65	1
22	103	2
62	62	3
158	159	2
67	68	1
29	32	2
87	102	1
49	53	2
9	10	1
4	7	3
78	79	1
88	90	4
146	156	3
122	122	4
8	8	6
86	90	3
85	114	1
69	69	6
149	154	1
56	62	1
0	3	2
53	53	4
61	64	1
42	132	1
63	63	3
147	152	2
38	39	2
127	139	2
35	53	5
3	4	5
108	109	2
106	107	2
37	56	3
87	99	1
83	130	6
18	18	5
92	95	1
56	69	1
16	144	2
53	91	9
86	88	1
84	84	2
47	47	3
23	24	3
99	100	4
65	66	4
6	153	1
32	87	1
129	130	1
46	47	2
16	16	5
93	98	1
73	73	5
110	111	1
122	123	2
26	27	5
67	70	1
40	41	2
36	36	14
81	82	5
123	124	2
10	15	1
90	91	4
38	53	1
2	4	1
64	66	2
129	131	1
1	11	5
48	52	1
122	142	1
27	49	1
156	156	4
8	31	3
54	55	3
83	84	2
20	22	1
24	25	4
138	145	1
47	57	1
132	134	1
77	78	1
31	32	1
82	83	2
156	158	3
119	121	1
124	124	3
17	25	3
12	14	2
132	133	5
119	127	1
111	111	4
85	88	2
126	126	3
126	131	1
82	86	1
96	100	2
117	119	2
107	108	2
114	115	3
45	47	1
128	135	2
19	21	1
54	94	1
48	84	1
131	133	3
86	89	1
32	52	1
43	44	2
9	9	3
119	122	1
91	92	1
41	116	2
16	23	1
42	43	1
157	157	2
20	20	2
105	106	3
111	112	1
92	93	1
14	155	3
71	85	1
117	121	1
123	126	1
47	82	1
25	26	2
125	143	1
14	17	2
140	147	1
141	155	1
116	158	1
4	27	2
144	144	3
22	130	3
55	97	2
134	135	1
56	72	3
83	86	1
104	105	1
2	3	1
133	155	1
89	90	1
85	133	1
151	152	1
43	132	1
124	125	1
141	147	1
145	148	1
76	76	2
13	19	1
39	133	1
38	105	1
120	122	3
56	57	1
70	71	1
11	13	1
7	154	1
133	134	1
102	104	1
146	149	1
155	156	1
53	54	1
126	127	1
111	126	1
112	113	1
3	31	1
86	87	2
97	98	1
127	141	1
57	57	1
7	16	1
106	121	1
80	132	1
91	95	1
121	140	1
119	138	1
24	129	1
45	75	1
79	83	1
