65	65	25
67	67	11
39	39	32
69	69	17
8	8	15
49	49	12
34	34	11
48	48	25
54	63	5
53	53	15
9	9	15
2	2	14
57	57	13
55	55	23
50	50	10
65	66	3
37	37	23
73	73	21
63	63	15
54	54	12
80	80	28
68	68	7
79	79	10
46	47	6
66	67	3
3	3	23
29	29	22
12	22	1
74	74	26
38	39	3
14	14	7
5	6	8
56	56	17
28	37	1
33	33	20
16	19	1
50	51	10
31	31	12
1	8	1
36	36	14
20	20	2
10	10	10
66	66	12
38	38	23
51	52	10
29	30	5
45	45	19
72	72	15
8	9	5
75	75	17
28	28	12
2	3	4
74	75	12
47	72	4
78	78	20
76	76	14
46	46	29
27	27	9
20	25	2
11	11	6
8	26	4
41	41	20
19	19	10
51	51	13
50	52	5
52	75	1
67	68	10
40	40	20
37	60	3
10	12	5
70	70	5
0	1	5
59	59	3
49	67	4
60	60	7
62	62	12
26	27	1
15	19	2
32	32	14
5	33	5
52	52	16
1	1	7
69	70	13
47	47	9
59	60	3
71	72	5
6	9	5
58	58	6
37	68	1
6	6	14
64	64	21
6	35	6
71	71	12
49	50	1
1	26	1
12	12	12
51	53	1
35	35	13
4	5	1
17	17	8
9	33	2
70	71	6
11	32	5
11	34	1
62	63	2
1	2	2
61	61	11
48	67	3
66	69	2
7	7	10
16	59	3
48	56	3
56	57	4
40	56	1
68	69	13
63	76	4
42	42	12
49	71	6
63	77	2
53	65	1
11	12	6
44	45	4
52	66	9
77	77	7
18	18	4
42	43	2
9	10	4
8	10	7
16	16	11
49	53	1
27	28	3
52	53	2
65	76	1
53	56	2
34	35	5
58	59	4
43	64	2
12	32	4
5	5	11
49	66	4
4	4	8
53	54	3
57	67	2
21	31	1
55	60	2
26	26	5
12	21	3
33	35	2
6	7	3
21	21	4
13	13	9
45	67	1
8	34	1
43	67	2
21	32	1
7	14	2
40	41	1
30	30	7
30	31	1
44	44	2
70	72	3
68	71	2
45	46	3
64	65	7
50	54	2
16	17	3
9	11	3
72	75	4
56	60	1
67	69	4
28	29	3
25	25	8
49	51	2
30	35	1
36	48	2
49	65	2
72	77	1
15	20	5
31	32	5
60	61	2
78	79	2
40	57	2
79	80	3
76	80	1
56	67	5
1	4	1
50	67	3
63	64	2
62	64	1
12	15	1
67	70	2
13	21	2
72	74	2
0	0	4
41	42	1
12	51	2
62	80	1
14	52	1
10	21	1
6	10	1
32	35	2
73	74	1
50	69	2
37	59	1
25	45	1
12	31	1
66	68	1
31	33	1
6	16	2
4	6	2
52	54	1
57	58	2
17	18	2
30	34	2
18	19	2
12	13	1
36	37	1
14	32	5
49	52	3
13	14	1
37	58	2
57	60	1
32	34	1
15	31	1
47	48	3
75	76	3
13	32	2
47	65	1
46	57	1
1	3	1
10	70	1
18	26	1
