170	170	13
125	126	12
49	49	7
130	130	14
172	174	6
115	115	3
165	172	4
27	27	8
26	26	9
136	136	6
185	185	15
196	196	13
15	15	8
169	169	1
196	197	3
121	122	1
50	50	5
113	113	8
43	43	1
89	89	10
177	177	7
93	93	3
145	145	5
129	129	9
85	85	5
30	30	4
1	1	3
140	150	2
39	41	5
29	39	1
26	61	1
151	169	4
39	39	10
139	139	7
193	193	1
187	188	9
79	79	5
153	153	8
40	42	1
78	80	3
190	197	2
97	97	6
59	59	12
53	53	11
184	184	5
169	192	2
129	130	2
37	37	6
165	167	3
147	164	3
133	134	5
117	117	4
175	176	4
110	110	3
175	175	9
34	34	9
48	48	7
123	127	2
49	50	3
125	125	10
58	58	7
6	6	2
153	178	2
66	66	2
185	186	4
128	165	1
58	81	3
187	187	8
14	14	9
135	139	1
168	168	4
180	181	4
19	31	1
46	94	2
25	26	4
107	112	1
195	195	4
133	135	2
163	164	2
52	52	11
94	94	2
159	182	3
31	31	8
172	173	3
55	56	5
33	33	5
179	180	2
138	138	5
102	102	9
5	8	6
156	156	5
32	34	2
59	86	1
151	152	2
149	150	5
149	149	8
142	146	3
119	119	4
144	144	8
120	121	5
152	153	4
31	33	2
70	71	1
170	171	4
11	11	8
160	174	1
168	169	3
47	47	2
81	82	1
0	1	1
112	113	8
44	44	8
164	164	6
100	100	7
4	17	1
23	23	4
121	121	3
143	144	1
181	181	10
7	36	2
99	99	2
79	81	1
51	51	7
167	179	3
127	128	4
72	72	6
180	180	3
42	122	1
8	8	4
122	122	3
37	39	1
56	56	6
141	141	1
135	135	5
163	169	2
9	9	4
71	71	2
32	33	1
24	29	2
130	131	9
48	52	4
114	114	3
50	51	1
16	17	3
30	31	4
36	36	2
28	190	2
160	160	3
135	136	4
55	55	1
40	71	2
152	152	3
42	43	2
111	111	2
124	124	4
174	175	1
87	87	4
134	134	5
178	178	1
116	116	5
13	13	4
160	161	5
3	3	9
179	181	1
132	132	5
123	123	7
89	90	3
173	173	2
148	148	5
81	84	3
127	127	1
184	187	2
157	168	2
137	137	7
182	182	5
10	10	9
66	68	1
45	45	8
176	176	2
27	58	1
0	0	5
57	57	3
150	150	4
131	131	6
146	147	1
64	64	3
163	163	6
21	21	4
162	162	2
141	142	3
139	140	7
124	125	4
30	33	4
40	41	4
169	171	1
39	40	1
126	126	5
159	184	2
109	111	2
190	192	2
171	171	5
57	58	1
59	60	3
118	118	3
157	158	2
65	65	4
0	8	2
22	22	2
11	12	5
76	90	1
177	178	2
133	133	4
24	24	2
54	55	3
22	23	1
1	2	4
4	4	1
176	177	8
158	158	5
116	117	3
83	84	2
116	119	1
165	165	6
139	152	1
64	65	1
148	169	2
29	29	3
115	116	1
147	147	2
194	194	1
28	33	1
129	131	1
74	74	1
38	38	6
78	78	2
101	101	8
161	162	1
188	188	2
192	192	2
192	193	3
193	194	4
151	177	2
7	7	6
150	151	2
3	18	4
2	2	3
106	106	4
109	110	3
173	174	3
98	98	2
16	22	2
56	58	3
67	133	2
76	76	1
3	4	6
13	14	4
157	157	8
186	186	3
115	134	3
169	184	1
38	40	3
151	151	6
148	152	1
150	153	1
88	89	1
155	156	3
45	46	2
186	189	1
166	166	5
159	160	2
145	147	3
155	155	2
20	20	4
5	5	7
189	190	1
164	171	4
2	4	1
17	22	3
162	167	2
134	139	1
28	28	1
46	46	7
35	35	5
65	66	1
18	30	2
98	99	1
53	54	1
12	12	4
47	133	1
167	167	4
190	190	4
154	154	6
161	161	5
89	147	1
141	145	4
95	96	1
73	74	3
46	53	1
160	164	2
119	120	3
103	112	1
38	58	2
113	115	1
108	110	3
63	63	1
173	175	3
41	44	1
174	174	4
144	146	1
120	120	2
126	127	1
25	25	2
134	140	2
136	139	1
10	13	2
96	97	2
33	34	1
140	149	4
130	133	3
95	95	2
72	73	1
107	153	1
20	21	2
164	167	2
145	146	1
179	179	2
2	3	2
146	146	1
142	142	2
5	6	1
22	24	2
8	38	2
54	108	2
169	170	1
86	86	2
82	82	1
67	83	1
56	108	1
152	154	1
26	28	1
56	57	1
56	115	1
35	44	1
117	118	4
40	40	2
72	74	2
188	196	2
6	8	4
7	8	3
6	7	1
160	169	1
155	167	1
19	19	1
134	137	2
77	77	2
153	154	5
38	42	2
186	188	1
140	143	2
109	109	1
8	9	1
189	189	1
33	36	1
116	118	1
107	107	3
122	170	1
62	63	1
191	193	1
42	71	1
138	196	1
23	27	1
38	39	1
25	40	1
183	184	1
69	71	1
81	83	3
110	111	1
137	138	1
184	188	1
25	29	1
34	35	1
165	180	1
122	131	1
30	181	1
41	41	1
17	17	2
159	159	1
171	172	3
89	148	2
165	166	1
110	113	2
157	160	2
29	30	1
19	28	1
133	138	1
159	162	1
21	180	1
57	78	1
69	69	1
157	169	1
27	28	1
141	143	1
141	151	1
10	85	1
18	18	1
109	112	1
16	16	1
121	123	1
115	119	1
167	168	1
134	135	1
