141	142	8
127	127	18
107	107	14
108	109	8
42	42	23
20	20	12
26	34	5
98	148	3
132	133	5
140	140	4
18	18	7
29	30	9
136	136	15
44	45	6
25	25	11
99	149	4
69	69	16
24	25	5
36	36	6
80	83	3
27	38	1
78	78	15
64	65	7
118	118	16
64	69	6
50	50	21
28	28	13
57	57	12
16	16	15
90	90	6
133	133	9
39	39	20
70	70	12
14	14	13
129	132	8
154	154	7
17	17	16
22	22	24
38	38	15
13	40	3
97	97	17
149	149	13
119	119	12
95	123	1
71	71	34
82	82	17
19	19	23
53	53	7
47	53	5
9	9	22
71	80	10
105	121	4
84	86	2
124	124	25
97	99	6
145	148	6
138	138	5
142	142	12
25	58	3
102	103	5
8	8	12
7	12	3
33	33	10
18	21	2
85	85	5
140	143	5
42	43	8
93	93	20
74	77	1
111	111	8
33	34	15
46	46	12
146	146	14
105	110	5
119	120	6
110	110	10
48	48	25
100	100	3
22	23	11
130	130	19
27	33	7
122	122	10
32	32	28
30	36	2
98	98	22
119	121	2
30	30	25
144	145	8
96	96	12
117	117	9
93	112	3
111	112	4
23	23	11
21	21	13
40	40	11
135	135	16
41	41	15
12	12	33
9	23	3
98	100	1
68	68	11
37	37	10
76	77	4
65	66	6
3	6	4
48	67	2
87	96	3
75	75	6
80	87	5
92	92	9
39	66	11
129	138	2
92	94	4
132	136	2
95	95	17
35	35	7
74	74	17
34	34	17
10	10	12
118	131	3
68	81	2
80	81	3
11	12	13
102	114	3
141	141	10
4	4	10
66	71	5
67	67	17
65	84	13
43	86	2
150	150	9
55	55	12
101	140	7
49	56	2
84	84	13
97	149	2
7	7	5
26	26	10
99	99	10
5	6	6
15	23	3
13	13	8
11	11	22
15	15	13
87	88	6
120	126	2
86	87	22
23	24	6
81	81	6
99	110	2
51	52	4
109	109	7
143	143	8
51	69	4
113	113	8
143	147	1
48	64	2
37	67	3
108	108	5
125	125	8
2	3	3
40	42	5
114	114	10
5	68	1
129	129	9
106	107	3
27	31	4
103	103	3
23	49	2
10	29	5
139	139	13
43	43	13
43	44	7
16	17	2
75	98	1
77	78	13
96	99	1
113	114	7
111	122	9
56	56	8
65	65	11
122	128	2
27	28	6
25	32	7
120	125	1
54	55	7
98	99	2
49	49	8
135	138	2
37	38	4
152	152	3
29	29	6
95	149	1
132	132	8
31	31	20
120	121	6
5	5	3
128	129	2
18	19	2
13	14	16
110	113	8
145	146	6
105	108	2
104	104	12
62	63	6
102	102	4
51	55	2
62	62	12
106	108	2
66	78	5
17	19	9
68	69	8
68	78	1
120	141	2
83	99	4
36	38	2
63	66	1
39	49	2
131	131	5
44	44	18
20	21	2
66	67	6
123	123	4
153	153	8
128	128	4
112	112	7
145	145	10
47	47	26
115	115	11
128	130	5
149	150	1
94	95	5
110	111	4
28	29	9
38	39	7
121	134	2
26	36	4
124	126	5
8	9	5
79	79	6
76	76	11
128	139	2
19	20	12
32	48	2
139	144	5
86	86	7
93	94	10
49	52	2
27	27	10
64	64	14
77	77	5
128	132	3
82	85	2
10	13	3
147	147	4
94	98	1
63	68	12
73	73	5
125	126	4
102	123	2
110	116	1
95	97	3
126	126	6
25	26	3
12	13	11
65	67	2
111	113	1
12	39	7
63	63	18
86	99	2
40	71	3
151	151	4
29	41	2
18	24	7
85	86	2
24	24	13
35	36	9
87	87	12
106	106	13
63	89	1
120	120	2
10	11	5
94	94	11
136	137	4
20	22	8
77	88	1
23	126	4
3	3	4
64	96	1
105	130	2
17	24	2
45	45	14
136	141	2
78	79	3
25	38	1
19	24	4
22	24	1
132	137	1
11	35	2
22	27	3
36	40	1
46	48	1
137	137	5
6	7	12
142	152	1
51	51	14
73	81	1
119	145	2
95	96	3
4	5	6
11	55	2
68	70	1
39	40	4
26	57	6
149	151	1
127	128	4
97	112	3
75	78	6
63	86	3
103	104	2
49	57	2
26	83	2
44	141	1
38	40	3
63	79	2
82	95	2
64	86	2
16	54	2
105	107	3
105	106	5
67	68	2
56	57	6
138	142	2
98	124	4
61	78	2
47	50	4
4	8	1
50	57	3
63	64	5
10	12	2
123	124	3
142	143	1
15	24	2
69	70	5
124	125	7
70	79	2
26	27	6
66	66	4
2	7	1
38	62	3
143	144	3
18	22	2
31	39	2
55	56	2
114	119	1
4	6	2
40	44	2
45	46	2
37	48	6
27	29	1
26	30	2
34	35	2
52	52	2
73	79	1
30	40	1
53	54	1
67	78	1
133	134	2
12	40	1
120	122	2
17	18	4
3	8	3
71	73	2
33	38	1
72	73	2
10	15	2
129	130	7
72	72	1
92	93	2
31	37	1
31	33	5
23	28	2
25	57	1
22	38	1
80	80	1
105	105	3
40	46	1
32	33	2
87	99	1
82	88	4
144	144	6
96	98	2
129	131	3
83	84	3
49	51	6
119	134	1
54	54	1
17	20	3
9	29	1
83	83	2
57	78	1
107	108	2
124	127	4
80	84	1
104	105	1
148	148	8
16	55	1
61	61	1
30	37	2
57	58	4
112	113	1
81	82	5
63	65	1
109	111	1
34	36	1
150	151	5
105	140	2
75	76	6
62	69	2
32	69	1
97	147	1
99	101	2
76	78	2
19	53	2
130	131	1
8	23	1
131	132	1
7	10	1
13	39	2
94	97	1
24	36	2
48	57	1
21	22	2
9	25	1
128	138	3
14	15	3
121	124	3
45	47	2
94	142	3
140	145	3
75	80	1
35	37	1
90	95	2
9	94	1
133	137	2
76	94	4
116	116	6
30	39	1
8	10	4
41	42	5
110	114	2
6	6	8
8	11	2
28	33	1
5	10	3
146	148	1
131	133	2
34	68	1
73	78	2
93	97	2
7	8	1
3	25	1
19	133	2
47	48	1
117	118	5
32	36	1
153	154	1
125	128	2
144	150	1
73	85	2
124	134	1
122	134	1
27	30	1
64	77	2
15	16	2
30	31	3
142	144	1
145	147	1
76	87	1
138	140	2
116	117	2
103	110	1
128	137	1
110	112	1
28	30	1
83	94	1
122	138	1
14	25	2
67	69	1
75	96	1
142	150	2
121	122	1
41	43	1
119	123	1
23	29	1
104	114	1
121	121	3
118	123	1
56	62	1
147	148	2
43	46	1
73	80	2
100	101	1
64	75	1
137	138	2
25	27	2
134	136	1
101	150	1
142	146	3
62	80	1
46	53	1
36	96	1
66	79	2
7	11	1
126	127	1
24	65	2
139	140	1
109	113	1
10	68	1
95	98	1
140	142	2
61	62	1
101	101	1
88	95	1
122	130	1
130	132	1
41	45	1
26	33	2
97	98	1
146	147	1
44	54	1
98	103	1
71	83	1
75	93	1
115	116	1
34	37	2
31	38	1
52	63	1
100	149	1
76	80	1
139	143	1
139	141	2
