66	66	9
33	33	7
14	15	9
112	112	14
93	93	8
116	116	12
43	44	9
113	114	1
65	65	5
133	133	13
47	48	10
78	80	4
45	46	1
102	102	7
41	41	6
19	32	3
121	121	4
5	5	7
64	64	16
94	94	8
79	79	21
26	27	6
41	42	12
108	108	21
44	44	9
3	38	2
67	67	13
80	103	2
60	61	4
3	3	22
25	33	2
13	13	10
99	99	14
122	122	20
96	96	8
55	55	7
84	85	5
104	104	11
58	58	17
50	50	5
39	39	4
53	53	21
91	91	6
62	63	1
110	110	10
27	27	12
118	118	18
42	42	7
12	12	10
97	98	8
64	83	2
26	26	14
11	92	1
82	83	3
62	62	3
46	47	2
38	38	5
16	16	3
28	28	10
69	69	13
57	57	13
52	52	13
1	2	8
130	130	8
125	125	9
87	122	1
54	54	12
84	84	10
16	17	3
123	123	16
73	74	7
127	127	9
51	51	14
80	81	6
30	30	7
99	102	3
116	120	2
79	80	4
34	61	1
119	119	8
111	111	21
43	45	7
89	89	16
98	98	13
10	10	6
48	49	12
55	73	3
76	76	4
100	100	1
46	46	10
74	74	11
72	72	8
114	114	8
121	123	3
29	29	5
6	6	4
15	15	5
83	84	1
50	108	1
48	48	10
67	68	4
107	107	5
109	109	3
49	49	10
47	47	7
29	30	3
7	8	5
108	129	2
34	34	5
66	69	2
120	120	14
106	106	4
46	99	1
58	86	2
128	129	1
2	2	21
99	100	3
3	4	4
51	53	2
16	18	1
77	77	16
87	87	6
77	78	7
83	86	2
22	33	4
30	31	2
127	128	6
44	64	9
88	88	6
56	56	7
25	32	2
25	25	12
126	127	3
31	31	8
17	19	3
81	81	12
4	4	13
80	80	4
48	116	3
24	24	6
18	18	9
63	63	12
82	82	7
125	126	2
7	7	5
114	118	2
85	86	3
17	18	9
50	57	1
70	71	3
8	8	8
11	12	2
66	125	3
55	97	1
126	126	8
86	88	4
65	68	1
32	32	7
115	115	13
131	132	2
72	74	3
73	73	5
56	57	3
52	57	1
40	43	4
117	125	4
118	119	3
105	105	23
97	97	3
101	103	1
75	75	14
83	103	2
44	45	4
90	91	4
91	93	4
83	83	12
14	14	12
40	40	13
21	89	2
17	34	1
86	86	3
18	19	5
43	43	9
116	117	2
24	41	2
59	59	7
71	72	3
25	26	11
129	130	2
42	64	4
60	60	4
98	119	2
3	24	1
62	72	2
78	78	7
25	60	1
125	130	5
128	128	10
22	23	1
126	128	5
9	29	2
131	131	3
113	113	5
2	58	3
23	24	3
27	28	12
41	44	2
117	117	6
45	45	6
19	19	5
101	101	11
82	87	1
49	50	6
125	131	1
71	71	9
59	94	2
104	112	1
24	25	4
58	59	2
15	16	3
12	92	1
130	131	1
72	109	1
109	130	2
17	17	12
61	62	1
61	61	14
31	32	4
65	66	2
112	128	7
77	81	3
8	31	1
51	91	2
82	101	2
42	45	5
52	53	3
1	1	6
89	90	6
67	97	3
72	93	2
96	98	2
6	11	3
21	21	8
101	129	1
42	43	5
74	77	2
20	25	2
80	102	5
43	47	2
102	107	1
86	91	1
109	113	1
75	76	1
82	119	3
57	59	2
95	95	5
51	92	3
34	44	2
8	30	4
23	23	4
21	61	3
121	122	2
12	90	1
69	71	1
132	132	6
81	95	2
114	116	1
56	75	3
129	129	4
15	20	1
0	31	4
20	20	6
40	63	1
22	22	3
10	11	5
63	64	1
79	98	4
119	129	1
17	22	3
85	85	3
105	121	4
115	116	5
109	110	2
66	67	1
115	117	2
15	31	5
20	29	2
9	9	7
62	100	3
43	62	2
0	0	1
132	133	3
44	66	2
111	112	3
70	70	3
94	95	1
117	118	2
18	29	1
113	128	4
92	92	1
66	130	1
14	24	4
55	60	1
124	124	3
91	120	2
116	130	1
71	93	4
50	109	1
127	130	1
4	32	2
114	128	2
128	130	1
105	123	3
32	33	1
10	28	3
112	113	2
68	68	1
89	117	1
87	112	1
32	71	1
83	100	1
77	99	1
4	23	2
57	58	2
88	89	2
23	60	1
54	80	1
92	93	1
87	88	3
72	78	1
55	74	1
97	102	1
8	16	1
103	120	1
97	100	1
6	8	1
89	91	1
71	113	3
114	115	1
16	22	1
25	28	1
60	62	1
87	121	1
10	40	1
66	68	1
78	103	1
50	51	1
65	67	1
113	125	1
102	104	1
83	132	1
45	100	2
100	103	1
61	73	1
110	111	1
11	23	1
118	131	1
53	108	1
84	103	1
41	114	1
40	45	1
