55	61	2
130	147	3
58	58	1
100	105	2
62	62	3
165	165	4
176	176	2
74	129	1
93	93	4
108	109	1
18	18	5
97	97	4
122	122	6
151	151	1
155	156	4
152	153	7
147	148	4
42	42	3
33	34	6
57	113	6
8	35	4
100	100	3
142	143	1
28	28	3
109	140	3
123	123	1
177	177	3
170	171	1
153	154	4
3	3	4
141	142	6
83	84	1
113	124	3
61	62	6
124	124	7
102	102	5
159	187	3
13	13	10
109	109	4
146	146	5
115	115	3
166	166	2
150	151	3
13	28	3
65	65	3
103	122	6
56	56	9
41	41	2
148	189	2
58	67	2
45	52	1
60	61	2
113	139	2
2	2	5
121	121	7
171	171	8
16	17	3
77	77	2
32	42	1
13	15	8
6	6	4
179	181	1
163	175	1
47	47	3
1	1	2
57	57	3
67	170	4
66	68	2
72	72	2
124	146	2
116	117	7
156	157	7
118	156	1
162	162	4
81	81	5
134	135	1
136	136	5
31	34	2
120	120	1
105	105	4
36	37	1
68	68	6
11	11	1
117	118	1
73	73	2
101	101	7
138	138	3
181	181	1
134	134	4
122	123	3
116	136	7
64	64	5
153	153	3
35	36	3
172	172	3
89	89	2
126	128	1
79	79	2
153	186	1
147	147	4
54	54	4
110	113	1
72	97	1
73	90	4
138	153	1
103	103	1
82	87	1
137	137	2
123	129	6
168	168	2
143	143	1
5	5	10
142	142	6
129	130	2
38	40	3
74	74	2
106	115	1
185	186	3
61	61	7
184	184	1
69	97	1
45	45	6
164	165	2
71	81	1
24	32	1
123	125	3
112	112	7
160	160	1
103	115	2
60	60	1
9	9	1
28	30	1
140	140	1
84	84	7
80	172	3
85	85	2
73	91	1
135	136	1
185	185	5
98	98	1
182	183	2
164	171	1
190	190	2
43	43	3
90	93	7
156	156	5
73	82	4
169	170	3
38	38	1
108	108	4
179	179	1
150	155	5
33	33	2
104	122	2
59	61	4
126	127	3
58	59	1
20	20	1
86	165	1
157	157	1
149	150	2
32	33	2
150	190	5
106	122	1
90	90	2
173	173	7
114	119	1
64	128	1
66	66	2
106	107	4
105	162	2
22	26	1
12	12	1
93	94	5
167	167	2
164	164	7
37	38	4
31	32	1
14	14	2
96	119	3
64	68	1
155	180	2
178	178	1
141	141	1
52	52	2
97	116	2
48	48	3
74	76	2
117	117	4
157	161	1
111	112	2
119	119	2
108	124	4
121	134	2
115	156	1
97	99	1
72	73	4
54	55	2
107	132	1
37	37	2
21	21	1
120	157	2
139	139	1
129	141	2
105	106	1
7	7	1
82	162	2
184	185	4
95	95	3
23	23	4
107	107	11
31	31	1
44	53	1
44	44	4
10	12	2
86	90	2
63	64	3
102	123	1
58	134	4
153	177	3
143	144	3
27	27	1
83	83	1
116	119	2
75	76	1
65	66	2
126	126	5
6	7	1
80	89	1
42	43	2
117	169	1
39	39	6
189	190	2
174	175	1
90	92	4
26	26	2
154	154	5
149	149	2
18	20	1
85	87	1
149	176	3
88	88	2
189	189	1
135	135	2
17	23	1
172	173	1
152	168	1
59	70	1
102	103	1
66	97	1
65	67	1
53	53	2
186	186	5
82	155	1
187	190	1
70	70	1
170	170	1
96	97	2
104	105	2
108	125	1
76	76	1
127	127	2
80	129	3
183	183	1
14	40	1
41	100	1
73	86	1
91	91	1
163	164	2
123	126	2
67	88	1
46	118	1
161	162	1
34	34	1
99	100	2
59	62	1
53	54	1
114	183	1
45	46	1
59	59	1
16	16	2
40	40	1
47	53	2
124	133	3
22	43	1
106	127	1
100	104	1
174	174	1
77	79	1
81	130	1
99	99	1
82	82	2
154	176	1
68	99	1
124	129	1
120	121	1
45	136	1
175	175	2
145	145	2
29	29	1
97	98	1
109	124	1
17	17	2
99	117	1
82	83	1
81	84	1
24	30	1
131	131	1
155	176	1
106	120	1
163	174	1
41	101	1
38	103	1
4	5	1
158	188	1
27	28	2
149	163	1
3	20	1
110	110	1
171	172	1
15	15	1
96	99	1
21	25	1
20	21	2
145	146	1
130	130	1
