33	39	1
90	90	26
68	69	4
53	54	5
70	70	13
66	90	5
52	52	22
50	50	12
99	101	4
26	27	5
46	46	7
87	88	12
101	101	5
80	80	10
67	68	9
82	82	3
39	39	6
84	84	5
100	101	8
99	99	25
48	48	9
56	56	13
88	88	13
84	93	5
62	62	13
31	32	7
79	79	5
49	49	6
89	90	5
34	34	12
66	66	10
67	67	10
97	100	4
25	25	2
55	55	13
63	64	11
81	82	2
100	100	19
23	23	2
37	38	6
93	93	16
48	50	3
98	98	10
52	55	5
85	85	7
89	89	23
73	74	4
78	78	10
94	94	7
51	51	7
58	58	11
92	93	5
80	81	14
72	75	1
38	51	2
45	45	5
58	71	4
42	44	6
58	67	4
40	40	28
51	54	2
83	83	3
91	91	19
61	61	5
44	44	12
52	53	6
75	75	3
93	100	5
42	43	3
96	98	1
97	98	6
72	73	5
51	52	6
51	53	1
71	71	7
41	44	3
44	45	3
40	56	2
65	65	8
73	73	16
76	76	6
64	65	2
41	51	4
98	99	2
74	92	4
94	96	1
42	42	13
38	38	2
35	51	3
64	66	2
81	81	9
33	33	8
69	69	8
91	92	13
55	56	5
94	100	6
98	100	5
41	41	7
69	70	3
59	59	10
64	64	13
72	74	3
77	77	13
102	102	8
60	60	9
90	91	3
70	71	1
87	98	3
79	80	4
76	77	2
94	97	3
48	49	13
95	95	8
87	87	7
53	53	14
28	28	1
58	61	4
24	24	3
75	101	2
86	86	6
23	24	1
35	36	2
31	31	4
63	63	10
96	96	8
94	99	3
66	68	2
94	98	3
54	55	4
65	92	1
56	101	2
83	86	1
48	72	1
50	51	6
93	97	1
59	66	2
43	44	6
47	47	7
68	68	15
83	93	6
56	61	3
75	92	1
95	96	2
58	63	1
70	72	4
57	57	11
83	94	1
63	65	2
77	78	2
70	94	2
40	50	4
42	77	3
33	36	1
93	94	3
32	32	9
92	92	12
79	81	3
44	74	1
83	84	2
47	48	2
51	61	2
72	72	4
30	30	4
33	49	5
49	64	1
59	63	5
43	64	1
95	97	1
37	44	1
24	25	5
95	98	1
43	43	3
63	69	3
65	66	5
101	102	5
97	97	4
41	42	5
96	97	2
79	100	4
42	45	2
40	57	2
49	60	6
66	67	9
37	37	3
56	57	3
51	60	2
56	67	1
57	58	3
75	85	2
38	40	4
84	94	3
58	79	2
42	80	1
84	86	1
99	100	1
59	91	1
86	88	2
43	47	1
29	29	2
79	83	2
86	87	8
60	92	2
40	59	1
90	96	3
55	60	1
41	74	1
69	72	2
47	50	2
22	22	1
85	86	1
55	59	1
49	50	5
27	28	1
25	26	1
23	29	1
74	74	3
73	91	2
54	54	7
50	58	2
40	41	2
58	59	3
58	72	1
54	60	2
49	51	1
91	93	3
58	60	2
75	78	1
71	72	2
62	63	1
22	23	1
35	38	1
67	72	1
55	63	2
36	36	2
74	93	1
71	75	1
20	22	1
52	54	1
76	78	1
49	62	1
57	60	1
92	98	1
56	60	1
39	40	1
93	96	1
