13	13	21
144	144	4
136	136	16
51	55	5
124	124	13
134	134	29
123	124	9
101	103	3
18	27	7
132	133	11
52	52	3
117	117	16
50	51	3
19	22	3
95	101	3
31	32	7
59	59	22
71	71	16
87	87	13
39	94	4
123	143	6
17	18	4
128	128	21
112	135	9
103	103	23
90	109	2
125	125	7
130	130	20
68	68	7
61	61	9
77	77	11
49	50	2
16	16	7
100	101	4
101	131	3
75	75	21
114	116	2
23	23	9
126	127	8
64	64	17
52	53	3
124	125	5
75	76	6
47	47	5
78	79	7
24	24	10
2	51	3
49	49	9
119	124	3
122	122	7
136	139	1
115	116	7
95	95	8
138	138	7
28	28	13
59	60	12
8	10	3
133	133	14
113	113	16
128	129	10
140	140	15
118	118	30
95	110	2
69	74	2
38	39	5
50	50	14
130	133	1
33	50	2
2	2	22
97	97	20
111	111	13
132	132	29
137	138	16
60	61	16
42	144	2
99	99	8
5	64	6
101	101	13
62	62	10
76	76	12
21	142	2
145	145	4
126	126	18
14	15	15
110	111	7
5	5	7
117	118	27
92	94	8
70	72	7
9	135	5
20	20	21
128	130	2
137	137	7
122	123	9
84	85	4
5	6	3
47	140	1
28	29	2
76	81	4
73	73	8
16	34	1
127	127	19
113	118	4
118	119	6
59	61	3
119	119	8
48	48	9
125	126	5
104	104	20
9	11	1
70	87	5
70	70	20
104	106	3
79	93	4
102	103	2
6	6	11
96	96	15
12	12	8
32	36	2
17	17	26
112	118	5
40	40	15
114	115	10
8	8	14
4	4	27
140	141	6
82	82	15
69	75	2
122	124	1
57	100	1
89	90	4
21	22	1
25	26	12
129	130	10
18	25	4
60	62	5
11	133	2
105	105	15
38	38	14
132	135	3
54	56	1
111	112	7
124	139	1
75	80	1
35	105	1
88	89	8
84	97	2
107	107	14
68	85	3
38	43	6
69	72	2
14	125	2
10	20	3
127	130	7
109	109	6
99	101	3
130	138	3
0	49	2
11	11	16
130	135	2
41	42	3
54	54	6
21	132	2
26	26	8
82	83	1
131	131	19
100	100	13
39	39	7
129	129	17
33	33	12
22	117	1
116	116	10
30	38	3
83	97	4
134	138	4
92	95	4
81	81	14
79	79	16
92	92	11
22	22	14
106	107	6
26	125	1
48	50	1
54	55	8
14	14	3
69	73	4
110	136	4
89	89	6
63	63	14
121	121	6
94	95	2
36	36	14
4	16	2
25	144	1
94	94	8
120	120	21
75	78	1
15	16	4
56	57	1
15	15	11
10	10	6
30	39	2
42	42	12
106	106	21
71	72	1
53	56	6
63	65	1
114	114	12
25	25	21
20	21	9
29	29	8
20	26	1
113	115	9
19	19	13
86	87	4
122	142	1
97	98	8
99	100	14
83	84	4
82	96	3
88	88	4
34	35	6
22	142	4
119	128	1
84	84	11
34	36	7
142	143	5
9	34	5
102	102	12
97	108	1
32	32	13
105	112	3
78	78	11
146	146	1
70	71	4
90	90	7
48	112	3
65	96	4
66	66	19
20	25	3
115	120	3
135	136	5
139	140	7
62	64	7
1	48	2
26	109	2
130	131	5
114	132	4
80	84	2
2	4	5
35	35	3
4	13	4
4	5	12
72	72	14
18	18	13
75	86	1
88	91	1
3	111	3
133	134	13
77	78	8
10	34	2
8	73	2
25	126	3
108	109	4
134	135	6
56	56	5
2	3	4
21	21	16
34	34	10
4	14	4
75	79	2
90	91	5
31	33	4
20	41	2
141	141	10
23	25	2
27	108	2
69	69	9
70	88	2
87	88	5
130	132	1
84	91	5
43	43	9
54	114	1
55	56	10
22	24	2
32	33	6
34	43	5
9	18	1
41	41	12
67	67	3
74	79	1
26	27	5
83	83	10
74	90	2
13	16	6
53	101	6
136	138	6
115	115	5
27	27	14
110	112	3
96	97	5
4	15	1
57	57	15
5	63	2
112	112	20
93	95	3
18	21	1
48	119	3
112	129	7
62	106	5
49	51	6
3	3	4
75	87	3
123	123	8
39	136	4
105	119	6
67	68	4
85	87	6
53	54	7
123	144	2
33	35	6
133	136	2
66	98	3
30	109	2
53	53	4
110	110	8
2	5	1
125	127	4
116	117	6
135	135	18
29	30	2
1	3	1
36	39	3
67	70	1
48	55	2
58	59	9
135	137	7
66	68	2
4	64	5
141	142	5
80	82	3
34	107	2
21	34	1
119	121	3
142	142	4
66	87	1
26	108	1
54	57	2
60	60	4
74	74	8
36	37	4
69	83	2
105	106	5
144	145	3
139	139	17
65	88	1
51	51	7
71	104	2
12	13	11
118	120	3
67	95	2
72	91	4
62	63	6
98	108	2
85	85	4
88	104	3
29	130	2
0	0	8
121	127	2
39	96	2
138	139	3
131	132	8
93	93	2
86	92	3
124	127	3
122	131	2
98	100	1
66	100	1
80	80	5
27	28	2
101	102	7
88	90	1
49	54	2
33	38	1
98	98	6
73	74	9
55	55	10
121	124	2
67	97	1
81	82	5
107	108	2
90	110	1
96	114	1
53	55	3
14	107	6
118	138	3
41	52	3
26	41	4
118	144	4
18	19	3
4	65	2
111	138	3
66	67	4
132	134	1
126	128	1
116	118	2
120	124	4
58	58	9
42	43	1
83	98	1
98	101	1
37	38	5
104	105	4
1	6	4
70	85	1
119	120	3
49	62	2
80	81	9
69	71	3
73	75	9
13	15	2
132	136	2
34	39	4
53	114	1
63	66	3
120	121	4
133	135	3
85	92	2
1	50	3
69	86	1
1	1	6
1	2	3
122	127	4
85	94	3
92	93	3
22	23	2
52	119	1
33	34	7
76	79	3
91	94	6
111	140	4
91	91	6
134	137	2
126	130	8
30	30	6
59	123	1
68	80	1
143	143	10
33	53	1
23	28	1
115	130	2
112	137	1
65	97	2
102	117	3
10	13	1
41	93	1
93	94	7
73	88	1
39	40	3
63	64	3
25	27	3
4	6	2
9	9	5
98	99	2
118	135	3
118	123	1
72	73	2
21	24	3
90	92	3
42	96	1
19	30	2
13	14	2
92	97	1
87	91	3
42	53	3
19	24	2
86	86	6
35	93	1
113	114	1
65	65	3
8	11	1
6	63	1
103	110	2
101	126	4
135	138	2
51	138	1
97	99	3
16	137	1
11	34	3
10	39	3
88	93	3
93	96	1
71	94	1
5	90	1
21	35	4
38	56	1
27	136	3
35	36	4
116	123	2
123	130	2
77	79	2
3	139	1
136	137	3
0	10	2
51	112	1
24	26	3
41	97	3
9	10	4
89	93	1
103	114	2
37	43	1
11	36	1
117	133	1
16	134	3
31	31	3
108	108	6
95	112	2
12	15	1
19	37	2
94	97	3
60	119	1
125	130	3
137	139	2
22	120	1
27	29	1
11	104	1
80	85	1
73	78	1
48	141	3
139	141	2
70	86	1
42	98	3
74	75	2
127	132	1
0	1	3
15	17	2
51	52	3
131	144	2
104	111	1
69	85	1
19	143	2
104	112	1
117	127	1
74	87	3
58	119	1
69	70	1
8	67	1
47	139	2
87	89	1
9	25	2
76	77	2
40	97	1
125	131	1
65	125	1
130	134	3
65	108	1
121	123	3
123	142	1
18	20	1
25	32	2
20	24	3
127	128	1
93	97	1
4	139	1
8	9	1
33	43	1
121	122	1
9	38	1
30	132	2
127	135	1
31	134	1
125	132	1
64	66	1
68	93	2
65	66	1
39	98	2
48	139	1
71	83	1
114	129	2
9	39	1
30	130	1
95	99	1
20	54	1
76	100	1
103	113	1
15	54	2
68	70	1
3	48	1
10	104	1
34	40	2
104	117	1
112	114	1
37	37	2
5	88	1
58	100	1
93	102	1
62	98	1
71	91	1
23	24	4
30	31	1
53	116	2
124	126	1
61	144	1
92	112	1
48	49	1
91	97	1
8	32	1
64	110	1
99	103	1
61	119	1
96	129	1
5	62	1
25	29	1
127	140	3
57	60	1
83	85	1
136	140	1
109	110	1
99	102	1
35	39	1
106	118	2
48	135	1
8	13	1
30	101	1
97	141	1
33	106	1
9	136	1
68	74	1
109	111	2
28	141	1
14	17	1
125	128	1
30	107	1
85	106	1
39	105	1
64	111	1
68	72	1
40	96	1
56	133	1
87	90	1
33	108	1
97	140	1
56	126	1
58	122	1
27	39	1
85	98	1
