221	222	1
120	120	10
191	191	14
77	78	2
215	216	3
81	83	1
173	173	5
10	10	19
49	49	7
59	59	8
24	24	7
136	138	5
204	204	9
216	223	3
183	183	5
20	20	8
109	110	5
75	75	6
25	25	10
17	17	8
81	88	2
108	108	5
150	151	6
28	28	17
68	68	4
79	80	9
117	117	6
113	128	2
151	152	3
67	67	17
102	131	5
146	147	9
0	0	10
102	102	6
42	42	13
105	106	3
148	148	7
21	23	3
127	128	3
158	158	7
175	175	7
6	6	4
62	62	9
61	61	14
102	104	6
57	57	12
66	95	2
25	26	3
97	97	5
19	32	1
184	184	4
38	38	9
29	56	4
85	85	12
84	84	6
177	178	1
208	208	5
138	191	6
178	178	6
16	16	10
156	156	3
180	180	6
39	46	2
192	192	6
75	76	1
160	160	8
12	16	3
45	46	4
113	113	12
120	223	5
115	116	3
234	234	10
13	13	3
196	235	5
239	239	3
109	109	3
3	8	4
71	71	4
134	134	12
5	5	12
8	29	5
39	53	6
139	139	9
219	219	12
8	8	3
194	197	3
88	88	7
110	110	6
126	127	3
14	16	2
9	9	10
183	184	4
107	108	3
143	143	9
46	46	14
74	79	2
226	226	5
4	4	3
54	54	11
101	101	6
22	22	14
182	183	4
240	240	8
72	72	9
237	237	4
77	77	4
162	193	4
41	41	9
86	86	13
217	218	4
12	13	10
69	69	7
43	43	8
212	214	2
14	15	12
4	18	4
28	29	3
14	14	1
168	169	1
186	187	7
48	48	7
119	119	4
163	210	3
9	37	1
106	109	4
54	55	3
3	3	7
82	84	3
12	12	6
21	21	5
135	135	4
37	38	4
19	19	7
26	26	7
138	142	2
23	24	2
118	118	2
55	56	4
110	113	2
154	154	2
228	228	3
106	106	5
199	200	3
102	103	6
33	33	6
69	70	5
37	37	7
225	226	3
128	128	5
238	238	9
89	89	5
159	159	3
221	221	7
53	54	4
203	220	1
154	155	6
104	105	3
185	185	3
224	224	2
219	220	7
75	78	6
105	105	8
85	86	2
141	142	3
74	74	10
57	58	1
228	234	1
22	23	1
196	236	1
61	80	2
11	11	4
133	148	4
169	169	5
206	206	1
29	57	4
30	81	7
102	119	1
228	230	4
64	65	7
185	186	1
129	130	1
193	194	1
170	170	4
100	148	4
155	155	4
97	137	2
141	141	9
122	122	4
211	211	3
158	237	2
157	191	3
39	61	4
225	225	1
201	228	4
60	60	3
230	231	1
139	142	3
225	232	3
115	115	1
41	49	2
9	11	2
27	27	13
73	73	6
76	76	6
34	36	3
224	225	3
32	32	5
134	148	5
49	50	8
47	47	7
54	85	1
20	38	1
28	59	2
117	123	1
39	42	2
28	235	2
42	55	4
176	176	7
51	54	2
63	172	1
159	160	1
95	95	3
58	58	2
4	7	1
182	182	7
29	31	3
200	200	2
217	217	6
160	161	2
223	224	2
24	36	1
213	213	2
172	172	8
214	215	1
65	65	4
149	150	2
100	101	3
13	14	1
15	15	5
72	73	3
197	197	4
157	242	2
121	121	4
201	202	4
36	36	8
7	7	5
66	67	4
216	216	2
98	98	5
136	136	4
17	31	2
26	134	2
80	80	4
214	214	5
101	114	1
25	55	4
18	18	3
44	45	3
154	158	3
136	137	2
5	6	1
220	221	4
193	195	3
31	81	2
197	200	2
35	36	2
40	40	5
148	149	2
114	128	1
16	17	1
64	118	4
35	35	1
23	23	4
166	176	2
64	84	2
204	205	5
165	166	3
163	163	3
46	88	1
171	173	2
80	81	3
103	130	2
15	16	3
201	201	4
126	126	1
53	53	4
29	32	7
236	236	8
41	56	1
231	231	2
161	196	3
198	209	2
133	141	2
120	121	1
65	144	1
144	145	3
61	88	2
82	83	1
133	133	3
117	118	4
52	52	11
27	28	3
180	181	1
235	235	4
175	176	3
4	5	3
100	100	2
213	222	1
192	193	2
223	223	1
179	184	2
39	39	3
181	181	1
38	39	1
1	3	3
131	131	3
117	119	3
149	149	2
220	220	5
32	62	2
11	175	1
204	208	3
3	171	2
188	188	2
71	73	2
138	138	1
189	190	1
101	102	2
199	199	1
50	88	2
167	167	2
205	206	5
7	11	3
144	146	3
111	111	3
158	159	3
202	202	4
207	207	11
174	174	2
168	178	1
133	134	2
24	74	1
44	44	4
204	214	1
16	18	2
69	121	1
139	140	2
215	215	3
60	61	2
116	117	2
122	123	5
166	186	1
38	46	2
76	80	2
116	116	2
78	80	3
24	53	3
182	191	3
84	85	2
50	51	2
1	1	1
125	125	2
230	230	5
171	179	2
81	84	2
79	83	1
206	208	2
209	210	3
233	233	1
163	217	2
232	232	2
62	64	2
217	220	1
205	205	3
47	48	2
140	141	1
32	83	1
130	130	1
3	5	4
8	14	1
64	72	1
51	51	3
112	113	1
157	157	1
11	12	2
45	47	1
66	66	4
28	62	1
8	59	1
64	64	2
192	235	2
231	232	1
137	137	2
233	234	1
9	22	1
137	138	2
79	79	2
122	124	1
55	55	2
73	97	2
141	143	1
140	140	1
203	203	4
29	29	4
163	192	1
223	226	1
161	161	2
176	177	1
9	10	2
210	210	1
48	56	2
142	142	1
2	3	2
78	78	2
80	82	1
187	189	2
40	41	1
39	55	1
41	42	2
162	162	2
59	80	2
9	27	1
74	85	1
22	52	1
21	52	2
203	233	1
198	198	1
194	195	1
99	99	1
165	183	1
195	195	1
193	235	1
48	50	1
67	113	1
99	128	1
234	235	1
124	124	3
168	168	4
98	127	1
33	34	1
187	188	2
59	63	1
202	203	2
9	176	1
0	1	3
177	188	1
9	174	1
197	201	1
83	84	1
32	82	2
147	147	2
121	128	2
81	81	1
123	123	2
30	30	1
97	98	1
123	125	1
190	190	1
5	25	1
30	58	1
56	56	1
24	25	2
70	70	1
123	124	1
62	63	1
203	204	1
10	28	1
74	97	1
190	196	1
3	4	1
70	72	2
101	149	1
114	114	1
61	75	1
65	67	1
99	100	1
9	65	1
151	151	1
32	36	1
127	127	1
134	137	1
198	203	1
44	53	1
147	155	1
