27	28	14
166	166	15
224	224	20
161	181	2
136	139	2
125	130	4
85	95	3
39	43	1
152	152	17
119	119	8
81	83	3
116	118	3
172	172	19
44	44	25
105	105	15
23	69	3
184	186	19
77	79	2
178	180	6
161	162	1
222	222	16
197	198	9
86	86	30
196	229	1
104	104	19
79	80	13
239	240	8
205	205	6
5	16	3
52	52	17
102	103	15
98	133	2
165	165	10
0	0	25
183	183	6
74	74	25
71	71	19
69	69	38
54	55	1
5	5	8
185	186	5
68	68	23
16	16	9
50	50	26
46	46	44
45	45	43
154	154	16
10	10	35
8	36	2
203	203	12
52	54	8
154	168	2
219	220	3
75	125	2
32	32	37
75	78	4
14	18	2
24	25	4
106	106	13
52	53	8
148	150	2
124	124	20
125	125	10
36	37	5
201	201	19
238	238	30
149	149	15
7	7	49
210	210	12
47	47	28
65	65	17
123	123	24
102	102	22
177	199	1
133	133	10
51	53	10
200	200	16
148	148	11
78	79	12
60	68	1
219	224	2
47	76	6
30	35	5
45	47	13
33	36	5
147	147	11
42	42	39
83	84	11
25	25	21
205	206	14
114	119	1
161	161	12
150	152	6
24	24	24
81	81	17
47	67	3
101	134	4
8	11	3
101	101	28
164	165	11
0	1	11
192	192	18
122	122	41
181	181	20
15	18	6
41	42	5
12	12	27
112	112	13
176	176	21
227	228	3
145	147	3
134	134	17
7	13	6
197	197	24
177	177	22
207	225	1
79	79	16
75	75	25
162	171	2
238	239	11
229	230	7
38	39	6
95	95	4
49	50	10
22	22	19
199	204	2
37	38	6
208	209	4
167	167	12
34	34	12
163	165	11
37	48	2
152	238	1
26	26	33
28	28	31
41	41	9
231	231	8
40	41	8
234	234	18
9	9	33
43	43	45
12	54	1
203	206	4
219	219	17
18	18	20
81	82	6
29	29	23
125	126	1
151	235	3
135	135	15
126	126	3
181	192	1
232	237	3
124	130	1
237	237	19
228	228	9
115	117	2
102	133	4
14	49	5
32	33	5
1	11	5
35	35	7
174	174	23
153	153	13
58	58	33
27	27	27
155	157	4
59	107	3
43	44	4
235	236	11
179	179	18
23	23	22
165	185	10
30	31	7
198	198	16
241	242	6
7	17	2
155	155	18
188	188	10
121	121	18
13	17	10
99	99	36
123	126	4
103	104	7
122	152	5
71	72	9
44	234	1
204	205	1
184	185	3
75	85	5
59	81	3
236	236	11
48	48	27
202	202	26
199	199	22
78	80	8
15	15	21
7	14	2
67	67	9
83	85	8
66	66	25
123	124	6
83	83	24
85	85	16
129	129	21
9	11	2
150	150	12
194	196	3
101	129	4
70	70	28
62	64	4
137	151	2
217	217	22
194	194	12
7	38	1
29	35	2
43	48	2
201	203	1
42	43	3
160	160	10
225	225	12
138	157	2
138	138	11
19	20	9
47	75	3
184	184	6
4	6	6
38	38	28
8	15	2
222	223	4
227	227	17
146	147	10
37	40	1
171	171	10
209	210	11
15	20	2
108	109	7
191	191	21
61	65	2
156	156	8
49	49	16
167	168	11
84	84	22
46	55	6
215	215	14
12	23	7
206	207	2
226	227	8
190	190	3
158	158	22
34	35	14
147	148	6
11	16	10
82	98	2
189	192	2
37	37	26
223	224	7
206	206	24
8	8	23
227	232	2
39	39	23
214	215	18
146	146	9
137	138	5
80	80	11
100	100	15
125	127	2
180	183	3
51	52	9
9	154	1
220	221	9
100	103	2
171	173	1
199	217	2
56	56	15
33	33	28
158	166	3
13	13	9
117	130	4
186	186	15
136	136	20
139	142	2
133	135	3
88	100	1
28	29	3
88	89	8
141	142	2
194	208	2
142	142	7
195	195	14
101	105	1
17	18	7
100	105	3
146	148	1
49	68	12
208	208	14
21	21	16
53	53	21
189	193	2
190	203	2
162	162	14
62	62	30
82	83	15
174	189	4
185	187	6
31	31	16
37	162	6
208	230	5
116	116	17
99	100	4
57	59	5
121	122	8
62	145	2
69	70	5
119	123	4
68	145	4
77	84	1
68	69	6
154	157	3
131	131	6
85	86	9
173	175	2
224	225	9
145	145	15
109	109	20
236	237	4
178	178	13
86	89	5
97	97	11
164	164	12
57	58	2
12	49	3
128	128	21
127	128	1
20	21	7
6	10	5
147	169	5
17	17	25
75	76	7
4	4	16
59	59	13
182	182	14
183	186	1
60	60	28
15	16	3
76	76	22
79	88	2
28	51	3
75	79	4
105	106	7
126	206	2
7	15	3
73	74	12
117	117	10
2	11	1
173	173	12
81	96	4
12	15	1
169	178	2
221	221	17
51	51	24
13	16	5
189	190	6
19	40	4
235	237	2
2	2	16
236	238	2
159	159	16
87	87	3
3	4	5
204	204	24
219	233	3
177	178	1
36	36	11
12	143	3
35	36	8
207	207	14
112	153	2
174	175	17
72	72	12
155	161	1
36	39	3
64	64	19
37	39	1
4	22	5
218	218	13
175	188	2
239	239	14
137	137	9
15	40	4
19	19	24
60	97	5
228	229	5
221	222	6
210	229	3
234	235	13
81	104	2
57	57	13
30	30	21
218	219	8
34	36	1
50	57	2
77	78	9
115	115	7
66	68	8
61	62	17
73	73	24
235	235	9
190	192	3
117	142	1
211	224	2
34	156	4
6	14	4
4	21	4
25	65	3
13	14	11
211	212	7
180	180	17
146	157	4
56	57	8
163	163	16
5	8	4
31	33	7
6	6	15
202	204	1
54	54	18
159	160	6
140	140	24
232	232	8
15	17	7
2	22	3
204	206	3
5	7	12
61	61	17
33	34	4
149	150	3
10	15	4
151	152	5
193	193	5
144	147	2
114	116	3
53	98	4
121	123	1
214	214	11
187	187	15
134	139	5
22	83	4
118	118	16
96	97	12
84	85	5
148	149	6
113	113	15
6	13	4
7	40	1
66	67	5
119	122	2
75	77	3
80	81	2
215	216	7
61	86	1
169	170	2
21	30	2
20	20	32
128	130	2
6	8	6
3	12	7
144	146	7
104	105	5
111	136	1
63	64	4
23	37	7
206	212	2
157	157	4
62	144	3
24	202	1
103	103	10
14	15	7
103	135	4
175	175	14
212	212	7
3	5	2
9	211	2
167	188	1
143	144	11
226	239	2
10	72	4
100	106	1
61	74	3
109	110	1
218	224	2
77	77	9
170	170	21
64	65	5
7	8	14
97	105	3
39	150	7
159	165	2
8	22	1
101	104	1
194	195	9
8	42	1
33	155	4
240	240	21
55	59	3
159	161	2
204	207	1
29	30	5
8	47	5
107	108	1
160	161	5
6	7	5
216	217	9
55	55	30
165	188	1
81	95	5
68	143	2
208	229	1
198	199	9
31	155	6
214	219	2
120	121	7
29	33	2
18	20	2
233	233	4
168	168	7
192	203	5
45	85	5
21	23	5
211	213	6
169	169	15
8	40	1
24	184	3
65	84	2
48	49	8
226	226	5
65	66	1
241	241	22
200	223	1
28	142	4
5	6	9
60	73	2
138	141	2
18	19	9
200	201	3
98	98	4
140	141	6
157	159	5
168	177	1
23	220	2
13	15	2
118	119	9
191	192	3
141	141	2
65	85	3
115	118	1
212	215	2
108	108	3
155	156	4
34	37	4
5	38	2
37	43	6
223	223	6
120	120	5
26	27	4
174	204	2
4	9	1
95	96	1
143	143	13
76	84	5
199	216	4
212	214	1
78	78	5
137	146	2
242	242	17
154	156	2
42	45	3
198	236	2
219	234	1
210	211	7
200	224	1
58	60	2
4	5	14
221	224	1
23	50	2
148	151	2
1	21	5
106	108	4
212	213	12
72	73	4
137	145	3
30	76	2
9	10	4
29	31	1
82	82	10
101	103	3
40	145	7
11	11	16
211	211	5
124	129	5
117	127	6
9	12	5
59	60	11
219	223	5
50	51	3
98	99	1
128	129	2
114	114	3
21	22	7
139	139	8
22	23	5
225	226	4
89	89	3
220	222	4
61	64	1
7	12	3
55	74	2
25	36	2
118	120	4
39	85	1
114	165	2
126	141	1
50	82	2
33	238	2
8	16	2
39	62	1
118	122	1
62	142	5
28	143	2
235	238	2
75	86	2
116	166	1
80	84	5
49	78	5
30	57	1
1	25	1
105	117	12
192	231	1
11	12	5
109	152	1
185	198	3
132	132	1
3	6	2
139	140	2
35	158	2
44	46	8
152	153	5
224	236	1
30	34	3
14	20	1
77	100	2
58	59	5
79	84	2
105	118	4
160	179	1
236	240	2
24	26	3
30	33	1
103	132	2
145	146	3
143	151	5
66	72	1
5	9	1
30	138	3
23	63	1
53	56	3
25	58	2
78	83	2
114	136	2
96	105	2
213	214	2
5	17	5
127	127	10
164	183	1
165	166	6
38	43	2
153	154	2
165	187	1
124	125	5
18	21	7
21	221	2
4	13	3
70	71	2
54	56	4
224	226	3
16	17	5
150	151	7
28	30	3
138	151	3
69	157	1
144	144	9
28	38	1
24	233	1
156	157	4
68	98	1
96	99	3
151	151	3
185	185	9
29	59	2
53	54	7
182	183	1
217	221	1
133	142	1
213	213	12
39	181	2
173	176	1
63	63	7
176	190	1
56	59	2
138	139	1
56	58	1
61	141	3
12	217	3
9	46	2
149	181	2
24	62	2
20	204	2
5	12	5
172	173	4
4	7	4
14	14	9
231	233	2
189	189	7
38	42	1
187	188	6
180	182	2
111	129	1
8	9	4
39	42	4
50	52	4
43	45	2
51	56	2
230	230	18
174	180	2
136	137	6
164	186	3
78	104	1
31	52	2
99	109	1
111	111	7
0	10	1
240	241	3
104	106	2
113	119	1
12	32	1
96	96	4
208	228	1
31	34	3
3	3	9
176	178	2
10	11	5
12	13	3
61	145	2
141	145	3
40	40	4
74	84	1
135	136	2
101	102	2
0	219	1
156	171	1
76	77	5
9	212	5
30	48	5
170	171	4
158	159	6
179	184	2
216	216	5
168	169	2
117	119	1
199	206	3
66	82	3
162	167	2
39	141	1
176	195	3
64	88	2
37	41	1
184	189	1
9	227	1
229	229	5
196	196	5
23	29	2
42	62	2
100	101	3
62	143	3
77	81	2
157	158	3
147	170	2
12	16	1
167	172	2
121	170	1
22	68	3
113	114	1
25	26	4
209	209	4
199	200	2
196	197	1
45	74	2
220	220	17
6	9	2
25	46	3
50	58	3
0	16	2
18	37	7
2	4	2
135	139	2
31	35	2
201	223	3
31	32	3
50	54	2
1	23	2
200	222	2
237	238	2
32	34	1
1	2	2
138	140	1
134	135	2
57	60	3
200	215	2
25	69	1
196	211	1
208	210	4
193	194	4
107	107	2
130	130	2
185	191	1
61	84	1
48	75	8
67	134	3
219	232	3
31	113	1
30	56	1
58	71	1
166	183	3
173	174	6
8	35	3
88	135	2
32	157	1
169	172	1
207	208	6
44	45	6
27	32	1
180	181	1
149	179	3
97	98	2
173	205	2
80	83	4
213	216	2
35	42	2
51	82	2
220	223	1
16	19	1
115	127	2
175	177	1
103	134	1
225	236	1
99	130	5
28	241	2
55	57	1
8	14	1
152	239	4
19	29	2
2	3	5
133	134	2
112	113	2
203	207	2
99	105	1
113	118	1
106	107	1
8	13	2
55	56	5
78	150	2
46	48	1
45	46	4
183	185	1
1	1	6
12	14	4
149	169	2
145	178	2
2	33	2
76	78	2
153	157	2
149	152	4
68	71	4
9	32	1
24	43	1
125	133	1
111	115	2
144	145	1
209	230	3
27	144	2
170	172	1
167	178	2
32	46	3
188	189	5
56	70	3
27	54	1
137	143	2
197	212	2
137	139	1
74	75	4
199	214	2
173	234	1
209	235	1
49	77	3
35	40	3
86	102	1
219	226	1
217	218	2
153	161	1
25	241	1
42	236	2
233	235	3
156	162	1
13	49	1
53	55	2
24	48	1
168	172	2
139	205	1
0	4	3
166	167	2
35	139	3
231	232	1
110	110	3
158	213	2
6	17	3
41	145	1
29	85	3
67	73	1
50	53	3
162	179	2
195	196	1
78	86	1
33	42	1
39	40	2
60	146	1
38	46	1
14	17	6
38	183	2
18	35	1
75	84	1
27	45	1
193	195	2
193	199	2
45	239	2
47	48	2
103	133	1
141	147	1
115	116	3
109	113	1
73	80	1
28	43	1
232	233	8
194	207	1
148	179	1
194	221	1
174	188	1
168	183	2
179	180	2
69	141	2
148	169	2
225	227	1
218	226	2
116	117	1
2	8	2
186	190	3
121	131	1
133	141	1
170	178	1
205	207	2
210	212	1
234	240	2
121	127	2
117	120	1
28	55	1
24	61	1
155	158	2
88	88	3
205	215	1
46	234	2
65	133	1
120	127	1
178	179	2
181	191	2
110	126	1
56	68	1
119	120	1
197	203	2
8	21	1
163	167	3
121	143	1
81	84	1
80	140	2
174	186	1
195	197	1
181	182	2
62	63	3
126	127	1
76	81	2
159	170	1
14	16	1
11	203	1
221	223	2
72	155	1
100	135	1
13	29	1
40	58	1
69	71	1
99	106	3
132	134	1
65	67	1
233	237	2
185	190	1
74	152	1
118	139	1
153	155	1
33	49	1
173	187	1
51	99	1
36	137	1
103	116	1
99	102	1
113	152	1
39	143	1
158	182	1
41	146	1
7	126	1
82	84	3
235	240	1
176	177	2
228	230	1
0	3	1
136	138	1
38	163	1
122	144	1
62	140	2
10	47	1
21	68	1
74	81	1
66	105	1
80	85	1
228	232	2
80	82	1
99	131	1
3	72	1
124	126	1
201	238	1
42	144	1
214	216	1
46	47	1
189	195	1
75	81	1
144	153	1
27	152	1
