35	35	17
141	141	18
154	168	6
116	117	9
100	100	13
38	38	37
88	88	6
101	101	8
61	61	12
136	136	14
0	0	14
26	27	19
31	31	36
37	37	25
167	169	2
72	72	18
33	33	17
96	96	8
114	115	3
143	144	5
142	143	3
135	135	12
39	40	16
90	90	23
62	62	8
9	11	13
176	176	12
164	165	6
112	112	19
147	148	8
41	41	29
45	45	20
43	43	36
122	122	16
50	50	3
8	8	7
27	27	23
106	106	20
142	145	2
178	178	6
125	126	5
116	116	5
174	174	7
78	81	1
144	166	3
12	12	13
64	66	3
113	113	5
152	152	9
39	39	43
133	138	2
11	12	2
63	63	9
6	6	36
42	42	8
126	126	11
11	11	23
139	139	16
94	95	7
53	54	4
134	135	2
13	13	31
1	14	1
172	174	2
133	134	3
36	38	1
71	72	2
95	95	15
2	2	9
10	10	36
107	107	4
6	15	4
8	9	14
16	35	2
78	79	3
15	15	43
97	101	2
57	57	12
23	25	3
1	1	17
172	172	8
87	90	3
131	138	2
51	51	7
60	61	9
56	56	5
170	170	8
91	91	11
99	101	4
111	121	8
45	50	3
29	29	23
30	31	5
168	169	2
161	161	15
60	60	19
123	124	6
93	95	3
89	89	7
15	65	3
167	168	2
65	68	2
72	78	2
176	177	5
88	89	8
98	98	5
37	41	3
85	85	3
64	65	5
32	32	25
160	160	10
113	114	9
6	20	2
5	5	21
9	9	35
19	33	4
22	23	7
8	13	1
66	66	2
174	175	14
45	51	4
78	98	1
22	22	13
13	14	12
163	165	7
6	7	6
169	169	10
158	159	9
80	82	10
32	36	2
14	33	2
158	171	3
17	18	15
65	65	13
11	32	1
175	176	5
64	64	9
72	73	3
71	94	5
87	87	15
90	93	2
3	7	2
7	7	19
54	54	12
110	135	2
135	136	15
130	132	8
126	127	6
129	129	5
18	18	16
4	18	5
179	179	14
145	145	8
94	94	7
11	13	5
129	136	4
36	36	18
5	14	1
81	81	12
124	124	19
154	155	6
153	153	10
109	128	4
19	21	5
49	49	2
78	78	11
41	42	8
14	38	3
149	169	5
57	58	7
14	25	2
26	33	2
77	77	8
52	53	8
145	146	6
7	9	9
150	150	9
138	138	14
102	105	3
12	15	2
123	123	12
26	26	11
92	92	5
162	162	7
8	18	4
107	109	13
19	19	4
14	32	2
157	157	4
40	40	25
15	16	11
129	130	7
152	153	6
76	77	9
54	56	4
27	28	7
44	45	10
105	110	1
177	177	5
105	106	4
35	39	3
32	33	16
92	130	3
112	114	2
11	14	2
21	21	14
16	16	24
156	156	6
134	136	2
84	85	2
10	14	7
30	30	3
93	93	6
68	68	18
24	24	16
147	147	17
4	9	5
159	161	2
159	171	4
29	30	4
149	149	7
14	14	24
17	17	23
55	61	2
27	39	2
159	159	15
127	127	10
4	42	2
25	25	7
151	153	2
28	29	9
111	111	9
139	140	5
131	137	2
131	131	9
16	20	1
122	123	1
121	122	8
20	20	12
110	110	7
43	44	4
102	102	12
92	94	3
17	65	7
17	66	4
55	55	19
44	44	21
130	134	2
28	28	12
33	34	2
140	141	7
130	131	9
52	52	4
78	85	4
67	67	10
50	52	3
110	112	7
94	96	2
98	99	1
20	24	1
175	175	7
171	171	18
161	162	6
3	3	13
38	39	14
33	44	5
142	142	10
116	135	3
155	168	2
91	115	1
4	4	15
73	73	13
120	120	9
10	32	4
121	121	9
104	122	2
27	29	3
117	117	10
137	138	5
2	4	5
91	92	1
38	40	4
158	168	1
59	59	3
31	32	3
108	122	2
124	125	3
19	30	1
115	115	10
121	123	3
151	160	1
123	125	3
42	57	3
34	36	1
154	154	7
120	122	1
9	10	17
4	5	3
105	105	15
79	83	1
160	161	1
132	132	4
115	118	3
6	9	6
52	67	5
170	171	4
2	3	7
180	180	9
12	16	3
6	25	3
75	76	4
73	89	2
103	106	2
125	130	1
75	75	7
11	16	2
10	25	1
72	74	3
38	41	2
144	144	5
109	109	9
29	46	1
143	143	11
110	111	7
18	19	7
31	36	3
17	28	2
105	109	1
12	22	5
166	166	12
169	170	2
113	119	4
40	41	7
54	55	6
41	76	3
43	94	2
89	90	1
134	134	7
167	167	8
148	148	11
152	154	2
16	17	6
173	173	14
146	146	12
77	176	2
60	62	6
1	4	7
104	104	2
97	97	3
76	76	7
16	39	1
83	83	3
83	84	2
91	93	6
12	13	2
79	79	12
141	142	1
146	147	6
165	165	3
10	18	2
26	31	5
90	94	3
57	61	4
118	119	2
23	24	5
70	70	2
28	30	4
10	11	17
82	82	2
140	140	12
2	25	4
56	57	3
137	137	10
77	78	8
5	6	9
135	165	4
119	119	8
10	116	1
57	59	5
151	157	5
51	53	3
59	60	7
36	37	5
0	1	7
107	108	4
25	26	6
144	145	1
24	26	4
108	108	11
71	71	13
133	133	6
144	146	8
172	173	10
32	34	2
53	67	2
115	117	1
62	64	2
23	23	5
34	34	3
96	97	3
136	159	5
9	14	1
128	128	6
8	20	3
31	34	1
155	167	3
18	23	3
24	25	2
168	168	12
131	136	1
112	113	5
164	164	3
43	45	2
58	58	17
160	162	1
115	134	4
72	133	1
76	78	6
37	38	7
1	34	2
19	51	3
101	102	5
149	150	1
103	103	4
13	32	1
79	85	3
130	130	7
99	99	3
14	15	4
86	86	9
166	167	3
65	66	6
49	50	2
34	67	1
115	119	2
85	86	2
147	166	2
38	45	3
125	174	3
95	96	2
23	28	3
130	136	4
4	7	3
1	2	3
161	163	2
150	151	7
135	163	1
10	33	1
55	56	3
23	26	2
3	4	8
144	169	2
68	76	1
59	62	2
44	99	1
37	39	3
63	64	5
53	53	8
74	74	7
119	120	2
152	155	3
13	16	2
150	161	3
111	118	1
80	81	4
111	112	5
89	91	4
177	180	1
8	37	5
34	35	4
9	22	3
97	98	1
14	30	2
118	120	1
118	118	4
139	171	1
72	134	2
172	178	3
140	163	1
169	172	1
143	169	1
51	54	3
124	126	1
178	179	4
171	172	4
174	176	3
126	132	2
162	172	1
80	80	6
96	117	1
162	163	3
162	171	2
45	83	3
17	116	3
113	117	3
84	84	3
13	34	2
134	138	4
43	50	1
17	29	1
126	130	2
18	31	1
28	32	1
75	78	1
125	125	5
108	125	4
158	158	3
93	134	4
124	129	1
7	35	1
8	10	4
59	61	4
150	152	1
44	51	3
116	129	1
6	8	2
75	77	2
35	36	1
148	171	2
138	141	2
164	167	3
58	59	2
27	31	2
157	158	2
77	85	2
62	63	2
10	22	3
42	43	8
37	42	5
165	166	1
135	137	1
10	21	3
4	15	2
102	103	1
147	164	2
121	141	3
141	143	1
90	91	2
137	150	3
61	62	2
161	170	6
21	22	3
126	128	1
91	118	1
103	110	2
37	40	2
164	166	1
46	46	3
45	98	1
114	114	6
153	154	3
96	120	2
40	42	2
16	18	1
128	129	1
92	117	1
136	137	2
163	168	3
34	40	1
160	165	1
176	178	2
153	172	2
100	103	4
91	106	1
151	151	3
173	174	5
16	68	2
70	72	1
115	136	1
66	67	1
159	169	2
81	86	1
165	167	3
133	139	1
14	29	1
38	57	1
80	93	1
167	171	3
163	163	3
14	18	1
13	22	3
2	6	2
56	76	3
87	89	1
0	17	1
160	172	2
14	21	3
153	158	2
93	100	2
177	178	2
79	80	2
18	21	2
0	53	2
72	90	1
131	135	2
0	29	1
77	179	2
52	64	1
92	93	3
146	166	1
17	23	1
5	9	4
6	16	2
38	43	1
110	113	1
41	44	1
126	129	4
148	149	1
58	61	1
155	156	2
166	169	1
3	5	1
86	87	1
35	40	1
33	35	1
124	131	1
31	33	1
138	139	2
28	33	2
98	100	1
139	141	1
87	95	1
175	178	1
129	131	1
140	142	1
16	38	1
145	166	1
50	51	1
14	37	1
16	34	1
32	38	2
179	180	1
155	166	1
134	137	1
161	165	1
160	180	1
94	101	1
23	27	2
10	45	1
137	139	1
154	163	1
132	133	2
3	6	1
173	176	1
106	107	2
20	21	1
147	165	1
168	170	1
51	52	1
14	16	1
30	32	1
13	33	1
1	17	1
9	45	1
153	156	1
56	59	1
21	42	1
15	46	1
13	15	1
95	126	1
77	80	2
131	132	1
107	110	1
24	28	1
74	75	1
90	102	1
27	40	1
121	125	1
50	53	1
37	81	1
172	176	1
126	136	1
122	131	1
19	43	1
61	76	1
5	15	1
93	94	1
159	168	1
127	132	1
2	5	1
