26	26	41
135	135	37
170	170	42
25	27	6
98	113	1
55	55	34
21	21	17
155	155	42
147	147	50
185	185	52
186	186	32
178	188	1
29	30	20
36	36	35
104	106	15
152	168	5
187	196	1
51	52	6
122	122	26
30	31	14
144	145	4
118	145	4
0	7	2
82	86	4
193	193	31
57	57	32
23	23	33
174	174	18
180	180	46
39	40	9
47	48	14
118	128	3
99	99	33
183	183	51
14	14	43
100	105	1
24	24	34
107	107	20
166	166	58
4	8	3
36	38	4
9	122	3
170	172	2
68	68	35
79	95	3
175	175	44
194	194	34
164	167	15
102	180	3
32	32	28
160	160	44
197	197	21
16	37	4
143	144	12
15	17	8
94	95	10
53	55	7
187	188	19
185	186	26
151	152	25
122	124	9
22	22	32
31	31	35
165	165	33
112	112	35
51	51	33
104	104	24
154	154	62
4	4	30
93	95	7
134	134	24
47	47	47
3	3	34
40	40	37
111	111	30
43	43	41
156	156	64
176	177	12
124	124	22
76	77	7
4	5	11
81	81	26
113	113	32
154	155	26
182	182	45
104	105	10
196	196	40
54	55	16
119	119	36
30	30	33
176	176	52
64	65	10
0	0	47
5	5	24
117	117	37
158	159	31
136	136	16
98	98	17
26	27	9
118	118	37
192	192	47
150	150	44
56	56	33
151	166	2
44	46	3
63	63	5
48	48	34
3	4	19
153	154	7
19	25	4
168	168	45
85	86	5
181	181	41
129	129	39
50	51	28
168	169	22
80	81	6
191	191	29
118	120	12
44	44	32
38	38	28
61	74	2
25	25	28
78	79	8
101	103	6
97	97	29
163	163	32
121	123	5
115	119	5
53	53	23
190	192	9
144	171	1
173	173	31
2	2	27
109	109	29
19	19	25
184	184	43
110	110	29
88	138	7
161	161	45
157	157	57
111	149	4
156	157	15
121	122	10
22	25	10
80	93	3
114	124	4
8	8	22
9	10	15
34	34	48
152	152	34
159	160	11
167	168	24
133	134	13
17	17	39
48	49	18
29	29	43
119	192	3
126	126	30
59	59	23
173	174	15
164	165	14
149	149	45
49	49	42
82	82	16
86	86	17
72	73	9
172	172	46
178	179	21
41	41	19
18	18	35
5	37	2
155	160	1
172	174	3
125	125	25
10	13	11
153	153	58
144	156	2
94	94	31
63	64	6
183	184	16
46	47	17
21	26	4
115	115	38
135	138	5
119	164	4
80	80	13
114	114	46
56	94	3
106	106	20
36	42	5
130	158	6
17	20	1
195	196	11
113	114	17
24	70	1
56	59	2
190	190	37
62	63	11
7	7	32
18	25	4
188	188	40
16	16	26
27	181	3
177	178	21
17	18	27
35	35	40
79	79	12
107	108	8
76	76	23
127	127	34
158	158	37
54	94	3
141	141	49
40	41	18
99	102	3
87	88	1
178	178	46
74	74	18
126	127	10
128	129	12
108	108	28
27	27	36
105	106	11
137	137	21
67	67	23
60	86	3
143	156	2
22	24	14
73	73	11
45	45	30
69	138	4
137	143	1
38	40	8
188	193	3
169	172	10
119	120	11
180	190	2
54	54	28
39	39	37
132	151	1
38	44	2
16	17	14
26	160	5
24	34	2
154	167	4
118	119	13
102	104	2
130	131	20
130	132	2
42	43	5
5	6	18
145	145	46
116	152	1
188	189	33
87	87	22
175	176	7
100	138	5
111	112	9
167	167	58
110	111	7
181	189	1
37	115	2
171	172	35
113	119	5
1	1	41
144	144	29
164	164	34
189	190	35
89	120	4
179	179	60
150	151	27
0	1	18
161	163	13
14	69	2
118	156	4
70	70	12
33	41	8
6	6	21
41	42	9
96	96	10
28	28	41
83	83	11
120	120	24
6	7	16
101	101	50
95	95	18
81	86	4
103	103	28
159	161	16
23	77	1
165	169	6
39	41	7
190	191	12
153	156	8
124	125	8
159	159	21
138	138	35
151	151	29
83	86	6
169	176	10
14	15	1
21	34	3
100	100	41
18	19	12
149	151	2
152	153	25
121	121	21
146	146	45
121	149	3
33	33	29
155	156	14
161	162	19
116	116	37
52	57	3
130	130	25
88	89	18
185	187	7
11	12	2
43	44	22
187	187	50
58	59	8
61	72	3
146	147	28
40	42	12
128	128	38
61	61	13
34	37	5
162	162	26
71	71	9
153	162	1
88	88	15
105	107	3
59	60	12
69	69	15
131	132	9
133	135	8
140	140	30
101	105	3
152	173	4
116	117	20
30	36	1
50	50	23
25	26	23
179	180	17
186	188	2
76	80	3
142	142	40
122	127	3
123	193	2
15	16	12
195	195	26
156	158	5
170	171	26
120	122	2
95	96	6
37	38	10
172	183	2
80	95	4
191	193	5
84	94	2
186	187	26
5	9	5
122	123	2
10	10	30
151	153	11
36	37	14
20	28	2
135	136	2
93	97	3
42	42	29
70	71	3
16	18	5
188	191	1
131	131	42
189	189	31
192	193	34
183	195	3
23	26	4
112	156	2
68	69	3
185	196	2
46	46	25
124	184	3
143	143	23
93	94	6
15	15	30
125	126	15
39	42	8
123	192	4
32	37	1
90	140	2
185	192	1
83	84	14
6	64	1
11	14	8
136	137	12
132	132	33
171	184	2
130	147	3
0	2	6
7	163	2
157	159	3
37	37	29
138	139	11
53	54	9
119	193	1
132	142	6
6	39	2
114	120	4
83	151	1
47	142	3
147	183	4
106	107	5
84	84	9
104	107	4
133	180	3
99	100	14
21	33	1
169	169	34
168	180	4
139	140	18
163	168	4
131	133	1
66	68	5
102	106	14
106	136	2
77	79	4
143	145	2
182	183	40
35	36	24
132	143	3
27	29	5
19	33	1
72	130	1
133	156	1
114	119	1
81	84	2
93	93	17
61	63	4
98	99	8
57	58	15
171	178	4
149	150	9
148	149	17
82	83	8
20	20	29
49	127	5
131	144	2
101	102	11
193	195	3
65	133	4
27	28	20
97	99	8
167	169	4
83	153	1
33	37	11
0	27	2
165	167	10
118	151	2
176	188	2
89	89	13
17	28	3
86	87	10
179	182	5
149	176	1
44	134	4
109	110	25
177	182	3
21	22	18
163	171	2
90	90	3
156	181	1
28	29	14
181	182	26
85	85	21
47	185	1
148	148	33
72	72	22
150	158	2
10	11	12
190	193	2
102	102	27
168	173	4
127	129	2
113	116	6
60	60	3
59	64	2
89	138	3
21	62	5
139	139	25
26	28	10
103	106	4
9	9	33
137	142	5
61	64	1
49	50	8
112	117	2
121	124	3
38	39	10
103	104	8
41	43	3
173	175	7
70	73	9
56	72	3
4	12	3
129	131	2
196	197	16
44	45	11
148	150	5
100	182	3
117	133	1
173	179	2
2	3	4
173	177	6
166	167	15
20	21	9
11	11	24
113	117	2
159	167	2
59	68	7
194	195	13
36	130	7
63	65	6
147	154	6
149	171	4
133	133	16
177	177	32
153	171	1
130	148	2
77	78	16
10	12	4
146	156	3
147	155	1
132	133	13
59	63	9
168	170	8
54	61	3
120	121	3
5	14	2
173	178	5
180	181	10
189	196	2
19	20	9
37	122	2
171	171	32
13	42	3
38	42	5
153	174	1
137	161	4
100	102	5
187	195	1
186	194	2
155	197	3
7	132	1
41	51	2
46	51	6
188	194	1
88	90	4
45	135	1
141	142	7
96	105	3
175	178	11
160	165	3
100	101	21
151	174	4
117	118	12
144	154	1
58	71	3
176	178	8
51	54	5
3	10	3
138	144	2
9	42	2
23	81	4
66	140	3
160	161	6
100	143	5
152	167	3
34	36	7
184	185	7
94	119	3
56	58	1
52	52	21
34	35	17
163	164	9
145	174	1
13	13	21
7	39	2
149	155	3
125	128	3
172	176	4
21	24	4
100	187	1
147	151	2
175	177	10
1	2	11
45	49	3
5	8	9
191	192	13
159	173	1
108	112	3
99	186	1
168	172	1
142	143	16
102	175	3
7	65	1
162	164	7
140	141	4
81	97	1
125	185	1
115	195	1
123	123	22
149	159	2
8	27	5
64	75	5
3	8	1
35	37	1
6	163	5
5	7	15
151	178	1
174	178	4
143	152	5
22	26	3
37	57	5
119	135	4
45	72	2
118	165	1
23	24	12
81	151	1
165	166	26
172	173	12
44	72	2
74	75	13
134	135	18
137	138	7
8	10	1
11	13	7
121	138	2
151	164	2
55	94	3
151	160	4
123	124	14
62	62	10
98	118	2
71	72	5
55	56	5
28	30	3
66	66	4
58	65	3
23	27	1
32	33	14
102	103	11
152	170	3
88	98	3
96	97	8
154	156	7
170	176	2
153	155	4
135	137	15
160	170	5
151	158	2
135	142	4
12	12	27
17	25	4
181	193	5
85	96	4
120	154	2
108	117	4
167	177	4
4	7	3
56	57	13
174	177	5
130	143	5
143	171	2
67	77	1
161	165	4
124	192	3
69	77	1
67	68	17
146	148	15
64	64	8
10	14	3
39	54	3
118	163	2
152	174	3
21	66	2
18	21	3
59	73	5
60	61	5
97	119	4
53	58	3
165	191	3
66	67	7
105	105	25
179	189	5
139	143	6
172	180	5
33	34	3
160	162	5
177	181	1
174	175	11
111	113	4
52	53	6
76	79	3
147	150	2
161	164	7
144	146	2
114	115	13
147	148	10
108	109	8
82	85	4
171	185	3
16	34	3
183	192	1
22	23	4
45	185	2
123	126	3
118	152	2
13	40	1
134	148	1
176	181	2
3	6	7
97	98	9
175	183	3
184	188	4
66	69	3
155	158	2
59	62	9
121	127	7
172	177	3
166	169	3
103	108	3
191	195	1
74	78	4
146	150	5
58	58	16
157	158	16
172	178	3
89	90	5
99	103	3
162	163	14
129	130	4
183	185	3
116	118	8
145	156	3
43	136	3
132	150	1
17	19	4
160	185	3
140	146	4
143	159	7
118	135	1
133	137	3
17	30	2
25	29	3
33	171	1
117	149	1
94	96	9
46	128	2
69	70	6
158	161	1
43	47	4
163	165	2
116	130	4
45	46	13
146	171	1
187	189	10
58	120	6
145	155	1
172	193	7
111	180	1
120	164	1
158	189	2
99	106	3
169	170	22
114	141	1
115	116	17
183	191	5
78	80	3
65	65	11
162	168	4
86	152	2
171	177	1
178	184	2
84	152	3
110	129	4
145	146	15
160	175	1
186	193	4
93	96	3
132	134	2
32	40	3
189	191	4
76	83	3
94	117	1
183	194	2
159	193	1
136	139	10
118	121	1
4	6	4
13	14	4
58	69	5
24	25	6
115	120	1
119	131	1
138	141	2
52	55	3
113	130	1
79	80	10
187	193	1
119	121	2
12	14	2
143	151	1
9	137	1
179	184	2
195	197	3
78	78	10
148	154	3
85	88	1
143	160	6
73	74	5
46	72	3
14	39	1
152	179	1
133	151	1
113	115	6
68	74	2
2	4	8
68	152	3
75	132	4
2	5	3
30	32	6
8	29	1
83	85	3
172	190	1
15	31	1
123	191	1
141	145	1
160	190	1
13	38	1
110	142	1
111	167	1
15	32	4
77	77	8
42	44	3
109	112	1
0	6	1
133	147	4
169	175	1
112	118	1
121	133	1
171	173	1
141	151	1
178	180	5
186	197	3
117	130	1
32	39	2
151	155	2
64	66	2
31	32	13
11	17	1
137	139	5
58	63	3
54	56	9
115	117	4
11	42	1
152	154	1
82	84	5
37	58	2
133	152	2
123	127	5
150	154	3
106	108	3
117	162	1
193	194	2
45	47	3
21	23	4
127	128	9
55	58	2
187	191	4
125	127	2
156	182	4
122	191	2
144	165	1
190	194	1
120	125	1
173	176	1
158	162	2
38	113	1
36	58	2
147	153	3
124	150	2
24	40	1
160	163	1
21	30	1
116	120	2
55	65	2
140	143	5
66	71	2
112	113	6
103	105	1
188	190	5
139	144	4
111	115	5
175	190	1
156	180	1
159	179	1
11	39	1
21	53	1
95	99	2
100	106	1
134	140	1
17	24	1
182	193	1
163	188	2
118	129	1
22	79	4
15	18	1
48	50	2
180	182	2
117	139	3
133	155	2
142	152	1
39	43	1
175	180	2
189	194	2
187	190	2
30	34	4
25	187	1
177	187	1
20	22	6
27	30	2
150	182	1
15	38	3
183	197	2
57	172	1
159	165	2
131	142	2
61	62	2
82	174	1
169	184	2
69	71	1
135	143	1
164	166	1
16	31	1
39	60	1
0	4	4
101	139	1
131	158	1
158	171	1
90	120	1
98	119	2
126	191	1
72	83	2
42	51	6
120	193	1
22	74	4
3	166	2
152	184	2
185	197	1
46	52	1
1	3	2
146	157	1
3	5	4
62	79	3
123	141	1
75	75	7
172	188	1
104	161	1
150	152	4
18	22	2
56	73	3
20	25	1
126	128	5
147	171	6
130	157	2
148	153	4
99	142	2
57	73	1
171	174	2
68	130	1
119	132	3
75	90	1
130	145	2
28	34	3
172	189	2
96	98	1
108	116	1
78	81	3
101	107	1
65	73	2
29	167	3
59	75	1
16	33	5
6	8	2
8	69	3
146	151	1
74	134	2
59	74	3
7	8	2
120	149	5
36	119	1
171	183	7
100	159	1
153	177	1
7	21	1
41	49	6
81	83	2
118	130	3
30	58	2
65	139	1
34	41	3
147	149	1
180	192	1
99	138	4
150	180	3
174	176	2
184	192	1
153	169	1
57	121	1
186	189	1
7	38	1
21	27	2
155	165	7
163	166	5
135	139	4
65	66	4
168	171	1
63	66	3
160	169	2
150	156	3
103	107	1
38	58	3
145	188	2
109	111	2
156	183	5
171	176	1
3	7	5
62	149	1
81	82	2
168	184	1
1	7	3
34	38	2
167	170	4
128	135	2
109	117	2
163	167	6
7	19	1
162	185	1
18	24	2
12	13	1
115	118	1
123	125	1
157	192	1
62	72	1
20	85	3
180	193	1
2	19	1
149	157	1
1	5	2
28	81	1
117	120	2
151	184	1
24	26	4
32	43	2
98	143	1
67	74	1
9	45	1
68	73	2
144	151	1
154	171	2
29	169	1
44	50	1
136	138	2
126	186	1
173	183	1
143	147	2
67	69	2
89	108	2
150	159	1
153	165	2
25	189	1
162	170	2
67	72	1
170	182	1
19	35	1
7	20	1
182	192	3
136	160	3
35	130	2
10	38	1
23	56	2
24	27	1
61	86	1
20	53	2
112	116	1
4	133	1
38	41	1
155	166	2
103	111	2
16	30	1
72	102	1
126	168	2
143	168	1
33	42	3
73	75	5
148	155	3
54	58	1
127	133	2
60	64	1
133	139	1
165	176	2
84	151	1
153	158	2
23	170	1
21	56	1
83	87	1
152	159	1
5	166	1
175	179	2
61	65	1
39	44	1
132	155	1
138	140	1
110	112	1
23	32	1
118	162	1
154	160	3
114	116	1
116	119	2
8	22	3
17	35	1
108	143	3
149	152	3
104	108	1
73	132	2
134	137	4
18	20	1
118	157	1
9	43	1
153	172	1
184	189	2
179	181	1
166	177	1
169	171	1
119	150	1
119	152	1
57	134	1
152	172	1
44	47	1
0	28	3
97	117	1
85	89	2
87	94	1
21	152	3
28	80	1
21	29	2
35	119	3
120	162	1
117	152	1
123	130	2
155	180	1
159	162	2
24	74	1
107	117	1
131	143	1
83	152	1
3	184	1
27	39	1
115	122	3
99	160	1
131	157	2
93	115	1
174	181	2
29	32	1
0	21	1
76	78	1
1	6	2
8	44	2
121	192	2
10	30	1
67	134	1
99	101	3
32	44	1
20	23	1
80	83	1
164	179	1
96	114	2
157	170	2
157	180	2
167	174	1
121	189	1
50	53	1
21	36	1
46	127	1
9	39	1
24	41	1
0	20	1
172	181	1
8	9	1
20	54	1
58	73	1
122	128	1
14	16	2
5	133	1
163	170	2
160	172	1
2	7	1
144	158	1
13	15	1
109	154	1
12	32	1
145	171	2
130	133	1
57	133	1
59	61	2
25	77	1
110	154	1
56	133	1
129	157	1
104	178	2
9	31	1
99	182	1
101	106	1
33	35	1
31	35	1
22	27	2
186	190	1
87	152	1
0	19	1
146	172	1
11	40	1
171	195	1
19	21	1
124	185	1
102	105	2
161	188	1
84	85	2
118	133	2
124	126	1
11	43	1
158	176	1
4	27	1
115	154	1
194	197	1
145	147	1
153	157	1
142	157	1
83	95	2
59	84	2
32	34	1
157	161	1
97	113	1
158	174	1
73	130	1
177	179	2
20	62	2
180	183	1
164	170	1
160	164	1
47	50	1
151	162	1
120	123	1
1	21	1
39	183	1
27	80	1
51	63	1
162	167	1
107	142	1
185	188	1
137	145	1
108	110	1
161	171	1
50	52	1
7	43	1
183	188	1
45	51	1
