49	49	7
72	72	2
185	186	10
212	230	6
212	222	1
108	108	3
175	177	4
200	200	13
198	198	7
194	195	3
72	93	4
105	106	3
215	215	9
247	247	8
101	101	15
47	100	2
152	152	3
152	178	2
167	168	6
57	58	3
165	165	13
82	82	7
225	225	13
242	242	19
87	101	4
67	67	5
202	204	4
203	203	7
193	193	9
83	84	6
97	98	6
84	101	2
205	205	10
85	85	5
195	196	2
73	73	9
156	156	7
44	44	5
4	4	12
184	211	5
185	185	4
4	92	2
109	109	8
95	95	17
19	19	9
117	117	8
171	171	9
55	55	8
17	41	1
169	181	2
80	107	6
233	233	10
209	209	11
6	6	7
110	110	15
107	107	23
31	35	1
205	208	3
154	168	5
178	178	8
197	197	17
43	76	2
167	167	5
119	227	1
184	186	2
150	150	15
192	194	2
245	246	11
234	248	2
163	164	3
30	46	4
29	30	7
96	96	7
58	58	10
236	236	13
169	170	2
219	219	11
27	27	2
216	216	15
55	56	2
45	46	3
47	47	10
90	91	6
23	23	16
72	74	1
79	112	2
196	209	1
116	221	4
243	243	8
238	239	5
104	104	2
187	187	15
189	191	3
5	5	2
210	211	2
169	171	6
151	159	1
197	199	3
238	248	4
202	203	1
189	189	17
237	237	14
51	51	9
14	166	1
248	248	5
184	185	2
52	53	4
221	221	6
245	245	14
175	178	2
223	223	5
116	207	3
195	195	12
66	114	3
157	181	5
52	52	8
170	177	2
9	9	5
232	237	4
173	180	3
181	181	17
63	118	4
42	94	2
196	197	3
18	197	1
68	70	4
189	198	4
75	75	6
240	240	18
163	165	9
40	40	11
231	231	7
69	70	10
77	85	1
14	14	13
103	103	6
116	116	7
168	168	7
88	104	4
183	183	6
164	184	2
92	93	3
224	224	15
177	210	1
97	97	15
69	69	9
235	236	5
229	230	4
169	193	3
114	115	2
23	24	2
102	102	7
189	190	2
51	52	1
201	201	21
61	62	8
160	160	4
100	101	1
112	247	3
104	107	4
174	174	4
213	228	3
185	187	2
64	72	2
241	241	9
56	56	9
94	95	5
71	72	5
215	217	3
34	35	2
84	93	1
38	210	2
198	247	1
191	200	3
26	26	4
220	220	7
76	76	8
237	245	1
59	59	8
118	118	10
151	151	8
220	241	4
75	114	4
7	7	5
239	240	3
243	244	4
238	238	13
84	103	3
229	229	9
187	188	3
218	219	4
192	192	4
89	89	6
170	170	13
166	166	4
191	196	2
34	74	1
213	213	9
94	94	2
113	113	9
60	61	2
79	81	5
74	74	1
66	66	12
196	196	9
167	171	4
202	236	2
79	79	6
112	112	4
204	204	13
32	32	8
208	208	3
29	35	3
54	54	3
29	29	5
102	103	6
177	177	5
88	89	4
4	147	3
77	77	15
149	149	2
70	226	5
35	43	2
37	81	3
240	241	3
172	173	18
98	98	3
154	165	2
108	245	1
58	59	3
42	119	5
213	214	3
111	111	11
40	119	6
232	232	10
76	77	2
188	189	3
175	175	11
155	156	3
197	198	4
231	235	3
48	49	5
81	81	3
78	91	3
101	102	4
84	84	8
118	120	1
246	246	16
239	239	5
15	42	1
46	46	8
88	90	3
217	217	9
85	92	6
157	202	1
205	207	3
39	40	4
214	215	2
61	61	8
190	190	6
204	205	6
80	80	4
30	30	3
182	235	4
85	86	2
35	35	12
63	63	3
38	39	3
211	212	3
88	88	8
184	210	1
178	179	2
244	244	11
101	108	6
175	176	5
157	182	1
169	169	2
86	86	6
87	98	1
30	110	6
62	100	3
223	226	1
14	31	1
193	195	2
191	191	8
145	158	3
179	183	1
179	180	5
178	182	5
53	205	1
22	23	2
92	92	7
105	105	3
73	74	4
182	182	5
93	96	4
31	33	1
57	72	1
58	72	2
39	39	5
19	20	1
43	43	14
212	212	4
21	21	6
106	106	3
57	57	2
228	229	6
25	25	6
38	38	7
12	18	3
53	64	3
15	30	2
79	143	1
121	121	3
147	167	1
81	101	2
153	153	10
21	26	2
37	37	13
22	145	2
214	214	8
2	2	3
16	17	4
45	45	7
15	32	1
152	164	1
100	100	10
240	242	3
91	91	5
176	176	7
115	118	3
60	62	1
157	157	2
15	15	1
56	57	3
10	10	5
68	68	10
63	166	3
82	84	1
207	211	3
84	100	2
33	33	7
88	97	1
20	20	5
48	57	1
42	104	1
162	162	7
232	234	2
70	70	2
48	59	1
36	36	5
208	218	5
1	1	3
186	186	6
160	186	2
210	210	3
11	11	8
155	159	3
77	78	1
68	69	4
153	195	2
83	111	1
240	244	2
170	171	6
54	57	3
80	218	1
199	199	7
153	161	2
85	117	4
242	244	5
162	164	1
215	223	2
60	77	3
17	69	1
176	223	1
230	231	3
238	240	1
216	217	3
189	193	2
230	230	11
170	224	2
36	41	1
207	212	2
179	234	2
227	229	2
228	228	6
202	228	1
161	161	7
17	196	2
63	64	4
71	71	4
195	245	2
64	64	11
179	179	5
113	115	1
190	191	2
41	41	1
57	71	2
94	102	2
59	71	5
205	222	3
61	63	2
112	116	4
164	164	5
41	67	5
171	180	2
247	248	2
20	57	2
211	211	2
70	118	1
87	87	5
41	94	1
166	179	5
156	202	1
39	97	2
57	78	2
193	194	2
155	155	6
21	156	2
157	184	3
41	65	7
68	71	2
165	176	4
31	31	1
172	176	3
79	219	1
174	210	1
173	176	1
168	194	3
191	194	1
173	173	6
226	228	2
59	60	3
162	182	1
207	207	6
227	227	1
107	108	1
231	236	1
50	50	4
233	235	2
234	235	1
79	80	1
192	193	1
188	193	2
160	210	2
118	119	2
182	215	1
42	42	1
105	111	1
232	248	1
95	96	1
33	72	1
185	188	3
144	144	1
208	209	1
243	245	3
168	174	3
15	17	2
248	249	1
12	15	1
202	231	2
45	213	1
30	109	6
165	171	3
198	248	5
183	248	1
180	180	4
111	112	1
114	114	1
169	205	1
111	242	1
51	58	1
42	95	1
191	192	2
17	17	1
14	72	1
67	111	2
149	150	1
177	218	1
9	27	1
44	217	1
234	234	2
226	226	3
196	246	1
37	118	2
51	56	1
115	116	1
72	73	1
62	62	6
8	8	3
44	45	3
65	65	3
190	247	1
55	226	1
98	99	3
113	121	1
158	160	1
174	211	2
70	112	3
84	97	1
78	80	1
16	16	2
235	235	2
62	78	2
186	188	5
91	107	1
222	222	2
48	50	4
187	190	2
37	82	1
176	229	1
53	53	2
154	154	3
93	94	4
197	240	1
55	57	2
40	67	4
213	217	1
166	175	3
85	105	1
77	92	3
47	60	2
112	237	1
61	64	1
9	10	1
176	214	2
112	245	2
6	10	2
166	181	2
96	97	1
171	172	2
93	93	1
115	115	2
81	84	1
49	98	1
119	119	1
163	213	1
158	158	1
209	214	1
165	168	1
199	200	1
234	237	2
167	200	2
232	233	2
198	246	1
12	12	1
114	247	1
225	245	1
49	57	1
3	94	1
88	98	2
43	51	1
2	5	1
14	18	2
188	198	3
208	211	1
151	152	2
164	165	2
49	50	4
185	193	2
80	81	5
11	22	2
220	221	2
99	99	2
36	219	2
171	205	2
89	90	1
165	166	2
63	70	1
180	203	1
182	183	2
90	102	1
200	201	1
83	105	1
82	83	1
111	245	1
67	114	1
67	68	1
175	203	1
188	188	2
96	98	1
85	93	1
17	18	1
3	3	1
20	48	1
183	221	1
184	248	1
153	185	1
238	242	1
179	181	1
5	145	1
77	80	1
34	226	1
168	169	1
78	78	1
64	66	2
232	235	1
202	202	1
30	31	2
249	249	1
109	110	1
15	35	1
47	48	1
157	158	1
176	177	1
4	14	1
87	88	1
87	89	1
68	75	1
234	247	1
83	83	1
231	238	1
86	107	1
93	105	1
212	231	1
66	67	1
157	159	1
104	111	1
165	175	1
110	113	1
90	90	1
34	34	1
75	103	1
211	218	1
33	226	1
24	24	1
186	198	1
6	29	1
59	62	1
164	213	1
