32	32	12
22	22	2
22	26	3
10	11	4
115	115	2
120	123	1
122	122	19
100	100	4
108	108	11
37	37	3
120	120	17
79	79	9
4	4	4
135	135	5
117	117	5
72	138	1
29	31	5
103	108	1
71	71	2
101	101	11
81	85	2
21	21	9
137	138	2
118	137	2
81	82	5
72	72	4
99	100	2
1	13	3
123	123	6
13	14	5
136	136	20
78	78	3
127	128	1
15	38	1
81	117	6
109	109	7
114	114	6
7	7	3
94	94	3
108	114	5
90	90	14
121	122	3
83	125	5
127	127	12
87	94	2
134	134	8
111	112	11
112	112	4
27	27	4
92	92	5
76	76	7
130	130	15
91	92	6
139	140	2
128	129	2
126	126	15
11	12	2
72	126	3
108	109	2
84	84	4
86	86	11
80	84	4
36	95	5
91	91	4
138	140	3
118	118	12
2	2	3
137	137	14
112	119	2
98	98	1
120	121	4
128	128	9
6	16	5
14	16	1
124	124	7
95	95	5
129	130	5
75	76	3
129	129	8
88	88	12
20	20	7
113	113	9
140	140	8
34	34	13
106	106	6
121	121	8
16	17	3
111	111	6
72	125	3
115	116	3
109	114	5
16	16	4
89	89	11
104	104	11
104	106	2
76	77	1
125	125	9
110	110	4
31	32	7
8	8	4
12	14	2
30	120	1
107	107	5
110	111	8
30	30	3
71	72	7
32	100	3
112	124	6
131	132	4
126	127	1
136	137	4
14	127	2
139	139	6
113	115	2
105	105	7
20	126	2
119	120	1
96	124	5
24	24	3
0	0	4
107	110	4
82	82	2
103	103	3
96	98	2
28	29	3
132	132	5
35	35	3
103	114	5
27	31	1
120	122	3
84	85	4
131	131	4
15	15	3
93	93	3
30	31	2
12	12	5
3	3	4
118	119	2
5	37	2
6	6	3
85	119	5
13	86	2
110	112	2
19	21	4
11	11	3
116	121	1
107	108	1
77	78	1
81	81	6
116	116	8
127	131	1
119	123	1
17	18	3
29	29	4
80	94	5
92	94	3
119	119	2
37	38	3
4	9	3
5	5	5
97	97	5
1	1	1
18	18	2
2	3	3
36	36	5
133	133	6
18	124	4
102	110	3
138	138	7
7	12	2
3	14	1
10	10	5
130	131	1
134	135	4
87	87	5
103	110	2
113	122	1
1	27	1
97	98	2
74	74	3
22	119	1
100	102	2
114	118	2
4	5	3
33	33	1
0	2	2
29	30	1
132	133	2
9	9	2
8	9	3
27	28	1
2	14	1
68	118	1
74	75	1
80	103	1
102	102	2
79	117	2
3	10	1
96	96	1
20	106	2
93	113	1
36	88	1
1	3	1
116	117	1
16	28	1
123	137	2
80	80	1
86	88	1
85	105	1
25	27	2
80	82	1
28	30	1
138	139	1
104	107	1
20	27	3
20	21	1
21	26	1
80	85	2
74	76	2
78	81	1
36	125	1
22	23	1
10	12	1
17	19	1
115	117	2
25	25	1
20	25	1
75	77	1
3	4	1
77	77	1
135	136	1
26	26	1
85	85	1
