136	137	3
109	109	8
133	134	2
67	67	14
94	94	7
131	131	10
23	23	4
98	98	4
121	124	5
106	106	17
22	22	10
118	124	1
121	121	12
41	41	13
81	82	2
79	112	3
137	137	8
126	126	5
108	108	6
29	29	7
116	116	8
38	38	15
72	72	14
91	91	9
34	34	8
2	2	9
112	112	4
110	110	8
135	138	8
36	36	9
26	68	3
10	18	1
141	141	15
60	60	12
93	93	12
55	74	1
100	101	4
92	104	2
84	85	3
75	75	9
49	50	3
34	40	2
8	8	13
140	140	7
124	124	8
42	42	9
110	130	4
127	128	6
96	107	3
30	30	12
42	60	2
66	66	3
123	132	5
79	79	2
97	98	3
68	68	4
128	128	14
140	141	2
31	32	3
117	117	19
18	20	2
95	104	2
13	13	5
61	61	7
77	103	4
102	102	8
40	40	11
82	82	6
20	20	8
14	14	6
119	119	8
119	120	6
102	105	2
79	80	8
138	139	9
116	117	3
33	33	8
134	135	8
67	85	2
53	53	8
80	110	2
10	10	4
43	56	4
76	102	1
57	58	5
35	35	6
39	39	14
62	112	1
136	136	10
9	9	9
57	57	9
103	103	3
88	88	5
53	54	1
24	24	19
73	74	3
63	63	2
4	121	1
13	16	3
96	96	3
43	43	3
92	126	2
96	98	1
123	123	12
74	74	7
6	6	7
114	116	1
139	140	7
87	87	6
146	146	3
118	130	3
35	40	2
84	84	13
4	12	1
125	125	23
28	40	3
101	101	8
19	19	11
69	69	6
16	16	10
93	107	3
131	145	3
127	127	18
109	110	4
135	135	8
122	123	6
16	17	3
54	54	12
62	62	2
79	81	5
104	105	7
3	3	10
132	132	7
93	94	6
18	18	11
88	98	1
56	59	9
80	82	1
143	143	4
5	5	16
133	133	11
68	69	9
50	50	7
106	107	5
73	73	12
32	73	2
58	59	3
81	81	11
56	60	8
134	134	8
50	55	1
105	105	6
59	61	3
30	32	4
85	85	2
104	104	6
59	59	3
129	130	8
105	128	3
11	22	3
107	107	6
37	41	5
120	120	11
23	24	3
50	54	1
77	77	9
84	98	2
97	105	1
36	41	3
87	89	4
80	80	6
99	99	9
8	9	3
94	111	2
86	86	3
139	139	9
95	95	4
113	114	4
98	107	3
12	14	1
27	29	2
110	118	1
13	66	3
0	35	3
31	31	4
71	75	2
110	120	1
65	65	9
85	104	3
25	25	13
15	15	5
63	117	4
6	19	2
1	1	9
103	104	4
32	32	5
129	129	6
138	138	6
114	114	10
34	35	5
36	37	3
110	111	1
53	68	1
115	115	7
82	103	2
83	83	4
6	10	3
68	100	1
124	125	2
54	101	3
130	130	11
111	112	9
27	27	6
82	97	6
8	11	5
99	103	1
114	115	1
67	71	2
52	52	5
31	92	2
58	79	2
67	73	4
114	117	5
138	140	6
27	28	2
90	90	2
92	129	6
19	20	2
40	41	3
96	97	5
14	16	8
118	123	1
126	127	6
49	49	7
34	36	1
76	76	4
123	124	3
47	64	3
102	103	1
34	66	3
78	78	4
137	139	1
28	28	11
62	64	3
105	106	1
62	63	9
118	119	3
91	104	2
51	52	2
127	129	5
56	56	7
144	144	2
4	5	9
93	95	1
143	144	1
113	113	4
123	138	1
11	20	2
127	130	1
64	65	2
121	122	1
118	138	1
133	135	1
10	11	2
73	92	2
55	55	2
131	132	1
65	66	3
80	84	1
70	70	4
2	3	1
55	56	2
82	98	2
31	33	2
89	89	2
0	0	6
77	84	1
122	133	2
100	100	8
117	127	2
26	26	7
74	75	3
86	104	1
55	68	1
118	120	2
92	130	2
95	107	3
35	70	3
132	133	1
125	127	2
70	71	1
111	138	1
2	5	4
77	104	3
4	120	5
47	47	7
133	139	3
57	62	1
136	139	5
17	17	1
75	115	2
83	85	1
113	115	4
122	122	6
130	131	2
48	48	4
131	133	4
92	93	3
58	58	7
27	67	1
80	81	2
131	135	1
26	27	6
57	60	3
71	71	5
52	53	1
99	100	3
51	51	2
42	67	1
107	108	2
14	15	5
83	104	1
117	118	4
135	137	3
121	123	3
80	104	1
12	12	1
115	116	1
120	124	2
4	4	4
80	86	2
64	104	1
119	130	2
19	119	4
87	88	4
60	61	1
31	70	1
32	75	2
64	79	2
97	97	5
94	95	3
54	74	2
66	67	4
94	107	1
116	132	1
133	140	4
126	131	4
29	38	1
74	115	3
14	62	1
59	62	4
145	145	9
101	102	1
51	56	2
142	142	4
49	66	1
115	118	2
118	118	3
22	23	1
35	36	3
2	11	1
78	132	1
13	14	2
33	66	2
0	70	2
62	66	2
89	105	1
73	75	3
62	65	3
59	81	2
67	68	2
58	81	4
48	57	1
64	64	1
53	60	2
109	132	3
133	137	1
135	139	1
12	13	2
1	36	1
136	138	2
91	92	1
72	73	1
53	57	3
27	71	1
0	38	3
97	106	2
42	66	2
128	129	2
58	106	2
96	99	1
132	139	1
81	109	1
128	130	3
68	103	1
34	37	2
21	21	3
87	90	1
77	82	1
77	78	3
69	78	1
43	65	1
73	76	1
81	106	1
3	4	3
112	133	4
69	70	2
11	11	3
127	133	1
104	133	1
77	83	1
33	46	2
32	94	3
116	123	1
120	125	1
31	75	2
108	137	1
89	90	2
37	37	3
25	124	2
90	91	1
124	131	2
92	92	2
76	77	1
121	132	1
144	145	1
4	13	1
112	127	1
100	146	1
97	99	1
120	121	2
84	103	2
110	121	1
20	21	1
55	69	1
85	86	1
1	6	1
111	111	1
118	122	1
22	118	1
52	56	1
30	31	1
54	69	1
84	96	1
76	133	1
56	57	1
57	59	1
49	55	1
79	104	1
8	10	1
112	114	1
79	82	1
