99	100	2
27	28	4
151	153	2
125	138	5
114	129	3
16	16	6
117	117	3
130	130	3
58	58	1
106	119	7
42	73	3
97	98	6
120	136	1
97	97	2
41	41	8
78	78	2
29	29	6
33	33	1
35	36	7
102	102	4
139	142	2
6	57	4
27	31	4
53	53	7
124	125	2
99	99	2
113	113	8
139	139	4
151	151	5
48	48	3
157	157	1
90	90	4
164	165	2
60	71	2
38	38	6
137	137	4
120	120	4
168	180	2
21	25	1
114	115	1
28	28	2
159	159	1
155	155	2
146	149	2
112	112	1
54	54	1
14	23	2
57	74	2
101	101	4
95	96	3
75	76	1
140	140	4
25	37	1
42	48	2
21	68	1
98	98	5
109	109	6
149	168	1
15	15	4
12	83	4
14	24	3
26	26	1
119	119	1
39	39	1
123	142	6
11	12	1
153	153	3
154	154	1
129	129	5
109	133	1
45	46	1
93	93	1
131	145	1
90	91	2
92	111	2
94	94	10
149	149	5
144	144	2
138	154	3
165	165	4
32	35	4
44	73	1
161	161	4
32	37	2
19	19	1
1	1	2
178	182	3
13	13	1
46	46	8
59	59	4
111	111	5
72	74	1
117	118	2
188	188	2
106	108	1
44	46	2
7	7	2
59	61	1
5	42	3
13	14	4
123	140	1
117	136	1
46	48	1
23	24	2
115	116	4
29	44	2
96	98	1
55	55	2
17	18	5
24	59	2
109	145	2
116	116	1
25	38	1
17	17	2
173	173	1
127	127	2
17	36	1
56	56	2
110	110	1
124	124	2
138	138	1
143	143	2
7	42	2
43	44	1
121	136	1
187	188	1
89	89	2
118	118	1
189	190	5
25	59	1
97	100	2
18	18	3
119	153	1
19	27	1
177	178	4
25	26	1
87	87	2
146	146	1
33	87	3
61	61	2
140	141	2
33	36	2
66	66	2
166	166	1
19	37	2
30	30	1
105	155	1
162	162	1
40	40	1
132	133	1
129	143	3
45	45	2
72	72	2
31	32	1
147	154	1
156	159	3
147	147	1
11	11	1
71	71	1
112	113	1
134	134	1
132	146	1
100	100	1
47	62	2
6	6	1
93	94	1
43	48	1
29	30	1
164	166	3
64	64	1
17	83	1
29	32	1
112	147	1
10	21	1
152	152	1
170	170	2
10	12	1
190	190	1
116	117	1
84	84	1
133	134	1
77	77	1
132	132	1
169	169	1
