177	177	13
182	183	2
13	13	4
16	44	3
75	151	1
107	107	4
85	183	1
122	123	7
152	152	9
143	144	2
129	130	1
63	99	3
106	106	3
146	161	3
29	29	2
34	34	3
14	15	5
101	102	1
58	58	8
101	101	5
142	143	5
33	33	8
74	188	4
179	180	1
87	87	8
163	164	2
148	151	4
98	98	8
30	33	2
52	52	7
26	37	2
139	139	1
54	54	1
121	122	2
80	80	7
17	79	6
97	97	2
65	67	2
87	88	7
161	161	2
15	16	3
86	86	7
138	139	3
60	60	3
94	115	2
72	72	8
45	79	1
11	109	2
108	108	8
21	21	3
56	56	2
119	120	1
25	109	1
45	46	2
127	127	4
117	117	6
130	132	2
88	88	7
143	143	3
136	136	6
32	32	5
110	110	7
67	67	15
46	95	2
81	133	1
81	146	2
38	38	11
183	183	3
13	115	1
30	32	5
91	91	6
9	9	4
134	134	5
103	103	1
133	163	2
96	97	4
39	41	3
135	138	2
98	155	1
78	79	4
131	131	6
186	186	3
140	141	4
165	165	2
32	35	3
172	178	1
107	108	4
72	73	6
156	158	5
157	157	3
14	14	4
84	86	3
84	88	2
91	132	2
112	117	3
55	75	5
135	135	2
94	101	2
95	113	1
28	28	12
26	101	4
11	11	2
90	92	4
169	169	5
85	92	10
61	65	3
172	172	5
120	120	4
75	78	3
71	71	2
56	153	3
78	78	5
45	45	5
153	153	4
48	48	3
119	139	2
45	83	1
19	19	2
97	98	7
123	123	9
41	41	2
114	115	3
113	113	7
17	22	5
24	24	3
86	87	5
21	22	3
114	114	6
85	85	9
78	83	2
39	39	2
19	20	1
131	163	5
20	21	1
94	94	1
178	179	1
96	98	4
2	2	6
79	148	2
66	155	1
111	112	7
155	163	2
15	109	2
56	170	1
163	163	3
52	53	2
92	93	3
178	180	3
31	32	2
135	137	6
113	157	1
62	100	3
123	124	6
88	123	2
93	148	2
79	79	4
157	162	7
72	113	3
81	81	3
27	27	5
64	64	3
160	189	3
104	105	2
185	185	7
184	184	2
78	82	4
151	152	5
69	75	1
62	63	5
36	37	1
96	96	4
90	90	9
0	8	4
78	142	1
59	60	3
54	94	1
124	126	2
22	81	1
83	83	1
175	175	2
129	129	7
120	122	2
158	158	2
55	56	12
56	75	2
55	57	2
22	22	2
100	154	2
131	145	2
170	170	2
71	146	4
150	150	3
67	68	4
180	180	4
75	75	3
82	83	2
76	76	3
146	160	1
47	47	6
110	111	5
146	147	1
20	20	1
93	93	1
30	30	2
27	28	7
53	53	2
27	44	3
59	59	1
91	93	7
74	145	1
43	43	4
91	134	1
112	156	2
115	116	1
0	0	1
44	47	1
125	125	6
106	162	1
10	10	2
8	8	1
126	129	2
74	74	8
20	22	2
149	149	2
125	127	1
37	37	5
17	17	4
46	46	4
85	93	3
17	18	3
98	99	5
104	121	2
118	118	3
116	149	2
73	73	1
121	121	6
95	95	1
119	119	2
148	149	4
185	187	3
18	18	2
170	189	4
115	115	2
16	16	2
53	56	1
70	71	1
130	131	4
166	167	2
100	100	2
68	110	6
24	101	1
61	62	1
162	162	1
123	138	2
93	94	4
138	138	4
34	35	1
160	161	1
99	155	4
108	129	1
48	65	2
101	103	3
59	63	4
74	95	2
60	117	1
42	43	2
120	125	2
81	116	2
164	164	2
26	26	4
162	180	2
140	140	4
32	34	2
129	139	1
79	81	4
60	64	1
6	83	3
156	161	2
154	156	2
105	118	5
52	109	2
162	173	2
166	166	6
73	100	2
55	79	3
68	68	1
124	124	1
64	65	2
37	44	1
9	10	1
32	33	3
73	146	3
145	145	1
147	166	1
57	58	2
131	162	2
88	143	1
117	118	1
121	134	1
112	118	2
157	158	1
128	128	1
13	78	1
105	105	2
134	135	2
156	156	2
156	162	1
26	42	1
31	33	1
42	94	2
69	69	1
144	144	3
7	7	2
33	35	1
142	163	2
60	118	1
137	161	1
35	35	1
63	103	1
71	154	1
47	57	1
116	116	1
23	36	1
58	59	1
4	4	1
150	161	1
77	77	2
48	76	2
162	171	2
42	42	1
68	99	1
55	76	2
47	79	1
137	138	1
174	181	2
57	57	1
146	146	1
56	79	1
124	127	1
25	25	1
132	133	1
34	36	1
98	100	2
128	129	2
12	13	1
106	122	1
148	148	1
63	63	1
111	111	1
81	137	1
