103	103	12
17	88	2
9	10	3
88	88	7
5	5	11
64	64	7
35	36	9
135	136	5
22	22	17
17	18	6
26	28	4
70	70	4
91	121	1
84	84	7
7	7	14
13	13	7
109	148	3
23	23	14
44	44	12
2	3	11
66	67	5
152	152	22
62	63	2
29	29	12
4	4	13
36	37	7
128	130	5
135	135	13
46	47	5
52	52	10
12	92	3
147	148	4
34	34	9
16	18	3
42	43	11
128	128	19
91	91	12
151	151	10
103	106	4
113	113	3
140	141	9
117	126	3
133	134	11
137	137	10
73	73	11
115	116	5
78	78	3
47	47	11
134	134	8
131	131	12
31	31	9
20	20	4
67	68	6
138	139	4
147	147	8
6	6	14
106	106	13
96	97	2
148	148	8
94	94	19
55	55	8
140	140	12
50	50	12
110	110	4
94	95	1
104	104	9
102	102	14
67	69	6
24	24	5
45	45	10
37	37	6
84	89	1
108	110	3
3	3	22
31	39	2
23	25	2
90	91	10
67	67	4
143	145	3
91	92	11
132	142	2
99	99	11
65	65	7
107	107	10
39	39	12
0	1	6
118	154	1
36	36	8
142	143	3
24	25	5
73	74	5
49	52	1
122	122	7
29	30	11
50	51	5
41	42	2
114	148	1
8	10	4
33	34	12
132	133	4
121	121	3
125	126	1
93	93	8
121	122	9
148	149	6
42	42	10
87	87	6
2	4	3
131	132	4
108	108	11
7	10	1
145	145	2
7	8	12
3	42	3
48	48	6
150	150	6
1	1	9
45	46	4
81	81	7
30	31	5
31	32	2
150	151	2
15	16	3
139	141	5
114	135	1
95	95	3
141	148	1
30	32	2
124	124	6
40	40	6
129	130	3
83	83	5
8	8	16
49	49	9
132	132	13
114	114	5
26	34	1
54	78	1
54	54	14
110	111	6
46	46	14
4	5	5
153	153	8
80	80	14
71	71	13
5	110	2
32	33	6
117	117	9
110	112	1
30	30	14
133	133	6
105	105	15
16	84	2
101	102	2
10	10	19
86	92	3
129	131	2
127	127	14
39	40	7
109	109	4
25	25	6
98	98	13
77	79	3
52	55	1
157	157	7
95	96	2
127	129	1
93	94	9
35	35	7
16	16	14
69	70	7
26	26	6
84	86	2
139	139	10
14	14	1
89	89	5
31	40	2
36	38	2
55	66	1
130	130	9
124	125	7
79	79	9
100	100	13
86	86	2
53	53	2
123	123	7
41	41	9
122	123	11
48	49	6
97	97	8
85	85	6
92	92	6
120	121	4
137	147	2
78	79	1
21	22	6
115	115	8
43	66	4
105	106	5
141	141	13
125	127	2
86	95	5
119	119	2
154	155	3
90	121	1
116	148	1
90	90	7
84	85	4
120	120	8
11	11	9
68	76	1
12	12	21
155	157	7
116	139	1
85	86	6
87	88	1
135	137	4
15	15	7
154	154	9
66	97	2
27	27	6
7	17	1
11	119	2
146	152	1
51	55	5
155	155	2
86	88	4
11	12	1
83	86	1
77	77	5
141	142	6
9	9	5
116	117	1
88	89	4
96	96	6
142	142	3
38	39	3
81	82	5
136	138	1
6	7	6
2	2	5
13	94	1
111	111	5
88	91	1
35	37	4
22	25	3
8	9	2
153	154	5
146	147	5
82	82	4
23	24	9
145	153	2
26	27	5
129	129	6
101	101	8
41	113	2
118	118	3
1	2	5
123	125	2
113	115	4
75	97	1
78	80	4
22	24	2
158	158	9
144	144	3
28	29	3
116	116	12
77	78	1
33	35	1
31	123	2
32	32	7
92	94	2
36	40	1
49	51	2
116	138	3
126	126	2
0	30	1
65	66	6
81	84	2
126	127	2
5	42	1
125	125	4
155	156	2
56	57	2
67	70	4
8	11	1
81	93	3
136	136	6
18	19	2
86	87	2
13	14	2
21	21	6
0	0	6
28	28	6
130	131	3
4	98	1
47	50	2
78	124	3
97	98	4
115	137	1
82	127	2
43	43	4
88	90	1
138	138	8
90	92	1
37	39	1
110	134	2
79	80	2
117	140	1
2	99	2
152	155	2
10	11	1
33	33	7
116	118	6
100	103	3
123	124	2
11	117	5
17	17	4
35	38	2
76	77	2
20	28	1
112	112	3
43	114	2
27	115	1
75	75	3
98	99	2
5	6	3
83	97	1
139	140	7
9	11	1
93	98	2
31	51	1
50	52	4
67	98	1
134	156	1
144	146	3
45	86	2
76	76	2
156	159	1
27	29	2
40	115	2
143	143	3
25	27	2
114	144	1
128	129	6
134	135	1
136	147	4
41	114	2
16	17	2
111	112	3
52	54	2
47	48	2
75	76	1
32	39	2
53	54	2
117	154	1
145	147	2
134	136	2
142	145	2
40	41	4
16	121	3
102	103	1
14	89	1
44	45	3
82	85	1
141	143	1
131	133	2
156	156	7
52	53	2
115	149	1
72	72	2
54	92	1
136	137	3
93	125	2
68	70	2
152	153	1
75	99	1
112	115	1
131	156	3
0	2	1
20	21	2
133	137	1
83	84	1
77	124	2
44	65	2
16	34	1
157	158	5
34	35	1
22	23	1
73	97	1
114	115	3
132	137	2
19	19	2
0	7	1
45	47	1
38	38	4
106	107	3
8	80	1
158	159	2
92	93	1
132	134	2
3	4	2
17	20	1
149	149	1
45	66	1
25	45	1
109	112	1
106	108	1
37	38	2
51	51	2
87	90	2
32	34	1
101	135	1
70	71	1
133	138	1
66	70	2
153	156	2
56	63	1
137	148	1
138	143	1
27	32	1
8	77	1
151	152	1
1	27	4
143	148	1
88	118	2
66	66	3
71	72	2
127	128	1
80	125	1
35	39	1
117	118	1
56	56	1
40	42	1
77	123	2
134	137	1
85	121	2
13	87	1
66	71	1
10	14	2
18	18	1
68	68	1
130	137	1
25	26	1
13	15	1
111	113	1
10	12	1
34	38	1
89	90	1
19	20	1
156	157	2
93	127	1
18	20	1
62	64	1
64	65	1
26	31	1
121	152	1
24	26	1
118	119	1
27	114	1
107	111	1
130	138	1
46	86	1
69	71	1
113	114	1
55	77	1
48	94	1
48	50	1
134	138	1
51	52	1
52	56	1
