126	126	7
45	47	3
91	91	3
75	75	11
40	41	1
1	1	17
24	43	4
98	99	9
69	69	12
62	62	8
104	118	3
127	128	5
24	74	6
94	94	10
99	101	2
47	47	10
124	125	6
119	120	2
31	40	2
21	25	3
38	39	7
103	124	6
71	71	14
51	51	13
10	10	6
26	26	3
22	23	4
25	25	5
27	27	5
79	104	3
55	55	3
88	88	11
32	45	2
16	18	5
19	24	1
100	100	3
67	72	3
27	30	2
0	0	14
110	110	2
123	123	1
8	8	7
108	111	2
31	31	7
15	40	1
22	76	9
22	22	9
23	38	5
130	132	4
97	98	3
43	44	4
1	3	6
72	108	7
133	133	5
68	68	10
70	71	3
91	92	6
29	48	2
18	26	3
119	119	11
58	58	7
63	63	4
44	44	9
28	28	11
126	128	4
42	56	1
66	66	12
57	57	9
32	32	4
18	18	2
131	131	6
90	90	6
109	110	2
20	50	2
13	13	16
122	122	10
101	101	17
79	80	1
74	76	5
124	130	10
65	67	5
113	121	1
78	78	11
127	129	4
83	88	3
108	108	8
39	39	11
96	96	14
24	25	2
111	111	1
48	48	13
65	65	1
118	119	4
89	89	2
113	114	9
85	85	13
114	114	3
53	53	8
114	128	4
108	115	2
85	96	1
115	115	3
55	59	1
12	33	3
8	18	6
82	82	4
116	117	5
118	118	11
65	68	1
72	75	1
31	51	5
96	97	2
48	49	2
116	116	16
130	130	8
102	124	5
12	12	2
14	14	7
132	132	4
108	109	2
121	122	7
83	83	2
17	17	2
33	33	4
84	86	3
92	92	1
103	103	5
3	3	8
12	27	2
22	24	2
87	87	8
30	30	6
100	129	2
71	93	2
58	59	7
84	84	14
47	48	3
52	53	3
52	52	8
45	46	2
80	106	1
23	40	6
58	62	4
51	122	1
102	103	1
112	112	5
107	113	2
49	49	12
4	4	9
43	43	5
21	22	2
46	47	9
106	107	8
56	58	5
41	41	4
76	76	8
15	15	13
54	54	12
40	40	3
120	130	4
6	6	6
55	56	3
125	128	4
120	120	9
19	19	3
109	115	1
126	129	2
90	95	2
70	70	8
16	16	5
38	41	1
79	83	2
119	128	3
106	113	3
102	102	3
19	26	5
91	93	1
81	81	8
11	11	8
106	106	3
93	93	9
2	2	8
13	15	3
23	23	5
25	26	8
129	130	5
107	107	5
95	96	3
71	72	2
24	24	6
7	43	1
98	101	2
10	13	3
42	43	5
117	117	4
86	100	4
12	32	1
81	82	2
29	29	3
63	86	1
73	74	8
99	129	5
94	95	6
18	43	1
57	118	2
50	50	12
87	88	3
11	27	1
75	97	3
98	100	6
60	60	5
113	116	2
111	114	1
67	68	2
25	40	3
7	19	2
9	42	1
124	129	3
78	79	3
77	77	3
2	5	3
82	85	3
6	19	3
60	64	2
84	85	2
113	117	2
42	42	11
20	20	6
95	95	1
107	129	3
89	90	4
7	9	2
66	115	1
88	130	1
124	124	4
32	43	3
105	105	3
31	46	2
83	86	1
46	48	3
61	62	4
83	84	1
86	130	2
57	63	2
59	59	3
127	127	2
14	18	1
21	40	1
61	61	2
121	121	5
125	125	6
97	128	1
5	63	2
66	82	6
88	89	1
56	56	8
103	119	2
65	66	3
59	60	5
15	16	4
81	85	2
73	73	6
17	41	3
128	128	3
18	21	1
26	31	1
126	127	2
93	94	1
63	67	2
104	116	4
115	116	2
63	64	2
71	75	2
9	10	1
129	129	3
34	39	1
99	126	4
65	94	1
84	91	1
64	64	4
131	132	2
106	109	5
18	19	2
11	24	2
114	115	3
0	1	2
11	12	2
64	106	2
4	5	3
68	72	1
118	129	1
74	74	4
99	100	2
105	108	1
86	86	2
77	90	1
31	45	3
44	88	1
10	11	1
53	57	2
97	126	3
71	97	1
109	109	5
5	5	3
66	73	5
86	87	3
71	74	3
11	14	1
74	75	3
123	124	1
117	128	2
57	86	1
113	113	3
49	50	1
126	130	1
97	97	3
67	67	3
110	111	3
104	104	2
63	106	2
8	59	1
13	14	2
20	26	2
79	110	1
29	59	1
131	133	1
98	98	3
72	107	1
19	20	3
80	81	2
11	33	1
45	95	1
65	76	4
29	30	3
108	116	2
73	76	1
103	108	1
100	125	1
108	113	1
18	25	1
72	72	1
11	30	1
34	55	1
97	99	1
124	131	1
95	112	2
48	122	1
124	133	2
67	112	2
80	80	2
95	125	1
55	63	1
12	13	1
119	127	1
25	27	1
10	26	1
18	23	1
64	89	1
45	45	1
