134	134	17
116	117	2
132	132	21
126	126	18
127	127	11
128	128	8
4	5	4
115	116	4
73	75	2
135	135	10
124	127	6
107	107	3
136	136	8
38	38	9
12	12	7
88	88	2
74	74	18
3	3	5
114	114	14
18	18	11
125	126	2
71	113	6
94	95	7
13	13	7
139	139	15
114	116	5
4	4	6
125	125	6
14	19	1
81	81	9
13	23	5
24	26	3
73	76	5
17	18	3
93	93	6
90	91	9
138	139	4
13	14	6
79	109	1
5	5	9
88	115	2
34	34	8
103	119	3
111	111	12
8	12	5
99	99	3
109	109	8
14	14	10
16	17	3
20	20	6
74	75	3
77	83	1
81	116	4
138	138	23
92	92	11
100	100	5
16	19	5
118	118	4
134	136	5
1	1	4
113	114	3
129	129	26
71	71	9
13	17	2
132	134	2
76	77	4
5	129	3
89	90	3
36	36	8
85	86	2
119	119	10
94	94	13
108	109	2
27	27	14
101	102	5
133	133	10
135	136	7
113	115	5
103	111	3
112	116	3
118	119	2
103	103	4
137	137	9
115	115	10
11	12	1
76	76	3
102	102	14
90	134	1
20	25	3
16	134	2
92	99	1
23	23	5
11	23	6
7	7	9
33	33	16
16	16	6
113	113	1
29	29	6
16	77	1
101	103	1
125	127	5
111	118	3
140	140	13
30	30	3
96	96	7
95	95	11
3	22	1
87	87	9
123	123	21
73	80	2
86	88	2
17	17	8
122	125	5
10	11	4
79	79	2
123	126	1
116	116	4
22	23	5
112	112	8
35	35	5
28	28	6
26	26	3
89	89	21
75	75	12
98	99	4
124	125	5
89	93	1
123	124	7
33	34	2
101	101	11
100	101	1
91	91	9
97	98	2
22	25	1
111	112	3
109	110	4
77	77	2
130	130	12
135	137	5
113	116	2
119	123	4
128	129	3
15	76	2
13	16	1
85	85	3
122	123	4
81	82	2
130	132	1
73	115	2
15	15	7
96	98	3
93	114	1
36	37	6
31	36	1
11	11	4
122	122	3
28	30	1
128	132	3
28	29	4
112	124	4
124	124	6
94	125	1
3	4	10
22	22	4
97	97	8
13	32	2
131	131	5
101	104	1
37	37	2
127	129	6
104	104	1
89	125	3
110	110	5
32	32	8
105	105	3
34	35	2
132	133	4
78	79	2
12	14	1
5	7	1
96	139	3
73	83	2
25	26	3
3	6	1
19	19	2
27	28	1
127	132	5
6	6	5
4	130	2
91	92	2
124	128	1
120	120	4
98	98	10
102	120	3
25	25	6
90	106	1
117	117	3
108	108	4
100	103	3
127	128	10
8	8	1
21	21	3
15	16	2
90	92	3
83	83	5
10	10	1
73	74	4
99	100	2
72	73	2
104	105	2
91	93	1
121	121	2
81	89	1
134	135	11
118	120	3
95	96	3
124	126	1
3	5	4
133	135	1
126	127	1
73	73	3
17	126	3
83	84	3
93	94	6
2	2	4
115	120	1
114	117	1
3	36	1
77	84	1
73	86	3
24	29	2
85	120	1
79	116	1
101	115	2
90	90	3
86	87	2
129	132	3
24	30	4
109	122	1
136	138	1
5	20	4
17	38	3
8	11	1
74	90	1
77	78	1
4	13	1
139	141	1
94	103	1
118	123	1
15	135	1
129	131	1
130	131	1
106	106	3
2	13	2
110	111	1
26	37	1
7	12	1
87	88	4
113	119	2
116	119	2
37	38	5
120	121	1
137	138	2
0	0	2
96	97	1
104	106	4
85	121	1
21	22	1
30	31	1
0	1	3
7	11	1
8	24	1
33	36	1
5	6	1
101	117	1
31	32	1
82	82	3
2	12	1
9	9	1
1	2	1
10	25	1
7	9	1
75	76	2
80	80	2
129	133	2
102	117	1
85	118	2
23	26	1
21	26	1
34	127	1
112	122	1
107	114	1
114	115	1
102	103	1
