231	231	11
157	157	19
101	173	2
9	21	2
10	11	4
28	29	3
232	233	7
1	1	9
53	53	13
203	203	22
32	32	19
167	167	8
11	12	2
89	89	14
54	54	9
230	231	4
117	117	14
84	84	13
27	54	7
201	202	3
214	214	17
160	160	13
183	183	15
59	69	2
113	113	14
184	185	5
213	213	16
111	112	2
224	224	8
163	163	22
146	180	4
91	91	17
225	225	18
216	217	6
30	30	11
229	229	12
204	204	17
61	62	11
58	58	11
4	33	1
31	31	11
31	33	6
212	212	24
62	86	1
118	119	6
194	194	6
178	178	15
241	241	30
197	197	10
241	242	9
181	196	1
193	193	6
77	77	10
145	145	15
198	198	3
234	234	9
63	66	4
229	230	10
205	205	14
40	40	5
9	9	7
192	192	22
12	12	14
68	68	16
102	102	1
182	182	7
78	78	16
21	21	11
177	177	9
110	111	6
218	218	15
3	239	1
152	174	2
164	164	17
95	95	13
157	159	4
209	214	3
168	168	15
37	37	7
180	180	10
197	198	8
91	97	3
18	19	3
48	48	9
16	44	3
109	109	8
154	154	20
94	95	4
108	108	14
222	222	9
155	155	15
6	7	4
111	111	11
26	26	9
17	27	2
150	150	21
70	70	8
56	56	8
211	211	25
90	90	12
18	48	4
19	19	12
44	45	7
244	244	11
17	17	10
47	47	12
56	58	1
55	56	4
63	63	9
156	156	9
55	55	12
7	8	5
99	99	10
239	239	2
112	151	3
186	186	21
185	185	17
93	93	8
49	50	3
26	55	2
201	201	17
106	106	9
204	205	3
223	223	14
109	110	3
221	222	6
238	238	16
10	10	11
10	184	1
153	153	11
221	221	13
67	67	15
161	161	9
119	119	10
159	159	15
168	170	1
45	45	10
59	59	16
220	220	9
215	215	7
8	8	8
20	20	7
165	185	2
209	209	9
116	116	8
86	89	1
38	38	13
174	174	9
14	15	7
222	223	3
35	36	8
87	87	6
242	242	8
57	58	7
200	200	6
236	237	6
182	183	10
230	230	15
208	208	14
112	112	15
25	25	2
61	61	11
39	39	11
176	176	5
162	162	19
169	169	9
98	98	13
3	3	4
41	42	9
29	29	8
53	55	4
196	196	14
88	88	13
25	26	2
115	115	10
107	108	10
188	222	3
65	88	1
191	191	1
92	93	3
97	97	7
83	84	2
216	216	6
161	169	2
238	240	1
168	169	10
92	92	10
65	65	15
100	100	11
66	66	8
206	206	10
207	209	3
224	226	3
207	207	11
97	98	6
36	36	9
226	226	11
42	42	2
113	155	2
175	176	3
247	247	6
89	90	2
9	150	2
202	202	11
106	111	3
173	173	22
110	110	25
236	236	11
235	236	1
245	245	18
214	215	5
151	151	19
160	161	3
241	245	4
248	248	5
50	50	6
115	119	1
234	235	2
104	104	1
100	185	1
204	229	2
29	30	6
96	96	5
96	98	2
201	203	1
7	7	10
43	43	14
110	242	3
167	168	6
183	186	3
106	177	1
118	120	1
179	179	7
187	188	1
34	34	6
211	212	3
57	57	5
51	51	10
111	245	2
59	61	2
52	53	4
150	151	2
24	24	6
165	165	6
175	175	12
94	94	1
95	186	2
207	229	1
183	211	2
164	170	2
5	6	2
114	114	9
101	102	2
113	187	3
76	77	6
62	62	2
20	53	2
227	227	13
194	195	4
105	105	7
240	244	2
219	219	8
189	190	5
71	71	14
158	158	9
198	199	4
233	233	2
47	48	6
146	152	1
0	1	3
16	46	10
199	199	8
215	223	4
76	76	6
68	79	1
159	176	2
95	175	4
233	234	8
206	207	3
191	194	1
217	217	7
45	46	3
46	58	1
71	79	1
85	90	1
114	220	7
7	227	1
48	210	2
246	246	7
105	106	1
193	199	1
165	167	2
85	85	3
184	184	4
16	36	4
172	186	2
82	82	8
218	219	10
228	228	5
8	9	2
162	163	3
16	16	7
70	78	1
210	210	6
157	176	1
85	87	3
114	151	6
12	194	2
181	181	9
213	214	5
28	28	7
163	164	3
36	37	3
30	31	4
232	232	2
205	206	1
159	160	5
20	73	3
6	6	4
73	74	1
38	71	4
50	51	1
15	16	9
27	27	9
200	202	2
191	196	2
68	70	2
113	153	3
163	199	1
85	145	2
244	245	4
79	79	4
150	155	2
184	187	1
68	78	1
240	240	7
61	101	3
53	54	1
22	23	3
163	165	6
36	39	2
86	86	9
243	243	3
109	242	1
23	23	9
171	171	12
214	238	2
102	107	3
22	22	3
207	208	3
185	189	1
178	179	3
179	180	2
146	146	3
204	206	1
75	75	8
84	85	3
195	208	2
215	216	5
158	180	3
63	64	3
100	186	1
206	211	3
51	52	2
245	246	1
247	249	2
39	75	3
189	189	2
79	80	1
30	222	1
31	32	2
235	235	6
181	187	1
27	51	1
207	227	1
108	236	2
208	209	1
183	184	3
190	190	2
180	181	6
195	195	6
35	37	1
167	180	1
47	211	1
121	121	4
87	89	2
32	200	2
158	191	1
9	230	1
40	42	2
203	205	1
52	56	1
59	62	1
48	153	1
172	172	12
36	221	1
26	27	2
55	57	1
60	60	3
155	202	1
98	175	1
200	201	3
220	221	3
14	14	2
114	202	1
195	196	2
192	195	1
70	170	1
84	117	1
112	244	4
18	18	6
11	11	14
237	238	1
114	120	1
45	202	1
77	78	3
75	95	1
205	207	3
65	66	2
214	239	3
179	181	4
184	186	1
81	82	4
35	239	2
157	158	4
170	170	5
72	72	4
82	84	1
199	200	3
177	178	1
60	67	2
160	174	1
25	55	1
97	161	1
235	247	1
169	193	1
112	152	2
190	191	2
210	211	4
120	120	5
187	187	5
58	78	2
188	188	8
159	161	2
118	118	2
160	189	1
84	98	2
34	35	1
4	5	1
75	79	3
163	169	1
249	249	1
113	114	4
182	187	3
173	174	4
103	111	1
105	190	1
203	204	2
90	96	2
56	57	2
44	46	2
159	167	1
101	101	3
152	152	6
3	18	2
188	192	2
168	193	1
63	181	1
20	21	2
38	39	1
100	101	1
21	81	1
147	147	1
215	222	3
223	225	3
94	205	1
151	185	1
19	40	1
224	225	4
64	64	1
107	107	5
46	50	2
46	46	6
79	88	2
107	109	1
47	113	1
60	69	3
216	219	2
44	44	5
73	91	2
43	44	4
103	103	3
40	41	2
157	175	1
43	45	2
186	221	2
49	49	1
105	191	1
90	95	1
33	33	4
245	248	1
41	41	6
190	192	1
3	4	4
74	74	5
70	71	2
81	81	8
6	228	2
4	4	3
92	179	1
35	35	5
209	222	1
179	195	2
212	214	2
104	109	3
73	90	1
185	201	3
170	171	4
98	119	2
87	88	1
83	83	4
95	96	3
52	202	1
114	203	3
146	147	2
173	184	1
151	155	1
12	237	1
242	243	1
63	65	1
227	244	1
61	65	1
78	79	1
64	245	1
66	67	1
113	231	1
95	97	2
199	212	1
165	166	1
73	73	2
216	223	1
103	178	1
236	249	1
238	239	3
30	33	1
39	71	1
157	182	1
211	221	3
108	196	2
102	103	1
79	86	1
47	52	1
22	54	1
157	179	1
209	210	1
161	162	3
38	57	1
36	212	1
247	248	2
118	158	1
69	69	5
192	194	1
48	49	2
9	10	1
149	154	1
70	167	1
237	237	1
171	184	1
229	231	1
16	229	1
61	92	1
156	157	1
64	65	2
18	47	2
152	153	2
33	39	1
175	177	3
30	218	2
171	172	1
119	120	1
117	118	2
112	113	3
37	38	2
240	241	1
172	175	1
158	159	1
75	80	1
94	212	1
153	154	2
119	121	1
104	107	1
67	181	1
113	120	1
214	222	2
166	176	1
110	115	1
114	155	1
97	178	1
187	222	1
102	178	1
65	230	1
34	47	2
107	180	1
52	52	1
151	157	1
153	157	1
77	91	1
21	22	2
115	154	1
191	192	2
164	171	1
70	89	1
52	65	1
142	142	1
111	244	1
105	111	1
236	238	1
158	168	1
104	176	1
162	198	1
2	2	1
188	189	1
59	60	1
32	33	2
86	234	1
160	163	1
246	247	1
3	32	1
72	91	1
162	165	2
111	241	1
52	61	1
246	248	1
