81	81	3
77	80	2
29	29	2
49	49	2
104	104	3
98	98	10
44	44	6
60	60	10
119	129	3
130	130	4
34	54	2
18	18	3
100	100	15
61	61	10
62	62	4
100	103	2
122	122	7
77	95	1
22	22	5
72	72	4
97	119	2
112	112	6
69	96	5
68	68	4
122	123	13
113	113	3
129	129	3
124	124	8
102	102	7
87	87	1
92	92	6
55	56	2
93	93	7
84	84	4
123	123	3
51	57	3
43	45	3
18	26	9
93	96	4
127	128	3
75	75	18
82	83	4
108	109	5
118	121	1
70	70	4
38	38	3
83	86	2
66	98	2
127	127	10
90	91	1
61	62	4
132	132	4
91	110	1
134	134	2
50	51	6
95	95	2
64	64	3
25	32	2
80	84	2
7	35	3
110	110	11
84	85	2
33	33	6
96	96	2
55	57	1
50	54	1
126	127	7
3	3	6
118	118	6
35	35	5
97	129	2
121	121	3
115	115	7
87	88	5
118	122	2
86	88	3
11	55	1
32	32	2
66	66	6
17	17	3
16	79	4
80	80	2
28	28	2
133	133	4
4	4	1
101	101	4
46	84	1
126	126	7
91	130	1
110	111	1
85	106	3
108	108	2
86	87	1
71	71	3
0	0	1
63	63	4
36	36	2
49	50	1
131	131	3
45	96	3
86	86	9
103	103	3
2	2	4
90	105	1
85	85	2
107	115	1
25	25	5
126	134	3
44	45	1
67	68	6
80	98	2
82	82	4
79	114	2
0	2	2
83	83	4
112	114	2
91	91	3
21	21	2
120	120	5
130	133	2
120	129	1
103	104	2
20	23	4
125	125	4
108	113	4
88	88	2
65	66	2
10	21	1
43	57	2
64	65	1
11	11	5
45	45	2
15	127	1
21	36	2
106	106	3
77	77	6
115	117	2
117	117	6
70	71	1
97	97	3
32	59	1
107	107	3
37	38	2
71	72	1
6	6	2
94	94	3
86	107	1
18	38	3
17	36	4
61	95	1
54	54	1
52	52	12
65	67	1
131	133	2
44	46	1
15	43	1
61	86	2
55	55	3
77	78	2
123	125	2
50	58	3
0	74	1
82	94	3
123	134	4
10	10	3
116	116	2
51	51	2
105	115	3
115	116	1
68	107	6
128	128	2
105	112	3
101	125	1
116	124	2
90	90	7
69	89	2
100	119	3
16	16	3
99	99	3
117	118	1
78	111	3
37	57	2
5	5	3
54	85	2
89	89	2
79	79	3
30	47	1
67	69	3
109	110	1
81	108	2
21	23	2
30	30	2
13	78	1
59	64	2
19	21	1
53	53	4
58	58	3
119	119	1
10	34	3
134	135	2
62	80	5
85	115	1
7	7	2
70	103	2
97	115	2
98	129	2
50	53	4
103	123	2
73	73	1
112	127	2
11	52	1
83	115	1
56	58	1
53	97	1
97	98	2
57	59	2
67	84	2
43	58	6
44	50	2
129	131	2
50	50	3
19	19	1
8	56	1
112	113	2
65	65	2
5	75	1
50	66	1
85	88	1
116	123	1
56	61	3
78	80	1
45	47	2
6	15	1
15	18	1
122	125	1
24	24	2
43	43	2
91	115	3
47	47	1
111	123	1
106	110	2
1	1	3
43	110	1
45	48	1
82	85	4
53	132	2
8	20	1
45	56	1
100	124	1
69	124	1
74	74	1
91	129	1
62	63	2
64	66	1
96	97	1
76	76	1
61	65	1
101	105	1
114	115	1
52	53	1
67	67	2
45	97	1
66	97	1
14	14	1
64	133	1
48	97	1
55	85	1
