166	169	4
18	18	22
84	85	11
50	50	28
27	27	11
218	219	9
209	216	9
159	159	7
228	229	3
177	177	21
108	108	14
220	222	4
99	100	7
87	91	1
82	82	18
73	73	26
60	61	11
113	113	8
85	85	23
197	249	2
240	242	1
241	242	4
59	75	2
44	44	10
24	45	3
225	226	3
242	245	2
37	38	2
189	189	23
165	165	28
81	81	9
196	247	4
195	196	10
211	231	3
237	238	6
32	32	19
8	8	31
78	78	13
82	89	6
209	209	18
91	92	8
238	242	9
163	165	8
244	245	10
167	167	13
52	52	30
165	171	5
37	42	2
200	200	20
214	217	3
176	176	14
214	214	26
10	10	11
65	74	1
236	237	6
217	217	20
202	202	13
88	88	27
165	176	8
26	27	2
91	91	11
100	100	27
151	151	16
101	102	7
80	82	2
178	179	5
45	45	9
186	188	4
170	170	13
75	75	16
190	190	14
63	63	11
158	158	9
165	167	6
16	16	14
24	25	7
77	77	17
216	216	7
238	238	10
30	30	9
38	38	15
160	160	18
25	25	6
33	36	2
36	36	10
201	201	16
108	118	6
49	49	13
81	82	5
29	216	1
54	57	1
19	22	2
244	244	12
208	208	11
240	240	13
224	224	3
96	96	10
27	28	3
35	36	5
48	48	23
173	173	13
222	222	13
70	169	3
104	104	6
185	185	11
11	11	19
74	74	9
237	237	17
62	62	19
236	238	6
239	239	12
188	189	19
115	115	7
166	175	2
213	214	4
176	177	3
226	227	10
207	207	30
178	178	9
201	203	1
247	248	6
42	42	18
236	241	1
66	67	10
117	117	9
154	154	22
168	169	8
120	120	7
233	233	12
62	63	7
23	23	6
156	156	21
186	186	15
205	205	18
103	103	12
112	112	15
184	184	23
67	67	19
223	223	9
200	201	13
94	117	6
164	164	12
199	200	6
118	118	6
102	102	12
169	224	3
147	147	6
63	64	9
189	190	3
193	193	16
51	51	18
220	221	7
90	91	11
174	174	9
203	204	6
206	207	5
243	243	9
182	182	24
44	66	1
64	64	16
247	247	12
231	231	5
188	188	12
194	194	11
245	245	13
168	191	5
69	70	8
101	103	5
192	192	15
33	33	10
102	103	2
56	72	2
181	213	9
86	88	2
24	24	9
184	189	2
4	195	2
212	212	31
28	28	13
66	73	3
228	228	14
101	101	11
17	17	9
172	173	8
105	105	15
72	72	9
48	60	4
187	189	5
75	76	3
164	165	7
197	248	2
59	59	8
55	55	19
163	163	23
212	244	3
180	180	9
193	194	5
234	236	1
12	12	11
226	226	8
40	241	2
198	198	22
215	215	10
166	166	18
181	181	18
190	193	1
68	68	22
66	66	7
158	163	5
4	4	8
216	219	1
218	222	1
163	170	4
156	178	3
4	39	4
4	38	1
40	40	7
175	175	14
60	60	20
175	177	6
195	195	10
183	184	6
97	97	16
68	69	9
97	98	13
70	71	7
92	92	10
4	6	1
176	187	2
95	95	12
65	65	11
182	184	10
110	111	2
218	218	9
114	114	11
54	62	4
86	86	13
5	15	11
6	7	6
61	62	4
203	234	2
19	19	12
1	1	14
161	161	12
219	219	23
168	168	15
191	194	10
5	5	3
196	199	10
173	174	5
232	232	8
175	176	18
246	246	11
106	106	12
62	241	1
47	47	13
161	162	5
34	37	3
71	73	2
194	211	1
229	229	3
3	12	3
162	163	2
59	61	3
6	6	15
171	171	5
31	31	11
96	97	6
67	68	5
57	57	9
79	79	9
89	89	9
9	10	4
85	89	4
197	197	15
71	71	14
103	105	1
227	227	10
111	111	13
187	190	7
42	234	2
31	32	4
99	99	9
59	191	1
225	225	9
46	46	23
29	119	2
210	212	8
191	191	21
204	204	15
166	176	8
248	248	4
199	199	24
26	26	17
163	164	10
55	57	3
229	230	9
2	32	1
192	196	1
85	86	3
14	14	10
157	157	16
3	32	2
184	190	3
235	235	18
76	77	7
92	100	1
215	216	2
64	65	6
186	187	10
51	59	3
210	210	11
151	152	1
72	83	2
15	67	2
43	44	4
35	35	6
175	180	4
175	181	1
15	63	1
183	183	15
71	72	3
34	34	5
7	10	6
73	74	11
239	240	3
39	39	12
196	198	5
46	47	3
190	191	7
235	236	1
30	231	1
204	205	2
48	49	8
234	234	5
61	61	15
180	182	3
96	98	5
229	231	1
181	182	13
72	73	9
69	72	4
152	153	2
7	7	8
192	195	10
3	3	9
90	92	3
233	244	1
169	191	1
241	241	11
49	240	3
44	203	2
29	29	8
15	15	21
152	173	3
79	82	3
195	197	1
84	84	7
87	88	7
164	171	11
57	58	9
35	37	3
169	170	9
172	172	21
98	98	9
49	64	3
3	15	2
1	32	1
150	151	4
70	74	1
217	218	10
20	23	1
59	192	5
177	178	3
35	38	3
47	80	1
212	213	2
169	169	12
98	99	6
187	188	10
38	184	1
69	69	9
193	195	3
20	20	7
209	210	4
157	159	2
117	118	3
51	204	2
216	217	12
41	52	2
41	41	9
151	156	1
94	94	14
153	153	21
194	195	3
14	15	7
12	14	1
195	199	2
4	5	1
213	213	2
175	182	4
56	56	9
216	218	4
116	116	3
192	194	6
155	155	10
37	184	3
179	179	11
184	186	2
214	215	7
30	211	1
108	109	4
243	245	2
6	16	6
107	108	7
167	168	3
156	157	5
46	235	1
230	230	6
4	29	1
70	70	11
53	53	16
182	183	5
52	53	6
4	15	6
205	207	1
20	22	2
49	62	2
169	173	2
93	93	24
47	77	5
119	119	5
76	78	1
48	240	2
50	64	3
107	107	10
186	195	3
96	116	4
163	166	4
174	175	7
110	110	17
222	224	2
59	60	2
76	76	10
109	109	4
87	87	5
21	23	3
42	43	9
180	181	8
152	159	2
55	64	1
56	58	4
220	220	14
197	198	10
38	39	3
187	191	1
15	16	3
210	211	1
65	66	3
171	172	9
78	79	3
167	182	6
50	76	1
79	80	5
60	69	1
159	160	8
221	222	4
104	107	3
181	214	1
203	203	9
162	162	8
240	241	11
158	160	2
223	242	4
161	172	1
152	152	12
169	218	2
34	63	5
72	76	1
9	32	1
76	84	5
157	158	4
35	247	1
227	235	3
53	78	1
114	116	3
150	150	16
93	94	2
206	206	7
230	231	8
163	189	1
221	221	11
95	98	4
242	242	10
110	113	1
144	145	2
208	215	1
69	158	1
37	37	3
120	209	1
54	55	2
156	158	1
90	90	3
192	201	1
162	171	4
174	194	3
6	11	4
217	219	2
12	31	5
58	191	2
49	77	1
205	206	2
50	77	4
53	64	1
31	247	2
191	199	1
55	56	1
58	58	5
105	108	2
43	43	10
95	97	5
246	247	5
167	175	4
88	98	2
9	9	4
236	236	11
57	61	3
191	196	1
192	193	1
26	46	2
116	117	2
162	167	1
152	157	3
161	169	1
58	70	3
242	243	3
210	213	3
71	77	4
33	49	2
185	189	1
179	181	1
191	195	2
180	191	4
21	22	3
191	192	4
50	212	2
74	75	1
7	9	5
42	212	1
166	167	3
236	248	3
145	145	9
248	249	2
187	187	8
77	78	4
118	210	1
82	85	4
87	92	1
83	83	1
28	53	1
197	237	2
183	210	1
82	84	2
191	193	1
208	221	1
223	226	2
23	231	4
39	40	3
4	13	1
104	105	3
193	209	2
201	202	9
58	59	4
211	211	4
165	175	2
226	228	2
192	214	3
3	31	2
51	52	1
150	170	2
177	181	1
74	76	2
109	149	1
34	38	3
167	190	2
31	212	1
212	229	1
72	75	3
165	172	2
197	204	2
5	14	5
21	241	1
209	241	1
109	110	1
160	161	4
56	77	2
207	208	2
81	238	4
69	71	3
51	80	1
238	248	1
196	196	10
211	242	2
50	51	1
80	80	3
193	202	1
6	12	1
37	39	2
89	91	2
154	156	1
209	242	3
158	169	3
202	203	2
34	248	1
29	31	1
102	104	2
221	223	1
114	115	4
30	31	2
117	119	3
80	81	2
222	223	3
145	152	1
94	95	2
91	96	3
180	183	3
29	30	3
114	204	1
170	171	7
188	210	1
177	179	2
3	38	3
36	61	2
113	114	8
47	236	1
210	215	3
172	174	1
196	209	1
8	16	2
168	185	3
4	11	2
230	233	2
105	106	2
245	246	3
153	157	3
189	198	2
224	226	1
170	172	2
111	112	6
3	11	1
54	54	2
232	233	1
82	83	4
171	189	1
208	210	1
153	158	1
115	117	1
59	72	2
83	89	4
198	199	4
25	26	1
26	109	1
11	12	1
185	186	2
242	247	3
33	68	2
40	41	1
0	1	1
193	201	3
49	50	2
198	204	2
184	185	2
57	59	1
80	90	2
176	191	1
19	21	1
111	118	8
238	240	1
18	31	1
33	35	3
119	208	2
118	119	1
111	115	1
27	239	1
36	37	1
219	230	1
32	33	2
5	38	1
159	161	2
162	201	2
68	70	1
68	74	3
21	21	4
63	249	1
153	154	2
49	241	1
88	97	1
60	62	1
158	159	2
185	187	3
67	74	1
39	61	2
115	116	1
75	87	1
182	186	2
9	31	2
5	37	2
71	74	1
56	79	2
217	231	1
200	202	1
80	83	1
47	72	1
218	220	1
214	216	1
182	212	1
108	110	2
198	201	1
88	89	1
82	90	4
2	2	2
32	43	1
97	99	1
22	22	1
73	83	1
238	239	1
144	144	1
168	220	1
17	30	1
111	113	1
167	174	1
209	244	3
208	209	1
163	178	1
34	35	3
65	67	2
95	96	1
81	151	1
166	190	1
78	84	1
33	51	1
57	192	2
15	65	1
18	19	1
97	100	1
45	233	1
186	189	1
18	32	2
39	241	1
168	190	1
105	109	2
241	243	1
188	192	1
165	166	2
201	221	1
77	79	1
211	213	1
53	55	1
46	81	1
3	10	1
168	170	1
77	83	1
165	178	1
201	222	1
2	10	1
75	77	2
47	49	1
149	149	1
196	197	1
188	190	1
112	113	1
51	54	1
179	180	1
170	177	1
51	53	1
16	35	1
29	40	1
85	198	1
73	76	1
191	198	1
56	57	1
114	175	1
119	235	1
57	79	1
58	169	1
242	248	1
208	243	1
