20	23	5
105	106	2
52	53	6
205	205	3
7	7	5
157	157	6
105	105	5
96	96	3
61	61	5
18	18	5
37	37	1
3	3	1
220	222	1
2	99	2
15	16	1
164	164	5
102	106	2
69	69	3
50	51	3
199	222	2
156	158	2
42	46	5
85	85	7
68	68	3
138	138	2
59	59	1
72	72	4
14	91	7
45	47	2
36	36	2
117	118	6
171	171	4
121	203	1
158	158	3
34	34	6
54	54	5
144	144	3
27	27	8
85	86	1
24	192	3
98	147	5
150	150	7
24	28	5
129	129	13
29	29	2
64	64	6
144	238	4
185	188	3
184	206	2
234	234	3
38	38	5
20	119	1
3	8	6
125	125	6
170	188	2
24	25	5
33	35	2
32	32	2
82	83	2
26	26	5
71	71	2
124	124	4
58	58	7
13	13	6
133	133	10
67	67	3
219	223	1
200	222	5
155	155	4
44	45	3
178	179	3
97	97	4
170	170	4
11	54	3
78	79	5
184	187	1
88	88	1
66	67	2
75	75	2
22	22	5
113	113	1
53	60	2
197	197	2
209	211	3
14	14	2
240	240	1
2	2	8
81	81	5
223	223	3
218	219	2
102	103	2
204	219	2
233	233	4
21	116	4
45	45	2
61	160	1
123	186	1
115	115	2
163	163	7
147	148	3
134	134	3
64	75	2
158	159	1
79	79	1
10	88	1
138	139	5
111	171	5
40	41	2
25	85	3
178	178	1
152	157	3
241	242	5
199	199	6
19	19	3
39	39	3
122	134	3
117	117	3
25	26	3
95	95	2
153	153	5
215	215	7
228	238	1
126	126	2
58	59	5
133	134	1
82	82	4
208	208	1
137	237	2
62	62	1
114	114	1
181	182	4
114	118	1
156	156	8
111	236	2
183	183	2
73	76	1
65	67	1
196	197	3
236	236	3
36	55	2
51	53	5
5	5	3
31	32	3
18	20	2
228	228	3
18	19	1
14	15	2
216	216	2
80	80	4
144	169	1
139	140	2
21	21	2
101	101	3
229	229	1
183	187	1
194	202	1
109	109	1
203	204	3
143	147	3
163	166	2
211	211	1
109	220	2
112	162	4
56	60	2
111	157	2
55	55	5
114	166	1
85	120	1
118	119	1
3	4	1
146	146	2
231	233	2
23	29	3
43	44	2
25	32	2
130	185	1
30	30	2
116	124	2
230	231	2
138	237	1
162	166	1
110	110	3
19	81	2
72	73	3
34	60	3
102	102	2
63	64	1
167	167	1
182	188	1
48	48	2
173	173	4
221	221	1
4	4	2
40	40	2
42	42	3
52	52	2
207	207	1
86	86	1
229	230	2
23	30	1
182	182	1
108	108	5
177	177	3
35	36	1
213	213	3
217	217	2
167	168	2
47	47	5
177	178	2
214	215	3
61	70	1
56	56	2
24	24	2
28	28	2
115	167	1
149	150	1
188	189	2
99	99	1
21	22	1
222	222	1
80	81	2
70	229	1
23	195	3
122	127	6
51	51	1
103	104	1
168	168	1
115	186	2
47	85	1
17	49	3
242	242	3
28	29	1
174	192	1
23	23	3
11	11	1
145	146	1
204	204	1
74	74	2
78	78	3
202	202	2
73	73	1
65	76	1
99	137	2
184	205	2
20	20	1
33	33	1
70	70	2
15	15	1
142	142	3
187	188	1
63	63	1
80	101	1
109	115	2
138	140	1
30	31	1
36	56	1
188	194	2
13	16	2
168	187	1
228	230	1
69	74	2
149	149	1
224	224	1
68	85	3
49	49	1
67	76	2
30	106	1
6	6	2
129	131	1
26	231	2
6	62	1
4	49	1
151	177	1
84	84	4
228	235	2
107	107	1
5	7	1
194	194	1
50	60	1
35	35	1
1	2	1
99	138	2
2	36	1
220	220	2
149	151	2
120	121	1
2	7	1
123	126	1
163	167	1
53	54	1
232	232	1
166	198	1
67	78	1
142	199	1
198	198	1
206	206	1
210	210	1
16	49	1
203	203	2
168	214	1
29	30	1
231	231	1
107	114	1
13	17	1
56	58	1
154	154	1
172	172	2
99	100	1
12	83	1
60	60	1
218	222	1
161	161	1
141	141	1
120	127	3
151	151	1
49	50	2
219	220	1
50	50	1
46	46	1
42	44	2
72	211	1
18	31	1
116	116	1
