131	132	2
26	26	16
27	27	19
67	68	8
11	12	11
46	46	21
90	90	19
101	101	24
24	26	5
2	2	6
94	95	10
12	96	1
96	96	12
113	114	9
121	122	4
35	57	2
76	76	12
30	30	9
84	89	3
96	98	4
5	5	13
98	98	11
15	16	4
9	9	7
123	126	1
68	68	6
79	80	13
10	86	8
124	125	2
132	132	1
107	108	1
115	115	8
26	27	6
4	6	6
34	34	7
10	105	3
58	58	16
101	102	2
84	84	16
8	83	4
101	113	4
19	19	12
82	82	6
125	126	2
110	110	10
59	59	8
81	81	10
45	45	14
122	122	4
39	55	3
109	109	3
33	33	13
26	132	2
15	15	8
7	88	2
31	31	3
75	75	23
65	65	10
20	20	5
64	64	18
25	26	11
82	84	2
90	91	2
93	94	7
78	78	6
24	24	10
73	73	18
104	109	2
134	134	14
72	72	18
10	10	7
67	67	10
17	17	10
14	15	2
10	75	1
39	39	4
48	50	2
117	118	3
35	35	4
86	86	10
3	3	4
63	76	3
42	42	13
55	55	4
61	61	15
85	85	3
119	119	6
99	99	9
9	18	4
44	75	2
117	117	2
130	133	1
35	36	2
129	129	3
113	113	6
27	71	4
71	71	3
76	77	6
11	130	5
6	6	3
8	9	7
77	77	6
8	15	2
81	89	1
120	120	6
42	43	5
11	93	4
106	109	4
49	99	2
107	107	17
25	25	10
23	23	4
117	121	2
61	62	1
26	93	2
79	79	8
36	36	8
94	98	1
87	99	1
93	93	8
8	18	2
59	78	2
16	23	2
114	115	1
22	30	2
41	42	3
60	60	16
89	90	10
71	72	3
18	73	2
75	78	1
47	47	7
80	84	1
87	87	2
46	72	3
33	34	1
21	22	5
108	109	4
72	73	4
43	43	9
83	83	9
80	80	3
66	66	10
54	55	1
44	44	9
121	121	5
57	62	3
126	126	4
37	37	3
16	16	6
63	63	10
123	123	8
74	74	7
32	76	2
8	8	15
122	124	1
12	12	10
95	95	5
117	122	2
45	69	3
62	62	4
73	74	2
112	112	7
105	111	1
111	111	3
100	100	12
18	18	11
44	74	1
95	96	5
83	84	6
11	11	14
49	49	4
48	48	4
104	104	5
22	22	4
9	97	2
29	29	8
100	101	1
33	45	1
88	93	2
10	11	3
17	18	9
19	59	2
31	34	2
128	128	4
56	56	4
21	21	2
9	88	2
91	91	6
123	124	1
55	60	4
108	108	4
11	72	1
72	101	2
1	2	3
28	80	7
5	6	1
59	62	3
61	76	1
93	111	1
79	81	4
6	133	1
83	94	5
88	95	5
95	97	2
28	28	4
97	97	3
106	107	7
115	122	3
7	20	2
45	46	3
38	38	2
80	105	2
94	94	6
7	7	3
61	77	3
24	82	1
109	112	1
2	17	1
106	106	3
115	126	4
51	56	3
102	102	2
57	80	1
96	97	3
16	17	1
32	32	9
77	78	2
36	64	2
12	13	4
97	98	3
0	2	1
4	122	3
43	74	4
84	121	3
84	113	1
70	71	2
76	129	2
13	14	2
128	129	3
1	74	2
87	88	3
120	130	4
41	41	6
57	57	3
98	99	1
18	20	1
124	124	8
27	92	2
7	83	5
28	91	1
114	114	4
118	118	11
86	88	4
84	105	2
15	24	1
81	83	5
94	96	1
116	116	5
31	32	1
113	129	1
20	21	3
127	127	6
63	64	2
48	51	3
20	22	1
131	131	2
29	60	3
31	81	1
18	19	3
28	37	2
110	111	2
65	67	4
7	75	1
75	76	3
103	110	4
11	20	2
116	125	3
119	120	2
70	70	2
46	62	3
27	38	1
44	45	3
12	71	1
80	92	3
126	127	1
4	4	7
25	93	1
77	91	1
60	75	1
69	69	3
92	93	1
130	130	1
2	100	1
27	28	1
26	47	2
125	125	2
57	58	3
133	133	4
87	110	2
84	85	3
0	47	3
66	90	1
22	111	1
3	4	2
6	7	1
94	100	1
4	15	1
59	60	2
99	100	3
92	92	2
64	67	1
68	69	4
58	60	1
120	122	2
34	59	2
103	103	2
120	121	2
124	126	1
24	30	1
48	49	1
81	82	1
14	14	2
115	116	1
125	127	1
23	25	1
1	1	1
132	133	1
95	102	1
78	80	2
106	125	2
83	100	1
21	36	1
90	94	5
16	22	1
88	88	1
86	87	2
4	5	1
69	70	1
4	91	1
36	37	2
63	75	1
110	113	1
76	78	1
111	112	2
29	30	1
69	75	3
4	92	1
99	102	1
89	97	1
27	29	1
115	117	1
37	38	2
93	97	2
13	13	1
95	98	1
61	63	1
31	106	1
118	119	1
104	106	1
15	17	1
32	36	1
26	82	1
32	33	1
77	102	1
28	35	1
19	24	2
51	51	1
34	35	1
