37	37	9
126	127	16
47	123	5
16	16	14
141	141	9
100	100	13
107	109	1
132	132	3
125	126	4
72	72	3
40	40	6
142	142	18
118	118	2
73	85	1
145	145	5
133	133	8
65	65	10
38	38	6
71	72	2
67	69	3
58	58	10
39	39	15
98	98	8
92	92	4
15	15	6
99	99	1
108	116	2
19	19	16
104	104	8
73	73	9
70	70	13
56	56	12
119	119	10
20	20	9
80	80	3
94	94	12
13	13	3
136	137	8
118	120	9
30	30	17
26	26	4
86	86	2
115	124	3
110	112	4
114	116	3
121	123	4
34	34	6
76	76	4
123	124	7
53	54	3
101	101	19
16	20	1
121	121	13
135	135	2
95	95	5
22	22	13
40	47	2
124	124	16
128	128	12
88	88	4
119	120	7
54	54	5
74	74	10
66	66	4
129	129	15
91	91	6
14	15	5
110	110	4
23	23	8
139	139	11
113	113	6
33	33	12
39	40	3
53	62	2
123	125	2
48	49	8
58	59	4
123	123	21
69	70	6
49	49	6
17	21	2
79	79	6
28	28	11
17	18	10
4	4	5
71	73	2
21	26	6
80	88	3
136	136	6
91	137	1
81	81	5
35	36	2
32	32	7
118	119	4
114	114	7
125	125	15
89	93	9
49	62	1
127	127	8
60	61	2
20	21	4
70	72	3
116	117	7
37	62	3
134	135	17
117	118	3
126	126	7
59	60	2
122	123	4
18	18	6
10	10	10
128	129	5
115	115	9
114	117	1
84	84	4
21	21	10
52	53	3
43	43	4
4	5	4
110	111	2
59	59	7
68	69	3
127	128	7
0	0	3
134	140	2
64	67	6
14	14	3
58	106	5
30	42	3
140	141	2
84	85	3
108	109	3
18	22	1
36	37	2
66	67	9
126	128	2
87	140	3
51	52	11
109	109	6
48	48	3
17	17	8
3	4	4
108	108	4
39	41	5
57	57	3
68	68	8
83	83	2
24	29	3
40	130	3
31	31	3
105	105	3
67	67	2
138	138	2
24	24	8
69	136	2
143	144	4
29	29	3
48	60	5
61	61	3
3	10	5
78	78	4
108	111	1
106	106	5
33	35	2
67	68	3
77	78	1
134	134	3
77	79	8
129	130	2
114	115	1
23	24	3
117	117	7
14	16	3
33	34	2
5	5	4
102	103	7
146	146	2
27	27	10
120	120	9
11	33	2
13	56	1
41	41	12
50	141	2
4	6	3
28	65	2
96	96	6
74	78	2
87	87	2
113	114	2
125	127	1
37	49	2
97	98	2
49	54	1
55	64	1
93	93	2
5	6	3
105	106	4
25	25	2
137	137	2
6	6	3
1	2	2
26	111	2
31	33	3
63	112	2
11	11	4
76	78	4
54	141	1
106	107	3
82	87	1
89	91	2
80	119	1
103	103	3
66	69	1
34	36	2
119	142	3
111	112	6
70	73	3
144	144	4
61	112	4
88	89	2
57	58	1
68	135	3
75	75	2
143	143	7
53	53	6
50	52	6
124	138	2
55	56	1
55	141	1
34	47	1
3	3	1
77	117	2
16	17	3
62	62	2
55	55	3
47	47	1
31	32	3
92	93	1
28	29	3
78	79	2
83	85	3
57	61	1
51	51	2
9	29	2
71	80	2
19	22	4
145	146	2
18	19	1
93	94	3
137	139	3
68	133	5
124	125	2
12	12	6
133	135	2
80	120	1
87	98	1
18	53	1
131	131	1
102	102	1
91	92	3
131	139	5
21	96	1
31	43	2
105	107	1
127	129	3
52	56	1
85	85	1
138	139	1
87	88	1
94	95	2
130	130	5
50	50	1
39	48	4
32	33	2
121	138	2
126	129	1
40	41	1
105	137	2
35	35	2
107	121	1
90	90	2
71	76	1
55	124	1
97	97	1
52	52	2
57	63	2
16	63	1
8	8	1
67	97	1
103	132	1
3	23	1
22	23	1
39	47	2
33	64	2
2	2	3
61	63	1
141	142	1
54	57	2
36	36	1
67	98	2
104	125	2
122	122	2
140	140	1
64	75	1
47	62	1
82	82	1
2	3	1
42	42	3
55	135	1
27	107	2
56	141	1
88	93	2
111	111	3
79	88	2
13	14	2
11	34	1
91	98	1
72	75	1
107	107	1
134	137	1
77	77	1
67	133	1
6	10	1
103	104	1
134	138	1
60	60	1
66	133	1
85	86	1
16	49	1
