48	114	1
78	78	11
84	85	4
61	61	11
64	87	3
93	94	15
53	54	9
99	116	2
136	136	21
139	139	12
65	65	11
119	124	1
104	104	8
92	92	13
137	137	27
47	48	3
82	82	24
122	122	12
1	1	3
134	135	4
23	23	14
114	114	12
74	104	4
138	138	29
123	123	26
16	16	31
17	17	15
108	108	18
131	132	9
27	28	7
77	77	23
74	74	19
19	50	1
19	19	14
5	5	18
64	80	2
141	141	20
8	8	21
122	123	25
128	129	6
14	15	6
109	110	11
83	84	4
136	138	3
133	133	26
57	58	5
125	126	9
24	25	4
121	121	29
109	109	16
2	2	23
113	113	10
71	71	7
12	13	5
62	63	12
132	132	19
94	94	23
82	95	1
52	53	6
134	134	38
59	100	4
63	63	20
8	19	4
104	131	3
119	123	1
73	73	17
22	23	3
78	95	2
127	128	9
13	13	16
99	101	11
15	15	21
31	32	5
21	21	16
128	128	21
98	99	7
92	93	12
36	40	7
76	78	5
137	138	13
145	146	2
126	130	7
139	140	7
81	81	16
108	109	3
133	134	13
95	95	11
86	87	5
6	6	9
134	136	2
117	118	9
105	105	10
72	97	1
126	126	27
142	142	10
40	41	5
55	56	9
103	131	2
40	40	13
16	17	5
93	111	1
87	87	15
79	80	6
116	123	4
96	96	15
125	125	23
34	39	3
26	26	12
88	145	2
32	32	10
118	119	10
53	53	17
119	119	31
28	29	10
129	129	18
42	42	7
3	4	4
129	130	10
85	85	15
6	11	6
93	93	18
52	128	4
103	103	17
135	135	40
90	90	17
18	18	16
2	15	2
21	122	1
130	130	34
62	62	12
39	39	8
76	144	1
76	96	1
25	25	8
113	114	16
119	127	3
59	61	5
38	38	15
82	85	2
67	67	17
119	120	15
72	74	6
112	112	8
54	127	2
51	51	7
3	3	14
117	117	18
51	52	8
64	65	2
60	61	5
1	15	1
30	32	5
28	28	15
5	6	5
88	90	9
88	89	12
68	68	7
9	10	5
120	125	4
140	143	7
48	48	19
116	116	10
32	94	4
54	58	1
49	49	9
50	50	7
146	146	4
14	14	17
96	97	9
124	135	3
107	107	15
125	143	2
118	118	17
56	126	2
9	9	23
38	41	1
64	109	2
85	86	7
105	134	6
25	27	2
130	131	10
114	116	3
87	98	3
18	19	10
32	93	1
87	91	2
59	125	3
87	117	3
30	30	12
1	2	4
67	81	1
26	31	4
69	69	16
122	134	5
123	133	1
137	139	2
140	140	13
22	125	2
64	64	16
94	96	2
34	34	14
35	43	3
42	43	5
113	115	5
131	131	20
126	131	1
135	136	11
101	102	3
60	60	13
54	54	11
11	11	7
65	66	3
41	41	19
136	137	8
71	81	3
83	83	13
103	119	2
52	52	6
84	84	12
132	133	13
36	36	13
74	75	4
100	100	17
124	124	24
66	67	10
12	18	4
37	37	13
72	80	2
8	13	2
12	16	1
4	4	18
70	71	4
124	125	9
25	121	2
143	143	18
136	139	2
102	103	4
97	97	17
19	29	1
105	136	2
12	12	9
145	145	8
77	79	2
127	129	3
131	133	2
133	135	10
108	137	1
107	108	6
20	130	6
119	122	3
2	13	1
24	24	10
30	37	5
27	27	7
62	120	4
17	132	1
79	79	7
2	12	2
80	80	20
119	121	1
22	130	2
70	72	2
0	0	2
40	42	2
119	125	2
82	87	4
62	110	2
121	122	9
82	83	4
37	40	2
40	56	4
56	57	8
134	143	4
117	135	4
141	142	12
35	36	7
61	103	1
75	75	6
102	102	19
89	89	26
59	60	4
47	129	3
60	62	1
127	127	21
15	16	5
83	85	1
144	144	17
119	130	2
20	21	8
77	78	22
68	69	7
4	27	1
91	91	16
128	131	2
90	91	7
52	132	2
54	56	3
125	127	2
136	140	1
22	22	23
29	33	4
17	24	5
125	132	1
21	22	2
116	131	1
55	55	9
130	133	1
10	27	1
122	124	6
77	83	4
123	124	9
106	107	3
70	70	5
4	5	3
60	66	2
47	47	4
23	32	4
15	17	2
110	110	18
37	41	1
98	121	4
89	99	1
111	111	7
33	33	22
60	111	1
20	20	8
10	137	2
140	141	4
99	99	9
75	107	2
29	29	12
113	117	1
62	79	1
120	121	5
79	82	3
8	9	4
29	30	5
60	118	1
42	80	2
92	94	2
120	120	24
38	39	1
66	100	2
115	121	2
24	26	4
26	30	4
57	57	14
117	144	1
61	120	3
131	134	2
53	56	1
116	118	1
101	107	3
65	107	2
99	100	8
123	125	6
97	98	9
76	95	1
93	96	1
39	43	3
78	79	4
106	106	4
117	120	2
89	128	1
21	127	4
115	115	13
0	1	2
111	113	3
137	140	1
135	140	2
72	72	15
88	88	11
54	143	1
66	66	1
104	138	5
101	101	7
62	64	3
13	15	2
51	111	2
23	24	6
87	88	7
91	92	1
104	132	1
75	80	4
65	78	2
126	127	3
13	138	2
89	90	6
13	31	1
20	118	1
138	141	2
71	72	4
19	21	2
134	140	1
83	86	1
109	121	1
70	76	2
122	133	1
27	29	3
20	51	1
93	131	1
121	125	2
106	108	1
126	129	3
30	31	2
39	41	5
23	144	3
121	124	1
55	57	2
103	107	1
129	131	1
76	77	4
67	68	7
97	116	1
10	18	1
47	51	2
56	56	11
86	86	2
83	101	2
49	50	3
20	52	4
67	69	3
4	12	1
121	123	6
114	115	10
17	128	2
61	63	2
120	123	2
118	120	7
59	59	1
58	62	2
56	143	2
56	108	1
32	100	3
58	126	3
107	109	1
81	83	2
80	81	3
111	114	1
124	133	2
71	92	1
2	3	4
120	122	3
120	138	1
61	62	5
91	115	1
55	143	2
119	126	2
72	81	5
115	118	1
99	117	3
3	5	1
58	59	4
41	42	2
84	128	2
31	31	9
98	137	2
132	134	1
18	24	1
33	71	1
131	141	1
114	120	1
142	143	4
26	137	3
89	91	4
68	121	1
49	85	3
78	96	1
6	9	5
17	18	7
73	74	1
63	116	3
103	105	1
62	131	1
33	70	1
111	112	2
108	136	2
117	142	1
127	131	4
66	82	1
65	81	3
112	115	2
76	76	5
54	128	1
105	131	5
110	134	2
98	116	2
98	98	8
5	137	3
89	98	1
5	10	1
115	117	3
125	131	1
95	96	1
118	130	2
121	136	2
135	137	2
86	90	1
35	35	2
53	84	2
58	128	1
65	67	2
117	143	1
73	75	1
4	13	2
91	119	2
98	120	3
26	27	3
100	101	6
127	130	2
58	58	4
98	104	1
34	71	2
110	127	1
92	111	2
95	113	1
8	10	2
50	83	1
67	126	1
73	79	2
128	130	1
63	109	1
120	130	2
138	140	1
119	128	1
1	11	1
121	128	1
73	96	1
117	124	1
10	10	8
4	6	1
144	145	1
20	24	1
85	92	4
134	137	1
97	129	1
20	122	2
11	131	1
23	27	2
90	113	1
88	117	1
18	21	2
116	117	2
107	121	1
126	128	2
73	104	1
38	48	1
133	140	2
59	118	4
50	53	1
22	131	1
69	74	3
61	138	1
141	144	1
18	20	1
10	28	1
110	138	2
91	114	3
57	118	2
10	11	1
16	29	1
104	107	2
39	40	3
140	142	1
94	118	1
110	111	1
11	31	2
73	107	3
1	8	1
19	20	1
24	122	1
48	49	1
74	106	1
22	52	1
53	110	1
75	76	3
66	77	1
83	89	2
120	128	1
32	34	1
67	102	1
32	33	1
117	132	1
118	121	1
18	49	1
111	116	1
91	95	1
23	26	2
125	141	1
33	93	1
69	98	1
38	40	1
13	137	1
33	37	1
57	117	2
12	27	1
22	25	1
104	105	1
32	36	1
24	27	1
18	122	1
87	95	1
110	126	1
64	117	1
26	77	1
34	94	1
58	60	1
9	27	1
34	35	1
122	132	1
36	37	2
37	38	2
28	30	1
103	126	1
47	127	1
34	37	1
115	116	1
23	25	1
91	128	1
42	77	1
25	26	1
10	26	1
14	18	1
50	52	1
56	59	2
53	126	1
98	135	1
132	135	1
111	131	1
43	43	1
68	82	1
101	103	1
14	17	1
38	42	1
71	73	1
