71	72	4
63	73	3
172	172	5
3	55	3
168	169	7
174	174	9
177	177	3
184	189	3
39	40	10
52	53	2
139	140	3
109	109	12
197	197	6
143	144	1
158	177	1
46	48	2
15	15	4
119	194	5
35	35	6
40	42	5
134	134	13
151	151	7
149	149	12
94	96	2
111	111	3
180	180	4
17	39	1
106	106	4
49	50	1
156	156	6
109	111	4
120	120	4
67	69	5
51	51	2
158	158	4
46	46	3
133	134	8
119	119	4
33	33	4
131	162	1
86	86	2
47	47	5
102	103	1
82	83	5
21	21	4
100	100	3
163	165	2
195	196	1
150	150	5
171	171	5
172	191	2
38	44	2
29	29	4
183	183	3
1	70	1
9	9	3
144	144	5
41	41	1
173	175	6
74	74	6
166	166	1
132	132	7
122	122	10
171	172	2
85	85	4
164	165	4
95	95	3
179	180	4
170	170	10
139	141	4
19	19	3
194	194	4
30	30	4
139	139	7
148	148	6
148	155	4
153	162	3
106	117	2
124	124	6
49	183	1
105	107	1
40	40	3
63	67	3
28	28	1
99	99	6
89	90	2
131	143	1
63	63	2
132	133	3
2	65	1
129	129	3
16	16	6
136	136	8
176	176	1
43	43	5
164	164	4
147	147	5
30	31	2
178	181	1
34	34	3
4	4	5
37	37	5
168	168	1
188	188	4
11	11	12
180	182	2
20	21	4
184	187	2
44	44	4
101	101	5
12	12	4
153	159	1
134	135	3
107	140	2
125	125	3
165	165	3
142	142	4
185	185	1
8	43	1
71	71	3
38	39	4
116	116	2
6	36	1
120	144	6
195	195	2
90	90	3
179	179	6
53	53	4
62	167	3
62	63	3
52	52	1
165	166	3
122	138	6
152	152	3
184	184	1
47	48	2
46	47	1
102	114	2
42	42	5
4	59	3
40	166	3
121	121	9
72	72	1
104	104	3
154	154	3
50	50	5
161	161	5
178	178	4
7	41	5
104	105	4
66	73	3
140	140	2
171	181	2
25	25	4
48	48	5
193	193	3
77	81	2
88	88	3
163	163	3
191	191	7
176	178	1
10	11	3
31	57	2
22	28	1
24	24	2
107	107	4
152	161	1
19	34	1
17	183	1
51	112	2
45	45	6
103	103	3
128	128	2
152	153	2
15	50	1
115	115	5
159	159	4
175	193	3
127	127	3
149	150	3
24	25	2
147	148	1
160	164	1
186	186	1
173	191	2
26	26	2
108	108	6
3	63	1
36	36	6
167	169	1
12	36	2
31	31	2
71	73	2
138	176	2
68	68	2
182	185	7
26	35	2
161	163	3
68	69	4
172	190	1
170	193	2
182	182	3
35	36	2
189	189	3
175	178	1
151	165	1
123	123	3
183	192	2
57	57	4
154	177	3
131	131	2
33	34	2
119	129	1
137	175	2
77	78	2
103	117	1
177	178	1
28	29	3
151	152	3
115	116	3
36	39	1
130	131	1
45	48	2
156	157	1
159	161	2
185	186	1
145	145	3
190	190	3
31	32	2
31	56	1
144	145	1
12	41	1
116	131	1
107	176	2
44	196	1
10	10	1
196	196	2
166	167	1
7	7	6
18	18	3
125	126	1
93	93	5
44	179	3
14	39	1
182	193	8
3	27	1
94	95	4
117	118	1
126	127	4
14	14	6
73	73	2
25	28	3
160	160	3
40	41	2
161	164	1
54	54	3
167	167	3
141	141	1
5	12	3
173	173	2
146	149	2
6	6	3
105	105	2
93	95	2
25	27	1
77	79	3
130	163	3
146	146	2
176	177	3
148	149	3
78	78	3
116	139	1
126	126	3
84	85	1
174	175	1
86	87	3
39	41	2
99	100	3
70	71	2
66	68	4
95	96	1
114	114	1
142	143	2
7	16	1
189	190	2
80	80	3
161	162	1
118	139	1
25	26	1
21	105	2
49	49	6
72	73	3
100	105	1
56	56	2
20	39	1
183	185	1
22	32	1
116	138	2
162	162	4
8	8	3
61	61	1
121	123	1
162	197	3
4	71	1
9	57	1
59	60	2
173	174	2
3	59	2
54	55	4
10	34	1
102	107	1
69	69	2
181	181	3
55	55	1
13	15	1
13	14	1
192	192	5
172	175	1
67	73	1
6	7	3
175	175	2
158	162	1
137	163	3
162	164	2
123	124	2
169	169	3
130	130	2
23	23	1
18	179	1
120	140	1
60	61	1
190	191	1
22	24	1
112	112	3
122	127	2
18	30	4
29	148	1
57	58	1
187	187	1
124	130	1
116	193	1
5	7	1
10	55	3
30	57	1
179	187	1
181	182	1
121	151	1
187	188	2
2	59	1
2	2	2
0	4	2
45	46	1
124	162	2
135	135	1
16	51	1
180	181	1
62	66	2
55	86	1
137	155	1
143	143	1
59	59	1
181	189	1
170	186	1
183	184	1
6	39	1
7	8	1
35	76	2
155	155	1
121	154	1
76	77	1
184	186	1
121	157	1
22	54	1
175	197	1
172	180	1
26	32	1
141	142	1
65	65	1
64	68	1
111	195	1
13	13	1
140	193	1
30	56	1
146	147	1
59	75	1
59	65	1
108	116	1
39	39	1
