73	73	8
0	2	3
95	95	1
62	63	2
55	56	3
126	126	7
90	91	4
55	55	13
43	84	1
52	52	5
118	120	1
131	133	2
100	113	2
48	72	4
107	112	1
133	134	1
82	82	4
119	120	1
94	94	4
105	126	3
1	1	10
35	36	2
115	115	9
9	109	1
97	97	6
64	78	3
60	65	2
97	106	3
133	133	5
87	108	5
54	54	6
87	88	4
18	34	3
57	60	4
123	123	10
101	101	5
110	111	6
76	76	10
27	31	2
120	133	3
87	87	4
14	68	2
122	132	4
121	122	5
83	83	9
69	69	9
26	69	2
111	114	3
46	115	2
9	122	2
86	87	2
66	67	2
61	61	3
58	75	2
71	71	3
13	13	6
38	53	3
25	45	2
89	89	6
58	89	2
107	108	3
66	66	3
18	19	2
8	115	1
78	79	1
97	98	6
100	126	2
16	35	3
64	64	5
120	120	5
92	98	2
121	121	3
108	108	9
31	31	5
70	70	5
91	91	9
127	127	8
25	44	1
27	37	6
26	35	3
114	115	1
5	29	1
14	16	2
25	26	2
29	29	4
52	88	3
8	8	1
107	111	5
84	84	3
105	121	2
109	109	4
60	62	2
129	130	6
12	13	2
44	117	5
91	92	8
74	74	7
87	96	5
38	133	1
10	10	5
23	55	2
15	129	1
59	59	5
99	99	3
43	87	1
20	20	2
100	100	1
72	79	2
19	21	2
112	113	2
38	131	1
15	15	2
48	48	1
110	110	3
37	37	1
49	72	3
47	47	1
78	78	6
111	111	6
98	109	1
80	80	1
53	78	2
45	96	4
49	132	1
60	60	4
105	105	5
4	4	3
62	62	4
47	61	1
114	114	4
82	85	3
20	24	2
25	25	2
18	21	1
11	11	4
97	119	1
75	79	1
98	98	8
44	124	1
105	130	1
69	99	2
9	96	1
43	92	1
88	88	4
106	106	3
4	5	1
111	112	3
14	14	1
58	58	3
42	44	1
91	96	1
123	126	3
122	123	2
92	92	3
115	118	1
127	128	2
63	64	5
132	133	6
33	34	2
33	33	3
67	67	3
38	92	3
117	118	1
6	6	4
72	73	2
11	87	2
7	10	5
103	103	4
84	85	1
21	25	3
100	130	1
112	112	3
32	34	5
117	117	1
50	133	1
26	47	1
96	106	1
81	95	5
32	32	2
27	27	2
65	65	1
124	124	2
75	75	4
104	104	1
8	11	1
23	25	3
18	22	1
49	53	1
5	5	4
18	18	2
90	90	1
134	134	5
97	123	2
14	23	4
73	79	5
105	128	1
131	131	5
84	128	1
99	121	1
86	130	2
89	90	1
16	16	5
43	66	1
24	53	1
86	86	3
100	123	1
122	130	1
43	43	2
108	114	1
92	93	2
128	128	3
120	121	3
28	28	5
107	121	1
125	130	2
9	34	1
58	100	2
34	34	5
63	71	1
73	80	1
29	116	1
20	21	2
26	26	1
55	66	2
109	123	1
95	125	1
0	0	2
30	30	2
62	115	2
61	65	3
15	127	4
21	56	1
30	32	4
82	87	1
92	94	1
114	121	3
82	83	2
119	119	3
55	59	2
50	50	4
77	78	1
57	59	1
126	128	1
67	69	1
62	69	1
47	64	1
125	125	3
98	123	2
14	67	1
14	80	1
56	56	2
72	72	1
107	109	4
134	135	2
113	116	3
16	17	2
89	125	2
11	26	5
52	53	1
2	2	2
85	119	2
119	123	1
125	133	2
97	121	1
70	72	1
44	82	1
109	111	2
79	79	5
125	126	1
49	65	2
103	104	1
130	130	1
113	113	1
132	132	1
83	84	1
68	69	1
107	122	1
49	133	1
36	84	2
8	9	1
118	118	2
115	120	1
86	95	1
45	72	1
99	122	1
97	99	1
126	131	1
17	34	1
26	36	1
52	66	2
110	114	1
102	102	1
71	74	1
6	9	1
78	82	1
82	86	1
70	71	1
50	60	1
17	19	1
13	14	1
63	63	1
11	46	1
78	86	1
