99	99	23
94	94	20
78	79	2
80	80	10
111	111	15
139	139	22
98	98	16
131	131	31
122	123	9
125	125	28
120	120	15
121	122	12
113	114	9
127	127	31
116	116	10
12	13	6
37	37	10
83	84	10
116	125	3
129	129	21
124	125	18
27	29	6
14	14	13
102	125	2
103	103	18
72	72	8
85	86	2
34	34	14
133	133	22
128	128	15
77	77	24
123	123	18
114	114	25
126	126	17
115	115	17
19	20	6
82	83	11
71	71	9
19	19	17
37	127	1
10	11	8
135	135	14
6	6	13
32	32	22
136	136	21
2	2	18
20	21	2
12	32	3
108	109	5
138	138	13
116	119	1
36	36	29
30	30	9
109	111	1
128	131	2
130	134	3
125	126	8
118	118	17
136	137	9
79	80	12
87	87	25
3	5	3
116	123	3
90	92	1
94	133	4
102	102	26
92	92	10
85	85	12
75	75	12
93	93	8
113	113	11
0	1	5
17	17	9
22	22	13
30	31	1
25	26	2
29	29	4
2	3	1
17	20	6
3	4	17
100	111	2
10	10	9
95	95	3
104	104	10
73	73	19
90	101	3
122	122	19
110	110	25
21	21	15
12	12	21
22	34	1
132	132	25
86	87	3
106	106	8
122	124	1
76	77	12
140	140	22
24	24	10
96	96	13
134	134	26
9	9	6
1	1	12
121	121	19
89	98	5
112	112	13
76	76	3
35	35	13
117	117	15
33	33	16
108	123	2
4	5	5
84	85	7
85	110	1
17	18	8
101	101	23
81	110	4
126	127	2
116	129	7
81	81	6
91	94	3
137	137	12
96	112	3
75	76	9
71	73	4
90	90	6
28	32	4
93	94	9
7	7	11
84	84	10
111	112	6
100	101	7
139	140	8
15	16	9
18	18	4
117	120	4
86	86	9
134	135	7
74	75	3
103	105	4
119	119	13
11	11	1
128	129	6
106	109	3
81	85	1
137	138	3
31	31	7
98	135	2
38	39	1
23	25	3
14	15	1
91	92	1
23	23	10
16	16	8
125	128	1
124	124	24
130	130	15
117	125	3
106	107	5
82	82	14
131	132	5
13	14	6
4	4	20
71	80	2
15	17	2
89	96	3
27	27	9
95	96	5
89	89	3
95	123	3
92	122	1
88	88	5
127	129	4
81	84	3
26	27	4
36	37	7
97	97	5
120	122	1
107	107	15
105	105	6
77	78	10
98	99	3
85	92	3
72	75	4
125	129	2
129	130	9
108	108	15
13	20	1
134	137	4
71	81	2
3	3	10
13	13	11
123	124	6
112	114	3
8	8	6
102	103	2
24	25	7
107	108	8
29	30	5
83	83	4
8	9	7
117	118	1
78	78	6
25	25	7
74	74	8
109	109	10
80	81	6
19	21	3
88	122	1
81	82	1
90	91	2
78	80	1
95	131	3
23	24	1
8	11	1
7	31	1
97	98	1
79	79	5
44	44	2
22	23	2
109	113	3
75	77	5
28	29	2
37	38	5
89	95	2
99	100	1
101	102	4
28	28	7
103	104	5
20	20	8
79	100	3
76	108	1
0	0	7
108	120	2
120	123	1
5	5	5
26	29	6
119	120	4
110	118	2
90	95	5
105	107	3
21	22	6
88	102	2
114	116	3
102	104	1
104	107	1
116	117	1
95	129	3
101	111	1
89	90	6
26	26	8
121	123	2
15	15	4
101	104	3
117	124	1
18	19	1
127	128	1
125	127	2
103	107	1
135	138	3
28	31	2
100	100	6
23	26	3
73	74	2
123	129	2
117	123	4
133	134	2
38	38	1
87	88	3
138	139	3
35	37	1
73	122	1
0	7	2
110	111	4
118	119	2
74	80	1
104	106	1
124	129	2
31	32	1
81	111	1
22	120	1
86	88	1
131	135	1
119	123	1
90	96	2
120	121	3
71	83	1
34	35	1
37	86	1
140	141	2
71	72	3
6	7	1
16	25	1
71	75	2
72	80	1
130	133	1
113	117	1
80	87	1
94	95	1
22	28	1
22	25	1
108	113	1
34	36	1
115	116	2
73	76	1
136	139	2
110	113	1
95	115	1
73	77	1
72	73	1
129	131	1
77	100	1
90	94	1
34	140	1
91	93	2
9	10	1
77	79	1
123	126	2
0	21	1
105	106	3
79	117	1
107	109	1
96	131	1
72	74	1
114	115	2
108	122	1
1	12	1
11	12	1
16	17	1
82	84	1
135	137	1
112	113	1
135	136	1
72	88	1
74	100	1
33	34	1
88	90	1
118	123	1
15	26	1
91	91	1
