98	100	3
34	34	18
176	176	9
160	183	1
230	232	3
35	35	9
156	156	13
157	157	13
77	77	8
238	239	15
231	244	1
174	176	2
59	60	5
25	26	8
215	215	7
245	245	6
47	61	2
113	114	4
161	161	7
248	248	15
172	173	3
234	234	3
166	166	10
15	86	5
67	67	3
156	157	7
208	209	6
57	58	13
49	49	19
18	72	3
5	231	2
101	101	7
174	175	2
169	169	3
78	78	18
152	158	1
20	20	15
182	182	14
243	243	12
186	188	1
69	75	7
191	191	11
55	56	1
4	4	5
232	232	12
99	104	1
150	151	8
69	70	5
153	157	2
112	112	3
219	219	12
203	204	1
180	180	18
181	181	7
71	71	6
36	36	6
240	240	11
193	216	3
200	200	17
183	184	1
214	215	3
41	41	5
211	211	15
118	118	8
174	174	10
19	46	2
146	146	10
86	86	4
120	120	6
169	170	3
157	158	5
76	96	3
111	244	8
101	103	2
94	96	1
22	23	6
72	72	15
64	72	2
192	199	6
42	43	2
54	54	13
223	223	10
116	225	1
35	78	1
23	23	9
201	202	3
192	192	6
39	39	11
86	87	3
190	192	2
236	236	7
85	85	13
76	77	5
167	167	11
63	64	2
170	238	1
190	210	2
198	198	15
5	5	1
61	61	7
87	88	3
42	42	11
174	178	2
173	173	5
58	58	8
40	40	11
209	209	23
106	107	2
181	182	4
151	151	10
168	168	21
106	106	9
88	114	1
82	82	7
10	10	10
223	227	6
239	240	3
155	207	1
228	228	7
164	164	7
189	190	2
105	105	6
24	24	7
107	107	12
52	53	2
85	87	8
48	48	2
210	210	12
242	242	4
197	198	11
163	163	6
9	9	20
228	229	5
205	205	8
212	212	14
60	62	3
110	112	2
30	30	8
168	169	10
1	1	4
116	116	15
4	5	6
79	79	4
179	179	8
159	208	6
22	22	9
63	63	6
109	109	12
53	54	2
185	185	7
96	97	4
226	226	8
172	172	9
91	91	5
7	7	11
112	113	4
225	226	10
102	102	5
18	110	3
51	51	20
199	217	5
176	177	10
152	153	5
109	113	1
155	161	3
73	73	1
96	96	9
67	68	4
182	184	2
195	195	8
211	223	2
8	8	4
59	59	10
111	111	10
10	11	4
220	220	6
15	15	5
91	116	1
84	85	6
247	247	10
232	235	2
32	32	8
97	101	4
43	43	8
237	238	10
98	98	6
210	213	2
215	216	6
30	31	1
114	114	11
186	209	8
89	89	12
84	88	2
76	76	13
173	204	3
28	28	4
62	62	6
45	45	9
237	237	10
218	219	7
18	18	16
37	38	4
202	202	12
229	230	3
87	87	3
115	115	12
100	100	3
75	75	3
215	219	5
239	239	17
73	74	10
167	168	5
162	162	9
187	214	2
37	39	4
29	29	10
199	199	6
244	245	7
213	213	18
229	229	10
52	52	4
82	83	4
226	227	5
104	104	1
155	155	6
243	247	5
235	237	2
80	81	12
113	113	6
231	233	1
220	230	3
76	80	3
51	56	3
216	216	6
55	57	2
193	193	4
44	45	3
32	35	4
44	44	11
190	190	14
114	181	3
49	50	9
88	89	4
158	158	9
145	145	7
201	221	4
201	201	7
21	21	5
83	89	1
222	225	2
175	175	22
225	225	9
214	214	6
217	247	2
191	194	2
25	25	6
65	65	4
203	203	16
92	92	13
196	208	3
28	41	2
155	186	1
23	24	2
47	47	6
51	105	2
12	14	3
186	187	3
33	34	5
180	181	2
175	177	1
171	171	8
187	187	11
74	74	14
163	182	1
24	43	2
197	197	8
81	81	5
238	240	6
210	211	1
152	215	1
204	205	1
27	27	7
236	237	3
207	207	5
150	150	5
238	238	10
40	217	4
57	76	3
60	60	5
166	182	1
247	248	8
90	97	1
77	80	5
61	63	1
33	33	1
39	40	2
56	56	13
14	14	7
9	19	3
101	104	3
208	208	4
241	241	9
231	231	6
30	83	2
178	178	15
246	246	1
26	26	6
86	91	2
58	96	2
158	159	4
187	190	4
231	235	1
208	210	1
69	78	1
76	103	3
204	204	12
117	117	9
231	246	3
66	67	3
34	144	1
231	247	2
173	198	1
95	96	3
184	184	1
154	154	10
61	168	3
35	36	1
60	75	7
85	86	5
170	244	3
1	13	3
16	32	3
180	225	3
234	235	1
171	173	1
90	90	4
50	50	4
17	94	5
206	206	3
196	196	2
224	224	7
159	176	4
159	159	7
199	200	2
65	67	2
17	18	7
22	40	4
55	58	1
152	152	6
233	233	5
53	53	5
71	87	1
147	214	2
70	161	3
89	90	4
68	85	1
227	227	3
193	194	8
83	83	3
153	174	1
30	34	1
37	37	11
110	110	12
230	230	14
238	241	1
193	211	1
59	76	3
91	92	5
75	149	3
222	222	4
93	93	3
52	57	1
48	64	5
183	183	10
224	225	2
97	98	4
169	192	2
14	15	7
146	224	4
33	35	1
161	177	2
2	2	5
221	221	7
57	57	3
177	177	6
211	214	2
68	68	3
146	147	4
173	177	1
4	6	3
119	119	3
180	183	1
17	17	4
151	153	3
208	211	4
186	241	4
64	64	5
69	100	1
104	105	2
206	207	1
149	149	5
58	74	2
212	223	3
98	99	3
218	218	4
200	222	1
208	221	1
213	218	3
55	55	3
116	117	1
97	97	2
46	46	8
4	50	2
94	95	2
105	107	1
16	16	1
95	97	1
3	54	3
79	80	1
52	70	2
74	75	1
88	88	3
63	168	1
197	216	4
160	201	3
189	196	4
189	189	5
61	62	2
240	241	2
158	160	4
38	38	4
180	186	5
60	76	1
14	113	1
33	50	1
220	221	4
48	50	2
230	233	2
217	217	8
147	211	2
152	192	2
3	3	6
162	210	4
108	108	2
193	196	3
200	202	2
69	69	11
150	192	1
6	6	2
80	80	2
6	231	4
78	95	3
66	66	6
183	189	1
15	19	1
64	168	2
186	186	4
65	66	1
48	58	1
39	91	3
158	169	2
48	63	3
31	31	4
52	55	1
38	39	2
167	220	1
231	232	1
72	183	1
194	194	4
19	19	4
33	73	2
95	102	2
91	93	1
188	188	3
90	91	5
67	72	2
178	185	2
61	169	1
188	190	6
56	71	2
75	77	4
232	237	2
202	203	1
166	181	2
162	185	2
93	94	2
39	115	1
213	217	5
81	226	2
220	227	3
70	70	5
93	116	1
194	195	4
164	191	1
207	220	1
96	98	1
163	164	1
147	147	2
160	171	2
165	165	3
114	115	5
18	42	1
213	214	4
93	109	1
211	228	1
218	245	3
218	244	2
111	116	1
92	116	1
99	99	2
242	244	1
112	115	2
170	170	6
3	65	2
161	175	2
11	11	5
21	22	1
214	223	1
244	244	3
200	226	1
70	75	2
156	207	1
179	223	1
19	20	1
187	189	1
8	41	2
186	244	2
62	74	2
103	103	3
209	210	4
177	178	1
83	84	3
95	95	3
239	241	3
51	62	1
189	191	2
245	246	5
11	65	1
75	80	2
27	28	1
229	244	2
214	221	2
64	162	1
173	199	1
145	198	2
241	247	1
157	189	1
96	102	2
168	170	2
40	41	3
105	106	3
165	182	3
4	48	2
6	7	1
191	210	1
11	12	6
95	98	1
22	41	1
235	235	3
63	164	1
189	212	2
184	185	5
221	222	1
225	227	5
216	245	3
4	68	3
18	41	1
179	200	2
77	81	2
3	231	1
86	90	4
181	227	3
5	48	1
21	43	1
169	171	1
197	211	1
15	18	1
163	181	1
60	69	1
47	58	1
92	93	1
182	183	3
109	110	1
151	239	1
78	79	2
209	217	1
30	35	1
186	198	1
46	47	2
1	7	1
223	224	1
172	176	3
30	48	1
179	180	1
114	116	1
36	38	1
19	41	1
187	188	1
36	37	1
25	203	2
28	32	1
50	73	2
172	242	1
99	102	2
209	211	1
5	55	1
172	198	1
19	51	2
111	112	3
73	96	2
62	170	2
12	12	4
61	67	1
160	181	1
6	42	2
75	103	2
10	12	2
191	195	1
160	160	2
188	189	1
150	189	1
35	37	2
165	184	1
48	54	1
121	121	1
200	201	1
118	119	1
153	154	1
170	245	1
84	86	1
14	111	1
69	77	1
216	218	1
34	73	1
33	55	1
54	55	1
2	16	2
54	231	1
60	64	1
197	199	1
30	92	1
38	40	1
166	191	2
69	79	1
199	223	1
232	243	2
233	235	1
163	165	1
202	220	1
64	70	1
163	177	1
166	173	1
211	212	1
3	37	1
108	247	1
216	217	1
46	62	1
68	75	1
5	246	1
232	241	1
32	38	1
93	95	1
144	145	1
47	48	2
115	116	1
212	224	1
183	185	1
63	66	1
