7	7	8
96	97	3
106	106	1
63	63	6
52	70	5
49	77	2
58	58	3
45	86	1
0	0	5
112	113	3
64	64	11
30	31	6
2	5	3
24	24	6
92	93	1
26	26	2
27	28	7
121	121	8
127	129	3
82	85	2
127	127	3
62	63	8
115	115	6
98	100	3
126	126	6
32	33	5
73	74	2
4	6	3
35	35	7
88	95	4
35	38	1
92	92	10
43	45	1
113	113	1
65	70	6
112	112	4
105	105	6
118	125	3
114	115	2
38	38	3
18	18	9
74	74	3
77	77	7
91	93	3
23	24	3
125	125	3
34	35	3
79	106	6
99	99	3
67	67	2
63	73	3
76	76	7
76	81	1
49	49	1
84	84	5
69	75	5
14	15	2
22	22	4
93	93	11
83	83	4
5	5	5
71	71	5
8	35	1
37	95	1
75	77	1
89	90	4
131	131	3
78	78	5
101	101	5
126	127	4
1	1	4
83	86	3
11	11	3
94	94	11
85	85	7
114	114	5
45	51	3
96	98	3
68	69	1
97	113	2
53	53	8
116	118	3
110	111	4
68	68	5
135	135	4
23	23	5
97	97	1
87	96	1
52	53	3
55	57	3
65	65	3
121	122	3
17	18	2
101	102	2
128	128	5
14	29	1
89	89	2
75	76	3
109	130	2
115	117	5
30	30	8
8	43	1
50	53	1
20	21	1
62	62	3
56	56	2
50	50	8
104	104	6
117	117	4
90	90	6
70	70	4
28	28	2
103	103	7
60	76	3
78	79	3
120	120	4
24	25	3
87	87	4
55	55	4
75	75	7
33	33	7
130	130	2
13	84	1
116	116	9
87	88	2
71	72	2
72	73	4
44	44	7
6	6	5
65	66	5
45	87	2
50	120	4
53	54	4
18	24	2
95	95	4
17	19	1
80	80	3
22	23	1
73	73	6
83	84	1
122	122	1
102	102	5
86	87	3
13	14	1
60	60	2
132	132	2
88	88	3
93	94	1
117	118	1
119	119	2
34	79	2
129	131	1
72	72	2
15	15	1
96	96	1
89	91	1
59	59	5
96	112	1
79	80	6
98	98	5
13	16	2
108	108	2
3	4	2
61	61	2
70	71	2
61	62	1
133	134	1
69	69	2
10	56	2
130	131	1
134	134	3
99	100	1
2	2	1
131	132	2
62	74	1
127	128	1
48	48	2
109	109	1
3	30	1
78	85	1
23	95	1
17	17	1
8	85	2
16	27	3
123	124	1
16	20	1
8	8	1
91	91	4
86	86	2
66	67	2
44	58	2
27	27	2
43	43	2
77	79	4
66	68	1
96	106	1
3	5	1
34	34	5
16	16	1
1	2	2
88	90	1
76	77	2
113	114	3
26	27	1
4	30	1
53	77	1
28	29	2
72	74	4
31	31	6
90	93	2
107	111	1
111	111	4
12	16	1
14	14	1
132	133	1
79	79	2
0	1	3
133	133	1
113	117	1
108	130	1
32	103	1
114	121	1
13	13	1
106	107	1
25	26	1
124	124	2
110	110	1
3	3	2
103	105	1
30	32	3
23	96	1
124	125	2
14	85	1
21	21	1
74	76	1
125	131	1
109	110	1
97	98	1
15	29	1
4	4	1
114	116	1
50	112	1
94	95	1
114	127	1
124	132	1
98	99	1
63	64	1
25	25	1
9	11	1
67	68	1
