163	163	2
190	190	8
84	84	10
166	168	3
61	82	4
22	29	5
81	81	10
4	5	5
31	31	4
115	135	1
34	34	3
87	89	3
4	9	1
143	144	4
73	74	2
56	77	3
105	105	14
6	6	2
19	40	6
151	151	5
141	143	2
83	83	4
102	103	2
58	59	4
140	140	4
136	137	6
55	55	6
118	163	5
131	131	9
53	53	7
188	190	5
35	44	4
30	30	9
42	42	2
80	80	7
41	41	6
150	150	6
166	185	6
111	111	4
128	128	9
182	182	2
5	14	1
38	38	3
159	166	5
68	68	6
47	48	3
173	174	3
24	24	2
41	42	2
156	162	5
85	90	6
181	181	3
13	13	3
25	27	3
143	143	3
1	2	2
147	147	1
142	142	5
150	154	4
104	105	3
122	157	1
30	31	9
25	33	1
24	87	2
166	181	2
12	12	7
166	166	6
161	180	1
63	65	2
16	16	6
108	111	3
175	175	5
98	98	6
115	130	4
127	129	3
54	78	4
60	79	5
148	148	3
79	79	2
17	30	1
15	16	3
168	168	5
165	165	3
151	183	2
169	169	10
43	43	4
73	73	4
157	166	5
187	189	2
127	127	5
20	86	4
147	183	2
64	64	3
28	45	6
74	74	5
46	46	3
56	56	8
185	185	4
14	32	4
91	95	6
76	76	4
52	55	1
116	117	3
167	176	4
156	179	7
17	18	4
146	146	7
107	108	7
121	158	6
118	119	3
45	45	3
141	145	2
177	177	2
11	12	2
165	179	1
117	117	5
98	106	2
25	26	4
55	63	4
152	152	11
6	7	5
63	63	2
182	187	5
124	125	2
127	130	1
157	158	3
35	35	2
121	131	3
8	8	8
109	110	4
71	72	2
77	77	3
163	164	2
60	80	6
145	166	1
53	61	1
9	12	1
15	31	2
101	101	3
4	4	8
106	106	4
56	82	1
111	130	3
172	172	5
85	85	3
106	113	2
122	122	3
62	63	6
54	55	1
31	32	2
141	141	4
66	66	1
164	179	2
94	94	3
1	5	1
107	107	6
112	115	2
52	82	2
150	165	1
27	34	1
26	26	11
183	183	2
180	180	4
115	115	7
92	94	3
118	121	1
15	22	4
74	75	2
85	91	3
62	62	5
153	153	4
78	78	4
106	120	1
158	182	1
29	30	5
59	68	3
114	120	1
109	109	8
55	56	1
108	108	3
60	97	2
79	80	3
40	40	2
4	22	1
56	81	1
27	31	1
165	181	2
20	41	1
10	13	1
35	37	1
140	189	1
4	8	2
180	181	2
27	27	8
146	148	1
96	96	2
132	132	1
94	98	4
11	28	2
29	35	1
91	91	2
13	14	4
171	171	7
137	143	1
23	24	1
7	7	2
10	10	3
126	128	3
140	173	1
129	152	2
10	33	2
91	97	3
175	176	1
123	179	2
160	160	3
44	47	1
100	105	2
149	149	2
39	39	6
28	30	3
152	153	1
20	42	3
97	97	6
17	37	1
86	87	2
67	67	4
19	20	2
11	45	3
123	126	2
87	88	3
68	80	1
135	148	1
170	170	1
133	134	6
13	42	1
121	121	4
5	47	1
145	145	1
60	63	1
85	88	1
154	154	2
187	187	12
52	64	3
57	85	2
29	45	1
117	118	2
57	78	3
25	25	2
134	134	2
160	168	1
70	74	1
122	124	4
124	124	5
3	29	1
139	151	1
118	136	2
110	110	6
37	38	1
54	54	3
182	183	1
184	185	4
112	112	9
147	148	2
72	72	2
125	126	3
114	116	2
16	33	2
9	36	1
164	188	3
171	172	1
60	81	2
113	121	2
152	184	2
82	82	4
31	180	1
152	170	4
75	176	1
178	182	3
155	155	2
15	15	3
164	175	1
14	14	6
101	163	2
4	15	2
88	88	1
99	102	1
10	22	1
104	104	4
11	13	1
36	37	1
33	33	3
31	82	1
106	109	3
45	46	1
164	164	1
95	95	6
138	140	1
5	5	4
1	1	1
17	27	2
125	125	5
84	86	3
115	116	1
17	17	3
92	92	4
146	151	2
2	2	5
186	186	1
123	123	6
83	84	4
36	36	1
121	156	2
117	121	3
179	181	1
136	136	3
0	0	2
29	29	5
137	137	3
84	85	2
99	99	1
144	154	1
154	183	2
135	139	5
116	133	1
28	29	2
26	40	2
119	121	2
96	111	1
158	161	1
14	16	2
158	168	2
187	188	2
32	41	1
120	132	1
87	87	2
174	185	1
137	138	1
0	6	3
146	177	2
105	141	1
86	86	1
112	140	2
86	89	1
84	87	4
188	188	3
28	28	2
57	63	3
162	164	1
33	42	1
17	22	1
82	85	2
85	92	2
55	62	2
15	23	4
112	114	2
147	157	2
144	184	1
173	173	1
59	60	3
140	141	2
56	78	2
116	116	1
89	90	3
181	182	3
71	71	2
39	40	2
56	86	1
57	87	3
58	99	1
135	136	1
168	175	1
23	23	3
14	15	3
140	156	1
54	60	2
61	163	2
37	37	1
130	135	1
133	136	1
171	174	2
124	145	1
103	135	3
116	128	1
66	68	2
114	177	4
74	174	2
80	81	3
93	94	1
12	46	1
47	47	2
176	177	1
16	17	1
120	131	1
1	7	2
44	57	2
67	81	2
5	7	2
58	101	1
114	182	2
48	57	1
130	138	1
119	119	1
18	18	1
78	79	2
95	101	1
174	176	1
4	6	1
120	120	2
75	75	1
16	27	1
120	123	1
145	170	2
23	34	1
101	102	2
129	129	1
31	85	2
29	57	2
57	89	1
44	44	5
20	20	1
65	68	2
90	90	2
54	59	1
108	158	2
158	190	1
55	60	1
111	113	1
161	165	2
133	133	2
103	103	1
106	107	2
103	139	1
135	164	1
18	37	1
137	190	2
138	138	1
176	176	1
156	161	1
131	163	3
137	161	1
139	140	1
174	174	1
83	87	1
188	189	3
167	167	2
12	30	1
111	112	1
43	44	1
33	45	1
100	113	2
169	170	1
115	190	1
145	179	1
112	113	1
149	162	1
136	182	1
118	162	1
184	184	2
18	27	1
3	41	1
33	34	1
104	114	1
138	153	1
12	13	1
115	154	1
131	138	1
53	55	1
117	119	1
17	34	1
130	133	1
3	18	1
66	70	1
