161	161	4
98	98	6
157	157	4
18	18	5
5	6	2
51	51	3
158	200	1
12	29	2
102	102	11
70	70	13
178	181	4
102	105	1
33	57	1
3	57	2
202	202	2
2	54	3
34	54	1
229	229	2
55	56	1
141	180	2
3	13	4
81	81	6
50	50	2
172	172	4
142	143	3
11	14	3
123	123	2
194	236	3
212	212	3
232	232	2
4	34	1
238	238	3
46	46	2
6	6	2
19	52	2
194	195	2
37	37	3
80	123	1
200	200	8
158	158	3
75	76	2
77	78	3
135	135	4
9	26	1
6	7	2
105	105	2
48	48	6
136	190	1
8	8	10
3	3	4
14	14	7
179	179	2
32	32	3
4	17	2
107	107	3
235	235	1
42	42	5
231	231	5
128	128	4
174	174	3
101	101	2
19	48	4
8	49	2
192	192	2
53	74	2
10	10	6
200	209	3
191	191	3
52	52	4
118	118	3
150	154	4
205	205	3
232	233	2
74	127	3
21	21	4
109	109	1
6	34	3
71	73	2
83	83	4
220	221	3
45	45	6
59	100	2
29	29	9
74	74	6
171	171	4
240	240	2
169	169	4
7	204	6
69	69	1
234	234	3
189	189	10
61	61	6
73	73	3
197	198	1
23	24	2
167	170	2
47	65	2
132	132	3
78	78	4
125	126	4
62	63	6
58	58	1
88	95	1
122	122	3
66	66	2
42	44	3
85	85	2
204	236	2
66	138	2
217	217	3
139	154	6
184	184	2
63	63	1
35	36	3
12	12	4
40	40	4
196	196	3
209	210	6
57	58	3
64	65	1
22	22	3
45	63	2
9	9	2
167	168	2
67	67	1
126	137	2
65	65	6
187	187	3
105	108	1
33	33	2
31	31	4
23	33	2
204	206	3
59	132	1
115	118	1
39	39	3
147	149	1
43	43	6
137	137	1
74	196	1
101	102	1
207	212	1
17	47	3
197	197	1
11	58	4
155	155	1
159	159	1
12	13	1
131	132	1
1	3	4
34	34	5
17	17	4
21	23	2
24	61	1
236	238	1
187	195	1
168	169	2
34	35	7
144	144	3
199	199	5
4	5	3
141	185	2
122	148	1
220	220	2
148	151	2
193	200	2
121	121	4
47	47	2
49	49	3
155	169	3
73	74	1
211	218	1
163	163	5
38	38	3
7	8	3
195	231	1
211	213	1
207	207	1
57	150	1
4	4	4
108	108	3
137	138	4
166	167	2
52	194	3
76	78	2
99	99	1
236	236	5
219	219	1
19	41	3
134	134	1
77	123	1
101	106	2
153	156	2
213	232	1
159	160	3
77	80	1
181	197	2
184	198	1
120	120	6
166	169	1
194	194	2
15	15	6
60	61	1
53	53	3
30	31	4
184	185	4
146	146	5
62	62	7
15	19	3
178	178	1
126	138	1
165	165	3
19	19	1
113	114	1
75	80	1
192	230	2
167	179	2
2	2	2
7	7	2
6	8	2
188	188	2
25	25	3
37	40	1
46	85	1
185	187	1
163	166	2
116	118	1
55	55	4
4	7	3
88	100	2
59	60	1
29	31	3
81	82	1
1	55	1
43	44	2
156	156	1
185	186	4
112	112	1
11	11	1
214	214	5
138	154	2
237	237	3
148	148	1
141	155	1
82	84	3
195	196	2
182	184	1
235	236	1
201	201	1
217	218	1
230	230	1
112	113	2
6	50	2
107	108	2
64	75	1
126	126	4
64	64	1
19	20	2
151	151	1
239	239	3
52	53	2
161	162	1
179	180	1
64	76	2
151	152	2
49	54	2
77	79	1
143	143	2
218	218	1
88	88	1
225	225	2
23	23	3
123	148	1
138	138	3
45	47	2
60	60	4
129	131	1
116	119	1
115	115	1
56	56	1
162	163	1
144	145	3
62	114	1
25	26	4
40	59	2
95	95	2
15	16	1
30	30	2
53	240	3
70	71	1
237	239	1
24	25	3
164	164	2
222	222	3
0	0	1
80	80	3
233	233	2
142	195	1
141	142	3
209	231	1
18	41	2
138	167	2
150	151	1
185	185	3
139	165	1
35	221	2
44	71	1
16	21	1
21	22	3
68	68	3
206	206	3
28	28	1
102	103	3
60	69	3
41	137	2
167	167	2
176	178	1
16	16	4
54	55	3
0	9	1
216	216	1
209	209	1
201	212	2
15	38	1
77	77	1
152	153	2
57	60	1
0	15	1
180	180	1
221	221	1
22	23	2
110	110	1
140	142	1
140	140	1
216	223	1
114	135	2
19	24	1
6	30	2
13	13	1
121	122	1
55	153	2
1	1	1
19	51	1
37	53	1
104	104	1
63	64	1
59	59	1
17	40	1
215	215	1
201	203	1
54	191	1
207	229	1
7	15	1
147	147	3
40	41	1
104	107	1
186	186	1
208	208	1
158	199	1
2	7	1
35	35	1
193	193	1
118	123	1
149	149	1
197	226	1
