29	29	16
29	36	1
55	55	16
16	18	14
154	162	3
151	151	6
143	145	8
90	90	7
94	96	4
81	96	1
83	83	9
6	17	4
103	105	2
94	103	1
86	86	10
103	103	4
40	41	20
161	161	17
26	26	14
172	172	11
10	14	4
36	36	22
43	44	6
31	31	27
75	75	12
87	87	7
81	81	6
11	13	3
153	170	2
123	123	18
2	9	6
1	4	14
28	87	3
126	126	16
32	34	3
166	166	18
138	138	17
114	114	18
11	15	4
65	65	17
143	143	15
36	42	1
79	79	15
16	17	2
4	4	25
12	12	13
15	15	30
40	40	21
111	112	17
3	3	32
150	150	14
56	56	16
112	132	1
110	112	14
25	25	25
12	13	18
24	24	17
132	134	1
9	30	1
165	165	9
96	98	6
31	32	13
22	22	11
17	17	26
44	44	15
95	95	18
133	150	2
167	167	15
142	143	3
9	20	6
37	37	24
116	116	16
90	94	2
19	19	21
110	111	16
115	115	16
156	156	17
112	112	19
13	13	15
81	110	1
33	33	13
75	82	8
63	63	11
4	9	6
5	36	6
2	2	18
170	170	20
18	18	31
24	26	12
89	101	4
178	178	9
113	114	8
110	110	5
4	19	4
61	61	17
62	66	7
119	120	7
125	135	2
62	62	13
12	15	3
118	119	5
106	106	10
14	16	4
89	89	20
3	4	9
30	30	15
141	148	5
64	65	5
161	162	8
63	131	2
104	105	3
144	144	8
30	37	4
158	158	16
38	38	31
23	28	5
120	120	13
19	22	6
9	9	28
86	98	4
152	152	7
18	19	4
140	140	18
121	121	13
60	60	14
174	178	5
79	80	5
34	34	19
11	12	10
54	54	11
152	165	2
5	8	4
32	33	6
64	64	10
74	75	5
100	100	17
33	34	10
23	24	10
97	97	15
4	8	2
142	148	2
36	38	4
53	53	4
39	40	18
87	88	10
29	30	8
107	116	1
37	39	1
131	149	3
71	71	22
66	67	5
114	128	4
140	141	7
80	80	11
146	146	16
61	62	7
123	124	5
174	174	13
141	141	19
2	20	3
178	179	2
94	94	12
39	39	28
78	78	7
103	106	6
143	144	11
175	176	6
122	123	5
66	66	10
4	12	2
105	109	1
8	8	15
122	159	2
8	16	6
43	43	17
9	10	10
10	15	5
149	150	3
27	27	31
130	130	8
35	36	9
136	149	2
145	172	2
119	119	3
134	134	13
102	102	14
126	128	4
117	119	3
15	19	2
30	33	3
90	93	7
160	160	12
88	89	7
135	136	8
28	29	8
24	25	18
107	131	2
15	16	7
20	20	25
132	132	10
5	6	12
129	129	13
95	98	2
139	139	10
37	40	2
94	95	8
38	39	14
139	142	3
151	167	3
67	68	6
113	113	3
45	45	12
42	43	2
155	168	3
136	136	13
86	102	2
10	10	18
134	141	1
137	147	1
142	142	9
1	2	9
145	145	16
8	11	2
42	42	28
58	58	4
106	107	9
152	153	6
16	16	13
113	115	7
92	92	9
108	110	2
155	164	1
91	91	9
137	137	16
35	41	2
63	64	3
171	171	18
3	11	3
169	169	12
64	66	4
160	162	5
97	102	4
83	84	13
56	58	4
145	153	1
11	11	21
146	148	2
170	171	3
28	28	13
112	150	5
156	157	3
165	170	3
7	7	21
20	23	4
22	23	6
137	138	3
98	98	8
28	31	2
102	116	3
173	173	9
78	81	5
5	34	4
126	130	6
133	134	6
135	135	16
0	0	8
41	43	3
23	23	14
51	53	3
7	16	1
164	164	8
49	49	4
155	167	3
35	35	19
6	6	23
110	113	2
26	28	9
142	145	6
76	132	5
9	18	2
104	115	2
108	114	1
113	127	2
74	74	20
27	33	1
59	59	10
53	54	9
41	42	14
32	32	19
152	163	1
50	51	5
128	128	10
154	160	3
73	73	11
51	51	9
148	157	1
30	31	1
8	9	11
14	14	23
35	37	1
167	171	4
112	142	2
57	57	8
40	42	2
20	22	3
108	142	2
10	11	5
127	141	2
23	29	6
130	151	3
18	20	4
82	82	3
103	140	2
12	14	14
174	175	1
159	159	9
86	87	9
144	146	1
129	147	1
96	161	1
9	13	2
5	7	5
151	153	1
124	125	9
128	129	10
58	74	2
13	14	12
35	43	3
125	125	12
91	94	5
92	105	1
105	105	8
50	50	8
25	91	2
124	124	12
134	135	5
0	1	13
173	174	3
102	103	6
176	179	1
55	137	1
152	154	4
27	29	1
159	161	4
108	108	12
37	38	7
41	41	19
167	169	2
80	81	2
85	85	10
125	126	5
28	30	7
2	16	1
26	27	5
60	61	2
126	127	6
123	125	10
71	73	2
21	21	14
133	133	6
34	35	3
168	169	4
154	155	6
8	20	2
175	180	4
160	163	4
88	88	13
122	124	4
19	56	2
10	20	2
9	11	9
12	19	2
6	7	4
92	93	6
159	160	5
111	111	12
127	136	2
27	28	5
125	127	2
168	168	5
52	52	7
38	40	3
4	5	3
5	20	3
127	127	7
25	30	2
66	97	2
73	74	2
96	100	3
68	68	3
72	73	2
75	77	4
112	151	1
83	110	5
3	16	1
62	64	6
131	131	15
84	159	4
13	38	3
27	34	1
118	118	4
7	8	6
24	34	3
59	62	1
6	9	2
104	107	3
72	93	2
96	96	7
11	16	2
117	117	4
154	169	5
158	159	7
147	147	6
84	85	2
3	50	6
1	11	1
31	33	3
95	96	2
176	176	10
62	67	4
89	99	1
72	72	10
109	109	3
111	114	3
99	100	6
172	173	4
163	169	2
155	155	10
33	93	2
88	102	2
23	34	1
94	98	2
91	92	3
141	144	1
180	180	7
151	155	3
96	97	2
157	157	5
127	128	4
102	118	1
116	120	2
104	104	9
162	162	5
160	167	2
15	17	3
119	156	3
123	131	1
4	13	3
59	61	3
27	122	2
11	21	1
151	152	3
19	20	4
28	93	4
86	89	3
157	158	14
163	164	5
28	73	1
120	121	9
116	119	5
161	163	4
130	168	3
25	26	14
6	15	4
149	149	14
100	101	3
7	34	1
10	18	4
178	180	1
108	109	6
83	85	5
93	93	3
50	54	5
85	103	1
3	5	5
80	96	4
49	50	5
118	121	1
153	153	11
174	179	1
89	93	1
149	169	1
13	159	1
54	63	1
179	180	7
141	171	2
162	171	1
135	177	1
5	5	10
65	79	4
1	1	11
150	169	2
71	72	2
4	11	4
82	83	1
110	114	2
26	29	1
156	168	1
84	84	6
152	170	2
52	53	7
12	37	1
154	154	8
99	115	4
3	62	3
10	17	4
154	168	5
99	99	2
56	57	1
152	166	2
7	9	1
9	33	3
44	45	6
175	175	3
147	148	1
134	137	1
98	101	3
19	23	3
146	147	6
3	18	3
4	42	2
122	122	3
22	25	2
14	15	6
154	170	3
97	99	1
9	15	2
51	66	1
88	98	2
67	77	2
27	39	2
70	71	2
103	104	9
98	116	2
138	140	1
78	161	2
78	141	2
163	166	2
8	10	2
144	145	1
85	106	3
58	59	5
142	146	4
57	59	1
1	31	2
90	100	2
162	165	2
166	167	3
24	92	3
140	171	1
66	98	3
81	85	3
16	20	2
23	25	1
130	131	7
114	127	2
95	97	1
138	139	4
3	9	2
100	121	2
95	167	1
129	167	2
8	19	3
55	56	4
2	3	6
177	177	2
107	107	3
42	53	2
148	148	4
88	91	2
102	108	3
153	167	1
176	177	1
76	76	9
82	84	2
80	82	2
34	40	4
129	135	1
25	28	3
177	178	2
6	25	1
156	159	2
88	122	3
67	78	1
10	93	2
96	159	1
29	32	3
29	31	3
81	167	1
51	52	3
32	36	2
139	140	2
156	167	2
176	178	1
151	163	4
77	77	3
5	10	1
49	51	2
26	30	2
88	101	2
3	7	1
116	117	1
163	168	3
105	107	2
31	34	2
156	171	2
11	19	2
107	108	2
126	136	2
66	75	2
99	101	3
179	179	2
128	131	2
78	79	1
98	119	2
114	115	1
8	15	1
122	125	1
50	52	1
121	122	1
8	18	1
100	116	5
17	18	4
37	41	2
8	34	4
93	104	2
153	168	4
101	101	9
131	137	1
163	170	1
2	4	3
30	32	2
43	45	6
112	143	2
74	77	1
115	116	3
166	170	3
80	90	2
82	85	1
136	155	2
151	164	2
134	136	3
107	135	2
160	161	2
157	164	1
31	35	1
112	113	3
7	19	1
13	40	2
104	127	2
65	66	3
29	35	4
88	99	1
38	149	1
5	9	1
3	8	1
120	162	1
36	37	2
59	60	1
107	160	1
25	94	1
24	77	1
20	21	4
168	171	2
17	19	4
13	15	2
126	155	4
25	92	1
15	30	3
90	91	1
68	98	1
150	164	1
131	132	1
19	172	1
101	102	3
141	145	1
167	172	1
5	31	1
51	73	1
102	127	1
128	145	1
115	127	2
55	58	2
21	26	2
174	176	1
98	121	1
147	159	2
127	129	1
151	162	1
23	35	2
91	93	1
4	21	1
16	21	1
124	167	2
121	123	1
125	165	3
103	107	1
127	130	1
130	137	2
167	168	6
131	133	1
45	54	1
108	146	5
86	120	1
146	155	1
129	130	1
23	58	1
28	40	1
36	43	1
137	139	1
7	158	1
76	82	1
131	144	1
87	89	1
68	71	2
153	154	1
104	114	1
74	78	1
20	26	1
151	169	2
94	115	1
117	118	1
177	180	1
1	149	2
26	147	2
66	78	1
21	22	4
165	166	1
156	164	1
151	156	1
137	148	1
24	27	2
74	82	1
105	124	1
164	166	1
24	31	1
89	133	1
30	36	1
35	42	1
164	170	3
126	153	1
111	131	1
67	67	2
107	161	1
141	146	1
11	37	1
20	91	1
10	137	1
102	104	3
119	123	1
101	121	1
64	67	2
21	56	1
163	163	1
6	16	1
67	80	2
123	126	1
33	68	2
2	33	2
136	146	1
150	171	1
104	106	1
74	79	1
27	31	1
41	44	1
45	46	1
107	136	1
156	160	1
23	26	1
103	108	1
8	29	1
41	63	1
98	99	2
74	81	1
108	134	1
152	169	1
132	149	1
39	42	1
20	94	1
107	114	1
58	66	1
107	113	1
3	12	1
101	118	1
53	61	1
165	168	1
10	12	1
24	76	1
132	133	1
