97	98	12
100	100	9
8	24	7
54	54	16
88	90	5
74	74	4
11	11	4
68	124	2
66	67	3
78	97	3
85	111	5
100	101	5
102	102	5
85	85	7
121	122	1
50	50	5
18	19	8
0	0	9
87	87	12
88	89	2
12	12	9
129	129	11
58	67	4
57	57	5
63	112	4
34	34	8
29	29	7
1	70	1
78	116	2
5	35	4
118	118	15
83	110	2
129	130	2
116	116	3
78	85	2
84	84	4
82	131	2
84	107	6
10	23	1
27	28	2
54	56	4
117	117	5
70	70	10
101	101	5
15	78	2
114	114	7
108	108	10
25	37	2
71	72	4
112	112	2
124	125	4
32	32	5
94	94	6
124	124	5
43	45	1
61	79	5
105	108	3
5	7	1
23	26	2
67	67	3
126	130	4
49	49	5
123	123	10
125	125	1
53	53	5
126	129	7
97	97	11
66	96	5
26	26	2
46	60	4
24	24	3
4	5	5
81	81	5
96	96	6
13	80	4
128	128	3
115	117	4
69	83	1
130	131	4
57	63	11
44	44	4
56	105	2
14	55	1
127	127	6
68	82	2
62	63	8
77	81	2
107	108	5
81	94	2
90	90	4
93	93	7
66	66	4
110	110	2
64	65	1
30	30	3
132	133	3
119	119	5
120	120	8
12	13	2
67	78	1
55	55	10
76	76	7
68	68	5
3	3	12
81	107	3
21	21	2
14	14	7
111	113	4
92	93	2
19	19	15
53	56	3
60	84	2
63	65	2
122	125	1
93	94	2
104	104	8
125	129	1
16	16	3
89	89	3
56	56	2
92	92	12
52	52	5
99	99	4
63	63	6
77	78	2
96	97	4
105	117	3
121	121	7
105	115	1
71	71	11
107	107	4
45	45	8
35	35	2
47	49	2
1	1	8
67	106	2
50	55	5
126	132	2
99	100	4
50	52	2
43	43	8
3	4	2
35	36	6
69	82	2
32	34	2
68	79	3
30	32	2
14	117	3
73	73	7
83	83	4
134	134	2
59	60	2
135	135	2
8	23	1
133	134	2
87	88	3
106	121	2
16	17	5
105	105	7
71	92	4
55	56	3
5	5	4
16	65	1
112	113	3
69	69	4
67	69	3
46	51	1
65	67	1
103	103	3
10	46	3
10	19	1
44	58	1
6	6	2
57	105	3
90	134	2
121	130	2
8	9	1
77	79	2
72	72	4
130	130	2
58	77	4
117	118	3
24	25	5
44	45	3
8	8	2
60	60	4
15	55	1
122	124	1
133	133	3
1	2	1
95	95	5
126	131	2
4	4	3
18	23	1
60	66	2
106	107	2
48	48	3
20	50	1
31	33	2
98	101	4
94	95	3
113	113	5
11	18	2
51	51	2
122	122	1
9	9	2
61	64	1
26	27	2
59	59	4
15	16	2
31	31	3
106	106	2
50	80	2
116	117	2
91	93	3
10	45	2
98	98	2
73	75	1
60	61	4
19	20	1
2	2	1
68	117	2
57	78	4
55	57	2
78	78	3
120	122	1
94	96	2
58	58	5
5	33	2
111	114	1
14	131	2
126	126	4
49	51	3
98	99	1
64	64	3
72	74	2
117	131	2
106	115	1
131	132	1
132	132	3
109	110	4
82	82	3
60	65	3
1	15	2
107	133	1
46	46	2
10	10	3
114	120	2
31	36	2
49	84	1
123	124	1
73	74	1
61	71	3
86	87	1
3	30	2
86	86	5
35	37	3
5	6	1
83	125	3
84	108	2
55	123	1
84	110	1
74	75	1
58	59	2
1	22	1
63	64	1
50	53	1
34	35	1
82	83	1
91	91	3
127	128	1
85	116	1
67	96	3
65	131	3
22	22	3
134	135	4
64	77	1
7	7	1
28	29	4
65	66	1
17	18	1
62	129	1
86	88	2
121	124	3
65	83	1
46	54	1
58	61	1
88	88	3
54	58	3
120	130	2
85	88	1
43	44	1
127	129	2
62	62	1
83	117	3
113	122	1
85	107	2
80	80	4
78	96	1
68	78	1
86	107	3
128	129	1
78	79	1
83	119	1
75	75	2
81	108	2
38	38	1
84	85	1
108	109	2
86	90	1
131	131	4
37	38	1
17	17	1
42	53	1
18	21	1
104	106	1
18	18	2
6	70	1
46	48	2
131	133	1
65	103	1
30	31	1
129	133	1
125	132	2
27	27	2
54	81	1
52	55	1
67	68	2
28	28	3
57	58	1
111	111	1
79	79	1
15	15	1
53	55	1
56	117	1
103	104	3
25	25	1
14	15	1
10	11	1
102	103	1
78	82	2
32	33	1
83	122	1
14	133	1
81	86	1
23	23	1
65	80	1
11	51	1
33	33	1
74	134	1
97	108	1
100	103	1
