14	14	5
178	178	3
167	167	12
94	94	7
111	112	3
168	183	3
108	110	2
155	156	4
32	45	1
90	90	6
18	18	4
179	179	8
183	183	9
85	85	6
195	195	5
67	71	2
20	20	5
152	152	4
112	113	6
190	191	3
181	182	4
46	47	5
99	99	3
60	60	4
137	137	5
156	157	2
27	27	3
36	76	5
106	106	5
175	175	3
37	37	9
25	26	2
124	124	4
125	125	3
86	86	3
171	183	4
40	62	1
152	192	5
155	155	3
126	126	1
149	149	8
114	114	4
0	77	1
35	35	6
185	185	6
154	154	3
33	34	6
179	180	3
33	80	1
21	35	7
15	15	1
104	104	8
190	192	7
38	55	3
87	87	7
25	25	11
96	96	3
177	179	5
158	159	3
122	122	2
168	169	6
89	89	1
173	179	2
59	59	9
81	81	4
48	48	9
181	181	8
146	146	6
132	132	2
65	69	2
40	40	6
102	102	1
9	9	8
77	77	5
177	177	4
28	65	1
169	170	4
196	196	4
38	38	2
129	129	4
166	166	3
29	37	2
12	83	1
5	5	7
56	57	2
44	44	12
150	150	4
139	139	6
188	188	2
147	174	3
67	67	2
50	50	4
107	107	6
118	118	5
55	57	1
73	73	2
193	194	2
190	190	5
56	56	6
41	64	1
182	183	1
78	82	3
12	12	3
2	2	1
26	26	4
156	156	8
46	46	6
192	192	3
134	135	3
22	22	6
145	148	1
161	161	6
154	156	1
152	177	2
171	171	10
13	13	10
148	181	2
123	124	4
104	118	2
159	161	8
64	65	2
123	123	1
151	152	3
192	194	1
138	138	1
173	174	3
172	173	1
110	111	4
6	6	4
168	168	1
130	130	7
78	80	1
180	180	2
36	60	1
180	181	2
31	31	1
105	105	3
27	191	1
42	42	3
9	171	2
69	69	1
136	136	3
39	39	3
148	151	3
33	33	9
191	191	6
163	163	6
158	158	2
6	8	2
55	56	3
20	21	2
108	123	3
140	140	2
12	45	2
40	78	2
144	144	2
113	113	5
84	84	4
147	147	4
117	118	4
26	186	2
115	115	5
174	174	3
43	43	5
47	47	5
170	170	7
34	35	5
5	6	3
19	19	1
130	133	1
34	34	6
78	81	2
15	171	1
113	115	2
173	173	2
9	169	2
161	191	1
50	52	3
120	121	1
33	81	3
160	161	4
99	101	2
29	29	3
5	7	1
54	54	10
189	191	2
0	0	1
36	36	7
182	182	3
63	63	2
75	77	2
194	194	5
157	157	8
165	167	1
162	162	4
18	19	1
106	135	5
173	176	1
16	46	3
160	191	3
32	33	1
30	30	5
11	11	3
64	68	2
135	139	2
119	119	5
19	21	1
93	116	2
128	129	1
150	190	2
176	176	4
41	41	1
168	170	1
73	74	5
172	172	1
21	21	2
45	46	3
145	146	1
111	111	2
20	28	2
183	187	4
17	21	2
17	188	1
187	187	2
150	155	4
68	74	1
184	184	4
188	189	3
35	36	1
136	137	3
17	17	6
128	128	5
176	181	3
24	24	3
16	24	1
143	144	6
67	68	3
162	191	2
0	1	1
96	97	3
186	186	1
144	157	3
143	158	1
100	100	2
16	16	1
172	175	2
185	186	1
148	148	2
94	100	1
30	31	1
55	55	5
18	190	3
147	148	2
131	132	1
25	67	1
133	133	2
1	1	1
10	10	4
160	190	1
139	140	2
192	193	3
197	197	3
52	53	2
0	84	3
5	8	3
169	169	6
65	65	1
117	117	1
79	79	2
175	177	1
59	60	4
71	72	2
52	52	3
22	37	1
193	193	6
137	151	1
94	115	2
116	118	1
133	178	1
16	18	1
3	3	3
37	38	1
50	90	1
66	66	1
125	126	3
178	192	1
81	84	2
142	142	3
2	3	2
148	171	1
105	106	1
59	79	1
130	132	1
170	172	1
38	39	1
25	27	1
40	41	2
127	127	1
32	32	1
175	178	1
41	77	2
117	137	2
150	194	1
134	139	1
109	123	3
86	130	1
160	160	1
27	64	1
93	93	2
13	14	1
170	171	2
39	62	1
108	109	2
6	7	1
81	82	1
4	57	2
57	57	2
153	153	2
36	40	1
121	121	2
6	170	1
14	171	2
90	112	3
143	147	2
23	23	1
169	173	1
162	190	1
43	44	2
7	8	3
76	84	1
135	135	1
165	168	2
119	120	1
167	189	1
164	164	1
124	125	1
165	165	3
159	159	3
130	131	2
160	162	2
99	100	1
70	71	2
135	142	1
145	149	2
128	185	1
71	71	1
0	3	1
66	69	1
58	58	1
104	117	1
8	54	1
155	182	1
161	162	3
76	76	2
76	78	1
110	110	1
150	182	1
168	176	2
28	29	1
70	70	1
72	72	1
108	108	1
157	178	1
25	80	1
144	180	1
176	193	1
8	178	1
1	54	1
42	45	1
88	89	1
4	4	1
