3	3	16
8	10	1
14	14	17
100	100	5
101	105	1
72	73	2
163	164	7
81	81	2
105	106	1
70	70	3
81	84	2
19	20	3
42	42	9
21	23	3
156	156	3
110	111	2
131	131	3
121	125	3
57	63	5
4	4	8
1	1	8
6	6	19
98	98	6
168	169	3
2	2	6
11	11	24
136	140	1
142	142	4
69	71	2
107	134	1
97	97	8
48	49	6
53	53	5
159	159	6
137	137	5
69	95	1
79	79	2
16	16	2
6	7	5
92	92	7
109	109	3
96	96	1
19	21	2
25	25	10
121	122	3
24	24	2
34	136	2
77	79	1
23	23	4
19	19	5
97	101	1
90	90	5
69	70	5
95	97	2
43	43	7
143	143	2
88	88	3
5	5	10
111	111	12
77	78	6
41	42	4
139	141	6
40	41	13
122	157	1
37	41	2
102	102	5
106	106	10
112	113	2
112	112	4
38	53	3
104	105	1
82	82	10
35	36	7
169	169	4
117	124	2
168	168	2
124	124	11
135	136	2
52	52	6
117	117	1
107	107	5
162	162	6
99	99	1
4	11	1
54	54	6
116	116	8
12	12	10
40	40	3
141	141	1
108	108	7
62	63	2
74	91	1
4	43	2
89	89	6
48	141	4
75	75	4
65	65	3
35	35	2
9	9	4
134	134	5
160	162	1
8	8	5
100	116	3
77	77	2
135	135	5
110	110	6
17	17	3
159	166	3
140	140	2
158	158	9
0	1	3
36	36	8
163	163	2
140	141	1
114	114	8
79	88	2
146	147	3
80	80	3
50	51	2
82	136	1
10	10	2
41	41	2
85	85	6
86	87	1
84	131	2
76	79	2
1	2	5
26	26	4
159	160	1
143	148	2
139	143	4
20	51	1
156	157	3
13	15	1
165	165	3
146	146	8
104	104	3
50	50	3
98	99	3
103	103	3
73	73	1
46	47	2
136	136	4
151	151	5
119	125	3
44	44	4
21	21	2
142	143	1
89	90	1
74	76	2
145	145	5
86	86	5
144	144	4
120	120	2
71	71	5
57	64	3
74	74	6
49	49	5
17	18	3
67	67	1
80	97	1
94	94	1
64	64	2
125	125	1
113	113	3
109	110	2
34	34	5
4	5	1
111	142	3
11	12	2
4	12	2
69	86	1
0	0	4
69	72	5
83	90	2
44	45	2
42	55	1
70	88	3
7	7	8
70	87	2
46	46	9
132	132	2
139	139	4
47	47	3
123	123	1
53	55	1
81	82	2
101	102	2
67	68	2
37	37	3
69	69	3
54	55	3
63	93	2
128	128	8
63	63	1
120	127	2
24	25	1
148	148	1
130	130	2
103	105	1
18	18	3
127	127	3
57	57	5
66	66	4
166	166	3
134	135	3
45	46	3
116	117	4
4	24	1
89	137	3
38	38	2
39	40	4
107	133	5
125	128	3
13	13	2
81	107	1
155	155	4
70	164	2
150	150	1
43	44	3
106	110	1
169	170	1
108	143	1
114	115	4
154	154	2
13	14	2
138	139	4
46	48	3
36	136	4
139	140	2
72	72	1
51	51	3
41	84	1
78	79	4
68	70	2
27	27	4
15	15	1
92	93	4
74	92	1
85	87	2
147	148	2
144	150	1
118	119	1
67	79	3
106	107	1
5	6	1
39	39	4
119	120	5
12	149	2
138	138	2
16	17	1
76	77	5
28	28	2
21	22	1
73	74	1
37	38	1
91	91	2
38	39	1
71	72	1
118	118	1
143	144	1
124	125	4
80	84	1
76	80	1
107	108	1
56	56	3
165	166	1
81	99	1
126	126	3
164	164	3
77	128	2
82	137	1
14	17	1
22	24	2
20	20	1
114	119	1
25	26	1
68	68	1
94	97	1
49	50	1
33	34	1
70	165	2
51	62	1
105	105	1
78	78	1
119	126	1
121	121	1
6	16	2
153	153	1
22	22	2
110	142	1
55	56	1
167	167	1
86	88	1
133	134	1
152	152	1
66	67	1
170	170	1
5	44	1
74	75	1
