42	42	4
143	143	3
69	70	1
28	29	6
30	39	1
8	8	3
52	52	3
128	128	13
40	40	10
38	38	18
57	57	3
29	29	14
120	128	4
95	98	3
32	33	11
68	68	5
130	131	6
66	76	2
2	2	7
19	19	5
140	143	9
54	55	7
50	51	2
107	107	2
24	25	6
125	125	9
33	33	3
121	122	3
121	121	3
13	13	5
105	131	2
110	125	3
27	40	2
11	11	5
66	79	2
79	80	3
74	74	5
25	25	5
50	68	5
67	96	2
141	141	4
26	27	2
82	116	4
1	1	6
122	122	9
55	55	1
101	101	6
73	75	2
134	134	6
36	36	2
139	139	3
92	92	4
12	13	2
120	120	2
93	94	4
114	114	2
123	123	2
102	102	4
133	133	4
136	139	9
126	126	8
55	56	4
110	111	3
95	96	4
127	127	5
131	141	3
10	11	1
124	124	4
0	0	2
38	40	1
129	129	3
65	96	4
90	90	5
63	98	1
48	52	2
101	105	1
134	142	3
10	10	2
133	138	5
43	50	5
62	95	6
2	34	3
85	87	1
99	101	1
142	142	3
95	95	3
132	132	2
91	91	5
117	124	2
97	97	3
94	94	3
136	137	1
39	40	3
96	96	3
75	75	6
136	136	8
118	118	1
105	139	3
116	116	2
103	103	6
18	19	4
144	144	2
105	105	1
117	117	1
25	26	1
17	17	5
88	88	2
125	130	1
3	4	4
124	133	3
83	83	4
54	73	2
116	128	2
104	104	2
75	76	6
15	15	7
119	119	7
22	27	1
130	130	5
117	126	2
80	80	10
46	46	1
63	65	2
60	91	1
21	22	1
137	137	3
117	132	3
28	53	3
112	112	1
119	120	13
33	35	1
50	52	2
62	96	2
122	123	5
89	101	3
56	56	2
67	68	8
94	95	1
64	96	1
123	130	1
129	130	7
110	127	3
15	16	1
41	81	1
43	43	1
108	120	6
35	36	3
145	145	4
104	121	2
92	93	3
127	129	1
101	102	2
40	88	2
77	77	5
56	87	3
93	95	1
16	16	3
39	39	6
131	133	1
49	50	6
26	26	1
24	117	1
53	55	1
120	132	3
99	99	5
100	102	1
20	20	2
53	54	2
56	94	2
75	79	1
61	61	4
28	28	6
72	72	3
53	53	2
146	146	1
51	51	4
48	48	3
96	97	1
50	50	1
5	5	2
80	81	2
33	34	3
49	49	4
14	14	3
36	37	3
63	63	1
81	81	4
104	132	1
22	22	1
90	100	1
132	133	3
134	135	1
41	41	1
104	105	2
121	123	1
66	69	1
52	73	1
47	47	1
121	124	1
22	23	5
84	85	1
87	87	2
105	137	1
97	98	1
137	140	1
112	113	1
98	99	1
56	96	1
109	109	2
111	111	1
69	69	2
118	119	1
59	88	1
47	58	1
47	64	3
57	65	2
47	57	1
108	119	1
128	129	1
126	128	1
24	24	1
40	81	1
76	76	3
100	100	1
84	84	1
5	34	1
136	140	1
58	58	1
29	30	1
67	72	1
131	131	2
103	122	1
62	110	1
116	117	1
82	82	1
140	142	1
8	9	1
67	67	2
