204	204	8
108	108	4
13	33	5
66	67	7
228	229	2
28	28	20
139	140	3
225	225	1
125	125	3
150	152	2
39	39	1
10	11	3
173	208	3
122	122	3
22	47	5
144	144	4
144	146	7
186	186	5
160	175	7
215	216	2
62	62	6
178	179	2
182	182	4
104	123	1
225	226	3
210	222	1
104	116	2
106	111	1
80	102	9
157	169	4
89	89	3
10	10	4
232	232	6
114	114	3
83	84	8
34	37	1
19	19	7
53	53	3
72	72	17
115	115	1
172	205	1
48	48	5
4	4	4
142	142	6
141	141	5
1	2	1
203	204	3
70	70	5
109	109	10
75	111	1
218	218	10
217	217	12
33	33	1
140	140	5
177	177	11
106	106	4
222	224	4
40	164	6
23	23	5
156	173	2
183	191	4
36	48	1
241	241	6
81	82	3
126	126	7
27	27	15
31	31	11
74	74	6
4	6	3
36	100	9
67	67	10
32	33	3
182	203	1
31	33	1
139	142	4
2	7	3
171	171	9
20	41	4
79	79	6
219	219	8
156	156	2
99	99	6
23	24	3
78	78	4
103	104	3
69	69	7
204	206	1
66	66	4
43	44	2
63	63	8
128	130	1
62	111	1
139	139	3
16	17	3
44	44	14
121	121	1
20	20	8
102	122	1
164	164	4
187	187	5
11	12	3
8	8	9
12	12	2
17	17	14
14	14	6
135	135	7
15	35	2
86	86	4
152	173	1
136	138	3
222	222	4
90	107	4
226	226	2
47	47	2
48	51	6
98	99	2
60	60	1
54	54	7
105	105	6
46	46	8
218	226	5
211	213	2
33	81	2
128	128	4
64	64	5
50	80	1
38	38	3
212	219	1
185	201	1
234	234	5
169	170	3
86	97	2
145	157	3
206	218	6
5	7	2
197	197	1
214	214	2
71	71	6
134	134	3
193	193	4
156	158	3
117	118	7
232	233	6
204	232	2
104	104	6
6	6	4
12	16	3
198	198	5
206	206	2
30	30	4
169	169	6
183	183	1
209	222	4
150	150	3
27	191	1
98	98	5
220	221	5
49	52	1
37	37	7
165	166	4
64	65	3
103	103	3
27	46	6
200	222	1
32	32	4
59	59	5
49	59	1
10	26	1
74	75	1
131	137	3
242	242	4
136	139	1
89	95	1
84	84	5
172	204	2
2	8	1
67	68	3
194	196	1
37	39	1
194	223	1
37	143	4
231	231	3
79	115	1
26	191	2
163	163	4
15	15	4
155	155	2
158	159	4
31	189	1
176	176	3
143	145	5
211	212	5
68	68	2
164	165	7
125	139	1
13	13	9
38	42	2
6	12	2
148	148	1
229	229	6
178	178	4
49	56	3
22	23	2
19	20	3
49	58	2
201	201	4
138	140	2
129	129	3
151	151	6
46	191	2
193	198	1
233	233	9
84	89	1
35	35	1
177	178	1
165	165	2
52	52	3
120	131	1
39	40	3
179	179	7
83	98	1
81	84	4
70	74	1
161	161	4
211	211	6
25	26	4
140	142	3
95	95	1
125	156	1
12	14	3
165	167	2
235	235	5
54	58	5
82	83	2
182	183	1
138	138	7
194	194	3
199	215	5
110	130	2
56	56	3
125	130	2
81	81	9
133	145	2
152	152	8
22	24	2
133	133	3
21	41	1
42	45	2
115	118	3
40	41	7
5	5	6
21	24	1
8	19	2
42	43	1
18	18	1
113	113	3
120	121	3
162	162	3
148	149	1
224	224	5
234	235	3
156	205	4
123	135	1
9	29	2
191	191	3
57	57	5
74	112	1
2	2	4
31	32	2
128	172	2
211	233	2
42	132	2
13	17	2
187	188	2
13	18	3
185	186	2
228	228	4
101	101	2
216	216	2
79	83	1
162	163	6
83	83	1
195	197	2
234	236	4
10	27	3
221	221	3
75	75	1
125	126	3
51	51	5
107	108	6
227	227	5
12	17	2
15	16	1
220	220	10
117	117	1
25	25	4
14	15	5
40	40	2
21	23	3
56	57	2
82	82	4
185	185	3
65	83	1
116	117	6
102	124	3
100	100	5
205	208	4
172	172	3
106	130	3
22	78	1
161	166	2
125	132	2
59	60	2
133	134	4
3	4	2
0	1	2
145	174	2
37	70	2
159	159	1
210	210	1
62	64	2
143	143	3
199	200	1
231	232	2
49	49	6
149	149	2
196	196	2
199	199	4
100	101	4
123	124	3
42	48	1
77	77	4
218	225	2
154	157	2
213	230	2
32	42	4
138	145	2
171	205	1
151	161	2
13	53	2
173	173	7
168	169	2
143	166	3
9	11	1
238	238	4
220	222	2
212	212	4
1	33	3
120	122	1
46	47	2
37	97	2
59	61	1
134	137	2
125	127	2
205	205	2
34	40	1
188	194	2
7	8	3
185	187	2
175	175	1
120	120	2
127	127	1
87	238	2
202	202	3
82	84	2
142	143	2
230	231	4
34	34	1
103	117	1
42	42	3
153	153	5
135	136	4
62	79	1
217	219	4
213	215	1
154	155	2
164	187	2
180	214	6
130	153	2
236	236	5
21	53	2
184	184	1
80	80	1
122	123	1
145	146	1
222	223	2
204	218	1
70	73	3
9	9	3
58	58	1
230	230	3
85	85	3
168	184	2
180	180	2
159	167	1
184	187	1
205	206	1
121	125	3
72	147	2
226	227	2
179	208	4
97	97	3
196	223	1
61	61	4
72	73	1
77	153	1
219	220	1
1	8	3
2	31	1
71	72	4
192	192	5
167	167	1
51	76	1
213	229	1
45	45	6
98	100	1
226	231	2
174	174	1
114	158	1
59	88	1
6	30	3
158	166	2
200	200	2
143	165	2
65	65	2
160	161	2
137	138	4
135	137	2
73	131	2
37	46	2
101	102	2
167	168	1
127	137	1
239	240	1
32	88	1
88	88	2
30	33	1
1	1	1
155	159	2
156	157	2
12	15	2
209	210	1
126	130	1
109	110	3
30	31	1
38	39	1
201	217	1
48	97	1
29	30	2
161	173	1
76	76	3
154	154	1
2	3	2
78	98	2
97	101	1
69	70	2
112	112	2
11	11	5
65	66	3
146	147	1
206	207	2
50	52	2
179	203	1
21	21	3
239	239	1
144	145	1
116	134	1
187	194	1
16	16	1
77	78	2
12	21	1
175	176	1
203	211	2
50	50	1
166	187	2
20	21	1
12	50	1
140	141	1
26	26	4
99	101	2
170	180	2
229	230	1
22	22	3
102	102	2
39	42	1
203	203	1
157	209	1
211	219	1
105	121	1
197	198	1
79	107	1
157	166	1
34	35	1
136	145	1
24	24	1
206	217	2
0	15	2
50	56	1
140	143	1
0	9	1
190	190	3
128	154	1
167	177	1
191	192	1
189	189	1
11	15	1
66	81	1
240	240	1
0	14	1
196	200	2
67	89	2
119	119	1
208	208	1
129	130	1
99	100	1
3	3	2
109	130	1
193	197	1
134	136	1
22	41	1
181	181	1
65	67	1
70	105	1
168	186	2
104	124	1
91	107	1
68	75	1
150	151	1
102	134	1
77	79	1
218	219	2
169	187	1
78	80	1
42	47	1
14	33	1
