72	73	1
31	31	4
99	101	6
109	109	5
4	6	6
91	91	5
58	128	2
65	65	4
104	105	18
83	83	16
125	125	4
100	100	11
88	88	4
64	64	7
6	7	4
45	45	4
67	67	5
4	4	8
21	39	3
32	32	6
94	126	3
97	100	6
61	61	7
49	93	1
8	26	2
55	55	9
56	113	1
90	90	4
30	31	7
48	48	9
27	72	3
66	72	2
18	90	2
21	37	2
44	44	8
105	105	3
33	33	15
134	134	6
73	73	11
74	74	14
9	9	10
55	56	1
28	33	3
55	79	3
42	42	1
40	40	8
34	35	1
22	37	1
61	76	1
21	21	5
31	79	2
93	93	10
26	26	4
77	77	4
122	122	2
3	3	9
21	22	3
117	117	2
41	41	1
70	70	5
22	22	7
89	125	3
39	82	4
14	14	7
38	80	4
15	16	6
101	110	1
98	98	6
49	49	6
46	46	10
44	129	1
115	115	5
101	101	2
99	100	3
22	26	1
99	99	2
58	107	3
75	76	2
6	6	6
120	120	4
50	131	2
111	111	6
36	36	6
96	97	3
80	80	4
54	79	5
38	38	6
81	103	1
84	85	4
47	47	5
25	25	2
116	117	2
11	11	8
121	121	3
94	94	8
102	102	5
56	80	1
35	36	3
28	29	5
68	68	2
70	71	2
82	124	3
21	92	1
106	107	3
111	122	2
110	110	5
88	89	2
113	114	1
131	132	3
39	41	4
79	85	2
18	18	2
34	62	2
19	19	5
62	63	2
95	96	1
98	100	1
27	27	3
5	26	1
126	126	1
29	29	6
104	104	5
66	66	8
103	103	3
59	91	3
20	93	1
132	132	1
4	90	2
19	20	1
82	120	1
30	30	3
49	92	2
38	82	3
20	124	1
3	12	6
10	10	6
99	111	1
8	8	3
55	78	1
87	87	2
61	93	1
96	96	17
13	61	2
31	32	1
32	33	1
79	79	5
2	11	2
78	78	6
7	7	4
59	59	7
10	66	4
29	82	1
118	118	3
62	62	3
5	6	1
21	56	2
85	85	4
66	67	1
15	77	1
56	56	8
61	62	2
20	39	4
31	81	1
48	81	3
87	94	2
23	24	1
83	84	6
4	5	8
57	57	5
61	82	1
12	12	8
78	82	2
48	109	1
97	97	7
93	97	1
131	134	3
130	131	3
130	130	1
75	75	1
29	62	1
34	34	1
69	70	1
37	60	2
47	69	1
76	76	1
18	19	2
22	84	5
60	106	2
40	78	3
72	118	2
72	74	1
17	17	1
77	117	1
111	121	1
35	35	6
56	121	2
33	47	1
27	47	5
45	70	2
45	78	1
24	25	4
23	23	2
119	120	2
8	93	1
69	71	2
60	60	4
82	82	2
46	49	1
58	59	2
11	93	1
112	113	1
25	92	2
37	81	2
29	39	1
24	24	3
63	116	1
84	84	4
44	72	3
39	39	6
29	30	5
87	89	2
121	122	1
11	89	1
115	116	1
23	74	1
131	131	1
45	116	3
108	108	3
90	91	2
71	71	2
72	72	5
123	123	3
10	11	1
75	93	1
35	65	1
13	14	3
79	80	1
69	69	4
41	42	3
10	86	1
14	16	1
43	43	1
16	16	3
102	126	1
89	124	1
133	133	2
33	39	1
47	72	2
63	64	1
47	61	4
68	69	2
82	83	3
90	101	1
45	46	1
15	15	2
59	121	2
113	118	2
86	86	1
106	106	2
21	40	1
92	93	1
71	72	2
41	43	1
49	50	1
15	80	1
115	134	1
95	95	1
32	43	1
34	36	1
23	46	1
23	77	1
33	37	1
45	74	1
12	88	1
79	84	2
4	99	1
26	27	1
60	75	1
33	70	1
94	95	1
37	84	2
64	105	1
31	44	1
