14	14	2
170	170	6
105	107	5
123	123	10
11	11	15
181	181	7
41	41	2
9	18	2
6	63	2
74	75	4
151	154	4
101	101	4
97	137	6
152	152	4
12	15	2
66	71	3
2	2	10
14	127	3
25	26	1
151	151	6
156	157	2
76	79	3
22	23	3
135	135	2
62	62	8
16	55	1
113	123	2
139	139	2
67	67	1
134	135	2
148	148	4
33	34	7
110	111	3
68	68	5
103	124	5
33	33	7
101	102	3
126	127	8
167	168	4
24	24	4
6	6	2
58	60	2
128	128	2
130	163	1
116	116	1
114	114	5
27	28	1
3	3	2
136	136	3
77	112	2
99	99	12
30	32	2
137	138	5
138	138	3
92	93	1
105	106	1
90	90	2
115	115	7
36	36	4
81	81	7
6	7	4
164	165	1
60	60	1
69	69	1
130	130	3
87	89	4
89	89	1
125	125	4
58	58	3
154	154	4
26	26	1
156	158	2
9	9	2
53	55	3
14	15	4
117	118	4
56	56	2
81	86	1
41	68	3
159	159	1
54	68	3
127	127	2
64	64	3
53	145	1
169	171	2
163	163	1
78	79	5
28	28	2
97	97	1
143	185	2
73	92	1
79	79	6
26	29	3
8	58	1
91	91	5
16	16	2
13	15	1
146	146	2
45	45	5
22	26	1
10	10	4
103	103	3
116	144	1
15	15	4
21	21	3
117	117	3
61	61	3
12	12	4
39	39	2
175	176	2
161	162	2
103	116	1
182	182	3
36	105	3
17	17	1
40	140	2
161	161	2
104	104	2
70	70	2
156	156	1
164	164	1
136	138	1
98	98	5
80	81	3
74	99	3
96	96	1
38	38	6
144	144	1
43	43	2
12	13	2
22	22	2
149	149	2
82	84	2
109	109	3
133	134	2
129	129	2
11	12	1
25	30	2
153	153	2
147	147	1
55	65	1
158	158	2
153	159	3
132	132	1
179	180	2
153	163	1
53	54	3
61	87	1
4	4	2
174	175	1
29	32	1
86	88	1
27	27	1
132	133	1
85	94	1
40	40	1
116	118	2
111	111	2
74	74	1
32	33	2
143	143	1
82	85	4
125	126	1
44	44	2
150	150	3
35	35	1
141	170	1
10	11	1
121	123	3
144	145	1
110	110	2
108	110	3
1	1	1
13	13	1
157	158	2
114	123	3
41	60	2
145	158	1
34	34	1
134	140	1
57	57	2
26	27	1
84	84	3
172	172	1
145	145	1
31	37	1
87	87	1
19	20	1
135	137	1
152	153	1
30	31	1
108	109	1
24	25	1
34	35	2
80	84	1
138	139	1
123	124	1
31	32	1
146	147	1
