25	28	12
53	53	1
28	28	4
110	110	15
35	35	15
104	108	1
32	32	9
78	81	3
23	23	12
98	98	9
94	94	14
22	22	4
41	41	22
90	90	12
113	113	7
98	100	2
53	104	5
78	85	3
73	73	15
71	74	2
37	37	6
42	42	7
104	107	5
20	20	10
27	27	5
55	57	1
111	111	8
68	68	12
85	86	7
19	19	5
82	83	5
30	30	25
87	87	12
49	49	16
23	24	12
79	86	3
45	45	17
97	97	14
109	109	8
83	83	4
65	90	6
72	72	9
86	86	6
43	44	10
79	81	4
60	63	6
60	60	5
68	70	9
50	50	6
67	67	8
81	85	2
71	95	2
109	110	6
41	42	4
108	108	13
91	93	2
95	95	4
70	71	3
77	77	10
46	46	18
103	107	3
53	60	4
43	43	8
100	103	3
36	36	8
75	75	8
99	103	2
34	39	5
76	76	7
59	61	1
61	62	6
63	64	5
79	96	2
90	97	4
82	82	17
31	32	3
106	107	3
86	91	5
87	96	4
98	103	3
22	23	6
101	101	12
32	35	10
29	32	4
50	51	5
58	58	2
71	72	5
78	78	15
69	69	10
33	33	8
104	104	7
33	36	3
69	70	3
105	110	3
22	27	4
96	96	6
65	89	1
90	96	1
107	107	4
43	45	1
73	94	9
99	99	15
81	82	6
31	31	10
75	76	8
22	24	4
26	26	11
73	78	4
57	58	4
92	92	9
65	67	2
53	57	2
44	45	3
26	37	2
103	104	5
88	93	5
64	64	13
94	95	5
93	94	2
53	54	6
65	65	5
47	48	11
44	44	13
66	88	1
56	56	5
40	40	11
68	69	2
24	24	10
112	113	6
34	34	8
88	90	5
81	84	4
60	61	1
37	38	11
79	79	8
66	66	4
26	27	12
80	80	21
57	60	4
63	63	16
97	108	1
100	100	9
88	88	7
29	35	3
90	93	1
25	25	7
83	87	1
38	39	7
110	111	3
25	37	4
62	65	3
24	36	5
91	91	7
87	88	6
39	39	8
84	84	4
59	104	2
107	108	7
111	112	4
95	97	4
59	59	7
48	48	10
74	74	13
92	95	9
67	68	2
75	94	2
112	112	6
66	93	3
55	59	2
59	65	3
21	21	12
55	56	4
30	33	3
47	47	10
54	73	1
73	74	3
29	34	4
54	55	4
100	102	2
102	104	1
103	103	5
99	100	4
66	67	3
20	36	1
109	111	3
53	55	2
101	103	3
83	96	3
51	51	11
58	59	2
70	97	2
28	31	3
69	93	4
105	106	4
103	109	2
49	50	4
59	60	3
115	115	1
63	73	2
38	38	9
57	57	2
71	71	11
78	79	1
56	95	3
62	69	3
59	70	6
87	93	1
56	109	1
101	102	5
59	102	3
52	52	3
102	102	5
56	101	3
91	92	6
20	21	4
64	65	5
93	93	8
114	114	6
62	66	1
32	38	1
71	77	7
89	90	1
28	36	3
65	66	2
59	62	1
105	105	3
58	60	1
48	49	1
106	106	7
22	36	1
62	62	7
99	111	2
99	108	7
40	41	4
23	26	4
108	109	1
105	107	2
54	57	3
31	36	2
97	98	3
95	99	6
53	58	2
60	113	1
37	39	3
29	29	6
55	55	6
58	69	2
56	58	2
102	103	4
30	31	2
86	87	3
81	94	2
70	70	5
70	94	1
72	93	1
64	68	3
96	97	2
74	109	1
85	85	4
85	93	2
77	94	2
76	110	2
34	35	8
67	90	2
81	81	2
89	91	2
104	106	2
82	85	3
60	104	1
89	89	1
83	84	5
32	33	7
90	95	1
104	109	2
77	95	2
31	35	2
56	69	4
111	113	1
110	112	1
56	57	1
59	97	1
75	77	1
25	27	2
71	73	1
74	76	2
84	85	1
71	78	5
61	61	1
74	75	1
53	73	1
54	54	1
33	34	5
78	93	2
58	68	2
103	105	3
63	68	2
51	52	2
36	37	4
87	90	3
97	104	1
54	96	1
86	97	1
91	95	1
93	100	1
75	111	1
87	89	1
24	26	1
68	81	1
59	69	1
55	107	2
70	85	1
24	27	1
72	73	2
71	75	1
61	64	2
55	58	1
66	94	1
53	56	3
86	90	1
28	30	1
90	91	1
86	89	1
92	112	1
75	90	1
98	101	1
85	94	1
24	32	1
80	82	1
69	71	1
33	35	1
50	111	1
61	69	1
25	30	1
