79	81	4
99	100	4
100	101	5
104	105	2
23	23	4
66	67	7
100	100	4
22	53	6
81	81	10
94	94	5
63	64	2
102	102	3
82	82	3
37	37	6
65	89	2
88	90	3
97	97	10
39	39	19
43	44	9
54	59	1
92	92	11
86	86	3
61	62	6
60	60	11
70	71	1
108	108	4
25	25	4
50	50	2
59	59	3
80	80	6
109	110	6
90	109	1
83	83	9
40	40	11
89	92	7
56	59	1
107	108	2
79	105	2
33	34	3
99	102	3
95	107	5
91	96	3
68	69	6
90	91	7
65	65	2
98	98	7
52	52	7
67	67	5
86	110	3
58	58	3
76	77	3
42	42	2
77	77	4
22	22	7
110	111	6
25	26	3
67	69	3
101	101	5
88	88	4
90	90	8
103	103	5
95	96	7
85	85	6
36	38	2
105	107	4
107	107	7
85	86	1
61	70	3
84	84	3
55	56	3
41	43	2
69	69	7
37	49	2
73	110	1
82	109	1
45	45	6
56	56	2
50	52	1
50	51	2
32	34	2
112	112	7
106	107	3
93	94	5
40	41	6
46	46	8
68	71	2
82	83	1
57	60	1
105	105	4
34	39	2
95	95	4
58	59	3
110	110	8
87	87	4
42	44	1
100	102	1
43	43	4
104	107	2
95	97	2
51	51	4
28	28	10
85	109	2
39	40	2
55	55	3
99	99	6
96	97	4
63	65	2
73	73	1
93	96	1
29	31	1
29	34	1
28	29	2
56	68	1
91	92	2
105	106	7
61	71	1
21	21	2
74	74	5
45	46	2
98	111	4
20	20	1
89	93	2
19	22	1
31	31	2
79	79	4
96	96	6
63	63	7
44	44	3
36	36	3
103	105	1
109	109	5
79	109	3
29	29	3
64	64	1
69	74	2
54	54	3
57	58	1
62	62	8
111	111	2
30	30	2
35	35	5
71	71	2
49	49	1
102	103	2
48	48	5
41	53	1
89	89	6
106	106	2
34	34	2
71	74	1
77	80	2
112	113	3
78	78	3
86	94	1
93	93	5
37	38	2
94	108	3
113	113	2
91	94	3
75	87	2
25	39	2
91	91	1
87	91	1
72	75	3
92	93	1
24	27	1
61	61	3
33	41	1
60	69	1
40	53	3
72	74	1
88	92	1
104	108	2
27	35	1
98	99	1
70	72	1
39	58	1
79	80	1
71	72	1
86	93	2
62	63	1
68	68	3
34	35	4
91	95	2
93	109	2
40	57	2
59	60	1
97	98	1
101	103	1
66	66	2
59	62	3
53	53	1
54	55	2
38	39	1
88	89	2
26	58	1
75	75	3
96	105	1
77	84	1
19	26	2
44	45	1
97	107	4
48	76	1
72	73	2
85	88	1
101	102	1
27	27	1
42	43	1
41	41	2
36	37	1
56	57	1
45	50	2
48	49	1
86	92	1
57	59	1
30	31	1
56	70	1
47	47	1
