57	57	22
94	104	2
31	31	10
94	94	8
118	118	23
14	16	2
67	67	11
59	59	4
129	130	1
97	97	17
76	77	4
49	111	2
117	118	1
31	33	3
99	99	10
126	126	19
53	54	2
116	116	5
78	78	6
79	80	12
83	83	6
56	56	15
8	9	9
108	108	12
53	53	15
54	54	8
45	46	8
5	5	12
11	12	3
30	30	12
121	122	3
34	34	5
71	118	2
121	121	20
14	14	8
109	109	13
52	52	16
42	43	5
95	96	3
8	8	5
13	16	3
102	102	14
1	124	2
115	116	3
91	91	5
85	87	1
106	106	11
46	47	18
95	95	12
3	3	9
128	131	2
111	124	4
12	12	21
113	113	21
82	99	2
92	92	9
12	16	2
65	65	21
14	21	1
43	43	10
69	94	5
56	108	1
102	103	6
125	125	9
128	129	4
28	28	14
60	61	1
29	30	4
41	47	5
111	111	12
6	6	15
64	69	3
90	91	7
10	10	7
17	17	5
64	64	14
27	27	6
104	104	10
76	76	14
97	101	1
1	121	1
125	127	1
131	131	12
8	20	1
79	96	1
13	13	21
40	40	11
101	101	9
67	68	13
47	50	4
54	120	1
119	119	14
24	24	7
71	89	4
116	119	1
125	126	11
69	71	7
79	79	9
55	55	8
49	49	19
128	128	5
84	85	5
103	105	2
51	53	4
2	4	5
11	11	8
103	131	2
27	106	3
72	126	3
105	105	13
67	75	1
90	90	10
47	47	17
48	49	2
18	18	5
74	74	5
55	56	1
110	110	11
39	40	2
19	19	6
61	66	1
115	115	10
126	130	7
71	71	5
16	16	2
46	56	1
124	125	3
133	133	6
113	114	4
62	86	1
106	107	6
130	130	10
66	67	4
53	71	1
72	97	4
62	62	2
44	44	22
62	63	10
18	21	1
83	109	3
39	39	9
25	25	4
114	116	7
90	94	2
29	41	3
6	19	2
109	110	2
5	109	1
123	123	7
118	119	6
85	85	11
60	60	3
53	115	1
91	92	4
29	33	4
63	89	2
127	127	1
101	102	4
58	58	3
45	45	5
7	8	11
117	117	4
21	28	2
80	80	8
61	61	4
98	98	4
22	28	1
72	72	11
65	66	5
112	112	5
32	33	2
116	117	3
19	21	4
86	87	4
99	118	1
107	109	1
51	90	2
13	15	2
69	69	7
6	47	5
84	84	11
50	51	2
70	70	4
109	124	1
68	68	2
27	105	1
81	83	2
50	50	17
117	119	4
37	38	4
94	95	8
2	2	8
99	103	2
1	1	6
132	132	9
113	116	3
80	81	7
5	6	2
72	74	4
46	46	6
122	122	9
15	15	6
98	99	5
72	73	3
101	103	4
65	116	2
66	66	5
33	33	4
17	41	2
51	51	4
120	120	5
81	81	13
48	50	3
12	13	3
104	105	9
31	32	10
40	42	2
98	107	3
111	112	2
21	22	6
107	107	3
124	124	15
32	66	1
27	50	2
4	120	1
19	48	2
63	63	7
108	114	3
130	131	1
86	86	10
4	4	10
20	20	11
84	90	3
10	12	3
12	21	1
109	111	3
100	102	1
71	78	3
93	93	10
105	106	5
87	88	3
49	58	2
78	79	2
13	14	6
10	11	2
77	77	5
57	120	3
100	100	7
0	1	7
9	9	3
114	114	8
7	7	6
97	98	1
32	32	11
71	72	1
81	111	2
34	41	4
99	100	4
112	120	3
106	120	2
110	112	1
58	110	1
51	52	6
27	31	4
7	114	1
59	66	3
17	18	2
123	124	1
55	68	2
52	95	2
0	0	3
48	48	6
41	43	1
126	127	10
96	97	1
79	95	3
18	19	1
19	33	1
74	75	1
102	104	3
23	25	1
106	132	1
24	61	2
127	128	4
4	34	1
113	117	2
82	82	3
96	96	4
65	108	1
18	24	3
113	126	3
89	89	10
0	3	6
129	129	5
15	16	4
109	121	1
26	26	3
101	128	1
69	70	3
102	130	2
49	50	3
44	45	3
88	88	4
75	75	2
31	108	1
112	113	2
16	19	1
81	82	5
28	29	3
94	96	1
43	44	3
60	62	2
74	80	2
55	132	1
62	70	1
87	87	1
47	60	2
75	77	1
86	89	4
76	108	2
81	85	1
90	98	1
85	86	1
41	41	3
111	129	1
58	59	1
96	102	5
24	28	1
73	74	3
119	128	1
19	22	3
28	45	1
82	83	1
1	3	1
41	42	3
20	26	1
33	38	4
54	118	1
116	133	1
70	71	5
114	115	1
69	75	1
91	93	2
108	124	1
23	23	5
103	103	1
42	42	1
42	44	1
65	96	3
110	111	1
21	40	4
13	29	2
118	129	1
7	12	1
45	47	3
118	133	2
60	63	2
61	118	1
69	106	1
27	28	6
91	110	1
96	99	2
57	59	1
61	115	2
62	118	2
115	125	1
50	69	1
85	88	2
38	38	2
90	111	2
98	114	2
19	20	3
91	97	2
86	88	1
64	80	1
21	21	2
29	106	1
48	57	1
9	10	1
68	71	1
29	47	1
64	65	1
29	29	1
4	6	1
65	78	2
30	32	1
61	62	1
62	96	1
73	75	1
13	111	1
33	34	1
33	48	1
39	42	1
77	78	1
58	95	1
63	91	1
26	58	1
2	3	1
26	27	1
7	14	1
27	45	1
52	53	1
125	131	1
74	79	2
114	126	1
56	57	1
54	58	1
46	49	1
115	117	1
22	24	1
