14	14	5
66	66	15
74	77	3
31	31	10
2	3	6
8	8	6
1	2	5
17	17	4
56	56	11
81	81	12
46	46	6
11	11	7
19	54	1
66	67	5
61	64	10
23	23	6
3	3	19
60	61	2
15	18	1
57	57	5
85	86	9
30	30	12
80	80	14
48	73	2
72	74	4
66	71	2
87	87	14
19	19	6
6	7	3
26	26	7
46	48	3
48	48	2
0	0	3
67	67	15
5	5	11
25	25	13
58	58	18
7	8	3
61	63	2
72	73	11
24	24	7
52	53	3
75	75	20
64	64	5
70	70	2
27	27	3
73	73	10
68	68	10
50	50	1
21	22	3
74	74	9
81	82	6
53	55	1
13	52	3
84	84	2
70	71	1
22	22	8
51	51	2
82	83	8
61	62	1
59	59	7
81	83	2
69	69	8
73	75	3
67	68	1
63	64	2
49	50	4
90	90	2
28	28	3
4	4	6
4	5	7
48	49	4
79	79	6
7	7	5
15	15	5
77	77	4
57	58	5
79	83	2
73	78	1
78	80	8
53	53	2
56	57	2
47	47	4
65	66	3
71	71	7
21	28	3
6	6	5
20	20	3
0	1	1
89	89	20
72	75	2
85	85	10
24	27	2
21	21	5
5	9	1
10	11	3
86	86	7
68	69	3
11	13	1
71	72	4
9	10	3
78	79	5
77	83	2
13	13	4
26	31	1
74	76	4
5	25	1
77	78	6
16	16	2
8	9	2
62	63	4
6	9	2
76	76	4
25	59	2
61	61	7
46	47	1
80	81	2
70	84	1
9	9	2
25	27	1
72	77	3
5	10	1
48	51	2
48	58	2
82	82	1
48	56	1
1	1	8
49	49	2
6	10	1
59	65	1
10	10	4
25	26	3
14	15	1
0	25	2
77	79	1
69	70	1
54	54	3
20	24	1
64	66	1
29	29	5
62	66	1
3	4	2
65	65	3
34	34	3
2	2	1
2	67	1
12	12	5
82	90	2
12	17	1
56	58	1
88	90	1
72	72	5
60	62	1
27	66	2
61	71	1
10	19	1
76	81	2
86	88	2
62	62	1
88	88	3
78	78	3
76	77	1
53	57	1
66	70	1
28	58	1
23	24	2
13	14	1
18	18	1
5	6	1
67	69	1
15	21	1
49	58	1
63	63	3
33	49	1
19	53	1
53	54	1
34	46	4
26	27	2
51	52	1
35	35	1
54	55	1
50	51	1
48	59	1
31	61	1
19	20	1
50	57	1
72	81	1
30	31	1
23	31	1
51	59	1
15	16	1
48	50	1
