147	148	3
75	76	2
10	17	3
147	147	1
83	83	1
123	123	5
102	102	6
69	69	4
7	7	9
106	107	1
70	70	5
49	49	2
27	28	5
65	65	2
64	64	5
23	23	2
41	41	5
35	35	5
12	12	10
10	23	1
110	110	4
41	43	2
66	68	5
18	19	8
45	45	10
98	99	6
19	19	13
142	149	1
24	25	2
92	93	3
81	86	1
8	10	2
119	119	8
130	130	4
75	77	2
27	63	1
144	144	5
97	97	3
42	43	5
67	67	8
21	21	6
129	131	3
15	15	5
153	153	7
131	131	5
77	78	2
50	50	7
39	39	5
74	74	4
97	121	2
128	128	3
85	92	2
119	122	4
10	18	3
53	53	12
119	128	2
4	4	5
120	130	1
57	57	4
94	99	2
29	29	2
16	16	4
126	128	5
30	33	2
47	47	12
150	151	3
49	77	2
72	73	1
41	91	4
103	105	1
131	132	2
124	124	3
73	73	5
68	79	9
135	136	3
115	118	1
10	11	3
13	15	2
11	11	9
43	43	3
44	45	5
121	127	1
46	46	6
140	140	4
56	57	4
107	108	1
42	42	3
13	13	12
6	130	1
8	9	3
108	111	3
114	114	11
90	90	3
151	151	5
127	127	5
47	52	2
38	38	5
14	128	1
20	32	3
5	145	4
112	112	2
30	30	4
79	132	2
52	56	3
9	18	1
86	86	3
6	8	2
51	52	1
26	26	1
22	22	2
11	24	1
115	115	4
66	66	6
18	21	2
41	153	3
77	97	3
93	98	1
84	84	2
32	34	2
53	54	3
67	68	5
17	17	5
34	35	3
68	68	6
81	82	3
121	121	4
45	46	3
2	2	4
5	6	5
95	95	4
75	75	2
137	145	1
72	72	7
134	134	6
20	20	2
95	107	4
55	55	5
96	96	8
3	3	5
43	44	5
4	6	4
11	18	3
126	126	2
142	142	12
77	77	2
29	62	1
40	40	8
122	122	3
6	6	8
150	150	6
141	141	7
137	137	2
33	33	2
80	80	5
137	138	4
74	75	1
48	50	2
107	115	3
37	37	8
57	71	3
132	132	7
62	62	6
56	56	3
121	122	3
96	97	2
9	12	3
27	27	4
24	24	7
95	96	2
55	56	4
134	135	3
69	70	4
21	22	1
76	102	2
133	134	3
106	110	1
19	20	5
91	92	1
82	83	3
117	117	6
76	77	4
154	154	6
105	113	1
39	40	1
7	9	1
6	7	6
10	10	5
45	64	1
48	70	3
138	138	1
128	130	5
35	36	4
41	42	2
8	8	7
18	18	4
28	87	1
123	124	3
79	80	2
14	15	2
29	31	1
68	69	5
87	87	3
103	104	2
63	64	1
31	32	1
25	25	3
20	22	1
113	114	4
4	5	4
33	35	1
49	51	1
42	46	1
38	41	1
78	79	1
31	31	2
79	81	2
120	122	1
116	116	1
118	118	2
85	93	1
130	131	4
139	139	5
19	22	1
78	81	1
101	114	2
113	113	1
61	80	1
136	136	3
12	13	1
11	14	1
13	14	6
100	100	2
77	102	2
119	135	2
12	14	1
78	78	2
119	120	1
20	23	1
109	110	1
93	94	3
53	57	2
126	127	2
104	104	1
94	95	2
144	145	1
3	11	1
100	101	1
116	117	1
152	152	1
11	12	1
10	19	1
92	92	1
133	133	2
80	81	2
79	79	3
16	17	3
36	42	2
66	67	1
9	9	2
107	110	1
15	16	1
109	109	2
44	44	4
149	150	1
138	143	1
130	136	2
22	23	3
115	116	2
134	147	1
64	78	2
38	39	1
79	95	1
151	152	2
135	135	1
88	88	1
103	115	1
46	47	5
7	20	1
63	63	2
91	97	2
112	113	1
106	106	2
31	57	1
140	141	1
34	36	2
129	129	2
47	48	1
71	71	1
73	74	1
148	149	1
125	125	2
132	134	1
81	83	1
