119	126	1
62	62	3
112	116	2
74	114	2
55	55	4
8	37	1
57	111	2
26	93	2
129	129	1
121	121	1
64	64	7
34	34	10
57	58	3
81	88	2
106	106	2
65	65	7
33	33	13
11	11	7
97	99	4
44	45	4
125	125	7
94	94	5
36	36	10
79	90	4
72	72	3
44	44	4
111	111	8
66	66	6
5	5	9
68	68	10
46	96	1
18	19	1
119	119	9
100	100	12
113	122	3
12	12	4
11	48	1
28	28	4
81	84	1
12	23	2
56	56	4
23	78	5
90	127	2
60	61	1
78	78	7
58	59	4
16	31	4
27	36	1
88	88	1
46	46	4
75	75	7
5	40	2
92	92	3
73	75	1
99	114	4
42	42	4
110	111	1
0	0	6
33	34	2
49	49	7
30	37	2
40	40	2
80	80	2
0	102	3
58	60	3
4	4	3
102	125	4
125	126	2
112	112	3
71	72	2
101	101	2
102	103	4
79	81	2
93	95	1
7	16	3
73	73	7
6	16	2
81	134	1
36	47	3
78	79	2
20	56	2
92	100	1
39	41	1
37	38	1
8	8	5
40	78	2
130	131	1
47	47	7
15	40	2
74	75	5
5	49	3
55	56	7
86	88	13
34	44	1
20	57	1
101	102	3
48	50	2
116	118	5
95	99	1
76	76	6
41	43	2
37	79	5
83	84	9
62	65	1
94	97	2
27	34	2
114	134	4
95	96	2
27	97	2
115	116	6
66	68	2
31	31	2
13	79	1
2	101	2
30	30	6
116	116	4
19	19	5
132	132	1
74	74	3
99	102	4
89	89	1
83	83	6
121	126	3
104	104	4
17	17	3
93	93	3
57	63	1
35	63	1
3	19	2
84	120	2
48	56	3
43	43	4
61	82	11
27	28	1
95	95	4
61	71	1
8	34	1
16	76	1
1	2	2
69	108	1
74	113	4
29	34	2
4	36	1
109	110	2
115	117	3
98	98	5
91	98	4
118	119	2
67	67	2
4	88	1
76	116	2
10	10	4
32	38	2
13	13	3
117	133	4
66	98	3
27	27	5
86	86	3
30	31	2
26	26	6
80	117	1
131	131	2
19	107	5
117	117	5
62	74	2
69	70	1
96	96	2
17	20	7
21	40	2
59	90	2
12	45	1
133	133	1
43	45	2
63	64	2
81	133	1
5	101	1
73	111	1
73	74	2
58	58	1
131	133	3
11	92	2
16	16	2
107	111	2
21	48	1
25	82	1
13	31	3
85	90	1
75	85	2
43	126	1
16	34	1
128	128	2
91	126	1
4	85	1
63	93	2
46	47	1
130	130	1
25	25	3
17	18	3
13	86	1
77	114	2
21	22	2
67	69	1
118	118	2
114	114	1
77	77	3
113	126	1
29	49	2
51	56	1
127	128	1
17	60	3
41	47	1
46	98	1
108	116	1
132	133	1
6	95	2
27	79	1
13	21	1
89	123	2
37	37	2
49	51	2
11	14	1
58	75	2
78	134	1
45	45	3
115	127	1
29	29	2
78	113	2
33	74	2
34	35	1
81	81	1
84	115	1
61	61	3
84	91	2
110	110	1
37	78	1
108	121	1
19	41	2
103	103	2
45	73	1
17	40	1
77	78	2
80	106	1
68	69	2
81	82	3
25	95	1
38	50	1
29	30	2
60	97	1
23	34	1
29	39	1
20	60	1
21	81	1
60	60	1
35	35	1
43	44	2
108	108	1
49	107	1
99	99	1
38	40	1
94	133	1
4	57	1
35	36	1
92	99	1
129	132	1
20	35	2
35	74	2
25	49	1
103	104	1
35	76	1
90	90	1
14	28	1
29	48	1
84	84	1
102	102	2
8	9	1
11	83	1
9	9	1
115	115	1
33	73	1
87	89	2
5	20	1
120	121	1
57	76	1
87	87	2
122	122	3
29	36	2
59	61	1
94	95	1
106	107	1
14	27	1
48	48	2
89	95	1
5	48	1
82	83	1
92	132	1
47	48	1
26	27	1
5	6	1
24	25	1
45	74	1
56	58	1
13	14	2
88	115	1
22	38	1
109	119	1
104	107	1
81	101	1
21	21	1
21	49	1
128	130	1
120	123	1
