67	120	1
76	76	15
169	169	9
72	80	3
131	131	6
108	108	11
1	1	14
61	64	3
178	179	3
73	74	4
19	19	3
152	153	6
135	135	8
86	87	1
91	91	12
47	48	6
82	83	1
70	79	3
109	126	4
74	75	5
62	62	2
106	107	6
37	37	17
113	113	10
0	0	6
41	90	1
174	175	6
45	46	5
173	177	4
169	170	10
184	185	5
138	139	2
114	114	5
25	25	10
6	8	5
8	54	2
87	95	2
118	118	6
184	190	3
29	30	10
117	149	2
166	166	4
38	40	1
91	142	1
46	47	4
100	100	11
175	175	6
89	138	2
5	5	6
182	184	3
142	153	1
150	150	2
119	119	6
179	180	2
160	160	1
74	74	14
185	186	13
142	143	8
168	168	6
77	78	5
22	23	3
83	84	4
152	152	6
122	122	2
88	88	5
3	3	5
149	149	4
174	176	1
66	78	2
90	138	1
28	29	6
25	26	11
124	124	5
24	24	5
29	29	7
161	161	4
186	187	1
34	34	4
77	77	3
123	170	4
84	87	1
89	137	4
159	159	3
78	89	1
27	27	12
156	158	8
38	38	7
178	178	7
14	125	2
69	69	1
186	186	3
167	167	11
63	63	4
130	131	9
132	135	3
4	4	3
180	180	4
148	148	8
61	61	5
166	169	5
97	98	3
67	122	3
124	129	2
12	13	1
47	47	11
66	66	6
21	21	5
6	7	5
136	136	13
57	57	4
17	154	1
185	185	10
110	111	3
24	25	2
80	83	1
42	42	5
23	24	1
56	57	4
31	120	2
182	182	2
17	18	1
70	71	2
158	158	2
167	170	5
89	90	4
13	14	4
32	32	4
125	125	7
95	96	5
33	135	2
8	11	3
29	60	1
177	180	3
138	138	4
36	36	4
99	99	9
2	2	3
144	144	6
94	95	5
103	133	2
11	14	1
134	134	5
164	165	3
156	156	5
68	68	3
28	28	7
26	26	11
166	170	3
164	182	2
101	102	1
39	39	4
70	70	2
163	163	3
30	32	3
91	139	1
83	83	5
151	151	3
190	190	1
67	68	1
89	89	14
179	179	2
48	48	9
16	16	2
74	76	9
96	96	5
173	173	5
180	181	2
157	157	2
73	73	7
143	143	4
31	33	2
48	49	4
48	66	3
159	174	1
162	162	6
118	119	4
104	104	4
188	188	1
103	103	6
135	147	1
94	94	17
154	154	2
123	151	1
14	128	2
26	146	1
39	89	2
177	178	2
140	140	10
19	22	2
147	148	3
126	126	7
123	123	2
123	124	6
4	14	1
86	86	11
72	73	1
32	125	1
117	118	5
126	129	1
147	149	4
78	78	6
163	173	4
108	109	2
182	183	2
103	130	1
101	103	5
71	71	1
23	23	3
17	17	1
39	40	3
59	73	1
170	173	2
125	128	3
141	144	5
137	137	3
54	54	7
159	160	4
129	129	2
165	167	1
27	57	2
32	120	1
19	148	1
183	183	3
107	108	2
59	60	1
79	120	1
146	146	7
6	6	2
23	28	4
7	7	7
109	109	12
96	101	1
26	27	3
177	177	6
79	80	1
92	110	1
153	157	2
140	141	3
86	96	2
180	183	2
121	121	6
13	13	4
11	11	3
189	189	7
116	116	5
132	133	3
139	141	1
45	45	6
35	35	9
101	101	5
33	33	5
141	141	2
58	58	6
87	88	3
78	90	1
142	142	1
162	163	1
96	98	3
4	7	2
132	132	6
35	61	3
13	28	2
18	19	5
17	20	1
138	140	4
171	173	4
93	93	7
72	72	3
139	139	8
155	155	2
32	33	1
71	72	1
187	188	5
53	53	5
153	153	2
32	35	1
19	20	6
71	73	3
83	85	5
157	159	1
90	90	5
10	12	2
130	130	2
56	76	3
109	110	2
79	94	2
132	169	1
84	84	3
166	167	1
80	80	5
33	34	7
128	129	6
168	189	1
83	107	4
105	106	3
172	173	4
139	140	1
72	74	1
87	87	8
18	180	3
143	151	2
173	174	3
83	128	4
88	89	1
120	120	3
100	122	2
42	43	3
178	183	2
30	30	5
164	184	1
181	181	3
92	92	4
110	110	5
22	22	1
34	36	1
20	154	2
189	190	3
127	127	9
16	17	3
40	41	1
64	64	2
60	60	4
17	21	2
125	126	4
163	175	2
140	153	4
165	165	11
41	41	8
170	170	1
15	15	4
85	85	4
105	105	2
133	133	2
43	43	4
20	24	3
163	168	2
7	8	1
79	79	5
146	147	1
137	138	2
98	98	1
15	16	1
115	115	3
75	75	1
114	119	4
99	113	1
33	35	5
36	37	3
162	167	2
103	104	3
171	174	1
84	85	2
106	127	3
152	154	2
68	120	2
78	79	5
171	171	1
97	100	1
108	110	2
164	164	6
66	86	2
147	178	1
163	167	3
174	174	5
32	34	1
95	95	2
101	105	1
37	38	2
111	114	3
41	137	5
76	77	5
66	67	2
5	8	2
3	8	1
126	127	2
91	141	1
64	65	3
134	135	2
106	106	1
142	177	2
157	158	2
5	6	1
26	39	1
165	166	1
161	162	1
80	81	4
90	143	1
107	107	2
104	105	1
103	142	2
178	180	1
101	168	2
138	144	1
27	28	1
55	57	1
147	147	2
177	184	1
151	154	1
184	184	2
17	185	1
163	184	1
164	167	1
98	110	3
59	59	1
114	115	6
33	67	1
90	92	1
23	32	2
145	146	2
148	150	1
55	55	2
111	111	3
19	165	1
158	161	3
153	154	1
54	55	1
29	31	1
20	147	1
68	70	1
23	25	1
165	189	1
55	56	3
82	82	1
18	18	1
163	164	2
57	58	1
126	128	2
121	153	1
133	138	1
112	112	2
90	91	1
80	97	1
141	150	1
94	112	1
120	154	1
71	82	2
156	180	1
23	174	1
87	107	2
60	61	1
148	149	1
28	35	1
46	48	1
65	65	1
20	36	1
91	111	1
3	4	1
118	124	1
14	14	1
176	177	1
12	12	1
2	15	1
35	37	1
137	139	1
87	98	1
45	47	1
9	13	1
11	12	1
22	30	1
112	113	2
20	20	1
158	178	1
71	79	1
15	132	2
113	115	1
71	80	1
133	135	1
146	148	1
21	180	1
130	141	1
143	153	1
166	172	1
70	88	1
43	44	1
181	182	1
111	115	1
154	155	1
4	12	1
133	134	1
73	116	1
122	123	1
3	6	1
1	2	1
32	143	1
96	97	2
144	150	1
116	117	1
141	142	1
120	121	1
38	39	1
160	163	1
102	102	1
27	29	1
10	10	1
171	172	1
121	155	1
