63	63	19
53	53	15
38	38	11
76	76	17
46	46	23
46	50	6
86	86	10
52	56	1
48	76	3
94	94	19
61	79	3
66	89	3
44	44	15
65	66	3
54	54	7
85	89	4
72	72	21
85	85	18
81	81	18
63	64	7
97	98	5
62	62	17
87	87	5
49	51	9
52	52	12
66	66	17
88	88	12
82	83	2
90	91	5
58	58	8
36	37	6
41	41	15
78	78	10
36	45	2
47	47	19
33	33	8
24	24	1
29	29	32
77	77	13
60	61	5
56	57	4
100	100	14
59	59	24
31	34	2
40	40	11
49	49	17
91	91	21
45	45	5
65	70	2
43	57	4
28	28	3
81	82	2
69	69	12
71	72	13
37	37	18
46	48	8
29	30	4
91	92	3
55	56	3
70	70	23
48	48	14
80	81	5
98	98	11
39	39	11
74	74	22
96	96	9
31	37	2
80	80	13
99	100	4
47	98	3
57	58	7
67	67	17
23	23	4
89	89	9
31	31	10
87	88	4
76	77	9
55	55	7
50	51	6
36	36	18
88	89	2
22	22	1
24	26	2
57	59	1
62	78	5
38	39	5
26	27	1
49	50	17
83	84	8
61	61	15
35	57	1
86	87	4
83	83	13
81	84	8
79	79	15
72	74	4
30	63	1
41	42	4
33	37	4
27	27	7
64	64	17
59	78	2
73	73	11
97	97	6
51	51	9
72	73	6
49	78	1
93	93	7
51	52	13
88	92	1
43	44	3
95	95	15
56	61	1
74	75	5
69	77	6
33	34	10
71	71	12
67	74	3
67	68	8
89	91	4
52	53	6
39	40	3
77	78	7
40	43	1
92	92	3
92	99	2
61	80	5
70	71	8
42	42	16
92	93	5
47	48	6
93	94	2
70	72	3
100	101	10
68	68	4
35	35	12
35	58	1
66	67	6
62	77	4
84	84	8
44	45	7
65	69	1
37	38	3
34	55	1
75	75	20
90	90	12
41	43	1
60	60	10
93	97	1
73	74	4
70	75	2
57	57	15
58	59	6
99	99	11
30	30	3
41	81	2
20	20	1
67	75	1
33	38	3
44	95	2
21	34	2
85	86	1
63	76	3
56	56	3
69	70	4
36	51	3
50	50	1
89	92	2
101	101	5
46	100	5
44	48	1
49	52	1
32	32	4
62	63	4
69	72	1
54	56	3
69	74	2
95	97	1
62	80	2
59	60	1
65	65	2
30	39	1
33	35	2
48	102	1
47	86	1
95	96	4
47	51	2
34	76	1
43	43	6
67	73	6
83	91	1
94	95	2
55	61	1
31	33	1
35	79	1
36	44	1
26	26	1
63	77	1
78	90	1
66	69	1
59	94	1
60	81	1
44	46	1
65	91	2
35	36	3
80	84	1
100	102	1
85	90	1
49	100	2
102	102	5
33	39	1
22	63	2
93	96	1
66	68	3
68	77	1
46	85	2
53	55	1
45	57	2
54	55	5
96	97	1
22	35	1
98	101	1
23	24	1
57	77	1
45	100	1
47	100	3
49	57	1
95	99	2
79	82	1
42	44	1
94	98	1
31	62	1
77	89	1
87	96	1
99	101	1
35	61	1
35	62	1
65	68	1
67	90	1
77	85	1
48	49	2
34	35	2
55	75	1
46	47	1
34	34	1
91	93	1
