111	124	2
129	129	14
75	76	6
6	6	10
4	4	8
84	93	3
128	130	1
11	24	6
137	137	16
138	138	8
120	120	5
110	111	9
35	35	7
80	112	1
108	108	1
134	134	15
13	13	6
127	128	1
74	115	4
6	7	12
131	132	3
118	124	1
87	87	5
107	107	6
118	119	6
10	22	1
17	17	7
29	29	3
37	37	8
5	6	8
78	78	3
118	118	10
128	129	7
135	138	3
83	83	3
11	22	2
78	82	1
90	90	3
127	127	10
130	130	6
3	3	5
7	27	1
108	109	6
131	131	14
102	102	5
15	15	3
25	26	8
98	100	3
126	127	4
3	22	1
26	26	7
22	23	3
122	122	4
120	121	5
89	89	2
100	100	8
7	9	1
85	86	2
4	15	2
3	20	1
135	135	4
110	110	9
123	123	11
20	20	4
114	114	6
79	80	6
140	140	9
129	130	4
89	90	4
25	25	4
135	136	4
133	133	3
24	25	2
95	96	3
116	116	3
28	28	3
93	101	1
11	11	7
124	124	9
124	125	11
75	120	1
82	89	5
113	116	1
29	31	1
79	82	5
111	112	5
19	19	5
74	88	2
30	30	1
18	18	3
1	3	1
33	33	7
81	81	7
83	106	5
73	92	3
108	121	4
88	88	3
101	101	4
121	121	12
113	113	12
129	138	3
105	106	6
136	136	10
96	96	7
79	119	2
82	85	2
80	80	4
114	124	5
139	139	5
92	92	3
15	25	1
122	129	1
105	119	2
92	101	1
79	116	3
12	12	7
117	119	3
104	107	2
122	123	1
21	21	1
117	118	2
88	92	3
1	1	1
134	135	2
109	116	3
27	27	10
103	103	6
119	119	1
22	122	5
77	90	1
76	76	4
78	87	1
135	137	2
74	74	8
14	27	2
13	14	4
23	25	3
36	37	2
126	134	2
93	93	2
77	83	1
76	77	2
24	26	3
73	122	4
126	126	11
132	132	7
1	5	3
105	105	3
24	24	2
12	69	3
85	116	2
5	5	4
7	8	2
97	97	4
89	91	1
120	122	1
98	99	1
71	71	2
81	82	4
105	109	3
109	112	3
72	123	2
115	115	1
6	21	1
128	128	3
77	77	4
123	124	1
38	38	1
8	8	4
73	123	2
16	16	3
93	107	2
80	85	1
84	85	3
32	32	2
88	89	2
18	35	1
75	100	2
8	20	3
125	137	1
87	92	1
15	17	2
122	128	1
76	83	3
11	12	2
86	86	1
9	9	3
86	111	1
139	140	1
82	82	1
132	133	3
9	12	1
136	140	1
83	84	1
117	117	3
77	122	3
23	26	1
27	30	2
107	116	1
134	139	1
125	125	5
18	19	1
78	122	1
30	32	1
89	110	1
23	23	1
4	5	2
17	21	1
102	103	2
107	117	1
133	134	1
79	79	1
78	83	1
22	22	2
11	25	1
111	127	1
104	123	1
89	128	1
7	7	1
101	102	3
1	4	1
85	85	2
117	124	1
85	111	1
75	78	1
130	133	1
90	91	2
27	29	1
125	126	1
125	127	1
81	83	1
