98	99	3
82	86	1
9	9	7
87	87	8
86	87	2
42	43	1
35	74	2
31	32	2
67	67	1
59	59	5
81	81	11
14	19	1
47	47	5
94	94	4
35	92	1
124	125	1
73	73	1
34	34	2
81	88	3
99	99	3
8	12	1
30	30	5
60	61	3
18	29	3
7	7	4
10	62	2
63	64	1
111	120	1
69	69	3
129	130	2
91	92	1
3	9	3
36	49	1
16	16	9
68	68	4
123	123	2
60	60	4
8	35	4
33	33	6
92	92	6
10	12	2
85	85	6
113	114	1
72	110	4
29	30	6
103	103	2
69	71	1
28	95	2
110	123	2
90	92	4
45	45	4
66	66	5
125	125	2
128	129	1
90	90	2
43	43	3
57	57	7
10	11	1
93	93	6
17	21	3
48	48	8
48	49	4
80	80	3
77	78	1
47	96	2
55	56	5
90	91	2
71	71	5
25	26	2
71	72	4
40	41	4
83	83	7
31	98	2
23	23	1
37	81	2
70	70	5
8	8	6
45	46	2
77	125	3
83	84	4
93	99	1
74	74	3
15	15	2
5	5	3
36	36	4
84	85	5
6	6	5
93	94	2
56	57	1
78	92	1
20	20	1
17	17	8
117	119	4
10	10	8
33	34	3
35	35	3
88	88	4
14	14	7
69	72	3
30	73	1
9	47	1
28	28	3
32	33	4
78	79	5
101	102	1
12	12	5
123	124	1
32	32	1
82	83	1
61	61	6
110	110	3
56	56	5
112	112	6
65	65	4
114	114	4
108	108	5
10	14	1
97	98	1
35	66	1
35	36	4
30	94	2
13	14	1
101	101	1
95	95	2
77	77	5
65	66	6
4	4	4
4	86	1
62	62	4
29	29	4
17	18	2
72	78	1
18	18	5
118	118	3
62	72	1
60	81	2
46	46	4
4	5	1
108	109	3
28	91	1
8	13	1
5	83	2
28	79	2
94	101	2
87	92	2
130	130	1
77	80	3
26	48	2
79	108	1
14	59	1
25	47	2
25	25	3
13	13	2
44	44	3
64	64	7
63	63	2
122	122	4
126	126	1
126	130	1
87	122	3
13	21	1
84	84	6
29	31	2
128	128	5
58	58	3
11	11	2
16	81	1
121	121	1
100	112	1
55	55	2
133	134	2
113	118	2
109	109	2
95	96	1
87	88	2
41	42	2
46	47	4
6	7	2
86	86	2
115	116	1
11	12	1
122	125	2
18	25	1
26	26	3
11	45	2
9	10	1
67	71	1
121	125	2
1	1	3
37	37	1
3	3	3
119	119	2
12	13	2
115	117	2
2	2	1
20	21	2
35	76	1
48	96	4
28	59	1
72	72	4
99	100	2
28	31	1
75	75	2
42	47	2
72	108	1
19	109	1
48	84	1
80	81	1
111	111	1
32	34	1
120	120	1
68	69	1
7	65	1
80	109	2
28	66	2
105	109	1
133	133	1
10	47	1
82	82	2
47	48	2
3	93	1
11	27	2
67	68	1
45	61	1
96	96	1
113	131	1
4	9	1
111	112	1
29	40	1
76	77	1
22	32	1
78	78	1
21	36	1
