49	49	26
110	110	18
133	133	17
62	144	4
10	12	5
102	140	1
27	27	27
135	135	12
105	117	3
119	144	2
86	94	2
119	119	29
65	73	1
134	134	16
5	34	3
29	29	16
104	121	1
107	108	7
3	21	2
88	139	2
109	109	15
35	35	22
54	54	11
32	32	17
58	59	15
144	144	17
80	80	28
36	49	4
38	38	21
72	92	3
118	135	2
120	120	30
103	103	19
13	13	20
106	106	7
143	143	24
66	66	6
1	1	4
83	85	3
139	139	14
109	133	3
124	124	17
23	56	2
124	126	6
89	89	12
53	130	3
86	97	3
35	36	5
134	140	1
113	138	4
61	61	11
123	123	17
132	132	13
3	3	11
140	140	16
67	94	4
121	121	20
112	135	12
113	130	2
111	111	5
124	141	5
29	30	3
30	30	15
8	31	1
42	43	5
31	33	20
56	119	2
118	140	6
140	141	11
75	116	1
8	8	31
118	137	4
138	139	3
117	118	5
60	129	1
68	68	13
78	78	11
107	126	3
142	142	17
130	141	1
136	139	8
49	58	3
70	70	11
100	100	18
90	91	2
113	114	5
112	122	2
91	91	26
145	145	10
33	33	12
72	127	12
136	136	14
127	127	10
127	132	2
102	102	20
139	140	7
53	53	8
125	128	4
105	120	4
107	117	5
24	24	12
17	17	11
40	40	13
64	64	11
85	100	5
39	39	8
10	10	16
82	107	4
17	18	9
108	134	2
40	106	3
80	102	1
96	131	2
69	105	7
128	128	22
77	78	7
34	36	2
137	137	13
95	95	17
15	16	9
5	35	1
134	135	6
48	48	9
64	65	8
125	131	2
112	112	13
104	104	12
75	128	4
15	34	1
85	86	7
26	27	6
70	92	2
20	48	2
50	70	4
71	94	2
39	59	1
121	122	2
98	98	7
5	5	8
106	111	3
131	131	18
2	4	4
144	145	1
55	55	11
15	15	17
88	89	7
52	52	8
126	126	18
2	37	6
81	82	4
42	42	12
105	106	7
117	117	17
14	14	9
105	105	7
35	48	3
90	90	13
114	114	10
47	50	2
7	21	5
2	2	4
54	56	5
125	126	11
65	108	4
138	138	22
2	31	10
36	36	7
142	143	7
137	138	11
106	117	3
25	51	2
50	52	11
30	37	1
13	14	5
101	101	9
119	137	5
4	57	11
39	40	6
54	58	5
133	140	7
83	104	4
67	67	9
4	5	4
20	43	2
0	0	8
56	56	16
2	34	3
12	13	2
25	27	1
11	36	1
56	62	4
92	94	5
122	122	12
0	32	2
50	50	8
128	129	2
107	107	7
41	41	18
57	57	23
65	66	5
118	118	18
97	98	1
141	141	24
95	106	1
134	138	8
47	51	5
116	120	5
111	117	1
94	95	9
125	125	22
85	132	3
37	38	12
120	138	2
48	53	3
62	65	4
30	31	3
74	74	15
68	108	5
60	62	7
55	65	1
122	126	5
118	121	1
93	93	8
112	138	1
113	113	18
25	25	14
34	53	1
28	30	2
97	97	12
82	83	5
23	48	2
89	90	6
52	58	3
33	37	2
66	67	5
48	52	2
69	102	2
42	49	2
73	106	1
10	20	8
120	121	1
113	115	1
120	136	2
124	125	11
75	130	5
122	123	5
87	93	2
141	142	3
119	141	3
24	97	8
96	97	4
93	94	6
105	112	1
50	76	6
62	66	7
25	52	1
31	32	4
24	48	3
96	104	3
110	112	7
117	121	2
14	15	7
86	104	1
88	90	6
23	50	2
14	36	4
118	120	6
81	81	8
50	80	4
25	32	2
0	1	5
79	79	13
133	135	4
19	19	14
8	37	6
62	64	6
40	41	17
9	83	4
18	20	3
60	60	14
126	128	1
4	32	2
75	75	7
4	4	10
70	130	6
61	66	7
99	100	11
76	77	4
128	130	2
63	143	4
97	139	1
25	98	5
135	137	4
110	111	5
98	131	2
78	79	1
120	123	5
116	121	5
69	69	20
86	92	3
136	137	9
72	73	9
50	78	4
85	85	3
16	16	13
19	55	1
10	83	4
139	141	7
111	113	3
24	52	2
57	58	5
72	72	6
127	130	2
9	11	4
23	24	4
69	83	3
20	20	6
115	117	2
99	99	6
118	144	1
130	130	7
65	65	2
109	112	2
1	13	4
67	68	5
137	140	1
12	12	2
99	103	6
98	123	2
73	73	16
10	48	2
53	54	3
37	37	10
108	108	5
88	88	12
9	9	3
71	125	1
113	131	1
120	127	5
95	96	7
11	11	5
41	83	1
102	105	2
66	72	2
55	127	3
60	77	3
94	94	6
37	42	2
9	43	4
8	26	3
129	142	1
64	107	3
85	98	3
64	76	1
0	16	2
86	96	2
36	53	3
111	112	1
126	127	3
1	37	2
104	106	1
87	90	2
56	76	1
67	108	2
6	48	3
65	109	10
22	22	25
85	97	2
108	109	3
102	103	8
28	28	7
23	25	2
129	143	3
22	53	2
59	59	8
116	122	2
33	64	2
96	99	1
68	87	1
20	65	4
77	77	5
68	70	1
30	128	1
23	23	13
13	58	1
101	102	5
83	99	1
93	116	3
91	92	5
49	53	4
99	124	3
6	56	3
8	73	1
63	63	3
71	105	1
52	57	1
71	73	6
60	61	1
5	12	1
117	131	2
118	132	4
82	82	7
51	79	2
114	118	1
51	77	3
4	6	4
75	76	7
101	122	6
21	21	4
43	57	4
58	58	9
21	47	2
97	136	1
109	110	3
97	100	2
103	104	7
70	86	1
118	119	13
25	33	2
39	41	8
73	98	1
34	34	5
12	16	2
136	138	1
94	99	2
92	93	2
124	131	2
70	139	1
33	47	2
27	30	2
76	78	5
103	146	1
115	119	2
96	109	3
116	117	7
70	71	2
84	96	1
87	92	4
10	11	5
110	116	1
102	107	2
114	121	2
33	36	3
30	55	1
87	88	1
131	132	4
38	41	4
96	96	10
109	144	2
47	47	8
123	127	1
120	124	1
87	103	2
84	84	6
63	68	2
62	145	2
38	39	4
20	21	3
6	6	3
26	26	6
129	129	21
28	29	9
65	72	2
15	25	1
84	132	4
117	141	5
66	69	4
133	139	1
19	29	1
115	125	4
20	42	5
21	99	1
34	46	3
18	18	12
87	94	1
83	83	5
106	134	5
59	60	5
76	76	5
62	62	8
4	35	3
108	140	1
71	71	7
72	96	3
117	120	1
24	96	3
121	124	1
38	103	3
134	139	2
116	116	13
32	55	1
6	47	3
75	81	2
75	77	4
2	47	1
56	58	2
65	129	3
18	19	4
13	15	2
77	79	1
61	62	1
5	36	1
9	36	2
24	46	1
33	35	3
74	126	1
112	113	1
88	137	3
118	130	4
24	57	2
18	27	5
73	85	3
119	120	7
113	136	1
41	49	1
131	143	1
20	50	4
118	138	3
99	104	5
26	30	2
72	104	2
64	108	3
133	145	2
125	127	4
25	43	1
62	127	2
116	118	3
103	124	3
62	63	5
34	47	2
132	139	3
60	130	2
16	17	1
121	123	2
16	54	1
89	137	2
73	74	5
76	79	4
146	146	3
87	87	5
122	136	3
0	21	1
127	128	1
135	143	5
60	75	1
1	36	3
50	130	2
76	130	1
39	71	1
70	72	2
47	49	1
39	55	2
58	61	1
121	130	2
87	132	2
11	39	3
48	49	5
8	40	1
120	134	2
73	75	1
92	132	6
96	139	4
128	143	1
59	61	3
118	133	4
67	75	1
114	131	1
111	133	3
31	35	3
8	35	2
143	144	1
71	122	2
74	102	1
119	136	5
23	57	1
2	43	2
113	120	1
69	70	2
32	33	3
38	72	2
110	136	1
64	67	3
51	51	4
88	130	1
27	28	3
139	142	3
84	98	4
106	107	4
62	68	3
91	136	2
51	130	1
41	42	1
66	68	3
105	107	1
71	98	2
130	131	3
53	128	2
55	126	4
39	73	1
134	136	3
135	138	2
2	35	3
47	52	3
8	42	1
91	114	2
11	64	2
115	115	1
83	131	2
135	140	1
42	56	1
74	79	3
71	104	1
12	14	2
84	85	1
19	34	1
94	118	1
108	125	2
21	22	3
117	130	1
3	4	1
34	73	2
12	31	1
92	114	1
63	64	1
3	35	5
92	92	5
20	28	1
72	85	1
21	84	1
0	30	1
139	143	1
72	98	2
64	141	1
105	127	2
110	114	1
49	52	2
107	121	1
46	48	1
122	132	2
76	80	2
2	33	3
82	86	4
52	54	1
15	24	1
21	65	4
50	51	2
41	54	2
133	134	3
83	107	2
29	66	2
122	127	4
26	28	1
21	72	2
95	98	1
102	146	1
10	21	1
94	112	4
106	135	2
19	32	1
98	110	1
66	73	1
50	79	1
11	73	2
14	47	4
90	93	2
33	84	1
66	71	1
4	40	2
24	56	1
85	131	1
20	37	1
95	109	1
100	103	1
115	131	3
52	61	2
125	130	3
92	139	1
86	93	3
63	108	3
76	82	2
36	37	3
29	56	1
94	111	3
55	57	1
39	105	1
131	142	1
33	54	2
124	127	1
118	141	2
1	4	2
79	80	2
37	54	2
1	42	1
65	138	1
2	5	1
99	131	1
11	20	1
109	139	1
14	31	2
107	123	1
73	130	1
16	49	1
3	36	1
114	137	1
70	105	3
69	127	5
10	19	3
38	55	2
120	135	1
123	136	1
132	133	4
20	103	2
16	32	2
94	113	1
135	139	4
123	132	1
107	144	1
83	93	1
124	133	1
88	91	1
86	105	1
66	102	1
78	137	2
10	36	1
135	136	3
10	35	1
57	69	1
96	101	2
13	16	1
98	141	1
60	68	1
114	115	2
113	118	1
105	114	1
90	137	2
75	129	1
92	112	1
63	65	1
66	130	1
25	53	1
134	137	1
117	119	1
145	146	1
6	40	1
1	94	1
79	99	1
125	140	1
11	25	3
31	31	2
50	53	2
99	101	1
55	56	1
113	139	1
86	86	1
53	60	1
19	20	2
103	126	1
34	41	1
140	143	1
42	74	1
24	84	1
21	66	1
34	43	1
66	93	1
100	101	1
8	12	2
11	83	1
20	104	2
91	140	1
51	53	1
40	73	2
122	139	1
98	99	1
2	3	1
75	80	1
115	116	1
124	130	1
93	118	1
121	136	1
112	139	2
76	93	1
117	140	1
32	36	1
111	116	1
127	131	1
133	137	1
140	142	1
92	98	1
97	122	1
84	95	1
119	138	1
60	128	1
8	9	1
130	140	1
20	102	1
94	122	1
91	101	1
94	101	1
69	71	1
