80	80	23
97	97	8
59	98	3
131	131	21
57	96	1
97	117	4
102	102	16
97	98	3
89	89	10
25	25	20
0	0	10
47	144	4
124	127	5
81	82	5
6	37	2
50	50	16
63	138	2
31	31	10
70	138	1
13	14	12
66	66	12
129	129	20
32	32	11
70	99	1
113	113	16
28	28	13
9	28	7
65	128	1
116	117	7
86	105	2
106	142	2
98	141	3
126	126	19
53	53	14
22	23	6
93	93	11
61	107	3
73	73	7
48	48	7
137	138	13
17	18	11
134	134	21
103	103	10
99	99	6
61	64	2
37	50	4
24	24	14
37	40	2
92	93	2
70	137	3
130	130	19
30	30	11
71	71	5
122	122	21
64	70	1
3	3	11
29	29	9
68	68	11
47	47	7
144	144	10
75	75	10
106	143	2
25	26	8
126	130	4
82	84	1
71	104	4
50	69	3
109	112	1
55	117	2
3	31	4
114	122	2
47	49	2
69	70	2
101	101	9
25	27	2
91	142	1
4	4	9
92	92	14
27	27	6
99	103	1
51	51	11
51	52	8
56	106	3
8	8	12
9	9	5
6	33	2
140	140	16
80	119	2
102	103	6
1	31	8
138	140	2
41	71	1
1	1	10
3	35	4
98	98	9
71	72	9
108	108	5
17	17	9
88	104	6
37	71	2
62	62	18
93	136	4
37	37	7
99	142	3
106	106	13
90	91	6
56	131	4
91	141	1
5	134	2
56	57	1
120	145	4
58	59	10
21	21	10
97	106	2
67	67	6
21	24	3
106	107	4
34	35	6
117	117	15
123	138	1
90	93	3
115	128	2
135	135	7
83	84	9
36	36	9
22	22	7
35	83	2
54	54	9
120	120	22
33	33	5
74	75	10
56	56	7
19	19	10
129	130	5
41	41	10
133	134	7
63	63	13
62	94	5
104	104	8
14	14	15
94	112	3
121	123	7
39	39	15
78	78	9
112	117	1
77	78	7
78	79	2
108	139	4
100	101	6
94	94	7
63	140	1
60	60	4
61	61	10
53	69	2
42	42	13
14	15	6
3	34	4
26	26	13
38	38	19
125	125	12
133	136	6
85	85	17
132	136	1
134	142	4
98	99	9
107	107	16
5	6	1
5	5	15
94	107	1
128	128	12
136	136	10
118	118	12
20	20	7
34	138	1
19	33	3
76	76	8
63	132	1
11	27	3
95	95	11
128	130	1
139	139	6
6	8	1
10	20	3
62	107	2
80	81	2
141	141	8
59	142	5
138	138	16
84	84	10
82	82	9
15	15	8
27	28	10
81	81	8
49	70	4
85	86	5
64	65	8
124	124	14
37	51	1
108	142	4
108	110	4
31	36	2
101	140	4
74	74	12
68	132	3
53	54	4
42	43	5
128	131	2
127	127	11
64	64	8
137	140	2
63	65	1
79	79	11
39	41	2
109	110	1
137	139	6
12	66	3
23	23	10
105	140	1
55	55	8
77	77	14
57	86	3
114	115	2
121	121	16
14	143	4
123	123	5
72	72	11
10	10	9
121	137	2
133	133	10
18	18	10
87	87	13
116	116	17
131	133	2
84	85	7
72	86	2
119	120	3
110	110	8
65	65	7
138	139	11
42	83	1
16	16	3
125	127	2
64	86	2
124	125	7
126	134	1
143	143	8
131	134	4
22	26	1
18	25	1
90	90	12
101	103	4
35	35	9
33	34	4
62	63	8
3	36	3
68	79	2
71	75	1
115	115	11
57	136	2
100	144	1
37	124	1
86	86	3
96	96	7
9	20	1
11	11	1
88	143	2
52	69	5
110	111	7
96	97	7
137	137	11
125	126	3
67	68	2
65	66	6
57	58	7
61	94	1
31	40	2
21	37	3
32	33	4
47	128	1
52	52	11
95	97	2
20	40	6
38	41	1
107	136	3
93	94	3
11	17	3
21	122	1
51	53	4
64	143	1
88	92	1
56	96	1
111	111	12
70	70	3
111	112	2
113	138	3
33	144	1
135	136	5
19	27	1
49	49	5
57	64	1
71	122	2
38	39	2
69	141	2
83	83	12
57	63	1
66	73	3
87	101	2
125	138	1
52	56	3
37	73	1
28	29	4
124	126	2
112	113	4
2	2	12
36	141	1
78	128	2
38	126	1
4	33	3
113	114	2
11	85	2
51	69	3
86	132	5
57	57	4
59	60	5
1	26	2
117	118	2
77	131	1
8	95	1
13	15	2
136	139	2
30	32	3
107	109	7
21	33	1
95	109	2
139	143	3
91	98	1
140	141	4
31	32	9
38	78	1
13	13	3
109	109	16
127	133	2
123	129	2
132	134	7
132	133	4
55	106	2
121	138	5
65	132	2
104	105	3
56	134	4
91	91	8
10	33	4
127	129	4
23	50	1
15	16	12
50	51	4
2	134	1
113	129	2
100	100	4
17	29	2
112	114	4
88	88	7
135	138	1
115	116	4
43	43	1
88	89	2
59	59	2
102	144	3
4	5	5
26	27	8
53	74	1
47	63	1
56	142	2
107	110	2
67	127	1
66	131	3
94	104	2
105	137	2
56	136	2
119	121	5
9	32	1
93	105	6
108	111	2
61	131	1
146	146	4
121	122	7
64	133	10
60	61	1
31	35	3
68	69	7
21	27	4
114	114	4
24	26	2
65	136	4
71	89	3
62	93	1
119	119	6
64	135	2
6	6	10
40	77	1
132	132	10
0	1	3
54	55	3
96	98	1
49	50	2
23	26	1
112	112	6
3	135	3
101	124	2
89	102	1
64	132	2
30	31	4
43	75	4
3	4	2
96	105	8
94	95	4
136	138	7
82	133	1
57	82	1
135	139	1
58	140	1
111	126	2
14	48	5
51	127	1
98	132	1
96	106	2
93	133	2
81	83	3
25	126	3
110	141	2
4	41	2
87	89	2
141	142	3
93	108	2
63	96	1
41	42	3
87	129	1
33	35	2
20	35	1
118	119	10
70	71	1
71	119	2
71	100	1
5	15	1
95	99	2
71	103	2
92	106	1
5	35	1
134	135	1
117	119	1
69	69	4
63	64	1
108	137	1
132	135	3
97	142	1
106	139	5
63	71	2
107	140	4
36	37	3
4	35	2
72	139	1
37	58	2
118	131	1
95	102	1
57	59	1
93	135	2
4	76	3
73	74	3
23	67	2
123	142	2
11	15	3
2	40	4
96	141	1
18	19	4
37	142	2
9	21	3
76	80	1
61	65	1
21	23	1
66	133	2
117	132	2
62	64	1
60	102	3
27	29	3
94	119	2
34	36	2
109	135	1
74	80	1
39	40	1
79	80	1
48	69	2
62	110	1
122	123	4
72	131	1
120	133	1
64	134	4
67	131	1
119	122	1
136	140	2
63	72	1
108	109	6
53	55	2
142	143	6
117	131	2
22	39	2
81	87	1
18	98	1
2	4	2
65	137	4
23	124	1
59	104	2
119	138	1
19	21	1
77	79	1
65	96	1
142	142	10
4	6	1
54	56	2
61	63	2
1	9	3
36	102	1
29	40	3
105	105	3
87	92	4
97	141	1
55	84	1
100	103	3
67	81	2
2	13	1
17	42	5
26	28	1
126	127	2
23	24	2
56	126	2
43	76	3
72	132	1
63	128	2
69	79	1
64	131	1
50	70	1
118	120	1
10	39	1
94	136	4
8	102	1
38	76	2
49	127	4
22	28	1
97	107	1
122	124	1
55	56	1
2	5	3
21	22	1
48	49	2
40	134	1
56	133	1
89	109	1
40	40	2
62	74	1
4	77	1
82	91	1
53	56	2
70	102	2
55	62	1
59	140	1
67	142	2
2	12	1
87	88	2
31	33	1
87	132	1
76	78	1
127	130	2
8	9	1
89	90	1
32	75	2
105	117	1
5	13	1
38	144	2
54	116	1
140	142	1
65	135	4
120	121	1
145	145	3
106	140	2
99	102	3
56	104	2
12	31	2
9	19	1
20	33	1
37	43	1
75	76	1
57	97	1
39	50	2
64	76	1
13	16	1
51	129	1
127	131	1
92	112	1
53	133	1
137	141	1
3	85	1
113	124	2
136	137	1
70	128	1
14	49	2
89	99	1
81	134	1
47	129	2
68	70	2
52	129	1
66	142	1
86	134	1
58	110	1
66	71	2
92	140	1
40	56	1
6	48	1
5	49	1
62	122	2
27	32	1
74	81	3
119	136	1
70	129	1
84	135	1
66	134	1
55	125	2
47	65	1
123	124	1
12	12	1
90	110	1
94	118	1
49	143	1
93	138	2
91	104	1
34	121	1
12	25	1
65	86	1
96	107	1
144	145	1
58	58	4
131	132	1
70	119	1
110	112	1
130	131	2
1	11	1
135	143	2
108	134	1
103	144	1
96	140	1
20	31	1
70	123	1
51	70	1
74	142	1
37	38	1
57	61	1
57	62	1
89	146	1
34	34	1
8	19	1
10	36	1
0	2	1
62	118	1
63	136	1
134	143	1
56	129	1
3	10	1
61	92	1
103	106	1
