53	56	5
54	54	44
40	40	30
99	99	33
22	22	25
27	27	23
8	9	21
80	80	33
37	37	51
78	78	25
77	79	11
36	36	34
88	88	36
91	93	16
50	85	6
50	50	45
90	90	52
76	76	25
126	126	30
75	96	2
147	158	2
21	85	2
9	9	25
145	145	16
77	78	11
13	13	25
110	110	22
157	157	18
84	84	38
72	78	3
68	68	26
158	158	32
7	7	50
48	49	14
53	53	40
89	98	4
153	153	20
18	95	2
147	152	1
74	75	25
124	124	24
91	95	7
6	108	3
62	66	4
70	70	37
143	169	3
57	62	4
3	5	10
106	109	4
34	34	40
118	118	24
102	127	5
166	166	19
131	133	2
159	159	19
44	45	22
94	97	2
48	48	24
102	125	1
83	83	35
86	86	29
133	133	20
49	49	32
131	132	6
126	127	22
39	39	27
138	138	12
160	161	8
107	107	21
114	116	7
4	4	36
39	40	12
11	11	31
101	102	17
125	125	17
156	156	26
100	100	26
14	15	16
150	150	12
52	52	22
0	1	19
151	151	26
134	134	22
35	42	4
165	165	20
11	12	27
104	105	6
85	85	35
0	170	2
36	38	9
46	47	12
8	8	30
144	144	17
147	148	24
19	19	31
35	35	31
3	3	34
37	38	26
26	26	25
80	82	9
168	168	11
111	111	31
93	94	13
45	45	67
69	69	56
87	88	14
92	92	30
142	143	14
88	91	3
113	113	26
88	90	3
63	64	6
121	122	9
91	91	48
14	14	35
67	69	6
93	93	31
89	90	21
42	42	25
51	80	8
55	56	11
67	68	12
79	80	16
146	148	5
24	25	23
123	123	24
45	46	18
70	71	9
144	145	13
46	48	5
69	70	13
148	149	5
23	23	40
107	109	3
156	159	2
122	123	8
141	141	24
15	15	31
71	93	1
104	104	21
21	21	23
56	56	33
106	106	44
7	8	10
82	82	26
2	2	32
96	96	27
170	170	5
38	38	54
147	149	1
116	116	16
116	118	7
114	114	23
62	62	29
155	155	36
88	103	1
47	48	14
18	20	7
160	160	16
92	93	20
37	39	1
155	168	1
16	16	28
102	104	10
42	104	2
74	74	38
58	58	4
108	108	21
124	125	7
88	89	20
10	10	20
163	163	30
136	149	6
20	20	37
25	25	41
102	102	26
5	6	7
13	14	7
105	106	12
24	24	20
57	57	29
98	98	51
97	97	30
147	147	20
77	77	32
79	79	17
1	2	21
91	92	9
167	169	4
54	55	7
140	140	23
71	71	42
12	12	46
96	99	6
87	87	33
34	35	18
94	95	16
75	75	36
140	141	10
102	103	9
143	143	15
6	7	11
90	92	3
162	162	12
108	109	16
112	113	22
40	41	8
71	72	32
139	139	32
80	83	3
162	165	3
101	101	21
98	104	1
16	18	12
96	98	3
167	167	11
33	33	18
72	95	3
23	24	3
64	68	6
37	106	4
76	78	7
130	132	2
130	130	28
6	6	21
57	78	2
83	84	23
111	112	11
149	149	15
117	117	22
72	77	1
100	132	7
125	126	15
101	105	5
81	82	23
141	142	10
117	119	3
73	73	22
44	46	8
149	150	10
134	135	13
39	49	4
84	85	20
110	111	16
7	37	2
16	17	8
0	0	25
123	125	6
105	105	34
111	135	1
46	46	27
120	121	8
119	119	9
100	101	8
122	122	10
162	164	7
97	99	11
132	133	7
125	127	6
154	154	29
127	127	16
50	52	2
72	72	23
121	126	3
94	94	20
146	146	30
18	19	14
153	156	1
41	41	20
108	119	2
47	49	20
139	140	12
4	5	19
78	79	20
131	131	24
47	47	31
43	43	38
15	18	5
120	120	29
74	84	6
38	39	14
112	112	39
143	145	1
95	95	18
50	91	2
152	153	11
52	83	3
124	127	1
52	53	7
92	94	8
83	85	9
142	142	23
15	17	16
161	161	18
157	158	4
72	75	1
153	154	22
41	42	19
157	159	1
75	77	1
110	112	3
75	78	1
115	115	36
67	67	10
81	81	29
54	56	4
12	13	5
137	137	34
129	149	1
22	23	24
67	70	8
73	74	11
62	63	6
114	115	15
76	80	3
116	117	8
5	5	20
80	81	15
121	123	9
109	109	30
47	84	1
115	116	13
7	10	4
75	95	3
64	67	1
89	89	17
133	134	11
122	127	4
166	168	1
127	166	2
73	80	7
88	97	4
103	103	30
85	91	3
56	57	11
138	169	2
130	131	10
64	64	19
146	170	3
72	93	2
161	165	6
64	69	3
4	6	7
91	94	9
106	107	14
28	40	4
63	63	15
76	77	34
101	158	2
135	135	18
128	135	2
169	169	26
20	22	8
68	73	1
17	17	39
85	86	23
65	67	3
140	166	1
138	157	3
136	136	16
128	128	11
142	144	7
91	101	4
55	55	13
104	165	2
66	67	10
13	17	3
85	87	5
100	157	5
107	119	2
125	164	4
134	139	1
64	65	7
112	114	6
20	21	12
79	81	7
19	24	2
27	28	6
159	160	8
50	51	17
68	69	5
51	79	1
169	170	18
53	54	11
101	104	8
63	65	6
21	22	20
28	28	12
139	141	10
129	129	23
77	81	5
19	117	1
79	85	5
103	104	14
49	50	9
44	44	22
19	20	4
135	138	3
65	66	18
145	146	3
87	115	2
18	18	20
121	135	1
148	148	23
15	16	7
51	51	21
109	110	5
71	74	2
163	164	9
132	132	20
121	121	19
98	116	1
162	163	5
66	66	28
8	15	6
63	66	4
151	152	9
76	79	2
87	89	3
9	10	24
99	100	14
1	1	27
16	19	5
74	105	1
138	139	4
2	4	3
129	130	9
136	137	5
104	114	3
166	167	4
96	104	2
136	138	2
146	147	2
98	99	7
20	25	3
153	155	3
62	70	1
47	50	4
33	35	1
6	37	4
119	120	8
160	165	2
145	149	4
140	149	1
81	104	3
135	137	4
94	121	1
84	106	2
117	120	2
65	65	9
164	165	3
89	91	2
66	68	3
42	43	5
117	124	2
71	73	6
51	63	1
7	17	2
72	73	10
19	114	3
108	120	4
81	103	1
34	36	6
97	98	12
64	100	4
81	88	2
10	11	5
33	36	6
78	89	2
53	82	2
115	117	5
10	14	1
73	75	2
113	123	3
43	44	18
86	87	8
93	111	2
35	36	3
84	87	2
123	124	11
5	8	2
157	168	3
101	161	1
137	142	1
22	24	10
99	101	6
73	95	2
16	137	3
105	108	3
158	159	5
105	110	5
86	94	2
117	118	7
133	135	5
155	167	5
76	81	3
28	149	2
44	53	1
161	164	6
73	76	5
105	160	2
160	167	3
155	157	2
7	11	2
75	85	3
14	16	3
105	107	6
67	100	5
164	169	1
3	4	8
77	80	7
6	34	2
119	124	6
27	119	3
58	66	1
100	129	2
53	55	2
12	50	2
82	93	2
72	81	3
84	86	2
137	144	3
101	113	4
37	53	1
96	97	14
113	114	12
152	152	13
82	83	7
51	52	10
19	23	8
104	107	5
78	85	3
145	147	3
111	113	2
90	97	2
90	95	1
155	158	3
124	126	4
145	151	2
150	151	5
70	92	2
10	52	1
116	136	4
105	127	4
149	151	3
101	103	5
117	153	2
84	92	1
26	79	2
122	124	2
94	124	2
58	65	4
76	83	3
53	64	3
150	161	3
64	66	3
138	141	3
102	118	3
19	21	3
12	16	4
102	105	5
101	129	1
74	76	19
38	40	5
128	129	8
145	170	3
109	111	2
17	18	5
36	37	9
95	97	1
90	111	5
104	145	4
75	76	7
4	8	6
5	7	8
2	3	3
25	27	2
156	158	2
8	10	3
128	137	1
137	138	9
145	150	3
143	150	2
103	105	4
90	91	6
165	166	9
106	111	1
86	88	2
16	43	1
21	23	4
92	113	1
110	114	1
138	142	1
13	15	2
100	103	6
90	94	3
137	139	1
163	168	2
69	96	1
73	83	3
94	123	1
155	156	14
19	22	8
120	123	5
146	151	1
163	165	2
101	106	2
144	169	1
81	84	1
51	95	1
76	95	4
37	40	1
49	147	1
25	26	2
90	96	1
56	68	1
131	147	2
82	105	2
85	88	1
91	96	4
167	168	6
82	110	6
92	123	1
161	162	7
75	86	1
8	88	2
110	113	3
23	122	1
83	103	2
9	11	1
18	92	1
50	57	1
68	70	5
10	12	3
73	85	3
123	153	2
36	42	1
119	133	2
23	124	1
137	145	1
74	95	1
52	74	3
89	115	3
154	155	1
20	89	4
107	108	7
121	124	3
73	92	2
146	152	4
143	144	2
147	166	3
22	115	1
152	157	1
108	137	5
19	90	4
78	83	1
87	90	4
72	76	4
95	96	7
6	8	5
10	16	1
134	149	1
135	136	5
125	132	3
168	170	1
48	70	2
58	61	2
126	151	2
69	71	4
63	103	1
145	148	2
128	149	2
88	98	2
149	168	2
116	157	1
45	47	2
61	61	1
8	17	1
63	69	1
160	162	1
163	166	4
51	57	2
24	53	1
49	119	2
102	162	3
73	77	2
108	110	2
18	23	2
99	134	3
103	164	1
89	97	3
158	160	3
127	129	4
104	106	4
18	91	1
78	81	3
14	40	1
126	132	4
66	81	1
144	150	1
50	53	1
62	64	2
126	129	2
61	63	1
87	101	1
66	69	1
91	123	1
139	142	6
7	23	3
106	108	5
5	13	1
98	101	1
137	143	2
52	81	3
152	156	2
101	130	2
70	89	2
18	24	2
17	25	1
22	25	1
82	84	4
15	26	2
105	109	1
65	71	2
75	107	1
26	27	1
127	163	2
1	9	2
32	35	1
0	2	1
49	52	1
28	37	3
140	142	3
33	34	5
53	58	2
78	84	1
118	125	2
116	119	2
126	141	1
124	132	2
36	41	6
77	86	1
104	161	1
120	124	2
84	94	1
12	159	1
46	83	1
106	113	1
119	122	1
118	119	6
150	167	3
127	154	1
92	122	2
40	43	1
108	160	2
142	151	2
58	62	1
63	73	2
90	98	2
6	38	1
155	165	4
148	152	1
6	9	1
78	80	5
19	116	2
37	133	1
47	52	2
94	99	1
105	159	2
11	16	1
111	138	1
141	143	2
66	73	1
107	111	1
87	92	2
57	64	1
13	39	1
20	24	3
51	66	1
164	164	6
92	95	1
149	152	1
122	154	2
102	123	1
101	144	1
13	106	1
24	126	2
72	74	1
21	24	1
58	69	1
99	132	1
6	109	2
1	11	1
6	87	1
41	44	1
146	169	1
72	83	1
39	42	1
92	114	1
143	151	1
11	17	1
87	102	1
35	88	1
152	154	2
123	126	1
97	104	1
27	38	2
154	165	3
13	109	1
86	101	1
70	72	2
71	76	2
100	102	2
50	111	1
13	74	1
125	156	2
119	121	1
78	88	1
50	116	1
69	73	2
12	25	2
92	96	1
147	170	1
41	43	1
0	6	1
21	74	1
126	149	1
52	54	1
50	84	2
73	82	1
111	158	1
107	120	1
16	107	1
91	112	2
96	134	1
165	167	1
17	114	2
44	47	1
86	89	1
148	169	1
1	26	1
66	102	1
3	10	1
15	92	1
150	160	1
127	128	1
151	155	1
126	128	1
54	134	1
79	82	1
1	108	3
69	72	1
55	58	1
128	138	1
23	115	1
20	23	1
164	167	1
45	104	1
38	42	1
17	19	1
43	105	1
99	102	1
19	118	1
78	82	1
156	157	1
45	111	1
82	86	1
86	102	1
75	80	1
82	136	1
98	100	1
121	151	1
24	27	1
20	86	1
46	52	1
114	123	1
19	94	1
125	128	1
68	102	1
68	94	1
80	89	1
123	152	1
