41	41	16
37	37	19
5	5	8
25	70	5
50	70	4
16	16	10
49	49	8
36	36	5
54	54	13
49	52	4
15	15	9
65	77	3
3	3	16
71	71	10
12	69	6
17	17	19
9	9	16
27	27	20
44	44	5
32	32	12
29	30	3
41	64	1
68	68	3
55	55	9
25	26	3
8	8	4
61	61	11
77	77	11
47	47	11
41	65	8
62	62	6
13	13	16
47	48	3
2	2	4
57	59	5
5	6	4
4	4	10
69	70	3
40	79	2
1	1	16
56	56	6
45	46	3
34	34	12
4	6	7
10	10	8
70	70	11
30	30	9
21	53	5
80	80	6
58	59	7
11	54	2
38	38	11
78	78	4
34	35	4
48	48	22
51	71	1
45	50	2
31	31	11
7	8	2
59	61	5
0	0	1
13	21	1
39	39	17
31	67	6
65	65	11
28	28	10
12	13	2
42	42	11
12	12	13
35	72	5
33	63	2
14	72	2
67	69	2
38	39	4
58	60	3
14	21	1
71	72	4
46	46	12
60	60	11
11	11	14
40	40	14
51	52	3
50	50	3
39	48	4
12	31	5
14	14	2
52	63	4
49	69	2
8	12	6
26	26	5
12	51	1
76	76	7
7	7	18
12	32	2
55	75	1
49	71	4
31	51	5
51	51	7
33	33	9
69	69	5
75	75	8
20	20	7
8	9	9
5	11	2
72	72	8
35	35	12
30	31	4
8	48	1
29	29	7
25	25	5
79	79	8
6	7	5
58	75	3
46	50	5
49	64	4
66	67	4
57	57	5
66	66	9
52	52	5
27	53	3
0	1	1
64	64	7
1	2	4
73	73	8
25	63	2
45	47	2
14	53	5
74	78	1
6	6	6
78	79	2
22	32	2
60	75	2
67	67	11
69	73	2
17	18	6
38	40	1
73	74	4
72	73	1
8	10	1
66	76	1
53	53	4
64	66	5
57	58	5
70	72	1
58	58	4
10	11	5
47	71	3
33	51	1
46	48	1
13	31	1
59	59	5
7	15	1
12	77	3
19	19	3
18	18	1
52	64	1
13	14	5
76	78	1
19	56	1
28	81	2
27	28	1
5	15	2
54	76	2
9	10	2
19	55	1
27	54	4
40	41	3
38	42	2
32	49	2
10	31	1
64	76	4
31	32	2
55	61	4
70	71	1
54	58	3
38	49	1
5	72	1
25	64	1
44	71	1
55	56	2
50	51	2
25	34	2
20	70	1
76	77	2
33	70	2
19	70	2
74	79	1
41	42	2
43	43	1
42	80	2
40	52	1
60	61	1
32	52	2
65	67	1
34	71	1
3	10	1
28	29	2
16	17	2
66	68	2
2	4	2
3	9	1
41	43	2
25	37	1
46	73	2
74	74	1
46	65	2
5	31	1
21	21	1
48	49	3
35	48	1
62	70	1
35	65	1
8	26	1
63	64	2
68	70	1
0	72	3
10	13	1
50	69	1
51	63	1
50	52	1
26	35	1
53	61	1
8	50	1
33	52	1
7	21	1
15	77	1
10	14	1
