5	5	4
209	209	23
55	55	5
160	161	5
173	173	14
176	177	8
233	233	14
241	242	16
33	33	11
222	222	15
160	160	22
196	196	10
233	247	4
14	14	12
42	42	10
79	79	5
44	44	14
183	183	18
211	211	24
238	239	18
114	114	9
68	69	4
161	163	4
61	67	3
197	208	6
98	116	3
17	17	8
232	232	6
236	236	13
187	187	22
68	68	18
30	30	8
210	210	16
58	98	1
29	29	18
184	185	7
71	71	5
182	238	4
57	58	8
47	111	4
3	6	3
197	198	11
61	61	15
211	215	1
37	48	2
118	118	20
243	243	18
197	197	9
117	118	6
110	110	23
202	202	20
32	32	26
59	60	7
241	241	24
39	52	3
204	204	13
218	220	3
151	152	3
206	207	9
185	186	8
192	193	6
178	178	15
9	9	10
242	242	19
186	207	2
77	77	10
182	182	21
165	176	5
240	241	9
198	200	6
97	97	6
83	85	1
20	20	25
201	201	21
35	36	6
47	50	5
214	214	18
59	61	2
232	233	2
114	116	5
221	222	3
220	220	8
170	170	17
64	64	10
223	234	4
166	166	15
162	163	3
8	8	6
162	162	19
57	57	11
183	184	6
89	90	3
16	54	1
117	117	8
185	185	13
199	199	22
160	183	1
15	15	18
95	95	12
42	43	8
193	193	40
16	19	2
181	181	21
212	212	13
213	213	17
208	208	24
96	97	7
11	12	10
169	170	9
48	48	14
26	26	7
51	52	5
176	176	5
184	184	28
95	96	2
93	93	14
149	150	5
19	19	9
46	63	3
112	112	16
151	151	23
146	146	5
183	209	2
90	91	10
38	51	4
167	168	11
155	155	15
100	100	6
4	4	16
185	190	3
90	90	11
105	105	3
215	215	6
148	149	4
165	177	6
7	8	5
174	183	4
1	1	7
50	50	12
45	45	8
186	186	7
104	105	2
169	169	9
167	167	15
34	34	15
76	76	15
52	62	2
107	107	9
31	244	1
87	87	9
177	197	3
164	183	2
145	145	5
15	16	4
239	239	15
179	179	17
161	162	8
230	231	6
52	52	9
63	64	4
115	115	19
44	155	1
153	153	16
104	104	11
23	23	16
165	165	14
36	36	12
35	42	3
224	224	8
168	168	6
61	70	2
200	201	11
35	35	13
18	18	23
24	40	2
234	235	3
60	60	16
220	233	6
46	47	3
198	198	16
159	184	2
54	55	17
201	202	3
198	199	3
47	49	1
8	9	9
240	240	20
68	73	3
245	245	15
161	171	4
37	37	19
210	211	4
155	156	5
87	88	9
102	102	6
7	239	1
119	153	7
47	48	7
109	169	1
85	85	9
120	145	3
63	65	2
98	98	4
144	200	2
77	78	3
223	226	1
116	116	23
119	120	5
229	229	17
47	47	25
228	228	5
194	195	3
61	64	4
151	174	1
192	192	14
69	89	1
112	114	3
244	244	9
235	236	9
75	77	2
173	195	5
221	249	3
28	28	15
119	119	12
110	111	10
17	23	4
240	248	3
76	77	2
169	174	5
39	39	11
109	109	8
246	246	24
171	171	9
108	108	2
180	180	6
22	41	3
72	73	4
58	58	13
189	189	11
238	241	3
25	26	3
222	233	3
203	203	15
217	217	2
111	111	10
11	11	8
24	24	9
79	80	6
58	59	3
219	247	1
207	207	16
226	234	2
118	146	1
190	190	1
31	32	6
61	62	1
75	75	4
200	214	7
15	34	2
4	242	3
62	62	8
49	100	4
43	43	9
205	205	26
215	216	4
182	189	1
223	232	2
21	21	14
165	184	3
27	27	9
159	177	4
247	247	8
89	89	6
38	38	10
46	46	4
174	175	1
144	145	4
26	27	2
176	186	3
21	22	6
237	237	1
160	176	5
167	179	3
193	194	2
231	231	9
94	94	11
96	96	12
235	235	4
40	40	11
216	216	2
182	183	2
65	66	6
188	189	7
174	195	2
233	234	6
178	179	7
78	78	5
59	62	2
147	147	9
152	152	7
55	57	2
59	97	1
88	88	11
195	199	2
225	225	21
61	73	1
159	159	11
175	175	11
25	221	3
113	113	15
37	47	1
78	79	2
180	181	4
73	73	10
14	15	6
151	153	2
245	248	1
163	163	7
100	101	2
79	81	3
54	54	7
226	226	14
53	53	6
63	63	11
85	89	3
153	160	1
220	221	3
22	203	1
146	147	2
99	99	10
99	100	3
12	13	1
84	85	4
164	164	12
2	2	7
217	218	4
4	47	6
86	86	4
72	72	1
89	104	2
166	223	1
159	185	1
40	41	5
175	177	6
229	230	5
80	80	1
86	87	4
31	31	9
172	174	1
83	83	4
163	165	2
150	150	3
219	219	7
10	10	23
111	112	5
164	165	1
172	236	4
175	176	3
158	158	13
91	91	7
165	166	6
109	244	3
113	114	5
18	178	4
6	11	1
56	198	9
150	171	1
156	156	26
64	89	5
182	243	6
218	219	3
12	15	2
170	171	3
155	202	2
78	80	2
63	89	3
28	235	2
189	190	4
237	241	5
86	91	4
204	222	1
51	100	5
208	209	8
103	103	1
86	88	4
223	224	3
234	234	5
13	30	2
177	178	12
71	108	2
183	207	1
34	87	3
2	3	11
59	59	6
242	244	1
41	42	2
114	115	1
177	177	11
223	223	9
12	12	11
183	244	1
69	69	6
164	171	1
209	210	3
10	11	1
243	244	10
53	54	8
202	232	4
195	196	2
157	157	10
70	70	7
36	37	3
27	28	2
32	33	2
22	22	2
58	87	1
226	229	1
4	37	2
39	43	6
41	41	9
226	228	3
206	208	2
85	90	3
27	161	3
36	235	1
195	197	7
17	19	3
210	215	1
84	84	5
226	227	9
49	49	5
202	203	6
142	142	2
35	51	1
111	236	3
45	46	5
200	200	1
3	3	1
223	230	1
224	240	1
172	172	5
30	31	2
196	198	2
91	108	1
56	57	7
67	68	10
161	167	1
10	29	4
170	175	4
48	49	1
168	169	8
214	219	1
74	74	1
11	15	2
60	62	2
81	81	3
159	160	6
22	54	2
203	204	1
16	16	7
66	94	1
52	94	4
164	181	2
21	32	3
69	70	2
166	170	1
18	30	3
35	49	1
99	118	1
194	194	5
183	210	2
15	37	1
14	20	1
154	156	4
154	154	2
102	105	1
66	66	6
199	244	2
118	119	2
45	52	4
41	160	1
62	72	2
6	6	9
14	33	1
96	98	2
10	42	5
55	59	1
244	245	3
108	109	2
94	112	1
26	66	4
2	4	1
30	50	3
154	162	2
153	171	2
2	37	2
68	78	2
221	227	2
22	32	3
29	234	1
56	56	7
172	173	2
224	244	1
219	220	1
230	230	5
174	174	4
33	78	5
221	221	2
190	191	2
50	51	5
12	214	2
81	82	2
56	66	3
159	162	3
26	233	2
201	241	2
238	238	10
92	92	7
219	233	1
14	34	1
120	120	6
65	74	1
7	10	2
93	94	3
198	208	1
67	67	16
231	232	5
206	206	4
37	38	6
101	103	1
45	64	1
50	63	4
116	117	2
245	246	3
40	100	3
167	169	4
115	116	4
193	209	3
206	212	6
5	47	4
159	170	1
158	159	4
197	217	1
64	65	3
82	83	5
75	79	1
25	25	5
61	65	2
167	170	1
116	245	1
75	76	1
60	61	2
85	86	3
12	39	4
160	163	1
236	237	3
53	55	1
107	108	3
144	165	1
6	7	2
213	224	1
50	177	1
242	243	2
200	220	1
204	206	2
3	4	2
150	179	2
208	210	2
27	174	1
246	248	1
44	233	1
50	74	1
56	61	1
80	81	1
45	65	1
145	147	1
171	184	2
73	75	2
195	195	5
70	71	3
248	249	1
209	211	1
219	241	3
98	107	1
14	215	2
12	34	1
59	65	1
186	212	1
184	190	2
161	161	6
64	66	1
38	39	1
225	226	2
88	110	1
107	109	2
169	171	3
94	98	3
11	212	3
19	20	3
64	95	1
229	231	1
154	229	2
152	153	4
101	101	3
245	247	1
5	37	1
166	222	1
35	37	1
60	86	1
33	34	5
248	248	2
174	176	2
12	48	1
39	40	2
173	193	3
154	181	1
74	79	1
17	45	1
6	8	1
227	228	2
9	32	2
238	249	1
15	33	2
192	194	2
29	30	1
56	64	1
73	74	1
237	238	3
216	217	2
159	176	1
110	238	2
15	19	1
160	177	2
7	7	3
11	27	1
227	227	2
51	51	1
72	75	1
11	26	1
210	213	1
238	242	2
50	58	1
7	9	1
171	172	2
9	42	2
109	111	1
12	14	1
150	156	1
57	67	3
231	233	1
218	218	5
165	167	1
75	83	1
54	59	1
188	188	3
60	63	2
95	102	2
187	220	1
164	182	1
109	110	1
236	241	2
91	118	1
196	237	1
57	60	1
61	76	1
34	35	2
74	75	2
4	5	2
200	202	2
171	185	2
97	100	1
214	215	2
149	167	2
82	82	1
180	186	2
66	67	1
220	249	1
18	19	1
159	186	1
120	121	1
163	164	1
28	173	2
202	231	1
78	81	1
190	192	2
209	235	2
36	38	1
193	212	2
81	84	2
31	43	1
56	59	1
100	170	2
3	34	1
173	197	1
88	90	1
33	35	1
48	50	1
50	54	2
28	29	1
71	75	2
35	39	1
226	237	1
212	213	1
63	90	2
66	78	1
41	53	1
172	186	2
100	111	1
166	167	1
21	39	1
191	192	1
170	200	1
53	81	1
105	108	1
157	165	1
97	98	1
81	111	1
149	149	1
199	200	2
85	91	1
162	180	1
27	205	1
92	93	1
191	194	1
17	18	2
98	99	1
165	175	2
49	101	1
164	166	1
181	182	1
109	115	1
238	246	1
14	187	1
1	19	1
36	46	1
144	144	1
161	222	1
225	237	1
111	238	1
150	154	1
160	227	1
