36	36	17
52	54	7
66	67	5
96	96	8
86	87	6
84	85	9
124	154	4
128	128	17
53	54	1
28	98	3
147	147	12
120	120	12
108	108	8
28	81	2
23	23	3
94	94	25
33	37	2
157	158	9
132	132	21
26	26	11
121	144	2
33	33	20
12	19	2
32	32	6
77	83	3
110	110	12
79	79	11
16	33	2
6	6	23
8	8	16
49	49	7
105	105	8
135	135	12
109	110	7
154	154	10
23	98	6
115	115	27
9	9	15
3	28	3
125	125	11
150	150	7
33	43	3
2	27	4
130	130	11
91	91	16
146	154	5
137	137	27
114	114	10
3	3	32
74	75	2
119	119	6
117	157	2
40	40	15
117	126	2
142	142	4
84	84	10
99	99	10
82	89	6
121	121	8
7	7	11
149	149	11
62	62	6
15	15	15
7	8	10
55	78	3
75	75	15
45	45	10
41	50	1
13	14	5
92	92	7
93	93	18
111	111	45
2	99	1
136	136	8
24	24	9
36	91	2
153	153	13
25	38	2
2	4	3
131	131	8
82	82	11
71	71	8
103	118	11
50	50	11
143	144	3
70	71	6
17	17	21
66	66	6
115	116	5
78	78	8
109	109	10
124	124	6
17	34	3
5	6	1
117	156	1
87	90	3
98	99	2
23	24	5
8	9	8
103	103	12
13	15	2
2	2	16
41	41	18
98	129	3
137	138	1
134	134	13
24	25	4
125	126	3
87	87	11
52	52	15
157	157	10
81	82	4
19	19	9
110	111	6
55	55	7
22	23	3
133	133	17
121	156	2
135	136	7
70	85	4
42	42	9
21	21	11
89	89	8
4	5	4
18	20	3
50	82	1
37	37	8
100	100	24
4	6	1
126	127	6
14	31	6
141	141	14
124	125	1
38	48	3
103	124	3
41	71	2
104	117	3
117	117	21
67	70	3
11	11	26
148	157	5
1	1	4
151	151	5
127	127	14
46	46	16
0	0	10
80	80	8
87	94	2
53	89	6
41	45	1
8	110	1
106	121	1
77	89	5
156	157	6
144	145	2
126	154	3
148	148	16
120	126	2
77	77	5
141	145	4
27	28	2
67	67	14
16	17	1
90	90	11
81	81	10
51	66	1
121	136	3
38	51	6
8	10	5
123	123	14
20	27	2
45	47	5
109	124	7
15	16	1
120	132	3
116	150	2
132	133	5
87	88	9
111	152	3
110	126	5
5	5	7
112	133	2
25	25	14
97	97	3
119	120	12
70	70	11
121	123	2
33	34	1
95	95	8
49	69	2
35	35	5
146	147	8
34	35	4
90	91	10
4	4	31
102	102	5
84	86	2
28	45	4
68	89	4
29	39	1
1	2	1
81	109	2
112	146	1
132	146	1
116	116	12
83	113	4
129	129	20
47	51	1
27	27	3
65	65	13
46	129	3
106	132	1
28	29	3
122	122	14
28	28	14
20	30	3
155	155	7
156	156	10
42	43	6
108	109	6
47	47	14
10	10	7
63	64	6
111	124	4
112	112	7
86	88	5
9	12	9
113	118	3
126	148	4
144	146	5
53	53	5
158	158	4
21	22	2
143	146	1
87	134	2
83	112	2
115	157	2
29	29	18
144	144	6
20	20	14
76	121	2
130	140	1
38	39	4
54	54	22
19	20	2
45	46	3
127	144	3
27	80	3
117	118	6
31	32	1
19	34	1
69	69	8
111	112	6
104	104	11
12	12	15
101	101	18
103	117	2
38	107	3
12	33	3
139	155	3
26	27	2
136	137	4
38	38	5
48	54	1
49	67	2
20	132	5
145	145	8
30	31	1
34	34	13
143	153	3
116	120	2
123	124	4
115	153	1
138	138	5
14	14	9
104	105	8
96	133	3
11	12	2
139	139	11
76	76	3
90	96	2
77	78	1
109	111	1
13	13	19
141	146	1
39	51	3
11	13	2
119	134	1
30	30	5
24	43	2
127	138	5
22	39	2
10	15	1
128	130	1
99	135	5
73	73	7
48	89	5
120	135	6
48	48	11
145	146	5
17	36	4
104	136	3
133	134	6
50	88	2
121	127	7
22	29	2
106	118	1
117	121	4
146	150	4
127	135	2
46	47	4
118	120	5
44	44	1
73	74	1
79	80	7
49	66	3
48	49	5
150	155	2
107	112	5
36	50	1
106	106	1
39	39	16
88	88	5
67	71	7
143	143	6
134	147	6
16	16	11
99	100	3
39	97	3
1	44	3
29	97	4
122	126	2
112	137	1
113	113	5
129	151	3
53	68	3
30	34	4
62	71	3
112	113	4
72	72	2
97	98	1
85	89	1
64	64	4
119	136	2
44	45	2
118	118	11
68	68	6
95	96	1
49	56	3
3	42	2
74	74	1
88	109	1
113	156	1
151	152	2
126	126	8
63	63	7
103	121	1
137	141	6
35	43	1
95	98	6
86	86	3
138	144	6
98	114	2
39	48	2
108	157	1
25	26	4
82	109	3
50	51	4
8	15	3
111	137	1
91	108	1
11	37	2
94	95	5
103	104	1
142	155	1
16	22	1
122	153	2
98	98	10
13	43	2
43	43	6
18	19	3
106	135	1
119	126	1
23	29	2
106	131	2
130	136	4
105	134	1
45	50	2
118	119	3
15	31	3
69	71	2
9	10	5
90	122	1
105	114	4
141	147	4
51	52	3
152	152	6
85	86	4
22	22	12
112	127	3
11	18	1
120	139	4
89	98	1
11	97	1
40	98	2
115	117	1
127	134	2
92	93	7
115	158	3
6	27	2
122	144	1
119	145	4
29	92	2
123	154	2
36	37	6
146	149	5
56	56	7
119	121	1
15	104	1
117	131	3
63	96	1
132	134	4
30	41	2
154	155	3
16	32	1
16	31	2
78	91	1
89	90	1
39	76	1
48	51	1
83	86	2
107	111	2
96	97	1
71	88	1
35	48	1
133	146	1
67	96	2
31	31	4
76	77	3
128	129	3
113	114	3
17	32	1
18	18	5
2	3	1
107	107	1
64	65	2
63	69	2
142	148	2
77	135	1
22	35	2
121	122	1
50	53	1
130	139	2
140	140	1
85	90	2
106	120	1
134	146	1
146	146	9
55	116	3
33	35	1
26	93	2
85	85	1
16	35	3
38	129	1
27	99	2
25	28	1
120	125	2
93	110	4
14	32	3
62	88	2
22	33	1
24	80	2
57	69	2
28	129	3
53	64	2
152	153	1
123	145	1
45	87	1
9	33	2
57	57	2
51	86	1
78	92	2
120	121	2
66	75	2
83	84	2
47	100	3
16	20	1
83	83	1
66	69	1
7	12	1
47	56	2
66	90	1
159	159	1
145	152	1
3	30	3
35	97	1
21	29	1
90	93	3
38	85	1
78	79	1
90	108	1
148	149	2
92	148	1
119	122	2
107	139	1
120	140	1
141	143	1
39	85	3
0	44	1
23	43	2
54	78	1
50	66	3
37	91	4
17	35	5
95	109	2
39	96	1
49	50	1
12	34	1
73	149	2
116	156	2
93	94	1
105	106	2
47	48	1
26	92	1
131	132	2
82	114	1
77	136	1
72	86	1
116	117	4
114	130	1
19	31	2
104	158	2
17	30	1
82	112	1
121	135	1
51	51	2
16	19	1
55	56	1
81	110	1
134	136	1
77	108	2
130	131	1
124	126	2
152	154	1
146	152	2
72	81	1
6	32	1
155	156	2
93	97	1
66	97	1
71	89	1
68	69	1
48	78	2
12	14	1
123	137	1
151	158	1
149	150	1
38	96	1
156	158	1
109	113	1
61	61	1
31	106	1
11	21	1
118	122	1
120	152	1
136	145	1
36	39	1
85	95	1
22	128	1
24	76	1
26	28	1
39	40	1
