116	116	10
158	159	7
155	156	10
142	142	7
142	156	2
148	148	21
109	110	5
12	12	8
30	30	5
114	115	2
158	158	4
25	50	5
40	134	3
91	95	6
75	75	5
5	5	11
6	6	4
104	105	4
23	23	10
53	56	3
83	83	3
132	132	8
125	134	5
81	82	4
63	64	2
40	48	1
30	75	3
121	121	20
6	8	1
52	52	3
122	123	4
94	95	2
91	92	4
157	157	7
127	127	3
131	131	13
40	41	4
97	99	2
95	104	3
98	98	8
89	89	10
142	143	3
2	2	4
20	20	12
2	3	4
125	125	6
135	137	2
136	137	2
106	108	3
72	103	3
4	4	8
140	140	6
153	153	4
35	35	5
33	41	1
32	32	6
25	30	1
137	138	9
16	16	5
65	65	7
82	83	5
101	101	12
118	119	2
92	92	4
156	158	1
91	91	9
24	25	5
109	109	6
88	88	4
19	19	7
90	90	4
129	129	7
155	155	9
117	117	6
16	18	1
43	43	2
95	95	4
68	70	4
124	124	10
13	149	2
103	103	7
148	149	2
84	84	2
12	148	4
38	39	3
18	19	3
3	3	12
79	79	13
120	120	6
120	121	4
71	103	1
76	91	5
39	40	2
45	45	6
146	146	7
154	156	1
144	144	6
80	81	4
119	121	5
136	136	10
51	51	17
84	85	8
126	126	5
12	149	1
152	152	6
80	80	7
7	8	8
37	55	4
26	29	2
86	86	5
88	89	3
112	112	11
71	71	3
44	44	6
106	107	2
1	2	3
105	105	4
106	130	1
118	118	5
129	130	5
143	148	2
82	82	5
35	94	1
156	156	11
37	37	2
143	152	1
114	114	12
123	123	10
102	103	2
55	73	3
89	118	1
99	99	10
147	147	5
25	25	10
35	36	2
47	47	6
115	116	4
130	130	5
14	20	4
4	66	3
54	54	2
46	46	10
10	11	1
152	153	1
22	22	4
64	67	2
149	149	4
144	153	1
150	150	8
86	87	7
110	111	2
93	121	2
52	53	1
119	119	4
21	22	6
115	118	4
69	69	3
141	141	4
143	149	2
38	40	1
146	148	1
49	50	3
1	1	4
89	119	5
76	76	1
47	50	2
78	78	3
143	143	10
104	104	2
115	115	4
27	138	3
134	134	2
48	48	10
93	93	6
108	108	4
7	7	3
96	97	1
50	50	2
133	133	11
96	114	1
0	0	4
55	55	5
104	121	1
49	49	1
144	152	2
26	26	3
31	44	1
73	73	4
128	128	4
110	110	4
67	68	1
71	104	4
89	90	2
3	4	1
5	131	2
79	85	3
100	100	2
108	111	2
113	115	1
126	127	3
138	138	5
25	34	3
93	95	2
83	84	2
24	24	2
47	48	1
94	94	3
122	122	8
19	20	7
0	55	4
36	36	1
28	28	4
67	67	4
11	11	1
127	134	3
2	5	1
38	38	6
132	133	1
29	29	2
10	14	1
131	132	3
46	47	3
78	83	2
135	135	4
30	73	7
26	73	6
13	13	4
137	137	3
72	72	1
90	91	5
124	142	1
31	55	3
67	71	2
39	39	6
106	106	3
25	27	2
107	107	2
27	28	2
25	31	2
111	111	3
34	34	1
86	89	1
121	122	1
127	143	3
32	33	2
109	123	1
87	89	2
2	87	2
116	117	2
150	151	3
95	96	3
114	122	1
97	97	5
14	14	3
102	102	1
128	129	2
107	130	1
112	115	2
44	45	1
12	13	3
152	155	1
113	113	3
126	137	2
113	116	1
156	157	4
8	8	3
139	139	6
77	77	1
53	54	1
96	115	4
9	9	5
108	114	1
96	96	2
86	92	1
29	31	1
95	115	1
123	124	4
8	11	3
119	122	1
36	42	1
97	98	1
110	113	2
132	135	2
89	114	1
109	112	1
113	114	1
81	81	2
9	88	2
31	31	2
98	99	1
139	140	1
85	85	2
40	40	1
75	76	1
138	139	1
140	141	1
18	18	2
12	144	1
69	70	1
42	43	1
33	34	2
153	154	2
154	155	1
131	133	1
108	115	1
124	125	1
70	70	1
77	102	2
154	154	2
107	116	1
79	83	1
149	150	1
66	75	1
90	114	1
130	131	1
78	79	1
133	134	1
148	153	1
31	71	1
142	154	1
129	135	1
101	149	1
17	19	1
