95	95	5
78	78	13
129	129	17
126	128	8
122	123	3
128	134	3
87	91	2
6	11	9
60	61	11
82	86	4
67	107	7
12	12	6
76	76	27
60	60	36
42	43	2
84	130	4
90	90	23
115	123	6
126	127	1
120	120	8
131	131	16
56	57	3
115	128	2
65	65	16
70	70	19
101	102	6
3	3	10
122	122	30
108	111	8
84	85	6
103	103	12
18	18	11
106	107	5
57	58	6
80	80	14
113	114	6
50	50	12
117	118	9
134	134	13
54	54	24
9	11	4
112	112	13
19	19	9
61	61	5
93	93	9
93	94	3
53	54	9
107	109	4
89	90	4
114	114	13
28	28	9
118	121	4
95	98	4
88	88	7
83	83	7
89	89	12
90	105	1
98	98	13
15	15	17
21	22	9
97	97	14
74	74	20
33	127	1
53	53	15
100	100	10
127	127	8
86	87	13
118	118	9
33	35	4
79	79	21
117	122	10
73	73	11
87	87	7
128	128	11
91	92	2
130	130	14
19	20	9
130	131	9
67	93	5
108	108	9
35	35	10
127	128	9
129	131	4
29	29	7
61	68	5
66	67	10
107	108	3
58	134	2
82	82	11
43	88	5
66	82	2
121	121	15
99	99	12
9	10	4
52	54	2
113	113	13
49	49	8
44	44	17
52	55	5
62	64	3
75	75	10
34	34	8
58	59	13
13	13	11
7	8	5
22	22	12
123	123	9
24	24	9
90	95	4
0	38	4
72	72	12
71	98	2
86	88	4
48	48	1
66	83	2
67	68	5
45	45	8
92	92	4
62	62	12
79	80	5
38	39	3
17	17	7
133	133	12
105	105	19
47	47	8
9	24	5
0	1	2
64	64	23
109	109	1
21	21	2
20	20	7
26	26	7
2	3	3
113	115	5
63	63	5
96	102	2
119	119	32
50	84	1
96	96	10
106	106	17
77	79	2
126	126	9
22	24	2
76	81	1
91	106	3
38	38	3
87	88	3
44	45	7
5	80	2
38	53	3
85	85	10
27	33	1
110	117	1
120	121	4
62	102	3
0	0	7
92	97	1
124	125	5
101	101	13
52	52	8
123	129	3
114	115	7
8	24	2
19	26	1
57	57	15
105	106	9
102	102	12
31	31	9
73	113	2
111	120	2
25	26	4
8	8	10
9	9	12
100	111	1
91	91	15
68	68	27
6	6	5
58	58	4
132	133	8
0	56	1
52	106	1
10	88	1
11	61	3
110	110	4
93	108	1
54	55	4
116	116	7
20	23	5
43	60	2
21	23	1
129	130	4
115	116	1
56	56	5
132	132	8
98	99	1
3	99	5
85	86	5
3	4	6
71	71	14
135	135	1
108	110	4
81	81	9
92	96	1
55	56	5
69	69	9
124	124	6
117	117	14
70	119	2
94	94	11
81	90	1
44	110	4
37	37	5
3	6	10
7	7	3
94	95	3
32	96	3
16	26	1
68	71	3
111	111	11
111	112	6
35	71	1
104	104	7
43	43	4
4	4	7
115	120	2
66	107	1
111	115	1
103	104	5
122	131	3
58	126	5
55	67	1
43	82	7
10	59	1
82	83	4
128	129	3
90	101	1
11	11	4
36	37	3
11	99	2
94	111	3
76	79	2
54	58	2
104	128	1
5	5	5
66	91	1
36	91	3
69	92	1
45	72	2
64	94	1
90	96	4
21	26	2
55	55	4
35	46	6
50	52	1
86	111	2
14	14	7
88	91	3
50	97	1
69	71	2
44	107	3
10	83	2
27	28	7
10	10	2
66	66	6
33	34	2
62	63	1
110	111	5
15	16	7
94	99	2
72	73	2
85	87	1
30	34	3
80	103	3
87	101	4
77	77	12
59	60	2
52	82	1
60	126	1
115	115	19
86	100	6
26	98	1
7	35	2
18	19	4
27	27	6
110	129	3
36	120	1
25	25	2
116	117	2
20	25	2
69	76	1
26	88	1
23	23	3
23	73	3
44	91	3
65	69	1
68	69	1
100	109	4
1	2	5
93	97	7
59	59	4
108	109	3
66	92	3
100	110	4
84	131	1
10	58	2
59	82	4
5	95	2
107	107	6
95	96	6
16	16	4
30	33	4
2	2	3
66	68	3
43	52	3
16	17	3
54	56	1
92	126	1
100	101	1
93	100	1
63	94	1
6	7	1
120	125	2
22	23	2
32	32	7
61	65	2
51	95	2
86	91	4
33	33	5
86	86	11
54	66	1
18	21	1
36	36	5
83	87	1
109	110	5
83	84	2
65	66	1
12	75	3
34	98	4
15	50	3
68	131	1
52	57	1
78	80	1
112	122	4
69	91	2
60	67	1
75	76	2
125	125	3
93	114	1
112	121	2
32	33	5
71	73	1
114	132	1
109	111	1
30	30	4
53	66	1
1	1	2
112	113	1
131	133	2
54	68	1
125	126	1
42	106	1
81	86	1
72	113	2
45	113	2
51	66	2
50	60	1
123	124	1
62	99	4
102	103	1
45	131	1
74	75	1
20	27	1
49	110	2
54	59	2
50	131	1
106	109	2
61	69	1
116	131	1
7	11	1
71	80	1
87	109	1
34	96	1
73	74	1
12	21	1
17	19	1
42	44	3
1	3	1
45	67	1
65	76	1
99	104	1
92	106	1
96	98	1
94	101	1
96	97	1
89	121	1
66	85	1
65	79	1
67	67	1
85	96	1
27	61	1
131	135	2
58	82	1
124	128	1
122	130	1
24	25	1
129	133	1
