109	109	2
57	57	2
101	101	6
104	104	3
67	67	7
22	38	2
104	105	2
34	34	9
48	48	6
45	45	4
112	112	3
110	112	3
24	25	1
89	102	4
107	107	8
71	71	4
37	37	3
61	61	5
60	60	1
94	102	2
94	94	8
99	99	5
76	76	1
31	91	1
28	28	11
102	102	4
31	37	4
65	65	5
22	23	2
32	37	1
66	66	2
86	86	2
83	84	3
75	76	9
49	49	2
85	86	1
89	89	4
72	73	1
81	82	1
60	77	2
81	86	1
51	51	1
64	65	1
88	88	6
92	92	9
75	81	4
22	39	1
102	103	1
100	102	2
61	87	2
93	103	1
71	72	2
92	94	2
105	105	5
33	33	5
67	68	1
55	55	4
88	109	1
60	88	4
38	38	3
95	95	2
77	77	5
72	72	2
59	59	2
77	79	3
83	83	2
113	113	5
58	59	2
36	36	2
23	24	1
57	58	2
58	58	7
19	19	3
74	74	5
73	74	1
44	45	3
31	35	1
24	24	1
63	64	5
47	53	3
109	110	3
56	56	7
73	73	6
47	48	6
70	71	2
86	88	1
100	100	4
56	61	2
78	78	2
32	33	4
96	96	3
56	57	1
92	96	3
102	105	2
95	97	1
68	69	1
30	30	2
29	29	1
104	107	7
114	114	1
52	52	2
19	25	2
97	97	1
23	23	5
97	101	3
99	108	1
40	41	1
80	108	3
111	111	2
22	33	3
35	35	4
74	75	4
71	90	1
32	36	2
82	85	4
105	108	2
25	36	2
42	42	2
106	106	1
27	27	5
113	114	1
19	41	2
85	85	5
100	101	2
50	51	1
59	79	1
105	107	2
102	106	1
50	50	1
78	79	2
81	88	1
93	94	1
105	106	2
69	81	3
93	93	3
21	21	1
84	84	4
34	35	3
110	110	3
75	75	2
87	87	3
22	22	1
108	108	2
65	69	3
66	67	1
39	39	2
81	81	2
75	108	2
55	108	1
37	38	1
41	57	3
42	43	1
38	57	2
80	82	2
43	43	2
32	32	1
23	25	1
86	90	1
44	44	1
33	35	1
91	109	1
76	78	2
46	46	1
55	63	1
39	40	1
99	113	1
74	77	1
74	79	1
106	107	1
90	91	3
63	63	2
72	97	2
56	64	1
110	111	1
98	98	1
76	79	1
70	70	1
79	79	1
54	54	1
43	45	1
85	98	1
69	92	1
94	95	1
26	27	1
60	89	1
72	103	1
80	80	2
29	62	1
