46	47	3
40	41	21
120	121	22
75	75	60
74	75	15
105	105	46
114	115	47
2	13	7
92	94	17
132	133	34
16	16	65
13	39	1
127	131	10
133	134	36
31	32	21
126	126	116
4	4	67
128	130	19
55	55	48
58	72	4
57	58	7
135	136	26
11	20	3
57	57	71
76	76	47
22	22	78
23	23	59
19	23	8
119	119	72
81	90	5
141	142	18
123	123	59
9	9	56
132	136	10
31	31	36
64	66	12
131	131	102
117	131	6
125	125	81
38	38	86
144	144	64
37	37	65
93	93	64
128	128	62
30	30	89
80	80	63
108	110	10
3	3	32
117	130	2
5	6	23
133	143	3
58	59	21
72	72	53
100	100	51
60	60	56
52	52	71
67	71	3
92	93	16
130	130	75
127	127	91
15	15	60
99	100	33
77	77	55
130	139	4
105	106	14
86	130	1
132	132	103
62	63	58
145	145	56
129	143	1
88	88	32
136	136	90
106	106	41
40	40	82
102	103	18
34	34	56
84	86	5
117	117	85
54	54	39
52	53	23
112	113	17
25	26	24
72	73	18
101	101	62
32	41	2
104	104	61
36	36	66
74	114	1
142	144	11
42	42	55
11	32	5
16	66	2
131	134	4
92	138	2
139	140	41
9	12	2
71	72	42
122	122	87
28	29	19
62	64	8
29	29	109
131	132	11
13	14	33
32	32	66
122	123	24
57	61	4
102	129	5
66	67	12
30	80	2
19	19	83
70	103	1
11	26	2
64	64	62
48	48	66
94	122	5
54	55	16
34	125	1
82	82	66
113	116	19
109	109	42
111	111	55
71	71	42
41	41	74
88	106	4
58	63	4
129	129	88
17	17	68
134	134	102
27	27	90
3	127	1
66	66	56
34	35	27
125	126	17
37	112	2
84	85	21
88	89	17
53	53	50
15	42	2
26	37	5
127	128	26
96	132	2
146	146	19
25	112	4
70	94	2
75	91	4
126	127	19
80	81	27
125	127	22
89	90	24
124	124	127
9	35	10
84	84	51
53	54	18
39	39	71
121	123	16
95	119	2
26	26	43
74	74	89
136	143	7
19	36	1
15	16	54
66	98	2
104	105	13
91	91	59
128	129	22
90	91	11
3	64	3
35	36	18
49	49	44
25	27	6
103	103	60
105	115	5
57	73	6
120	120	60
93	95	4
83	111	10
66	68	11
42	101	6
97	98	28
71	77	2
79	114	5
143	143	50
10	13	3
17	33	2
69	70	38
96	96	59
68	69	24
121	122	18
92	92	55
25	25	80
17	18	5
87	108	6
20	124	6
11	11	60
26	27	24
135	138	8
123	133	3
8	8	63
55	56	18
118	118	105
16	38	12
114	114	59
67	67	45
82	97	1
82	104	2
78	129	1
89	113	1
70	74	2
36	37	17
51	51	54
19	28	8
71	73	11
98	118	1
15	29	4
2	4	8
87	90	2
41	50	6
41	42	18
107	107	76
86	86	17
128	133	5
10	10	69
3	53	6
61	64	1
118	121	17
39	43	2
69	69	52
10	34	2
76	77	15
90	90	37
107	109	8
53	117	4
73	79	4
20	21	21
81	84	5
73	74	28
117	118	25
20	85	6
84	112	4
89	89	56
135	135	78
104	144	3
14	14	37
87	92	4
3	22	3
65	66	30
3	58	3
117	144	3
87	87	74
8	9	18
66	71	1
84	92	1
79	79	48
13	13	47
33	108	5
33	34	29
99	132	5
18	18	74
10	30	1
59	59	57
93	129	4
124	125	35
73	73	51
110	126	3
113	115	4
102	102	63
10	11	22
109	110	15
14	16	4
116	116	61
121	121	51
68	68	59
12	17	6
125	140	5
81	81	75
35	35	67
118	122	2
82	90	3
79	80	29
86	87	11
106	133	1
136	139	7
120	122	7
4	60	4
138	138	67
1	105	1
24	24	46
104	132	6
142	142	86
141	141	87
111	112	8
126	138	1
42	43	22
30	32	2
32	33	9
137	138	69
140	140	49
64	133	2
99	99	64
129	132	5
142	143	18
133	139	8
0	0	41
118	120	29
56	56	35
120	139	2
70	86	1
51	52	30
2	2	61
75	122	2
24	54	5
94	94	55
79	129	5
95	95	50
136	138	16
57	74	2
97	107	1
30	31	6
12	12	11
61	61	56
11	138	4
110	110	74
9	10	36
59	61	6
85	85	47
130	131	13
126	130	6
110	120	7
42	142	2
111	119	3
33	68	1
120	133	2
117	120	11
90	130	2
140	144	4
84	104	2
100	103	2
87	110	3
97	97	33
29	37	5
125	128	6
133	133	86
108	109	13
123	140	4
35	41	4
83	83	58
109	117	7
18	36	3
104	119	4
23	40	1
122	130	2
71	74	10
6	6	38
62	71	6
93	94	25
54	73	1
9	49	12
108	111	6
38	87	4
37	38	17
65	65	61
47	47	35
1	1	30
130	133	4
109	112	4
0	19	4
51	53	7
114	116	6
112	112	47
37	40	3
28	28	53
52	86	2
87	111	1
86	94	5
22	23	20
112	117	6
106	118	2
49	128	4
78	78	29
15	43	7
109	118	2
143	144	13
94	108	1
72	107	3
74	76	7
88	92	9
122	140	2
16	20	2
67	68	21
22	27	5
126	129	4
13	25	1
122	125	1
5	5	44
97	145	6
102	119	7
18	104	4
136	137	39
55	59	9
102	144	2
72	88	5
63	64	18
137	137	68
101	146	1
30	70	3
42	48	12
64	65	16
59	109	3
123	138	4
15	39	1
11	79	1
129	130	35
4	6	17
65	137	10
3	31	4
63	63	35
56	59	2
23	24	20
64	73	4
41	75	1
50	50	58
58	60	4
68	70	6
17	28	4
123	125	6
112	131	3
135	139	13
43	43	20
2	59	1
126	141	4
80	83	2
40	105	2
105	107	3
14	18	3
13	26	2
119	134	2
2	58	4
58	58	38
34	106	4
68	108	4
114	134	3
8	13	7
38	39	17
133	138	6
133	141	5
101	102	14
106	107	36
39	47	3
7	13	2
108	108	55
11	12	6
98	98	57
89	92	4
16	39	2
85	110	5
29	122	1
69	88	4
114	131	3
139	139	72
127	129	8
73	111	1
123	124	17
110	125	3
10	23	2
47	53	2
33	54	9
113	113	74
32	69	1
65	111	3
33	33	60
140	141	15
92	110	1
29	42	2
110	118	4
95	96	21
109	132	1
104	111	6
81	82	20
96	98	7
141	143	4
56	106	1
4	25	1
51	114	1
59	60	26
72	75	3
83	84	23
16	29	1
113	114	30
80	82	19
39	40	24
9	32	2
15	17	2
93	121	3
33	37	8
112	138	3
20	20	56
115	115	39
60	85	9
9	21	6
57	65	9
60	93	7
37	66	2
53	132	1
96	99	5
14	15	14
35	40	3
40	144	4
110	112	5
0	1	19
56	72	3
26	34	1
27	80	2
8	10	3
18	59	1
93	112	1
117	138	4
105	127	5
120	138	3
98	99	6
85	141	4
27	28	30
4	34	5
59	95	2
73	89	2
35	89	3
24	25	10
78	105	6
21	23	4
91	94	4
127	138	2
58	61	2
127	132	7
53	56	2
118	140	3
48	50	2
126	131	4
24	26	12
16	52	2
1	20	10
1	2	3
43	118	3
64	120	1
64	111	4
126	128	5
90	98	1
14	34	1
56	63	2
70	70	51
16	30	3
8	42	4
21	22	9
83	85	16
3	4	16
76	79	7
88	105	1
96	97	23
34	53	3
17	30	3
13	16	3
60	61	7
134	135	23
62	69	2
2	77	1
82	84	6
49	50	19
63	65	7
82	114	2
118	119	36
35	70	2
18	19	30
103	120	6
102	104	8
47	49	5
65	144	2
104	121	2
6	11	7
97	121	5
127	142	5
79	143	1
62	65	2
58	69	2
32	36	1
77	78	25
49	99	2
11	43	5
14	42	2
53	104	3
69	110	2
84	106	1
91	92	9
68	109	4
135	137	11
9	30	1
0	4	3
63	83	5
78	125	3
62	62	48
1	139	3
66	72	5
110	137	2
10	21	5
37	71	5
10	14	3
30	42	1
112	132	7
99	141	6
74	138	1
21	21	60
75	110	2
101	120	2
2	36	5
19	20	5
30	63	5
56	141	5
85	93	9
94	96	3
138	139	22
142	145	5
51	101	2
104	108	2
95	97	8
2	5	3
78	79	8
13	40	8
24	58	2
118	143	4
87	91	6
78	83	2
73	80	5
88	95	5
58	105	2
58	75	1
12	13	12
121	127	9
65	85	2
87	104	6
82	87	7
20	36	5
57	67	2
109	125	2
106	135	4
121	128	4
13	78	5
50	52	19
119	121	12
33	36	11
116	118	5
97	140	2
32	53	2
27	67	2
36	81	1
70	88	1
52	104	3
37	39	1
12	76	4
69	109	1
10	36	2
70	137	1
124	126	3
100	142	2
2	14	2
100	101	20
83	127	3
24	110	5
9	20	1
56	110	4
13	81	2
87	101	2
134	141	4
127	130	11
48	58	2
19	21	2
78	123	4
117	121	2
63	66	5
6	10	5
113	133	2
118	134	8
92	97	4
109	113	1
73	88	1
67	102	4
24	30	2
5	107	6
92	105	6
77	79	13
0	68	1
41	126	3
105	108	7
92	137	4
93	130	4
11	16	3
16	34	1
92	104	1
34	68	1
80	109	2
120	128	3
51	54	2
116	117	23
64	106	4
140	142	4
21	37	8
31	33	5
70	104	1
43	46	4
50	51	14
120	123	5
106	116	7
123	139	3
88	94	4
49	141	4
54	142	3
46	75	1
31	34	6
110	113	3
110	111	10
11	89	1
20	26	7
69	72	10
70	71	5
71	107	3
102	132	5
38	143	8
38	67	1
123	144	2
124	128	1
66	69	1
21	41	4
90	125	2
121	136	4
115	117	9
73	104	1
75	106	2
76	78	10
84	107	3
118	136	3
47	48	8
43	65	1
93	108	2
104	130	1
31	35	4
105	129	2
103	105	3
30	94	2
13	33	6
69	112	1
40	69	1
108	127	2
106	132	4
64	137	3
6	36	2
41	49	3
104	124	1
5	72	3
74	124	3
48	87	3
36	91	2
51	135	6
28	128	5
4	69	1
119	120	26
87	94	2
67	72	1
116	120	1
42	50	4
89	94	2
87	88	4
130	137	2
2	3	20
84	113	2
122	145	1
58	65	1
16	18	5
131	136	7
47	57	1
33	40	2
47	134	1
86	124	1
125	132	3
74	93	3
28	138	1
57	72	2
101	138	2
89	95	5
27	128	1
15	129	3
94	95	10
4	31	7
82	88	6
140	143	1
115	119	1
65	112	3
64	79	1
3	90	1
93	115	6
96	134	7
42	113	2
99	130	2
131	133	9
29	54	2
107	108	10
85	132	2
77	87	2
82	83	8
46	132	1
43	69	2
111	117	7
116	126	2
67	87	2
34	36	8
9	48	2
94	136	3
79	85	4
4	32	3
55	60	2
83	128	1
103	104	11
3	35	4
41	131	5
66	83	4
18	24	2
132	135	3
105	117	15
55	109	5
121	131	2
5	134	2
76	106	5
61	106	2
13	43	1
53	62	3
21	30	1
116	134	2
34	43	3
116	131	3
87	89	2
6	53	1
3	10	1
55	61	5
47	64	6
1	68	2
36	38	2
102	105	12
75	113	2
118	131	5
3	113	2
92	116	3
55	71	2
29	33	1
33	35	3
58	85	3
62	85	5
133	136	6
110	114	1
18	30	1
77	91	2
32	70	5
22	38	2
107	123	1
51	102	2
51	131	2
21	24	3
89	142	2
50	53	5
113	117	13
54	125	2
104	107	2
80	125	2
121	135	2
137	139	8
37	113	4
34	37	4
51	93	1
2	31	2
64	69	3
83	122	2
37	142	2
4	33	1
2	33	1
85	86	11
37	48	3
10	20	3
41	58	3
38	40	5
38	54	1
47	50	6
109	122	3
71	90	1
16	17	11
66	121	1
62	117	2
75	79	2
122	128	3
50	75	1
74	100	4
94	116	2
26	36	2
4	15	5
77	83	1
78	85	2
110	127	5
57	97	1
32	61	4
124	129	1
28	30	4
23	25	7
9	18	2
75	76	12
56	82	7
108	122	3
24	28	6
20	35	1
59	81	2
10	26	2
17	138	5
20	81	3
25	30	4
69	71	5
139	141	10
124	127	5
8	11	5
110	129	3
96	142	1
85	92	3
1	53	1
99	104	1
88	91	3
113	121	5
16	32	1
53	55	6
58	93	1
47	136	2
57	115	8
35	66	4
26	29	4
94	100	2
87	134	4
120	131	3
2	11	2
83	90	5
35	46	2
57	116	5
133	140	2
117	139	2
17	129	3
108	112	3
61	70	2
4	49	3
58	78	3
113	119	1
52	130	6
85	88	3
63	71	7
25	67	4
56	126	4
81	86	4
77	84	2
69	117	4
13	35	1
134	136	2
61	62	8
49	53	6
56	115	1
53	66	4
6	98	1
96	104	2
29	76	2
17	22	3
2	23	5
79	112	3
90	122	1
35	48	1
5	15	3
56	73	9
78	82	7
88	97	5
104	129	7
72	97	1
62	74	2
131	137	2
91	137	3
8	22	5
56	97	2
80	104	3
53	80	1
14	17	1
11	17	6
54	61	8
10	55	4
11	31	9
6	8	3
95	101	5
6	9	4
35	77	3
30	69	2
123	127	4
55	66	1
115	116	9
6	15	4
70	72	5
20	24	2
134	140	4
22	140	1
57	94	4
18	34	1
118	125	3
41	130	5
60	75	1
42	53	4
74	101	3
64	70	2
80	123	1
134	139	9
58	92	3
15	21	4
64	86	6
59	66	2
75	138	1
59	69	1
67	112	2
36	39	4
2	21	4
42	126	7
57	95	3
3	14	6
6	14	1
8	24	2
134	144	3
22	24	2
47	92	1
80	85	3
37	47	2
10	17	3
116	130	1
16	63	5
1	4	5
5	11	3
33	88	4
30	36	1
0	65	2
9	27	2
28	42	1
53	91	2
87	96	2
122	138	3
75	81	2
114	139	7
128	134	1
75	129	3
2	139	2
13	47	2
48	136	3
6	54	1
55	69	2
36	71	1
126	135	1
110	133	4
93	132	1
27	117	2
52	100	2
117	132	5
20	25	2
14	35	1
91	140	4
18	23	7
49	73	2
56	87	2
88	116	4
58	77	3
58	86	4
82	85	8
107	134	1
5	13	5
4	10	10
62	72	3
10	25	3
86	138	2
0	27	2
81	93	2
120	134	3
3	15	3
79	92	6
66	131	1
67	69	1
12	93	2
126	134	3
75	82	1
38	48	2
117	137	5
89	96	8
107	131	3
10	22	1
123	142	2
80	84	1
17	93	1
73	82	6
111	116	4
103	141	2
73	113	2
82	133	1
3	97	1
0	24	4
34	61	3
114	141	3
14	111	1
15	28	2
34	81	1
91	98	5
15	81	6
18	25	3
105	135	1
27	32	1
93	113	2
145	146	8
10	123	2
35	73	3
121	140	3
17	102	2
122	124	4
14	112	1
5	37	1
16	82	4
144	145	9
112	116	2
16	61	2
14	20	5
121	124	3
65	87	2
55	62	2
52	54	3
92	126	1
96	127	3
48	49	2
1	62	6
21	31	1
103	128	2
135	143	1
55	73	1
14	37	4
16	25	3
118	135	2
59	107	1
20	33	6
97	133	1
98	134	1
13	73	2
56	67	2
21	33	2
66	79	1
57	129	1
77	123	3
90	112	1
57	66	3
66	115	5
86	95	1
109	111	9
29	30	5
79	113	4
10	67	1
62	90	1
137	140	7
127	141	1
25	39	3
14	40	2
112	129	4
99	101	6
51	61	6
38	41	4
18	29	4
3	137	2
133	135	1
14	47	3
94	97	3
84	105	1
8	17	1
1	28	4
123	131	1
41	43	4
5	14	1
126	142	1
8	27	5
32	64	2
28	124	1
49	126	6
81	103	1
138	140	3
133	142	1
30	37	4
1	11	1
10	41	2
66	81	1
109	127	1
110	132	2
122	132	1
38	52	1
105	132	3
58	83	3
69	125	1
117	119	5
39	88	4
11	90	1
97	124	2
104	106	3
104	110	4
54	113	2
33	90	2
54	107	3
3	5	2
35	104	2
120	126	1
84	129	2
70	108	4
26	58	1
76	128	3
56	133	3
22	54	2
13	19	1
9	24	1
120	132	1
47	69	7
60	62	7
33	64	1
81	87	3
80	103	1
23	38	1
24	39	2
124	134	1
107	139	3
36	85	2
119	139	1
111	131	2
88	104	2
1	9	2
8	51	1
111	124	3
40	104	1
89	98	2
17	48	2
58	138	2
35	71	1
103	116	3
74	81	1
3	63	1
100	102	2
11	27	5
61	107	2
106	134	1
126	143	3
50	127	1
31	36	1
60	94	1
98	107	2
37	67	3
54	57	1
98	133	2
1	33	1
127	134	2
66	75	1
68	71	3
32	42	4
56	71	1
19	24	1
98	117	2
65	134	2
75	88	1
74	87	1
18	22	1
38	49	3
119	129	3
53	72	1
12	43	1
30	60	2
79	81	2
23	118	1
105	123	3
93	135	2
5	33	6
49	144	2
54	95	2
18	78	4
79	86	3
76	85	5
30	97	1
39	108	1
5	29	2
92	109	1
92	95	2
63	81	1
0	128	1
30	34	1
93	124	3
97	134	1
132	134	2
90	101	3
36	77	3
86	142	2
12	58	1
62	78	2
54	56	2
65	71	1
93	101	1
71	110	2
85	95	2
0	11	2
73	133	2
11	13	2
29	134	1
57	59	3
124	135	3
113	138	1
94	128	1
114	117	4
64	126	2
134	137	1
38	42	4
62	98	1
123	130	1
75	96	3
42	75	3
82	105	2
59	86	2
132	141	1
95	111	1
6	29	3
59	110	2
63	107	2
20	31	2
76	93	2
107	133	2
31	94	1
26	80	1
4	5	5
59	62	1
56	62	1
87	117	1
76	89	1
129	137	2
116	137	2
3	95	1
40	116	3
120	135	2
135	140	5
48	86	2
27	124	1
94	134	2
32	54	7
8	32	1
9	17	2
15	75	1
84	94	1
4	36	1
87	131	1
55	63	2
81	139	1
68	72	3
58	127	1
23	43	1
96	123	4
53	67	1
86	104	2
62	84	2
74	98	1
117	136	1
5	106	2
30	33	1
11	25	1
15	74	2
121	134	2
112	114	3
7	10	2
43	51	1
11	98	1
78	80	3
10	24	4
94	112	1
56	88	1
35	65	3
14	31	3
108	118	1
125	137	3
2	22	1
40	71	2
110	131	1
86	97	2
136	141	1
0	142	1
17	42	2
75	104	2
14	48	3
16	54	2
50	85	5
59	64	3
78	112	1
125	136	2
84	114	2
74	110	1
37	87	3
83	105	2
124	131	1
58	80	1
34	47	3
61	132	1
83	86	3
27	120	1
39	41	4
10	31	1
0	141	1
132	137	3
51	104	1
68	76	1
68	93	3
103	106	2
129	133	1
68	82	1
58	64	1
4	9	4
125	131	1
20	37	2
37	64	2
66	87	1
32	92	3
69	74	3
112	121	1
41	113	1
125	129	1
22	48	1
28	91	1
16	35	1
54	96	2
55	68	2
89	136	1
49	133	1
55	57	2
95	99	3
107	115	1
42	114	2
47	105	1
2	52	1
53	103	3
53	57	1
86	106	1
118	130	1
35	43	1
20	103	1
59	74	1
89	137	1
79	123	3
121	141	1
17	19	2
47	97	1
128	138	2
25	35	1
68	126	2
66	103	2
0	133	3
97	106	2
11	125	3
120	129	1
70	92	1
101	141	1
87	95	4
56	66	1
83	88	1
58	79	1
17	29	2
106	127	1
110	122	2
118	144	1
23	113	3
57	109	2
56	128	1
27	40	3
77	126	1
1	6	3
87	141	1
42	47	1
9	51	1
98	109	1
106	108	3
17	100	1
127	133	2
98	105	1
135	144	1
78	89	2
69	73	1
110	123	1
74	90	3
49	52	1
1	10	1
18	27	2
58	95	1
111	143	1
59	135	1
4	85	2
10	48	1
89	91	1
101	143	2
2	79	1
43	83	3
97	103	1
10	57	2
66	80	2
87	109	1
91	104	1
42	120	1
116	132	1
35	47	1
78	113	1
92	112	1
118	123	4
77	82	2
67	70	2
118	141	2
118	142	1
125	130	3
94	98	2
62	133	2
80	95	2
102	107	3
58	81	1
10	60	2
27	42	2
117	123	2
102	136	1
114	132	1
86	122	1
112	139	1
11	24	3
84	125	1
26	33	1
50	104	1
90	137	1
66	88	1
131	140	1
76	82	1
21	49	1
119	123	2
41	48	2
129	135	1
56	57	3
54	70	1
36	68	1
5	49	1
105	130	2
60	73	1
122	127	2
17	27	2
32	65	1
49	51	2
98	124	1
104	115	2
68	113	1
55	67	1
5	48	2
25	94	2
2	7	1
68	127	1
121	139	1
132	142	1
119	131	1
47	81	2
109	115	2
67	77	1
4	13	1
81	126	1
98	120	1
97	126	1
81	129	1
57	131	1
40	93	1
53	84	1
91	97	2
3	19	1
31	58	1
25	102	1
3	52	2
6	31	2
16	28	3
117	122	1
33	61	1
55	79	1
123	143	1
18	28	2
23	120	2
119	141	1
6	37	1
14	39	1
82	89	1
91	99	1
0	140	1
20	23	3
65	81	1
65	106	1
28	129	1
134	142	1
79	107	1
112	135	1
30	61	1
92	120	1
112	115	2
41	143	1
15	30	1
117	133	1
23	56	1
15	54	1
81	134	1
90	121	1
18	42	2
64	87	2
57	87	1
10	12	1
55	130	1
29	78	1
72	98	1
62	91	1
136	140	1
110	138	1
25	28	1
56	139	1
19	54	1
58	71	1
9	14	1
97	114	1
96	112	1
107	118	1
54	114	1
78	141	3
67	78	2
105	109	1
69	111	1
87	103	1
5	31	1
79	146	1
11	86	1
109	116	1
39	129	1
59	93	1
86	110	1
75	78	1
99	128	1
23	27	1
97	132	1
93	102	1
101	125	1
112	119	1
119	142	1
78	124	1
50	91	1
1	73	1
78	86	1
90	115	1
22	28	1
3	6	1
112	126	1
63	108	1
51	55	1
37	59	1
71	88	1
71	136	1
67	76	1
16	83	1
37	65	1
35	134	1
88	132	1
129	131	1
103	124	1
24	27	1
114	121	2
35	82	1
42	104	1
53	113	1
91	130	1
28	96	1
0	30	1
75	85	1
69	75	1
107	120	1
131	135	1
32	82	1
54	58	1
65	113	1
75	80	1
9	78	1
66	86	1
76	109	1
29	91	1
121	125	1
81	85	1
24	36	1
42	107	1
101	145	1
96	128	1
39	115	2
31	70	1
92	113	1
16	42	1
29	59	1
5	131	1
56	91	1
30	78	1
101	103	1
96	120	1
33	77	1
126	133	1
118	128	1
39	82	1
126	139	1
131	139	1
38	55	1
122	131	1
49	101	1
72	82	1
24	112	1
120	125	1
38	126	1
108	115	1
17	140	1
31	83	1
