34	35	7
72	72	25
94	94	6
59	59	27
54	54	6
81	88	3
36	81	3
53	54	3
96	96	16
80	80	18
29	45	4
63	63	19
82	82	5
67	67	19
45	62	4
40	41	3
78	78	16
98	98	6
55	55	8
65	65	10
35	35	14
60	74	5
60	60	24
20	61	6
33	33	11
66	66	12
43	43	10
76	77	2
78	79	1
56	83	2
33	38	3
71	71	11
44	45	7
29	37	3
41	41	12
29	67	1
24	24	15
29	29	14
52	100	2
25	60	3
46	58	1
32	32	6
48	73	2
101	101	4
50	50	8
46	69	4
60	69	1
28	28	4
80	95	2
77	78	4
49	50	15
43	44	1
59	61	3
95	96	8
87	88	8
25	26	6
63	64	5
74	74	14
75	75	23
90	92	5
81	81	6
79	79	8
57	58	4
53	53	12
48	48	6
52	52	21
101	102	8
69	70	6
31	31	4
62	62	9
85	91	4
43	45	1
80	94	3
70	70	17
76	76	5
62	63	7
84	84	7
83	83	17
44	44	12
56	57	3
91	91	16
90	90	12
87	87	11
52	62	1
89	89	14
57	57	12
48	88	3
93	94	5
20	22	1
51	51	16
61	61	6
65	66	3
91	92	4
86	86	3
88	88	8
53	81	6
80	83	6
67	75	4
45	46	6
99	99	6
30	52	3
23	54	2
38	47	4
20	98	1
52	85	3
38	87	2
22	100	3
102	102	5
85	92	1
69	69	7
94	98	2
99	100	3
94	97	3
46	88	2
49	74	1
47	47	8
92	92	8
46	46	3
53	86	2
43	73	1
49	49	5
84	88	3
78	91	1
28	96	1
97	98	2
20	20	1
97	97	12
80	89	4
69	72	1
73	74	4
42	44	1
25	25	4
80	81	4
81	87	3
53	80	3
29	80	1
56	56	10
44	57	1
29	101	3
59	69	3
77	77	13
82	86	3
29	39	5
32	34	1
80	93	1
54	100	3
37	38	1
68	68	7
82	89	2
48	52	6
64	66	3
41	44	2
84	87	2
86	93	1
100	100	7
22	22	1
48	83	5
53	95	3
36	37	4
26	46	5
73	73	10
42	101	3
39	39	4
23	23	3
54	97	5
53	93	4
30	36	4
33	34	10
50	63	3
45	80	3
87	89	4
42	42	18
83	84	1
95	95	10
26	26	3
42	102	1
25	53	3
67	68	2
32	49	2
61	92	1
53	61	2
37	37	2
68	75	1
23	25	3
27	27	2
92	93	2
35	36	5
34	34	4
59	60	4
64	64	11
58	58	7
95	101	1
48	51	2
89	93	1
89	90	1
37	81	1
20	86	5
82	93	3
74	75	6
45	98	2
45	45	3
42	43	2
46	63	1
86	87	2
32	35	2
85	86	2
20	24	4
30	30	10
37	46	1
22	61	2
24	87	3
52	88	2
72	73	3
49	64	1
36	36	2
77	95	1
35	44	5
86	89	2
84	89	1
45	70	3
34	57	1
92	96	1
23	24	3
64	65	2
65	77	1
53	88	1
45	55	1
64	85	1
54	55	4
52	53	2
58	81	1
22	94	1
46	62	1
55	95	2
40	65	1
65	89	5
22	54	1
55	87	3
31	44	1
97	101	3
54	93	1
60	61	6
46	47	1
39	40	2
60	73	1
45	59	2
45	93	1
38	79	3
96	98	1
33	48	1
47	51	2
47	54	1
27	53	1
38	54	1
80	87	1
48	49	1
39	80	1
37	79	2
48	80	1
60	91	1
58	61	1
38	39	1
40	40	2
50	71	1
37	44	2
93	93	3
55	56	2
28	46	1
65	78	1
49	84	1
29	30	2
53	55	1
27	28	1
57	60	1
38	38	3
50	76	1
41	78	1
91	98	1
25	46	1
20	27	1
66	67	1
46	89	1
57	77	1
