88	88	12
102	125	2
48	49	3
124	127	1
128	131	4
120	120	7
9	10	1
58	58	9
99	100	1
74	77	4
79	97	2
59	59	4
75	75	8
37	142	2
83	108	3
127	127	3
143	143	3
100	100	8
66	67	4
77	78	5
128	129	1
36	65	2
38	119	2
109	132	1
31	138	3
115	116	2
71	72	11
11	36	1
107	108	7
132	132	6
56	87	1
118	118	8
70	70	4
51	84	2
96	96	5
6	6	2
67	67	3
64	138	1
33	142	1
142	142	7
89	91	3
37	37	5
55	56	9
18	20	2
56	56	11
28	28	3
54	54	7
99	99	4
68	68	6
52	52	8
129	129	6
75	76	3
141	141	9
128	128	14
42	142	2
21	25	3
111	132	6
8	8	1
50	51	5
55	55	10
31	31	3
5	5	5
60	60	4
56	86	2
9	129	1
27	27	4
21	21	4
66	68	1
86	92	2
51	51	4
121	121	7
85	85	4
64	109	4
112	112	1
90	92	2
121	123	2
91	91	8
134	138	1
137	138	6
3	105	5
1	2	7
96	97	6
136	136	7
119	134	1
132	138	5
120	121	1
133	133	3
134	134	7
84	84	4
126	126	6
9	9	6
127	129	2
137	137	9
101	101	4
65	65	1
66	66	6
125	125	6
92	92	3
23	23	9
26	26	3
42	88	2
40	41	1
73	74	7
51	52	1
13	13	6
38	38	10
33	36	1
31	34	1
49	49	7
47	51	3
20	20	6
69	107	1
32	32	3
15	15	2
85	97	1
90	121	2
94	94	6
30	30	2
4	4	6
76	76	4
3	36	1
84	85	3
58	86	2
48	48	1
128	130	2
135	135	4
72	72	3
108	110	2
58	96	3
124	124	14
122	123	2
34	34	2
109	109	6
130	130	6
40	48	3
111	112	2
87	87	4
31	35	3
16	36	4
65	66	3
76	128	1
93	123	1
122	122	5
2	2	7
122	128	1
77	77	1
115	115	3
70	73	4
11	11	4
74	74	1
52	53	5
92	103	1
25	25	2
90	90	2
135	144	1
56	57	2
71	129	3
93	106	1
5	43	2
113	113	5
11	99	1
64	86	2
108	128	2
118	122	1
133	135	2
89	90	5
119	124	1
133	139	2
81	94	5
56	92	2
117	118	2
69	69	3
129	131	2
142	144	2
117	117	8
78	78	1
125	130	2
95	95	5
87	107	5
64	82	3
41	41	6
6	43	1
53	54	3
36	36	6
109	110	3
31	63	2
95	134	2
62	62	2
82	82	2
84	129	2
103	105	3
11	19	2
4	13	5
6	74	1
69	124	2
142	143	1
13	16	1
1	105	2
62	124	1
76	93	1
12	12	1
30	32	2
34	35	3
50	72	2
71	84	2
94	103	2
38	126	1
8	20	2
26	109	1
13	39	2
93	93	1
83	98	2
50	50	2
62	141	1
82	128	1
65	76	3
113	117	3
19	19	2
3	3	5
21	37	1
73	97	2
112	137	1
64	64	2
140	140	3
19	48	4
80	81	2
73	84	1
107	107	2
97	97	1
40	40	4
93	94	6
111	136	2
57	96	1
38	127	3
136	138	1
109	112	1
76	111	1
30	88	1
3	26	1
69	104	5
97	98	3
39	49	2
121	140	1
31	96	2
53	53	3
0	0	1
128	141	1
8	10	4
31	36	1
103	103	12
82	129	2
101	102	2
33	138	1
116	116	1
32	86	1
29	95	1
88	91	1
33	34	5
31	57	1
10	10	4
32	33	2
71	122	1
136	139	1
110	110	3
14	32	1
108	130	1
5	6	1
37	49	1
4	12	2
18	18	1
47	47	1
96	132	1
49	72	1
134	135	6
55	131	1
102	102	2
98	98	1
5	47	1
24	26	1
35	35	2
63	131	1
4	47	1
22	22	3
5	75	1
1	1	2
114	114	2
118	134	1
69	72	1
61	61	1
79	80	2
59	95	1
52	54	1
73	73	4
119	119	2
59	60	3
129	130	1
71	71	1
42	43	1
139	139	2
31	65	1
33	65	2
110	113	1
121	135	1
122	129	1
86	86	2
105	105	1
125	126	1
115	117	2
58	59	2
140	141	1
116	134	1
33	33	1
138	138	1
141	142	1
121	134	1
34	89	1
16	16	1
36	37	2
78	79	1
73	121	1
135	136	1
14	15	3
26	111	1
126	127	3
104	104	1
131	131	2
65	80	1
47	73	1
17	30	1
123	123	1
14	14	1
145	145	1
81	128	1
136	137	1
95	96	1
81	81	1
15	27	1
78	102	2
36	38	2
39	40	1
32	87	1
56	94	1
0	21	1
82	91	1
139	143	1
106	106	1
104	108	1
