58	70	2
54	56	4
66	75	5
32	33	7
55	55	6
57	64	1
20	22	1
79	80	1
56	56	4
91	92	2
150	152	4
140	141	1
124	132	2
162	165	2
20	27	4
185	186	6
181	181	1
100	113	3
154	155	4
11	18	2
154	160	1
157	174	3
125	125	5
104	118	2
184	188	3
173	173	2
137	140	2
111	113	2
183	184	2
186	187	4
37	37	2
80	83	3
181	182	5
184	185	14
5	5	8
115	124	4
115	135	2
135	139	3
97	109	3
156	157	5
25	26	2
85	93	1
68	68	5
86	86	4
65	66	2
41	43	3
122	122	1
149	150	5
53	53	4
143	143	8
164	165	3
98	102	4
81	82	3
56	70	4
129	149	1
187	187	3
55	57	2
106	107	2
188	188	3
119	120	3
97	98	2
75	76	1
81	81	4
34	37	1
164	164	6
74	79	4
85	86	4
15	15	2
92	131	1
116	119	2
37	45	3
44	46	5
123	123	2
142	142	4
170	170	2
5	6	5
109	149	2
165	166	2
45	46	2
174	174	2
116	120	3
168	168	8
152	157	2
21	27	2
112	119	2
12	31	3
168	172	4
5	11	1
151	151	1
124	124	3
107	107	4
23	23	3
184	184	5
59	59	2
38	40	5
61	61	1
102	130	2
56	57	5
101	109	1
120	123	1
53	58	5
53	63	1
123	126	1
179	181	4
3	10	1
162	166	2
85	107	1
154	156	2
112	117	1
157	162	1
19	21	4
24	26	1
94	107	1
165	178	2
134	137	1
92	92	2
69	69	2
185	185	4
32	35	4
20	20	2
8	8	6
56	63	3
82	92	1
28	30	3
77	86	2
93	93	4
157	160	5
126	130	3
152	154	1
114	114	4
173	176	2
25	28	3
142	147	4
96	98	7
25	25	4
147	148	4
135	137	4
145	146	1
56	68	5
29	29	2
175	178	3
27	28	3
52	53	3
152	152	3
83	83	4
147	147	6
100	100	1
17	29	3
112	114	3
12	13	4
23	39	1
120	122	1
102	119	5
29	34	7
23	29	1
46	47	4
31	34	3
133	133	3
57	71	2
139	174	2
134	139	8
96	99	1
174	190	4
165	177	2
167	167	6
34	44	2
154	154	7
37	62	1
172	179	2
124	140	2
145	145	1
175	175	1
77	79	2
122	125	2
106	106	3
86	90	5
35	38	1
133	135	2
108	114	2
80	169	2
106	111	3
32	32	4
2	3	1
112	133	2
116	116	4
1	2	4
116	135	2
39	42	3
115	117	3
94	94	5
53	54	1
156	158	2
138	140	4
173	174	1
73	74	2
129	142	1
82	95	2
123	134	3
57	57	3
1	17	1
74	74	5
43	48	2
19	22	2
171	174	5
152	156	1
29	32	3
42	43	2
121	122	1
15	17	2
118	131	4
157	157	2
25	43	1
104	104	5
16	16	3
136	136	3
7	10	3
67	67	3
108	108	5
137	148	2
108	109	4
190	190	1
169	175	3
90	92	2
11	28	1
123	125	3
71	74	3
124	136	2
7	11	4
2	2	2
165	168	2
167	169	4
39	40	2
76	98	2
28	33	1
23	26	1
95	95	2
106	126	1
178	181	4
73	77	1
171	172	2
170	171	2
109	109	2
138	138	1
132	133	1
148	153	1
10	13	1
96	123	2
123	124	1
176	186	1
176	176	2
72	74	1
183	183	2
115	119	1
111	112	2
118	126	2
169	176	1
175	176	6
110	113	3
30	31	1
111	114	3
18	41	3
6	6	2
94	97	2
17	20	1
37	40	2
172	177	1
146	152	3
98	99	1
179	183	2
148	154	2
73	132	1
136	139	3
22	22	3
56	66	3
149	149	6
105	108	1
74	77	1
178	179	1
16	20	2
147	150	6
113	114	6
176	177	2
120	121	1
103	104	1
91	94	1
24	24	1
104	108	1
148	148	4
129	130	5
17	25	2
17	24	1
125	130	1
28	28	1
79	83	1
87	99	1
98	109	1
107	108	2
152	155	2
0	3	2
93	119	2
152	153	1
105	113	2
6	8	1
145	177	1
6	13	1
22	37	1
68	71	3
30	32	2
117	133	1
32	38	1
122	124	1
55	64	1
172	172	2
29	31	1
184	187	2
68	86	3
118	156	1
54	55	2
171	183	1
48	48	1
23	24	5
96	117	1
130	138	2
151	156	2
140	140	1
31	44	1
72	75	5
85	95	1
67	84	1
70	71	2
76	83	4
76	78	1
8	21	1
16	22	1
82	82	2
42	45	2
157	170	1
24	25	2
111	111	1
115	129	1
141	141	1
109	110	1
98	105	4
72	73	2
1	23	3
37	39	2
98	98	2
103	103	1
82	84	2
116	118	1
128	171	1
6	10	1
125	128	1
144	144	4
76	77	1
126	127	1
150	150	1
65	67	1
163	167	1
13	35	1
91	93	2
183	187	1
65	97	2
96	100	2
89	96	1
146	190	2
117	140	1
113	115	1
19	19	1
26	43	1
48	66	1
177	177	1
102	105	2
67	68	1
117	120	1
47	47	1
18	20	1
109	114	1
175	180	1
53	59	2
14	14	2
112	113	1
188	189	1
67	83	2
156	162	1
18	23	1
130	172	1
109	111	1
121	138	1
100	105	1
63	63	3
179	179	1
89	95	1
19	20	2
53	57	1
129	129	1
126	128	1
64	64	2
41	44	1
107	113	1
83	87	1
71	134	1
76	82	3
162	162	1
66	80	1
102	120	1
142	145	1
61	67	1
147	178	1
91	95	1
102	103	1
100	103	1
171	177	1
42	94	1
76	79	1
20	24	1
139	142	1
141	145	1
83	91	1
141	144	1
62	62	2
156	181	1
127	133	2
84	99	1
112	112	1
113	117	1
0	7	1
42	44	1
35	54	1
70	70	1
62	78	1
33	36	1
121	140	1
61	62	1
89	91	1
47	55	1
115	116	1
101	101	1
29	43	1
143	144	1
29	41	1
107	111	1
65	126	1
92	102	1
