22	23	12
86	86	9
27	27	8
95	97	4
137	140	3
39	41	2
5	101	2
115	115	2
109	109	11
5	5	12
151	151	6
65	66	4
117	159	1
0	1	7
137	137	12
43	44	6
2	17	4
22	22	17
69	69	14
63	63	7
36	41	2
155	155	10
17	17	18
45	45	8
9	10	9
1	21	2
107	127	2
54	54	7
83	83	11
72	72	4
87	87	10
120	124	3
68	68	3
99	99	9
8	16	9
13	14	6
140	140	5
113	113	8
91	96	4
107	107	4
13	15	4
132	140	7
51	62	3
91	92	2
7	7	7
57	58	7
165	168	1
125	138	7
62	62	11
47	50	2
165	165	5
48	49	2
34	35	1
106	136	3
71	77	4
169	169	2
66	67	14
64	65	1
142	148	1
37	37	15
164	164	7
18	19	4
53	53	6
70	70	5
18	18	15
1	1	4
56	56	8
148	148	5
49	49	12
135	135	4
0	2	2
122	140	3
85	85	7
8	8	9
104	104	2
112	113	2
122	122	9
51	52	2
84	111	1
165	167	2
57	57	12
24	24	8
156	156	9
121	123	2
11	11	15
146	164	3
117	117	3
25	25	5
117	140	1
147	149	1
108	135	3
28	28	3
128	128	15
152	153	4
55	55	11
55	130	2
19	27	4
9	140	4
98	168	3
10	10	7
50	90	5
12	15	7
14	14	11
77	77	6
52	52	7
26	26	6
102	102	2
103	103	3
89	158	4
47	47	7
11	19	1
9	9	7
23	33	2
150	150	12
94	95	1
40	40	13
78	80	3
13	25	2
102	103	3
56	57	2
108	108	6
114	114	13
118	156	5
142	142	8
8	123	2
4	4	6
116	116	8
80	80	2
92	106	2
162	162	8
12	12	13
41	41	7
132	132	2
111	111	4
82	82	2
119	124	2
110	116	2
152	152	4
21	23	3
129	129	5
127	127	9
123	126	4
23	23	2
38	38	15
55	56	11
8	9	8
62	63	6
120	121	1
100	169	6
14	15	8
153	153	7
121	121	3
72	88	3
146	157	2
112	170	6
121	122	1
52	54	2
20	20	2
158	158	4
9	36	1
115	116	4
74	74	6
3	3	7
123	123	7
130	159	4
120	140	2
16	17	2
77	78	5
118	118	10
99	100	2
65	73	4
46	46	9
131	131	7
16	24	2
79	80	4
16	16	7
69	70	1
145	168	3
167	167	9
34	42	2
105	106	4
161	162	4
11	12	6
133	133	2
12	52	2
115	117	8
132	133	1
64	68	1
134	135	1
42	42	5
133	134	2
144	153	1
93	105	4
90	90	6
9	142	8
78	79	2
164	165	3
110	150	1
120	125	3
50	50	6
96	97	3
122	124	5
84	113	1
138	138	3
39	87	1
19	20	5
34	34	7
143	145	4
145	163	4
17	38	3
36	36	6
19	19	8
119	119	9
43	43	8
1	4	1
33	42	1
95	95	9
39	71	1
16	37	6
138	140	2
110	110	5
97	98	2
8	15	1
6	6	3
35	42	4
1	2	2
159	162	3
56	158	1
159	159	1
18	39	4
126	126	6
93	95	1
70	85	2
90	91	2
111	112	7
161	164	1
78	78	5
86	87	1
39	40	9
64	64	2
124	124	4
93	107	7
2	2	6
20	22	3
112	116	2
51	57	2
117	133	3
68	69	5
110	124	1
3	136	2
123	127	4
21	22	2
18	25	3
158	159	3
16	125	3
64	71	1
166	166	2
81	82	9
110	114	2
160	160	6
15	123	4
97	97	7
134	134	5
121	125	2
157	158	2
9	125	3
76	86	2
15	15	6
71	71	4
114	116	6
140	141	7
77	97	3
41	42	4
18	23	1
45	46	3
21	21	6
93	101	1
144	158	2
89	89	3
39	39	1
147	148	4
108	134	2
102	104	2
4	5	2
73	74	3
73	73	2
20	47	2
24	36	2
23	25	2
0	21	3
126	136	3
37	38	3
120	122	2
55	135	1
130	130	6
104	162	4
74	75	2
84	85	1
2	3	1
15	47	1
151	152	1
71	72	3
117	118	2
143	161	4
125	127	2
118	157	1
81	81	9
168	168	1
10	147	2
7	18	3
47	49	1
96	96	1
49	50	3
46	51	1
155	156	2
163	163	5
34	43	1
118	121	2
58	58	1
6	25	2
50	51	2
146	146	3
148	156	1
7	136	1
142	144	2
109	111	1
5	99	2
80	82	3
91	94	3
149	149	4
36	37	2
20	24	1
63	65	3
139	139	2
170	170	1
49	120	1
1	39	2
33	34	3
84	84	2
5	6	2
112	115	1
129	130	1
100	100	4
24	35	2
48	48	6
121	128	1
35	35	3
19	39	1
66	66	1
37	41	1
147	147	4
128	137	1
79	79	6
52	62	2
5	53	2
119	159	1
132	135	3
47	48	1
138	141	3
103	137	1
85	86	1
150	151	1
122	125	2
5	15	3
75	75	1
6	54	1
67	67	3
14	23	1
91	91	2
98	167	1
159	160	1
143	143	2
141	154	1
169	170	1
54	55	1
154	155	1
65	65	1
98	98	1
118	119	1
151	165	1
127	128	1
17	126	1
105	133	1
120	120	2
144	162	2
157	160	1
116	119	1
141	141	3
113	114	1
130	132	2
51	51	1
136	136	1
37	52	1
103	104	3
112	112	3
101	102	1
128	166	1
122	137	1
13	13	1
157	157	2
113	115	2
108	109	1
106	106	1
39	74	3
0	44	1
49	63	1
12	25	1
12	23	1
105	105	1
137	138	1
142	143	1
38	40	1
54	56	1
8	37	2
24	25	1
129	157	1
48	57	1
125	126	1
154	158	1
44	45	1
145	165	1
33	33	1
127	165	1
44	44	2
132	134	1
37	51	1
125	137	1
21	24	1
7	8	1
144	163	1
132	162	1
67	70	1
131	138	1
141	149	1
58	63	1
108	129	1
10	15	1
