58	58	14
65	66	5
71	72	9
76	76	21
49	50	12
9	19	1
72	73	4
26	27	11
78	78	25
21	21	7
20	20	18
72	72	12
8	30	2
55	55	24
36	37	4
74	74	27
51	51	15
48	48	17
67	67	11
75	75	25
4	4	30
55	56	12
11	31	4
6	6	11
19	19	18
61	61	25
73	73	15
52	53	5
1	2	6
4	5	4
20	30	5
45	45	11
35	36	10
39	39	15
57	57	16
27	41	10
32	32	15
14	21	8
54	55	10
63	64	8
63	63	16
59	59	17
40	41	8
18	18	20
21	32	8
50	50	4
46	47	19
64	66	1
16	27	1
25	26	4
64	64	26
5	7	7
7	7	26
49	49	18
40	40	21
56	56	17
2	2	19
8	8	8
42	42	27
13	15	1
64	65	3
27	27	31
53	54	6
52	52	19
31	31	13
53	53	12
16	16	9
25	25	10
41	41	23
6	77	2
9	9	14
51	52	11
17	17	21
62	62	14
26	26	24
66	66	15
2	3	7
25	31	2
33	33	11
46	46	8
11	11	10
37	37	13
6	16	4
31	32	13
67	68	11
41	44	3
33	34	4
65	65	39
77	77	10
41	42	6
10	10	14
29	29	17
70	70	25
30	30	8
34	34	10
47	56	2
11	25	2
38	38	11
63	65	3
32	33	7
79	79	14
70	71	11
0	1	5
5	5	20
47	48	5
15	15	16
22	22	2
58	59	5
56	57	8
66	69	4
1	1	12
45	74	1
14	31	5
66	68	4
18	37	2
19	20	10
9	10	5
66	67	9
12	12	18
35	35	3
54	54	12
14	25	1
68	68	18
34	36	1
10	13	1
80	80	18
34	35	4
60	61	8
71	71	8
36	36	17
8	10	2
35	40	3
9	35	3
10	12	3
69	69	11
28	41	1
47	47	11
6	7	7
57	58	1
12	14	5
37	38	5
41	45	3
59	60	6
75	76	12
31	33	3
75	78	1
60	60	17
52	67	7
79	80	2
77	78	2
28	29	4
8	9	5
28	40	1
14	14	18
16	48	2
11	12	6
43	43	2
7	8	1
51	53	4
13	14	3
25	29	3
74	75	3
48	49	5
14	32	2
46	74	2
26	40	1
76	78	1
78	79	4
12	13	2
6	8	3
67	69	3
69	70	2
38	39	13
61	62	5
5	9	4
51	68	2
5	6	4
62	64	1
3	3	5
13	13	7
28	28	8
0	0	5
49	52	1
34	39	1
10	33	1
39	41	4
25	32	2
68	70	3
44	44	3
59	61	1
76	77	6
27	28	3
45	48	1
35	73	4
37	80	1
15	31	1
52	69	1
17	18	1
27	42	1
7	17	3
49	70	4
14	52	1
58	60	4
12	21	1
49	67	2
12	15	1
10	11	1
50	51	1
20	33	1
5	30	1
73	74	2
69	71	1
21	22	1
49	69	1
14	15	1
45	46	3
81	81	1
15	16	2
15	53	2
11	13	2
16	37	1
15	30	1
68	71	2
49	53	1
39	40	1
3	4	1
15	21	1
9	15	1
35	39	1
20	34	1
45	57	1
10	32	1
29	30	1
15	19	1
