40	40	10
155	155	9
184	184	6
28	29	1
24	24	6
47	47	2
156	156	8
163	163	7
9	9	1
171	171	10
145	149	4
29	30	6
167	179	3
159	160	2
106	111	2
140	140	9
80	80	2
57	57	5
67	68	5
93	94	4
170	174	3
83	83	1
89	89	5
169	173	2
111	112	1
34	37	3
132	133	3
36	36	2
105	105	1
187	187	4
151	151	4
23	24	2
8	27	3
43	43	2
84	84	12
46	46	2
107	107	2
78	114	1
139	153	2
167	168	5
103	106	1
99	99	1
179	180	6
114	115	3
35	35	4
131	180	1
175	177	2
124	124	2
182	183	4
142	142	2
18	18	9
93	106	4
190	190	3
38	39	1
9	37	1
169	169	10
54	54	4
91	172	3
138	138	5
64	65	5
42	43	2
182	182	3
120	121	5
156	157	3
45	45	5
23	25	7
79	103	3
10	10	2
40	76	2
169	184	2
120	136	3
93	117	2
71	71	3
134	138	3
56	56	9
150	151	1
21	59	2
141	143	2
69	70	3
134	134	4
97	97	7
34	34	2
106	106	4
21	22	2
63	64	1
41	77	3
91	91	11
119	123	1
82	83	1
66	66	4
13	13	5
130	130	3
35	59	3
24	74	1
84	85	1
12	93	1
8	55	3
86	87	2
174	174	1
165	165	1
92	93	2
73	73	4
132	134	4
168	170	2
108	108	2
25	25	4
3	25	1
43	46	1
67	67	3
131	138	2
145	163	3
161	162	1
15	15	2
102	102	9
123	134	1
11	11	3
175	176	3
78	78	7
70	75	4
90	95	1
3	3	3
20	20	2
137	137	1
81	81	4
84	149	3
129	129	3
99	113	2
45	98	1
52	52	1
126	127	4
69	69	3
101	134	2
86	86	5
166	166	3
68	73	5
142	187	2
125	126	4
74	82	3
161	168	1
98	98	5
96	106	2
175	185	4
22	22	3
124	127	2
90	170	1
85	85	4
0	0	1
79	79	4
100	100	1
55	55	1
95	106	3
18	59	1
127	177	1
128	128	5
16	78	2
32	33	1
42	42	3
143	144	2
129	147	5
122	123	1
92	92	3
118	119	1
8	9	2
45	46	2
7	7	3
124	125	6
108	109	3
75	75	2
82	104	2
168	180	2
48	58	3
150	150	4
121	121	2
145	155	1
16	27	2
101	102	1
79	80	2
32	32	1
147	148	6
73	95	1
26	75	3
74	106	2
113	113	1
21	21	2
26	35	1
27	35	3
111	111	7
107	112	1
82	82	1
185	185	1
8	39	3
16	21	1
104	104	1
115	115	1
165	176	1
170	171	2
180	180	4
103	103	2
90	121	3
157	166	1
4	8	2
149	149	3
33	34	2
26	26	3
84	131	1
12	43	2
119	120	1
136	137	4
60	65	1
1	1	1
72	79	1
17	60	1
157	157	1
19	19	2
162	162	3
17	32	1
137	149	1
68	70	1
55	56	1
38	38	2
93	93	1
44	44	2
93	116	3
148	148	1
99	100	2
134	136	1
146	146	2
180	182	2
161	180	1
12	14	1
15	25	1
110	110	2
168	176	3
188	190	2
18	58	2
6	6	1
162	163	2
61	63	1
100	137	1
106	109	1
131	136	6
30	31	1
76	76	3
126	128	1
134	135	1
160	161	1
177	178	3
115	176	2
143	143	6
179	188	1
83	103	1
101	101	1
31	31	1
186	186	1
181	182	4
183	188	2
168	168	2
144	152	1
115	119	2
112	117	1
5	5	1
153	153	2
167	169	1
64	64	1
56	57	1
114	114	2
154	156	1
131	131	1
166	167	1
28	56	1
7	53	1
161	161	1
30	30	1
115	134	2
139	139	1
46	67	1
27	29	1
188	188	1
166	168	1
96	134	1
138	139	1
59	60	1
176	177	1
23	37	1
167	170	2
15	91	1
162	164	2
147	147	1
172	174	1
122	122	1
61	62	1
77	77	1
88	88	1
166	181	1
165	184	2
17	24	1
171	173	1
117	117	1
127	144	1
