120	120	5
161	174	2
187	187	22
86	86	13
88	88	16
153	163	7
161	161	25
213	213	22
155	155	35
208	208	30
116	116	15
104	104	2
11	12	6
152	152	17
200	201	16
176	176	17
4	12	4
114	114	17
246	246	22
154	154	23
161	162	10
54	54	7
166	167	2
174	174	32
150	150	21
179	179	21
231	231	12
158	158	8
206	207	19
28	29	8
157	159	8
157	157	36
8	233	1
183	189	1
96	96	5
67	67	10
168	168	36
182	241	8
58	58	8
239	241	1
84	84	9
33	219	5
153	153	26
173	173	16
68	68	34
214	235	1
220	220	12
27	27	21
75	75	12
46	46	22
3	4	3
205	208	5
18	22	4
156	156	29
163	163	21
64	64	19
227	227	20
243	243	20
56	56	16
214	214	27
20	23	3
69	195	3
55	56	7
80	85	2
164	165	4
183	183	10
205	205	34
57	209	2
216	216	16
192	192	29
82	82	2
159	207	2
199	220	2
107	107	10
59	60	5
178	178	19
177	177	11
209	209	11
172	172	16
217	217	12
201	201	18
219	219	13
157	161	1
166	174	6
215	215	9
38	38	24
203	204	14
174	175	11
159	159	18
225	225	7
24	24	10
144	145	3
62	62	3
92	92	16
227	228	6
4	4	2
115	115	14
23	23	16
175	175	21
185	209	3
28	89	1
20	20	11
17	17	11
35	36	4
61	62	6
33	39	2
185	192	4
1	161	1
118	242	1
200	212	6
175	177	8
186	186	29
194	195	5
31	75	2
198	199	7
233	235	1
151	151	21
113	113	8
227	230	1
151	156	3
200	233	2
204	204	14
160	160	17
114	115	27
37	37	14
33	33	15
234	234	14
235	235	10
165	165	7
61	61	13
242	242	20
40	40	19
185	185	15
70	70	11
20	21	3
30	38	3
210	210	11
112	113	10
74	74	7
182	183	1
185	194	2
163	164	11
189	208	3
52	53	15
173	174	9
211	212	4
8	8	18
186	247	3
196	196	27
72	72	5
2	3	1
60	60	10
169	178	1
50	50	13
73	82	3
199	199	22
30	30	15
157	158	10
152	156	4
77	80	3
59	59	7
232	232	5
86	89	1
99	99	9
79	86	1
229	231	2
178	179	5
223	235	2
63	63	17
202	204	3
168	180	2
208	220	5
56	62	1
25	25	21
118	118	7
19	20	13
80	81	4
70	71	3
193	193	14
42	43	4
189	189	10
98	98	10
233	234	8
149	152	1
35	39	4
217	218	9
47	48	6
51	52	5
40	110	1
109	109	7
221	222	9
93	93	19
175	189	4
65	66	2
41	53	2
237	240	2
22	22	12
36	36	10
184	185	4
43	43	18
211	211	16
233	233	19
73	75	3
107	108	9
204	205	14
167	176	3
91	92	12
151	154	5
162	164	1
26	26	17
100	100	19
171	171	9
240	241	2
196	214	1
180	180	29
117	117	11
63	64	8
221	221	18
32	32	15
19	19	9
174	186	3
202	203	14
62	63	3
188	188	16
212	212	19
179	180	4
170	171	10
90	91	4
44	44	15
222	235	7
67	68	8
200	204	3
21	23	4
200	200	17
14	15	4
212	213	9
80	86	2
26	27	8
173	177	6
75	76	6
31	31	14
118	119	12
159	162	3
31	34	3
215	216	1
228	228	10
173	182	4
197	197	13
234	235	8
94	94	15
21	21	11
73	73	6
225	226	6
16	16	6
91	91	15
73	74	9
12	12	21
17	18	10
1	1	20
150	151	2
106	106	6
55	55	11
56	58	4
217	219	1
29	66	2
203	203	16
49	49	7
35	35	13
62	75	1
169	171	4
29	30	3
220	230	1
95	95	9
162	167	3
8	10	1
212	226	3
110	110	9
85	85	3
90	90	14
195	195	6
199	212	5
198	220	2
216	217	10
6	6	5
37	38	8
179	185	3
115	116	6
197	207	5
181	189	3
76	76	13
39	61	2
34	34	7
77	77	4
93	94	5
182	182	9
110	120	4
40	94	3
9	10	2
37	39	4
193	196	1
39	40	8
163	167	2
57	57	17
168	200	2
153	167	1
2	7	1
89	91	3
96	97	4
14	173	3
166	166	14
197	218	1
87	88	3
110	112	1
149	151	1
189	190	1
169	198	2
223	223	15
222	222	22
57	58	11
174	180	2
170	170	13
119	119	9
101	101	2
78	78	20
41	41	15
53	56	3
29	29	12
162	163	4
202	202	12
180	184	4
28	28	5
112	112	17
154	155	4
89	90	7
65	65	12
208	209	4
152	158	2
45	45	8
59	218	2
10	36	2
105	106	6
188	189	4
181	182	3
230	230	10
48	48	11
181	181	24
243	244	5
210	211	6
180	183	3
60	62	5
247	247	17
95	204	2
188	239	1
110	244	1
193	194	2
184	184	13
229	229	7
174	181	5
194	194	8
239	239	13
105	107	2
58	203	1
111	111	11
145	145	7
162	162	23
73	76	3
66	66	11
223	224	4
116	117	9
207	207	20
55	57	3
79	92	1
213	214	10
186	196	4
169	177	3
72	73	1
87	87	8
209	241	5
71	73	3
74	75	1
46	52	4
232	234	3
241	248	3
218	240	2
51	92	1
28	31	3
239	247	1
172	173	5
164	164	3
184	191	4
185	186	6
30	31	7
174	177	3
71	71	10
179	181	4
238	238	9
112	239	3
83	83	8
48	51	5
33	34	9
179	183	6
5	5	8
7	7	17
34	38	1
51	62	4
165	166	8
9	9	9
183	236	2
237	237	7
169	169	17
14	14	5
176	177	5
47	47	22
220	221	6
224	234	4
197	220	5
10	11	5
240	240	6
27	28	5
151	153	1
51	51	13
62	93	3
23	24	4
39	39	15
197	198	6
15	15	10
31	36	4
183	184	2
66	67	3
19	23	4
156	167	1
64	70	5
2	2	5
198	198	16
242	243	6
196	220	2
62	192	2
81	85	2
95	97	1
173	175	9
18	19	5
77	78	5
245	247	3
146	146	3
111	120	3
153	154	5
151	161	1
167	168	9
121	121	4
3	3	6
241	242	11
29	32	2
54	55	7
21	224	1
245	245	21
85	86	5
42	42	7
19	38	1
185	210	3
144	161	1
201	202	5
3	5	3
202	205	4
206	220	5
56	57	15
49	50	5
58	59	6
190	191	3
55	207	4
177	178	1
56	59	2
192	244	4
241	241	13
10	39	3
173	211	1
66	94	3
6	31	2
53	55	1
215	241	5
15	172	1
38	39	1
222	223	7
152	153	4
108	108	10
69	69	6
106	108	5
175	188	3
4	5	7
196	197	3
149	154	2
81	81	1
218	218	7
99	201	1
15	18	1
199	200	3
213	238	2
79	80	2
112	115	2
34	35	3
193	195	1
245	246	4
10	38	1
182	225	1
11	11	8
172	174	1
232	233	5
164	240	2
18	18	12
80	80	6
225	232	2
79	79	4
207	210	2
215	236	2
167	180	2
192	193	3
244	245	5
238	239	2
113	114	3
185	188	3
153	157	1
237	247	1
15	30	2
237	238	3
224	224	2
24	25	4
224	225	3
175	184	2
70	87	3
10	10	12
197	199	3
217	236	4
168	169	6
79	82	1
53	53	10
111	118	1
68	100	2
76	80	2
216	236	2
97	97	6
226	226	7
46	47	1
29	219	2
211	236	1
45	100	4
49	62	1
214	224	2
236	236	8
79	94	1
209	214	6
82	84	3
78	109	1
80	84	2
194	211	3
162	204	2
40	52	1
191	191	4
18	20	2
50	62	2
51	61	1
100	101	4
145	150	1
191	196	2
171	184	4
184	195	3
17	20	2
167	167	9
6	7	3
218	219	4
98	99	4
171	172	1
214	245	2
155	184	1
110	145	1
179	184	2
84	86	1
189	192	1
31	35	3
171	226	1
204	208	1
110	236	2
171	185	2
31	33	3
180	181	3
244	244	6
240	242	1
209	210	2
215	217	1
63	71	1
82	83	2
71	72	2
43	44	6
76	110	1
146	147	3
51	93	1
111	112	2
105	105	2
230	231	1
52	52	7
76	77	6
43	45	2
200	211	1
159	164	3
162	168	2
197	219	2
201	234	3
49	56	1
33	232	2
180	182	2
24	26	2
88	89	1
238	241	1
165	212	2
84	94	1
97	98	3
54	58	3
72	74	4
39	208	3
12	14	1
85	145	2
39	55	1
209	219	3
35	212	3
188	190	2
229	230	5
186	188	2
158	167	3
200	234	1
248	248	6
197	212	1
4	18	1
187	189	3
11	36	3
154	162	3
54	204	1
81	84	6
89	89	3
8	230	1
19	26	2
77	91	1
56	61	4
198	200	2
218	238	1
50	51	1
160	203	1
8	205	2
47	50	1
186	187	2
224	233	1
102	102	3
240	246	3
156	159	1
117	118	2
159	170	2
228	229	2
200	226	1
234	236	2
187	188	1
214	215	3
50	56	3
238	248	1
147	147	1
71	75	3
83	95	1
19	21	1
66	90	1
214	248	1
162	165	2
79	81	1
1	16	1
78	79	1
40	55	2
84	203	1
19	25	1
184	207	2
45	53	1
145	206	2
173	185	1
159	165	3
11	55	1
215	237	2
187	196	2
28	32	3
247	249	1
113	115	1
36	38	2
80	199	2
226	227	1
33	38	2
72	91	1
74	76	2
169	174	2
219	222	3
204	206	1
57	62	1
74	111	2
101	215	1
2	4	1
200	235	1
238	242	3
156	157	2
95	96	1
98	100	3
175	176	4
25	26	1
54	56	2
184	222	1
216	239	1
64	90	1
65	69	1
31	37	1
236	237	1
189	209	3
166	170	1
1	2	1
165	167	3
168	182	2
117	158	1
47	63	4
200	236	1
96	107	1
205	206	1
226	229	1
206	206	2
186	248	1
154	156	1
193	244	1
95	201	2
30	35	1
48	49	3
190	190	2
155	156	5
177	179	1
47	70	1
154	164	1
38	49	1
153	185	2
40	54	1
223	225	1
160	162	1
203	216	1
190	193	3
28	33	2
174	176	2
85	87	1
60	61	1
236	248	1
54	207	1
59	207	1
187	218	1
9	59	1
34	211	1
41	54	1
86	87	3
183	194	1
14	172	1
188	191	2
109	111	3
219	240	1
225	233	1
208	210	1
207	208	1
187	205	2
46	93	2
235	236	2
46	78	1
180	211	2
159	160	1
65	68	2
164	241	4
42	44	1
41	44	2
182	213	1
183	185	1
1	19	2
70	79	2
31	32	2
33	35	1
167	175	1
73	92	1
70	90	1
176	183	1
193	208	1
0	1	1
42	54	1
43	54	2
160	205	1
99	100	1
96	103	1
149	150	1
238	240	1
5	17	1
69	70	1
214	225	1
95	98	1
206	218	1
205	224	1
116	158	1
12	15	1
184	205	1
178	180	1
32	40	1
95	104	1
113	117	1
111	245	1
204	232	1
172	177	1
79	84	1
224	232	1
170	172	1
152	175	1
119	160	1
6	12	1
79	199	1
104	107	1
176	188	1
55	62	1
5	6	1
111	244	1
84	193	1
13	14	1
174	183	1
216	218	1
110	119	1
59	61	1
103	103	1
119	159	1
