125	125	4
14	14	9
123	123	19
35	35	13
16	17	3
17	18	4
84	84	3
22	22	4
104	114	1
96	97	9
106	107	2
6	7	3
77	77	8
5	5	6
102	103	9
102	114	2
7	7	9
96	96	6
96	100	3
129	135	6
137	137	4
110	111	4
83	84	4
37	38	5
133	133	7
126	126	12
85	87	5
97	124	6
120	122	3
118	118	5
101	105	3
3	3	6
139	139	2
88	88	9
116	116	12
23	27	1
140	140	19
124	125	5
38	38	4
101	101	14
21	21	12
79	79	6
115	116	1
27	28	3
103	103	13
71	71	3
104	107	5
117	117	9
11	13	3
30	32	1
115	115	3
124	124	16
34	36	1
6	29	1
130	130	7
78	79	5
40	73	1
128	128	9
27	29	2
72	72	15
86	94	3
129	129	13
90	96	4
130	140	3
12	13	4
29	29	8
81	140	5
112	134	3
13	14	3
129	130	14
107	108	2
112	135	1
83	87	1
76	77	2
11	19	3
116	117	2
113	113	4
28	29	1
15	15	4
110	125	1
111	112	2
99	100	1
78	78	2
127	127	12
134	135	3
25	26	5
120	121	9
1	3	1
81	84	3
90	90	7
26	26	3
28	28	2
131	131	4
5	6	6
83	83	12
19	19	7
95	102	2
3	6	3
93	93	4
4	125	2
90	91	3
82	83	2
110	110	6
130	131	3
6	6	3
129	140	2
12	12	3
81	83	4
31	31	4
118	119	2
109	110	1
98	124	4
92	92	7
71	73	1
75	75	7
82	84	1
24	27	4
34	34	4
116	129	4
122	123	2
26	73	1
4	33	4
118	120	2
25	25	2
37	37	6
86	87	3
73	73	9
122	122	13
86	90	3
36	36	1
99	99	1
4	11	2
138	139	2
82	82	5
11	12	3
109	109	9
8	9	5
74	74	5
102	102	17
111	111	1
137	138	2
112	112	11
0	106	4
3	10	3
91	116	4
102	104	3
104	104	5
105	105	5
19	20	2
113	135	1
80	80	2
1	1	2
22	23	2
6	15	1
22	87	5
138	138	6
24	32	2
81	81	4
4	4	9
10	32	1
109	119	4
85	86	5
135	135	9
100	100	7
75	131	2
2	16	4
136	136	4
132	132	5
97	99	1
114	115	1
139	140	1
114	114	2
97	114	1
87	88	1
106	106	4
88	89	6
9	10	1
98	98	2
32	32	6
119	120	2
10	11	4
3	8	1
4	6	6
83	85	2
100	103	1
84	95	1
126	127	2
75	84	5
82	86	2
32	33	4
89	89	3
6	8	2
33	33	9
0	1	2
134	134	8
81	89	2
108	108	5
18	18	1
7	8	2
27	27	4
103	104	1
83	95	1
79	80	3
13	13	4
100	111	2
86	86	3
76	76	3
30	30	6
106	118	2
4	12	2
44	44	2
35	36	1
71	99	4
31	32	2
94	106	1
76	79	5
85	85	2
119	119	3
127	131	1
78	103	1
97	97	5
128	141	2
125	126	3
128	129	4
91	91	1
20	37	1
91	92	2
9	9	2
95	95	4
93	94	3
27	31	2
8	11	2
126	129	1
6	134	3
92	93	5
20	21	1
131	139	3
117	118	2
0	2	2
23	23	3
94	104	1
3	4	4
83	94	1
75	80	1
11	11	2
85	93	1
109	120	5
120	120	2
72	131	2
13	125	1
28	31	2
133	135	2
80	82	1
8	28	2
2	5	1
24	26	2
17	17	2
23	32	1
131	132	1
104	109	1
121	121	1
0	38	2
73	74	2
121	122	1
91	108	1
77	78	1
108	109	2
7	10	1
2	2	1
25	28	2
0	118	1
33	35	1
75	76	1
109	116	1
96	110	1
109	111	1
102	121	1
84	85	1
74	75	1
18	19	1
15	22	1
