23	23	16
4	4	16
1	2	6
97	99	5
100	100	5
8	8	14
110	110	4
89	100	6
0	0	18
42	42	12
141	141	2
62	63	2
88	89	1
78	79	6
57	57	10
70	70	4
6	6	20
119	121	2
68	68	6
97	98	4
96	96	6
79	85	4
140	142	7
63	69	3
119	120	8
45	46	3
6	7	6
94	94	2
22	23	6
73	73	8
106	106	5
12	12	6
135	135	4
3	3	7
5	5	13
41	41	2
110	111	2
53	71	4
164	165	2
3	15	7
153	154	1
69	69	8
148	148	9
23	24	1
143	144	7
15	16	7
14	14	3
62	62	4
54	54	7
146	146	2
81	81	1
62	71	2
12	56	7
19	19	5
133	133	2
17	18	1
48	48	11
84	84	11
116	116	4
35	35	11
47	48	4
27	27	11
47	47	13
150	150	6
39	51	2
148	149	1
123	123	2
71	71	2
105	105	6
28	28	7
37	37	11
40	40	18
20	23	7
44	45	3
165	165	2
112	136	4
133	135	1
1	1	11
145	145	3
159	160	8
48	49	5
57	62	4
12	13	3
140	140	4
24	24	5
10	10	7
37	43	2
18	18	9
45	50	1
104	104	7
113	113	2
129	129	5
108	108	7
116	131	5
12	15	3
90	90	2
53	53	6
14	16	2
169	169	4
134	134	7
46	46	8
158	158	10
13	91	2
1	18	2
25	25	7
145	146	3
63	72	1
75	89	2
7	7	9
2	2	2
166	166	10
63	63	1
21	21	7
34	37	1
118	118	5
11	12	3
139	150	1
114	114	6
88	88	6
50	50	4
75	105	1
148	165	2
54	55	1
45	49	5
112	112	3
49	49	9
18	41	3
35	55	5
109	109	8
80	81	1
149	150	2
13	25	2
0	22	2
123	156	4
39	39	2
130	130	4
147	147	3
111	136	1
39	46	2
153	156	5
7	10	3
108	111	5
129	130	4
11	11	3
37	39	2
115	115	4
143	143	2
75	75	5
16	17	3
83	83	3
17	17	8
120	121	1
97	97	2
115	118	7
157	157	7
15	15	7
82	82	4
21	23	1
43	43	10
8	9	1
6	16	2
119	159	1
14	25	2
128	128	2
108	109	2
45	68	6
42	90	2
127	127	8
63	78	1
36	36	11
74	74	2
159	159	3
16	16	3
39	48	1
20	20	6
101	101	3
133	134	4
134	135	4
110	122	2
151	151	2
4	5	1
153	155	3
56	56	2
120	122	3
131	131	2
21	40	1
46	69	3
156	156	4
18	20	2
4	10	2
67	67	2
45	107	1
91	96	1
139	139	2
37	38	5
34	34	3
19	23	1
118	120	4
69	70	2
14	15	2
7	11	1
26	26	3
39	47	3
52	52	6
164	164	8
21	22	1
140	141	1
45	45	5
41	44	2
151	169	2
35	36	3
34	35	4
167	167	2
7	8	2
2	27	1
21	49	2
105	112	2
126	126	2
55	55	6
9	10	3
139	140	2
38	50	1
77	77	1
42	43	1
51	51	2
15	17	2
35	37	1
23	40	1
33	33	6
5	6	1
78	78	5
111	121	2
39	40	2
38	38	4
89	96	1
77	87	2
86	95	1
38	39	2
63	68	2
9	9	5
72	72	4
163	164	1
107	108	2
66	68	2
53	69	1
164	168	1
91	91	1
0	1	1
142	142	1
69	78	1
39	44	1
72	73	3
19	48	2
20	21	3
40	41	2
1	3	2
82	83	1
92	105	1
154	154	2
156	157	4
150	151	1
89	89	2
158	164	2
19	53	1
79	80	1
146	149	1
111	111	1
85	85	1
78	86	2
118	119	1
5	16	1
89	90	1
169	170	1
148	166	1
126	149	1
101	102	2
21	24	1
107	136	1
154	156	2
136	136	1
77	78	1
46	50	3
7	9	1
86	89	1
107	107	1
109	136	1
104	105	1
13	14	1
122	122	1
8	10	1
156	159	1
14	40	2
5	7	1
76	77	1
81	82	1
128	149	1
99	99	1
10	90	1
132	138	1
103	104	1
166	167	1
155	155	1
140	168	1
40	52	1
