151	151	7
57	57	2
133	133	2
61	61	4
164	164	2
2	2	16
111	111	11
57	58	5
89	97	1
14	14	25
39	39	13
83	85	6
2	3	8
150	150	10
101	149	3
11	12	4
43	44	6
6	11	2
9	40	6
100	109	3
94	94	6
137	138	4
30	33	2
16	16	9
174	175	2
139	139	9
142	142	10
168	168	16
132	134	1
33	34	2
17	18	12
18	19	3
37	37	16
66	129	3
81	81	7
28	30	2
14	171	5
17	17	15
118	118	12
43	43	12
7	24	1
68	129	7
83	84	6
10	10	13
28	29	6
7	9	4
13	14	7
53	60	1
11	11	18
27	30	1
8	8	15
119	119	4
66	67	4
32	37	2
20	22	1
4	4	18
10	141	3
72	72	8
174	177	1
157	180	2
30	30	10
28	28	24
144	144	7
163	168	1
127	127	10
137	137	8
18	18	10
80	80	17
9	9	12
45	45	11
16	40	2
104	110	2
90	90	4
25	26	6
44	45	4
77	127	1
49	49	1
19	19	7
40	40	9
68	81	2
39	67	2
38	38	10
149	149	3
92	92	5
127	130	3
40	139	2
109	109	10
96	96	6
11	14	3
31	31	18
155	169	1
31	36	3
78	78	8
121	124	3
9	16	6
22	22	19
67	71	3
12	13	12
112	116	1
14	90	2
13	13	20
3	4	15
51	51	5
38	79	1
5	5	14
113	113	4
99	99	8
91	91	12
96	114	2
92	94	2
102	102	15
65	65	5
12	12	15
150	177	2
134	134	9
105	105	3
117	119	4
128	156	1
26	26	12
131	131	13
83	83	3
173	174	1
75	76	3
6	6	9
32	45	1
25	25	5
5	44	2
177	178	1
98	98	6
157	158	7
15	15	15
16	17	4
152	155	1
129	129	6
23	123	1
110	119	3
140	140	3
42	101	1
18	90	2
29	29	10
157	157	8
5	6	10
35	38	2
81	82	7
104	104	5
140	141	1
123	124	1
50	50	4
128	145	1
74	74	4
165	165	2
123	123	12
174	178	2
10	14	1
13	22	2
108	151	1
148	148	4
17	22	2
1	5	1
35	35	12
41	87	3
58	58	2
10	13	2
35	39	3
7	7	12
32	32	28
14	36	3
23	80	3
97	97	4
96	97	3
128	128	6
84	85	2
152	152	10
95	95	4
121	121	3
79	79	11
67	67	4
9	11	4
71	71	4
107	135	1
61	176	4
84	84	8
19	20	4
1	4	3
88	88	8
61	63	1
124	125	10
116	117	4
30	31	2
86	87	4
172	172	7
118	120	7
159	159	8
7	26	1
125	125	15
20	20	6
23	23	18
54	64	2
169	174	3
108	108	3
108	114	1
23	27	4
104	111	4
162	162	5
81	83	1
116	116	5
19	41	1
145	145	8
115	115	3
151	152	4
125	136	2
129	154	1
58	60	1
32	38	3
73	75	2
150	151	5
75	75	2
139	140	2
170	170	10
150	152	2
68	70	1
53	53	6
94	101	1
167	167	8
16	19	1
36	39	2
170	173	1
0	10	1
119	129	1
26	35	2
121	122	3
152	153	3
112	112	5
103	103	6
59	61	2
61	65	5
52	52	6
176	176	9
54	54	13
80	81	4
33	33	13
83	99	2
153	167	2
32	33	3
140	151	5
36	36	9
124	124	2
169	170	4
82	82	7
24	24	11
122	122	6
41	41	17
160	160	4
11	19	1
16	18	5
13	18	2
100	101	2
27	27	11
128	146	3
19	28	3
19	30	3
43	64	2
8	9	4
101	101	5
138	138	4
17	39	1
130	148	3
94	96	1
93	93	15
159	161	1
37	39	4
42	45	4
120	120	5
156	156	5
20	28	3
42	42	7
59	150	1
129	130	3
141	145	1
56	58	3
2	7	2
5	9	1
55	55	5
15	26	3
14	30	1
102	103	2
106	106	5
173	173	10
121	155	1
169	169	5
21	23	5
103	105	1
143	144	4
52	58	1
77	77	7
64	68	2
39	40	10
96	98	2
76	76	7
16	23	1
86	86	6
18	44	3
63	63	4
151	154	4
157	163	3
26	27	1
112	115	2
66	68	3
165	166	1
24	96	3
136	136	11
158	158	1
139	163	4
73	73	5
64	64	4
40	60	2
108	109	2
21	21	2
19	23	1
2	143	1
4	15	2
25	33	1
117	117	9
68	68	3
116	146	1
56	56	2
160	163	1
79	131	1
59	65	1
76	88	2
126	130	1
166	166	6
108	148	3
37	38	4
112	113	2
49	50	1
1	1	7
5	15	1
104	106	5
36	38	2
109	113	1
101	106	1
160	161	5
54	62	1
92	102	1
116	118	3
82	86	1
2	4	3
134	135	1
4	11	1
109	129	2
24	38	1
50	51	1
89	89	2
179	179	4
147	148	3
173	178	1
110	117	1
87	87	7
115	116	3
1	7	2
52	53	3
94	107	2
20	90	1
147	151	1
29	30	2
117	118	3
68	127	1
171	172	3
27	29	3
56	65	1
59	59	3
9	44	1
10	11	1
39	140	3
154	156	2
86	88	1
68	72	1
12	23	2
21	22	3
14	35	1
143	143	3
6	7	2
7	8	2
130	130	2
95	98	4
55	56	3
17	32	1
119	120	1
29	45	2
46	150	1
171	171	5
135	135	4
23	31	2
154	154	3
76	139	2
78	135	2
65	74	1
80	82	1
3	3	4
103	147	1
24	29	1
132	132	2
5	41	2
15	16	3
1	6	1
88	89	4
0	0	4
65	66	1
97	100	1
150	178	2
74	77	1
156	157	3
113	114	2
59	71	2
105	160	1
128	129	2
162	163	1
14	15	1
11	13	1
93	100	2
7	12	4
24	26	3
148	153	1
147	147	2
51	62	1
52	60	1
106	158	2
35	41	1
126	126	3
61	73	1
62	62	1
4	30	3
176	180	1
68	82	3
22	23	1
60	60	7
15	24	1
66	66	4
168	169	2
133	138	1
175	176	1
18	31	1
141	141	1
70	71	1
32	34	2
164	169	2
54	55	2
155	155	2
19	33	1
5	7	1
141	143	1
34	40	1
162	164	1
12	32	3
18	21	1
158	162	1
133	149	2
111	112	2
137	141	1
157	164	1
8	22	1
70	70	1
24	53	1
9	10	2
11	168	1
180	180	3
39	45	1
87	89	1
88	96	2
134	137	1
4	5	2
141	161	1
73	76	1
23	24	2
64	72	2
117	126	3
106	107	1
33	39	1
3	6	2
163	163	3
94	98	1
145	149	1
13	27	1
51	52	1
145	152	1
32	57	1
44	44	4
96	121	1
170	171	1
114	114	2
68	95	1
178	178	1
107	107	2
35	36	2
134	136	1
14	16	1
23	79	1
6	35	1
74	148	1
8	26	1
135	141	1
63	66	1
34	35	2
107	110	1
59	75	1
5	14	2
85	85	3
142	154	1
175	175	1
108	153	1
142	143	2
34	34	1
129	151	1
10	12	1
118	119	1
3	5	1
126	157	1
13	20	1
11	18	1
93	106	2
23	26	1
125	155	2
132	152	1
155	160	2
17	78	1
39	41	1
31	33	2
6	10	2
41	89	1
45	46	1
119	121	1
25	34	1
150	166	1
1	37	1
10	25	1
4	42	1
103	106	1
32	55	1
3	9	1
40	42	2
2	5	2
92	123	1
145	146	1
161	174	1
141	142	1
155	156	1
21	170	1
112	114	1
40	89	1
121	128	1
93	102	1
36	37	1
67	97	1
83	88	1
105	124	1
90	106	1
31	32	2
25	31	1
110	110	1
13	30	1
153	153	1
91	92	1
135	136	1
12	27	2
89	112	1
58	137	1
128	155	1
90	98	1
