232	234	3
51	52	13
4	4	13
63	63	20
215	215	41
196	197	6
177	177	39
176	176	26
165	165	20
197	198	21
78	78	26
21	21	38
48	118	2
6	7	15
54	54	25
219	219	37
244	244	54
165	166	19
95	96	13
109	109	57
93	93	43
180	180	52
10	10	45
198	198	44
116	117	19
161	165	3
2	5	2
87	87	27
5	5	24
45	45	45
156	156	73
238	238	30
95	97	4
94	236	2
191	191	24
178	180	2
206	207	25
243	243	27
85	85	31
206	206	25
241	241	42
160	160	44
179	179	47
155	204	6
153	154	23
36	36	52
203	203	57
118	118	26
173	173	55
151	151	41
214	214	62
211	211	35
25	25	34
89	90	9
154	154	26
83	83	11
163	163	29
82	84	6
58	59	14
171	172	15
42	43	13
172	172	21
99	100	8
157	158	12
174	175	11
35	35	25
43	79	1
29	110	4
152	153	11
210	210	23
201	201	58
5	6	7
64	64	35
157	157	26
17	17	22
247	248	18
212	212	71
218	219	16
12	15	9
14	14	46
45	46	12
19	19	49
175	175	61
2	2	16
238	240	5
39	47	6
227	227	21
55	55	31
71	71	44
150	153	2
94	94	35
231	231	18
152	210	1
199	199	27
165	182	2
53	53	27
108	108	23
76	77	12
58	81	3
46	46	45
185	186	9
107	107	24
206	246	1
146	147	8
179	181	7
159	160	12
114	114	11
117	117	26
92	93	10
241	248	3
40	114	3
190	190	19
217	218	14
91	91	23
61	61	19
196	196	14
161	161	42
216	223	6
150	150	67
1	1	19
12	12	15
145	145	16
154	155	5
201	204	3
77	77	32
30	34	3
185	185	55
183	184	5
31	31	15
61	63	12
59	59	35
22	22	19
240	240	34
191	192	15
31	32	16
220	220	29
72	72	31
112	112	37
222	230	2
106	108	4
186	187	4
224	224	21
71	74	5
247	247	26
2	4	3
102	102	29
209	209	65
202	223	5
68	69	8
160	166	4
110	110	70
91	96	4
6	6	47
43	43	31
34	34	39
237	237	42
80	86	2
51	51	29
216	248	2
37	38	23
190	191	5
89	95	5
49	49	19
202	202	42
26	27	8
146	149	2
144	144	11
239	240	18
82	82	27
14	68	3
237	238	7
67	68	2
171	194	2
232	233	7
72	73	11
15	15	24
108	109	5
58	101	1
46	47	8
22	51	1
76	80	7
55	57	7
212	240	2
172	207	3
90	90	20
168	168	37
214	215	15
245	245	40
212	213	11
176	177	12
229	229	27
183	183	40
212	236	1
153	174	7
66	67	16
75	76	11
36	37	16
16	25	1
60	60	27
85	86	6
178	178	46
68	70	4
33	34	13
37	39	10
88	88	28
240	247	3
41	41	36
57	57	18
84	84	39
113	114	18
15	112	1
75	75	23
40	40	26
38	39	13
15	52	3
155	155	57
152	189	2
216	216	25
27	28	7
16	16	36
73	73	26
172	173	13
105	105	24
4	241	3
174	174	26
50	50	46
192	192	42
33	33	20
184	184	37
170	171	13
238	241	2
87	95	3
58	58	24
80	80	21
81	81	20
213	213	37
202	203	12
100	100	13
89	89	34
7	7	42
233	233	32
70	70	23
248	248	18
106	106	8
96	98	5
226	227	15
194	194	28
244	246	3
9	9	31
62	62	26
74	74	15
23	23	29
65	65	40
207	208	9
102	106	3
181	182	14
194	195	16
1	2	2
203	204	21
18	111	4
20	20	40
111	244	3
27	27	27
42	42	26
167	170	13
234	234	39
54	56	4
171	198	3
2	150	1
195	195	16
46	113	4
47	48	8
47	47	18
98	99	17
167	167	45
65	236	3
111	112	20
242	243	12
160	172	1
119	119	44
48	48	29
28	28	20
236	236	40
8	30	4
168	207	4
170	176	2
232	232	32
34	37	1
193	193	32
231	235	4
166	166	39
218	240	1
217	235	2
145	153	6
116	119	3
71	72	10
219	220	6
216	217	9
32	32	37
193	194	13
152	152	28
11	29	2
181	183	4
231	232	16
20	22	4
86	86	35
211	212	19
32	34	1
184	249	2
242	242	25
21	41	6
108	115	3
204	207	4
56	61	2
29	29	27
18	37	2
52	52	30
182	182	32
95	108	7
200	200	40
34	36	4
91	115	7
246	246	28
222	222	32
213	219	8
175	176	31
181	181	35
241	242	13
54	63	3
99	99	19
213	214	17
71	73	1
161	162	10
171	224	3
152	205	2
37	37	32
178	213	6
215	216	10
221	221	41
64	66	5
68	68	39
48	49	10
196	199	3
172	225	2
187	187	26
230	231	4
41	42	2
223	225	8
218	231	2
172	218	2
51	61	3
64	90	3
92	92	27
78	79	11
213	233	3
239	239	34
157	160	9
221	223	9
181	217	10
236	241	3
21	22	4
26	26	29
97	97	22
216	219	1
198	207	4
186	212	5
76	76	13
16	219	1
24	24	23
7	15	5
235	236	11
4	236	2
192	197	1
116	116	30
20	46	1
100	101	10
97	99	5
170	174	2
225	225	35
194	196	6
118	119	20
220	222	4
71	101	1
42	69	6
208	219	4
36	38	3
162	162	48
104	105	6
197	197	41
16	233	10
3	3	13
235	235	37
185	193	1
199	201	4
158	169	5
111	111	29
76	78	6
169	169	49
91	92	10
22	24	5
110	111	9
80	81	10
237	241	5
34	35	17
199	200	17
109	110	9
168	169	30
95	95	33
114	115	6
154	186	3
102	108	3
164	164	39
198	199	6
204	204	45
104	104	12
230	235	2
160	161	14
31	36	5
207	207	51
7	8	11
220	225	2
34	60	4
165	169	6
177	244	2
11	11	25
240	242	2
153	157	3
222	223	16
169	170	9
175	193	2
153	153	48
157	182	4
56	56	31
230	230	27
214	242	4
36	49	1
220	226	2
164	165	13
205	205	40
40	48	1
239	247	6
23	38	1
208	208	32
3	18	5
112	117	4
21	23	2
112	158	3
231	234	7
101	101	27
210	225	5
226	226	31
16	17	1
177	181	6
197	224	4
213	215	3
108	110	7
186	186	22
178	208	1
42	59	1
147	147	26
43	220	4
82	90	3
48	108	7
3	11	3
58	60	6
13	14	6
218	220	7
47	55	1
245	246	26
10	204	1
162	163	10
57	58	17
105	215	4
13	67	2
121	151	1
231	244	5
96	96	27
115	115	33
160	165	6
117	118	8
3	39	6
69	69	28
173	192	1
0	9	1
56	73	5
220	221	6
50	62	2
199	229	2
193	198	3
59	60	19
57	60	9
217	217	28
179	220	1
159	159	28
94	95	3
228	228	21
186	198	4
95	117	1
50	74	2
56	58	6
182	183	16
204	205	7
178	190	2
180	182	8
237	239	7
210	248	1
171	171	28
39	42	2
150	151	9
72	74	4
205	207	3
244	245	8
218	218	37
177	178	6
52	161	1
39	39	17
33	47	2
40	46	1
203	229	4
66	66	32
113	113	33
53	67	1
107	108	4
44	44	44
74	75	7
221	222	7
157	225	4
120	120	10
181	185	3
225	226	15
18	19	8
183	186	1
105	107	7
160	183	2
229	230	7
155	156	2
187	193	4
21	37	6
223	239	2
38	38	28
180	218	2
160	164	3
184	237	1
59	61	1
172	192	3
33	36	3
15	19	3
63	64	7
236	237	14
200	201	5
31	33	1
53	59	3
159	163	6
39	41	1
193	197	1
234	235	8
195	197	1
93	94	7
169	204	2
165	170	6
197	199	5
225	247	2
115	116	15
33	55	3
233	245	2
58	79	5
180	181	8
240	241	4
20	21	8
96	97	5
188	195	3
67	67	22
30	30	33
159	239	2
60	63	1
209	210	14
119	120	13
43	44	8
102	118	4
26	28	2
228	229	11
170	170	26
4	10	3
98	98	22
151	181	3
79	79	12
111	237	2
44	46	5
19	20	4
224	226	10
233	235	4
195	196	7
51	182	2
187	188	15
188	189	21
38	241	2
112	114	5
223	223	20
216	232	1
53	70	1
91	93	6
150	186	3
234	237	3
43	94	4
28	29	11
156	157	4
9	10	3
76	79	3
82	89	3
15	16	8
189	190	6
184	185	7
69	70	4
158	214	5
158	158	25
51	69	3
40	41	11
174	217	5
75	77	3
109	245	2
109	246	2
23	25	1
165	213	3
166	168	2
55	56	22
7	45	1
63	66	1
87	88	8
158	159	10
51	90	3
39	240	1
90	102	3
51	54	6
57	59	2
193	196	8
61	71	6
83	84	3
173	208	2
89	97	2
173	174	12
78	88	2
81	85	2
212	218	1
166	196	2
13	15	6
229	231	3
18	18	11
174	179	10
176	181	1
37	47	1
219	237	1
8	8	37
210	211	17
205	206	10
179	180	11
238	239	23
166	167	18
172	195	1
111	117	4
107	113	1
11	109	3
53	58	4
74	88	8
13	66	1
101	102	11
233	234	7
188	188	13
30	31	9
227	228	8
65	69	6
97	117	2
167	206	2
97	98	5
176	178	5
207	213	4
163	166	1
209	244	2
47	59	3
162	189	1
36	90	2
80	88	1
160	239	3
4	5	11
189	189	27
15	17	5
236	242	2
185	222	3
40	47	1
56	57	3
53	56	4
42	65	1
249	249	6
196	198	4
149	153	5
187	192	2
85	114	2
243	245	4
227	244	3
145	194	1
69	88	2
191	196	1
52	176	2
68	71	2
51	55	1
42	62	1
54	55	8
111	246	3
61	195	3
170	175	2
208	209	17
224	247	1
187	190	4
68	113	3
151	154	3
63	93	5
110	112	9
64	65	5
44	45	8
175	177	6
96	100	5
52	61	2
39	67	4
99	172	2
198	200	3
164	179	1
156	191	3
180	208	2
23	24	10
77	106	4
103	108	2
163	165	14
61	65	1
157	189	2
59	64	1
64	67	4
212	229	4
97	107	3
209	213	4
167	168	3
115	117	3
171	215	2
146	146	9
218	242	1
170	190	1
20	42	2
180	217	2
215	244	1
200	208	1
99	101	2
212	230	6
59	80	1
28	46	3
170	185	1
37	241	3
187	216	5
15	44	4
181	208	2
220	223	4
237	247	7
200	220	5
172	174	2
60	66	1
25	27	5
47	236	2
22	23	6
151	186	3
213	220	1
16	113	6
94	119	1
8	99	1
10	11	9
105	106	7
198	209	3
82	106	2
201	202	12
248	249	4
84	149	1
112	198	1
173	175	3
22	38	1
177	216	2
5	100	1
59	94	1
76	118	3
102	104	2
156	167	2
79	85	1
201	230	3
202	245	3
220	243	3
90	91	6
25	26	7
153	186	2
185	215	1
152	154	7
169	171	2
167	169	6
224	225	8
213	218	2
84	85	6
79	82	1
82	96	3
78	98	2
212	246	1
151	153	4
35	36	10
108	118	5
88	103	1
171	210	1
4	240	1
235	240	2
175	210	4
12	248	3
171	173	6
112	244	5
79	88	4
68	91	3
64	219	2
166	171	3
182	191	1
27	235	7
209	212	2
205	209	4
70	74	1
94	101	2
149	150	6
53	60	2
190	196	6
216	249	1
158	182	3
164	174	2
168	191	1
200	202	3
53	55	4
33	84	3
107	116	2
204	206	10
39	46	2
170	181	2
86	87	6
50	72	1
116	187	2
69	71	6
158	172	3
210	244	2
172	178	2
92	110	2
115	188	1
186	190	1
166	213	2
82	104	1
33	40	1
59	75	1
204	208	6
30	32	1
71	77	1
165	181	4
31	51	1
172	184	10
60	61	11
39	40	6
48	66	4
95	111	4
49	71	1
74	117	1
16	38	3
175	211	1
158	167	4
149	241	1
19	27	5
9	54	2
98	114	3
62	63	4
111	113	3
36	51	2
76	106	4
115	120	3
3	5	4
19	23	2
65	66	6
110	145	2
117	119	5
120	121	2
80	106	2
161	204	2
183	213	4
37	42	1
222	226	2
98	107	2
200	209	1
7	10	5
174	176	2
174	183	2
88	176	1
16	31	2
111	115	2
51	195	1
243	244	16
214	218	1
210	215	1
71	83	3
173	179	3
246	247	9
33	38	1
37	40	3
24	25	7
112	113	9
18	20	6
54	80	2
215	243	1
106	107	8
69	177	1
40	45	4
157	159	3
167	212	4
187	191	4
7	46	1
81	111	2
42	44	2
224	244	2
60	62	3
57	245	1
65	145	1
74	119	2
107	227	2
46	48	3
29	32	5
192	193	4
52	53	4
44	54	2
73	75	2
24	28	1
12	16	1
53	54	8
200	234	2
178	179	6
186	229	2
26	42	3
156	168	1
87	105	2
158	186	2
177	189	1
86	89	2
91	104	1
161	166	2
165	214	4
177	191	1
156	160	1
214	221	1
175	180	2
232	245	1
187	234	2
39	78	1
55	94	1
43	62	1
169	229	1
185	187	1
187	189	6
189	191	3
42	111	1
87	89	1
50	106	2
23	39	2
149	149	3
208	244	2
112	151	1
106	109	3
22	27	1
45	73	2
115	237	1
163	164	4
166	215	2
17	32	2
118	120	1
204	209	4
180	185	5
103	201	1
95	98	1
120	163	3
207	220	1
9	11	5
120	144	6
64	68	1
207	225	2
67	69	3
79	81	1
8	9	4
174	211	3
168	198	6
63	65	4
191	193	1
146	152	1
121	121	6
207	209	3
4	11	3
61	62	6
59	71	1
185	197	2
52	54	3
182	188	3
90	101	2
16	93	2
178	196	1
119	156	3
231	233	5
93	95	2
3	4	5
60	71	2
157	214	3
177	180	3
233	246	2
58	64	1
16	36	2
67	91	3
157	167	4
14	15	9
202	230	2
172	183	1
89	91	4
211	216	2
177	182	1
151	152	5
170	187	2
89	108	2
30	36	4
55	73	2
182	217	3
187	197	2
92	219	2
158	173	2
108	236	3
190	203	2
73	74	3
79	80	5
241	243	2
162	196	1
57	61	1
157	230	3
29	30	2
89	107	1
186	193	5
156	166	1
154	157	2
51	191	1
184	213	4
167	205	3
108	111	1
202	221	2
225	239	3
157	186	1
43	72	1
58	65	1
190	192	3
156	158	1
167	200	3
37	78	4
222	224	3
171	180	2
193	208	1
10	27	1
68	77	1
27	29	2
236	239	2
60	75	2
36	95	2
99	104	2
38	47	4
120	145	3
34	47	2
215	233	1
77	78	4
76	85	2
103	103	8
190	195	1
100	104	1
39	244	3
52	63	1
76	90	2
34	48	2
217	231	4
78	108	3
219	222	2
226	229	2
210	212	3
57	64	1
184	198	2
179	212	1
6	12	2
111	245	4
179	201	1
112	118	2
75	81	1
156	161	4
163	168	2
80	101	1
218	243	1
212	214	1
79	92	1
37	46	1
46	109	2
216	236	2
34	101	3
89	116	1
187	195	4
82	83	2
167	192	4
245	247	4
26	45	1
47	66	1
78	91	7
75	115	1
179	230	1
17	20	3
108	112	4
17	19	1
151	225	1
152	206	2
0	1	3
171	209	2
37	80	3
169	200	1
175	181	1
205	222	4
159	167	2
183	197	3
62	221	1
166	208	1
167	194	1
30	47	1
174	181	1
167	207	3
151	168	3
13	68	2
184	187	1
186	191	1
18	39	2
162	184	1
171	182	2
88	89	6
81	102	1
107	118	2
62	65	2
165	171	2
44	69	2
17	18	3
156	197	1
180	183	4
69	91	2
164	193	1
71	75	3
20	23	5
108	207	1
157	174	2
156	221	1
48	119	2
60	65	2
180	198	1
38	78	1
17	101	3
149	152	1
33	244	1
69	90	2
43	46	2
186	213	5
172	181	1
158	211	1
165	193	4
186	197	2
68	104	2
114	117	2
176	239	4
78	93	4
195	198	1
183	193	1
43	104	1
200	204	2
239	241	2
26	235	1
4	238	2
16	28	1
167	182	2
173	217	1
175	191	2
64	69	1
0	0	1
166	170	6
62	74	1
167	171	3
192	216	2
73	77	1
160	163	2
23	36	3
184	215	2
207	211	1
110	236	1
15	109	1
50	119	1
216	222	1
21	36	1
50	52	3
75	88	2
175	197	1
28	31	1
95	101	2
60	77	1
9	24	1
163	181	1
8	32	1
194	199	2
86	97	1
80	94	2
211	228	2
184	192	3
66	85	3
7	9	1
90	94	2
102	172	4
215	217	3
7	11	2
9	18	1
175	214	1
116	118	2
165	208	2
167	197	2
223	227	1
102	103	5
157	197	2
149	203	1
62	66	2
148	182	2
92	101	1
169	180	1
197	200	1
81	84	3
112	116	1
82	105	2
78	96	2
64	76	3
31	117	3
44	199	1
175	196	2
218	223	2
199	209	2
215	219	1
159	164	3
48	58	1
184	224	1
178	184	3
66	68	1
78	220	3
50	61	1
114	181	2
209	241	1
28	44	1
196	215	1
3	6	3
236	240	2
210	238	2
166	210	1
156	192	2
152	204	1
25	229	2
51	67	2
45	109	1
153	205	4
49	57	2
178	185	2
36	39	1
62	88	4
162	165	1
68	78	1
57	90	2
33	96	1
211	230	1
214	244	2
32	35	2
21	26	2
14	112	1
47	178	2
79	90	1
72	77	1
180	224	1
24	42	1
81	87	1
207	224	3
65	68	1
32	33	1
167	195	1
177	217	3
159	215	2
8	11	2
2	226	2
162	185	2
81	83	1
171	225	1
69	78	4
210	230	2
158	164	3
6	8	3
78	90	1
212	228	3
173	234	1
202	204	1
181	214	3
35	82	1
77	84	2
34	38	2
61	67	1
183	188	1
74	90	1
47	49	1
240	244	1
50	54	1
48	59	2
5	9	1
240	248	1
52	73	2
197	207	2
180	230	1
17	27	1
19	44	1
110	246	2
80	83	2
193	195	3
160	182	1
24	27	1
35	96	2
147	158	5
15	39	1
35	37	5
171	174	2
95	99	1
49	61	1
38	63	2
82	99	1
56	77	1
183	190	1
51	68	2
218	233	3
79	83	1
202	205	1
101	104	1
18	23	1
2	3	1
217	219	1
97	108	1
182	208	2
232	236	1
9	31	1
1	16	1
152	159	2
50	60	1
110	245	1
24	26	3
115	119	5
109	236	1
50	51	1
237	240	1
41	59	1
173	207	1
107	115	4
57	82	2
159	216	2
184	195	4
92	145	1
32	54	2
70	177	1
145	155	1
77	119	1
157	183	1
78	85	2
203	227	2
179	224	1
21	31	1
38	40	3
154	185	1
18	44	1
145	156	1
85	91	1
49	101	1
219	246	2
212	227	1
78	95	2
174	186	3
156	209	1
34	50	1
157	165	2
174	208	1
64	70	1
11	12	1
33	35	2
184	214	1
103	104	1
98	103	3
159	162	1
69	99	1
155	205	1
91	95	1
220	241	1
204	212	1
67	115	1
46	95	2
211	215	1
42	68	2
202	225	1
202	228	1
225	229	1
33	59	1
14	59	1
38	45	1
0	10	2
168	170	1
158	160	1
52	116	1
33	57	1
228	240	1
65	219	1
48	75	1
65	70	1
173	196	1
151	234	1
216	218	2
218	237	1
145	147	1
239	245	2
110	237	1
184	197	2
208	243	1
53	71	2
176	200	1
176	210	1
180	229	1
10	153	1
201	244	1
207	229	1
85	168	4
82	85	1
68	178	1
238	247	1
17	100	1
117	244	1
223	226	1
119	160	1
171	190	1
48	50	1
212	233	1
172	180	1
166	209	1
19	206	1
157	168	1
192	194	1
70	77	1
66	71	1
100	247	1
48	103	2
168	230	1
175	209	1
38	55	2
203	206	1
165	179	1
19	45	1
241	244	2
12	14	1
88	90	1
206	229	1
5	10	1
213	236	1
43	88	1
216	241	1
112	243	1
177	240	1
11	26	1
78	84	1
54	64	1
208	216	1
51	92	1
5	14	1
153	173	1
43	45	1
184	208	1
179	190	1
96	99	1
171	187	1
14	236	1
167	203	1
120	151	1
218	244	1
180	194	1
74	101	1
192	196	1
92	115	1
40	94	1
70	97	1
35	51	1
159	168	1
