95	95	17
5	34	2
1	1	15
73	73	12
52	52	29
45	45	12
0	16	6
29	29	9
78	79	12
132	132	15
46	47	6
29	30	5
129	129	11
59	59	10
92	92	5
75	77	10
16	18	2
105	106	6
77	77	16
127	128	1
130	130	10
72	72	9
69	69	20
103	129	1
67	68	9
57	57	18
118	118	12
67	67	12
21	21	12
41	41	24
127	127	10
74	74	10
2	2	13
119	119	15
44	44	3
76	76	14
122	122	11
126	126	14
64	64	9
9	11	6
56	56	12
58	58	5
107	112	1
13	14	3
0	0	17
79	79	15
48	48	19
61	61	5
22	23	1
53	53	9
123	123	7
96	97	2
20	20	10
122	123	2
103	114	2
81	83	1
108	108	9
48	69	3
89	89	4
94	94	7
125	125	15
70	70	11
85	85	8
88	91	3
66	113	1
113	113	11
9	10	4
133	133	4
102	103	4
111	111	14
27	27	6
126	130	2
109	109	11
100	100	14
2	127	1
82	82	6
67	128	2
39	40	8
78	78	9
55	55	7
49	49	19
3	3	5
71	80	1
127	129	4
50	50	12
99	100	5
3	14	3
42	42	18
22	24	1
80	82	2
16	17	9
54	54	17
7	48	1
33	33	11
87	87	11
23	23	9
46	46	12
15	15	14
18	19	5
6	49	2
7	7	13
63	63	4
54	55	5
30	30	19
67	101	1
33	34	5
98	98	13
49	123	1
45	131	1
32	32	19
74	78	2
6	6	5
131	131	11
124	124	18
17	18	2
76	95	3
26	28	4
104	104	12
91	92	2
86	87	3
26	26	4
13	13	8
99	99	12
102	102	7
58	62	2
104	105	5
33	100	1
60	60	9
3	34	2
51	51	16
87	130	3
91	91	14
24	24	11
67	115	3
39	50	1
4	4	10
114	114	10
105	105	5
20	26	1
47	48	5
28	31	3
27	29	3
79	108	1
31	31	13
18	18	9
20	66	1
117	117	6
19	21	4
84	84	10
22	22	1
80	80	15
39	54	2
28	28	9
50	53	2
44	79	1
38	39	7
10	11	4
14	23	1
44	45	5
39	39	11
101	101	11
58	103	4
32	33	1
107	107	3
62	76	2
75	75	4
51	52	11
106	112	4
58	77	4
12	70	1
81	81	8
39	46	1
47	47	11
104	112	3
0	96	4
112	112	5
25	27	5
40	40	7
100	117	3
8	8	4
121	121	21
110	111	4
0	64	2
27	28	4
23	24	6
93	93	6
110	110	11
104	107	4
57	58	3
43	43	7
25	25	12
88	88	6
44	76	2
2	96	2
1	13	3
83	83	12
11	12	1
128	128	4
116	116	16
94	95	1
123	124	7
12	12	5
119	126	2
119	120	4
53	121	1
2	98	6
62	62	9
85	86	7
52	53	2
47	61	4
104	106	4
94	96	1
38	38	8
70	88	3
66	72	2
65	65	6
99	108	1
8	9	5
68	68	2
73	78	2
44	65	2
14	14	9
50	51	4
95	104	2
71	71	13
10	10	6
115	116	3
6	7	4
17	17	15
45	83	3
83	84	4
113	117	3
90	90	9
109	110	5
97	99	1
26	27	3
99	126	2
65	66	7
0	90	1
62	93	3
48	54	2
103	103	5
107	108	4
5	5	3
66	66	6
68	98	3
108	109	4
1	27	1
34	34	5
60	86	1
1	95	2
19	19	4
118	125	1
20	22	2
40	47	2
101	102	2
79	102	1
127	130	4
130	132	1
113	114	1
2	16	1
39	55	2
86	86	7
49	50	3
3	54	1
28	29	1
64	65	1
120	120	5
8	54	1
121	122	3
16	16	4
117	124	2
117	125	1
80	81	4
129	133	2
111	112	6
88	89	3
126	127	6
109	123	1
62	72	2
64	93	3
101	107	2
107	109	1
6	31	3
96	96	10
43	76	2
4	113	1
80	101	1
89	91	2
125	128	2
114	116	1
23	29	2
85	89	3
85	87	1
118	119	6
48	122	2
79	83	5
14	63	2
124	125	5
44	50	2
29	88	1
60	61	5
38	45	1
68	69	5
106	107	3
120	122	4
5	7	2
2	5	2
83	89	1
79	109	3
42	44	1
70	71	2
106	106	4
97	97	7
42	43	4
3	4	2
38	97	2
75	76	1
2	3	1
73	74	4
111	119	1
41	83	2
15	22	2
4	72	2
15	23	1
15	20	1
75	78	1
13	27	1
4	23	1
4	74	1
86	88	3
66	77	2
125	126	1
4	6	1
59	75	1
66	84	2
43	44	3
110	121	2
50	58	1
63	69	5
97	127	1
25	76	4
3	5	2
56	58	1
11	11	5
105	120	1
31	120	2
22	43	3
118	120	3
20	88	3
97	98	4
61	75	2
34	100	1
45	46	6
96	102	1
99	125	3
45	47	1
19	41	2
67	77	1
22	88	2
14	15	1
74	75	2
46	124	2
117	119	2
55	79	2
79	96	1
1	125	1
68	88	2
7	68	1
132	133	3
126	128	2
87	88	2
79	80	1
84	86	1
38	77	2
4	40	1
61	83	1
68	126	1
77	96	1
66	69	2
128	130	3
24	25	2
116	118	1
103	104	1
4	41	1
59	61	1
74	79	1
54	62	2
53	54	2
120	132	1
44	118	1
26	109	1
90	91	4
26	29	1
16	19	3
17	43	1
12	92	1
110	113	1
82	127	2
20	21	3
45	54	1
11	58	1
125	131	2
124	130	1
72	73	1
87	89	2
31	32	2
83	85	2
9	9	2
67	98	1
8	12	2
44	68	2
129	130	1
55	56	1
39	47	1
6	8	1
40	46	2
38	116	2
76	82	1
25	87	1
13	25	1
80	132	1
13	20	1
61	62	2
61	76	1
8	28	1
60	78	1
125	127	2
59	60	2
0	95	1
72	103	1
90	96	1
97	118	1
58	94	1
128	129	2
98	100	1
120	125	1
114	127	1
99	107	1
102	129	3
60	76	1
112	115	1
62	65	1
58	63	1
98	103	1
63	66	1
99	104	1
92	99	1
63	72	1
0	9	1
77	78	1
112	113	1
87	90	1
126	129	3
82	125	1
81	82	1
1	2	1
62	84	1
60	62	1
100	101	1
17	23	1
39	69	2
21	107	1
15	33	1
11	90	1
11	71	1
89	90	1
21	23	1
5	99	1
108	129	1
