45	45	11
64	64	7
128	128	6
44	59	1
0	0	5
72	72	7
126	126	5
17	66	2
88	89	5
15	16	3
9	9	12
105	105	6
125	125	5
95	96	3
118	120	1
127	129	5
103	103	5
115	115	12
127	127	7
31	31	5
1	1	16
123	124	3
26	26	3
20	21	4
23	23	10
110	110	9
83	84	2
51	52	2
73	73	7
66	66	2
90	92	3
62	106	2
18	90	1
22	24	4
13	14	1
130	131	6
124	124	4
48	48	16
14	14	6
107	107	6
30	30	3
123	123	13
55	55	12
86	86	5
20	20	7
66	67	6
26	64	2
51	105	1
33	68	1
25	25	6
37	52	1
105	106	5
81	81	13
52	52	8
53	53	9
114	115	1
25	29	8
9	14	3
65	66	3
75	100	3
116	116	6
40	41	4
109	109	8
125	126	4
76	121	2
86	87	6
126	128	2
82	90	2
119	120	1
90	90	7
47	47	14
90	91	3
111	111	14
49	49	21
80	84	3
47	48	3
4	16	3
32	67	1
44	44	8
2	2	6
101	102	4
131	131	7
70	70	5
96	96	10
19	19	11
21	21	6
130	130	6
119	119	14
118	118	11
21	24	3
21	22	4
131	132	4
49	53	2
93	93	1
95	95	6
108	119	2
76	76	15
29	30	8
69	69	9
108	124	4
59	59	4
4	4	3
104	114	6
121	121	9
132	132	15
87	114	2
50	51	4
64	113	2
65	65	6
81	85	2
3	3	5
80	80	10
105	131	2
77	77	4
50	50	12
106	106	13
116	117	7
117	119	3
60	60	3
51	51	4
41	43	2
67	67	6
75	76	2
104	104	7
49	71	3
61	61	5
11	14	5
58	59	8
18	18	12
101	101	4
91	91	17
87	87	8
12	12	12
75	75	5
23	117	5
84	84	2
16	22	2
77	83	1
17	17	8
78	78	8
40	40	4
78	97	1
96	107	2
71	71	6
114	117	3
13	111	2
39	39	12
58	62	3
113	125	3
49	106	3
17	19	2
64	67	1
79	82	1
32	32	7
92	92	6
48	125	2
33	34	3
34	34	3
68	68	3
3	4	2
77	78	5
124	125	2
46	46	4
59	60	1
38	38	4
53	92	2
13	21	2
57	57	9
108	109	9
69	70	7
33	33	5
16	17	1
120	120	9
75	80	4
100	118	1
96	97	2
4	28	2
1	40	2
5	8	3
53	70	4
96	103	2
112	112	2
27	32	1
97	100	3
92	129	3
89	95	3
122	122	5
72	74	2
129	130	3
88	88	6
26	27	1
56	56	12
67	68	3
28	28	5
98	98	8
94	94	4
49	65	1
54	55	2
98	102	1
86	94	2
11	11	11
102	102	11
59	62	2
0	123	4
6	26	5
83	87	3
106	115	1
80	81	2
5	43	4
23	28	1
91	93	4
87	122	1
55	56	3
93	94	4
114	114	5
13	13	3
58	58	9
107	108	4
19	21	2
94	95	3
63	63	4
12	14	3
108	116	1
67	71	1
9	116	1
13	119	1
67	75	3
83	83	5
85	85	4
10	12	2
128	129	1
46	47	6
52	53	3
54	54	19
126	129	1
133	133	2
65	73	2
113	114	2
108	129	3
118	123	1
13	33	2
34	37	1
85	88	3
91	92	2
104	105	3
25	47	2
68	124	1
111	112	2
10	19	1
45	78	2
108	108	4
76	77	4
112	124	1
18	65	2
5	22	2
24	24	4
58	60	1
61	63	3
63	87	1
99	99	5
12	13	1
90	131	1
69	121	2
5	5	3
11	12	4
29	29	4
37	38	1
69	74	1
81	90	2
79	79	2
39	44	2
41	41	2
104	126	2
5	9	2
10	10	3
60	61	2
88	92	2
75	77	1
33	67	2
74	97	3
15	90	1
16	16	6
8	9	2
41	42	1
62	62	1
117	117	5
22	95	2
61	74	2
119	129	1
100	100	2
78	81	1
70	71	2
55	101	1
25	26	1
85	86	2
69	71	1
16	26	3
58	106	2
86	95	1
77	102	1
78	82	1
26	69	1
13	118	1
66	89	1
60	79	1
49	50	2
88	119	1
102	103	5
42	43	4
89	104	2
16	18	1
85	96	2
110	111	3
125	127	2
50	53	1
10	108	1
120	121	1
31	32	2
66	68	2
48	81	1
30	31	3
99	119	2
6	6	3
114	128	1
2	3	1
79	80	1
63	64	1
60	65	2
97	97	2
91	95	2
82	82	1
107	118	1
28	29	1
78	115	1
42	64	2
42	44	3
38	101	1
118	119	2
21	79	1
14	15	2
55	125	1
97	98	1
100	101	1
43	45	1
8	8	1
93	132	1
8	71	2
18	39	1
26	63	1
17	31	1
87	88	1
42	42	2
28	66	1
1	3	2
65	78	1
55	72	1
92	93	1
109	110	1
112	126	1
9	52	1
120	123	1
1	2	1
13	32	1
17	131	1
0	7	1
15	15	1
22	34	1
115	117	1
19	20	2
87	119	1
34	44	1
22	45	1
44	46	1
11	52	1
59	61	1
48	49	1
9	105	1
98	126	1
