94	95	3
114	114	11
121	122	20
137	137	11
114	115	5
89	89	18
84	85	4
3	3	18
134	134	21
27	27	22
79	80	3
97	97	8
132	132	23
129	129	12
36	36	12
96	96	7
93	128	2
19	19	12
112	112	12
32	33	4
35	36	4
136	136	8
125	125	18
130	130	24
118	121	3
138	139	4
30	30	2
29	29	3
133	133	12
5	5	20
16	16	4
90	90	15
2	9	2
83	84	3
128	129	10
118	119	2
117	118	3
95	95	6
4	4	2
35	35	11
21	21	11
116	124	1
78	78	5
97	98	7
4	6	5
98	98	14
116	117	6
110	110	3
124	124	24
85	85	7
9	11	1
127	127	11
80	81	7
117	117	18
86	87	1
122	123	9
88	89	4
2	2	12
122	122	9
7	7	9
31	32	3
115	116	8
75	75	17
20	22	3
106	106	8
71	71	5
110	111	11
33	89	3
6	15	1
15	15	10
83	83	6
101	101	5
131	131	17
120	123	1
81	91	3
0	37	2
8	10	4
124	125	8
1	3	1
8	9	6
32	32	17
111	123	3
128	132	2
73	73	16
92	95	3
37	37	4
20	81	3
6	6	9
72	72	4
106	107	5
136	137	2
107	108	3
93	93	10
80	80	7
139	139	6
20	21	5
72	79	1
10	12	3
100	101	5
18	19	2
15	16	4
91	91	8
20	20	24
33	33	17
92	92	11
128	128	11
113	127	1
10	11	2
123	123	20
124	126	2
109	109	16
138	138	14
9	9	6
87	87	7
38	38	5
34	34	16
7	8	5
100	100	14
102	103	8
101	112	5
24	24	4
8	15	1
113	113	7
3	4	5
19	20	1
29	33	1
75	101	1
126	126	13
22	26	2
12	12	7
133	135	2
82	82	5
135	135	8
123	124	4
113	114	1
74	75	5
13	14	3
131	132	3
72	73	2
94	94	9
116	116	13
126	127	3
140	140	20
89	90	6
104	105	4
119	119	1
92	126	1
34	35	9
105	105	8
10	10	8
130	132	2
137	139	4
16	30	5
24	25	1
12	13	3
118	118	6
108	108	11
101	102	5
103	104	2
18	18	9
21	26	2
111	111	7
88	108	4
99	99	5
95	97	6
94	101	4
74	74	5
11	12	4
2	122	1
8	8	12
121	121	4
115	127	2
13	13	3
91	92	4
9	10	4
19	76	2
29	30	7
1	1	6
86	112	3
37	38	4
115	115	12
37	80	1
21	33	2
96	99	4
88	88	9
105	107	1
120	120	10
104	106	1
7	31	1
76	76	5
81	85	5
99	112	2
135	136	2
27	28	5
134	135	9
129	134	3
113	128	1
76	77	2
117	125	1
102	102	5
73	74	3
84	103	1
21	30	1
120	121	1
139	140	3
83	85	3
26	26	10
30	32	1
125	128	1
112	119	4
116	128	1
77	77	5
24	26	1
104	107	2
94	103	1
17	17	4
84	84	4
107	107	5
37	88	1
120	122	3
98	99	2
85	123	1
104	104	2
90	95	4
2	3	2
129	130	4
25	86	1
28	28	9
25	25	1
93	94	3
78	79	8
105	106	1
13	15	1
21	32	1
0	0	4
11	11	5
35	95	1
23	25	1
129	133	2
13	19	5
128	130	1
125	126	5
4	5	2
133	134	4
112	128	1
23	26	2
22	22	3
83	104	1
24	29	2
71	86	3
24	30	1
132	133	3
111	112	3
18	20	2
79	79	6
21	34	1
120	124	2
103	103	8
86	88	3
8	12	2
81	81	7
23	24	3
27	31	2
127	128	2
30	31	1
9	17	1
71	84	1
31	31	3
17	28	1
14	15	3
81	82	1
77	78	3
7	10	1
83	109	1
128	136	2
130	131	4
3	7	2
14	42	4
75	76	3
21	89	1
78	80	2
6	17	1
8	16	2
106	108	1
97	111	2
33	34	3
10	13	1
78	82	1
121	123	2
0	38	2
95	96	1
88	91	2
107	116	2
92	98	2
97	99	1
92	129	1
14	17	1
12	14	1
3	11	1
96	104	1
27	29	1
98	120	1
20	29	1
25	26	1
98	128	1
28	29	1
2	4	1
81	90	2
88	132	1
127	137	2
22	23	1
85	86	3
5	6	2
17	19	1
14	14	1
86	86	2
26	32	1
23	23	1
78	93	2
83	105	1
87	88	1
85	88	1
73	75	1
1	2	1
7	9	1
28	32	1
109	122	1
