150	158	4
122	122	6
35	42	2
10	10	13
4	7	6
75	107	3
176	176	9
95	95	3
151	160	1
154	154	6
119	140	3
105	105	8
75	76	2
17	17	6
170	171	4
40	40	9
112	113	4
13	15	2
115	115	15
9	10	4
68	68	3
77	94	1
14	14	18
30	30	10
36	36	7
144	144	8
13	13	14
19	19	18
92	93	2
29	29	13
155	155	5
12	13	12
38	38	19
160	161	7
143	145	4
2	2	11
96	97	1
67	72	4
37	70	1
148	148	6
122	125	3
57	57	8
4	13	3
130	130	10
23	23	22
109	109	3
15	15	8
25	26	4
54	54	10
116	116	2
60	60	19
66	66	7
7	7	18
16	21	2
113	113	6
149	149	8
44	44	13
84	84	10
172	172	3
158	158	6
26	31	2
71	71	6
60	61	7
163	173	6
18	18	9
163	163	11
44	45	2
11	11	25
165	165	2
2	12	4
14	16	5
144	145	4
5	5	18
26	29	3
42	42	15
87	87	18
14	15	5
86	86	6
123	123	2
168	170	2
135	136	3
4	4	7
38	39	1
107	109	5
7	8	5
173	173	1
46	46	5
11	41	5
67	67	6
0	0	11
39	41	4
65	65	3
43	44	5
150	150	7
20	20	8
16	41	3
119	119	11
94	94	11
39	39	18
173	174	2
28	28	33
145	145	2
59	59	12
59	60	4
31	31	17
4	8	3
35	35	16
16	16	10
22	22	8
2	42	4
29	31	3
171	171	14
137	139	2
31	33	2
36	71	1
154	160	5
22	23	12
90	108	3
84	86	4
55	55	5
102	102	10
15	40	7
32	32	13
136	169	3
3	3	14
6	6	13
135	135	5
112	114	2
112	112	10
140	140	8
148	149	6
113	114	4
86	88	3
157	169	3
39	40	6
62	62	3
142	144	1
25	25	5
24	25	8
41	41	12
151	152	5
139	139	7
27	39	2
30	37	1
33	34	6
161	162	2
52	52	6
20	36	3
175	175	7
41	42	2
129	130	4
133	133	5
84	85	4
153	154	8
153	153	3
89	107	1
131	131	2
156	156	4
141	141	6
87	119	3
97	98	1
146	150	1
77	78	4
37	37	5
126	126	10
109	114	2
111	111	2
121	122	7
167	168	1
124	124	4
8	8	3
7	9	3
16	31	2
99	99	2
36	37	3
9	9	13
33	33	6
93	93	9
6	7	5
64	64	1
108	108	4
59	77	1
83	83	8
164	166	1
132	132	5
124	138	2
114	114	5
45	45	12
72	87	3
90	92	3
24	26	4
52	53	4
9	11	3
156	169	2
24	24	9
146	146	15
82	82	3
21	29	1
114	116	1
97	97	9
26	26	7
5	10	2
18	19	3
54	84	1
161	161	5
159	159	9
101	102	1
152	153	6
90	90	6
163	165	1
35	36	2
27	27	9
166	166	5
157	160	1
17	18	2
52	56	1
107	108	1
148	179	2
38	40	5
14	27	2
85	85	8
89	89	8
107	107	2
103	103	2
26	27	1
72	74	4
99	144	1
145	176	7
10	11	8
178	178	4
16	17	2
88	99	4
62	80	1
142	143	2
168	168	2
16	25	1
128	128	3
124	125	2
71	72	3
91	94	4
137	137	2
106	108	1
126	128	2
74	74	2
131	132	1
110	110	6
93	114	1
136	136	2
169	169	4
120	121	6
112	173	3
72	101	1
18	20	1
46	63	1
43	43	7
77	79	1
79	102	1
75	75	4
56	56	4
65	109	2
3	8	8
129	131	1
71	104	2
92	94	5
114	115	7
159	179	2
12	12	2
34	66	3
134	136	2
78	78	5
57	60	1
100	101	4
43	45	1
97	109	1
134	148	7
77	149	4
134	134	7
149	150	2
167	167	8
63	63	3
123	124	3
81	82	3
21	23	2
81	81	2
29	30	7
118	135	2
147	147	6
140	141	3
90	91	3
146	148	4
163	170	1
32	34	4
164	164	6
61	61	2
154	155	3
9	13	1
119	120	2
157	157	4
77	77	2
83	84	3
32	52	1
144	164	1
166	170	2
90	96	2
75	86	1
132	133	1
17	21	2
88	88	3
129	129	4
154	156	4
165	166	1
76	76	1
172	173	1
161	170	1
155	156	2
23	31	1
34	38	5
91	91	8
123	131	1
16	22	1
65	66	9
151	158	1
83	117	2
133	134	2
115	116	2
34	34	9
56	57	2
72	72	12
132	179	1
53	53	2
158	159	1
44	46	1
140	146	1
35	114	2
165	167	1
118	122	2
94	95	1
0	1	1
93	180	4
103	107	5
2	9	2
127	127	3
61	62	3
116	129	1
104	104	1
116	126	1
49	50	4
142	142	2
163	176	1
106	107	5
180	180	2
18	23	2
1	1	4
88	100	4
170	170	5
115	118	1
11	13	2
150	153	1
109	110	4
75	89	1
5	29	2
103	178	1
130	144	1
84	165	1
5	7	5
44	67	2
51	51	1
5	8	2
5	9	1
114	157	3
145	175	1
106	106	1
19	66	3
39	42	2
95	122	1
80	81	1
22	28	1
159	175	1
114	117	1
139	164	4
70	70	3
73	73	2
98	99	1
62	86	1
50	51	2
115	144	1
99	102	1
26	28	1
101	101	1
31	54	1
7	42	1
3	35	1
79	79	2
64	66	1
18	24	3
1	33	2
72	80	2
118	119	1
162	162	4
16	23	1
133	143	1
3	7	2
34	62	4
3	4	1
2	3	2
108	109	3
127	128	1
79	86	1
96	96	2
101	168	1
37	39	1
15	16	2
142	154	1
8	9	2
51	52	2
58	58	1
153	169	1
16	24	1
168	169	1
177	177	1
79	80	2
5	6	1
81	112	1
127	135	1
23	24	3
156	157	1
155	157	1
149	169	1
73	101	1
118	167	2
33	35	2
111	112	1
11	21	1
1	5	2
16	20	1
118	118	1
80	80	1
133	167	1
73	97	1
36	44	1
86	118	1
24	27	1
13	28	1
6	8	1
174	179	1
30	31	1
159	171	1
50	50	2
92	92	1
132	172	1
158	168	1
99	103	1
66	67	1
45	46	2
130	131	1
90	99	1
18	42	1
83	116	1
89	97	1
93	131	1
16	19	1
