82	83	6
103	103	8
20	20	7
55	55	6
25	25	11
92	92	10
21	21	6
108	114	1
80	80	8
73	73	5
68	92	1
114	114	3
89	89	1
113	113	5
63	63	9
58	58	4
97	97	3
95	95	8
3	5	2
84	87	1
96	96	2
90	90	11
35	35	1
67	67	7
1	2	3
54	56	2
127	127	4
57	59	4
46	46	3
2	2	2
49	49	9
56	58	3
24	24	3
50	50	2
27	27	3
106	107	6
91	91	6
78	78	4
87	87	4
129	130	2
125	125	4
53	54	1
97	111	2
10	10	3
80	81	1
24	25	3
22	23	2
6	6	8
86	92	2
44	45	3
104	104	4
35	115	1
94	94	6
54	54	3
32	32	4
60	60	1
36	44	1
9	10	2
131	131	2
23	23	3
72	95	2
77	78	3
57	58	4
0	0	2
13	15	2
127	128	2
83	132	2
122	123	4
82	82	3
96	98	1
82	87	2
30	31	2
61	61	5
133	133	4
27	28	1
126	127	1
3	4	1
86	86	3
77	77	1
118	118	4
122	122	2
14	44	2
88	88	1
60	106	3
83	83	1
132	133	1
58	97	1
3	3	3
52	112	1
39	57	2
101	101	5
5	5	1
99	99	6
120	120	2
110	110	7
73	74	1
66	123	1
48	48	2
79	79	3
69	124	2
59	59	3
100	107	2
113	119	2
129	129	2
33	33	1
43	43	1
69	88	3
1	1	8
85	86	4
75	75	7
62	62	4
95	122	1
108	109	3
54	59	1
0	119	1
67	68	3
125	127	1
119	122	4
125	126	1
36	36	7
81	85	3
93	93	3
60	87	1
98	98	9
9	14	2
116	116	4
70	75	1
53	53	6
107	112	1
31	64	1
30	30	4
131	132	1
128	128	3
96	121	1
59	108	1
76	79	2
117	117	3
111	113	3
112	112	4
60	61	2
130	131	8
15	45	2
81	81	3
126	126	2
66	66	1
14	14	2
11	11	7
6	67	1
105	105	3
76	76	2
88	89	2
112	115	3
26	115	1
16	16	1
56	56	2
79	127	2
64	65	1
80	128	1
84	86	2
85	85	1
26	26	2
105	114	2
34	35	3
13	78	1
95	123	1
14	79	2
8	15	2
8	8	4
100	101	1
25	26	1
13	119	1
72	72	2
63	134	2
36	116	1
12	12	1
47	47	1
35	112	2
24	33	1
64	92	1
17	17	2
44	44	3
11	43	2
10	11	2
115	128	2
9	9	1
31	31	2
71	71	1
130	130	1
97	98	2
11	119	1
10	15	1
95	101	1
70	70	2
106	112	2
20	21	1
100	100	1
68	68	1
119	119	3
58	60	1
11	44	1
91	92	2
52	53	2
121	123	1
62	125	1
19	20	2
7	7	1
111	111	1
84	84	2
19	19	1
13	13	2
4	80	1
45	45	3
43	118	1
37	38	3
69	69	1
123	123	1
64	64	1
7	8	1
65	69	1
107	107	1
69	86	1
65	65	4
60	82	1
6	119	1
114	119	1
29	29	1
124	124	2
89	90	1
79	124	1
20	24	1
78	79	1
102	102	1
107	109	1
99	100	1
16	23	1
55	87	1
42	42	1
37	42	1
16	18	1
112	121	1
