106	106	18
46	46	18
21	21	11
158	158	13
94	94	12
5	5	12
167	168	3
111	112	9
40	87	4
39	39	18
39	40	11
84	84	10
93	165	5
119	119	14
34	34	12
85	85	23
57	61	2
128	129	5
72	73	10
45	45	13
37	38	15
141	141	14
76	76	15
92	93	8
68	69	5
152	152	20
75	75	19
34	35	8
112	112	14
123	125	5
26	27	1
72	72	16
47	47	7
127	127	4
144	144	24
33	33	9
22	22	14
159	159	6
159	160	8
137	137	15
102	102	16
162	162	11
163	163	18
131	131	10
65	65	8
111	116	5
150	151	2
43	43	25
155	156	5
4	4	11
12	23	5
8	9	9
16	16	7
141	142	2
6	6	15
40	67	4
100	100	10
11	11	21
96	96	13
143	143	6
9	9	9
111	111	16
64	65	2
92	92	7
142	142	15
12	114	3
155	155	4
71	87	2
113	115	2
138	139	6
18	19	4
125	126	5
49	50	7
26	26	17
87	87	17
94	95	2
165	166	4
67	71	3
23	24	4
97	98	9
140	140	8
157	157	11
95	97	8
2	3	6
110	110	7
88	88	7
117	117	4
73	73	5
138	138	11
27	28	4
50	50	6
86	88	2
74	78	2
71	71	14
70	70	6
62	63	8
89	91	2
42	42	21
84	86	1
36	36	10
167	169	1
119	120	9
42	55	3
55	55	14
127	132	2
18	18	10
55	56	8
82	82	20
14	14	17
140	142	5
69	69	19
62	62	13
28	28	6
160	160	26
77	77	14
126	126	15
133	133	15
97	97	2
57	57	18
161	164	13
112	113	11
163	165	4
13	13	3
9	13	4
12	13	10
0	1	10
20	52	2
100	103	2
107	108	2
99	114	7
48	48	13
43	44	9
13	22	1
105	105	13
154	155	2
113	113	15
107	107	15
3	3	19
164	167	8
98	99	2
79	82	5
147	156	4
147	147	3
35	35	14
115	115	13
64	64	18
93	94	3
120	120	6
108	108	21
102	104	5
95	95	15
124	127	4
109	110	14
87	89	10
122	122	5
51	51	19
41	41	15
123	123	2
48	49	4
11	12	7
72	85	5
91	91	14
103	104	5
17	54	5
108	109	8
93	93	13
11	41	7
24	24	19
53	53	13
128	128	4
150	150	9
6	8	5
64	67	1
80	80	13
2	2	9
90	91	3
33	34	3
44	45	10
27	27	23
41	57	4
134	134	8
100	102	4
124	124	14
42	44	1
8	8	15
130	155	2
67	69	3
69	70	4
1	1	10
71	72	9
46	52	1
69	93	1
151	155	4
126	127	7
164	164	5
10	10	17
92	94	5
20	25	2
144	149	2
80	92	3
151	152	3
85	86	4
53	55	3
78	78	6
74	75	7
63	66	1
54	56	12
20	24	3
167	167	10
7	8	11
160	162	2
46	48	1
91	93	4
94	140	5
66	66	12
40	40	19
79	79	17
99	99	5
100	104	6
58	62	5
11	113	4
44	44	19
12	12	6
89	89	14
45	57	3
101	101	7
99	107	2
67	74	2
116	136	2
132	135	4
165	168	2
114	114	4
49	49	15
61	69	3
130	130	14
81	140	2
153	153	10
137	138	7
105	107	1
63	69	3
25	25	18
0	0	7
157	158	3
20	20	12
21	22	2
37	56	2
75	81	1
110	112	2
63	63	5
46	53	2
83	83	16
159	162	1
99	101	2
124	125	1
139	140	6
119	121	2
41	42	3
123	124	3
130	165	1
5	6	4
57	58	2
17	17	20
88	89	5
98	117	1
13	14	5
134	135	13
132	132	14
76	79	9
81	82	5
104	105	2
146	147	2
154	154	3
145	149	2
90	90	12
37	67	2
54	54	11
7	7	12
13	15	3
101	103	9
77	78	4
4	5	6
44	165	1
58	58	7
86	91	6
24	25	8
72	89	9
56	56	11
148	148	4
41	55	1
97	99	4
25	39	1
63	67	4
95	96	2
9	10	3
136	136	6
57	62	5
77	88	4
10	14	6
15	15	8
23	23	6
25	26	6
65	67	5
81	81	11
38	38	11
84	87	7
161	161	8
113	114	4
103	103	7
51	53	1
101	104	4
67	67	5
114	115	1
14	15	8
19	19	2
80	81	2
77	79	6
70	87	2
90	92	1
159	161	7
165	165	7
115	116	1
49	53	2
47	48	4
50	51	4
104	104	8
16	17	6
100	107	1
3	11	2
47	49	3
101	102	8
96	98	3
68	68	7
149	150	3
51	62	2
109	109	15
133	134	8
17	18	6
20	21	4
160	161	3
52	53	11
73	79	2
86	86	13
18	40	1
156	156	2
13	23	9
145	145	5
92	165	3
1	2	2
14	18	3
56	57	6
37	37	9
74	74	4
93	95	2
73	74	2
151	151	8
96	167	3
7	43	2
98	101	1
131	132	3
76	78	4
127	129	1
83	87	3
19	20	4
56	123	8
21	23	5
40	115	1
121	122	2
49	70	2
147	148	2
75	76	7
125	128	1
121	121	7
136	137	3
164	165	1
54	55	3
143	156	1
8	10	5
146	146	7
106	109	4
154	160	1
83	110	1
40	114	1
58	70	2
158	161	1
87	88	6
118	119	1
36	37	5
20	23	2
77	80	2
51	58	3
15	101	2
62	70	2
120	122	1
14	16	2
22	23	2
45	46	4
74	76	5
63	99	1
88	90	2
163	164	7
133	135	1
83	86	1
64	69	1
52	52	7
116	117	2
106	110	2
48	52	2
70	72	2
124	132	2
47	69	1
7	45	1
38	63	4
1	5	2
140	141	2
44	46	1
132	136	1
83	92	3
15	18	1
152	153	3
125	125	5
99	100	4
86	89	2
146	148	1
163	166	1
45	55	1
37	41	4
45	47	1
144	158	2
35	37	2
100	101	3
168	169	1
161	165	3
33	41	1
130	132	1
98	98	8
158	159	3
78	107	1
18	21	2
65	66	1
26	28	1
3	4	2
57	122	1
15	102	3
5	7	2
11	27	4
112	115	1
40	41	1
99	133	3
78	80	1
91	95	1
69	94	1
77	98	1
126	131	1
169	170	2
145	167	1
135	135	4
127	131	2
129	154	2
64	68	1
116	116	8
79	80	3
84	85	2
35	36	1
124	126	1
4	37	1
166	166	1
162	164	2
91	97	2
76	83	1
41	58	2
129	130	1
169	169	1
80	107	1
94	98	1
18	20	2
112	114	1
45	49	1
10	12	1
18	26	1
40	57	3
139	139	1
81	166	1
82	142	1
20	39	2
162	163	1
104	114	1
149	159	1
78	79	1
86	87	1
10	13	1
18	23	1
63	91	1
37	39	1
39	64	1
41	52	1
83	84	2
15	16	5
16	24	1
118	118	4
100	112	1
156	157	1
122	125	1
89	102	2
38	39	1
62	95	3
17	19	2
143	144	1
46	55	1
90	93	1
96	99	1
170	170	1
130	131	1
148	152	2
6	7	1
146	158	1
76	82	1
82	83	1
19	23	1
89	90	1
45	50	1
76	77	1
55	58	1
40	88	1
96	97	1
69	91	1
66	70	1
168	168	1
126	133	1
68	71	1
