101	101	15
65	66	16
42	42	7
31	32	4
27	27	11
57	68	4
53	54	5
86	88	5
87	87	9
56	57	4
39	40	7
50	50	19
98	98	14
47	55	3
81	81	6
99	99	11
71	71	12
83	83	8
37	38	3
87	89	2
49	80	3
32	85	4
49	50	8
78	79	5
47	47	8
66	66	12
45	51	3
70	70	16
94	95	2
76	81	1
53	53	17
44	45	4
93	94	7
101	102	7
60	60	15
57	58	6
82	83	5
41	41	16
82	82	4
63	63	22
79	79	14
92	92	10
97	98	7
93	93	10
88	88	12
50	51	1
56	70	2
88	99	2
55	55	12
76	77	3
48	54	1
35	55	5
91	91	15
45	45	14
90	90	13
36	37	5
43	101	6
58	58	21
73	73	11
50	101	3
71	72	1
35	35	11
65	65	18
102	102	6
31	31	4
48	48	12
87	88	5
46	98	4
76	76	14
88	90	3
60	61	5
85	85	15
40	40	17
75	83	3
26	26	7
92	94	5
52	52	13
61	61	14
62	77	2
39	39	13
47	51	1
58	62	7
86	101	1
35	36	5
74	74	12
54	54	12
64	66	5
80	80	5
77	77	20
38	38	15
95	97	5
49	49	10
42	65	4
74	83	2
69	70	4
34	101	6
95	95	12
68	68	5
66	76	3
79	84	1
75	75	12
67	67	9
61	100	3
60	72	3
37	37	13
97	97	4
46	46	13
86	86	8
74	99	2
59	59	12
96	96	9
49	59	2
48	49	4
62	62	8
29	58	3
79	80	3
96	98	5
96	99	1
34	57	1
55	58	1
64	64	9
41	59	3
28	28	2
63	64	6
51	51	3
24	94	2
54	56	3
91	92	6
68	69	11
41	42	3
47	48	11
28	69	3
50	85	1
24	24	4
65	72	1
22	25	2
43	43	7
62	100	2
80	81	7
85	86	5
51	83	1
56	56	6
46	47	6
51	55	2
54	58	1
35	56	2
85	89	2
38	39	2
25	25	12
61	101	3
36	36	2
61	83	2
46	48	5
49	51	1
50	75	2
47	67	3
38	98	5
39	48	2
70	86	1
67	72	4
85	90	2
60	87	1
66	90	3
67	77	1
24	25	2
58	59	4
23	24	2
23	23	3
57	57	12
38	95	1
26	27	6
78	78	4
77	101	4
62	91	3
100	100	10
90	91	4
100	101	5
94	94	13
72	72	4
89	89	3
58	94	3
79	81	2
32	86	3
47	54	2
36	38	3
87	96	4
33	33	12
67	68	2
33	52	2
93	102	2
35	54	2
69	69	4
44	44	9
29	29	4
50	71	3
95	96	4
73	74	1
34	34	4
89	99	3
62	63	2
24	26	1
31	48	2
31	78	2
20	29	1
48	97	2
78	85	1
44	52	3
54	55	1
78	87	2
88	96	4
89	93	2
47	75	3
90	101	4
46	62	2
27	29	1
54	80	1
74	75	1
79	82	2
33	100	3
86	87	2
48	53	1
81	84	2
81	85	3
69	83	2
61	92	1
50	68	1
96	97	2
36	58	2
62	99	2
45	75	1
64	72	1
95	98	1
89	90	2
51	52	1
88	97	2
48	58	1
63	85	1
92	96	2
25	27	1
32	32	1
48	52	2
69	85	1
22	22	1
55	57	1
86	89	4
55	70	1
34	37	1
89	96	2
55	72	1
34	68	1
77	80	1
65	73	1
45	83	1
92	101	1
32	70	1
44	56	1
75	77	1
55	56	2
92	100	1
37	47	1
66	68	1
83	84	1
59	60	1
90	99	1
