99	101	2
67	67	16
89	89	12
54	54	9
49	49	4
51	51	17
53	54	13
23	24	10
76	76	11
100	105	6
77	77	6
31	32	6
42	42	5
56	56	6
45	45	9
65	67	4
46	46	3
37	37	9
84	84	15
86	87	3
62	62	5
34	49	1
103	103	8
79	79	6
30	30	3
83	83	5
64	64	12
101	102	3
36	36	8
22	46	2
39	39	7
36	37	4
56	60	2
53	53	6
85	85	9
102	104	6
71	71	4
46	58	5
80	80	19
70	81	2
47	47	15
100	102	2
45	68	2
75	75	14
26	28	4
85	86	1
70	70	11
63	63	10
81	81	15
87	87	10
60	61	6
78	79	8
57	57	10
32	75	2
35	39	2
38	38	3
57	60	2
88	88	8
22	22	8
92	92	11
24	105	5
33	33	4
102	102	7
48	49	10
87	88	4
82	83	3
54	63	1
98	98	9
67	68	2
44	44	9
23	23	16
53	69	3
48	48	11
52	53	6
28	29	3
62	78	1
20	63	1
52	52	4
105	105	7
60	62	2
95	95	10
91	91	6
78	78	16
41	48	1
100	101	1
97	98	5
27	27	3
31	65	1
67	69	3
63	79	1
82	82	12
98	99	2
56	61	2
94	99	7
100	100	5
106	106	5
44	59	4
45	61	3
70	72	5
75	91	2
28	99	1
28	28	3
94	94	7
29	60	2
46	79	3
26	27	2
42	43	3
34	34	15
48	64	1
41	41	8
95	99	3
66	66	10
69	81	2
100	103	2
36	61	3
37	39	4
27	29	8
93	94	9
71	72	5
89	90	5
29	29	8
50	62	1
72	72	11
60	60	11
47	48	3
26	26	5
80	81	8
38	39	9
96	98	5
62	93	5
62	63	2
79	93	3
74	74	8
20	43	1
40	40	5
66	67	9
35	45	1
31	31	7
70	78	3
53	61	1
49	66	2
76	81	1
67	71	1
50	61	2
75	76	3
23	34	1
24	74	3
37	46	3
34	41	8
65	65	8
47	65	2
26	98	3
33	40	1
91	92	3
65	66	2
35	35	4
24	61	2
68	68	9
61	61	8
80	92	4
51	52	2
101	105	2
97	99	6
105	106	2
84	86	3
73	73	4
27	28	2
94	100	1
24	24	4
47	66	2
99	99	6
83	84	1
78	86	1
35	40	2
93	98	2
41	61	1
49	59	1
42	45	3
43	44	6
85	87	1
22	77	2
104	104	3
59	59	5
76	77	4
46	57	2
45	51	2
98	104	3
94	106	2
21	21	1
95	107	1
61	62	2
20	21	1
97	97	8
85	95	2
69	69	6
30	49	4
92	99	3
50	64	2
80	93	1
31	33	2
64	65	2
84	85	2
24	28	2
94	96	2
90	90	3
94	107	5
35	36	3
63	64	1
24	60	1
61	92	1
76	78	6
21	57	2
46	78	3
68	79	1
93	93	7
97	107	4
58	58	6
58	59	4
81	82	1
24	51	2
55	57	3
84	90	1
34	54	2
45	59	1
20	20	1
86	86	4
20	29	1
25	29	2
55	55	8
101	101	3
50	60	1
81	84	1
53	62	1
25	44	1
74	75	4
36	42	1
86	89	4
37	44	2
37	38	1
67	72	1
80	82	1
44	45	1
102	105	3
83	88	1
42	44	5
25	25	2
66	81	2
45	87	2
95	97	1
36	43	1
51	91	1
36	60	1
43	43	6
25	27	1
66	72	3
49	65	1
51	93	2
95	96	1
98	107	2
92	93	2
49	54	2
25	36	1
77	94	1
33	41	1
50	51	1
55	56	1
28	30	1
43	68	1
107	107	2
39	43	1
79	80	2
81	85	1
68	69	1
50	50	2
69	70	1
99	106	4
95	104	1
61	91	1
46	47	4
75	81	1
55	103	3
78	95	1
92	96	1
96	96	2
36	62	1
72	80	1
105	107	1
68	91	2
21	51	1
81	83	1
51	61	1
32	32	1
62	92	3
21	55	1
31	68	1
78	84	2
84	87	1
29	63	1
78	80	1
20	42	1
40	59	1
88	90	2
32	33	1
57	77	1
