49	49	14
20	32	1
107	109	4
51	51	14
71	71	1
76	76	8
116	116	15
121	126	3
102	103	9
97	97	12
22	22	16
83	107	5
12	58	5
84	84	10
60	145	2
21	21	6
93	93	16
121	121	7
124	124	4
133	135	1
99	99	6
95	119	2
120	120	10
25	25	8
61	62	3
126	127	4
41	41	16
137	137	12
134	140	2
113	114	3
83	116	4
9	110	6
96	109	6
4	5	3
88	89	5
104	104	4
127	128	3
77	82	2
110	111	5
50	50	16
104	105	8
123	124	8
42	42	16
15	39	7
83	83	6
81	82	10
53	53	9
69	70	9
16	16	8
79	79	8
61	61	18
70	70	7
31	32	5
143	143	11
37	37	13
78	78	7
93	94	14
36	37	4
21	36	1
25	26	6
23	23	10
4	4	10
130	130	8
138	138	16
114	117	2
35	64	3
31	31	7
59	116	1
30	56	3
131	131	14
131	133	8
64	136	3
72	72	1
119	119	19
108	108	15
76	83	8
127	127	13
134	134	7
135	135	11
30	30	6
104	108	2
37	91	1
108	109	2
128	128	15
57	57	7
134	143	3
116	122	4
38	38	11
56	56	13
92	94	2
144	144	12
108	110	3
73	74	5
102	102	9
118	118	20
38	81	3
96	96	4
136	136	11
73	121	3
27	27	11
139	139	7
57	63	1
132	132	15
109	114	1
85	85	3
111	111	1
140	140	20
64	138	3
73	73	3
8	8	11
17	113	4
77	107	1
26	26	1
70	71	1
28	29	7
57	64	4
68	70	4
54	54	11
94	94	16
1	1	8
129	129	13
133	133	12
62	131	1
29	29	13
33	33	7
87	87	4
49	98	2
142	144	4
136	140	2
62	62	5
36	71	3
51	52	12
13	13	6
12	13	6
133	138	3
132	139	3
62	129	2
124	125	9
69	69	8
143	144	8
126	126	6
60	60	2
11	11	5
66	118	3
2	139	2
39	39	8
33	72	3
136	143	1
43	43	1
100	100	4
96	103	2
27	80	1
24	24	8
120	121	4
20	20	5
125	125	8
123	123	9
68	104	3
21	132	2
113	113	6
70	72	4
42	55	3
24	130	3
31	77	4
19	110	4
90	91	4
33	35	2
117	117	9
3	3	9
55	56	4
103	104	3
77	123	2
42	43	1
33	137	1
79	123	1
0	14	3
40	40	3
95	95	5
89	89	4
26	92	3
50	51	2
76	142	1
101	101	11
57	61	4
74	122	3
106	106	5
91	113	2
73	119	1
71	72	2
86	86	8
57	110	7
106	107	6
117	121	3
122	144	2
122	124	1
74	75	3
9	12	3
10	120	5
24	25	3
110	114	2
118	119	2
80	80	9
21	66	1
13	14	3
6	6	5
65	65	1
96	119	7
36	36	10
92	138	3
89	90	7
137	142	3
133	134	5
121	123	3
21	140	4
14	16	3
26	58	1
135	136	8
121	122	3
136	137	6
110	110	4
2	2	10
5	16	1
82	142	1
5	5	2
1	36	3
42	139	2
59	59	4
34	62	4
112	113	1
47	47	6
66	66	5
73	76	3
83	84	2
0	0	5
120	124	2
4	123	5
106	115	3
48	48	6
99	109	4
74	74	9
141	141	5
22	37	1
10	10	3
103	103	4
83	95	3
60	117	3
17	27	1
91	91	3
32	66	1
83	112	2
58	138	3
117	118	5
98	99	3
109	133	2
64	65	2
13	110	3
53	54	6
33	36	1
129	130	9
132	138	2
114	114	4
141	142	3
142	142	11
58	58	3
82	125	2
131	134	3
106	111	1
79	80	1
139	141	2
3	6	5
77	106	2
88	92	3
47	84	1
83	85	5
101	143	6
19	19	2
106	109	2
26	117	2
69	72	1
109	109	3
79	85	3
12	31	1
33	57	2
2	56	4
90	90	3
36	94	2
54	92	3
8	9	2
30	92	1
78	92	2
32	32	4
132	135	3
81	81	1
39	41	3
112	114	1
15	15	1
82	83	4
70	77	3
52	52	4
110	112	3
112	112	3
53	115	2
20	94	2
62	63	3
37	42	3
142	143	3
71	137	1
122	122	3
79	130	1
107	107	2
21	55	1
136	138	2
82	98	2
18	18	6
5	6	4
128	129	1
58	59	1
58	141	3
116	117	1
16	65	4
98	135	2
141	146	1
14	14	3
64	97	1
58	85	2
58	97	1
63	139	2
109	128	1
76	77	3
75	75	3
77	77	1
1	19	1
79	84	1
115	116	2
25	144	2
2	116	2
133	140	2
65	66	2
105	113	4
6	33	3
69	71	1
25	61	1
16	106	1
43	64	1
101	102	2
72	141	3
9	9	2
77	81	1
55	57	1
35	36	2
4	31	3
36	80	1
88	94	2
38	91	1
0	1	2
105	105	3
4	32	2
109	135	1
2	71	2
40	41	2
72	115	1
134	135	1
23	24	1
95	103	1
71	84	1
104	131	1
119	145	1
25	60	2
119	121	3
97	105	1
56	61	5
95	114	1
58	76	1
77	112	1
3	36	1
74	138	1
85	110	1
68	71	1
68	68	3
33	43	1
64	139	1
97	138	1
19	20	1
63	64	1
109	112	1
43	56	1
30	117	1
114	115	2
34	34	1
15	16	1
90	93	1
107	117	1
78	80	2
36	66	2
73	116	1
107	110	1
35	139	1
10	34	1
3	5	1
119	130	1
132	133	1
94	100	2
62	111	1
6	70	1
0	131	1
88	88	1
145	145	1
94	115	1
61	91	1
71	73	1
11	17	1
15	97	1
126	139	1
130	132	1
130	131	1
92	92	1
131	132	1
