103	103	12
20	20	3
105	105	3
109	110	3
20	21	2
147	147	3
104	104	1
15	44	1
167	167	1
54	54	2
18	19	5
6	15	1
55	55	7
100	100	11
15	16	1
164	166	2
146	146	1
114	114	2
4	30	1
84	85	3
6	7	1
50	50	1
119	119	4
16	16	6
113	124	1
18	18	7
50	51	2
106	107	1
28	28	13
35	35	7
22	22	6
43	43	2
80	126	2
35	41	2
41	41	3
129	129	5
19	19	1
17	45	1
169	169	5
37	37	7
65	65	5
26	27	2
7	7	5
96	97	3
156	157	1
71	73	1
95	111	1
133	134	3
30	30	7
21	21	6
10	17	4
34	34	2
161	161	5
11	12	5
49	49	6
6	10	1
124	125	4
36	36	5
12	14	6
96	98	5
135	137	5
66	70	3
149	150	5
145	151	2
150	150	4
61	61	3
65	71	2
104	105	4
118	122	5
75	75	1
45	46	3
155	155	3
133	172	2
139	139	11
11	13	2
3	3	5
42	42	9
59	59	3
133	164	1
25	28	2
45	45	3
108	108	4
83	84	3
135	136	3
131	131	2
55	90	2
25	25	11
57	58	1
115	115	2
62	82	4
107	107	9
82	82	3
171	171	3
80	80	5
36	37	4
31	32	2
70	70	1
34	36	1
26	31	3
6	6	14
95	107	4
1	3	4
14	14	6
62	84	3
148	163	1
17	17	5
144	144	2
157	157	4
158	158	1
130	130	3
87	113	2
11	11	5
145	146	3
131	132	1
161	164	1
134	134	3
82	87	3
38	38	2
173	173	1
133	171	4
3	4	2
3	11	5
172	172	3
67	71	2
79	84	2
9	9	4
170	174	1
149	149	7
32	32	1
121	121	1
117	119	4
152	152	4
74	74	3
109	112	1
179	179	5
160	160	4
41	42	1
12	12	2
161	162	2
138	138	3
66	66	2
54	65	1
74	75	4
141	141	3
12	13	1
122	123	3
137	137	4
64	64	4
45	51	3
93	93	4
90	90	1
180	180	2
6	16	1
71	71	5
33	33	2
21	26	3
164	164	1
105	107	3
99	99	1
150	151	2
5	5	4
143	153	2
9	45	1
15	15	2
145	145	3
112	112	4
156	156	2
53	54	5
5	10	2
118	118	2
78	79	5
19	42	3
6	9	3
59	60	2
97	105	2
174	174	1
121	122	3
25	29	3
24	24	4
99	100	4
166	166	2
29	31	1
3	6	1
154	154	3
10	10	2
148	175	1
140	143	1
120	120	3
76	76	3
116	116	3
80	94	1
63	63	2
164	167	2
160	162	2
102	102	2
57	57	2
29	29	1
106	115	1
143	147	2
10	16	1
53	53	4
135	135	2
68	68	1
151	151	2
4	4	2
7	9	1
105	106	3
51	51	4
16	18	2
91	91	3
17	31	2
136	158	2
72	126	1
52	52	2
126	134	2
96	96	2
106	106	6
93	94	1
39	39	1
172	173	2
27	28	4
170	170	1
144	158	2
173	180	1
151	152	2
27	32	1
117	117	1
98	99	2
28	29	3
30	31	4
4	9	1
40	40	2
132	132	1
2	3	2
128	128	2
41	44	2
43	44	4
10	31	3
171	172	1
32	36	1
64	65	1
160	163	2
81	81	1
83	86	1
140	140	1
40	41	1
94	100	1
16	17	3
83	88	1
110	110	3
40	44	3
74	81	1
95	95	2
172	175	1
72	72	4
126	126	1
55	56	1
159	159	1
167	168	1
109	109	2
146	166	1
143	145	1
88	88	1
1	5	1
146	147	1
1	10	1
76	77	1
44	44	1
123	124	1
81	83	1
166	168	1
123	123	1
53	55	1
23	23	1
6	22	1
166	167	1
78	78	2
164	169	1
49	51	1
16	31	1
54	55	1
111	114	1
84	84	1
133	133	1
101	109	1
136	136	2
125	126	1
85	86	1
101	101	1
10	11	1
