159	179	3
237	237	10
13	181	1
95	131	2
194	194	3
40	40	1
78	78	2
107	107	3
28	46	1
13	154	5
195	196	2
129	129	5
59	61	2
64	64	7
37	38	5
69	217	3
45	45	3
14	222	3
49	50	3
42	43	1
86	86	8
68	71	3
110	110	1
164	191	2
240	240	10
0	38	2
182	182	13
75	76	3
30	34	1
9	9	6
62	62	4
97	173	2
112	143	1
29	96	2
124	125	7
121	121	11
164	164	6
34	35	5
41	41	9
187	187	10
225	225	4
227	228	1
7	19	3
136	136	4
79	80	3
108	108	2
156	179	1
29	50	2
32	32	12
125	125	3
66	66	5
138	179	2
35	49	1
12	12	3
4	13	3
174	175	1
96	239	1
229	229	3
85	88	1
148	162	3
38	174	1
160	161	1
4	22	2
5	5	2
15	62	4
102	120	3
99	99	4
59	60	3
144	145	3
139	139	8
61	118	1
36	36	8
96	97	1
21	85	1
222	222	5
54	54	7
172	172	4
20	21	4
176	176	8
205	205	6
2	61	2
61	61	8
4	4	2
210	210	8
220	221	2
103	104	7
15	79	5
11	191	7
3	20	1
135	135	4
77	78	8
3	59	4
23	31	1
221	222	2
161	193	4
69	69	6
224	224	1
116	185	2
51	54	3
123	125	3
186	187	2
83	83	10
40	53	4
146	146	3
214	214	11
28	74	1
32	33	2
152	152	5
74	74	1
10	232	4
1	1	5
164	165	6
62	85	1
145	146	7
158	159	5
10	10	6
67	67	5
42	42	11
47	47	5
160	160	2
6	10	1
138	139	4
75	75	10
106	127	2
30	57	4
39	39	11
22	23	9
15	16	3
60	76	2
37	37	3
96	96	2
115	127	3
119	119	3
19	19	8
57	58	1
140	143	3
229	241	1
141	141	6
8	8	10
189	190	2
205	206	2
56	56	3
28	43	1
153	222	4
80	80	4
99	100	4
189	189	1
22	65	5
80	81	4
71	72	2
140	140	4
27	43	3
7	7	6
145	145	9
206	224	1
156	156	3
150	161	2
21	23	5
23	23	4
85	85	8
7	13	1
25	26	4
116	117	4
7	17	2
4	6	2
81	82	17
171	185	4
30	81	1
235	236	3
20	20	9
221	223	2
57	60	1
95	95	3
15	152	1
107	115	1
0	0	9
150	151	1
188	211	2
24	25	3
234	234	3
154	167	2
170	170	7
128	128	5
178	179	7
26	26	9
134	134	2
84	85	2
35	35	3
231	232	2
215	215	1
116	118	5
162	162	6
101	101	3
43	86	1
33	65	2
2	18	5
167	199	1
25	25	4
110	128	1
14	14	2
116	116	3
239	240	1
137	137	2
35	48	2
12	154	3
206	221	2
88	227	2
119	221	2
233	234	3
88	88	3
168	168	12
71	102	2
128	232	1
58	59	4
72	72	6
118	130	2
131	131	2
103	209	2
44	44	8
210	211	3
184	200	5
238	239	2
32	85	3
78	79	1
211	211	9
79	79	3
105	105	8
27	27	14
189	191	3
30	75	2
38	83	2
190	190	4
97	97	5
103	103	4
216	216	7
230	230	1
66	68	1
207	237	2
173	174	1
37	168	1
31	31	5
11	16	1
76	76	7
147	166	1
79	122	3
213	213	5
97	175	1
83	84	5
77	77	2
71	71	3
154	154	1
235	237	2
17	79	2
220	220	2
16	17	2
164	238	1
216	217	1
102	102	7
101	102	1
4	5	7
227	227	8
126	137	3
72	73	3
153	153	1
49	49	3
209	216	2
104	114	2
43	43	3
76	113	2
60	61	4
34	91	1
114	201	2
204	204	1
121	232	1
241	241	4
20	231	1
34	34	3
69	70	5
37	66	2
5	6	3
52	53	10
5	56	3
181	193	1
67	68	6
146	152	2
119	224	1
202	215	2
13	13	4
63	63	2
236	236	4
111	113	2
135	137	3
186	186	3
60	60	1
115	115	3
106	116	2
3	4	2
144	146	1
64	69	3
158	171	2
190	194	2
15	15	4
68	68	3
149	150	2
123	128	1
30	31	4
188	237	2
198	233	3
170	199	3
155	155	7
66	70	3
11	15	1
37	84	1
167	167	1
127	127	9
228	230	1
148	149	1
63	67	2
10	44	1
50	51	6
127	128	1
143	177	1
40	42	1
38	42	1
219	219	3
69	71	2
2	4	3
212	213	2
50	79	1
215	216	2
129	140	2
139	141	2
86	235	1
239	239	8
3	8	1
8	18	1
82	83	5
2	41	4
3	3	4
30	30	4
158	158	4
106	204	1
149	179	1
43	45	3
37	67	1
187	195	1
21	22	1
161	181	3
209	210	1
121	195	4
9	51	1
114	200	1
211	215	1
98	98	3
199	200	1
198	198	2
1	12	2
181	181	4
237	240	3
6	56	1
6	6	3
232	232	1
80	116	2
73	74	3
136	172	1
13	155	1
156	168	3
56	58	1
29	29	3
25	27	1
13	14	4
129	135	1
127	177	1
109	121	1
144	144	3
59	59	3
66	232	1
21	24	1
124	141	3
48	49	2
141	142	2
124	124	5
136	170	1
5	71	7
117	185	1
233	233	2
11	11	8
166	166	2
125	140	1
161	161	3
203	203	1
183	183	1
18	18	1
46	46	1
73	73	4
24	24	6
188	235	1
49	84	2
148	148	3
153	154	1
58	58	4
39	49	1
50	81	1
142	228	2
177	177	5
100	100	1
55	62	3
49	79	3
124	140	1
134	191	3
224	225	1
184	210	1
76	83	1
9	20	2
35	36	2
182	196	2
201	216	2
122	140	2
106	106	1
214	221	2
101	106	1
39	40	1
82	82	1
184	184	1
241	242	1
179	180	1
177	178	2
0	23	2
193	193	1
65	65	2
16	16	3
52	52	2
126	126	2
55	55	1
75	81	2
193	195	1
38	38	3
179	179	1
88	98	1
173	173	2
143	176	1
13	109	1
174	203	1
185	185	3
133	133	2
208	208	1
126	127	1
193	194	4
17	17	2
225	228	3
225	233	1
12	15	1
99	105	1
2	2	3
7	21	2
13	169	3
66	67	1
27	62	1
100	123	1
28	28	2
66	71	1
221	224	2
151	179	1
1	35	1
100	103	2
57	57	5
98	101	1
97	237	1
134	135	1
18	41	1
175	175	1
235	241	1
4	61	1
159	159	1
200	200	1
163	163	1
106	113	1
208	238	1
29	48	1
45	46	1
206	213	1
98	99	1
16	79	1
149	149	1
81	81	2
100	105	1
163	179	1
116	123	1
224	230	1
76	108	1
66	69	1
155	169	1
53	53	2
114	122	1
122	122	1
100	106	1
31	32	1
35	52	1
217	217	1
202	202	1
207	221	1
153	155	2
172	173	1
11	217	1
84	127	2
117	118	1
4	7	1
22	22	1
22	48	1
135	136	1
120	131	1
1	49	1
207	207	1
13	39	1
181	182	1
238	238	1
1	34	1
139	176	1
59	66	1
113	113	1
81	83	1
18	19	1
207	235	1
100	104	1
76	77	1
44	45	1
40	41	1
108	138	1
158	239	1
145	169	1
214	215	1
156	171	1
