35	35	7
105	105	15
32	32	4
86	87	6
105	106	2
135	135	8
71	88	3
45	45	5
127	140	7
56	56	10
102	102	1
3	3	8
111	111	13
46	46	14
22	22	10
150	150	1
8	9	11
2	2	22
93	94	12
4	4	8
83	83	13
109	114	4
79	79	7
95	111	2
66	66	10
146	154	4
84	84	14
34	36	3
20	21	5
149	150	10
83	84	4
69	91	1
146	146	3
70	71	4
32	33	4
132	133	7
87	88	2
124	126	3
36	37	5
114	114	14
44	46	3
10	85	2
145	145	14
108	108	5
101	101	7
128	128	15
138	138	16
113	114	7
146	150	3
46	47	5
69	69	6
26	26	12
28	28	5
29	29	18
64	65	2
97	158	2
81	106	2
127	127	21
12	12	6
116	116	11
23	23	18
36	36	4
112	156	2
17	17	7
39	142	5
123	126	5
71	71	4
75	75	3
119	119	10
78	78	14
9	38	2
117	118	8
142	142	7
153	153	3
125	156	4
72	73	3
80	126	4
0	0	7
145	148	2
84	95	4
68	70	1
85	85	8
108	109	8
67	67	4
93	93	12
98	99	1
145	147	8
19	20	4
155	155	15
91	102	2
82	110	2
103	103	6
23	24	10
148	148	12
131	133	6
137	137	13
100	100	15
20	20	7
5	103	11
131	135	6
8	8	11
25	26	3
37	37	3
141	141	2
127	130	1
22	36	2
52	54	1
52	52	7
115	115	8
11	11	11
125	125	5
102	108	3
19	21	3
77	77	9
0	1	1
109	112	1
156	157	2
65	65	2
92	134	6
47	47	5
73	73	22
68	68	8
117	117	15
80	91	2
41	45	2
33	34	1
55	56	2
104	104	10
11	12	6
50	50	3
135	136	3
31	69	7
17	150	5
119	120	8
23	45	2
51	53	10
30	30	3
82	82	4
80	81	5
107	107	4
6	7	2
97	108	2
31	31	9
92	101	5
121	121	10
44	44	7
7	28	6
95	96	6
48	48	12
6	6	6
107	108	10
11	84	1
152	153	5
4	145	4
156	156	17
133	133	12
17	18	7
157	157	16
152	152	8
25	158	6
77	95	6
17	24	1
9	10	4
158	158	12
113	113	4
139	139	16
92	92	9
120	120	6
5	5	7
24	24	8
50	51	5
70	70	7
9	13	6
134	136	2
52	112	5
114	115	9
6	43	1
94	125	4
70	88	1
91	91	5
122	142	2
97	98	8
115	116	12
34	34	5
95	95	3
53	112	9
106	108	10
100	104	3
98	98	17
55	55	11
99	99	15
129	129	10
94	94	12
39	46	2
141	142	5
13	38	5
123	123	15
129	130	8
14	31	2
85	90	1
4	35	1
22	39	1
48	50	4
18	18	7
133	134	4
43	43	17
132	132	6
67	70	2
3	144	5
131	157	1
10	11	3
131	131	24
3	4	3
120	142	2
14	14	3
125	126	6
57	57	12
103	147	5
147	147	4
97	97	9
109	109	10
109	115	2
106	106	12
75	81	4
149	149	4
16	16	10
34	37	4
38	88	3
31	108	2
34	35	3
36	110	2
140	140	9
8	48	2
65	66	1
140	141	9
55	136	2
15	46	1
100	146	1
152	156	4
17	23	2
134	144	1
136	137	6
144	145	3
151	151	8
27	27	4
21	144	1
102	103	2
20	142	1
31	52	2
96	96	8
110	111	4
144	144	3
17	36	2
122	122	3
51	52	1
1	1	14
130	130	8
89	89	12
2	43	2
85	86	5
143	143	6
137	138	3
131	132	3
74	74	1
136	136	10
32	41	1
19	28	1
98	100	3
81	98	4
13	48	5
10	10	2
54	54	2
8	37	1
1	38	1
155	157	4
46	81	1
103	106	1
37	143	2
42	42	7
18	19	3
13	13	5
8	11	2
2	4	2
22	25	3
118	118	6
12	13	4
112	114	1
75	100	2
21	34	4
40	40	4
147	153	3
63	64	1
106	107	2
26	28	6
110	114	4
67	69	1
32	40	1
124	124	5
147	148	1
88	88	16
27	28	1
21	38	1
54	56	1
27	64	3
107	109	3
15	15	9
134	155	2
56	69	2
144	146	1
7	7	9
38	38	2
132	157	2
86	86	5
99	123	1
56	57	2
87	110	2
31	42	2
2	29	2
146	149	5
135	137	5
69	70	4
79	81	1
33	33	10
38	39	7
113	146	1
97	131	2
123	125	1
113	154	3
76	90	1
80	80	10
95	109	1
90	91	4
90	90	6
3	9	2
36	103	1
104	105	2
154	154	6
33	100	1
40	41	4
13	14	1
25	25	3
35	37	1
123	127	3
96	97	1
76	76	1
67	71	3
14	48	4
7	8	8
82	95	3
124	146	2
39	88	2
93	124	7
11	78	2
9	9	6
63	117	1
80	84	4
155	156	4
51	141	1
36	134	1
79	92	3
87	87	10
144	148	1
88	89	1
50	152	3
2	44	1
103	104	2
112	112	1
110	112	2
110	110	9
112	137	2
96	131	9
78	97	1
88	106	2
130	131	2
40	42	3
49	49	2
20	26	1
75	80	2
89	109	2
146	147	3
32	153	4
125	127	2
72	76	1
3	41	1
51	151	2
53	53	4
21	102	1
39	39	5
25	32	2
148	149	1
81	81	4
68	69	3
54	68	3
10	36	1
79	123	2
28	29	5
31	45	2
131	134	1
39	43	1
62	64	1
118	119	2
65	137	1
31	43	2
111	112	3
21	22	4
26	27	4
146	148	1
36	39	1
21	21	7
153	155	1
121	149	1
138	139	3
39	40	2
45	46	5
19	19	5
76	77	1
10	104	2
147	150	4
50	53	1
37	38	2
148	150	3
95	158	1
66	72	1
71	81	2
10	103	4
48	49	4
12	38	4
129	131	1
100	101	1
151	154	2
27	66	2
128	129	2
3	92	1
149	152	2
92	105	1
79	93	2
139	140	2
107	110	2
53	54	1
44	112	1
53	146	1
129	151	1
5	43	1
134	157	1
152	154	1
108	113	1
29	30	1
65	93	1
150	151	2
83	87	2
37	141	2
12	32	2
121	122	4
62	62	1
126	126	3
53	55	1
72	72	2
94	95	2
99	100	1
84	96	1
28	30	1
123	124	1
128	135	1
157	158	3
99	106	1
127	133	1
152	158	1
22	37	1
134	158	3
45	48	1
64	70	2
78	96	1
44	47	4
63	114	1
134	134	1
111	134	1
103	112	3
30	47	1
119	127	1
102	112	1
6	29	3
82	83	1
68	84	1
8	97	2
5	6	2
149	154	1
79	82	2
108	114	1
28	129	2
20	66	1
56	58	1
22	34	1
8	158	1
4	144	1
11	107	1
11	37	1
32	113	1
130	158	1
53	57	1
146	158	1
72	92	1
49	142	1
43	44	1
96	109	1
42	45	1
8	38	1
124	127	1
14	16	1
88	98	1
15	16	1
75	79	1
4	6	2
78	79	1
15	38	1
18	27	1
109	111	1
31	41	2
38	40	2
72	115	1
95	104	1
24	25	1
95	97	1
67	68	1
110	113	1
