62	65	2
108	126	1
91	91	5
19	62	1
136	137	4
68	68	2
48	48	2
27	27	3
113	114	2
95	95	15
93	94	2
54	54	6
49	49	6
38	38	4
63	63	4
32	33	3
107	108	3
118	118	19
3	4	10
60	60	1
102	129	2
3	6	1
26	26	7
21	61	2
33	33	3
137	138	7
77	77	6
65	65	7
134	134	11
111	111	5
37	37	10
53	53	12
47	133	3
43	94	5
101	103	5
71	72	5
132	139	3
0	0	3
8	8	10
52	135	6
125	126	1
83	121	3
139	139	4
16	16	6
24	25	6
42	42	8
34	36	4
145	145	2
122	123	4
80	80	13
2	31	2
62	62	7
98	114	1
21	22	2
93	93	8
51	116	2
46	47	2
70	70	3
25	25	11
34	58	3
139	140	12
132	140	1
74	99	3
140	140	4
73	74	6
129	129	4
77	78	2
128	128	11
119	119	6
137	137	11
52	52	7
113	113	5
102	103	2
18	18	7
88	91	2
50	50	2
23	37	3
67	113	2
100	100	5
107	109	3
100	101	6
90	90	13
52	53	2
94	98	4
125	128	2
6	57	6
138	138	3
28	28	3
1	10	3
87	88	4
117	117	5
69	89	1
83	83	1
64	65	4
88	88	6
102	102	5
78	78	5
135	135	8
9	90	2
133	139	5
103	104	2
26	38	1
21	62	4
51	137	2
106	106	6
126	126	24
136	136	13
51	51	2
22	22	10
125	130	5
23	23	8
122	139	3
4	52	2
116	118	1
135	140	4
57	59	1
79	83	2
142	142	10
128	129	2
74	74	14
100	129	4
131	135	1
106	111	5
63	64	2
14	14	7
87	87	2
98	99	3
96	109	1
131	131	10
4	4	4
116	138	3
70	97	1
124	125	5
130	130	5
135	139	2
5	5	5
119	141	2
108	108	5
62	63	1
6	6	4
114	144	3
104	106	1
97	97	6
106	117	1
53	83	1
118	124	2
20	20	2
1	5	3
1	2	2
114	114	4
79	84	1
20	21	3
39	39	9
132	133	3
2	4	3
104	104	4
12	29	2
112	117	1
135	138	4
120	120	8
109	109	5
108	109	3
70	73	3
125	125	2
22	58	2
19	19	4
43	92	2
37	38	2
134	136	4
73	73	2
64	64	1
134	135	2
79	79	1
80	81	2
61	61	2
85	85	1
36	36	5
32	32	7
4	34	1
36	37	5
124	124	4
20	25	3
41	41	7
134	140	3
115	119	1
97	98	1
81	81	2
143	143	2
91	92	1
3	10	1
103	103	2
3	3	3
10	11	4
84	85	1
123	123	3
47	47	2
133	136	9
87	89	2
106	113	1
34	34	6
35	35	2
111	112	4
142	143	3
127	127	5
129	130	3
118	119	2
13	29	3
66	66	6
133	133	2
69	69	9
98	98	1
75	75	3
99	100	2
1	1	2
106	116	1
72	73	1
140	141	3
5	52	1
82	82	5
87	91	6
0	9	2
30	30	9
144	144	3
50	51	2
15	15	4
74	75	1
67	67	5
40	40	4
89	90	1
114	120	1
13	13	3
113	116	1
65	66	1
56	56	2
31	62	6
86	86	1
75	78	1
38	53	3
76	76	7
69	92	4
82	83	1
49	57	2
104	116	1
50	56	2
72	117	1
0	58	1
31	31	1
141	141	7
40	41	1
20	24	1
13	14	1
92	93	1
73	116	3
145	146	3
119	126	1
58	58	2
10	10	5
48	54	1
121	123	1
19	58	2
107	107	6
34	35	2
77	125	2
107	135	2
105	115	2
144	145	1
72	72	3
104	105	1
17	17	6
103	110	1
96	97	2
123	125	3
68	90	1
61	62	1
9	9	2
96	96	1
52	118	1
31	32	1
16	17	1
116	139	1
49	51	2
9	10	1
24	55	1
122	128	1
12	12	2
122	122	3
110	112	1
9	13	1
119	120	2
18	19	1
73	75	3
122	127	3
101	102	1
67	73	1
82	118	2
80	84	1
27	29	3
67	69	1
31	34	1
71	71	2
43	55	1
123	124	4
78	80	2
42	43	4
121	121	1
132	132	1
94	95	2
126	128	1
18	28	3
115	115	7
109	115	1
133	140	3
126	130	2
106	107	1
59	59	2
69	98	2
69	97	1
33	62	2
94	94	3
118	138	1
119	134	3
126	127	1
69	70	1
9	15	2
119	121	1
116	117	2
68	69	2
134	141	1
141	142	3
58	61	1
105	105	2
15	16	1
69	71	1
19	30	1
107	112	1
24	26	2
76	78	1
112	112	3
21	24	2
124	134	1
120	125	3
85	86	2
28	29	1
104	117	1
2	2	3
17	18	2
55	55	1
71	81	1
87	90	2
114	115	1
82	117	1
136	138	1
4	5	1
118	133	1
118	127	1
54	55	1
90	91	2
12	13	1
29	29	2
98	133	1
0	3	1
5	6	1
115	117	1
59	63	1
110	110	2
104	132	1
57	57	1
21	21	1
77	79	1
110	111	1
67	68	1
58	59	1
80	113	1
136	139	1
97	137	2
53	55	2
89	89	1
11	11	1
41	89	1
112	113	1
60	68	1
116	116	2
107	137	1
40	89	1
34	97	1
47	52	1
48	59	1
20	62	1
131	140	1
79	81	1
8	90	1
106	135	1
143	144	1
50	61	1
