20	20	15
50	51	10
35	36	7
6	6	13
68	70	2
25	25	10
67	67	5
44	44	8
19	19	20
3	3	11
55	56	8
37	38	2
23	23	5
57	57	9
8	8	10
55	55	5
30	30	8
7	8	11
11	11	11
33	33	20
34	44	8
10	10	4
27	27	6
9	11	2
1	1	6
0	2	7
31	32	11
72	72	4
35	35	5
21	21	6
20	59	7
63	63	16
70	70	7
36	36	8
5	5	20
51	51	2
49	49	8
28	30	2
1	2	5
34	34	3
40	41	2
13	13	14
61	62	5
18	19	6
62	62	11
32	33	5
43	43	12
24	24	4
12	12	22
41	41	5
58	59	1
2	2	18
7	7	8
44	59	13
45	45	19
54	55	7
68	73	2
47	47	12
60	60	5
22	22	9
73	73	14
9	9	16
56	56	8
49	51	3
74	74	3
46	56	6
70	71	3
63	64	1
68	71	4
59	59	15
22	63	3
22	23	5
26	26	3
75	76	3
4	4	9
23	24	8
33	34	3
33	46	2
44	45	9
18	18	7
55	65	3
69	70	4
45	46	2
40	40	11
49	63	5
36	53	3
5	22	1
54	54	6
70	77	5
38	38	6
9	10	8
50	54	2
67	68	3
72	73	5
29	31	1
39	39	5
69	72	1
69	71	2
27	29	1
66	67	2
68	68	1
5	6	1
26	27	2
42	56	1
52	52	10
46	46	5
12	22	3
36	37	1
3	20	1
39	40	1
37	37	4
24	25	4
5	9	3
33	44	4
61	61	10
69	69	5
34	36	1
71	71	7
33	48	1
42	43	3
10	11	5
21	30	6
28	28	4
56	76	5
49	50	3
60	65	3
66	66	6
42	67	1
27	63	2
2	3	2
56	60	3
65	66	4
26	29	3
76	76	3
75	75	2
12	20	1
41	42	2
24	27	2
28	63	2
51	52	3
8	9	6
68	69	1
29	30	1
60	61	6
6	7	2
2	20	3
42	42	3
32	45	1
43	44	3
34	35	3
39	62	1
0	0	3
53	54	2
4	5	1
48	49	1
48	48	6
27	28	1
39	54	1
39	53	2
60	62	4
50	50	1
48	56	3
3	5	2
10	46	1
51	54	1
62	63	1
63	67	2
53	53	3
73	74	1
20	21	4
57	60	2
3	12	2
74	75	1
0	1	1
31	31	3
34	43	1
48	62	1
27	30	1
9	55	2
33	43	1
43	45	1
54	65	1
25	26	1
34	42	1
3	4	2
34	61	1
12	13	1
44	63	2
11	20	1
65	65	1
21	22	1
48	60	1
