19	20	7
42	44	8
43	44	16
48	48	35
9	9	18
60	60	24
0	0	11
10	10	3
21	21	25
62	65	5
76	76	13
12	12	15
32	32	4
73	73	16
23	23	11
59	59	22
23	68	1
25	25	5
27	27	17
58	58	13
2	2	23
51	51	13
45	45	23
56	57	3
22	23	3
11	11	8
76	77	6
28	28	10
54	55	8
33	33	21
43	43	40
61	61	18
62	62	7
68	77	2
6	6	15
57	59	5
26	37	3
56	56	21
13	14	2
54	54	22
35	40	2
53	53	14
62	63	6
70	70	15
66	68	4
49	50	7
61	69	3
22	22	25
37	61	3
20	20	14
37	37	5
50	50	15
10	12	2
29	32	1
32	69	4
58	59	4
49	49	6
2	4	5
73	75	7
52	53	4
26	26	7
20	67	1
65	65	4
64	64	9
14	14	3
2	3	3
51	52	5
19	28	2
18	18	3
75	75	7
44	48	3
44	44	18
34	34	2
38	68	3
63	64	4
68	68	12
39	39	15
63	63	11
36	36	9
67	67	20
20	21	2
42	42	14
35	61	2
74	74	8
41	42	8
27	28	4
4	4	9
36	61	6
38	41	3
70	71	5
59	60	13
61	62	2
10	11	2
37	41	4
77	78	8
8	8	6
13	13	9
47	47	26
59	63	1
55	55	23
30	31	3
72	72	10
66	67	6
21	25	5
57	57	13
31	31	7
6	13	2
21	22	5
2	9	1
65	68	3
8	9	1
19	19	13
38	39	4
21	27	2
7	7	19
35	35	8
37	38	3
65	66	9
3	4	5
25	30	2
46	46	17
36	40	4
3	3	33
49	51	2
14	19	1
41	41	5
35	37	5
74	75	5
3	12	7
33	34	4
26	27	6
55	56	2
34	59	1
39	40	1
55	57	4
29	29	8
11	12	2
68	69	6
71	71	5
46	47	6
6	7	7
38	38	6
70	73	4
67	69	1
9	10	5
69	70	7
74	77	4
69	69	11
18	19	6
46	55	2
45	47	8
74	76	1
52	52	8
73	74	2
11	46	1
44	47	1
32	33	2
28	31	4
48	49	2
61	64	5
4	6	2
37	60	8
71	72	2
59	61	2
46	64	2
23	34	3
48	51	3
73	76	2
1	1	9
23	24	4
35	36	3
36	37	2
75	77	2
35	38	1
12	13	2
45	46	1
28	33	1
77	77	1
7	8	3
67	68	7
20	38	1
58	64	3
42	45	1
4	5	6
68	71	2
22	36	2
5	5	1
1	4	2
58	60	4
24	24	5
32	57	2
32	37	1
27	30	3
57	58	4
68	74	3
1	2	3
24	27	3
66	66	6
29	30	4
57	60	2
60	61	1
40	40	3
0	1	2
13	19	2
53	57	2
64	67	2
50	51	6
36	68	2
6	9	1
30	30	11
2	12	1
34	36	3
69	77	1
54	68	3
54	56	1
18	33	1
31	33	1
52	58	1
40	53	3
57	73	2
56	65	1
12	19	1
28	29	1
72	76	1
66	71	1
40	52	1
65	67	1
31	32	1
71	74	1
3	31	1
39	41	2
64	65	1
44	67	1
53	67	1
22	26	1
