115	116	5
124	124	8
127	127	4
116	119	3
13	13	7
87	87	3
37	69	3
114	114	3
24	77	1
110	111	4
91	91	7
59	59	11
64	64	8
76	76	13
111	111	10
82	82	6
47	47	10
86	86	4
103	103	2
8	9	4
49	132	1
20	20	7
117	117	3
75	104	1
56	57	3
70	76	1
3	3	3
109	110	9
64	99	4
47	106	3
31	31	4
61	63	2
4	4	4
113	113	2
17	17	2
50	53	3
108	108	5
110	110	17
6	6	8
122	122	5
16	16	3
92	92	2
53	53	3
37	37	5
25	77	2
25	25	3
64	65	3
114	120	4
50	55	1
126	126	1
127	129	3
32	32	2
130	130	3
42	77	2
36	37	2
12	12	2
54	55	1
54	56	3
54	54	2
87	88	1
76	135	1
8	21	2
107	107	3
71	71	1
83	84	4
9	14	1
66	66	2
43	43	3
50	56	2
21	21	6
81	81	2
67	132	3
79	79	5
57	57	4
118	118	5
25	124	1
129	129	2
65	65	4
66	68	1
82	122	1
78	116	2
134	134	2
109	109	3
125	125	5
5	14	2
74	74	4
128	128	7
3	4	6
44	44	5
68	68	3
82	134	2
6	12	1
62	128	3
53	54	1
62	62	4
8	14	1
35	35	2
32	33	2
51	51	1
72	72	3
82	84	4
86	91	2
88	88	2
104	104	8
29	29	9
18	21	2
99	99	3
26	53	1
69	69	3
5	5	4
37	45	1
75	75	2
105	105	3
73	73	2
28	30	2
107	108	1
21	26	2
46	46	5
57	81	1
15	15	1
65	68	1
37	68	2
118	119	1
84	86	2
27	27	1
112	120	1
31	32	1
19	20	2
90	90	4
34	34	3
93	93	3
94	95	3
97	127	4
111	117	3
19	52	1
77	77	2
67	67	5
28	28	3
50	50	2
77	80	2
55	131	1
84	84	2
33	34	3
123	124	5
105	106	1
33	33	3
127	134	2
96	96	2
85	85	3
104	112	1
133	134	3
70	70	2
35	63	1
1	1	2
126	129	2
93	94	3
117	118	3
135	135	3
60	60	4
66	123	1
0	7	1
130	131	2
30	30	2
20	23	2
84	85	1
84	117	3
52	53	1
27	28	2
25	26	2
10	11	1
26	26	2
70	71	1
112	127	1
101	101	2
34	131	1
12	33	2
123	123	1
61	61	3
26	80	2
120	120	2
83	83	1
97	112	1
9	9	1
97	97	1
24	38	2
66	118	1
59	81	1
122	123	2
74	134	1
78	78	4
55	56	1
116	116	3
63	127	1
115	115	5
100	100	3
36	36	2
58	58	3
122	125	1
68	122	1
63	69	1
75	133	1
43	77	1
99	114	3
110	122	2
46	47	1
10	10	1
24	24	2
38	38	1
62	63	3
2	2	1
57	58	2
56	69	3
133	133	1
19	19	1
42	43	1
102	102	2
119	119	1
106	131	1
130	132	2
42	86	1
68	132	1
70	111	1
28	35	1
50	51	2
52	52	2
45	45	2
111	114	1
71	104	1
80	80	1
128	129	1
82	83	2
68	111	1
131	131	1
20	24	1
65	79	1
96	105	1
63	63	1
67	109	1
65	121	1
129	130	1
