27	27	5
16	20	6
118	118	2
63	66	3
69	70	2
6	12	2
32	62	4
10	10	7
21	21	5
15	15	7
131	145	2
16	16	5
81	81	7
6	6	11
154	154	2
93	93	3
39	39	5
116	118	1
139	139	4
31	62	2
135	135	10
49	51	4
54	54	13
41	42	5
39	40	7
42	44	4
31	31	5
38	40	3
106	106	3
127	127	4
102	103	6
77	79	5
122	130	9
126	154	1
111	111	4
147	152	2
47	48	6
75	76	7
132	132	1
66	88	6
150	151	2
144	145	2
13	13	5
4	6	3
102	104	3
26	38	2
103	103	3
71	71	3
5	6	1
18	18	7
36	37	7
83	87	3
94	123	2
52	86	4
92	92	2
107	108	2
96	97	4
6	7	3
124	127	3
97	125	8
87	87	4
75	75	2
101	102	2
8	8	1
68	68	4
50	50	7
3	15	1
74	74	2
78	78	8
32	33	2
142	143	1
130	130	5
106	107	1
142	142	3
5	13	6
152	152	1
19	19	4
76	77	1
73	74	2
99	99	1
102	119	4
8	21	3
20	20	2
72	74	3
143	143	6
81	82	3
50	55	5
34	34	2
66	77	3
57	57	6
139	145	3
102	137	2
38	39	2
108	122	3
138	138	2
127	132	1
63	64	3
56	57	2
15	24	2
5	5	8
141	142	2
21	24	1
24	24	3
100	100	4
65	65	10
36	36	7
133	133	4
49	50	4
31	36	2
53	54	1
110	113	2
107	107	1
57	70	5
63	81	4
21	46	2
10	21	8
95	127	3
21	22	1
104	105	4
100	102	3
145	145	1
54	84	2
4	4	3
86	93	3
12	13	3
69	98	1
68	95	2
144	144	2
66	66	7
42	43	3
25	26	2
41	41	5
86	86	4
116	117	3
75	86	1
32	34	1
14	14	6
17	17	4
105	105	1
69	69	1
22	23	3
136	137	2
98	127	5
114	114	3
103	116	3
84	84	3
137	137	6
26	42	3
8	11	3
44	80	2
25	25	4
45	48	1
53	53	1
147	150	1
40	40	3
145	146	1
122	136	3
149	149	2
108	108	3
70	70	4
28	28	7
95	116	2
40	57	1
86	89	3
8	12	1
12	12	3
124	124	1
44	44	3
101	101	4
121	122	1
136	136	2
128	138	3
45	45	2
10	11	3
62	82	1
39	48	3
22	51	2
96	96	8
100	103	6
14	25	3
50	86	2
77	80	1
138	145	1
36	57	3
64	64	5
153	153	1
65	66	2
122	122	2
26	27	3
30	30	5
42	47	1
48	48	3
3	3	1
113	114	3
97	97	1
123	123	2
98	99	2
131	131	2
19	53	1
7	41	1
13	14	2
119	119	4
12	15	1
100	101	1
64	70	3
78	88	1
116	126	1
22	22	2
29	30	5
73	73	5
46	46	3
94	94	2
62	62	1
38	38	2
27	49	1
78	82	1
48	131	1
55	55	8
37	42	1
52	53	2
87	90	2
102	102	1
19	54	2
55	83	1
151	151	2
31	32	4
68	88	1
68	82	1
117	118	1
63	63	2
117	117	2
73	75	2
48	49	1
95	95	2
37	53	1
122	135	1
120	121	1
4	5	2
54	83	1
101	137	1
44	45	3
7	16	1
150	152	2
94	99	1
42	42	3
5	7	4
134	136	1
97	98	2
95	98	2
53	56	1
74	79	1
34	58	1
9	17	1
19	21	3
26	129	3
95	97	1
28	33	1
8	14	2
87	88	2
55	56	1
54	55	1
90	93	2
85	85	2
34	49	1
17	21	1
63	65	1
8	9	1
27	28	2
99	123	1
29	29	4
61	80	1
90	90	2
51	56	2
150	150	1
61	63	1
152	153	2
97	121	1
109	112	1
9	9	1
25	63	1
37	44	1
132	133	2
129	130	1
35	37	1
123	129	1
72	112	2
80	80	1
54	56	1
130	137	1
125	125	1
94	97	1
126	126	1
72	72	1
37	37	1
39	52	1
122	132	1
111	112	1
