65	65	5
150	154	1
41	41	14
36	36	25
152	160	4
0	1	7
22	25	2
26	26	24
3	7	1
3	37	1
23	23	6
32	32	14
10	10	12
4	4	14
109	109	4
160	161	3
55	55	5
173	173	6
20	20	16
9	10	9
13	13	21
110	110	5
37	37	15
16	21	3
119	121	3
11	11	4
28	36	4
38	38	27
31	36	4
143	143	8
29	29	8
150	150	8
170	170	11
21	23	7
33	34	10
35	35	24
8	15	5
5	5	17
75	75	7
31	37	6
106	106	6
12	12	7
111	111	5
155	155	4
5	6	22
162	162	9
135	136	1
173	174	3
156	156	5
164	165	7
64	64	8
65	66	3
56	57	12
180	180	6
9	9	22
30	31	11
129	129	4
77	94	6
81	101	1
13	14	6
14	14	22
17	17	15
73	73	16
56	56	3
7	7	9
167	167	12
116	117	1
1	10	4
66	67	5
66	66	3
134	134	12
166	166	5
14	15	1
95	96	1
29	32	3
34	34	17
53	53	3
0	143	5
18	33	1
145	145	8
95	95	18
52	52	8
122	122	6
84	84	6
141	141	13
12	13	13
139	141	2
38	39	1
32	38	2
130	130	6
6	26	1
23	31	1
178	178	9
118	118	7
19	82	3
165	165	5
161	161	9
22	26	2
27	27	13
175	175	4
19	19	19
152	152	16
77	80	2
76	76	9
147	147	11
2	2	17
163	164	6
150	151	5
15	16	5
39	40	9
108	109	3
159	159	9
124	124	8
137	137	6
21	21	15
83	83	3
44	44	19
19	20	9
31	42	1
99	99	2
24	24	14
42	42	5
8	9	5
2	16	2
57	59	3
11	12	10
6	6	18
171	171	8
172	172	9
52	53	1
7	8	4
24	27	2
68	68	3
96	143	3
22	22	15
140	141	1
33	33	16
54	54	5
117	117	7
143	159	4
149	149	12
62	62	5
45	63	1
146	146	11
49	49	2
67	67	2
108	115	3
43	72	2
30	30	10
114	114	9
173	178	2
1	2	2
71	71	10
159	166	3
112	112	1
0	0	15
174	174	7
39	39	20
36	44	4
113	117	2
66	68	2
78	79	5
139	139	9
121	153	2
22	34	2
3	3	16
166	167	5
1	1	7
117	144	4
78	78	3
179	179	6
148	172	4
8	8	13
142	143	1
16	16	20
121	122	6
25	25	10
115	115	5
21	36	1
102	102	5
158	159	3
37	59	5
89	89	5
77	77	7
170	174	5
53	57	3
18	18	14
102	112	4
12	15	1
147	148	5
6	14	1
67	86	3
112	128	2
2	19	1
88	88	10
151	160	3
93	93	5
72	72	3
133	133	5
17	36	4
51	51	5
64	66	1
127	127	7
66	86	1
57	57	6
112	114	6
6	15	4
55	56	6
16	80	4
139	140	3
84	86	1
128	128	2
29	30	6
24	35	2
163	163	9
83	92	2
55	70	1
32	36	1
94	107	1
9	12	4
103	103	3
11	14	2
40	40	15
177	177	3
76	96	1
55	132	2
106	107	1
105	108	3
37	38	9
83	86	3
166	168	2
36	80	3
86	89	5
99	107	4
15	15	12
134	136	1
176	178	2
158	158	9
25	26	3
177	178	3
153	153	4
96	97	6
31	31	9
145	159	3
75	125	2
80	80	3
117	118	2
63	66	2
22	23	6
24	52	1
9	35	1
67	68	4
100	100	7
120	120	3
123	123	3
21	102	1
140	140	1
13	15	2
6	7	9
120	153	2
62	63	4
40	53	2
176	176	2
21	27	1
103	104	4
2	3	3
104	104	10
135	135	3
114	115	1
148	149	2
151	151	9
121	121	6
18	23	1
31	38	2
43	44	5
126	127	1
23	24	2
43	43	12
64	72	1
5	12	5
1	16	1
18	78	3
92	92	3
156	157	3
164	164	3
3	68	2
143	145	1
94	94	5
167	168	3
168	168	2
39	60	2
35	44	4
116	143	1
117	135	1
117	152	2
58	59	1
157	168	4
24	25	5
6	12	4
144	144	4
80	81	2
50	51	2
101	101	3
34	60	1
64	89	3
63	64	1
100	116	1
127	128	2
21	33	3
54	57	1
131	131	1
90	90	6
26	27	14
78	80	3
50	50	5
71	72	4
136	139	1
87	87	4
40	43	2
84	125	4
168	169	2
97	97	1
10	35	2
115	116	3
17	31	5
101	102	5
15	31	1
8	40	1
113	113	2
114	118	2
9	11	2
36	37	3
103	111	1
5	33	4
23	32	1
68	86	1
174	175	3
21	22	2
169	169	3
28	28	7
8	10	2
81	83	1
174	177	3
67	88	2
59	59	2
149	172	2
79	79	4
40	44	1
7	9	2
148	148	2
90	106	1
12	41	1
95	142	4
29	31	4
94	102	2
45	45	9
171	172	1
2	38	1
161	162	2
98	98	3
3	8	1
144	146	1
72	73	1
3	4	5
63	63	2
136	136	7
162	173	1
132	132	2
40	41	2
98	116	3
56	78	1
5	7	1
91	91	1
11	66	3
28	29	2
99	108	1
91	93	2
92	93	1
7	15	2
108	108	3
131	132	2
31	78	2
110	133	2
100	115	4
26	38	2
153	154	1
43	52	3
25	99	1
17	18	1
10	178	1
85	85	3
32	37	2
86	86	1
16	39	1
102	132	1
116	116	1
60	60	4
125	125	1
142	163	5
76	77	2
119	127	1
110	116	1
53	54	1
31	32	2
76	79	1
122	147	2
157	157	2
110	129	1
126	128	1
27	80	2
22	40	2
10	13	3
29	71	1
53	71	1
166	169	1
44	45	3
27	28	1
138	138	2
18	21	1
165	167	3
29	65	1
34	44	1
24	26	2
154	156	1
51	61	1
18	67	2
138	139	2
37	39	4
15	18	2
75	139	3
18	29	1
170	171	2
123	124	3
107	108	1
83	91	2
24	28	2
33	36	1
21	39	1
50	61	1
142	152	1
16	17	1
62	66	1
79	80	1
109	115	2
33	35	3
22	132	1
97	136	2
85	92	1
23	40	1
82	82	1
20	27	1
98	133	1
74	74	2
18	20	1
98	99	1
172	173	1
6	33	1
166	171	2
119	126	1
67	73	2
154	162	1
120	154	1
151	161	2
17	35	1
153	157	1
160	162	1
93	127	2
141	143	1
101	107	1
23	28	1
21	28	1
35	36	1
35	38	1
3	15	1
32	33	1
164	169	1
61	61	3
20	26	1
45	75	2
41	42	4
76	91	1
122	148	3
26	58	2
61	64	2
1	3	2
40	55	1
24	40	1
10	17	1
127	130	1
4	15	2
50	68	1
38	40	1
77	87	1
58	58	1
34	38	1
72	86	1
152	153	1
86	111	3
81	82	1
6	32	1
96	117	1
38	78	1
25	27	1
27	37	1
108	132	1
7	169	1
101	133	1
42	44	1
