70	71	4
51	68	3
61	66	4
74	74	15
55	55	13
26	26	16
8	8	25
31	31	12
0	0	7
28	29	3
29	48	2
47	56	3
36	36	10
7	7	9
62	64	3
73	73	21
72	72	10
60	60	10
11	11	9
62	62	7
2	3	4
29	30	6
22	35	1
61	61	20
64	65	9
64	67	9
25	25	20
57	57	21
49	50	9
29	29	21
44	44	20
58	58	14
43	43	15
6	6	7
21	21	18
54	54	15
47	47	20
54	55	3
25	69	2
3	3	15
23	23	18
20	20	23
66	66	7
30	30	14
63	64	7
74	75	2
41	41	19
45	45	13
4	4	15
8	11	3
29	49	4
41	42	6
74	77	4
78	78	1
13	13	9
44	76	1
38	52	3
34	34	15
71	74	2
24	28	3
5	5	12
1	2	9
67	68	8
51	73	1
1	1	11
12	45	4
28	45	4
64	64	23
22	22	14
31	32	4
10	11	7
60	71	2
39	39	13
38	38	14
40	64	4
50	50	2
67	67	7
42	43	4
32	32	13
12	12	8
64	66	8
4	5	8
75	75	17
55	59	1
48	48	4
40	40	17
9	9	12
51	51	17
68	68	9
53	53	25
33	34	4
43	45	5
39	41	2
35	36	2
13	14	1
6	41	1
9	11	3
5	6	11
1	23	1
43	55	3
10	10	2
33	33	12
20	21	5
46	46	10
52	69	5
27	27	6
55	56	2
63	63	6
35	35	6
26	27	3
57	58	8
7	8	7
31	51	5
25	26	7
42	42	14
71	71	17
58	60	3
46	47	2
28	76	1
65	65	8
25	33	4
29	61	1
56	56	6
47	51	8
37	37	10
0	1	6
6	7	3
18	51	8
23	24	1
51	52	8
24	25	9
28	28	5
48	49	2
44	45	1
44	68	8
59	60	5
8	10	3
75	76	6
71	72	4
20	52	1
63	72	2
61	62	1
59	59	6
58	59	3
59	75	4
2	2	12
69	70	7
64	72	3
36	37	9
45	46	3
57	61	2
24	42	2
57	62	2
29	45	2
29	31	2
77	77	7
40	41	1
19	19	10
26	41	3
29	60	4
21	73	2
12	13	2
56	60	1
49	49	4
12	19	4
37	39	4
41	43	3
24	24	2
72	73	4
24	34	5
39	40	5
56	72	6
23	25	3
28	30	2
73	74	3
35	39	3
30	31	1
63	70	2
41	57	3
71	75	1
42	56	1
6	29	3
18	19	3
31	49	2
9	10	1
50	51	1
18	18	2
66	69	4
51	75	2
50	59	3
43	75	1
33	48	1
69	69	3
65	72	3
14	14	7
64	68	1
45	47	1
29	62	2
15	24	3
19	20	2
48	73	2
52	54	1
48	57	1
33	77	2
40	63	1
40	73	2
1	5	1
70	73	1
70	70	4
8	9	1
55	60	1
34	43	2
76	76	2
24	27	1
12	70	1
4	7	2
25	28	2
23	49	2
27	28	1
47	48	3
62	63	2
66	67	2
12	44	1
30	34	1
0	3	1
18	21	2
31	52	2
34	52	1
40	72	1
