43	44	10
88	89	3
56	56	9
121	123	2
131	131	8
99	99	10
52	56	1
163	163	3
64	72	2
90	90	7
81	82	5
116	116	7
7	7	15
159	159	9
7	12	1
152	152	11
76	77	3
26	26	5
82	82	8
71	72	1
123	123	3
143	144	1
52	53	5
147	147	14
113	114	8
68	70	4
69	69	2
62	71	4
16	82	5
62	111	4
133	133	2
160	160	10
45	47	1
33	38	1
5	5	6
8	8	9
136	136	4
11	11	8
50	50	9
87	88	5
8	12	2
114	114	7
164	164	4
111	111	14
80	80	1
134	137	2
92	92	1
5	6	7
93	93	2
147	148	2
112	112	8
16	16	14
125	125	9
144	145	5
36	37	10
3	4	2
25	71	5
42	42	8
52	52	21
143	143	15
112	113	16
47	47	10
109	110	5
3	3	12
38	39	5
160	163	3
15	16	1
100	101	3
132	137	2
71	71	11
57	57	4
20	20	12
9	9	12
146	147	2
70	97	3
83	86	1
64	64	10
86	86	10
24	24	5
1	1	5
119	129	3
67	105	1
16	150	2
144	144	7
135	135	6
106	108	5
91	91	5
161	162	5
125	126	3
108	136	1
27	28	2
5	7	3
67	67	9
21	21	4
133	145	1
148	148	4
159	160	6
110	110	6
2	3	5
9	10	5
138	139	6
43	43	8
107	118	4
2	2	3
62	62	5
83	83	1
85	86	2
140	140	6
63	64	1
153	153	6
105	106	6
3	136	5
16	155	4
78	79	4
49	49	10
127	128	7
90	93	4
101	101	10
18	105	2
142	143	7
156	159	2
118	118	2
46	46	7
3	24	4
25	25	6
1	3	2
13	149	3
156	157	2
137	137	8
21	22	5
86	93	1
55	56	3
40	40	7
15	15	5
44	45	5
108	109	13
102	102	4
115	115	3
106	106	1
109	109	13
33	33	5
70	70	6
101	102	5
41	41	10
79	79	2
27	27	3
10	10	5
100	100	1
65	65	9
68	69	3
72	72	10
88	88	6
13	13	14
46	52	1
4	4	9
127	127	7
12	14	1
9	12	4
163	164	3
132	138	1
6	6	5
107	108	3
69	118	3
115	116	7
139	140	6
18	19	3
47	48	5
107	107	4
6	18	2
48	48	5
43	164	1
40	41	1
166	166	5
45	45	2
85	85	6
123	124	1
62	63	3
18	158	3
155	158	3
78	78	8
111	112	6
132	132	8
34	34	7
117	117	2
134	135	7
153	154	4
0	2	2
93	95	1
128	128	6
10	158	1
120	121	4
4	5	4
53	54	1
51	51	7
87	87	5
74	76	1
156	156	5
139	139	1
94	94	11
145	146	2
119	120	1
14	14	7
57	58	2
149	149	4
48	50	1
121	122	3
75	75	5
104	104	1
6	12	2
34	38	1
38	44	1
54	55	2
48	49	3
11	143	3
157	158	2
114	115	1
49	53	1
84	84	2
99	102	1
49	50	3
13	15	2
158	159	4
142	148	1
58	58	1
23	73	1
141	141	1
28	28	1
97	97	4
66	123	1
136	138	2
17	17	5
105	105	9
157	170	3
133	136	2
164	165	2
150	150	5
53	53	5
12	13	4
80	82	2
130	130	1
12	12	5
50	51	4
151	152	3
10	25	1
132	135	1
1	136	3
110	116	1
1	2	8
42	117	2
18	107	2
6	8	1
95	95	2
151	151	3
116	117	2
132	133	3
165	165	3
110	111	3
73	73	3
17	19	3
26	27	1
89	90	1
54	111	1
14	15	3
139	165	1
128	130	1
76	84	2
66	67	2
112	114	1
10	12	1
67	101	2
36	111	1
16	17	2
16	154	1
119	119	1
119	121	1
35	35	6
91	92	2
7	20	1
16	18	2
76	85	1
19	23	1
54	54	2
155	155	1
134	134	4
132	136	1
131	132	1
37	37	1
154	154	2
96	96	2
110	114	2
51	52	1
74	75	3
110	112	4
48	58	1
68	106	5
64	79	1
90	91	3
18	18	7
61	62	4
143	146	1
168	168	3
121	121	2
33	34	2
56	57	5
149	163	2
22	22	1
124	124	6
138	138	1
17	18	2
141	142	2
142	142	2
64	108	1
38	38	2
152	153	2
108	108	5
80	81	1
36	42	1
43	160	1
79	80	1
54	56	1
154	163	1
129	129	3
76	79	1
44	46	3
113	113	3
140	141	2
65	125	1
103	103	2
69	120	2
10	11	2
78	98	1
170	170	3
20	103	1
3	128	1
73	77	1
162	162	1
126	126	3
93	94	2
52	63	1
132	141	1
16	55	1
17	159	1
42	43	1
39	39	1
40	45	1
46	47	2
162	163	3
76	88	1
20	21	2
146	148	1
42	100	1
94	96	2
148	149	1
36	38	3
105	114	1
62	127	1
133	134	3
119	132	1
16	107	1
157	157	1
99	100	1
156	170	1
112	117	2
122	122	2
19	19	2
7	8	2
64	65	2
20	23	1
95	98	3
35	37	1
68	112	3
24	26	1
74	74	2
44	44	3
76	76	1
105	110	1
36	36	3
0	25	1
109	112	1
1	24	1
26	37	1
104	105	1
9	107	1
16	108	1
103	104	1
15	55	1
9	131	1
63	63	1
145	150	1
89	89	1
88	91	1
21	103	1
160	162	1
120	122	1
168	170	1
34	35	1
128	136	1
46	48	1
155	159	1
26	53	1
3	5	2
44	55	1
169	169	1
17	106	1
158	158	2
85	90	1
130	131	1
98	98	1
99	101	1
120	120	1
68	88	1
70	71	1
5	8	1
149	150	1
64	69	1
