75	75	8
30	31	7
79	80	10
85	96	3
101	101	21
77	104	2
68	68	12
36	40	3
66	75	4
88	88	11
81	82	2
74	74	11
76	76	15
57	58	1
45	45	6
94	94	3
63	63	6
40	40	6
62	106	2
30	30	19
56	71	2
63	64	4
38	38	5
89	91	3
73	73	18
52	109	5
85	86	6
60	60	4
58	59	7
108	108	9
37	41	1
109	109	27
88	89	6
50	50	5
83	96	4
84	84	5
90	91	5
81	81	6
43	54	4
99	99	13
89	89	4
92	92	18
45	51	3
20	20	6
69	85	2
55	55	5
70	71	6
37	37	13
30	39	2
82	82	6
47	47	8
91	91	6
70	70	12
100	101	16
36	36	17
107	107	4
102	102	9
32	35	3
104	104	18
106	106	9
64	64	8
74	76	1
80	80	15
20	21	6
59	59	14
30	34	4
113	113	12
113	114	10
67	68	2
58	62	5
56	56	10
104	105	7
42	43	4
77	77	13
84	93	4
71	73	1
48	48	9
21	22	2
53	57	2
89	90	12
22	22	4
51	51	14
86	87	6
66	66	11
56	95	2
74	96	2
64	113	2
22	23	4
94	95	3
38	39	6
60	61	2
66	70	3
93	94	6
62	107	5
95	97	2
56	58	6
58	60	3
102	103	2
98	98	14
45	46	3
34	34	4
37	38	3
98	110	3
72	75	5
90	90	9
33	40	3
105	105	9
67	67	5
49	49	22
71	72	8
72	72	11
52	52	4
92	97	4
53	93	1
62	62	7
32	33	3
43	44	3
110	113	4
103	104	6
112	112	7
99	100	5
35	35	10
97	98	1
66	67	1
78	79	5
73	74	14
31	31	8
58	58	3
95	95	5
111	111	6
107	108	7
57	57	10
77	78	2
58	61	2
26	26	6
85	85	8
109	114	2
61	61	6
44	44	14
84	101	1
28	28	5
61	62	9
63	65	5
76	77	9
21	21	10
27	27	9
105	107	2
26	27	2
93	93	7
40	41	7
109	110	12
110	110	19
83	83	5
91	105	2
73	114	3
32	32	6
102	104	2
104	106	3
42	42	5
93	95	7
54	54	6
74	75	4
110	112	2
64	65	4
84	85	3
41	41	8
65	66	10
43	45	3
61	67	1
103	103	8
54	55	2
87	87	13
28	29	2
79	79	14
25	25	4
96	96	13
78	78	3
43	52	1
24	24	5
51	109	4
92	93	1
100	100	19
42	51	1
33	38	1
69	70	5
87	88	9
62	63	2
106	109	1
59	64	2
43	63	2
46	48	3
68	69	8
87	89	6
69	89	1
91	92	8
65	65	3
43	43	6
83	85	8
28	37	2
97	97	4
51	68	3
80	85	2
89	97	5
55	57	2
30	38	3
37	39	5
29	30	3
55	56	5
97	104	4
27	28	3
29	29	5
105	109	2
60	69	3
64	66	1
82	83	4
44	47	2
30	45	2
71	71	5
91	96	2
54	63	5
41	45	2
70	74	4
31	36	3
40	56	1
59	60	3
95	96	3
99	101	3
56	59	6
19	19	4
82	84	2
48	49	1
56	57	1
25	27	2
28	47	1
81	83	1
92	94	2
110	111	2
105	106	3
92	104	2
50	51	1
29	34	1
41	42	4
76	104	1
109	113	2
112	113	3
75	76	3
78	80	1
83	86	2
84	87	3
88	90	4
68	70	4
83	88	3
44	45	1
73	76	1
58	94	1
53	59	2
54	59	2
83	99	1
77	105	1
83	84	3
100	111	1
76	92	3
65	67	4
114	114	2
84	86	2
108	109	2
79	85	2
101	102	2
31	32	1
90	93	1
39	39	2
79	81	3
36	59	4
41	44	1
111	113	1
53	53	1
113	115	1
31	35	1
33	35	1
87	91	1
53	97	1
37	40	1
23	26	2
69	86	1
66	68	1
84	110	2
80	94	1
29	39	1
53	55	1
90	109	1
92	103	1
33	33	3
47	48	2
84	89	1
91	94	1
106	107	1
53	95	1
39	40	1
51	52	1
82	86	1
79	92	1
103	105	1
85	97	1
