99	135	1
103	103	6
56	56	15
84	132	1
186	186	13
55	154	3
65	67	2
146	147	2
100	100	6
10	21	1
164	165	12
15	18	1
175	186	3
52	82	1
72	72	8
96	142	2
26	26	8
36	36	18
165	165	7
7	7	7
121	121	13
47	47	8
42	162	1
162	162	9
84	85	6
187	187	3
22	26	4
32	32	12
134	138	1
101	101	11
77	77	14
100	101	9
108	108	2
139	139	7
33	33	9
152	153	6
2	2	9
12	12	8
164	164	16
159	159	5
145	148	1
172	173	2
93	145	3
57	57	6
86	132	1
167	167	1
48	48	14
27	164	1
101	121	2
12	21	5
15	15	5
38	124	2
81	81	4
57	154	4
39	40	7
158	163	3
79	146	1
40	40	9
6	6	19
14	135	3
29	29	9
69	69	5
45	46	4
152	152	11
4	4	7
161	164	1
149	150	7
59	111	1
65	66	1
20	20	9
66	67	11
150	150	12
113	114	3
61	63	2
160	160	6
89	108	4
107	114	3
86	86	9
171	174	1
106	106	10
10	10	13
46	46	5
75	75	16
185	185	2
69	83	3
144	147	3
146	148	4
94	94	8
18	18	4
148	148	9
109	109	4
146	146	15
76	77	7
177	178	5
111	112	1
136	136	16
110	110	14
2	47	6
125	129	6
119	119	11
25	26	6
101	113	1
32	124	1
30	30	5
153	153	10
83	83	4
93	93	5
173	187	4
45	45	6
52	61	4
99	99	8
84	84	5
26	95	3
103	123	1
44	44	7
98	98	10
160	161	4
132	132	5
66	78	1
72	79	4
104	104	7
72	80	1
155	155	11
79	80	6
17	19	4
27	29	3
35	35	8
91	93	5
58	59	4
133	133	6
111	114	7
92	92	15
48	57	6
33	35	5
67	67	3
30	31	10
151	151	7
79	79	19
130	130	4
41	84	5
37	37	7
31	76	4
128	128	3
38	38	12
101	104	7
82	83	7
116	116	4
10	11	3
151	159	1
43	78	5
28	29	4
91	91	12
79	95	2
142	143	2
56	57	5
13	13	14
182	182	9
139	141	3
80	81	5
170	170	4
0	108	4
96	96	10
28	28	9
107	111	1
175	175	2
31	33	11
81	117	2
84	111	4
0	0	8
173	173	12
5	6	3
53	137	5
81	93	1
21	21	8
184	184	2
64	106	4
167	168	4
5	5	11
24	88	1
78	78	6
162	163	12
22	22	8
161	162	5
145	145	6
87	87	7
90	103	2
74	113	3
132	136	1
130	131	7
173	174	4
85	86	1
85	87	3
89	89	3
73	73	12
46	137	1
57	78	3
89	90	1
39	39	7
10	20	4
17	17	11
36	37	13
54	54	9
129	129	8
112	113	5
135	136	6
70	70	17
25	25	9
55	55	2
154	155	6
95	95	16
46	59	2
122	123	3
35	127	2
31	37	3
169	169	4
168	168	11
151	176	2
3	3	7
74	176	4
36	76	7
62	64	3
63	64	3
79	107	2
66	66	8
99	120	3
42	42	5
21	22	3
161	177	1
86	91	2
88	88	9
99	117	2
110	111	3
66	68	2
153	166	2
159	162	1
76	76	8
60	61	1
82	82	4
112	139	5
101	115	1
63	63	3
53	55	3
102	103	1
137	162	1
2	3	2
118	142	1
12	13	6
68	174	4
103	142	2
124	141	2
149	149	8
53	73	1
56	139	8
68	68	5
6	20	5
117	127	2
14	14	8
149	156	1
67	68	5
29	30	2
60	78	1
118	118	3
189	189	5
25	123	1
96	130	2
97	104	2
124	124	5
41	41	9
149	155	3
156	156	10
180	180	7
108	109	1
177	177	5
4	5	3
92	94	5
78	110	1
92	95	5
120	120	8
22	23	2
31	31	2
11	12	6
59	59	4
77	78	2
126	128	4
9	9	1
148	149	1
134	144	1
151	153	1
62	62	2
172	177	2
154	154	6
65	112	5
74	74	4
65	65	1
17	18	1
73	74	4
7	87	1
70	71	1
120	121	4
183	184	5
180	181	1
46	58	2
171	171	1
48	63	2
80	93	2
64	64	5
19	20	2
105	105	6
42	77	3
34	85	6
53	135	2
144	150	1
11	11	8
106	145	2
188	188	2
0	14	3
61	62	6
9	10	4
16	24	3
19	19	2
71	71	7
97	97	6
126	126	5
47	134	2
108	146	2
38	76	1
4	21	4
43	46	3
40	124	1
31	35	1
134	150	2
117	117	8
176	188	2
71	82	3
7	100	3
106	130	1
8	27	3
129	142	3
166	166	4
188	189	2
43	44	1
60	60	3
127	128	3
179	180	1
181	181	8
161	161	3
114	114	6
123	123	5
172	172	4
142	142	2
96	99	2
113	113	1
6	13	3
103	104	4
150	157	3
94	142	4
106	119	1
61	61	2
156	162	3
106	118	2
40	41	5
154	160	1
172	190	1
114	115	2
12	37	2
99	129	3
73	187	2
166	167	2
54	55	1
164	170	7
1	1	10
131	138	2
58	58	4
48	130	1
15	39	3
120	142	3
15	130	4
59	72	2
179	179	3
30	35	2
176	176	4
23	24	4
24	30	3
65	127	3
151	170	1
140	140	5
82	99	2
137	137	5
82	100	1
104	109	7
143	168	1
107	107	1
41	141	1
98	104	1
12	107	3
47	139	1
147	148	3
66	96	4
16	37	2
100	108	5
53	53	6
85	138	1
102	120	2
130	150	1
127	130	3
155	156	5
53	136	3
95	131	1
7	26	3
155	179	3
136	137	6
93	95	1
24	24	3
58	63	2
64	72	5
93	94	1
90	90	3
26	103	1
63	112	2
190	190	6
163	164	2
163	163	11
8	33	3
156	164	3
13	107	4
70	81	1
168	169	1
115	154	2
141	153	2
18	19	3
122	122	3
157	157	3
27	27	7
55	56	1
46	47	4
44	45	5
7	16	3
125	141	1
112	112	2
105	106	2
137	139	1
43	43	3
44	80	1
170	179	1
15	34	1
85	85	3
55	57	4
117	118	1
150	156	1
65	72	2
5	21	4
90	91	2
41	74	1
174	174	5
61	79	3
188	190	2
73	75	3
32	76	2
64	70	4
11	13	3
37	74	1
41	140	2
147	147	6
143	143	3
114	179	1
69	90	2
18	116	3
36	84	3
124	125	3
80	80	6
91	97	1
64	65	4
82	164	2
28	78	1
176	186	2
142	144	1
114	130	1
146	155	2
94	97	1
32	35	1
148	150	2
113	138	1
14	87	2
81	162	4
4	13	1
171	172	1
121	122	3
116	118	2
71	86	1
108	115	2
68	79	2
69	73	4
15	16	1
113	142	2
64	113	1
100	117	2
23	23	2
107	108	4
187	189	5
32	33	1
54	83	1
129	130	4
102	102	8
94	121	3
41	44	1
133	136	1
112	130	2
17	32	1
34	35	1
147	149	1
15	76	1
125	176	2
2	13	1
79	86	1
126	131	1
158	158	1
58	60	1
69	70	2
59	60	1
21	162	1
32	37	3
87	88	2
99	130	2
117	125	2
92	93	3
141	141	1
73	126	2
189	190	2
181	183	1
115	115	4
7	108	2
137	140	2
116	155	1
120	129	1
35	45	1
14	24	1
1	6	1
126	127	1
181	182	4
144	169	1
17	26	2
86	134	1
135	137	2
175	188	1
114	119	1
136	138	2
12	14	1
118	144	2
160	162	1
169	180	2
1	2	1
122	155	2
13	15	1
69	80	1
16	28	2
0	109	1
136	158	2
79	83	1
77	122	1
95	130	1
16	17	1
115	178	1
126	163	1
107	116	2
68	69	2
88	89	1
53	82	1
97	98	1
150	170	1
4	6	1
38	41	1
3	15	2
94	95	1
133	135	1
37	46	2
42	44	1
132	133	1
83	84	1
41	119	2
138	157	1
15	84	1
112	115	1
68	116	1
107	119	1
70	99	1
141	152	1
41	95	1
19	110	1
162	168	1
87	89	1
82	105	2
169	177	2
0	4	1
48	71	1
108	135	2
48	138	1
125	126	2
27	116	1
135	139	1
122	150	1
32	128	1
0	107	1
28	36	1
140	176	1
169	170	1
120	151	1
96	98	1
54	58	1
100	105	1
94	145	1
53	54	1
95	127	1
116	117	1
20	28	1
59	64	1
29	45	1
156	160	1
27	128	1
110	129	1
133	138	1
78	109	1
26	27	1
173	175	1
71	98	1
47	74	1
49	109	1
182	183	1
72	82	1
156	157	1
100	142	1
135	135	1
2	22	1
