10	10	9
105	106	2
147	147	9
127	127	17
95	96	6
68	68	9
153	153	5
7	7	7
50	93	2
137	139	1
62	67	1
134	134	10
38	78	1
118	118	21
47	47	8
20	20	10
50	51	8
85	85	7
132	132	12
63	75	2
142	142	10
22	22	10
90	90	3
97	97	18
9	9	8
99	99	10
41	42	7
26	30	3
111	112	3
117	118	5
42	42	3
123	124	3
116	116	10
117	117	3
122	122	6
4	5	6
129	130	11
123	141	4
15	15	12
86	87	4
35	35	8
20	22	7
29	29	11
53	54	8
109	110	1
98	98	6
26	26	11
10	11	4
72	77	1
44	45	8
14	15	10
73	73	9
85	86	4
52	53	3
148	148	8
108	111	3
104	104	9
78	78	19
119	119	11
106	106	14
36	36	9
24	24	13
37	37	7
4	4	5
131	131	8
102	102	11
115	115	10
18	19	11
136	136	4
79	83	3
82	83	3
70	70	11
146	146	12
57	57	6
69	70	4
49	49	7
128	128	11
76	76	11
42	150	4
110	113	2
136	138	4
150	150	13
137	137	14
140	141	4
112	113	7
139	139	7
110	110	21
39	40	5
124	124	9
53	53	14
64	64	5
74	74	10
21	21	20
54	54	4
41	41	14
122	129	3
55	56	1
99	120	2
154	154	5
34	34	11
22	24	5
56	56	10
39	41	2
131	133	3
115	118	5
66	123	1
108	108	10
43	92	1
81	82	3
145	145	3
42	43	8
26	34	2
114	117	1
82	82	6
92	92	6
95	95	5
147	148	14
33	33	10
83	83	7
121	121	10
75	76	6
93	94	4
129	129	8
21	22	2
99	122	2
109	109	10
65	123	2
63	64	4
43	45	5
131	132	9
33	37	5
132	133	6
71	72	5
143	143	8
103	103	11
143	144	8
38	38	13
86	86	9
149	149	8
93	93	4
93	107	4
92	93	2
97	107	1
148	149	3
120	120	9
37	38	9
5	5	6
104	113	3
8	8	6
19	19	8
21	31	3
87	87	6
79	79	14
11	11	8
96	115	3
135	135	6
48	48	7
81	81	4
18	18	5
39	88	2
3	11	1
32	34	2
51	52	3
102	109	2
23	23	4
152	152	6
140	140	5
54	55	2
33	35	7
63	94	1
66	66	9
15	16	9
65	65	12
13	13	9
73	75	2
32	35	3
98	99	2
3	3	2
84	115	3
141	142	8
39	39	6
123	123	14
124	137	1
67	67	6
111	111	6
126	144	3
118	135	2
97	98	1
72	72	2
112	112	8
73	74	8
12	13	3
29	30	1
97	115	3
141	141	8
16	17	3
33	34	3
68	70	5
71	71	4
23	50	3
66	68	5
114	114	4
138	139	1
107	108	3
118	131	4
50	50	5
43	44	4
80	83	1
32	32	10
108	109	4
7	8	3
31	54	1
140	148	4
111	113	5
6	6	5
11	12	5
135	137	4
125	125	8
69	124	3
68	69	3
113	114	10
29	35	3
12	14	2
122	147	2
121	122	1
31	32	2
119	122	1
12	12	6
66	67	5
42	144	3
85	115	6
36	88	3
13	17	2
104	105	4
69	69	6
120	122	2
62	62	2
46	46	8
64	93	1
51	51	5
137	138	6
64	141	3
101	106	1
136	137	1
83	85	5
3	122	4
76	78	2
25	28	2
82	85	2
145	152	1
28	30	4
79	93	1
84	84	5
65	66	1
75	75	4
26	27	7
40	40	14
45	46	5
85	97	1
94	94	10
122	138	2
96	97	4
65	68	1
144	144	13
34	38	2
110	117	1
55	57	6
106	107	6
4	12	3
90	98	1
77	77	10
3	70	2
135	136	4
94	95	3
110	111	3
35	36	2
25	25	6
101	103	5
14	14	9
145	148	4
47	49	1
17	17	5
133	133	8
138	138	4
88	88	7
65	124	2
47	67	5
11	32	2
104	137	3
128	130	4
77	78	1
16	16	11
31	31	12
35	90	1
100	101	2
49	50	2
22	23	6
45	45	9
47	68	1
93	95	3
62	63	4
131	134	3
63	67	2
6	8	1
94	132	3
30	30	3
130	130	5
5	6	5
100	106	1
101	101	1
129	136	1
80	80	7
107	107	2
38	40	2
46	47	2
48	50	1
123	135	1
18	21	4
86	120	1
124	125	6
19	20	2
74	80	5
133	134	2
76	77	1
49	120	1
13	110	2
57	83	1
147	149	2
115	116	1
106	109	2
105	105	8
30	31	1
142	143	1
64	139	2
7	10	6
96	96	3
115	117	1
64	74	1
47	69	1
6	14	3
55	55	4
6	7	2
56	57	1
83	84	5
144	145	2
63	63	9
62	81	2
126	127	4
120	121	3
125	127	1
44	44	8
40	48	1
57	69	3
134	137	1
33	52	1
48	49	6
116	117	3
19	62	2
75	78	2
97	99	1
24	25	3
5	37	1
83	115	1
130	133	1
34	37	2
28	28	3
15	17	2
125	137	3
17	18	1
20	21	1
142	147	1
4	11	2
11	23	1
16	18	2
42	87	2
31	33	2
95	107	4
71	73	1
2	3	1
96	132	1
138	152	1
123	136	1
64	66	2
95	97	1
25	62	2
10	12	1
61	62	4
136	152	2
48	56	3
43	43	3
48	53	1
110	129	2
151	151	2
98	127	1
23	24	2
44	46	1
57	81	1
32	54	1
113	113	4
41	43	2
130	132	2
131	146	2
45	84	1
86	119	1
83	117	1
127	128	1
15	62	1
110	112	3
110	114	1
79	99	1
109	114	1
42	95	2
61	61	1
57	75	1
92	94	1
58	80	2
38	39	2
34	35	1
90	92	5
97	116	1
64	65	1
8	9	1
128	129	1
117	141	1
67	70	2
28	29	2
144	146	2
96	99	1
99	126	1
32	52	1
77	79	1
108	114	1
122	123	1
94	134	1
131	142	1
140	147	1
107	114	1
47	53	1
102	103	1
80	81	1
86	94	1
49	51	1
25	50	1
