41	44	1
50	50	23
71	72	13
54	54	12
51	51	17
96	96	18
80	81	13
85	86	5
36	36	30
93	94	13
51	52	6
73	73	26
60	61	2
91	91	25
85	87	4
82	86	5
42	42	12
28	28	9
59	59	8
81	81	25
83	84	6
87	88	9
104	104	37
47	47	6
57	58	2
38	38	26
92	95	1
89	91	4
80	80	23
93	93	19
88	88	26
37	37	19
101	101	22
60	60	15
75	75	33
63	64	14
102	102	18
24	35	4
58	66	1
67	67	23
77	78	11
64	64	30
82	82	13
33	33	15
106	106	16
79	80	16
40	44	3
52	52	22
71	71	22
79	79	21
62	63	4
58	59	2
100	101	13
85	85	16
83	83	11
54	55	9
102	104	3
31	31	26
51	70	3
87	87	26
90	91	9
42	43	5
23	68	1
27	29	4
97	97	13
78	78	8
94	94	21
43	43	26
57	57	20
53	53	24
49	50	1
70	70	31
27	27	16
45	46	7
34	35	4
40	40	21
22	22	15
29	29	15
92	96	1
95	97	2
22	24	7
92	92	18
98	98	17
59	60	6
54	65	2
55	80	3
100	100	20
95	95	17
45	45	28
27	28	4
65	65	24
36	82	2
56	56	23
70	74	6
69	69	11
23	23	23
41	41	9
30	30	12
68	69	10
103	103	20
35	35	25
55	56	6
47	48	13
84	84	25
70	73	1
105	105	28
88	89	13
55	55	25
84	85	3
70	71	13
98	99	5
99	99	24
35	75	5
26	26	8
65	67	1
21	22	4
36	37	5
103	104	5
77	101	2
62	62	23
76	96	2
43	45	1
91	97	1
76	81	3
31	64	2
86	86	15
26	30	3
21	21	21
58	58	13
34	58	2
68	68	14
80	82	2
52	54	4
60	65	7
66	66	14
102	103	8
21	24	2
50	51	4
35	36	2
27	44	4
23	24	9
90	90	19
61	62	6
73	74	4
30	33	3
56	57	5
76	77	6
62	64	3
46	47	8
84	86	5
74	74	19
95	98	2
49	49	7
39	39	10
61	61	27
48	49	3
36	81	3
78	80	3
53	54	8
76	76	16
33	34	7
60	100	1
34	34	10
89	89	13
100	102	4
95	96	8
99	101	3
38	44	1
76	97	8
72	73	13
31	33	2
63	63	6
58	63	5
77	77	18
24	24	16
22	23	2
54	66	2
32	32	15
66	67	14
27	49	3
50	52	3
97	98	5
36	80	1
83	85	3
44	54	3
80	83	4
19	28	1
28	37	1
78	79	7
61	78	1
20	22	6
70	72	2
68	74	11
72	72	17
57	82	6
29	34	3
83	87	8
92	100	2
44	45	1
30	31	5
91	92	3
82	87	2
32	54	1
74	75	2
69	75	1
61	103	1
65	66	6
89	90	3
94	98	3
64	65	10
55	57	1
99	100	4
38	39	6
51	91	1
48	48	4
35	45	4
97	99	4
87	92	3
40	41	3
28	36	2
29	30	4
37	69	1
42	44	8
61	106	3
19	20	4
76	78	1
89	92	2
96	97	3
85	89	5
40	43	1
91	100	1
46	46	2
25	30	2
96	98	2
28	30	1
20	67	3
55	81	1
69	70	6
25	44	1
87	104	4
42	46	2
28	42	2
59	66	2
20	21	2
28	29	2
62	89	1
26	27	7
53	55	4
57	69	1
42	45	5
25	29	2
61	101	1
41	42	3
91	96	1
88	90	1
85	98	2
25	25	5
44	44	3
37	38	2
101	102	3
42	54	2
26	37	1
20	24	2
31	32	2
56	58	3
20	60	2
86	87	2
20	28	1
61	63	2
48	50	1
39	45	1
79	81	1
22	48	1
107	107	1
57	59	2
52	53	2
34	50	2
67	68	3
83	90	2
82	101	1
84	87	4
40	45	1
60	67	1
77	79	3
92	97	1
61	64	2
79	85	1
40	46	1
78	82	1
86	98	1
32	34	1
92	94	1
23	73	1
79	82	3
61	65	2
55	65	1
82	88	1
87	93	1
81	100	1
76	92	1
85	103	2
25	26	1
25	28	1
67	79	1
