55	97	4
45	46	6
86	87	2
182	183	4
13	13	7
165	179	2
135	173	3
158	162	2
130	130	5
133	133	6
95	95	7
165	180	3
177	178	3
135	135	4
183	184	6
125	125	9
176	176	5
38	38	5
57	57	10
104	106	3
38	39	2
54	54	7
168	169	1
58	65	5
77	77	16
152	152	7
83	162	2
186	186	9
92	93	6
86	179	1
92	92	3
178	178	6
170	170	9
67	67	5
132	134	1
134	135	17
70	70	6
188	188	6
156	156	5
65	184	2
100	105	6
151	152	4
171	186	1
180	180	11
90	90	6
10	10	5
41	127	2
58	83	1
162	162	5
134	172	2
66	68	1
87	87	9
141	141	7
35	35	6
23	23	7
106	106	9
37	52	4
172	172	7
116	119	1
114	114	8
91	95	2
174	174	18
40	40	9
142	143	6
48	48	13
13	14	12
5	24	1
25	25	6
11	11	7
134	134	2
179	181	1
118	118	6
128	129	4
84	145	3
132	133	3
150	152	5
181	190	3
18	18	7
82	158	5
20	21	6
137	137	5
167	180	3
4	4	4
91	91	7
103	103	10
14	47	2
42	44	3
85	85	10
23	24	4
19	19	3
102	103	5
18	19	3
161	161	2
4	28	4
40	41	3
63	63	8
6	6	4
82	163	2
52	52	2
24	27	4
117	117	6
177	177	5
107	107	3
138	139	4
80	93	4
74	74	4
5	7	1
64	111	3
129	129	5
114	129	1
151	176	5
128	139	4
25	57	1
133	149	1
1	4	3
10	11	5
82	82	6
88	185	2
64	64	8
144	148	5
108	108	9
98	101	3
170	171	4
29	29	4
32	47	2
66	153	2
100	100	4
36	37	5
124	124	3
111	112	2
58	158	1
43	60	3
143	143	7
116	116	10
165	165	3
169	170	1
89	89	8
11	40	2
158	159	3
12	14	5
14	24	1
122	122	12
171	172	6
82	83	5
80	154	3
157	157	8
89	143	2
120	120	3
135	159	1
97	97	5
142	142	8
6	25	1
81	83	2
53	84	4
16	22	2
123	124	3
4	6	1
123	123	5
74	142	2
0	0	3
187	187	5
60	60	4
164	164	2
0	18	6
20	65	2
131	132	1
54	93	2
76	185	2
17	18	7
94	94	6
171	173	2
37	158	3
34	34	10
108	154	2
88	88	7
31	31	1
108	156	1
104	104	2
164	180	1
75	75	10
21	21	4
171	171	1
110	110	8
106	117	1
112	116	1
37	68	5
39	48	4
21	36	2
24	24	4
36	64	3
144	146	4
153	154	4
91	92	4
83	83	8
176	177	5
77	184	4
46	105	2
72	72	5
6	7	11
64	65	4
2	2	4
183	183	4
84	84	7
1	1	5
178	180	2
72	164	2
27	33	3
151	164	2
73	73	5
84	85	3
164	165	1
129	131	2
12	24	3
148	150	1
31	47	2
61	64	4
70	71	6
72	73	4
3	3	5
48	103	3
55	55	3
54	94	1
81	161	1
148	148	1
121	121	9
89	184	1
113	113	3
132	152	3
79	185	2
184	184	3
144	144	5
169	174	3
92	94	1
12	104	1
52	100	1
39	39	5
115	115	3
183	189	2
132	168	2
55	95	2
28	29	2
139	140	2
20	25	4
75	140	1
138	138	11
57	164	2
47	47	3
17	17	3
139	139	2
96	96	5
88	89	4
145	145	7
21	22	2
5	6	1
135	137	1
140	140	4
30	45	1
180	181	3
133	136	1
15	16	2
36	63	2
18	22	1
39	90	3
11	15	3
19	35	1
24	25	1
32	35	4
87	88	2
149	149	4
44	44	3
56	56	3
63	65	2
14	14	6
1	17	1
32	32	4
42	152	3
185	185	4
33	34	1
26	26	4
177	180	3
74	140	1
111	159	2
65	65	5
78	183	5
66	67	1
25	123	3
91	182	2
58	107	1
81	81	5
113	149	1
4	38	4
150	156	2
53	53	4
61	65	2
77	148	6
16	16	2
77	183	4
169	169	11
81	107	1
79	79	10
149	158	2
151	151	6
28	33	2
97	98	6
41	66	1
37	67	3
189	190	2
174	175	2
172	173	2
116	118	4
179	179	2
42	43	3
43	43	9
16	24	2
181	182	1
34	35	1
58	111	1
14	104	1
91	93	1
152	153	4
28	68	2
74	154	2
184	185	2
24	35	1
71	155	5
125	131	2
80	80	6
91	96	1
107	111	4
101	102	1
30	31	3
74	75	1
45	105	1
32	34	1
46	126	1
4	48	2
101	101	2
27	27	2
62	98	1
5	44	2
149	150	4
42	42	6
111	111	2
128	128	3
91	94	2
108	110	3
37	65	1
41	153	1
108	109	2
93	93	3
82	144	1
106	126	1
15	15	1
14	15	11
19	68	1
10	12	1
139	152	1
153	153	7
81	158	2
59	59	3
93	99	1
28	28	2
99	99	1
65	66	1
168	190	1
71	71	4
42	79	3
80	81	3
62	64	2
84	118	1
30	30	2
155	156	2
62	62	3
20	22	1
13	57	1
37	79	1
154	154	6
129	169	1
163	163	2
77	78	2
146	147	1
117	118	4
31	32	1
103	104	6
32	33	1
5	5	2
133	152	2
82	179	2
73	156	1
95	98	2
166	167	1
58	156	1
63	105	1
62	63	1
91	139	1
133	167	1
41	42	2
56	99	1
132	132	3
122	125	2
135	136	1
46	46	2
147	147	2
45	45	5
136	136	1
14	40	1
187	189	2
86	146	1
36	159	2
62	67	1
59	60	1
61	61	5
36	36	2
41	152	1
61	62	2
53	55	1
0	1	2
35	36	1
116	175	1
41	44	2
42	62	1
167	168	1
72	147	2
106	107	3
33	35	2
145	147	1
74	141	1
78	166	1
57	62	1
154	188	1
86	86	2
110	156	1
9	10	2
109	186	3
54	55	2
154	156	1
84	148	5
58	58	2
22	26	1
115	116	1
131	131	1
135	166	1
66	66	2
153	185	2
137	148	1
13	25	1
184	186	2
64	107	1
112	112	2
154	155	1
98	98	3
161	163	1
159	171	1
42	153	1
80	156	1
128	186	1
104	105	2
150	150	2
173	173	3
12	13	3
15	22	2
73	155	1
60	61	2
81	157	1
69	155	1
188	189	2
26	102	1
112	149	1
18	21	1
155	190	1
58	190	1
22	22	2
54	178	1
5	13	1
157	161	1
74	109	3
84	87	3
27	29	2
126	126	1
37	38	1
57	107	1
79	150	4
22	23	4
11	19	1
84	86	2
71	156	1
181	181	2
61	63	1
161	187	2
56	95	1
182	184	1
13	15	1
168	168	1
69	141	1
89	110	1
85	86	1
157	158	2
20	20	3
59	188	1
68	68	1
155	155	1
161	188	1
70	143	1
101	103	1
62	102	1
54	100	1
166	166	2
154	187	1
157	162	1
55	98	1
63	107	2
36	67	3
55	56	1
76	76	1
59	63	1
26	56	1
78	78	1
61	155	2
161	162	1
29	32	1
79	154	1
1	16	1
54	151	2
173	175	1
117	119	1
5	41	1
57	94	1
7	24	1
47	106	1
73	142	1
133	135	1
79	80	1
164	179	1
58	108	1
122	124	1
139	153	1
132	178	1
150	166	1
