104	104	12
25	25	7
67	67	9
65	66	2
90	98	1
30	30	25
75	75	6
97	98	10
69	69	13
68	68	22
59	72	3
87	88	2
32	32	12
46	47	2
41	42	5
62	62	10
68	69	3
54	54	16
38	39	3
63	63	7
58	59	3
88	99	2
69	76	3
58	58	12
61	61	9
24	24	6
39	39	17
99	99	5
71	103	2
29	34	9
88	88	2
27	49	2
33	33	9
66	98	3
87	87	15
80	80	18
50	50	11
56	92	3
35	35	14
71	72	3
23	23	15
84	84	17
57	57	7
64	64	9
44	44	4
56	89	2
98	99	8
26	26	6
60	60	9
53	53	4
42	42	4
101	101	9
81	95	12
36	37	4
31	31	11
90	90	7
98	98	16
73	73	4
65	65	15
36	36	13
74	74	14
34	46	1
86	87	9
73	97	5
84	85	13
33	34	5
79	88	4
29	29	4
43	43	10
61	102	1
66	86	7
72	73	5
76	77	3
89	90	11
30	33	4
92	92	3
52	52	2
49	82	4
82	107	2
89	89	2
22	22	12
85	85	7
56	56	25
36	51	7
24	106	2
71	73	2
38	38	6
67	69	3
76	99	3
28	30	4
66	91	4
28	28	3
65	77	1
21	21	13
22	99	1
66	72	4
78	78	11
100	104	2
47	88	2
91	92	1
25	45	1
48	48	7
94	97	2
72	99	4
34	36	3
93	93	9
97	97	4
64	71	2
86	86	9
27	27	7
34	34	6
41	41	9
94	99	2
95	95	7
94	98	3
102	102	3
105	105	1
45	45	3
77	99	1
51	51	14
83	85	5
83	83	11
71	71	3
49	74	1
25	26	7
83	84	6
72	95	2
64	92	5
99	101	7
53	54	3
67	68	3
78	89	1
83	87	1
62	63	6
39	42	1
63	89	2
79	79	6
89	95	3
72	72	11
87	100	2
59	59	6
26	27	4
66	66	12
77	77	6
29	30	11
47	47	8
100	100	6
23	26	3
82	82	5
27	28	4
94	94	7
20	20	4
103	103	3
81	81	8
85	87	1
40	40	4
55	55	7
102	106	4
92	93	4
42	44	3
55	56	3
43	45	1
22	26	2
61	62	4
72	78	2
44	97	1
65	86	4
63	66	2
25	43	4
46	48	4
77	78	4
31	106	1
45	100	1
97	99	1
61	63	1
31	39	2
69	70	2
35	50	1
46	46	6
80	82	2
61	72	2
76	76	5
20	21	3
25	39	1
72	89	3
56	88	3
70	70	3
57	58	3
62	103	1
91	91	1
36	50	2
73	93	1
66	80	4
50	74	1
49	49	5
66	92	2
97	100	2
37	39	2
67	104	2
25	40	1
32	33	1
58	90	3
82	83	2
33	36	2
74	91	1
107	107	2
82	87	2
35	36	2
28	39	2
63	65	1
42	43	7
96	96	3
97	106	3
66	95	1
73	91	1
39	43	1
76	78	2
63	64	3
22	25	4
23	46	1
32	37	1
66	67	2
44	81	1
40	80	1
64	91	2
58	63	1
78	90	2
81	82	2
84	105	1
51	52	2
98	101	1
56	57	1
44	79	1
20	99	2
88	89	5
37	37	5
62	67	1
21	99	3
106	106	1
67	79	1
37	46	1
81	106	1
78	85	1
90	91	1
58	91	1
92	97	1
100	102	2
101	102	1
40	95	1
29	46	1
40	41	2
89	97	1
64	76	1
63	102	1
79	83	1
22	44	1
49	92	2
28	29	1
85	86	2
73	74	1
45	49	1
47	48	1
30	52	1
70	73	1
38	52	1
71	89	1
101	104	1
94	96	1
54	55	1
71	102	1
40	82	1
44	99	1
88	93	1
