50	55	1
6	18	5
67	67	6
72	81	5
62	65	2
75	75	6
84	84	7
83	83	3
19	23	3
51	61	2
26	27	2
76	76	2
77	77	8
52	52	8
88	88	5
9	10	2
1	2	5
50	56	6
80	80	2
7	82	7
53	55	1
61	61	10
50	50	7
74	74	5
25	25	3
68	68	3
4	4	6
63	74	6
5	5	3
47	47	5
68	70	5
62	62	7
47	80	2
85	86	6
27	27	4
55	55	1
13	20	2
34	34	2
17	19	2
81	81	21
66	72	1
86	87	5
22	23	5
79	79	5
57	57	30
85	85	10
47	78	3
80	81	5
62	63	3
78	79	2
77	87	1
0	0	3
65	66	2
82	82	4
1	1	10
3	4	6
60	64	3
69	87	2
19	56	2
10	24	2
6	20	7
10	10	2
76	78	1
23	23	3
12	12	1
79	82	4
76	77	2
20	63	2
10	12	3
19	65	2
2	2	7
88	89	1
14	14	8
7	46	2
24	27	5
82	83	2
3	3	2
30	31	3
76	82	1
53	54	8
23	27	1
19	19	8
24	24	7
30	30	7
83	84	1
80	84	2
47	48	3
23	24	7
25	27	2
6	6	10
49	52	1
49	59	4
75	84	3
51	51	3
65	70	3
6	7	4
78	78	7
63	64	2
8	8	4
78	81	1
50	60	1
86	86	3
87	87	5
16	16	6
68	69	4
58	58	10
21	22	1
24	25	1
81	83	1
5	17	3
89	90	1
0	30	1
12	13	3
48	53	4
54	54	4
67	68	3
75	76	4
63	63	2
13	25	1
1	46	3
57	58	2
33	83	1
70	80	2
54	55	3
22	22	2
48	51	2
46	46	1
68	87	1
48	54	1
52	53	2
50	54	3
63	66	2
71	71	6
58	59	2
80	85	2
17	60	1
20	20	4
0	89	3
79	80	2
23	54	4
11	11	4
19	62	1
20	25	2
49	51	1
69	70	1
63	65	3
46	83	1
55	56	1
56	69	1
48	49	1
26	26	5
49	54	4
49	49	2
54	59	1
69	69	2
65	65	2
9	9	1
61	62	1
81	85	8
73	73	1
28	28	3
48	48	2
14	30	1
68	71	2
8	9	5
32	32	1
29	29	3
31	31	2
66	67	3
66	66	3
12	26	2
56	56	3
52	61	1
6	17	3
77	81	2
58	69	2
10	11	1
77	79	1
60	60	1
71	72	1
78	82	1
17	17	2
23	25	1
62	64	1
23	29	1
70	71	2
13	13	1
49	50	1
19	68	1
13	24	1
79	84	1
50	51	1
0	1	1
76	80	2
17	18	1
70	75	1
64	65	1
70	70	1
2	3	1
18	19	1
