81	81	14
60	62	6
35	36	8
230	230	18
60	61	10
151	151	26
154	154	23
218	219	12
158	159	12
73	73	9
210	211	14
23	24	2
16	16	9
65	65	15
217	217	18
170	176	1
109	109	24
163	163	12
45	45	8
30	39	4
169	169	12
200	201	5
206	207	11
216	217	5
68	68	24
36	204	1
19	42	5
214	214	40
159	159	27
57	57	13
112	112	22
119	120	5
22	24	6
221	221	21
185	235	4
247	248	13
64	64	17
89	89	15
61	198	2
246	246	25
156	156	31
227	228	9
69	70	10
80	85	4
72	74	6
110	110	20
194	194	22
113	113	31
215	219	1
57	77	2
105	105	4
195	196	7
147	153	2
44	45	11
176	177	30
11	11	16
219	219	29
47	95	4
245	249	2
208	208	19
60	60	14
202	202	23
51	51	28
116	116	16
111	111	22
84	85	11
239	245	3
31	35	1
58	90	1
56	56	7
108	111	1
236	237	7
71	71	12
40	40	14
85	86	12
174	176	5
33	36	2
178	178	18
85	85	17
175	175	19
58	58	18
234	234	15
190	190	18
69	77	4
31	34	2
51	82	9
69	69	31
43	43	25
117	118	9
12	12	10
237	239	17
54	54	8
189	190	13
165	165	16
192	200	4
117	117	17
70	70	17
242	242	37
34	35	12
93	100	1
178	180	6
221	240	2
240	240	18
153	240	5
26	26	21
4	5	11
0	1	1
176	176	21
10	10	21
27	27	20
203	203	11
54	55	19
119	119	16
222	222	27
236	236	26
239	239	16
21	21	15
189	189	15
173	173	16
113	116	7
80	80	11
200	200	21
61	61	27
166	175	1
162	163	8
186	186	16
187	187	20
157	157	19
196	196	10
166	166	32
209	209	32
14	229	2
66	103	2
169	174	4
97	100	4
180	201	2
6	6	33
46	46	7
99	100	13
205	205	23
106	106	16
192	193	23
51	56	1
193	194	28
202	204	3
192	192	36
37	37	14
210	242	7
25	26	6
212	239	3
117	121	2
195	236	2
207	207	24
44	44	16
242	243	13
87	115	6
78	78	14
48	48	20
238	239	10
179	179	24
159	161	1
66	67	7
52	94	1
78	79	10
23	23	13
67	67	32
144	144	2
189	191	6
152	152	19
199	199	19
8	9	4
168	168	20
155	155	16
167	188	2
204	205	12
28	28	11
57	58	18
228	228	16
53	54	10
108	108	15
107	107	14
30	30	17
31	31	15
161	162	5
33	33	23
53	53	11
58	59	6
184	184	16
201	202	5
95	96	18
162	220	3
21	109	2
91	91	9
245	246	6
224	224	19
7	7	26
159	177	2
50	50	16
215	215	9
34	34	11
35	55	2
105	109	5
165	166	9
25	25	13
118	118	16
233	234	12
115	115	15
7	18	1
42	43	21
152	243	3
220	221	5
109	110	17
53	58	4
68	70	13
188	190	2
64	65	4
88	88	18
218	225	3
203	204	16
113	114	9
42	42	17
197	198	6
218	218	23
120	120	7
41	41	9
243	244	11
198	198	22
237	237	29
97	98	3
181	181	33
220	220	12
38	38	14
216	216	27
84	118	3
101	103	1
158	185	5
241	241	20
19	19	19
232	232	9
10	11	8
240	244	6
247	247	27
114	115	8
167	180	4
6	7	10
86	86	16
146	156	4
162	178	1
82	85	9
52	53	9
162	162	11
172	172	17
153	153	16
204	204	25
195	195	19
170	170	23
213	215	15
87	88	14
170	171	13
227	227	12
29	30	6
211	211	28
214	216	5
95	95	19
226	226	11
179	189	2
150	151	8
114	116	11
231	231	14
241	243	3
150	150	19
232	234	1
243	243	18
116	117	15
49	49	15
228	229	7
63	64	8
182	182	20
160	171	1
50	78	1
29	29	20
98	99	5
239	241	5
22	23	9
101	104	6
234	237	1
81	84	3
167	173	5
165	168	7
76	76	16
169	170	8
245	245	24
75	77	7
215	217	5
3	3	5
106	108	5
119	237	4
191	192	8
77	101	4
76	98	3
102	103	3
112	118	2
59	59	12
98	98	14
241	242	7
51	53	4
158	158	13
7	17	8
180	180	11
213	216	3
229	230	10
55	55	4
172	174	1
237	240	3
53	56	1
248	248	15
210	219	3
83	84	10
52	52	15
69	73	6
103	103	14
82	82	10
191	191	22
32	153	4
84	84	26
166	177	2
206	206	4
180	181	6
74	74	26
97	99	4
73	87	1
230	231	7
90	92	4
20	21	13
102	102	15
163	164	15
177	182	3
172	187	2
73	74	9
193	193	26
164	164	16
107	108	10
38	39	5
156	178	1
198	212	3
100	100	14
188	198	3
34	37	10
246	247	6
72	73	8
205	207	2
49	51	3
62	63	7
89	91	3
182	184	9
147	147	9
227	234	1
248	249	5
175	177	2
196	198	1
77	77	11
199	200	5
79	79	2
162	190	1
235	235	13
112	114	6
174	174	4
54	93	2
4	46	3
65	66	8
172	173	7
171	174	6
237	238	4
173	191	6
87	113	4
79	86	6
203	205	1
72	72	6
194	197	7
192	245	2
210	210	17
26	27	3
92	92	9
100	101	18
198	199	17
212	212	25
213	220	2
146	146	2
197	197	25
96	99	5
223	223	9
178	183	4
208	209	17
196	197	5
168	188	1
33	34	6
186	192	3
35	35	5
194	195	10
40	43	2
105	106	5
101	101	20
214	215	7
225	225	10
188	189	9
19	20	8
22	22	22
213	213	11
77	78	3
8	8	22
169	178	1
67	68	8
226	227	4
54	92	2
216	218	1
240	242	6
96	97	8
1	3	2
241	248	2
191	194	5
235	236	7
48	50	1
229	229	27
160	160	31
192	199	3
99	102	3
183	183	21
161	164	3
13	14	4
238	238	16
185	186	8
0	0	3
15	15	22
216	239	3
37	39	11
207	214	4
55	56	3
200	209	2
75	75	11
53	62	9
202	206	5
179	180	6
171	172	7
92	93	8
114	114	20
107	109	1
225	226	4
235	240	1
30	35	6
44	46	2
83	99	2
88	114	1
197	231	4
160	161	4
115	116	7
99	99	13
41	43	4
80	83	7
49	50	13
162	232	2
75	76	11
184	185	14
172	191	3
21	229	3
174	175	6
6	17	1
42	55	1
209	210	3
167	202	2
212	213	6
178	181	2
201	204	3
190	191	10
163	165	2
118	119	5
182	183	6
167	181	3
157	185	3
232	233	7
83	83	9
24	24	10
201	201	25
9	10	6
36	36	9
19	31	1
157	209	1
164	204	4
167	168	8
104	104	7
59	60	8
83	100	4
145	145	9
210	215	3
106	109	2
12	15	2
58	81	2
9	9	9
225	231	4
197	200	5
111	112	6
87	87	5
61	62	6
86	88	7
76	77	5
5	6	3
185	185	11
4	6	3
212	216	1
27	180	2
225	234	3
246	248	3
4	47	3
146	152	2
171	171	14
176	185	2
66	66	11
110	111	6
174	191	5
106	107	2
111	248	2
209	221	1
96	96	13
165	177	3
14	100	2
213	214	13
158	175	2
47	49	1
111	245	2
167	167	12
195	199	4
249	249	3
2	3	2
165	232	4
71	72	1
159	170	4
151	155	3
185	207	7
202	203	6
208	210	4
80	81	7
188	188	17
62	67	1
175	176	13
221	225	3
187	190	5
4	4	12
33	40	3
109	116	2
61	78	3
32	32	9
210	214	4
15	16	7
161	244	1
151	166	2
205	206	3
3	6	4
57	59	1
58	75	4
30	34	6
50	81	2
89	112	4
39	40	4
18	18	4
161	161	10
46	94	3
48	49	12
203	226	2
151	192	4
13	13	1
39	39	5
111	172	4
46	78	1
5	14	4
224	225	8
18	30	3
149	149	8
54	57	9
90	91	10
181	184	3
190	192	2
163	184	2
238	240	3
216	219	1
97	97	14
117	236	1
52	58	2
176	182	8
153	168	1
162	164	6
2	12	1
51	79	2
90	90	6
42	44	2
223	225	2
183	184	5
82	103	1
178	179	13
56	60	1
89	120	2
112	113	6
154	155	3
107	111	1
165	233	2
187	209	4
37	38	3
15	212	1
192	194	4
58	60	4
217	242	5
2	188	5
157	177	3
20	118	2
209	215	2
199	211	2
1	1	3
14	14	12
19	230	1
186	200	4
70	76	5
20	22	1
226	231	1
60	75	2
35	38	1
226	233	2
243	245	3
94	94	10
192	246	3
66	166	1
121	121	2
208	238	2
195	197	4
179	207	1
173	174	3
159	160	9
63	63	10
20	229	3
145	152	1
233	233	5
217	218	6
159	242	4
107	172	1
212	220	4
2	2	10
19	35	1
177	177	11
187	192	2
186	187	4
244	245	4
20	20	21
5	5	10
211	218	3
163	185	3
56	74	1
46	66	1
96	105	3
101	105	1
96	98	4
17	17	10
70	71	4
5	19	2
4	12	1
157	163	2
67	102	2
157	158	10
38	40	3
26	29	5
153	155	2
59	62	5
51	92	3
52	67	1
236	241	3
160	241	2
168	178	4
62	62	7
163	177	1
231	232	1
153	154	5
59	61	5
111	117	1
45	62	1
214	217	5
45	52	3
26	54	2
93	94	3
183	186	3
23	41	1
28	36	2
53	67	1
156	190	1
54	60	7
69	71	2
30	37	4
49	79	4
215	216	9
25	30	1
89	90	3
181	182	7
75	106	1
182	208	3
35	65	1
185	208	4
179	185	2
202	226	1
17	38	1
41	42	1
70	151	2
8	10	3
175	209	1
240	241	1
178	184	2
59	79	2
174	186	5
24	25	2
183	210	4
97	102	3
10	87	2
204	242	2
47	50	2
240	245	6
211	212	5
199	208	8
244	244	12
242	246	1
110	115	1
52	54	6
83	85	1
80	105	1
110	113	3
212	221	2
181	183	1
25	29	3
150	198	3
79	80	3
55	59	2
166	208	2
166	167	2
2	4	6
102	202	3
71	74	3
218	221	3
171	184	5
76	96	2
178	243	2
51	55	3
17	162	2
144	145	4
76	78	4
77	79	2
82	83	2
152	153	3
20	120	2
94	95	4
188	199	2
210	212	4
153	182	1
220	222	7
6	8	2
238	246	1
179	221	5
91	92	2
18	20	3
32	149	1
94	98	2
40	41	3
157	187	1
201	206	1
60	63	1
179	206	1
160	234	1
150	154	1
80	82	1
33	37	4
86	87	4
35	37	1
46	48	1
17	37	2
165	170	4
157	178	1
195	212	2
149	179	2
193	198	4
175	208	1
236	238	4
165	167	1
59	80	1
211	239	2
198	206	8
182	209	3
75	78	1
151	183	1
79	102	3
45	60	1
205	241	4
165	178	1
62	78	1
51	57	1
161	165	1
56	57	6
88	94	3
41	205	1
145	149	2
184	224	1
16	46	2
93	93	3
197	199	8
7	12	2
194	196	2
180	183	3
219	220	2
119	236	3
156	211	1
209	242	2
55	92	2
170	184	4
201	226	3
113	144	1
90	95	4
27	28	2
166	202	2
60	104	2
61	103	2
48	64	1
222	223	2
108	110	2
169	172	1
99	101	2
152	245	1
86	89	1
18	40	1
64	107	2
239	240	2
165	190	1
67	100	1
201	203	5
209	213	2
152	157	2
192	198	2
231	234	1
183	185	2
195	198	2
218	220	5
46	95	2
229	232	1
11	17	1
160	167	4
7	8	4
84	99	1
83	87	2
68	168	1
185	236	1
50	68	1
59	78	3
110	112	1
115	117	2
118	120	2
59	155	3
212	219	2
38	108	1
101	102	3
224	226	1
112	120	1
210	244	1
52	65	1
81	82	5
94	97	1
110	117	3
191	246	2
36	38	1
162	165	2
157	166	2
17	20	1
57	76	2
85	89	3
165	234	1
16	17	1
193	195	2
22	37	2
12	52	2
32	201	1
213	217	2
230	233	4
158	176	1
30	36	1
56	59	2
156	191	1
47	63	1
147	157	1
88	89	4
184	190	1
185	223	2
225	230	2
22	38	2
4	14	1
6	12	2
74	75	5
69	108	3
149	150	1
112	119	2
61	91	2
50	76	2
79	105	1
82	84	1
47	47	5
104	105	3
146	164	2
71	173	1
5	15	2
156	157	1
223	234	1
166	171	2
160	162	1
30	31	2
212	235	5
194	198	1
177	208	2
169	173	3
69	72	1
193	197	1
91	93	1
209	211	1
156	160	2
69	76	1
55	80	1
187	188	1
114	172	1
9	52	1
28	29	2
80	147	1
21	200	1
193	199	1
223	224	2
14	49	2
92	98	2
75	102	2
212	236	1
31	36	1
233	236	2
244	246	3
4	49	1
145	155	1
84	91	1
163	171	1
52	66	2
206	222	2
163	170	2
221	222	1
206	225	1
169	187	1
168	169	1
203	228	1
25	55	1
30	38	1
145	233	1
24	40	1
165	220	1
161	163	1
83	119	1
111	173	1
243	246	1
70	153	1
172	175	3
180	184	2
47	48	2
217	220	1
174	181	2
94	100	1
79	81	1
161	231	1
115	181	2
3	4	2
221	227	2
174	188	1
193	246	3
220	223	2
147	193	1
29	31	2
10	14	1
59	64	1
178	185	1
166	184	1
81	102	1
208	244	2
48	63	1
47	98	2
79	82	1
47	96	1
76	81	2
211	213	5
179	183	1
94	178	1
215	218	1
231	233	1
211	219	2
51	94	1
55	58	1
29	38	3
32	33	2
187	189	1
172	190	2
85	88	1
157	176	2
17	39	1
98	101	3
98	100	2
234	235	1
14	50	2
188	197	3
207	216	2
80	84	2
14	15	3
88	113	1
156	167	2
17	44	1
186	191	1
78	98	1
194	199	2
115	180	1
66	68	2
228	232	1
70	108	1
158	165	1
30	44	1
108	246	1
117	119	1
188	216	2
187	218	2
175	186	1
18	43	2
161	233	1
169	171	1
50	64	1
183	218	2
213	223	1
147	149	1
103	104	1
213	222	1
245	248	1
17	36	1
245	247	1
27	156	1
152	154	1
51	52	1
103	107	1
51	80	1
108	157	1
160	236	2
47	65	1
191	193	1
64	77	2
68	78	1
45	46	1
167	171	1
25	41	1
164	181	1
185	187	1
24	37	1
19	30	1
165	171	1
33	42	1
211	237	1
231	237	1
241	244	1
238	248	1
60	76	1
21	22	1
39	41	1
151	171	1
79	94	1
152	177	1
226	238	1
173	188	1
163	166	1
54	56	1
177	181	1
227	233	1
204	207	1
89	95	1
209	214	1
166	168	2
78	107	1
210	213	2
60	207	1
160	231	1
157	160	1
160	177	1
158	160	1
177	234	1
57	61	1
164	177	1
61	102	1
93	103	1
28	37	1
213	218	1
19	22	1
157	208	1
3	14	1
202	205	1
168	206	1
