52	63	4
57	57	18
90	90	8
2	2	18
10	10	24
24	27	2
27	27	21
2	3	4
29	30	3
72	73	11
4	5	4
1	1	21
72	72	19
67	67	28
11	11	35
21	23	6
34	34	8
74	75	6
69	69	27
86	86	35
6	7	12
51	51	10
46	48	3
59	59	6
75	81	1
67	68	7
7	7	6
47	47	10
84	84	10
77	77	7
9	10	1
8	9	4
66	66	13
57	89	3
19	23	2
88	88	11
62	63	7
9	13	5
69	70	1
29	29	4
30	30	23
64	64	4
68	68	13
70	70	11
83	83	10
81	81	15
15	16	11
85	85	22
1	2	4
75	76	4
63	63	8
62	80	1
54	55	11
51	81	1
79	80	11
23	23	26
60	61	2
19	19	13
81	82	7
89	89	14
87	87	19
11	12	7
48	48	7
66	67	7
25	26	1
4	4	26
0	0	7
55	74	1
78	79	9
19	20	8
80	80	21
22	22	5
5	5	10
31	31	20
14	15	4
20	20	10
60	60	5
56	61	5
3	3	17
8	83	4
56	73	4
30	31	7
64	65	1
8	8	13
7	8	7
55	77	1
53	54	3
82	83	3
73	74	3
66	70	2
52	65	5
21	21	10
51	52	10
6	6	9
12	13	8
60	64	6
52	52	2
82	82	5
74	74	15
76	76	5
9	9	6
33	33	2
12	12	16
22	23	11
58	58	22
0	6	1
71	71	12
49	53	2
70	71	2
80	81	8
10	11	5
73	73	13
87	88	3
58	60	4
9	22	1
49	50	3
3	4	8
13	15	8
0	2	4
55	61	3
11	14	4
47	48	2
20	89	1
61	61	4
22	31	1
79	79	2
6	17	4
15	15	17
14	14	13
26	27	5
56	66	2
75	75	6
55	55	13
49	51	2
53	71	2
5	17	3
63	65	4
48	53	1
52	82	3
0	89	3
5	8	3
12	17	6
56	56	26
49	49	6
5	83	3
17	17	6
75	78	5
21	26	3
28	28	6
0	1	6
18	18	2
46	47	4
5	6	4
31	32	1
12	16	3
48	49	5
24	24	9
85	86	3
76	78	1
25	25	8
11	13	1
31	49	3
23	26	7
63	66	2
78	78	4
50	81	1
55	56	5
24	25	3
71	82	1
54	76	1
84	85	3
60	62	2
13	13	9
53	53	9
65	65	8
21	22	3
54	82	1
65	69	1
4	9	2
10	13	5
48	85	1
4	47	1
8	21	2
65	77	1
12	47	3
65	66	2
62	62	6
69	73	2
58	71	1
5	84	3
75	80	1
46	46	1
8	48	2
62	65	2
12	46	2
26	26	8
56	65	5
64	79	2
47	52	2
77	78	3
65	70	1
10	12	3
56	81	2
63	64	3
58	59	2
47	72	1
14	28	2
76	77	3
72	81	2
54	71	1
71	74	2
26	31	2
53	55	1
61	62	1
12	18	1
56	83	1
9	15	1
81	83	1
50	50	2
10	14	1
17	18	1
57	58	1
5	82	1
52	64	1
53	78	1
56	63	1
26	46	1
60	63	1
6	83	1
23	27	1
77	79	1
10	46	1
50	86	1
