10	11	12
48	78	7
62	65	1
10	10	13
7	72	7
28	28	10
80	80	11
75	75	15
35	35	30
12	12	7
78	78	21
27	27	19
8	70	3
68	70	6
69	69	6
72	73	2
36	36	8
71	72	13
64	65	13
41	41	10
7	7	30
26	26	14
55	55	23
57	57	5
11	11	23
48	48	12
66	66	5
56	56	8
1	2	4
53	53	4
1	1	12
67	67	3
5	5	6
2	2	20
13	13	5
7	8	4
61	61	8
29	29	8
57	58	4
58	58	12
62	62	11
68	69	4
60	61	9
37	39	3
68	68	16
56	57	7
3	3	13
9	10	6
74	74	19
58	59	4
1	6	3
63	64	6
2	3	16
77	77	12
8	8	12
31	31	24
16	17	2
79	80	6
70	74	2
68	74	1
38	39	15
76	76	19
17	17	13
36	70	4
42	42	17
55	56	8
39	39	14
6	7	6
32	33	9
18	18	7
19	19	5
72	72	6
25	26	2
54	54	12
39	40	1
65	65	2
9	9	6
47	47	18
73	73	20
42	43	8
37	37	12
47	70	3
33	39	6
49	49	16
70	71	11
38	38	18
10	69	1
4	4	10
32	32	10
14	14	4
12	13	5
30	32	3
35	78	6
62	64	4
9	72	1
49	51	1
70	70	8
37	38	7
35	36	2
73	74	3
63	63	9
46	46	3
69	71	4
36	37	3
16	16	10
33	34	6
33	33	8
45	45	4
71	71	17
5	72	2
21	32	2
29	30	2
44	44	2
13	14	6
59	59	15
8	9	4
0	1	2
52	52	7
60	60	4
64	64	9
11	70	7
40	41	8
30	30	8
54	65	2
15	15	5
5	10	1
67	68	5
7	9	4
15	16	2
17	47	4
2	47	3
31	32	9
61	62	6
9	71	1
79	79	9
11	13	1
14	15	5
32	39	5
66	67	3
50	50	13
28	29	1
18	35	2
55	65	1
37	71	1
11	12	5
6	6	9
63	65	3
30	35	3
53	62	1
31	33	1
49	50	4
6	44	1
36	63	3
36	40	1
48	79	3
47	61	2
53	54	8
14	31	2
12	66	6
0	0	4
22	22	3
49	52	2
35	37	2
40	40	5
3	4	4
5	6	8
19	20	1
69	70	2
67	69	4
50	51	2
63	66	2
55	61	3
48	55	1
34	34	4
27	28	1
34	37	4
25	25	3
76	77	2
2	4	4
6	8	1
68	73	3
20	20	6
21	53	1
30	33	1
25	55	1
21	26	1
21	21	2
6	71	2
75	76	3
77	78	1
35	42	1
59	60	3
47	48	2
39	61	1
48	69	2
21	22	1
37	72	1
36	66	2
68	71	1
20	26	1
54	55	3
56	59	1
51	51	2
4	5	1
71	74	2
47	78	1
19	21	1
9	68	2
55	66	1
63	69	2
60	62	1
35	60	1
17	18	1
