129	129	3
134	134	1
61	62	5
27	30	1
28	28	2
46	46	1
41	41	2
125	125	3
140	140	4
80	121	3
130	133	3
21	22	2
5	44	10
55	95	2
47	47	2
32	32	3
183	183	2
107	108	4
46	48	3
72	72	5
95	97	2
156	156	2
89	89	2
10	11	3
110	138	3
124	124	4
72	82	1
104	104	2
92	93	2
134	137	2
92	92	4
101	103	3
167	167	1
19	20	2
0	54	1
108	148	2
25	25	1
119	119	2
186	186	5
101	101	1
141	144	1
149	149	4
26	26	3
113	114	3
7	7	7
46	93	1
100	100	4
54	95	2
142	143	1
40	41	1
1	1	5
112	112	3
23	24	1
138	138	6
142	142	4
42	42	1
108	109	5
163	165	3
39	39	5
60	60	2
40	40	3
164	164	1
90	90	3
54	60	1
20	20	9
57	57	1
170	183	1
178	178	2
130	138	2
174	184	4
57	68	1
29	29	2
185	185	3
78	78	2
117	117	1
45	45	3
71	71	2
11	11	3
111	111	1
83	83	5
33	34	1
3	17	2
74	74	1
136	139	1
22	23	2
174	175	3
70	74	2
160	160	2
43	82	2
178	183	1
98	98	1
3	3	1
168	168	2
99	99	4
15	15	1
123	174	2
112	171	2
166	181	3
158	186	2
29	32	1
65	67	1
150	150	5
10	10	2
79	119	3
171	171	1
82	82	4
120	120	2
157	172	3
112	150	4
134	158	1
123	128	1
130	131	2
14	14	1
141	185	1
165	165	4
154	154	2
12	12	1
130	130	3
73	149	3
95	95	3
10	24	1
139	139	1
115	120	1
114	187	1
68	70	2
58	58	3
155	167	1
22	31	3
187	189	2
8	17	1
116	123	2
3	4	1
116	116	1
35	36	3
102	102	1
173	173	2
140	185	1
13	17	1
129	185	1
5	16	1
66	129	2
43	66	1
169	169	1
184	184	2
103	103	1
109	110	3
24	24	5
190	190	1
36	65	1
81	122	2
11	20	1
79	86	1
136	136	1
66	67	2
179	179	2
123	123	1
33	33	1
87	103	1
112	172	1
38	38	5
82	83	3
11	14	1
131	133	1
125	126	2
163	163	3
155	155	1
118	118	1
67	67	1
135	135	2
70	73	2
164	165	1
56	58	2
83	84	1
27	27	2
20	21	1
187	187	2
162	162	3
145	150	2
121	122	2
146	146	2
175	175	1
176	176	3
102	103	1
140	141	2
143	187	2
106	184	1
5	13	1
34	34	4
181	182	1
78	92	1
57	65	1
115	116	1
63	113	1
9	80	1
132	132	1
96	96	1
69	69	1
179	180	1
145	169	2
106	110	1
26	55	1
147	147	1
11	13	2
111	112	1
110	110	1
156	170	1
140	186	1
157	158	1
102	140	1
170	177	2
145	177	1
137	158	1
27	29	2
31	33	3
64	64	1
188	188	1
81	140	1
186	187	2
26	58	1
23	23	2
26	36	1
29	30	1
184	187	1
32	33	1
152	152	1
139	167	1
53	71	1
110	169	1
58	62	2
109	155	2
4	36	1
66	66	2
83	126	1
125	142	1
182	182	1
17	17	1
91	91	1
104	105	1
107	107	1
36	36	1
53	85	1
43	44	1
94	94	1
164	175	2
30	34	1
75	75	1
62	62	1
86	86	1
156	163	1
68	68	2
127	127	1
127	128	1
130	158	1
138	185	1
104	137	1
171	173	1
101	151	1
