74	74	19
32	33	4
67	68	2
36	37	5
96	97	3
26	26	4
50	52	5
36	36	11
47	47	2
90	90	4
53	68	1
82	82	5
87	88	4
100	100	8
41	42	4
75	76	6
32	36	4
68	68	2
80	80	2
25	25	2
33	33	4
50	51	7
98	98	11
53	53	11
63	64	2
55	75	1
111	111	6
83	83	7
38	91	2
24	26	2
48	51	1
72	72	4
74	83	2
30	31	5
96	96	12
56	56	6
69	70	6
22	22	9
67	67	8
67	71	1
97	97	5
73	74	2
84	84	6
39	39	9
106	106	6
52	52	1
46	46	4
109	109	9
47	48	5
53	54	1
85	85	3
32	32	4
33	42	4
102	102	11
31	32	1
70	71	3
104	105	2
60	60	4
53	67	2
66	66	1
33	34	8
34	34	8
52	60	3
91	91	1
114	114	8
76	76	7
57	57	2
86	87	4
110	110	13
30	30	5
54	54	4
29	30	6
68	76	1
42	42	1
78	78	2
41	41	6
23	23	2
55	56	5
97	100	1
91	92	2
50	50	6
63	63	3
45	48	3
89	89	2
47	49	5
59	76	2
68	70	2
33	41	1
94	97	1
77	77	4
73	73	5
78	79	3
27	28	2
43	43	6
44	44	1
106	108	1
51	52	5
37	37	8
58	58	4
99	99	1
31	31	4
81	82	1
38	38	9
21	21	3
99	100	2
56	59	1
87	87	2
46	47	2
48	48	5
101	103	2
58	76	2
86	86	1
79	79	3
95	95	5
112	112	2
97	98	3
42	44	2
107	108	1
24	24	2
43	44	5
49	49	1
66	67	4
114	115	4
113	113	2
51	51	1
62	62	6
108	108	3
107	107	3
35	36	2
22	23	4
94	94	1
22	24	2
105	106	1
31	35	1
35	91	1
28	28	5
45	88	1
57	58	3
20	21	1
74	75	1
55	72	3
105	105	3
27	27	1
75	75	4
77	78	1
71	71	3
103	103	2
85	88	2
62	63	1
80	92	2
54	76	1
95	96	1
55	57	1
102	103	1
109	111	1
42	50	1
92	95	3
64	87	1
93	93	1
21	22	1
28	32	1
45	45	1
36	93	1
53	76	4
58	92	2
36	48	1
38	39	1
94	96	2
81	81	2
84	88	1
76	77	2
112	113	2
37	38	1
95	97	1
42	43	2
25	26	2
33	36	1
92	93	1
72	78	1
55	76	1
61	62	1
70	70	1
35	35	2
104	104	1
101	102	1
69	69	1
64	86	1
59	59	1
92	92	1
