127	143	4
22	22	13
68	68	12
27	27	7
18	18	2
80	80	7
4	4	5
125	125	12
78	78	2
145	145	6
17	18	2
135	135	6
119	119	6
99	100	5
91	91	3
0	1	1
0	0	9
31	31	12
36	56	3
77	77	1
17	17	7
99	125	3
111	111	5
39	40	3
121	121	5
82	83	2
127	127	13
19	19	6
10	10	9
54	54	1
104	104	6
121	131	1
62	62	11
115	116	8
129	130	6
65	66	4
96	144	1
55	56	2
38	38	7
106	108	3
79	90	2
62	63	3
137	137	8
48	48	4
15	15	1
122	132	4
81	81	8
32	32	6
88	97	1
118	118	9
41	100	2
126	126	4
37	39	1
25	25	12
53	53	7
70	70	2
98	99	2
119	143	1
124	124	11
30	33	2
47	47	6
101	101	14
140	140	17
142	142	6
141	142	3
66	66	3
16	16	2
113	114	6
52	52	1
127	129	2
47	48	5
134	134	7
120	140	1
65	65	12
106	107	5
131	131	11
39	107	2
132	132	5
141	141	14
107	112	2
127	131	4
123	123	9
75	76	4
50	50	9
58	58	4
92	93	2
86	110	5
108	109	1
76	76	4
78	109	4
24	24	5
128	129	1
103	103	7
68	70	5
23	23	7
52	53	1
2	3	3
39	39	7
37	37	7
11	11	2
122	124	1
62	94	3
117	117	7
63	63	4
136	137	3
92	116	2
123	124	2
59	59	4
27	28	6
90	91	3
137	138	2
89	90	4
133	134	5
93	93	6
42	42	4
127	132	2
85	86	3
91	128	1
29	29	17
125	126	4
32	34	2
144	144	11
122	123	7
30	30	10
107	108	4
106	106	1
112	113	4
92	92	3
130	130	7
10	11	5
84	85	6
71	71	3
24	26	4
90	114	2
34	36	1
110	119	3
107	107	3
13	15	1
39	110	3
91	94	1
111	112	3
33	34	4
63	64	1
115	118	2
61	61	7
37	38	6
2	32	1
34	35	6
50	58	3
114	134	4
119	127	4
28	28	7
5	6	2
5	21	2
79	80	2
114	114	2
23	24	3
136	136	8
2	2	3
112	112	2
88	88	3
33	33	1
34	34	3
132	139	3
38	39	4
128	142	2
115	115	5
79	84	1
60	60	4
81	119	1
35	37	3
1	1	2
67	67	10
126	137	2
58	75	6
15	16	1
49	50	3
95	95	4
34	37	2
48	61	3
128	128	10
17	61	2
75	75	3
115	129	2
93	96	1
50	60	3
39	106	5
13	24	1
98	98	1
5	9	2
41	41	3
141	144	5
109	110	1
116	119	1
129	129	9
29	80	1
38	41	1
9	9	10
85	85	1
100	100	1
22	25	2
108	134	2
4	5	4
119	121	2
113	116	5
139	140	6
127	128	1
55	55	2
103	116	1
98	100	1
40	101	2
135	137	3
79	79	2
122	122	3
70	71	2
109	109	1
83	111	2
133	133	7
12	12	5
4	6	1
21	21	4
115	121	2
135	138	1
22	23	4
145	146	5
16	17	1
20	20	4
69	73	2
36	36	1
120	120	7
73	73	1
59	60	3
142	144	2
70	89	1
80	87	1
84	141	2
97	98	2
132	133	3
71	72	2
96	96	1
58	61	1
146	146	2
58	59	1
130	131	3
5	8	3
64	78	1
142	143	3
42	57	2
42	55	1
124	141	2
89	89	1
15	20	2
134	137	1
24	25	1
74	74	2
127	130	1
7	20	1
40	40	2
26	26	3
3	12	1
133	139	1
38	111	1
121	122	3
139	139	4
96	115	2
125	143	2
86	86	2
99	102	3
91	92	3
99	99	1
66	67	2
64	65	1
116	127	1
33	35	1
67	68	2
108	120	1
64	64	2
57	57	1
81	82	2
124	145	3
87	87	1
73	75	2
3	4	3
118	127	1
26	27	2
116	117	1
143	144	1
54	55	2
117	144	1
40	88	1
138	138	5
118	119	2
68	72	2
110	126	1
113	113	2
105	105	1
8	11	1
27	144	1
100	101	2
113	115	1
40	41	1
118	143	1
58	76	1
71	73	1
49	51	1
9	10	1
102	103	1
102	130	1
128	138	1
53	54	2
120	130	1
134	135	2
107	109	1
29	32	1
5	5	1
125	146	1
69	69	1
49	49	1
78	82	1
8	8	1
134	136	1
83	86	1
53	67	1
9	11	1
8	9	1
94	97	1
123	141	1
94	94	1
58	68	1
133	143	1
131	133	1
99	105	1
