51	51	12
192	192	20
18	18	8
30	37	6
124	124	15
21	22	3
166	166	15
175	175	18
3	33	6
68	68	2
156	156	17
27	27	12
196	196	14
23	23	15
16	87	5
179	179	16
139	139	6
36	36	10
57	58	9
63	63	3
184	184	10
158	158	17
194	195	5
189	189	7
17	47	6
67	69	1
39	39	17
141	141	21
170	171	3
116	117	5
126	126	2
50	50	9
17	18	3
166	167	7
188	189	2
61	62	3
117	117	13
172	173	3
40	40	6
8	78	5
155	155	17
182	182	25
143	143	10
107	169	2
30	30	12
121	121	13
197	197	5
47	48	3
172	172	23
10	10	17
165	167	6
69	69	7
13	13	16
152	152	18
150	150	13
98	99	5
5	6	5
114	114	18
2	29	5
107	107	12
47	47	20
122	183	4
43	44	6
144	146	6
56	81	5
25	37	2
135	154	2
170	183	2
168	190	4
94	176	2
83	83	7
20	75	1
134	146	3
125	125	17
164	164	9
28	29	9
96	97	4
57	57	14
129	129	2
31	31	3
22	88	3
66	66	4
113	121	1
178	180	3
127	127	10
122	122	16
49	49	18
11	11	23
165	165	11
93	93	6
11	46	2
110	110	8
167	167	9
74	74	7
124	125	7
176	178	4
70	70	19
174	174	11
144	144	17
195	195	15
102	102	12
29	29	9
162	164	6
94	96	2
65	65	1
14	14	7
103	104	4
5	45	3
32	32	10
17	89	1
193	193	6
55	55	7
99	99	7
171	171	9
37	37	4
31	72	1
121	126	3
54	54	13
147	148	4
160	163	3
8	8	12
22	22	7
14	45	2
24	24	11
119	141	2
79	80	2
76	76	3
148	179	1
27	34	9
123	123	9
106	106	6
193	194	9
4	20	1
117	119	6
153	158	1
148	149	2
56	56	7
154	179	1
52	52	6
104	105	3
62	64	1
158	160	4
108	108	14
118	134	3
187	189	3
46	47	1
8	65	4
34	35	3
103	103	6
113	113	10
59	61	4
39	40	6
186	186	18
31	69	2
138	138	23
175	176	3
83	84	8
20	74	8
106	165	6
112	112	13
190	190	16
149	149	12
17	36	4
168	168	13
9	9	11
33	36	1
143	161	3
6	6	8
86	88	3
41	85	3
142	143	5
21	21	6
181	181	10
126	194	2
187	187	10
97	97	5
65	66	2
53	53	14
137	137	6
43	43	12
107	142	4
73	73	10
87	87	10
27	111	2
106	107	1
173	173	15
26	26	10
3	4	4
167	173	3
79	79	6
82	82	11
117	137	8
168	189	1
88	89	4
136	136	13
4	30	2
128	128	14
160	161	3
30	63	1
161	161	8
133	145	7
42	42	12
11	43	2
6	85	1
40	41	5
6	66	1
48	48	16
2	35	2
170	170	29
149	150	2
41	45	6
122	144	2
142	154	2
95	95	6
111	111	5
133	133	9
63	64	6
147	147	4
170	182	2
67	73	7
1	1	5
82	83	4
139	165	6
115	115	21
180	180	9
122	123	8
77	78	5
105	105	12
10	17	1
23	25	4
44	44	10
6	7	13
104	104	8
163	164	5
139	140	4
158	176	1
121	122	9
7	8	5
145	145	6
135	139	2
146	146	10
194	194	7
120	121	2
117	182	2
113	114	2
0	0	6
157	157	6
179	180	5
26	34	4
60	63	2
41	42	7
187	188	4
5	7	3
163	163	13
182	185	2
39	73	4
136	137	2
26	27	3
134	159	2
154	159	2
145	146	3
191	191	13
75	76	3
36	63	1
3	3	7
25	26	3
54	56	2
3	61	1
131	131	10
141	165	2
118	118	10
16	18	7
181	184	8
3	37	3
119	133	3
164	187	1
12	12	11
101	119	1
75	75	2
38	38	9
180	182	5
177	177	1
80	80	8
187	191	2
132	156	1
114	146	2
19	19	10
43	56	3
133	135	1
142	142	11
13	14	9
151	151	4
104	106	4
45	45	4
132	137	3
119	119	8
33	33	5
115	123	4
142	164	2
153	153	7
101	101	9
186	187	6
109	109	9
149	184	1
127	195	1
38	66	2
131	132	3
145	159	1
178	178	15
148	148	9
120	120	14
85	86	5
27	28	3
31	32	5
67	67	1
151	188	5
5	5	6
146	156	1
116	132	1
185	186	7
159	159	10
153	154	2
86	87	7
24	25	3
137	139	8
152	177	1
0	34	2
146	147	6
26	64	3
78	82	2
149	180	3
128	176	10
105	154	4
126	183	3
137	155	2
73	75	5
188	188	10
78	78	5
154	155	3
133	140	3
98	155	6
130	130	12
9	11	2
42	75	2
103	154	2
137	158	2
119	120	3
2	2	5
66	90	3
115	116	2
134	134	6
94	94	5
19	74	2
112	132	3
94	95	3
67	68	5
0	41	1
58	59	7
162	172	2
64	64	4
184	194	4
165	166	5
116	116	13
86	86	2
149	186	2
127	149	3
75	82	2
169	169	5
1	5	3
156	157	2
44	84	1
41	46	2
16	16	10
185	185	6
183	183	14
81	82	4
84	85	1
144	176	3
160	160	5
62	62	1
127	128	3
1	20	3
127	177	4
45	123	1
0	70	3
141	166	1
72	72	4
96	96	10
21	64	4
22	23	3
121	197	2
26	82	4
0	47	3
56	57	3
46	46	6
71	72	4
105	106	7
140	140	4
125	140	3
24	135	1
181	182	3
89	89	5
163	179	2
7	85	1
17	17	7
159	176	2
144	151	1
132	133	1
191	192	7
4	4	2
180	181	4
59	59	3
123	124	4
106	142	2
20	21	3
46	48	1
118	119	1
173	177	3
168	179	2
138	140	2
130	131	2
19	21	2
16	32	3
49	50	1
64	67	2
40	78	1
155	173	2
176	192	2
10	44	1
19	22	1
111	112	1
145	160	4
63	66	2
171	173	1
26	59	1
99	101	1
171	172	1
161	162	3
102	130	2
0	45	1
192	193	1
17	20	4
39	78	3
98	98	2
97	104	2
147	149	5
71	71	2
154	154	8
143	178	1
6	86	3
5	159	1
174	175	3
6	84	2
100	101	1
149	188	1
182	190	1
9	24	2
126	138	1
162	165	2
185	194	2
22	38	1
9	15	1
38	61	2
11	58	4
117	118	5
42	44	6
80	83	2
162	162	3
4	10	6
1	16	1
157	191	1
60	62	2
39	41	2
159	177	1
160	185	2
3	39	2
116	133	2
104	107	1
17	88	4
143	144	5
7	7	5
132	132	2
142	162	2
10	11	4
3	40	1
152	153	8
155	156	2
8	82	2
74	76	3
5	25	1
28	30	4
173	175	2
167	169	1
117	133	1
196	197	2
20	37	2
145	176	1
183	193	1
153	164	1
20	59	1
4	11	1
41	76	5
83	85	1
141	148	3
42	43	3
58	58	3
145	151	1
133	164	2
100	118	3
158	161	1
170	180	2
122	124	1
125	147	1
41	41	3
2	3	1
87	89	2
3	29	1
159	178	1
174	176	1
101	102	3
102	103	6
154	178	1
25	25	4
118	181	1
44	88	2
32	33	1
146	179	2
151	158	1
88	88	5
134	135	3
35	37	1
121	142	1
134	147	2
186	189	1
114	116	6
10	81	1
15	15	2
189	193	1
100	100	3
167	179	1
69	72	1
162	163	5
86	89	1
44	57	1
113	115	2
167	193	1
60	61	1
93	131	1
125	126	1
0	1	2
54	55	1
106	167	3
129	195	1
153	178	1
135	135	2
176	176	4
62	67	1
11	73	1
70	71	2
0	5	2
62	63	2
35	35	2
96	108	1
157	158	1
93	195	1
162	168	5
107	131	1
42	78	1
173	180	1
107	109	1
157	192	1
77	79	2
94	108	1
143	151	1
63	65	1
142	153	1
39	62	1
12	45	1
170	173	2
5	28	1
37	38	3
150	180	1
155	180	2
98	146	2
0	33	2
141	185	2
11	23	1
102	104	1
79	176	1
135	158	1
126	127	1
2	27	1
85	85	1
38	39	2
84	84	1
142	163	1
21	26	1
133	134	1
106	131	1
112	113	1
153	159	1
167	168	4
120	126	2
158	190	1
187	197	1
151	177	1
11	81	1
111	128	1
131	133	1
5	78	1
158	159	1
172	193	2
161	164	2
163	188	2
132	135	2
45	57	2
53	56	1
175	192	1
159	160	2
162	167	1
172	195	1
161	167	1
4	29	1
145	162	1
173	191	2
23	66	1
27	32	1
3	38	1
3	60	1
132	134	1
132	157	1
101	130	3
74	85	1
137	138	2
156	158	1
184	185	1
64	68	1
1	62	1
113	141	1
111	168	1
51	52	1
128	177	1
13	15	1
21	59	1
16	47	1
64	73	1
34	34	1
132	158	1
164	166	1
176	179	1
3	76	1
153	155	1
158	187	1
