24	136	1
59	68	2
182	182	7
190	201	5
121	122	3
145	147	3
206	206	3
232	232	12
119	123	3
54	60	3
158	158	5
5	6	8
73	73	10
28	28	3
84	84	6
0	0	7
9	46	3
121	121	2
20	54	2
218	218	5
114	114	2
211	224	3
156	156	8
44	44	14
12	29	5
43	43	18
57	60	2
41	140	4
74	75	8
200	200	8
69	69	12
236	236	7
127	139	3
82	95	2
57	57	7
68	68	11
15	15	7
70	71	7
146	146	6
30	31	7
216	217	2
117	117	7
54	54	4
127	127	2
60	61	2
117	123	3
58	58	6
160	160	5
4	4	11
88	88	3
230	230	6
39	39	10
71	72	2
64	64	4
165	198	2
236	237	8
1	1	6
76	76	2
7	7	5
182	183	1
223	223	8
15	16	3
162	163	2
7	19	2
174	174	5
203	204	2
20	20	12
65	67	10
120	121	4
220	236	1
119	119	7
210	210	14
85	85	23
27	27	10
220	222	1
143	143	7
2	3	2
169	169	1
145	146	4
227	227	5
21	22	12
80	80	8
99	100	7
32	32	2
233	233	11
180	180	5
20	45	6
62	63	3
58	60	1
21	27	1
12	15	1
103	105	3
193	193	7
195	225	4
77	77	8
10	10	18
195	195	4
226	227	1
102	102	3
153	153	16
109	109	5
29	29	11
134	134	7
220	220	2
116	116	3
12	13	2
49	49	4
221	221	8
36	36	3
101	101	4
185	186	7
173	174	4
117	121	1
128	129	5
56	56	15
20	23	3
103	106	2
36	180	1
24	25	6
46	46	12
148	148	2
140	140	6
126	126	6
170	200	2
30	30	8
107	107	4
70	70	8
22	22	8
222	222	7
128	128	10
106	106	7
149	172	3
23	23	10
209	210	3
234	234	7
0	1	3
209	209	5
152	152	6
25	102	8
37	38	5
202	202	8
173	173	2
60	60	3
219	219	7
157	157	1
122	122	10
188	188	10
240	241	2
188	203	2
139	140	2
65	68	2
159	159	5
133	133	3
241	241	10
165	165	6
66	66	4
98	98	4
13	13	9
140	152	4
72	72	20
17	21	2
12	12	16
6	6	7
65	65	5
63	64	2
83	135	1
63	63	7
214	214	3
190	190	6
129	232	1
50	50	6
237	237	5
67	67	4
9	9	5
26	26	8
229	229	4
51	52	4
212	212	9
145	145	2
139	142	2
232	233	5
45	55	3
33	215	2
100	100	3
225	225	5
18	18	6
187	187	7
80	81	2
53	55	3
59	62	1
228	228	3
223	230	1
96	97	2
5	5	3
202	204	5
157	159	1
102	103	7
154	155	6
224	224	6
115	116	1
4	6	5
15	28	3
176	176	9
153	154	2
21	33	4
112	113	2
77	81	2
222	224	1
18	36	2
34	60	3
37	37	12
24	24	5
35	35	3
136	136	2
177	177	5
35	36	5
184	184	7
21	28	1
171	171	6
1	31	6
71	71	4
86	86	3
172	172	3
194	194	2
238	238	5
208	208	4
33	33	2
74	74	2
18	49	1
8	8	4
9	143	3
47	47	1
23	27	4
11	29	1
55	55	5
144	144	3
40	40	4
77	99	1
130	130	5
111	111	3
87	87	2
199	200	2
97	97	5
21	21	11
139	139	1
110	110	2
24	44	5
169	170	2
211	213	1
2	223	2
118	125	1
20	114	3
186	217	4
183	183	3
154	154	6
133	134	4
103	104	4
42	42	6
217	217	4
22	23	1
66	67	3
61	61	7
201	202	1
119	120	3
149	149	2
122	128	2
95	95	1
74	82	3
242	242	4
45	45	10
228	229	4
201	201	6
23	80	1
163	212	1
135	164	4
96	96	3
105	105	5
178	187	5
39	41	1
213	213	4
19	19	3
75	75	2
223	224	2
155	223	1
81	82	2
59	60	3
11	11	5
226	226	2
119	124	3
176	177	1
169	171	1
48	48	7
200	201	2
124	129	4
184	186	2
64	65	3
51	53	4
215	216	2
191	191	4
191	206	5
134	227	1
104	105	3
24	61	3
133	225	1
31	31	7
42	141	2
196	196	5
149	227	2
54	56	3
171	189	2
217	218	1
204	204	1
4	39	2
189	189	4
3	14	3
175	175	3
160	161	2
34	34	5
161	161	4
42	43	1
113	113	3
170	170	4
201	203	1
195	196	5
79	79	2
26	27	3
1	3	2
120	120	3
141	141	1
179	179	4
19	20	1
45	238	2
188	189	4
81	81	2
78	98	1
135	135	1
10	11	3
203	203	1
22	29	1
138	138	2
103	110	1
192	229	1
169	197	1
118	118	4
2	2	4
166	166	2
216	216	2
211	211	4
76	77	3
209	232	1
140	141	6
61	65	1
177	185	2
207	232	1
4	7	1
164	164	2
179	210	1
12	159	2
67	69	2
159	161	1
121	124	2
76	78	2
19	21	3
125	125	1
51	51	2
159	160	3
50	52	1
113	127	4
41	41	1
3	20	1
192	192	2
0	227	2
49	50	1
60	113	1
23	24	4
31	32	2
123	129	1
109	110	1
154	158	1
16	17	2
167	169	1
150	150	3
131	131	2
127	129	1
240	240	3
191	196	1
235	241	2
103	107	1
52	53	2
150	151	3
207	227	1
85	88	2
28	97	1
139	141	1
20	42	2
171	172	1
202	203	2
134	226	1
235	235	1
99	99	1
238	239	2
123	123	1
62	62	2
197	198	1
146	147	1
116	117	1
52	56	3
44	237	2
2	20	3
53	53	2
113	123	1
142	142	2
198	218	1
151	151	1
140	142	2
9	10	3
39	40	2
14	15	1
164	165	1
10	219	2
84	103	2
84	85	1
72	101	2
3	223	2
137	137	1
9	155	2
239	240	2
168	169	1
38	38	2
74	88	1
103	108	1
13	157	2
79	100	1
19	36	1
67	140	1
158	159	2
78	78	1
98	99	2
25	25	1
90	97	1
105	116	1
31	60	1
39	43	1
168	168	1
23	57	1
135	136	1
123	124	1
172	173	3
228	230	1
79	82	1
224	225	2
104	104	1
83	83	2
59	59	1
220	221	1
176	178	2
231	232	1
118	124	2
82	82	2
187	207	1
129	129	1
125	126	1
48	65	1
91	91	2
103	103	1
11	20	1
231	231	1
137	152	1
55	56	1
9	70	1
1	2	1
134	144	1
7	8	1
85	103	1
190	196	1
