88	89	2
37	73	4
75	75	13
26	26	17
57	57	16
56	56	12
219	219	10
211	211	7
183	183	5
115	116	9
51	53	6
72	217	1
4	4	9
43	44	9
161	161	7
37	86	1
60	60	9
86	86	13
30	30	28
17	17	11
16	16	12
51	51	11
212	212	11
143	143	8
1	2	9
54	55	4
12	14	5
140	141	8
83	83	18
74	74	23
2	12	5
10	15	5
70	70	11
224	224	13
54	54	26
50	221	2
180	181	5
128	128	13
170	170	2
150	150	9
62	62	12
193	220	2
218	218	7
79	128	2
4	9	2
38	38	33
20	20	4
113	113	12
22	22	13
116	116	4
164	164	20
9	9	36
118	118	7
38	152	1
85	85	7
16	18	1
81	84	6
204	204	7
6	6	9
31	31	18
153	154	8
76	76	12
49	66	4
134	134	5
29	29	8
4	16	2
214	215	14
68	68	14
79	79	16
185	185	9
235	236	6
167	167	6
199	200	4
124	124	17
15	15	9
196	197	8
79	80	3
184	185	6
45	46	3
70	71	6
216	216	9
179	194	6
228	228	8
21	21	11
205	205	7
143	145	2
223	223	10
142	142	6
80	106	4
126	129	2
151	160	6
141	142	3
46	46	17
23	104	1
78	78	7
35	35	13
17	35	2
166	167	7
70	150	1
116	125	4
121	121	12
101	144	2
73	73	5
49	50	6
44	44	19
18	18	2
76	82	2
82	82	13
171	171	6
236	236	14
95	96	7
180	180	6
10	10	11
14	15	7
88	88	10
21	98	2
209	209	5
8	8	13
215	216	3
1	1	19
221	221	13
136	137	5
99	99	9
202	203	6
103	103	11
14	88	7
58	60	1
41	41	6
159	159	13
140	156	3
227	227	8
233	233	15
41	50	6
27	28	10
198	218	3
152	152	9
222	223	7
33	35	3
210	210	12
46	68	5
39	39	26
203	203	7
14	14	7
226	226	16
141	143	7
74	75	2
137	138	5
140	140	7
156	157	3
46	47	2
13	13	12
32	32	16
21	22	11
44	46	3
137	137	13
238	240	1
5	15	3
150	151	7
51	69	3
23	228	8
67	72	1
149	149	5
22	78	1
193	194	2
40	40	13
138	139	5
203	210	2
192	218	8
17	18	3
60	61	2
30	223	10
26	46	1
71	233	3
231	231	6
107	107	11
179	179	8
182	206	1
1	8	2
77	104	4
104	105	4
5	16	6
158	158	15
178	178	15
4	7	7
144	145	8
5	6	17
13	48	4
139	139	14
81	83	6
52	84	1
215	215	1
52	53	8
11	88	3
111	111	2
111	112	5
145	145	9
28	43	3
208	208	5
172	172	5
97	97	7
211	212	2
0	1	14
125	126	4
188	188	3
154	161	8
182	183	2
67	68	3
63	63	9
106	133	3
49	229	2
103	104	6
56	57	12
9	23	5
102	102	9
2	2	11
177	177	11
45	67	3
7	7	9
176	176	11
146	146	9
192	192	12
167	168	4
55	55	14
62	63	11
0	0	10
11	12	6
18	30	3
109	110	4
225	226	2
26	27	2
99	100	4
155	155	4
145	146	4
187	191	9
194	195	2
207	207	14
106	106	6
157	157	7
158	182	4
186	186	9
222	222	5
27	27	13
149	151	6
178	188	2
197	221	3
123	141	1
158	181	6
241	241	6
3	3	5
122	124	2
159	165	2
67	67	18
114	131	3
23	23	12
48	48	13
238	238	13
189	190	3
148	167	3
179	180	7
105	106	4
42	45	2
100	100	10
122	123	3
32	224	2
141	153	3
4	6	4
147	147	3
20	97	2
31	226	1
163	165	3
202	202	10
213	213	13
172	233	1
64	65	5
134	135	5
84	84	13
119	119	10
36	56	5
200	200	4
126	126	12
52	52	8
237	238	3
49	49	24
84	85	5
40	41	2
164	165	3
79	107	1
179	183	3
225	228	6
193	196	9
79	105	6
46	202	1
167	169	3
196	196	9
45	45	8
58	58	15
48	50	3
80	84	8
135	135	8
65	65	10
123	156	6
59	60	7
224	225	6
141	141	7
156	156	7
239	239	4
120	120	6
8	20	2
225	227	6
151	151	5
144	144	6
192	200	3
173	184	4
96	123	2
17	22	2
34	34	8
104	104	9
63	174	5
109	109	5
199	199	11
4	8	10
19	19	13
203	204	2
43	219	4
24	24	12
25	25	13
184	184	6
49	53	2
148	168	4
201	201	15
16	17	6
15	32	3
182	182	8
38	44	2
126	127	2
168	168	4
17	19	5
28	62	1
39	50	2
225	225	5
35	38	1
50	51	2
11	16	1
177	187	1
114	115	1
186	187	3
20	21	6
228	230	3
32	33	4
40	51	1
88	109	1
215	217	3
181	181	13
212	213	1
13	14	2
53	53	17
2	3	7
46	70	3
223	224	1
11	11	2
51	52	4
208	217	4
195	195	9
61	61	7
220	221	4
187	187	6
110	110	1
71	71	8
192	193	7
48	66	6
112	112	2
145	152	1
25	46	2
7	8	2
124	127	1
137	168	2
7	12	6
12	12	9
36	59	1
44	45	11
217	217	14
58	85	4
105	105	13
43	69	2
234	234	13
235	238	1
25	26	4
235	235	9
188	234	3
0	30	2
66	66	12
191	192	2
131	134	1
157	188	5
36	36	20
175	175	5
39	41	3
214	214	12
149	150	3
232	232	4
230	231	2
36	42	1
46	227	4
73	110	1
120	121	3
177	190	1
160	161	2
21	24	2
34	35	6
28	28	8
197	197	14
151	152	8
125	125	7
123	123	7
15	16	1
173	173	10
205	206	9
148	148	3
237	237	9
42	54	2
33	33	8
153	153	7
28	32	5
159	161	2
140	158	3
10	55	2
200	206	4
116	123	2
137	169	4
170	172	4
114	114	8
31	225	3
170	171	9
49	222	4
19	29	1
129	129	6
1	30	4
37	37	11
43	45	2
89	109	2
41	220	5
142	156	7
9	42	4
187	188	9
10	54	4
198	198	4
131	132	1
121	122	5
170	176	2
181	183	1
240	240	6
77	77	4
211	213	2
150	152	2
203	212	1
227	231	1
180	182	2
154	162	1
156	181	2
236	237	2
115	115	5
61	63	1
234	235	5
162	162	7
25	59	1
209	210	6
187	194	2
81	81	5
86	106	3
82	83	7
1	7	2
1	31	1
34	59	2
240	241	2
71	136	3
226	227	5
131	131	4
31	224	2
153	155	1
80	82	1
95	95	4
145	147	5
80	81	1
103	133	3
52	83	2
98	99	4
143	156	1
22	80	2
182	193	2
146	147	2
13	15	6
140	147	5
47	47	4
72	73	2
6	7	3
85	90	2
157	162	3
24	224	1
68	69	5
14	227	4
148	149	2
69	69	14
71	178	3
236	238	6
159	182	2
58	59	2
117	117	3
160	160	3
39	40	4
178	186	2
20	29	2
139	140	4
37	38	3
24	74	1
23	24	3
147	167	2
114	119	4
238	239	1
204	213	1
78	99	1
203	221	3
4	5	3
33	36	1
184	214	2
157	165	3
79	126	1
133	133	2
64	64	11
43	43	7
39	42	5
24	25	3
54	64	1
31	227	3
230	230	3
86	91	1
40	220	3
74	84	4
78	80	3
183	193	2
75	106	2
16	19	1
77	105	3
136	136	5
33	38	3
198	200	4
219	220	2
151	173	1
77	80	2
169	171	3
84	100	7
19	34	2
113	119	1
107	108	1
102	103	4
174	234	2
13	227	2
165	173	2
120	128	1
206	206	3
60	178	1
74	88	1
172	173	5
92	108	1
5	5	2
191	220	3
56	58	2
101	103	2
37	39	2
53	63	1
98	102	3
40	195	3
178	190	1
202	222	1
69	70	1
29	222	1
184	188	1
140	166	2
210	212	2
71	72	4
36	54	2
5	9	3
195	196	2
50	52	2
41	221	1
192	194	1
164	166	2
12	16	1
147	148	2
135	150	3
29	33	3
194	199	1
80	80	5
98	103	3
176	177	2
40	44	1
197	199	1
35	221	1
77	123	1
229	229	2
171	189	2
16	31	5
144	147	2
147	159	2
183	185	1
158	162	1
194	194	4
53	54	1
101	102	1
150	173	1
33	34	1
212	214	1
78	124	3
104	126	1
177	189	1
26	45	1
6	16	2
242	242	5
154	156	2
105	108	1
162	163	1
20	226	2
154	154	7
21	23	1
188	198	2
98	112	1
198	203	2
42	42	4
174	175	1
32	221	1
44	102	3
101	101	6
52	64	2
198	199	2
232	233	2
81	82	2
217	218	2
120	129	1
175	178	1
122	122	7
59	71	1
192	220	2
142	157	1
15	31	2
52	56	2
88	129	2
163	163	2
3	8	1
37	220	2
52	70	2
204	216	2
71	73	2
73	174	2
50	50	5
138	138	5
35	60	2
168	171	1
200	209	3
141	166	2
61	62	4
171	177	1
205	224	5
75	100	1
220	220	3
163	180	2
18	29	3
33	41	4
11	14	4
55	152	1
151	174	1
122	153	1
148	166	1
72	72	3
210	211	3
106	127	2
190	190	4
14	21	2
59	178	1
9	15	5
164	180	1
6	13	2
114	118	3
206	213	2
59	59	7
69	81	1
152	153	2
202	225	1
161	172	1
188	189	5
186	190	2
158	159	2
165	165	7
43	54	1
43	46	1
127	137	1
125	155	1
164	169	1
6	31	2
67	97	3
140	142	1
76	77	5
54	70	1
9	226	2
73	152	2
196	221	1
169	169	1
18	19	2
192	219	3
24	201	2
48	112	1
169	177	1
207	217	1
46	203	2
130	130	2
142	143	1
26	72	1
138	153	1
156	168	2
36	51	1
198	213	2
8	9	1
190	191	1
100	104	1
128	130	2
48	49	1
154	165	1
4	54	1
5	7	3
70	152	1
78	104	3
119	120	1
109	133	1
17	30	1
89	89	3
229	230	1
65	67	1
143	148	1
155	165	1
96	96	3
68	70	1
30	31	3
114	129	1
222	224	1
33	47	3
10	11	1
104	123	1
168	169	1
3	23	1
36	60	1
65	83	2
9	10	2
174	218	1
24	26	2
104	106	2
101	219	2
34	40	1
28	198	1
4	18	1
1	3	2
232	235	1
37	70	1
144	146	3
55	233	1
33	61	1
74	80	1
191	191	3
75	101	2
70	203	1
125	127	1
132	133	2
140	148	1
148	150	1
164	182	1
2	18	2
43	55	1
106	126	2
18	23	1
52	61	2
164	215	1
108	129	3
156	165	1
0	29	1
174	174	2
26	73	2
37	221	2
13	34	1
35	40	1
68	218	1
141	156	1
11	38	1
178	180	1
16	223	1
45	55	2
131	133	2
123	126	1
228	229	1
154	155	1
38	42	2
14	30	1
197	200	3
17	31	1
28	29	1
4	15	1
37	160	1
83	84	1
2	29	2
147	169	3
185	186	1
9	52	1
202	211	1
80	83	1
79	125	1
122	130	1
235	237	2
199	209	2
56	181	1
107	126	1
155	157	1
10	38	1
117	125	2
101	231	1
44	220	1
76	81	1
236	240	1
44	66	1
42	53	1
92	122	1
69	219	1
199	201	1
166	166	1
33	37	2
159	160	2
30	32	1
153	216	1
21	102	1
35	36	1
22	23	1
154	168	1
65	66	1
116	118	1
154	172	1
135	147	1
161	178	1
40	53	1
169	170	1
88	92	1
175	176	1
124	126	1
37	55	1
46	69	1
40	71	1
85	86	1
75	103	1
24	67	1
61	65	1
21	74	1
199	206	1
98	98	1
189	189	1
100	101	1
140	169	1
127	127	1
136	154	1
155	167	1
59	183	1
22	24	1
43	220	1
171	172	1
20	24	1
38	43	1
