121	123	2
38	38	4
22	23	3
15	15	7
37	37	5
67	68	3
8	11	4
102	103	4
32	32	15
73	74	7
94	96	2
132	132	7
41	43	1
102	102	5
6	6	5
120	125	2
134	134	11
122	122	13
76	76	10
43	44	5
147	148	4
20	20	11
26	26	4
17	17	18
46	46	16
80	80	10
85	85	2
116	117	1
10	11	7
30	30	11
12	12	7
80	81	3
64	87	1
108	109	2
23	23	13
55	56	4
24	24	8
133	133	25
86	103	2
39	49	1
4	8	2
126	128	9
13	13	23
112	114	2
6	34	3
63	63	7
41	41	12
16	16	9
66	87	1
84	103	1
115	115	3
123	123	7
131	135	1
117	117	6
62	62	3
120	126	2
71	71	7
88	88	6
31	31	6
67	67	3
66	77	8
130	131	5
40	40	29
11	11	4
65	65	2
70	70	5
129	129	8
65	94	1
129	133	1
10	10	10
76	97	1
84	85	3
104	104	3
12	13	1
5	6	2
68	70	1
150	150	6
109	111	1
115	117	2
77	102	2
108	108	5
130	130	8
39	39	7
27	29	5
117	130	1
113	113	5
112	112	10
131	131	8
148	150	7
142	142	4
146	146	5
73	73	9
27	28	5
138	139	1
39	48	1
17	18	7
87	87	6
86	86	7
7	7	2
6	11	2
98	98	6
85	105	4
21	22	8
120	122	1
15	30	3
22	30	1
102	105	2
6	66	2
135	135	2
154	154	5
15	29	1
75	76	6
33	35	2
45	45	12
10	13	7
93	95	2
148	153	1
66	73	3
152	152	2
58	77	3
80	82	1
93	94	5
16	17	8
69	70	1
5	7	5
145	146	1
58	58	4
109	117	4
48	48	2
38	39	6
20	21	5
48	49	3
45	46	11
64	67	3
42	42	5
47	48	2
11	26	2
53	54	4
14	24	2
65	66	2
72	73	4
76	77	3
118	118	2
4	95	2
78	112	2
81	82	3
43	43	2
81	81	7
41	42	6
36	37	3
147	147	6
105	108	1
84	84	3
116	116	4
85	86	2
5	5	8
98	102	1
13	48	1
21	21	6
132	138	4
131	134	3
30	34	3
77	77	3
141	141	6
58	76	3
123	127	4
119	119	1
41	103	2
140	141	1
143	144	4
54	55	2
87	89	1
149	149	1
27	27	2
82	82	3
74	75	8
36	36	2
137	137	1
47	47	8
114	120	1
119	136	2
29	30	5
33	33	6
132	133	5
49	49	2
32	36	3
9	48	1
94	94	1
77	78	2
7	11	3
22	22	5
140	140	1
30	31	2
18	18	6
25	25	3
13	14	2
150	154	3
40	42	1
14	25	7
111	114	2
57	58	3
87	94	3
46	47	2
82	84	1
44	45	2
55	81	1
107	108	2
74	97	1
133	134	3
29	29	2
54	56	5
51	52	2
95	95	1
103	105	2
78	78	1
71	72	5
103	103	6
69	72	2
99	101	1
100	100	1
45	48	2
109	153	1
46	48	3
5	64	1
148	148	2
74	74	2
105	106	2
8	8	5
71	73	4
19	19	2
50	51	2
118	121	3
3	66	1
28	32	2
83	85	2
134	135	2
23	31	1
55	55	4
3	3	1
73	127	2
66	78	1
94	102	1
50	50	5
34	34	2
120	130	3
136	138	1
6	30	2
68	68	2
67	69	1
56	56	4
68	69	4
100	101	2
139	146	2
9	10	1
18	22	4
99	119	3
51	55	2
23	24	1
124	127	2
87	90	1
137	138	1
9	11	1
123	130	1
109	110	2
41	45	3
106	109	2
35	36	2
74	76	1
40	43	1
120	120	1
129	130	2
96	101	2
148	149	1
5	34	1
9	9	3
15	16	4
57	68	3
69	73	1
66	85	4
128	128	4
25	32	1
125	126	3
130	144	2
40	41	1
122	123	2
31	32	3
110	111	3
25	26	2
33	34	1
15	17	2
73	79	2
57	57	2
7	8	4
10	32	1
42	79	1
54	54	5
66	66	2
8	10	3
18	21	1
7	12	1
42	43	1
117	122	2
63	77	1
131	143	1
99	99	3
64	64	1
4	4	2
26	33	1
107	107	5
152	154	1
48	51	3
144	144	1
121	122	1
137	139	4
109	109	1
8	44	2
45	52	1
96	103	2
150	152	1
33	36	1
68	98	3
124	126	2
92	97	2
137	147	1
47	51	4
97	97	2
115	151	1
2	65	1
50	53	2
39	40	1
107	112	1
97	102	1
75	75	1
79	79	1
49	53	1
85	88	1
100	122	1
151	152	1
64	95	1
44	44	1
114	114	1
142	143	1
47	49	1
68	86	1
58	75	1
86	89	1
83	83	2
43	45	1
72	75	1
69	69	1
42	81	1
82	83	1
51	51	1
130	136	1
16	36	1
28	28	1
109	154	1
139	141	1
7	27	1
