32	32	9
37	73	1
2	3	2
14	14	14
62	65	2
30	31	3
11	11	29
46	46	13
26	26	19
48	48	12
55	55	7
74	74	10
35	44	4
15	30	1
5	6	5
53	53	12
80	80	16
56	56	11
0	0	6
66	66	6
33	68	3
10	11	11
28	28	14
69	69	18
17	17	10
72	72	14
59	61	2
27	27	14
49	51	2
57	58	5
78	79	1
47	47	4
15	15	6
11	12	7
61	61	16
73	73	16
51	51	8
68	68	9
47	51	2
38	45	2
5	5	7
67	67	8
7	7	17
41	41	12
39	39	21
18	18	8
65	66	2
60	60	9
2	2	13
4	4	8
37	39	3
42	43	1
45	45	5
79	79	13
10	10	13
62	73	3
63	63	3
54	54	10
64	68	5
38	38	16
34	61	3
76	76	3
62	69	2
37	38	2
35	59	2
49	49	7
21	21	4
40	75	2
34	35	4
33	55	1
31	51	3
8	8	17
9	9	9
49	52	3
64	64	11
47	60	3
54	78	2
78	78	10
75	75	3
7	9	2
69	71	5
71	71	10
59	59	10
40	40	14
52	52	10
19	19	10
16	16	12
62	62	4
28	29	4
49	64	5
30	30	7
65	65	8
54	74	3
55	56	3
79	81	1
57	57	7
53	54	5
63	64	10
29	31	3
6	6	8
36	36	7
12	12	7
50	50	6
79	80	5
34	34	1
39	40	1
30	53	2
42	61	1
35	35	9
48	65	1
39	55	5
4	50	1
67	68	3
47	48	6
35	58	1
56	72	6
51	52	7
37	37	4
58	59	1
35	36	3
77	77	6
70	70	8
80	81	2
32	60	2
59	74	1
3	3	4
19	20	2
0	1	1
36	45	1
31	31	5
31	32	6
2	47	4
25	26	2
36	37	1
9	35	3
49	57	1
31	33	8
34	41	2
71	72	1
8	28	2
54	69	2
25	25	6
27	28	1
68	76	2
20	20	4
33	33	8
41	66	4
40	56	2
30	54	2
55	71	1
73	75	3
26	27	2
1	2	2
53	58	1
69	70	7
13	14	5
55	73	2
40	72	1
39	41	2
48	49	3
44	45	5
76	77	2
49	53	2
42	73	3
27	35	1
64	65	2
60	61	2
42	42	9
7	8	3
12	14	2
55	66	2
9	10	1
29	30	1
54	73	1
41	70	1
75	77	4
41	45	1
61	64	3
54	55	1
43	74	1
52	61	1
58	73	2
41	56	2
29	29	2
50	55	1
60	75	1
68	69	2
49	72	2
28	58	2
1	61	1
33	34	2
74	76	4
32	50	1
73	78	1
36	72	1
6	36	2
54	65	2
43	43	3
33	48	2
33	58	1
73	79	1
38	72	1
29	36	1
44	44	2
54	70	1
12	30	1
56	64	1
58	58	3
60	62	2
55	68	2
38	73	1
9	20	1
71	77	1
58	79	1
50	63	1
54	68	3
39	47	1
27	58	1
66	75	4
41	74	1
37	41	1
16	17	2
49	73	1
1	76	4
26	51	1
61	62	1
65	70	1
60	69	3
66	76	1
33	79	1
29	50	1
40	41	1
70	71	1
45	46	1
74	77	1
31	53	1
42	48	1
69	72	1
70	72	1
20	21	1
75	80	1
13	13	1
21	49	1
