105	105	5
129	130	3
90	90	5
27	30	4
35	36	3
124	125	4
139	139	6
57	57	11
104	104	12
164	165	5
175	175	5
28	28	11
97	98	4
130	130	7
0	0	11
182	182	2
145	154	2
114	114	11
4	5	10
25	29	1
75	75	8
109	109	16
53	53	11
18	18	10
107	107	7
74	91	3
16	47	2
158	163	3
92	93	2
44	45	3
67	69	2
35	35	5
73	91	3
20	27	4
132	132	5
24	24	3
116	116	13
61	63	6
170	170	11
11	13	2
106	107	4
169	169	15
35	62	4
103	103	5
30	30	9
37	48	3
168	168	6
174	175	3
39	39	2
162	162	9
127	127	16
40	40	5
149	149	16
94	94	5
145	162	1
130	131	5
34	35	5
56	57	3
76	76	8
164	164	11
140	140	7
88	89	4
97	97	4
126	139	2
128	128	12
55	57	3
41	41	11
141	141	10
29	29	7
80	102	3
72	72	3
134	134	7
76	79	3
110	110	4
106	106	10
151	151	9
39	42	3
18	25	2
71	74	1
166	188	9
42	43	2
17	18	5
153	153	8
105	107	2
78	81	6
143	143	3
36	38	1
10	10	3
152	152	5
22	22	5
10	12	2
136	136	9
23	23	11
74	75	4
69	69	2
19	31	8
149	150	4
157	157	8
112	112	7
61	62	5
63	65	3
33	33	7
148	149	4
91	92	2
78	78	3
95	96	7
57	59	4
181	181	8
82	82	14
19	20	7
145	183	3
11	14	5
18	20	8
129	133	2
68	68	7
131	132	4
138	138	6
90	93	3
180	181	8
136	137	7
87	88	3
121	121	10
12	12	13
10	11	4
7	7	6
8	8	8
66	66	4
119	140	2
24	106	2
108	108	3
187	187	4
131	131	4
167	190	3
72	108	2
147	147	5
14	14	9
6	7	3
65	65	5
59	59	15
62	84	3
62	62	6
21	21	11
109	130	1
2	2	4
126	129	1
53	58	1
96	97	4
17	17	7
146	149	3
58	58	4
26	28	3
143	146	2
133	133	3
123	123	12
5	5	10
101	113	3
100	100	13
156	189	2
135	135	5
113	113	5
38	38	8
188	189	2
37	37	8
48	48	6
44	44	4
129	129	7
144	149	2
101	102	3
158	158	8
177	177	7
114	122	4
151	152	1
29	30	1
144	145	2
37	85	1
59	60	2
26	34	4
64	64	9
6	6	5
190	190	7
142	142	13
29	35	2
8	41	1
168	169	1
134	135	1
172	172	1
179	179	2
58	59	6
184	184	2
82	83	5
95	98	2
82	90	1
158	162	2
96	98	3
121	122	2
87	87	3
33	46	2
155	167	2
155	156	5
111	111	2
36	36	1
103	105	1
148	148	11
74	90	3
120	120	8
130	144	1
21	23	3
47	47	1
16	32	2
56	56	5
165	187	4
91	95	2
170	171	2
144	144	3
167	167	7
131	139	4
135	136	3
124	124	5
171	172	1
182	183	8
143	152	4
43	44	4
180	180	2
67	68	3
92	92	4
11	54	1
23	25	2
85	85	12
102	105	2
140	141	1
64	65	1
118	118	5
90	92	3
102	102	3
20	20	6
169	170	2
25	87	4
56	61	2
148	151	1
78	84	5
65	67	1
119	120	6
149	151	4
93	93	2
18	30	4
109	110	2
163	163	1
11	29	4
160	161	2
172	173	2
9	13	5
145	163	2
23	24	1
11	12	3
65	100	1
173	173	14
137	137	6
15	15	8
79	79	9
109	150	2
168	182	4
146	146	10
155	155	1
85	87	2
24	25	1
1	1	2
45	45	2
126	126	5
60	63	2
71	71	7
55	55	9
107	148	2
40	64	2
84	86	1
117	117	4
132	133	3
26	26	10
57	87	1
117	119	1
101	101	2
52	53	6
145	145	5
36	86	1
58	60	2
146	154	2
77	77	4
150	150	3
40	41	3
116	117	5
111	112	6
125	135	2
11	11	5
42	42	6
98	98	10
177	179	1
63	63	7
92	94	4
147	176	1
85	88	1
43	43	6
126	140	2
177	178	3
181	183	1
83	102	2
166	167	1
104	107	2
132	146	1
81	82	4
56	88	2
161	162	4
15	48	2
28	29	7
81	81	1
0	1	3
189	189	4
38	39	1
60	60	2
127	136	2
34	83	1
19	19	6
65	99	2
32	32	3
122	139	1
4	4	1
32	33	2
77	85	3
66	67	4
53	54	3
13	13	9
117	121	1
30	31	2
11	17	2
93	94	4
78	79	3
45	48	1
154	155	2
100	101	6
122	122	3
118	120	4
160	160	3
103	108	3
151	180	2
146	148	3
86	87	4
84	84	2
73	73	5
65	66	5
54	61	2
154	154	2
171	171	6
136	138	3
74	74	4
54	54	6
79	81	3
85	86	4
15	16	3
166	166	3
32	35	2
2	4	4
65	70	2
15	17	1
37	87	1
62	63	3
1	2	2
125	126	1
110	128	2
133	136	2
132	142	2
183	183	3
135	137	3
95	95	4
178	178	1
175	176	3
77	78	2
41	91	1
14	15	2
61	61	2
62	64	4
173	174	2
70	108	1
96	96	1
99	99	4
122	123	2
57	60	1
176	177	2
186	186	2
83	83	5
115	115	4
16	16	3
31	31	3
14	38	2
66	68	1
81	85	2
114	124	2
92	99	2
26	30	2
49	49	1
175	185	2
187	188	5
67	67	3
88	88	5
54	56	1
104	105	3
184	185	1
141	185	1
32	46	2
156	156	2
39	88	1
63	71	2
117	118	2
38	90	1
139	140	1
105	106	2
19	21	3
70	70	1
55	88	1
135	174	1
152	153	2
165	165	5
31	87	2
70	74	1
84	87	1
146	155	1
76	77	3
56	87	2
148	178	1
127	129	1
46	47	3
125	125	1
159	160	1
121	128	1
68	101	3
133	145	2
142	144	1
174	174	1
145	164	2
185	185	1
20	24	3
66	99	1
16	30	1
13	38	1
33	85	1
146	147	1
30	32	2
11	77	2
148	150	1
130	139	1
83	84	2
127	135	1
139	173	1
115	116	2
133	143	1
73	93	1
18	22	1
101	124	1
84	85	1
73	74	1
27	27	1
45	47	1
30	166	1
89	90	1
121	127	1
9	9	1
68	75	1
36	83	1
160	162	1
11	15	1
145	165	1
114	118	2
6	19	1
70	76	1
129	140	2
119	119	1
125	134	1
54	71	1
133	137	1
57	94	2
41	71	1
46	46	2
86	86	1
125	128	1
149	180	1
25	25	1
11	84	1
56	70	1
17	28	2
138	139	2
39	56	1
150	151	1
188	188	1
19	23	1
90	91	1
84	102	2
22	23	1
57	93	1
47	48	1
80	80	1
129	143	1
73	94	1
63	64	1
31	86	1
174	184	1
71	111	1
62	86	1
142	143	1
41	73	1
54	55	1
75	96	1
91	91	1
53	57	1
52	52	1
84	103	1
