84	85	3
37	110	5
91	98	4
7	29	3
29	29	3
35	36	1
112	112	4
127	127	2
114	118	1
146	165	2
124	124	2
109	109	11
122	122	11
171	171	7
16	16	10
140	154	3
28	58	2
129	154	2
23	31	3
1	108	3
7	9	1
66	67	9
78	95	2
5	5	11
166	166	4
30	34	4
166	167	1
33	33	4
111	111	6
73	73	6
9	10	15
2	3	7
57	59	1
32	32	9
105	116	2
7	7	14
28	28	6
157	158	2
1	2	2
115	115	13
148	149	4
39	58	2
140	140	8
5	13	1
150	150	6
76	76	7
128	129	1
137	137	6
81	81	7
107	108	4
160	160	3
3	3	3
15	15	16
82	82	9
7	32	5
170	175	3
127	131	1
67	68	4
18	33	2
45	45	5
128	128	3
102	104	2
158	158	5
76	86	2
163	163	7
169	169	14
26	41	1
27	28	3
13	13	15
126	131	2
176	176	10
64	65	2
152	152	2
153	159	1
25	25	13
4	4	13
101	102	1
122	125	2
174	175	5
8	11	2
6	6	3
174	174	9
144	179	2
100	101	2
147	156	2
149	149	11
72	73	1
34	34	5
103	106	2
144	145	5
12	12	6
140	158	1
25	27	6
51	57	1
121	121	7
44	45	2
9	11	1
42	42	7
117	117	5
136	136	5
44	46	3
156	157	1
150	151	2
31	31	8
51	51	5
155	155	8
40	40	5
15	16	5
102	102	3
9	9	3
157	157	1
38	38	16
129	129	3
90	90	6
79	79	5
18	20	1
156	158	2
101	101	6
8	9	9
63	65	3
30	30	9
24	24	3
83	85	2
148	148	5
36	36	13
11	11	5
61	80	2
29	30	6
92	92	2
81	86	2
156	156	2
93	93	6
153	153	10
17	44	3
163	164	5
161	162	3
11	12	2
20	20	3
43	43	6
10	14	7
141	142	4
127	128	3
110	112	3
118	125	1
12	14	1
59	61	2
113	115	1
17	17	13
10	10	8
31	32	5
22	22	6
156	165	1
133	141	1
7	41	2
35	35	13
157	163	2
39	39	7
146	147	9
134	134	7
94	133	1
80	80	8
154	154	3
14	14	8
0	0	5
79	82	1
26	27	1
165	165	3
92	123	3
164	164	5
41	41	7
151	151	2
27	27	4
18	19	5
167	175	2
106	107	4
107	110	4
95	96	1
21	23	1
12	13	11
59	59	5
57	57	4
132	133	1
43	45	4
43	44	4
3	44	5
128	130	2
123	125	1
101	110	1
27	33	2
36	38	2
71	71	3
98	98	2
91	92	1
126	135	1
6	7	1
25	26	5
139	140	4
3	12	2
62	62	2
114	114	3
30	31	4
50	180	2
110	126	4
173	174	4
60	65	2
118	119	3
2	2	4
133	133	1
71	80	2
84	84	3
67	67	3
97	98	2
100	100	2
138	149	2
89	89	2
139	139	4
61	61	2
15	42	3
37	37	5
58	59	1
65	65	4
140	142	1
5	8	2
96	97	3
142	142	7
19	19	7
56	56	4
172	173	4
144	144	2
33	88	1
21	32	3
92	124	2
5	6	9
153	154	2
32	37	1
102	112	1
53	54	1
14	36	1
51	52	2
176	179	3
95	95	3
160	161	2
175	177	2
119	119	7
118	121	4
146	146	3
11	15	2
96	125	1
5	10	1
36	37	2
120	120	1
71	76	1
116	116	1
75	75	1
28	41	1
97	100	1
106	131	3
91	123	1
168	169	2
2	44	1
12	15	3
130	147	2
63	73	1
112	114	3
32	33	2
62	72	3
107	117	1
5	16	3
147	166	3
121	122	2
8	8	8
77	80	2
154	157	5
101	119	2
171	172	1
86	86	2
173	173	2
106	109	2
16	40	1
64	64	2
168	168	3
152	163	1
141	141	6
24	32	1
118	118	2
130	130	1
55	57	1
10	11	5
143	144	2
44	44	6
27	35	3
135	135	6
2	4	2
63	64	1
54	54	3
175	175	3
152	153	1
1	1	4
157	161	1
5	7	2
83	84	1
160	162	1
60	61	2
121	125	2
94	94	6
145	159	2
132	176	1
45	53	2
98	123	1
124	131	2
63	63	2
127	137	1
97	97	5
159	160	1
63	74	1
58	58	1
105	107	3
24	25	3
110	110	2
72	72	1
85	131	4
145	147	1
13	27	2
159	163	1
178	178	2
21	21	5
159	159	1
167	167	1
34	42	3
62	65	1
10	13	1
80	85	1
27	29	2
75	88	1
67	76	1
131	131	1
66	95	1
147	148	1
145	178	2
143	143	2
26	28	2
18	34	1
56	57	2
89	90	1
50	50	3
23	40	1
172	172	3
83	83	1
77	78	1
52	52	2
11	22	1
3	4	2
10	12	1
123	124	1
24	53	2
21	161	1
14	15	1
99	99	2
125	163	2
87	87	3
99	101	1
28	29	1
80	125	2
0	1	1
103	104	1
138	138	2
157	164	1
90	91	1
155	156	2
126	126	2
68	68	2
115	116	1
17	18	1
112	113	1
111	112	1
125	126	2
71	72	2
138	171	1
45	46	1
122	123	1
26	26	3
23	23	1
98	99	1
82	83	1
19	20	1
92	141	1
74	74	1
75	89	1
76	77	2
141	179	1
8	10	1
147	147	1
168	171	1
11	13	1
156	164	2
85	85	1
50	52	1
91	91	1
26	31	1
104	104	1
57	58	1
4	5	1
131	132	1
