172	172	18
41	41	11
115	115	6
151	178	3
69	69	6
183	183	13
25	26	4
176	176	8
171	175	1
59	59	4
166	166	1
18	22	3
37	37	6
11	14	1
113	113	6
184	184	17
149	149	19
123	124	2
185	185	9
4	4	16
106	133	4
127	127	18
197	197	18
45	45	8
170	188	3
171	171	16
31	31	14
134	142	3
26	26	9
47	47	7
4	179	4
15	16	8
94	94	11
17	17	2
15	15	17
38	38	21
13	14	5
145	145	6
77	77	5
118	118	2
109	110	6
15	44	3
19	20	3
186	186	10
53	53	17
153	153	11
169	170	8
49	49	15
178	178	7
77	78	5
120	120	12
189	189	18
9	10	5
88	88	6
155	155	13
20	55	1
189	194	2
133	136	7
10	11	3
33	33	4
30	30	6
160	166	2
66	68	2
150	150	11
8	22	3
195	195	12
173	173	19
117	117	2
162	162	3
19	27	4
28	57	6
165	165	6
44	45	7
164	169	2
54	55	7
164	164	7
152	153	4
168	168	17
134	134	13
136	154	1
17	30	2
53	63	2
51	51	9
146	146	2
103	104	4
120	121	4
6	10	2
55	56	6
27	27	1
103	103	6
63	65	1
139	139	6
57	57	12
177	177	9
82	83	4
2	2	6
160	161	3
137	137	8
95	96	1
14	45	1
8	24	2
64	65	2
34	36	1
52	52	15
109	109	5
121	121	3
12	12	11
195	196	2
72	72	6
57	58	8
187	187	3
151	151	8
4	5	11
52	58	3
16	16	4
189	192	1
160	160	1
9	9	8
175	181	1
35	37	1
173	174	2
157	157	4
142	143	5
39	40	2
170	170	9
105	110	1
190	190	11
29	29	3
51	52	3
188	188	14
130	130	6
110	110	5
70	70	14
35	36	4
4	18	2
38	40	4
108	108	10
34	34	8
178	180	2
156	156	5
152	152	2
140	146	3
52	53	3
133	170	3
32	32	8
99	99	5
124	124	9
126	128	2
13	13	6
28	29	4
67	68	3
24	24	10
16	27	1
148	148	15
79	79	4
101	101	10
42	42	7
40	40	10
181	185	1
25	25	7
6	17	2
125	125	7
13	16	1
139	141	1
181	181	5
64	66	5
54	56	3
34	35	4
84	84	5
66	66	1
128	128	10
159	160	4
193	193	6
175	175	4
164	168	1
161	164	4
165	166	6
129	130	3
44	44	8
54	54	10
86	87	3
174	174	8
159	161	2
123	123	4
117	118	11
25	27	3
112	112	4
107	117	3
17	20	2
90	97	3
93	96	2
185	186	4
165	167	4
36	36	1
171	172	7
129	129	6
58	114	4
138	145	2
116	134	2
60	73	1
122	122	10
104	120	1
143	143	5
105	105	3
11	12	3
8	8	6
6	6	1
179	179	10
76	76	6
184	187	2
11	30	1
29	36	1
194	194	9
167	167	5
174	175	9
79	80	3
148	173	2
196	197	3
114	115	4
106	106	2
112	113	3
178	179	2
148	149	5
155	157	1
11	11	4
143	168	5
142	142	2
138	139	5
180	180	12
158	158	10
194	195	1
86	88	1
132	132	7
134	135	4
1	2	3
114	114	6
179	180	6
14	14	6
116	116	1
116	117	2
26	27	3
21	21	5
183	186	1
50	50	10
115	116	2
3	3	7
169	169	10
20	20	1
161	162	2
0	0	6
192	192	5
144	146	1
36	37	2
145	147	2
13	32	3
161	161	6
23	23	3
126	126	5
63	63	9
157	163	4
188	189	4
5	5	5
130	153	1
180	189	1
7	9	2
49	50	1
196	196	11
138	138	10
18	25	2
12	13	3
100	100	3
154	154	4
140	140	3
67	67	8
43	44	2
110	112	5
1	34	1
14	44	2
114	127	3
143	178	4
158	169	1
32	33	2
177	178	8
48	58	2
156	157	4
56	63	3
83	84	3
25	31	2
48	49	4
133	133	2
64	64	7
123	127	1
7	8	1
97	97	7
70	71	2
22	22	3
0	24	1
168	169	2
157	158	2
136	136	7
148	159	3
73	95	1
151	152	3
131	131	3
149	151	6
48	48	8
99	101	1
10	195	1
20	190	2
1	1	7
132	144	2
130	131	4
144	144	9
164	165	1
19	19	1
82	82	3
119	119	7
135	135	6
163	165	2
81	81	6
79	81	2
98	118	2
30	34	2
47	48	1
136	137	1
54	113	2
130	142	1
9	52	4
27	184	3
86	86	5
23	57	2
100	104	1
74	74	4
131	132	1
14	32	1
6	9	1
192	193	2
87	87	5
18	24	4
95	95	5
88	90	4
10	15	1
46	47	1
87	88	2
80	80	1
107	110	4
155	158	1
161	165	1
129	145	2
5	6	6
143	144	2
161	173	1
182	182	7
20	21	2
172	173	2
130	176	3
163	168	1
28	28	6
181	184	7
180	181	4
39	39	3
21	38	2
141	141	10
7	18	1
8	30	4
175	176	1
85	85	1
160	183	2
33	34	2
98	103	3
118	119	1
59	63	3
18	18	4
172	192	1
58	58	14
147	147	6
153	160	1
88	89	2
94	99	3
96	97	1
170	171	1
145	152	1
179	193	4
0	2	4
99	100	2
22	29	3
65	66	2
137	138	1
181	191	4
63	64	4
148	157	3
115	118	1
139	140	5
14	15	2
53	58	3
102	103	1
176	177	1
55	55	6
60	64	3
56	56	5
62	63	2
180	186	1
131	136	2
127	128	3
43	43	2
183	184	2
108	109	1
181	183	1
53	54	4
111	111	5
9	45	2
62	62	3
57	123	3
121	122	3
15	17	4
72	73	1
147	148	1
15	24	2
20	24	1
40	43	2
7	41	1
0	1	1
160	173	2
155	156	1
17	18	1
132	133	3
159	159	3
127	129	1
158	175	3
20	39	2
154	172	1
110	111	1
165	182	2
181	182	1
22	43	1
187	188	4
172	183	2
83	83	3
170	179	2
18	19	1
119	127	3
23	24	1
186	188	1
172	185	1
32	45	2
5	180	1
162	165	1
68	68	4
24	25	1
140	172	1
162	168	2
173	175	3
2	5	1
10	14	1
9	41	2
187	189	2
164	171	2
33	36	1
153	179	1
66	69	1
145	150	3
22	23	1
35	35	1
39	42	1
106	107	1
2	3	2
48	51	1
38	39	1
164	167	1
107	107	4
167	178	1
9	22	2
102	102	5
167	187	1
109	111	2
45	50	1
133	134	2
10	10	2
89	89	1
7	21	2
29	30	2
19	28	1
163	164	2
193	194	1
55	57	1
176	178	2
119	120	1
161	171	1
119	126	1
60	61	1
126	127	1
158	160	1
163	163	1
106	108	1
182	183	3
100	101	1
174	187	1
37	194	1
11	45	1
107	111	1
189	191	1
98	119	1
76	85	1
55	58	5
72	74	1
169	182	1
130	145	1
46	46	2
166	167	1
174	176	1
172	181	1
120	129	1
0	3	1
153	154	1
3	8	1
145	146	1
134	136	2
185	195	1
71	114	1
82	84	1
80	84	1
181	187	2
190	192	1
176	192	1
11	49	1
56	57	1
24	28	1
139	174	1
149	176	1
138	188	1
71	71	1
20	38	1
125	126	1
