57	75	3
60	61	4
39	40	1
35	42	4
23	23	2
37	40	3
35	71	2
63	80	2
21	30	5
34	34	2
115	115	1
79	80	2
63	64	2
21	60	7
56	57	2
57	58	1
10	20	2
79	92	4
91	92	8
113	113	8
22	26	2
19	21	3
26	48	4
10	17	6
10	84	1
62	84	3
91	93	3
105	109	2
26	27	1
32	49	6
78	78	10
34	36	4
31	32	6
107	110	1
72	100	2
63	63	3
121	121	2
29	32	2
36	72	1
92	94	1
41	41	6
36	36	10
47	47	1
116	129	1
20	72	3
88	97	1
116	116	3
83	84	2
30	48	1
104	108	2
81	82	3
64	74	2
66	66	3
88	134	2
64	65	5
77	80	4
16	29	1
112	113	3
128	132	1
59	59	7
91	99	1
108	108	1
40	47	7
23	30	2
25	25	2
45	45	8
100	102	1
19	61	2
14	16	3
80	86	3
119	119	3
46	63	6
44	73	2
12	15	1
72	73	2
125	125	1
14	38	3
122	133	2
46	61	2
42	85	1
100	101	3
32	36	5
32	35	1
130	134	1
6	8	6
86	86	2
62	68	1
25	41	3
79	81	4
5	6	2
61	67	4
64	64	9
39	41	2
128	129	2
15	24	3
76	77	1
67	76	1
55	55	5
57	70	1
27	37	2
108	109	1
4	21	3
73	73	4
31	36	2
24	29	2
93	131	2
71	71	5
44	45	4
125	127	1
46	74	1
1	4	2
27	30	5
16	22	1
61	64	2
77	79	7
117	132	1
8	9	3
100	100	2
87	87	4
62	62	2
99	99	3
124	130	1
104	105	3
45	63	2
64	67	3
70	77	2
100	104	1
83	88	4
21	34	2
28	33	2
3	6	1
32	75	2
32	32	2
38	47	1
9	11	2
124	125	3
19	43	2
106	113	1
20	22	3
90	90	1
19	75	2
17	18	2
101	102	1
21	25	1
37	83	2
4	32	1
126	126	1
18	19	1
31	33	1
95	127	1
59	75	1
38	59	3
33	33	9
110	110	1
6	11	2
132	134	2
17	20	1
65	80	1
9	10	2
93	94	1
61	61	2
10	10	2
75	75	1
95	113	1
132	132	4
77	77	1
44	44	5
69	69	2
60	60	3
87	99	2
7	44	3
39	47	1
91	91	4
34	43	1
73	77	1
17	17	6
0	0	2
72	72	8
16	16	3
111	111	1
11	29	3
37	38	4
59	61	1
126	127	2
103	114	2
114	117	5
29	103	2
39	39	6
56	56	4
77	78	4
99	106	1
3	4	1
0	1	2
103	103	3
104	107	2
22	36	3
17	19	2
80	80	1
29	46	1
25	27	1
77	84	1
78	80	2
10	46	3
66	76	1
38	81	1
12	12	4
41	43	1
59	82	2
127	128	1
44	72	2
18	36	2
95	96	2
29	47	1
128	128	4
62	67	1
11	60	2
42	42	3
28	28	3
15	18	1
102	104	2
23	29	4
24	26	2
67	70	4
20	57	2
101	105	1
111	112	3
55	60	1
29	31	1
78	87	1
28	66	2
30	59	2
29	29	2
17	33	1
11	37	2
106	116	1
105	117	2
65	66	1
40	40	1
8	21	3
94	94	2
71	73	1
83	91	2
11	39	1
6	6	2
75	109	1
80	81	1
15	47	1
119	132	2
16	21	3
2	6	4
34	35	1
73	79	1
81	83	2
130	133	2
90	92	2
14	14	3
30	60	1
92	100	4
28	29	1
124	131	3
121	122	1
78	79	2
64	73	2
109	117	2
76	76	1
30	30	2
75	110	1
132	133	1
22	46	1
67	67	1
122	127	1
74	95	1
44	46	1
6	24	2
5	7	2
72	76	1
45	79	2
26	29	2
109	111	1
82	83	4
115	120	1
66	74	2
60	64	1
11	11	1
13	13	1
25	26	1
66	72	1
19	19	1
71	74	2
16	31	1
48	48	2
68	69	1
46	57	1
10	15	1
84	84	1
30	31	1
58	60	1
115	116	3
40	45	1
112	114	1
9	12	1
131	131	2
45	62	1
29	40	1
94	97	1
64	66	2
46	73	2
108	115	1
107	107	2
14	23	1
34	41	2
46	47	1
68	68	1
128	131	1
90	94	1
0	2	1
97	107	1
26	76	1
60	73	1
80	84	1
79	79	1
7	9	1
6	7	1
84	85	1
39	83	2
33	41	2
114	130	1
43	72	1
61	74	2
72	80	1
11	13	1
47	55	1
0	12	1
73	76	1
79	86	1
36	37	1
6	9	1
98	105	2
19	30	1
118	118	1
27	28	1
74	84	1
45	46	1
21	21	1
74	82	1
6	25	1
82	82	1
43	45	1
103	126	1
40	83	2
87	96	2
108	110	1
98	99	1
99	101	1
58	58	1
120	121	1
93	95	1
124	129	1
11	46	1
127	129	1
33	77	1
74	74	1
0	19	1
21	74	1
