1	1	5
63	66	3
89	89	6
31	31	4
171	171	8
132	132	8
3	33	2
146	151	1
149	149	6
138	153	2
142	142	13
107	109	7
96	96	2
17	60	2
143	144	5
40	41	1
170	170	3
15	15	2
84	85	1
63	67	5
84	84	3
3	3	14
169	169	10
180	180	7
138	163	5
94	95	1
3	4	13
32	32	4
179	179	5
97	98	2
134	137	2
42	42	9
124	124	6
178	178	9
170	177	1
65	65	6
52	52	2
79	79	12
150	150	5
77	148	2
111	148	2
98	99	1
66	66	8
19	19	11
129	129	19
54	54	7
35	35	10
136	137	4
146	149	2
92	92	3
3	9	1
121	122	5
5	5	9
9	13	1
150	151	3
117	118	7
35	36	2
151	153	5
134	149	2
14	14	19
71	72	1
116	116	4
167	167	11
108	109	6
175	175	7
8	8	6
65	89	1
52	53	5
70	71	1
36	37	6
137	137	3
157	166	3
33	41	1
163	166	5
9	9	8
2	2	5
25	25	8
147	153	3
110	111	5
157	157	2
125	129	3
62	62	2
72	72	10
102	106	5
22	126	4
71	71	7
4	8	4
16	16	12
122	122	4
148	148	10
164	164	6
27	33	5
111	112	2
108	108	7
11	11	7
36	36	8
144	144	3
10	11	5
15	31	7
137	148	1
118	121	4
55	55	5
23	24	2
125	126	8
162	164	2
68	68	11
136	136	3
90	90	7
61	61	4
135	135	4
20	26	2
131	135	1
56	56	3
19	30	1
158	158	5
126	126	15
121	121	3
143	148	2
162	171	6
176	176	10
2	24	1
88	89	4
39	39	5
11	17	2
57	72	1
168	168	6
22	24	4
24	24	5
59	59	2
86	86	9
134	134	5
10	10	12
106	107	6
135	136	5
53	53	4
113	120	1
82	102	3
123	123	12
29	29	6
147	147	13
50	85	2
156	160	2
26	26	5
88	88	3
85	85	2
51	51	3
109	109	9
107	107	2
158	167	2
159	159	4
133	133	5
162	172	2
147	148	3
77	77	4
62	67	2
174	174	3
164	169	6
113	117	1
155	156	1
51	68	7
101	103	1
18	18	8
80	118	1
138	138	6
64	64	1
10	14	2
56	57	1
118	120	7
127	127	10
128	128	3
25	26	7
134	147	1
9	12	2
160	160	3
152	154	4
164	167	1
122	124	1
38	38	2
88	156	2
145	146	1
136	151	1
34	34	2
127	134	1
87	89	2
50	50	8
2	19	3
1	34	3
99	100	4
80	80	10
83	83	5
151	155	1
28	29	4
15	17	2
177	179	1
78	78	4
71	73	2
80	103	1
44	44	8
95	96	5
165	166	4
114	124	2
101	101	6
91	91	2
143	153	1
94	94	4
65	66	2
8	9	4
26	32	1
151	151	2
75	179	1
15	16	1
166	170	1
81	81	9
126	127	1
23	23	7
139	142	2
111	111	4
12	13	3
161	161	8
2	5	1
55	56	7
104	104	2
16	18	4
45	45	6
162	162	4
14	32	2
90	91	2
52	79	2
102	102	13
117	117	4
75	75	3
76	77	2
173	173	8
112	129	4
158	163	3
93	93	2
140	176	1
6	6	8
91	144	1
164	166	1
22	26	3
16	20	1
58	58	3
12	12	6
17	18	2
82	82	5
54	55	1
109	119	4
95	95	12
13	16	4
154	154	1
163	165	2
90	92	4
9	26	2
158	159	1
166	166	2
60	60	4
165	165	4
28	31	3
10	32	2
2	4	1
111	137	2
152	156	2
24	26	1
170	171	3
115	135	1
157	158	2
125	125	8
156	157	4
17	17	6
1	2	7
156	156	10
22	23	3
21	28	2
96	97	1
27	27	3
61	92	4
145	145	6
143	160	1
117	130	2
113	113	1
141	141	5
80	115	1
151	154	4
127	156	3
100	117	1
49	66	3
5	6	5
105	105	4
111	129	1
119	119	5
117	120	3
133	138	3
109	121	2
32	33	1
156	167	3
36	51	2
33	33	5
172	172	1
74	75	1
128	129	2
103	103	3
153	153	5
77	78	1
71	77	2
49	63	2
113	116	1
114	129	1
109	132	1
154	155	3
57	57	7
7	7	4
7	23	1
120	121	2
152	162	3
51	52	3
21	21	3
84	86	3
154	156	6
107	113	2
4	4	4
133	134	3
9	24	2
26	27	2
142	168	1
63	75	1
66	67	5
86	155	1
0	1	4
107	117	1
37	38	1
106	106	4
2	14	3
139	139	2
7	10	1
8	11	2
131	131	6
11	14	1
116	118	2
16	31	1
132	167	2
104	105	1
68	78	1
51	75	3
128	134	3
24	28	2
8	25	2
74	74	6
50	71	1
143	143	2
19	21	2
146	174	2
8	40	1
93	94	1
76	76	1
113	115	1
161	162	1
33	38	3
63	154	3
171	172	4
155	155	3
28	28	2
177	178	1
1	3	1
12	18	1
72	74	2
12	30	1
20	20	4
32	39	1
136	149	1
99	99	1
163	163	2
49	68	1
87	87	2
3	15	4
179	180	2
73	74	1
126	130	2
6	9	2
40	40	6
1	14	1
154	157	1
15	19	3
87	97	1
157	160	1
73	75	1
40	58	3
152	153	2
136	154	2
140	140	5
58	75	4
73	77	1
113	114	1
154	159	1
156	161	1
72	73	3
51	59	3
89	90	2
127	129	3
125	155	2
79	112	2
6	8	2
16	35	2
43	43	1
52	58	1
8	16	1
32	38	1
13	13	4
50	52	4
71	74	2
157	161	2
35	43	2
139	140	1
75	83	1
26	36	3
87	91	1
117	119	2
115	115	2
93	104	1
80	82	1
91	94	3
141	169	1
86	158	1
173	174	1
154	158	1
29	30	2
107	127	4
123	124	1
101	130	1
166	167	1
10	13	1
108	114	1
113	119	3
122	167	2
150	166	1
64	71	2
116	117	2
22	22	5
134	157	1
91	92	1
107	110	1
5	10	1
121	129	2
51	95	1
161	164	2
103	104	1
19	20	3
127	128	1
85	86	2
62	66	1
115	121	4
148	149	1
156	158	1
73	73	1
122	123	1
0	0	3
37	37	2
144	154	1
115	117	3
78	149	1
53	57	2
86	119	1
123	135	1
41	42	2
5	12	1
25	29	1
144	159	2
135	140	2
3	5	1
139	148	1
100	100	2
8	24	1
86	87	2
99	119	1
119	120	1
172	174	1
132	134	2
150	155	1
73	83	1
168	169	1
116	128	1
63	63	1
30	31	1
177	177	1
106	137	1
110	121	2
18	22	1
115	124	2
50	53	1
158	160	1
152	160	1
43	45	1
101	127	1
7	39	1
160	162	1
50	51	1
155	157	1
69	131	1
72	79	1
81	82	1
139	141	1
73	82	2
129	130	1
174	175	1
60	99	1
25	30	1
20	66	1
31	38	1
43	44	1
138	152	1
71	76	1
120	169	1
129	131	1
130	130	1
105	107	1
72	77	1
159	167	1
66	74	1
59	63	1
49	119	1
102	114	1
42	45	1
138	149	1
9	19	1
61	63	1
97	105	1
114	114	1
86	100	1
103	119	1
16	17	1
