46	49	4
62	62	14
54	54	19
72	72	16
98	99	7
75	75	20
92	92	12
88	88	14
42	42	13
33	33	9
52	52	13
68	68	8
67	73	2
61	64	3
79	79	17
50	50	23
48	49	4
34	36	3
78	80	6
44	44	13
93	93	21
45	51	1
51	51	15
46	47	17
32	33	4
37	37	14
60	61	12
71	72	7
43	47	2
88	89	3
35	51	2
94	96	1
78	79	16
47	47	12
38	54	3
38	38	5
53	54	3
49	50	8
57	63	2
99	99	20
43	43	16
86	89	5
63	64	6
20	22	9
41	64	2
87	89	4
74	74	13
35	35	5
31	31	4
70	82	4
63	63	9
98	98	13
34	34	8
39	40	11
34	51	1
91	91	20
61	61	19
53	53	15
66	69	5
77	77	18
36	37	6
51	52	3
35	36	6
65	73	6
96	96	8
74	76	2
60	62	2
84	84	14
66	66	12
73	73	15
80	81	4
90	90	13
49	49	17
95	96	5
93	94	4
97	97	12
60	60	19
92	93	9
94	94	16
75	90	2
65	65	12
39	39	21
70	70	23
40	40	16
37	38	12
44	45	9
76	78	4
35	52	3
56	56	6
71	71	4
58	60	5
91	92	3
87	87	23
64	64	15
25	25	4
92	96	1
79	80	4
59	59	17
92	95	2
96	97	5
83	83	7
72	73	5
50	51	6
98	100	3
88	91	4
99	101	1
57	58	3
89	89	16
27	28	1
59	60	3
56	57	2
46	46	6
69	69	12
42	43	5
32	32	4
22	22	4
46	58	1
66	67	5
62	64	1
86	86	13
43	44	1
90	92	3
41	41	6
65	69	8
41	65	1
35	54	1
87	88	5
42	44	3
95	95	14
57	57	16
86	87	6
68	69	1
26	26	7
46	53	3
91	93	3
64	69	1
67	68	7
100	100	14
46	56	1
99	100	2
66	72	2
52	55	1
69	71	5
90	91	5
29	29	9
43	62	3
69	70	12
74	77	2
41	73	2
101	101	14
38	39	5
80	80	4
46	52	2
48	52	3
76	77	14
41	42	3
69	72	2
78	78	8
92	94	6
47	50	7
45	58	2
70	77	2
43	74	3
70	71	4
55	55	3
67	67	5
85	85	10
58	61	2
75	77	1
76	76	8
58	59	7
41	49	3
39	98	3
82	84	2
24	28	4
62	63	2
27	31	2
45	45	3
46	78	3
30	30	1
38	56	2
45	59	4
94	95	1
24	24	1
74	75	1
46	48	5
37	50	4
47	49	3
36	36	6
47	76	2
31	32	1
51	53	4
20	23	1
44	76	1
101	102	2
61	62	1
58	58	9
45	46	3
70	73	1
89	93	1
81	81	8
48	48	3
58	86	2
47	48	5
57	59	3
57	60	2
57	64	3
100	101	5
65	74	3
89	90	2
40	66	1
93	95	3
41	101	1
93	96	1
77	79	5
85	89	2
77	78	4
75	79	2
26	28	1
70	72	1
31	36	1
91	99	1
34	84	1
69	73	1
48	50	2
49	56	1
88	93	1
41	43	1
35	39	1
23	24	1
41	56	1
47	51	1
96	98	1
34	54	1
82	82	2
59	62	1
27	27	1
92	99	1
66	68	1
41	62	1
41	91	1
44	63	1
51	55	1
52	56	1
42	73	1
32	61	1
69	74	1
50	56	1
