26	61	3
13	14	6
5	5	19
62	62	17
37	38	5
31	31	18
58	58	11
39	63	2
41	41	16
48	48	22
76	76	15
54	54	25
25	56	1
11	11	26
3	3	12
68	68	10
59	59	14
77	77	17
64	65	1
25	26	3
57	57	17
52	52	11
12	12	6
8	11	3
54	69	1
67	67	11
69	69	11
4	4	21
37	40	3
42	42	8
30	33	2
16	16	5
38	39	4
47	47	25
37	37	13
11	12	6
16	17	4
71	71	16
74	74	15
49	51	5
7	36	3
10	10	21
57	58	1
72	72	17
19	19	10
21	31	7
75	75	12
66	66	16
67	68	6
51	52	5
60	60	2
69	71	5
36	36	10
55	56	1
32	34	2
32	32	13
7	7	19
53	53	7
73	73	18
1	1	27
33	33	8
12	14	4
26	26	7
66	67	6
69	70	13
31	32	5
33	34	2
30	35	5
9	9	16
17	17	8
54	55	4
21	21	8
79	79	21
8	8	15
70	71	3
18	57	5
10	12	3
46	46	13
49	49	20
70	70	10
30	31	4
34	34	10
39	39	15
28	63	6
44	45	3
14	14	3
59	60	7
51	53	4
6	6	20
37	47	2
49	52	1
73	80	3
2	2	13
38	38	14
1	74	6
51	51	3
61	62	3
50	50	7
40	40	11
36	37	1
8	10	1
45	49	3
71	72	3
20	20	5
0	0	13
6	7	4
65	65	4
35	57	2
9	10	4
29	29	30
63	63	6
35	35	13
80	80	7
10	71	1
58	59	5
28	28	4
5	75	4
41	42	2
18	18	12
27	27	9
43	43	3
59	62	2
18	27	1
73	74	5
64	64	6
15	15	5
3	4	2
21	32	4
13	13	6
45	46	6
74	75	4
30	52	1
78	78	3
61	61	2
32	50	2
25	25	5
81	81	2
40	41	1
18	19	1
15	16	4
45	54	1
63	64	3
31	53	3
1	2	3
39	47	3
10	11	3
54	64	3
6	71	1
56	56	5
12	71	3
42	48	2
17	27	3
42	43	1
36	55	3
59	76	2
29	30	3
47	58	1
30	54	1
58	79	2
45	45	4
12	13	1
5	6	1
2	3	3
60	61	2
19	27	1
55	55	2
7	8	3
13	15	6
26	27	1
54	59	1
60	63	1
68	69	1
10	33	1
40	42	1
55	64	1
58	60	2
34	35	4
56	57	1
0	16	1
1	3	3
17	33	1
78	79	2
42	47	2
45	66	2
50	51	1
10	50	1
49	50	3
37	41	2
52	53	1
30	30	1
33	75	1
25	60	1
26	29	1
30	34	1
29	65	1
