101	101	15
80	81	3
63	70	3
89	89	7
72	72	27
43	43	17
90	90	15
68	68	16
76	76	14
50	50	9
97	97	3
73	73	8
78	79	4
65	65	12
98	99	2
34	34	6
59	59	18
79	80	4
81	82	3
57	57	7
66	99	2
70	70	15
93	93	16
64	64	10
54	54	5
87	88	15
90	91	1
47	48	4
24	24	6
76	77	9
42	42	7
91	96	1
87	100	7
57	58	2
26	27	4
39	39	6
29	33	7
36	36	4
28	29	1
63	63	5
64	69	1
41	42	2
98	100	5
58	58	8
86	86	8
52	53	3
52	56	5
40	41	12
96	96	7
84	89	1
92	92	9
66	66	15
91	91	12
81	81	10
36	51	1
94	94	4
37	37	3
88	88	6
53	53	7
54	55	3
60	60	7
46	46	4
36	37	1
70	71	5
58	59	2
63	71	3
47	61	1
99	99	8
27	27	5
55	55	9
39	48	1
44	44	16
51	51	11
51	71	5
41	41	11
79	79	5
56	69	4
40	40	9
67	67	11
84	84	4
49	50	1
65	66	8
100	100	2
52	52	14
37	38	3
75	75	9
29	32	2
96	98	2
32	32	4
25	25	5
43	71	1
73	76	1
102	102	1
82	85	1
100	101	3
97	98	5
80	80	2
51	70	2
69	69	11
38	50	2
33	33	9
74	74	9
78	78	2
45	45	3
99	100	5
48	48	8
75	77	3
96	97	8
95	97	1
35	38	2
62	62	8
75	76	3
98	98	4
87	87	7
68	78	1
68	69	4
83	83	3
22	22	5
77	77	4
82	82	2
49	49	5
30	30	3
93	94	7
74	75	5
26	46	2
86	87	5
65	68	1
85	85	7
61	61	10
34	41	2
56	56	7
95	95	6
47	47	5
71	71	10
53	54	4
27	45	1
43	44	3
82	89	2
94	101	1
31	32	2
94	95	2
67	68	4
40	46	4
56	57	6
38	38	2
56	58	3
38	48	1
86	89	1
45	47	1
61	62	1
28	28	1
82	92	1
50	51	4
64	65	3
94	98	2
63	64	4
35	60	1
35	36	6
72	73	3
46	47	1
34	57	1
26	26	3
33	34	5
34	35	1
78	80	1
41	69	1
24	47	1
25	29	1
71	72	4
101	102	3
59	60	1
43	72	1
76	78	1
62	101	2
29	29	2
22	23	2
33	54	3
95	96	1
89	90	2
39	45	1
27	28	1
58	64	1
63	99	2
83	86	2
73	74	1
54	58	1
25	26	1
35	39	2
48	49	1
84	98	1
42	50	1
24	28	1
70	73	1
66	78	1
38	47	1
31	31	1
71	80	1
55	59	1
30	31	1
