29	29	22
130	130	7
38	38	23
118	118	14
88	98	5
101	135	5
147	148	5
24	24	30
53	53	49
101	112	3
77	77	13
82	82	17
99	116	2
88	99	4
7	17	3
57	57	11
125	126	7
146	146	6
81	82	12
12	36	4
96	96	12
122	122	17
20	21	8
68	87	2
97	98	5
26	27	9
29	30	6
136	137	3
74	93	3
39	78	2
104	137	3
21	30	2
73	73	13
119	119	16
98	99	18
99	99	9
40	41	7
66	99	4
11	11	23
50	50	5
104	112	5
68	120	4
13	13	19
39	56	2
16	17	5
45	45	23
33	33	8
26	26	10
128	129	4
140	141	8
34	51	3
87	88	9
124	125	5
88	94	3
117	117	5
110	110	5
144	146	2
9	9	11
36	36	21
128	128	16
21	22	8
136	148	4
43	43	27
108	113	3
93	94	4
56	69	5
148	148	12
44	44	12
47	47	20
25	29	4
77	78	3
144	147	5
55	55	9
115	116	5
12	12	12
84	84	24
42	42	24
64	66	5
72	72	6
112	133	2
116	116	9
7	7	11
12	35	1
31	31	25
6	27	3
93	98	10
16	18	3
131	131	17
92	93	8
122	123	4
18	18	22
71	71	15
8	32	1
144	144	6
70	70	17
16	16	11
65	65	10
10	95	4
109	123	2
93	93	9
83	83	7
8	8	2
81	83	7
5	6	5
127	135	8
11	12	3
10	10	4
23	23	13
17	18	3
49	50	8
19	19	24
78	78	10
149	149	13
138	138	8
37	37	18
27	28	7
129	129	6
38	72	4
104	104	15
89	90	7
108	108	6
56	149	5
100	128	1
120	120	14
102	102	4
94	95	3
35	37	4
127	128	7
63	64	1
33	34	4
54	54	16
68	74	6
79	81	7
67	67	19
14	14	12
113	113	5
28	29	3
28	51	2
51	51	6
145	145	14
95	95	5
65	82	2
152	152	6
9	28	4
107	109	1
10	80	2
38	42	4
91	121	1
95	117	1
56	57	2
21	21	18
46	46	23
83	84	5
95	97	8
94	94	18
150	150	9
105	128	1
25	25	6
151	151	9
62	62	14
127	131	1
75	87	1
133	133	8
63	63	11
64	74	3
72	73	14
142	150	1
25	28	1
52	53	4
76	76	9
6	6	10
34	35	3
97	97	3
84	85	6
111	112	3
143	145	2
69	69	16
75	93	2
85	86	7
64	77	3
154	154	7
40	40	12
27	27	15
132	132	9
6	7	4
114	114	12
125	125	13
109	134	2
126	126	6
75	75	9
41	48	4
4	4	15
62	63	8
112	113	5
96	97	6
4	5	5
49	49	13
79	94	5
129	132	3
106	107	3
137	142	1
28	28	18
32	42	1
4	7	7
111	111	6
133	138	2
78	79	20
44	45	3
6	14	2
13	14	6
141	144	1
109	109	14
53	54	7
101	101	6
48	48	11
81	81	6
109	111	4
19	20	5
112	112	5
10	11	3
76	81	2
4	14	1
3	3	3
90	92	3
34	38	3
34	46	1
41	41	9
14	15	9
74	75	1
23	35	4
18	20	1
39	39	9
107	114	6
131	152	3
56	56	5
126	128	2
102	112	3
131	146	3
66	66	9
25	26	4
86	86	7
17	23	2
107	121	3
125	129	2
142	142	6
147	147	2
16	25	2
22	22	10
106	135	3
39	40	7
27	30	3
136	136	11
64	83	5
30	30	5
42	100	1
140	140	9
12	28	1
32	32	4
66	67	5
100	100	9
13	40	3
138	139	8
3	4	2
55	56	2
38	39	5
42	43	6
31	32	5
34	34	15
5	8	2
9	20	2
101	129	2
94	98	2
107	107	6
12	13	4
142	152	1
18	24	3
88	88	3
96	98	1
90	112	2
146	147	1
77	79	3
35	35	14
121	121	2
51	85	1
72	81	4
122	131	3
92	109	3
50	51	5
141	141	2
131	137	2
25	39	1
8	24	2
135	135	3
141	142	5
37	44	3
68	68	14
139	139	8
45	46	6
127	127	6
8	9	4
122	128	3
24	25	2
83	85	8
73	80	2
121	122	1
95	116	2
138	144	4
89	97	2
93	112	4
20	20	4
29	36	3
141	146	2
40	48	2
28	30	6
5	9	1
39	50	3
150	151	2
17	17	8
47	48	5
135	137	1
18	118	1
2	32	3
135	136	3
20	24	2
77	80	1
5	11	2
31	54	1
95	98	1
64	64	4
17	21	2
9	10	8
25	34	1
134	135	1
32	34	1
106	114	2
129	134	5
5	7	6
79	79	6
110	111	2
142	143	3
37	41	3
82	83	3
21	29	4
106	123	2
88	112	2
70	71	6
30	32	4
54	55	2
80	81	10
109	135	2
83	93	3
39	47	2
39	76	3
93	99	2
105	105	4
64	65	3
98	98	14
32	33	3
134	134	6
9	13	1
65	66	4
30	31	5
52	85	3
85	85	8
28	36	2
19	28	1
123	123	3
104	110	2
8	10	2
65	67	1
118	119	1
124	124	4
99	127	1
63	69	1
115	115	5
108	111	3
79	147	3
9	11	1
64	69	2
5	13	2
41	42	4
41	49	3
12	14	1
56	58	1
25	33	2
48	53	1
93	95	2
73	92	2
50	55	2
22	28	1
97	147	2
67	68	4
44	109	1
13	26	2
128	131	2
80	83	1
137	138	3
87	87	9
131	132	4
21	94	3
15	15	2
9	29	1
85	99	1
52	72	2
68	69	2
109	119	1
131	134	1
74	74	3
92	92	5
17	19	1
68	95	1
43	44	3
87	95	1
76	77	1
62	64	1
130	142	3
64	84	2
22	23	1
15	116	1
53	92	1
49	52	3
124	127	3
106	108	2
106	106	2
29	37	3
91	92	1
69	72	2
117	119	2
137	146	1
104	105	1
25	38	2
153	153	7
106	124	1
5	36	1
80	122	1
4	25	3
137	137	1
40	44	1
128	151	4
52	58	2
103	112	1
2	3	2
55	57	3
142	144	1
15	16	2
24	115	4
24	27	1
4	32	1
36	37	1
4	6	1
43	48	1
99	100	1
117	129	2
18	19	1
45	48	1
45	52	3
49	152	2
145	146	3
75	76	6
48	49	2
122	126	2
103	123	3
93	104	1
91	93	2
70	75	1
125	127	1
100	114	3
40	45	2
67	82	1
72	119	1
110	123	1
114	145	1
15	54	1
31	33	2
104	119	2
92	94	1
23	27	1
103	128	1
117	118	1
96	115	1
80	86	2
67	72	1
28	77	3
99	113	2
148	149	1
137	144	1
40	56	1
109	114	1
77	98	1
126	127	2
73	100	3
77	107	2
104	123	1
27	29	1
56	64	1
84	86	2
67	69	2
139	145	3
14	16	2
101	102	1
74	77	1
37	38	2
34	53	1
45	55	1
16	124	1
44	111	1
73	74	2
112	114	2
152	153	1
88	130	1
58	62	1
75	150	2
10	14	1
132	135	1
107	108	2
121	132	1
85	94	1
145	147	1
132	133	1
36	38	1
122	132	1
52	52	1
69	71	2
116	117	1
85	90	1
66	72	1
12	21	1
78	121	1
63	65	1
139	144	3
79	80	1
23	24	1
13	34	1
52	56	1
2	2	1
123	128	1
