112	112	13
126	127	10
109	109	20
48	53	11
63	63	12
9	48	1
24	25	11
7	7	16
141	141	16
96	96	9
118	119	4
42	46	1
108	109	10
17	17	6
81	81	18
20	20	18
89	113	4
82	82	13
32	32	8
129	129	14
88	88	14
70	70	9
10	46	6
140	140	22
19	20	9
100	100	24
106	139	3
78	157	4
35	35	9
42	42	25
32	47	5
0	0	27
83	83	19
54	54	12
39	39	16
57	63	8
33	34	9
130	131	5
36	53	6
110	110	12
67	68	4
135	139	1
21	22	3
65	65	5
105	105	21
85	86	6
133	133	27
22	22	22
94	94	17
147	147	9
36	54	5
148	148	13
37	37	10
52	52	18
127	127	16
50	54	6
108	108	15
105	106	10
98	137	1
146	155	2
123	134	3
128	138	8
116	116	14
115	115	8
62	122	2
77	77	17
37	40	4
54	55	13
158	158	5
126	126	10
144	144	6
6	6	22
134	134	9
134	143	1
87	90	1
136	137	7
129	130	4
89	100	2
73	73	14
80	81	2
0	100	3
40	42	3
150	150	8
26	64	4
125	134	3
41	41	11
56	64	3
99	99	11
66	67	3
144	157	3
30	119	1
9	25	2
87	88	1
44	46	4
51	51	15
64	64	6
68	68	15
28	28	19
15	15	11
39	40	6
142	143	6
78	78	8
145	146	1
71	71	15
38	38	10
21	21	18
135	136	16
1	2	14
34	35	8
41	43	4
8	9	4
103	104	11
132	132	12
42	43	8
106	106	11
104	129	1
42	133	1
95	109	10
31	32	4
31	31	19
51	54	1
12	13	4
3	4	5
45	45	16
151	151	15
151	152	6
49	49	20
118	122	9
4	5	4
98	98	6
103	105	2
156	156	14
111	111	6
89	103	1
67	67	8
9	9	10
10	20	1
157	158	6
139	139	14
23	72	1
14	15	3
2	2	10
35	54	2
48	48	9
29	29	16
68	69	16
103	110	3
113	113	2
1	72	2
62	62	2
112	121	5
30	30	13
92	135	1
15	21	2
73	75	4
125	126	8
114	114	32
51	52	6
88	118	5
23	23	9
88	89	10
79	80	6
104	104	18
126	158	1
92	92	10
79	79	5
35	47	1
118	118	4
24	24	16
69	69	12
152	153	3
66	66	19
75	80	3
96	97	3
68	71	7
115	116	16
95	96	5
132	134	2
80	82	9
25	66	8
0	28	1
122	131	6
64	87	5
93	94	9
34	34	27
80	80	4
44	130	4
11	13	1
76	84	1
86	109	1
114	116	2
85	85	14
7	28	4
36	37	1
92	113	4
91	136	2
93	93	12
8	8	17
125	125	13
46	46	16
38	39	5
30	32	6
135	137	4
27	28	8
131	131	9
1	1	28
25	25	9
52	54	2
63	64	1
62	63	1
11	19	1
99	100	2
56	84	2
123	124	6
4	4	6
123	123	9
16	16	8
17	18	1
49	51	2
85	101	3
120	123	4
75	75	11
44	44	9
18	24	4
71	73	2
88	103	8
29	30	4
154	155	5
53	54	3
70	71	2
3	3	20
11	11	10
98	99	3
10	10	9
50	51	4
98	100	4
67	70	5
127	132	2
11	32	3
95	95	8
25	26	4
6	36	2
155	155	22
144	146	3
36	36	7
86	116	4
5	5	29
107	107	11
94	120	4
87	110	1
78	130	3
135	135	12
15	16	14
118	121	3
137	139	5
121	140	3
103	108	1
17	39	3
115	126	3
128	129	5
13	30	3
12	80	2
117	117	14
1	45	2
32	50	1
13	14	4
8	18	2
90	90	5
159	159	3
106	132	5
76	77	1
51	65	1
15	86	4
147	153	2
43	43	12
149	151	2
82	110	9
74	74	8
154	154	4
78	144	3
37	42	3
87	104	1
91	91	8
148	153	1
55	57	8
13	16	3
6	41	2
142	142	12
24	26	3
153	154	1
3	107	3
105	142	8
22	23	3
45	47	2
104	108	4
101	101	8
19	19	3
124	124	4
156	157	4
55	55	7
84	84	19
67	87	1
97	125	2
125	158	3
114	115	6
72	72	10
77	111	3
83	129	2
47	55	3
35	36	6
7	8	6
131	135	3
107	110	1
73	98	3
33	138	1
95	97	5
11	12	6
148	157	8
100	101	2
97	97	16
110	114	2
144	145	10
134	137	2
12	12	6
84	85	7
9	13	1
27	27	7
112	122	4
106	108	3
120	120	6
123	126	3
112	141	4
48	49	5
23	24	7
117	124	2
20	22	1
121	121	4
51	67	1
111	123	1
8	10	1
131	142	1
138	138	19
90	98	4
104	155	1
0	1	3
127	133	1
82	84	4
131	132	5
78	146	3
136	136	5
145	147	3
18	19	7
2	94	5
18	18	3
30	87	5
86	87	4
137	138	9
105	141	4
86	141	2
21	45	3
111	120	6
89	90	1
40	129	5
84	140	2
123	150	3
44	45	2
111	144	1
94	95	2
64	85	1
91	92	7
65	66	3
26	26	9
48	50	4
57	64	1
79	82	4
87	87	13
34	54	1
130	130	9
7	22	2
22	24	2
155	157	3
97	98	3
90	91	7
98	150	4
16	17	5
75	76	2
12	73	1
149	149	5
93	141	1
92	115	10
119	119	6
76	76	1
47	47	8
112	113	1
21	32	2
146	147	5
55	66	4
18	39	2
86	86	3
10	11	3
62	70	2
32	35	1
10	29	6
69	70	3
26	72	4
68	87	3
97	138	1
89	89	4
155	156	2
145	145	4
43	49	3
36	50	4
137	137	7
15	84	1
67	69	1
5	6	1
32	136	2
140	141	2
146	150	1
90	112	4
108	139	1
14	56	1
40	40	5
83	84	9
49	54	2
50	50	9
110	134	1
104	118	1
88	130	3
83	141	1
13	13	9
110	123	1
39	48	1
51	55	2
14	14	3
7	21	2
14	65	2
122	122	7
143	154	2
104	112	4
146	146	4
108	110	3
132	142	1
45	98	1
112	114	1
41	134	1
90	128	1
106	107	1
13	20	4
76	82	2
45	46	1
133	144	2
78	86	1
53	53	8
72	97	1
124	127	2
102	104	2
66	71	3
121	132	2
99	125	1
25	28	1
137	140	2
131	149	1
100	149	2
19	26	4
52	53	5
155	158	1
46	47	2
57	57	7
149	150	2
106	110	3
27	44	1
15	32	3
132	133	5
67	141	1
87	94	1
122	133	1
132	143	1
11	29	3
15	39	1
124	137	1
112	146	2
43	46	1
148	151	2
34	136	1
145	154	1
91	97	2
124	134	3
11	45	1
4	112	2
113	114	2
102	102	3
79	85	4
2	41	2
8	22	1
91	137	1
128	128	2
100	151	2
88	101	1
94	121	1
150	153	3
104	105	3
21	24	2
152	155	1
132	158	1
121	122	1
91	125	2
83	88	3
72	73	1
1	90	1
117	140	2
77	86	1
93	136	1
35	52	3
45	129	2
21	55	3
35	138	1
18	23	1
87	89	2
85	141	1
104	141	1
134	135	1
157	157	6
65	69	1
103	103	6
14	32	3
4	31	1
150	152	4
71	157	2
0	2	2
146	148	1
33	33	4
20	27	1
120	121	1
9	38	1
68	70	2
48	131	1
143	143	1
25	84	1
46	129	1
111	133	1
61	61	1
115	125	1
95	99	1
0	57	2
56	56	2
144	147	1
153	157	1
111	112	2
67	72	3
3	36	1
63	65	3
82	140	2
8	11	1
77	145	1
6	18	2
154	158	1
79	103	3
19	23	3
83	86	4
126	154	3
37	39	1
105	110	1
90	136	1
147	155	2
101	102	1
109	110	1
107	108	1
111	114	2
11	16	2
112	123	1
108	112	1
26	66	2
32	33	1
116	127	1
92	93	2
103	130	1
119	120	1
28	43	1
104	146	1
18	38	5
12	29	2
9	10	2
115	121	1
152	152	3
39	41	2
122	126	1
52	57	1
147	152	1
37	38	1
28	98	1
33	46	1
36	52	1
13	52	1
45	90	1
47	48	2
4	104	1
4	44	2
144	158	1
30	35	1
110	112	2
12	83	1
122	132	1
2	4	1
41	131	1
31	33	1
50	53	1
105	111	1
114	130	1
116	130	2
7	46	1
27	71	1
84	86	1
101	135	1
124	153	1
30	33	2
111	122	2
17	43	1
11	17	1
83	85	1
81	108	1
87	103	1
6	27	1
55	65	1
111	151	1
122	140	1
100	137	1
81	82	1
77	78	1
41	42	1
39	50	1
50	135	1
81	114	1
