83	84	7
125	127	4
118	118	3
65	67	4
22	23	8
76	76	6
46	46	10
45	45	10
12	12	23
5	5	23
87	88	4
40	40	11
28	28	16
6	6	8
50	51	5
72	72	6
100	103	3
81	81	15
66	68	3
64	66	2
56	57	6
119	119	12
77	77	17
21	21	29
16	30	1
73	73	5
94	94	10
56	149	1
127	135	3
39	70	1
95	98	1
139	139	10
111	112	4
111	111	11
39	41	2
40	57	2
31	31	28
69	141	4
122	122	6
38	38	13
29	30	12
138	138	10
16	38	3
154	154	8
15	16	6
122	126	5
55	56	5
128	130	1
145	146	11
35	36	10
57	111	2
110	113	2
26	28	6
86	93	5
53	53	13
51	51	4
37	39	3
138	139	5
75	75	16
103	104	4
72	74	1
124	125	12
29	29	8
6	8	12
43	43	12
36	36	17
39	39	20
19	19	7
15	15	13
32	33	10
37	37	8
85	86	5
24	24	11
81	82	7
127	128	5
78	99	4
30	31	6
91	91	2
148	150	3
32	32	24
147	147	4
18	18	9
105	108	1
128	128	8
14	14	11
69	69	8
13	13	7
144	144	6
125	125	11
41	56	1
106	107	2
129	129	8
27	28	6
64	79	4
14	29	3
25	29	5
34	35	4
64	77	1
149	150	3
64	69	1
16	16	7
106	106	6
46	47	6
81	83	2
64	68	4
10	10	11
57	57	9
117	118	11
136	137	3
108	108	6
120	137	2
53	55	4
50	50	6
144	147	5
63	63	6
8	8	6
93	93	7
121	122	2
53	57	3
30	30	16
26	27	4
25	25	6
14	15	4
80	84	4
34	34	10
85	95	3
42	51	4
83	83	3
105	105	2
85	98	3
48	48	8
146	146	9
150	150	10
67	67	14
45	153	5
78	78	8
106	114	3
143	143	11
82	82	6
96	143	1
98	99	9
124	126	4
64	64	11
11	12	2
39	40	6
48	49	6
27	34	4
53	54	8
103	110	1
68	68	6
67	71	1
94	96	5
78	85	3
129	130	1
87	87	11
41	43	3
63	64	5
108	110	1
13	20	1
11	11	11
133	133	6
27	27	16
123	133	2
21	28	1
131	131	5
108	109	6
125	126	6
17	18	3
87	100	4
16	36	3
45	46	4
123	123	6
139	143	3
112	112	10
61	64	3
26	26	8
96	101	5
79	82	5
3	4	5
23	25	8
71	73	6
28	30	4
4	4	5
71	72	8
3	6	3
23	26	6
35	35	14
136	136	11
31	38	2
43	44	7
42	46	2
7	31	1
127	132	1
133	134	2
85	85	2
85	94	3
93	97	9
116	116	3
43	45	7
14	16	2
17	19	6
110	110	3
32	34	1
95	96	7
124	124	7
23	24	10
56	56	8
119	135	1
114	114	2
137	138	11
88	92	3
54	54	9
77	99	4
139	141	9
143	145	4
134	134	11
5	6	2
10	11	1
42	45	1
97	97	5
33	36	2
13	14	3
93	94	11
45	57	1
25	27	3
81	85	1
95	95	4
94	95	8
86	86	2
56	58	2
13	30	8
38	39	7
153	154	3
75	85	2
69	70	1
54	76	3
47	47	4
132	132	11
41	41	15
16	64	3
19	20	7
102	102	8
29	37	1
75	93	1
22	22	7
137	137	8
6	9	1
33	35	4
21	27	1
126	126	5
51	52	1
142	142	12
33	33	17
92	94	1
120	120	2
121	136	6
107	107	12
78	79	9
97	98	7
71	71	5
86	94	2
118	119	4
119	123	3
80	90	5
65	80	1
135	135	7
62	63	3
4	5	5
47	48	9
93	102	2
81	87	1
61	63	2
86	87	4
42	104	7
100	100	3
149	149	2
127	127	2
126	127	7
30	32	1
142	146	3
150	151	2
110	111	7
102	104	4
99	99	10
62	64	1
69	72	3
92	92	4
65	65	3
96	96	10
107	108	1
105	113	2
111	114	4
4	6	3
31	32	3
41	42	6
91	92	3
64	67	6
6	12	1
21	22	5
55	55	7
63	72	2
35	38	5
123	124	5
18	19	5
12	28	2
113	115	1
66	66	8
26	29	7
19	27	3
4	33	2
44	46	4
41	76	1
80	82	2
74	75	3
82	114	1
54	55	4
19	80	3
95	100	2
121	121	8
79	80	5
54	100	1
65	69	3
14	34	2
98	98	5
48	50	2
104	105	1
9	9	6
127	137	1
152	152	7
122	133	3
131	133	3
50	56	4
65	66	2
14	20	1
77	83	3
83	85	3
97	104	1
96	141	3
80	83	5
112	113	2
20	20	1
79	79	5
68	122	1
26	30	5
141	144	4
27	29	4
98	109	1
44	45	6
12	13	3
42	42	5
42	57	4
38	40	1
139	140	1
57	113	2
83	93	1
12	29	1
130	130	7
49	49	3
6	7	6
75	118	1
121	123	3
84	84	5
134	137	2
115	117	5
47	54	1
79	87	1
24	31	1
94	98	3
143	144	2
67	75	2
151	151	3
16	27	1
96	98	2
141	142	4
62	62	7
20	22	2
7	29	1
75	98	2
135	136	3
94	97	4
70	143	2
115	115	9
95	105	1
84	86	2
42	108	1
128	129	1
37	38	1
15	18	2
88	88	4
117	117	2
79	152	2
109	110	2
51	55	2
18	22	1
42	43	1
109	109	2
15	41	1
55	76	1
43	51	3
101	101	8
43	110	2
44	44	7
67	80	2
49	108	1
96	100	1
109	113	2
124	136	1
76	98	2
82	83	1
134	136	1
141	143	1
85	87	1
17	17	3
120	144	4
75	79	4
28	29	2
103	105	5
78	94	1
100	102	1
94	105	1
44	53	2
69	146	1
70	70	6
47	50	1
6	11	2
143	146	1
113	114	10
122	143	4
41	57	2
38	149	5
132	133	1
103	103	5
40	70	1
57	69	2
121	146	2
104	104	4
33	34	4
137	139	1
30	61	2
49	53	3
118	140	1
19	21	1
85	97	4
77	78	1
84	90	1
7	21	2
66	84	1
3	5	2
91	116	1
80	80	3
21	30	1
76	82	1
73	76	2
72	73	1
25	26	2
144	145	4
131	132	5
153	153	1
20	21	2
35	37	1
96	103	3
11	13	1
24	25	5
26	31	5
100	114	3
112	116	2
23	23	5
7	10	1
20	24	1
122	136	1
152	153	1
113	113	1
63	74	1
121	141	2
62	76	2
68	71	3
42	101	1
77	98	2
57	58	2
7	7	4
67	68	1
21	31	3
58	58	2
13	15	3
51	58	1
19	24	2
69	122	1
16	29	2
44	118	1
74	76	2
110	115	1
127	151	1
127	139	1
146	147	4
27	30	1
90	90	1
49	55	1
14	21	3
140	140	2
92	98	1
130	131	5
94	99	3
80	81	4
67	74	1
24	27	1
70	71	2
73	98	1
112	114	1
7	11	2
16	17	3
3	23	1
66	125	2
5	7	1
10	13	2
144	148	1
49	50	1
86	95	2
81	86	1
57	70	2
99	100	1
3	3	4
40	43	1
140	146	1
130	132	1
76	79	2
42	109	1
55	57	1
75	78	1
133	135	1
128	133	2
76	86	1
109	112	1
21	23	2
53	56	1
136	138	2
71	146	1
104	106	1
92	93	2
64	65	2
102	103	1
122	129	1
76	78	1
95	102	3
15	40	1
115	133	1
72	80	1
67	69	2
105	114	1
104	108	1
46	48	1
21	24	1
128	132	1
76	85	1
120	145	1
103	114	1
21	32	1
128	134	1
81	96	1
73	99	1
63	66	1
18	81	1
