77	77	30
45	46	7
40	41	15
30	30	33
51	52	16
73	75	7
24	73	2
33	66	5
101	101	19
94	97	4
99	99	18
102	102	29
91	96	1
55	55	32
94	94	26
82	82	15
89	89	24
41	42	5
65	65	14
66	66	12
56	56	12
92	92	17
92	94	1
59	59	26
35	35	28
20	20	4
57	57	25
64	64	20
89	90	12
48	49	16
58	58	22
83	88	8
71	71	16
68	69	11
27	27	15
59	60	7
75	75	14
52	52	20
94	96	1
28	28	24
47	51	3
76	76	10
91	92	5
98	98	15
61	61	15
95	95	22
21	36	5
93	106	3
21	35	8
68	84	3
25	26	7
62	63	9
74	74	24
59	87	1
100	100	8
84	84	17
70	77	1
104	105	8
61	63	3
80	80	12
50	51	15
106	106	9
77	92	5
39	39	20
53	54	10
97	98	9
30	31	2
26	26	8
70	70	24
81	81	18
79	80	15
84	86	2
44	47	3
26	44	6
68	68	17
32	32	21
79	79	8
93	93	26
25	25	11
33	72	2
55	76	4
92	93	4
25	56	5
95	97	7
83	83	14
103	104	7
78	81	6
101	102	5
63	64	7
103	103	30
100	101	12
75	76	7
42	64	1
34	34	22
28	30	2
97	99	10
105	105	26
44	44	9
38	85	3
27	28	13
78	78	24
27	64	1
46	47	15
27	29	3
25	40	5
21	21	12
48	48	18
31	32	6
24	24	15
67	69	2
32	33	2
91	91	25
86	87	16
50	50	25
62	62	12
38	38	23
36	36	22
91	97	2
37	37	18
60	60	32
42	42	14
46	46	21
51	75	1
29	29	25
28	38	6
40	40	8
61	62	12
31	31	18
71	90	5
81	86	1
73	73	31
86	86	5
88	88	12
23	23	25
43	43	10
26	30	5
47	48	6
90	90	16
74	91	5
85	87	6
25	62	4
51	51	15
54	55	8
98	99	8
96	96	22
46	49	6
102	103	5
50	58	1
44	66	1
81	98	3
47	47	15
82	87	5
84	87	3
29	30	4
80	81	5
66	67	7
67	94	1
78	82	3
97	97	21
49	49	5
25	28	1
41	41	14
54	54	21
66	69	2
38	39	15
20	21	6
64	65	4
43	44	3
63	63	27
45	45	6
67	67	7
52	53	8
57	58	5
40	65	1
69	69	12
67	72	3
76	105	1
77	78	3
33	51	1
84	85	7
55	71	2
39	79	2
76	77	11
88	90	3
33	45	2
46	48	2
53	57	4
90	91	7
43	49	5
76	87	6
46	74	5
25	42	3
93	96	1
85	85	6
82	89	3
46	55	4
92	95	3
60	62	1
25	44	5
26	62	2
32	40	3
87	88	8
34	71	2
42	72	6
83	86	3
55	56	3
60	81	2
73	94	4
33	33	16
22	22	23
40	44	1
25	45	2
60	61	8
34	65	1
104	104	25
85	91	3
96	97	3
65	67	4
54	56	2
72	88	1
67	73	5
82	93	1
93	94	2
74	75	3
83	87	3
67	70	1
103	105	5
94	107	7
33	41	4
22	25	2
72	72	8
66	80	2
96	99	2
33	73	1
72	91	2
40	42	3
75	92	2
28	81	2
53	53	21
80	92	4
63	69	1
72	73	9
72	92	1
48	58	1
58	60	5
29	31	2
40	66	1
65	66	8
28	43	2
94	106	3
106	107	2
23	24	5
82	99	2
86	88	3
82	88	1
90	95	2
78	79	5
26	27	10
63	68	2
48	60	2
93	107	3
68	71	2
64	85	1
44	45	7
79	93	3
50	71	1
85	86	5
71	73	2
27	30	3
82	83	3
79	90	2
82	97	1
107	107	3
43	64	1
80	98	6
34	35	1
67	79	2
80	93	6
31	34	2
22	28	2
33	34	6
56	76	1
48	79	2
31	35	1
81	106	2
42	43	4
73	92	3
42	44	4
77	79	1
97	100	2
80	91	1
87	87	8
53	55	1
29	40	2
34	74	1
59	84	1
72	80	3
26	28	5
42	77	2
71	72	5
93	99	1
49	85	1
70	76	1
42	45	4
39	40	2
88	89	5
59	88	2
95	96	6
77	93	1
39	41	1
41	44	6
86	99	3
63	70	3
30	40	2
66	68	3
83	84	3
26	38	2
21	28	1
21	30	2
82	86	3
83	85	2
79	85	2
73	74	8
59	63	1
77	81	1
100	102	3
67	68	2
31	63	1
38	40	3
46	52	1
99	100	1
78	100	2
33	65	1
57	59	2
36	37	6
84	99	1
21	22	3
80	106	1
69	87	1
81	92	2
32	46	1
63	65	2
78	96	1
24	25	3
65	80	1
44	49	3
26	29	2
26	43	2
35	71	3
69	70	1
49	50	4
94	98	1
78	90	2
21	27	1
31	43	1
28	29	1
56	57	1
37	84	1
72	90	1
22	26	1
21	29	1
83	99	2
21	33	1
59	64	1
50	56	4
40	88	2
61	65	1
45	47	1
48	51	1
58	59	1
73	82	2
79	88	2
30	34	1
95	107	1
42	65	1
66	73	1
63	81	1
43	78	1
22	30	1
23	71	1
94	95	1
33	40	1
49	79	1
27	62	1
37	39	1
64	77	1
51	76	2
52	55	1
86	91	1
26	45	1
62	68	1
39	66	1
50	73	1
70	72	2
40	43	1
37	38	1
27	38	2
22	24	1
20	30	1
88	107	1
35	36	2
90	96	1
50	63	1
