54	75	3
28	28	21
105	106	7
32	87	2
164	164	1
9	9	14
142	142	5
174	174	11
4	30	2
88	88	5
77	105	4
1	1	8
122	149	3
146	146	6
25	26	11
179	179	7
45	45	9
11	45	4
30	30	16
36	37	6
15	16	15
82	82	19
4	4	17
37	37	20
108	109	4
67	67	4
26	30	1
27	105	2
19	19	9
135	135	2
96	96	4
112	112	10
22	26	2
144	144	6
180	180	2
78	78	2
80	80	15
95	95	8
61	61	7
1	36	3
20	20	9
16	38	2
54	54	9
8	8	14
168	168	6
64	64	3
123	123	7
86	113	2
29	30	2
108	125	5
7	7	18
18	32	3
161	161	14
22	55	2
120	121	2
173	173	13
139	148	1
118	118	4
22	23	3
160	160	10
21	22	2
13	16	1
115	115	5
126	126	3
36	36	12
25	30	9
39	39	17
6	18	7
73	73	5
10	10	9
13	13	16
38	38	10
145	145	7
8	9	5
12	12	23
71	71	9
44	44	16
145	146	5
15	15	17
95	142	3
5	6	15
154	154	15
53	53	6
170	174	2
42	42	12
24	24	12
23	23	8
94	94	6
2	2	7
41	43	3
52	53	7
165	165	22
25	35	5
84	84	6
32	32	8
115	117	1
29	31	2
28	29	9
75	75	8
41	41	15
151	151	3
56	56	10
127	127	4
51	51	3
25	25	8
43	43	8
57	57	3
152	156	2
163	163	3
16	16	13
2	4	13
121	122	12
89	89	8
152	152	3
142	148	2
90	90	6
63	63	7
9	129	2
122	122	4
37	38	1
93	93	2
159	159	7
50	50	6
87	89	5
13	173	4
153	173	5
45	46	3
63	64	2
155	156	3
6	31	3
7	11	5
41	42	13
8	18	2
60	61	4
31	31	10
71	125	2
71	140	2
84	85	9
92	92	2
113	113	9
11	16	4
131	131	8
27	32	4
9	130	1
128	128	5
128	130	6
6	6	20
160	162	5
6	7	6
79	79	8
2	3	4
155	155	4
33	33	9
30	31	7
146	150	4
109	109	8
4	8	5
114	114	4
10	14	4
159	171	3
18	18	8
148	148	5
140	140	8
91	94	3
14	14	11
56	57	3
102	103	2
129	165	2
140	163	1
11	11	4
11	12	11
6	61	1
97	99	2
104	105	4
134	134	2
80	81	5
59	95	1
16	17	6
17	17	8
35	130	2
143	143	5
27	30	1
150	153	4
43	96	1
170	170	1
98	99	5
7	8	3
121	123	2
149	149	2
32	38	1
101	152	2
175	175	3
165	166	3
39	40	6
17	166	4
109	110	2
8	19	3
137	138	2
141	141	7
138	138	7
106	106	3
31	44	1
110	111	5
96	115	3
19	21	1
27	27	6
77	77	8
138	177	2
130	131	1
24	25	4
167	168	1
139	139	8
40	106	1
120	120	6
22	22	15
147	147	2
12	20	6
124	124	2
2	5	3
67	68	2
29	34	2
136	136	6
18	19	6
87	87	5
167	167	11
97	97	2
118	119	2
7	9	2
16	22	5
10	13	10
13	41	2
16	19	1
68	125	2
5	5	5
102	156	4
14	32	1
79	80	3
25	36	3
81	81	7
20	37	1
20	21	1
10	41	2
39	43	4
146	147	1
8	10	4
90	91	5
140	142	3
102	102	3
167	173	1
109	147	4
5	7	7
29	29	5
162	167	2
3	5	2
161	162	2
106	163	2
111	111	7
80	91	3
83	83	11
8	35	1
131	155	2
23	41	2
19	20	2
103	159	2
10	16	1
60	72	1
101	101	8
158	173	2
171	174	1
104	104	9
104	154	3
0	87	1
98	118	3
49	50	2
3	7	2
58	58	2
38	42	3
114	115	2
100	147	2
137	137	3
14	170	1
111	125	4
111	112	6
78	79	3
16	43	3
135	136	2
154	155	4
40	40	7
18	44	5
28	32	2
81	86	3
133	133	4
52	52	3
100	106	2
123	124	4
81	82	1
91	92	2
36	45	2
102	104	2
157	158	4
17	18	3
31	107	2
4	7	1
113	115	3
113	129	1
31	32	2
129	129	5
9	15	2
23	24	7
24	34	2
139	147	2
141	173	2
156	156	3
92	105	1
111	157	4
55	89	1
19	41	2
61	99	1
125	169	1
81	131	3
100	100	10
107	107	2
163	164	3
113	146	2
33	113	1
43	71	1
83	112	5
162	162	4
35	35	10
31	34	1
86	86	3
121	121	2
178	178	2
33	34	1
66	68	3
74	74	1
91	91	3
82	86	1
10	15	2
10	178	3
73	75	3
116	146	1
24	45	3
111	159	2
1	10	2
89	90	1
134	136	2
100	140	1
166	166	3
14	40	2
103	157	1
26	26	6
24	26	1
103	103	2
3	4	3
14	15	1
20	96	4
130	156	2
37	81	1
11	170	2
42	129	1
59	59	1
65	65	1
3	9	1
169	169	4
147	148	2
32	42	3
141	143	1
58	178	1
11	36	2
4	46	1
34	39	1
116	116	6
7	14	3
15	40	1
150	150	4
6	20	1
128	146	1
112	118	1
156	157	1
40	42	3
3	3	11
117	117	1
44	45	2
99	99	2
7	18	1
14	42	1
3	18	2
65	66	2
66	67	2
0	0	2
94	95	2
90	135	1
119	120	1
21	24	1
105	105	3
10	19	2
13	174	1
59	168	2
37	40	1
88	131	2
155	164	1
71	157	1
89	132	1
168	170	1
153	153	3
12	13	4
28	30	1
21	21	3
9	178	1
133	173	1
172	172	2
39	41	1
14	19	2
100	101	1
138	175	3
43	44	2
81	89	1
10	11	1
5	172	1
136	150	1
3	8	1
76	76	1
1	6	1
77	104	2
131	138	1
8	45	2
138	139	1
100	128	2
75	76	3
62	62	1
80	82	1
2	8	2
94	99	3
55	94	1
152	155	2
115	119	2
18	41	1
171	171	1
60	60	2
73	173	1
76	163	3
34	34	1
11	19	1
4	36	1
94	124	1
177	177	1
127	128	1
13	28	2
25	45	1
74	75	1
79	129	1
106	107	1
115	116	1
102	105	1
112	117	1
40	41	1
38	39	1
40	49	1
54	76	1
95	108	1
24	33	2
119	119	2
173	174	1
151	174	1
1	21	2
157	157	1
13	14	2
65	133	1
130	130	1
132	171	1
12	22	1
6	8	1
108	108	1
50	93	1
8	24	1
