86	87	18
43	43	28
50	50	11
39	39	18
26	26	13
24	24	22
26	27	10
51	52	10
40	42	2
87	87	40
96	97	13
109	109	31
108	109	7
21	21	26
102	102	50
64	64	42
38	39	8
55	55	14
95	101	1
82	82	26
70	70	19
104	104	23
48	100	1
30	30	19
76	76	29
27	46	5
92	93	9
63	63	34
92	94	6
95	95	23
58	58	24
98	98	41
84	85	14
59	60	22
78	78	43
60	60	32
49	49	21
67	67	26
70	102	2
73	73	47
93	93	10
65	65	21
32	32	25
97	98	21
105	107	6
90	90	20
107	108	19
71	95	4
27	27	26
99	99	47
22	22	31
88	89	10
24	62	3
35	35	33
91	91	24
79	80	23
79	81	9
23	23	10
25	26	8
114	114	17
100	101	18
96	109	2
78	89	2
40	40	19
83	83	28
37	37	14
65	66	28
69	69	40
47	47	28
92	92	31
111	111	36
112	113	9
20	20	24
45	45	15
77	78	14
76	77	10
80	80	30
104	107	3
84	84	34
29	32	5
86	86	19
57	59	5
62	67	1
75	75	49
31	31	25
75	76	15
80	81	20
53	53	28
34	34	22
87	88	16
30	32	3
113	113	13
91	109	4
57	57	4
25	25	22
99	100	21
33	40	1
72	72	45
53	55	5
94	94	30
38	38	20
55	59	2
71	71	27
77	77	52
103	103	32
27	29	1
66	66	13
53	54	8
85	85	18
93	94	15
100	100	25
61	61	20
51	51	18
73	76	9
29	29	20
81	81	26
29	31	3
85	86	11
40	41	6
68	68	23
63	64	13
88	88	50
97	97	35
111	113	8
73	83	3
57	58	3
66	67	11
49	92	3
70	71	5
36	45	2
106	106	13
34	91	2
109	110	14
41	41	23
64	68	2
96	96	43
101	101	32
64	65	7
62	63	16
89	89	23
86	89	7
72	86	2
62	62	19
59	68	2
56	61	5
55	58	3
107	107	29
21	38	3
36	37	10
83	84	16
79	79	23
36	39	9
105	105	23
39	46	6
102	103	17
103	104	8
35	92	2
95	97	4
31	32	5
27	28	3
35	39	3
54	55	8
102	109	11
70	72	4
56	59	4
73	74	19
101	102	8
78	79	13
79	96	4
68	106	6
110	110	15
78	98	5
75	77	2
98	99	6
108	108	26
47	50	4
84	90	2
19	20	4
104	105	7
62	65	1
82	84	15
47	48	21
35	36	6
82	83	5
52	52	26
54	54	12
77	99	3
28	34	2
110	111	11
96	110	3
39	40	8
20	21	11
35	43	2
75	106	1
91	93	6
81	86	1
71	104	6
38	90	6
50	73	4
37	39	10
33	33	18
59	59	23
47	91	5
96	104	2
38	45	6
48	92	1
36	36	25
95	103	9
34	35	13
30	31	15
24	25	3
105	106	11
60	61	12
68	70	7
33	34	9
74	74	29
23	24	3
67	68	10
97	100	4
89	90	19
96	99	4
48	49	14
87	90	2
48	48	19
60	63	1
102	110	2
44	44	13
98	104	7
73	94	1
55	56	6
78	80	5
31	47	1
72	88	1
96	101	8
44	46	2
23	36	2
53	58	2
83	85	11
36	38	1
97	99	5
66	68	7
29	46	6
74	75	16
32	91	5
29	30	4
62	64	3
20	65	2
89	91	8
28	28	21
94	103	3
36	40	7
60	85	1
42	44	7
77	79	1
42	42	19
77	105	3
34	93	1
29	34	1
71	72	11
71	93	2
77	97	4
56	57	3
72	85	4
95	100	3
19	19	8
79	105	2
69	70	3
78	81	3
37	38	7
32	34	4
78	109	4
70	85	1
54	56	5
102	104	1
84	86	3
22	23	8
81	82	5
61	62	5
25	30	4
72	73	4
44	45	2
80	87	1
68	69	10
84	102	2
61	69	3
75	84	6
112	112	8
22	24	1
38	67	6
32	33	3
23	59	5
88	93	3
52	60	3
95	99	6
56	56	8
58	61	5
21	22	2
79	86	2
75	87	1
35	90	3
35	91	2
77	90	1
60	72	1
55	57	2
91	110	1
104	106	2
22	60	2
78	95	2
72	75	10
102	105	2
84	87	3
30	42	2
28	29	1
88	90	5
106	107	7
56	58	3
65	68	2
83	86	5
108	110	5
42	45	2
98	102	4
68	86	3
86	88	2
68	105	3
26	28	1
50	67	3
87	89	4
97	104	1
35	40	5
69	105	1
98	100	7
103	105	3
51	59	1
32	48	2
78	87	4
74	93	2
49	50	6
91	94	5
62	66	1
20	50	2
58	60	4
67	69	3
35	37	1
69	86	2
111	112	5
43	44	5
60	73	1
41	42	5
73	75	4
27	31	3
61	63	10
56	70	5
98	103	1
95	96	10
48	50	5
28	47	2
80	89	2
35	89	1
103	106	2
36	46	2
94	95	3
42	43	3
20	37	1
70	103	1
88	94	2
23	60	2
70	111	1
97	103	1
88	91	2
99	110	1
48	51	2
35	46	1
76	78	2
101	103	4
71	94	3
46	46	3
72	74	4
99	101	2
27	30	4
71	90	2
31	46	2
79	97	2
87	108	2
59	67	1
92	95	2
25	38	1
50	51	5
90	91	2
73	87	1
81	88	1
29	112	1
105	108	1
60	70	1
83	102	1
98	101	1
73	91	1
74	81	2
95	108	2
19	21	1
61	65	2
47	49	1
36	91	1
94	96	1
101	105	1
76	99	2
90	92	3
99	102	1
34	44	1
83	88	1
77	106	1
90	93	2
72	91	2
22	59	1
71	91	1
82	85	2
74	76	2
58	59	3
79	85	1
96	100	1
41	43	1
75	85	1
59	61	1
21	37	1
23	58	1
39	41	2
62	70	1
101	110	1
114	115	2
49	52	1
30	48	1
113	114	1
