81	81	4
227	227	15
188	206	1
102	102	14
52	53	5
27	28	3
70	70	7
200	201	6
55	55	23
39	39	16
198	198	14
36	53	4
188	189	5
80	84	2
46	47	5
26	151	2
143	143	12
1	1	9
214	226	2
40	40	20
100	108	2
144	144	13
209	210	2
127	127	13
39	40	7
119	126	4
27	27	17
139	140	5
29	29	10
153	153	6
219	219	26
62	62	8
0	0	23
122	122	6
88	89	3
191	191	12
32	56	3
71	71	9
130	130	8
133	144	9
48	48	16
121	121	2
31	31	11
59	60	13
105	105	6
59	59	10
13	13	7
96	96	6
56	56	13
103	103	6
233	233	9
134	134	3
223	223	12
178	178	5
203	203	4
177	177	7
73	73	10
204	204	13
214	227	4
7	12	2
189	189	14
190	190	5
229	229	11
155	155	11
2	12	2
120	120	21
34	35	5
111	119	4
29	30	10
22	22	13
118	118	8
201	202	4
169	181	2
233	234	13
56	57	12
100	100	5
41	42	2
186	186	6
99	113	2
142	142	4
128	128	20
8	8	14
11	11	15
197	197	17
161	161	5
162	164	1
6	23	6
27	64	1
144	162	2
8	9	5
126	171	9
9	11	6
138	190	2
199	199	6
64	64	19
41	41	9
25	25	10
105	189	4
154	158	1
38	38	14
99	99	3
18	21	3
210	210	5
19	19	8
146	146	13
26	27	6
46	46	19
154	155	2
3	3	8
217	217	11
12	13	5
207	207	15
119	119	3
99	214	4
175	176	3
11	38	5
9	9	10
187	188	2
152	161	1
5	5	9
156	156	15
67	67	6
49	50	9
60	60	11
33	33	12
239	239	13
65	65	9
57	57	6
168	184	3
73	74	6
106	106	14
100	101	4
135	135	13
119	120	3
51	51	4
207	208	3
142	194	4
20	21	5
213	213	5
196	196	10
191	225	1
126	126	8
231	231	10
154	161	3
168	182	2
226	228	7
213	214	1
5	6	3
232	232	11
10	38	2
45	46	7
180	199	2
174	174	13
131	131	7
75	84	2
165	165	11
62	138	3
129	130	6
13	14	5
67	120	3
239	241	2
21	21	16
232	233	8
136	136	10
202	202	4
19	20	9
192	192	8
73	112	1
58	59	3
20	20	10
51	52	5
172	172	17
28	28	11
195	195	3
28	32	1
197	238	3
15	15	9
150	150	13
15	29	3
16	16	8
91	91	2
169	183	2
153	154	2
15	16	4
211	220	3
86	86	13
36	36	15
20	29	5
16	36	3
102	128	2
39	88	5
7	7	11
44	44	8
154	156	2
138	138	8
43	43	15
54	60	5
182	182	7
95	95	3
45	63	4
5	56	3
154	154	4
230	230	21
84	84	12
226	227	4
3	11	4
170	181	3
43	53	2
12	12	17
182	183	8
129	140	1
16	20	2
114	115	1
122	125	4
200	200	4
113	118	2
162	162	6
198	199	2
176	178	3
24	134	9
50	50	8
164	165	4
121	124	2
18	18	5
82	83	2
169	170	4
225	225	10
98	98	7
164	164	4
6	14	1
205	205	6
3	21	3
72	202	7
166	184	5
69	69	19
6	7	2
146	147	7
85	85	14
176	176	9
217	218	6
185	187	4
149	150	2
40	41	5
208	208	11
142	211	2
209	211	2
103	104	3
76	77	3
34	34	4
242	242	5
184	184	3
173	183	5
24	28	6
229	231	3
183	183	10
117	118	6
122	128	3
52	59	3
9	23	3
106	109	4
66	67	5
96	97	1
193	205	2
144	238	2
220	220	5
97	97	7
185	186	5
236	236	5
188	188	2
8	11	1
45	45	5
68	68	6
44	45	6
157	157	7
88	88	9
187	187	4
224	225	7
48	50	3
206	206	8
215	225	2
26	26	12
137	137	11
49	49	5
0	10	2
226	226	1
228	229	5
125	126	1
171	172	3
9	22	5
138	139	9
4	23	1
24	64	1
202	211	5
168	168	1
163	170	3
21	22	7
24	25	7
164	171	4
84	85	8
159	161	1
201	206	2
181	183	3
23	23	14
214	214	3
234	235	2
0	78	3
119	127	6
13	37	2
148	148	4
77	83	2
152	152	7
129	129	3
153	155	1
144	146	8
102	103	2
42	42	4
106	107	1
67	72	4
3	60	1
9	10	10
197	200	8
166	195	3
107	108	3
172	173	3
2	2	10
63	63	6
128	143	2
37	37	6
53	53	5
4	5	14
0	23	2
82	82	7
1	2	2
129	133	3
218	218	5
156	157	5
211	211	4
199	200	2
192	194	2
2	4	5
106	131	3
222	222	3
190	191	4
41	43	1
12	37	1
151	151	3
61	61	10
21	131	1
54	54	9
130	132	2
201	238	1
33	35	3
201	219	1
224	224	9
32	34	1
171	179	3
55	60	1
71	72	1
60	62	1
186	187	4
101	207	3
73	114	3
52	52	10
83	84	5
113	113	6
124	124	5
13	34	4
200	202	3
4	57	2
199	238	2
14	14	10
212	212	6
205	207	2
178	180	3
145	145	3
177	178	7
165	166	6
171	171	5
63	64	3
6	17	4
222	223	3
124	126	4
219	233	3
140	142	1
58	58	10
10	10	10
183	185	1
63	136	2
238	238	6
47	101	2
237	237	4
13	15	1
31	32	6
17	18	2
179	179	15
192	208	2
149	153	1
140	140	2
73	113	4
152	159	6
123	172	1
121	127	1
235	235	9
117	215	3
23	32	1
89	99	3
154	160	3
116	116	1
107	214	3
64	65	2
139	139	1
152	158	1
223	224	2
158	158	5
4	6	2
31	148	5
4	7	1
236	237	1
21	29	4
19	31	2
31	37	4
160	160	8
234	234	15
97	119	3
228	228	8
219	220	4
160	201	1
213	225	4
32	32	12
175	175	4
128	137	2
61	62	2
48	49	1
13	35	5
170	183	2
152	153	3
170	170	11
212	213	4
24	128	2
66	66	4
187	204	1
193	194	4
208	227	1
79	79	2
143	238	2
55	61	3
137	138	1
50	54	1
123	124	1
48	53	1
138	141	1
3	55	4
222	224	2
216	217	2
135	136	3
241	242	4
196	222	2
133	134	3
24	24	7
167	167	7
180	183	5
171	200	6
209	212	2
178	179	6
216	216	5
37	38	5
32	147	1
173	174	3
98	99	4
201	201	8
133	133	8
33	37	1
61	63	2
240	240	11
147	147	1
184	185	1
76	76	6
205	206	2
203	204	2
108	109	3
33	48	1
101	101	5
164	182	2
194	210	1
86	87	4
114	114	1
77	77	6
50	51	5
15	17	2
165	184	1
59	79	1
149	151	1
204	206	3
24	133	1
199	222	1
127	190	1
120	121	4
0	24	2
20	30	2
216	224	1
49	53	3
2	60	1
9	56	4
168	169	1
36	38	5
151	152	2
187	203	2
179	200	1
0	2	1
2	3	4
181	181	5
211	225	1
124	188	1
47	48	4
38	47	2
10	40	1
51	53	1
218	219	3
142	143	2
195	222	1
149	149	2
102	112	4
134	135	1
14	34	2
4	4	3
198	201	3
46	53	1
141	141	3
62	63	3
47	47	7
12	34	3
194	223	2
67	68	2
99	102	1
150	159	1
108	108	1
104	105	7
154	200	2
74	74	2
81	82	1
143	191	4
164	180	1
24	55	1
70	71	3
8	38	2
139	143	1
11	12	1
203	230	1
101	209	3
63	65	4
220	221	3
44	48	2
12	14	1
3	56	2
163	163	3
193	195	1
164	183	1
101	210	4
230	231	3
2	69	1
91	115	1
156	158	1
48	52	2
174	175	4
241	241	4
95	96	1
0	76	2
107	107	2
235	236	1
144	200	3
166	171	1
202	204	5
68	69	1
17	17	8
95	113	2
123	123	3
167	209	1
78	79	2
169	169	1
166	166	2
10	24	1
130	133	2
173	173	3
3	4	1
72	75	3
14	15	1
166	185	2
174	183	3
192	204	2
64	202	2
30	149	2
98	109	1
89	89	2
35	38	1
181	182	3
141	142	1
193	193	2
219	236	2
171	180	2
211	218	1
216	219	1
210	211	1
45	47	1
1	3	1
16	34	1
112	112	1
80	81	2
209	209	3
2	11	2
25	26	1
36	159	1
75	77	2
64	142	1
51	59	2
16	17	1
125	127	1
0	61	2
185	185	1
6	6	1
122	127	1
78	78	1
153	161	1
184	187	2
77	84	1
202	234	2
221	221	2
75	75	1
198	200	2
201	221	1
148	156	1
170	171	2
115	115	1
225	226	2
122	139	1
217	220	1
101	102	1
166	167	2
142	218	1
72	72	1
235	237	1
140	141	1
55	56	1
10	11	2
143	202	1
175	179	3
0	53	1
85	86	2
39	63	1
185	196	1
144	202	1
202	217	1
173	182	1
201	230	1
139	190	1
32	45	1
136	225	1
160	161	1
75	76	1
17	19	1
214	215	1
172	200	1
22	32	1
15	33	1
164	181	2
80	82	1
45	88	1
104	104	1
54	55	2
30	30	1
11	40	1
194	211	1
3	58	1
121	122	1
166	186	1
71	206	1
103	105	1
127	203	1
105	128	1
163	181	1
42	43	1
73	118	1
30	31	1
105	106	1
