28	62	2
96	130	1
67	67	6
23	23	9
60	73	2
35	35	5
86	107	1
8	10	1
42	84	1
4	4	5
12	73	4
72	73	8
37	38	3
9	10	2
115	132	3
88	93	3
94	94	8
61	61	5
11	26	1
105	105	7
12	12	5
12	83	1
82	92	2
10	10	5
6	7	1
109	129	1
26	26	15
9	9	6
6	8	3
7	99	1
59	79	3
38	40	1
43	74	1
83	83	11
70	70	7
11	14	1
120	120	6
22	22	5
64	64	7
21	80	2
76	76	11
124	124	2
29	29	4
31	32	3
23	25	2
48	48	6
79	80	3
20	20	4
32	32	6
10	34	1
126	128	2
87	88	2
10	47	1
31	60	1
81	82	2
28	97	1
98	98	6
34	34	10
127	127	6
14	93	1
5	5	2
134	134	1
67	68	4
132	132	3
100	100	8
64	67	1
104	104	6
117	117	5
97	97	4
62	62	6
37	80	1
18	18	8
33	33	2
26	96	4
57	57	11
46	46	2
76	77	4
29	48	2
68	68	11
131	131	4
62	73	2
11	92	2
19	20	1
72	72	6
59	59	2
99	99	3
101	101	1
43	78	3
84	84	4
92	93	4
23	45	2
42	60	2
62	63	1
78	78	9
116	119	1
18	75	1
28	28	7
75	76	1
128	132	3
42	42	6
37	40	2
114	114	2
30	30	1
46	70	1
17	17	4
11	12	3
57	58	2
71	74	1
81	81	8
40	40	1
6	26	3
91	92	3
63	63	4
96	98	2
95	99	1
32	114	1
107	110	2
8	9	2
30	47	2
19	19	4
93	96	1
88	95	1
27	28	3
33	44	2
55	55	2
80	80	10
121	122	1
8	17	1
20	76	2
2	2	3
96	96	8
13	85	2
112	113	1
43	82	1
13	13	4
20	85	2
88	88	1
22	23	2
23	26	1
65	72	1
122	122	1
95	95	4
8	8	3
97	99	1
111	111	5
4	5	1
91	91	3
26	79	5
87	94	2
27	27	7
82	82	1
92	94	1
102	102	4
95	101	1
26	92	2
38	38	2
102	122	2
86	86	6
120	121	4
79	79	2
69	70	3
90	90	6
36	36	3
23	133	3
106	116	1
6	19	1
43	62	1
98	99	2
15	16	8
23	24	1
46	47	2
125	128	1
32	33	4
126	127	1
90	108	1
7	83	2
58	115	3
27	71	3
102	106	2
97	102	2
88	94	3
60	60	7
70	77	1
15	98	1
30	98	2
66	66	5
3	3	2
14	14	2
15	78	1
56	56	6
46	69	1
47	47	5
61	74	1
86	88	3
44	61	3
15	81	1
46	61	1
15	80	1
114	131	3
103	103	2
95	100	2
71	79	1
58	58	8
13	26	1
45	45	9
85	86	3
11	11	6
75	75	5
6	6	4
20	21	4
46	73	2
55	83	2
61	73	1
48	83	2
15	32	3
38	39	3
123	123	1
86	87	3
59	60	2
84	101	2
33	72	1
42	50	1
47	62	2
20	45	1
74	74	2
26	47	4
86	96	1
65	73	1
15	15	6
64	65	1
26	80	1
114	115	3
21	85	2
118	118	1
85	85	3
126	126	3
107	107	2
94	95	2
24	25	2
44	44	3
47	66	1
33	62	1
21	30	1
13	14	1
89	90	1
73	73	3
39	55	2
112	112	3
60	61	2
11	96	2
89	113	1
25	47	1
108	108	5
11	83	2
82	85	1
77	77	3
83	84	3
6	27	2
124	127	2
30	61	1
5	90	1
30	32	1
65	65	5
33	43	1
94	100	1
84	86	2
87	90	1
113	131	1
83	85	2
27	29	1
65	66	1
46	78	2
68	69	2
113	113	2
68	70	2
125	127	2
57	59	4
40	62	1
7	19	2
55	80	2
72	79	1
115	116	1
94	101	3
11	13	2
14	16	5
93	95	1
42	43	1
18	25	2
69	69	3
133	133	4
24	24	2
33	34	2
106	113	2
47	83	1
21	22	1
40	49	1
73	98	1
20	84	1
110	113	1
115	115	4
92	92	3
9	118	1
93	93	3
27	91	1
28	59	1
43	43	2
44	45	4
57	76	1
83	101	1
10	20	2
13	84	1
103	105	1
6	11	1
56	91	1
107	108	1
122	125	1
27	92	1
63	64	1
131	132	1
117	118	1
75	80	1
116	116	1
10	56	1
111	112	1
12	13	1
45	90	1
89	91	1
78	81	1
109	109	1
86	95	1
56	62	1
21	21	2
110	114	3
128	131	2
58	81	2
132	133	2
25	25	1
7	7	2
4	8	1
100	101	1
57	80	1
45	75	1
80	81	1
129	129	1
96	99	1
0	1	2
48	51	2
40	54	2
21	25	1
112	128	1
24	78	1
110	110	1
95	102	1
16	16	1
25	26	1
78	79	2
27	61	1
87	87	1
