207	207	6
20	56	2
177	238	1
12	15	4
107	107	6
54	96	3
180	182	1
235	235	5
49	49	8
200	200	7
239	239	3
167	167	7
65	84	3
59	60	8
216	216	17
57	57	15
142	142	5
75	75	10
21	29	3
147	147	1
20	26	4
55	55	8
73	74	2
230	230	9
192	192	4
188	188	8
125	126	1
33	33	8
169	184	5
213	213	5
143	143	10
128	207	1
121	133	2
37	37	10
229	230	2
171	171	3
22	203	1
1	53	6
102	109	4
115	115	2
123	207	2
29	34	1
176	176	6
74	74	8
159	160	3
130	137	2
119	119	6
5	5	5
116	116	3
173	173	2
58	58	7
105	106	8
213	215	2
222	222	8
140	172	2
113	113	4
39	39	15
96	113	4
128	128	3
192	194	3
221	230	2
188	189	3
4	4	2
1	1	9
4	31	1
166	166	8
23	23	5
50	50	5
156	157	9
181	181	6
217	217	17
54	64	2
22	22	9
85	85	7
187	187	3
149	149	2
32	227	1
103	104	11
170	202	2
120	120	1
28	29	1
50	52	2
72	73	1
212	221	5
153	153	10
70	70	10
60	60	12
159	159	11
107	117	1
139	139	7
20	20	7
164	164	1
195	195	14
51	53	1
65	68	4
209	209	6
18	18	10
56	56	13
193	193	3
219	231	3
136	136	3
17	19	2
207	231	3
86	86	11
98	149	1
36	36	8
175	178	1
73	73	2
12	12	9
233	236	1
206	206	7
78	78	5
198	201	4
68	69	3
221	221	5
10	11	4
2	6	2
210	210	17
125	125	5
153	179	3
210	222	3
54	54	10
6	7	10
43	43	12
148	148	2
157	157	8
204	216	2
9	9	12
202	232	7
61	63	2
16	17	5
32	48	1
101	101	13
65	65	10
206	231	3
96	96	1
18	29	4
91	91	5
81	81	8
27	27	7
83	84	2
17	17	8
20	23	5
223	223	5
0	37	1
162	163	1
19	19	9
84	84	2
21	21	12
141	141	2
48	49	3
173	174	1
110	112	2
1	31	6
137	137	5
233	233	2
210	212	5
111	111	8
219	237	1
38	45	2
14	15	2
122	122	4
157	158	1
16	16	3
145	146	6
75	86	3
35	41	5
186	186	5
144	180	1
67	67	4
219	227	1
11	70	2
53	62	1
142	146	1
118	135	2
152	181	1
231	231	9
227	227	3
141	142	1
152	182	2
154	154	5
20	21	3
163	165	1
106	106	14
201	201	17
172	172	5
95	99	2
159	162	1
63	65	2
81	84	1
146	146	4
203	203	5
161	189	2
140	140	2
144	144	5
54	97	1
54	55	5
136	137	4
216	217	4
26	26	5
8	8	8
3	6	1
237	238	1
13	13	1
162	162	2
40	40	16
157	160	2
71	71	11
35	35	4
174	174	5
75	76	3
13	14	7
153	154	3
185	186	4
46	46	4
7	8	4
169	170	2
146	180	4
187	190	2
103	105	5
40	52	1
179	180	4
144	149	1
126	127	3
77	77	4
134	134	8
238	238	9
88	89	3
89	89	5
179	181	4
41	41	4
104	105	4
147	157	2
170	170	4
19	48	4
86	135	1
88	91	3
56	62	2
132	155	1
215	215	4
40	41	6
155	155	10
11	63	3
109	110	7
219	224	3
62	62	8
242	242	4
134	137	2
38	38	5
166	167	2
133	135	1
62	63	1
32	216	5
23	57	2
109	109	8
170	186	2
11	11	8
102	107	4
150	150	4
53	53	4
2	23	1
68	83	1
183	184	3
236	236	4
29	29	7
217	218	2
64	64	3
63	64	4
11	13	3
154	155	2
18	21	2
80	81	4
185	185	11
13	15	7
205	207	3
167	168	2
79	79	17
75	78	5
214	215	6
219	219	6
84	132	2
205	206	3
21	30	3
145	150	3
82	82	5
237	237	4
7	23	1
240	240	4
100	100	6
185	187	5
95	95	3
97	150	1
156	160	1
82	83	3
189	189	4
204	204	6
28	28	5
61	86	3
114	115	2
96	98	2
47	47	1
45	109	2
53	187	2
98	98	5
146	147	1
31	32	1
79	80	2
2	36	1
3	29	1
42	42	13
34	47	4
179	235	1
5	8	1
183	183	3
69	69	7
45	120	2
178	183	1
123	125	2
51	51	6
182	182	4
40	42	1
139	140	3
15	15	6
7	9	4
80	80	3
226	226	3
180	180	1
191	191	3
203	220	1
52	53	2
43	46	1
161	161	4
2	7	2
195	196	7
158	163	1
209	211	1
44	44	3
220	220	3
4	7	2
155	157	2
241	241	6
68	68	5
202	203	1
26	27	1
58	155	4
165	165	2
55	183	4
154	165	1
84	85	3
26	39	1
35	36	3
80	126	3
15	16	2
104	104	7
193	194	2
1	4	2
117	135	3
212	212	3
32	33	2
54	56	2
30	30	7
166	198	1
10	10	5
88	88	5
18	19	1
19	31	2
184	200	1
122	123	3
205	205	3
2	2	5
224	224	3
135	136	2
21	22	2
106	107	2
122	124	4
186	221	1
131	162	2
183	201	2
56	57	4
78	80	3
199	200	2
24	25	3
61	65	1
129	129	2
198	199	3
228	228	2
133	136	2
117	117	1
12	13	6
81	82	3
39	46	3
71	73	1
193	199	3
27	28	1
56	58	3
143	183	3
136	138	4
3	37	4
147	155	1
151	151	2
65	66	4
232	233	3
202	202	1
34	34	2
97	97	4
58	61	1
7	7	1
72	72	7
63	81	1
184	185	2
177	177	6
61	64	2
127	127	5
12	14	5
32	32	2
63	63	2
178	178	5
112	121	1
190	191	2
188	197	1
211	213	1
117	118	2
108	108	3
192	198	2
225	225	4
239	241	1
121	121	2
11	12	1
3	3	6
44	47	1
14	14	3
102	102	2
49	50	2
6	6	2
152	197	1
153	235	1
76	76	3
138	138	1
108	109	7
32	37	2
10	72	1
52	52	4
31	31	3
115	116	1
124	124	8
14	188	1
144	145	2
174	182	1
208	209	1
9	10	6
165	188	3
131	132	1
4	9	2
78	79	4
172	174	2
167	185	1
27	64	1
152	153	1
123	123	2
58	62	1
65	74	1
203	204	3
83	83	5
10	70	1
114	114	3
168	168	5
178	238	3
66	67	3
22	23	1
98	99	3
208	208	3
154	163	1
23	56	1
220	221	3
201	202	1
213	221	2
45	45	4
38	120	1
16	20	2
25	25	3
214	214	4
70	71	2
134	173	2
55	62	2
101	102	1
232	232	3
130	206	1
213	214	1
20	65	2
130	172	1
50	67	1
190	232	3
71	72	1
2	3	1
96	97	2
72	202	1
3	4	3
150	151	1
138	139	4
111	229	2
103	103	1
0	0	7
74	86	2
16	68	3
218	218	1
66	66	1
148	156	1
217	226	1
80	82	1
58	77	1
130	130	1
218	226	1
24	24	1
170	183	1
15	19	1
129	135	1
50	51	1
112	112	1
197	198	2
162	196	1
100	101	1
40	60	1
15	17	2
53	166	1
20	48	2
29	30	1
120	121	1
36	37	1
107	116	1
84	133	1
164	166	1
114	135	1
158	187	1
128	174	1
198	200	1
18	22	1
27	38	1
99	100	1
146	150	2
12	17	1
85	136	1
36	55	1
37	38	3
66	68	1
219	220	3
139	179	1
170	208	1
131	137	1
135	150	1
234	235	1
29	215	1
144	147	1
26	29	1
98	102	1
47	61	1
189	205	1
63	71	1
19	34	2
109	235	1
97	151	1
52	156	1
99	118	1
169	169	3
87	122	1
147	154	1
40	122	1
80	83	1
156	156	1
71	190	1
133	133	1
158	158	1
61	61	1
160	190	1
58	59	5
179	179	2
63	106	1
46	47	1
141	147	1
95	104	1
137	138	2
211	211	1
14	17	1
163	163	1
73	189	2
234	234	1
160	160	1
114	128	1
36	41	1
25	109	1
51	69	1
173	175	1
124	125	2
199	199	1
10	63	1
189	204	1
131	138	1
54	165	1
