129	131	3
15	17	4
65	67	3
100	117	4
29	29	3
96	96	14
21	21	12
3	3	18
77	77	16
67	67	13
123	123	16
100	100	16
94	117	2
19	21	6
116	117	4
63	63	13
100	107	3
79	81	3
47	47	19
115	115	15
113	114	5
53	122	1
70	70	14
8	69	2
92	92	16
33	34	3
103	103	13
107	107	8
89	89	11
73	73	7
118	118	13
46	46	9
51	51	9
44	44	16
100	104	5
50	50	11
40	40	5
66	67	2
55	56	5
97	97	13
30	31	4
106	106	11
99	99	15
85	87	5
5	5	7
86	86	10
9	9	9
119	119	14
14	14	7
6	6	13
75	75	11
114	114	24
23	23	7
118	119	4
17	17	7
132	133	8
10	119	1
101	101	24
46	55	2
76	76	10
94	124	4
72	72	10
97	98	6
58	60	1
54	54	22
57	66	1
104	105	3
28	29	14
30	30	12
116	116	15
89	90	8
42	42	14
15	15	10
52	52	17
21	28	2
84	85	4
1	93	6
130	132	5
94	94	10
113	117	4
53	53	22
130	130	8
13	13	11
118	127	3
133	133	7
108	108	17
49	49	18
16	23	1
120	121	6
27	27	5
112	112	15
0	0	12
85	85	12
79	79	15
39	39	11
33	71	5
5	6	2
78	78	5
29	30	5
109	111	1
124	131	1
25	26	8
6	8	5
117	117	19
69	69	15
125	125	12
65	65	5
124	124	8
94	95	7
57	57	12
85	86	7
119	125	6
51	60	3
44	47	4
31	32	4
31	31	5
0	1	4
13	14	1
86	87	2
58	58	8
25	25	11
107	108	2
119	126	3
102	102	12
64	65	4
43	49	1
4	4	8
68	68	8
114	126	2
82	82	4
114	119	2
90	90	8
111	111	9
102	106	6
73	105	6
7	9	2
95	95	13
50	54	1
75	76	3
59	59	7
40	41	3
79	115	7
93	93	8
51	55	2
11	30	5
10	10	6
20	88	7
114	116	5
113	116	5
2	92	3
43	43	15
126	128	2
65	66	7
120	120	5
5	7	5
116	123	1
48	48	21
22	23	1
114	115	4
68	69	3
16	16	8
91	91	11
2	91	3
26	26	3
113	115	4
70	120	3
70	89	2
56	56	5
50	51	9
27	28	6
63	71	3
32	32	14
101	113	1
87	87	5
111	112	1
58	59	14
39	56	4
19	19	10
98	100	5
96	97	5
124	125	5
10	16	3
51	53	4
103	106	3
45	45	11
131	131	15
105	105	14
110	111	2
80	102	2
101	107	1
88	88	1
106	129	1
48	49	2
7	7	8
20	20	10
115	116	10
77	80	3
103	109	2
10	11	5
121	121	8
60	60	3
101	102	5
110	110	8
90	91	2
103	115	2
70	71	5
49	123	3
100	105	2
16	17	3
122	122	6
60	61	1
55	55	5
113	113	10
41	43	5
81	81	8
118	120	1
88	89	4
117	118	3
55	73	2
98	98	7
0	33	3
104	114	1
127	127	1
10	44	1
26	121	5
76	98	3
53	80	1
126	126	19
55	63	6
107	109	2
92	93	4
113	126	2
33	33	7
102	115	1
132	132	6
27	30	1
74	74	7
8	9	2
104	104	4
2	2	6
89	106	3
85	88	2
112	130	1
25	27	4
98	111	2
46	121	2
10	12	1
52	79	2
1	1	11
20	71	3
106	107	6
77	83	2
75	116	3
53	54	1
3	69	1
98	108	1
5	67	1
18	18	3
74	76	1
47	48	4
56	72	3
109	109	8
24	24	2
80	81	5
3	65	6
86	88	6
89	91	1
104	113	5
76	77	5
57	65	1
2	3	2
63	65	1
74	85	3
15	16	2
16	33	3
83	85	1
76	106	1
79	80	8
91	93	3
34	34	6
129	130	3
116	130	2
51	61	1
85	96	3
62	63	3
42	75	3
46	47	3
12	12	1
1	70	2
118	126	1
19	20	3
107	117	1
90	107	1
124	126	1
100	101	5
83	83	2
18	22	1
30	66	2
8	8	4
127	128	4
105	114	2
104	123	2
59	60	3
21	22	1
71	71	7
28	28	10
49	121	2
93	94	4
129	129	3
10	32	2
11	12	4
78	79	1
84	114	1
101	104	2
1	3	2
84	84	1
110	112	2
96	108	2
76	95	1
78	83	5
52	53	2
38	38	4
99	100	1
125	131	1
24	25	1
66	66	2
94	97	2
128	128	4
125	126	3
12	13	1
58	62	5
3	5	1
95	96	3
62	62	6
73	114	2
64	69	4
0	70	2
105	106	3
108	109	2
97	108	2
25	28	1
64	64	2
72	75	1
82	106	1
54	57	1
23	25	1
61	61	1
131	132	1
40	43	2
41	45	2
7	8	1
16	72	1
91	92	6
40	45	2
55	97	3
78	81	1
54	96	1
1	2	1
122	123	1
61	63	1
7	45	2
130	131	1
45	47	1
23	29	1
3	4	3
21	88	1
11	40	1
76	94	1
96	123	1
69	70	2
46	56	3
40	42	2
55	59	1
10	41	1
120	122	3
17	26	4
44	45	3
11	50	1
42	43	3
51	52	1
77	82	1
56	105	1
72	74	2
111	113	2
84	86	1
121	122	2
80	80	1
72	73	1
30	62	1
77	79	1
44	46	1
102	103	2
108	113	1
87	90	1
28	30	1
111	117	1
113	127	1
49	118	1
11	11	1
54	76	2
108	111	1
5	15	1
119	128	1
50	53	1
114	117	1
41	42	1
99	109	1
