98	98	8
0	1	4
18	18	8
16	17	9
83	101	4
161	161	12
192	193	2
174	178	4
108	108	3
170	171	4
7	49	7
214	214	6
133	136	2
202	208	2
235	235	6
40	162	8
86	86	23
54	54	11
39	160	1
59	59	14
64	64	22
178	178	5
170	170	3
24	24	7
14	14	10
128	128	14
81	95	1
81	91	3
70	70	4
11	12	6
0	0	6
191	191	7
137	137	10
23	23	6
56	80	4
202	202	2
151	163	3
42	42	13
5	30	2
205	212	2
82	84	3
104	105	4
148	152	3
175	175	5
74	76	3
167	167	7
100	118	2
88	88	15
106	106	7
225	225	5
4	4	7
1	1	14
64	65	11
146	146	1
107	107	7
95	135	2
238	239	5
48	50	2
206	206	5
3	4	7
4	14	3
31	31	17
164	167	6
46	106	3
205	222	2
80	81	7
101	101	6
37	37	11
40	191	3
35	35	9
156	157	7
172	172	14
47	47	5
143	143	8
192	192	11
147	147	4
115	116	3
206	211	4
72	72	13
40	41	4
139	139	4
10	10	17
170	191	5
117	132	3
58	59	8
4	21	4
139	140	2
5	7	2
52	52	4
62	63	7
198	198	11
190	191	11
106	217	1
210	223	1
179	179	3
120	120	8
15	15	4
77	108	2
3	8	1
144	205	7
24	26	1
193	194	5
109	109	7
12	17	3
180	180	10
36	47	4
30	30	10
155	155	9
5	5	13
211	211	7
213	230	1
68	69	1
133	133	4
159	159	9
194	214	3
144	146	2
83	139	3
184	184	7
36	36	10
183	183	5
212	212	7
20	20	16
85	85	13
112	112	2
242	242	6
67	67	8
196	196	8
104	135	15
33	33	3
29	30	3
162	162	14
239	240	2
190	190	2
134	134	10
63	63	4
74	74	5
103	103	19
154	154	12
119	119	15
51	58	5
6	34	1
199	232	4
195	196	4
184	215	6
141	141	8
116	116	10
61	61	10
82	82	8
105	118	5
68	229	5
108	218	3
47	75	5
210	212	2
48	48	10
66	66	3
180	184	3
150	151	3
205	206	2
193	193	12
137	138	5
32	32	10
185	189	4
149	151	6
62	62	10
69	69	4
180	189	4
103	115	1
228	228	3
167	168	3
129	129	9
96	96	1
105	117	4
241	241	11
168	168	6
75	113	1
26	26	9
158	158	11
78	231	4
217	231	2
7	7	3
201	201	11
102	102	7
119	126	4
69	159	4
221	221	4
75	75	13
151	151	6
229	229	8
49	49	7
54	146	1
59	60	2
37	38	3
61	64	2
143	146	6
118	173	2
183	190	6
156	156	5
44	45	3
42	161	3
219	220	7
141	169	7
150	152	1
39	88	2
97	98	3
175	186	3
80	80	11
34	35	7
0	9	3
108	112	7
34	34	1
63	64	1
208	208	2
15	18	3
58	58	6
140	166	1
83	84	2
39	40	3
29	32	2
6	7	5
99	99	8
209	209	7
156	158	4
5	35	1
83	83	3
146	147	1
50	51	6
221	222	6
27	28	7
186	186	5
21	21	8
212	213	6
125	125	4
217	221	4
74	75	5
224	226	4
41	118	1
19	19	6
79	107	3
41	116	1
169	179	2
68	70	1
103	105	4
185	186	2
188	189	1
199	213	5
201	202	4
117	117	11
36	37	1
159	160	3
100	100	5
224	225	7
84	102	1
107	108	2
144	144	8
26	27	2
201	203	6
30	36	5
122	122	8
175	179	1
61	70	4
21	23	4
118	134	3
216	216	2
41	41	13
16	74	1
11	11	8
101	105	3
208	219	2
105	119	1
125	126	6
25	25	8
28	28	12
45	45	8
22	23	4
27	27	6
164	164	5
166	166	4
203	215	2
11	23	3
104	104	7
232	233	3
62	65	1
29	29	4
37	44	1
110	110	6
230	230	5
30	67	2
176	177	2
177	210	3
222	222	2
100	101	2
3	3	4
230	231	1
68	186	1
199	199	1
164	165	4
9	10	4
210	210	8
77	229	5
4	49	6
107	117	2
118	126	7
97	108	5
123	123	3
210	222	3
123	125	2
51	51	4
38	150	2
17	18	12
81	81	6
38	197	3
46	46	10
38	38	9
1	65	6
66	78	4
68	68	2
223	223	8
179	192	3
85	100	3
40	98	2
142	173	4
15	22	1
43	43	11
42	43	2
41	107	1
237	237	5
44	44	3
20	25	1
60	60	3
55	58	3
140	143	2
204	211	1
42	55	1
45	71	5
145	145	1
65	160	2
8	8	7
45	46	4
195	195	3
33	58	2
135	136	2
164	168	3
39	39	8
66	159	2
78	80	2
220	220	2
115	117	4
44	84	2
69	70	4
123	126	4
115	125	1
207	207	7
97	97	4
79	79	5
150	150	3
52	53	6
202	203	2
127	127	5
53	53	8
187	187	1
132	147	1
111	111	8
71	71	7
56	74	2
61	74	2
16	22	2
45	62	2
211	223	2
148	148	4
11	36	2
188	188	9
239	239	4
63	68	1
185	185	6
69	72	6
152	190	3
197	197	4
39	43	5
109	208	2
12	18	3
200	221	4
91	111	1
224	224	9
156	166	2
202	207	5
73	73	7
140	140	1
143	172	3
57	57	8
155	158	4
34	60	3
106	199	5
35	50	1
14	15	3
139	143	1
21	22	1
222	223	5
105	105	4
229	230	5
140	169	1
75	80	5
106	132	1
147	169	3
11	24	1
177	177	6
210	211	2
194	196	3
143	167	1
28	37	5
40	43	1
36	200	2
170	195	1
142	150	1
98	110	1
204	212	3
71	72	2
80	84	2
198	218	5
20	22	3
51	52	5
120	162	2
151	169	2
9	30	1
236	236	4
20	227	1
169	169	4
102	103	2
206	214	2
149	149	5
99	107	2
4	5	1
78	78	5
114	115	2
203	204	2
6	31	1
219	219	6
104	218	2
136	147	2
46	235	1
76	217	3
51	72	4
232	232	2
85	96	2
57	72	1
183	191	2
165	166	3
214	216	4
101	102	3
6	6	6
69	76	2
7	9	2
39	50	2
189	190	4
154	184	2
6	30	3
218	218	3
58	62	1
231	231	1
136	136	10
193	195	1
139	174	2
36	54	2
153	157	2
180	188	3
213	216	2
5	6	4
58	235	1
197	200	1
76	76	4
175	187	1
177	178	2
213	213	5
228	229	3
174	226	1
199	220	1
152	228	1
157	159	5
57	58	4
196	197	5
182	182	3
141	173	3
187	188	2
170	193	1
238	238	8
86	102	2
8	9	4
121	121	4
176	176	3
124	125	1
55	71	2
74	79	2
129	130	3
45	82	2
236	238	1
11	14	3
167	194	1
41	106	2
151	158	2
54	128	3
17	17	6
172	173	4
81	83	4
152	164	1
66	158	1
19	20	1
67	68	2
180	181	1
138	139	1
50	52	5
129	131	2
117	118	3
13	13	7
48	82	5
209	222	1
22	22	3
186	187	1
77	105	5
9	9	2
142	142	1
43	44	1
40	40	3
159	207	2
2	9	2
157	157	3
56	150	1
180	185	1
73	173	1
226	226	3
118	118	1
33	34	1
223	224	1
76	103	1
108	109	1
21	29	4
65	65	9
143	165	1
66	67	2
97	99	1
179	193	1
16	16	2
127	131	2
109	191	4
119	153	2
68	158	2
225	226	3
29	31	1
133	134	1
47	84	1
175	198	1
2	31	2
9	17	1
100	218	3
70	71	2
38	39	1
234	235	5
179	195	1
138	138	3
82	200	1
195	197	1
204	206	2
131	131	1
9	49	1
18	19	5
84	84	2
12	12	2
56	106	4
176	195	2
163	163	2
150	228	1
124	130	2
131	180	4
198	203	2
6	14	1
16	21	1
59	80	2
171	171	2
218	220	1
56	57	3
33	57	2
207	219	2
83	95	1
115	115	1
77	77	2
181	181	2
106	107	2
33	36	2
219	231	1
15	23	1
71	73	1
141	142	1
43	82	2
58	106	1
120	131	1
4	35	1
99	100	1
217	218	4
79	105	1
126	126	2
4	31	2
86	105	3
234	238	1
3	9	1
56	56	4
12	13	2
42	73	2
49	104	1
23	26	1
240	240	5
189	215	1
102	105	1
146	161	1
131	153	1
106	108	1
61	190	1
54	55	2
70	72	2
72	204	1
41	117	1
113	114	1
65	68	1
200	206	1
233	233	1
192	195	1
86	87	1
175	176	2
140	141	1
32	33	1
37	43	1
48	49	2
43	70	1
152	158	1
12	14	2
202	209	3
194	195	2
49	79	1
82	115	1
120	157	2
72	73	1
36	46	1
39	42	1
83	91	1
55	55	2
66	68	2
122	123	1
186	214	1
48	198	1
83	201	1
141	168	1
34	58	1
227	227	1
204	204	2
217	217	1
37	64	1
61	118	1
170	192	1
24	25	1
80	100	2
78	79	1
72	228	1
233	235	1
49	60	1
209	210	2
143	149	1
23	141	2
203	203	4
81	82	2
124	129	1
59	116	1
78	229	1
173	173	1
76	78	1
219	223	1
1	22	1
129	192	1
38	198	1
174	174	1
15	17	1
174	177	1
77	78	1
64	68	1
81	136	1
180	191	1
18	20	1
13	16	1
47	50	1
19	229	1
144	147	1
2	2	2
38	55	1
128	130	1
41	200	1
152	153	2
3	7	1
158	166	1
219	232	1
28	29	1
73	74	1
197	198	2
72	164	1
169	170	1
143	147	1
124	124	1
50	50	1
74	110	1
135	135	2
181	183	1
2	68	1
150	163	2
30	31	1
24	71	1
153	153	1
73	144	1
84	85	1
221	224	1
152	163	1
182	216	1
231	236	1
68	75	1
15	20	1
179	219	1
177	229	1
