25	25	11
68	68	6
119	119	3
117	118	4
40	42	3
0	2	3
18	18	5
126	126	4
76	85	6
38	38	4
64	112	1
71	72	4
70	71	2
117	117	13
39	40	8
112	113	4
87	88	4
24	24	3
80	80	4
98	98	4
79	79	12
49	49	7
122	122	4
12	12	4
64	64	5
10	112	2
83	88	3
28	28	6
132	132	9
0	1	4
28	29	2
19	20	10
69	69	5
128	128	7
123	123	6
10	10	11
113	113	8
0	12	3
2	2	5
90	90	6
9	9	4
64	65	1
107	107	2
11	11	4
32	32	3
99	99	6
108	133	3
42	42	4
48	48	4
85	85	3
53	53	4
72	75	4
14	14	3
2	14	1
127	127	6
87	87	4
96	96	5
104	104	3
129	131	1
15	15	5
40	40	3
120	121	2
104	105	2
71	121	2
108	108	3
92	92	14
118	118	2
86	86	3
114	114	3
83	89	2
50	50	8
59	62	1
109	109	5
45	46	7
100	115	3
25	122	4
70	70	6
29	29	4
125	127	2
27	27	4
129	132	1
58	59	2
22	24	5
39	39	5
37	37	2
42	43	2
60	61	2
1	2	3
57	79	1
69	71	1
62	72	2
78	78	3
65	65	3
40	41	2
129	129	3
12	13	1
60	60	3
77	77	4
110	110	1
76	80	5
103	103	3
43	44	2
22	22	2
33	33	1
129	130	6
67	67	7
65	74	3
8	9	1
115	115	2
90	92	1
16	17	4
0	0	2
112	112	8
125	126	2
6	6	2
102	103	8
72	72	3
25	33	2
96	104	2
1	6	2
91	91	3
99	108	2
52	53	4
63	77	1
3	3	2
102	102	5
81	81	3
67	68	4
66	66	3
26	26	7
85	86	3
48	49	2
54	54	5
21	21	2
93	93	5
7	7	1
79	119	2
82	96	1
62	74	2
94	95	1
6	120	1
77	78	3
125	125	4
75	75	1
25	27	6
44	44	4
9	112	1
75	78	2
79	118	1
46	67	1
19	19	3
124	125	1
10	11	2
133	133	4
115	116	1
110	111	3
83	83	4
73	75	1
77	108	2
5	5	3
97	98	2
81	83	1
47	47	4
118	119	1
3	4	1
82	82	5
55	55	3
131	131	2
80	121	1
44	61	1
109	130	4
11	12	1
110	113	1
9	10	1
69	70	1
26	29	1
98	100	2
116	116	5
78	118	2
69	72	1
87	109	2
3	120	1
71	71	3
38	39	1
17	17	2
63	63	3
128	129	1
13	14	1
25	26	2
111	111	2
88	88	4
79	80	2
96	99	1
2	58	1
57	57	1
46	57	1
1	1	2
52	52	1
80	81	1
83	84	2
55	94	2
29	62	1
30	30	2
54	55	1
68	70	2
121	121	2
93	94	1
119	129	1
13	13	2
8	8	1
29	30	2
16	24	1
17	44	1
128	130	3
100	108	2
26	62	1
14	17	1
59	59	1
78	81	1
105	105	1
41	41	1
73	73	3
131	132	2
56	86	1
27	28	2
42	44	1
130	131	1
95	95	1
80	109	1
105	120	3
113	114	1
51	52	2
43	43	1
100	100	1
31	32	1
56	56	2
3	126	1
4	122	1
76	76	1
51	51	1
54	92	1
68	108	2
57	58	1
16	16	1
114	116	1
17	34	1
30	69	1
101	101	1
95	104	1
130	130	1
44	132	1
