57	57	17
61	77	4
50	50	3
78	79	3
89	89	9
35	99	1
35	35	4
53	55	3
107	108	2
78	78	7
68	74	3
38	38	6
55	56	4
85	86	3
70	71	3
19	25	1
80	80	10
81	81	11
74	78	2
62	62	3
26	26	9
87	95	4
108	109	2
52	52	4
47	49	6
91	91	3
101	101	21
108	108	9
39	39	3
66	72	1
64	64	2
22	22	8
59	59	10
48	49	4
24	24	6
71	71	8
24	41	2
46	46	4
43	44	4
76	82	2
75	75	6
57	59	5
69	69	2
96	97	1
90	90	7
33	33	2
105	105	11
81	82	3
106	106	3
66	67	10
93	93	3
85	85	4
86	86	10
60	71	1
92	94	2
61	65	2
54	55	5
95	95	4
73	98	1
65	65	9
34	34	2
21	74	1
97	100	1
102	108	3
61	61	5
87	87	2
40	40	4
39	40	5
94	107	2
60	60	20
103	103	13
59	78	6
34	46	2
82	83	5
97	97	8
67	67	7
53	57	2
88	88	14
31	31	5
74	74	5
87	94	3
84	84	5
36	36	12
70	70	10
99	99	4
109	109	8
107	107	7
58	79	6
34	36	4
77	77	7
84	85	3
89	91	5
29	95	2
111	113	2
72	72	4
68	68	6
54	54	4
59	82	2
29	66	1
29	39	6
96	96	6
67	71	1
34	66	1
59	60	2
98	112	3
94	94	5
36	37	2
56	56	8
44	45	2
30	68	1
104	105	5
73	73	5
38	104	3
43	43	14
49	52	1
84	88	2
49	50	2
79	79	4
104	107	2
27	27	8
97	103	5
47	47	3
73	74	5
92	92	6
103	105	8
63	63	3
87	88	4
96	103	5
28	37	4
49	49	2
71	107	4
62	65	2
98	98	1
30	31	1
112	113	2
114	114	1
28	29	5
55	83	1
70	72	3
110	110	2
54	84	1
22	78	3
25	32	2
20	20	1
77	80	3
45	46	3
101	103	4
104	104	10
60	78	1
82	82	3
94	95	2
64	66	1
74	75	2
70	84	2
81	108	5
35	43	2
26	63	1
21	23	2
107	109	1
30	30	3
20	82	5
86	91	1
105	106	4
66	73	4
95	109	2
25	25	2
38	46	1
53	85	2
71	98	1
50	52	1
103	104	1
23	23	1
72	83	2
75	81	1
67	68	3
37	100	1
106	107	1
37	38	3
24	65	2
26	27	2
88	89	3
90	91	2
68	70	3
71	73	1
29	29	1
40	47	1
50	51	1
51	51	3
26	64	1
62	78	2
31	47	1
33	34	4
51	99	3
38	39	2
53	54	1
95	96	2
103	112	1
44	44	1
97	98	2
45	45	4
64	74	1
68	71	4
20	21	1
55	59	2
83	84	1
83	83	3
115	115	1
101	112	2
97	111	1
113	113	1
88	92	1
26	42	1
76	76	3
34	49	1
56	70	2
36	101	3
58	58	1
75	80	1
89	108	2
76	79	2
57	58	2
21	82	2
56	85	1
86	87	1
60	77	1
83	85	1
32	32	1
42	42	2
86	88	2
65	72	1
106	112	1
52	65	2
21	22	1
68	69	1
111	111	1
54	59	1
40	42	1
21	21	1
78	83	1
31	32	1
62	84	1
32	34	1
61	78	1
19	32	1
104	108	1
102	102	1
67	76	1
41	72	1
80	102	1
45	52	1
114	115	1
101	102	1
