183	183	13
10	11	12
168	168	16
115	115	12
48	48	21
12	16	6
43	44	14
86	86	20
106	106	23
57	129	1
111	112	5
107	118	6
82	101	1
110	110	17
179	179	16
100	123	4
5	5	27
169	172	2
140	141	2
25	25	9
150	188	1
98	98	16
189	189	15
83	84	9
60	61	12
110	173	5
55	85	4
82	82	22
145	145	24
161	161	9
72	74	2
134	134	9
150	150	24
63	145	5
187	187	16
73	73	18
104	104	24
47	47	29
137	139	2
147	149	12
21	21	7
22	22	11
80	80	20
4	4	17
135	146	2
141	141	32
55	56	11
109	109	18
156	157	5
88	89	9
102	103	9
67	122	5
139	139	22
78	78	25
12	12	18
74	74	17
93	93	23
89	89	12
172	174	1
56	57	9
84	84	14
28	28	18
185	186	4
150	151	18
134	135	1
29	29	10
30	77	2
63	64	6
92	92	17
78	99	4
105	106	16
87	96	2
111	111	14
138	138	17
32	32	13
42	42	17
37	37	25
128	128	12
92	93	5
129	129	6
170	170	9
105	105	19
36	36	21
54	56	6
174	174	26
70	70	20
79	79	14
11	12	5
94	94	16
95	96	8
4	25	11
10	14	5
71	71	18
113	114	12
0	0	20
149	149	33
65	65	8
173	173	21
19	21	3
119	120	11
6	6	31
14	14	7
20	20	14
153	184	1
145	146	14
107	107	17
13	13	13
122	122	7
169	170	7
84	175	5
23	24	7
153	153	23
64	64	5
65	68	6
31	67	6
160	160	7
58	78	3
8	30	1
68	121	18
153	154	4
154	155	13
69	69	4
17	55	4
119	146	8
59	60	11
34	157	4
154	154	15
58	58	12
149	161	7
136	136	8
4	26	8
146	146	25
164	176	3
26	26	10
149	150	3
172	172	8
34	67	5
42	44	6
107	108	3
165	165	9
137	137	14
24	24	7
167	167	25
69	73	1
68	68	26
6	7	6
65	118	1
142	142	25
29	30	17
137	163	1
88	88	9
24	48	2
177	177	22
13	14	16
66	66	14
53	54	16
87	87	35
35	35	23
40	40	24
118	148	4
2	2	22
154	156	3
41	41	32
118	118	10
163	170	6
133	133	16
55	57	3
16	19	9
8	8	5
85	175	4
136	140	4
143	144	6
76	76	25
175	175	16
169	169	26
151	152	3
164	170	6
152	153	2
171	171	28
90	90	15
174	176	5
75	75	17
80	81	12
101	103	9
61	61	7
81	101	7
0	1	6
21	22	1
126	127	9
125	139	7
182	182	9
182	185	7
16	17	6
40	41	9
159	159	4
176	176	9
1	1	20
28	32	2
117	117	6
78	79	17
152	152	18
178	178	12
164	164	4
89	169	4
181	182	8
123	123	13
124	126	2
96	102	5
188	190	6
23	55	3
166	166	11
39	39	11
150	178	5
54	58	5
76	77	4
103	106	2
48	101	5
85	85	11
121	122	12
108	112	6
157	158	10
59	59	13
54	54	11
72	72	12
144	144	3
95	102	2
115	116	7
36	78	3
70	71	8
88	135	2
158	158	16
101	130	2
141	142	9
137	140	2
91	92	8
85	86	4
163	177	1
76	93	2
103	120	3
26	30	1
18	18	6
103	103	5
81	81	16
165	182	5
126	126	8
99	100	6
45	45	13
135	135	10
74	128	2
166	184	6
6	24	1
80	86	5
1	2	5
180	181	10
96	101	6
184	187	2
2	26	2
27	27	19
113	113	10
16	16	10
125	125	18
72	75	6
3	5	9
88	92	3
174	175	7
130	130	17
19	19	17
165	174	2
33	97	8
54	85	3
181	181	6
42	47	3
57	79	6
178	180	5
83	83	13
40	79	2
148	148	9
100	100	27
31	31	11
142	143	8
185	185	13
162	162	11
120	122	3
104	106	3
32	67	3
4	5	3
162	163	9
62	62	8
117	118	4
129	131	3
183	185	1
83	175	3
74	75	5
171	172	3
17	17	12
15	24	5
97	98	1
87	88	3
85	87	4
48	63	4
144	145	3
56	56	14
158	161	1
37	59	6
147	147	34
143	143	1
33	35	7
63	66	5
116	116	14
157	162	2
37	48	2
184	184	10
141	145	5
33	36	2
64	67	3
109	118	2
8	13	2
68	79	7
30	31	9
184	186	5
12	13	3
157	178	2
96	140	1
188	188	10
35	94	3
14	15	12
67	68	6
177	183	4
33	33	7
131	131	18
136	139	5
100	104	4
73	76	4
155	155	18
175	177	4
44	44	5
87	169	1
31	32	7
105	121	5
169	175	9
53	53	19
43	43	18
101	122	3
76	95	2
15	15	13
110	111	9
95	95	27
23	23	13
120	121	3
22	47	6
121	121	21
132	132	3
6	152	1
32	33	3
190	190	7
46	47	3
59	62	4
124	124	10
24	25	8
37	157	2
115	171	4
157	157	10
123	125	4
42	82	1
102	121	1
187	189	4
15	23	3
179	180	6
39	130	4
163	164	2
10	35	2
58	61	1
2	4	4
22	46	1
0	2	7
28	29	10
27	56	2
98	99	5
11	11	9
130	132	1
33	34	9
101	101	9
63	147	1
151	151	12
142	145	1
127	127	13
5	27	2
167	171	2
30	39	3
63	63	9
99	103	5
38	38	13
172	173	5
41	42	6
138	139	7
131	132	5
114	177	6
32	87	3
59	61	3
185	187	3
68	70	4
121	124	3
129	130	6
62	66	2
54	55	6
112	112	10
77	77	22
127	128	3
163	163	9
58	60	4
141	162	1
147	148	7
148	149	10
67	81	1
130	131	5
71	76	3
13	16	4
45	46	7
101	102	12
31	33	2
186	186	13
34	34	10
102	102	13
80	82	3
35	36	10
180	180	4
10	10	2
122	130	2
124	125	8
150	177	6
68	125	1
20	21	5
164	181	2
24	49	3
55	86	6
52	53	1
62	64	5
182	189	7
57	57	8
175	176	6
89	90	4
99	99	15
15	16	6
91	91	6
68	73	8
38	40	8
36	37	4
90	91	9
25	47	1
165	175	2
62	63	4
67	67	9
100	101	3
39	40	6
145	157	1
138	162	1
78	81	2
171	174	1
188	189	7
53	57	3
173	175	3
57	85	3
119	119	4
123	126	1
37	99	3
158	159	4
60	60	3
120	120	8
168	169	5
24	56	1
81	100	2
38	39	2
108	108	7
159	160	6
61	62	1
14	55	2
76	106	3
13	15	1
186	187	2
86	89	5
166	167	7
122	146	1
5	26	1
106	120	1
52	52	4
130	133	3
74	107	3
95	97	1
17	23	3
7	7	5
132	133	4
172	175	2
125	126	2
22	24	2
84	85	7
152	187	2
8	9	2
24	57	1
100	103	3
79	80	6
96	96	3
17	21	3
14	26	3
13	17	2
42	43	5
150	152	2
171	176	1
83	122	2
34	37	1
166	171	3
82	115	2
183	184	3
66	67	5
33	37	1
14	108	1
142	158	6
164	165	1
140	140	7
87	89	2
67	83	2
39	136	4
177	189	2
128	131	3
77	78	2
173	174	3
122	124	4
154	183	1
35	95	1
29	31	2
114	114	5
118	147	5
180	183	1
31	78	1
184	185	10
5	25	3
106	119	2
156	156	3
24	26	3
15	17	4
145	159	3
116	119	2
46	46	11
41	44	2
79	99	3
71	77	1
137	138	2
34	60	1
39	131	5
142	159	3
179	181	4
103	128	3
64	65	4
152	186	2
76	78	1
155	156	5
72	120	2
178	179	2
94	95	3
7	152	1
17	18	3
181	183	1
82	83	3
167	168	2
107	112	1
133	134	2
77	92	3
67	71	1
14	152	2
123	146	3
53	56	2
156	158	3
171	175	3
40	42	2
57	58	3
138	141	1
108	118	2
161	164	2
165	169	5
109	119	2
167	169	1
39	83	1
154	157	2
56	86	1
70	75	2
121	127	2
22	25	1
28	31	3
121	135	6
125	127	3
128	130	2
77	111	3
165	166	6
28	57	2
182	183	2
19	25	3
25	26	5
186	188	2
4	24	1
13	29	1
30	30	6
86	87	3
15	21	1
79	87	1
57	86	2
176	177	4
7	151	1
167	184	2
110	114	2
48	49	1
19	20	2
39	140	1
71	72	3
125	134	1
153	164	1
9	9	3
49	49	2
92	167	2
98	105	1
11	29	1
81	82	3
32	46	2
63	65	4
68	114	2
139	140	5
21	24	2
90	121	1
95	129	1
109	110	2
3	3	3
31	162	2
161	162	3
116	118	1
91	169	1
122	123	3
126	131	1
168	176	4
124	127	1
83	124	1
72	73	3
22	23	4
39	59	1
187	188	2
42	48	2
104	107	1
73	74	1
27	29	2
30	38	1
55	55	4
83	100	1
165	171	4
20	24	2
53	55	2
19	23	2
61	77	1
177	181	1
19	24	2
57	80	1
180	189	1
27	28	2
170	171	1
116	173	3
115	173	2
82	100	2
82	123	2
75	76	2
32	41	5
24	138	1
97	97	3
64	117	1
139	141	1
112	120	2
177	178	2
140	163	1
119	147	1
184	188	3
89	135	2
15	155	1
120	123	2
27	127	2
103	104	2
27	31	1
30	33	3
33	38	1
148	151	1
34	94	1
1	3	2
17	20	1
145	177	1
69	72	1
14	154	1
134	138	1
37	62	1
58	123	1
96	97	2
12	15	1
81	84	1
171	177	2
131	133	1
34	35	2
134	164	2
166	168	1
49	80	2
111	113	2
48	56	1
14	27	1
23	56	2
32	89	1
133	136	3
84	87	1
165	183	1
44	45	2
39	79	2
26	57	1
11	16	1
28	30	2
83	136	1
41	47	1
136	138	1
37	79	1
165	176	1
89	91	1
30	34	1
160	162	1
142	144	1
48	81	2
136	169	1
106	107	1
35	155	1
83	87	1
40	140	2
38	79	1
185	188	2
37	38	1
160	176	1
35	37	2
65	66	1
146	160	1
172	176	2
144	160	1
114	115	1
29	33	1
127	131	1
93	94	1
151	188	1
151	189	1
165	167	1
63	123	1
6	25	1
4	27	2
168	175	1
171	183	1
42	80	1
114	170	1
134	163	1
11	13	1
146	148	1
