5	7	5
10	10	5
8	31	3
4	4	21
58	59	2
98	98	5
93	93	17
15	15	15
32	32	22
2	2	10
9	10	5
87	89	6
116	156	4
51	119	3
131	179	3
42	45	6
105	117	2
11	11	14
68	68	7
82	82	8
20	20	8
8	8	23
66	74	6
10	11	8
121	122	3
87	87	13
43	43	12
168	168	14
140	140	27
100	101	9
115	158	1
30	38	3
13	13	11
133	138	3
115	115	16
153	153	10
151	151	12
58	119	3
35	35	11
29	29	18
4	11	3
96	98	1
135	157	1
33	99	11
33	33	9
155	156	7
51	51	5
19	20	6
127	128	11
17	17	24
160	160	9
25	26	13
50	50	5
55	55	12
168	169	14
103	103	10
30	31	8
166	168	2
135	138	3
165	165	5
180	180	3
12	13	10
25	25	26
28	28	9
41	41	9
38	38	16
78	78	15
144	144	9
14	15	5
155	155	6
152	153	11
143	143	16
116	116	4
141	141	8
66	66	11
1	10	4
117	129	1
8	20	1
24	24	24
118	137	2
26	36	5
84	84	6
120	128	4
81	124	4
24	25	13
2	3	3
59	80	2
74	174	4
28	38	7
29	36	2
108	110	5
76	76	10
34	35	3
75	79	4
21	21	5
52	52	16
71	72	5
107	114	3
146	146	2
72	72	26
120	120	5
112	114	4
113	113	12
31	33	6
40	40	16
5	5	10
95	95	14
130	130	15
95	102	4
74	153	3
121	175	3
8	9	7
59	61	2
11	20	5
34	34	8
132	133	4
125	135	1
30	30	13
80	111	6
165	168	4
119	119	7
106	112	5
151	153	10
6	12	10
139	139	19
77	77	9
175	179	7
149	149	24
22	23	2
134	134	6
92	92	12
80	95	2
31	37	2
5	11	1
30	33	3
83	165	4
138	140	3
23	23	19
40	41	9
154	166	4
154	154	5
12	15	4
29	31	3
9	42	3
66	68	1
106	119	4
163	163	11
56	56	6
126	128	2
25	30	9
16	16	12
107	109	8
102	103	4
159	162	4
29	33	5
3	3	15
50	51	9
26	26	18
131	131	10
101	102	4
37	37	9
33	43	2
142	142	19
136	136	13
129	129	10
138	138	20
64	104	1
149	151	6
117	126	4
90	94	5
132	132	21
2	10	7
44	44	7
64	65	4
118	128	7
136	162	3
174	174	9
24	41	3
172	172	10
137	137	19
38	39	7
143	144	2
175	175	2
165	167	1
91	93	6
106	167	4
126	127	1
26	106	5
166	166	3
71	71	10
135	158	1
127	160	2
119	146	3
27	27	9
100	100	8
4	16	5
85	85	3
173	173	15
21	22	7
92	93	1
73	74	3
106	107	3
164	165	7
61	61	15
22	22	16
135	135	3
0	0	9
60	60	10
81	83	4
151	152	8
1	9	1
54	62	3
19	19	20
7	7	9
96	97	10
79	80	3
116	158	5
144	152	3
7	10	3
81	85	4
12	12	18
50	102	3
42	42	18
15	42	3
56	57	3
32	33	4
36	36	7
17	74	2
60	61	8
14	14	19
14	70	1
112	112	7
158	160	2
71	178	4
39	39	19
52	72	1
4	20	3
4	8	4
12	41	4
128	128	8
5	64	2
24	32	2
83	83	3
9	9	11
78	79	5
126	134	6
129	158	2
91	91	7
8	22	5
86	124	2
123	124	8
107	107	4
116	117	1
74	80	2
125	132	2
123	123	17
123	125	9
26	27	15
17	18	13
153	154	4
161	161	3
144	145	8
7	13	4
80	80	13
101	103	8
120	121	1
20	122	3
125	125	6
102	104	2
98	102	4
169	169	7
110	111	3
11	12	6
64	72	3
170	170	11
131	160	1
122	122	15
52	92	2
163	178	3
44	118	3
99	99	4
120	122	3
31	36	2
63	63	4
109	109	7
52	68	8
16	23	2
158	159	10
46	46	6
97	98	6
35	36	2
177	178	5
53	54	4
2	4	5
124	125	2
157	157	13
73	81	5
108	108	6
57	57	7
9	20	4
6	6	8
115	116	6
37	40	5
115	157	2
76	96	3
74	79	2
130	157	1
41	42	1
158	158	11
129	136	3
0	17	3
89	89	3
88	89	9
138	144	4
59	59	4
49	49	2
21	42	2
122	148	1
162	162	5
130	155	1
5	6	9
116	121	2
126	136	2
167	167	8
26	28	2
31	32	1
121	121	5
132	170	2
5	12	2
65	66	7
11	31	1
86	89	1
67	77	2
1	44	2
173	174	3
53	145	1
8	19	3
82	102	4
72	178	2
51	94	4
81	81	3
64	64	3
74	74	19
6	10	4
159	159	7
24	42	10
93	104	2
132	139	3
35	97	3
137	138	2
135	136	9
44	97	1
34	42	3
74	76	5
133	133	16
8	10	4
112	113	3
13	19	2
103	104	3
133	154	1
149	150	1
42	43	3
156	156	10
27	30	3
82	97	4
103	107	2
129	168	3
90	90	5
67	67	7
31	31	6
23	26	2
6	25	3
129	130	4
158	162	2
119	120	1
161	162	3
156	158	4
52	53	8
163	166	4
124	124	6
126	137	1
39	179	4
96	96	5
75	172	2
164	171	4
55	59	3
67	110	5
68	92	3
18	19	3
33	37	1
169	171	2
150	150	4
127	131	2
160	161	3
75	148	3
120	125	1
34	63	2
14	33	1
7	12	3
2	9	2
146	165	1
152	152	9
51	66	2
65	65	4
21	123	4
12	24	2
171	172	4
151	154	1
89	90	1
16	21	3
18	33	2
87	90	1
129	160	3
165	170	3
164	164	5
80	121	2
148	148	5
88	88	2
51	137	2
50	52	5
179	180	2
62	79	1
168	171	2
111	111	11
62	62	4
3	4	5
110	171	2
132	135	2
61	63	3
153	169	5
90	172	3
63	79	1
2	42	2
132	167	3
52	54	1
55	56	1
140	144	4
117	117	5
114	116	2
58	95	2
27	28	4
44	119	2
126	126	7
75	75	6
70	71	4
77	171	1
101	101	5
105	105	6
66	70	2
135	169	1
2	14	2
60	102	2
29	40	2
168	170	3
22	24	2
113	114	2
102	102	4
50	94	1
24	26	2
86	86	2
106	109	1
80	81	3
145	145	3
155	157	3
28	29	3
130	170	1
107	108	5
15	16	1
162	163	3
142	145	2
29	30	3
92	96	1
82	127	1
142	151	1
58	58	1
134	135	1
88	99	1
16	20	2
0	1	5
4	5	3
3	8	4
3	12	2
0	11	2
45	45	8
140	142	2
102	105	1
134	154	2
13	15	1
94	94	10
74	75	1
54	54	1
127	127	4
111	116	1
1	1	7
27	63	1
7	16	1
73	174	1
21	32	2
57	121	2
176	176	7
76	171	3
118	118	4
133	137	2
90	95	1
141	142	1
109	175	3
27	38	1
7	11	2
131	132	2
29	41	1
45	117	1
9	13	3
88	106	3
123	176	2
147	147	5
16	17	1
3	37	2
53	55	2
73	73	3
65	80	1
117	118	2
10	12	3
15	56	2
137	179	2
97	97	9
109	174	5
37	41	2
39	40	8
117	128	2
166	171	4
165	166	2
36	37	2
12	23	1
79	79	2
36	38	2
60	77	1
121	176	2
130	169	2
171	171	6
131	178	1
130	160	1
136	177	3
25	29	2
96	102	5
23	31	2
73	122	1
132	180	2
98	101	2
7	8	1
41	46	2
11	13	3
7	21	1
62	80	1
29	45	1
131	154	3
2	11	1
112	168	4
153	165	1
66	67	3
179	179	2
57	76	4
166	178	1
92	170	3
121	167	2
126	169	1
102	107	1
11	16	1
49	153	1
83	89	1
23	24	3
106	106	3
178	178	1
132	134	1
114	114	2
104	105	4
4	9	2
37	38	3
122	124	1
14	32	1
1	176	1
3	26	1
153	176	1
142	143	1
9	12	2
33	34	1
15	20	1
27	39	2
163	164	1
160	162	1
29	167	3
147	160	1
33	38	1
55	58	1
94	100	2
106	115	1
128	129	1
51	126	1
80	85	1
77	78	1
76	77	1
111	154	1
62	63	1
122	155	1
83	84	1
60	64	2
129	167	1
137	170	1
9	14	2
1	11	2
98	99	1
103	166	2
35	62	1
1	42	1
7	9	1
91	94	1
165	180	1
129	137	1
162	165	2
67	90	3
18	23	1
177	180	1
52	55	1
5	10	1
90	92	1
32	36	3
18	18	1
156	159	1
4	36	1
99	114	1
4	19	1
145	146	1
109	110	2
103	105	1
26	32	3
52	61	1
154	170	2
169	173	1
115	159	1
31	39	1
72	73	1
2	176	1
177	177	2
71	76	1
85	164	1
79	171	1
6	13	1
