64	70	3
70	70	20
67	73	2
36	36	4
58	58	17
45	45	6
63	63	13
80	94	3
101	101	12
20	20	4
69	69	19
25	25	4
98	98	9
62	62	18
23	52	1
27	27	12
52	52	5
89	89	3
41	41	8
47	48	5
91	91	4
37	51	3
32	32	1
84	95	2
38	46	5
57	92	2
34	35	4
37	38	4
72	73	3
84	84	9
100	100	6
46	46	2
53	54	2
76	77	2
35	36	4
50	73	1
89	93	1
100	101	1
90	90	19
36	52	2
95	95	6
26	26	3
71	79	10
44	45	5
61	61	9
79	88	4
57	68	5
39	39	5
46	94	1
31	68	3
94	102	5
31	71	1
71	72	2
49	49	1
55	55	5
99	99	3
51	53	2
90	99	1
28	52	3
26	28	2
92	92	3
44	44	2
54	54	1
46	47	3
33	34	3
53	53	5
68	68	3
59	101	3
85	86	3
34	34	5
97	97	3
59	69	1
94	95	1
91	92	4
49	50	7
80	99	3
94	94	3
40	41	4
35	68	3
66	66	4
42	42	7
65	78	2
85	89	1
80	91	1
69	70	2
86	86	9
23	25	1
73	73	2
95	96	6
87	88	8
73	99	2
102	102	6
57	62	2
76	76	7
69	96	1
54	55	4
80	80	3
42	44	7
65	65	4
56	57	2
64	66	3
38	38	2
64	64	8
31	31	3
51	51	4
101	102	9
62	63	5
48	62	6
79	89	5
93	94	3
88	89	5
49	73	2
77	78	1
29	58	3
74	74	3
22	81	3
88	88	2
30	31	1
26	76	1
79	79	1
72	72	4
39	40	3
55	56	2
49	100	2
41	48	1
86	92	3
71	71	9
31	32	1
57	60	1
67	71	1
83	94	4
88	98	2
81	81	8
73	79	1
68	69	1
75	75	3
67	67	4
86	87	3
37	37	2
47	69	1
67	68	3
79	83	1
35	35	1
58	98	2
89	92	1
78	78	6
87	87	2
49	96	4
98	100	3
21	35	1
87	95	3
60	63	1
33	33	1
57	57	7
37	52	1
71	73	1
36	51	1
81	88	1
46	86	3
96	98	1
54	92	2
56	56	6
30	30	2
59	59	3
58	99	2
48	48	3
40	45	1
73	75	1
41	43	2
24	27	1
26	27	2
51	68	2
58	60	3
99	100	1
70	90	1
44	64	1
51	95	1
54	94	1
83	84	1
43	43	2
56	81	1
56	97	2
75	77	2
77	77	2
24	25	1
78	90	1
41	64	1
68	70	1
56	90	1
74	75	1
93	98	1
83	93	1
53	93	1
38	39	1
37	83	2
83	83	2
70	75	1
55	64	1
51	52	1
92	93	1
25	29	1
55	93	1
