32	32	9
163	189	4
72	72	12
21	21	19
24	24	23
209	212	1
245	245	27
219	225	1
34	35	5
225	225	4
76	76	7
187	187	15
52	52	11
19	19	6
8	8	18
190	190	8
75	81	1
31	150	3
246	246	9
249	249	7
213	213	10
28	28	17
39	39	10
246	247	3
201	201	18
232	233	5
205	207	4
101	101	23
91	92	2
5	87	3
180	181	7
214	214	23
185	186	12
112	159	2
165	166	13
202	202	15
31	32	3
66	66	8
17	17	8
55	246	4
241	241	12
35	35	5
5	5	23
146	146	8
49	49	26
113	113	11
117	117	27
226	228	3
63	64	9
230	230	20
183	184	5
163	163	46
111	111	26
175	175	23
109	110	5
210	210	13
172	181	3
116	116	20
115	115	13
82	83	3
159	159	19
65	67	3
70	70	17
226	227	8
239	239	13
228	228	16
108	109	4
99	99	9
193	193	15
86	86	16
164	165	4
244	244	11
107	107	4
15	15	8
162	162	25
220	220	13
31	38	1
238	238	11
225	226	3
201	239	2
58	58	17
222	222	19
31	31	18
221	221	17
22	22	14
192	249	3
96	96	14
204	204	24
7	7	18
225	230	1
61	61	11
50	84	6
207	229	2
38	39	2
15	76	4
201	236	3
63	156	2
79	79	27
4	5	7
236	236	18
236	238	4
197	197	16
157	157	28
200	200	16
8	9	5
192	192	20
85	85	16
35	42	5
55	59	3
179	179	30
185	185	23
58	69	2
36	36	17
158	159	11
78	85	3
118	119	3
88	89	1
12	12	25
199	199	14
88	94	4
87	87	15
219	219	19
81	81	17
167	167	7
49	163	7
57	57	16
161	161	17
175	177	2
94	115	5
216	216	9
114	114	24
195	195	16
153	153	10
160	160	32
240	240	20
77	84	2
231	231	13
51	51	16
239	240	3
64	64	7
54	54	10
222	223	10
17	18	8
110	110	14
86	89	1
112	112	27
45	45	17
100	101	3
218	218	18
229	229	12
205	205	12
90	186	5
98	98	23
161	162	6
59	59	30
50	50	10
167	174	2
151	173	2
155	155	17
242	242	22
145	145	6
44	45	11
84	90	1
212	212	29
110	162	2
169	170	9
104	104	3
230	231	5
83	83	5
166	166	14
188	212	2
170	170	10
92	92	15
1	1	6
18	19	2
11	11	16
235	236	2
46	90	1
18	18	20
67	67	23
55	55	23
14	15	5
208	209	7
44	44	10
168	168	30
14	14	5
82	82	17
111	117	4
184	184	22
105	106	4
238	242	1
211	211	22
84	84	9
30	30	19
103	109	1
97	97	8
174	174	5
99	100	5
21	22	1
7	42	3
171	172	5
213	220	1
96	97	8
180	180	18
60	60	22
234	234	7
45	46	5
201	202	5
83	85	4
187	189	2
226	233	2
179	180	6
209	209	13
224	224	10
232	232	23
227	227	18
85	86	3
38	38	18
181	181	22
182	185	4
169	182	1
70	159	6
210	243	3
173	173	15
176	176	19
98	99	6
33	33	8
175	212	3
55	93	2
6	7	5
168	169	6
99	108	4
113	114	4
68	69	11
74	74	6
155	161	1
3	165	2
69	79	2
55	56	11
157	158	3
182	183	7
30	31	3
41	67	1
4	4	16
3	3	9
153	165	3
247	247	5
24	25	3
236	237	5
62	63	5
43	45	5
154	154	20
117	118	2
95	95	16
77	77	14
189	189	5
224	225	2
112	231	1
93	93	22
13	13	5
152	152	18
215	216	5
65	72	4
93	200	4
41	41	17
151	151	17
29	29	15
79	80	4
26	26	15
196	196	7
152	153	7
68	68	14
64	69	1
46	46	11
179	201	3
93	98	4
2	9	3
116	117	5
109	199	4
164	186	2
207	207	11
198	201	3
56	58	5
183	183	10
27	27	21
94	94	10
237	237	28
21	24	2
186	186	14
118	118	8
53	54	3
109	206	3
178	178	19
200	204	1
109	109	23
208	208	19
42	42	17
40	40	9
210	211	9
20	21	8
248	248	13
27	151	2
177	198	4
89	89	23
200	225	2
71	73	4
46	47	6
201	221	2
163	164	5
9	9	13
53	55	2
67	87	1
43	43	12
158	158	9
10	10	6
236	241	1
100	100	14
34	34	17
65	66	2
207	208	4
242	243	2
69	69	13
177	177	10
193	210	6
43	51	1
236	243	1
103	103	1
29	32	2
37	37	24
6	6	25
49	77	1
150	150	25
77	79	4
171	175	2
0	0	1
94	95	2
181	182	4
20	20	8
64	65	7
71	71	7
199	200	4
156	157	5
95	118	2
47	83	2
11	12	2
229	231	2
25	25	13
3	22	5
119	119	9
2	2	7
85	94	5
193	249	1
223	247	4
114	115	5
194	194	2
91	91	5
95	179	4
90	90	7
48	155	3
212	214	6
6	8	5
182	182	23
200	201	8
73	73	12
215	215	13
39	40	3
172	172	12
29	30	5
106	106	1
179	181	2
159	160	4
80	81	1
204	207	2
193	238	4
178	215	6
119	120	1
108	110	3
110	160	2
208	210	2
171	190	5
196	197	3
50	59	10
238	239	4
203	203	20
116	118	2
226	226	4
4	176	3
56	56	10
217	246	3
84	91	3
218	219	6
85	115	4
223	223	18
113	115	4
65	65	8
73	74	3
163	186	1
24	43	4
188	189	3
48	48	17
156	156	19
64	89	3
102	102	11
1	224	1
78	79	5
28	51	1
156	162	3
24	26	3
20	22	2
45	234	8
49	58	1
206	207	14
5	65	1
48	51	5
183	197	1
10	172	2
231	232	3
66	80	2
212	213	1
214	215	8
115	118	1
47	47	8
201	215	3
198	215	2
165	165	13
42	43	15
237	241	2
198	198	10
74	75	3
62	62	5
19	93	2
51	52	8
183	200	1
51	116	1
191	192	1
175	178	3
15	94	2
110	111	4
48	49	2
171	171	6
72	119	4
187	188	3
166	185	2
81	100	2
20	23	2
23	23	12
174	181	3
1	38	3
25	46	1
60	70	4
33	72	2
186	187	5
164	164	15
184	185	2
69	71	1
58	60	1
24	52	2
16	16	1
235	235	9
78	113	1
170	182	2
98	150	4
93	94	1
77	78	16
177	178	5
60	62	2
1	23	3
175	176	10
84	162	2
169	169	15
227	228	2
48	50	1
48	182	2
87	88	3
85	100	6
108	112	5
80	80	10
164	166	4
90	155	1
218	220	1
61	62	4
115	116	4
66	67	7
233	233	10
206	206	2
203	204	8
15	16	1
217	218	3
57	58	5
222	241	2
195	198	1
58	59	8
101	119	2
57	59	1
63	63	19
240	242	2
222	225	2
160	170	3
11	51	2
67	68	9
71	75	1
60	61	3
112	114	3
62	88	1
211	244	1
192	193	3
153	201	4
58	61	2
190	191	6
9	38	1
244	245	2
90	91	7
162	173	1
56	89	2
16	109	3
156	172	1
51	90	2
242	247	3
157	171	1
54	167	3
243	243	7
116	119	2
202	204	2
233	234	6
105	105	7
234	235	5
49	50	5
189	190	6
37	38	7
34	100	2
6	51	2
159	197	1
53	53	6
209	210	5
217	217	3
101	108	1
68	71	1
44	201	3
178	179	3
153	154	6
73	112	1
218	225	1
216	244	1
161	208	2
28	44	1
111	116	3
112	202	2
8	33	2
173	180	3
149	149	1
103	112	4
48	116	1
56	93	1
160	162	1
111	112	3
25	26	2
56	94	2
8	16	2
241	243	3
76	119	2
159	163	1
158	180	1
188	195	2
208	236	1
104	108	2
47	230	4
81	120	1
219	237	3
166	167	2
191	191	4
94	223	1
179	200	1
44	48	4
47	61	1
229	230	6
9	29	2
180	182	1
12	230	1
10	53	2
106	107	3
67	91	2
72	73	2
167	213	1
213	219	2
167	168	3
59	60	7
164	227	1
208	211	3
5	62	1
120	120	6
41	44	4
167	170	2
205	206	2
172	173	5
164	209	2
108	108	4
35	120	2
2	33	2
29	38	1
217	219	3
219	246	4
62	78	1
25	27	1
51	56	1
35	55	1
47	48	6
197	244	1
3	156	1
52	53	4
204	205	5
149	184	2
52	54	1
67	69	4
160	161	4
19	20	2
54	55	8
193	208	2
151	202	2
48	52	3
117	158	1
149	172	1
8	35	1
144	144	1
158	163	1
35	38	1
202	203	2
50	58	1
197	198	4
23	224	1
5	7	2
111	245	3
185	187	3
41	42	2
101	109	3
84	85	4
156	161	1
86	100	1
20	154	1
107	108	6
95	220	2
188	188	4
221	236	1
109	115	1
2	21	1
144	156	1
41	55	2
120	145	2
181	196	4
4	163	1
85	95	2
94	98	2
86	99	3
207	220	1
91	93	3
3	4	1
33	37	2
167	175	1
67	118	1
84	113	3
228	229	2
73	82	1
28	245	1
220	221	2
48	63	1
69	70	2
111	201	3
40	41	1
155	156	1
30	33	3
229	232	2
214	220	2
216	217	2
29	33	1
33	34	1
84	99	1
108	238	1
100	206	2
100	118	3
169	174	2
63	117	1
198	203	1
78	80	1
205	209	2
149	162	1
146	147	3
170	171	2
237	238	3
206	211	1
186	188	1
30	119	2
183	185	2
74	78	1
28	29	4
198	199	1
165	169	2
209	223	3
182	184	2
48	111	1
65	115	1
155	202	1
98	178	2
88	88	3
4	6	2
173	174	4
195	205	1
36	37	2
195	237	1
9	10	3
4	21	1
112	217	1
15	36	4
176	177	2
3	31	2
29	34	2
107	111	1
68	70	2
145	146	1
40	44	1
57	60	3
54	62	1
104	105	2
97	223	1
204	206	1
45	55	1
162	163	2
195	197	2
33	46	1
112	113	1
193	203	1
213	214	3
78	78	4
245	246	2
91	100	3
90	92	2
6	18	2
176	209	1
67	78	1
105	107	1
12	15	2
151	154	1
211	214	2
93	215	1
5	120	1
196	199	2
150	151	1
24	60	2
79	164	2
53	64	2
6	17	1
24	94	1
169	186	1
243	244	4
87	205	1
95	96	1
211	212	1
170	172	1
207	238	1
155	180	1
146	203	1
12	66	2
172	212	1
63	160	1
155	157	1
84	114	3
244	247	2
169	181	1
187	210	1
70	71	2
38	42	1
147	147	1
231	234	1
108	119	1
193	237	1
59	61	1
7	18	2
247	248	1
92	93	1
174	178	1
99	101	1
172	183	2
221	222	2
220	247	1
23	179	1
154	161	1
104	107	1
166	170	1
13	14	1
245	247	1
74	76	1
0	6	1
2	30	1
153	205	1
97	98	1
61	71	1
88	98	1
6	35	1
99	157	1
32	203	2
173	175	2
3	8	1
240	241	1
157	246	1
69	195	1
65	84	1
94	97	1
63	114	1
146	154	1
99	176	2
38	56	1
56	110	1
193	194	1
150	197	2
103	106	1
27	28	1
188	192	1
157	176	1
174	175	1
85	87	1
115	119	1
150	153	1
57	95	1
4	160	1
187	191	1
156	158	1
220	222	1
