64	64	9
134	134	5
43	43	11
94	111	3
61	76	3
103	103	3
39	39	2
127	128	2
114	114	2
33	33	5
45	45	5
18	18	7
30	43	2
36	36	4
10	10	3
33	122	4
112	113	5
61	71	1
4	4	3
102	102	4
57	58	11
110	110	7
93	93	4
94	94	7
26	26	4
72	72	10
65	65	9
129	129	2
77	77	3
70	70	1
47	75	1
85	85	2
113	130	2
120	120	4
12	12	4
63	64	2
106	106	2
70	71	1
35	35	2
90	92	4
46	47	3
10	80	1
81	82	2
34	34	10
92	93	1
131	131	3
62	75	3
125	126	1
91	91	1
42	42	2
24	24	2
68	70	3
5	5	1
74	120	3
100	100	1
101	102	1
24	27	1
86	86	5
3	45	1
68	68	1
90	90	4
126	127	2
73	73	4
45	48	4
62	62	6
48	49	3
11	11	3
47	47	9
32	32	4
111	111	3
17	17	3
6	6	4
23	26	1
74	74	7
60	60	2
117	117	5
95	95	3
116	116	3
63	74	2
79	80	1
37	37	1
78	78	2
127	127	5
130	132	1
86	102	2
34	35	1
124	124	2
37	38	2
106	107	4
74	77	2
47	93	2
109	110	6
73	74	1
62	63	1
7	7	3
63	65	1
112	128	4
115	115	3
51	81	1
121	122	2
79	79	7
97	98	1
107	107	2
68	69	1
75	75	2
76	76	5
8	10	3
131	133	3
67	67	1
113	114	3
33	34	2
62	72	3
25	26	5
85	86	5
73	75	1
121	121	1
128	129	4
82	83	2
30	30	4
89	103	1
2	2	3
128	128	1
68	72	1
36	42	2
132	132	3
75	76	2
83	83	3
99	99	1
104	123	1
34	41	4
13	13	1
61	61	2
96	97	5
99	105	1
93	94	2
4	5	1
80	82	1
29	60	2
126	131	3
105	105	3
9	64	1
83	85	1
100	102	1
43	44	2
40	40	1
12	13	2
119	119	2
10	26	2
71	71	3
46	94	1
57	57	3
20	20	1
81	81	1
128	131	1
16	72	1
103	106	3
15	16	1
32	33	1
125	131	2
63	66	1
83	84	1
88	93	1
111	118	1
14	22	2
55	81	1
66	67	3
82	102	2
123	123	3
131	132	1
89	89	4
89	93	2
104	122	1
27	27	1
51	56	1
63	76	1
47	48	2
27	35	1
33	75	2
29	30	1
39	41	1
77	78	1
98	98	2
80	81	2
109	109	1
10	14	1
8	9	1
112	112	2
45	46	1
94	116	3
107	109	1
111	112	1
88	117	1
87	88	1
101	101	1
97	99	2
71	72	1
21	60	1
55	56	1
43	77	1
133	133	1
35	36	2
48	48	1
26	27	1
72	73	1
38	38	1
