127	146	5
41	41	14
96	96	14
42	42	8
135	135	5
107	108	7
21	22	9
47	47	10
27	27	9
105	139	1
82	93	2
11	17	6
16	20	6
101	102	5
16	16	4
67	67	16
126	138	1
28	28	6
26	110	7
116	116	5
13	16	6
131	134	6
21	50	4
106	106	10
148	150	5
26	27	3
32	32	14
84	93	2
73	73	12
30	55	2
27	77	5
54	57	2
149	149	9
82	82	7
50	50	18
141	141	15
113	140	1
63	63	5
62	62	12
81	82	8
14	14	10
14	120	1
4	4	6
52	69	3
120	122	5
148	148	3
117	117	9
13	14	3
111	112	2
64	64	6
11	12	3
19	20	4
35	37	4
80	80	7
20	20	5
124	124	6
46	46	7
84	86	8
55	56	6
117	118	2
142	142	14
35	36	3
18	18	16
107	107	10
12	12	12
53	53	14
22	22	8
17	17	1
71	71	9
98	119	1
81	81	8
131	132	2
95	104	4
45	45	5
15	15	12
74	74	6
24	24	10
13	13	4
92	93	3
83	121	1
116	117	5
144	144	8
27	29	5
98	99	3
109	109	11
48	48	2
95	95	7
83	125	1
99	105	3
56	56	1
115	115	7
56	57	11
11	15	7
152	152	5
7	7	12
83	93	2
70	70	11
110	110	3
28	30	2
12	112	4
138	148	6
128	138	3
66	67	2
8	103	3
113	139	3
109	111	6
84	84	6
76	76	7
132	132	3
10	12	1
140	140	3
29	52	7
38	38	7
11	11	11
57	57	13
97	97	6
65	66	7
79	82	4
18	19	1
147	147	2
136	136	7
21	23	6
6	25	7
40	40	6
3	6	3
80	102	3
125	125	3
5	9	2
120	124	4
96	106	3
49	49	7
134	134	4
74	93	2
118	118	8
89	93	2
68	77	1
115	142	1
44	44	10
5	6	3
43	43	11
65	65	10
127	138	3
87	87	7
76	92	5
66	66	7
101	101	2
85	85	8
12	14	1
95	97	3
112	112	4
121	122	1
78	80	2
31	31	10
143	143	13
86	94	1
80	85	2
97	98	9
93	109	1
25	76	1
38	39	4
37	37	6
37	73	1
83	114	1
87	125	1
5	7	7
46	47	5
113	113	8
65	67	3
50	55	1
150	152	4
6	7	8
83	84	7
20	21	4
131	131	5
127	141	1
137	137	5
81	98	3
48	70	1
39	39	5
103	122	3
78	78	3
76	82	2
142	144	4
122	127	2
75	114	5
133	149	4
125	137	1
53	67	1
100	102	5
80	81	5
83	83	6
97	99	4
123	136	1
86	86	3
34	35	4
110	112	3
27	28	3
128	139	1
133	133	6
132	135	2
69	73	3
29	63	3
135	138	2
87	121	3
119	125	1
141	148	6
83	85	4
51	51	7
127	127	2
130	130	4
23	23	8
32	78	3
34	34	13
52	63	3
138	138	7
126	126	8
77	77	12
99	99	7
29	43	3
12	37	1
87	112	2
2	2	3
9	9	7
67	71	6
20	22	3
28	29	5
26	30	2
44	46	4
90	90	6
58	58	2
36	37	1
103	139	1
35	35	4
145	145	3
69	69	8
95	96	4
86	97	4
124	137	3
79	79	6
84	125	1
8	9	3
7	8	4
41	48	5
103	104	1
51	65	3
102	109	1
131	133	1
29	30	4
111	114	4
78	85	1
53	54	8
112	142	2
31	44	4
141	147	4
123	137	3
10	13	6
144	146	1
100	100	3
12	13	3
71	74	1
25	75	1
121	125	5
71	75	1
37	68	3
19	19	6
93	96	5
7	9	2
3	122	3
6	6	6
76	78	1
83	86	1
136	137	2
51	69	3
144	145	2
24	48	2
29	29	4
97	104	1
43	44	1
41	42	5
79	97	1
33	33	8
109	110	1
67	70	1
5	5	8
136	139	2
57	58	2
113	114	5
147	148	4
72	72	8
25	27	3
62	63	4
120	125	6
72	73	4
102	103	2
151	151	3
146	146	3
20	50	2
79	81	3
53	55	2
26	26	3
29	41	2
93	94	2
122	122	2
57	66	1
142	147	1
74	75	1
107	109	1
38	56	4
99	100	1
14	15	1
87	114	1
122	123	1
2	3	4
70	118	3
120	120	5
35	75	1
110	114	1
121	124	1
30	30	8
94	98	4
22	23	5
122	132	4
16	19	4
100	101	3
64	65	2
146	147	2
105	105	4
25	25	7
36	36	8
92	92	4
98	98	7
6	10	2
88	88	3
54	58	1
38	57	1
68	68	4
69	70	1
105	136	2
104	136	3
50	51	2
3	3	5
61	61	3
141	145	4
4	5	5
126	135	1
119	119	1
81	85	1
32	57	1
44	53	1
94	94	2
21	51	1
80	82	1
102	102	4
67	73	1
10	10	3
81	97	1
31	34	3
76	98	2
4	6	1
51	52	1
123	128	1
9	130	1
78	103	1
106	108	1
136	138	2
55	57	1
75	93	1
106	136	2
29	54	1
126	131	2
30	53	3
3	104	4
86	95	4
93	93	2
4	15	1
110	111	1
21	21	3
32	33	4
43	54	1
104	104	2
154	154	4
34	55	1
124	128	3
8	8	4
129	129	2
10	133	3
22	25	3
54	54	6
73	74	1
112	141	1
123	123	2
140	141	2
30	112	4
128	131	1
29	42	2
132	134	4
75	85	1
56	119	1
67	68	2
139	143	1
82	84	2
69	71	1
72	116	1
153	153	3
104	130	2
77	78	2
55	55	4
107	154	1
76	81	2
72	74	3
109	113	1
150	150	2
75	95	1
42	51	2
104	106	2
83	87	2
65	70	1
75	147	2
82	92	3
111	111	2
123	127	2
33	34	2
81	86	1
99	108	2
129	144	1
4	10	3
93	111	2
120	133	4
34	38	1
126	127	2
139	139	1
85	104	2
122	131	1
104	127	2
106	107	2
89	109	1
68	71	2
140	142	1
61	63	1
105	148	2
73	75	3
77	92	1
97	115	3
37	38	3
103	130	2
126	137	1
81	95	1
138	145	2
87	103	2
10	11	2
56	62	1
142	143	1
39	40	2
142	148	1
120	123	1
96	103	1
107	115	1
53	70	1
87	132	1
27	30	1
3	8	1
120	121	1
45	46	2
82	83	1
65	144	1
51	64	1
70	71	1
17	18	1
89	91	2
28	63	1
8	104	1
83	98	1
25	50	1
105	108	2
128	128	2
43	45	1
5	8	1
58	64	1
16	17	1
15	16	1
139	141	1
72	120	1
30	33	1
36	39	1
17	21	1
42	50	1
151	152	2
4	11	1
71	77	1
121	127	1
29	85	1
136	147	1
13	15	1
100	103	1
12	17	1
15	18	1
