80	81	2
28	28	7
82	83	2
81	85	10
39	39	16
77	77	13
129	138	2
43	43	21
26	26	8
130	131	4
71	72	2
152	152	10
107	107	8
75	76	8
53	53	11
154	155	9
29	30	5
18	76	3
109	109	10
26	60	2
55	55	15
105	107	5
23	23	6
121	121	10
27	27	2
13	13	12
70	70	10
101	101	9
16	16	8
72	72	11
138	138	6
86	86	14
89	89	15
105	105	1
27	29	10
62	63	6
21	22	13
155	155	13
78	78	7
129	129	6
187	187	5
104	119	3
159	160	3
31	83	5
106	111	5
82	82	6
90	90	3
124	125	7
115	126	5
45	45	7
145	145	13
71	71	24
32	56	6
99	99	22
48	53	3
31	32	2
107	109	2
108	108	8
20	20	9
131	131	5
79	79	8
111	111	11
132	132	9
114	114	13
18	18	10
62	62	8
93	93	15
116	116	7
63	63	7
43	44	5
100	113	1
88	88	15
41	41	17
141	141	14
152	153	17
106	107	5
74	74	10
126	127	3
110	119	5
163	163	15
160	160	4
140	142	2
124	129	3
23	24	5
19	19	6
11	11	7
137	137	2
73	73	11
37	38	4
120	120	10
133	133	6
27	28	4
139	139	8
114	115	5
34	34	10
135	135	8
160	161	5
24	24	7
59	59	7
118	119	5
5	5	5
149	149	12
16	17	7
68	68	11
30	32	7
134	134	6
17	17	11
47	48	5
64	64	11
84	84	9
102	102	15
72	73	5
21	61	2
81	81	11
3	3	7
29	29	12
113	114	4
142	142	9
54	54	4
188	188	7
32	32	5
92	92	11
46	56	2
132	133	3
70	85	3
156	156	7
13	15	5
95	95	5
96	96	2
135	136	9
74	75	1
6	55	5
151	151	11
113	113	6
104	124	6
118	118	13
85	85	26
146	167	4
164	164	12
172	172	4
127	131	2
67	67	12
56	56	19
134	135	6
44	81	2
142	143	7
71	73	3
75	119	1
44	45	7
79	80	3
41	67	7
146	146	10
178	178	7
2	2	6
158	158	10
189	189	6
57	57	4
139	140	3
162	163	3
13	14	3
100	100	10
18	20	4
98	98	10
108	111	1
156	162	4
30	38	2
153	153	3
133	136	3
95	96	3
130	130	15
176	176	3
136	136	4
28	37	3
83	84	5
43	86	2
154	154	8
127	130	1
155	163	2
107	137	1
61	61	8
110	110	13
134	136	4
101	102	8
58	58	4
38	38	2
161	161	8
46	69	5
99	104	4
148	149	4
72	117	3
29	32	3
167	167	3
100	107	5
35	84	2
25	25	7
75	75	6
116	118	4
107	108	3
112	112	4
162	162	8
96	97	3
150	151	2
117	117	5
87	87	6
35	35	10
84	91	4
98	99	1
104	104	10
35	36	3
144	145	2
144	144	7
60	64	1
22	24	2
157	157	2
46	46	10
39	40	3
179	190	2
109	110	6
108	110	4
161	162	3
152	164	1
55	56	2
125	127	6
36	83	1
34	37	2
83	88	1
115	115	7
181	182	2
151	152	2
104	108	1
56	57	4
15	15	2
39	77	3
94	94	17
147	147	14
141	142	2
103	103	4
97	98	7
139	175	2
66	66	4
94	113	4
124	124	3
119	119	3
150	150	16
64	66	2
26	27	6
146	155	5
46	58	1
80	82	5
3	4	5
42	42	5
125	126	11
60	60	1
77	84	4
52	53	7
188	189	6
99	100	11
18	19	4
44	44	7
71	117	1
48	48	9
101	122	2
102	140	4
186	187	4
25	29	3
91	123	3
143	153	5
105	106	4
123	123	6
127	127	7
145	146	8
171	171	5
143	143	7
73	74	2
83	83	10
158	162	2
14	14	3
45	46	10
31	31	5
94	98	3
183	184	2
73	83	3
107	111	3
125	125	2
76	76	2
156	158	4
159	159	6
172	173	2
4	4	2
26	38	1
40	40	9
179	180	2
115	116	1
46	59	3
156	186	1
175	175	3
39	56	2
26	62	3
4	7	1
65	66	4
7	87	1
144	146	2
12	12	5
136	147	2
114	127	2
95	108	2
77	142	2
136	138	1
22	23	5
15	16	2
57	58	3
130	132	6
67	68	3
82	108	2
66	67	3
190	190	8
166	167	1
52	54	3
140	140	3
128	128	5
54	56	4
33	84	1
47	47	6
91	91	3
97	97	1
21	21	2
142	174	2
148	148	4
122	122	5
52	87	1
49	53	1
180	180	8
187	188	4
147	149	3
66	78	1
61	63	1
133	148	1
153	166	5
54	55	4
81	84	1
92	93	7
166	168	1
4	5	2
47	79	3
0	0	4
84	85	3
44	71	3
103	141	1
83	85	2
8	8	3
77	134	2
30	30	3
136	137	1
70	71	2
119	121	1
117	129	1
33	33	3
135	138	2
73	76	2
65	68	2
182	183	2
20	22	1
106	106	6
184	184	1
79	81	3
12	15	3
101	103	4
25	26	2
80	133	3
173	173	3
6	6	5
94	96	2
92	94	4
181	181	3
36	37	2
149	150	1
133	135	3
40	48	1
38	39	2
137	147	1
7	7	6
58	59	1
85	86	4
155	156	2
112	113	1
8	24	1
92	113	3
123	124	1
169	169	1
106	115	1
91	92	3
22	25	1
90	91	1
145	148	2
22	22	2
95	104	1
170	170	4
42	45	1
168	168	2
65	65	2
41	42	2
72	78	4
55	57	1
69	72	2
59	63	2
30	37	1
42	44	1
93	94	3
27	30	2
6	139	1
144	148	2
126	126	5
182	182	1
76	118	6
100	105	1
37	37	3
169	172	2
155	162	1
55	68	2
111	112	4
115	125	2
84	86	5
110	111	2
87	145	1
69	69	2
174	175	3
46	47	1
169	182	1
30	35	3
1	1	1
7	15	1
123	129	1
17	18	1
71	78	1
63	64	2
168	169	2
52	52	1
34	36	1
145	155	2
140	141	1
153	164	3
115	119	3
70	81	1
109	111	1
11	28	1
21	23	1
92	104	1
29	31	1
26	31	1
37	82	1
46	81	1
165	165	2
119	120	1
5	6	2
126	128	1
156	157	4
94	95	2
69	78	1
150	157	1
82	131	2
9	23	1
44	90	1
166	166	1
80	80	2
124	126	1
131	132	1
59	62	1
83	96	1
153	154	2
127	141	1
53	96	1
101	121	1
69	70	1
147	148	1
28	30	1
10	26	1
148	151	1
91	95	1
78	79	1
139	176	2
133	139	1
91	93	1
106	110	1
127	144	1
