20	20	10
115	117	6
1	2	6
47	49	12
120	120	9
54	54	22
85	86	3
46	46	19
75	75	8
91	91	13
30	30	5
64	114	3
94	94	27
23	24	1
13	30	2
73	73	13
112	112	8
133	133	9
94	95	3
58	58	11
23	34	3
104	105	6
5	5	28
14	14	6
45	45	12
93	93	13
95	95	4
119	119	10
50	51	5
80	81	12
88	88	7
83	83	9
5	6	14
96	97	6
8	9	3
97	97	12
127	127	5
131	131	14
14	15	2
52	52	6
48	48	14
100	100	11
68	75	4
10	10	12
21	21	11
122	123	2
41	43	9
1	1	13
126	126	4
114	114	10
45	46	4
106	106	6
100	101	14
9	10	1
34	77	4
72	73	4
102	103	2
7	7	8
98	108	3
38	38	9
49	49	12
80	88	1
118	119	9
67	78	3
49	69	2
122	122	8
64	64	6
96	96	11
101	103	5
22	22	14
121	121	5
12	12	13
25	25	14
89	89	12
70	107	4
109	109	7
86	87	1
0	1	5
72	90	1
18	25	3
105	112	1
71	71	19
93	95	2
60	60	6
69	69	14
63	63	13
64	78	3
68	68	8
132	132	5
102	102	7
4	4	12
67	67	10
92	92	15
2	2	4
72	72	11
101	101	7
76	76	13
98	98	9
107	107	6
128	128	6
27	27	7
57	57	14
11	11	15
8	8	4
102	107	2
129	130	12
74	76	2
44	44	13
90	91	3
100	108	1
112	125	2
44	118	1
109	110	3
74	74	5
71	76	5
78	79	2
83	86	4
104	104	7
109	112	1
19	19	17
110	111	3
115	115	8
31	32	3
42	42	13
54	68	3
55	55	10
65	65	11
115	128	2
18	22	3
56	56	12
51	51	6
47	47	10
69	70	3
43	43	18
49	56	2
104	121	6
81	81	5
28	29	3
39	39	20
108	109	4
90	90	8
88	115	3
106	109	3
46	76	3
124	125	3
66	78	2
0	3	1
116	128	4
13	14	3
101	113	5
19	20	4
82	118	2
82	82	2
130	130	7
55	82	1
52	53	2
51	52	2
67	68	4
28	38	4
113	113	9
53	53	15
18	18	6
51	68	3
66	67	3
19	31	1
3	3	5
24	24	14
76	120	5
116	117	7
70	70	9
113	125	2
59	60	4
99	99	16
114	115	5
73	77	2
41	42	6
85	85	4
118	118	14
59	59	4
101	112	3
113	126	3
58	59	4
16	18	2
130	131	2
125	125	1
71	86	4
127	128	9
124	124	12
95	96	2
123	123	1
108	128	2
24	25	5
79	82	2
107	108	5
13	16	3
15	16	3
77	78	4
25	26	4
40	81	2
104	109	3
98	131	2
111	111	9
44	120	2
84	85	1
15	18	3
85	96	5
64	65	4
25	27	4
26	27	2
55	56	3
11	12	3
28	30	4
50	50	11
79	79	4
113	118	1
40	40	14
80	80	2
63	64	2
17	17	5
28	31	6
116	116	5
21	23	1
5	12	2
25	80	1
56	59	1
60	61	2
61	127	1
44	72	9
28	28	4
110	110	4
61	61	12
60	67	1
31	31	5
129	129	7
111	130	1
45	74	2
13	13	2
49	52	3
79	80	2
116	130	2
0	70	1
25	32	2
55	127	3
67	75	2
120	121	3
23	23	4
4	8	3
65	75	1
84	84	9
18	21	3
21	22	4
33	33	1
83	84	1
80	89	1
43	44	4
111	124	2
52	96	4
57	69	1
29	29	2
16	24	2
126	128	1
128	129	7
38	39	4
70	86	1
86	88	2
55	61	1
68	110	3
115	129	3
0	0	8
46	47	4
86	86	3
117	117	7
77	77	5
41	41	7
15	15	3
68	69	3
6	6	2
76	77	2
17	21	1
103	103	5
11	13	1
49	50	2
126	127	4
47	111	1
78	80	4
99	100	5
46	54	2
87	88	2
7	12	1
47	61	2
93	122	1
48	61	2
56	58	3
44	45	2
113	117	4
125	126	1
87	87	3
51	96	1
98	99	2
4	5	5
56	109	1
26	26	4
112	120	2
71	72	2
82	129	1
10	57	2
80	82	1
102	126	1
32	32	1
102	105	1
100	113	2
17	18	1
105	105	3
40	73	2
55	66	1
24	79	1
30	31	1
82	85	1
22	26	1
103	117	1
54	56	3
89	96	1
7	57	1
99	101	2
57	58	2
79	130	1
116	118	1
97	126	1
19	26	2
60	73	2
72	85	1
34	73	1
108	126	1
77	83	1
98	114	2
16	17	2
47	77	1
11	77	1
9	9	1
10	29	1
54	82	2
62	116	2
65	66	1
103	104	1
25	29	1
125	129	2
74	79	1
64	76	1
22	23	1
54	67	1
18	19	2
125	127	2
47	128	1
34	41	1
50	69	1
46	55	1
76	83	1
79	86	1
10	28	1
53	112	1
66	75	1
19	32	1
14	30	1
21	24	1
71	125	1
60	62	1
108	108	1
59	126	1
6	8	1
48	64	1
78	78	1
34	40	1
65	68	2
14	16	1
101	126	1
48	49	1
126	129	1
63	68	1
5	7	1
105	121	1
66	66	1
124	133	1
