104	104	10
3	3	4
62	70	2
142	142	10
20	20	9
58	58	10
41	53	2
138	138	9
131	131	14
48	54	1
124	131	4
136	138	9
68	70	3
114	115	4
22	22	7
136	136	28
120	120	11
94	94	9
63	64	4
83	83	7
95	95	15
125	125	9
123	131	3
126	126	14
59	61	2
118	128	3
117	119	4
32	87	5
144	144	10
38	38	16
0	21	7
91	91	3
11	35	6
92	92	12
97	97	6
78	79	4
125	136	3
105	109	2
104	111	4
49	49	7
66	66	11
10	10	8
70	70	12
80	80	12
28	28	4
17	17	15
72	72	4
98	103	1
19	19	10
122	123	16
70	72	3
11	11	8
121	121	13
87	87	12
133	142	3
133	133	12
81	81	3
77	79	1
70	71	5
34	35	5
141	141	8
77	77	4
9	98	3
123	123	9
15	16	4
140	141	2
93	95	1
88	131	2
134	135	9
21	30	2
13	13	10
16	16	8
56	56	7
117	118	5
135	135	11
80	81	3
115	115	4
113	133	1
29	29	9
40	41	2
14	14	4
143	143	4
112	113	10
55	55	13
42	89	2
21	21	7
109	110	9
133	134	4
74	81	2
118	118	14
54	76	6
64	64	5
1	1	6
62	68	3
101	103	1
88	89	1
124	125	9
38	56	2
93	94	9
101	101	15
115	120	5
124	124	6
37	37	21
135	136	5
77	125	3
62	62	4
65	65	5
89	95	2
36	36	13
107	107	4
69	85	1
93	107	10
64	87	3
2	43	4
79	79	10
52	53	3
118	120	2
32	86	1
25	48	2
23	23	10
130	130	9
81	82	2
86	86	4
69	76	1
61	70	1
125	127	1
135	138	1
60	61	1
141	142	9
9	10	5
90	91	7
82	82	3
132	140	1
47	47	5
104	105	4
68	68	9
67	68	2
100	100	8
39	40	3
32	32	11
9	9	7
134	134	7
59	59	6
91	104	2
15	15	9
138	139	3
5	47	4
131	132	3
119	133	4
84	84	5
103	103	11
52	52	4
119	119	6
96	108	3
121	143	2
95	96	1
50	51	2
83	85	1
123	124	3
12	72	6
64	65	2
63	69	4
128	128	11
1	31	1
57	78	1
100	101	6
96	96	16
4	64	3
86	117	2
107	108	1
27	27	3
120	125	1
112	137	2
53	53	4
81	131	4
91	92	1
12	17	1
59	60	3
115	126	1
31	32	4
73	73	9
90	90	6
12	18	1
76	77	1
32	33	1
64	73	1
39	39	3
103	122	2
124	130	3
126	135	1
33	33	2
132	139	2
119	120	3
122	122	8
115	119	1
24	24	4
26	26	3
105	105	12
107	109	4
61	61	2
63	70	1
80	87	1
57	58	4
48	48	4
119	136	1
97	121	1
61	62	5
126	136	3
108	109	1
36	37	1
106	106	2
111	139	2
104	109	5
54	54	6
77	81	2
21	36	3
88	88	2
73	76	3
99	100	6
72	75	1
30	37	2
142	143	2
117	117	9
119	125	3
122	141	4
89	90	6
79	87	2
67	67	7
129	129	10
61	68	1
13	34	2
140	140	5
71	71	10
11	109	6
62	102	3
101	102	3
12	12	3
74	75	3
132	132	11
56	58	2
94	95	1
66	70	2
93	93	13
63	63	5
143	144	4
12	15	4
75	76	3
61	67	1
5	34	2
4	78	1
6	6	11
43	43	7
64	102	4
125	126	2
127	129	1
31	34	1
122	131	3
75	79	2
83	87	4
94	124	1
99	101	2
62	63	2
98	98	7
139	139	3
90	106	1
105	113	2
121	132	1
119	124	2
145	146	4
4	47	1
113	113	2
116	116	4
111	111	6
78	91	2
43	51	3
82	83	3
18	19	1
3	47	2
13	20	4
92	132	1
117	120	2
126	127	1
35	35	5
127	139	1
31	83	2
125	135	1
13	43	1
131	134	5
42	43	1
71	74	3
111	136	2
58	59	4
137	137	5
77	78	5
57	57	6
28	29	3
119	123	2
60	60	5
0	0	1
110	133	3
76	89	2
114	116	3
112	112	5
127	127	4
98	117	2
127	128	5
109	109	3
75	75	5
112	139	1
102	102	8
40	40	6
54	77	1
1	2	4
5	5	1
116	117	4
85	105	2
108	108	3
108	111	3
81	96	2
120	121	6
5	35	3
2	36	1
112	114	2
63	104	2
62	103	2
131	145	1
69	69	8
4	4	1
25	25	3
104	121	2
75	87	2
85	92	2
14	55	6
18	18	2
135	142	1
14	16	1
117	124	1
73	74	2
127	130	6
113	114	5
100	116	3
123	125	1
9	97	1
3	76	1
42	42	2
30	30	5
66	67	2
118	126	1
6	131	2
41	41	3
120	142	1
3	93	1
51	51	2
31	31	1
64	105	2
17	52	1
118	119	6
53	54	5
132	137	2
85	95	3
115	116	2
51	87	2
105	112	1
89	89	1
56	65	3
9	20	1
67	78	1
114	117	1
10	37	1
13	35	1
67	70	3
30	31	1
13	36	1
52	57	2
142	144	2
3	84	1
98	99	3
118	129	2
50	50	2
13	37	2
24	31	1
146	146	1
117	127	3
63	73	3
145	145	4
14	62	1
38	39	2
137	138	2
114	114	3
112	120	1
3	79	2
76	76	1
92	94	1
119	128	4
4	76	1
65	67	1
11	21	1
87	88	1
102	103	2
82	105	1
75	83	2
24	27	1
8	8	5
82	85	1
71	72	2
118	133	1
132	134	3
27	30	2
79	82	1
3	83	3
37	38	4
130	131	1
23	30	1
2	85	1
5	91	1
96	107	3
120	124	2
101	128	1
122	124	1
78	78	2
14	71	2
71	76	1
56	57	2
93	132	2
39	41	1
96	109	1
9	36	3
5	87	2
20	36	3
26	40	1
88	98	1
13	55	1
71	99	2
13	15	3
113	115	1
74	87	2
105	106	1
111	112	1
37	39	3
126	134	2
13	14	2
64	88	2
133	139	1
34	56	1
27	28	1
65	68	2
58	67	1
5	6	2
66	78	1
21	24	3
15	72	3
80	104	3
58	61	1
128	130	1
18	52	1
110	110	1
126	132	1
82	87	1
116	118	1
52	88	1
69	70	1
128	129	1
13	71	1
23	42	1
48	49	1
87	132	1
68	69	1
99	113	1
136	139	2
135	137	1
64	74	1
102	125	2
113	118	1
76	78	1
127	137	1
8	122	1
89	97	1
98	105	2
4	36	1
105	107	1
134	143	1
88	104	1
85	85	3
67	130	1
127	135	1
135	143	1
62	101	1
10	16	1
32	62	1
