15	15	4
41	41	5
133	133	10
16	16	5
27	30	5
95	114	6
126	126	4
71	73	1
102	105	1
43	43	3
119	145	3
33	33	8
140	140	3
81	86	5
75	97	1
12	12	6
33	36	2
82	82	9
113	114	7
94	99	1
112	112	5
134	138	3
40	40	5
110	136	3
69	74	5
32	33	6
139	139	5
92	95	3
75	75	2
4	93	3
12	29	5
126	146	2
100	114	3
143	143	9
106	106	7
20	20	10
26	27	1
44	44	8
30	34	1
7	7	5
65	65	1
136	136	2
121	121	4
152	153	3
46	46	6
7	22	1
73	74	3
34	34	4
63	63	3
4	4	1
45	45	6
3	3	6
34	78	1
14	15	4
95	150	1
112	113	2
120	144	3
10	10	10
61	61	6
21	22	5
117	117	2
35	58	7
28	28	8
45	67	1
87	87	3
105	142	3
64	85	2
18	72	6
23	23	2
27	27	3
132	132	7
30	38	6
66	77	2
8	8	8
116	122	3
42	42	15
140	143	1
101	105	2
25	41	4
10	13	6
66	66	2
76	80	2
53	68	5
122	145	2
5	82	2
75	78	4
104	108	1
124	124	1
39	39	7
109	109	6
49	49	4
13	13	1
47	54	1
70	70	5
19	19	11
95	96	2
27	42	1
125	127	4
129	129	2
128	128	4
141	141	2
78	123	4
27	29	4
134	137	1
98	154	1
95	95	3
5	5	7
38	39	1
77	80	1
64	81	1
24	24	6
130	131	1
12	76	3
36	36	3
36	37	4
22	22	6
134	134	2
106	108	2
107	107	9
4	5	5
17	17	8
5	6	4
32	35	1
99	99	4
20	21	3
30	30	10
26	30	5
146	146	3
50	54	4
8	83	1
102	110	2
81	81	3
93	93	7
64	148	3
54	149	6
99	113	2
30	31	1
47	48	2
76	77	4
6	6	5
97	99	3
103	103	2
105	108	1
32	32	5
21	21	1
105	109	1
55	56	1
25	52	1
142	142	1
51	51	5
153	153	2
5	85	1
121	122	1
25	43	5
28	31	1
141	142	4
98	99	2
31	31	2
5	7	2
3	6	1
48	48	2
101	142	3
47	47	4
29	34	1
28	32	1
4	14	1
57	57	4
85	85	3
152	152	4
30	43	1
71	71	1
139	148	2
97	152	1
74	75	1
110	110	1
122	122	1
102	144	3
10	26	1
92	92	2
4	11	3
10	11	3
62	62	1
14	14	3
89	89	1
11	11	4
16	69	3
25	46	3
29	61	2
78	78	2
9	9	2
35	35	2
104	104	2
77	77	4
123	139	1
102	102	1
3	25	1
110	124	1
89	118	1
97	97	3
37	47	1
131	150	1
56	56	4
68	68	1
147	148	1
69	69	2
41	42	2
64	146	1
139	145	1
45	51	1
125	145	2
48	49	3
111	115	2
23	46	1
22	23	1
34	35	2
45	47	1
144	144	6
55	57	4
56	85	2
123	126	1
13	14	3
25	26	1
50	50	5
19	71	1
55	55	2
29	29	2
94	147	1
32	51	1
148	148	1
12	16	2
94	94	1
49	57	1
26	26	1
76	76	1
49	54	1
88	88	1
69	71	1
54	69	1
84	92	2
102	103	1
80	84	1
25	25	1
150	150	2
64	151	3
80	116	1
4	81	1
37	37	1
111	114	2
130	130	1
89	93	1
101	143	1
10	32	2
86	114	2
129	140	1
50	57	3
123	123	1
122	123	1
53	54	1
111	111	1
51	66	1
90	92	1
97	150	1
17	19	1
67	67	1
64	73	1
58	62	2
71	72	1
27	31	1
16	20	1
127	136	1
12	13	1
28	29	1
75	96	1
33	35	1
109	112	1
25	86	1
100	100	1
83	83	1
136	139	1
82	83	1
27	50	1
128	137	1
128	136	1
