112	112	19
51	51	3
114	115	8
118	120	3
66	69	2
12	42	1
31	31	9
37	38	1
132	132	19
25	26	5
121	121	9
81	81	15
69	69	12
60	60	7
51	52	3
145	145	12
74	75	4
130	133	5
108	108	14
139	140	7
40	40	14
108	140	3
24	129	4
139	139	27
118	118	16
22	22	11
54	54	10
47	69	4
141	141	12
64	83	3
120	120	23
122	122	7
14	106	2
1	14	5
73	74	3
79	83	3
8	9	2
77	99	5
58	76	7
99	125	2
138	139	9
102	102	15
140	143	2
120	144	4
19	107	2
47	47	7
122	132	3
100	100	7
13	13	14
41	41	6
89	90	5
119	119	21
101	101	7
129	129	13
126	126	16
19	19	16
26	26	2
53	57	7
109	111	2
124	124	8
124	125	10
136	136	20
94	133	2
97	97	14
68	110	3
89	89	9
128	129	9
111	117	6
76	76	3
120	121	6
77	78	8
41	42	8
56	77	5
84	87	5
116	117	4
94	94	7
91	91	12
110	111	8
77	80	2
58	58	10
66	99	7
92	93	1
105	106	9
78	79	1
86	86	6
9	9	4
107	107	8
109	109	10
28	28	23
12	13	3
54	70	3
144	144	11
34	34	15
99	99	7
115	120	1
48	48	9
135	135	14
17	17	11
87	87	21
134	134	9
47	48	3
128	132	5
83	83	11
10	12	7
8	8	8
55	55	6
32	33	1
132	136	4
11	11	11
21	21	6
16	16	5
106	106	5
69	112	4
112	132	2
56	56	8
90	91	3
75	88	7
1	1	10
114	114	14
131	131	6
125	125	8
142	142	6
64	64	8
85	94	2
130	130	11
4	5	1
89	139	3
118	133	5
46	55	6
16	20	4
99	101	4
80	82	2
58	59	4
79	79	9
66	67	4
36	36	9
143	143	7
53	56	1
50	50	7
114	120	2
67	68	2
114	121	2
94	109	2
84	84	16
108	109	4
49	49	9
51	55	2
89	109	2
133	133	4
122	123	3
137	138	4
136	137	9
94	100	4
52	52	3
16	32	4
33	33	5
90	90	10
24	25	1
28	29	9
72	72	7
13	16	5
68	72	4
113	115	7
61	61	8
110	117	8
140	140	7
14	15	4
119	120	8
5	38	5
82	85	2
117	118	4
9	16	5
23	23	3
4	11	1
22	23	3
42	42	7
14	57	2
94	95	1
48	100	2
68	69	4
85	87	1
137	137	9
27	124	2
97	105	4
23	126	1
127	127	10
93	93	2
6	6	8
94	132	2
24	24	8
63	69	3
128	128	19
57	99	4
5	6	1
92	92	12
21	47	1
29	30	5
86	140	2
80	81	2
117	123	2
29	29	13
121	123	3
66	66	4
20	25	2
58	69	1
127	134	1
73	73	9
76	78	3
114	139	4
91	95	1
108	139	5
143	144	2
20	36	2
78	78	7
57	70	4
63	64	4
104	104	6
88	89	2
125	130	3
138	138	6
103	103	6
101	143	2
35	36	2
122	136	4
73	79	1
136	138	1
30	30	3
96	96	12
115	115	5
90	94	1
27	27	5
89	131	3
122	140	1
4	4	10
68	68	9
123	123	12
71	72	4
90	119	4
82	101	2
59	60	1
2	3	3
77	94	2
132	133	2
130	131	5
82	93	1
37	37	7
60	76	2
25	25	4
57	57	5
85	85	12
51	53	5
23	24	1
91	94	3
134	135	9
106	107	1
20	20	6
43	121	1
43	43	1
0	1	4
82	103	2
116	116	7
17	18	2
115	117	1
19	20	2
125	140	6
52	56	2
59	78	2
51	83	1
3	4	4
111	111	9
105	105	2
83	84	2
96	97	1
39	41	1
93	104	2
18	18	1
50	51	5
88	139	4
110	110	5
121	131	1
71	86	2
53	54	1
58	99	1
87	139	1
62	62	7
38	38	10
59	59	6
50	56	5
39	108	4
39	40	6
117	119	1
133	135	2
98	99	5
20	34	1
61	91	6
79	94	2
14	14	9
109	110	1
113	113	9
0	0	6
77	77	4
57	62	2
26	39	1
110	118	2
88	88	5
74	74	8
36	37	1
85	91	1
48	64	3
65	65	9
54	141	2
111	112	3
123	141	1
115	119	4
13	65	4
25	98	2
19	48	3
67	67	5
129	130	6
91	92	1
137	139	2
106	108	3
95	95	5
81	141	1
10	10	4
32	32	4
16	67	1
96	104	1
70	70	5
75	75	3
18	19	2
25	27	2
102	103	1
35	35	5
84	92	1
120	131	3
15	15	1
65	67	4
103	105	2
69	93	1
3	83	1
19	95	2
68	71	1
118	119	6
53	53	3
104	107	1
83	110	4
101	141	2
83	85	1
77	101	1
81	82	2
114	119	2
82	83	2
60	62	3
118	125	3
19	66	2
136	141	3
10	11	3
77	144	2
3	3	3
62	110	1
19	98	1
62	67	2
80	80	10
33	36	1
104	106	2
27	97	1
113	118	1
97	98	3
12	12	3
28	30	3
56	142	3
71	71	4
76	99	1
87	92	2
27	28	3
5	5	2
39	39	4
24	133	1
118	140	1
74	84	4
79	80	1
141	143	1
84	94	2
0	13	3
105	107	2
115	116	4
30	55	1
126	141	3
118	134	1
20	21	1
129	134	1
86	87	1
91	128	3
31	68	2
36	54	1
64	111	2
2	2	2
140	141	1
69	70	1
63	85	2
35	47	1
63	63	4
82	117	2
13	106	4
78	86	1
33	37	1
25	37	2
127	128	1
98	98	2
72	83	2
77	91	3
40	102	2
10	16	4
48	49	1
68	70	2
83	111	1
51	56	2
66	95	2
75	79	1
80	88	1
90	140	2
30	97	2
41	52	1
62	69	2
63	72	2
145	146	2
66	94	2
126	139	1
113	116	4
97	99	1
89	127	2
2	31	3
64	88	1
88	130	1
115	124	1
71	111	1
1	2	1
31	34	1
88	91	1
80	91	1
34	35	3
101	102	2
12	31	1
72	92	3
49	57	1
70	140	1
47	70	1
20	97	1
126	127	2
33	35	1
20	33	1
111	136	1
130	137	1
78	87	1
63	65	1
123	136	1
107	126	1
124	126	1
75	76	1
134	138	1
59	91	1
26	55	1
21	38	1
90	100	1
92	95	1
70	72	1
92	94	1
117	140	2
141	142	1
91	109	1
10	17	1
125	141	1
56	62	1
1	3	1
97	104	1
117	117	1
6	96	1
77	82	1
33	69	1
79	86	1
110	123	1
2	51	1
95	101	1
136	139	1
