55	55	13
95	95	30
40	40	19
84	84	12
111	111	26
70	70	16
90	91	11
89	91	7
74	84	2
113	113	15
114	114	16
82	82	11
104	105	5
72	73	13
56	57	7
42	42	37
97	98	8
110	110	20
31	31	16
81	98	1
74	74	15
68	68	19
88	90	3
34	35	8
21	21	10
45	46	3
50	52	3
93	94	11
32	75	7
35	36	4
30	30	17
56	56	1
47	47	10
87	87	21
20	22	2
80	81	11
102	102	25
76	77	5
46	46	19
37	37	11
57	89	3
52	52	13
20	50	4
26	27	10
109	110	5
23	112	7
51	51	12
69	69	20
41	41	15
103	103	14
37	38	8
42	43	10
66	66	9
87	88	5
60	60	13
64	66	11
113	114	10
45	45	14
41	65	1
110	111	7
63	64	11
61	61	11
82	84	6
86	93	2
50	50	17
29	37	2
61	62	2
83	83	22
100	111	2
100	101	5
99	99	6
98	99	11
47	48	8
32	34	6
60	65	4
100	100	24
20	113	1
59	59	8
34	34	32
86	86	2
22	27	7
65	66	17
98	98	26
25	25	21
29	29	22
108	108	5
26	29	2
49	49	16
50	73	3
78	81	7
57	69	2
44	45	7
81	81	17
22	22	7
40	53	1
112	113	3
77	79	4
32	32	9
62	66	2
76	78	7
84	89	4
30	31	6
70	71	2
39	39	10
103	111	2
72	72	22
63	65	1
82	83	10
44	44	23
107	110	1
78	79	6
109	109	12
92	92	10
28	28	19
101	104	1
65	65	11
81	87	6
63	63	4
97	97	17
69	70	12
37	68	2
78	78	7
104	106	5
40	41	5
56	63	4
77	78	7
78	89	3
95	96	3
36	37	7
53	53	11
96	96	15
26	26	4
94	95	3
36	78	2
93	93	7
33	33	23
36	36	12
101	102	4
54	63	2
77	77	14
55	56	5
75	84	4
62	63	1
101	101	14
71	71	15
30	35	2
53	57	3
104	107	14
73	73	20
41	42	2
35	35	13
38	38	14
24	25	5
79	80	6
65	67	3
106	106	7
57	57	6
27	28	1
85	103	5
77	81	5
71	72	8
79	82	2
35	37	1
34	65	3
80	80	11
25	73	2
52	86	4
80	99	3
43	43	6
33	39	2
79	81	1
91	93	1
103	105	5
73	74	7
27	27	17
29	30	7
72	74	5
30	73	2
19	19	6
24	36	1
109	111	3
99	108	2
19	29	1
84	85	4
83	84	13
20	20	5
95	97	3
29	59	1
70	72	2
88	88	15
101	111	3
59	64	4
33	86	5
106	107	12
82	85	1
53	55	4
112	112	6
73	76	3
91	91	11
68	69	2
89	89	12
53	54	2
30	33	2
50	51	6
76	76	9
80	84	2
72	91	2
54	59	2
107	112	3
85	87	5
75	75	5
55	57	5
25	31	2
73	75	2
90	90	13
64	65	6
62	62	6
105	106	5
57	61	2
105	107	3
52	53	9
95	104	2
108	112	3
21	53	3
26	28	7
79	79	12
85	85	9
104	104	9
101	103	2
104	109	2
59	95	2
48	49	9
51	60	3
38	39	7
96	98	1
69	71	4
60	62	3
99	102	1
107	107	6
54	88	2
106	108	1
36	68	4
36	67	5
67	67	7
85	86	6
108	109	3
59	60	2
35	68	2
29	35	1
76	84	4
47	49	1
62	68	2
92	94	1
85	90	4
19	22	2
39	72	1
23	23	3
70	89	1
43	44	1
58	58	2
58	59	3
99	100	3
58	98	2
77	87	2
96	97	1
73	92	1
67	69	3
69	74	4
35	57	2
21	22	1
53	60	2
99	101	2
89	90	2
36	39	3
103	104	1
34	36	1
72	75	3
75	76	4
22	23	4
84	94	3
39	40	1
72	108	1
107	108	2
60	66	3
84	100	3
63	67	2
94	94	14
77	91	4
19	31	1
55	68	1
98	112	2
92	93	1
55	64	1
66	68	5
20	112	1
64	64	5
25	27	6
34	38	1
73	91	2
34	56	1
62	64	5
89	92	1
71	73	4
105	105	8
51	52	1
27	29	1
86	87	2
102	103	4
55	63	3
99	113	2
26	65	1
36	38	3
33	60	1
74	75	2
111	112	1
67	68	2
48	50	2
33	80	2
48	48	5
104	108	3
35	56	2
26	52	2
93	105	1
96	110	1
57	58	1
95	109	1
112	114	1
87	89	1
57	59	2
103	107	2
49	52	2
23	24	1
100	103	1
31	55	1
88	89	1
52	54	1
69	75	1
61	74	1
19	21	1
24	24	5
54	61	2
22	55	1
37	39	1
88	96	1
22	26	1
32	35	1
28	29	1
20	114	1
51	53	2
98	108	1
25	41	1
46	47	1
66	69	2
20	25	2
55	58	2
94	104	1
55	66	2
58	61	2
66	67	2
59	62	1
54	58	2
73	100	1
84	87	1
25	26	1
22	25	1
36	73	1
85	105	1
56	59	1
115	115	2
60	98	1
