160	160	24
166	166	21
57	58	4
157	157	8
0	0	12
9	9	15
112	113	8
161	173	4
159	160	11
23	23	26
25	32	4
194	195	8
168	169	3
104	104	13
56	56	12
94	95	5
113	113	6
76	81	2
24	24	13
74	75	3
10	15	2
87	88	4
43	44	10
169	169	11
108	108	23
3	5	3
190	190	12
105	105	13
165	165	13
46	46	27
121	122	7
78	133	1
35	35	13
9	10	14
152	153	10
126	126	16
33	35	2
123	123	12
124	124	12
160	161	4
111	113	3
64	64	19
19	20	2
100	100	8
49	50	15
82	83	2
182	183	13
33	37	5
138	138	6
4	5	13
97	97	8
155	155	13
110	112	3
154	155	5
193	194	9
25	25	9
186	187	5
118	118	20
129	130	1
161	162	3
71	71	12
60	62	1
172	172	14
2	2	23
164	164	10
61	62	3
23	40	1
3	3	11
26	26	18
107	107	20
110	110	7
5	19	1
88	88	6
186	196	3
191	192	10
179	179	17
34	36	1
50	50	13
110	111	6
25	37	2
7	8	10
116	116	13
100	122	2
80	81	3
49	54	1
134	134	6
32	39	5
32	38	2
119	119	20
133	133	20
48	48	11
150	150	13
119	120	9
152	154	6
135	135	17
17	17	20
127	127	11
66	66	7
177	181	1
138	151	3
58	58	28
186	186	13
5	5	6
22	22	5
18	116	5
55	55	8
69	70	6
31	31	8
176	176	9
181	181	15
185	186	19
147	147	11
169	171	11
180	180	12
3	21	5
125	126	8
151	151	14
148	149	6
115	115	6
78	78	8
105	106	4
174	180	3
101	101	14
112	112	5
178	180	8
109	109	4
68	68	17
165	166	5
72	72	7
39	101	4
136	138	4
62	62	19
79	79	11
32	36	5
8	62	1
131	131	18
126	127	8
28	28	5
18	18	17
120	120	12
42	43	5
45	45	1
131	139	1
88	94	2
49	49	16
149	150	6
167	167	8
191	191	9
152	152	11
145	145	9
174	174	14
156	156	17
158	158	13
15	15	16
181	182	5
121	124	2
180	181	13
189	190	5
163	164	5
142	147	5
109	110	4
120	121	12
138	139	1
143	143	8
130	130	5
84	85	6
41	41	12
182	182	25
98	112	4
149	149	9
153	155	16
63	66	5
171	190	2
25	40	9
146	146	9
71	72	4
173	173	17
14	14	14
145	156	4
58	59	6
43	43	9
150	151	7
146	147	3
148	148	13
148	165	3
78	79	5
51	51	5
15	138	2
99	113	6
54	54	12
39	41	2
187	187	21
69	69	8
168	168	11
6	6	2
39	39	13
46	47	7
121	121	6
157	158	12
188	189	3
139	139	16
132	133	4
158	159	11
178	178	14
56	58	1
96	97	4
30	30	15
161	161	9
11	11	6
152	190	3
192	192	15
137	137	10
23	24	1
140	141	3
90	90	7
19	19	7
132	132	7
196	196	10
195	196	14
156	157	4
59	72	1
131	132	1
170	170	13
25	26	11
140	142	2
86	86	6
0	3	6
67	68	3
197	197	14
73	73	7
119	143	4
167	168	8
53	55	3
130	169	2
172	187	1
122	123	4
137	156	2
114	115	1
63	63	10
133	147	4
17	115	4
27	28	4
94	94	5
3	4	11
140	140	11
171	189	4
93	94	4
189	189	27
192	193	4
36	101	4
47	48	3
17	20	3
64	65	8
154	180	3
136	137	10
52	52	18
185	185	15
10	10	13
175	176	3
160	169	1
107	108	5
188	188	17
128	128	12
155	157	2
1	2	2
32	32	5
17	19	8
141	142	10
117	117	10
11	12	4
174	175	7
141	141	12
133	134	2
47	56	3
159	159	3
134	145	5
125	125	15
123	124	3
106	106	7
130	131	8
175	175	8
133	143	1
45	46	7
161	165	1
89	89	5
184	194	4
177	177	11
195	195	8
28	29	6
183	183	8
111	111	5
34	35	9
8	20	2
35	36	8
134	142	1
196	197	7
57	57	28
16	16	24
179	190	3
38	38	15
85	85	10
134	159	2
153	153	10
4	4	6
36	36	6
97	120	3
184	184	6
169	170	5
13	13	14
49	152	1
135	136	2
150	160	2
98	98	5
16	18	3
44	44	3
31	32	3
130	132	1
66	68	3
9	23	1
47	71	7
62	63	3
187	190	3
162	163	3
188	194	1
77	78	2
9	25	2
7	7	17
152	181	7
27	27	5
74	77	3
179	181	2
54	55	7
53	53	5
176	178	4
10	12	3
70	71	1
22	26	2
136	136	8
9	11	3
58	66	3
103	104	2
139	140	2
64	66	12
40	40	7
192	195	2
47	47	6
137	153	4
140	144	2
6	21	2
15	23	2
143	144	7
162	162	11
8	8	6
42	44	6
72	73	4
142	142	6
58	98	4
2	19	5
40	41	10
98	99	3
156	161	1
102	102	11
112	120	2
38	69	3
177	190	5
2	27	1
122	125	3
14	15	3
101	107	4
3	24	3
4	124	1
21	22	3
119	183	1
174	195	1
24	38	3
53	78	2
7	38	2
68	115	1
13	14	6
50	56	2
166	172	3
107	109	1
68	69	4
59	59	5
184	187	2
154	154	17
60	60	1
116	117	5
184	186	7
11	13	3
56	57	3
0	1	3
37	38	16
34	34	8
93	93	5
128	129	4
57	108	1
114	118	2
10	63	4
170	189	2
26	27	2
51	53	1
170	172	3
0	2	5
174	194	1
127	128	4
129	131	4
98	109	1
29	29	2
161	164	4
52	53	3
190	191	4
57	70	4
51	54	1
42	42	9
1	3	3
173	175	12
79	80	3
194	194	10
102	103	7
124	125	2
107	121	1
87	87	2
132	134	1
151	152	3
15	42	2
193	193	6
33	36	15
129	129	1
103	103	4
184	185	5
97	98	2
49	52	1
178	190	4
142	143	1
59	70	2
178	179	4
77	77	11
153	154	2
171	171	7
10	14	2
39	40	6
125	160	2
155	156	3
146	148	2
163	163	4
82	82	4
69	115	2
25	122	1
162	177	3
158	160	1
177	182	1
47	55	3
186	188	4
134	140	4
81	82	10
134	135	6
100	109	1
104	106	2
166	167	2
99	99	6
67	67	4
9	22	1
38	70	1
46	48	2
137	139	3
192	194	1
36	79	2
80	82	3
33	33	5
13	55	1
73	74	1
112	133	1
40	42	1
156	158	6
39	73	3
95	96	4
106	107	1
181	183	1
13	53	1
130	176	2
183	188	6
12	12	8
145	146	2
151	169	1
76	76	1
114	147	1
176	187	2
177	178	3
17	18	2
38	39	1
149	157	2
136	181	1
151	165	2
171	181	3
39	105	1
146	159	3
15	17	2
103	108	1
187	188	5
54	72	1
69	71	1
136	153	1
160	177	4
61	61	8
30	31	4
127	129	1
114	114	5
44	56	6
157	159	7
21	68	1
134	143	1
10	124	1
100	101	2
146	158	1
72	119	2
7	25	2
176	177	4
104	105	1
18	24	1
50	51	2
147	148	1
58	69	1
27	30	1
164	170	1
176	179	1
27	31	1
67	69	2
124	126	3
1	26	1
137	152	1
27	29	1
109	111	1
48	50	3
170	186	1
175	178	3
39	72	1
43	45	1
32	33	1
185	194	1
83	83	2
172	173	1
12	13	1
54	59	4
5	7	2
8	38	2
104	107	2
65	65	1
24	34	1
8	24	2
114	116	2
163	166	3
173	176	1
59	62	3
190	194	2
23	42	2
88	89	2
74	74	1
168	170	1
1	1	1
120	122	2
125	127	3
83	85	3
170	179	1
44	47	1
164	165	1
194	196	2
39	65	1
171	175	1
50	55	1
40	63	2
20	21	2
169	173	1
165	167	2
13	124	1
63	64	3
71	105	1
6	8	1
108	109	1
40	43	2
179	180	2
86	87	2
130	170	1
8	9	2
122	122	4
81	83	2
9	62	2
162	164	1
48	49	1
111	112	1
173	174	1
50	57	4
37	37	3
43	56	2
158	161	1
29	30	2
176	188	1
6	26	1
6	7	1
21	21	1
82	84	1
183	184	1
136	155	1
2	3	1
142	149	1
115	151	1
84	84	1
143	147	2
143	145	1
4	21	1
53	56	1
95	97	1
170	171	2
145	147	3
1	18	2
135	139	1
22	23	1
18	19	2
11	128	1
89	90	1
5	8	2
59	66	1
33	42	1
137	155	1
20	20	2
63	188	1
147	157	1
61	107	1
165	171	1
101	103	1
81	81	1
146	157	1
114	117	1
9	37	1
41	42	1
33	122	1
67	72	1
