93	94	5
94	94	23
99	129	2
31	32	17
116	116	7
42	43	4
78	78	6
4	4	20
83	83	12
122	122	9
48	55	3
56	56	12
73	75	5
131	131	21
102	102	8
22	23	12
66	67	13
105	105	18
117	117	16
66	66	12
68	69	12
53	53	31
28	92	4
86	86	8
93	93	16
99	101	1
51	51	13
33	33	9
7	62	3
96	97	6
90	92	6
13	13	15
23	24	10
88	88	16
23	23	21
43	103	3
39	39	11
28	28	21
80	81	4
8	9	1
110	110	32
5	5	36
118	118	21
100	100	13
2	21	7
27	28	15
40	40	21
2	2	16
29	30	7
8	8	18
126	126	12
120	128	3
6	6	7
129	130	6
54	54	21
1	5	5
34	43	5
52	101	6
69	69	19
90	90	8
79	79	12
68	68	21
123	123	18
108	108	5
85	85	22
72	72	8
130	130	15
132	132	8
121	125	1
80	80	14
44	44	20
4	24	1
47	55	4
112	112	14
127	127	30
38	38	18
94	107	1
109	109	19
11	41	4
107	107	19
55	96	7
19	19	18
46	46	20
125	125	20
41	41	14
99	100	15
111	111	19
64	64	18
53	88	1
79	80	10
37	37	1
9	9	9
96	96	13
30	30	12
73	74	7
129	129	12
76	76	33
14	14	20
75	75	13
42	44	5
99	99	12
84	85	4
20	20	5
115	115	13
95	96	2
45	45	11
84	84	10
4	11	3
71	71	23
15	15	17
50	50	34
89	90	1
1	1	13
55	55	24
96	125	4
48	48	11
27	27	15
65	65	13
38	45	2
98	98	11
52	114	10
122	123	4
1	2	5
11	12	13
91	91	5
4	5	5
97	97	10
73	73	12
3	3	16
32	120	3
24	24	16
86	87	6
43	43	17
72	108	1
12	12	30
53	126	3
91	92	3
2	24	5
46	47	6
106	106	13
34	38	2
90	105	4
53	86	3
85	110	2
102	103	20
75	81	1
71	72	3
14	16	2
57	57	20
49	49	26
16	16	8
10	10	21
120	127	2
95	95	15
42	42	10
83	111	4
45	46	6
77	77	2
29	29	20
63	105	3
61	61	17
103	103	10
119	119	12
82	82	22
22	22	13
113	113	10
13	17	6
124	125	5
21	21	17
81	81	3
34	44	3
46	53	4
7	7	12
101	101	6
114	114	11
72	73	2
98	119	3
51	119	4
84	111	2
18	18	22
113	117	2
117	121	3
120	123	1
58	58	17
52	52	21
124	124	14
83	110	1
126	127	14
43	44	4
47	80	3
128	128	11
121	121	4
61	62	2
63	65	1
1	28	2
98	99	1
70	70	10
4	55	2
89	89	12
52	53	8
41	42	6
114	116	12
49	51	6
75	77	1
31	31	9
11	11	13
85	86	3
127	128	8
102	128	3
94	95	6
26	26	8
58	59	5
81	112	1
106	107	4
62	62	7
105	106	4
40	44	4
17	17	5
74	74	4
13	33	1
3	4	4
92	92	5
51	94	2
10	16	3
103	104	5
11	42	2
82	85	3
78	103	2
29	31	3
34	34	6
120	120	6
111	127	1
47	56	2
118	120	2
81	111	4
73	77	4
38	39	1
84	116	3
75	79	2
47	47	11
2	6	4
128	131	2
48	49	6
117	118	4
3	5	6
47	48	3
14	55	2
40	45	2
74	77	1
56	69	2
7	8	6
103	118	5
17	18	5
39	73	1
130	131	4
110	132	1
13	18	5
70	95	2
103	117	1
24	26	1
92	93	1
59	59	10
67	68	3
53	54	3
55	56	4
65	66	3
60	60	3
24	55	1
32	32	2
8	62	1
40	41	2
109	110	1
104	105	1
42	46	1
30	46	3
8	20	4
67	80	2
57	59	2
87	87	1
12	13	1
128	130	6
41	97	2
100	116	1
104	109	2
103	128	2
115	133	1
49	56	1
119	120	5
53	56	2
125	127	3
5	24	8
24	25	1
28	29	3
112	113	3
127	131	1
75	85	2
90	93	1
56	58	1
109	116	2
19	20	4
76	96	1
104	104	6
97	98	4
15	16	3
25	26	2
111	112	1
44	62	3
63	63	7
68	80	2
118	119	1
67	67	7
4	6	1
120	121	2
50	51	6
22	44	4
20	65	1
52	125	1
16	33	3
2	3	2
101	125	3
45	56	1
47	89	1
24	60	3
6	96	1
0	0	7
91	93	2
82	84	1
39	40	3
12	65	1
89	91	3
77	83	1
9	10	1
10	14	1
8	53	2
2	13	2
115	116	3
78	85	4
48	54	2
11	19	2
16	17	2
108	114	1
133	133	9
72	74	2
102	125	1
108	109	1
53	90	1
1	30	1
34	97	3
128	129	1
12	27	2
67	72	1
101	102	2
48	89	1
16	18	1
69	88	2
84	86	1
41	104	1
11	13	1
87	88	3
26	27	1
60	62	2
101	105	1
18	81	1
83	84	3
16	32	2
42	99	1
117	119	3
80	109	1
103	107	2
2	23	1
114	117	3
23	25	1
21	24	1
68	106	1
72	75	1
98	130	1
50	90	1
46	59	1
44	67	2
60	61	1
25	25	2
112	121	1
72	81	2
14	15	1
77	78	2
80	85	1
42	67	2
0	6	2
39	126	1
53	125	1
49	54	1
50	53	3
27	40	1
32	39	1
113	132	2
59	60	2
39	43	2
98	100	1
52	118	1
25	27	1
108	116	1
127	129	1
100	110	1
42	97	1
