134	136	6
10	10	6
2	3	3
137	137	5
75	76	8
131	131	6
114	114	7
127	127	8
134	137	3
124	128	1
35	36	1
134	135	6
23	23	6
107	117	6
32	32	8
138	139	2
19	19	8
24	24	4
131	132	5
98	99	2
35	35	9
74	74	4
13	13	1
5	25	4
1	1	3
112	112	1
33	33	8
97	98	4
91	117	2
118	118	7
71	71	4
109	109	6
133	134	6
17	37	6
123	123	5
7	7	6
116	116	7
125	125	14
130	131	9
101	101	5
119	119	6
5	5	14
105	109	3
107	112	1
128	129	4
95	95	9
115	115	9
132	132	11
6	6	11
12	12	5
25	25	2
122	123	9
139	140	2
105	105	5
111	112	2
92	119	2
83	85	1
88	89	4
79	79	9
33	34	2
138	140	2
136	136	7
19	20	11
138	138	3
75	75	8
104	104	12
114	115	5
111	111	6
14	27	3
132	133	3
121	121	3
21	21	1
122	122	12
107	108	1
14	14	2
117	117	4
108	108	4
108	109	2
22	22	8
76	76	5
91	91	4
0	23	2
22	24	1
130	130	5
73	73	7
8	20	1
128	128	11
126	126	8
79	89	2
121	122	3
82	82	9
2	14	1
129	129	10
8	8	4
2	2	3
80	80	3
102	115	3
87	87	10
14	15	1
78	118	6
38	38	3
106	109	2
109	112	1
5	22	4
107	107	8
104	105	5
7	38	2
19	123	2
2	4	2
3	3	7
101	125	1
15	15	2
110	110	7
16	16	6
112	113	4
27	28	3
93	93	1
1	24	5
17	33	2
1	2	3
22	28	2
5	6	5
118	119	4
115	121	1
12	27	4
96	96	2
36	36	4
135	140	1
9	9	4
77	77	8
135	138	2
28	28	4
123	124	1
9	10	3
103	118	3
0	21	2
7	14	1
15	71	1
104	118	3
99	100	3
77	78	3
34	34	5
134	134	2
93	98	8
100	100	6
124	125	5
133	133	7
78	81	1
105	113	1
89	90	2
12	13	4
88	88	2
113	113	7
92	92	3
12	30	2
85	85	5
31	31	4
105	106	2
12	15	2
17	17	3
103	103	2
97	97	6
98	98	2
33	36	3
2	111	4
124	124	4
30	31	2
83	83	3
140	140	3
86	117	3
103	104	2
19	21	2
129	130	13
72	72	3
139	139	3
93	113	2
4	4	5
120	120	2
105	108	1
107	118	1
33	97	2
102	102	3
24	26	5
37	37	3
115	119	3
77	87	1
16	19	1
28	32	4
91	94	2
11	12	1
95	97	1
7	9	1
3	19	4
16	36	2
103	109	2
121	123	8
106	115	3
115	122	5
87	112	1
3	4	5
76	77	4
104	110	1
5	32	3
98	100	2
102	103	2
37	66	1
82	84	1
27	29	4
127	128	1
93	94	4
116	117	1
78	87	4
2	9	1
5	27	2
13	30	2
18	19	3
81	81	3
116	119	1
106	107	2
21	22	1
102	118	1
18	18	2
9	100	1
4	10	1
36	37	4
95	96	1
136	138	1
78	85	1
90	90	3
137	138	2
110	111	1
79	82	2
94	99	3
20	123	1
10	20	2
78	119	2
78	88	1
30	30	2
14	30	1
4	5	1
27	27	1
34	35	2
110	112	1
0	1	1
81	117	1
8	9	1
87	113	2
94	94	1
78	117	2
20	20	2
134	139	1
106	106	1
85	87	1
133	136	1
109	113	1
21	26	1
83	86	3
123	126	1
83	87	1
134	138	1
99	99	5
28	34	1
125	135	1
136	139	1
84	84	2
19	24	1
85	86	1
8	12	1
11	20	1
22	23	1
76	78	1
87	88	1
84	85	1
28	29	1
26	26	1
14	20	1
25	29	1
13	14	1
126	127	1
9	26	1
77	80	1
135	135	1
79	86	1
