51	71	3
51	76	1
77	77	2
84	87	2
52	52	3
61	64	3
79	79	4
36	37	5
51	53	2
33	33	5
41	41	3
27	27	3
67	67	8
25	26	1
85	86	4
39	42	3
82	82	6
45	58	1
48	48	6
77	78	2
87	87	6
78	83	1
76	76	4
23	24	1
59	61	3
88	106	2
25	28	1
101	102	4
30	30	10
65	65	5
32	35	1
31	31	6
83	83	7
104	104	2
25	49	1
40	49	1
44	44	8
51	55	4
33	37	2
31	32	3
95	95	7
84	85	2
53	53	6
89	89	1
46	47	2
34	41	3
55	55	8
57	57	7
43	43	5
22	99	3
45	45	8
62	62	12
92	93	7
80	81	5
29	50	1
83	87	2
99	99	8
97	99	6
89	90	5
96	96	6
33	34	4
61	62	2
25	38	1
25	25	5
98	98	7
94	94	9
85	85	5
49	49	10
105	105	4
69	69	2
84	84	2
34	35	5
35	37	1
40	42	2
36	36	3
75	75	8
91	91	9
93	93	3
66	66	8
45	48	2
60	60	7
68	68	5
100	101	1
73	73	8
32	32	3
51	51	9
37	37	4
98	99	7
46	48	7
54	66	2
75	76	1
92	92	8
60	71	5
27	28	2
82	86	2
54	54	8
50	50	3
43	44	1
48	49	6
74	74	6
57	59	1
88	88	4
103	103	8
26	27	3
29	29	2
90	90	6
81	81	9
35	35	7
22	22	3
40	44	1
92	102	1
21	21	3
86	88	1
25	55	2
31	51	2
83	85	3
40	41	4
65	71	5
86	86	6
72	73	1
70	70	9
91	94	1
20	58	1
83	88	1
24	24	7
79	81	1
97	98	4
43	62	4
23	23	3
62	63	4
45	46	3
78	81	1
94	96	1
53	57	1
26	26	3
66	67	2
32	34	1
71	71	3
42	42	3
30	33	2
56	65	1
38	38	3
24	25	1
58	59	2
80	80	1
91	92	5
77	85	1
81	84	3
100	100	4
54	55	2
85	87	2
87	88	2
60	63	4
38	40	1
56	57	5
95	96	2
31	35	2
61	61	1
102	102	3
79	99	1
78	80	1
65	66	1
34	34	5
59	60	2
25	85	1
55	56	2
50	67	2
97	97	2
78	78	4
62	65	2
68	69	4
56	56	7
28	29	2
47	54	1
43	47	1
64	64	4
101	101	4
68	73	1
49	56	2
28	28	3
63	63	1
86	87	4
35	63	1
106	106	2
47	47	1
78	79	1
69	73	2
33	44	2
78	84	2
79	107	4
20	79	2
53	54	1
59	59	3
41	44	3
40	40	1
51	52	2
43	59	1
33	45	2
76	77	1
26	28	2
46	62	1
28	30	2
21	22	1
38	39	3
32	55	2
46	63	1
87	99	1
52	53	2
90	91	1
35	36	2
53	67	1
58	73	2
61	63	1
87	98	1
51	58	2
22	81	1
72	79	2
41	45	1
34	37	1
66	70	1
20	20	1
66	80	1
45	49	2
89	102	2
43	45	1
93	104	2
52	65	1
94	102	1
39	39	1
71	72	1
64	65	1
92	94	1
26	30	1
27	39	1
56	60	1
82	84	1
42	43	2
79	106	1
65	67	1
24	55	1
78	82	1
83	98	1
