137	139	2
3	3	8
130	130	40
93	93	16
87	87	20
94	94	13
134	134	21
136	137	7
86	86	21
125	125	37
135	135	27
88	88	13
106	106	17
123	123	18
86	87	3
136	136	23
131	131	32
72	82	2
120	122	4
74	74	19
116	116	15
93	94	12
38	38	14
22	23	7
122	122	18
109	109	21
118	118	11
12	12	12
84	87	1
121	121	29
129	129	31
24	26	7
78	79	15
92	92	7
26	26	6
126	126	33
128	128	20
134	135	11
9	9	1
84	84	6
109	119	1
15	15	11
8	8	12
14	14	9
87	88	4
4	4	6
100	100	16
104	104	16
83	83	21
34	34	20
6	7	3
103	104	2
104	121	8
11	25	2
75	79	4
25	25	8
7	7	10
8	13	5
127	127	24
105	105	14
72	72	23
91	91	9
75	76	4
1	1	13
0	0	4
113	113	14
139	139	26
9	11	2
125	127	2
81	81	15
37	37	11
120	123	2
74	83	3
133	133	16
103	103	19
137	137	11
80	80	13
120	120	31
85	85	9
92	93	1
27	28	6
82	82	12
20	20	10
111	111	9
140	140	15
106	107	8
27	27	6
36	37	5
95	95	7
115	115	9
94	139	6
133	135	1
89	89	19
21	21	8
2	2	11
76	76	12
13	13	5
78	83	4
28	30	5
32	33	4
102	104	5
3	72	3
108	109	11
6	6	6
111	112	9
76	82	2
35	35	16
31	31	13
3	8	5
26	28	2
24	27	2
139	140	1
10	21	3
98	99	7
79	85	2
102	138	1
72	103	2
116	117	3
97	97	13
17	18	3
121	122	12
128	129	12
91	94	1
11	11	9
137	138	7
79	79	12
135	136	9
102	102	19
137	140	2
75	75	17
0	2	5
19	19	11
5	5	9
30	31	3
8	124	2
7	9	7
1	2	4
2	3	6
107	107	5
108	118	2
27	29	8
138	138	22
101	101	29
130	133	1
119	119	13
71	71	10
107	108	8
30	30	7
24	25	1
83	84	6
80	82	4
21	86	8
131	132	7
24	24	10
105	107	2
80	85	9
96	96	8
23	23	5
82	83	2
133	134	6
132	132	18
31	81	1
105	106	8
78	78	22
105	112	2
90	90	6
29	29	8
18	18	15
73	83	1
109	110	2
125	126	8
73	73	11
23	26	7
10	10	4
90	140	1
30	84	7
120	121	9
103	106	5
75	77	8
18	33	3
17	17	14
124	124	31
112	112	11
69	91	4
81	82	5
71	103	2
101	102	5
96	98	2
113	114	2
22	22	6
118	119	6
115	116	2
97	98	11
102	106	6
76	77	3
121	123	3
99	99	7
3	6	2
118	121	4
110	117	1
114	114	18
16	17	1
117	118	13
106	112	2
130	131	1
108	112	2
13	29	1
99	112	1
110	110	16
0	5	1
72	73	4
108	108	17
21	28	1
119	123	6
109	112	3
16	28	5
12	14	1
107	113	2
106	119	3
89	90	1
16	16	8
73	79	1
102	107	1
110	111	16
108	111	1
117	117	16
95	96	1
114	115	5
131	139	3
10	11	4
132	133	7
36	36	5
73	80	3
19	21	3
112	113	3
74	77	3
87	102	6
32	32	9
127	129	5
26	27	4
98	98	5
91	92	2
123	124	5
15	20	3
21	27	2
88	102	2
102	103	2
73	84	1
26	31	1
122	123	4
7	8	3
20	28	1
28	28	4
94	95	7
93	95	1
114	125	2
4	6	1
2	14	1
74	76	7
79	80	2
117	121	5
71	87	2
7	13	3
13	14	4
115	120	6
129	130	2
127	128	6
101	107	2
31	32	3
9	10	5
104	105	9
104	107	3
16	81	1
21	22	8
73	108	1
85	86	4
77	78	4
111	113	1
104	108	3
25	29	2
9	16	2
25	26	9
70	71	2
37	110	1
88	91	1
9	12	2
77	79	2
81	104	1
5	18	1
33	33	11
132	134	2
110	112	2
19	20	2
72	104	2
4	8	1
2	7	2
3	4	3
76	83	3
101	103	4
20	30	1
30	82	3
98	111	1
114	127	1
121	124	3
80	86	1
106	108	4
12	13	2
105	109	1
108	110	2
76	78	1
23	24	1
109	111	2
8	9	2
1	5	2
2	4	3
23	25	1
73	74	3
124	126	1
87	93	2
73	76	1
44	44	1
22	24	4
91	103	1
134	137	2
10	19	1
86	88	1
12	20	1
74	75	1
4	7	2
124	125	1
75	85	2
74	86	4
106	113	1
3	9	1
71	104	1
26	80	1
119	120	2
5	8	5
77	77	6
2	5	1
80	81	3
71	106	1
138	139	2
0	1	2
126	127	2
132	136	1
98	101	1
112	119	1
27	30	1
91	140	1
15	18	1
10	13	1
98	100	1
119	122	1
35	36	1
93	108	1
75	107	1
1	3	2
95	98	1
75	86	1
11	12	1
79	88	1
89	102	1
33	34	1
28	29	1
19	22	1
88	89	2
134	136	1
81	84	2
99	100	1
29	31	1
81	87	1
