11	12	11
121	121	17
167	167	22
58	58	10
126	126	9
163	164	7
19	19	17
166	166	6
12	12	22
78	107	1
160	160	19
102	102	7
133	133	12
12	13	7
63	64	5
25	25	33
145	146	4
60	60	14
89	107	2
77	77	18
42	42	22
161	163	3
29	30	6
170	170	19
52	52	16
21	22	8
92	92	7
119	119	11
124	124	7
122	122	8
68	68	8
118	118	13
103	123	5
123	124	6
129	130	15
52	53	17
40	40	8
3	7	7
123	123	21
8	9	9
173	173	17
24	25	10
26	26	20
148	148	21
16	16	15
120	121	2
92	94	6
13	13	15
89	90	3
79	80	1
174	174	19
36	37	2
50	52	2
41	43	3
61	61	17
41	41	12
112	112	13
53	53	12
84	84	8
106	106	11
14	14	15
74	98	4
109	109	15
168	168	8
58	95	4
162	162	15
170	171	5
143	144	8
93	93	21
75	75	14
28	29	9
18	18	20
103	103	16
0	0	12
101	111	3
158	159	9
129	129	6
6	6	27
7	8	6
18	21	3
82	87	5
110	111	7
37	37	14
63	63	19
112	113	11
23	24	17
81	81	16
74	75	5
65	83	4
88	88	16
29	29	5
141	141	17
87	88	4
116	116	9
4	6	1
4	4	16
34	34	10
53	54	6
3	3	15
156	156	14
40	51	5
108	109	5
98	98	10
101	101	13
79	79	21
11	16	5
105	105	13
13	42	5
148	172	4
87	87	7
56	84	2
2	3	11
104	124	2
161	162	1
107	107	7
49	49	1
127	139	1
128	128	13
154	154	5
50	50	12
160	161	1
20	31	5
27	27	23
149	149	15
138	138	11
172	172	17
178	178	21
7	29	3
67	67	5
64	64	6
25	27	9
145	145	7
114	114	13
20	20	15
150	150	15
90	108	2
176	176	14
15	15	27
39	40	2
82	83	6
18	19	9
7	35	3
157	157	13
83	83	1
38	38	17
13	14	10
148	156	1
111	113	4
124	127	2
174	179	1
9	9	26
152	153	1
117	117	13
10	10	27
22	22	7
130	131	6
4	5	11
57	65	3
44	44	23
76	106	4
70	71	1
137	139	4
63	86	1
124	128	2
21	21	16
122	125	4
5	6	13
165	165	18
26	27	10
8	33	2
51	53	7
130	130	3
147	150	2
4	9	3
88	91	1
125	125	13
30	30	19
44	46	3
52	81	6
17	17	17
31	32	10
33	34	11
99	99	7
115	115	7
11	18	2
167	168	12
56	57	9
86	86	14
143	143	5
10	13	2
51	54	3
83	84	4
140	140	22
66	66	6
135	135	11
96	133	7
22	74	3
163	163	18
54	79	2
91	91	9
144	144	7
92	93	4
98	99	2
135	136	11
67	68	6
9	21	2
82	82	6
11	11	22
177	177	2
144	145	4
147	148	7
59	59	14
176	177	3
31	31	5
37	38	4
74	74	5
66	73	8
1	1	7
165	166	5
154	156	5
11	39	4
96	98	5
71	72	3
164	165	9
5	5	16
127	127	6
2	2	14
85	85	13
97	97	11
115	117	2
21	26	2
43	44	11
7	68	2
6	36	1
114	115	3
65	65	11
11	22	3
1	2	7
10	11	15
161	161	7
145	150	5
132	133	8
57	57	4
147	147	15
66	67	3
64	65	2
20	21	3
112	119	3
30	31	5
23	23	27
71	71	18
39	42	1
78	78	12
172	173	10
72	72	11
42	43	5
37	79	1
156	157	3
80	80	5
164	164	11
111	140	4
159	161	2
100	101	3
7	7	9
169	174	2
60	61	3
136	136	5
134	135	3
24	27	7
35	35	22
151	151	4
110	110	13
158	158	9
148	149	3
158	163	3
56	78	3
143	145	4
22	23	7
41	45	6
8	8	16
95	95	9
14	19	2
28	28	35
105	106	4
50	51	6
177	178	3
25	26	9
41	42	2
17	22	7
11	42	4
94	102	8
111	121	1
36	36	16
142	142	7
2	4	2
134	134	5
51	51	12
90	91	1
45	45	14
96	97	4
11	38	4
167	169	4
20	24	4
131	134	2
90	90	8
178	179	3
86	88	2
99	100	9
11	13	1
8	15	5
93	94	3
62	62	9
5	7	5
95	122	1
40	45	3
15	16	8
110	122	2
19	31	1
17	24	1
16	22	1
49	53	2
173	174	3
77	78	1
43	43	16
110	123	2
9	11	2
175	179	2
91	92	5
65	71	3
108	108	20
91	95	6
144	151	2
2	8	1
3	4	2
137	148	2
89	89	12
81	89	2
44	45	3
54	54	10
137	138	6
160	164	3
13	16	3
101	102	6
179	179	9
108	126	1
32	32	7
73	73	5
109	110	2
21	24	2
111	112	6
45	49	1
113	113	26
62	63	6
65	73	2
75	134	4
155	155	9
39	39	16
167	170	3
18	31	1
14	15	2
97	98	2
96	96	10
168	171	2
131	131	8
169	170	1
63	66	2
28	30	6
61	62	6
112	114	1
141	142	2
85	88	2
24	24	11
38	39	6
39	81	2
56	56	6
2	33	1
100	100	10
28	31	1
57	58	1
142	143	5
80	81	7
117	118	6
110	125	1
23	26	2
180	180	1
113	114	4
20	30	3
133	135	4
17	31	2
89	91	1
150	156	4
169	169	12
91	93	5
87	89	1
65	76	1
26	28	2
40	41	1
151	152	2
111	111	5
33	33	13
128	153	6
0	1	5
63	83	2
12	38	3
43	45	1
120	124	2
166	170	3
128	151	2
146	147	1
9	18	1
6	7	4
27	28	3
155	156	1
171	171	12
83	88	3
67	75	3
55	55	11
57	78	5
132	132	7
161	168	1
82	91	3
65	81	1
32	33	1
159	159	12
152	152	16
109	127	2
55	80	6
76	76	3
12	33	3
104	166	3
125	128	4
40	50	1
107	119	3
9	10	3
138	139	4
128	129	2
84	85	5
63	104	1
108	123	3
54	83	3
35	36	4
137	137	7
104	121	2
77	79	2
104	104	5
148	154	1
37	78	2
132	136	2
18	27	3
4	24	3
10	14	2
10	16	4
39	102	1
19	22	4
78	79	3
5	8	1
64	76	6
116	117	2
146	146	12
100	103	1
133	134	3
95	96	3
23	30	3
110	146	2
107	109	1
13	15	8
62	87	2
16	40	2
59	75	1
102	124	2
55	56	5
104	105	1
163	166	6
140	142	1
31	35	2
166	167	3
140	144	2
154	155	4
174	175	4
73	75	4
76	78	1
120	120	4
72	73	3
37	71	1
94	106	1
155	157	4
122	133	1
153	153	3
114	145	1
99	103	1
91	108	2
16	21	2
145	151	2
65	82	2
152	154	2
99	101	2
153	154	8
88	89	6
56	86	1
157	170	2
113	135	3
140	143	3
19	25	5
45	53	1
61	81	2
127	128	1
17	18	3
152	156	2
39	56	3
65	66	3
56	72	1
9	26	1
26	29	1
164	167	1
16	17	3
2	9	3
94	94	2
112	145	2
81	115	2
103	124	1
157	161	1
173	175	1
165	170	2
158	168	2
51	52	2
160	162	1
90	92	8
91	104	2
110	128	1
4	34	2
52	68	1
84	86	1
57	75	1
23	25	1
44	53	2
38	41	5
9	13	1
59	76	1
2	15	1
100	112	1
109	129	4
63	85	2
35	38	3
103	104	2
63	65	4
110	112	1
81	82	2
175	175	1
154	159	2
5	9	3
16	18	1
102	103	1
64	83	1
95	105	1
122	124	1
19	20	2
8	31	1
107	124	2
8	34	2
157	169	1
118	119	2
57	59	2
121	122	4
57	61	1
91	115	1
125	126	5
91	94	2
15	25	4
52	102	1
106	107	1
145	155	2
5	10	1
19	29	2
134	139	2
175	176	1
31	33	3
17	19	1
136	137	2
5	34	1
81	92	1
3	8	1
103	106	2
10	15	2
108	127	3
88	90	1
125	133	1
66	81	1
158	169	1
151	154	1
151	156	1
139	139	5
85	86	1
12	42	2
11	17	1
82	106	2
13	23	1
67	74	1
104	107	3
149	150	1
162	163	1
165	167	1
107	108	1
143	146	1
127	137	1
88	108	1
123	127	1
134	141	1
8	11	1
63	82	1
11	19	1
9	33	1
62	86	1
60	64	2
109	126	1
21	23	2
151	155	1
19	21	2
158	167	1
20	43	1
39	45	1
28	180	1
147	173	2
60	167	1
27	74	1
2	16	1
70	70	3
128	130	1
128	152	2
61	82	1
5	22	1
18	20	1
141	145	1
59	74	1
