37	59	3
31	31	9
8	8	5
108	109	3
169	169	11
98	98	6
36	36	5
66	67	2
35	35	6
0	39	3
126	126	7
39	39	9
171	171	1
3	3	3
14	31	6
93	93	10
66	66	11
43	43	9
10	11	8
72	73	2
15	15	5
0	0	5
33	33	16
178	179	5
126	127	7
152	154	4
41	42	3
178	178	8
95	95	4
149	149	13
108	108	7
165	165	7
78	78	2
77	77	5
13	13	10
179	179	5
10	10	8
176	176	7
150	150	7
136	141	1
148	148	5
32	59	4
115	125	1
118	118	1
36	37	4
63	67	1
124	125	3
23	24	3
8	18	6
113	113	6
131	131	8
106	106	7
134	136	2
11	155	1
119	119	12
31	33	3
137	138	4
42	43	2
138	138	6
133	133	2
67	67	7
61	64	1
14	14	5
3	6	1
71	134	3
74	88	5
25	25	9
38	41	4
59	60	6
43	44	1
15	31	4
40	40	9
5	6	2
154	155	5
36	40	2
12	13	10
157	157	6
49	51	3
52	52	15
107	107	4
60	61	4
68	68	8
9	9	12
9	10	6
165	166	4
25	30	4
8	11	1
4	7	3
45	45	5
164	165	4
177	177	6
174	174	10
3	15	7
147	147	7
59	59	3
124	126	1
24	60	8
23	33	3
174	177	3
16	17	6
158	158	10
141	141	2
12	12	10
19	20	1
1	1	4
145	145	6
117	117	18
145	153	2
20	23	2
82	82	3
56	56	13
170	171	1
23	23	1
11	12	9
170	170	3
27	28	1
135	136	4
139	139	5
91	92	6
87	87	5
168	169	11
50	61	2
63	63	2
59	68	3
116	117	4
2	2	8
169	170	4
79	79	2
84	86	1
104	104	7
74	92	2
1	2	7
134	134	5
112	112	1
73	93	3
91	91	5
135	142	2
109	109	5
57	58	4
16	28	2
22	24	2
153	153	8
144	144	6
40	41	7
156	156	3
11	13	5
115	116	2
32	32	5
160	160	4
60	60	5
50	50	6
114	114	1
62	62	5
111	111	11
113	118	2
23	25	2
0	1	8
56	58	2
152	153	3
89	89	12
64	122	3
127	127	4
136	137	6
119	142	1
123	123	7
37	37	6
130	130	7
111	119	4
21	22	4
18	23	2
38	38	14
18	18	11
72	72	9
166	166	4
108	130	2
94	106	2
71	71	3
34	34	11
61	61	4
63	65	1
140	141	1
112	113	4
76	76	7
27	34	1
132	133	6
142	143	4
121	144	2
146	150	2
96	102	1
16	16	2
168	168	7
83	83	9
152	165	1
55	55	4
25	29	3
37	40	3
49	50	2
22	23	4
24	24	3
100	102	1
78	79	8
37	38	3
118	119	3
74	75	6
19	19	2
15	16	4
83	95	2
76	78	6
158	167	1
173	173	1
114	146	1
53	54	1
99	105	2
103	103	5
86	87	1
22	22	2
172	173	3
95	96	2
120	121	1
68	72	4
24	26	5
130	137	2
53	53	1
133	141	3
96	133	2
81	82	3
129	129	5
22	131	1
26	52	4
28	29	1
16	18	2
112	119	1
89	91	5
104	105	1
157	165	1
163	167	5
92	92	4
65	122	4
11	11	8
180	180	1
85	93	3
124	124	3
71	72	1
142	142	2
54	54	2
102	102	4
13	14	3
33	34	8
134	135	1
154	154	4
51	65	1
64	64	6
30	31	2
42	42	1
119	124	3
33	40	1
32	33	6
75	76	7
155	155	3
29	29	9
97	97	3
137	137	4
39	41	2
151	153	4
96	96	3
38	39	2
65	65	3
11	14	1
26	26	1
175	175	1
5	8	5
140	140	2
28	28	2
53	152	2
68	83	2
86	86	3
14	15	2
150	151	3
143	143	1
96	107	1
24	39	1
146	151	2
44	44	3
43	45	2
56	57	4
17	17	9
72	76	3
30	30	3
172	172	2
5	5	2
65	67	3
144	145	1
70	71	2
4	9	2
173	176	1
3	4	2
4	19	3
162	173	6
51	71	3
151	151	2
161	161	1
80	80	2
97	98	4
56	61	2
51	51	2
76	132	2
121	121	1
173	174	2
8	9	1
26	93	1
74	74	5
106	108	1
90	93	3
76	133	1
138	139	1
92	93	2
152	152	5
84	84	4
125	125	3
88	88	1
39	40	1
50	54	1
54	56	1
73	73	1
57	59	2
165	169	1
120	120	4
129	136	2
158	163	5
68	70	1
83	85	1
147	148	1
113	120	1
129	130	3
49	53	1
128	128	5
81	81	2
7	7	2
20	20	3
72	114	1
70	140	1
141	149	1
153	154	1
136	139	3
2	7	1
109	110	1
22	28	3
92	94	4
95	133	3
18	22	2
62	73	1
58	58	2
19	21	1
89	106	2
125	126	1
13	17	1
31	32	2
85	85	1
79	80	2
29	31	2
55	56	2
3	19	1
1	5	2
63	64	1
151	152	1
158	159	3
41	41	1
110	110	1
4	4	1
114	118	1
105	106	2
147	156	2
35	41	1
12	117	1
52	53	1
80	81	2
144	167	1
34	36	2
7	8	1
60	74	1
90	90	1
26	27	2
16	22	2
161	162	2
159	161	1
57	57	1
152	155	1
17	31	1
115	117	1
27	32	3
136	136	1
148	155	1
172	178	2
18	19	1
133	134	1
110	112	1
116	116	1
171	172	1
162	162	2
51	52	1
24	44	2
82	85	1
115	118	1
2	5	1
100	100	2
166	167	1
107	111	1
98	108	1
170	178	1
157	158	1
135	135	1
159	159	1
123	124	1
