65	65	8
127	127	13
27	62	1
90	90	15
83	83	7
82	83	1
104	104	11
76	77	4
98	98	8
28	89	1
72	72	7
46	47	3
132	132	7
123	128	1
66	66	11
26	27	5
81	130	2
12	12	27
86	86	7
64	64	16
61	61	8
128	128	2
48	82	1
108	109	2
31	31	19
77	77	11
13	14	5
80	80	34
34	34	8
93	94	4
37	57	5
3	38	5
9	46	5
116	116	8
6	45	3
28	28	9
16	16	6
71	72	6
114	116	7
37	58	3
131	131	5
33	33	7
78	91	5
3	4	17
99	99	16
19	19	11
127	133	4
46	46	11
27	47	2
105	105	11
35	35	13
106	106	4
84	84	13
8	9	5
36	36	10
32	71	1
37	37	8
29	29	5
88	88	1
35	36	5
10	36	2
8	13	2
45	45	9
47	47	15
27	27	5
97	97	7
16	66	7
62	118	4
21	50	5
7	45	2
22	24	4
23	23	9
76	76	7
134	134	7
20	61	4
4	60	4
6	44	1
42	59	5
59	59	11
107	126	2
40	40	8
78	112	4
48	81	3
94	94	6
123	124	3
7	34	1
18	70	8
81	81	19
9	16	2
43	43	3
30	31	3
59	69	2
129	129	3
131	132	3
79	79	7
14	14	11
46	89	1
91	92	7
78	80	3
15	15	6
94	129	2
62	131	2
17	17	7
85	85	10
68	68	7
126	126	5
18	80	2
28	33	2
74	119	2
56	56	10
101	101	5
119	126	1
92	92	3
9	24	4
6	6	10
66	74	1
56	106	4
63	63	7
44	73	1
45	71	3
27	28	2
93	93	18
4	7	4
26	83	1
84	111	6
8	30	4
3	3	12
130	131	4
21	21	8
9	47	3
75	75	12
38	38	9
69	71	1
32	32	9
8	88	2
5	81	2
58	124	4
44	45	1
123	123	12
110	110	8
8	38	2
63	78	2
121	129	1
48	48	6
78	78	9
4	134	3
58	58	2
69	70	6
29	57	3
16	17	1
21	116	2
62	72	2
72	73	1
24	29	3
15	24	2
22	22	3
94	95	10
112	112	5
130	130	4
26	26	8
115	115	6
30	44	4
74	74	5
70	70	12
62	70	2
96	97	7
87	87	5
32	58	3
26	73	3
121	121	6
11	26	3
18	20	2
113	130	5
18	18	2
10	10	7
96	96	5
125	128	1
18	19	1
4	5	5
12	13	2
28	97	2
89	89	2
5	49	2
109	109	1
4	4	10
125	125	2
10	13	3
60	120	1
72	76	1
10	83	2
44	44	3
102	128	2
20	25	2
103	103	2
73	74	2
21	25	5
39	41	3
25	25	5
115	133	4
98	99	5
119	120	5
4	6	3
49	49	4
7	7	12
100	100	5
30	30	8
41	41	6
14	15	3
61	62	1
5	133	2
93	101	2
125	126	1
117	117	4
32	78	1
58	109	1
19	20	2
5	50	3
13	13	5
41	70	3
32	79	1
0	0	1
91	91	4
79	82	5
102	102	3
62	62	4
40	41	4
42	42	1
42	58	2
78	96	3
110	111	2
66	73	2
96	99	2
70	107	2
25	26	4
83	85	3
20	36	2
82	82	10
47	92	4
11	11	12
84	86	2
95	95	5
107	127	1
61	75	4
122	122	3
55	55	2
33	34	1
63	67	1
114	115	1
113	113	5
20	20	6
13	90	1
5	92	1
9	9	7
8	8	3
29	42	1
5	8	1
25	74	2
11	33	1
26	66	1
125	129	2
10	73	1
77	93	1
42	83	1
120	126	3
108	108	2
29	32	2
73	73	4
84	87	2
117	129	2
45	46	3
15	74	1
21	40	2
55	56	2
47	78	1
79	80	1
85	86	3
10	35	2
3	87	2
41	42	4
90	91	4
91	93	2
114	114	2
78	81	1
42	85	1
20	37	1
17	43	2
112	113	1
12	65	1
91	94	2
21	37	6
3	94	2
99	100	1
67	67	2
22	25	2
57	57	2
16	37	1
24	24	1
89	91	1
11	93	4
79	81	2
83	98	1
37	38	1
40	81	4
6	65	4
5	6	1
111	111	3
9	83	2
61	69	1
30	35	3
4	94	1
22	32	1
67	68	1
62	111	1
49	60	1
57	58	3
74	117	1
4	8	1
2	2	3
5	5	5
94	96	2
87	88	4
58	119	1
34	35	1
13	88	2
36	81	1
14	45	1
129	130	1
10	23	2
104	105	1
10	11	3
111	118	1
12	14	1
20	21	1
89	90	2
33	35	2
29	45	1
28	29	2
70	72	1
39	40	1
8	29	2
3	100	1
1	2	2
17	19	1
39	39	1
48	50	3
66	67	1
25	92	1
124	124	3
63	64	2
36	38	1
110	122	1
48	49	1
36	82	1
6	47	1
47	93	1
97	99	2
17	82	1
60	60	3
8	61	1
30	60	1
64	73	1
46	75	1
45	64	1
78	87	1
28	32	1
26	43	1
27	92	1
88	90	2
47	75	1
47	83	1
83	94	1
8	28	1
19	21	1
24	82	1
133	133	1
