2	2	27
28	28	30
35	65	3
50	50	39
73	73	35
12	13	6
54	54	46
9	9	29
68	77	2
10	10	43
65	65	30
51	51	26
33	33	33
27	27	25
17	17	24
59	59	29
56	56	27
49	50	19
5	6	12
3	5	3
46	46	31
79	79	15
66	66	24
71	71	19
35	35	30
78	78	34
7	7	36
67	68	6
39	39	50
55	55	45
16	16	21
66	67	7
69	69	47
60	60	27
75	75	31
34	35	3
57	58	4
4	4	26
53	53	35
42	42	27
60	61	4
15	30	4
43	43	9
32	35	7
31	33	2
74	75	8
8	8	30
61	62	8
47	48	2
71	72	12
57	60	5
3	3	22
63	64	7
30	31	6
13	13	26
14	14	31
37	37	26
63	63	40
62	62	32
74	74	18
73	75	4
50	52	15
13	14	10
0	0	27
72	72	44
62	67	2
49	55	5
7	8	2
33	34	2
12	12	27
37	38	4
76	76	34
9	21	5
52	52	23
55	57	1
35	54	1
70	70	19
10	11	12
45	48	3
8	21	3
58	59	7
30	30	21
31	32	23
80	80	21
51	52	33
40	40	34
37	40	4
15	16	3
29	30	16
4	41	2
55	56	17
34	34	11
49	49	31
64	65	8
13	69	5
59	60	5
25	25	18
36	36	15
31	31	20
19	20	4
18	18	11
61	61	28
41	41	24
48	49	7
19	21	4
49	66	5
56	66	4
21	31	1
6	73	4
34	55	6
34	56	1
19	19	40
51	69	6
10	13	3
6	6	24
77	77	22
5	5	30
1	1	33
48	60	2
67	67	40
15	15	13
68	68	20
57	79	4
11	11	30
45	46	4
27	32	1
68	72	3
32	33	8
26	26	27
45	45	31
13	70	2
64	64	23
73	76	6
25	58	2
48	48	26
11	14	2
38	38	24
2	77	1
12	15	2
28	36	2
45	47	7
9	10	4
47	47	17
38	39	4
10	32	1
29	29	22
8	10	2
80	81	6
10	12	4
36	38	3
32	32	35
57	57	27
65	72	2
74	78	4
65	67	3
50	64	2
49	60	3
54	59	2
21	21	7
47	57	4
7	16	2
50	51	9
40	48	1
27	42	3
26	48	3
17	35	2
62	72	1
36	39	1
3	17	1
74	76	4
30	32	3
41	68	1
14	15	12
20	20	9
4	5	2
70	71	5
26	78	1
52	53	6
62	63	2
15	71	1
21	29	2
46	48	2
63	74	2
77	79	2
68	69	3
1	2	3
2	3	6
10	14	3
32	34	3
12	14	3
25	36	1
69	70	5
27	29	3
76	77	6
39	61	3
43	45	1
58	58	11
44	44	1
32	54	2
20	57	1
10	31	3
27	37	1
40	61	4
27	61	4
54	58	1
3	7	1
11	12	14
26	64	2
16	19	3
27	28	4
16	17	2
41	62	3
30	59	4
75	76	1
12	49	1
52	69	3
42	46	1
2	6	2
62	65	2
12	18	2
49	63	1
27	59	1
46	56	4
20	29	2
15	33	1
10	15	2
31	34	2
13	63	2
66	68	1
46	47	9
9	16	1
55	68	1
66	71	2
28	59	2
25	33	2
9	31	1
32	58	3
34	57	4
67	78	3
15	20	3
26	54	2
8	9	5
0	30	2
34	51	1
27	38	2
37	47	1
47	80	2
29	32	1
40	47	1
56	57	9
68	70	3
49	56	1
54	67	3
29	61	1
61	63	4
34	52	1
2	14	2
11	33	1
58	65	3
27	58	5
11	15	1
13	51	2
20	41	2
7	36	2
26	30	1
65	66	3
55	66	2
37	80	2
0	1	3
27	45	2
27	35	3
47	63	3
39	57	1
9	11	1
53	63	1
42	43	1
78	79	1
26	29	4
1	16	1
47	59	1
2	40	1
5	41	3
41	42	2
49	59	3
11	32	2
25	26	1
17	18	1
50	53	2
14	52	3
11	13	1
21	63	1
2	42	1
54	55	1
10	22	1
35	49	1
35	63	2
25	32	1
16	18	3
51	64	1
7	77	1
29	33	2
53	54	1
13	53	5
2	7	1
3	6	1
46	79	1
49	51	1
63	65	1
47	58	1
59	75	1
56	62	2
1	77	1
35	36	1
13	15	1
53	57	2
37	57	1
25	51	1
21	22	2
4	6	1
44	45	1
48	74	1
67	71	1
26	57	3
28	39	1
36	45	1
28	48	1
54	71	1
17	71	1
28	33	1
49	52	1
26	45	1
6	36	1
30	34	1
12	33	1
17	19	1
