26	26	8
70	70	8
56	56	10
39	39	9
78	78	2
105	105	7
78	81	8
27	28	3
116	128	2
58	131	3
63	63	9
7	18	1
78	123	2
65	65	10
4	5	3
97	97	14
47	47	11
73	73	10
83	83	10
103	105	3
128	128	5
108	108	3
38	39	4
67	67	8
116	116	6
4	4	8
3	3	10
29	29	10
11	22	1
28	80	2
16	16	8
26	27	6
134	134	11
30	33	3
12	85	1
31	47	1
20	20	1
35	42	1
67	74	4
76	76	4
71	71	4
91	92	6
10	10	7
76	77	3
68	68	8
64	64	9
70	73	4
90	90	8
93	93	19
20	21	3
94	127	1
10	101	2
47	48	1
58	58	7
55	114	2
50	50	6
33	63	2
59	59	4
24	24	7
40	40	4
94	94	10
70	71	4
84	84	6
43	123	1
22	30	1
61	134	3
23	24	3
8	8	7
75	112	3
101	101	11
39	78	4
96	96	2
59	70	4
62	70	4
6	31	3
18	18	3
18	19	3
11	102	2
28	79	1
29	82	1
120	120	4
98	99	9
85	86	2
27	27	2
20	32	3
2	2	4
45	45	16
69	69	11
43	43	10
80	84	1
98	98	10
101	102	3
21	40	6
3	33	2
3	16	2
118	118	4
33	33	4
26	29	2
108	126	2
108	124	3
96	134	3
106	106	1
47	64	1
74	74	8
56	81	4
79	79	8
25	25	8
121	121	7
72	72	11
71	112	1
7	7	5
28	77	3
63	64	3
31	31	10
120	121	2
8	36	5
34	34	9
93	115	1
55	80	3
17	63	4
29	61	2
129	129	8
111	111	11
110	111	2
55	81	2
41	41	7
126	126	7
88	90	1
17	17	13
11	48	1
7	11	2
30	30	7
92	92	4
45	71	4
37	122	2
32	74	1
13	14	4
95	95	6
46	46	5
18	41	2
90	100	5
108	110	3
25	82	4
39	56	3
125	125	6
81	82	5
19	20	1
91	98	4
35	35	4
73	75	8
55	55	3
91	91	4
87	132	2
66	66	14
79	80	2
81	81	3
87	87	7
12	12	7
122	122	4
107	107	3
119	119	11
6	6	10
32	32	7
94	100	3
28	28	4
130	130	3
114	114	4
31	33	1
93	107	1
127	131	3
62	62	9
102	120	2
103	103	2
6	89	5
36	37	1
67	77	1
95	134	1
85	85	8
46	118	2
5	5	5
104	105	6
57	57	12
43	44	4
0	0	1
75	75	4
11	11	3
84	86	3
126	127	3
61	61	9
39	122	1
6	7	3
46	104	2
19	19	3
42	42	2
14	14	5
97	98	1
73	74	1
21	21	4
102	102	2
29	30	1
22	22	4
87	100	2
46	47	4
121	123	5
16	119	2
97	99	2
39	81	3
56	91	1
133	133	2
15	45	2
10	45	4
79	83	2
62	82	2
29	83	1
82	82	3
65	112	1
26	36	4
59	128	3
112	112	2
127	128	7
78	79	1
104	104	2
59	60	2
34	76	2
11	63	1
108	109	3
48	48	9
94	97	1
86	86	4
40	41	2
24	26	2
63	112	1
16	36	3
69	73	1
112	113	1
18	20	1
72	73	3
10	102	2
115	116	7
132	132	3
27	44	1
49	59	1
80	80	3
127	127	2
28	29	1
56	133	2
40	80	2
57	123	3
94	95	2
79	81	3
63	93	1
113	113	4
99	99	3
99	100	1
37	37	2
38	38	4
20	36	1
14	15	3
21	84	2
16	26	1
128	131	1
98	100	1
3	79	1
127	134	1
44	44	3
6	92	1
81	89	2
75	76	1
35	130	2
68	69	2
9	9	5
30	83	2
21	41	2
45	63	1
87	88	5
60	128	1
70	74	1
47	72	1
15	18	2
115	115	4
96	98	2
126	128	1
62	73	2
65	68	1
67	68	1
32	33	2
79	82	2
18	21	2
35	36	1
45	77	1
13	38	1
60	116	1
35	76	4
77	77	5
49	49	1
96	106	2
48	49	3
44	45	1
101	114	1
13	13	1
57	94	1
21	22	1
2	34	1
105	107	1
37	38	1
123	123	1
84	85	2
46	64	1
118	126	1
83	99	1
55	56	1
56	130	1
64	67	1
82	84	1
84	133	1
62	74	1
95	96	1
28	97	1
15	15	3
93	103	1
70	113	1
27	93	2
36	36	1
92	93	1
38	56	1
17	45	1
72	74	1
69	116	1
88	88	1
