106	106	8
34	34	6
47	47	3
162	163	7
116	119	2
21	21	7
24	26	2
176	176	5
137	137	6
157	157	7
177	177	11
133	187	3
94	94	11
23	23	11
190	190	6
130	130	8
192	192	12
181	182	6
132	133	2
153	153	4
184	184	13
113	113	7
13	13	5
146	148	4
8	8	13
1	45	1
88	118	1
146	147	3
54	55	5
191	192	6
109	168	2
58	58	4
187	187	8
96	96	3
45	45	9
175	175	3
6	38	3
17	41	1
160	160	15
160	172	3
49	50	7
103	162	3
131	165	3
50	51	1
163	163	1
36	36	5
102	116	6
131	132	4
182	182	3
18	25	6
17	17	9
173	173	7
194	195	4
48	48	5
1	123	5
185	185	10
83	83	5
64	64	6
71	71	15
196	196	17
158	158	7
9	11	4
165	165	4
10	10	15
143	143	7
110	110	9
108	109	3
82	94	1
121	121	16
15	123	1
167	167	8
150	150	10
30	31	3
161	161	15
179	179	6
151	153	1
154	154	2
83	84	4
147	147	18
156	156	7
2	3	4
100	132	4
7	7	2
170	171	1
186	186	5
155	155	4
150	152	4
3	3	12
119	119	3
105	105	6
85	85	9
134	134	11
128	128	9
0	1	3
68	68	11
51	56	5
159	159	7
0	0	10
112	127	3
168	177	2
169	169	8
108	108	1
23	24	9
4	8	4
94	154	1
51	51	5
100	100	4
69	69	6
43	90	2
138	138	9
8	116	5
53	53	10
170	170	8
115	116	2
172	172	11
24	24	8
100	144	3
102	102	11
129	130	2
123	123	6
190	192	1
18	116	5
84	84	4
6	8	4
151	152	5
98	99	1
8	39	1
19	63	1
9	20	4
147	173	2
10	62	2
59	59	6
151	151	18
26	26	8
40	40	14
35	68	1
109	144	1
103	106	4
131	133	2
76	76	6
104	104	8
33	114	2
55	147	3
23	25	1
166	179	1
75	75	2
187	188	5
88	117	4
183	183	10
171	171	7
82	83	6
10	14	3
67	68	1
3	7	3
64	66	3
20	22	1
31	31	4
23	119	4
96	97	2
22	35	1
9	9	9
43	88	5
114	114	5
174	191	1
86	86	1
57	57	1
80	81	2
144	144	8
195	195	5
3	4	2
23	90	3
159	190	3
109	109	7
164	166	4
193	194	5
107	108	4
136	137	7
43	72	2
30	30	7
178	179	3
138	139	2
156	157	13
197	197	3
33	119	2
171	189	2
162	162	1
95	95	5
136	173	2
137	176	5
12	12	5
18	18	6
79	79	5
185	186	1
139	139	6
119	120	8
101	101	5
174	178	1
163	164	8
178	178	6
40	42	4
64	75	3
95	97	3
48	58	2
17	44	1
147	148	3
194	194	13
50	50	2
185	187	2
174	174	3
124	124	4
105	106	4
34	65	1
29	29	2
13	14	5
78	87	4
117	117	5
139	181	1
32	32	2
152	170	1
21	116	2
104	106	2
2	46	2
142	142	2
122	122	6
78	78	6
107	107	3
143	144	6
99	99	8
6	6	6
102	108	4
9	15	2
122	194	1
186	188	1
8	90	1
148	176	4
142	146	1
159	161	4
165	191	1
55	55	8
5	6	9
59	74	1
33	38	5
181	181	5
21	118	4
47	49	4
116	116	2
72	72	2
108	110	2
4	120	3
40	41	4
132	166	1
127	129	4
82	82	7
1	1	3
131	131	4
77	78	1
43	44	3
123	153	1
174	177	3
118	122	1
193	193	7
37	38	3
186	194	2
145	145	1
72	73	3
52	52	4
10	71	1
28	28	7
70	70	2
50	194	3
59	63	1
115	115	7
168	169	3
163	177	2
84	85	2
16	16	5
163	165	4
20	20	2
188	188	5
25	25	5
152	152	3
64	123	3
26	28	1
4	4	4
40	59	2
152	153	2
58	60	5
190	191	3
43	43	5
112	112	1
46	54	1
120	120	6
86	87	4
127	127	7
162	194	1
29	68	2
80	87	4
77	77	3
191	191	3
75	76	2
34	37	2
128	129	3
3	34	2
46	51	1
15	15	4
0	44	2
49	49	7
89	159	1
63	123	2
37	121	3
174	175	3
168	168	8
180	180	6
97	97	2
22	22	4
45	71	1
153	158	1
168	170	1
75	93	2
11	111	3
3	22	3
137	175	1
173	176	5
0	22	1
43	53	2
33	33	2
71	78	1
80	85	2
141	142	1
170	185	1
165	180	1
151	190	5
107	121	2
137	139	2
166	166	6
107	110	4
19	116	2
116	117	2
161	164	1
137	140	2
42	42	2
132	168	2
39	62	3
11	11	4
35	35	6
64	68	3
10	13	1
110	144	1
134	137	1
189	189	3
89	90	2
6	86	2
112	145	3
149	149	9
135	135	2
12	135	2
163	168	2
39	39	2
125	125	4
50	59	3
146	146	2
24	166	1
35	65	2
5	5	5
160	175	1
166	167	2
185	194	5
149	156	3
19	35	1
41	41	2
103	103	2
108	196	4
3	35	1
164	164	1
51	59	3
135	147	2
176	177	5
97	98	1
174	176	1
114	117	3
31	67	1
17	116	3
100	101	3
98	98	1
4	5	4
109	138	1
44	44	2
3	191	1
120	121	2
99	100	1
113	122	2
165	167	2
8	23	3
3	5	1
140	140	6
133	137	1
13	68	2
67	67	2
71	113	1
6	28	1
21	22	3
128	158	2
167	184	1
46	46	5
12	54	4
157	158	2
19	64	1
89	116	1
59	73	1
141	141	8
56	56	1
152	157	2
176	178	4
37	37	1
183	186	1
126	169	2
96	154	1
41	54	3
100	146	1
106	177	1
43	73	1
54	54	3
182	191	1
45	56	1
125	133	1
136	136	2
63	63	3
35	63	3
173	175	2
34	87	1
32	72	2
148	172	1
81	81	2
11	12	3
94	134	2
7	25	2
18	19	1
18	26	3
136	140	1
177	190	3
47	48	2
100	143	1
129	132	3
108	111	2
49	58	1
165	184	2
114	115	2
17	25	1
104	107	2
12	55	1
3	26	1
19	19	2
177	179	3
154	156	1
155	157	3
101	141	1
102	162	2
131	153	1
141	185	3
70	88	1
144	145	1
111	166	2
154	155	1
121	122	2
184	185	2
62	71	2
135	136	1
8	19	1
29	32	1
134	148	1
140	143	1
161	163	2
114	116	3
31	66	1
35	36	1
87	88	1
161	193	1
144	148	1
42	73	1
157	159	2
25	26	2
175	176	1
19	20	1
20	24	1
70	123	1
183	193	1
95	136	1
125	128	1
130	131	1
87	87	1
94	96	1
111	111	1
49	196	1
38	38	1
151	193	1
73	73	2
76	77	2
57	58	1
120	145	1
70	71	1
69	184	1
142	189	1
149	150	1
31	32	1
21	34	1
48	49	1
136	177	1
130	153	1
81	82	1
9	10	1
52	53	1
94	133	1
115	118	1
145	178	1
44	76	1
