129	129	2
68	68	5
183	183	19
66	66	5
39	40	5
17	180	1
78	78	7
21	21	6
143	144	7
100	100	3
130	130	8
34	36	5
179	181	3
98	98	7
163	164	11
26	26	3
59	59	3
178	178	6
98	131	2
33	53	2
155	155	9
165	166	1
187	188	16
164	164	12
159	160	4
6	6	9
106	108	1
96	102	3
160	160	5
162	165	3
10	13	3
169	174	1
40	40	6
103	103	3
157	158	4
33	44	1
55	125	1
4	9	3
11	15	4
189	189	11
192	193	2
181	181	5
16	23	2
167	180	3
87	87	4
84	84	2
7	8	11
78	179	3
53	53	5
112	137	1
188	188	3
139	164	3
116	117	4
194	194	9
38	38	10
162	162	5
89	89	7
139	146	1
149	149	5
157	177	2
107	136	1
46	48	2
108	108	2
154	156	7
155	179	1
43	44	3
104	104	5
141	172	2
141	148	4
165	167	4
79	79	4
172	172	8
76	86	2
185	185	7
9	9	9
49	49	11
165	165	3
2	2	7
108	137	4
151	151	8
101	101	3
112	113	4
193	194	6
2	21	3
110	110	4
117	119	2
174	174	7
4	8	5
58	64	5
64	64	6
170	170	4
99	146	5
2	3	7
193	193	3
47	47	7
177	178	6
171	171	5
140	142	5
197	197	10
122	122	5
3	8	6
9	16	7
158	158	16
142	143	5
18	20	2
14	14	13
51	52	2
64	75	2
102	113	2
103	105	1
30	36	1
37	37	6
18	18	3
163	163	5
132	132	1
179	179	4
102	102	4
26	37	4
188	189	7
71	71	9
149	172	2
118	118	3
158	183	2
159	159	7
80	80	4
45	45	8
129	155	1
163	168	7
161	163	2
138	138	10
196	196	9
24	24	2
95	96	4
136	136	7
40	41	3
95	95	10
116	116	4
104	150	2
7	7	9
169	176	2
86	87	1
102	103	2
109	111	1
124	124	2
120	120	4
176	176	1
10	11	3
113	113	8
28	86	2
30	30	1
45	46	2
48	48	5
175	176	1
129	133	3
169	169	1
36	36	3
195	195	2
31	31	4
39	39	5
60	64	2
74	76	6
121	124	5
179	180	9
0	0	2
101	106	4
23	23	7
58	63	5
111	111	2
139	139	4
13	14	2
80	81	5
15	15	8
30	40	4
27	27	1
107	107	2
108	136	2
119	119	3
190	191	1
130	153	2
70	78	3
150	150	3
13	13	3
187	187	7
16	24	2
176	178	2
10	184	5
12	12	3
9	10	6
125	125	13
39	41	5
184	185	5
115	115	3
69	107	1
164	168	1
43	43	10
153	182	2
106	106	2
18	19	1
33	33	8
142	142	2
20	27	1
59	61	1
189	190	2
161	162	6
25	25	6
116	119	3
184	184	4
65	88	2
11	12	2
132	133	2
41	41	4
159	168	3
159	161	2
74	74	8
147	147	8
173	173	6
123	126	1
28	39	6
176	182	1
46	84	4
36	37	2
30	31	1
134	138	2
47	48	1
192	192	4
32	32	4
11	11	3
176	177	6
69	112	1
167	168	1
130	133	3
74	75	2
126	127	2
140	140	5
49	51	1
61	62	3
132	144	4
143	143	2
1	2	2
25	39	2
144	144	3
28	72	3
112	112	2
44	71	1
56	56	3
118	119	2
152	152	4
137	137	5
109	110	1
101	104	1
58	58	5
134	134	3
50	50	3
93	96	4
157	157	4
37	40	2
161	161	2
173	190	4
19	19	2
2	4	2
5	8	1
6	7	2
76	76	2
44	44	5
6	94	2
196	197	4
29	29	1
148	154	2
68	73	3
121	121	4
142	144	2
150	152	2
34	34	2
10	10	7
35	45	3
186	186	8
83	84	3
55	58	5
171	172	3
16	16	2
149	188	2
19	39	1
123	150	3
28	29	1
42	43	3
123	123	2
160	161	1
127	127	2
8	8	4
72	105	1
77	80	2
51	51	7
82	82	2
149	150	1
54	54	4
150	151	2
110	132	2
61	61	3
99	112	4
164	173	1
61	63	5
37	39	1
155	177	1
138	150	5
70	74	5
140	152	2
52	53	2
128	128	4
166	166	4
183	190	1
105	106	2
181	192	5
146	151	2
136	151	2
110	111	1
156	156	5
27	157	1
105	105	1
28	28	6
133	133	1
162	164	1
170	171	5
20	22	2
128	149	2
113	136	1
88	88	4
66	68	1
186	187	3
135	136	3
168	169	1
172	173	1
5	5	3
77	78	3
169	183	1
122	123	1
70	70	1
156	179	1
111	113	3
146	147	2
36	39	1
94	94	2
54	55	3
70	75	1
99	106	4
150	172	2
1	53	5
122	125	1
177	181	1
29	31	1
131	132	1
72	72	2
12	14	1
186	188	2
24	25	2
26	41	1
126	126	3
56	62	1
46	46	1
46	47	1
50	51	1
178	189	2
71	74	1
132	152	2
112	133	1
141	141	2
175	175	2
187	195	1
177	177	1
54	64	2
59	65	1
148	148	1
127	149	1
178	191	1
36	40	1
100	101	1
146	146	1
7	19	2
152	172	1
180	180	1
113	114	2
99	103	1
96	119	2
4	4	2
26	182	2
82	85	1
166	167	1
21	28	1
17	20	1
32	81	1
168	168	1
35	35	1
145	146	1
32	44	2
143	165	1
18	28	1
1	1	1
110	118	1
34	39	1
26	40	1
164	166	1
