148	148	6
103	103	13
90	96	4
82	82	6
154	155	10
110	111	3
31	33	1
112	112	9
24	24	9
67	69	2
66	66	4
139	139	7
86	87	7
118	118	10
3	3	5
14	14	6
78	84	5
146	147	4
141	141	6
87	87	9
27	27	8
28	64	2
89	90	8
1	1	7
62	71	5
46	46	9
18	51	1
4	4	7
68	68	6
142	154	1
136	136	6
134	143	1
133	133	9
45	143	2
19	19	17
2	2	5
83	88	1
147	153	8
143	154	2
100	101	1
120	120	12
9	9	19
106	106	10
77	77	13
142	143	2
64	64	8
124	126	1
37	50	5
51	54	4
31	40	3
121	122	1
131	132	1
55	55	9
113	113	4
7	30	7
16	67	1
6	6	5
98	101	1
83	83	8
81	81	10
35	35	11
103	104	4
158	158	14
41	42	2
28	28	5
147	148	1
39	52	2
63	64	1
21	21	3
128	128	3
127	127	7
109	109	6
42	43	4
48	54	1
150	150	13
122	122	15
42	69	4
84	84	8
63	70	2
18	20	3
45	45	9
51	51	4
34	34	9
11	12	6
132	134	3
110	110	10
12	15	1
16	20	2
95	95	11
125	126	4
101	101	6
155	156	3
56	56	4
112	142	1
53	66	2
140	140	12
152	152	10
53	53	8
14	15	2
38	40	1
11	11	3
42	52	4
62	63	1
103	111	3
12	44	4
108	110	2
113	118	1
33	34	3
19	35	5
137	138	4
131	131	2
136	137	1
144	148	2
56	70	3
124	125	5
145	145	3
76	76	3
52	52	7
22	87	2
117	117	3
30	55	2
75	75	11
49	54	2
109	110	6
93	94	6
101	127	3
116	116	6
87	88	2
38	53	1
95	102	3
104	104	1
12	72	3
124	147	1
154	154	1
157	157	6
25	25	5
92	92	3
127	128	4
118	141	2
134	135	1
43	43	3
146	146	12
22	22	10
31	53	11
156	156	9
134	134	4
36	51	3
117	119	2
5	5	14
79	111	3
135	137	2
79	79	8
10	11	6
11	42	2
135	135	3
105	123	2
131	134	5
91	92	2
41	69	1
20	20	6
119	119	8
123	127	1
18	18	5
117	120	8
135	136	6
124	127	4
57	57	7
80	81	2
86	86	5
100	100	9
108	108	4
113	115	8
79	106	1
114	114	3
129	130	4
49	67	3
70	70	2
108	109	9
78	79	1
42	50	2
65	65	1
107	107	7
93	97	1
120	121	3
68	69	1
81	82	2
79	81	3
126	126	3
81	86	2
124	124	19
31	31	12
53	54	2
142	147	3
23	23	8
39	41	4
42	42	2
41	46	3
145	147	3
15	15	4
79	80	4
0	0	6
43	64	1
105	106	1
89	89	8
80	80	9
116	117	3
33	33	3
98	98	8
83	84	6
138	138	6
37	38	2
38	38	6
25	113	6
106	129	1
42	61	3
33	35	4
157	158	1
52	54	2
1	2	6
71	110	2
94	94	9
31	36	2
36	50	6
44	44	7
26	28	2
31	37	1
91	91	4
29	54	5
102	102	3
155	155	14
50	53	2
132	132	7
53	70	4
123	126	4
142	149	3
141	143	1
29	29	5
97	98	5
75	155	1
46	48	4
117	130	1
78	78	5
105	105	8
39	39	2
21	22	3
111	133	4
106	111	5
81	87	1
34	120	2
63	63	4
67	71	2
12	50	1
36	37	4
48	49	1
88	88	5
118	142	2
48	48	5
97	125	1
32	33	1
22	23	3
15	16	6
99	99	7
142	142	4
117	153	1
85	85	4
128	129	2
109	111	1
69	69	3
113	120	1
40	40	10
37	51	3
88	89	2
50	50	4
73	116	1
30	95	2
113	114	1
96	96	5
5	6	5
149	149	3
47	47	2
116	119	1
49	49	5
12	12	4
71	71	1
16	16	6
108	111	1
26	26	5
3	96	1
36	41	1
41	41	4
104	105	3
120	142	4
40	48	2
45	46	1
10	39	1
90	125	2
18	19	1
106	107	2
26	29	2
90	90	7
119	120	1
34	35	4
35	52	3
85	127	3
72	72	1
115	115	3
17	17	4
72	73	3
8	40	2
144	144	4
54	62	1
137	137	4
156	158	2
126	127	1
37	37	6
7	7	4
29	72	4
57	108	2
50	51	1
79	97	3
67	68	2
86	93	1
93	93	5
15	120	1
78	85	1
97	97	2
115	117	2
132	155	2
119	152	1
145	146	4
24	113	1
151	151	7
112	116	2
62	70	1
90	95	3
63	67	1
57	70	2
85	87	1
26	70	2
90	91	1
52	84	1
36	39	3
129	129	1
102	124	2
86	89	2
31	41	1
130	130	4
8	8	2
121	121	8
10	10	1
54	55	3
113	116	1
94	95	1
123	123	5
130	131	2
156	157	2
25	115	2
30	54	1
16	18	1
32	53	1
54	56	1
101	102	1
153	153	3
30	30	2
85	125	1
13	28	1
143	144	1
39	50	1
48	51	2
142	153	3
108	112	1
7	39	1
147	147	2
36	36	2
13	72	1
73	73	6
31	55	1
57	69	1
2	54	1
108	124	2
3	95	2
76	84	1
32	91	2
29	71	1
16	120	1
84	94	3
125	125	2
105	142	3
77	104	1
143	148	1
151	152	2
13	113	3
89	91	1
111	111	2
102	127	2
66	71	1
79	86	1
18	35	1
3	26	1
3	24	1
7	50	2
132	133	1
23	24	1
133	134	1
24	28	1
131	150	1
32	54	5
95	124	1
134	136	1
31	56	1
76	77	3
22	45	1
119	141	1
110	116	1
48	71	2
57	63	1
37	54	1
16	71	2
135	144	1
143	150	1
26	115	1
105	128	2
152	153	1
67	67	2
82	88	1
56	61	1
140	141	1
110	142	1
141	142	1
24	46	1
143	143	1
42	68	1
54	54	1
17	18	1
9	10	1
32	32	1
19	20	1
91	93	1
86	103	1
22	85	1
119	124	1
108	121	1
