42	43	1
64	67	6
162	162	1
21	21	6
148	148	8
65	66	6
29	125	3
18	18	4
39	39	8
104	104	5
136	137	3
83	140	2
102	102	12
8	8	9
37	39	2
1	1	7
71	71	1
23	23	12
15	15	8
175	175	4
95	100	2
104	114	2
177	179	2
166	166	5
30	30	7
18	19	5
130	130	7
14	33	1
10	10	5
133	134	3
39	40	6
29	29	2
44	44	1
108	108	13
126	126	7
39	95	2
36	38	1
147	147	1
144	146	2
41	41	10
153	153	7
123	135	2
117	117	4
6	6	2
29	31	1
149	149	1
154	155	4
85	85	2
96	99	2
109	111	3
110	110	3
78	142	1
10	42	4
37	72	2
4	174	1
31	37	2
106	115	3
171	171	5
111	111	3
146	146	4
23	25	3
86	86	5
43	43	15
6	7	2
90	90	7
132	136	2
150	150	2
35	35	9
60	61	6
84	84	7
31	31	3
164	164	6
29	126	1
2	4	1
29	30	1
168	168	5
176	176	6
102	117	6
124	125	3
73	73	5
13	13	5
38	38	8
54	54	4
141	141	7
58	86	3
84	142	6
12	14	1
17	17	6
131	157	1
26	34	2
140	161	1
93	93	8
32	32	2
28	143	3
94	94	4
8	9	4
170	172	1
3	4	7
116	117	2
134	134	5
75	75	2
91	91	4
5	5	1
139	139	10
41	42	2
87	89	3
11	12	2
42	42	7
36	36	8
153	155	2
83	86	2
109	109	5
138	138	4
45	45	5
76	77	4
170	179	1
63	65	2
161	163	1
110	111	1
58	96	1
37	37	6
96	96	1
27	28	10
57	58	2
39	102	1
4	4	2
127	127	4
79	81	2
70	71	4
89	145	2
26	26	1
16	16	6
29	151	2
142	142	10
27	41	4
21	118	1
140	140	4
137	137	6
119	119	3
26	27	2
3	3	3
27	27	7
85	102	3
131	131	2
14	14	5
66	66	1
165	165	1
78	79	3
55	57	2
18	39	3
112	145	1
125	176	4
155	155	1
132	138	3
10	39	2
87	87	4
101	101	11
1	5	2
156	156	2
58	59	3
9	11	1
113	115	2
32	33	7
95	96	1
163	166	1
3	5	3
96	116	3
125	125	2
12	12	1
101	107	8
20	20	4
14	15	1
108	115	1
19	23	3
161	161	1
24	42	2
107	107	4
159	159	2
12	13	5
40	41	2
125	131	4
25	30	2
145	145	7
74	74	2
163	163	4
24	25	7
50	51	1
88	144	7
93	94	5
55	56	2
152	153	3
22	22	4
63	63	3
164	165	1
58	61	2
37	38	4
36	37	3
109	147	1
172	172	4
24	26	2
122	122	5
89	116	1
83	83	3
67	71	1
119	150	1
71	72	2
133	133	1
160	160	2
15	23	3
156	157	1
19	19	6
114	114	1
10	28	1
40	40	3
2	5	2
25	26	1
34	34	3
9	9	2
130	170	2
173	174	1
25	25	1
120	120	2
1	2	3
44	45	1
103	103	4
5	7	1
3	35	2
16	21	2
94	96	3
13	41	1
5	6	3
107	114	3
0	1	2
138	139	1
81	82	4
152	152	1
18	20	1
119	120	5
139	180	2
113	113	2
160	164	1
108	122	1
155	156	1
126	127	1
172	176	2
58	118	1
135	136	1
150	151	1
128	135	1
43	134	3
27	30	1
127	129	1
96	105	4
153	159	2
142	148	4
171	172	1
92	107	1
99	99	2
148	153	2
129	170	2
16	41	1
43	45	1
66	87	1
136	179	1
142	143	2
16	36	2
57	59	1
24	24	4
173	173	4
154	154	2
96	97	3
81	84	1
18	32	1
95	95	2
27	31	1
119	159	2
89	89	1
128	128	2
61	61	2
45	46	1
6	99	4
135	135	1
125	126	1
28	34	2
2	2	4
93	106	1
118	119	1
98	98	2
7	8	4
157	157	5
97	97	1
132	137	1
79	79	3
118	126	2
88	88	1
118	118	2
106	107	2
103	104	2
170	178	2
84	86	1
179	179	1
52	52	1
4	172	1
30	31	2
90	94	1
28	30	1
11	34	1
9	38	1
100	103	1
11	11	2
132	132	1
168	169	1
139	140	1
62	63	2
4	173	1
97	98	1
140	166	1
100	101	1
129	129	1
162	165	1
167	167	1
178	178	1
171	180	1
160	161	1
88	101	1
81	147	1
109	112	1
12	39	1
59	59	2
19	21	1
65	65	1
86	89	1
0	29	1
169	169	1
53	53	1
124	124	1
72	73	1
