244	244	10
46	46	2
169	169	3
173	173	15
208	208	3
62	62	8
42	42	11
163	164	3
166	168	2
193	193	8
184	184	6
38	38	2
197	231	1
176	177	4
179	180	3
96	97	1
156	156	11
185	236	2
16	16	13
193	195	4
56	67	3
212	212	14
57	57	8
22	22	7
145	145	9
33	33	20
49	49	5
35	119	4
169	175	3
5	111	1
32	222	4
115	115	1
221	221	7
70	70	13
185	199	1
112	112	8
215	215	13
80	80	3
10	10	9
17	38	2
171	173	2
7	24	1
66	66	5
90	90	3
33	179	2
27	27	5
31	145	1
191	210	4
175	175	2
97	97	4
81	82	1
240	240	11
14	15	1
172	172	5
114	114	2
181	181	9
239	239	7
213	231	3
160	160	9
167	167	3
4	5	10
54	54	10
34	34	3
207	207	11
217	218	1
237	238	3
180	180	5
197	197	6
69	72	2
15	62	2
216	239	2
232	233	4
82	82	6
63	100	1
189	190	6
154	154	10
68	68	5
35	35	4
178	178	9
21	21	7
174	174	7
73	77	3
32	32	7
236	245	4
41	90	3
30	30	3
188	188	7
59	59	8
208	209	8
94	94	5
209	233	2
51	51	5
152	169	3
235	235	1
6	117	1
199	199	16
223	223	2
82	85	4
73	75	2
202	202	6
151	159	1
10	40	4
238	238	12
85	86	5
60	60	10
204	204	6
12	12	5
161	161	8
110	110	3
162	163	7
214	214	5
47	47	5
40	40	7
219	219	11
247	247	5
192	192	4
155	202	2
34	35	7
6	6	7
91	91	7
166	166	4
165	178	2
80	110	4
168	169	2
19	19	3
65	65	6
29	77	4
84	102	2
84	99	4
217	217	4
36	223	1
187	187	9
72	84	2
3	3	2
17	17	5
231	241	1
210	214	6
157	157	5
102	108	1
2	49	1
120	120	7
196	197	1
230	230	4
158	159	2
80	81	5
213	214	1
167	168	1
223	247	6
208	210	2
153	153	15
229	229	9
191	195	3
204	205	1
199	203	2
170	170	3
233	233	4
243	245	4
198	199	2
15	15	5
177	177	13
101	101	5
26	26	14
48	48	6
241	241	5
50	50	6
246	247	5
210	211	2
243	244	1
230	246	2
185	186	2
45	85	3
189	196	2
144	144	4
113	113	3
218	245	2
164	164	8
41	65	1
37	37	4
234	234	4
151	151	3
1	54	2
220	220	5
5	5	1
180	212	2
236	237	1
245	245	8
195	195	2
162	162	6
81	111	3
9	10	2
26	27	3
116	116	8
13	49	4
97	98	1
9	9	3
82	87	2
216	216	5
246	246	6
28	28	5
225	225	11
18	18	4
23	23	2
77	92	1
7	7	6
185	212	2
222	222	3
60	68	1
211	211	6
80	84	1
103	203	1
200	202	1
186	189	2
152	194	1
61	78	7
24	25	1
196	196	7
119	119	7
8	8	4
69	79	1
25	27	2
176	176	2
167	249	2
12	19	4
249	249	4
10	23	4
185	185	3
179	179	1
4	4	2
173	174	4
155	155	9
237	246	2
11	12	4
44	44	9
96	105	1
168	168	9
152	158	1
175	220	1
152	192	3
15	19	1
161	236	1
15	97	4
58	58	6
118	118	4
55	78	3
242	242	3
61	72	1
231	231	8
25	26	1
159	159	2
78	78	3
156	234	3
240	241	2
0	1	1
84	84	3
98	98	2
93	144	2
203	203	4
155	246	2
200	200	2
77	77	3
46	47	1
41	41	4
27	28	1
69	69	2
85	85	3
20	20	3
237	237	5
227	241	4
150	226	1
34	37	1
51	85	1
95	113	4
17	59	2
43	43	1
45	45	1
213	213	6
195	208	1
47	48	1
111	116	5
175	244	1
16	17	1
153	160	2
216	217	1
50	105	2
162	182	3
107	107	1
151	182	1
227	227	7
79	82	2
30	106	2
34	60	2
36	36	7
152	152	7
224	224	5
70	108	1
38	85	1
48	74	1
55	56	4
189	189	2
40	57	4
194	194	3
55	55	1
164	213	3
117	117	2
87	87	1
38	86	1
92	92	2
83	89	1
31	31	4
234	235	1
107	111	3
71	75	1
160	163	1
28	44	3
14	20	2
173	176	1
50	51	1
165	165	3
76	77	2
161	162	2
209	209	4
242	244	1
102	104	1
188	189	4
71	72	1
64	64	6
64	66	3
199	202	1
108	108	6
198	198	3
219	220	1
158	239	1
75	75	8
191	191	3
39	48	3
105	107	1
194	195	1
210	231	4
228	247	3
83	118	3
149	149	2
53	100	1
186	186	5
160	193	3
171	171	5
8	44	1
182	182	6
53	53	3
13	13	1
186	187	1
225	226	1
193	243	1
60	76	2
39	39	1
54	67	1
63	63	3
17	113	1
89	89	2
111	111	4
48	100	1
220	235	1
22	23	1
228	228	2
184	185	1
14	14	1
195	196	2
197	200	2
27	205	1
20	47	1
30	60	2
81	86	1
47	75	1
7	8	1
213	248	2
236	236	3
109	109	3
153	235	1
201	201	4
93	93	4
12	18	1
163	172	1
114	115	1
230	231	1
174	201	1
102	106	2
52	53	1
218	218	3
238	239	2
199	200	2
218	219	1
194	199	2
164	214	1
51	52	1
13	14	1
197	208	1
163	165	2
227	229	1
47	119	2
117	118	3
79	79	1
105	105	1
166	178	1
108	112	1
35	37	1
7	46	1
113	114	2
179	200	1
110	111	1
158	158	1
102	102	1
162	186	1
18	60	1
147	147	1
206	207	1
171	177	3
212	213	1
247	248	1
166	248	1
225	236	3
176	178	2
88	88	3
159	192	2
35	239	2
56	56	1
99	101	1
169	240	1
6	7	1
158	238	1
220	221	1
29	29	1
160	164	1
4	14	2
165	213	1
226	226	2
60	77	1
18	61	1
162	190	1
155	204	2
34	49	1
159	214	1
150	151	1
8	30	1
152	153	1
200	201	1
211	244	1
159	160	1
203	204	1
121	202	1
245	246	1
178	179	1
99	108	1
115	116	1
79	80	1
103	103	1
86	86	2
162	248	1
71	71	1
25	25	2
156	200	1
2	69	1
209	215	2
118	119	2
166	175	1
96	103	1
60	69	1
96	104	1
44	48	1
85	94	1
78	108	1
184	217	1
165	166	1
105	106	1
241	245	1
207	246	1
