244	247	3
203	203	25
47	77	5
200	200	11
211	211	27
162	162	24
239	240	7
118	119	15
21	22	9
152	153	7
223	229	4
10	10	11
169	169	17
100	100	20
44	45	3
198	245	3
195	195	23
18	18	12
109	111	3
202	212	1
196	196	19
185	185	25
52	52	9
32	32	18
90	90	10
159	160	8
11	15	2
78	78	31
144	144	7
33	34	2
61	61	16
180	221	6
227	230	6
248	248	16
187	190	2
16	17	8
74	77	4
3	4	2
178	178	26
71	72	6
156	156	42
233	234	8
241	241	16
151	212	2
158	182	3
97	97	13
152	240	5
118	118	20
194	194	14
85	86	3
146	146	14
193	193	28
228	228	8
113	114	7
192	192	18
157	157	12
56	57	16
54	54	24
206	207	6
19	30	1
114	114	21
163	163	14
3	35	2
75	75	9
187	187	20
176	213	2
84	84	15
155	155	25
213	213	26
97	98	10
87	88	11
112	112	29
115	120	1
181	181	29
86	86	24
23	40	2
239	239	12
198	199	3
159	159	14
164	164	18
98	98	15
195	196	6
209	209	21
87	179	3
182	184	7
106	107	15
50	50	12
160	160	17
109	109	40
204	204	17
176	177	15
175	175	27
88	88	17
59	59	8
176	176	16
65	65	15
187	189	6
153	153	10
163	167	5
88	102	1
199	199	13
37	37	17
246	246	25
36	36	24
14	14	11
201	201	28
170	170	26
243	244	5
17	17	14
74	90	4
5	18	3
58	60	3
185	230	3
166	166	21
165	200	2
235	235	19
236	236	12
210	211	2
68	69	9
191	192	6
21	21	12
214	215	12
179	179	14
208	208	29
152	204	3
60	60	35
93	93	15
211	212	2
183	207	2
20	21	9
186	186	7
23	23	7
57	57	5
95	97	1
17	31	6
245	245	20
151	151	20
42	42	14
63	82	2
233	233	9
171	171	12
70	71	4
69	73	4
2	2	16
242	242	18
169	231	2
68	68	11
217	221	4
104	105	5
105	105	12
29	29	13
184	209	1
218	219	10
53	53	13
234	235	4
193	194	2
15	16	4
226	226	16
168	168	18
197	210	3
91	92	4
70	70	14
55	55	9
95	95	12
104	104	5
71	76	1
180	180	34
110	110	7
236	248	1
60	61	4
101	101	16
154	154	15
236	246	1
144	145	5
245	246	9
56	56	14
167	167	23
105	106	5
6	6	12
43	43	17
58	58	4
145	145	15
191	196	4
4	4	16
12	12	9
77	165	3
22	22	7
50	58	4
170	171	9
194	195	7
92	92	9
24	38	2
90	91	2
26	26	16
89	89	11
217	218	3
0	0	1
243	243	7
8	10	4
238	238	23
179	201	4
227	228	1
188	188	17
189	190	16
221	223	3
207	207	16
209	211	8
173	173	19
230	230	17
197	198	7
52	53	3
62	62	10
50	57	2
155	156	2
100	101	7
45	45	24
76	76	13
164	178	3
173	188	9
73	73	14
87	147	3
51	57	1
51	51	12
61	62	3
86	179	3
190	190	16
70	75	4
165	181	2
31	31	6
91	91	16
86	107	5
108	108	15
32	46	8
225	225	18
48	76	2
114	115	4
202	204	1
113	113	14
224	225	6
216	216	7
165	165	11
235	241	3
19	19	16
69	70	14
15	205	4
72	73	8
63	63	10
66	76	1
161	161	11
246	247	4
47	47	10
216	238	2
65	104	5
205	206	4
79	79	11
184	185	8
39	40	2
104	106	4
234	234	8
116	116	21
38	38	13
181	182	16
182	182	27
85	85	15
189	189	4
166	180	3
157	158	2
163	166	3
115	117	4
7	7	19
48	75	1
46	79	2
9	32	3
240	240	20
176	215	8
114	156	2
107	107	19
177	191	6
99	99	3
210	210	11
225	226	5
62	63	4
197	197	11
56	101	2
102	104	4
34	34	6
8	8	10
117	117	12
166	167	2
167	169	3
229	229	9
226	233	2
194	199	3
164	167	4
81	82	8
27	27	8
30	203	1
53	54	4
96	96	19
203	204	10
214	214	16
9	9	17
10	11	2
236	237	7
154	155	3
176	189	6
73	89	2
247	247	16
169	170	7
57	71	2
183	183	15
156	157	1
87	87	9
223	225	3
226	227	3
116	119	3
115	115	10
168	169	8
174	175	1
198	202	1
48	48	6
213	217	3
40	40	6
232	232	12
121	121	2
185	186	8
66	66	9
5	5	10
164	165	5
76	77	10
172	172	19
195	247	1
215	215	3
102	103	4
196	197	7
244	244	12
41	42	4
72	72	12
82	82	5
40	70	5
161	162	2
238	248	3
30	30	6
202	203	3
119	120	3
242	243	8
8	9	6
192	195	4
29	32	2
68	217	2
57	58	4
103	103	8
108	245	4
224	224	5
69	69	10
62	69	4
17	29	2
219	219	13
69	71	2
201	207	4
153	154	7
15	15	7
49	49	25
152	159	3
109	110	2
188	190	1
47	78	3
15	24	1
236	245	3
28	28	10
21	41	3
231	231	5
204	205	10
67	68	4
119	119	13
198	198	7
175	176	8
86	87	10
176	186	3
94	95	5
165	182	3
20	20	6
218	218	9
150	150	18
198	200	7
237	237	13
4	18	4
212	212	7
215	216	2
183	184	7
239	246	4
13	14	5
181	184	2
83	83	8
181	203	2
205	205	18
24	24	12
76	165	1
156	176	1
75	86	3
49	50	6
187	188	15
202	202	10
203	205	2
102	102	6
46	46	18
170	248	2
120	145	2
107	108	11
174	174	9
44	153	2
120	120	12
16	16	5
207	232	2
84	85	8
220	222	2
166	186	2
156	210	3
79	80	2
117	119	3
89	90	2
47	48	2
216	217	7
77	77	4
164	166	1
18	19	4
222	222	10
115	116	8
168	183	5
244	245	4
237	244	2
220	221	2
223	223	4
60	62	4
208	211	2
48	49	5
41	41	10
238	239	8
193	197	1
106	108	2
152	152	5
10	29	2
77	78	6
211	231	2
223	224	2
209	213	1
47	64	1
110	111	1
11	11	10
45	46	4
74	74	10
50	51	2
44	44	8
193	195	1
209	212	2
158	159	6
67	67	16
26	27	1
64	64	13
179	181	2
188	189	4
0	1	5
212	214	1
4	14	3
31	32	7
209	232	2
64	65	6
80	80	3
106	106	7
155	161	2
247	248	1
210	238	1
149	149	2
1	1	4
169	214	4
91	95	2
65	67	1
79	86	1
221	221	7
34	35	1
81	81	4
220	220	12
87	114	3
188	191	1
73	90	1
9	10	5
87	109	5
177	177	9
79	82	6
192	194	4
49	76	1
168	192	3
180	181	3
111	111	12
41	89	4
81	93	3
109	112	1
70	73	1
174	183	2
190	192	2
25	25	6
227	227	8
241	242	3
177	178	5
236	249	3
165	166	2
43	44	6
165	167	5
171	172	8
79	83	2
39	39	11
156	161	1
29	40	2
172	173	5
180	182	2
174	190	1
158	158	20
170	234	1
206	206	7
146	176	1
62	75	3
72	90	2
184	184	23
217	217	16
76	85	2
5	33	9
205	229	2
214	216	1
73	74	2
82	84	3
17	18	1
40	41	2
38	39	7
160	164	3
221	222	5
59	101	3
208	232	2
33	33	7
160	181	1
150	225	1
237	241	2
215	217	4
112	114	1
196	208	1
73	98	1
150	151	1
75	76	2
160	186	1
211	232	2
55	95	2
110	244	2
22	40	1
75	85	2
18	20	1
3	3	5
35	35	13
222	223	2
11	12	3
163	165	4
113	188	1
231	232	3
192	244	2
186	190	3
80	82	2
230	232	1
179	180	5
55	62	1
66	71	2
7	8	5
99	100	3
212	213	2
173	174	2
186	221	1
33	193	2
109	247	1
169	171	2
41	55	5
58	59	2
46	47	2
244	246	1
187	192	3
95	96	4
211	244	1
71	71	3
205	228	1
64	66	1
211	246	1
94	94	6
6	7	4
168	179	2
37	89	2
213	232	3
32	61	6
4	5	3
200	235	3
151	235	4
154	246	2
51	105	2
55	59	1
63	228	1
4	7	2
180	204	1
208	217	4
111	112	1
88	89	5
63	64	2
79	85	2
94	97	2
17	38	2
175	181	2
3	111	1
101	102	2
157	193	1
225	227	1
83	84	1
103	104	1
86	108	1
72	97	1
213	214	4
151	152	2
185	187	2
14	203	1
72	96	1
30	31	4
236	244	2
97	214	2
237	238	4
83	90	2
101	107	1
160	161	3
108	109	3
87	207	1
42	43	1
159	214	1
108	110	2
74	75	4
75	78	1
199	200	4
33	37	1
194	205	2
181	185	1
173	175	1
178	179	3
51	56	3
42	44	1
26	56	3
96	97	6
35	50	1
191	191	5
162	188	4
243	249	1
5	34	2
242	244	3
157	178	1
210	219	3
78	196	1
57	62	3
201	203	1
196	239	2
19	20	1
6	16	1
47	56	1
47	51	1
1	32	2
162	163	5
163	164	6
208	209	3
190	191	2
119	144	2
47	110	2
84	97	2
207	208	2
186	207	1
96	104	1
60	63	3
182	183	1
17	22	3
53	226	3
170	232	2
37	39	1
94	114	3
232	233	5
77	164	2
43	220	1
102	106	2
19	110	1
24	25	3
208	216	1
178	181	1
149	150	1
166	171	1
229	230	1
95	99	2
90	95	3
145	147	1
65	66	3
54	55	2
93	94	3
167	168	1
87	101	3
101	104	1
98	99	3
146	147	5
236	239	2
89	115	3
181	187	2
57	107	3
193	196	1
200	201	2
239	242	1
16	32	1
155	185	4
82	83	3
240	241	3
8	207	1
167	195	2
166	170	1
167	194	1
219	220	4
50	53	2
212	223	1
10	109	1
71	73	1
38	87	1
208	240	1
11	206	1
48	77	1
37	38	5
116	162	2
152	158	2
58	74	2
113	115	1
207	223	2
101	103	1
175	178	2
51	52	1
56	58	1
25	26	2
209	233	1
228	229	2
208	213	3
112	147	2
58	71	1
66	67	1
238	240	1
203	209	2
2	35	1
157	160	1
56	69	1
5	6	2
55	56	1
7	26	1
164	207	2
29	31	1
109	113	1
149	152	2
79	81	3
44	150	1
70	92	2
78	81	1
188	193	1
215	237	1
87	89	1
238	241	1
47	79	3
165	201	2
183	193	1
85	161	1
27	28	1
72	98	1
222	224	1
167	201	1
44	46	1
170	215	1
230	231	1
153	179	3
147	153	1
217	219	2
207	212	1
149	157	1
85	96	2
91	96	2
43	45	1
153	204	1
12	16	1
80	85	1
174	182	1
86	161	1
80	81	3
88	90	1
13	34	1
230	233	1
147	147	1
158	165	1
241	244	2
15	33	1
9	205	1
179	193	1
15	202	1
72	74	2
28	159	2
91	93	1
81	95	1
110	237	1
29	30	1
162	186	1
226	228	1
192	193	1
116	120	1
2	14	1
201	202	1
37	40	2
8	70	1
163	173	1
27	32	2
32	36	1
4	34	1
35	236	2
44	222	1
111	113	1
198	230	1
158	187	2
35	37	1
208	212	1
157	196	1
210	239	1
209	239	1
182	186	1
92	94	1
189	247	1
175	199	1
180	192	1
178	199	1
189	239	1
21	23	1
97	99	1
158	177	1
213	215	1
182	202	1
235	236	1
243	245	1
9	106	1
183	198	1
50	73	1
92	96	1
