79	114	2
7	7	24
74	74	21
106	124	2
26	26	24
6	7	8
76	77	12
6	6	19
15	15	15
6	31	4
56	56	7
94	95	6
103	103	8
7	8	11
18	18	13
20	21	7
44	44	9
102	134	4
93	93	35
74	75	9
35	36	5
100	100	13
84	99	1
62	63	6
112	112	12
94	94	22
84	84	12
110	132	5
98	98	14
130	131	4
32	32	10
57	57	13
86	88	1
55	55	11
19	41	4
97	97	10
11	93	7
107	107	6
29	29	22
19	19	14
28	28	18
86	86	14
95	96	5
41	43	5
41	41	16
1	1	7
71	72	3
83	83	10
119	119	15
109	109	9
112	113	6
13	14	6
80	80	25
91	91	24
46	46	29
125	126	6
61	61	10
76	76	7
40	40	21
60	82	6
47	48	8
30	30	14
111	111	10
16	16	19
10	11	11
113	117	4
96	96	21
91	98	2
42	42	14
68	69	2
13	26	2
45	45	23
83	102	3
75	75	16
123	123	7
78	113	8
119	120	5
102	102	11
77	77	7
79	79	8
37	37	9
3	92	3
78	78	11
125	129	4
9	9	7
15	17	6
13	36	2
132	133	4
12	14	1
104	105	9
66	66	20
31	31	21
99	100	16
96	97	6
129	129	2
126	126	12
24	24	5
115	115	14
83	84	6
38	38	9
36	36	9
77	80	3
64	64	17
94	100	1
1	10	2
49	49	7
4	5	11
71	71	16
95	95	18
3	25	1
112	114	5
86	87	8
75	76	11
5	6	4
60	60	15
29	100	3
63	63	8
110	110	6
19	44	3
127	128	3
111	132	6
11	71	6
62	62	18
23	32	9
81	83	4
120	121	3
45	46	8
101	101	14
131	133	7
20	38	2
23	26	1
26	62	5
107	108	3
35	35	13
42	62	1
92	92	6
34	34	18
118	118	9
125	125	12
28	29	6
124	124	15
90	91	1
72	72	14
57	59	3
117	117	10
59	59	15
77	78	11
85	85	18
0	0	5
28	83	2
99	99	12
37	38	5
120	120	23
23	23	9
65	65	15
26	28	4
11	12	2
85	86	1
123	124	7
36	37	4
128	128	12
88	88	8
39	39	7
20	20	12
94	99	1
30	60	5
5	5	11
133	133	6
129	132	2
30	31	2
17	17	12
80	82	2
97	122	2
96	101	1
106	106	10
90	106	5
116	116	12
132	132	11
2	45	3
42	43	4
5	83	6
28	62	2
22	22	7
99	101	1
130	130	6
43	43	24
12	12	17
33	34	6
87	87	7
73	73	16
127	131	3
97	99	4
47	47	15
81	81	8
16	41	4
19	20	9
112	115	2
3	3	12
41	42	9
82	82	10
48	48	8
82	83	3
26	93	1
15	16	9
134	134	4
11	11	32
4	18	1
122	123	11
98	124	7
4	4	6
46	61	4
69	69	1
50	50	6
58	58	6
18	32	2
94	101	1
32	33	2
70	73	2
4	33	3
78	79	2
92	93	8
3	4	4
44	45	11
108	108	3
93	94	6
18	20	2
70	70	7
59	64	5
3	18	3
4	43	1
62	73	1
67	68	8
18	19	3
29	66	5
18	63	2
98	99	11
10	10	11
118	119	3
7	104	2
121	121	3
38	39	2
24	25	3
13	13	14
23	25	4
21	22	4
127	129	1
33	40	1
48	77	1
67	67	11
21	21	10
29	30	7
111	112	1
33	33	10
72	73	6
131	131	9
16	72	3
0	46	5
15	36	5
27	27	20
96	98	2
60	74	2
76	85	1
41	48	4
95	98	1
8	8	19
63	70	3
89	91	4
43	72	2
64	67	1
36	42	2
25	92	2
17	34	2
79	80	4
3	61	3
2	2	4
44	72	4
126	129	3
92	132	1
127	127	5
27	28	4
73	118	1
57	58	1
25	25	7
114	114	6
33	61	3
20	42	1
89	92	3
27	45	1
90	90	10
8	10	1
129	131	1
102	130	2
25	26	5
116	117	4
70	71	1
105	105	7
104	104	5
91	105	2
104	128	1
20	81	1
20	37	2
18	43	2
78	101	6
102	131	1
101	130	3
8	9	2
68	68	15
84	86	2
113	116	2
89	90	3
3	91	1
69	70	3
27	29	8
88	94	1
110	131	3
121	124	2
60	61	1
124	125	4
16	23	4
15	24	7
49	81	7
18	74	2
89	109	1
91	101	2
11	34	3
29	49	3
18	31	1
31	32	17
65	66	1
6	8	1
81	82	3
21	82	3
46	71	3
22	44	5
14	93	5
16	17	3
123	125	2
5	82	1
98	100	4
29	46	1
86	107	1
122	122	6
117	118	2
3	27	1
91	92	4
101	102	3
113	113	5
29	79	1
30	33	1
114	116	1
4	84	3
85	87	6
40	41	1
34	35	4
4	30	3
41	82	1
26	99	2
7	65	4
25	80	1
77	99	1
9	19	1
97	98	6
43	44	4
48	85	1
29	43	1
61	82	1
45	71	2
129	133	1
16	29	3
9	10	2
119	121	2
113	114	2
30	43	1
64	65	3
19	31	3
0	64	1
3	48	1
10	34	1
40	42	1
66	83	2
66	67	2
27	89	1
39	105	2
82	119	3
84	85	2
18	44	1
130	132	2
1	64	1
106	131	5
19	34	2
5	25	1
61	72	2
76	118	2
48	93	2
63	71	2
62	64	3
77	115	2
48	76	2
115	117	4
22	25	1
76	78	2
58	59	4
107	124	1
48	50	1
84	90	1
2	17	1
121	122	3
25	29	1
40	81	2
11	26	1
101	103	1
14	23	1
77	82	1
87	88	2
16	33	2
54	55	1
55	56	1
46	99	1
73	74	4
89	89	1
47	92	1
84	104	2
80	81	2
10	85	1
101	126	2
62	72	1
88	105	1
0	1	3
108	110	1
46	47	1
12	61	1
29	60	2
2	3	2
58	60	1
14	15	1
77	85	1
26	27	1
17	23	1
129	130	1
110	111	1
10	21	1
84	103	1
108	130	2
11	47	1
109	133	1
28	45	1
121	123	1
91	109	1
102	103	1
12	13	1
20	40	1
8	36	1
120	125	1
