171	171	2
130	136	1
32	32	8
76	86	1
131	131	1
112	112	6
122	125	2
132	132	5
67	143	2
150	151	1
28	28	6
92	92	3
98	98	7
167	167	3
2	2	2
78	79	3
32	33	2
77	158	1
110	110	9
175	175	6
34	35	5
29	29	2
163	163	3
133	133	4
78	156	1
169	169	6
19	111	1
15	38	3
59	60	5
66	67	1
130	131	2
114	115	1
27	28	1
23	24	2
23	175	1
56	56	6
54	63	1
188	188	3
133	140	5
3	3	1
100	104	2
156	171	2
176	176	2
31	31	1
30	30	5
84	84	2
25	25	2
142	143	1
0	0	5
17	17	6
97	97	8
106	106	4
144	144	5
108	108	3
18	35	1
179	180	1
130	133	1
18	117	4
68	69	2
85	156	3
169	178	1
13	13	2
114	114	1
35	175	1
163	171	1
125	127	3
142	142	1
121	163	2
163	180	2
7	7	3
161	180	3
65	65	1
48	48	4
37	41	2
99	99	2
35	35	3
38	38	1
182	182	4
155	155	4
163	164	1
102	102	2
157	157	5
180	180	2
86	86	6
168	168	2
165	165	2
58	59	5
25	42	1
31	38	3
186	186	2
60	60	3
147	147	9
5	102	1
71	73	2
58	75	1
145	145	1
89	90	1
174	174	7
125	125	3
26	26	1
26	41	1
91	91	2
46	46	2
117	117	1
158	158	6
190	190	3
77	87	2
154	154	2
72	72	3
103	103	2
12	21	1
11	11	2
153	187	2
39	40	1
36	37	3
27	27	6
161	161	1
123	124	2
23	41	1
96	97	1
96	100	2
137	137	2
118	118	2
4	4	2
16	16	5
175	176	1
12	46	2
89	89	2
77	77	5
66	74	2
174	185	2
82	82	2
188	189	3
86	87	1
172	173	2
121	190	2
183	183	4
67	67	4
65	67	4
157	158	3
173	184	1
65	82	1
78	78	2
41	41	1
124	124	1
56	57	2
170	183	1
79	79	3
170	170	1
84	85	1
93	94	1
12	102	2
44	44	1
132	141	3
115	136	2
33	33	1
125	126	2
72	80	1
5	14	1
118	131	1
10	10	1
58	58	3
28	90	1
121	121	2
133	134	2
134	134	1
148	148	3
19	20	1
149	149	3
28	44	2
61	61	1
31	32	2
71	80	1
116	117	1
25	68	1
32	114	1
122	122	1
79	83	1
189	189	2
19	93	2
28	110	1
69	70	1
75	75	1
22	22	1
153	155	1
8	11	1
130	130	2
53	53	1
8	48	1
29	48	1
36	36	3
12	12	1
62	85	1
52	53	2
156	156	3
107	108	1
172	172	2
55	55	3
5	5	2
150	150	2
107	110	1
42	42	2
166	167	1
15	15	1
173	173	1
156	181	1
6	6	1
23	163	1
154	188	2
145	149	2
80	83	2
4	5	2
0	133	1
71	71	1
123	123	2
43	43	2
111	111	1
48	112	1
5	8	1
6	27	1
18	22	2
19	19	1
24	76	1
110	111	1
87	88	1
118	120	1
3	7	1
30	104	1
67	119	1
46	65	1
114	140	1
128	128	1
153	154	1
179	179	1
