75	75	7
90	91	4
54	54	5
109	109	5
73	75	1
88	89	3
18	19	2
40	40	6
91	108	2
112	112	7
150	150	14
125	125	3
4	4	4
7	93	1
119	120	1
48	48	4
47	67	2
86	86	5
42	42	10
50	50	7
103	103	5
154	156	1
9	96	1
151	151	10
34	34	13
6	25	2
95	95	4
43	44	4
136	151	2
46	46	4
127	128	1
16	17	5
128	129	4
126	126	7
41	42	4
22	22	1
134	135	6
63	63	4
133	134	6
145	145	7
12	12	2
108	108	6
124	125	2
36	36	8
51	51	4
5	14	2
66	66	4
116	138	3
99	99	8
43	43	12
152	153	3
82	82	3
27	28	2
110	110	6
119	119	5
9	9	1
24	24	8
135	142	7
4	6	4
45	45	2
23	23	2
139	139	5
26	37	2
160	164	2
7	7	1
50	51	3
136	136	5
166	166	8
100	101	1
10	10	3
33	33	4
64	130	1
20	20	2
68	130	2
149	149	10
56	57	2
24	25	1
26	26	4
170	170	3
107	107	5
55	55	3
93	93	6
46	47	3
134	134	12
39	39	3
134	151	4
27	27	3
84	101	1
154	154	6
5	5	3
56	56	4
35	35	2
15	16	2
98	98	5
141	141	5
64	69	1
47	47	2
158	158	3
161	161	1
140	143	2
142	142	3
90	90	5
63	66	1
147	148	4
98	99	5
92	92	3
113	114	2
1	1	4
120	120	3
156	161	2
17	17	5
50	77	2
100	100	5
49	49	3
155	155	3
69	69	1
41	41	5
77	77	1
106	106	2
13	56	2
148	148	4
35	45	1
115	115	5
130	132	2
163	164	2
35	36	5
10	15	3
130	131	4
21	22	1
0	1	2
100	113	2
101	116	2
161	163	4
133	133	2
165	165	3
97	98	1
148	149	4
107	108	1
44	44	1
79	80	3
80	80	1
72	76	1
154	155	1
12	14	4
17	34	1
122	164	1
107	110	3
73	74	1
6	6	1
155	157	1
7	94	3
64	64	1
15	15	1
67	110	1
53	53	3
16	16	2
161	168	2
143	144	1
135	135	5
88	88	1
40	44	1
8	9	1
79	79	1
1	2	1
38	69	3
137	137	5
25	25	2
125	126	2
21	21	1
144	145	2
69	128	2
93	108	1
120	121	1
65	66	1
95	96	3
38	44	1
122	122	3
48	68	1
156	158	1
14	15	1
48	49	1
113	113	1
36	37	1
91	93	2
39	40	2
78	78	1
11	12	1
144	144	2
128	137	1
12	13	3
6	7	1
126	127	1
20	21	1
142	147	4
143	153	1
116	117	1
169	170	1
152	152	2
130	130	1
104	104	2
53	54	2
74	79	1
67	67	2
33	34	1
83	104	1
125	147	1
102	102	1
91	92	1
100	102	1
117	117	1
74	75	1
84	85	2
123	124	1
150	151	2
3	3	1
82	106	1
108	109	1
169	169	2
72	72	1
51	62	1
70	86	1
69	107	1
85	85	1
