43	43	20
24	56	2
95	96	12
103	104	5
20	38	1
36	41	5
17	17	17
24	24	10
66	67	2
77	77	9
37	37	13
78	78	7
100	100	9
111	130	2
146	146	7
95	95	3
97	97	14
12	12	7
128	128	5
113	121	8
22	38	2
83	84	3
91	91	7
31	43	6
14	38	4
34	35	2
137	137	12
111	111	19
96	97	1
23	23	11
141	145	5
80	80	12
39	40	3
49	57	1
3	3	9
82	82	3
105	105	7
79	79	9
158	158	10
138	138	13
72	72	4
152	152	3
11	13	3
11	11	14
35	35	3
89	90	1
113	113	14
10	12	2
11	25	3
32	32	12
85	85	4
28	28	17
40	40	14
139	139	9
46	46	7
65	129	5
130	131	3
38	54	7
16	17	7
134	134	8
67	89	10
129	129	12
98	98	6
35	107	1
156	157	3
153	154	5
36	36	7
15	15	3
132	140	1
150	150	12
125	133	6
144	145	6
148	149	3
30	37	2
144	152	3
65	65	4
131	131	14
116	116	31
132	134	4
1	4	1
102	102	7
11	14	3
23	50	6
50	51	5
45	45	5
34	34	14
96	96	9
81	137	1
13	13	4
54	54	3
16	20	4
52	52	7
147	147	8
39	50	3
146	147	5
131	133	7
8	18	2
141	157	5
25	31	2
25	67	1
123	144	5
87	87	8
96	132	2
108	118	1
3	14	1
108	108	7
63	137	2
83	83	3
67	68	4
104	104	7
151	151	11
118	146	2
54	86	4
18	19	7
49	54	1
40	78	6
29	31	4
132	144	2
122	122	10
22	39	3
3	41	3
81	82	1
86	86	11
142	142	12
67	67	5
95	130	5
26	26	6
103	103	9
38	45	5
106	106	5
55	55	5
144	144	4
105	106	1
1	1	9
113	131	2
72	73	7
136	136	10
9	9	9
5	44	2
137	138	5
120	120	5
27	112	1
53	55	2
49	49	3
110	111	4
154	158	4
8	11	2
90	90	18
136	147	3
87	91	3
99	99	14
86	132	4
9	89	2
40	50	3
62	62	5
109	109	17
18	34	3
54	90	3
129	130	1
119	119	6
121	121	16
93	93	12
93	98	1
90	93	5
31	31	7
101	101	15
69	69	7
28	29	7
54	62	1
11	12	8
156	156	10
84	84	3
151	154	2
79	127	2
63	63	2
30	30	6
137	147	2
107	107	23
115	115	12
20	21	5
140	151	1
32	40	1
9	14	3
154	155	6
22	22	10
122	144	3
112	132	6
3	4	4
10	38	3
67	137	1
6	6	6
108	119	1
124	154	1
30	34	2
154	157	2
10	10	5
125	127	1
66	89	2
7	7	6
133	133	6
53	53	5
29	30	3
35	39	5
42	42	6
47	47	9
53	69	1
7	12	2
141	154	3
118	153	4
38	38	2
5	14	2
8	9	1
2	2	6
4	4	8
33	33	4
73	73	11
107	108	1
25	25	4
54	56	4
84	139	5
48	69	4
24	25	6
131	132	13
157	158	1
121	124	2
67	71	3
114	114	7
31	41	1
97	106	1
50	70	3
109	141	1
94	95	5
135	135	12
49	71	1
31	67	1
23	55	1
39	139	1
123	123	13
33	35	2
120	129	2
145	154	8
31	36	2
94	94	7
51	51	4
9	18	4
17	18	4
116	117	6
121	157	2
64	141	2
42	70	3
117	117	11
147	157	2
1	2	4
119	144	1
93	94	3
95	97	5
115	127	2
123	156	3
132	132	11
7	22	6
64	105	4
20	20	6
14	18	6
121	122	2
107	118	3
27	96	3
144	154	1
97	104	3
13	37	3
113	114	3
19	39	3
98	127	1
39	39	8
63	97	2
27	27	3
8	8	13
112	142	2
21	22	5
39	41	1
41	41	4
15	16	2
49	56	4
61	67	4
126	128	9
117	144	2
0	0	6
9	10	6
70	96	2
18	18	4
21	21	2
80	134	2
68	68	3
7	8	2
120	132	2
125	125	8
71	78	4
136	137	9
132	133	1
46	47	1
80	81	2
87	89	1
24	51	2
126	126	8
89	91	1
136	146	3
75	128	3
38	68	2
36	77	4
9	20	1
123	154	1
97	142	1
57	57	7
130	130	4
104	105	7
154	154	9
120	121	3
56	56	1
84	105	2
143	150	3
43	44	1
106	112	4
54	67	2
28	48	1
71	71	6
48	48	5
136	152	2
46	66	2
67	147	3
94	105	1
149	150	2
84	145	6
127	127	3
21	36	2
145	146	1
75	75	6
134	153	2
142	143	3
150	151	2
128	129	3
70	142	2
112	112	3
70	70	4
52	69	1
5	5	4
107	148	2
8	17	2
124	155	1
81	83	2
12	40	4
18	31	3
50	50	8
133	134	3
87	141	2
68	90	1
147	156	1
67	69	2
14	14	2
62	81	1
13	15	2
29	33	3
39	48	2
148	148	6
57	61	2
29	29	4
75	85	2
10	18	1
27	28	3
2	3	1
54	68	1
88	88	3
70	141	1
65	95	4
85	88	1
65	99	3
139	140	4
71	96	1
13	14	3
7	21	1
118	125	3
74	74	2
11	72	3
36	94	1
123	145	1
108	117	2
49	53	3
118	152	3
121	154	1
54	55	2
141	141	4
108	111	5
129	144	2
47	49	6
50	72	4
115	131	2
124	134	1
79	81	1
92	111	2
84	142	2
113	115	6
87	90	5
52	75	2
36	37	3
70	71	2
106	107	2
102	103	1
64	64	1
124	124	1
66	66	2
85	113	3
64	65	1
10	64	1
114	117	1
127	128	3
155	155	4
81	81	8
63	105	3
119	145	1
137	154	1
91	92	2
47	48	1
70	95	4
121	123	1
7	95	1
11	49	1
19	19	2
89	89	2
27	61	1
42	43	1
48	75	2
31	78	2
55	69	2
92	93	2
25	69	1
10	26	2
92	104	1
105	111	1
36	71	1
14	20	2
45	52	1
97	103	1
147	152	1
97	141	1
23	51	2
78	85	4
151	156	2
140	140	4
117	118	3
15	39	1
148	155	2
122	126	1
114	115	3
99	105	2
37	45	1
86	150	2
126	127	1
16	52	1
157	157	2
25	27	2
3	39	1
35	94	1
84	148	2
31	48	4
155	156	2
91	135	2
117	124	1
38	39	2
19	70	1
122	136	3
140	141	1
9	57	1
34	88	1
41	53	1
133	146	1
117	136	2
100	101	4
96	141	1
55	67	1
98	128	1
112	117	2
14	57	1
65	66	2
62	79	1
31	88	1
77	97	2
77	126	1
14	15	1
75	119	1
34	78	2
109	118	1
40	41	2
44	44	2
44	47	1
64	119	1
42	87	1
122	127	3
105	141	1
81	119	1
92	92	1
125	128	1
23	24	1
85	87	1
122	152	1
11	90	1
35	36	1
105	129	1
116	127	1
109	110	1
10	14	1
121	146	2
51	53	1
15	19	2
97	112	1
54	136	3
19	36	2
20	23	1
95	105	1
3	21	2
72	74	2
74	134	1
41	67	1
26	27	2
4	5	1
86	114	1
21	38	1
108	115	1
90	105	2
156	158	3
55	56	1
155	157	1
3	16	1
153	153	1
111	155	1
149	149	1
54	98	1
98	135	2
85	150	1
149	152	2
55	97	1
30	31	1
90	146	1
143	143	1
19	41	1
11	34	1
53	71	1
86	87	1
12	26	1
25	28	1
12	13	1
132	145	1
122	128	1
