39	40	1
30	30	4
112	116	1
18	19	4
51	51	3
11	11	4
92	92	5
8	8	10
119	121	1
52	57	11
10	10	14
101	101	2
62	62	3
73	73	11
130	130	4
38	66	4
34	35	5
23	64	3
104	104	6
151	151	4
109	116	1
23	23	5
124	124	5
35	35	7
127	127	2
106	110	1
19	19	4
66	67	4
44	44	8
41	44	1
15	15	10
80	81	2
119	134	5
154	154	5
104	105	7
96	107	1
77	77	6
120	121	4
47	47	10
96	97	2
54	54	9
116	116	5
18	18	3
16	70	1
80	88	1
13	30	8
34	34	20
12	12	9
43	43	9
26	26	11
69	71	5
29	29	2
135	135	11
22	23	12
71	71	11
111	111	3
119	122	2
38	71	2
79	79	8
111	112	7
4	5	2
80	83	2
118	128	1
24	24	7
6	6	7
76	76	3
46	47	1
102	102	4
49	54	2
40	40	3
55	55	5
117	117	5
7	7	18
27	27	4
4	4	2
114	114	9
14	15	7
34	36	9
80	80	5
24	26	3
43	44	3
21	21	9
149	149	5
21	22	3
43	56	3
28	28	1
57	57	5
77	78	1
63	63	2
121	122	4
121	121	2
133	133	5
36	36	4
133	134	4
132	132	5
39	41	5
126	126	3
106	106	5
143	143	2
118	118	8
151	152	3
22	22	12
101	111	4
141	141	4
94	95	4
138	138	3
86	86	4
66	66	4
82	83	3
17	17	11
123	123	5
69	69	3
119	119	7
32	32	4
72	72	7
77	80	6
42	42	4
104	109	1
86	87	6
128	129	9
49	49	7
10	30	1
147	148	2
108	108	11
113	113	6
48	48	9
15	16	6
8	9	3
79	80	2
14	14	8
68	95	1
111	113	2
74	76	1
149	150	1
100	100	3
70	70	5
9	9	12
67	68	2
10	11	3
107	107	2
81	81	6
125	128	2
90	94	3
48	49	3
35	37	5
13	13	7
36	40	2
53	53	5
98	99	3
33	33	1
67	67	3
38	38	8
23	24	7
39	69	2
23	31	1
84	85	4
4	6	1
50	50	4
132	135	1
108	110	4
150	151	5
65	65	5
104	134	5
129	129	5
8	10	6
78	98	2
105	109	5
97	101	3
97	100	3
47	51	1
39	39	11
123	124	1
17	26	5
109	109	8
110	110	2
9	10	1
12	13	6
145	146	4
19	21	5
37	71	3
152	152	5
58	58	1
131	131	7
94	94	1
140	141	1
141	142	3
115	115	4
44	46	2
148	148	3
110	113	1
22	31	1
54	55	4
66	72	1
94	116	2
99	100	7
20	20	6
25	25	10
38	39	1
17	18	5
38	49	2
97	99	6
103	103	2
97	97	2
8	19	3
117	118	1
23	32	3
105	105	5
65	66	6
146	146	3
104	110	1
74	74	7
144	145	3
46	46	6
22	24	4
30	31	6
20	24	1
37	38	7
62	63	1
75	75	4
72	73	1
35	42	1
17	68	2
153	154	2
68	68	3
31	31	3
128	135	3
83	83	4
94	97	2
57	58	3
119	128	1
56	56	7
129	135	3
96	96	9
129	131	1
131	135	1
116	117	4
33	51	2
25	26	1
86	93	2
66	94	1
142	142	2
131	132	1
106	107	3
132	133	2
133	142	1
97	98	1
122	122	3
75	80	1
143	145	1
29	30	2
41	41	4
31	32	6
83	84	1
42	65	1
71	73	2
6	7	1
78	78	2
65	67	4
64	64	3
35	36	1
108	109	3
131	141	2
40	69	2
75	101	3
128	136	1
136	136	3
86	98	2
150	150	2
42	46	1
102	112	2
120	120	5
34	42	1
71	72	1
115	116	3
28	35	2
8	11	2
2	2	2
76	77	3
3	3	1
7	9	2
125	126	1
103	135	1
26	27	1
20	21	5
17	70	1
57	67	2
16	17	2
45	45	2
68	73	1
112	112	2
56	77	1
95	95	2
47	48	1
119	130	2
55	56	1
116	118	1
53	54	1
127	128	1
32	35	2
70	71	1
26	35	1
102	103	1
134	135	2
93	94	1
142	143	2
52	56	3
42	52	1
34	37	1
15	18	3
17	19	1
29	34	2
63	64	1
120	134	1
37	39	1
109	110	1
131	136	1
16	71	1
24	34	1
37	37	2
128	128	2
125	125	1
136	145	1
153	153	2
88	88	1
93	93	1
70	84	1
19	24	1
7	8	2
75	76	1
90	117	1
21	24	1
91	91	1
95	100	1
52	54	1
123	130	1
