238	238	10
32	32	5
41	41	11
106	107	5
97	97	7
164	164	14
64	64	5
29	31	3
73	73	5
175	175	6
153	164	7
74	74	9
87	87	11
222	230	3
188	190	3
170	170	17
212	212	8
206	206	1
118	118	7
83	83	1
201	202	15
145	145	6
179	179	8
79	81	2
24	24	19
174	174	2
110	110	12
151	151	6
20	21	3
239	239	15
6	93	2
196	196	8
81	82	6
71	71	5
215	219	4
232	232	7
238	240	8
48	48	7
85	85	10
45	45	7
90	90	6
208	209	3
18	18	4
68	68	3
238	241	6
167	167	1
210	210	7
202	202	7
43	44	13
162	167	3
245	245	13
177	178	11
54	54	3
195	195	10
85	94	4
117	117	8
60	60	8
61	61	5
70	216	1
111	111	23
240	240	8
223	224	5
167	200	2
168	169	1
14	14	4
23	23	16
112	112	6
17	17	6
203	203	16
3	4	3
199	199	14
246	246	4
162	163	2
88	88	12
6	85	4
162	170	3
153	153	5
53	53	13
186	186	18
247	247	6
50	77	5
37	37	6
103	103	3
170	179	5
208	208	14
189	217	1
158	158	2
82	82	4
116	116	12
115	222	1
38	38	4
52	52	10
197	214	1
150	151	3
237	237	12
115	115	4
102	103	1
102	104	4
213	240	1
203	236	1
39	39	9
178	181	2
215	216	5
194	195	4
81	81	5
169	199	1
48	61	1
171	171	4
183	183	17
173	173	5
30	30	4
59	59	13
94	94	2
234	234	5
58	100	1
77	77	8
144	155	3
163	180	2
14	38	2
221	221	2
2	184	3
70	70	8
189	190	10
55	55	13
75	75	7
109	109	22
51	52	5
157	157	4
20	20	6
66	66	3
106	106	13
29	29	12
93	94	1
214	214	14
217	217	8
168	168	7
201	201	8
191	228	1
91	92	1
200	200	11
162	162	5
209	209	14
17	18	1
79	79	16
34	34	4
114	115	6
88	89	1
92	94	1
197	247	3
215	215	4
79	231	5
229	229	5
174	183	5
89	90	4
146	146	9
150	156	2
227	228	2
237	238	6
187	188	5
59	60	1
103	105	3
34	41	4
84	84	5
42	53	2
193	193	7
233	234	3
47	47	11
236	237	1
182	182	14
181	181	26
66	99	2
80	94	7
50	50	5
169	170	8
163	182	1
241	241	16
184	185	5
189	189	6
231	232	2
158	190	5
60	91	4
205	205	6
228	229	2
237	239	1
156	156	13
190	190	16
15	15	13
39	115	3
31	31	11
74	100	3
227	227	4
21	21	5
204	233	2
72	72	3
226	226	11
65	66	2
207	207	6
172	183	5
165	166	6
12	34	1
117	236	2
242	242	7
28	28	9
229	230	2
56	56	7
172	172	11
155	178	2
119	119	12
92	107	1
67	67	9
180	180	11
160	226	1
213	248	1
2	3	6
160	160	5
74	145	1
3	17	2
178	178	9
211	211	8
150	150	12
94	95	1
113	113	12
69	70	10
46	71	1
183	220	3
109	110	1
18	64	3
224	225	2
205	207	1
149	149	4
190	192	2
114	117	3
112	114	2
213	213	6
216	216	8
76	77	3
176	176	5
197	197	8
11	11	12
116	117	2
223	223	8
16	43	1
240	241	1
231	231	9
104	104	1
158	191	1
211	212	2
30	31	1
189	193	1
189	192	3
86	86	4
163	163	10
47	116	3
170	171	5
100	100	8
157	158	8
50	247	1
95	96	2
33	33	2
71	97	3
217	218	2
167	201	3
44	45	2
92	92	5
38	121	1
16	86	4
36	178	3
215	217	1
15	34	1
56	165	1
197	215	1
79	199	2
158	159	3
187	187	9
192	192	8
27	27	5
177	177	10
157	160	1
102	102	9
13	14	2
82	100	1
236	236	7
190	196	3
228	228	5
243	243	3
225	226	2
155	156	2
8	11	4
112	195	4
60	71	3
104	107	3
25	25	8
48	119	2
85	110	1
5	5	6
208	238	5
175	176	2
236	240	2
93	100	2
167	184	1
63	63	7
76	76	3
205	214	3
163	172	3
96	96	6
216	219	2
101	194	1
166	167	1
186	187	2
119	120	1
203	204	3
157	184	2
88	90	2
211	237	2
232	234	2
191	191	5
57	62	3
95	95	3
62	62	6
98	98	8
107	107	5
105	175	3
193	220	2
197	198	2
172	173	3
248	248	2
221	222	5
49	49	5
36	36	4
11	35	5
234	235	2
27	28	1
114	114	3
46	52	1
85	93	2
18	22	3
58	58	4
151	195	2
12	12	1
115	116	3
191	192	5
57	58	2
163	164	4
105	105	4
22	22	3
159	159	12
214	237	2
169	169	9
42	42	9
49	50	1
218	219	4
50	230	1
198	199	2
165	167	2
83	96	1
40	40	9
233	236	1
92	103	1
109	179	1
4	5	2
85	86	1
36	92	2
243	244	2
13	15	1
161	179	1
179	180	4
244	244	8
170	176	1
194	194	7
80	80	2
214	215	3
37	71	2
165	165	5
152	164	1
99	99	3
198	198	1
57	101	2
107	181	1
196	214	1
235	235	1
105	106	1
89	89	6
188	188	6
184	184	4
7	8	1
87	110	1
2	2	2
53	54	1
195	196	1
116	236	1
105	151	3
107	174	1
115	242	1
96	155	1
100	101	1
108	177	1
161	167	1
112	187	1
92	106	3
101	102	1
147	147	2
154	154	6
241	242	1
110	174	3
5	14	2
32	45	1
120	203	1
110	173	1
210	211	5
157	159	1
147	163	1
220	220	1
75	111	2
35	87	1
14	15	2
52	234	2
152	180	1
222	223	1
175	177	3
146	147	1
159	160	2
4	4	7
113	114	6
44	97	2
210	214	4
8	85	4
245	246	2
153	160	1
243	246	1
171	179	4
114	203	2
213	214	3
204	219	1
35	65	1
22	26	1
12	212	3
204	204	2
54	96	1
9	9	1
44	44	1
219	219	3
56	64	1
235	236	1
56	57	1
180	198	1
33	85	1
51	63	2
39	68	2
111	112	2
75	77	1
35	35	3
37	60	1
145	167	1
38	71	2
45	65	2
218	218	2
52	162	2
1	1	1
46	46	5
183	184	1
91	91	5
185	197	1
33	82	1
6	8	2
64	65	1
48	60	1
161	183	1
155	155	6
231	237	1
230	230	3
16	16	2
65	65	4
212	235	1
6	15	1
110	155	1
213	237	1
238	239	3
31	32	1
10	10	5
12	87	1
7	7	3
239	242	1
72	73	1
151	171	3
60	72	1
166	182	2
237	248	1
45	52	2
26	226	2
41	43	1
74	233	1
222	236	1
120	120	1
145	179	1
215	238	1
2	11	1
6	6	1
56	93	3
62	101	1
187	191	2
78	78	2
184	242	1
223	236	2
194	196	3
33	65	1
200	201	1
214	219	1
188	189	2
161	162	1
118	119	2
63	64	1
87	92	2
3	3	2
220	246	1
222	222	2
48	232	2
82	247	1
157	171	1
205	206	1
8	8	3
90	91	1
112	235	1
8	46	1
241	247	1
8	37	1
73	92	1
224	224	1
203	211	2
55	93	1
15	87	3
50	246	1
92	99	1
213	215	3
220	245	1
69	69	1
152	158	1
92	111	2
89	222	1
20	26	2
9	93	5
58	90	1
101	101	1
50	111	1
146	185	1
222	228	1
83	98	1
48	59	2
236	243	1
14	35	1
55	110	1
34	91	1
87	89	1
55	57	2
40	41	1
95	97	3
159	225	1
176	177	2
108	116	2
78	199	2
174	181	1
162	164	2
51	51	1
153	173	1
179	203	1
153	154	2
99	100	1
106	152	1
81	216	1
43	43	2
49	60	1
26	26	1
14	101	2
34	35	1
181	182	2
64	78	1
186	196	1
166	166	1
163	167	1
167	168	1
71	73	1
35	64	1
108	245	1
173	174	1
193	196	1
189	191	1
74	75	1
236	246	1
154	157	1
163	165	1
184	220	1
248	249	2
198	246	1
185	186	1
221	245	1
198	231	1
16	116	1
225	225	2
44	65	1
82	83	2
58	59	1
74	92	2
102	107	1
39	41	1
38	68	1
8	235	1
215	218	1
80	81	2
177	248	2
249	249	1
88	106	1
117	118	1
22	23	1
152	152	1
3	10	1
185	218	1
228	230	1
44	46	1
57	57	1
45	51	1
112	115	1
72	91	1
156	157	1
