16	18	1
122	122	14
55	55	18
183	183	19
59	60	9
17	57	5
97	98	4
82	82	11
70	70	5
28	28	15
103	103	13
120	120	24
141	141	11
181	182	8
72	72	16
29	29	12
17	17	11
112	114	3
31	32	8
26	26	10
130	130	20
138	138	17
152	152	20
95	95	19
38	38	24
55	72	5
127	128	11
110	110	23
90	95	4
11	21	3
137	137	14
125	158	2
4	7	4
73	73	17
36	36	17
166	169	1
138	139	10
129	129	23
129	130	5
62	62	13
172	173	11
165	166	16
167	167	18
130	131	8
47	47	19
54	54	13
7	8	2
33	34	11
7	7	14
149	149	29
55	56	14
74	79	3
13	14	7
186	187	8
178	178	10
163	164	3
150	151	6
180	180	16
27	30	7
113	113	22
108	109	2
147	147	12
111	111	21
169	170	7
113	165	3
136	136	7
41	54	1
35	57	2
132	132	13
36	37	6
89	89	9
79	81	5
134	138	3
13	15	1
146	146	20
173	174	6
4	5	3
13	13	9
88	88	10
22	22	12
130	135	2
23	24	16
16	16	16
37	37	14
80	108	3
65	65	7
1	2	4
1	6	3
136	137	6
20	20	15
176	177	3
174	176	7
108	108	17
79	79	4
158	158	11
45	45	10
18	18	20
136	139	6
157	157	13
100	101	9
40	40	22
103	166	1
165	165	4
78	78	14
30	31	2
74	74	19
17	18	16
164	164	9
122	123	4
84	85	9
83	83	12
22	103	4
63	63	11
65	66	3
154	154	26
20	21	4
106	107	8
166	167	7
125	125	9
140	141	12
106	106	18
151	151	9
68	68	9
154	163	5
12	12	13
75	75	15
121	121	24
4	4	6
98	98	16
54	57	1
24	25	14
101	103	2
11	12	8
161	187	1
186	186	20
97	97	10
86	87	6
31	31	14
129	132	1
41	41	8
79	80	3
47	48	5
6	6	11
9	13	1
182	183	7
167	168	4
75	76	4
174	174	12
84	84	24
65	133	1
66	66	9
140	143	4
96	96	10
185	187	5
169	173	1
48	48	20
91	92	5
87	88	6
190	190	16
162	162	12
0	0	11
92	92	8
119	119	7
91	163	7
46	47	5
11	11	19
154	188	4
123	123	6
12	16	2
9	9	5
15	15	14
31	109	3
3	102	2
0	2	2
126	127	10
149	155	4
40	128	1
156	163	5
43	43	23
176	178	3
93	94	9
157	169	3
77	77	20
91	91	9
53	53	20
86	86	7
15	16	7
34	38	1
104	104	18
142	152	2
97	101	2
3	110	3
99	100	10
123	143	5
35	43	2
142	157	4
172	172	16
42	46	3
139	140	8
109	109	12
10	10	15
112	112	15
115	116	9
33	35	3
148	148	15
127	142	1
184	184	12
142	142	14
115	115	12
131	131	6
187	187	14
83	93	1
139	139	18
30	32	3
71	72	3
73	98	2
122	124	1
94	94	12
83	91	3
156	156	16
59	59	4
182	182	14
42	42	6
26	31	3
154	164	1
56	56	23
56	135	1
42	58	2
24	24	12
155	155	15
140	140	4
30	30	10
179	180	4
138	144	2
156	157	5
82	149	3
60	60	5
116	116	24
54	130	9
93	93	23
31	106	2
133	133	14
118	120	3
80	81	7
31	33	2
59	64	1
3	3	12
155	188	1
8	24	1
114	114	9
30	34	2
14	14	9
142	143	9
188	189	12
100	100	8
36	38	1
80	151	1
38	39	8
95	96	6
2	2	22
55	65	5
87	87	15
42	43	1
19	19	3
168	172	2
148	152	2
108	112	2
181	181	8
188	188	14
107	108	8
109	113	7
60	61	4
38	45	6
39	40	4
44	45	3
123	124	4
101	101	8
177	177	5
10	24	2
133	139	1
96	98	5
12	14	6
150	153	3
168	169	11
186	190	2
6	7	4
123	157	5
169	169	8
79	99	2
17	19	1
10	12	1
90	90	16
154	155	11
16	17	8
177	184	5
27	27	15
183	184	4
157	161	3
166	166	8
143	143	3
130	133	3
43	44	13
118	118	13
14	16	4
12	13	5
156	162	4
32	32	14
138	155	2
126	129	4
11	14	1
116	117	10
175	175	6
164	165	5
168	183	2
126	128	4
100	103	10
173	173	7
33	61	1
53	78	3
77	78	5
76	76	12
27	32	1
94	96	3
102	102	12
151	152	4
127	129	2
169	171	3
74	76	4
84	96	1
29	31	2
103	104	2
180	181	7
16	85	3
57	58	5
99	112	1
137	138	6
121	152	2
124	126	2
152	153	7
30	42	3
57	57	14
150	150	23
46	46	6
104	106	3
121	189	5
137	140	2
79	152	1
145	145	15
34	35	7
21	21	18
120	163	2
77	85	2
119	122	1
61	65	2
78	79	4
13	16	1
72	73	1
27	28	5
71	71	2
98	104	1
34	106	3
31	34	5
144	144	9
5	5	14
92	93	6
105	106	8
35	35	22
58	60	3
79	92	1
160	160	5
110	112	4
24	45	1
69	80	2
81	81	11
85	85	5
92	94	5
131	132	2
58	58	8
25	25	9
168	168	11
45	59	7
162	182	1
133	134	4
61	61	4
90	94	1
113	114	6
189	189	5
31	42	3
125	126	3
134	135	3
185	185	15
153	153	8
103	126	2
60	134	1
148	149	5
113	120	4
38	46	3
19	23	2
133	148	2
117	124	3
134	134	10
107	107	10
157	185	4
125	143	2
52	64	3
33	33	11
1	1	2
118	173	3
176	176	8
170	170	5
39	39	12
161	161	9
157	158	5
132	133	2
149	151	2
17	26	1
45	46	3
109	130	3
73	75	4
141	143	2
99	99	7
8	8	17
162	163	9
146	147	4
16	48	1
14	15	18
168	170	6
24	32	4
177	178	9
56	57	8
127	149	1
58	59	3
4	29	2
38	62	1
155	168	2
105	105	8
25	33	3
167	169	4
48	52	1
117	117	3
184	185	6
150	163	1
127	130	2
123	156	2
101	102	6
22	26	4
135	135	17
5	7	3
91	93	3
37	47	1
104	107	3
167	184	2
136	138	3
34	34	7
82	83	3
187	188	4
79	153	1
76	96	2
19	20	10
112	164	2
35	42	1
165	168	4
68	132	4
85	96	2
13	18	5
21	23	1
21	22	3
156	186	1
13	76	3
72	74	3
9	23	2
110	111	4
20	22	2
90	93	3
126	126	1
83	84	5
171	171	4
160	161	7
161	175	1
114	127	3
127	127	6
10	13	2
91	94	4
112	115	3
108	110	2
3	6	1
35	36	1
171	173	4
29	30	9
74	75	5
18	19	3
112	113	7
36	59	2
37	38	3
84	104	1
37	60	2
120	162	2
118	119	2
76	82	2
146	166	2
86	88	3
124	125	6
119	120	6
79	84	4
32	35	3
44	44	6
163	163	7
175	176	5
66	68	5
56	70	1
58	65	1
23	25	6
149	150	4
63	64	2
11	15	1
156	166	1
97	109	1
57	65	3
3	4	2
115	117	1
159	169	1
32	42	2
124	124	12
19	21	5
96	99	2
111	112	2
148	153	3
111	132	3
53	54	3
131	135	2
113	130	1
167	171	2
128	128	5
60	67	1
156	175	1
164	187	1
166	181	4
114	182	1
147	148	4
38	42	2
78	81	4
133	173	1
187	190	2
41	66	1
135	137	2
18	104	1
133	136	1
185	186	1
162	166	1
29	35	1
120	151	1
148	150	1
169	174	3
139	147	3
67	67	6
12	17	4
61	62	2
58	74	2
9	14	1
49	49	2
170	173	4
95	113	2
68	76	1
61	66	4
32	33	2
38	58	1
98	109	1
90	91	7
64	64	3
81	82	2
76	77	1
171	172	2
21	59	2
40	173	2
32	40	2
55	57	1
27	29	2
179	179	2
90	114	1
80	82	2
44	60	3
145	147	4
103	171	1
80	80	4
64	65	2
163	165	6
158	159	3
114	115	2
140	149	2
93	96	2
28	29	2
145	146	5
84	86	5
60	62	3
98	105	2
155	164	1
77	80	2
28	32	1
173	177	2
128	145	1
2	3	1
94	95	4
113	186	2
184	190	1
72	100	3
26	27	2
88	89	1
134	136	1
34	40	1
122	160	2
5	8	2
105	107	2
101	109	1
150	165	2
28	43	2
143	144	2
42	45	1
93	95	2
110	172	2
86	105	2
41	47	2
155	166	3
99	109	2
59	137	1
169	184	1
121	122	1
77	95	5
122	149	1
161	162	4
120	121	1
52	53	2
159	159	3
59	61	1
132	138	1
55	62	2
162	164	2
84	105	1
104	105	4
32	34	3
23	23	5
71	101	4
37	43	3
141	144	1
157	165	1
178	179	3
66	67	1
172	174	2
131	133	2
74	95	2
83	101	1
135	136	2
188	190	3
102	111	1
54	55	5
157	181	1
108	111	1
86	114	2
70	83	1
114	117	1
185	188	2
5	46	2
141	145	1
73	96	1
2	99	4
170	171	3
165	167	2
157	159	1
42	44	1
25	26	1
120	127	2
52	55	1
62	63	2
89	90	1
107	110	1
128	129	1
41	42	1
93	97	1
68	97	1
145	156	2
95	125	1
164	190	1
29	40	2
49	53	1
182	184	1
183	187	1
104	166	2
153	169	1
85	97	1
131	144	1
125	128	1
133	135	1
79	148	1
179	181	1
141	142	1
20	60	1
121	161	2
147	163	1
24	43	1
0	1	2
135	148	2
40	41	2
156	172	2
9	10	1
5	19	2
41	185	1
73	76	1
163	179	1
10	17	1
80	137	1
28	41	1
