118	118	6
88	88	9
69	69	2
72	72	4
162	163	2
143	143	8
4	4	10
160	161	5
112	112	5
113	113	7
21	23	4
108	108	4
127	127	3
107	109	2
11	11	6
7	7	19
66	66	1
63	63	5
55	56	6
144	144	4
70	70	2
125	132	5
50	50	6
104	104	5
107	108	4
47	47	5
158	159	1
36	36	5
13	42	1
114	114	3
91	92	2
15	15	5
57	57	4
10	10	9
92	92	9
2	2	8
77	77	1
1	134	3
118	126	1
62	63	5
34	34	17
80	116	1
81	81	2
16	16	6
86	87	4
6	20	3
27	27	3
1	1	12
33	34	2
9	9	10
34	35	4
120	121	5
92	93	1
63	64	5
78	78	4
43	43	15
155	164	2
121	121	11
116	116	12
15	16	4
5	9	1
35	35	3
126	126	6
50	57	1
3	3	20
138	139	3
73	74	4
14	23	1
115	116	2
46	47	3
21	21	7
15	18	2
93	101	2
94	94	3
169	170	5
45	45	3
155	156	6
9	146	1
47	48	4
124	148	2
120	120	3
62	68	3
127	128	7
4	5	3
52	52	4
42	42	10
149	149	9
69	71	1
8	146	2
17	17	7
115	138	3
110	110	3
135	135	9
155	155	8
21	22	1
37	37	7
140	140	5
169	169	1
159	163	1
74	76	2
170	170	1
102	103	3
41	43	6
124	124	1
133	133	3
131	131	2
25	25	10
124	144	1
46	46	3
24	25	6
20	25	1
71	71	4
20	23	1
6	6	15
56	56	15
167	167	4
76	79	2
87	88	4
164	168	1
159	159	4
53	53	3
14	14	5
3	4	3
86	86	3
79	79	3
52	53	4
108	112	1
18	18	4
130	130	1
117	117	4
55	55	6
49	49	2
80	95	5
120	151	2
99	99	3
44	45	4
158	160	1
26	26	5
98	98	6
152	152	5
62	62	5
75	75	4
125	144	1
158	158	3
22	22	3
163	164	2
14	157	1
142	142	7
9	139	2
138	146	3
16	17	7
120	128	1
8	8	7
41	42	4
160	162	2
134	155	2
112	113	1
24	24	9
80	82	2
54	55	4
133	134	6
113	114	2
77	84	2
83	84	1
136	136	5
125	125	5
114	132	3
45	46	4
123	130	1
69	107	5
83	83	2
164	164	1
123	123	3
134	134	8
90	90	5
53	55	2
114	135	1
48	49	5
33	33	3
21	24	1
165	165	2
38	41	1
125	142	1
39	39	3
160	160	6
138	138	5
121	122	1
151	152	2
1	2	1
0	0	3
101	101	1
91	91	4
27	160	2
23	24	2
8	9	6
146	146	1
4	25	2
109	110	2
78	79	7
19	19	7
54	64	1
76	76	2
38	39	3
12	12	2
144	161	4
51	51	5
6	166	3
128	129	2
26	27	3
116	126	1
161	161	5
105	105	3
81	102	1
137	137	5
54	54	4
6	7	3
140	141	1
73	73	6
119	119	5
47	52	1
20	20	6
74	74	4
120	122	1
130	164	3
19	20	1
12	16	2
11	12	3
128	128	3
150	150	1
37	38	6
28	28	3
127	158	1
74	75	5
38	38	6
131	160	2
58	77	1
53	54	2
103	103	2
147	147	2
57	61	2
108	113	3
80	80	2
44	44	4
135	136	1
11	17	2
161	162	1
10	11	3
123	144	3
5	156	1
110	150	5
0	1	5
98	102	2
92	101	1
87	87	4
155	162	1
118	128	2
153	153	1
146	148	1
4	140	1
154	155	1
129	129	4
70	78	1
149	150	5
102	102	3
144	145	1
148	148	1
96	103	1
123	149	2
14	15	2
16	159	1
118	150	1
166	166	1
23	23	5
168	168	2
51	65	1
16	66	1
89	89	3
162	162	2
126	127	1
6	108	1
163	165	1
111	111	3
13	13	5
145	147	2
165	166	2
112	116	1
85	115	2
139	139	4
17	158	2
84	116	2
123	124	1
8	138	1
125	128	1
82	82	1
151	151	2
6	21	1
19	86	2
119	120	1
20	21	1
64	64	3
88	114	1
96	99	1
153	154	1
139	141	1
2	4	1
157	157	4
44	46	3
12	14	1
94	96	1
104	105	2
80	102	2
7	8	2
133	136	1
79	81	2
154	154	1
76	78	2
95	95	1
105	106	2
66	67	1
81	103	1
97	97	1
135	149	1
97	137	1
0	136	2
22	24	1
71	81	1
65	66	1
38	40	1
18	150	1
109	109	2
48	48	1
52	65	1
134	135	1
35	36	1
84	85	1
79	82	1
126	139	1
67	70	1
71	75	1
142	143	1
1	166	1
10	18	1
7	140	1
119	152	1
92	94	1
7	27	1
7	9	1
91	112	1
25	27	1
64	84	1
