101	101	14
156	156	12
79	80	2
72	75	1
142	142	10
5	39	2
174	174	9
12	12	13
28	29	8
131	131	3
8	9	18
33	33	23
18	19	9
28	30	7
16	17	12
88	88	5
139	151	3
84	91	3
81	96	5
108	115	2
4	4	26
86	94	1
153	164	3
76	78	2
125	126	1
30	30	29
7	7	16
164	164	10
72	144	2
148	154	1
80	80	4
45	45	12
9	10	7
143	143	8
9	9	16
76	76	13
11	12	19
84	84	12
14	14	22
76	136	5
63	127	2
88	89	6
169	170	5
59	73	4
17	18	11
143	153	3
154	154	11
41	42	8
32	33	12
59	59	5
152	160	7
66	67	8
163	163	9
5	5	21
115	115	10
3	4	7
34	34	11
114	114	11
157	158	4
172	172	7
162	162	5
31	43	5
90	95	2
39	41	4
39	40	20
109	110	3
6	6	24
100	100	8
65	65	8
104	105	8
145	146	1
7	35	5
15	15	23
41	41	26
2	4	13
154	173	2
42	42	16
22	22	21
20	20	13
145	145	9
11	11	27
54	54	18
121	121	6
25	26	14
7	8	2
73	73	3
104	104	5
119	121	3
1	1	21
29	29	18
23	31	4
151	151	9
34	35	2
66	118	6
132	132	11
12	22	3
44	44	18
28	31	4
29	30	14
128	151	1
106	149	1
168	174	3
10	10	17
17	17	16
135	136	9
89	116	2
98	98	11
23	23	27
90	90	6
24	24	14
1	2	10
96	96	13
37	38	2
79	79	9
18	18	14
142	143	9
33	35	2
50	51	3
123	123	10
3	3	12
114	170	1
26	26	27
11	13	5
104	106	6
71	71	6
179	179	11
111	111	4
2	2	19
130	160	2
146	157	3
20	42	4
13	13	26
166	166	4
164	167	3
31	36	1
25	25	7
14	17	7
154	156	9
149	149	16
73	75	2
56	93	2
156	157	6
83	83	3
8	8	11
5	31	5
133	134	3
26	28	6
19	20	4
25	41	1
126	161	3
136	137	1
39	39	15
173	173	19
51	51	8
45	112	2
128	128	8
0	0	16
170	171	2
6	36	3
161	162	2
21	21	7
93	103	6
152	165	1
125	125	6
59	144	2
127	128	4
117	117	7
75	75	12
56	56	3
24	42	6
103	104	4
174	175	6
96	162	1
23	24	2
23	25	4
19	19	18
167	167	12
26	27	7
155	157	6
154	155	1
130	130	12
151	153	2
6	16	4
141	141	2
32	50	1
1	5	2
139	140	1
64	126	5
157	157	7
4	7	3
159	159	10
87	87	8
55	56	10
5	6	13
84	85	9
142	159	2
27	27	4
93	140	1
40	41	6
55	95	2
40	40	13
27	28	11
177	177	5
64	64	9
4	30	4
132	133	2
33	34	5
12	13	7
24	25	6
13	14	12
176	176	2
100	118	2
81	81	7
72	72	9
97	98	5
62	62	10
129	129	8
144	168	2
108	108	9
23	28	5
77	77	5
38	38	21
169	169	12
128	129	1
12	14	8
169	174	4
92	142	3
133	133	8
166	167	2
17	27	2
52	53	5
52	52	6
4	26	2
74	74	5
96	101	4
55	55	11
77	123	2
62	63	3
1	7	2
7	9	10
65	170	2
6	7	6
134	135	7
102	102	4
64	65	1
112	131	1
89	89	4
60	125	3
7	18	5
124	125	10
134	134	11
4	9	1
118	165	1
135	135	7
53	54	9
138	149	1
26	31	2
150	151	5
20	21	7
10	11	4
86	115	4
146	146	8
67	116	2
168	168	5
113	114	3
57	74	2
144	154	2
100	101	3
36	36	6
123	124	2
53	53	4
109	115	7
148	149	6
86	93	2
91	92	4
165	165	4
61	73	4
141	142	4
61	61	9
119	119	8
68	68	3
115	137	1
131	132	2
87	88	1
18	22	3
102	110	1
85	85	3
161	161	4
151	160	3
25	28	4
116	116	11
113	113	11
25	29	1
57	141	2
6	58	1
19	74	1
90	107	2
109	109	11
153	159	1
66	150	3
75	133	3
75	132	2
36	148	1
99	99	4
140	140	3
76	130	3
92	92	4
35	35	16
123	138	1
158	158	2
147	147	7
67	145	2
34	74	2
19	62	3
117	151	3
91	93	1
32	32	15
0	1	6
167	173	2
115	116	1
15	20	4
101	102	2
66	68	2
26	34	1
137	137	3
108	146	2
86	86	6
127	134	2
144	144	4
18	33	2
66	66	6
3	10	1
62	140	1
168	170	1
124	124	4
112	112	15
103	105	2
156	158	1
0	14	4
2	31	2
103	106	2
138	138	5
105	105	3
60	60	1
59	61	1
51	97	1
50	95	2
1	40	3
51	101	3
21	23	2
127	129	2
42	43	4
54	96	9
160	160	7
153	153	4
166	168	1
76	77	1
72	73	5
74	132	5
107	131	1
10	14	8
41	65	5
19	128	2
155	155	4
150	180	2
152	152	2
110	113	2
27	29	3
88	116	1
151	159	4
153	160	6
5	17	3
66	158	1
110	110	6
167	168	1
90	141	2
106	106	9
52	61	3
36	43	1
10	141	1
70	70	2
127	140	1
60	82	5
150	152	1
92	94	1
86	114	3
8	30	2
75	87	1
146	158	6
82	92	1
129	146	2
73	74	4
12	23	3
98	126	1
117	128	4
10	12	1
61	174	2
40	52	1
28	28	5
74	87	5
103	103	3
15	16	2
71	90	4
56	94	1
52	148	1
117	163	3
57	58	3
83	86	1
41	66	3
10	22	5
95	95	7
122	122	7
145	147	2
58	59	1
98	100	1
89	121	1
121	126	3
85	88	4
44	46	4
102	121	1
96	97	6
37	37	8
102	119	3
5	7	3
172	176	1
178	178	2
67	101	2
79	86	1
1	42	1
14	15	8
42	46	2
81	82	5
50	50	2
58	108	6
31	31	3
71	92	3
43	43	6
9	22	3
171	171	2
58	135	1
60	124	2
16	16	10
116	139	1
128	161	2
84	87	2
127	127	5
122	172	2
173	176	2
54	55	3
84	177	2
94	94	5
84	93	2
128	162	4
65	163	2
72	131	2
0	39	1
112	138	3
102	109	1
107	107	4
6	15	1
9	42	1
30	33	4
102	148	2
107	108	2
67	67	5
138	139	1
130	161	3
119	135	4
63	63	4
164	165	1
78	86	3
7	10	4
151	178	3
84	86	2
3	6	2
118	119	2
51	143	3
123	145	1
63	64	3
56	58	1
120	121	4
144	155	1
59	136	2
0	16	1
22	23	9
143	145	1
107	109	1
1	38	1
155	156	3
68	168	2
150	150	2
153	154	1
33	41	5
111	114	1
152	153	1
7	22	1
5	9	1
16	18	1
148	148	7
71	163	1
3	31	2
155	159	2
5	8	2
72	170	1
1	3	4
109	165	3
102	111	2
13	17	2
30	36	4
80	81	1
13	15	1
115	136	1
14	23	1
147	148	6
114	119	4
63	73	1
9	11	1
116	150	2
89	119	2
58	78	2
58	143	4
7	37	2
6	22	3
93	141	1
78	78	5
111	113	1
54	82	3
11	16	1
129	130	2
104	107	2
5	10	1
72	175	1
105	106	2
2	8	2
139	139	2
6	17	2
43	44	7
13	23	1
153	156	1
96	155	2
130	153	1
46	164	2
97	162	2
7	23	1
151	152	1
112	114	2
41	43	2
57	57	5
44	45	2
171	172	2
153	161	2
2	3	2
6	23	1
67	109	1
80	82	4
85	93	1
102	103	1
77	78	3
136	136	1
115	170	2
175	175	2
163	171	2
149	172	1
97	97	4
13	104	1
119	167	1
7	43	1
24	26	5
8	11	2
143	144	1
146	147	2
36	37	2
96	161	1
177	178	3
178	179	2
58	121	1
97	101	1
78	94	1
103	107	2
144	159	2
31	33	1
117	167	1
143	148	1
6	10	2
60	144	1
23	32	1
76	80	1
135	142	1
29	31	3
86	108	1
144	145	1
3	34	1
68	85	1
89	126	1
127	130	1
177	179	2
172	173	2
72	171	2
32	43	1
150	159	1
173	174	2
169	173	1
105	132	1
43	45	2
58	171	1
120	126	1
114	137	1
25	42	1
62	64	1
0	32	1
156	160	2
58	58	1
159	161	1
16	27	1
108	109	1
146	148	1
160	161	1
90	140	1
0	43	2
3	16	1
9	28	1
7	16	2
180	180	1
117	166	1
101	119	2
87	140	1
18	21	1
73	132	1
89	132	1
45	46	1
4	5	1
38	40	1
17	28	1
159	162	1
123	149	1
1	13	1
116	118	2
65	114	1
15	24	1
55	94	1
60	139	1
22	27	1
