154	154	5
132	137	2
48	49	6
6	6	13
43	43	13
57	71	2
9	9	7
22	22	8
16	16	10
156	156	16
5	5	9
94	94	7
71	71	11
40	40	9
18	18	3
1	2	9
2	3	7
139	139	6
133	133	13
105	105	11
16	18	13
115	115	12
133	134	7
70	70	9
36	36	11
33	33	6
39	39	7
2	2	6
143	143	5
134	135	8
122	122	19
105	106	4
73	73	11
54	55	5
147	147	27
148	149	13
120	121	3
42	42	13
2	5	7
111	111	6
134	144	2
7	99	1
3	3	17
56	56	3
106	106	13
124	124	5
93	94	9
28	41	1
3	4	11
112	112	11
33	77	2
131	133	3
125	126	3
1	5	1
40	41	11
45	45	10
94	95	9
37	37	19
36	37	6
13	14	11
21	21	10
80	80	29
54	63	1
77	78	8
90	90	6
132	136	2
8	8	9
128	128	17
77	77	10
17	82	1
147	149	4
98	98	13
116	120	2
85	86	4
38	39	14
53	53	6
123	131	3
80	83	2
86	86	3
38	38	13
127	130	3
117	137	1
46	46	13
78	80	5
55	55	9
87	87	13
88	88	9
111	124	2
96	97	3
89	89	15
15	16	5
152	152	9
6	130	1
37	38	3
135	135	14
104	105	11
17	81	3
137	137	12
155	157	3
25	25	9
24	24	15
30	30	10
35	44	2
68	71	6
151	151	14
28	28	22
12	12	6
26	26	14
41	41	8
134	134	16
145	145	5
148	150	3
144	145	7
9	13	6
6	100	3
100	100	10
65	65	6
3	51	3
138	142	2
124	125	1
113	113	7
84	85	4
141	141	10
29	30	6
3	7	1
112	123	2
93	93	16
148	148	11
91	93	7
71	72	2
90	91	3
106	107	4
40	43	4
52	52	10
29	31	2
126	127	3
116	117	9
149	150	4
46	48	2
131	132	7
31	32	4
116	116	12
70	71	2
93	100	4
74	74	3
33	34	6
50	50	18
155	155	17
12	84	3
136	136	29
123	123	10
17	131	2
130	131	7
156	157	8
34	34	9
79	79	5
64	64	6
96	96	7
114	115	3
151	152	6
21	22	2
150	150	7
31	86	1
125	125	6
108	109	1
7	12	3
86	87	5
129	131	4
31	31	6
0	0	7
153	154	6
123	124	3
120	120	10
88	90	4
152	153	7
3	6	3
76	79	2
144	146	2
1	1	9
100	101	2
6	90	3
46	55	6
25	26	8
7	7	8
90	103	2
28	29	2
152	155	2
117	119	4
45	47	2
16	19	3
101	101	6
76	77	3
35	35	4
50	51	8
75	75	7
138	138	12
152	157	6
130	130	9
4	4	20
44	45	12
108	115	4
73	74	2
48	48	6
4	6	2
66	66	4
91	92	10
79	85	2
47	47	8
78	78	7
13	13	8
102	103	3
54	62	1
36	79	4
19	20	2
10	11	3
86	108	1
97	97	6
139	148	6
93	102	2
20	20	11
76	76	2
23	41	2
143	155	3
107	108	7
17	18	7
110	111	7
24	26	3
118	118	11
16	20	2
95	104	3
91	94	1
132	132	14
18	28	3
49	57	4
90	136	2
103	105	5
111	144	3
126	126	9
49	50	3
4	5	11
127	133	6
10	84	1
129	129	4
54	54	5
146	146	3
45	48	3
131	131	5
24	76	5
28	54	1
22	23	6
134	137	2
67	67	21
118	120	4
99	100	2
85	85	8
18	27	2
90	92	5
107	107	2
56	62	1
31	85	6
90	94	1
82	82	3
141	142	2
104	104	5
140	141	11
137	138	2
82	84	4
55	67	2
104	128	1
131	139	2
99	99	4
15	15	6
29	29	6
12	83	2
69	69	1
140	140	10
87	94	2
91	91	11
115	116	3
24	25	2
88	89	5
118	122	2
43	44	1
8	12	3
23	23	7
55	56	3
51	53	3
80	106	1
134	142	2
48	50	5
83	84	4
84	84	11
140	148	2
21	25	2
108	122	3
23	24	4
19	19	6
127	127	5
7	130	1
23	25	1
11	103	4
108	108	7
17	17	14
111	113	3
142	142	6
67	71	3
66	67	8
122	126	2
159	159	1
32	32	8
27	27	9
127	128	7
0	1	2
104	107	5
22	30	1
107	125	3
116	118	3
138	139	2
95	96	9
116	138	2
51	51	12
80	85	3
81	82	5
110	112	3
117	120	1
117	117	4
8	9	6
27	28	4
26	27	3
98	100	2
42	43	3
12	13	4
63	64	1
46	56	3
10	10	3
101	102	4
146	149	3
109	109	13
95	95	13
24	65	4
95	103	1
12	23	1
29	36	3
88	92	1
30	31	3
31	51	1
135	136	8
31	84	1
63	63	5
144	144	2
87	104	1
19	21	4
107	117	3
39	40	3
114	114	10
142	153	3
158	158	7
98	99	3
47	48	1
65	66	3
39	76	1
8	77	3
24	27	1
14	15	1
146	147	2
97	98	1
11	12	3
84	86	3
142	143	1
92	92	4
113	114	7
57	70	2
87	88	4
0	4	1
121	124	2
2	72	2
41	42	2
7	8	3
68	68	1
83	92	2
103	103	3
158	159	2
18	132	1
31	36	2
36	39	2
81	84	1
0	3	1
25	81	1
75	130	2
46	54	3
137	140	1
91	96	2
118	125	2
148	156	1
20	25	2
13	17	3
157	157	9
132	139	2
67	69	4
68	69	3
135	137	2
50	55	1
79	80	1
110	110	5
126	142	2
92	93	3
126	129	1
16	79	1
80	92	5
106	108	3
94	121	1
12	81	2
133	139	6
134	136	1
110	132	2
37	136	3
17	19	3
1	4	3
154	155	1
147	153	2
121	122	6
41	86	1
41	85	1
24	30	1
136	140	1
123	149	1
128	129	4
30	34	1
29	47	5
13	81	1
129	136	2
102	102	2
103	104	3
9	78	2
153	155	1
113	119	1
14	16	1
52	53	1
78	79	2
111	112	2
121	121	4
21	29	1
3	55	1
0	2	3
138	140	1
18	19	4
2	4	2
122	123	4
81	81	4
97	104	1
34	35	1
135	143	1
45	46	1
47	49	2
87	92	1
83	83	2
80	81	3
136	146	2
31	33	2
29	54	1
133	138	2
16	21	2
95	107	1
28	30	1
120	122	1
33	96	2
144	154	1
88	95	1
100	102	1
33	78	2
89	91	1
30	80	1
30	39	1
135	142	1
16	29	1
13	110	2
109	110	1
67	68	1
131	141	1
105	118	1
117	121	1
145	146	2
110	116	3
12	80	1
137	139	1
6	7	3
123	125	2
96	106	1
139	140	3
9	10	1
18	130	1
105	116	1
51	55	2
32	33	2
142	156	1
41	78	1
104	106	1
149	149	2
153	153	1
88	91	2
83	93	1
44	44	1
97	110	1
41	88	1
73	101	1
49	49	3
153	157	1
25	41	1
152	154	1
30	38	1
106	122	1
7	145	1
5	129	1
72	73	1
83	102	1
89	90	2
42	68	1
13	15	1
37	65	1
124	129	1
90	99	1
119	120	1
16	103	1
29	40	1
4	13	1
18	43	1
30	35	1
57	57	1
40	42	1
110	113	1
23	79	1
11	81	1
67	70	1
