93	93	15
33	34	7
69	70	4
63	64	3
53	53	6
28	31	5
16	18	8
46	46	5
82	82	14
10	10	22
27	75	2
124	124	15
158	158	6
24	24	10
12	12	21
31	33	3
46	119	2
79	85	3
100	100	9
47	47	15
121	147	3
132	132	6
121	121	5
7	8	2
71	71	9
65	73	3
44	105	1
115	116	6
142	147	1
34	35	3
125	125	12
116	117	8
124	126	2
3	4	8
84	84	9
88	88	11
77	77	13
10	11	6
139	157	5
38	38	15
0	0	15
49	51	5
46	47	5
149	149	1
28	28	12
143	143	6
9	94	1
53	55	3
137	137	12
132	133	11
11	12	3
22	22	12
118	153	1
120	145	10
27	28	1
130	131	2
108	108	5
44	44	27
27	27	14
94	95	1
71	112	6
111	111	7
115	115	11
156	156	13
135	135	9
52	52	11
94	94	19
66	75	1
157	158	9
16	16	18
48	49	11
142	142	6
130	130	15
6	7	2
133	133	7
147	148	5
150	150	14
12	13	4
140	140	13
129	129	11
2	7	1
12	39	4
155	156	10
1	1	10
95	104	2
95	95	9
103	103	10
30	31	2
140	141	10
70	71	4
127	150	1
20	20	17
143	144	3
16	19	1
116	116	20
29	49	3
113	116	2
112	112	5
90	90	11
13	16	4
80	80	10
71	114	4
70	70	12
41	41	13
148	154	8
135	136	6
6	6	15
146	146	8
56	56	5
18	18	10
49	50	1
75	75	15
63	68	3
148	148	16
14	14	6
146	147	8
9	10	10
28	29	1
89	89	20
84	88	2
43	43	3
31	31	7
67	71	3
134	135	2
39	69	2
110	111	16
26	26	8
84	86	2
4	5	2
138	138	9
113	113	12
87	113	1
5	5	17
114	115	8
151	151	17
88	89	8
114	120	5
144	144	12
65	65	8
49	52	4
127	127	9
34	34	7
21	21	19
131	155	1
31	32	6
2	2	18
78	79	10
152	152	10
54	55	5
117	118	1
91	92	1
99	99	13
131	132	12
105	105	5
101	101	29
141	141	21
146	157	2
73	107	3
123	124	4
117	133	1
108	111	2
85	85	6
139	148	4
49	49	11
39	46	1
83	83	4
40	40	8
81	82	3
92	92	4
11	17	3
12	15	5
22	94	3
93	94	5
2	3	4
128	128	11
35	35	10
114	114	9
86	86	5
153	153	4
131	133	5
67	68	1
87	87	11
36	80	2
38	42	2
43	47	4
73	73	14
45	45	6
92	93	3
7	7	8
82	83	6
134	134	12
126	128	2
52	61	1
4	4	18
78	78	10
55	76	2
139	139	11
13	13	4
131	131	22
69	69	10
37	37	4
79	86	4
32	32	4
30	30	8
44	99	5
107	107	2
144	145	1
146	154	4
145	145	10
28	32	2
103	141	3
43	111	2
20	44	3
8	11	8
105	106	4
120	121	3
126	126	7
18	33	1
15	15	14
75	116	2
98	98	8
143	145	2
106	156	1
88	119	1
26	36	2
98	99	9
19	19	5
98	102	2
53	54	4
36	77	4
42	42	10
117	117	22
29	31	2
119	126	2
8	8	7
84	85	6
55	56	1
2	55	2
4	151	2
27	47	1
49	71	1
120	120	8
23	150	1
8	10	6
104	104	6
7	23	2
86	88	1
57	62	3
35	77	3
51	54	2
111	112	2
9	43	1
135	155	1
85	86	6
14	89	2
17	17	8
130	150	3
111	114	3
104	112	2
152	153	3
29	48	2
21	98	1
83	84	4
36	37	6
16	17	1
25	37	4
8	43	1
147	147	6
129	151	6
18	22	1
33	33	8
18	19	10
38	39	2
3	3	7
109	109	6
106	106	8
97	97	5
128	138	1
119	125	4
13	14	5
67	72	1
118	134	1
141	142	4
91	91	12
48	48	3
67	69	8
26	29	4
67	123	1
54	54	12
154	154	5
25	25	8
118	120	1
154	156	1
79	79	5
6	139	2
115	135	1
47	53	3
86	87	4
141	156	1
110	110	3
51	51	11
104	105	4
137	138	3
7	17	1
35	111	1
125	126	9
107	108	2
118	121	1
155	155	4
124	125	1
24	66	1
13	15	2
39	39	9
129	130	3
23	26	1
123	123	5
113	121	1
29	37	4
131	138	2
127	129	2
50	51	1
17	19	2
129	138	1
121	122	7
50	52	2
142	143	1
140	142	2
8	9	1
119	119	2
146	149	2
135	137	9
139	140	7
68	68	5
112	113	1
25	31	1
67	67	4
92	94	3
64	65	3
57	71	2
49	69	1
7	12	2
7	94	1
69	90	1
0	1	1
48	67	1
145	146	3
150	151	1
44	76	1
29	30	1
140	156	1
84	90	1
103	104	6
104	155	2
14	15	4
105	108	3
51	115	2
19	23	1
136	136	7
55	117	2
89	90	1
107	157	1
16	40	2
72	75	2
88	113	6
67	85	2
24	54	3
40	41	4
85	90	1
19	20	1
148	149	2
55	77	2
88	91	2
87	89	3
36	36	5
68	69	4
96	96	3
23	24	2
27	30	1
32	33	2
109	122	2
118	119	3
146	158	1
108	109	4
29	29	4
23	23	7
106	107	1
83	111	1
7	16	1
124	128	3
43	48	1
25	26	1
142	154	1
39	40	1
12	24	1
20	21	1
37	49	1
54	65	2
118	118	7
9	18	1
159	159	1
37	38	2
122	122	5
40	93	1
31	39	1
52	55	1
121	126	1
19	44	2
26	65	5
24	25	2
119	136	2
43	114	1
89	136	2
79	80	2
131	134	1
50	50	2
109	110	5
39	49	1
81	81	5
148	159	1
80	124	1
51	90	2
109	113	1
116	135	1
8	14	2
148	155	1
29	42	3
119	124	1
38	41	1
48	50	1
20	22	1
72	72	3
107	129	2
38	48	1
114	117	1
5	6	1
72	73	2
94	111	1
105	155	1
62	66	2
122	123	2
153	154	3
149	152	1
108	112	1
45	50	1
146	155	2
17	18	2
87	123	2
11	11	2
89	120	2
39	104	1
87	117	3
153	157	1
123	125	1
139	150	1
55	55	3
86	123	1
2	4	2
130	137	1
56	65	1
78	80	2
96	98	2
102	102	1
39	48	2
5	73	1
86	118	2
73	129	1
139	156	1
78	82	2
84	111	1
138	149	1
15	17	1
46	114	1
90	136	1
6	116	1
127	136	1
9	9	1
113	115	1
108	121	1
95	111	1
96	97	5
50	54	2
134	149	1
157	157	1
145	147	1
26	27	1
131	152	1
80	82	1
20	23	1
95	96	1
57	57	1
155	157	1
121	124	1
40	91	1
123	138	1
52	70	1
38	43	1
73	80	1
66	67	1
79	82	1
72	84	1
43	44	1
66	68	1
