25	25	23
62	87	3
44	44	19
16	16	15
117	122	4
75	75	20
40	40	11
86	86	18
67	68	13
150	150	7
44	45	6
71	73	1
141	142	2
115	120	3
112	112	14
133	141	7
83	83	16
53	53	26
119	119	5
112	114	9
91	110	5
112	113	8
123	123	12
113	154	2
46	128	1
150	151	2
108	108	19
42	42	27
137	137	9
159	159	13
128	129	4
129	129	6
80	80	13
162	163	7
91	92	4
2	3	10
74	74	15
143	143	10
41	42	3
34	34	12
89	89	11
46	46	12
5	9	6
18	47	4
52	52	24
94	95	12
7	7	13
54	56	4
152	154	6
144	144	12
114	156	2
73	74	9
143	144	10
82	82	23
118	120	1
0	2	3
23	123	4
1	1	14
70	71	4
14	14	22
99	100	10
103	103	13
90	95	7
49	49	10
118	118	9
48	69	6
102	105	2
161	165	1
10	10	6
35	66	3
67	67	13
96	97	6
65	66	4
47	130	1
73	73	19
139	139	9
126	150	4
157	157	10
72	72	28
45	45	4
105	105	18
133	133	6
43	43	15
45	49	2
98	98	14
128	131	4
119	120	14
95	97	6
37	38	5
41	41	20
149	149	5
5	5	20
4	4	17
39	39	21
64	69	4
94	94	6
15	16	3
128	130	3
125	126	2
35	36	4
104	105	5
62	62	17
156	156	9
131	132	4
142	143	4
134	134	18
100	100	10
24	24	16
26	26	19
80	81	8
137	138	29
136	137	1
13	39	3
88	89	9
164	164	9
88	88	16
114	114	9
99	170	3
92	92	20
122	122	5
144	145	12
56	56	12
89	93	1
76	76	11
102	110	4
63	82	6
126	128	1
140	140	10
120	120	11
155	156	11
34	35	7
87	87	6
114	115	6
36	37	2
9	10	7
90	90	10
146	146	9
11	11	10
50	50	28
63	111	1
72	73	13
153	155	1
155	163	3
85	85	21
40	43	3
142	142	10
81	86	5
151	151	7
170	170	1
169	169	15
84	84	11
68	68	10
53	54	7
35	35	21
139	150	2
78	78	5
3	3	19
100	103	4
64	65	4
135	135	6
3	6	5
147	148	2
117	117	7
125	125	10
160	160	9
64	64	20
3	4	5
63	77	2
107	108	5
52	63	1
8	10	4
105	125	5
105	106	6
104	104	9
106	106	12
110	110	12
9	9	17
152	152	11
78	96	2
2	2	11
124	130	3
65	69	7
33	34	5
35	40	4
83	84	8
28	28	11
12	13	3
63	64	3
116	131	1
55	63	3
77	79	2
127	127	4
22	23	12
110	111	8
44	128	3
97	97	20
84	86	11
89	90	5
21	26	2
94	114	5
4	103	6
0	0	10
35	114	7
153	156	7
19	19	8
128	142	1
128	128	9
48	68	5
90	91	4
110	113	1
5	6	4
76	78	7
116	116	10
0	44	1
57	63	2
27	27	4
145	145	6
163	163	7
63	81	4
69	69	17
147	147	14
86	89	6
55	55	10
47	70	3
97	99	3
16	17	10
55	56	3
48	48	12
124	124	2
136	136	13
78	79	4
82	83	7
12	12	17
87	94	7
26	169	2
166	166	13
22	22	12
20	23	3
103	104	6
101	105	4
144	151	2
49	66	2
65	65	2
50	126	4
18	44	3
126	149	1
20	20	10
38	38	13
64	67	12
127	128	3
6	15	1
14	15	7
57	57	4
36	39	2
17	17	11
124	151	3
102	109	1
111	113	3
42	43	6
76	82	5
5	7	2
37	37	8
91	97	8
93	94	8
49	50	1
115	155	2
103	112	4
158	158	10
77	80	8
6	7	3
23	72	3
96	101	4
50	77	2
71	72	7
96	96	14
150	157	1
48	65	2
130	131	6
69	72	1
48	62	3
134	135	9
66	66	3
13	27	1
33	35	2
1	13	4
33	33	7
167	170	1
155	157	6
116	117	4
138	138	8
47	47	13
115	116	5
56	57	4
6	6	7
18	19	5
85	87	3
135	146	1
153	153	6
168	170	1
22	24	5
47	49	4
76	81	2
129	132	3
19	150	1
31	49	2
5	16	2
48	49	8
87	88	13
46	50	1
102	102	8
94	97	2
84	85	5
79	80	1
163	164	5
3	7	2
101	101	16
164	165	5
21	22	12
21	21	12
157	158	5
70	70	8
132	149	1
52	56	3
113	114	7
81	82	11
68	69	4
79	79	9
71	71	10
23	23	9
14	40	4
38	39	4
100	104	2
54	57	5
54	54	7
14	39	1
97	98	4
17	19	4
102	103	4
125	128	1
6	145	4
18	18	20
62	67	2
91	91	2
38	41	4
155	155	8
100	101	3
51	58	2
104	125	2
47	68	3
16	145	2
15	15	6
81	83	1
62	63	7
106	107	1
77	78	5
40	66	3
161	161	3
24	25	10
118	119	3
129	130	2
37	39	3
83	85	3
148	149	1
45	106	2
58	63	1
74	77	2
4	5	6
44	46	7
87	89	4
5	10	2
57	97	3
123	124	1
121	121	6
115	118	3
85	88	2
36	36	12
18	69	1
123	151	1
134	140	3
141	147	3
129	131	3
52	53	4
153	158	1
142	146	2
152	153	1
123	130	1
165	165	9
151	152	4
115	115	9
164	167	2
76	79	8
99	109	3
126	126	4
107	107	5
50	51	3
13	14	5
63	63	10
47	50	3
169	170	4
57	87	3
117	156	2
47	48	7
114	116	1
91	93	9
155	162	1
49	69	1
13	13	3
130	130	6
96	98	4
12	39	3
81	81	8
117	118	2
41	114	3
95	99	2
119	122	3
43	64	1
74	78	2
153	154	3
124	127	1
156	158	3
61	62	1
19	40	7
26	27	2
46	49	2
102	104	2
21	37	1
18	23	2
95	96	8
119	161	2
43	106	2
57	96	1
122	123	1
49	58	2
13	38	1
44	91	2
5	8	1
93	110	3
69	73	3
154	154	4
21	23	1
51	51	7
73	77	3
140	142	2
109	109	4
19	24	2
119	121	1
50	73	1
139	140	1
131	131	7
102	124	2
80	84	2
133	134	8
7	145	2
111	111	10
77	77	3
145	146	2
157	159	2
64	88	1
124	150	3
70	72	4
105	107	3
12	14	3
86	87	2
78	129	1
23	24	2
1	2	6
132	132	2
75	97	4
72	76	5
45	65	2
105	109	3
63	86	1
37	41	2
154	158	1
80	82	1
122	124	1
118	154	1
8	8	12
62	64	1
27	28	3
91	94	1
99	106	1
131	145	1
167	167	5
135	138	2
92	93	3
79	85	2
98	110	2
49	71	1
160	161	3
55	98	1
66	115	1
15	17	3
18	20	1
28	41	2
141	143	2
74	75	8
16	23	1
8	9	5
14	16	2
126	129	2
89	92	1
127	130	3
66	68	4
48	64	1
4	6	1
62	81	2
17	18	3
149	166	2
0	1	3
148	148	2
117	136	2
126	127	1
39	40	4
154	156	2
119	162	1
121	130	1
138	139	1
108	142	2
54	62	2
75	77	1
89	91	2
75	76	4
57	70	1
124	125	1
40	41	1
99	99	8
17	144	1
132	133	1
6	8	1
66	69	1
51	63	2
47	52	1
40	45	2
73	75	1
168	168	3
124	129	1
165	166	2
161	162	3
45	46	5
102	125	3
100	123	1
49	132	2
69	71	1
64	114	1
142	144	1
98	99	3
36	115	1
36	42	1
108	109	2
75	113	1
162	162	1
74	80	1
54	55	2
140	141	1
134	149	2
101	103	1
72	74	1
24	130	2
118	122	1
141	141	1
125	151	1
116	118	1
7	106	1
163	166	1
117	119	2
75	79	1
131	146	1
66	67	1
128	141	2
100	105	1
79	92	1
108	111	1
125	131	2
101	102	2
77	96	1
93	93	1
1	138	1
10	11	1
166	167	1
15	26	2
74	76	2
90	92	3
123	152	2
168	169	3
49	57	1
65	115	1
135	136	4
2	28	1
156	159	1
26	48	1
131	153	2
10	40	1
112	116	1
61	63	1
89	94	1
63	65	1
109	111	1
48	53	1
150	152	1
49	70	1
156	157	1
36	38	1
2	4	1
131	150	1
11	12	1
149	151	1
25	26	1
124	126	1
100	106	1
157	162	1
113	113	1
96	99	1
18	25	1
21	25	1
112	155	1
18	127	1
52	62	1
135	168	1
92	94	1
124	152	1
45	68	1
