78	165	3
190	190	1
20	30	7
90	90	15
74	75	2
234	234	17
8	62	2
43	43	16
192	192	11
8	8	12
52	52	11
86	86	3
60	60	8
65	65	5
119	119	11
29	30	7
34	34	12
57	57	15
59	60	5
153	154	1
90	91	2
42	42	12
235	235	8
209	210	8
236	236	16
53	53	8
72	73	2
197	199	3
52	53	2
68	68	20
23	23	10
221	221	9
176	178	6
61	61	8
14	49	1
153	153	5
79	79	13
25	25	15
151	151	14
47	50	1
186	190	3
160	160	13
88	91	4
22	23	4
56	56	10
33	36	1
187	187	6
19	33	8
45	45	14
166	166	6
63	63	9
95	113	3
41	47	1
35	35	12
154	154	12
188	189	7
246	246	17
108	109	6
168	168	11
98	98	8
198	207	2
152	157	1
212	212	18
210	211	4
186	187	4
96	96	9
157	165	1
44	45	3
236	237	6
77	165	3
155	155	7
69	70	5
228	228	8
1	1	11
27	27	20
18	38	4
62	62	17
178	178	13
92	92	3
54	54	10
4	4	11
222	229	1
88	88	7
159	160	4
201	201	11
184	184	26
180	180	19
114	114	13
17	33	5
99	101	4
233	234	7
57	69	1
68	69	5
15	18	2
18	18	14
205	205	25
229	230	5
189	189	6
219	219	17
28	48	3
193	193	7
39	39	5
159	159	19
229	229	8
12	12	15
9	10	2
50	50	4
175	175	16
206	213	2
111	111	17
38	38	3
95	101	2
111	112	18
12	47	4
181	181	16
223	223	11
158	161	3
223	224	1
208	219	4
172	172	11
213	214	8
172	173	3
207	218	3
33	34	2
186	186	8
214	215	6
208	208	22
230	230	16
69	69	10
45	58	1
195	195	5
209	209	8
169	169	5
186	193	6
178	179	4
170	170	13
93	93	11
216	216	2
202	202	6
237	240	4
49	49	6
162	162	21
156	156	23
194	196	2
79	80	3
193	194	6
163	164	4
246	247	4
76	76	14
146	147	6
147	147	6
241	241	5
208	209	9
6	6	19
33	156	3
239	239	11
55	55	11
200	200	15
177	177	13
30	30	15
227	227	7
116	161	1
242	244	6
166	167	6
179	180	4
156	157	3
180	181	11
203	203	7
217	217	15
240	241	2
91	91	18
112	112	13
96	97	3
163	163	12
19	19	8
213	213	15
3	6	1
157	158	4
37	37	22
168	169	7
65	66	2
9	9	7
18	34	5
17	21	3
204	204	13
212	214	4
163	165	5
174	175	7
175	176	6
214	214	13
112	113	4
174	174	14
35	60	2
38	236	5
28	28	6
187	211	1
35	237	3
181	182	2
154	155	5
160	163	5
173	175	1
20	20	14
66	67	4
51	51	7
2	4	4
183	183	6
176	176	15
61	62	11
221	224	2
249	249	4
77	77	10
28	39	2
230	231	2
17	18	9
220	220	14
116	116	13
149	162	2
207	207	19
70	70	9
182	182	14
56	58	8
177	178	6
38	39	2
77	78	7
106	106	4
161	162	8
206	207	2
115	115	8
118	118	11
118	119	3
33	33	5
45	50	1
173	207	4
97	97	2
204	205	4
199	199	9
243	243	8
40	40	13
75	77	1
196	196	3
76	77	6
193	210	1
206	206	7
245	246	6
145	145	5
115	117	4
247	247	3
220	231	2
162	163	9
233	233	8
5	5	14
116	117	1
41	41	12
58	59	4
95	98	1
49	212	2
43	44	5
95	95	19
31	31	10
34	48	1
21	21	12
165	165	24
17	44	1
44	44	8
85	85	11
108	241	4
210	210	9
60	63	4
200	201	7
182	184	2
145	167	2
204	245	3
17	17	12
184	185	1
194	194	9
243	244	6
97	98	4
73	119	2
66	66	9
185	185	6
32	33	2
211	211	22
152	152	8
58	86	1
169	201	5
191	191	2
88	90	1
88	105	4
231	232	4
245	245	12
239	240	2
54	55	8
181	200	4
7	7	9
109	110	8
2	2	5
32	32	7
37	38	1
188	188	6
231	231	7
151	157	3
157	157	9
107	107	6
166	181	2
35	163	1
33	149	2
201	203	3
146	146	6
80	80	5
191	208	2
116	144	2
179	181	2
211	231	1
157	160	2
51	68	3
238	239	2
99	111	2
170	171	3
104	105	1
224	224	6
72	72	7
150	151	3
80	81	1
243	245	7
244	244	5
31	32	5
225	225	5
37	39	6
210	214	1
42	43	2
19	92	1
11	11	4
173	173	5
58	88	4
196	198	1
27	32	1
113	114	8
30	31	3
11	12	3
102	102	4
168	173	1
71	91	1
59	59	4
57	60	1
164	164	9
197	197	8
162	203	4
14	18	2
167	167	6
12	14	3
28	41	3
162	165	3
19	34	1
240	240	10
159	161	2
179	188	3
74	90	2
3	3	14
161	161	10
226	226	5
78	78	2
109	109	8
185	187	5
242	242	7
94	94	1
244	245	7
114	115	11
159	166	5
71	97	3
47	49	3
85	86	2
39	40	1
235	236	1
101	101	1
73	73	3
6	7	5
175	177	1
99	99	13
29	29	4
11	47	2
89	91	2
237	238	3
49	51	2
112	115	2
160	161	3
99	117	1
193	207	3
110	110	8
10	10	6
48	48	6
206	228	1
215	215	2
181	208	1
73	75	1
71	99	1
228	230	3
117	117	6
238	238	4
159	165	2
89	114	4
60	70	2
110	117	3
216	217	2
34	237	2
222	222	6
100	101	4
185	186	6
35	236	3
108	236	2
198	199	1
41	151	3
197	198	3
58	93	1
20	48	1
199	214	1
47	48	1
56	59	1
146	149	1
188	190	2
13	15	1
153	158	1
59	61	2
18	42	2
14	14	4
185	219	1
195	198	1
21	186	3
237	237	15
82	82	3
221	222	1
214	216	1
4	12	3
205	206	2
23	35	1
26	26	7
225	229	2
201	202	3
36	36	7
157	240	1
84	84	1
16	16	5
89	89	3
182	219	1
200	202	2
234	240	1
10	42	1
87	91	3
234	235	1
168	170	1
57	61	1
6	8	2
48	50	1
183	192	1
8	11	2
219	220	4
29	48	2
198	205	3
103	103	1
186	230	2
105	105	2
152	153	3
241	242	3
171	172	2
15	15	3
150	173	2
205	207	1
22	22	8
189	190	3
63	92	2
152	154	3
151	160	2
46	46	3
193	199	2
24	24	6
167	168	3
31	33	2
110	116	1
180	193	1
215	242	3
204	207	1
179	179	4
58	58	1
116	160	3
223	227	1
183	185	2
157	238	1
110	113	1
176	177	2
150	153	1
72	103	1
44	46	2
57	58	2
47	47	4
204	206	1
183	184	4
100	103	3
189	208	4
193	212	1
226	227	3
108	108	4
5	11	1
4	5	2
81	81	3
100	100	4
11	48	1
82	83	1
222	231	1
105	107	1
36	87	3
71	71	6
232	232	1
49	50	1
112	119	1
109	157	2
98	108	1
56	64	1
64	155	1
205	211	1
51	215	5
111	120	3
224	229	3
107	108	3
145	150	1
237	244	2
150	150	5
27	28	1
25	26	6
165	166	2
54	65	1
75	75	3
94	95	2
189	191	1
32	93	2
33	45	2
87	87	2
50	51	1
99	107	1
171	171	5
60	61	1
195	199	2
118	159	2
0	6	1
3	16	1
115	116	2
202	203	1
194	211	3
240	242	3
113	113	1
226	230	1
120	120	5
70	101	1
235	240	2
184	192	1
209	211	2
65	199	1
248	248	2
67	67	4
170	172	2
211	214	1
83	83	1
18	19	2
81	83	1
37	40	1
190	191	2
45	46	3
215	241	1
215	217	3
218	218	1
162	166	1
30	37	1
222	223	3
45	234	1
147	171	2
198	198	2
22	31	1
167	180	1
181	183	1
166	175	2
112	120	3
165	222	1
103	109	2
155	202	1
185	213	1
247	248	2
162	164	1
218	219	3
117	118	3
222	224	1
32	163	1
18	44	2
6	9	1
72	74	1
54	200	3
169	170	1
208	212	1
51	52	2
192	193	2
65	67	1
72	84	1
70	71	1
34	38	1
34	164	1
10	81	1
187	209	2
109	117	1
40	41	4
42	50	1
194	208	2
105	106	2
21	39	1
220	242	1
56	68	1
34	62	2
64	67	1
201	212	1
64	65	2
33	35	1
174	176	2
33	39	2
199	204	1
69	101	2
15	16	1
26	27	1
242	243	1
53	54	1
109	111	2
54	67	1
77	79	1
92	110	1
155	156	1
146	165	1
145	169	1
54	201	3
24	27	1
102	103	1
228	229	1
171	173	1
87	88	1
17	248	1
211	242	1
207	209	2
151	237	1
73	95	1
13	13	1
2	5	1
35	36	1
59	88	1
78	79	1
22	49	1
152	164	1
19	32	1
65	155	1
220	222	1
153	159	1
41	60	1
241	243	1
50	212	1
233	235	1
227	228	1
181	207	1
201	204	1
119	120	1
216	220	1
