0	3	4
7	7	6
36	36	16
88	107	9
120	122	6
81	83	3
82	103	4
5	5	10
123	123	38
18	19	4
93	94	8
113	113	6
72	72	12
15	16	7
139	139	25
74	79	3
137	137	14
73	82	2
107	107	30
135	138	9
83	83	8
91	123	4
3	3	15
26	26	4
103	103	14
131	131	12
81	82	5
17	17	5
115	115	8
112	112	22
105	105	10
2	2	13
96	96	8
16	16	13
91	92	9
128	128	15
72	74	2
93	93	10
137	138	7
114	115	3
77	108	7
30	30	19
100	101	3
122	123	3
4	4	21
82	82	10
124	124	14
79	79	14
7	11	3
24	24	9
13	14	4
95	95	7
74	74	9
106	106	6
0	0	8
76	107	5
14	14	9
138	138	17
134	135	24
121	121	11
130	130	24
36	37	7
3	8	1
119	119	17
8	8	16
7	19	3
136	136	17
127	132	4
92	92	12
29	30	8
28	28	14
133	133	10
29	29	9
80	81	3
98	98	21
134	134	31
15	15	12
118	118	10
118	121	2
104	105	7
15	20	3
99	128	3
92	108	1
105	108	4
5	6	6
131	132	1
126	126	20
18	18	16
86	125	1
1	7	1
116	120	2
88	88	11
87	87	13
33	33	12
110	110	18
127	127	18
75	75	7
117	117	21
19	21	6
9	13	4
72	79	1
125	126	11
20	20	11
117	118	2
13	23	3
82	83	2
19	19	8
23	23	3
125	125	17
35	35	11
100	100	12
32	32	3
113	114	2
86	103	4
107	123	1
13	22	2
37	38	8
76	77	4
91	110	5
102	102	20
77	77	8
71	71	16
25	25	3
84	84	3
19	20	3
90	117	3
122	122	24
90	91	10
101	101	9
94	95	4
38	38	10
22	22	15
129	129	14
83	86	1
124	126	3
79	81	1
27	27	13
94	129	2
114	114	11
95	97	8
135	135	16
20	37	2
90	92	2
91	91	16
120	120	8
110	111	7
12	12	1
6	6	14
89	89	9
105	106	4
116	116	11
73	79	10
26	127	3
116	117	4
135	137	6
36	91	2
74	108	3
140	140	15
72	85	3
132	132	9
74	109	1
71	72	5
126	129	3
136	138	2
124	125	9
1	4	3
88	130	2
115	124	2
26	27	5
128	129	10
27	28	3
130	131	2
81	81	5
29	31	3
116	126	1
12	13	14
7	8	1
6	89	6
30	31	5
88	100	3
72	73	2
106	118	3
34	34	7
124	135	5
133	134	6
37	37	13
86	86	3
106	108	2
114	124	3
97	97	5
12	23	3
78	78	9
116	118	4
3	4	12
129	130	3
94	94	5
109	109	11
11	11	7
118	119	3
28	29	6
25	32	4
87	104	3
111	112	2
95	96	2
113	121	6
31	31	1
134	140	2
101	102	4
73	81	1
85	85	5
71	75	3
102	103	2
93	95	4
90	124	3
111	120	1
76	76	5
74	75	2
9	10	6
13	13	9
28	30	1
78	85	4
90	90	3
84	87	1
9	9	6
75	108	1
91	111	2
10	12	1
123	124	3
104	120	1
80	80	9
120	121	4
92	124	3
126	127	5
8	12	3
124	128	4
77	114	2
92	94	2
139	140	3
44	68	2
10	11	2
94	136	1
15	21	2
84	104	1
99	99	10
88	93	5
10	14	2
11	12	2
104	104	6
79	85	2
134	138	2
14	16	4
108	121	2
21	21	4
0	7	3
127	128	2
78	79	6
84	105	1
4	6	2
121	122	5
111	111	6
85	86	2
21	22	1
113	118	2
102	119	2
30	137	2
109	120	1
93	99	2
108	111	4
94	126	1
1	1	3
73	73	4
7	9	1
106	107	2
128	137	3
132	133	3
108	109	2
71	73	3
20	21	5
125	127	3
3	5	1
117	119	2
17	31	5
32	79	2
81	86	1
2	3	5
72	77	1
136	137	3
79	86	1
83	105	3
10	10	1
99	105	1
9	11	3
138	139	2
135	136	1
80	82	1
73	125	1
77	78	2
79	80	1
28	31	1
19	128	3
87	106	2
88	89	3
74	81	2
1	3	1
24	25	1
75	106	1
5	7	2
23	24	1
17	18	1
2	4	1
105	107	2
16	17	4
104	119	1
22	23	1
33	34	1
108	108	6
86	102	1
104	115	1
2	12	2
97	98	1
79	83	5
115	120	1
92	126	1
77	127	1
128	130	2
82	88	1
98	99	1
25	26	2
25	29	2
76	106	1
97	116	1
112	113	1
83	84	1
107	108	1
81	100	1
89	100	2
116	128	1
103	104	3
96	97	1
8	20	1
91	109	1
23	38	1
24	26	1
5	34	1
119	122	1
134	139	1
25	28	1
92	93	1
44	44	1
26	28	1
102	106	1
137	141	3
115	116	1
18	22	1
86	100	1
107	114	2
8	9	1
7	13	1
99	100	1
96	100	1
129	138	1
