19	19	17
115	117	1
101	101	15
58	58	17
106	106	15
96	96	10
85	85	20
26	27	11
91	95	2
89	89	12
35	75	8
63	65	2
65	65	29
118	119	8
66	67	10
76	77	20
56	78	7
93	99	5
107	107	10
10	10	29
72	72	20
77	78	10
93	94	10
35	35	25
55	55	13
95	96	18
37	37	13
99	100	31
84	85	11
90	90	23
81	115	5
74	74	18
114	114	18
17	17	23
33	33	31
63	64	7
102	102	7
80	96	3
76	76	15
93	93	30
79	124	2
102	103	4
68	69	13
122	122	14
44	45	4
26	30	3
114	131	2
36	39	5
12	12	15
28	28	11
82	83	4
38	38	11
97	98	7
27	28	5
22	76	2
47	47	31
89	91	2
3	3	19
11	45	2
25	47	4
0	9	5
104	107	1
31	60	6
92	133	6
79	79	15
11	93	13
77	77	22
33	61	5
11	11	32
84	134	1
70	71	8
6	6	15
12	33	8
87	87	5
94	94	21
134	134	18
117	117	10
40	59	3
25	25	16
123	123	17
16	26	6
5	5	36
70	70	21
113	113	22
132	132	20
89	123	4
60	60	18
18	18	18
109	110	7
98	99	13
66	77	2
80	81	8
71	71	13
78	79	14
57	57	6
29	29	17
86	86	9
32	32	11
92	96	1
117	119	4
114	115	15
45	45	23
14	14	9
109	109	21
31	31	16
23	24	9
40	41	6
84	84	26
27	27	19
80	80	9
11	27	2
28	29	4
113	116	5
7	20	4
118	121	2
87	88	8
110	111	9
73	73	34
8	10	3
14	15	4
81	81	8
34	74	1
43	44	9
37	38	9
11	18	5
3	4	3
83	83	10
46	57	3
100	100	15
111	112	1
24	24	8
29	30	22
20	20	20
20	21	18
59	60	2
5	6	7
21	21	26
91	92	3
42	44	2
92	92	24
100	106	7
8	14	1
6	7	9
61	64	5
103	104	13
81	82	16
21	31	4
114	116	9
66	66	19
97	99	6
30	32	4
62	71	3
96	99	1
75	75	20
22	36	2
11	92	9
62	63	12
60	84	4
16	16	19
9	19	3
4	4	10
12	100	3
57	58	13
69	69	16
1	2	6
38	81	2
62	62	16
15	15	21
84	87	3
22	22	12
30	88	4
73	74	7
104	105	5
18	33	2
85	88	4
97	97	11
64	65	7
30	30	13
12	13	8
34	34	16
41	41	13
125	125	8
118	118	10
56	58	5
68	68	23
44	46	8
92	93	2
83	84	8
93	123	1
26	26	30
4	5	17
130	131	5
0	0	15
44	44	8
124	124	13
75	82	2
30	37	2
36	36	18
119	122	3
103	103	18
61	66	3
106	115	4
4	102	1
7	7	20
90	92	1
108	110	2
68	70	5
23	23	11
23	27	6
67	68	4
6	17	4
112	116	1
55	83	2
1	1	13
78	80	3
100	101	5
29	49	4
9	9	17
116	117	5
78	78	9
15	16	4
38	49	2
28	78	4
29	47	3
84	127	7
8	20	9
48	48	15
41	43	12
16	22	3
7	8	11
10	11	7
115	115	3
106	107	10
35	36	7
14	98	3
23	100	2
64	118	2
76	94	1
46	46	14
82	82	9
22	31	6
63	63	6
101	102	4
112	112	17
28	31	4
13	13	14
11	12	4
88	89	2
108	108	3
25	26	1
89	90	7
93	95	13
13	18	2
45	56	7
21	22	21
8	8	13
58	59	7
128	130	3
126	128	6
130	130	13
35	45	2
43	43	15
51	51	3
121	122	9
99	99	10
46	49	1
76	78	3
55	56	6
75	81	3
106	134	2
110	110	14
17	19	3
124	125	2
89	124	4
91	91	7
130	133	5
34	35	10
24	25	4
42	46	3
20	31	4
74	76	1
54	55	4
43	55	4
29	59	2
86	88	2
48	49	14
122	130	1
116	116	9
67	67	6
26	47	2
111	111	6
130	134	6
34	36	1
126	126	9
92	97	2
61	61	22
46	111	5
105	117	5
11	48	5
107	131	1
34	42	1
12	102	1
33	35	7
127	129	7
14	99	1
104	104	7
106	114	4
65	66	3
73	76	2
40	40	5
88	88	5
42	42	9
70	72	5
65	120	1
24	65	1
103	107	9
16	21	2
72	73	8
90	99	1
9	18	6
46	93	7
94	95	5
82	127	3
132	133	6
19	20	2
14	23	2
56	56	13
128	129	8
128	128	12
112	134	3
55	57	3
39	40	10
64	64	7
116	119	2
127	128	11
111	134	1
119	119	11
113	129	1
49	59	4
22	23	5
2	65	5
16	19	3
60	81	2
57	59	2
105	115	2
13	14	10
78	83	1
13	47	1
2	9	3
95	97	4
20	37	5
34	75	2
31	32	7
0	83	2
17	18	2
117	124	2
26	93	5
48	79	1
46	64	1
11	17	5
20	76	2
8	17	3
44	61	2
59	59	18
92	131	2
98	124	4
78	124	6
96	97	6
71	72	4
98	98	10
60	99	1
46	47	2
11	26	4
91	97	3
10	17	4
61	62	3
131	131	11
111	113	4
120	120	5
105	114	5
88	90	1
27	37	2
86	97	2
46	61	3
117	120	3
49	49	4
74	78	3
125	126	5
127	127	6
46	51	2
29	83	3
36	44	1
92	132	4
79	80	5
43	46	1
92	95	2
39	59	3
56	60	2
123	124	7
27	92	1
30	31	4
86	125	1
23	42	2
106	113	2
38	60	1
108	116	3
103	106	3
27	30	2
22	26	3
102	107	2
26	28	3
12	14	2
6	10	4
42	93	1
11	14	1
82	116	3
92	122	1
79	96	2
74	96	1
92	94	3
130	132	1
120	121	3
28	36	1
112	113	7
62	64	2
49	92	2
112	114	2
85	124	3
19	21	2
51	56	3
81	85	3
34	43	2
38	50	2
99	101	4
113	128	1
78	81	1
103	121	1
77	123	1
32	93	4
19	22	2
22	30	2
105	105	6
94	98	2
122	123	5
45	47	1
66	87	1
21	35	1
38	39	2
79	82	2
14	74	1
6	48	5
129	129	6
8	19	4
45	55	2
25	82	3
27	29	3
29	31	1
35	76	4
93	96	3
131	132	4
78	125	5
46	98	1
77	79	2
97	123	2
47	65	2
9	77	2
80	97	2
2	2	2
17	45	3
102	105	2
2	3	1
7	16	3
60	88	2
26	80	2
117	118	1
8	9	2
27	67	2
24	27	3
47	48	7
117	131	1
33	34	1
7	59	2
23	26	2
119	120	8
116	121	1
78	119	1
89	94	2
84	86	3
133	133	3
9	10	1
114	128	2
85	87	2
83	122	1
31	34	1
61	98	3
82	122	1
95	95	8
107	108	2
23	25	2
23	28	2
105	121	2
82	125	2
94	96	4
83	113	2
88	96	1
59	131	1
87	127	1
86	89	4
35	74	1
77	80	3
31	61	1
133	134	4
10	20	3
24	35	2
91	114	2
105	106	1
74	75	3
81	114	1
48	84	1
102	122	1
48	83	3
20	43	1
96	98	2
113	114	1
129	130	3
112	115	1
12	24	2
21	30	2
121	121	2
33	36	1
36	38	2
11	15	1
98	100	2
31	86	3
28	30	2
107	113	2
7	15	1
8	16	1
87	123	2
80	92	2
105	107	2
5	7	3
48	60	2
29	48	2
39	39	1
94	100	4
41	42	6
85	97	1
69	70	2
124	126	1
36	37	4
50	50	1
37	40	1
8	11	1
81	84	2
103	105	1
33	63	2
81	83	1
88	130	2
81	116	1
15	99	2
20	32	4
18	20	2
115	116	3
8	12	2
27	83	1
38	40	2
3	102	2
70	86	1
86	122	1
14	84	3
56	82	1
21	27	1
47	49	1
75	76	3
95	98	1
64	70	2
27	84	1
88	93	2
28	97	1
83	126	1
48	50	2
21	62	2
49	50	1
45	46	1
62	65	1
126	127	1
77	124	2
26	92	1
22	25	1
24	36	1
42	43	2
17	102	2
120	123	2
43	60	1
18	28	1
5	8	1
6	9	1
31	93	1
15	21	1
94	97	1
91	96	1
78	97	1
117	121	1
41	51	1
15	18	2
0	1	1
63	70	1
70	78	1
79	81	1
11	49	1
21	36	1
