29	30	3
19	19	12
35	35	6
139	139	4
42	42	6
15	15	3
45	52	2
4	7	5
34	34	7
54	54	6
23	23	6
121	133	1
46	46	5
16	16	3
54	55	4
129	130	4
50	50	8
11	11	3
115	115	8
14	17	2
38	38	10
155	155	11
137	137	4
88	88	7
72	72	11
100	100	6
80	80	8
73	73	5
91	91	8
51	51	4
145	145	5
84	84	6
131	131	3
90	126	2
129	140	6
42	90	2
70	71	3
7	7	6
120	120	1
5	5	11
92	92	7
66	67	3
85	85	3
96	96	4
47	47	3
93	95	2
32	32	2
21	135	2
124	149	2
104	104	5
40	40	4
24	24	3
18	18	5
6	53	4
140	140	3
26	27	1
6	6	9
3	3	6
71	71	6
68	70	4
136	136	3
111	111	8
133	133	13
95	136	1
44	44	2
148	149	4
116	118	6
2	2	6
113	113	3
154	154	5
81	81	1
25	26	2
142	142	1
136	137	1
140	141	7
48	48	4
128	129	2
35	40	3
8	8	5
90	90	3
130	130	2
126	126	3
53	53	3
111	112	7
82	82	5
143	152	2
42	43	2
2	158	2
11	12	2
21	21	1
95	95	4
103	103	2
26	26	3
7	8	6
141	141	3
134	134	9
125	125	2
74	74	3
31	31	7
8	12	1
141	145	1
82	83	4
128	128	2
37	37	7
107	113	3
88	97	1
87	107	2
106	107	4
151	151	6
156	156	2
68	68	1
107	107	6
47	48	1
36	36	3
150	150	4
99	100	2
79	81	3
95	96	2
149	149	1
15	17	2
13	14	2
102	102	3
35	54	1
22	27	1
93	94	4
10	10	5
123	124	2
77	77	6
65	65	2
126	127	3
51	52	2
121	121	3
94	95	3
87	88	2
99	99	2
117	117	5
12	97	4
147	147	6
135	135	4
20	20	12
72	73	1
38	106	1
89	89	2
17	17	7
55	55	5
1	1	2
88	135	3
138	138	4
101	101	3
87	87	7
8	43	3
23	89	3
1	2	3
45	45	4
108	108	4
56	57	7
41	41	2
4	4	4
32	33	5
36	37	2
94	94	2
8	134	3
84	115	3
24	26	1
28	28	8
64	64	1
30	30	4
92	138	1
50	51	3
5	6	1
25	25	6
90	92	1
0	4	3
56	56	2
21	22	1
12	14	1
146	146	2
91	92	2
51	53	1
112	127	2
102	106	4
121	123	1
130	131	1
80	82	1
78	78	2
102	103	1
33	33	2
43	44	2
123	123	1
115	116	2
4	5	2
153	153	2
86	86	3
107	108	1
105	105	4
22	26	1
130	139	1
25	28	3
43	43	4
116	120	1
134	138	1
66	66	2
137	138	3
33	34	2
77	79	2
105	106	3
152	152	3
52	52	5
75	75	4
144	147	2
35	36	2
39	89	3
118	119	6
144	148	5
80	81	2
145	146	1
107	111	2
29	31	1
46	47	1
13	13	3
118	124	2
64	68	1
66	70	2
153	154	2
124	134	1
97	97	1
132	132	1
127	127	1
3	4	2
23	24	2
29	29	2
45	48	2
100	101	2
55	56	1
116	117	1
143	143	2
44	47	1
103	131	1
67	67	3
45	46	4
14	16	3
108	111	1
131	133	1
102	129	1
83	83	1
112	112	1
15	16	1
39	39	2
77	78	1
145	149	1
70	70	1
93	93	1
112	113	1
11	21	2
20	22	1
88	126	1
83	85	1
144	146	1
91	141	1
117	120	1
98	98	1
153	155	1
