107	107	9
88	90	4
139	139	9
43	43	8
4	4	8
48	48	5
115	116	5
0	1	2
160	160	6
164	167	1
82	82	3
81	82	4
41	41	2
151	151	15
89	89	9
34	34	4
154	154	9
151	152	2
69	69	4
114	114	1
19	19	4
140	140	7
93	93	4
26	26	9
14	14	14
47	48	1
40	41	2
10	10	5
137	137	5
99	99	10
130	131	1
18	18	2
84	84	2
105	105	4
129	151	2
110	110	3
161	162	5
78	79	4
36	36	13
84	85	4
143	145	1
94	95	7
103	103	5
24	26	2
102	149	1
137	138	1
5	6	5
120	121	1
65	65	2
57	57	2
118	118	2
166	166	1
70	70	3
49	73	1
22	22	4
129	129	5
46	81	4
135	135	5
22	23	3
25	72	1
92	93	4
101	101	4
110	111	6
106	106	6
36	37	1
91	94	7
43	44	3
97	98	2
7	109	1
83	99	3
112	112	2
67	67	2
45	45	8
132	132	2
155	156	4
128	130	2
74	79	3
38	39	4
119	119	4
114	115	5
35	36	2
81	81	5
138	138	4
149	149	3
104	104	6
163	163	3
16	16	6
134	139	1
87	88	1
156	156	3
109	111	4
80	81	1
7	7	5
111	143	2
111	111	5
27	27	3
42	42	9
165	165	1
101	102	5
11	12	3
111	112	5
112	120	4
109	109	7
46	46	6
155	155	5
54	55	10
139	140	2
92	92	3
107	108	4
56	62	1
96	98	2
17	17	7
106	167	1
65	67	1
63	69	1
24	24	6
81	101	2
70	71	5
122	125	3
50	50	5
3	53	5
3	3	4
155	157	4
44	44	4
38	38	6
27	37	5
117	118	3
144	144	1
7	10	2
12	28	3
112	114	1
15	22	3
153	153	2
100	102	2
131	131	3
0	0	4
93	94	4
48	49	6
113	122	2
124	129	1
128	151	1
2	3	1
37	82	1
9	9	2
101	103	2
117	147	6
123	125	1
52	52	3
33	42	1
126	127	1
68	68	1
64	64	8
20	20	8
95	95	4
46	47	2
130	130	2
37	38	3
159	159	3
137	153	1
53	53	2
26	43	2
86	86	5
15	20	4
45	46	2
137	139	1
6	110	2
136	138	2
49	49	2
79	80	1
18	19	1
152	152	6
50	62	1
156	157	2
78	80	4
77	85	1
34	35	2
46	90	4
83	83	3
117	117	3
150	150	1
153	154	1
2	13	1
4	6	1
100	101	2
164	164	1
96	96	5
74	75	3
57	58	4
88	89	2
37	37	4
13	13	2
58	58	1
167	168	1
142	142	2
158	158	4
129	131	2
39	39	3
126	126	4
74	74	1
128	128	1
80	80	4
167	167	2
13	14	1
55	56	1
7	21	2
56	57	3
128	154	1
91	91	2
135	140	1
124	124	2
170	170	4
50	73	1
64	69	1
165	167	1
18	20	1
15	15	4
80	83	1
155	160	1
25	36	3
27	28	2
40	40	2
36	74	2
120	120	1
97	97	1
71	71	1
122	123	2
69	70	3
23	23	1
5	20	2
100	100	3
47	47	1
62	62	2
115	115	1
105	106	2
35	38	1
45	47	1
16	122	1
49	50	1
103	105	1
34	38	1
21	21	2
128	142	1
11	11	1
53	55	1
10	12	1
96	100	1
119	121	1
75	75	1
25	25	1
124	125	1
89	90	1
127	130	1
23	40	1
109	121	3
51	51	1
6	6	2
76	78	1
87	97	1
24	25	1
44	91	1
90	90	2
19	20	1
8	13	1
2	11	1
146	146	1
111	122	1
23	24	1
94	94	1
147	148	1
119	120	1
9	10	2
158	160	1
109	116	1
90	99	1
2	2	1
57	97	1
134	134	1
54	54	1
65	66	1
72	72	1
52	81	1
71	74	1
52	65	1
4	65	1
15	17	1
116	116	2
152	153	1
125	125	1
5	5	2
76	79	1
161	161	1
47	49	1
4	5	1
125	126	1
55	55	1
33	44	1
86	87	1
90	91	1
116	120	1
21	22	1
102	103	1
131	132	1
