59	60	3
28	29	1
54	101	2
98	98	4
94	94	12
84	84	6
57	75	2
47	48	9
112	113	5
22	29	3
95	103	3
69	78	4
54	54	8
35	35	3
60	66	5
78	78	6
71	77	1
39	39	6
62	63	2
90	91	4
74	74	14
53	53	11
67	67	4
61	62	2
20	23	1
83	83	11
92	93	1
26	27	10
21	22	7
42	43	6
24	25	2
81	81	10
99	99	10
28	28	4
106	106	10
54	58	3
28	113	5
100	113	2
57	57	7
20	22	1
101	101	8
76	76	11
43	45	1
20	20	3
91	91	5
34	35	4
89	90	4
42	46	1
110	110	14
105	106	7
36	37	10
93	93	6
61	61	7
98	99	2
102	103	7
44	64	2
49	49	10
105	105	17
85	85	3
65	66	2
112	112	3
86	88	3
108	108	9
38	39	1
111	111	11
50	51	2
100	100	5
60	60	13
56	56	10
63	82	3
43	44	7
103	103	5
38	38	1
27	27	6
62	82	4
52	52	8
95	95	7
97	97	5
71	71	2
63	63	8
88	88	15
70	112	3
55	57	4
33	33	11
93	98	3
45	46	2
73	114	3
58	58	10
19	19	2
73	73	5
62	87	3
24	24	8
100	101	3
72	72	6
79	105	3
110	111	3
96	97	4
31	101	7
83	93	1
59	59	4
39	59	5
50	114	1
84	85	4
20	21	2
64	83	2
46	46	5
32	32	8
51	52	2
69	77	2
49	52	5
47	83	2
80	80	11
86	94	1
109	110	12
48	48	8
62	86	1
101	102	7
51	51	3
76	77	1
109	109	3
64	69	2
48	52	2
45	45	7
38	58	6
38	53	3
83	84	2
36	36	7
25	27	1
113	114	4
70	113	3
96	96	4
75	77	3
86	96	3
30	30	4
62	62	4
97	98	3
55	55	4
25	25	2
37	37	8
88	96	6
104	108	3
104	106	4
39	40	2
113	113	7
92	92	12
22	37	2
58	59	6
22	26	1
70	70	5
87	87	1
66	67	4
58	101	1
25	67	1
66	66	5
86	86	2
82	82	5
89	89	2
55	70	2
32	33	2
114	114	3
55	75	1
27	32	3
23	23	8
48	83	2
77	77	5
75	75	3
79	81	1
63	67	2
47	86	1
99	100	5
50	50	2
86	97	3
49	50	3
73	77	3
85	86	4
102	102	7
53	59	1
21	21	4
42	42	7
41	41	5
81	83	2
93	94	3
91	97	1
82	98	1
83	85	1
49	111	2
86	87	1
115	115	1
64	64	3
56	57	1
30	31	3
28	111	3
46	60	4
20	105	1
57	58	1
82	86	1
87	88	3
81	94	3
74	114	2
103	105	1
76	80	1
83	98	1
70	75	1
41	114	3
25	35	2
47	47	4
65	65	3
20	26	2
79	79	4
82	109	1
86	93	1
46	51	2
94	103	1
43	43	3
99	113	1
93	97	1
63	64	2
55	62	2
40	100	2
65	70	1
43	56	1
39	46	2
69	72	1
52	84	1
37	46	3
48	49	3
56	63	1
40	40	3
39	100	1
31	31	1
68	68	2
104	104	1
88	89	1
65	74	2
72	73	1
27	28	2
68	70	2
71	74	1
57	59	3
44	44	2
71	72	2
41	42	1
47	93	2
44	59	1
69	70	5
106	107	1
37	73	1
107	107	1
63	66	2
104	105	1
39	103	1
53	101	1
65	75	1
44	84	1
103	104	1
99	104	1
34	37	1
21	24	2
81	82	1
33	34	1
55	56	1
80	113	1
59	61	1
78	108	1
25	71	1
26	26	1
111	113	2
64	65	1
46	59	1
89	91	1
94	97	1
85	93	1
