80	80	25
79	89	4
106	107	3
61	61	12
77	77	16
83	83	9
57	58	3
38	38	5
81	82	7
45	45	10
88	89	2
101	102	2
30	30	6
40	40	15
78	79	5
47	48	2
44	44	4
20	20	8
69	69	18
83	95	5
55	56	4
104	108	7
19	19	4
32	32	8
102	102	10
29	30	1
61	67	1
109	109	16
114	114	8
81	100	2
82	83	5
70	70	15
28	28	7
71	72	5
63	63	6
50	50	15
30	31	3
87	88	10
73	76	4
94	94	16
99	99	11
44	45	1
43	43	9
49	49	13
21	21	3
80	81	6
28	31	1
108	108	8
92	95	6
95	95	6
76	76	9
94	108	1
86	86	4
75	75	7
73	73	15
20	21	11
47	47	3
57	57	6
111	111	10
39	40	6
62	62	10
67	84	3
55	55	4
100	103	2
83	93	1
105	105	5
35	35	3
29	29	8
58	58	7
90	91	3
30	114	3
46	46	11
80	90	4
64	67	2
33	33	5
106	110	3
39	39	7
76	78	2
42	43	2
48	48	7
95	97	4
86	87	4
22	22	6
67	68	4
113	113	6
107	107	15
63	65	11
97	97	4
72	79	1
48	65	4
90	96	3
61	62	10
74	74	3
92	92	7
54	54	2
88	104	2
103	108	2
79	84	2
24	26	1
49	66	1
69	70	9
34	34	3
108	112	8
43	44	7
52	52	11
23	23	5
106	106	2
99	100	5
25	26	2
41	41	2
43	45	4
27	27	12
67	67	15
75	77	2
78	78	8
29	31	3
110	112	5
89	90	1
68	87	1
60	60	15
111	113	2
27	28	9
79	79	10
104	104	4
78	81	4
108	110	2
110	110	8
104	105	3
49	50	1
79	80	2
25	25	6
33	34	3
107	108	1
84	84	7
100	102	4
24	24	9
53	54	1
21	47	2
53	59	5
96	98	2
63	64	3
67	75	1
89	89	4
19	20	1
26	26	5
98	98	4
74	75	2
73	74	7
102	103	5
62	63	3
34	35	2
40	41	3
68	69	3
100	101	5
72	82	3
36	36	4
37	38	7
56	57	6
109	112	3
31	31	4
97	99	1
87	87	6
85	86	3
21	22	5
68	68	2
113	114	3
66	66	6
96	97	1
51	51	3
100	100	7
91	91	4
105	106	5
66	67	3
65	67	4
31	33	5
47	49	4
80	82	1
56	56	3
42	42	6
37	37	6
70	73	2
90	90	4
105	107	2
103	103	5
76	77	3
112	113	3
82	84	2
54	55	1
59	60	3
83	106	1
91	95	1
92	93	2
80	97	1
93	93	3
74	87	1
110	111	5
93	94	1
85	114	1
81	81	1
99	101	3
32	34	1
59	59	1
77	78	2
66	74	1
29	114	1
72	72	1
28	29	2
94	95	1
41	42	1
36	37	4
103	104	1
70	81	1
111	112	2
84	85	5
112	112	3
85	105	1
38	39	1
99	106	1
71	71	4
74	85	1
82	82	2
70	82	1
98	99	1
64	64	1
55	69	1
76	79	2
48	49	2
101	101	3
97	100	1
53	53	1
92	94	1
53	55	1
34	74	1
54	59	1
97	98	1
74	89	1
