77	78	8
29	30	1
62	63	13
64	64	20
34	34	17
79	80	11
94	94	28
35	35	11
21	21	8
50	68	1
92	104	1
85	86	4
55	55	7
97	97	11
23	24	5
76	76	14
73	73	16
99	99	16
84	85	7
74	74	10
41	41	8
91	92	1
48	48	12
46	47	1
105	105	19
89	89	23
29	46	3
77	89	2
53	53	7
102	102	16
57	57	14
28	29	16
40	41	4
84	84	10
88	88	12
92	92	8
78	78	12
38	39	2
65	66	3
96	96	29
25	25	14
81	81	5
62	62	10
31	31	13
22	22	25
104	104	11
57	58	6
81	84	6
104	105	1
37	38	4
79	79	4
60	62	11
24	24	7
30	30	9
26	26	6
80	81	5
32	55	2
60	61	7
37	37	22
91	91	14
44	44	9
78	81	4
68	69	9
93	93	20
85	94	2
87	87	8
43	43	14
101	102	8
33	34	1
65	67	1
80	80	3
27	41	4
87	88	10
45	45	9
50	50	6
106	107	4
82	82	11
27	27	10
70	70	8
106	106	1
59	59	11
73	74	5
97	99	2
68	68	13
47	47	4
92	105	6
103	103	21
90	92	1
65	65	14
100	100	16
20	21	8
83	83	29
23	23	15
66	66	9
97	98	5
63	64	6
44	47	1
45	54	1
61	62	8
42	42	4
32	32	4
80	88	5
44	45	4
85	85	11
20	20	17
77	77	4
54	54	10
75	75	10
40	40	11
78	80	5
79	84	3
28	28	14
41	49	6
51	51	4
63	78	1
96	97	5
26	27	5
76	77	5
63	63	7
80	84	6
86	94	4
49	49	7
58	58	6
95	95	16
75	76	1
89	90	4
59	61	1
94	95	5
101	105	2
86	87	2
33	33	21
69	69	14
49	80	2
28	30	1
98	99	4
98	98	12
72	74	3
40	42	2
87	95	5
49	88	6
29	29	2
101	101	10
62	84	3
28	45	5
26	43	3
71	71	5
58	59	7
32	33	3
90	90	6
51	52	4
53	54	4
55	56	3
38	38	6
104	106	1
99	100	1
83	92	2
81	93	7
78	79	3
82	83	1
95	97	1
52	53	5
94	97	7
42	45	1
52	107	5
48	56	1
41	44	1
85	87	4
69	70	4
25	79	1
60	60	1
71	72	2
52	52	4
39	39	10
72	72	2
61	61	5
67	67	3
103	105	1
66	67	2
97	100	1
35	65	3
41	42	1
25	27	1
80	85	3
49	50	2
93	97	3
59	60	1
82	86	1
81	82	2
107	107	2
34	36	1
46	46	6
39	44	1
61	81	2
27	31	1
50	56	2
82	88	2
56	56	3
80	102	2
35	104	2
83	84	3
52	90	2
46	58	1
53	104	1
95	96	2
76	79	2
70	74	2
53	63	1
48	50	1
40	45	1
46	49	2
43	44	2
27	29	3
50	52	2
93	94	1
58	60	1
24	58	1
90	91	1
67	68	1
86	86	1
54	55	3
25	26	1
81	92	1
54	78	1
60	67	1
39	65	1
84	86	2
83	85	1
24	36	1
48	49	1
86	88	1
95	99	1
25	28	2
31	32	1
27	28	1
47	48	1
21	23	1
32	34	1
36	37	1
86	90	1
51	54	1
47	52	1
24	25	1
