66	66	12
52	52	6
4	4	5
56	56	17
16	16	6
42	42	11
19	19	10
16	20	2
50	51	7
15	15	12
46	46	20
20	26	3
31	32	4
70	70	8
57	57	13
49	51	6
60	61	6
54	54	11
2	3	4
72	72	5
17	19	3
41	42	1
39	39	23
8	9	1
49	49	17
33	33	7
17	17	18
11	11	4
10	71	3
14	49	11
8	59	4
47	48	6
15	16	3
47	47	10
33	34	3
7	7	15
1	2	8
48	48	16
57	59	5
1	1	6
48	65	9
5	5	8
68	68	12
63	64	6
14	15	5
36	36	14
0	37	7
75	76	2
0	0	3
53	58	2
4	7	3
55	55	16
68	69	8
2	2	10
80	80	18
45	45	7
64	64	13
63	65	1
65	65	17
74	74	6
28	30	1
76	78	3
62	62	2
31	78	3
2	37	3
62	63	2
51	51	5
54	55	3
76	76	9
3	3	8
35	35	6
11	13	1
62	65	5
9	9	12
4	27	5
58	58	8
30	30	9
1	35	8
18	29	1
10	10	6
9	70	3
73	73	9
60	64	1
16	17	2
20	20	5
26	26	7
19	27	2
69	70	5
27	76	4
45	75	1
37	37	9
28	37	1
12	13	8
41	41	15
47	60	2
26	37	5
8	8	10
2	17	1
1	37	4
7	8	3
77	77	8
78	78	12
13	14	2
6	6	13
37	39	2
2	19	3
61	61	8
55	56	6
29	29	17
35	36	4
54	56	3
53	53	4
30	55	3
62	64	6
63	69	2
59	59	5
18	18	7
28	55	4
76	77	5
74	76	4
29	36	3
51	52	1
15	65	2
67	67	13
71	71	11
61	71	1
38	38	11
72	73	1
67	68	5
16	25	1
40	40	3
14	52	3
15	25	2
25	25	7
32	33	4
58	59	2
75	75	4
77	78	1
46	47	4
4	5	5
9	72	1
8	58	1
34	56	2
30	31	1
9	71	1
17	27	1
57	73	3
5	7	5
10	32	3
28	28	8
21	21	4
10	33	3
49	50	1
79	79	5
63	63	2
31	31	2
29	30	2
57	58	3
39	40	1
13	13	1
55	57	2
27	75	1
69	69	3
6	30	2
63	70	1
12	12	2
17	60	1
27	27	11
42	43	1
48	73	1
60	60	9
18	19	1
66	67	1
73	74	1
37	38	3
26	27	3
35	57	1
36	37	1
19	46	2
3	17	2
50	50	7
35	62	1
67	71	1
11	32	2
30	48	1
14	14	3
7	55	2
45	46	1
59	60	1
10	54	1
33	49	1
71	72	2
48	68	1
68	70	1
7	47	1
43	43	1
70	71	2
21	25	1
63	68	1
34	35	3
12	72	1
8	29	1
10	11	1
2	35	1
55	66	1
15	60	1
52	53	2
78	79	1
14	32	1
