26	28	8
67	67	16
22	22	1
83	83	4
64	64	6
46	46	8
70	70	9
91	108	2
113	113	4
80	81	1
15	15	5
56	56	6
46	47	6
28	82	3
58	59	3
125	125	4
71	71	3
28	44	1
21	37	5
32	32	5
47	48	2
81	93	2
32	33	2
73	73	15
50	50	9
68	118	1
76	76	10
76	77	6
4	30	1
106	106	2
65	65	10
130	131	2
84	85	4
110	124	4
9	9	5
12	97	4
13	19	1
35	35	3
72	72	9
71	72	7
74	74	7
80	80	7
41	42	5
0	0	4
43	44	3
66	66	13
75	75	3
81	81	7
39	40	6
16	44	1
7	7	3
132	133	5
88	92	9
126	126	3
93	94	1
4	5	5
61	61	9
99	99	9
115	115	1
73	74	2
6	6	7
88	90	2
40	40	5
31	31	3
98	99	5
118	118	2
27	27	11
2	3	2
15	29	5
36	36	3
26	40	2
7	14	2
97	97	5
96	96	7
86	86	2
85	85	3
82	84	1
22	28	3
95	95	2
101	102	1
121	125	2
130	130	5
56	58	4
5	5	4
108	108	4
124	124	5
45	45	10
41	60	1
46	73	1
16	43	2
30	48	4
114	114	1
82	82	4
49	50	1
26	27	6
69	69	5
56	60	2
79	79	4
8	87	1
55	55	2
28	49	2
7	8	1
48	48	7
108	124	4
68	68	6
60	60	3
12	75	2
29	29	6
114	116	2
47	47	11
84	84	3
87	87	1
9	68	3
61	64	1
77	77	5
104	104	2
69	75	1
14	43	3
38	38	2
134	134	1
49	51	4
36	112	3
59	59	3
129	131	3
94	95	2
35	36	3
119	119	6
24	25	4
32	34	2
46	71	1
128	128	1
8	8	2
119	124	3
94	94	2
33	33	2
117	125	1
18	20	1
19	20	1
83	95	1
7	134	1
12	13	4
121	121	7
10	45	1
96	101	3
5	45	2
102	107	2
63	63	7
126	131	1
12	92	1
78	78	3
19	19	6
46	74	3
6	129	2
23	23	3
93	93	5
11	11	1
39	39	1
11	92	1
41	41	5
107	107	2
112	112	2
3	101	2
7	27	2
20	20	1
44	44	2
101	101	3
79	91	1
93	96	1
93	99	1
2	2	3
100	102	2
47	65	1
63	64	2
76	79	1
75	76	1
103	132	1
110	110	2
60	61	4
13	30	1
87	88	5
1	1	2
68	71	1
16	16	2
29	101	2
80	129	1
79	82	3
117	117	2
95	104	2
13	87	1
58	58	5
96	97	4
19	98	1
28	28	2
122	122	2
3	5	1
99	100	1
81	84	1
125	133	1
15	16	4
90	92	1
14	16	1
70	71	1
13	14	1
85	86	4
9	118	1
102	102	1
9	10	2
116	120	1
127	128	2
31	33	1
105	105	1
29	30	1
77	78	1
79	80	1
6	91	1
88	91	2
104	122	1
112	123	1
55	58	1
76	78	1
105	121	1
100	101	1
45	71	1
14	14	1
11	79	1
78	79	1
