0	1	5
138	138	7
77	78	2
78	79	6
137	137	2
88	89	10
151	151	1
16	109	2
81	81	3
22	22	2
72	72	7
83	83	9
73	73	6
142	145	2
76	76	6
169	169	2
120	120	3
28	36	2
126	127	1
79	79	5
50	50	5
11	12	3
62	62	7
2	125	2
94	94	5
168	168	1
71	71	8
42	42	10
133	133	3
53	105	1
40	41	5
82	82	5
34	34	8
9	9	12
108	144	1
112	112	4
148	148	1
105	105	2
103	103	3
155	156	6
84	84	5
164	164	5
116	165	2
97	99	3
23	163	3
25	25	2
115	116	1
121	166	1
154	154	3
167	167	8
39	40	2
86	87	2
125	155	5
74	75	1
27	27	7
20	23	1
75	75	9
125	125	1
121	122	1
98	98	4
113	114	2
100	100	5
12	12	11
113	116	3
16	16	6
86	86	7
57	62	1
81	95	2
97	97	6
156	156	9
40	88	1
95	96	3
154	155	2
3	3	12
64	64	4
146	157	2
144	144	2
3	4	4
2	2	6
19	23	4
134	134	10
14	15	3
124	124	9
99	151	1
155	155	10
55	55	1
18	19	3
63	147	1
46	46	4
89	89	5
68	68	5
102	102	4
121	121	2
48	48	8
140	141	2
54	54	14
87	87	1
96	105	2
37	37	7
79	100	2
42	45	1
100	102	4
101	145	2
57	66	1
17	17	5
8	109	3
13	14	2
8	8	10
117	117	4
85	86	4
109	111	2
74	76	1
90	90	9
170	170	1
132	133	3
124	126	2
47	104	9
40	87	6
111	111	8
63	70	2
71	75	1
74	74	3
14	14	2
27	149	2
142	142	1
64	88	1
131	131	2
98	99	10
15	15	9
46	143	2
70	70	3
158	158	4
43	103	2
108	108	5
93	93	3
157	157	5
136	136	5
27	132	1
149	149	1
77	77	8
99	109	1
78	115	1
0	112	3
52	52	4
92	93	6
56	57	4
147	148	1
23	23	12
135	141	1
24	24	9
6	7	2
113	113	2
36	36	6
124	127	1
41	42	1
102	103	6
4	7	1
100	107	3
52	54	1
35	35	3
50	75	1
127	127	7
20	20	7
49	50	1
83	84	1
153	153	3
69	69	9
107	107	2
6	6	13
72	73	3
16	64	3
154	158	1
94	96	3
1	28	3
17	20	1
120	121	3
18	18	2
91	91	12
63	71	4
66	81	2
39	39	7
100	101	2
91	96	2
91	94	1
16	166	2
106	145	3
56	113	2
88	88	1
148	149	2
7	7	4
10	10	7
134	135	2
13	18	1
66	66	4
150	150	4
67	68	8
71	127	2
160	160	2
55	56	3
139	139	2
110	110	7
145	145	4
39	51	5
145	147	2
16	21	1
83	89	2
91	95	4
80	81	7
22	25	2
38	40	1
51	51	3
101	101	2
109	110	5
102	104	2
118	118	1
87	90	1
106	107	3
57	57	3
65	69	1
78	78	2
5	5	2
164	165	3
75	76	1
0	0	1
37	42	1
71	72	3
56	56	7
49	49	2
34	35	1
44	104	2
53	53	3
49	103	2
63	64	1
82	83	3
4	4	5
88	100	1
1	1	3
20	21	1
62	63	3
94	95	3
57	64	2
118	164	2
53	55	4
39	41	2
43	43	8
41	41	3
125	130	1
122	133	1
123	124	2
54	107	1
139	140	2
149	150	2
90	93	2
22	118	1
128	129	3
111	113	2
9	10	2
101	105	1
141	142	1
45	45	3
161	163	2
152	152	1
68	102	2
132	132	1
167	168	4
63	63	3
137	140	2
44	45	2
123	123	3
47	49	2
167	170	1
21	21	3
3	5	2
11	101	1
12	13	3
157	158	1
72	74	2
16	167	1
93	94	1
0	2	5
50	51	3
134	136	1
95	95	3
117	162	1
52	82	2
41	51	1
26	27	1
114	116	1
96	96	2
43	44	2
58	63	1
114	114	4
112	115	1
24	25	3
5	7	1
52	55	2
65	68	3
55	132	1
19	19	2
92	92	2
163	163	3
126	126	2
133	134	1
117	163	1
76	99	1
47	141	1
17	166	1
79	84	1
162	165	3
77	115	1
66	67	2
85	95	1
139	142	1
44	44	1
38	52	2
129	129	1
20	110	2
36	37	1
46	47	2
38	39	2
47	105	1
73	74	4
7	10	1
45	46	2
40	40	3
54	145	1
101	123	1
54	148	1
57	61	1
91	92	1
53	102	1
50	104	1
33	34	2
28	28	1
141	141	1
26	26	1
131	132	1
101	102	1
58	94	2
104	106	1
41	149	1
26	166	1
8	9	2
11	11	2
22	24	1
159	159	1
116	116	2
115	115	1
84	130	2
74	102	1
54	55	2
98	126	1
38	42	1
109	114	2
95	99	1
166	166	1
34	134	1
80	80	2
162	163	1
35	37	1
38	38	1
122	122	1
106	106	1
40	89	1
135	135	4
143	143	1
70	72	1
67	67	1
168	169	1
3	71	1
48	49	1
