63	83	3
4	6	3
64	64	19
147	148	6
76	87	5
24	24	14
165	165	11
102	104	8
5	7	2
156	156	15
144	144	4
13	14	12
37	37	12
36	48	4
55	55	15
111	112	6
112	112	11
79	79	15
65	65	3
151	152	12
118	165	3
144	146	4
50	81	6
51	51	31
167	169	2
99	99	7
137	137	7
97	97	7
70	71	4
80	83	2
146	147	6
23	23	16
41	41	16
42	42	17
74	74	33
36	36	18
157	157	12
118	123	2
27	27	14
161	161	11
55	56	11
116	116	16
100	100	6
82	82	9
47	47	10
118	118	20
71	72	13
119	120	14
160	160	10
150	150	20
34	34	18
160	161	3
80	80	15
77	78	11
21	23	10
24	44	2
150	153	1
78	79	4
40	40	15
135	143	1
113	113	10
44	45	9
116	121	1
96	96	18
119	159	2
1	1	14
92	93	9
6	8	1
154	154	16
86	86	17
136	136	16
124	124	14
169	169	6
90	90	17
43	43	7
104	104	22
131	131	12
76	99	1
123	126	1
115	115	14
130	131	2
147	147	8
54	54	5
72	74	5
75	75	14
78	82	1
34	35	7
153	154	9
123	123	12
108	108	9
46	52	3
11	13	2
12	12	10
92	92	16
73	73	15
58	58	6
91	91	13
122	122	6
8	10	3
52	57	1
152	152	9
72	73	7
100	101	4
136	137	2
22	22	4
19	19	9
33	33	5
50	50	25
0	2	4
126	126	8
67	76	3
163	168	2
84	85	26
55	57	4
121	121	13
88	88	15
19	156	2
20	159	2
6	7	7
109	109	11
67	67	9
9	20	2
48	49	14
146	148	6
138	138	12
143	143	3
40	41	5
129	129	16
63	63	10
93	95	3
70	70	11
77	77	13
105	105	7
26	26	13
88	105	2
34	107	1
57	57	7
92	94	8
120	155	2
139	139	9
46	46	18
151	151	11
120	121	3
49	49	8
51	54	5
130	130	9
155	155	21
83	83	8
170	170	3
87	89	6
91	93	4
76	77	8
35	35	14
117	119	1
85	85	6
4	4	15
93	96	1
42	43	3
9	9	12
114	114	15
69	69	12
97	98	2
27	45	6
3	3	11
47	48	2
77	83	3
90	91	5
115	117	3
117	118	7
153	155	3
104	105	10
134	134	11
144	167	2
137	168	5
108	109	7
57	91	1
14	15	11
83	84	7
8	8	9
89	90	3
76	84	1
88	89	15
18	18	14
78	78	9
38	39	2
20	21	7
37	38	4
93	99	4
159	159	9
140	141	9
103	103	15
133	134	6
168	168	4
50	51	6
125	125	7
110	111	3
66	81	3
10	10	14
21	21	13
111	111	15
164	167	1
19	23	2
15	17	2
105	106	5
40	147	2
64	66	6
106	108	1
6	6	9
7	9	3
118	119	7
149	149	14
1	2	4
107	108	12
129	130	2
5	24	2
22	23	6
19	164	1
98	99	7
133	133	11
129	151	2
131	132	6
130	152	5
73	74	5
102	106	1
45	55	3
17	17	11
98	98	7
89	89	7
76	76	15
140	142	4
162	162	3
143	144	6
43	55	2
8	9	7
66	75	1
116	117	6
154	156	4
53	53	8
119	155	2
78	84	2
128	131	2
56	57	4
84	84	6
88	97	4
39	41	2
81	81	16
98	132	2
101	101	11
134	135	2
117	117	6
167	167	5
35	36	10
128	128	3
10	20	5
148	148	4
93	93	7
25	25	15
106	107	5
118	164	2
82	83	3
168	169	6
36	37	2
101	111	1
137	159	1
27	28	9
88	99	1
75	88	2
25	47	2
86	88	1
20	84	3
110	110	10
20	20	6
108	111	2
85	101	2
99	101	2
140	140	6
23	24	1
126	127	10
0	0	4
53	54	1
145	145	10
132	132	3
145	154	3
9	22	2
119	119	7
72	72	16
113	135	5
5	9	6
123	154	1
87	87	6
46	50	2
3	5	12
52	52	6
2	2	2
102	103	2
85	86	4
45	46	2
135	135	5
102	102	14
146	149	3
9	41	3
146	146	2
165	167	1
24	110	2
62	62	11
95	95	7
16	17	3
20	22	8
56	58	5
141	142	3
122	123	5
103	104	6
56	56	6
4	5	3
106	106	12
9	24	5
112	114	6
17	166	2
21	22	3
78	86	2
148	149	14
7	65	1
44	53	1
87	95	2
96	100	6
76	86	7
10	11	2
137	138	1
24	47	4
123	151	2
100	132	3
116	137	4
165	166	6
18	158	4
162	163	5
63	66	1
82	105	2
36	47	3
96	112	6
18	81	1
107	107	10
153	153	10
96	114	4
17	25	1
19	20	1
67	68	5
135	136	2
47	49	2
12	14	1
92	133	3
53	62	4
77	80	3
69	70	8
146	154	2
98	100	2
125	131	2
144	145	6
9	10	3
68	69	1
49	50	1
96	97	4
109	110	4
6	40	5
45	45	7
15	15	6
73	75	5
80	82	4
99	100	3
142	144	3
155	156	3
94	95	3
94	116	1
119	166	2
120	120	4
99	111	1
127	127	3
89	94	1
121	157	2
152	153	2
71	71	8
86	87	2
26	42	1
144	154	1
94	94	7
161	162	3
44	46	2
89	115	1
15	16	4
161	164	2
50	82	1
158	158	10
87	88	3
44	44	11
91	99	3
139	141	1
25	26	4
101	102	5
18	19	4
120	163	4
66	66	5
163	165	1
38	146	4
43	44	4
13	13	3
57	62	2
153	159	4
93	94	2
17	18	2
81	82	2
52	53	4
51	52	1
43	45	2
45	47	1
65	68	2
128	129	2
16	16	5
57	63	2
19	159	2
14	14	1
115	116	2
7	7	4
82	84	1
63	68	2
95	114	2
148	154	1
10	12	5
104	113	1
5	40	5
166	166	3
86	89	5
101	109	1
139	140	1
74	76	1
38	38	11
114	115	4
77	81	1
79	80	2
167	168	4
5	6	3
48	48	2
167	170	1
112	116	1
18	23	1
6	68	1
112	115	1
84	100	4
48	50	1
129	137	3
20	24	3
122	155	3
5	5	2
163	163	3
159	160	1
89	91	2
47	57	1
19	120	2
142	142	2
62	63	7
166	167	4
6	9	1
163	164	1
158	159	3
101	112	5
68	68	4
2	40	2
7	10	1
164	164	3
87	105	1
79	100	3
20	25	3
44	52	2
18	74	1
75	82	1
8	39	3
64	82	2
84	86	2
13	16	3
79	101	1
28	28	4
0	1	2
127	131	2
41	42	1
126	130	3
162	165	3
124	151	1
142	143	6
46	51	1
25	44	2
95	97	3
128	157	1
20	47	1
100	131	3
62	82	1
128	130	2
124	126	2
127	128	1
157	158	2
113	114	1
26	27	1
138	139	1
74	75	1
145	146	1
79	83	1
125	127	5
137	169	2
63	81	2
89	96	1
77	87	1
55	58	1
69	82	2
156	162	1
89	106	1
86	105	1
74	86	1
97	131	1
121	122	2
91	107	1
46	47	1
125	126	1
2	3	2
39	39	1
128	132	2
94	96	2
124	150	1
11	12	1
14	25	1
125	150	1
81	83	1
153	157	1
97	99	1
98	101	1
141	141	1
164	165	1
76	85	1
62	64	1
100	133	1
97	104	1
103	105	1
151	153	1
76	81	1
65	67	1
12	13	1
