119	119	6
35	36	8
27	27	4
4	5	1
135	135	4
121	123	8
29	29	3
58	58	6
136	137	3
92	92	7
68	69	4
90	90	6
95	95	14
134	139	4
0	6	3
8	8	7
38	80	3
120	123	2
85	107	2
1	1	3
119	142	3
118	134	2
14	71	1
47	51	1
132	132	3
52	52	5
110	111	4
69	70	7
15	16	5
49	50	1
126	126	12
117	117	5
75	75	6
93	93	7
118	118	12
50	51	1
93	97	3
94	95	4
71	71	5
56	56	3
80	114	1
83	83	4
125	129	2
63	63	3
69	69	1
128	129	5
5	5	8
124	126	1
55	56	5
11	11	4
66	66	4
38	38	4
125	125	2
127	129	5
101	102	3
68	68	7
4	4	3
23	24	1
115	115	2
59	60	7
139	139	15
119	133	3
3	3	12
21	21	2
122	122	6
105	105	5
109	109	3
124	124	7
127	127	10
139	140	6
122	124	1
73	73	5
121	121	10
80	80	4
128	128	7
143	144	3
20	21	4
78	78	14
88	115	5
34	34	5
61	62	2
27	28	2
123	123	8
141	141	4
132	140	2
61	61	3
48	48	5
91	91	7
57	59	2
118	119	11
6	6	4
99	99	5
119	134	4
25	35	1
113	113	1
28	28	7
106	106	1
72	72	3
130	130	7
43	43	5
74	74	6
88	98	3
59	59	5
140	140	5
49	49	8
135	136	2
100	101	1
129	129	8
95	96	4
19	20	3
40	40	6
136	136	7
41	41	11
34	35	4
87	87	8
101	101	11
140	141	1
18	18	8
142	144	3
116	117	3
106	107	4
33	33	2
131	131	6
89	97	3
104	104	2
107	107	6
39	41	4
51	52	1
138	139	8
133	133	15
126	127	1
134	134	8
92	93	2
137	138	1
4	95	2
19	19	13
77	80	2
20	48	1
13	13	4
36	36	3
107	108	4
35	35	5
129	130	4
42	42	8
90	91	4
133	135	1
71	73	1
120	126	2
1	12	4
3	4	2
53	54	1
91	92	1
96	96	2
52	53	1
120	120	8
83	97	2
142	143	3
47	47	2
37	38	3
63	74	1
55	119	3
74	75	2
100	126	2
115	116	3
50	88	1
146	146	1
21	99	1
0	88	1
30	31	2
125	140	2
122	123	4
98	98	5
82	82	1
60	61	1
32	32	2
117	119	3
137	137	7
145	145	2
79	81	5
79	119	1
30	30	4
2	6	1
23	23	2
3	17	1
25	25	5
33	34	2
2	35	1
113	114	3
21	22	1
59	67	2
67	68	1
97	97	1
19	22	1
36	37	3
100	100	1
2	2	3
138	138	4
100	103	2
85	85	2
31	32	1
64	64	3
20	20	3
29	30	3
76	76	2
26	35	1
82	83	3
25	37	1
89	90	1
9	9	2
53	53	2
117	118	4
118	131	4
103	104	2
97	133	1
23	59	1
16	16	1
23	128	1
88	108	1
32	33	1
116	116	2
50	66	1
99	101	3
128	138	1
54	54	2
143	143	2
120	131	1
8	16	1
70	71	2
102	102	3
14	16	1
18	43	1
14	72	2
38	67	1
65	65	2
93	94	3
8	10	2
115	136	1
67	84	1
110	110	2
55	55	5
41	42	2
81	117	1
10	10	4
12	13	1
15	15	2
43	48	3
63	69	1
121	136	2
13	54	1
125	130	1
50	52	1
17	17	1
89	98	1
80	81	1
70	70	1
18	53	1
133	134	2
113	125	1
128	130	1
37	37	3
1	36	2
93	95	1
34	85	1
107	109	2
1	4	1
25	26	2
22	22	4
108	108	1
113	115	1
71	72	1
85	108	1
89	89	1
49	75	1
47	48	2
84	84	1
14	14	2
4	34	1
26	26	1
27	29	1
144	144	1
60	60	3
94	107	1
19	59	1
0	37	1
76	78	1
119	120	1
38	39	1
125	126	1
126	128	1
14	15	1
142	142	1
43	52	1
