42	51	3
5	5	19
24	82	3
87	88	11
23	23	24
116	117	6
41	42	11
28	28	15
65	65	34
48	49	3
81	81	22
60	60	27
30	37	3
35	36	8
38	38	23
51	51	6
40	40	12
83	84	9
64	64	26
76	76	41
46	47	6
82	87	4
90	90	27
84	84	22
91	92	11
60	83	5
26	26	26
131	131	10
47	47	59
30	30	22
23	24	8
29	29	11
47	48	7
122	123	3
27	27	40
38	40	4
103	104	8
22	91	3
13	13	30
62	62	22
113	113	13
100	100	12
104	104	13
121	122	11
73	73	13
95	95	17
18	20	2
5	6	8
6	7	9
71	72	9
102	103	6
77	77	12
15	23	3
16	16	10
36	45	4
100	101	6
121	129	2
48	48	18
118	118	4
22	22	7
1	9	1
70	76	3
11	11	47
83	83	12
108	122	2
22	24	6
90	91	8
80	81	4
133	133	11
36	36	23
9	76	5
93	99	1
17	18	6
31	31	22
10	11	6
12	12	16
79	79	13
11	12	3
2	2	5
25	60	5
21	76	6
43	43	11
63	63	17
91	93	2
10	10	32
120	120	5
4	4	26
117	117	13
121	121	6
132	133	17
119	119	10
15	15	27
4	78	5
61	65	3
20	20	20
33	33	21
39	39	5
88	95	3
14	14	8
70	70	7
86	86	16
112	112	12
126	126	8
59	60	4
107	110	1
46	46	23
9	9	26
37	38	11
45	45	24
99	100	7
74	74	15
24	64	3
62	63	3
23	45	1
108	108	6
87	87	13
101	101	30
58	58	11
68	69	9
71	71	8
109	109	14
26	27	11
96	96	21
110	116	1
18	18	27
66	66	16
67	67	5
103	108	3
10	14	7
41	65	1
29	35	1
3	3	10
44	45	19
123	123	5
17	17	22
15	17	1
0	1	4
78	79	6
99	99	3
114	115	4
27	28	5
15	16	5
97	97	11
82	82	25
20	21	2
76	120	1
82	83	9
57	57	23
55	56	7
92	92	10
32	81	3
34	34	19
66	98	4
106	106	9
102	105	5
19	46	2
3	4	8
56	56	8
78	78	24
11	93	3
89	92	5
32	32	27
115	115	11
45	63	1
49	59	2
20	44	3
28	79	2
92	93	12
33	81	2
98	99	9
27	79	1
103	103	9
8	8	11
124	124	9
102	102	9
94	95	20
61	76	3
7	23	2
101	104	2
42	42	11
2	3	2
21	55	1
17	31	2
33	60	3
12	13	3
73	74	7
127	127	10
107	109	4
90	92	4
21	85	4
69	70	5
117	118	3
7	8	16
50	50	1
86	100	4
93	94	7
31	32	2
124	125	14
43	57	5
94	98	4
105	106	3
122	122	6
29	91	1
38	43	2
80	86	2
127	133	4
6	6	32
25	26	10
132	132	5
125	127	2
64	65	1
63	75	2
29	30	10
21	22	5
72	72	7
69	69	8
10	12	1
4	5	5
26	78	5
26	92	11
20	81	4
44	44	20
77	78	13
95	96	9
93	93	22
58	60	4
16	17	3
35	35	13
34	76	2
19	21	3
6	8	1
19	22	4
26	77	4
21	21	7
37	39	2
130	130	9
83	87	1
13	14	9
95	100	5
74	75	6
93	124	4
96	97	6
101	102	2
116	130	2
115	127	1
96	103	2
55	70	2
19	19	18
78	80	5
61	61	17
117	121	1
95	108	3
36	37	6
120	121	4
126	128	5
111	111	17
24	24	5
24	32	8
118	119	3
59	59	12
0	14	1
88	88	17
22	26	3
104	105	4
5	66	2
15	29	1
10	15	7
7	7	13
58	92	3
8	17	2
33	78	5
89	91	2
132	134	2
3	25	3
14	15	8
25	25	12
65	102	2
72	98	1
8	21	2
117	120	3
42	83	2
70	71	4
14	16	5
128	129	1
50	58	1
116	134	2
68	68	15
105	105	5
114	114	7
41	43	6
90	95	4
9	10	1
79	80	11
7	10	2
36	38	4
84	85	8
93	98	4
94	94	14
80	80	10
113	114	5
36	39	1
7	93	1
30	31	1
57	59	2
116	131	5
32	36	6
129	131	3
85	85	10
8	33	4
37	37	3
86	96	5
12	73	2
45	64	1
129	129	11
84	88	3
27	47	1
18	74	1
31	45	2
134	134	3
38	48	4
38	80	4
8	32	3
88	93	1
63	64	3
22	23	2
39	40	6
13	77	2
116	126	1
12	64	2
8	38	1
67	68	3
46	71	5
15	74	1
24	26	3
81	82	5
98	98	5
41	41	5
48	59	3
125	126	3
7	26	1
111	113	2
17	46	4
6	26	6
72	95	1
89	90	1
43	47	4
106	132	4
60	61	1
126	127	6
127	132	1
26	31	1
126	129	6
36	50	3
76	77	6
32	34	4
108	109	10
44	56	2
38	42	4
110	110	2
97	98	4
40	42	6
29	83	1
93	95	3
57	58	9
44	48	1
49	49	2
128	128	10
12	77	1
29	60	1
36	59	3
18	19	4
40	41	9
31	90	1
103	105	4
82	88	1
19	20	7
129	130	2
45	46	2
43	44	4
3	9	3
8	9	3
4	29	1
35	76	1
32	33	2
89	96	1
95	107	1
0	0	3
107	107	5
113	116	1
93	123	5
63	74	1
20	76	1
131	132	7
37	71	1
4	7	2
21	48	1
27	92	2
78	96	2
7	43	2
128	132	1
33	34	5
21	54	3
4	6	2
44	76	1
23	64	2
24	25	6
30	83	4
38	39	3
95	98	2
111	112	2
125	125	4
88	89	1
89	89	5
86	87	2
22	25	3
55	55	4
99	112	1
94	96	5
75	75	12
25	30	2
43	45	1
7	75	1
48	99	2
34	74	2
85	86	2
88	92	2
48	82	1
56	89	2
83	88	2
97	100	8
91	91	10
26	47	2
54	55	1
11	27	3
127	130	3
27	82	2
77	79	2
15	47	1
85	89	1
34	77	1
110	111	2
115	132	1
39	50	4
86	90	4
98	100	1
20	84	2
17	19	6
18	35	1
126	133	1
109	110	1
112	115	1
43	93	1
61	72	3
16	74	1
82	93	3
97	99	2
28	29	4
58	59	2
25	47	2
18	44	2
42	43	3
12	35	1
58	62	2
112	113	2
122	130	1
72	73	5
11	14	2
16	23	2
102	104	1
123	128	1
116	116	4
34	35	2
106	131	1
118	120	1
21	38	2
6	25	1
20	29	2
10	85	2
11	15	2
86	91	1
119	123	1
11	94	1
106	115	4
108	111	1
27	101	1
40	49	1
12	27	1
73	84	1
43	88	3
93	100	2
102	112	1
9	24	1
45	71	1
16	75	1
38	81	1
8	36	1
21	49	1
24	83	1
31	43	3
11	26	2
8	59	1
30	89	1
106	116	1
60	92	3
6	39	2
25	78	1
84	107	1
115	116	2
24	33	2
25	33	1
100	112	1
20	27	2
83	107	1
35	62	1
36	43	1
3	86	2
107	123	2
20	46	2
44	47	3
101	105	2
1	1	2
76	123	1
65	66	1
87	89	1
11	92	1
116	132	2
61	74	1
27	97	2
10	21	1
85	96	2
26	30	1
101	106	1
94	99	1
111	117	1
124	127	1
56	57	1
45	69	4
10	28	1
33	80	1
11	62	2
80	83	1
45	57	1
44	60	3
28	80	1
19	45	1
112	132	1
88	104	1
107	125	1
130	133	1
68	74	1
93	96	1
127	131	1
95	101	1
112	122	2
76	111	1
122	134	1
27	77	1
9	29	1
28	30	1
95	97	2
81	105	1
26	28	1
20	51	2
29	31	1
8	83	1
85	87	1
87	96	1
89	103	1
27	89	1
56	60	1
23	26	1
82	84	1
58	90	1
101	115	2
13	75	1
42	92	1
96	98	1
42	65	3
92	94	1
20	60	2
88	94	1
108	110	1
8	35	1
107	108	1
32	63	1
29	49	1
31	34	1
66	85	1
26	93	1
