82	82	11
99	99	8
11	134	4
104	123	1
134	134	4
60	82	8
63	63	5
86	87	3
3	100	1
27	27	4
77	77	6
121	122	3
26	26	13
107	107	7
30	30	14
100	100	6
20	83	2
79	79	15
19	19	4
46	103	5
132	132	4
27	29	6
7	50	6
22	41	4
46	61	5
2	11	3
91	91	8
91	92	2
16	18	1
33	33	12
46	46	2
38	38	3
114	115	2
102	131	1
0	0	7
34	34	8
29	29	4
119	119	3
109	109	3
38	81	3
38	39	3
20	30	1
59	60	4
12	12	3
25	99	2
62	66	2
99	100	3
95	96	6
11	12	4
23	24	4
35	36	3
36	36	5
10	10	3
122	122	7
60	60	3
101	101	5
4	5	4
93	130	3
68	68	7
57	58	2
15	17	2
45	45	6
80	80	4
95	95	5
12	98	5
75	75	10
131	132	2
84	133	2
48	48	2
87	87	5
118	118	3
3	8	3
6	6	6
28	28	3
21	21	4
18	18	8
77	78	2
0	10	3
3	3	5
96	96	3
72	74	1
84	84	1
86	86	3
25	26	1
112	112	3
73	77	1
107	115	2
64	64	4
59	59	3
98	98	1
31	32	1
49	132	2
124	124	2
91	95	3
20	21	5
105	105	3
26	48	4
66	66	2
19	36	1
5	5	6
62	63	3
120	120	5
73	73	7
79	82	3
14	17	7
69	69	4
90	107	2
26	27	1
29	30	2
82	83	2
94	94	2
35	35	4
8	8	6
79	80	3
117	123	2
7	7	2
70	71	3
85	86	3
92	93	3
73	107	2
44	78	1
132	133	4
49	49	2
62	62	2
43	124	2
3	12	1
122	123	2
48	50	4
38	42	1
51	97	1
106	106	1
62	74	3
27	28	6
41	101	2
71	71	7
66	67	2
78	79	2
89	93	1
83	83	2
22	69	1
14	15	5
78	78	1
109	131	4
78	81	2
100	101	3
25	25	2
14	16	2
23	23	2
64	123	1
10	46	1
21	41	2
112	113	1
26	41	1
5	20	2
96	97	1
27	47	3
83	97	1
68	69	1
21	95	1
10	32	1
111	112	1
23	26	2
13	13	1
48	49	1
28	80	2
25	47	1
121	121	1
11	11	3
75	76	1
102	102	1
128	130	1
61	61	3
37	38	4
11	82	1
8	56	3
43	101	1
13	26	2
39	40	1
47	93	4
44	44	3
27	82	2
48	87	1
28	29	1
84	85	1
93	94	1
28	62	1
4	6	2
39	39	2
93	93	2
61	75	1
4	4	4
9	10	1
81	81	1
32	92	1
125	125	2
111	111	2
13	74	1
40	40	3
104	105	3
2	28	1
39	44	1
24	26	1
15	15	1
32	32	1
3	47	1
97	97	1
80	81	1
3	4	1
70	70	2
13	14	1
103	104	2
117	117	1
24	42	1
37	82	1
20	20	1
30	44	1
59	88	1
37	37	1
126	127	2
115	115	1
83	85	1
57	60	1
22	22	1
87	88	1
65	65	1
94	128	1
90	93	2
24	24	2
36	95	1
2	3	1
118	119	1
