62	62	4
83	84	8
98	98	4
91	91	3
86	86	2
27	27	11
29	29	7
23	23	15
56	56	7
24	24	6
79	79	2
50	50	13
73	73	17
63	64	6
69	69	4
24	93	3
47	47	2
35	35	9
61	62	2
80	80	4
76	76	16
57	58	4
60	60	8
36	37	5
34	34	8
31	32	6
80	83	5
36	60	5
59	60	7
22	82	3
31	89	2
33	33	1
106	106	5
90	104	1
81	81	5
43	44	4
26	27	6
50	51	1
73	103	3
70	70	5
53	53	11
22	22	15
58	58	10
33	60	4
56	57	2
47	48	4
84	85	5
30	30	12
57	57	3
32	32	14
37	37	6
77	105	2
54	54	11
39	39	8
63	63	7
99	99	10
40	94	2
68	70	3
82	82	3
91	93	2
94	94	11
37	60	2
74	102	3
51	52	2
103	103	1
24	41	1
87	87	8
43	43	11
84	84	6
57	61	8
44	44	14
24	94	3
83	95	6
25	25	7
53	54	2
33	96	3
94	97	3
21	21	4
65	66	2
65	65	10
71	71	12
41	41	2
104	104	5
67	67	6
26	26	7
95	95	4
39	91	1
42	59	7
41	93	3
42	42	8
23	95	4
105	105	8
39	43	1
24	27	3
21	22	2
61	63	3
83	91	2
32	33	4
90	91	9
39	41	2
41	106	5
83	85	1
31	91	3
41	65	4
100	100	3
84	86	3
38	38	1
35	36	6
98	99	1
74	74	9
64	75	4
55	55	3
45	46	4
79	80	1
48	49	4
94	95	2
24	81	2
70	71	5
49	78	3
79	81	3
49	49	1
78	79	4
57	85	1
41	42	6
22	37	1
68	68	8
51	51	14
92	92	4
93	94	4
33	34	3
57	59	1
62	88	1
75	75	6
60	61	4
76	88	1
48	48	8
24	30	1
31	31	4
83	88	1
78	107	2
52	52	5
31	34	3
35	49	1
26	30	3
85	85	5
69	70	2
56	73	2
39	95	1
88	88	5
102	102	2
31	47	1
92	97	3
89	89	4
63	81	2
67	69	3
61	64	2
82	83	2
93	93	8
97	97	5
49	50	1
68	69	2
54	72	3
100	101	2
28	29	1
79	82	1
90	94	2
30	33	1
21	88	2
36	92	5
25	42	1
76	79	1
80	81	2
64	64	4
26	83	1
72	72	1
90	90	2
92	95	2
40	41	4
77	88	1
61	61	4
89	90	1
21	89	1
20	21	1
75	78	1
37	39	2
28	28	2
76	104	1
93	98	1
101	101	2
34	81	1
45	54	1
20	20	1
34	106	1
33	98	1
30	48	3
30	99	1
36	36	1
40	95	1
59	59	1
50	69	1
106	107	1
97	98	1
71	72	1
71	79	1
42	43	1
85	86	1
87	90	1
95	96	1
41	89	1
66	79	1
40	40	2
82	84	1
62	63	1
41	66	2
27	28	1
77	77	1
40	79	1
53	100	1
23	48	1
