67	67	12
70	71	5
33	33	9
119	119	9
87	100	2
95	95	11
125	127	2
119	121	1
101	101	12
32	32	10
12	13	2
63	64	12
78	78	12
29	29	8
105	106	2
46	46	9
86	90	3
124	124	4
68	68	6
41	59	2
66	83	5
30	30	8
48	93	3
28	91	2
9	9	5
60	92	1
63	73	4
33	34	4
82	82	7
66	66	16
81	81	6
46	48	5
99	99	7
132	132	8
124	126	3
47	47	17
94	101	6
95	100	2
3	4	1
11	11	25
88	88	5
127	127	2
84	84	15
100	100	2
79	80	3
87	87	7
26	134	1
59	59	7
95	98	4
78	79	7
122	122	8
56	58	1
99	100	7
4	6	2
61	61	10
14	15	3
25	26	4
61	69	3
26	27	14
103	104	5
34	85	4
9	12	8
71	72	1
80	80	5
93	93	12
44	44	12
2	2	2
116	116	10
77	78	2
89	93	2
96	114	1
36	43	2
22	93	1
36	36	4
97	97	10
23	24	14
10	83	1
85	86	9
17	86	5
68	69	3
96	97	5
34	35	2
1	1	2
25	25	6
0	0	3
23	23	8
94	94	7
69	69	13
118	119	4
107	107	4
130	130	11
81	82	2
57	58	3
50	58	2
48	49	2
104	104	2
28	28	12
24	132	6
34	34	16
133	134	2
78	80	6
18	18	12
87	88	7
13	26	3
13	14	2
41	42	7
109	110	3
65	65	8
93	95	2
62	72	1
7	15	2
13	13	10
28	80	2
79	79	5
67	68	1
92	94	1
111	111	7
11	12	2
91	91	3
48	50	1
110	111	7
108	108	8
100	101	7
73	73	8
29	30	6
62	62	2
96	96	4
91	127	1
87	108	3
10	11	5
82	84	7
41	41	10
76	76	7
85	85	6
79	81	4
24	24	3
83	83	6
95	97	5
27	27	5
74	75	1
98	100	2
5	5	3
91	93	1
42	42	5
64	64	11
7	7	10
10	12	8
15	28	3
3	90	1
50	50	8
40	40	2
45	45	6
102	103	2
10	10	6
37	42	5
27	48	3
26	26	13
77	77	9
98	98	6
126	134	4
3	3	11
95	99	3
15	15	6
124	125	1
19	19	5
12	12	6
72	72	7
95	96	2
128	128	9
14	16	2
129	129	7
84	85	6
56	59	2
25	62	10
20	20	9
92	93	4
90	91	2
41	47	5
87	123	1
31	35	1
56	57	1
126	126	10
20	22	3
35	35	6
59	75	1
44	68	1
38	38	7
8	9	2
8	35	4
34	36	3
86	86	16
117	117	8
17	17	4
88	89	2
94	95	7
63	75	3
14	14	5
41	45	4
31	32	10
63	63	7
49	49	3
26	96	1
10	79	1
1	2	4
25	47	2
133	133	6
89	89	4
46	62	1
114	114	7
120	122	1
92	92	8
98	99	2
104	106	1
56	56	3
123	124	6
71	71	5
118	118	3
115	115	4
113	114	2
121	121	3
129	131	3
38	39	1
20	21	2
131	132	3
109	109	2
86	118	1
27	97	3
8	47	3
123	123	2
48	95	1
93	96	1
37	38	2
131	131	3
112	112	3
22	22	6
66	86	2
47	90	1
57	82	2
8	13	2
90	90	6
12	60	1
58	58	9
6	11	3
102	102	5
106	106	6
16	16	9
74	74	4
89	90	3
62	69	2
117	125	1
86	87	3
80	84	1
110	110	4
73	74	1
17	18	3
62	65	2
11	64	1
27	29	1
41	82	1
46	61	3
77	80	2
22	37	2
27	28	6
24	26	2
93	128	2
130	132	1
6	7	1
42	43	3
85	101	1
88	96	1
43	44	2
61	70	1
48	48	7
70	70	4
84	90	2
32	33	3
33	35	1
35	36	2
60	76	3
17	61	2
126	129	2
113	120	1
21	30	2
117	126	1
129	130	2
25	75	1
66	67	1
88	109	1
93	98	1
27	47	2
0	10	2
44	60	1
45	89	1
67	73	1
22	35	1
57	57	3
75	75	8
84	131	2
104	105	2
55	55	4
61	72	3
7	42	1
100	102	1
95	101	2
103	103	3
19	84	3
96	105	2
72	119	1
35	77	1
4	4	2
43	45	1
62	71	1
64	65	4
31	31	3
21	37	2
43	55	1
111	112	1
87	101	1
10	46	2
91	92	3
11	60	2
82	83	6
39	81	4
51	54	1
17	19	3
39	40	4
6	6	4
7	14	1
120	120	2
71	73	3
107	108	1
88	107	1
24	25	2
99	101	1
56	82	1
4	5	1
60	60	5
83	84	3
112	120	1
74	84	2
21	76	1
16	19	1
16	63	1
117	121	1
118	123	1
47	72	1
10	13	3
121	122	5
3	101	1
10	33	1
58	59	1
40	58	3
45	76	1
112	114	1
69	73	1
113	113	2
82	90	3
22	36	1
77	122	1
87	91	2
99	102	1
41	43	1
93	127	1
8	8	2
29	49	2
87	93	1
119	123	1
103	112	1
115	116	1
11	48	1
10	14	1
19	20	1
30	81	1
91	96	1
59	60	1
24	129	1
27	96	1
27	92	1
90	92	1
125	125	1
93	94	1
15	16	1
39	39	1
108	109	1
18	20	2
7	16	1
36	41	1
15	17	1
11	13	1
46	47	2
75	76	1
15	74	1
24	30	1
47	48	1
25	49	1
19	63	1
16	28	1
24	82	1
48	81	1
116	117	1
134	134	1
43	43	1
66	72	1
23	26	1
