152	153	8
14	14	18
57	58	6
26	26	9
92	100	3
65	65	7
128	128	6
104	110	3
37	40	3
27	28	3
83	83	4
153	153	17
19	19	19
63	65	3
4	4	7
35	35	13
41	42	9
41	46	2
53	53	21
112	125	2
3	31	2
97	97	10
75	75	10
23	23	24
90	90	10
104	109	6
48	48	21
24	24	16
98	98	23
16	16	24
9	9	16
78	81	6
106	150	4
107	153	3
121	121	3
40	41	6
94	94	27
76	77	13
124	124	10
46	46	15
55	63	3
118	118	12
12	12	15
38	38	18
70	70	22
132	132	5
36	36	18
26	27	5
120	144	5
67	67	22
130	147	7
40	40	17
104	105	10
9	18	4
20	21	20
102	103	1
13	13	32
35	37	9
94	95	4
32	35	2
32	32	16
131	131	11
22	23	8
102	102	16
131	145	4
5	5	19
77	77	11
70	71	9
79	82	2
148	148	7
57	57	8
133	133	13
45	45	21
146	146	10
135	135	14
110	110	10
24	25	7
142	142	12
5	7	2
64	64	19
73	73	18
9	43	2
21	21	19
95	95	15
75	76	6
69	69	23
34	34	18
31	32	5
15	16	6
49	49	21
143	145	6
107	110	3
124	131	1
127	128	5
18	18	10
87	88	7
79	80	5
95	97	5
87	113	2
11	57	1
139	141	2
21	26	6
73	74	8
4	65	1
19	20	1
119	122	1
131	138	5
66	66	11
7	7	13
11	12	5
35	38	3
109	109	6
17	17	16
127	127	2
101	102	7
42	43	10
139	140	2
106	118	2
70	150	3
135	136	2
84	85	8
82	121	1
132	136	9
74	74	11
87	112	5
98	99	4
31	34	3
15	15	14
49	73	4
13	14	12
119	123	3
39	39	16
91	96	2
119	119	14
68	69	6
141	141	7
28	67	5
98	149	6
43	46	3
120	122	2
54	55	4
72	72	14
105	122	2
32	55	4
115	115	18
138	138	5
126	126	8
22	22	13
23	40	2
2	44	2
134	136	2
32	33	8
65	67	2
37	88	5
154	154	4
25	25	17
112	112	5
110	111	10
100	100	12
88	88	5
94	99	2
56	56	14
61	65	1
42	42	21
62	78	2
26	28	5
128	141	3
145	145	7
7	8	5
81	81	12
23	25	1
150	150	5
82	84	3
53	61	1
133	134	8
18	19	10
95	98	4
79	86	2
114	114	11
25	39	2
55	55	10
99	99	17
105	108	3
108	109	3
129	129	15
134	134	10
86	86	5
31	31	17
39	53	5
115	118	3
6	11	6
86	112	3
91	92	1
126	127	9
145	146	1
34	36	1
28	30	3
73	93	3
4	5	5
12	57	9
66	68	1
66	67	9
112	113	2
62	63	7
5	6	6
17	42	5
27	30	3
3	3	10
43	43	18
152	152	10
17	43	2
63	63	8
80	80	13
34	35	4
125	125	4
71	71	11
17	19	1
130	130	12
37	54	4
7	13	1
20	23	1
51	51	6
137	138	4
5	28	2
96	97	8
114	115	7
43	44	4
146	149	2
123	123	3
120	120	6
37	37	16
147	148	3
29	29	7
33	36	7
38	39	5
9	12	1
87	87	12
86	87	4
48	53	6
132	142	2
4	6	5
54	54	6
107	151	4
49	50	4
96	150	5
25	33	2
106	106	11
10	10	16
68	98	2
68	68	11
41	41	12
130	131	3
11	11	5
46	47	5
33	33	8
96	96	14
9	10	6
128	129	8
82	82	10
6	6	14
71	80	3
125	137	2
84	84	7
69	72	2
62	62	9
123	150	2
55	77	1
108	108	11
40	46	3
76	76	10
63	64	4
93	93	19
145	147	6
87	111	3
55	56	1
151	151	6
65	75	1
17	18	3
147	152	1
78	80	4
40	86	2
18	41	2
121	147	2
51	52	3
149	154	3
97	98	4
76	78	2
88	93	5
44	44	8
80	83	3
32	56	2
119	120	4
79	116	2
123	139	2
13	67	1
72	84	2
33	54	1
47	47	22
70	149	1
89	100	1
138	145	1
84	86	7
16	28	1
7	29	1
52	52	4
81	94	1
27	27	6
12	56	2
26	33	4
71	72	6
124	125	1
79	97	2
149	149	9
107	107	10
2	3	1
28	28	6
137	137	3
50	51	4
38	56	2
49	52	3
42	44	5
73	77	2
92	105	2
19	53	4
39	40	4
42	66	3
33	58	3
20	22	1
115	116	1
50	50	7
22	34	1
30	30	14
10	11	2
125	127	3
20	20	17
43	47	1
73	81	2
105	150	3
109	137	1
41	43	5
143	143	5
22	38	4
107	114	1
85	96	1
86	121	2
33	35	4
70	106	3
6	7	9
25	26	8
86	113	2
22	39	1
76	80	1
37	51	3
116	116	9
6	12	1
52	53	1
21	58	2
139	143	2
58	58	9
72	74	1
114	120	2
4	22	1
5	66	2
65	68	4
117	117	6
96	100	1
47	48	2
20	51	3
130	144	2
105	105	3
105	124	2
9	17	3
55	57	3
8	42	2
150	151	3
28	29	5
88	122	2
118	119	3
64	74	2
7	11	1
4	72	3
75	81	2
140	144	1
2	8	1
2	20	2
6	128	2
136	138	6
7	37	3
111	132	2
70	96	1
71	73	1
136	136	2
19	26	4
74	93	3
129	130	1
139	142	3
48	49	3
92	92	7
94	97	2
10	16	3
73	106	2
82	83	7
71	79	4
25	34	3
23	24	5
32	36	5
99	143	2
117	118	2
30	38	3
81	82	8
79	79	7
134	148	4
77	78	2
144	145	1
85	85	5
101	143	1
34	37	2
93	110	2
144	148	1
10	15	2
131	146	2
139	139	14
105	139	2
142	144	2
100	102	1
11	28	3
26	61	1
81	84	1
92	93	2
83	84	6
113	113	2
54	56	1
44	45	3
138	149	3
142	143	2
80	82	3
132	134	2
129	131	3
16	17	2
111	111	3
10	12	4
25	28	1
7	66	3
85	86	6
15	27	3
134	135	2
51	53	1
78	78	3
128	130	2
71	87	1
80	81	2
123	124	7
120	125	1
24	38	1
101	101	1
19	48	2
153	154	2
78	82	2
65	74	3
82	85	4
19	35	1
34	110	1
116	119	1
42	69	4
81	86	3
53	67	5
8	8	8
128	133	2
22	54	3
7	31	1
11	20	1
15	20	2
103	103	4
5	22	1
22	40	1
40	49	1
119	135	2
90	91	2
11	56	1
83	121	1
95	104	2
116	117	1
37	71	1
113	114	2
145	154	3
122	147	1
94	98	1
104	104	1
14	15	3
15	17	2
64	65	2
62	64	5
97	147	1
15	49	1
76	87	3
21	28	1
96	108	1
141	142	3
73	87	5
120	121	1
12	51	1
124	137	1
18	35	2
6	28	1
67	84	3
97	104	1
56	57	3
67	99	2
31	35	1
26	51	1
50	86	2
72	89	2
98	144	1
6	16	3
21	23	2
31	104	2
5	13	1
11	25	2
45	51	2
33	34	5
96	103	2
75	78	1
54	135	1
48	70	1
106	137	1
103	104	2
122	122	3
91	100	2
20	31	1
107	111	1
35	36	2
96	99	1
133	138	2
93	112	1
11	14	1
14	45	3
27	66	1
100	111	2
62	75	1
118	134	1
121	122	2
66	93	2
31	88	6
3	19	1
88	96	1
3	5	3
83	93	1
74	92	1
106	107	4
123	125	1
83	85	1
56	58	1
110	124	1
85	146	3
85	102	1
120	145	2
39	89	1
147	147	2
102	116	1
62	77	2
28	46	1
79	93	1
75	84	1
44	117	1
18	39	1
132	135	1
5	68	2
48	57	1
87	92	2
37	38	1
45	46	1
22	33	2
3	7	1
132	141	1
136	137	1
86	89	1
11	64	3
74	75	1
94	148	1
99	100	1
111	137	1
8	33	2
144	144	2
5	36	1
48	52	1
75	86	1
105	114	3
6	66	2
99	119	1
149	150	1
68	85	1
4	13	1
7	17	1
84	98	1
69	114	1
5	14	2
72	93	1
74	81	1
55	66	1
41	80	1
25	35	1
23	31	1
74	87	2
125	138	1
75	77	1
129	132	1
52	56	1
45	99	1
4	96	1
73	84	2
9	11	1
113	116	1
75	87	1
80	89	1
30	51	1
21	31	1
2	2	2
30	89	1
19	31	1
81	89	1
143	144	1
79	106	1
23	27	1
27	29	1
