94	95	9
36	37	1
85	86	8
90	90	17
60	60	13
79	92	2
50	50	39
73	74	6
87	87	19
84	84	11
64	64	33
89	89	36
46	46	21
36	64	1
65	67	3
95	95	12
70	70	22
40	40	7
45	45	16
57	58	12
41	41	17
63	63	19
99	99	35
89	90	20
55	55	18
93	93	13
27	27	17
76	77	18
71	72	13
51	51	14
64	77	2
29	31	2
80	90	2
68	68	18
87	92	3
38	40	4
61	61	8
76	76	20
40	41	8
61	62	8
74	74	20
56	56	20
91	92	19
29	29	9
54	83	2
66	66	15
71	71	16
58	72	2
98	99	5
49	49	22
65	66	5
81	81	26
72	72	22
37	64	2
77	77	33
31	31	12
69	70	11
84	86	5
58	58	17
83	83	26
67	68	10
92	92	28
94	94	32
33	35	3
26	26	7
54	54	16
62	63	6
33	33	5
34	34	11
35	35	11
55	59	2
51	52	5
85	85	8
90	91	9
29	30	12
86	86	18
38	38	22
39	39	22
100	100	8
47	48	11
67	67	20
96	96	30
41	91	2
24	24	3
88	88	15
34	59	3
63	64	16
56	57	7
84	87	6
42	42	20
66	67	5
29	45	3
36	92	5
86	92	1
42	43	4
25	25	5
79	79	14
80	81	10
80	80	15
59	79	2
91	91	18
44	59	3
89	91	4
100	101	4
22	22	6
20	29	3
86	88	3
31	32	5
101	101	14
72	73	7
50	66	3
84	92	3
49	50	13
81	88	3
45	53	5
78	79	6
44	66	2
45	55	1
20	25	1
37	37	9
52	56	3
78	78	30
66	85	2
86	89	6
59	59	21
73	73	17
48	48	17
52	52	6
28	29	10
98	98	13
51	53	5
85	89	2
45	48	5
75	75	14
95	96	13
58	59	9
94	98	5
46	47	8
55	56	14
53	54	10
33	34	8
87	93	5
92	94	3
97	97	26
81	82	5
91	93	2
37	38	5
27	28	1
53	53	19
61	63	1
83	85	3
45	46	3
62	62	19
82	82	3
36	36	11
50	59	2
41	42	13
80	95	4
52	53	2
102	102	2
30	45	5
39	88	2
79	80	4
83	88	3
97	98	8
79	89	1
67	71	1
87	88	21
73	76	3
53	61	3
44	48	1
53	56	3
96	98	5
57	64	2
93	98	3
65	83	3
58	61	3
83	91	1
38	39	3
20	52	1
59	60	1
36	86	2
44	44	9
54	55	6
92	97	2
65	65	20
96	97	12
66	80	3
57	57	9
28	28	8
81	83	2
50	84	2
69	71	3
47	47	6
35	40	3
40	65	1
43	43	12
53	101	2
26	27	4
83	87	4
50	65	2
46	48	5
54	61	1
54	56	4
93	97	2
84	89	6
20	30	2
69	69	12
68	69	2
36	38	4
79	101	2
34	35	3
83	84	1
32	32	4
99	101	2
81	84	4
53	92	4
35	41	2
24	52	7
41	44	4
70	71	4
64	65	3
66	101	1
54	82	1
59	65	2
54	60	3
93	95	5
49	51	2
79	86	2
88	93	1
46	53	4
20	20	3
60	87	1
61	79	3
86	101	2
24	47	1
46	61	1
99	100	3
26	54	3
47	53	1
44	101	1
32	34	1
70	72	3
94	96	4
88	89	1
48	51	1
36	46	1
93	94	4
20	26	2
79	99	1
97	100	3
48	50	2
66	79	1
46	49	3
30	33	4
40	83	1
54	84	1
86	87	2
81	91	2
37	39	3
76	90	2
57	59	1
87	89	1
84	91	1
32	33	4
41	65	1
51	65	1
95	98	2
74	75	2
79	100	1
93	99	1
86	93	5
50	51	3
46	51	2
79	81	1
77	78	7
80	82	2
71	76	1
65	68	1
81	86	1
78	90	1
44	56	4
25	26	1
42	45	1
34	91	2
25	46	2
43	44	2
48	49	3
34	62	1
40	48	2
80	91	1
66	69	2
52	55	1
98	100	3
35	59	1
82	94	2
34	37	1
64	75	3
41	50	1
29	62	1
75	76	1
27	51	2
85	90	1
57	63	1
56	58	4
96	99	2
88	92	1
93	96	1
92	95	1
30	30	1
45	51	2
59	101	1
23	25	2
40	78	1
60	61	3
38	55	1
49	52	1
86	91	1
39	90	2
37	44	1
101	102	1
50	68	1
50	81	1
67	79	1
81	87	1
24	54	2
55	97	1
85	91	1
34	60	1
82	89	1
69	72	1
84	94	1
52	93	1
90	93	1
91	94	1
34	50	1
95	99	1
