154	154	16
81	81	10
44	45	3
130	130	8
30	41	6
121	121	15
86	86	14
88	88	20
108	108	6
92	92	11
24	24	31
186	186	13
2	2	23
19	19	16
105	105	6
73	73	9
75	83	8
84	84	9
142	143	2
33	37	4
95	95	17
82	82	5
27	27	2
68	73	1
55	55	22
74	74	28
178	178	5
1	1	19
138	138	4
82	84	7
67	74	6
122	123	1
179	179	2
177	177	12
100	100	24
26	26	13
7	7	15
4	5	5
20	20	12
11	11	9
184	185	9
169	171	2
190	190	2
168	189	5
139	139	18
148	148	13
62	63	7
66	66	18
117	118	8
158	158	3
107	108	7
134	137	2
169	170	17
143	143	9
2	6	4
77	77	20
102	102	14
8	8	15
72	72	9
39	39	27
147	189	1
97	101	1
30	45	3
148	150	3
184	184	10
176	176	13
125	136	1
169	172	3
125	125	14
175	175	17
64	64	5
97	156	2
127	128	10
77	79	1
106	106	4
123	123	15
101	102	3
99	99	9
56	66	3
166	166	25
24	25	6
101	103	4
58	59	1
135	136	1
33	36	3
3	3	9
76	77	6
89	89	23
176	177	2
31	42	4
179	180	2
118	118	2
137	138	12
44	44	10
68	68	6
171	171	11
6	6	25
173	174	5
41	42	18
149	167	12
36	36	6
78	78	7
170	170	23
115	116	5
38	38	23
124	124	10
83	83	12
26	27	3
58	76	11
34	36	8
169	169	30
23	24	6
90	91	8
34	34	10
135	135	8
110	110	22
28	28	15
109	110	10
16	17	4
30	32	3
13	15	4
30	30	8
164	165	4
0	0	8
82	83	6
15	16	3
4	135	3
188	190	1
40	40	22
37	37	11
129	129	14
62	62	17
85	86	3
152	152	8
74	75	10
5	5	10
134	136	1
101	101	10
109	109	18
77	78	5
114	114	7
146	146	8
45	46	4
21	22	6
74	78	5
83	86	1
27	45	2
62	78	4
118	123	3
38	42	5
58	67	1
107	107	7
183	183	5
94	94	17
40	41	3
62	64	5
76	76	11
63	63	10
156	157	2
114	115	8
104	104	7
95	96	1
104	121	4
96	96	10
93	94	8
3	151	1
97	97	7
180	185	1
25	25	6
42	47	10
126	126	3
0	1	7
29	30	5
175	176	4
158	162	10
70	70	6
16	18	2
17	17	7
153	155	1
156	159	3
187	187	4
141	141	8
15	17	1
174	174	5
156	156	12
178	179	4
48	49	4
116	116	7
98	98	10
75	75	9
65	65	5
157	162	4
6	19	4
18	18	8
83	84	10
186	188	1
91	91	14
55	56	7
152	153	2
17	18	7
166	174	2
148	149	7
31	31	7
153	154	10
103	103	7
127	127	14
32	32	5
173	173	4
67	67	13
131	132	6
64	67	1
109	122	2
159	159	7
59	59	8
31	35	3
43	43	11
159	174	2
121	122	6
27	34	3
117	117	4
128	128	8
180	182	2
122	122	4
38	41	2
13	13	5
145	145	5
39	40	3
103	140	2
155	155	11
187	188	2
162	162	6
120	120	6
25	28	3
123	179	2
99	141	3
73	74	2
168	168	6
17	20	2
141	142	9
30	31	1
64	65	4
3	7	1
113	113	2
30	33	2
56	67	2
167	167	2
21	21	4
188	189	7
161	161	5
104	114	2
180	180	3
161	162	6
149	150	3
189	189	4
56	56	7
181	181	9
87	87	11
71	90	3
109	111	3
23	23	4
9	9	5
165	165	22
47	48	3
166	167	1
132	132	4
33	33	2
56	57	5
125	126	8
147	147	15
172	172	7
140	140	13
178	181	1
39	41	2
52	53	1
111	111	5
27	44	4
10	10	12
150	150	8
4	6	3
7	8	1
70	71	4
66	67	2
128	170	6
61	62	6
47	47	5
179	183	4
98	151	2
153	169	4
85	85	13
137	137	10
60	60	3
141	165	2
180	181	5
41	41	12
46	46	13
95	110	2
136	136	4
102	103	3
26	45	5
104	115	1
149	149	10
143	144	9
54	56	7
131	152	2
6	8	6
154	166	7
144	144	1
159	176	4
130	139	1
58	58	6
58	75	1
167	168	10
159	162	1
95	147	4
31	41	2
57	57	9
130	132	4
84	85	8
102	124	1
2	7	5
74	123	3
132	133	5
33	34	8
27	28	1
42	42	16
154	155	3
98	99	5
126	185	2
106	107	3
97	98	3
129	130	4
133	137	4
17	23	4
140	169	3
63	64	1
16	22	2
168	174	6
134	135	9
156	158	4
53	55	3
174	178	4
133	133	2
25	48	1
136	138	11
175	183	2
119	119	6
131	133	1
65	68	2
110	148	4
12	13	3
64	109	1
153	153	8
162	170	4
10	62	2
69	69	5
133	134	2
36	37	2
105	111	3
185	189	1
164	164	2
61	61	9
96	101	1
65	66	2
14	15	2
141	145	2
60	67	2
181	183	4
16	16	8
11	63	1
95	115	1
5	6	1
20	34	1
90	90	9
142	142	10
145	147	3
29	31	3
131	134	2
45	47	1
11	54	1
93	93	1
57	61	2
3	152	1
111	114	2
178	185	2
59	62	6
124	125	5
13	34	1
13	14	4
184	186	1
101	143	4
103	104	3
12	12	10
99	109	1
186	187	1
36	44	3
138	139	10
113	114	1
142	144	4
163	164	2
31	32	8
161	165	2
75	76	5
115	117	3
87	88	1
28	35	3
8	24	2
185	186	2
61	63	4
46	47	7
11	12	1
4	4	8
168	170	3
21	27	2
24	31	1
54	54	5
120	121	1
24	32	2
29	29	3
78	79	6
171	174	4
123	124	1
146	190	2
35	35	3
45	45	5
58	60	2
53	53	3
162	177	1
14	14	6
134	134	5
25	44	2
37	38	3
1	7	3
188	188	1
105	122	3
106	109	1
151	151	14
71	73	6
123	176	2
163	163	3
98	100	1
187	189	1
123	178	1
130	152	2
182	182	4
16	23	1
128	169	5
131	131	3
56	63	1
157	157	3
70	78	2
186	190	2
105	112	1
108	121	3
170	171	4
162	165	3
91	92	6
100	101	2
14	23	3
187	190	1
139	140	1
148	190	1
116	117	2
56	65	2
87	89	1
44	48	2
110	122	4
113	148	2
72	73	2
117	120	1
61	64	1
86	87	2
126	127	4
80	81	5
110	129	1
58	68	2
144	147	2
115	115	8
191	191	3
115	118	1
140	141	2
114	119	1
162	163	3
141	143	1
65	67	2
79	80	3
179	184	2
154	172	3
42	43	2
111	167	2
20	21	3
6	7	1
80	80	1
182	187	4
150	152	1
48	48	4
171	172	3
126	186	2
165	188	1
74	77	1
150	157	3
0	2	2
119	120	4
112	112	1
112	119	1
176	179	2
160	161	1
123	125	3
66	106	1
115	141	1
106	121	1
156	162	1
27	33	3
19	20	2
123	140	1
163	174	1
22	23	2
83	87	1
165	177	2
162	164	3
171	173	1
38	39	2
97	102	2
64	108	1
141	177	1
72	78	3
108	120	1
77	125	1
90	92	3
159	161	1
22	24	1
136	137	4
8	21	1
103	141	3
95	109	3
88	89	2
150	151	1
154	173	2
60	61	1
48	55	1
30	42	2
185	185	2
7	20	2
99	103	3
129	134	1
29	44	2
140	168	1
57	62	1
155	156	1
22	22	2
158	161	1
32	34	1
29	34	2
174	177	1
129	132	1
8	9	1
174	182	1
27	43	1
25	26	1
11	56	1
79	79	2
87	90	1
92	94	2
157	158	1
124	179	1
71	72	1
101	138	2
33	41	1
9	61	2
92	93	1
123	177	2
153	156	2
110	111	1
174	175	1
24	30	2
161	163	1
144	145	1
112	113	1
132	151	1
106	112	1
181	184	1
66	68	1
4	152	1
140	143	1
166	171	1
130	131	1
10	61	1
151	152	1
94	95	1
80	82	1
57	60	1
