22	23	3
7	29	1
73	73	8
14	14	14
26	26	4
33	33	11
8	24	3
50	51	2
55	83	2
37	38	5
136	137	2
13	13	8
64	65	2
4	4	9
49	50	4
118	118	5
34	35	4
67	67	6
44	44	8
49	49	9
97	97	2
24	24	21
71	71	13
40	40	17
63	66	3
21	22	7
140	146	2
79	82	4
135	135	5
3	7	4
63	63	2
13	14	4
124	149	2
45	45	6
122	122	8
51	57	2
75	78	3
25	25	15
39	41	1
141	141	6
22	22	6
52	55	2
53	53	3
38	41	2
70	70	2
144	144	3
53	109	1
95	96	7
95	95	6
136	136	2
137	137	3
73	74	7
17	40	2
15	24	5
79	81	1
70	80	2
55	56	6
39	40	5
38	38	1
25	28	2
82	83	3
112	112	1
11	12	1
134	134	15
129	139	2
47	56	1
4	5	4
96	96	5
17	17	14
7	7	3
143	144	6
32	32	7
3	4	1
132	132	13
102	107	1
78	101	2
108	108	8
83	98	6
14	86	6
94	95	4
16	16	12
8	8	9
42	42	8
26	41	2
113	113	4
123	124	3
122	128	3
102	103	1
102	102	8
104	104	7
17	19	2
117	117	2
85	89	4
56	56	6
69	69	4
35	35	1
6	6	5
123	123	14
43	52	5
21	21	9
33	34	4
139	145	2
141	154	2
115	116	1
64	80	3
43	43	9
41	41	15
107	108	2
72	72	3
138	138	4
100	100	3
18	19	5
109	109	2
148	148	3
50	55	5
17	18	4
152	152	6
108	109	12
40	41	7
130	130	4
57	57	4
79	98	2
9	34	2
12	16	1
85	86	5
147	147	7
80	80	6
97	99	4
94	98	2
47	53	3
66	67	2
154	154	5
39	39	20
120	121	3
149	149	10
65	65	4
36	36	3
79	84	1
107	107	9
99	100	1
115	115	5
3	12	4
30	35	1
9	9	13
51	53	2
46	46	18
27	27	2
94	104	4
20	21	1
28	28	14
106	106	10
48	48	8
147	150	2
19	19	1
54	55	2
73	99	1
35	36	1
86	86	2
152	153	6
137	139	4
63	69	2
46	47	3
137	142	3
7	8	3
144	154	3
147	148	9
6	23	3
32	35	1
23	23	11
50	50	6
70	71	4
30	30	6
104	105	3
66	82	2
20	20	5
111	111	9
32	33	2
88	98	2
96	99	4
114	114	1
11	11	13
97	98	2
133	133	9
109	111	3
25	26	4
117	118	4
74	74	5
54	57	3
65	67	1
102	115	2
78	82	2
5	11	1
131	134	1
31	31	2
129	129	3
51	51	1
87	88	1
42	51	1
81	94	1
42	43	10
16	17	4
15	16	7
77	77	1
123	143	1
55	55	2
94	110	1
3	3	6
62	65	3
76	76	5
146	146	2
109	110	1
68	68	6
34	39	1
14	21	1
64	66	3
44	45	6
12	12	4
37	37	2
29	29	2
116	152	3
52	52	3
103	103	4
139	140	2
34	34	7
99	99	2
55	57	3
49	64	3
84	84	6
67	68	4
88	88	4
90	90	2
140	141	1
146	147	2
57	93	1
8	9	2
52	54	1
47	49	2
30	31	2
43	45	5
41	42	5
96	97	4
53	54	5
143	146	1
110	110	2
30	32	4
10	11	1
63	64	4
143	143	7
93	95	3
94	94	4
47	47	4
5	10	1
102	105	1
119	120	2
2	2	2
151	151	8
18	20	2
79	79	4
78	79	2
49	55	1
123	125	3
36	38	1
16	18	1
20	23	1
38	40	1
143	145	1
31	32	2
54	54	2
63	67	2
139	139	3
131	131	3
78	98	1
101	121	1
64	83	2
119	141	2
92	92	4
74	77	2
51	55	1
66	66	4
66	68	1
80	81	1
105	105	1
24	30	2
79	93	2
124	127	2
76	80	2
131	145	2
125	127	1
81	81	2
50	57	3
120	120	2
145	146	1
10	10	2
110	113	2
12	13	3
48	49	2
62	62	1
150	150	1
83	83	2
126	128	2
70	81	1
56	57	2
83	86	2
148	149	1
18	18	4
90	93	2
95	97	2
95	100	1
3	18	1
15	17	1
119	119	1
126	126	2
112	114	1
49	70	1
91	91	1
66	76	1
71	76	2
46	70	2
21	23	2
77	80	1
87	87	1
15	15	2
120	122	2
93	105	1
23	24	2
100	101	1
99	112	2
9	10	2
119	123	1
15	21	1
5	5	2
9	32	1
128	128	2
5	6	1
88	129	1
65	75	1
68	75	1
153	153	2
17	22	1
101	101	1
3	5	1
81	82	1
57	98	1
65	68	1
127	127	1
86	90	1
6	7	1
93	93	1
127	128	1
102	109	1
71	73	1
111	113	1
29	46	1
72	83	1
101	106	2
106	108	1
110	152	1
137	138	1
32	36	1
31	33	1
126	127	1
43	44	1
150	151	1
74	75	1
130	133	1
98	99	1
27	29	1
142	145	1
46	53	1
78	81	1
130	136	1
35	37	1
