71	71	22
125	125	19
25	26	7
149	149	13
71	84	7
158	158	19
0	23	6
51	57	1
44	44	23
148	148	10
35	35	33
153	154	12
3	4	11
63	67	2
77	77	2
93	133	12
90	93	6
19	108	1
141	141	18
6	6	18
28	28	22
173	173	19
66	67	14
1	3	2
127	128	4
90	90	10
145	145	10
89	89	12
175	175	8
140	140	10
65	66	8
32	33	7
7	9	4
33	39	4
37	44	12
54	68	1
73	76	2
20	23	2
159	159	16
101	101	13
37	37	25
43	43	32
75	75	26
14	14	47
100	116	5
94	94	12
128	146	5
177	178	6
64	64	16
113	114	7
33	33	39
170	170	13
91	99	1
17	58	2
10	10	26
117	117	23
22	22	19
93	93	6
80	81	5
9	9	29
6	11	1
31	32	14
31	31	33
27	27	23
139	141	7
160	162	5
163	163	4
7	7	10
152	152	5
130	132	2
130	130	9
14	15	13
18	18	11
11	11	40
101	102	10
132	133	9
171	174	1
54	56	3
156	157	7
12	12	15
174	174	13
42	42	26
76	76	21
29	32	4
23	23	9
13	13	23
75	76	6
92	92	1
53	53	14
39	39	29
108	108	3
135	135	31
169	169	18
147	148	9
81	82	6
61	61	10
43	44	17
112	112	21
5	5	10
38	38	23
41	42	10
54	57	4
55	57	1
88	142	4
101	113	2
51	51	12
168	178	21
151	151	17
17	18	2
37	38	23
2	2	16
107	108	5
26	31	1
128	128	11
11	18	4
5	44	4
32	40	7
116	117	2
165	165	3
179	179	13
79	80	7
176	176	9
89	137	3
93	94	8
83	84	3
3	3	6
105	106	10
40	40	20
157	158	8
116	116	6
68	68	16
55	55	8
159	168	2
140	141	4
118	118	12
27	39	6
34	34	8
163	165	5
67	67	7
93	138	3
16	44	3
60	68	1
110	110	9
146	147	11
57	57	10
36	36	17
166	166	14
91	95	2
98	98	6
172	172	6
146	146	20
136	136	17
160	160	16
154	154	20
53	58	3
11	12	13
132	132	19
153	153	6
39	44	2
95	97	2
2	4	9
59	59	16
35	36	2
26	27	4
72	73	6
123	123	12
14	24	6
79	81	3
25	25	6
19	19	17
74	74	9
147	147	10
98	125	2
114	114	12
91	92	3
30	35	4
15	16	6
57	59	4
142	142	14
173	174	8
99	119	2
80	80	3
127	127	12
15	15	23
79	79	5
104	105	2
111	112	4
42	59	1
126	126	24
122	122	6
32	32	32
20	21	5
154	179	2
0	0	10
26	28	7
170	176	2
4	5	4
36	39	1
60	60	5
94	107	3
106	111	3
98	116	6
113	113	5
38	40	1
28	29	5
90	102	1
8	8	15
19	21	4
95	106	5
126	127	3
165	166	5
95	95	26
65	65	4
130	135	4
95	99	3
83	86	4
12	22	4
146	148	4
0	77	5
58	58	5
50	58	6
30	31	6
10	57	3
40	41	4
139	139	6
107	107	12
108	150	5
9	32	2
95	137	1
15	21	1
171	172	12
96	98	2
29	30	5
131	131	18
133	180	2
96	96	13
52	52	20
61	80	2
87	88	2
138	180	3
144	144	12
41	41	42
17	17	15
28	30	4
125	144	5
172	173	2
119	119	10
129	130	5
66	66	12
141	176	6
175	177	3
168	168	19
10	11	21
62	63	10
16	17	16
174	175	3
16	126	6
157	157	5
119	126	1
162	162	7
2	3	9
57	58	3
19	20	4
44	45	10
24	24	11
100	100	3
86	93	1
1	29	3
171	171	12
99	142	1
70	71	1
106	106	5
172	175	3
97	104	3
167	167	10
5	15	2
120	120	5
129	129	9
133	133	6
39	50	4
134	137	3
115	115	7
4	4	12
26	51	4
71	72	7
17	25	4
180	180	8
16	16	26
99	100	3
89	98	3
42	43	8
53	54	2
94	95	9
87	175	3
125	126	6
78	78	6
150	151	3
12	20	1
103	104	6
21	21	3
176	177	11
167	170	5
150	150	20
45	46	2
97	107	3
85	85	9
149	150	6
89	96	2
137	137	5
143	144	9
20	20	3
22	23	7
110	111	6
91	100	1
154	155	3
95	96	2
155	156	13
138	138	8
168	170	2
77	84	2
142	143	3
89	94	3
26	26	4
96	106	5
102	102	13
73	143	4
123	124	5
7	11	5
96	122	1
123	133	2
169	170	5
33	35	3
1	16	2
101	118	6
89	90	2
136	161	5
24	25	3
106	149	3
158	159	3
29	29	6
54	55	5
135	146	3
54	54	6
137	141	3
5	19	2
51	53	1
52	79	2
56	57	1
59	92	6
45	45	4
155	155	5
131	136	1
117	145	3
72	72	11
39	40	9
2	6	2
134	134	8
12	19	2
93	143	1
50	52	1
84	85	2
49	49	4
119	127	1
62	68	3
92	113	4
178	179	2
51	52	2
167	169	1
36	37	2
137	138	4
0	1	9
74	76	7
136	142	2
8	10	4
99	99	7
37	42	2
84	84	8
74	139	2
169	178	3
6	7	8
134	159	2
11	13	4
161	161	2
91	93	9
13	17	1
68	134	5
18	25	2
60	61	2
1	1	15
77	78	2
102	109	1
148	149	2
21	22	6
17	35	1
10	13	2
13	14	6
135	136	1
104	104	5
21	43	1
6	10	1
109	127	3
132	140	2
108	109	4
92	142	6
85	91	3
95	107	3
136	138	2
16	127	2
9	11	1
74	75	2
130	131	3
124	124	5
82	82	4
106	118	2
61	67	3
166	167	4
37	39	6
18	42	1
163	164	5
97	97	5
133	140	2
17	38	2
73	73	7
71	73	9
95	108	7
129	147	1
81	81	5
7	8	13
54	73	1
65	92	1
124	145	1
65	68	1
49	51	2
161	162	1
55	56	4
162	164	3
141	143	5
30	30	4
108	122	2
146	158	1
150	154	1
109	156	1
21	40	1
139	148	1
66	127	1
82	85	1
35	37	1
56	56	5
103	106	3
88	93	2
147	154	1
78	82	2
50	50	1
170	171	2
138	139	2
8	9	1
90	91	5
1	6	3
144	145	1
164	164	2
20	22	7
61	71	3
18	53	1
121	121	2
28	34	3
132	134	5
67	110	4
109	109	1
164	165	4
26	29	2
72	104	2
173	176	2
178	178	8
163	167	1
74	80	2
2	13	2
67	111	2
23	26	4
55	72	4
102	103	1
40	43	1
12	13	3
12	23	1
112	133	1
36	38	1
120	127	2
106	124	1
36	53	3
150	178	4
53	57	2
60	64	1
143	143	8
76	79	1
169	171	2
111	111	7
144	151	2
67	68	1
152	153	4
150	157	1
10	12	3
59	60	2
94	96	1
63	63	3
86	131	2
34	35	1
135	137	1
12	16	1
148	154	1
68	95	3
39	41	1
62	65	1
106	107	2
9	142	2
5	6	2
82	93	2
135	145	4
138	149	1
8	46	4
151	168	2
98	107	2
147	149	3
118	140	1
93	132	2
156	156	3
105	105	2
177	177	3
133	171	1
118	144	1
6	14	1
162	167	1
125	135	1
7	15	1
122	123	1
11	19	3
13	23	1
59	107	1
20	54	3
3	8	1
168	169	3
121	122	3
38	43	1
16	23	2
46	46	2
40	65	1
139	142	1
63	64	2
71	103	1
179	180	4
100	102	1
70	73	1
16	35	2
52	54	1
163	166	1
6	9	2
78	79	1
134	135	1
154	158	2
77	130	1
98	119	1
161	165	1
145	146	1
119	121	1
168	171	1
37	41	4
86	102	1
15	23	1
55	125	1
29	37	2
91	91	1
13	22	2
34	43	1
24	28	1
88	88	2
151	171	1
73	74	1
9	51	2
8	15	2
22	31	1
24	35	2
109	149	1
123	125	1
58	59	2
58	123	1
117	118	1
35	41	1
146	166	2
88	89	3
152	177	1
93	96	1
16	18	1
151	176	2
27	28	2
52	60	1
67	96	2
103	118	1
14	17	2
29	31	1
92	93	1
77	114	2
13	18	1
83	83	1
128	129	2
96	111	1
35	43	1
126	129	2
109	147	1
141	142	1
21	44	1
24	44	1
76	77	1
136	146	2
58	95	1
36	43	1
167	179	1
133	139	3
14	31	1
32	34	3
53	79	1
33	34	2
140	147	2
3	5	1
94	130	1
99	117	1
144	155	1
18	19	1
128	147	1
96	112	1
15	17	1
118	125	1
14	23	1
153	158	1
150	156	1
18	35	1
136	137	1
70	70	1
1	5	2
86	88	1
142	145	1
125	137	1
10	18	1
62	64	1
57	64	1
1	77	1
82	83	1
