21	21	23
135	138	2
20	20	16
10	10	18
104	104	25
85	86	3
49	152	4
127	132	4
66	66	21
38	39	9
143	143	8
34	62	1
43	45	1
87	87	11
57	64	3
33	45	2
48	49	11
17	17	20
10	13	1
138	139	5
75	82	4
137	137	20
53	53	18
4	4	18
129	129	14
98	103	5
81	99	6
22	22	20
23	23	14
24	25	16
2	2	4
4	5	7
89	138	3
36	36	28
94	94	13
56	142	1
53	147	3
128	129	5
135	135	24
54	54	14
142	143	12
6	12	1
107	108	5
66	76	3
96	96	27
80	95	2
82	83	4
68	68	25
112	112	5
69	69	19
74	74	14
53	55	5
72	73	8
43	44	4
99	99	19
39	39	28
98	99	7
148	149	2
18	18	35
16	16	23
139	139	7
136	144	2
19	19	16
55	55	21
127	127	19
33	34	18
17	18	5
82	82	12
26	26	21
116	118	1
41	41	35
50	52	1
34	34	12
85	87	16
129	133	4
20	21	20
34	36	13
102	103	7
64	76	1
6	13	2
74	75	7
133	134	3
63	63	26
136	136	22
39	40	8
100	119	5
73	73	13
35	35	25
142	142	10
44	44	21
77	77	18
68	71	5
71	73	6
11	14	5
107	107	15
131	131	20
62	62	16
97	98	10
93	93	14
145	145	12
92	92	10
56	56	11
23	25	1
113	113	16
77	78	6
69	85	1
123	124	11
117	117	9
54	57	1
67	67	21
103	112	4
6	8	7
126	126	13
147	147	16
152	152	10
106	106	23
101	101	14
5	6	10
98	98	19
32	34	3
81	82	8
137	145	6
95	96	18
124	124	15
79	80	9
114	114	6
73	74	13
71	72	5
6	6	26
23	24	4
78	80	3
79	79	16
64	64	19
102	104	3
113	117	9
110	110	24
63	65	5
119	123	3
14	24	1
74	80	3
40	41	12
64	73	3
93	96	3
27	27	25
128	144	1
117	119	3
31	31	22
57	76	1
30	30	19
2	3	2
16	17	13
139	144	3
121	122	5
45	46	10
47	48	2
12	12	16
76	77	5
8	8	22
51	64	1
49	49	13
124	125	7
50	57	2
123	123	14
132	133	2
73	76	6
34	35	11
32	33	10
128	128	19
20	23	3
72	143	3
13	13	8
7	15	3
11	11	12
26	27	10
103	110	8
38	102	6
104	105	3
4	14	1
130	132	5
35	67	4
34	63	2
37	95	1
62	64	5
15	27	1
133	133	14
67	68	9
27	28	15
32	32	16
24	24	35
70	70	17
138	138	8
14	14	32
8	135	4
33	36	8
15	16	15
67	71	1
109	109	9
150	150	15
42	43	8
150	151	7
43	51	2
28	28	11
37	37	11
35	37	6
138	142	1
37	38	10
50	50	13
116	116	10
65	65	14
6	7	5
7	8	5
143	147	3
8	19	2
110	112	5
94	98	3
85	85	16
2	11	1
84	88	3
46	46	19
146	146	6
115	116	4
149	149	10
87	94	2
69	71	6
80	80	13
49	50	3
66	68	5
38	38	22
69	70	6
17	19	1
35	74	8
122	122	8
129	132	6
40	40	17
149	150	3
19	20	6
76	76	9
67	122	3
125	125	5
22	27	3
78	79	13
85	97	2
140	142	9
30	131	1
57	57	12
117	118	4
13	14	15
129	130	11
104	106	1
119	119	9
64	65	2
124	126	4
130	137	3
139	143	1
21	22	8
100	100	11
144	144	8
66	88	3
9	9	10
71	71	14
9	10	9
70	71	2
109	112	2
76	137	3
106	122	3
118	118	11
7	7	16
35	36	11
74	109	1
34	37	1
83	94	3
42	44	5
147	148	11
148	152	8
42	42	21
69	118	3
78	78	18
13	22	1
29	29	9
47	47	21
133	147	1
65	67	4
10	16	1
67	73	1
103	104	6
4	26	2
58	128	7
154	154	12
103	103	12
18	22	2
119	120	1
3	5	3
93	95	3
80	81	5
101	114	2
83	83	23
72	79	5
38	100	1
41	42	7
38	141	2
79	83	2
139	145	6
8	10	5
121	126	3
93	94	13
22	23	9
14	15	7
116	121	5
91	126	2
72	74	4
79	95	2
97	97	10
48	50	6
47	51	3
15	15	7
103	153	4
85	90	2
79	127	1
105	105	9
112	114	3
151	151	11
24	31	2
37	100	5
19	21	7
111	111	12
139	147	2
51	74	2
23	27	5
10	12	3
105	111	9
141	142	8
74	76	1
150	153	1
25	28	2
108	109	5
77	97	2
32	75	1
152	153	5
52	52	4
77	80	2
11	12	5
75	75	3
66	69	3
52	57	1
83	84	5
68	69	3
84	86	1
77	81	4
56	135	1
17	20	2
128	130	6
94	120	2
8	9	9
54	55	7
134	134	15
54	149	3
81	81	12
86	87	5
130	130	11
120	121	7
25	25	21
5	5	8
76	87	2
58	58	4
10	18	1
140	144	9
83	93	4
66	67	8
65	66	3
35	38	2
153	154	5
23	67	1
57	78	1
71	86	2
53	135	7
139	141	1
20	22	4
88	88	9
99	101	2
63	66	1
75	76	5
118	119	3
120	120	6
12	125	7
6	16	3
48	48	18
18	19	9
90	96	4
84	85	4
37	40	7
85	96	4
95	95	4
102	113	1
54	135	1
82	95	3
12	14	3
123	128	4
122	123	2
4	7	2
143	144	4
57	58	3
33	33	14
66	79	2
51	54	3
86	86	7
43	43	10
23	26	2
89	90	3
140	141	1
49	51	2
111	112	6
74	86	1
12	33	1
5	10	2
126	127	7
85	127	2
22	24	1
45	45	7
10	19	1
27	29	3
11	23	1
91	101	3
53	54	2
137	147	1
125	139	7
29	30	6
13	15	5
68	75	2
111	113	3
76	79	3
54	89	4
86	88	1
35	144	2
67	72	2
115	115	10
49	71	2
141	141	5
11	21	1
40	140	2
65	68	3
80	94	2
135	136	5
142	149	3
131	132	2
92	119	1
19	39	2
69	84	5
117	125	6
75	79	1
138	141	1
97	100	2
123	125	9
94	97	3
64	77	1
83	85	2
108	108	8
35	41	1
101	112	1
3	3	3
56	130	1
31	32	8
79	81	4
48	51	11
83	88	1
43	108	1
92	99	2
33	92	2
62	74	3
30	75	2
25	26	1
21	23	3
145	146	6
32	136	1
106	108	3
7	12	4
141	145	1
112	113	2
62	63	5
77	79	2
30	31	5
143	145	3
10	11	3
80	88	3
52	69	1
58	62	4
41	46	1
94	95	5
11	123	4
101	102	5
51	67	3
106	115	3
98	124	1
70	84	2
144	145	5
123	129	2
69	142	1
114	115	4
51	51	4
105	112	6
37	39	2
95	97	9
91	92	7
100	109	4
75	77	5
4	6	3
113	114	3
44	45	2
50	51	3
25	36	3
142	144	2
116	117	2
55	93	1
78	83	1
119	128	4
63	81	1
118	140	1
150	152	2
105	122	1
43	49	1
30	43	4
32	36	1
132	132	8
106	130	3
53	58	1
65	85	3
101	110	1
46	47	4
21	31	3
100	105	2
6	10	3
127	128	7
11	16	1
16	18	2
104	110	6
63	64	1
105	108	1
68	76	1
62	66	4
52	54	1
56	127	3
65	84	2
87	100	4
8	13	1
108	120	3
28	29	2
7	9	1
96	99	2
148	148	3
140	140	7
27	135	2
104	123	1
79	94	2
130	131	4
67	69	2
106	128	2
64	66	5
76	83	1
102	110	2
35	73	2
5	7	2
104	112	3
84	84	5
108	111	2
8	24	3
153	153	6
7	24	3
75	80	1
44	53	2
14	22	1
98	127	3
31	33	3
33	37	1
110	116	3
63	80	2
72	80	4
80	101	1
26	30	1
64	78	3
52	53	1
102	102	4
121	121	4
24	28	1
40	42	2
17	34	2
90	90	1
31	35	1
53	56	1
31	146	3
72	72	7
38	43	1
103	105	2
110	114	2
32	42	1
24	27	2
39	58	1
45	153	3
19	28	1
57	138	2
106	126	1
126	136	2
51	52	2
62	79	1
23	66	5
93	111	1
86	128	1
148	150	3
24	102	3
106	110	3
114	118	1
83	89	1
37	142	2
67	75	1
96	97	2
16	30	1
71	74	2
97	101	1
91	93	1
103	113	1
120	127	2
66	80	1
26	35	3
3	4	3
81	84	1
100	108	2
65	79	3
100	111	2
81	97	1
37	48	1
45	50	1
49	64	2
56	57	1
32	37	1
86	98	1
30	39	2
4	11	1
96	115	2
87	98	2
41	45	2
4	20	1
85	145	2
8	23	1
87	93	1
86	97	2
144	146	2
89	89	1
33	46	2
41	43	1
81	94	1
132	134	1
132	146	1
142	146	1
31	46	1
54	56	4
96	129	3
125	126	5
43	52	1
98	122	1
63	89	1
50	69	1
126	132	1
107	118	2
20	31	1
125	128	1
136	137	2
24	40	2
57	130	1
16	24	2
8	15	1
54	109	1
12	13	2
91	91	1
43	46	2
4	10	1
61	88	1
44	46	1
108	110	1
126	130	1
87	99	1
81	85	1
15	54	1
143	148	1
146	147	1
90	94	1
124	128	1
83	122	1
85	94	2
36	37	1
46	57	1
34	95	1
19	31	3
128	142	1
68	74	1
80	84	1
118	129	2
75	97	1
56	102	1
75	78	2
32	39	1
8	16	2
129	147	1
78	97	1
13	27	1
80	86	1
70	72	2
146	148	2
77	82	1
85	99	1
109	111	1
28	33	1
106	107	1
23	144	2
50	70	1
102	114	1
107	127	1
30	35	1
112	117	1
6	28	2
22	138	1
30	32	1
81	83	1
44	51	1
25	29	1
87	96	1
31	38	2
10	22	1
45	53	1
103	121	1
141	148	1
43	63	1
64	88	1
22	25	1
76	100	1
38	135	2
79	82	1
134	138	1
136	138	1
23	30	1
105	106	1
91	110	1
73	75	1
4	21	1
101	113	1
79	93	1
42	45	1
50	88	1
82	85	1
82	84	1
80	85	1
56	82	1
52	129	1
55	63	1
62	92	1
