52	52	9
12	12	12
56	77	2
24	24	12
1	1	26
88	88	19
34	34	12
51	53	5
11	12	2
23	23	22
75	75	30
75	76	2
48	66	1
70	70	11
15	16	8
9	10	11
3	3	12
26	26	19
72	72	12
75	84	7
83	83	9
53	54	23
52	53	6
19	19	22
4	4	25
25	53	5
27	50	7
23	24	2
79	79	15
6	20	3
47	47	8
71	74	4
86	88	3
68	68	15
8	8	11
2	2	7
15	15	9
60	60	8
77	79	6
7	8	5
66	67	12
55	55	25
12	13	12
18	19	7
89	89	22
13	13	10
87	87	13
82	82	20
54	55	8
53	53	10
77	77	9
56	87	4
29	29	11
14	14	7
49	49	12
59	60	9
84	84	16
59	62	2
25	26	8
51	51	28
26	27	5
66	66	12
27	28	11
1	2	3
56	56	12
10	10	9
19	20	7
22	27	1
48	52	5
12	19	3
48	48	3
50	54	4
7	7	13
18	22	2
25	25	15
89	90	6
22	22	10
24	25	3
65	65	15
88	89	7
72	73	16
5	23	3
80	80	5
54	54	14
76	79	3
50	50	15
57	57	28
58	61	7
68	69	3
8	9	7
20	21	7
86	86	13
76	76	9
57	66	2
71	83	4
81	83	7
59	59	9
64	64	7
6	6	13
80	81	3
73	73	8
11	11	9
47	51	1
46	47	6
9	13	1
56	62	3
34	35	4
86	87	5
0	0	21
69	69	10
57	58	2
81	81	26
27	27	20
81	82	3
67	67	27
4	21	2
78	78	10
63	63	14
71	80	3
18	18	2
59	66	4
83	84	5
74	74	15
57	65	1
61	61	20
16	16	10
49	52	4
69	86	7
35	35	1
5	5	12
3	4	2
74	75	9
53	56	1
61	65	3
46	64	5
54	83	1
31	31	15
58	80	2
51	76	4
64	78	1
53	55	3
60	61	5
76	83	2
56	57	6
68	87	5
28	28	10
71	71	10
50	52	1
60	66	4
69	81	2
48	50	2
9	9	11
21	22	8
77	80	3
58	60	1
82	83	6
30	30	17
47	48	6
59	65	2
8	12	4
85	85	9
64	66	2
59	61	1
29	30	1
66	79	4
58	58	5
4	23	3
46	46	5
50	51	4
77	81	1
67	68	5
25	34	2
58	79	2
20	20	6
62	63	5
17	17	8
77	87	3
55	76	1
55	57	3
57	86	1
9	18	4
69	88	2
17	18	5
48	51	3
27	29	1
25	27	1
58	65	4
10	18	2
46	48	1
72	74	1
58	84	2
46	63	4
64	65	3
71	72	3
6	7	3
69	70	2
54	56	7
85	86	6
78	81	3
59	80	1
58	62	6
63	64	8
51	55	1
51	52	1
76	78	2
79	80	5
5	6	2
62	62	5
4	5	2
65	66	4
76	81	1
8	17	1
52	63	2
14	15	1
61	83	2
68	84	3
0	2	5
78	79	3
56	64	2
72	80	3
2	3	3
69	87	2
55	77	2
58	82	2
87	88	1
56	58	1
13	14	2
76	77	1
75	81	1
68	88	3
24	34	1
46	49	3
21	21	1
55	56	2
12	14	2
5	7	1
60	62	1
9	12	1
16	17	1
65	78	1
82	84	3
50	53	3
46	51	2
77	78	1
17	19	1
0	1	2
61	62	2
3	28	1
19	25	1
14	21	1
24	26	1
60	82	2
73	81	1
20	22	1
48	49	1
21	23	1
