29	29	15
86	86	7
81	81	11
104	106	1
19	19	11
132	132	16
33	33	14
4	4	12
21	26	3
64	65	6
105	105	4
104	104	6
33	34	6
122	143	2
112	112	5
126	136	2
88	93	4
126	143	8
10	10	16
135	143	5
16	149	3
42	51	1
4	16	1
55	55	6
14	14	13
46	46	16
55	56	8
87	93	6
83	84	8
22	66	2
22	22	10
101	102	4
23	23	9
142	147	3
29	30	2
100	101	4
38	40	3
100	100	7
144	148	3
87	88	4
63	66	1
20	50	1
93	125	5
154	154	13
7	29	1
149	150	9
96	96	8
28	28	14
3	3	7
38	38	22
77	78	3
82	82	9
43	43	9
40	62	2
92	116	3
20	29	1
22	23	6
42	47	4
31	32	5
13	13	16
5	6	4
82	95	2
6	20	3
71	80	4
5	5	10
62	62	10
41	41	7
119	119	4
116	116	17
141	141	6
97	98	8
118	118	18
147	148	5
101	110	2
138	138	10
25	26	10
5	7	4
78	87	3
34	34	6
70	70	8
117	118	2
21	66	1
54	71	1
20	21	7
24	24	7
67	67	6
75	75	3
54	55	4
15	15	21
113	113	6
27	27	4
44	44	17
145	146	16
5	16	5
97	113	3
151	151	3
76	76	15
26	31	1
143	143	19
107	107	12
40	40	23
75	98	1
48	48	10
99	102	4
142	142	8
49	50	7
8	14	1
145	150	1
11	11	10
39	49	3
80	80	10
36	36	19
17	17	9
75	76	6
49	49	9
139	142	5
27	81	1
30	30	12
110	110	14
42	42	17
23	25	3
67	68	5
79	79	3
50	62	1
5	51	2
39	40	8
115	115	8
146	146	6
152	152	4
74	74	5
72	75	2
16	33	3
16	25	2
135	135	6
126	127	7
26	79	11
30	84	2
144	144	12
6	6	14
65	66	8
38	39	4
78	79	6
135	136	5
148	149	2
21	21	16
34	40	2
12	65	2
120	120	17
150	150	11
148	148	17
137	144	4
95	97	5
84	86	5
8	13	1
94	111	5
56	58	2
100	103	6
89	100	3
136	147	3
84	84	8
63	65	3
34	35	7
21	58	2
74	97	2
47	51	2
34	51	3
65	65	17
10	19	2
129	130	5
62	98	4
128	128	8
86	145	2
8	8	10
11	29	4
130	130	9
78	78	14
111	111	6
75	83	1
32	85	2
140	144	3
106	125	3
103	112	3
26	30	2
109	109	13
75	86	6
72	72	8
22	67	1
48	53	3
40	42	3
140	140	7
95	118	1
105	110	4
30	32	3
94	94	16
112	114	3
123	124	9
31	31	16
108	112	4
82	100	2
50	63	3
18	19	6
93	99	2
15	16	6
69	69	6
106	106	6
97	134	2
103	106	3
67	87	1
39	42	6
75	104	1
118	132	1
125	126	4
129	129	14
131	131	8
97	103	1
85	86	4
137	137	9
71	73	6
71	71	9
37	37	5
18	18	20
126	146	1
43	48	1
94	98	3
147	147	8
47	47	7
72	140	2
105	115	1
7	11	4
127	127	4
68	68	10
72	74	2
123	123	9
11	12	4
38	51	5
100	102	2
52	55	1
136	136	16
82	99	6
53	53	15
95	96	3
26	27	4
27	28	6
87	87	8
54	87	4
87	109	3
45	45	8
64	80	1
33	38	3
126	126	8
35	36	4
33	35	3
8	20	1
22	104	1
55	57	5
49	52	1
64	64	17
127	128	6
107	108	5
28	36	3
116	117	4
19	24	1
147	149	1
7	36	2
115	117	1
12	13	3
81	105	2
85	85	11
6	7	5
25	28	6
115	116	2
72	73	3
4	8	4
130	131	6
76	95	1
22	25	3
15	18	2
32	36	1
9	9	8
6	12	4
83	83	6
137	138	4
37	38	6
66	68	8
76	79	1
93	93	8
7	8	2
63	63	13
13	14	3
24	36	2
32	33	7
98	99	5
116	131	1
77	77	6
57	57	12
27	29	4
72	94	5
139	139	5
39	39	11
119	135	1
39	69	2
51	51	3
4	7	1
98	98	8
125	125	9
108	108	7
125	147	6
50	52	7
79	80	3
122	122	7
108	109	9
106	124	2
111	115	3
76	77	1
103	103	3
96	98	6
11	28	3
34	38	9
131	132	9
19	35	2
95	95	10
139	146	2
35	35	8
81	103	3
134	135	3
12	28	1
23	66	2
7	7	6
9	33	2
139	141	2
92	105	4
86	94	2
138	145	1
56	56	6
50	50	1
45	46	5
84	85	5
134	134	5
138	150	4
73	76	1
32	50	1
16	16	13
29	86	3
24	25	1
7	26	2
38	84	1
121	121	6
124	130	1
113	149	2
139	144	4
25	25	9
94	146	9
18	41	1
28	29	3
141	142	8
93	103	2
12	12	5
102	111	2
87	111	4
85	93	1
110	112	3
7	28	1
106	136	1
22	34	1
145	145	6
5	50	1
102	102	9
81	82	2
83	98	1
26	26	4
138	139	3
77	81	1
63	97	1
94	108	1
126	128	5
124	128	5
22	26	3
5	26	1
7	40	4
36	84	3
20	104	2
3	28	3
52	52	2
76	121	1
125	143	2
77	79	2
38	82	4
73	73	5
3	4	4
19	31	1
19	55	4
133	133	12
104	117	3
125	145	3
62	75	2
77	127	3
117	117	15
78	80	2
26	68	2
38	45	3
12	34	2
11	34	2
64	68	4
9	12	1
4	5	8
124	132	4
18	37	3
32	32	5
39	56	1
93	95	4
122	129	1
77	121	2
20	20	10
22	24	2
126	137	5
80	84	6
107	130	1
97	99	4
149	149	14
153	153	5
117	147	2
2	13	1
124	125	4
96	106	3
9	17	1
99	99	6
14	25	2
125	136	1
138	149	2
48	54	2
107	123	2
20	23	1
119	122	4
84	87	1
131	133	2
78	103	1
127	145	1
30	31	8
41	42	3
150	151	2
138	144	4
74	75	1
100	107	1
114	115	4
74	86	2
124	124	4
127	148	1
64	66	7
10	56	1
131	147	1
19	20	3
68	69	4
64	92	1
76	124	2
82	93	4
140	143	1
96	107	1
113	114	1
73	74	4
137	145	2
8	37	1
77	85	3
44	45	2
131	134	1
6	31	1
66	69	1
53	54	6
44	69	1
47	53	4
107	109	5
86	87	3
63	64	2
9	10	1
35	37	6
120	121	2
125	129	7
8	40	6
58	75	2
18	39	1
87	108	4
78	82	1
88	89	1
17	18	4
129	134	4
118	119	1
147	152	3
62	83	1
49	51	3
125	127	1
125	146	1
44	46	2
11	15	1
63	78	1
50	84	1
114	114	3
121	122	2
5	18	1
8	38	2
108	125	1
97	97	6
4	25	1
77	84	1
103	110	1
26	83	1
54	54	4
10	11	1
80	92	2
125	142	2
68	95	4
94	118	2
14	15	2
105	123	1
101	101	4
8	9	4
103	104	1
50	51	3
144	145	5
74	148	2
11	33	3
9	40	1
131	149	1
24	69	1
94	96	2
74	147	3
107	127	6
46	47	1
95	103	1
90	90	2
4	6	3
128	129	1
7	57	1
47	48	1
42	43	6
122	124	1
113	138	2
132	142	4
63	87	1
132	133	4
20	38	2
50	55	5
16	17	6
16	43	2
66	67	1
12	29	1
32	88	2
64	75	1
75	81	3
28	50	2
94	95	1
70	71	1
51	55	1
48	50	1
97	107	2
112	124	1
106	126	3
86	88	3
73	86	1
106	108	1
51	52	1
41	49	1
88	88	7
6	15	1
68	98	1
92	92	6
29	58	1
75	80	2
107	110	1
67	75	2
67	79	1
10	24	1
20	28	1
39	48	1
74	98	2
126	147	3
78	104	2
139	143	1
50	58	2
66	66	5
135	150	1
69	120	2
129	149	1
107	112	1
94	147	2
80	81	1
5	13	1
28	33	1
141	143	1
130	147	1
73	75	3
115	133	2
121	124	1
32	81	1
127	143	2
7	21	3
68	103	1
78	81	3
34	83	1
61	62	1
107	118	1
141	146	2
9	31	1
75	85	1
66	78	1
142	143	2
18	55	1
110	114	1
11	50	1
37	44	1
74	76	1
109	115	2
72	85	2
27	83	2
37	45	1
19	57	1
128	130	2
47	52	2
126	142	2
42	68	2
34	84	1
40	47	1
51	62	1
57	80	2
65	117	3
80	116	1
121	133	1
2	8	1
130	132	2
28	34	2
78	109	1
72	76	3
62	82	1
80	82	1
89	109	1
27	62	1
66	81	3
34	85	2
133	135	1
120	154	1
86	92	1
138	141	1
130	136	1
37	43	1
94	97	3
74	108	1
23	67	1
41	44	1
24	28	1
68	86	1
69	70	1
33	84	2
87	110	1
30	85	3
103	105	2
119	149	1
74	84	1
14	36	1
90	93	1
32	38	1
8	22	1
19	97	1
31	33	1
76	80	1
100	117	1
104	116	2
75	128	1
96	103	2
99	114	1
55	69	1
121	138	3
95	102	5
97	111	1
17	43	1
77	87	2
69	101	2
65	68	1
96	97	2
127	137	3
129	147	1
27	30	1
38	41	1
32	62	1
12	55	1
142	146	1
91	113	1
102	105	1
62	88	1
102	103	1
5	32	1
97	108	1
105	108	2
11	16	1
9	11	1
21	22	1
62	67	2
42	45	2
77	83	1
71	122	1
38	47	3
90	122	1
46	70	1
104	112	1
93	105	2
92	138	1
12	14	1
21	23	2
5	28	1
38	43	1
107	138	1
7	31	1
31	62	1
75	77	1
14	16	2
56	57	1
92	93	2
26	29	1
10	34	1
5	11	1
16	20	1
99	113	1
98	110	1
73	102	1
81	104	1
102	117	1
139	151	1
70	102	1
119	123	1
88	95	1
11	26	1
114	126	1
122	154	1
68	77	1
32	34	1
25	66	1
95	98	2
110	126	1
85	87	1
34	37	1
103	114	1
74	77	1
74	110	1
55	84	1
120	122	1
13	15	2
6	13	1
16	22	1
111	112	1
124	136	1
109	128	1
105	140	1
