126	128	5
95	95	19
95	96	6
22	76	2
6	6	22
116	116	4
99	99	10
62	62	1
112	112	8
29	33	1
1	1	13
117	117	5
3	3	8
25	25	4
99	107	3
17	17	5
29	30	5
44	44	12
51	120	2
64	100	1
16	29	4
106	106	8
32	33	6
109	132	5
2	4	3
7	49	4
117	118	2
64	65	1
61	62	6
85	85	6
109	109	8
132	132	2
78	79	9
16	18	3
11	11	7
56	58	4
74	74	3
116	120	2
115	116	3
47	47	7
108	119	2
93	94	10
27	27	10
39	39	9
56	125	3
23	24	9
48	49	5
71	71	11
4	4	7
39	64	2
96	96	4
41	74	3
9	9	8
79	79	5
83	83	12
30	32	4
70	70	14
84	85	6
73	79	2
46	46	11
77	77	8
99	101	3
94	105	4
51	51	15
56	56	9
104	105	4
116	117	6
100	101	5
89	89	9
54	54	24
5	5	12
83	84	3
74	98	2
69	69	12
107	128	4
80	80	8
15	22	4
41	44	2
13	13	4
65	96	3
101	102	2
20	20	10
15	15	8
110	110	1
49	49	17
92	93	5
92	132	3
65	66	2
127	129	2
71	99	4
96	98	8
31	48	2
8	8	12
5	24	2
112	119	2
120	125	2
28	28	15
130	130	17
126	131	3
41	41	7
94	94	6
102	102	3
13	17	3
127	127	8
48	48	14
23	23	7
7	7	9
97	107	3
34	34	2
102	103	10
107	107	11
40	98	6
80	81	3
44	52	2
115	115	13
19	47	3
50	50	9
64	108	1
113	117	1
74	82	2
72	73	2
37	38	3
101	116	1
93	93	4
121	121	5
113	113	7
16	30	5
67	82	7
7	59	1
126	126	4
42	42	11
128	128	8
91	91	4
129	130	6
111	119	4
124	124	4
12	12	5
47	61	5
33	34	8
84	84	5
21	111	6
45	62	1
120	124	5
74	100	1
57	57	6
92	112	4
11	60	1
20	21	5
78	81	2
59	100	1
111	111	8
20	83	2
31	33	3
40	40	5
64	66	5
124	125	11
112	113	1
92	92	5
56	61	3
34	71	2
89	90	2
30	31	7
115	120	2
105	105	8
6	60	2
55	89	2
19	19	6
9	10	1
31	31	8
103	106	2
14	15	4
76	76	6
68	68	9
89	91	7
124	133	4
17	26	3
119	119	9
63	63	10
45	47	4
33	77	5
32	32	6
99	127	2
77	106	1
17	25	1
94	110	7
13	23	2
5	13	1
83	102	3
86	87	2
18	46	1
30	30	6
53	53	7
73	116	4
104	104	8
59	61	1
90	91	2
18	18	4
67	68	6
121	124	3
72	120	1
1	89	2
81	103	2
78	82	1
125	126	2
75	75	10
8	14	2
64	94	2
11	12	7
51	52	2
85	115	1
53	54	2
101	101	4
60	60	2
113	114	4
72	72	7
81	82	2
60	72	3
14	33	1
87	89	2
62	74	1
98	98	7
94	95	1
12	23	3
5	17	2
3	19	2
64	64	3
27	28	12
80	82	1
63	107	2
81	102	1
78	125	2
10	10	5
100	102	1
118	119	3
11	13	1
60	61	3
116	129	4
89	131	3
125	125	3
58	63	4
17	34	2
53	106	2
42	43	6
44	65	2
100	100	9
81	107	2
43	43	6
97	98	4
92	94	2
43	77	1
81	81	3
93	133	4
99	103	2
120	120	8
23	41	3
58	58	6
73	127	1
86	88	3
59	59	4
70	71	3
57	104	1
82	126	2
69	83	2
92	130	2
90	90	6
118	118	3
22	22	10
77	107	2
3	4	1
23	25	4
8	62	2
88	88	2
46	63	1
40	43	2
39	67	3
87	87	8
2	2	2
67	67	6
33	72	1
97	97	3
11	21	2
8	105	6
88	93	2
91	106	4
20	87	1
79	80	2
122	122	7
108	129	1
108	108	5
42	127	1
24	66	2
74	103	2
110	132	2
55	61	1
16	31	2
6	7	2
82	125	4
41	43	3
14	42	4
0	0	3
103	103	2
2	5	3
97	99	3
38	43	2
77	81	2
68	97	2
28	29	1
7	61	3
41	42	5
18	22	6
46	51	2
25	26	4
42	51	2
111	113	3
22	23	1
67	74	1
129	129	6
16	16	4
4	15	1
14	44	3
19	20	3
21	60	2
39	40	2
120	121	2
82	82	5
43	44	6
52	53	3
72	85	2
66	84	2
131	131	5
88	89	1
99	100	2
4	42	1
58	101	1
79	101	3
21	21	3
82	88	2
18	25	1
46	47	3
88	90	4
90	111	1
31	32	4
24	24	1
99	109	1
13	29	1
107	130	2
24	45	2
72	74	2
29	68	4
39	48	2
52	52	7
51	76	1
47	48	2
100	114	1
123	123	8
83	85	2
42	95	1
53	76	2
5	21	3
62	63	1
63	64	1
49	56	1
15	32	1
62	73	3
42	44	1
7	58	2
61	97	2
91	130	1
67	99	1
8	9	2
54	92	2
133	133	4
100	127	2
41	62	1
22	24	1
15	26	1
106	107	1
128	131	1
56	77	2
58	103	2
10	19	6
13	32	2
73	74	3
128	129	1
44	50	3
70	77	2
58	60	1
89	132	1
5	16	3
61	63	1
91	92	3
42	62	1
14	34	1
2	59	1
40	72	2
4	25	2
69	75	1
14	45	1
103	130	1
4	5	2
40	51	1
114	117	1
113	119	1
76	106	1
26	26	1
102	108	2
14	14	5
87	88	2
74	126	1
55	55	2
104	109	1
128	130	1
14	17	1
41	127	2
110	122	1
98	107	1
63	120	1
8	55	2
114	114	1
73	77	1
118	120	1
7	10	2
50	51	1
78	103	1
108	128	1
21	68	1
48	65	1
38	38	4
11	23	1
58	104	2
22	39	1
120	123	1
82	127	1
113	125	1
85	118	1
85	86	1
24	72	1
73	82	1
38	41	2
48	83	1
13	30	1
81	84	1
59	60	1
76	109	1
12	32	1
91	129	1
43	55	1
