62	101	2
96	97	9
56	56	12
32	36	2
11	11	19
95	96	5
21	83	3
26	26	17
4	5	16
16	27	5
112	112	6
21	21	9
19	19	12
72	72	13
6	21	4
40	43	4
98	98	8
97	98	6
15	16	4
33	33	10
131	131	5
3	3	10
64	64	10
34	35	4
34	34	8
66	67	3
5	5	11
43	43	10
19	20	10
54	54	2
125	125	8
127	128	1
9	10	5
5	101	5
7	84	3
133	134	10
62	62	12
121	121	5
46	46	15
13	22	1
38	41	1
91	92	5
94	94	8
90	90	5
36	37	7
6	6	11
71	75	2
65	65	7
62	63	1
37	37	4
93	94	12
8	10	9
23	23	7
6	84	5
33	35	2
74	74	14
78	80	5
58	58	1
4	4	14
66	66	8
25	82	5
28	28	12
48	56	2
131	132	9
29	30	4
134	134	3
31	31	4
128	129	2
108	108	9
14	27	4
26	82	6
105	106	1
71	73	3
102	102	5
129	129	6
78	78	6
39	48	5
30	30	7
29	131	2
6	97	4
107	108	4
126	126	6
104	104	9
66	98	2
35	36	7
127	131	7
79	79	9
90	132	1
28	29	4
114	114	2
103	105	1
35	35	16
127	132	5
25	26	13
68	68	6
75	75	6
56	58	3
60	60	9
106	132	2
57	58	4
48	48	4
117	117	2
72	73	1
86	86	6
39	39	8
40	54	5
100	100	18
8	8	6
26	30	1
123	123	7
1	1	2
44	46	7
6	45	1
122	122	3
99	99	3
12	12	15
77	77	16
92	94	1
76	78	4
73	73	8
36	99	5
3	95	1
12	13	7
104	105	2
11	21	1
1	3	2
96	98	4
98	99	2
97	99	2
37	42	1
47	47	7
32	101	3
127	127	3
82	84	2
12	14	2
84	84	6
44	45	3
119	119	9
105	105	10
107	107	4
22	26	9
94	98	4
57	57	4
80	81	4
124	125	4
61	61	17
87	87	10
17	17	8
29	29	7
106	107	6
14	15	3
47	48	1
23	25	1
47	57	1
58	60	1
80	116	6
13	16	8
128	128	3
104	134	5
111	111	15
14	14	7
45	45	16
101	131	3
10	25	1
112	113	8
21	43	2
85	85	3
91	91	7
26	27	3
119	120	4
7	72	1
84	101	4
17	84	2
45	48	2
48	100	1
59	59	13
80	80	8
80	112	2
132	133	3
31	32	1
4	16	1
92	93	2
20	20	5
128	130	3
26	93	1
85	102	2
13	13	13
20	42	1
96	96	4
82	82	3
84	96	2
50	50	5
15	20	1
76	76	10
110	110	1
11	90	3
45	46	5
7	7	2
115	116	5
14	16	2
45	91	1
66	83	4
75	76	3
118	118	5
80	83	4
43	46	2
67	67	18
32	32	5
78	79	7
22	25	2
82	83	3
77	123	5
16	16	3
116	116	7
88	90	3
92	92	4
27	27	4
103	104	4
8	36	6
9	9	7
89	94	2
111	133	1
100	101	1
124	124	5
44	44	5
114	115	4
116	118	1
94	95	2
125	127	4
70	70	5
39	49	2
93	101	4
95	95	2
21	41	5
10	10	6
20	83	1
38	39	2
38	38	3
83	83	4
78	112	2
49	95	2
41	41	4
84	85	2
76	77	3
17	18	8
91	96	2
2	3	3
85	87	2
4	6	7
49	49	4
42	50	1
18	18	3
5	7	1
54	55	1
81	81	2
2	2	7
69	70	2
25	25	3
6	7	3
27	28	2
36	98	2
32	33	2
59	60	4
72	74	1
37	40	6
36	36	8
109	110	2
64	66	1
94	100	2
7	21	2
41	44	3
3	4	2
113	113	4
98	100	5
74	95	2
79	81	2
7	65	1
56	57	4
29	49	2
54	56	3
20	21	1
16	17	1
79	80	3
133	133	6
11	26	2
129	131	2
131	133	3
20	100	1
127	129	1
80	125	2
63	63	6
73	74	1
99	134	3
33	36	1
106	106	4
130	130	2
94	99	1
123	124	4
97	97	1
103	103	1
85	86	3
111	112	6
63	98	2
107	109	1
117	118	1
81	90	1
63	64	1
74	94	3
26	50	1
9	74	1
93	93	2
7	83	1
70	71	2
32	48	1
67	68	2
18	83	1
33	34	1
55	58	3
77	78	1
26	29	1
37	38	3
89	90	1
47	56	1
21	38	1
88	89	1
39	56	2
26	49	4
99	100	2
12	47	1
35	74	1
126	130	1
81	113	3
118	119	3
101	101	2
5	88	1
16	20	1
95	99	2
83	84	1
64	65	1
20	43	3
4	130	1
101	106	4
43	45	2
102	105	1
23	28	1
122	123	1
55	55	1
55	56	2
8	34	1
80	82	1
61	63	1
44	48	1
38	58	1
27	80	1
4	84	2
25	83	1
35	75	1
93	98	3
2	14	1
24	26	1
91	100	1
9	44	1
91	128	1
68	69	1
126	132	1
