43	43	12
38	47	2
42	43	3
27	27	14
79	79	2
80	96	2
55	56	9
71	73	2
44	44	15
30	31	5
40	56	4
74	74	9
99	99	20
73	74	3
22	22	8
109	110	6
21	22	4
72	72	2
25	25	7
42	44	2
53	56	2
111	111	10
28	28	11
107	108	6
76	108	3
35	35	7
52	112	5
38	38	4
39	54	3
109	111	2
26	26	9
92	92	3
89	89	4
96	96	11
103	104	1
101	112	2
101	101	11
81	82	2
87	90	1
80	81	2
69	70	2
100	109	4
113	114	3
41	41	9
31	31	7
67	67	3
32	32	9
45	45	8
29	29	5
90	90	2
54	85	1
40	61	1
21	21	10
110	110	8
81	81	11
95	95	7
57	58	2
112	112	2
46	46	8
40	95	2
47	47	4
94	94	6
104	106	2
101	105	4
61	70	1
103	103	12
59	60	2
114	114	4
87	89	2
94	95	2
23	23	5
36	36	2
78	78	7
24	24	3
48	49	11
98	98	9
82	83	3
100	101	5
84	85	4
52	52	2
51	51	12
38	39	1
39	40	3
71	71	4
60	64	2
96	97	4
113	113	4
97	97	7
80	82	3
109	109	9
40	40	1
77	77	6
73	73	5
77	110	2
49	49	7
93	93	8
88	90	3
101	102	3
91	91	5
69	71	4
20	22	2
107	107	2
53	54	1
40	41	5
42	42	4
76	80	1
91	93	1
20	30	1
111	113	3
70	70	8
78	79	2
77	78	2
29	30	2
56	58	3
34	34	2
33	33	6
49	50	1
102	106	1
46	47	2
23	24	2
60	67	4
93	101	2
55	57	3
45	46	2
82	84	1
102	103	1
81	83	2
93	94	2
29	31	1
65	66	5
19	19	2
26	29	4
82	82	1
44	45	4
50	50	4
79	80	1
72	74	3
66	66	2
32	33	2
104	104	2
39	39	3
76	107	5
75	75	7
69	69	5
93	96	1
102	102	7
105	105	4
48	48	8
35	36	2
38	41	1
19	33	1
55	55	1
34	38	3
76	76	2
108	108	4
86	88	2
42	47	3
94	97	1
26	27	2
68	69	1
80	80	3
62	62	4
60	60	2
40	62	1
64	64	3
84	92	1
95	96	2
65	65	3
28	31	1
92	109	1
44	46	1
112	113	1
98	99	2
30	30	1
58	59	3
61	78	1
27	45	1
61	98	2
100	102	2
103	108	1
33	55	3
52	53	2
33	36	3
100	100	4
110	112	1
26	43	2
85	85	2
83	84	3
26	45	2
68	68	1
43	44	3
68	71	1
99	110	2
88	89	1
87	91	1
27	28	2
20	28	1
20	20	2
63	69	1
19	20	4
63	66	1
54	56	3
58	60	1
53	53	2
63	63	1
96	110	1
111	114	1
101	103	1
61	61	3
50	112	1
75	76	1
58	80	1
56	56	2
41	42	1
67	68	1
32	53	1
61	64	1
38	57	1
92	105	1
78	96	2
54	54	2
108	110	1
40	50	1
31	32	2
80	92	1
107	110	1
59	59	1
71	72	1
85	90	1
25	27	1
39	44	1
62	63	1
37	55	1
99	100	1
84	84	1
106	107	2
47	48	1
63	64	1
95	97	1
