121	132	2
121	121	11
12	12	7
22	23	6
75	81	2
16	79	3
131	131	5
37	37	3
52	52	8
77	77	5
75	76	3
72	73	3
126	127	1
30	30	4
130	130	16
64	64	9
121	123	5
19	19	3
106	106	12
113	117	5
100	100	2
128	128	2
36	36	4
100	101	6
116	117	2
49	62	1
9	10	10
108	109	1
66	66	4
70	70	5
110	112	5
1	1	6
68	68	8
113	114	1
129	130	4
54	54	4
81	82	3
53	53	4
24	24	4
118	131	2
62	109	1
28	32	1
50	50	5
99	101	2
90	90	3
135	135	2
88	111	1
44	45	4
67	68	4
84	109	1
99	99	5
116	116	4
95	95	6
38	105	6
125	125	5
4	5	4
98	125	1
124	127	3
3	3	6
83	83	1
65	67	2
59	59	7
110	111	2
10	10	4
58	81	1
43	122	3
63	112	1
17	17	1
60	78	4
34	36	2
89	90	3
111	111	6
123	123	7
105	105	2
122	123	4
94	98	1
52	59	2
60	60	3
0	0	3
5	5	5
133	133	7
61	64	2
119	119	1
82	82	4
104	104	4
61	61	3
114	114	4
84	85	8
58	58	2
80	80	13
12	16	3
69	70	3
55	56	7
25	25	3
63	63	2
64	65	1
132	132	9
33	35	1
22	22	1
59	60	2
0	90	2
130	131	3
27	33	5
55	55	5
82	83	5
84	86	1
30	94	1
96	97	1
7	8	1
57	131	2
58	59	2
74	74	4
76	76	4
6	6	5
93	93	5
98	99	4
74	75	3
80	81	1
122	122	2
57	58	6
112	113	2
11	11	2
57	119	2
77	92	1
16	16	4
7	7	9
6	43	2
47	101	1
51	51	3
45	128	1
60	61	2
60	92	3
28	28	3
94	94	3
33	33	4
52	54	5
120	120	3
8	11	2
88	88	2
102	102	5
103	103	1
36	96	2
61	66	2
112	112	4
20	20	8
56	56	3
105	106	5
18	21	2
124	124	3
18	18	2
108	108	2
86	86	5
79	79	3
83	84	1
127	127	6
132	133	1
85	85	2
58	86	2
69	109	1
113	113	1
107	107	3
29	29	1
14	14	5
131	133	2
121	128	2
87	87	1
52	53	2
131	132	5
4	4	4
1	2	4
3	4	1
19	67	2
49	49	3
92	93	3
97	97	9
116	131	2
53	59	2
117	117	2
76	89	1
112	114	1
23	23	1
91	91	4
53	120	1
124	125	1
38	38	1
33	34	3
114	135	1
72	74	1
93	94	2
26	124	1
98	98	1
79	107	4
67	110	1
115	115	4
31	31	4
9	11	2
117	120	1
102	103	3
97	98	1
71	71	1
91	95	1
21	21	1
30	31	1
106	109	2
130	133	1
99	100	2
20	25	2
93	95	1
127	128	1
65	65	1
16	78	1
84	84	1
8	9	1
112	135	1
94	95	1
96	96	2
81	100	1
101	101	1
77	78	1
91	100	2
14	15	1
78	79	2
72	72	1
121	127	1
49	90	1
107	109	1
68	69	1
93	101	1
62	62	1
75	75	2
109	115	1
76	90	1
129	129	1
69	71	1
61	63	1
69	69	1
