23	125	2
15	15	6
22	50	1
32	32	9
44	56	2
65	65	20
24	27	4
35	72	1
118	118	11
12	71	3
36	36	7
97	101	2
10	10	14
93	93	7
93	101	2
74	112	3
68	69	1
99	100	11
4	5	4
96	97	5
113	131	7
74	74	12
66	66	10
41	43	5
9	10	3
113	113	7
56	98	1
2	2	7
83	83	11
85	85	4
48	48	3
11	11	6
124	124	2
123	123	2
57	57	8
14	14	3
69	70	7
34	43	10
38	38	6
127	127	8
27	31	4
28	28	9
59	60	1
43	58	3
129	130	4
59	59	4
24	48	1
7	7	6
30	30	3
127	131	5
103	104	3
92	92	4
45	45	7
34	45	1
10	17	2
30	31	2
94	99	6
123	124	1
75	75	6
86	86	5
73	74	4
78	78	1
20	21	1
7	123	1
27	69	1
25	79	4
84	84	1
110	113	4
68	72	1
23	23	4
99	101	4
26	92	3
0	0	4
105	105	6
90	90	8
84	93	6
116	117	10
78	82	4
12	14	2
44	44	4
128	128	8
33	33	4
130	130	2
60	60	16
129	129	5
8	8	10
49	88	1
90	91	3
125	125	6
27	47	4
31	31	5
3	3	3
6	45	5
60	81	2
111	111	13
27	27	7
7	14	1
4	19	3
28	63	1
6	98	4
40	70	1
97	97	7
76	78	3
116	116	2
112	112	3
35	35	5
88	89	2
30	32	1
70	70	4
5	41	4
45	60	1
82	82	1
18	34	3
58	58	5
38	126	1
83	109	1
6	6	4
121	121	3
41	42	5
121	122	1
25	25	8
84	91	5
40	43	3
13	13	6
57	58	4
81	81	3
78	93	1
11	12	3
18	64	2
79	83	1
87	87	2
95	95	5
63	63	2
18	18	5
71	71	5
29	29	3
26	26	8
20	54	3
15	16	4
26	46	1
100	100	3
8	16	1
106	106	2
27	95	2
5	5	4
19	19	7
35	82	3
110	131	2
25	26	2
132	132	5
34	76	5
47	47	9
42	58	2
12	12	4
58	100	3
131	131	4
6	128	1
5	31	1
1	1	3
30	38	3
63	113	2
95	99	1
26	79	2
20	62	2
20	39	1
56	81	2
119	122	1
38	125	3
94	95	2
29	78	2
39	39	6
43	43	2
73	73	4
8	72	1
80	80	5
5	95	3
64	85	3
108	108	2
104	105	2
40	40	2
47	68	1
26	30	1
96	103	3
44	97	2
65	70	2
69	69	4
132	133	1
6	94	3
82	85	2
4	4	1
91	91	2
55	91	3
41	41	2
57	95	3
74	76	2
62	62	3
121	126	4
67	67	9
45	57	2
20	37	1
40	78	1
46	46	2
16	31	2
45	62	1
71	72	1
26	78	1
110	112	3
120	120	1
99	99	1
6	7	1
73	75	4
44	105	1
23	30	3
61	61	1
16	16	1
9	72	2
97	100	6
45	70	1
98	98	4
87	88	1
20	20	1
48	129	2
35	77	1
92	93	4
50	84	1
76	76	5
79	79	1
96	99	2
4	95	1
36	37	3
62	85	2
57	85	1
57	80	1
26	95	4
77	78	2
71	75	1
58	95	1
91	105	1
72	72	6
9	25	2
73	76	4
22	23	3
91	94	2
11	40	1
31	32	1
24	25	1
31	79	1
59	63	3
23	60	2
62	64	2
95	96	1
27	92	2
44	45	3
42	42	3
32	49	1
94	97	2
21	22	2
19	20	3
50	50	2
114	114	3
34	34	3
126	126	3
94	94	2
112	113	2
128	129	1
91	93	2
128	131	1
90	98	3
85	93	2
60	92	1
83	87	1
42	133	1
85	103	1
77	82	1
33	43	1
46	74	1
84	85	1
44	130	2
64	64	2
60	61	1
88	101	2
104	104	2
46	72	1
125	126	1
38	40	1
44	102	1
122	122	1
49	55	1
17	17	2
81	84	2
20	83	2
47	93	1
80	103	1
22	22	1
106	107	1
11	49	2
109	131	2
118	122	2
78	112	1
56	59	1
5	6	1
9	9	1
109	110	1
35	100	1
55	55	1
96	105	1
78	80	1
33	35	1
46	47	1
96	96	1
