230	232	2
84	85	4
3	4	5
59	59	24
35	35	1
68	68	11
195	196	1
51	52	4
223	224	4
116	116	6
72	72	7
243	244	2
172	172	12
244	246	3
53	54	3
161	161	15
246	247	6
112	112	10
234	234	12
245	245	15
247	248	12
19	19	10
44	45	3
94	94	8
49	49	11
17	17	7
230	230	20
93	93	4
7	7	6
96	112	5
215	218	4
21	22	14
179	179	8
69	69	13
38	38	10
199	200	2
193	195	2
156	157	1
162	163	6
240	242	10
223	223	11
182	192	4
154	154	7
205	205	20
240	247	8
151	151	20
61	62	3
114	115	4
176	176	14
181	181	17
74	76	2
209	210	25
48	49	1
173	174	16
79	82	3
24	24	11
64	65	5
178	178	9
169	170	2
74	74	6
58	58	8
20	20	9
7	39	1
165	165	16
220	223	1
170	170	2
82	82	8
219	219	22
90	91	19
99	99	10
73	73	14
155	155	19
114	114	11
68	110	3
186	186	13
228	230	2
69	100	2
38	39	8
248	248	16
118	119	8
77	79	7
219	236	2
226	226	8
175	176	11
51	51	4
3	3	4
95	95	17
200	201	6
210	210	16
174	174	7
241	241	5
37	37	14
23	24	2
211	241	1
211	211	5
160	160	26
100	100	6
43	43	9
70	88	5
26	26	24
91	91	7
75	78	3
181	182	8
164	164	15
63	63	8
89	106	8
238	238	7
10	10	6
244	244	13
150	150	15
120	238	3
191	191	11
236	237	12
210	216	1
214	214	13
171	171	14
52	52	13
162	239	1
48	241	3
159	174	3
235	235	8
24	25	3
202	202	7
27	28	2
1	115	1
213	213	13
76	76	10
64	74	2
21	21	17
87	88	5
61	61	4
117	117	10
44	94	3
52	53	5
200	212	3
205	206	3
12	12	6
94	96	2
69	71	2
197	199	2
31	31	13
243	243	9
166	166	17
80	81	3
198	199	7
60	60	2
232	232	8
154	155	3
68	120	5
74	75	6
167	167	17
177	177	19
65	68	2
217	217	10
68	119	3
61	63	2
10	12	6
247	247	24
67	200	2
93	94	4
184	184	8
231	232	5
85	86	4
71	72	2
117	119	6
169	171	3
203	204	5
45	45	7
47	62	2
47	47	4
158	159	5
30	30	12
3	5	1
175	175	8
59	60	6
91	230	4
228	229	4
108	237	1
165	189	2
23	23	13
67	67	5
191	195	1
157	158	11
212	212	14
60	64	1
180	180	6
87	95	1
147	243	1
87	87	7
218	218	6
46	46	9
168	170	4
245	248	2
196	197	7
44	44	22
77	77	9
68	109	2
243	246	2
102	102	4
65	65	16
48	50	1
92	97	4
208	209	9
161	162	3
90	106	2
13	20	4
115	119	2
172	194	2
29	29	14
4	5	3
172	173	12
190	190	13
48	48	14
8	8	17
182	201	1
187	188	3
32	82	1
112	114	1
162	162	14
6	6	12
90	90	5
209	209	8
111	112	6
168	168	22
36	36	7
203	203	15
19	34	4
224	224	10
238	246	4
35	99	5
165	167	5
4	34	2
147	147	5
163	164	5
5	5	8
242	242	5
79	79	14
74	214	3
98	98	5
15	15	5
13	14	3
84	84	12
183	183	17
213	220	3
65	102	2
237	238	7
108	236	2
41	42	7
31	154	6
144	206	6
108	240	7
189	191	2
92	96	2
204	204	19
240	241	2
114	116	3
167	168	1
27	27	14
217	221	1
49	50	6
33	37	1
149	150	4
65	67	2
67	158	1
196	196	6
47	63	2
12	47	3
75	116	4
63	64	4
75	75	13
169	169	4
233	233	3
9	9	8
84	86	2
104	104	6
70	70	8
107	107	7
86	101	4
40	216	2
39	40	2
188	189	9
176	182	2
167	170	5
86	86	2
81	84	5
95	96	4
152	152	4
90	92	2
33	38	3
216	216	4
158	175	4
196	198	4
226	228	4
113	113	2
1	1	9
229	229	10
197	207	1
225	226	11
38	87	2
179	186	3
237	237	4
22	22	9
55	56	6
64	79	1
167	175	3
106	107	3
150	151	1
212	213	1
97	97	3
221	221	3
79	81	3
66	158	1
186	189	3
15	33	2
239	249	1
186	205	1
212	221	3
175	178	2
200	211	2
234	244	6
1	3	1
241	242	6
221	238	2
54	54	18
206	207	4
153	154	3
56	57	7
164	170	1
41	41	8
57	57	3
186	191	2
183	184	5
109	109	3
194	194	9
50	50	12
172	181	1
57	214	2
33	33	8
185	185	14
207	207	13
191	192	5
195	195	12
64	67	4
159	159	9
59	120	2
81	81	5
34	34	5
218	248	3
102	103	3
34	153	1
157	157	11
112	116	4
32	53	3
35	63	2
80	80	3
231	231	4
47	50	1
67	68	3
166	167	4
159	248	2
11	11	10
33	41	2
118	118	7
38	92	1
222	222	12
96	99	5
186	212	5
210	211	2
196	209	5
97	100	3
42	43	3
75	76	2
201	201	7
103	103	4
82	87	2
193	193	12
10	207	4
89	89	7
10	22	1
223	225	1
11	34	1
94	172	7
50	60	1
28	95	2
39	39	4
109	241	1
35	36	4
77	80	3
77	158	7
105	106	5
163	163	14
156	156	13
80	99	5
192	194	4
235	246	3
66	70	1
211	212	9
220	220	4
64	64	4
112	199	2
47	59	1
82	83	6
72	77	3
226	227	7
87	103	1
115	115	9
108	108	3
106	115	2
208	208	9
61	81	1
36	113	1
238	247	1
89	107	1
46	225	1
177	194	2
222	237	1
96	96	2
213	215	4
53	53	5
119	119	6
237	248	3
201	202	4
164	178	2
29	62	4
246	246	14
188	188	4
117	118	4
33	117	2
94	173	1
47	217	4
95	97	8
207	208	2
80	84	1
85	85	1
176	181	3
145	145	9
99	100	1
215	219	5
174	184	2
210	215	2
32	32	7
234	235	9
233	237	3
214	218	2
215	215	4
170	171	3
165	166	3
10	109	2
197	198	5
91	96	2
20	41	2
193	210	2
37	38	4
38	40	1
116	117	2
70	78	2
182	182	10
3	222	2
187	187	4
240	240	9
65	66	7
215	216	3
168	169	3
62	62	8
92	92	6
185	188	1
195	197	3
211	218	2
224	226	3
206	206	2
225	225	2
56	56	8
62	64	1
199	199	7
215	217	4
162	203	3
233	234	4
82	84	3
91	92	4
179	183	1
187	191	2
5	6	4
77	78	2
65	115	2
168	174	3
101	102	4
12	48	1
55	55	10
6	7	5
51	53	2
198	198	7
75	86	1
190	208	1
50	62	3
55	58	5
25	25	5
2	2	8
102	104	3
153	153	13
105	108	3
40	40	3
189	189	2
239	239	8
66	71	3
105	107	1
196	200	1
30	31	5
190	192	3
239	240	2
80	82	7
237	242	3
42	53	2
21	228	2
112	113	4
191	193	3
78	78	3
216	217	2
72	158	2
176	194	1
228	228	4
184	234	4
70	82	1
244	245	2
76	77	2
190	191	2
68	69	5
49	60	2
32	33	2
153	226	3
193	199	3
179	180	3
35	100	3
71	73	2
11	40	2
18	19	9
100	102	2
191	209	4
145	150	2
220	230	1
4	223	1
163	171	3
221	240	1
49	81	4
81	85	3
164	198	3
222	223	3
29	35	1
218	219	2
185	187	4
16	16	7
181	183	1
155	156	2
162	176	2
174	175	3
238	248	1
34	35	5
41	152	1
64	85	2
106	106	3
204	205	4
42	42	3
183	226	1
230	231	4
94	95	2
54	55	7
66	66	14
96	98	4
213	236	2
53	61	4
161	244	5
66	67	1
172	174	4
0	8	1
26	28	1
221	222	5
22	25	1
200	200	8
183	190	2
165	188	3
68	181	5
182	196	2
88	88	2
158	158	4
224	225	1
109	110	2
111	111	2
92	93	2
220	221	1
245	247	1
231	233	1
5	18	1
237	247	2
211	216	1
233	236	2
192	192	3
159	181	1
9	37	3
69	210	4
11	48	4
149	151	1
55	64	1
39	147	1
104	107	1
182	183	2
18	34	1
181	190	1
84	87	2
20	21	3
164	165	1
170	175	1
28	28	4
201	208	1
238	240	1
71	80	3
2	32	1
173	173	2
237	245	2
236	236	4
60	61	1
94	112	1
18	18	5
236	242	3
30	38	3
180	181	3
49	74	2
87	100	1
50	240	2
198	208	2
177	178	1
7	8	1
10	37	4
11	12	2
229	230	4
209	219	2
30	36	2
88	96	1
208	222	2
202	205	2
168	189	1
211	247	1
189	190	1
65	159	1
187	189	5
161	165	1
219	237	4
17	23	1
71	71	1
72	73	1
68	70	1
201	245	4
20	57	1
9	10	1
171	173	1
182	191	1
45	46	1
67	70	2
70	213	2
59	61	1
238	239	1
163	165	4
23	36	1
2	3	1
213	218	1
161	175	1
110	112	2
163	197	1
187	190	1
183	208	1
83	83	2
28	54	1
162	202	2
120	144	1
58	108	1
67	208	1
159	245	1
96	97	3
232	233	1
242	243	2
197	197	3
158	179	1
233	235	1
47	48	3
199	214	1
161	185	1
71	78	1
25	36	1
110	121	2
69	72	3
57	58	2
8	109	2
144	186	1
1	224	1
69	70	3
173	177	2
62	99	1
62	63	1
28	151	2
185	186	1
19	20	1
47	49	1
8	9	2
201	237	1
64	104	1
159	243	1
36	37	2
179	228	1
162	192	2
179	227	1
198	200	1
200	246	1
76	80	2
93	240	2
55	62	1
110	110	2
66	115	2
43	44	2
164	166	2
146	147	1
33	82	1
111	113	1
115	116	2
213	214	2
172	238	3
55	230	1
158	164	1
110	111	1
193	194	1
17	18	1
165	181	1
86	99	1
164	185	1
191	208	1
144	144	1
217	218	1
213	217	1
145	147	1
173	194	2
97	98	1
10	11	2
109	114	1
53	85	2
6	9	1
96	100	1
51	238	1
72	80	1
245	246	2
12	13	1
99	222	1
168	171	1
73	102	1
179	181	1
180	183	1
166	189	1
163	238	1
63	103	1
75	85	1
183	196	1
236	238	2
209	216	1
41	43	1
158	178	1
237	240	1
157	179	1
111	116	1
78	158	1
230	235	1
30	34	1
78	79	1
20	33	1
208	213	1
72	182	1
14	18	1
9	12	1
184	209	1
11	20	1
3	48	1
62	94	1
89	95	1
237	239	1
