39	46	3
17	18	1
107	107	4
86	105	5
143	143	8
53	53	2
102	102	4
95	95	3
132	162	5
13	13	8
125	125	6
146	152	3
145	145	5
17	17	2
66	70	2
124	124	1
49	49	1
153	154	1
80	80	1
157	157	1
41	107	1
147	148	3
21	21	8
45	127	2
54	54	3
70	70	8
156	157	2
77	77	3
107	108	1
100	101	1
48	48	1
151	151	3
57	57	4
5	5	6
98	98	4
38	41	1
144	144	5
103	121	1
1	1	1
149	156	1
120	120	1
79	79	1
161	164	3
63	63	5
20	22	1
115	116	3
140	141	5
140	140	4
153	153	2
50	50	5
73	73	2
125	129	1
93	93	3
144	166	2
160	160	3
91	95	4
50	51	6
89	89	7
115	130	1
106	106	1
43	43	4
133	133	1
96	96	3
26	26	3
0	2	1
44	44	3
130	130	5
75	81	2
78	78	2
76	79	2
48	50	2
42	42	1
86	88	1
35	35	9
3	3	4
40	40	2
122	122	4
116	164	4
42	106	1
90	90	7
57	98	1
90	153	4
12	12	1
91	92	2
154	157	2
68	70	7
5	6	2
37	37	3
134	134	3
132	132	4
99	99	3
66	66	8
158	158	2
146	147	3
88	89	1
148	148	1
118	118	3
152	152	7
39	45	3
128	128	9
39	39	5
114	116	2
10	19	2
76	115	1
42	135	1
156	156	4
101	101	1
8	8	2
22	22	6
170	170	2
165	165	1
25	25	2
38	43	1
79	104	3
64	64	2
169	170	2
96	97	1
0	0	1
15	15	1
141	141	2
91	91	3
20	21	1
111	112	1
108	108	2
114	114	6
85	85	5
68	69	2
106	114	2
5	17	1
12	14	1
53	55	1
13	19	1
27	27	4
105	115	2
24	24	3
136	136	4
10	10	2
110	110	1
147	147	2
83	83	1
112	112	4
50	100	4
123	123	1
23	23	3
74	74	2
35	36	1
85	86	2
118	122	1
103	110	2
46	99	1
145	146	3
6	6	2
7	7	3
97	97	2
4	4	1
9	9	2
71	89	1
16	16	2
115	115	1
11	11	4
33	33	1
90	152	1
144	168	1
72	72	2
71	92	1
168	170	1
149	149	1
84	84	4
52	143	1
86	86	1
44	46	1
76	76	1
145	164	1
40	47	1
74	109	2
56	58	1
18	18	1
155	156	2
45	45	1
47	52	1
123	125	1
109	109	1
137	137	2
106	107	1
83	85	1
113	114	1
100	100	1
8	9	1
167	168	1
11	17	1
135	135	1
