28	28	9
98	98	9
149	149	5
135	136	5
92	92	6
137	138	8
120	120	9
121	127	1
119	120	7
119	121	1
33	117	2
139	142	3
135	135	7
73	73	12
77	79	2
92	119	2
155	155	4
45	49	1
134	134	4
152	153	4
14	14	6
39	39	6
21	21	9
55	64	1
104	127	4
24	24	9
124	124	9
4	5	3
38	42	3
109	109	2
6	6	3
107	108	1
15	20	1
89	124	1
150	150	13
119	131	5
50	52	4
89	103	2
104	104	4
46	46	18
93	93	12
119	119	7
120	121	1
9	9	12
3	3	4
143	143	1
153	153	8
128	128	2
133	133	2
45	45	4
6	12	3
106	107	4
23	24	4
41	41	7
40	44	3
56	57	2
120	137	2
67	67	9
15	15	3
66	78	3
66	66	4
99	99	9
34	85	1
110	111	5
108	108	6
80	80	8
90	91	11
22	22	7
101	101	5
158	159	2
145	147	3
53	53	2
29	29	6
115	127	1
94	98	4
68	68	12
132	132	7
147	147	4
113	114	12
63	63	4
137	146	1
114	114	3
87	95	5
156	156	10
35	35	7
125	126	3
33	33	6
83	83	6
136	136	10
98	99	2
155	156	18
31	31	13
16	16	4
157	157	9
88	102	4
90	90	4
10	108	1
87	87	2
151	151	6
49	51	3
8	8	7
0	0	5
132	133	4
131	134	1
89	91	2
39	124	2
123	124	2
62	63	3
40	41	6
111	111	4
101	105	4
112	112	6
132	134	4
26	26	7
37	37	6
113	113	5
24	43	2
136	139	6
43	43	5
41	127	1
98	124	3
144	144	10
140	141	6
33	34	6
19	19	2
78	78	10
129	131	2
118	118	3
25	25	6
111	132	1
117	127	2
157	158	5
107	109	1
84	84	11
29	31	4
84	85	7
36	36	7
100	157	2
81	81	6
7	46	1
41	42	2
100	100	2
53	54	3
142	145	2
146	146	9
49	50	3
154	154	9
52	54	2
10	109	1
68	70	2
31	50	1
148	149	1
22	107	2
32	39	3
134	135	3
143	144	4
69	69	3
27	39	2
83	96	1
19	22	2
97	97	8
67	68	5
17	18	3
126	126	4
80	82	2
136	137	4
104	110	1
108	109	2
125	125	2
42	42	9
12	12	7
101	108	2
113	115	3
122	123	2
71	71	4
50	50	10
158	158	6
86	118	2
82	82	4
22	124	2
65	78	2
122	122	1
129	129	8
22	42	1
9	10	2
12	17	1
113	116	2
148	148	2
57	57	7
116	116	2
18	18	7
145	145	6
108	110	2
134	138	2
141	141	9
10	32	2
5	105	2
38	38	3
88	89	6
131	132	3
89	89	3
52	53	1
105	107	1
124	125	3
77	77	5
145	146	2
21	22	5
133	134	1
72	72	1
34	52	4
102	102	6
75	75	2
115	117	1
45	46	2
4	44	2
30	30	9
144	145	4
4	4	7
123	123	5
39	40	1
117	118	2
42	43	1
3	5	4
31	38	1
44	44	4
97	118	1
115	115	2
109	111	1
41	104	1
117	117	6
88	88	5
138	138	3
83	84	1
110	110	3
99	102	1
152	152	3
85	86	2
88	91	3
131	131	3
48	50	3
10	10	4
52	52	1
105	113	1
36	125	1
113	155	1
16	116	2
96	96	3
20	21	2
66	67	2
140	140	2
83	85	1
142	142	2
86	86	1
44	47	2
63	64	1
54	54	2
44	46	1
15	16	2
50	54	2
153	154	3
21	34	3
116	137	1
23	23	4
9	82	3
5	66	1
27	28	5
139	139	3
28	56	1
128	131	4
98	116	1
82	83	3
149	150	2
50	51	1
114	115	1
52	80	3
81	82	2
95	97	1
8	11	1
111	121	1
87	119	1
130	130	1
21	43	1
22	25	1
20	20	7
78	79	2
88	97	2
32	33	1
5	5	6
18	22	3
144	146	1
6	110	1
7	8	1
51	51	3
37	38	3
2	2	1
113	121	2
27	52	1
127	128	1
94	94	5
104	121	1
51	65	1
105	105	5
112	113	2
93	97	2
72	77	1
77	80	1
11	17	2
33	57	1
86	90	1
26	27	1
34	35	2
28	29	1
30	37	2
117	119	1
18	19	3
77	95	1
35	124	1
55	56	3
57	64	1
111	112	1
11	12	2
146	149	1
108	111	1
56	56	2
1	1	2
23	25	1
54	55	1
24	53	2
84	103	1
7	45	1
83	101	2
104	105	1
93	98	1
12	13	1
66	68	2
31	32	1
106	111	1
131	139	1
64	64	2
121	121	1
109	110	1
8	9	1
6	45	1
146	147	1
88	103	1
12	21	1
40	40	2
34	57	1
134	139	1
107	107	1
94	95	1
14	16	1
110	113	1
115	144	1
27	27	1
65	65	2
3	24	1
116	117	1
4	24	1
144	147	2
127	132	1
34	78	1
22	32	1
31	124	1
