15	15	11
53	53	4
52	52	5
102	102	3
10	11	5
27	27	7
100	100	1
152	155	2
154	154	8
176	176	13
10	10	13
76	79	5
26	28	6
43	44	5
20	20	10
30	30	12
54	56	7
81	81	4
35	36	7
93	103	1
40	40	14
71	71	5
28	28	7
127	137	3
161	161	7
11	12	9
50	55	4
180	180	3
54	134	3
44	44	2
92	93	2
126	126	4
17	19	1
45	46	1
1	11	5
18	18	10
87	87	6
53	54	4
42	45	4
11	11	10
154	155	5
84	85	4
16	16	17
31	31	6
150	150	9
24	24	10
57	58	1
147	147	4
6	6	19
105	106	6
145	145	6
5	5	18
21	21	5
81	82	2
164	164	6
81	99	4
157	173	1
138	138	6
121	121	4
15	16	8
36	36	3
163	164	5
137	138	3
116	116	7
26	36	3
0	2	1
6	12	2
128	129	2
128	130	3
150	157	5
38	38	13
173	173	11
105	105	2
26	27	3
165	165	3
113	115	5
77	78	5
54	54	5
57	61	4
127	128	5
104	105	5
13	13	6
2	2	7
119	120	2
37	37	17
125	128	2
97	98	3
142	143	9
23	25	2
54	55	1
29	29	15
61	61	4
2	4	3
45	45	19
14	15	4
88	88	3
115	133	1
140	141	3
18	41	1
78	82	1
27	28	4
7	40	1
125	125	5
51	51	9
169	169	12
101	121	3
146	146	5
19	20	5
34	34	8
16	28	3
9	12	3
109	109	6
149	163	1
141	143	4
32	32	8
127	127	3
1	1	8
177	179	1
171	171	9
32	33	11
103	108	1
22	29	4
141	141	7
158	158	2
115	115	5
35	35	6
99	99	4
41	42	3
19	19	6
56	57	2
172	172	5
171	172	9
50	50	7
108	108	3
33	34	3
8	11	1
10	16	5
91	92	8
68	68	8
8	8	9
92	92	9
129	129	9
49	49	2
40	41	5
153	153	23
148	148	7
179	180	2
131	131	6
91	91	1
155	156	4
29	30	1
7	7	8
80	82	2
151	151	15
27	31	4
23	23	5
13	14	2
5	43	2
25	25	12
4	4	12
106	107	2
29	32	1
165	168	1
31	33	5
84	89	2
35	38	5
110	115	1
76	76	1
79	79	8
135	135	1
31	43	3
142	142	5
25	27	3
114	114	2
86	86	3
152	152	6
59	62	3
94	95	5
55	55	4
11	147	4
2	3	3
76	78	1
175	175	3
9	9	3
119	122	1
140	140	3
16	42	1
0	14	1
12	12	7
22	27	5
121	132	2
0	1	10
6	41	2
10	176	4
5	12	4
1	2	5
24	29	1
99	100	3
6	7	3
32	35	4
80	81	2
40	43	2
17	17	12
39	40	9
101	102	4
113	113	10
178	178	4
20	21	1
41	41	5
154	156	2
156	156	7
50	51	2
10	12	2
130	131	3
16	18	9
0	0	6
147	148	2
22	22	10
120	120	4
93	93	1
33	42	2
14	14	9
150	152	2
75	76	2
170	170	8
106	138	1
162	162	3
94	94	3
93	94	1
64	64	3
18	33	3
155	155	3
67	98	2
39	39	5
21	31	1
7	9	1
111	111	4
82	84	1
117	117	4
164	165	1
150	151	5
37	38	4
57	57	4
8	9	6
21	32	3
78	78	5
9	18	2
120	132	1
72	74	2
75	75	2
3	15	3
30	31	3
112	112	3
163	175	3
96	96	1
14	16	4
143	145	4
147	175	1
167	167	3
101	126	1
147	157	3
4	5	3
12	22	5
85	85	4
10	18	2
97	97	1
42	42	2
103	125	2
143	143	5
66	113	2
84	84	1
86	89	4
34	38	3
65	116	1
14	56	2
58	58	2
123	123	7
5	6	2
131	132	1
140	178	1
67	67	6
11	13	1
3	3	4
80	80	8
117	118	1
67	75	4
148	149	1
123	125	4
95	95	2
56	59	3
7	8	2
22	24	1
166	166	1
110	110	2
43	43	4
18	24	1
14	18	2
146	156	2
59	59	4
170	171	1
3	4	3
17	22	1
83	83	6
97	107	3
37	41	2
144	145	2
137	137	3
174	174	3
142	145	1
143	144	2
165	166	2
139	139	2
179	179	1
90	91	1
87	88	2
113	114	2
49	50	1
22	23	2
36	37	1
5	7	1
3	13	1
89	89	1
144	144	2
133	134	5
23	26	2
10	14	1
132	132	2
134	159	2
129	144	2
118	118	1
28	29	1
17	33	1
121	122	2
65	133	1
66	132	1
149	149	3
141	142	4
177	177	2
168	168	1
172	173	1
15	18	1
103	103	1
145	146	1
158	159	1
26	26	3
160	162	3
124	128	2
129	130	1
96	97	3
178	180	1
3	38	1
24	25	1
60	61	1
60	60	1
172	175	1
95	96	1
177	178	1
163	163	3
74	74	1
38	43	3
42	43	2
135	136	1
130	130	1
160	160	2
90	90	2
66	66	2
153	155	1
32	36	1
114	115	1
18	52	1
100	102	1
124	124	2
24	26	1
17	18	1
100	105	1
108	109	2
29	31	1
94	96	1
33	33	2
77	77	1
57	59	1
176	177	1
89	90	2
101	101	2
12	44	3
65	65	4
174	178	1
168	169	1
32	44	1
115	116	1
151	163	1
6	159	1
102	108	1
56	56	1
9	17	1
107	109	1
68	74	1
26	33	1
51	114	1
74	75	1
149	151	1
31	32	1
44	45	1
119	119	2
139	140	1
12	68	1
96	98	1
133	133	1
72	77	1
