20	20	8
29	29	7
50	50	3
131	134	4
57	57	4
22	23	3
55	55	8
113	113	2
4	4	3
32	32	4
115	115	8
9	124	2
149	149	1
147	148	3
13	13	7
27	27	5
95	97	1
137	137	4
57	58	1
5	5	1
145	145	5
97	100	2
123	123	4
49	49	2
104	105	2
17	18	3
49	50	4
127	127	2
13	18	1
51	51	4
121	122	1
71	71	2
97	103	2
6	6	3
41	49	1
90	92	3
124	137	2
120	120	4
41	41	3
31	31	3
92	92	4
48	49	1
111	112	2
23	23	5
139	139	2
19	19	1
142	144	3
66	66	5
53	53	3
100	100	1
122	123	2
147	147	3
13	14	2
109	113	1
37	37	7
3	3	2
12	12	1
77	77	1
15	63	1
97	98	3
48	48	4
150	151	2
118	118	1
17	17	2
87	87	1
42	42	2
47	47	2
33	33	3
45	45	4
143	144	1
44	44	2
16	31	1
125	125	1
17	19	2
81	81	4
151	152	1
52	55	1
6	7	5
86	86	4
40	44	1
63	83	1
145	146	1
98	99	2
67	67	5
74	74	2
104	115	1
64	64	3
10	26	4
3	11	2
139	142	3
39	40	1
102	102	1
94	94	2
141	141	2
138	138	2
76	79	2
78	79	1
18	18	5
54	57	3
11	11	4
76	76	4
64	66	2
35	35	3
58	58	2
69	70	4
38	38	5
106	106	4
93	94	1
65	65	2
85	85	3
83	83	4
104	104	2
81	82	2
24	24	2
68	68	3
51	55	1
62	65	1
82	82	1
26	30	2
122	122	1
67	68	1
82	84	1
62	83	2
10	11	1
126	134	2
54	55	2
123	124	1
26	26	2
96	137	2
87	93	2
79	79	2
78	78	2
132	133	3
62	64	1
70	70	1
129	129	2
110	113	3
114	114	1
127	128	2
33	36	3
85	125	1
144	144	2
142	142	2
106	107	1
8	8	2
117	117	1
112	113	1
36	36	1
16	32	2
44	47	1
41	42	1
15	15	1
109	109	1
18	36	1
16	18	1
64	67	2
125	135	1
31	32	1
12	28	1
114	124	1
4	5	2
12	24	1
11	27	1
3	12	1
107	107	1
83	84	2
30	31	1
110	119	1
46	46	1
103	104	1
55	56	1
144	145	3
62	62	2
20	21	1
43	45	1
90	93	1
148	148	1
32	33	1
93	93	1
52	74	1
128	128	1
13	15	1
65	79	1
34	35	1
136	136	1
133	133	1
39	39	1
28	29	1
42	49	1
11	25	1
146	146	1
14	22	2
34	34	1
