51	51	11
70	70	10
29	32	2
45	47	3
49	49	5
91	92	5
87	88	6
88	89	6
38	61	2
67	68	5
87	87	17
56	56	22
62	62	14
64	65	1
63	63	29
52	52	12
72	72	11
86	101	2
92	93	5
71	71	9
42	42	16
63	77	4
99	99	14
100	100	16
78	78	19
38	38	10
79	79	15
81	81	4
27	27	17
35	35	2
77	77	18
41	41	11
45	67	1
60	84	1
59	59	5
60	60	16
86	86	12
49	56	1
48	48	9
90	90	13
89	89	8
36	36	3
45	45	6
91	91	18
45	68	8
69	69	22
83	93	3
51	100	5
88	88	19
97	98	4
36	38	2
80	80	5
55	55	8
95	95	23
45	78	3
82	93	1
23	23	3
70	101	6
71	73	7
50	50	4
38	62	3
98	98	18
47	47	11
34	34	3
93	94	8
61	61	8
92	92	14
57	62	6
76	76	16
37	37	7
57	59	2
57	57	17
65	65	12
46	47	3
51	71	2
94	94	12
38	39	3
53	94	6
33	38	6
96	96	9
101	101	14
74	75	8
98	99	3
49	52	2
42	43	4
54	54	11
60	64	1
58	59	3
50	51	7
84	92	1
66	66	11
74	74	3
43	43	8
31	44	1
80	88	4
51	68	2
37	38	11
41	65	3
100	102	7
73	101	1
25	26	4
45	91	5
40	40	11
29	33	3
80	81	9
79	81	4
65	66	2
26	26	7
43	74	5
56	57	3
47	49	2
31	33	2
84	84	6
79	80	4
31	31	10
41	44	1
87	89	2
42	65	2
23	36	1
93	95	4
55	56	2
48	61	3
42	66	3
76	77	1
89	92	3
67	67	18
49	60	3
33	33	6
68	68	12
33	94	2
53	53	15
20	20	1
97	97	16
94	95	7
30	37	2
77	78	3
79	85	2
85	86	6
43	44	3
60	83	1
47	48	3
39	39	8
52	53	3
96	99	2
93	93	5
70	71	1
71	72	5
60	61	4
45	72	2
93	99	2
53	54	1
58	73	2
95	97	1
89	93	6
81	86	2
64	64	13
70	72	6
97	99	2
38	71	3
99	100	6
79	84	3
35	36	8
31	32	1
53	61	1
48	63	1
54	55	6
61	87	1
68	69	5
92	95	1
25	25	7
28	28	2
67	85	1
45	92	2
86	88	5
96	97	7
29	29	2
53	96	4
41	42	2
61	88	1
26	36	1
75	76	3
95	96	4
31	73	3
55	60	1
75	75	8
59	60	5
35	38	2
29	47	2
20	24	1
24	24	4
83	101	2
93	101	1
90	91	3
64	75	2
35	95	4
84	93	4
85	85	3
45	70	2
44	44	4
26	47	1
26	28	1
58	58	7
49	50	9
31	34	5
32	32	3
88	93	2
80	92	3
49	55	2
29	31	1
83	83	1
52	89	1
30	30	1
44	45	3
89	101	2
74	78	1
87	94	1
60	72	1
22	22	5
68	96	1
70	77	1
46	46	7
80	83	3
51	87	3
24	53	1
38	70	2
72	73	4
23	26	3
67	78	2
60	79	2
51	94	1
51	52	2
51	93	1
26	46	1
58	77	1
82	82	4
84	102	2
95	98	2
33	61	1
32	37	2
52	101	1
26	27	2
86	92	1
55	62	2
44	91	1
84	101	1
54	93	1
84	85	1
73	73	3
53	95	4
41	63	1
35	39	1
33	96	2
84	87	2
61	62	1
48	49	2
52	57	1
95	99	3
37	43	1
83	88	1
82	99	1
63	64	2
72	76	2
57	73	1
22	23	2
99	101	2
83	86	1
59	72	1
55	57	1
47	53	1
44	76	1
59	66	1
30	31	1
66	70	1
62	63	1
81	85	1
90	101	1
52	67	1
69	70	1
67	76	1
24	26	1
40	64	1
49	69	1
