64	67	3
77	77	10
51	51	11
60	60	10
95	106	3
81	81	7
28	45	2
38	39	4
92	92	7
88	91	1
86	86	2
55	55	5
81	95	2
91	97	1
52	53	5
44	44	4
81	88	3
26	26	2
22	61	2
20	69	3
23	23	4
104	104	3
58	58	12
82	83	4
34	34	6
55	57	3
61	85	3
91	91	7
76	76	4
59	59	20
78	78	9
52	87	1
101	101	22
62	62	8
41	45	3
32	34	2
65	65	5
33	33	9
102	102	5
92	93	5
98	99	6
66	66	3
20	27	1
64	64	4
35	35	4
69	69	3
48	48	5
47	47	3
106	106	5
72	72	7
21	29	4
63	63	6
86	87	4
89	89	9
90	91	1
53	53	3
29	29	6
23	24	7
92	94	1
94	94	4
101	102	6
95	100	3
65	66	4
98	98	9
84	86	1
50	55	3
74	74	1
52	52	5
22	23	2
31	31	11
54	54	4
54	76	4
63	66	5
103	103	15
101	103	1
63	82	1
37	37	3
71	73	5
75	75	9
40	41	4
71	71	5
99	99	4
46	46	7
105	105	3
68	72	4
80	95	1
68	75	2
57	67	4
26	40	3
22	22	5
96	96	17
49	49	5
66	88	1
42	45	3
24	31	2
26	27	3
62	63	4
30	30	6
87	87	3
67	67	6
57	58	2
89	90	5
39	39	4
88	88	4
72	77	1
64	72	2
19	20	2
56	56	3
85	86	2
95	95	8
78	79	1
37	38	3
70	70	6
54	55	1
57	57	4
65	80	1
84	87	1
21	21	4
32	32	4
25	41	1
45	45	4
22	60	1
91	100	5
82	97	3
41	44	3
34	36	2
77	78	1
71	72	1
21	31	2
22	62	1
50	80	1
88	90	2
43	43	3
85	85	1
80	80	5
25	26	6
93	93	1
29	30	1
75	94	1
72	73	4
89	93	3
57	61	1
55	88	2
104	105	1
102	104	2
25	25	1
52	78	3
47	49	2
90	90	1
44	73	1
73	73	2
21	25	2
22	44	1
92	95	1
39	42	1
28	28	4
84	84	2
92	97	1
78	86	1
83	87	1
67	68	2
44	48	1
67	72	1
37	45	1
41	41	6
31	37	1
95	96	2
38	38	5
75	76	1
80	81	2
33	34	3
30	32	1
51	87	1
49	50	2
84	85	1
30	31	1
64	66	3
76	77	1
57	59	4
54	65	1
96	99	1
46	47	1
100	101	1
97	97	6
68	68	3
56	65	1
36	66	1
79	79	1
66	90	1
24	52	4
45	48	1
35	64	1
54	88	1
27	27	2
39	66	3
38	63	2
97	98	1
61	61	2
27	28	1
39	40	4
27	30	2
66	76	1
40	40	1
25	40	1
68	69	3
59	66	2
30	49	1
82	82	1
29	49	1
72	83	2
79	83	3
58	63	2
20	20	1
20	39	1
50	54	1
82	86	1
42	49	1
56	58	4
55	56	1
100	100	2
30	41	2
96	98	1
69	70	2
40	43	1
20	23	1
55	61	1
24	28	1
24	24	1
34	35	1
50	50	4
29	35	1
69	71	2
20	26	1
23	51	2
55	60	1
27	42	1
93	94	1
36	39	1
54	93	1
63	65	1
