2	2	3
138	138	1
79	98	3
111	111	5
27	90	1
134	134	8
123	125	2
16	16	10
103	103	5
70	70	5
16	19	7
72	72	10
96	96	9
81	81	4
134	136	1
145	145	15
90	90	15
46	46	9
14	14	12
1	2	4
150	170	2
86	87	3
26	26	17
113	115	4
139	139	5
4	4	19
142	170	1
53	54	5
8	8	5
20	21	9
161	163	2
129	131	2
79	99	4
86	86	6
139	140	9
146	146	3
119	122	2
136	141	1
167	168	5
50	50	8
108	108	8
75	87	2
136	137	6
88	88	16
39	39	5
87	87	7
54	54	9
65	65	4
105	106	3
98	116	3
71	71	4
66	67	2
85	86	4
160	160	5
3	3	16
100	100	6
95	96	4
4	5	6
115	144	3
119	121	1
48	48	13
75	109	4
16	90	2
92	94	2
115	115	10
14	16	1
42	42	10
48	49	3
108	110	2
75	75	6
91	91	6
53	65	2
163	164	2
101	101	7
153	156	4
20	24	3
82	82	6
68	71	6
142	142	7
162	162	9
53	53	14
155	156	4
22	23	5
25	25	13
154	156	2
118	162	3
17	17	7
80	95	8
142	143	6
92	92	8
125	163	2
40	40	1
94	94	9
133	133	6
76	78	3
167	167	5
125	125	6
21	81	1
41	41	4
11	11	13
82	83	4
143	143	13
84	106	5
51	51	7
109	110	5
112	113	6
147	148	2
8	15	3
127	127	7
164	164	5
5	5	12
78	79	10
44	47	1
114	117	1
129	129	11
81	116	4
112	112	14
49	49	19
6	6	12
79	79	4
105	119	4
143	148	6
131	131	6
88	89	4
36	36	11
148	149	5
6	149	3
66	66	6
78	78	4
14	15	3
53	55	1
92	93	2
42	43	5
12	12	16
136	136	4
130	130	10
12	14	3
104	117	3
156	156	8
67	67	1
1	1	7
79	83	2
57	57	4
106	106	16
37	37	6
84	85	1
105	105	11
24	24	4
47	47	9
85	85	4
70	71	4
149	149	5
165	169	4
166	166	5
124	127	2
114	115	3
34	34	13
27	52	2
168	169	4
21	23	3
164	166	10
161	162	1
110	155	1
153	155	4
19	24	2
87	90	3
151	152	3
121	161	1
153	154	8
132	133	3
116	116	4
154	154	3
19	41	1
101	116	1
152	152	6
43	43	13
164	165	1
78	109	1
92	101	1
120	120	10
128	129	9
83	83	4
24	47	8
44	44	6
98	134	3
77	81	2
35	35	4
22	22	5
110	112	2
46	47	3
165	165	4
47	48	8
98	98	5
97	98	4
16	24	1
71	76	1
10	11	2
90	99	2
144	144	6
120	121	7
70	87	1
5	9	4
62	62	1
71	130	3
110	110	7
22	40	1
75	129	4
155	155	4
124	162	2
90	91	8
76	76	10
89	90	2
137	140	1
55	55	6
38	39	2
121	123	2
73	73	3
113	113	3
54	55	1
15	49	3
44	45	3
0	0	6
64	64	6
14	18	2
164	167	6
38	38	8
114	114	8
0	1	5
20	20	1
78	133	2
21	21	5
132	132	5
87	88	1
23	39	1
99	99	7
113	114	8
156	157	3
127	129	3
158	158	4
97	97	7
13	13	11
37	41	2
104	104	4
38	44	3
26	27	1
150	167	1
35	36	2
52	52	2
115	123	1
23	23	3
19	19	3
79	80	2
62	63	4
123	151	3
0	2	3
36	37	1
16	18	1
135	136	1
152	154	2
18	18	10
80	85	2
45	45	7
9	9	4
135	135	3
77	79	1
106	107	3
126	126	5
35	37	2
69	69	11
146	147	2
11	13	1
119	119	2
18	19	3
76	77	2
113	155	2
134	138	2
159	159	3
49	85	1
123	123	7
145	148	3
108	112	1
63	94	2
80	81	4
24	25	1
18	42	1
8	9	2
101	105	1
69	79	1
89	89	5
124	154	4
124	124	3
46	48	1
56	56	1
137	137	8
78	99	1
33	33	4
74	74	6
140	140	7
19	40	1
134	135	2
92	98	2
77	78	4
72	89	5
37	38	2
141	141	4
93	93	9
115	166	3
165	170	1
41	51	2
93	97	2
48	69	1
104	105	3
77	77	1
153	153	6
85	95	2
76	79	2
123	161	3
8	10	1
91	93	1
148	148	2
39	40	1
156	162	1
46	68	1
75	76	2
84	86	1
85	87	1
126	151	1
163	163	8
94	104	4
144	148	4
16	92	1
23	48	1
11	12	6
67	71	3
48	81	1
101	102	2
57	62	1
18	20	2
120	122	5
46	50	1
82	84	2
17	18	4
157	157	7
121	121	2
68	68	1
86	88	1
116	146	3
7	10	2
7	7	10
67	68	2
6	7	1
77	80	1
88	90	1
65	107	4
169	169	1
27	27	1
7	8	2
107	108	2
80	102	1
16	97	2
118	119	1
124	153	2
126	127	1
43	45	2
28	51	2
55	67	1
47	49	2
10	10	6
75	88	1
120	154	1
6	9	3
12	15	4
118	166	3
97	99	2
41	74	4
71	72	2
168	168	3
80	80	4
39	51	1
49	51	1
9	14	3
67	72	2
142	169	3
169	170	2
103	104	2
166	167	1
65	68	1
90	104	1
150	160	1
74	133	1
105	115	2
22	24	1
106	116	1
116	118	1
135	138	1
15	15	3
21	41	1
170	170	1
145	146	1
123	124	1
34	35	2
151	151	3
23	24	1
21	39	1
81	95	1
162	163	1
47	93	2
107	107	1
161	161	5
149	169	1
9	13	1
15	51	1
153	167	1
18	43	1
119	163	1
78	81	1
125	126	1
91	94	1
109	109	1
119	167	2
95	95	2
9	10	1
71	83	1
75	128	1
93	104	2
137	149	3
39	41	1
144	145	1
128	128	1
150	150	3
135	137	2
67	70	2
84	84	2
115	117	1
5	6	1
100	103	1
117	118	1
133	134	1
111	113	1
8	16	1
78	131	2
57	58	1
124	152	2
74	129	1
102	102	1
114	116	1
69	70	1
17	50	1
101	113	1
87	96	1
46	85	1
43	44	2
73	129	1
52	53	1
75	80	1
72	73	1
107	143	1
110	114	1
152	153	1
81	83	1
53	68	1
81	82	1
