70	102	5
20	20	6
10	10	10
44	44	10
147	147	6
14	14	16
136	141	2
27	27	10
35	35	10
80	80	20
103	103	3
30	31	4
26	28	5
101	102	2
96	96	14
132	132	5
144	145	4
116	139	5
11	34	7
45	45	13
94	94	9
65	65	11
151	151	4
93	93	3
105	105	7
12	12	4
24	25	4
97	99	4
13	45	4
56	85	1
31	42	1
39	39	21
129	135	5
66	66	10
102	102	13
88	111	3
11	11	8
9	9	12
19	19	14
69	69	9
86	86	2
79	96	5
87	91	6
65	108	2
39	40	11
76	76	7
129	129	9
49	53	5
85	85	15
69	84	6
30	38	5
8	8	11
95	95	4
111	111	9
25	25	13
70	70	10
50	75	1
124	133	2
104	145	4
100	100	11
94	95	1
73	73	12
4	5	3
56	56	6
47	153	3
47	47	9
44	48	2
16	57	3
4	7	2
118	129	2
68	68	8
145	145	4
72	74	2
137	144	6
65	66	6
55	55	4
22	22	18
119	121	2
143	143	7
31	31	13
115	139	2
99	99	9
137	137	17
72	72	6
98	105	2
141	141	6
15	15	10
8	9	2
38	38	6
34	39	1
74	85	2
106	107	8
58	73	6
82	83	5
17	17	12
126	133	2
48	53	2
126	126	7
118	118	6
29	30	2
136	136	6
98	99	3
119	119	3
10	19	6
50	51	10
50	50	11
92	92	4
63	69	7
8	24	3
82	82	7
75	76	4
55	57	1
123	137	3
88	88	2
35	36	7
47	152	1
27	29	5
56	57	6
65	78	1
43	43	3
28	34	3
5	6	1
131	131	5
85	86	1
77	78	6
13	14	6
63	150	5
22	23	9
48	48	6
62	62	1
88	92	1
138	138	4
84	84	8
128	144	2
46	46	8
83	85	2
8	18	4
32	32	16
85	87	1
17	18	5
63	63	13
154	154	6
43	44	3
97	98	2
13	13	11
87	87	12
38	39	7
42	54	4
67	67	12
87	88	6
28	29	4
53	53	3
76	77	2
81	82	6
10	11	11
20	21	7
33	33	2
40	40	3
12	26	2
142	142	2
149	149	4
40	46	2
136	137	3
130	130	11
21	21	12
8	25	3
34	35	5
42	43	5
29	29	5
71	148	3
110	110	2
74	74	6
48	49	6
57	57	8
4	4	4
76	78	1
19	29	9
26	31	5
110	111	3
103	105	2
102	103	2
125	125	14
127	127	1
109	109	3
124	127	1
28	28	7
144	144	7
127	133	2
49	49	5
37	115	3
106	114	1
112	112	6
122	122	7
120	120	5
33	36	1
123	123	4
83	83	9
55	56	2
97	97	4
76	97	3
133	134	4
95	110	5
116	116	12
51	53	1
141	143	5
69	70	7
20	22	4
8	29	2
152	152	3
101	105	3
64	66	3
5	5	5
134	135	3
11	37	1
15	31	4
42	42	8
64	154	2
41	46	3
51	76	2
115	117	1
95	107	1
49	51	3
16	16	8
125	126	5
137	138	6
4	6	1
3	32	1
52	58	3
23	23	6
19	65	2
146	146	5
26	26	10
78	78	4
49	56	3
105	110	2
15	30	2
14	15	3
64	65	1
99	113	3
37	37	10
148	148	6
150	150	5
21	22	3
75	99	1
68	75	3
56	78	2
54	54	10
5	33	1
6	8	2
50	84	4
51	51	2
11	12	5
73	74	1
139	139	3
65	80	1
151	152	2
32	33	2
115	115	4
49	50	2
89	90	1
37	46	1
47	151	2
33	34	1
119	134	2
131	134	3
34	37	2
34	34	1
114	114	7
6	28	1
74	104	3
11	38	2
42	64	2
24	24	1
12	47	1
150	152	2
138	144	1
40	42	3
18	18	14
63	66	3
47	49	2
122	123	3
127	145	3
104	104	4
53	57	4
141	142	2
21	23	5
137	141	1
126	147	2
2	2	3
110	132	3
41	42	2
94	97	6
20	31	3
36	36	4
67	79	2
112	113	1
6	6	1
39	56	4
153	153	6
106	106	5
50	78	3
14	19	2
108	108	2
120	121	2
41	41	1
112	132	4
54	55	4
79	81	1
18	19	2
108	109	1
90	92	3
64	64	3
29	31	1
121	122	2
71	71	11
119	141	1
78	79	4
101	101	3
9	18	3
140	140	2
82	84	3
129	134	2
79	79	5
45	46	4
81	81	2
107	108	1
29	42	1
79	80	1
131	132	2
7	7	4
46	47	2
74	99	5
69	74	2
16	54	2
93	94	4
18	41	3
81	83	1
63	65	1
62	154	2
23	24	3
135	135	5
58	58	2
13	31	1
63	102	1
13	30	2
119	142	1
68	103	3
67	73	1
128	134	1
76	79	1
93	95	1
61	75	1
75	75	2
32	39	1
75	77	1
62	64	3
3	3	1
12	34	2
5	7	1
126	127	1
128	145	1
40	41	1
38	86	2
5	27	2
96	98	2
98	100	1
120	124	2
10	40	1
63	75	1
53	54	1
101	103	1
53	56	1
43	57	1
68	97	1
128	128	2
36	39	1
135	143	1
50	57	1
6	7	1
98	113	1
146	148	3
99	114	1
113	113	2
31	38	1
73	147	2
39	87	1
38	92	1
8	26	1
95	96	2
16	30	1
12	13	1
68	70	3
68	69	2
138	145	1
26	29	1
83	84	2
63	64	1
97	101	2
14	42	1
117	117	1
12	28	1
13	17	1
56	58	1
30	30	1
34	36	1
