47	48	6
20	20	2
46	46	9
100	100	4
65	65	28
46	88	1
99	99	14
69	69	9
67	67	7
40	41	3
36	36	6
90	90	13
46	50	4
73	73	23
98	100	6
41	41	11
22	22	4
48	48	4
78	78	23
74	74	10
33	33	6
29	29	1
35	35	5
80	80	5
33	70	5
95	95	10
70	70	10
44	44	12
24	26	10
23	23	1
43	65	3
75	77	7
71	78	2
46	53	3
57	57	10
25	25	5
29	89	2
63	63	12
96	97	9
49	56	2
55	61	6
50	50	13
59	60	8
56	56	12
57	61	6
60	60	21
31	31	8
29	33	4
40	40	7
57	63	8
67	68	8
95	96	3
48	49	6
89	92	3
84	88	4
42	42	10
88	88	10
20	82	1
51	91	4
47	53	5
77	77	12
20	88	2
79	79	8
86	86	8
37	38	1
84	84	4
91	91	11
23	44	3
32	48	2
44	45	4
96	101	4
43	43	15
85	86	5
86	88	6
82	82	8
66	66	11
53	54	2
83	83	7
52	52	12
58	79	2
48	52	2
86	89	3
54	54	9
23	24	2
99	100	3
76	76	5
21	81	1
81	81	6
58	58	7
72	72	14
75	75	6
75	76	1
46	55	1
71	72	10
49	49	4
67	70	2
48	55	1
74	78	1
98	98	5
91	92	4
101	101	10
37	37	5
97	98	2
54	63	1
94	100	2
22	100	1
34	40	2
51	89	3
27	27	2
61	62	3
68	69	2
50	57	1
93	94	4
71	71	9
66	86	2
61	61	6
98	101	3
22	94	1
26	29	1
74	75	2
90	100	2
56	57	3
59	91	2
53	53	9
57	58	5
38	38	6
22	84	4
58	59	3
67	71	4
23	100	1
52	102	3
93	93	3
30	30	4
68	68	4
59	59	7
95	97	4
85	85	5
39	51	1
51	59	2
67	90	2
54	55	4
78	79	2
51	90	3
64	64	10
81	87	3
52	53	2
77	78	4
69	71	4
24	47	1
41	64	2
24	25	5
81	84	2
32	32	4
45	85	2
39	40	4
20	26	1
89	89	4
20	47	1
72	73	1
62	63	2
53	92	1
92	92	7
48	58	2
46	47	2
84	93	1
74	79	1
47	47	5
44	62	5
28	28	3
80	83	1
68	70	1
51	51	3
40	48	1
87	87	2
55	55	2
26	28	1
51	58	1
32	34	2
69	70	2
97	101	1
90	91	3
94	95	3
61	92	1
39	39	6
41	42	2
35	37	3
26	26	2
46	99	2
94	98	2
25	26	1
87	93	1
83	96	1
66	67	5
42	64	2
41	90	3
41	80	1
72	101	1
96	98	1
42	44	1
91	93	1
83	93	2
22	81	2
79	80	2
58	78	2
48	79	1
62	62	1
34	34	2
44	101	1
84	87	1
68	101	1
29	91	2
43	44	2
24	24	2
94	101	1
99	101	1
97	97	2
52	62	2
76	77	1
23	26	1
57	59	1
94	94	1
61	88	1
87	88	1
70	102	1
37	46	1
30	89	1
80	81	1
49	53	1
82	84	1
49	91	1
24	27	1
29	31	1
