11	12	1
108	149	2
55	57	4
83	84	1
151	151	7
180	180	2
114	114	3
91	91	4
28	28	6
147	148	2
150	150	7
183	183	3
134	149	3
92	94	3
29	30	1
52	58	2
33	33	1
182	190	1
142	142	2
5	5	3
10	12	1
89	92	5
67	77	3
34	34	3
99	99	3
147	147	5
14	14	4
108	108	4
31	34	2
85	117	2
68	68	3
136	137	7
143	143	2
106	108	1
80	80	2
54	55	6
132	132	3
98	130	1
44	44	2
54	59	1
100	100	1
23	38	4
75	75	6
101	101	3
41	41	8
31	35	3
90	90	4
29	29	5
15	15	6
121	122	6
30	31	1
19	20	4
119	123	4
39	39	4
135	135	2
61	61	5
166	167	1
154	154	6
61	64	2
165	165	5
177	179	2
24	24	2
140	141	1
82	117	4
54	67	3
137	137	9
59	60	4
85	85	3
25	25	3
131	133	3
118	118	4
160	164	3
173	174	3
71	72	3
24	31	4
92	108	1
95	95	3
54	56	3
81	81	2
11	13	1
88	101	4
89	90	3
64	64	2
125	126	3
152	152	3
23	30	4
153	153	4
14	48	3
139	139	3
104	104	1
58	59	4
88	90	3
6	7	3
139	146	1
161	162	1
102	102	1
42	42	4
31	31	2
181	181	4
100	101	2
109	109	1
112	112	1
91	101	1
85	94	3
25	41	1
87	87	1
68	78	2
30	30	2
46	47	2
156	157	1
26	26	1
40	40	9
23	23	4
60	63	3
12	20	1
6	6	2
130	130	2
169	169	1
89	93	1
56	56	3
78	78	1
94	95	2
3	5	3
98	131	1
84	84	2
32	34	2
76	77	1
46	46	1
148	152	2
133	133	1
120	120	3
77	77	2
9	9	1
65	65	3
110	111	3
102	103	2
25	26	3
168	170	1
172	172	1
57	58	2
66	68	4
103	103	2
5	8	1
65	68	2
85	113	1
82	83	2
53	53	3
92	93	5
13	13	1
170	170	5
85	86	1
57	61	3
57	57	1
47	48	2
73	74	1
129	129	2
110	110	1
86	86	1
18	19	3
136	136	1
99	113	1
8	10	2
125	125	1
55	55	1
74	74	2
139	145	3
46	48	1
130	131	1
122	122	4
149	149	3
159	159	1
112	118	1
22	22	1
101	105	2
36	37	1
104	114	1
141	141	3
2	2	2
89	91	1
59	61	1
29	43	2
108	110	2
121	121	2
183	184	1
169	170	4
88	89	3
137	139	1
142	143	1
65	70	1
54	54	2
88	113	1
146	146	2
34	35	2
27	27	1
158	161	1
161	161	3
47	47	1
70	111	1
105	107	1
4	6	1
175	175	1
97	98	1
38	38	1
96	100	2
72	72	1
71	71	1
75	129	1
20	20	1
67	67	2
23	24	1
185	185	3
95	100	1
15	20	3
18	18	1
116	116	2
172	174	1
93	96	2
174	174	2
134	135	1
133	136	1
21	21	1
138	139	1
65	67	1
33	36	3
83	83	3
164	164	1
147	150	1
82	82	1
36	53	1
131	131	1
94	94	1
37	37	1
116	117	1
16	16	1
98	104	2
32	32	1
