116	116	47
219	219	33
182	194	3
33	56	1
165	184	5
225	234	3
82	83	2
94	94	40
93	93	30
199	208	3
66	66	26
4	29	3
53	53	25
174	242	3
184	219	4
27	27	36
211	211	30
11	11	21
5	5	49
92	93	10
246	246	37
243	244	15
10	11	14
41	41	33
172	172	16
115	116	20
55	56	5
71	71	18
95	110	6
244	244	28
18	21	6
76	77	12
245	246	15
151	212	1
39	52	10
192	192	28
77	107	4
118	118	32
230	230	26
35	35	22
77	77	23
150	150	31
227	227	31
31	31	24
48	49	8
117	117	61
24	24	28
174	178	5
177	177	37
199	199	45
24	32	11
86	86	27
3	203	2
210	213	9
91	91	26
23	23	31
42	43	4
185	185	37
175	175	42
221	221	28
212	212	26
34	34	37
205	205	46
180	241	3
75	75	19
206	214	2
109	109	52
93	94	14
156	200	2
32	32	23
178	179	6
114	246	2
156	156	38
160	160	35
228	228	16
80	161	3
236	236	28
98	98	45
210	210	20
180	217	2
241	241	40
199	200	22
229	230	13
204	204	40
49	81	7
229	231	6
22	22	27
188	188	27
4	5	13
90	95	2
238	239	8
112	112	34
220	232	3
26	26	28
183	183	29
54	55	9
190	192	10
79	83	1
20	20	30
114	115	20
15	16	4
9	9	43
240	240	57
92	92	27
12	12	31
173	179	3
247	247	42
153	153	34
230	231	8
220	220	23
156	205	3
69	70	13
10	39	1
189	190	23
120	120	25
30	30	32
201	201	38
236	237	23
59	120	2
163	165	9
17	22	4
180	181	12
200	200	23
179	181	9
117	118	3
214	214	50
37	47	2
78	80	1
67	67	41
47	48	20
167	167	34
162	165	4
116	117	17
107	107	24
78	79	4
162	162	39
245	245	24
49	50	9
21	21	27
239	240	7
76	76	17
39	39	49
90	90	29
235	235	19
206	206	11
57	69	4
217	218	6
72	73	31
63	64	19
163	163	34
30	47	1
242	242	28
91	92	3
197	200	2
237	238	7
149	243	1
197	197	40
159	159	39
8	8	49
175	176	7
208	208	32
1	1	22
162	163	12
104	104	19
151	156	8
160	167	2
165	165	31
50	81	2
169	169	51
212	213	8
215	217	6
93	108	1
86	87	3
73	74	5
58	58	12
173	174	17
101	112	12
184	240	1
193	193	30
43	205	3
249	249	6
42	42	23
38	85	4
46	48	2
237	237	37
81	81	41
23	31	10
56	56	45
154	154	47
99	99	25
106	106	15
216	231	1
15	15	23
165	185	2
79	82	2
184	185	4
70	74	3
44	44	51
146	163	4
169	172	3
160	161	2
59	59	41
186	186	29
52	52	33
95	115	5
3	34	1
158	158	32
161	162	5
213	213	28
205	207	2
7	7	37
16	16	30
168	178	3
193	219	3
170	170	23
146	146	12
169	171	10
183	239	4
87	87	21
225	225	18
29	29	22
2	4	3
168	168	22
38	207	7
193	194	13
203	203	52
171	239	2
2	232	4
60	60	23
97	98	11
37	37	20
150	151	16
55	74	3
40	40	23
83	83	26
211	212	7
0	56	1
110	111	4
166	166	22
39	40	7
18	18	28
57	102	2
104	105	17
32	79	2
187	188	23
119	119	39
9	10	8
215	216	8
68	69	5
67	75	1
181	181	29
164	164	36
188	209	1
243	243	9
201	212	3
229	229	26
209	209	36
42	57	1
103	103	23
178	178	31
215	215	11
179	243	2
119	120	7
227	228	15
94	98	3
108	108	19
105	105	25
51	51	22
55	67	6
95	96	13
216	216	8
163	164	7
179	179	23
169	191	1
97	101	1
173	173	27
43	43	35
24	25	3
111	111	51
183	184	12
62	64	4
106	107	20
202	202	26
161	161	32
183	240	3
113	113	28
146	219	5
62	62	39
105	107	11
21	22	5
84	96	2
213	214	16
184	184	30
68	70	10
217	217	25
176	177	23
38	51	3
6	6	14
182	182	21
95	95	22
89	89	27
55	55	40
180	236	1
211	223	5
224	224	16
33	33	48
176	203	2
196	196	37
175	178	2
102	106	3
60	200	6
84	95	4
27	45	2
83	189	1
226	227	12
177	196	9
54	54	35
101	101	32
153	159	4
110	110	49
9	28	4
221	232	6
39	112	4
240	241	16
37	39	11
28	28	23
1	112	2
65	65	28
69	71	5
88	88	31
103	106	1
115	115	27
155	243	4
146	187	2
239	239	38
112	113	8
195	195	18
233	234	9
45	45	29
90	91	6
57	57	41
49	49	19
53	55	3
120	209	3
114	114	35
182	183	16
69	75	1
97	99	2
48	48	18
218	218	12
174	174	16
167	202	4
60	119	3
27	117	3
73	73	36
49	72	5
34	144	2
34	37	6
118	119	12
149	149	8
36	36	31
121	121	5
183	191	4
2	2	11
233	233	19
111	112	7
17	18	5
174	235	5
198	198	32
164	208	3
147	147	11
22	23	3
194	196	7
31	105	2
207	207	17
0	0	5
100	235	1
185	200	5
190	190	18
35	117	4
178	192	1
118	164	4
53	74	1
79	79	14
0	1	3
66	67	2
201	216	2
107	108	8
196	208	1
226	226	10
157	158	9
61	61	18
191	191	16
87	88	18
46	46	30
159	184	3
74	145	4
35	36	7
113	145	1
17	17	24
60	61	21
193	195	8
101	104	1
152	210	7
72	72	13
154	155	7
235	238	2
47	49	5
157	157	18
62	63	12
19	19	19
10	10	32
80	81	4
169	170	9
52	53	10
3	4	5
37	38	8
158	160	5
195	196	7
227	230	5
172	173	8
119	164	4
29	51	2
222	223	5
164	226	1
88	89	4
156	227	2
155	155	40
61	62	7
222	222	17
81	82	11
180	180	22
161	164	4
60	118	3
79	119	2
152	153	13
40	202	5
30	31	3
78	78	20
214	217	8
187	244	2
181	217	2
156	161	1
152	152	35
194	194	15
166	167	11
113	114	9
47	47	16
82	161	4
61	63	11
110	236	2
18	19	9
81	83	5
245	247	2
12	15	2
57	76	2
27	112	5
170	177	2
160	177	1
167	168	12
3	6	9
63	63	33
171	171	21
4	4	20
158	159	5
95	97	4
200	201	8
164	165	9
231	231	23
187	187	27
201	206	1
204	205	3
97	97	17
158	201	4
157	207	8
59	198	6
34	49	3
228	231	2
216	217	8
102	102	21
101	169	6
51	53	1
243	246	4
75	76	7
53	54	11
10	22	2
242	246	1
161	198	3
59	225	5
42	109	2
159	200	6
174	176	3
185	193	2
238	247	2
57	62	1
102	103	15
185	186	6
95	114	4
37	119	1
177	185	2
10	42	8
221	222	15
190	191	8
113	240	5
108	109	7
176	241	3
223	225	4
194	195	12
3	3	13
32	52	8
180	185	4
115	120	2
38	38	36
46	47	5
209	210	9
76	106	2
210	244	7
89	90	14
162	176	2
223	223	29
222	232	5
99	100	7
16	41	7
183	211	3
151	151	34
144	144	3
36	47	3
220	221	5
157	160	2
179	236	3
57	58	14
236	240	7
13	14	3
32	33	1
33	117	1
192	194	8
19	228	6
201	202	4
7	8	10
31	100	3
41	64	6
10	205	3
167	204	2
43	69	2
84	85	7
225	226	12
78	82	3
160	176	4
50	50	22
31	62	2
56	63	1
192	195	6
181	182	11
172	181	3
191	192	12
76	85	7
203	204	4
100	101	4
84	84	28
98	99	7
48	90	11
242	243	8
159	185	2
96	97	7
32	39	1
12	17	4
209	217	1
58	62	4
210	211	21
145	145	22
170	198	3
104	159	1
86	176	1
2	74	4
64	65	5
172	218	1
100	100	20
176	176	16
178	181	4
232	232	27
240	246	2
76	78	8
85	86	16
80	80	22
34	95	4
48	215	2
176	180	3
36	145	3
177	180	3
163	167	2
57	59	3
68	68	31
3	29	1
157	206	5
34	46	1
84	115	5
185	209	1
16	33	1
14	37	2
64	64	19
11	110	5
70	70	15
177	179	13
38	39	15
231	232	5
248	248	13
197	208	1
23	29	2
180	216	1
69	69	16
85	85	13
204	245	2
197	198	7
194	203	4
44	53	7
26	31	3
44	202	2
115	243	1
175	205	2
203	219	1
34	35	9
156	167	1
74	74	10
38	111	3
36	65	1
23	24	4
8	156	1
174	240	3
199	217	1
206	207	8
183	203	3
32	35	5
185	241	4
15	29	3
202	203	2
166	184	2
108	110	3
216	220	3
181	184	2
149	150	3
180	182	1
170	171	4
19	21	6
10	52	3
8	33	7
26	41	2
10	204	1
156	207	1
242	244	8
185	213	3
201	204	5
1	56	2
183	196	2
14	119	2
219	220	6
145	172	1
29	30	13
157	166	2
88	205	1
39	86	1
14	14	21
35	37	2
3	5	4
232	233	7
42	203	4
36	46	6
6	28	3
234	234	10
0	35	1
232	234	2
196	197	4
96	114	2
238	238	12
100	173	2
28	112	5
117	119	2
78	87	6
171	238	7
176	192	3
229	238	4
237	246	3
180	240	2
16	53	2
166	181	4
41	42	12
150	247	4
46	55	2
58	225	3
94	95	15
185	187	1
159	199	5
222	231	2
54	64	1
108	152	4
167	206	2
28	95	2
82	82	12
160	241	6
101	103	1
69	80	1
170	196	2
182	196	4
83	84	4
104	109	1
189	189	19
60	73	2
96	96	12
186	187	4
50	88	3
160	199	1
33	34	5
85	121	1
65	66	10
179	180	8
190	213	6
244	245	8
11	38	1
40	112	1
52	109	1
181	218	1
44	45	6
38	216	2
89	91	1
38	110	3
59	195	1
153	190	3
20	54	3
70	71	7
46	109	1
77	82	2
6	204	5
192	214	1
207	226	1
171	182	3
168	170	4
22	25	3
79	80	6
58	75	1
27	46	9
103	104	5
47	73	2
212	221	3
51	52	8
224	233	1
76	144	1
46	66	6
178	243	1
119	241	3
190	209	4
115	117	5
185	244	2
16	17	3
168	191	4
121	239	2
29	31	4
67	72	7
22	52	2
40	60	1
42	153	3
153	154	3
93	100	3
156	243	3
153	187	3
185	235	3
14	60	3
48	50	6
15	118	3
170	197	1
94	115	3
47	92	4
93	109	1
198	212	2
192	207	4
204	207	1
56	57	2
9	47	2
69	152	2
7	157	3
74	107	1
32	40	6
17	53	1
18	42	1
33	147	1
54	221	3
31	42	1
90	92	1
76	84	1
198	199	11
35	203	1
50	53	4
202	219	3
7	161	2
239	245	1
210	236	1
49	92	2
164	167	1
4	248	4
40	41	2
167	209	1
33	84	5
26	27	11
185	198	3
218	219	7
145	222	1
156	211	2
228	229	5
50	51	8
207	215	1
201	219	1
174	175	6
18	61	2
178	194	4
119	144	1
37	51	3
187	189	2
185	188	7
188	189	10
168	175	3
213	242	1
221	223	2
88	99	2
9	205	1
201	233	3
224	225	7
196	198	3
57	70	3
41	56	1
45	46	7
166	180	3
48	91	1
177	181	3
32	66	2
30	54	4
57	225	2
162	179	1
184	199	2
96	98	2
8	12	4
245	249	3
82	85	3
107	226	1
43	202	4
186	188	1
182	185	5
164	171	4
12	235	6
109	115	3
5	30	2
165	166	7
83	121	3
167	200	4
80	228	1
237	244	5
155	156	4
147	198	2
230	236	2
63	67	3
99	120	1
60	64	4
168	169	8
177	178	6
3	12	1
21	76	3
98	217	2
196	242	1
181	247	2
90	97	2
170	175	2
175	177	1
227	246	3
223	224	1
233	236	1
40	109	1
23	97	1
188	212	1
11	39	1
20	45	4
20	230	3
94	100	5
79	81	2
246	247	2
146	147	1
112	118	1
201	218	1
159	160	8
184	210	5
1	235	2
38	42	4
208	236	4
239	248	3
41	110	6
19	20	4
166	169	2
50	72	1
64	191	1
44	48	1
97	150	3
4	6	1
71	72	6
1	227	3
154	244	2
55	57	2
164	166	1
9	19	4
77	78	4
74	78	2
14	34	2
184	237	2
1	7	1
151	184	2
1	6	2
244	246	1
42	56	2
173	203	2
77	80	4
96	115	1
34	81	3
240	242	3
74	106	2
31	110	1
20	24	1
39	111	2
208	244	1
224	232	1
41	65	6
8	9	2
114	151	2
3	63	1
159	240	2
63	68	3
95	98	1
171	172	3
162	164	7
168	171	2
225	227	2
205	206	2
32	56	1
201	220	4
205	244	2
0	55	1
25	25	12
71	78	2
10	19	1
170	176	2
157	196	4
36	70	1
11	112	2
151	152	2
161	212	2
27	58	1
6	228	1
35	78	3
52	110	1
82	84	2
166	182	1
1	55	2
111	244	3
28	119	2
15	37	3
39	44	3
195	197	1
32	117	3
42	52	1
146	160	1
115	224	1
168	203	2
191	213	1
33	118	1
208	209	4
200	212	1
15	60	1
198	205	1
6	54	1
160	163	4
85	115	1
208	213	4
225	244	3
158	167	1
41	108	1
229	233	1
12	19	3
99	110	3
155	219	1
8	204	3
9	109	3
196	241	2
235	246	1
163	187	3
215	241	1
8	87	2
31	55	2
11	111	2
94	110	3
194	224	1
176	196	1
189	207	1
186	213	4
193	213	2
171	197	2
21	24	1
64	200	3
35	156	1
84	189	1
155	201	1
159	197	2
208	215	2
49	77	6
90	98	2
22	53	2
179	240	1
1	113	1
153	158	1
88	98	1
12	22	2
93	110	1
197	242	5
57	63	3
83	190	2
32	233	3
171	196	3
13	13	2
218	220	1
157	164	2
4	15	4
156	193	2
161	230	3
166	171	3
243	245	1
188	191	1
10	31	3
48	51	1
18	20	4
213	215	2
99	151	2
37	60	2
36	37	2
158	166	3
234	235	6
43	48	1
246	248	3
56	58	2
177	241	1
17	19	1
11	24	2
63	73	1
64	81	1
201	217	2
34	75	1
195	210	2
121	245	3
189	210	1
2	11	1
37	75	3
55	66	3
41	57	1
75	83	4
150	154	2
1	54	1
95	113	3
247	248	3
59	60	3
56	113	4
188	190	4
19	43	2
211	213	2
175	180	1
11	31	3
6	7	3
77	90	1
103	105	2
206	213	2
88	95	2
105	106	2
7	206	2
166	183	4
11	17	2
20	229	2
29	120	1
172	179	2
173	186	1
156	204	1
167	169	3
102	177	1
149	173	3
5	51	1
106	111	3
152	158	1
186	224	2
38	112	2
207	236	2
187	190	2
68	71	2
152	201	1
184	217	1
158	183	1
33	116	1
153	226	1
227	229	2
208	218	2
47	74	3
1	2	1
49	76	1
86	145	2
161	231	1
16	202	1
62	199	1
51	92	1
147	160	1
22	109	2
95	118	1
238	248	3
168	198	3
183	193	1
103	118	2
194	209	1
189	200	1
167	208	1
38	93	1
31	41	5
96	116	3
226	228	3
109	110	4
180	228	2
217	220	1
161	204	1
48	77	1
112	167	2
71	73	2
26	30	2
98	150	1
156	201	1
143	143	2
14	19	1
57	68	2
30	105	1
111	246	1
63	120	2
37	195	2
157	197	1
202	204	1
109	117	1
51	193	1
58	68	2
156	220	2
8	64	1
156	236	3
11	19	1
60	62	2
47	146	1
44	54	2
88	113	2
180	187	1
187	197	5
221	224	1
74	75	1
118	142	1
26	100	1
17	44	2
162	166	2
168	174	5
14	15	3
2	40	1
156	168	3
178	184	1
181	209	1
66	150	1
200	205	1
225	243	1
11	52	1
167	173	1
16	52	1
61	64	1
180	184	1
85	87	1
206	216	1
193	197	1
41	203	2
18	53	1
43	44	2
55	58	2
184	221	1
84	119	3
236	246	2
144	154	2
237	245	1
172	198	1
149	242	1
168	236	2
166	168	1
2	14	1
49	83	1
214	215	4
247	249	1
157	198	1
170	183	1
58	152	1
231	234	1
112	114	1
157	171	1
238	240	2
242	245	1
240	245	1
207	210	1
45	52	3
45	51	1
114	116	1
47	93	1
86	88	1
57	94	1
111	245	1
114	117	1
195	244	1
113	118	1
11	14	1
37	48	1
183	212	1
157	208	1
114	234	2
41	46	1
200	211	1
5	61	1
0	76	1
67	73	1
204	243	2
30	51	1
157	236	1
165	167	1
98	113	1
58	70	2
37	63	1
198	242	1
116	156	1
157	167	1
158	175	1
144	145	2
112	159	2
23	26	2
147	199	1
165	211	1
36	200	3
59	61	1
76	121	1
9	31	1
15	202	1
175	240	1
160	242	1
160	198	2
80	82	1
100	144	3
24	44	2
90	106	1
222	226	1
112	117	2
27	103	2
241	242	1
212	225	1
6	12	1
11	195	1
178	236	1
12	13	1
59	221	1
118	243	2
100	103	1
214	216	1
174	177	1
50	77	2
218	233	1
26	112	2
235	236	1
234	246	2
167	178	1
146	217	1
157	159	1
58	59	1
65	67	1
152	187	1
49	63	1
46	65	1
30	111	1
59	230	1
85	95	1
154	236	1
177	195	1
26	42	1
10	46	1
27	28	1
236	241	1
185	199	1
113	241	1
55	90	1
4	34	1
8	51	1
11	12	1
2	3	1
105	108	2
65	98	1
97	115	1
47	228	1
43	106	1
172	174	1
156	206	1
33	81	1
42	66	1
22	26	1
72	75	1
183	206	1
22	30	1
92	152	1
166	198	1
72	74	1
175	196	1
107	112	1
248	249	1
84	97	1
217	242	1
