150	150	26
9	13	3
120	121	1
109	109	11
52	58	4
97	97	16
28	37	2
18	19	15
31	31	10
29	29	14
144	144	2
38	39	9
65	79	5
125	125	19
116	116	11
66	67	10
69	72	3
146	147	7
82	82	7
137	137	7
95	95	6
72	72	6
17	19	9
5	82	8
26	26	10
11	13	5
39	40	10
118	118	24
93	94	7
126	126	8
23	24	6
32	33	3
87	87	12
81	81	7
102	112	1
21	22	12
82	88	4
41	42	11
125	130	6
90	99	4
48	48	29
43	43	21
93	97	5
8	24	4
42	43	2
104	105	8
33	43	4
122	122	27
145	145	20
39	55	2
76	84	1
15	15	20
71	71	20
30	66	11
132	132	12
133	133	10
26	55	4
2	3	3
80	80	9
13	14	10
16	17	3
136	138	3
92	112	1
69	69	16
19	20	3
34	55	5
93	93	7
32	34	5
10	10	23
68	109	6
83	87	3
79	79	5
40	40	18
4	82	3
38	38	27
13	13	20
26	34	11
114	117	3
147	147	15
56	57	17
16	151	6
95	99	8
99	99	5
4	6	7
12	26	4
116	150	1
101	101	10
79	81	3
94	95	1
95	98	4
42	46	1
33	94	6
105	105	16
18	129	5
135	135	9
22	25	3
70	70	18
68	68	16
85	85	12
131	154	5
112	152	3
27	27	10
16	16	7
119	121	4
135	136	4
87	88	5
114	114	11
138	138	8
12	81	3
81	82	10
24	24	26
55	55	8
5	11	4
95	96	9
143	143	1
143	144	13
40	41	11
30	55	2
80	85	4
53	53	21
39	39	34
135	137	4
117	117	17
7	7	7
93	98	3
64	65	2
20	20	25
7	26	2
76	85	6
43	44	8
8	9	9
42	45	1
96	96	4
61	61	5
19	19	17
38	55	2
112	116	5
27	29	4
64	64	16
137	138	6
105	106	6
75	95	12
21	21	14
14	43	2
72	84	3
152	152	11
23	23	20
26	27	5
56	56	8
128	129	4
128	128	6
110	112	2
146	146	4
82	83	1
20	31	1
69	74	3
51	52	2
51	51	17
92	92	10
32	32	11
47	47	15
4	10	5
31	32	3
136	137	10
104	104	12
50	50	14
22	23	5
39	45	9
45	49	5
62	76	3
123	130	6
139	141	2
130	133	4
33	38	2
115	115	6
24	31	5
47	48	6
142	144	4
63	63	14
100	109	4
65	65	6
62	62	7
146	149	4
46	46	16
30	30	8
41	43	6
106	122	3
45	46	11
98	98	5
25	28	5
69	86	4
100	113	2
108	108	12
14	14	13
20	23	5
67	67	1
50	57	4
113	114	1
78	78	16
6	6	3
66	92	4
6	7	8
34	38	2
14	50	4
55	81	3
112	112	12
64	84	2
119	148	3
57	57	15
18	18	5
52	52	5
124	124	7
77	77	8
86	86	7
27	32	3
33	33	9
3	14	5
102	108	1
106	120	2
17	17	24
148	148	1
54	55	3
63	65	4
123	151	2
84	84	8
71	73	2
54	54	12
94	94	14
102	102	6
37	37	10
154	154	10
110	111	6
77	88	1
131	132	4
102	150	4
124	125	6
95	97	6
15	17	5
25	27	3
122	131	1
103	107	2
34	35	11
83	83	5
153	153	11
76	76	8
55	56	5
38	40	5
12	12	11
144	146	3
134	152	2
130	130	4
102	107	7
62	64	3
9	9	6
42	42	15
46	48	5
135	140	2
113	113	4
34	34	8
5	5	8
115	116	8
92	100	5
107	108	2
33	36	2
45	45	20
30	44	6
103	103	4
97	98	2
22	22	14
84	85	5
94	96	4
127	127	7
122	123	4
106	106	7
48	49	4
138	139	3
126	128	3
131	131	27
57	73	3
136	136	9
4	4	11
75	76	8
27	34	5
20	21	3
97	99	2
68	86	1
103	104	3
108	109	6
68	69	4
35	42	3
65	66	4
86	88	1
75	78	5
9	22	1
121	121	7
88	88	1
106	107	2
139	139	7
123	123	13
36	36	10
103	114	2
103	113	1
37	67	2
66	66	10
103	108	4
41	41	6
116	117	1
49	50	5
25	43	1
85	87	2
90	96	3
8	8	9
76	79	2
105	112	4
111	114	5
8	82	4
64	76	1
27	28	5
15	16	3
110	110	5
35	37	3
93	96	2
58	58	4
115	117	4
98	99	3
143	148	3
101	112	3
100	100	7
46	47	8
53	54	7
130	132	2
73	75	1
74	87	1
111	122	1
119	119	9
12	13	4
11	11	10
125	127	2
74	75	7
92	93	2
125	126	1
142	142	12
40	46	2
54	57	3
105	111	1
90	90	2
77	78	3
64	68	6
41	46	4
44	45	7
28	28	3
25	98	5
117	118	2
111	111	2
99	109	4
41	55	1
44	44	8
28	30	5
111	112	7
141	144	5
65	109	2
74	74	2
133	134	4
120	131	2
115	122	1
121	122	5
84	87	2
100	108	1
107	107	2
78	80	1
150	151	4
99	100	4
134	134	2
147	149	2
149	149	7
50	52	1
140	141	2
5	12	3
126	127	5
39	46	2
65	84	2
83	84	1
26	35	2
18	24	1
24	37	1
10	12	1
109	111	3
26	33	1
73	84	4
11	82	2
24	44	1
70	73	6
13	29	1
118	127	2
62	72	1
4	5	2
8	27	3
67	110	1
9	12	2
152	153	3
63	64	4
5	7	3
78	84	5
72	74	2
121	138	1
86	87	1
73	73	4
7	27	2
21	23	4
15	49	2
76	77	6
65	78	1
9	16	1
9	79	4
35	35	1
65	67	5
140	143	1
78	82	1
78	88	3
13	16	3
25	42	2
68	84	3
102	114	2
70	72	4
9	10	1
118	149	2
78	83	5
69	70	3
27	35	6
74	86	2
25	31	2
45	54	1
25	26	1
105	107	1
129	129	8
101	109	2
67	68	2
64	67	1
145	146	2
24	41	2
33	35	4
34	36	2
102	113	2
63	75	3
32	38	1
145	148	4
77	85	1
19	150	1
88	98	3
33	98	1
85	93	1
80	81	2
96	99	5
31	44	2
21	36	3
87	90	1
67	69	4
94	97	1
57	76	2
108	112	1
120	120	6
129	150	4
57	58	1
8	26	1
112	113	1
117	121	1
103	105	3
73	87	2
46	55	1
62	83	2
14	15	5
103	111	1
50	51	2
113	151	1
85	94	2
30	41	1
72	73	1
43	56	2
80	83	4
87	93	1
55	67	2
17	18	3
104	109	2
75	93	2
45	80	1
57	80	2
57	63	2
111	115	1
77	81	2
31	35	1
64	74	2
68	110	1
45	53	2
74	78	2
62	79	1
10	11	1
31	37	3
56	58	1
31	36	1
85	95	1
74	76	1
90	93	1
6	11	1
25	25	3
104	115	1
144	145	1
11	22	1
9	24	2
26	28	3
25	36	1
62	63	1
73	96	1
152	154	2
141	141	1
92	95	1
148	149	1
24	25	1
66	69	2
29	31	1
75	75	1
119	123	1
69	100	1
4	12	3
112	114	1
18	128	1
124	130	1
142	147	2
100	102	1
151	151	1
88	95	1
42	44	2
6	8	1
22	30	1
115	124	3
133	144	2
35	40	1
37	38	1
118	123	2
31	68	1
91	92	1
102	103	2
64	71	1
23	41	1
100	101	1
10	13	1
11	71	1
11	12	2
130	154	1
92	99	1
107	117	1
68	70	1
3	79	1
125	128	1
68	85	1
140	140	1
66	78	1
69	109	1
33	34	1
120	123	1
30	37	1
7	25	1
