67	67	5
100	100	1
104	104	11
90	104	3
28	28	7
89	90	3
124	124	15
100	101	7
21	21	6
71	71	12
34	34	2
101	102	6
29	30	4
20	21	3
106	107	6
88	88	2
2	2	2
96	96	6
137	139	1
12	23	1
18	21	2
66	66	3
10	10	4
142	144	2
63	63	11
68	68	4
92	92	1
59	79	1
30	30	4
3	3	1
86	87	5
20	20	6
4	4	1
23	23	12
128	129	2
71	72	8
104	105	1
1	83	3
127	127	6
123	136	2
141	141	10
76	77	2
145	145	11
77	78	9
130	130	7
8	20	3
140	140	5
0	85	3
26	32	1
110	132	2
93	94	4
38	38	5
17	17	11
79	79	2
1	1	4
128	128	9
125	125	15
133	133	4
29	29	5
26	26	6
99	100	2
142	142	10
5	5	4
51	52	5
9	11	2
117	118	3
27	27	11
103	103	15
91	91	9
134	134	7
102	102	6
31	31	4
6	6	5
41	41	7
54	54	4
35	35	3
123	123	7
122	122	9
120	138	4
80	80	4
117	117	5
30	32	5
99	99	1
40	40	2
126	131	2
101	103	2
82	82	5
136	136	2
86	86	6
71	73	1
69	70	5
110	134	1
133	134	15
36	36	2
37	37	6
74	76	4
139	139	7
62	63	7
140	141	1
126	126	11
89	94	1
57	57	5
19	19	9
129	131	3
95	95	7
132	132	1
53	54	6
109	109	4
69	69	2
101	101	13
114	114	5
119	120	2
126	143	3
0	0	6
120	121	2
113	113	7
56	56	4
97	97	2
87	87	3
124	141	7
127	128	5
118	119	3
75	126	1
120	120	14
74	74	3
121	121	7
106	106	2
58	58	1
140	142	2
91	92	3
22	22	5
28	53	1
125	127	3
77	77	5
93	93	2
31	34	2
107	107	7
135	135	2
60	60	5
135	136	2
79	80	2
18	39	1
72	73	2
53	53	6
114	116	1
139	141	3
117	130	4
137	137	4
92	93	6
62	62	7
112	113	3
75	97	2
122	128	2
75	75	5
9	20	3
120	143	1
85	85	1
137	138	3
35	37	1
110	110	3
65	65	4
84	84	2
32	32	7
105	106	3
81	82	2
6	9	3
98	98	1
94	94	2
48	49	1
111	111	2
34	35	1
70	72	1
120	122	6
71	74	1
18	18	2
17	18	7
119	119	4
130	133	2
110	133	1
120	123	4
90	90	3
118	118	4
123	137	3
58	81	7
59	59	5
48	48	2
14	21	1
91	93	4
138	138	1
57	59	1
130	134	1
123	139	1
16	16	1
124	125	1
136	139	2
126	128	1
1	55	4
146	146	2
32	33	1
52	52	3
9	14	1
14	14	1
68	73	1
81	81	4
18	19	4
25	26	1
64	64	1
112	112	4
82	83	4
116	116	3
113	114	6
119	141	3
128	130	1
119	130	2
144	144	3
135	137	1
115	116	1
22	42	2
105	105	3
96	104	2
75	79	2
59	61	2
126	127	3
49	50	2
65	66	3
51	51	2
55	55	2
111	113	1
74	75	1
50	52	5
23	25	1
83	84	3
108	108	3
134	138	4
124	130	1
30	94	4
32	53	1
73	74	2
129	129	1
33	35	2
8	8	3
33	102	2
12	12	2
15	16	2
123	124	2
31	53	1
25	47	1
34	36	4
83	83	3
27	55	1
79	83	2
78	78	1
74	109	2
25	25	2
110	122	2
62	106	3
131	131	2
3	101	2
96	97	1
40	41	1
142	143	1
42	42	1
102	109	1
75	76	1
98	109	3
95	96	1
76	76	1
116	117	1
49	51	1
97	98	1
116	123	1
3	5	1
73	75	1
13	36	1
90	91	1
3	4	2
123	135	1
99	126	2
115	141	2
15	15	4
135	138	2
77	79	3
143	143	1
143	144	1
109	110	1
110	131	2
110	120	1
49	49	1
9	9	1
26	42	1
122	123	1
131	133	1
55	56	1
56	57	1
50	50	1
134	140	1
26	36	1
11	25	1
130	131	1
140	143	1
69	72	1
