4	6	5
70	71	5
75	75	6
123	123	6
90	90	5
116	116	15
71	71	4
34	34	14
25	25	12
72	72	10
29	29	12
108	108	5
42	43	4
28	64	1
70	70	11
81	83	2
77	77	7
51	56	1
32	32	15
10	11	9
65	65	13
73	73	16
22	22	7
4	4	2
47	47	9
67	67	8
8	8	20
126	126	1
68	68	11
27	28	4
9	9	13
15	16	3
7	60	1
55	55	3
13	17	1
45	45	16
26	26	10
33	33	11
11	12	1
11	11	24
92	92	10
20	20	8
19	19	11
78	79	5
13	15	4
20	29	1
58	59	2
61	61	11
127	128	2
93	94	3
62	62	7
114	114	13
60	60	19
62	64	2
57	57	3
129	129	5
5	6	3
28	97	3
7	7	4
83	83	11
80	80	9
64	64	5
43	43	6
18	18	10
56	56	12
79	79	1
126	127	3
31	31	4
91	91	8
63	63	5
15	15	19
2	2	2
44	44	8
66	66	8
109	109	14
112	112	10
12	12	21
86	86	10
97	97	6
4	93	2
87	88	2
7	24	2
112	123	2
19	57	6
59	59	4
27	97	6
24	24	2
11	15	5
121	121	1
88	91	1
124	124	8
95	96	4
88	88	6
19	20	2
46	71	3
117	117	6
98	98	7
16	16	3
17	17	4
76	76	5
10	10	9
69	69	4
35	76	1
78	78	13
20	46	1
134	134	2
74	74	9
90	91	5
1	1	3
123	126	5
20	62	1
13	93	6
17	74	3
48	48	12
46	46	8
106	106	1
110	110	1
6	6	5
56	82	3
0	0	2
41	41	3
24	74	2
27	80	2
102	102	7
3	87	1
118	118	9
91	95	5
130	130	11
104	105	3
107	107	4
29	96	1
85	85	1
84	86	1
119	119	6
132	132	2
111	111	13
114	126	4
98	99	4
17	73	2
35	35	10
44	45	3
35	36	6
34	35	4
84	84	5
37	40	2
113	113	5
100	100	8
16	17	3
28	80	1
33	82	4
95	95	5
101	101	5
12	13	2
124	125	1
93	93	12
12	16	4
122	123	2
99	99	5
25	26	4
4	5	2
29	31	4
1	2	7
97	98	2
96	99	1
20	21	1
21	58	1
6	132	6
13	13	2
36	36	13
38	84	1
20	58	1
61	62	1
40	40	2
129	130	3
5	5	2
9	10	3
47	99	2
75	76	3
56	57	3
21	21	2
82	82	2
133	133	6
11	93	1
42	42	1
18	19	2
85	101	2
10	22	3
108	111	1
3	95	2
45	47	1
27	27	4
74	77	4
128	130	6
89	90	2
81	82	2
2	111	1
49	50	1
30	30	1
62	63	2
106	127	1
29	59	2
93	95	1
18	73	3
94	107	3
58	58	3
96	96	3
86	88	1
106	109	3
13	14	6
115	115	1
17	18	1
33	34	3
94	94	8
8	14	3
82	83	2
3	96	3
8	16	3
28	45	2
29	49	9
45	46	2
24	25	3
19	71	1
46	98	3
86	87	1
27	31	2
4	133	1
18	74	2
21	29	1
111	112	1
115	128	4
5	127	2
112	113	3
24	82	2
100	101	2
3	48	1
110	111	1
29	47	2
85	86	3
105	105	1
81	81	3
66	83	1
92	93	4
68	69	2
94	95	2
103	103	1
83	108	2
20	36	1
93	96	2
32	33	2
29	32	4
131	132	2
28	29	2
113	114	3
64	65	1
120	120	3
113	117	4
119	120	1
10	129	1
41	44	1
28	78	1
49	49	4
38	83	2
8	36	2
19	72	1
128	129	1
11	74	1
6	133	1
18	77	1
2	121	1
28	28	5
99	100	2
87	87	2
17	64	2
77	122	3
113	134	3
3	3	1
47	92	1
72	119	1
17	44	2
41	83	1
14	14	1
3	88	2
68	76	1
121	122	1
73	74	3
41	42	2
80	81	2
33	94	1
104	104	1
12	47	1
125	125	1
68	74	1
6	8	2
38	71	1
85	87	1
32	78	1
34	36	1
61	64	2
9	67	1
112	125	1
37	37	1
24	83	3
20	25	1
80	106	1
32	75	1
123	124	2
26	27	1
14	15	3
33	35	2
69	70	2
47	48	2
4	29	1
7	85	1
21	22	1
78	107	1
24	79	1
67	68	1
39	98	1
23	42	1
96	97	1
83	94	1
67	72	1
47	57	1
29	30	2
107	108	1
8	128	1
83	107	1
98	100	1
88	89	1
26	71	2
66	67	2
8	9	1
28	90	1
2	27	1
8	21	1
132	133	1
29	62	1
35	77	1
78	80	1
100	122	1
20	22	1
5	76	1
46	97	1
