131	131	12
131	132	4
88	117	7
52	52	13
125	125	4
34	72	1
67	67	5
47	47	7
33	33	6
78	78	5
119	119	10
118	118	12
8	8	7
116	130	7
98	98	8
75	109	2
90	90	3
96	109	3
72	73	4
111	111	9
101	101	12
98	102	2
24	24	12
95	124	1
74	116	3
132	132	14
6	26	2
11	18	1
125	126	5
49	49	6
40	71	2
59	60	5
4	5	1
0	1	9
11	31	2
104	104	6
110	110	4
26	48	1
75	75	8
63	107	2
100	100	13
39	39	5
85	132	2
116	119	3
77	77	5
20	27	1
92	94	2
63	108	3
57	60	1
21	21	7
1	1	7
86	91	3
89	114	1
85	86	3
71	72	4
60	60	9
122	124	3
56	57	2
126	126	5
143	143	2
94	94	19
57	63	5
48	49	1
22	41	2
62	68	2
113	113	3
141	141	20
102	102	16
66	66	3
132	140	4
84	106	1
109	112	2
87	115	3
91	114	4
42	42	9
134	134	13
61	71	1
103	106	1
128	128	13
118	120	3
10	10	10
16	16	4
74	74	13
23	25	4
107	107	5
50	50	1
20	20	6
80	114	2
103	103	9
138	139	1
72	72	5
71	71	11
104	105	5
136	136	10
135	135	9
77	78	5
122	123	3
97	104	1
129	130	2
80	80	4
35	36	2
82	82	6
84	85	2
37	37	5
76	131	2
4	4	10
10	11	4
93	93	4
47	72	1
87	87	6
86	86	4
79	133	2
83	83	5
120	120	4
119	130	1
94	95	1
41	41	6
67	71	1
26	135	4
108	108	10
95	98	1
1	20	2
144	144	10
118	121	1
102	103	7
92	129	2
55	57	3
29	29	7
77	79	2
117	121	2
81	81	2
3	34	1
55	100	1
82	118	1
100	101	1
54	56	2
58	99	2
57	62	2
10	84	2
66	132	2
28	29	1
55	55	9
117	117	10
78	111	2
13	35	2
82	83	5
20	42	2
121	123	2
115	116	1
2	31	2
62	83	2
65	65	6
107	108	4
84	84	7
74	88	1
79	79	7
62	79	1
53	57	1
13	13	11
61	74	2
63	65	2
2	4	4
133	133	6
34	34	7
9	32	3
54	55	1
82	125	4
22	22	4
99	110	2
104	106	1
91	113	2
83	90	1
64	66	3
119	129	2
56	130	1
62	62	5
66	82	1
27	27	3
99	100	5
8	9	1
138	138	4
124	124	9
95	95	2
99	99	6
78	80	1
76	112	4
53	64	3
61	61	8
114	115	3
87	113	1
83	85	2
27	38	2
18	19	3
61	62	2
96	107	2
38	38	7
135	138	1
30	30	12
48	67	1
19	19	4
33	35	1
137	137	1
52	53	3
14	14	8
91	91	6
63	64	4
86	87	1
83	103	2
15	15	6
23	24	8
112	112	7
110	131	2
15	16	1
96	134	6
57	58	3
3	4	4
116	116	5
142	143	3
87	88	1
12	17	1
96	96	5
20	21	2
73	73	6
83	84	1
23	23	2
50	51	5
88	91	2
9	10	1
119	120	4
47	52	1
68	73	1
55	56	2
113	120	4
26	26	9
94	124	2
134	138	2
50	60	1
19	27	1
68	68	4
91	103	1
40	41	5
64	65	1
98	105	3
2	5	4
25	25	2
85	91	3
59	59	7
129	129	8
137	138	5
125	137	3
67	68	5
25	26	1
24	62	4
11	11	3
63	83	3
10	12	4
123	123	8
139	140	4
34	36	1
76	76	8
88	88	6
74	126	2
36	37	1
6	6	2
32	32	4
70	70	9
106	106	3
104	134	3
75	76	3
11	141	1
68	70	6
9	16	3
57	57	6
114	117	2
128	131	2
75	86	2
33	72	2
92	92	2
56	61	2
27	28	3
83	89	1
88	89	2
109	110	1
84	139	3
12	12	4
9	34	2
49	52	2
64	64	2
81	123	2
115	115	5
79	80	2
122	130	1
17	17	4
36	36	3
83	92	2
130	130	5
132	137	1
31	31	3
107	133	3
71	73	1
96	111	2
109	109	6
103	104	2
65	102	3
51	51	5
33	37	2
10	35	3
23	63	2
9	17	2
105	111	1
18	21	3
56	63	1
56	56	4
96	97	2
27	34	1
10	30	1
70	72	2
31	32	4
17	39	3
92	93	2
59	99	1
3	65	2
65	70	1
22	38	3
6	16	1
82	131	1
94	128	1
47	53	5
79	111	1
84	86	3
50	53	1
48	48	3
84	87	2
108	109	1
88	116	1
70	83	1
43	43	3
57	64	1
28	28	5
87	138	1
90	118	1
136	138	2
127	127	3
95	96	3
40	40	4
26	73	1
12	13	1
9	18	1
91	99	1
97	139	2
33	135	2
140	140	5
36	137	1
79	81	1
58	82	2
26	38	2
134	137	1
85	85	2
32	33	2
11	12	1
18	18	3
20	64	1
76	110	1
62	63	2
10	25	4
42	60	1
90	117	2
34	35	1
25	27	1
55	60	2
79	132	1
4	18	1
115	118	1
136	137	2
133	134	1
113	116	1
75	96	1
54	54	3
62	64	1
89	90	4
139	139	4
89	112	2
53	53	6
17	18	1
91	104	1
78	130	1
72	108	2
58	58	2
115	119	1
126	132	1
110	114	1
24	25	1
59	61	1
97	97	2
110	112	2
142	142	6
113	117	1
127	128	1
71	74	2
74	76	1
91	93	2
3	3	2
53	54	3
8	37	2
128	129	1
4	33	1
26	36	2
4	35	2
83	106	1
69	69	2
63	63	3
105	133	2
1	2	2
8	142	1
37	38	1
89	89	1
11	30	1
75	106	1
0	0	2
24	26	2
41	66	1
104	133	1
14	72	1
54	61	1
20	43	2
80	129	2
59	62	1
102	117	1
118	119	1
23	62	1
66	77	1
13	32	1
53	62	1
11	13	1
121	121	1
0	24	1
16	61	2
43	49	2
74	104	1
48	60	1
124	125	1
122	122	2
77	133	1
3	43	1
82	121	1
74	138	1
41	42	1
82	84	1
6	10	1
84	140	1
6	24	1
74	106	1
114	114	1
141	142	1
55	63	1
