0	68	4
148	148	6
106	106	8
85	85	16
122	166	7
84	132	1
99	99	5
17	19	1
91	91	6
77	77	6
13	13	9
24	143	3
22	22	3
87	88	3
34	34	9
56	56	9
133	133	4
62	113	1
83	84	3
3	3	6
8	8	3
0	21	4
98	98	14
52	52	2
66	95	2
28	28	5
53	56	3
18	18	9
6	6	3
75	76	4
9	9	6
76	77	4
41	41	4
15	15	5
17	17	9
56	64	1
45	45	8
92	92	7
79	80	4
111	111	8
165	165	7
136	136	6
129	129	2
78	79	3
151	151	4
96	96	6
7	160	2
47	48	5
52	168	3
76	76	6
50	50	3
145	145	2
121	121	3
82	82	4
90	90	6
15	101	2
43	43	5
140	140	6
107	107	6
93	93	5
25	142	1
1	54	2
153	154	1
118	118	5
131	131	5
19	19	9
97	97	2
112	123	2
103	103	6
2	2	6
26	26	5
97	140	2
26	150	2
96	114	2
169	169	3
143	144	3
64	64	10
43	44	3
9	10	6
3	166	5
50	51	6
24	27	1
100	113	3
1	1	1
12	13	3
94	95	2
132	132	1
150	150	2
25	25	3
47	47	8
7	84	3
38	38	8
40	40	5
11	11	7
64	68	2
87	95	1
113	114	2
36	36	2
86	86	5
14	15	3
101	101	2
136	137	5
135	139	6
19	23	3
57	58	2
47	49	3
44	168	1
8	130	5
10	14	5
21	21	2
123	123	3
26	55	2
144	155	3
80	82	1
97	98	2
157	157	5
162	165	2
1	2	6
105	115	3
141	141	2
53	53	2
7	7	9
23	145	1
64	65	1
18	164	1
110	110	6
2	53	2
88	97	3
125	125	3
69	70	3
57	91	2
161	161	1
26	141	1
89	139	3
4	35	1
37	37	5
159	159	4
24	24	4
6	7	1
16	46	3
6	56	4
51	51	4
134	140	2
100	112	1
71	80	3
4	32	2
54	54	6
51	52	3
127	161	2
5	13	3
104	104	3
160	160	2
146	154	1
158	159	4
64	83	1
0	20	1
108	109	3
152	152	2
71	71	4
7	15	3
24	147	1
80	81	5
39	40	1
44	44	3
123	156	2
17	18	6
35	35	5
92	94	5
66	94	1
78	78	4
97	100	5
9	50	1
9	121	3
100	100	1
153	162	1
149	149	3
84	118	3
170	170	1
114	114	4
9	161	2
16	105	1
10	78	2
138	138	7
143	143	3
144	144	4
23	23	6
79	79	2
10	15	4
83	83	2
40	44	1
127	127	2
20	20	2
61	61	4
69	79	1
167	167	2
84	117	1
100	103	5
156	157	1
129	166	2
99	100	2
105	105	4
14	14	2
91	138	2
8	9	2
152	153	2
88	123	1
75	90	1
15	25	2
12	12	1
156	159	2
147	147	7
54	55	1
12	14	2
42	42	3
52	108	1
97	113	1
128	160	1
27	27	3
84	84	3
5	12	2
0	0	1
82	83	1
55	55	1
163	165	1
69	93	2
167	169	1
148	154	1
109	111	1
118	120	1
46	47	1
49	49	6
75	75	2
36	37	3
10	10	2
139	139	1
128	129	4
102	102	2
126	126	2
48	117	2
168	168	3
0	80	5
53	55	1
106	110	1
66	66	3
72	72	1
133	139	1
109	109	4
124	124	2
62	62	4
125	126	2
50	156	1
120	120	7
157	164	4
36	42	2
84	131	1
88	98	1
19	100	4
97	114	1
16	17	2
95	107	1
6	24	2
134	139	4
102	103	2
142	143	1
13	21	1
155	155	4
33	33	1
11	16	1
81	81	4
39	39	3
101	102	5
64	69	1
18	22	1
113	113	4
24	25	3
107	113	2
108	108	1
52	120	1
112	112	4
123	124	3
41	47	1
5	5	3
45	53	1
18	165	1
131	161	2
12	25	2
54	106	1
154	154	1
20	23	3
48	48	1
121	122	2
8	10	3
131	132	2
52	53	1
90	139	2
37	38	1
72	77	2
98	99	1
88	88	2
119	119	1
8	162	1
15	103	1
128	134	3
144	145	2
56	63	1
122	122	3
74	75	1
44	170	2
21	23	2
68	84	2
133	150	1
132	167	1
56	104	1
102	107	1
70	79	1
92	93	1
95	95	2
70	71	1
132	149	1
104	116	1
67	70	2
88	89	1
64	66	1
145	148	2
100	120	2
101	108	1
67	67	1
18	20	1
80	85	1
19	101	1
77	80	1
146	146	1
140	141	1
89	99	1
7	24	2
100	101	1
85	87	1
126	127	2
70	70	1
127	155	1
138	168	2
83	169	2
97	101	1
64	111	1
68	68	1
110	111	2
128	128	1
69	84	1
99	102	1
162	162	1
130	163	1
119	121	2
148	149	1
48	49	1
153	153	1
139	140	1
44	46	1
113	123	1
74	102	2
164	164	1
44	45	1
53	116	2
74	74	1
8	127	1
146	148	2
105	142	1
87	87	1
28	142	1
4	5	1
114	115	1
141	151	1
116	116	1
69	69	1
63	63	1
124	141	1
76	79	1
146	153	1
89	98	1
20	21	1
67	86	1
115	115	1
166	166	1
57	57	1
134	134	1
127	128	1
38	148	1
122	123	1
58	63	1
96	97	1
20	24	1
1	97	1
