80	80	2
37	37	3
118	118	3
29	29	4
91	91	11
120	120	2
126	127	5
101	101	8
100	100	10
15	15	8
121	131	3
94	94	10
95	96	2
110	130	2
126	126	4
105	105	11
6	7	11
117	119	5
123	123	5
36	36	4
118	126	1
44	78	4
92	92	7
78	78	3
96	125	1
118	120	4
113	114	4
0	0	9
49	50	6
24	55	1
45	45	3
2	71	4
110	110	5
8	8	5
91	116	1
121	121	8
29	35	2
117	118	1
128	128	1
70	70	6
75	76	5
91	96	5
87	87	5
52	52	9
77	78	4
134	134	5
131	131	4
48	48	2
114	114	6
105	121	2
98	102	1
107	107	6
26	26	6
103	103	5
110	111	1
55	55	3
86	86	1
47	47	4
116	116	7
97	97	4
11	11	3
22	22	3
88	88	3
130	130	9
19	19	2
108	110	2
50	50	3
63	63	3
135	135	3
73	73	5
44	44	2
109	109	6
29	104	2
119	119	6
44	57	3
112	112	6
69	82	6
1	2	2
35	35	2
132	132	2
62	62	5
10	57	2
61	61	3
77	77	8
109	110	3
100	114	1
83	83	1
125	129	1
53	53	9
23	23	1
57	57	3
84	84	4
73	93	3
52	77	4
104	104	2
13	107	1
114	115	1
95	95	8
33	33	2
49	49	10
127	127	6
69	69	8
85	86	1
113	113	7
108	108	3
118	122	1
79	79	7
12	12	2
6	19	3
107	132	3
60	60	5
5	5	4
72	72	5
3	3	2
79	119	2
68	88	1
72	73	1
3	5	2
66	68	1
101	114	3
58	60	1
105	106	7
82	118	1
74	74	4
8	35	3
64	78	4
93	93	4
76	76	2
106	109	1
117	117	7
28	31	1
82	82	2
2	98	1
119	121	1
69	70	2
123	124	4
62	63	1
29	30	3
79	84	1
19	20	3
0	1	2
102	102	4
99	99	5
100	101	2
125	125	2
21	22	2
97	98	1
8	20	1
71	71	2
4	4	5
56	67	2
65	118	1
122	122	1
96	96	2
58	58	2
2	2	2
73	104	4
43	45	2
81	82	2
120	123	3
128	129	1
111	122	1
90	90	1
59	59	3
17	17	2
30	32	1
44	56	3
7	7	2
108	109	2
96	97	1
57	66	1
129	129	1
81	94	2
90	91	1
94	95	1
56	57	1
98	98	1
25	26	1
110	116	1
89	90	1
16	16	1
97	126	1
31	32	2
111	111	1
23	54	2
66	66	2
61	63	1
98	114	2
112	113	2
86	109	1
10	10	1
91	100	1
65	65	1
127	131	1
75	75	1
22	23	1
72	74	1
118	119	2
66	77	1
92	101	1
130	131	1
92	118	1
117	131	1
124	124	1
93	115	1
82	85	1
89	89	1
74	75	1
