107	109	7
4	8	5
38	50	3
70	70	15
76	76	18
110	126	2
97	97	4
15	16	13
84	84	23
39	39	9
76	77	4
36	42	1
7	65	4
122	122	2
29	30	1
93	93	24
1	1	11
17	17	17
35	36	2
4	16	1
3	18	2
33	33	15
103	103	8
75	75	21
102	102	5
109	109	19
82	112	10
63	63	17
116	125	2
7	7	15
10	10	10
62	69	3
110	110	8
41	42	5
19	38	1
83	83	7
106	116	3
27	57	3
56	79	2
68	68	22
35	35	15
118	118	18
46	46	18
24	35	3
40	41	8
126	126	11
98	98	6
72	72	19
94	95	10
32	32	17
21	38	3
110	131	1
38	40	12
32	74	3
67	67	9
38	38	14
95	95	6
79	80	3
11	11	16
87	94	1
130	130	5
99	99	13
74	74	12
131	131	7
49	49	11
129	129	6
54	70	2
20	21	6
23	56	4
88	88	10
123	123	11
36	82	6
57	58	3
65	65	8
4	5	11
94	94	12
22	25	2
30	30	8
107	107	14
44	91	3
55	55	4
103	105	5
72	73	15
58	60	7
125	125	12
37	37	11
74	75	4
96	96	12
27	80	3
43	100	4
114	116	3
92	92	4
21	21	8
10	11	13
31	31	12
27	28	12
121	128	2
81	82	5
39	40	9
61	61	13
103	104	6
82	88	2
87	90	1
58	58	3
124	124	8
13	36	1
10	62	2
69	70	5
117	117	6
121	121	7
78	78	16
62	62	11
49	98	1
119	119	7
95	117	8
90	91	9
16	46	3
87	128	3
13	34	4
116	117	5
134	134	4
10	43	3
28	93	5
28	29	3
20	55	1
99	100	7
8	8	18
56	98	7
5	44	4
67	68	2
4	62	1
26	26	14
63	64	4
70	71	5
2	2	3
81	88	1
12	12	13
27	35	3
23	26	1
29	29	28
42	42	22
3	3	13
130	131	7
26	80	1
30	32	4
28	28	11
47	47	6
87	88	10
71	71	4
57	57	4
82	82	8
23	30	1
89	93	1
106	109	4
79	81	4
64	64	5
24	32	3
112	113	7
22	97	4
87	87	6
26	30	6
83	85	8
31	48	3
86	86	3
27	61	3
12	46	6
60	60	19
34	61	2
129	130	2
17	18	5
41	41	7
59	60	6
20	20	9
25	25	10
36	37	5
127	127	1
104	105	7
16	17	10
105	105	11
27	29	2
33	68	3
6	7	2
61	72	3
119	123	4
73	74	6
19	19	15
60	61	3
5	94	5
21	77	2
86	115	3
68	69	2
106	108	7
106	107	3
79	79	10
66	66	5
31	32	2
101	101	8
25	26	6
31	49	3
21	127	2
126	127	6
94	114	1
29	78	2
19	45	5
123	124	3
18	18	6
20	27	2
85	85	20
113	113	3
33	62	1
120	120	4
75	76	1
0	2	1
33	34	3
39	84	4
73	73	6
27	27	4
100	115	3
46	47	1
11	12	3
15	15	3
100	101	3
9	25	2
77	78	5
61	63	3
9	29	3
128	128	3
19	36	2
28	98	4
61	65	3
93	100	3
108	111	3
59	82	1
42	85	2
6	8	2
28	30	4
4	44	3
114	134	5
30	80	2
11	42	5
41	43	4
78	79	4
40	40	3
24	24	3
109	134	3
23	23	6
23	60	1
81	83	2
69	69	8
26	27	4
38	39	6
14	34	2
57	78	1
81	81	8
56	56	6
91	91	6
100	114	1
24	25	3
80	84	1
16	31	2
25	44	5
63	78	3
70	74	1
117	126	1
28	78	1
45	45	13
63	83	1
70	119	4
65	66	3
94	96	2
96	97	5
25	59	2
22	26	3
5	10	2
11	49	1
69	117	2
132	132	1
84	87	8
34	34	10
113	114	7
92	93	4
9	9	17
8	59	4
23	57	1
59	59	8
22	22	9
97	98	1
71	116	2
2	13	1
11	32	3
40	84	2
92	114	2
15	45	7
89	92	2
14	14	5
21	44	3
26	78	4
115	116	3
25	83	2
26	79	2
8	29	7
109	110	3
4	4	4
1	2	2
26	60	2
8	32	1
32	49	2
20	98	3
44	70	1
23	25	2
48	93	2
70	125	2
40	43	3
7	19	5
58	77	2
55	98	1
63	85	2
85	101	1
44	44	3
93	115	1
7	37	3
32	33	4
126	132	1
5	5	10
22	24	3
58	80	3
62	63	2
89	120	1
77	77	7
36	36	7
5	114	1
101	122	2
34	77	1
10	12	1
85	94	1
101	121	3
25	75	1
91	128	4
50	99	1
27	79	2
7	8	4
90	110	1
36	44	1
111	111	3
37	45	2
47	48	2
101	128	4
4	19	1
35	81	2
80	80	11
4	21	2
12	13	2
14	62	1
79	82	2
34	35	2
46	65	1
37	38	3
19	94	1
22	115	3
3	45	2
28	80	2
92	127	1
17	96	2
14	15	5
46	66	3
133	133	6
9	17	3
94	101	1
84	85	1
14	24	1
90	90	1
36	59	1
133	134	2
117	124	1
8	31	1
18	45	1
90	93	2
116	123	2
103	132	2
13	33	1
66	100	2
20	69	2
23	24	1
101	126	1
36	39	2
7	36	3
88	92	2
11	13	3
33	61	2
112	133	1
26	47	3
46	76	2
15	46	1
3	10	1
111	112	1
1	47	2
28	35	1
21	116	1
46	90	1
83	115	1
86	113	2
102	104	1
59	79	2
107	116	1
100	100	1
48	49	1
55	56	3
9	10	3
87	92	1
78	113	2
6	6	2
50	50	3
65	76	2
22	56	3
29	31	4
62	84	3
83	94	2
42	43	2
8	36	1
33	58	2
56	90	1
82	95	2
29	49	2
9	14	5
24	31	2
109	117	3
54	98	2
106	106	1
3	4	1
16	48	2
63	66	2
119	120	1
45	71	1
90	101	3
13	92	2
21	37	1
76	86	1
7	75	1
7	44	1
9	62	2
93	101	1
121	130	1
128	131	2
88	95	1
13	14	1
9	59	1
26	37	1
45	66	1
11	31	2
61	66	1
11	27	1
39	95	1
25	30	3
12	35	2
31	69	2
23	74	2
93	94	1
28	86	1
47	69	1
11	91	2
22	23	1
48	48	1
77	84	1
42	66	1
31	93	1
6	11	1
2	3	1
5	30	1
71	72	1
21	56	1
34	73	1
78	81	1
47	61	1
72	101	1
86	95	1
5	20	1
110	111	1
59	78	1
104	104	1
16	16	1
36	41	1
