48	49	3
20	20	2
80	80	15
81	86	3
81	96	4
87	87	15
79	84	3
60	61	1
82	82	8
94	94	5
100	100	18
57	58	6
41	41	3
33	33	6
29	30	2
22	22	9
26	32	2
71	71	6
63	63	9
66	66	11
77	78	8
37	37	8
53	59	2
21	25	5
21	21	10
70	71	3
27	34	1
81	81	14
31	36	1
35	35	14
95	95	12
40	41	3
91	91	5
31	42	1
56	56	10
93	93	2
38	38	7
76	76	24
103	103	9
83	88	3
66	67	2
105	105	12
68	70	2
62	63	3
93	101	2
96	96	12
51	51	7
84	86	2
30	30	1
55	55	14
60	60	2
69	69	6
59	60	7
26	27	1
25	25	7
102	103	4
22	48	4
75	92	3
63	70	1
71	72	3
41	48	2
84	94	2
62	62	11
88	88	6
74	104	1
43	43	2
24	24	8
62	92	3
49	49	8
47	49	1
53	53	12
28	28	5
64	64	5
45	45	6
98	98	16
99	99	13
74	74	13
82	85	2
46	47	2
67	67	7
20	21	2
27	27	7
51	58	4
91	92	9
32	32	8
23	23	4
32	34	3
85	92	1
31	31	3
101	101	8
81	97	2
65	65	11
56	62	2
73	73	6
104	104	15
96	97	4
83	85	3
41	44	1
21	45	2
93	97	3
78	78	18
75	75	20
85	85	2
44	45	4
102	105	5
36	39	3
36	38	2
51	59	1
87	89	3
97	99	2
68	68	8
92	92	15
44	44	9
87	100	2
60	68	2
57	57	5
39	39	2
78	79	8
67	68	4
31	32	5
95	100	2
44	48	2
72	73	4
27	28	3
89	96	1
52	61	1
42	42	4
50	52	1
54	54	2
65	67	2
42	51	4
35	36	3
83	86	1
51	52	11
73	74	3
40	40	4
36	36	2
47	47	8
61	61	2
103	104	3
50	50	10
105	106	5
25	26	4
25	30	3
57	60	1
52	52	3
26	26	1
98	99	4
97	97	2
91	99	2
24	32	2
70	70	5
48	48	2
100	101	10
81	106	1
84	85	3
36	37	3
23	24	1
58	58	3
85	86	2
85	87	1
56	57	3
50	53	2
34	34	3
93	95	1
92	94	3
79	79	5
48	50	1
93	94	3
52	53	3
59	59	1
65	68	4
84	84	1
97	98	2
53	62	1
67	69	1
54	80	3
83	83	1
68	69	2
79	94	1
107	107	2
54	57	2
88	94	1
69	70	3
90	90	6
59	102	2
58	63	4
81	100	2
58	59	2
41	42	1
57	59	2
55	56	1
104	105	1
89	89	6
86	87	3
100	102	2
82	96	1
40	48	3
75	76	2
39	45	1
29	29	1
65	66	1
40	49	1
102	102	3
72	72	4
38	39	1
92	93	2
20	29	4
32	59	1
29	40	1
39	47	1
77	79	1
55	59	2
88	89	1
63	74	1
46	46	1
65	70	1
66	69	1
45	46	2
65	81	1
46	67	1
59	61	3
77	77	1
78	80	1
94	106	1
55	63	1
89	92	1
27	29	1
53	54	2
96	101	2
34	38	1
87	93	1
60	65	1
37	38	2
40	71	1
30	32	1
67	101	1
39	46	1
56	70	1
33	35	1
61	64	1
