184	184	9
197	197	2
192	192	7
153	153	7
2	7	1
107	111	5
93	94	14
7	8	6
41	41	14
184	185	4
168	168	14
104	104	9
196	197	6
186	186	4
89	90	1
131	131	11
98	99	2
149	149	7
55	56	9
140	140	10
180	180	12
123	123	6
62	63	3
62	62	9
177	193	3
47	47	8
13	50	5
179	179	12
64	67	1
13	13	6
52	52	4
2	2	6
181	181	12
29	29	5
100	100	19
45	45	6
78	79	3
168	181	7
114	115	4
81	81	1
144	145	12
168	194	3
24	25	1
137	179	2
85	85	4
57	57	12
118	118	3
172	172	4
84	84	3
138	138	10
126	127	6
38	38	7
19	19	12
22	22	2
16	16	5
159	159	6
97	97	7
79	79	3
141	141	10
105	105	9
2	4	4
177	177	12
121	161	2
112	112	8
187	188	5
168	169	2
157	157	14
161	161	11
9	9	15
47	93	1
77	77	9
146	175	2
115	115	9
103	105	7
152	153	3
1	53	10
14	50	1
10	11	3
24	24	8
168	180	3
156	156	5
164	164	4
53	53	3
108	109	8
175	192	3
40	41	3
44	44	5
154	154	16
31	87	3
136	136	9
3	3	18
11	11	10
189	189	17
89	89	7
68	68	5
187	187	15
190	190	16
106	106	9
137	140	4
114	114	5
183	183	5
48	48	6
139	139	5
173	175	2
27	27	5
149	189	2
105	106	2
173	174	6
134	134	10
149	150	6
12	12	5
34	35	4
29	30	1
42	42	7
170	177	2
81	82	2
64	64	5
69	69	7
166	166	3
23	24	2
54	54	9
26	26	3
71	71	1
44	47	4
56	56	4
133	133	11
88	89	3
30	86	4
137	137	2
36	37	2
50	50	7
63	63	4
30	31	2
176	176	15
174	174	9
124	124	7
31	31	6
116	118	5
170	170	3
23	23	7
18	18	9
194	194	6
7	7	6
132	132	4
109	109	10
37	37	2
68	69	1
146	146	3
54	55	2
124	125	5
163	163	4
51	53	4
17	17	6
178	179	2
176	182	4
117	129	2
109	110	5
119	119	12
185	185	8
158	158	2
67	67	4
188	188	10
186	189	1
6	7	1
160	161	4
11	12	1
120	120	5
196	196	7
122	122	1
147	148	4
175	175	5
45	132	2
49	49	8
167	168	8
76	76	5
153	155	1
25	25	5
111	112	2
135	135	10
155	156	3
195	195	9
117	157	2
112	162	1
55	55	4
158	181	2
151	151	5
40	40	5
174	175	10
46	46	5
137	139	7
166	167	1
130	130	3
165	168	8
101	104	2
61	156	2
110	110	3
147	147	8
162	162	13
143	143	7
148	149	5
15	15	2
195	196	2
38	39	2
161	162	1
103	103	5
21	22	5
191	191	14
113	113	8
180	181	2
153	154	2
95	95	2
121	121	7
110	135	1
122	123	1
43	43	9
150	166	1
125	125	3
133	190	8
177	178	3
102	102	5
5	5	6
20	20	1
181	190	2
99	99	2
142	142	3
182	192	4
80	80	3
133	135	5
145	183	3
77	78	3
28	28	1
165	167	2
175	176	3
175	191	1
21	21	4
137	178	1
169	169	5
0	0	5
178	178	5
48	53	2
176	178	1
58	58	6
170	189	2
70	70	7
145	145	8
173	176	4
152	160	2
58	159	3
134	135	9
10	14	2
112	123	2
129	130	3
165	165	15
73	75	4
156	157	1
165	166	2
182	182	2
173	173	6
4	4	8
9	11	3
146	147	3
193	193	6
194	195	1
14	14	4
60	60	2
73	99	3
59	59	5
53	69	1
138	149	4
4	5	2
74	78	2
117	117	7
71	72	2
59	62	1
20	22	2
177	194	2
39	39	4
45	46	4
131	138	3
3	4	3
87	88	1
158	159	2
143	153	1
152	152	2
27	29	1
168	174	4
114	147	1
160	160	4
101	101	10
41	42	1
1	1	8
88	88	10
167	167	2
30	30	7
121	155	2
128	128	3
143	147	3
63	79	1
192	193	2
87	87	1
20	21	7
172	173	2
115	136	1
33	33	5
127	127	1
157	177	3
139	140	2
96	107	1
20	38	2
131	156	1
154	178	4
110	130	1
16	17	1
7	63	1
100	101	2
80	82	3
132	133	3
17	23	1
22	26	1
133	134	1
128	129	9
159	160	2
119	140	2
8	31	1
112	119	3
150	150	3
143	180	1
150	163	2
1	2	3
53	54	1
186	187	3
62	68	1
27	36	2
73	73	1
3	66	2
61	62	1
93	93	4
94	95	6
139	142	1
8	8	4
155	155	5
143	144	3
38	174	1
74	74	3
172	175	1
123	126	1
36	36	1
166	168	2
80	81	2
163	164	2
3	69	2
161	182	2
186	188	1
109	129	1
157	158	4
65	72	1
118	129	1
106	107	1
155	158	1
99	100	2
101	103	3
94	94	1
59	64	1
111	111	2
107	107	1
116	116	3
65	68	2
93	95	1
171	171	2
32	32	1
171	172	2
84	85	1
169	180	1
78	78	1
6	8	2
6	6	1
155	159	3
116	117	2
0	67	3
7	80	1
112	126	1
169	187	1
83	84	1
51	51	2
158	172	4
173	178	1
141	142	1
119	130	3
146	182	2
150	151	1
2	64	1
85	86	2
3	61	1
184	194	1
136	137	4
18	20	2
121	149	1
98	98	1
155	179	2
43	44	1
5	6	1
154	155	1
0	70	1
5	188	1
94	109	1
56	185	2
48	49	1
167	173	1
62	79	3
116	134	1
147	179	1
163	166	1
66	66	1
12	50	1
166	175	1
89	128	1
20	29	1
170	171	1
33	70	1
6	68	1
148	167	1
90	90	1
190	194	1
179	180	1
56	57	1
95	96	1
138	167	1
64	78	1
