6	11	1
81	114	3
120	121	4
84	84	3
31	32	3
54	54	7
93	94	7
107	107	1
133	133	8
85	112	9
12	12	8
50	50	9
94	100	2
62	63	8
106	106	6
34	35	2
43	43	7
58	59	5
130	131	7
107	111	3
113	113	3
31	31	10
21	21	8
50	87	2
3	4	3
109	121	1
55	55	7
60	60	8
90	123	2
65	65	11
72	73	2
97	113	2
62	62	8
74	102	2
99	99	6
61	61	9
112	112	23
11	11	6
80	80	17
123	123	6
28	43	2
119	119	13
32	32	8
127	127	11
123	124	4
85	86	3
6	6	12
26	26	16
111	112	6
63	70	2
103	103	11
104	104	10
53	53	5
60	61	3
14	14	7
83	83	8
105	105	15
96	107	7
2	2	3
73	73	12
91	91	9
96	96	9
90	90	9
12	73	4
68	69	8
25	25	1
49	49	4
102	103	2
11	57	1
82	108	4
121	121	7
84	85	4
26	28	2
73	74	2
117	121	1
69	69	8
115	115	15
95	95	4
132	132	7
132	133	3
17	21	2
27	27	8
44	44	6
63	63	7
82	82	11
101	102	2
84	111	3
57	58	4
59	59	7
4	5	1
54	55	2
64	92	2
76	76	8
18	59	4
129	129	6
108	108	3
82	84	7
28	28	14
20	25	5
76	77	4
70	73	2
63	89	3
96	106	1
45	45	16
72	72	6
126	126	4
114	114	18
55	85	3
70	70	19
3	3	5
128	128	4
30	30	8
1	2	6
65	95	1
117	117	5
117	120	5
85	87	1
70	98	1
130	130	4
75	75	12
0	0	5
67	67	4
37	37	5
131	131	8
102	102	11
56	56	3
79	80	5
89	89	6
125	125	5
120	123	1
86	86	6
120	120	18
127	128	1
82	83	3
118	118	8
77	77	15
74	74	8
97	97	8
69	70	11
87	87	8
134	135	1
32	72	2
108	111	3
18	18	2
57	57	2
79	79	8
15	15	13
119	121	6
46	48	4
95	100	4
86	87	9
5	5	5
93	93	15
119	127	3
79	92	1
29	29	10
63	94	1
110	110	11
67	68	13
13	24	1
16	16	5
57	59	2
55	86	1
7	59	3
100	101	1
92	92	10
32	34	3
134	134	9
11	14	3
87	116	2
13	13	9
86	88	4
115	123	3
88	88	4
124	125	3
33	33	6
64	64	14
107	108	3
6	16	3
88	115	5
116	124	1
66	68	2
66	66	8
7	7	12
8	55	1
113	127	4
109	110	6
65	66	1
76	94	1
82	109	2
112	114	2
60	80	4
116	116	16
23	23	6
17	27	2
71	71	9
101	101	4
90	125	2
88	98	3
122	122	9
4	105	3
98	98	11
61	62	2
71	102	2
54	57	1
81	98	3
80	98	2
48	59	3
133	134	2
9	9	3
24	24	8
23	25	1
106	107	3
100	100	6
58	58	7
27	28	5
124	124	8
81	81	8
68	96	3
83	84	1
116	125	1
118	119	7
117	122	2
17	26	3
52	52	3
47	47	3
95	105	3
63	64	2
106	115	2
68	68	3
20	21	3
22	23	2
2	3	3
34	34	7
65	68	1
60	62	1
26	27	5
45	50	3
65	89	3
13	61	1
93	101	1
4	4	2
12	13	2
29	30	3
110	111	2
22	22	4
111	113	1
6	7	1
7	93	2
66	69	2
129	131	1
35	35	4
117	118	2
123	126	2
119	120	1
94	105	2
65	67	1
135	135	3
47	50	1
55	56	2
17	59	2
52	88	2
78	79	2
38	38	3
107	115	2
38	39	1
17	54	1
123	125	1
21	22	3
9	10	3
52	90	1
7	95	2
45	46	2
109	109	1
85	85	2
126	127	4
42	43	2
90	112	3
85	113	1
84	107	2
72	102	3
94	94	6
115	116	4
98	99	2
90	113	1
103	104	2
66	121	2
6	104	2
42	42	1
26	46	1
30	35	1
13	35	2
129	130	2
10	36	1
76	101	1
18	20	3
61	80	2
86	97	1
16	20	1
7	11	1
70	71	2
111	122	1
117	124	1
61	73	1
112	132	2
78	92	1
114	116	1
123	127	2
65	80	1
130	133	2
96	97	3
14	23	1
108	121	1
55	57	1
43	49	1
52	54	2
87	88	1
24	25	1
30	89	1
98	100	1
63	93	2
125	126	1
104	105	1
75	105	1
36	96	2
116	117	1
77	78	1
29	60	1
62	76	1
33	61	1
115	122	2
65	69	1
28	29	2
36	36	3
100	106	2
33	34	1
11	61	1
25	45	1
19	59	1
92	93	1
20	20	1
122	131	1
30	31	1
21	27	1
15	16	1
111	111	1
56	57	1
63	105	1
19	19	1
7	15	1
