11	26	1
46	46	7
36	37	1
7	13	1
74	74	10
19	19	1
88	88	5
109	109	7
115	115	6
78	79	10
65	65	3
37	40	1
77	77	4
31	31	9
81	87	2
66	66	3
8	8	10
33	33	4
45	79	2
124	124	4
75	75	9
104	104	2
122	122	4
27	35	2
61	63	5
57	57	2
47	47	12
38	40	1
110	110	3
117	118	2
62	72	3
12	12	2
29	29	10
57	58	2
11	11	2
98	100	4
112	112	2
7	11	1
89	92	2
80	80	7
60	69	5
34	34	11
131	131	9
98	99	2
5	40	3
111	122	4
38	106	6
4	40	2
27	79	1
41	42	1
42	42	6
73	73	6
99	99	5
29	70	2
13	13	5
60	60	7
33	71	1
35	36	2
129	131	1
120	120	2
20	46	3
97	98	4
109	110	1
63	64	3
79	91	3
94	94	2
26	49	4
22	24	2
78	78	5
92	92	7
69	69	5
30	30	7
82	83	1
6	91	3
65	67	1
91	91	1
3	3	3
11	27	2
81	101	3
85	94	2
10	14	3
77	84	4
27	27	4
121	121	5
36	36	3
25	33	1
15	15	5
97	97	5
100	100	2
45	45	3
28	28	5
76	82	1
27	90	2
9	40	4
5	5	3
101	101	3
40	40	2
24	25	3
4	4	2
96	96	3
21	25	4
85	85	1
22	23	2
125	125	3
47	59	1
33	34	4
56	58	1
90	99	3
37	37	1
70	74	1
64	64	11
63	63	5
116	131	2
117	117	3
92	93	4
26	30	1
16	16	3
97	99	1
72	73	2
6	6	2
57	83	1
54	54	1
34	65	1
48	48	3
10	61	3
20	21	1
61	61	4
32	70	2
116	120	1
116	130	1
79	80	1
12	14	2
41	41	1
68	69	2
85	98	1
11	93	1
84	84	1
68	68	4
58	58	3
25	25	4
35	35	9
81	106	1
116	116	4
43	83	1
95	95	2
9	9	3
40	106	1
16	22	3
98	98	1
11	12	2
93	93	3
18	18	4
39	39	1
17	17	5
55	55	3
38	38	1
6	93	1
108	108	1
56	57	3
24	82	4
15	79	1
44	44	1
130	133	2
83	85	3
76	76	1
44	63	1
28	29	1
9	10	2
26	26	2
83	83	2
95	96	1
56	105	1
61	86	1
90	90	2
105	107	2
27	66	2
18	59	1
81	81	1
7	8	2
15	16	2
45	80	1
62	62	1
128	130	1
21	32	2
8	10	1
128	128	1
47	93	2
4	20	2
107	107	1
86	86	1
3	4	1
15	43	1
27	28	1
112	119	1
67	67	1
2	118	1
86	94	1
49	49	1
104	105	1
20	20	3
19	20	1
26	82	1
10	10	2
41	107	1
38	39	1
90	92	1
73	74	2
31	32	1
106	106	2
46	59	1
69	70	1
14	14	1
29	33	1
123	125	1
11	47	1
70	70	1
123	123	2
129	130	1
42	43	1
92	134	1
48	49	2
79	134	1
45	124	1
12	13	1
115	116	1
23	25	1
76	77	1
64	77	1
83	105	1
82	82	1
7	7	1
103	104	1
78	101	1
15	23	1
32	32	2
