164	164	7
74	75	1
169	169	13
149	150	24
162	162	9
128	128	7
145	149	2
119	120	9
138	138	6
97	97	14
131	131	15
89	89	10
23	23	9
172	173	3
115	116	2
139	140	4
19	20	10
158	158	5
62	63	2
175	175	10
52	53	5
63	63	13
160	161	2
172	172	6
73	73	9
32	43	4
126	126	7
27	90	1
60	60	11
154	154	16
103	103	11
177	177	1
167	168	7
149	149	12
14	14	19
44	44	8
128	129	3
113	113	6
12	15	3
36	36	20
3	3	14
142	142	6
34	34	9
37	37	14
146	146	14
67	134	1
111	112	3
71	71	17
12	20	2
150	150	17
92	93	9
176	176	8
140	142	1
117	117	5
10	10	11
11	11	14
38	38	18
164	165	7
65	65	12
159	161	1
76	76	6
32	34	1
119	119	14
174	174	9
79	79	6
32	32	24
15	16	5
109	142	4
22	23	7
85	89	7
141	141	7
32	36	1
25	26	6
126	128	2
131	143	4
102	103	2
42	43	5
133	142	2
132	143	4
115	115	8
123	123	14
122	131	5
108	108	5
3	4	16
10	11	2
126	147	2
147	147	3
30	30	19
91	91	7
168	170	4
173	173	18
12	12	6
40	40	17
39	39	17
36	38	11
98	98	4
0	0	19
9	9	26
123	125	2
122	122	6
15	44	1
129	129	9
144	144	11
1	16	1
130	131	1
134	159	2
36	151	2
19	19	4
174	175	2
41	41	7
52	52	13
116	117	6
13	13	9
96	97	5
31	31	18
42	42	16
118	124	1
32	33	12
134	134	8
16	16	10
132	132	3
132	133	2
66	66	5
45	45	7
40	41	1
157	157	4
22	22	12
130	130	10
124	147	2
159	160	1
143	143	8
127	127	2
8	8	12
98	124	3
74	74	8
127	166	1
95	96	2
111	111	8
100	100	1
136	143	6
130	143	1
152	152	6
56	56	14
143	152	4
92	94	8
105	108	3
28	28	13
25	25	8
24	24	6
77	102	2
114	115	5
15	15	8
76	77	2
6	6	6
121	121	12
81	81	1
103	139	2
112	141	1
136	139	5
78	79	6
112	112	8
178	178	4
151	151	4
32	40	3
116	116	9
17	17	9
88	88	2
83	83	7
165	166	2
56	93	6
9	11	4
38	39	4
168	168	7
75	75	13
93	94	3
31	33	1
64	64	5
106	149	2
161	167	1
167	167	9
133	134	6
7	8	6
59	59	3
134	142	5
44	45	4
132	147	2
43	43	13
81	82	2
124	124	13
171	171	7
83	85	3
168	169	2
75	120	3
131	158	2
35	35	10
77	87	2
54	54	2
18	21	3
85	86	1
159	175	3
159	159	9
50	50	4
54	56	1
66	67	11
104	104	4
102	102	3
31	32	5
36	37	5
145	150	3
67	67	3
14	15	5
136	137	2
106	106	4
57	57	5
100	101	1
64	66	2
133	133	1
55	57	3
58	59	3
23	24	8
59	60	5
147	148	3
135	135	12
107	107	7
110	111	6
172	176	1
127	128	1
40	42	2
7	7	6
28	29	6
171	172	3
90	90	7
34	43	1
29	30	4
65	66	7
78	78	4
9	10	6
118	118	7
11	13	4
4	4	3
148	168	1
5	5	4
31	37	3
124	125	5
17	18	6
29	29	6
134	138	6
129	130	7
4	6	2
12	13	3
136	142	1
99	100	5
72	73	5
27	27	8
57	90	3
102	119	4
121	135	6
77	77	3
56	57	1
3	14	3
109	109	4
4	5	6
140	158	2
5	114	2
135	138	3
124	140	5
179	179	6
21	21	3
161	162	2
155	174	1
34	35	1
145	145	9
128	167	3
23	25	1
175	177	2
85	85	6
1	2	8
116	141	4
94	94	4
98	102	3
64	65	3
96	96	6
170	170	6
103	107	2
95	95	5
2	3	3
102	124	1
18	18	6
37	38	4
135	154	3
134	140	1
6	13	2
132	145	4
9	12	5
29	31	1
150	153	1
130	146	3
33	43	1
112	113	3
6	11	2
163	164	2
114	114	7
33	33	13
123	124	3
141	143	2
112	133	2
93	93	14
135	136	2
101	124	1
146	155	3
106	107	4
140	140	7
113	114	6
73	96	1
13	15	3
175	176	1
58	58	2
72	72	10
169	170	1
93	95	4
173	174	6
134	171	1
119	121	1
92	92	1
121	123	5
87	90	2
22	25	2
39	40	5
68	68	6
57	58	1
137	137	2
17	68	3
93	107	1
141	142	2
133	145	1
26	26	3
155	155	1
26	31	2
107	108	2
84	84	5
90	92	2
153	153	8
120	122	3
145	147	3
2	29	1
21	23	1
126	140	3
45	46	1
110	112	2
108	109	4
15	27	2
106	119	2
51	52	2
27	28	7
21	22	3
1	6	2
82	82	5
5	7	1
147	165	1
5	6	5
37	43	1
131	132	3
10	13	2
144	156	1
104	110	3
117	141	5
15	36	1
72	83	3
54	65	3
150	151	2
139	139	9
122	123	3
126	127	2
128	130	3
131	141	1
5	12	2
73	74	2
65	76	1
138	139	4
143	145	1
156	156	2
34	36	1
10	14	3
180	180	3
55	55	4
120	153	1
17	27	1
120	120	3
14	40	3
173	178	2
0	1	2
72	75	3
8	13	3
22	26	1
80	81	4
177	178	1
86	90	3
125	125	9
120	121	2
132	135	3
31	41	2
105	105	2
38	40	2
52	54	2
155	177	2
112	115	3
27	31	3
153	174	2
62	62	3
43	45	4
127	142	2
162	164	1
146	147	2
160	160	4
37	39	1
148	148	1
14	68	1
103	109	2
137	141	3
64	84	1
118	119	1
101	102	1
54	59	2
73	80	1
67	68	3
51	51	4
24	31	2
120	136	1
3	20	1
26	30	2
142	143	1
131	142	1
98	99	2
166	169	3
35	36	1
144	145	2
125	126	2
32	89	1
165	165	4
26	27	1
122	148	1
2	11	2
154	155	2
30	31	4
107	111	1
9	97	1
15	20	2
1	1	3
18	19	3
0	94	1
70	71	2
133	137	1
5	113	2
100	103	1
63	65	1
103	108	1
134	143	1
35	43	1
116	119	1
53	53	1
155	156	2
145	146	1
73	83	1
104	111	3
14	17	1
9	114	1
166	166	2
24	27	2
77	78	1
72	81	1
110	110	1
80	86	2
64	88	1
0	10	3
130	150	1
80	80	1
101	103	1
104	139	1
90	91	1
90	93	2
136	136	2
146	153	1
163	163	1
113	115	1
101	101	3
44	50	2
41	42	1
101	104	1
65	68	1
11	12	1
103	110	1
136	172	1
6	7	2
161	170	3
166	167	1
2	15	1
133	149	1
134	136	3
32	39	1
153	154	1
146	174	1
137	139	1
157	158	1
139	141	1
107	109	1
128	142	1
28	31	1
2	2	1
2	4	1
39	58	1
94	95	1
