61	61	24
43	43	5
16	16	16
9	9	20
76	76	32
7	7	19
45	45	27
41	41	25
58	58	20
72	72	9
27	27	24
39	39	31
73	78	1
57	57	22
15	34	8
33	33	13
53	53	16
38	38	23
59	59	24
17	17	41
65	65	23
64	64	29
32	34	2
78	78	22
47	48	6
46	46	34
54	69	3
50	51	2
71	71	6
10	10	13
32	33	6
73	74	8
46	47	10
47	63	1
63	63	25
75	77	7
13	13	7
16	39	3
19	19	32
73	73	33
60	62	3
77	77	8
62	69	2
17	18	4
9	10	2
11	12	2
55	55	21
0	0	19
11	11	27
5	7	3
12	12	20
58	59	8
30	33	4
63	64	19
74	74	18
67	67	16
42	42	24
11	15	3
56	65	4
56	57	5
56	56	2
52	52	19
26	26	13
54	54	12
71	72	5
5	6	5
80	80	28
31	31	2
40	41	7
50	67	2
40	40	30
3	3	16
20	20	14
29	29	12
66	67	9
14	14	8
70	70	7
8	8	20
35	35	29
66	70	5
4	4	26
50	50	16
39	40	7
44	45	3
7	9	5
26	27	8
49	62	1
25	25	4
59	60	5
37	37	20
6	6	17
75	75	15
2	2	18
28	28	32
51	53	4
12	14	4
64	65	4
79	79	21
49	54	6
62	63	8
1	1	14
72	73	6
36	36	14
47	47	17
48	57	2
1	2	6
48	48	15
9	11	3
32	32	9
29	32	2
61	72	1
42	67	1
6	7	3
77	79	1
36	37	12
16	35	9
37	38	8
51	51	22
46	62	7
3	6	3
11	31	3
48	49	2
11	33	3
12	33	4
13	33	4
49	49	7
60	60	13
73	76	2
13	14	2
55	56	6
57	58	10
30	30	8
51	52	4
45	61	4
53	69	3
33	34	5
5	5	10
16	74	6
55	65	4
68	68	6
74	75	5
42	43	4
41	43	3
62	62	12
68	69	8
70	71	7
21	21	9
3	80	2
2	3	8
7	8	5
28	30	2
12	13	3
4	6	4
45	46	12
50	52	2
77	78	6
74	76	2
15	33	1
56	73	1
52	65	2
49	70	6
8	15	1
48	54	3
46	61	4
34	34	8
64	66	2
28	29	6
3	4	5
81	81	2
53	54	2
51	65	4
69	71	2
75	76	8
16	17	4
60	61	10
45	47	2
58	60	5
11	32	2
6	8	3
10	32	2
68	70	2
54	56	2
54	66	3
80	81	3
6	10	2
44	47	1
10	12	2
11	13	2
35	36	3
15	15	4
63	66	1
21	25	1
9	17	1
59	61	1
38	39	5
63	67	2
48	63	1
36	39	1
19	26	1
69	69	2
3	5	2
52	54	2
67	68	2
10	17	1
18	18	2
51	66	1
54	55	2
54	68	2
64	67	3
44	44	8
9	18	1
49	51	2
10	11	1
27	28	2
66	73	2
76	77	3
74	77	1
61	63	1
67	70	1
49	50	1
66	66	1
47	57	1
65	66	3
16	34	3
57	61	1
49	52	1
33	35	3
8	9	1
38	41	1
48	55	1
4	5	1
49	53	1
34	40	1
45	48	1
3	73	1
11	21	1
9	15	1
36	40	1
