60	63	4
33	33	8
174	175	6
91	91	2
71	82	3
19	20	1
175	181	3
141	141	6
21	22	3
148	151	3
84	85	3
106	106	5
182	182	5
14	14	3
116	116	3
61	62	5
148	149	3
132	132	3
117	117	9
143	190	1
124	126	2
101	101	8
157	157	5
17	20	1
46	46	5
129	129	7
8	16	1
114	114	1
176	181	1
151	152	1
124	124	6
88	88	1
153	184	1
25	25	1
145	145	7
43	43	3
55	56	1
178	181	1
149	149	2
148	148	6
12	12	1
0	0	2
140	182	3
158	158	4
79	79	2
155	156	7
47	48	3
129	159	3
39	39	6
156	157	2
40	40	2
167	172	3
190	190	1
87	96	2
29	29	1
121	121	3
17	18	4
92	92	8
151	184	2
109	110	4
84	84	4
100	100	1
96	98	1
123	123	3
31	32	1
77	77	4
137	137	2
37	37	3
172	174	2
53	53	7
29	30	1
71	71	5
53	55	3
138	138	3
23	23	5
99	99	6
58	59	6
54	55	2
6	6	2
35	58	3
36	42	1
69	70	1
52	52	6
121	122	1
35	35	2
157	158	1
62	66	1
72	72	6
110	110	6
69	81	2
154	154	8
149	155	3
138	178	3
1	1	4
61	82	2
53	103	1
99	124	2
122	123	1
188	188	4
30	60	1
74	74	2
165	170	5
151	154	1
177	177	8
104	107	3
126	127	3
14	15	2
88	109	2
128	129	3
128	128	8
181	182	5
70	76	2
75	75	5
184	184	2
183	183	5
72	73	1
174	180	2
86	86	1
59	59	2
135	135	5
65	68	2
94	94	3
22	23	3
112	115	3
79	81	1
174	176	4
119	119	3
172	175	2
152	152	9
91	106	1
33	35	1
67	71	2
16	17	2
147	147	3
81	81	3
135	137	1
66	67	3
145	150	2
150	150	4
53	54	3
128	133	2
78	80	1
167	171	2
78	78	3
110	151	2
163	164	3
96	97	3
35	37	2
168	168	3
125	148	2
73	73	1
148	174	1
87	87	2
5	5	2
171	171	3
9	12	3
11	11	1
144	146	1
1	2	2
93	93	3
104	104	1
125	125	2
62	64	4
105	105	4
48	48	2
185	185	7
71	72	1
90	90	2
140	140	1
30	30	2
77	89	3
40	41	1
8	18	1
15	15	4
163	163	1
48	84	1
151	151	4
133	133	4
97	100	3
73	102	1
7	7	3
60	62	1
82	102	2
161	161	2
36	37	1
180	180	1
134	134	2
38	75	2
42	43	1
136	136	1
171	172	2
135	136	2
29	40	1
156	156	1
30	52	1
175	175	4
30	31	3
164	164	4
139	139	2
95	112	2
114	117	2
98	98	3
138	139	1
143	188	2
120	120	3
89	89	2
162	163	1
82	83	2
32	32	1
82	82	1
63	64	1
124	125	3
165	167	1
16	16	5
53	127	2
118	118	3
54	54	2
2	68	2
147	182	1
110	112	3
18	20	3
152	153	2
113	113	2
8	74	1
94	113	4
68	76	1
110	115	1
1	39	1
104	106	1
96	96	1
80	80	1
35	42	3
61	65	1
55	81	1
55	80	2
115	116	1
115	115	1
179	190	1
27	28	1
103	103	1
59	64	1
173	175	1
180	181	1
97	97	1
122	122	3
102	102	3
10	10	3
91	121	1
10	12	1
145	146	1
93	94	1
120	130	1
99	112	2
84	111	1
87	89	1
64	64	1
16	54	1
112	113	1
173	173	1
174	174	1
189	189	1
45	71	1
105	106	1
57	57	2
104	105	4
108	108	3
169	169	1
153	153	2
92	94	1
112	112	1
37	57	1
77	78	1
85	87	1
31	31	1
156	177	1
158	161	1
169	170	2
95	99	1
125	126	2
139	140	2
36	44	1
114	122	1
19	19	1
146	190	1
80	81	1
32	33	1
134	142	1
8	44	1
75	76	1
186	186	1
96	121	1
139	179	1
78	95	1
