2	2	11
26	29	2
5	12	5
128	130	2
41	41	7
15	15	18
14	14	17
110	110	6
178	178	5
166	166	4
23	23	18
158	158	14
61	61	6
86	87	2
12	12	9
67	67	5
96	97	6
70	70	1
68	68	12
14	39	2
34	34	13
113	113	3
6	14	3
51	51	2
145	145	11
114	115	5
18	19	8
43	43	15
161	162	5
35	44	8
5	9	1
154	154	9
80	80	6
144	144	3
21	21	2
14	24	3
81	81	7
31	31	22
72	78	4
27	27	20
13	24	5
169	169	8
127	128	2
8	16	1
146	161	4
102	102	10
33	33	13
19	19	5
86	86	3
147	147	15
116	116	5
107	107	12
146	146	6
29	29	5
135	136	4
65	66	2
120	120	6
8	8	18
124	124	8
8	9	5
135	135	10
114	117	2
168	168	6
29	99	4
11	30	1
6	6	5
11	22	1
166	167	3
153	159	1
116	117	2
116	118	1
120	151	1
3	26	2
22	22	8
179	179	2
59	75	2
57	58	3
53	54	1
28	28	14
94	133	2
75	75	6
18	21	2
42	42	12
9	25	2
24	25	2
111	119	4
49	63	1
11	11	10
45	45	14
150	157	1
32	33	9
6	7	5
172	172	6
5	7	6
93	94	2
143	145	5
2	8	2
126	126	2
123	123	2
2	3	4
11	12	12
25	26	6
139	139	5
3	8	4
106	106	7
9	38	3
109	109	4
165	165	4
119	119	5
177	177	3
76	84	5
35	35	15
90	93	1
172	173	2
25	25	10
97	98	4
13	13	16
99	100	3
127	127	7
105	106	3
87	87	3
12	13	8
72	72	5
110	111	5
85	85	6
117	128	2
51	63	4
8	15	3
21	22	6
26	28	5
60	61	1
140	140	6
114	128	4
123	124	6
155	155	6
151	152	2
84	97	1
134	136	1
23	24	4
142	143	3
173	173	3
19	24	3
56	56	9
118	122	1
126	128	4
30	30	15
100	135	1
167	167	10
80	83	2
33	37	2
157	157	5
95	148	3
88	88	5
37	38	3
145	147	5
12	30	5
163	163	6
7	7	6
138	172	1
131	153	1
142	142	10
107	121	1
9	9	12
32	40	3
11	23	3
130	134	4
3	41	1
77	77	4
59	59	6
26	62	5
17	17	6
60	135	1
54	54	5
3	4	3
23	111	2
117	119	4
113	127	1
87	107	6
26	39	2
115	118	3
22	23	2
7	44	3
160	160	15
30	31	4
122	122	8
154	157	1
5	5	8
89	89	2
95	95	9
13	39	1
155	156	1
7	10	5
119	121	2
87	102	2
168	169	3
174	174	4
153	153	2
82	82	1
22	24	5
98	109	1
17	18	5
100	100	6
32	36	2
72	77	2
150	150	5
91	91	6
2	40	1
24	24	13
87	97	2
103	103	2
43	44	14
39	39	10
31	35	2
133	137	2
55	56	1
34	63	1
6	33	1
73	75	3
40	41	2
115	116	8
129	129	7
11	13	6
4	41	2
15	24	3
78	79	2
113	115	1
55	55	5
43	64	1
171	171	3
150	151	2
18	18	13
159	159	7
151	151	3
79	79	5
35	36	2
93	93	8
160	164	3
9	31	1
17	23	6
88	89	2
36	36	5
52	53	6
13	15	2
131	172	4
90	90	7
132	132	5
65	65	5
142	145	5
99	99	13
128	128	6
2	7	2
14	15	2
92	92	4
10	32	1
13	42	1
66	66	4
108	108	3
53	53	11
4	11	2
132	133	1
38	38	9
63	63	2
83	83	9
130	157	2
29	30	3
112	112	6
16	30	1
19	21	1
10	11	8
42	43	3
35	60	3
49	50	2
28	29	7
145	156	3
10	13	2
58	58	7
39	40	3
44	44	4
93	105	1
27	33	2
54	55	1
164	164	2
26	42	3
101	103	3
113	155	4
44	45	2
111	113	3
10	10	3
125	153	4
128	156	2
161	161	4
8	29	1
118	127	1
123	179	1
42	63	3
28	83	3
2	25	3
170	170	5
99	131	2
20	20	1
3	3	6
76	76	8
97	130	3
68	83	1
15	43	3
72	80	3
25	35	2
130	158	1
26	26	3
31	34	1
101	107	5
131	131	4
104	106	2
9	61	3
82	91	1
176	176	5
154	155	2
59	62	2
3	7	1
144	145	1
21	35	2
96	100	4
32	32	9
121	154	7
134	134	5
73	73	2
128	153	2
10	14	1
64	66	2
6	17	4
10	139	4
103	105	1
22	33	2
149	149	6
71	71	2
143	143	1
67	68	3
10	29	3
100	101	5
58	135	1
174	175	4
71	72	6
5	26	2
133	133	9
4	4	5
171	179	1
16	17	2
5	14	2
3	43	3
68	75	2
60	60	2
41	42	5
96	96	3
178	180	1
5	25	2
134	155	1
27	28	2
103	128	1
40	40	3
121	122	1
7	20	1
175	177	2
124	125	3
131	159	2
49	56	2
84	84	3
111	111	2
16	16	3
101	101	6
116	155	5
4	12	1
156	177	1
164	166	3
34	68	2
19	20	4
130	135	1
97	109	1
64	76	2
169	174	4
159	162	1
33	38	1
1	1	3
12	37	2
129	130	1
10	12	3
162	163	3
106	107	9
116	128	4
141	141	2
156	169	2
173	174	1
141	145	1
103	125	2
178	179	3
66	67	1
98	99	2
31	38	6
99	105	1
144	156	1
118	148	1
96	98	1
162	162	2
137	137	5
5	41	2
120	157	2
106	127	5
156	156	4
16	18	1
25	63	1
25	29	3
32	43	1
171	172	2
53	71	3
0	0	3
101	126	1
112	149	1
72	93	2
66	78	3
8	11	1
1	61	1
90	92	1
132	137	3
63	64	1
34	35	2
92	94	1
2	9	1
131	132	1
132	142	1
74	79	2
32	37	1
6	41	3
56	72	1
59	60	1
39	58	3
52	52	5
12	36	1
136	136	2
83	85	4
80	81	2
117	117	3
152	164	1
10	15	1
90	94	1
143	144	2
2	33	3
5	10	3
163	164	2
64	64	3
101	125	1
12	14	1
94	94	4
89	90	1
13	14	2
76	104	1
38	60	1
6	13	1
52	96	1
36	54	1
22	42	1
167	176	2
53	77	2
159	161	1
15	30	2
13	21	1
51	52	4
119	150	2
102	159	1
144	147	1
19	31	2
14	41	3
120	153	1
77	131	1
34	105	1
106	128	2
116	119	1
67	74	3
91	93	1
157	158	3
107	120	1
146	157	1
148	148	2
131	134	1
113	153	1
111	126	2
175	176	1
5	39	1
20	22	1
75	84	1
5	6	1
136	144	1
18	25	1
5	60	1
24	64	3
87	89	2
10	30	1
29	31	1
90	117	1
94	130	1
120	156	1
90	124	2
32	38	1
169	175	1
104	104	2
164	165	1
138	138	2
130	173	1
0	4	1
50	52	1
20	23	1
90	91	2
14	29	1
9	10	1
57	57	1
56	76	1
10	18	1
9	14	1
107	109	2
26	27	1
8	19	1
19	29	2
158	159	2
56	57	2
114	126	1
133	134	1
145	164	1
102	103	1
55	58	1
169	170	1
11	14	2
145	165	2
1	8	4
82	83	1
5	8	1
146	162	1
90	118	1
43	45	2
51	54	1
140	158	1
130	130	1
104	105	1
24	26	1
127	129	1
52	54	1
149	150	1
78	78	2
1	6	1
134	158	1
148	149	1
1	45	1
110	119	1
140	169	1
155	178	1
16	19	1
180	180	1
2	23	1
36	37	1
11	40	1
29	103	1
