27	58	3
6	6	13
145	146	4
127	127	11
139	139	9
106	106	6
110	113	5
154	175	6
50	161	3
38	38	16
18	20	4
11	12	6
132	132	10
29	40	3
159	160	3
150	151	2
78	78	5
80	91	2
25	25	3
114	114	6
100	101	6
52	62	1
136	156	7
171	171	17
124	125	6
81	81	11
130	131	3
8	8	21
28	28	7
145	145	6
41	42	6
30	30	12
18	22	5
67	97	1
67	110	1
90	91	4
3	5	5
127	130	2
119	128	1
67	80	2
73	73	8
109	109	9
57	58	2
19	21	7
55	59	3
41	41	13
100	100	6
83	107	5
11	11	16
5	6	10
57	57	5
89	89	4
136	136	14
33	34	11
121	129	3
88	94	3
133	133	5
33	33	11
112	112	14
165	165	11
9	24	3
135	135	6
54	54	7
24	25	6
45	45	14
25	26	19
144	163	3
32	32	14
20	136	6
87	109	1
64	64	11
122	144	1
149	149	21
20	25	2
147	148	5
34	36	3
179	179	10
130	130	4
59	59	6
71	72	3
7	10	8
26	26	19
85	85	6
155	155	10
53	53	7
21	58	1
113	118	3
113	114	10
16	16	8
36	37	11
7	8	3
3	3	9
140	144	1
2	22	2
140	176	2
2	45	2
50	50	7
43	93	2
7	7	11
153	170	1
67	67	4
10	10	11
22	43	2
2	2	12
22	22	23
148	168	4
27	27	15
17	17	14
29	29	15
167	167	6
33	35	6
83	85	4
6	7	13
44	45	4
72	72	11
164	165	3
74	74	3
5	5	19
168	168	13
80	98	2
120	120	14
117	117	3
177	177	4
76	77	9
128	130	1
94	94	10
24	24	5
8	9	6
18	19	3
88	88	13
19	19	11
71	111	2
14	14	20
173	173	3
0	18	1
90	90	5
107	110	2
4	5	5
108	108	4
0	1	3
174	174	11
43	44	3
153	153	6
44	44	9
13	68	4
96	96	4
160	160	3
126	126	8
9	9	9
144	144	2
4	6	4
137	138	3
22	44	3
82	82	5
123	123	3
61	122	1
142	142	4
99	100	2
28	30	2
116	116	14
9	10	6
112	113	2
50	106	3
76	76	8
63	112	4
125	125	2
80	80	8
147	147	11
11	13	4
55	57	2
159	159	5
169	180	1
61	124	3
163	163	11
93	93	6
155	156	8
13	20	1
84	85	10
86	86	8
63	63	3
52	53	10
98	98	2
115	115	2
156	156	7
148	152	2
75	75	12
49	50	1
36	38	2
121	121	3
166	166	6
124	124	3
76	133	8
42	42	14
91	91	11
138	177	1
107	107	2
136	152	2
137	141	1
21	91	5
52	52	8
20	21	5
18	18	6
137	137	14
15	15	11
66	67	4
149	170	2
89	100	1
23	23	23
62	63	2
14	73	2
88	89	8
16	18	1
132	146	2
115	129	2
71	71	4
177	178	6
15	16	7
15	17	4
163	164	1
5	7	8
40	41	2
101	101	10
149	150	2
104	104	8
98	131	2
28	59	2
56	56	6
2	4	1
101	106	4
131	131	7
8	10	2
35	35	29
67	114	1
92	92	5
20	20	2
102	114	3
24	26	3
55	148	2
157	160	2
3	4	4
97	97	7
49	159	2
21	21	4
4	4	15
20	34	4
117	127	1
85	87	5
156	157	3
162	168	1
126	128	5
34	34	5
166	169	2
64	68	1
151	153	3
28	29	1
161	161	10
124	129	2
162	162	8
61	61	8
161	164	7
142	143	10
60	64	2
148	148	5
83	83	2
82	84	1
147	164	2
43	43	8
39	39	6
31	32	2
13	13	13
29	43	2
78	79	3
162	165	4
169	175	2
164	167	4
62	62	7
5	40	2
37	37	8
111	111	14
10	11	1
154	155	5
31	31	14
175	175	9
68	159	4
27	29	1
9	15	3
0	0	10
106	111	1
85	86	7
165	166	2
82	97	5
21	23	4
140	140	12
143	147	1
36	36	7
132	137	1
56	136	3
172	172	9
16	25	1
42	107	2
63	66	2
129	129	2
37	38	4
60	60	5
167	169	1
66	66	7
154	154	4
30	31	3
81	82	2
122	122	8
26	27	4
96	110	2
164	164	3
2	3	3
68	80	1
68	71	2
118	160	3
143	146	4
141	144	2
115	118	3
153	157	2
134	134	8
19	45	3
168	170	2
64	67	1
150	150	1
120	121	3
102	106	1
20	63	2
3	23	2
65	65	10
45	154	1
27	31	3
6	8	2
16	74	1
169	170	2
30	38	3
105	105	2
129	130	6
87	157	2
77	77	7
64	65	1
64	94	1
125	143	2
39	40	6
29	30	4
96	111	2
158	159	4
167	168	3
23	31	4
14	107	2
88	96	1
14	15	3
138	138	7
60	61	1
106	107	3
64	121	1
38	39	1
141	143	1
52	70	1
146	147	1
21	50	2
95	159	2
141	141	2
83	84	3
14	23	4
123	124	5
23	25	3
167	179	3
28	31	2
2	7	1
158	158	6
9	22	4
134	149	2
119	121	2
17	42	1
115	123	2
25	34	1
163	167	2
68	68	5
116	128	1
105	127	3
40	40	2
54	118	2
60	126	1
150	162	3
1	1	4
67	68	1
58	58	2
171	172	3
77	78	1
119	120	1
58	59	3
55	55	1
84	84	6
24	132	3
12	13	2
119	119	2
29	31	2
133	137	1
63	118	1
68	83	2
123	125	1
61	97	1
146	146	3
128	128	4
151	157	2
8	13	1
34	37	2
146	166	1
115	117	2
146	156	1
55	56	1
122	124	1
146	163	2
18	25	2
85	107	1
169	169	1
23	36	1
16	45	1
146	154	1
12	12	6
154	170	3
135	136	1
61	62	1
56	142	3
86	99	2
140	150	1
3	9	1
154	174	1
114	134	2
31	136	2
49	85	2
152	153	3
102	102	2
94	105	2
1	131	2
145	167	1
68	70	1
95	95	2
88	100	2
110	112	1
101	102	1
32	36	4
8	174	2
2	5	4
1	8	1
15	80	3
56	57	1
144	162	1
109	111	1
123	129	1
12	57	1
9	13	1
144	155	1
170	174	1
12	18	1
73	79	1
65	160	1
99	99	1
91	107	1
28	35	2
23	43	3
78	94	3
12	21	1
89	90	1
119	163	1
15	73	1
50	151	1
8	45	2
143	144	2
17	131	2
83	109	1
22	23	6
58	92	3
93	94	2
160	162	1
132	133	2
103	106	2
65	66	1
24	28	2
100	102	2
75	90	3
53	54	1
66	68	2
52	162	2
116	118	2
158	180	1
109	112	2
104	105	1
153	154	1
74	100	1
64	85	1
134	135	2
104	108	2
134	136	1
113	160	1
170	175	1
1	2	3
77	90	1
151	151	1
11	14	2
59	92	3
60	68	1
25	33	2
4	11	2
160	165	1
61	67	1
86	87	1
121	125	1
49	49	1
14	42	2
18	21	2
37	40	1
79	79	1
64	116	3
59	148	2
31	37	1
90	96	2
163	166	1
22	45	2
103	112	2
60	67	1
34	35	1
179	180	1
23	28	1
157	158	1
96	97	1
63	115	1
10	46	1
23	27	1
102	112	1
111	123	1
87	87	2
42	96	1
176	176	2
89	155	1
74	75	1
136	137	1
143	143	1
110	123	1
74	112	1
114	137	1
17	40	1
2	8	2
14	43	1
124	130	1
144	145	4
75	100	1
150	166	1
1	130	1
25	50	1
116	117	1
103	103	1
22	46	1
71	106	1
120	164	1
43	45	1
65	153	1
65	80	1
50	51	1
