58	58	10
53	53	5
44	44	4
98	98	9
37	38	3
56	56	5
45	51	1
51	52	3
79	80	4
66	77	2
57	57	7
48	50	2
76	76	11
79	79	6
60	61	3
25	25	4
65	65	6
36	36	6
73	73	8
71	71	11
69	69	1
80	80	8
26	27	2
25	53	4
70	70	16
59	59	5
94	98	1
91	91	6
54	54	2
83	84	1
48	48	8
85	85	4
27	27	5
64	64	5
42	58	2
41	41	14
33	36	1
87	87	1
58	59	5
91	97	2
58	61	2
99	99	3
92	92	4
84	84	5
77	78	2
46	46	6
94	94	8
92	94	6
40	40	5
100	100	6
24	26	3
75	76	1
80	93	2
77	77	2
59	77	2
24	53	1
86	88	3
89	93	2
86	86	6
22	52	2
81	98	1
28	29	1
80	83	1
78	78	3
35	36	4
60	84	3
84	101	2
81	88	1
20	22	2
64	65	4
88	89	1
56	57	1
33	33	4
52	52	3
91	99	1
79	84	4
101	101	4
51	51	5
99	100	2
88	88	6
89	89	1
48	75	2
95	96	3
36	38	2
35	49	3
83	86	3
81	81	3
61	61	5
83	99	2
72	72	5
47	48	3
68	68	8
83	83	8
49	69	2
47	56	4
29	33	3
20	53	1
80	100	1
31	53	1
93	94	3
67	68	3
90	91	4
35	45	3
102	102	5
97	97	6
79	96	2
30	51	1
96	96	3
35	35	1
56	79	1
49	49	2
95	95	7
31	31	5
59	83	1
82	94	2
22	23	1
84	88	2
62	62	2
48	49	7
97	98	3
93	93	1
58	60	3
27	33	2
23	25	1
41	52	1
73	74	1
74	74	2
83	97	2
43	74	1
42	48	2
81	97	2
50	50	1
44	45	6
66	67	2
34	34	1
67	67	2
28	28	2
40	74	3
39	39	2
95	100	1
57	59	4
20	21	1
39	79	1
40	78	2
46	47	5
63	63	2
90	90	5
27	48	1
61	62	2
96	98	1
28	53	1
39	58	1
38	86	1
68	69	4
22	22	1
89	92	3
96	100	1
33	37	1
76	77	1
62	64	2
80	81	1
45	52	2
64	70	1
20	20	2
86	87	2
55	56	1
47	77	1
45	78	1
34	91	2
52	54	1
94	97	3
47	97	1
36	37	2
81	99	1
67	85	1
22	35	1
53	55	1
29	30	1
60	60	1
30	30	1
38	45	2
87	89	1
101	102	1
49	50	1
66	66	1
72	75	1
37	54	1
100	101	1
