0	0	5
131	131	9
45	89	3
126	126	8
44	44	11
104	104	4
127	128	4
16	96	2
76	76	7
1	1	1
41	41	7
99	100	8
44	45	2
21	21	4
72	72	8
25	25	6
33	33	8
85	86	2
129	129	9
16	18	3
82	82	8
46	46	11
39	39	11
109	117	2
7	8	3
114	114	5
27	45	5
67	67	6
77	78	4
47	47	9
97	117	2
54	54	9
51	51	20
1	26	3
39	40	4
18	23	1
45	45	6
51	52	2
9	9	10
89	90	5
12	12	4
133	133	2
40	40	9
34	34	4
6	7	3
73	74	4
30	30	6
98	99	2
107	107	5
120	120	11
119	119	7
94	94	2
9	28	2
80	129	5
122	122	6
23	23	4
48	48	14
105	106	2
25	26	3
86	88	4
0	9	3
73	73	6
8	8	2
38	73	1
66	66	7
83	83	3
56	56	10
92	92	13
84	84	7
105	124	5
62	65	4
27	90	1
19	21	4
13	13	6
97	108	5
5	6	1
108	108	10
106	106	12
83	93	2
42	42	10
118	118	6
90	91	9
53	53	8
125	125	6
114	115	2
126	129	2
124	124	5
100	100	10
17	17	3
12	13	5
26	26	2
1	2	2
71	71	4
108	114	5
64	64	4
21	23	2
22	22	12
95	106	2
42	43	4
94	95	3
67	68	6
3	3	10
4	4	11
49	49	7
86	86	9
71	75	1
75	75	13
103	104	3
43	43	6
111	111	6
16	16	5
73	103	1
128	128	6
130	130	3
95	96	2
40	41	8
113	113	7
121	121	1
74	74	2
126	127	5
19	86	1
10	10	4
85	85	7
112	112	2
88	89	5
63	63	4
109	109	9
129	130	9
79	79	2
79	81	4
21	22	3
62	62	3
98	100	3
112	113	1
116	119	1
118	125	4
0	1	4
50	50	3
65	65	5
105	125	2
115	115	4
19	19	9
29	30	6
5	52	1
127	127	2
82	117	1
81	131	2
97	98	3
44	72	1
14	42	2
59	59	5
86	96	3
100	107	1
115	117	1
84	87	1
42	66	1
111	112	1
87	98	3
57	57	4
58	59	2
70	70	5
99	99	1
3	4	2
18	18	3
105	105	1
10	11	6
55	55	4
89	92	2
80	80	7
0	2	1
48	69	1
78	78	2
69	69	6
26	39	2
99	101	3
68	68	4
15	29	3
63	83	1
43	61	1
23	24	3
60	75	4
116	117	4
31	124	1
119	120	2
77	77	6
86	133	2
40	64	2
2	2	4
104	105	3
87	87	3
29	29	4
27	29	1
6	8	1
7	7	2
27	52	1
103	103	2
6	18	2
68	69	2
14	14	2
26	89	3
66	68	2
27	27	2
58	58	4
125	126	1
105	107	2
131	132	2
21	73	3
95	95	6
81	81	4
85	88	1
102	102	5
10	70	3
60	60	2
52	53	1
90	123	2
46	98	1
123	123	5
50	69	1
97	97	3
11	11	2
43	45	1
5	27	2
20	33	2
128	131	2
69	70	2
24	24	1
69	104	1
43	82	1
18	19	1
22	23	3
117	117	1
48	49	3
61	75	1
59	68	2
89	89	1
70	71	1
114	116	1
106	112	1
120	121	3
19	33	1
90	92	4
96	96	2
38	123	2
109	120	2
54	56	3
85	96	3
18	21	1
91	92	1
96	97	2
23	25	1
6	52	2
116	116	2
61	82	1
100	101	1
74	82	1
100	105	1
83	84	1
86	87	1
86	89	3
5	5	3
44	70	1
63	65	1
64	71	2
105	108	1
109	110	1
60	65	1
55	59	1
52	52	1
25	90	1
72	98	1
6	17	2
5	17	1
45	97	3
8	9	2
61	61	1
16	17	2
82	84	1
88	122	1
63	81	2
4	27	1
50	58	1
72	82	1
16	21	2
71	109	1
91	91	1
98	118	2
71	98	2
32	32	3
47	48	1
63	78	1
115	116	3
64	65	1
59	75	1
85	87	2
81	117	1
58	61	4
31	31	1
15	19	1
81	129	1
101	119	1
61	62	1
87	116	1
88	88	1
38	40	1
