213	213	5
57	58	7
29	29	7
168	168	23
234	234	7
47	47	4
39	39	4
229	229	12
193	193	17
7	7	19
68	74	4
7	15	1
3	14	5
78	78	19
241	241	21
38	39	4
222	235	4
194	194	7
210	210	24
110	110	21
93	93	14
49	49	7
14	14	24
28	28	16
204	204	10
195	195	8
6	7	13
102	103	8
14	83	6
223	223	22
105	106	7
26	41	4
174	174	8
201	201	22
74	106	4
189	190	10
226	226	21
6	110	5
7	27	1
40	41	2
182	182	10
185	217	1
159	214	2
208	217	1
237	237	9
203	203	21
146	147	6
205	205	13
89	90	11
198	198	14
39	42	4
182	187	2
162	162	11
80	81	3
59	87	1
228	233	3
100	100	12
176	176	20
172	173	11
155	156	4
178	178	9
29	30	7
84	87	2
55	55	6
171	192	2
119	119	19
104	104	3
43	43	9
203	204	4
55	56	7
43	54	1
231	231	4
192	196	1
94	94	6
161	161	7
75	75	4
221	221	14
15	16	1
242	243	1
23	23	13
33	64	4
14	15	9
207	207	17
71	107	3
108	108	17
33	33	14
31	31	16
212	212	10
61	61	6
60	60	20
217	217	18
160	160	18
212	243	4
238	238	11
153	169	2
219	219	10
5	6	3
34	66	3
111	111	20
185	185	14
159	159	26
175	175	13
48	50	5
181	182	2
14	16	4
164	164	13
198	199	4
204	205	7
154	154	23
179	179	17
228	229	3
62	62	14
24	24	16
68	68	12
164	168	3
166	243	2
169	169	18
72	73	10
173	173	14
101	110	2
177	177	14
64	65	3
32	32	13
219	221	3
11	198	6
15	15	16
158	216	7
59	59	14
224	226	3
48	48	4
74	143	2
115	115	21
211	239	4
239	239	4
158	158	17
7	238	8
26	26	16
156	156	20
174	175	5
40	40	5
183	246	3
102	104	4
239	240	1
72	72	7
154	155	6
41	45	3
174	176	9
163	164	9
194	195	2
227	227	13
113	113	26
4	4	11
211	211	6
116	116	10
72	106	2
16	153	1
170	195	2
102	102	8
116	117	5
181	183	3
202	202	19
240	240	17
156	197	2
96	96	17
170	196	1
175	193	2
8	26	2
162	195	3
44	209	2
156	195	5
107	108	1
242	242	9
182	185	4
149	149	3
189	196	3
196	196	3
167	182	3
191	191	6
27	27	10
152	152	5
169	214	2
152	187	1
145	145	4
74	75	2
81	81	7
117	117	11
78	111	3
175	176	2
194	236	3
101	101	6
172	178	5
209	209	20
238	244	2
206	239	1
18	153	2
87	93	5
3	4	3
10	11	6
26	28	2
170	170	14
79	79	10
82	82	12
248	248	6
166	212	1
92	93	2
206	207	7
70	70	6
84	85	8
8	8	8
22	23	4
48	248	2
94	112	8
236	236	33
220	220	10
33	117	1
5	111	2
238	239	7
17	17	2
109	109	11
76	76	8
98	98	9
151	151	11
147	147	8
215	215	11
181	213	1
106	106	16
231	233	8
88	89	5
69	69	8
187	187	17
59	60	3
74	74	10
206	209	1
145	206	3
184	185	5
177	223	3
185	186	5
49	50	3
92	92	4
232	232	13
111	146	2
245	246	12
49	71	2
33	68	4
147	244	4
73	73	8
86	89	1
15	85	2
240	244	2
163	182	3
59	70	2
246	246	13
30	31	7
165	165	6
190	192	3
75	105	1
73	105	2
175	212	1
71	84	4
68	70	2
62	63	6
164	217	3
6	6	6
90	90	7
43	53	3
80	97	3
245	245	2
154	212	1
112	112	11
113	114	2
107	107	11
160	196	2
188	188	11
87	89	1
97	97	9
191	192	14
34	95	5
5	37	4
198	237	3
72	80	1
153	153	3
208	208	18
54	57	4
27	28	4
180	215	2
214	214	11
95	95	13
21	21	12
187	189	7
152	188	3
170	171	2
65	65	1
156	193	4
111	241	1
171	181	2
180	181	4
26	42	4
18	18	10
152	208	3
70	85	5
89	89	2
105	105	16
215	216	7
110	118	8
16	16	11
151	183	4
169	243	5
168	169	13
44	44	9
190	191	5
175	203	2
18	37	5
0	0	4
153	154	8
202	203	2
218	218	8
71	72	3
63	95	6
32	68	3
81	82	7
165	166	7
45	45	12
85	85	16
193	194	7
36	109	3
64	120	3
12	12	8
38	38	10
157	157	11
34	34	8
180	185	3
167	167	6
19	153	2
115	120	1
36	36	3
225	225	10
241	247	1
227	228	5
44	150	1
96	97	6
151	211	3
198	200	3
247	248	3
35	35	10
220	245	1
19	20	1
42	43	5
40	42	2
77	77	8
30	41	2
4	5	6
58	58	7
87	87	8
201	202	2
200	200	6
243	243	6
111	112	4
162	189	5
66	66	5
10	10	14
165	195	3
235	235	5
72	75	1
166	166	4
21	22	4
101	105	2
233	233	9
71	71	5
86	86	6
199	199	11
52	52	6
180	180	11
150	155	2
5	5	9
184	184	10
224	224	2
208	209	2
96	102	3
109	110	2
87	88	9
117	150	2
186	186	9
73	74	2
222	223	3
65	66	8
77	165	2
47	48	1
98	111	5
216	216	7
44	201	1
25	25	2
189	189	20
217	246	2
151	173	4
27	44	1
217	218	5
55	57	2
1	1	11
200	223	1
164	211	2
101	102	7
217	239	1
42	42	11
47	107	6
168	203	1
19	19	8
63	63	17
145	172	3
155	207	1
199	246	1
193	211	1
37	109	2
163	163	10
197	197	11
50	116	4
247	247	5
2	2	7
233	242	2
22	207	2
186	187	6
80	80	4
46	46	16
244	244	16
97	102	1
152	157	2
189	191	1
229	231	1
216	219	1
230	230	5
44	45	2
169	170	7
156	235	1
70	83	1
9	11	1
111	246	6
77	96	1
184	192	2
84	84	4
37	37	11
207	245	2
106	107	2
32	33	1
236	237	2
150	150	15
115	116	5
79	81	1
120	120	4
186	228	4
11	244	1
41	42	2
67	91	1
97	103	4
163	218	4
151	225	2
49	100	7
69	107	2
18	204	1
160	163	1
72	107	4
158	159	3
68	91	3
85	92	2
11	11	12
232	233	1
153	156	5
163	167	1
50	50	5
214	240	2
221	222	1
8	94	3
243	244	4
110	111	2
67	67	7
76	77	2
67	86	2
77	94	4
8	9	1
164	194	3
183	183	15
214	243	2
179	209	4
168	243	1
17	20	1
155	155	8
206	206	6
173	174	3
52	54	5
116	119	5
8	93	3
69	91	4
27	30	2
153	172	4
191	196	1
168	237	4
71	75	1
228	228	13
57	174	1
43	45	4
60	213	1
182	196	2
56	56	2
113	158	6
35	41	2
14	20	3
18	51	1
34	65	3
114	117	1
54	54	4
218	219	5
118	118	3
36	39	2
52	230	2
181	188	1
18	39	1
166	247	2
62	108	7
3	6	2
231	232	7
22	22	9
69	85	1
71	91	2
31	94	1
155	196	2
56	58	1
143	181	1
51	51	7
160	179	1
221	229	1
34	96	1
94	99	2
30	30	10
240	241	8
157	159	1
165	206	2
157	218	1
20	40	1
54	55	4
112	113	2
8	110	3
36	40	2
199	248	1
9	9	6
242	245	2
121	177	1
171	196	1
190	196	2
88	88	5
76	99	4
20	20	3
71	77	1
171	174	1
29	31	1
190	190	7
215	217	2
172	172	7
59	120	1
157	168	1
202	230	3
166	248	2
76	112	2
50	115	1
171	213	1
229	230	3
71	73	1
28	62	3
19	51	1
41	41	7
222	224	2
183	227	1
164	165	2
241	244	1
112	118	2
171	171	3
176	177	5
114	114	2
180	227	1
104	119	1
48	114	1
181	181	2
197	248	1
61	62	1
60	61	4
212	219	3
62	101	1
170	217	3
2	112	2
219	229	2
56	57	6
182	183	3
101	109	1
15	87	3
166	178	1
12	214	3
120	179	4
2	27	1
233	234	7
174	228	1
224	227	1
19	62	3
244	245	4
216	217	1
57	57	2
114	115	6
242	244	1
225	235	2
1	3	1
179	211	2
208	210	5
194	196	1
165	242	3
179	180	1
85	89	1
145	180	3
22	150	1
232	239	1
74	105	2
225	226	11
4	63	1
155	174	4
167	168	1
64	64	1
93	99	1
95	98	2
90	91	2
79	198	1
197	221	1
96	98	2
151	209	1
93	94	3
186	191	1
70	99	1
74	76	1
222	222	1
35	76	1
171	208	1
99	99	3
83	89	1
118	119	5
192	192	2
3	174	1
112	117	1
188	190	2
153	212	1
28	29	1
205	211	3
186	226	1
82	88	1
95	96	1
31	33	1
175	177	1
217	237	2
229	246	1
71	76	2
205	206	4
5	112	3
79	107	3
3	100	2
59	61	3
214	215	2
47	104	1
175	235	1
23	24	1
165	167	1
27	42	1
197	198	1
47	233	1
59	176	1
52	53	1
181	220	2
152	153	4
56	171	1
24	28	1
149	150	1
29	110	2
97	99	1
241	242	1
246	247	1
111	118	2
213	214	2
178	182	1
91	93	1
59	69	8
183	188	2
185	187	1
84	96	1
237	240	2
80	88	2
78	175	1
165	199	2
162	168	1
181	184	1
75	76	5
10	35	1
231	237	1
5	248	1
196	197	1
210	215	2
16	78	1
195	197	3
1	108	1
2	198	1
198	219	1
210	211	5
60	65	1
229	244	2
61	110	1
33	62	1
17	172	1
78	177	1
66	118	1
5	158	1
39	72	4
112	201	1
95	101	3
88	103	2
60	203	2
56	212	1
171	179	3
20	54	1
187	188	1
38	75	3
85	87	2
194	211	1
54	150	1
50	84	2
6	12	2
74	107	1
65	80	1
37	38	2
20	38	1
47	114	1
160	218	1
199	200	1
19	205	1
73	75	1
100	113	1
55	151	1
184	188	2
146	146	2
95	99	1
76	90	1
163	168	1
165	181	3
179	214	1
53	53	2
222	237	2
199	203	2
156	175	1
211	212	1
103	103	1
199	206	2
152	170	2
56	174	2
163	187	1
84	95	1
200	219	1
3	3	2
188	191	1
46	47	1
33	109	1
26	27	1
231	236	1
38	50	1
219	237	1
4	22	1
99	110	1
174	212	1
237	239	1
178	186	1
234	235	2
156	159	1
77	93	1
174	177	1
176	192	2
194	216	1
144	145	1
64	95	1
34	63	1
6	70	1
167	173	1
20	56	1
156	169	1
3	51	1
179	230	1
32	66	1
8	240	1
70	82	1
71	82	1
115	117	1
34	35	1
206	237	1
161	193	1
151	153	2
104	105	1
177	181	1
18	38	1
212	217	1
213	237	1
87	104	1
162	166	1
