135	135	4
182	183	3
99	99	1
147	147	2
137	137	5
13	14	2
13	13	2
178	178	8
16	22	4
52	52	5
109	111	1
106	106	2
173	174	1
160	160	2
139	139	4
70	78	5
172	173	5
118	135	1
111	111	2
129	130	2
16	16	1
36	36	9
53	53	3
176	176	1
154	154	1
88	121	3
111	112	3
148	148	5
33	34	1
184	184	3
153	153	2
85	85	4
120	121	1
5	5	1
101	101	4
27	27	2
4	4	2
121	121	3
71	71	2
35	35	4
113	187	3
58	63	1
105	105	2
11	11	2
136	137	6
25	43	2
102	102	5
133	133	5
143	146	2
72	83	1
25	25	1
41	41	4
134	134	4
177	179	3
156	158	3
171	173	2
134	138	1
77	79	7
111	133	1
45	47	1
126	126	4
16	17	4
47	47	4
75	84	2
154	157	1
120	120	3
14	36	6
15	15	3
22	22	5
117	119	2
179	180	5
48	48	2
122	122	1
12	35	2
75	106	2
110	189	2
113	114	3
96	96	1
72	72	1
28	28	2
176	188	6
70	71	3
95	95	1
57	76	2
132	132	4
10	12	4
18	19	1
116	116	2
94	94	2
176	178	1
58	65	4
141	143	2
80	80	6
156	156	6
43	43	1
45	53	5
111	114	3
189	189	2
90	90	4
63	64	1
65	66	3
100	101	3
100	100	4
20	20	4
93	93	2
45	49	2
104	104	2
22	23	3
112	112	3
182	182	1
28	29	1
166	166	3
71	123	2
93	94	1
46	47	2
68	68	2
149	149	3
99	115	1
110	110	1
164	164	3
66	66	1
140	140	2
32	33	4
78	87	2
72	82	2
54	56	1
142	143	2
169	169	4
23	40	1
62	65	1
138	138	3
0	18	8
86	86	2
134	171	1
145	145	1
130	131	1
105	106	2
114	114	4
53	68	2
2	3	1
29	29	1
10	10	1
108	108	2
0	17	3
74	74	2
108	109	2
116	118	3
44	47	1
3	6	4
164	183	1
91	94	2
10	11	2
166	167	2
163	163	6
175	188	2
98	98	2
46	49	1
19	19	2
157	157	2
6	6	5
89	89	3
98	103	1
7	7	1
12	13	1
159	159	2
14	14	1
76	76	2
76	77	3
129	129	1
105	112	1
180	181	3
109	109	1
25	67	1
146	146	1
116	117	2
58	58	2
41	42	3
37	115	1
79	82	1
130	130	1
128	128	1
181	183	2
155	155	1
98	122	1
44	44	1
31	31	2
12	32	1
8	13	2
136	146	3
59	64	3
164	165	1
128	129	1
45	52	2
158	158	1
23	23	1
163	165	1
42	42	2
127	127	1
60	64	2
115	115	1
130	133	1
1	1	2
62	62	2
110	128	1
178	179	1
112	126	1
177	177	1
132	134	1
77	77	1
56	57	1
102	103	2
83	96	1
27	28	1
118	118	1
81	81	1
39	39	1
100	131	1
100	107	1
148	182	1
85	95	1
37	37	1
126	132	1
88	88	1
112	190	1
18	18	1
8	11	1
41	106	1
109	154	1
75	105	2
167	168	1
27	29	1
59	59	1
38	46	1
113	113	1
146	147	1
