102	102	3
133	133	6
16	16	3
38	39	3
81	85	3
19	20	5
103	103	2
14	20	2
149	149	3
139	139	2
78	79	6
99	99	7
130	130	6
36	40	4
144	144	1
41	41	3
62	63	1
31	41	3
135	135	12
3	7	2
107	108	2
35	35	5
39	40	6
18	19	10
70	70	3
107	109	2
101	103	5
56	57	5
17	17	1
70	71	3
10	10	6
69	69	5
11	11	8
46	47	5
56	56	1
7	7	1
23	25	3
13	13	7
15	15	12
105	105	3
25	31	1
93	93	4
37	38	4
67	68	4
40	40	1
49	50	10
112	112	2
36	42	3
83	94	2
53	53	10
153	153	2
17	18	1
36	36	6
118	119	4
46	46	16
142	142	8
33	33	5
13	20	2
80	81	1
55	55	6
53	57	1
6	6	5
22	22	10
137	137	3
12	12	4
29	142	1
18	31	2
68	68	3
72	73	5
142	149	2
37	42	1
6	7	4
18	18	1
64	64	2
28	29	5
100	149	1
77	77	9
21	21	7
32	33	1
66	68	4
152	152	3
38	44	1
19	19	5
134	134	1
18	40	5
76	76	5
26	30	1
31	31	6
79	81	2
143	144	3
30	31	2
15	32	3
150	150	3
9	10	2
10	13	2
23	23	8
4	4	2
97	115	2
24	24	9
92	92	8
27	27	8
41	67	2
109	109	4
38	52	2
107	107	8
66	67	1
68	73	5
44	46	6
13	21	1
73	73	8
34	34	2
67	67	4
51	51	3
121	122	3
119	120	1
142	146	1
129	129	3
24	42	1
63	64	3
19	31	1
130	135	1
151	152	1
2	3	1
30	30	3
21	22	1
8	16	2
49	53	7
43	44	2
82	86	1
120	120	2
108	108	4
96	96	4
70	73	3
7	9	2
79	79	1
38	38	5
21	23	4
39	39	1
115	116	5
36	37	1
131	131	3
50	50	6
85	85	2
25	25	1
65	65	1
127	144	3
45	46	4
8	8	3
12	15	1
37	37	3
105	106	2
45	45	1
44	44	4
118	118	4
47	47	6
79	80	1
95	96	5
42	42	4
66	66	3
113	113	7
48	48	5
4	5	4
16	18	1
3	3	1
126	130	1
34	37	1
10	11	4
48	49	3
128	129	3
116	117	1
138	138	3
132	133	3
9	9	2
146	146	1
32	32	3
20	20	6
99	136	1
38	41	2
116	116	2
21	50	2
107	123	2
91	91	1
25	26	3
106	132	1
130	131	1
87	87	1
123	124	1
126	128	2
94	94	4
74	84	4
14	14	3
119	119	1
102	111	2
55	56	2
52	52	1
130	132	2
101	102	2
103	104	1
11	15	2
124	125	1
9	17	1
127	128	3
107	121	1
29	29	3
39	43	1
109	112	1
115	115	4
147	147	3
10	12	1
10	33	1
16	17	1
93	96	1
136	136	2
81	81	4
54	54	2
64	82	1
77	78	2
149	150	1
135	136	1
100	136	2
103	110	3
122	122	1
69	70	3
27	30	1
148	148	1
57	57	1
8	9	1
28	28	2
140	150	2
48	50	2
111	113	1
75	75	5
137	139	1
154	154	2
106	107	2
82	82	1
110	110	1
62	87	1
130	133	1
17	19	1
53	54	2
117	117	2
35	41	3
153	154	1
32	37	1
11	18	2
25	30	1
104	104	1
14	16	1
6	8	1
140	141	2
5	5	2
80	80	1
58	58	1
13	14	2
141	141	1
145	145	1
73	76	2
114	115	3
44	53	1
33	37	1
103	108	1
140	153	1
106	106	2
26	27	1
133	135	2
72	97	1
35	36	2
88	94	1
132	145	1
104	105	2
83	97	1
87	88	1
147	149	1
63	65	1
151	151	1
65	96	1
63	138	1
49	49	1
53	77	1
72	74	1
98	99	1
41	42	1
132	132	1
20	22	1
22	23	1
43	43	1
112	113	1
82	83	1
121	121	1
86	88	1
