117	118	1
14	30	3
100	110	6
51	51	3
23	23	6
107	108	2
56	56	12
75	75	22
44	44	17
73	73	12
129	129	4
86	86	13
75	76	9
57	64	2
6	6	21
8	26	6
42	42	20
68	69	9
111	111	11
65	65	26
93	93	23
39	39	6
113	113	12
18	18	7
20	36	5
79	79	19
5	13	2
33	33	14
119	119	6
90	90	24
4	4	9
23	42	2
60	89	2
0	0	6
28	28	18
12	12	20
35	35	21
64	64	11
2	2	1
34	34	14
38	56	1
93	101	5
49	49	12
127	127	11
93	94	13
115	115	15
90	93	2
134	134	11
90	96	2
100	100	12
110	110	12
102	102	9
43	45	3
19	43	4
116	131	3
121	121	12
70	70	12
8	9	1
77	77	16
56	58	4
25	78	2
60	60	10
1	1	3
20	56	6
7	33	2
22	23	4
22	22	14
28	80	3
12	61	1
30	30	14
27	27	18
5	5	7
13	14	2
76	76	7
86	89	2
120	120	11
106	111	2
69	69	16
9	29	1
46	46	5
19	64	4
47	93	2
59	61	1
26	26	14
85	85	5
91	91	14
84	91	2
114	115	4
67	67	15
80	80	9
107	107	16
62	63	2
58	58	8
89	92	1
68	70	5
78	80	5
47	47	24
18	45	2
56	60	2
57	57	9
59	60	4
8	36	5
26	62	6
11	93	9
5	14	1
87	88	6
84	84	8
56	84	2
8	35	4
8	8	10
8	28	3
72	72	11
82	133	1
22	36	3
81	81	9
78	81	2
71	72	4
60	79	5
13	13	7
131	131	10
96	100	4
91	92	4
96	118	3
85	91	5
90	124	3
29	29	30
7	8	7
113	126	4
132	133	7
7	7	8
112	112	14
45	58	3
128	128	3
90	92	1
95	95	10
35	36	3
99	99	3
109	109	7
11	27	2
10	10	14
114	114	9
6	84	4
119	120	4
70	71	4
94	99	1
127	131	7
14	14	7
103	103	5
112	115	2
19	19	14
68	68	12
73	85	3
17	17	4
43	83	4
117	117	5
3	4	6
10	94	2
18	19	3
58	84	4
11	11	22
71	71	10
10	13	3
74	74	23
98	98	4
71	119	1
22	24	2
73	74	8
96	96	7
12	13	4
14	15	5
26	36	4
32	33	2
80	121	4
78	78	9
36	36	6
26	27	4
12	26	2
8	12	2
57	60	4
132	132	8
97	97	4
45	45	18
94	94	9
83	83	8
66	66	7
83	120	2
82	82	7
96	97	3
12	28	7
79	81	2
59	59	6
83	122	4
57	86	2
124	125	1
34	35	7
40	41	8
48	48	6
96	98	4
9	65	2
62	62	11
89	101	1
92	92	1
7	77	3
74	95	2
88	118	3
4	5	8
56	59	2
93	131	1
57	84	1
94	116	2
112	113	10
63	70	3
32	77	1
32	39	7
44	68	5
59	62	1
15	17	1
16	37	5
89	89	2
25	25	4
105	110	3
56	57	1
28	96	4
65	67	3
94	95	6
113	127	4
108	108	4
26	93	3
123	123	5
82	119	3
24	26	1
9	34	2
41	41	6
29	48	2
43	43	3
16	16	4
76	77	4
90	130	1
126	126	3
32	32	5
96	99	4
19	20	1
61	61	6
7	11	2
112	129	2
18	43	3
21	21	7
87	87	4
63	134	2
94	114	2
0	27	2
95	130	4
89	90	1
113	116	2
84	119	2
9	9	8
29	30	2
55	56	3
44	45	1
112	117	2
23	24	7
125	125	2
74	83	2
9	36	2
75	119	2
82	131	5
127	133	1
80	82	2
3	9	1
46	67	2
39	49	2
106	106	4
16	17	2
122	122	2
27	28	2
22	37	4
38	38	3
10	33	1
7	76	1
18	80	1
65	66	5
65	77	1
82	93	2
25	82	2
15	43	1
79	80	8
37	78	1
20	29	3
62	75	1
15	98	1
111	112	3
30	31	4
68	97	2
40	40	8
68	96	2
35	55	1
17	18	2
21	79	1
31	36	2
73	76	1
10	11	3
66	71	2
126	128	4
73	131	1
99	101	4
3	24	1
31	32	2
37	37	10
50	50	4
11	33	3
11	12	5
130	131	4
82	83	1
28	79	3
45	46	3
100	111	2
124	124	1
75	122	1
3	3	3
15	36	1
91	95	1
29	82	1
63	86	2
49	50	2
35	74	2
24	24	1
78	79	4
101	102	2
105	105	4
104	105	5
15	56	2
4	22	1
8	47	1
95	99	2
44	47	1
15	15	9
33	37	1
58	83	1
47	81	1
101	101	2
62	65	1
6	11	2
120	121	2
15	16	3
27	49	2
92	120	3
46	69	2
90	131	1
133	133	4
63	63	7
98	99	1
59	84	2
30	32	3
123	124	2
38	42	3
12	32	2
84	90	1
104	114	1
6	92	1
24	60	2
41	49	1
8	19	1
6	12	1
10	25	1
98	100	2
5	6	3
23	74	3
113	133	1
46	62	2
73	83	1
42	43	3
36	98	2
121	124	1
21	22	1
104	112	1
62	74	1
44	46	3
100	101	1
69	72	1
116	116	4
32	35	3
72	73	2
56	81	2
103	104	1
30	39	3
12	16	1
22	25	1
28	29	1
31	31	2
35	63	1
78	124	1
63	64	1
77	78	1
14	99	1
45	119	1
16	43	3
81	82	1
126	131	1
77	80	2
19	29	1
8	27	1
17	64	3
108	109	2
94	97	1
97	100	2
10	49	1
85	101	1
103	114	1
130	130	1
126	127	1
41	42	1
14	17	1
66	67	1
3	7	2
118	118	1
40	56	1
81	85	1
16	20	1
37	38	2
20	20	1
4	15	1
13	31	1
132	134	1
18	34	1
4	84	1
54	56	1
87	102	1
86	93	1
4	14	2
9	10	1
131	133	1
16	22	1
66	75	1
68	77	1
11	49	1
116	117	1
3	66	1
97	101	1
113	115	1
28	91	1
56	61	1
13	96	1
