75	94	2
84	84	8
74	74	6
124	124	2
22	22	4
65	65	10
6	6	6
64	64	9
20	20	7
27	30	3
99	99	18
132	132	4
95	95	6
92	92	8
96	96	6
8	8	3
128	129	4
80	92	2
15	21	5
26	58	2
60	61	8
60	60	3
83	83	11
2	2	5
32	32	8
9	9	18
71	71	8
69	69	3
125	125	14
11	11	7
45	46	3
31	32	8
128	128	12
50	50	12
66	66	9
66	68	3
70	70	14
134	134	11
21	21	4
34	34	4
113	113	16
67	67	8
17	17	4
121	122	2
4	5	4
108	108	7
71	72	4
122	123	11
94	118	2
90	90	17
15	15	5
123	126	1
71	114	1
38	38	3
109	109	2
80	80	23
44	44	2
104	104	8
124	130	6
112	132	1
111	111	10
122	122	11
121	121	4
29	30	3
54	56	3
97	115	1
115	115	11
100	101	13
63	63	5
87	87	5
3	3	9
31	31	7
81	82	3
89	90	6
110	111	2
130	130	8
43	43	3
93	93	8
72	72	6
91	92	3
13	15	1
8	9	3
35	35	6
62	62	15
12	103	1
27	29	1
119	119	14
91	91	11
129	129	6
120	120	9
79	84	2
115	119	2
52	53	3
85	85	11
30	32	1
115	132	9
114	114	9
111	113	2
9	11	1
9	15	2
102	102	6
127	128	15
101	101	8
73	73	5
66	69	6
19	19	3
20	21	4
49	99	4
86	88	1
131	131	4
58	69	6
133	135	6
53	53	10
130	131	1
27	27	13
133	133	2
123	123	6
36	37	4
14	15	7
134	135	4
34	35	1
19	79	3
120	121	6
98	98	4
135	135	1
79	107	3
53	54	3
30	30	9
105	107	1
106	106	12
108	111	7
57	57	1
105	105	6
69	73	1
94	94	6
68	68	4
14	14	7
23	25	1
79	80	1
113	114	3
70	73	1
10	10	8
69	96	1
33	34	5
3	5	2
126	129	1
108	109	5
58	58	6
22	23	4
121	123	4
98	109	3
28	28	1
55	57	1
75	75	3
6	8	9
24	24	3
109	110	3
69	92	3
3	4	3
56	61	3
126	126	6
95	96	2
22	24	1
21	22	2
88	97	1
82	82	3
59	59	2
91	105	2
59	69	5
87	88	3
62	64	3
77	78	5
61	62	1
110	110	3
56	58	1
56	56	1
95	101	1
6	7	1
92	118	1
111	114	1
79	82	3
124	125	5
76	76	8
127	127	5
120	125	1
118	118	11
64	67	3
37	37	2
91	93	5
117	117	10
52	55	1
80	84	3
43	44	4
54	54	2
30	31	1
32	33	2
125	126	1
130	132	1
115	117	1
79	79	2
113	121	1
7	15	6
78	78	4
97	116	1
24	25	1
111	134	1
91	119	1
6	9	2
117	120	3
101	102	3
1	2	8
103	103	6
9	10	2
106	107	1
61	69	1
23	23	7
112	112	4
6	11	1
80	85	3
4	4	5
18	18	4
52	52	2
69	70	1
49	50	2
5	14	2
57	67	1
86	116	1
132	133	2
72	73	2
69	94	1
117	118	3
88	99	1
97	98	1
5	6	3
52	69	1
68	87	4
99	101	3
47	77	1
27	28	2
0	0	4
83	84	1
15	20	1
90	91	1
61	67	2
47	99	2
47	79	3
93	94	1
16	16	3
104	105	1
19	20	3
14	61	1
49	83	2
25	25	2
119	122	2
93	120	1
94	99	1
44	47	1
126	128	2
8	14	2
114	116	2
76	77	1
89	89	1
5	5	4
114	115	3
111	112	1
66	83	1
116	116	2
107	107	3
7	14	1
51	52	1
91	115	1
12	12	4
17	21	1
86	86	4
47	72	1
85	90	2
126	134	2
108	133	1
7	9	1
13	13	2
14	16	3
58	66	1
83	85	1
92	93	1
81	81	1
86	97	1
8	24	2
0	4	1
64	103	1
115	129	1
46	87	1
7	7	1
77	77	2
25	26	2
53	86	1
95	99	1
43	65	1
87	117	1
87	98	1
10	11	1
108	110	1
91	109	2
112	121	1
2	3	1
47	47	1
86	87	1
5	30	1
28	29	1
19	50	1
58	67	2
75	76	1
