89	97	4
16	18	2
95	100	2
84	84	9
126	126	11
19	19	8
23	24	6
160	160	5
108	108	17
47	63	6
80	80	9
39	64	3
156	159	2
89	122	5
133	133	5
76	76	15
81	83	2
93	93	11
101	101	7
105	107	1
83	83	19
17	23	4
97	132	5
14	14	15
27	28	5
36	37	4
50	51	1
122	122	3
73	74	3
141	141	7
110	111	2
113	114	2
24	24	17
151	151	9
55	134	2
89	124	3
165	165	8
56	92	11
128	130	7
3	3	8
106	106	16
79	80	5
90	157	3
56	56	27
140	140	7
53	53	7
149	150	2
9	10	2
136	136	12
71	71	16
21	22	4
46	50	3
43	43	11
135	136	5
112	129	1
101	151	1
81	81	11
6	6	10
161	162	2
10	10	9
116	116	20
83	85	6
2	2	10
25	25	18
40	40	12
73	73	21
54	81	2
161	161	11
17	17	33
143	143	12
64	64	12
48	48	3
23	25	3
72	72	19
148	148	6
139	139	8
79	84	3
54	54	12
72	73	4
159	159	14
81	82	4
52	88	2
147	151	3
147	153	3
150	151	8
86	86	11
91	91	3
16	16	9
97	97	9
20	77	6
71	72	2
138	138	13
164	164	7
149	149	18
57	57	15
142	142	10
100	101	1
127	127	6
89	90	9
125	125	7
119	119	16
82	82	24
71	154	5
121	122	2
61	66	2
100	100	9
37	38	18
56	57	7
160	161	2
78	90	1
40	84	5
115	115	10
36	36	12
26	27	4
118	118	9
132	132	7
9	9	15
134	134	14
115	116	3
87	89	3
11	11	6
79	79	12
0	0	8
74	74	15
90	137	2
63	64	4
116	117	2
23	23	12
167	167	6
40	85	2
168	168	2
8	11	1
90	91	4
69	69	6
90	90	21
49	50	4
77	78	7
96	96	5
162	162	8
104	105	3
124	124	6
43	107	3
132	133	7
34	34	8
145	150	5
113	116	3
87	132	1
138	140	1
6	37	5
42	42	19
52	52	10
7	38	4
137	137	24
27	27	14
7	7	15
152	152	3
147	147	6
148	149	6
52	53	8
129	129	6
2	7	1
125	126	7
20	20	13
51	51	3
156	157	6
17	18	7
87	88	6
69	70	2
74	76	4
114	115	2
142	143	4
55	55	10
113	113	8
76	77	1
105	105	7
102	102	8
104	106	2
97	98	6
63	63	4
130	131	1
19	51	2
46	46	11
137	143	7
33	34	9
86	87	17
77	77	14
65	66	5
149	160	2
155	155	4
154	158	2
96	97	3
94	105	3
115	117	4
169	169	4
85	87	2
158	159	4
83	84	5
72	115	2
1	1	8
163	163	7
107	107	9
158	158	4
53	81	3
72	155	2
126	128	3
8	8	10
110	112	1
131	131	4
139	142	4
108	109	13
12	12	3
49	51	2
112	112	11
74	75	6
23	39	5
137	141	3
49	49	13
13	14	2
41	42	6
8	13	3
146	146	6
130	130	5
117	118	5
75	78	2
57	63	2
18	18	11
70	70	7
0	3	2
15	15	13
107	108	5
128	128	6
38	39	9
44	44	9
46	48	1
156	160	1
128	151	2
106	143	3
167	169	1
5	8	5
54	56	3
38	42	1
85	85	17
140	141	1
85	88	2
112	135	2
18	38	1
3	5	2
3	4	7
152	153	2
2	111	1
134	135	8
13	13	5
54	100	4
39	39	6
10	11	2
21	21	4
106	107	7
126	134	2
114	116	5
156	156	6
87	87	13
9	12	3
46	47	2
163	165	1
5	5	5
22	26	4
41	41	15
62	95	1
143	145	1
118	119	6
37	37	11
4	4	11
70	71	3
66	144	2
38	57	5
93	94	5
128	157	2
151	152	2
110	110	16
85	86	6
6	8	4
35	36	2
117	137	1
47	47	9
105	106	4
41	54	3
137	142	1
41	55	3
157	158	3
70	146	2
121	121	5
154	154	7
87	119	6
128	152	3
42	43	8
77	132	1
43	101	1
33	33	8
44	109	1
8	27	2
50	50	4
14	15	6
94	95	2
122	130	2
142	150	1
4	10	4
99	104	7
86	122	4
160	163	1
131	157	1
89	89	10
99	100	2
91	137	3
150	157	3
120	120	3
88	90	1
37	39	3
112	151	2
147	148	4
66	68	2
143	144	4
35	37	1
88	91	1
25	26	3
46	52	1
41	136	1
109	110	1
145	148	4
144	145	1
117	117	5
88	88	14
66	66	2
150	159	1
123	125	1
153	153	1
54	80	2
104	104	5
26	26	6
92	92	3
56	135	3
68	68	1
88	89	4
75	75	7
16	22	2
68	69	2
135	135	5
101	105	2
0	38	1
109	109	3
44	106	3
144	144	6
45	45	10
94	94	4
41	51	4
96	114	2
116	118	1
7	111	2
18	46	2
145	146	3
51	52	2
26	28	1
102	103	2
46	53	3
64	65	1
7	8	7
111	162	1
15	16	4
45	46	2
95	96	2
93	105	3
58	85	2
4	5	1
102	104	1
111	111	6
113	151	2
106	152	2
16	25	1
8	112	2
6	10	1
78	79	6
113	128	2
169	170	6
0	17	2
141	143	4
69	93	1
11	12	4
133	135	1
28	28	2
9	11	2
86	88	1
4	110	1
0	1	8
42	132	2
70	145	1
119	120	1
79	93	2
101	103	1
52	56	2
84	85	1
55	105	1
22	22	2
20	24	1
55	56	1
6	7	5
166	166	6
76	78	1
145	145	1
78	96	1
71	121	1
43	52	2
112	113	3
0	2	5
95	95	2
44	45	4
86	136	1
93	97	2
1	2	1
49	53	1
0	42	3
96	117	1
2	110	1
89	149	1
71	117	4
166	167	1
104	107	1
65	65	1
78	78	2
65	67	1
7	10	1
119	121	1
137	138	2
22	23	2
41	57	1
39	70	2
75	76	1
0	16	1
5	6	1
36	38	1
146	148	2
71	119	3
114	114	3
92	93	1
133	136	2
71	116	1
90	92	2
89	121	1
119	143	1
35	35	3
69	94	1
19	20	1
36	107	2
62	63	2
47	48	1
95	137	1
92	106	1
38	38	3
128	129	2
101	148	1
5	38	1
87	122	1
87	91	1
91	96	1
68	95	1
111	112	1
57	96	1
157	157	1
18	20	1
115	147	1
92	141	1
8	12	1
80	81	1
25	39	1
20	23	1
48	62	1
121	125	2
5	36	2
139	140	1
87	95	1
47	49	1
152	157	1
38	46	1
90	136	2
1	8	1
136	151	1
98	98	1
153	159	1
6	109	1
39	40	1
93	136	1
114	153	1
24	25	1
105	108	1
123	127	1
40	41	1
99	99	1
52	58	1
133	166	1
53	54	1
38	49	2
0	7	1
66	94	1
12	85	1
103	104	1
10	47	1
37	40	1
91	135	1
119	131	1
