17	18	6
156	163	1
10	10	8
32	36	4
117	117	13
67	67	11
17	17	8
40	40	27
157	158	5
9	9	16
73	81	2
113	121	3
117	118	7
14	14	12
27	28	4
100	100	12
4	14	3
10	62	4
19	19	21
65	65	4
96	102	1
172	172	10
0	0	10
88	89	11
24	26	3
88	88	4
130	155	1
22	22	11
14	15	6
25	26	9
123	123	10
32	32	33
10	11	10
122	122	8
106	106	7
52	78	1
84	84	9
29	30	9
81	81	8
104	104	8
158	158	6
134	134	10
37	41	1
138	138	6
54	56	1
178	178	19
23	92	2
106	174	1
134	137	2
18	18	23
15	16	4
11	12	11
43	44	11
1	1	12
11	17	2
160	160	12
8	8	22
114	114	9
41	41	17
1	17	5
27	27	17
39	39	6
2	9	1
16	16	21
7	8	5
128	128	13
166	166	9
155	155	16
86	88	2
79	80	2
34	34	5
162	162	10
70	70	4
24	24	20
68	68	7
36	38	8
43	43	12
133	133	6
1	5	1
63	63	7
32	33	6
161	161	13
41	42	9
37	37	15
79	79	13
3	3	14
142	142	9
42	42	8
29	31	4
2	7	1
86	93	6
3	16	2
121	125	4
143	143	10
147	147	12
125	125	5
130	142	6
11	151	9
84	86	1
90	91	3
42	45	3
36	36	14
30	30	19
7	7	13
102	102	8
21	22	6
21	31	1
62	62	16
109	109	5
1	2	1
75	76	6
77	78	2
90	90	9
37	38	10
27	29	1
15	132	1
55	133	6
28	97	3
52	76	1
99	99	7
5	6	8
6	7	8
23	23	18
132	132	4
148	148	8
6	6	3
111	112	5
165	165	8
76	76	8
146	164	3
2	13	2
73	73	25
120	121	4
53	53	9
169	171	3
32	170	1
52	93	2
111	111	5
107	107	11
157	157	10
50	51	8
134	141	2
180	180	6
18	19	9
127	127	9
35	37	2
124	137	1
1	32	3
177	179	1
16	43	2
13	62	1
167	167	10
2	4	4
25	25	9
31	32	7
13	13	7
173	173	2
31	151	1
77	77	7
10	26	3
153	153	6
172	173	2
78	78	5
59	60	1
176	176	18
26	26	10
29	29	14
163	165	5
44	44	9
171	171	8
139	159	5
15	30	3
19	43	5
66	67	6
159	159	2
4	5	10
144	144	8
149	149	9
111	125	1
52	52	4
142	167	2
179	179	6
154	176	1
123	150	4
20	21	5
127	128	2
92	92	3
21	21	5
28	29	6
17	31	2
5	16	2
80	80	13
25	97	6
111	115	6
18	20	3
30	67	2
170	171	1
168	168	14
72	107	2
66	66	8
158	159	1
99	100	9
106	122	2
65	76	2
62	66	2
35	35	8
58	58	3
24	40	6
141	141	16
10	16	3
35	39	3
54	54	10
81	98	3
33	33	18
94	94	5
57	81	6
123	163	2
49	104	3
105	105	7
115	115	2
30	31	5
19	20	11
52	58	5
109	140	1
24	25	9
93	94	6
51	51	12
163	163	3
162	163	3
35	44	4
30	41	1
33	34	3
29	148	4
152	153	3
56	56	8
123	124	3
143	144	6
45	45	9
43	45	4
2	2	15
22	24	1
111	113	2
145	163	2
79	94	5
50	50	6
73	74	6
71	71	11
11	170	2
113	115	3
87	88	3
20	20	4
28	95	1
89	90	2
65	66	5
75	75	5
119	129	1
113	114	3
23	25	2
113	113	5
144	160	6
35	36	3
89	89	6
27	150	2
175	175	1
82	98	2
118	147	1
57	92	3
67	68	4
110	114	3
11	11	11
150	170	6
12	12	7
108	108	3
11	14	1
38	38	11
9	20	2
130	131	4
15	15	25
8	9	5
129	131	4
68	75	3
105	106	5
137	137	12
102	121	1
37	39	1
126	126	5
53	54	5
14	32	1
166	167	3
4	7	2
174	175	2
55	94	2
177	177	3
91	91	6
57	57	14
4	4	6
160	170	3
75	79	4
117	122	3
97	97	6
169	169	9
96	96	7
24	68	2
35	40	1
144	158	5
151	175	3
122	123	2
114	143	5
10	46	2
74	74	6
13	16	3
3	15	4
60	60	2
101	101	5
3	14	1
33	35	2
86	86	2
19	44	4
32	34	3
82	89	4
15	34	1
122	139	1
14	138	2
163	166	3
23	26	3
174	174	6
59	68	3
28	96	6
55	55	4
121	150	2
38	40	1
146	178	2
39	40	3
132	163	2
0	1	1
17	30	3
9	21	2
139	139	12
161	169	2
140	140	8
115	116	4
107	125	2
132	144	2
161	162	4
136	136	6
60	83	1
124	124	2
80	83	4
125	126	4
58	71	1
57	105	1
23	33	2
141	142	3
84	85	2
169	170	4
135	135	6
21	23	2
6	8	3
60	61	4
82	113	1
59	59	4
112	112	5
24	31	1
90	92	1
52	95	5
118	129	2
99	102	1
39	41	2
83	84	2
3	7	5
151	151	6
9	35	2
118	118	4
36	42	6
36	39	7
114	115	3
132	133	9
156	158	1
53	60	1
98	98	1
131	131	2
146	146	3
116	116	9
165	168	4
121	121	3
62	63	5
96	97	1
152	158	1
5	41	1
78	85	2
170	172	1
64	64	9
129	130	3
24	30	2
89	122	2
142	168	1
56	76	3
22	23	4
134	136	1
51	75	6
84	104	2
109	113	3
160	168	3
29	32	3
2	3	4
135	136	4
78	101	1
61	66	1
83	83	6
86	96	2
20	34	4
156	156	5
173	174	1
140	157	2
132	143	2
20	41	2
27	96	3
121	122	4
152	152	3
61	61	5
120	120	1
6	14	1
108	109	5
150	150	1
31	31	4
63	148	2
144	145	3
30	32	1
36	37	3
129	155	4
53	76	1
18	45	1
57	104	1
103	103	11
28	45	1
12	13	2
112	114	2
9	28	1
18	36	1
49	50	1
92	93	4
101	120	3
10	33	1
119	139	1
76	106	2
138	139	2
5	8	2
20	22	2
95	95	3
115	143	1
10	23	1
27	31	1
110	110	1
16	17	1
96	98	2
163	164	1
81	89	2
151	152	4
116	118	1
52	105	4
141	179	1
7	25	2
44	45	1
122	144	1
20	23	2
72	106	1
18	26	3
160	161	2
99	111	1
119	136	1
22	26	2
102	117	1
59	83	1
14	34	1
60	68	1
71	72	2
162	165	2
100	101	1
5	5	5
121	124	1
84	94	1
128	129	3
3	4	2
110	111	2
22	29	1
71	80	2
13	27	1
23	24	1
154	162	3
124	149	1
136	163	1
3	30	1
170	170	1
148	149	1
89	98	3
119	119	2
8	15	1
136	145	1
6	28	2
72	72	1
101	116	1
13	15	1
72	79	1
25	28	1
131	149	2
117	121	4
144	164	2
9	34	1
9	15	1
131	145	2
5	15	2
171	172	1
64	65	2
26	29	1
28	28	3
150	156	1
9	16	1
148	167	1
153	154	1
17	19	1
146	163	2
116	117	5
144	156	2
75	81	1
87	87	2
9	30	1
103	124	1
144	152	1
157	159	1
34	36	1
92	94	1
88	90	1
11	13	3
40	42	1
151	157	1
117	158	1
104	107	1
164	164	2
137	138	2
65	147	1
16	36	1
28	30	1
169	175	1
78	79	2
143	162	2
80	81	1
107	108	1
150	172	2
95	96	1
45	46	1
59	61	1
34	35	1
80	84	1
0	31	1
101	107	1
146	152	1
86	89	1
52	79	1
1	4	2
67	75	1
10	32	1
82	99	1
93	93	1
177	178	1
