5	5	6
22	22	3
83	83	16
52	52	16
12	13	5
54	54	26
4	4	9
9	14	4
67	67	12
24	24	9
57	57	10
18	18	4
50	52	1
71	72	2
8	13	5
11	56	1
76	76	23
23	23	7
8	16	4
47	47	6
2	2	7
50	50	10
86	86	14
51	51	3
6	6	6
55	58	1
82	83	7
49	52	6
80	80	5
72	72	3
71	90	4
63	77	2
56	57	4
21	24	2
26	26	8
52	60	2
55	55	21
12	12	7
59	83	3
75	75	24
89	89	7
17	17	1
54	60	2
66	66	3
49	60	2
65	79	1
69	70	3
34	79	3
70	70	7
30	30	13
50	60	2
48	50	4
50	59	5
68	68	6
64	64	9
10	13	3
27	27	8
66	72	3
31	31	9
51	55	2
7	8	1
81	81	17
62	62	7
11	11	17
79	89	4
9	11	2
1	29	1
13	17	5
77	77	3
78	78	3
22	46	6
54	62	2
10	12	3
21	22	6
87	87	4
8	8	7
29	88	1
7	7	9
26	83	2
59	59	6
24	46	2
14	19	2
0	0	5
28	29	2
69	69	10
56	56	9
20	20	6
25	25	4
64	65	5
26	31	1
9	10	8
85	85	11
29	57	1
19	19	5
78	79	5
14	14	10
21	21	4
49	50	9
77	79	2
58	60	1
22	31	3
17	21	4
9	63	2
61	61	5
15	15	3
8	19	5
46	47	4
51	59	2
11	12	1
5	21	1
71	71	6
1	1	5
9	9	3
88	88	4
84	84	13
82	82	5
75	77	2
27	47	3
10	10	10
70	71	3
4	5	2
53	55	2
58	83	7
27	28	3
48	55	1
63	64	3
10	18	2
51	73	3
57	58	1
54	55	4
29	29	6
48	48	4
60	60	7
6	25	2
47	53	1
9	13	3
62	63	2
73	73	4
34	34	2
8	25	1
58	68	1
76	77	1
59	61	3
28	28	6
73	74	1
47	76	2
77	80	3
27	69	3
25	26	3
81	82	2
6	10	5
52	55	1
3	4	3
24	31	6
48	49	3
60	61	3
62	83	1
16	16	1
34	64	3
49	54	2
65	71	1
60	63	3
75	76	5
74	74	3
58	74	2
81	83	3
53	56	1
74	75	1
0	89	2
46	46	5
23	24	1
20	26	1
1	9	2
3	3	1
13	64	1
27	31	2
2	24	1
28	31	2
20	21	6
31	83	1
31	33	2
13	13	3
6	12	1
53	53	4
53	71	2
63	63	1
47	48	1
65	80	1
11	17	1
86	87	3
29	30	5
64	82	2
72	79	1
12	14	2
22	62	1
6	17	1
6	18	1
49	63	1
68	77	1
52	56	1
50	51	6
22	23	2
5	6	1
7	66	2
23	48	2
61	82	1
72	73	1
53	54	2
90	90	1
17	18	1
65	66	1
14	20	1
71	74	1
56	61	2
50	53	2
58	58	3
51	58	1
5	12	1
32	32	1
8	10	2
26	33	1
58	75	2
13	14	3
8	9	2
17	19	1
19	20	1
64	72	1
7	17	1
65	65	2
8	12	1
8	17	1
34	35	1
18	19	1
23	26	1
26	48	1
72	74	1
12	66	1
80	81	2
72	81	1
33	33	1
84	87	1
55	60	1
66	67	1
