64	64	8
90	90	7
52	52	5
127	128	1
131	131	6
35	37	5
21	21	2
76	78	6
27	27	1
117	137	3
88	88	3
118	118	15
101	124	2
110	110	4
95	95	3
101	103	3
2	5	1
103	103	5
144	145	4
31	31	5
92	94	4
96	96	6
51	51	2
78	78	13
111	116	4
55	55	4
70	90	4
0	0	3
137	138	1
80	80	6
2	9	3
54	125	1
70	106	2
14	14	2
22	22	7
35	35	5
5	6	1
102	102	14
134	134	6
11	69	6
20	20	2
83	85	3
72	72	11
56	61	3
141	141	4
74	74	3
98	98	2
56	56	5
66	68	1
6	6	11
9	10	2
106	108	2
139	140	5
28	28	9
94	119	2
109	109	6
116	116	5
88	91	2
9	11	3
102	134	2
97	98	3
139	139	7
58	60	3
71	72	1
40	41	5
132	132	7
26	26	3
106	107	1
127	127	3
70	105	4
65	73	2
107	121	1
135	135	5
140	140	3
95	97	2
25	25	6
132	140	2
128	129	4
130	130	2
89	89	5
36	36	2
40	40	4
107	107	11
101	101	7
123	123	1
71	122	2
69	70	3
1	10	1
93	93	3
17	17	2
66	66	7
96	128	2
132	133	4
2	2	3
135	138	1
53	53	4
79	82	1
34	36	5
75	82	7
82	83	1
53	55	1
140	141	2
38	38	3
15	16	3
33	34	4
60	60	4
19	38	2
65	65	4
83	89	4
77	78	2
105	105	9
71	71	9
49	49	4
125	125	6
137	137	5
125	126	3
95	96	2
33	33	4
73	98	2
82	82	3
19	19	6
124	124	7
91	96	3
65	67	2
104	107	2
129	129	7
59	59	4
17	37	3
136	136	8
131	132	1
37	37	5
118	119	4
113	114	4
74	87	1
51	52	6
110	112	6
63	104	2
68	70	4
38	39	2
20	21	8
8	18	2
37	141	1
122	122	2
12	13	3
8	8	6
81	81	3
56	81	2
64	65	6
35	43	2
43	133	1
12	34	2
50	50	6
1	1	2
138	138	5
121	121	2
141	142	2
80	81	4
142	142	5
60	61	1
119	142	3
109	110	4
52	123	3
113	113	3
117	133	1
60	128	2
111	111	3
48	48	3
71	73	2
50	51	2
144	144	7
120	120	4
3	3	2
87	87	3
41	41	3
79	79	5
84	85	3
92	92	5
96	97	2
69	73	2
60	127	2
63	63	8
117	135	3
39	39	4
103	104	2
16	140	1
69	69	1
100	100	5
4	4	4
103	118	2
112	112	7
75	75	1
119	121	2
115	116	4
57	128	2
30	37	1
15	15	2
108	108	7
52	104	1
133	133	1
117	117	2
87	88	2
66	70	1
42	42	1
29	30	6
95	100	1
134	135	2
115	117	1
43	43	1
21	26	1
133	135	1
74	78	2
126	126	6
112	116	2
0	49	1
32	32	4
3	5	3
2	4	1
2	3	1
34	35	4
97	97	3
85	85	1
136	138	1
137	139	2
24	24	2
12	106	3
122	123	5
29	29	3
68	105	1
84	84	2
69	105	2
54	55	2
119	119	5
126	127	3
146	146	1
57	57	1
86	86	2
52	53	1
104	104	2
49	109	2
16	17	2
43	100	3
31	36	2
68	106	2
33	36	1
99	100	1
58	58	2
76	77	2
102	121	2
18	144	4
114	114	5
40	140	2
112	113	2
108	121	2
21	25	2
59	126	1
94	95	1
61	61	3
69	106	1
68	68	1
113	118	1
79	105	1
92	112	1
112	114	1
129	130	2
26	69	1
81	83	3
64	109	1
23	25	2
104	118	1
98	108	1
3	4	3
132	139	1
41	42	1
83	84	3
73	73	1
79	121	1
93	111	1
19	39	2
30	30	2
21	22	1
128	128	1
102	103	1
65	66	1
81	82	2
135	137	2
143	143	1
92	93	2
65	117	2
94	94	1
37	109	2
84	91	1
75	104	1
136	140	1
145	145	2
64	105	1
100	125	1
62	62	1
99	99	1
9	9	1
39	40	2
91	113	1
74	82	1
106	106	1
6	14	1
