52	52	4
96	97	1
38	39	2
36	36	7
72	120	5
47	47	6
1	1	5
104	104	6
120	120	1
65	65	9
109	110	3
164	164	1
91	93	4
142	145	3
114	114	3
20	20	8
127	127	17
52	53	1
66	66	4
111	111	3
134	135	1
10	10	5
128	130	3
81	81	9
151	151	4
57	57	9
24	41	1
79	79	2
45	45	7
12	13	5
140	140	2
37	37	7
148	148	5
56	56	6
85	87	2
64	118	2
44	44	9
61	62	3
128	129	3
39	39	6
34	34	3
74	74	6
65	78	1
3	4	3
145	160	1
80	80	3
155	156	3
23	23	4
135	135	2
41	41	6
22	22	12
9	9	2
27	27	4
63	64	4
94	94	4
3	3	4
118	118	8
129	129	4
115	116	1
91	91	8
20	28	5
162	163	3
70	70	4
144	166	2
35	35	6
132	162	3
6	6	4
69	69	9
33	38	3
13	13	6
65	67	9
123	124	4
24	25	4
22	23	3
143	147	6
145	163	4
130	130	3
24	24	4
15	15	5
138	139	4
122	122	3
163	164	9
50	123	5
22	118	2
4	114	2
149	149	3
102	102	5
166	166	5
33	34	2
106	106	10
67	67	5
87	115	3
79	80	3
49	49	6
46	47	5
92	143	2
47	51	3
4	4	7
143	143	4
125	126	6
159	170	1
83	83	5
55	56	6
8	8	3
76	149	3
87	87	3
167	169	3
96	96	2
58	62	1
169	170	4
143	144	4
159	159	1
169	169	2
108	108	3
42	42	4
8	24	1
17	18	3
146	147	2
4	112	4
47	48	1
78	78	5
107	107	3
101	101	4
76	76	2
34	35	3
68	68	3
69	70	1
28	28	3
139	141	4
84	116	3
168	168	2
126	126	2
14	15	3
117	118	2
38	38	5
92	93	2
88	116	2
16	41	1
127	154	2
108	109	5
158	158	2
92	92	5
15	18	1
14	14	2
120	156	1
3	13	2
157	157	2
8	19	3
124	124	3
132	132	4
88	89	3
24	44	1
101	102	5
107	111	6
142	142	4
57	62	2
20	22	4
163	163	1
154	155	1
5	47	2
119	120	3
131	160	1
88	88	6
166	167	1
123	123	3
102	103	1
15	17	3
162	162	1
15	16	3
51	57	1
139	139	3
36	37	2
7	7	9
12	24	2
90	90	1
161	161	1
13	14	5
66	68	4
103	104	2
63	114	3
16	47	2
149	150	3
89	89	6
119	119	2
85	85	4
74	77	2
99	99	2
55	55	5
18	20	1
147	167	1
17	17	7
4	65	2
56	57	1
46	112	4
25	25	5
16	18	1
65	77	1
109	109	4
107	108	2
3	5	2
85	118	3
63	118	1
84	85	1
12	113	3
81	83	1
33	42	2
16	46	3
127	128	2
46	46	2
131	131	1
18	49	1
48	49	1
125	157	1
115	115	2
19	19	5
2	2	2
160	161	2
105	105	5
0	0	1
71	81	2
43	43	3
12	19	1
10	11	2
16	45	3
146	146	2
11	11	3
18	18	3
18	41	1
37	38	2
21	25	1
36	43	1
26	33	2
44	56	1
48	48	3
154	154	1
103	103	1
71	71	2
167	167	1
155	155	2
21	21	2
54	55	4
89	91	1
139	142	6
12	12	1
53	54	2
94	95	1
21	22	1
2	4	1
113	113	4
62	62	1
153	153	2
132	141	1
133	133	2
35	36	2
86	86	2
53	53	1
112	112	3
122	123	1
62	86	1
110	112	2
72	72	2
146	163	1
73	121	2
73	73	1
153	154	1
77	77	3
147	155	2
70	126	1
13	56	1
132	133	1
50	50	2
165	166	1
125	153	1
125	167	3
37	41	1
58	58	1
146	162	1
159	160	1
116	116	1
138	138	2
72	78	2
97	97	1
16	39	1
98	98	1
54	57	1
74	170	1
64	64	1
64	65	3
110	110	1
4	55	1
92	94	1
165	165	1
70	107	1
139	165	1
156	157	1
147	147	1
89	93	1
99	165	2
13	50	1
90	109	1
65	66	1
38	48	1
0	123	1
26	39	1
25	166	1
21	50	1
18	19	1
21	27	1
16	16	1
141	142	1
