62	62	11
62	69	1
106	106	2
68	68	3
105	105	12
93	98	6
63	74	2
33	33	16
35	35	1
50	51	6
65	65	7
85	85	1
80	80	3
52	52	5
42	42	5
29	30	1
55	56	9
77	77	6
21	21	10
93	93	2
94	95	3
51	51	12
27	28	6
61	61	3
48	48	7
22	32	3
86	86	5
26	26	7
80	87	1
43	43	3
20	20	3
72	72	4
70	101	1
40	40	5
82	95	1
64	66	4
23	23	13
95	95	4
57	57	9
75	76	4
54	54	3
55	77	1
41	41	15
26	27	3
90	90	4
69	73	6
26	30	6
30	30	1
38	39	4
50	70	7
41	48	2
82	98	2
103	104	1
47	47	14
81	81	15
88	88	5
34	34	11
49	49	4
89	94	1
83	85	1
59	59	6
44	44	12
67	67	6
69	69	5
32	32	1
106	107	3
83	84	4
71	71	6
20	50	1
55	57	2
100	100	5
39	40	5
39	41	1
88	99	5
58	58	9
102	102	7
62	71	4
103	103	4
50	50	2
55	55	11
89	89	5
25	27	2
84	84	7
46	46	4
20	51	2
61	63	1
53	54	5
65	66	11
63	63	13
44	47	1
65	71	3
99	99	11
61	69	1
35	50	4
42	43	1
101	101	9
66	73	5
77	97	3
91	104	2
42	45	2
53	53	2
64	65	6
35	76	3
22	38	2
94	94	1
19	19	1
37	37	2
72	73	2
78	78	2
87	88	1
91	91	5
78	79	2
60	61	3
64	64	3
51	70	1
56	56	12
95	98	2
58	59	2
39	39	3
74	74	4
82	82	2
96	96	8
67	76	1
68	69	4
93	95	2
33	37	1
78	97	6
20	21	7
80	84	3
61	71	2
66	67	2
22	22	3
79	80	1
34	36	1
35	36	3
70	90	1
88	89	4
31	50	3
82	97	4
42	44	1
61	74	4
45	45	8
70	71	3
79	79	8
80	85	4
25	25	3
47	48	1
87	95	3
97	106	2
98	98	1
31	31	5
36	36	2
62	63	1
66	68	1
24	24	5
88	94	2
90	91	1
99	104	1
30	48	5
73	91	2
89	99	3
102	103	1
62	74	1
59	100	2
36	37	2
29	29	1
89	90	2
80	81	2
25	29	1
97	98	2
61	62	1
96	97	1
39	43	2
104	104	1
74	100	1
94	96	1
21	22	1
70	83	2
92	92	1
29	48	2
84	86	2
41	42	2
77	78	2
97	97	2
66	66	2
38	38	2
70	70	3
41	44	1
40	41	2
33	49	1
60	60	3
95	97	1
63	64	1
74	75	2
37	45	1
90	106	2
88	90	1
104	105	1
33	34	1
57	85	1
56	83	3
78	80	1
91	93	1
75	75	1
75	100	1
44	45	1
