37	37	3
36	36	4
65	68	1
95	95	5
72	72	5
23	77	4
61	61	15
62	62	3
103	103	10
27	27	4
30	31	7
101	101	10
93	95	4
76	77	4
75	75	4
47	47	6
74	74	8
79	79	5
49	50	2
77	77	13
109	109	10
38	39	4
96	96	2
35	35	13
36	81	1
100	101	3
99	99	16
58	72	1
112	114	7
24	64	2
66	66	12
60	60	5
34	35	4
86	87	3
48	48	10
69	71	1
29	29	4
57	57	7
49	49	7
90	91	3
81	81	8
89	90	5
85	85	5
33	34	2
52	53	2
50	50	11
30	51	2
44	44	4
53	53	2
73	75	2
97	98	9
103	106	3
25	25	5
69	69	10
24	97	3
93	93	5
59	61	11
83	83	6
80	81	5
46	48	1
86	88	3
59	60	4
41	41	5
96	97	5
108	108	8
102	106	3
22	23	1
42	83	1
98	98	6
63	72	3
86	105	3
68	69	3
33	42	2
44	45	4
28	28	7
84	84	12
26	27	6
107	108	5
70	71	8
54	54	5
63	63	11
53	73	2
22	22	1
87	87	5
33	33	2
73	73	10
71	72	11
30	30	5
58	71	3
77	78	2
59	59	7
32	41	4
59	82	1
46	47	6
21	21	1
39	40	4
104	104	2
57	85	3
94	95	1
28	36	2
78	78	9
74	77	3
80	83	3
40	53	3
62	65	2
26	40	3
111	111	4
104	105	3
103	104	3
46	46	6
25	26	6
31	32	5
65	71	2
47	49	2
81	84	2
34	34	6
26	26	3
90	90	8
110	110	3
75	78	3
84	85	2
89	89	9
92	92	6
41	42	1
60	111	2
63	64	4
102	103	2
100	100	5
91	91	7
52	52	3
45	45	3
71	73	1
36	37	2
72	78	3
97	97	5
42	42	3
70	91	6
108	110	4
66	67	4
41	44	1
50	51	4
112	112	4
101	104	3
82	86	4
47	48	4
102	102	11
31	31	3
40	40	9
43	92	3
64	67	3
69	70	2
73	77	3
87	91	1
53	60	5
38	38	7
96	98	1
84	101	3
65	67	4
41	54	2
68	70	1
75	76	2
63	70	2
113	113	2
29	30	2
64	94	1
106	107	5
79	101	1
81	87	3
80	82	3
85	86	6
40	41	3
88	91	4
84	86	1
41	52	2
29	31	1
95	97	1
92	104	2
51	51	3
82	84	2
56	56	6
97	99	1
76	76	2
67	68	3
105	106	1
105	105	6
58	76	4
70	70	2
95	98	4
79	104	4
93	94	5
114	114	1
36	65	2
88	89	6
67	67	6
109	110	3
95	96	4
27	96	1
91	103	2
65	65	3
80	80	6
24	25	2
65	81	1
58	59	10
80	101	1
82	83	1
74	104	2
24	96	2
63	109	1
36	90	4
20	20	2
111	112	2
65	66	4
39	56	1
108	109	1
64	65	1
60	110	1
91	93	1
56	77	1
100	103	1
73	76	2
86	89	1
58	78	2
75	104	1
55	56	3
66	105	1
57	58	2
104	106	1
32	42	1
67	103	1
78	79	1
56	85	1
86	86	1
107	107	4
78	95	1
30	33	1
20	21	2
94	94	4
45	95	4
89	91	1
92	94	1
19	19	1
98	99	2
72	73	1
66	86	1
53	54	1
40	54	2
22	25	1
26	96	1
71	71	1
76	78	1
58	58	3
45	46	1
92	95	1
69	106	2
56	86	1
68	68	1
22	77	1
26	28	1
43	43	1
62	71	1
51	52	1
82	87	1
78	80	2
86	91	1
81	90	1
39	60	1
113	114	1
99	111	1
68	96	1
78	81	1
