109	111	5
68	68	6
19	19	15
35	35	25
100	100	29
85	86	12
109	110	7
84	88	1
18	28	3
59	60	5
108	122	3
60	63	2
0	0	4
81	81	12
46	46	21
45	45	13
18	18	10
8	72	3
4	4	14
22	24	6
7	47	3
2	11	1
65	65	10
77	78	6
33	33	10
107	107	5
91	91	14
6	6	28
118	119	4
41	41	4
56	58	1
78	82	3
101	101	10
3	3	10
86	86	10
83	86	4
11	70	3
49	50	1
73	73	18
78	79	7
122	127	3
85	87	2
124	124	9
95	97	1
87	88	8
84	84	12
36	37	1
98	100	1
60	61	2
102	102	19
30	31	11
116	116	8
95	95	9
8	8	24
57	58	3
28	28	9
8	9	9
2	2	10
9	10	5
12	17	2
47	47	17
76	81	2
62	72	2
98	98	7
13	13	13
106	106	9
72	72	14
15	15	11
117	117	11
101	102	11
5	6	15
116	117	2
68	70	2
83	83	11
12	16	1
80	80	5
74	116	5
24	27	5
26	26	15
58	58	13
9	9	11
120	121	3
9	19	6
84	86	5
103	103	10
115	115	5
42	43	1
15	16	3
96	96	4
14	15	5
19	20	3
125	125	5
32	32	9
45	64	4
27	27	8
2	4	2
108	113	8
71	71	7
85	85	2
17	20	5
29	29	9
5	7	7
77	83	5
77	77	2
92	98	1
48	48	21
30	30	5
15	17	9
11	11	11
97	97	4
103	104	2
90	100	4
111	111	3
109	109	4
18	19	1
31	31	4
39	55	1
23	23	4
14	17	1
66	66	23
87	87	9
91	98	4
113	114	2
110	119	2
29	48	4
108	108	6
5	5	11
36	36	11
46	93	1
82	82	16
128	128	12
115	116	8
90	90	7
37	37	5
56	68	7
11	12	1
94	99	3
113	113	5
108	114	4
123	123	11
69	69	12
49	49	10
22	22	8
17	17	8
37	78	4
62	62	8
37	42	3
89	89	4
104	104	6
23	24	1
25	25	4
119	121	7
4	100	2
120	120	5
126	126	4
20	20	18
27	90	1
14	98	5
108	111	7
96	100	2
104	105	8
14	14	10
4	5	9
6	7	10
62	69	2
111	113	1
99	101	3
50	50	4
63	63	4
12	12	7
99	99	6
1	1	6
78	104	3
121	121	6
118	118	9
62	67	5
90	95	2
123	124	15
112	112	4
84	85	2
8	36	1
93	93	7
129	129	10
119	120	2
21	21	12
15	26	9
45	46	2
112	128	2
13	15	2
25	47	3
61	76	2
39	39	4
26	27	6
117	119	3
127	127	4
70	70	9
114	114	2
43	43	5
81	82	3
68	69	3
61	61	9
59	67	5
87	100	2
109	112	1
28	90	3
75	75	15
48	88	3
5	91	2
76	76	6
10	10	8
44	44	9
77	111	3
12	13	8
57	57	12
88	89	6
35	36	8
11	93	4
13	14	1
3	33	1
76	77	3
32	35	6
105	105	8
64	64	13
36	82	4
82	83	3
124	125	8
132	132	7
67	67	6
78	78	13
21	22	2
28	78	1
55	55	2
45	69	1
4	101	3
34	34	9
30	32	3
82	85	2
19	27	3
92	92	5
43	56	2
44	70	1
9	12	2
60	60	8
57	59	5
20	24	2
58	59	6
133	133	1
34	35	4
27	93	2
114	115	2
16	19	1
56	56	4
19	24	2
100	101	4
37	82	2
23	74	3
130	130	5
69	70	1
24	25	2
96	98	1
16	16	8
37	38	2
94	94	9
45	98	2
79	80	6
17	78	1
74	76	3
88	92	2
41	42	1
90	97	2
71	72	3
15	25	2
59	59	9
93	94	3
32	57	5
4	26	3
7	8	1
110	110	9
83	84	2
10	17	3
17	18	1
21	76	3
15	18	1
45	89	7
8	76	4
111	112	3
32	33	4
31	82	1
131	131	4
99	100	1
75	76	4
63	64	1
95	96	5
74	74	4
9	11	5
48	49	1
92	97	1
64	68	1
78	101	2
122	122	2
18	20	1
46	47	2
86	87	2
88	88	4
61	63	3
24	24	4
65	66	2
26	47	7
107	108	2
18	79	1
84	90	2
40	40	4
6	8	2
45	71	4
36	43	5
7	26	2
58	62	2
23	29	1
30	75	2
124	128	2
97	98	1
4	7	2
110	111	3
27	92	2
77	79	2
2	9	1
26	48	2
65	68	2
46	80	1
46	61	2
72	74	1
17	76	1
8	23	2
89	92	1
77	105	1
47	48	5
27	29	1
132	133	2
7	7	4
66	98	1
118	122	1
46	64	1
14	16	3
105	107	1
0	1	1
108	109	2
109	113	1
78	80	2
128	130	1
20	84	2
47	62	2
17	73	1
25	78	1
61	62	2
63	75	5
31	32	2
83	87	1
82	84	1
130	131	2
107	122	1
17	74	2
19	21	2
131	132	1
132	134	1
21	82	1
91	100	1
49	93	1
79	79	5
105	108	1
89	90	1
33	34	1
112	113	1
7	25	1
92	93	1
27	28	2
89	91	2
10	13	1
11	27	1
40	42	1
15	23	1
84	87	1
67	68	1
126	127	1
108	110	3
16	17	1
15	30	3
4	6	2
3	4	1
28	79	1
123	128	2
30	48	1
4	8	1
121	125	1
27	99	1
5	101	1
3	9	1
73	74	1
72	73	1
2	19	1
93	98	2
70	77	1
119	119	2
20	27	1
91	92	1
111	116	1
47	78	1
48	95	1
46	48	1
18	78	2
111	129	1
134	134	1
61	72	1
29	32	1
62	65	1
96	97	1
45	72	1
1	2	1
40	41	1
20	21	2
43	45	1
