1	2	4
80	80	15
77	83	3
4	21	4
68	68	12
63	64	1
54	55	4
66	66	4
8	8	6
84	84	16
16	17	4
19	19	19
86	86	8
54	54	14
2	2	17
25	25	9
75	77	1
83	83	10
76	76	13
70	71	1
75	75	9
4	4	5
70	70	5
27	27	6
53	53	9
86	87	10
10	10	19
59	59	5
24	24	12
88	88	2
7	7	5
15	16	8
6	7	6
74	81	1
64	64	4
59	61	1
87	87	12
84	86	5
81	82	4
73	74	1
65	65	5
50	50	9
21	85	5
67	68	8
81	81	9
62	62	5
29	29	3
12	12	4
9	10	4
1	1	11
28	57	9
57	57	10
5	13	3
67	67	8
21	22	1
7	8	4
59	60	4
74	74	24
77	77	11
58	58	12
11	11	15
34	34	6
3	3	12
23	87	1
55	57	1
22	23	1
28	28	2
47	58	5
31	31	3
52	52	19
47	47	5
4	5	4
84	85	5
78	78	2
17	20	1
49	49	5
72	72	9
10	21	1
9	23	1
82	83	10
19	20	2
77	80	6
85	85	5
23	23	18
69	69	7
53	56	1
78	79	5
84	88	2
80	81	3
11	12	6
56	81	2
22	32	3
5	6	6
63	63	2
30	30	4
63	65	1
74	75	8
61	61	3
14	14	6
0	0	2
79	80	3
79	88	1
72	80	1
26	47	1
17	18	4
47	48	3
13	13	5
9	9	7
80	82	4
73	73	11
64	79	4
5	5	2
61	63	2
80	84	1
24	25	5
79	79	2
22	22	1
6	6	4
24	27	1
17	17	4
56	56	5
54	59	1
12	13	7
49	50	2
1	3	2
48	48	4
15	19	1
53	54	5
29	30	4
89	89	4
6	8	2
80	87	2
23	50	1
5	8	5
55	55	1
25	82	1
57	58	2
15	15	3
13	20	2
82	87	1
71	74	1
51	78	1
32	33	2
59	72	3
79	81	2
47	54	2
20	22	2
10	11	1
18	18	1
16	16	1
78	82	1
20	20	2
53	67	1
46	46	3
50	55	2
60	60	4
88	89	1
34	35	1
61	62	1
51	51	2
75	76	3
64	65	2
18	19	1
82	82	3
76	77	1
5	10	4
28	90	2
55	56	1
8	23	1
65	66	4
52	78	1
49	81	3
48	49	1
0	1	2
62	63	1
25	26	1
15	23	1
27	56	2
78	80	2
56	87	3
70	77	2
12	21	1
0	2	1
21	21	2
22	85	3
71	71	3
56	57	1
47	57	1
75	84	2
48	68	1
62	66	1
77	79	1
8	9	1
56	58	1
0	3	1
7	12	1
71	72	1
3	4	1
90	90	1
46	49	1
24	26	2
62	64	1
12	14	1
1	89	1
75	81	1
89	90	1
69	70	1
47	49	1
4	30	1
