185	185	5
148	193	5
214	216	8
175	209	4
28	28	22
127	127	15
75	84	7
219	219	17
33	49	2
26	26	28
40	40	16
8	8	19
29	29	8
237	237	18
2	76	4
76	77	13
65	69	4
200	201	2
81	81	7
43	166	3
177	177	18
200	242	3
7	8	7
43	43	18
104	104	19
52	53	1
199	199	13
48	48	21
195	195	1
240	241	3
67	68	6
7	7	6
201	201	18
163	214	4
189	206	1
1	1	7
113	113	15
2	3	12
132	140	6
27	28	3
5	5	10
190	202	3
116	117	9
76	80	2
67	67	9
192	194	8
30	30	11
10	10	9
180	180	7
18	34	3
54	84	3
35	35	8
188	188	7
62	62	12
18	18	14
133	133	15
3	65	4
179	210	6
22	22	7
199	209	3
24	24	13
169	169	4
2	2	22
17	17	10
191	191	2
197	227	3
63	73	1
222	222	15
182	182	16
23	23	12
31	31	10
42	42	18
62	71	2
137	137	4
61	61	8
134	134	5
186	222	7
136	136	14
64	75	3
150	150	17
39	39	18
22	59	7
6	7	3
29	31	2
173	173	13
160	213	2
20	86	3
154	154	21
49	50	2
76	76	16
99	100	5
77	78	9
125	126	4
218	218	15
241	242	8
85	85	24
107	114	1
7	12	8
59	59	8
231	231	19
65	65	26
234	234	6
20	20	27
23	24	7
174	232	1
207	207	18
73	73	21
27	27	15
227	227	11
25	25	10
130	158	3
223	223	12
109	109	7
38	38	15
44	69	3
147	147	10
16	187	5
3	89	4
15	59	5
165	169	1
44	44	11
64	64	8
231	232	4
97	134	4
11	18	6
147	148	11
153	213	4
19	21	8
4	187	2
59	60	7
225	225	16
15	15	17
211	211	18
46	46	20
203	203	9
129	130	4
87	87	1
68	68	9
127	139	4
10	150	2
11	11	7
171	171	12
56	56	25
120	120	10
12	21	6
71	71	18
146	146	14
204	204	8
163	180	7
129	179	7
0	76	3
37	46	5
156	156	8
177	178	6
167	179	2
99	106	1
39	82	1
206	206	11
162	162	9
196	197	3
16	16	12
6	6	19
6	12	3
141	141	8
57	57	8
186	186	12
9	159	1
195	196	2
172	172	17
82	83	6
14	14	26
17	58	4
169	172	3
216	216	8
102	103	5
130	130	11
101	101	13
102	102	23
49	49	16
212	215	3
166	168	3
76	79	5
74	74	25
153	189	2
159	159	5
53	53	10
112	112	2
123	123	13
197	197	14
211	212	3
59	102	4
103	103	15
28	29	1
36	58	2
165	200	1
29	49	5
67	96	2
78	78	10
13	14	9
175	175	2
119	119	15
213	213	4
151	151	13
83	83	10
63	63	4
21	21	17
62	63	8
97	97	10
80	80	13
196	196	13
54	54	12
95	120	6
194	195	3
174	220	3
156	161	2
10	24	5
242	242	9
115	116	3
106	125	1
12	17	3
148	148	5
118	118	10
228	229	8
239	239	4
99	99	18
167	170	4
179	179	11
102	118	2
162	204	3
233	233	9
138	141	6
192	221	2
210	211	3
228	228	6
172	208	3
84	85	5
105	109	1
62	73	2
190	190	6
42	44	3
70	70	17
45	47	4
31	32	2
188	223	5
15	17	6
139	139	13
88	88	12
36	36	20
135	135	7
20	62	3
100	100	14
4	4	13
22	52	1
142	142	10
170	204	2
122	122	11
208	216	3
163	215	7
115	161	3
192	220	2
9	88	1
153	154	4
95	95	4
52	52	8
21	22	4
167	177	1
21	123	2
10	39	2
150	151	1
213	216	2
124	127	5
169	213	1
33	35	4
44	45	11
35	36	7
166	201	3
187	187	3
9	67	1
205	206	4
210	210	5
183	183	4
152	153	2
103	104	2
57	58	2
105	105	2
209	209	16
106	106	14
160	160	8
98	98	5
188	206	6
168	168	13
58	58	10
34	34	2
230	230	5
42	43	5
139	140	9
128	128	13
230	231	7
219	230	4
4	5	5
134	135	5
118	136	1
189	189	6
46	63	3
115	115	9
154	219	3
153	160	2
89	89	1
96	97	3
78	79	6
102	233	1
41	41	2
239	240	8
8	9	1
19	20	5
200	200	20
80	81	10
232	232	12
125	125	13
24	59	3
116	116	3
65	66	4
12	49	3
143	143	6
138	138	1
37	191	3
18	19	6
121	129	4
55	65	6
205	205	9
185	187	6
204	223	2
62	69	2
9	9	4
145	215	1
150	168	6
17	41	3
51	52	5
6	14	3
51	51	6
240	240	6
165	175	4
72	72	10
169	170	2
84	84	17
179	200	2
47	47	18
205	227	3
174	174	8
28	83	3
184	186	5
45	76	2
181	181	7
110	110	7
165	165	5
10	11	3
220	220	10
64	74	1
0	1	3
33	60	1
218	222	2
98	99	2
0	0	10
83	133	2
168	204	2
166	166	5
181	182	4
145	167	1
124	125	3
12	13	3
173	178	8
149	149	6
235	235	4
153	153	7
8	62	2
182	191	1
19	19	12
178	201	4
1	2	3
29	30	4
180	200	1
163	164	2
180	181	3
126	126	6
24	75	1
75	75	13
126	127	3
107	108	5
215	215	2
55	56	1
135	136	2
51	53	3
26	67	2
137	138	3
45	46	4
158	158	2
178	179	2
166	167	3
214	214	5
169	178	2
167	167	4
157	157	9
37	37	6
177	218	4
102	119	2
45	45	9
141	175	4
170	170	10
6	91	1
175	176	1
176	176	12
131	131	5
55	55	6
15	16	4
40	41	3
76	123	4
77	117	2
13	13	6
103	105	10
213	214	6
12	19	2
184	184	2
203	205	1
33	33	5
192	192	6
152	152	3
5	14	2
220	224	2
192	199	1
164	164	8
53	89	4
140	140	2
148	170	1
3	3	7
64	98	1
241	241	4
12	52	1
108	109	5
66	66	10
217	217	5
171	190	1
144	144	10
20	56	1
120	134	2
69	69	6
0	32	5
13	186	3
41	170	3
96	96	7
129	129	8
202	203	1
24	26	4
208	208	3
63	69	2
164	165	4
37	38	1
39	69	4
178	178	4
119	128	2
181	193	3
129	199	3
54	83	1
49	59	1
44	96	2
114	115	2
226	227	2
77	79	6
101	102	1
79	103	1
155	156	5
128	129	5
174	189	7
97	101	2
1	15	2
201	208	2
120	122	1
141	142	1
107	107	4
181	242	1
26	71	5
31	33	4
116	161	1
155	158	2
50	52	2
32	58	2
172	173	5
2	13	2
7	15	1
0	2	1
9	81	2
229	230	2
171	216	5
12	12	3
20	21	4
63	70	2
48	49	1
24	209	2
40	43	4
48	120	1
221	221	5
24	85	1
148	203	2
3	4	4
162	182	3
168	177	1
79	80	2
48	50	5
223	229	1
232	233	5
43	64	2
31	170	3
128	136	1
79	79	9
70	73	5
120	121	2
25	45	6
177	205	1
3	5	1
140	141	1
12	41	2
118	119	4
193	193	3
11	23	1
163	163	5
58	120	1
141	143	1
165	166	3
86	86	3
41	42	3
17	18	7
30	33	1
5	17	3
81	84	1
12	40	2
23	68	1
16	17	4
64	65	3
191	232	4
171	220	3
148	171	1
157	159	3
43	191	1
77	80	2
9	42	1
185	186	5
183	198	3
30	49	3
3	32	1
113	114	5
3	11	1
42	190	3
0	28	3
7	13	3
184	201	1
123	124	2
212	212	3
20	48	2
35	64	1
41	227	1
48	74	1
194	194	2
27	67	1
54	55	1
202	202	7
145	175	2
44	64	3
111	111	1
21	88	1
212	214	3
121	130	4
136	137	2
156	157	7
77	77	5
214	222	1
238	239	3
229	231	2
224	225	3
170	217	1
100	131	4
37	233	1
15	187	5
121	121	6
175	212	4
189	190	1
145	146	2
229	229	3
151	219	1
41	231	1
18	50	1
36	38	2
34	35	2
2	89	1
81	82	2
230	233	1
42	45	2
140	174	4
208	209	1
174	215	1
24	25	2
44	140	1
114	114	4
104	108	1
114	120	2
170	188	1
174	175	2
207	208	2
66	67	2
172	204	2
40	228	3
161	161	4
9	83	1
148	202	2
37	69	3
146	147	2
230	232	2
20	39	2
32	37	2
112	113	1
111	144	2
199	200	2
8	125	1
155	195	1
101	134	1
64	69	3
188	189	2
224	227	1
40	206	1
102	127	2
83	134	2
182	183	3
130	140	2
122	126	2
28	191	1
38	39	7
118	149	1
113	115	2
100	101	1
29	68	1
71	72	5
210	214	1
150	172	1
95	101	6
215	216	4
153	159	2
106	116	3
5	7	2
5	8	2
147	149	5
117	152	2
23	30	2
7	190	2
233	234	1
131	136	1
146	233	1
237	238	2
226	226	1
88	190	1
161	191	3
51	92	1
170	202	4
172	220	2
131	159	1
153	162	1
3	6	4
227	229	1
102	109	3
27	44	3
111	147	1
7	11	1
21	51	1
54	85	3
49	115	1
117	118	1
22	51	1
145	145	1
174	224	1
10	46	1
170	171	3
122	134	1
28	84	1
155	155	2
70	71	1
22	49	1
108	108	3
68	69	1
217	218	2
79	105	1
34	36	1
71	73	1
37	66	1
201	202	3
23	53	1
79	120	2
37	73	1
156	158	1
205	223	1
189	223	1
50	50	3
204	205	1
175	223	4
174	214	1
124	139	1
164	169	1
32	32	1
220	227	1
215	218	3
166	176	1
2	7	1
228	230	2
152	159	2
170	218	1
83	135	1
47	120	1
0	58	1
66	68	1
68	79	1
20	88	2
9	10	1
124	124	1
166	170	2
21	49	1
130	137	1
147	174	1
133	134	5
39	42	5
198	198	1
198	204	2
193	194	1
58	59	1
50	58	1
14	16	1
1	46	1
48	217	2
30	79	2
130	179	1
199	212	1
147	171	1
197	198	1
22	50	4
128	137	1
4	17	1
165	204	1
2	14	1
152	213	1
0	9	1
9	20	1
66	69	1
169	215	1
7	9	1
9	12	1
102	160	2
166	222	1
28	148	1
11	15	1
181	198	1
3	188	1
86	151	1
15	18	1
51	62	1
32	62	2
229	232	1
27	37	1
1	157	1
167	168	1
151	178	1
67	119	1
25	140	1
136	143	1
2	16	1
213	218	1
220	221	1
118	161	1
27	61	1
224	224	1
9	30	2
26	74	1
190	191	1
14	15	1
127	138	1
210	220	1
14	17	1
133	135	1
203	225	1
65	68	1
61	62	1
65	99	1
114	117	1
