121	124	3
112	113	6
25	27	4
123	131	1
23	23	7
91	91	7
54	59	4
59	60	1
118	119	5
18	18	4
122	123	14
123	123	7
19	19	7
131	131	8
13	13	4
14	14	3
105	135	4
126	126	5
75	75	11
88	88	9
107	137	7
75	105	1
20	20	4
136	137	7
73	73	8
140	140	3
94	94	9
112	112	3
95	98	1
142	144	1
144	144	5
67	85	3
79	79	8
68	69	8
81	81	3
95	95	7
117	138	3
61	61	7
141	141	9
63	63	5
130	131	5
136	138	13
129	130	1
77	77	3
10	10	3
33	33	5
65	65	3
135	135	5
89	141	2
84	114	1
3	3	4
101	101	4
67	128	1
119	119	6
94	95	1
110	110	2
38	38	9
48	95	2
124	124	4
58	138	1
39	43	2
106	135	1
87	111	3
101	102	4
120	120	7
24	25	4
78	78	8
118	118	4
64	68	1
40	40	12
95	99	3
129	129	12
4	4	3
125	127	5
53	53	10
102	103	5
5	20	2
87	88	2
114	114	6
49	50	5
20	21	1
54	134	2
63	70	1
84	84	8
107	117	3
139	139	8
22	22	6
41	41	5
25	25	10
89	90	2
102	102	1
33	35	1
108	110	1
134	134	5
90	90	9
70	70	4
125	125	10
68	144	2
111	111	6
141	143	2
64	65	2
125	128	5
129	140	2
26	26	11
5	21	2
103	103	1
105	122	5
28	29	4
89	89	3
80	80	3
117	117	4
94	98	3
138	138	3
133	135	1
88	94	3
74	74	3
65	135	1
64	64	2
96	96	7
69	69	6
92	92	3
114	115	4
106	106	5
137	140	5
19	22	2
126	128	1
129	142	1
5	6	3
2	27	2
107	107	3
16	16	4
89	92	1
17	17	2
108	108	1
15	17	2
27	27	3
120	121	3
30	30	3
133	134	4
65	113	3
68	68	2
97	97	4
71	77	2
111	113	1
31	37	3
58	58	2
122	122	3
51	51	2
92	138	1
93	93	1
101	120	1
136	136	7
16	17	3
86	132	3
41	42	1
137	137	5
127	127	4
73	74	1
127	130	1
48	48	3
36	67	1
76	77	2
15	15	3
27	37	2
3	5	1
105	105	2
83	83	1
47	47	4
32	33	1
114	139	1
89	107	3
87	87	4
67	67	4
130	130	2
39	39	3
121	121	2
92	113	1
15	16	3
34	35	4
42	104	2
24	24	3
12	12	2
146	146	3
18	20	1
128	128	3
17	25	1
32	32	2
68	119	1
3	4	1
99	99	4
35	36	2
117	118	3
10	19	2
105	106	2
35	35	1
139	140	5
66	66	2
14	25	1
5	5	1
114	130	2
52	52	1
86	114	1
115	123	3
29	29	1
2	2	2
116	116	2
70	82	2
60	60	5
81	82	1
52	72	1
86	86	1
11	20	1
10	24	1
8	9	1
41	102	1
11	11	1
12	15	2
21	24	1
98	107	2
113	114	3
109	109	1
36	36	2
14	82	1
37	37	2
55	55	1
62	62	1
68	70	1
95	120	2
110	115	1
134	135	1
87	110	1
48	124	1
102	141	1
96	117	1
54	54	1
104	106	1
