48	48	22
93	93	8
65	70	4
16	40	3
22	22	6
15	15	8
101	101	4
66	96	1
91	91	10
94	94	11
84	87	1
111	111	8
53	53	28
28	28	11
26	26	12
42	47	3
41	41	23
128	128	12
70	70	9
122	122	20
125	125	10
80	80	15
32	62	2
54	54	19
44	46	6
102	102	7
65	66	6
24	24	14
82	105	1
51	51	20
2	2	18
52	53	10
16	16	12
74	74	9
110	110	16
87	89	1
127	128	5
95	95	10
109	109	13
123	124	4
66	66	11
85	88	1
29	29	17
123	123	16
55	59	8
65	65	19
47	47	9
42	45	4
68	68	10
81	99	5
69	69	13
79	79	8
127	129	3
81	87	1
112	120	3
52	52	29
76	76	16
129	129	10
78	78	5
103	105	6
107	107	16
73	73	10
20	20	23
88	89	6
67	67	14
1	1	18
56	56	27
6	6	22
72	72	3
73	74	1
4	43	3
29	30	7
80	83	3
104	105	3
83	85	1
58	61	2
101	102	8
97	97	6
88	88	7
21	24	2
96	96	17
83	83	13
3	3	14
12	12	28
104	123	1
89	91	5
81	82	2
85	85	8
32	33	4
23	24	5
99	99	16
105	106	4
71	93	1
82	82	4
66	68	3
69	71	2
67	75	4
112	112	7
87	88	5
77	77	14
41	43	6
98	103	3
58	58	14
59	59	18
6	7	3
10	10	17
50	50	10
27	27	11
11	12	1
5	5	15
118	118	7
132	132	9
19	23	2
13	20	3
11	11	7
72	75	2
127	127	9
74	76	3
95	96	4
68	116	6
32	32	6
102	104	3
46	46	15
69	73	1
78	99	5
44	67	4
113	113	12
43	43	5
0	111	2
12	48	3
59	62	4
65	90	6
42	42	11
9	9	4
124	124	8
60	93	1
33	34	2
67	115	2
130	130	22
11	23	5
62	62	12
17	18	13
129	130	4
1	6	1
45	127	1
80	107	3
100	100	14
31	32	4
92	92	9
13	30	2
126	126	11
20	22	6
60	92	2
23	23	17
10	22	1
25	26	8
83	87	1
71	71	8
61	61	7
75	75	16
51	53	4
97	98	5
54	64	3
64	64	5
119	131	1
91	92	3
63	63	11
15	24	4
48	49	6
41	75	3
9	133	1
99	100	1
56	57	2
70	84	5
38	39	6
98	100	1
87	87	5
96	97	2
110	121	1
45	45	10
130	132	2
10	11	2
86	112	1
103	103	13
115	115	11
45	46	4
79	80	2
42	43	1
101	103	2
28	29	3
74	75	3
114	114	7
103	104	3
62	91	4
109	120	1
106	106	18
30	30	8
51	52	4
78	79	9
60	60	5
119	133	2
120	120	9
16	25	1
40	40	10
86	86	11
1	2	2
69	76	2
84	85	1
80	85	2
9	11	2
58	62	1
77	92	4
101	104	3
118	119	6
70	71	6
34	34	5
96	99	1
38	38	4
104	104	10
126	128	1
39	40	7
47	105	2
126	127	3
8	8	16
90	91	3
17	110	1
18	18	6
32	47	1
43	79	3
16	17	4
39	39	10
11	17	2
111	112	2
1	121	1
8	9	4
67	70	2
90	90	3
71	94	3
21	40	3
6	110	1
98	101	2
33	33	10
112	119	1
112	113	2
66	67	1
131	132	3
29	34	2
64	120	2
15	37	5
22	52	1
84	84	3
49	54	1
101	107	1
57	58	2
4	4	11
121	122	5
17	17	5
49	49	12
43	44	1
89	89	2
115	116	7
18	25	5
99	103	3
119	119	12
105	105	10
88	93	1
19	62	1
57	57	16
20	21	1
71	76	1
12	92	1
66	71	2
86	90	2
60	61	4
66	115	6
44	44	6
29	32	5
96	98	4
19	22	2
93	94	1
106	111	1
19	19	10
91	110	4
3	119	1
9	10	2
99	114	1
50	51	2
44	45	5
117	117	7
23	30	2
107	108	1
76	92	1
49	50	4
46	47	5
55	58	2
122	123	7
110	118	1
47	48	3
89	92	1
80	102	1
14	27	1
13	13	7
28	31	1
89	90	5
14	14	6
11	14	2
7	7	7
125	128	1
108	108	4
77	103	1
102	103	5
119	120	4
132	133	2
0	0	3
16	109	1
80	81	4
99	111	1
72	76	4
55	55	2
91	121	2
56	62	2
44	116	1
13	33	2
118	131	2
24	31	3
117	118	2
19	20	3
40	41	2
61	62	2
68	117	4
81	81	2
0	1	1
100	101	2
77	78	2
126	129	3
22	63	1
106	125	2
42	75	1
116	117	3
73	92	1
109	110	1
110	111	5
70	85	2
121	121	10
71	88	1
54	59	4
21	21	7
21	39	1
113	114	1
67	68	7
77	90	3
55	63	2
113	124	2
73	114	1
13	51	3
0	121	1
58	63	1
95	118	1
67	73	2
65	113	1
133	133	1
98	117	3
97	99	1
131	131	7
20	39	2
68	115	1
98	98	1
53	54	2
22	30	2
83	86	1
78	83	2
112	116	3
24	33	2
80	99	2
71	72	1
31	31	3
74	115	2
15	16	1
103	114	2
14	15	3
7	17	2
108	124	1
69	112	1
63	68	1
13	15	2
125	130	1
58	59	1
68	96	1
54	55	2
96	102	2
48	110	2
19	98	2
30	39	1
96	112	1
125	129	2
76	89	1
6	47	1
14	26	2
76	91	1
69	70	1
114	116	1
63	93	1
97	102	1
85	91	1
13	29	3
97	113	2
63	64	1
21	22	1
20	40	1
10	93	1
25	25	3
2	4	1
19	130	1
120	121	1
75	76	1
4	21	1
37	37	1
102	119	1
72	74	2
27	39	2
98	104	1
116	116	1
66	77	1
6	122	1
59	61	1
41	42	2
72	73	2
27	28	2
80	103	1
5	7	1
25	33	1
77	101	1
63	99	1
4	42	1
44	99	1
46	116	1
101	105	1
82	84	1
65	67	1
4	47	1
129	131	1
12	13	1
79	106	1
0	124	1
41	131	1
27	32	1
0	6	1
45	100	1
17	62	1
27	29	1
19	60	1
