117	118	1
92	92	9
69	122	5
68	68	15
83	84	4
129	130	2
79	82	4
15	47	4
65	66	4
76	76	11
88	89	5
49	49	21
14	44	3
81	82	5
51	51	9
82	82	4
55	55	11
56	56	14
43	44	10
78	78	8
8	9	4
100	101	7
25	25	9
40	41	3
106	107	5
44	44	10
47	47	20
119	119	17
54	54	20
112	112	11
114	114	6
6	7	7
121	121	11
121	122	2
62	63	6
6	28	2
103	103	12
89	90	11
81	81	8
98	98	6
123	125	1
73	73	11
125	127	3
117	117	10
24	24	10
5	5	13
18	18	11
50	50	16
133	133	6
125	125	10
93	93	10
112	113	6
115	119	1
67	67	5
127	127	10
13	14	2
70	70	3
29	30	11
29	29	5
0	0	4
69	69	13
77	78	6
79	79	8
13	44	2
32	33	4
12	12	16
80	81	3
43	43	6
45	47	3
88	88	4
16	83	4
104	114	1
58	58	12
107	107	11
71	72	13
59	59	7
52	52	26
13	13	16
71	71	6
76	77	1
17	17	11
100	100	2
20	20	5
60	79	3
19	19	18
80	80	11
19	26	4
18	19	3
118	118	11
46	46	23
109	113	2
31	31	5
122	123	9
96	99	1
48	49	3
8	95	1
96	98	6
44	45	1
104	104	6
24	58	1
50	87	2
105	105	10
126	127	5
132	132	6
126	126	5
4	4	9
20	57	2
48	48	14
57	57	5
52	54	2
129	129	5
5	6	5
68	69	4
72	72	6
93	94	5
32	32	9
84	99	5
90	92	3
89	91	1
16	17	9
4	62	2
52	53	6
123	124	5
42	42	16
5	22	1
29	45	2
72	107	1
123	123	7
59	61	1
22	22	11
61	62	2
10	10	13
30	30	7
126	131	3
98	99	2
7	7	7
28	28	3
102	102	7
96	102	1
63	63	13
7	9	4
102	103	4
131	131	2
75	76	3
70	71	1
4	5	3
128	128	9
77	77	6
89	98	1
121	123	1
54	67	2
1	1	10
124	124	2
55	105	2
114	116	2
77	80	2
131	132	1
130	130	3
53	53	17
27	27	5
45	45	1
39	39	6
26	26	7
19	20	3
16	16	4
53	54	6
120	120	12
111	111	15
97	97	10
90	90	4
100	114	2
62	62	8
124	125	3
126	128	1
113	127	1
9	10	7
9	9	3
112	114	2
109	109	10
38	41	1
14	14	4
39	40	2
61	79	3
86	90	2
108	108	8
95	95	2
49	50	2
98	101	1
23	23	7
110	110	4
86	86	4
120	121	7
113	113	9
72	104	2
17	18	4
85	85	7
38	38	4
31	33	2
50	51	2
115	115	4
108	111	1
66	66	1
59	66	1
60	61	1
3	3	5
46	47	9
40	40	2
27	28	3
42	43	2
87	88	6
15	15	4
96	96	10
58	70	2
61	61	8
116	117	1
78	79	1
110	120	1
101	103	1
15	16	1
18	21	3
11	11	8
22	24	2
13	15	1
6	6	14
69	70	4
67	74	4
7	11	1
0	12	1
32	57	4
21	22	1
15	72	1
7	8	5
87	87	5
99	99	3
56	57	3
86	87	3
40	67	2
101	101	6
24	40	2
89	89	2
41	41	6
2	2	5
92	97	2
31	32	1
50	53	2
122	122	6
65	73	2
107	119	3
66	68	4
2	85	3
1	2	3
80	114	1
87	122	1
84	85	3
116	120	1
52	55	2
64	64	7
74	74	4
84	84	2
85	86	2
128	130	3
125	128	1
110	113	1
65	79	3
91	92	4
115	116	1
64	86	2
63	85	3
114	120	1
12	13	2
65	65	4
118	124	3
90	91	5
80	88	2
107	108	3
3	4	2
14	18	1
30	58	2
25	26	1
118	119	3
94	95	1
85	113	2
10	52	3
109	110	3
108	109	2
50	56	1
51	52	2
99	105	1
91	91	1
89	105	1
1	69	1
6	30	1
117	120	1
8	8	3
21	21	6
50	98	1
83	83	3
60	60	1
25	28	1
70	95	1
31	49	1
117	124	2
120	125	1
57	58	1
60	80	1
58	68	3
107	114	1
128	129	1
110	111	1
2	6	1
49	57	1
13	92	1
33	34	2
106	106	1
24	43	1
3	6	1
98	103	1
98	100	1
125	129	1
84	86	1
69	109	2
105	114	1
48	56	2
86	88	1
41	49	1
119	120	1
94	122	1
109	111	1
