68	68	12
74	86	2
67	67	12
64	65	12
56	56	17
76	83	7
4	4	14
22	84	6
51	52	9
3	3	21
57	57	19
30	30	12
83	83	6
24	24	28
34	34	10
12	13	2
11	11	22
17	17	28
0	0	10
21	24	2
87	87	9
20	20	19
64	64	16
5	19	7
24	25	1
74	74	11
3	4	3
34	35	6
50	56	3
50	50	10
80	80	16
14	14	11
28	28	9
24	28	3
60	60	16
31	31	12
79	79	6
47	49	2
26	26	10
29	30	5
51	51	15
84	84	17
5	5	9
13	13	15
18	18	1
48	48	13
12	12	13
54	54	11
22	22	17
62	62	4
57	58	3
25	25	14
49	49	5
51	53	3
55	56	5
2	2	15
55	55	16
66	66	12
58	58	6
52	52	23
76	76	6
89	89	11
57	66	1
86	86	17
47	47	12
72	73	4
25	53	5
78	78	13
6	27	3
19	31	6
47	69	3
15	15	17
20	27	1
6	7	9
70	70	4
78	79	4
80	84	1
81	81	11
72	72	8
25	70	4
73	73	17
75	76	4
69	69	16
84	85	2
63	67	2
22	26	3
13	18	1
65	66	2
61	62	8
88	88	3
85	86	2
4	24	2
6	6	5
59	59	8
14	15	1
50	62	4
62	63	8
60	61	1
21	21	4
35	48	2
46	59	1
64	78	2
46	46	11
67	68	1
8	8	7
77	77	10
8	9	4
17	46	2
10	11	1
74	75	3
7	83	2
19	19	5
25	26	2
11	14	2
63	63	3
52	53	2
17	18	6
75	75	9
16	16	7
61	69	1
59	66	3
6	26	3
7	28	3
58	59	1
53	53	9
10	13	7
18	26	1
27	28	2
61	61	7
4	30	5
9	9	7
5	6	3
82	82	10
29	29	3
8	16	2
1	1	11
75	83	3
22	23	4
70	77	4
65	65	5
20	21	2
77	78	4
7	7	4
48	49	5
72	74	2
46	47	5
71	71	8
10	18	1
67	69	4
68	69	4
81	82	1
34	60	5
2	27	1
63	65	4
8	11	5
59	65	2
4	23	4
20	31	5
6	25	1
55	76	1
76	77	3
73	81	5
82	83	1
11	13	1
50	52	1
27	27	3
30	31	2
47	58	1
85	87	1
79	81	2
65	72	2
16	46	3
49	52	1
70	71	2
53	58	1
49	50	1
58	72	1
53	79	2
70	72	2
59	62	1
61	63	3
5	31	1
18	31	3
58	71	1
77	79	1
46	48	3
83	87	2
22	24	1
63	64	3
21	84	2
8	10	2
63	78	1
23	23	3
75	85	1
9	11	3
73	82	4
78	80	1
55	79	1
79	80	2
60	62	2
66	75	1
25	27	1
23	25	1
21	47	1
53	56	1
71	75	1
12	14	1
52	59	2
66	72	2
52	79	2
23	24	1
85	85	1
56	70	1
6	31	1
61	68	1
80	81	1
77	80	2
10	10	1
51	63	1
90	90	1
19	22	2
34	55	1
