98	98	3
25	25	9
59	59	3
83	123	1
52	54	12
104	114	8
77	77	5
133	133	7
80	91	4
27	27	8
65	66	2
81	81	5
113	115	3
20	20	2
104	105	4
110	110	9
109	131	2
45	46	1
71	78	2
55	58	4
96	119	2
55	55	4
111	119	3
88	88	8
54	54	21
122	122	4
101	101	12
84	95	3
93	93	6
117	118	3
107	107	5
72	73	5
68	69	10
64	64	7
54	55	4
117	119	2
23	23	1
62	63	2
84	85	8
90	90	14
120	120	3
71	71	7
131	131	6
19	20	9
10	10	2
52	52	8
56	56	10
50	50	11
116	116	5
91	97	3
38	38	2
123	123	9
30	30	7
60	60	9
114	114	8
67	68	6
53	53	7
111	111	12
57	59	1
92	92	5
99	99	8
82	82	5
44	44	6
1	2	3
6	6	13
105	105	5
112	112	8
97	97	12
106	107	8
84	84	8
108	119	4
13	13	2
34	34	1
22	22	7
17	38	4
52	60	1
107	109	4
21	21	3
80	80	5
82	86	2
113	113	7
8	8	9
61	82	2
17	17	2
66	66	14
126	133	3
130	130	7
35	35	12
59	74	1
134	135	1
128	131	4
104	104	8
29	29	7
72	72	13
31	88	2
115	116	5
62	62	7
77	119	3
132	133	11
117	117	9
69	69	13
1	3	1
127	127	6
21	62	1
63	63	3
106	106	9
28	28	1
109	109	9
4	4	8
115	117	1
9	10	2
126	127	1
101	102	5
113	114	5
87	87	4
121	121	6
69	70	5
104	111	4
9	9	1
102	103	6
111	112	1
49	50	4
65	67	2
100	101	3
67	67	2
66	67	7
55	56	2
76	76	9
77	122	2
57	57	5
118	119	5
89	89	4
121	133	1
37	37	2
82	123	4
96	96	5
53	54	4
124	124	4
61	86	3
48	53	2
76	77	3
14	14	3
78	78	11
65	68	3
108	129	3
79	79	8
130	131	3
43	44	1
71	72	7
60	122	4
2	3	6
28	29	2
11	11	5
24	24	5
70	70	10
95	96	3
61	61	5
134	134	4
63	70	5
31	34	2
68	68	2
27	29	2
81	123	6
77	96	1
5	5	3
124	125	1
30	31	4
110	111	2
13	14	1
82	122	2
42	44	2
106	117	1
47	47	2
31	31	1
80	89	1
82	83	9
106	110	1
107	108	2
80	134	1
50	51	3
73	73	3
7	8	3
79	80	5
60	123	2
86	87	4
95	113	1
93	94	2
81	83	1
111	114	2
114	115	3
64	69	1
72	78	2
43	43	3
129	129	7
105	111	3
109	110	3
44	50	1
100	100	3
22	23	3
90	91	2
97	133	2
103	103	4
74	74	2
125	125	5
45	47	2
105	106	1
17	18	2
120	131	3
36	36	6
58	58	4
13	15	2
119	119	4
66	68	1
133	134	4
98	102	1
86	86	3
64	66	1
16	16	2
81	85	2
83	84	2
113	117	1
18	18	7
61	88	2
97	98	1
24	25	2
71	73	3
85	87	1
56	60	1
3	3	4
91	92	2
86	133	2
33	33	2
57	58	2
129	130	2
26	26	2
95	95	4
23	56	3
115	123	2
91	94	1
74	97	4
15	16	2
26	27	1
15	28	1
7	7	5
47	49	1
34	82	1
91	91	4
78	79	1
29	88	2
65	69	2
54	56	1
2	2	2
45	93	1
126	126	3
103	104	3
13	20	1
15	15	4
78	100	1
13	26	2
94	94	5
111	120	1
85	85	7
76	119	2
64	65	2
71	94	1
47	103	3
96	133	3
80	82	2
112	114	3
135	135	2
109	130	1
19	19	1
23	24	1
119	120	2
16	23	2
128	128	1
31	32	1
67	69	3
97	110	1
0	0	4
82	132	1
77	78	6
37	38	2
34	44	1
113	120	3
32	33	2
55	62	1
7	11	3
102	102	1
98	99	1
1	1	2
104	135	1
84	106	1
97	100	3
72	90	1
61	123	2
126	128	1
112	113	1
68	91	1
62	87	1
12	13	2
119	121	1
65	65	4
80	104	2
80	106	1
92	101	2
52	53	2
125	135	1
34	35	1
23	69	1
95	106	1
32	51	1
95	101	1
79	134	2
108	108	1
92	97	1
88	95	1
13	16	1
12	12	1
89	90	1
65	70	1
18	19	2
70	71	1
94	95	2
61	63	1
125	126	1
122	123	1
118	132	1
0	101	1
17	72	1
56	110	1
18	20	1
112	119	1
73	127	1
25	50	1
2	5	1
