52	52	8
9	9	13
27	27	12
99	99	19
152	152	5
65	65	1
12	12	8
102	109	1
47	47	22
108	110	3
42	44	3
98	105	1
57	57	13
153	153	9
71	71	15
41	42	3
112	113	10
87	87	10
72	98	1
19	19	12
72	85	10
96	102	3
107	107	11
23	23	10
39	39	11
105	105	12
106	107	12
144	144	9
7	9	8
79	96	4
97	102	3
74	75	4
18	19	7
50	50	3
22	22	14
114	114	4
119	119	9
29	29	19
17	18	3
144	145	5
88	88	2
135	135	13
39	40	4
7	11	3
35	36	3
33	33	8
86	87	2
10	10	7
24	24	12
95	96	3
45	46	10
7	35	5
75	79	4
151	151	9
4	4	11
130	130	9
97	97	8
80	80	4
110	110	11
149	149	11
83	84	12
22	25	3
30	30	6
20	20	10
148	148	4
15	15	4
54	55	5
92	94	4
74	74	5
8	10	2
77	77	7
138	138	6
96	96	12
112	114	15
113	114	4
120	121	6
24	37	3
15	16	6
92	92	10
73	73	8
71	78	3
8	8	9
70	70	11
77	79	3
54	54	6
38	38	10
84	84	9
42	42	21
119	123	2
119	128	1
121	121	2
44	44	11
67	69	3
152	153	4
101	103	4
43	51	1
136	138	1
102	146	2
136	136	8
68	81	2
76	76	2
128	128	4
82	82	12
149	154	1
113	115	5
102	120	4
48	48	10
25	26	2
112	112	12
104	104	1
28	28	14
63	64	7
31	31	5
142	142	6
13	14	6
141	153	3
131	131	6
103	113	2
24	25	11
76	78	1
58	58	3
17	19	1
95	95	11
114	137	1
140	149	4
81	82	2
56	56	3
139	142	1
26	26	1
67	67	9
136	150	6
83	83	9
32	33	2
100	147	2
99	100	5
74	86	1
79	79	3
66	68	2
7	7	4
22	35	6
43	44	4
82	83	10
28	29	3
69	75	3
126	126	3
36	69	4
139	139	6
53	53	10
40	41	6
115	115	5
46	46	3
75	78	1
68	68	12
55	55	4
32	32	5
143	143	6
86	86	3
105	106	10
72	72	6
6	12	1
100	100	2
40	40	2
13	13	10
30	31	3
106	117	1
49	49	6
11	11	8
98	99	5
25	35	3
111	111	6
104	114	1
32	34	2
21	22	1
19	20	5
85	86	5
9	10	2
108	108	5
78	78	6
33	34	4
109	109	2
147	147	6
118	118	9
66	67	7
16	17	7
85	85	7
34	34	1
69	70	4
4	5	3
65	66	5
64	64	8
55	58	2
127	127	5
14	14	6
51	55	2
103	103	2
98	98	6
121	127	2
120	120	7
122	122	5
82	97	5
135	152	2
29	30	3
145	145	6
103	112	3
64	71	4
105	107	2
120	127	3
5	5	6
27	28	1
69	76	1
68	70	3
71	75	4
53	55	2
22	23	4
132	132	9
141	142	4
44	52	1
145	151	1
48	49	2
41	41	3
48	50	2
120	129	2
44	45	8
26	29	1
11	12	1
131	132	4
116	116	4
8	12	2
38	40	2
134	134	5
24	30	1
68	73	3
104	105	2
62	62	5
68	69	2
2	3	2
16	18	7
31	32	11
43	47	1
6	6	3
129	130	2
149	150	2
14	15	3
101	102	3
146	147	2
45	45	5
130	148	3
146	148	2
119	135	1
73	142	1
33	35	2
140	141	1
94	95	3
31	33	3
106	106	3
81	81	3
36	36	1
42	43	2
88	92	1
73	74	1
36	37	3
120	130	1
17	17	9
150	151	1
47	49	4
34	37	2
115	116	1
141	141	1
102	103	2
61	62	1
23	24	6
154	154	2
76	99	1
131	142	2
75	75	2
72	89	1
141	148	1
107	108	3
133	133	3
68	72	1
63	63	5
35	35	7
113	113	4
78	79	1
6	8	1
20	21	2
100	117	5
80	82	2
51	51	3
118	122	2
93	93	5
69	69	9
21	21	1
123	123	2
69	71	1
101	101	2
105	110	4
10	11	3
40	44	2
61	61	1
81	141	1
136	137	2
136	151	1
25	32	1
64	66	1
122	128	1
9	12	3
12	14	1
16	16	5
132	134	1
79	80	2
123	124	2
77	78	1
129	129	4
84	85	7
124	124	1
70	81	1
3	3	1
121	126	2
116	117	5
53	54	2
127	128	1
143	149	2
62	82	2
46	96	5
54	56	1
95	98	1
104	112	1
77	86	2
8	9	2
4	6	4
18	18	3
90	93	1
119	120	1
102	104	2
96	97	3
63	66	2
135	149	1
43	43	3
124	128	1
25	27	1
121	122	1
20	22	1
75	77	1
18	21	2
75	97	2
101	146	2
34	36	1
46	47	4
150	150	1
128	131	1
45	47	1
24	31	1
37	37	1
80	81	2
13	17	1
86	93	1
132	133	4
71	92	1
134	137	1
23	33	1
38	39	3
75	83	1
103	110	1
105	117	1
76	77	1
140	152	1
105	116	1
142	143	5
34	35	1
141	143	1
135	136	1
30	46	1
117	118	1
25	25	4
68	78	2
133	149	1
77	80	1
102	102	1
27	29	1
132	135	1
3	5	1
47	48	2
115	117	1
66	66	1
140	143	1
125	128	1
146	146	1
117	135	1
50	52	1
