23	30	2
9	13	8
31	32	4
57	57	3
24	24	6
146	146	2
3	3	2
34	34	9
96	96	9
26	86	5
63	63	2
110	111	2
26	26	9
46	46	10
38	39	5
17	46	1
68	68	7
48	48	7
11	11	8
87	87	15
132	133	1
106	107	5
108	110	4
149	149	3
94	94	13
65	66	6
139	145	2
71	71	8
41	141	1
138	138	1
139	139	2
9	14	2
102	102	2
42	139	3
48	115	6
96	98	2
95	96	3
13	13	3
17	17	4
30	30	6
43	80	1
58	58	2
18	18	4
32	32	11
20	21	3
140	141	3
132	132	7
19	19	9
78	78	5
63	64	3
36	36	8
50	138	1
85	85	5
23	24	1
44	44	7
10	38	2
92	92	8
47	96	9
99	119	1
74	131	1
5	6	1
9	9	7
81	81	15
87	88	1
71	77	1
66	69	3
98	99	3
40	40	12
5	12	4
82	83	2
122	122	5
106	106	7
132	135	4
102	103	4
142	142	2
119	119	6
93	93	16
144	144	6
66	68	5
20	20	2
112	112	7
53	53	6
77	77	1
96	99	1
73	73	4
82	82	6
69	70	5
57	87	10
75	75	3
143	144	3
50	50	4
37	37	1
43	81	5
79	116	3
106	119	1
4	38	3
102	104	2
25	25	5
75	77	4
33	58	1
83	83	7
25	152	3
115	115	6
104	104	7
93	94	2
103	103	2
22	22	2
6	10	1
73	75	1
65	65	1
112	114	4
77	78	2
70	70	6
81	83	7
143	143	4
116	116	5
67	67	7
35	38	3
54	54	1
4	6	3
6	8	3
30	32	1
91	91	1
23	23	6
49	49	8
68	76	1
74	88	2
6	9	1
9	10	2
113	113	1
3	4	3
64	64	7
72	72	1
131	131	2
118	118	2
42	45	3
85	86	1
130	130	3
67	129	1
117	118	6
42	42	2
29	29	8
14	14	6
66	66	2
126	127	2
6	6	1
28	28	1
73	131	4
79	79	3
74	74	4
95	95	5
154	154	2
116	130	1
97	97	7
29	30	4
55	55	3
48	49	2
12	12	12
118	119	4
123	123	2
88	88	2
122	124	3
121	121	3
33	39	2
74	118	1
63	84	2
30	31	5
84	84	8
114	125	3
100	105	2
69	69	7
105	122	1
70	71	4
10	10	4
137	138	4
65	99	1
138	146	1
129	135	1
103	120	1
38	38	3
51	51	1
122	136	2
50	51	1
5	5	3
109	110	2
53	54	7
134	134	1
103	104	3
34	149	1
15	15	2
124	124	3
149	150	1
78	82	1
45	46	1
5	9	5
126	126	3
66	67	6
63	78	2
25	90	2
3	12	1
50	63	3
11	12	4
5	7	3
141	141	1
102	115	3
65	97	3
45	45	3
73	74	1
17	18	2
81	82	6
74	75	2
16	45	2
47	47	2
150	152	4
9	43	1
111	111	4
72	79	3
97	99	1
18	19	2
86	127	3
38	40	1
36	37	2
34	63	1
80	81	1
27	29	2
67	68	4
150	151	2
109	113	1
2	2	2
5	11	1
41	45	3
32	39	1
50	139	3
114	114	2
137	137	3
86	86	4
109	115	1
105	109	2
62	62	5
34	35	4
147	148	3
21	21	1
35	35	2
151	151	2
15	16	1
123	136	1
36	38	2
127	128	1
99	105	2
77	98	2
147	147	3
76	76	4
24	46	1
100	101	4
82	88	2
80	80	2
11	13	1
19	20	3
33	38	1
16	16	1
43	43	2
23	31	1
138	144	2
41	131	1
32	33	1
117	123	1
4	4	2
104	105	5
116	127	1
73	127	1
26	87	1
71	76	1
31	31	1
145	145	4
39	39	2
56	82	1
140	142	1
43	44	3
8	12	1
24	31	1
142	143	1
98	98	3
33	33	4
110	110	3
120	122	1
123	126	2
97	98	1
83	137	1
100	106	1
14	16	2
13	14	2
53	55	1
39	41	1
9	18	1
44	45	1
22	23	2
48	83	1
150	150	1
74	79	1
33	62	1
32	38	1
11	23	1
94	97	2
101	116	1
86	87	1
93	99	2
84	86	1
28	30	2
28	29	1
82	117	1
41	41	1
107	107	1
49	69	1
100	131	1
68	69	2
8	21	1
83	136	1
79	130	1
26	29	1
94	95	1
41	47	3
20	28	1
82	87	1
25	26	1
53	56	2
105	111	1
120	120	1
103	105	1
23	25	1
75	79	1
17	45	1
