26	26	20
50	51	2
111	112	10
173	173	30
83	84	17
5	6	19
19	21	2
141	141	24
8	9	7
177	177	8
102	108	5
8	8	17
144	144	12
41	42	24
4	13	2
54	54	20
91	92	6
1	1	14
7	15	6
35	35	13
117	118	5
146	146	10
136	139	3
9	10	18
155	156	6
5	5	21
97	123	1
20	39	1
36	36	20
137	138	1
152	152	8
12	13	4
125	172	1
171	171	12
25	38	2
81	81	8
24	25	10
137	137	15
2	33	2
152	157	1
15	15	20
143	144	3
32	32	20
14	22	5
136	136	16
129	129	5
16	17	11
126	126	8
23	24	9
16	31	3
0	17	2
27	29	6
14	14	25
55	55	8
37	38	7
10	10	26
17	17	21
57	59	5
22	22	16
52	56	9
23	23	18
56	57	4
133	140	6
86	86	11
84	84	8
139	139	12
3	3	13
7	8	7
0	1	7
0	0	17
10	11	12
118	119	10
88	89	8
12	17	2
41	41	18
16	16	17
140	140	18
103	103	20
107	107	13
22	23	6
4	12	3
137	150	5
9	9	24
71	71	17
118	118	17
86	87	3
49	49	3
27	39	2
146	162	3
151	152	6
25	25	17
105	105	21
165	167	7
27	74	1
30	30	30
13	15	8
42	42	26
101	101	7
2	3	2
66	66	7
7	7	16
158	158	12
145	146	5
19	19	6
73	73	9
31	32	17
65	67	3
40	40	17
32	33	18
131	131	10
114	115	9
133	133	8
56	56	12
153	153	21
166	166	11
68	70	2
124	124	10
156	156	12
65	65	6
145	145	19
167	167	12
165	165	5
90	90	11
37	37	29
33	33	36
162	166	2
15	16	9
12	12	19
102	102	13
143	143	6
103	107	3
59	60	2
119	120	6
8	13	6
152	153	10
170	171	11
133	134	3
29	29	25
43	43	13
9	167	5
84	85	3
31	31	31
159	159	28
9	11	9
13	16	6
55	56	6
45	45	18
28	29	9
23	28	3
88	88	5
4	5	6
75	76	1
140	141	6
164	167	1
146	147	6
20	21	5
16	58	1
89	89	16
2	2	13
70	71	3
76	76	18
104	104	9
76	77	7
13	13	13
174	175	2
94	94	18
117	117	6
27	37	3
123	125	3
97	97	10
75	75	11
42	43	9
43	45	1
121	148	3
127	127	17
33	36	4
65	66	10
27	27	11
39	39	10
105	106	2
38	40	5
135	135	10
8	16	2
29	30	4
122	123	8
38	68	2
6	6	13
20	20	10
91	93	4
128	129	6
9	16	4
177	178	5
26	27	8
92	92	3
175	176	2
18	18	10
50	50	7
94	95	2
96	100	1
157	157	9
16	18	4
114	116	4
132	139	2
135	136	9
74	74	13
163	163	12
1	2	9
53	65	4
176	176	21
11	11	14
4	4	6
138	139	1
174	174	4
93	93	6
19	20	2
59	59	11
103	104	5
108	108	10
172	173	8
79	79	12
149	150	8
96	96	5
87	87	19
35	36	14
158	159	7
25	29	2
44	44	12
119	119	6
11	12	6
115	115	10
71	72	3
123	143	3
15	43	1
53	53	16
25	27	3
20	22	2
131	133	5
18	19	4
141	142	4
116	116	7
180	180	12
125	125	14
170	170	19
51	51	5
126	127	6
134	135	7
112	112	14
114	114	12
11	20	1
61	61	7
80	80	13
57	61	2
81	108	1
97	98	4
138	138	25
118	120	4
149	149	26
162	162	6
161	161	13
167	168	6
14	27	3
40	42	4
85	85	4
168	175	1
82	82	8
106	106	8
62	64	5
148	148	18
78	79	5
126	171	1
66	67	3
164	164	11
95	95	17
179	179	6
18	24	1
39	40	6
83	83	8
111	111	13
53	99	3
113	113	8
18	31	2
161	162	9
28	28	6
73	74	1
9	59	2
85	86	6
165	170	5
72	73	1
2	15	3
156	157	3
21	23	3
3	7	3
24	28	2
25	26	8
102	104	2
142	142	15
81	86	3
63	63	7
37	50	3
15	18	3
36	44	1
33	35	6
121	122	4
72	74	3
13	14	7
124	126	4
175	175	9
125	126	11
53	95	2
154	154	7
8	11	1
79	80	3
38	38	7
110	111	1
106	107	3
146	161	1
157	159	1
58	58	5
63	66	4
54	83	2
100	100	2
109	109	6
108	109	4
40	41	6
128	140	5
116	117	6
130	131	2
46	46	3
170	175	1
168	169	6
9	35	2
123	124	7
104	105	3
129	130	3
103	106	1
154	156	4
130	130	8
64	65	6
11	13	7
24	31	1
33	34	5
52	54	5
144	166	3
131	132	2
43	44	11
139	153	5
168	168	9
132	132	10
172	174	5
150	150	10
24	24	6
78	80	1
65	75	1
98	98	5
63	65	3
10	32	4
67	67	4
12	20	1
146	160	2
11	14	3
1	36	1
115	116	2
146	166	3
7	9	8
121	124	1
72	72	10
65	68	4
144	145	8
23	25	9
74	75	8
129	131	4
16	33	1
144	160	3
120	127	3
120	120	7
4	35	3
121	121	4
121	125	3
29	58	1
21	21	11
163	164	4
17	42	2
147	148	2
95	96	1
31	80	4
27	28	4
120	124	1
101	113	1
134	134	7
57	57	7
83	99	1
122	153	3
36	37	2
53	60	4
23	30	2
28	31	3
154	155	2
30	45	2
32	69	3
100	113	2
132	133	7
4	6	1
160	161	1
169	169	6
171	176	2
53	54	1
10	12	2
34	34	15
26	65	1
99	99	8
172	176	3
134	149	1
159	160	3
144	164	2
60	81	2
171	174	2
149	159	3
91	149	1
22	30	4
112	113	2
152	154	4
50	65	1
148	149	2
3	10	3
123	171	1
17	43	1
135	140	1
3	4	7
166	167	5
60	64	1
160	160	10
113	115	4
68	68	2
122	122	8
147	147	8
77	78	4
52	52	5
21	27	1
60	61	5
80	81	3
64	66	3
51	54	1
82	85	1
6	7	4
62	63	3
7	113	2
33	58	1
170	176	3
100	102	1
1	3	2
165	168	3
171	172	2
45	63	1
64	64	8
173	175	1
121	126	5
30	31	2
17	18	7
81	83	2
1	13	1
77	77	4
150	152	2
126	138	2
87	88	1
78	78	5
176	179	2
158	180	1
28	33	1
150	158	4
56	61	1
13	18	1
8	20	1
106	109	2
70	70	3
160	162	1
169	175	4
34	35	3
90	91	2
26	59	2
178	180	2
18	26	1
65	84	2
17	24	2
172	172	6
40	158	1
10	14	1
53	98	2
151	151	4
63	64	3
150	157	3
155	155	2
57	58	4
163	167	1
157	158	1
104	115	1
18	21	2
164	165	1
39	63	4
150	154	4
15	33	3
16	28	1
131	139	1
2	4	2
131	143	2
100	101	2
123	130	1
38	39	1
103	105	3
26	28	1
52	53	2
11	28	4
107	112	2
142	143	1
143	160	1
132	140	1
119	122	1
136	150	2
14	15	4
127	128	4
164	166	2
153	154	1
86	88	2
150	151	1
141	144	1
151	154	1
123	123	3
5	10	1
19	22	3
5	34	3
55	57	2
178	178	3
163	165	2
3	18	2
56	59	1
0	16	4
156	162	1
22	28	2
51	53	3
158	160	1
114	131	1
135	159	1
27	32	3
102	103	3
9	22	1
106	108	3
145	147	1
33	42	1
57	80	2
162	163	2
104	107	3
118	128	1
36	103	1
5	13	1
146	148	2
55	70	1
87	89	1
23	26	1
62	62	1
28	30	1
100	119	1
82	84	3
99	101	1
33	37	1
124	148	3
127	135	1
101	106	3
126	128	1
120	154	1
58	78	1
61	63	1
13	30	1
7	16	1
91	91	2
91	122	2
56	92	1
10	13	2
81	82	1
113	119	1
150	180	1
32	37	1
102	113	1
8	10	1
7	32	1
110	110	1
155	165	2
107	109	1
30	37	1
27	73	1
14	37	1
101	102	1
