31	31	19
108	112	2
78	79	6
108	108	9
38	38	37
132	132	19
154	155	1
164	165	4
66	66	5
100	103	3
89	89	10
8	12	6
22	22	15
53	55	2
84	84	6
15	15	22
67	68	6
90	90	10
33	33	41
13	15	3
77	78	8
145	146	1
43	43	11
49	52	1
172	173	2
110	110	11
9	9	14
28	29	13
72	72	8
29	30	3
5	7	3
179	179	6
30	30	12
168	168	18
3	4	10
110	111	7
29	36	5
72	73	4
14	153	1
68	68	6
76	77	5
7	8	4
87	88	2
52	53	9
157	157	9
119	119	8
71	87	1
124	124	17
4	4	9
25	26	8
2	4	8
64	64	4
15	175	1
24	24	10
114	118	1
54	54	4
109	109	11
94	95	1
45	45	15
26	26	18
131	131	10
12	12	16
17	96	3
6	6	21
84	86	1
41	44	1
84	91	1
34	34	8
170	171	1
21	21	15
87	89	3
98	102	3
168	169	5
164	164	7
135	135	6
39	40	8
131	133	3
157	158	3
32	32	28
8	9	8
98	98	7
38	39	6
166	167	6
135	147	2
3	9	2
65	74	4
103	103	4
173	173	9
45	46	3
133	133	11
29	31	2
12	13	10
14	14	37
0	0	23
62	64	4
53	53	7
145	145	4
7	7	4
10	10	10
105	105	11
28	61	3
174	174	9
20	22	8
40	64	2
152	160	2
121	121	8
82	82	8
55	55	13
138	151	1
117	117	2
43	44	3
93	93	4
138	138	12
8	13	7
152	152	5
16	17	2
62	62	6
94	94	15
159	162	5
58	58	5
95	102	3
2	3	8
90	93	5
161	161	7
5	5	17
66	67	3
80	80	13
101	101	8
26	28	13
140	140	6
122	123	1
73	86	1
39	39	11
22	23	5
75	75	4
9	85	2
71	71	5
19	20	3
59	59	11
35	35	15
147	147	10
178	178	3
154	169	6
8	8	11
19	19	12
65	65	11
104	105	5
10	11	4
176	178	2
112	112	4
160	162	4
16	18	2
155	160	2
30	31	2
92	92	8
114	114	8
106	106	6
29	29	13
25	25	10
173	174	3
143	143	2
75	76	9
103	109	7
29	62	3
15	17	2
142	143	2
126	128	1
1	2	2
11	11	12
44	45	5
37	37	10
144	144	12
17	19	1
25	37	3
95	95	9
129	130	2
14	15	3
31	97	4
90	91	5
25	29	4
151	151	11
36	36	18
10	16	1
103	105	3
33	35	4
126	126	4
17	21	2
115	115	2
15	16	6
130	132	3
13	13	15
76	79	3
129	129	7
96	96	8
178	179	1
141	141	2
31	33	1
17	17	11
163	163	5
72	87	4
1	1	5
132	133	1
59	61	4
31	32	9
155	156	2
8	34	2
91	92	2
21	23	5
119	120	1
91	93	10
107	107	8
38	41	5
149	163	2
23	29	1
85	85	6
2	2	5
179	180	3
76	78	3
40	41	1
167	167	4
78	112	2
111	111	10
137	138	10
73	73	12
20	35	5
23	66	4
160	160	3
4	5	3
113	113	8
77	92	1
7	178	2
137	156	2
34	35	3
127	128	4
10	85	1
44	51	2
7	12	2
64	66	3
175	176	5
155	155	5
119	124	5
81	100	3
50	52	3
74	74	1
66	81	2
88	88	6
148	148	13
56	56	12
6	37	1
112	116	2
41	42	15
158	158	6
19	45	3
130	133	2
120	121	7
23	23	10
27	42	1
37	38	6
136	163	1
42	43	6
123	124	10
135	164	2
26	44	1
127	127	4
60	60	13
131	135	3
24	25	7
16	21	5
118	120	3
103	104	1
114	116	4
166	166	9
40	40	6
103	108	2
104	106	2
102	109	1
105	113	3
111	114	2
130	130	3
51	51	2
13	14	4
149	149	7
90	92	6
170	170	4
27	27	4
2	173	3
26	27	6
0	1	6
177	178	5
121	122	2
30	37	4
139	139	4
4	72	1
128	132	2
8	178	3
107	108	1
120	120	3
11	165	6
160	165	2
70	71	2
44	44	5
66	89	2
143	156	4
83	83	4
128	128	8
119	121	1
82	83	7
14	27	2
150	150	2
134	134	6
32	33	8
153	153	5
20	20	7
81	110	4
65	71	1
156	159	4
134	137	4
146	146	11
146	164	1
149	150	2
13	68	1
153	154	2
17	34	2
137	137	2
176	176	5
102	103	4
23	129	1
55	59	2
34	44	2
71	89	4
51	53	2
117	119	1
125	126	5
50	50	13
61	61	9
171	171	11
124	126	2
103	107	1
3	23	2
165	166	2
108	115	3
78	78	13
111	112	3
5	38	1
81	102	2
175	177	2
88	89	4
125	125	14
85	99	2
4	7	1
5	8	3
135	149	2
17	18	4
156	158	3
61	63	2
118	118	6
83	90	1
12	72	1
79	79	4
16	73	1
57	59	1
156	157	7
63	63	2
122	122	7
124	125	6
31	51	2
164	166	1
102	102	12
14	16	1
159	159	8
0	171	3
81	81	2
124	133	1
42	51	3
107	109	2
104	127	1
103	106	4
106	125	2
15	18	8
67	67	6
150	151	6
16	20	1
12	75	2
28	28	3
73	74	2
163	164	7
125	133	1
36	38	5
162	162	2
18	67	2
136	150	4
72	86	1
104	128	3
70	70	2
53	58	2
16	16	5
28	30	3
60	61	6
41	41	2
3	3	12
142	142	3
18	19	3
104	161	1
4	8	1
33	39	1
81	90	5
54	55	4
82	110	4
135	136	2
130	146	2
52	52	3
138	139	1
36	37	1
10	167	1
20	21	3
13	96	2
29	32	1
131	162	3
116	117	5
135	167	4
40	43	2
43	45	2
74	92	2
8	11	2
16	30	1
65	66	1
63	64	1
30	36	3
24	26	6
16	19	2
9	11	5
42	44	3
77	80	1
10	15	2
32	35	2
68	84	3
116	116	9
151	152	1
130	163	3
25	28	3
117	118	1
67	71	2
90	96	2
23	27	2
3	10	2
41	62	1
172	172	3
73	76	2
34	37	3
81	82	7
152	156	1
83	84	1
96	97	2
127	135	1
167	168	1
99	101	5
91	91	3
165	165	3
136	156	1
161	162	9
139	141	2
6	13	1
150	168	3
11	12	1
117	122	1
41	43	2
75	78	2
151	155	2
152	153	1
18	18	3
104	104	3
5	6	1
35	36	3
164	168	1
129	162	1
97	97	1
77	77	1
5	9	2
24	27	1
103	124	4
9	12	1
12	14	2
116	122	4
23	35	1
42	42	2
6	18	1
148	149	3
22	135	2
81	94	2
74	75	1
15	23	2
54	56	2
6	70	3
180	180	1
130	135	2
101	102	1
38	61	2
39	43	1
83	97	3
175	178	2
7	9	2
154	154	1
82	109	1
14	71	1
7	66	3
18	24	1
30	32	2
80	81	2
130	150	1
11	13	2
55	57	2
66	68	1
146	147	1
115	121	1
24	43	1
163	167	1
6	8	3
152	162	1
127	132	1
92	95	6
151	168	2
10	111	1
17	71	3
113	114	1
84	90	2
178	180	1
30	33	1
118	147	1
39	41	1
28	33	1
129	135	1
87	87	1
122	124	1
144	157	3
144	145	2
5	173	2
129	141	1
175	175	1
17	80	1
62	63	2
141	143	1
131	132	2
15	19	2
49	49	1
154	174	1
136	136	1
91	103	1
118	148	1
59	60	1
26	33	1
40	42	3
57	60	1
71	72	1
123	128	2
76	76	1
29	33	1
9	16	1
154	173	1
136	152	1
26	29	3
77	117	1
112	115	1
152	154	1
154	156	1
15	72	1
140	141	2
129	131	1
30	40	1
112	114	1
27	28	1
78	108	1
19	34	1
77	102	1
163	168	1
51	52	1
96	102	1
41	45	1
138	168	1
111	115	1
153	161	1
169	169	1
159	170	1
173	178	1
157	165	1
99	100	1
105	161	1
7	10	1
144	162	1
83	91	1
