71	71	13
22	23	10
52	52	9
28	28	11
112	113	3
85	85	9
11	11	16
43	60	5
30	33	2
100	100	14
43	43	16
28	29	5
72	100	3
48	48	10
51	51	17
22	91	4
62	62	6
117	117	4
122	123	6
43	44	9
104	109	1
68	129	1
67	67	10
96	96	7
110	112	2
94	94	8
9	9	5
3	3	17
0	38	1
10	10	14
65	66	6
32	124	2
101	102	2
30	30	10
53	53	11
64	64	11
120	120	5
27	27	9
122	122	25
125	125	10
0	10	4
26	26	21
103	103	12
71	133	2
61	62	3
44	44	6
66	81	4
59	60	4
120	121	3
14	15	6
10	54	1
63	128	5
93	93	5
113	114	4
59	59	9
7	8	4
73	76	1
44	47	5
51	52	8
75	76	4
5	7	3
103	120	2
77	132	5
50	50	9
88	89	6
55	55	11
5	5	5
58	59	3
15	28	4
80	80	5
57	57	9
29	29	5
66	66	13
42	43	10
110	111	3
31	32	6
46	46	11
4	6	4
47	47	12
109	109	6
95	95	8
132	132	2
21	22	6
11	12	1
7	7	3
19	19	7
104	105	4
104	104	6
68	68	12
19	94	1
79	79	3
126	127	1
25	25	9
123	123	6
44	128	1
9	10	8
83	131	2
74	74	11
33	40	2
106	106	8
41	55	3
98	98	10
4	17	2
39	66	1
111	111	13
113	115	2
110	110	7
58	58	6
45	65	4
25	28	6
107	116	4
89	89	7
46	131	2
23	23	19
18	63	1
15	15	7
91	92	10
20	20	13
17	23	3
33	34	3
78	82	4
75	75	4
41	41	10
113	113	6
83	126	2
92	92	18
1	1	5
2	2	11
114	115	1
66	67	10
25	79	2
108	108	9
54	54	18
13	14	4
72	107	2
1	34	2
100	101	2
101	101	3
22	22	10
105	105	9
29	99	1
11	13	3
82	82	7
121	121	5
108	127	5
87	90	2
107	114	3
65	67	1
118	118	9
99	99	2
86	87	2
27	28	5
63	64	3
65	76	4
116	117	4
18	23	5
57	76	2
0	1	1
39	41	3
117	119	3
102	103	4
32	61	4
97	100	2
40	41	7
101	118	5
5	17	2
58	62	1
89	92	1
90	96	6
41	58	4
128	128	17
72	75	6
63	63	5
79	81	6
45	133	1
8	8	6
81	127	1
45	45	4
79	80	2
1	2	6
14	14	7
32	32	17
41	42	5
26	30	3
120	125	1
30	99	2
66	68	3
93	94	9
4	4	8
21	23	2
4	7	2
34	129	2
52	53	7
73	73	6
10	11	4
74	103	1
81	82	10
42	46	2
128	129	3
39	40	7
60	132	1
96	99	3
21	21	6
81	81	9
104	117	5
60	60	5
107	107	9
43	46	4
40	42	6
116	116	6
6	7	2
45	80	3
124	124	3
125	127	1
94	116	3
74	106	1
76	76	8
17	21	2
126	126	7
33	33	6
1	4	1
102	102	15
102	119	4
112	112	8
20	55	1
56	56	18
131	131	6
1	6	2
44	55	1
17	31	2
111	115	1
107	113	1
70	70	8
14	27	1
12	31	2
66	103	3
41	63	2
130	130	5
80	81	2
98	100	2
40	40	3
24	27	3
119	119	4
40	43	2
61	61	11
17	17	3
105	108	2
84	84	3
89	96	1
95	96	2
72	72	7
91	91	7
39	39	4
114	114	3
105	111	1
33	66	1
0	0	4
56	57	1
128	131	1
19	30	2
18	21	2
15	29	2
106	109	1
89	91	4
19	23	2
107	108	1
105	109	2
78	104	3
115	116	9
99	101	1
77	115	2
18	18	4
48	49	1
66	129	2
39	49	1
15	52	2
69	107	4
90	90	1
25	43	1
124	125	3
84	85	4
108	112	3
78	105	1
16	17	3
116	119	1
62	63	4
12	52	3
14	28	1
20	21	2
12	12	2
9	53	1
65	65	6
69	69	5
86	86	6
3	97	1
26	31	2
16	16	6
49	109	2
42	42	9
6	8	1
25	26	4
50	51	2
68	79	1
45	58	1
103	119	1
83	83	1
6	11	1
82	84	3
47	48	4
68	78	2
87	113	1
45	55	1
49	58	2
34	38	3
76	116	1
5	13	1
129	129	3
68	69	3
97	99	1
56	79	1
44	65	1
27	29	4
18	31	2
103	116	2
60	61	4
83	84	3
13	26	2
12	15	3
49	49	7
33	100	2
117	118	1
111	112	2
88	93	1
70	74	1
24	24	2
67	78	2
72	73	2
4	24	2
38	129	2
59	75	2
97	98	5
84	87	3
126	128	2
31	124	2
101	128	2
73	74	1
119	120	2
55	56	2
69	71	3
100	104	4
31	31	3
88	88	5
75	107	1
98	99	2
115	115	5
2	96	1
65	77	2
58	106	1
85	97	1
40	44	3
66	78	1
133	133	1
67	127	1
107	111	1
18	22	2
43	131	1
70	71	2
107	127	4
21	90	1
68	118	1
13	13	1
26	27	1
86	98	1
87	87	9
80	92	2
41	65	1
65	101	1
42	45	1
18	19	1
25	33	1
49	54	1
83	100	1
83	103	1
0	96	1
111	124	1
75	130	1
106	107	1
82	103	2
97	108	2
6	6	2
85	86	2
67	131	1
117	131	2
77	77	2
78	79	1
64	68	2
68	101	2
38	78	1
96	97	1
38	38	4
54	57	1
16	18	1
19	61	2
82	127	1
106	111	1
2	3	1
127	130	1
89	127	1
25	109	1
77	79	1
59	62	1
90	91	1
94	95	1
84	98	1
66	102	1
38	128	2
37	38	1
39	57	1
101	126	2
44	45	1
99	100	1
46	65	1
100	102	1
5	33	1
71	89	1
45	82	1
91	95	1
23	24	1
38	39	1
14	29	1
22	116	1
71	131	1
127	129	1
0	2	1
92	93	1
37	114	1
87	88	1
53	54	1
23	29	1
4	5	1
24	25	1
127	128	1
109	113	1
105	107	1
10	31	1
70	72	1
19	55	1
29	126	1
74	77	1
85	98	1
46	59	1
103	104	1
111	114	1
68	109	1
97	97	1
19	21	1
129	130	1
48	58	1
