12	13	8
4	4	9
7	10	3
83	126	4
152	153	9
80	81	1
18	45	2
123	123	7
24	24	23
177	179	1
121	121	3
54	54	8
174	174	11
19	43	2
32	33	13
43	43	14
39	39	15
25	26	11
156	156	7
167	167	8
140	141	2
86	86	4
89	89	12
41	41	17
148	148	13
68	68	2
118	118	2
64	67	3
91	91	6
126	127	6
145	145	7
26	26	16
56	56	2
176	176	7
56	61	3
114	131	7
150	151	3
15	18	2
111	111	9
12	20	1
9	15	5
9	9	7
2	3	3
153	156	2
143	145	4
135	135	2
141	141	11
37	37	11
93	93	12
140	140	15
22	22	22
40	44	2
154	154	10
106	107	2
115	115	8
16	17	8
5	5	12
62	62	16
131	141	1
11	11	24
59	59	9
30	31	11
11	12	3
141	144	5
22	23	5
118	119	3
44	44	6
10	30	4
29	31	2
133	134	7
19	19	11
101	102	5
130	143	1
113	113	3
17	17	11
29	29	13
3	4	16
51	52	1
159	159	12
90	90	8
146	146	4
40	41	4
60	60	2
81	174	3
79	79	8
76	77	13
13	31	4
25	31	2
94	94	18
3	3	22
17	18	8
12	28	4
79	95	2
8	16	5
51	51	3
38	38	11
108	109	8
156	160	2
139	139	3
52	53	2
32	35	4
120	121	3
179	179	3
171	172	4
9	13	5
90	94	1
60	61	6
23	23	18
23	31	4
103	103	6
8	9	13
102	102	2
44	45	2
123	137	2
21	23	5
8	8	15
45	120	3
27	29	2
110	110	16
68	153	4
77	77	6
163	164	4
7	7	20
156	163	4
27	28	9
89	95	6
137	137	5
24	25	18
122	123	2
149	149	5
152	152	2
82	82	4
0	1	5
99	103	1
140	147	1
24	26	8
121	122	2
125	125	8
10	41	4
18	18	9
8	43	1
7	9	9
83	174	1
169	169	10
130	130	11
61	61	4
128	128	4
164	167	4
157	160	1
66	66	5
72	73	8
95	95	5
31	121	2
68	171	3
33	35	6
158	158	9
87	87	4
78	126	2
33	33	12
80	80	2
7	8	5
26	27	2
72	151	1
171	171	11
80	125	3
25	27	1
5	29	2
175	176	4
68	85	6
162	162	7
117	119	4
101	101	4
67	67	6
114	114	3
103	105	4
123	124	5
5	6	13
83	83	9
63	63	3
91	92	10
32	60	1
138	138	1
104	104	6
53	53	8
97	97	6
67	68	5
117	170	3
128	129	4
68	70	1
16	18	3
21	21	4
24	27	2
30	30	8
177	177	4
163	165	1
95	103	1
18	20	5
93	94	8
52	52	2
160	162	2
42	42	10
73	73	8
10	14	4
112	114	4
12	12	1
135	136	5
161	173	1
158	169	4
87	88	2
12	14	1
111	112	4
6	6	9
139	171	2
96	97	8
36	36	18
65	65	7
71	71	6
166	167	5
92	92	5
98	98	19
101	103	1
28	31	3
68	139	1
168	168	7
84	84	11
1	12	3
66	113	2
78	78	7
155	157	3
76	149	1
133	133	3
170	171	5
80	94	2
89	91	2
61	63	2
60	71	2
32	32	9
43	45	1
144	145	3
38	42	1
72	72	4
157	157	5
18	19	8
23	29	3
58	58	5
138	176	2
89	90	2
127	127	14
107	107	19
64	64	8
105	105	6
109	109	12
61	123	3
14	14	9
177	178	5
0	15	3
7	24	2
158	161	5
25	25	12
120	120	7
79	86	3
35	35	13
113	114	1
5	7	3
74	108	4
10	12	3
50	51	7
15	15	10
45	45	5
1	1	4
167	168	3
85	92	2
6	7	2
41	42	5
14	16	3
1	6	1
138	167	2
159	171	2
34	34	8
12	35	4
75	75	2
126	126	10
119	119	9
81	82	2
23	24	4
19	21	2
146	147	1
165	165	3
13	41	1
124	124	4
19	20	4
0	0	4
170	170	13
91	102	1
136	136	9
143	143	11
40	40	7
144	144	7
2	2	2
96	96	6
121	123	4
138	143	3
159	166	7
30	118	1
178	178	9
50	52	1
82	83	1
155	155	8
129	129	13
161	161	4
145	146	2
43	44	4
53	146	1
173	173	6
74	74	4
170	174	1
147	150	1
11	33	1
23	27	1
162	167	1
85	85	4
102	104	2
27	27	9
157	164	2
110	111	5
33	34	1
142	142	3
29	30	3
2	5	1
15	26	1
160	160	8
108	108	5
39	40	9
26	29	1
119	120	1
5	9	3
58	60	8
17	25	5
127	130	2
31	32	3
173	174	4
85	100	4
97	98	2
147	147	4
88	105	1
16	16	4
6	36	1
136	169	1
28	28	6
150	150	4
151	151	3
26	31	2
13	13	6
95	96	1
102	105	3
151	153	2
60	125	4
180	180	6
27	32	2
102	103	2
77	126	4
166	166	3
28	39	3
161	165	1
43	135	2
52	139	1
67	106	3
35	46	5
126	128	2
115	118	2
9	10	1
10	11	1
15	45	1
122	124	1
148	149	4
88	88	9
83	101	2
83	87	2
57	57	4
42	46	1
100	144	3
31	31	3
83	103	2
18	41	3
87	92	1
99	101	5
100	139	4
80	99	1
57	59	3
2	4	7
11	13	1
0	2	1
108	125	6
32	34	1
11	28	1
68	149	1
157	161	3
41	45	3
21	26	1
172	175	2
53	54	7
160	171	2
157	172	2
142	143	2
160	161	4
84	85	2
79	125	2
28	29	2
134	134	5
14	24	1
17	22	2
137	168	2
115	129	2
4	7	2
65	67	1
106	106	1
164	164	4
125	151	2
149	150	2
45	46	2
30	121	1
4	5	2
76	76	3
9	18	1
114	115	3
74	78	1
158	159	1
172	172	1
45	119	1
49	49	2
57	58	3
157	159	3
116	129	1
66	115	1
81	81	4
34	35	1
20	23	1
156	158	5
77	108	1
4	52	1
159	170	1
131	131	3
33	37	2
11	34	2
114	117	1
31	33	2
21	22	2
55	56	5
124	126	1
118	125	1
18	39	3
9	31	2
134	135	1
2	12	4
163	163	5
51	170	3
23	28	5
65	66	4
64	132	1
95	164	1
143	144	3
55	57	1
115	135	1
73	74	3
71	150	2
100	117	3
104	106	3
34	37	1
162	169	2
58	59	1
133	138	1
128	130	1
131	132	1
5	19	1
37	38	1
157	162	1
11	15	1
72	81	1
12	33	4
109	144	1
10	10	3
35	37	2
11	40	1
102	106	2
162	163	2
147	151	1
168	169	2
122	136	2
157	158	1
20	20	2
115	119	2
52	147	1
107	112	2
80	98	2
150	173	1
91	93	1
82	84	2
65	150	1
137	169	2
31	60	1
169	174	1
100	100	2
70	70	3
144	162	1
8	10	1
138	168	1
159	162	1
50	139	1
2	13	1
144	148	1
82	87	1
24	122	1
100	145	1
132	132	1
87	89	1
8	44	2
15	16	2
67	152	1
109	130	1
9	28	1
83	85	1
5	33	1
115	116	1
97	104	1
84	151	1
75	93	1
117	117	2
21	24	1
153	155	2
62	154	1
2	6	2
108	124	1
37	56	1
83	86	1
175	177	1
95	106	1
77	79	2
140	154	1
12	32	1
62	114	1
116	117	1
105	107	1
18	22	1
20	21	1
99	99	1
86	103	1
105	106	2
78	79	1
150	153	1
116	120	1
23	46	1
82	85	1
74	75	2
112	112	1
4	6	2
167	177	1
101	149	2
13	117	1
175	175	2
88	107	2
6	37	1
50	50	1
157	166	1
18	25	1
5	30	1
82	127	1
104	105	1
111	155	1
129	130	1
7	13	1
79	80	1
87	97	1
83	130	1
111	149	1
36	44	1
36	57	1
16	33	1
116	118	1
127	128	1
28	30	1
42	43	1
83	151	1
73	109	1
83	144	1
99	118	1
94	96	1
78	90	1
