146	146	14
68	68	26
45	48	2
8	8	8
121	121	10
82	88	1
57	57	17
37	37	24
18	23	9
49	52	1
11	11	25
102	105	6
151	151	12
84	84	22
108	109	5
33	34	4
56	56	14
146	148	1
31	31	23
63	63	21
28	28	25
75	127	3
132	132	26
144	144	13
13	13	27
8	9	9
6	6	14
14	14	12
49	50	7
21	21	15
127	128	6
77	88	2
85	85	29
117	131	1
18	18	16
126	126	3
24	24	41
111	111	22
126	152	3
107	107	13
33	33	14
75	75	11
26	67	4
137	138	5
10	10	21
98	98	27
8	149	1
30	138	6
64	79	1
36	36	19
9	9	18
54	54	10
22	34	2
86	86	13
74	74	10
79	79	22
15	15	25
100	100	11
145	145	12
136	136	12
95	95	24
17	18	5
28	29	8
12	12	18
83	83	16
81	81	11
20	25	6
123	124	8
129	129	9
107	108	6
38	38	9
128	128	7
49	54	4
53	53	27
7	7	10
19	19	13
51	51	14
74	75	11
97	97	26
63	64	4
34	34	16
87	87	19
69	69	13
49	49	14
108	111	1
139	139	18
7	23	2
106	106	16
53	143	5
16	16	33
41	47	1
138	138	5
135	135	15
104	107	19
32	33	10
16	23	2
77	77	12
70	96	3
130	134	1
80	81	21
125	128	2
150	150	6
86	93	3
70	70	19
69	70	5
47	48	3
45	45	17
19	20	5
118	118	16
76	76	21
44	45	10
25	25	27
86	87	1
39	39	15
50	55	5
7	14	6
123	127	2
107	116	3
102	102	5
42	43	9
70	130	2
150	151	3
99	99	15
11	12	8
94	97	4
117	117	16
13	19	8
30	30	19
66	86	1
93	95	2
41	41	28
55	56	9
112	112	4
81	82	7
84	87	11
40	40	4
50	147	2
46	47	2
121	122	5
3	3	7
120	120	10
118	122	2
62	62	8
120	124	2
4	5	11
117	118	8
113	113	12
42	42	20
65	65	14
18	19	4
84	92	1
57	136	5
48	48	11
94	94	13
141	141	16
5	5	26
149	149	6
96	96	14
10	20	8
30	32	2
82	82	6
77	82	7
55	55	29
130	130	16
17	17	32
87	93	4
13	76	1
93	128	3
9	20	2
97	120	5
6	7	8
26	26	13
47	47	24
39	40	7
88	90	3
38	49	4
127	127	11
37	77	3
30	31	11
109	109	8
104	117	1
23	63	5
112	114	2
154	154	10
122	123	1
5	25	2
109	110	9
44	44	14
5	28	2
147	147	7
128	137	7
97	98	3
29	31	4
114	114	10
32	32	13
50	148	4
115	115	5
122	122	10
110	110	9
97	99	3
54	55	11
19	148	3
26	28	7
22	50	1
36	39	7
54	145	2
12	13	6
3	30	6
148	148	13
46	46	10
81	104	6
28	37	2
41	132	2
126	151	2
38	39	5
104	105	7
73	75	2
9	147	1
9	149	1
49	53	5
143	151	1
10	11	10
75	93	2
75	78	5
68	75	3
80	80	11
3	32	2
131	131	10
37	38	1
104	104	12
17	24	2
124	125	1
71	76	6
103	103	12
29	29	8
27	27	12
120	121	7
19	23	4
72	73	5
4	4	5
84	86	6
144	145	3
17	19	8
50	50	12
14	15	7
153	154	4
7	12	4
11	15	2
80	94	2
23	57	2
20	23	4
137	137	3
17	20	5
117	133	1
137	146	2
39	52	3
31	109	1
27	37	4
70	71	2
24	45	4
33	74	1
62	145	6
26	27	7
77	90	6
5	6	7
87	123	1
85	87	2
17	22	3
125	135	1
111	140	2
95	99	1
57	66	4
9	150	3
147	148	7
135	136	4
71	117	1
35	37	1
98	120	3
88	88	6
71	84	2
62	63	6
125	125	13
40	43	4
96	99	3
66	67	5
96	97	11
119	119	5
52	56	1
79	100	3
22	23	9
78	78	8
142	142	2
44	47	4
116	116	5
75	83	3
64	64	5
115	132	2
87	111	1
101	101	15
34	35	7
125	126	3
40	41	2
71	85	2
91	92	1
23	52	1
11	83	2
22	22	8
130	131	7
118	119	1
71	73	2
45	133	1
26	37	1
4	6	3
67	67	9
152	153	1
11	14	1
110	114	2
25	135	3
57	67	2
97	116	2
7	16	1
143	143	12
7	11	4
3	33	4
140	141	2
56	57	5
53	71	3
23	23	13
123	123	7
22	63	2
61	62	1
124	124	7
104	121	2
152	152	7
72	83	3
5	147	1
88	89	1
44	46	3
67	70	4
69	95	4
94	126	4
48	53	1
9	13	2
71	71	6
9	10	3
31	34	6
5	26	4
35	36	7
104	120	2
24	36	3
126	134	3
42	46	1
43	44	1
144	146	3
43	43	8
73	73	11
25	27	5
75	77	4
78	79	9
15	83	2
80	82	6
39	143	3
16	132	1
100	120	2
17	65	3
144	149	3
29	34	1
100	144	2
116	134	4
53	56	2
72	72	9
40	54	3
134	149	1
110	111	5
15	18	2
140	140	3
49	56	3
25	26	4
95	97	2
24	35	2
95	98	3
115	116	4
138	153	1
20	37	3
141	143	1
6	20	2
57	58	4
76	80	6
105	118	3
87	120	2
40	47	2
22	66	1
16	83	3
85	119	1
16	20	4
62	74	5
65	66	1
80	93	1
141	142	5
31	37	1
14	17	2
94	137	4
3	6	4
77	93	2
64	65	9
52	54	1
32	110	3
76	94	2
91	125	2
52	57	3
100	101	5
67	69	3
68	69	4
78	128	2
3	20	1
26	33	3
73	82	3
27	31	2
108	108	1
137	145	3
138	139	3
18	132	2
7	15	2
97	127	1
19	22	3
31	137	1
37	48	3
85	86	4
93	93	4
102	103	1
103	104	3
16	17	5
52	52	3
79	138	2
84	85	6
143	144	2
98	117	3
94	96	2
133	133	3
73	114	1
15	113	1
90	93	1
53	54	5
18	63	1
67	135	1
126	139	2
4	25	3
20	132	1
100	134	1
17	132	2
17	67	5
26	32	1
39	54	6
63	72	1
35	35	8
4	19	7
66	74	2
26	136	5
78	82	3
36	48	1
51	86	3
8	24	1
54	57	1
4	36	1
34	36	2
84	109	2
69	132	3
106	107	1
63	84	1
6	26	2
66	66	7
72	78	2
77	78	1
86	92	1
92	96	1
146	147	2
97	126	1
65	68	3
61	63	1
30	109	3
72	95	2
38	65	1
110	112	1
133	134	5
81	83	2
95	100	3
146	149	2
24	46	2
36	54	2
45	46	3
57	142	2
24	109	1
136	138	3
78	80	2
66	69	2
111	112	6
37	143	2
126	128	1
116	117	4
120	122	2
144	151	2
48	152	2
51	80	1
80	104	1
27	50	2
82	90	2
62	64	1
18	38	2
140	142	3
129	131	2
63	74	2
6	25	2
55	57	4
24	38	1
20	20	5
93	125	1
136	137	3
78	90	2
66	145	1
27	139	2
79	94	2
11	16	2
82	83	4
72	99	1
3	21	2
58	58	6
4	31	2
24	37	1
25	37	3
99	100	2
39	51	1
125	127	1
74	78	4
24	25	1
87	125	1
134	134	4
7	26	1
76	81	1
78	83	2
76	78	1
18	145	1
13	15	2
73	83	1
27	34	3
97	103	1
93	94	1
102	130	2
24	84	1
153	153	2
13	23	2
127	153	1
119	122	2
88	91	3
139	148	1
65	76	2
76	77	4
4	15	1
73	77	1
51	52	4
41	42	2
58	66	1
75	82	1
68	78	2
62	66	3
79	135	2
50	51	1
2	34	2
5	8	3
102	107	2
92	123	2
38	42	1
29	36	2
78	148	2
51	57	2
5	27	3
27	28	2
124	136	1
15	16	1
53	142	1
127	137	1
36	45	1
122	124	1
70	73	4
71	72	1
5	20	1
19	54	3
91	108	1
105	140	2
62	83	2
101	137	2
92	124	3
127	146	1
25	136	1
13	14	1
87	121	1
22	135	1
8	10	1
145	146	1
40	153	1
74	83	1
66	85	1
62	73	1
151	152	1
3	4	1
18	69	1
105	105	1
8	15	1
27	136	2
131	132	2
105	116	1
115	117	3
88	93	2
139	146	3
6	12	1
12	15	1
77	79	1
47	152	1
2	2	1
55	144	1
35	38	1
15	23	1
68	77	1
4	26	2
62	80	1
11	19	1
42	154	1
64	66	1
3	10	1
76	82	1
74	77	2
25	40	2
144	150	1
18	25	1
127	152	1
94	98	2
3	8	1
112	113	1
25	29	1
86	110	1
62	146	1
124	135	1
87	88	1
105	131	1
6	27	1
10	73	1
90	90	1
72	96	1
