28	28	22
34	35	4
7	94	6
48	49	5
70	70	17
74	82	2
12	13	7
26	26	35
61	61	24
11	11	32
120	120	2
106	106	9
43	45	1
126	126	21
119	119	13
76	76	19
20	20	24
124	124	7
34	34	41
83	83	30
74	74	7
3	94	1
14	14	12
58	59	9
87	87	4
30	32	4
0	0	17
63	63	15
86	86	13
80	80	18
47	47	29
16	16	13
71	112	2
56	56	18
20	85	3
69	69	13
29	29	25
100	100	18
25	26	7
25	47	1
28	29	8
132	132	4
72	72	29
69	96	2
31	34	2
108	109	1
46	46	17
79	79	15
16	17	10
113	113	8
93	94	12
28	34	1
62	66	5
62	63	6
97	97	14
82	82	23
126	130	4
67	67	14
19	19	25
101	101	13
134	134	4
13	14	10
3	3	13
48	48	30
12	12	16
33	33	21
21	36	3
41	42	2
29	30	7
49	50	2
94	94	16
110	112	1
93	93	18
112	113	10
78	78	28
45	45	40
85	85	7
24	25	2
118	118	8
112	112	16
121	122	1
6	7	2
94	96	3
96	97	8
11	92	2
12	24	3
65	65	28
30	63	4
99	99	3
66	66	25
116	116	3
22	30	3
60	60	20
99	100	6
29	47	2
71	72	2
123	124	6
95	95	19
8	8	17
6	6	8
8	9	4
120	122	4
5	6	5
92	92	7
23	33	2
102	102	16
90	92	5
101	102	4
10	10	17
24	24	2
78	79	10
0	1	3
131	131	5
73	74	8
59	59	5
25	25	14
68	68	25
72	73	5
98	99	1
7	7	14
36	37	6
62	62	16
17	17	15
5	5	12
12	47	2
111	111	2
35	74	1
9	9	16
44	44	11
47	48	9
77	123	3
20	21	15
64	64	20
30	83	4
79	96	2
35	35	9
12	93	5
29	49	7
73	73	16
10	77	4
65	66	5
99	111	3
60	86	2
31	31	16
22	22	4
82	87	1
96	96	11
40	40	9
23	23	15
110	110	16
43	43	7
77	77	17
84	85	1
14	23	1
14	15	4
123	123	6
133	133	8
70	71	8
127	127	8
0	70	1
28	60	2
119	120	2
20	24	1
84	84	5
28	77	3
98	98	9
114	115	3
27	80	1
122	123	2
18	18	19
81	82	4
31	32	12
105	105	4
81	83	3
128	128	5
21	21	20
74	75	4
59	85	2
51	55	3
125	125	8
104	104	7
105	110	1
5	18	3
24	80	2
36	36	13
33	76	3
15	15	11
30	30	7
56	86	2
66	67	3
18	19	5
13	13	19
113	123	1
108	110	1
109	110	3
89	89	1
55	55	6
11	93	5
114	114	3
30	61	2
35	36	8
45	70	2
113	117	2
129	129	2
33	34	6
4	4	12
8	27	5
25	48	1
111	112	2
81	93	3
57	84	1
71	74	1
9	33	4
94	95	9
82	83	3
9	10	10
67	68	4
87	88	3
107	108	1
4	116	2
29	87	1
95	96	4
47	49	2
18	61	1
7	58	2
74	113	1
49	49	2
11	12	6
41	43	2
2	2	2
63	64	10
108	108	4
23	74	3
8	36	2
35	73	1
90	91	4
100	101	3
27	28	5
19	20	4
48	96	1
71	71	3
3	6	2
76	78	8
124	125	2
130	130	3
35	70	1
75	75	6
45	46	1
10	17	3
7	8	5
121	121	3
48	123	2
46	47	6
117	117	1
3	75	1
57	58	2
24	96	1
54	55	3
77	80	3
27	27	15
37	41	3
50	50	2
104	105	9
81	81	7
7	20	1
15	16	1
30	31	4
69	71	2
72	77	3
32	33	2
80	81	1
28	91	4
90	90	5
10	14	3
68	69	2
117	118	1
26	27	1
34	64	2
5	11	1
126	127	3
6	19	1
14	116	1
23	24	4
45	62	2
32	32	13
11	27	3
93	131	2
85	86	6
23	43	1
28	45	4
120	121	3
28	98	3
5	8	3
62	69	3
106	107	2
29	60	3
58	58	7
61	63	1
39	40	4
58	100	3
27	92	2
107	107	4
119	122	2
45	120	1
111	123	2
113	114	3
122	122	5
116	117	5
75	76	4
11	48	3
44	119	1
46	61	4
76	77	1
9	117	4
73	75	2
43	44	3
112	114	2
45	48	1
35	57	3
34	67	2
35	80	4
79	82	1
45	71	3
92	93	3
70	120	1
61	76	1
41	41	2
91	91	8
21	50	1
10	11	7
2	3	1
57	57	7
46	62	1
40	41	2
89	108	2
4	25	4
83	85	3
125	127	1
115	115	2
88	88	8
61	75	3
75	95	1
93	125	1
16	21	1
22	36	3
83	101	1
19	43	1
6	8	3
37	37	9
103	103	1
103	106	1
81	98	2
44	122	1
10	117	2
65	70	3
15	17	2
111	119	2
131	133	2
4	13	3
21	84	2
24	26	1
109	109	6
44	45	2
78	80	1
42	48	3
25	75	2
118	119	4
38	39	2
94	105	3
105	106	4
20	22	2
15	129	1
91	92	4
72	74	1
38	42	1
46	71	1
27	87	1
45	119	1
116	126	1
77	78	2
98	103	4
45	64	2
96	106	1
125	128	4
114	116	1
40	42	2
103	104	1
4	7	1
7	102	1
16	18	1
8	116	2
28	80	1
21	49	1
17	47	1
104	124	1
90	93	2
75	77	1
69	70	2
86	87	1
92	94	1
4	22	2
77	83	5
29	48	2
2	10	1
56	57	1
89	91	1
36	70	1
78	81	2
6	91	1
88	93	1
131	132	1
6	14	3
130	131	1
3	4	2
74	77	2
62	73	2
74	79	2
32	37	1
21	22	1
62	64	1
39	81	1
39	39	1
19	33	1
97	98	2
86	88	1
114	117	1
21	101	1
64	67	1
101	107	1
65	100	1
