71	75	2
70	70	12
81	81	10
189	190	5
117	148	3
112	118	1
108	108	10
14	14	19
103	103	3
7	7	14
6	6	9
134	134	7
182	187	2
162	162	8
83	83	7
180	190	3
142	142	16
38	38	16
92	105	3
110	110	8
111	113	6
31	31	16
80	113	8
148	148	10
172	185	2
168	168	7
33	33	5
19	19	18
137	137	10
87	119	9
188	188	9
89	90	5
61	62	3
149	149	6
75	107	3
55	56	2
122	129	2
82	93	4
0	0	15
64	76	2
28	28	16
142	143	6
170	184	5
59	59	7
154	154	17
185	185	17
60	63	1
182	183	8
25	31	4
117	188	6
148	150	12
8	11	3
96	96	10
104	106	2
95	104	1
106	107	5
144	155	2
39	39	5
106	106	14
32	32	20
88	89	6
36	36	13
115	118	3
123	137	8
152	152	23
165	166	5
57	57	9
171	171	6
148	149	6
46	46	7
126	161	3
14	185	3
25	25	7
124	124	17
97	97	10
30	30	13
181	181	8
72	72	15
70	122	2
11	11	10
23	23	6
79	81	4
139	140	2
176	177	7
157	176	2
183	186	3
114	152	3
153	153	7
30	33	2
59	63	4
74	74	7
115	115	22
177	177	15
116	120	6
82	82	6
71	73	3
77	77	16
13	25	2
155	155	21
44	44	17
181	187	12
125	125	14
145	145	3
2	3	1
134	135	8
86	86	16
115	116	2
77	79	2
2	2	4
100	100	11
123	123	13
144	144	3
175	175	7
53	54	4
184	184	7
121	122	6
106	115	5
26	26	10
145	169	2
66	70	3
40	40	21
146	146	20
8	8	6
43	58	1
120	122	3
1	1	5
93	95	1
147	148	2
125	170	2
141	154	2
91	92	3
166	169	3
135	136	6
143	143	9
150	151	2
144	164	1
160	160	6
176	176	15
53	55	1
128	129	7
122	136	4
43	43	9
89	89	7
187	188	6
167	168	5
93	93	9
157	173	2
37	38	1
73	112	3
65	95	1
78	78	15
177	178	7
144	154	5
47	47	9
98	98	5
68	68	11
151	153	4
116	122	7
101	101	14
186	186	14
123	174	4
21	21	5
1	7	2
128	161	5
144	162	1
62	66	1
146	156	3
39	40	5
10	11	10
60	60	13
157	157	11
132	176	3
146	149	3
94	94	5
184	185	7
185	186	4
171	180	8
5	5	7
75	80	7
13	43	4
17	17	10
31	33	1
15	179	2
85	85	13
3	3	8
26	27	2
92	92	6
90	90	3
65	65	7
30	31	5
135	135	9
187	187	6
73	73	9
179	180	7
116	116	5
108	116	3
170	170	11
15	44	1
120	120	17
107	108	4
52	59	5
91	138	6
172	172	15
190	190	11
98	104	4
119	119	8
165	165	9
129	129	9
56	56	6
13	14	15
65	68	3
38	45	2
161	161	5
138	140	1
36	37	9
119	189	2
16	37	2
161	163	10
44	57	3
26	28	2
109	109	10
85	97	4
84	85	6
117	118	2
87	87	19
27	37	1
174	174	7
184	186	1
162	176	3
141	141	12
116	121	2
139	139	13
58	59	1
73	81	1
136	136	11
114	133	3
163	163	7
95	98	1
13	13	2
79	80	3
141	142	5
93	171	1
136	137	13
114	115	3
40	41	7
41	41	8
129	159	1
130	130	7
163	166	2
80	81	4
55	64	2
178	178	4
159	175	1
45	45	7
122	138	2
105	105	10
167	190	3
147	149	8
124	127	2
100	102	8
58	58	5
169	169	9
62	69	2
71	71	6
145	155	1
182	182	7
13	42	2
59	60	4
32	41	2
104	105	10
115	151	1
25	26	4
162	163	1
140	140	7
136	157	2
167	167	15
84	98	2
166	168	10
86	131	2
41	123	1
143	144	3
164	164	8
124	137	3
10	10	7
20	20	6
91	93	3
152	153	8
109	110	3
35	36	2
131	133	1
112	112	10
99	100	4
2	29	6
61	67	3
3	6	2
93	94	2
130	132	2
128	137	1
12	12	5
13	187	3
66	66	10
138	138	8
165	182	3
63	63	5
93	121	3
166	167	14
86	87	3
92	93	6
16	16	11
23	52	3
161	170	2
92	135	1
171	172	5
37	37	6
97	102	7
173	174	6
86	119	1
129	134	1
9	25	1
131	131	4
179	189	2
80	80	2
181	182	6
149	150	6
118	119	3
169	170	6
159	160	2
115	139	8
8	22	4
15	15	7
186	188	2
29	31	1
62	62	2
102	102	12
180	187	3
133	133	3
125	126	2
21	22	3
87	93	3
102	103	7
138	139	8
63	64	5
24	24	4
77	129	2
27	44	2
42	42	8
23	46	3
42	63	3
147	147	16
125	127	6
77	101	4
27	36	3
120	132	1
18	19	4
3	4	2
75	75	5
140	141	2
174	177	3
144	163	4
18	18	8
147	156	2
87	123	1
11	12	1
62	68	3
21	25	1
34	35	3
144	156	6
57	59	3
131	132	3
109	115	4
96	99	1
75	90	5
28	29	1
96	98	4
69	70	2
127	127	4
121	121	11
41	62	1
121	161	4
150	150	1
111	111	7
90	130	5
165	168	1
150	154	1
10	12	4
27	27	4
41	66	2
113	113	9
169	181	1
6	7	4
175	176	7
71	151	4
126	128	3
91	91	10
86	108	3
61	61	2
36	124	6
92	126	5
120	189	2
156	177	3
76	76	1
74	108	3
54	54	4
165	190	4
86	93	1
132	132	5
30	36	1
44	45	3
179	179	6
137	159	1
128	160	4
34	34	5
28	48	2
189	189	3
2	7	1
151	152	1
115	153	3
180	180	3
88	123	3
17	24	3
146	165	4
70	75	2
77	90	1
91	105	1
57	60	3
4	4	3
48	48	6
52	53	3
87	94	2
79	79	5
168	171	5
24	36	5
55	55	13
129	160	1
62	65	2
35	35	11
140	176	1
56	64	2
111	112	6
4	26	4
118	118	3
126	126	7
104	104	2
167	169	1
28	32	2
74	75	1
146	154	1
117	117	6
92	187	1
138	158	1
166	166	6
170	186	2
91	130	2
107	111	1
64	65	4
24	171	1
101	102	3
12	43	2
88	130	4
117	189	2
82	83	1
83	97	1
67	67	2
126	170	2
155	179	3
69	69	2
73	151	2
178	179	3
166	190	1
83	100	5
99	99	10
88	88	9
148	157	1
116	117	1
93	106	4
21	23	3
78	89	2
142	162	1
69	90	1
18	178	4
55	60	3
7	171	1
123	188	1
88	128	1
128	128	2
37	43	2
20	21	3
45	46	2
82	100	2
95	96	3
76	87	1
64	75	1
135	170	2
31	32	1
138	176	1
177	179	6
88	102	2
72	73	4
17	18	2
121	127	2
131	175	4
105	112	2
123	124	2
74	76	2
170	172	1
46	53	2
179	187	2
57	58	2
157	158	5
76	77	1
77	83	1
29	29	8
173	173	5
146	155	2
88	93	2
33	40	1
183	183	1
142	158	6
124	125	1
56	101	4
65	67	4
178	190	5
143	166	3
72	133	1
90	91	6
18	177	3
90	133	1
60	61	4
19	20	3
96	97	3
42	62	2
122	173	2
118	150	1
64	64	4
166	170	1
95	95	3
0	5	1
188	189	1
119	120	4
42	43	6
167	182	5
73	74	2
76	79	1
53	53	5
115	120	1
157	161	2
170	176	2
28	41	2
18	21	2
13	178	1
123	125	3
80	108	1
113	118	2
178	180	2
156	156	8
125	139	2
120	129	2
23	24	5
106	110	3
81	83	1
121	190	2
119	122	1
43	44	2
171	173	2
122	122	2
38	47	2
151	187	1
38	41	2
7	41	1
124	139	3
25	178	1
44	62	2
156	157	1
85	86	3
123	138	1
65	66	4
177	190	2
22	22	2
13	16	1
22	46	1
156	179	2
59	67	1
129	130	2
73	133	2
145	164	1
128	175	1
86	130	1
88	137	2
55	101	1
54	55	1
69	98	3
12	13	1
34	123	1
14	31	1
33	37	3
129	158	3
33	34	1
73	108	2
164	165	2
126	127	4
119	133	1
135	157	1
129	162	1
9	9	5
64	66	1
57	61	2
114	114	1
135	137	2
153	154	4
59	61	1
92	188	3
29	30	3
109	113	2
15	185	1
163	164	2
107	107	1
32	125	3
145	156	1
8	25	1
9	10	3
131	153	2
20	46	1
75	86	1
100	101	1
121	173	1
2	67	2
142	177	1
71	74	4
83	84	2
157	180	1
48	66	2
97	98	2
151	151	2
171	181	2
84	97	1
124	142	2
32	37	1
37	66	1
78	79	1
42	55	2
26	30	1
15	22	1
65	123	1
117	167	1
124	170	2
106	112	1
184	189	1
27	42	2
114	118	3
180	181	2
86	107	1
168	169	1
81	108	1
22	24	1
61	63	1
94	95	1
145	146	1
125	138	1
84	84	2
76	83	1
114	134	1
58	61	1
19	26	2
145	147	1
43	52	1
143	167	1
93	97	1
85	94	1
113	114	1
26	47	1
110	112	2
120	130	1
70	74	1
177	180	1
93	107	1
97	99	1
88	104	1
8	10	1
22	23	1
36	42	1
132	138	1
