74	75	6
39	39	4
15	16	3
39	45	3
60	63	2
108	114	4
97	97	3
49	49	7
4	4	6
42	42	3
26	26	6
7	7	1
47	47	9
21	21	3
12	12	3
107	107	9
23	25	6
20	20	4
41	43	3
68	68	2
66	67	5
124	125	3
16	17	6
55	55	10
84	84	9
42	47	2
64	80	1
109	110	4
28	91	3
81	81	4
128	128	4
115	115	5
55	95	1
92	92	3
100	127	4
11	11	8
75	97	2
77	78	4
107	108	3
39	40	2
132	132	9
85	85	2
69	69	1
104	118	3
117	130	4
24	24	3
105	105	8
74	104	3
58	59	2
99	99	1
69	70	4
39	82	2
76	76	3
72	119	1
127	130	2
41	45	5
53	53	7
80	84	3
22	23	4
105	106	2
121	121	4
31	112	2
30	53	2
103	103	8
95	96	1
76	77	1
33	33	4
40	40	5
82	84	1
30	30	11
18	22	4
95	111	2
78	79	2
5	15	1
50	63	1
74	92	3
22	22	4
125	125	2
118	118	7
126	130	3
26	27	2
119	120	2
1	1	5
111	112	1
87	87	7
122	122	4
114	114	1
77	77	5
31	32	5
41	41	2
109	109	6
67	77	8
102	103	5
117	118	2
127	127	6
61	61	1
81	114	3
63	77	1
25	25	3
45	45	9
65	65	3
9	9	3
13	13	2
98	98	5
57	57	6
116	116	2
63	63	9
72	73	1
23	23	3
83	83	5
84	96	2
78	78	6
8	45	3
18	18	6
130	132	2
56	56	3
8	8	4
103	109	2
113	113	9
34	34	2
91	92	3
116	130	1
117	117	3
5	5	5
127	128	6
117	128	6
12	23	1
108	113	1
75	76	2
62	62	2
0	0	4
48	85	3
85	93	1
72	72	9
12	22	2
100	100	1
91	91	3
74	91	1
34	39	3
59	59	1
71	71	1
14	15	2
102	102	5
45	46	1
110	110	2
1	22	1
75	77	2
6	6	4
110	132	2
56	123	1
43	43	2
79	84	1
38	39	2
48	48	3
108	108	5
116	117	4
106	106	4
46	46	7
23	84	3
52	52	3
32	32	5
20	21	2
28	101	2
17	83	4
131	131	7
2	33	2
93	97	1
15	15	4
54	54	7
111	111	2
71	116	1
50	54	3
44	44	3
2	5	1
49	64	1
14	14	3
3	4	3
79	79	1
31	31	2
89	89	2
73	73	3
126	126	2
62	81	1
42	68	2
11	12	1
124	124	1
94	95	2
83	86	1
78	84	2
129	130	3
29	29	1
41	42	1
85	87	2
81	113	1
120	121	2
1	31	2
78	81	1
58	58	3
42	53	1
50	50	2
64	64	4
47	48	1
49	123	1
67	67	3
81	129	1
80	80	2
50	51	1
73	77	3
77	91	2
130	130	1
77	86	1
79	80	2
78	83	3
64	65	1
41	90	1
17	17	2
93	133	3
39	60	1
102	104	1
67	68	1
64	89	1
73	125	2
47	80	1
51	51	1
2	2	2
120	120	1
104	107	2
81	96	1
40	47	1
112	112	1
132	133	2
74	74	1
82	82	1
