75	76	1
89	89	5
126	126	7
8	9	7
116	117	2
23	23	4
78	78	13
92	93	5
77	77	6
26	111	1
102	102	7
28	28	3
79	85	4
105	105	10
14	15	1
34	34	4
107	108	6
71	71	9
84	84	2
64	64	3
50	50	2
106	106	4
75	75	8
56	57	2
58	58	1
52	52	5
124	125	3
55	55	3
86	86	5
88	88	7
69	69	7
36	38	1
32	33	5
134	134	5
76	77	2
102	104	4
90	90	4
58	59	1
104	104	5
9	10	5
35	35	4
60	62	5
101	101	16
28	29	1
59	59	2
128	133	2
58	60	2
120	120	2
72	80	3
130	130	4
1	1	6
120	121	1
100	100	5
7	7	2
92	92	3
14	21	1
10	26	1
115	115	11
18	19	1
97	97	7
127	127	14
117	119	2
33	35	2
74	105	5
113	114	1
57	58	2
123	124	4
119	119	3
46	46	4
128	128	3
80	111	3
27	27	1
87	88	2
74	74	5
114	114	8
118	118	3
19	20	2
107	107	3
65	65	2
100	101	2
76	76	1
53	53	2
23	24	3
95	98	2
108	108	1
121	122	6
1	2	1
98	98	3
5	6	1
103	103	4
68	68	1
125	126	4
91	91	4
49	49	2
126	127	4
79	80	1
79	79	2
31	31	2
87	127	3
82	82	2
4	4	1
31	32	2
45	45	1
8	8	2
55	56	2
14	14	7
72	73	3
2	2	3
79	99	1
91	120	2
84	110	1
44	44	5
82	83	2
130	131	6
57	57	2
124	124	2
72	72	3
13	14	1
126	134	1
12	12	2
85	85	1
95	95	4
106	107	3
66	66	2
83	83	4
94	94	5
112	112	4
80	106	2
117	117	4
32	32	2
131	132	1
78	101	1
121	121	3
37	37	3
90	95	2
131	131	3
102	103	3
61	76	2
10	11	1
6	7	1
89	90	4
134	135	3
96	96	1
60	60	1
116	116	1
53	62	1
88	94	1
0	30	2
15	17	3
89	92	1
17	18	1
86	106	1
61	61	4
125	125	3
128	129	1
21	22	1
98	99	3
5	5	1
84	85	1
62	62	1
35	36	2
80	80	1
78	106	1
30	30	2
95	97	1
70	70	1
86	92	1
19	19	1
111	118	1
34	35	1
127	128	2
73	73	2
56	58	1
109	109	1
63	64	1
16	16	3
63	63	2
93	93	5
79	110	1
61	62	1
77	78	2
126	128	1
108	111	2
25	25	2
105	121	2
0	0	3
112	113	2
96	120	1
50	58	1
45	46	1
133	133	2
71	72	1
82	84	1
92	126	1
38	39	1
135	135	1
60	61	1
64	111	1
94	95	1
18	25	2
115	116	1
37	49	1
91	92	2
66	67	1
15	109	2
118	119	2
63	65	1
122	122	1
22	25	1
56	56	2
67	67	4
87	87	1
129	130	1
62	64	1
99	99	1
109	110	1
105	126	1
22	22	1
123	123	2
29	30	2
123	131	1
31	51	1
95	120	1
115	135	1
