196	197	6
34	35	13
40	40	16
119	119	31
39	75	5
232	233	8
138	138	24
56	74	3
49	49	28
14	23	1
0	0	14
45	46	12
113	113	12
70	70	34
221	221	21
217	218	22
144	144	28
12	13	3
33	33	35
186	198	4
54	54	27
66	67	9
25	25	19
202	203	11
27	28	9
58	220	1
158	158	17
57	73	1
211	213	5
139	140	9
25	26	6
122	122	16
110	110	6
39	39	30
33	34	6
7	7	42
1	2	1
233	233	9
121	121	22
178	180	7
57	57	19
82	82	26
157	167	5
220	221	15
52	52	35
179	179	27
44	44	19
242	242	36
101	119	2
154	165	3
104	105	20
169	171	7
63	63	26
209	210	12
103	103	24
8	8	41
21	21	29
191	192	5
184	199	3
53	55	5
47	47	30
57	117	8
147	148	12
209	209	9
97	102	1
234	235	7
184	186	9
25	150	2
196	196	10
195	197	2
83	84	25
83	83	29
71	71	52
115	115	18
22	22	24
27	27	23
17	19	1
155	155	26
50	51	8
180	180	27
209	211	9
197	198	12
122	136	3
89	106	2
171	174	3
166	166	18
207	209	1
178	178	14
37	37	29
133	147	3
147	147	19
79	79	29
127	127	14
123	123	15
16	32	1
111	205	5
24	39	4
81	82	3
139	148	4
19	19	18
133	133	30
174	174	32
194	194	9
38	38	32
69	86	4
186	186	19
35	35	28
210	211	9
32	34	4
124	125	2
49	135	3
148	148	19
70	71	6
96	96	17
215	216	12
105	105	27
75	216	4
20	20	32
156	158	1
208	208	31
164	164	17
65	83	8
210	210	21
0	21	4
193	196	6
197	203	3
212	212	18
19	36	4
197	217	6
59	60	8
203	206	2
170	170	12
107	108	8
98	98	21
238	238	32
7	8	12
101	102	6
74	74	37
154	158	2
120	120	32
228	228	14
2	3	10
114	139	2
202	202	28
228	230	8
72	73	5
15	15	14
100	103	1
88	88	18
42	43	9
30	37	2
31	31	28
1	33	4
205	205	25
95	95	9
15	18	2
77	78	12
103	107	1
175	175	21
52	103	1
173	173	13
2	160	3
171	173	4
224	224	29
226	227	5
130	132	6
168	169	14
146	146	15
64	64	26
24	24	19
122	210	1
73	73	33
156	157	12
226	226	25
66	122	2
39	44	3
4	4	21
50	53	3
118	137	4
106	138	2
129	133	2
49	209	4
229	229	30
13	13	16
89	89	5
119	128	3
78	199	2
12	12	20
141	142	10
236	236	24
181	181	6
45	53	2
241	241	16
207	218	5
230	230	37
163	163	27
139	211	5
5	5	25
124	124	16
73	99	4
0	1	16
59	59	19
218	218	25
203	203	19
211	211	30
156	189	1
65	65	15
234	234	10
193	193	13
64	88	1
52	66	4
44	187	3
42	42	23
62	62	21
17	23	1
120	127	1
227	227	16
171	171	17
30	30	39
101	101	31
55	55	23
56	57	6
64	65	7
29	78	5
117	118	5
78	78	22
1	1	24
138	141	6
16	34	1
189	190	6
17	33	4
163	186	3
81	81	12
118	118	14
158	164	1
207	227	4
39	46	2
182	183	3
68	68	22
36	36	39
34	34	30
34	41	1
1	23	1
193	195	5
61	68	7
42	44	7
151	152	7
133	134	3
60	116	1
82	83	14
192	192	26
192	201	3
3	3	26
128	128	25
63	75	5
25	109	14
170	173	2
26	26	49
38	46	1
32	32	11
156	173	4
213	213	15
47	182	4
116	116	29
102	104	1
32	33	8
58	58	26
109	138	1
131	133	2
126	126	10
84	84	42
56	58	5
169	169	46
16	58	3
165	165	34
141	141	29
104	106	5
207	207	16
215	215	23
33	35	7
229	230	6
26	30	2
222	223	7
44	46	5
57	219	3
12	15	10
41	41	26
237	237	25
50	50	20
116	119	5
57	58	11
69	69	28
161	169	6
35	36	6
44	45	19
180	198	9
96	99	3
51	52	16
36	108	1
121	127	3
130	130	13
2	12	7
116	167	1
214	217	6
61	64	3
192	193	6
165	171	1
35	50	1
45	45	27
54	57	1
151	151	25
158	167	4
23	52	1
54	55	7
17	220	2
79	80	9
235	236	9
18	28	1
52	53	6
96	104	1
63	68	2
144	147	3
7	9	6
107	107	13
195	195	14
75	76	5
11	11	28
48	48	23
137	138	11
25	153	1
55	139	3
111	111	18
127	133	5
201	209	1
134	134	18
9	9	24
56	56	18
160	164	1
12	35	4
213	218	1
156	156	15
71	72	8
106	106	22
216	216	14
167	167	28
218	239	1
63	146	2
184	200	1
148	188	3
97	97	12
24	57	2
176	176	9
53	53	26
101	138	1
13	14	12
46	47	17
80	81	4
51	51	23
180	199	1
189	189	19
133	138	4
204	216	3
47	125	5
188	188	14
219	234	2
46	188	4
188	189	5
18	163	8
106	117	1
127	128	1
68	70	1
62	188	1
66	126	6
29	32	6
115	116	8
182	182	20
27	53	1
78	79	10
27	63	6
17	17	19
164	189	3
162	162	12
170	171	11
166	184	5
39	42	1
36	48	4
225	225	23
200	201	3
117	147	7
198	198	19
53	109	3
43	43	37
26	27	6
210	214	4
240	240	18
76	76	17
200	200	17
104	104	26
111	240	3
2	8	12
75	75	8
0	12	2
29	31	5
198	202	4
86	86	29
99	99	33
196	214	5
70	237	2
153	153	24
113	120	7
190	209	3
159	160	13
72	218	5
39	40	9
3	8	2
199	200	15
72	72	21
33	37	6
150	150	22
10	10	25
102	102	38
169	210	2
222	222	38
108	108	15
83	175	1
218	219	6
219	219	19
69	70	9
179	192	2
214	216	17
214	221	8
148	151	3
137	137	11
214	229	4
161	161	21
10	15	5
46	136	7
217	217	24
20	164	4
149	149	19
65	70	2
85	85	16
212	213	12
179	206	3
40	45	14
165	179	5
162	166	1
71	73	3
131	131	11
76	80	5
136	136	15
103	104	7
163	166	3
25	119	2
187	193	1
202	220	1
122	175	6
192	228	2
134	146	5
102	103	3
32	61	5
24	33	5
201	227	1
36	224	4
11	47	1
67	67	25
194	196	3
184	184	14
231	232	13
112	119	4
60	130	1
65	66	4
199	199	31
17	18	11
236	237	3
231	231	19
114	120	5
3	6	4
111	131	3
66	66	16
228	229	17
160	196	2
3	12	5
167	174	2
206	206	11
18	20	7
154	155	6
67	125	3
100	100	19
164	188	1
43	47	3
145	145	27
117	117	26
23	23	33
156	171	1
20	240	1
183	211	3
85	86	22
48	50	6
64	85	1
207	208	7
80	80	18
83	120	1
152	152	13
40	41	8
185	186	6
147	152	1
25	38	4
198	199	8
65	67	13
47	200	3
186	199	4
30	31	8
122	143	5
4	6	6
149	188	5
95	102	2
69	101	2
157	157	23
177	177	11
203	204	6
169	170	9
53	56	1
88	216	3
31	113	2
235	238	2
139	139	27
103	105	6
29	30	11
115	172	1
25	64	4
84	85	10
176	177	8
66	145	3
80	84	7
32	207	3
146	147	6
103	115	3
235	235	21
5	7	3
7	17	2
163	188	3
159	159	20
120	135	3
20	38	1
22	29	4
181	182	2
125	126	9
171	172	5
114	114	7
122	142	4
77	79	9
109	118	5
194	222	8
157	158	8
0	16	3
16	16	14
16	35	1
69	71	1
169	176	5
75	87	4
151	182	2
144	145	6
187	187	11
18	18	10
140	147	1
123	156	2
214	214	21
186	187	13
37	38	12
196	221	1
135	135	19
27	85	1
46	157	3
163	165	9
154	154	14
204	205	13
41	48	4
29	29	30
185	185	12
138	150	9
1	13	1
63	64	6
3	4	7
191	191	25
76	79	3
201	206	2
26	62	2
183	200	3
146	151	3
112	164	2
50	102	2
79	84	12
7	15	3
22	34	1
33	38	2
224	232	3
19	39	3
150	151	11
211	216	1
142	142	26
59	78	3
63	67	3
41	122	1
193	228	2
138	140	2
220	220	10
203	205	1
46	48	1
201	217	3
201	216	4
150	152	3
134	142	1
40	148	2
197	239	3
190	190	22
206	207	7
201	201	18
183	183	14
66	160	3
165	233	3
36	57	2
177	181	2
76	77	11
120	123	3
223	224	6
60	60	22
145	146	11
37	39	4
17	181	2
168	186	4
139	199	2
221	226	2
14	18	6
204	204	8
141	145	2
28	28	28
64	84	4
54	102	2
40	42	2
159	191	1
148	149	5
51	108	2
0	176	3
46	179	2
226	228	3
44	65	2
45	88	4
7	21	2
161	228	2
224	226	1
64	71	3
162	165	4
62	63	8
171	188	2
183	192	3
14	15	10
55	58	3
71	189	1
81	119	3
61	61	15
61	67	4
44	54	3
167	169	3
77	77	19
134	145	1
20	36	2
50	136	5
65	84	2
232	232	12
46	46	16
3	15	3
129	129	12
52	86	3
113	128	1
160	162	4
9	48	3
146	148	1
4	7	3
5	6	16
14	14	18
28	200	3
146	152	1
4	14	1
181	238	2
5	8	6
153	154	10
37	48	7
72	207	1
149	189	3
196	202	1
185	211	1
36	38	5
125	127	3
140	140	21
6	31	2
85	173	8
81	104	3
47	209	2
219	233	4
159	198	1
68	227	1
159	189	2
80	83	2
221	224	3
99	100	5
181	193	2
31	78	2
106	107	5
79	81	2
178	199	1
64	143	2
224	225	2
206	208	1
174	198	2
199	210	2
27	46	1
15	22	6
68	223	2
204	217	1
125	133	6
134	150	1
143	143	18
2	11	2
161	166	4
2	14	6
223	230	1
37	51	2
6	52	1
186	193	1
180	185	3
23	28	2
31	39	1
116	117	7
24	38	6
74	220	5
70	236	1
148	186	5
28	235	1
173	190	2
123	124	3
127	155	3
136	137	7
41	51	4
152	188	3
98	103	1
223	223	14
223	228	2
91	92	2
160	160	16
59	166	4
68	69	7
121	122	4
140	158	5
160	161	3
51	77	5
17	34	4
26	98	2
152	153	2
100	101	3
138	142	1
54	119	2
61	107	2
158	159	6
89	105	1
16	60	2
202	211	2
8	15	2
168	212	7
71	146	2
2	2	8
4	5	2
180	184	2
105	146	2
163	164	4
141	143	3
149	150	13
32	37	8
81	83	2
19	216	1
220	222	4
57	77	5
23	176	1
156	165	2
46	208	1
194	195	6
120	136	2
183	186	3
86	103	1
140	142	3
30	47	1
190	206	3
39	51	1
151	154	3
84	219	1
116	118	2
37	49	4
24	25	3
195	196	10
125	125	19
40	75	2
148	178	1
172	173	2
63	144	1
179	180	10
151	165	2
147	187	1
122	123	9
95	101	3
113	150	1
46	50	2
41	42	2
91	91	1
81	86	2
34	57	4
45	165	2
213	216	4
127	138	3
115	129	1
58	83	2
126	127	8
3	9	4
129	130	4
30	32	5
105	138	5
214	215	9
39	80	2
134	139	2
214	231	2
144	153	1
97	99	1
2	13	7
40	226	3
1	3	6
118	138	1
108	137	1
192	217	2
143	150	2
75	80	2
202	204	5
192	203	1
24	54	4
115	119	3
65	68	1
119	136	1
110	133	1
107	134	2
154	156	2
215	223	2
112	112	6
180	196	3
40	92	1
136	138	1
15	19	1
144	146	8
60	76	5
38	74	1
65	69	1
213	215	3
53	58	2
206	217	2
37	43	2
23	144	1
20	131	4
3	7	3
155	179	2
126	130	4
135	141	1
155	162	2
62	145	1
143	145	2
171	175	2
65	236	2
43	152	4
35	80	2
187	192	2
16	226	2
24	32	6
162	163	6
67	68	12
18	34	2
185	215	2
201	208	2
135	137	2
142	188	6
77	126	5
11	174	2
122	167	1
217	219	1
9	11	2
197	197	19
25	110	2
49	210	1
168	168	17
87	87	1
167	168	13
178	179	4
95	106	4
105	107	2
180	182	1
118	119	6
84	102	2
157	168	1
36	41	1
202	206	6
48	210	2
62	79	1
143	159	1
17	222	1
48	79	4
189	212	2
36	77	2
203	225	1
170	188	2
143	154	1
61	62	11
176	200	3
202	239	2
79	222	2
57	78	1
208	232	3
173	242	1
210	213	5
18	31	1
180	183	8
161	164	2
167	194	3
137	140	2
197	214	3
20	22	2
177	178	6
48	53	1
210	239	3
183	213	2
42	50	4
23	131	1
185	194	1
164	186	2
138	139	7
29	47	3
158	213	1
10	11	5
58	105	2
62	65	1
18	178	1
186	200	6
64	67	1
88	103	2
111	119	1
204	225	2
127	129	6
172	172	14
172	242	1
143	144	9
138	151	2
190	205	1
74	108	1
42	121	2
155	156	4
75	97	2
116	129	5
135	136	3
165	166	4
17	31	3
58	166	1
34	39	2
79	221	1
9	15	6
72	149	2
180	181	3
22	28	1
36	200	2
142	143	3
62	235	2
58	60	3
164	165	8
8	9	3
5	14	1
31	37	1
103	106	3
41	123	1
145	152	2
13	36	2
216	221	3
49	79	1
167	199	4
53	86	2
0	74	1
197	207	2
45	169	1
74	87	1
114	116	3
36	60	2
59	81	3
157	171	4
219	237	1
47	201	2
190	219	1
189	209	3
75	79	1
86	102	2
107	115	2
144	186	1
58	59	8
74	75	8
22	31	4
9	10	8
25	63	2
114	119	2
68	121	3
139	154	2
66	68	2
239	239	5
12	14	5
71	149	1
187	194	2
1	6	4
52	118	1
199	209	3
66	146	3
108	123	2
196	227	3
219	232	1
6	15	3
44	171	1
14	33	1
59	123	2
54	149	4
170	208	2
161	212	1
12	183	3
129	172	1
74	121	2
222	226	2
201	203	1
104	107	5
15	16	8
103	114	1
183	185	2
28	75	1
142	187	2
62	67	3
147	188	1
19	31	1
159	168	3
109	139	2
170	211	1
38	44	1
11	19	2
19	28	2
66	108	3
52	67	1
150	173	1
208	227	2
107	137	6
106	108	1
196	207	4
75	90	1
106	115	8
6	6	16
150	226	3
176	178	2
146	185	2
169	193	2
178	183	2
195	214	4
156	167	2
184	185	9
29	45	1
182	187	1
126	185	1
2	35	1
78	103	1
17	29	3
98	101	1
32	55	1
49	50	11
64	73	2
18	19	13
209	214	2
187	200	5
68	172	1
31	79	1
41	70	1
17	221	2
157	213	3
34	51	1
106	133	3
162	189	1
25	56	1
9	75	1
57	59	4
44	69	2
19	30	2
36	49	2
20	21	1
116	123	2
107	117	2
175	178	2
37	74	1
193	222	2
114	117	1
100	119	2
113	114	4
205	209	1
183	191	2
80	160	3
49	58	2
166	198	2
19	20	4
46	165	2
233	234	2
37	225	5
41	52	5
205	206	6
24	53	2
0	43	1
59	131	3
5	21	3
50	52	4
11	12	1
191	231	1
43	44	2
37	222	1
2	16	3
173	203	1
66	115	2
128	137	1
39	79	2
112	120	2
211	230	1
221	222	5
17	223	1
101	134	1
193	194	1
22	115	3
17	22	3
70	136	2
47	122	2
8	20	1
5	15	3
43	151	1
194	214	2
22	33	2
22	133	2
80	153	2
51	80	1
11	200	3
52	54	1
24	120	4
74	154	1
80	154	1
99	138	4
31	142	1
117	148	1
22	23	4
28	29	1
163	209	1
165	183	2
77	82	2
142	144	2
159	167	2
221	225	1
161	167	2
193	200	3
105	106	4
175	200	1
208	214	3
149	227	4
221	227	2
112	113	4
86	173	3
175	176	1
162	185	1
13	19	2
140	170	1
25	147	5
5	12	1
179	185	5
126	141	1
76	78	6
43	232	1
131	136	4
197	201	2
45	85	1
50	76	1
0	27	1
2	7	4
43	157	2
127	137	2
17	35	1
51	68	2
43	98	3
115	123	2
160	168	2
33	60	1
81	84	3
28	201	4
42	48	4
71	99	3
17	20	1
218	225	2
77	80	1
190	237	3
46	51	3
16	19	3
16	21	1
197	216	4
179	189	2
32	39	2
197	215	2
178	198	1
21	22	5
44	157	1
73	120	3
200	241	1
72	116	1
48	135	1
43	54	1
10	96	6
161	189	4
235	239	2
16	196	1
0	11	2
14	35	1
13	17	2
42	46	4
184	187	2
117	119	1
48	49	2
68	101	1
198	200	1
48	58	2
49	51	1
217	224	2
165	181	3
37	42	4
41	182	1
216	220	3
124	140	1
12	17	3
150	191	2
221	230	1
0	24	3
11	53	2
61	74	2
149	194	2
161	175	1
109	109	14
216	217	3
153	171	5
207	225	3
61	128	1
64	108	1
135	140	4
224	228	2
41	200	1
31	40	1
191	197	4
120	122	2
47	48	2
222	230	1
66	72	4
0	10	1
168	193	1
21	109	3
183	188	1
173	174	9
86	219	1
171	202	5
55	102	2
156	163	2
47	136	1
22	35	2
36	39	1
53	79	1
38	225	3
1	30	1
74	136	1
55	57	4
202	210	2
38	86	1
130	156	2
46	137	2
25	103	2
166	175	1
58	167	1
3	17	2
96	139	2
28	39	1
125	158	2
21	24	3
152	173	1
197	202	2
60	123	1
51	53	5
105	118	2
107	109	1
172	202	2
216	222	1
215	228	2
9	74	2
198	209	2
147	149	2
154	157	1
36	37	2
230	231	2
234	236	2
7	37	2
32	217	1
3	13	1
122	124	3
75	84	5
120	138	4
67	72	3
106	126	2
139	141	1
134	137	7
139	170	4
158	166	2
178	208	2
191	228	1
198	221	1
156	170	1
35	41	2
95	107	2
195	215	1
185	198	1
65	85	4
20	59	1
238	239	3
140	185	1
1	16	1
70	72	1
191	220	1
127	211	1
20	61	1
10	21	1
15	35	2
197	212	3
172	190	2
42	47	1
108	117	2
96	98	2
186	188	2
125	134	3
220	230	1
15	27	1
163	187	3
188	207	1
48	188	1
98	99	2
42	53	2
17	60	1
9	18	2
153	170	1
115	124	5
13	15	3
128	129	1
128	152	1
106	109	5
216	219	2
100	231	3
85	114	1
38	152	1
23	24	1
62	160	1
88	89	1
38	87	1
72	133	2
122	144	2
163	195	1
167	178	1
194	208	1
183	201	3
185	199	1
63	122	1
24	102	1
49	52	2
201	220	2
213	214	2
105	133	4
205	207	2
215	219	1
185	197	4
34	58	3
20	30	1
61	86	1
154	197	1
61	70	1
219	225	2
48	52	1
51	117	1
34	68	1
201	211	4
68	109	1
33	76	3
31	204	1
144	185	2
186	194	1
217	240	1
131	191	1
44	97	1
190	203	1
62	78	3
9	54	1
68	72	1
211	218	1
168	171	3
220	223	7
0	15	1
10	36	1
8	21	1
152	154	2
108	109	2
10	73	1
17	32	1
10	32	1
25	39	1
51	57	4
207	239	1
75	82	1
12	184	3
225	240	1
29	33	2
116	203	2
18	176	1
48	136	3
11	28	1
41	230	1
43	68	2
14	16	1
27	100	1
161	197	1
175	180	1
11	20	1
122	139	2
6	14	2
59	90	2
39	47	1
207	220	2
46	187	2
164	179	1
63	121	1
142	180	1
108	115	3
178	184	1
63	205	1
0	242	1
196	216	2
24	37	1
95	96	1
211	212	3
176	181	3
26	28	1
74	86	1
171	201	1
111	176	1
80	115	2
190	231	2
40	51	1
135	146	2
161	202	3
44	70	3
24	136	1
160	207	1
210	212	4
21	33	2
139	209	3
73	96	1
78	82	1
187	189	2
38	42	1
16	25	2
83	101	1
58	80	1
20	145	1
198	213	1
43	69	1
80	82	4
41	45	3
110	134	1
153	157	1
195	201	4
45	211	1
20	203	1
227	228	1
136	141	1
179	183	3
11	52	2
242	243	2
121	177	1
132	147	2
237	238	1
53	83	1
167	184	2
60	223	3
35	49	3
77	211	1
109	110	4
142	147	1
18	21	2
60	74	1
62	217	1
0	19	1
49	136	4
109	117	1
162	188	2
104	109	1
150	153	4
16	200	1
190	221	1
122	134	1
125	209	2
66	69	2
217	231	1
74	78	2
187	188	6
0	23	1
200	210	2
191	194	1
201	225	1
99	150	1
106	191	1
23	75	1
151	206	1
175	203	1
115	122	1
22	48	1
232	234	1
104	137	2
124	126	2
59	61	1
1	22	1
11	23	1
55	61	1
214	228	1
208	224	1
30	112	2
159	188	1
111	239	1
45	48	3
20	152	1
169	174	2
47	208	1
149	228	1
197	220	1
62	135	1
155	184	1
162	180	1
97	100	1
49	114	1
168	189	1
82	183	2
161	237	1
11	15	1
84	89	1
63	206	1
83	85	1
42	56	1
26	120	1
23	145	1
116	124	1
20	39	3
14	17	3
21	23	1
16	20	2
168	213	1
24	27	1
225	228	3
147	150	1
194	224	1
20	172	1
6	8	1
49	59	2
64	82	1
151	191	1
96	97	2
158	212	2
148	194	2
219	236	1
30	79	1
2	10	1
33	41	1
85	113	4
16	17	2
84	104	1
140	141	2
84	198	2
80	88	1
224	230	1
106	149	1
1	18	1
172	228	1
41	74	1
132	133	2
55	56	2
4	8	1
127	132	1
64	135	1
68	75	2
105	126	2
47	75	1
78	85	1
139	197	2
26	110	1
4	16	1
78	126	2
119	120	1
46	167	1
157	166	1
27	101	1
167	187	2
68	118	1
29	34	3
45	187	1
57	167	1
116	163	1
121	138	2
10	53	1
60	129	1
205	220	1
80	102	1
149	193	1
150	197	1
5	200	1
236	238	1
47	73	1
24	61	1
29	208	2
39	88	1
29	39	1
188	200	1
151	189	1
33	36	1
74	135	1
20	27	1
205	217	2
111	225	1
170	175	1
27	30	1
43	208	2
44	67	1
151	205	1
125	132	1
1	32	2
73	150	1
43	120	1
125	138	1
62	75	1
37	134	1
138	198	1
188	197	1
21	28	1
105	127	3
178	185	2
71	242	1
26	46	1
234	237	1
62	64	1
155	165	1
89	95	1
79	126	1
181	187	1
64	68	1
153	164	1
208	233	1
175	202	1
100	142	1
122	211	1
206	209	1
220	228	1
0	9	1
132	135	1
40	227	1
143	152	1
50	54	2
56	219	1
184	212	1
161	196	1
17	183	1
139	198	1
235	241	2
44	211	1
158	188	1
123	143	1
214	220	1
45	158	1
177	201	1
62	69	1
70	73	1
163	221	1
174	177	1
51	114	1
166	167	1
23	31	1
44	120	1
139	147	1
165	191	1
152	170	1
137	139	1
21	115	1
36	85	1
46	101	1
