48	49	2
25	28	6
5	5	10
40	40	6
85	85	4
20	20	5
82	84	3
195	195	9
81	88	1
38	75	5
59	59	10
117	118	7
27	27	13
6	33	1
170	170	4
216	220	5
42	53	6
125	130	7
13	14	8
54	54	10
193	195	4
200	200	7
155	177	2
82	82	24
228	228	7
162	215	2
86	86	17
216	216	10
68	68	8
143	144	3
33	101	3
9	9	10
97	100	2
222	224	1
104	104	16
81	81	10
195	196	3
152	152	6
105	105	9
182	182	4
30	156	2
16	76	3
190	191	12
78	79	6
160	161	11
32	33	1
215	215	2
30	32	6
21	22	13
13	51	1
183	185	1
26	63	2
67	67	7
107	108	7
80	80	20
25	214	4
26	26	8
37	42	1
211	212	3
6	13	3
242	242	4
192	194	6
231	231	3
113	113	11
220	220	5
66	66	15
240	240	6
208	208	13
154	155	2
112	112	3
114	118	5
148	148	14
45	54	3
73	73	21
2	3	2
113	158	1
13	15	3
77	78	7
239	240	2
29	29	7
15	16	2
164	164	9
68	69	2
3	3	13
2	33	4
36	36	15
64	64	6
173	173	3
9	11	5
152	153	3
120	121	1
114	114	3
43	43	12
102	102	14
18	18	5
133	133	14
166	166	5
56	56	17
21	21	4
101	101	4
104	105	1
214	215	8
119	119	3
186	186	9
163	163	12
44	44	17
63	63	13
226	226	8
54	101	3
48	48	7
219	219	3
115	123	2
218	218	6
146	146	9
181	181	5
115	120	1
13	75	3
118	118	7
47	71	3
115	115	9
140	232	1
99	99	7
76	76	12
50	50	5
209	213	2
206	207	4
232	232	3
156	156	5
32	32	10
29	30	6
5	49	1
39	39	7
14	14	6
8	66	3
58	58	14
30	30	9
16	16	6
200	201	4
51	51	2
193	194	2
38	237	5
145	146	7
236	236	6
110	150	3
84	84	6
124	133	2
193	193	12
20	39	1
162	162	4
241	241	4
120	120	3
211	211	11
207	207	6
4	4	9
126	160	3
105	237	1
142	192	2
183	183	9
192	193	5
190	190	12
25	25	11
179	180	3
202	202	12
11	11	7
159	159	10
53	53	12
188	191	2
11	67	1
204	204	8
43	44	1
61	62	5
50	51	5
238	238	8
108	129	3
34	34	5
229	230	2
44	49	1
236	237	3
1	79	2
32	61	7
139	231	4
162	163	6
135	136	1
65	66	9
55	55	5
171	171	12
236	242	3
44	109	2
47	64	4
213	213	9
48	65	2
35	35	17
124	126	1
71	71	8
154	154	16
183	184	8
65	68	4
106	171	1
57	57	8
70	71	1
2	34	6
1	4	1
201	207	5
212	212	15
88	88	3
84	124	3
16	33	4
38	38	11
79	80	13
134	134	3
103	103	13
191	191	5
57	153	1
22	78	1
125	125	4
170	176	5
227	227	11
187	226	1
189	190	4
33	99	2
127	128	5
21	60	3
146	164	1
4	68	3
199	200	10
190	223	2
199	199	14
10	10	6
17	19	4
67	68	3
46	47	10
17	17	11
139	139	3
65	65	6
210	210	11
1	12	3
61	63	2
22	22	8
116	168	1
163	165	3
6	6	7
235	236	5
224	225	4
114	155	6
61	61	5
234	241	3
9	48	2
78	184	4
20	56	1
24	128	1
0	0	3
45	47	4
114	140	2
49	98	3
82	89	1
1	1	4
206	206	5
147	147	3
89	89	5
6	7	7
237	237	9
230	231	4
217	218	1
29	99	3
37	74	4
7	7	14
4	60	1
15	31	2
153	156	2
169	170	6
187	192	3
195	231	2
204	207	3
19	19	4
116	118	2
100	100	6
22	35	5
62	62	12
16	17	3
135	146	4
127	127	8
186	187	2
106	106	9
44	100	2
4	7	2
144	149	4
188	188	9
106	108	1
48	52	2
165	165	2
123	123	3
13	20	2
46	71	1
82	95	1
121	122	3
209	210	4
55	56	5
185	226	1
234	234	5
160	160	8
175	175	13
97	97	11
104	106	5
74	74	10
11	42	4
1	6	1
216	217	4
137	142	3
161	161	11
100	124	4
135	167	2
47	47	13
10	64	1
182	183	2
84	85	5
180	223	2
226	227	2
75	75	8
1	34	3
29	31	4
7	17	6
185	231	2
30	31	3
24	100	3
17	76	4
184	187	3
203	203	8
220	226	3
128	128	6
55	85	2
167	169	4
12	13	9
72	72	2
15	15	11
46	63	1
190	201	1
217	221	1
143	150	2
187	190	3
57	58	4
78	78	17
18	19	6
28	91	1
212	213	7
130	130	4
149	149	3
1	13	5
233	233	5
118	125	1
47	63	1
127	130	2
3	7	2
147	148	2
7	35	3
48	101	1
221	221	2
46	46	3
33	33	9
124	163	3
7	8	4
189	189	7
83	83	13
194	196	7
137	137	9
149	152	2
169	169	5
187	188	1
104	107	13
235	235	5
9	52	1
135	174	2
12	12	15
36	79	2
42	42	14
179	179	9
215	219	1
42	72	3
230	230	15
222	222	1
205	213	2
140	141	5
31	58	6
26	45	1
79	79	10
138	139	9
2	65	1
239	239	3
185	185	5
24	24	7
196	196	3
104	130	2
71	73	2
125	126	4
28	141	5
0	22	4
167	167	8
126	126	3
31	31	6
5	33	1
1	75	4
172	172	4
80	83	3
35	81	4
60	60	8
141	141	2
0	49	1
103	104	2
85	86	4
120	162	2
87	89	2
83	95	1
59	60	3
11	66	3
145	147	2
26	85	1
229	229	10
220	221	6
23	183	4
3	22	3
33	60	7
100	105	7
181	182	6
12	20	5
69	69	9
83	99	3
176	176	8
2	88	5
2	8	3
145	145	5
194	197	4
204	206	4
66	70	1
119	120	1
171	172	1
174	240	2
2	21	1
6	35	5
124	124	8
49	49	2
40	69	4
12	65	1
13	50	1
3	4	1
139	168	3
178	178	6
7	11	2
139	142	6
66	67	9
208	210	2
205	205	4
112	168	2
41	41	4
82	83	4
45	45	4
177	188	3
12	16	2
25	86	3
138	138	4
131	157	2
207	209	1
122	122	10
158	159	3
1	2	1
187	227	2
135	135	3
59	155	1
40	41	4
108	114	3
107	113	2
74	184	2
186	224	2
11	79	1
225	225	2
9	30	2
156	157	1
50	53	2
25	29	2
100	129	1
110	110	3
72	73	2
205	206	2
194	194	2
48	55	6
137	138	2
116	163	2
213	223	4
176	238	2
120	155	2
1	3	5
20	21	2
49	66	1
220	222	2
174	174	7
189	229	4
95	129	3
110	152	2
5	23	5
37	37	8
51	66	2
20	22	1
56	73	3
29	75	3
13	13	7
231	232	3
12	15	1
163	215	1
206	210	2
58	102	1
23	77	4
197	199	3
7	12	3
203	207	2
77	80	3
192	228	4
18	76	3
34	37	2
12	67	2
103	105	2
202	203	1
213	214	1
105	106	1
111	133	2
128	161	4
196	201	2
143	143	1
101	147	3
99	100	2
123	126	2
122	123	3
140	142	2
140	140	5
42	43	2
0	1	2
118	154	2
69	70	1
138	186	1
118	126	3
102	103	2
118	121	1
198	202	3
98	100	3
5	9	2
27	28	1
47	130	1
23	184	3
232	233	1
142	142	3
121	133	2
37	75	1
12	18	3
226	228	1
98	99	2
204	213	1
12	66	2
177	177	3
185	239	3
121	124	1
163	164	1
164	216	2
19	21	2
201	201	3
157	158	3
47	102	1
54	55	2
162	214	1
109	156	1
217	217	3
4	20	1
221	222	2
2	49	1
19	20	8
62	63	5
76	82	1
239	242	2
175	176	2
175	239	1
13	49	3
38	39	2
153	184	4
105	108	3
237	238	2
28	28	3
24	25	2
45	71	2
187	229	1
39	42	1
105	129	1
4	5	2
228	229	3
184	184	2
77	77	3
108	117	1
1	17	1
70	70	3
60	85	1
31	33	6
26	27	1
60	98	1
195	209	5
117	168	1
153	154	2
203	204	2
4	22	2
166	167	2
10	20	2
118	178	2
142	164	1
71	72	5
54	71	1
9	19	1
97	98	1
165	214	2
12	29	2
135	170	1
14	15	2
34	35	1
157	160	3
87	88	1
191	192	2
4	32	1
14	17	2
136	139	4
3	6	1
33	58	2
180	182	1
105	133	3
55	58	1
62	64	2
1	60	1
50	58	2
80	81	3
4	12	3
30	99	1
62	70	2
14	50	3
114	116	2
64	65	1
1	16	2
198	199	2
52	52	4
129	130	2
15	91	1
234	242	1
170	175	1
111	111	2
165	169	1
39	63	2
116	117	2
174	191	1
157	157	6
118	119	2
29	127	3
223	224	2
150	150	2
7	60	1
4	13	3
159	160	3
2	2	4
45	46	2
36	55	3
52	53	1
2	12	2
30	58	3
155	155	2
15	75	1
22	75	1
220	230	2
0	38	1
186	239	3
1	30	2
112	169	2
116	126	1
48	60	1
97	160	1
81	82	2
80	152	1
86	133	1
55	81	1
142	183	4
180	184	1
8	8	3
110	134	1
25	26	1
167	168	2
49	149	1
195	210	1
119	153	1
172	173	1
188	189	1
22	23	1
14	52	1
37	38	1
123	159	1
39	40	1
63	64	1
7	18	1
115	117	2
9	10	1
228	230	1
26	136	2
76	77	2
80	106	3
58	60	1
79	90	1
151	151	4
23	23	1
210	213	1
130	132	1
54	61	1
17	25	2
105	107	1
44	45	2
118	123	2
95	95	1
104	129	1
131	131	1
29	100	1
49	50	1
5	19	1
139	185	1
238	241	1
15	51	1
56	60	3
221	225	1
206	215	1
23	78	2
18	20	2
98	98	1
189	191	1
144	145	1
55	73	2
115	169	3
15	50	1
209	209	1
153	153	2
6	8	1
6	11	3
136	138	1
233	234	2
100	101	1
20	114	1
47	65	1
191	240	1
224	226	1
218	220	1
38	41	1
77	82	1
198	198	1
111	158	1
13	16	1
59	153	2
137	167	1
5	77	1
47	103	1
8	23	1
44	54	1
17	18	1
137	169	1
8	16	1
103	125	1
84	88	1
186	223	1
107	107	1
12	42	1
119	123	1
40	64	2
8	19	1
181	218	1
207	215	2
0	2	1
36	37	2
148	149	1
210	211	2
162	166	1
199	202	1
180	180	1
26	29	2
161	165	1
33	61	1
191	194	1
5	21	1
116	116	1
75	102	1
124	127	1
50	59	1
2	6	1
4	49	1
109	110	1
16	31	1
168	169	1
141	142	1
24	70	1
151	154	1
97	153	1
202	220	1
67	69	1
223	230	1
7	9	1
200	206	1
142	185	1
101	103	1
109	109	1
51	53	1
8	53	1
11	106	1
74	102	1
73	106	1
180	226	1
96	96	1
52	66	1
17	23	1
32	99	1
180	201	1
212	219	1
152	154	1
198	200	1
