79	79	5
40	40	8
69	69	4
47	47	3
94	94	12
77	77	8
96	102	2
36	36	10
68	70	3
68	68	6
32	86	3
62	81	4
41	41	13
53	95	4
44	44	8
54	94	3
88	88	7
49	49	9
37	37	9
51	51	2
72	72	8
74	74	3
48	48	19
91	91	2
84	84	9
65	65	10
52	52	7
33	33	20
98	98	3
46	46	7
81	81	2
52	56	3
73	73	2
66	67	4
76	77	10
52	101	1
70	70	18
86	86	3
77	78	1
54	55	4
78	78	4
64	64	15
20	26	2
24	25	1
42	42	6
80	80	4
81	82	3
62	62	14
43	43	5
60	60	5
72	76	1
22	22	1
97	97	7
83	97	2
66	66	5
47	48	6
32	32	5
24	24	2
85	85	5
61	62	10
95	95	8
26	26	10
46	47	6
80	81	7
76	78	2
71	71	9
52	67	3
29	29	9
84	93	3
61	91	3
56	99	4
44	50	3
21	22	2
84	94	4
55	78	1
82	82	4
35	38	2
57	90	2
59	59	6
66	69	2
34	85	1
33	69	1
57	86	3
92	92	2
20	97	2
99	99	7
40	62	3
39	39	3
56	56	3
37	81	2
54	54	5
49	67	3
92	98	2
38	55	2
31	31	11
67	68	3
101	101	5
57	58	1
45	57	1
96	97	6
51	55	1
54	96	4
48	85	5
36	81	4
27	27	1
24	51	2
88	101	3
52	81	6
56	57	2
44	73	3
57	57	6
71	72	2
39	40	3
94	95	7
87	88	5
52	62	2
52	55	1
56	66	1
90	90	2
34	34	3
100	101	1
62	88	2
73	97	1
76	76	8
53	54	7
38	38	1
87	87	1
73	77	1
96	98	3
89	89	1
69	99	3
45	76	1
31	49	3
23	53	1
94	100	2
53	53	3
56	74	2
27	28	1
75	75	4
40	99	2
74	76	1
26	27	1
74	78	1
24	29	2
74	75	1
51	84	1
63	78	4
63	77	1
83	83	2
22	90	1
95	96	7
97	98	2
101	102	1
86	87	8
45	45	3
61	61	2
34	81	1
45	99	1
79	87	3
38	81	2
25	26	2
62	78	1
57	79	2
40	59	3
50	50	3
45	59	2
64	66	1
67	67	4
58	58	1
92	95	2
99	100	1
95	98	2
52	58	1
63	63	3
45	46	1
58	101	2
52	80	1
63	64	1
80	87	2
31	32	1
93	101	1
93	93	1
52	53	1
46	59	1
55	55	2
34	56	2
79	80	1
56	67	1
65	70	1
48	101	1
49	50	2
80	98	1
44	59	1
37	96	1
93	94	1
66	70	1
52	88	1
60	61	1
74	98	1
27	98	1
33	34	1
