149	164	1
147	147	6
196	196	10
38	38	7
64	64	5
143	144	7
143	143	1
115	115	9
157	179	2
193	194	9
160	160	9
172	172	20
51	51	14
169	169	13
8	8	6
82	82	1
16	17	3
126	126	5
153	153	6
11	11	2
130	130	7
10	53	2
164	166	7
163	164	5
38	39	6
5	8	1
157	158	6
189	190	3
86	86	3
94	95	2
120	121	4
157	180	2
30	31	2
163	163	1
152	186	1
22	22	5
133	133	5
69	69	6
2	3	4
155	155	5
177	178	1
50	51	13
25	26	2
173	174	2
34	35	13
166	166	5
47	47	14
175	175	4
22	27	1
48	48	4
154	154	4
37	119	2
108	108	11
190	192	2
124	125	5
178	179	2
193	193	5
106	111	3
127	128	3
77	78	1
50	50	11
46	47	7
4	4	7
171	171	15
156	157	1
158	159	6
113	116	1
134	138	1
183	183	5
44	44	12
20	56	3
124	124	7
53	53	17
42	42	4
190	190	6
40	40	5
14	14	14
110	111	3
170	171	8
58	59	6
134	134	6
192	192	9
177	177	5
25	25	4
16	16	4
58	58	7
181	181	4
14	16	2
143	155	6
119	119	12
149	150	3
79	79	3
15	15	8
191	193	2
17	17	2
149	149	6
139	139	3
139	140	1
20	102	2
41	41	6
170	170	6
157	157	4
194	194	14
156	156	9
120	120	8
62	69	1
196	197	3
46	46	4
56	56	6
49	49	5
27	27	2
171	172	5
5	5	7
123	123	10
149	165	1
194	195	2
164	172	1
107	109	5
189	189	12
31	31	1
44	45	2
168	168	3
59	59	4
37	37	9
138	139	3
6	6	2
12	12	3
1	2	3
39	68	1
130	133	3
9	9	6
97	98	2
26	26	6
165	167	5
13	13	4
180	182	1
0	0	1
129	129	1
100	101	1
73	76	1
0	1	2
31	32	2
20	38	2
50	52	1
178	191	2
169	174	2
39	39	2
8	18	3
52	52	16
125	125	3
133	134	1
89	89	2
41	50	5
102	102	8
57	57	12
70	72	3
10	10	3
141	141	6
185	185	7
19	19	1
111	111	5
150	150	5
169	170	6
66	66	2
195	195	1
184	184	6
61	61	2
127	136	2
29	29	5
105	106	3
76	78	4
29	31	1
116	118	6
5	7	4
127	127	4
131	131	8
132	133	6
146	147	2
172	177	2
90	90	1
51	52	5
1	1	8
157	159	3
145	145	7
165	165	5
12	47	1
128	134	2
100	100	6
80	81	3
167	174	2
132	132	2
71	71	2
159	159	8
99	99	3
161	167	1
141	142	4
21	38	3
141	149	3
32	32	4
75	75	2
4	5	1
52	57	1
113	115	1
128	128	4
106	106	7
9	10	1
20	21	2
20	119	3
122	186	1
101	101	7
59	62	3
45	45	6
119	120	3
59	60	2
123	124	5
113	113	4
58	67	2
148	148	6
28	28	2
178	178	4
36	36	5
107	107	6
167	168	1
138	178	2
35	35	3
119	151	3
192	193	2
188	189	1
57	69	1
17	18	2
158	158	3
56	126	2
188	188	5
172	174	2
25	27	1
8	25	2
187	187	5
24	24	5
186	186	4
27	28	1
151	152	2
20	20	5
180	180	2
158	181	2
123	126	1
122	141	4
174	177	1
53	54	1
77	107	2
114	114	4
10	32	1
159	177	1
36	109	3
2	2	2
50	59	1
163	169	3
134	135	3
121	121	3
3	3	2
8	12	2
165	166	3
71	86	2
174	176	5
94	94	1
102	103	2
197	197	8
85	85	2
159	160	5
80	84	2
67	69	4
95	96	2
34	134	1
159	171	2
173	175	1
96	96	2
141	159	1
122	151	3
115	118	2
83	83	4
30	30	4
185	186	1
191	191	3
7	8	2
116	116	6
167	167	3
76	76	1
126	127	8
125	127	3
48	51	3
146	162	1
161	161	5
195	196	2
141	152	1
123	142	1
183	184	1
164	164	6
145	162	1
110	110	2
86	90	1
64	68	1
72	72	4
146	146	3
39	40	3
189	194	2
23	23	1
179	179	6
180	181	4
36	37	1
151	151	2
129	195	1
143	165	1
71	72	1
173	173	3
123	187	3
158	182	2
63	69	1
15	17	1
141	146	1
10	51	1
114	115	1
34	36	1
184	187	1
115	146	1
12	13	2
43	43	2
117	117	4
174	175	3
184	185	1
170	172	1
10	11	3
77	77	2
38	105	1
118	119	2
54	54	3
165	178	1
24	31	2
136	177	1
136	137	1
49	87	1
140	146	2
49	50	2
182	183	1
131	194	1
112	113	2
142	149	1
159	180	1
182	182	4
186	187	2
152	152	3
168	169	1
106	112	2
54	55	2
124	126	1
37	38	1
137	137	1
99	100	1
101	102	1
51	57	1
140	166	1
24	54	1
73	75	2
87	88	1
144	144	2
162	162	1
98	98	2
191	192	1
147	150	1
158	172	1
21	21	2
72	73	1
107	108	1
15	45	2
8	9	1
4	8	1
131	132	2
142	142	1
176	176	1
11	53	2
136	136	1
163	165	1
29	119	2
62	62	2
172	173	1
68	82	1
150	151	3
57	58	2
9	28	1
33	120	2
135	135	2
161	163	1
135	138	2
176	179	1
125	126	1
55	55	2
130	152	2
176	177	1
14	45	1
118	118	2
81	81	2
63	67	1
174	174	3
137	138	1
133	135	1
55	56	1
87	87	2
157	186	1
24	25	2
2	26	1
145	163	1
42	43	1
99	129	1
166	170	1
106	110	2
67	68	1
156	172	1
86	87	1
74	74	1
132	134	1
104	108	1
124	187	1
67	67	1
187	188	1
34	34	1
22	35	1
134	154	1
20	23	1
132	191	1
65	66	1
0	26	1
54	57	1
33	150	1
112	112	1
134	136	1
158	173	1
18	19	1
60	60	1
33	33	2
60	62	1
24	28	1
