102	124	1
122	122	10
93	94	2
138	138	6
100	100	4
83	122	3
82	82	5
80	106	3
129	129	6
93	93	10
131	131	8
130	136	1
95	96	2
105	105	3
84	115	2
17	18	2
7	7	3
134	134	16
22	22	3
38	38	4
23	23	4
29	98	2
98	98	13
74	74	8
32	32	5
115	116	1
91	91	12
14	14	3
130	130	10
106	117	1
10	14	2
77	77	6
75	80	2
119	120	4
23	24	4
18	20	4
90	130	1
27	85	5
137	137	4
119	119	3
2	2	4
93	119	6
104	106	3
31	32	1
83	83	17
112	112	9
118	119	3
106	110	3
87	102	2
124	125	10
85	85	2
139	139	8
97	133	1
120	120	3
91	92	2
135	136	5
17	19	3
125	125	7
79	79	3
5	6	3
7	9	2
34	138	1
78	78	1
24	24	3
16	16	8
25	26	1
1	1	9
96	96	2
14	71	2
0	1	5
20	74	4
19	19	1
126	134	2
0	2	1
99	100	5
28	102	2
84	84	2
126	126	7
127	127	12
36	36	4
30	100	1
72	77	1
100	101	5
19	74	4
113	113	5
23	80	1
75	83	6
134	135	8
75	75	6
86	87	7
94	94	3
140	140	5
101	101	5
95	100	1
135	139	1
97	100	4
129	130	2
117	117	7
87	87	5
90	140	3
124	124	6
71	71	4
99	99	3
98	100	2
88	90	3
88	88	4
6	6	6
94	95	2
136	136	6
109	109	2
133	133	9
132	133	3
128	136	1
15	15	5
79	80	2
92	92	5
33	33	8
28	28	2
127	128	1
34	127	1
72	72	7
104	122	1
5	5	4
10	10	2
72	73	1
11	11	2
8	8	6
115	115	2
80	109	2
37	134	6
119	121	2
19	21	2
80	80	7
18	35	4
79	128	1
31	38	2
79	116	2
25	80	2
75	76	1
132	137	1
107	107	8
76	76	3
35	35	10
93	120	1
3	3	1
20	71	1
18	19	2
128	128	5
110	111	5
123	123	8
27	27	3
96	101	3
13	13	2
33	34	1
135	135	5
137	138	2
104	104	3
115	120	1
114	118	1
114	115	2
106	106	2
34	34	2
16	20	1
15	16	2
108	123	1
21	21	2
81	81	2
108	109	2
86	86	3
114	114	3
113	129	3
33	99	1
73	73	4
81	82	1
86	122	1
90	90	4
136	137	1
26	75	3
104	105	3
24	25	1
1	2	3
123	126	2
80	81	1
7	20	1
83	84	6
13	14	3
9	9	4
90	97	3
12	30	1
102	102	5
124	136	2
96	116	1
81	83	1
103	104	1
107	108	1
24	26	1
129	133	1
12	12	1
80	111	2
73	74	1
11	19	2
3	4	2
111	128	2
97	97	1
35	36	2
28	31	1
25	84	1
8	82	1
134	136	2
117	119	3
28	29	1
111	118	1
16	17	1
30	30	1
121	121	3
81	124	1
111	111	2
26	72	1
126	129	3
103	103	2
111	112	2
88	124	2
79	110	3
114	121	1
101	102	2
30	99	2
11	30	2
29	88	1
133	138	1
8	12	1
117	118	1
116	116	1
126	135	1
89	89	1
12	20	1
17	17	1
125	126	1
29	29	1
4	4	1
12	23	1
43	43	1
84	85	1
82	119	1
95	95	1
36	75	1
87	90	1
18	18	1
25	25	1
92	93	1
77	79	1
35	133	1
36	37	1
73	122	1
118	118	1
