67	68	9
71	72	3
59	60	3
88	89	5
8	11	2
80	80	17
55	64	1
63	64	10
85	85	12
23	24	7
67	67	19
89	89	11
55	55	16
73	76	3
86	86	22
78	78	6
15	15	10
10	28	3
7	7	11
53	65	1
26	26	6
49	49	14
57	58	7
71	71	12
17	27	6
79	79	23
70	70	9
51	51	6
27	27	8
30	30	19
19	19	6
0	1	4
54	55	6
58	58	10
77	77	6
52	52	19
90	90	2
53	54	9
5	5	13
5	6	2
4	15	3
19	53	7
2	2	22
81	81	30
53	53	13
54	54	12
13	13	23
53	67	2
9	9	8
76	76	16
74	74	21
13	79	3
84	84	23
4	5	1
56	56	18
66	66	22
80	81	6
25	25	13
22	22	8
57	57	25
82	82	17
48	48	5
87	87	10
59	59	4
87	89	2
58	61	2
6	6	9
61	61	17
50	50	16
1	1	9
10	10	25
28	28	2
19	52	2
3	3	21
73	73	15
72	72	9
65	65	3
69	69	23
49	50	5
31	31	7
63	63	20
75	75	16
88	88	3
29	30	4
19	20	2
24	57	2
84	85	3
72	73	9
4	4	13
64	64	18
31	65	2
26	27	7
87	88	4
14	14	7
25	27	3
6	49	2
11	11	13
19	51	4
81	83	2
60	61	13
60	60	3
17	17	8
49	64	2
80	82	2
6	27	1
13	14	2
21	21	2
16	27	2
56	57	5
0	2	1
77	79	5
12	12	5
5	17	2
11	12	3
54	66	1
79	80	6
86	90	1
17	50	2
77	78	1
68	68	8
16	23	3
21	23	5
21	22	4
11	30	5
77	81	4
34	34	5
47	48	6
28	30	1
70	71	2
24	24	12
18	18	3
23	23	15
47	47	7
75	76	10
14	17	2
72	78	2
48	49	4
50	75	5
64	65	7
15	23	1
3	4	8
5	8	2
59	75	4
18	31	1
48	56	5
48	67	2
49	62	3
12	13	4
24	25	4
69	70	4
56	61	1
8	15	2
17	20	3
31	83	2
12	20	1
7	10	2
46	83	3
32	32	2
16	16	6
50	80	1
82	83	3
56	70	1
6	7	4
48	52	5
66	75	1
8	8	6
68	69	4
0	0	6
16	17	5
47	77	1
7	33	1
30	31	1
86	87	1
73	74	1
47	84	6
51	52	4
69	81	2
21	61	1
49	61	1
74	75	4
71	74	4
53	56	3
15	16	1
14	31	1
9	11	1
22	23	2
56	58	2
24	47	1
12	17	2
7	8	3
46	47	4
81	85	3
67	69	2
81	87	2
20	20	3
5	33	1
49	55	1
59	62	1
19	21	1
62	62	3
5	10	3
87	90	1
29	29	2
85	86	1
7	13	1
14	16	2
13	15	2
73	81	3
57	85	2
55	62	1
31	47	1
79	82	1
74	76	1
58	59	1
56	69	2
53	75	1
83	83	1
52	83	1
20	21	1
50	51	1
80	83	1
19	26	2
14	23	2
11	48	1
29	89	2
52	56	1
47	82	2
48	59	1
82	84	1
2	3	2
5	27	1
25	26	1
54	67	1
23	71	1
12	35	1
4	90	1
