76	77	16
36	36	18
74	74	18
32	32	12
65	65	29
93	93	19
82	83	8
74	75	11
71	71	23
50	50	42
69	69	17
83	84	6
58	59	4
86	102	1
71	72	10
34	34	21
64	65	7
86	87	9
54	54	15
103	103	22
72	72	15
57	57	9
84	85	4
60	60	9
74	100	3
95	97	2
76	76	26
71	89	4
33	34	2
68	68	14
89	90	3
31	31	37
93	94	3
101	102	13
61	63	5
61	62	16
25	36	5
65	67	5
101	101	18
68	69	10
102	102	12
26	28	6
66	67	20
20	22	1
46	55	3
37	37	6
22	22	21
44	44	10
50	51	4
23	23	16
46	47	9
38	39	6
36	44	3
73	73	37
88	88	11
93	95	2
33	33	9
21	21	3
99	100	2
89	89	7
47	55	5
24	24	19
86	86	15
60	62	1
51	51	22
63	63	21
24	31	3
45	49	3
25	62	6
67	82	8
39	39	13
59	60	2
40	40	14
53	53	6
95	96	1
67	67	9
55	55	17
81	81	10
56	57	4
35	35	9
91	102	5
72	73	9
97	98	7
45	45	12
62	86	4
24	29	2
51	52	9
82	86	2
30	30	8
69	71	4
49	49	12
100	100	9
61	61	17
37	50	3
97	97	8
85	93	3
90	90	5
94	94	14
85	85	10
62	63	9
98	99	6
59	99	5
70	70	10
57	87	3
56	91	2
43	44	7
75	75	11
78	78	11
88	90	8
47	47	13
101	104	2
56	56	16
32	34	4
25	25	15
55	84	2
64	64	9
34	35	2
40	60	2
105	105	13
77	77	16
88	97	5
78	79	9
98	98	11
42	46	2
23	38	3
20	20	5
61	75	3
30	33	3
73	80	3
70	92	3
79	80	6
58	93	2
76	97	1
90	93	2
88	95	1
23	24	5
84	84	8
71	74	3
52	53	7
24	40	5
74	77	2
100	104	2
39	43	1
80	81	4
45	46	2
91	91	15
48	48	5
44	45	2
82	82	6
62	62	12
29	30	6
42	43	4
102	103	5
66	66	10
59	90	3
69	77	1
37	38	6
53	54	6
95	95	10
55	56	5
75	76	3
22	23	10
25	34	4
77	100	3
62	87	3
99	99	6
93	96	1
86	93	1
28	36	2
28	29	4
45	65	1
70	77	6
54	93	4
87	87	10
68	103	2
52	54	4
64	71	2
20	21	2
81	95	3
104	105	4
96	96	7
84	86	1
26	26	3
78	94	5
25	26	2
72	75	4
48	49	3
27	28	4
52	52	7
69	70	3
67	69	1
43	43	3
83	83	5
80	80	8
52	91	1
29	29	2
78	95	5
77	78	2
58	94	4
47	49	3
104	104	9
30	31	5
70	76	1
31	33	4
47	56	4
59	98	1
29	34	2
85	86	6
41	42	2
35	36	3
57	58	2
69	91	1
50	54	4
59	59	4
72	82	2
27	27	4
92	92	16
43	45	3
31	42	6
86	98	1
53	100	2
66	101	2
24	26	2
37	44	1
21	47	2
55	65	2
54	103	1
31	65	3
68	70	1
31	32	5
101	105	2
73	74	7
24	46	2
67	68	3
34	36	5
46	46	3
20	47	2
42	42	3
29	33	3
81	85	1
32	33	1
70	71	6
50	53	4
38	38	3
31	39	1
26	27	3
26	40	2
89	94	1
24	27	2
27	48	2
43	46	1
79	79	1
72	89	2
85	99	5
72	84	3
22	46	1
90	96	1
46	49	1
33	55	1
41	41	3
57	94	2
94	95	2
97	99	1
51	53	2
24	25	1
93	98	2
50	55	2
55	91	1
36	40	4
51	55	1
38	40	3
88	96	1
89	92	1
63	64	2
82	98	1
64	66	2
54	55	2
58	58	2
35	43	1
36	41	1
77	84	1
67	100	2
27	40	1
77	99	2
40	41	2
82	87	2
40	45	3
44	49	2
71	90	2
60	93	1
65	66	2
62	85	2
91	92	1
42	44	2
71	102	3
27	49	2
97	100	1
65	68	1
56	99	1
57	99	2
23	40	1
49	50	2
66	98	1
92	93	1
22	77	1
70	84	1
24	36	2
90	92	1
56	93	1
72	83	1
90	102	1
89	95	1
26	29	1
28	31	1
65	86	2
67	90	1
75	97	1
67	105	1
76	93	1
68	102	1
91	100	1
72	74	1
31	64	1
22	49	1
25	29	1
