81	96	2
11	11	22
109	109	14
125	133	5
38	92	2
69	69	25
88	89	12
119	119	10
45	45	34
61	61	25
35	35	25
34	34	27
46	47	16
27	35	3
62	62	15
99	100	25
76	76	26
70	71	11
66	66	29
97	99	6
95	98	4
21	21	15
58	58	22
31	62	10
33	33	26
18	18	8
86	90	4
10	10	28
28	80	8
20	20	17
20	32	3
2	102	3
78	79	6
67	68	7
83	87	3
59	82	11
82	82	29
31	31	11
26	26	23
6	45	1
109	110	4
51	81	2
30	30	22
22	26	2
40	91	2
11	65	5
5	81	2
32	32	15
41	41	20
9	9	36
120	120	17
128	131	9
68	68	14
45	64	3
28	28	15
6	6	14
106	130	2
93	95	3
79	79	29
101	101	31
29	62	5
25	62	6
128	128	15
44	44	33
65	65	19
11	23	6
73	74	9
37	37	18
88	95	4
25	26	17
4	5	8
49	112	2
126	126	7
74	76	2
81	81	18
91	92	10
132	132	10
41	43	4
95	95	35
124	124	9
28	29	14
20	57	2
46	46	17
128	130	1
48	49	4
35	36	11
78	78	19
83	83	25
24	83	4
108	108	14
29	29	31
94	95	10
71	71	26
60	60	16
43	43	8
93	93	30
51	56	3
79	110	1
111	112	5
3	3	18
75	75	25
25	25	28
23	23	27
26	69	3
7	37	5
111	111	22
64	71	2
117	117	13
72	72	36
81	85	10
47	47	29
16	30	7
73	76	7
22	22	16
15	37	4
8	8	24
62	63	2
4	4	26
96	97	14
5	5	23
113	113	16
19	36	1
123	123	27
11	93	6
10	126	2
42	91	3
39	39	9
2	2	8
124	125	6
86	104	9
13	13	19
38	38	15
134	134	11
108	129	7
23	25	2
39	40	3
103	103	5
20	55	4
57	57	24
16	16	10
17	17	22
43	44	4
99	99	17
114	115	8
112	112	13
95	96	8
80	80	14
6	31	3
88	93	3
20	21	10
27	28	2
29	60	4
104	105	6
87	88	6
25	28	10
123	124	3
39	81	7
7	7	13
22	30	2
84	85	3
102	102	14
110	128	1
64	64	33
21	85	1
90	90	11
59	59	23
36	36	7
131	133	8
39	41	3
75	76	4
19	19	54
131	132	3
73	73	18
44	46	3
11	25	7
101	102	4
89	100	2
45	62	1
55	56	7
27	27	18
24	25	18
4	6	4
63	63	36
39	55	4
13	14	7
98	99	7
133	133	8
27	100	1
76	78	3
61	65	2
127	127	2
74	97	2
81	82	4
45	100	5
98	98	12
78	82	4
111	115	9
15	16	6
15	15	26
86	89	3
110	110	16
11	12	8
106	106	7
70	70	7
107	107	13
61	62	4
111	113	3
86	86	15
125	132	4
47	75	5
40	40	10
122	122	12
57	58	6
67	67	12
13	19	5
118	118	17
21	41	4
21	84	3
108	110	8
74	74	24
57	83	5
81	91	4
47	48	4
44	45	7
12	12	30
97	98	4
43	49	2
35	46	1
63	64	2
98	104	5
62	64	1
100	100	14
16	17	7
82	92	2
0	0	6
30	31	11
11	26	7
116	116	7
45	101	10
79	80	12
0	73	2
26	93	10
82	90	7
65	68	2
106	107	3
90	92	8
48	48	7
105	105	18
25	47	2
5	6	18
99	104	1
96	96	21
113	125	1
13	48	2
100	119	4
66	73	2
34	74	3
130	130	13
87	87	9
77	77	25
41	42	1
14	42	2
66	85	2
127	132	3
97	97	11
31	32	6
92	92	11
129	129	9
29	61	5
29	49	4
101	127	2
15	22	7
19	30	2
125	127	6
76	77	4
85	93	4
85	97	1
10	18	1
63	106	2
101	126	3
55	55	2
88	88	7
91	91	16
78	89	3
42	42	11
107	132	2
107	128	1
13	23	4
37	39	4
72	73	4
91	97	1
85	85	14
4	90	2
15	33	2
59	60	4
117	122	2
18	46	1
62	78	3
14	32	6
94	94	11
110	132	2
57	74	1
68	69	6
104	104	7
35	71	1
6	89	4
57	61	1
21	40	3
125	131	1
6	37	7
15	93	3
58	59	5
83	85	5
64	65	2
115	115	7
38	81	2
114	114	10
84	84	13
41	58	3
23	95	3
49	49	7
2	3	1
30	32	8
91	103	2
6	15	9
20	36	2
5	88	1
38	41	4
33	34	3
63	81	2
122	123	2
15	36	5
108	109	4
4	45	7
20	22	9
114	116	4
24	24	12
93	94	6
55	132	1
9	10	10
27	93	5
64	75	2
45	46	4
106	124	1
19	20	8
19	33	3
10	11	6
3	101	3
27	77	3
38	39	8
131	131	6
24	27	1
73	75	3
111	114	3
36	39	4
103	104	9
22	23	3
102	120	6
24	29	1
10	14	7
3	6	1
6	16	3
14	14	10
89	89	7
34	75	3
33	39	1
130	131	1
20	56	1
77	78	3
6	32	5
70	87	2
47	62	4
48	58	2
46	62	5
95	97	4
48	94	2
26	27	7
81	115	1
49	93	3
128	129	6
38	91	1
1	1	1
2	118	1
56	58	4
1	72	3
19	97	2
21	31	2
38	40	2
103	117	2
16	23	6
56	84	2
21	22	7
7	49	2
27	33	1
74	75	6
70	72	2
15	20	3
33	77	1
23	29	2
12	13	1
4	89	6
21	35	1
82	96	1
86	102	3
10	13	2
42	43	5
9	13	3
62	133	3
28	35	2
37	38	3
28	91	1
63	80	4
94	98	3
50	50	3
125	125	9
43	50	2
25	82	2
91	96	2
33	78	2
19	32	2
21	59	3
19	25	2
111	124	3
82	83	6
127	128	2
110	131	2
56	98	2
123	125	7
8	36	3
35	74	3
106	133	3
90	93	1
48	93	2
64	70	4
81	90	2
92	96	1
12	42	1
8	9	6
1	123	1
133	134	3
11	82	2
92	93	4
28	76	2
21	42	5
2	7	3
56	82	2
7	15	3
60	70	1
39	83	1
102	103	4
43	48	3
128	134	2
22	71	2
90	91	2
99	105	1
17	18	2
40	41	1
95	99	2
104	126	1
29	30	5
14	43	3
23	24	6
100	101	2
94	102	1
51	51	4
11	127	3
18	20	4
71	73	1
70	79	3
56	131	2
7	61	3
56	56	5
29	93	1
34	35	9
62	108	1
25	123	1
61	68	1
78	106	3
5	7	1
103	121	1
26	112	2
77	99	3
38	51	1
11	30	2
13	87	3
58	60	2
5	37	2
10	36	1
50	99	3
25	93	4
86	103	1
124	127	2
7	16	3
79	81	1
130	134	1
57	73	1
115	116	2
47	85	2
25	46	3
8	100	2
4	11	1
0	1	2
82	104	3
93	100	2
48	81	3
24	26	3
97	119	2
27	101	1
119	122	2
94	96	1
119	120	2
45	71	3
74	77	1
98	105	2
20	58	1
13	27	1
22	31	2
112	113	1
94	99	2
26	70	1
31	46	2
27	74	2
45	68	1
4	97	3
32	78	3
21	25	3
56	81	1
89	92	1
81	106	2
46	60	1
27	112	2
26	73	2
59	79	2
29	48	2
75	77	2
26	29	4
93	101	1
94	103	1
6	29	2
5	39	1
121	121	2
7	95	1
33	36	1
6	41	4
113	116	1
12	47	1
15	30	3
96	101	2
7	74	1
32	80	1
107	112	1
126	131	1
6	92	2
33	80	1
129	130	3
31	81	1
12	111	2
59	83	1
3	66	5
73	92	3
27	96	1
8	13	1
18	19	1
78	95	1
66	67	1
132	133	1
5	92	2
70	78	2
57	79	3
49	95	2
112	115	1
6	95	1
11	21	1
124	132	1
32	33	3
39	91	1
72	77	5
3	45	2
7	44	1
78	92	2
90	96	1
84	101	1
29	92	2
27	70	1
20	84	1
6	87	1
48	86	1
55	92	2
3	102	1
47	124	1
48	60	1
96	98	1
57	76	1
8	21	1
32	40	1
14	17	1
5	41	2
60	83	1
25	29	2
27	34	1
79	95	1
124	131	2
40	112	1
7	23	2
3	95	1
109	132	1
26	49	1
40	84	2
47	93	2
118	124	1
106	116	1
10	12	1
49	81	1
24	70	1
110	111	1
89	103	1
65	67	1
29	36	1
109	131	1
26	38	1
102	105	1
107	108	1
13	102	1
87	89	1
39	90	1
6	21	1
