53	54	6
34	35	1
74	74	10
35	59	1
12	12	15
64	64	15
22	23	19
13	13	12
62	62	10
23	24	9
43	44	8
12	71	2
73	73	17
67	67	4
19	21	2
36	36	17
59	61	3
72	72	6
52	53	6
48	48	7
76	77	5
51	55	1
0	0	6
24	24	6
62	63	1
30	31	10
65	66	3
26	26	13
69	69	12
8	8	9
43	43	22
40	40	17
22	22	13
47	47	10
41	41	3
51	51	6
59	74	1
50	50	8
5	6	5
66	66	8
6	6	17
57	58	7
29	29	4
26	27	3
9	10	7
2	2	26
49	49	21
62	77	2
35	35	3
7	8	11
38	50	3
56	56	6
1	1	2
3	3	6
56	57	8
33	33	6
64	66	5
23	23	6
63	64	3
63	63	1
20	20	4
44	44	11
36	55	2
5	5	9
13	25	2
19	19	22
60	60	11
54	54	3
3	4	4
10	11	6
59	59	9
22	24	1
44	47	2
58	58	7
45	45	2
28	29	8
41	75	2
46	46	5
70	70	9
55	55	12
34	34	10
28	28	14
9	9	9
33	34	8
32	33	3
38	54	12
20	21	2
36	39	5
2	5	3
55	70	1
19	20	4
57	59	2
75	75	9
41	42	3
42	49	5
48	49	2
37	39	1
1	2	1
25	25	11
7	9	1
24	25	3
29	50	1
22	25	1
58	59	10
21	21	8
29	30	15
68	70	1
62	70	3
43	74	2
49	76	1
4	4	10
54	55	1
75	77	2
77	77	9
27	27	3
68	68	6
35	53	1
38	38	8
10	10	12
70	73	2
2	3	5
59	60	2
18	18	10
38	51	3
47	48	1
39	56	1
0	1	5
41	49	2
52	52	5
65	65	6
39	40	8
36	38	2
30	30	11
11	11	5
34	37	3
54	56	4
11	12	4
0	9	2
42	42	6
71	71	3
14	14	1
52	55	2
44	46	3
12	19	3
48	52	4
53	53	2
41	43	1
44	77	1
12	67	1
64	68	2
57	57	11
26	29	2
54	73	1
61	61	5
61	62	3
76	76	3
21	23	2
46	47	1
13	14	1
71	74	2
35	39	1
8	9	1
69	70	5
42	43	1
13	72	1
72	73	4
32	32	5
1	4	2
63	74	2
2	4	1
69	71	2
27	30	5
60	61	1
9	12	2
41	63	1
52	54	2
29	49	1
33	53	3
34	42	1
37	51	1
0	5	1
12	74	1
18	19	1
15	31	1
39	39	3
49	50	1
25	26	1
56	58	1
47	49	2
71	75	2
51	54	2
3	6	1
37	40	1
3	5	1
7	11	1
40	51	2
61	76	1
35	75	1
9	11	1
42	45	1
55	74	1
6	66	1
31	31	1
40	41	2
7	7	1
36	37	1
36	54	1
0	63	1
27	28	2
25	27	2
30	39	1
