79	80	2
90	103	1
92	92	5
91	92	3
31	31	6
84	84	18
67	67	12
59	81	4
74	74	12
71	72	10
42	54	1
56	56	4
82	82	4
65	70	1
34	34	18
80	80	9
104	104	7
79	79	10
94	94	3
27	27	4
61	61	5
47	48	8
32	33	3
56	57	7
45	45	9
101	101	7
75	100	2
103	103	6
42	44	3
77	77	14
81	81	3
76	76	5
79	87	3
37	37	6
44	45	4
33	33	10
96	97	3
25	92	8
39	39	9
50	50	6
51	51	8
21	21	6
57	58	11
57	76	2
102	103	8
88	88	8
41	41	6
48	95	3
54	54	13
39	99	3
100	100	14
96	96	5
46	98	3
97	97	7
64	64	14
25	44	1
24	24	7
46	46	6
94	95	2
25	66	1
71	71	3
32	32	8
22	22	18
44	83	2
62	62	6
53	53	7
40	49	2
87	99	1
95	98	1
67	77	1
38	38	1
59	75	1
60	60	3
99	99	1
105	105	2
72	73	4
29	43	3
40	40	6
48	48	6
38	39	3
100	102	7
106	106	5
67	74	3
78	81	2
55	91	3
86	88	2
23	23	1
72	75	4
44	82	3
66	106	3
63	72	4
73	73	9
30	57	4
52	52	9
65	82	2
36	37	2
22	23	1
47	47	3
72	72	6
91	91	6
57	57	8
40	56	3
30	30	3
47	49	2
42	43	4
43	47	2
28	43	5
69	69	15
58	58	6
49	94	1
40	44	4
55	55	7
75	76	1
78	78	4
86	86	6
59	59	10
84	85	7
90	98	6
87	87	5
61	63	3
36	36	5
93	94	5
43	44	4
48	49	7
29	40	1
64	74	1
62	63	2
67	73	3
70	70	9
20	20	5
73	75	3
45	49	5
42	106	1
28	28	6
98	99	4
98	98	8
93	93	3
49	49	2
71	75	1
102	102	8
40	78	3
39	79	1
42	82	4
78	107	2
35	96	3
39	53	2
42	90	3
66	66	7
43	82	2
74	75	1
89	89	3
47	66	2
58	59	4
89	93	1
31	32	5
97	98	4
73	74	6
26	26	8
47	88	2
75	78	10
51	74	5
94	96	1
21	102	1
96	99	1
45	90	2
37	53	3
65	107	2
87	88	2
78	79	6
50	53	2
59	60	2
40	41	3
47	95	3
90	91	2
30	94	3
39	41	4
35	36	2
63	63	6
101	102	1
95	95	3
54	94	2
90	90	4
35	35	4
83	83	3
94	98	2
42	53	2
25	65	1
104	105	3
43	43	7
24	98	4
48	89	1
89	99	1
42	46	6
91	94	2
49	107	2
65	65	2
76	90	2
40	95	3
86	87	3
31	57	1
61	62	4
25	25	2
36	38	1
57	65	1
35	91	1
83	96	1
29	30	9
33	34	2
85	85	2
51	52	2
88	89	6
29	29	3
72	77	2
82	99	1
49	77	2
76	92	1
83	88	1
72	80	2
77	84	4
21	22	1
81	85	2
81	82	1
60	61	1
49	78	2
30	42	3
58	87	2
32	65	3
89	90	1
27	34	1
48	94	2
79	81	1
68	68	6
95	97	1
40	97	1
78	96	2
30	44	1
41	98	2
42	42	2
29	32	2
67	84	1
66	67	2
82	85	1
44	44	2
56	60	3
23	24	1
97	100	1
25	82	2
41	45	1
47	82	1
69	74	1
52	67	1
68	78	1
22	25	1
66	107	1
63	71	1
97	99	1
68	69	2
95	106	2
27	44	1
76	79	1
47	78	1
46	48	1
70	73	1
77	93	1
49	72	1
79	106	1
50	51	1
64	65	1
47	87	1
89	98	1
37	38	1
72	78	2
38	79	1
34	73	1
48	83	1
