8	9	3
39	56	4
152	152	2
20	20	9
67	68	3
49	63	2
30	31	1
95	96	7
119	119	4
21	21	4
15	15	3
3	3	6
80	81	5
106	106	6
145	146	1
135	147	1
71	73	4
10	11	8
22	22	2
38	38	6
35	65	2
91	91	3
64	68	1
96	99	5
36	36	9
114	150	3
100	100	6
5	25	1
133	134	6
112	113	2
141	145	3
14	23	3
62	62	11
116	117	2
40	40	12
118	118	3
131	132	2
16	16	3
8	8	3
105	114	2
41	43	2
11	11	3
99	99	7
22	28	2
73	73	6
109	116	3
17	64	3
83	86	3
144	144	2
39	39	2
70	70	4
134	134	10
66	69	2
28	29	2
16	20	1
34	34	6
140	142	2
78	78	5
6	6	8
115	117	5
69	99	3
5	20	2
148	148	6
77	77	2
124	128	2
28	32	5
27	28	6
120	121	1
27	27	9
116	116	7
90	96	1
10	17	4
54	67	5
94	94	7
147	148	4
53	71	5
131	131	2
108	110	4
128	128	1
52	110	1
141	142	3
56	79	1
64	64	5
74	115	1
13	16	2
66	67	4
126	126	4
109	112	1
143	143	2
103	150	4
81	81	2
12	12	4
13	25	1
18	18	7
101	114	1
86	97	6
138	139	5
85	146	1
24	24	2
50	97	1
31	65	3
95	110	2
128	130	4
6	7	6
97	97	2
20	22	3
140	140	2
9	10	3
33	35	2
75	75	3
74	110	4
120	120	7
26	26	1
4	11	3
126	147	1
63	63	4
92	92	1
150	150	2
47	73	2
121	133	2
68	68	8
57	57	4
67	67	3
44	47	2
77	105	1
153	153	2
34	36	4
32	33	3
139	139	1
142	143	2
104	104	2
21	22	2
15	133	1
41	118	1
110	110	1
9	38	1
78	80	3
147	147	2
41	41	2
106	138	2
80	88	1
71	71	3
11	25	4
34	35	3
130	130	1
133	133	6
87	87	1
29	29	3
120	132	3
32	39	1
12	18	1
16	132	2
17	17	1
27	33	1
86	86	4
124	126	1
76	96	2
122	129	3
5	5	1
113	130	2
16	21	1
14	24	1
104	149	1
84	99	2
76	76	3
41	42	2
4	4	1
125	127	2
128	139	4
122	123	1
144	145	3
149	149	1
141	144	1
47	48	1
82	120	1
34	39	1
103	103	3
9	9	1
137	137	3
118	130	1
98	99	1
141	141	2
7	10	1
88	97	2
33	34	2
14	14	4
47	65	1
12	13	2
79	110	5
42	43	2
62	68	1
119	131	2
2	5	1
96	97	3
52	52	3
129	149	1
135	135	2
48	49	1
53	53	3
82	85	1
21	23	3
5	6	1
138	138	2
16	17	2
30	32	2
82	82	1
4	10	1
54	54	1
31	98	1
43	44	3
25	26	1
144	146	2
122	122	1
13	13	1
44	44	2
43	45	2
99	124	3
131	133	5
54	62	1
24	30	1
73	101	1
71	152	1
66	66	1
118	119	1
32	38	2
11	12	2
29	32	1
3	10	1
14	17	1
105	106	2
123	123	2
140	146	1
31	31	2
74	74	3
77	124	1
51	51	1
96	143	3
53	73	3
16	23	1
84	85	2
69	69	1
56	56	1
53	54	1
47	49	1
49	54	2
32	127	1
45	45	1
11	19	1
129	129	1
32	97	2
107	107	2
32	96	1
58	77	1
88	88	1
43	43	3
136	136	1
93	93	1
23	23	3
137	138	1
86	93	1
14	63	1
4	7	1
114	114	1
5	26	1
78	96	1
4	6	1
127	127	1
80	116	1
113	113	1
19	19	1
14	15	1
141	151	1
132	133	1
