85	86	1
2	4	3
134	134	9
81	114	2
72	76	2
2	14	1
131	131	17
141	142	10
111	111	2
48	86	2
127	127	9
119	120	2
26	26	5
21	21	3
52	113	3
104	105	4
110	112	6
118	138	4
90	90	4
100	108	4
68	118	6
70	72	6
48	61	6
32	32	9
109	109	8
30	30	11
114	114	6
141	141	9
128	128	6
133	133	12
56	57	4
98	98	2
87	87	3
96	129	5
58	58	2
33	33	12
66	66	15
95	110	2
34	129	6
95	102	1
139	140	5
138	138	10
74	74	5
17	126	3
48	48	10
71	72	7
125	125	7
66	107	1
123	126	3
13	13	9
124	127	2
113	113	4
96	96	8
39	41	4
81	81	12
72	72	3
56	66	1
4	52	2
66	67	4
3	3	3
89	89	7
96	138	2
96	143	1
92	97	3
84	119	1
129	129	5
40	40	9
42	42	5
19	127	2
13	64	3
4	122	2
97	98	2
94	111	4
115	116	4
65	65	8
4	4	5
104	104	4
58	80	5
67	67	9
118	118	10
51	51	4
41	135	6
23	23	5
15	16	7
61	61	9
2	3	3
46	47	2
37	98	3
2	62	1
94	109	1
134	140	2
71	71	11
41	42	3
52	101	1
5	130	2
94	94	4
127	128	4
37	38	2
42	91	1
121	121	7
101	101	10
52	55	2
145	145	5
124	125	9
139	143	3
60	60	9
20	95	1
31	31	7
132	132	9
35	35	8
28	28	9
95	95	4
69	69	10
52	52	10
119	119	16
120	125	4
25	26	8
33	34	4
11	11	4
5	55	3
22	28	3
75	75	12
93	94	5
23	24	1
129	146	1
68	117	2
1	1	7
105	106	4
19	19	4
134	135	4
18	128	3
62	62	4
134	139	5
20	91	1
31	32	2
144	144	2
72	73	3
54	54	7
131	132	2
105	136	9
49	102	1
74	82	3
3	51	2
64	92	5
6	100	2
87	104	1
6	127	3
77	78	5
53	88	4
80	80	14
57	57	8
139	139	6
16	65	1
23	134	9
27	28	3
29	37	6
29	74	4
143	143	3
54	97	3
27	27	11
104	131	3
14	15	2
52	100	5
17	17	12
111	114	3
29	29	5
39	39	2
58	123	2
131	138	2
126	126	6
76	76	4
62	74	1
4	136	1
59	59	8
108	108	2
88	88	4
142	142	11
140	140	3
136	137	3
130	131	1
19	20	4
4	13	6
3	4	7
52	53	2
70	106	1
117	117	5
49	49	7
77	77	4
25	25	5
14	14	3
118	120	5
9	9	6
42	125	1
22	22	9
36	138	2
135	135	4
24	24	5
80	90	2
75	90	2
59	60	3
132	133	2
109	134	2
10	10	10
42	98	2
73	73	3
78	79	2
38	38	2
73	91	1
19	128	1
68	68	3
57	79	3
24	25	3
76	77	2
103	128	2
115	115	9
106	106	6
84	84	9
39	137	1
135	136	1
91	91	5
56	63	1
41	95	4
78	78	4
97	131	2
101	134	2
64	136	5
64	64	3
65	66	2
88	95	1
6	6	3
122	122	3
137	137	2
120	120	5
39	138	1
136	136	1
3	65	2
53	54	7
33	37	2
105	107	2
55	117	2
90	95	3
62	131	1
20	21	8
8	8	5
140	142	1
62	68	1
73	106	1
11	30	1
32	37	3
123	142	1
55	62	1
26	133	4
48	55	2
98	133	1
58	59	1
57	61	2
81	131	2
82	82	5
106	111	2
63	63	3
41	41	8
83	95	1
116	116	5
43	113	1
123	123	3
70	70	3
15	15	1
36	37	2
106	108	1
5	5	6
105	138	1
136	138	3
93	114	1
82	114	1
50	50	6
99	111	1
110	110	2
143	144	1
12	43	2
82	132	1
21	92	1
100	103	1
107	136	1
130	130	3
97	97	7
8	9	2
78	86	1
17	66	1
121	122	3
98	131	3
93	115	1
34	118	2
18	99	2
108	111	2
120	121	3
110	116	1
20	64	3
53	98	1
107	107	4
113	116	1
67	97	1
18	18	1
33	35	1
55	55	3
79	130	1
121	124	2
141	143	3
81	88	2
125	127	2
18	19	1
43	74	3
96	139	1
32	107	2
15	50	1
124	124	6
46	48	2
81	82	2
114	119	1
110	111	1
93	93	2
25	102	1
79	80	1
106	138	1
0	1	1
95	96	1
31	107	2
102	102	4
123	137	1
128	129	3
32	33	1
85	85	5
34	120	1
88	89	5
52	67	1
79	79	7
60	61	2
34	35	1
83	97	2
53	53	1
56	117	4
29	30	2
12	31	1
41	84	1
57	118	2
37	37	2
121	127	1
127	130	1
92	113	2
57	77	1
37	94	1
116	117	1
47	48	1
87	96	2
62	75	4
13	14	1
106	107	1
107	109	2
50	53	1
97	138	3
5	52	3
53	55	1
105	105	4
84	85	1
83	93	2
129	130	2
67	107	2
119	124	1
110	134	4
41	134	2
133	143	4
74	75	1
124	126	1
40	41	2
1	20	2
76	90	3
112	112	3
76	79	1
5	47	1
74	76	1
20	20	5
146	146	1
133	137	1
12	12	1
18	127	1
64	138	1
57	80	1
51	53	2
62	63	1
87	89	1
101	102	1
39	133	1
42	132	1
12	13	1
50	65	1
106	112	1
75	79	1
50	52	1
92	93	1
18	113	1
92	92	3
137	138	1
55	56	1
2	108	2
34	34	2
76	121	1
52	133	3
21	22	1
42	85	2
79	127	1
43	86	1
9	48	1
103	103	1
123	136	2
40	132	2
73	108	1
1	39	2
11	31	1
67	71	1
97	135	1
119	128	1
4	5	1
38	129	1
133	138	1
47	47	1
83	83	2
79	90	1
71	87	1
15	74	1
35	121	1
59	61	1
101	133	1
70	71	1
31	100	1
20	110	1
102	103	1
104	109	1
72	97	1
132	135	1
135	138	1
100	100	1
14	16	1
75	93	1
6	67	1
35	66	1
134	144	1
5	12	1
71	73	1
1	109	1
42	131	1
119	126	1
63	64	1
96	130	3
107	120	1
108	134	1
106	136	1
121	123	1
1	2	1
123	141	1
6	106	1
91	93	1
64	65	1
120	124	1
