132	133	3
87	132	1
75	113	2
39	39	1
123	123	6
10	10	12
137	138	9
108	108	16
56	58	2
87	161	5
167	179	4
107	107	6
104	157	4
58	58	10
57	57	5
47	47	10
16	18	1
124	126	4
129	129	5
35	35	7
145	151	1
135	135	8
125	125	5
161	161	11
60	61	1
23	24	4
97	97	4
18	18	13
185	185	4
136	137	3
186	186	5
135	141	2
42	42	4
103	103	9
84	84	5
173	173	9
43	43	5
76	76	5
142	143	4
55	62	1
90	90	4
131	132	2
147	147	4
110	114	1
133	133	9
182	183	5
84	110	1
134	137	2
120	120	5
20	125	4
17	17	9
156	156	3
60	60	9
135	156	2
114	123	2
69	70	2
141	141	4
81	81	3
6	6	4
88	89	3
61	62	4
95	95	2
146	146	7
65	65	3
68	68	2
94	108	2
48	48	3
111	111	4
75	109	5
11	11	2
62	62	6
85	87	5
125	126	4
54	54	6
80	105	1
102	102	5
23	23	7
112	114	6
137	164	2
11	18	1
118	118	3
117	117	5
114	115	1
96	96	8
30	30	4
61	61	4
58	97	2
168	178	3
153	173	1
53	53	4
96	97	1
178	178	3
116	117	2
153	154	3
164	184	3
188	190	4
116	118	3
63	65	2
163	163	4
98	99	3
160	160	3
172	172	6
154	155	4
103	104	1
122	122	4
20	21	2
84	152	2
85	85	10
77	98	5
168	168	2
71	104	1
76	103	3
137	137	5
34	34	5
180	181	3
68	69	2
156	169	6
100	100	5
31	33	1
95	116	1
80	108	4
162	163	1
6	7	5
89	89	7
46	46	4
112	112	6
91	92	4
64	64	1
57	68	4
17	19	2
124	124	9
139	139	6
115	130	4
155	156	2
72	104	2
71	71	4
100	110	4
56	127	3
126	126	3
9	21	2
27	28	4
56	56	1
96	98	1
161	162	2
13	13	1
33	35	1
13	42	1
115	116	2
168	172	2
36	36	3
142	156	2
32	32	4
29	29	5
169	169	3
41	41	1
184	184	3
154	154	8
167	188	1
19	19	2
4	5	2
114	114	6
21	21	3
15	15	12
93	94	1
159	161	2
154	186	4
167	167	7
88	125	3
165	165	2
178	179	2
147	186	3
70	74	3
59	129	1
142	142	1
174	174	3
74	74	5
85	173	1
28	28	6
46	47	1
163	164	1
184	188	1
176	176	7
16	20	2
165	187	3
90	112	1
126	127	6
79	80	1
78	78	2
149	149	6
188	188	3
128	128	2
138	138	5
139	140	2
181	182	3
97	99	5
67	67	6
58	60	1
110	110	4
156	157	2
135	136	3
62	63	1
164	164	8
167	170	2
140	185	2
73	73	2
32	35	2
144	144	2
179	180	4
27	30	1
177	177	7
98	108	1
97	100	1
171	171	5
31	31	5
145	165	1
182	182	2
75	75	5
98	98	7
134	134	1
12	12	7
11	21	2
8	8	4
92	92	1
179	179	3
175	175	4
88	88	6
77	107	2
153	153	5
80	118	1
89	128	2
40	41	5
77	77	2
109	109	5
92	93	1
59	60	1
89	98	1
140	140	3
152	152	4
80	81	3
150	150	3
58	63	2
18	125	3
18	20	5
27	27	1
183	184	7
62	70	5
40	40	2
58	59	5
4	4	4
105	105	2
52	52	2
94	94	1
52	53	1
169	187	1
14	15	2
170	170	3
34	35	1
166	167	2
115	125	1
33	33	2
72	73	3
130	131	2
28	29	1
183	183	6
106	107	1
171	172	2
187	187	5
159	159	4
134	136	1
38	48	1
78	79	2
5	7	2
24	24	4
82	82	4
149	150	2
14	14	1
107	112	3
90	91	1
159	162	1
44	44	1
66	66	6
164	165	1
174	175	3
82	105	1
37	37	2
70	71	2
10	11	3
157	171	3
7	7	2
158	158	1
130	151	1
139	150	1
190	190	2
20	36	3
80	80	6
26	26	1
32	36	2
83	83	2
155	163	1
11	44	1
189	189	2
170	176	1
186	187	4
26	29	5
11	12	3
121	121	2
146	184	1
113	113	1
86	86	3
61	63	1
29	35	2
27	29	2
5	8	2
127	127	4
153	186	2
19	33	2
41	54	2
132	137	2
16	124	1
158	161	1
129	130	2
29	30	3
59	62	3
78	118	3
106	106	1
95	126	1
78	108	1
71	74	3
44	45	2
28	45	2
75	76	1
33	34	1
118	166	1
166	168	3
156	189	1
30	31	2
59	64	3
63	63	2
78	80	1
80	83	1
41	42	2
134	140	1
116	116	1
35	36	1
81	151	2
91	91	1
45	45	3
180	180	1
168	187	1
73	74	2
79	79	2
54	56	1
104	105	2
82	83	1
76	110	1
45	46	2
38	39	1
169	173	1
99	99	1
148	148	1
27	36	2
90	94	1
13	14	1
175	177	1
139	187	1
96	109	1
5	55	2
88	127	1
115	115	1
122	123	1
104	106	1
166	174	1
2	2	2
182	190	1
188	189	2
67	74	1
137	159	1
97	98	1
62	67	1
22	36	1
139	186	1
55	55	1
169	182	1
167	178	1
95	96	3
120	121	1
107	108	1
110	111	1
166	166	2
43	44	1
86	87	1
178	182	1
157	160	1
132	134	1
53	55	1
100	101	1
111	112	1
89	127	1
57	61	1
145	145	1
17	18	1
55	56	1
112	113	1
82	110	1
132	161	1
151	151	2
107	109	1
78	99	1
