236	236	16
58	58	11
213	213	20
11	109	2
57	57	5
192	192	17
16	186	3
157	160	1
119	119	25
181	181	11
108	108	21
242	242	21
68	68	7
168	168	18
207	207	11
52	52	4
217	217	27
175	178	8
113	159	3
34	76	1
178	178	19
101	232	3
91	92	1
120	120	10
97	97	8
204	229	4
96	158	1
39	39	10
69	70	3
189	189	17
166	166	18
237	237	15
8	8	9
238	239	9
5	5	10
215	215	10
74	92	2
193	193	14
31	32	4
200	204	2
188	188	17
152	152	14
240	240	19
62	62	12
36	46	6
215	247	5
170	170	14
52	53	6
154	154	22
60	60	19
76	76	8
212	212	11
101	101	11
92	93	7
150	150	13
200	200	20
71	71	8
205	205	13
204	204	8
80	81	8
191	192	5
23	24	8
64	64	14
116	116	15
33	33	10
174	175	2
6	6	15
49	49	17
187	188	7
187	189	3
159	159	13
170	174	3
104	104	10
164	167	9
5	6	1
105	105	11
155	213	3
201	202	6
169	169	4
150	155	9
229	229	12
48	48	9
213	214	7
85	85	13
164	164	11
92	239	3
65	65	8
245	245	31
82	83	2
113	114	13
171	171	9
100	100	10
176	176	26
78	78	17
216	218	4
73	74	5
230	230	23
192	211	3
229	230	7
90	91	7
241	244	4
220	220	11
101	163	3
165	166	11
44	45	10
50	71	4
172	173	18
108	236	1
179	179	16
198	198	9
106	107	7
90	90	12
34	49	2
195	195	14
173	174	5
194	195	7
59	60	4
49	101	3
28	28	18
2	3	4
23	23	16
187	212	1
237	238	9
175	175	9
44	44	14
32	32	11
178	191	2
14	14	11
84	84	12
84	108	2
84	85	5
74	74	15
61	61	12
243	243	8
56	56	11
181	182	2
203	203	11
151	151	11
71	90	2
186	186	18
53	95	2
171	195	2
5	18	3
31	31	11
95	95	15
194	194	17
216	216	9
69	69	18
188	189	6
66	69	2
6	12	1
209	216	5
64	87	1
230	231	7
78	79	12
98	160	2
190	192	4
10	221	4
211	211	20
235	236	1
163	214	6
189	190	9
180	185	3
2	2	6
38	39	8
77	78	16
240	241	7
244	244	20
95	97	2
40	40	7
199	199	28
223	223	9
106	106	7
232	232	7
100	160	2
246	246	9
233	233	14
176	177	12
64	229	1
29	30	3
10	10	19
187	187	6
221	221	11
59	70	2
88	88	4
8	9	6
102	102	12
97	99	3
73	75	4
186	187	10
41	42	1
203	204	8
55	55	14
46	52	1
174	174	15
66	66	7
79	79	8
239	239	9
1	43	5
98	100	2
41	41	20
37	38	5
243	244	9
208	208	19
70	217	1
53	71	2
109	109	14
93	94	11
47	50	3
234	234	10
182	182	13
87	88	7
206	207	9
153	153	16
214	214	19
96	97	4
192	195	3
117	117	14
163	165	8
43	43	10
156	156	21
162	209	1
209	209	17
229	234	3
61	105	4
113	113	7
196	197	4
45	45	9
42	99	1
116	117	4
102	103	5
86	87	6
215	248	8
103	103	5
176	178	2
91	98	2
59	59	11
181	190	1
190	190	14
214	220	5
51	51	15
205	207	5
9	10	4
183	183	21
89	104	4
227	227	6
19	33	5
57	60	1
84	109	1
22	22	5
206	219	4
241	241	11
196	198	1
73	73	8
218	218	6
114	114	12
112	112	15
180	181	1
4	5	7
153	154	3
50	50	7
80	80	13
94	94	14
14	184	5
4	4	7
163	163	8
155	155	15
19	35	3
191	191	14
13	13	2
81	95	2
99	99	21
53	68	2
87	108	4
181	184	2
144	144	1
210	214	1
114	115	4
167	168	6
111	111	11
66	67	14
185	185	11
42	42	11
18	18	13
95	96	2
213	215	3
92	92	6
200	201	5
201	201	5
177	177	14
30	38	2
197	197	17
77	77	20
42	100	2
8	117	2
224	224	13
89	89	4
160	160	17
204	205	2
83	86	1
19	19	7
1	1	3
9	9	11
247	248	2
228	228	10
11	11	17
15	15	4
236	237	4
53	59	5
197	198	7
62	63	6
209	210	3
18	20	1
190	210	4
191	196	2
237	240	6
219	219	5
155	203	1
238	238	12
53	58	2
70	70	10
91	100	2
87	103	2
71	72	5
210	211	2
34	34	6
158	158	12
245	247	4
159	160	3
160	161	7
53	84	1
118	118	11
96	96	10
78	81	3
51	52	2
47	47	8
180	180	12
107	163	2
87	87	3
184	184	17
93	93	13
170	197	1
195	210	1
152	153	2
47	71	4
248	248	7
72	72	7
201	226	4
115	115	11
77	80	3
184	185	3
241	242	4
21	23	1
42	43	3
27	27	11
165	165	13
232	233	5
26	27	2
91	91	17
111	245	2
221	226	3
48	69	2
104	105	10
55	58	2
91	93	1
92	113	1
214	218	4
36	36	8
16	16	5
51	101	3
164	166	2
35	35	6
18	37	2
217	218	4
205	206	5
58	228	1
207	208	2
86	86	5
177	178	3
182	183	6
53	103	2
113	115	2
12	12	14
221	222	5
65	66	3
183	184	6
210	210	14
226	226	14
93	99	1
161	161	9
227	228	6
167	167	13
208	236	1
51	232	1
243	246	3
151	156	4
237	239	4
238	240	3
96	98	1
231	231	6
20	23	2
97	98	9
157	157	6
169	170	2
165	167	2
211	212	3
55	121	4
196	196	7
105	107	3
63	63	6
65	73	2
195	196	6
155	172	3
112	113	4
245	246	5
208	210	2
13	14	4
81	86	5
77	89	9
101	102	1
75	75	7
198	212	1
248	249	2
29	29	6
83	84	1
162	165	1
67	69	1
46	46	4
35	39	2
175	176	4
7	9	3
112	158	1
161	213	3
157	195	3
244	246	1
188	211	2
150	151	3
121	121	3
218	220	7
44	217	3
65	67	4
225	226	2
108	109	1
219	232	2
114	242	2
43	44	2
212	213	1
2	4	1
149	154	1
75	76	2
7	144	3
79	96	3
21	22	3
57	63	4
164	165	8
162	172	2
163	164	8
106	108	6
7	8	4
61	62	4
198	199	2
17	17	6
83	83	4
81	82	8
181	191	2
244	245	3
57	95	1
206	206	7
4	14	1
80	83	1
18	19	2
72	90	2
178	192	2
205	230	1
163	173	2
239	240	7
81	81	6
89	97	1
188	190	2
235	235	2
228	229	3
172	172	7
216	217	3
119	120	6
162	162	16
39	40	1
30	31	1
10	109	1
58	121	2
17	19	1
74	75	5
186	212	3
28	29	3
64	65	2
211	214	3
53	53	6
153	183	2
225	242	1
96	99	4
37	37	4
93	110	1
213	220	2
209	211	1
72	74	1
144	149	1
38	38	22
116	241	2
76	77	2
185	230	2
52	88	2
203	229	2
98	98	8
144	186	1
64	88	5
79	95	1
55	56	1
177	179	1
20	21	2
6	69	2
247	247	6
180	183	2
74	91	1
148	148	1
67	85	3
57	59	1
111	119	1
39	42	3
20	224	3
193	198	1
7	7	5
49	86	1
206	212	2
67	68	3
107	116	1
215	246	2
214	247	1
184	192	2
94	95	3
34	48	2
220	221	2
54	54	5
47	48	2
24	24	4
167	193	3
185	188	2
215	245	3
235	237	1
79	80	2
214	219	3
34	37	3
48	96	1
39	41	6
88	89	2
117	145	1
6	117	1
34	35	2
59	225	1
26	26	6
171	196	1
166	167	2
173	173	7
216	219	1
162	171	2
48	49	5
48	53	3
218	245	2
236	244	2
163	167	3
166	180	3
30	39	1
49	87	1
67	67	9
66	88	2
88	95	4
173	181	1
45	82	2
10	225	3
60	62	1
117	119	2
223	224	2
51	53	1
214	248	3
185	186	2
7	207	2
75	240	1
110	110	6
164	168	1
158	159	3
175	177	1
53	102	1
149	149	2
90	92	1
180	190	2
77	90	2
201	221	2
165	181	2
4	69	1
182	190	1
20	22	2
0	1	1
84	87	3
4	183	2
216	243	3
154	155	2
156	171	3
3	3	3
225	225	3
90	96	2
6	63	1
152	160	5
194	198	2
21	21	3
234	235	1
189	192	4
110	173	3
87	102	5
47	57	3
214	215	2
9	22	2
219	220	1
59	71	2
175	180	1
98	99	2
99	152	2
69	217	4
218	219	2
118	120	1
151	201	3
202	202	1
35	36	4
169	195	2
221	234	2
158	160	1
41	68	2
54	55	1
43	45	2
25	25	6
171	172	4
168	169	2
62	71	1
45	59	2
145	145	1
2	10	1
115	117	2
113	200	2
178	182	2
199	200	4
110	111	4
192	196	1
164	214	1
201	240	1
118	119	5
114	116	1
216	247	3
173	178	1
53	54	1
86	245	3
100	234	1
61	106	1
222	223	1
75	91	2
62	177	2
116	145	1
110	113	3
20	20	5
54	70	1
203	228	2
56	57	4
95	102	1
180	182	1
232	236	1
76	91	2
167	213	1
110	161	1
21	224	1
6	22	2
224	243	1
153	165	1
100	101	1
226	228	1
74	241	1
232	234	2
201	206	1
100	158	1
115	116	4
98	106	2
80	82	2
179	180	1
8	46	1
162	164	2
190	191	1
149	159	2
173	211	1
60	91	1
10	222	1
107	108	2
41	52	2
193	194	7
57	58	4
18	34	1
220	235	1
111	205	1
242	244	1
88	94	1
14	18	1
101	103	1
225	230	4
218	247	1
7	23	3
92	94	1
65	225	1
91	244	1
41	88	3
45	88	1
63	88	3
66	73	1
44	51	2
99	100	1
113	212	1
151	161	2
147	147	1
30	30	1
63	64	1
233	236	1
145	147	2
75	79	2
171	177	1
169	176	1
75	93	1
161	163	6
215	219	2
188	191	2
23	225	1
87	92	1
211	213	1
101	112	1
24	152	1
19	20	2
71	73	2
76	96	1
201	209	1
3	15	1
161	165	3
3	4	2
37	49	3
106	174	2
238	241	1
181	192	1
72	73	1
202	230	2
49	76	1
221	236	1
17	225	2
184	189	1
61	87	1
185	189	2
178	179	1
27	28	1
169	175	2
16	19	2
68	91	2
117	118	1
37	46	2
222	222	2
9	23	1
103	107	1
7	11	1
105	106	1
51	58	2
183	188	1
190	196	2
44	109	2
191	197	1
164	213	1
67	222	1
112	157	1
64	189	1
23	223	2
115	145	1
194	210	1
65	74	1
146	146	1
111	162	1
56	60	1
34	50	1
17	20	1
77	79	1
87	89	1
145	178	1
10	40	1
40	56	1
144	145	2
19	23	1
107	107	1
223	226	1
181	183	2
7	145	1
164	169	1
149	150	1
33	35	1
45	54	1
204	227	1
7	185	2
209	237	1
3	5	1
117	120	1
198	209	1
180	184	1
60	61	1
230	241	1
202	203	1
57	100	1
14	15	2
51	59	1
51	76	1
111	164	1
56	93	1
157	158	1
80	89	1
219	248	1
10	27	1
167	212	1
49	51	1
33	36	1
157	170	1
30	103	1
87	101	1
185	200	1
