90	90	6
80	80	1
94	101	3
38	39	4
82	82	5
86	87	2
155	155	7
78	78	2
26	26	5
16	22	3
72	72	3
9	9	4
114	115	11
76	117	4
118	118	2
103	103	7
107	107	8
17	17	5
57	57	1
50	53	1
80	81	5
33	33	6
34	55	2
73	74	1
127	129	1
77	77	1
12	12	3
91	123	1
18	19	5
128	128	1
13	87	5
71	71	6
130	130	4
30	30	3
140	146	1
82	84	2
40	40	6
15	15	4
129	129	8
146	146	1
50	51	1
112	112	2
83	84	3
70	71	2
129	130	3
11	20	2
81	81	2
78	121	2
28	46	2
10	97	1
25	25	4
124	126	3
6	7	3
101	101	3
65	90	1
144	144	3
25	29	3
15	21	1
39	39	1
69	141	4
33	34	4
38	38	2
78	79	3
14	14	5
106	106	4
97	118	1
46	46	4
83	87	1
139	139	1
56	57	2
140	140	7
148	148	5
52	53	4
114	117	2
47	80	3
137	137	2
70	70	1
29	29	3
23	23	4
9	10	2
27	41	6
51	67	3
128	158	2
100	100	1
98	98	2
73	73	3
146	147	1
76	77	3
153	153	1
31	31	1
83	85	1
150	150	4
13	14	4
76	76	1
125	127	1
3	3	3
77	106	3
8	8	6
138	138	4
87	87	4
42	90	1
6	6	2
54	55	1
22	22	5
129	131	3
44	44	4
109	109	5
152	152	5
135	135	2
118	120	1
97	97	1
83	83	2
95	96	1
14	15	3
95	95	1
20	21	1
2	2	2
136	141	1
124	151	2
15	22	3
119	120	1
28	28	5
11	75	2
81	132	1
121	121	4
89	89	2
99	99	3
55	55	2
47	64	1
76	122	1
92	93	1
112	113	1
30	31	3
110	110	6
95	102	2
141	147	1
19	19	2
97	98	1
94	98	1
144	153	2
153	154	5
7	95	1
150	151	1
41	42	1
31	32	3
46	47	1
5	6	1
48	48	2
43	90	1
145	145	2
16	16	3
113	114	1
69	69	2
75	76	1
142	142	3
20	20	3
25	26	1
131	132	1
21	21	1
117	131	1
4	5	2
92	92	1
91	91	4
98	108	1
117	117	2
40	42	1
102	138	2
110	112	1
120	120	4
119	119	2
157	157	4
132	132	2
122	144	1
0	2	1
8	9	2
72	78	1
115	116	1
50	50	3
126	126	2
123	150	5
127	127	1
90	92	4
68	118	2
71	87	1
22	27	1
37	38	1
18	38	1
47	49	1
24	24	1
125	146	1
135	155	2
142	143	1
90	133	1
35	35	2
56	65	1
124	124	2
27	28	1
105	105	1
49	49	1
0	1	2
155	156	1
109	113	1
21	32	1
147	147	2
45	45	1
125	125	2
11	32	1
156	157	1
104	108	3
27	40	2
121	144	2
56	56	1
99	100	1
98	107	2
88	89	1
1	1	2
94	94	2
156	156	2
93	93	1
69	135	1
116	121	1
64	64	1
3	96	1
132	135	1
149	149	1
77	79	1
22	23	1
137	149	1
54	54	1
47	139	1
39	42	1
56	64	1
77	131	1
84	85	1
36	36	2
