110	110	30
61	61	7
181	181	16
12	12	10
55	78	2
56	56	25
182	221	1
17	48	5
230	231	6
37	111	7
190	210	1
90	90	15
176	181	6
40	40	17
52	70	1
72	72	22
74	75	7
15	17	5
48	49	4
231	232	2
172	183	2
28	40	6
86	86	6
162	165	7
43	43	12
70	72	7
78	100	3
32	33	7
50	50	9
85	103	4
220	220	29
160	160	21
111	111	22
176	176	11
217	217	12
234	234	10
186	188	3
6	19	1
214	217	3
212	212	22
164	190	2
151	151	13
194	196	7
1	2	1
28	29	3
10	10	9
69	69	15
119	119	19
242	246	4
222	223	2
98	98	20
4	4	20
175	175	24
199	212	7
249	249	5
18	18	16
165	165	22
151	153	8
193	193	8
186	186	22
7	11	3
173	174	2
203	203	26
164	164	29
205	212	4
162	162	21
210	232	2
32	32	10
82	100	4
170	170	14
112	112	27
51	51	15
201	201	26
52	52	18
248	248	10
241	241	8
38	38	15
49	79	2
153	153	20
88	88	12
91	91	20
105	106	2
181	182	6
38	98	4
110	117	4
247	248	13
166	166	16
244	246	4
99	100	5
68	68	19
147	175	3
49	49	10
29	112	3
44	234	2
178	181	4
30	114	4
189	189	17
29	63	1
118	118	9
178	178	18
65	65	8
156	156	17
177	177	24
78	78	14
74	74	14
227	227	9
53	53	22
171	183	6
213	213	10
232	232	8
202	203	6
76	77	6
65	66	7
145	243	2
29	111	4
95	118	3
171	171	16
106	106	16
190	192	10
150	153	3
34	34	13
20	28	2
174	174	17
238	238	23
222	222	19
187	187	12
240	241	6
207	207	11
35	35	13
217	219	3
59	59	12
198	200	3
27	28	3
42	42	14
169	169	14
72	73	7
112	116	1
211	212	15
109	109	11
185	185	22
191	192	10
161	182	2
75	75	10
17	47	7
190	190	17
20	20	16
183	184	5
215	216	5
70	71	14
223	223	12
55	56	14
174	188	1
199	199	14
221	221	8
167	167	18
245	246	28
236	236	13
23	23	18
200	200	15
205	205	13
179	180	6
112	113	8
168	168	9
173	173	14
198	198	14
90	91	3
145	154	3
224	225	4
93	93	6
202	202	23
84	95	2
147	152	1
203	204	4
152	153	13
211	214	4
31	38	6
94	94	8
233	233	7
107	108	3
168	169	12
8	8	32
157	158	4
215	215	17
73	77	2
102	102	11
161	161	16
95	95	4
175	177	1
147	153	6
240	242	8
197	197	8
58	75	6
157	157	6
29	30	2
119	120	3
204	205	11
107	107	14
184	185	3
161	162	1
101	101	6
161	164	8
117	117	21
26	35	1
204	204	17
226	229	2
89	92	6
198	199	10
169	173	6
243	243	10
109	110	11
37	63	4
163	164	7
62	63	10
173	179	4
50	77	1
211	211	17
26	28	3
81	81	9
26	41	7
44	45	1
44	44	21
150	150	24
146	152	3
242	243	4
41	42	12
244	244	11
24	25	4
16	16	6
229	230	6
161	173	7
196	209	2
46	78	2
161	169	2
59	62	1
201	205	3
239	240	7
7	7	24
149	150	4
97	97	17
161	166	3
192	208	6
95	114	4
54	54	21
172	172	30
161	168	9
85	85	15
188	218	1
201	204	5
232	237	3
166	167	15
209	209	35
231	231	15
229	229	20
56	182	3
193	196	2
245	245	13
120	180	2
180	180	25
67	67	8
37	37	27
89	89	11
5	6	3
208	208	20
41	41	20
91	95	2
242	248	2
193	199	2
231	238	3
87	88	6
243	244	4
182	182	28
22	23	1
224	224	11
240	240	9
64	64	14
164	165	7
175	176	9
18	47	5
188	188	15
35	36	8
147	147	11
159	168	4
15	15	10
171	173	2
77	77	5
72	74	1
110	111	5
113	113	15
168	174	2
237	237	15
159	165	2
82	82	7
226	227	6
182	186	5
160	169	5
82	83	6
160	161	5
155	155	22
120	120	9
92	93	10
116	116	11
39	47	5
192	192	11
115	115	11
195	195	8
36	36	3
234	235	4
230	234	2
17	222	2
159	170	2
213	214	5
167	169	6
225	226	4
163	166	8
66	68	2
175	180	2
84	84	5
226	226	10
8	85	5
210	213	7
27	27	21
86	181	3
225	237	2
46	46	15
34	35	3
0	0	4
30	112	11
163	163	7
60	60	4
25	25	9
80	80	13
196	197	5
216	216	5
93	94	8
204	229	2
201	203	3
146	153	5
178	179	5
79	79	3
184	184	8
223	240	2
181	186	4
29	151	1
68	69	3
56	179	5
100	100	23
87	87	6
230	230	8
219	220	2
196	198	1
31	31	12
52	53	15
51	79	7
56	177	1
201	208	2
77	119	1
193	197	3
152	152	4
187	188	7
14	14	13
6	7	6
225	225	1
146	147	5
176	178	3
159	159	9
205	206	4
73	74	10
5	5	14
102	103	4
209	210	4
11	11	5
169	177	3
237	238	7
185	188	1
42	43	10
168	171	2
39	39	10
100	107	4
39	40	10
70	70	8
87	117	4
180	182	8
213	243	1
82	119	4
84	103	2
39	43	2
183	183	22
2	18	3
67	72	2
92	179	2
6	18	2
64	66	10
82	85	3
55	55	10
24	24	10
158	159	6
201	202	3
158	158	5
57	60	5
214	215	6
8	16	5
171	172	1
104	105	5
22	39	5
19	47	3
108	108	9
208	213	1
23	66	4
83	108	4
26	34	1
188	189	3
236	237	8
86	96	1
234	236	1
113	115	2
165	180	3
30	30	10
226	230	2
23	151	2
228	228	6
98	100	1
151	203	2
201	212	3
196	196	10
95	98	3
110	116	1
154	154	16
246	246	11
78	79	4
216	219	2
85	86	4
15	20	7
9	9	13
119	180	4
31	36	2
30	62	2
196	199	2
29	29	6
76	76	8
153	160	4
6	16	1
114	115	4
210	210	5
47	93	1
71	75	1
60	62	2
40	42	7
165	184	2
212	230	4
7	8	5
103	103	3
26	26	13
108	118	1
57	59	4
49	50	4
118	120	2
176	184	3
105	105	2
92	92	20
101	116	1
21	23	7
209	244	2
199	200	5
14	82	2
167	181	4
45	183	6
19	19	12
45	151	1
145	145	8
102	119	1
36	68	4
219	233	3
48	48	11
167	184	4
18	19	1
162	164	4
163	170	1
84	105	9
36	37	4
231	235	1
162	169	2
153	182	2
17	27	2
57	63	1
45	160	2
48	50	2
76	79	2
90	114	5
17	17	8
187	213	2
216	218	3
80	202	1
215	218	2
4	18	4
59	74	2
22	22	6
213	248	1
199	206	2
234	239	7
111	112	3
3	12	1
15	18	2
77	82	5
38	57	3
189	192	2
17	79	2
237	240	4
4	5	5
172	173	5
8	9	1
209	216	3
214	214	16
106	107	1
75	76	2
104	118	4
94	115	1
115	116	3
173	183	2
83	83	10
224	230	3
114	114	5
117	118	5
94	118	1
9	11	3
118	119	5
160	168	2
34	230	2
30	34	3
195	196	8
196	217	4
77	78	8
108	246	1
45	45	11
101	102	4
50	102	2
150	151	2
38	43	2
28	28	16
85	113	3
235	235	4
99	99	4
2	2	4
96	97	4
169	170	6
98	114	5
194	209	1
82	91	1
240	247	5
53	205	1
164	185	5
93	113	1
194	195	1
196	207	2
247	247	6
57	221	3
77	102	2
1	1	5
10	202	2
9	10	3
219	219	7
55	200	4
26	36	1
86	94	1
52	204	2
71	71	4
96	96	13
187	189	6
66	66	5
208	209	6
28	43	2
2	27	1
239	239	7
206	207	4
33	33	12
46	94	4
85	116	3
99	118	1
182	187	4
185	190	2
244	245	7
173	186	1
170	174	1
6	12	1
47	47	6
162	163	4
113	116	2
193	195	3
8	25	1
57	57	11
159	175	4
81	101	2
4	30	4
6	6	8
76	102	2
3	70	1
157	162	3
188	190	3
166	228	3
242	244	1
93	118	2
87	89	1
67	68	4
31	33	4
62	62	10
21	21	5
159	169	2
167	190	3
10	11	5
36	46	2
162	184	2
206	206	3
176	177	9
63	63	7
200	201	2
61	223	5
7	81	1
62	66	8
224	231	2
194	194	9
232	236	1
14	19	2
71	73	1
86	98	2
212	214	5
2	4	4
179	181	1
179	184	1
165	166	5
43	44	5
103	109	1
191	191	6
160	184	1
210	249	1
1	8	1
220	221	2
1	27	2
208	210	3
34	53	2
47	94	2
79	177	1
183	196	2
163	165	6
157	159	2
199	201	1
51	55	3
207	225	1
76	101	2
173	182	1
18	20	2
239	241	1
204	207	1
192	195	1
39	112	2
44	207	1
61	74	1
221	235	3
37	112	2
2	48	1
111	114	5
189	191	6
84	90	2
91	115	1
54	223	1
67	75	1
1	6	2
85	110	1
59	68	1
95	96	1
217	240	2
190	191	9
179	200	5
162	218	2
103	119	3
54	201	3
174	183	1
65	73	3
13	34	1
172	205	3
16	21	1
58	58	7
208	211	1
38	112	2
31	98	1
44	205	1
193	194	4
3	3	2
4	66	1
31	97	4
117	120	1
30	37	1
169	178	1
0	1	3
227	228	1
85	108	2
74	76	1
95	97	2
33	44	4
46	113	1
12	21	6
3	4	1
169	176	1
37	65	2
177	181	2
45	46	2
36	47	1
38	111	1
79	83	1
174	189	3
40	41	1
146	146	6
193	209	1
218	218	4
48	54	3
167	168	3
214	241	1
157	179	2
174	179	1
48	79	3
94	95	2
20	99	2
169	174	1
162	170	1
159	174	3
33	36	1
10	32	3
54	200	4
179	179	3
156	157	4
84	85	5
197	198	5
166	181	1
166	187	1
81	100	1
121	242	4
11	12	3
33	34	3
159	160	2
48	59	1
232	234	1
99	107	1
183	186	2
218	219	3
173	184	1
87	90	3
25	181	1
73	73	1
56	74	2
165	189	3
54	55	1
242	242	6
60	61	3
224	245	1
104	104	1
46	50	1
216	217	4
58	68	1
153	168	2
53	229	3
99	115	2
204	230	1
14	15	1
213	242	2
208	215	1
98	113	1
18	83	1
159	166	2
171	201	3
120	144	1
100	101	2
103	110	3
11	145	4
214	239	1
50	75	1
78	81	5
178	180	1
76	83	1
10	97	1
151	152	2
206	211	1
116	117	2
68	71	3
39	114	1
224	236	2
241	242	2
61	62	1
238	240	6
61	71	2
171	184	2
200	205	1
66	67	2
80	84	2
185	187	1
35	52	3
38	39	3
2	9	1
168	198	2
18	48	1
214	245	2
78	101	4
56	64	2
96	114	1
45	229	1
32	39	1
59	60	1
110	112	1
161	179	1
55	235	1
182	188	1
71	72	2
110	237	1
31	111	2
115	117	1
90	106	1
64	65	1
212	235	2
46	95	1
31	32	1
11	22	1
162	168	2
182	183	1
177	178	1
233	234	1
169	175	1
246	247	1
34	38	1
153	154	1
191	193	1
19	55	1
146	176	1
215	234	1
197	199	3
71	74	1
224	237	2
65	72	1
164	210	1
189	190	1
25	154	2
62	64	2
23	24	1
60	71	1
209	211	2
80	81	1
113	114	1
101	110	1
30	31	3
108	109	1
43	155	1
23	80	1
195	217	1
84	101	1
77	118	2
30	38	1
97	99	3
210	215	1
52	62	1
36	67	1
19	48	1
23	40	1
112	115	1
100	118	1
87	109	2
13	18	2
99	111	1
2	35	1
46	47	3
196	208	2
79	80	1
50	58	1
167	176	1
165	190	2
59	75	1
47	92	1
56	76	1
57	58	1
27	44	1
88	89	1
19	54	1
174	196	1
193	208	1
168	172	1
168	177	1
170	171	2
163	167	1
213	223	2
6	152	1
50	62	1
225	236	1
36	241	1
99	207	1
180	186	1
25	45	1
180	181	1
171	175	1
55	57	1
213	215	1
164	170	1
29	38	1
204	227	1
186	187	1
232	233	1
217	230	1
145	152	1
22	113	1
217	218	1
164	209	1
57	61	1
25	197	1
