73	73	8
18	18	4
26	26	1
103	124	2
37	37	2
184	184	3
95	95	3
181	181	6
16	16	3
145	146	2
18	19	1
218	229	3
197	197	4
40	40	2
158	172	3
44	44	2
4	6	2
223	223	4
72	72	1
19	19	11
9	9	4
151	159	1
21	108	1
45	46	5
8	8	11
55	224	1
129	134	3
39	39	6
41	41	5
56	56	3
2	12	1
214	214	6
33	33	3
12	49	3
44	190	1
160	160	3
176	177	2
34	36	3
7	7	3
200	200	3
233	234	5
203	203	5
41	42	4
52	52	4
217	218	2
196	196	1
54	54	3
187	187	2
50	53	1
237	237	7
98	98	5
81	81	4
122	125	3
175	178	3
113	113	2
115	140	1
208	228	1
168	168	3
134	134	4
155	155	2
64	73	1
7	18	2
177	177	1
188	188	4
119	119	4
118	118	2
221	224	1
51	51	3
14	50	4
45	45	5
144	145	2
52	56	1
109	109	6
221	222	4
103	107	4
228	228	4
30	33	3
222	222	6
149	154	1
107	120	2
188	189	4
196	197	2
148	159	1
164	167	2
21	21	6
187	223	1
145	195	1
225	226	2
224	224	5
5	7	1
122	122	5
131	131	1
178	178	5
167	167	1
19	32	1
58	58	2
133	133	2
29	30	2
213	214	1
232	232	1
174	174	2
144	150	2
131	132	1
36	77	1
28	28	1
74	74	8
20	32	2
64	72	1
123	123	2
34	34	2
24	24	2
68	69	2
16	165	1
230	230	2
231	231	3
43	43	3
11	11	3
62	62	4
15	16	3
30	31	5
2	2	3
148	148	3
68	68	3
44	101	1
135	137	2
143	144	5
16	19	5
146	146	2
47	47	4
226	226	2
238	238	6
115	117	1
154	154	3
10	194	2
114	129	2
27	61	3
221	221	2
149	150	3
60	60	4
17	18	2
6	6	1
127	128	2
172	175	2
78	78	7
227	227	5
156	157	3
12	12	4
25	225	1
42	42	8
26	27	2
240	240	1
104	107	2
242	242	2
187	189	1
179	180	2
49	49	3
64	65	2
41	77	2
183	184	1
216	216	4
0	0	2
201	201	2
151	200	2
75	75	6
10	142	1
159	159	2
164	164	2
203	204	2
219	220	1
161	161	1
131	134	1
230	231	2
5	5	4
44	95	2
149	151	3
3	5	1
13	13	2
184	185	3
141	141	3
209	210	1
32	32	1
203	231	1
111	111	4
231	232	2
3	24	1
222	223	2
3	3	3
192	192	1
17	17	2
217	217	3
88	89	1
70	73	2
175	175	1
22	99	1
10	10	3
241	241	1
51	52	3
207	207	1
218	218	1
181	189	2
85	85	2
9	32	2
14	17	2
53	184	2
170	176	1
31	150	1
125	125	3
42	59	2
12	35	2
45	189	2
76	95	1
34	35	1
39	43	3
43	52	1
4	4	1
27	27	2
188	198	2
200	228	1
103	103	2
102	102	5
75	142	3
103	190	1
5	38	1
66	68	1
40	41	3
83	83	1
57	77	1
210	210	2
117	118	1
179	224	1
72	95	1
112	112	2
66	140	1
98	99	1
46	110	1
117	117	2
49	50	1
32	34	2
219	219	4
100	100	1
136	136	2
133	134	3
115	116	2
88	103	3
123	138	1
234	234	5
46	46	1
82	83	2
199	218	1
142	142	3
119	127	1
152	152	2
129	129	4
86	86	3
80	80	4
191	191	2
113	130	1
193	193	1
104	104	1
207	228	1
125	126	1
179	221	2
157	158	1
142	143	1
66	66	2
6	7	1
144	146	1
170	171	2
1	1	1
19	52	2
126	126	2
137	137	1
63	102	1
185	189	1
195	195	2
55	183	3
9	165	2
29	31	2
25	26	3
15	20	1
1	2	1
156	156	2
184	186	3
179	186	1
8	166	1
208	208	1
57	156	2
44	45	1
211	211	2
68	136	1
124	124	1
78	84	1
199	222	1
35	49	1
78	79	1
99	100	1
159	176	2
74	85	1
155	156	1
12	48	1
111	112	2
214	215	1
173	210	1
86	87	2
79	139	1
77	108	1
171	171	1
77	99	2
22	22	4
5	30	1
137	140	1
220	220	1
42	105	1
22	23	3
81	82	1
226	227	2
195	196	1
218	219	1
212	214	1
39	41	1
189	189	2
209	209	1
47	156	2
103	105	1
213	213	1
28	35	2
65	65	1
235	235	1
239	240	1
70	70	1
1	10	2
206	206	2
162	162	2
36	117	1
118	119	1
187	205	1
73	85	2
190	190	1
26	167	1
1	4	1
9	11	1
14	16	1
96	96	1
190	201	1
0	21	1
41	156	1
215	216	1
53	53	1
19	127	1
47	97	1
146	147	1
107	121	1
37	38	1
233	241	1
148	150	1
23	42	2
53	55	1
66	67	2
218	235	1
147	177	1
176	176	1
140	140	2
156	158	1
59	59	1
59	60	1
152	158	1
25	25	1
2	3	1
144	144	1
100	104	2
15	17	1
226	229	1
142	146	1
6	8	1
183	183	1
120	120	2
67	128	1
158	170	1
170	170	1
14	18	1
67	85	1
77	77	1
140	165	1
23	41	1
99	99	1
116	117	2
3	31	1
64	66	1
57	57	1
63	63	1
55	55	1
4	38	1
149	163	1
67	72	1
9	151	1
138	194	1
7	23	1
130	133	1
145	196	1
