154	154	13
21	22	5
30	30	10
102	102	14
19	21	2
24	29	2
129	130	11
76	76	4
24	25	3
72	73	5
44	44	3
73	74	4
24	24	13
64	66	2
22	22	19
133	133	2
45	45	18
40	40	10
63	86	7
107	107	3
57	57	8
13	16	1
39	40	4
123	124	2
31	31	5
79	80	12
126	140	2
119	119	4
23	23	18
137	137	3
29	29	6
41	41	8
138	141	1
126	150	2
20	20	10
81	125	3
122	122	7
148	148	10
53	55	5
151	151	5
6	7	3
73	73	10
95	95	4
83	83	6
122	123	3
42	42	10
71	71	7
17	17	17
130	130	16
110	110	11
79	126	1
109	110	4
100	100	9
108	112	1
83	85	8
152	153	4
124	124	1
97	97	6
56	64	4
124	125	6
120	120	2
65	65	13
114	117	1
4	5	9
8	8	9
18	20	1
46	47	2
13	13	6
9	9	16
38	38	12
15	20	1
113	113	8
12	12	11
25	25	1
48	49	3
69	70	2
96	97	2
9	22	2
61	63	1
39	39	9
41	42	6
74	87	6
100	102	2
153	153	11
13	14	2
111	111	6
47	50	3
53	53	21
108	108	3
35	45	2
90	90	3
64	64	2
73	76	2
4	4	3
98	99	9
68	68	11
30	90	1
104	105	4
50	67	3
19	20	2
10	10	11
47	51	2
56	57	1
99	99	5
108	109	3
70	70	23
97	98	3
48	51	3
74	75	3
115	117	3
30	31	10
35	35	5
107	109	6
83	98	2
118	118	10
81	81	3
80	81	3
128	129	2
57	70	2
67	67	9
49	49	6
16	16	15
45	46	13
125	125	2
18	18	7
10	14	2
103	103	2
11	120	3
15	17	1
37	37	8
30	32	6
121	130	2
140	142	1
119	122	4
67	68	6
75	75	2
94	96	6
93	111	1
105	105	2
126	126	3
93	94	3
50	50	7
147	150	3
12	31	2
134	134	3
146	146	6
85	85	7
98	98	7
76	77	2
16	117	2
71	78	1
77	77	7
141	142	1
101	102	2
129	134	3
125	148	1
84	84	7
68	76	5
28	29	6
19	19	6
7	8	2
69	69	14
116	116	4
132	132	5
138	144	1
131	131	5
5	25	2
102	103	4
114	114	4
116	117	3
129	129	4
101	101	3
135	136	1
87	87	6
49	52	1
46	46	7
37	55	2
86	86	3
11	33	1
80	80	10
77	78	1
94	94	5
107	113	3
101	105	1
5	5	2
97	99	3
38	39	2
96	99	1
135	135	2
132	133	2
107	112	3
95	98	1
48	48	3
99	110	1
78	78	8
100	117	2
7	7	9
131	132	1
120	121	4
11	11	5
151	152	2
139	139	1
9	10	4
33	33	3
57	58	1
28	28	7
23	39	1
57	67	1
65	66	1
63	63	3
6	6	1
127	127	8
14	15	4
79	79	3
24	27	2
47	48	1
2	25	1
80	82	2
21	21	8
20	21	4
26	89	3
133	135	2
136	148	2
106	106	4
15	117	1
15	15	15
153	154	1
10	23	1
144	144	7
47	52	1
11	23	3
2	5	2
6	8	2
29	82	2
50	74	2
117	117	6
93	96	1
66	66	3
72	72	3
55	55	2
44	45	4
15	16	3
84	86	2
12	25	1
139	140	3
67	69	3
93	97	4
39	48	1
140	141	1
100	118	4
28	122	1
128	128	3
19	22	3
36	36	2
92	93	6
4	6	2
107	108	3
3	3	3
17	18	2
146	149	1
81	83	4
51	51	1
136	136	2
68	69	1
100	103	5
126	151	4
100	101	1
23	27	1
30	81	2
145	148	1
41	47	1
17	20	1
75	76	7
109	109	3
147	147	3
47	47	7
136	137	2
27	27	1
111	112	3
82	82	1
138	138	4
6	28	4
56	56	1
143	145	1
11	29	2
25	27	1
102	153	1
10	12	1
123	123	1
14	14	5
110	115	1
56	63	1
123	126	1
144	146	1
10	20	2
141	141	1
112	112	2
99	100	1
149	150	1
123	125	1
82	83	2
54	62	1
8	9	1
84	85	1
139	143	1
128	134	1
147	148	1
52	54	3
31	32	2
11	13	1
81	82	1
43	44	1
128	130	1
64	65	2
24	39	2
17	21	2
15	21	1
134	136	1
90	103	1
51	53	2
15	22	1
29	118	1
34	35	1
17	116	1
22	23	1
96	122	3
145	145	3
20	114	1
74	74	1
36	46	1
73	85	1
10	13	1
64	85	1
11	12	1
14	16	1
106	107	1
152	152	2
136	139	1
135	147	1
12	14	1
3	5	1
132	134	1
107	110	1
110	111	1
105	106	1
18	19	1
121	121	1
35	38	1
105	108	1
