24	27	4
44	59	1
38	38	6
69	69	12
48	48	10
7	8	3
30	30	7
48	54	3
37	37	8
54	55	6
29	57	3
11	11	7
53	53	6
7	7	7
77	77	15
64	64	14
46	46	14
37	38	5
52	52	13
50	51	4
33	33	15
68	68	7
34	35	7
22	22	4
13	14	2
35	35	16
21	26	1
65	65	4
47	47	9
53	54	3
75	75	7
24	29	2
8	8	8
61	63	4
19	56	4
33	36	1
62	64	1
21	22	5
23	23	5
33	34	15
13	13	26
45	47	1
45	45	15
39	40	7
2	2	14
20	56	2
41	41	7
59	59	12
6	6	20
47	48	7
21	21	7
61	61	8
56	56	7
4	5	7
63	68	1
58	58	17
18	42	3
62	63	3
3	3	9
44	46	5
57	58	9
32	33	4
12	13	4
75	76	1
70	70	5
31	31	4
63	63	8
4	4	9
40	40	18
26	27	1
68	69	5
49	50	4
53	59	3
14	14	2
26	26	10
25	26	12
73	73	5
66	67	13
10	10	11
54	54	8
9	9	11
51	51	18
32	32	10
49	49	10
11	12	2
71	71	4
1	2	8
12	12	5
45	46	6
64	65	4
67	67	7
71	75	1
36	63	1
24	31	1
13	34	3
74	75	5
74	74	7
55	55	8
42	42	17
29	29	8
19	19	8
46	47	2
66	66	8
67	71	1
18	18	6
18	55	2
36	36	5
31	32	2
25	25	5
23	24	1
10	12	3
42	57	3
67	68	15
39	44	1
62	62	8
60	61	1
21	25	2
36	37	1
72	74	1
39	43	2
27	28	4
31	35	3
22	24	2
5	5	7
18	20	2
51	53	2
34	46	1
60	60	11
24	25	9
22	23	8
54	56	1
51	52	4
0	1	6
44	47	1
76	76	6
67	69	7
20	20	7
57	57	10
22	42	1
50	50	14
40	59	2
4	12	2
47	49	3
73	74	11
32	35	4
68	70	1
7	9	1
21	77	2
5	6	1
57	60	3
1	1	10
10	11	4
58	61	1
0	43	1
28	29	3
44	52	4
61	62	2
63	64	6
0	2	5
22	27	1
38	48	3
32	34	2
43	45	2
51	55	2
39	39	4
51	65	3
34	34	10
5	7	2
9	19	1
75	77	1
69	70	9
6	13	1
31	33	1
38	39	2
61	68	2
44	45	6
0	0	8
24	24	12
39	41	1
65	70	3
38	45	4
70	71	2
59	64	1
10	19	3
20	57	2
27	27	2
36	38	2
38	42	2
2	4	2
49	51	5
72	72	3
30	31	2
3	4	3
1	4	1
56	57	2
71	72	3
45	48	3
40	48	2
38	40	1
24	35	4
28	28	4
69	73	2
66	68	7
2	43	1
29	30	4
35	36	3
65	67	1
76	77	5
6	7	2
41	42	6
9	10	4
32	39	1
40	47	1
72	73	1
70	74	3
10	13	1
3	43	1
52	55	2
44	44	1
58	59	1
43	47	2
19	20	3
40	41	1
43	56	2
2	3	3
19	21	2
51	59	1
28	58	1
62	66	2
23	69	1
26	28	3
0	42	2
20	21	1
29	32	1
44	58	1
42	66	1
40	58	3
64	66	1
64	69	1
21	42	1
9	12	1
55	56	1
28	59	1
31	36	1
