102	102	4
116	116	9
127	128	7
71	71	6
113	113	5
130	130	7
98	99	1
33	35	1
28	28	1
108	110	5
2	22	4
97	97	8
90	91	7
112	112	1
93	116	1
78	78	4
110	110	10
32	32	7
26	26	11
9	10	2
101	103	1
19	116	1
73	73	4
29	32	1
20	20	1
124	124	13
9	16	3
106	106	1
9	11	7
22	39	3
101	101	4
131	132	10
7	7	4
17	18	4
72	87	2
81	94	2
22	23	6
100	100	10
14	14	10
31	31	2
29	29	3
87	87	3
132	132	7
93	94	2
95	126	1
118	118	7
9	9	2
114	119	1
119	119	6
36	36	10
16	16	16
4	4	8
37	37	7
38	38	5
109	113	8
14	16	2
36	137	4
33	33	2
111	114	11
104	104	2
134	134	11
126	128	3
88	88	3
34	35	1
135	135	7
89	89	8
120	123	3
104	105	5
25	25	3
101	120	4
131	133	3
112	122	4
109	109	7
115	117	1
123	131	1
21	21	4
81	82	4
85	87	4
99	99	3
77	78	2
96	96	7
115	115	2
79	79	5
91	91	3
117	118	3
86	86	1
76	78	5
122	122	10
8	82	2
105	120	3
3	4	11
122	123	4
18	22	5
140	140	9
24	24	3
7	9	4
6	16	1
137	138	6
1	9	1
84	84	4
105	105	11
2	2	8
0	1	7
110	111	7
76	79	3
82	83	2
124	125	4
137	137	8
133	133	5
12	12	2
1	1	4
127	127	8
108	108	1
123	123	5
111	111	2
99	100	1
19	19	4
131	131	7
98	127	2
5	12	6
96	107	3
23	25	1
128	128	5
98	98	5
96	99	2
21	24	1
85	85	3
3	3	1
83	83	2
129	129	2
8	8	3
2	4	1
132	135	1
1	15	1
107	108	1
85	103	2
76	76	7
27	27	3
80	80	2
86	87	3
128	129	3
28	29	2
18	119	1
127	138	1
82	113	4
0	7	1
18	118	2
22	22	2
81	87	2
25	28	2
107	109	1
103	103	2
34	38	3
124	131	1
71	72	4
120	122	1
73	87	1
76	84	2
6	6	1
137	139	3
112	113	1
13	20	1
125	125	2
119	121	1
107	123	3
34	36	2
33	34	2
10	73	2
139	139	6
96	114	2
91	95	1
4	12	3
78	79	1
72	72	3
121	122	6
104	107	2
78	80	6
84	120	1
75	106	1
8	9	1
95	99	3
68	68	3
126	126	4
6	27	2
36	37	1
106	107	1
33	116	1
71	120	1
1	8	1
92	94	3
11	11	2
114	114	6
10	10	1
103	104	1
17	17	2
108	109	3
34	34	6
125	127	2
121	121	1
18	18	1
102	103	1
134	135	1
126	129	2
75	75	1
73	83	1
83	85	4
90	90	6
105	119	5
0	6	2
93	119	4
129	137	2
82	82	3
20	21	1
120	120	3
13	13	2
1	4	2
94	95	2
7	10	1
17	34	2
12	13	2
117	117	3
7	12	3
7	74	1
86	93	6
15	15	3
81	118	2
112	120	1
31	32	2
72	78	1
80	84	2
2	3	3
93	114	1
96	129	1
17	37	2
17	20	1
2	8	4
71	119	3
136	136	4
133	139	1
83	116	1
12	14	2
74	86	2
77	77	2
15	16	1
66	120	1
85	86	1
19	37	1
23	81	1
30	30	2
23	23	1
101	122	2
126	127	1
2	82	1
30	32	1
129	138	1
24	44	1
129	135	1
79	121	1
4	5	1
94	94	2
5	22	1
120	121	1
16	18	1
83	94	1
16	17	1
96	112	1
25	26	1
77	101	1
