111	111	12
77	81	3
127	128	2
69	69	12
44	44	7
6	7	3
12	12	8
59	59	3
68	69	3
73	125	1
128	130	3
95	109	2
48	48	6
81	81	6
88	88	2
5	5	7
61	127	6
70	70	4
2	2	3
110	110	10
38	38	3
89	89	3
102	102	4
130	130	4
62	63	8
77	77	2
58	122	1
50	51	3
89	91	2
113	113	1
104	120	1
100	100	4
44	108	3
90	90	3
21	21	6
75	91	13
22	23	3
15	15	5
50	50	7
49	49	5
17	18	2
121	121	6
95	95	3
97	99	5
117	124	2
75	75	1
126	127	3
122	123	6
23	23	5
1	1	4
72	72	4
80	80	6
52	52	3
41	42	3
51	51	11
120	120	4
126	126	5
48	49	8
19	19	6
96	96	5
132	132	6
110	111	2
83	83	2
65	75	1
5	11	4
123	124	1
26	46	3
117	117	3
71	72	4
9	10	1
13	14	2
19	20	6
25	25	8
124	124	4
109	109	3
32	32	1
13	13	4
54	54	3
26	26	3
60	61	2
98	98	5
76	99	2
73	74	6
67	67	5
58	64	2
6	13	6
70	71	2
75	76	2
47	47	3
115	120	4
17	17	2
57	57	4
75	77	1
56	56	1
6	6	1
125	125	3
85	85	7
54	57	2
76	76	2
108	113	1
15	16	2
88	106	2
22	33	3
50	54	3
115	115	6
78	78	1
42	42	2
30	33	3
29	29	4
53	53	7
66	66	6
93	94	2
122	122	2
39	39	6
118	119	3
12	13	1
101	101	3
39	40	4
106	106	2
104	104	1
46	46	10
52	53	2
68	68	2
0	0	3
98	99	2
97	97	4
57	122	2
94	94	4
74	77	2
55	55	5
65	66	3
18	19	2
131	131	2
89	90	2
1	2	6
116	116	1
110	124	2
82	83	1
31	32	3
73	73	1
67	68	2
123	123	1
86	90	1
7	7	3
93	125	2
61	72	1
83	84	1
3	5	1
51	88	2
19	24	5
63	64	2
16	16	1
107	107	2
40	40	1
108	108	1
119	119	1
34	34	4
82	82	1
120	121	1
108	109	6
59	61	3
3	3	1
47	79	2
111	112	1
100	103	1
10	10	5
118	118	1
14	14	2
124	125	2
107	108	2
86	86	1
17	21	2
66	67	2
14	22	1
74	133	1
13	19	1
127	129	3
89	102	1
103	103	1
59	75	2
5	7	2
72	76	1
91	95	2
93	93	2
45	108	1
109	120	1
121	122	1
101	102	1
61	126	1
129	129	2
20	20	1
28	30	1
11	14	1
8	8	1
33	33	1
47	48	1
92	94	1
45	45	1
106	107	1
