153	153	2
82	82	11
45	46	2
122	122	8
137	137	4
9	9	4
10	10	3
54	55	5
23	23	3
127	127	6
99	99	6
103	144	1
141	141	3
2	2	3
44	44	1
9	41	1
83	83	2
15	15	4
129	129	1
129	130	4
125	132	2
5	5	2
130	130	2
144	145	5
13	13	2
148	148	3
152	156	2
25	27	1
133	133	1
17	18	4
154	154	5
81	81	2
75	116	2
144	144	5
85	104	1
18	20	1
7	7	1
90	90	3
140	140	1
103	103	4
79	81	4
157	157	5
43	43	4
36	36	2
117	117	5
65	65	6
98	158	3
112	113	4
70	70	5
97	97	1
71	71	1
89	137	1
125	126	1
33	33	1
8	8	3
115	115	1
31	36	1
49	49	2
95	95	1
3	3	4
35	37	1
107	116	3
29	30	2
10	12	1
27	27	3
106	106	2
34	34	5
100	100	3
48	62	1
87	90	4
7	8	3
18	21	3
139	139	2
21	21	7
104	105	1
89	89	2
12	18	1
128	128	6
138	139	2
46	46	4
123	125	2
117	124	1
156	156	3
79	112	2
118	118	2
80	80	3
77	145	2
69	70	3
48	49	2
138	138	2
49	53	2
92	93	2
48	48	2
143	143	1
134	134	1
40	40	3
29	29	3
50	50	3
81	82	2
126	126	2
33	52	2
39	40	2
22	22	1
30	72	1
103	104	1
104	104	4
119	144	1
130	131	2
105	105	1
34	49	1
86	97	1
86	86	4
142	151	1
27	73	2
122	124	1
57	57	2
3	10	2
18	19	1
148	149	1
14	14	2
33	53	1
151	155	2
98	98	3
121	121	1
81	110	2
38	39	2
35	35	1
123	123	3
158	158	2
38	38	1
62	62	1
32	39	2
1	1	1
47	47	1
88	89	1
39	39	1
150	150	3
135	140	2
147	147	3
121	131	1
25	25	1
93	131	1
50	75	4
34	35	2
132	132	3
1	2	1
110	111	1
113	114	2
100	101	3
131	131	3
103	146	2
75	115	1
51	51	2
153	154	1
31	39	1
118	119	3
140	141	2
91	92	4
114	115	1
1	30	1
10	33	1
131	133	1
27	100	1
10	16	1
125	125	3
56	56	1
137	142	1
66	70	1
75	83	1
157	158	1
85	85	1
103	118	2
14	126	2
138	141	1
6	6	1
94	95	1
112	112	2
18	18	2
111	114	1
17	17	1
119	120	1
12	13	2
51	52	2
120	120	1
84	85	2
11	11	2
34	70	1
116	116	1
112	145	1
41	41	3
45	56	1
28	28	1
110	110	1
99	117	1
91	122	2
111	111	2
115	134	1
34	53	1
32	32	1
101	101	1
97	155	1
141	142	1
49	56	1
50	51	2
20	20	2
102	102	1
106	107	1
18	32	1
54	54	1
113	151	1
12	12	1
108	111	1
109	109	1
20	67	2
119	119	1
123	124	2
52	56	1
83	86	1
79	92	1
42	42	2
132	133	1
15	40	1
33	35	1
87	87	1
2	4	1
93	97	1
142	156	1
152	153	1
67	67	1
79	93	1
88	88	1
142	142	1
108	108	1
