140	140	11
2	3	6
141	141	3
160	162	4
84	84	4
99	100	1
24	24	10
38	38	8
7	7	7
130	130	7
127	143	1
24	68	2
121	121	7
56	56	8
77	78	2
13	13	9
98	180	2
91	91	5
83	83	7
25	25	9
64	72	2
18	18	3
132	132	8
15	15	6
152	186	1
122	123	3
187	188	1
124	125	4
38	48	3
104	108	2
135	135	1
156	156	6
119	120	3
75	76	1
78	78	1
29	34	1
90	92	1
146	147	5
39	110	1
21	21	6
68	68	1
30	30	5
32	32	6
121	131	4
97	97	4
91	93	3
186	186	5
23	23	5
89	91	3
96	97	7
57	57	3
117	122	7
86	92	3
5	5	2
135	136	3
41	41	10
124	126	4
120	120	5
173	173	2
123	124	2
6	6	6
21	23	3
114	114	5
44	44	5
142	142	8
96	96	7
146	146	2
134	134	7
169	169	2
175	180	3
36	36	3
26	26	8
21	22	2
101	101	7
177	182	4
183	183	15
43	145	5
35	35	1
70	71	3
94	94	4
55	56	5
151	151	5
8	8	4
45	46	1
16	16	9
90	90	2
99	99	7
95	95	6
137	137	2
137	138	4
27	29	3
52	54	3
13	14	2
77	79	7
116	119	3
29	29	4
66	89	1
112	112	6
185	185	7
82	96	3
23	24	4
1	7	2
53	55	8
83	84	3
178	179	6
139	146	1
102	104	3
17	17	5
144	144	6
54	58	2
106	122	2
85	85	5
115	117	3
122	139	3
25	42	5
152	152	6
38	39	6
92	113	4
116	117	1
1	1	12
53	59	1
45	61	3
150	154	4
119	119	4
106	107	3
181	188	1
138	138	1
162	164	1
161	166	2
138	185	3
80	80	3
22	22	2
118	119	6
128	128	4
79	84	2
164	164	2
140	144	2
38	77	2
145	175	1
103	103	5
71	71	4
162	163	2
110	110	7
18	34	4
88	88	4
9	10	4
163	165	4
17	18	1
113	114	3
77	85	1
19	19	3
1	8	1
147	148	3
75	75	3
153	154	5
24	66	2
178	181	2
41	42	4
72	72	5
45	45	4
46	46	4
133	156	1
100	100	1
149	149	10
126	127	2
173	179	3
72	77	2
169	170	3
63	63	6
58	58	3
138	144	2
133	133	5
101	102	4
168	168	2
77	77	7
167	167	4
161	161	3
124	124	4
2	2	18
89	89	2
184	185	2
31	31	2
129	131	2
39	62	3
40	40	3
107	107	1
139	139	6
113	113	4
70	89	1
152	182	1
104	104	2
151	175	5
33	34	4
93	93	4
140	183	6
114	148	1
70	70	3
157	157	3
130	132	1
125	125	1
12	12	5
62	62	2
117	117	2
48	48	3
180	180	4
52	53	2
154	159	1
162	162	2
116	116	2
116	118	3
145	151	1
170	170	7
22	23	1
114	115	1
26	47	2
90	113	1
147	147	2
74	88	3
177	181	3
143	143	2
187	187	1
1	2	2
87	87	3
30	36	1
89	90	2
128	148	1
102	102	6
120	122	2
16	117	2
148	148	3
108	137	2
64	65	5
152	155	2
93	94	2
105	148	1
151	170	2
26	63	4
90	91	1
60	60	1
28	28	2
66	68	2
74	75	3
98	98	3
158	159	2
189	189	2
122	149	2
37	37	2
76	77	3
42	42	4
66	66	3
108	109	3
15	114	1
129	129	5
168	169	1
106	106	1
139	142	2
12	14	2
152	153	1
91	113	2
34	36	3
158	161	4
99	178	2
186	187	1
171	172	3
85	90	1
164	174	1
38	62	1
179	180	2
120	123	3
182	182	6
184	184	6
28	29	4
136	136	3
34	43	3
158	174	2
157	188	1
44	89	2
67	67	6
78	79	4
61	72	2
69	69	2
181	181	1
32	33	6
37	38	1
136	137	1
21	24	1
32	37	1
127	127	3
3	3	2
149	150	3
176	177	3
39	39	4
83	86	4
27	28	2
123	123	4
165	166	1
157	158	3
127	128	2
15	16	1
188	188	3
92	92	2
86	87	2
61	61	2
72	104	1
117	118	2
108	144	1
34	35	5
174	174	1
62	63	4
169	171	2
128	129	4
20	20	1
12	13	3
95	101	2
30	35	1
148	175	2
100	101	1
76	76	1
55	108	1
25	26	2
4	4	1
118	118	2
10	11	2
104	117	1
154	154	1
155	156	4
141	142	2
86	86	1
108	108	1
167	168	4
79	79	3
8	15	1
140	142	1
1	25	1
24	26	3
138	139	3
175	177	1
163	166	1
167	190	1
171	171	1
179	181	1
122	122	1
7	8	1
17	25	1
70	74	1
5	6	1
92	93	2
9	9	1
129	130	2
107	108	1
43	44	1
138	146	1
0	0	3
24	25	2
82	149	1
168	187	2
145	145	3
139	140	1
57	81	2
190	190	1
75	81	1
155	155	1
97	99	1
74	74	1
161	181	1
87	135	1
95	98	1
10	13	1
137	139	1
23	35	1
54	55	1
126	149	2
56	57	1
79	80	1
67	71	2
10	10	1
105	105	1
163	164	1
138	184	1
82	82	1
11	111	1
188	190	1
47	48	2
24	63	1
66	67	1
64	64	1
155	162	1
163	163	1
81	97	1
