36	37	4
92	93	9
5	23	4
149	150	10
19	32	1
50	51	10
154	154	18
101	101	15
32	34	6
18	19	12
124	125	5
130	130	16
93	94	5
6	12	4
145	145	15
90	120	5
157	157	26
33	33	21
143	144	6
79	79	13
28	28	16
51	51	9
122	122	19
2	4	6
112	112	11
130	131	12
106	110	2
134	146	3
108	122	3
117	117	6
132	134	3
14	14	24
90	91	15
34	34	13
144	145	6
16	16	13
42	42	33
143	148	3
138	139	5
44	44	8
141	141	11
84	86	5
53	53	11
148	148	17
80	84	1
81	92	2
74	75	1
2	3	2
85	89	3
150	150	16
27	28	8
5	101	7
134	134	11
69	69	4
22	22	3
140	140	9
103	103	16
102	102	3
117	118	9
8	8	19
147	148	6
21	21	18
36	36	16
10	84	1
33	41	2
151	151	17
113	147	2
131	131	9
71	71	9
114	114	16
69	70	11
23	24	9
40	54	3
96	96	12
121	121	13
102	104	1
18	35	4
80	114	2
36	75	8
3	106	3
126	126	12
49	50	2
146	146	11
30	30	10
40	40	13
13	13	15
110	111	2
37	77	3
5	5	21
132	156	6
82	82	7
135	135	17
28	55	1
50	52	3
71	81	3
26	28	2
110	110	11
78	78	8
111	112	5
132	136	2
17	17	6
127	127	12
9	14	1
63	63	5
1	2	9
57	57	4
106	106	21
152	152	15
46	46	21
47	48	2
38	77	2
66	67	1
120	120	16
67	67	13
29	29	16
25	25	19
120	121	6
132	132	19
108	109	12
147	147	8
149	149	9
52	52	11
32	129	7
94	94	16
15	16	6
37	37	8
46	129	2
49	49	12
139	139	9
91	112	2
8	24	3
32	48	2
137	138	2
62	62	3
43	43	11
8	11	5
7	7	19
63	67	4
68	68	7
40	41	14
24	24	17
96	106	1
124	124	16
87	87	9
122	125	6
158	158	14
22	23	4
19	20	5
1	1	15
25	28	7
119	119	9
145	146	14
139	156	2
18	18	10
104	105	3
4	77	4
113	113	6
29	30	4
125	126	5
80	81	6
81	81	10
115	115	7
85	85	13
33	34	17
132	133	10
104	104	13
20	20	20
98	98	12
108	111	2
2	2	7
48	48	10
128	128	17
4	31	1
40	43	6
88	88	27
111	111	6
90	90	11
20	21	4
125	125	14
16	17	5
50	50	4
114	115	7
26	56	2
31	32	9
91	91	17
3	3	28
48	49	5
16	117	1
133	133	20
93	115	1
77	77	10
108	121	2
84	84	12
143	143	12
23	25	1
22	52	3
123	124	10
13	14	5
19	21	3
112	154	2
75	75	14
41	42	4
12	12	15
154	155	9
97	97	12
63	70	1
0	25	3
111	114	4
128	156	4
127	138	3
30	42	6
41	41	21
80	93	4
77	78	9
38	38	14
80	121	1
4	53	2
10	108	3
100	100	14
150	152	5
14	18	4
73	73	11
99	100	6
39	42	2
19	22	2
11	11	22
70	70	22
127	129	1
67	70	2
116	116	11
67	69	2
64	64	7
15	15	17
43	45	1
117	120	2
66	66	13
126	127	12
109	109	11
26	26	15
92	92	8
54	54	14
31	34	4
121	155	3
86	86	9
51	67	1
148	154	2
32	32	12
61	63	2
99	99	14
39	46	3
49	52	2
137	137	20
56	56	9
0	23	2
56	67	3
128	157	1
0	0	14
10	10	20
54	55	4
14	38	8
12	81	3
11	25	3
103	104	5
101	105	1
42	43	11
129	129	10
19	19	13
39	39	14
64	67	3
70	71	1
108	108	10
144	146	2
0	79	3
23	23	11
79	80	11
9	85	4
31	31	8
65	65	11
81	82	5
21	51	2
98	100	5
147	153	5
138	138	5
118	118	10
55	56	5
80	80	6
10	52	2
6	6	4
56	57	2
3	25	3
8	34	3
124	127	5
21	22	4
88	89	6
85	90	4
47	77	1
36	40	2
132	135	6
146	147	4
47	47	14
97	106	5
108	115	3
11	34	1
12	13	5
156	156	22
107	107	7
68	70	5
144	144	2
93	93	18
96	97	18
20	53	2
3	30	1
97	98	1
142	142	21
95	111	4
12	18	1
38	39	3
30	44	2
94	95	1
4	4	9
20	24	5
98	110	2
71	106	4
57	67	2
109	110	1
83	104	2
23	44	1
15	28	2
131	133	7
95	95	8
51	52	2
131	132	9
54	69	2
115	117	2
136	136	11
139	140	1
86	87	4
17	33	2
45	72	3
83	83	5
88	117	2
56	69	1
55	55	9
105	105	11
27	34	1
39	40	4
84	100	1
126	128	1
47	51	7
11	38	3
87	88	3
8	9	2
8	39	5
11	31	2
142	144	2
77	80	3
147	154	2
136	156	1
96	114	1
44	47	4
35	35	14
10	26	2
77	96	1
119	120	5
11	12	5
9	10	10
113	153	1
101	102	2
7	35	2
85	86	8
3	4	8
123	123	5
143	153	3
79	123	1
5	6	3
10	103	1
9	9	3
102	103	2
124	128	2
155	155	10
39	43	1
2	128	3
30	31	6
30	32	5
96	111	2
26	29	1
28	29	1
113	123	2
122	136	4
95	96	4
82	103	1
89	89	7
118	119	2
155	156	6
46	47	6
4	25	1
89	90	11
113	116	2
68	69	4
14	15	1
109	119	1
91	93	7
105	106	2
94	138	1
18	53	2
127	133	2
143	145	5
79	91	1
80	94	3
27	30	6
9	52	3
100	116	1
45	45	4
26	27	5
107	108	2
35	39	4
84	104	1
84	94	5
110	114	1
124	131	1
99	112	3
115	116	3
116	117	4
37	38	3
129	130	5
40	42	3
113	117	6
25	29	7
150	159	1
157	158	3
101	103	2
131	140	3
8	78	1
25	26	9
95	97	1
102	127	2
150	158	2
77	94	1
48	71	3
150	157	1
135	136	5
27	27	8
120	123	3
148	157	2
150	151	1
131	135	3
42	123	1
7	41	1
52	53	2
56	71	5
42	45	10
50	53	5
156	158	3
122	123	2
6	11	1
18	26	2
98	99	4
0	26	2
78	122	2
7	54	2
114	117	2
7	52	4
54	56	1
97	104	1
7	11	2
87	91	3
106	107	3
83	84	3
4	8	1
105	121	1
109	111	2
105	120	2
111	120	1
148	158	1
8	12	2
8	17	1
121	122	2
95	112	1
148	149	1
141	143	2
4	5	1
35	36	1
124	126	6
1	128	4
31	54	1
9	40	2
86	100	3
27	105	1
4	36	4
75	91	2
108	113	4
57	61	4
113	114	4
24	47	1
106	111	2
28	32	1
72	73	1
134	138	2
133	135	2
33	35	1
18	37	3
31	50	2
48	50	2
94	96	1
64	65	1
9	50	3
125	131	2
119	126	4
140	141	2
78	79	2
2	101	2
80	120	3
6	7	2
42	50	1
29	31	2
0	24	1
4	43	1
138	150	2
47	123	1
11	40	2
96	123	3
93	97	1
153	153	2
27	31	1
156	157	3
72	111	1
45	46	2
19	34	1
75	77	3
53	55	1
89	118	1
9	15	1
50	98	1
136	137	2
0	3	1
26	100	2
88	90	2
13	16	1
103	105	2
12	25	1
120	128	2
98	113	2
72	106	1
154	156	1
41	43	2
50	61	1
50	70	2
86	89	1
102	128	1
103	108	1
134	137	4
122	156	1
124	143	2
90	92	1
13	39	1
96	105	1
62	68	1
106	136	1
99	158	1
114	125	1
113	115	3
136	146	2
115	122	1
37	46	1
31	155	1
29	32	1
9	38	1
140	156	1
103	122	1
126	137	1
127	134	2
108	112	1
37	79	2
89	122	2
111	127	1
71	111	2
107	112	1
142	143	1
81	131	1
116	129	1
123	134	2
10	14	1
147	149	2
8	110	1
43	49	1
20	34	1
120	135	1
91	132	1
49	51	2
6	40	2
137	145	1
73	101	1
117	123	1
115	148	1
42	51	1
16	31	2
28	105	1
121	148	1
22	28	1
48	52	2
71	119	1
88	91	1
128	129	4
114	127	2
72	110	2
132	140	1
10	11	2
11	83	4
10	13	1
122	149	3
71	104	1
32	46	2
66	69	2
151	152	2
106	109	1
79	82	1
20	35	2
132	141	1
28	31	1
1	100	1
67	68	3
94	127	2
128	130	1
12	83	1
79	94	1
0	1	1
22	24	1
17	18	1
139	142	1
21	52	2
49	53	1
116	156	1
12	14	1
72	72	1
7	13	1
104	122	1
36	38	1
42	55	1
99	103	1
155	157	1
72	81	2
45	49	2
76	122	2
92	121	2
16	30	1
100	101	1
111	118	1
85	147	1
135	146	1
16	38	1
142	156	1
159	159	1
