113	113	27
77	94	2
42	42	32
136	136	31
89	90	27
122	123	47
38	38	28
88	91	2
77	77	23
66	66	15
130	130	39
140	140	37
19	107	2
83	83	16
11	11	26
59	134	3
145	146	2
14	21	2
47	47	13
119	121	2
19	19	32
67	140	3
145	145	7
39	40	23
91	98	7
124	138	4
61	62	8
17	17	54
133	133	38
8	8	25
117	117	44
15	15	33
15	24	3
77	83	2
71	71	33
107	107	20
119	119	51
60	60	26
51	54	1
57	58	16
98	111	1
23	23	34
35	35	31
122	122	45
90	91	8
5	68	2
117	135	4
52	53	6
121	124	3
30	31	9
86	96	2
113	114	12
129	129	46
125	142	5
92	93	14
6	15	3
18	56	2
89	89	36
48	48	36
128	128	54
76	79	3
78	78	19
39	47	1
29	29	40
88	89	7
118	119	28
4	34	2
73	74	10
72	72	48
135	135	47
54	54	23
22	22	61
1	1	17
92	94	7
81	81	34
77	117	1
12	98	3
68	68	21
26	26	39
98	100	1
37	37	44
103	103	34
142	142	48
13	16	5
79	79	26
128	129	10
118	118	36
126	127	12
116	116	18
25	25	42
80	124	2
27	27	52
99	100	20
121	121	50
87	88	6
76	76	24
2	6	16
93	93	27
26	27	7
24	26	7
118	141	4
59	59	15
65	66	15
86	88	2
13	13	33
98	98	18
93	109	3
106	107	15
86	86	21
127	127	25
39	39	54
18	19	22
85	89	2
141	141	24
132	137	5
88	88	19
139	139	33
63	63	24
123	123	59
62	62	46
69	70	24
123	124	21
41	41	12
2	80	1
143	144	5
115	115	22
90	90	29
131	132	13
130	131	24
108	108	9
62	114	2
61	95	3
138	138	36
66	117	1
5	10	3
53	53	37
106	106	28
126	126	54
143	143	37
41	42	7
96	96	34
26	37	4
125	133	4
105	108	3
131	131	56
85	94	7
31	31	33
134	134	48
124	125	19
18	69	3
135	136	13
56	56	18
91	91	36
146	146	3
102	102	39
28	29	8
129	138	2
67	67	21
15	16	16
61	61	28
119	141	2
24	110	2
129	130	18
84	85	21
104	104	29
34	34	10
125	125	38
133	139	7
33	39	5
116	117	13
94	95	11
31	33	2
39	43	1
64	64	30
14	69	4
120	120	40
128	130	12
99	99	21
92	92	24
9	10	22
38	49	3
22	26	3
134	135	24
80	80	26
82	82	25
127	129	5
55	60	3
108	131	1
62	63	14
121	122	14
37	38	5
75	108	7
21	21	36
133	136	9
124	144	1
17	31	1
111	113	4
115	133	3
99	102	3
26	28	5
97	104	12
40	40	19
137	137	32
58	58	25
86	120	4
0	106	2
125	141	3
130	133	1
142	143	18
132	132	22
93	97	3
1	33	3
144	144	23
27	28	21
111	111	46
16	16	37
97	107	4
50	50	16
58	88	2
128	136	2
34	73	1
84	96	3
8	9	12
87	87	23
22	23	8
3	3	13
122	134	2
55	56	19
82	117	2
119	120	26
95	95	26
70	70	40
73	119	3
11	14	2
82	85	11
76	78	7
112	113	2
59	61	7
126	128	6
141	144	3
126	129	1
140	141	8
124	124	39
71	72	24
130	137	1
117	131	4
126	132	4
141	143	5
115	116	14
32	33	20
129	135	5
137	140	3
73	73	29
64	68	2
122	133	2
63	64	13
122	125	9
30	30	19
64	66	4
73	107	5
100	100	28
18	18	21
104	113	4
2	3	11
31	35	4
29	99	9
39	41	4
10	11	2
113	115	3
133	134	19
17	107	2
62	84	2
27	32	2
49	49	26
34	47	3
20	32	3
81	82	11
73	75	10
60	61	15
52	52	43
32	32	19
128	138	1
20	20	36
43	43	17
75	100	3
57	57	17
56	58	13
22	24	4
16	24	4
14	14	17
104	110	8
126	134	2
10	10	24
109	109	24
94	94	33
13	14	6
6	6	23
115	119	2
30	33	3
32	35	4
78	79	7
53	54	2
14	16	8
91	94	8
74	122	2
74	74	35
55	55	28
97	117	1
125	126	7
57	67	4
40	49	2
96	97	12
12	26	5
73	105	2
50	51	8
117	118	18
71	105	2
111	125	2
113	117	2
5	5	17
108	109	4
60	69	1
4	4	22
87	100	2
81	97	1
120	123	12
9	9	20
138	139	8
132	133	29
51	51	11
114	115	10
144	145	4
23	106	1
9	11	5
111	112	8
36	37	9
24	25	6
118	120	4
117	120	4
21	92	1
105	106	12
37	41	1
101	114	5
67	68	12
82	83	6
78	82	4
57	65	3
105	105	15
23	103	1
28	28	21
17	19	5
130	135	3
30	39	3
75	83	1
136	138	4
6	38	2
62	79	4
1	9	3
79	80	4
95	137	1
32	58	1
128	144	1
70	71	5
79	91	2
27	30	3
72	126	2
127	128	12
58	59	13
53	76	5
64	65	6
72	73	14
103	104	15
110	114	3
6	70	3
68	128	1
17	18	4
87	119	2
23	54	3
114	114	31
97	97	16
63	68	3
115	117	10
20	120	1
66	67	5
101	101	30
104	105	15
19	22	3
126	137	2
56	59	5
31	54	2
47	48	2
20	33	3
85	86	11
40	41	2
3	4	12
130	144	2
51	53	10
23	24	13
8	39	4
106	116	2
47	66	1
91	92	10
127	143	2
67	69	3
38	42	7
33	34	15
81	115	4
65	65	7
71	138	3
58	80	2
122	131	1
67	82	3
87	98	2
102	103	5
20	21	7
52	61	1
98	99	10
135	138	1
128	142	7
13	32	2
33	89	1
105	112	3
68	70	3
62	66	1
21	117	4
80	82	4
72	132	1
136	137	11
58	64	7
64	82	3
112	112	24
11	25	5
73	85	4
66	94	1
100	141	1
25	26	18
117	119	5
30	74	2
75	76	8
121	123	4
137	138	10
24	24	35
69	69	8
13	64	2
48	66	4
36	36	14
127	137	2
107	108	6
100	101	2
75	77	5
101	102	9
135	142	4
19	37	2
77	79	3
83	85	14
62	82	4
68	82	1
118	132	4
47	53	4
77	78	12
58	78	4
133	138	1
4	67	1
118	133	8
75	99	2
107	134	2
84	86	2
49	50	7
83	84	9
90	94	2
123	126	10
79	90	7
21	31	2
110	118	3
19	79	1
86	92	7
110	110	25
1	31	2
36	42	2
66	92	1
75	78	3
5	6	4
100	119	2
2	31	3
89	91	7
122	124	2
140	143	2
100	144	1
16	18	10
19	55	4
96	117	1
120	121	26
81	103	2
56	66	3
63	127	1
136	139	2
51	52	10
117	133	3
38	41	3
99	101	16
111	128	2
58	124	1
116	131	6
6	25	3
109	110	9
53	73	3
11	32	1
124	132	2
8	130	1
79	82	3
12	37	1
56	57	19
17	27	5
75	75	17
14	18	2
82	136	3
62	67	7
76	77	5
139	140	12
54	57	2
0	0	12
57	61	1
125	127	10
9	26	1
106	140	3
85	112	2
3	79	3
13	24	9
141	142	9
6	23	5
85	85	15
33	36	3
99	119	9
92	109	3
2	70	4
77	80	5
93	94	5
34	36	8
63	125	3
118	121	2
35	43	2
88	92	4
100	116	2
59	141	1
73	80	1
80	81	5
16	17	2
69	127	1
31	78	4
34	35	8
4	5	6
20	92	1
37	54	1
123	131	3
66	70	3
134	142	3
29	57	3
85	88	2
32	67	1
70	73	1
0	1	8
128	143	1
56	60	1
68	69	4
85	90	3
19	20	1
22	120	4
43	61	6
11	23	6
2	5	3
24	54	1
110	111	6
18	35	2
57	66	2
61	63	2
14	26	5
93	96	6
17	79	3
127	131	2
21	99	2
71	87	1
103	109	1
53	57	3
2	47	5
1	2	7
129	134	5
1	27	1
39	50	2
110	112	3
93	99	3
59	60	16
58	82	2
84	84	10
60	77	4
118	143	4
19	36	1
67	118	2
25	27	11
53	56	1
127	130	2
54	97	1
96	107	2
69	131	4
43	49	2
14	110	1
4	31	4
119	135	1
4	35	3
18	31	1
131	135	3
59	99	3
95	96	6
12	12	12
37	64	1
107	113	2
136	140	1
21	73	2
84	91	2
82	115	3
107	109	1
14	17	3
102	112	4
121	126	3
113	124	1
0	70	2
112	115	3
63	82	2
23	25	2
67	125	7
116	119	1
122	129	2
62	65	2
38	40	2
33	51	2
135	139	4
70	126	2
0	111	3
66	87	2
98	112	2
131	134	4
15	17	2
86	116	1
59	89	1
21	23	3
6	12	2
20	34	3
10	98	4
109	140	1
65	84	2
127	132	1
50	108	3
111	116	1
122	126	1
84	105	3
36	38	3
32	71	1
11	37	1
130	136	1
82	103	2
126	144	1
79	100	2
138	141	1
9	22	1
38	51	3
17	26	1
98	117	1
135	140	2
83	105	7
38	47	2
62	64	2
28	37	5
74	89	1
27	37	3
38	39	9
33	33	7
48	143	5
62	119	1
94	102	3
112	134	3
91	101	1
3	5	4
70	81	1
117	141	2
134	140	3
132	139	2
53	58	4
96	110	3
84	141	3
54	55	4
59	68	1
105	138	1
88	93	2
21	34	2
35	53	1
47	62	2
129	142	5
102	104	2
74	120	6
51	62	1
2	2	12
104	135	2
20	23	3
50	60	3
65	119	1
72	74	2
74	107	2
87	90	1
87	110	2
42	59	2
96	104	2
60	62	3
98	104	2
31	32	6
60	95	1
8	10	1
94	107	1
31	95	1
130	138	4
58	77	3
87	117	1
139	141	2
70	72	1
31	39	1
70	108	1
112	132	2
71	95	3
91	103	2
25	110	2
17	30	3
28	30	3
21	22	4
91	106	2
58	71	1
47	64	1
104	112	2
69	72	1
110	117	2
65	118	2
14	35	2
68	104	2
18	119	1
5	82	3
110	132	3
62	121	3
19	25	1
73	91	4
103	111	3
74	77	2
1	78	1
8	27	2
115	124	3
88	95	1
140	142	1
48	51	1
63	119	2
63	110	1
15	109	1
16	27	1
35	47	1
11	24	2
135	141	5
114	117	2
15	34	4
50	55	1
137	142	3
74	105	2
10	41	1
98	110	1
137	139	3
12	13	4
18	20	1
32	64	4
90	92	4
42	43	3
62	85	3
17	25	3
67	106	1
103	140	1
21	33	1
61	67	1
71	130	3
62	87	3
32	34	4
97	114	1
97	98	4
100	129	1
25	93	2
16	25	2
138	140	1
123	134	1
22	28	1
8	30	1
115	121	1
132	140	1
15	119	1
79	116	3
91	113	1
16	31	2
135	137	1
5	11	3
67	92	1
94	96	3
0	22	1
81	98	1
69	71	1
71	73	1
70	109	1
93	98	1
33	48	2
36	53	1
68	118	1
55	58	3
14	25	2
5	71	2
15	31	1
49	52	1
88	98	3
68	72	1
83	114	4
81	99	2
82	86	1
127	138	1
114	116	1
10	102	1
128	139	2
99	120	2
80	123	1
96	105	2
103	127	1
16	68	1
119	140	1
67	86	1
83	116	2
80	101	2
105	110	2
5	15	2
54	58	2
13	119	1
53	55	1
18	27	4
82	97	6
120	122	1
104	127	2
90	105	2
126	139	1
86	118	4
116	121	3
12	25	2
42	50	3
10	24	1
66	68	1
112	117	1
122	140	2
50	53	1
81	91	2
21	35	2
48	49	4
15	26	2
17	118	1
60	89	2
10	23	1
93	132	1
60	81	2
21	119	1
104	109	1
36	47	2
85	95	1
101	124	1
89	95	3
88	120	2
55	71	1
63	66	2
88	94	1
58	79	1
43	108	3
59	135	3
13	26	3
74	75	8
104	140	1
70	125	1
35	56	1
123	125	7
4	27	1
113	116	3
10	27	2
6	16	2
87	99	2
96	98	1
57	92	2
13	15	1
104	111	2
62	130	1
87	97	1
118	131	2
124	128	1
14	31	1
37	48	1
131	133	5
59	64	1
78	84	2
66	86	1
107	110	2
104	114	1
118	122	3
90	124	1
127	134	3
121	127	1
86	98	1
92	106	1
36	50	1
91	131	2
24	31	1
96	106	1
101	121	1
103	138	2
21	89	2
103	139	1
48	63	1
71	113	1
104	124	2
142	144	1
105	107	2
2	122	2
74	145	2
111	135	1
36	41	3
124	142	1
29	30	1
101	103	1
113	128	1
84	87	1
87	111	1
52	107	1
95	103	1
133	135	2
11	12	1
88	96	1
6	120	1
133	140	3
88	121	2
39	49	1
68	131	1
19	21	1
129	132	2
98	114	2
112	114	1
35	36	2
31	53	2
131	139	1
123	127	2
82	92	1
121	132	1
1	8	1
56	75	2
125	129	1
53	62	1
133	141	1
126	131	2
83	104	1
81	84	1
102	110	1
33	73	1
119	131	1
131	136	3
59	82	2
27	36	1
129	131	1
124	137	1
102	111	1
27	89	1
100	102	2
87	95	2
74	115	1
76	81	1
39	42	2
86	87	1
20	31	1
116	135	1
57	68	1
87	89	2
89	126	1
41	43	2
55	67	1
106	108	1
115	126	1
125	137	1
55	57	1
61	132	1
105	133	1
61	66	1
52	59	2
63	94	1
2	71	1
87	93	2
1	110	1
58	60	1
91	99	1
144	146	1
54	74	1
134	139	1
100	127	1
48	64	2
127	133	1
75	79	1
121	133	1
117	144	2
56	62	1
31	36	1
105	127	1
15	27	1
19	31	1
106	135	1
109	139	1
50	52	1
82	102	1
75	98	1
16	65	1
132	135	1
101	126	1
64	90	1
14	30	1
6	13	1
