89	89	6
106	106	3
132	133	3
69	69	7
114	114	10
117	117	11
98	99	4
48	48	3
76	76	4
1	3	5
113	113	6
103	103	2
112	112	6
84	84	5
105	105	2
68	68	4
58	59	2
92	92	5
53	54	4
52	55	3
131	131	5
62	64	3
61	61	12
12	12	6
125	125	8
65	100	1
20	20	11
3	6	2
118	118	12
75	75	6
62	62	2
9	9	1
101	101	12
38	38	11
77	107	2
85	124	1
78	78	11
73	73	1
54	56	2
127	134	5
16	18	3
44	45	5
115	125	2
68	78	1
64	64	5
1	4	1
57	57	6
93	93	6
43	43	3
102	102	3
52	53	2
112	113	5
78	121	2
114	118	3
105	106	3
90	90	8
6	7	2
45	45	4
58	58	4
28	28	7
27	31	2
116	116	3
87	87	5
70	71	4
16	17	2
81	81	8
67	67	8
122	122	3
85	85	12
30	30	8
45	46	1
82	83	3
37	67	2
113	128	4
120	123	2
66	68	2
80	80	4
127	128	9
91	91	6
52	52	10
122	123	11
29	30	6
66	69	2
65	68	5
62	63	3
74	89	1
35	36	3
35	35	5
102	113	4
116	118	3
111	116	3
104	104	2
119	120	1
126	126	2
97	97	3
9	11	5
90	95	6
60	60	13
108	109	2
52	54	2
5	5	7
82	82	1
76	78	1
64	86	3
125	126	1
38	43	2
0	1	3
72	72	6
71	71	3
128	128	1
80	82	2
54	55	2
36	36	4
95	95	5
93	103	2
81	98	2
47	47	3
77	118	3
106	132	3
133	133	8
131	133	1
100	107	4
18	18	4
63	63	6
78	123	3
25	26	1
67	68	5
71	72	5
84	85	1
87	92	2
88	88	2
88	94	3
71	126	2
59	59	8
110	110	1
14	14	2
118	119	2
38	86	4
59	72	1
92	93	4
99	99	15
16	16	2
47	50	2
130	130	7
27	27	5
97	98	1
100	101	1
3	3	5
31	31	4
132	132	10
128	129	1
106	111	1
105	109	2
77	78	2
21	22	2
13	24	1
86	87	4
32	35	2
19	19	2
108	108	1
76	90	1
65	94	2
115	115	1
96	97	3
106	107	2
6	6	5
82	110	2
65	65	5
89	90	2
7	27	3
50	50	2
17	18	1
84	133	1
70	70	1
57	58	6
80	106	3
44	44	2
86	86	5
87	91	4
56	57	1
11	14	5
65	67	2
66	100	1
17	17	1
131	132	1
124	124	1
67	69	1
94	95	1
29	29	1
92	116	4
26	26	3
47	55	7
7	8	2
49	50	4
54	54	3
129	129	3
30	98	2
11	23	1
113	119	1
46	46	4
120	120	2
119	119	6
79	79	3
109	109	3
83	84	3
33	100	2
108	110	2
91	92	6
88	126	2
24	25	1
56	56	1
133	134	1
60	63	2
9	13	1
24	24	2
1	2	1
109	111	1
63	126	1
7	7	1
118	130	1
43	45	1
34	34	1
63	99	1
15	15	2
106	108	3
14	15	2
25	25	3
16	36	2
94	94	1
2	2	1
107	111	2
5	11	4
121	123	1
54	59	2
124	125	1
86	125	2
47	93	1
126	128	1
97	101	2
80	105	1
8	10	1
92	120	1
3	13	1
6	8	1
99	107	1
67	78	1
18	121	2
107	107	2
25	92	1
121	121	1
84	108	1
11	11	2
69	70	1
99	101	1
127	127	1
22	36	3
60	61	1
33	33	1
69	97	1
64	67	1
96	96	2
79	125	1
8	9	1
21	21	1
49	49	1
54	58	1
79	85	1
