91	91	15
5	34	3
84	84	6
11	98	4
80	141	3
26	26	13
106	107	3
27	27	9
49	52	1
104	105	5
13	20	5
123	124	4
54	54	25
34	34	18
56	56	12
47	47	19
66	105	3
23	23	26
126	126	12
16	16	10
24	24	12
96	96	3
4	144	1
13	18	3
6	94	1
21	21	14
33	33	6
135	135	18
117	117	12
87	87	9
5	12	2
1	2	2
31	32	5
89	89	7
29	29	13
6	6	9
124	124	31
130	130	14
84	92	4
14	14	11
74	74	16
23	26	1
127	127	17
10	11	4
76	78	1
82	82	10
70	72	4
65	65	15
122	123	8
6	48	1
116	118	3
108	108	1
0	144	8
16	18	1
34	36	1
77	77	19
75	79	4
143	144	2
10	10	18
115	115	5
76	76	21
135	137	4
100	100	10
107	115	2
142	143	2
54	89	3
112	112	12
105	105	18
121	121	16
17	17	20
67	67	12
55	55	12
33	36	4
83	83	2
78	104	1
90	90	15
49	76	5
79	79	8
32	32	9
105	106	6
132	132	23
137	137	9
3	4	14
66	66	6
101	104	3
77	78	10
70	81	1
12	14	5
119	119	15
49	51	2
129	130	5
57	57	5
41	53	1
28	29	1
39	40	9
68	68	2
97	111	8
76	79	1
31	31	10
40	41	9
116	116	12
2	2	10
99	102	1
131	131	12
121	123	5
41	41	6
127	130	2
139	140	3
89	93	3
75	77	2
19	66	8
5	5	5
138	139	4
58	58	7
85	85	12
13	13	5
131	133	6
47	48	3
89	116	1
82	83	2
61	62	4
48	48	11
139	139	15
59	84	1
126	127	4
73	74	3
43	43	5
87	88	7
97	97	7
3	3	6
40	40	14
113	113	5
80	81	6
28	28	12
99	99	14
4	82	2
79	81	2
109	109	21
127	129	4
75	80	3
60	60	4
8	9	3
113	114	1
43	111	3
30	30	18
56	59	3
30	36	3
58	59	7
114	115	7
25	37	1
109	136	3
10	40	2
140	141	6
93	141	1
102	102	21
93	93	8
13	15	4
22	22	13
114	116	3
73	84	2
69	69	27
123	140	1
71	75	2
89	139	1
11	31	2
83	85	3
71	72	9
62	62	13
17	35	4
101	101	5
103	124	2
99	100	7
4	5	5
103	103	13
52	75	2
84	85	2
52	89	3
71	71	21
49	49	15
137	138	4
50	51	9
51	51	14
125	125	13
85	105	1
20	20	9
32	33	6
35	85	3
90	139	2
92	92	5
141	141	13
81	82	3
35	36	7
21	30	6
136	136	17
118	118	21
88	110	2
72	72	6
78	79	2
72	81	1
144	144	11
101	102	7
53	53	10
52	52	13
122	122	17
4	4	22
68	71	3
112	119	2
27	28	4
81	81	8
106	106	8
20	66	2
95	100	4
25	25	9
8	8	12
19	29	3
37	37	17
130	139	3
38	38	11
59	60	5
15	15	10
67	68	1
39	68	3
94	121	2
120	120	4
89	114	4
92	141	1
129	129	20
134	135	6
89	90	10
76	117	2
142	142	6
81	88	5
87	103	1
100	101	6
102	104	1
96	97	4
42	42	8
113	117	3
58	68	3
108	120	6
39	39	6
58	65	1
123	123	9
124	125	4
119	120	5
47	50	2
36	92	2
64	64	5
91	94	2
99	113	3
76	77	2
133	133	18
61	61	7
111	111	5
56	57	6
70	70	11
140	142	4
104	104	10
108	137	2
140	140	13
11	23	2
36	82	4
86	105	1
39	89	1
118	120	2
143	143	12
13	43	3
48	95	5
47	52	1
98	105	2
89	96	3
77	121	1
133	140	2
110	138	2
4	79	1
83	84	3
26	27	5
48	93	3
41	42	3
63	65	5
125	126	9
80	80	13
87	139	2
60	85	4
56	70	6
128	128	14
109	120	1
74	75	2
102	103	3
97	98	3
138	140	1
18	18	5
71	82	3
94	94	5
57	104	2
5	35	3
107	107	10
138	138	15
141	142	3
37	38	1
133	134	5
1	141	1
75	75	10
76	81	2
105	107	5
63	63	5
140	143	1
95	95	8
18	19	4
135	136	4
136	139	6
51	52	5
21	22	2
15	16	1
60	84	7
84	91	1
84	86	4
36	36	9
23	24	3
134	137	1
60	63	3
134	134	11
19	21	1
10	23	1
108	118	4
73	83	3
131	132	3
3	123	1
59	61	4
3	10	3
52	53	1
19	19	8
53	54	5
127	132	5
139	142	2
19	22	1
136	137	5
38	39	1
56	64	2
118	119	6
110	137	1
17	18	2
98	98	11
134	140	1
19	39	2
73	73	4
53	79	1
31	33	2
100	102	2
97	121	4
9	55	1
20	113	2
12	12	2
33	38	1
9	10	6
11	11	5
39	50	1
126	129	1
48	90	1
104	126	2
136	138	4
22	37	2
18	54	3
9	52	2
130	131	1
82	87	1
35	35	4
1	1	5
144	145	2
91	123	1
81	86	2
14	16	3
2	3	5
91	92	3
50	52	1
133	138	5
13	60	2
58	61	3
86	87	9
13	14	4
70	71	6
33	61	1
121	146	3
78	92	1
93	94	4
42	75	1
120	124	2
86	90	5
76	119	1
0	0	1
127	141	3
87	90	3
145	145	6
107	108	6
84	97	3
39	41	4
110	117	2
5	91	1
63	68	2
75	78	3
86	103	2
139	141	4
124	142	1
11	38	1
119	121	1
78	78	7
53	66	1
126	128	2
109	110	6
92	93	1
0	9	1
127	137	1
113	115	4
61	66	1
48	111	3
52	76	3
115	117	4
5	36	1
20	33	2
33	85	1
1	132	2
117	118	2
109	112	1
26	38	1
71	74	1
116	120	6
42	49	1
106	127	1
57	75	1
11	33	3
34	65	4
15	124	3
106	136	5
127	131	2
39	65	1
5	32	1
127	144	1
40	66	1
92	94	2
27	29	2
21	38	1
75	114	1
73	75	3
54	64	1
107	109	3
35	57	3
63	103	2
97	139	1
114	114	5
37	76	2
121	126	3
10	20	1
20	26	2
34	35	7
64	105	2
56	79	3
121	128	2
126	130	2
6	8	2
5	10	2
12	13	4
54	63	1
20	21	1
20	22	2
50	53	1
26	66	3
63	88	1
104	106	2
22	26	1
22	23	2
69	95	1
38	67	2
2	4	3
81	87	1
57	88	1
109	115	2
119	122	2
128	131	1
56	62	1
116	117	1
6	33	1
135	139	1
129	134	3
28	97	4
39	66	4
73	82	2
109	118	2
92	133	2
30	31	1
14	15	2
0	1	3
65	66	2
12	20	2
8	10	1
94	95	1
128	130	2
133	143	1
61	103	1
23	33	2
29	98	3
81	103	2
57	58	2
36	37	2
132	133	1
18	26	1
41	75	1
67	74	2
21	25	1
26	29	1
90	102	3
39	100	1
112	113	1
90	136	1
85	108	1
146	146	1
51	53	3
96	105	1
112	117	1
64	66	1
30	33	1
58	67	2
3	117	1
92	134	2
64	65	2
27	38	1
74	84	1
13	16	2
67	69	2
25	27	1
115	116	2
123	131	1
110	135	1
97	110	1
88	89	1
107	110	2
24	25	5
34	57	1
50	50	1
47	53	1
96	140	1
12	16	2
51	90	1
87	89	1
9	9	1
128	143	1
36	38	1
120	121	1
20	34	2
127	128	1
83	86	1
109	113	2
98	99	2
110	110	3
53	82	1
119	141	1
70	82	1
69	71	1
111	118	1
65	82	1
104	108	1
111	112	2
74	79	1
110	116	2
137	139	1
79	103	1
38	41	1
132	134	1
109	116	1
35	37	1
68	74	1
121	122	1
90	91	1
125	131	1
42	43	1
72	83	1
55	56	1
17	19	1
5	6	1
80	140	1
14	18	1
91	96	1
118	143	1
69	70	2
3	97	1
27	117	1
101	115	2
72	141	1
63	90	1
38	40	1
134	138	1
79	80	1
99	101	1
