35	35	9
79	79	17
77	77	6
132	132	10
15	30	12
12	12	22
26	26	19
126	127	5
97	97	18
13	13	7
11	11	21
66	66	8
121	121	6
35	73	3
47	47	22
65	65	10
36	36	12
5	93	8
46	46	16
94	96	1
46	61	6
128	128	11
82	82	11
39	40	9
59	60	9
118	125	3
108	109	4
23	23	1
10	10	13
30	59	1
51	69	2
10	29	1
64	64	3
88	88	8
68	68	11
6	8	2
110	110	10
124	124	6
92	92	7
134	134	13
7	7	16
17	17	12
71	71	10
1	46	1
26	32	6
19	19	15
77	78	5
86	86	13
76	76	6
63	63	6
93	93	16
25	25	15
78	78	9
90	92	1
79	80	7
61	80	2
42	42	7
99	99	9
133	133	5
103	105	4
14	121	3
113	113	8
79	81	3
106	106	3
24	43	5
74	74	15
120	120	5
43	43	14
95	102	2
5	90	3
66	67	7
70	70	9
72	73	2
4	60	3
84	84	6
33	33	7
123	124	9
103	104	4
29	29	8
12	24	3
117	126	6
90	90	25
10	47	3
6	7	5
104	104	15
20	20	6
9	9	13
31	60	8
56	56	4
37	38	4
117	117	6
126	126	3
56	57	1
45	61	4
22	22	7
81	124	3
8	8	7
114	114	7
127	133	1
112	113	4
99	100	1
16	30	3
7	95	5
125	125	10
87	100	2
28	122	1
74	77	8
62	93	6
31	34	1
73	74	3
95	96	3
27	27	6
2	2	7
5	58	1
118	118	3
32	103	1
1	1	2
57	57	6
44	44	8
47	60	5
21	48	1
18	71	6
85	85	12
6	6	7
6	66	6
4	4	4
123	126	1
62	63	4
28	28	8
12	42	3
13	44	5
122	122	21
69	69	12
54	55	6
98	98	23
87	87	4
131	131	7
75	76	3
119	119	9
101	101	15
108	108	3
90	112	11
93	94	9
59	59	7
15	15	7
5	49	4
19	64	4
83	83	6
102	109	6
51	55	3
131	132	3
72	72	12
20	23	5
96	116	2
111	111	5
45	46	1
34	77	5
108	112	3
115	116	2
107	107	7
32	32	10
96	130	4
31	31	3
130	130	6
30	30	16
67	67	5
9	10	10
45	45	10
73	73	4
95	95	5
101	102	1
40	44	1
20	22	7
40	41	1
16	19	4
50	50	7
14	14	5
41	41	4
113	123	2
26	80	1
109	113	2
96	97	6
17	18	4
84	101	1
5	5	21
35	36	4
31	32	2
28	119	2
46	62	1
94	95	4
13	46	3
69	72	4
81	88	2
10	130	5
96	96	8
33	34	8
16	16	8
100	100	12
7	79	3
18	18	18
96	104	4
37	37	4
57	58	5
77	113	3
10	11	7
94	94	5
103	111	5
38	38	3
24	26	2
65	66	3
15	21	3
113	134	3
109	109	3
71	106	1
0	0	5
29	121	1
115	115	5
131	133	1
123	123	5
78	79	8
121	128	5
113	117	1
61	61	7
129	129	5
8	76	3
32	59	3
32	60	4
105	108	1
113	115	1
10	129	1
15	16	8
34	116	2
88	94	2
27	92	1
26	29	1
19	28	2
14	18	2
81	81	8
62	62	5
80	80	3
34	34	13
103	103	7
17	71	1
75	75	6
15	51	3
60	60	4
58	58	6
62	68	4
85	86	1
70	71	5
28	29	3
117	133	1
50	51	1
112	115	1
15	17	2
23	74	3
83	97	1
130	131	1
108	131	1
1	35	2
85	96	3
69	75	2
44	116	1
22	31	3
51	51	2
2	88	3
116	116	10
91	92	2
76	107	2
48	48	3
61	85	1
41	42	5
29	78	2
22	43	1
101	108	2
63	64	2
125	126	1
14	19	1
67	119	2
103	130	2
122	123	4
107	111	3
6	57	5
55	56	1
91	132	1
40	42	4
17	46	2
13	17	1
18	21	1
84	85	3
21	21	8
30	58	1
91	93	2
87	106	1
97	98	1
27	83	2
102	102	3
40	40	2
21	31	4
48	94	2
19	41	2
8	57	3
32	35	1
128	129	4
34	35	6
29	62	1
12	13	2
61	77	1
42	69	1
37	62	1
61	86	2
116	128	1
9	32	2
16	56	1
41	45	2
31	78	2
17	45	4
92	133	1
86	102	3
38	39	2
48	86	1
63	91	1
3	60	1
127	128	5
109	130	2
44	78	1
105	105	1
33	59	4
13	14	2
119	123	1
44	114	6
31	79	2
27	28	2
119	122	2
33	80	1
20	30	1
120	121	1
103	106	1
45	134	1
12	74	1
44	77	1
107	131	1
63	133	2
33	103	1
27	29	1
18	81	1
68	74	1
65	76	2
127	127	2
24	25	5
20	84	3
89	89	2
92	93	1
14	23	2
116	129	1
47	62	1
8	129	1
27	98	1
35	67	1
23	24	1
24	24	2
83	84	3
58	59	1
130	134	1
3	3	1
81	82	2
98	111	2
12	72	2
43	45	1
26	27	1
36	102	1
6	13	2
117	130	1
74	102	1
87	101	1
93	98	1
89	92	1
62	67	1
19	45	1
15	55	1
121	122	1
4	93	2
6	60	1
38	49	1
38	48	1
21	22	1
59	90	1
98	100	1
39	39	1
11	93	1
24	74	1
42	43	1
132	133	1
17	81	1
88	99	1
29	49	2
79	82	1
102	110	1
75	100	2
114	118	1
88	103	1
20	34	1
55	55	1
15	22	1
30	31	1
