39	39	4
8	11	3
114	115	2
6	6	11
50	50	5
23	24	4
38	52	4
44	44	6
119	119	14
99	99	13
104	126	2
37	54	1
109	109	12
81	82	2
136	136	12
144	153	3
96	97	6
30	31	6
75	106	2
141	153	2
85	85	13
78	78	14
119	121	2
143	143	8
89	89	9
142	142	12
76	77	3
122	147	4
112	123	4
94	109	1
64	64	5
26	26	17
152	154	3
12	12	5
137	137	13
40	135	1
87	87	8
109	110	7
112	112	7
133	133	15
86	86	12
152	152	10
34	34	11
14	15	2
108	138	1
22	23	6
6	35	1
112	127	2
114	114	3
9	9	6
10	48	2
105	105	11
21	21	6
20	122	3
12	31	2
98	98	22
35	35	10
71	71	5
48	49	6
55	56	3
30	30	6
106	106	12
3	135	3
2	2	8
45	46	2
8	12	3
36	54	3
27	27	11
61	154	2
80	156	1
79	88	4
90	111	3
16	30	2
4	4	10
83	83	9
95	95	11
124	124	8
75	117	1
70	70	5
83	90	5
54	98	1
80	80	14
32	32	10
104	108	2
41	49	3
15	15	20
125	142	1
75	76	3
32	63	3
47	49	2
69	70	6
57	62	3
145	149	1
40	40	8
32	55	2
42	48	3
139	139	13
148	155	3
13	13	7
141	141	8
33	35	3
13	14	7
31	52	1
100	100	9
104	123	4
118	120	2
84	84	16
81	81	5
127	127	1
135	135	5
18	18	8
13	76	1
22	92	3
22	22	14
75	107	2
129	130	5
144	145	8
122	122	2
19	20	13
45	45	7
19	21	3
93	93	7
50	51	4
84	86	2
25	25	14
108	111	3
20	20	15
5	5	5
118	119	2
23	23	11
18	19	8
79	152	1
15	17	3
68	69	4
113	119	2
128	128	13
111	123	2
36	37	5
57	57	7
10	10	13
108	118	1
131	131	9
16	17	3
154	154	4
145	146	3
150	150	7
26	27	1
42	42	14
73	73	2
146	147	6
66	90	1
33	33	12
155	155	13
24	27	3
85	86	3
82	82	12
85	139	2
157	157	6
12	13	2
20	119	2
155	156	4
53	98	4
26	28	1
113	114	2
90	90	10
88	88	11
21	82	3
120	121	6
96	96	6
127	146	3
70	71	1
107	107	5
55	55	15
79	79	3
25	117	2
77	77	9
126	126	5
8	8	12
125	126	10
101	101	5
103	122	5
122	136	3
102	102	3
113	113	12
82	131	2
10	18	1
47	47	15
77	79	2
92	92	6
68	71	1
3	4	5
94	95	2
129	129	11
125	125	11
145	145	4
67	67	6
121	121	3
117	117	2
15	16	4
9	54	1
83	85	2
146	146	11
119	120	5
104	104	12
28	28	3
33	97	1
40	41	6
19	19	9
38	38	12
123	142	2
94	94	16
112	113	5
132	132	7
52	52	9
82	125	2
46	47	6
130	130	10
80	81	6
30	56	1
144	144	7
68	68	6
68	70	1
67	68	3
66	66	5
52	54	7
107	108	2
100	105	2
92	137	3
47	48	1
115	116	3
40	48	1
29	29	7
12	15	2
156	158	5
50	63	2
119	144	1
124	125	4
79	80	2
89	153	4
116	116	10
12	14	2
97	97	4
13	46	2
48	50	1
95	158	2
156	156	4
113	115	4
52	53	11
118	118	8
147	148	6
116	117	1
105	155	2
24	25	3
92	131	2
67	155	1
4	124	1
93	94	3
4	13	4
103	103	12
63	67	2
82	104	1
49	49	5
99	101	2
79	86	1
24	24	5
121	148	2
75	75	4
1	1	13
147	147	7
54	54	8
92	129	2
110	110	6
138	138	8
8	17	6
140	141	6
13	97	2
124	127	1
72	72	5
91	118	2
106	107	5
41	41	3
123	123	7
7	7	4
20	21	4
102	142	1
79	82	4
46	46	9
41	43	1
79	148	3
91	132	2
40	68	2
115	115	16
77	117	4
115	138	3
94	158	2
149	150	2
11	13	1
92	93	5
148	148	6
20	82	1
17	18	1
49	118	5
122	137	3
151	151	3
108	110	4
14	16	1
69	69	11
126	127	2
107	120	3
138	139	3
109	113	4
14	21	6
91	117	1
69	118	3
115	118	5
139	151	1
11	15	4
123	124	2
34	35	1
51	159	1
134	134	3
153	153	3
83	84	2
27	28	5
36	51	3
3	5	4
158	158	4
98	130	2
1	38	3
21	22	2
77	78	3
91	112	2
51	51	3
76	76	1
153	154	4
32	69	1
67	71	5
108	108	3
10	13	2
16	16	7
98	99	1
103	104	3
119	142	2
80	140	1
3	3	7
21	110	5
71	72	1
4	5	2
1	2	2
88	89	5
41	65	2
145	147	3
90	91	5
61	153	1
103	110	1
140	140	4
95	96	3
41	117	2
30	96	2
147	149	2
35	99	1
139	141	1
144	146	2
69	79	2
11	11	9
84	89	3
136	137	4
134	137	1
77	152	1
9	37	1
111	119	2
68	119	2
142	147	1
37	37	3
156	157	2
91	92	3
42	120	2
7	8	1
43	48	2
117	135	1
16	22	6
31	31	1
120	154	2
91	91	2
3	32	1
32	42	2
69	146	1
108	121	2
53	56	4
81	130	2
4	127	3
14	14	5
17	17	5
9	14	2
47	51	1
0	46	2
23	92	1
37	38	4
134	135	1
29	108	1
112	122	3
3	16	1
49	113	1
31	48	2
104	127	2
80	123	2
10	52	1
48	48	3
106	150	2
135	136	3
97	129	1
43	43	3
35	158	2
120	120	5
74	100	1
0	0	4
41	42	3
9	10	1
25	26	2
107	157	1
9	31	2
108	112	1
99	106	2
0	138	1
36	36	3
91	107	1
148	149	1
31	32	3
19	22	1
68	155	1
8	31	1
126	141	2
90	112	1
101	129	2
65	65	7
97	99	2
40	42	3
44	47	1
77	100	2
100	101	4
43	157	3
114	135	1
107	110	1
35	55	1
16	20	2
35	100	2
20	157	2
76	141	3
113	137	5
77	141	1
113	117	4
152	153	3
111	111	3
99	100	1
54	55	1
93	133	1
48	54	1
94	134	1
16	18	1
16	19	1
66	111	2
34	157	2
41	48	3
111	112	1
27	38	1
73	75	1
94	128	1
139	150	1
106	151	2
87	89	2
82	106	1
22	44	1
4	7	2
10	11	1
13	21	1
49	54	1
54	110	1
86	136	1
50	118	1
131	134	2
81	85	2
111	122	3
65	66	1
96	158	2
25	98	1
43	45	3
40	66	1
102	148	1
5	6	2
149	149	5
103	140	1
131	132	1
4	30	1
125	135	2
132	133	1
2	45	1
141	147	1
123	137	1
142	144	1
63	63	3
16	32	1
78	89	1
76	120	1
20	88	2
4	138	1
80	82	1
79	147	1
56	56	1
17	33	1
112	120	1
20	49	1
139	152	1
82	123	1
18	53	1
105	107	1
127	138	1
133	134	1
137	138	4
126	155	1
118	137	2
62	69	1
108	157	1
32	33	1
19	158	1
140	147	2
9	11	2
118	154	1
13	35	1
122	149	1
77	142	1
87	90	1
73	92	1
39	46	1
149	152	1
