68	69	7
97	98	9
97	99	7
74	74	20
58	58	16
57	57	7
103	103	20
58	90	1
86	87	5
39	67	3
73	73	18
101	102	4
75	75	17
59	92	1
31	32	5
89	89	15
90	90	6
83	85	1
77	77	4
63	63	15
96	97	7
43	43	12
83	84	14
22	22	18
54	54	10
38	40	1
72	72	9
101	101	7
22	23	7
79	79	34
105	105	12
64	64	23
94	94	32
96	96	24
79	81	6
38	38	9
78	78	11
55	56	4
69	69	9
91	91	8
45	46	1
39	39	14
104	104	19
49	49	13
87	87	12
46	67	3
65	92	3
37	37	19
95	95	9
61	62	6
20	20	5
67	67	23
56	56	4
24	24	14
84	85	5
55	55	6
99	106	4
71	72	8
35	35	25
61	61	19
40	40	7
76	76	5
88	94	1
58	59	5
36	36	7
47	47	11
93	93	13
28	31	6
100	100	7
33	34	4
52	52	9
55	69	7
65	66	5
71	71	10
59	59	14
66	66	4
99	99	22
33	33	10
46	46	15
65	65	20
28	28	12
92	92	19
39	40	3
102	102	9
26	27	8
57	72	3
83	88	3
27	27	6
36	37	12
53	67	5
95	97	4
50	50	10
68	68	12
41	41	5
98	99	4
83	83	14
97	97	10
44	49	2
72	81	6
98	98	5
81	100	6
68	78	1
47	49	2
21	21	15
25	25	11
90	92	2
32	36	2
35	105	4
20	24	3
22	48	1
103	104	1
28	29	4
21	46	1
85	85	15
34	34	11
71	73	5
20	45	5
62	62	6
70	70	6
42	42	11
60	61	4
20	29	2
89	96	2
82	82	9
92	94	4
89	90	2
41	42	1
85	89	3
63	64	4
32	33	4
23	43	1
25	27	3
78	80	2
67	68	1
73	74	5
54	55	2
27	28	5
54	78	1
38	45	2
95	96	2
21	22	4
50	68	1
69	104	4
36	66	4
83	90	3
80	81	2
40	41	1
60	82	2
86	102	1
53	54	7
100	101	2
74	75	4
23	23	10
99	100	1
55	70	2
82	83	1
57	58	4
86	86	1
61	82	1
37	39	2
60	60	11
83	106	2
92	93	3
100	102	1
32	32	10
94	95	2
76	78	1
44	45	1
44	44	3
20	50	5
53	78	3
53	53	5
84	84	3
71	81	1
81	94	1
38	39	3
31	31	7
25	26	3
26	46	2
31	35	4
33	45	2
52	80	1
88	97	2
85	86	5
49	67	2
38	44	1
30	30	5
88	88	6
29	29	4
51	52	4
48	49	9
106	106	1
29	46	3
87	89	2
40	46	1
51	51	2
96	106	3
77	81	1
48	48	1
92	99	3
77	78	1
39	42	2
45	45	3
94	106	2
78	79	1
102	103	4
107	107	7
56	72	1
93	95	5
94	97	1
20	74	1
49	50	1
55	75	4
61	92	3
21	23	1
43	45	1
26	26	3
81	81	4
35	36	2
52	81	1
85	102	2
98	101	2
51	76	1
21	34	2
98	102	2
70	79	2
74	103	1
76	77	3
39	41	2
82	94	1
88	89	2
37	65	3
80	80	1
79	80	2
52	56	1
43	44	1
69	78	2
36	43	2
59	60	1
92	98	1
55	72	1
56	57	1
67	70	1
64	65	1
