112	112	11
59	59	7
66	66	8
119	120	15
126	126	4
143	143	18
169	169	14
25	39	3
8	42	2
14	15	7
160	160	11
83	99	3
140	140	12
156	156	10
105	105	10
171	171	3
92	92	17
16	70	3
39	41	8
57	57	10
97	98	4
34	34	9
142	144	1
182	183	2
160	161	8
10	11	2
26	26	10
17	72	1
172	173	5
47	47	15
63	64	6
167	167	6
32	32	10
118	118	10
11	11	21
60	60	3
111	111	13
109	121	4
109	109	14
38	38	7
129	129	4
74	76	1
117	117	3
28	36	1
115	146	2
103	103	9
99	104	4
21	21	11
22	22	6
136	139	2
47	49	3
110	110	16
104	104	20
60	113	5
86	86	6
8	14	1
97	97	22
25	26	5
46	46	7
142	142	9
125	128	3
166	166	6
21	22	8
131	133	5
68	68	9
75	75	10
148	148	8
48	48	14
169	170	5
40	40	10
98	98	11
170	170	13
55	55	17
124	124	14
64	65	2
77	77	10
65	68	2
163	163	1
76	76	10
130	153	9
171	172	14
28	29	10
42	56	4
121	121	12
30	31	2
18	18	11
149	149	10
154	154	9
93	96	1
42	42	12
56	57	6
55	56	6
29	29	8
114	114	17
155	156	7
27	27	15
5	5	6
71	71	3
142	143	5
32	34	3
7	7	17
0	0	7
41	41	11
164	171	5
151	151	14
117	121	5
152	152	12
14	14	12
145	146	5
54	54	13
102	102	6
151	178	3
136	137	5
64	64	21
73	73	17
95	95	12
85	86	7
29	32	3
101	101	7
63	63	7
63	65	7
95	96	6
13	13	11
27	172	3
186	186	6
42	43	3
24	24	5
125	126	7
67	68	4
82	82	8
156	163	3
36	36	8
23	24	4
47	48	1
83	83	6
176	176	3
74	75	1
157	157	11
178	180	5
141	141	16
88	132	1
115	115	9
62	64	7
70	71	8
54	55	6
58	58	4
181	181	7
183	183	13
18	19	5
109	110	9
65	104	2
57	79	1
131	131	4
12	12	7
175	175	13
12	13	6
79	79	7
15	16	4
35	35	6
127	128	11
177	177	13
44	53	1
55	57	1
91	94	3
167	168	8
2	2	18
15	17	1
162	163	2
139	139	9
31	34	2
17	18	10
154	155	3
123	123	18
41	152	2
13	15	1
6	6	3
15	72	3
132	134	3
117	118	7
140	141	11
10	15	2
180	180	6
120	120	5
129	130	4
157	162	3
184	185	3
128	128	6
85	85	13
67	67	7
10	72	1
4	4	8
130	131	8
99	99	7
36	56	3
106	133	3
8	8	5
174	174	8
89	89	7
113	113	7
0	1	3
43	44	6
111	156	2
119	119	7
154	178	2
146	146	8
9	9	2
102	103	5
106	106	6
128	129	5
168	169	5
132	133	2
150	150	3
44	125	3
153	154	1
72	72	8
96	96	14
44	44	14
88	89	3
141	143	8
40	41	6
98	134	1
148	154	1
13	14	2
89	90	11
90	90	5
39	40	6
74	74	6
65	65	7
108	108	8
133	135	1
93	94	1
173	173	4
137	137	8
37	42	6
43	43	13
62	106	2
133	133	6
133	138	3
7	28	1
61	61	10
87	88	2
66	104	6
48	69	8
121	123	2
10	10	6
179	179	8
37	37	4
30	30	3
118	120	1
72	73	1
107	107	13
121	122	5
187	187	3
10	12	1
127	127	2
29	30	3
134	134	16
34	36	4
46	151	5
101	102	6
138	143	2
17	17	7
14	72	1
37	43	1
0	4	6
130	145	1
88	88	9
16	72	2
89	134	1
125	125	8
10	73	5
80	80	7
26	27	6
28	28	2
40	152	4
190	190	14
93	93	5
145	157	1
52	53	4
130	130	19
27	65	2
153	153	10
45	126	6
77	78	5
165	165	4
175	176	6
54	82	5
80	85	5
172	172	6
150	151	1
171	178	3
135	136	3
98	99	1
19	19	5
86	89	3
136	136	3
45	46	3
128	150	2
116	116	12
54	64	2
78	78	5
84	85	4
189	189	12
154	172	2
143	144	1
165	172	1
122	149	4
185	185	2
155	155	2
146	190	6
138	138	7
125	154	5
110	158	2
59	60	4
15	15	17
188	188	3
164	165	3
62	62	9
141	142	1
146	151	3
23	23	4
182	182	2
33	35	1
171	173	1
144	144	1
97	102	2
94	94	3
131	145	1
68	73	2
8	11	4
21	23	2
181	182	3
20	20	2
149	150	5
171	174	2
40	65	3
111	123	2
135	135	5
79	80	1
78	79	3
162	162	7
84	84	3
130	132	1
19	129	3
53	53	7
56	56	11
128	136	2
179	180	2
34	37	2
168	168	8
146	147	3
32	80	4
16	46	4
33	37	3
56	75	1
147	163	1
29	33	3
158	158	3
138	139	5
188	189	5
97	99	4
149	163	1
113	140	1
144	145	1
101	170	1
31	31	6
30	32	4
131	132	1
39	39	3
107	108	5
124	135	1
122	123	1
132	132	4
166	167	5
4	6	2
32	79	2
53	58	3
72	105	1
77	79	1
173	174	2
182	184	1
24	171	4
85	97	1
58	64	2
22	82	2
186	187	4
14	73	1
33	33	3
130	135	1
114	133	4
157	158	2
59	63	3
145	145	4
14	54	2
159	161	4
88	95	1
73	157	1
23	25	1
68	112	2
100	101	1
16	16	4
91	92	4
120	121	3
94	95	9
122	122	5
13	16	2
164	164	6
69	69	3
174	177	2
126	182	2
149	176	2
158	161	2
58	60	4
95	97	1
61	62	1
106	166	1
106	107	2
111	112	1
14	17	1
161	163	5
71	75	1
106	108	3
26	39	3
173	184	2
81	82	1
55	58	2
184	184	5
154	163	1
146	148	1
80	81	1
1	1	1
7	8	2
121	161	2
178	178	3
104	105	1
178	179	3
81	96	1
174	184	3
162	166	1
30	183	1
42	44	1
120	122	3
34	35	2
149	187	1
121	149	2
64	113	1
36	76	2
120	124	1
90	97	2
54	57	2
153	155	1
24	175	1
25	171	1
36	37	2
174	175	1
20	104	1
92	93	2
25	41	1
74	77	2
42	183	1
3	3	2
27	30	3
20	21	1
62	63	2
27	28	2
156	158	1
48	49	1
147	147	1
135	139	2
44	180	1
8	86	1
90	91	3
96	98	2
151	152	1
30	35	1
76	77	1
185	186	2
34	38	1
75	76	3
27	29	1
66	67	3
85	103	2
113	114	1
123	141	1
71	72	1
69	70	3
155	178	1
46	150	1
61	63	1
12	16	1
179	181	1
113	146	2
8	91	1
161	175	3
26	173	2
169	178	1
30	41	1
163	165	1
32	35	1
145	156	1
38	137	1
165	166	2
164	172	1
91	96	1
49	49	1
23	167	1
18	20	1
134	136	2
86	87	2
179	184	1
161	162	1
54	114	1
160	163	1
2	3	1
96	97	1
1	6	1
13	73	1
70	104	1
187	188	1
33	34	2
55	83	1
99	103	2
7	85	1
75	108	1
157	161	1
70	70	1
13	17	1
168	170	1
