7	8	7
79	79	20
41	42	9
71	71	21
76	76	35
56	56	26
67	68	8
73	73	15
11	11	31
70	75	2
36	36	14
8	8	24
53	53	26
1	1	18
40	40	26
29	40	1
78	78	27
66	69	9
38	38	13
48	48	19
75	75	14
63	63	6
2	3	4
29	29	22
51	51	13
16	16	18
46	46	33
30	35	10
12	31	9
27	28	15
37	37	19
10	10	16
12	13	8
35	35	23
63	65	7
19	20	17
1	2	5
64	64	23
7	7	21
62	62	13
68	69	13
58	59	1
43	43	19
6	6	16
30	30	5
56	57	2
33	33	11
63	64	11
14	14	13
3	3	10
0	1	7
26	26	33
49	49	7
34	34	13
42	43	6
45	46	3
52	53	4
31	31	20
42	42	27
10	21	2
70	71	8
49	51	5
39	40	4
79	80	7
34	35	6
11	31	5
0	0	25
52	72	2
39	39	21
4	4	26
41	41	33
54	54	22
51	53	6
16	17	4
66	66	11
45	45	9
30	34	4
55	55	37
32	32	28
25	25	15
12	32	1
54	55	15
50	50	18
2	2	7
19	19	17
9	9	13
80	80	30
64	76	8
38	39	8
67	67	2
57	57	15
68	68	12
72	72	19
53	54	12
47	47	21
65	65	19
6	8	2
59	59	15
45	48	4
12	12	11
33	34	10
67	71	1
74	74	21
27	27	24
58	58	9
52	52	14
6	7	2
32	33	2
62	78	5
49	52	4
17	17	19
20	21	4
5	5	14
22	22	2
71	74	4
20	20	13
77	77	9
65	66	4
14	15	1
28	28	17
63	75	4
15	15	4
4	5	6
7	37	2
10	12	2
49	50	6
81	81	6
62	63	6
59	61	5
61	61	14
37	38	6
7	20	5
73	74	5
60	60	7
71	72	10
18	18	6
2	5	1
14	25	1
28	29	5
50	51	2
11	12	8
52	69	3
63	77	1
19	37	1
36	37	5
62	77	1
13	20	5
12	25	3
70	70	15
2	6	2
69	69	14
75	76	4
13	14	5
56	66	1
60	61	4
80	81	2
19	21	5
8	72	5
50	69	6
10	11	13
31	32	7
69	70	6
77	78	5
12	20	3
66	67	6
30	31	5
58	63	3
34	47	2
51	71	1
65	75	4
8	75	3
26	28	5
72	73	2
15	25	2
11	21	4
6	10	2
35	46	2
25	33	5
50	52	3
13	13	12
16	18	1
57	58	4
64	65	3
42	74	2
1	79	2
5	21	1
72	75	1
30	33	2
5	6	10
9	21	1
39	57	2
44	44	4
4	6	2
0	61	3
29	30	4
29	31	1
17	49	1
31	33	4
8	73	1
35	45	1
7	77	2
45	61	3
21	21	1
59	60	8
8	64	2
47	48	3
9	10	4
3	4	2
20	37	3
61	62	1
14	19	3
46	56	1
36	44	2
68	71	1
54	69	2
72	76	2
28	57	1
52	54	3
54	66	1
15	33	2
76	77	1
8	9	1
51	69	2
10	26	1
2	4	3
26	33	2
50	68	2
49	67	2
55	56	1
35	36	1
20	59	4
4	16	3
30	32	1
46	47	1
0	78	3
6	76	1
4	17	1
13	32	1
74	75	1
65	67	1
53	70	1
27	33	1
53	69	2
64	77	1
78	79	1
51	72	1
8	71	1
12	15	1
32	34	1
32	35	1
54	80	1
7	79	1
38	40	1
18	20	1
17	29	1
7	9	1
49	53	1
70	72	1
48	49	1
4	20	1
0	79	1
