145	146	3
143	143	5
151	151	7
2	2	8
77	81	6
86	112	4
73	73	10
71	71	10
12	82	2
120	120	8
137	138	3
15	15	10
36	36	10
67	69	2
139	140	3
9	48	2
111	127	2
107	109	2
68	68	6
82	83	5
17	17	4
136	136	11
10	14	3
44	44	8
1	1	3
93	93	6
27	30	5
131	133	7
76	76	3
116	116	6
153	154	3
122	122	2
18	121	2
87	97	3
150	150	4
80	80	4
110	112	3
67	85	1
91	121	1
8	8	3
79	81	7
84	84	3
38	38	6
8	30	4
101	138	2
146	146	9
52	86	1
91	117	4
64	65	2
87	87	5
20	20	3
156	156	2
42	61	4
31	39	2
120	121	1
93	129	5
110	111	2
98	98	3
155	156	5
111	120	3
31	48	1
95	95	15
51	96	2
84	85	3
89	122	3
95	96	6
130	130	6
139	142	1
22	22	5
24	24	4
32	32	6
100	100	9
155	155	7
123	124	3
18	18	3
145	145	3
136	137	5
137	137	2
86	86	1
18	20	1
39	42	1
70	70	8
47	47	1
48	53	1
29	29	1
148	148	3
12	12	4
127	132	1
126	126	10
23	23	3
26	35	2
106	107	1
36	38	2
64	64	4
145	147	4
43	43	8
71	146	1
30	31	1
127	127	5
11	19	3
99	99	4
49	51	5
115	115	9
119	119	2
119	122	3
140	141	5
42	43	4
34	45	3
132	147	2
51	71	1
65	65	1
4	4	3
66	66	1
91	91	2
83	83	10
118	119	2
69	69	3
55	55	2
95	119	3
28	31	4
124	124	3
11	18	1
120	128	4
6	6	5
140	140	2
117	117	11
125	125	7
33	36	2
114	115	2
89	89	2
22	57	5
15	123	1
158	158	1
133	134	2
21	125	1
3	3	5
107	107	3
147	147	3
133	139	1
5	5	5
126	132	2
123	155	2
96	117	6
46	46	3
26	90	5
80	81	4
28	28	2
10	49	3
49	56	1
105	114	3
103	135	1
142	142	3
49	49	6
14	48	1
63	121	3
25	25	3
138	138	1
85	85	1
118	120	3
48	54	3
129	129	8
11	11	3
54	54	1
136	138	4
17	38	3
34	52	3
38	40	3
35	35	2
149	149	2
94	95	1
62	69	1
36	37	3
105	105	2
110	131	1
104	104	2
77	153	1
22	64	1
114	114	1
13	14	2
103	104	2
4	5	1
17	23	1
77	88	1
63	70	2
92	107	3
54	95	2
94	94	6
106	106	2
23	24	1
51	57	4
86	118	1
67	71	2
62	63	1
33	33	1
33	67	2
158	159	1
108	126	4
100	101	1
50	50	4
0	0	2
41	43	1
120	157	2
81	81	4
77	78	4
121	121	2
40	43	2
141	141	3
84	149	2
109	110	1
128	128	10
21	21	3
68	153	2
137	139	2
48	49	2
75	75	4
26	89	3
97	107	2
121	141	2
118	123	1
13	53	1
79	80	2
72	72	3
33	34	1
134	134	4
139	141	2
70	134	2
41	41	4
97	101	1
41	42	3
78	82	3
118	118	4
104	107	2
69	122	2
129	137	2
110	120	1
155	157	2
44	47	1
46	76	1
101	101	2
32	62	2
36	92	1
34	34	3
82	82	2
4	41	3
157	157	1
38	53	1
144	145	2
77	77	1
75	109	3
44	64	2
39	39	2
67	67	1
132	132	4
119	121	3
78	88	1
31	31	5
132	152	1
47	48	1
90	91	1
96	96	1
146	147	1
130	131	1
22	25	1
13	50	2
38	39	1
108	133	4
66	123	1
112	112	3
93	132	2
92	92	2
12	13	1
105	106	1
63	63	1
46	83	1
3	41	2
67	83	2
78	78	1
51	53	1
13	45	1
85	132	1
98	114	2
108	112	1
133	136	1
76	148	1
94	103	1
16	96	1
118	146	1
97	97	3
87	88	4
10	10	2
13	55	1
30	33	2
107	126	1
151	154	1
43	44	1
80	82	1
91	150	2
83	84	2
50	51	1
152	152	1
31	51	1
70	152	2
8	49	1
85	86	1
90	103	1
129	138	1
104	141	1
11	12	1
30	30	1
16	50	1
87	93	1
111	135	1
126	127	1
