111	111	18
65	65	10
53	54	8
52	52	7
5	5	6
10	11	7
117	127	3
97	131	2
59	59	5
62	64	1
122	122	8
11	11	8
107	109	4
33	33	15
90	90	10
79	80	2
110	110	9
114	114	10
70	70	9
64	64	9
110	111	11
67	67	7
102	102	17
17	17	10
48	59	2
84	84	16
35	35	13
32	104	3
120	120	19
100	100	14
13	13	5
50	50	6
92	92	15
103	103	3
71	71	4
125	127	1
88	88	15
73	74	5
113	113	11
130	132	7
110	118	4
93	93	6
119	120	8
83	83	10
105	125	1
121	124	1
3	3	17
95	95	5
8	8	5
58	58	7
112	112	9
118	118	23
106	126	13
128	128	19
97	97	10
0	0	5
104	104	8
38	38	5
100	101	6
81	127	2
47	47	3
72	73	2
37	37	5
45	45	6
87	87	12
85	86	8
8	9	2
59	71	1
127	127	7
124	124	8
50	64	3
97	98	10
134	135	6
69	69	14
109	109	6
132	132	18
24	24	6
113	114	3
78	79	5
116	116	6
101	101	9
112	114	4
80	80	16
76	76	5
62	63	6
81	86	1
82	83	8
97	99	6
104	105	4
36	36	10
7	7	12
71	73	3
115	116	4
33	34	6
108	108	9
80	81	1
10	10	3
15	15	5
133	134	8
62	62	12
105	105	3
68	69	4
26	26	9
85	85	11
121	121	7
49	69	1
31	73	4
7	10	2
129	129	16
66	66	7
134	134	20
90	91	3
34	35	4
75	75	9
111	112	3
96	96	15
54	91	3
126	126	6
119	119	7
92	130	5
55	55	15
57	58	2
54	55	5
116	117	10
16	16	8
31	31	5
98	98	9
89	90	2
78	78	10
43	43	15
6	6	5
95	96	1
73	73	11
91	91	5
75	76	7
69	107	4
77	77	14
131	132	2
64	65	8
51	51	1
81	81	3
99	99	12
46	47	2
25	25	4
18	18	8
2	2	11
125	125	8
18	21	2
23	23	7
131	131	16
50	55	1
60	61	10
62	65	1
90	134	3
61	61	6
96	98	3
43	116	4
19	19	15
90	93	1
123	123	6
87	118	3
96	97	7
57	57	4
133	133	4
19	20	3
79	79	11
54	58	2
127	128	2
77	80	6
14	52	1
61	62	4
91	92	1
111	125	4
88	115	4
82	82	5
107	112	1
1	1	1
74	74	4
53	92	2
94	99	1
108	111	3
117	117	11
74	75	3
86	86	8
130	130	14
117	126	3
98	99	7
13	23	2
87	117	2
19	50	1
57	59	3
68	68	8
114	120	1
114	128	1
49	49	2
112	115	6
20	20	8
130	131	4
52	66	6
118	119	1
13	14	1
77	78	6
53	53	7
53	68	6
1	3	5
15	17	3
58	60	3
135	135	5
71	72	7
65	66	4
118	120	4
28	29	4
87	88	6
106	109	1
48	48	3
78	80	7
2	4	4
106	106	1
32	33	8
35	37	1
86	87	2
31	68	2
106	125	3
3	4	1
35	107	1
44	44	5
46	46	3
61	63	3
56	84	2
92	94	3
60	60	3
92	93	4
122	123	2
8	11	3
84	86	1
6	7	4
120	121	3
111	126	1
106	115	2
116	119	3
12	12	9
89	89	6
54	54	3
9	10	2
79	81	5
54	105	4
66	67	1
124	125	3
75	79	2
117	118	2
107	111	2
36	37	1
99	128	2
81	82	3
72	72	3
11	12	2
63	64	4
69	103	2
64	68	2
53	67	1
100	130	2
33	70	2
26	27	1
28	28	2
106	127	1
69	105	1
35	36	3
24	25	1
103	113	1
15	53	3
52	53	7
1	2	5
46	51	1
114	115	7
107	107	2
69	70	1
4	4	6
7	8	1
132	133	1
100	131	1
3	29	2
0	2	3
110	112	1
115	115	1
107	129	2
58	59	1
30	30	2
22	22	3
63	65	2
63	63	2
43	44	1
103	105	3
21	22	2
121	123	5
56	57	1
6	12	1
4	5	2
2	74	3
92	95	1
44	45	2
17	18	2
16	53	1
12	13	1
50	54	1
27	28	1
106	123	3
66	69	2
106	111	3
67	68	1
88	89	1
34	34	2
94	95	3
93	94	1
59	61	2
70	72	1
45	56	1
99	101	2
37	66	1
76	77	2
106	108	1
16	62	1
21	21	2
67	106	1
23	24	2
94	94	1
105	112	1
67	94	1
12	27	1
109	110	1
106	117	1
68	70	2
106	107	2
62	71	1
53	72	1
65	67	1
19	49	1
129	130	1
55	57	1
42	42	1
68	100	1
