120	120	6
14	14	4
1	1	11
119	146	5
93	93	14
31	55	3
90	90	8
80	80	24
112	112	8
117	117	11
119	119	24
12	12	14
0	1	6
141	153	1
157	157	18
131	134	3
49	49	20
38	38	13
115	121	3
146	146	13
72	72	3
35	129	5
92	92	16
11	12	5
147	149	4
75	75	18
103	103	15
22	47	4
47	47	11
22	22	10
129	130	7
85	85	9
139	139	12
66	86	2
158	158	9
145	145	19
102	120	2
82	82	8
24	24	7
105	107	4
154	154	10
137	138	3
110	110	15
152	152	5
36	36	11
78	79	3
15	15	5
45	47	8
33	142	2
124	125	8
98	98	18
125	126	4
30	30	9
15	16	2
138	139	5
39	39	5
113	116	3
106	107	12
57	62	3
121	121	14
105	105	14
149	149	6
144	144	16
123	124	4
105	106	8
25	25	22
124	124	6
155	155	5
20	20	3
47	49	5
107	116	3
147	148	6
141	141	14
0	0	7
77	80	2
38	53	3
134	136	2
122	122	9
94	94	14
134	134	11
88	88	9
37	37	17
4	5	3
65	65	4
29	135	4
84	94	1
96	97	5
151	152	2
152	153	4
95	95	12
8	8	14
26	27	3
146	149	4
80	81	4
51	51	10
106	114	5
111	143	2
34	34	11
121	122	9
121	154	1
123	123	11
21	21	5
4	20	1
9	10	11
134	135	9
33	139	2
18	52	6
63	63	7
33	34	4
109	109	14
22	49	11
37	112	4
17	27	2
10	11	6
114	114	12
17	17	16
148	148	5
148	150	7
114	116	4
48	52	3
96	96	6
43	43	14
79	79	10
89	89	8
34	70	1
31	40	1
145	146	11
7	45	6
99	99	20
9	13	1
84	85	4
114	140	3
6	7	8
65	98	5
121	142	2
108	117	1
78	78	20
30	47	2
32	57	1
46	46	5
62	62	3
31	32	12
130	130	19
125	125	6
133	133	13
30	32	3
132	133	12
123	127	1
129	129	9
89	90	3
50	50	14
81	90	3
101	101	11
112	117	1
81	81	9
31	42	3
15	18	12
9	9	11
16	21	3
42	42	7
141	144	1
138	138	6
86	114	2
2	2	11
15	17	4
115	115	31
114	137	1
28	50	5
128	128	6
114	115	6
15	21	1
44	44	10
31	31	12
55	55	9
130	134	3
43	44	3
24	25	6
23	24	4
27	27	18
67	68	16
136	136	22
38	98	2
68	69	5
79	80	9
18	18	8
107	107	18
91	91	10
36	37	2
10	10	9
66	66	9
127	127	18
69	69	6
26	26	12
5	5	9
85	86	7
34	39	2
25	47	5
31	141	5
77	79	9
84	84	3
30	107	1
119	140	1
90	96	4
103	104	7
17	21	3
155	156	2
118	118	14
131	133	8
111	111	6
4	9	3
137	137	5
150	152	4
20	53	6
98	101	2
16	19	2
39	117	1
72	73	1
108	108	8
34	54	1
69	110	3
122	123	9
102	127	3
73	73	18
19	48	1
14	15	5
102	102	4
92	109	2
11	11	15
28	28	21
143	148	3
31	85	4
142	143	1
30	149	5
77	77	9
140	140	7
77	153	13
154	155	8
87	87	12
3	4	4
17	18	5
2	17	1
25	159	2
7	7	14
111	112	8
134	137	8
103	137	3
27	28	4
100	117	4
41	63	2
43	73	2
116	116	8
16	52	2
27	30	6
75	106	1
3	3	14
50	51	8
2	5	1
80	91	2
157	158	4
29	29	13
40	40	2
50	52	3
132	132	22
70	70	6
144	145	5
32	140	3
6	6	4
131	131	13
69	71	8
83	83	2
23	23	5
143	149	1
31	35	1
64	71	4
35	35	5
69	78	5
38	57	4
97	97	7
91	98	2
143	146	3
104	104	8
86	86	7
69	87	1
35	130	3
25	106	1
40	155	3
56	113	1
40	45	1
48	49	7
113	113	5
12	14	2
100	100	14
9	11	1
8	11	2
128	129	4
19	20	3
49	50	1
146	154	1
145	153	1
18	19	3
142	142	15
69	70	3
32	32	9
97	98	4
126	126	9
69	89	1
34	156	1
71	78	4
7	8	4
29	114	1
92	93	3
45	51	3
135	136	2
146	153	3
56	158	1
88	89	11
104	136	1
20	35	2
8	9	4
136	142	3
146	147	6
147	147	8
16	16	9
109	110	14
42	54	3
87	102	3
4	4	8
6	72	2
41	56	2
147	153	4
62	69	1
76	77	1
48	48	12
118	131	4
95	96	7
108	119	1
13	14	3
115	132	2
31	86	3
68	90	1
39	49	1
20	21	2
26	47	2
121	123	2
123	150	1
108	110	3
43	47	2
26	48	1
42	55	1
29	142	2
113	150	1
56	56	4
140	152	1
115	119	1
130	131	3
28	48	1
32	33	3
103	105	3
158	159	3
26	46	4
99	100	3
57	57	2
94	112	3
53	54	2
121	124	3
51	54	2
156	156	6
107	108	3
132	158	4
1	4	1
103	108	1
40	41	4
113	117	1
54	141	2
74	75	3
18	51	1
30	40	4
65	66	3
139	140	3
151	151	13
51	52	6
94	103	3
113	119	1
125	127	1
113	124	1
11	13	3
65	97	1
65	96	3
83	86	1
56	64	1
113	158	4
36	56	1
26	45	2
150	150	7
71	97	1
116	121	2
19	21	3
152	154	1
18	49	1
46	54	2
79	86	5
26	30	5
149	150	2
114	119	1
53	53	5
110	111	4
68	70	2
91	111	4
1	2	3
38	101	3
41	156	1
78	115	4
153	154	7
4	29	2
41	42	2
84	151	2
81	87	2
108	111	1
3	28	1
2	26	3
30	31	2
21	47	1
29	55	1
82	86	2
103	136	1
56	57	1
123	125	1
25	28	2
68	68	1
2	3	3
116	117	2
91	92	6
47	50	4
52	52	4
80	94	1
102	112	2
37	39	1
67	67	6
106	106	2
131	132	3
8	10	1
135	135	18
32	55	2
16	18	2
27	29	2
45	45	8
22	48	1
153	153	3
19	49	1
131	138	1
152	155	2
36	65	2
104	105	2
70	121	2
140	149	2
117	118	4
44	73	3
27	33	1
82	83	8
26	104	2
41	41	3
68	87	1
16	17	2
75	80	4
49	52	2
102	138	1
17	26	2
30	148	1
67	84	3
66	88	3
82	89	1
36	158	2
111	117	1
7	13	3
113	121	1
127	128	2
102	115	1
62	63	1
148	155	2
93	95	1
81	85	1
68	118	4
104	106	1
71	71	1
100	102	1
118	120	2
83	85	3
24	111	1
67	78	2
106	158	2
91	95	2
119	147	1
108	158	1
132	137	1
91	112	1
67	69	2
8	15	3
13	13	3
81	82	2
150	153	3
26	51	1
34	129	1
83	111	1
54	54	5
25	27	3
64	64	1
116	140	1
139	148	3
102	103	1
118	119	3
42	43	1
79	117	3
28	29	1
26	107	1
8	13	1
83	84	1
21	22	1
106	129	2
83	87	1
138	151	2
108	109	3
49	85	2
49	51	1
12	13	2
44	102	1
6	17	1
63	64	1
77	78	1
143	143	1
141	146	1
24	28	1
36	52	1
41	55	2
48	51	1
116	137	1
140	148	1
33	33	2
30	142	1
122	124	1
25	46	1
75	81	1
38	39	1
118	132	2
82	121	3
156	158	1
40	56	1
118	133	1
85	87	1
129	132	1
2	4	3
151	158	1
112	113	1
36	114	1
10	15	1
69	120	1
35	46	1
102	134	2
124	127	2
20	23	1
35	128	2
133	134	3
2	30	1
88	90	1
126	127	1
86	87	1
136	137	1
12	19	1
4	23	2
108	115	2
3	5	1
37	55	1
152	156	1
74	74	1
62	70	1
33	140	1
17	23	1
44	45	1
135	137	1
19	47	1
66	67	1
36	39	1
6	45	1
31	114	1
112	121	2
67	86	1
79	81	1
36	43	1
8	14	2
140	141	2
30	113	1
92	95	1
103	158	1
57	61	1
