85	87	5
25	40	5
91	91	3
50	50	17
89	89	13
62	63	4
81	84	3
74	74	16
28	46	4
103	103	10
41	41	9
28	30	3
22	22	10
31	31	9
90	106	4
89	95	3
97	97	5
104	104	7
99	99	18
75	75	10
56	56	16
47	47	6
60	60	7
36	40	1
82	82	10
36	36	11
106	106	7
42	42	7
37	37	21
29	49	1
78	78	8
20	20	6
60	61	5
30	30	8
24	47	13
54	54	20
92	96	2
102	102	13
83	86	2
90	91	5
40	40	5
59	59	3
74	75	5
100	100	16
55	55	8
42	55	3
20	22	3
33	36	2
36	107	1
80	80	12
85	85	17
23	23	8
39	43	1
70	70	7
104	105	4
69	69	7
44	44	18
40	49	3
42	88	3
39	39	10
88	88	3
68	69	4
36	58	4
26	26	5
25	25	13
41	45	4
83	88	6
43	43	7
76	76	10
103	104	2
26	27	1
94	95	2
72	72	12
73	73	3
65	65	8
42	43	7
69	70	1
61	62	7
63	64	2
68	74	3
62	64	5
47	90	1
26	29	4
58	58	7
31	32	8
20	39	2
43	44	1
26	28	1
51	51	11
88	90	3
77	78	7
48	48	4
86	98	3
38	50	1
71	71	5
68	68	2
79	79	8
84	84	11
60	94	3
79	80	3
90	92	4
95	95	7
105	105	5
94	96	3
63	63	7
62	62	9
34	34	4
35	35	7
32	32	22
46	46	5
58	97	1
38	39	5
96	96	7
94	94	9
71	76	4
25	105	2
47	89	1
30	52	4
21	39	4
95	96	4
45	77	1
98	98	18
51	52	4
91	92	11
90	90	2
54	55	5
84	87	3
64	64	5
60	62	3
52	88	1
28	29	4
48	49	9
53	92	4
67	68	2
51	56	1
38	38	6
101	102	6
65	66	6
61	61	6
21	21	17
20	28	3
58	59	2
46	47	8
55	74	1
40	83	2
32	104	1
50	91	2
33	80	1
101	101	11
65	68	1
29	29	3
90	93	3
72	73	1
100	105	1
24	45	3
76	77	2
30	34	5
92	92	5
45	45	5
67	76	1
81	81	3
87	87	14
41	43	1
89	90	1
50	97	1
67	67	7
21	22	1
93	93	2
27	106	2
23	106	1
52	53	6
49	49	8
99	100	4
28	28	10
39	82	1
25	28	3
24	24	1
71	82	1
39	40	3
81	82	1
66	66	5
40	52	1
98	99	4
40	41	1
36	41	4
38	43	1
27	27	6
89	93	2
37	38	1
56	65	2
86	86	5
82	84	2
44	85	2
29	99	1
77	77	2
35	39	3
47	88	1
50	51	3
47	49	2
75	76	5
85	86	3
68	76	1
25	104	1
50	56	1
80	82	3
57	57	4
39	46	5
29	30	2
36	56	1
99	102	1
58	86	2
71	73	2
53	53	3
84	88	4
40	44	2
31	34	1
53	54	2
91	105	1
72	90	2
70	75	1
52	93	3
67	75	1
72	86	3
33	33	5
55	83	1
31	47	2
83	83	1
23	100	1
31	45	2
70	71	1
45	53	2
35	42	2
29	81	1
93	96	1
79	81	3
93	94	1
29	36	2
80	81	1
58	60	1
19	27	1
52	54	1
71	78	1
25	82	2
105	106	1
58	70	1
24	43	2
94	98	1
105	107	1
20	21	1
28	99	1
52	52	1
64	65	1
57	58	1
49	97	1
49	58	1
23	77	1
82	87	1
78	86	1
97	98	2
31	42	1
53	93	1
86	87	1
91	96	1
53	63	1
72	77	1
100	101	1
53	64	1
82	83	2
22	99	1
25	83	1
73	88	1
73	74	1
83	85	1
42	46	1
33	34	1
77	81	1
78	82	1
