237	237	17
81	81	11
96	98	2
2	2	25
2	3	12
210	210	20
182	182	29
85	85	24
189	189	45
26	26	27
174	174	16
151	152	5
105	105	7
225	225	23
4	4	12
72	72	23
71	71	18
234	235	9
206	207	8
53	53	23
69	70	7
82	82	9
188	189	5
6	224	1
188	188	5
55	56	10
33	33	23
39	47	4
138	139	6
221	221	10
193	193	17
41	42	5
43	43	40
56	56	13
4	6	9
50	228	6
7	8	13
175	175	13
110	110	6
157	157	11
80	80	13
111	111	15
123	123	11
61	133	4
46	46	39
11	11	30
182	183	16
81	82	16
44	44	24
214	216	6
30	30	15
228	228	16
157	196	2
86	86	28
67	67	34
114	115	8
128	128	35
67	68	13
14	14	11
111	112	5
152	152	5
22	22	22
223	223	26
226	227	3
143	143	15
205	207	1
37	37	19
207	207	14
21	21	23
156	156	15
139	139	20
202	202	23
189	190	4
136	137	10
166	166	17
47	47	25
70	71	6
80	105	2
176	236	3
46	47	18
9	9	25
233	233	14
236	236	16
20	20	29
227	227	18
20	31	10
18	18	16
201	201	34
10	10	32
77	80	5
195	195	11
19	19	17
54	55	12
104	104	19
48	228	3
168	168	2
26	27	14
57	61	3
207	208	9
219	219	26
137	137	15
142	144	11
221	222	17
238	238	12
158	158	22
143	154	2
115	116	2
25	25	18
185	187	1
138	138	12
49	49	21
21	22	10
216	216	14
78	79	6
112	113	12
231	231	29
226	226	5
161	161	12
116	116	15
167	167	7
79	81	10
28	29	10
204	204	19
65	66	7
150	150	11
32	33	13
121	122	2
89	89	3
45	45	43
134	134	14
197	197	19
240	240	7
128	232	5
177	177	9
232	232	11
58	58	19
156	157	1
54	54	23
76	77	7
5	9	1
32	32	25
229	229	12
135	135	20
34	34	11
220	221	10
88	88	23
106	107	6
42	42	39
62	63	4
101	101	25
184	184	5
158	162	3
29	29	10
234	234	8
39	40	3
147	147	11
101	102	4
61	134	5
75	77	7
194	194	9
114	118	3
205	205	13
75	96	3
82	84	9
6	49	1
220	220	13
213	214	4
205	206	2
179	182	2
84	84	13
159	160	12
40	40	15
76	78	3
63	64	10
182	185	5
98	105	2
41	41	9
177	184	2
8	8	14
209	210	9
74	74	35
224	225	6
159	162	2
153	153	21
42	43	11
84	85	16
56	57	14
72	73	2
12	20	1
121	127	3
27	27	25
153	154	10
196	196	16
115	115	10
198	198	2
75	75	16
154	154	11
53	54	9
24	24	25
182	190	2
172	172	21
6	6	7
80	81	15
122	123	4
179	179	14
130	132	4
120	120	16
14	16	8
20	21	12
34	37	3
52	53	8
91	102	2
97	97	13
74	85	1
185	186	7
113	113	19
68	68	19
160	160	15
178	178	13
193	194	10
35	37	2
192	192	13
65	65	9
165	165	10
211	211	14
0	1	12
23	23	13
50	50	7
109	109	13
19	20	7
40	41	6
3	3	15
242	242	13
57	129	4
79	80	10
23	52	1
15	16	4
55	55	23
170	170	14
0	0	12
70	70	25
173	173	16
49	50	8
190	191	6
22	23	5
122	122	5
57	58	5
190	190	19
17	32	2
183	184	3
233	235	1
117	117	8
114	114	8
133	133	14
133	134	12
86	87	4
216	217	1
113	114	5
12	13	6
142	143	11
98	100	2
59	59	4
73	88	5
179	181	2
39	76	2
44	45	3
80	83	4
203	237	3
56	72	1
142	142	13
64	64	17
235	235	10
209	209	9
175	176	1
69	69	27
136	136	15
191	191	22
28	28	27
118	118	5
239	239	10
217	218	4
48	223	2
154	155	6
225	226	13
5	5	9
181	181	14
130	130	8
164	165	3
200	206	1
233	234	5
199	199	7
147	148	8
208	208	9
224	224	14
151	151	10
99	100	2
171	200	3
234	237	4
198	199	7
61	61	32
201	204	6
206	208	1
141	145	3
236	237	12
63	63	20
201	202	8
218	218	7
12	12	20
213	213	10
73	73	26
39	39	12
184	186	1
7	42	2
101	105	2
78	78	8
115	117	5
199	200	3
31	31	15
137	140	3
171	171	8
13	16	1
154	157	3
140	140	14
200	200	18
106	106	3
17	208	4
60	60	5
215	215	7
228	231	2
65	193	3
154	159	2
17	31	1
48	49	6
96	96	6
102	102	14
121	130	2
119	119	5
215	216	5
122	124	6
164	164	8
144	145	2
145	145	11
1	1	14
89	127	2
100	100	8
59	60	11
162	162	6
66	67	3
156	193	1
85	86	4
155	156	4
181	182	1
222	222	2
15	15	10
57	89	1
212	212	15
52	54	2
163	163	10
117	121	1
165	188	3
165	166	3
150	152	7
52	52	6
17	21	3
83	83	14
146	146	6
217	217	15
50	52	1
107	108	4
5	6	10
20	203	3
123	129	2
43	46	3
30	31	16
203	203	3
203	211	1
83	101	2
5	8	9
146	148	4
95	95	3
148	148	5
12	223	4
112	112	5
40	177	6
53	230	1
237	240	4
104	118	1
0	2	5
121	129	4
51	52	7
126	126	6
43	45	4
4	5	2
44	230	2
43	44	8
158	161	2
5	18	2
18	31	3
61	62	3
173	174	3
48	48	7
186	187	3
67	69	4
187	187	7
232	233	4
150	151	9
62	62	18
214	215	8
26	46	2
110	121	3
153	155	1
235	236	1
185	185	9
1	21	1
73	74	5
79	79	7
51	51	11
238	239	3
37	38	7
69	157	3
99	105	1
171	201	4
55	70	8
67	73	2
169	173	4
10	12	2
138	147	6
68	78	1
169	169	3
186	186	6
3	15	2
35	35	7
119	120	1
139	155	3
29	35	3
180	180	12
57	75	3
171	172	2
206	206	9
105	106	9
36	172	2
0	21	5
116	117	12
32	69	1
7	7	14
16	42	1
129	130	4
36	85	4
8	9	5
3	10	3
98	99	2
195	196	3
183	183	31
139	140	2
69	143	1
149	150	3
66	66	4
138	140	5
16	17	6
215	229	4
82	100	1
174	178	1
159	171	2
173	232	1
211	212	3
64	65	16
76	76	9
13	13	9
71	202	4
38	38	16
3	9	1
11	12	6
103	103	11
202	232	1
61	66	3
71	72	3
135	136	4
4	9	1
133	135	1
38	39	1
155	155	8
142	154	1
210	211	10
178	184	4
164	167	2
9	10	4
179	180	5
67	71	3
75	78	1
167	168	6
138	142	2
35	36	2
223	230	1
31	32	6
126	131	4
50	51	4
213	215	1
144	144	6
25	54	10
105	108	4
3	11	9
33	35	3
20	22	4
203	204	7
99	99	9
24	25	3
67	74	1
137	138	2
13	14	8
230	230	6
56	88	1
123	127	2
175	178	2
158	190	4
125	126	8
23	24	5
212	213	6
214	214	8
160	190	4
108	108	8
125	125	6
204	207	1
39	41	2
75	79	2
193	195	1
159	159	7
119	121	1
131	131	5
51	53	3
141	142	4
187	204	3
7	9	2
85	97	1
124	124	9
39	75	3
159	183	1
224	228	3
187	205	3
224	227	5
21	23	4
73	139	1
15	17	4
170	171	4
75	92	1
103	104	4
208	225	1
77	77	3
1	2	2
145	163	1
163	165	5
34	171	1
6	9	2
157	232	2
14	18	2
36	36	11
2	20	4
217	221	3
117	118	3
145	151	5
149	149	1
201	222	3
10	18	3
53	226	1
127	128	6
224	231	1
187	188	3
165	189	2
125	127	3
23	53	2
211	216	7
211	224	2
40	42	1
109	110	1
227	230	6
133	143	3
152	153	4
21	24	1
89	139	1
168	169	2
65	67	3
5	47	1
222	223	2
137	139	1
170	175	4
42	228	1
26	56	5
36	37	1
48	229	1
48	215	1
50	229	6
157	158	5
219	221	1
154	156	4
182	201	2
136	138	1
81	84	4
234	236	3
48	50	2
3	20	2
158	159	5
56	75	1
172	173	2
134	135	1
109	117	2
75	76	2
69	173	3
31	33	4
241	241	9
17	18	3
191	192	1
168	206	1
17	17	5
147	150	2
57	57	1
107	120	1
29	30	4
57	126	3
12	15	1
113	119	2
2	4	1
122	125	3
39	42	1
42	46	1
121	121	3
107	107	2
68	174	1
34	84	2
82	83	1
197	215	2
212	214	3
108	123	2
54	178	3
223	224	6
7	23	2
100	105	3
98	98	4
60	133	3
17	36	2
118	120	3
95	96	5
58	60	2
10	42	1
117	119	1
180	182	1
139	141	2
44	231	2
102	103	3
52	223	1
77	79	2
16	16	4
227	228	4
216	218	1
100	103	2
123	124	2
8	49	2
230	231	5
148	149	1
20	24	1
6	7	2
98	102	1
162	163	2
7	16	2
87	111	4
218	219	2
230	232	1
140	141	1
217	225	2
127	127	2
57	132	3
106	123	2
4	7	3
176	176	2
224	230	1
58	59	1
56	89	1
0	23	3
103	106	3
59	126	1
10	14	1
241	242	1
173	186	1
1	221	2
217	224	1
25	26	2
121	128	1
81	106	2
69	191	1
45	46	3
144	153	3
202	233	2
119	123	1
180	205	3
13	15	3
20	62	2
160	161	5
58	99	3
41	43	2
219	220	2
96	97	4
174	175	2
198	217	5
18	21	1
140	143	1
83	106	3
30	36	2
82	101	1
146	153	1
37	173	1
8	16	1
180	181	2
175	203	2
68	70	1
209	211	2
6	12	1
0	3	1
167	207	2
46	54	1
5	7	2
192	195	3
175	177	1
18	19	1
198	200	1
3	4	2
14	15	1
143	144	2
42	47	2
236	240	1
0	229	2
40	47	2
109	113	1
18	20	3
118	121	1
170	172	2
107	123	2
96	105	1
58	105	3
191	196	1
218	221	1
54	69	2
192	193	1
10	46	2
69	79	1
167	169	1
146	151	1
97	99	1
30	32	1
80	106	3
89	128	1
133	138	1
106	108	2
109	120	1
34	35	1
34	36	1
147	152	1
172	200	1
182	200	1
3	12	1
43	67	1
229	230	1
176	177	2
48	220	1
66	72	1
9	24	1
76	124	1
139	144	1
60	61	1
182	188	1
63	67	2
76	123	3
198	212	1
59	118	1
69	232	1
29	32	1
37	43	1
3	7	1
73	134	1
108	109	1
118	119	1
89	91	1
77	124	1
77	115	1
101	103	1
190	192	1
107	118	1
120	121	2
164	166	1
171	176	1
27	47	1
70	232	1
113	120	1
197	207	1
47	86	2
85	106	1
231	232	1
190	207	1
10	11	1
74	75	1
116	118	1
75	86	1
65	194	1
