81	82	9
103	103	6
35	35	5
71	71	11
85	99	4
94	94	3
64	64	11
101	102	5
20	20	9
6	6	8
57	57	6
101	107	4
46	61	1
45	46	5
26	93	1
26	36	1
26	27	7
85	85	11
37	38	5
45	90	4
67	68	1
55	56	2
79	81	2
42	42	8
74	74	5
40	45	4
3	4	2
7	7	8
11	11	14
8	22	2
80	80	4
25	25	5
32	32	16
27	93	1
14	20	3
58	61	1
134	134	6
45	45	6
86	86	17
110	111	1
62	62	6
2	2	5
13	46	3
109	109	6
114	115	5
16	16	15
68	69	3
87	87	9
87	88	1
12	26	2
24	25	2
46	46	8
126	126	4
19	19	4
38	38	6
13	13	12
126	127	5
84	84	6
26	26	1
133	133	1
94	95	1
43	43	4
108	108	6
65	65	9
66	66	12
123	123	4
0	0	2
48	48	13
12	12	19
7	20	1
63	71	5
37	56	2
10	10	8
92	92	3
68	68	18
63	63	12
10	11	2
121	122	7
39	80	1
112	115	1
61	61	5
43	44	3
116	116	6
38	56	3
22	35	4
62	77	1
38	39	3
32	47	2
124	126	4
31	31	4
12	13	2
99	99	7
9	74	2
27	28	6
20	55	3
79	82	1
33	33	6
47	74	1
28	91	1
24	50	2
75	75	17
84	99	3
48	49	4
7	90	1
93	93	5
73	74	4
115	132	3
78	78	10
23	32	3
131	131	2
78	112	1
101	101	10
8	8	5
47	47	13
83	84	5
30	30	9
12	27	2
91	110	1
15	15	3
5	5	3
19	20	1
99	101	4
66	68	1
78	79	2
87	90	1
117	117	8
68	72	4
94	120	2
119	124	2
34	35	6
80	100	3
60	60	8
61	76	9
109	110	2
127	127	3
95	95	13
59	59	3
62	63	5
28	78	2
40	41	2
56	56	8
58	58	1
6	18	5
74	85	5
4	4	4
122	122	2
13	21	1
128	128	4
17	17	1
28	28	8
1	67	1
34	34	3
76	76	6
55	55	1
23	23	2
91	95	1
44	44	12
32	33	5
64	69	2
111	111	5
119	127	2
11	12	3
85	126	1
69	69	10
74	75	2
27	27	6
35	36	2
48	50	1
26	47	3
8	14	7
62	64	3
5	17	3
7	8	1
48	95	1
62	67	1
61	62	1
35	38	1
70	70	8
25	49	2
20	21	2
13	23	2
102	106	1
120	120	9
41	43	3
9	10	4
26	74	2
100	100	7
132	132	4
46	47	3
8	100	1
11	32	1
82	82	1
121	121	4
39	39	6
25	47	3
60	84	4
112	112	1
47	48	2
129	129	1
26	63	1
77	77	7
41	41	4
86	88	2
88	88	3
29	30	2
67	67	13
126	130	1
127	128	2
18	18	5
3	101	1
78	116	1
91	92	6
114	114	3
27	94	2
73	73	9
113	114	1
80	82	1
49	49	4
42	43	2
106	106	2
17	25	1
102	102	5
72	72	5
61	75	1
75	76	4
15	61	5
8	16	2
98	98	1
98	99	2
36	36	4
93	127	2
22	22	6
10	13	5
15	16	5
23	74	1
28	79	2
116	117	3
112	132	3
29	29	5
105	105	4
81	108	1
9	9	3
104	108	1
65	66	2
36	38	1
64	78	3
35	90	1
113	113	1
94	96	4
25	48	5
11	35	3
38	40	1
84	85	2
57	61	1
47	96	3
124	124	2
50	55	3
35	45	3
80	93	1
66	67	3
83	83	8
36	93	1
86	87	2
7	91	1
4	6	1
63	64	3
130	130	2
76	77	1
58	60	1
46	71	2
119	123	2
96	97	4
91	132	2
111	117	1
103	104	1
126	129	2
66	70	3
96	96	8
71	72	3
24	24	2
94	126	2
70	71	1
80	101	1
39	41	1
12	73	2
28	29	2
69	70	2
8	36	1
7	65	4
87	98	1
132	133	1
8	18	3
49	50	1
37	37	1
12	61	1
21	37	1
82	83	1
81	81	3
31	32	1
12	47	1
87	110	2
131	134	2
97	97	1
46	62	1
92	93	2
23	24	2
56	59	3
100	107	1
60	61	1
79	80	3
8	21	1
25	27	1
1	1	2
93	94	1
120	126	1
90	91	2
90	90	2
30	37	2
94	99	1
107	107	2
51	55	1
3	3	1
107	108	1
118	118	1
13	14	2
89	89	3
123	128	1
81	98	1
37	39	1
5	16	1
98	100	1
47	79	1
67	77	1
9	67	1
93	98	1
5	66	1
71	75	1
12	69	1
37	41	1
125	125	3
78	82	1
122	123	1
26	94	1
29	60	2
37	40	1
119	119	2
21	58	1
64	71	1
21	22	1
31	34	1
104	118	1
14	14	1
80	81	1
59	60	1
94	97	1
79	79	1
45	64	3
20	22	1
16	17	1
63	78	2
11	13	1
2	7	1
46	96	1
14	21	1
110	110	1
85	111	1
28	62	1
10	12	1
