37	37	6
4	6	2
81	81	8
146	146	6
136	136	3
6	6	5
62	63	2
160	170	4
105	110	3
51	51	2
15	16	1
139	142	1
41	41	2
42	76	2
18	41	3
104	104	3
33	33	5
134	135	3
22	23	3
108	110	1
107	129	4
109	111	4
5	5	3
109	109	7
81	98	2
42	42	14
11	11	13
160	160	2
113	113	6
70	70	6
73	73	5
145	145	3
154	165	3
38	40	1
153	153	4
123	131	3
96	96	11
147	148	2
9	10	5
24	24	8
46	46	1
39	51	2
148	148	7
55	55	8
100	115	2
51	62	1
137	168	2
74	74	16
123	123	7
74	75	14
113	114	1
139	139	1
22	77	4
43	87	2
83	83	3
35	35	3
8	75	5
106	106	2
66	66	5
97	97	8
127	128	2
72	72	7
98	103	5
13	14	2
39	125	1
69	69	5
38	68	1
99	99	5
71	72	3
90	91	1
125	125	8
88	89	2
2	2	3
42	43	4
56	56	3
94	96	3
43	43	6
114	116	4
107	107	9
92	92	2
102	115	5
72	80	1
18	19	6
37	80	2
105	105	6
27	27	4
95	95	7
108	109	4
67	127	1
155	155	1
128	128	4
103	104	3
86	87	1
62	102	1
79	80	1
41	42	2
134	136	3
18	69	2
135	136	9
49	50	1
22	22	2
25	25	9
78	78	2
10	44	3
48	48	4
91	91	5
160	162	2
18	18	4
41	51	4
155	156	2
111	111	6
14	62	2
14	14	13
170	170	3
119	120	6
38	47	5
20	20	5
3	3	15
129	129	2
24	55	4
102	104	2
143	143	6
119	119	3
110	129	2
13	15	1
126	126	1
78	79	1
23	24	2
1	3	1
36	36	10
53	53	4
66	67	5
4	4	7
86	86	4
114	114	6
49	49	2
38	38	4
10	74	3
38	51	1
10	66	3
130	130	4
1	1	6
24	117	1
127	127	3
54	54	3
71	81	2
101	105	4
156	156	2
85	88	3
26	26	4
5	7	1
16	16	3
159	159	1
39	39	2
115	115	2
6	102	2
152	152	8
13	16	3
12	12	2
50	51	2
39	70	1
79	79	4
28	131	5
1	99	2
47	47	3
83	84	3
102	102	4
89	90	2
44	44	3
55	56	1
17	17	4
3	150	2
169	169	5
135	135	6
9	9	3
16	18	1
0	145	2
8	9	4
14	16	1
101	101	6
86	115	1
21	22	2
26	134	2
103	105	1
19	19	2
110	110	4
88	162	3
82	82	4
108	108	6
57	57	1
77	77	12
67	67	1
163	169	2
92	94	1
149	149	1
53	67	1
17	80	2
10	10	5
24	54	1
56	57	1
94	94	4
133	135	2
161	163	2
121	122	1
15	19	3
137	139	1
104	115	3
23	68	1
137	137	3
168	170	1
116	116	8
115	116	1
21	46	1
124	151	1
12	14	1
50	50	3
82	83	2
167	169	3
98	98	1
138	138	6
37	64	1
40	40	1
24	25	2
99	123	3
48	89	2
47	49	1
133	133	1
134	144	1
115	123	1
163	163	3
63	63	4
134	167	1
84	93	1
165	165	3
118	119	2
37	43	2
94	116	1
151	151	1
106	111	1
26	37	1
103	103	1
62	62	8
25	26	3
84	84	2
64	64	3
45	45	4
81	82	3
162	164	1
76	77	1
82	84	2
76	76	1
45	88	1
19	20	1
17	18	1
93	95	1
46	47	1
34	34	5
19	46	2
105	155	5
38	41	2
85	116	1
21	23	1
97	99	1
54	116	2
74	90	2
14	119	1
10	11	1
36	37	2
95	96	1
2	109	1
122	157	1
34	136	2
141	141	2
43	44	1
69	70	1
1	2	1
94	97	1
134	134	1
120	121	1
75	75	1
28	28	2
62	87	2
162	162	1
24	42	1
8	8	3
68	69	1
144	144	2
20	22	1
25	70	1
12	13	3
122	151	1
2	100	1
109	110	1
168	169	1
129	130	1
116	117	2
99	136	1
94	103	1
18	46	1
92	112	1
142	143	1
11	54	1
167	167	3
3	81	4
68	68	1
118	118	2
16	158	1
124	132	2
13	13	2
38	39	1
87	87	3
80	80	2
85	85	2
10	130	2
162	163	1
14	50	1
132	132	3
97	98	1
17	23	1
13	64	2
58	64	1
39	47	1
153	154	1
120	120	2
98	154	1
64	67	1
90	107	1
94	99	1
38	46	1
117	117	1
61	61	1
46	77	1
106	141	1
107	133	1
