29	45	3
58	94	3
50	50	5
89	92	1
73	73	8
36	36	6
97	97	14
41	41	7
76	98	1
92	92	5
55	55	9
48	48	3
20	22	1
92	93	2
68	93	1
88	88	24
26	26	8
58	59	5
99	100	5
91	91	9
70	70	13
83	83	17
34	34	3
62	62	11
64	65	1
39	39	8
67	95	1
58	58	12
75	76	5
46	47	5
47	47	11
88	100	6
101	101	27
52	52	6
60	60	11
57	57	7
94	94	10
29	32	4
41	42	4
95	95	4
81	81	7
31	31	10
66	67	11
66	69	2
25	25	2
33	47	1
100	100	6
62	74	1
65	65	13
91	92	3
87	88	6
78	90	5
49	49	3
48	50	3
35	35	5
79	80	7
38	63	1
26	71	4
78	79	3
36	37	10
42	42	7
76	76	4
67	67	15
77	79	1
47	51	1
69	69	5
20	20	5
97	98	3
74	74	7
84	84	1
45	45	6
23	23	3
63	71	2
85	85	6
25	54	2
79	79	11
72	73	2
101	102	6
87	87	11
84	100	1
73	74	5
72	72	8
60	88	3
24	55	2
75	75	6
47	53	1
62	83	4
96	96	5
82	94	2
32	38	3
79	94	2
93	94	2
63	63	13
69	77	1
63	66	5
54	54	4
80	87	3
56	57	1
39	40	1
43	43	12
86	88	4
55	58	2
59	76	2
31	51	3
55	87	3
100	101	9
102	102	2
65	67	2
38	38	5
44	68	3
82	82	2
51	89	3
31	34	1
68	68	8
35	92	2
29	29	3
77	78	2
99	99	6
78	78	8
62	63	1
33	38	3
80	80	5
48	90	6
93	98	1
87	89	3
53	78	2
58	91	2
99	102	6
95	96	4
20	36	2
51	51	4
77	77	4
40	40	15
74	76	3
93	93	4
57	58	1
58	77	1
96	99	1
71	71	10
79	81	3
67	68	3
95	98	2
24	24	2
51	93	1
54	61	4
38	46	1
49	50	4
70	76	2
25	26	1
28	28	3
49	57	1
46	79	1
78	80	4
62	77	4
68	69	3
74	86	1
83	84	3
61	61	4
86	89	2
51	54	2
80	81	5
43	45	4
69	89	2
64	66	1
92	94	3
51	67	1
66	66	3
43	98	1
90	90	2
66	68	1
33	33	7
65	66	5
67	78	1
76	77	2
59	60	2
63	65	2
40	41	2
24	25	1
71	72	3
63	92	2
45	60	3
52	55	2
85	92	3
86	94	1
98	98	2
55	57	2
96	97	4
45	47	1
51	90	1
55	100	2
61	84	2
51	52	1
53	100	2
47	48	2
60	61	2
58	61	1
26	27	1
68	71	1
89	90	1
69	70	4
64	64	2
35	37	2
44	44	5
90	91	1
22	22	1
93	95	1
76	79	1
92	95	1
80	88	1
54	55	2
52	70	1
32	33	1
29	46	1
45	46	1
60	82	1
57	67	1
89	89	2
74	75	2
80	92	2
86	86	2
79	93	1
45	49	1
46	46	1
37	37	1
27	102	1
99	101	1
20	24	1
84	88	1
