73	73	6
42	55	3
48	48	12
84	93	2
107	108	1
47	47	6
99	99	2
124	125	3
132	132	4
101	102	2
127	127	8
100	113	1
107	107	9
134	134	5
39	39	7
109	110	5
83	83	1
26	27	3
38	38	6
71	73	1
36	132	1
12	12	6
76	79	2
46	46	5
129	129	6
38	82	1
132	136	2
103	105	4
105	105	3
128	128	3
76	81	3
81	82	1
25	25	10
34	35	4
35	37	1
81	81	5
55	55	4
51	51	4
5	34	3
146	148	1
118	119	4
73	94	1
146	147	4
57	57	5
58	58	3
150	150	4
118	118	9
122	143	1
85	85	6
20	20	4
35	35	7
32	97	2
80	83	3
50	50	2
77	77	3
27	27	7
144	144	1
54	54	2
3	7	1
34	57	2
11	12	4
63	63	4
100	100	6
62	62	5
141	142	6
23	24	2
13	14	1
38	39	3
151	151	4
115	117	2
36	37	6
111	111	7
137	148	2
94	97	1
20	53	1
91	91	5
105	112	4
139	139	2
75	76	3
135	139	2
35	131	1
145	146	2
21	21	3
41	42	3
116	117	2
136	136	7
24	24	4
31	54	2
6	151	2
14	14	9
102	112	1
27	28	1
28	28	5
64	64	2
105	110	2
66	66	6
54	55	4
87	87	4
7	7	3
140	149	3
78	79	6
18	18	4
44	45	1
76	77	2
75	75	8
19	19	6
115	115	4
133	133	2
42	42	5
88	88	1
140	141	1
53	53	5
93	93	1
11	11	11
17	17	2
40	132	5
108	108	2
38	64	2
98	111	2
78	122	1
23	23	6
138	139	2
101	106	3
25	26	2
36	40	1
136	147	2
128	130	4
22	22	2
33	36	1
24	54	1
65	65	4
125	125	2
137	139	2
4	4	1
96	96	2
69	71	3
57	68	1
68	68	1
123	123	3
63	123	1
108	110	4
30	32	1
100	112	1
11	13	1
79	82	1
78	78	1
26	26	2
42	43	3
82	82	4
36	36	1
70	70	2
15	16	1
97	97	2
38	74	2
30	105	1
31	31	4
29	29	3
46	47	3
94	94	2
69	70	6
133	136	3
18	135	1
98	98	5
84	94	1
83	86	6
53	70	1
117	117	3
43	43	3
4	26	3
34	34	4
6	9	2
84	84	2
69	69	1
130	130	1
50	51	3
120	120	1
8	8	5
35	43	1
42	44	3
29	30	2
123	130	1
79	85	1
75	84	2
56	57	5
24	58	1
106	106	1
17	19	1
52	55	1
43	45	2
34	36	1
104	104	1
16	16	1
49	50	2
13	13	2
40	133	1
133	134	1
6	6	2
112	112	6
98	104	2
86	88	1
110	114	2
21	23	2
149	152	1
148	148	2
72	95	2
149	149	1
74	74	4
80	80	1
113	113	1
106	108	2
78	80	1
98	99	2
111	114	2
67	69	2
33	33	1
37	38	1
4	32	1
38	42	1
106	107	1
112	114	1
80	82	1
33	53	1
80	84	1
102	102	3
121	121	2
128	137	1
4	5	1
56	68	1
20	23	1
83	119	1
123	131	1
140	142	3
12	22	1
43	56	1
9	10	2
114	114	3
11	24	2
126	126	2
122	122	2
10	11	2
49	49	2
135	136	1
63	131	1
33	97	2
79	80	1
31	34	1
123	132	1
32	63	1
45	53	1
10	151	2
48	49	1
129	130	1
48	53	2
10	10	1
26	138	1
85	94	1
104	105	1
72	72	1
137	137	1
124	124	1
