31	31	15
34	35	6
78	78	17
45	48	1
74	74	9
76	76	15
30	30	9
56	57	3
72	73	2
78	88	3
36	37	4
96	96	10
92	99	3
99	99	23
71	98	1
44	85	1
47	47	13
51	91	2
86	86	11
42	43	2
41	41	21
34	34	8
38	38	11
39	86	4
100	101	4
49	50	2
62	72	3
24	25	3
75	75	19
62	62	8
81	81	12
35	35	10
97	98	9
76	90	2
82	82	5
68	72	4
44	44	10
61	61	20
84	84	7
58	59	3
60	60	22
49	49	14
75	90	4
87	88	4
64	74	7
52	52	15
32	65	3
56	63	2
71	72	7
67	67	19
40	40	8
50	50	17
69	70	3
68	102	1
96	97	3
39	39	10
23	23	5
72	79	3
42	42	21
64	64	16
24	101	3
90	90	8
53	54	4
66	66	16
89	89	11
58	58	13
66	76	1
25	27	4
86	101	1
100	100	10
43	43	18
48	48	12
74	75	7
60	62	1
91	92	8
95	100	3
79	79	3
29	29	5
57	78	2
90	91	3
36	36	10
101	101	3
70	71	6
95	95	7
96	98	2
57	57	7
62	63	4
92	92	17
54	54	13
67	78	1
70	70	11
80	80	18
94	97	3
29	74	1
62	79	4
79	81	1
52	55	5
54	81	3
45	45	7
25	26	5
59	59	14
33	58	6
57	58	3
68	69	4
65	66	12
68	68	14
62	98	3
85	85	10
86	88	5
23	26	5
83	83	4
40	44	3
91	91	11
47	48	4
55	89	5
64	68	1
24	24	4
53	92	4
89	90	2
97	97	7
40	46	3
55	55	7
78	87	2
87	87	7
74	84	2
63	63	5
98	100	3
33	54	2
35	95	3
86	90	1
71	71	20
101	102	11
83	84	5
46	46	9
43	50	2
26	27	4
50	86	2
80	101	4
22	45	1
79	87	2
33	66	1
81	82	4
64	66	1
41	67	1
37	38	2
93	93	16
77	77	4
33	61	6
77	90	1
27	80	3
39	52	2
69	69	4
22	35	1
50	62	1
22	89	2
72	72	9
99	100	4
51	51	1
39	47	4
85	86	2
70	92	1
65	65	3
58	65	2
79	97	1
49	62	2
22	102	1
31	62	2
27	29	2
80	94	3
60	86	1
67	71	2
32	32	3
54	58	1
38	39	5
29	31	2
56	72	1
27	28	4
94	94	6
31	69	2
79	80	3
53	55	3
52	53	4
60	61	3
49	69	2
74	86	2
95	96	7
53	61	2
37	37	3
26	26	5
25	25	2
74	77	2
68	79	2
72	80	2
61	62	5
28	28	1
50	51	1
51	61	2
73	73	2
55	86	2
56	56	8
76	89	1
86	87	2
24	29	2
59	88	1
95	98	2
31	34	2
57	69	5
45	49	1
88	97	1
69	73	1
41	42	3
45	55	2
55	96	2
31	65	1
46	47	2
22	22	4
72	77	1
80	92	2
51	52	3
98	98	4
99	101	1
27	27	4
37	99	2
53	97	1
92	98	1
93	98	1
62	71	5
23	54	1
82	92	1
68	80	1
46	48	4
40	51	2
88	88	3
50	91	1
42	101	1
57	64	1
44	45	2
44	101	2
51	62	1
78	79	2
61	91	2
82	91	1
29	30	3
37	98	3
53	53	6
35	37	1
36	44	1
73	77	2
22	24	2
71	74	1
49	58	1
63	101	1
87	91	2
72	83	1
41	86	3
22	41	1
87	98	1
54	70	1
33	34	1
48	64	1
24	26	1
73	88	1
47	78	1
98	101	1
30	31	1
33	37	1
42	85	2
52	92	1
36	38	1
71	92	1
56	68	1
67	77	1
77	78	1
33	33	3
64	83	1
26	92	1
82	86	1
66	101	1
76	77	1
44	50	1
59	60	1
94	98	1
22	56	1
63	64	1
67	74	1
22	27	1
