52	150	1
221	221	6
100	101	2
157	157	1
18	37	2
9	9	1
60	169	1
46	46	4
154	154	8
15	16	1
145	145	1
95	95	7
158	158	4
110	110	7
58	58	8
175	190	2
199	238	2
199	199	3
91	92	2
19	46	3
146	189	1
77	78	2
190	191	4
203	203	4
112	177	1
56	56	2
186	186	1
57	57	4
89	89	7
77	77	5
53	53	4
62	67	5
38	58	1
18	18	1
7	37	1
174	188	2
176	205	2
210	210	3
70	70	2
95	97	1
240	240	4
20	20	3
163	163	3
4	5	3
88	88	7
93	93	1
54	54	3
111	111	5
191	192	1
10	45	2
194	196	2
101	101	6
74	74	2
79	79	2
61	63	4
6	15	2
151	151	11
188	194	2
160	160	8
153	157	5
247	248	6
221	227	5
1	1	3
69	171	2
155	155	8
7	7	1
161	235	1
47	47	3
169	170	2
107	108	2
175	175	6
47	48	8
65	69	2
37	40	3
192	192	2
206	206	7
28	29	3
242	243	1
78	92	4
200	200	4
12	12	4
169	169	3
50	58	2
52	52	2
117	198	2
33	33	1
208	208	1
91	91	1
211	211	4
68	68	1
5	5	1
29	30	1
39	39	2
25	31	2
62	231	2
5	34	1
184	184	8
243	243	4
104	104	1
116	117	5
159	160	3
178	178	3
113	114	2
6	6	4
112	112	7
168	168	2
175	176	5
236	246	1
218	241	1
177	234	2
239	239	6
24	24	2
152	176	1
238	244	1
89	96	2
194	194	7
151	159	1
188	188	1
221	222	3
198	198	2
152	183	1
27	37	1
8	65	2
219	219	1
217	217	4
96	96	3
75	76	2
95	148	3
68	93	5
233	234	3
234	234	3
145	155	2
35	45	2
12	33	1
214	215	2
57	98	2
239	244	1
78	102	8
6	42	2
61	61	2
30	30	3
237	237	5
203	204	1
87	102	2
212	212	3
96	97	1
226	226	5
212	241	1
80	111	1
201	201	1
34	66	1
235	235	2
56	57	1
3	12	2
234	235	1
191	224	1
241	244	2
233	233	5
190	190	4
241	241	3
208	209	2
155	189	1
113	113	3
238	238	3
85	168	1
217	242	2
63	65	2
177	177	3
213	213	4
67	230	1
145	156	1
94	94	2
165	165	3
94	104	3
48	48	3
25	25	5
242	248	3
73	171	1
33	46	3
163	164	5
177	210	2
8	8	3
195	195	3
94	206	3
166	166	3
91	100	2
60	60	1
58	59	1
19	47	1
183	183	2
156	156	3
224	224	1
170	170	5
168	205	1
205	205	5
189	214	3
99	103	2
55	55	3
3	3	1
223	234	1
206	220	2
4	18	1
204	204	9
193	197	2
31	31	3
214	214	2
10	37	3
28	28	2
68	82	1
86	87	4
185	191	1
171	171	1
45	45	1
22	22	2
36	40	1
164	164	1
11	11	2
98	100	1
118	119	1
163	165	1
170	171	2
83	83	1
222	222	1
225	225	2
223	223	1
108	109	2
196	196	1
244	244	4
36	36	2
92	92	4
75	160	2
159	159	1
229	229	1
6	7	1
176	176	1
35	35	2
167	179	1
76	76	2
220	220	2
172	172	1
69	69	1
236	236	1
14	14	3
50	50	2
175	178	1
185	185	1
15	54	1
42	43	2
4	37	1
198	199	2
75	75	2
13	13	1
31	34	2
43	43	5
42	42	2
43	227	2
172	183	1
209	226	3
201	202	1
147	149	1
171	172	3
93	110	2
245	245	2
32	32	3
41	41	1
208	212	1
81	81	2
1	217	1
200	201	1
240	241	1
117	117	1
23	23	1
181	181	1
183	184	1
73	78	1
21	21	1
149	149	1
180	181	2
174	174	1
119	119	2
147	147	1
200	221	1
224	247	1
246	246	3
185	186	1
186	214	1
98	101	3
115	118	1
106	111	2
66	66	3
191	191	1
98	98	1
85	85	2
216	216	3
62	62	1
109	109	1
79	108	2
63	63	1
33	34	1
39	43	1
1	59	2
76	77	4
3	30	1
239	240	1
24	100	1
87	88	1
109	219	2
172	175	3
178	179	1
73	73	1
111	112	1
4	4	1
99	100	2
58	94	1
93	109	2
157	158	1
174	175	1
167	167	1
172	173	1
99	117	1
11	52	1
55	56	2
172	192	1
75	80	1
197	199	1
62	230	2
150	150	1
237	238	2
42	49	1
236	237	1
64	64	1
182	183	2
3	16	1
161	162	1
158	159	1
151	185	1
37	37	1
26	28	1
115	208	1
176	183	1
146	146	1
215	215	1
195	198	3
189	192	2
231	231	2
75	82	1
72	94	1
65	66	1
198	243	1
209	209	1
189	189	1
158	164	1
202	202	1
216	241	1
86	89	2
165	168	1
85	86	1
232	233	1
223	231	1
183	185	1
7	8	1
238	240	1
165	234	1
99	99	1
242	242	1
3	46	1
56	58	1
34	34	1
60	61	1
104	119	1
30	33	1
