49	51	2
84	95	2
88	89	7
48	48	21
100	111	2
49	49	14
21	21	24
59	59	6
93	93	8
71	71	4
71	73	2
75	76	1
83	83	9
19	62	3
93	107	1
68	70	6
69	72	8
79	98	2
53	107	4
102	108	1
44	44	10
77	83	4
93	94	11
91	107	4
96	96	12
82	85	2
112	113	4
66	66	9
109	110	10
86	86	5
28	32	3
101	101	8
56	56	27
82	83	8
57	78	2
80	81	1
23	35	2
47	86	2
100	100	11
73	110	3
107	107	5
34	35	6
98	112	7
98	98	12
39	40	5
70	95	3
63	63	4
67	67	5
105	105	13
25	39	3
24	24	8
38	38	1
23	31	4
37	65	5
60	83	2
48	49	4
34	34	4
87	90	5
51	75	3
74	75	9
37	77	3
106	106	10
23	27	3
74	74	8
112	112	1
85	86	6
81	88	1
95	100	3
20	21	1
32	36	2
95	103	4
29	76	2
24	28	3
53	53	7
45	46	1
83	88	3
65	65	7
81	81	4
69	98	1
100	101	7
20	20	4
79	79	4
59	92	2
37	46	4
59	80	3
103	106	2
52	80	1
25	25	9
36	36	3
84	84	2
50	51	3
47	47	9
90	90	6
45	45	9
20	41	2
89	89	5
22	23	6
98	109	3
62	64	2
58	110	2
95	111	2
31	39	5
69	69	12
59	85	1
104	104	11
63	80	3
62	62	9
66	95	3
88	88	12
66	67	12
73	111	1
58	72	2
37	37	5
92	95	2
58	60	3
78	78	3
73	73	8
88	90	2
29	29	1
43	43	3
97	97	7
91	91	13
32	33	3
52	72	2
76	76	6
72	73	9
35	76	3
86	93	1
92	92	5
77	77	2
62	103	1
110	110	6
83	84	1
28	28	2
27	27	6
97	113	2
21	22	1
46	46	11
87	89	4
108	108	1
72	72	9
82	82	15
51	51	10
106	113	1
42	42	5
102	102	6
56	108	6
60	81	2
19	22	1
65	71	3
70	70	6
101	102	10
53	106	3
109	109	10
77	98	2
55	57	4
73	74	4
64	78	1
66	105	2
93	100	2
71	81	4
67	95	2
52	52	5
37	38	2
59	90	1
62	63	3
61	93	1
31	33	3
95	95	14
90	107	2
103	104	1
108	110	2
37	39	1
66	78	3
80	80	6
79	92	4
113	113	2
57	57	2
79	82	6
66	84	2
94	99	2
40	41	1
58	108	3
76	77	2
91	92	1
36	44	1
40	40	6
88	94	5
57	80	3
89	110	3
66	68	2
81	111	1
76	100	2
76	78	1
59	61	3
67	69	3
38	39	4
65	66	1
86	87	2
58	61	3
104	105	4
68	68	12
22	30	1
87	87	10
57	79	2
37	43	1
39	68	3
60	60	5
78	79	6
44	45	6
32	37	1
78	101	1
70	71	1
29	40	2
31	31	7
20	40	2
61	82	3
73	98	1
97	108	3
69	92	1
29	63	1
61	61	2
101	110	2
77	101	1
81	90	1
31	32	2
37	63	2
73	92	3
103	113	1
90	95	1
61	107	2
55	56	2
41	41	2
99	99	7
77	99	1
95	112	2
69	71	1
57	74	1
84	110	1
33	34	2
63	67	1
22	39	2
84	109	2
56	76	1
50	75	1
86	107	1
71	86	2
46	65	2
63	71	2
35	35	1
38	46	2
64	66	3
57	111	1
72	98	2
85	85	4
42	48	1
54	68	2
63	78	1
86	94	1
37	76	2
94	97	2
102	103	2
45	52	1
64	96	2
33	33	1
89	90	2
71	72	3
103	107	1
39	39	2
114	114	1
33	35	1
105	107	2
82	107	2
95	96	3
55	58	1
52	93	1
54	109	1
58	62	1
22	31	1
36	114	1
111	111	4
30	32	1
58	111	1
47	85	1
67	70	2
92	94	1
62	73	1
74	95	2
54	72	1
64	84	1
47	49	1
73	100	1
59	108	2
108	113	1
111	112	2
85	94	1
59	78	1
100	108	2
58	58	2
19	72	1
68	69	1
98	108	1
30	30	1
83	87	1
86	106	1
31	40	1
39	41	1
60	77	1
