52	52	12
30	30	10
69	69	20
84	85	2
12	12	15
74	74	17
6	6	16
31	31	13
3	3	15
68	68	13
19	19	15
4	68	2
17	17	13
5	6	6
72	73	6
12	85	4
7	7	17
17	25	1
54	54	12
5	7	1
78	78	7
21	23	3
82	82	4
34	34	10
55	55	14
53	53	14
86	86	14
4	4	16
23	23	7
7	64	3
80	80	15
68	69	8
18	18	8
58	58	18
75	75	9
62	63	5
84	84	11
15	15	14
6	27	3
24	24	10
64	64	6
25	27	5
51	51	7
0	0	8
86	87	4
58	60	1
71	71	14
8	8	6
54	55	6
3	70	1
10	11	3
76	79	2
26	27	4
48	49	6
85	88	2
20	90	1
10	64	1
12	13	9
14	14	9
66	66	14
11	11	9
27	27	4
70	70	17
2	2	9
5	59	3
52	60	1
5	5	5
58	59	6
50	51	4
21	21	8
88	89	4
62	62	10
56	56	7
59	59	12
85	85	8
17	19	2
81	81	12
79	82	3
81	82	6
59	60	7
89	89	5
73	73	17
1	1	3
51	52	3
49	49	5
87	87	16
21	90	2
48	82	2
61	81	2
57	75	2
20	20	5
4	17	2
48	56	1
60	61	3
64	65	4
65	65	7
5	8	2
3	27	1
82	83	3
20	25	2
55	61	1
63	65	3
49	52	2
22	23	4
1	19	1
26	26	12
11	13	3
47	60	4
29	29	4
17	20	1
13	17	3
11	59	2
51	54	4
65	66	4
67	81	1
48	48	4
60	60	2
79	80	2
68	70	2
57	57	6
9	9	2
84	88	3
72	89	1
1	11	5
16	27	2
83	83	5
60	63	2
6	7	7
3	7	2
67	67	9
76	76	6
46	71	2
75	76	2
77	78	1
6	17	3
25	25	4
13	13	8
72	81	1
78	79	13
15	27	1
33	77	3
46	46	5
9	64	6
50	50	9
14	29	3
50	66	2
51	63	1
61	62	1
21	26	4
55	60	1
12	17	3
63	63	1
22	22	3
7	8	1
51	53	2
61	61	8
53	55	2
54	65	3
66	67	2
29	30	4
4	5	2
32	32	3
23	25	1
9	18	3
82	84	4
59	81	2
79	79	8
8	49	3
2	24	1
59	62	1
17	66	1
48	50	2
74	75	6
67	68	4
21	22	1
11	14	3
23	24	2
59	61	1
15	17	2
16	16	1
63	64	6
3	4	2
75	77	2
28	28	2
23	27	1
47	83	2
28	31	1
30	55	1
78	80	1
5	19	2
51	56	3
13	20	1
47	47	4
9	10	2
72	76	1
65	75	1
13	18	1
11	87	1
15	16	1
15	57	1
5	20	1
9	17	2
13	25	2
77	77	2
67	89	1
90	90	1
72	72	3
80	87	2
12	21	1
58	67	1
20	21	2
53	54	2
19	59	1
18	27	2
53	57	2
60	62	1
14	87	1
69	84	2
49	50	1
