104	104	5
89	89	14
28	35	2
27	35	3
133	134	2
87	87	15
158	161	5
42	42	8
118	118	4
90	91	3
79	79	4
105	106	5
4	4	6
90	90	11
137	140	2
118	121	2
143	144	6
73	98	4
24	61	5
157	157	3
13	15	4
83	83	7
61	61	1
85	85	7
0	1	2
93	93	4
14	14	7
169	169	14
13	13	13
66	66	2
127	157	2
12	12	2
167	168	10
116	116	6
68	68	6
114	114	8
95	96	4
179	179	6
146	146	11
177	179	5
82	82	6
114	116	3
60	60	4
162	163	9
53	53	12
176	176	7
61	62	1
164	164	10
84	84	3
158	158	4
37	37	10
78	78	3
134	135	4
27	30	3
29	29	4
106	106	4
44	46	3
43	53	1
119	119	7
133	133	4
124	124	3
117	127	3
84	85	6
58	58	6
68	93	3
48	48	6
136	137	4
64	64	5
110	110	3
67	68	3
38	38	11
123	130	1
44	44	1
11	11	2
32	32	11
43	43	8
101	101	10
22	62	5
141	141	10
96	96	1
74	74	5
44	47	1
151	151	8
19	190	3
56	56	4
3	3	4
178	178	8
40	40	13
136	144	2
17	18	6
26	65	4
2	2	10
130	130	2
33	35	4
117	118	4
67	67	7
149	150	5
13	16	1
39	39	9
182	183	1
142	142	8
173	173	5
86	87	2
93	94	6
77	78	7
54	56	5
5	5	3
187	187	3
101	103	4
7	7	10
66	67	10
70	70	4
129	129	6
20	21	2
120	145	2
128	128	8
158	159	3
1	1	3
149	149	6
126	126	11
28	29	3
86	86	9
111	124	4
15	15	7
73	74	2
20	20	9
126	127	8
151	152	9
47	47	6
120	120	3
31	31	4
109	109	8
123	123	2
120	122	3
113	115	3
163	163	1
88	88	12
47	48	4
118	120	6
144	144	6
62	62	4
118	122	3
108	108	7
99	99	4
111	111	3
114	115	4
112	112	8
8	14	2
73	99	8
153	153	1
30	31	2
75	76	1
107	107	8
97	99	4
109	111	2
43	44	4
132	132	4
148	149	1
136	136	3
120	148	8
28	28	5
137	139	1
108	109	2
4	5	1
57	58	1
98	104	3
125	125	4
143	143	7
140	140	8
35	36	9
188	189	4
116	125	1
97	97	8
134	134	6
24	27	3
69	93	5
122	122	10
129	131	1
0	0	5
117	117	2
73	93	2
83	84	2
150	151	4
159	159	3
147	149	8
21	21	3
189	189	1
33	34	4
137	137	7
143	146	2
10	12	2
185	187	4
174	175	4
59	59	6
15	24	3
77	79	1
6	6	8
124	127	1
63	63	6
168	170	2
15	41	2
57	57	11
71	81	1
36	36	11
139	139	5
172	172	3
14	52	2
137	143	4
21	22	2
17	23	1
96	97	1
164	184	2
84	89	2
74	75	4
81	81	4
25	25	7
71	79	2
22	24	3
125	126	3
117	121	4
111	112	1
116	117	3
106	107	2
168	179	7
36	40	1
55	59	3
115	115	7
150	150	1
106	112	1
162	162	2
55	55	9
63	67	1
34	35	2
71	77	2
95	95	3
166	167	3
189	190	1
65	65	1
138	139	1
85	86	8
73	73	6
70	71	1
54	54	2
23	23	9
53	57	1
131	132	3
138	138	4
113	133	1
152	152	10
56	57	3
94	94	2
13	14	3
131	131	6
63	65	2
27	28	1
17	17	2
118	162	3
65	67	2
27	32	3
12	14	1
72	72	2
103	103	7
30	30	2
1	2	1
69	70	1
73	96	2
40	41	2
113	116	2
18	18	5
161	163	1
79	80	1
128	130	2
145	145	4
104	110	2
54	55	3
89	90	1
98	98	7
103	104	1
76	76	2
178	179	4
161	161	4
156	161	1
69	80	3
127	127	3
75	93	1
117	122	2
99	101	2
34	34	1
129	130	4
22	63	2
125	127	1
100	101	1
16	23	1
29	42	1
96	98	2
23	25	2
75	98	3
24	87	1
145	149	1
154	154	4
148	148	3
22	25	1
141	142	1
167	167	1
101	102	3
135	155	1
166	166	2
188	188	1
132	139	1
92	93	2
16	31	2
16	16	5
43	48	3
171	171	2
30	33	2
135	141	2
27	27	2
76	98	1
24	24	1
78	79	1
174	174	5
80	108	2
101	104	1
102	102	2
75	94	1
105	105	3
157	158	1
152	153	2
185	186	2
30	32	2
110	111	3
112	113	2
176	177	1
188	190	2
74	90	1
77	77	2
153	154	2
32	38	1
60	64	2
80	80	2
107	108	2
81	82	1
165	165	2
183	183	1
8	8	2
167	190	1
170	170	1
94	95	2
72	74	1
75	75	3
17	34	2
175	175	1
28	48	1
58	61	2
122	123	4
23	24	3
83	94	1
160	161	1
25	26	6
36	37	1
60	61	1
166	170	1
89	119	1
71	72	1
74	94	2
71	71	5
132	133	1
147	147	1
41	41	1
61	63	2
72	100	2
28	36	1
185	185	3
71	89	2
30	40	2
57	59	1
18	19	1
104	128	1
34	41	1
94	103	1
172	173	1
142	143	2
181	183	1
16	18	1
121	121	3
78	82	1
85	88	1
113	113	2
100	107	2
140	141	1
37	48	2
127	128	1
101	128	1
181	181	1
90	94	1
123	124	1
116	122	1
9	10	1
22	22	4
144	146	1
22	23	1
126	128	2
23	90	1
118	148	2
97	102	1
165	166	1
45	46	1
116	127	1
99	100	1
121	130	1
176	179	1
96	116	1
128	157	1
142	144	2
177	177	2
119	120	1
55	56	2
160	163	1
172	174	1
124	131	1
113	140	1
31	64	2
10	10	2
139	140	2
103	134	1
130	138	1
170	171	1
155	157	1
98	100	1
19	19	2
82	83	1
58	60	1
43	47	2
187	188	1
46	46	1
102	103	1
140	145	1
163	164	1
184	186	1
29	32	1
103	110	1
71	86	1
132	141	1
69	69	1
103	128	1
