121	121	2
28	28	1
81	98	4
17	17	1
50	55	2
29	29	7
6	35	3
56	56	3
116	116	4
114	114	4
65	69	1
109	109	4
77	77	6
149	149	6
10	10	11
31	50	3
28	86	5
17	40	4
56	63	2
65	68	1
100	100	3
135	135	6
6	7	3
40	40	2
18	18	4
85	86	1
132	132	2
79	79	2
93	93	3
122	122	8
88	89	3
87	87	2
15	15	4
55	55	2
85	85	3
68	68	3
23	33	2
21	22	3
16	20	8
9	9	9
102	102	5
123	123	6
68	69	2
5	6	5
66	92	3
23	24	3
147	147	1
67	67	3
67	73	2
29	30	1
96	98	3
85	87	3
46	48	1
39	39	6
13	13	15
7	17	3
45	46	3
21	78	2
7	7	5
80	80	3
127	127	4
23	23	6
30	30	7
144	145	4
106	106	4
51	51	4
10	12	4
136	137	10
100	106	2
141	141	2
27	27	5
4	6	4
50	66	2
117	117	2
26	29	8
28	31	3
36	36	2
143	143	7
72	72	2
144	144	2
26	26	5
64	64	5
79	97	4
131	132	4
7	21	4
53	53	1
25	31	3
134	134	5
32	52	4
35	37	2
131	131	3
69	69	2
42	43	2
117	118	4
14	31	2
75	75	8
55	62	3
96	96	3
50	50	9
11	11	3
42	46	1
31	39	1
14	14	3
65	66	2
50	149	2
33	33	2
62	69	2
4	9	2
90	94	1
3	6	1
124	124	3
105	110	3
133	133	8
37	37	4
95	95	2
82	82	1
49	49	3
11	12	3
48	96	1
23	77	1
48	49	9
30	54	1
67	68	4
43	131	2
5	5	2
55	76	1
127	128	1
150	150	2
3	7	3
74	85	3
77	101	2
39	40	1
149	151	2
19	21	5
4	18	4
4	5	3
129	129	1
138	148	3
10	21	3
125	125	7
86	86	3
19	20	1
3	5	1
130	132	2
21	21	7
4	4	3
73	73	1
141	143	1
147	148	2
146	147	1
99	99	1
97	97	2
30	53	3
4	33	2
149	150	4
137	144	1
25	26	2
107	144	2
17	19	2
123	144	2
21	23	3
4	26	2
118	118	3
101	102	4
22	83	1
41	41	6
34	34	1
64	66	4
10	26	2
21	53	1
69	122	3
81	121	2
98	98	2
45	143	2
37	45	5
54	54	3
34	38	2
10	17	4
95	96	3
119	119	6
19	19	1
99	102	1
71	130	1
97	105	4
106	124	3
31	31	1
109	150	1
10	11	4
146	146	2
22	22	3
9	23	1
66	66	2
153	153	2
111	133	1
46	47	2
66	95	1
27	86	3
81	81	4
97	136	2
137	138	2
139	139	1
145	145	1
80	82	1
13	21	1
44	44	3
29	50	2
119	121	2
138	144	1
44	45	1
128	128	1
58	68	2
67	75	1
22	23	1
83	121	3
109	110	1
43	43	1
36	37	1
112	113	1
8	9	1
128	146	2
15	40	3
78	78	3
66	67	1
125	126	1
24	131	1
64	68	1
70	70	3
45	45	1
87	88	2
5	7	1
25	25	1
77	83	3
126	126	2
72	85	1
126	143	2
102	103	1
41	46	1
100	116	2
7	18	1
76	79	1
147	150	1
37	47	1
100	114	1
90	90	2
151	151	3
20	22	1
9	10	1
83	83	1
22	72	1
111	151	1
24	73	1
46	46	5
74	74	2
11	26	1
63	64	1
80	98	1
108	108	1
16	16	2
33	36	1
71	71	2
66	81	1
43	44	3
47	47	1
56	57	1
111	143	1
123	149	1
80	92	1
142	143	1
4	23	1
106	107	1
48	48	1
9	21	1
123	146	1
31	78	1
50	56	1
142	142	1
12	19	1
107	110	1
14	38	2
79	102	1
35	35	1
57	95	1
80	81	1
154	154	2
62	84	1
130	130	1
6	16	1
100	101	1
135	137	1
88	98	1
124	125	1
27	38	1
