193	194	3
15	18	1
232	232	10
189	190	5
206	206	3
63	63	4
155	155	5
195	195	5
56	62	1
49	49	5
55	55	6
42	42	7
75	75	3
65	65	5
167	167	4
194	195	6
179	179	5
17	17	4
85	85	6
163	164	2
37	38	7
220	227	1
66	66	5
168	168	3
211	227	1
209	209	1
67	67	6
3	3	3
78	78	7
223	223	1
199	200	10
35	35	1
48	52	3
19	19	7
183	183	6
142	143	4
53	54	4
38	38	5
157	158	3
230	230	1
124	124	2
47	69	4
20	20	5
190	191	3
184	184	6
191	191	5
221	226	1
241	241	4
10	10	6
224	225	2
229	229	2
77	83	1
9	23	2
107	119	3
204	205	2
26	43	3
69	69	17
207	207	1
88	89	2
60	60	1
222	225	9
224	224	4
11	11	10
240	240	4
73	73	8
67	68	3
172	173	2
129	130	2
163	166	1
135	136	1
213	215	4
206	210	1
196	197	1
82	136	3
169	169	1
69	70	5
218	218	7
235	236	1
32	106	1
176	176	2
171	171	1
211	211	5
122	122	4
37	37	16
36	36	15
164	167	1
208	208	2
96	96	8
225	229	4
133	166	2
75	137	2
151	188	3
107	108	1
37	120	2
3	6	1
32	163	2
61	62	3
96	97	6
80	80	2
181	181	2
18	124	2
105	105	3
170	171	3
36	38	4
82	104	2
18	105	5
234	235	2
156	161	3
114	114	2
77	77	3
234	234	9
131	132	1
86	86	8
116	116	2
103	103	1
64	64	4
46	46	9
113	113	2
108	108	1
180	180	1
125	125	3
82	82	2
83	83	3
123	126	5
0	0	7
26	28	1
98	100	2
33	163	3
198	198	4
214	214	3
231	231	5
219	219	1
64	65	4
207	208	1
120	123	3
217	217	3
31	31	5
1	1	3
1	3	3
225	226	1
5	13	2
84	102	4
21	21	6
71	71	4
139	160	3
226	227	1
4	20	1
48	48	4
61	74	3
58	59	1
150	152	1
52	52	1
228	228	6
148	148	3
205	206	1
234	236	2
127	127	1
131	131	1
10	85	2
150	151	1
18	36	1
59	75	2
24	24	3
84	84	3
160	161	6
151	151	2
8	9	3
223	224	2
5	6	3
70	70	7
51	51	2
119	119	1
201	201	2
43	43	8
43	71	5
107	115	4
160	160	2
42	45	1
88	88	1
15	125	1
48	76	4
145	145	1
153	153	3
38	39	5
163	163	4
134	166	1
200	200	1
9	9	6
82	86	1
39	39	1
215	215	4
15	99	1
178	178	2
61	61	5
123	125	1
27	27	10
161	161	2
78	79	1
99	99	3
6	6	5
98	98	3
62	75	3
1	129	1
230	231	1
187	187	1
145	190	2
139	139	1
28	29	2
104	116	1
138	139	2
22	22	2
128	137	3
77	79	3
19	21	4
71	72	1
236	237	4
139	159	1
41	41	1
242	242	1
133	133	1
34	34	3
83	128	4
28	28	3
129	129	1
15	15	1
227	227	5
120	120	2
224	230	1
33	33	3
177	177	2
128	129	1
18	18	1
191	197	2
8	12	1
100	102	3
237	237	1
1	40	1
57	57	1
144	144	1
187	189	1
43	46	1
44	54	1
2	2	1
57	65	1
85	86	2
54	54	2
159	159	1
23	25	1
115	118	1
26	26	3
133	134	1
4	4	3
115	115	1
79	101	2
176	177	2
136	138	2
81	82	2
190	190	1
57	59	1
10	11	1
19	20	1
148	149	2
68	68	1
158	158	2
102	102	1
0	2	2
184	205	2
57	58	1
35	40	2
209	210	1
221	222	2
205	205	1
58	63	2
126	126	2
128	128	1
89	89	1
139	149	2
228	229	2
233	233	1
183	189	3
173	173	2
42	113	1
174	175	2
150	150	1
143	143	3
220	220	1
121	137	1
59	59	1
122	125	1
140	140	2
76	77	1
0	18	1
124	125	2
4	17	1
226	226	1
151	238	1
54	75	1
99	135	1
239	239	1
7	8	1
209	211	2
45	45	2
147	170	1
78	80	1
44	44	1
14	14	1
16	17	2
179	192	1
30	31	1
42	44	1
5	14	1
218	228	1
45	46	1
123	127	1
196	196	1
121	121	2
179	182	1
97	97	1
