11	11	2
96	96	4
97	97	9
72	72	14
26	27	9
29	30	1
71	96	1
81	81	3
122	122	10
56	56	4
43	43	8
7	7	6
111	111	14
104	105	7
38	38	9
27	27	6
129	130	5
15	41	11
45	53	3
54	54	6
2	2	4
15	15	11
41	42	3
13	13	8
26	26	7
105	112	3
58	58	5
66	98	2
70	70	8
112	112	5
120	131	2
129	129	5
107	108	2
86	86	5
105	105	13
12	38	7
39	39	4
50	50	6
49	49	5
98	98	12
100	100	2
24	24	15
3	43	3
19	19	2
107	112	2
84	87	2
10	10	7
103	108	11
132	132	2
77	77	6
99	126	3
123	123	4
106	106	3
52	100	2
102	102	6
48	56	3
6	6	2
21	21	4
93	125	3
46	60	3
16	17	1
45	45	8
98	100	2
128	128	8
67	67	3
85	85	3
89	89	3
110	110	3
52	52	7
102	103	4
34	34	4
28	28	2
133	133	9
122	123	3
44	44	5
69	79	3
0	0	5
118	127	3
126	128	5
29	31	3
107	111	1
88	95	1
2	3	5
5	5	4
32	79	1
7	14	2
120	120	5
116	117	2
8	8	7
33	33	3
124	124	6
96	97	3
57	57	6
44	45	5
59	60	6
66	95	4
68	69	1
21	43	4
99	99	1
118	118	2
58	115	3
49	122	1
125	131	5
73	74	3
18	18	4
101	101	8
65	65	7
2	5	5
103	104	1
60	71	1
68	78	2
12	12	8
82	82	6
108	116	5
62	100	1
14	42	2
66	90	1
66	68	1
17	38	1
72	75	2
77	79	1
28	30	2
39	40	3
126	126	3
117	117	4
32	32	5
92	92	1
41	43	4
72	73	4
47	47	3
102	114	2
58	61	1
72	74	2
30	30	2
75	75	3
97	114	3
48	49	2
88	88	2
90	91	3
87	88	4
11	20	1
31	31	9
59	59	4
52	53	4
14	15	2
15	19	1
93	112	3
40	40	1
23	24	3
70	72	1
40	81	1
67	68	2
46	46	3
26	61	2
41	41	2
124	125	1
84	85	1
93	94	1
69	89	2
69	83	1
4	4	3
113	113	2
4	5	1
30	116	5
114	114	3
109	116	2
97	99	3
87	87	1
18	19	1
17	17	3
42	42	4
84	105	1
61	61	1
117	118	3
60	68	2
65	66	4
71	71	1
127	128	1
76	76	2
86	125	3
46	47	1
90	102	2
69	70	2
63	63	4
25	25	1
68	76	1
78	78	2
114	117	1
95	112	2
22	22	1
83	83	2
105	107	2
9	9	2
93	109	3
61	62	3
70	71	3
131	131	1
85	86	1
97	129	2
62	63	1
74	74	2
48	48	2
55	55	3
80	80	1
23	30	1
112	123	1
34	38	2
83	84	5
108	108	3
127	127	3
99	127	3
52	101	1
64	104	1
125	125	2
85	87	1
4	43	2
104	104	1
84	84	2
116	118	2
109	110	1
74	75	1
101	129	1
109	125	1
69	88	1
99	101	1
94	94	2
95	95	1
64	64	1
119	119	1
54	56	1
90	90	3
27	28	1
50	53	1
113	117	1
118	119	1
3	44	1
13	15	2
60	61	1
1	1	2
59	69	1
