26	27	11
78	79	6
32	52	1
108	108	18
34	41	3
47	48	13
28	28	16
36	36	15
94	94	6
30	31	9
92	110	3
80	85	3
41	41	11
81	81	12
79	79	5
22	23	4
26	26	21
62	64	1
39	41	3
73	73	20
46	46	14
45	45	21
75	75	8
114	114	12
85	85	13
74	74	26
94	97	2
44	44	23
95	95	24
64	64	11
72	72	6
113	113	11
44	51	4
80	80	10
105	105	10
42	42	16
24	25	8
81	88	3
27	27	13
66	91	1
82	91	2
21	21	13
39	39	21
22	22	16
36	37	9
33	41	3
52	52	19
104	105	5
20	44	7
31	52	4
44	45	11
58	59	10
112	112	13
113	114	6
53	53	7
40	40	9
68	69	10
106	106	7
29	29	16
34	34	9
91	100	1
59	60	4
63	71	1
33	40	1
97	100	6
46	47	1
78	78	25
47	47	10
38	38	14
58	58	9
22	29	3
51	52	10
55	55	13
81	82	1
60	61	3
24	24	8
86	108	2
94	96	3
62	62	3
43	43	26
87	87	5
105	106	11
98	98	10
78	95	4
89	89	11
50	50	18
103	104	3
38	39	7
111	111	17
49	49	28
38	72	3
54	55	4
109	109	13
59	59	15
65	66	4
43	44	17
99	99	16
50	51	4
91	91	24
53	54	2
42	45	1
80	81	2
73	74	13
27	28	13
37	38	4
61	62	3
30	39	1
51	51	29
33	55	1
42	43	3
48	48	12
21	31	2
29	32	1
108	109	6
90	90	6
45	48	9
35	35	4
95	96	6
33	33	10
37	37	13
29	55	2
101	102	6
101	101	15
42	44	4
56	57	11
59	61	3
54	54	7
76	76	10
75	92	1
70	70	8
92	92	8
88	88	6
93	93	7
48	49	4
65	65	7
19	22	2
38	67	3
61	61	5
96	96	20
98	99	5
89	101	1
36	67	3
35	36	3
88	98	1
100	100	12
30	33	4
103	103	7
20	20	4
41	48	1
57	57	4
102	103	3
57	58	5
82	83	8
55	57	4
60	60	8
110	110	19
56	56	4
21	45	3
112	114	1
23	63	1
59	62	2
70	71	2
28	29	7
93	94	5
84	107	2
105	107	1
102	102	9
63	65	2
84	85	4
34	35	4
71	72	6
107	107	16
41	43	3
32	32	10
85	86	5
34	37	5
24	27	4
22	31	3
84	84	4
89	90	6
104	107	7
53	56	1
21	29	2
91	95	7
107	108	4
112	113	4
65	72	1
63	63	5
48	50	1
66	70	4
99	110	3
91	92	3
36	54	2
114	115	2
30	30	11
23	23	10
100	101	8
78	89	1
28	33	3
95	97	2
39	73	1
82	99	2
97	99	2
90	91	11
79	80	4
80	97	2
40	42	2
49	52	2
67	67	5
39	70	3
39	40	4
30	57	1
96	97	2
93	112	1
19	19	4
82	98	3
104	104	4
21	42	1
68	68	6
60	62	2
92	95	2
22	67	2
101	103	3
99	100	2
97	97	5
22	62	1
30	42	2
66	66	4
39	67	2
109	110	3
83	84	7
69	70	3
77	77	7
34	36	5
25	25	8
29	39	3
28	58	1
62	73	2
67	68	4
58	60	1
85	87	2
66	67	5
76	77	6
106	107	3
55	72	3
82	84	1
88	89	8
81	83	1
25	26	3
53	57	4
101	108	1
76	79	3
78	81	4
19	29	2
102	105	2
64	65	3
69	69	5
104	108	1
20	21	2
77	95	2
63	68	3
43	52	3
80	87	2
34	72	2
22	66	1
88	99	1
86	87	2
33	35	5
92	93	2
77	94	2
79	96	1
34	74	2
38	73	1
32	33	3
72	74	5
71	71	3
33	34	6
78	93	2
35	74	3
54	60	2
66	68	5
33	73	2
40	41	1
28	56	1
45	46	4
55	71	4
22	26	2
33	53	3
83	86	2
22	30	1
92	111	1
43	45	2
64	68	1
107	109	2
63	64	4
21	22	2
65	69	2
39	71	3
101	105	2
85	107	1
75	94	1
34	100	1
82	82	1
23	24	4
76	94	2
92	96	3
22	60	4
54	56	4
43	74	2
87	88	3
41	42	5
53	55	2
31	31	6
27	58	2
86	86	5
49	51	1
75	76	1
25	66	1
37	53	2
42	73	1
31	32	2
20	67	2
73	78	2
26	61	1
80	82	1
97	101	1
81	86	1
65	68	1
34	73	2
91	101	2
31	72	1
111	112	1
24	26	1
76	78	2
53	75	1
102	106	1
34	55	1
47	49	4
27	30	1
41	45	2
78	94	2
83	83	1
57	81	1
79	97	1
90	103	1
32	71	1
110	111	1
79	81	1
30	32	1
24	93	1
30	63	1
31	70	1
77	97	1
63	72	1
22	28	1
93	110	1
35	53	1
30	61	1
49	50	1
