31	31	68
21	40	1
41	41	41
17	43	3
33	33	38
43	43	58
44	45	11
35	35	63
28	28	35
28	29	28
18	18	49
17	17	52
46	47	15
45	45	62
29	30	22
35	36	17
46	46	49
38	38	63
25	26	22
25	25	50
22	26	8
16	16	42
42	42	36
21	21	35
39	40	21
27	27	46
47	47	42
28	34	7
26	27	11
24	26	10
23	23	40
18	41	7
20	24	10
23	24	50
17	20	1
44	44	44
21	33	1
24	24	40
44	47	1
19	19	32
36	36	77
39	39	61
41	42	9
29	29	41
37	47	2
17	18	9
32	33	14
42	44	2
22	22	44
34	34	84
19	23	7
26	32	7
33	36	3
19	20	18
21	23	3
30	30	52
18	19	9
20	22	5
21	32	1
37	37	58
15	16	17
11	26	2
22	23	9
40	41	9
40	43	4
20	20	60
23	34	5
22	40	7
33	35	9
21	22	17
40	42	6
37	38	27
32	32	44
40	40	74
16	18	10
26	26	49
22	25	7
41	43	2
36	37	26
32	42	7
15	15	28
10	36	7
22	24	17
28	33	15
24	25	13
27	28	13
31	32	36
30	31	29
40	47	5
25	34	2
31	34	6
34	35	26
15	21	2
11	27	1
35	37	10
38	40	5
17	26	3
21	24	6
33	34	11
48	48	8
29	43	1
28	31	2
19	29	2
21	25	1
17	25	2
20	25	5
28	30	5
36	38	8
33	45	2
30	32	4
43	44	11
42	43	11
20	26	4
18	43	3
21	27	1
38	39	8
39	47	3
16	32	1
16	41	4
45	46	12
28	47	2
15	17	3
32	41	2
29	32	3
21	28	4
35	46	3
20	30	1
38	46	2
37	39	3
33	46	1
27	30	2
18	24	2
19	26	3
47	48	3
18	20	1
27	29	5
18	35	4
19	22	11
11	11	7
19	31	2
19	21	8
19	24	2
24	31	2
29	31	3
27	32	3
21	26	4
27	38	2
23	25	2
30	47	2
16	40	2
25	31	3
18	42	3
30	36	3
30	38	3
44	46	4
26	47	2
24	29	5
31	42	1
25	30	1
29	33	2
20	21	9
29	35	1
34	44	2
29	41	1
21	31	4
17	28	3
10	14	2
17	22	1
31	41	2
16	43	2
30	43	4
39	46	1
37	41	1
19	28	2
27	43	1
34	39	3
11	42	2
39	42	1
25	38	1
26	28	2
16	33	1
23	28	2
34	36	1
14	16	1
25	27	1
28	43	2
17	38	3
26	31	1
38	45	1
37	42	1
33	40	2
26	41	1
19	42	2
43	45	2
23	26	1
32	46	1
24	41	1
36	39	1
33	42	1
20	23	2
20	27	1
26	40	1
28	35	1
18	38	1
16	23	2
18	25	3
45	47	1
36	41	1
25	43	1
37	40	1
36	43	1
29	37	1
