44	91	3
32	32	14
40	40	9
90	120	1
99	100	4
117	121	1
6	7	4
1	1	6
105	106	1
0	0	4
127	127	8
70	70	9
3	5	2
58	58	6
39	78	4
112	112	7
131	132	5
83	84	2
131	131	7
95	95	3
19	20	2
104	105	7
23	23	4
71	71	3
75	76	5
21	21	10
113	113	2
41	42	8
44	68	2
53	53	12
19	19	6
118	119	8
4	4	1
54	54	5
90	91	6
59	59	5
59	60	1
44	44	17
84	84	8
41	41	13
73	73	2
77	77	6
104	104	11
65	65	9
46	47	6
107	107	17
40	89	2
7	8	4
103	103	6
11	53	3
57	57	5
70	71	2
62	68	2
90	90	6
100	100	6
94	94	4
120	120	7
117	117	6
115	116	2
127	130	3
73	81	2
49	49	8
101	101	10
66	66	5
126	126	5
126	127	2
2	2	7
79	79	4
77	107	6
76	115	4
50	50	2
97	97	13
69	69	11
133	133	1
82	82	8
94	95	1
68	68	6
80	80	5
66	67	2
21	24	3
91	91	3
39	39	6
61	61	4
44	45	5
116	117	2
16	30	2
10	10	3
60	60	4
118	120	4
78	79	4
92	92	3
63	63	8
108	108	7
98	98	4
68	69	2
25	25	2
122	122	8
114	114	5
102	105	1
7	7	7
42	42	1
74	75	3
5	6	2
123	124	3
13	13	2
91	99	5
79	80	11
96	96	8
1	2	4
87	87	2
60	62	6
6	6	4
4	5	5
62	62	9
12	12	3
47	47	9
91	92	2
83	83	5
20	83	4
5	5	2
11	11	5
22	22	3
97	98	3
37	38	3
124	125	3
21	96	3
111	112	7
116	126	3
48	48	6
119	119	7
67	68	1
22	32	5
78	103	2
87	88	2
63	68	1
130	130	4
5	8	1
89	89	2
105	105	7
41	44	3
125	127	4
40	44	1
17	17	5
124	124	1
93	93	5
29	29	5
56	56	4
13	41	2
11	21	3
21	91	1
52	52	5
45	47	1
73	82	2
23	24	1
38	39	1
93	95	1
111	111	5
51	51	3
46	46	10
69	72	2
33	33	4
13	14	1
38	74	4
24	31	4
54	56	1
72	73	2
52	53	3
38	38	5
17	18	1
46	55	1
117	118	3
75	75	1
128	128	3
43	44	1
68	106	1
117	125	3
93	94	2
55	55	4
26	46	2
20	20	1
13	42	1
58	65	3
15	15	2
64	64	4
130	131	1
85	86	5
72	74	1
58	59	2
65	114	2
72	72	3
59	63	1
27	27	1
132	132	2
81	82	1
113	117	1
129	129	2
31	31	2
58	64	2
76	76	2
42	43	3
82	98	1
63	64	2
88	89	1
126	130	1
24	24	1
81	81	1
127	128	1
58	88	2
92	96	1
9	9	3
99	102	1
73	129	1
62	65	1
40	45	2
61	102	2
109	117	1
11	86	1
115	115	1
51	52	1
68	96	1
127	131	1
64	65	2
83	93	1
99	99	1
78	78	3
102	104	2
72	75	1
16	16	2
82	83	1
3	3	1
43	43	1
107	108	1
109	109	2
68	103	2
26	26	1
58	76	1
62	67	1
