73	73	6
113	113	7
103	103	6
104	104	9
99	99	4
40	40	8
65	68	4
22	22	5
72	72	16
80	100	3
51	51	8
77	78	3
58	58	5
87	87	8
73	74	4
47	47	7
62	62	10
70	70	8
29	29	9
41	41	17
78	78	8
24	24	2
25	26	2
30	30	8
66	99	4
94	94	6
39	39	3
64	64	11
71	71	2
54	54	1
85	85	13
33	33	23
89	91	11
36	36	9
92	105	3
93	93	7
69	69	8
49	49	5
33	38	2
96	96	10
77	77	4
91	91	5
43	43	9
64	65	4
32	85	3
27	58	7
27	27	12
35	36	3
56	56	13
107	107	7
57	100	4
59	59	5
45	46	2
53	55	2
80	80	8
88	91	3
44	44	10
96	97	1
75	75	13
76	77	2
27	85	2
31	31	14
24	47	1
84	84	9
25	49	3
75	76	5
102	102	11
72	73	10
25	25	2
106	106	8
57	93	1
48	48	12
26	45	1
102	103	5
112	112	9
71	72	1
98	99	1
40	41	8
68	69	2
95	95	10
37	37	8
76	76	5
55	55	4
36	39	3
26	80	4
88	88	11
26	26	6
52	52	2
65	65	7
109	109	8
63	63	2
98	98	2
89	89	3
68	68	4
57	57	3
21	21	7
100	100	6
60	60	5
25	96	1
79	79	7
35	35	2
108	108	5
54	55	5
86	86	2
90	91	3
23	23	1
45	45	2
80	97	1
22	23	3
114	114	4
34	34	5
103	104	3
77	81	1
84	98	2
39	49	4
69	100	1
34	39	3
50	51	2
65	66	1
97	97	3
74	74	8
67	97	3
54	103	3
31	32	2
22	58	2
70	72	1
83	84	3
26	97	2
83	83	4
27	31	4
89	98	1
99	100	4
79	80	3
26	78	1
61	61	3
42	42	1
37	94	2
83	103	2
38	39	1
20	23	1
105	107	1
76	95	2
54	57	3
81	94	2
26	27	1
81	95	1
94	95	2
47	49	3
20	20	3
84	105	4
34	35	5
50	50	6
42	43	1
55	56	1
70	78	3
24	80	1
55	104	2
81	101	1
26	53	2
67	70	1
56	57	2
71	75	1
92	95	2
48	89	3
59	60	1
32	32	1
61	62	2
67	67	1
110	110	1
31	98	3
85	87	1
100	101	4
70	71	2
88	89	2
45	49	1
60	68	2
53	77	1
26	31	1
78	80	1
27	28	1
97	98	1
83	100	1
49	52	1
42	44	1
106	109	1
32	43	1
51	52	1
78	79	1
107	109	1
29	90	1
28	29	1
