55	56	4
52	72	2
5	23	1
49	49	8
23	40	1
7	8	6
25	25	12
18	19	4
0	1	3
64	65	3
72	72	4
63	63	5
33	34	5
20	20	13
18	68	3
73	74	6
4	5	7
4	51	2
42	42	13
19	19	4
26	68	1
23	23	7
12	13	1
27	27	7
60	60	5
10	10	11
24	25	1
24	24	14
9	9	3
11	11	13
21	21	7
71	71	3
24	27	5
35	37	7
40	76	2
61	61	5
65	66	4
1	66	5
42	44	3
7	38	1
50	50	10
13	13	12
60	75	2
26	53	4
32	77	4
65	67	6
70	70	6
66	68	4
35	36	2
3	47	1
33	33	3
43	44	3
53	53	11
50	52	1
10	11	8
29	29	7
22	69	5
73	73	12
24	29	1
31	31	5
62	62	5
45	46	4
25	26	2
37	39	3
40	52	4
5	6	3
37	38	4
61	62	2
58	66	1
57	57	6
12	12	5
56	74	2
30	31	1
70	71	1
48	48	12
52	52	9
28	30	3
5	5	9
26	27	6
27	31	1
8	8	10
5	36	3
19	48	2
36	36	5
25	40	2
48	51	6
64	64	5
28	34	1
6	10	3
53	77	2
56	57	3
33	41	1
62	63	1
24	41	2
49	51	4
1	2	5
29	49	5
38	38	7
67	67	6
24	69	3
33	42	7
59	59	1
77	77	7
27	70	4
0	0	4
28	29	2
7	7	4
6	36	1
2	2	11
50	59	6
3	3	8
6	6	8
64	67	1
56	56	4
1	1	3
0	12	2
59	74	3
73	75	4
43	43	7
10	13	2
3	54	2
30	30	3
69	69	4
62	73	4
24	47	3
32	33	4
0	24	1
18	18	4
21	77	2
22	66	2
34	42	2
43	72	1
0	2	1
68	68	3
39	39	7
35	35	5
58	58	3
43	47	2
32	49	5
28	28	3
5	11	2
26	26	2
40	71	4
4	4	6
29	30	2
51	59	1
9	10	1
7	37	3
13	29	1
25	41	3
35	41	1
47	47	6
25	27	2
3	51	3
67	75	2
63	64	1
5	10	2
38	39	5
61	68	2
2	48	1
37	37	7
1	24	2
54	55	1
58	59	2
21	76	2
67	74	1
52	57	2
49	50	3
25	50	2
55	74	2
55	55	3
4	30	1
24	60	2
5	13	2
53	76	4
20	21	1
76	76	1
44	44	1
6	8	3
6	39	1
41	42	2
22	22	2
75	76	1
52	55	1
4	54	2
32	32	3
41	41	2
1	13	2
14	14	2
29	34	2
43	54	2
47	60	1
4	11	1
1	10	1
39	42	1
26	42	1
22	23	2
40	70	2
41	68	1
42	72	1
51	51	1
56	77	1
23	66	1
6	11	1
65	65	1
26	31	1
63	74	2
46	77	1
26	29	3
46	46	3
19	21	1
11	12	1
74	74	1
37	42	1
7	9	1
5	22	1
45	45	1
33	50	1
3	44	1
32	54	2
75	75	1
23	68	1
