85	85	15
123	123	22
127	127	15
112	112	18
128	128	19
90	90	12
72	92	6
64	76	3
119	119	27
81	81	17
72	72	12
19	19	11
100	100	10
88	89	6
85	86	12
102	102	22
107	107	19
58	58	3
97	98	8
18	22	3
60	60	17
4	4	9
120	121	3
31	31	15
46	46	25
49	49	27
112	113	7
30	30	19
78	80	6
0	0	17
91	91	19
88	88	16
39	39	14
58	59	8
122	124	6
2	4	4
15	106	4
54	54	30
79	80	21
46	47	6
33	34	7
29	30	5
15	15	17
88	90	1
27	27	13
12	40	2
80	80	8
50	51	10
55	55	28
27	69	5
44	45	7
87	87	7
52	124	4
110	110	29
5	5	25
10	61	3
43	43	21
68	68	7
52	52	36
10	10	21
108	108	10
118	118	26
17	21	3
6	6	14
42	43	14
44	76	1
16	17	5
63	63	26
91	92	9
16	18	4
13	13	11
44	129	12
18	18	12
28	28	11
63	115	2
133	133	17
29	29	12
94	95	11
50	50	13
22	22	9
24	24	6
111	119	5
130	132	1
90	91	13
121	121	20
115	115	13
84	98	9
108	109	8
68	99	4
89	92	3
59	61	9
124	124	26
56	56	16
91	99	1
58	131	2
21	22	4
44	44	15
40	40	20
117	117	22
100	103	2
64	64	17
51	51	17
66	68	2
83	83	19
99	99	13
70	70	24
114	114	18
1	1	16
43	54	1
111	113	4
113	113	5
77	77	13
95	95	19
96	96	4
125	125	5
42	42	13
77	78	16
69	69	6
128	130	3
48	49	6
7	7	20
65	66	9
132	132	5
76	76	13
55	131	1
79	81	4
73	73	9
45	61	2
20	65	1
63	64	1
71	71	10
71	87	1
83	84	13
68	97	3
66	66	12
93	94	5
97	97	6
41	68	1
122	122	23
38	38	6
94	94	25
104	126	4
45	46	12
13	14	6
104	108	2
111	112	9
101	103	3
126	127	14
59	59	14
39	49	2
47	47	13
89	89	23
79	79	12
27	31	3
100	127	2
113	114	5
104	104	13
111	111	23
117	118	6
23	73	2
14	14	13
50	52	2
118	127	2
38	39	7
15	133	4
100	102	10
72	93	3
67	67	11
92	92	22
48	48	9
51	52	11
114	116	12
3	3	25
41	41	17
87	90	5
86	87	17
121	122	10
98	98	5
131	131	6
15	16	9
8	9	5
41	42	11
78	78	10
27	28	4
62	78	2
53	53	29
2	2	17
10	12	1
54	55	6
16	16	8
114	115	6
48	50	2
101	101	16
5	6	5
101	104	3
70	71	2
23	38	2
84	84	17
120	120	16
74	74	10
26	26	9
7	10	3
5	52	2
75	86	1
105	105	10
86	86	8
21	21	15
115	116	5
45	45	11
131	132	5
59	62	7
39	40	3
40	69	1
57	57	10
109	109	10
75	97	2
103	103	13
69	71	3
25	25	8
98	103	2
72	86	1
75	75	11
17	34	3
98	99	1
66	67	1
91	100	1
59	63	10
13	96	1
26	27	3
101	102	3
105	106	9
89	90	8
125	126	7
24	31	2
78	79	6
42	45	2
3	4	8
62	63	4
125	127	2
83	85	2
76	77	7
52	53	3
106	106	7
116	116	10
1	117	3
33	33	11
124	125	5
53	54	5
71	72	2
39	65	3
7	50	1
61	61	4
45	47	5
8	8	15
129	130	6
107	132	1
97	113	6
102	103	2
40	43	4
83	92	4
109	110	6
5	118	3
82	83	9
84	85	4
25	27	3
75	77	6
116	118	8
53	124	5
88	91	2
129	129	7
123	124	6
118	120	4
11	12	5
41	81	2
129	131	4
91	93	7
39	43	1
22	23	6
67	68	2
9	9	2
85	96	4
93	93	13
10	11	2
62	62	7
85	88	1
130	130	8
123	125	2
32	32	11
18	19	7
107	108	1
23	24	12
99	100	12
92	93	7
17	17	7
39	83	3
44	46	4
69	97	1
77	79	1
104	125	2
40	130	2
11	11	7
9	15	3
2	5	1
28	29	5
24	25	3
75	79	3
64	65	1
106	107	3
55	56	2
18	21	4
15	17	2
100	101	5
27	29	1
126	126	5
82	82	14
30	59	4
73	74	2
2	3	4
95	96	2
20	21	2
0	3	4
0	1	5
75	76	5
98	100	3
87	88	6
108	131	4
0	2	1
84	99	3
104	105	6
38	40	7
28	32	4
7	24	5
125	131	1
6	20	1
38	82	1
12	12	5
78	91	1
122	123	5
41	44	1
14	15	9
80	81	5
4	5	5
92	94	1
19	22	2
12	13	3
74	75	4
51	53	4
58	61	1
40	90	1
13	54	2
89	91	2
17	127	2
19	20	3
15	129	1
118	119	3
17	18	2
116	117	5
127	131	1
65	65	5
83	87	2
92	101	5
4	6	3
126	128	2
131	133	2
11	14	3
72	73	3
20	25	1
45	130	3
2	116	2
59	60	6
79	84	3
29	31	7
73	78	2
47	58	2
8	50	1
47	48	1
69	98	3
1	4	2
68	72	1
98	102	2
49	50	4
60	61	1
81	84	2
6	52	1
49	52	2
21	23	2
31	32	4
74	77	2
43	44	4
94	108	2
83	101	1
82	88	2
102	104	1
68	69	1
71	118	1
61	63	1
12	14	1
47	109	2
64	67	2
114	118	1
48	110	1
66	82	2
23	23	1
17	108	1
19	21	1
85	89	3
58	60	2
22	24	3
48	64	2
69	96	3
81	82	6
69	70	1
14	18	1
48	125	1
57	59	2
46	110	1
65	68	2
7	8	1
25	48	1
38	81	1
96	97	1
34	74	1
28	71	1
20	50	1
132	133	1
85	91	2
19	25	1
127	129	1
52	54	2
18	106	2
3	20	2
39	47	2
41	43	1
66	74	1
4	9	1
84	90	2
3	5	2
43	105	1
20	20	2
41	45	1
83	99	1
104	106	1
24	34	1
25	26	2
112	132	1
45	62	1
45	48	2
100	111	1
52	61	1
34	34	2
125	128	1
3	26	2
46	49	2
85	87	1
66	78	3
114	117	1
9	61	1
104	107	1
1	26	1
1	2	1
68	83	1
39	60	1
17	75	1
103	104	1
38	128	1
