60	60	8
83	83	12
94	94	6
74	74	19
28	28	5
33	33	12
23	24	2
31	31	9
61	62	7
98	98	17
81	81	15
22	22	12
36	37	4
74	75	5
52	52	7
77	77	7
29	29	3
93	93	14
69	69	14
85	85	3
91	91	10
41	42	2
97	98	3
44	44	8
71	72	8
95	95	10
35	35	7
70	70	7
62	64	5
42	42	4
67	96	2
106	106	10
43	43	9
62	63	5
39	39	12
83	85	4
57	57	16
103	103	12
61	61	17
70	79	3
42	45	2
89	89	9
98	99	4
48	48	6
63	63	11
43	94	4
32	33	1
24	24	13
105	105	6
35	73	5
52	53	5
100	102	8
65	79	2
59	59	4
65	92	1
102	102	10
53	54	3
21	21	7
83	87	2
80	81	6
29	39	1
63	64	4
55	55	7
75	75	16
100	105	3
26	26	5
51	51	14
88	88	15
55	74	3
64	65	2
40	40	6
72	72	9
48	78	5
42	43	8
96	96	14
50	51	2
20	98	2
101	101	12
32	32	9
68	68	10
37	37	10
92	94	1
26	58	3
33	106	1
96	99	2
31	33	1
87	87	13
38	38	5
71	71	1
86	94	3
73	73	8
25	25	6
67	67	3
64	64	9
45	45	7
50	50	19
41	41	4
34	34	14
92	92	6
37	39	1
30	30	7
20	97	2
81	97	2
104	104	8
85	99	1
65	65	3
28	29	3
62	62	6
70	71	1
56	56	12
35	39	2
40	41	1
33	34	5
34	35	1
25	29	1
25	57	2
57	62	4
27	27	8
66	66	4
40	72	1
48	76	1
68	69	1
80	80	9
74	76	2
41	89	3
46	46	8
23	23	9
20	21	4
89	92	4
89	91	1
38	39	2
96	102	2
37	77	1
43	45	1
76	76	3
65	68	1
79	81	5
83	84	1
90	90	6
79	79	2
86	87	2
72	73	3
22	41	2
55	77	1
25	60	1
26	28	1
54	54	5
38	103	1
58	58	3
101	102	3
95	96	5
27	32	1
28	43	1
29	30	7
48	79	2
79	90	1
76	77	3
61	64	1
31	32	2
21	24	3
88	90	4
21	60	3
25	27	1
73	74	3
20	20	2
76	96	4
53	53	1
81	93	1
21	25	1
82	85	1
65	97	1
41	44	3
54	56	2
35	36	2
22	23	2
68	96	1
46	82	1
36	36	8
97	99	5
97	97	4
47	47	4
45	46	2
26	30	1
65	66	1
39	41	1
49	49	6
99	99	2
26	27	1
30	65	1
78	78	1
20	99	1
36	101	2
82	82	3
82	87	1
20	61	1
44	45	2
65	94	1
33	94	3
39	42	1
104	105	2
30	64	1
79	80	3
28	30	2
82	83	1
36	44	1
50	73	2
68	105	2
100	100	1
52	55	1
85	87	1
56	57	1
67	95	1
46	47	3
57	60	1
78	98	1
21	23	1
63	70	1
73	103	1
82	90	1
22	65	1
71	73	1
57	59	1
54	55	4
20	44	2
92	93	2
38	100	1
52	54	1
78	79	1
20	24	1
57	81	1
89	90	2
57	72	1
86	86	1
37	50	3
107	107	1
30	98	1
90	107	1
59	73	1
89	107	1
25	56	1
29	98	1
89	106	1
38	75	1
88	93	1
