126	128	5
78	117	5
69	69	23
27	27	24
129	129	9
42	42	8
12	12	41
46	46	21
3	6	10
95	96	12
111	111	24
90	90	4
18	18	8
103	116	6
10	10	16
6	6	34
52	52	32
130	130	21
103	104	2
124	124	28
5	16	7
52	53	27
125	125	40
129	131	3
126	130	4
6	55	1
121	121	19
123	124	5
77	83	3
44	47	7
3	28	1
60	60	9
40	44	4
110	110	39
28	40	5
101	102	18
109	109	25
45	46	6
50	50	39
19	50	4
42	44	4
112	120	7
54	54	21
83	83	11
107	107	19
113	131	4
122	122	13
113	113	28
94	94	16
96	96	17
24	24	19
92	94	1
76	76	16
117	118	5
83	87	4
102	102	28
41	41	10
26	28	4
98	98	15
66	78	4
75	87	3
51	51	33
108	108	17
39	39	20
73	112	2
25	26	2
82	82	9
120	120	27
106	107	6
2	3	12
39	41	3
88	88	41
26	26	8
28	43	8
93	93	15
100	100	22
112	113	6
0	0	6
71	72	4
65	68	6
47	47	36
104	105	11
68	68	22
43	43	9
16	16	20
100	116	4
25	25	6
71	71	14
108	109	5
77	77	5
1	33	2
64	64	14
55	55	32
68	76	4
11	45	4
74	74	5
84	84	2
22	23	12
82	83	14
101	101	8
32	33	9
115	115	13
50	54	5
1	1	23
29	29	8
114	114	9
116	125	2
15	16	6
96	111	3
67	68	2
76	78	3
82	84	4
123	123	21
62	67	3
126	127	18
1	7	3
44	44	15
59	64	4
117	117	11
102	104	9
23	23	7
41	42	11
79	82	3
45	45	10
21	23	1
57	57	29
79	79	24
28	54	5
61	62	6
58	60	2
113	125	5
129	130	4
78	78	10
128	129	2
69	76	3
92	93	7
91	91	4
19	19	11
56	56	31
2	2	16
83	84	3
89	89	12
49	49	33
85	85	28
95	95	22
49	50	5
9	9	19
119	119	15
72	75	9
13	13	28
65	65	6
11	38	3
83	86	5
7	9	5
7	8	18
5	6	13
16	19	3
64	68	6
131	131	17
127	127	5
17	17	6
105	105	11
87	87	5
73	75	7
57	59	4
44	110	3
61	78	1
7	7	17
119	120	4
97	130	1
31	32	9
116	116	9
60	63	4
20	51	3
53	54	12
41	43	8
13	14	5
68	69	6
104	104	13
73	73	4
121	122	9
74	75	8
130	131	1
46	54	4
53	53	28
31	31	17
122	123	4
38	40	9
124	125	6
109	110	7
16	18	6
66	67	6
100	131	4
16	28	3
93	95	2
73	74	3
48	49	3
58	58	23
125	130	2
23	26	1
48	48	46
80	81	1
83	85	6
109	111	4
94	95	4
67	69	2
8	8	13
4	28	1
51	52	5
115	116	3
60	61	8
42	43	7
113	114	8
101	117	1
14	14	12
92	92	16
112	127	1
21	70	7
79	80	1
63	63	8
71	87	3
3	16	5
24	25	3
127	128	14
17	18	3
28	38	1
99	99	7
20	20	5
13	51	3
62	62	5
46	47	9
89	94	2
21	21	13
112	112	40
3	4	4
67	67	12
76	112	1
5	5	13
132	133	4
20	21	9
0	1	7
128	128	8
106	106	8
21	51	3
103	103	16
28	28	4
26	29	6
70	70	13
56	69	1
22	22	12
118	118	15
7	15	1
15	15	11
78	80	11
1	102	2
61	97	3
4	5	6
58	68	2
59	65	1
99	107	4
102	110	2
3	5	3
11	13	3
46	48	2
42	48	2
61	61	12
37	39	2
106	108	3
74	113	4
46	81	4
12	47	2
45	47	8
23	113	3
69	75	3
32	32	12
107	108	10
27	48	1
115	119	4
90	94	4
110	111	5
81	81	11
38	38	8
3	3	12
80	82	1
132	132	21
99	114	3
65	66	7
49	51	1
60	62	6
67	97	1
40	41	7
125	127	2
129	133	4
31	63	3
130	133	6
30	30	12
74	120	1
21	22	5
76	77	5
120	121	5
10	12	4
46	55	1
100	102	4
0	18	6
100	101	6
18	21	2
23	69	1
97	97	2
126	129	4
27	33	2
14	15	4
38	39	13
64	66	3
11	12	8
88	89	4
25	53	4
69	70	7
133	133	3
59	61	2
25	69	3
5	13	2
91	94	4
22	72	4
100	113	2
111	112	7
47	56	4
4	4	13
5	56	3
77	84	5
17	22	2
54	55	1
102	114	2
28	29	2
5	17	2
86	94	2
29	33	4
114	116	10
20	50	2
85	96	1
11	11	7
93	120	3
30	32	2
10	44	1
50	51	4
82	90	4
88	90	1
4	24	3
40	40	13
2	31	3
110	121	1
72	73	2
63	67	4
97	115	1
86	86	8
61	103	4
103	107	3
27	50	2
78	82	6
71	74	2
118	119	6
66	79	3
58	59	12
99	113	2
31	33	1
42	46	4
9	47	3
4	16	1
117	119	3
62	63	4
19	51	1
47	48	5
39	40	4
68	72	1
75	75	6
19	23	2
91	92	2
126	126	6
103	114	4
70	74	5
75	77	3
20	52	2
115	125	1
14	17	3
103	105	2
42	87	2
14	28	1
86	95	3
105	106	7
59	62	1
75	113	3
121	123	1
37	37	2
30	55	2
66	68	1
27	51	2
98	99	2
98	130	2
102	105	3
118	128	2
40	43	3
32	49	2
100	114	1
116	117	2
44	45	3
2	5	3
38	42	3
70	120	4
81	82	2
70	72	3
80	80	2
90	92	3
43	44	2
127	129	2
112	114	3
62	68	1
59	60	1
33	33	2
108	112	2
50	52	1
6	16	2
43	47	1
8	15	3
81	117	1
88	95	1
97	98	3
10	45	2
116	118	2
16	17	3
87	88	1
28	30	2
117	125	2
49	53	2
80	115	1
58	61	2
82	87	1
18	19	4
30	33	4
8	9	1
5	15	1
22	51	2
19	22	1
76	80	1
38	43	1
102	106	2
22	71	2
69	72	1
56	70	1
12	13	3
29	49	2
22	69	3
113	120	1
8	46	3
81	114	2
10	11	2
41	52	1
27	29	2
77	78	2
9	11	1
125	131	1
61	66	2
89	91	2
11	44	2
1	2	1
72	72	8
23	25	1
85	87	2
79	81	1
96	98	1
96	99	2
115	126	1
68	77	2
6	12	1
45	54	1
122	124	1
15	52	1
78	79	2
34	34	1
98	108	1
56	59	1
40	46	1
131	132	2
29	34	2
103	106	1
27	46	2
51	53	1
49	54	1
55	70	1
70	85	1
53	56	1
67	99	1
42	45	1
18	25	2
73	81	1
19	20	1
8	20	3
57	58	1
89	90	1
97	117	1
103	108	1
114	127	2
113	116	1
118	129	1
66	97	1
42	54	1
59	59	1
22	70	1
29	56	1
70	73	1
5	18	1
52	54	1
74	76	1
97	129	1
96	115	1
105	109	1
