183	183	19
100	101	5
3	4	1
93	93	3
196	196	10
7	7	4
129	129	8
5	5	10
158	158	3
101	102	2
130	130	13
194	194	8
141	141	13
41	41	15
24	24	7
89	89	6
23	23	14
4	4	5
6	8	11
119	119	11
44	46	5
122	122	8
185	185	11
179	180	11
34	34	10
150	150	16
127	127	11
66	66	2
51	51	6
11	11	9
160	160	11
54	55	9
106	112	3
17	17	4
135	136	4
106	106	8
110	112	4
71	71	11
36	36	16
73	73	6
140	140	9
30	30	7
114	134	5
136	136	9
3	3	11
192	192	16
113	113	16
197	197	13
101	184	8
10	10	6
186	186	6
175	175	10
146	148	4
163	163	5
14	14	26
195	195	4
2	3	1
70	70	14
111	112	10
184	184	9
187	187	7
16	16	10
136	168	8
155	155	8
108	108	2
41	54	8
145	145	11
145	169	3
140	142	1
9	14	2
171	172	5
47	50	2
72	72	8
47	47	12
139	140	4
179	193	2
156	156	15
25	37	5
139	139	16
161	161	12
175	176	9
111	111	11
96	96	6
185	186	5
189	189	13
15	15	9
6	6	6
190	192	2
118	118	19
176	178	2
10	14	5
106	114	2
182	183	15
168	169	15
112	113	1
25	25	12
81	81	7
62	74	3
2	2	9
170	170	12
158	159	4
169	169	15
129	140	4
1	1	4
48	48	11
146	153	2
107	107	10
145	146	5
74	74	4
131	131	7
35	35	6
147	147	22
110	110	13
52	52	16
104	105	3
103	184	3
181	182	7
171	171	13
38	38	8
178	178	9
158	162	4
148	148	8
159	178	5
166	167	2
195	196	4
68	73	2
49	50	7
118	134	5
116	116	9
193	193	13
36	39	1
144	144	5
172	172	22
134	134	2
42	42	18
121	122	4
103	103	9
4	5	2
29	29	7
67	68	1
100	113	2
177	177	12
179	179	7
98	107	9
146	146	7
131	132	2
126	126	9
157	157	5
82	82	1
169	173	9
71	72	6
85	85	4
193	194	6
117	117	4
138	138	6
13	13	17
35	37	3
44	44	4
190	197	1
15	16	5
117	131	1
9	9	13
167	167	11
196	197	2
151	151	4
183	184	6
16	39	2
22	26	2
181	184	2
83	84	2
38	58	1
15	33	1
126	128	4
177	178	4
49	49	13
130	142	4
105	105	5
180	184	8
46	46	5
99	99	4
33	33	9
128	128	10
87	87	10
128	129	9
174	174	1
101	101	9
30	31	5
102	102	7
0	1	5
57	57	14
43	43	10
21	34	8
18	19	4
11	12	3
153	154	2
173	174	4
58	58	13
93	94	1
176	176	5
168	168	6
44	52	3
42	54	3
12	12	2
115	115	7
108	110	2
115	119	6
94	94	6
142	142	10
166	166	3
170	171	7
55	55	3
135	135	17
98	113	2
50	52	3
160	185	1
29	37	3
102	103	4
150	157	5
149	149	13
159	159	9
78	78	6
54	54	9
154	158	6
40	40	2
68	110	1
143	143	12
9	10	2
137	141	6
187	189	5
19	19	3
101	161	1
57	58	2
48	49	1
37	57	4
3	5	2
146	169	1
95	95	7
37	37	5
31	31	11
124	124	11
147	158	1
59	59	16
8	8	11
133	133	3
137	139	6
33	170	2
52	56	1
54	58	6
61	61	1
120	122	1
173	190	1
78	79	2
156	158	5
123	128	1
20	27	2
34	149	2
126	189	6
174	178	1
162	163	5
172	173	5
98	98	7
16	41	1
155	156	4
178	185	2
81	82	5
190	190	6
5	23	4
146	147	4
61	62	4
132	132	4
56	57	2
144	145	4
119	125	4
44	45	2
138	139	3
88	88	2
32	32	6
28	30	1
130	137	1
155	157	2
142	159	1
112	145	1
83	83	2
56	56	14
25	27	1
113	115	3
56	59	1
173	178	2
152	152	5
112	142	2
162	181	2
129	138	3
160	177	2
18	18	4
181	181	9
127	128	1
45	45	6
51	80	1
134	136	1
150	184	1
37	38	4
114	114	6
184	185	2
117	134	1
165	168	3
38	40	2
120	120	7
20	20	1
123	123	5
140	141	2
39	40	3
194	195	3
167	168	2
100	100	9
116	130	3
164	164	3
191	192	3
15	17	1
134	135	1
59	61	4
90	90	1
151	152	2
98	121	1
35	38	4
16	20	1
17	34	1
7	8	1
55	171	2
6	7	1
153	153	2
194	196	2
182	182	9
30	58	1
173	173	7
159	160	1
79	79	1
74	76	4
185	188	3
22	22	2
6	25	1
17	19	2
137	137	3
20	21	3
156	162	1
119	120	2
68	68	1
190	191	2
89	90	2
149	164	1
124	165	2
18	40	1
36	38	1
189	190	2
169	194	1
36	57	4
54	56	1
152	153	4
191	191	2
162	162	3
46	47	3
145	164	2
112	160	1
188	188	3
27	28	2
26	26	2
103	124	1
85	86	2
165	165	2
152	154	1
173	176	2
164	165	1
107	108	1
110	111	2
67	74	1
112	112	5
80	81	1
160	183	1
125	125	4
19	36	1
112	125	1
41	42	2
62	79	2
28	28	4
9	12	2
69	69	3
40	41	1
192	194	1
53	54	4
47	52	1
32	57	1
106	158	1
76	76	3
50	50	2
52	53	2
153	155	1
13	14	2
50	51	2
153	158	1
115	116	2
39	54	3
136	162	2
12	13	1
124	128	1
67	72	1
123	124	3
31	32	3
151	158	1
49	53	2
53	53	4
122	124	1
39	39	2
23	32	1
160	161	1
72	73	2
148	163	1
5	8	2
129	130	1
170	172	1
109	116	2
132	138	2
155	189	3
95	96	3
0	0	1
179	192	1
125	127	3
109	111	1
86	86	2
101	190	3
94	96	1
8	9	1
156	159	2
61	64	1
88	89	3
12	33	2
84	86	1
138	140	1
38	43	1
166	168	1
98	119	3
8	21	1
108	111	1
122	187	2
94	95	1
169	170	1
50	59	1
27	27	3
188	189	2
142	143	2
24	29	1
14	31	1
73	74	1
183	190	3
148	170	1
125	126	2
186	189	1
144	155	1
191	193	1
165	169	1
53	56	1
55	56	2
49	51	1
5	6	2
105	106	1
187	188	1
68	69	1
64	64	1
63	63	2
124	126	1
120	125	1
14	55	1
12	15	1
148	150	1
23	24	1
28	29	1
147	148	1
157	158	1
100	114	1
155	158	1
165	167	1
25	26	1
128	136	1
177	188	1
