126	126	2
17	67	5
29	29	5
1	133	2
142	143	1
56	56	3
10	23	2
21	21	6
134	135	8
5	5	5
59	62	3
69	70	3
154	165	1
104	142	1
0	0	4
132	132	6
109	148	4
35	35	5
86	86	3
47	47	2
128	128	13
110	110	1
163	180	4
1	54	1
98	98	9
166	166	5
6	14	5
92	96	4
19	19	3
89	90	2
142	142	8
26	26	3
138	157	1
131	131	8
17	17	2
30	31	4
7	7	12
164	174	6
87	87	6
56	57	2
123	129	2
151	151	3
40	40	4
0	159	1
121	121	2
150	182	3
47	73	3
68	68	3
162	162	3
156	171	3
105	105	4
106	106	3
144	144	2
173	174	5
35	62	3
27	30	4
163	179	1
93	93	5
14	14	4
128	145	2
44	87	4
23	24	2
52	53	6
114	122	1
91	91	3
109	109	2
159	159	5
20	20	2
13	13	2
11	11	1
184	184	11
1	16	1
21	52	1
65	104	4
58	60	1
82	83	4
117	117	4
65	65	3
135	159	2
11	18	3
18	18	1
150	150	4
26	28	4
157	157	4
184	185	2
114	131	3
30	30	1
29	30	2
150	151	2
163	163	1
125	125	1
162	177	1
114	114	4
94	108	1
11	19	1
46	88	1
112	112	2
179	179	5
57	91	4
100	101	1
28	28	3
149	155	2
137	137	1
0	31	4
85	85	1
45	45	3
118	119	4
115	115	5
8	167	2
81	81	5
113	113	1
79	79	1
26	27	1
168	168	1
104	104	3
158	166	3
157	158	4
154	154	6
7	57	4
72	73	3
101	101	3
66	66	3
170	170	2
153	153	5
137	138	1
103	103	5
88	89	1
95	96	1
41	57	1
36	36	4
92	94	2
171	171	2
55	55	3
3	3	4
125	126	1
44	45	3
38	38	2
53	53	5
136	137	1
54	55	4
18	22	4
18	47	1
46	46	4
143	144	1
102	105	1
84	108	2
114	133	3
109	146	2
122	161	5
73	75	1
182	189	4
178	178	3
34	34	4
147	147	2
175	177	3
166	168	4
27	27	4
76	76	1
25	25	2
80	80	2
41	43	2
96	96	2
162	164	3
91	92	1
33	33	3
153	184	2
179	180	3
80	81	2
31	31	3
115	123	3
122	123	2
140	142	2
109	110	1
152	153	3
118	118	5
78	78	4
6	17	4
123	123	1
4	4	3
97	99	1
76	104	5
10	12	2
31	40	1
77	77	1
89	89	2
47	106	1
129	148	1
24	25	3
114	115	5
155	162	2
7	8	1
116	116	1
95	104	1
113	162	4
12	12	3
64	65	2
75	75	4
100	102	3
92	93	2
1	67	2
139	139	1
99	99	2
162	163	3
55	102	1
142	167	3
140	140	4
109	119	3
33	34	7
6	6	1
169	170	1
152	152	3
2	2	1
61	61	1
62	62	1
6	57	1
112	150	2
82	82	1
119	119	3
157	161	2
169	176	1
80	121	2
72	72	2
60	60	1
32	42	2
23	23	3
128	146	1
8	9	2
174	175	1
10	11	2
48	121	1
41	41	1
2	137	1
183	183	1
126	127	1
161	161	1
47	78	2
96	99	1
187	188	2
84	84	1
156	156	2
160	160	3
175	175	1
100	100	1
2	3	1
164	164	1
73	73	2
146	147	1
22	22	1
170	171	2
36	37	1
20	114	1
180	181	1
53	54	1
95	95	1
40	41	1
64	64	1
39	97	1
91	102	1
188	188	1
98	100	2
37	37	1
127	127	2
140	141	4
14	15	1
141	141	1
57	57	1
176	177	1
68	69	1
182	183	2
108	144	1
0	1	1
27	28	1
71	71	2
129	129	1
65	67	1
39	184	1
90	90	1
48	48	1
115	116	1
92	92	1
136	136	1
146	148	1
8	8	1
95	99	1
40	105	1
