9	37	2
156	156	11
70	71	3
88	88	5
41	115	9
80	80	7
32	32	12
17	17	13
78	78	9
51	51	5
21	21	8
30	30	16
5	5	23
131	133	2
115	115	4
129	129	11
93	93	16
8	20	2
81	81	9
4	4	14
36	137	3
137	137	11
109	110	1
121	122	7
8	8	6
103	103	11
49	62	3
57	57	9
21	52	1
4	150	3
134	134	9
139	139	1
125	125	8
24	24	12
25	25	17
136	136	11
46	46	15
39	93	2
40	41	3
3	3	13
94	94	25
124	127	6
103	141	4
43	44	5
37	37	11
146	146	8
106	106	3
90	93	1
105	108	3
137	139	1
8	37	4
29	29	6
79	79	3
96	96	9
86	86	28
77	77	11
25	26	11
12	18	4
52	52	10
130	130	8
110	111	4
135	135	8
40	40	17
144	144	16
24	25	5
39	39	14
110	124	1
107	107	10
45	45	8
152	153	2
121	121	7
125	126	7
85	86	7
43	43	10
55	55	11
105	105	5
25	31	9
65	65	8
22	22	10
15	16	5
34	34	17
140	140	9
132	133	7
80	83	6
155	156	4
124	128	4
49	49	4
99	99	4
20	50	3
7	7	11
19	20	5
76	76	2
84	85	2
1	1	4
111	115	4
142	142	8
131	131	5
145	147	3
6	6	10
15	21	1
142	144	1
86	87	4
98	139	1
11	117	2
53	53	10
150	150	26
146	152	5
132	132	7
20	21	3
94	155	1
4	21	5
0	0	14
11	11	4
3	8	3
93	105	3
15	107	4
98	98	3
89	89	8
67	69	1
63	64	4
50	50	15
116	117	2
29	30	2
35	35	8
125	136	1
108	109	4
36	36	8
77	80	1
71	104	3
27	27	13
123	127	5
44	44	7
155	155	6
124	124	12
23	23	10
12	43	2
53	54	3
74	74	3
28	28	2
114	120	1
48	154	3
2	3	3
87	87	5
69	69	9
18	20	6
147	147	6
148	148	1
104	105	2
111	111	6
149	150	1
126	126	15
90	90	13
67	70	1
104	107	1
9	9	7
33	139	2
42	42	2
120	120	5
108	113	1
148	149	5
12	95	1
11	40	2
51	111	4
52	97	1
94	95	3
111	152	1
36	38	7
112	122	6
112	112	8
135	140	2
128	128	13
38	38	11
152	152	4
143	157	2
5	7	1
157	157	6
141	141	4
113	113	3
116	134	1
9	15	3
14	14	5
69	70	1
72	72	4
95	124	2
88	91	6
86	88	1
110	110	2
38	48	2
123	141	2
31	32	2
84	97	3
71	71	5
18	18	5
91	107	1
105	140	2
27	128	2
8	69	3
79	82	4
11	20	2
108	108	3
13	16	4
122	154	4
91	91	13
127	127	8
28	131	1
82	82	2
16	16	8
15	40	2
26	56	1
92	93	2
22	23	2
109	109	4
105	136	2
48	49	3
56	57	4
51	54	6
64	64	2
85	85	4
49	95	4
97	118	3
113	119	2
66	71	2
118	118	1
63	63	1
10	19	2
64	77	1
100	101	7
9	14	3
26	27	2
114	114	2
142	157	6
33	33	4
47	47	5
115	117	2
48	48	4
82	83	3
138	138	2
20	22	7
145	152	8
38	39	1
107	109	1
70	70	9
83	83	4
116	116	4
144	147	2
44	45	1
27	79	3
50	51	4
82	103	2
84	84	2
17	26	4
71	141	1
67	68	3
77	84	1
4	5	5
2	2	3
10	81	3
62	62	1
77	78	3
62	64	2
49	94	1
56	56	3
122	122	8
31	31	7
98	106	2
4	20	2
26	26	10
34	138	1
10	10	2
15	55	1
156	157	2
42	76	2
24	124	2
117	117	3
8	22	3
13	63	3
106	134	4
16	17	1
9	22	2
151	151	5
6	7	1
144	145	4
108	111	1
131	132	1
32	127	3
100	100	7
14	55	2
14	15	2
83	121	1
53	77	2
96	97	5
145	145	3
105	139	3
92	130	2
92	92	8
93	94	1
119	119	4
49	50	2
86	139	1
119	153	2
115	139	1
36	45	5
17	18	1
42	79	1
65	71	3
147	154	1
137	140	2
138	139	5
51	113	2
88	90	2
67	67	7
123	126	1
34	139	2
11	18	1
18	19	2
136	137	1
113	114	3
35	85	2
30	48	2
3	10	1
10	38	2
20	20	5
117	118	2
37	97	1
2	44	1
25	76	1
11	71	1
98	152	1
105	129	2
115	122	2
142	148	2
95	95	5
3	18	3
73	73	5
87	139	1
123	123	4
84	109	1
73	100	3
32	124	2
33	34	3
159	159	6
9	10	1
102	102	1
28	30	1
86	112	4
89	118	1
87	88	1
45	46	3
6	81	1
109	112	3
107	133	3
78	79	3
119	154	3
112	113	2
54	55	2
13	14	2
91	92	2
113	127	2
141	157	1
89	90	4
146	147	2
21	22	5
13	67	2
104	158	2
27	28	2
66	66	1
104	104	5
56	89	1
121	140	4
47	50	1
29	40	1
2	4	1
92	116	2
116	135	1
120	148	3
30	116	2
17	84	1
41	44	5
114	151	3
154	154	1
51	107	2
75	81	1
87	91	1
88	117	2
55	56	1
150	151	1
86	118	3
147	148	2
12	12	3
13	15	3
91	122	2
22	37	1
41	42	1
153	153	1
19	19	7
51	53	1
80	81	3
75	75	1
118	155	1
13	13	1
156	158	1
28	38	4
38	57	2
32	137	2
105	106	2
106	132	1
96	103	1
135	136	1
22	24	1
23	79	1
78	108	1
68	68	6
146	154	1
149	149	2
6	80	1
36	53	3
39	97	1
30	31	1
39	40	1
6	46	1
6	84	1
48	50	1
111	140	1
46	129	1
103	145	1
120	121	1
39	119	2
66	67	1
40	151	2
142	143	2
69	71	1
68	71	1
86	140	1
102	110	3
85	95	1
46	104	1
53	96	1
90	131	1
4	19	1
134	135	1
46	47	1
7	44	1
56	61	1
129	137	1
7	8	1
87	117	1
7	13	2
114	115	1
92	129	1
145	148	1
50	111	1
17	50	1
13	37	1
28	50	1
104	144	1
95	152	2
4	71	1
139	140	1
133	133	1
83	104	1
3	4	1
127	152	1
137	141	1
117	127	1
103	104	1
101	101	1
38	94	2
0	10	1
8	9	1
67	71	1
0	2	1
15	15	1
