57	62	2
89	140	2
73	73	22
204	204	13
10	11	14
43	43	43
186	186	19
84	85	8
88	91	3
189	192	2
196	196	24
195	196	14
67	70	2
8	17	1
203	203	21
202	202	10
7	7	20
9	9	26
85	86	8
52	52	20
64	70	4
201	201	31
8	8	36
14	14	28
183	183	16
11	32	1
209	210	9
151	152	6
195	204	4
69	70	10
160	189	4
97	97	29
67	237	2
169	170	3
25	26	22
176	176	19
180	180	20
162	162	14
67	67	28
55	55	44
70	71	6
34	36	7
55	101	3
237	238	4
229	232	1
234	234	20
48	53	6
235	236	2
1	2	13
144	144	11
96	106	1
74	196	3
181	183	1
3	3	29
17	103	3
22	24	2
13	14	6
198	198	35
175	175	20
193	193	18
63	63	29
38	38	45
46	46	57
0	1	7
22	23	14
211	211	25
78	116	2
173	174	11
32	32	29
69	69	28
25	42	3
101	104	4
103	103	21
2	29	3
153	153	23
14	51	3
70	85	3
193	194	4
14	175	3
225	227	4
39	39	45
235	235	8
54	54	35
71	71	28
122	124	3
53	73	3
127	141	5
25	25	39
64	65	13
19	19	36
1	1	31
55	56	19
220	220	13
72	78	1
128	128	19
27	32	1
107	108	4
157	157	13
49	49	28
166	166	14
66	66	13
101	101	24
205	205	15
178	178	30
30	31	15
124	124	21
34	35	11
226	226	11
182	182	18
85	123	1
70	143	5
173	173	20
62	63	5
240	240	19
155	156	4
98	99	2
85	85	55
6	7	2
76	79	6
68	68	27
207	207	19
9	11	10
17	22	3
77	78	4
11	41	2
111	111	12
205	206	15
224	225	7
154	154	33
179	179	8
42	42	46
33	33	42
233	233	21
69	72	3
123	123	17
21	21	32
143	190	5
158	158	15
138	138	12
12	12	36
12	28	4
209	209	16
119	119	16
194	194	6
158	159	6
20	20	40
159	159	17
9	10	18
129	129	13
26	26	25
2	17	2
65	65	22
41	41	13
11	175	1
115	115	17
109	109	26
228	228	25
50	50	19
213	213	14
106	106	21
5	6	10
19	20	13
184	189	2
211	214	4
231	232	11
213	217	7
80	82	9
169	169	4
76	76	29
177	177	32
181	181	9
18	20	6
183	186	3
237	237	11
29	29	30
62	62	24
37	37	49
220	231	3
174	174	14
218	218	11
47	47	33
143	147	4
11	78	3
225	225	19
128	129	6
172	172	9
91	91	7
139	181	6
12	127	3
106	108	5
43	55	1
110	110	10
200	200	29
46	47	12
122	122	16
62	73	6
27	27	51
160	165	4
105	105	27
216	216	29
190	190	20
12	13	3
149	174	1
163	211	2
241	242	7
236	236	14
161	161	27
44	44	33
206	222	3
12	14	4
32	33	15
38	44	2
56	57	14
163	163	20
188	188	30
64	69	1
100	101	1
197	197	23
187	200	5
177	178	7
56	56	28
159	160	16
83	83	15
45	46	13
208	208	12
152	152	24
10	10	31
31	32	11
230	230	24
61	61	28
197	198	11
125	126	9
60	60	28
5	14	1
190	191	7
134	134	23
168	168	26
39	40	3
141	141	13
17	20	4
215	216	2
80	86	3
152	153	5
34	34	32
45	45	47
227	227	15
219	224	4
52	53	11
219	220	9
28	28	41
100	100	21
44	45	9
51	51	15
86	86	33
167	167	17
150	152	5
78	78	15
88	89	2
135	141	1
5	32	4
179	180	6
78	79	8
102	102	41
8	38	2
96	96	20
61	143	3
116	118	3
139	140	12
28	86	2
189	191	1
135	135	12
227	228	10
200	236	2
26	43	5
73	74	10
143	144	11
53	53	26
63	64	18
210	210	14
105	113	4
23	23	46
137	137	16
192	192	16
24	24	22
2	148	1
135	138	2
140	140	14
59	60	9
183	184	8
99	99	21
170	170	11
57	57	24
28	47	5
167	171	8
146	146	20
184	185	15
220	221	5
184	186	4
214	215	1
160	160	30
26	27	4
74	233	3
13	13	28
145	150	1
4	4	19
136	136	20
116	116	12
124	126	3
16	16	32
43	44	5
103	104	10
156	156	8
186	187	8
238	239	16
100	120	3
232	232	24
76	77	6
11	11	35
9	43	2
145	146	13
222	224	4
202	203	7
191	191	32
155	158	2
48	48	12
54	60	2
74	75	7
196	197	1
233	235	2
153	156	2
50	80	4
124	125	10
223	224	13
206	206	16
40	41	6
67	85	3
63	70	1
84	84	20
224	224	19
236	237	9
25	112	1
238	238	21
29	84	4
212	213	10
195	195	7
239	239	20
14	41	2
19	68	4
172	203	7
161	162	5
58	58	15
15	42	2
42	48	1
35	59	3
118	118	18
44	46	5
25	27	5
0	0	28
123	124	10
40	40	18
114	117	1
97	229	2
98	98	6
33	36	6
37	60	1
102	229	1
108	109	4
48	52	2
21	22	18
170	190	1
229	230	6
143	146	4
77	77	17
166	167	1
161	168	4
139	142	2
58	60	3
74	96	2
83	177	4
132	145	2
178	181	3
228	229	6
35	35	8
139	141	8
154	209	1
78	81	3
165	169	2
70	70	47
84	105	3
125	128	4
21	68	4
148	173	3
153	196	5
72	72	32
25	44	2
7	11	1
18	19	10
138	142	6
20	21	9
220	229	2
108	124	2
27	28	12
121	121	12
199	200	10
111	135	1
2	53	4
54	56	1
17	21	2
142	142	21
30	33	4
104	105	9
40	51	5
218	225	3
57	58	7
25	170	6
104	104	19
79	79	15
183	190	3
147	149	12
3	149	1
118	124	1
23	137	4
185	186	2
120	120	6
17	134	2
28	46	5
5	5	23
75	95	3
0	32	2
42	133	1
4	9	3
156	157	10
79	82	5
234	235	11
156	193	1
147	148	3
12	24	6
143	143	17
115	118	4
6	6	13
20	42	7
141	142	3
142	143	8
80	80	14
18	18	21
44	72	3
20	64	1
29	32	1
41	42	13
150	150	9
95	210	1
15	43	4
191	196	2
218	231	4
155	178	1
231	231	27
26	36	3
0	2	6
198	207	1
119	120	7
149	149	14
171	172	7
242	242	17
77	80	7
211	213	2
113	114	6
145	145	7
205	208	1
89	92	1
109	110	4
212	212	10
241	241	16
181	182	7
168	170	2
182	183	6
126	126	10
35	139	3
164	183	1
64	71	3
130	135	1
15	40	4
75	85	1
133	133	16
5	7	8
70	79	1
50	204	2
211	212	10
172	173	6
60	61	21
176	177	5
22	22	16
126	127	12
240	241	4
54	55	12
7	175	6
96	97	17
214	214	15
2	2	30
175	176	6
136	137	5
36	36	18
48	51	5
9	52	3
214	218	4
188	189	10
232	233	5
222	222	20
131	190	3
99	160	3
229	229	8
217	220	3
65	66	9
2	4	4
44	54	6
24	25	6
86	175	2
155	155	18
144	145	5
112	213	1
29	47	5
197	201	1
33	34	7
50	60	6
2	3	7
2	38	1
72	73	8
112	113	5
28	29	10
84	123	3
216	222	1
74	74	31
12	21	1
42	61	6
187	188	12
20	39	7
112	135	3
195	200	3
69	81	2
76	84	2
17	17	12
61	62	6
28	170	4
37	175	3
226	228	1
172	219	6
206	207	6
71	72	14
192	193	5
16	134	2
25	143	2
21	23	10
16	17	5
50	54	2
4	7	4
28	143	2
35	36	2
88	88	16
12	15	3
53	54	10
217	217	12
219	219	27
46	54	1
137	184	3
137	149	2
30	30	4
189	189	6
17	18	4
95	95	14
49	210	2
202	237	1
56	68	1
57	60	4
80	102	4
83	84	6
178	187	2
15	36	2
8	9	13
8	56	2
166	186	3
148	150	5
221	230	1
41	43	3
178	186	2
38	161	2
82	83	2
171	171	25
205	212	3
34	37	4
3	24	5
161	211	4
53	81	1
143	145	4
165	166	10
204	206	1
113	113	8
184	184	7
103	105	5
213	214	5
49	52	3
37	45	1
200	201	6
14	15	3
15	19	1
219	231	4
80	81	2
61	86	6
47	48	9
75	96	3
33	49	1
70	75	6
55	197	3
233	234	1
127	140	1
239	240	3
187	189	8
229	231	2
187	187	10
59	59	30
171	179	1
21	34	1
137	170	1
79	81	1
227	229	2
136	190	1
35	204	1
140	142	7
112	112	17
164	164	14
220	222	2
133	134	8
66	72	1
118	119	4
170	171	5
165	165	11
102	105	4
28	44	4
111	128	1
27	45	3
60	68	3
4	5	8
28	202	3
71	73	6
25	46	1
167	169	3
147	147	4
139	154	3
51	52	11
8	53	1
46	70	3
0	8	1
24	38	5
6	20	1
108	123	1
64	64	11
73	179	3
107	231	3
81	85	4
139	143	1
188	206	3
178	179	6
11	13	1
165	175	2
146	147	9
153	154	7
15	15	11
154	174	3
211	215	2
128	155	1
81	84	3
147	199	4
107	107	8
185	185	3
58	65	3
153	195	2
108	108	13
139	139	6
142	147	4
53	181	2
44	63	4
37	39	7
194	201	3
1	3	3
54	65	2
127	218	3
75	75	23
221	221	3
162	167	4
39	41	1
39	61	3
137	139	2
111	112	5
174	197	2
10	47	2
82	82	12
122	123	4
35	38	1
20	68	5
81	83	6
13	174	2
25	108	1
215	215	9
51	204	2
39	42	1
66	67	2
117	118	2
217	218	9
80	83	5
95	106	1
48	50	2
18	230	6
159	163	3
53	61	2
77	79	2
164	165	9
15	22	2
25	28	1
105	118	3
180	230	1
132	132	6
61	128	1
171	203	2
215	229	3
207	208	5
135	208	1
128	219	2
134	159	1
121	122	2
188	190	3
73	87	1
76	118	3
81	81	10
131	161	1
215	221	4
52	67	1
12	83	2
216	217	4
138	141	2
214	217	1
149	150	4
49	50	11
100	103	4
76	82	1
101	223	1
184	187	6
75	76	2
52	108	2
175	177	2
29	30	9
20	23	3
70	73	4
15	16	3
225	226	3
10	79	2
188	209	1
157	160	2
101	102	1
127	127	8
159	197	3
203	231	2
114	114	4
210	212	1
10	54	1
31	35	2
112	133	1
221	222	5
9	29	4
1	18	3
1	221	2
85	128	2
8	25	2
11	12	7
56	75	1
13	17	5
48	49	2
14	17	1
168	169	2
85	173	2
32	66	2
196	211	1
188	232	1
28	38	2
128	162	1
67	68	5
69	73	2
1	29	6
117	127	1
159	161	2
119	209	3
138	140	2
61	196	1
137	141	2
199	199	8
99	100	3
38	39	5
84	101	1
228	230	2
34	78	1
127	128	5
53	55	1
60	78	3
11	15	2
144	146	4
152	197	5
154	155	6
150	151	1
13	22	4
63	73	1
32	38	5
219	223	1
81	125	2
9	38	3
158	188	1
41	134	3
73	232	2
235	239	1
117	117	9
160	184	5
54	61	2
68	70	3
33	51	3
125	125	6
225	228	3
31	31	7
223	223	5
226	227	5
4	6	7
40	127	3
183	189	2
99	116	2
221	223	2
152	155	1
43	45	5
63	228	1
79	80	3
188	205	3
28	36	2
11	38	1
210	211	7
153	157	2
8	51	2
167	187	1
162	182	3
15	24	3
193	196	2
177	234	6
169	215	1
175	200	4
77	116	2
34	41	3
192	196	1
148	148	2
124	179	1
154	211	3
3	15	2
59	65	6
151	151	8
168	175	4
108	121	2
145	148	2
45	62	2
6	15	2
40	43	2
25	32	2
97	106	1
122	127	1
148	152	1
78	82	6
101	122	2
3	37	2
105	107	2
135	136	3
203	204	10
118	127	2
139	185	1
18	21	2
54	159	3
33	35	7
48	180	1
122	128	3
16	103	2
157	195	2
164	179	1
12	20	1
181	184	1
191	192	5
208	210	5
84	183	1
19	21	1
159	162	4
160	161	4
24	53	2
17	41	2
140	141	5
82	84	4
107	124	1
241	243	1
46	68	2
100	115	4
67	71	1
37	38	1
55	60	2
149	173	1
99	101	1
131	131	6
158	168	2
95	137	3
97	119	1
83	106	1
129	130	8
73	78	1
105	106	5
36	49	1
65	68	3
29	46	2
31	33	1
25	61	2
72	74	2
193	195	4
103	106	1
179	183	4
214	230	4
39	47	2
208	229	1
215	224	3
149	195	3
116	117	2
23	24	1
88	109	1
102	104	1
75	77	2
43	61	1
96	98	2
45	171	1
36	37	2
10	55	2
107	121	2
81	210	2
105	108	5
7	8	6
84	88	2
0	38	1
170	203	1
12	19	1
198	201	2
20	24	3
132	138	1
207	222	1
18	113	2
53	123	2
16	30	2
13	34	2
155	176	2
218	222	2
60	105	2
208	215	5
185	205	2
17	30	1
211	228	1
84	126	1
174	182	1
18	229	1
22	37	2
26	69	2
27	46	2
102	103	4
51	53	2
194	234	2
195	239	1
9	15	3
27	37	1
17	107	2
220	223	2
114	118	3
67	69	1
59	61	1
197	202	3
161	217	2
159	210	2
202	211	4
149	154	1
90	91	1
10	44	1
67	96	1
230	231	2
65	70	1
107	114	3
223	228	4
189	190	8
131	132	2
42	128	1
38	152	1
176	179	4
109	170	2
113	229	1
115	117	6
10	27	1
39	44	1
30	205	2
210	216	1
205	223	4
19	188	2
10	128	5
4	37	4
42	54	1
12	174	1
98	128	2
96	102	1
99	128	1
149	155	2
220	227	4
0	9	1
138	147	2
65	71	3
215	218	3
50	52	4
108	117	1
41	59	4
132	170	2
3	17	1
32	39	1
57	59	1
61	69	1
14	49	3
175	223	2
201	204	1
92	129	1
69	74	3
192	195	3
216	223	1
137	164	3
22	31	1
75	79	2
47	49	2
20	50	1
14	21	1
28	70	1
11	19	3
133	137	1
126	131	1
70	110	1
20	69	1
172	176	1
30	47	2
160	162	2
206	209	2
137	138	7
108	118	1
43	54	2
194	195	4
0	37	2
65	67	5
63	68	4
162	163	4
61	63	1
194	196	3
196	203	2
104	115	3
223	226	1
157	238	1
86	87	1
74	86	1
54	68	2
209	216	1
222	225	2
201	202	4
85	109	3
198	199	4
180	181	2
75	119	1
90	90	1
41	176	1
32	36	1
183	185	1
100	116	3
135	195	2
75	81	1
97	101	1
30	32	2
50	75	2
52	54	3
88	115	1
162	188	1
47	54	2
81	82	3
27	29	1
134	144	1
210	214	1
0	6	1
147	154	1
108	130	1
136	154	1
124	128	2
43	46	1
224	226	3
80	123	2
192	194	1
53	180	1
12	38	1
50	53	2
89	89	1
98	154	2
55	61	2
11	29	2
42	134	1
9	27	2
225	229	2
136	138	2
120	121	1
25	29	1
124	127	1
89	223	3
136	165	1
100	122	1
6	8	1
209	213	2
0	56	2
7	9	1
178	182	2
196	207	1
42	47	1
204	229	1
31	105	1
106	109	1
69	101	1
222	223	4
119	123	1
143	148	1
35	44	1
142	151	1
135	202	1
54	165	1
36	73	1
113	191	1
158	187	1
58	61	1
18	101	1
68	69	2
234	239	3
46	74	1
44	56	3
208	209	1
148	149	1
97	105	1
138	139	2
185	190	3
7	13	1
0	16	2
29	31	1
17	42	1
37	53	1
36	38	1
65	119	1
1	16	2
26	160	1
20	49	1
164	175	1
209	214	1
151	160	2
52	211	3
73	86	1
50	51	1
166	176	1
109	119	2
44	178	1
8	20	1
142	182	1
19	58	1
105	174	1
167	168	2
109	122	1
154	156	2
159	173	2
19	57	1
58	66	1
125	127	1
76	91	1
96	119	1
54	204	1
21	40	1
128	217	1
23	38	1
153	208	1
177	195	2
57	103	1
219	230	1
65	74	2
14	22	1
24	26	2
108	115	1
7	16	2
85	88	1
36	55	2
89	131	1
17	19	1
152	200	1
13	15	2
100	128	1
107	109	1
201	226	1
11	81	1
63	71	1
191	195	2
45	71	1
131	172	1
144	197	1
12	18	1
30	69	1
29	221	1
184	192	1
50	134	1
4	175	1
176	198	1
28	31	1
56	151	1
5	8	1
16	80	1
86	111	2
120	122	1
160	164	1
82	123	1
11	25	1
25	36	1
28	32	1
131	143	1
161	165	1
98	218	2
147	150	1
30	59	1
83	237	1
178	197	1
114	227	1
155	157	1
24	43	1
214	216	1
126	128	1
58	59	1
