17	17	7
107	133	3
133	133	14
118	119	11
9	13	3
138	138	2
141	141	10
121	121	10
111	111	13
130	132	4
139	140	5
79	86	2
25	25	3
57	57	9
31	31	17
78	78	13
74	74	9
11	11	4
123	123	13
27	39	2
1	64	3
135	137	1
57	62	4
26	26	6
109	109	7
34	34	6
129	129	6
73	75	4
104	142	4
20	64	3
52	53	2
56	56	5
125	131	3
35	36	5
136	137	1
137	137	12
19	19	7
98	137	3
31	32	1
118	118	4
96	126	3
134	134	8
30	30	12
62	63	5
100	102	2
29	29	4
11	17	1
82	86	4
84	84	5
66	66	2
5	6	2
76	89	2
140	140	12
15	15	6
54	57	1
49	49	11
135	135	9
8	71	4
144	145	6
72	72	12
82	94	3
89	89	8
128	128	11
3	4	4
24	24	3
99	136	3
94	94	5
4	64	1
4	4	6
124	125	4
51	51	3
106	106	9
141	142	7
102	102	8
59	60	2
56	75	3
20	20	1
82	91	2
94	116	1
109	110	3
1	1	3
41	41	8
90	90	7
125	125	1
110	110	8
127	127	7
69	69	7
14	16	4
3	3	5
42	42	16
74	76	4
132	132	7
36	41	4
106	130	3
67	67	6
121	126	2
110	111	5
130	131	4
78	84	1
51	55	6
115	115	8
26	32	2
9	10	5
3	20	3
119	119	5
144	144	8
18	19	6
64	64	4
48	48	4
97	102	2
104	135	2
39	40	3
133	134	5
118	137	3
72	115	2
77	87	1
53	64	3
92	94	2
39	61	2
126	131	2
28	28	2
39	59	5
108	108	8
124	128	3
105	105	12
115	118	4
25	39	3
58	58	4
25	38	5
136	136	2
71	71	5
124	124	22
32	32	6
98	119	3
26	33	2
34	36	6
87	87	6
76	79	3
41	49	3
41	59	3
13	69	6
112	113	2
97	97	7
84	118	2
27	28	8
82	82	8
95	96	1
136	140	3
98	110	2
33	50	4
98	98	2
134	136	4
88	89	1
126	126	13
81	117	2
85	85	4
142	142	9
76	77	6
122	122	16
107	118	1
36	36	1
63	63	6
34	93	3
121	122	3
57	75	4
32	50	3
114	116	2
50	52	6
2	36	3
117	117	4
79	83	5
129	130	2
16	16	4
125	126	2
28	29	1
98	136	2
52	52	1
9	9	3
136	139	5
9	21	2
54	54	7
54	55	10
76	76	5
86	86	7
36	37	1
133	141	1
133	136	8
27	48	1
89	90	1
59	61	1
143	143	11
18	18	9
30	50	1
143	144	8
57	67	3
77	78	1
51	109	4
62	62	10
37	37	8
80	81	7
47	64	1
68	68	3
68	79	1
65	66	2
28	59	1
137	139	2
37	92	1
117	118	1
83	83	4
0	12	4
38	41	1
1	27	2
131	133	1
93	93	12
43	75	2
96	97	2
59	59	10
123	125	1
71	95	2
2	2	11
56	58	1
96	102	1
51	65	4
5	5	6
122	126	2
13	13	4
13	16	1
119	120	1
38	38	4
49	52	1
52	69	1
60	60	1
30	61	1
24	60	1
8	8	3
72	92	3
92	95	4
103	103	4
88	88	3
82	113	3
0	66	2
84	85	3
134	135	2
9	71	1
50	51	4
96	96	5
135	138	3
146	146	3
52	60	4
0	38	1
19	20	3
82	87	2
16	17	2
61	61	2
131	131	4
92	93	1
63	82	2
138	140	3
104	106	3
49	51	2
138	142	2
139	139	11
133	140	1
2	34	1
92	113	2
47	47	2
120	121	2
91	91	6
22	22	4
23	24	1
130	130	4
23	23	2
119	139	1
84	116	3
55	57	2
132	134	1
95	95	5
105	142	2
13	70	2
50	50	1
101	101	13
4	52	2
23	29	2
75	75	5
99	100	4
93	116	1
30	72	1
43	80	5
97	119	1
127	128	4
18	127	2
42	73	2
22	145	3
35	35	7
104	104	1
6	6	4
122	123	4
2	39	2
73	74	1
21	21	5
11	38	2
66	85	1
4	20	2
5	35	2
37	38	1
40	40	2
104	105	2
8	19	1
53	53	1
58	61	2
34	52	2
125	141	1
25	61	1
82	110	2
100	100	1
1	2	3
97	138	1
68	77	3
116	117	1
40	41	1
73	79	2
131	139	2
95	119	1
107	111	1
118	120	2
117	119	1
123	138	1
113	113	2
145	145	2
19	62	1
22	24	1
127	133	2
119	123	1
63	70	1
116	118	1
55	56	2
107	108	1
27	30	1
99	123	2
108	119	1
82	114	2
43	57	1
8	9	1
39	39	1
93	94	4
138	139	3
113	114	1
51	53	1
60	61	1
127	130	5
99	120	2
99	103	2
30	41	1
109	120	1
38	124	1
128	141	1
38	57	1
80	109	1
6	22	2
61	63	1
20	26	1
114	119	1
5	37	1
99	99	1
97	98	2
39	41	1
119	137	1
62	113	1
129	138	1
31	50	1
142	143	3
107	107	1
98	103	1
62	64	1
83	110	1
32	67	1
106	135	1
80	90	1
92	112	1
130	136	1
2	3	1
34	35	1
115	116	1
26	56	1
107	117	2
83	112	2
23	74	1
43	43	2
119	125	1
0	64	1
54	62	1
98	104	1
92	92	1
98	131	1
10	10	2
124	137	1
66	127	1
85	139	1
100	103	1
22	23	1
83	131	1
98	99	1
0	68	1
71	92	1
48	49	1
