200	232	1
42	42	21
8	9	2
221	221	11
238	238	27
79	184	4
80	80	13
34	34	18
6	7	3
159	159	8
58	58	12
30	30	15
169	171	5
1	180	3
191	191	6
188	197	4
169	169	23
155	155	23
179	179	9
244	244	18
246	246	11
12	15	2
162	162	10
207	207	15
167	188	5
36	37	2
192	192	15
23	23	11
9	9	15
97	118	5
203	204	7
88	88	9
5	20	1
10	11	5
96	102	1
236	236	22
186	186	15
227	228	3
184	211	2
94	94	10
173	173	23
56	56	12
183	208	3
188	188	5
197	198	6
79	80	2
35	48	2
7	7	10
6	6	7
0	63	4
171	171	21
195	195	12
150	151	5
59	62	1
220	220	10
92	93	10
111	111	17
46	100	1
92	97	4
146	150	3
183	183	11
108	108	6
103	104	2
196	208	1
21	21	5
119	119	30
2	2	9
230	230	16
52	52	11
215	215	17
168	180	4
85	85	1
166	196	2
169	190	3
14	14	9
32	32	12
96	96	4
156	198	4
212	222	3
29	29	12
112	112	23
205	205	24
152	152	9
34	170	2
92	92	15
105	105	11
189	189	8
47	47	13
85	86	6
154	154	23
79	82	6
170	176	4
148	244	4
215	217	6
18	159	2
80	85	2
93	192	6
26	26	15
5	5	14
202	202	18
35	46	3
40	40	10
63	63	12
98	98	11
218	219	6
49	50	5
29	30	5
37	84	1
157	158	6
172	172	11
84	84	6
115	115	17
67	67	14
78	79	10
77	77	10
211	211	12
147	147	6
31	31	21
71	71	9
194	194	2
103	103	6
178	178	13
51	51	12
197	197	8
79	81	6
198	199	11
228	229	6
151	151	19
228	228	7
157	167	4
214	214	13
209	210	1
104	104	7
218	218	10
184	184	15
117	118	5
219	219	10
213	214	7
35	36	2
46	46	11
27	41	4
153	167	5
158	158	5
178	191	2
188	189	2
225	226	3
116	116	13
54	54	9
1	156	2
110	110	19
89	91	4
42	43	1
86	86	8
247	248	3
193	194	5
19	19	7
242	243	5
18	19	7
206	207	7
13	13	2
120	120	4
223	223	13
15	34	6
156	234	3
43	43	23
157	157	4
169	237	2
161	161	14
170	170	15
221	222	7
37	112	5
57	57	7
182	182	1
180	180	24
239	239	16
18	158	1
93	93	6
198	219	2
10	10	23
64	65	1
60	60	7
185	185	5
187	187	2
76	76	3
109	109	12
209	209	10
120	200	3
87	218	1
39	39	7
193	193	8
93	117	2
57	58	6
37	111	2
233	233	24
58	69	2
166	192	1
196	196	20
62	63	4
53	53	5
226	226	10
200	200	10
164	164	9
201	201	7
95	106	5
243	243	8
113	113	4
82	97	4
41	55	3
221	223	3
3	31	2
41	205	1
166	166	16
34	35	3
54	55	4
237	248	1
17	17	8
95	96	2
71	73	3
28	28	15
165	165	24
145	145	16
170	196	2
78	78	13
62	62	6
110	111	3
231	231	16
196	197	6
177	177	8
241	244	2
246	247	7
237	237	12
216	216	8
169	180	3
165	178	2
66	66	7
5	30	6
59	59	17
8	8	16
81	84	2
187	188	18
18	224	2
153	153	10
93	94	1
208	208	5
235	235	2
176	176	8
175	175	12
115	116	5
89	89	11
242	242	6
82	82	12
11	11	6
198	198	19
25	25	17
204	204	14
118	118	5
5	225	5
15	15	19
240	240	2
245	245	12
44	44	4
95	95	18
168	169	4
220	221	8
27	27	5
12	12	5
222	222	10
37	40	4
175	176	5
146	146	1
48	48	5
37	37	10
172	204	2
70	80	1
97	97	4
189	197	1
195	213	1
36	36	9
247	247	8
65	66	5
156	157	3
213	213	27
222	233	4
102	102	9
106	107	4
87	108	1
152	153	6
24	24	4
224	224	7
83	84	3
216	217	3
162	164	1
236	237	2
97	145	3
70	81	2
212	225	6
87	88	3
171	180	1
207	208	1
70	70	5
94	99	2
91	91	4
181	181	18
35	35	11
73	76	3
225	225	7
156	156	22
49	69	1
212	212	9
192	217	4
167	178	1
150	150	15
49	49	14
106	106	9
114	114	12
203	203	7
159	198	3
217	217	13
57	89	6
178	179	6
20	171	3
82	83	1
5	157	1
120	199	2
239	240	2
168	168	5
195	196	4
163	163	3
180	238	3
39	172	1
32	33	5
248	248	5
153	159	4
20	20	8
169	172	2
225	233	2
72	73	1
196	210	2
53	114	4
147	211	1
5	32	2
172	173	6
150	224	2
38	38	8
81	81	11
90	91	5
230	234	2
117	236	2
194	213	2
164	165	4
150	213	5
53	54	4
29	31	1
32	44	3
107	108	3
25	26	4
202	203	11
91	92	3
210	210	20
169	179	1
149	149	2
94	103	3
201	203	4
209	218	2
199	199	12
182	209	2
68	68	1
145	155	2
36	51	1
40	52	1
15	48	1
190	191	6
76	77	11
69	69	4
121	199	5
167	168	1
75	75	5
12	41	1
43	44	2
30	32	2
186	237	5
33	33	7
211	225	3
69	70	2
201	221	1
180	181	5
238	239	2
79	89	3
145	154	1
90	90	11
17	156	3
194	195	5
100	101	2
234	234	5
33	34	2
211	212	4
107	107	12
204	205	3
196	198	2
101	101	9
189	192	2
214	215	5
41	41	13
119	120	1
243	244	2
52	113	4
159	160	3
118	119	3
72	72	6
5	29	1
76	85	3
84	86	3
189	190	2
152	191	2
101	103	2
190	216	2
49	58	2
41	46	1
241	241	7
1	1	3
2	3	2
14	15	6
170	179	3
33	57	4
167	167	4
241	243	2
28	114	2
86	99	1
167	191	1
32	198	2
233	237	2
29	220	2
210	211	4
95	108	2
230	231	2
231	232	3
208	209	3
61	61	3
80	81	2
87	104	1
33	212	2
24	26	2
73	73	3
81	85	4
183	186	4
88	107	2
65	65	9
190	192	4
0	1	1
227	227	9
170	238	2
229	229	7
180	246	1
102	175	1
4	158	4
109	114	1
236	244	2
194	196	2
166	167	3
209	234	2
3	3	5
121	121	3
86	87	2
156	160	2
96	99	3
22	22	14
66	67	1
55	55	6
194	212	1
49	164	1
154	155	4
157	159	5
171	172	4
193	196	1
183	184	1
68	69	6
50	50	5
158	192	2
101	106	2
147	233	1
2	200	1
241	242	2
153	179	3
39	221	3
66	68	1
25	27	4
215	247	3
179	246	6
245	248	2
160	160	11
89	102	2
52	114	1
51	96	1
186	220	2
74	170	2
244	245	1
87	87	3
84	88	4
16	16	3
3	15	3
149	150	1
46	97	1
61	62	2
33	35	4
23	114	3
147	149	1
217	218	3
29	75	4
100	119	1
94	97	1
34	39	3
79	90	1
232	238	1
204	247	2
64	64	3
20	21	2
44	46	1
71	74	2
95	97	5
52	53	1
99	99	4
32	220	1
184	210	1
33	55	1
165	166	3
232	232	1
80	83	3
4	4	3
61	74	4
89	97	1
114	115	2
79	79	7
187	189	5
168	171	1
83	83	2
70	149	2
218	221	1
222	225	1
215	216	6
109	110	2
116	117	6
167	192	4
193	201	1
198	200	1
90	118	1
117	117	4
23	228	1
176	177	7
202	218	1
153	178	2
229	230	2
64	69	1
9	10	3
107	121	2
181	209	3
74	80	2
226	233	1
199	219	1
2	180	1
170	174	2
17	18	1
98	99	1
56	57	1
178	188	2
61	171	1
191	192	2
243	247	1
177	248	1
109	174	2
4	30	3
174	177	1
35	47	4
206	206	1
185	186	4
200	201	1
184	207	1
94	95	5
223	234	1
201	202	1
11	12	1
174	174	4
31	42	1
89	103	3
173	237	1
81	82	4
89	90	2
182	205	1
203	246	2
162	237	2
181	238	2
100	100	3
62	73	1
75	76	1
229	235	2
74	74	2
63	75	2
197	211	2
4	17	5
174	194	2
41	53	1
155	156	2
190	190	2
40	51	1
33	194	2
116	236	2
108	237	3
205	206	1
201	227	2
158	159	1
38	40	1
60	61	2
23	25	1
67	68	3
38	39	3
109	155	2
163	241	1
210	214	1
24	117	1
168	182	3
215	218	1
193	214	1
15	169	1
47	57	2
111	145	1
33	157	1
152	165	5
55	56	6
163	164	2
31	32	1
237	242	1
18	18	5
197	206	2
177	179	1
38	116	2
10	41	1
166	197	1
30	31	3
174	175	1
69	71	2
180	182	1
167	209	1
219	244	2
45	45	2
176	184	3
62	78	1
58	90	2
80	82	3
82	85	3
2	157	2
117	165	1
162	163	3
186	189	1
37	82	1
28	205	1
166	187	1
78	120	1
70	71	2
58	76	1
145	146	1
29	228	1
197	212	1
5	14	1
5	224	1
108	246	1
37	38	2
184	236	2
71	79	1
102	103	2
224	226	1
95	118	2
69	247	1
159	165	1
42	204	1
245	246	1
182	189	1
221	228	1
104	213	2
64	71	1
56	58	2
113	114	2
15	206	1
118	236	2
2	6	1
159	186	1
39	40	1
200	237	1
18	160	1
71	72	1
94	119	1
182	207	1
75	119	1
241	246	1
10	15	1
226	235	1
180	199	2
185	219	1
101	102	1
197	199	1
213	217	1
73	74	1
154	174	1
238	240	1
181	182	1
14	34	1
210	215	1
173	174	1
209	220	1
97	99	1
47	48	1
43	204	1
170	194	1
4	5	1
161	166	1
88	104	1
37	50	1
184	208	1
175	195	1
50	149	2
172	190	1
45	112	1
157	180	1
197	220	1
170	177	1
162	167	1
