73	115	5
163	163	2
142	142	7
108	108	24
111	111	10
27	27	18
56	56	16
97	98	14
49	50	2
137	137	8
25	25	21
105	106	7
50	50	17
42	42	11
100	155	1
124	124	6
112	112	22
34	139	6
102	102	4
5	6	4
37	38	14
34	35	11
68	68	9
3	4	4
44	44	19
67	69	9
89	89	16
99	156	1
9	9	9
150	150	9
129	154	3
39	39	11
116	118	2
167	170	4
112	114	10
168	168	8
26	26	19
6	6	15
18	18	11
136	136	21
127	127	25
80	80	17
91	94	4
43	43	15
86	87	10
82	83	8
15	15	14
75	75	18
71	96	4
87	87	9
120	122	5
86	86	17
88	88	19
23	24	3
53	53	14
116	116	20
50	96	2
154	154	6
153	154	2
47	47	17
96	96	15
82	126	6
146	146	16
163	164	3
19	19	4
100	153	2
20	20	11
18	19	3
82	86	2
83	83	17
10	11	13
37	107	2
37	37	17
83	84	10
155	159	4
11	13	2
97	97	11
134	134	17
119	120	2
12	12	12
110	110	14
142	144	15
40	40	29
117	118	6
155	156	9
51	54	2
52	52	8
7	7	10
9	10	9
164	164	7
12	39	3
132	133	10
73	73	23
94	94	15
54	54	10
101	101	9
97	152	7
109	109	10
45	45	10
71	71	15
78	84	2
47	49	10
81	81	12
103	104	2
106	139	2
105	148	4
5	5	22
99	100	5
108	109	7
119	119	8
141	141	8
36	36	27
157	157	10
106	106	23
130	130	5
142	143	3
112	113	3
120	121	8
16	16	17
13	14	6
63	64	1
154	156	2
140	140	5
16	17	11
74	75	2
49	49	16
110	112	7
88	89	7
120	120	4
51	51	19
23	23	10
130	131	8
70	70	11
98	98	23
145	146	2
13	13	21
126	166	1
100	101	5
138	138	17
138	141	5
35	35	13
162	164	4
55	55	13
4	4	18
72	72	12
3	168	1
104	104	10
144	144	9
14	14	14
2	2	23
8	8	15
72	73	3
17	165	1
92	93	21
125	125	12
139	140	6
100	100	8
151	151	10
17	18	4
95	95	6
10	13	1
14	162	1
165	167	1
69	70	11
14	15	3
64	64	10
139	139	7
118	118	7
48	48	14
1	136	2
11	11	9
65	66	4
38	39	3
124	126	1
74	74	15
39	40	11
10	10	15
122	122	9
162	162	5
95	96	15
57	57	9
131	131	14
93	93	13
62	62	5
105	105	15
46	46	17
156	156	7
115	115	14
121	166	1
94	96	2
75	76	3
53	54	11
27	28	3
155	155	10
168	169	1
167	167	6
71	108	6
79	80	6
76	76	11
79	82	4
101	102	10
123	156	4
145	145	9
114	114	20
126	127	10
91	91	14
156	165	3
123	123	12
150	151	2
107	107	13
15	23	3
92	92	11
12	13	2
99	99	18
45	51	5
15	20	3
129	129	5
65	65	5
75	94	3
113	113	7
170	170	11
137	138	2
19	21	5
19	23	6
106	149	1
169	170	12
17	17	27
46	47	3
25	26	2
149	149	11
85	85	9
56	57	5
116	117	3
90	91	5
38	38	8
156	167	2
109	111	3
51	57	3
141	142	6
93	94	5
148	148	7
101	104	2
162	163	2
79	79	14
169	169	13
22	22	8
103	106	3
47	88	2
98	153	2
35	36	3
53	99	2
153	153	12
75	77	1
58	58	4
146	147	5
84	85	9
33	33	8
77	79	2
83	85	4
145	154	4
105	110	1
76	115	2
94	95	5
50	51	3
13	53	6
166	166	11
16	24	1
125	128	1
106	107	3
152	153	2
123	124	4
68	108	2
159	160	11
41	41	10
41	42	6
82	166	2
67	67	9
20	22	3
36	40	2
90	90	12
135	136	7
4	5	2
116	158	3
147	148	4
45	86	2
55	56	16
1	1	13
5	135	3
28	36	1
13	15	2
4	6	2
109	112	5
152	152	10
128	130	3
69	69	8
134	135	2
97	155	1
115	116	4
70	108	2
161	161	6
145	148	3
124	125	1
156	157	5
148	149	6
52	53	5
99	116	4
7	8	4
68	69	2
114	115	5
80	83	5
159	159	5
102	104	3
117	117	7
44	45	11
93	131	1
143	143	5
11	12	7
24	24	16
11	44	2
74	76	3
80	116	2
80	82	6
53	67	2
73	74	1
89	90	2
88	90	5
10	41	3
77	77	13
63	69	2
45	46	2
128	129	6
48	70	3
147	161	1
1	7	3
66	66	4
82	82	9
79	83	1
78	78	10
121	121	7
8	9	4
48	49	8
78	79	7
28	28	6
160	160	5
102	110	1
84	84	13
101	103	3
132	132	4
6	7	7
24	25	7
87	88	4
121	122	3
91	92	4
47	69	1
158	158	7
165	165	5
103	103	4
133	134	2
48	50	4
33	34	5
0	146	2
76	78	3
21	22	5
0	0	9
93	102	1
104	106	2
160	166	4
98	99	6
52	54	3
74	77	2
3	3	10
149	150	1
20	21	3
92	111	4
85	86	7
22	23	2
132	164	1
21	21	6
142	147	1
126	128	3
110	113	6
44	46	6
71	87	2
151	152	2
105	145	2
104	105	4
144	145	3
122	157	3
69	99	4
15	19	1
5	7	3
15	132	1
133	133	1
124	164	2
67	99	1
158	159	4
10	147	2
21	44	2
164	165	6
52	67	2
100	103	2
91	93	1
117	152	1
16	20	1
40	41	8
51	52	3
15	16	5
35	37	2
58	103	2
129	130	4
35	40	2
0	1	2
65	110	1
136	137	3
17	20	1
46	86	3
120	123	1
125	127	2
0	142	4
106	148	1
47	70	1
67	68	2
68	102	1
81	83	4
135	135	5
33	35	1
5	8	4
64	65	4
72	78	3
140	141	4
102	103	4
54	55	4
18	21	2
37	41	2
55	58	1
135	138	1
26	141	1
66	67	4
48	66	2
147	147	3
149	151	2
36	140	1
19	62	2
10	12	2
58	72	1
100	102	1
100	119	2
55	163	3
81	82	3
118	155	1
18	20	1
20	133	2
70	72	1
73	75	3
2	136	1
76	79	4
14	18	1
63	63	7
152	155	3
128	154	1
93	116	2
37	108	2
131	132	3
56	89	4
71	72	4
161	165	3
47	89	4
76	77	5
93	114	1
49	64	2
9	41	3
123	164	1
143	144	1
3	134	1
115	118	3
81	164	1
138	169	2
103	110	1
123	161	1
158	160	2
38	41	3
9	11	2
7	53	3
146	150	1
156	160	1
46	56	1
0	2	2
93	97	1
138	139	2
133	148	2
14	45	5
111	113	2
161	162	1
77	89	1
74	90	1
139	141	3
81	87	2
15	162	1
13	25	2
64	71	1
1	6	2
35	39	2
122	123	1
39	41	1
144	151	1
34	34	4
107	109	1
34	137	1
12	40	1
132	134	1
101	154	1
81	84	1
150	152	3
61	62	1
78	81	1
121	164	1
25	49	2
154	155	1
125	161	1
52	90	1
77	78	4
64	70	1
102	107	1
52	55	1
79	115	1
147	150	1
130	154	2
165	166	3
103	105	2
106	141	1
36	107	1
53	55	1
99	121	2
74	80	1
134	136	2
33	138	1
126	126	1
134	160	1
26	109	2
152	154	1
137	168	1
54	99	2
95	98	1
6	8	1
64	67	1
155	167	1
106	112	1
10	46	1
103	108	1
115	153	2
84	86	2
45	52	1
150	155	1
118	119	1
115	117	1
42	109	1
124	127	2
22	44	1
143	150	1
47	48	1
68	70	1
141	155	1
57	118	1
1	2	1
40	43	1
11	43	1
105	141	2
28	42	1
45	101	1
18	23	1
145	152	1
17	127	2
107	110	1
106	108	2
106	143	1
62	64	2
46	48	1
122	124	2
36	38	1
109	110	1
128	128	2
36	46	1
99	102	1
107	108	1
117	157	1
124	162	1
54	57	1
3	8	1
54	56	1
