34	37	4
64	67	1
4	4	14
75	75	9
23	23	24
62	62	26
57	58	18
58	58	15
48	48	17
29	29	38
51	60	4
33	33	25
59	60	8
58	61	1
73	73	17
51	51	26
42	53	5
36	39	5
72	72	12
54	59	6
26	26	17
60	61	21
3	3	25
76	76	7
38	38	25
1	3	3
1	67	3
7	12	1
0	1	14
39	39	21
60	60	24
62	64	8
55	55	14
14	54	2
28	28	31
75	76	5
53	54	3
46	46	23
54	54	29
5	6	10
25	27	5
57	57	19
12	12	20
35	37	6
45	47	4
5	5	12
34	34	16
61	61	25
38	39	10
66	67	12
10	11	10
3	72	3
44	44	7
20	20	25
10	10	27
0	0	22
13	14	6
36	36	8
49	49	15
52	52	18
45	46	20
58	60	4
13	52	1
4	5	7
24	25	9
55	56	4
35	36	4
1	1	16
30	31	6
54	55	9
56	57	2
32	49	1
76	77	12
42	43	9
19	19	12
43	43	12
37	37	13
0	2	9
70	77	2
3	68	3
63	64	6
6	6	20
31	32	3
68	68	14
21	21	28
68	69	7
56	56	21
6	11	6
24	26	2
29	30	18
59	59	13
66	66	13
53	53	12
52	53	9
29	34	2
70	70	16
48	49	1
63	63	12
18	18	3
55	57	3
47	47	12
69	76	3
35	40	8
77	77	9
67	67	14
51	54	7
51	52	7
69	70	4
42	42	30
1	2	6
70	71	4
9	73	3
6	7	7
23	24	2
39	40	8
9	68	2
58	59	11
24	27	7
73	74	4
51	53	4
29	31	3
50	55	3
31	31	32
50	50	15
35	35	9
40	40	14
30	30	14
43	54	3
52	58	4
28	35	5
64	65	5
74	74	18
24	24	8
13	13	23
2	4	13
71	71	15
19	20	9
9	9	29
45	45	28
8	9	4
54	56	5
30	32	3
9	11	5
11	12	4
68	73	6
56	59	6
64	64	16
7	7	12
55	61	1
57	59	9
44	47	6
28	29	10
8	8	14
2	2	21
26	27	3
72	73	7
41	41	22
65	65	9
8	10	5
32	33	17
69	69	13
62	63	4
29	32	5
7	8	9
57	61	5
29	53	2
73	76	4
62	69	3
72	75	3
11	11	27
57	60	3
43	51	5
4	39	3
49	51	3
41	49	2
22	25	4
48	50	1
63	69	3
13	67	1
21	28	3
14	48	3
30	42	3
33	34	4
23	25	3
22	23	5
67	68	4
25	25	7
3	4	4
41	64	3
47	48	4
43	47	2
23	26	1
37	38	7
22	22	23
46	47	2
10	72	2
41	42	2
20	21	6
44	45	11
35	39	1
42	44	2
18	19	2
21	23	1
30	33	5
27	27	5
12	13	1
48	60	2
71	72	5
69	73	4
50	51	11
47	52	4
14	14	2
41	62	2
49	50	4
43	44	13
27	28	4
28	50	1
36	37	3
28	33	3
57	62	1
43	61	1
64	66	3
41	50	4
25	31	3
0	66	1
13	71	3
60	69	1
44	46	1
6	72	2
26	28	2
56	60	3
11	21	1
66	68	2
25	28	3
7	14	1
5	35	4
32	32	10
51	58	1
37	39	1
60	75	3
13	26	1
7	10	2
6	35	4
40	42	3
41	53	1
50	52	1
37	47	1
43	55	1
61	63	3
3	40	2
14	19	1
25	26	5
33	47	1
1	68	1
41	43	1
7	71	2
37	42	4
3	5	1
69	71	4
2	6	2
43	63	1
24	56	2
49	54	1
36	38	6
5	36	2
7	9	2
60	74	1
51	57	2
67	74	1
59	61	2
36	47	1
40	49	2
2	5	3
18	20	1
9	10	5
1	5	1
44	55	2
20	56	1
25	35	1
61	64	1
70	72	1
42	62	1
32	34	1
50	58	4
51	59	1
27	54	1
43	46	3
75	77	1
3	63	1
22	26	1
5	11	1
43	50	1
10	12	2
31	33	1
42	48	1
5	7	1
2	3	2
36	50	1
5	40	1
40	51	2
74	75	1
33	35	1
71	73	1
43	45	1
1	7	1
50	62	1
38	47	1
