23	23	8
4	4	16
87	87	19
111	112	6
5	5	25
115	115	10
134	136	5
22	23	6
50	51	8
76	76	6
88	88	7
111	111	7
116	116	5
29	29	6
122	122	10
92	93	12
22	22	7
131	131	11
6	6	14
110	111	4
123	123	4
107	108	3
119	119	7
83	84	3
113	122	3
78	78	4
5	7	2
40	40	4
124	124	1
129	129	4
64	64	8
96	96	2
148	148	10
98	98	9
124	132	2
80	81	1
92	92	11
67	68	6
12	12	13
1	2	2
7	8	2
129	130	5
93	93	20
91	92	9
28	98	3
103	103	4
93	94	3
113	113	16
120	120	8
148	149	1
109	109	7
158	158	6
44	44	7
136	136	10
147	147	8
48	50	2
155	156	8
123	125	2
46	47	8
26	27	6
108	122	2
151	152	2
73	73	10
34	34	6
106	106	21
41	41	7
115	123	4
95	95	10
26	26	6
153	153	6
34	116	1
25	26	4
36	36	6
74	74	2
130	130	13
110	110	6
140	140	12
3	3	6
89	90	2
24	24	18
48	48	4
78	79	4
88	89	5
72	73	2
2	128	1
68	70	1
43	44	1
40	41	7
103	104	6
37	38	4
16	16	16
85	85	6
4	21	5
21	21	12
39	39	7
130	139	5
20	20	6
82	82	10
69	69	7
35	35	12
157	158	2
117	117	5
94	94	9
126	126	7
118	118	7
9	9	9
6	8	2
28	28	3
70	78	4
130	131	2
140	154	1
45	139	3
16	17	9
17	17	5
116	135	1
0	158	1
17	18	6
156	158	2
57	57	4
3	4	3
144	144	9
23	40	3
31	31	3
0	1	2
15	15	5
30	30	10
45	45	6
40	127	1
122	123	3
145	145	2
90	92	3
152	153	1
83	85	4
103	115	2
135	137	1
99	99	9
94	95	11
1	1	6
84	84	2
18	30	2
79	80	7
154	154	3
80	80	7
10	10	7
45	47	1
6	7	4
72	95	3
18	18	7
79	81	1
65	65	4
104	117	2
16	18	2
150	150	7
45	50	2
138	138	12
19	20	3
90	91	2
92	94	1
8	8	8
121	122	5
19	19	5
43	43	25
51	54	8
95	96	4
141	141	2
78	80	1
81	82	6
25	25	10
24	98	2
139	139	11
91	91	12
92	105	4
139	140	3
142	142	11
116	123	2
105	105	6
81	81	14
132	132	9
133	133	9
98	121	1
107	107	8
33	35	4
46	46	11
30	113	2
6	26	3
101	102	1
50	50	6
135	136	6
112	112	5
79	79	4
97	109	4
125	125	8
114	114	7
33	33	4
110	112	2
156	156	7
90	90	8
105	136	3
45	75	1
49	67	3
103	107	1
98	111	1
51	51	6
114	120	3
143	148	4
52	52	6
116	136	6
149	149	7
0	0	5
38	39	4
102	148	3
42	42	6
7	7	2
127	127	10
34	35	2
151	151	9
102	102	2
101	101	11
121	121	6
23	93	3
27	28	4
88	90	3
104	105	10
102	117	4
108	108	9
49	49	2
100	100	5
135	135	6
84	85	2
85	89	1
89	89	5
98	139	5
100	101	1
153	154	6
146	146	11
78	95	2
32	127	2
70	70	1
157	157	2
67	67	4
40	42	5
134	134	5
77	77	5
105	112	2
90	148	2
114	115	3
17	42	1
5	6	1
54	54	7
52	53	1
116	118	4
156	157	9
28	127	3
97	97	4
62	85	4
47	47	5
87	104	4
71	71	2
144	146	1
105	133	1
41	42	1
31	32	2
134	135	6
109	110	2
87	90	5
97	98	5
142	156	1
37	37	1
39	136	2
103	112	2
44	47	3
55	55	4
150	151	2
124	125	3
132	134	1
47	51	3
128	129	3
23	27	1
115	120	3
53	54	1
45	46	1
137	137	10
24	25	2
49	89	2
152	152	7
81	84	2
38	38	5
27	27	6
4	152	1
29	30	4
120	143	1
77	78	1
32	36	4
18	92	1
51	75	3
131	132	2
138	139	2
143	143	1
113	114	4
27	29	2
155	155	6
102	115	2
119	120	1
20	43	2
104	127	1
32	32	4
128	128	2
11	11	2
51	52	2
95	108	1
89	91	2
11	13	1
66	66	1
80	142	1
27	99	1
6	12	2
4	6	3
143	144	1
119	121	2
43	99	1
126	133	1
7	35	1
117	121	2
146	147	3
133	134	2
4	45	2
57	88	1
13	13	2
32	157	1
12	140	1
106	107	1
91	95	4
146	154	1
61	64	2
48	51	1
31	34	2
86	86	2
83	83	2
108	109	2
52	54	3
33	151	3
114	125	1
130	138	2
2	45	1
2	2	3
145	146	1
105	106	2
115	116	2
128	155	1
8	36	1
94	105	2
47	48	1
62	64	1
151	153	2
118	146	2
26	28	1
14	14	3
137	138	3
109	111	2
82	83	1
116	117	2
44	54	1
9	10	1
117	118	1
48	49	1
71	72	1
73	75	1
46	72	2
140	141	1
117	120	2
50	52	1
45	48	1
63	63	1
38	40	1
96	97	1
23	24	1
17	47	1
101	105	2
35	36	1
55	56	2
77	91	1
4	5	2
6	23	2
86	110	1
104	104	1
132	133	1
62	62	1
117	143	1
77	142	1
10	141	1
111	120	1
24	158	1
93	95	1
53	53	1
56	56	1
