105	105	13
88	89	1
23	27	4
84	85	2
111	111	22
109	110	6
13	14	5
74	75	3
6	8	2
189	194	3
94	139	5
128	129	11
0	0	15
162	165	3
175	179	1
98	98	7
156	156	10
153	153	19
176	178	8
73	74	1
20	21	12
107	107	17
147	147	29
104	105	12
103	104	10
102	102	9
14	45	4
80	87	4
178	178	16
58	59	3
180	180	23
194	194	17
38	38	18
175	175	22
8	8	10
181	182	13
72	72	7
16	16	12
109	109	15
11	11	8
21	22	5
189	189	11
75	76	3
19	19	15
173	176	3
28	29	15
147	176	3
192	193	11
54	54	8
0	2	2
42	42	21
56	56	9
79	79	22
125	126	5
7	7	10
190	190	15
104	104	12
149	149	35
24	24	18
121	124	3
17	17	7
47	47	8
46	47	5
176	176	17
154	158	1
182	182	28
108	108	8
2	2	15
4	4	33
150	150	25
125	125	9
28	28	16
21	36	6
69	73	1
63	64	3
175	177	4
172	173	6
21	21	15
191	191	22
32	32	13
67	68	4
168	168	21
81	177	3
83	85	5
44	45	3
154	156	2
196	196	18
168	170	3
134	143	2
148	195	6
143	145	8
113	113	12
112	112	16
83	84	3
51	51	6
88	88	3
20	20	16
1	1	18
80	80	8
127	127	10
19	29	9
31	31	11
135	137	1
124	124	7
194	195	3
68	68	13
145	146	16
155	156	10
161	166	7
193	193	27
12	12	19
159	159	25
113	114	7
171	171	19
23	23	21
184	184	6
4	5	3
142	143	5
191	192	7
3	24	2
5	6	4
119	119	17
187	187	20
10	47	6
143	144	15
101	102	6
53	53	18
177	177	25
19	22	6
36	36	22
134	137	3
179	179	18
100	100	8
162	162	9
181	181	25
140	140	23
15	15	18
22	22	18
166	166	16
59	60	7
152	155	7
110	110	4
158	160	4
35	35	15
87	87	11
158	158	24
146	160	2
93	93	9
165	168	5
22	23	3
89	90	3
141	155	1
131	131	16
99	109	1
12	179	5
114	114	23
146	146	20
9	44	2
119	120	11
172	172	22
28	34	1
25	25	13
141	185	2
141	141	22
93	166	4
62	63	5
76	76	9
115	116	11
147	148	5
186	187	6
101	113	3
136	136	19
118	118	17
130	131	8
161	161	23
102	192	2
18	18	16
158	159	9
18	19	4
128	128	13
3	3	6
123	123	7
12	13	3
80	85	3
177	178	2
81	82	9
58	70	7
168	169	13
116	116	13
86	86	7
26	27	8
76	77	2
64	65	5
72	80	1
99	99	13
35	36	15
101	101	10
121	129	3
93	96	3
26	26	9
39	39	22
34	35	4
80	86	1
1	7	4
71	72	1
40	42	3
138	138	16
123	125	8
48	48	18
118	132	5
169	170	12
130	130	11
69	88	3
155	155	9
139	139	26
185	186	14
55	55	18
138	140	3
143	146	4
33	34	3
157	157	22
172	176	3
5	5	12
117	118	3
170	170	12
131	144	6
135	135	12
3	26	2
122	122	15
174	174	16
173	173	19
115	115	19
135	143	2
52	52	19
2	3	6
65	65	5
12	31	2
75	75	2
96	96	8
55	66	4
165	166	6
185	185	13
163	163	15
62	62	12
31	32	7
133	134	6
37	37	8
34	37	1
59	59	6
192	192	6
121	121	4
20	23	7
148	148	15
117	117	20
151	181	1
118	119	10
175	176	6
149	166	4
141	143	1
106	106	8
134	135	7
95	95	10
142	146	3
145	145	10
169	169	23
164	166	2
142	142	9
54	56	5
122	123	4
164	164	13
94	95	6
14	14	11
77	77	6
83	83	7
49	49	9
102	105	3
104	107	3
113	138	2
19	30	4
100	101	2
14	15	3
56	77	3
144	145	9
5	25	3
23	24	4
145	193	4
144	144	3
107	108	2
160	161	13
56	57	2
94	116	1
17	18	8
55	56	6
165	165	15
74	74	15
137	137	5
33	33	9
57	57	18
131	135	1
0	3	2
69	69	14
167	167	17
149	151	3
8	20	3
54	55	7
10	11	2
190	192	7
89	89	5
134	134	12
9	38	3
121	122	6
186	186	13
71	73	4
129	129	14
189	190	9
152	153	11
5	7	4
113	123	1
150	151	5
140	155	2
132	132	10
46	46	9
58	63	1
44	50	1
27	27	5
13	13	13
70	70	3
152	179	4
159	162	4
150	180	1
43	43	12
66	66	10
67	67	5
118	134	1
79	80	4
8	9	7
14	42	2
9	9	12
159	177	1
116	135	1
128	196	4
76	78	4
134	136	3
17	37	7
149	150	1
115	135	1
153	155	1
79	84	2
49	50	1
39	41	2
160	160	14
164	165	1
154	154	12
157	158	6
152	152	17
117	119	5
50	50	3
4	6	2
192	194	3
171	172	6
30	31	9
153	179	5
195	195	18
24	25	2
134	151	2
77	78	4
38	39	10
103	110	1
162	164	8
163	164	8
64	66	2
159	173	1
16	17	11
151	177	5
94	94	6
54	97	3
34	34	4
51	52	1
180	181	9
22	25	4
150	189	4
99	100	3
73	86	2
40	41	6
58	190	1
4	18	3
29	29	11
30	30	4
60	60	4
189	191	2
123	124	2
113	125	2
18	20	1
80	81	4
188	188	4
25	34	3
136	137	2
137	181	7
114	122	2
178	179	4
62	73	2
45	46	5
11	13	1
58	58	11
76	79	2
197	197	11
37	38	1
187	190	4
78	78	13
95	143	2
81	83	3
39	66	1
9	31	1
16	18	1
139	140	18
94	113	2
116	117	2
40	40	3
126	126	11
183	183	13
25	28	3
93	94	2
126	155	3
45	45	14
184	188	1
153	154	6
35	37	3
105	106	5
15	17	3
104	106	6
15	16	5
27	28	1
6	6	15
10	10	9
145	154	3
154	157	1
134	138	1
7	8	3
148	173	1
106	118	5
53	54	4
62	72	1
145	155	2
3	4	3
156	162	3
193	194	2
65	66	2
154	161	2
90	90	1
132	133	5
117	134	4
119	134	1
33	37	1
152	169	2
158	161	1
168	182	3
48	49	1
44	44	11
172	178	1
161	163	2
109	116	2
115	117	2
108	110	5
152	178	2
146	147	4
22	39	1
189	193	1
63	66	2
151	195	1
115	130	2
104	112	1
96	105	2
111	113	4
180	189	2
146	180	1
183	184	1
173	175	7
10	12	2
42	43	2
171	183	1
59	62	3
195	196	5
133	133	10
71	76	2
173	174	6
41	68	2
101	103	6
28	30	2
102	103	3
41	41	4
76	86	1
98	99	5
47	49	2
170	171	4
110	111	5
50	52	2
119	122	1
151	151	10
64	64	6
39	54	1
69	70	4
17	188	2
24	37	7
196	197	1
172	189	3
16	94	7
137	143	2
38	58	2
172	174	2
6	39	3
156	179	1
159	164	3
63	63	2
175	178	3
82	82	1
95	97	1
148	150	1
75	79	2
154	155	2
180	187	2
148	157	3
59	87	1
107	113	2
96	97	8
106	137	1
97	104	2
59	72	1
79	176	1
147	152	3
72	167	1
176	177	8
85	85	2
26	30	2
36	37	3
120	120	4
134	155	1
108	109	3
146	156	2
14	46	3
61	70	1
143	156	3
135	155	1
116	118	2
12	15	2
141	169	3
141	142	2
119	136	2
156	158	3
189	192	1
81	81	6
57	70	2
152	164	1
190	193	1
183	197	2
84	84	1
57	72	1
72	73	2
156	164	2
17	23	1
24	34	2
184	185	7
38	67	2
18	38	4
119	139	1
156	157	1
62	74	2
178	180	1
97	97	1
9	39	2
78	89	1
32	56	1
14	99	2
39	56	5
3	139	1
3	5	2
159	167	2
5	13	2
159	160	4
165	167	2
121	123	1
160	177	1
107	139	1
103	103	5
19	36	3
136	145	1
19	40	1
73	73	2
182	183	3
80	88	3
173	180	4
105	124	2
5	21	2
22	24	2
7	26	2
145	156	1
152	180	2
187	188	1
10	13	4
58	64	1
1	29	1
31	49	2
137	144	3
49	58	1
0	1	3
172	190	1
58	69	1
160	193	2
39	40	3
31	187	2
20	36	1
11	102	1
21	37	1
161	162	3
1	36	2
59	61	2
45	196	1
46	50	1
107	109	1
27	33	1
25	26	2
143	143	4
151	157	1
140	153	2
116	133	1
16	24	3
1	3	1
19	21	2
4	21	1
6	7	3
16	23	1
148	149	2
73	90	1
6	16	3
70	73	1
71	71	2
85	94	1
154	181	1
107	110	4
172	177	3
133	138	1
78	176	1
20	42	1
43	54	1
140	160	1
124	125	1
65	77	1
130	132	1
145	166	1
179	180	1
73	76	1
178	182	1
132	140	1
73	75	1
56	66	1
166	167	2
86	123	1
27	34	1
47	119	1
135	136	1
17	24	2
81	119	1
1	2	2
63	192	2
109	111	2
84	86	1
107	134	1
106	121	1
15	62	1
188	189	2
86	87	1
14	16	1
99	110	1
139	168	1
53	55	1
20	30	1
43	50	1
50	51	2
111	112	2
143	154	1
30	32	2
172	187	1
63	69	1
154	175	1
155	157	1
173	179	1
49	52	1
42	52	1
190	191	1
138	139	1
13	47	1
148	161	1
137	138	1
1	4	1
120	121	1
2	7	1
24	36	1
