17	18	3
20	20	24
110	111	7
81	85	3
83	86	3
77	78	2
121	122	5
126	126	12
87	87	15
10	24	4
112	113	8
29	30	7
135	135	5
108	109	3
26	33	4
88	88	4
138	138	16
73	76	2
83	83	8
112	112	10
105	105	4
17	17	5
73	120	2
137	138	3
129	130	3
112	126	1
38	38	9
109	109	8
71	72	2
19	19	15
100	101	5
124	124	15
98	98	11
120	121	7
85	85	2
128	128	10
89	89	5
89	90	4
117	117	14
25	25	3
6	98	4
105	125	1
20	21	3
88	115	2
4	18	1
12	12	10
16	17	3
4	95	3
104	106	4
111	111	6
2	2	20
97	97	8
28	28	9
78	103	7
90	90	4
133	134	4
74	75	3
27	38	1
14	14	3
84	85	4
24	24	5
78	104	3
118	118	5
80	81	2
33	33	3
5	5	6
105	122	5
8	23	4
114	117	3
31	31	9
37	37	12
35	35	5
136	137	1
76	76	6
129	138	1
26	27	2
125	126	10
19	22	1
99	100	4
106	107	5
6	6	10
97	98	3
33	34	5
137	137	20
21	21	10
136	138	7
32	35	2
77	79	4
131	132	2
129	135	1
96	96	14
86	86	9
101	101	6
116	116	13
18	18	8
73	73	7
36	36	19
2	7	2
79	85	1
113	113	9
120	120	10
1	1	6
80	82	2
122	122	19
110	110	2
10	18	8
79	82	6
77	103	6
131	131	20
16	16	6
21	102	1
125	125	6
7	138	3
21	99	5
122	123	5
6	44	1
29	29	2
121	121	13
8	9	11
91	91	8
123	123	12
0	2	2
22	23	6
7	7	5
83	85	7
129	129	14
74	91	2
133	133	8
25	26	2
14	79	1
126	128	3
9	13	4
0	0	8
130	132	2
11	12	2
127	127	19
127	128	2
81	81	10
82	85	6
16	82	2
128	129	6
7	8	2
126	127	3
83	104	2
73	82	2
99	99	12
23	23	10
115	115	13
9	9	10
88	100	2
8	13	2
26	26	4
125	135	2
8	8	6
120	122	3
82	82	13
134	135	4
72	72	12
87	106	2
140	140	7
24	69	2
134	134	4
137	139	1
4	133	1
108	108	8
10	10	3
34	37	4
75	75	5
77	101	2
35	36	2
84	84	1
94	94	7
30	30	4
112	121	1
139	139	13
6	72	3
87	88	6
101	106	3
104	122	4
68	75	3
139	140	1
119	119	9
113	114	5
12	13	7
32	32	9
20	23	4
4	5	2
13	13	7
27	27	4
36	37	7
92	92	2
28	29	4
21	26	5
74	74	6
6	37	3
118	121	2
30	31	2
77	91	2
2	4	4
109	111	1
75	89	3
2	20	1
79	120	2
2	3	1
123	138	3
102	102	10
119	120	6
114	114	7
130	130	7
11	37	2
81	82	9
75	108	1
78	78	2
87	104	3
17	23	2
73	93	2
82	83	2
75	104	3
127	129	4
19	20	5
104	105	4
18	21	1
5	6	2
15	21	1
4	6	1
107	107	3
13	14	6
3	3	6
116	124	3
102	129	1
136	136	7
10	12	4
80	80	4
117	119	1
6	91	4
22	22	9
17	102	1
1	7	1
127	130	2
79	79	5
73	74	2
15	16	2
118	123	2
80	103	1
103	103	5
79	80	4
101	102	2
83	84	5
26	29	4
11	11	1
71	74	2
106	108	2
2	11	3
115	136	1
103	118	4
113	121	1
95	95	10
109	112	5
15	15	8
76	77	2
77	77	4
90	91	4
115	125	1
81	107	2
106	106	3
135	136	3
8	12	3
34	35	1
4	4	2
37	124	1
17	21	4
17	24	1
14	80	3
34	36	2
87	107	4
114	115	1
71	71	1
2	29	1
104	104	3
91	92	3
34	34	7
104	129	1
93	106	1
88	109	1
73	117	2
9	10	2
35	129	1
30	32	3
103	121	3
6	92	1
98	99	1
7	10	1
83	121	3
103	138	1
100	100	1
123	127	1
116	117	4
103	120	1
76	121	1
75	76	1
93	108	1
95	96	1
113	122	3
93	112	1
97	128	1
81	103	1
7	9	1
24	43	2
3	29	1
16	18	1
101	138	1
2	9	1
14	17	2
96	111	1
6	13	1
118	119	2
134	137	1
39	98	1
26	72	2
115	117	2
36	135	1
74	117	2
29	31	2
84	104	3
94	97	2
2	31	2
9	11	2
76	108	1
104	123	1
81	83	2
10	23	1
14	25	1
37	38	1
76	104	3
80	89	1
78	79	2
132	132	3
78	80	2
92	93	1
12	22	1
79	86	1
10	19	1
123	124	1
18	24	1
84	121	1
1	20	3
88	113	3
117	136	2
119	125	1
11	20	1
124	125	1
13	80	1
27	28	1
84	87	1
78	102	1
132	133	1
28	31	1
109	128	1
117	118	1
73	118	1
135	137	1
28	37	1
93	93	1
132	139	2
12	119	1
124	127	1
105	106	1
