102	102	1
98	98	2
134	143	3
101	113	5
2	4	1
117	117	4
5	7	6
143	146	2
12	15	6
161	162	6
175	175	5
124	124	3
127	127	2
136	153	2
30	30	4
138	138	2
159	159	1
5	9	1
130	130	5
157	157	5
65	65	1
178	178	2
12	12	3
9	9	10
52	52	10
3	3	4
41	117	3
94	95	2
71	71	3
13	13	8
83	83	4
56	56	3
51	51	14
133	133	4
25	25	1
166	168	2
29	30	1
77	78	3
10	10	6
2	2	7
130	131	1
174	174	4
44	44	12
172	172	4
7	8	2
34	35	1
168	168	6
80	80	7
4	19	1
93	93	2
75	75	5
61	123	2
5	5	2
139	139	5
24	24	3
146	146	5
24	25	3
149	150	1
135	143	2
77	77	8
109	109	6
86	87	2
67	67	7
85	85	4
100	113	1
103	104	1
81	115	1
10	13	7
125	135	3
124	131	3
22	23	4
132	132	4
9	10	2
3	4	2
120	121	1
4	8	1
96	96	2
149	149	3
94	94	6
19	19	2
121	124	1
126	126	7
36	36	8
180	180	7
41	41	4
11	12	1
23	23	2
26	26	5
137	143	1
31	32	1
145	146	6
92	94	2
106	107	3
150	150	11
167	167	2
68	68	2
121	121	2
129	129	1
136	136	2
153	167	1
156	156	2
134	134	1
2	3	4
91	91	6
103	110	3
8	8	2
113	113	2
8	9	1
145	145	5
142	142	1
25	26	2
32	32	2
53	53	1
10	14	1
60	61	2
63	63	6
54	55	3
15	23	2
13	24	1
84	84	2
164	164	5
61	61	8
64	64	3
140	140	5
6	6	2
147	147	4
14	14	2
104	110	1
37	37	5
118	118	2
95	152	1
63	67	4
97	97	1
39	53	3
40	40	1
76	77	3
137	138	1
27	28	2
27	30	1
83	86	3
62	62	5
56	76	3
11	11	3
52	53	1
0	18	1
135	136	1
37	38	1
36	40	1
154	155	2
111	111	2
40	77	1
58	58	3
124	125	1
89	89	3
49	49	1
152	152	2
15	16	3
20	23	2
33	33	8
136	137	2
60	60	3
179	179	1
90	109	1
115	116	2
18	19	2
11	13	1
61	63	3
80	114	2
100	101	1
169	170	2
125	125	1
165	167	1
103	113	2
73	73	1
30	31	1
11	16	1
87	87	1
30	32	1
14	37	2
157	162	1
92	93	1
169	169	2
104	104	2
142	143	4
32	34	1
39	40	2
148	148	4
79	79	1
59	59	5
16	16	1
92	92	2
141	141	2
58	59	2
31	31	1
127	130	1
117	122	1
151	151	1
34	34	3
15	15	3
63	65	1
144	144	2
20	38	1
110	111	2
43	62	1
43	46	2
100	100	3
78	79	1
151	156	3
43	43	4
162	162	1
170	171	1
35	35	2
150	151	1
38	38	1
9	12	1
96	97	3
107	111	1
74	74	6
65	118	1
175	176	1
36	37	3
114	114	4
80	81	1
103	103	3
108	108	1
160	160	1
66	118	3
133	134	1
158	159	2
41	42	2
139	156	1
170	170	2
55	56	1
55	55	1
116	116	1
131	131	1
163	163	1
57	57	2
146	147	3
50	50	3
22	24	2
165	165	2
73	75	2
4	9	1
166	166	3
75	117	1
80	116	2
17	18	1
44	55	1
23	24	1
43	44	1
22	22	1
76	79	1
88	88	1
146	152	1
39	39	2
4	4	1
10	17	1
14	16	1
45	46	1
25	30	2
144	146	1
162	164	1
32	33	5
125	127	1
146	151	1
21	27	1
42	43	1
1	1	2
148	149	1
65	66	1
70	70	1
143	162	1
171	171	1
119	164	1
102	103	2
87	90	1
106	106	1
21	21	2
122	122	1
108	109	1
96	102	1
107	109	1
105	105	1
21	22	1
5	11	1
4	7	2
43	84	2
158	158	1
120	120	1
140	141	1
134	135	1
163	165	1
18	18	1
