42	42	35
74	76	2
87	87	11
89	89	18
69	69	12
75	76	7
47	48	11
79	80	7
80	81	10
52	52	19
73	74	2
29	47	2
55	56	4
55	92	1
91	92	6
53	54	10
39	52	2
58	61	3
31	33	2
67	70	2
78	78	17
53	53	27
46	46	34
73	73	10
76	77	6
39	39	16
45	45	12
51	51	16
43	43	10
63	67	3
69	70	12
68	68	26
84	84	17
37	38	6
38	38	17
41	50	2
83	83	26
66	68	4
49	49	20
101	101	17
86	96	3
94	95	4
46	47	5
79	79	14
63	63	21
94	94	16
72	72	16
56	57	6
57	59	2
73	77	12
54	77	3
92	93	6
78	91	1
75	75	15
62	62	13
90	90	14
26	26	7
59	59	11
81	83	2
35	38	3
76	76	15
64	64	22
71	71	10
73	78	2
97	98	13
56	99	1
44	44	8
54	55	3
64	66	10
34	35	7
101	102	7
100	100	13
35	35	13
66	66	24
85	86	2
39	41	2
84	87	3
27	27	7
81	81	4
54	54	14
60	60	22
50	50	21
30	31	2
86	86	36
62	90	5
61	67	1
29	29	4
56	91	1
92	92	19
85	85	15
68	99	3
60	71	1
91	91	20
40	43	6
93	94	7
44	45	3
62	63	3
23	24	2
43	44	4
43	76	3
77	78	12
41	41	22
59	75	3
61	85	1
77	102	2
57	57	25
98	98	8
31	44	1
61	80	1
52	53	1
58	60	2
86	92	7
34	34	9
71	72	5
80	80	12
82	82	6
31	31	5
65	66	12
22	35	2
51	52	14
89	94	2
35	44	1
37	52	4
26	27	2
79	98	1
68	69	2
93	93	15
38	39	8
48	48	18
84	86	6
76	101	2
70	70	28
47	47	8
74	74	5
47	88	2
73	79	4
85	90	8
31	32	1
79	88	2
60	61	4
56	56	9
61	61	18
40	40	10
52	55	1
65	65	18
82	84	2
77	77	4
87	93	10
92	99	6
63	74	4
33	42	2
59	60	7
50	51	3
99	99	13
62	73	5
67	67	14
61	62	8
58	58	16
33	44	1
92	100	3
44	75	2
60	74	4
43	64	7
57	91	5
36	37	3
42	43	8
36	38	1
40	49	3
88	88	6
23	23	4
35	36	6
41	42	2
84	85	1
43	45	2
34	52	2
89	91	1
36	53	3
45	58	2
80	98	1
38	46	4
44	50	2
36	36	10
83	96	2
34	36	4
61	74	2
43	46	3
95	98	2
91	102	7
48	75	5
33	33	4
80	102	3
42	44	3
75	86	3
24	25	2
45	50	1
27	33	2
97	97	10
45	71	3
86	87	3
42	74	3
57	61	1
74	75	5
27	29	2
48	49	8
42	52	2
49	74	5
32	48	2
87	88	8
41	65	1
63	100	1
47	51	1
64	65	11
20	20	1
22	22	6
72	73	3
57	67	3
94	98	5
48	59	1
25	26	2
60	73	5
83	84	5
69	73	1
60	63	1
67	71	3
67	69	1
45	49	3
66	67	4
35	40	1
48	71	3
66	91	3
51	53	3
47	49	1
96	97	1
81	82	2
40	44	1
53	55	1
99	100	3
96	96	3
66	69	4
79	82	2
67	74	3
63	65	1
90	91	4
51	76	2
24	24	2
70	72	2
29	32	1
33	49	1
55	55	3
79	99	2
46	48	3
72	77	4
63	64	1
71	77	1
56	60	2
25	25	6
58	59	4
83	95	1
28	28	1
61	73	1
87	94	1
35	43	1
88	91	1
57	58	2
51	54	1
95	95	3
32	32	2
55	59	1
29	31	1
54	58	1
43	49	2
56	76	2
86	93	1
66	74	1
79	85	1
57	99	1
62	82	2
37	37	1
63	101	1
71	73	2
41	45	1
82	99	1
88	89	1
99	101	1
61	89	1
69	99	1
50	75	2
56	89	1
60	89	1
45	46	1
38	45	2
72	74	3
78	99	1
61	66	1
21	22	1
95	97	2
80	93	1
94	97	1
83	94	1
44	49	1
49	51	1
47	50	1
88	94	1
