12	12	16
57	67	3
167	169	1
34	35	5
143	143	10
163	163	3
118	118	2
168	168	1
133	134	9
76	77	8
84	85	7
28	28	3
111	112	5
86	86	7
144	146	2
83	83	4
114	114	3
103	104	2
88	89	3
34	42	2
8	9	7
105	126	4
141	145	3
43	43	13
170	170	9
150	151	3
2	18	2
67	69	7
100	164	1
17	17	13
159	160	5
105	105	3
7	7	8
151	151	6
49	53	2
115	115	8
79	80	3
47	47	1
77	78	9
72	72	2
62	62	7
51	51	6
20	20	7
157	158	4
7	8	5
141	143	4
155	156	2
109	110	2
19	24	3
113	144	3
1	3	8
23	23	10
71	71	3
28	52	1
151	152	1
57	122	6
165	167	5
2	3	6
34	34	8
25	25	7
56	57	4
16	166	4
147	163	2
19	20	5
70	71	2
35	35	5
150	160	1
37	38	6
54	54	2
24	24	6
12	15	1
142	156	1
86	93	2
13	14	12
88	88	5
100	101	2
108	108	3
46	113	4
8	8	4
162	163	5
98	99	3
28	39	5
13	41	2
163	164	1
45	45	9
150	150	7
50	51	2
133	135	3
155	155	3
146	146	1
15	17	3
40	40	12
79	86	2
138	138	8
37	37	17
16	17	3
157	157	2
36	36	15
10	12	4
39	39	8
26	26	4
18	18	4
44	44	3
5	5	3
156	156	1
92	94	5
74	74	10
14	15	1
89	90	6
0	38	2
41	41	13
42	42	4
65	66	1
27	27	4
158	158	4
65	112	1
130	130	2
25	136	2
121	121	3
86	88	2
11	41	4
23	24	4
67	68	1
121	143	3
49	49	4
80	90	3
97	99	5
140	141	2
93	93	1
43	44	4
72	75	2
107	107	3
55	55	1
138	143	1
95	126	2
14	14	2
20	21	2
93	94	3
164	164	1
111	113	2
99	99	8
79	79	4
120	120	5
11	11	4
152	152	4
167	168	1
111	111	4
13	17	2
149	150	2
117	118	2
127	127	2
107	108	2
102	112	3
146	161	2
10	10	4
47	50	2
1	2	1
87	88	4
114	125	1
162	162	4
3	3	8
36	37	4
12	16	4
138	166	2
143	162	6
45	46	4
2	4	3
78	87	4
81	88	1
2	2	3
69	74	1
28	40	3
72	76	1
56	56	4
122	122	2
4	6	6
110	137	2
152	156	1
106	106	1
77	77	1
137	137	6
145	146	1
86	87	1
6	7	3
63	63	2
15	128	1
112	113	2
53	56	1
10	15	1
116	116	7
139	139	4
145	145	2
90	91	2
97	98	2
112	112	5
101	101	2
74	95	2
44	45	5
75	87	2
167	167	3
159	159	3
113	113	4
134	135	8
81	81	3
53	69	2
168	169	2
156	162	1
135	136	4
58	58	3
13	13	2
21	21	6
110	110	6
92	100	1
58	63	1
50	50	4
52	52	2
25	135	2
117	125	1
45	48	1
15	15	7
22	22	7
119	120	2
4	7	5
21	22	2
23	159	1
62	63	2
124	124	5
126	127	1
4	4	5
68	69	1
76	86	2
62	64	5
164	165	2
109	111	1
73	73	1
96	96	4
11	12	2
68	68	5
79	103	1
57	62	1
76	76	2
115	119	2
95	96	1
137	139	1
97	97	2
19	19	3
91	100	3
123	123	2
154	154	2
112	130	1
66	66	1
19	21	2
105	128	2
53	58	1
69	71	2
82	107	1
54	55	2
110	111	4
156	157	1
33	33	2
143	158	1
5	6	1
83	106	1
95	97	2
82	90	2
89	89	1
64	129	3
27	50	3
153	154	1
92	92	2
133	133	2
16	19	2
97	102	2
74	75	2
143	146	1
46	47	1
136	136	2
145	156	1
46	49	1
144	151	1
88	117	2
119	119	1
120	121	5
65	65	1
76	78	1
87	87	1
126	126	4
149	149	2
82	82	2
144	156	1
0	0	1
146	147	1
144	157	2
57	63	1
65	121	1
47	48	1
115	120	1
128	129	1
53	53	1
15	16	1
40	70	1
20	22	1
54	56	2
129	129	1
14	159	1
39	50	1
15	46	1
101	112	2
1	1	1
162	168	1
143	144	1
134	134	1
140	140	1
70	75	1
104	131	1
24	25	1
16	16	1
80	80	1
128	128	1
51	52	1
128	134	1
69	114	1
69	75	1
70	74	1
83	84	1
