114	114	1
119	120	3
119	119	10
66	94	1
34	34	2
36	36	9
105	105	5
130	130	3
146	146	6
112	113	1
136	138	3
32	34	3
129	129	3
10	11	4
123	123	2
103	103	4
100	100	4
72	72	7
27	27	3
82	82	7
16	16	4
6	6	4
15	15	3
78	79	1
136	136	11
134	134	3
132	135	1
117	144	4
51	51	3
133	133	8
13	13	5
128	129	3
74	74	2
1	36	5
88	88	7
22	22	1
81	81	4
71	71	5
136	139	4
60	60	6
52	52	4
9	20	1
80	80	6
126	134	1
50	52	2
124	124	11
123	125	2
117	117	3
54	54	8
43	47	3
128	130	2
83	83	3
131	132	2
3	3	4
22	125	1
40	72	2
26	26	2
53	81	1
25	67	4
32	116	1
5	6	6
93	93	2
83	104	2
69	70	1
119	125	2
32	32	2
60	62	4
50	50	5
57	57	4
38	38	6
29	37	1
87	130	3
126	131	1
100	115	6
63	63	4
24	24	7
53	77	1
50	51	4
95	98	1
10	14	6
69	75	2
19	143	1
28	28	1
99	102	2
143	143	3
92	97	4
119	142	2
1	35	3
76	76	2
52	106	2
14	14	1
29	29	2
116	117	1
141	142	3
101	101	6
133	140	1
27	28	4
98	98	2
65	65	1
37	37	2
54	57	3
24	25	1
111	111	3
4	9	3
115	138	2
19	23	3
102	125	2
49	50	3
105	133	2
125	125	4
91	97	1
48	49	4
110	113	3
48	48	2
22	90	1
39	39	1
80	81	2
136	137	1
87	92	1
62	62	3
134	135	1
85	86	1
103	107	1
99	99	2
40	41	1
36	37	1
88	112	1
1	15	1
116	118	3
70	71	4
31	31	5
5	5	2
31	36	1
75	96	1
90	94	1
116	116	3
31	110	1
138	138	1
2	9	2
83	106	1
94	132	4
3	14	2
128	128	7
107	108	2
12	12	1
117	136	1
106	106	7
113	113	3
18	18	1
56	58	2
94	94	2
73	81	4
104	104	1
139	139	5
55	55	1
14	15	1
98	99	1
109	109	2
131	131	1
107	107	3
85	85	1
25	25	2
118	118	6
33	59	2
42	42	1
89	108	1
95	95	1
122	122	4
65	96	1
133	134	2
17	42	1
18	19	1
102	102	2
19	21	1
66	66	6
125	131	1
124	125	1
8	8	1
135	136	3
17	37	1
117	119	1
52	62	1
32	77	1
4	4	1
57	84	2
67	68	2
33	78	1
77	78	2
5	10	1
96	98	1
140	141	1
121	122	1
64	64	2
48	55	1
108	108	1
101	103	2
111	127	1
120	120	2
8	9	1
20	129	1
116	130	3
121	132	1
132	132	1
9	10	2
126	141	1
109	126	2
76	78	1
0	5	1
132	138	1
87	88	1
4	30	2
19	20	2
115	128	1
26	41	2
23	104	2
88	132	2
95	99	2
13	14	3
33	33	1
66	68	1
105	106	1
89	89	1
142	143	1
97	98	2
91	92	1
56	56	3
140	140	1
133	135	1
120	134	1
86	86	2
17	17	1
19	125	1
132	133	1
100	101	1
57	59	2
116	122	1
90	90	1
108	127	1
55	63	1
78	78	1
9	9	1
109	127	1
121	121	1
127	127	1
115	115	1
73	73	3
122	123	1
118	127	2
15	143	1
119	134	2
43	55	1
1	1	1
126	126	1
23	23	1
144	144	1
111	116	2
30	30	1
41	41	1
137	137	1
76	110	1
134	141	1
53	105	1
54	133	1
