42	42	32
10	10	9
59	59	33
43	43	21
38	38	26
36	36	36
42	43	15
21	22	12
29	30	9
36	37	12
12	15	1
39	41	3
40	52	3
35	35	19
55	55	15
45	45	23
18	18	16
33	34	4
46	46	13
54	59	4
15	15	9
25	60	1
50	50	24
4	4	10
25	25	8
20	20	6
31	31	29
44	44	44
37	39	10
36	42	1
8	9	12
61	61	26
18	19	5
51	51	23
33	35	4
46	50	1
44	47	1
14	15	9
37	37	16
24	24	25
57	57	16
49	52	5
52	52	21
23	23	11
54	54	12
45	46	9
30	31	2
11	11	9
11	12	6
32	32	20
47	48	2
53	54	10
24	46	4
55	61	6
49	49	16
6	6	12
44	45	10
39	40	2
13	23	2
17	59	1
34	34	24
17	17	15
13	19	3
31	32	5
60	60	8
62	62	22
22	22	6
58	58	9
45	47	3
7	7	17
20	22	3
47	47	31
40	41	5
15	16	5
37	46	5
0	5	2
30	30	17
53	53	13
38	40	4
56	56	10
14	16	5
51	56	2
19	21	2
41	41	16
48	48	39
46	49	2
12	12	10
32	33	6
13	13	6
57	58	18
3	5	1
36	46	6
37	56	1
40	57	4
13	15	3
45	59	2
6	7	5
32	36	4
20	21	2
37	38	7
39	39	18
49	61	3
7	16	1
31	36	3
18	59	4
30	32	1
3	3	12
36	45	3
40	40	7
9	13	3
0	45	3
52	54	3
55	57	2
35	61	4
56	60	4
19	19	11
29	29	4
19	20	3
54	55	13
48	49	3
11	49	4
16	16	2
37	60	1
38	39	6
25	58	6
30	33	3
9	9	7
38	41	5
50	51	6
56	57	3
12	13	4
25	59	2
14	14	6
1	1	4
43	44	2
39	55	1
35	36	5
5	6	4
30	50	10
6	8	2
7	8	2
54	60	1
31	40	2
22	55	2
4	5	6
5	5	9
61	62	5
30	40	2
13	14	1
33	33	11
36	47	3
36	49	4
30	48	1
21	21	5
24	25	3
39	50	4
3	42	1
34	35	1
0	35	3
48	61	4
58	59	2
0	0	7
57	60	1
32	57	4
2	2	7
32	34	2
48	56	4
3	4	4
2	45	1
53	58	2
44	57	3
1	2	3
39	42	3
30	60	2
34	47	2
42	60	2
17	20	1
30	38	2
41	42	2
40	42	2
29	40	5
32	37	1
9	10	2
5	41	1
32	59	1
24	53	2
8	51	2
55	59	2
22	23	1
36	44	1
23	41	3
23	25	2
25	39	1
43	45	2
32	51	1
24	41	2
0	1	3
42	45	5
30	35	2
34	44	1
22	54	1
8	8	1
30	49	1
41	57	1
51	52	2
17	18	1
38	51	1
39	59	1
51	58	1
6	9	3
47	53	1
49	56	1
18	20	2
58	60	2
56	59	1
