136	136	6
16	109	3
151	151	7
87	95	2
107	108	3
6	6	4
138	138	7
73	73	8
153	153	13
3	4	2
104	104	5
29	29	5
35	35	1
106	106	2
26	99	4
53	54	6
118	118	2
127	127	5
112	122	2
114	114	2
32	32	6
114	115	5
132	133	2
0	0	6
99	99	7
95	95	7
40	41	6
51	51	1
64	69	5
117	117	4
0	1	2
130	130	9
15	15	1
150	150	5
135	143	1
129	130	1
112	113	8
44	44	2
50	50	9
105	106	3
14	14	6
27	75	3
139	140	1
50	51	4
106	112	5
67	69	1
45	45	5
78	79	2
1	1	3
108	108	2
123	123	2
103	104	3
51	53	1
23	24	7
95	97	2
69	70	1
87	87	1
54	55	2
8	8	1
41	41	8
23	23	6
55	55	4
18	18	2
47	47	1
43	43	4
98	99	6
7	7	1
1	2	3
121	125	1
0	2	2
47	48	4
66	66	3
109	110	1
48	51	1
89	89	1
118	120	1
92	93	2
107	141	3
46	46	2
29	50	1
66	67	1
39	39	2
101	101	2
25	25	6
3	3	1
153	155	2
83	83	4
80	81	2
41	42	4
4	4	5
135	136	1
128	128	4
25	33	1
149	149	4
11	12	3
57	57	1
81	81	3
108	118	1
100	100	9
2	2	1
151	156	3
66	77	3
36	44	2
38	38	7
79	129	4
155	156	1
43	44	1
102	102	3
33	34	2
84	89	2
127	128	1
135	135	3
116	116	2
21	56	1
120	121	1
36	39	2
75	75	4
129	129	1
76	76	2
25	99	1
16	16	1
37	37	2
142	143	1
104	105	3
146	146	2
56	56	2
42	56	2
94	94	2
109	116	2
22	22	3
92	92	3
70	71	2
70	70	2
104	116	4
86	86	2
126	126	1
42	43	3
63	65	2
5	5	5
32	33	8
16	17	3
52	53	3
16	54	1
67	67	4
77	77	1
111	112	1
36	36	3
141	142	2
9	9	2
119	122	3
122	125	2
85	140	2
110	111	1
141	141	3
52	79	1
51	54	1
11	11	4
28	28	2
48	48	1
38	39	1
31	32	1
94	97	1
132	132	2
156	156	2
24	24	1
12	13	1
39	41	1
94	116	2
89	90	1
111	118	3
112	112	1
119	120	1
37	38	3
122	122	1
124	125	1
131	132	1
96	96	1
24	28	1
8	23	1
26	31	1
146	148	1
34	101	1
115	116	1
95	96	2
84	88	1
85	86	1
25	26	2
35	63	2
107	114	1
120	133	1
9	33	1
158	158	1
21	22	1
19	20	1
119	147	1
94	129	1
144	147	1
31	31	1
