74	74	19
96	96	8
104	105	5
68	100	3
88	89	8
24	24	6
50	50	23
103	103	19
66	67	5
39	39	6
93	93	8
89	89	14
44	44	9
92	92	12
70	70	8
36	58	2
54	55	7
41	41	2
55	55	12
80	81	11
104	104	11
95	95	19
73	73	16
28	33	1
48	48	3
44	45	6
29	30	6
39	42	2
94	106	4
65	66	3
65	105	4
66	70	3
28	28	8
40	44	2
57	57	11
58	76	3
82	82	8
45	46	3
40	41	8
38	38	6
81	81	7
61	81	1
68	68	18
34	34	7
62	62	17
48	49	7
61	71	6
80	80	11
76	77	5
67	67	13
68	69	8
30	49	3
71	79	4
90	90	9
96	99	3
95	96	4
25	32	1
22	22	12
79	80	9
79	81	1
25	25	9
51	51	8
95	99	1
62	64	3
26	49	2
37	39	5
36	36	9
32	32	3
60	89	1
101	104	12
60	61	5
45	49	2
35	55	1
88	88	13
75	75	9
37	52	2
26	28	4
101	101	12
71	72	9
49	49	12
69	77	2
98	100	5
94	94	20
82	83	1
43	43	12
41	42	3
38	48	1
86	86	5
31	31	10
60	67	1
30	39	3
77	77	5
83	84	4
26	34	3
54	56	1
73	102	1
25	34	1
99	99	8
102	104	1
37	37	7
35	35	5
55	56	5
82	84	3
83	88	1
34	50	1
30	33	11
73	74	1
42	42	4
36	37	5
37	49	1
28	29	3
97	97	6
38	39	3
30	40	1
32	33	4
89	90	9
69	70	5
76	76	2
65	68	3
36	38	3
84	85	5
54	54	10
105	105	9
99	100	3
98	98	7
59	66	4
91	91	11
25	69	1
52	54	1
89	94	3
77	78	3
53	53	3
22	46	1
102	102	8
66	66	6
103	104	5
77	86	1
33	52	3
80	82	1
72	72	9
46	50	1
77	84	3
78	78	8
72	104	1
82	99	2
94	96	2
63	63	5
53	54	6
87	87	8
33	33	2
52	52	5
100	100	9
101	102	2
36	84	1
65	65	14
26	26	6
34	35	3
72	73	2
96	97	6
23	23	9
79	79	3
58	60	5
78	79	2
30	31	5
29	29	5
39	40	2
93	94	6
59	60	3
63	67	3
81	82	1
58	58	5
31	32	2
47	47	2
71	71	5
24	31	1
75	76	5
21	21	13
21	23	1
63	64	9
83	85	3
31	33	2
30	30	6
72	78	2
78	99	2
42	43	2
45	45	12
59	61	1
26	27	1
61	61	1
25	26	2
21	65	2
85	86	2
78	90	4
76	102	2
78	89	1
95	97	3
59	59	9
70	74	2
54	57	2
40	40	5
23	24	1
73	103	4
24	34	1
46	46	2
30	48	2
74	101	1
85	85	3
43	45	1
66	68	2
78	82	1
98	99	3
35	39	1
63	71	1
84	86	1
102	103	2
52	53	1
56	56	5
101	105	1
94	95	1
69	94	3
20	25	1
58	69	2
107	107	1
27	27	2
51	52	1
96	98	1
58	77	1
106	106	2
48	81	2
91	103	2
20	21	3
97	99	1
60	81	1
38	54	3
60	60	2
47	49	1
72	101	1
78	98	1
31	63	1
51	53	1
83	83	1
29	32	2
97	98	2
100	101	2
74	75	2
45	48	1
70	71	1
36	56	1
85	88	1
64	65	1
69	69	1
53	57	2
37	56	1
90	93	1
54	74	1
73	101	1
59	63	1
