106	107	10
150	151	2
86	102	3
0	0	4
158	159	4
50	50	14
57	57	1
16	25	6
97	122	3
130	130	12
33	125	7
40	42	2
29	29	8
8	10	6
106	116	1
35	35	13
19	19	19
95	95	18
73	73	11
131	139	1
150	150	22
45	45	18
132	134	2
131	132	3
44	44	20
14	15	3
120	120	17
27	27	23
1	1	17
101	101	17
23	23	42
75	75	22
137	137	13
65	65	4
140	141	7
13	16	2
129	129	14
24	24	28
38	38	17
25	25	21
117	117	21
100	100	22
17	17	8
48	48	15
9	10	3
84	84	9
67	68	8
47	47	21
48	49	10
27	28	9
36	37	1
144	144	11
25	27	4
126	127	12
55	111	1
99	99	22
147	147	8
157	158	1
130	131	11
81	87	1
123	123	18
41	42	3
132	132	10
142	142	14
64	121	3
125	125	7
43	44	4
51	51	15
92	92	12
141	141	5
66	68	2
51	53	2
128	128	31
28	28	19
156	157	17
6	6	9
36	36	35
31	125	2
147	148	10
155	155	6
66	66	12
96	151	3
111	111	14
118	120	6
151	152	8
157	157	13
37	37	8
149	150	1
46	51	6
116	116	22
81	82	5
151	151	29
91	91	16
70	70	7
67	67	6
97	97	34
11	12	7
32	32	23
7	9	6
56	63	2
34	116	4
92	94	2
5	5	10
18	18	8
105	105	13
12	14	3
32	33	2
109	142	3
158	158	19
112	115	4
86	87	9
54	54	16
136	147	5
31	32	8
28	29	2
20	20	13
86	90	7
33	34	16
82	82	13
107	135	4
133	133	8
139	140	9
80	84	5
126	130	2
118	118	7
144	145	9
75	83	3
54	55	6
154	154	9
98	98	16
131	133	5
138	138	19
19	20	3
46	46	13
114	115	3
87	88	5
129	130	12
121	121	6
85	85	3
10	10	8
49	49	10
135	137	6
136	137	7
22	23	9
91	102	5
11	11	6
42	42	14
79	79	13
135	135	14
122	146	4
80	81	5
119	129	2
46	108	3
93	93	23
8	18	4
2	2	13
68	68	7
8	8	14
117	120	1
50	51	17
18	48	4
109	113	1
148	150	3
102	131	5
128	129	6
110	110	10
96	127	1
14	16	4
63	63	7
148	149	5
124	124	6
3	3	6
156	156	16
31	31	13
64	64	4
47	48	1
136	136	8
103	103	15
96	96	13
73	74	4
3	103	1
35	37	1
131	131	14
67	69	1
9	30	3
140	146	6
134	134	14
40	40	17
38	41	2
68	70	5
91	100	5
131	134	2
108	117	5
17	19	3
10	11	5
126	126	8
95	96	14
88	88	11
4	4	18
72	72	9
38	51	5
112	112	7
9	9	6
89	90	12
20	22	6
43	55	4
127	127	18
81	81	7
153	154	9
135	136	6
78	88	4
94	94	13
4	5	3
123	137	1
119	119	11
115	116	4
155	156	6
1	2	11
78	79	10
22	22	26
108	108	9
117	118	5
98	100	1
5	108	5
90	90	23
77	133	2
91	93	2
107	107	8
97	138	4
93	94	5
39	46	1
19	21	2
41	41	7
14	14	12
148	148	11
29	32	4
97	98	5
91	128	2
54	111	1
112	114	5
30	31	6
17	18	4
117	135	3
75	80	1
40	41	5
116	120	2
83	89	5
153	153	11
65	66	3
123	124	2
102	108	2
139	139	11
79	92	1
23	24	5
108	137	1
42	43	3
7	7	10
102	103	5
98	101	3
110	111	4
21	21	24
115	115	10
80	80	8
106	106	14
21	31	2
55	56	4
145	145	12
34	34	5
45	46	6
43	43	16
7	116	4
111	112	8
120	121	7
135	138	1
44	45	7
3	5	3
135	147	2
5	149	3
76	77	2
15	16	2
33	33	11
146	147	6
69	69	3
102	109	3
149	149	6
152	153	1
95	152	2
40	49	6
122	122	10
13	14	4
36	50	5
121	126	3
62	121	2
126	129	1
26	26	11
83	84	8
2	3	4
15	15	8
98	150	1
98	99	4
7	8	5
48	50	3
103	105	3
18	19	3
23	25	2
77	94	2
133	134	5
35	36	6
79	90	4
138	139	8
106	135	5
103	133	3
22	24	2
28	30	3
105	138	2
132	133	6
13	13	6
39	47	1
84	85	6
56	121	2
143	143	7
16	16	7
116	146	2
29	30	1
137	138	5
105	106	1
97	110	1
46	47	6
109	112	5
113	113	4
144	147	5
21	25	1
108	110	7
3	4	9
152	152	8
12	13	2
5	6	2
145	146	2
30	127	9
115	153	1
32	38	1
98	116	3
44	66	3
124	126	2
53	53	8
40	76	4
82	84	3
124	125	2
92	97	4
123	127	1
86	121	2
143	148	3
19	26	1
64	65	3
122	125	2
34	63	2
27	93	2
123	135	3
121	122	4
143	153	1
116	117	12
29	38	2
38	39	3
116	145	1
21	22	4
118	139	2
8	9	7
6	27	2
14	19	1
61	61	5
71	71	3
102	102	3
128	133	1
65	110	3
31	33	4
90	91	3
33	55	3
100	158	1
56	56	5
140	140	8
86	86	9
91	92	5
127	129	4
10	12	1
98	102	2
39	43	3
22	26	3
47	55	1
70	71	4
156	158	3
101	102	2
40	43	4
55	55	6
85	87	2
92	95	1
108	109	3
78	78	8
33	56	2
151	156	2
114	114	7
119	120	2
87	87	5
42	57	3
85	86	5
55	57	3
92	120	3
12	12	5
85	90	1
118	119	3
104	104	6
77	79	2
26	27	6
52	53	2
39	39	5
46	71	1
12	16	2
77	77	5
47	54	1
2	5	3
51	52	1
94	95	2
20	25	3
49	52	2
146	148	1
34	44	3
82	93	3
62	62	3
111	150	2
110	112	3
49	54	3
152	154	1
97	101	2
85	152	1
123	126	4
113	122	1
116	138	3
97	154	1
46	52	1
83	83	5
57	61	4
112	113	3
100	101	2
129	133	1
30	136	2
120	123	1
97	150	2
80	82	3
52	70	2
92	93	1
95	97	1
77	78	1
109	111	1
91	96	1
12	32	1
30	134	1
105	136	3
16	22	1
116	118	1
113	147	1
97	151	2
33	108	2
20	21	1
90	127	1
80	90	1
94	116	2
32	34	2
25	28	2
103	144	1
159	159	3
44	47	2
113	117	2
98	158	1
22	28	1
86	88	1
31	38	2
11	14	1
98	151	4
34	55	1
52	52	1
45	47	1
93	99	1
8	29	1
125	126	1
8	12	2
30	30	2
25	30	2
127	128	1
53	54	2
2	4	2
29	135	2
62	146	1
84	92	1
146	146	1
127	151	1
65	101	1
96	97	2
128	130	1
27	34	1
56	122	1
50	54	1
12	33	2
108	111	2
29	34	1
69	70	2
88	89	1
69	81	1
116	128	1
89	89	1
8	17	1
24	26	1
22	27	1
33	43	1
110	143	1
104	133	1
42	71	1
79	80	1
30	51	1
93	115	1
94	121	1
0	1	1
33	116	1
122	136	2
34	35	1
102	129	1
114	154	1
83	90	1
45	103	1
