143	143	3
11	11	8
101	101	11
195	195	6
9	197	6
21	21	7
216	216	11
60	102	3
201	201	12
121	121	5
42	42	10
234	234	8
99	99	5
74	74	6
36	37	3
194	194	2
207	222	3
78	78	6
231	231	7
38	72	1
142	143	1
118	132	4
5	5	5
3	34	2
63	63	8
24	24	9
66	98	4
100	101	4
65	65	11
113	120	1
29	36	4
109	110	1
3	3	5
23	23	4
105	105	7
104	104	7
107	108	3
184	184	5
28	28	11
59	59	11
134	135	1
42	43	4
133	141	2
75	79	4
129	130	1
177	207	1
33	33	3
165	200	4
46	240	2
120	120	6
172	172	7
111	230	4
112	112	2
121	122	4
200	224	2
54	54	7
1	12	2
72	72	12
113	130	1
8	8	7
122	122	2
165	166	5
172	173	1
183	183	15
154	154	13
79	79	5
100	100	6
213	214	2
77	77	2
185	185	3
46	46	11
149	149	3
104	135	2
69	69	3
51	70	3
26	26	6
86	86	7
57	57	1
50	50	4
171	171	1
103	107	5
39	58	2
38	38	8
169	169	6
239	239	14
139	158	1
111	158	2
155	156	3
34	35	1
52	52	6
186	186	3
34	34	10
60	60	5
163	163	12
146	146	7
227	227	6
170	180	2
208	220	2
68	68	12
165	170	1
86	242	4
115	118	3
11	29	1
18	18	3
61	61	10
10	10	3
156	157	2
184	185	7
70	70	6
156	156	3
127	153	1
31	53	5
76	76	2
155	155	2
59	104	1
4	12	6
42	74	1
4	33	3
193	194	3
47	74	4
101	102	2
113	122	4
192	192	15
71	71	10
138	139	1
22	22	9
206	222	2
211	211	2
142	142	7
38	71	2
32	32	1
65	85	2
143	148	1
174	175	3
175	175	3
17	58	10
142	154	4
61	62	3
64	64	3
11	85	3
1	21	3
199	199	5
155	168	2
9	9	8
89	103	1
123	145	1
82	82	7
35	35	7
24	31	2
105	108	3
4	7	1
33	49	7
162	163	2
178	178	2
137	137	4
240	240	2
236	236	7
36	39	3
47	47	3
153	153	1
209	209	5
219	219	7
51	52	4
202	203	1
196	196	5
30	30	3
171	220	2
223	223	8
82	188	2
175	220	1
46	238	1
133	133	4
125	152	1
51	51	5
125	125	2
165	165	3
76	77	4
186	191	1
80	80	5
12	12	3
212	212	3
140	140	3
225	227	2
162	170	2
168	176	1
65	88	1
42	55	3
84	84	8
159	162	1
171	222	2
20	37	2
242	242	6
129	129	6
105	106	6
0	0	2
60	85	2
56	57	4
166	167	2
62	101	2
123	129	2
25	27	2
201	227	2
204	204	6
48	218	2
43	43	4
118	118	6
221	223	1
98	98	6
134	134	3
118	137	3
6	14	1
201	204	1
55	61	1
74	75	2
3	33	4
139	141	2
110	160	3
232	232	1
29	86	1
82	235	2
82	151	2
166	166	2
81	82	2
88	88	6
217	217	4
71	73	3
120	135	1
29	152	1
13	78	5
215	216	2
20	20	9
136	136	7
2	241	2
11	86	1
41	49	1
144	144	2
135	135	4
182	182	6
190	190	6
120	121	3
32	33	1
229	230	1
191	191	1
122	125	4
124	124	1
167	167	6
141	141	3
170	170	1
78	100	1
204	206	4
138	138	4
58	58	4
111	112	1
16	176	1
27	27	2
17	60	3
6	13	2
131	134	1
133	164	3
194	195	1
239	240	2
33	34	2
228	228	1
198	198	4
171	172	2
116	117	1
96	97	2
16	19	1
14	14	3
50	54	4
77	99	2
164	165	2
119	119	5
37	71	1
171	180	2
114	118	1
173	173	2
25	51	4
19	213	2
55	234	3
53	53	2
175	219	1
179	184	3
3	52	2
188	212	3
220	221	2
234	236	2
78	79	4
80	98	3
175	178	2
1	13	1
148	148	3
40	40	3
8	15	4
44	44	8
152	229	3
20	38	2
1	57	2
40	53	2
1	216	1
226	227	1
131	131	1
165	195	1
220	220	2
54	56	3
127	154	2
24	89	1
232	233	4
7	7	2
187	218	1
160	160	2
128	128	4
50	51	2
58	60	2
74	84	1
49	50	1
2	2	3
6	6	3
44	218	1
66	66	3
20	58	1
18	58	1
110	110	1
4	19	1
117	117	3
125	130	2
214	215	1
150	151	3
5	7	1
106	106	4
71	82	2
118	130	2
113	113	4
29	31	5
39	74	2
110	230	1
230	230	1
115	122	5
182	183	1
48	85	2
203	220	3
200	227	2
181	183	1
209	213	1
29	234	2
58	59	3
47	75	1
79	106	2
226	232	1
142	181	3
143	179	4
85	85	4
177	178	1
115	124	2
19	175	1
160	162	2
46	237	4
235	235	9
171	176	1
8	80	3
55	69	1
82	84	2
225	226	2
35	40	1
7	12	2
36	36	2
56	56	3
205	212	1
29	29	4
131	142	3
197	197	3
171	221	1
6	12	2
170	179	2
83	213	2
103	106	3
195	196	1
19	20	4
127	127	3
67	67	2
152	152	1
63	64	2
187	187	1
16	16	1
153	177	1
108	108	2
30	54	3
103	105	1
0	18	1
151	151	4
62	65	2
19	19	5
9	191	1
183	192	2
3	4	2
67	85	1
37	37	1
43	44	1
186	195	3
39	39	1
122	123	2
62	67	3
126	152	2
32	44	1
209	210	1
228	229	4
64	65	1
206	206	3
77	95	2
70	238	3
203	204	1
2	34	1
48	77	1
1	1	1
179	180	2
185	186	1
102	102	3
120	128	1
16	18	6
139	143	1
73	73	3
169	184	2
237	237	2
114	114	2
161	161	3
0	214	1
200	201	1
1	20	2
83	83	3
53	70	1
233	233	1
48	48	3
139	142	1
182	234	1
109	177	1
3	49	1
33	148	2
54	55	1
79	95	2
72	73	1
159	165	1
102	103	1
5	6	3
25	26	2
218	218	1
34	39	1
64	89	1
176	178	1
202	202	3
167	204	2
4	5	3
200	200	1
164	164	1
12	82	1
222	222	1
19	41	2
62	62	3
144	147	1
30	78	3
116	116	4
79	103	1
204	208	2
53	62	1
42	73	1
95	95	1
115	123	1
220	222	1
3	36	2
206	209	1
199	207	1
107	115	1
31	31	2
22	23	1
55	215	2
61	86	1
36	144	2
25	25	2
174	178	2
55	55	3
15	78	1
35	80	1
221	222	2
1	2	4
150	150	1
31	60	1
96	121	2
226	226	2
89	89	1
179	181	2
179	179	1
8	13	1
242	243	1
170	208	1
2	12	3
144	146	3
126	126	1
85	141	2
42	45	1
139	139	1
71	84	1
213	213	2
48	217	1
222	224	1
6	17	1
116	118	2
63	65	1
52	53	1
48	74	1
213	216	2
231	232	1
50	62	1
12	83	1
201	202	1
189	238	1
215	215	1
21	22	1
122	163	2
75	98	1
168	168	1
50	69	1
59	60	1
8	12	1
171	199	1
196	197	1
27	45	2
95	124	1
41	41	2
15	16	1
151	235	2
230	231	1
148	158	2
57	84	1
159	202	1
46	47	2
203	205	1
121	128	2
53	89	1
181	182	1
80	235	1
147	147	1
53	54	1
33	88	1
82	239	1
7	8	1
138	140	1
133	151	1
175	177	1
210	212	1
37	73	1
158	158	1
130	130	1
119	120	1
29	30	1
