39	39	6
116	118	5
94	94	9
33	33	7
178	178	7
153	153	4
2	2	4
120	120	9
167	168	5
26	26	3
30	30	11
121	124	3
132	133	4
177	177	7
139	139	4
11	11	4
32	33	3
138	138	5
116	116	5
43	44	6
173	176	3
80	89	2
8	8	3
171	171	8
151	151	12
42	42	6
82	83	8
94	97	3
134	137	2
142	151	1
49	49	5
174	174	4
10	10	13
28	28	5
115	196	3
37	37	7
152	155	2
190	190	14
145	145	8
1	3	3
193	193	7
124	141	2
2	184	2
14	14	4
149	149	5
10	12	1
41	42	1
117	118	1
129	130	5
57	62	2
146	146	4
139	151	3
186	187	3
143	143	4
117	161	6
168	168	5
156	156	2
130	131	6
16	38	3
159	159	1
117	117	5
125	125	2
122	150	1
118	130	3
39	41	3
47	48	3
167	167	14
114	114	3
185	186	3
15	132	5
40	41	3
111	116	4
134	135	2
184	184	5
169	169	6
189	193	7
52	52	3
194	194	3
83	83	3
54	55	2
59	59	9
140	141	2
138	143	4
151	161	5
0	1	3
25	25	9
45	45	1
45	67	1
48	48	9
15	38	1
16	16	9
144	147	4
23	23	7
13	13	6
97	157	2
53	54	1
14	16	2
71	71	8
98	99	4
107	107	2
197	197	5
181	192	2
29	34	3
181	182	2
135	135	4
77	78	4
89	185	3
54	54	4
170	171	1
129	129	1
7	8	4
136	158	2
38	38	8
132	132	4
108	110	1
36	36	9
29	30	1
147	179	3
12	12	1
141	156	3
192	192	1
112	115	4
157	158	5
52	53	2
113	113	6
159	172	3
169	194	1
180	182	3
182	182	3
175	175	11
131	131	10
47	47	5
104	104	5
152	152	2
173	173	8
97	97	8
144	197	2
17	18	2
18	19	1
174	176	7
63	75	1
20	20	12
163	164	1
189	189	7
106	106	2
23	32	1
180	180	11
25	26	10
130	130	4
24	24	6
57	57	8
158	158	9
120	152	1
3	3	3
9	32	4
145	161	4
26	35	2
150	150	9
15	15	7
21	33	2
182	197	5
108	108	5
40	40	3
186	188	6
131	145	3
46	63	3
133	134	3
113	129	2
9	9	3
70	71	1
124	124	11
42	44	3
176	176	3
185	185	8
156	157	3
7	23	2
172	174	2
66	76	1
0	0	5
22	22	10
186	186	8
88	88	3
138	139	5
174	177	2
161	164	2
140	140	4
155	155	12
137	137	2
67	67	2
107	108	2
166	180	1
78	78	1
95	96	1
119	119	2
108	134	1
141	184	2
50	50	7
43	43	5
157	157	3
119	120	2
86	87	3
96	96	2
158	159	3
6	6	5
11	39	4
196	196	5
15	35	2
45	46	1
103	112	1
136	136	7
109	114	1
60	60	2
191	191	8
141	142	2
27	27	5
94	125	1
5	8	4
44	44	8
102	102	2
102	123	3
187	192	2
162	162	8
111	123	2
76	76	1
55	55	3
51	51	5
178	193	1
114	115	3
99	108	4
95	95	1
80	80	4
146	147	7
18	18	2
196	197	1
101	134	1
183	183	6
58	68	2
180	181	3
61	61	4
4	5	2
51	62	2
144	144	2
158	181	1
141	141	8
144	145	3
0	58	2
172	172	5
43	48	3
188	188	2
112	112	7
28	30	3
152	153	2
86	86	6
43	164	2
59	60	1
102	103	1
142	142	5
6	7	3
173	175	3
12	24	3
105	105	1
100	100	1
181	181	3
133	133	6
70	70	2
2	3	2
123	123	2
37	38	3
138	141	2
80	81	4
50	51	1
84	84	4
58	73	1
162	190	2
163	191	1
34	36	2
53	53	8
31	124	3
160	172	4
5	5	2
28	35	1
147	147	1
71	74	3
82	82	3
27	33	1
128	128	3
116	159	4
149	150	5
118	118	1
172	179	2
77	77	2
111	167	7
148	148	4
98	190	1
29	29	3
105	107	2
45	65	3
6	29	1
67	68	7
9	39	1
179	179	4
143	161	3
127	128	3
81	81	3
118	165	1
172	173	2
187	188	3
7	7	3
26	29	1
59	62	1
152	173	1
34	34	2
122	124	5
161	167	3
21	21	1
122	122	2
190	193	3
77	79	1
154	164	3
3	4	2
122	126	3
40	44	1
27	28	5
110	111	2
109	112	1
58	58	2
5	130	2
143	162	4
134	134	1
99	99	1
19	20	2
115	159	1
17	17	5
58	59	3
165	165	3
63	63	3
160	160	3
62	73	1
12	172	1
137	153	1
124	125	2
160	182	2
127	133	2
124	126	2
46	46	1
0	24	3
163	163	2
64	65	2
7	9	1
133	148	1
6	8	1
57	58	2
32	32	1
124	197	2
126	127	1
175	194	2
31	32	2
24	27	3
34	35	4
135	136	1
179	180	4
48	49	2
64	66	1
66	67	1
81	83	2
165	166	2
51	52	3
186	192	1
110	110	3
136	137	3
26	27	2
24	25	2
50	58	1
174	175	3
141	191	1
10	15	1
39	40	1
41	41	3
152	166	1
155	157	1
165	167	1
174	178	4
78	80	1
183	192	1
112	127	3
31	31	2
125	126	1
126	150	2
79	79	2
69	69	3
16	19	1
173	174	3
119	122	1
85	85	1
154	158	1
62	63	2
111	111	5
176	195	1
3	19	1
14	109	2
81	82	2
81	85	2
21	164	1
161	161	4
104	106	2
154	156	1
20	132	2
13	14	3
10	11	2
135	168	2
112	174	1
109	110	1
138	140	1
84	85	1
178	181	1
153	165	1
74	74	1
137	159	1
159	174	1
113	114	1
96	122	1
115	116	1
35	35	1
127	127	1
187	187	3
121	121	2
5	157	1
141	192	1
4	157	1
169	170	1
170	170	1
143	144	1
105	106	1
1	1	1
96	129	1
5	7	1
