67	72	1
107	111	2
65	74	3
81	81	2
152	152	3
63	63	5
10	10	6
42	42	8
51	56	5
53	114	7
19	20	2
150	150	4
13	13	4
6	6	8
15	15	2
38	39	4
94	99	4
128	128	7
4	5	6
6	86	1
22	22	10
40	53	6
16	16	10
74	74	5
24	25	5
116	116	4
3	14	6
94	98	3
17	17	7
147	147	5
72	73	6
68	71	2
79	81	4
40	40	12
65	65	8
21	23	3
107	109	5
8	8	4
64	64	7
151	151	3
86	93	5
81	86	5
36	36	6
64	66	6
3	3	6
45	45	2
32	34	4
103	103	1
98	124	3
7	11	11
42	43	2
134	134	8
73	74	2
98	98	1
107	135	1
30	30	3
5	83	1
110	110	5
41	41	10
144	144	2
11	11	6
117	117	1
85	85	5
146	146	6
39	39	5
133	133	3
100	100	3
85	88	2
153	153	4
16	18	4
34	38	2
97	97	1
4	4	5
28	31	4
14	14	2
99	109	3
40	79	1
71	71	9
86	86	6
70	70	6
119	119	2
37	48	1
26	38	4
62	62	4
147	148	1
47	47	7
77	84	5
73	73	9
140	141	1
87	87	3
22	25	6
32	32	3
17	31	2
130	130	5
50	50	1
39	40	1
53	109	1
125	127	5
137	137	1
21	21	4
115	115	6
20	24	3
57	57	2
108	108	2
114	114	5
35	35	3
3	15	3
111	111	3
10	11	2
79	104	2
69	70	2
72	81	2
49	53	1
33	39	1
82	97	3
9	9	1
67	67	4
121	121	3
50	51	1
21	22	1
109	114	2
5	5	4
71	91	4
20	20	6
56	88	4
3	27	3
68	68	8
94	94	5
65	66	2
132	133	1
84	84	1
83	84	3
79	80	1
21	84	1
106	139	2
30	32	2
98	99	2
11	30	1
19	32	1
75	84	1
100	115	5
123	123	6
127	127	5
54	85	1
24	24	4
118	118	3
105	110	1
9	12	1
126	126	2
48	52	1
113	113	1
69	69	3
25	25	4
27	27	3
123	125	4
97	124	2
20	23	3
99	99	2
33	33	1
46	141	3
23	23	1
80	80	3
84	86	1
34	35	2
61	99	6
120	120	3
4	7	2
21	36	2
8	36	1
135	151	3
78	105	1
18	18	4
19	19	2
123	127	1
32	43	1
107	107	2
46	46	2
90	91	3
25	26	1
99	134	2
93	93	1
80	85	1
82	87	2
142	142	1
8	9	1
106	106	3
129	130	1
48	48	2
120	139	1
72	72	2
30	40	1
55	78	1
101	109	1
108	124	4
112	113	1
18	31	2
20	36	2
57	109	1
14	69	1
141	141	1
78	86	3
20	77	2
8	11	3
49	49	1
38	40	1
44	49	1
78	87	2
58	83	2
5	7	1
122	125	1
134	136	2
104	105	1
96	96	2
129	129	2
26	26	3
106	114	2
102	122	3
148	149	1
126	138	1
66	66	2
16	17	1
101	101	1
14	15	1
56	56	1
44	44	1
131	131	2
122	122	1
25	27	2
147	149	2
31	31	3
93	99	1
38	38	2
41	44	1
110	113	2
124	124	2
132	132	1
100	101	1
94	95	2
105	105	1
11	92	2
12	14	1
39	48	1
104	104	3
23	34	3
93	98	1
24	26	1
139	139	1
68	69	1
23	24	1
64	67	1
35	36	2
151	154	1
12	88	1
19	24	3
55	56	1
69	71	1
16	43	1
74	93	2
98	127	1
79	84	1
32	41	1
95	95	1
92	92	1
82	82	1
144	148	1
16	25	1
29	44	1
50	85	1
16	19	1
149	149	1
27	50	1
104	119	1
148	148	1
11	84	1
77	77	1
80	97	1
