29	30	6
23	36	7
75	75	21
80	81	8
79	81	2
74	74	17
62	62	16
35	35	13
66	67	8
80	80	10
27	27	8
39	41	2
73	73	6
56	56	24
79	79	12
27	28	5
40	48	3
72	72	13
70	72	2
37	70	5
95	95	12
85	85	6
20	29	4
53	54	5
34	39	4
94	94	20
97	97	8
30	66	1
69	69	9
49	49	11
101	101	6
99	99	20
66	66	19
33	33	7
49	85	2
52	52	4
89	89	7
54	54	19
88	88	9
61	61	15
76	77	6
68	68	6
39	39	7
86	86	13
63	91	2
25	25	8
71	71	12
90	90	23
42	42	13
91	91	9
71	94	2
36	36	19
90	91	5
60	61	6
96	105	9
78	101	3
50	50	5
82	84	5
49	78	2
34	79	5
38	38	12
77	86	1
30	30	15
52	53	11
42	44	4
70	70	21
40	40	8
20	20	9
41	88	5
45	45	4
23	23	8
73	74	3
36	38	8
92	93	4
37	37	7
86	93	3
98	98	11
104	104	14
85	86	7
64	64	17
48	71	1
37	38	5
30	41	6
40	89	2
46	70	3
88	92	5
60	60	14
69	70	1
87	91	3
88	91	2
36	37	2
26	42	6
84	84	12
103	103	9
53	53	9
29	48	1
58	60	5
73	88	7
101	102	6
26	41	3
82	83	3
32	32	8
66	96	4
44	44	9
79	80	7
45	48	1
59	59	9
45	85	4
68	69	10
39	79	1
82	82	9
26	26	8
56	106	1
88	90	4
51	51	8
25	31	2
96	96	16
95	96	13
92	92	15
28	67	1
37	45	2
59	60	4
37	69	1
63	63	6
34	34	12
29	29	7
77	78	5
62	63	16
41	44	4
40	44	5
77	77	10
102	102	17
91	93	4
44	45	8
67	68	6
93	93	4
21	21	12
81	82	1
99	105	3
67	67	13
24	24	19
97	98	7
69	96	5
96	98	7
83	83	3
19	26	1
69	72	1
63	64	4
54	55	4
72	76	3
40	98	3
65	90	1
94	99	5
72	77	1
57	57	16
61	76	1
76	76	13
106	106	3
31	103	1
93	102	1
27	41	4
55	57	2
47	48	3
81	81	4
76	79	3
48	48	5
78	78	6
99	100	2
82	85	1
47	47	7
22	22	6
58	91	4
66	91	1
65	65	7
25	66	2
90	92	2
28	41	6
58	58	10
58	82	3
38	39	3
88	101	3
72	73	2
45	49	4
78	99	2
26	40	3
88	89	2
43	43	12
40	94	5
81	85	2
100	100	10
41	43	1
31	32	4
32	58	4
31	35	1
83	84	9
76	81	1
76	91	2
57	106	3
28	28	6
29	97	1
48	97	1
79	93	1
81	86	4
34	35	3
41	95	1
89	90	2
75	84	2
22	37	3
40	41	1
92	94	4
103	104	1
72	81	1
39	93	3
47	66	2
71	72	2
28	68	1
95	97	4
47	95	1
46	46	4
83	87	3
45	84	3
51	72	3
75	76	3
43	44	3
87	87	4
78	79	3
57	76	1
22	36	2
41	42	2
46	50	1
85	91	2
58	93	1
55	55	10
85	88	2
57	81	1
30	42	2
31	31	4
46	47	2
98	99	4
50	51	1
89	97	3
39	42	2
41	41	3
26	27	4
31	34	1
30	40	3
49	97	2
90	107	1
26	29	3
51	52	4
82	91	2
59	77	1
74	90	1
48	79	1
48	85	1
105	105	5
33	34	2
60	63	1
45	95	3
65	93	1
88	96	1
47	49	2
30	31	3
28	29	2
107	107	3
39	81	1
49	66	1
71	89	1
70	79	1
87	94	3
71	87	1
34	80	2
61	63	1
42	45	1
31	47	2
39	46	1
33	59	2
61	62	2
74	75	3
77	80	1
38	42	1
40	84	1
20	55	1
95	98	1
73	101	1
65	94	1
102	103	1
41	48	2
28	43	1
97	99	1
58	80	1
43	46	1
27	44	1
71	73	1
36	51	1
65	103	1
76	85	1
31	49	1
39	43	1
67	69	1
84	85	1
35	36	1
25	26	1
58	106	1
86	87	1
40	49	1
43	45	1
21	73	1
29	98	1
65	92	1
60	78	1
42	43	1
86	88	1
