163	163	9
99	99	3
64	83	3
0	0	4
10	12	1
80	82	2
71	80	2
80	81	9
95	106	2
56	56	15
0	1	7
87	98	2
117	126	5
86	92	2
15	15	8
92	92	7
16	16	2
158	158	7
21	21	4
98	98	6
11	11	5
123	123	3
123	125	1
84	146	3
102	102	2
114	114	9
114	120	2
159	166	1
145	145	12
165	165	4
42	43	8
34	34	16
131	131	5
70	86	3
91	96	3
62	62	7
84	85	2
1	1	2
161	161	3
2	42	2
19	19	2
111	111	6
123	151	6
150	150	5
70	70	11
163	164	8
11	12	3
146	146	14
136	136	9
22	23	5
87	100	1
23	24	2
115	115	1
44	44	3
26	26	10
127	128	2
81	81	3
116	165	1
35	35	14
12	12	10
1	2	7
41	41	2
72	72	2
73	73	4
34	35	9
119	121	6
63	63	7
83	84	4
51	51	12
50	50	10
64	65	7
27	27	20
160	160	2
9	9	4
111	147	3
26	118	3
88	93	3
143	143	4
0	5	3
168	169	3
65	73	3
7	11	1
38	38	3
3	5	1
2	2	7
91	106	3
103	103	9
74	74	9
124	125	4
82	82	12
153	154	3
148	148	2
112	144	4
74	75	6
127	127	4
79	79	7
47	47	4
100	100	6
110	111	7
138	139	5
39	39	8
93	93	7
54	55	4
63	69	2
91	91	4
55	57	2
135	135	5
95	95	3
83	96	1
77	80	3
149	151	2
159	159	6
107	108	3
134	135	1
80	80	3
159	161	3
124	124	8
71	71	4
3	109	3
87	87	9
144	144	7
37	37	4
76	76	9
56	71	1
96	97	1
91	92	1
141	149	2
83	86	1
10	10	5
86	86	6
137	137	1
65	66	1
85	85	8
36	36	13
112	112	3
151	151	8
8	8	7
125	125	4
97	99	4
8	9	3
7	7	4
15	16	1
119	120	2
126	127	6
17	38	4
154	154	3
118	118	3
97	97	3
70	71	1
78	78	2
150	151	3
119	119	2
96	96	7
3	3	7
69	86	4
94	94	4
122	122	5
134	134	4
82	83	1
166	167	3
23	23	3
164	164	4
97	98	4
13	13	4
6	15	1
84	84	5
88	89	7
137	154	3
122	151	3
85	114	1
80	94	4
33	34	2
46	46	13
90	90	7
126	131	2
94	95	4
75	75	12
118	121	1
48	49	3
139	139	2
61	70	1
22	24	3
6	6	11
113	124	2
22	22	7
5	5	4
43	43	8
33	33	3
62	64	5
72	73	3
110	110	5
133	133	6
86	87	5
142	143	4
8	10	3
105	106	6
145	160	2
124	161	3
71	89	2
138	138	6
99	100	3
101	102	3
142	144	2
83	83	6
27	45	1
10	74	1
54	54	5
51	100	2
68	69	3
70	90	3
49	49	3
114	121	3
44	136	1
20	24	4
48	48	5
153	153	9
68	68	5
58	58	4
98	99	1
155	155	5
101	116	1
4	4	2
166	166	5
109	109	11
10	11	2
56	57	1
79	80	3
49	78	4
169	169	7
45	49	2
142	142	5
53	84	2
103	117	1
67	68	2
109	110	1
117	117	5
113	116	4
18	22	4
45	45	2
24	24	4
130	130	2
123	159	2
5	13	3
143	144	1
15	17	1
159	160	4
52	52	2
37	38	4
167	168	3
159	162	3
50	51	4
131	158	2
114	125	2
101	103	6
115	116	2
89	89	3
84	100	3
20	73	1
89	101	1
42	42	1
40	40	2
62	70	1
5	7	3
14	14	3
167	167	2
47	52	3
51	84	2
83	146	1
20	74	5
12	13	2
64	66	2
53	53	2
145	153	3
57	57	2
147	147	1
115	120	2
133	134	5
18	18	1
76	78	1
106	106	1
45	46	1
95	97	2
126	126	3
120	121	2
128	128	2
129	130	1
111	112	2
122	126	1
161	163	4
119	122	1
123	124	1
116	116	1
58	62	1
90	97	1
104	104	5
64	109	2
146	147	2
5	6	2
136	137	2
137	138	2
6	7	2
140	140	4
13	15	2
108	108	1
140	141	2
64	64	3
148	152	1
83	91	3
16	145	4
20	23	1
151	152	1
116	164	1
52	53	1
3	4	1
156	156	2
145	161	1
51	62	1
67	70	1
101	104	2
106	107	2
65	65	1
50	62	1
114	115	3
39	40	4
131	159	1
17	18	2
77	77	1
87	88	2
121	121	1
160	161	1
91	93	1
83	92	1
108	111	1
100	113	2
26	27	1
14	16	1
20	20	3
136	147	1
17	21	3
25	76	1
157	157	1
18	20	1
14	110	2
156	157	1
81	82	1
149	149	2
163	169	1
153	160	1
149	150	1
44	45	3
114	148	1
68	73	1
43	46	1
102	115	1
54	84	1
87	96	3
43	109	1
132	133	1
