105	106	4
29	29	11
16	17	22
10	14	6
24	24	33
78	78	13
56	56	25
26	26	14
7	13	3
139	139	17
145	146	7
46	46	4
140	140	14
160	160	5
169	180	3
11	11	41
19	19	20
72	72	15
39	39	22
17	17	19
125	125	9
23	24	17
165	170	1
76	77	5
40	40	23
33	33	20
116	117	3
169	169	17
151	151	13
7	7	11
104	130	4
25	25	26
35	35	47
137	137	15
74	74	15
35	36	6
20	22	2
73	75	4
166	167	6
43	43	22
28	29	10
38	38	36
91	91	15
143	143	13
5	5	31
164	164	8
9	9	18
42	42	26
12	131	3
87	87	11
8	13	3
5	7	9
168	169	6
30	30	28
119	121	13
108	108	14
163	163	5
81	81	4
10	10	30
3	19	1
80	80	13
56	57	7
37	40	6
143	159	7
98	98	10
68	68	3
71	76	2
43	44	6
15	15	18
112	114	2
148	148	12
41	41	17
14	14	29
31	31	17
141	141	19
126	162	4
79	80	7
105	107	4
156	156	1
89	89	5
161	162	7
26	27	5
27	31	2
115	116	9
155	156	5
12	114	2
115	161	3
67	67	13
20	21	1
133	133	18
103	103	5
130	130	7
62	67	2
42	43	7
43	46	2
132	133	11
161	161	6
4	4	20
150	150	17
61	63	4
171	174	1
13	15	2
28	28	12
179	180	5
18	18	23
143	145	4
146	155	3
55	63	1
112	112	9
89	92	5
170	171	19
134	134	12
142	142	16
106	106	10
0	0	13
134	135	8
124	125	4
8	9	14
23	23	26
58	58	4
8	8	29
22	22	16
113	114	8
170	170	25
160	161	4
126	126	14
117	121	4
14	32	2
88	88	13
62	64	1
36	36	36
7	8	15
122	122	7
130	131	5
90	94	8
136	136	12
85	86	1
27	28	15
161	165	5
5	6	17
109	110	7
34	35	15
76	76	9
176	176	22
90	90	8
1	5	3
73	73	4
179	179	8
135	137	3
18	20	7
2	8	1
124	124	10
8	10	2
44	44	27
107	107	10
154	154	5
1	2	10
155	155	7
139	140	9
55	55	10
35	38	6
19	93	2
138	179	3
60	61	8
81	83	4
3	3	29
18	19	11
52	52	9
152	152	11
43	45	4
166	170	2
95	95	8
63	63	9
13	14	5
24	28	2
92	93	2
120	120	7
149	149	22
91	99	3
65	66	1
37	38	17
58	61	1
93	93	10
173	174	8
11	12	19
105	105	10
173	173	14
84	84	14
21	23	2
99	100	10
32	45	2
92	92	10
57	76	1
135	136	11
137	172	2
114	115	7
90	91	3
138	139	7
171	172	11
13	13	15
85	88	1
51	51	13
94	94	15
39	44	3
66	68	3
71	75	3
152	154	2
146	146	9
3	4	6
36	133	4
33	35	3
122	133	5
65	65	6
173	175	5
78	141	2
57	57	8
94	102	2
158	158	6
128	129	5
148	149	2
20	20	21
103	104	6
111	111	19
54	54	3
159	161	4
7	9	5
16	86	2
97	97	9
62	62	10
104	107	5
131	132	6
147	147	11
21	21	16
19	20	14
109	109	7
151	152	2
13	17	3
28	45	2
118	158	2
71	72	6
37	37	15
31	32	8
137	138	10
150	151	12
166	166	9
25	33	3
93	142	3
162	162	13
172	172	15
39	40	8
67	68	2
2	3	14
49	50	1
81	82	3
86	88	4
36	40	4
159	165	3
6	6	20
2	2	24
136	141	4
89	90	2
4	5	10
88	102	4
156	157	4
157	158	3
54	93	1
122	123	4
178	178	10
100	100	7
129	130	3
45	46	2
121	121	6
175	176	4
59	60	5
136	137	6
108	111	3
5	35	2
165	165	6
117	117	8
60	73	3
103	105	2
153	154	5
174	175	6
25	26	4
118	119	7
145	148	2
90	99	1
110	110	4
10	17	3
171	176	1
96	96	4
8	15	2
132	159	4
54	68	2
64	77	2
21	22	2
19	44	3
58	59	6
168	168	13
31	33	2
165	167	4
42	44	6
61	78	2
111	112	6
11	22	2
161	177	3
135	135	14
35	41	2
24	25	7
62	63	9
166	169	1
27	27	21
1	1	27
53	53	6
113	113	8
79	79	9
38	39	4
36	38	8
85	87	6
0	3	5
143	144	5
4	20	4
174	174	11
84	87	3
67	103	2
82	83	9
99	101	6
32	32	31
137	154	1
167	168	6
146	161	1
0	1	9
55	56	2
33	39	2
157	157	6
110	143	2
104	105	3
132	135	2
44	45	19
54	142	3
14	15	4
62	71	1
23	74	2
153	153	7
23	25	6
162	165	3
87	89	2
161	166	4
50	50	7
9	13	2
118	118	8
33	34	8
60	71	3
3	5	7
4	8	2
146	159	5
50	53	3
170	175	1
171	171	8
11	88	1
45	45	7
72	75	1
66	73	3
110	111	6
168	170	6
83	83	10
63	98	1
40	41	16
85	85	4
87	88	3
19	22	2
6	18	1
7	18	7
61	61	10
144	144	10
34	34	10
22	23	11
137	158	2
25	30	1
128	128	7
135	146	3
139	179	3
159	159	6
28	30	4
158	159	5
38	40	2
6	34	2
165	169	2
16	16	12
131	131	13
113	140	4
63	66	5
107	108	2
177	178	12
17	18	6
172	174	3
129	170	2
41	43	3
36	54	1
115	146	7
41	42	5
121	124	1
22	110	4
175	175	7
39	41	5
12	12	22
130	172	1
4	9	3
9	12	3
41	52	4
142	143	9
22	33	2
2	9	2
120	161	3
40	42	2
178	180	2
66	66	5
14	111	1
82	86	2
154	156	6
98	99	3
114	114	4
64	64	8
82	82	6
58	90	3
9	10	11
116	128	1
6	112	3
132	132	16
26	141	2
53	158	2
99	99	6
18	23	5
77	77	8
167	167	8
128	165	3
21	148	3
12	13	6
111	114	2
55	62	3
32	34	4
1	3	2
164	165	7
122	125	1
36	37	5
64	65	5
104	104	6
67	99	6
161	164	1
111	127	3
54	55	4
89	97	5
123	124	5
138	138	4
71	71	15
63	73	2
75	76	2
119	119	3
135	139	5
11	15	1
6	63	3
30	42	1
144	145	5
17	24	1
13	16	2
29	30	7
160	162	4
37	39	1
95	122	2
112	145	2
177	177	6
10	32	4
97	106	2
55	58	5
17	104	1
151	153	4
4	22	1
106	107	3
177	179	4
95	98	2
170	176	2
8	18	1
162	164	2
88	89	2
124	133	2
152	153	3
39	42	2
118	122	2
145	145	3
155	159	1
16	29	3
9	11	2
127	130	3
127	129	2
115	115	10
64	73	4
80	81	5
83	85	3
90	106	6
4	7	3
61	117	3
54	66	2
59	66	1
50	51	3
116	116	6
29	45	1
136	144	1
169	172	1
129	129	8
84	114	3
115	128	1
31	130	1
59	59	3
5	125	2
77	78	3
134	140	1
21	33	1
154	157	2
16	24	2
75	75	8
101	102	2
101	101	17
10	19	3
123	123	10
74	78	2
64	78	1
63	79	2
29	42	2
84	85	2
10	12	3
169	174	4
78	79	1
15	16	2
17	93	3
100	101	2
32	33	8
62	78	1
102	103	3
51	52	1
107	122	3
132	134	4
55	77	1
15	22	1
127	127	3
74	92	1
155	165	1
154	155	2
162	178	2
75	93	2
41	44	2
2	4	1
6	35	2
68	73	4
59	74	1
83	84	1
157	161	1
114	128	1
147	149	1
117	118	2
127	155	3
23	30	2
19	43	4
66	67	1
123	125	4
166	168	2
49	49	2
89	117	2
57	58	3
84	86	3
5	16	2
6	7	1
107	139	1
106	179	2
16	23	2
125	138	4
146	152	4
58	94	2
23	26	1
89	93	3
8	11	2
123	126	1
78	143	1
93	125	2
51	54	2
135	140	5
74	89	1
30	31	4
147	158	1
156	159	1
147	148	2
133	134	8
61	71	3
121	122	2
91	105	2
63	64	3
27	54	2
36	39	3
10	11	1
178	179	3
20	148	2
154	177	2
118	143	1
102	102	2
16	18	1
19	23	1
97	98	1
7	10	3
7	129	1
163	164	4
56	58	1
127	131	1
33	45	3
151	158	2
9	44	2
136	138	5
127	169	1
26	28	4
105	139	1
102	110	1
116	144	3
60	115	1
165	166	1
140	141	3
19	21	1
74	75	1
125	179	1
24	27	1
90	92	1
156	161	1
108	109	2
6	16	2
126	127	2
120	158	4
125	126	2
23	29	1
152	155	1
91	92	3
12	104	2
138	141	2
57	59	1
96	102	2
169	170	1
142	158	1
143	153	1
159	160	1
16	22	1
22	81	2
12	15	2
148	153	1
106	178	4
60	125	3
11	13	1
107	140	1
89	96	2
60	60	3
86	86	1
161	178	1
80	85	2
130	132	2
27	29	2
15	18	1
57	72	2
28	112	2
26	54	1
57	61	1
56	77	2
117	158	1
136	145	1
152	156	3
3	11	1
14	18	1
117	119	1
22	85	1
110	112	2
14	16	2
129	131	1
40	51	1
86	117	1
77	141	1
93	94	1
38	167	2
26	31	1
134	137	1
70	70	1
82	84	1
54	125	1
29	31	1
22	25	3
123	179	1
73	74	2
52	53	1
107	109	1
137	145	1
81	89	1
105	137	1
78	145	2
140	143	1
34	41	1
180	180	1
62	66	1
124	176	1
108	110	1
10	15	1
25	27	1
161	163	2
33	80	1
14	103	1
98	106	1
170	174	1
5	9	1
166	175	1
84	89	1
43	56	1
87	101	1
133	135	1
116	121	2
132	136	1
129	132	1
28	52	1
162	163	1
121	127	1
13	18	1
33	36	1
64	76	1
64	82	1
