20	41	2
45	45	28
25	26	6
38	38	29
59	59	11
49	49	16
22	22	18
60	60	32
58	59	8
30	30	27
47	47	19
36	36	28
58	58	27
6	7	10
1	1	28
53	53	40
4	4	12
51	52	4
32	36	6
50	50	21
18	18	13
17	18	9
40	40	25
34	34	15
1	2	6
31	44	4
6	6	11
55	55	18
23	23	8
51	51	15
17	44	4
13	13	10
53	54	9
9	9	12
54	56	6
44	44	25
10	12	3
51	55	5
61	61	29
35	35	16
32	32	26
49	57	4
3	3	18
42	43	6
62	62	19
25	25	12
43	43	26
12	12	21
16	17	3
46	47	1
33	33	16
7	8	5
42	42	22
5	5	17
35	36	16
51	54	12
52	52	22
31	31	25
2	2	15
6	9	2
24	24	13
7	7	1
10	11	5
32	42	2
46	46	32
45	46	7
40	41	13
19	23	3
22	41	5
17	17	9
58	60	3
56	57	8
48	48	19
18	21	1
33	36	1
44	47	1
48	62	4
57	57	19
44	55	4
48	60	1
54	54	9
31	32	1
37	50	2
16	16	4
21	21	16
40	59	4
32	46	4
50	55	8
43	44	5
8	9	4
56	56	24
31	46	4
30	48	2
20	20	3
50	60	4
24	38	3
53	55	3
36	50	1
9	17	2
9	16	2
13	14	6
39	39	12
41	58	1
21	22	8
9	10	7
30	31	6
14	15	11
10	10	9
54	55	5
30	32	3
2	3	2
37	37	13
24	25	3
15	16	1
8	8	9
41	42	4
29	41	3
40	42	7
2	23	1
38	39	12
42	45	4
19	44	4
36	37	2
41	41	11
37	43	1
11	12	5
33	45	2
44	45	7
42	60	4
30	44	2
19	19	12
20	21	2
21	23	1
19	20	2
49	50	3
39	40	4
55	60	1
34	35	3
20	31	3
8	10	4
32	33	3
11	11	1
50	57	3
55	58	4
3	22	2
12	16	1
17	19	1
18	19	1
61	62	3
39	51	1
52	53	4
24	29	3
23	24	3
18	20	1
49	55	2
39	53	2
45	47	2
52	58	1
40	51	3
2	24	2
18	44	1
19	42	1
0	0	3
37	39	1
24	30	1
16	18	2
47	48	1
41	53	1
36	46	3
34	36	2
37	38	2
49	58	1
31	45	1
19	41	3
50	51	2
12	17	1
60	61	1
57	58	2
49	62	3
13	16	1
22	23	1
14	16	1
15	15	3
33	34	1
52	54	1
55	59	1
40	58	1
18	30	1
38	51	2
55	57	1
21	40	2
48	49	1
59	60	2
51	57	1
52	55	2
38	40	1
3	37	1
45	48	1
31	36	2
53	58	1
40	55	1
44	46	1
51	53	1
17	21	1
6	11	1
12	18	1
42	44	1
54	58	1
37	44	1
0	2	1
