65	65	10
156	156	15
164	164	10
59	60	6
60	61	3
32	32	10
105	106	4
219	219	7
174	174	12
236	240	5
230	230	3
159	160	6
193	193	8
153	155	2
157	157	7
81	82	4
101	102	2
198	198	4
19	19	6
160	171	3
234	234	10
162	162	10
151	151	11
14	14	8
75	75	8
117	117	11
77	98	3
207	207	23
84	89	1
165	166	2
158	158	1
104	104	6
181	181	11
217	217	7
82	83	4
172	188	3
171	171	9
82	82	9
58	59	1
176	176	19
239	239	6
59	59	10
160	188	3
188	188	15
113	113	9
245	245	8
167	167	20
85	85	4
166	166	10
203	204	2
80	80	10
186	187	5
109	110	2
208	245	2
161	162	2
240	240	7
103	103	5
84	84	7
57	57	18
88	88	12
177	181	7
210	248	5
170	170	13
70	70	9
160	160	11
191	194	3
87	88	3
21	21	7
35	35	4
179	179	11
27	27	8
68	68	8
161	161	4
119	119	6
227	227	6
38	38	7
58	58	3
238	238	6
211	211	1
183	183	16
45	46	1
32	33	4
244	246	3
237	241	4
86	87	2
34	38	1
187	189	9
93	93	11
149	150	7
90	90	7
212	233	2
177	188	2
60	86	6
200	201	5
109	109	5
236	236	4
29	30	2
218	218	5
214	214	10
213	217	5
182	182	12
61	61	8
24	25	1
24	24	7
212	212	5
235	235	10
34	34	16
221	222	2
20	20	6
157	159	1
71	75	5
185	185	11
214	215	1
191	191	11
209	215	1
175	176	8
116	116	19
79	79	6
184	187	4
105	105	7
223	226	3
216	216	6
63	71	4
193	195	2
54	54	9
89	89	4
102	103	4
50	50	8
8	8	11
145	145	3
18	18	9
168	203	1
106	106	9
36	37	4
98	100	1
222	223	4
225	226	6
37	153	3
38	157	2
118	119	5
56	75	2
22	177	1
179	180	2
154	154	13
209	230	4
211	212	5
208	209	12
28	28	8
237	238	4
87	89	6
245	246	5
205	205	10
150	150	14
167	171	4
203	203	3
74	74	9
190	190	4
159	180	3
91	91	7
75	79	2
69	76	2
119	144	1
33	33	10
96	111	1
15	15	9
28	29	2
105	107	2
202	234	1
1	21	1
242	242	7
42	43	7
62	66	1
203	243	2
168	168	13
99	99	12
81	81	9
215	217	2
71	74	1
237	237	4
160	173	1
215	215	13
114	115	3
194	199	2
88	92	1
96	96	9
15	207	1
173	173	11
229	229	6
120	120	11
11	11	9
45	45	12
202	202	7
232	232	10
200	200	16
56	56	4
224	224	5
73	73	6
212	221	2
201	202	5
177	182	2
174	198	4
52	53	7
53	53	10
37	62	4
79	80	1
188	190	5
220	221	8
76	77	7
9	9	10
39	39	7
207	213	2
215	245	5
60	60	5
172	173	4
212	214	1
88	193	1
22	22	4
185	187	8
77	80	1
184	184	7
219	246	2
82	109	2
31	32	8
190	191	6
2	39	1
12	58	2
205	206	2
165	165	4
100	101	4
169	169	15
48	49	2
7	7	7
195	195	4
90	91	2
220	220	10
34	35	2
86	86	6
225	225	5
66	66	4
211	243	5
88	93	4
23	23	15
60	76	1
33	38	6
111	112	1
79	91	1
69	69	5
101	103	2
6	11	1
51	51	13
15	27	3
4	12	8
195	196	3
6	6	7
194	195	5
40	64	2
101	101	10
162	179	2
15	213	7
215	218	1
37	37	3
52	59	2
221	221	16
223	225	2
209	232	2
157	160	4
178	178	7
194	194	10
240	247	2
22	25	2
16	16	2
171	193	1
153	197	2
236	237	4
102	102	11
150	151	2
6	7	7
110	110	8
3	15	2
222	222	3
112	157	1
11	12	1
209	239	1
19	20	1
208	213	4
120	144	2
171	176	3
189	189	5
44	110	4
1	53	6
36	36	4
40	40	7
155	155	9
23	24	1
213	246	3
76	76	5
78	78	2
41	43	3
99	101	3
41	162	3
180	197	2
82	92	3
153	153	6
241	242	3
66	87	1
214	238	4
115	115	6
13	14	1
223	224	3
213	215	1
56	57	3
68	72	3
112	152	2
186	186	6
168	193	3
223	223	4
196	196	2
112	112	7
232	233	5
31	31	7
91	108	2
118	120	4
233	234	2
147	235	3
73	74	2
5	5	8
17	204	1
17	17	5
10	10	6
87	87	6
64	64	5
173	174	6
185	186	6
118	118	4
55	57	1
4	5	13
49	49	3
239	240	1
210	210	4
179	190	5
187	187	9
48	48	11
166	175	5
39	40	1
215	219	2
111	247	3
146	192	3
73	100	2
110	245	1
75	76	4
68	83	2
227	228	1
204	204	3
74	75	5
47	51	1
3	6	1
192	194	2
197	198	7
55	55	2
44	44	2
20	21	2
192	200	1
208	236	2
244	244	4
204	205	3
199	199	1
243	243	5
55	56	6
166	179	2
236	239	2
40	44	2
51	52	3
177	183	5
61	75	1
233	233	6
65	86	3
62	82	3
17	154	5
226	226	13
99	102	3
181	210	2
186	191	1
28	37	2
173	187	4
192	192	7
238	240	1
197	199	3
88	95	2
201	201	12
52	52	6
77	77	10
92	92	5
35	36	1
161	227	1
31	187	2
1	18	2
98	98	4
146	147	1
162	163	2
170	171	1
70	76	5
163	166	4
203	205	2
70	88	1
30	31	1
176	181	2
147	147	3
231	231	4
97	97	4
152	152	6
180	180	3
74	167	1
120	184	2
2	23	5
161	178	1
12	60	2
175	177	1
210	211	2
167	170	2
113	114	2
188	189	3
14	208	1
216	220	1
62	62	1
43	67	1
195	221	1
197	197	9
231	232	1
185	197	1
159	159	7
161	175	2
58	86	5
114	114	4
180	202	1
156	174	1
163	163	6
100	115	1
17	111	1
177	177	2
211	244	4
220	222	2
247	247	3
47	170	2
38	39	5
1	34	1
191	192	5
146	238	1
209	209	4
81	97	2
61	67	2
5	6	2
43	43	5
3	3	1
239	248	2
193	194	4
66	67	4
224	225	2
169	170	2
92	93	2
46	56	1
41	41	6
17	226	1
47	48	1
28	40	1
106	107	5
199	200	3
198	200	2
8	230	1
41	67	5
96	101	1
91	92	4
175	175	4
107	107	3
208	208	4
216	218	3
71	88	1
94	94	4
189	190	2
47	56	1
72	72	3
184	186	1
179	189	2
25	25	7
100	100	2
95	95	6
46	46	4
96	108	1
3	39	2
79	82	3
19	27	2
3	19	3
66	94	2
214	217	1
238	247	3
80	82	1
119	158	4
233	237	1
37	109	1
242	243	5
162	175	2
195	239	3
47	166	1
49	75	3
228	228	4
49	50	4
178	181	3
33	34	2
39	41	2
65	94	3
241	241	6
162	182	1
56	76	3
48	56	2
159	171	2
213	213	5
230	231	1
53	157	4
33	35	1
62	63	1
30	249	2
108	108	3
206	207	4
45	111	4
54	61	2
27	28	3
238	241	3
210	231	1
42	48	1
202	224	1
187	188	2
12	12	3
242	246	1
62	76	1
18	19	4
83	85	1
1	19	2
185	199	1
173	178	1
64	65	3
153	196	1
165	178	1
35	37	1
111	111	3
246	246	2
20	28	1
172	172	7
7	10	1
47	49	1
166	167	2
55	168	1
91	96	1
171	190	3
80	81	1
44	45	2
93	156	1
93	94	2
96	97	2
162	166	2
168	180	1
229	231	1
26	26	2
33	229	1
151	164	1
202	203	1
63	63	3
47	47	2
240	241	2
111	222	1
37	38	2
145	184	1
46	48	1
116	145	2
157	158	3
206	206	3
41	42	1
97	98	2
165	168	1
54	55	6
2	11	2
182	183	2
104	105	1
31	204	1
53	54	2
85	86	3
173	189	1
191	198	1
85	88	4
217	218	1
54	74	2
70	71	3
246	247	1
34	227	2
100	103	1
18	30	2
19	23	1
60	75	1
34	248	1
45	54	3
216	217	3
165	182	2
47	169	1
154	186	1
40	41	1
77	95	1
247	248	2
248	248	2
75	77	1
185	193	1
172	189	2
55	59	2
219	220	1
145	148	1
212	220	1
205	229	2
214	218	1
93	100	1
29	35	1
51	53	1
236	242	1
22	176	1
16	155	1
187	191	1
26	162	1
77	78	1
30	86	1
42	42	1
30	35	1
74	112	1
95	96	2
168	169	1
95	103	1
57	58	4
193	198	1
15	16	1
161	172	1
48	167	1
191	209	1
153	165	1
56	59	1
182	199	1
208	215	2
4	14	2
44	46	1
152	164	1
176	185	1
100	104	2
119	120	1
158	160	2
35	85	1
73	75	1
1	1	2
237	240	2
195	198	1
204	242	1
220	241	2
67	67	2
104	106	1
160	169	1
70	87	2
47	176	1
178	183	1
105	108	1
74	114	1
2	2	4
164	165	3
75	85	1
238	239	1
180	182	1
197	222	2
34	236	3
230	236	1
87	91	1
150	156	2
29	29	1
160	164	1
194	238	1
166	198	1
1	168	1
47	76	2
83	83	1
3	4	1
90	192	1
57	68	1
161	180	1
249	249	1
84	85	1
176	183	1
156	157	1
215	246	2
5	12	1
68	87	1
49	58	1
17	228	1
32	109	1
45	97	1
9	10	1
25	26	1
82	108	1
0	0	1
181	237	1
