193	193	5
58	61	4
161	161	17
239	239	12
174	174	9
42	42	15
173	173	24
22	22	16
71	72	3
170	174	2
69	70	4
175	175	9
213	213	14
240	240	12
216	218	1
162	170	2
243	244	3
15	15	23
172	172	29
55	55	15
69	113	1
19	19	18
119	119	17
76	76	10
152	152	21
61	61	13
10	10	31
216	220	3
117	117	15
162	168	2
2	2	8
183	184	7
245	245	15
44	46	4
26	27	8
35	36	9
167	167	15
38	38	19
226	226	18
181	187	5
12	12	17
199	200	6
204	220	2
18	19	11
28	28	16
110	110	15
154	154	27
236	237	3
29	29	22
56	56	12
184	184	10
39	39	3
162	169	4
238	239	9
197	200	1
234	234	12
160	161	6
11	39	4
157	157	27
113	113	10
70	70	10
156	156	23
171	171	18
212	212	23
67	67	14
188	190	1
208	208	16
65	65	11
71	180	3
37	38	7
166	166	11
179	179	13
86	86	7
194	195	10
57	57	21
20	21	4
24	24	12
181	182	7
190	190	6
248	248	7
112	112	17
64	66	4
40	40	10
51	51	16
212	213	16
106	107	6
191	191	3
1	2	2
221	221	14
220	220	13
57	58	4
189	189	14
185	185	8
202	202	11
26	26	11
27	27	17
231	231	13
43	43	27
155	155	18
105	107	5
93	93	15
1	1	17
153	153	16
92	92	17
199	199	14
235	237	3
113	115	2
72	72	8
187	187	17
3	201	1
192	192	7
30	30	2
6	6	27
89	90	7
223	223	6
5	5	10
228	228	11
108	108	7
99	99	14
234	245	4
191	192	3
115	118	1
229	229	32
97	97	10
109	109	24
88	88	8
200	201	5
87	88	8
115	115	14
210	210	9
20	20	13
234	235	15
4	15	2
222	223	6
175	178	1
177	177	27
45	45	14
169	171	5
35	35	9
61	70	2
3	5	4
204	204	12
30	31	11
54	55	3
144	144	2
45	95	1
201	202	3
203	203	31
57	60	1
237	241	2
197	197	11
113	151	1
203	204	16
21	23	1
217	219	2
25	26	2
90	90	9
186	186	16
48	48	13
170	175	2
162	162	32
44	44	23
81	81	6
238	238	7
42	43	8
62	63	4
14	15	4
61	62	6
228	229	9
56	57	7
217	220	2
164	164	8
17	17	17
200	200	15
7	7	21
187	219	1
49	49	6
11	11	18
59	59	7
207	207	16
145	148	2
194	245	2
3	9	3
236	236	8
102	102	13
75	75	7
177	178	2
5	181	3
16	16	7
150	151	7
182	182	12
62	62	2
62	79	4
165	165	21
4	5	5
237	240	2
58	59	6
241	242	7
208	214	3
217	217	4
81	84	1
213	214	4
201	201	27
113	114	4
243	243	7
246	248	2
169	170	8
237	237	11
44	45	6
188	188	3
170	170	8
46	46	19
95	95	7
89	89	10
53	53	9
52	94	1
234	240	4
43	47	5
232	233	9
69	69	10
150	150	20
209	210	8
189	191	2
237	239	2
210	211	4
183	183	15
111	111	7
87	89	2
116	118	5
36	36	17
71	71	3
168	168	17
0	0	4
175	176	10
206	212	4
231	232	2
52	52	21
151	152	4
91	92	6
4	167	3
163	165	3
80	81	6
98	98	11
14	14	5
9	9	18
233	234	9
10	11	6
37	37	8
67	68	4
36	37	5
75	180	2
41	41	14
162	163	5
181	183	3
209	209	22
236	243	1
146	146	2
180	180	27
31	31	5
48	50	5
147	160	3
83	84	2
152	153	2
232	232	9
204	212	1
169	169	5
21	21	6
154	155	5
85	86	3
72	73	1
64	91	2
116	116	7
94	94	11
60	61	4
160	160	5
39	202	3
28	29	1
197	199	3
230	230	8
245	246	5
160	171	1
206	207	4
235	235	19
219	219	7
196	196	7
159	160	2
100	100	11
58	60	2
178	179	2
58	81	4
33	33	12
111	245	2
105	110	2
64	64	7
115	116	8
214	215	7
182	183	5
224	225	2
211	211	19
158	159	9
11	16	2
114	115	3
208	209	8
2	201	2
50	51	2
13	38	1
149	150	2
34	34	5
181	181	8
244	244	8
193	194	10
225	225	8
205	205	11
74	114	3
230	231	5
112	116	1
39	40	1
61	93	2
173	175	2
157	158	3
4	4	8
197	247	2
64	85	1
160	189	4
60	62	7
77	87	2
86	88	2
60	60	5
171	172	3
226	227	1
222	222	11
118	119	3
85	85	4
74	77	2
178	178	14
118	118	17
233	235	3
217	218	4
191	198	3
78	81	1
183	185	2
247	248	4
202	205	5
25	45	3
229	230	10
32	32	10
186	190	4
34	35	4
23	24	1
163	164	8
176	176	7
180	223	1
192	193	4
167	168	3
90	101	5
156	157	1
92	93	1
234	241	1
1	8	3
161	162	3
70	119	3
195	195	8
1	15	5
46	47	5
157	178	1
96	96	7
58	58	11
29	41	1
207	223	1
107	107	10
66	67	3
170	173	4
171	173	1
3	3	10
51	95	2
33	92	5
19	20	6
227	227	4
166	167	2
160	170	2
9	201	6
50	50	11
205	212	5
163	163	3
2	3	4
7	9	5
33	35	8
145	145	7
114	114	7
31	32	6
84	156	4
222	238	2
240	241	2
64	92	2
153	154	6
51	52	2
194	196	1
149	149	3
87	87	5
25	25	13
213	216	4
174	175	2
70	71	3
229	235	5
116	117	2
18	18	4
97	98	6
190	192	5
155	156	11
180	190	1
84	84	4
197	198	10
63	70	1
194	197	1
8	9	5
200	206	2
120	144	3
184	186	1
187	192	1
86	98	2
53	80	1
29	31	2
151	151	13
225	226	10
104	104	4
186	212	2
59	243	2
59	60	3
41	150	5
224	224	10
88	100	2
162	245	1
116	155	2
216	216	2
232	235	2
82	82	10
246	246	8
86	94	3
150	179	5
78	78	6
193	195	3
103	109	4
144	207	3
54	229	3
164	165	2
153	180	2
242	242	3
36	38	3
101	111	1
10	12	2
100	101	5
111	112	2
80	166	1
80	94	5
6	7	2
77	77	3
47	47	7
9	10	2
204	205	12
77	152	2
87	100	2
173	186	4
194	194	2
66	66	5
215	215	6
93	94	1
24	25	4
10	179	1
99	100	8
180	192	1
110	112	5
30	32	3
29	30	1
214	217	3
56	83	3
113	242	1
21	22	6
158	158	1
58	71	4
90	91	2
71	75	1
16	235	2
221	222	3
218	220	3
68	71	3
206	206	6
17	20	1
189	190	5
65	76	6
34	92	2
101	101	4
227	228	1
173	174	2
38	39	6
248	249	1
63	63	6
76	77	1
209	211	3
82	166	2
246	247	8
88	89	3
74	81	3
41	43	3
91	91	4
47	48	1
237	238	3
215	216	2
54	54	11
79	79	3
31	223	2
235	238	1
1	7	2
52	53	2
211	212	3
144	145	2
41	44	3
162	200	2
247	247	6
219	244	2
59	180	2
80	167	4
82	83	5
96	97	1
162	167	4
63	64	3
187	189	2
180	214	2
176	186	2
241	241	15
85	95	2
11	40	2
4	247	2
193	214	1
20	27	2
188	189	1
78	89	1
194	219	2
144	152	1
204	206	6
73	152	3
178	211	2
159	159	3
24	28	1
179	188	1
162	173	2
214	214	3
153	156	1
77	83	6
23	23	3
108	110	1
115	117	1
62	74	2
180	181	10
162	164	3
45	53	1
105	105	3
4	55	2
235	236	2
211	213	2
176	177	2
118	120	2
83	83	1
74	76	1
4	19	1
159	179	6
87	109	1
119	120	1
74	74	1
43	44	2
103	107	1
9	33	1
200	219	2
198	200	2
80	93	1
91	108	1
103	103	1
11	20	1
7	8	1
216	217	1
104	106	3
236	241	2
161	175	1
232	234	1
115	172	1
74	75	1
59	80	2
86	87	2
14	19	3
57	79	1
205	207	3
177	185	1
61	79	1
159	180	1
68	68	1
112	113	1
157	161	1
198	199	1
77	78	1
80	80	2
238	240	1
44	47	1
35	101	1
68	70	1
161	173	1
56	229	1
151	155	1
174	207	1
109	110	3
25	27	1
68	191	2
117	118	1
82	84	1
233	233	3
73	74	1
55	56	1
68	69	1
64	65	1
1	230	1
73	73	4
90	92	1
201	226	1
193	246	2
212	216	2
53	54	1
97	99	2
179	180	5
197	246	2
152	179	1
57	59	1
7	10	1
147	150	1
215	218	1
213	222	3
19	153	1
58	181	2
5	6	1
170	171	2
113	116	2
101	214	1
162	165	1
25	42	1
46	72	1
70	113	1
186	187	2
87	99	2
218	219	2
179	201	1
177	208	1
80	83	1
102	103	1
201	227	2
60	75	2
49	50	2
58	80	2
112	243	1
111	118	1
104	108	1
208	225	1
202	212	2
212	224	1
110	111	1
106	106	1
185	186	1
6	166	1
203	205	1
187	218	1
245	247	1
11	165	1
202	203	1
202	204	1
183	186	1
184	185	2
196	197	1
177	184	2
186	188	1
241	246	1
90	112	1
62	64	1
209	214	1
61	68	1
89	110	1
4	248	1
70	112	1
19	21	1
5	14	1
205	206	1
80	163	1
244	245	1
198	198	1
240	245	1
186	213	1
180	213	1
236	240	1
176	178	1
