46	46	25
81	81	40
47	47	27
60	62	7
99	99	47
55	55	18
84	89	5
88	92	6
20	22	7
34	34	6
62	62	16
69	69	22
94	95	2
97	97	20
54	54	31
56	57	4
72	72	17
88	89	5
94	94	19
79	79	16
67	67	15
70	70	21
75	75	16
74	74	20
100	100	23
59	59	26
48	48	17
40	40	14
57	57	41
41	41	34
34	35	2
78	78	16
50	50	15
61	61	24
68	68	21
44	44	16
70	71	3
79	80	12
20	20	5
80	81	8
60	60	15
83	83	22
69	70	7
92	92	17
89	90	8
90	90	13
84	84	8
90	96	2
53	53	30
47	48	28
80	80	11
51	51	15
52	52	15
61	79	1
47	76	7
86	88	3
26	26	12
73	74	7
86	86	13
45	48	8
27	27	5
67	70	2
60	61	3
34	41	6
64	71	2
31	31	6
54	58	1
49	50	13
96	97	6
101	101	15
73	73	25
46	48	6
65	65	19
95	95	27
63	63	15
42	63	1
58	59	4
78	79	3
43	44	4
76	77	9
98	98	8
24	25	2
57	58	4
64	64	23
65	66	11
67	68	8
51	53	4
96	100	3
89	93	7
23	23	4
26	27	4
89	92	2
54	55	17
87	88	7
76	76	22
24	24	4
85	85	7
71	71	8
36	39	4
40	41	1
66	69	6
90	91	7
38	38	9
58	58	18
33	33	12
88	88	20
91	101	3
79	82	1
36	37	3
93	96	5
31	32	4
63	64	14
35	35	15
72	83	3
81	84	8
92	94	3
49	51	4
62	100	1
42	43	4
72	74	6
56	56	11
39	39	18
100	101	11
95	96	9
34	36	5
46	47	5
53	79	3
62	90	2
61	84	2
93	93	9
84	88	3
29	29	7
64	67	5
50	51	5
66	66	8
37	38	10
48	49	4
55	67	1
81	82	4
43	43	12
48	73	4
52	79	6
69	81	1
59	60	5
77	77	19
68	69	5
73	78	2
93	94	3
75	77	2
32	32	3
23	24	2
87	87	25
56	79	1
45	46	5
37	37	17
72	78	3
97	98	4
35	36	4
59	101	6
36	36	8
91	91	7
25	27	1
53	57	1
42	42	12
75	76	2
92	93	2
91	92	3
80	96	5
66	67	6
41	42	5
49	49	16
82	84	4
99	100	9
50	77	2
49	67	1
91	93	12
52	54	8
47	77	1
83	88	2
98	100	4
53	55	1
63	76	1
56	68	2
44	46	6
86	87	3
95	99	1
83	84	8
62	63	6
59	86	1
52	56	1
31	35	1
40	42	2
67	100	3
89	94	1
48	50	3
61	69	1
70	77	1
42	76	1
72	73	5
74	100	2
93	100	1
67	85	3
29	31	2
61	68	1
32	33	1
30	33	5
89	91	4
56	86	2
38	40	2
51	62	3
55	77	2
35	74	1
52	62	1
50	67	2
85	86	2
96	98	1
40	71	1
62	101	1
91	95	5
45	47	1
22	22	3
89	89	3
93	95	2
41	62	1
84	86	2
82	82	4
98	101	2
30	30	1
85	88	2
48	51	2
87	94	2
39	40	3
101	102	6
57	59	1
97	100	4
46	79	1
60	82	4
64	65	6
97	101	2
96	96	5
44	47	2
98	99	3
77	78	3
28	29	1
38	47	1
28	28	2
60	98	1
94	100	3
52	78	1
24	26	3
55	87	1
95	97	3
53	54	1
95	98	2
33	40	1
52	53	2
25	26	3
60	81	3
86	94	2
64	74	2
61	80	4
47	55	1
87	100	1
68	80	1
33	37	1
71	72	2
51	61	1
90	94	1
64	83	1
55	59	2
44	59	1
45	45	6
102	102	1
61	62	1
81	86	2
41	75	1
35	40	1
55	80	1
71	73	1
61	97	1
23	30	1
26	28	1
61	98	2
48	57	1
52	57	1
54	67	1
66	68	1
74	78	1
55	85	1
54	81	1
72	81	1
70	81	2
61	82	1
30	34	1
89	99	1
