126	134	3
120	124	3
17	17	6
128	128	4
71	71	9
126	126	4
131	131	13
123	123	7
130	130	8
16	19	1
95	95	2
6	6	5
17	18	7
93	93	3
83	83	7
1	69	5
34	34	6
12	16	6
76	81	4
83	85	3
121	128	3
137	137	2
97	97	5
106	106	1
140	140	17
27	31	4
83	84	2
116	116	9
129	129	12
107	107	6
5	5	5
15	15	2
38	38	26
84	85	3
103	103	3
94	115	2
8	8	5
10	11	3
120	122	2
91	91	4
16	16	4
102	102	12
113	113	2
136	136	15
92	92	3
118	139	4
123	126	2
112	117	3
29	30	6
122	122	6
99	99	8
74	74	6
138	138	8
132	132	9
109	109	8
33	33	3
89	89	4
125	125	8
9	24	6
82	83	8
7	7	2
76	83	2
81	81	4
37	37	7
4	4	3
93	119	2
114	115	1
30	30	4
18	19	5
76	85	2
99	100	1
10	10	5
133	133	8
119	120	2
124	137	6
131	132	3
25	25	5
77	81	5
97	126	2
115	122	3
121	121	13
31	31	2
135	135	5
102	107	3
112	112	6
88	88	2
19	22	7
104	107	3
134	135	3
132	133	2
114	114	1
98	98	2
126	127	2
19	24	2
11	23	2
119	119	5
22	23	2
82	107	1
21	21	3
114	139	2
27	30	3
87	87	2
134	134	5
96	96	2
20	20	1
5	12	6
27	28	2
117	117	5
14	14	3
104	105	4
74	130	2
20	21	4
35	35	6
124	124	16
128	131	4
16	125	1
7	8	1
73	73	8
9	23	1
118	132	6
80	106	2
93	116	2
126	137	2
1	2	1
22	22	6
76	77	1
72	72	4
84	84	2
3	4	2
75	122	5
128	129	3
0	2	1
36	36	3
120	120	5
109	122	3
121	122	1
5	26	2
83	86	2
11	11	3
101	121	1
16	17	1
97	98	2
84	107	3
110	110	4
75	75	2
110	111	4
78	113	2
126	129	1
11	24	1
90	102	2
4	14	2
32	33	1
26	26	1
115	115	1
101	101	1
15	16	1
127	127	1
21	31	1
125	126	1
11	15	1
127	128	1
89	91	1
78	78	5
28	28	2
80	80	2
103	118	2
90	90	2
129	131	2
20	33	1
128	135	1
139	139	3
7	30	2
123	128	3
102	103	1
15	36	1
135	136	1
29	29	1
82	82	1
117	133	1
75	83	1
36	37	2
123	129	1
131	136	1
27	32	2
124	129	1
105	105	2
112	119	3
2	2	1
118	118	3
71	93	1
24	32	1
93	112	1
111	111	5
73	104	2
132	137	1
31	32	1
138	139	1
75	84	1
125	135	1
117	121	1
98	99	1
123	136	1
96	100	2
100	127	1
78	80	1
93	95	1
86	92	1
20	32	2
139	140	1
71	112	1
27	27	4
76	76	1
27	29	1
20	23	1
9	29	1
3	25	1
110	112	1
