73	74	7
71	72	11
33	33	11
89	90	3
109	109	21
106	106	4
39	39	6
81	81	7
27	27	14
21	21	14
91	91	9
23	24	2
113	113	17
79	79	4
31	31	3
69	69	15
74	75	5
76	95	4
34	34	3
66	66	10
48	48	16
22	23	2
58	59	6
43	44	9
47	47	5
77	79	3
111	113	4
42	42	24
76	76	11
75	75	7
73	73	19
20	20	5
41	41	22
101	102	7
81	97	2
36	37	8
88	90	10
44	44	23
47	48	12
52	52	16
68	69	4
82	83	1
76	77	7
82	104	4
111	111	21
36	36	6
70	70	18
56	57	4
92	92	9
82	82	9
103	107	2
108	108	10
108	109	5
59	59	15
29	46	3
37	37	5
88	88	13
28	28	8
22	30	1
110	110	27
84	103	2
24	25	7
22	24	2
70	71	3
99	99	10
77	77	7
44	45	9
50	50	16
35	35	2
51	54	4
94	97	6
83	83	6
32	32	4
65	65	10
56	60	6
98	98	9
57	59	2
48	49	8
87	87	4
72	73	7
59	76	2
42	43	2
70	73	1
38	38	4
26	42	2
32	33	4
29	29	8
19	19	1
78	78	8
65	73	1
42	44	3
23	27	2
80	100	5
91	92	5
95	95	3
70	72	2
92	93	11
53	71	1
69	70	5
64	65	5
98	99	5
112	113	6
62	62	6
70	95	3
44	70	3
73	75	2
84	84	7
90	90	7
45	45	16
26	26	4
74	74	29
102	102	9
67	67	9
33	34	3
87	89	4
97	97	9
56	59	3
81	83	3
40	40	11
27	59	2
50	51	3
91	93	4
103	104	3
65	83	2
72	75	4
83	84	1
46	46	6
49	110	4
81	82	5
86	87	5
39	40	4
43	47	1
33	37	2
21	22	2
61	63	1
102	103	3
26	29	2
32	36	1
113	114	2
22	22	6
52	76	1
48	65	1
86	104	2
83	103	1
94	95	3
46	70	2
115	115	3
48	83	8
27	41	3
30	30	9
114	114	9
94	94	16
49	49	10
79	89	4
93	94	4
77	97	2
51	51	17
49	51	3
58	58	2
100	100	3
80	80	11
110	111	3
43	43	6
22	31	4
54	60	2
27	46	2
104	106	5
64	64	5
64	66	5
79	96	1
26	27	3
33	44	4
64	68	1
63	64	2
93	93	8
68	68	7
67	87	3
59	61	2
104	107	5
49	111	1
85	85	4
95	97	2
25	71	1
77	78	6
106	108	5
66	67	3
56	56	10
52	55	3
49	50	1
19	20	1
87	104	1
53	79	2
101	101	8
62	67	2
80	95	3
59	70	2
100	101	4
63	73	1
107	107	6
67	68	5
77	80	4
26	53	1
71	71	5
87	88	3
23	23	1
55	56	4
54	57	1
78	79	6
47	65	2
105	107	4
31	32	1
28	30	1
65	66	2
88	89	2
38	65	3
105	105	4
57	57	2
72	72	2
41	42	1
61	62	2
76	80	2
91	94	1
20	22	5
83	107	2
24	24	2
38	39	1
80	81	1
60	60	2
96	97	2
48	52	1
53	56	2
46	47	2
109	110	3
62	66	2
59	75	2
74	91	2
61	61	3
89	89	3
32	37	2
78	95	2
107	108	1
54	59	1
46	111	1
86	106	1
32	34	4
54	58	2
55	55	1
49	109	2
79	80	5
85	90	1
112	112	2
58	76	2
105	108	1
48	111	2
105	106	1
65	70	2
93	95	1
97	99	2
81	103	2
78	80	2
84	101	3
63	65	1
60	67	1
70	75	1
96	100	2
43	45	1
90	91	4
88	109	1
89	109	1
93	101	2
85	87	1
54	54	1
52	95	1
52	53	1
69	85	2
53	59	2
29	32	1
91	96	3
53	53	2
25	53	1
106	109	1
54	55	1
66	92	1
49	52	2
61	66	1
67	69	1
48	86	2
20	21	2
96	96	2
96	99	1
62	69	1
79	95	1
21	23	1
58	71	1
51	59	2
28	59	1
71	74	1
60	61	1
29	89	1
88	102	1
84	85	1
30	74	1
92	95	1
36	44	1
45	100	1
85	86	1
51	82	1
77	89	1
75	76	1
25	25	1
104	104	1
