74	117	2
137	137	6
1	1	11
126	126	8
73	117	1
93	94	4
63	135	3
78	79	1
87	87	7
93	93	6
113	114	2
88	102	1
76	111	1
111	111	5
57	57	4
113	126	2
97	108	1
119	119	8
30	30	5
95	105	2
21	22	1
134	134	10
40	72	2
28	28	5
75	79	1
97	97	4
92	108	1
69	69	3
81	81	7
66	66	3
79	84	2
47	47	3
90	90	4
42	42	4
80	80	4
95	124	1
5	5	6
91	91	3
96	98	1
67	67	3
13	118	1
86	87	2
38	76	3
122	124	1
14	14	7
84	84	3
66	79	1
139	139	4
85	87	2
104	105	4
32	64	1
110	110	2
13	133	3
95	120	2
85	85	10
128	128	4
55	55	2
89	89	7
3	43	2
74	115	1
35	36	6
80	81	1
108	108	9
88	88	7
68	92	2
71	79	1
129	129	4
133	135	5
16	16	7
8	8	3
40	40	4
83	88	2
9	9	2
20	24	2
86	92	1
136	136	5
3	4	5
72	75	4
3	3	5
2	5	5
63	63	2
78	78	1
133	133	5
6	6	7
123	123	1
48	48	1
74	74	3
23	23	3
65	140	4
50	51	2
38	38	2
12	13	2
61	133	1
122	127	2
142	142	1
95	95	2
6	11	2
71	74	2
48	103	1
141	141	8
31	33	3
114	114	5
31	47	1
62	62	2
58	62	2
102	102	1
113	113	6
95	103	2
21	33	2
140	140	2
54	64	1
137	139	1
100	100	7
106	106	4
105	107	1
73	73	5
131	132	2
32	32	3
38	39	3
97	107	2
70	70	5
124	124	5
26	26	6
29	29	4
109	109	2
50	50	5
75	128	1
127	127	6
87	92	1
32	56	1
91	99	4
84	135	3
115	116	2
67	91	2
13	28	2
37	37	1
79	80	1
92	95	2
1	21	4
35	35	3
15	15	7
93	104	2
33	34	5
92	93	3
121	121	7
12	58	4
89	90	2
129	132	1
25	25	3
96	97	3
135	135	5
43	47	4
4	65	1
58	58	6
71	82	1
27	37	7
109	110	6
10	10	6
100	101	3
106	107	2
99	99	3
61	61	2
13	13	3
96	96	3
105	108	5
71	71	2
17	17	2
94	110	2
5	36	1
10	66	2
40	41	1
1	25	2
69	70	1
75	75	2
91	144	1
57	72	4
53	53	7
110	121	1
68	85	1
86	138	1
130	131	1
137	138	1
68	79	2
138	138	1
74	81	1
114	115	1
91	96	2
37	41	4
65	65	1
54	56	1
20	74	3
71	72	4
22	29	1
68	68	3
20	21	1
122	141	2
79	79	4
34	36	2
76	76	2
120	120	4
98	108	3
121	122	2
94	94	2
66	70	3
117	117	5
39	68	1
77	77	2
74	82	1
24	24	2
109	121	1
68	98	1
86	86	3
60	60	2
135	139	2
62	64	3
126	127	1
34	47	2
18	19	2
144	144	2
3	140	2
50	53	3
52	52	1
37	42	1
86	142	1
90	99	2
17	18	1
59	62	2
132	132	2
129	133	2
42	47	1
99	126	1
51	51	2
10	11	1
18	20	1
31	31	1
133	138	2
76	130	1
145	145	2
6	75	1
84	85	3
11	11	2
68	115	1
125	129	1
51	64	2
107	107	1
101	101	5
61	62	1
73	82	1
95	110	2
64	64	2
50	52	1
140	141	1
76	79	2
70	80	3
11	35	2
81	105	1
59	60	1
119	120	1
43	43	1
83	83	1
13	48	1
139	140	1
134	136	1
3	5	2
0	1	1
71	131	1
112	113	1
88	89	1
87	90	1
39	39	2
96	109	1
128	130	1
64	73	1
92	92	2
125	125	1
55	56	1
27	27	1
12	118	1
0	21	3
65	73	1
51	52	1
127	129	1
117	119	1
37	67	2
26	27	1
68	69	1
48	49	1
57	65	1
18	18	2
118	118	1
127	130	1
9	104	1
4	5	1
41	41	1
8	19	1
76	77	2
115	115	1
33	62	1
40	55	3
122	125	1
116	117	1
69	77	1
13	30	1
101	115	1
132	134	1
26	28	1
57	58	1
105	105	1
54	62	1
142	143	1
76	129	1
117	132	1
