55	55	4
83	119	4
23	23	10
49	49	6
158	158	6
56	56	11
73	73	3
52	52	11
40	41	1
93	93	8
113	113	9
22	23	3
98	99	4
17	17	6
64	64	2
105	106	1
71	71	5
144	151	8
91	91	3
160	160	5
154	165	2
145	148	3
62	62	5
134	134	10
139	139	1
166	166	3
64	70	2
109	109	17
21	21	7
35	35	8
133	133	1
50	51	2
117	117	4
124	124	9
130	130	12
136	136	17
49	50	2
113	135	2
5	6	2
146	146	13
22	22	8
4	4	7
19	19	2
36	36	11
16	22	3
120	120	7
39	52	4
65	67	3
125	125	12
83	84	1
64	65	3
148	148	14
68	68	12
12	20	1
72	72	4
92	94	1
15	15	12
85	99	3
41	50	1
53	54	6
161	161	11
17	18	1
42	42	4
41	41	13
118	119	2
152	152	11
53	53	1
106	106	8
69	119	3
15	16	2
138	139	4
120	121	3
86	99	2
5	5	7
24	130	2
137	137	2
119	119	5
70	70	13
140	140	4
1	20	7
129	129	12
18	18	13
155	155	4
27	27	18
40	40	6
20	132	5
6	6	17
14	14	13
99	99	11
121	121	3
100	100	2
7	7	5
38	38	7
165	165	8
40	51	1
115	122	1
114	115	5
13	13	6
131	131	4
75	75	4
18	132	4
113	114	5
114	114	5
43	43	5
41	54	2
79	80	3
92	93	3
103	103	2
112	112	10
8	69	3
151	151	3
123	123	3
122	122	8
121	145	3
69	70	7
153	165	3
161	162	1
111	112	4
88	88	5
69	88	1
28	28	6
80	81	1
143	154	2
46	46	2
154	164	1
8	91	2
138	138	3
113	156	1
122	124	1
6	137	1
101	101	12
139	140	7
14	15	3
33	34	2
7	89	2
47	48	3
169	169	2
115	116	3
92	92	1
152	154	1
79	79	7
100	101	2
97	97	4
77	77	1
108	108	2
132	132	4
135	135	3
10	41	2
96	96	3
7	38	1
5	10	1
82	82	3
95	95	3
76	76	1
1	1	13
46	47	5
107	107	5
57	144	2
45	45	3
116	121	1
5	133	2
16	16	2
156	156	4
1	2	4
76	120	3
44	49	2
44	51	1
44	44	5
78	79	2
88	89	3
78	78	1
118	120	1
90	90	3
3	3	4
145	145	3
67	67	2
6	7	3
65	65	2
41	45	2
100	102	3
110	110	4
112	115	1
57	126	3
145	146	4
121	124	2
7	15	3
44	46	3
80	87	2
37	37	1
9	84	2
142	143	4
23	24	2
64	82	4
48	48	3
143	143	4
110	111	6
11	11	3
130	140	3
42	129	4
38	39	2
69	110	1
20	24	3
39	39	8
164	164	2
105	105	4
7	8	5
69	69	3
143	149	1
16	17	2
58	62	1
83	83	2
119	146	2
44	47	3
86	86	1
23	25	1
33	33	1
54	54	1
10	10	9
75	76	1
41	42	2
44	45	3
71	72	1
122	165	3
51	51	2
24	25	5
21	22	3
102	102	3
160	164	1
47	47	9
144	144	2
89	90	1
116	126	3
17	27	1
139	142	3
141	153	1
70	95	2
154	154	12
111	111	5
74	76	1
63	63	4
10	11	3
12	12	4
94	94	1
77	80	5
103	104	2
24	24	8
87	87	3
96	97	1
9	9	5
119	120	2
109	112	1
0	0	3
162	163	2
141	141	2
112	114	5
26	27	3
163	163	1
50	50	1
57	141	3
2	2	3
143	144	4
157	157	1
55	156	1
159	162	1
89	89	1
159	160	2
21	23	2
62	131	2
81	81	1
128	128	6
100	103	3
11	37	1
162	162	1
102	104	2
71	87	3
1	21	2
157	158	1
50	82	1
91	94	2
97	100	1
117	118	1
73	74	5
111	113	1
20	20	3
25	25	2
84	85	2
23	91	1
81	82	1
112	113	1
46	58	1
141	142	2
9	68	1
4	26	2
147	147	1
80	80	1
132	133	1
148	151	3
15	18	1
153	154	1
134	135	1
110	115	1
159	161	1
90	91	1
42	43	1
71	73	1
85	87	1
5	7	1
104	104	3
36	37	2
108	125	1
98	98	1
167	167	1
84	84	2
78	89	1
116	116	2
63	67	1
93	95	2
93	94	1
86	97	1
57	70	1
159	159	2
57	57	2
127	128	1
26	26	1
54	147	1
25	26	1
144	145	1
