161	161	6
122	163	1
138	139	5
81	84	3
75	75	17
96	97	5
95	114	2
67	68	3
77	77	9
48	48	5
14	14	12
166	166	7
70	70	8
38	46	2
143	143	8
66	99	2
110	113	1
16	16	3
54	55	3
22	22	16
24	24	14
4	4	10
69	69	10
76	78	7
74	91	1
56	57	2
164	164	12
130	131	1
153	156	2
55	56	4
11	149	3
77	79	5
78	165	3
131	131	3
106	158	2
98	98	8
111	111	11
10	40	5
0	0	9
20	21	7
118	118	13
52	52	16
36	37	3
114	114	4
138	142	4
22	23	6
33	33	6
105	105	10
109	109	8
17	18	1
10	64	2
68	68	5
141	141	5
74	99	4
53	54	2
82	82	3
20	23	2
21	21	11
120	121	5
143	144	6
42	42	4
25	27	2
88	88	12
1	1	13
98	122	2
103	103	8
47	66	2
99	99	1
52	53	11
127	130	5
39	50	4
63	63	9
129	129	8
6	6	9
125	125	3
9	14	3
2	84	2
12	12	19
27	27	16
75	152	1
146	146	15
66	67	6
71	72	5
71	71	4
97	99	3
49	51	4
0	105	1
57	63	4
40	40	11
127	161	4
95	96	1
4	5	2
81	81	11
113	113	7
22	25	4
47	47	3
163	163	5
93	94	6
26	26	11
24	25	4
101	102	4
4	6	2
168	168	4
83	87	3
162	162	18
165	165	3
51	51	10
92	92	5
56	56	2
17	17	8
79	79	10
3	3	3
10	15	2
79	80	3
43	43	10
84	85	3
15	21	5
94	95	1
132	132	2
47	49	3
8	63	2
79	155	1
124	124	6
45	46	7
7	142	3
153	154	3
51	69	3
72	72	9
20	41	4
115	121	5
112	113	2
73	148	3
46	46	3
7	7	7
152	152	4
123	125	5
15	15	3
151	151	3
138	138	1
102	102	8
6	160	1
36	44	2
8	13	2
125	136	7
157	157	3
44	44	7
34	35	4
115	116	6
64	64	1
115	122	3
37	37	4
147	147	1
139	139	2
78	78	7
92	93	7
61	62	2
9	38	5
71	147	2
140	140	7
81	128	1
73	73	4
11	157	2
39	89	4
25	26	2
69	71	2
95	95	3
69	122	5
133	133	10
121	122	1
144	144	5
73	77	2
97	111	1
156	156	3
34	34	2
54	54	5
10	10	5
128	129	4
20	116	3
25	151	1
72	73	6
113	137	3
72	74	3
22	144	3
50	50	3
87	88	4
119	120	2
83	128	7
38	39	4
85	85	9
119	119	8
15	27	2
114	117	1
77	78	4
74	94	3
18	37	5
57	57	4
166	167	3
86	86	8
122	164	5
148	148	4
100	101	6
8	8	2
100	105	1
65	65	4
44	45	6
81	164	4
90	97	2
108	108	7
41	41	8
108	109	7
121	124	1
149	149	8
140	141	10
50	106	3
75	95	4
19	19	2
103	104	4
87	87	4
107	167	4
102	103	4
154	154	4
167	167	6
40	41	10
103	125	1
144	145	2
36	36	8
103	123	2
2	2	6
18	20	1
100	102	1
97	97	6
38	52	4
89	89	4
89	90	2
104	104	10
23	23	11
37	38	6
84	84	5
114	116	4
122	122	4
127	127	9
7	41	1
28	113	1
73	152	1
99	132	1
153	153	10
130	130	4
91	91	6
112	112	3
0	1	3
38	38	6
45	45	7
86	87	1
10	11	2
39	39	5
134	134	3
9	9	2
154	155	1
43	44	4
145	145	5
74	75	4
167	168	1
126	163	2
83	89	2
96	96	9
159	159	2
136	140	2
69	81	1
160	160	1
142	161	5
18	36	2
150	151	1
137	137	1
114	115	1
83	83	8
90	90	4
35	36	3
55	55	3
37	39	3
96	124	1
63	72	1
162	165	2
35	35	4
143	145	1
27	28	1
90	91	1
21	38	1
125	128	1
77	98	1
146	148	1
53	53	8
91	92	1
71	76	1
110	110	2
98	115	1
100	100	7
11	143	1
16	143	3
67	67	5
123	123	2
144	147	2
58	64	1
2	4	3
133	135	2
121	121	3
19	27	2
8	39	1
73	147	1
145	156	3
74	90	2
25	25	5
75	90	1
148	149	2
155	155	2
74	74	4
151	152	1
158	158	3
146	154	1
64	65	1
98	114	2
117	118	3
18	18	4
57	99	1
139	141	2
1	88	1
103	164	2
46	47	2
91	94	2
64	68	3
105	107	1
133	165	1
9	39	2
120	120	1
64	71	2
115	115	1
104	124	2
16	24	1
28	28	1
76	76	2
116	116	3
21	48	1
11	11	2
150	150	2
89	101	1
8	15	2
128	128	3
0	110	1
143	157	2
139	140	2
106	106	3
8	9	4
78	162	1
1	2	3
75	144	2
80	80	2
123	124	1
91	93	1
58	83	1
145	155	2
110	111	1
94	94	2
90	132	5
143	158	4
136	137	2
162	163	5
126	160	1
13	40	3
64	66	1
77	162	2
82	85	1
107	107	3
62	62	2
87	118	2
169	169	1
141	142	1
99	123	2
21	23	1
42	43	2
93	93	4
13	15	1
20	40	1
68	76	2
47	48	3
4	8	1
83	84	3
20	26	1
0	106	1
48	49	4
46	111	1
107	108	1
155	156	2
2	85	1
45	47	5
38	51	1
23	25	1
170	170	2
80	165	4
48	105	1
49	66	1
142	142	1
13	13	2
92	94	1
103	161	2
58	58	2
54	76	3
16	17	2
156	159	2
99	136	1
124	129	1
98	99	3
21	25	1
56	65	1
142	143	1
85	86	2
104	105	2
84	86	2
119	121	1
28	44	1
21	22	3
95	122	1
78	156	1
93	96	2
70	72	2
6	7	1
73	74	1
88	102	2
43	103	1
147	148	1
76	79	1
71	123	1
148	154	3
67	100	1
149	150	1
120	137	1
49	49	1
101	101	3
135	135	1
54	56	2
20	22	1
100	139	1
125	130	1
82	164	1
159	161	1
105	106	1
22	113	1
15	44	1
95	152	1
47	65	1
20	24	1
9	10	1
136	136	2
7	141	1
47	149	1
145	154	1
114	121	1
65	66	1
95	99	1
139	142	1
