56	56	7
68	73	3
46	46	10
64	64	4
42	42	13
7	7	7
65	65	4
3	3	6
67	68	3
68	69	4
9	9	9
12	12	6
49	51	1
52	52	12
67	69	6
4	51	1
34	34	7
28	29	4
41	42	5
26	27	6
12	13	3
76	76	6
44	44	16
22	23	7
39	39	7
61	66	1
41	41	3
2	3	2
59	59	8
13	14	5
55	55	18
66	69	2
37	54	2
49	50	6
21	24	2
23	23	9
9	11	5
61	61	10
53	53	6
49	49	12
36	36	5
51	51	7
45	45	3
1	44	2
66	66	9
61	68	2
25	25	4
64	66	6
8	8	4
74	75	1
64	71	3
21	21	10
37	68	4
77	77	7
68	68	3
22	22	1
50	50	7
61	62	3
0	3	3
47	50	2
23	24	6
20	20	10
34	57	1
9	10	1
51	52	2
44	45	2
74	76	4
47	47	4
11	19	2
40	40	3
62	62	5
30	48	2
57	57	6
20	29	2
4	4	17
31	56	8
2	4	5
11	11	5
63	63	1
66	67	3
48	48	7
63	68	2
27	27	12
57	59	3
63	65	1
10	11	6
2	2	6
14	34	1
13	57	6
51	53	3
33	34	3
29	29	4
61	64	4
10	10	6
57	58	5
37	39	6
67	67	7
55	56	4
19	19	3
72	74	3
39	40	3
45	71	2
13	13	10
69	69	2
6	6	4
55	64	2
54	54	2
20	21	2
34	36	2
32	32	7
47	48	1
34	39	3
42	43	5
29	45	2
43	44	4
1	53	3
6	53	4
30	31	4
74	77	1
62	63	1
73	73	6
75	75	4
12	54	3
38	38	2
1	43	2
4	5	8
25	26	3
6	55	4
22	50	2
22	24	1
53	59	2
5	8	1
70	70	8
6	57	1
26	26	3
76	77	1
56	57	1
0	0	3
60	60	1
35	35	1
33	33	2
54	69	1
24	25	1
40	53	1
31	33	1
12	36	1
5	5	1
72	73	1
24	24	6
37	37	1
31	32	2
64	65	1
70	73	1
3	4	2
30	33	1
53	54	1
35	36	2
22	45	1
45	46	1
71	71	1
34	37	1
52	54	5
69	73	2
58	58	4
26	29	1
50	51	1
68	75	1
18	18	1
25	29	1
43	43	3
43	48	1
19	20	1
1	3	1
1	51	1
29	31	3
44	47	1
8	19	1
63	67	3
21	23	1
25	28	2
30	30	2
32	33	1
0	30	1
14	44	2
3	52	1
37	40	1
58	63	1
1	1	2
12	52	1
35	57	1
27	28	1
55	57	1
7	8	1
