151	151	7
111	111	3
34	100	1
97	114	1
162	164	1
2	2	3
100	102	3
13	51	2
113	113	4
14	15	2
139	139	2
5	5	10
125	125	1
140	141	1
63	124	3
115	115	1
104	104	3
3	6	4
114	159	3
163	163	2
39	40	2
81	82	1
12	46	3
20	167	1
110	110	2
37	37	1
47	48	4
136	136	10
80	80	6
1	2	1
124	124	2
9	9	11
43	43	6
86	87	1
52	52	1
115	129	2
126	127	4
13	13	5
34	34	6
162	165	3
120	120	3
66	120	2
38	38	3
130	155	4
27	27	8
141	141	3
78	78	5
56	56	1
1	1	2
100	103	1
15	135	2
54	54	1
137	137	6
66	66	2
128	128	1
44	44	2
0	17	3
88	88	2
113	114	2
57	61	1
12	12	4
65	65	3
47	47	7
116	116	4
160	160	1
21	66	2
39	69	1
100	100	1
74	74	3
8	8	2
156	156	2
14	14	6
33	34	2
68	68	5
76	78	2
46	46	6
4	6	1
101	103	2
99	103	1
90	101	4
138	151	2
3	3	2
51	52	1
42	43	1
4	4	8
81	81	2
142	155	2
18	18	3
53	56	5
56	64	2
19	39	2
55	55	2
100	101	4
118	154	2
111	153	2
20	20	2
62	63	1
169	170	4
167	167	1
112	142	1
37	132	2
79	107	1
159	160	1
82	82	2
127	139	5
67	84	1
10	11	2
44	49	1
106	107	1
77	78	1
40	40	3
62	62	1
105	110	2
48	48	2
7	24	3
121	121	1
123	123	1
22	68	1
130	130	1
96	96	1
57	58	1
3	4	1
6	6	1
131	154	1
48	49	2
142	152	1
122	122	2
44	56	3
50	50	4
107	107	1
84	84	2
169	169	1
138	138	1
26	26	3
20	21	1
10	10	1
21	22	1
18	40	3
84	85	1
164	164	1
97	98	1
131	131	2
98	98	1
83	83	1
97	97	3
134	134	2
53	79	2
57	62	1
108	108	2
88	142	2
129	129	1
24	160	1
94	94	1
133	133	1
7	8	2
153	154	4
93	94	1
144	144	1
127	127	1
75	75	2
0	1	1
93	93	1
139	140	4
161	165	1
89	145	2
52	56	2
53	167	1
126	134	1
12	14	1
0	2	1
42	42	1
35	35	1
9	12	1
114	114	1
45	45	1
90	90	1
156	157	1
73	74	1
24	24	1
92	93	1
9	46	1
