35	36	15
50	50	4
48	49	5
38	38	19
22	22	9
51	53	6
27	49	2
118	120	6
64	64	15
115	118	5
32	32	16
36	36	12
35	47	1
54	118	1
16	18	2
42	42	37
75	77	4
37	37	11
58	58	18
53	53	7
63	63	20
101	101	16
70	70	17
47	47	8
4	4	6
17	17	25
26	34	4
3	5	5
129	129	4
83	84	2
144	144	21
15	24	4
21	21	16
85	85	5
128	128	35
95	95	10
131	134	4
75	78	2
8	19	1
75	75	14
14	25	1
130	130	11
99	100	21
16	134	1
131	142	1
142	142	22
35	74	1
62	69	4
1	1	10
57	57	9
39	43	3
36	75	1
105	106	17
133	133	30
131	132	15
105	105	16
21	22	1
71	72	6
6	6	13
127	131	3
19	19	11
108	135	1
125	125	21
126	126	20
117	118	10
118	118	28
61	63	1
142	144	4
122	122	29
107	139	1
119	119	21
47	51	3
76	78	3
118	121	5
132	139	7
24	24	7
123	124	5
5	5	12
124	125	13
77	79	5
49	49	11
81	81	19
83	87	3
27	28	7
11	11	25
67	69	1
88	92	3
136	140	8
28	28	23
102	102	18
120	120	9
127	128	1
29	29	29
16	16	15
15	16	8
83	85	7
35	73	2
137	138	3
65	65	12
82	83	3
135	141	4
136	139	4
115	116	4
108	133	3
18	23	3
109	141	2
123	123	7
121	133	2
23	23	8
134	134	16
37	38	6
124	124	25
101	115	2
117	117	9
81	82	2
121	137	1
97	98	9
76	90	3
38	43	3
35	35	8
79	80	5
60	60	10
135	135	16
1	2	6
110	137	7
141	141	21
25	25	13
35	86	4
56	56	13
134	140	2
20	20	13
10	10	1
78	78	7
106	112	7
89	89	8
51	51	10
32	33	1
140	141	11
107	141	2
118	119	16
48	48	4
97	97	6
14	16	5
73	73	19
62	62	15
115	115	18
74	74	12
3	4	6
2	2	10
119	120	11
108	132	4
9	9	13
94	97	5
131	138	2
132	132	14
93	93	6
91	91	19
113	113	9
59	60	4
61	64	3
16	25	1
59	59	12
139	139	13
43	43	12
121	121	5
83	83	6
145	145	10
106	107	7
2	4	1
26	127	1
70	73	6
82	82	10
114	114	7
25	43	2
55	55	4
52	119	6
99	99	16
109	110	5
104	105	9
21	30	2
103	103	17
71	74	6
9	14	1
66	66	17
124	142	3
14	14	14
129	130	17
25	42	1
26	31	2
130	132	4
5	24	3
55	56	5
23	24	3
131	143	4
15	15	8
33	33	13
57	117	2
26	26	9
67	68	12
93	97	2
134	135	6
4	23	5
96	96	7
96	97	19
95	97	4
71	71	10
106	106	16
96	102	1
36	56	5
104	117	3
101	103	2
127	132	2
87	87	2
3	3	10
68	68	9
39	40	3
78	79	5
139	140	6
80	81	6
131	131	25
82	97	4
17	18	6
4	24	1
94	94	7
117	123	3
5	10	1
122	123	29
110	110	8
10	11	11
48	51	4
101	141	3
31	31	5
128	130	5
97	99	5
115	117	1
109	139	4
13	13	20
106	118	1
61	61	5
124	129	3
24	25	4
140	140	11
52	55	3
137	137	15
100	100	14
11	21	1
52	52	17
42	48	4
125	135	4
111	111	12
33	37	4
40	40	10
10	37	9
24	26	3
14	15	2
126	135	3
66	67	2
109	109	12
138	143	5
12	12	4
141	142	2
90	91	1
122	131	2
138	141	2
138	138	17
50	52	7
143	144	8
49	50	8
104	140	2
36	37	1
65	66	3
38	40	2
92	92	7
52	53	4
5	6	5
95	133	2
20	24	5
5	23	2
92	94	3
88	88	8
111	146	2
116	117	2
85	90	1
40	43	4
142	143	9
106	125	1
90	90	8
80	80	9
27	128	1
146	146	1
8	8	9
104	104	7
111	117	3
58	84	3
89	90	11
69	69	1
107	123	1
91	96	1
30	36	3
138	139	11
23	26	6
93	98	2
21	40	3
121	122	3
77	77	2
84	85	7
30	30	7
89	91	2
17	27	6
91	92	3
95	118	11
37	75	3
102	110	2
130	131	8
110	120	3
118	132	2
76	76	2
108	109	6
2	6	1
63	65	5
79	79	6
6	19	3
18	18	11
85	106	1
43	49	1
30	32	2
121	131	3
119	138	8
94	95	4
102	116	4
80	82	5
125	130	5
87	111	1
71	85	4
37	39	1
27	27	7
98	102	3
86	86	6
41	41	6
98	99	1
97	114	5
80	90	3
79	90	2
34	35	5
20	21	7
79	89	1
3	33	3
36	70	6
81	92	1
1	5	3
127	129	3
67	77	2
25	26	5
19	20	2
80	86	3
136	138	4
104	106	2
60	80	3
5	9	1
116	116	8
120	121	4
40	41	5
57	118	3
65	71	2
135	139	4
86	111	2
95	99	3
108	108	5
101	102	7
112	112	9
78	81	1
77	80	1
110	111	4
54	54	11
41	43	2
70	72	2
38	39	4
37	74	3
85	137	1
36	62	2
97	110	1
87	89	6
98	98	4
27	30	3
133	135	3
19	40	1
131	133	8
56	84	1
92	93	2
105	114	2
112	115	3
16	17	3
127	133	1
137	139	6
103	104	6
8	14	1
31	36	1
111	112	3
18	19	10
95	102	1
21	37	5
72	73	9
136	137	14
37	63	3
92	96	4
119	135	2
62	79	3
127	130	3
18	25	2
87	91	3
143	143	11
50	55	4
136	136	1
23	31	1
34	68	2
56	120	4
43	47	1
38	47	4
126	130	1
20	23	3
129	134	3
58	101	2
75	76	2
88	90	2
57	58	6
57	99	5
127	127	15
107	107	9
101	116	2
82	87	2
2	10	1
65	84	1
15	132	3
37	42	1
34	34	4
30	78	2
93	104	2
17	134	1
100	117	2
9	10	6
103	108	3
22	29	5
53	120	2
0	0	1
31	32	3
39	39	6
64	65	2
58	59	2
95	106	1
60	88	1
134	143	2
128	140	1
132	133	4
130	134	1
36	76	3
53	54	2
112	114	1
99	102	2
114	115	3
28	29	1
34	75	2
34	36	3
20	22	1
103	109	2
32	68	7
43	50	3
84	84	10
33	70	3
73	75	1
106	113	1
89	92	2
64	68	3
23	30	2
72	72	3
41	54	2
101	144	2
122	138	1
42	52	2
28	49	2
128	139	1
145	146	3
96	110	1
128	129	2
135	136	1
122	139	1
38	48	1
49	60	2
1	38	1
46	74	3
35	76	2
50	51	1
41	42	4
69	70	2
2	55	1
124	133	3
108	131	4
43	72	3
109	137	2
66	88	5
105	112	1
108	134	1
112	117	1
116	119	3
76	79	5
62	87	1
60	61	1
86	87	3
61	73	1
85	119	1
57	86	1
82	85	1
66	71	2
13	14	1
74	77	2
35	50	1
93	94	2
111	113	1
99	101	1
87	88	2
91	122	1
51	55	1
81	100	2
88	89	2
31	68	1
10	21	1
126	127	1
137	140	1
119	130	1
68	70	1
33	68	2
121	129	2
125	146	1
107	135	1
125	129	2
15	26	1
67	67	3
113	114	3
3	39	2
127	134	2
76	77	3
104	114	1
39	41	2
62	66	1
14	41	2
124	128	1
58	100	2
37	41	1
139	141	1
89	94	1
19	27	2
27	131	1
1	20	2
124	136	1
12	13	2
134	144	1
36	42	1
80	100	1
55	57	1
103	105	1
17	19	1
64	67	1
129	143	1
20	35	1
75	79	1
29	30	1
33	69	1
65	67	2
73	74	1
110	114	2
75	137	1
3	55	2
22	23	1
135	140	1
4	5	1
110	115	1
113	115	1
29	129	1
52	54	2
133	139	1
47	75	1
9	12	1
88	91	1
54	57	2
62	63	1
105	109	1
35	63	1
56	57	1
78	83	1
30	66	1
102	144	3
70	74	2
110	138	1
33	36	2
27	48	1
19	22	1
98	100	2
57	85	1
74	75	1
21	24	1
63	67	1
28	59	2
112	113	3
70	71	1
132	136	1
63	64	1
96	99	1
22	28	1
95	110	1
126	128	2
50	84	1
79	91	1
107	108	1
113	118	1
108	136	1
54	120	1
15	17	1
102	111	1
56	64	2
55	64	1
104	110	1
132	134	1
88	93	1
135	146	1
34	50	1
48	50	1
81	98	2
6	10	1
20	31	1
123	139	1
133	137	1
36	69	1
48	75	1
24	31	1
59	143	1
56	59	3
60	72	1
107	114	1
62	77	1
132	144	1
5	12	1
