25	25	1
22	23	4
104	104	3
67	67	5
12	19	3
24	24	6
137	159	4
63	75	3
138	138	5
123	125	1
64	65	4
88	88	5
163	165	6
26	26	9
41	41	3
200	206	7
7	8	3
201	201	8
211	211	3
208	208	2
189	189	1
102	102	4
180	180	4
164	165	11
61	70	2
209	209	1
14	15	3
2	2	1
191	191	5
172	172	3
200	200	7
65	65	2
1	1	8
228	229	6
210	210	2
190	190	5
148	148	1
25	231	1
76	76	2
36	38	2
44	44	5
103	104	5
237	237	8
82	83	1
62	81	2
54	55	2
173	173	7
106	109	7
17	17	2
57	59	5
3	16	4
79	79	5
64	71	4
60	79	4
202	202	4
170	170	5
235	236	2
12	12	7
169	173	5
166	166	2
11	11	4
36	36	10
158	159	2
100	100	8
46	46	9
161	161	4
0	14	1
223	223	3
48	48	5
25	26	2
60	60	2
34	181	1
62	62	3
235	235	5
131	131	4
216	216	6
55	62	4
217	223	1
103	103	2
200	213	2
21	21	9
158	173	2
148	150	2
47	47	7
196	198	4
78	79	3
193	196	2
119	119	6
45	45	1
6	6	4
48	49	5
159	159	4
220	220	3
128	128	2
165	166	4
31	56	3
117	117	3
155	155	3
10	10	5
214	222	1
241	241	1
143	146	3
196	197	1
84	84	2
0	13	1
234	234	2
119	120	1
153	176	4
1	2	3
37	39	3
59	60	6
223	229	1
17	49	3
177	177	8
182	182	1
162	165	3
183	183	2
103	193	2
63	63	1
23	26	2
37	38	1
60	61	6
5	6	2
203	212	3
136	152	1
145	145	1
19	182	1
25	28	1
104	105	5
51	53	2
59	59	4
72	72	5
1	83	2
64	64	3
28	28	3
217	217	2
82	84	6
236	236	5
230	231	3
232	232	2
21	22	2
47	69	2
114	114	3
3	4	3
144	144	4
137	138	2
40	41	5
242	242	3
109	109	1
37	46	1
1	9	2
238	238	2
17	184	7
182	183	3
105	107	6
84	85	1
10	11	1
43	43	1
205	206	1
29	31	1
218	218	2
168	169	3
58	60	2
29	233	1
214	214	1
137	137	1
148	153	2
36	42	4
154	156	2
86	86	2
45	46	5
144	145	1
212	213	1
107	107	7
136	136	6
129	129	3
158	177	3
124	124	3
3	3	3
71	71	4
229	229	2
109	112	3
211	212	1
66	67	2
154	154	2
57	57	4
210	211	3
127	127	2
39	39	4
66	66	3
198	199	2
240	240	3
186	186	2
149	173	1
190	191	3
18	228	2
184	184	1
76	79	3
28	56	1
101	101	2
50	50	5
30	31	2
39	118	2
12	13	2
195	195	3
97	97	1
218	219	1
22	22	5
49	49	1
105	106	2
4	52	1
28	44	3
151	151	1
31	32	3
162	163	3
155	156	1
150	150	1
120	121	2
236	237	5
126	126	1
23	23	2
42	42	2
111	111	1
74	74	3
125	126	4
53	53	2
101	102	2
33	33	2
27	27	2
159	160	8
161	190	2
116	117	1
169	169	1
19	227	1
138	158	1
47	48	1
75	75	4
98	99	2
34	41	1
220	223	1
106	106	1
69	134	1
9	9	1
13	13	1
52	52	2
133	133	5
96	101	1
213	214	1
181	186	2
77	78	1
29	29	1
55	55	3
64	120	1
2	60	1
78	78	2
96	99	1
18	19	1
133	134	1
0	0	1
220	231	2
32	36	1
116	116	1
160	160	4
180	186	4
199	200	2
32	183	2
206	206	2
33	36	1
145	152	1
157	157	1
11	25	1
171	172	1
166	171	1
213	223	1
176	176	1
146	146	1
4	4	1
136	160	1
41	80	1
140	140	1
95	97	1
164	164	1
35	35	1
12	220	1
203	230	1
162	207	1
180	185	1
30	30	1
125	125	1
