53	93	2
41	41	6
26	26	14
100	100	10
60	61	3
29	29	5
106	106	6
83	92	2
62	62	7
47	47	5
61	61	2
58	58	13
40	73	6
76	77	8
83	83	10
58	59	1
31	37	4
37	37	12
62	68	3
80	84	2
65	65	11
64	67	1
22	23	5
101	101	7
88	88	5
99	99	7
52	73	4
56	56	11
88	89	6
77	77	3
50	50	5
54	54	5
111	111	8
108	111	3
33	33	8
113	113	2
71	71	6
78	105	2
38	38	19
37	40	5
46	46	4
51	52	2
90	91	5
39	40	4
28	29	7
73	73	5
102	102	9
100	101	2
66	80	2
67	67	5
108	109	4
94	94	7
104	107	6
79	81	7
85	85	7
55	89	3
99	103	2
70	72	3
114	114	6
71	101	1
107	107	3
24	24	14
28	31	3
70	70	3
96	97	2
97	97	3
98	99	2
41	70	4
75	75	5
68	77	2
91	97	8
64	64	2
68	70	1
61	62	4
45	45	16
31	31	7
96	105	3
74	74	8
103	103	7
26	28	4
107	108	4
49	49	3
22	30	3
63	64	5
76	76	7
68	69	8
66	66	3
110	111	5
105	106	3
62	67	3
53	58	1
105	107	12
46	62	5
75	93	2
38	90	1
106	107	3
98	98	18
59	59	4
50	51	3
102	103	1
47	48	2
48	51	3
84	84	13
72	72	5
32	32	6
44	44	7
82	94	3
43	45	4
87	87	4
91	91	4
103	104	5
92	92	7
82	86	2
21	21	8
55	57	2
101	102	2
43	43	3
33	35	1
40	89	1
73	80	1
23	23	2
40	41	4
21	28	3
105	111	1
74	80	3
96	102	1
105	105	2
89	89	6
31	32	5
59	60	5
36	36	6
68	68	7
41	42	1
49	51	2
89	90	5
78	78	7
96	96	9
56	77	2
49	50	4
48	48	4
95	95	3
77	78	3
46	52	2
38	39	3
22	26	1
30	30	10
98	101	3
43	53	1
110	110	4
79	79	6
75	76	2
51	51	5
108	108	3
50	104	2
43	59	2
85	86	2
57	57	3
28	28	6
22	72	2
45	46	2
19	19	2
42	42	3
84	86	1
55	55	3
82	83	2
76	78	3
65	66	4
22	28	2
82	84	2
48	49	4
39	46	1
85	87	1
54	55	3
53	53	1
80	93	4
82	82	2
59	71	3
77	107	2
25	25	1
69	69	2
70	71	2
20	20	6
35	35	3
104	112	1
39	39	5
34	35	1
43	52	2
52	52	5
83	84	3
80	87	2
43	44	3
84	85	3
23	24	1
73	106	1
112	112	2
81	81	8
99	102	1
23	27	2
38	74	1
95	97	1
20	36	1
97	109	2
26	72	1
57	71	1
104	104	2
55	56	1
31	48	1
64	65	3
42	43	1
22	22	4
62	63	2
93	93	2
25	28	1
64	71	1
44	46	1
107	112	1
84	95	1
52	67	3
104	105	2
72	74	1
103	105	2
111	113	5
38	94	1
90	90	4
36	37	3
70	73	1
35	36	1
34	34	4
81	82	1
23	26	2
73	74	2
109	109	3
95	104	1
109	110	2
86	86	1
39	54	1
80	80	1
109	111	1
75	87	1
38	93	2
51	74	1
43	69	1
34	36	1
79	80	1
