17	18	5
96	96	6
93	94	4
124	124	15
118	118	12
108	108	4
18	18	12
104	118	4
90	98	1
59	60	1
114	116	1
139	139	1
70	70	6
135	138	2
17	17	2
131	131	8
138	138	3
76	109	2
28	29	1
39	41	5
70	132	4
91	95	1
33	35	9
121	121	9
130	130	2
134	134	7
28	28	8
37	41	2
39	40	5
36	59	2
31	31	9
37	37	3
89	89	4
13	13	4
32	32	4
55	56	3
63	63	6
85	118	1
140	140	9
67	67	5
40	41	6
27	27	9
105	106	7
127	127	4
60	60	4
66	66	3
88	126	2
132	134	4
66	67	3
87	104	2
19	19	7
62	62	5
41	42	1
124	126	5
121	122	2
67	68	3
48	48	1
95	95	6
79	79	3
40	40	5
122	122	2
90	122	9
68	106	1
100	100	5
143	143	4
123	123	10
2	3	1
136	136	15
96	97	2
101	103	2
125	125	5
129	129	7
9	126	2
56	79	5
2	34	1
48	90	1
15	16	2
68	68	2
88	89	3
98	140	1
22	22	1
35	36	1
27	28	1
117	117	1
47	49	2
123	124	1
102	104	4
47	47	4
73	106	1
101	101	6
10	10	4
33	34	1
25	33	2
16	16	4
4	4	2
1	12	1
28	30	2
36	36	5
88	117	2
1	1	1
49	50	3
74	97	2
11	11	5
22	25	1
91	91	1
42	43	2
77	118	3
33	36	1
80	80	4
113	113	1
3	5	3
57	57	5
92	92	1
49	93	1
73	74	2
54	133	4
12	16	1
90	90	5
69	71	2
145	145	3
23	23	6
81	81	1
85	86	2
24	24	8
83	84	4
128	128	4
9	9	3
98	98	5
116	118	1
79	124	2
86	117	1
135	135	2
142	142	4
41	41	2
61	61	6
26	26	1
21	21	1
93	93	2
140	141	4
119	119	5
107	108	3
104	104	3
27	32	2
34	34	1
39	39	1
67	104	2
71	71	3
66	104	4
25	28	3
58	58	2
128	131	1
36	37	2
82	83	2
79	126	1
0	5	2
14	18	1
104	105	2
84	85	3
0	0	2
72	74	1
113	122	2
30	30	2
85	85	2
117	126	2
124	144	1
144	144	6
32	33	1
115	115	4
109	109	2
36	40	2
58	65	2
58	60	1
38	38	3
90	134	1
87	97	1
6	6	3
104	120	2
114	114	6
126	126	3
71	72	1
64	64	1
105	105	4
141	141	3
78	78	3
73	73	3
76	118	1
42	42	1
13	15	1
35	35	1
74	74	1
74	105	1
94	96	1
97	98	2
3	48	2
131	132	1
56	66	3
60	64	1
17	19	2
1	2	1
121	124	3
1	21	3
127	129	1
94	95	3
95	97	1
124	129	4
94	130	1
75	76	3
20	20	3
2	11	1
126	127	3
122	123	6
75	75	3
103	103	4
58	59	2
26	27	1
88	92	2
82	84	1
140	143	1
104	140	1
76	76	2
69	98	1
134	135	3
142	143	1
127	142	1
115	116	1
133	134	1
8	19	1
56	56	4
107	107	2
38	39	1
29	29	2
95	96	1
24	25	1
137	138	2
59	59	1
111	122	2
137	137	3
73	75	1
15	15	3
114	124	1
110	110	1
85	97	1
60	61	2
103	104	2
0	1	1
49	49	1
128	129	1
0	15	1
120	120	1
8	8	2
53	65	1
127	135	1
137	139	1
53	53	1
54	56	1
42	48	1
96	131	1
133	138	1
52	53	2
133	133	3
61	62	1
47	51	1
113	114	1
104	106	1
106	106	1
109	110	1
99	100	1
