33	33	11
56	56	16
85	86	11
103	104	5
32	70	1
17	28	3
105	105	7
11	11	33
34	36	9
73	73	20
75	75	19
100	100	11
40	42	4
47	47	35
6	6	22
84	101	2
113	113	7
4	7	4
35	36	2
96	114	2
57	57	28
71	71	23
35	35	14
60	60	19
10	88	2
48	94	6
106	107	11
68	68	31
76	117	2
62	62	21
55	59	4
69	69	7
106	106	23
67	74	5
102	102	10
94	95	12
72	72	19
114	114	12
61	61	10
94	94	15
18	18	15
27	27	30
2	2	6
79	79	17
28	28	12
4	65	2
98	99	12
121	133	2
59	64	1
25	25	11
75	122	5
15	99	4
26	26	21
4	94	3
20	20	18
16	16	10
28	49	2
31	32	6
116	116	5
38	42	1
70	70	17
10	11	5
123	129	5
76	76	23
127	127	18
2	32	3
75	76	1
118	118	11
23	23	19
63	64	12
132	133	23
30	33	4
43	43	11
12	12	19
32	32	6
85	85	14
47	64	1
76	77	11
98	100	8
129	129	15
4	5	11
86	86	12
78	79	12
24	24	12
44	44	11
27	28	4
57	61	2
90	90	14
67	67	16
65	65	15
34	34	20
76	116	3
131	132	5
34	78	6
115	133	3
128	131	2
17	18	15
95	95	21
45	45	19
32	33	8
93	93	40
105	107	2
64	64	9
119	119	7
8	8	12
96	102	2
96	96	14
97	97	19
29	60	5
45	60	6
79	109	2
110	113	2
22	22	10
10	10	22
26	30	1
101	102	9
19	19	15
107	107	3
74	76	7
40	40	8
59	59	13
77	81	6
132	132	4
45	63	2
104	108	1
11	26	2
79	80	12
68	69	6
19	83	2
121	129	3
46	46	13
77	77	8
73	74	12
3	3	14
108	108	9
95	96	3
30	32	3
13	13	12
33	43	3
5	5	9
104	104	3
41	41	8
74	74	8
34	35	5
117	118	4
33	34	7
116	123	3
88	111	5
87	88	5
117	117	14
83	83	14
59	90	2
12	79	4
50	55	3
48	98	2
13	14	3
39	39	5
8	35	4
29	48	2
27	77	3
126	127	6
112	112	16
37	37	6
77	124	4
45	70	2
101	101	9
5	95	6
15	16	3
115	115	5
6	75	3
40	55	3
81	81	16
61	65	4
82	107	3
3	32	1
87	87	4
57	62	7
48	48	8
113	114	7
8	12	3
93	98	1
34	119	2
124	124	9
29	29	17
107	108	3
66	66	19
21	21	19
46	47	5
27	29	7
56	57	1
12	61	2
14	14	17
91	91	8
84	84	12
6	83	4
131	131	6
36	36	5
71	77	1
13	46	5
130	130	5
59	95	2
9	9	21
108	111	3
39	40	8
24	25	5
126	126	6
25	80	4
0	10	3
7	11	3
45	94	5
7	94	4
57	100	3
66	68	2
44	60	4
25	29	3
77	78	6
73	75	2
43	58	4
28	29	3
40	41	6
86	99	7
7	96	3
78	80	3
25	27	2
10	14	1
124	125	5
70	71	9
29	33	2
30	31	1
78	78	13
62	72	5
81	82	2
109	124	2
34	49	2
89	92	2
77	79	3
55	55	10
122	122	9
40	58	3
90	93	3
96	97	8
111	111	4
119	127	1
46	62	3
21	60	2
47	48	4
24	31	5
96	98	3
81	107	1
25	82	1
85	87	5
15	22	1
97	100	5
101	116	3
96	101	3
56	59	4
92	92	7
80	80	13
91	92	7
128	128	20
121	121	4
26	33	1
71	72	5
72	74	1
67	69	2
99	100	2
82	82	3
110	110	4
74	75	11
21	22	4
39	81	1
108	112	2
98	101	3
17	17	8
90	91	5
95	97	2
6	15	4
25	26	3
100	125	3
125	125	9
12	15	3
45	73	4
41	43	3
120	121	3
20	37	2
66	67	8
42	44	3
45	62	1
123	123	6
89	94	3
20	30	1
11	36	6
121	122	3
23	26	4
107	115	8
63	63	11
16	58	3
20	21	7
69	70	6
24	74	3
43	48	5
3	94	2
114	128	3
130	131	3
7	7	6
11	12	2
44	122	2
117	125	3
11	93	2
15	18	2
58	58	4
62	63	1
99	99	7
7	14	4
6	11	4
31	31	4
96	99	2
15	15	11
120	120	8
11	15	2
103	103	3
89	90	1
104	105	7
11	47	1
134	134	5
109	109	5
4	4	6
42	43	4
5	97	1
81	104	3
43	45	4
89	91	3
33	121	2
31	41	1
116	125	2
10	85	3
16	103	5
90	92	5
127	131	5
131	134	4
26	93	3
102	104	3
41	42	5
19	56	1
61	74	1
24	26	6
97	102	2
47	63	2
10	12	2
98	98	2
118	123	1
94	97	2
61	75	4
9	10	3
32	43	2
84	85	4
13	72	3
29	61	3
116	117	3
15	56	1
36	37	2
10	63	1
18	60	1
6	7	3
133	134	1
43	49	3
9	63	3
15	19	1
62	66	1
39	42	1
7	8	1
32	81	1
116	124	1
25	78	2
30	30	13
89	89	3
25	44	2
23	24	2
43	44	3
88	88	2
114	116	1
39	55	5
114	127	1
49	49	1
32	80	1
117	134	1
28	80	2
93	100	3
93	94	3
9	35	4
28	94	1
110	116	2
70	79	1
70	82	3
46	96	1
58	59	2
45	46	5
33	123	3
92	103	3
33	39	2
83	93	1
28	91	1
108	113	2
48	62	1
78	82	1
37	42	2
42	42	4
97	98	1
26	27	1
11	74	2
126	128	2
27	32	4
24	83	2
105	106	2
86	108	2
44	45	3
55	56	3
8	47	5
103	105	1
93	95	7
94	96	1
68	79	1
50	50	3
19	21	2
3	28	2
65	66	3
0	28	1
62	64	2
114	130	1
40	43	2
92	93	2
16	31	1
7	13	2
5	6	3
82	102	3
66	73	1
45	49	2
78	87	3
125	126	1
94	99	1
120	122	2
111	115	1
8	104	1
133	133	1
100	113	2
21	36	2
21	23	1
27	101	1
114	132	2
1	1	2
94	98	1
72	73	2
15	60	1
10	13	2
86	104	1
58	100	1
33	37	1
14	16	2
32	48	3
12	75	2
82	108	1
58	61	2
13	15	2
81	83	1
10	19	1
39	100	1
112	113	3
97	113	2
13	43	2
75	77	2
109	110	2
16	17	2
114	115	2
66	71	2
110	111	1
8	46	1
45	56	1
78	85	1
6	31	1
80	81	2
127	130	1
34	47	1
9	126	1
11	88	2
21	115	3
13	20	1
80	119	2
2	3	1
112	124	2
59	60	2
18	61	1
15	58	1
19	20	2
1	2	4
115	116	1
26	79	1
109	111	1
108	109	1
10	87	1
22	26	1
83	85	2
30	42	1
118	120	1
85	92	1
116	134	1
66	85	1
34	81	1
12	32	1
27	31	1
64	68	1
17	21	2
122	134	1
131	133	1
72	77	1
83	98	1
6	63	1
32	134	1
4	95	1
60	61	1
58	62	1
38	43	1
24	79	2
28	31	1
19	46	1
90	96	1
7	31	1
21	87	1
5	94	1
70	96	2
81	106	1
38	41	1
16	100	1
77	82	1
10	82	1
36	76	1
95	101	1
114	125	1
63	75	1
59	99	1
0	0	1
29	36	1
83	101	1
8	9	1
