65	65	18
39	39	18
50	50	14
54	54	21
86	87	10
64	64	10
90	92	2
35	38	2
42	44	1
76	83	1
47	47	15
45	46	6
42	42	15
54	55	9
48	48	13
87	88	7
27	27	13
94	95	14
33	34	7
70	72	5
44	46	5
70	74	3
83	83	14
37	37	4
102	102	3
66	66	13
44	44	21
29	29	3
25	25	16
82	82	8
96	96	11
40	40	21
73	73	20
69	69	22
62	62	21
67	67	21
35	35	4
52	89	2
63	63	22
81	82	9
70	70	20
100	100	13
25	67	7
25	28	3
88	88	27
68	70	3
52	99	2
48	57	2
47	48	8
87	94	2
68	69	9
57	57	11
97	97	23
93	98	2
59	59	19
33	36	2
89	89	18
49	49	19
74	75	6
52	52	25
45	45	18
75	75	7
43	43	15
58	58	16
81	83	2
49	50	7
87	87	13
44	45	6
61	61	19
33	70	2
92	94	5
81	81	4
85	85	14
53	53	14
91	91	10
88	89	6
52	59	1
61	62	5
82	84	2
101	101	11
76	76	9
79	80	14
48	50	7
73	74	8
67	68	13
70	71	5
78	78	16
72	72	17
60	60	25
33	33	23
95	96	1
99	100	5
56	56	11
79	79	9
46	46	12
99	99	16
68	68	15
101	102	5
77	78	6
86	88	10
22	23	5
86	86	11
62	63	11
94	94	16
50	51	4
51	52	4
89	93	3
34	34	7
58	59	3
33	51	1
53	56	5
74	74	10
93	93	20
90	91	8
32	45	1
51	64	2
76	77	7
95	95	19
30	68	3
90	90	15
24	24	8
31	68	1
37	70	5
23	24	4
40	41	6
36	36	8
38	38	21
41	41	26
72	74	5
24	25	3
37	38	1
35	36	2
53	54	5
48	51	1
94	98	8
36	37	11
57	59	2
97	98	7
35	37	7
80	87	1
48	75	3
23	25	7
92	96	2
77	83	1
98	98	7
96	97	6
51	51	12
64	95	3
31	31	7
80	94	3
63	64	9
91	92	9
28	29	2
46	57	4
88	92	3
30	30	2
53	55	5
85	86	6
51	69	1
55	58	4
55	56	5
58	60	3
46	47	7
44	60	1
43	57	4
50	91	1
71	71	15
65	72	2
79	93	5
73	81	2
87	89	6
47	57	2
93	94	3
20	23	2
95	98	2
87	92	2
52	57	1
79	90	1
85	92	3
45	51	9
66	67	6
95	97	4
47	49	5
77	80	1
34	51	3
72	73	2
42	45	2
48	49	4
28	36	1
77	77	15
32	32	4
23	23	6
31	32	1
84	84	7
66	68	1
79	85	1
92	92	9
85	89	3
25	30	1
55	55	8
42	43	1
26	26	3
80	80	14
83	87	2
89	90	3
65	66	8
82	83	1
57	58	3
35	39	1
22	22	3
69	71	3
81	84	1
41	75	1
80	81	8
20	24	1
20	20	1
47	88	2
63	71	1
29	31	1
92	93	3
67	77	1
88	97	1
32	90	1
45	48	5
78	79	2
39	40	3
59	63	2
45	52	1
87	90	1
52	54	2
83	84	4
41	50	3
42	58	1
28	28	1
69	70	1
49	51	2
65	67	1
52	53	3
32	33	3
38	39	1
99	101	4
83	96	1
57	63	1
44	57	2
91	93	1
52	93	1
84	91	1
29	30	2
33	38	3
33	50	1
72	78	1
84	86	3
26	28	1
28	30	1
71	72	1
67	69	2
20	22	1
51	63	4
65	68	1
46	48	2
84	87	1
47	70	1
79	81	1
98	99	2
96	99	2
96	98	3
64	65	3
82	100	6
58	97	1
34	35	2
47	58	1
39	41	2
34	46	2
41	42	2
33	35	2
81	100	2
35	70	1
64	71	1
26	27	1
52	61	2
71	74	1
27	29	2
42	46	1
86	95	1
88	90	2
88	94	1
81	101	1
43	59	1
42	60	3
60	62	2
95	99	1
98	101	1
97	101	1
90	94	1
64	72	1
88	98	1
55	57	1
60	61	2
34	40	2
84	102	1
47	51	1
24	27	1
90	93	1
83	85	1
25	26	1
89	91	2
99	102	1
84	93	1
29	64	1
89	92	1
100	101	2
90	99	1
58	95	1
98	100	1
67	79	1
87	98	1
79	89	1
36	38	1
46	70	1
37	44	1
96	101	1
