13	30	1
98	100	4
42	43	2
99	100	2
126	126	4
15	15	3
40	96	1
73	76	2
19	34	3
60	60	4
41	42	3
69	93	3
44	44	4
29	29	2
123	123	1
56	56	1
115	125	2
44	45	3
104	129	6
21	21	1
24	25	3
102	107	2
47	47	3
113	116	3
1	1	2
27	27	4
110	110	3
70	70	3
94	95	4
38	38	2
9	9	2
98	99	1
76	80	2
77	77	4
125	127	4
80	81	2
10	10	3
53	53	8
60	61	1
78	78	1
25	26	4
49	49	5
85	85	3
23	23	1
120	120	4
86	87	4
55	55	5
88	88	3
25	46	3
5	24	4
65	65	1
8	26	2
69	69	1
92	92	2
26	26	6
57	58	2
84	85	1
3	4	3
120	122	4
104	104	5
7	7	3
58	58	5
6	7	1
48	48	17
113	113	4
112	132	1
76	76	3
50	110	1
5	5	2
64	64	3
84	84	3
128	130	4
33	33	4
101	102	2
125	131	4
103	104	1
123	124	1
125	128	2
54	54	3
10	11	3
105	105	1
37	73	1
115	115	2
2	73	2
98	98	3
19	74	4
130	131	1
129	129	2
12	12	4
22	23	3
16	18	2
96	97	1
118	119	2
106	107	2
107	110	1
79	80	2
31	31	1
66	89	3
18	18	1
113	114	1
50	50	2
23	47	2
34	39	3
46	46	2
86	86	3
0	63	2
62	62	1
51	51	1
72	75	2
40	40	3
58	59	2
19	21	2
57	59	4
87	88	1
33	34	1
83	83	2
129	130	1
114	114	1
0	0	2
51	121	1
24	24	5
26	75	1
130	130	6
91	91	4
44	81	2
89	90	2
42	96	1
6	6	1
11	12	1
97	98	3
42	97	2
82	82	1
28	28	2
112	113	3
42	42	1
58	62	1
72	77	1
108	108	2
68	68	2
118	118	2
32	32	2
103	129	1
109	109	2
79	79	1
14	14	2
8	9	1
107	108	1
61	61	1
120	121	1
95	98	1
19	20	2
59	60	2
51	52	1
96	98	1
65	66	1
97	97	1
116	116	2
50	51	1
112	112	2
90	90	1
18	22	2
16	16	1
106	109	1
2	3	1
131	131	1
52	53	1
121	121	2
22	22	1
74	77	1
27	28	1
66	66	1
45	45	1
71	71	2
83	85	2
75	75	1
128	129	2
131	132	1
7	15	2
45	62	1
59	59	1
110	111	1
95	95	1
107	107	1
42	44	1
20	20	1
89	89	1
125	125	1
122	122	1
117	117	1
47	48	1
1	60	1
