98	98	1
94	94	7
114	114	4
75	75	4
45	45	11
40	41	5
42	42	8
107	108	2
49	49	4
74	89	2
48	48	9
19	20	3
104	104	1
35	35	7
59	59	5
33	35	1
44	44	1
95	95	7
107	107	6
57	60	3
68	68	5
44	52	2
85	85	17
52	52	8
59	60	10
56	57	1
87	89	1
83	83	2
65	65	9
25	25	5
56	87	4
69	69	8
79	84	3
59	68	4
74	75	3
32	32	8
103	103	6
26	26	4
102	102	6
60	60	6
76	77	4
19	26	3
47	47	11
106	106	5
30	30	6
65	67	3
80	80	4
37	38	4
71	102	2
27	27	4
53	99	1
46	51	6
68	69	6
59	62	1
56	56	7
67	67	2
23	23	2
40	43	2
78	107	2
92	92	6
72	73	4
40	44	3
66	66	3
47	48	1
35	41	1
61	61	2
74	74	8
85	86	1
102	105	2
81	81	4
56	70	2
68	91	4
66	67	2
71	71	4
54	54	3
111	111	11
82	84	4
77	77	8
100	100	3
70	100	1
89	98	3
95	96	5
43	45	5
57	58	2
108	109	2
100	102	4
89	91	4
89	93	3
82	103	1
97	97	6
106	107	3
73	74	5
28	62	2
73	73	6
63	63	5
96	97	1
89	89	5
78	78	5
30	32	4
29	29	3
57	59	1
82	85	4
75	105	3
62	62	4
34	35	5
41	56	1
84	109	2
58	58	2
42	74	1
108	108	1
37	90	1
27	31	1
36	37	1
39	39	9
71	72	2
46	50	3
53	55	2
50	50	1
93	93	2
58	101	3
92	93	1
22	23	3
77	78	1
100	103	2
68	87	3
83	109	3
54	57	1
21	49	3
105	105	4
73	100	2
39	58	2
54	102	4
34	34	1
88	88	2
104	106	2
61	68	4
53	98	1
76	76	3
61	69	1
35	36	2
99	99	2
86	86	1
79	79	1
57	57	1
32	37	1
78	104	3
43	43	4
53	87	1
110	110	1
36	93	2
39	59	3
37	37	3
112	112	1
21	21	3
19	55	1
99	100	1
38	39	2
64	66	3
96	96	1
54	75	1
31	31	1
109	110	3
77	79	1
20	20	2
24	69	1
50	51	2
39	40	1
61	63	1
113	113	1
60	103	1
25	26	1
32	46	1
56	61	1
19	19	2
81	105	2
37	76	1
22	53	1
84	84	1
51	51	1
61	75	1
70	103	2
72	99	2
83	84	1
71	100	1
32	51	1
24	24	2
19	23	1
93	98	1
44	67	2
41	43	1
46	96	1
24	35	1
35	45	1
33	38	3
40	40	1
35	38	2
82	82	3
51	52	1
100	101	2
33	33	2
54	55	1
