20	20	15
80	82	2
7	7	13
100	100	20
126	126	17
37	37	9
47	47	8
81	84	7
191	206	2
192	205	7
203	203	13
1	17	2
15	16	8
150	150	3
71	72	6
49	50	7
239	239	9
160	160	6
58	59	1
207	214	5
24	24	7
107	125	2
105	105	5
23	140	1
164	164	1
64	86	1
175	175	4
238	238	13
137	138	2
95	101	4
155	156	7
60	68	3
191	205	6
32	32	12
50	224	2
202	230	4
69	69	18
167	168	6
67	69	3
153	153	3
172	172	16
34	34	5
49	79	3
67	82	1
134	134	7
113	113	13
96	96	5
65	65	13
46	139	4
19	34	5
209	210	4
3	16	1
50	53	6
40	40	9
125	126	5
17	17	10
214	216	14
78	78	8
198	198	5
152	152	1
49	49	6
134	173	2
46	46	15
64	65	3
2	3	10
144	144	7
48	53	3
82	82	9
41	181	6
86	86	8
84	84	12
205	205	13
10	11	3
228	228	3
192	192	8
160	172	1
120	120	4
170	170	5
38	43	1
159	159	6
24	26	4
53	72	2
121	122	2
34	85	2
36	37	8
5	6	5
40	41	9
22	23	1
114	133	1
146	146	3
13	13	11
27	27	21
185	186	7
162	163	3
103	118	14
118	118	7
184	184	5
23	48	1
181	181	8
48	48	17
45	135	9
83	83	10
107	108	12
192	200	2
11	11	7
192	193	6
109	110	6
108	108	7
47	157	1
209	215	5
6	6	10
98	99	1
59	59	10
229	229	9
55	55	6
53	53	10
187	187	5
113	130	2
171	171	8
71	71	15
242	242	21
72	73	2
50	51	7
58	75	3
66	66	6
179	180	7
8	8	21
101	103	1
17	41	1
65	102	3
177	177	12
185	185	15
58	58	4
103	106	1
174	174	8
178	238	2
115	123	5
154	154	7
225	225	13
8	39	3
186	186	8
99	99	13
237	238	3
14	14	12
74	74	8
141	142	2
26	26	2
0	0	8
64	64	5
173	173	7
115	115	11
40	181	2
5	49	2
39	39	13
18	18	6
3	32	2
179	186	3
128	128	9
43	231	4
139	169	2
186	187	4
202	202	9
163	163	7
48	52	4
4	35	5
107	107	4
42	42	5
10	10	10
21	22	3
164	166	2
123	125	3
215	215	13
32	33	2
196	196	2
219	219	4
15	15	11
201	201	6
207	207	9
235	235	13
214	215	6
114	124	2
206	221	5
11	36	6
124	125	3
9	19	3
151	151	11
96	107	2
53	225	1
82	83	5
45	139	5
203	216	2
60	60	13
6	14	1
156	157	9
216	216	7
81	81	7
166	239	3
68	72	3
38	38	2
2	13	5
9	9	15
110	114	1
28	28	13
179	179	4
33	33	4
202	239	3
51	51	14
12	13	4
106	115	3
157	157	9
57	57	4
208	208	11
207	208	7
3	29	3
119	119	7
127	160	7
65	99	3
21	21	12
1	2	5
119	171	9
18	19	9
13	16	3
43	43	2
63	81	3
31	41	1
67	67	14
25	25	17
5	5	5
118	119	2
101	101	9
206	206	6
136	182	1
39	182	1
101	105	3
191	192	6
45	45	8
127	127	8
165	166	7
73	80	3
23	23	5
168	168	5
224	224	4
63	64	1
62	83	2
180	207	5
217	218	3
112	112	4
223	228	1
240	240	5
56	57	3
20	21	5
197	197	6
237	237	4
74	121	1
4	42	2
240	241	2
24	219	1
75	97	2
16	17	3
140	140	5
152	154	5
3	11	2
89	91	1
80	80	4
25	26	3
56	56	7
5	13	2
4	14	1
73	84	1
165	165	11
194	194	3
75	130	1
236	236	4
179	182	4
85	86	7
224	228	3
19	20	5
85	85	11
103	103	8
238	239	10
6	16	1
183	188	4
149	150	4
20	25	4
155	176	1
61	102	1
18	50	2
27	233	1
25	47	4
26	27	3
171	172	6
102	102	5
191	191	6
131	131	2
0	1	2
61	61	10
174	226	1
14	16	2
59	61	2
101	102	4
182	182	7
16	48	2
3	3	3
103	104	7
31	31	7
134	145	2
180	180	1
193	193	5
184	189	1
212	213	3
117	123	5
127	162	8
121	121	3
16	16	6
199	199	7
204	204	11
14	49	4
0	43	3
7	8	4
134	149	7
162	162	9
200	201	1
126	167	5
110	193	2
23	143	2
55	120	2
139	140	2
81	82	3
229	230	2
105	106	3
39	67	3
111	111	2
190	195	1
223	230	2
220	220	6
218	218	15
79	79	4
233	233	4
51	52	2
7	18	3
45	46	2
108	127	5
47	48	2
164	169	3
122	122	4
3	4	1
57	69	3
54	54	12
116	116	3
195	195	2
38	39	1
153	154	2
210	210	6
198	199	4
9	42	1
147	147	4
98	98	5
18	34	3
204	206	7
106	106	1
29	29	12
123	123	5
5	39	2
12	40	3
52	52	6
14	39	4
12	12	12
2	5	1
114	114	4
17	39	2
213	213	6
62	62	5
200	200	6
195	224	4
194	221	2
232	233	3
117	117	1
178	178	6
156	185	1
217	217	18
174	236	1
140	141	3
11	26	3
57	58	1
30	30	5
47	218	4
205	206	2
52	225	6
59	84	3
105	123	2
20	23	2
78	79	2
156	159	2
125	125	12
221	221	3
168	169	3
142	142	6
162	177	2
235	236	4
181	182	3
88	88	3
22	49	2
56	70	4
97	113	2
226	226	7
33	36	3
43	44	4
76	80	2
176	186	4
176	176	4
41	81	1
194	195	4
232	232	3
241	241	7
68	68	2
67	145	1
108	143	2
139	164	4
14	36	1
17	49	3
144	145	1
188	221	1
64	87	3
2	2	5
8	12	3
228	230	2
105	126	2
75	85	1
153	178	1
134	139	3
231	231	7
161	173	1
33	40	1
14	17	6
75	75	3
97	132	1
190	201	3
106	114	5
149	169	3
141	141	2
34	36	3
58	61	4
77	108	3
135	135	4
164	167	3
212	214	5
131	143	4
145	146	1
65	149	2
128	144	4
70	70	2
108	147	1
64	110	1
65	86	3
230	230	4
95	105	1
209	211	1
116	117	2
190	191	5
157	174	1
19	19	10
50	50	11
30	203	2
11	12	1
72	75	1
185	187	7
112	133	1
70	76	2
176	177	4
2	31	2
124	124	2
12	15	2
116	126	5
198	205	3
6	7	1
124	163	3
65	109	1
113	114	1
161	161	7
16	68	4
147	149	4
36	40	2
47	134	1
225	230	4
83	85	2
60	61	1
4	4	4
10	26	2
45	73	1
217	220	3
117	118	2
9	29	4
80	81	5
136	179	1
195	196	1
158	158	8
199	227	1
164	165	1
102	103	1
167	167	2
24	114	3
72	72	4
156	156	3
189	200	3
80	83	2
11	217	3
13	19	2
205	208	1
133	134	1
97	97	4
13	35	2
99	100	3
143	143	5
57	68	2
155	159	3
205	224	3
67	226	1
166	166	3
19	23	1
152	153	1
60	120	2
159	161	1
109	151	1
117	170	3
4	40	2
37	64	1
223	229	1
143	146	1
24	46	1
129	130	2
212	212	2
189	201	3
27	28	2
28	29	1
55	115	1
89	89	2
112	131	3
189	190	4
193	194	3
68	69	6
183	239	1
26	29	2
154	155	3
31	36	5
77	77	4
40	138	3
133	139	2
149	154	2
63	63	1
73	73	7
130	130	6
59	60	4
82	84	2
52	53	3
45	164	1
46	233	1
35	35	1
126	143	1
76	77	4
104	104	4
232	240	2
225	227	1
7	14	1
227	227	3
120	121	1
61	88	3
14	84	1
72	74	3
134	148	2
62	66	2
205	209	1
13	31	1
148	148	3
188	188	1
226	227	4
79	80	1
0	2	1
29	30	3
160	165	1
39	83	1
119	121	1
202	240	2
236	238	1
69	70	4
137	139	1
74	75	2
144	146	2
131	133	1
209	209	4
147	152	1
134	143	1
33	37	4
151	166	1
110	110	3
150	162	1
127	143	1
44	165	1
174	175	2
158	185	2
70	113	1
136	136	1
71	102	1
38	44	1
21	23	2
67	173	2
39	76	1
50	56	2
116	127	1
25	69	2
24	40	2
224	230	1
24	25	2
46	47	2
50	52	1
233	241	1
137	137	1
116	118	2
183	183	2
28	203	1
87	87	2
81	88	2
145	145	1
3	14	2
211	211	2
44	44	4
230	240	2
5	14	3
223	223	2
12	20	1
105	125	1
58	123	1
75	77	1
234	236	1
67	143	1
33	202	1
37	225	2
124	127	1
175	178	1
204	208	2
115	129	2
121	128	1
36	91	2
8	11	2
62	103	2
52	78	1
155	169	1
143	165	2
2	42	1
153	160	4
214	214	1
102	111	1
84	85	1
95	95	1
169	169	1
220	222	1
50	223	2
69	74	2
25	33	2
73	83	1
126	127	1
6	41	1
136	170	2
101	104	1
210	211	1
20	49	1
23	34	1
99	102	1
206	207	2
172	173	1
190	190	2
210	213	1
180	182	1
1	1	1
50	75	1
149	149	1
170	240	2
175	236	1
52	75	1
176	179	1
48	224	1
47	55	2
91	103	1
49	95	1
36	36	2
157	159	2
88	99	1
145	151	1
139	142	1
10	217	1
56	67	1
6	36	1
32	141	1
61	62	1
115	117	1
63	173	1
160	175	1
106	129	1
53	54	1
150	152	1
17	48	1
3	42	1
109	109	1
95	106	1
42	43	1
138	140	1
77	130	1
