3	3	9
45	58	3
60	60	8
48	48	14
77	77	8
21	50	2
78	78	11
33	33	5
59	59	10
34	65	2
49	52	3
1	1	11
61	61	5
68	68	17
34	34	6
13	14	2
56	56	19
57	58	9
54	54	12
21	21	7
58	58	13
30	77	3
9	75	2
25	25	6
55	55	16
41	41	17
58	61	1
40	40	10
14	14	4
27	59	3
73	73	16
28	28	20
51	51	10
8	8	15
80	80	7
38	38	13
76	76	15
5	6	9
49	49	14
42	42	8
53	53	18
10	10	6
32	49	1
55	56	1
71	75	2
10	11	5
35	48	2
67	68	10
12	12	9
32	33	7
59	61	8
72	72	12
5	5	7
50	64	2
29	29	6
18	19	2
2	2	11
69	69	8
16	16	5
17	17	10
13	13	2
53	54	1
74	78	4
63	65	3
19	19	6
8	53	4
7	8	4
9	10	4
47	47	11
4	4	9
30	30	8
15	15	6
18	18	1
37	37	12
16	20	1
3	6	6
31	32	4
9	69	3
3	5	2
41	54	2
36	59	3
36	36	2
43	43	4
7	7	2
6	7	4
62	62	2
33	64	1
66	66	3
31	31	13
11	14	5
70	70	7
51	52	14
51	64	1
68	70	5
74	74	5
25	32	5
50	50	3
45	45	7
47	48	3
13	30	5
25	64	2
65	65	7
20	21	4
15	42	1
10	32	1
52	52	10
29	64	1
11	12	2
8	67	3
26	30	5
58	59	5
53	72	3
26	26	12
63	69	3
45	56	3
19	20	2
36	37	4
75	77	3
46	46	7
9	9	9
64	66	3
41	46	1
55	73	2
58	62	2
26	57	1
17	21	2
49	62	1
56	72	2
48	53	1
34	42	1
50	52	3
49	50	7
57	57	6
67	67	4
42	43	1
79	79	4
6	12	1
28	53	7
16	42	2
10	52	1
64	67	2
27	27	9
39	39	7
11	11	6
41	42	2
35	35	4
72	78	5
33	65	3
30	31	2
79	80	1
35	59	1
20	74	3
56	75	3
75	75	3
71	71	6
70	71	5
35	56	1
12	31	5
1	16	2
64	65	4
0	0	1
1	2	1
66	70	2
78	79	1
13	70	3
33	50	1
26	79	1
62	66	1
6	6	8
8	13	3
12	51	3
56	57	2
33	53	1
5	18	2
47	53	1
21	51	2
46	47	2
0	1	2
11	13	2
1	5	5
20	20	2
8	9	3
30	34	1
6	75	1
13	31	1
75	76	3
55	62	2
34	53	2
40	43	1
53	71	1
64	64	3
10	14	3
36	42	2
62	63	1
15	71	2
29	30	2
32	51	1
63	63	2
47	54	1
1	60	1
54	55	2
60	61	2
15	62	1
41	49	2
25	30	3
64	74	1
3	8	2
32	32	1
28	41	2
49	51	1
27	44	2
3	75	2
8	34	1
21	34	1
35	49	1
59	62	1
6	8	1
15	63	1
80	81	1
18	79	1
6	14	1
13	32	2
37	77	1
14	21	1
