4	4	18
128	128	19
139	139	4
71	113	2
80	81	2
13	14	6
129	130	5
103	103	7
76	80	4
133	133	14
8	8	9
126	128	3
88	89	5
140	140	4
32	32	10
73	75	4
117	124	5
79	106	2
110	111	4
0	2	6
93	93	6
8	11	3
102	102	3
127	128	5
120	122	5
75	76	5
15	15	6
71	73	7
120	120	6
123	123	11
101	101	4
94	95	4
111	111	11
27	27	11
31	32	5
125	126	3
121	121	12
28	29	7
130	130	15
23	25	1
16	16	6
91	91	3
81	81	12
14	14	12
33	33	7
128	129	3
36	36	7
23	24	5
109	121	2
17	18	17
15	33	5
6	6	5
81	82	5
82	94	6
108	110	5
137	138	6
131	131	4
0	1	5
106	106	7
132	132	3
82	84	1
72	72	5
7	24	5
129	129	8
127	127	8
85	85	12
110	110	17
108	109	1
84	86	1
99	100	1
17	17	13
25	25	8
87	89	1
1	1	7
100	100	11
136	136	4
114	114	3
18	18	4
7	19	2
138	139	4
12	12	9
1	2	7
119	122	2
7	7	4
124	124	9
105	105	7
91	92	1
10	21	1
1	3	2
22	22	7
95	95	4
126	126	14
73	73	4
87	92	2
26	30	1
110	112	2
122	122	11
5	5	8
77	77	2
131	140	4
72	92	6
135	135	5
80	83	3
75	86	1
107	111	3
74	74	7
29	29	2
135	140	4
108	115	1
88	88	15
10	10	12
35	35	7
108	120	2
78	81	2
93	94	9
26	27	2
138	138	3
10	12	1
86	86	3
35	36	5
18	19	2
76	77	5
90	90	3
117	117	8
73	121	2
83	83	3
71	72	1
24	24	11
109	114	2
87	106	4
102	104	4
89	91	3
134	134	3
92	92	1
19	19	3
9	9	7
105	118	2
84	85	1
87	87	4
74	75	2
115	115	10
97	98	1
12	24	1
71	71	9
71	114	1
33	34	2
97	97	3
118	118	6
113	113	9
31	31	3
122	123	2
20	23	2
20	21	2
11	15	3
105	112	1
28	28	11
137	137	6
89	89	5
86	88	3
123	124	4
25	26	5
116	116	9
2	8	5
6	11	3
20	20	9
100	101	1
87	88	1
26	26	5
77	82	2
113	122	3
112	112	5
87	104	6
88	104	1
28	32	2
131	139	2
116	119	2
107	108	2
90	91	6
75	77	2
132	133	3
96	96	6
34	36	5
114	116	2
115	116	2
82	82	8
3	3	4
73	103	1
92	93	3
82	107	3
27	29	4
14	29	3
75	75	1
16	17	4
37	37	2
8	9	2
13	13	4
116	117	1
126	127	3
119	120	4
84	90	5
21	26	2
21	21	3
10	11	2
34	35	5
117	123	5
9	32	3
83	86	1
11	11	5
95	96	2
98	99	4
84	84	2
117	119	1
2	6	2
135	136	2
125	125	7
107	107	4
115	127	2
132	134	2
72	73	5
97	99	1
5	6	3
78	80	2
98	98	1
73	108	2
78	79	6
74	76	3
134	135	3
108	121	1
80	80	6
74	77	1
124	125	2
105	108	1
28	30	3
20	25	1
78	82	2
87	107	3
99	99	1
72	113	4
136	137	3
11	12	2
27	32	1
24	26	3
13	21	2
72	94	1
19	21	2
89	90	2
79	79	2
10	23	1
104	104	7
119	119	3
92	117	3
77	78	1
21	38	1
74	117	1
73	76	2
116	118	2
0	0	2
105	113	1
92	102	2
38	38	4
105	106	1
85	107	1
10	16	2
14	30	1
135	137	1
94	94	1
14	31	2
4	8	1
76	76	2
30	34	1
23	23	2
101	102	2
110	113	1
133	134	1
125	129	1
2	17	1
27	30	1
75	78	2
21	22	2
5	12	3
4	5	2
124	129	1
30	30	1
137	140	1
14	27	1
73	122	1
38	39	1
106	107	1
108	112	1
90	92	1
139	140	1
108	108	1
131	132	1
