149	149	21
145	145	9
7	7	21
3	4	5
169	170	13
142	144	3
118	118	22
134	134	34
160	162	2
122	126	1
140	140	20
47	47	21
38	38	15
44	44	14
14	14	43
64	64	34
107	107	27
94	94	8
131	131	35
8	8	38
90	90	22
16	16	22
166	167	5
16	17	2
87	89	2
120	170	4
77	80	2
130	131	12
42	42	58
26	26	23
20	24	5
137	137	24
67	68	5
50	58	1
40	40	21
119	119	28
35	36	7
170	170	17
156	166	7
56	56	29
105	106	9
136	136	24
156	159	4
92	92	15
120	120	22
96	96	12
78	78	17
0	1	15
63	63	12
162	162	15
123	137	1
12	12	18
5	5	21
25	25	27
35	35	31
93	100	4
19	23	4
74	78	1
49	49	32
163	164	13
80	146	2
0	0	21
110	110	47
86	86	20
6	92	2
120	127	3
1	35	3
34	34	27
151	152	14
130	130	31
81	82	15
17	17	30
108	108	27
99	100	6
69	70	12
27	27	23
80	82	10
13	13	29
79	79	33
65	65	13
11	12	20
168	169	9
124	125	10
65	66	5
155	155	24
118	120	9
35	57	4
47	49	7
37	37	24
50	78	2
154	160	2
8	10	13
50	50	14
132	132	21
72	72	15
111	112	11
91	91	28
93	93	5
127	127	26
143	143	20
83	83	28
101	101	23
126	126	17
138	138	30
159	160	3
116	116	19
99	99	24
96	142	1
148	148	9
62	62	6
9	9	29
18	19	9
128	129	10
15	20	4
159	159	16
49	53	1
48	138	2
87	87	31
71	71	20
125	126	13
61	67	2
67	67	7
52	52	27
145	146	7
155	161	2
165	165	14
81	81	17
168	168	21
22	22	30
36	36	25
1	1	28
88	88	24
10	10	17
56	137	2
106	106	31
48	48	15
108	127	2
78	80	8
85	85	24
76	76	13
90	91	9
102	102	32
56	57	6
6	6	27
89	89	19
19	19	22
110	130	2
11	11	23
142	143	7
88	89	9
53	53	31
71	72	3
109	110	9
73	73	29
167	169	2
103	104	13
24	25	13
81	96	1
160	160	28
111	111	40
85	86	2
73	166	1
104	105	4
75	75	7
69	69	29
103	103	7
120	121	2
115	116	13
142	142	12
100	123	1
105	105	8
152	152	3
90	160	4
112	114	7
18	20	7
23	23	17
120	140	6
133	133	21
127	131	4
18	18	34
3	3	32
166	166	25
2	2	16
20	21	11
39	40	11
91	92	9
101	103	5
121	127	5
154	154	14
40	41	1
6	8	4
90	98	6
164	165	7
84	84	16
133	134	9
128	130	1
91	95	1
157	157	22
128	128	23
27	28	5
80	80	17
88	98	3
40	45	5
121	129	8
86	87	8
4	4	14
113	113	30
158	158	21
113	114	15
5	6	5
37	40	3
57	57	5
141	141	13
15	15	28
4	5	9
68	70	1
9	13	5
119	124	2
124	124	16
10	17	4
139	139	25
77	77	13
96	97	7
22	24	6
74	84	2
56	65	2
80	81	14
78	79	16
151	166	3
6	10	4
135	135	16
54	54	14
147	147	25
110	111	7
112	117	2
43	43	30
137	142	2
52	53	3
47	48	5
79	148	3
128	131	3
64	66	1
139	140	6
137	139	6
45	45	14
104	104	13
118	123	6
51	54	5
49	50	5
144	145	14
91	93	5
96	98	3
134	136	3
98	98	29
133	136	5
4	107	2
112	112	11
98	103	5
115	144	2
161	162	3
144	144	17
76	77	12
114	134	2
20	20	10
156	156	12
114	114	6
98	122	2
76	87	3
2	26	6
113	117	3
51	51	19
20	22	5
22	23	7
8	9	17
90	136	3
123	123	10
146	146	26
68	87	2
21	21	22
16	18	2
12	13	12
89	90	3
0	8	4
99	106	4
17	18	6
61	155	2
83	84	10
121	122	4
94	97	7
46	46	26
143	145	5
33	33	9
64	89	2
41	45	8
67	69	9
74	74	13
169	169	15
49	64	6
23	24	8
13	14	3
143	144	8
38	39	8
95	96	4
127	128	9
0	4	3
79	86	3
160	166	2
117	118	7
161	161	8
97	98	9
106	107	10
130	132	5
144	157	3
6	7	8
164	164	8
6	132	2
64	65	2
116	125	1
58	58	9
87	99	3
10	146	3
100	100	19
28	28	6
137	141	3
156	162	2
68	78	7
126	128	2
167	167	26
73	98	6
6	27	2
154	155	2
55	56	14
67	114	3
15	18	10
156	161	2
63	71	3
151	151	19
25	26	2
123	140	5
95	95	6
152	153	3
149	150	10
115	128	4
155	168	2
74	155	8
3	9	1
10	11	9
78	86	4
70	70	10
66	94	3
10	101	4
34	35	1
126	157	2
15	46	2
165	167	6
118	129	2
82	82	16
165	166	7
63	114	1
115	155	4
87	161	1
163	163	13
70	133	3
162	163	3
4	8	3
153	153	17
100	101	6
15	17	5
17	47	1
129	130	3
134	135	8
97	99	4
81	84	4
141	142	12
74	104	2
24	24	23
0	2	4
108	111	2
73	74	3
39	41	2
84	98	8
18	23	2
14	20	1
128	133	1
55	55	13
85	163	1
74	76	5
123	126	1
166	168	3
107	135	2
155	156	7
19	21	2
122	132	1
100	103	3
91	94	7
98	117	2
167	168	9
57	64	1
78	92	3
68	69	7
15	166	1
102	103	6
133	135	8
5	9	2
115	115	14
36	37	8
115	117	3
20	46	3
4	167	1
19	20	7
51	81	4
74	75	8
146	149	1
66	77	3
48	49	4
91	116	2
54	56	4
116	121	5
13	101	1
6	13	3
56	110	5
49	57	2
127	148	1
104	108	4
137	149	1
9	10	13
156	157	10
107	108	4
121	121	13
100	106	2
38	40	1
123	124	10
52	94	3
129	129	12
84	102	3
26	27	2
145	147	3
124	132	2
44	46	7
157	158	4
12	16	1
121	160	1
21	22	5
41	41	26
69	86	2
113	127	2
136	138	1
82	83	5
114	116	3
52	56	2
116	118	1
63	64	1
68	79	3
74	107	1
14	133	1
85	90	5
53	54	5
114	129	4
114	115	6
119	129	3
37	43	3
93	94	6
158	166	3
98	99	7
22	42	3
97	97	12
138	139	7
1	2	16
90	161	1
101	102	6
42	113	1
56	104	3
51	52	4
84	99	1
127	129	2
118	124	2
20	23	1
161	165	2
92	146	2
48	62	4
10	16	1
10	157	2
94	95	4
79	157	1
140	142	4
85	119	3
65	68	2
37	45	2
121	158	2
39	39	11
112	113	4
145	148	2
43	47	2
1	25	1
134	150	4
136	140	5
40	42	1
14	53	1
75	104	2
126	143	2
111	113	2
57	62	7
130	139	1
156	160	6
122	122	10
152	154	4
108	109	9
66	67	1
14	15	9
102	104	4
54	107	1
10	12	4
88	99	1
70	159	1
41	42	4
9	15	1
140	141	7
92	95	3
6	93	2
44	45	14
108	110	3
153	154	5
33	34	9
48	126	2
109	131	2
117	146	4
50	54	1
70	75	2
151	158	1
57	58	3
144	154	1
72	96	2
147	148	9
127	133	1
95	106	1
124	126	2
2	3	4
61	63	1
15	49	1
44	48	4
53	55	4
153	155	1
79	80	7
57	156	2
39	50	3
125	125	7
68	68	6
157	166	2
114	145	1
7	8	6
126	142	5
50	51	4
41	43	2
8	24	2
46	49	1
118	146	5
48	75	2
95	110	1
72	165	2
9	161	4
81	149	3
72	97	1
126	149	2
1	53	1
56	157	1
72	75	1
81	145	2
77	78	6
45	46	3
117	117	18
163	165	3
135	136	6
113	119	2
73	96	3
134	145	3
63	115	2
111	134	4
156	163	1
26	153	3
53	101	2
38	51	3
14	46	2
116	117	5
146	148	1
139	142	1
71	91	5
160	161	4
28	39	2
44	47	3
75	156	1
91	160	1
91	98	2
139	141	2
103	105	4
5	7	4
161	168	5
85	159	2
109	109	13
19	80	2
135	148	1
91	144	1
131	150	1
131	132	9
154	158	3
135	145	2
114	135	1
76	157	1
76	78	1
126	127	2
36	53	1
106	110	2
81	158	3
32	32	1
64	114	2
68	111	2
137	138	4
162	166	1
113	137	1
150	150	10
69	79	5
164	169	1
22	91	2
77	87	1
72	73	6
53	56	2
10	147	1
1	3	4
87	88	4
77	84	2
8	23	2
37	38	4
64	136	2
86	89	2
92	94	1
70	71	2
91	97	1
114	126	5
112	130	2
1	166	2
10	19	1
66	93	2
121	132	3
158	159	3
132	133	4
165	169	1
91	99	4
11	165	2
148	154	3
120	159	2
85	98	1
114	133	1
77	98	1
128	137	1
77	89	2
56	66	1
18	33	2
76	80	1
43	44	6
8	18	2
71	83	2
35	56	1
84	85	5
49	97	1
148	149	3
57	70	2
111	149	1
142	156	1
20	25	1
72	128	4
47	52	2
3	167	1
154	156	4
113	116	4
15	21	9
112	128	2
75	76	2
62	63	3
54	55	2
144	156	2
7	14	1
91	109	1
4	24	2
71	159	1
66	68	3
146	147	4
152	155	1
135	140	1
2	35	1
9	42	2
0	89	4
46	47	3
135	137	2
38	48	2
111	135	1
90	164	2
106	133	3
76	79	1
55	82	1
89	99	1
150	153	1
138	141	1
99	114	3
84	118	1
73	84	3
68	107	1
48	58	1
77	93	1
36	43	2
80	83	1
49	51	3
41	46	1
119	122	1
8	164	1
119	121	3
167	170	1
76	104	1
13	15	1
90	116	1
119	127	1
48	57	2
112	159	1
134	140	2
113	118	2
17	21	2
144	149	1
153	159	1
81	94	1
125	132	2
136	144	2
50	64	1
12	52	2
83	85	1
74	97	2
75	95	3
119	120	1
63	156	1
11	13	3
11	16	1
153	163	3
121	128	2
162	165	2
161	164	1
118	132	1
123	129	1
168	170	1
34	36	2
114	117	1
51	77	1
133	161	1
15	155	1
58	62	1
3	107	1
98	109	1
56	140	1
81	133	2
76	81	1
141	145	1
146	154	2
86	119	1
70	72	2
116	126	1
12	14	2
15	16	3
145	149	2
74	157	1
74	135	1
103	112	1
43	146	1
32	34	1
23	25	1
122	124	1
22	46	1
134	144	2
136	137	1
131	146	1
58	108	2
34	52	1
37	46	2
150	151	2
128	136	1
133	137	1
120	134	1
147	154	1
45	146	1
27	57	1
4	7	1
98	102	1
118	119	2
10	149	2
119	123	2
66	66	3
1	73	1
117	119	1
162	167	1
46	106	1
86	88	2
76	86	1
129	134	1
105	120	1
63	69	2
86	90	1
148	151	1
158	170	2
1	19	2
128	141	1
135	147	1
158	167	1
123	127	1
157	169	1
133	140	2
151	163	1
105	157	1
100	102	1
144	146	1
70	93	1
3	17	1
89	111	1
110	139	1
33	125	1
44	49	1
18	65	1
100	114	1
42	43	1
103	126	1
