41	41	8
14	14	17
82	82	6
130	136	3
112	112	6
136	137	3
46	50	3
10	10	3
8	8	6
17	18	11
154	154	7
97	114	5
151	152	4
84	87	4
57	57	4
117	117	9
99	101	3
109	116	2
19	19	5
33	34	3
145	145	5
65	65	10
77	78	7
21	23	5
126	127	6
140	140	6
52	57	6
95	99	5
80	80	8
30	34	4
12	12	4
133	133	6
73	81	4
96	102	1
18	19	9
39	39	11
99	99	9
62	64	2
66	74	7
138	146	3
132	137	1
27	28	3
147	147	9
49	49	9
56	62	5
62	66	1
125	139	1
148	149	1
137	137	15
33	33	11
23	23	5
84	84	7
93	93	12
105	111	4
87	88	1
40	41	3
44	46	3
150	151	14
30	30	8
37	38	5
53	53	7
33	37	7
19	20	1
15	15	7
40	40	6
65	66	5
93	106	1
27	51	5
94	127	1
86	86	4
43	44	7
69	69	13
124	139	1
120	123	3
123	125	4
122	122	1
85	86	7
98	104	5
4	5	4
6	19	1
9	9	5
26	26	8
112	135	3
32	32	3
31	31	10
72	72	6
75	87	3
34	37	4
116	117	3
143	143	6
22	22	1
16	17	3
29	31	3
31	43	2
146	146	4
71	76	2
7	7	6
47	47	13
68	68	9
23	80	1
125	126	2
127	127	5
11	79	4
100	101	7
15	16	3
54	54	9
43	55	3
151	151	6
95	95	7
11	12	7
48	50	1
99	100	1
5	5	10
44	45	1
115	117	3
136	139	1
12	21	5
108	110	5
52	52	3
38	41	1
66	80	2
35	35	1
111	113	1
56	56	9
121	137	1
82	84	1
71	71	5
13	13	6
124	126	4
6	6	7
75	75	11
57	66	3
42	45	5
85	85	7
83	83	2
141	142	3
100	100	12
12	15	4
95	138	6
3	16	6
24	80	2
27	36	2
27	27	2
76	76	3
107	108	2
139	140	1
45	46	4
97	98	4
132	132	2
42	42	13
62	62	4
113	113	4
126	130	3
4	20	3
141	141	3
153	153	3
25	25	4
11	11	7
19	21	4
29	51	3
7	10	5
29	29	4
110	110	6
81	81	6
48	48	7
22	23	5
34	36	5
20	20	7
72	73	2
95	98	2
76	77	5
48	49	11
66	68	2
28	28	4
13	14	2
75	77	2
111	111	4
30	31	3
94	94	2
134	134	3
55	55	6
32	41	1
65	67	1
19	54	1
51	53	2
18	21	3
79	79	5
122	135	1
39	40	2
64	64	2
125	137	1
129	129	2
14	20	3
66	70	1
149	149	3
142	143	4
105	105	4
26	79	4
106	106	2
89	99	2
142	142	1
50	50	1
66	75	1
120	121	3
8	9	4
75	78	1
121	138	3
124	124	3
127	128	1
121	121	7
18	18	9
111	114	3
104	117	5
26	28	6
9	10	6
54	55	5
64	68	4
51	51	3
118	129	2
130	132	1
128	128	4
10	73	4
107	115	1
103	114	3
94	95	8
102	103	3
46	46	6
17	17	5
108	108	3
77	79	2
126	142	3
126	138	2
97	97	1
125	125	5
121	128	3
57	58	2
63	63	9
98	113	2
97	99	3
64	86	1
16	18	1
4	4	2
5	21	4
33	39	6
11	20	1
131	133	1
36	36	4
90	92	1
129	130	1
119	123	1
62	68	1
78	79	2
130	142	5
118	118	2
87	87	3
77	77	2
5	11	3
112	130	2
68	79	1
39	44	2
45	81	1
120	120	5
38	38	6
119	119	4
103	110	1
5	19	4
136	138	4
90	127	1
45	45	2
131	131	2
148	148	2
100	140	4
104	104	3
108	118	3
95	97	2
11	36	1
138	138	6
72	86	1
44	44	4
98	112	2
130	131	2
98	99	4
16	16	1
145	146	1
36	74	1
3	3	3
96	96	6
120	124	2
37	37	5
106	107	3
82	85	1
88	88	2
136	136	4
98	116	2
120	139	2
12	13	3
131	135	1
135	135	2
125	127	1
132	134	2
117	118	2
132	145	3
128	130	1
109	113	2
95	96	4
6	28	3
11	13	1
133	134	1
111	112	1
110	111	2
47	49	1
4	6	4
21	21	2
31	35	3
91	96	1
16	21	2
139	144	2
116	116	7
70	70	5
126	126	1
24	24	4
82	83	2
78	78	1
69	81	2
35	36	3
52	63	2
144	145	2
58	61	1
7	8	1
34	38	1
19	22	1
102	102	2
99	108	1
74	78	1
147	148	1
42	43	1
34	81	1
74	75	1
92	93	1
101	102	1
49	50	4
84	85	1
152	152	1
31	34	1
107	107	2
109	109	1
95	100	2
98	114	1
20	21	1
150	150	1
44	51	1
137	138	1
55	57	2
32	37	1
122	136	1
124	137	2
73	73	1
132	144	2
40	43	1
125	131	1
40	64	1
13	15	1
8	12	1
64	66	1
38	39	1
135	137	1
112	114	1
5	8	1
8	14	1
94	96	1
24	36	1
27	81	1
103	118	1
18	20	1
14	55	1
24	26	1
119	120	1
144	144	1
33	80	2
122	134	1
38	40	3
28	58	1
