25	25	16
71	71	13
54	54	18
64	64	4
39	63	5
66	66	10
63	66	4
76	76	10
23	23	15
9	10	3
57	57	5
55	55	13
1	1	12
51	52	4
57	68	6
73	74	2
34	36	4
47	47	23
5	6	5
20	20	20
63	64	5
21	21	12
24	26	2
30	30	16
25	29	2
70	71	8
72	72	14
59	59	7
41	41	3
50	51	4
46	48	2
49	66	5
25	32	3
42	42	17
51	60	1
26	27	16
5	5	19
50	50	12
20	55	2
58	58	13
6	14	3
33	35	2
26	58	1
73	73	15
31	31	15
3	3	16
71	75	3
9	9	6
0	0	13
61	62	5
42	71	2
62	62	12
31	32	5
53	55	5
54	55	3
46	46	18
49	49	9
59	60	5
7	10	9
6	6	7
29	29	11
13	13	9
23	24	14
2	2	6
10	11	15
45	56	3
12	13	10
7	7	10
4	4	13
49	51	1
48	48	8
33	34	1
52	52	13
67	68	19
41	42	5
52	62	3
23	28	2
27	27	12
22	22	4
20	21	8
2	3	7
65	66	3
68	69	4
67	67	9
37	37	5
47	54	1
34	37	4
65	65	9
64	65	7
76	77	1
27	32	1
45	45	7
60	60	6
32	32	17
71	73	2
42	43	6
27	28	9
37	38	4
58	59	4
34	35	11
8	8	8
35	36	7
26	32	1
1	2	15
66	68	1
24	24	14
51	51	9
63	63	7
52	59	1
48	54	3
39	39	8
32	33	6
25	26	13
32	34	2
67	70	3
3	4	3
37	63	2
70	70	6
12	12	5
54	56	1
64	69	4
2	4	2
46	47	4
33	33	12
62	64	7
64	66	5
51	58	3
46	53	8
38	38	8
19	19	6
32	35	4
18	18	9
71	72	3
59	62	3
11	11	4
29	30	5
51	53	1
74	75	6
36	50	1
35	35	4
77	77	5
74	74	17
28	30	5
56	57	4
57	58	5
36	37	4
62	63	1
14	14	1
25	33	4
34	48	4
34	51	1
39	40	3
61	61	14
56	56	14
7	8	5
38	68	3
69	69	6
13	14	2
49	50	10
25	27	3
36	39	7
4	5	12
54	65	3
4	42	2
53	53	6
43	45	3
36	36	8
18	21	2
43	43	7
8	12	1
69	70	3
30	59	4
18	19	1
75	76	3
42	69	5
68	68	4
52	54	2
14	76	2
66	67	6
43	52	1
43	74	2
20	51	1
50	53	2
26	28	3
53	54	7
1	4	2
33	37	2
34	39	1
30	65	1
65	68	3
21	47	3
72	73	7
35	37	2
73	75	1
10	66	2
10	10	7
6	11	2
45	60	1
25	36	3
8	9	3
56	68	1
24	30	2
28	28	9
22	75	2
24	28	1
10	12	3
34	34	6
61	64	2
57	67	2
41	62	1
59	63	2
44	72	3
47	48	2
44	46	1
23	44	1
75	75	4
9	11	2
26	31	2
29	60	2
54	58	2
52	53	1
40	43	1
46	52	3
45	61	2
48	50	7
3	5	2
19	20	2
38	52	1
28	29	4
30	58	1
41	43	3
50	54	1
44	44	5
62	67	1
24	32	1
9	65	2
29	58	1
26	26	5
38	39	2
49	54	2
66	71	1
13	55	1
8	69	3
57	59	2
52	69	1
32	49	1
6	10	1
51	59	1
22	39	1
40	69	1
48	49	3
49	60	2
4	14	2
0	39	1
23	43	3
54	57	4
25	31	2
37	39	1
33	49	1
44	45	3
47	49	1
60	61	2
1	3	1
41	69	2
19	59	2
70	72	2
43	44	1
29	66	2
36	38	2
22	24	1
26	55	1
61	63	1
5	13	3
10	56	2
48	51	1
11	13	1
35	38	2
45	46	1
21	22	3
53	58	1
32	39	1
42	54	1
46	59	2
24	37	1
30	31	2
34	49	1
40	41	2
27	31	1
33	48	2
34	67	1
0	41	1
23	25	1
22	45	1
6	8	1
63	68	1
41	61	1
23	75	1
21	46	1
39	64	1
42	61	1
0	2	1
46	55	1
0	4	1
40	40	1
31	68	1
