124	125	2
101	101	4
104	111	4
146	146	5
22	31	2
67	88	2
122	122	1
100	101	2
36	36	5
84	84	4
72	97	3
79	82	1
90	90	7
156	156	9
128	128	3
62	86	1
11	54	5
26	26	7
127	127	1
8	9	5
110	111	8
2	40	2
26	50	6
89	90	3
50	50	2
80	80	4
45	46	10
13	14	2
19	19	4
97	97	1
138	138	4
25	29	1
109	109	6
38	38	5
158	158	3
131	131	7
119	119	7
113	115	3
98	98	2
20	20	10
134	134	2
95	95	6
119	135	1
53	152	1
94	94	2
77	77	7
124	124	5
63	63	2
46	151	3
14	14	1
131	132	1
77	79	2
32	32	6
75	104	2
119	120	3
3	4	2
62	62	3
65	65	6
110	110	1
107	107	5
120	121	4
112	113	2
149	150	4
44	44	1
43	43	4
81	81	2
99	99	4
79	79	3
89	89	3
0	0	9
86	86	4
78	110	2
10	13	4
142	142	2
30	30	9
71	71	8
133	133	2
41	53	2
81	82	6
136	137	2
137	137	3
12	12	4
117	117	3
151	151	1
123	123	7
68	70	3
73	73	1
7	8	1
147	149	3
88	90	3
75	75	7
120	120	4
13	13	1
147	147	4
18	18	1
157	157	4
52	55	1
83	86	2
32	39	1
42	42	3
136	136	3
70	120	2
105	105	3
136	144	2
4	11	1
108	108	4
102	119	2
41	42	2
114	116	3
48	51	7
87	87	3
100	100	6
108	109	1
106	107	4
124	139	3
11	11	5
29	29	3
13	56	1
49	49	1
95	96	3
13	85	2
148	149	2
91	92	4
125	126	1
64	64	1
118	118	3
109	117	1
68	68	3
120	125	4
33	35	1
51	54	2
34	34	2
25	38	2
15	16	6
7	7	4
80	106	1
130	131	2
112	112	5
31	31	4
103	103	4
93	93	2
22	23	4
15	15	4
115	115	3
21	21	3
84	130	1
41	41	1
12	13	1
127	144	2
118	119	3
111	111	7
152	152	1
9	9	6
132	132	2
33	33	2
72	72	1
40	40	2
139	139	2
30	127	3
9	10	1
148	148	2
67	67	3
154	154	2
55	55	1
66	70	4
126	127	2
27	55	1
23	23	4
125	125	4
112	137	1
139	140	2
11	12	3
8	10	1
46	46	1
35	35	2
112	129	3
85	90	1
1	1	2
78	78	1
17	17	5
5	5	1
23	24	2
129	134	1
113	113	3
17	84	2
104	104	2
48	49	1
41	43	1
114	115	2
21	43	1
97	102	5
144	144	3
2	85	2
52	54	1
70	71	4
2	2	3
12	52	3
148	151	1
27	27	1
26	111	1
50	52	1
133	134	4
93	94	2
36	117	2
38	39	1
121	122	1
21	49	2
109	111	1
21	22	1
79	80	1
67	70	1
48	48	1
113	114	1
42	68	6
47	47	1
52	52	2
92	92	3
14	49	3
4	4	3
150	150	2
52	53	1
11	16	2
40	41	3
88	88	2
129	129	1
18	19	2
24	27	1
25	28	1
108	118	1
8	8	2
122	127	2
125	141	2
3	3	2
54	56	2
87	89	2
90	91	2
108	117	2
125	149	2
57	57	1
131	139	1
3	7	1
17	114	1
47	97	1
13	48	1
14	36	1
43	53	2
135	135	2
78	104	1
153	153	1
39	39	1
126	126	1
22	22	1
37	37	2
144	149	1
6	6	1
105	106	1
151	156	2
76	86	2
123	124	1
7	76	1
91	91	1
28	28	2
67	71	1
107	120	1
146	148	1
142	143	1
129	130	1
29	127	1
86	87	1
141	141	1
42	43	1
127	134	1
16	16	1
96	96	1
45	45	1
43	50	1
32	33	1
102	102	1
45	48	1
32	64	1
49	53	1
18	85	1
156	157	1
133	139	1
16	18	2
12	16	1
