53	55	2
71	72	1
79	79	10
188	190	4
54	55	2
25	36	8
56	81	2
168	172	4
78	78	3
16	16	6
106	106	2
42	46	2
132	133	1
59	61	2
96	97	1
121	121	5
170	170	4
63	86	1
56	176	2
187	189	3
26	38	5
103	139	3
77	77	3
118	124	1
130	131	3
148	149	6
109	172	2
119	119	8
88	88	4
109	112	2
68	68	6
130	130	14
133	133	4
32	32	6
166	167	7
61	61	7
56	57	2
56	56	5
86	91	1
37	38	1
19	20	3
78	80	1
124	124	2
43	44	3
1	2	4
60	81	3
7	7	2
26	26	3
58	63	1
175	175	11
17	24	5
65	65	7
15	79	3
131	137	4
112	112	5
41	41	3
120	126	4
48	48	5
168	168	5
85	95	7
125	127	4
105	132	2
30	30	7
145	146	7
158	158	1
113	113	6
61	64	3
88	123	5
163	163	2
28	28	12
26	27	2
91	93	2
17	19	1
2	2	3
94	101	2
149	176	3
10	22	4
3	7	1
155	155	3
57	57	3
165	168	3
179	179	8
151	151	4
33	66	1
152	153	5
180	181	3
181	181	3
107	129	6
152	152	10
170	171	1
148	148	4
129	154	4
67	68	3
88	185	4
74	75	1
1	1	9
168	169	3
140	140	9
10	11	4
105	169	1
17	17	7
59	63	3
145	145	4
64	64	5
111	111	1
60	60	1
105	109	1
167	167	3
84	86	5
112	171	2
136	136	4
132	166	3
143	143	1
99	99	2
109	109	3
167	168	3
186	186	2
179	181	8
86	86	7
147	147	6
37	37	1
181	182	2
144	147	3
104	104	2
15	80	1
105	106	8
137	139	2
20	22	2
15	16	2
144	148	2
57	152	4
87	87	7
58	81	3
60	65	2
163	164	4
12	15	1
160	160	8
177	177	7
172	172	5
78	79	1
48	72	3
124	127	7
35	36	1
41	63	1
38	40	2
171	183	1
21	42	1
4	4	3
92	95	2
81	153	1
104	139	3
143	182	4
41	129	1
176	176	4
25	37	2
44	44	1
47	70	2
185	185	5
98	98	4
49	49	2
139	139	5
170	183	5
118	119	1
77	78	2
6	6	8
75	93	1
97	97	2
178	178	2
169	169	9
100	100	3
117	118	2
91	94	4
84	95	3
106	166	1
123	123	1
18	18	4
116	116	5
10	10	1
75	76	2
177	183	2
176	177	2
60	151	1
188	188	1
115	115	1
63	63	4
187	187	2
10	25	5
55	55	2
33	33	4
102	103	1
126	162	1
44	82	2
131	132	7
60	64	3
12	16	4
117	136	3
108	108	2
103	105	5
43	81	3
142	173	2
164	164	3
73	76	1
45	147	1
90	95	1
140	141	2
173	173	8
53	54	2
12	13	5
44	45	3
22	22	5
106	119	3
89	89	2
82	97	3
110	112	1
99	100	3
69	69	1
107	177	1
20	21	1
84	102	3
0	3	3
24	24	1
11	21	1
0	1	1
163	167	1
180	180	3
103	103	4
177	181	3
149	149	1
134	136	1
120	120	5
105	105	3
38	38	3
14	27	3
19	19	1
74	74	2
173	182	3
129	178	2
138	139	2
54	54	5
30	45	3
165	165	2
12	21	1
154	154	2
14	17	1
174	176	2
16	37	4
108	172	2
123	128	1
146	146	2
171	171	2
157	165	1
72	73	1
1	8	1
118	118	1
73	81	1
179	182	2
69	92	1
184	187	1
81	81	3
85	85	1
117	135	1
101	169	1
182	182	1
96	98	4
25	26	1
104	105	2
97	98	2
67	67	2
96	99	1
62	62	1
141	141	2
58	58	1
25	25	2
131	133	2
116	117	1
98	100	1
23	23	2
174	175	1
47	55	1
10	26	1
75	75	1
175	176	2
100	101	1
19	21	1
166	166	1
39	39	3
78	81	1
44	46	1
119	120	1
174	174	2
171	173	2
4	188	1
115	119	2
135	149	1
136	137	2
124	125	1
143	145	1
131	131	1
142	181	2
75	82	1
28	30	1
162	162	1
179	180	2
82	82	2
21	21	2
149	155	2
80	80	2
102	102	2
174	181	1
21	22	1
111	115	1
46	82	2
91	91	1
47	74	1
119	162	1
78	82	1
89	102	1
107	172	1
11	11	1
81	82	1
27	40	1
43	78	1
123	127	1
29	30	1
142	142	1
