19	19	17
112	112	5
12	13	3
100	100	12
46	48	3
21	21	13
30	30	18
26	26	20
99	99	8
11	11	15
84	85	7
108	109	5
58	108	6
93	97	2
58	106	5
130	130	5
28	28	11
83	84	6
10	10	12
20	20	20
78	78	10
93	93	11
86	86	9
111	133	3
95	95	4
90	101	4
7	84	1
7	18	8
90	94	3
132	132	4
73	73	17
80	80	14
11	70	1
79	80	4
78	79	6
95	133	4
27	27	14
104	104	20
59	59	12
72	72	7
65	66	7
70	70	15
71	71	4
92	92	20
116	116	16
6	11	3
120	122	2
10	87	4
30	118	2
96	97	7
74	74	11
8	8	8
13	30	2
25	83	2
71	72	7
37	37	16
39	39	10
76	76	1
60	125	2
39	41	4
5	5	12
35	35	11
94	94	8
95	96	3
82	82	10
11	37	6
109	109	7
4	17	3
90	107	1
17	44	3
17	17	4
39	40	4
67	73	2
54	55	4
44	47	2
15	15	4
14	14	5
6	6	10
69	69	7
88	88	10
28	47	2
43	48	2
108	108	7
13	15	4
107	107	8
121	128	3
30	31	3
93	103	3
7	94	1
45	96	3
11	15	4
64	64	7
75	75	16
91	91	7
114	114	2
29	29	13
5	93	1
60	60	8
6	7	5
44	44	8
61	61	15
129	130	3
13	13	6
123	123	6
98	98	2
10	14	4
56	89	1
106	106	9
60	82	2
15	47	2
45	90	1
80	81	2
38	38	1
117	117	9
110	110	6
83	83	5
41	42	1
48	48	7
96	96	4
104	105	1
100	104	3
117	119	6
58	128	1
98	100	5
24	26	1
21	43	4
21	61	5
16	16	2
97	98	1
46	46	14
103	104	3
119	126	2
16	17	1
97	123	4
110	131	1
57	57	11
74	75	4
101	106	1
8	15	1
99	100	4
87	95	2
8	66	2
113	113	8
128	128	10
1	62	3
2	2	5
15	16	11
48	93	8
60	62	1
18	72	1
101	108	1
28	29	2
56	56	3
63	63	5
47	47	18
33	34	3
7	45	7
37	38	1
27	28	10
42	42	6
25	34	2
87	92	1
24	77	5
44	45	6
106	116	2
45	61	1
66	67	3
78	82	3
96	121	7
125	134	3
2	101	3
122	122	5
118	118	6
111	111	4
30	56	7
24	28	10
90	90	7
7	7	13
55	55	3
130	132	1
79	79	7
121	121	7
63	64	2
32	32	7
14	23	1
1	1	4
12	102	4
60	61	5
62	62	6
66	126	1
4	4	10
12	12	4
84	90	3
43	43	2
8	11	5
60	78	3
19	20	2
96	126	1
17	35	3
82	83	3
27	34	2
119	119	1
57	78	3
34	76	4
40	79	3
45	97	3
77	77	7
97	97	4
9	47	2
68	73	1
80	82	1
57	106	1
31	31	7
130	131	3
126	126	9
101	101	5
47	48	3
9	9	11
3	6	3
66	66	8
23	24	2
45	45	15
24	25	2
100	103	4
108	131	2
47	77	3
105	105	2
129	131	1
34	64	3
108	128	2
36	36	7
0	0	2
85	85	14
8	27	1
61	76	2
58	59	2
134	134	8
34	82	2
31	32	2
115	115	3
91	92	2
70	71	2
69	83	2
3	17	1
30	43	2
104	107	1
113	114	2
8	19	2
17	20	1
40	81	2
30	32	2
3	3	3
77	78	1
58	90	1
86	87	1
16	19	4
59	60	3
26	27	5
133	133	3
21	23	2
117	126	3
118	119	5
24	34	4
40	40	5
4	5	1
63	69	2
29	31	2
98	125	1
40	49	1
109	114	2
76	77	5
123	130	2
103	103	3
84	84	5
5	18	1
33	33	7
25	35	1
90	102	1
51	56	3
106	109	1
17	18	3
42	45	1
49	49	5
75	76	3
35	36	2
56	58	1
18	18	4
98	122	4
131	131	4
102	102	5
19	22	2
11	60	1
59	89	2
36	37	2
21	85	1
47	92	4
93	98	3
27	31	1
65	65	4
60	75	1
14	78	1
124	124	1
127	127	2
37	81	1
44	51	1
81	81	1
8	9	1
9	10	3
6	45	1
25	25	2
27	91	3
115	116	2
4	92	1
95	98	1
50	50	1
23	23	1
41	41	6
29	49	1
68	68	3
47	99	2
129	129	1
120	120	2
103	123	2
3	66	1
34	77	2
95	100	1
89	89	2
90	91	3
40	41	1
77	112	1
61	77	1
100	101	3
108	115	1
59	88	3
11	12	1
91	101	1
57	59	1
67	67	1
58	58	1
6	18	2
0	1	1
44	46	1
38	81	1
34	34	2
107	109	1
2	3	3
51	51	1
12	100	1
37	82	1
132	133	2
22	42	1
47	83	3
5	124	1
7	13	2
29	61	1
21	30	1
106	108	1
22	22	1
44	63	2
48	49	1
83	85	1
60	120	1
10	73	1
67	68	1
20	22	1
21	93	1
119	127	1
5	87	1
26	84	1
34	66	1
92	93	1
1	17	2
28	45	1
93	99	1
98	99	1
45	87	1
29	51	1
24	33	1
6	8	1
119	120	1
59	87	1
57	58	1
3	94	1
126	127	1
56	94	1
49	101	1
62	77	1
