32	32	6
122	131	4
128	128	9
73	74	7
81	84	2
144	144	6
42	42	6
83	85	3
95	119	3
27	27	22
101	126	1
87	89	11
6	21	2
94	94	9
125	126	1
104	104	3
123	123	7
34	36	5
53	53	11
114	115	2
59	67	2
26	26	9
89	90	2
12	13	3
122	123	2
9	9	10
73	73	3
90	90	12
101	101	5
16	130	3
122	122	6
91	117	1
17	33	3
124	125	6
117	118	6
95	95	12
129	129	12
17	17	16
89	89	8
110	111	5
98	98	9
50	50	5
138	138	4
90	99	4
67	96	7
86	86	8
117	117	14
22	22	12
53	122	1
92	92	6
121	122	3
58	58	7
113	113	2
33	33	7
127	128	8
29	29	10
22	23	2
13	13	8
4	4	3
83	83	1
102	102	9
109	112	1
123	125	2
68	96	4
37	37	17
119	120	6
39	39	10
8	8	5
135	135	6
82	82	3
93	95	1
29	30	1
79	84	3
143	144	2
136	137	10
31	32	2
127	129	5
63	63	6
141	142	4
131	131	11
66	66	12
72	72	3
25	25	12
120	120	13
81	120	1
130	131	7
126	126	10
95	96	4
30	30	7
34	35	4
74	74	9
142	142	12
103	107	1
139	139	4
23	26	10
49	51	3
74	89	1
16	16	8
101	103	3
71	71	10
19	28	4
117	141	3
133	134	13
9	10	3
92	119	3
61	63	1
133	133	8
124	124	14
59	60	6
1	6	3
81	82	4
65	66	5
41	48	5
97	98	2
26	27	2
82	83	3
91	91	8
88	88	4
36	36	4
103	103	6
57	57	4
62	62	6
114	142	1
132	132	7
18	19	2
116	138	2
4	5	2
127	127	9
115	116	1
50	51	3
23	23	9
48	48	7
66	67	2
28	28	7
128	134	2
60	131	1
137	138	9
134	134	18
132	133	15
126	129	3
35	35	7
110	113	1
54	55	4
65	65	2
13	85	2
95	97	3
86	120	3
100	101	1
112	112	1
59	114	3
67	67	9
38	38	11
107	108	1
54	54	2
31	31	6
125	129	1
106	106	3
70	70	2
63	71	1
77	77	4
108	134	1
99	99	7
111	111	12
43	43	2
130	130	26
55	55	7
41	41	8
31	36	1
143	143	11
40	40	6
19	19	10
64	66	2
141	141	10
25	39	4
80	80	7
10	10	6
109	110	1
139	140	5
79	81	4
87	117	2
134	135	5
17	32	1
38	40	1
48	53	1
68	70	2
125	125	17
131	133	4
90	92	4
6	9	2
118	119	4
145	145	1
41	42	7
83	89	1
133	139	2
83	84	2
112	117	4
108	108	5
59	59	5
67	68	2
118	118	10
95	98	1
11	11	9
140	140	5
122	134	3
20	20	6
126	141	5
73	98	2
99	100	6
58	111	3
135	141	2
66	68	1
1	1	5
35	36	2
105	105	3
19	27	3
56	127	2
136	136	7
8	12	2
102	107	2
130	133	5
4	21	2
84	84	4
30	31	5
101	119	10
111	112	3
75	142	4
90	103	2
5	12	1
22	28	9
28	56	1
64	64	2
75	75	2
92	95	3
123	124	7
93	93	5
60	60	9
94	95	1
63	72	2
127	130	1
102	142	2
94	103	3
8	13	2
43	129	1
27	38	2
96	96	4
79	80	2
118	120	2
69	69	6
66	82	6
52	52	3
81	81	4
132	136	2
25	26	3
57	58	3
140	141	3
3	21	3
76	142	2
72	73	2
71	73	2
52	53	3
101	144	1
125	127	1
137	140	1
40	41	1
93	112	3
124	126	2
47	48	2
19	20	2
110	110	8
62	87	1
106	109	1
56	57	1
61	62	4
105	106	1
15	15	3
102	103	6
33	37	3
55	56	3
62	63	1
57	133	1
104	106	2
61	61	6
65	67	1
81	85	3
68	68	1
142	143	4
146	146	2
135	137	1
116	116	2
74	75	1
40	46	1
74	99	2
42	48	1
37	38	2
82	125	3
87	88	1
27	37	1
64	65	1
103	104	4
12	87	3
90	95	3
52	55	4
22	37	4
70	113	1
92	94	3
24	25	2
135	136	2
2	2	4
33	34	3
138	141	1
110	112	1
34	37	1
120	124	3
76	77	2
59	72	2
42	70	2
98	99	2
105	114	1
90	129	1
27	28	2
59	61	1
67	97	1
4	81	1
103	105	1
5	5	1
17	22	3
137	137	4
18	18	6
59	133	3
72	119	1
100	105	3
37	39	3
121	121	1
49	49	1
58	67	1
118	137	1
127	131	1
136	138	2
0	0	3
36	37	1
78	78	2
115	115	1
125	130	2
3	83	2
106	112	1
21	21	3
31	33	1
60	128	1
131	132	3
14	14	1
117	134	1
47	47	1
17	19	1
23	24	2
68	69	2
1	21	1
109	117	2
57	139	1
15	16	1
3	3	2
24	24	1
19	23	1
53	54	1
42	55	1
62	74	1
135	138	1
13	14	1
21	46	1
119	119	2
72	97	1
106	108	1
21	32	1
74	84	1
23	40	2
3	84	1
107	107	1
79	79	1
70	77	1
14	15	2
101	120	1
87	87	1
128	130	1
20	32	2
12	12	1
34	39	1
96	97	2
20	21	1
120	121	3
11	23	1
8	131	1
28	29	1
12	81	1
105	111	2
114	116	1
32	33	1
91	95	1
128	129	1
34	34	1
93	94	1
62	86	2
29	125	1
63	67	1
6	6	1
