20	36	3
100	103	5
143	143	4
52	52	1
30	30	14
22	22	15
94	116	4
133	133	15
28	29	1
144	144	3
68	69	4
108	108	9
33	33	4
115	115	4
5	5	12
71	71	1
142	142	6
55	56	6
70	70	4
34	35	7
123	123	8
71	79	4
81	144	5
138	138	2
76	78	1
54	82	3
139	139	9
56	64	2
1	1	9
73	107	1
118	118	1
111	111	4
108	112	7
96	98	2
61	66	1
100	101	1
0	0	7
65	65	10
37	37	3
122	123	5
23	23	11
131	131	9
109	112	4
126	126	1
114	117	4
140	140	7
83	83	7
20	85	3
10	10	13
75	76	2
137	137	2
134	134	7
136	137	11
41	41	10
118	119	1
51	51	2
123	125	6
76	76	6
24	24	5
42	42	8
99	99	3
106	106	5
87	89	3
5	13	2
122	135	1
73	73	4
141	141	13
18	18	7
113	114	1
67	105	2
58	58	5
121	121	8
120	128	1
64	65	2
124	124	10
93	128	2
15	15	3
61	61	2
66	92	3
101	101	5
11	11	3
96	97	5
106	112	3
33	84	2
132	132	10
3	36	1
27	27	11
15	16	5
76	123	1
20	21	5
17	17	6
20	20	11
62	62	4
70	79	1
68	68	4
143	144	4
142	143	7
89	89	2
78	78	2
54	54	3
31	86	2
128	130	4
63	71	6
66	66	3
126	133	2
105	140	2
132	136	4
13	13	3
41	68	1
128	128	4
38	38	6
135	138	2
72	73	1
95	95	4
122	122	3
116	116	9
91	91	3
19	20	3
124	126	1
96	96	8
106	108	3
26	101	1
112	137	1
93	93	3
117	117	1
107	107	4
90	141	2
80	80	6
28	28	4
30	32	2
48	48	8
131	133	4
108	111	1
32	32	4
36	67	3
125	125	3
47	51	2
83	84	2
89	100	4
116	130	2
31	31	3
62	125	1
120	120	2
36	36	2
79	81	1
97	98	1
81	81	3
138	139	3
82	82	4
100	100	3
71	135	2
25	25	4
87	98	4
47	47	3
85	106	4
109	146	1
79	79	1
21	21	5
86	87	3
55	55	1
60	60	3
53	53	5
3	3	2
79	80	1
25	26	3
2	36	1
107	114	6
116	131	2
85	85	2
19	19	2
39	39	2
135	135	5
57	57	3
21	22	1
73	135	2
37	38	1
22	23	2
133	134	3
9	9	3
17	18	1
134	135	4
107	125	1
139	140	2
125	130	2
64	64	4
85	105	2
53	55	3
140	141	4
91	92	3
84	85	1
102	103	2
72	123	2
119	119	3
5	31	2
6	14	1
5	6	1
29	30	2
114	118	1
84	121	3
74	134	2
76	77	2
39	121	1
103	103	1
50	51	1
129	129	1
49	49	2
109	109	1
11	37	1
124	128	1
40	123	1
88	88	3
57	58	2
22	121	1
29	29	2
102	102	2
31	36	1
97	97	2
38	39	1
74	109	1
6	6	1
126	127	1
136	136	1
131	134	1
62	63	2
137	139	1
24	91	1
8	11	2
59	59	1
123	131	1
43	60	1
109	128	1
83	85	2
92	94	2
92	106	1
14	16	1
69	145	1
78	79	1
67	84	1
114	137	1
114	116	1
99	101	1
35	36	2
72	72	1
75	78	1
2	2	1
117	120	1
