153	153	3
82	89	1
8	9	5
53	53	2
123	123	4
50	52	2
98	101	5
128	129	4
8	8	5
128	128	2
142	142	2
138	138	5
161	161	6
43	44	1
38	40	6
106	119	3
14	15	7
174	174	3
53	54	2
10	14	3
157	157	6
168	169	4
42	42	4
167	167	3
113	116	8
4	4	10
167	169	3
18	18	5
145	148	3
35	35	4
59	59	4
19	23	4
61	61	2
118	118	3
113	143	4
18	19	3
14	14	8
88	89	8
171	172	2
154	156	4
16	22	2
24	26	2
30	75	3
15	15	7
122	122	5
10	10	5
88	88	3
171	171	5
7	7	3
22	22	7
68	68	1
36	36	6
1	2	1
136	157	2
52	52	3
30	31	5
23	24	9
124	124	1
19	35	2
24	24	9
170	170	2
131	131	3
17	18	2
172	173	1
28	30	1
136	166	1
112	112	1
168	171	2
133	133	3
147	148	1
116	127	1
110	110	2
21	21	1
113	113	3
156	156	1
35	41	1
77	77	1
96	130	3
19	19	6
84	84	3
41	41	2
3	6	2
174	175	1
55	55	2
28	28	6
14	39	3
26	26	10
23	23	5
125	125	8
3	42	2
150	150	7
38	38	7
151	152	7
129	129	2
66	66	4
138	139	4
37	38	1
119	119	3
77	78	3
163	163	5
98	99	3
164	175	1
39	40	2
44	44	3
117	117	7
20	23	2
21	34	2
123	124	6
100	101	1
99	99	1
144	146	2
68	78	1
96	96	1
85	85	3
82	82	3
6	6	1
121	121	1
56	56	2
156	157	2
58	60	1
101	101	2
3	3	2
94	94	1
2	6	1
169	169	2
127	131	1
99	100	2
13	16	3
114	114	3
29	32	4
11	12	1
1	31	1
6	7	1
103	105	3
51	52	1
100	100	4
111	113	2
78	78	1
30	32	4
134	134	4
1	5	7
130	131	6
104	105	1
105	105	2
135	135	3
27	27	2
115	125	1
5	10	2
109	128	1
45	45	1
24	35	3
130	130	1
110	111	3
135	138	1
144	158	1
13	13	9
32	32	3
5	5	2
114	148	1
140	140	2
16	18	5
57	58	2
119	120	2
63	163	2
13	15	3
169	170	1
104	151	2
0	27	3
51	72	1
122	125	1
145	145	3
118	122	3
118	160	1
2	2	4
67	97	3
13	14	2
20	20	1
29	34	2
59	61	2
33	34	1
129	130	2
24	55	2
101	166	2
39	39	2
172	172	2
165	166	1
36	40	2
108	108	3
61	64	5
65	65	2
127	130	3
46	46	1
175	180	2
31	31	4
152	173	2
114	115	4
44	61	1
127	127	3
98	98	1
97	97	2
54	54	1
144	144	1
151	154	2
90	90	1
140	142	2
30	30	3
91	91	3
88	91	1
23	25	1
175	175	3
27	63	2
31	71	2
179	179	2
50	50	1
137	137	2
4	15	1
0	1	1
80	107	1
149	149	3
33	41	1
8	12	1
91	92	1
151	151	1
26	66	1
14	16	2
174	176	4
40	42	2
116	116	3
43	43	3
3	11	1
10	11	2
125	141	1
12	12	2
121	131	1
22	23	1
83	83	2
9	9	2
57	57	1
88	97	1
108	138	2
3	4	3
37	40	1
68	72	2
71	72	1
136	137	1
178	179	1
126	126	3
163	164	2
160	161	1
164	166	1
66	82	1
127	157	1
165	167	1
61	63	1
116	118	1
137	140	1
176	176	1
11	16	1
16	17	2
170	171	2
180	180	1
116	120	1
42	43	3
72	72	1
159	159	1
111	112	1
74	74	2
117	120	1
28	31	1
112	118	1
162	167	1
51	53	1
9	42	1
121	124	1
121	122	1
52	81	1
107	107	2
158	158	1
148	148	1
24	32	1
19	25	1
114	160	1
71	71	1
157	162	1
