96	118	2
94	94	18
72	73	1
55	55	19
87	87	8
55	77	8
33	33	5
29	29	9
47	47	15
103	103	8
79	79	8
25	26	16
89	89	11
58	67	3
52	52	9
2	6	3
60	60	9
12	12	14
50	50	10
56	56	8
114	114	15
79	81	11
28	65	2
107	107	12
10	11	9
23	23	10
68	70	5
110	112	3
133	133	15
111	112	6
88	89	10
57	58	3
10	64	1
91	95	4
118	119	10
71	74	3
53	54	1
55	56	2
51	52	4
98	99	7
122	122	12
13	13	14
5	5	16
131	133	6
112	117	2
65	66	9
58	58	13
88	88	9
115	121	3
80	80	3
49	49	21
9	12	7
100	118	3
49	50	2
121	121	23
87	96	1
28	28	16
92	92	16
82	82	3
81	81	5
39	40	3
4	5	12
107	108	4
22	22	6
90	90	19
15	15	9
46	46	18
20	20	13
96	96	17
108	109	6
94	111	5
71	71	10
44	44	9
43	45	2
26	26	10
30	30	10
121	122	6
83	84	1
99	99	13
91	91	11
115	115	19
111	111	18
113	113	9
40	41	3
1	5	5
62	70	1
54	54	10
123	123	13
131	132	6
93	94	9
22	75	2
45	46	8
32	32	12
74	74	15
113	120	2
115	116	6
96	97	4
85	107	1
96	117	1
110	110	11
46	47	12
19	19	14
93	93	18
77	77	8
59	78	3
8	49	1
76	77	3
125	126	5
32	38	3
89	91	3
71	72	7
85	110	5
38	38	3
69	69	18
60	74	1
112	112	15
70	70	7
86	88	6
48	49	11
130	130	10
48	69	3
42	42	7
31	31	6
11	12	4
9	9	10
27	27	13
76	76	3
19	22	1
118	118	8
59	72	2
78	78	6
62	82	4
95	95	5
14	14	12
26	66	3
14	25	3
62	62	14
126	126	2
132	133	5
29	30	5
56	58	5
48	48	15
27	28	5
4	4	13
66	67	3
22	76	4
0	1	3
94	95	10
69	70	5
8	9	3
72	72	6
86	86	6
124	130	2
23	25	2
18	23	1
16	16	13
121	131	1
5	15	3
30	33	5
114	118	1
49	52	5
27	29	7
0	0	11
17	17	2
1	2	4
68	71	7
91	92	4
75	78	1
25	25	9
124	124	21
77	78	11
51	51	20
93	95	4
117	118	5
113	117	8
109	109	13
59	59	8
7	7	6
39	47	2
45	45	2
104	105	8
16	17	3
1	1	7
33	34	5
19	74	4
66	66	6
70	71	3
47	49	3
24	75	1
64	64	15
89	90	6
84	85	4
78	80	2
14	15	7
105	105	11
25	76	1
18	21	8
101	118	2
11	11	5
119	119	13
132	132	4
63	68	3
97	99	3
122	125	2
59	64	5
92	111	5
37	37	1
75	75	4
50	51	6
47	53	5
61	61	4
54	56	2
126	130	2
3	3	3
28	30	5
6	8	2
73	73	7
84	84	6
104	106	5
106	106	18
102	103	2
19	20	3
64	67	1
38	39	10
15	16	5
0	2	3
62	64	1
57	69	1
68	68	5
77	80	1
57	57	7
2	2	5
100	101	4
41	42	2
12	13	4
65	65	8
125	127	4
79	80	1
91	111	3
67	74	1
71	73	2
125	125	6
84	123	3
34	34	7
114	117	1
20	71	6
55	57	2
117	122	1
6	6	8
45	47	10
46	69	2
129	130	3
8	8	3
102	102	4
52	53	11
85	87	4
84	97	1
44	46	1
3	5	5
97	97	6
116	116	11
42	43	2
10	10	6
65	67	2
53	53	7
75	76	6
86	89	2
116	121	5
55	59	1
59	73	1
113	116	2
1	7	2
91	93	4
18	18	5
120	120	3
49	51	4
27	70	3
112	113	2
119	120	1
127	127	1
101	101	2
40	40	5
17	18	2
128	128	10
66	68	2
98	98	15
63	79	1
59	62	2
61	72	2
12	20	4
83	87	1
19	21	8
60	78	3
124	125	6
47	51	1
15	22	4
108	112	2
104	104	4
13	15	4
129	129	3
63	92	1
7	9	2
116	117	2
64	66	1
124	126	2
18	19	4
113	115	1
3	4	2
99	101	4
84	86	3
7	10	2
108	108	7
63	63	4
74	75	1
123	126	2
5	6	3
26	59	2
47	108	1
24	25	3
2	3	3
40	42	3
87	115	2
100	100	9
4	6	2
67	68	3
5	8	4
82	97	1
62	63	3
68	72	1
45	70	3
60	67	1
22	23	3
110	111	3
117	117	6
130	131	1
46	79	3
120	121	3
26	67	2
61	62	5
50	53	2
43	47	1
58	59	2
109	110	3
18	22	2
44	47	3
86	109	3
68	69	1
131	131	4
43	43	2
14	16	1
58	62	4
43	44	1
126	127	2
7	8	3
112	114	1
25	28	4
108	111	3
101	103	5
0	5	1
95	118	1
50	52	3
4	18	2
21	26	3
30	72	4
39	39	3
126	131	3
20	70	1
81	82	1
32	33	2
46	48	1
29	31	2
85	88	2
73	74	3
114	116	3
54	116	1
92	94	2
19	63	1
2	4	1
5	7	4
31	32	6
94	120	2
85	85	5
78	79	3
45	78	1
56	57	2
59	61	1
20	21	1
85	86	4
63	89	1
18	61	2
113	114	1
127	130	1
32	34	1
122	123	1
87	90	1
21	22	1
69	71	1
25	66	6
115	118	2
60	61	1
97	98	1
62	80	2
89	92	3
26	78	2
128	129	1
63	64	1
114	115	2
125	129	1
1	6	1
116	122	1
21	21	3
59	60	2
13	14	4
80	98	1
83	83	1
41	43	1
113	118	1
67	67	3
123	130	1
62	68	1
23	80	1
8	10	1
115	122	1
87	88	1
63	65	1
13	58	1
109	111	1
67	73	1
90	91	1
95	96	1
82	84	1
17	22	1
