18	19	6
47	47	13
54	54	8
61	61	5
37	38	6
43	43	20
13	15	4
38	53	3
33	33	12
35	35	22
45	45	14
58	58	11
37	37	12
59	60	14
12	13	6
44	44	11
42	47	1
39	40	4
31	31	13
6	23	1
10	10	10
50	51	12
16	17	5
58	60	11
44	45	8
0	0	6
46	49	5
24	24	8
50	50	16
32	42	2
6	6	5
18	21	2
31	32	7
22	22	2
54	55	7
49	50	8
55	55	5
13	14	3
3	5	3
60	60	10
16	16	12
32	32	13
35	37	2
9	10	6
61	62	2
17	17	5
11	11	10
40	40	10
18	18	10
38	39	11
46	46	14
20	20	5
24	25	6
15	16	5
25	43	2
60	61	3
62	62	14
30	30	14
52	52	10
40	51	1
31	42	2
33	35	2
59	59	19
49	49	18
34	34	21
37	39	3
42	43	6
36	36	20
34	35	5
40	41	11
12	12	2
7	8	2
48	48	10
46	47	8
55	56	2
5	6	2
0	2	6
57	57	10
39	39	10
42	44	2
19	19	15
49	52	1
53	53	1
30	35	1
30	50	1
1	2	1
30	36	1
7	10	3
43	44	9
36	37	3
42	45	6
4	4	2
39	42	1
1	1	4
32	45	5
17	18	5
49	60	5
38	38	19
10	13	2
57	59	3
41	49	2
5	5	7
15	15	2
1	3	4
51	55	2
51	51	2
41	41	7
17	24	8
56	56	5
33	34	1
29	37	3
56	57	2
7	7	8
41	46	1
47	48	3
41	45	1
37	53	1
42	42	7
42	46	4
24	40	1
12	33	1
9	11	2
44	46	2
15	24	2
21	22	5
32	33	3
6	7	1
30	33	1
49	54	2
9	16	2
19	21	1
10	12	2
35	36	3
3	45	1
31	33	1
56	60	1
8	8	3
46	59	4
39	50	1
23	23	6
30	48	2
42	49	1
4	5	4
45	46	3
20	24	1
31	36	5
45	48	1
5	30	1
3	4	4
29	29	3
12	14	2
5	31	2
43	48	2
13	13	2
30	37	2
39	41	1
2	4	1
54	58	2
40	42	1
14	14	1
23	40	2
2	2	4
57	58	1
43	47	1
41	59	1
32	35	1
18	20	2
11	38	1
41	54	1
49	57	1
23	24	1
6	9	1
1	4	2
20	21	1
25	25	2
22	24	3
8	9	1
9	24	1
39	60	2
11	12	1
50	58	2
58	59	1
21	23	1
35	43	1
3	3	1
39	44	1
51	52	1
35	48	1
30	62	1
49	51	1
24	41	1
