40	40	10
69	69	8
8	8	21
22	23	12
67	67	4
7	8	8
20	20	22
34	34	12
4	4	9
36	40	4
49	50	14
39	39	6
24	25	10
32	32	3
42	42	8
71	71	14
9	9	13
77	77	12
47	47	16
19	75	2
71	72	2
57	57	10
38	38	2
12	21	2
44	45	8
50	50	6
24	26	2
18	19	14
13	13	12
25	25	9
10	10	14
5	5	22
30	58	4
52	53	6
58	59	5
59	60	6
21	21	19
46	47	2
58	58	21
3	4	9
22	22	12
25	26	6
51	51	7
37	38	3
56	56	5
24	24	19
59	59	13
6	6	24
61	65	5
30	41	7
27	66	1
7	7	10
11	11	2
62	64	8
72	72	8
20	21	15
23	23	20
50	51	4
31	51	3
31	31	10
0	0	12
62	63	1
76	76	9
67	68	3
36	36	14
18	18	13
0	2	2
45	55	1
38	48	3
57	58	7
26	26	20
47	48	7
19	20	13
60	60	10
56	57	6
5	11	3
26	30	2
44	56	2
5	6	10
45	45	6
2	2	7
22	72	5
68	68	8
19	19	18
48	48	6
48	49	5
75	75	12
60	61	11
70	71	5
65	65	5
0	1	6
11	12	9
27	68	2
70	74	1
26	28	4
54	67	2
1	1	15
75	76	8
12	13	4
55	55	10
32	38	5
66	66	15
38	40	2
69	73	5
63	64	5
49	49	6
29	29	15
4	5	6
37	37	5
30	30	14
12	12	12
35	35	18
61	61	20
33	33	17
34	39	1
36	38	3
47	49	2
30	53	1
64	64	10
74	75	10
75	77	2
30	50	3
6	7	6
46	46	5
53	53	10
34	38	2
72	73	8
36	39	2
26	27	5
52	52	5
54	54	15
62	62	6
68	72	3
53	55	6
30	40	2
31	41	7
23	24	4
2	3	3
65	66	2
36	37	5
74	74	3
43	44	2
35	36	5
31	34	1
69	70	5
1	5	1
49	53	3
34	35	1
51	52	4
35	37	5
45	65	1
28	28	6
3	3	13
50	53	1
76	78	2
10	13	3
10	11	3
24	70	4
54	56	1
40	43	4
51	53	2
43	43	3
51	55	1
42	43	1
27	67	5
32	34	2
68	69	2
1	4	4
22	74	5
28	67	4
3	6	1
73	73	6
25	27	8
31	39	2
29	30	6
41	42	6
38	41	1
32	43	3
28	66	2
33	42	2
59	62	2
41	41	1
29	69	2
3	67	1
39	40	3
31	32	1
9	19	1
44	44	1
38	39	1
27	28	1
33	34	3
59	63	1
5	10	1
28	68	3
34	37	1
63	63	5
4	6	1
55	65	2
60	62	2
21	22	2
8	10	2
42	51	2
30	31	1
68	75	3
74	76	1
53	54	2
41	43	2
45	56	2
18	20	1
2	4	1
19	22	2
21	73	1
20	22	1
3	5	2
24	30	2
8	9	2
77	78	1
32	42	1
23	63	1
66	68	1
28	29	1
39	43	1
14	14	3
48	52	1
54	55	1
73	75	1
40	41	1
26	31	1
1	2	1
45	46	1
