127	151	1
94	95	5
101	101	21
112	112	35
36	36	11
150	150	12
158	158	20
17	17	19
75	75	20
101	102	14
70	70	21
25	26	1
120	120	7
17	24	3
11	12	11
6	7	20
7	7	16
143	145	4
63	64	10
100	100	20
99	100	4
109	109	19
155	157	4
113	113	8
58	64	1
105	105	7
18	49	1
38	38	21
52	62	1
35	36	12
18	18	13
65	66	4
70	72	1
119	120	5
56	57	5
148	148	6
151	151	20
144	144	25
28	28	14
43	43	32
12	12	24
47	49	2
90	91	16
156	156	7
24	24	29
79	79	14
119	119	11
35	35	19
142	143	8
129	129	13
132	151	6
96	96	23
57	57	18
110	110	23
1	2	8
157	157	14
86	86	18
3	3	32
71	72	7
93	93	10
140	140	20
47	47	21
152	153	5
52	52	25
68	69	3
81	82	14
153	153	14
83	113	3
65	65	5
25	135	6
7	56	2
96	97	7
113	143	2
111	111	31
67	68	11
102	102	17
25	25	22
23	40	2
108	108	22
44	46	5
24	25	5
6	51	4
21	23	2
160	167	6
127	127	18
122	122	4
18	20	4
4	4	26
147	147	5
142	142	17
116	116	15
71	71	13
133	133	10
0	1	11
53	107	2
54	54	15
37	41	4
19	20	8
101	103	6
22	22	16
42	42	9
120	127	2
44	44	24
107	107	24
57	62	4
92	93	16
125	135	4
33	34	7
159	164	3
162	162	13
82	82	21
166	166	9
110	117	11
120	128	1
72	72	16
86	88	2
145	145	17
106	106	25
41	41	14
104	104	8
21	57	6
104	105	2
118	131	6
44	45	12
123	123	9
98	98	14
6	6	21
25	128	1
160	160	25
8	8	11
52	56	5
53	53	27
37	37	17
92	92	19
62	62	6
149	149	18
53	54	2
108	109	8
128	129	14
159	159	12
90	90	22
134	136	3
50	50	8
13	20	2
164	165	8
38	44	3
111	112	7
87	88	4
134	134	18
41	52	3
23	23	7
137	137	18
74	74	17
69	69	15
2	2	29
84	85	9
75	122	1
136	136	11
157	158	9
125	158	2
12	16	2
113	114	5
12	19	5
125	125	13
167	168	3
130	131	17
4	5	9
161	163	1
89	89	16
118	130	2
153	154	4
124	124	10
117	117	15
136	166	4
97	97	13
64	64	13
85	85	16
161	169	3
125	163	5
84	84	9
74	75	15
19	19	15
136	158	4
146	146	21
45	46	2
37	38	14
129	158	4
127	128	6
27	28	3
100	101	1
49	49	5
88	89	5
36	42	5
129	159	2
2	3	6
39	45	4
20	21	9
134	138	4
66	66	6
135	135	16
137	166	3
130	130	11
126	149	3
103	104	8
100	110	2
55	55	15
156	157	9
4	51	1
33	33	8
158	159	9
121	121	5
56	56	19
66	67	2
143	149	4
116	130	1
134	139	3
76	77	1
34	35	6
99	101	2
138	138	21
91	91	7
143	144	8
48	49	8
36	37	5
82	83	4
87	87	14
97	98	6
51	70	1
50	51	3
20	24	3
34	34	11
95	95	4
81	83	6
5	37	4
155	156	10
98	99	11
90	112	2
85	90	1
152	159	5
128	128	18
141	142	8
26	26	17
22	23	3
89	90	6
115	116	2
138	139	9
62	63	2
39	39	5
76	76	15
67	84	4
7	37	3
37	43	5
99	99	10
45	45	21
127	163	5
86	87	10
73	118	3
5	6	8
52	53	5
167	167	6
9	37	4
123	124	3
103	108	3
8	9	3
16	18	2
1	33	2
134	135	14
102	103	3
132	133	1
148	149	5
95	98	3
68	68	14
14	14	12
168	168	6
88	164	4
125	126	8
120	136	3
75	76	2
27	99	2
143	143	9
115	115	4
46	46	10
64	74	2
137	138	8
155	155	8
155	160	5
16	16	18
42	50	3
83	83	12
132	132	7
17	76	1
10	11	2
39	50	4
9	24	2
113	141	2
40	40	4
169	169	4
54	106	4
15	15	3
41	42	3
114	114	4
78	78	6
116	159	5
68	70	2
73	123	6
139	146	1
142	146	6
114	115	4
45	55	1
135	136	9
11	11	15
84	112	2
123	125	5
165	166	6
109	110	4
118	118	10
44	53	2
72	73	7
112	114	6
53	106	4
163	163	12
51	57	3
154	154	6
100	108	3
12	14	2
73	74	8
74	76	2
42	43	9
64	65	7
136	137	1
111	133	4
125	166	2
136	157	2
74	128	3
93	94	5
133	141	1
21	21	16
165	165	5
88	88	13
111	113	6
19	22	5
81	81	5
5	20	3
6	37	7
67	67	5
15	16	4
69	75	3
150	151	2
5	42	3
0	0	10
106	128	4
162	167	1
126	159	6
11	24	3
1	43	4
1	45	1
7	25	6
5	5	9
24	28	2
159	160	5
53	65	1
54	78	2
19	108	1
117	118	5
44	64	3
129	130	1
94	94	3
152	152	9
20	20	7
55	56	4
129	152	2
14	15	3
73	73	7
119	130	1
12	13	5
69	71	5
54	57	2
149	150	2
83	84	3
80	81	3
92	94	3
63	63	4
84	86	6
70	71	3
161	161	5
129	153	5
49	52	3
107	159	2
70	77	2
112	116	1
121	136	1
8	37	1
55	166	4
111	114	2
102	107	1
38	39	4
103	107	2
10	109	2
73	82	5
139	140	2
88	165	6
70	84	1
146	147	3
95	107	2
64	68	3
23	24	2
132	146	3
127	161	2
41	51	5
88	99	5
170	170	8
76	79	2
117	129	4
161	166	1
54	55	7
13	14	2
70	73	5
46	47	2
93	95	2
17	18	4
18	40	5
124	131	1
131	136	1
96	105	5
139	139	5
10	10	12
18	19	2
127	164	1
83	102	1
16	108	1
126	127	3
10	21	2
83	107	1
80	80	5
151	157	2
9	10	3
73	84	2
92	104	4
1	1	13
156	159	1
23	50	2
152	169	3
140	141	4
45	114	2
8	15	2
105	106	5
21	26	2
114	141	5
133	134	2
10	24	5
39	51	3
63	72	2
13	46	1
122	130	1
34	36	1
39	40	1
45	68	2
137	151	2
133	140	1
100	109	2
21	22	2
161	162	3
114	116	3
103	103	3
3	25	1
71	83	1
41	43	1
20	113	3
153	157	1
51	51	4
127	167	2
99	112	2
126	126	5
15	39	1
42	51	2
121	122	2
158	163	2
9	9	2
123	135	1
162	163	2
17	19	1
13	13	3
158	164	1
69	135	2
53	55	2
141	149	1
5	40	3
35	37	1
13	24	2
21	58	1
63	65	2
65	68	1
74	122	1
112	113	3
27	106	2
90	92	1
119	121	1
57	63	4
46	53	3
107	108	1
118	122	1
133	135	1
64	120	3
77	77	2
10	12	2
48	48	9
47	64	2
111	128	1
49	58	2
25	120	1
164	164	3
54	65	1
34	37	1
11	13	2
46	63	1
131	131	1
74	82	1
97	99	2
6	8	1
67	87	1
17	41	1
57	58	2
49	51	3
27	27	2
64	69	1
73	81	1
105	107	1
38	57	1
122	127	1
52	57	2
53	166	1
111	157	1
45	47	1
40	41	1
168	170	1
33	35	1
28	89	2
14	23	2
1	44	1
91	92	3
133	166	1
86	114	2
145	146	1
86	113	3
125	165	1
19	48	1
10	16	2
8	17	1
53	56	2
120	123	1
158	166	1
110	112	1
37	39	1
78	79	2
22	24	1
16	20	1
72	82	1
154	160	1
149	151	2
16	17	1
20	84	1
132	150	1
10	20	2
125	136	1
167	170	1
161	167	2
124	129	2
79	81	1
1	32	1
135	137	1
70	75	1
163	165	1
43	45	1
65	67	1
120	126	1
10	37	2
88	97	1
8	38	1
19	24	1
89	96	1
78	87	1
65	94	1
65	79	1
110	111	1
