62	82	2
15	16	3
0	0	7
57	58	5
2	2	10
85	85	2
13	13	7
57	57	12
6	8	6
49	61	4
75	75	3
63	65	2
12	12	4
64	64	17
74	74	7
71	87	2
82	82	12
61	62	2
14	14	5
66	79	4
48	58	3
27	84	8
61	74	3
64	83	4
79	84	2
51	51	10
11	11	14
31	31	8
54	54	5
61	61	9
62	62	7
73	78	5
74	75	1
3	3	8
59	60	9
86	86	8
22	22	5
49	70	2
81	82	2
27	27	8
26	34	1
19	48	2
50	50	11
65	65	14
14	25	3
73	73	14
76	76	4
87	87	7
16	46	3
76	77	5
59	59	3
69	69	12
51	52	5
10	10	10
19	23	5
78	79	1
5	5	1
24	24	4
8	34	5
75	89	3
62	71	2
52	59	3
48	48	11
89	89	8
64	65	8
34	51	2
51	79	5
71	71	3
54	55	3
70	70	7
47	49	5
28	28	1
83	83	9
55	55	6
10	12	6
63	63	6
7	13	5
51	77	2
57	75	3
33	34	1
20	20	4
66	82	3
26	82	2
68	69	4
17	64	1
30	30	3
49	49	8
82	83	6
61	63	1
58	58	6
4	4	7
46	47	3
59	62	2
19	20	2
17	22	3
84	84	9
6	6	2
7	7	11
33	52	3
5	6	2
49	74	3
21	21	1
9	10	2
81	81	8
72	81	2
53	53	2
23	23	6
77	78	5
7	26	2
78	81	4
55	56	2
79	79	8
24	25	2
19	27	2
11	23	2
63	64	4
65	77	4
68	68	7
60	60	3
49	50	6
16	16	2
20	22	3
77	77	3
21	23	3
56	56	4
12	13	3
80	80	13
50	76	3
72	72	6
88	88	11
8	8	9
79	81	2
26	26	3
25	83	1
9	9	8
67	68	1
46	66	1
27	80	1
1	1	6
23	28	1
48	71	2
19	19	4
20	48	3
65	66	3
16	17	1
52	52	5
72	77	1
72	74	1
25	25	2
79	80	4
62	63	2
17	18	2
46	46	3
49	64	1
14	27	1
17	26	2
48	49	2
11	24	1
34	34	1
53	54	1
86	87	3
78	78	5
15	15	1
20	51	1
66	66	5
85	89	1
1	2	1
8	9	3
75	86	1
49	55	2
26	27	2
29	29	3
78	82	3
60	77	1
73	75	1
70	74	3
49	71	2
19	22	1
10	13	1
26	83	2
20	49	1
89	90	1
16	27	2
27	48	1
59	61	1
72	73	2
47	47	3
78	80	1
73	74	1
74	77	1
10	11	4
46	52	1
71	84	1
57	67	1
47	48	2
55	80	1
17	66	1
67	67	2
84	88	1
21	22	1
11	12	1
85	86	1
4	46	1
25	26	1
4	14	1
8	11	1
48	89	1
23	24	1
19	84	1
16	50	1
