126	129	2
151	151	26
157	157	13
56	105	1
10	10	15
7	145	7
106	108	7
129	129	17
155	155	6
1	1	18
23	23	29
21	22	5
87	121	1
9	9	35
28	29	8
2	2	18
55	55	14
30	30	24
72	73	5
11	11	32
63	63	21
114	172	6
0	0	24
96	97	3
88	88	11
58	58	7
146	146	10
42	42	15
179	179	5
164	164	8
25	26	15
73	79	2
168	168	16
3	3	38
38	38	20
17	18	2
25	25	28
172	172	10
87	102	1
6	7	5
37	68	4
74	74	2
103	106	7
97	97	9
139	139	8
23	26	1
3	4	20
136	136	15
110	157	3
18	18	23
61	61	13
7	22	4
142	144	4
33	33	29
54	54	8
3	5	9
43	43	11
121	121	16
13	13	31
28	28	29
87	88	6
8	9	34
123	123	7
145	148	3
2	7	5
167	167	11
66	66	14
25	27	4
135	135	1
44	45	6
157	158	1
84	84	10
159	159	15
16	17	7
141	141	11
134	135	4
43	44	12
26	26	21
102	103	4
153	153	14
119	119	6
82	82	10
4	111	3
90	151	2
104	104	10
8	11	1
8	8	31
58	149	2
12	12	27
139	180	1
36	36	18
128	129	10
40	40	24
94	95	11
21	23	4
125	125	11
99	110	1
79	79	10
33	34	15
154	154	5
41	41	24
19	21	9
14	14	34
2	3	16
137	137	13
18	19	12
93	93	9
139	141	3
52	52	6
111	112	4
65	65	10
67	81	3
42	43	7
140	151	8
59	149	1
140	177	2
168	169	4
127	127	11
32	33	12
19	19	31
7	7	17
160	160	6
107	154	2
178	178	8
172	173	5
40	41	10
145	145	12
94	94	10
156	157	2
31	31	17
26	27	3
76	76	6
10	11	8
158	159	5
144	144	17
37	37	22
39	40	5
27	28	7
103	105	3
114	116	6
4	4	18
134	134	11
67	67	12
2	11	1
131	131	7
5	14	3
171	171	13
132	132	11
177	177	3
15	23	4
32	32	41
91	91	9
91	92	2
117	117	9
73	73	5
39	39	22
109	109	12
114	114	10
27	27	21
133	133	32
16	16	7
106	106	3
31	32	6
123	124	6
142	142	11
149	149	11
96	175	6
10	16	1
161	162	5
58	61	3
90	91	2
56	56	9
6	9	3
35	35	20
13	14	5
71	71	10
147	147	20
129	162	2
84	89	4
6	22	2
14	24	2
120	156	3
9	10	7
6	8	5
24	24	30
129	160	2
68	104	4
126	148	4
128	153	2
17	17	26
52	54	3
60	143	1
42	107	3
120	120	3
170	170	10
29	30	6
26	30	3
18	23	1
117	118	8
148	148	9
112	112	9
16	21	10
103	104	7
11	22	4
108	108	10
15	15	13
14	15	4
22	23	10
87	126	2
50	50	8
122	122	7
137	138	5
16	44	5
54	75	1
175	175	11
140	152	1
159	176	4
13	45	4
53	54	6
20	20	19
18	20	3
31	38	5
68	68	5
135	136	10
139	140	3
81	83	4
37	38	9
76	78	5
92	92	12
124	144	2
176	176	14
131	132	3
34	34	8
50	158	1
44	44	14
75	75	12
89	89	6
86	86	6
95	124	1
120	144	1
143	143	13
52	53	4
2	4	8
5	26	2
57	57	13
7	8	2
55	56	5
53	53	8
18	36	2
4	5	8
29	32	1
20	43	4
6	6	25
159	160	6
77	78	5
81	101	5
114	118	2
173	173	7
81	111	2
64	64	4
118	120	2
118	153	3
169	169	12
93	122	5
5	5	15
59	59	4
145	146	7
0	6	4
113	114	4
162	162	7
101	101	2
24	25	12
51	54	5
17	26	3
162	172	2
157	160	3
45	46	6
81	82	3
42	44	4
147	154	2
64	93	3
35	39	2
62	62	12
158	158	2
111	114	5
114	115	3
104	106	1
83	85	2
38	40	4
79	137	1
167	169	6
27	62	3
15	16	7
2	5	3
143	171	3
72	72	9
127	157	2
141	165	3
96	96	6
22	22	31
51	67	2
73	74	4
117	152	2
6	41	6
116	116	5
163	163	6
150	150	7
33	35	2
147	148	4
84	136	3
154	156	2
18	31	2
17	21	3
103	103	11
10	14	1
124	124	8
105	105	5
2	9	1
51	51	14
14	31	5
130	131	1
102	102	12
1	2	6
70	70	1
33	54	2
11	12	13
30	31	1
58	83	2
144	148	6
100	101	2
165	170	3
127	146	5
107	107	10
83	89	1
83	84	3
98	102	5
24	37	1
118	121	2
100	100	10
19	20	8
89	120	6
112	113	6
156	164	4
166	166	13
134	179	2
56	153	5
99	107	1
95	95	10
128	128	13
93	112	1
95	116	2
45	45	14
9	62	5
1	41	2
83	83	8
5	9	3
5	6	5
78	78	6
70	71	1
24	26	1
27	29	4
99	105	1
59	60	4
134	178	3
140	140	5
85	85	8
72	136	4
18	26	2
150	160	2
115	115	9
10	17	6
61	62	2
14	16	2
32	56	1
82	148	3
60	103	1
165	165	2
54	55	2
63	64	2
131	136	4
7	14	7
161	161	8
51	63	2
97	104	5
93	96	2
46	46	4
150	151	4
95	125	2
80	87	6
84	86	2
34	41	2
12	13	4
91	151	1
87	119	4
95	112	1
30	39	2
141	142	1
57	58	1
6	128	1
4	9	2
81	120	3
58	81	3
155	156	2
81	112	6
142	149	1
164	165	4
11	15	5
151	154	2
94	122	1
142	145	1
113	113	8
105	106	5
27	30	2
18	32	1
10	12	3
117	173	1
34	35	2
8	31	6
7	9	1
10	49	3
22	38	1
11	13	3
81	84	3
4	26	2
56	103	1
11	36	3
27	49	1
1	3	2
164	177	2
87	87	10
144	179	1
16	28	3
175	176	6
15	24	1
13	15	2
73	77	2
161	170	1
144	145	3
146	147	2
10	13	4
138	138	1
128	163	1
52	68	1
110	111	3
81	85	3
67	164	2
142	143	3
35	38	2
80	81	1
3	22	1
156	156	6
60	61	1
170	171	3
88	101	3
113	160	2
89	90	1
126	126	5
3	23	5
5	7	4
174	175	2
5	24	1
64	77	1
82	83	2
126	128	1
39	146	2
101	108	3
28	31	1
104	110	2
171	172	5
94	131	1
116	151	4
41	42	6
35	40	1
177	178	3
124	125	2
2	14	1
21	21	5
18	35	4
81	81	4
88	89	3
33	52	2
96	98	2
62	68	1
0	1	4
20	30	1
153	171	2
57	154	3
3	8	1
59	109	1
72	88	1
177	180	2
111	123	2
131	137	2
7	10	1
130	176	2
152	152	5
119	120	1
136	137	1
40	42	4
115	123	3
55	60	3
98	122	2
35	36	2
150	159	2
1	42	1
71	79	2
180	180	4
7	15	2
103	107	1
105	121	2
49	49	1
80	80	4
130	130	2
126	145	1
132	133	2
89	102	1
96	107	1
98	98	3
121	122	1
16	18	1
116	117	4
153	157	2
60	60	2
113	150	2
1	10	2
6	10	3
17	27	1
20	21	2
56	57	1
60	64	2
77	82	1
91	93	2
143	144	1
110	110	1
129	130	1
67	68	2
12	14	1
119	121	3
80	131	1
134	137	1
61	150	1
56	58	2
35	41	2
77	77	2
23	31	1
55	59	1
116	160	2
169	170	1
58	59	1
163	164	1
14	32	1
11	50	2
31	34	1
83	120	2
113	158	3
106	107	1
108	109	2
76	77	2
32	37	1
170	179	1
116	118	1
8	10	1
111	111	2
66	67	1
36	37	1
127	162	1
4	8	1
10	29	1
98	99	2
119	170	1
5	8	1
27	63	1
153	168	1
137	149	1
119	155	2
154	179	1
89	135	1
93	131	1
152	153	1
92	94	1
32	34	1
1	4	1
2	22	1
165	180	1
174	174	1
166	169	1
32	42	1
71	142	1
43	45	1
151	157	1
61	143	1
50	51	1
27	44	1
70	91	1
165	166	1
147	158	1
121	154	1
143	169	1
63	67	1
97	98	1
72	149	1
99	100	1
