78	146	1
43	43	2
150	151	6
86	88	2
131	131	6
38	38	14
25	32	2
10	12	1
56	57	3
36	36	10
39	40	10
116	116	2
6	6	7
85	121	3
30	35	2
136	136	3
106	107	3
56	56	6
122	125	3
100	105	2
12	12	4
5	5	3
118	142	2
50	57	2
19	19	1
15	15	4
37	37	10
89	89	4
121	121	7
65	66	5
39	39	8
119	119	9
92	92	6
6	38	2
32	32	2
78	78	8
109	110	1
31	31	3
41	47	2
35	57	3
42	42	15
124	124	14
48	50	1
29	29	14
4	4	6
146	154	3
77	86	1
46	46	6
41	41	27
78	148	3
105	105	8
72	73	5
114	114	2
139	146	1
97	97	10
115	115	8
71	71	3
3	36	2
24	24	14
13	18	2
102	102	5
34	38	2
129	129	7
95	95	3
145	145	8
22	30	2
95	96	1
124	148	5
109	109	4
128	128	12
26	27	4
41	42	4
134	146	1
139	144	2
20	22	2
129	134	2
32	33	4
11	11	6
117	117	4
50	51	8
133	133	4
18	19	5
63	65	1
8	8	6
35	38	2
87	98	1
77	77	7
106	106	6
85	145	3
11	12	4
21	21	9
49	51	11
123	148	5
55	56	2
25	25	5
82	82	9
72	75	1
28	29	5
135	145	4
87	87	8
132	134	5
139	139	15
120	120	3
18	18	13
35	36	5
77	85	2
98	98	4
44	44	8
147	147	1
83	83	5
32	34	4
24	25	2
10	13	5
86	86	6
66	67	3
63	64	3
66	66	4
135	148	2
103	104	8
45	46	4
28	28	5
36	39	2
84	84	6
11	58	2
141	141	11
84	86	6
108	108	4
151	154	2
13	13	11
27	27	5
30	30	3
45	45	9
145	146	2
85	85	9
5	6	2
63	74	1
22	23	2
22	22	14
21	28	2
110	149	1
93	94	2
67	67	3
32	51	1
112	112	3
63	63	11
146	146	5
5	32	3
9	9	4
93	93	8
96	96	3
142	142	6
40	40	13
15	20	6
83	84	2
21	23	6
118	126	2
103	105	4
124	126	3
122	122	3
113	114	5
76	76	5
111	113	1
74	76	1
87	88	3
37	45	5
49	49	3
143	143	6
99	108	6
118	118	7
89	100	1
13	16	3
82	83	3
110	112	5
74	74	8
65	65	3
75	75	8
113	118	1
7	29	3
117	141	1
100	110	1
29	31	4
16	16	3
109	116	1
4	7	2
61	62	6
92	116	4
26	26	3
121	122	5
149	150	4
79	79	3
68	68	2
123	127	1
126	126	5
5	25	2
31	34	2
103	103	1
41	45	2
78	79	2
80	80	5
127	127	5
13	25	1
2	2	2
47	53	3
95	98	3
20	20	2
42	54	1
64	64	7
112	116	4
48	48	8
30	32	4
150	150	5
20	21	2
27	33	1
3	3	3
56	77	1
14	14	6
49	52	3
27	38	3
141	142	2
81	97	1
50	55	2
35	35	2
7	37	1
36	58	3
105	106	4
54	54	3
75	76	5
11	41	5
95	97	6
8	39	1
144	144	2
148	148	2
126	127	2
34	36	2
33	34	2
6	22	3
77	78	1
10	10	6
96	122	3
86	92	2
113	120	4
85	86	2
111	121	5
17	19	2
137	138	1
3	4	4
93	98	3
38	39	1
129	137	1
85	87	1
45	47	2
6	26	2
46	47	4
110	110	3
138	138	6
10	16	1
43	44	3
9	29	1
23	23	5
81	82	2
136	138	2
10	15	3
73	77	1
92	99	5
42	136	2
34	35	3
147	148	3
15	22	1
80	81	5
91	91	1
7	8	1
117	118	1
16	22	1
86	87	3
72	77	1
124	128	3
6	28	2
17	18	2
104	110	2
76	77	3
69	69	3
82	84	1
97	99	1
53	53	2
92	94	2
91	108	1
53	57	3
62	63	2
73	73	5
134	134	2
6	11	2
111	111	3
133	134	2
6	7	2
71	73	1
27	28	2
5	27	1
24	57	3
7	7	1
87	94	2
81	81	5
20	28	2
38	40	1
25	51	3
72	108	2
33	33	6
135	136	2
30	39	1
74	75	1
36	37	2
8	30	1
125	151	1
38	52	1
50	50	2
123	126	1
20	40	1
48	49	2
79	84	2
22	62	1
153	153	2
12	13	1
53	84	2
79	142	3
28	30	2
15	28	1
116	117	3
76	85	3
100	101	2
132	147	3
54	55	5
70	70	3
55	77	1
55	55	1
61	63	3
13	14	1
132	137	1
107	124	1
122	123	2
135	146	2
66	68	1
99	100	3
78	98	2
68	72	1
87	99	1
88	95	1
73	78	1
47	47	3
29	32	1
47	48	1
4	29	2
8	9	3
88	93	1
17	17	4
25	27	2
101	104	1
71	74	1
94	98	1
21	22	1
83	122	1
138	148	1
83	98	2
101	101	1
4	10	1
132	132	4
137	139	1
49	63	1
16	34	1
98	99	1
104	104	4
91	93	3
131	132	1
121	125	2
66	72	1
129	130	1
97	98	2
28	33	3
87	92	1
42	66	1
65	73	2
87	91	2
97	100	1
137	137	2
100	109	1
17	37	1
94	94	1
14	15	1
87	100	1
124	125	2
84	87	1
64	65	2
68	109	1
10	29	1
74	122	1
31	32	1
123	123	1
94	110	1
51	51	1
25	38	1
107	109	1
118	129	1
104	105	1
138	139	1
128	135	1
29	33	1
115	116	1
122	154	1
