7	7	32
149	167	4
100	125	5
2	2	31
16	16	43
62	115	2
116	116	13
31	54	5
18	18	35
75	75	11
157	159	7
170	170	9
126	126	27
6	6	35
26	26	21
17	17	46
13	45	2
97	97	6
2	3	25
4	4	30
124	124	27
140	140	26
0	0	43
42	42	33
169	169	22
28	29	6
27	28	4
71	71	16
141	166	4
40	40	34
11	12	17
165	166	10
87	87	13
111	111	28
114	114	12
15	15	21
138	138	17
84	84	9
24	149	1
144	144	12
23	24	8
33	33	31
13	13	52
106	127	3
59	59	18
166	166	28
43	43	37
28	31	5
12	22	1
63	63	18
94	150	3
74	75	8
179	179	15
27	27	27
68	68	18
142	142	21
131	173	5
101	104	1
10	10	34
126	153	3
9	12	4
120	121	6
72	73	1
70	71	7
16	17	8
37	37	34
22	33	1
139	139	30
109	109	9
32	32	46
159	159	33
78	78	15
41	41	25
90	90	27
13	34	1
88	88	21
90	91	7
161	161	9
82	82	11
133	133	20
155	156	11
35	35	35
128	128	18
145	145	9
50	50	16
95	95	27
130	130	27
123	123	22
119	121	4
54	54	18
84	85	2
151	153	4
22	32	1
2	4	4
36	78	3
10	30	4
91	94	3
31	31	24
1	2	7
28	28	21
6	15	4
159	160	2
152	152	6
2	7	5
102	102	19
23	23	29
30	30	33
52	68	3
39	39	47
149	149	16
86	87	4
142	143	14
83	83	25
38	38	48
36	36	36
158	158	17
96	96	14
118	118	11
55	55	30
25	25	41
79	98	6
146	146	16
24	24	25
60	60	21
93	93	24
10	42	3
50	51	6
8	9	22
113	113	10
53	53	10
12	26	3
62	63	6
168	168	30
65	65	27
32	37	4
21	23	5
15	18	2
9	10	15
92	93	3
31	38	5
165	165	21
163	164	6
102	126	1
60	118	2
169	171	4
21	21	12
21	29	2
0	7	3
103	104	2
81	81	18
66	67	1
10	36	3
117	117	12
117	118	16
147	147	4
129	129	8
21	26	1
173	173	17
75	106	2
8	8	32
134	135	9
67	67	19
25	26	11
134	134	28
16	44	1
24	32	6
10	15	5
57	57	20
98	98	8
167	167	8
110	110	6
153	155	2
101	101	22
72	92	1
9	16	3
172	172	16
95	96	3
67	68	7
138	143	3
143	144	3
58	58	10
20	20	17
15	23	2
94	94	17
11	11	38
80	82	3
151	151	18
123	126	5
154	154	8
164	164	6
76	76	26
132	132	28
15	16	15
98	99	1
29	29	16
19	19	20
10	11	5
1	1	15
7	11	1
150	150	27
136	136	23
138	142	2
141	163	4
82	84	9
137	137	15
105	105	11
29	44	4
96	107	4
9	9	32
155	155	11
35	54	2
153	154	13
18	19	9
163	163	16
14	14	47
61	61	10
20	21	3
56	56	13
95	147	7
116	120	2
125	131	1
112	113	6
175	175	5
127	127	23
128	129	13
79	80	7
51	51	18
20	27	7
73	73	25
41	44	2
135	145	2
146	153	1
9	11	3
122	122	10
80	91	5
85	86	3
1	39	5
13	32	3
12	13	18
97	110	1
172	173	5
113	114	7
126	166	7
90	94	1
79	79	9
131	131	14
22	23	4
131	133	9
64	64	15
126	128	5
85	85	13
116	118	7
159	162	9
72	72	22
120	122	5
92	92	25
22	27	4
80	80	10
143	153	3
36	37	22
148	148	15
168	179	1
8	25	3
154	155	12
107	109	7
44	45	12
135	135	12
107	131	2
5	6	13
115	115	10
44	44	27
109	110	8
142	144	2
141	141	34
74	74	7
43	44	7
5	5	30
176	176	18
149	179	1
153	156	1
164	168	2
98	101	2
77	77	28
79	97	2
102	121	4
30	31	15
3	4	18
18	20	9
140	158	1
120	120	13
75	76	10
170	173	4
171	176	1
90	137	5
33	34	5
81	92	1
3	3	14
11	13	13
62	62	13
17	38	3
81	100	1
87	88	7
76	92	3
90	112	2
147	156	2
128	164	4
91	119	1
93	94	8
95	127	1
78	79	3
158	159	7
2	5	11
59	60	4
10	31	2
51	54	3
84	117	2
52	52	17
156	156	16
29	42	3
144	151	3
121	121	13
36	64	5
169	170	4
102	103	4
64	84	4
61	65	5
29	36	5
152	153	11
22	22	23
180	180	5
150	152	3
156	178	2
157	157	14
13	27	4
11	34	4
166	167	3
86	86	15
95	139	4
51	64	4
20	29	1
171	171	15
9	13	3
33	124	6
12	15	7
160	160	12
53	131	3
66	88	1
51	108	1
140	163	2
144	145	6
153	153	15
34	34	13
23	43	2
152	158	4
43	45	6
162	162	19
174	174	8
143	152	2
131	134	3
10	40	4
150	151	1
84	86	4
156	157	1
125	125	12
39	40	3
112	112	22
22	31	3
4	5	9
5	41	2
79	99	2
104	129	1
104	104	7
45	45	14
36	41	1
3	46	3
121	132	4
76	90	1
19	31	3
81	87	5
149	153	3
139	140	4
71	77	3
65	79	5
179	180	5
50	76	3
119	141	2
73	74	6
157	172	1
37	38	8
65	68	1
67	79	1
27	37	2
49	66	4
142	151	3
172	176	3
36	167	2
123	134	2
10	13	5
103	103	8
22	36	2
149	175	1
137	142	1
114	140	4
164	166	5
5	10	1
127	144	2
6	7	10
37	39	6
107	107	14
2	28	2
123	124	8
129	154	2
14	31	2
17	106	3
151	156	2
14	16	2
143	143	4
110	117	2
3	11	3
7	9	4
15	35	6
11	35	3
3	13	1
126	127	4
11	30	1
141	142	5
177	178	9
122	133	1
174	175	6
135	136	5
115	116	7
6	11	4
89	90	2
99	99	10
164	177	2
64	67	1
94	147	1
130	131	2
126	147	1
147	148	3
80	125	2
153	169	3
32	33	18
29	30	6
138	149	2
122	140	4
58	114	5
150	153	1
155	178	1
139	148	1
138	139	2
12	12	22
132	172	1
5	92	1
91	92	7
0	1	2
146	147	3
152	155	2
101	102	4
120	166	2
97	99	2
5	122	1
96	115	2
49	68	4
91	91	7
159	161	2
8	10	12
24	25	10
45	46	13
86	89	2
65	77	3
64	71	2
55	76	5
18	43	2
35	36	5
29	35	3
145	146	2
91	136	2
130	169	3
109	126	2
105	106	3
34	43	2
96	106	1
109	131	2
153	176	3
38	108	1
129	130	3
13	14	2
72	81	3
51	62	1
66	66	1
141	168	1
16	91	5
57	76	2
0	10	1
56	57	2
12	43	4
91	127	1
5	11	4
23	25	1
148	149	1
23	33	2
178	178	8
140	142	1
30	41	1
38	39	20
132	133	2
35	38	3
26	31	3
34	41	2
119	125	1
116	117	3
54	55	2
94	123	2
29	31	2
17	25	3
154	159	4
85	136	3
156	177	2
150	160	4
171	172	3
150	154	2
5	15	4
15	45	4
2	15	1
143	155	1
19	36	1
176	179	2
148	151	1
35	63	4
164	165	3
40	41	5
5	19	3
1	16	6
111	127	2
170	177	1
119	119	3
97	98	1
118	168	2
4	42	1
167	168	5
59	131	1
30	42	3
121	122	4
127	128	6
87	113	6
120	164	2
1	4	2
99	107	3
100	100	7
6	21	1
75	87	1
112	136	3
36	40	1
82	83	4
21	27	2
122	123	3
41	122	3
53	54	5
24	28	2
63	97	2
22	38	1
6	8	3
26	42	2
17	18	4
98	102	1
70	76	1
50	118	3
7	15	4
10	12	3
26	27	7
94	126	3
10	14	7
118	119	6
172	175	2
53	77	1
107	108	6
6	26	1
104	106	2
112	115	3
17	24	5
31	32	5
99	101	3
149	150	5
121	133	1
90	109	4
7	23	2
89	89	3
65	67	3
83	85	1
81	98	1
71	72	9
177	177	5
161	162	2
15	31	1
7	86	3
136	163	1
100	101	2
5	42	3
74	78	1
22	25	2
52	53	6
120	135	1
140	147	2
102	109	1
13	18	4
162	180	4
77	78	4
77	81	1
75	86	1
108	108	1
39	78	2
104	130	2
146	151	1
6	122	1
61	73	3
136	137	3
17	91	2
11	41	2
70	106	2
151	157	1
111	113	3
96	127	2
154	171	1
97	106	1
173	177	2
3	15	1
26	58	2
58	59	3
146	152	1
162	171	2
37	108	1
151	164	1
81	82	1
26	28	3
126	129	2
42	44	1
51	52	3
138	141	1
174	180	1
79	85	1
25	28	2
23	44	2
41	42	9
82	93	1
33	37	1
177	179	2
37	40	1
116	125	2
151	152	3
65	75	1
130	132	1
103	135	6
59	74	1
24	34	2
143	151	3
40	42	2
23	26	3
106	106	14
172	174	6
65	66	3
131	153	3
19	20	3
104	105	2
37	85	1
39	41	3
3	7	3
80	81	1
96	97	2
140	175	3
18	22	3
27	29	1
94	95	7
53	58	2
1	179	4
24	35	3
7	19	1
9	34	1
14	15	3
8	19	1
152	178	2
111	112	4
113	117	3
104	121	1
155	180	2
83	84	2
7	8	3
140	143	2
126	152	1
49	49	2
16	33	1
156	162	2
160	162	2
114	118	1
36	45	2
135	141	1
42	43	2
86	106	1
18	78	1
154	163	1
83	107	2
64	124	3
61	72	2
1	13	2
18	21	1
117	170	3
109	111	2
90	92	2
5	9	1
75	94	3
40	58	1
140	160	1
87	95	1
16	31	2
67	72	1
36	51	2
168	169	1
3	5	1
0	150	2
108	109	5
110	111	2
19	30	1
8	12	3
4	13	1
63	64	4
35	64	2
0	23	2
44	61	1
28	30	2
1	10	2
149	176	1
121	126	1
112	121	1
145	151	2
21	22	5
78	143	1
50	71	2
6	90	2
3	19	3
159	177	2
140	170	1
8	34	1
124	138	3
18	31	2
119	137	1
9	42	1
60	71	1
82	98	1
113	140	3
145	150	3
99	100	1
7	24	1
50	108	2
12	18	1
11	19	1
124	125	1
31	33	1
32	36	1
3	44	1
96	98	2
121	125	2
91	93	2
28	41	1
2	9	1
74	128	1
131	132	2
104	135	3
57	58	1
134	136	2
144	146	1
132	140	1
95	97	1
145	148	1
156	168	1
111	114	1
57	73	1
104	107	1
92	109	1
52	56	1
33	35	1
1	41	1
99	102	2
52	108	2
157	178	2
104	143	1
52	55	1
125	132	1
9	32	3
81	83	1
108	114	1
63	78	1
10	32	1
15	24	1
87	98	2
66	72	1
10	17	2
130	166	2
135	140	1
98	146	1
133	134	1
84	93	1
65	129	1
46	46	1
160	161	1
29	169	1
56	59	2
79	86	1
116	131	1
154	173	1
52	57	1
122	124	1
60	61	1
16	20	1
11	15	1
0	43	1
22	24	1
162	163	1
130	155	1
146	150	1
97	102	1
89	93	1
107	137	1
171	177	1
1	18	1
126	162	1
142	172	1
24	31	1
63	76	1
67	77	1
10	27	1
16	32	1
170	171	2
1	6	2
157	173	1
15	25	1
154	156	1
58	67	1
38	78	2
17	22	1
72	102	1
20	35	1
2	34	1
101	122	1
83	90	1
