19	19	2
9	9	22
64	64	10
7	8	9
5	5	5
49	50	3
78	78	18
6	6	18
48	48	20
29	34	2
53	53	15
25	25	4
42	42	11
27	27	6
36	37	3
74	74	17
2	2	11
12	15	2
2	6	2
10	10	10
67	67	10
34	35	5
76	76	14
28	70	2
12	12	12
11	14	6
77	78	2
75	75	19
3	6	2
59	59	23
29	29	13
4	11	2
66	66	11
48	56	3
61	62	9
40	40	20
30	31	4
42	43	11
9	10	2
13	13	31
3	4	4
0	0	4
9	15	3
8	8	15
72	72	18
12	21	3
73	73	13
68	69	7
4	4	22
30	30	7
7	7	20
41	41	12
62	66	2
62	62	7
3	3	12
51	51	12
30	72	1
61	61	14
55	55	18
39	39	11
10	13	4
34	34	8
38	38	11
28	28	5
1	1	13
71	72	7
1	8	2
20	20	18
25	31	1
47	47	12
56	57	6
68	68	3
80	80	12
49	49	13
3	11	3
54	54	6
33	34	11
39	42	3
56	56	8
0	41	1
35	35	20
52	54	4
4	9	6
4	5	1
27	28	5
22	22	6
58	59	1
70	70	12
46	46	17
15	19	2
16	16	5
79	79	11
1	2	4
6	29	1
66	69	3
50	50	6
10	12	3
11	12	5
17	47	2
35	44	2
52	52	11
66	67	2
32	71	4
14	31	1
30	34	3
58	58	5
34	36	4
46	47	3
29	30	8
63	63	4
31	31	9
35	45	2
59	67	1
65	65	8
36	36	5
16	17	4
33	33	18
71	71	9
59	60	3
43	43	7
14	26	6
8	10	4
62	63	1
9	14	2
5	6	11
7	74	1
57	57	9
40	41	4
10	11	5
54	55	4
26	27	2
50	54	2
53	54	10
79	80	2
14	14	13
69	70	1
31	69	4
55	56	5
64	65	5
4	39	3
12	16	1
67	68	7
48	54	3
2	13	1
77	77	10
18	18	2
33	46	2
60	60	6
74	75	2
75	76	2
33	37	1
34	72	2
0	1	2
15	17	2
45	45	5
13	17	3
17	17	6
15	15	6
0	8	1
62	64	3
8	11	1
57	61	4
47	48	2
69	69	14
21	21	9
6	7	4
59	75	4
38	42	3
74	79	2
16	19	2
57	58	1
50	52	1
37	37	4
75	78	2
60	61	3
8	9	2
16	61	1
28	29	1
32	32	4
35	36	1
39	40	6
49	70	4
50	51	5
63	64	8
11	11	9
29	67	4
7	38	1
26	26	7
75	77	3
12	22	1
19	71	2
48	50	3
37	40	1
31	32	2
58	61	5
21	28	1
37	61	2
48	55	2
30	32	4
76	77	1
20	21	1
11	21	1
72	80	2
62	65	1
38	39	2
2	3	1
40	42	3
15	16	1
8	12	2
64	66	3
36	43	3
32	34	2
45	76	1
70	71	4
60	74	1
41	42	1
18	28	1
13	37	1
13	14	1
3	44	1
7	30	2
3	5	1
70	72	3
74	76	1
6	36	1
52	53	1
27	80	2
58	77	1
25	26	3
72	73	1
5	11	2
15	28	1
74	80	2
14	15	4
14	21	1
49	52	1
59	62	1
76	78	1
12	17	1
17	27	1
19	25	1
4	7	1
49	51	1
