144	144	3
126	126	2
92	92	2
135	135	9
70	70	9
108	108	7
22	22	11
43	43	4
86	87	7
36	39	4
20	20	3
3	27	1
55	55	2
33	36	2
116	116	2
57	57	8
80	97	6
12	22	3
138	145	3
26	56	1
55	56	6
63	64	2
78	84	2
45	45	7
70	107	1
5	5	2
80	80	5
73	76	2
138	138	2
15	15	5
67	91	4
71	71	14
18	18	3
66	97	3
101	101	3
22	23	3
44	45	3
67	67	1
145	145	3
21	75	2
32	33	5
4	65	9
120	120	4
21	22	4
95	95	7
118	118	11
36	43	1
66	66	4
88	142	3
96	97	1
27	28	3
26	26	5
36	55	5
24	31	2
97	146	1
63	63	8
79	84	2
119	119	11
19	19	1
53	53	4
107	115	3
131	131	3
97	109	2
51	55	6
33	33	6
25	26	5
133	134	2
73	79	2
56	57	2
93	93	2
103	114	1
31	31	1
74	111	2
33	34	2
21	23	4
139	140	4
138	139	1
127	127	6
44	44	9
20	32	4
27	69	3
39	42	1
54	54	3
146	146	4
140	140	4
154	154	3
129	129	5
38	38	7
41	41	2
11	11	5
126	148	1
22	32	3
23	24	1
97	97	5
47	47	5
46	47	1
114	117	3
105	105	2
133	133	5
46	111	3
124	126	2
92	107	1
26	27	2
94	95	2
137	147	4
89	89	5
54	82	1
57	58	2
76	107	2
95	96	1
43	44	5
114	114	3
65	121	2
14	15	1
15	16	5
15	35	3
138	148	1
4	11	1
100	100	3
65	101	6
36	36	9
113	113	2
5	32	2
69	113	2
5	7	3
105	123	2
139	139	1
9	133	4
110	110	3
98	98	1
23	23	3
84	86	1
18	19	5
62	62	3
2	47	2
136	147	2
56	69	4
72	72	4
111	112	2
29	34	1
19	22	4
82	114	3
22	24	2
58	71	3
26	81	3
77	80	3
81	108	4
12	12	3
117	117	3
43	50	1
15	25	4
14	68	1
50	64	1
137	139	3
64	99	2
20	26	2
137	137	5
119	122	4
68	93	3
84	122	1
123	123	1
67	68	2
115	116	2
109	109	5
64	67	1
54	71	1
21	21	2
54	55	1
77	77	3
45	66	2
94	103	2
48	48	3
9	9	5
115	117	1
11	30	1
58	61	2
81	81	5
16	16	1
126	127	1
80	110	1
67	69	1
76	76	1
10	10	5
45	46	3
5	6	2
52	52	3
94	94	2
74	74	1
36	37	1
98	122	2
64	71	3
102	102	4
149	149	2
84	84	5
5	35	5
81	83	1
136	143	1
73	74	2
13	67	2
143	143	1
50	52	1
42	44	3
6	51	2
11	29	1
35	49	3
104	104	1
84	85	1
46	46	2
20	56	4
106	106	1
10	43	1
7	7	2
82	83	3
153	153	4
121	121	1
98	121	3
136	136	1
103	131	1
132	132	1
90	90	1
49	49	1
35	35	1
49	50	1
131	134	1
107	109	2
42	43	2
69	69	8
16	17	1
97	104	2
30	30	4
68	112	2
42	49	3
99	99	5
15	23	3
6	6	1
3	8	1
43	84	2
33	81	1
36	38	1
17	17	4
4	5	2
98	99	3
6	10	2
88	88	2
79	79	4
25	28	2
73	75	1
35	36	2
63	67	3
26	74	1
125	146	1
95	99	1
66	83	1
47	50	2
25	25	2
48	71	2
116	118	1
90	141	4
87	90	2
86	103	1
96	96	2
38	39	4
10	53	1
64	64	1
18	29	1
28	29	1
17	18	1
28	28	1
12	13	1
37	38	1
28	51	1
27	65	2
32	35	1
105	124	4
124	128	1
77	78	1
87	88	1
130	132	3
92	108	1
38	40	2
75	87	1
14	20	1
16	70	1
93	104	3
34	34	1
117	118	3
127	148	1
4	4	2
63	95	1
41	43	1
139	144	2
37	37	1
30	51	1
92	148	1
5	49	1
83	83	1
64	73	1
15	17	3
112	112	1
120	122	1
92	94	1
99	101	2
132	137	1
87	93	1
45	51	1
12	67	3
78	78	1
136	145	1
109	113	2
121	141	2
29	36	1
99	100	1
141	141	1
93	106	1
13	68	1
103	147	1
3	14	2
11	45	1
11	12	1
75	85	1
68	69	1
35	56	1
29	29	3
144	145	1
95	135	1
63	66	1
71	115	1
141	142	1
25	38	1
28	55	1
112	113	1
148	148	1
136	138	1
24	77	1
84	116	1
33	51	1
81	102	1
43	53	1
27	66	1
15	32	1
88	123	1
97	110	1
65	65	1
124	124	1
132	148	1
