12	12	8
13	13	12
116	117	1
68	87	1
48	48	11
108	157	2
105	148	2
112	113	3
31	52	4
10	108	8
32	55	2
5	29	3
122	122	4
71	71	8
29	29	3
123	123	6
154	154	3
120	123	4
67	67	4
69	70	2
73	100	1
10	34	2
43	43	5
84	84	8
80	149	11
106	107	13
4	4	7
28	28	8
103	103	2
101	101	7
96	96	3
72	73	2
152	152	5
20	20	3
3	4	7
88	88	4
72	72	6
115	157	3
35	111	3
120	121	2
92	92	8
23	30	3
131	134	5
121	121	10
11	12	6
32	53	6
55	56	5
151	151	5
8	8	7
21	22	9
51	51	5
0	26	2
106	106	3
27	27	5
41	42	1
7	7	4
116	116	8
46	46	5
134	135	2
14	49	2
63	63	6
16	32	3
24	25	4
66	68	3
131	131	5
122	137	2
105	105	4
131	132	2
97	120	5
120	120	4
7	11	2
75	75	7
37	83	3
118	118	4
138	157	2
35	36	3
71	152	3
145	146	1
52	54	3
3	3	4
136	149	3
84	85	2
135	135	4
94	94	3
80	81	4
140	152	2
148	148	12
93	131	1
141	141	6
107	107	3
50	50	4
0	0	4
21	37	2
56	69	2
9	10	4
4	64	3
91	134	2
89	96	1
5	5	6
156	156	5
98	98	4
155	156	4
80	80	4
21	21	3
97	97	1
100	100	7
25	28	2
107	148	2
147	147	6
66	67	2
103	104	2
19	19	1
81	82	4
6	6	4
140	140	1
38	50	1
22	22	7
143	144	2
157	157	9
69	69	4
75	76	2
113	135	1
146	147	6
109	109	7
108	108	4
63	87	2
36	101	1
40	40	4
136	136	1
117	117	12
40	41	3
7	8	2
30	30	8
148	151	1
142	148	4
81	81	4
9	9	7
145	154	1
36	37	2
15	15	4
145	145	2
153	154	4
123	127	2
85	85	4
90	126	1
110	110	2
8	9	2
90	91	3
118	122	4
26	26	10
112	112	4
135	137	5
14	14	1
71	82	1
82	82	4
36	36	3
144	144	5
114	114	4
11	116	3
18	18	5
41	41	1
9	11	3
99	99	10
149	149	5
152	153	5
34	98	1
141	142	5
68	69	2
70	70	4
67	71	2
50	51	1
13	14	3
154	155	3
25	42	3
69	112	1
104	122	2
78	78	7
68	68	6
27	53	1
34	34	4
47	47	3
24	24	3
83	85	2
111	143	3
93	94	2
45	89	1
66	86	4
77	77	2
112	158	1
155	155	2
64	66	1
11	11	1
118	124	3
110	111	1
14	48	3
67	68	1
89	144	1
34	35	3
32	91	3
124	124	2
153	153	5
25	69	1
89	89	3
17	17	3
127	127	2
75	100	4
26	30	5
16	17	1
93	93	3
124	126	1
137	137	9
18	34	1
138	138	1
53	53	2
95	95	4
134	134	2
20	109	1
136	140	1
133	134	1
83	86	1
150	150	2
153	155	1
8	22	1
107	115	2
95	97	1
122	131	1
28	33	1
76	89	1
82	109	1
82	83	2
2	2	1
91	126	1
114	151	1
94	129	2
52	53	2
42	43	1
115	115	3
79	79	2
43	48	2
65	65	1
135	143	1
2	3	1
47	54	1
37	40	1
103	119	1
142	142	2
12	14	4
21	56	1
8	49	2
8	25	2
10	10	2
134	136	3
1	2	2
76	76	1
115	116	1
23	23	4
25	25	2
142	143	1
90	95	1
43	85	1
128	129	2
0	9	1
83	84	2
125	125	1
16	16	1
119	119	1
51	52	3
111	111	3
132	133	3
36	102	1
44	44	1
19	20	1
37	37	1
8	12	1
129	129	2
142	152	1
98	102	2
40	48	2
26	137	2
57	142	3
126	127	1
139	139	1
144	146	1
108	110	1
8	10	2
128	139	1
37	50	3
151	156	2
73	73	4
6	33	1
11	121	2
1	66	1
116	128	3
43	45	2
52	52	1
55	55	3
126	126	1
97	101	1
127	128	1
123	124	1
69	144	1
47	50	1
13	16	1
33	33	1
128	128	1
35	35	1
28	30	1
108	147	1
77	86	1
17	18	2
105	106	3
117	118	1
93	97	1
64	67	1
64	87	1
42	45	2
23	26	1
17	25	1
40	42	2
113	126	1
42	42	1
45	46	1
57	63	1
48	49	1
12	13	1
1	1	1
103	147	1
98	115	1
