119	120	1
57	63	2
47	47	7
85	85	6
77	77	6
3	4	3
74	74	6
34	35	6
22	23	1
132	142	2
19	38	5
36	40	2
53	53	6
23	85	2
56	56	7
126	126	5
75	103	1
45	45	7
24	24	11
7	7	11
43	43	2
68	119	2
132	132	6
150	150	8
153	153	5
18	20	2
123	123	7
121	121	3
54	55	3
47	51	4
28	28	3
37	37	15
103	107	2
84	84	3
81	81	1
128	128	5
131	131	2
17	36	3
14	14	9
47	49	2
162	162	3
92	92	8
99	99	7
48	48	4
35	36	2
149	163	2
162	165	3
67	73	2
163	163	4
39	39	9
46	47	13
18	149	3
137	137	6
15	16	4
98	99	4
19	23	2
100	105	2
91	91	8
86	86	7
21	22	4
113	113	4
149	164	6
135	136	2
34	34	4
17	17	3
119	119	6
129	130	1
142	143	6
118	119	4
12	12	4
121	122	5
79	79	3
82	82	7
138	138	6
115	115	5
25	25	8
43	141	2
118	118	7
165	165	1
149	149	5
45	62	3
43	44	3
0	2	3
151	151	6
64	64	4
63	63	6
91	94	2
13	55	1
6	6	3
128	136	1
138	139	5
157	157	3
113	114	3
136	136	7
148	149	1
135	135	5
115	116	1
94	103	7
140	140	2
128	129	5
20	21	3
127	127	2
168	168	5
90	91	4
160	160	6
16	16	5
67	67	8
69	69	10
81	82	5
62	63	2
94	102	2
117	119	4
96	96	2
19	19	4
24	25	3
70	106	1
46	147	2
139	139	7
124	124	4
58	61	4
87	87	6
42	42	2
39	40	3
128	138	1
12	13	5
138	141	2
44	44	4
35	35	3
21	83	2
100	100	5
51	52	5
128	140	1
122	122	2
18	125	4
117	117	4
142	142	2
110	111	1
9	139	5
63	69	3
100	112	1
89	89	3
67	116	2
4	21	4
13	13	3
118	124	1
19	85	1
36	41	1
69	119	2
40	45	3
8	8	4
10	12	1
120	120	5
10	10	1
152	165	2
10	56	5
24	103	3
163	164	5
50	51	3
21	21	4
13	17	2
143	143	2
73	73	1
46	51	5
53	54	2
85	88	1
128	141	1
77	98	2
64	110	2
51	51	5
2	4	2
65	65	3
21	23	3
144	145	4
13	52	1
33	33	5
103	103	2
109	110	2
38	38	1
14	15	4
88	88	2
105	105	1
97	101	2
126	130	2
71	72	5
7	140	1
141	141	1
126	150	3
69	108	2
23	23	4
127	151	1
70	72	3
91	102	2
152	155	1
112	112	2
127	137	1
20	146	2
0	1	3
83	85	2
152	152	7
96	99	4
65	73	2
52	61	1
94	95	4
106	107	2
24	83	4
6	139	3
95	95	2
47	48	4
170	170	5
127	138	2
169	170	1
13	14	5
44	45	2
5	6	1
11	11	1
101	103	7
90	116	3
105	106	3
101	101	5
85	87	3
4	4	4
9	9	2
9	10	2
147	148	5
71	109	5
164	164	3
143	145	3
94	101	2
106	106	11
52	52	4
46	46	3
167	168	4
53	55	2
131	132	2
11	12	6
24	147	2
144	144	2
3	3	4
167	167	3
154	154	4
40	40	3
120	123	2
87	88	4
76	76	5
108	116	1
92	95	1
46	49	2
154	161	2
109	111	1
64	70	1
146	146	3
160	161	6
80	80	1
63	65	4
134	150	1
167	169	1
96	98	2
50	50	4
144	146	4
76	80	2
26	52	2
134	134	2
20	83	2
150	165	1
154	165	2
8	128	1
121	123	4
111	111	5
66	66	2
48	49	5
20	22	4
70	70	1
70	108	1
17	18	2
73	75	1
165	166	1
23	80	1
87	89	2
43	45	2
25	108	1
1	1	6
57	76	1
109	109	1
69	107	2
36	36	4
26	27	1
156	157	3
157	158	2
134	167	1
27	27	3
42	43	3
26	46	1
159	159	3
161	161	2
24	44	3
69	116	1
92	94	1
148	148	4
104	104	2
68	68	1
133	134	1
114	115	2
156	156	3
19	77	1
110	110	3
26	26	1
54	54	2
18	18	4
155	161	1
5	5	3
5	7	2
137	139	1
100	101	3
6	7	1
2	2	2
20	25	3
117	120	2
22	57	1
16	19	1
125	125	2
55	55	4
16	44	1
73	74	1
169	169	2
115	122	1
95	104	2
105	107	1
145	150	1
19	76	3
7	48	1
159	160	1
132	139	1
62	70	1
129	137	3
90	99	1
49	49	1
15	15	3
17	74	2
117	118	1
115	117	1
155	156	3
72	72	1
26	49	1
41	41	2
130	131	1
57	71	1
92	93	1
0	3	1
65	79	1
138	155	1
38	39	1
40	48	2
91	95	1
156	162	1
139	140	4
112	113	1
15	23	1
14	27	1
106	108	2
58	58	2
83	83	1
1	2	1
93	94	1
8	99	1
95	96	3
117	147	1
157	162	2
136	137	1
119	121	1
19	119	1
25	146	1
131	160	1
102	102	1
100	103	2
16	18	1
115	118	1
151	152	1
0	0	1
17	149	1
20	23	1
24	84	1
161	164	1
78	78	1
53	57	1
22	83	1
62	62	1
49	51	1
