156	185	10
94	94	18
3	4	4
8	8	15
42	45	4
91	92	3
0	0	21
43	43	17
187	187	9
149	149	12
114	114	6
161	163	3
61	61	3
186	189	8
169	169	9
67	67	7
151	151	16
179	180	5
149	182	3
154	177	2
3	3	7
123	126	3
24	24	6
91	94	6
24	118	5
165	188	4
152	152	5
84	85	2
131	150	2
150	150	6
108	108	9
125	126	7
123	172	5
65	67	2
188	188	7
66	66	14
72	124	3
138	139	9
95	97	2
92	92	16
153	153	13
160	161	4
146	146	11
85	86	23
73	73	16
128	128	7
181	182	11
1	1	7
127	127	8
112	116	1
162	163	5
170	170	10
109	109	6
97	97	12
153	168	2
104	105	4
83	85	5
102	103	10
22	22	10
101	101	9
84	84	17
157	157	11
162	162	17
46	48	5
185	186	3
106	106	24
105	166	2
155	155	17
107	107	10
81	81	6
152	153	5
43	45	4
79	79	15
18	20	5
190	190	20
66	67	2
131	178	2
133	133	5
58	60	10
183	183	8
137	140	2
6	6	26
171	176	2
154	154	15
57	58	3
78	78	11
17	17	6
158	161	3
53	53	11
27	29	4
28	34	6
161	164	3
32	38	2
44	44	13
104	104	7
87	87	10
25	25	10
16	17	2
122	122	8
138	138	10
131	132	7
89	89	16
53	55	6
60	61	1
31	31	3
109	134	1
123	124	6
118	120	5
39	39	6
20	20	8
175	175	16
28	28	10
54	55	6
131	131	2
47	47	9
140	140	14
173	175	3
156	168	3
142	142	14
146	147	8
155	156	10
184	184	7
55	55	13
174	177	1
182	183	11
80	80	7
19	20	3
45	46	7
176	178	9
33	36	3
101	103	8
63	63	6
133	137	4
172	173	4
93	94	5
100	100	10
2	3	2
68	68	7
41	41	21
181	181	25
107	116	2
134	137	4
91	93	4
139	139	13
16	18	4
133	135	3
127	128	10
111	112	14
96	98	7
184	185	12
13	13	13
83	86	4
82	82	11
119	119	11
33	34	5
165	165	14
189	189	7
19	19	14
46	81	1
136	136	12
117	117	10
99	99	12
123	123	13
91	91	7
95	95	12
75	76	11
45	45	5
43	46	3
116	116	12
140	143	3
185	187	2
56	56	5
57	57	9
26	30	1
126	173	2
57	62	2
62	80	3
130	130	7
176	177	3
87	89	5
15	16	5
137	138	2
55	56	8
53	56	1
30	31	5
116	117	5
154	158	2
92	99	2
56	66	1
102	102	11
161	165	5
121	122	3
94	95	8
174	174	16
170	171	5
145	145	11
43	44	8
128	129	3
107	143	6
107	108	6
141	143	2
179	179	14
85	85	5
71	71	5
23	23	14
90	90	12
137	137	8
90	91	3
7	7	11
124	172	1
163	163	9
37	37	15
166	166	3
172	172	12
157	158	4
106	115	4
35	37	3
15	18	3
144	145	2
64	64	25
46	46	15
99	120	2
71	72	3
143	143	7
140	146	1
74	74	14
128	178	2
97	98	14
46	47	4
28	29	5
36	36	7
10	12	4
36	39	1
33	35	3
168	168	21
110	110	7
113	116	5
130	131	4
147	149	1
149	150	14
17	19	5
27	31	2
105	105	4
52	52	4
159	166	1
100	102	4
163	164	13
128	172	1
11	12	5
136	139	3
108	112	2
104	109	3
16	21	5
97	123	6
5	5	18
26	72	2
166	169	3
44	46	4
32	35	4
115	115	18
67	110	2
154	179	3
176	179	5
67	68	3
13	25	4
109	110	5
43	47	3
10	14	4
42	42	8
150	157	2
138	140	7
31	36	2
105	108	4
171	172	1
26	26	13
157	186	4
156	159	1
30	30	8
14	14	5
122	123	7
134	139	1
78	79	3
79	80	4
134	134	6
40	40	12
164	167	1
153	154	2
16	16	5
135	139	2
129	139	2
98	100	2
106	108	3
22	23	7
144	146	6
32	32	14
76	76	1
179	182	2
18	18	9
141	141	7
24	78	4
113	113	8
162	165	2
31	32	3
53	54	2
15	19	4
6	7	10
182	188	2
38	38	13
105	106	6
141	142	4
35	35	9
86	86	14
52	70	1
83	83	11
126	126	6
42	43	8
186	186	4
21	21	13
129	129	16
39	40	4
133	134	3
70	74	2
169	170	5
131	181	2
180	181	3
143	145	4
124	124	5
22	78	2
160	160	8
62	62	5
13	14	2
155	167	1
108	110	2
26	28	3
77	87	3
21	22	5
175	177	4
142	144	4
11	11	10
149	158	4
165	176	1
60	62	2
88	88	10
143	144	4
121	123	6
6	68	8
68	79	3
92	93	3
131	134	4
189	190	5
161	161	6
96	96	10
148	148	6
95	99	6
179	181	3
188	189	1
117	176	3
29	34	3
81	82	3
17	21	3
13	15	6
120	120	12
25	32	2
57	61	3
44	45	2
41	79	3
186	187	2
100	103	4
181	188	1
13	66	2
41	55	3
167	167	8
156	156	13
125	125	11
152	154	4
161	162	2
133	179	7
58	61	2
136	138	2
90	97	2
160	162	4
158	158	3
103	103	12
164	164	4
2	2	5
147	147	3
115	116	2
111	111	12
68	110	1
37	47	1
37	55	1
106	114	1
98	98	7
58	63	6
106	107	5
26	75	2
54	57	1
165	178	3
56	57	2
44	47	4
132	132	2
136	137	2
9	15	6
10	10	7
24	25	4
79	103	3
27	27	3
57	60	2
87	95	2
139	142	5
169	185	1
150	181	5
34	35	9
142	143	5
151	183	2
131	162	3
166	174	2
164	176	2
183	187	2
176	176	1
23	77	1
65	65	1
36	38	1
170	172	2
83	84	4
128	130	2
15	15	7
23	25	6
59	63	2
84	86	5
38	39	2
132	180	4
72	72	6
72	73	5
117	118	2
66	102	1
121	121	8
106	166	1
70	75	2
10	11	5
59	65	3
120	124	2
112	112	10
171	174	2
48	48	11
151	176	1
43	49	4
61	62	4
102	109	3
38	44	2
108	109	2
37	44	2
176	181	2
59	62	4
94	98	5
107	137	3
135	143	2
77	77	6
167	168	5
105	116	2
131	133	7
69	82	1
107	109	1
27	28	6
93	95	2
22	24	1
150	183	1
108	138	1
129	177	1
29	29	5
36	46	1
148	183	2
80	87	1
32	33	3
93	93	1
76	77	3
21	71	5
20	21	3
114	117	3
117	167	1
25	77	1
187	188	2
129	130	10
133	136	1
101	102	3
166	167	3
10	17	2
155	180	1
32	34	2
139	148	2
42	48	2
86	87	3
120	123	3
26	27	5
178	179	6
119	122	1
131	179	2
88	89	2
156	158	4
113	115	2
53	75	1
65	66	2
6	8	1
12	12	4
140	141	6
154	180	2
130	134	3
78	82	4
111	132	2
160	177	3
59	60	1
152	159	1
173	173	5
147	148	1
171	173	6
118	122	1
97	125	1
96	97	6
89	93	1
157	166	1
63	64	5
89	95	3
156	162	1
104	107	2
71	74	2
170	175	1
56	62	1
60	64	4
70	71	5
94	96	1
187	190	5
57	68	1
27	65	1
69	80	1
71	73	1
177	177	2
160	180	1
126	128	2
159	159	1
157	162	2
145	147	1
61	64	3
29	30	2
58	58	2
66	68	2
13	92	3
35	45	1
57	67	3
33	37	2
41	42	1
3	5	1
1	2	3
133	147	2
96	125	1
128	143	1
113	114	3
182	182	2
148	149	1
7	8	3
42	44	1
47	72	2
104	116	1
75	75	3
58	65	2
188	190	5
119	120	2
79	82	2
5	6	4
183	185	1
98	126	3
64	67	3
134	135	9
92	94	4
112	114	1
54	54	2
60	60	1
177	178	2
63	67	1
129	151	1
166	190	3
68	101	4
163	176	1
6	87	1
73	74	1
4	4	2
157	184	1
33	33	2
6	23	1
134	175	2
47	48	4
4	5	2
26	76	2
153	184	1
105	107	3
132	137	2
12	13	2
137	145	1
62	63	3
59	59	7
118	125	1
28	33	3
22	77	1
148	173	1
98	125	1
139	147	2
92	95	3
27	30	3
98	124	1
130	178	3
55	62	1
38	48	1
171	171	7
147	150	2
70	78	1
185	185	4
80	81	1
87	88	3
4	6	2
124	125	1
14	16	2
173	174	2
180	180	4
130	177	1
183	184	2
132	162	1
171	175	1
10	13	1
21	26	1
115	117	1
118	121	1
180	190	2
145	149	1
35	44	3
71	76	1
150	184	1
167	169	1
126	137	1
110	111	4
8	17	2
40	41	1
160	163	1
127	129	1
81	93	1
77	78	1
154	155	1
111	134	2
66	69	1
157	159	3
64	66	2
78	85	2
170	173	2
40	47	1
31	46	1
61	63	2
164	165	2
90	101	1
73	76	1
174	175	1
107	117	1
126	127	2
30	34	1
8	20	2
148	150	1
145	146	3
162	170	1
92	100	1
154	175	1
108	117	2
114	115	2
52	54	2
28	62	1
70	82	1
160	164	1
30	35	1
150	178	1
60	157	1
70	76	1
29	45	2
14	31	1
110	113	1
52	53	1
12	15	1
55	57	1
130	133	1
118	118	2
80	100	1
109	112	2
23	24	1
123	165	1
178	178	1
43	80	1
59	81	1
68	69	2
25	26	1
166	175	1
154	159	1
8	10	1
128	133	1
27	36	1
114	116	1
18	74	1
21	28	1
