199	200	8
197	197	3
120	186	2
235	236	3
36	36	11
145	192	4
10	74	2
11	91	2
0	0	13
103	103	8
59	59	5
10	10	11
30	30	12
221	221	12
231	231	20
159	159	12
64	108	5
36	75	3
224	226	1
166	230	5
27	27	17
123	123	13
8	8	23
151	151	14
80	81	4
146	147	5
152	152	18
15	20	1
33	33	17
140	140	2
2	3	3
180	180	19
190	190	4
41	41	7
116	130	3
29	32	1
216	217	1
204	204	5
29	30	8
17	17	6
104	105	7
57	57	14
233	233	8
41	75	2
36	84	4
225	226	3
107	115	1
166	171	2
203	203	10
42	42	22
128	128	5
183	183	12
120	127	3
176	219	6
139	140	2
212	212	5
85	85	7
103	227	3
25	25	10
98	98	6
29	29	19
71	71	10
207	221	1
219	219	15
81	82	8
123	124	2
75	79	6
188	190	6
177	178	2
104	106	4
168	168	8
21	21	8
109	135	2
65	65	9
119	122	2
210	210	5
82	82	15
70	70	8
222	222	9
213	213	9
174	174	1
44	45	4
100	101	4
67	67	6
16	16	14
122	123	4
156	156	4
124	185	3
241	241	10
62	62	7
177	181	2
33	80	1
52	63	3
43	43	14
82	122	3
150	150	8
157	157	8
198	198	4
211	211	8
183	194	2
99	100	8
23	23	6
74	74	11
38	38	22
120	120	4
101	102	12
151	215	2
83	83	13
21	103	6
50	81	8
227	227	17
176	176	19
136	136	4
195	196	2
37	106	2
40	40	13
216	216	16
18	19	3
129	130	5
242	242	1
54	54	19
147	148	3
238	238	10
66	66	10
150	151	8
32	32	11
166	169	3
104	104	2
56	57	4
47	180	1
14	113	1
44	44	15
12	12	5
134	134	10
179	180	6
189	189	5
5	7	2
206	207	4
160	194	4
39	39	16
162	162	13
69	75	5
153	153	3
88	89	5
148	149	3
7	22	1
217	217	5
76	81	1
5	8	4
112	218	1
178	178	13
236	236	9
155	184	5
30	31	3
15	60	4
9	37	1
45	45	15
84	84	3
75	75	14
227	231	1
80	123	1
15	15	9
135	188	7
72	72	9
46	71	3
192	196	6
138	139	2
187	187	4
133	135	5
196	196	5
130	130	6
117	188	4
164	164	3
6	6	5
33	34	4
74	219	1
131	131	7
202	202	7
169	178	4
9	9	14
178	219	1
163	163	6
13	18	6
19	20	4
77	78	8
166	170	1
50	50	12
153	193	4
49	51	8
126	126	5
194	195	3
124	127	3
215	215	3
229	229	14
5	5	7
117	170	2
34	34	8
5	6	3
181	182	2
85	97	2
199	199	8
32	40	1
83	84	5
96	97	3
151	190	2
7	16	3
174	182	4
156	157	5
103	104	2
230	230	9
133	133	17
50	75	1
103	105	8
135	135	15
4	48	2
166	167	5
125	125	3
77	84	3
220	220	5
156	187	1
55	56	1
100	100	6
53	217	2
9	10	3
68	69	5
167	167	6
44	238	2
62	65	5
237	237	8
129	129	3
214	216	2
42	43	1
49	50	1
95	103	5
11	11	8
144	200	1
4	125	5
130	131	2
3	13	4
115	115	3
66	67	13
106	106	3
105	105	7
53	190	5
211	213	9
147	147	5
114	114	5
209	209	11
6	42	2
11	83	4
1	177	3
40	41	3
14	14	14
62	64	5
4	119	3
99	99	11
160	160	10
141	141	5
35	35	8
66	68	4
4	13	4
49	60	5
22	23	6
52	53	2
197	233	5
7	14	2
121	128	5
3	3	1
31	32	4
218	218	9
129	135	3
116	116	6
228	228	7
66	69	3
226	227	6
201	201	11
165	165	5
33	75	1
51	135	2
26	27	3
167	168	1
77	77	9
48	49	2
7	7	12
47	47	7
33	84	1
61	62	4
58	60	3
24	25	1
61	61	12
60	60	5
85	86	4
58	58	13
84	85	5
211	212	2
118	118	5
191	235	4
200	201	5
146	146	4
56	77	2
36	37	4
31	80	8
102	103	2
170	172	2
202	238	3
55	55	20
106	107	5
20	25	5
196	197	3
16	114	5
163	164	2
7	8	8
136	155	2
185	185	5
19	19	6
185	186	2
117	172	1
170	180	5
31	31	10
44	217	7
181	181	5
46	46	6
12	17	4
64	64	11
224	224	1
127	190	6
161	197	2
179	179	4
172	172	4
111	112	4
88	88	5
173	173	8
86	215	5
3	37	1
217	218	1
108	115	1
104	115	1
205	206	7
164	165	3
141	209	1
65	165	2
171	179	4
48	59	2
205	205	7
20	20	13
67	68	3
102	102	2
57	65	2
24	54	1
18	22	2
154	195	6
111	111	8
82	84	2
203	204	6
186	187	3
144	144	3
25	26	1
140	141	4
124	124	6
80	80	3
225	225	5
14	17	1
145	145	3
240	240	4
113	113	1
13	13	5
31	35	1
22	22	7
158	159	1
51	52	9
6	7	11
47	48	1
133	140	2
143	189	2
48	48	9
185	207	5
151	152	2
153	229	2
72	110	3
33	35	1
71	180	4
207	207	7
27	28	2
147	169	2
200	200	5
152	161	1
13	14	8
155	155	4
28	28	7
191	191	5
3	64	2
53	54	1
142	142	11
106	197	3
158	158	10
31	76	3
108	108	4
2	59	3
143	147	2
134	187	2
214	215	6
115	116	5
18	18	7
56	56	2
228	231	2
82	83	1
63	63	6
73	73	11
150	213	8
195	195	3
139	139	5
227	228	4
106	110	1
15	19	2
236	238	3
53	53	11
141	156	2
201	203	3
12	95	4
169	169	6
52	52	2
177	177	3
170	171	5
79	79	2
26	26	7
10	11	3
164	206	3
135	138	4
2	2	1
154	154	5
4	6	2
20	136	2
2	66	1
104	118	1
212	213	4
81	83	2
68	68	6
160	195	3
166	172	2
1	2	4
1	50	3
201	204	2
43	45	5
184	185	3
69	69	5
148	148	7
68	218	3
236	237	3
140	226	2
37	41	1
51	129	5
122	124	4
127	127	4
4	14	4
24	24	9
161	161	4
198	200	1
164	186	1
3	65	2
132	136	2
10	26	3
16	17	13
211	232	2
12	15	1
21	22	2
35	80	1
194	194	2
233	234	1
81	81	10
37	38	1
143	143	3
142	153	2
96	96	2
64	65	2
49	49	2
23	54	4
226	226	3
213	215	3
24	32	4
160	184	1
21	24	2
175	175	6
33	50	2
120	122	3
156	206	1
132	168	3
39	42	3
167	231	2
55	63	2
91	126	1
75	102	3
100	200	2
159	195	2
86	86	11
0	100	2
78	79	7
0	1	1
223	223	4
19	48	3
71	73	3
78	81	3
137	137	4
12	13	2
201	205	4
118	190	3
79	84	1
6	16	2
166	166	2
153	205	1
117	120	3
50	177	2
99	225	2
113	135	1
143	202	2
44	224	1
4	15	3
116	171	1
17	80	3
51	74	1
138	138	3
63	73	1
153	161	1
30	78	2
192	236	1
59	60	4
163	199	2
27	42	3
77	80	3
43	44	1
43	46	2
202	203	1
206	206	3
138	140	5
154	197	1
187	208	3
39	69	1
154	161	2
199	201	2
166	179	1
118	119	2
65	66	1
4	5	4
101	146	3
104	116	2
135	136	3
6	12	1
101	229	1
169	217	3
76	76	2
21	84	2
155	157	2
75	77	7
24	69	1
12	122	1
137	138	1
99	226	1
184	184	2
197	202	4
147	161	1
91	91	1
165	170	1
207	217	2
22	96	5
239	239	4
4	7	1
168	215	4
76	84	1
63	64	3
107	190	2
39	40	1
159	160	1
198	199	2
103	106	3
201	238	3
121	121	5
117	118	2
5	12	1
45	74	2
30	79	2
118	120	2
34	35	2
11	37	2
5	125	5
153	154	1
105	114	1
154	155	1
72	73	2
109	190	1
28	29	4
163	168	1
215	216	3
40	42	1
37	37	4
188	191	1
41	222	3
97	97	2
115	137	3
16	96	1
105	113	2
188	189	2
212	216	1
51	217	2
193	193	1
105	106	1
140	143	1
117	117	1
86	97	1
2	49	1
229	231	1
153	162	2
140	157	1
73	74	1
21	81	1
176	177	1
111	235	2
239	242	2
15	16	1
85	88	4
113	119	2
101	101	2
56	58	1
44	182	1
58	59	1
107	137	1
74	75	1
149	150	1
143	228	6
62	63	1
100	229	2
210	211	1
54	55	1
172	175	2
3	114	2
235	235	1
37	42	2
160	207	1
146	224	2
224	225	1
183	184	2
109	110	1
75	106	1
192	192	2
197	237	1
143	204	1
125	126	1
122	162	2
121	122	1
186	186	2
222	223	2
112	113	1
14	95	1
194	212	1
234	234	1
119	119	2
103	108	1
11	97	1
153	230	1
109	109	1
31	82	1
13	17	2
15	67	1
45	235	2
163	200	1
14	15	2
4	17	1
170	178	1
188	188	1
55	178	1
180	208	1
228	229	1
129	166	1
107	108	1
202	204	1
48	56	1
148	169	1
95	95	2
105	198	3
125	129	2
25	145	1
32	86	1
45	86	1
56	65	1
122	122	1
18	20	1
144	145	1
110	110	1
232	232	1
102	227	1
71	72	1
102	106	2
221	231	1
44	74	1
3	49	2
111	217	1
78	78	1
112	112	1
122	185	1
173	174	2
141	142	1
182	183	1
229	230	1
27	29	2
170	170	1
57	81	4
102	144	2
118	171	1
178	180	2
53	64	1
181	189	2
6	37	1
58	65	2
212	231	1
182	235	1
4	4	1
191	192	1
115	117	1
0	2	1
23	96	1
134	136	1
102	105	1
139	141	1
65	106	1
113	127	1
38	39	2
153	195	1
102	225	1
54	85	1
223	224	1
33	52	1
171	187	1
169	189	1
8	9	2
31	79	1
105	118	1
65	69	2
53	135	1
99	227	1
149	149	1
183	188	1
60	64	1
160	162	1
114	127	1
155	156	1
98	101	1
49	108	1
10	112	1
