78	85	2
118	118	5
154	157	2
8	51	1
24	28	6
50	50	11
16	20	6
41	41	6
3	3	8
39	39	14
56	64	2
135	135	7
49	54	3
52	54	2
2	2	7
109	109	8
88	88	12
43	43	4
118	144	4
35	35	4
94	94	10
151	151	9
155	156	9
41	55	7
109	118	3
19	20	7
45	45	4
155	155	5
49	53	1
17	17	12
22	27	1
17	18	9
114	115	7
78	79	16
99	99	13
6	6	6
123	123	9
72	72	8
121	121	3
28	89	5
85	88	4
84	120	1
108	144	2
85	85	16
136	136	7
132	147	4
11	11	10
146	146	3
108	150	3
113	114	5
111	111	5
95	96	1
123	127	1
90	90	2
103	103	8
101	110	5
93	93	14
14	50	3
25	27	4
26	27	2
87	87	20
51	51	5
24	24	18
117	117	6
22	34	2
67	121	1
86	89	8
112	112	16
34	34	6
64	69	2
16	21	1
121	122	3
80	80	15
88	89	4
39	48	4
140	140	8
10	10	2
50	51	3
97	98	4
152	152	19
148	148	5
41	52	3
149	149	6
32	32	9
126	126	4
57	63	2
129	130	2
36	36	10
18	19	2
87	105	1
28	28	6
100	100	13
64	95	2
91	92	2
130	130	10
81	107	3
21	23	2
114	132	3
144	154	2
27	27	5
110	110	11
157	157	1
134	134	24
69	70	5
13	14	5
138	138	7
31	42	1
42	121	1
68	108	2
6	36	1
116	116	13
143	144	1
0	0	5
7	7	9
106	106	9
137	137	10
45	147	1
79	79	11
108	109	3
69	71	4
32	35	1
11	16	1
128	128	6
71	71	4
132	132	5
37	37	4
82	83	4
100	104	2
117	118	7
13	13	6
101	101	10
142	142	4
64	64	5
1	43	6
95	98	3
127	155	3
120	125	6
81	134	2
71	123	2
65	65	5
1	105	2
16	17	1
145	145	8
109	112	2
117	119	1
11	14	3
150	150	7
114	114	11
112	147	5
51	52	1
20	20	11
55	55	16
22	22	7
113	113	9
67	85	1
81	143	2
70	82	3
63	122	2
54	106	3
118	120	3
156	156	2
85	86	4
137	153	2
144	146	1
15	15	8
32	53	3
69	69	7
1	28	2
75	75	11
95	107	2
109	144	1
107	107	12
14	14	5
23	24	2
131	132	12
120	121	5
46	46	6
143	143	1
104	105	5
22	25	2
127	127	12
105	105	10
62	62	2
63	70	5
16	22	4
145	146	4
86	86	7
70	70	8
130	131	2
119	119	8
154	154	1
18	39	1
144	144	10
123	136	2
0	89	2
140	141	4
63	144	3
57	134	1
110	114	3
6	55	1
4	5	1
72	73	1
11	12	6
89	106	3
70	79	3
122	122	10
70	122	2
115	158	1
53	54	3
11	13	2
96	101	3
57	142	1
91	104	5
45	47	1
18	18	4
108	112	2
141	141	5
109	113	2
42	63	4
48	57	4
84	84	7
38	38	2
131	131	11
20	39	3
117	122	2
108	108	6
40	66	1
34	39	2
103	105	2
120	155	1
86	87	8
92	92	10
87	117	3
63	124	1
15	52	4
28	29	1
81	82	2
5	6	4
33	33	14
23	23	13
107	122	2
66	66	7
47	47	3
91	91	9
14	32	3
3	4	2
136	137	2
36	37	4
35	36	6
66	89	2
14	15	8
106	116	1
8	45	1
83	83	6
82	82	3
67	97	3
40	40	5
100	141	1
126	137	2
111	112	1
152	153	1
11	32	2
54	55	4
147	147	6
46	47	2
72	75	2
37	38	1
124	150	2
41	42	3
70	134	1
16	92	3
133	147	1
89	89	7
146	147	5
30	31	1
109	114	1
41	99	3
127	140	2
141	142	3
111	132	1
128	129	4
31	32	2
137	148	2
122	144	3
132	149	2
12	13	1
104	104	8
115	115	9
49	57	6
26	29	1
120	120	3
139	140	6
98	99	2
37	55	3
38	39	5
8	8	12
120	153	2
20	38	4
3	39	1
118	119	3
64	89	2
6	7	3
135	152	1
55	56	2
129	129	10
153	153	4
4	4	3
133	133	2
137	144	1
12	15	1
144	145	5
68	78	3
67	132	5
99	102	2
69	78	2
3	37	1
104	137	2
108	113	1
115	128	1
52	52	4
139	139	5
125	125	3
29	88	1
90	91	5
31	50	1
78	87	4
132	140	4
56	56	3
5	5	6
111	149	2
25	46	3
24	70	4
23	57	1
21	48	3
98	98	1
77	77	7
136	144	3
149	152	1
2	22	1
108	111	1
52	53	1
14	57	2
83	89	1
113	126	3
39	40	1
24	142	2
68	69	5
67	117	5
38	49	1
73	74	2
109	128	2
80	83	2
42	48	1
26	26	6
26	28	3
45	46	1
127	139	2
73	73	2
70	85	1
45	63	1
1	1	4
77	123	1
96	103	1
41	45	1
44	44	6
99	106	1
97	97	4
70	121	1
89	90	5
47	49	3
50	104	1
83	84	2
30	32	2
48	56	1
69	120	2
15	51	2
99	101	2
88	104	1
91	93	1
92	93	1
1	2	3
98	157	1
69	81	1
42	42	3
135	138	2
31	45	2
5	23	2
100	101	1
37	140	1
114	127	2
106	107	6
109	111	1
25	26	1
2	27	1
67	107	1
72	134	2
158	158	3
12	12	1
68	68	3
4	26	1
56	63	1
48	48	1
102	103	3
26	31	1
23	56	2
33	43	2
70	77	3
25	142	4
7	17	2
154	156	1
78	78	1
80	97	1
25	25	1
67	89	1
26	30	1
96	96	4
124	125	2
31	51	5
86	117	2
115	117	2
27	28	3
8	14	1
4	30	2
53	53	4
64	67	1
21	22	2
151	152	4
38	53	2
27	43	1
140	149	2
89	118	1
109	110	1
1	4	5
16	16	8
26	40	1
3	43	2
10	11	1
3	31	2
121	124	1
131	133	2
150	151	1
124	124	2
69	72	1
95	103	2
9	9	1
96	97	3
148	149	5
89	105	1
63	68	1
128	130	2
94	104	2
100	102	3
44	45	2
9	15	2
24	25	2
9	10	3
38	48	1
0	22	2
41	145	1
130	143	1
67	67	2
100	105	2
146	150	1
118	128	1
135	140	2
64	142	2
144	153	1
132	133	2
22	23	1
107	108	3
111	117	1
67	122	1
30	30	4
2	28	2
117	143	1
6	132	1
140	142	1
25	42	1
112	113	1
10	54	2
31	43	2
10	14	1
127	131	2
79	106	1
19	19	2
43	123	2
97	101	3
82	85	1
9	14	1
117	121	1
145	150	3
71	79	2
113	149	2
32	33	3
121	155	2
42	44	1
29	90	1
37	39	1
29	39	1
68	120	1
29	31	1
79	134	2
51	90	1
84	117	2
85	107	2
40	51	2
112	131	1
122	131	1
17	39	2
29	29	2
113	122	1
43	127	3
40	41	1
77	78	1
31	49	1
137	154	1
115	127	2
10	16	1
8	79	1
63	64	1
55	99	1
50	52	2
116	117	3
88	117	1
122	154	1
15	16	1
48	49	2
76	76	1
107	123	1
109	127	1
54	84	1
76	79	1
42	43	1
113	158	2
82	94	1
71	87	1
113	133	1
41	54	1
5	29	1
10	36	1
95	95	2
99	100	1
67	86	1
120	124	1
36	51	1
122	146	1
43	120	1
111	131	1
152	154	1
122	136	2
154	155	1
68	96	1
94	95	1
39	54	1
63	63	1
123	124	1
77	79	1
148	152	1
31	31	1
140	144	1
101	102	1
22	28	1
68	70	1
7	16	1
139	154	1
119	125	1
