46	46	7
160	160	2
89	90	3
13	13	2
168	169	2
182	183	13
33	33	6
138	176	3
125	125	3
172	173	4
126	126	5
170	170	4
60	60	2
115	115	2
131	132	6
116	187	5
129	129	3
66	103	1
141	141	2
72	72	5
142	143	7
66	66	1
146	154	4
175	175	4
40	40	6
147	147	6
58	83	5
96	140	2
144	144	1
159	163	6
107	109	3
8	8	6
140	140	6
36	36	8
158	158	3
173	174	2
138	139	4
7	7	4
37	38	4
152	152	12
57	60	9
174	175	3
54	65	1
68	71	7
80	80	8
20	21	6
80	81	3
87	87	6
103	106	6
113	113	3
20	20	4
65	65	1
124	163	3
137	139	2
74	89	5
149	149	3
82	107	3
79	79	1
29	33	4
22	26	2
12	42	6
91	92	4
42	114	2
154	154	6
14	15	2
93	95	4
5	5	4
147	162	1
61	62	9
75	106	1
6	6	5
92	107	3
121	144	2
114	119	3
80	169	1
146	147	3
153	153	6
111	112	8
87	107	2
107	107	1
86	108	2
123	123	4
16	18	1
67	67	4
60	61	2
94	94	6
90	90	6
133	138	4
137	138	1
87	109	2
57	58	4
74	99	2
120	120	6
48	48	5
169	169	6
46	55	1
44	44	3
45	47	5
29	29	7
180	180	4
64	65	1
64	64	2
182	182	4
100	140	3
0	0	3
58	58	1
146	148	1
174	174	3
157	178	4
33	36	4
77	77	1
55	55	5
11	42	4
71	73	3
126	178	6
185	186	2
126	138	1
111	111	3
140	188	4
13	14	1
10	10	3
143	143	1
94	97	3
136	141	3
56	65	1
109	110	1
178	179	2
132	132	5
62	62	2
92	93	3
153	154	1
133	136	1
32	118	2
38	38	4
38	39	2
128	128	4
18	18	3
130	167	4
97	136	3
178	183	2
49	49	1
156	156	2
185	185	3
13	20	5
23	23	2
39	39	2
109	109	3
75	75	2
35	37	3
124	124	2
135	169	2
45	46	3
152	162	1
58	76	4
10	46	8
179	180	1
23	24	4
135	135	2
177	177	3
187	187	1
136	167	2
99	99	1
114	114	4
56	56	1
166	168	1
84	86	2
13	15	1
35	36	2
116	116	10
26	26	1
151	183	2
89	110	1
121	122	5
102	102	1
175	176	3
17	17	5
32	36	1
136	172	1
113	115	1
15	15	2
95	95	5
84	84	3
181	189	1
30	32	1
93	93	1
171	173	1
96	96	5
160	172	2
139	139	3
166	166	2
117	122	4
32	35	1
118	118	1
70	70	1
126	127	1
85	85	3
121	121	6
167	167	2
57	61	1
34	34	2
78	81	1
4	4	1
159	160	2
76	76	1
25	25	2
27	27	4
60	180	1
43	43	1
78	78	1
101	101	3
130	133	2
90	102	1
1	1	3
130	131	1
130	130	1
130	181	1
168	168	1
126	143	1
31	32	2
3	4	1
102	103	2
21	22	1
16	16	2
35	35	1
121	123	2
71	80	1
91	91	2
165	165	3
189	189	1
91	93	1
9	9	1
81	81	2
183	184	1
88	88	1
54	57	1
36	38	1
186	186	1
188	188	1
65	66	1
58	66	2
121	124	1
106	107	2
157	157	1
97	101	2
160	163	1
156	157	1
170	172	1
71	71	1
148	149	3
106	114	1
14	18	2
164	176	1
86	86	1
129	130	1
190	190	1
5	24	1
160	164	1
129	131	1
134	134	1
28	30	1
133	135	1
173	173	1
33	35	1
9	10	1
47	48	1
