56	57	6
39	40	2
69	70	3
66	66	22
60	68	2
8	16	11
1	2	1
45	45	17
127	129	4
60	60	29
109	110	4
77	77	25
85	85	22
73	73	19
43	43	11
86	87	7
110	111	3
10	10	19
3	101	7
112	114	6
61	63	4
21	22	5
54	55	1
29	29	23
18	18	4
16	17	4
120	130	1
46	46	22
30	32	6
34	34	21
86	86	8
32	32	13
103	105	2
20	20	3
41	42	2
72	73	8
36	37	4
123	123	7
67	67	9
63	63	14
82	83	12
84	91	7
58	58	11
76	76	5
47	47	31
12	12	34
63	77	5
117	119	8
69	69	14
68	69	9
57	57	10
91	91	3
122	122	7
9	45	1
38	38	10
61	61	18
37	40	1
9	9	9
68	68	21
64	64	14
75	76	10
87	88	5
80	81	5
12	45	1
36	36	6
27	27	12
29	31	3
62	85	1
73	74	5
43	74	1
102	102	9
48	101	5
62	66	2
110	110	8
37	37	2
3	3	15
123	124	5
43	44	5
71	71	21
26	26	25
51	55	1
23	23	17
108	108	4
126	126	3
6	9	2
45	62	2
34	62	3
81	87	2
11	14	3
4	4	9
17	26	3
87	87	15
46	47	4
41	41	3
33	62	2
28	28	13
107	107	6
64	75	2
92	93	6
4	7	5
11	11	26
106	107	6
0	1	5
5	7	2
21	21	11
72	72	27
105	105	6
34	36	2
92	96	4
14	14	7
40	41	1
112	113	7
60	70	1
13	13	11
93	93	23
101	101	27
92	92	12
96	96	9
93	94	4
12	13	2
95	95	17
37	38	5
78	78	27
80	80	12
6	7	4
74	76	2
49	49	8
81	81	14
116	116	11
6	6	8
32	36	5
28	80	2
112	112	15
85	86	3
5	5	12
45	46	17
99	100	4
105	108	7
19	21	3
98	98	6
94	95	13
46	61	2
30	30	18
9	11	1
132	133	3
75	75	15
8	8	24
11	12	4
1	1	3
95	96	5
16	16	8
94	98	4
121	122	4
12	46	4
7	7	10
22	22	5
2	2	4
44	44	14
103	108	7
11	27	4
35	35	13
72	100	4
63	78	3
83	83	10
70	70	12
111	111	12
105	109	1
2	17	2
15	15	7
117	117	10
59	61	4
106	106	6
119	119	3
100	100	4
25	26	2
18	44	2
76	77	7
82	82	19
87	93	3
3	4	2
10	22	3
120	120	8
56	56	2
8	9	9
3	100	4
82	93	7
121	123	3
65	65	12
12	93	1
37	39	3
124	124	7
103	103	3
51	56	6
110	115	1
72	102	1
62	63	4
5	6	12
67	70	1
40	40	6
78	80	5
97	97	4
18	74	2
63	64	5
20	21	4
25	25	6
16	75	2
77	118	4
57	58	2
17	75	2
7	75	2
62	62	8
33	33	12
42	42	3
119	120	3
88	93	2
127	127	4
58	63	3
9	14	2
31	31	3
8	25	2
125	125	5
84	84	13
57	80	4
30	60	6
10	24	3
126	128	1
58	74	4
59	59	13
75	110	2
30	49	1
21	35	2
125	128	3
96	97	7
23	24	3
58	59	1
107	108	2
102	122	2
121	121	8
128	129	1
13	14	9
26	27	5
76	80	1
9	16	4
11	45	3
131	134	1
65	66	3
26	79	1
11	13	1
59	84	4
117	118	3
35	74	1
19	19	5
74	74	9
20	122	3
47	48	2
25	83	1
71	73	3
8	76	2
17	60	2
84	85	2
68	71	1
2	3	5
10	77	3
104	104	5
71	74	1
17	17	10
35	36	3
85	95	3
113	114	1
109	109	2
26	101	1
104	109	4
77	83	3
102	113	1
71	72	2
4	5	1
12	76	1
84	122	2
115	115	3
27	90	2
27	80	4
31	32	5
43	45	3
73	100	3
58	60	2
79	79	5
2	101	4
102	108	3
74	75	6
99	99	3
87	95	2
25	49	1
7	48	2
6	11	2
108	109	7
38	39	2
72	74	2
89	89	9
90	129	2
48	48	9
9	64	3
45	61	2
130	130	3
43	83	1
66	83	1
84	88	1
30	86	3
132	132	1
89	90	2
100	101	4
8	11	2
34	35	4
59	60	1
98	99	2
10	12	2
14	15	5
16	40	1
87	89	1
110	114	2
15	16	1
78	82	4
125	126	4
90	90	1
64	65	3
79	80	5
66	67	1
28	47	1
43	82	1
109	116	1
24	82	2
97	98	1
24	83	1
94	100	2
12	21	1
107	109	2
33	34	3
91	92	4
27	78	1
114	115	1
109	115	1
16	18	2
14	40	2
55	55	2
101	102	3
37	42	1
121	134	3
91	107	1
21	44	1
8	101	2
101	130	2
94	94	2
87	106	1
29	30	3
86	105	1
38	56	4
29	48	2
77	78	1
37	57	2
91	128	1
19	121	2
40	42	1
29	49	1
6	16	2
61	75	3
10	11	4
9	10	2
44	84	1
85	97	3
31	60	1
108	110	1
134	134	1
10	21	1
48	50	1
7	8	2
27	77	1
16	60	2
79	82	1
81	82	3
48	49	2
129	130	2
88	91	1
79	81	1
118	118	1
75	77	1
20	22	1
70	72	1
88	89	1
46	70	2
114	114	2
14	93	1
126	127	2
50	50	1
45	47	1
128	128	1
122	123	1
110	121	1
108	111	1
17	118	1
72	76	2
109	113	1
61	64	1
96	98	1
45	76	1
15	74	1
0	0	1
18	118	2
89	91	1
59	85	1
8	10	1
82	92	1
18	63	1
94	96	1
16	74	1
10	14	1
