123	123	38
17	101	1
50	50	6
31	31	10
105	105	17
109	132	4
116	116	4
43	43	8
22	22	6
115	115	9
16	16	11
19	19	16
128	128	17
12	13	2
15	16	2
141	141	10
89	91	1
133	133	15
18	18	25
142	143	12
144	144	12
118	118	15
49	49	9
136	136	19
134	135	17
104	105	1
112	113	4
42	43	3
3	3	3
77	78	4
131	132	5
110	110	22
139	139	13
114	115	5
21	21	4
92	99	3
89	89	7
102	102	7
56	56	8
101	101	8
94	131	1
132	132	10
137	139	5
120	120	9
66	66	12
132	134	3
117	117	19
39	40	13
38	39	3
80	80	14
24	24	8
106	106	7
4	27	1
102	129	2
127	127	16
17	19	3
69	69	15
79	84	7
27	38	1
20	20	16
48	48	14
125	125	11
16	67	5
92	92	6
94	103	1
126	127	6
59	59	11
74	76	3
137	137	6
133	137	3
94	94	10
99	103	2
96	96	3
58	58	9
112	112	4
14	15	3
87	88	8
71	71	8
94	95	2
50	51	7
42	42	8
138	138	14
129	132	5
140	140	9
129	130	10
12	12	6
74	111	1
38	38	19
1	94	6
130	131	8
91	91	8
70	71	7
49	52	2
2	2	5
61	61	14
21	34	2
95	95	12
25	25	10
110	111	9
47	47	2
35	38	1
123	135	2
74	74	7
35	36	13
30	30	9
122	123	7
73	73	15
82	82	7
34	35	11
57	57	11
90	90	7
103	103	10
53	53	8
121	125	6
119	128	1
76	78	8
126	130	1
136	139	3
4	4	11
113	113	10
27	27	7
140	141	5
134	134	19
36	37	1
22	23	1
104	104	15
105	113	1
84	85	2
29	29	4
0	118	1
136	138	6
132	133	8
77	77	11
121	121	5
93	94	4
23	24	11
142	144	5
5	6	5
53	54	3
33	33	4
34	34	12
62	63	6
130	130	16
117	119	4
114	119	2
133	135	3
135	135	3
83	83	3
17	17	12
52	52	15
109	109	12
92	97	4
81	81	12
126	129	6
85	86	5
63	63	6
108	109	9
24	66	2
134	136	6
95	102	3
12	14	2
108	113	4
73	75	3
131	131	11
122	141	3
123	134	6
16	69	1
14	17	1
64	70	2
128	129	5
97	98	3
98	110	3
124	124	6
61	99	1
145	145	3
131	136	2
87	109	7
64	64	14
117	118	4
34	48	3
9	9	15
10	40	1
2	117	2
75	75	9
64	65	6
122	122	9
121	122	7
111	111	7
20	26	4
8	9	3
96	138	1
29	42	4
135	137	1
73	85	3
65	65	15
9	10	8
62	85	2
26	26	8
23	37	6
119	120	7
14	16	7
73	74	1
114	114	13
79	79	6
10	10	7
55	63	3
76	76	5
118	119	10
28	28	7
105	111	1
142	142	8
135	136	3
116	118	5
1	1	6
71	72	5
84	84	4
79	81	5
99	138	1
3	19	1
52	53	4
125	126	1
99	100	2
99	99	14
141	142	1
22	32	1
119	142	2
119	136	3
108	108	4
95	99	2
77	109	3
126	126	11
58	62	3
10	14	4
18	19	7
26	29	1
36	36	9
42	51	4
137	138	8
30	32	1
25	53	1
25	117	1
40	40	4
107	108	6
67	69	2
32	39	2
13	13	3
2	26	3
10	11	5
24	29	2
102	103	8
131	133	3
60	60	5
79	104	1
72	108	5
5	5	7
8	8	2
125	127	7
122	126	2
82	83	1
120	121	6
37	37	9
3	4	5
31	37	3
18	42	3
9	39	2
40	49	1
74	75	12
124	125	4
91	124	1
78	79	3
16	26	2
115	116	7
11	11	5
67	68	7
29	30	6
55	56	3
117	131	2
29	124	2
93	93	4
23	27	2
51	52	4
63	69	1
52	55	1
121	127	4
17	94	1
98	136	1
96	110	1
123	140	1
46	47	2
95	96	3
31	32	4
50	66	2
25	28	1
95	98	3
82	87	1
136	137	3
41	42	10
123	124	4
9	20	2
122	130	2
113	114	4
114	117	1
83	85	3
6	6	8
97	99	4
4	6	4
16	65	1
118	131	4
98	98	2
33	39	2
85	85	7
77	128	2
129	129	7
18	41	6
32	32	8
81	118	1
69	71	1
83	84	4
68	70	1
146	146	2
130	143	1
62	62	4
127	129	1
54	54	6
92	93	1
112	116	2
127	130	4
92	114	2
126	141	2
70	70	5
107	107	2
49	67	2
40	41	2
66	67	2
67	67	6
79	89	1
89	101	3
39	39	4
93	104	1
55	55	6
4	5	3
91	92	3
68	68	4
15	15	7
74	88	6
22	28	2
79	80	3
56	98	1
100	100	4
122	143	2
87	108	1
118	140	2
26	66	5
5	15	1
59	60	2
143	144	5
21	39	1
117	144	1
87	87	1
78	78	5
19	40	1
61	62	1
61	84	1
35	35	1
96	97	2
31	39	1
20	36	3
117	133	1
105	107	3
33	34	4
9	50	3
128	137	1
2	93	2
64	85	1
80	81	4
50	52	1
69	70	1
80	133	3
66	68	2
31	36	1
26	27	2
126	128	3
123	144	2
89	90	3
119	119	3
0	1	5
50	53	1
23	39	2
6	19	2
88	88	6
123	130	1
122	131	2
118	133	1
124	128	1
65	69	1
133	136	3
41	41	3
25	27	2
56	57	1
141	143	1
71	109	1
0	75	1
30	38	1
0	0	3
81	82	4
133	134	2
143	143	3
42	66	2
92	94	2
86	87	2
109	110	2
118	121	2
116	117	1
58	64	2
139	141	2
35	48	1
75	90	1
110	132	1
15	67	3
6	8	1
97	97	4
1	2	1
104	108	1
33	35	1
135	139	2
6	9	1
118	142	2
43	55	1
109	133	1
71	87	1
31	33	2
53	69	1
23	23	1
96	98	1
74	120	1
96	137	1
106	107	1
114	116	1
132	136	1
72	72	2
78	106	2
103	130	1
70	98	1
52	54	1
64	68	1
71	97	1
88	89	1
13	14	1
5	25	1
139	140	1
20	52	1
