111	111	26
5	19	12
22	24	2
105	106	3
159	159	25
128	128	9
122	122	7
6	6	13
100	100	3
130	130	13
80	86	3
6	7	13
77	77	5
51	51	4
1	2	13
102	104	3
52	52	24
80	80	12
20	25	2
72	72	13
133	133	15
37	38	12
135	135	21
136	136	35
134	136	3
97	119	6
15	15	11
125	126	5
1	24	1
97	113	8
109	109	14
13	14	5
16	74	1
5	77	3
2	2	19
27	28	2
41	41	10
81	83	2
108	108	7
104	104	13
128	130	4
83	83	4
155	167	4
53	53	15
84	84	12
120	120	5
166	166	29
7	7	23
20	21	12
42	42	33
66	66	7
56	71	3
46	46	10
86	86	11
5	27	4
161	161	10
160	167	2
158	167	4
156	157	6
10	12	3
137	137	10
11	11	11
167	169	3
18	20	3
92	94	7
2	17	2
165	165	9
44	44	18
158	159	1
152	153	2
97	115	5
134	134	12
2	104	4
18	18	15
73	73	12
106	107	3
138	138	15
24	24	16
69	69	2
124	124	13
13	16	10
124	126	2
86	87	6
62	62	18
146	146	12
57	57	23
108	109	3
70	70	7
35	107	2
136	137	2
26	26	11
145	145	12
107	107	5
158	158	22
114	114	9
55	55	17
90	91	3
129	130	8
93	93	3
161	162	8
63	63	3
108	118	5
22	23	9
1	19	3
127	127	10
91	91	2
77	91	3
25	25	4
49	49	4
148	148	23
163	164	2
148	150	3
151	151	6
17	17	15
161	167	2
163	163	14
167	168	15
35	35	27
74	75	2
123	125	3
36	36	17
82	83	8
88	90	7
126	127	5
2	7	2
49	54	3
164	164	8
1	1	15
149	166	4
81	81	14
5	6	8
14	17	6
112	113	11
64	64	11
34	34	31
47	66	6
107	109	1
1	35	2
0	4	3
4	5	8
118	119	2
85	91	3
50	51	7
19	19	6
21	22	3
9	10	18
112	114	6
129	129	16
143	145	6
140	140	10
10	10	13
78	79	4
36	37	12
120	121	3
87	87	11
3	42	11
49	50	2
85	94	3
144	144	12
165	166	8
56	56	22
125	125	23
155	155	17
96	96	3
139	139	11
109	129	4
39	39	9
132	132	15
106	106	10
45	45	7
152	152	1
64	65	12
117	118	7
109	110	6
150	150	4
49	69	3
135	136	3
162	162	5
162	167	5
74	74	4
26	27	1
8	8	21
75	75	5
34	36	4
37	55	7
87	91	6
119	120	4
162	165	4
115	115	8
37	37	22
131	161	2
102	103	9
3	3	8
37	39	2
69	107	4
17	18	8
96	98	3
115	118	1
72	73	1
57	62	6
16	17	15
131	132	3
4	17	5
25	27	2
38	38	7
7	8	9
95	95	12
81	87	4
138	140	4
38	42	2
86	89	5
113	114	7
157	158	5
88	92	4
129	149	1
77	90	1
38	40	6
20	22	3
8	9	5
143	144	4
142	142	7
2	24	9
151	159	2
35	41	3
80	99	2
131	167	4
130	131	4
91	94	9
133	137	2
77	89	2
85	85	5
149	149	12
98	98	4
77	78	3
99	99	8
119	119	13
160	161	3
146	147	10
13	13	21
6	8	4
47	47	12
40	40	9
11	22	2
124	125	7
160	160	22
108	111	2
34	35	6
63	67	4
9	9	6
39	40	10
8	10	1
47	48	5
102	102	8
128	129	5
33	33	19
14	15	15
155	156	12
44	46	3
28	28	7
116	117	1
0	0	12
27	27	4
132	133	3
112	112	9
81	82	5
71	71	12
134	135	8
147	147	5
16	16	13
45	50	3
14	39	4
12	110	3
62	69	2
17	100	1
38	49	3
21	23	5
76	76	5
35	36	15
82	82	8
100	105	1
1	6	2
101	101	2
107	108	4
37	41	4
21	21	4
43	43	24
167	167	3
115	116	13
170	170	5
12	13	3
131	165	4
83	116	3
154	155	1
18	19	4
97	103	2
9	12	2
57	64	1
2	3	6
76	79	3
80	81	5
89	89	13
54	78	1
20	20	7
111	123	3
163	165	4
4	6	4
151	152	4
164	165	1
7	26	6
15	40	1
133	134	4
162	163	3
100	106	2
101	105	1
123	129	3
138	146	2
142	143	8
35	106	2
10	13	1
4	27	6
116	116	6
80	125	3
1	15	4
92	93	5
118	118	2
137	138	5
168	168	3
65	66	5
105	105	2
7	37	4
98	116	5
45	51	1
42	136	5
147	148	1
8	14	2
47	49	4
143	161	3
126	126	10
85	93	2
142	145	3
131	131	8
153	153	8
12	14	4
79	79	4
46	47	3
150	151	6
160	170	3
123	150	4
152	154	2
12	12	8
2	36	3
140	141	7
0	1	2
148	149	3
37	45	1
38	55	1
126	129	1
112	116	1
90	90	5
144	145	2
110	110	1
79	91	2
3	25	1
24	34	3
120	122	2
114	115	4
49	53	1
4	4	10
12	33	1
168	169	1
22	22	6
15	16	1
131	137	1
88	96	1
39	41	3
33	36	3
112	136	2
105	115	2
53	54	4
89	90	8
162	164	2
38	53	7
54	55	5
2	42	2
133	146	1
144	154	3
141	142	4
4	153	1
95	98	2
65	67	1
43	44	4
111	116	4
143	143	6
123	123	1
92	92	4
56	57	2
10	37	3
24	25	4
84	85	2
0	156	1
4	28	4
97	114	2
13	41	1
0	19	1
39	53	1
44	45	2
3	101	3
74	81	1
97	97	3
23	27	3
157	157	7
97	100	2
1	100	4
109	120	2
159	160	3
3	5	1
34	56	1
25	26	1
127	129	2
67	67	3
94	95	6
41	42	1
122	147	2
99	116	3
91	93	2
96	97	1
144	169	1
5	20	3
12	41	1
74	100	1
15	106	1
80	88	1
22	25	2
42	43	2
41	43	1
97	99	11
139	141	5
19	20	2
94	94	2
155	157	1
110	111	5
3	26	2
1	7	2
42	166	3
105	146	2
160	166	2
94	96	1
5	5	5
88	88	3
165	170	3
100	101	3
70	86	1
121	122	3
92	118	3
134	149	2
12	16	2
90	94	2
107	115	2
54	56	2
160	168	3
20	23	2
159	161	2
169	170	3
84	86	1
119	122	3
68	69	1
111	126	2
8	11	2
117	117	3
34	44	1
83	117	2
23	23	2
88	94	2
64	68	1
0	99	1
90	92	2
58	63	3
23	24	1
97	98	3
72	82	1
101	102	2
38	44	1
80	85	1
143	150	2
25	28	1
158	165	2
154	160	1
48	48	5
121	121	2
55	56	3
110	131	1
49	51	2
85	86	1
50	50	2
76	85	1
33	34	2
23	25	2
58	58	1
54	54	8
11	12	3
111	112	1
81	86	1
131	133	1
108	116	2
7	10	1
97	112	1
106	116	1
153	154	2
0	97	1
78	78	1
70	85	2
80	82	1
69	70	2
144	151	1
138	142	1
96	104	2
41	166	1
4	157	1
93	94	1
70	71	1
169	169	3
1	111	2
45	54	1
8	13	1
110	114	1
24	158	1
68	68	2
151	154	2
113	113	1
127	128	1
84	117	2
38	51	2
52	64	1
159	165	1
95	96	1
67	68	1
1	17	1
84	96	1
130	153	2
40	49	2
13	18	1
113	118	1
97	104	1
138	139	3
70	72	1
6	9	1
44	55	2
134	166	1
96	117	2
43	53	1
70	134	1
32	41	1
