126	126	16
87	89	6
38	38	6
115	154	5
20	20	4
124	124	12
12	12	9
133	133	18
37	53	4
2	2	18
9	9	20
117	164	3
2	4	11
3	3	24
157	157	5
139	154	6
119	119	10
52	53	6
36	37	9
73	73	12
38	41	3
36	36	19
1	2	9
1	10	5
4	4	11
96	99	6
2	3	5
38	47	1
139	139	2
37	57	3
14	14	15
58	63	1
91	91	8
147	147	6
84	104	1
135	135	6
69	69	8
103	105	5
111	112	13
128	128	19
91	94	3
82	84	2
56	57	1
124	125	3
98	98	10
127	127	18
115	115	27
52	52	19
127	128	3
163	163	6
90	90	8
12	15	5
50	58	3
143	143	13
6	6	16
53	53	13
38	39	12
108	108	4
162	162	3
18	19	11
112	112	12
51	55	2
97	97	9
161	161	3
26	26	10
43	43	12
84	84	16
104	105	4
147	148	4
101	101	8
53	54	5
143	145	6
120	121	6
87	88	2
155	156	5
89	89	11
26	86	5
110	110	13
93	94	4
41	111	1
85	87	2
81	81	16
156	156	7
39	39	12
113	115	2
169	170	1
159	162	5
8	10	8
16	27	3
19	19	11
7	15	12
73	82	1
137	137	11
115	155	2
37	37	13
21	21	8
87	87	11
126	127	4
130	130	2
33	51	3
120	123	4
24	24	12
76	76	13
128	141	5
133	142	2
14	23	2
159	160	7
116	127	2
134	135	10
162	165	2
62	63	18
79	79	3
9	10	9
34	34	18
117	117	2
24	53	3
47	49	5
167	167	5
54	55	2
20	53	4
8	8	14
50	50	16
114	147	1
17	17	15
64	64	9
41	41	5
22	22	9
64	69	2
6	7	12
170	170	4
74	75	9
77	82	8
155	160	2
19	23	1
85	89	3
138	139	7
66	108	2
95	95	5
130	159	1
7	7	10
57	57	13
144	144	11
136	159	2
110	111	13
118	118	8
24	25	5
49	49	14
136	136	14
27	27	2
65	65	10
77	96	3
55	55	27
42	43	10
65	117	3
86	96	2
120	132	2
37	38	12
114	115	4
72	72	6
123	149	3
18	18	12
54	54	11
15	15	22
85	85	14
154	154	9
35	56	2
113	113	10
145	145	6
105	140	4
1	1	21
42	42	14
74	74	11
76	79	2
18	54	4
106	106	7
84	148	6
34	52	6
24	27	2
167	170	3
35	116	2
134	134	7
107	107	17
13	13	5
166	167	1
127	129	7
88	88	17
105	105	14
115	153	3
131	132	7
21	42	1
39	46	3
103	103	12
15	56	2
66	66	13
68	68	13
37	41	3
39	137	1
57	63	3
53	55	2
39	131	2
123	123	5
123	125	5
159	165	2
103	104	8
132	133	6
81	82	8
44	45	15
100	100	9
5	13	1
35	35	18
15	16	2
119	120	8
4	36	5
77	78	6
132	132	7
122	122	15
25	26	4
83	83	2
125	126	3
109	109	6
142	151	3
87	90	2
163	165	4
143	144	1
21	22	3
25	43	6
23	23	3
50	51	6
117	152	7
153	153	6
155	166	1
15	55	2
43	44	1
142	144	1
165	166	6
146	146	7
120	120	10
47	47	14
139	155	2
151	165	2
1	3	5
118	148	2
33	33	8
57	66	2
166	166	7
16	18	2
0	51	3
146	148	3
101	139	3
40	45	3
63	63	10
11	11	14
90	91	8
37	45	1
52	80	1
78	78	4
121	163	7
44	109	2
34	51	3
149	149	15
121	151	2
161	164	5
168	170	4
101	102	5
70	70	4
99	99	4
67	67	4
90	96	3
16	16	7
8	12	3
154	155	6
114	124	3
86	92	6
4	35	2
105	106	4
64	82	1
95	116	1
119	159	1
25	25	13
8	9	14
78	79	7
158	158	7
48	48	8
76	86	1
164	164	4
46	47	5
141	141	5
85	153	3
117	120	3
45	45	14
82	82	8
111	111	5
70	107	3
34	35	2
127	139	2
55	57	2
123	154	2
103	117	2
142	145	2
117	154	1
86	89	3
41	88	4
124	154	4
138	138	5
65	108	2
140	140	11
124	132	1
23	25	4
152	159	1
109	146	3
157	162	1
65	110	1
164	165	2
62	70	3
104	104	4
1	5	3
12	69	1
37	44	1
75	75	10
46	46	4
28	28	7
139	141	3
11	12	3
114	114	5
92	92	11
104	116	5
84	115	2
21	24	2
142	143	5
0	0	4
131	131	3
21	23	4
136	137	7
125	146	3
150	150	8
5	5	15
84	85	6
169	169	7
70	71	1
79	80	4
68	69	3
98	100	2
14	15	4
66	84	1
129	129	3
21	54	5
107	113	4
27	28	5
20	40	2
112	114	11
67	68	4
117	140	3
142	142	1
22	23	7
97	98	4
113	114	4
131	135	2
94	95	4
16	49	1
157	166	4
44	44	7
38	49	3
42	49	3
116	150	2
91	92	3
22	54	2
51	51	8
0	1	6
152	152	3
102	105	3
108	111	1
158	159	2
20	27	1
68	70	1
49	50	1
8	80	3
51	54	1
57	64	1
77	77	5
93	93	5
67	69	3
129	130	3
25	42	1
154	160	1
71	97	4
108	109	1
161	162	5
99	101	1
165	165	5
47	111	3
160	162	2
148	148	5
102	103	3
116	116	5
83	84	1
141	142	3
155	164	1
161	163	3
40	46	1
103	116	3
86	86	2
40	40	3
130	132	3
117	150	2
133	134	3
105	150	1
13	50	2
10	10	12
16	46	3
18	39	4
102	147	1
48	49	7
20	22	6
66	138	6
132	136	2
120	122	3
71	71	2
117	128	1
76	78	1
42	149	4
36	42	1
41	42	3
25	80	5
23	39	1
63	70	2
40	41	1
38	55	6
101	140	3
117	162	8
48	51	2
35	100	1
64	66	3
102	102	2
124	128	2
33	34	2
159	159	1
23	42	3
0	4	1
91	111	1
120	163	2
154	161	2
83	85	5
8	79	2
52	54	2
65	115	1
77	88	3
140	141	5
26	27	5
38	56	1
85	88	2
86	95	9
93	97	3
168	168	2
23	71	1
107	108	3
20	21	4
19	49	1
132	138	3
115	148	1
143	147	2
101	104	1
19	40	2
80	80	2
116	149	3
69	70	3
118	158	1
70	96	4
128	133	1
7	47	2
126	150	2
66	128	1
40	44	2
24	58	1
27	41	4
100	102	1
22	24	5
94	94	1
39	114	2
3	10	2
45	46	3
56	56	14
92	93	2
139	166	3
105	107	3
24	55	1
155	155	5
91	116	1
47	48	7
62	68	2
101	103	2
7	81	2
15	57	2
77	80	2
38	46	2
154	156	2
62	62	7
89	90	1
38	50	2
167	169	2
86	114	1
151	151	1
125	163	1
152	153	2
109	110	2
122	147	2
144	146	2
8	11	2
51	53	4
26	41	2
21	52	1
124	150	1
66	85	1
162	163	2
71	72	2
46	48	6
162	164	1
124	156	1
126	149	1
124	153	1
7	77	1
9	11	2
121	122	2
163	164	1
123	133	1
39	40	3
121	147	1
103	146	2
22	53	1
43	106	1
151	152	1
121	121	2
157	159	1
126	132	1
135	141	1
4	5	2
45	111	3
137	155	1
20	23	3
35	36	1
107	111	3
58	64	1
35	86	3
39	45	2
21	85	3
52	79	1
21	25	1
40	50	2
122	132	1
44	111	1
85	86	5
33	52	2
137	139	1
10	11	1
50	54	1
16	50	3
121	150	1
17	45	1
43	149	1
90	93	2
13	20	1
19	22	1
146	147	1
120	157	1
101	112	2
50	55	1
72	73	1
84	102	1
88	89	3
16	17	1
157	158	1
18	52	2
116	151	1
16	48	1
149	150	1
18	21	1
25	52	1
18	24	1
75	76	1
131	137	1
46	49	1
84	99	3
167	168	2
95	96	1
123	156	1
95	115	1
18	28	1
123	161	1
122	156	1
1	4	1
100	101	1
119	165	1
86	149	1
76	80	1
85	100	2
123	124	1
128	135	1
52	89	1
96	96	1
7	49	2
67	96	1
110	153	1
118	122	1
65	67	1
5	16	1
136	155	1
42	52	1
151	161	1
133	144	1
115	117	2
135	136	1
115	116	1
152	161	1
119	132	1
14	18	1
65	113	1
16	40	1
36	43	1
155	163	1
79	81	1
128	153	1
23	24	1
86	88	1
