86	86	8
76	76	21
25	25	15
69	69	22
32	32	20
63	63	15
83	84	4
34	34	6
92	92	14
40	41	2
41	41	7
23	24	2
65	67	1
100	101	5
61	62	6
91	92	6
104	104	3
87	87	2
75	75	15
33	33	11
55	56	4
68	68	21
74	75	3
47	48	9
21	39	1
62	63	10
53	63	2
52	55	2
77	78	3
52	53	2
61	61	16
98	98	13
30	32	3
85	85	3
59	60	1
72	72	16
96	96	13
35	35	16
44	46	1
84	85	1
43	43	10
62	106	1
58	59	4
61	64	1
23	23	3
25	29	2
84	92	1
80	80	6
75	78	2
73	73	13
52	52	8
60	84	2
85	89	2
93	93	5
38	38	6
87	88	3
97	97	3
72	77	3
67	67	13
64	64	5
88	88	7
24	24	7
84	84	5
46	46	4
78	78	12
71	72	2
40	40	3
55	55	6
82	95	2
39	39	3
79	80	12
35	36	3
74	74	8
28	28	4
94	94	4
99	99	5
41	45	4
70	75	1
66	66	8
65	65	9
35	38	2
106	107	2
79	96	3
83	98	3
45	46	6
62	62	11
95	95	10
101	102	2
64	68	8
30	30	6
82	82	7
78	79	8
84	88	1
54	54	6
82	94	5
66	67	2
86	87	4
70	71	2
37	46	1
36	36	5
82	83	5
100	100	7
49	49	5
31	31	2
59	59	3
71	71	7
41	44	3
83	99	3
70	70	2
45	45	4
37	38	2
103	103	3
26	27	1
25	26	4
50	51	3
29	31	1
31	32	2
95	96	6
89	90	6
67	74	1
54	55	2
76	77	1
83	83	2
27	27	4
98	99	6
28	46	3
93	94	4
53	103	1
25	27	2
72	73	7
78	94	1
22	57	1
58	58	6
36	37	1
22	22	8
65	66	6
44	44	1
39	42	2
89	93	1
38	39	3
33	34	2
53	53	2
59	61	1
73	74	3
30	39	1
48	48	3
46	48	1
81	81	1
83	85	2
69	78	2
41	42	5
67	68	2
92	105	1
60	60	11
51	52	2
31	50	1
56	69	2
77	77	9
56	56	6
71	104	1
35	52	1
27	28	2
89	89	1
68	74	1
91	91	3
60	61	7
70	73	1
88	89	3
42	44	2
82	97	3
27	29	1
68	69	1
105	105	8
70	76	1
102	102	8
71	75	2
37	37	2
78	81	2
34	51	1
54	92	3
54	71	1
31	34	2
59	63	1
101	101	3
51	51	2
57	57	1
32	47	1
42	42	6
32	48	1
50	50	1
43	44	1
90	91	5
29	29	2
63	65	4
70	72	3
24	48	2
24	27	1
61	97	2
52	54	1
107	107	1
95	100	1
31	56	1
68	71	2
82	98	2
66	83	1
24	25	3
65	68	1
56	62	1
75	76	2
53	54	1
72	76	1
47	47	1
85	88	2
49	50	1
33	40	1
51	53	2
85	96	1
72	89	1
64	65	2
21	21	3
85	86	1
55	62	1
25	28	1
33	80	1
106	106	1
20	27	1
