16	16	5
116	116	12
50	50	7
71	71	7
116	117	1
17	27	1
134	134	7
43	85	2
131	131	6
109	111	6
5	90	5
112	113	1
121	122	7
119	119	12
72	72	4
83	84	5
84	84	3
79	79	2
44	44	5
109	110	8
97	97	9
92	96	5
53	126	2
122	122	8
133	133	10
91	93	3
28	28	7
14	57	3
25	26	1
85	88	1
83	83	10
86	87	6
5	5	6
31	31	7
48	77	1
83	85	3
63	65	3
119	123	4
110	110	4
15	15	4
103	103	4
84	85	3
19	33	5
54	54	4
44	83	1
94	95	5
93	93	4
81	123	2
122	123	7
101	101	5
2	2	3
127	127	7
12	12	2
77	77	3
14	16	3
89	89	6
109	109	6
89	90	5
42	83	1
37	54	3
129	129	4
45	45	3
106	106	3
82	83	1
34	34	12
53	53	11
62	62	8
64	64	14
134	135	3
118	118	4
91	91	5
24	26	2
47	99	4
11	11	4
90	90	6
64	88	1
68	68	12
47	66	3
82	82	9
10	10	7
35	35	1
107	130	7
76	77	2
112	112	3
104	104	6
36	38	1
74	74	5
121	121	1
92	92	5
117	117	4
76	76	9
47	124	3
113	115	1
107	107	4
50	86	1
69	69	8
132	132	6
86	88	1
105	105	1
4	4	1
119	129	4
96	96	5
112	116	1
77	78	5
123	123	8
7	7	2
37	37	1
44	45	4
70	70	6
28	38	3
27	27	4
80	80	4
75	75	2
60	60	5
36	36	5
48	78	1
60	61	1
88	88	4
120	129	5
115	115	8
94	133	1
25	25	2
19	35	2
73	73	4
38	38	3
69	88	1
78	79	2
95	95	3
84	129	2
51	65	1
108	108	6
13	36	1
62	63	6
17	17	3
56	56	3
120	120	6
9	9	9
55	55	9
124	125	2
106	115	1
13	13	2
17	28	1
79	80	1
54	118	1
47	110	4
130	130	6
113	113	8
67	67	1
102	102	3
68	116	4
97	98	3
43	43	1
31	135	1
7	67	3
105	112	2
19	20	2
100	101	1
63	88	2
3	4	1
63	63	2
126	126	1
66	68	2
82	84	3
114	115	1
128	128	3
85	85	6
54	57	1
117	118	2
35	36	2
66	87	1
132	133	1
84	111	1
108	109	2
97	99	1
32	32	2
26	26	1
48	48	1
45	46	1
52	52	1
81	81	1
65	65	2
76	82	1
113	114	3
6	8	1
97	115	1
82	85	2
58	58	2
67	107	1
112	134	1
24	24	1
112	132	1
110	111	3
129	130	1
115	116	4
66	66	3
36	57	1
46	46	1
78	83	3
114	114	2
93	95	1
6	7	1
59	60	1
65	114	2
65	87	2
99	101	1
68	69	1
126	127	1
101	102	1
125	125	1
57	57	1
119	120	1
90	91	2
53	86	1
94	94	3
100	100	3
19	19	1
36	37	1
130	131	1
52	53	1
1	1	2
111	112	1
33	34	1
49	49	1
64	86	1
8	9	1
20	33	1
121	124	1
84	86	1
87	87	2
14	14	1
29	30	1
107	108	2
47	118	1
32	33	1
46	87	1
106	110	1
