62	62	19
143	145	1
62	63	6
37	37	21
155	155	6
86	88	1
96	96	3
83	83	11
23	23	8
82	82	9
104	141	3
84	84	5
6	6	15
102	102	14
80	81	2
1	1	19
154	154	5
7	37	1
45	45	8
103	114	2
162	162	8
100	104	2
6	7	2
52	52	8
94	95	4
101	101	13
42	43	7
146	151	2
46	50	2
125	125	11
5	6	6
55	55	5
41	41	9
46	46	17
70	72	5
41	42	4
9	40	2
44	44	11
163	163	5
109	109	3
73	73	7
151	152	1
152	152	5
105	105	6
129	129	5
88	90	2
77	77	6
91	92	2
93	93	12
76	76	2
77	78	5
147	147	8
22	24	2
88	89	4
9	9	10
94	96	4
22	23	7
124	124	14
49	49	17
110	110	10
16	16	2
2	2	5
136	136	4
114	115	8
22	22	7
140	141	4
155	156	3
130	130	3
15	16	12
47	49	1
69	69	17
105	106	6
11	86	3
38	53	1
74	75	15
15	15	9
94	94	6
131	131	11
8	17	1
43	43	11
20	21	5
82	158	2
111	116	2
42	42	3
81	81	6
85	85	4
166	167	5
78	78	8
133	133	7
120	121	2
11	11	8
103	103	5
89	99	4
122	122	11
77	79	1
143	144	6
167	167	10
162	166	3
160	163	5
36	36	8
13	13	10
149	149	3
7	7	6
76	77	4
34	34	7
153	168	1
74	74	12
95	96	8
169	169	7
20	24	2
128	130	5
72	76	3
83	85	2
106	129	4
146	147	2
53	54	5
50	50	5
150	151	3
123	123	5
141	141	4
72	72	4
114	114	2
53	55	3
89	90	6
45	46	6
108	109	7
135	141	1
150	150	1
39	39	11
100	100	11
124	125	5
135	136	2
44	75	2
18	19	3
87	87	10
12	12	5
163	164	4
77	80	1
79	79	4
24	24	4
7	17	3
8	8	10
146	146	8
165	165	5
35	35	6
137	137	5
3	3	10
134	134	4
112	125	2
27	27	4
12	64	2
78	79	6
12	15	4
123	124	5
76	80	1
138	138	13
17	17	4
40	41	1
112	112	9
70	77	3
38	52	1
16	18	3
95	95	5
87	104	1
0	0	2
86	86	2
76	120	1
127	129	4
148	148	3
155	157	5
136	137	1
52	71	1
0	2	3
139	139	5
101	137	2
85	86	5
10	10	6
51	51	8
138	139	1
132	132	8
2	47	4
83	84	3
107	107	4
99	99	20
6	55	2
64	64	4
68	68	5
114	147	4
92	98	3
145	145	5
21	21	10
90	91	6
147	148	3
79	80	4
86	122	2
126	126	12
65	67	1
20	23	4
54	54	5
132	144	4
14	15	9
107	109	2
46	54	2
130	141	5
66	66	10
119	119	8
17	20	3
107	108	10
88	88	5
80	80	6
132	147	3
18	23	2
87	98	1
71	73	2
5	5	7
144	144	7
154	155	2
8	10	2
92	97	1
113	113	5
47	48	1
2	4	1
154	156	4
28	28	2
36	37	9
52	54	1
79	119	6
87	89	1
2	17	4
91	91	11
48	48	9
18	21	2
33	33	3
102	104	3
112	113	5
117	117	7
21	22	1
126	127	5
37	38	3
70	70	3
48	50	3
81	111	2
16	17	3
135	135	9
100	101	10
132	133	7
97	97	10
158	158	4
54	55	3
47	47	6
127	127	7
40	91	1
121	121	2
164	165	2
35	37	2
118	118	9
11	72	2
86	87	2
1	2	2
41	49	3
17	169	1
53	53	9
106	107	3
71	71	9
67	68	8
0	38	3
4	4	10
101	102	1
54	62	1
111	111	4
127	128	1
156	156	2
65	65	2
104	140	1
81	129	2
141	142	2
131	141	1
18	22	2
160	160	5
120	120	7
18	20	5
104	131	1
9	10	2
6	74	2
130	160	2
121	122	3
127	147	2
120	122	2
111	113	4
162	164	1
57	57	4
103	105	6
119	120	9
75	101	3
54	81	3
113	114	1
93	94	6
98	98	7
77	82	1
40	40	4
89	98	2
56	57	3
115	120	4
103	131	1
5	39	1
6	39	2
84	85	4
135	158	2
56	56	1
92	94	1
134	135	3
76	98	1
82	83	4
115	115	6
52	72	3
38	73	1
55	56	1
21	23	2
73	75	4
18	24	2
153	154	3
66	67	3
54	56	3
72	73	4
109	128	1
148	150	3
19	19	2
91	94	3
159	160	3
38	38	2
132	134	1
20	20	7
64	65	3
16	57	2
85	88	2
137	138	3
38	39	1
84	118	1
46	47	3
170	170	1
5	38	1
103	104	5
26	26	5
65	68	2
39	40	4
119	121	2
140	143	3
157	160	2
9	38	5
168	168	2
18	18	4
90	90	4
131	134	1
71	72	2
72	91	2
142	145	1
58	66	1
40	75	1
11	14	1
115	116	2
118	163	1
137	139	3
23	24	2
126	129	1
14	17	1
48	71	1
69	70	1
1	42	1
17	170	1
50	51	2
91	95	1
147	149	2
105	112	1
63	66	3
92	93	2
58	58	1
158	159	1
161	161	2
169	170	4
147	150	1
139	140	2
0	5	1
14	14	2
143	143	1
149	151	2
150	159	1
159	159	1
168	169	2
160	164	2
157	157	4
148	149	1
89	89	1
104	113	2
121	158	1
37	71	1
67	104	1
105	130	1
144	145	1
48	49	1
117	163	1
140	140	2
92	92	2
54	57	2
13	47	1
109	110	1
77	113	2
97	98	1
75	75	1
55	57	1
133	134	3
110	116	1
54	91	1
2	117	1
44	45	1
66	88	1
25	25	2
72	75	1
91	102	1
2	41	1
47	52	1
138	140	1
164	167	1
151	151	1
55	150	1
106	106	1
17	57	1
74	97	1
54	71	1
131	133	2
6	73	1
43	44	1
79	97	1
22	57	1
127	130	2
142	143	1
161	164	1
164	164	1
108	108	1
121	123	1
86	91	1
101	103	1
46	83	1
109	111	1
