167	167	2
120	120	6
170	170	16
139	139	5
42	42	3
149	149	7
43	44	2
83	84	3
45	45	5
163	164	3
188	188	4
147	147	2
13	76	2
171	177	8
82	82	3
15	15	14
26	26	1
87	88	1
83	83	3
57	57	11
188	190	1
140	140	4
2	2	11
116	116	5
102	151	5
38	38	6
59	60	2
157	157	1
95	95	3
44	44	6
32	32	9
129	129	6
144	144	5
172	172	1
5	6	6
134	134	3
131	131	7
70	73	1
108	111	1
151	151	5
27	27	7
48	48	7
89	89	1
117	118	1
71	73	4
146	150	1
111	111	3
148	150	1
126	145	4
153	170	1
183	183	3
61	62	6
82	99	1
84	84	12
164	166	5
41	41	8
154	154	3
70	70	1
178	178	4
56	67	2
22	22	1
77	77	7
90	90	15
16	16	6
148	149	1
157	158	2
58	58	2
150	165	2
115	116	8
15	21	2
177	178	2
129	130	2
55	56	3
179	179	4
12	12	1
32	34	2
61	65	2
93	93	2
140	143	1
92	101	5
73	74	2
177	177	1
40	41	2
13	13	6
64	64	3
53	56	2
185	186	2
162	162	7
31	31	6
127	127	3
125	125	4
69	69	1
180	181	3
153	154	1
56	56	6
85	86	1
78	78	2
93	94	1
174	177	1
167	168	3
160	160	1
141	141	5
17	18	1
35	36	4
8	8	8
42	44	2
111	112	1
164	165	2
21	83	1
161	168	3
103	103	1
29	38	2
37	37	2
6	6	2
142	142	2
43	43	4
155	155	5
146	164	2
20	21	3
72	72	3
29	30	5
10	11	1
55	55	5
181	181	2
174	175	4
80	80	10
53	53	1
132	133	6
150	150	3
112	112	2
46	47	5
33	34	2
28	28	2
104	106	5
158	158	1
25	26	1
86	86	3
0	0	6
148	148	4
100	102	1
54	54	3
23	23	2
156	172	2
30	31	2
131	132	2
68	68	2
173	173	3
175	175	2
187	190	2
42	54	1
82	109	2
100	108	1
156	156	4
101	101	1
146	146	3
34	36	6
147	158	3
5	5	1
152	152	7
174	174	7
16	17	3
143	144	2
24	24	8
114	114	1
186	186	6
40	40	4
123	123	5
25	25	4
88	88	3
128	128	6
139	151	1
105	107	1
187	188	3
35	35	3
14	15	1
102	102	3
39	39	3
110	110	1
145	147	2
54	62	1
33	33	2
129	132	2
124	149	5
154	155	2
132	132	1
158	174	1
3	3	3
54	66	2
154	162	3
138	138	5
176	176	3
56	57	4
146	147	2
67	68	2
169	169	5
171	171	1
162	163	2
166	167	1
30	38	1
59	83	1
43	54	4
91	173	2
147	149	5
27	29	3
41	83	1
117	117	2
24	26	2
185	185	5
92	92	2
172	174	1
27	28	1
38	39	1
136	136	3
65	66	1
0	1	1
71	110	1
171	174	2
91	141	1
174	178	3
79	79	2
28	33	1
145	145	4
122	123	1
92	94	1
124	124	3
184	184	1
154	172	1
190	190	2
45	46	2
172	177	1
116	117	2
168	168	4
74	113	2
10	12	2
164	164	1
151	152	1
126	126	3
10	10	1
121	121	1
138	152	1
47	48	1
43	71	1
41	43	1
67	67	1
180	180	2
87	87	2
77	87	1
70	110	2
153	153	1
144	145	1
6	7	1
68	69	2
62	62	2
85	85	2
59	61	1
108	119	1
181	183	1
17	17	1
96	98	1
184	185	2
161	164	1
178	185	1
19	19	1
152	153	1
41	42	2
158	159	1
75	75	1
31	32	1
23	24	1
126	128	1
124	125	1
71	71	1
