86	86	25
219	219	22
52	53	7
122	124	7
17	17	16
195	195	3
19	19	15
211	213	3
26	26	19
56	57	16
147	148	4
164	164	11
36	36	19
58	58	12
53	55	2
229	229	11
232	234	7
27	28	9
103	104	2
13	14	3
37	38	1
176	176	14
215	216	4
215	215	10
217	218	7
9	9	46
203	204	6
78	78	11
37	37	16
188	189	8
178	178	18
56	238	3
35	38	4
25	26	5
96	96	13
177	177	21
24	26	4
201	201	19
242	242	14
190	191	13
173	174	8
88	88	8
70	70	29
4	5	7
127	127	19
7	34	3
175	175	3
16	16	4
196	196	8
187	213	1
62	62	18
139	139	15
6	17	3
102	102	20
234	235	8
35	36	5
74	74	17
212	212	6
151	161	4
12	20	3
58	60	4
183	183	17
147	147	11
167	168	7
177	213	5
47	47	10
45	71	7
66	68	7
55	55	24
39	39	13
140	142	4
5	29	1
55	56	7
182	182	5
23	23	10
95	95	6
46	46	26
135	143	2
130	130	3
238	238	18
113	113	23
216	216	7
43	43	33
33	34	6
206	225	1
200	201	7
160	160	10
61	61	15
35	37	6
202	202	12
116	118	2
132	134	2
239	240	4
104	104	7
16	17	11
19	56	1
24	25	8
12	12	14
167	170	2
213	213	9
30	52	6
45	45	17
172	172	10
194	194	8
2	3	12
67	67	8
34	34	24
232	235	4
228	228	26
241	241	9
75	75	13
208	208	10
117	118	3
98	98	6
42	65	2
213	214	1
195	197	9
152	152	11
238	239	2
120	120	6
59	59	7
31	31	12
204	204	6
182	183	4
78	79	2
188	188	11
235	235	5
44	44	11
2	2	16
207	208	2
20	21	4
9	10	5
176	177	7
53	54	5
149	149	9
14	15	4
144	144	2
63	63	7
157	157	14
12	30	2
224	225	5
22	22	15
133	133	8
178	179	8
172	196	3
162	162	8
226	226	4
230	231	5
197	205	1
193	193	14
99	99	7
66	66	5
165	165	12
136	137	7
84	84	21
223	224	8
116	116	7
20	20	39
177	198	4
157	187	3
151	168	6
196	197	2
5	6	1
171	178	2
138	138	8
18	18	11
39	66	4
32	32	13
175	190	4
200	200	16
168	168	11
25	25	14
71	71	20
130	178	4
148	150	1
53	53	20
170	170	8
48	48	19
171	171	14
28	29	5
79	79	12
81	81	15
236	237	5
80	81	2
85	103	1
102	103	9
199	199	11
157	159	5
184	184	4
129	130	3
134	134	20
200	218	7
227	228	1
80	80	2
12	14	3
44	71	4
144	187	1
50	206	1
27	27	26
97	97	14
201	203	3
22	23	3
172	173	6
153	153	5
180	180	9
20	54	1
160	175	4
10	10	15
21	21	11
53	67	2
19	20	8
159	180	8
10	45	2
78	80	5
122	138	5
220	220	13
168	185	3
141	141	5
29	30	8
142	142	8
169	169	4
58	221	2
28	28	19
74	75	11
210	210	5
226	227	2
24	211	1
232	233	8
103	103	7
154	155	1
189	189	12
179	180	5
31	33	3
196	218	2
33	33	11
11	20	1
12	13	7
159	181	2
29	29	27
14	14	7
222	224	1
69	236	2
148	148	1
173	173	16
184	185	12
20	23	5
11	11	15
11	12	4
236	236	10
79	161	1
191	191	19
56	56	17
201	202	4
41	41	14
237	237	3
223	223	23
73	73	7
82	82	4
121	121	5
35	40	3
64	236	4
89	89	3
143	143	7
35	35	10
24	24	16
146	147	4
19	39	6
140	140	5
57	57	4
150	150	10
36	37	5
123	125	3
64	64	13
129	129	13
52	52	9
7	7	11
153	159	6
227	227	9
140	141	4
10	11	4
72	72	16
170	171	1
210	211	6
38	38	14
36	41	1
181	181	4
214	216	3
83	83	11
29	51	7
77	108	5
57	60	2
40	40	15
214	215	2
232	232	20
175	178	1
133	134	7
79	107	4
100	104	2
126	127	1
0	0	9
20	22	4
30	30	20
18	20	3
195	196	5
4	4	3
69	69	18
231	231	12
206	223	1
50	51	5
166	186	4
99	100	6
6	8	4
156	156	4
44	63	2
107	109	3
211	212	8
214	214	12
26	27	8
203	203	9
185	186	10
62	63	9
10	28	5
48	227	1
207	207	7
159	159	6
49	49	10
58	59	3
9	37	2
234	234	5
151	152	3
130	131	1
73	88	3
136	136	3
85	100	2
159	170	3
241	242	8
205	225	5
54	54	16
171	172	5
97	191	1
77	81	2
70	71	5
153	154	4
190	216	2
46	63	2
154	154	3
101	101	10
150	151	2
125	125	2
85	85	11
175	188	3
100	103	4
122	122	10
3	3	8
200	216	5
9	46	1
224	224	10
56	237	3
6	6	10
233	233	7
208	223	3
193	194	5
76	77	7
19	55	5
96	97	7
207	224	2
190	190	4
54	59	1
209	209	17
30	60	6
50	53	6
65	66	5
174	175	10
56	103	1
44	45	5
203	223	1
105	105	10
135	137	7
85	202	2
72	73	4
209	211	2
5	7	2
181	182	8
195	207	4
77	107	9
206	206	15
13	15	6
167	172	1
114	114	1
187	187	7
13	18	3
31	53	4
23	53	4
42	42	12
32	37	3
5	5	5
180	181	6
179	179	3
160	161	3
66	239	1
65	65	14
229	230	2
85	86	5
47	48	5
96	99	2
198	198	17
46	47	5
13	17	1
133	136	2
42	43	6
191	231	4
212	213	6
36	42	6
9	41	2
163	179	2
178	200	2
34	35	6
29	38	2
103	106	3
157	158	8
209	218	1
174	174	26
115	115	5
201	219	2
23	222	3
123	124	2
152	166	2
34	41	2
73	75	5
45	46	11
143	161	2
8	32	2
155	156	7
2	181	1
1	1	3
84	86	1
57	59	1
35	203	2
104	105	1
122	125	6
126	126	4
151	151	2
48	49	3
48	229	4
68	206	2
168	169	1
71	204	1
137	137	6
220	229	5
122	137	4
192	215	4
163	163	8
42	69	3
81	85	7
183	187	2
208	219	1
131	131	1
108	108	5
28	239	4
145	145	2
16	31	3
239	239	9
116	117	3
192	192	10
135	135	6
73	197	1
6	182	1
128	138	5
123	126	2
38	49	3
9	42	2
137	138	3
184	186	2
205	205	3
120	123	2
84	85	3
132	132	1
58	63	3
83	84	1
218	218	5
23	33	1
89	107	2
11	29	1
207	209	3
190	215	1
154	159	1
13	13	7
128	128	7
76	80	2
117	117	5
49	226	5
73	74	3
112	112	3
161	161	5
124	127	1
39	40	3
1	4	1
82	83	5
2	5	3
32	33	3
194	195	2
187	189	1
39	62	1
75	82	1
3	8	3
21	34	2
10	27	5
225	225	3
205	223	4
39	41	1
59	60	6
145	147	3
31	32	4
134	135	2
58	237	2
2	9	2
164	165	2
122	127	3
39	42	2
114	115	2
25	32	3
123	123	3
46	48	1
199	217	1
48	52	3
158	180	5
75	76	1
209	210	5
62	237	2
40	175	1
97	230	1
76	76	6
7	8	3
199	200	9
108	110	3
81	104	3
197	198	5
146	146	5
156	157	3
76	79	1
71	72	3
119	120	1
60	60	3
181	184	5
105	106	2
63	64	3
107	107	2
107	108	3
139	140	1
86	235	2
201	206	1
204	226	4
21	225	1
217	217	6
21	58	1
67	68	3
61	62	4
13	16	2
88	89	2
1	42	5
73	240	1
166	166	6
138	140	2
7	13	2
153	160	1
191	202	2
77	78	2
8	9	4
197	200	4
185	187	4
161	170	3
176	193	2
188	190	2
100	100	5
37	61	2
48	55	1
211	211	3
165	171	2
183	184	3
68	69	5
101	102	3
202	203	10
212	214	2
80	83	1
159	183	1
179	185	1
95	96	2
77	77	4
221	222	3
135	136	3
158	158	1
161	185	1
80	104	1
51	51	3
234	236	4
208	218	1
17	18	5
121	136	1
90	104	1
208	220	3
71	206	4
41	42	5
21	60	1
208	225	1
64	65	6
204	225	2
197	197	3
106	106	7
32	53	1
102	106	1
174	194	3
201	227	1
50	50	1
6	7	3
190	192	1
8	36	3
8	8	6
186	186	4
220	221	1
155	155	7
121	122	2
70	86	4
9	45	1
23	24	3
75	173	1
175	176	1
118	123	1
59	209	3
4	35	2
63	236	2
19	57	1
103	105	1
98	99	1
16	42	2
70	206	4
5	8	2
23	225	3
192	196	1
137	142	3
153	165	1
196	200	1
106	107	3
48	51	2
86	87	1
95	97	3
162	163	1
158	159	1
240	240	3
120	121	1
5	28	2
49	50	7
219	220	1
163	177	3
85	193	1
152	167	1
3	56	2
198	199	1
15	16	1
166	169	2
39	63	1
186	187	1
73	174	1
222	222	1
118	118	1
5	14	1
123	146	1
65	67	2
100	102	1
169	170	1
43	70	2
108	114	3
240	241	2
201	208	1
34	36	2
162	166	1
85	99	1
12	48	1
15	31	1
145	178	2
204	224	1
85	192	2
81	84	1
32	36	1
122	135	2
19	47	1
40	212	1
127	128	1
21	23	6
159	160	1
100	101	1
33	36	1
145	146	3
13	30	1
172	175	1
141	169	1
54	224	1
163	166	1
97	231	1
211	224	1
68	68	2
21	224	2
154	156	2
9	27	2
209	217	1
143	144	2
66	67	2
233	235	1
26	238	2
96	174	2
177	178	3
152	160	2
122	123	1
162	175	3
217	219	2
184	187	2
178	180	1
167	167	2
8	15	2
148	149	1
145	148	1
81	82	1
156	160	1
230	230	1
231	236	1
191	230	2
221	229	1
221	221	2
194	212	1
197	206	1
228	229	1
213	215	2
47	51	1
114	116	1
138	139	1
1	231	3
199	201	2
165	176	2
47	49	1
134	137	2
12	18	1
171	199	1
53	231	1
16	18	1
0	1	2
29	54	2
189	190	1
204	206	1
84	192	1
23	180	1
72	205	1
207	214	1
231	232	1
162	172	1
118	119	1
128	129	1
