29	29	2
68	68	6
155	155	18
49	49	11
116	116	8
15	52	1
104	104	13
86	87	7
91	91	17
140	140	12
2	2	8
107	109	6
135	137	4
95	95	3
8	9	3
124	124	13
45	45	9
81	81	8
20	20	8
1	2	3
12	12	9
129	130	9
74	74	1
137	137	8
98	111	3
33	33	9
66	66	10
133	133	8
67	68	5
50	50	12
9	9	24
52	52	14
78	79	8
126	126	13
9	10	4
94	95	3
109	109	7
42	131	1
27	27	16
100	101	3
48	49	9
13	14	8
122	122	22
64	69	1
93	93	8
42	42	13
48	48	14
135	136	9
0	0	7
70	72	4
12	13	10
153	153	4
114	114	12
32	32	11
118	125	7
148	148	9
112	112	9
137	152	4
145	145	7
150	150	13
72	72	9
146	146	6
1	1	6
132	152	1
70	70	4
4	4	11
44	44	22
10	10	6
134	134	12
80	81	1
65	65	16
32	33	2
86	86	21
141	141	9
67	67	15
119	119	5
138	138	10
103	106	1
22	22	8
41	41	9
11	11	8
91	113	3
6	6	10
108	126	1
118	118	7
77	77	17
123	123	6
28	28	10
5	5	6
106	106	11
123	142	2
109	133	4
87	88	2
54	54	14
30	30	8
34	34	11
83	83	5
122	140	2
23	93	3
88	88	14
30	32	6
63	63	6
99	99	10
117	154	2
110	117	4
3	33	4
25	25	12
79	79	5
79	89	4
35	35	9
3	3	10
104	106	2
130	132	1
99	112	3
110	127	1
147	147	17
154	155	2
12	54	5
71	71	13
120	120	8
157	158	2
141	142	4
115	115	6
151	151	9
63	67	3
35	37	4
131	133	7
90	91	11
138	155	1
82	125	2
54	55	6
29	137	2
83	148	3
71	147	2
98	98	14
11	13	3
56	56	10
31	31	10
41	46	1
123	124	9
75	75	20
157	157	5
150	151	3
62	62	5
121	123	3
15	37	1
24	25	1
12	48	1
46	46	7
97	146	5
62	136	3
70	146	1
84	84	5
108	131	1
11	157	4
109	111	4
129	129	6
103	103	19
97	97	7
90	112	1
91	124	5
110	110	3
12	16	1
92	93	3
26	28	1
94	94	8
100	100	10
105	105	15
17	47	2
14	20	2
2	41	4
108	108	13
126	127	2
131	140	3
82	82	12
153	154	11
109	110	7
87	89	3
50	54	1
78	133	2
146	147	14
50	51	4
23	35	1
76	77	2
113	114	5
125	125	7
128	128	16
28	29	11
47	47	5
110	111	2
89	89	10
39	39	8
17	18	2
34	35	4
50	53	1
12	14	6
124	125	5
101	101	8
73	73	9
21	21	15
117	117	6
28	82	2
139	139	5
69	71	3
25	28	1
152	153	3
39	41	4
104	105	4
64	65	7
93	143	3
91	107	2
78	78	8
39	48	5
3	4	3
154	154	5
78	123	1
152	152	9
90	90	8
127	127	17
76	76	5
122	145	1
130	130	6
100	129	1
88	89	6
146	148	5
109	151	3
109	145	2
132	132	8
25	26	4
89	97	6
40	63	2
53	53	12
144	145	4
11	14	3
18	21	2
25	31	1
107	107	7
113	143	2
85	86	5
122	124	6
8	8	2
24	24	11
110	152	2
37	37	10
96	96	9
40	46	2
111	111	7
29	46	1
156	157	3
25	42	5
51	51	8
29	38	2
5	65	4
66	68	4
92	92	2
39	40	1
6	28	2
70	110	3
144	144	7
143	143	6
135	135	5
30	38	5
113	113	6
102	102	8
108	112	1
79	95	2
104	117	2
30	31	5
98	151	1
55	56	6
22	23	1
97	147	1
85	85	7
26	101	2
64	64	4
19	19	1
16	35	1
93	94	2
41	56	1
96	97	5
142	142	4
89	96	2
106	107	4
107	154	2
19	20	6
83	84	4
53	55	1
83	87	1
79	81	2
71	72	9
140	145	1
6	134	1
127	140	1
42	43	2
156	156	7
84	91	1
10	11	3
6	117	1
121	121	12
14	21	1
149	150	1
20	24	3
20	36	2
23	23	7
66	94	1
91	92	2
123	152	1
36	37	3
16	16	9
11	39	2
0	1	2
62	146	1
33	36	4
69	69	8
68	71	2
79	80	1
18	18	6
107	115	2
82	158	3
24	87	3
144	148	2
109	119	2
121	137	1
40	40	5
136	147	1
108	109	1
128	129	3
19	46	1
115	119	1
48	52	2
83	140	3
116	117	1
143	144	1
32	53	1
29	30	1
56	57	2
96	157	1
43	43	15
41	42	3
40	41	6
119	120	6
0	49	3
155	156	6
80	80	8
52	53	2
121	127	1
23	24	1
153	159	1
118	119	1
92	148	1
8	11	2
93	98	3
158	158	7
46	48	2
16	54	2
12	39	2
19	45	1
38	48	3
87	125	2
55	55	3
51	52	7
137	145	3
20	21	2
34	43	1
115	116	3
78	126	2
12	53	3
7	25	2
15	15	2
132	133	1
49	56	1
53	54	2
137	144	1
119	139	3
119	121	2
26	26	4
132	134	1
128	137	3
81	82	2
38	39	3
131	132	2
80	157	1
123	125	5
113	117	4
87	87	9
77	155	1
40	70	1
31	32	7
26	45	3
87	111	2
71	85	1
64	83	2
13	43	1
91	119	2
30	137	1
105	106	5
25	87	1
51	53	2
77	79	2
14	14	6
106	114	1
88	90	4
29	67	2
136	153	1
115	117	1
8	67	1
114	115	6
86	88	1
68	86	2
67	70	3
81	112	1
36	36	11
124	136	2
97	158	2
29	66	1
141	153	1
17	17	3
84	85	1
4	135	1
85	92	1
11	12	5
36	55	1
18	52	2
132	149	1
13	13	4
95	96	2
15	57	2
143	145	2
7	9	3
131	157	1
79	82	3
52	54	2
123	140	1
110	142	1
15	16	1
66	67	1
21	33	1
62	109	3
4	56	1
122	123	1
52	55	2
4	31	2
70	71	2
14	77	2
38	38	5
89	122	2
116	157	1
125	127	1
77	152	1
92	134	3
106	139	1
5	6	2
75	92	2
79	88	1
8	10	1
7	7	2
126	146	1
86	123	1
45	46	4
149	149	3
16	53	2
15	19	1
131	131	2
92	131	1
136	136	1
73	102	2
69	79	1
103	145	2
106	130	1
24	30	3
6	11	2
4	6	1
7	13	3
73	100	1
134	135	1
75	87	4
137	138	1
39	53	1
122	142	2
46	47	2
2	3	1
19	21	1
55	57	1
101	130	1
91	126	1
89	112	1
40	43	2
48	108	1
111	112	1
18	19	1
111	139	1
140	141	2
82	85	2
153	155	3
88	108	1
67	69	1
44	45	2
2	4	2
136	146	1
39	46	2
126	128	1
55	65	1
98	152	2
84	87	2
31	50	1
88	153	1
36	39	1
93	107	1
111	145	2
71	98	1
124	126	1
79	125	1
24	35	2
107	111	1
68	82	1
3	5	1
37	87	1
13	16	1
99	101	1
88	109	1
89	140	1
111	117	2
110	113	1
120	121	1
106	108	1
121	136	1
47	48	1
117	155	1
32	34	1
6	73	1
69	141	1
85	88	1
75	95	1
56	58	1
112	144	1
27	28	2
31	36	1
135	138	2
123	126	1
26	43	2
135	153	1
133	157	1
78	95	1
53	67	1
133	136	1
106	115	1
140	143	1
103	112	1
9	86	1
83	120	1
93	95	1
91	142	1
127	128	1
25	29	1
