92	92	14
101	101	8
30	31	4
44	44	12
45	50	5
75	75	18
101	102	4
77	91	1
71	72	3
80	86	2
60	62	4
87	88	10
89	89	8
96	96	13
55	56	6
48	49	2
90	91	3
78	78	13
58	61	1
91	91	20
74	74	11
68	76	5
38	38	8
85	85	9
57	57	11
45	46	3
26	26	4
42	42	20
97	97	5
79	79	15
51	51	3
51	54	4
69	70	6
67	67	18
47	50	2
63	63	21
61	62	3
86	87	8
59	59	12
70	70	22
31	31	12
65	66	10
93	96	2
66	69	1
52	62	1
60	60	1
87	87	11
63	64	7
68	68	24
95	95	11
77	77	9
37	38	8
68	69	3
81	81	12
94	94	12
98	98	3
77	90	1
33	71	2
49	49	23
37	37	5
100	100	7
74	76	3
79	80	8
90	90	10
35	35	2
45	96	2
63	79	1
71	71	9
69	69	15
55	94	2
48	48	22
34	72	3
43	43	9
91	92	13
81	97	2
85	100	4
68	99	4
64	64	9
85	89	4
39	39	20
28	29	1
76	76	13
94	95	2
95	98	1
99	99	22
34	41	3
73	73	12
34	34	9
86	86	7
40	40	2
20	24	1
43	90	4
50	51	3
66	66	4
100	101	16
74	75	2
53	53	5
65	65	11
32	42	1
56	56	15
92	93	1
33	33	3
72	72	11
81	84	1
54	54	7
36	36	10
58	62	5
96	98	3
25	25	4
32	33	2
46	46	5
30	30	4
47	47	7
94	98	3
55	55	6
25	45	1
80	93	2
96	97	18
61	61	2
81	94	4
27	28	1
86	88	2
52	53	3
57	70	3
29	29	5
58	59	2
62	62	4
53	54	8
26	27	2
62	63	1
84	84	5
93	93	8
82	82	4
94	97	2
45	95	1
71	76	3
92	94	5
41	41	12
82	83	3
55	58	2
58	58	4
80	80	3
88	88	16
48	80	2
57	58	1
33	35	1
45	49	2
53	93	2
88	89	3
49	50	6
60	93	2
20	41	7
96	101	3
26	28	2
35	38	2
47	48	5
28	46	1
57	61	2
38	39	11
20	22	5
41	42	2
24	24	3
71	74	8
76	79	3
31	34	2
83	83	8
44	45	3
60	61	2
27	27	5
51	59	2
84	94	3
97	100	2
84	96	4
95	96	5
53	55	7
89	90	1
94	96	2
43	44	2
42	70	1
35	36	3
45	45	6
76	77	2
54	82	2
98	99	2
52	52	5
77	95	2
24	25	2
80	95	2
25	27	2
50	50	5
50	90	2
88	94	2
79	91	2
44	90	2
64	65	2
81	83	2
61	63	3
46	49	3
70	71	1
46	47	2
93	94	2
66	67	2
81	98	1
82	99	1
80	81	2
51	91	2
42	74	3
28	55	2
25	48	2
51	78	1
40	41	1
33	38	5
72	73	1
79	89	3
46	48	1
84	102	1
64	90	1
39	40	3
84	88	3
51	70	1
89	93	2
43	70	1
34	73	2
33	37	3
98	100	1
57	77	2
67	68	3
29	30	3
69	78	1
26	46	1
79	93	1
51	52	1
25	38	1
59	74	2
28	28	1
83	97	1
85	98	1
69	71	1
99	100	1
73	74	2
98	101	1
55	57	1
59	72	1
68	70	1
82	84	1
41	58	1
40	73	2
77	78	1
99	102	1
75	77	1
48	51	1
43	48	1
91	93	1
33	34	2
92	100	1
99	101	1
86	94	1
58	85	1
