25	25	9
92	92	9
52	89	3
75	75	6
40	41	4
21	21	9
79	79	2
24	25	2
96	100	8
101	101	3
103	103	4
94	94	15
81	81	3
30	30	3
78	78	4
31	31	6
53	54	6
49	78	1
70	87	2
33	33	12
23	23	10
38	38	4
32	48	1
82	82	10
106	106	5
97	99	5
54	55	3
57	57	4
61	61	2
86	86	9
100	100	3
49	49	6
30	41	5
82	85	9
69	69	8
77	77	2
53	53	9
57	59	2
67	67	7
29	71	3
73	73	9
87	97	1
22	60	11
70	70	4
51	52	1
52	52	15
97	98	2
85	86	2
95	95	6
60	60	5
39	79	3
88	89	1
38	39	7
31	77	2
42	42	6
74	75	1
33	34	5
96	96	8
84	89	4
52	53	3
27	44	1
35	35	3
40	45	2
71	82	2
26	26	4
29	30	5
87	87	4
85	85	7
84	84	6
44	44	4
94	96	2
83	87	2
71	74	2
21	97	3
85	101	4
27	28	2
28	28	5
80	81	1
82	83	3
74	107	2
48	48	5
80	80	7
74	74	8
73	74	3
50	69	1
83	83	3
83	106	2
76	76	5
50	50	6
35	39	1
85	92	4
89	89	7
35	36	1
34	34	6
41	46	1
68	69	2
84	85	4
24	58	1
63	63	4
65	73	1
92	93	1
91	91	7
51	51	3
99	100	1
44	45	1
29	41	3
27	30	1
39	39	2
29	66	1
65	65	3
66	66	3
81	84	1
68	68	2
85	87	2
87	106	2
52	65	2
95	96	3
87	88	2
71	71	2
88	88	4
93	93	2
58	59	4
57	58	2
67	96	1
43	43	2
36	36	1
83	101	2
97	97	5
70	71	2
37	37	6
61	62	1
36	37	2
24	84	4
25	79	1
67	68	3
62	63	2
32	32	1
20	21	1
64	64	3
92	106	1
62	62	3
46	47	4
27	27	2
56	61	2
99	99	3
35	80	2
22	22	2
55	91	2
45	45	1
47	76	3
37	40	2
40	46	2
40	40	2
58	58	2
44	58	1
40	42	2
82	88	2
29	65	2
32	33	1
37	44	2
56	58	2
20	25	4
24	24	1
20	45	1
98	98	2
22	82	1
31	49	2
86	87	2
20	20	2
35	51	1
77	78	2
75	103	1
46	48	1
86	95	1
102	102	1
84	87	1
93	96	3
94	95	2
37	38	1
59	59	1
60	61	1
69	106	1
55	55	1
90	91	1
66	93	1
56	93	1
24	60	1
71	84	1
21	81	1
40	44	1
50	51	1
28	81	1
54	54	1
24	81	1
55	65	1
56	65	1
72	72	1
41	48	1
72	73	1
61	64	1
