27	125	2
79	79	5
75	75	8
99	103	1
106	106	7
74	77	3
179	181	3
84	85	18
67	70	1
88	88	14
46	48	3
80	80	16
12	12	10
62	63	7
125	125	16
90	90	7
169	170	8
27	27	11
179	180	7
131	131	10
181	181	2
180	180	11
22	111	2
121	121	16
109	109	10
142	143	7
83	95	3
32	61	1
166	166	1
185	185	10
15	123	3
54	54	7
129	129	27
56	56	14
146	147	8
95	95	15
127	127	3
83	94	2
82	82	9
9	9	4
81	81	13
10	11	5
123	183	4
134	134	12
72	72	7
22	22	14
106	143	1
52	54	1
151	151	14
102	102	17
87	87	21
169	173	2
31	31	14
97	97	13
169	169	17
132	132	6
148	148	16
28	28	15
154	154	11
32	126	1
154	155	4
147	147	9
89	90	9
130	131	2
15	15	8
181	182	2
48	62	4
100	100	11
2	30	1
7	7	15
111	111	5
41	41	35
127	128	1
43	45	2
104	104	8
70	70	6
83	84	6
137	137	3
16	34	1
31	36	2
70	71	1
128	128	21
139	139	10
53	56	1
110	112	5
184	184	17
16	17	12
125	126	10
172	172	9
141	142	5
34	34	5
134	135	6
84	84	8
76	77	8
43	43	3
53	53	14
89	89	26
48	48	17
40	41	2
77	78	4
10	108	5
27	34	2
71	75	1
20	20	6
100	101	4
40	40	15
47	47	12
127	129	2
25	26	4
2	7	5
78	79	7
141	143	3
2	2	22
1	1	16
106	108	3
140	140	14
135	136	4
26	26	10
36	36	4
119	122	4
8	8	3
85	85	12
116	161	4
166	168	5
96	97	7
57	57	20
12	13	2
127	148	3
76	76	2
71	71	1
98	121	2
98	98	4
52	52	7
115	115	2
32	33	3
137	139	4
146	146	11
179	179	4
130	133	1
177	178	5
77	77	17
86	86	7
67	67	11
165	166	2
126	127	3
164	166	1
116	116	7
168	170	10
11	12	1
65	65	2
74	74	6
24	24	11
116	117	4
101	106	5
154	162	1
118	118	12
156	161	7
94	94	9
30	30	14
61	65	9
103	103	21
130	130	27
138	139	3
168	168	10
74	102	4
18	18	7
63	63	6
79	80	7
119	119	4
80	81	6
152	152	14
102	105	2
123	136	1
123	123	17
177	179	4
45	45	6
66	66	8
13	13	14
13	37	3
113	113	16
104	105	2
124	127	3
150	150	13
9	38	1
0	0	4
96	96	20
167	167	4
133	134	1
105	105	7
188	189	4
11	11	6
11	108	1
107	107	2
29	29	16
102	119	1
4	7	4
71	76	4
14	14	9
170	170	12
101	101	11
11	13	3
183	183	18
38	38	14
112	113	3
168	169	2
88	89	1
3	4	2
117	117	11
187	190	7
149	150	5
3	3	14
23	24	11
142	142	4
175	176	1
106	128	3
168	171	1
19	45	2
53	55	4
133	138	1
47	87	5
135	135	13
91	94	3
141	141	4
44	45	3
83	83	4
33	35	8
178	179	4
14	15	6
25	25	3
120	120	6
36	37	8
178	181	1
99	100	7
123	178	4
66	67	2
37	38	5
162	163	5
124	124	14
75	76	4
73	73	3
43	44	4
76	190	2
74	75	1
91	93	2
5	6	1
173	173	19
112	112	19
4	6	3
187	187	12
115	117	3
92	92	7
35	38	4
103	104	5
6	6	15
188	188	4
39	39	16
189	189	4
82	85	5
186	186	10
140	142	1
19	20	4
135	139	1
60	60	11
175	175	5
134	136	1
44	44	2
2	40	3
37	40	5
124	184	5
6	7	5
158	161	6
35	36	3
45	114	2
62	64	5
77	79	2
155	156	6
152	153	5
75	104	1
145	149	1
176	176	7
53	58	1
35	35	8
17	17	5
59	59	8
17	18	10
78	80	1
158	158	2
166	170	3
35	65	2
17	19	5
136	137	7
63	64	5
55	57	3
24	41	3
94	104	1
40	139	2
21	22	1
131	137	4
138	138	9
102	104	4
81	86	1
93	97	5
85	86	7
102	103	4
113	116	1
13	14	4
116	118	3
157	162	2
110	110	7
140	141	12
91	91	12
162	162	3
150	153	2
86	87	1
27	30	3
95	96	2
149	152	6
72	75	3
19	19	3
1	2	3
190	190	2
53	54	6
16	25	4
42	82	2
41	42	7
17	113	1
68	70	5
37	37	4
11	107	4
5	5	5
30	31	4
55	94	1
46	47	3
4	4	6
21	23	3
95	104	1
93	94	1
171	172	1
73	74	6
34	38	2
99	99	7
92	94	1
123	151	3
46	46	7
165	165	5
174	174	7
23	25	2
84	87	3
113	114	3
177	177	5
54	55	3
27	28	2
117	119	2
114	116	4
186	188	4
160	162	2
4	36	2
4	8	4
35	37	2
136	141	1
48	49	1
181	183	1
172	173	1
60	90	3
15	16	1
145	146	7
71	72	2
21	21	5
14	115	1
78	78	7
86	89	2
31	32	3
16	16	13
42	43	8
81	103	3
123	138	3
143	143	6
73	75	1
12	16	2
59	90	4
139	141	2
123	124	1
123	149	1
136	138	4
7	131	2
94	95	1
161	161	2
145	145	3
23	23	8
131	138	2
90	91	6
131	133	3
186	187	2
115	122	1
171	171	4
24	26	1
43	85	2
42	42	7
4	37	3
133	133	2
2	6	2
185	189	2
121	172	3
60	62	1
31	33	1
182	182	4
10	13	3
183	184	3
130	136	3
144	148	1
58	97	1
33	36	4
13	109	1
124	183	4
86	94	2
157	170	2
95	100	1
71	74	1
39	40	2
61	61	4
97	99	2
178	178	2
156	156	4
8	15	3
17	115	1
155	155	2
55	55	3
107	108	1
108	109	2
157	157	4
56	57	1
105	184	1
165	167	3
12	124	1
11	127	3
111	112	4
32	32	7
128	129	4
93	93	3
8	9	1
10	12	3
121	173	2
173	174	5
145	147	1
109	110	3
132	133	2
119	145	1
58	58	1
60	61	1
174	185	4
178	180	3
45	67	1
77	190	3
124	126	2
32	35	2
116	122	2
30	65	1
10	10	1
175	177	1
54	97	1
122	122	4
107	145	1
68	68	3
24	29	2
120	144	2
57	58	1
166	169	2
156	158	3
1	6	1
158	159	2
163	163	2
18	20	1
28	66	1
90	92	3
185	187	2
102	106	1
20	41	4
149	149	7
15	17	1
108	108	2
38	40	2
36	133	2
187	188	2
55	56	1
158	170	1
38	39	1
171	173	2
72	73	1
38	140	1
33	40	1
48	68	1
148	149	2
179	182	3
54	56	1
114	115	2
62	62	2
9	110	1
33	33	2
102	140	1
98	100	2
17	21	4
139	140	2
177	180	2
155	157	1
117	118	2
176	177	1
95	97	2
175	190	1
100	110	3
142	144	1
67	68	1
180	184	1
46	49	2
104	106	1
116	157	1
27	66	3
118	120	1
94	96	1
109	111	1
81	83	1
101	102	1
105	106	1
87	88	2
44	46	1
15	132	1
123	139	1
184	186	1
175	179	1
124	137	1
187	191	2
24	129	1
64	65	2
180	181	2
34	36	2
175	185	1
147	148	1
57	123	1
157	158	1
92	93	1
48	89	3
29	66	1
22	24	2
7	8	2
72	87	1
41	45	1
91	92	1
68	69	1
182	183	1
35	151	1
116	155	1
164	164	1
117	121	1
98	99	1
170	173	1
27	127	1
160	160	1
19	23	1
53	57	1
59	63	1
126	132	1
157	161	2
175	184	1
103	105	1
161	162	1
35	127	1
