79	122	5
99	99	9
110	111	8
1	73	2
105	119	3
44	44	14
76	76	16
22	27	6
125	125	8
67	68	2
71	71	14
43	43	11
37	37	4
45	45	9
115	115	4
111	111	10
21	21	2
64	64	13
11	11	9
10	10	9
18	18	6
2	3	2
86	87	5
134	134	12
118	118	18
97	98	3
48	48	8
14	14	7
109	109	14
117	117	4
84	84	11
31	34	2
50	50	4
28	28	12
124	124	10
5	5	16
85	85	9
122	123	5
20	21	3
108	109	12
120	120	13
0	0	8
24	24	20
89	89	10
49	49	2
55	57	4
33	33	5
90	90	13
52	52	7
96	97	3
57	100	5
106	107	16
30	30	7
63	82	4
72	72	32
82	82	10
1	1	9
56	56	4
62	111	4
114	114	17
37	100	4
13	14	1
57	57	8
33	63	3
83	84	2
132	132	15
69	93	5
9	10	11
62	62	14
119	121	11
97	97	14
129	130	6
8	11	5
26	26	8
13	13	4
100	101	2
35	35	13
126	126	14
87	87	12
130	130	5
34	34	10
114	115	2
91	92	6
1	2	2
128	128	6
59	59	15
79	86	5
119	119	5
68	69	2
35	36	3
116	116	26
46	46	9
103	104	3
93	93	20
2	53	5
132	133	2
57	99	1
82	86	3
106	106	8
42	122	6
83	85	1
53	53	16
107	108	6
7	9	3
128	129	5
95	100	2
108	108	1
20	43	1
50	55	6
95	95	10
101	101	11
29	30	3
100	100	14
113	113	8
7	8	3
112	112	11
17	17	10
33	62	4
91	91	12
27	27	6
81	81	8
79	89	7
119	134	4
111	117	4
103	103	12
54	54	2
120	121	7
73	73	9
100	110	1
79	79	8
130	133	2
8	8	16
7	7	7
64	67	3
32	32	4
129	129	9
92	92	10
36	97	2
104	126	2
77	79	3
67	77	2
9	9	4
102	102	14
3	5	4
98	98	7
75	104	5
61	107	3
4	4	4
88	88	12
25	25	7
66	82	5
54	55	1
105	105	9
23	23	4
88	101	3
51	56	2
85	88	1
59	61	2
77	77	10
57	64	3
127	128	2
68	100	4
118	124	1
98	102	2
60	106	3
49	55	5
80	80	3
47	47	5
58	59	3
77	78	8
80	108	1
110	110	4
36	36	7
125	126	2
61	61	16
53	56	2
31	31	4
50	64	1
43	44	2
94	94	15
60	61	3
101	104	6
65	85	4
59	106	4
81	122	5
61	62	4
63	80	2
56	60	2
130	134	4
75	75	3
127	127	13
133	134	2
110	113	4
16	23	3
15	24	3
83	83	8
101	116	3
4	49	1
113	114	2
50	59	5
75	123	1
51	91	1
130	131	6
29	29	5
0	1	4
70	70	14
116	117	2
64	82	5
68	68	8
107	107	4
3	3	4
37	97	6
69	69	4
19	19	3
70	73	2
61	66	2
58	106	1
96	96	3
97	99	1
6	6	6
22	22	3
16	22	1
60	109	2
63	63	7
65	67	6
93	94	1
74	74	8
60	60	5
63	93	3
5	6	5
105	106	2
63	79	3
95	96	5
71	72	6
64	65	1
59	114	4
33	34	2
18	56	1
96	107	3
15	15	8
2	2	8
84	87	4
27	102	2
122	122	1
78	78	3
12	12	7
43	46	5
28	95	1
66	81	3
58	58	3
36	37	4
14	54	1
116	123	2
90	122	1
99	124	1
38	38	7
54	56	1
32	61	2
126	127	1
44	45	4
72	73	3
36	96	1
77	105	1
38	66	2
52	59	1
52	53	2
78	86	1
81	117	1
50	56	1
104	104	7
70	71	3
82	121	1
50	52	1
38	45	1
69	79	1
69	76	1
20	20	10
14	21	2
121	121	2
132	134	1
95	107	2
84	86	1
56	58	3
9	11	2
57	58	4
6	7	3
86	86	4
27	94	2
90	134	1
108	133	1
46	47	1
112	133	1
82	108	2
119	125	1
66	66	2
55	55	1
16	16	2
83	111	1
70	80	2
28	29	1
121	122	8
12	18	1
131	131	2
59	107	2
106	108	2
114	123	1
76	77	1
65	66	2
60	103	1
118	119	1
76	104	3
116	121	1
129	131	3
45	82	1
131	134	1
83	86	2
83	87	2
53	54	1
127	129	1
119	124	1
111	122	2
66	83	1
49	50	3
68	88	2
48	80	1
13	98	1
89	90	1
130	132	3
134	135	1
55	67	1
34	70	1
24	60	1
99	112	1
35	76	2
102	103	1
3	4	1
4	7	1
28	30	1
55	97	1
123	124	1
104	105	1
107	111	1
133	133	1
