45	45	7
74	74	8
170	171	1
152	152	3
236	236	2
79	80	7
39	41	5
183	187	1
8	8	7
175	217	3
37	37	2
114	115	1
95	119	1
75	77	1
221	221	2
35	49	4
173	201	1
5	5	4
73	73	3
226	226	1
212	236	1
156	156	3
227	227	3
85	85	2
60	62	3
7	8	5
185	185	1
34	34	5
213	236	2
42	42	2
137	150	1
238	238	11
44	45	5
18	19	6
81	81	4
242	242	3
31	31	1
27	27	5
52	53	4
76	79	1
39	39	1
135	136	2
156	177	5
215	216	2
163	163	2
49	49	4
6	6	5
71	71	1
77	77	1
36	57	4
33	33	7
188	188	2
124	125	1
127	128	3
31	32	2
127	127	1
106	107	3
162	162	2
8	30	1
99	100	2
198	200	2
120	121	2
79	79	1
47	47	1
104	105	1
161	161	5
181	207	1
0	14	4
38	38	3
21	21	7
30	32	6
86	102	3
120	120	4
198	198	4
76	78	2
73	74	3
21	23	3
12	13	4
105	105	4
126	126	1
154	155	4
208	208	1
60	60	6
11	14	1
136	136	5
156	157	1
52	52	4
54	54	1
117	124	1
35	36	2
44	46	2
124	126	2
118	118	3
38	39	3
43	62	1
10	10	5
11	76	1
165	165	2
133	133	5
24	24	4
17	17	3
15	15	3
96	96	2
143	143	1
66	66	1
84	84	5
107	108	1
166	171	3
194	194	2
28	28	6
150	153	1
160	194	5
220	221	1
69	69	6
102	102	2
178	178	1
211	242	2
201	202	3
96	105	1
117	123	3
181	181	4
158	158	3
168	169	3
122	122	2
104	104	3
48	48	1
192	192	1
237	237	2
168	168	2
216	216	1
106	119	2
158	159	1
180	180	2
75	78	1
13	17	3
109	136	3
212	213	1
22	22	1
11	11	6
76	76	4
159	159	5
203	203	1
206	206	2
231	231	2
39	47	1
132	135	1
53	57	4
47	106	1
65	65	1
0	9	3
78	79	1
51	51	5
2	30	2
35	35	1
55	55	2
197	197	1
141	141	1
20	22	1
173	173	1
52	78	1
4	19	1
24	25	1
119	119	1
134	134	1
220	220	1
99	107	1
37	38	2
20	33	2
1	2	1
218	218	2
200	200	1
13	13	1
135	135	1
59	59	6
119	127	1
106	108	3
189	189	2
80	80	1
39	40	1
7	30	4
26	26	2
169	169	2
46	47	1
118	119	1
38	196	1
184	209	1
103	104	1
79	82	1
39	44	1
86	86	2
75	75	1
34	36	1
20	20	2
50	50	2
108	123	1
88	88	1
140	140	1
57	57	1
9	10	1
215	215	3
202	202	2
28	51	1
95	95	1
96	98	2
176	178	2
211	211	2
1	13	1
138	138	1
14	15	1
45	77	1
18	18	2
166	166	1
212	212	1
153	163	1
197	201	1
150	187	1
113	125	1
18	57	1
164	177	2
61	61	1
172	173	1
137	137	2
44	44	3
210	210	1
137	183	1
9	11	1
3	5	1
139	139	1
17	79	1
19	19	1
4	5	2
72	72	2
9	18	2
4	31	1
125	125	2
165	177	3
80	81	1
105	115	2
30	30	1
101	101	1
7	7	1
83	83	1
3	3	1
205	205	1
71	72	1
212	219	1
40	40	1
167	169	1
145	146	1
177	177	1
40	41	1
209	209	1
56	81	1
32	32	1
204	214	1
157	157	1
119	121	1
144	144	1
116	117	1
100	100	1
11	15	1
15	17	1
34	35	1
32	86	1
67	68	1
82	83	1
2	13	1
161	192	1
16	16	1
139	140	1
117	117	1
