19	19	36
128	129	24
11	24	4
21	21	31
133	133	52
88	88	29
134	135	13
119	122	15
133	134	11
139	139	34
6	37	1
24	25	14
1	3	1
8	8	23
110	110	17
140	140	33
107	107	23
33	124	1
137	137	32
128	128	42
122	122	63
127	140	3
27	27	18
104	112	3
2	16	3
7	104	5
118	118	26
100	100	18
12	19	2
13	31	1
115	115	20
102	102	46
86	86	24
93	94	18
135	136	24
114	116	6
17	18	8
135	135	37
104	107	3
120	121	6
47	85	1
134	134	42
30	31	11
13	13	25
138	138	31
136	136	32
85	85	29
6	6	25
92	93	18
7	8	7
99	99	16
91	101	2
77	77	29
98	98	27
121	121	31
89	98	1
91	91	35
106	106	24
16	17	5
105	106	14
74	74	39
19	21	4
129	129	33
116	119	6
91	92	4
89	116	2
30	32	7
38	38	10
13	14	12
25	26	13
101	101	44
113	113	25
131	131	45
89	89	25
75	86	2
80	81	4
126	137	4
123	135	3
75	75	42
74	75	14
123	124	16
103	103	39
0	1	8
37	37	28
112	113	27
4	16	1
90	94	1
17	17	23
9	30	2
82	82	19
130	130	63
8	38	4
81	83	9
97	97	19
16	16	10
90	101	3
107	112	1
5	5	32
72	72	29
127	133	2
36	36	23
23	25	8
126	126	40
124	130	2
96	96	31
109	111	21
94	95	10
24	26	7
117	118	17
129	130	4
1	10	1
18	18	24
3	3	26
7	7	21
4	5	12
114	114	26
96	100	6
108	108	19
18	19	7
125	125	35
102	104	3
93	93	28
84	84	9
88	123	2
101	103	3
34	34	36
27	28	5
105	105	15
103	104	9
72	119	6
103	105	5
120	120	21
119	119	28
92	92	25
0	12	1
73	74	12
112	112	51
127	127	54
123	123	70
6	7	11
124	135	1
121	122	32
126	127	16
89	109	2
78	78	41
0	14	2
33	33	24
115	128	3
32	32	24
119	120	6
7	9	5
130	131	6
10	10	11
109	109	8
31	31	16
15	16	7
81	109	2
15	15	19
110	111	32
95	95	10
81	81	17
124	125	31
29	32	7
25	25	15
80	118	4
35	35	30
95	98	2
119	121	4
83	83	10
0	0	16
90	90	33
102	111	1
86	89	1
96	97	4
10	12	7
131	132	17
104	105	16
81	84	4
31	47	1
1	1	14
139	140	31
122	123	12
3	9	2
104	104	22
124	124	33
4	23	3
28	28	37
2	3	2
9	9	23
117	117	18
85	107	2
96	98	3
19	22	4
24	24	21
32	137	1
79	80	7
23	24	5
89	90	7
125	128	3
137	138	15
37	38	4
111	113	4
97	98	7
0	15	1
120	122	8
76	76	32
111	111	37
88	102	1
78	123	7
87	116	1
116	116	25
80	80	21
108	109	23
93	96	3
77	78	17
27	32	1
71	71	24
29	30	2
101	108	9
87	88	6
111	112	13
78	79	26
5	6	5
115	129	6
86	113	6
95	96	9
84	85	16
97	127	2
132	133	15
22	22	13
78	82	2
89	93	1
78	81	5
13	20	4
79	79	13
82	83	11
12	12	15
83	86	1
76	92	4
94	94	28
7	14	6
104	106	5
132	132	39
87	87	29
75	76	4
121	123	2
20	77	3
5	33	3
125	130	1
22	24	7
136	138	2
136	140	1
86	125	2
79	81	4
82	121	2
82	85	3
10	24	2
109	118	3
80	114	3
99	100	4
12	13	8
4	4	12
90	92	3
14	15	3
27	36	3
94	119	1
17	19	2
72	73	9
13	26	1
20	20	17
103	108	3
7	11	2
123	125	7
94	100	6
4	7	5
90	91	12
118	119	8
14	14	25
135	138	3
91	94	5
2	4	1
10	11	9
14	21	2
116	121	1
135	139	5
32	33	2
0	11	1
23	23	15
6	14	4
21	22	13
88	89	5
73	73	22
28	32	3
5	101	2
75	124	4
91	96	2
127	129	4
84	86	1
127	130	6
131	133	3
23	26	5
1	2	5
22	25	2
124	127	4
105	115	3
91	93	4
29	33	3
89	126	1
2	2	23
33	35	3
78	120	2
136	137	5
8	9	8
21	23	3
2	31	4
26	27	6
98	99	3
109	110	3
138	139	3
86	88	4
127	128	16
106	107	14
100	114	3
99	125	6
71	74	3
96	104	1
83	84	6
80	108	4
74	81	2
107	114	2
20	21	8
81	82	10
128	132	2
76	77	11
87	91	2
124	126	5
75	89	1
86	90	2
72	122	7
20	32	3
126	135	3
29	29	3
31	32	8
34	35	5
125	126	11
3	28	3
114	124	2
114	122	1
103	123	3
79	103	5
137	139	2
33	88	1
129	137	6
85	103	3
33	38	1
81	85	1
104	115	2
92	97	1
8	10	7
114	115	14
16	18	6
78	80	1
80	83	2
91	127	2
98	128	3
125	127	2
99	127	4
36	37	4
35	36	5
116	118	5
28	29	4
125	129	1
88	125	1
71	72	5
126	132	2
73	104	1
91	95	2
91	97	2
95	128	3
94	96	1
104	108	1
99	138	3
26	26	10
25	29	1
118	122	2
127	135	2
1	22	4
84	104	4
5	21	1
71	80	2
6	16	2
124	131	2
80	85	2
36	93	4
100	134	3
92	120	1
114	128	2
134	136	2
14	103	3
0	21	4
71	113	1
3	13	3
83	85	8
76	102	5
33	34	2
126	128	2
75	77	3
113	119	2
85	92	2
129	132	1
14	19	1
78	122	2
79	95	3
92	96	1
1	23	2
76	104	1
82	86	1
101	105	4
22	23	4
14	134	1
9	10	6
11	11	6
130	137	1
127	136	1
87	93	1
19	30	1
97	99	3
41	47	6
75	102	2
28	30	7
127	137	2
3	4	6
14	17	3
106	115	2
80	113	2
126	130	1
110	123	1
13	104	3
117	136	3
104	120	4
73	96	1
84	119	2
31	33	2
134	138	2
2	25	1
13	32	6
11	107	4
112	121	3
19	20	5
25	28	3
123	127	1
23	30	2
26	101	2
74	123	2
27	29	1
102	139	2
8	16	1
88	92	1
121	125	2
98	106	2
117	123	2
12	22	1
15	17	1
102	103	2
100	137	1
8	12	6
13	19	3
76	78	3
74	77	3
8	11	1
89	114	1
76	84	2
84	87	1
129	135	3
78	111	4
99	101	1
72	121	2
72	80	2
79	108	1
33	137	1
128	130	1
115	127	1
75	100	1
30	30	4
97	134	3
9	11	2
88	91	4
112	115	1
89	91	1
19	25	1
130	133	3
101	138	5
11	12	3
85	105	1
107	108	2
88	90	1
76	124	3
93	95	1
101	102	1
120	123	5
14	104	1
84	116	2
123	139	1
102	122	2
98	138	2
109	112	1
135	137	2
109	134	1
71	88	1
11	18	2
116	127	1
7	20	2
3	16	2
29	31	2
112	114	2
15	102	2
77	120	1
0	2	4
114	123	1
5	116	1
72	94	1
129	134	2
72	74	1
133	135	3
124	137	2
79	113	1
99	102	2
88	124	2
27	31	1
80	86	2
81	117	1
80	119	1
84	126	1
7	10	2
118	121	1
73	105	1
71	104	1
26	120	1
73	93	1
128	133	1
87	114	3
33	125	1
71	136	1
9	13	2
124	134	2
73	121	1
73	129	1
117	120	1
108	110	1
87	113	1
88	115	1
44	66	1
100	140	1
113	115	1
70	71	1
78	121	1
19	27	1
87	115	1
100	101	1
71	73	2
4	103	1
77	103	1
73	90	1
90	102	1
113	116	1
88	100	1
110	112	2
84	107	2
26	66	1
85	86	1
115	124	1
116	120	1
108	111	1
3	8	1
91	106	1
116	117	4
111	119	1
16	31	1
102	121	1
77	79	2
122	128	1
80	88	1
4	6	1
6	19	1
17	129	1
115	116	1
82	116	1
18	21	1
80	124	1
77	94	1
74	108	1
95	97	1
76	87	1
7	38	1
0	30	1
77	91	1
98	102	1
89	127	1
74	100	1
113	114	1
