27	27	8
28	28	5
13	15	1
154	154	14
25	25	9
68	85	3
103	103	21
97	97	7
120	144	6
47	47	21
39	39	5
74	78	4
106	106	12
22	22	18
23	23	19
10	10	10
71	71	16
28	39	6
148	152	3
95	95	5
99	99	11
133	133	15
77	77	9
140	141	9
32	34	4
46	46	42
110	113	1
62	69	1
102	102	14
50	50	9
17	17	22
4	5	5
45	45	12
101	102	9
38	38	10
18	33	2
56	57	3
148	148	2
33	33	11
108	109	3
76	76	20
22	23	8
14	14	17
44	44	8
19	19	12
94	94	4
69	69	8
128	128	7
27	28	3
51	56	6
36	36	5
67	68	16
51	51	6
116	117	5
3	5	2
67	67	18
130	130	12
63	63	16
127	127	3
112	112	6
13	13	27
149	149	8
93	93	7
18	18	6
95	96	3
142	142	2
119	122	4
25	27	9
37	38	8
44	46	3
31	32	13
78	83	4
87	87	11
19	31	2
120	120	4
94	95	2
11	11	8
105	111	1
34	34	17
16	16	12
2	3	2
42	43	6
5	12	4
93	96	2
21	21	13
48	66	1
153	153	15
100	100	15
71	77	3
84	84	13
128	137	2
115	116	3
9	9	17
53	54	10
3	4	6
80	80	7
82	83	6
66	66	13
53	53	10
34	40	5
4	6	3
55	55	4
16	32	9
102	122	5
21	22	3
5	6	4
33	34	3
69	70	3
104	104	5
80	81	6
78	78	7
82	82	5
137	145	2
40	40	19
29	30	3
19	20	2
15	15	8
119	152	1
3	3	7
64	66	6
127	136	3
123	123	8
142	143	2
5	11	1
48	51	3
17	23	2
14	26	4
14	130	1
144	144	3
110	119	2
6	6	9
83	86	1
147	147	4
74	79	10
58	58	2
62	62	6
150	151	4
14	15	9
38	39	3
12	12	6
128	130	9
57	57	8
31	31	13
105	110	5
30	32	1
3	14	2
28	33	3
5	5	6
30	30	21
75	75	10
37	37	7
143	144	1
89	92	3
79	79	8
82	84	6
69	85	2
145	147	4
48	48	8
150	150	5
141	141	4
128	129	5
8	8	5
30	38	3
99	113	4
21	23	1
130	131	7
10	11	2
146	146	9
121	121	5
77	78	8
112	113	7
134	134	5
135	141	3
131	151	3
113	113	2
108	108	5
83	85	2
13	28	5
29	29	10
43	43	3
124	143	3
90	93	1
41	42	4
44	45	3
49	49	11
70	99	3
79	94	1
70	70	10
7	7	15
40	41	7
109	109	5
32	32	8
110	112	1
115	115	5
122	138	3
43	46	5
7	13	1
39	40	7
17	18	4
131	131	13
75	99	3
86	88	3
11	12	4
81	81	3
15	42	1
13	20	2
22	24	4
49	50	3
73	93	2
116	116	6
41	41	18
104	105	4
107	107	11
129	129	4
114	114	5
34	35	3
55	56	6
14	32	1
6	12	3
25	26	3
118	118	3
79	80	5
129	131	5
24	24	16
103	109	1
48	50	1
117	117	11
85	95	2
92	93	3
76	77	8
56	56	3
134	150	2
73	73	6
90	90	3
15	16	9
98	99	8
147	150	5
103	104	2
139	139	5
67	97	2
10	14	3
123	128	1
30	31	2
76	82	1
6	9	2
13	27	1
125	126	2
84	98	1
31	50	2
65	65	3
151	151	6
136	139	3
20	21	5
147	148	4
143	143	6
4	9	2
122	122	10
32	33	9
82	96	3
109	110	5
83	83	2
12	13	2
75	78	1
28	29	7
50	79	3
64	64	6
132	132	7
88	88	6
126	127	2
57	58	1
137	151	1
52	56	1
7	14	1
153	154	1
97	98	2
87	88	2
121	122	4
96	97	1
68	68	13
131	133	4
45	86	2
16	19	1
48	70	2
124	145	1
111	111	2
106	114	1
74	74	3
122	149	3
73	105	2
12	14	2
64	65	2
25	29	3
137	138	1
31	106	2
16	18	2
144	147	2
5	13	2
13	26	2
64	68	4
8	9	1
140	152	1
127	130	1
84	86	2
66	67	5
42	42	2
96	96	3
109	112	1
24	25	2
124	125	2
138	138	6
25	28	4
54	54	7
37	40	3
26	29	2
79	82	2
8	10	3
152	154	1
4	8	1
78	85	4
100	102	3
6	7	1
135	136	2
43	45	2
48	97	2
27	35	1
70	71	3
123	126	1
26	27	2
94	98	1
105	122	6
47	49	1
110	114	2
3	6	1
51	78	1
109	114	1
133	134	4
91	93	1
18	32	2
138	144	1
35	36	2
122	123	4
18	27	2
80	82	2
43	51	3
54	55	1
130	132	2
51	83	3
54	57	2
119	119	2
134	151	1
11	13	2
69	77	1
64	67	1
110	110	3
72	72	2
35	35	1
42	45	1
126	128	5
141	152	1
56	80	2
85	85	3
111	113	2
46	47	4
152	152	1
2	5	2
24	55	1
74	105	3
48	49	2
128	132	5
116	119	2
105	108	2
69	106	1
28	38	2
63	64	2
16	17	4
62	64	2
145	145	2
113	114	1
66	100	3
133	151	1
138	142	1
81	83	1
86	87	1
24	35	4
126	136	1
13	151	1
65	68	2
42	51	2
26	35	1
68	74	1
77	86	1
75	76	1
76	85	2
117	118	2
131	138	3
137	137	1
81	86	2
28	103	1
137	142	1
51	52	1
42	53	1
18	35	1
26	26	3
37	41	1
23	24	2
135	135	1
149	150	1
20	20	2
65	66	1
129	132	2
126	139	2
26	28	1
76	80	2
112	114	1
146	147	1
125	146	1
86	94	1
27	29	1
102	103	1
140	142	1
13	14	1
67	72	1
65	98	1
93	95	1
100	101	1
103	108	1
107	108	1
43	44	1
81	85	3
46	77	1
74	87	1
139	142	1
34	39	1
76	79	1
148	151	1
71	109	1
109	111	1
133	135	1
10	12	1
19	23	1
47	53	1
24	43	1
71	73	1
87	93	1
118	119	1
57	84	1
86	93	1
85	117	1
74	75	1
2	23	1
