131	132	12
122	122	25
123	123	36
6	6	29
117	118	12
127	127	48
27	27	28
138	138	26
105	105	1
109	126	4
102	103	6
111	125	1
77	79	6
25	25	7
110	110	15
83	83	13
4	4	10
79	103	1
129	130	13
99	99	19
99	130	7
107	108	9
71	71	8
5	5	28
119	119	21
98	98	27
130	135	2
84	85	11
130	130	50
133	133	43
79	80	7
94	94	24
99	100	12
109	109	9
118	118	17
20	21	2
82	85	2
140	140	49
129	129	44
75	75	12
36	36	34
97	97	36
138	139	10
117	117	13
11	12	6
85	86	2
105	107	1
131	131	42
124	124	41
4	27	2
18	18	24
128	128	18
139	139	33
11	11	4
77	77	8
22	22	16
134	134	45
34	34	21
74	74	26
1	1	15
15	15	15
136	137	7
14	14	9
125	125	27
115	116	7
133	135	13
78	79	5
100	100	31
132	135	11
7	8	13
114	114	31
83	86	1
96	96	19
126	126	50
10	21	1
33	33	14
103	103	7
76	76	13
88	88	13
89	89	24
1	28	4
13	13	8
13	15	4
108	109	11
2	2	23
117	120	4
124	125	9
132	134	6
126	127	22
15	17	7
106	107	3
85	85	4
80	80	15
33	35	4
110	114	5
75	76	11
107	117	5
121	121	20
32	32	37
116	116	20
129	133	5
121	123	5
2	30	2
3	4	3
75	77	2
110	125	1
110	112	11
102	102	19
133	134	11
112	113	5
8	8	11
3	3	17
137	137	19
9	11	1
120	120	10
84	84	15
107	107	22
101	101	35
7	12	6
111	111	22
132	132	43
87	87	7
93	94	10
128	129	8
4	14	3
16	16	17
76	78	4
19	19	25
92	93	9
19	32	3
113	121	6
28	28	9
5	37	2
23	25	8
28	29	12
21	28	2
22	25	4
79	87	2
137	139	2
125	126	1
23	24	5
31	31	11
110	113	6
2	14	2
35	35	39
2	7	4
38	38	14
90	90	15
77	103	1
75	80	3
108	112	4
0	10	4
132	133	21
10	11	2
101	122	4
81	83	4
7	7	17
33	34	4
27	29	2
36	74	2
100	123	1
115	115	7
86	102	2
114	119	2
104	105	8
86	86	4
23	23	4
123	124	9
29	29	11
9	44	1
95	95	15
103	107	5
2	3	3
4	5	5
75	103	3
136	136	26
118	119	8
77	78	13
0	0	13
3	34	5
127	128	7
37	37	10
99	129	1
116	120	4
108	108	5
95	96	7
101	121	5
135	135	17
93	93	10
26	26	11
21	22	8
24	25	5
116	117	11
80	82	6
16	28	9
73	116	10
86	87	3
122	123	17
140	141	1
77	104	2
112	112	19
90	91	7
78	102	1
1	33	1
121	125	2
24	24	4
102	109	3
7	9	2
34	35	21
9	9	14
34	36	3
79	102	2
73	73	2
121	122	6
5	6	9
75	101	1
92	92	5
105	118	2
26	27	12
130	133	1
31	32	4
88	89	5
73	80	5
2	4	1
72	73	3
137	138	13
25	26	7
109	111	2
6	7	8
34	95	2
78	88	4
82	82	16
124	126	5
74	90	4
114	115	1
31	33	1
13	27	4
78	78	14
111	112	4
72	72	15
21	21	15
32	33	4
91	95	4
71	72	6
83	84	9
81	102	9
12	12	10
30	32	1
105	106	4
17	17	13
113	113	11
14	28	1
77	105	3
112	124	2
104	104	10
85	102	3
104	108	1
129	137	1
80	113	2
23	26	1
6	33	1
79	79	9
81	81	6
24	26	3
83	85	8
130	132	3
106	106	6
94	98	2
116	121	1
73	76	1
5	30	3
0	1	2
10	12	1
10	10	6
27	30	2
101	123	1
5	13	1
38	39	2
112	125	1
81	82	7
18	20	4
22	30	4
24	31	1
7	91	2
112	121	3
1	32	3
87	88	5
36	71	1
16	17	7
112	120	2
134	135	5
20	26	2
33	72	1
22	23	1
37	74	2
37	38	1
19	97	1
1	2	6
79	88	1
20	20	13
78	111	1
1	31	3
91	91	6
5	22	1
138	140	4
120	124	2
29	30	10
4	74	2
77	88	2
35	36	2
17	18	5
101	111	3
101	102	2
114	117	3
74	79	1
135	136	3
9	12	2
19	20	1
111	122	1
120	121	4
116	122	3
108	111	1
84	88	3
128	130	1
72	74	1
76	77	5
94	95	3
16	21	5
71	89	1
105	111	1
11	14	4
98	99	2
116	119	1
118	120	2
29	31	1
81	85	1
12	22	1
22	27	3
16	19	4
6	19	3
3	75	2
80	84	1
81	84	2
5	7	2
3	97	1
84	87	4
101	126	2
17	31	2
30	30	4
134	136	4
88	90	3
119	120	1
130	131	2
111	124	1
72	77	1
7	38	1
19	23	1
103	127	1
13	14	6
139	140	3
73	74	3
98	100	2
27	31	2
17	32	2
2	12	1
113	119	1
115	117	1
113	131	1
114	116	1
91	92	2
0	32	2
82	87	2
114	123	1
30	33	1
104	118	1
102	127	1
5	8	2
91	94	1
18	32	1
13	28	4
103	105	4
113	122	1
108	110	1
86	90	1
75	89	3
89	93	3
7	11	1
103	106	1
16	27	2
80	89	1
100	101	2
78	80	2
75	81	1
96	116	1
17	29	1
3	19	3
19	22	1
35	97	2
33	37	1
12	16	2
18	19	2
27	28	2
14	15	3
19	114	1
111	126	1
104	107	1
103	104	1
109	110	1
97	99	1
80	111	1
15	29	2
81	107	1
26	32	2
115	119	1
112	122	1
89	94	1
3	28	1
36	37	1
119	122	1
8	9	2
132	138	2
10	28	1
25	29	1
