97	100	7
22	23	3
131	131	12
98	102	2
108	108	9
88	88	15
130	131	5
134	134	23
129	130	6
112	112	20
105	122	1
128	130	1
108	109	6
89	89	12
118	118	3
31	102	4
81	81	6
30	30	3
2	3	6
123	123	17
132	132	16
18	123	2
75	76	1
128	128	11
101	101	12
123	124	10
83	83	6
93	94	6
36	36	13
90	91	4
6	6	4
100	100	15
139	139	11
137	138	4
16	19	1
110	111	7
136	136	15
89	91	2
1	2	1
120	120	9
22	22	11
72	72	7
73	74	1
28	29	7
13	13	9
116	123	3
121	122	10
97	98	16
74	75	6
97	99	3
130	130	13
89	119	1
125	126	4
98	98	11
73	81	2
107	119	1
0	0	3
71	71	5
104	104	15
84	84	10
7	7	2
91	92	6
31	31	16
100	125	2
113	114	5
76	78	3
124	124	20
87	87	19
118	121	2
37	37	6
19	134	1
20	20	8
110	110	13
105	105	4
114	124	3
75	77	4
119	119	10
92	92	9
19	19	10
112	113	6
93	93	10
99	101	1
18	19	3
107	107	8
129	134	5
85	86	7
15	16	3
28	28	10
79	81	3
99	99	14
127	127	17
133	133	18
113	113	4
21	22	4
116	116	13
94	94	8
3	18	3
21	21	17
131	132	10
99	100	3
100	122	2
133	134	5
125	127	4
5	15	4
36	37	4
78	78	8
117	121	6
10	29	2
86	87	10
35	35	8
96	96	13
95	96	7
124	125	6
126	128	1
140	140	15
125	125	16
127	129	3
86	86	3
82	83	7
10	15	2
17	17	12
109	109	10
10	10	3
74	74	20
5	5	6
24	24	8
117	117	13
89	105	2
3	3	7
79	79	17
72	79	1
106	108	1
108	122	3
76	76	10
122	122	18
81	86	3
97	97	4
85	85	4
73	73	15
80	86	1
111	111	9
138	138	15
32	32	8
29	29	3
126	126	24
34	34	20
92	94	4
91	115	1
137	137	12
114	114	8
16	16	3
4	4	4
77	77	7
120	121	4
91	91	14
14	15	3
80	81	6
78	88	1
115	115	9
79	80	3
82	87	2
110	120	2
119	120	2
81	83	7
74	88	1
20	21	5
96	100	1
22	26	1
105	107	2
103	103	6
1	1	3
129	131	4
12	12	5
88	103	1
0	1	1
86	112	4
119	121	1
120	123	3
95	95	4
109	110	7
26	27	5
135	136	4
32	37	2
33	33	10
19	123	1
115	116	2
107	111	1
19	20	2
24	25	3
86	107	1
117	118	3
71	72	4
18	18	4
111	113	2
100	116	1
92	116	2
24	26	1
82	82	8
135	135	9
138	140	5
89	95	1
90	90	11
7	23	5
94	124	1
26	34	1
80	80	7
21	26	4
138	139	7
117	122	3
81	82	6
99	126	1
11	12	1
129	129	9
92	93	2
111	112	2
102	103	4
82	85	2
105	106	2
77	78	1
96	99	1
100	124	1
72	77	2
124	126	2
8	10	1
74	77	2
89	90	2
102	102	9
3	11	1
27	31	5
106	107	3
128	133	1
26	26	7
73	75	1
133	135	2
23	25	2
117	123	1
109	113	3
32	33	1
6	7	1
86	88	3
24	28	2
105	109	4
24	30	1
2	19	2
34	35	2
4	7	1
23	23	4
103	106	2
91	130	2
21	24	2
134	135	1
74	76	1
13	14	2
11	11	5
81	109	2
106	106	4
25	99	2
130	132	1
127	128	3
21	23	4
82	88	1
2	2	2
135	137	1
37	38	2
121	121	4
74	81	1
71	75	2
81	117	1
35	36	2
107	108	6
116	117	1
104	109	3
132	140	2
96	98	1
6	127	1
72	80	2
75	75	4
125	129	1
21	28	1
91	117	1
27	29	1
72	73	6
2	4	1
118	119	1
126	127	4
86	113	3
83	93	2
5	19	2
120	122	1
80	87	1
33	34	2
9	9	2
132	133	2
31	100	1
136	138	1
78	79	4
4	5	1
4	19	2
83	91	1
23	28	1
103	104	3
87	88	2
76	77	8
16	17	1
99	122	1
15	15	1
94	95	1
7	9	5
115	127	1
88	89	1
98	111	1
114	115	1
13	16	1
15	19	1
119	122	2
131	135	1
84	94	1
27	27	1
101	103	3
83	84	2
23	26	1
12	13	2
18	134	1
81	87	1
128	129	2
25	26	2
72	74	1
101	102	1
123	125	2
7	8	1
14	14	2
3	4	2
10	11	1
95	98	1
82	86	1
101	105	1
118	122	1
119	123	1
91	101	1
29	30	1
32	38	1
99	116	1
17	18	2
5	7	1
30	31	1
27	28	1
104	105	1
113	115	1
31	32	1
104	118	1
8	9	1
