123	123	2
30	30	7
75	75	1
156	158	2
182	183	5
70	70	1
107	126	1
108	108	9
105	105	14
38	38	3
104	104	3
111	112	1
110	110	5
70	72	4
29	29	4
142	142	9
177	177	2
63	63	2
157	157	6
32	34	1
100	100	6
86	86	4
81	81	10
62	63	1
73	73	5
59	63	3
79	82	4
65	68	1
27	61	4
144	145	7
10	10	9
148	148	10
110	111	5
149	179	4
134	137	4
106	110	2
89	89	7
25	25	2
5	35	2
141	141	1
99	99	6
95	109	2
87	157	3
152	154	1
13	13	2
153	159	2
10	16	1
62	62	2
144	144	7
36	117	3
16	16	1
60	60	4
150	150	4
34	34	8
37	38	3
155	155	3
108	120	4
3	6	2
74	74	1
31	35	2
66	72	2
102	103	4
118	119	3
46	46	6
79	80	5
129	129	6
38	60	4
77	77	4
56	56	7
9	9	1
114	131	1
90	100	1
67	82	2
29	30	2
186	186	6
93	157	1
163	163	2
79	79	8
39	41	1
12	12	5
9	10	2
62	72	5
27	27	3
1	41	2
72	72	6
34	36	1
16	17	3
147	147	6
55	112	3
61	65	3
134	139	1
103	103	2
37	37	3
84	84	1
85	87	4
75	76	3
109	109	3
36	36	3
137	139	1
43	46	4
161	182	3
7	7	5
132	133	4
93	93	5
181	181	2
127	128	9
30	35	1
108	109	4
140	141	2
133	133	4
152	153	10
149	149	11
111	111	3
104	112	3
65	71	2
54	54	2
37	61	5
86	109	3
94	94	2
85	110	3
39	46	2
15	16	3
41	41	5
26	26	4
64	64	2
162	172	3
92	92	2
104	105	2
79	83	1
131	131	4
61	62	4
184	187	1
59	64	2
85	85	2
17	17	4
126	127	3
168	168	3
113	130	2
100	121	4
12	21	1
34	150	3
116	116	3
99	100	3
88	90	3
122	122	1
121	121	4
8	8	8
154	155	4
154	156	2
140	140	4
24	25	3
89	90	3
96	96	2
109	113	4
39	40	1
167	167	2
14	14	2
185	187	3
183	184	2
185	186	3
187	187	2
71	71	3
128	128	2
101	149	2
153	153	1
126	126	3
53	54	1
12	13	1
178	178	1
0	42	1
102	139	4
24	110	1
183	183	2
157	188	2
45	46	4
157	175	3
101	101	4
55	55	2
18	18	1
146	146	1
101	103	3
138	150	2
100	135	1
112	112	2
130	131	2
154	154	1
80	80	2
98	109	1
32	190	1
145	146	1
140	166	1
6	8	1
109	119	1
138	162	1
22	46	5
97	97	3
139	164	3
40	40	2
184	185	2
115	115	3
171	171	1
171	173	1
110	119	1
98	98	4
125	125	2
117	117	1
24	24	1
31	32	2
22	23	1
27	80	1
159	159	5
48	152	1
62	64	1
184	184	7
103	106	1
56	77	2
90	90	2
153	183	2
144	146	1
42	42	2
170	173	2
135	138	1
87	87	4
76	83	2
114	119	1
58	65	1
103	121	1
125	133	3
133	134	1
104	106	3
37	150	6
48	48	1
31	31	1
115	116	2
68	71	1
167	171	2
167	172	2
33	33	2
145	179	1
117	149	2
33	41	2
158	158	1
164	164	5
3	4	1
169	170	2
63	65	1
88	89	1
155	156	1
93	164	1
13	17	2
55	116	1
114	115	1
96	103	1
59	65	1
33	38	1
114	147	1
139	140	1
100	104	2
39	152	1
173	173	1
67	68	1
174	174	1
66	66	2
160	160	1
139	139	1
119	119	1
158	165	1
38	148	1
76	76	1
37	80	1
185	185	1
36	37	1
171	172	1
22	22	1
11	11	1
