2	2	3
71	71	9
11	11	8
140	141	4
56	58	2
92	92	12
25	25	12
73	73	17
87	88	16
122	122	21
123	125	3
80	98	3
110	110	9
23	23	6
38	39	6
98	141	3
125	127	4
14	139	2
92	112	2
90	94	3
3	4	4
105	106	2
65	65	8
10	10	18
15	18	5
42	42	6
91	91	9
121	123	4
13	16	9
100	100	2
93	93	18
116	132	7
34	34	8
137	137	12
131	131	22
142	142	18
19	22	3
63	68	2
82	85	6
119	119	15
82	82	23
124	124	11
68	89	2
125	125	6
49	50	7
104	114	1
73	75	1
28	28	4
49	49	9
140	140	6
121	124	6
25	26	3
109	109	10
66	68	1
98	98	8
31	54	1
43	47	1
3	3	17
55	55	6
61	62	5
75	75	1
38	38	11
129	129	15
88	88	5
96	96	7
19	59	4
18	18	8
130	130	13
122	137	1
132	137	2
57	57	11
66	66	4
135	135	15
116	116	9
93	95	5
30	30	8
78	78	2
73	74	2
33	36	1
5	5	7
54	54	9
31	35	2
134	134	20
112	112	15
127	127	10
32	32	7
51	51	6
68	69	1
101	103	1
14	14	21
97	98	2
21	21	8
79	81	4
85	86	5
102	104	2
15	141	6
141	141	5
36	37	6
134	135	4
118	121	5
69	69	5
101	101	7
64	64	8
16	16	16
56	56	6
12	12	4
0	0	4
80	82	4
117	118	1
117	120	5
37	38	4
92	93	6
36	36	12
9	9	9
60	62	5
133	133	8
97	97	10
20	23	2
132	132	8
19	19	17
113	116	2
27	28	9
32	33	4
58	58	5
30	53	5
50	51	4
141	142	5
37	37	10
145	145	9
87	92	2
123	136	5
48	48	18
120	120	9
110	111	7
126	126	18
110	133	4
56	57	6
24	41	4
69	70	5
20	20	2
20	66	2
47	47	5
62	62	10
5	6	6
2	34	1
112	119	2
33	33	5
103	103	11
115	120	2
19	60	6
82	83	2
104	104	8
129	130	3
114	115	4
1	4	2
94	94	4
117	117	10
87	87	8
98	99	2
104	128	1
51	134	3
71	80	1
70	71	2
31	33	3
13	141	1
96	97	8
77	77	8
76	78	3
77	78	8
65	74	2
123	124	4
113	115	7
15	15	4
65	66	5
64	65	4
34	47	5
8	131	6
113	113	10
118	122	3
77	99	4
79	80	5
121	134	2
133	140	1
84	84	6
124	125	7
61	65	2
72	72	6
74	74	6
89	90	4
61	61	4
88	89	3
143	144	8
106	107	1
86	86	6
94	95	5
107	108	3
12	15	1
123	123	7
22	32	1
40	40	9
115	117	2
77	79	1
99	100	5
112	113	5
76	77	7
90	90	2
115	116	6
138	140	1
122	123	2
59	87	5
53	55	3
105	105	6
63	80	1
121	121	5
128	128	7
79	104	2
8	8	10
27	27	3
79	88	3
57	61	5
125	141	5
126	133	7
54	55	11
126	129	4
81	84	3
142	143	2
132	133	10
135	136	2
26	26	5
77	97	3
96	129	2
85	85	5
11	23	5
83	83	17
109	123	5
81	81	15
70	70	5
121	125	2
95	95	9
29	29	13
89	91	1
118	118	3
22	23	5
109	132	5
92	94	7
57	60	2
4	6	4
59	59	8
108	109	4
58	59	8
60	60	6
41	41	9
140	142	3
39	39	8
1	135	3
138	138	5
93	94	4
57	58	3
127	129	6
21	64	2
22	22	8
73	86	1
2	54	3
37	41	2
113	114	4
13	13	7
133	136	3
79	79	2
80	102	2
2	105	3
26	43	1
20	58	2
14	15	2
60	61	3
39	40	2
21	40	1
28	38	1
121	122	3
35	52	1
133	134	3
53	56	3
75	76	2
4	4	2
67	67	5
71	93	1
35	35	2
47	130	1
136	136	8
50	56	3
30	31	4
86	89	1
109	111	1
116	130	2
52	52	1
106	106	5
138	142	1
68	94	1
68	68	6
50	50	5
41	42	2
119	120	5
77	125	2
78	87	3
71	72	3
62	86	3
23	24	5
59	60	1
92	95	1
8	18	3
102	102	6
127	140	1
88	90	2
37	58	1
83	85	2
6	6	5
52	56	2
10	42	3
61	76	1
112	116	3
96	141	1
85	89	2
13	37	2
124	126	3
81	99	2
111	111	7
87	91	1
42	128	2
115	115	3
101	126	1
1	10	3
78	80	2
59	90	3
69	72	3
17	18	5
103	136	1
1	2	3
8	107	3
79	97	1
126	127	1
48	134	3
75	77	1
4	5	1
24	24	8
8	55	1
111	139	2
24	25	2
112	124	1
132	135	2
10	48	3
126	130	4
76	76	3
0	17	2
114	117	6
42	99	2
12	51	1
52	53	1
94	108	2
73	106	1
114	114	5
121	133	1
136	138	2
120	141	1
80	80	4
13	48	1
67	69	1
86	94	1
116	118	1
15	54	1
89	92	1
143	143	7
74	102	1
19	21	1
105	108	4
116	131	1
91	92	4
17	17	2
108	108	1
28	29	2
1	1	1
21	58	1
59	88	3
50	52	1
110	114	2
117	124	2
103	104	1
93	97	1
108	111	2
83	84	1
115	126	3
103	129	2
12	96	1
36	38	1
80	96	1
10	43	3
39	41	3
139	139	4
9	47	4
123	140	2
144	144	5
62	63	2
85	109	1
61	63	1
113	118	1
107	107	1
51	54	1
12	54	2
20	50	1
59	61	2
82	84	2
84	85	1
4	35	1
93	103	1
77	104	1
108	110	1
50	53	3
42	109	1
75	97	1
110	135	1
12	13	2
127	131	1
14	38	1
125	135	1
118	119	3
109	110	1
17	20	2
88	91	1
60	64	1
43	129	1
111	112	1
112	115	2
47	52	1
2	32	1
78	102	1
22	68	1
34	36	2
78	99	3
135	142	1
21	93	1
136	140	1
42	93	1
62	78	1
120	121	3
116	117	1
126	136	1
74	75	2
112	121	1
13	38	2
10	11	2
125	126	1
95	97	1
63	63	1
26	31	1
34	35	2
106	131	1
144	146	1
34	52	1
104	129	1
38	118	1
38	41	1
23	25	1
128	130	1
95	96	1
10	130	1
66	92	1
1	49	2
66	69	1
22	42	1
6	11	2
36	58	2
110	112	1
13	14	1
32	34	1
137	138	1
35	36	1
136	139	1
99	99	1
83	86	1
26	106	1
95	107	1
117	129	1
