146	147	20
39	40	5
35	35	11
94	94	13
93	93	8
74	74	4
159	169	5
112	112	7
134	134	10
142	142	16
132	134	2
2	44	1
33	33	12
125	125	17
78	80	4
63	64	6
30	68	2
116	116	5
108	109	3
57	65	2
40	40	12
72	72	2
119	120	2
3	3	17
66	66	6
159	159	19
152	166	8
157	159	3
95	95	16
42	42	9
77	77	8
131	132	6
130	131	3
145	145	7
74	76	1
110	126	3
29	30	11
107	107	9
32	32	30
6	15	3
144	144	4
104	104	7
172	172	17
109	110	2
144	145	3
54	54	18
55	55	14
11	11	14
151	153	2
116	117	6
24	26	3
50	50	6
11	16	3
18	18	13
135	136	2
171	173	4
23	23	9
43	43	7
172	173	7
38	38	16
171	171	13
31	32	13
148	148	10
16	16	19
97	101	10
15	42	2
38	40	4
17	17	12
161	162	7
58	58	2
14	14	26
97	100	1
8	42	6
11	12	16
179	179	13
97	97	7
139	140	10
141	145	3
132	132	7
90	131	2
30	31	3
133	133	2
4	5	1
34	34	14
41	42	13
60	61	3
111	111	14
5	7	8
169	169	17
178	178	9
10	10	32
141	141	8
176	176	10
121	121	3
0	0	16
87	87	3
73	73	6
170	176	3
17	24	3
13	13	15
18	21	4
58	59	10
104	106	2
80	83	1
173	173	6
8	8	17
167	167	12
106	107	7
44	44	25
123	126	5
45	45	1
18	19	9
149	150	13
154	154	4
127	127	4
32	33	4
158	158	8
148	155	1
21	23	2
83	83	2
15	17	4
33	36	2
129	129	11
142	148	1
5	15	1
77	78	3
167	168	7
158	159	6
123	123	3
57	57	5
102	102	8
37	37	18
172	176	1
163	163	5
6	42	2
85	87	1
120	120	3
116	126	4
115	116	3
26	26	16
16	17	8
94	98	2
1	2	16
135	135	6
175	175	10
123	125	2
81	81	3
79	79	20
6	6	10
164	167	2
2	2	24
8	10	5
151	152	1
57	59	1
20	21	3
3	9	2
150	150	5
52	52	10
126	126	11
103	104	2
90	90	14
15	16	12
149	149	17
165	170	4
89	90	1
122	122	3
63	96	6
52	53	2
13	14	5
66	67	8
3	6	2
24	59	2
7	7	6
93	135	3
138	138	9
171	172	9
16	42	2
40	41	2
98	99	4
30	30	7
13	15	4
5	9	3
162	162	10
12	20	3
92	93	5
71	72	4
5	5	9
4	6	1
131	131	6
3	45	3
1	1	6
134	135	4
43	44	7
29	29	5
140	140	11
2	19	3
118	118	10
22	22	12
116	118	6
137	138	7
168	168	2
107	109	5
21	32	2
68	68	3
144	151	4
137	137	9
98	101	1
29	34	2
151	151	4
26	59	3
94	95	3
22	24	1
161	161	4
61	61	3
90	144	3
36	43	1
3	4	3
63	66	4
25	26	7
130	130	6
11	13	2
114	115	4
119	119	4
19	19	16
156	163	2
75	75	5
117	118	2
178	180	2
36	36	12
96	96	16
24	24	18
165	173	2
20	20	3
10	13	2
0	1	5
39	39	9
147	148	2
113	114	5
18	22	5
13	40	2
173	175	3
19	20	11
21	38	3
28	29	4
35	36	7
21	21	3
37	44	3
160	160	4
9	42	4
165	165	6
9	10	15
104	105	4
35	41	2
106	108	1
10	11	3
4	12	5
93	137	3
154	179	2
75	77	2
34	37	1
36	37	4
105	105	1
166	166	7
51	51	12
53	53	8
80	141	2
173	174	1
2	3	5
4	33	2
140	141	2
108	108	8
88	89	4
156	156	6
62	67	1
3	46	2
14	15	6
131	139	1
117	117	1
53	54	3
118	123	3
31	31	9
93	96	2
90	135	1
89	89	3
142	143	5
28	28	3
171	177	3
59	59	7
136	136	13
140	144	1
120	121	5
175	176	2
4	11	3
28	31	1
3	8	1
17	39	1
124	125	2
26	28	4
109	109	4
139	139	9
35	37	2
164	164	8
41	43	3
82	85	2
3	19	1
147	147	7
24	25	3
80	81	2
86	88	1
30	32	3
10	12	2
95	123	4
6	41	2
102	104	1
15	21	1
170	170	6
85	85	9
41	41	3
120	124	2
4	9	3
29	60	2
17	21	3
94	109	1
19	22	3
12	12	6
82	82	6
95	96	2
31	98	1
27	29	1
10	17	5
152	152	5
25	27	4
167	173	3
34	35	5
124	124	5
177	177	5
162	164	2
9	12	5
15	15	3
76	133	3
65	65	8
22	26	1
157	180	2
91	92	2
103	106	2
20	43	1
106	123	3
61	63	3
129	130	1
126	128	4
36	41	3
162	165	1
60	60	6
169	180	3
100	100	2
141	142	1
10	26	2
43	45	2
65	66	2
84	84	2
42	86	1
8	9	7
160	175	2
76	77	6
70	72	1
83	84	2
7	9	1
180	180	3
34	36	2
152	160	4
97	99	2
9	9	6
49	49	2
112	113	1
153	153	6
4	8	1
54	56	2
98	100	1
14	16	7
55	93	2
157	157	3
76	76	7
42	43	2
16	23	1
160	174	2
64	64	4
177	178	1
18	20	3
137	139	3
127	168	2
10	16	3
4	31	1
132	133	2
27	44	1
71	71	3
17	37	3
21	24	3
108	110	5
92	136	1
20	34	1
2	8	3
17	32	2
51	53	1
1	4	2
36	40	4
148	150	1
142	149	1
26	27	4
80	80	2
21	55	1
115	115	2
10	28	2
53	82	1
113	118	1
78	78	2
114	114	8
138	139	2
122	161	1
82	86	1
74	75	2
4	4	3
176	177	3
178	179	2
159	179	1
56	57	4
21	87	2
21	42	2
21	31	2
24	71	4
6	35	1
13	31	2
27	27	2
88	88	1
155	155	3
73	74	4
38	39	2
104	123	3
5	6	1
11	17	1
104	124	1
7	10	2
4	45	2
97	115	1
4	19	1
136	138	1
107	110	1
91	93	2
2	15	1
90	130	2
94	96	1
7	15	1
122	123	2
58	71	1
168	169	1
6	10	2
6	40	1
118	120	1
2	4	1
56	56	1
2	17	1
110	110	1
79	88	2
151	161	1
36	42	1
119	121	1
174	174	1
8	11	1
74	90	1
15	41	1
136	137	1
52	54	1
1	6	1
165	166	1
118	121	1
143	143	3
2	35	1
25	25	2
10	31	1
61	73	2
91	91	1
22	25	1
177	179	1
79	80	2
156	165	1
106	106	2
92	92	1
166	167	1
4	43	2
31	33	1
154	156	1
61	62	2
120	123	1
128	128	2
3	5	1
146	146	2
96	113	1
60	75	2
23	24	1
95	134	1
12	15	1
84	85	1
17	18	2
99	102	1
36	38	1
31	36	1
75	76	1
158	171	1
5	8	2
101	102	1
59	61	1
156	157	1
17	28	1
99	99	1
113	113	1
