111	111	26
127	128	9
30	30	5
121	121	15
140	140	6
120	121	5
119	119	22
122	124	2
132	132	11
104	104	16
4	5	4
108	108	8
4	4	6
134	134	10
139	139	22
8	9	9
127	127	25
7	12	4
89	90	9
34	34	3
2	2	25
138	138	15
116	116	29
72	124	6
76	76	24
130	130	18
120	123	9
78	78	9
131	131	26
133	133	11
114	114	6
123	123	25
83	86	1
17	17	5
88	88	16
134	135	7
36	37	9
7	7	7
73	73	12
98	98	19
119	120	8
123	127	2
94	94	4
126	126	29
9	9	9
92	93	10
72	72	17
77	87	3
89	89	16
73	75	3
140	141	2
15	140	2
74	74	15
31	32	4
121	122	17
127	137	4
31	31	4
15	15	15
9	12	5
122	122	22
77	77	10
71	79	1
27	27	12
125	126	13
10	11	4
118	118	13
16	16	10
106	106	13
125	125	15
111	124	1
100	100	12
73	79	6
80	82	2
33	33	10
93	93	13
17	20	2
6	6	6
14	14	8
102	105	6
116	129	2
115	115	17
13	14	4
21	22	9
129	129	17
87	87	14
81	82	12
101	103	5
72	75	3
131	132	5
96	96	7
72	73	3
114	115	12
19	19	15
11	11	2
126	139	3
28	37	1
126	127	14
25	26	5
128	129	12
99	99	15
111	112	9
84	84	10
109	109	24
137	137	4
110	110	6
90	90	7
124	124	18
93	94	4
79	79	7
103	104	2
110	111	18
74	79	5
101	113	3
102	104	3
104	105	5
8	8	3
108	109	15
97	98	5
86	86	25
128	128	22
3	3	11
80	80	15
136	136	13
117	117	21
87	96	4
82	82	10
1	1	7
12	12	5
3	4	3
84	123	1
74	75	6
120	120	12
75	77	4
28	29	1
135	136	1
10	12	1
74	78	2
135	138	3
83	83	5
121	123	2
23	23	10
9	16	2
81	81	13
96	97	3
0	2	2
91	91	9
26	26	6
105	109	2
36	36	7
73	77	1
10	10	3
94	95	5
95	95	6
18	19	3
24	24	5
91	105	2
27	32	3
102	102	16
83	85	9
14	15	1
130	131	2
29	29	5
0	0	5
118	119	2
2	3	5
75	75	9
32	38	2
2	20	1
20	20	5
75	87	3
88	90	1
89	91	1
21	38	2
125	134	1
85	85	7
17	19	1
16	17	1
123	124	10
112	112	7
22	22	4
21	21	2
105	105	12
113	113	8
105	121	1
19	20	6
71	71	4
7	8	8
110	114	1
5	5	4
135	135	9
79	85	3
77	78	3
129	130	13
106	107	3
82	83	7
71	123	3
92	95	1
97	97	5
11	15	3
138	139	4
101	101	4
81	122	2
25	25	3
106	108	1
90	91	11
97	99	3
72	79	4
88	100	1
103	103	10
124	125	10
16	21	2
112	113	4
99	100	3
105	122	3
110	112	4
100	113	2
88	89	3
107	108	1
28	32	2
28	30	1
93	103	4
75	78	2
2	123	3
115	116	3
9	24	3
104	123	2
18	18	6
102	119	2
109	121	1
35	35	7
9	11	1
6	9	2
104	120	3
87	88	3
79	80	8
24	25	2
16	25	3
137	138	6
37	37	3
13	13	3
105	106	5
105	108	3
100	101	2
128	134	1
0	1	2
22	24	3
32	32	1
127	129	5
102	106	1
73	76	2
23	25	3
34	35	3
120	122	4
126	137	2
75	76	3
99	101	2
26	27	1
106	109	1
92	96	5
123	138	1
25	30	1
12	15	1
22	23	3
92	103	3
27	28	5
91	94	2
107	107	6
92	92	4
82	87	2
108	110	1
95	96	4
12	13	2
128	140	1
112	121	2
14	44	1
15	17	2
102	123	2
17	18	3
7	119	3
85	123	2
119	121	2
119	122	1
28	31	1
112	114	2
81	83	2
73	74	3
5	6	1
7	9	1
109	111	1
83	84	2
82	85	2
74	86	1
129	134	3
104	119	2
85	86	4
122	123	3
28	28	1
79	86	2
130	134	2
106	118	2
93	104	1
87	100	1
139	140	4
16	26	2
109	110	1
16	20	1
18	132	1
93	105	1
81	123	2
96	117	1
104	106	2
78	79	3
11	13	1
32	34	1
92	98	1
80	138	1
76	77	1
116	122	1
89	100	1
116	117	1
98	99	3
22	26	1
90	92	1
117	119	1
10	119	1
29	30	1
33	35	1
136	138	2
104	118	1
23	24	1
101	102	3
26	29	1
71	72	1
75	79	1
26	30	2
2	122	1
90	105	1
107	109	1
3	34	1
