129	129	9
20	107	3
113	113	1
128	128	2
74	74	13
69	80	2
34	34	2
79	79	2
133	133	9
32	32	12
69	69	5
45	45	1
11	11	8
87	87	4
28	29	4
106	106	3
23	24	3
57	58	1
86	87	4
91	92	3
134	134	10
75	75	9
29	75	7
93	93	8
61	112	2
130	132	2
67	71	4
29	29	5
63	63	6
100	101	1
107	107	4
83	85	2
92	92	5
64	65	6
55	55	6
80	81	1
117	117	9
7	7	3
9	9	2
118	118	3
12	13	4
130	130	2
14	14	4
112	113	1
91	95	3
50	50	7
24	24	4
54	85	1
17	17	2
131	131	6
97	100	4
124	126	2
94	94	6
8	8	2
10	10	2
98	98	5
73	74	2
93	94	1
129	130	4
81	81	5
66	66	7
127	127	7
74	89	2
60	79	3
76	77	2
122	130	2
71	71	3
49	50	5
8	83	2
16	25	5
126	126	4
44	45	2
8	10	2
61	62	1
102	102	2
79	80	2
122	122	4
120	120	4
116	118	3
111	111	3
56	59	2
99	112	2
80	80	6
132	135	2
97	97	1
104	104	5
27	34	3
53	53	5
12	12	4
123	124	5
96	96	7
57	59	1
102	103	1
36	37	8
42	50	2
1	2	1
49	49	7
64	79	7
128	135	2
38	50	1
75	76	4
124	124	3
99	100	2
98	101	3
89	89	2
38	38	5
97	98	1
60	60	4
99	99	7
37	38	4
125	125	7
23	23	1
3	3	2
60	61	1
69	79	3
111	112	2
131	132	4
82	82	2
106	108	1
58	58	4
56	58	1
12	50	2
73	73	3
115	116	2
119	119	2
108	109	1
88	119	1
54	84	3
34	54	1
81	84	3
30	30	5
112	114	2
103	103	5
105	105	4
67	67	3
70	70	2
15	54	1
86	86	7
88	102	2
132	133	3
84	85	5
72	72	1
21	21	2
123	123	2
110	110	1
19	19	1
18	18	1
24	27	3
112	112	4
66	67	2
77	77	1
95	114	2
63	111	2
4	5	1
37	54	1
108	108	4
94	95	2
83	106	5
130	131	3
65	65	1
89	96	1
85	86	1
75	105	3
115	115	1
100	100	2
76	76	1
20	20	1
134	135	1
92	107	1
0	2	2
44	77	1
31	31	1
55	56	1
97	108	1
97	123	1
52	52	1
33	34	1
5	5	1
126	127	1
133	135	1
78	78	1
125	129	1
35	36	1
43	43	1
63	117	1
81	82	1
62	63	1
119	120	1
120	121	1
11	25	1
83	84	1
15	15	1
62	62	1
11	54	1
54	54	1
56	57	1
27	27	1
