143	143	14
40	40	28
86	91	2
119	119	9
75	75	12
10	10	19
67	68	5
11	11	13
96	96	10
41	41	42
20	40	1
104	111	5
147	147	6
43	46	8
20	22	12
122	122	13
51	84	1
14	14	26
53	53	17
74	75	10
96	97	2
110	110	16
149	149	5
125	125	5
23	23	18
71	75	2
31	40	5
73	73	15
18	19	10
21	22	9
32	32	14
17	17	21
128	129	6
76	76	14
121	122	10
30	30	31
53	54	11
71	71	11
66	67	4
34	35	4
5	5	22
6	6	17
29	29	7
66	66	10
4	4	12
36	36	10
6	9	4
127	128	5
70	107	3
95	95	14
38	39	7
100	100	9
7	7	17
77	80	7
55	69	4
13	13	30
109	110	10
151	151	8
54	55	4
6	7	10
111	113	5
35	35	18
8	8	9
118	129	1
74	74	7
93	93	18
56	56	12
73	74	7
16	17	8
81	82	10
68	69	13
128	130	7
69	70	14
139	146	4
107	107	15
10	12	6
146	148	4
62	62	8
14	15	5
7	8	4
39	39	17
133	148	4
84	113	3
113	117	3
20	20	9
145	145	8
56	57	13
28	30	3
71	73	7
102	110	3
57	72	3
80	80	11
99	99	11
146	146	5
64	64	16
105	105	7
52	56	3
87	88	3
118	118	9
68	68	18
14	23	1
38	38	12
112	112	6
104	105	4
148	149	5
24	24	23
84	84	12
26	120	4
129	130	1
16	16	34
72	72	2
12	13	1
33	34	5
54	98	4
43	43	7
95	110	1
41	63	3
57	57	24
15	17	5
86	95	2
49	49	10
22	22	8
4	6	4
83	98	5
71	98	6
42	42	32
44	46	5
97	97	17
63	75	2
23	24	9
131	131	16
48	48	8
29	32	2
83	84	2
36	45	5
46	46	12
15	15	24
81	81	5
104	117	5
111	112	2
129	129	10
130	130	8
51	74	1
9	9	12
97	98	9
72	81	2
73	75	1
130	136	4
13	15	3
89	89	3
137	137	1
57	58	21
79	79	15
99	103	1
52	74	3
49	50	1
80	82	2
26	86	2
34	79	1
37	37	15
145	146	8
93	113	5
51	51	6
109	109	22
12	14	4
44	44	12
4	14	3
67	85	4
132	132	19
98	98	16
34	38	6
81	86	2
69	69	12
11	12	7
25	25	16
45	45	4
81	97	3
77	77	8
106	107	6
33	76	5
75	76	6
40	46	3
95	97	2
88	98	1
32	33	16
124	124	9
153	153	6
31	31	11
28	28	5
47	47	19
103	103	13
64	66	3
133	133	7
128	128	8
144	144	11
81	83	3
108	122	6
19	19	21
138	139	9
80	81	3
47	54	5
4	9	3
71	138	6
43	44	6
26	26	9
25	26	5
66	76	3
4	21	1
85	110	4
68	71	3
24	28	3
13	21	2
48	95	1
32	42	2
94	95	3
23	118	3
36	37	4
26	27	5
65	141	3
141	142	3
92	92	8
5	6	3
48	49	8
63	79	2
152	152	11
15	16	3
55	64	2
2	2	2
55	55	9
127	127	8
104	104	7
125	139	4
23	25	2
87	97	3
34	41	1
3	4	4
33	33	19
98	99	5
131	132	5
4	5	7
78	79	10
50	50	20
29	30	6
93	110	2
13	14	3
106	106	9
50	57	3
52	53	3
44	45	11
80	115	6
3	6	3
86	98	5
85	85	10
21	21	12
38	43	1
84	85	3
3	23	4
27	27	12
70	70	13
123	125	4
134	134	9
139	139	10
148	148	2
101	101	2
47	48	3
79	80	9
120	120	9
150	151	7
117	117	6
108	110	6
105	114	1
64	73	1
135	135	7
82	87	6
18	18	16
24	25	2
102	103	7
123	123	9
82	82	6
87	87	4
99	150	2
106	109	2
42	43	7
142	143	1
39	40	2
104	114	2
132	133	3
69	75	2
129	132	2
78	80	2
28	94	6
110	111	3
86	86	5
80	92	5
48	50	3
138	138	8
75	77	7
124	127	1
93	95	3
95	99	1
8	9	8
68	77	1
140	140	7
96	99	2
138	144	2
14	30	5
41	43	2
66	68	5
65	103	3
137	139	4
11	62	4
115	115	10
94	94	7
107	109	1
67	71	2
36	77	2
38	40	6
105	110	6
43	45	3
17	19	1
24	26	1
99	111	2
9	10	7
147	148	4
53	117	4
115	116	4
76	77	8
58	58	1
84	86	2
93	94	3
10	17	1
106	108	2
114	116	3
63	77	2
85	99	2
19	20	7
67	141	2
111	111	14
84	96	5
144	145	4
33	71	1
83	90	3
5	87	1
108	108	17
138	140	3
141	141	7
70	71	3
99	105	2
46	73	3
128	136	1
26	30	1
43	49	4
135	136	3
72	73	4
22	25	1
68	72	1
63	63	10
112	129	1
45	46	5
78	78	6
67	67	5
9	11	2
123	147	1
56	61	3
108	109	5
101	104	2
66	74	1
100	102	1
51	56	2
125	129	2
143	144	1
48	51	2
116	117	2
52	65	2
34	34	9
97	122	3
76	78	1
34	36	4
90	90	3
16	19	1
154	154	7
10	154	2
76	79	6
39	41	4
73	76	1
84	106	2
137	146	3
49	55	1
51	97	3
97	102	2
90	92	6
62	63	4
74	76	2
27	29	7
102	106	6
96	102	2
12	15	2
51	52	4
149	150	2
153	154	3
104	109	1
110	113	4
108	112	3
67	70	2
99	110	2
86	87	3
37	39	2
135	146	1
30	31	4
28	74	2
123	129	2
21	38	3
19	21	3
47	49	2
142	142	4
126	127	1
12	12	9
68	79	3
69	98	4
3	3	2
137	138	2
83	103	1
93	112	2
4	12	1
95	96	6
69	73	3
73	84	1
102	102	4
83	111	2
99	132	3
10	11	3
91	101	3
47	50	4
62	75	6
96	98	3
65	66	6
121	121	5
41	42	1
115	117	4
71	77	3
31	32	4
131	152	1
64	68	3
126	146	4
119	120	2
85	98	3
54	54	3
145	149	2
71	82	2
26	95	1
30	32	4
89	96	2
136	136	4
31	36	4
103	104	1
35	43	2
90	97	2
42	45	1
50	84	1
6	23	1
128	131	2
85	122	2
125	126	4
146	147	4
46	47	3
49	99	1
71	76	4
103	107	3
135	148	2
127	130	2
83	83	7
62	81	1
15	29	4
69	74	2
104	116	1
95	104	2
65	83	4
150	150	4
39	49	1
31	34	2
100	103	1
140	141	2
51	86	1
77	78	2
152	153	2
122	123	4
35	45	1
20	101	1
62	83	1
22	23	3
99	101	3
71	80	3
43	50	1
136	139	1
72	136	1
68	74	2
122	130	1
75	83	2
134	136	1
67	69	6
55	56	2
64	67	3
47	52	1
112	114	1
136	146	1
32	98	2
24	45	4
130	135	3
133	149	2
35	36	4
64	104	1
94	109	4
134	154	1
90	105	4
68	83	2
74	83	2
30	37	2
17	24	1
116	118	1
37	52	2
44	76	1
117	122	1
14	69	1
11	13	2
146	149	1
3	97	1
6	94	2
65	76	3
136	142	1
133	139	3
65	67	1
140	143	1
9	13	1
71	85	1
109	111	2
3	7	1
17	18	3
25	29	2
49	96	1
54	56	1
126	147	2
33	78	1
127	148	1
116	142	1
99	100	2
51	57	1
121	128	1
28	29	1
94	96	1
73	82	1
72	76	1
130	149	2
33	35	1
112	113	1
46	50	2
32	36	2
126	139	1
50	74	2
112	118	1
64	122	1
43	72	1
64	74	2
13	17	2
126	126	1
2	3	1
88	97	1
48	100	1
97	99	1
53	55	1
112	116	1
5	16	1
134	153	1
105	109	1
65	68	1
90	95	3
133	150	1
50	51	1
30	42	1
125	127	1
111	118	1
86	97	1
41	75	1
29	51	1
61	62	1
23	66	1
10	13	1
136	138	1
42	62	1
7	9	1
114	117	1
84	111	1
124	125	2
68	73	1
114	115	1
43	68	1
125	142	1
