12	185	1
128	128	8
129	130	3
131	132	7
169	169	5
24	24	8
99	100	3
112	112	12
165	166	5
147	147	10
188	188	6
67	67	6
4	4	5
182	182	10
35	35	4
136	137	7
18	18	11
20	20	3
192	193	1
166	166	3
124	124	13
148	148	5
150	153	3
156	156	6
109	110	2
40	41	5
170	170	7
130	131	2
150	150	6
144	144	11
37	69	1
132	132	9
165	165	5
10	10	5
175	175	8
131	182	1
153	153	14
7	19	3
136	138	4
137	137	9
55	55	11
174	174	4
12	13	2
104	104	11
119	119	8
173	173	6
51	123	2
55	56	3
145	145	9
186	186	12
164	164	13
105	119	4
34	34	12
33	33	10
64	64	8
146	166	2
13	13	4
158	166	2
193	193	13
146	186	1
16	17	1
21	21	3
105	105	3
83	84	2
108	108	7
64	68	5
143	154	1
11	11	6
177	178	4
35	36	4
44	45	3
67	170	5
83	83	7
161	161	1
109	109	7
171	171	14
115	116	2
127	127	15
157	157	4
107	107	4
134	134	9
190	190	16
161	187	2
95	95	3
176	177	2
164	165	4
26	27	3
62	63	5
107	111	2
191	191	11
99	99	4
104	105	5
44	44	4
88	88	9
144	145	2
168	168	9
45	45	4
51	51	6
197	197	8
125	128	1
7	7	9
76	76	8
113	192	1
8	9	2
136	136	12
47	48	4
42	58	2
106	106	2
86	86	3
19	19	2
38	69	1
41	41	9
53	53	4
99	146	3
110	110	13
110	111	3
63	63	7
22	26	3
66	66	2
185	185	5
15	16	3
58	58	4
80	82	2
181	181	12
89	89	4
158	158	11
122	122	13
46	46	5
149	149	7
191	192	10
80	80	6
97	97	6
156	158	2
38	94	3
28	28	6
56	56	3
52	53	2
37	37	5
42	43	7
128	129	1
179	180	2
162	165	4
73	73	2
155	155	9
137	159	4
163	163	10
179	179	10
135	135	3
102	102	9
165	182	3
178	178	9
130	130	6
6	7	7
82	83	2
183	183	6
122	130	1
48	48	4
30	30	9
63	66	2
166	167	5
26	35	1
146	146	5
126	130	1
97	98	8
186	187	1
29	31	1
0	0	7
78	141	8
0	42	2
144	166	2
12	12	9
154	154	8
105	106	1
38	38	8
144	146	1
185	187	1
93	93	4
151	151	5
160	164	2
148	196	2
163	172	1
36	37	2
28	29	4
54	56	2
160	160	23
55	63	2
172	172	10
48	49	1
195	195	11
29	79	3
82	82	5
67	68	3
180	182	5
145	176	1
85	89	1
159	168	1
5	32	1
152	154	1
154	181	2
2	3	1
161	178	2
14	14	8
168	190	1
147	168	1
187	188	5
102	103	2
76	77	7
70	71	1
145	151	1
5	5	3
72	72	3
141	141	7
102	109	1
75	75	2
103	103	4
57	107	1
22	22	7
61	61	5
1	2	2
178	179	5
6	8	1
49	49	3
146	151	3
47	47	8
118	118	7
117	117	8
195	196	1
155	157	1
9	9	7
3	4	5
70	70	4
23	23	4
81	83	3
65	65	3
68	142	1
133	159	1
60	61	1
32	32	3
103	136	2
179	183	5
38	51	1
162	162	7
196	196	5
101	125	1
98	98	3
45	46	4
172	173	2
144	163	1
27	27	3
163	165	3
73	81	1
50	51	2
140	140	3
157	181	2
17	17	4
101	101	7
19	84	2
105	147	1
68	68	12
184	188	1
10	14	2
77	120	3
42	42	7
164	176	2
112	133	2
147	160	3
114	114	6
162	164	3
18	19	3
142	142	11
160	161	4
160	184	2
181	182	5
8	8	3
177	177	4
26	26	12
112	137	1
5	6	7
51	52	2
78	78	3
9	186	1
182	183	3
140	145	1
114	115	5
80	86	3
25	25	7
145	184	1
106	107	4
180	180	7
62	62	7
61	62	2
43	44	4
145	165	1
72	73	2
159	159	3
106	122	2
50	88	2
152	152	5
73	75	2
144	161	1
111	112	1
194	195	3
87	88	1
77	78	1
10	11	5
121	121	3
44	52	1
18	20	3
167	167	10
77	79	1
189	189	5
134	196	1
125	127	3
134	139	2
146	189	1
3	3	4
53	107	1
81	81	5
2	173	1
161	169	1
188	190	1
50	54	3
180	181	3
40	40	6
23	44	1
116	140	2
108	118	1
46	89	2
115	115	3
71	71	4
31	33	1
157	158	2
102	107	2
138	138	2
17	61	1
90	90	1
36	36	8
18	55	1
192	192	5
103	105	2
160	185	1
141	142	1
9	185	1
31	31	4
126	128	2
176	176	3
28	30	2
122	123	2
34	67	2
162	173	1
160	190	1
3	28	2
151	152	6
19	83	2
123	124	6
58	61	2
132	135	5
31	32	4
163	164	7
111	111	4
112	113	1
134	135	2
144	157	1
100	100	7
83	85	3
97	100	2
63	64	2
76	120	1
173	175	6
9	10	2
129	134	2
16	16	3
177	190	1
108	109	2
24	31	1
115	152	1
8	22	2
189	190	2
50	50	1
64	74	1
7	8	5
2	16	4
100	101	5
42	53	2
115	150	2
135	136	2
19	40	1
11	32	1
187	187	2
29	29	7
0	1	1
147	150	1
39	40	2
61	65	1
74	74	2
175	176	1
155	156	2
28	56	5
133	133	6
190	191	2
59	60	1
79	80	2
9	50	3
97	126	2
4	5	3
143	143	2
25	119	1
0	52	1
194	194	4
74	81	1
51	73	2
142	185	2
187	190	2
161	164	3
12	64	2
108	111	5
140	141	1
129	129	3
103	107	1
2	2	5
34	36	1
116	117	1
69	69	3
8	23	1
69	72	1
139	145	3
58	69	2
79	79	1
115	120	1
11	12	1
79	121	3
131	131	1
1	42	2
15	15	5
113	113	1
175	177	4
42	45	1
181	186	2
109	111	1
22	129	1
64	65	2
148	178	1
79	103	1
187	194	1
34	35	4
196	197	3
138	158	1
163	184	1
96	96	1
39	45	1
101	102	1
185	186	1
68	145	1
6	6	4
9	24	1
174	184	1
39	39	2
173	178	1
150	171	3
17	18	1
174	175	1
188	193	1
29	35	3
84	84	1
21	131	1
58	62	3
75	89	1
87	87	3
102	105	1
19	21	1
39	42	1
53	194	1
116	116	1
142	172	1
174	178	2
115	140	2
120	120	2
159	160	1
99	102	3
146	148	1
16	39	1
13	14	1
99	109	1
38	39	2
161	163	4
1	1	3
132	133	1
131	141	2
57	183	1
182	189	2
116	156	2
44	53	2
193	194	1
152	153	1
167	186	1
23	24	1
149	150	3
144	184	1
34	68	3
51	54	1
54	54	2
7	20	2
154	180	2
147	149	1
190	192	4
172	186	1
139	139	2
25	26	1
78	120	1
138	151	1
186	188	1
184	184	1
147	174	1
88	89	1
154	156	1
2	133	1
98	109	1
76	117	2
163	179	1
52	52	2
10	15	1
6	22	2
168	169	2
42	64	1
72	78	3
137	138	1
59	64	1
10	20	2
161	170	1
142	143	1
70	80	2
189	193	2
131	147	1
38	45	1
175	178	2
117	137	1
165	168	2
60	68	1
127	128	1
17	33	1
133	153	2
188	195	1
24	25	1
171	183	1
94	95	1
60	60	1
107	138	1
54	55	1
5	27	2
84	85	1
33	120	1
149	180	1
101	115	1
164	166	1
123	123	1
57	69	2
4	31	1
59	59	1
85	85	1
38	42	1
143	161	1
8	19	1
139	144	1
172	177	1
64	66	2
24	82	1
145	146	2
161	162	1
104	113	1
100	107	1
66	70	1
121	148	1
11	13	1
8	10	1
60	67	1
173	177	1
55	107	1
59	68	1
154	158	1
47	49	1
147	148	2
120	121	2
94	94	1
32	48	1
24	40	1
168	173	1
154	190	1
1	43	1
135	137	1
18	129	1
19	20	1
2	4	1
70	135	1
122	125	1
126	126	1
66	67	1
8	11	1
114	122	1
169	176	1
0	44	1
136	169	1
