23	23	24
72	72	6
135	135	16
15	16	3
114	114	15
93	93	10
143	144	6
88	108	2
40	40	7
20	20	12
142	142	11
14	19	1
144	144	8
55	56	6
105	105	5
78	78	8
90	91	8
26	27	4
149	149	5
139	140	4
165	165	4
1	2	1
54	55	4
38	38	3
48	48	14
108	109	1
119	119	6
73	139	1
97	97	3
102	102	4
6	6	8
2	3	4
99	100	3
11	11	9
101	103	5
124	124	7
76	77	3
120	120	7
19	19	12
25	27	1
45	45	4
71	71	9
21	21	7
101	101	8
91	93	3
111	111	10
128	128	5
117	165	1
142	144	8
136	137	1
140	140	3
79	86	6
149	152	2
67	67	2
126	127	4
23	24	5
125	125	3
109	110	1
136	136	11
162	164	2
39	39	29
134	134	6
39	120	5
150	150	4
69	70	8
7	38	2
17	17	15
167	167	2
113	137	7
49	49	7
54	54	5
12	12	2
66	68	3
106	106	6
24	24	10
162	162	7
128	136	2
50	50	5
48	49	7
58	86	1
5	6	2
131	131	2
7	10	2
14	14	9
117	118	5
43	43	16
156	156	6
156	157	4
66	66	6
145	145	9
16	16	4
55	55	14
108	108	6
1	1	17
13	14	1
26	26	3
112	112	12
1	3	6
116	117	1
52	53	8
83	86	1
125	126	7
130	130	3
64	64	11
8	9	4
138	147	2
136	142	1
125	149	4
44	47	1
55	57	2
114	115	5
24	25	2
129	130	4
123	123	6
122	122	2
7	7	4
91	91	4
134	135	4
16	19	7
127	128	2
83	84	2
35	35	8
70	70	2
65	65	8
53	54	5
3	37	5
37	37	7
5	9	2
50	70	4
10	10	4
113	113	7
138	138	4
129	129	4
169	169	4
16	109	1
136	147	2
0	0	3
113	114	2
118	118	3
5	5	4
62	62	5
13	13	12
71	97	2
41	41	9
146	146	2
8	40	2
85	87	1
7	8	2
132	149	4
118	119	1
87	89	2
166	166	7
148	148	6
115	116	3
4	4	14
17	18	2
159	165	4
152	152	3
133	134	5
9	9	4
27	27	7
83	83	2
65	70	1
74	74	4
137	137	4
115	115	1
18	18	8
25	25	7
151	157	5
68	68	2
38	53	1
107	107	9
38	48	2
8	8	6
42	42	3
163	163	6
132	134	4
99	99	3
164	165	2
22	22	3
91	101	2
52	52	5
56	135	3
37	46	2
67	70	1
132	165	5
81	81	4
81	82	2
139	167	1
34	34	8
77	78	7
69	69	2
128	129	2
146	147	6
50	51	6
23	119	3
16	17	7
62	63	9
4	43	5
55	133	3
33	163	3
71	72	1
18	110	2
15	15	4
147	149	4
2	2	3
157	157	1
86	86	7
133	133	7
49	50	1
169	170	1
153	153	1
36	151	2
86	87	4
130	131	6
111	112	1
5	37	1
4	5	1
35	157	1
66	70	2
23	57	2
26	44	2
20	25	3
132	132	2
38	39	3
27	28	2
161	161	3
24	135	2
98	98	9
147	148	3
109	109	4
114	132	1
114	116	3
143	143	1
104	104	6
53	53	7
36	36	4
24	40	2
57	57	1
10	20	3
21	22	2
117	117	3
158	158	1
71	166	2
110	111	3
133	135	3
9	15	3
99	116	4
89	89	9
88	88	2
92	93	1
123	148	1
150	151	1
78	79	2
25	168	1
3	4	1
124	125	3
160	160	4
117	144	6
76	76	6
56	56	1
159	159	1
100	100	8
141	141	2
10	107	1
109	139	1
56	106	2
13	15	2
7	55	2
54	56	2
139	139	2
3	3	2
157	159	1
168	169	1
119	121	3
101	102	1
100	102	2
126	126	6
116	116	3
162	167	2
46	51	1
20	22	1
128	140	2
78	106	1
105	106	2
135	143	2
38	44	2
36	155	1
44	45	2
20	134	1
135	136	1
151	156	6
75	75	5
97	98	3
92	92	2
140	141	1
39	51	2
35	36	1
145	146	1
51	51	2
85	85	1
82	82	2
113	131	1
121	121	3
98	115	3
155	156	3
90	90	1
44	44	1
24	119	1
124	130	1
163	165	1
46	46	1
43	49	4
39	50	1
73	73	1
119	120	1
161	162	1
96	96	1
136	138	2
99	114	1
132	162	3
22	23	1
67	68	1
19	39	2
4	133	1
52	64	2
39	40	2
57	58	1
63	63	2
147	147	2
26	132	1
157	158	1
44	48	2
15	18	1
102	112	1
6	7	1
112	132	2
49	62	1
118	162	1
101	157	1
46	63	1
47	48	2
28	28	1
68	69	1
163	164	3
74	75	1
103	103	2
154	154	2
11	108	1
76	78	1
88	115	1
84	84	1
95	95	1
127	127	1
151	151	1
11	36	1
152	155	1
37	148	1
