130	151	4
39	40	8
7	7	22
49	54	4
26	26	14
19	19	29
84	84	7
39	41	8
75	76	4
148	149	4
151	151	17
31	32	4
41	43	8
87	87	15
45	46	9
153	153	14
5	6	2
22	22	22
24	24	40
106	115	4
111	112	6
146	147	3
18	19	6
19	20	11
145	145	4
43	43	5
49	49	18
100	100	21
11	13	6
80	94	5
77	78	6
104	114	4
40	52	5
103	117	3
33	34	4
4	4	26
55	55	16
54	55	2
28	30	4
107	107	9
36	37	3
37	38	7
135	138	3
50	55	3
41	42	6
131	131	18
17	17	31
134	134	6
76	77	4
144	147	4
123	123	23
35	40	10
112	114	4
54	54	7
66	68	15
100	109	6
82	82	4
67	68	1
5	18	3
129	136	2
92	92	2
62	62	4
8	9	5
48	48	52
85	85	5
108	113	2
47	47	16
121	121	2
53	53	36
94	94	6
125	127	2
48	49	10
143	143	4
30	32	5
70	73	3
129	130	4
41	41	23
100	101	3
73	73	4
39	39	20
40	43	5
136	136	5
35	35	3
20	20	13
134	135	1
95	98	1
141	141	12
14	14	13
63	64	5
117	117	13
95	97	3
56	56	6
87	88	4
78	88	1
6	7	6
65	66	11
57	57	2
44	44	11
15	96	1
47	71	5
47	51	4
138	138	16
66	69	1
23	23	33
77	77	17
119	119	4
83	83	2
97	97	16
3	3	10
118	118	11
33	55	3
106	106	8
30	54	2
31	33	5
117	122	2
108	109	12
111	116	1
139	141	6
4	89	1
126	126	6
129	129	7
28	28	11
14	15	4
10	12	3
147	147	5
85	86	7
140	149	3
23	24	7
78	78	7
144	146	8
47	76	4
68	68	8
110	111	2
130	130	7
51	51	2
10	11	9
93	93	9
132	132	12
13	13	19
42	43	4
113	113	6
128	128	6
65	65	6
40	40	21
3	5	2
10	10	8
7	8	7
103	110	1
46	76	1
70	70	16
93	94	3
142	142	6
57	74	4
38	38	6
53	55	15
87	93	8
82	83	9
108	108	8
139	139	5
23	26	6
79	79	2
24	26	2
57	94	2
50	57	1
71	71	4
4	6	1
143	145	6
82	84	7
148	148	14
46	46	31
81	82	2
78	79	4
103	103	8
57	75	2
13	71	6
25	25	9
30	39	2
40	122	1
125	135	2
57	65	2
138	139	6
32	32	6
96	96	13
20	21	3
63	63	5
12	13	4
32	36	5
112	112	9
135	135	3
4	9	5
39	42	3
140	140	5
124	128	4
133	134	3
152	152	20
16	16	17
54	84	4
74	97	2
81	85	3
79	113	1
27	27	5
15	17	3
5	5	10
5	7	5
49	50	4
39	56	2
15	15	15
71	76	1
125	125	5
92	97	3
12	14	5
64	114	5
16	18	6
103	104	4
86	86	5
42	42	15
66	66	4
133	133	6
85	88	2
100	122	3
29	30	7
12	12	9
117	118	6
103	105	2
50	50	5
137	137	5
4	5	1
120	120	16
94	99	1
71	73	2
98	98	4
81	81	5
20	24	2
47	48	3
26	29	3
108	110	4
103	113	4
46	47	6
72	72	15
26	27	3
118	119	4
21	21	6
138	148	3
147	148	4
136	137	4
135	145	2
131	132	5
64	65	3
63	103	5
90	90	2
81	83	3
90	94	2
32	34	4
57	58	2
65	70	2
121	139	5
122	122	6
43	93	2
70	71	4
74	75	2
95	99	3
125	126	3
13	14	5
61	62	5
73	76	3
123	124	7
21	22	8
138	147	4
110	115	5
102	102	2
32	55	5
70	78	1
67	71	2
62	98	3
9	9	6
32	42	3
105	116	2
38	50	3
53	54	3
144	145	4
73	75	3
18	18	10
44	73	2
36	36	8
29	29	3
45	45	10
113	114	5
142	150	3
83	84	5
43	99	1
9	10	3
28	29	2
143	144	2
82	86	2
149	150	1
37	37	4
66	81	4
107	108	4
67	67	5
21	23	10
95	95	3
137	144	5
64	64	5
67	87	3
58	58	4
119	122	2
69	71	1
34	34	3
114	114	2
8	8	5
43	50	3
115	115	4
88	88	1
66	76	1
109	109	4
115	116	3
72	78	5
6	8	1
39	62	2
75	77	5
43	44	2
97	98	3
68	69	3
132	133	4
42	45	1
67	83	4
31	31	2
150	150	9
12	15	2
130	133	5
122	136	1
122	123	3
54	62	1
49	57	2
67	79	1
104	104	10
132	135	1
121	122	2
129	135	1
47	70	2
38	40	2
70	86	3
80	80	3
107	109	4
99	114	3
49	77	1
25	26	3
74	76	4
66	67	5
48	53	2
50	54	3
70	81	7
88	94	3
111	111	7
37	40	1
44	74	2
27	28	2
17	18	12
83	94	1
128	136	2
11	11	1
24	25	2
30	41	2
149	149	7
47	50	9
87	94	3
36	38	5
69	81	1
94	95	1
72	79	2
67	80	4
32	33	6
83	86	1
27	96	1
75	93	1
31	54	2
32	39	3
18	21	3
106	107	4
69	69	7
101	102	2
15	16	1
61	95	1
80	86	2
45	71	1
77	80	1
6	6	2
83	85	5
72	74	1
64	66	7
63	109	3
103	118	2
84	86	2
127	127	3
38	45	3
30	30	2
87	92	4
141	143	2
47	77	1
99	99	6
62	93	2
145	146	4
67	81	2
137	146	1
124	127	4
30	58	3
33	40	3
38	51	1
118	120	3
135	136	2
38	47	1
153	154	1
50	51	2
25	50	1
76	80	4
66	82	2
11	12	1
100	127	2
99	100	1
82	104	2
68	111	2
77	93	2
73	74	2
122	130	2
129	131	1
116	117	1
110	110	5
27	32	2
101	103	1
50	56	5
8	10	1
7	18	1
141	144	4
122	135	2
40	123	2
35	36	2
40	41	2
119	131	3
76	76	2
9	12	1
126	128	1
38	42	1
31	42	1
98	100	1
125	128	1
88	89	2
96	98	3
118	123	1
137	138	3
103	114	1
116	116	1
16	17	2
105	105	4
124	124	1
122	124	4
122	131	1
129	145	1
43	46	1
34	35	1
150	151	1
47	49	2
80	84	3
41	45	1
86	87	2
144	144	2
100	119	1
94	97	2
143	151	1
47	55	6
135	139	1
94	103	2
22	26	1
118	122	4
143	150	1
32	40	1
84	85	2
77	79	1
96	97	1
33	51	1
56	57	2
154	154	1
57	95	2
105	115	1
75	75	1
9	14	1
94	98	2
128	129	1
144	149	1
50	75	2
97	99	1
72	73	3
48	54	2
71	81	1
122	129	2
3	4	1
125	145	1
121	137	1
152	153	3
21	31	1
37	51	1
72	84	1
70	76	1
71	72	1
33	33	1
37	55	1
64	68	1
118	129	1
129	137	1
127	145	1
33	35	1
45	133	1
17	20	1
23	44	1
114	116	1
31	40	1
86	94	1
72	76	1
149	151	1
42	44	1
18	30	1
48	50	1
22	24	1
