12	12	26
157	192	3
166	166	20
170	170	21
169	169	22
180	193	4
126	126	8
9	9	30
177	178	9
159	160	10
138	138	9
163	171	2
116	117	9
149	149	33
170	172	2
153	153	12
158	197	2
187	187	26
13	13	34
110	162	1
12	13	8
146	147	13
27	27	7
30	43	6
49	49	31
130	130	9
37	38	6
131	131	24
157	157	20
183	183	28
14	14	15
38	38	15
176	182	8
85	85	10
72	73	4
18	18	15
152	153	6
115	115	17
114	114	3
50	50	29
101	191	2
113	113	15
74	74	10
127	170	4
22	35	2
60	60	3
161	168	3
94	110	3
2	2	18
140	147	3
163	164	10
143	153	2
174	174	16
185	185	37
26	29	2
32	43	2
48	48	23
22	22	12
182	193	1
160	160	34
163	172	2
184	195	5
121	121	16
158	158	16
46	46	19
142	142	13
137	167	3
2	86	2
20	34	7
50	51	7
33	33	16
10	11	6
53	194	4
180	180	10
42	42	8
7	8	9
59	70	3
20	74	3
41	150	1
86	88	2
161	167	3
94	94	17
165	165	19
161	166	2
23	23	18
21	22	11
11	14	1
116	134	1
139	139	18
44	44	17
117	117	13
122	122	29
109	111	4
59	59	20
175	175	18
155	155	26
190	190	7
196	197	10
20	22	5
28	29	5
1	1	15
136	136	17
188	189	15
186	186	31
168	176	5
97	97	8
142	143	7
18	23	1
188	188	16
133	168	4
29	29	10
15	15	10
3	4	5
98	98	4
100	138	2
89	89	17
172	189	2
108	120	3
145	146	6
179	179	8
147	147	9
6	6	6
3	3	12
171	197	4
108	119	5
104	104	5
108	109	3
155	178	4
43	43	16
89	175	2
6	74	2
101	101	10
169	170	12
109	109	5
134	135	4
94	96	7
127	128	5
194	194	49
57	57	14
66	179	4
58	58	21
127	127	19
30	137	1
184	184	23
30	30	13
111	111	27
190	192	1
144	144	9
32	32	19
71	71	4
39	39	8
172	172	22
193	193	28
83	83	6
176	180	5
37	37	27
36	36	10
7	19	2
151	151	25
93	105	3
122	194	2
2	3	6
0	1	17
81	81	4
134	134	18
14	15	6
94	103	4
112	129	4
135	135	17
107	108	1
191	191	17
116	116	23
99	99	7
145	145	11
69	70	4
59	61	5
167	168	5
40	41	18
9	38	5
52	52	16
88	88	10
24	24	12
5	5	20
125	125	10
119	119	16
120	120	12
31	31	16
158	159	6
152	152	11
75	89	1
144	145	1
133	172	3
11	11	20
55	55	28
171	171	12
93	95	2
40	58	2
59	63	1
152	172	3
139	183	3
105	106	3
62	62	12
45	45	26
40	40	5
118	148	2
155	156	5
20	24	5
68	68	9
13	55	2
102	102	19
141	141	25
108	108	6
93	94	4
80	80	10
156	156	32
29	30	5
165	169	2
103	103	7
53	53	17
161	162	9
85	137	1
172	177	4
173	175	2
5	8	4
102	104	3
41	41	14
34	34	19
159	159	11
21	65	2
3	76	6
45	128	5
8	8	8
192	192	12
134	165	1
171	172	2
58	60	4
144	175	5
124	142	2
148	148	18
155	169	3
154	154	19
176	176	8
149	150	8
79	80	3
0	0	14
69	71	2
69	163	3
137	146	2
88	89	6
39	40	4
31	32	6
40	42	5
72	72	10
108	111	3
17	65	9
16	16	24
168	168	15
48	49	7
176	179	3
169	171	2
113	114	1
118	118	9
186	193	3
26	28	8
1	22	2
152	161	1
23	24	4
22	28	1
161	180	2
119	161	2
7	7	17
8	19	2
100	110	2
143	143	14
195	197	2
185	186	10
17	18	10
49	50	6
140	141	5
163	163	8
95	96	2
100	111	1
51	52	13
149	151	4
133	133	7
187	192	4
109	110	2
43	62	2
128	128	14
24	25	3
1	2	7
182	183	10
54	54	21
118	121	1
123	123	24
132	133	5
10	10	26
88	162	1
86	86	12
98	134	1
179	181	4
82	85	3
131	148	5
162	173	4
132	132	19
154	183	3
18	21	2
58	59	1
175	178	3
17	17	15
47	47	13
177	190	4
142	144	3
46	196	2
190	191	3
162	178	2
152	155	5
105	105	12
143	146	5
119	120	3
192	193	6
110	110	20
182	182	12
113	186	2
176	177	6
19	19	1
64	64	10
177	177	15
173	178	4
159	163	2
42	43	9
187	190	4
25	25	15
102	147	1
162	162	13
27	28	7
4	24	2
100	100	8
179	180	9
124	125	11
3	61	4
63	70	1
15	37	3
189	195	1
111	122	1
126	127	5
6	24	3
2	10	1
160	173	7
54	55	6
34	35	3
161	161	11
90	164	1
153	155	7
110	111	11
174	176	4
49	51	1
112	146	1
149	177	1
103	116	3
114	119	2
128	187	2
152	175	2
96	97	5
96	96	2
40	62	2
66	70	12
124	124	22
82	82	3
39	41	6
136	150	2
65	65	9
2	21	1
6	8	5
18	19	3
150	151	6
109	144	1
51	51	13
64	66	2
112	112	12
13	54	2
83	84	8
150	150	10
154	197	2
109	139	2
164	165	1
86	87	5
8	56	3
161	164	7
59	60	9
21	21	8
17	20	2
135	136	3
137	137	5
195	195	25
73	73	9
56	56	22
161	173	1
164	164	10
8	9	2
181	181	15
117	118	6
129	129	5
196	196	29
189	189	16
22	37	4
106	106	9
146	146	6
6	25	3
134	141	4
53	55	2
173	173	21
67	70	2
176	178	5
32	33	6
33	34	3
61	62	1
94	95	1
4	4	21
13	14	1
157	158	3
175	177	3
78	78	7
27	29	1
37	140	4
63	63	8
129	130	2
43	44	9
77	77	4
108	138	2
42	63	1
155	162	3
123	127	3
67	68	6
25	79	1
143	144	2
170	194	2
44	78	2
25	59	4
104	105	11
105	121	1
123	124	2
80	81	2
123	126	9
159	194	2
38	59	2
135	139	4
133	135	2
134	172	2
153	161	4
172	173	2
30	64	5
134	144	4
38	75	1
114	115	5
61	68	2
179	190	1
12	15	3
165	166	7
22	41	1
18	22	2
160	161	5
121	122	1
178	179	2
40	86	1
166	190	2
113	127	1
3	22	2
161	163	12
187	188	13
59	62	5
184	185	5
132	153	3
84	84	10
47	48	2
25	32	2
22	25	3
95	95	8
111	113	5
156	157	9
181	182	3
145	173	2
197	197	13
20	21	11
108	121	1
152	158	3
151	154	3
37	139	6
41	166	2
179	193	4
115	132	3
165	167	1
10	14	1
144	147	2
17	33	2
24	27	1
5	6	11
61	61	8
83	85	4
19	22	1
35	36	2
60	63	6
28	39	2
125	149	5
25	78	3
33	37	1
136	149	2
109	115	2
26	26	6
112	114	5
66	149	2
25	30	1
18	20	1
113	115	1
125	148	1
22	23	2
146	149	3
51	59	2
134	143	2
75	75	3
89	90	2
151	174	3
99	110	1
180	181	6
157	174	2
36	37	1
111	112	5
15	187	5
103	105	2
76	77	1
24	36	3
122	195	2
78	79	2
131	132	2
140	144	1
117	119	1
131	167	1
182	188	3
41	61	1
172	174	1
26	36	2
70	70	3
112	137	1
87	87	8
66	69	1
37	43	2
174	175	3
9	10	5
99	190	2
29	58	2
127	188	3
181	192	1
63	79	1
76	89	2
148	150	2
81	82	7
160	165	4
64	154	1
153	164	1
119	123	1
143	152	3
34	37	2
9	12	3
69	162	3
99	100	2
180	182	5
138	140	1
148	149	5
43	129	2
0	2	4
139	140	3
137	165	2
16	17	1
154	162	6
36	39	6
16	38	2
147	161	1
37	58	2
20	20	9
0	3	1
115	143	3
173	174	3
35	35	4
51	54	2
84	85	3
149	170	2
25	191	6
5	23	3
100	101	1
153	154	5
128	184	6
140	140	11
6	22	2
167	167	8
158	160	1
124	132	3
103	117	3
98	110	2
15	31	4
101	190	2
51	53	4
134	147	1
69	72	3
63	64	4
20	36	1
55	123	1
111	138	1
100	104	2
24	26	1
26	27	2
128	186	2
71	72	1
33	46	1
30	31	5
28	28	7
98	118	2
76	76	5
25	192	1
178	178	7
157	177	9
25	74	1
153	166	1
101	102	3
177	180	2
140	153	1
22	39	6
174	178	1
100	105	2
53	56	4
147	155	1
163	166	1
74	75	2
58	70	1
60	70	2
25	26	3
45	188	1
102	103	4
46	48	2
67	74	2
152	180	4
7	12	3
98	99	3
128	129	2
162	164	3
15	16	1
115	116	2
98	100	3
131	133	2
138	150	4
150	161	1
35	38	1
119	134	3
191	192	3
136	145	1
123	129	2
29	57	1
64	65	6
172	182	2
119	165	2
82	83	2
153	181	3
82	87	2
55	56	2
168	173	1
179	182	2
77	79	2
106	107	1
40	59	2
28	71	2
9	11	3
4	5	2
73	84	2
77	78	1
168	182	2
49	58	2
184	189	1
146	156	1
44	68	1
185	187	2
14	188	1
139	155	2
79	79	4
24	29	3
37	57	1
104	140	3
145	157	2
18	41	2
42	61	1
107	107	3
31	36	1
143	158	2
51	56	3
157	159	4
195	196	5
138	160	1
154	155	4
66	66	6
102	117	2
53	54	5
133	169	1
169	177	5
170	171	5
81	84	1
30	55	1
52	53	1
171	183	1
104	107	2
0	20	1
40	60	2
106	110	1
57	58	4
31	54	1
171	189	3
68	71	1
129	157	1
147	148	2
146	148	2
35	63	2
20	37	1
142	185	1
39	62	2
88	172	1
11	12	2
47	49	2
109	140	1
171	185	1
189	190	4
79	185	3
137	185	1
10	13	1
164	195	1
67	67	2
3	64	1
114	116	2
15	32	2
139	178	1
188	191	3
111	145	3
129	132	1
46	47	2
142	184	1
143	145	2
30	32	3
15	23	1
160	167	1
153	165	1
0	7	4
141	150	2
139	141	5
168	169	3
7	148	2
104	142	1
9	55	1
164	166	1
86	179	2
47	185	3
25	54	1
133	147	1
36	74	2
172	175	1
142	149	1
42	71	1
66	71	1
147	149	1
38	56	1
32	37	3
131	139	1
132	134	2
172	179	2
14	187	1
43	156	1
98	191	1
56	57	2
34	36	1
49	52	1
81	83	3
121	131	2
112	120	2
118	120	1
108	110	2
19	20	2
115	118	2
80	88	3
38	57	1
163	181	1
142	152	1
163	169	1
28	41	1
141	142	1
106	108	2
118	161	2
70	71	1
93	103	1
51	197	1
16	37	1
100	106	2
151	152	5
137	153	2
8	18	2
0	73	1
162	163	2
8	25	2
29	37	1
132	148	1
153	176	1
24	31	1
150	169	2
188	194	1
182	189	2
111	114	2
160	184	1
160	189	1
27	34	1
119	148	1
94	97	1
4	23	2
14	33	1
61	76	2
118	119	1
117	141	1
25	190	1
13	31	2
9	37	2
126	195	2
21	71	1
97	98	1
68	69	2
103	104	1
43	59	1
183	189	1
22	27	2
184	186	1
57	138	1
68	73	1
0	4	2
112	191	1
2	8	3
132	139	1
125	126	1
138	184	1
36	59	1
111	147	1
139	182	1
135	140	1
17	57	2
18	27	1
187	189	1
27	39	2
15	66	4
173	177	1
62	63	1
137	151	1
157	173	1
44	61	1
17	29	1
44	45	1
131	153	1
66	98	2
45	46	1
90	90	1
78	97	1
54	141	1
99	146	1
175	180	1
160	178	1
98	135	1
186	188	1
182	194	1
50	53	1
60	61	1
104	106	3
146	155	1
7	75	1
136	147	1
0	34	1
16	197	1
15	36	1
40	152	2
10	194	1
127	133	1
41	73	1
194	195	1
4	34	1
111	149	1
125	127	1
73	74	2
130	131	1
90	132	1
50	149	1
165	190	1
119	133	1
168	189	1
30	63	1
4	72	1
133	140	1
9	15	1
67	76	1
109	146	1
69	69	1
87	88	1
48	52	1
104	139	1
15	139	1
148	168	1
6	7	1
