42	42	9
165	165	2
111	112	2
50	50	7
93	93	5
112	112	9
22	24	5
80	87	2
80	80	13
85	85	11
5	5	16
97	97	7
38	39	6
22	23	3
92	92	5
108	108	9
91	130	4
39	51	4
57	57	7
56	61	1
89	89	5
63	163	7
27	27	11
38	46	4
166	167	5
39	152	2
85	161	4
15	57	5
20	21	2
56	57	6
70	84	1
64	104	2
135	135	2
125	161	2
146	146	7
77	77	16
88	137	2
36	36	10
137	141	2
1	21	1
168	168	5
147	148	5
104	119	5
109	109	7
105	105	4
14	18	1
81	81	9
49	50	4
25	25	12
104	104	3
13	13	9
117	118	5
101	101	8
87	87	3
86	86	6
120	120	2
39	39	10
136	136	8
78	79	4
127	128	3
125	125	13
142	142	4
116	116	8
64	64	5
70	70	10
37	37	15
106	106	7
23	24	6
153	153	13
72	97	2
113	114	2
8	9	5
76	77	6
6	12	6
62	162	3
142	143	16
132	142	3
153	156	4
93	101	4
51	122	2
0	1	13
56	77	2
126	130	4
44	44	13
95	103	2
129	129	6
90	90	8
12	15	4
35	46	4
133	133	6
91	92	4
151	151	9
96	96	9
71	71	3
24	24	5
127	145	5
127	130	4
48	48	14
35	35	24
7	13	2
57	58	3
79	79	7
54	81	2
155	155	5
25	55	5
107	107	3
71	86	1
45	45	18
76	87	3
15	15	7
109	110	5
4	4	12
63	63	10
40	46	3
69	82	5
2	132	2
145	145	9
5	23	5
3	40	2
83	83	6
127	129	4
19	19	7
112	153	3
131	131	4
98	98	6
37	38	5
20	20	7
50	51	3
10	12	6
155	163	1
118	119	7
10	10	9
100	112	4
65	66	6
164	165	5
51	157	2
34	34	11
9	9	15
132	133	4
21	22	7
169	169	2
134	134	10
93	102	2
84	84	8
40	149	2
39	40	9
66	69	5
40	40	8
23	23	7
99	102	2
123	123	5
2	2	14
3	3	5
118	118	4
11	22	2
66	66	11
147	153	1
117	117	8
74	76	2
169	170	3
170	170	6
148	149	2
98	116	3
43	43	7
18	39	2
131	170	2
56	125	5
90	130	5
108	131	2
47	47	9
110	110	15
19	23	2
63	94	2
40	41	8
7	7	10
87	102	2
17	17	9
6	52	4
67	67	7
84	94	3
54	54	3
125	152	1
5	10	4
115	115	3
162	162	6
22	22	6
18	18	12
41	41	10
95	162	3
140	140	12
33	33	9
19	98	5
73	76	4
48	49	3
107	108	4
16	16	11
94	94	8
88	89	6
6	7	1
159	159	4
1	2	7
158	158	1
49	49	7
21	98	5
8	57	3
73	78	3
144	144	7
161	163	1
123	161	9
62	115	2
44	47	3
77	78	4
26	26	4
14	14	13
72	142	2
152	152	2
14	15	9
38	38	4
125	146	2
49	128	2
145	163	2
109	166	1
95	95	7
122	160	1
92	93	3
130	143	3
78	78	6
64	69	1
150	150	4
8	8	9
101	103	3
68	69	2
86	91	1
149	149	6
26	27	3
46	46	4
75	75	8
126	161	1
56	56	8
50	119	1
12	13	5
38	40	2
111	111	13
129	131	1
52	52	4
1	1	3
86	93	1
21	21	2
11	11	8
140	141	3
143	144	2
72	87	2
128	128	6
133	134	4
88	88	2
90	131	2
133	152	2
6	6	5
62	79	3
73	114	2
65	67	4
76	76	6
72	72	4
100	120	3
84	86	2
66	67	3
55	55	4
139	139	10
91	143	4
0	0	5
119	119	6
63	71	2
9	56	1
149	154	7
90	91	3
75	105	1
42	43	2
70	96	1
104	105	2
26	39	3
35	36	4
25	44	2
128	170	1
97	99	2
149	152	2
53	54	3
56	65	2
163	163	1
121	148	2
101	102	3
91	144	4
139	141	1
115	116	4
117	149	1
126	158	2
86	96	1
147	147	6
154	154	3
65	65	6
114	115	3
102	103	4
70	71	3
38	52	2
25	53	2
156	157	2
69	69	2
2	6	2
91	112	2
0	44	4
7	45	5
55	56	1
111	139	1
91	91	3
11	12	1
122	122	2
5	12	5
62	62	1
20	98	1
122	161	2
71	132	1
38	53	2
12	12	5
1	15	1
73	73	4
129	138	2
113	113	4
70	86	2
117	137	1
9	13	3
157	157	3
2	20	2
137	137	4
133	138	2
20	50	3
23	56	2
110	111	2
149	151	1
92	129	2
53	53	5
125	160	4
63	153	2
132	132	2
155	156	2
55	91	2
99	100	2
138	138	5
43	44	3
74	74	4
67	69	1
97	147	4
24	104	1
69	130	3
126	127	2
124	162	6
103	104	2
164	164	2
126	126	4
42	47	2
26	101	1
8	123	3
113	149	1
46	50	2
85	160	1
25	42	2
116	117	4
100	100	2
156	156	3
128	166	4
45	51	1
99	99	4
17	18	2
97	98	1
144	145	2
123	124	1
3	82	3
68	82	4
13	54	1
68	70	3
147	151	1
21	100	2
146	148	2
143	143	1
39	46	1
142	165	1
129	130	2
124	165	1
166	166	3
67	68	2
4	112	1
148	148	4
37	43	1
167	167	5
123	146	2
55	57	1
103	103	1
47	49	3
34	35	2
0	6	2
20	40	1
27	28	2
71	96	2
65	68	1
106	109	2
156	169	1
108	155	1
73	101	1
127	127	2
127	165	2
136	148	1
40	101	2
94	103	2
96	103	1
94	104	1
15	54	2
62	91	2
83	102	1
123	153	1
100	101	1
47	56	1
131	165	2
117	121	2
40	159	1
124	146	1
52	53	1
139	140	1
24	25	1
32	32	1
28	28	1
118	121	1
73	113	1
132	138	1
128	129	1
69	128	1
102	102	1
6	14	1
8	14	2
122	137	4
131	132	2
105	128	1
8	45	1
19	99	2
20	39	1
76	82	1
1	3	1
47	132	1
38	41	1
41	74	2
23	51	1
84	161	2
147	150	1
90	137	4
86	87	1
13	15	2
19	46	1
27	36	2
92	140	2
87	95	1
19	51	1
54	56	2
19	54	1
58	58	2
154	155	2
155	170	1
51	163	1
3	4	1
109	139	1
16	17	1
75	130	2
135	146	1
57	62	1
91	106	2
41	159	2
114	123	1
73	98	1
24	43	3
115	123	1
2	4	1
134	138	1
5	46	1
68	151	1
130	130	2
21	24	1
57	114	2
141	151	2
149	153	1
52	127	1
62	163	1
131	143	1
113	154	1
16	52	1
42	49	1
8	18	1
146	147	1
