167	167	13
163	163	16
95	95	7
230	233	3
150	150	27
151	151	21
111	111	9
196	196	19
100	100	7
36	37	1
52	52	4
240	240	10
54	54	6
106	107	7
17	17	19
32	47	1
45	45	9
114	116	2
170	181	4
216	216	13
190	210	2
50	50	10
46	48	3
156	156	25
10	15	1
101	101	8
158	158	18
5	5	15
190	192	9
66	69	1
81	81	15
29	29	13
199	199	11
212	212	12
6	6	15
198	198	12
93	147	3
4	4	13
202	203	3
239	245	2
35	185	1
156	157	2
14	14	11
117	117	19
219	219	16
110	110	34
60	61	8
82	82	11
203	203	29
239	240	6
200	200	28
191	191	13
67	67	16
181	182	10
205	205	22
99	99	19
88	88	27
4	5	9
108	112	6
226	227	10
68	68	21
229	230	1
237	241	4
41	41	19
70	70	5
40	40	30
12	12	17
57	57	9
55	55	12
24	24	12
145	154	1
244	246	1
176	176	31
57	189	2
192	192	14
159	159	17
209	209	20
223	223	12
175	176	10
237	242	1
162	162	6
165	165	19
58	58	7
14	15	3
178	178	12
214	214	11
113	113	8
160	160	27
63	70	3
232	232	21
18	20	5
32	32	31
157	157	16
87	90	6
39	39	10
30	37	7
172	174	6
25	25	11
201	201	34
108	119	3
112	112	26
197	197	14
15	15	13
224	224	13
28	28	13
3	11	1
6	11	9
114	115	7
78	78	3
8	8	20
213	213	10
43	43	18
46	46	8
64	89	4
91	111	3
66	67	9
209	230	3
91	91	16
204	216	3
96	102	8
77	85	5
245	245	24
195	195	14
236	236	15
157	158	1
182	213	3
173	173	20
66	66	13
201	202	13
73	73	11
2	2	11
149	155	2
97	97	10
205	231	2
103	103	6
39	232	3
184	184	14
71	102	8
168	168	14
5	15	3
33	33	11
26	26	23
93	93	11
239	239	18
180	234	7
44	44	17
51	51	10
2	35	2
247	248	6
190	190	15
73	74	8
56	56	22
173	174	13
28	169	2
170	170	8
187	188	10
1	1	15
0	0	13
164	168	2
16	16	12
220	221	1
244	244	21
206	206	6
188	212	4
7	7	23
182	183	4
186	186	9
42	42	17
207	207	16
189	189	11
95	115	2
147	147	17
234	235	13
235	244	2
146	146	6
204	204	8
11	11	25
153	153	17
166	166	20
18	18	7
10	10	18
14	70	9
226	226	13
187	187	12
238	239	4
181	181	15
76	76	12
182	182	18
164	164	14
188	188	15
92	93	6
223	230	3
3	3	11
189	209	5
71	73	4
175	175	14
121	176	2
194	235	1
241	241	14
49	49	16
225	225	14
199	200	16
53	53	7
69	104	2
222	222	13
156	186	9
247	247	22
46	153	1
13	13	2
170	183	4
218	218	16
191	192	6
15	16	4
155	155	29
35	35	13
234	234	13
169	175	5
38	38	13
180	180	23
162	164	1
150	166	4
248	249	4
179	179	12
51	70	1
222	229	6
159	165	5
104	104	9
12	66	2
242	243	5
242	242	17
170	176	3
165	185	9
77	77	16
1	120	1
188	189	9
221	228	2
23	161	1
93	161	5
1	58	4
98	98	13
217	217	11
16	46	2
51	60	1
176	179	2
32	56	2
22	22	15
187	212	1
221	222	2
193	203	2
211	211	14
5	236	4
194	195	1
179	180	5
79	86	3
188	195	2
20	21	2
2	17	2
215	215	16
196	197	11
119	119	18
192	203	2
34	36	1
115	115	10
82	83	6
50	79	5
185	185	21
170	171	4
104	108	3
117	244	6
33	34	6
19	19	18
215	216	1
24	44	6
85	85	16
241	243	3
87	87	12
53	232	2
102	102	3
168	202	3
2	231	4
31	31	6
223	225	6
74	74	12
202	202	22
8	9	4
75	101	5
27	27	10
235	235	12
108	108	13
158	159	8
210	210	3
246	246	7
220	220	9
229	229	9
183	183	22
79	79	13
55	56	2
89	91	2
80	80	2
182	189	1
80	83	2
9	9	13
83	83	2
41	42	3
169	192	5
39	237	3
90	104	2
61	61	18
203	211	2
208	229	5
248	248	6
161	162	3
5	237	2
145	160	4
74	75	5
71	71	9
238	238	18
89	89	11
59	60	3
237	237	14
105	105	3
54	55	4
233	233	20
24	88	2
93	145	5
1	3	1
88	89	5
47	48	5
98	102	1
96	96	8
16	17	2
18	19	2
33	53	1
46	60	3
95	153	2
107	120	5
86	96	9
88	90	1
62	62	10
214	239	4
34	34	9
71	79	2
152	152	7
60	60	8
118	118	9
183	184	11
228	228	16
197	202	2
106	106	13
84	84	7
65	65	16
166	209	4
37	37	22
36	36	5
176	199	2
241	242	4
120	145	6
174	174	5
16	18	1
23	23	23
68	106	3
92	92	15
161	161	15
31	41	2
118	119	5
160	164	4
97	98	3
162	163	11
159	163	2
158	160	5
242	248	5
94	94	9
228	235	5
157	163	4
208	208	18
197	198	2
167	178	3
217	218	5
86	86	4
36	40	1
200	206	3
67	98	1
72	72	9
183	193	1
48	91	4
47	47	15
222	225	11
167	168	9
210	211	1
47	75	3
13	14	1
171	172	7
59	62	1
152	153	6
20	20	14
163	164	7
120	120	4
225	226	3
69	70	6
154	154	7
168	209	2
9	10	3
168	185	1
38	39	5
151	166	3
169	169	5
182	190	3
240	241	7
229	234	3
191	210	6
88	93	2
150	151	1
195	215	6
232	233	5
116	116	6
36	39	2
233	242	2
241	249	4
176	186	4
175	177	2
165	166	2
105	106	1
91	107	1
64	90	2
237	245	1
50	168	4
58	60	2
96	97	9
167	212	3
230	230	10
214	215	3
221	221	13
62	92	1
57	58	13
230	231	10
69	102	3
117	118	5
50	52	4
89	111	3
64	64	10
90	90	2
143	204	1
107	110	1
102	103	7
180	198	2
34	35	9
166	210	2
30	30	13
229	231	5
64	65	11
54	60	4
166	218	1
229	241	2
158	165	1
172	172	8
115	116	4
235	236	7
75	81	2
65	73	1
48	48	10
36	65	6
177	177	11
200	201	2
209	211	2
238	240	1
62	91	1
110	115	1
202	204	7
43	93	2
101	103	3
78	80	4
165	204	2
170	172	2
74	192	1
82	192	3
2	40	2
52	53	2
118	120	4
172	214	1
100	101	4
50	61	2
149	160	1
203	204	5
165	187	2
76	81	2
23	162	1
47	56	1
193	193	10
194	194	7
94	113	3
49	64	2
79	80	13
157	200	2
31	78	2
55	179	1
224	225	6
193	194	3
118	242	1
39	52	3
189	190	6
53	54	4
241	247	2
29	53	2
51	52	4
179	197	1
238	247	5
117	150	4
166	213	1
37	76	5
86	103	2
245	246	4
160	161	1
222	223	3
59	65	1
94	95	3
198	199	6
104	105	2
18	48	3
103	104	5
91	102	5
49	90	1
48	68	2
88	110	2
3	15	3
86	153	3
233	234	1
191	211	3
61	62	6
59	59	6
59	117	2
153	161	2
1	2	3
166	177	4
181	188	2
198	202	2
41	237	2
109	110	6
10	11	11
114	114	9
3	6	2
171	171	8
172	173	5
205	215	1
35	36	2
168	212	2
145	145	2
205	219	4
239	248	4
164	165	1
227	227	3
187	218	3
185	241	1
146	147	3
244	247	2
36	45	2
240	242	1
151	152	4
236	237	4
208	209	1
65	66	5
162	168	2
98	99	4
61	100	3
173	206	1
148	178	1
113	114	7
69	69	4
117	245	2
213	235	2
184	185	2
4	37	1
18	25	1
28	29	3
27	173	2
181	191	4
75	75	8
95	96	2
42	43	1
163	244	5
73	75	3
58	59	1
48	50	2
49	50	7
14	71	2
52	173	2
196	212	2
173	208	3
175	227	4
190	191	1
56	93	1
112	114	4
11	20	2
245	247	3
220	222	3
72	73	3
169	191	4
109	109	6
21	21	6
165	244	1
12	13	3
71	111	1
60	91	2
177	239	1
243	244	4
195	196	1
184	223	4
211	212	3
84	85	3
61	63	1
43	44	1
33	52	2
198	240	3
180	213	1
30	50	3
95	97	3
111	245	3
40	202	2
192	199	2
159	162	2
230	234	2
159	179	1
29	31	1
181	195	3
67	100	2
162	196	1
230	235	1
199	201	2
207	240	1
78	81	2
16	43	1
184	240	2
84	101	1
95	112	1
65	82	5
159	160	1
112	113	1
151	153	4
233	237	4
200	222	2
166	176	1
188	191	2
24	52	1
76	78	1
25	165	2
59	63	2
65	90	1
188	190	4
164	191	1
206	207	1
67	107	1
231	231	3
221	226	1
149	204	1
167	186	1
9	11	1
218	219	1
5	39	1
14	159	1
46	172	1
78	209	1
169	170	2
86	101	2
244	245	2
209	214	3
198	200	3
176	233	1
61	116	3
14	29	1
168	169	1
213	214	4
201	221	1
72	75	1
28	46	1
237	240	1
19	92	2
87	88	3
46	47	1
228	234	4
232	237	2
243	243	5
4	34	1
104	107	1
235	241	2
155	156	2
63	74	4
178	183	4
144	147	1
68	70	1
237	238	2
2	3	2
52	54	1
81	88	4
42	79	1
16	202	1
246	247	1
19	76	1
194	210	2
30	74	2
15	70	1
91	110	1
22	113	5
145	185	1
204	212	3
157	194	2
209	220	1
162	231	1
183	223	1
88	100	1
230	244	3
39	40	1
85	86	1
223	232	2
79	234	1
222	245	1
84	214	3
15	67	1
108	179	1
86	106	2
11	19	1
60	117	2
29	85	1
178	179	1
93	109	1
63	73	2
177	183	1
239	247	1
121	149	1
116	117	1
19	48	1
95	99	3
180	215	2
79	83	1
201	207	6
216	217	1
85	98	1
216	221	1
182	194	1
26	27	2
169	194	1
111	244	2
186	188	2
54	172	2
183	240	2
174	181	1
158	174	2
174	185	1
93	94	1
157	175	1
155	242	1
149	150	1
174	233	3
156	158	1
107	107	2
35	37	1
104	109	2
46	91	1
229	235	1
176	236	1
23	24	1
81	213	1
70	72	2
169	185	1
156	159	1
95	98	2
4	101	1
109	120	1
42	113	1
63	64	1
20	77	1
38	236	1
150	172	1
182	195	1
76	83	2
159	168	1
189	219	1
205	206	1
95	110	1
31	44	1
87	223	1
53	88	1
2	18	1
66	100	1
54	61	1
180	185	1
235	237	1
157	160	1
168	175	1
168	173	1
3	20	2
29	30	1
238	241	1
222	248	1
67	79	1
165	243	1
177	234	1
232	248	1
63	66	1
171	197	1
53	174	1
31	69	1
173	201	1
8	19	1
37	78	1
175	182	1
225	248	1
89	113	1
