110	111	10
16	16	36
45	45	44
139	139	29
32	32	25
12	13	18
60	60	26
67	67	11
38	65	2
54	54	10
157	157	26
90	90	20
173	174	15
6	6	34
113	117	6
161	163	3
17	18	9
5	5	30
29	29	46
4	4	32
135	135	27
122	122	19
16	17	18
61	61	4
50	50	17
158	160	12
179	179	15
83	84	5
39	39	44
153	180	3
170	170	29
142	145	4
158	174	5
26	27	37
0	0	32
71	71	23
40	40	48
92	92	24
26	26	49
144	144	22
44	44	25
112	155	1
128	128	16
160	162	14
43	44	17
24	24	45
41	41	34
54	55	14
68	68	11
19	20	12
15	16	28
73	73	20
108	109	10
41	45	2
180	180	23
35	35	50
15	15	24
2	2	56
27	28	28
21	21	16
118	120	3
146	146	30
130	130	35
1	1	37
142	142	16
8	9	20
121	121	23
166	167	16
95	95	23
36	36	44
5	6	18
40	41	19
108	108	15
167	167	32
111	111	31
75	75	8
4	8	8
40	44	5
20	20	24
25	26	22
34	35	17
30	34	6
160	161	10
17	21	1
127	127	29
129	129	26
29	41	2
12	20	3
37	38	32
30	30	57
135	137	7
150	153	14
148	148	14
79	80	6
152	180	4
135	136	8
18	18	64
96	96	9
117	118	10
96	105	4
38	38	44
30	37	6
163	164	11
109	109	21
82	86	1
168	168	36
64	65	13
80	80	12
102	102	13
39	40	30
123	124	12
120	120	17
14	14	46
9	9	39
5	7	5
21	40	2
10	11	29
165	166	6
76	131	8
61	64	2
18	21	7
161	169	3
178	178	12
35	37	10
14	15	12
160	160	30
53	53	13
11	13	8
8	8	58
131	131	27
40	42	10
144	145	9
121	123	3
134	137	6
43	43	42
159	160	9
164	164	16
137	137	19
141	145	7
57	80	2
11	11	46
13	13	43
28	30	10
107	108	4
82	82	15
105	106	7
140	148	1
93	93	19
78	78	20
112	112	26
25	25	50
42	42	39
149	149	26
2	8	6
6	29	5
12	29	2
108	129	8
22	29	5
18	34	1
126	126	24
63	67	2
80	108	1
55	55	10
82	83	3
132	133	19
138	138	9
77	79	4
89	90	14
133	133	22
33	40	1
3	5	8
152	160	5
161	164	1
79	79	34
29	45	7
24	25	28
125	125	30
118	122	3
99	99	32
122	131	6
88	89	15
150	162	1
16	18	4
8	10	7
33	33	38
138	139	4
172	172	27
106	121	2
18	22	7
132	132	10
4	5	2
118	118	19
169	170	6
3	3	42
15	41	2
112	114	6
164	165	5
107	109	8
51	51	11
145	145	38
103	103	15
117	121	1
113	113	28
91	94	8
173	173	19
30	66	4
150	151	3
23	23	47
66	66	19
156	156	20
37	37	23
44	50	1
60	68	8
64	66	1
167	168	2
29	30	19
74	74	19
18	57	1
72	73	2
35	36	6
52	52	11
84	85	29
30	43	1
16	27	5
6	7	19
45	46	3
134	134	18
140	140	15
38	40	1
177	179	2
32	43	1
105	107	6
163	163	20
2	9	2
27	27	40
18	20	7
42	43	17
7	33	3
12	12	46
162	162	11
102	103	6
106	107	6
22	23	15
68	73	4
97	97	20
57	78	1
153	161	3
105	108	1
86	86	13
30	31	16
72	72	11
121	122	9
74	86	2
12	15	3
119	120	8
171	179	1
92	93	6
123	125	11
18	23	8
56	56	24
110	110	20
161	161	15
17	17	25
106	106	24
153	153	17
63	66	4
124	125	7
161	162	16
177	177	13
64	91	1
102	104	5
178	180	3
10	21	2
124	124	24
177	180	3
158	176	6
125	129	1
10	26	2
44	45	15
141	141	18
57	57	21
7	34	2
44	46	4
43	45	16
104	104	22
88	107	3
19	19	39
76	80	5
135	179	1
63	63	7
13	14	12
31	35	3
119	123	1
146	157	9
0	1	17
3	10	3
32	33	28
31	31	19
157	160	4
85	85	14
88	88	13
11	19	4
71	142	1
148	154	2
111	116	2
151	151	10
154	180	3
22	22	34
81	81	15
60	62	6
9	13	1
92	155	4
163	170	4
140	141	3
103	104	8
143	152	3
117	129	4
24	26	17
2	3	15
151	154	1
62	63	4
15	23	1
18	19	14
53	54	11
1	40	4
80	81	8
10	10	50
59	59	22
114	145	5
143	143	11
111	147	1
31	33	8
156	160	5
91	91	13
147	148	19
104	107	2
12	14	6
169	169	15
28	28	32
115	115	26
85	89	4
154	154	11
3	4	22
152	153	15
151	153	4
100	101	1
94	94	17
114	114	9
26	28	5
104	105	10
152	152	20
115	116	3
64	64	20
101	101	21
119	119	16
17	29	6
63	72	2
57	58	2
116	126	3
153	162	1
7	8	18
25	27	3
6	15	2
85	86	1
123	123	17
5	9	3
31	32	12
136	136	10
109	110	4
56	58	2
142	143	14
90	93	1
96	97	10
3	34	1
176	176	16
134	149	1
133	134	6
94	103	4
93	94	6
100	100	21
71	72	19
91	125	2
100	106	2
150	159	2
5	21	1
38	39	12
52	53	13
159	159	8
86	87	3
75	77	3
101	102	6
162	166	2
34	41	5
7	30	3
8	29	2
157	158	8
111	112	5
21	29	1
101	103	5
7	7	37
3	33	4
89	109	1
63	64	9
107	107	14
10	40	3
21	28	2
126	130	2
21	22	11
19	140	2
89	89	14
19	22	5
117	117	32
67	73	4
17	19	1
97	98	6
158	158	7
81	82	7
24	44	1
71	73	3
97	151	2
160	174	1
99	101	3
89	94	1
172	174	5
58	59	12
46	46	7
34	36	4
92	102	1
11	12	17
11	14	3
155	156	7
95	96	11
82	85	5
10	14	5
65	66	2
58	68	3
103	105	15
36	38	7
108	110	3
65	68	3
23	26	3
56	57	14
49	51	1
97	107	1
42	46	1
36	44	6
96	131	3
156	176	6
58	79	5
32	40	2
6	24	2
171	171	22
55	56	13
28	29	13
30	94	2
155	170	1
99	100	5
114	128	7
2	19	3
125	130	4
27	59	3
22	178	1
142	159	2
67	68	2
90	104	2
92	105	3
9	16	5
154	156	5
58	58	13
76	171	2
134	136	4
75	132	3
110	130	3
150	161	1
93	95	4
36	40	2
148	151	2
147	147	16
3	12	5
163	165	1
155	174	1
38	41	4
93	122	2
116	118	6
22	41	3
175	177	3
159	169	1
24	28	2
174	176	6
129	130	6
116	116	11
98	98	14
109	147	1
130	131	3
15	31	4
19	21	2
91	93	2
77	78	5
59	61	3
155	155	13
1	5	5
165	167	3
8	20	5
33	67	2
9	10	7
86	89	2
33	35	9
74	149	2
105	105	19
77	77	6
148	155	2
175	175	8
107	118	5
55	59	3
171	172	1
6	8	4
100	102	3
174	174	14
84	84	5
76	76	9
115	127	1
158	159	12
175	176	2
158	162	7
10	15	3
75	135	2
112	147	6
109	128	4
141	152	2
45	51	3
5	10	2
34	34	7
59	62	1
11	30	3
110	123	1
9	22	4
152	164	2
146	156	1
2	6	6
113	115	2
65	65	7
1	2	8
23	24	9
141	153	1
83	83	5
50	51	13
58	77	2
36	42	4
154	155	7
31	67	4
5	34	2
113	114	3
115	122	3
55	57	2
132	139	3
150	152	4
94	105	3
152	154	4
131	132	2
111	131	1
50	77	2
166	166	13
76	132	5
59	72	1
31	34	3
120	144	2
64	71	4
156	170	3
23	25	3
164	168	3
139	140	2
109	148	2
162	167	1
1	6	1
131	137	2
122	123	6
147	153	3
68	70	2
143	144	7
108	122	1
90	94	3
41	42	10
87	89	5
61	62	4
45	50	3
87	87	15
141	154	1
63	65	6
151	152	14
4	9	14
155	160	1
10	13	2
50	79	3
32	37	1
31	66	4
3	9	1
165	165	14
7	28	1
34	37	4
120	121	1
88	106	4
9	11	2
14	39	1
172	173	5
170	171	4
4	12	3
93	105	2
70	70	10
5	22	3
34	66	3
8	33	3
96	98	4
140	144	4
76	91	4
128	129	7
73	75	3
150	176	1
95	106	2
162	178	1
156	162	2
157	159	2
76	77	3
157	178	1
8	28	3
71	92	1
152	168	2
171	177	2
147	156	2
176	177	1
91	108	2
56	78	3
111	117	6
36	159	2
102	105	2
24	29	6
20	21	4
31	37	3
146	147	6
14	29	1
35	66	1
61	66	1
94	102	1
156	157	3
83	85	5
71	91	3
33	34	6
16	23	3
147	162	3
9	46	2
133	149	3
111	119	1
145	146	8
87	107	1
12	27	3
57	59	1
164	178	2
21	23	1
3	37	1
150	150	3
136	137	2
91	92	3
4	7	2
131	153	3
41	43	4
133	135	4
36	43	1
127	174	3
114	127	1
108	148	1
78	80	1
14	18	2
91	106	3
118	130	2
163	168	2
112	113	4
135	155	2
88	95	3
154	175	2
77	88	2
128	130	5
107	110	3
168	169	7
156	164	2
15	20	2
22	25	5
98	99	4
17	39	2
75	133	4
16	22	2
14	16	3
4	6	2
81	83	1
72	145	2
139	172	2
31	45	5
74	171	2
14	30	1
15	38	1
114	123	2
18	25	1
146	161	2
58	78	1
60	61	4
36	37	1
18	32	1
118	119	7
156	161	3
54	82	2
57	77	2
75	85	2
136	154	4
14	40	3
133	136	3
76	94	1
112	118	1
116	131	2
29	34	3
31	41	2
71	80	2
128	178	1
171	173	2
119	121	5
149	167	4
108	131	2
139	170	1
59	138	5
89	100	1
8	19	3
0	6	1
59	60	1
33	38	1
151	174	3
6	9	3
75	83	1
74	75	2
32	35	4
52	180	3
2	4	3
27	29	4
62	62	3
168	178	1
10	16	6
1	4	8
23	40	2
20	28	2
92	104	1
156	178	1
5	27	3
148	149	4
24	27	1
75	76	2
9	15	3
11	15	1
42	45	2
10	27	3
15	37	2
97	105	3
8	32	1
80	82	4
14	21	2
42	44	1
152	169	2
130	155	3
23	31	1
90	92	3
149	150	1
37	41	1
103	106	1
52	55	2
87	88	2
61	73	1
22	44	1
11	17	1
83	86	2
3	6	1
95	105	1
28	46	4
178	179	3
148	159	1
91	104	2
13	29	1
12	24	1
38	42	1
120	145	1
157	164	2
129	154	1
92	94	2
29	66	2
61	68	2
154	157	1
162	170	2
90	91	1
111	115	1
142	144	1
39	42	2
33	44	1
5	17	3
92	100	1
10	23	1
31	62	2
108	111	2
164	170	2
3	35	1
160	168	3
152	173	1
177	178	1
60	138	1
37	42	1
36	41	2
17	30	1
7	9	1
146	152	1
20	23	4
118	126	2
13	15	1
3	13	2
72	132	1
75	87	1
2	33	2
159	175	1
97	149	1
86	90	1
23	27	2
154	174	2
18	29	1
87	109	1
116	134	2
52	79	2
74	77	1
2	13	1
111	155	1
30	32	1
141	143	1
14	31	1
103	162	1
0	36	1
95	99	2
71	94	1
4	15	1
15	29	1
3	8	1
24	127	1
149	172	1
101	136	1
66	71	1
149	171	2
108	126	1
51	52	1
132	135	2
130	154	2
127	130	1
163	167	2
118	146	2
61	63	1
170	178	3
2	5	2
16	26	1
63	73	2
63	90	1
74	172	1
15	17	1
137	138	2
81	86	1
31	43	1
109	111	1
117	119	1
116	117	3
4	38	1
105	109	1
110	112	1
18	35	2
77	131	2
133	139	1
159	171	1
143	146	1
137	149	1
28	33	2
53	78	2
20	24	1
73	77	1
8	30	1
153	154	2
20	38	1
165	168	2
94	106	1
106	130	1
24	41	2
9	17	1
72	149	1
110	117	1
6	27	1
39	50	1
3	40	1
126	129	1
153	174	1
141	142	1
77	132	1
174	175	1
32	34	1
96	104	1
61	67	1
75	86	1
11	20	1
147	151	1
151	165	1
96	99	2
118	124	1
154	173	1
118	147	1
113	116	1
25	40	1
22	42	1
59	88	2
23	30	2
57	71	1
60	89	1
73	100	1
100	107	1
142	167	1
103	109	1
158	161	1
127	128	1
53	56	1
25	128	1
80	86	3
0	18	1
116	130	1
29	31	1
134	135	1
83	88	1
