153	154	1
107	107	5
186	187	5
191	192	1
176	177	4
110	110	9
182	185	1
24	25	2
1	47	3
154	159	5
47	47	25
5	5	9
109	109	4
1	2	4
173	173	15
165	165	7
33	33	4
119	119	5
132	133	1
12	12	3
34	64	2
174	174	10
40	40	6
75	146	2
56	63	3
57	59	2
191	191	2
165	166	11
162	162	4
152	152	7
116	116	2
56	56	5
34	34	4
120	120	4
8	8	10
57	57	14
168	168	6
195	195	3
35	35	5
106	106	10
59	59	5
69	69	3
30	30	2
24	24	7
158	158	5
167	168	3
196	197	2
35	111	2
43	43	8
115	116	3
30	105	5
121	126	1
178	178	5
117	117	5
139	140	2
172	173	3
186	186	4
132	132	4
95	113	2
14	171	1
194	195	3
138	138	9
170	170	12
23	23	8
182	182	4
71	71	5
55	55	4
126	130	3
100	100	7
192	192	5
45	64	2
87	87	4
78	78	8
21	184	2
127	136	1
50	50	1
179	180	1
20	21	1
4	4	5
105	106	3
53	53	5
151	151	5
157	157	5
42	43	3
30	36	3
159	163	4
78	85	1
104	104	6
140	143	2
167	167	6
1	5	4
19	61	3
193	193	11
6	58	1
8	21	1
49	49	11
96	96	3
183	186	4
78	81	2
140	140	2
80	80	2
16	16	4
94	129	3
123	123	3
154	154	8
44	58	1
13	186	2
135	135	1
127	131	2
96	97	1
169	170	5
108	108	4
29	30	2
76	76	3
111	111	5
185	186	6
63	63	10
119	153	1
13	13	4
162	164	3
44	45	3
80	83	2
71	74	2
48	48	8
173	192	1
101	161	2
137	137	5
196	196	13
88	140	4
179	179	2
69	73	1
172	193	5
124	124	5
22	26	2
65	65	5
12	187	1
6	6	1
144	145	2
188	188	4
48	49	3
3	75	2
52	52	4
159	159	6
155	159	1
168	169	3
102	102	4
0	2	2
30	94	2
149	149	9
100	101	4
183	183	8
109	111	1
134	135	1
101	101	5
171	171	8
136	136	3
39	132	2
95	96	5
2	2	10
39	39	5
127	127	15
5	6	2
116	135	2
16	17	4
40	42	1
128	128	1
48	52	5
22	23	4
45	45	6
166	166	4
116	130	1
16	34	2
136	138	1
44	131	3
24	38	3
177	178	1
11	11	4
21	21	2
54	56	4
77	77	4
130	130	8
25	25	4
3	36	5
118	130	2
9	9	5
112	112	3
28	30	1
132	144	1
146	147	1
83	85	4
19	19	2
38	38	2
86	86	2
115	122	1
175	175	6
10	10	2
7	7	10
10	191	4
18	185	1
99	133	2
94	95	5
46	46	2
169	169	4
155	155	6
38	39	1
83	83	3
26	26	3
145	146	2
142	142	1
197	197	1
185	192	2
153	153	4
23	26	2
150	150	5
156	157	4
156	156	2
31	31	3
99	166	1
133	140	1
17	181	2
160	160	1
70	71	1
172	172	2
190	190	6
65	153	5
143	143	7
193	194	2
139	139	2
113	114	4
101	103	5
110	118	3
102	168	3
159	162	1
98	102	2
15	16	2
110	111	1
103	103	1
194	194	19
164	167	2
131	132	1
36	36	4
31	32	4
141	141	6
3	3	7
40	44	1
119	150	1
168	186	1
41	42	1
41	127	2
160	173	1
121	121	2
164	164	4
147	148	2
71	72	2
105	134	1
131	131	8
145	194	1
126	126	2
166	167	4
82	82	1
34	110	1
70	70	1
76	77	2
187	187	2
133	147	1
32	32	2
22	25	1
142	143	1
99	101	1
37	37	3
10	47	1
166	189	1
69	124	2
184	194	2
88	88	2
159	164	3
163	164	2
121	122	3
33	36	1
159	173	2
164	192	1
123	125	2
37	38	5
141	142	1
61	61	2
51	51	4
16	53	1
62	64	2
13	18	1
185	185	4
47	48	1
79	82	1
98	98	3
38	42	7
157	162	1
37	43	1
34	67	3
35	67	3
155	156	2
36	38	1
28	28	3
171	172	1
151	159	2
64	65	2
44	44	5
36	67	1
27	27	1
13	51	1
64	67	1
5	9	1
105	105	2
54	54	2
145	145	2
102	103	1
61	66	1
189	190	1
152	158	4
109	110	2
167	179	2
9	186	3
181	181	3
158	159	1
7	37	3
181	192	2
125	125	3
28	178	1
147	147	3
79	146	1
15	15	3
157	174	2
34	51	1
115	115	1
134	134	2
103	132	2
107	171	3
42	42	1
118	120	1
156	159	2
3	42	1
174	175	2
130	142	1
62	63	1
0	13	1
184	185	1
33	34	1
21	22	1
183	187	1
80	85	1
156	181	1
14	14	3
73	73	1
167	191	1
118	139	1
160	162	1
176	176	2
86	87	3
186	188	1
6	7	1
0	1	1
108	109	2
150	152	2
129	129	1
149	163	1
35	106	1
188	189	1
17	39	1
192	196	1
146	191	2
7	42	1
62	62	2
160	165	1
162	163	1
35	104	1
17	17	2
153	156	1
79	80	1
189	189	1
106	107	1
104	169	1
81	81	1
180	182	1
99	99	1
103	104	1
67	67	1
41	41	1
161	175	1
173	174	1
170	171	1
182	183	1
171	180	1
