220	221	2
13	17	6
11	68	1
6	7	9
160	160	19
32	32	17
64	65	6
147	148	1
45	46	8
150	151	10
187	230	3
172	172	21
28	28	20
98	101	5
204	204	5
85	85	16
173	177	2
176	224	5
130	140	6
15	15	15
97	97	12
133	211	3
23	23	18
3	69	1
115	115	7
163	163	12
105	105	13
47	70	8
4	6	1
131	131	6
197	198	4
12	36	2
68	68	12
161	161	8
189	189	14
194	194	15
62	71	5
233	237	3
12	41	7
29	111	19
58	59	10
119	119	15
136	136	6
191	191	17
36	36	7
176	177	1
177	178	5
25	25	16
40	116	6
135	140	2
54	54	17
181	182	6
236	236	16
205	205	12
129	152	2
199	199	10
29	36	5
100	100	8
0	0	11
95	95	2
72	73	4
43	43	21
11	40	2
33	34	5
2	19	3
207	208	12
188	189	5
8	8	13
218	218	13
2	49	1
203	203	17
30	34	5
158	210	5
174	216	3
234	235	12
159	159	23
39	39	9
145	147	6
53	102	3
242	242	3
122	170	1
64	64	13
17	22	6
56	57	7
4	13	2
180	215	5
126	126	15
128	183	2
21	80	7
172	221	2
5	5	6
83	84	4
31	125	1
53	53	28
31	36	6
76	76	14
179	224	3
13	13	8
14	14	7
1	50	4
109	109	5
141	143	2
65	68	3
237	237	15
153	153	17
15	48	7
232	232	14
57	58	6
129	129	5
127	166	6
7	8	15
135	143	4
10	10	17
212	222	3
48	86	1
198	198	13
217	218	3
58	60	9
103	103	11
62	62	9
21	21	8
54	55	5
16	16	5
192	226	2
23	118	4
146	170	2
190	227	4
96	192	1
31	187	4
26	26	8
137	138	7
80	80	11
47	69	2
216	216	8
162	198	3
20	20	22
22	117	4
49	56	1
207	207	19
62	63	6
223	228	1
29	29	10
188	188	8
135	139	9
214	221	6
7	30	4
0	23	5
126	162	1
79	79	11
107	107	4
159	168	2
158	176	4
144	145	4
223	223	18
164	164	12
47	68	3
72	72	15
104	115	1
73	203	6
121	121	7
99	99	5
205	207	2
180	180	6
19	19	19
42	42	12
46	46	9
134	135	4
67	67	17
147	147	8
215	215	10
9	9	9
210	210	11
208	208	10
65	76	6
12	12	11
7	14	1
39	42	3
154	155	8
2	5	1
158	170	1
18	79	4
11	11	28
7	65	4
31	31	16
8	20	2
201	201	11
59	86	2
24	24	12
123	186	5
88	88	8
102	102	2
17	104	2
173	178	4
55	55	14
103	108	2
9	11	3
6	8	4
66	68	3
79	80	4
128	128	10
214	215	6
82	82	7
230	230	6
130	130	7
52	52	13
60	60	13
168	169	6
57	67	6
29	30	7
21	23	4
103	107	14
23	121	3
140	152	1
104	105	3
8	11	2
185	185	16
138	218	3
187	188	1
177	177	10
184	185	4
181	181	5
136	137	7
112	112	2
73	73	11
135	135	8
192	192	11
115	118	3
158	158	7
35	58	3
180	182	2
140	222	2
32	87	1
177	179	1
26	241	2
41	41	6
44	44	7
161	198	7
105	106	5
86	86	11
140	150	2
129	135	2
100	101	6
173	173	9
179	221	1
32	63	1
20	29	2
55	56	5
213	213	6
40	40	7
182	203	2
152	152	6
171	228	5
179	225	1
66	66	6
176	176	10
221	224	2
111	111	4
139	139	5
210	213	3
220	220	9
178	178	13
7	68	2
22	22	16
52	53	4
11	66	5
3	3	5
232	233	3
238	238	5
6	17	1
217	217	15
118	119	4
102	110	1
225	226	8
40	98	7
200	201	4
81	82	7
141	141	4
233	233	3
119	130	6
227	227	4
84	88	1
197	197	15
120	195	3
50	51	10
226	227	10
224	224	18
70	70	14
14	47	4
151	151	4
209	210	6
125	125	11
45	45	22
17	67	2
47	47	9
102	109	1
3	98	3
174	174	11
57	57	27
167	169	3
21	63	1
176	213	2
84	84	10
157	195	5
7	7	1
220	223	4
221	222	1
74	74	11
0	1	7
184	184	6
58	58	10
186	198	4
4	14	1
77	79	12
33	33	12
156	157	2
6	6	12
49	50	5
137	137	10
219	219	13
229	229	7
12	106	2
16	30	1
239	239	5
8	80	2
152	232	5
149	149	9
116	116	10
26	27	6
105	116	3
86	120	4
164	165	9
4	4	12
0	47	1
26	242	3
121	159	1
129	130	6
141	212	2
153	160	2
3	74	2
51	51	23
236	237	11
66	76	6
123	184	6
53	190	1
53	54	6
69	69	5
182	182	4
92	92	5
25	241	2
165	165	15
118	118	11
25	242	4
46	73	2
186	186	6
225	225	5
165	166	4
27	28	2
157	192	3
167	167	3
117	156	2
33	58	3
159	216	4
177	220	3
191	228	2
18	96	2
222	228	3
143	143	10
139	140	7
140	140	4
18	104	2
200	200	8
180	216	2
35	35	3
82	83	3
151	152	12
8	100	3
53	64	2
215	216	4
169	175	4
234	234	6
7	80	2
141	142	5
31	61	2
157	157	4
61	61	11
7	15	3
99	101	1
31	33	3
157	158	1
120	120	6
63	63	7
5	13	2
126	129	1
50	50	16
164	213	6
228	228	4
148	174	2
19	97	2
1	48	2
158	169	3
119	122	5
171	171	3
135	138	4
104	104	3
156	209	12
36	108	1
83	83	6
130	153	6
48	121	4
35	81	1
124	127	2
34	34	9
4	136	2
117	187	4
207	222	2
146	147	8
22	102	1
14	16	2
44	45	6
12	16	2
52	229	1
138	151	1
158	159	5
110	154	4
190	191	1
195	195	5
114	114	5
31	129	2
49	49	5
192	195	3
5	9	1
179	179	11
182	183	5
16	17	9
48	49	5
147	152	1
48	48	9
135	136	4
29	33	2
108	109	2
49	59	2
190	190	7
44	48	7
33	56	3
60	84	2
19	20	5
155	155	9
6	80	3
162	163	1
34	35	3
15	17	1
130	131	3
123	169	2
31	186	4
29	106	3
70	86	3
240	240	11
95	156	4
19	48	3
16	21	5
187	187	1
127	127	8
110	110	5
2	78	1
226	226	10
30	30	16
169	170	2
5	111	3
24	29	2
21	22	6
101	101	8
14	67	3
78	78	11
17	21	8
27	27	3
156	156	1
155	210	1
21	29	1
49	91	3
126	127	5
237	238	1
196	196	8
29	98	3
13	14	3
71	72	4
169	169	5
4	7	1
112	113	2
171	241	7
47	208	1
133	223	1
198	199	4
30	129	1
225	227	2
47	64	1
211	211	4
139	150	2
15	16	3
142	229	2
168	168	5
180	224	2
18	18	9
122	122	11
183	206	2
18	100	1
145	145	8
142	142	4
4	100	2
40	42	2
50	79	2
174	175	10
154	154	8
123	124	6
162	162	5
2	48	1
182	204	3
71	71	6
4	17	5
122	125	2
148	206	2
121	197	2
0	121	1
67	68	2
212	229	3
221	221	2
145	146	4
117	117	5
124	194	2
151	153	2
79	83	2
8	9	7
144	147	3
170	222	3
173	174	2
241	242	7
38	47	3
30	36	3
42	83	2
109	110	3
122	124	3
56	56	5
50	56	3
12	15	2
133	152	4
144	170	2
18	34	2
17	68	1
150	150	7
49	120	2
116	117	2
14	17	3
61	89	1
125	126	2
179	180	5
137	140	2
14	35	1
77	77	2
161	166	3
11	46	2
59	60	6
206	206	1
134	134	7
203	224	3
43	74	3
103	175	2
85	119	2
36	37	3
75	115	3
139	143	1
102	103	6
50	57	1
81	81	6
142	143	2
175	180	1
37	37	8
206	210	1
129	132	3
121	169	3
29	31	3
125	127	9
39	40	4
12	85	1
1	49	1
32	36	2
3	81	1
74	79	4
18	77	3
17	17	8
163	197	1
205	208	1
202	202	5
103	106	4
77	80	2
208	214	1
8	78	2
38	43	3
5	6	5
80	84	2
76	167	2
235	236	3
183	183	2
116	210	2
225	228	1
215	230	3
51	229	2
153	154	4
149	150	4
79	81	3
21	78	2
29	47	2
42	79	1
78	79	4
198	200	4
155	175	1
106	106	5
4	16	1
194	196	2
75	75	3
138	139	1
24	37	3
109	111	1
81	83	2
8	46	4
240	241	3
3	104	1
166	169	1
235	237	3
78	80	2
210	223	3
42	43	3
235	235	1
6	104	1
27	73	8
38	122	4
75	76	10
71	73	2
185	187	2
17	81	1
205	206	1
171	172	6
132	211	2
231	231	4
29	49	4
209	209	9
127	143	2
30	32	1
223	224	1
121	127	1
118	156	1
97	118	3
11	12	7
9	65	2
128	130	1
213	214	4
43	70	2
156	188	6
14	15	4
13	15	3
184	205	2
77	78	4
2	190	3
7	22	1
20	85	1
30	31	3
124	126	2
192	193	1
48	190	3
44	72	1
173	220	4
116	118	2
30	125	1
175	175	3
61	62	4
205	212	3
11	45	1
46	67	1
193	194	2
120	225	2
49	60	1
10	65	1
1	1	3
107	109	2
31	108	2
229	230	1
191	192	1
18	19	3
113	114	1
51	60	2
109	112	1
110	112	1
74	75	1
56	58	1
45	242	1
38	38	6
18	109	1
49	51	2
123	123	5
115	116	2
5	14	2
113	113	6
212	213	3
68	79	2
115	117	5
53	89	3
5	17	2
65	65	2
6	23	3
142	150	2
74	80	3
2	2	7
42	75	3
117	118	2
22	59	2
84	153	2
135	171	2
25	44	1
172	205	2
44	59	1
200	222	2
63	72	1
24	44	1
206	208	1
164	190	3
168	201	2
3	5	1
231	241	1
98	98	3
52	228	1
22	58	2
178	226	1
31	62	2
198	204	7
170	170	9
12	67	3
70	105	3
101	113	1
129	209	2
18	81	1
6	66	2
116	187	2
46	69	2
85	88	1
98	99	2
27	53	2
120	157	2
194	197	1
85	168	4
45	71	3
43	47	1
51	119	1
148	149	2
169	196	1
17	80	1
214	214	3
152	154	1
11	14	2
64	69	2
178	218	2
42	44	1
14	34	3
199	221	2
122	167	3
216	217	1
105	175	2
66	77	1
179	229	1
161	164	1
108	117	2
1	84	1
84	85	3
30	126	1
31	35	1
190	215	1
70	88	3
193	193	1
121	176	1
61	63	1
99	105	1
206	207	3
123	185	3
57	60	2
172	173	1
153	156	1
18	22	2
170	202	2
103	104	1
144	144	2
60	61	1
47	48	2
187	210	1
213	216	1
186	187	3
8	31	2
65	77	2
71	88	2
29	109	1
20	62	1
34	153	1
133	133	1
230	231	1
134	140	1
207	224	2
141	150	1
175	214	2
127	128	1
3	96	2
9	29	1
8	41	1
175	216	2
194	195	1
197	200	1
97	191	1
29	97	2
115	213	3
156	175	1
121	164	1
41	99	1
107	108	6
165	191	2
208	224	2
98	107	2
45	84	3
30	33	2
171	242	2
155	211	1
160	202	1
60	87	1
77	115	3
174	191	1
172	174	2
209	229	2
0	77	1
85	86	1
211	212	1
169	184	1
166	166	1
130	148	1
131	226	1
204	206	1
145	149	1
20	21	1
213	224	1
52	55	4
3	100	1
217	219	1
48	96	1
183	186	1
60	71	1
7	111	4
231	242	3
17	30	3
148	150	1
164	168	1
192	196	1
57	59	1
133	156	1
219	220	1
3	68	1
19	64	2
44	71	1
120	122	2
7	16	2
23	24	1
163	165	1
53	55	1
156	186	1
20	84	1
76	201	1
180	214	1
37	48	1
135	219	2
226	228	1
187	189	1
38	39	1
0	65	1
221	225	1
4	5	2
36	65	1
114	118	1
60	70	1
95	106	1
108	108	1
28	30	1
41	116	2
116	156	1
34	48	4
13	35	2
103	105	1
120	169	1
17	65	1
200	202	1
39	98	1
66	67	1
166	202	1
70	71	1
96	97	2
27	240	1
96	96	1
30	118	1
61	81	2
218	227	1
129	148	1
59	59	2
104	116	1
89	213	1
175	193	1
132	132	1
100	103	1
9	101	1
22	104	1
208	229	1
72	86	1
14	114	1
218	225	1
73	74	1
97	192	1
122	169	1
133	134	1
131	134	1
95	188	1
50	59	1
5	8	1
157	187	1
199	200	1
33	50	1
139	148	1
35	41	1
210	231	1
205	211	1
141	147	1
