88	129	5
71	71	8
30	30	25
44	52	1
65	167	1
6	6	30
20	20	21
129	135	4
5	6	14
11	11	39
81	81	8
22	45	7
155	155	8
40	40	20
15	16	12
0	65	1
95	102	2
16	133	1
117	117	6
116	118	5
116	116	18
82	82	7
44	44	29
9	9	24
99	100	13
19	20	11
40	53	4
14	14	61
83	83	12
98	98	1
102	103	6
45	45	20
163	163	11
147	147	16
15	15	38
55	56	5
165	165	18
161	162	5
79	79	17
14	33	1
149	149	22
53	53	6
3	4	26
77	78	5
32	32	32
18	18	24
35	35	11
77	82	4
118	119	6
10	11	21
120	120	17
74	74	12
62	63	5
4	8	7
17	17	16
148	149	6
139	139	18
109	109	17
78	78	14
158	163	2
18	19	21
10	16	8
158	158	11
65	65	15
87	109	2
73	73	23
114	114	9
147	148	7
62	62	8
8	19	3
36	36	25
151	151	10
1	8	6
60	61	11
105	117	7
25	25	34
17	18	6
130	135	4
58	59	3
13	14	10
7	8	13
150	150	12
169	169	24
85	85	20
26	27	21
32	33	8
104	117	3
22	22	28
106	106	7
99	99	19
34	34	29
1	1	16
138	138	13
73	74	4
133	133	12
31	31	28
90	90	40
89	129	1
137	137	22
29	30	11
109	113	1
122	125	2
10	10	22
92	92	10
129	157	4
63	64	13
12	12	22
56	56	12
24	24	25
38	38	25
56	59	2
26	26	25
37	37	35
101	101	26
154	155	5
103	104	2
1	2	2
168	169	6
150	151	11
135	152	4
76	76	15
5	11	2
38	42	5
24	25	12
12	29	1
124	125	5
148	148	16
41	41	38
83	84	13
43	44	8
105	106	7
139	140	5
54	54	6
156	157	10
16	18	3
84	84	14
170	170	16
78	79	6
142	142	18
66	67	5
155	174	2
98	100	3
146	150	6
3	7	10
110	111	16
20	21	9
123	124	12
135	153	3
33	33	20
3	62	6
97	97	16
96	97	15
27	27	13
21	22	3
176	176	29
0	14	2
91	91	13
141	141	15
12	45	2
89	89	9
112	127	3
171	171	15
121	122	8
36	37	5
16	16	23
8	21	5
127	165	3
124	124	8
42	42	16
2	2	18
23	23	28
153	154	4
4	4	27
13	13	36
102	104	2
108	109	2
21	21	15
170	178	3
84	85	10
167	167	19
5	62	3
22	30	5
26	29	2
39	39	22
118	118	10
76	77	5
28	28	16
13	29	4
96	96	21
121	121	15
39	40	22
83	85	1
164	165	6
44	45	8
129	129	22
5	10	2
20	31	1
11	14	3
5	5	32
91	96	2
106	126	2
7	7	35
166	167	7
37	132	3
60	63	2
159	163	9
63	66	3
156	156	17
115	115	10
99	115	5
175	177	2
136	136	10
7	9	7
42	45	7
15	23	5
154	154	11
4	6	2
30	31	15
135	135	19
45	50	1
28	29	19
162	162	9
88	88	13
85	91	4
38	39	4
132	132	20
159	159	8
9	73	3
161	161	20
121	124	2
17	32	2
3	5	6
72	72	21
90	91	8
81	82	4
13	15	2
145	145	12
19	25	5
12	14	9
70	71	4
165	168	7
22	28	1
3	3	39
154	171	3
41	43	2
0	0	19
80	135	2
10	73	2
132	153	4
158	159	3
140	172	2
173	173	9
65	166	1
140	140	15
40	43	4
12	13	18
110	110	13
140	178	5
19	22	3
123	123	9
35	36	7
2	8	6
175	175	7
107	108	10
94	94	7
68	84	2
54	56	6
61	63	3
55	55	5
143	143	7
43	43	14
105	105	9
146	168	2
108	108	11
19	19	11
88	90	6
150	157	2
63	63	4
79	135	5
113	114	16
140	169	4
9	10	18
22	23	9
119	120	7
5	7	12
108	123	6
60	134	5
84	107	2
151	152	1
4	41	2
95	95	15
111	111	10
179	180	6
86	86	11
91	93	4
130	130	10
51	51	7
0	1	11
2	3	18
120	166	3
106	108	6
50	50	14
90	92	7
167	169	2
23	26	5
159	161	4
157	169	3
31	32	2
134	136	7
37	40	4
5	13	1
77	77	15
23	44	2
127	128	5
54	55	5
80	124	1
11	12	10
4	7	6
56	58	8
136	137	3
7	12	1
21	38	4
156	158	4
120	162	3
58	58	2
15	21	4
40	41	11
157	157	16
8	8	32
112	112	6
79	80	7
119	121	5
132	133	3
178	178	3
5	17	3
53	54	3
6	13	2
8	11	3
172	172	7
52	52	12
155	161	6
103	103	13
41	42	9
160	160	8
25	30	4
63	65	5
164	168	1
4	15	2
116	117	5
140	177	4
99	110	3
136	157	6
42	43	12
87	87	11
115	131	1
163	165	2
174	174	15
21	23	2
107	109	2
57	60	4
4	9	5
99	102	6
53	122	3
89	113	5
162	164	3
4	5	3
14	32	2
6	73	1
90	107	2
59	59	9
5	19	4
91	101	3
114	115	6
137	151	2
14	134	4
103	106	5
125	125	12
29	29	11
158	164	4
157	158	5
92	93	6
6	7	6
42	44	7
118	120	3
138	139	5
10	18	3
34	36	4
64	81	3
36	79	1
26	28	5
4	10	2
65	67	1
159	162	2
101	102	5
177	177	6
10	14	3
31	35	1
6	12	2
133	134	5
67	68	3
56	57	2
144	145	7
13	21	3
25	26	9
60	60	14
95	96	12
101	111	1
134	134	21
133	136	4
16	25	2
93	93	5
67	67	6
127	127	10
83	118	1
75	75	5
126	152	2
104	105	12
100	100	5
31	33	1
14	16	2
33	35	5
164	164	4
24	29	3
34	35	15
7	33	2
103	127	4
77	106	1
146	162	3
46	46	5
141	142	2
1	7	7
106	107	6
37	38	4
78	82	6
39	43	3
135	136	5
146	146	20
24	26	3
3	9	9
96	99	2
180	180	12
2	9	10
113	113	7
155	156	8
80	80	5
148	168	2
95	114	3
8	9	8
16	22	2
19	21	4
17	45	5
104	104	8
94	95	1
128	128	6
86	108	2
153	153	12
14	27	3
89	90	1
159	167	1
45	131	3
64	66	2
115	119	2
6	8	3
6	44	4
73	75	1
176	179	2
151	154	2
112	114	6
166	166	6
172	175	1
1	67	3
1	68	4
103	105	5
18	31	3
52	53	13
144	144	8
61	62	5
86	87	4
94	102	2
19	43	1
8	13	1
177	180	2
61	61	7
36	42	3
10	15	4
23	32	1
147	153	3
150	156	1
66	149	1
111	121	3
8	17	2
126	128	2
77	95	4
43	60	2
5	84	3
129	130	3
50	51	2
125	127	2
98	99	3
30	129	4
173	174	1
179	179	8
114	116	3
13	16	1
45	46	1
155	158	2
95	101	2
67	72	7
91	92	2
57	57	5
64	64	7
130	131	4
145	146	7
102	102	12
126	126	6
160	161	3
27	32	3
149	150	4
93	94	6
109	111	2
21	24	1
113	127	4
51	66	1
41	45	1
83	86	2
133	139	3
119	127	1
152	152	13
35	45	2
129	145	2
5	12	2
131	131	8
88	89	6
107	110	3
134	137	1
128	154	4
129	144	1
25	33	1
104	116	5
117	128	3
163	164	3
20	50	3
147	166	1
16	17	7
80	81	1
71	119	1
2	67	4
23	25	3
70	70	4
5	9	2
86	102	1
123	125	3
68	68	2
25	27	2
2	10	1
11	15	5
11	17	1
51	52	3
66	73	5
6	14	5
26	30	2
57	58	3
65	152	2
49	49	1
105	163	2
26	31	4
20	49	2
146	160	3
28	30	5
125	126	3
153	166	1
92	95	2
157	159	3
131	132	2
107	107	3
139	143	3
11	25	1
14	15	4
142	143	2
21	32	1
142	149	1
11	16	1
7	11	1
100	112	2
1	40	3
17	19	3
152	154	4
148	153	2
19	41	3
94	135	2
33	34	3
1	5	5
71	72	2
165	166	8
85	89	2
78	137	2
74	75	1
0	3	3
105	114	2
62	71	3
167	170	1
81	117	7
106	115	2
78	80	1
24	27	3
19	30	3
9	19	1
3	8	4
85	87	2
8	16	1
32	35	4
66	66	6
141	149	1
157	166	4
178	179	1
28	37	2
65	66	3
63	73	4
65	150	1
28	31	2
9	11	3
9	15	2
122	122	5
87	98	4
62	66	1
29	129	1
165	174	1
3	12	1
118	123	2
38	132	2
6	130	1
16	32	1
75	76	1
11	22	2
56	60	1
104	106	2
139	141	1
136	154	2
4	19	2
162	163	1
21	44	2
21	29	2
120	121	2
75	77	2
94	96	1
115	116	2
38	58	1
38	136	2
24	31	2
137	138	2
2	66	2
0	32	1
131	134	1
150	155	1
119	119	3
143	144	2
6	16	2
126	164	3
131	142	2
35	43	2
86	89	1
65	73	2
13	26	1
140	171	1
111	112	2
6	9	1
166	168	1
66	139	1
108	112	3
160	162	1
91	129	1
167	168	1
171	172	1
159	160	3
156	170	2
156	174	2
76	79	1
36	38	1
21	43	1
117	120	1
85	101	2
41	75	1
155	157	1
146	156	2
5	14	1
36	152	2
106	112	2
147	151	2
129	136	3
10	28	3
23	24	3
178	180	2
5	45	1
92	130	1
130	132	1
2	15	1
43	177	1
10	12	1
157	167	1
161	164	1
13	42	2
64	74	1
44	54	1
4	12	1
45	49	1
124	126	1
34	41	1
56	61	1
27	30	1
108	113	1
23	33	1
84	102	1
6	18	1
99	116	1
14	29	1
143	145	1
154	167	1
27	28	1
9	12	1
16	34	1
122	141	1
71	76	1
139	142	1
43	45	2
1	32	1
20	22	1
16	20	2
12	18	2
30	33	1
134	135	1
8	33	1
100	114	2
87	108	1
103	107	1
53	60	1
140	141	1
5	8	1
7	21	1
106	109	1
2	16	1
158	169	1
5	15	1
14	17	1
33	37	1
20	23	1
152	153	1
11	13	1
1	14	1
8	32	1
19	32	1
24	28	1
16	19	1
29	32	1
74	90	1
