74	75	7
76	76	8
79	79	4
40	40	6
96	96	11
39	39	4
26	26	8
27	46	2
92	93	1
33	33	6
46	46	9
105	105	10
22	22	2
113	113	12
99	103	2
81	81	8
69	70	1
19	54	3
91	91	4
101	101	2
89	89	4
61	61	6
88	106	2
100	101	4
100	100	2
46	49	6
88	88	7
83	108	2
66	77	1
50	104	3
64	69	5
67	67	5
110	110	7
24	27	1
72	83	4
54	68	3
58	72	2
31	31	6
72	72	6
93	93	4
31	32	7
53	53	2
97	97	11
93	94	1
54	54	4
77	77	7
19	19	2
38	39	9
114	114	1
37	39	4
37	38	4
30	30	2
80	80	9
75	76	3
84	95	3
46	48	4
102	102	7
41	49	4
41	41	6
28	28	6
111	111	7
89	91	3
90	90	6
47	47	16
38	38	9
87	113	2
36	36	9
61	71	3
68	68	3
33	73	3
42	44	3
52	52	6
24	24	4
42	42	3
57	57	1
78	79	1
61	108	6
57	58	2
99	99	4
54	56	1
54	92	1
87	100	1
45	45	7
78	78	2
101	102	6
21	21	3
37	48	3
104	107	5
108	108	5
32	75	6
85	92	2
71	93	3
29	30	3
82	82	6
66	67	3
33	37	3
85	86	9
29	31	2
96	97	7
56	84	4
54	58	2
62	63	3
77	79	3
64	101	1
95	96	1
71	71	1
47	48	4
85	85	4
50	50	3
103	103	12
62	104	2
20	20	7
49	49	2
31	75	2
56	56	2
88	90	2
55	94	1
82	83	4
51	61	2
22	25	1
98	98	6
105	106	4
110	111	1
86	86	6
97	98	1
34	35	1
28	29	2
44	112	1
49	110	1
26	27	4
70	70	7
73	74	4
103	104	1
51	73	1
98	99	1
44	45	1
44	101	1
24	25	1
32	50	2
35	48	1
59	79	4
64	65	2
59	61	2
37	37	4
81	106	1
36	75	3
59	59	4
92	110	1
55	59	2
87	99	1
44	44	2
27	30	2
83	84	1
63	63	1
39	109	2
84	84	5
74	74	2
53	76	1
55	93	1
32	76	1
62	69	1
59	71	1
107	107	10
27	34	1
83	83	1
34	110	2
59	78	2
55	64	1
58	73	1
65	103	2
95	97	1
49	84	2
112	113	1
51	72	1
27	27	6
86	111	2
90	91	3
64	67	1
53	73	1
94	94	3
66	66	2
86	100	1
19	26	2
85	103	2
53	54	3
92	92	1
46	111	1
41	48	1
112	112	1
85	96	1
36	39	1
62	62	1
72	84	2
28	31	3
85	111	1
61	80	2
85	110	1
58	78	2
21	48	2
20	31	3
69	69	1
90	106	1
61	62	2
73	93	1
57	59	1
95	95	1
83	85	1
82	86	3
56	107	1
55	63	1
43	43	1
42	45	2
109	109	1
82	88	1
48	48	1
62	103	1
29	29	1
78	95	1
104	106	1
23	23	3
38	77	1
75	75	1
89	106	1
104	104	2
23	24	2
61	109	1
96	98	1
74	76	1
