28	28	22
112	112	24
159	159	14
35	38	1
4	30	10
151	151	24
135	136	4
22	25	5
142	142	27
5	6	12
119	119	11
50	55	1
102	102	12
16	16	16
154	154	20
160	160	20
156	156	26
60	60	11
171	188	6
179	181	4
17	17	16
99	100	6
26	26	11
116	117	7
68	68	12
33	34	12
187	187	18
2	2	12
143	143	12
25	130	3
74	74	14
25	25	14
117	118	3
146	146	10
139	139	14
127	128	12
15	15	16
158	158	18
110	110	19
195	195	16
146	147	7
70	79	2
53	141	5
33	33	13
58	58	27
121	141	3
66	85	1
173	182	4
194	194	15
167	167	19
106	106	15
96	111	2
24	128	3
107	107	9
34	39	3
130	154	2
28	29	28
175	175	12
10	10	23
0	0	9
11	11	19
71	80	4
6	6	7
4	5	2
141	170	2
138	138	17
103	111	1
53	183	2
96	96	13
56	56	18
124	125	6
137	137	12
61	61	13
131	131	21
147	147	22
149	149	20
4	4	17
165	165	18
117	117	16
59	72	5
196	197	14
109	125	1
135	138	1
115	115	24
197	197	7
187	188	11
34	35	19
179	179	20
54	55	15
7	8	4
173	175	7
140	140	28
184	184	25
136	136	14
102	103	7
53	53	10
161	181	1
78	78	4
153	154	14
130	146	1
113	114	3
22	22	11
43	45	8
112	120	5
196	196	37
173	173	19
44	55	5
177	177	18
104	104	28
31	54	2
123	159	1
72	72	14
180	180	16
188	189	6
32	46	2
43	94	3
14	14	25
169	175	7
183	190	4
84	84	9
83	84	4
20	20	10
176	176	18
90	90	6
116	116	26
76	76	16
113	113	31
179	180	10
54	54	11
69	69	17
17	32	2
39	59	5
142	188	2
34	34	10
27	27	18
30	30	18
152	152	31
25	26	17
195	196	10
135	135	22
163	163	7
37	37	12
40	40	20
94	94	20
3	3	17
103	104	3
132	132	8
166	166	21
7	7	9
21	21	10
93	153	1
118	124	3
36	62	1
181	182	8
133	133	9
77	86	2
9	9	19
165	169	1
180	183	1
158	159	9
161	164	4
17	25	7
38	40	1
138	164	4
4	32	4
3	41	5
34	36	3
153	153	15
10	11	7
46	47	6
5	5	13
146	148	4
112	123	1
57	57	13
45	46	6
132	191	3
70	70	7
35	36	7
163	166	1
53	55	8
45	69	1
39	41	5
192	192	21
157	158	16
106	107	6
165	192	4
188	188	21
172	172	11
36	36	31
5	166	8
93	93	5
123	123	17
16	17	3
9	149	3
21	22	6
5	165	4
95	96	8
114	115	2
6	28	3
128	128	15
30	31	8
78	89	7
126	188	2
98	113	2
110	111	7
121	122	1
149	151	3
160	183	2
169	170	6
85	85	9
26	28	8
189	189	12
128	129	6
101	102	6
119	175	1
31	31	27
190	190	13
4	6	1
63	63	15
101	115	2
81	82	5
141	141	21
42	42	10
141	144	3
66	66	8
185	186	8
101	101	13
1	1	17
125	125	11
24	24	19
65	66	4
167	170	2
71	78	3
44	58	1
129	129	13
167	169	9
94	95	7
81	84	4
11	129	2
56	72	5
105	106	9
87	87	6
130	139	4
10	51	2
72	73	1
77	78	3
14	19	2
154	155	4
155	155	28
115	176	3
89	90	3
118	118	22
164	164	14
145	154	1
145	146	7
193	193	25
80	80	14
79	79	4
51	51	12
5	8	2
120	120	19
192	193	6
108	108	12
13	13	12
157	159	3
191	192	10
153	163	3
12	12	14
129	131	2
23	23	14
46	46	20
32	33	8
44	44	6
89	89	7
148	148	14
145	145	18
6	20	1
185	185	27
136	146	1
58	59	7
38	39	2
182	182	18
159	167	2
157	175	6
55	55	18
3	4	8
48	48	7
151	152	10
156	158	7
2	3	4
124	124	11
24	32	5
39	39	15
45	45	14
161	161	18
152	162	4
0	20	2
12	13	2
115	116	4
88	88	14
19	25	2
175	176	10
107	108	5
12	52	3
41	44	6
181	181	16
191	191	17
35	35	20
99	99	11
54	56	3
81	81	6
59	59	12
176	178	5
116	118	6
162	162	12
134	134	15
77	77	6
60	68	4
178	180	3
18	18	5
168	168	22
150	150	18
123	124	4
115	147	5
168	192	2
56	57	5
176	190	4
165	166	6
180	181	8
128	170	2
120	179	1
80	81	5
36	67	4
52	53	4
175	190	3
125	126	6
168	179	1
186	186	18
160	166	2
44	56	4
169	180	5
164	181	4
118	168	2
139	157	6
22	29	3
14	18	2
65	73	2
0	1	4
65	65	12
36	37	3
163	165	4
114	186	1
41	58	4
95	95	14
38	38	16
103	103	7
143	161	1
53	56	5
99	115	6
3	166	2
184	190	2
128	151	3
174	175	2
162	163	1
163	164	7
178	178	21
15	16	4
114	147	1
43	43	7
155	156	2
103	109	8
73	73	12
4	171	1
41	71	1
188	191	6
18	130	3
147	161	13
193	194	4
50	51	4
121	121	13
12	14	3
24	25	3
76	77	11
122	125	3
141	148	1
175	181	4
37	57	1
114	114	10
1	2	9
140	157	2
40	41	5
172	173	2
112	113	3
28	31	2
115	119	4
58	72	4
142	145	2
171	172	7
105	105	7
26	30	4
153	159	1
183	183	10
88	90	7
136	160	3
164	182	3
126	189	3
177	178	7
150	151	6
36	63	1
67	78	6
118	119	4
36	41	1
18	35	2
33	35	9
57	64	4
63	78	1
97	115	5
29	30	6
43	71	2
169	169	12
130	130	15
49	49	6
170	170	14
82	82	4
144	145	5
100	101	3
182	183	7
32	32	9
144	147	5
40	71	1
117	148	1
67	86	5
144	161	2
166	168	2
126	126	16
49	50	2
134	135	8
150	153	7
118	123	3
52	52	11
179	182	5
19	19	12
157	173	2
73	74	2
138	139	5
109	111	7
157	157	16
174	174	18
127	127	13
147	149	7
183	192	2
120	141	9
108	124	4
104	105	2
41	42	2
117	143	1
118	156	3
42	123	3
126	127	9
145	150	4
55	56	5
134	144	6
141	174	6
177	179	3
3	8	3
112	139	3
142	193	2
189	190	3
41	43	2
137	138	5
111	112	1
178	179	2
139	188	2
125	152	3
134	137	4
141	142	4
102	111	2
83	83	12
62	62	8
167	168	4
173	174	4
161	167	4
152	163	2
161	163	6
59	62	2
156	194	2
23	44	1
20	26	2
87	88	3
158	160	4
144	144	4
176	177	13
131	190	1
86	86	11
161	193	1
160	164	3
174	183	2
0	66	4
135	137	5
9	10	6
9	15	3
43	123	1
170	171	5
50	50	20
7	22	3
6	8	5
47	47	13
143	144	2
4	191	1
34	68	2
171	192	6
59	64	6
82	83	4
108	110	2
37	69	2
71	79	2
64	64	13
101	103	3
122	141	2
52	195	3
37	55	2
131	179	1
27	28	11
71	72	4
45	47	2
9	115	1
139	164	2
82	86	1
113	186	1
156	157	2
53	182	2
161	179	1
59	66	4
100	100	20
150	152	2
98	98	8
145	194	1
131	133	5
24	127	3
147	160	2
22	32	1
16	24	3
175	177	2
84	85	1
171	171	5
53	54	6
0	3	1
151	153	4
72	95	1
120	171	1
87	90	1
37	56	1
50	56	1
36	40	2
44	45	3
140	143	8
8	8	12
31	32	6
159	174	1
145	178	3
109	109	10
164	175	4
47	52	2
56	80	2
94	111	3
1	31	3
170	172	1
30	166	2
123	140	2
143	148	2
67	67	7
79	93	2
141	169	2
40	58	4
71	71	6
174	190	3
2	54	3
0	19	4
79	80	4
29	31	6
9	167	2
168	169	9
121	172	2
75	75	4
101	114	3
123	139	1
147	148	10
60	61	4
114	175	3
62	63	1
140	163	5
165	174	1
15	17	2
20	30	4
26	27	7
109	133	4
119	181	3
18	38	1
149	153	2
127	149	1
119	142	3
38	63	2
124	126	3
164	166	1
111	133	2
6	7	6
47	127	1
70	78	2
67	68	8
57	58	3
160	161	2
48	51	2
121	149	4
146	158	2
120	121	2
152	164	1
186	195	2
146	186	2
184	185	1
159	176	2
110	112	2
171	184	2
56	68	3
70	94	1
13	14	6
131	132	6
18	19	5
172	174	10
118	138	1
167	176	3
127	150	1
0	2	3
98	100	1
11	16	1
174	176	1
111	111	3
60	62	3
142	143	2
8	190	1
173	178	1
51	78	4
39	45	1
41	62	1
68	69	2
61	62	3
137	146	1
140	141	2
36	38	2
8	11	2
156	159	5
9	12	1
42	183	2
33	36	2
70	71	6
152	154	1
64	68	1
141	156	1
43	44	1
143	159	2
124	158	2
23	24	8
61	74	2
4	8	1
133	139	6
47	51	1
88	89	1
8	19	3
21	59	1
161	171	3
45	52	1
122	123	5
171	178	3
147	177	2
9	141	3
29	29	4
115	118	1
44	62	3
33	56	1
16	30	1
34	56	2
113	193	3
175	180	3
149	150	2
65	71	2
18	26	2
62	66	2
138	188	2
41	41	3
164	165	1
161	162	4
47	56	1
9	187	2
24	47	1
7	27	2
93	108	3
124	151	1
82	172	1
86	89	1
130	147	2
168	173	1
112	138	2
63	79	1
80	90	2
185	195	1
186	196	2
148	149	1
19	20	1
50	186	3
133	138	1
44	59	2
86	87	2
189	191	1
20	22	3
143	145	2
175	179	1
7	165	2
20	21	1
131	145	2
38	66	2
137	140	1
123	157	1
23	25	1
136	137	2
188	193	1
48	50	1
168	174	4
37	54	2
10	156	3
161	166	2
119	147	3
132	133	2
79	89	1
103	112	4
10	16	2
155	158	2
134	139	2
162	170	1
145	160	1
3	29	2
4	7	1
97	97	5
146	163	1
81	85	1
156	167	2
121	178	1
96	121	1
38	61	1
32	40	1
45	57	1
182	190	2
86	88	2
64	78	2
188	192	1
112	193	1
7	60	1
121	143	2
160	172	1
130	190	3
129	151	2
58	144	2
124	171	1
102	107	2
125	157	1
101	185	1
129	179	1
118	125	1
14	56	1
10	36	1
34	64	2
67	88	1
129	150	2
12	47	2
153	155	1
167	171	1
136	138	1
160	163	2
109	110	1
145	147	3
42	70	1
28	30	3
21	25	1
111	113	3
136	139	1
30	32	1
166	167	1
106	185	1
0	166	1
11	15	2
6	10	1
158	176	1
79	81	2
78	79	2
35	56	2
17	18	1
141	143	2
9	188	1
183	188	1
56	116	1
155	179	1
150	163	3
102	146	1
51	55	1
9	11	1
186	191	1
16	18	1
171	182	2
129	188	1
134	162	2
171	191	1
125	171	1
59	61	2
74	75	1
122	127	1
66	68	1
105	160	1
130	157	2
9	36	1
160	167	1
4	9	2
131	178	1
140	191	1
135	176	1
18	39	1
8	164	1
44	70	1
151	155	2
75	76	2
19	24	1
146	152	1
125	187	1
47	128	1
122	122	1
40	42	1
173	176	1
34	61	1
64	66	1
65	70	1
15	43	1
102	112	1
43	46	1
165	191	1
19	21	1
145	158	1
94	96	1
125	186	1
11	155	1
130	131	1
118	180	1
