123	132	1
71	71	2
74	74	4
106	106	2
7	8	3
41	41	1
125	126	2
81	82	4
107	107	3
102	102	5
111	111	4
6	6	10
33	33	12
3	12	6
82	96	2
109	109	1
126	128	5
70	70	5
47	85	3
88	92	3
90	93	5
67	67	12
119	119	9
76	77	3
93	93	5
101	101	7
19	19	3
83	83	9
17	17	8
3	3	5
128	128	8
103	104	1
15	23	3
66	66	12
75	75	14
29	29	8
113	113	6
134	134	2
97	101	3
63	63	12
96	97	4
16	16	11
10	26	2
78	78	3
46	64	6
27	27	10
57	58	5
64	64	17
2	2	1
26	27	2
116	116	1
88	93	3
24	24	6
98	98	2
73	73	19
17	19	2
24	25	4
10	10	13
87	87	6
121	122	2
82	83	8
4	4	4
36	36	2
8	10	1
28	28	10
28	29	2
125	125	3
78	80	1
72	72	7
46	46	7
49	49	12
133	133	6
14	14	6
86	86	4
32	32	8
118	118	3
11	11	6
84	90	4
95	95	9
0	0	6
31	31	4
117	117	5
50	50	2
42	43	1
126	126	5
111	112	3
133	134	2
62	63	5
3	98	6
9	46	2
21	82	2
93	94	5
19	20	10
61	61	10
34	34	7
47	47	10
84	84	3
98	100	3
76	76	8
15	15	6
110	110	7
27	79	1
130	130	9
28	79	5
7	7	5
127	127	6
123	124	3
26	26	6
8	13	3
109	116	3
68	68	1
35	35	8
3	4	2
65	65	12
23	23	5
25	26	3
17	30	2
94	95	4
42	85	2
64	66	1
105	105	9
56	57	7
69	70	5
112	116	2
45	45	8
114	114	3
83	86	1
77	78	2
44	45	4
76	78	3
97	97	3
31	32	4
131	131	1
29	30	1
19	31	7
18	18	3
60	60	10
1	1	4
108	108	2
90	91	1
69	69	2
59	59	3
72	73	3
39	39	4
20	40	3
116	117	2
37	37	2
32	35	3
16	48	5
42	42	1
57	57	3
5	7	1
40	40	2
130	131	1
12	12	4
68	69	6
79	85	1
7	10	1
80	80	2
48	92	2
8	77	3
62	68	2
90	90	3
117	118	6
5	5	3
57	82	1
34	93	1
65	69	2
58	58	2
64	65	2
46	61	1
4	6	1
96	96	4
79	79	12
86	87	2
46	47	3
9	10	1
22	22	1
43	43	8
9	9	9
101	102	2
8	32	1
48	48	8
17	36	2
77	77	3
109	130	1
110	129	1
78	79	3
112	112	2
25	25	2
32	33	2
31	33	5
33	122	1
31	81	1
3	10	1
129	129	1
75	76	5
10	45	1
4	5	1
62	62	3
46	71	1
27	94	3
27	93	2
73	74	1
18	19	1
46	63	1
47	48	1
12	13	3
45	46	3
113	114	1
100	100	2
92	92	1
122	122	1
36	37	2
29	49	1
2	12	1
110	116	1
6	7	4
8	8	1
27	28	3
91	91	1
128	132	1
80	81	1
20	20	2
37	39	1
87	88	2
117	119	2
127	132	2
21	60	1
30	30	1
123	123	1
12	94	1
8	27	1
41	42	1
26	29	1
58	59	2
115	115	1
79	80	1
110	134	1
46	77	1
75	82	1
106	107	1
34	35	1
25	48	1
112	122	2
11	44	1
16	42	1
62	72	1
81	98	1
75	83	1
21	28	1
