102	103	3
21	103	1
145	147	3
30	31	3
154	154	9
70	70	17
98	99	6
139	144	3
48	50	4
40	44	4
74	74	9
120	120	2
27	27	9
6	8	2
107	108	3
8	23	5
56	57	7
53	54	3
48	48	7
22	23	11
140	140	7
58	120	1
24	38	7
132	132	14
109	109	6
76	79	9
81	82	9
56	56	5
92	92	8
127	146	7
144	144	9
111	111	9
110	110	15
10	11	10
57	68	1
98	98	16
8	9	5
121	121	12
73	102	6
9	37	10
15	15	11
54	54	11
14	14	12
55	55	15
144	149	2
17	37	2
87	88	8
71	71	20
78	78	19
20	20	20
109	112	1
145	149	1
142	143	2
11	19	3
103	104	12
114	135	7
32	32	6
130	149	4
90	90	2
63	64	7
39	39	15
48	115	4
4	4	26
45	45	24
34	38	3
127	128	5
97	99	2
100	137	3
62	63	13
93	93	14
49	68	3
23	40	1
75	122	1
88	102	1
87	87	7
18	18	12
43	43	14
130	131	3
64	64	8
94	94	10
134	145	1
152	152	3
32	34	2
39	41	2
67	68	9
28	29	2
81	83	6
142	142	6
36	36	29
21	41	2
124	125	3
35	36	12
40	40	27
2	3	1
146	146	30
139	142	3
51	51	10
11	11	10
44	44	25
16	16	5
83	83	15
82	84	2
86	86	18
85	88	5
127	127	6
115	116	5
21	22	10
66	66	17
107	107	16
19	29	3
104	104	13
37	37	8
67	69	3
31	32	3
57	57	7
63	63	8
110	114	1
76	77	2
39	40	18
87	125	7
119	119	8
41	42	6
27	28	7
108	108	22
14	25	4
47	52	1
38	38	10
15	17	10
69	69	7
78	81	3
10	10	14
29	29	19
150	151	5
102	102	11
113	113	8
106	106	7
17	25	2
20	21	24
126	126	6
111	116	1
4	7	6
73	74	4
26	26	6
148	148	6
141	141	6
119	134	3
88	88	11
68	68	15
149	149	14
46	47	3
25	25	12
143	143	9
99	99	17
27	29	5
46	46	18
82	83	6
26	37	4
6	30	3
42	42	3
124	124	20
43	44	5
73	73	21
15	18	3
82	82	9
65	65	11
112	113	4
106	107	2
76	76	12
139	139	7
55	132	3
92	147	4
118	118	16
74	78	1
92	93	2
41	41	14
15	19	3
9	132	3
105	105	11
15	39	3
153	153	12
147	147	10
8	54	4
46	53	2
9	9	15
28	28	8
136	137	2
72	104	1
31	63	6
83	84	4
53	55	2
40	54	2
72	85	6
95	96	4
112	116	1
112	112	8
114	114	9
145	146	8
94	97	6
38	39	7
68	69	7
19	23	1
93	94	5
133	134	2
31	31	21
12	12	7
53	53	16
123	127	3
87	98	3
17	17	24
78	122	8
7	7	17
143	144	4
134	134	9
137	138	9
121	134	2
24	31	5
111	114	5
116	116	4
30	30	9
34	55	3
34	34	9
21	21	11
105	118	6
109	111	6
106	116	1
78	123	4
91	92	4
78	121	3
49	49	19
129	130	3
38	66	1
72	72	8
123	131	3
44	45	1
117	117	9
103	103	6
74	122	2
79	80	3
123	125	4
138	138	10
17	23	2
97	97	9
26	50	3
37	51	2
96	96	11
19	19	12
95	95	16
6	6	4
84	95	3
55	70	3
33	33	7
91	114	2
58	121	2
13	13	10
74	120	2
133	133	15
50	50	13
4	6	4
119	120	2
68	134	3
34	35	9
77	154	2
32	33	5
46	49	6
24	66	2
72	73	7
137	137	11
58	68	8
119	133	2
128	148	2
151	152	1
3	3	1
63	65	3
131	131	6
144	146	1
4	134	2
73	77	2
84	84	3
12	134	1
32	37	2
85	85	11
8	8	3
17	20	2
56	132	1
14	15	2
129	129	4
145	145	8
91	108	5
46	114	2
151	151	6
35	37	4
97	98	5
23	23	3
92	114	2
124	133	3
76	80	2
80	81	4
50	51	2
120	121	10
81	81	8
49	56	3
122	122	7
22	22	5
18	30	4
108	109	6
71	87	5
43	111	3
104	118	4
99	101	2
44	105	2
80	80	6
24	24	7
103	118	3
18	19	1
21	40	1
114	119	3
56	70	3
32	36	3
109	110	3
54	56	2
47	48	3
43	45	4
35	35	10
85	128	1
33	36	3
130	130	4
21	24	3
127	130	2
74	75	9
78	80	4
8	28	3
47	47	9
135	135	6
79	107	5
109	114	3
5	5	13
56	115	3
117	118	7
150	150	11
79	79	6
128	129	3
145	148	1
8	29	1
131	132	4
146	147	3
76	82	3
80	85	4
103	106	1
105	106	4
20	53	1
93	98	3
9	19	3
63	67	5
136	136	8
29	30	1
8	10	4
79	102	1
144	145	2
36	37	1
100	100	4
101	102	1
11	12	6
62	62	3
4	5	6
19	22	6
26	27	6
65	66	5
26	29	5
16	17	3
94	137	3
30	38	2
140	144	4
45	46	4
47	53	3
91	91	1
64	65	2
9	27	1
99	138	1
64	67	3
73	80	1
75	75	4
34	49	5
111	115	3
85	86	4
123	123	5
82	101	2
19	30	4
143	148	4
101	101	8
69	84	1
62	65	2
94	95	8
115	117	6
57	58	2
42	43	1
3	8	1
79	86	1
116	117	4
66	67	2
5	6	2
141	142	2
89	108	2
92	142	1
140	142	2
17	18	2
102	107	3
56	134	3
9	131	3
82	102	1
143	146	1
126	128	3
33	35	1
147	148	2
24	40	1
7	57	4
84	86	2
77	77	12
48	49	1
87	93	1
56	63	1
48	57	2
20	115	2
71	130	2
77	87	2
29	32	2
125	131	2
112	117	2
113	114	1
72	94	1
72	106	1
15	16	2
16	24	2
152	154	2
88	93	1
67	67	8
46	48	2
47	54	1
74	110	2
26	36	2
32	48	3
33	34	1
113	118	4
29	146	1
43	118	2
97	100	4
128	141	1
25	27	2
7	9	4
40	53	2
90	107	1
34	37	1
110	135	1
33	37	1
125	132	1
115	115	1
100	140	2
85	127	4
73	109	1
75	79	4
115	135	2
129	154	1
140	143	1
62	66	2
100	101	3
103	112	1
83	86	1
23	24	2
123	126	1
50	55	1
57	63	1
4	10	1
126	127	1
71	73	2
8	132	2
8	30	1
48	141	1
86	87	1
38	40	3
75	76	1
94	108	2
112	114	1
106	113	1
31	54	1
10	26	2
10	12	1
152	153	1
41	47	2
143	147	1
95	98	1
90	91	1
146	148	1
25	42	3
13	67	1
126	131	1
125	125	1
137	143	1
119	121	2
32	38	1
37	38	1
57	65	1
61	62	1
106	135	1
104	105	1
12	66	1
124	145	1
55	56	1
80	84	1
122	124	1
57	134	1
64	69	1
76	84	1
54	55	2
48	74	1
8	11	1
77	78	1
61	64	1
143	145	1
4	62	1
34	36	1
82	107	1
15	24	1
78	107	1
114	147	1
112	135	1
