80	80	5
34	98	3
106	106	7
66	66	4
57	57	2
53	53	11
111	111	6
55	55	16
86	87	3
91	92	12
3	4	3
52	52	13
69	93	4
119	119	5
129	130	1
47	47	9
117	118	2
56	57	7
97	104	3
74	74	9
10	12	5
93	102	5
0	2	8
6	6	2
86	86	6
4	4	5
3	73	1
114	114	4
14	21	2
38	41	1
61	62	4
70	70	5
75	75	3
34	66	3
120	120	14
115	115	4
59	59	2
44	76	1
118	118	7
48	89	3
109	109	2
11	11	6
125	127	3
79	85	5
101	101	3
88	89	3
103	103	6
64	114	1
0	96	2
68	68	6
122	122	9
15	21	2
0	1	2
45	45	2
7	30	1
117	117	1
132	132	12
103	126	1
60	60	2
79	81	3
17	17	2
102	102	4
29	30	7
39	40	2
33	110	4
17	21	4
80	81	5
98	98	3
78	79	4
26	26	2
97	97	3
71	71	13
1	97	3
92	93	3
115	116	3
34	97	1
58	111	1
67	67	4
112	112	3
23	24	1
44	45	2
99	99	3
18	18	6
72	72	5
123	123	7
43	44	7
67	70	3
114	117	4
89	89	4
17	43	2
131	131	7
94	94	2
120	121	2
58	58	1
28	29	1
40	41	4
6	89	5
132	133	1
56	56	9
98	101	2
44	55	4
64	64	5
27	33	5
25	25	7
125	132	2
129	129	1
101	107	2
69	69	1
64	65	4
46	46	6
22	22	7
38	39	3
54	93	2
21	27	3
100	103	4
27	27	8
118	130	1
85	85	6
93	93	3
102	112	4
118	119	2
16	16	14
71	72	4
11	59	1
65	66	2
62	63	2
96	125	1
24	24	3
14	14	7
12	121	5
0	0	4
11	13	2
127	127	4
66	109	1
33	34	1
90	91	1
102	103	5
49	49	5
98	103	6
65	65	3
83	84	4
50	50	16
115	120	1
67	129	2
49	57	8
124	124	2
7	7	5
110	112	4
131	132	1
105	122	1
34	34	2
15	16	2
87	88	4
133	133	2
41	41	4
27	67	2
127	128	1
117	119	1
114	131	3
33	65	3
3	3	3
114	115	1
114	127	2
52	81	2
84	84	1
1	1	2
25	26	1
128	128	1
39	111	1
5	23	1
60	62	2
67	68	1
95	95	1
37	44	2
104	105	3
77	110	1
110	110	6
48	48	10
23	25	1
98	132	2
69	76	5
26	32	1
116	116	3
20	20	1
104	104	9
9	9	5
83	83	6
70	74	1
75	78	1
98	110	2
80	104	3
108	108	3
77	78	1
8	9	5
101	102	1
48	87	1
66	67	2
124	125	2
53	54	1
101	111	1
22	31	1
128	129	2
102	108	2
87	87	2
109	116	1
12	12	4
25	27	1
46	47	6
59	111	1
27	29	2
18	22	1
125	133	1
70	104	1
71	105	3
63	99	2
4	28	2
88	91	1
43	45	2
92	104	2
23	23	2
2	2	4
72	73	7
51	53	3
100	100	2
18	39	1
96	96	2
88	88	3
15	15	4
52	80	2
11	12	2
58	59	3
5	5	2
60	80	2
65	69	1
32	32	2
13	14	4
68	69	1
73	73	2
51	52	1
90	90	3
78	108	1
19	29	1
31	31	1
4	7	1
123	124	1
64	99	1
0	118	3
60	61	2
30	31	2
43	43	1
42	42	4
42	44	3
16	32	4
51	51	5
15	24	1
19	19	2
69	71	3
40	40	2
30	30	1
28	28	1
22	28	1
79	79	4
73	74	2
78	78	1
92	92	1
84	85	1
74	130	2
72	74	1
39	39	1
118	129	1
61	61	3
74	85	1
41	42	2
21	21	3
121	133	1
38	40	2
77	77	3
130	130	1
49	54	1
121	121	1
68	70	1
116	133	2
76	76	1
93	94	1
65	115	1
70	99	2
19	21	1
61	116	1
105	105	1
73	128	1
69	86	1
117	121	1
28	33	2
107	107	1
63	97	1
125	125	1
8	8	1
29	31	1
47	66	2
82	83	1
9	10	2
33	33	2
33	67	1
24	26	1
76	77	1
126	126	1
