14	14	13
95	95	2
133	133	16
125	125	4
164	164	5
50	51	7
12	41	1
180	180	15
71	91	5
138	138	9
169	169	17
106	125	2
45	46	4
9	9	10
30	30	10
25	25	11
31	33	4
115	117	3
172	172	13
87	87	10
14	15	6
150	150	2
61	61	9
66	66	4
84	84	3
34	42	3
103	103	6
108	139	1
44	44	3
16	16	27
34	86	1
140	140	4
11	12	9
68	96	3
73	73	9
7	7	10
6	35	6
33	33	9
156	157	9
1	33	1
126	126	8
94	95	5
97	125	3
59	59	11
74	107	2
39	40	1
135	135	2
51	51	3
17	17	27
18	20	3
140	146	3
34	34	11
12	12	10
90	118	1
107	107	8
162	162	13
53	53	17
8	9	1
64	80	3
148	148	12
2	7	9
8	8	14
91	172	8
25	26	13
79	79	10
106	174	4
31	31	20
97	97	14
136	137	4
7	9	10
31	32	6
18	18	13
1	10	2
83	83	8
122	122	5
8	31	4
77	77	7
67	67	2
174	174	9
38	38	9
23	26	2
43	43	10
155	155	7
78	115	2
94	94	5
4	4	11
106	107	4
26	26	17
15	42	4
32	32	11
105	165	5
19	19	13
5	5	16
11	14	3
135	162	3
161	161	5
20	20	14
96	102	3
0	21	2
4	5	6
22	23	5
160	164	2
146	153	5
24	24	18
2	3	2
28	28	9
35	35	9
172	173	1
74	74	3
115	115	8
177	180	2
173	174	1
94	176	3
28	29	3
0	34	3
86	87	3
56	57	1
38	39	6
91	91	5
38	41	4
57	78	1
30	31	5
61	62	1
105	173	3
64	64	13
23	23	13
118	119	1
13	13	4
19	107	3
158	158	7
124	124	4
106	124	4
73	74	7
22	27	2
111	151	2
75	75	8
58	58	6
129	160	5
21	25	3
6	10	4
29	29	14
27	28	7
146	156	1
130	131	2
6	6	12
166	167	4
11	35	3
54	54	3
8	11	3
83	97	1
10	29	3
3	3	8
41	41	4
136	136	8
90	90	2
109	151	9
49	86	2
96	98	1
10	10	9
52	52	14
62	62	7
100	101	5
149	149	15
11	11	12
5	6	10
6	11	3
103	107	3
159	159	3
40	40	9
57	81	3
81	81	3
146	146	5
111	111	6
129	129	3
110	110	2
163	163	6
161	162	7
16	38	1
129	155	3
151	172	1
72	73	4
178	178	5
63	64	5
167	167	6
121	121	4
50	50	4
171	171	7
63	63	2
151	152	5
49	50	4
115	116	9
88	89	2
75	77	5
98	99	1
113	113	7
108	109	7
166	166	1
86	86	1
42	42	1
36	36	10
19	20	1
99	100	3
145	146	6
16	35	1
12	16	3
78	79	8
101	101	11
21	21	10
82	82	7
116	116	3
37	37	3
151	151	5
10	13	9
15	15	7
99	104	4
163	166	4
62	104	4
142	142	6
137	138	4
33	41	2
21	130	1
109	145	1
46	46	1
31	87	2
55	122	8
9	15	2
119	120	8
146	169	1
83	86	2
169	170	1
106	106	7
82	103	1
71	90	3
153	167	1
66	67	11
16	32	3
8	19	3
22	22	7
6	7	7
143	143	10
18	38	4
105	167	3
24	26	2
5	43	2
24	25	9
3	6	3
175	176	3
43	46	2
68	75	2
168	168	8
134	135	7
166	168	2
62	63	1
32	45	2
83	85	4
28	30	3
123	125	2
87	119	1
8	29	2
117	117	7
71	71	1
93	93	8
8	33	1
154	154	4
80	80	3
57	57	4
118	118	4
50	80	6
45	151	2
15	26	6
141	141	14
153	153	3
45	168	1
5	44	2
98	101	2
97	100	3
114	114	1
3	5	3
2	2	6
135	156	3
123	123	5
122	126	2
11	13	6
17	130	2
37	38	5
49	49	3
23	24	3
172	176	3
111	112	3
153	168	2
175	175	2
10	11	4
140	144	2
50	92	4
2	19	10
2	9	3
3	4	6
33	40	2
4	6	3
154	157	3
123	159	3
72	74	1
127	127	7
125	126	4
66	100	3
95	96	2
32	33	2
6	9	1
153	154	2
110	171	3
83	123	1
108	140	2
14	31	3
61	144	6
13	17	3
179	179	10
80	149	6
173	173	6
110	111	5
61	131	1
21	89	3
163	164	3
146	147	8
54	116	4
41	42	6
11	15	4
52	76	4
18	19	7
112	112	4
120	120	4
39	154	2
43	44	4
102	119	2
26	140	5
145	145	9
31	39	2
16	17	2
55	55	1
27	27	6
54	121	4
0	0	7
137	158	4
55	58	1
10	41	1
19	36	2
24	28	4
127	128	5
128	128	1
107	173	2
17	43	2
75	102	2
16	21	3
10	12	1
62	93	2
102	102	1
20	21	2
17	36	3
40	41	1
160	162	3
137	156	2
76	103	2
80	121	5
0	28	1
89	89	9
121	129	1
134	134	3
68	68	2
177	177	2
137	137	3
158	162	1
14	18	1
23	25	2
133	134	3
130	130	2
108	151	1
52	122	1
98	119	2
76	76	4
121	122	6
1	1	6
104	105	3
7	8	2
81	105	6
78	78	2
141	152	1
8	153	4
11	40	1
10	18	2
82	97	1
17	21	1
88	91	2
123	128	1
39	39	6
63	66	1
9	13	1
168	169	5
139	139	6
44	172	3
126	127	3
3	16	2
60	60	1
5	7	1
96	96	6
26	27	8
135	137	3
60	114	2
143	144	5
36	37	3
18	152	2
12	20	1
126	159	2
162	164	1
67	74	1
85	99	1
147	156	2
17	18	6
65	65	2
21	33	1
148	149	6
13	41	2
131	131	7
117	157	3
165	167	2
107	108	2
145	147	4
72	72	1
6	26	1
22	45	3
31	44	3
35	42	1
90	95	2
157	160	1
25	27	1
165	165	4
126	161	2
179	180	1
11	41	4
3	33	1
142	144	3
125	171	2
5	45	5
144	144	4
92	122	1
25	29	2
8	30	3
23	29	1
147	147	4
45	45	6
93	94	1
100	100	1
2	18	2
109	109	4
110	151	1
21	31	3
62	75	1
105	105	1
39	128	1
155	156	1
123	124	1
4	13	1
70	70	2
34	37	4
4	35	1
1	2	3
11	19	1
108	171	1
162	163	3
153	169	1
15	33	2
109	153	2
21	131	1
170	170	3
2	35	2
51	88	2
152	162	2
92	92	1
59	139	2
153	158	1
164	167	1
176	176	2
15	44	3
122	170	1
118	160	1
5	31	1
44	169	1
67	96	3
42	90	2
55	56	2
135	154	1
74	75	1
23	27	2
50	52	1
7	10	1
2	5	1
4	18	2
29	31	1
178	179	1
138	179	1
54	55	2
12	19	1
84	101	2
113	114	1
42	43	1
79	81	1
116	119	3
27	29	1
176	177	1
124	155	1
91	92	1
167	168	1
74	110	1
53	130	1
54	80	1
158	161	1
13	20	2
92	173	2
160	160	2
31	35	2
82	100	1
108	114	1
119	147	1
18	32	1
177	178	1
117	118	1
85	85	1
6	8	2
2	6	1
151	153	1
120	121	1
132	132	1
1	38	1
27	42	1
105	106	1
94	171	1
165	166	1
78	105	1
118	158	1
124	157	1
71	83	1
