93	93	20
79	79	14
32	60	3
7	21	3
101	101	7
63	64	3
112	112	3
30	48	2
64	64	9
76	83	1
48	49	2
11	12	4
12	12	9
82	83	5
45	45	21
19	20	11
131	132	2
19	19	16
89	89	3
28	59	2
62	62	8
5	6	4
80	80	9
26	27	11
8	8	13
114	115	1
63	63	2
31	31	12
17	17	18
27	27	16
87	87	7
5	26	3
84	84	9
121	121	4
6	8	5
47	47	9
13	13	4
17	21	3
75	75	8
18	18	9
113	114	3
76	76	14
9	18	3
66	66	20
121	122	3
34	70	1
70	71	4
74	75	1
26	49	2
66	68	2
134	134	9
34	34	19
96	98	5
13	14	1
84	85	12
7	18	1
33	33	6
108	108	10
78	79	4
61	62	10
83	83	7
61	61	8
23	24	5
6	6	19
46	46	10
3	3	8
76	77	5
58	58	6
30	31	1
131	131	2
11	11	10
44	44	12
96	97	5
98	99	2
10	11	10
65	75	3
96	96	9
106	106	6
68	68	8
48	77	2
29	30	1
10	14	1
107	107	6
82	84	3
118	120	3
77	78	4
80	81	12
79	93	2
27	92	2
36	56	4
69	70	4
123	123	1
29	29	10
86	91	1
24	25	8
59	59	11
56	56	13
97	101	2
32	33	1
27	29	4
7	7	20
45	48	3
130	130	2
92	92	6
94	94	8
20	21	6
14	15	9
9	9	14
127	127	8
100	100	7
7	59	3
37	37	7
35	61	5
25	25	5
73	73	6
23	25	1
128	128	6
7	58	2
81	81	10
10	10	9
129	129	5
46	47	2
57	57	5
33	35	1
3	102	2
7	8	1
85	85	10
86	86	7
74	74	3
28	28	11
90	90	4
115	115	1
109	110	6
82	125	1
15	16	5
18	19	1
96	101	2
88	88	6
126	128	6
34	35	6
65	101	2
9	71	4
118	118	7
114	114	2
75	76	6
41	41	8
99	99	2
107	110	1
45	89	1
77	77	5
113	116	1
6	7	3
107	108	2
111	112	5
40	42	6
68	69	3
26	26	10
49	49	2
62	63	2
13	17	4
123	125	3
4	4	12
67	67	2
97	97	12
70	70	4
43	43	7
21	21	10
45	46	3
35	48	4
45	59	6
2	77	2
12	78	1
65	65	2
91	96	1
20	20	6
126	126	2
51	56	1
28	29	4
23	23	5
32	102	6
56	57	4
14	14	4
103	103	2
114	117	1
1	1	3
21	82	2
57	58	3
95	95	4
66	83	2
22	22	2
51	55	5
21	23	2
31	37	1
87	88	2
7	29	2
97	99	1
25	26	2
82	82	9
27	28	11
7	93	1
80	94	2
62	69	1
96	99	5
89	129	3
115	123	3
17	19	2
132	133	1
124	125	8
124	124	5
29	62	1
48	79	2
99	100	1
49	80	2
83	85	2
69	69	5
5	57	2
11	27	1
9	10	3
23	32	2
15	15	1
30	30	8
47	93	2
42	42	6
94	95	5
9	16	1
16	16	2
103	104	4
55	56	2
12	14	2
25	27	3
35	35	6
37	38	5
33	36	4
22	32	4
34	57	1
131	133	2
18	21	3
16	18	1
109	109	2
20	23	1
74	100	3
93	98	1
12	32	1
48	55	1
4	19	1
14	23	3
93	94	3
117	117	1
14	74	1
9	57	1
31	32	6
4	6	1
117	123	2
27	96	1
9	12	2
5	5	4
20	44	1
21	37	2
29	48	5
46	61	1
26	28	3
39	39	1
105	106	2
0	0	3
26	92	2
43	45	3
61	75	1
10	20	1
91	94	2
4	5	3
104	104	1
21	22	2
23	26	3
75	85	1
94	98	1
16	47	3
110	111	1
63	69	1
11	80	1
73	74	2
78	81	2
26	29	3
19	32	3
110	110	5
98	98	4
38	38	2
29	59	3
68	70	2
119	119	2
123	124	2
62	74	1
42	82	2
66	67	2
12	61	5
5	95	3
8	36	1
126	129	2
119	122	1
110	120	2
45	61	3
42	43	1
40	41	1
44	60	1
44	45	1
116	116	3
8	21	1
64	70	1
8	9	1
91	91	2
11	25	1
79	80	1
64	65	2
47	62	2
46	73	1
10	13	2
15	74	1
4	97	1
82	108	2
65	66	4
112	113	2
33	61	2
77	81	2
23	31	1
127	128	2
82	131	2
44	48	1
18	23	1
60	60	1
79	114	1
117	118	1
24	97	1
12	13	1
120	121	1
78	96	1
110	116	1
33	34	1
120	120	2
6	12	1
111	111	3
96	102	2
90	95	1
83	84	2
32	32	2
84	118	1
42	44	2
34	36	1
88	89	1
99	119	1
90	91	1
79	81	1
131	134	1
85	87	1
36	39	1
22	29	1
84	87	1
59	60	1
85	86	1
26	46	3
21	111	1
125	125	1
2	3	1
72	77	1
77	95	1
104	105	1
67	68	1
4	23	1
72	73	1
