11	11	33
31	32	17
60	60	28
54	56	3
48	48	21
72	72	13
38	43	1
55	55	22
12	12	18
60	61	12
43	44	7
5	6	6
45	45	21
27	31	2
68	68	26
65	65	4
19	20	19
68	74	2
20	21	21
71	77	3
46	46	24
24	24	16
25	25	17
57	57	15
62	62	15
54	54	20
35	37	5
47	47	22
45	46	11
42	42	17
58	69	5
68	69	14
29	29	17
71	72	1
63	64	7
21	21	22
59	61	2
28	28	4
22	22	24
9	10	4
61	68	2
62	64	5
5	49	3
75	75	7
39	44	4
70	72	3
30	30	15
77	77	12
32	32	10
3	3	15
58	58	4
10	11	12
53	54	4
25	30	2
74	75	7
31	31	4
20	20	27
70	71	6
37	43	4
42	43	3
19	19	19
0	0	7
73	73	18
37	37	5
63	63	10
18	19	3
41	42	4
3	4	7
67	68	8
59	59	8
10	10	11
50	50	10
51	51	16
71	71	11
38	38	17
54	55	4
56	56	30
22	35	9
13	13	30
6	6	14
54	58	2
53	53	16
4	4	13
0	75	4
43	43	21
30	34	6
56	57	3
58	70	1
39	40	3
19	35	3
61	62	5
74	77	6
39	39	12
5	5	9
9	9	19
33	55	5
11	45	3
73	74	4
49	49	10
3	74	4
50	70	1
1	3	3
61	61	18
18	18	4
27	27	4
22	23	5
44	55	3
52	52	12
75	76	3
12	13	5
8	48	2
10	45	4
33	33	14
44	44	25
59	69	3
73	75	1
41	52	8
69	69	9
37	50	3
23	25	2
11	20	1
49	50	6
44	45	9
67	67	12
57	58	5
21	25	1
74	74	5
64	64	7
48	52	1
23	28	2
35	35	6
22	26	2
63	67	1
33	34	3
20	39	3
7	7	10
10	60	2
66	66	6
18	20	5
69	70	1
11	12	5
4	51	3
2	2	26
8	8	12
7	8	9
66	67	5
49	58	5
65	66	11
4	5	3
47	48	6
76	76	5
69	72	4
51	52	7
34	39	1
35	36	4
40	40	25
2	3	5
26	26	14
34	34	7
38	42	2
5	51	1
4	9	3
70	70	1
25	26	9
24	63	1
61	69	1
32	35	3
59	60	2
76	77	3
12	56	1
23	30	2
24	28	1
55	74	2
4	6	4
36	39	3
0	2	1
34	35	4
55	72	1
60	68	2
48	69	1
36	36	5
62	63	7
3	9	3
11	63	1
1	2	10
23	24	7
30	31	6
55	56	6
34	38	3
40	76	2
60	62	2
7	46	2
24	61	1
62	66	2
8	47	1
27	28	3
41	43	4
1	1	8
32	33	2
61	67	3
45	57	1
60	67	1
27	63	1
48	50	2
11	55	2
10	12	1
13	19	3
18	33	3
10	62	3
14	42	1
0	1	2
37	73	2
41	41	4
44	71	2
7	47	2
19	43	2
40	72	4
18	32	1
22	24	5
70	75	3
30	33	3
29	30	1
51	54	2
14	40	1
45	55	1
64	65	1
50	53	2
46	47	1
23	23	2
53	70	2
13	42	2
34	36	3
49	65	1
56	59	1
45	47	1
53	58	2
61	63	1
21	29	3
30	32	1
48	51	1
48	49	2
6	29	3
38	39	1
25	31	1
23	27	3
1	4	1
61	66	1
63	66	1
43	57	1
3	6	1
12	45	2
25	27	2
73	77	2
2	4	2
47	55	3
54	74	1
51	59	1
60	69	1
43	55	1
37	38	1
25	64	1
39	43	1
28	29	1
11	44	1
27	33	1
2	77	1
34	54	1
48	66	1
61	74	1
48	65	2
