57	57	18
92	92	33
79	80	15
41	41	37
86	87	10
48	48	28
23	23	12
56	56	24
49	50	27
101	102	1
97	97	10
50	64	1
86	86	27
65	67	8
95	95	11
98	98	18
68	68	27
60	60	19
98	100	3
72	72	21
32	32	10
69	70	17
87	95	6
26	26	10
76	77	10
44	49	4
62	62	8
59	64	9
25	25	11
65	65	39
80	80	12
71	74	2
67	67	26
43	44	10
85	90	2
82	82	10
74	75	5
75	75	47
80	81	12
55	56	7
60	79	4
91	91	13
46	46	10
51	51	33
44	44	28
79	79	32
85	86	6
34	34	19
62	81	4
63	64	10
29	30	6
85	85	21
77	99	2
33	33	28
52	59	4
70	74	5
49	49	22
39	39	19
54	55	9
29	29	11
35	38	2
51	52	9
98	101	7
63	63	30
99	101	3
31	31	17
79	101	1
52	52	29
87	88	15
91	92	9
78	78	15
86	92	1
90	91	5
101	101	38
82	97	3
71	71	14
43	43	16
96	97	3
88	88	19
68	69	11
66	79	4
36	48	4
65	66	6
84	88	7
42	42	39
68	71	4
51	56	3
71	76	8
52	56	7
81	82	6
87	94	4
86	89	2
76	76	25
94	94	15
34	51	5
36	36	19
40	40	23
61	61	25
58	58	53
30	30	6
102	102	8
70	70	27
47	53	6
24	25	10
22	22	29
68	78	6
70	71	12
94	95	19
73	74	16
36	37	6
79	98	10
87	96	4
100	100	10
67	73	5
75	76	11
48	49	8
86	95	4
93	93	18
74	76	3
66	80	4
48	59	3
61	62	2
43	45	8
96	96	6
60	61	5
40	51	3
80	85	3
59	59	14
35	52	9
90	90	22
99	100	3
62	64	2
53	53	14
95	96	3
83	83	23
38	38	12
57	58	12
66	68	3
84	93	1
41	49	4
70	75	4
71	73	8
55	63	1
22	26	2
23	47	4
82	101	3
35	36	16
64	64	30
100	101	4
50	50	22
55	59	1
27	27	9
52	53	8
77	78	1
77	77	22
94	96	2
47	47	14
74	74	20
55	57	4
97	101	4
66	66	20
57	60	8
39	53	2
88	89	5
66	67	2
58	59	4
67	68	12
38	40	4
92	93	10
55	55	25
80	93	1
84	84	11
92	94	2
89	89	24
87	87	8
45	45	22
24	24	8
53	54	9
73	90	3
83	99	3
20	26	3
39	55	8
47	48	20
94	97	2
69	69	4
50	51	2
88	92	1
24	26	5
44	45	8
54	54	17
94	98	4
37	38	8
40	52	11
37	59	7
73	73	14
81	91	1
97	98	3
48	50	6
93	94	2
99	99	23
51	53	2
79	94	1
31	84	7
34	50	2
41	42	6
50	65	2
89	101	4
83	84	5
88	98	2
32	33	6
98	99	4
23	26	2
33	34	2
23	24	3
82	84	2
56	57	3
35	35	13
36	59	3
37	37	4
45	50	3
78	99	6
40	49	2
34	40	2
62	63	11
35	39	7
73	77	2
43	64	3
57	86	1
48	58	2
27	28	4
78	79	1
22	23	6
83	91	8
49	51	4
33	39	3
72	74	2
51	85	3
79	91	2
33	49	1
56	61	2
32	34	1
31	38	2
79	81	3
28	33	1
78	90	4
83	85	1
73	78	1
57	59	1
42	43	4
67	72	3
80	98	2
39	40	5
20	20	6
93	101	1
22	31	2
89	95	1
40	85	2
41	72	2
51	55	3
80	89	1
57	85	3
63	72	2
44	51	1
41	43	1
45	49	2
73	79	1
41	50	1
47	50	2
34	35	5
89	90	4
40	63	2
45	48	2
69	71	1
79	90	1
41	93	1
26	27	5
25	26	2
82	98	2
20	23	1
63	66	2
82	91	2
50	85	2
88	96	2
81	81	4
72	77	1
64	67	1
48	85	1
78	80	2
59	60	4
52	80	2
63	65	2
90	93	1
23	25	1
98	102	3
39	49	2
40	41	5
50	58	2
69	79	1
74	78	1
35	55	1
50	52	2
24	54	2
71	72	2
79	86	3
36	49	1
76	92	1
31	33	1
64	90	2
88	97	1
80	99	1
84	91	1
87	92	1
38	39	2
34	45	1
75	77	2
81	98	1
64	65	1
44	48	1
43	50	1
91	93	1
40	46	1
31	34	1
22	34	1
42	45	2
79	89	1
78	89	1
63	85	1
28	29	1
72	73	1
23	29	1
57	91	1
53	56	1
90	92	1
90	101	1
45	46	1
95	97	1
35	37	2
82	83	1
32	39	1
76	91	1
31	75	1
84	85	1
49	85	1
62	79	1
23	48	2
81	100	2
84	92	1
77	79	1
