6	6	15
78	78	5
153	153	6
33	34	7
189	189	4
90	90	7
13	13	6
131	134	4
44	44	4
47	47	11
19	24	3
149	150	2
105	106	4
2	2	14
95	95	3
23	23	6
170	170	7
173	174	2
149	149	20
87	87	7
76	77	1
40	40	11
24	24	9
101	101	3
124	124	4
91	91	7
20	20	3
128	128	4
163	163	4
88	89	3
116	116	7
42	44	2
74	74	4
98	100	2
7	7	7
0	0	8
41	41	4
15	15	6
48	48	10
159	159	4
91	108	3
26	26	1
136	138	1
12	12	6
41	48	2
83	84	4
15	38	3
136	136	6
1	1	6
154	154	11
176	176	6
166	166	9
39	39	12
74	76	5
147	148	7
61	61	2
122	123	6
175	175	3
46	47	3
21	22	1
174	174	7
29	29	1
105	105	2
109	109	6
88	122	1
33	35	2
11	11	4
16	16	7
187	187	4
142	142	5
112	112	4
31	32	1
97	97	2
80	82	3
94	94	4
123	151	2
70	70	3
84	85	6
103	103	1
5	5	1
155	156	6
9	10	9
151	152	3
6	45	2
89	89	13
91	92	3
42	151	4
140	140	11
184	184	6
114	114	5
0	1	3
185	185	2
97	99	1
139	139	7
138	138	4
25	28	2
92	93	2
3	11	2
60	60	3
48	49	5
72	72	7
164	164	9
125	125	8
56	57	5
62	62	10
35	37	10
188	190	2
42	42	9
130	131	5
123	153	3
46	46	8
182	183	3
98	101	3
111	111	2
81	81	5
121	122	1
36	36	4
45	46	3
4	5	3
6	7	4
159	160	2
8	8	2
33	38	1
43	46	1
35	35	3
42	43	3
34	34	3
22	24	7
95	129	2
132	132	2
187	188	1
99	99	9
55	67	3
72	73	3
168	168	1
73	73	4
80	80	4
28	34	1
113	113	6
27	28	2
135	135	4
57	57	4
165	165	5
38	38	2
88	88	3
152	152	4
181	182	5
106	106	6
31	31	5
160	160	4
27	27	1
21	21	4
120	151	1
59	65	1
117	118	1
79	80	3
182	182	2
92	105	5
157	157	1
17	17	6
108	109	5
95	130	1
37	37	3
100	100	6
73	74	1
123	123	5
190	190	5
87	104	3
18	20	2
27	29	1
77	79	5
90	129	1
83	83	7
34	36	1
129	129	4
179	179	2
31	33	2
98	98	2
11	18	5
121	121	2
95	96	1
29	32	2
111	113	3
138	140	1
10	10	3
32	33	1
151	151	3
142	147	1
85	85	4
59	59	6
156	158	2
125	126	2
117	119	2
87	103	1
19	19	1
130	139	2
71	71	6
87	141	6
82	83	1
70	71	1
43	53	4
119	132	1
129	170	1
28	28	2
126	126	1
118	129	1
177	178	1
131	131	7
147	147	1
28	30	4
58	64	2
3	3	1
118	118	2
49	49	1
23	24	1
40	48	3
53	53	1
141	141	3
132	133	1
134	134	2
70	72	4
63	67	3
156	156	8
25	25	1
158	158	1
25	33	1
93	94	2
15	16	2
43	43	3
159	174	2
34	148	2
84	142	1
40	42	3
133	134	2
84	84	2
119	154	1
19	58	2
92	92	1
116	117	3
52	58	2
4	4	1
108	108	3
102	103	1
18	19	1
141	142	1
0	3	1
7	12	1
124	125	1
142	143	1
142	144	1
6	8	3
155	165	2
99	139	5
82	82	4
122	122	6
169	169	3
33	33	1
59	61	1
100	101	2
120	120	1
88	95	4
161	161	1
92	97	1
140	141	3
86	86	3
96	97	2
64	64	3
101	102	2
79	79	1
158	183	1
85	87	1
111	112	1
22	22	2
20	21	3
145	146	1
128	134	2
156	157	1
2	3	2
143	143	1
152	153	2
96	96	3
127	127	4
189	190	4
44	45	1
75	76	2
137	137	1
102	102	3
48	76	2
73	77	1
71	72	2
10	12	1
58	58	1
93	93	1
55	55	1
180	180	1
186	186	1
173	173	1
107	107	1
55	56	1
138	141	1
9	13	1
45	45	2
30	32	1
117	117	1
156	159	1
67	68	1
126	141	1
92	94	1
7	46	1
34	35	1
53	62	3
146	147	1
86	99	1
15	37	1
167	168	1
14	19	1
47	84	2
105	107	2
139	151	2
56	56	1
158	161	1
54	54	2
69	70	1
68	68	1
78	79	1
71	77	2
148	149	1
104	104	2
188	188	1
13	34	1
58	59	2
146	146	1
23	65	1
127	128	1
42	152	1
36	37	1
106	110	1
28	35	1
91	124	1
41	56	1
113	117	1
123	125	1
59	64	2
77	77	1
138	143	1
135	137	1
144	163	1
81	82	1
129	130	1
