11	11	14
57	57	32
0	0	40
42	43	14
44	44	76
44	45	16
30	30	52
43	43	81
50	50	36
10	10	16
46	47	21
45	45	55
42	42	39
43	44	25
50	56	1
51	52	11
55	55	13
2	2	19
18	19	5
39	43	6
38	39	14
56	60	9
40	41	12
53	54	22
36	44	8
38	38	13
32	33	7
33	33	65
37	37	21
31	31	27
1	1	10
8	8	21
36	36	45
32	32	47
53	53	30
41	41	21
2	3	11
60	62	3
30	31	17
18	18	18
48	49	23
37	42	5
51	51	46
45	46	24
58	58	17
48	48	59
47	47	64
54	55	3
15	16	7
60	60	10
12	12	20
47	49	7
34	49	8
46	46	45
40	40	31
39	39	55
25	25	10
22	22	13
36	42	4
54	58	1
21	22	8
59	60	6
49	49	32
62	62	38
58	59	12
17	18	4
56	56	21
4	4	18
17	21	1
58	60	3
11	14	3
6	8	1
29	29	8
31	32	33
8	9	2
50	51	9
20	20	13
47	48	12
1	30	4
61	61	38
15	15	23
39	56	1
34	35	13
17	17	11
19	19	11
61	62	27
31	46	3
24	24	15
36	37	19
54	59	3
46	58	1
10	11	4
23	29	5
12	13	7
13	13	13
34	34	44
6	6	21
30	51	2
54	54	26
59	59	11
33	34	19
44	46	2
12	30	1
56	58	4
35	35	66
14	23	6
16	18	2
21	21	8
16	17	5
23	23	13
14	14	14
20	24	1
14	15	7
13	42	5
47	50	1
5	5	27
23	25	6
37	39	8
52	52	22
30	45	2
41	51	4
56	57	8
6	7	14
45	60	2
16	16	5
20	25	4
1	2	5
9	10	10
35	43	2
53	55	1
20	21	2
19	23	5
17	20	1
51	54	3
9	9	13
39	47	2
52	53	8
35	36	15
7	8	6
57	58	1
41	44	1
12	16	2
30	34	1
11	12	3
11	13	9
52	55	2
21	24	1
43	48	6
34	36	2
42	54	1
39	40	3
4	5	9
19	20	5
20	22	5
29	52	1
43	45	1
51	59	3
57	59	4
3	3	27
38	41	12
29	51	2
37	38	8
52	60	2
4	33	3
60	61	4
5	6	3
52	54	3
13	17	3
21	29	3
3	4	12
5	13	3
35	47	1
38	53	4
46	49	2
49	50	6
47	59	1
32	35	3
55	57	3
41	58	3
53	59	2
33	43	5
35	46	2
22	24	3
0	1	2
49	60	1
33	44	2
31	34	1
43	47	1
30	62	2
7	7	8
10	31	3
39	54	4
16	19	3
51	53	3
38	40	2
37	40	1
44	56	1
3	34	1
13	14	6
13	25	1
2	31	1
45	47	1
10	13	1
41	57	7
44	59	1
36	45	1
33	46	1
10	12	1
50	52	3
55	58	1
14	16	2
45	56	2
17	24	3
37	45	1
8	20	2
42	44	1
35	42	2
33	48	3
39	41	1
11	25	1
32	57	1
52	58	1
9	38	1
30	57	1
40	42	1
9	32	2
8	54	2
4	13	2
50	57	1
2	44	1
37	41	1
23	24	1
44	60	1
40	48	1
13	18	1
42	50	1
38	58	2
51	57	1
44	62	1
30	52	1
12	14	1
21	23	1
19	29	1
39	42	1
55	56	1
44	55	1
18	22	1
12	42	1
33	35	1
30	42	1
