48	48	44
14	15	27
39	39	84
68	69	8
79	80	9
45	46	41
120	121	16
98	108	4
100	106	3
152	152	19
116	116	31
143	146	1
45	45	46
41	43	14
94	94	34
96	115	2
4	5	26
40	42	9
50	50	38
76	76	38
153	154	3
74	74	35
6	26	7
75	84	4
124	124	13
30	31	25
62	76	4
113	113	36
72	72	30
44	44	48
123	123	17
88	94	3
146	151	3
87	87	39
144	145	16
128	129	14
6	7	28
104	110	4
5	5	34
27	80	2
43	43	43
75	76	17
125	125	22
97	97	21
27	28	14
73	73	18
153	153	32
42	46	4
131	149	1
129	129	46
73	76	2
74	81	7
34	35	24
2	3	9
135	135	39
15	25	1
75	152	1
56	56	35
75	75	21
37	37	61
129	130	14
118	118	46
43	44	16
6	6	46
73	74	6
9	9	61
40	40	45
82	94	1
107	107	26
140	142	2
18	19	27
86	86	49
134	135	13
68	68	28
134	134	25
13	13	61
14	32	2
81	81	40
154	154	26
80	80	55
69	70	14
47	55	4
128	128	36
23	23	52
31	37	5
150	152	2
35	37	2
19	19	42
110	110	20
131	131	32
4	12	8
10	11	14
36	46	2
94	99	12
36	36	65
66	67	8
7	28	3
137	138	7
64	64	29
125	136	2
87	99	3
105	113	6
141	141	35
130	132	12
84	84	35
35	36	20
111	111	37
55	55	26
85	85	50
16	16	48
83	84	21
132	132	34
82	136	6
29	29	47
34	34	36
32	32	30
31	119	1
22	22	37
49	50	12
116	117	11
15	15	40
7	7	61
56	57	22
100	100	30
143	148	3
39	40	22
21	21	51
28	28	24
11	13	6
53	53	59
69	77	6
96	97	20
97	107	5
83	83	61
36	38	5
124	126	5
36	45	2
93	139	1
63	144	1
21	24	6
119	119	32
33	33	44
50	52	4
65	77	1
8	8	62
71	73	8
33	34	21
11	11	58
104	112	12
111	117	3
51	51	20
4	4	44
96	96	46
97	147	1
122	123	7
31	32	20
38	39	15
53	54	17
65	68	15
109	120	5
110	117	1
120	124	5
93	93	27
141	142	15
122	138	8
109	112	6
9	10	11
115	118	2
98	98	29
69	74	7
149	149	23
54	54	36
52	52	4
25	27	2
122	122	27
37	129	3
66	70	2
139	139	20
26	28	11
73	75	10
146	146	12
67	67	36
10	10	70
76	84	6
67	69	12
78	78	34
145	145	24
94	98	17
87	112	6
80	84	3
117	118	8
3	3	19
77	77	28
102	104	7
12	16	5
32	87	6
32	122	3
49	51	7
121	136	5
6	33	5
20	20	37
138	138	22
74	76	3
23	24	11
142	142	22
24	24	61
140	140	21
26	88	1
69	69	24
32	33	11
31	31	52
109	109	33
17	21	6
72	73	18
134	136	5
62	73	1
151	152	9
20	22	18
112	114	5
68	75	1
74	75	11
24	25	9
152	153	14
74	143	2
12	25	5
12	13	20
57	57	32
31	36	8
41	42	14
131	148	2
131	132	5
85	95	8
7	8	12
35	69	3
27	27	32
103	107	5
78	81	4
80	81	26
13	63	3
28	70	2
144	146	10
45	106	2
11	23	7
76	129	3
72	76	8
150	154	5
140	141	10
79	79	36
100	129	3
70	72	8
110	111	5
103	121	1
129	131	3
95	96	17
114	114	35
31	121	3
68	72	9
95	99	8
65	65	29
12	12	26
75	77	4
46	46	39
47	47	46
64	71	3
102	102	25
20	27	3
25	25	25
64	66	12
50	51	8
70	70	48
13	18	8
81	82	32
105	122	2
136	136	31
78	86	8
12	19	6
84	98	5
3	7	7
132	133	9
12	15	6
3	5	8
148	148	23
43	45	2
17	17	51
17	37	1
62	64	4
69	79	3
22	28	2
26	50	2
7	39	1
42	42	42
13	36	3
14	82	2
56	71	5
139	142	11
130	144	6
33	84	3
65	67	12
85	86	17
63	67	2
130	130	15
127	127	21
14	88	2
23	25	9
22	23	35
94	97	6
133	133	33
147	147	35
31	33	6
86	113	2
15	16	14
67	150	3
35	35	32
72	74	14
26	26	33
97	115	1
5	11	4
130	148	2
10	15	3
105	105	14
136	145	5
65	148	4
138	145	1
97	98	17
115	116	10
103	103	20
120	120	12
117	119	5
112	112	26
97	133	2
138	140	1
17	18	14
27	29	5
12	41	6
95	98	14
98	99	16
8	9	25
123	124	4
53	84	2
51	57	1
11	12	34
99	144	3
82	91	1
62	103	2
63	81	4
15	20	3
101	105	2
30	38	3
117	117	22
94	95	31
6	40	4
26	27	21
15	17	7
78	84	2
82	82	43
100	123	1
87	94	6
83	87	3
33	62	2
16	18	3
108	114	9
51	153	6
55	56	13
7	9	5
95	135	4
104	111	2
105	106	6
7	26	4
99	99	41
31	55	4
144	144	39
41	41	36
93	125	2
78	85	3
97	99	5
30	30	62
99	105	4
53	92	3
104	125	2
92	92	14
108	108	28
57	58	8
136	137	9
147	148	15
37	53	3
37	45	4
58	58	18
75	80	2
127	129	7
100	101	2
19	64	5
73	79	6
32	116	2
77	88	5
66	68	5
70	73	4
76	77	13
151	151	19
86	94	5
57	79	3
13	14	3
43	107	1
49	55	4
10	90	3
107	123	1
82	83	9
68	73	4
32	34	9
6	28	1
64	65	13
3	26	3
102	137	5
103	110	1
10	16	9
32	37	3
69	83	3
42	43	27
18	18	23
111	112	6
101	111	4
142	143	9
129	143	4
34	36	3
71	81	4
31	92	1
66	66	21
81	132	5
76	78	5
26	32	5
84	94	7
93	95	7
141	146	5
103	104	14
5	7	10
121	121	35
127	137	8
85	94	5
38	38	34
48	49	19
24	64	3
45	48	1
18	71	1
3	4	16
97	144	2
27	83	6
20	21	24
78	83	9
71	71	38
19	20	10
75	78	7
56	74	3
121	122	17
79	124	1
20	24	4
77	78	17
64	76	1
64	82	1
110	113	13
28	30	9
62	63	8
73	84	3
13	35	2
5	6	14
130	131	9
25	26	12
30	32	10
110	124	1
12	14	4
104	105	21
113	115	3
78	144	2
89	93	1
18	21	2
44	45	19
128	144	3
115	117	4
6	9	8
131	133	10
63	68	3
2	2	4
112	113	18
145	147	3
27	99	2
39	50	6
116	118	9
99	122	4
108	111	12
68	84	1
17	22	5
42	65	1
107	109	3
28	34	1
4	21	2
70	131	3
110	120	2
133	134	21
5	28	2
11	76	4
77	81	5
129	134	1
150	151	13
106	106	27
95	95	19
139	150	2
67	68	14
150	150	28
104	109	5
109	110	12
108	109	6
33	35	5
63	64	22
95	97	9
4	25	6
83	88	2
69	71	2
54	55	16
50	55	1
5	32	1
90	90	9
70	75	3
79	96	2
113	114	5
124	125	10
3	24	2
20	25	2
119	120	5
68	93	2
28	87	5
88	88	17
12	42	2
24	27	7
16	35	2
40	41	11
92	95	2
3	19	3
128	135	5
78	79	15
28	29	14
18	20	9
46	47	4
28	36	1
126	128	13
66	69	2
74	80	6
84	86	10
26	30	13
70	81	2
12	30	3
16	17	9
78	80	8
149	150	5
122	132	1
29	30	20
89	105	2
56	62	5
39	105	4
135	146	1
33	73	5
63	65	2
6	23	1
132	135	1
139	140	8
39	42	8
130	140	5
135	139	1
152	154	4
62	68	5
90	91	2
126	127	11
100	102	4
58	72	2
57	64	1
107	154	3
78	94	4
33	38	2
20	96	3
105	107	14
28	58	5
4	15	4
123	128	3
124	139	5
14	16	3
48	72	4
84	85	14
78	113	3
125	127	4
135	136	6
111	120	4
64	113	5
20	23	5
143	145	1
78	82	8
13	47	6
51	56	2
93	94	8
31	90	3
115	115	24
80	107	2
69	78	2
120	126	2
62	62	35
31	46	4
37	48	1
64	68	1
7	96	2
134	138	2
14	14	63
34	116	5
38	40	4
69	85	4
85	144	5
86	88	2
126	130	3
79	81	1
40	44	4
75	112	3
126	126	16
88	99	7
101	103	1
122	125	9
5	9	2
21	25	11
28	78	3
13	19	4
49	54	1
104	115	1
6	17	4
105	109	3
129	132	3
92	94	2
112	116	2
115	123	3
105	114	7
57	66	1
37	38	17
68	76	3
64	69	1
63	66	10
130	133	1
5	26	5
63	63	18
111	125	4
6	25	1
83	85	10
98	135	2
99	133	4
143	143	11
82	85	3
18	77	1
78	93	2
55	88	1
32	86	2
140	153	3
85	127	2
100	122	3
103	105	7
15	18	6
99	101	2
44	46	18
33	48	2
62	98	1
75	79	1
106	108	7
28	76	4
84	88	3
33	80	1
127	145	3
83	86	5
45	54	1
86	87	19
12	38	5
49	49	20
146	149	1
36	37	14
103	122	2
28	79	1
16	21	1
100	114	5
137	137	15
29	39	2
137	139	8
17	19	14
109	111	2
106	116	2
121	125	7
28	46	1
146	147	7
48	50	3
15	85	1
125	147	2
58	69	3
149	151	2
3	145	4
69	81	3
55	57	4
16	30	2
86	122	3
2	7	6
117	135	4
83	99	2
9	11	5
101	116	2
25	30	2
146	148	1
17	69	1
42	48	1
44	92	3
4	23	1
23	28	2
71	72	7
68	83	2
148	150	11
32	112	2
82	98	1
42	99	2
93	121	4
3	42	4
31	47	3
83	145	3
3	12	1
98	112	1
82	84	5
6	8	6
102	108	1
16	22	6
50	54	3
106	128	1
11	26	2
102	119	2
47	48	2
113	116	4
99	112	1
61	120	2
2	13	2
30	58	3
44	48	1
64	87	2
45	123	1
6	56	4
9	27	2
62	124	2
140	150	1
107	115	2
28	67	2
74	136	2
43	64	3
69	72	2
28	39	1
125	139	1
75	108	3
79	84	5
92	125	2
79	112	4
92	93	8
25	31	4
100	111	3
97	104	1
19	25	4
101	115	6
92	121	4
41	47	3
88	97	4
21	23	6
74	86	3
84	96	1
103	106	6
25	86	2
148	149	4
118	154	2
57	90	2
8	20	2
88	127	5
119	122	2
93	100	2
13	149	5
127	141	2
74	84	1
17	23	8
53	55	2
26	62	2
39	49	6
36	114	4
24	26	3
87	88	10
85	113	3
104	104	12
119	121	2
21	22	19
12	67	5
110	112	5
32	125	2
106	107	11
138	148	4
96	104	5
41	45	1
26	29	6
129	136	6
108	112	3
75	119	4
15	21	4
128	131	2
66	82	5
102	103	14
142	147	2
66	98	1
28	33	2
21	76	1
143	144	6
91	92	3
12	31	2
132	134	1
67	75	4
16	112	2
84	97	1
32	38	3
133	135	2
101	102	6
76	85	1
69	76	2
47	54	3
58	74	2
18	31	2
124	147	4
118	125	3
109	113	3
70	104	1
84	93	4
94	128	1
31	56	2
139	144	4
27	33	2
115	153	2
79	83	1
123	137	2
57	92	1
29	50	1
65	93	1
124	136	1
28	51	9
10	20	2
30	75	3
127	134	1
49	70	4
28	31	4
103	132	1
107	118	1
15	79	2
48	53	2
64	67	5
7	16	1
32	36	8
3	8	4
74	83	6
56	65	4
23	76	3
48	54	3
106	114	2
87	130	3
146	153	2
4	134	3
65	81	1
70	71	7
142	146	4
98	125	3
87	111	3
13	24	3
86	145	1
10	12	4
139	145	1
13	15	13
27	68	1
36	39	2
94	108	3
36	49	1
13	22	1
15	153	1
101	121	2
34	37	6
99	110	1
140	144	3
81	131	2
94	96	2
67	80	1
25	67	1
30	77	1
63	82	1
79	87	3
8	11	6
4	13	1
131	134	4
96	137	2
24	29	1
41	51	1
44	53	3
100	108	1
145	146	13
62	87	2
117	127	1
116	129	3
35	77	3
51	123	1
138	139	8
130	136	1
63	152	2
69	73	2
104	108	1
51	127	1
31	88	4
67	122	3
109	114	5
38	44	3
89	90	5
29	32	8
114	120	1
50	149	3
14	132	2
26	66	1
65	102	2
7	79	1
32	66	3
10	19	4
123	138	2
13	21	1
101	122	2
68	79	3
72	77	1
122	124	1
118	119	5
56	142	2
96	99	3
113	131	3
127	128	1
5	25	2
62	113	2
68	97	3
20	40	1
102	105	1
57	62	2
29	33	1
33	98	2
103	113	5
119	125	2
78	120	2
73	85	2
128	145	2
74	101	5
71	75	2
73	82	1
128	130	4
84	87	3
64	102	3
141	143	5
91	117	3
63	79	2
94	121	8
78	127	1
21	27	2
19	63	4
37	42	1
21	32	1
49	53	1
8	30	1
48	107	1
78	88	1
29	36	5
3	27	1
50	53	1
106	109	2
95	104	1
82	89	4
14	29	2
96	123	3
98	137	4
38	42	5
48	67	2
53	96	2
15	19	1
107	108	9
119	130	4
125	126	3
96	109	1
40	45	1
12	132	2
108	117	1
118	135	1
103	112	1
55	58	2
37	78	3
96	112	2
85	90	2
22	25	2
27	71	2
27	95	2
38	122	4
9	45	2
35	41	1
78	87	1
17	20	1
122	126	2
79	85	2
96	101	1
46	107	1
19	23	1
14	20	6
28	32	9
30	62	1
31	34	3
129	149	3
62	77	3
19	37	2
22	24	2
25	78	1
25	64	1
30	33	3
102	112	1
88	136	1
86	140	2
78	109	1
28	104	2
32	123	2
46	147	1
82	138	5
27	35	1
110	121	2
85	89	1
13	31	2
24	76	4
29	91	1
85	93	1
82	86	1
9	152	2
4	139	2
21	101	2
3	10	2
65	74	1
31	54	1
137	145	5
72	79	1
107	131	1
56	97	1
104	124	2
67	74	2
4	6	2
21	51	3
13	90	3
13	84	1
132	138	2
79	97	1
26	31	1
39	46	1
103	126	3
50	57	3
128	139	2
3	6	2
39	51	2
92	113	1
94	125	1
48	134	1
78	111	5
16	102	1
140	145	3
25	126	1
34	38	4
97	130	1
38	50	2
8	10	2
149	153	2
8	14	3
83	96	3
79	93	1
142	150	1
100	110	4
14	21	1
109	117	3
148	152	2
69	121	1
77	130	1
124	148	4
76	86	1
85	126	1
31	50	1
18	47	1
33	75	2
76	111	1
24	28	2
16	19	1
85	87	1
121	123	1
86	121	1
40	63	2
36	64	1
74	77	3
61	61	1
136	138	2
113	118	3
77	118	1
81	83	1
95	127	3
12	39	2
117	146	1
62	79	3
34	68	1
97	100	1
34	53	1
35	48	1
29	31	2
5	14	1
7	119	2
119	129	1
102	113	2
4	14	4
24	48	1
4	7	2
65	66	2
27	62	1
11	14	1
21	44	3
106	115	2
54	56	3
77	82	2
5	21	1
3	11	1
27	32	1
67	79	4
16	76	1
62	94	1
94	123	4
9	16	1
57	72	2
33	51	1
88	93	4
42	85	1
77	79	1
127	136	2
21	37	1
50	56	1
37	44	2
61	62	5
95	100	2
114	134	5
84	128	1
6	27	1
6	12	2
95	125	2
100	133	2
32	74	2
83	110	1
103	115	1
114	119	1
64	123	2
75	104	1
63	87	2
122	130	1
143	147	2
37	39	1
89	101	1
13	42	1
37	41	1
107	124	1
35	38	3
130	145	2
129	133	1
4	8	1
73	77	3
36	43	2
99	106	1
25	99	1
130	135	1
30	35	1
122	127	1
66	74	2
81	87	1
56	93	1
105	125	1
120	125	1
68	70	2
71	80	1
63	76	1
20	56	2
121	124	3
130	146	2
25	91	2
9	18	1
77	83	1
38	107	1
98	102	1
31	107	1
104	122	3
40	43	1
93	120	1
31	43	2
68	81	1
82	124	1
63	78	1
16	79	1
31	51	1
101	136	1
79	135	1
66	101	2
107	110	3
4	16	2
32	53	1
19	30	2
30	39	1
6	20	2
51	52	3
8	18	1
22	29	1
10	14	2
101	128	1
81	106	2
32	127	1
31	127	1
145	154	1
57	96	1
28	52	1
128	138	1
48	76	1
78	90	1
86	144	1
73	110	1
45	47	3
32	92	1
142	154	1
122	137	1
114	115	1
85	88	1
36	41	1
11	83	2
94	145	1
87	126	1
80	93	1
118	129	1
34	62	1
124	137	2
136	146	1
93	99	1
128	136	1
8	16	1
67	76	1
129	138	1
43	73	2
66	78	1
105	112	1
31	52	1
44	57	1
37	46	1
7	12	1
56	99	1
120	122	1
98	130	1
104	123	1
101	110	4
38	43	4
132	144	1
70	115	2
55	67	2
15	24	1
3	29	1
107	113	4
63	93	1
26	134	1
64	125	1
94	124	2
107	114	2
3	9	1
25	79	1
82	88	1
34	92	1
15	23	2
66	105	1
7	25	1
13	74	1
11	24	1
28	93	2
27	119	1
101	101	2
12	149	1
23	97	1
77	80	2
28	84	1
149	152	2
123	127	3
88	90	1
105	110	1
32	35	1
64	84	1
97	112	1
34	57	1
29	43	1
108	113	1
36	62	1
6	30	1
9	44	1
117	126	1
122	154	1
10	26	1
86	126	1
56	64	1
46	54	1
102	106	1
78	123	1
39	48	1
12	43	1
112	125	1
46	52	1
21	55	1
68	71	1
3	86	3
54	57	1
22	32	1
12	63	1
112	141	2
130	154	1
65	78	2
117	121	1
14	87	2
105	120	1
141	144	1
80	88	1
96	128	1
108	110	1
20	33	1
142	144	1
31	48	1
12	26	2
87	98	1
71	82	1
127	139	1
29	78	1
75	81	1
24	30	1
33	36	1
46	51	2
6	11	1
12	110	2
100	109	1
4	95	1
27	52	1
26	52	1
4	24	1
19	39	1
10	34	1
63	75	1
19	48	1
124	127	2
30	69	1
127	147	1
81	86	1
66	85	1
90	106	1
27	87	1
9	92	1
77	96	1
62	126	1
29	57	1
27	132	1
111	122	1
124	135	2
25	32	1
52	67	1
32	96	1
39	47	1
11	18	1
110	114	1
62	67	1
35	52	1
19	44	1
111	113	1
26	54	1
123	130	1
33	92	1
99	108	1
26	86	1
66	124	1
18	28	1
89	100	1
101	106	1
33	39	1
134	145	1
