90	90	21
64	64	11
50	100	3
3	4	9
118	119	3
67	67	9
103	126	2
106	116	3
107	109	1
53	53	23
27	27	10
132	132	5
66	67	1
59	101	1
109	109	11
102	102	19
28	28	20
68	82	6
79	88	1
50	131	5
130	130	13
44	86	1
35	35	8
113	113	10
118	135	5
131	131	15
112	112	22
8	8	4
91	91	6
55	56	2
97	132	3
92	92	8
72	73	6
23	23	7
119	122	3
37	38	1
106	133	7
34	34	17
109	111	3
127	128	5
120	122	4
21	21	16
30	30	9
33	57	1
66	66	20
135	135	4
104	104	27
55	106	2
6	10	8
74	74	9
51	101	1
76	76	20
113	114	12
106	106	7
124	124	20
122	122	2
46	75	2
108	109	6
62	90	3
15	15	6
112	113	9
123	129	2
2	3	5
115	115	17
81	81	5
80	102	4
13	18	7
62	63	18
61	64	3
77	77	15
66	69	4
87	96	3
63	63	14
18	35	2
93	93	16
69	69	20
71	72	8
47	53	3
50	53	4
17	33	9
15	17	2
89	89	14
9	10	6
107	111	1
62	89	2
24	24	8
76	79	1
90	92	1
68	81	2
127	127	13
105	105	8
77	99	4
91	92	9
52	52	14
82	86	6
121	122	1
58	59	3
50	78	1
89	129	3
126	126	10
73	73	24
77	97	2
22	22	11
33	33	14
44	84	6
65	69	3
110	110	15
68	68	9
52	131	2
38	38	7
83	86	1
62	62	20
100	100	13
48	59	6
44	45	7
95	104	1
50	51	1
33	51	1
27	29	5
121	121	9
58	58	16
14	14	4
25	26	5
8	114	1
52	59	3
6	47	3
130	131	3
66	119	1
1	2	5
71	128	2
44	96	5
91	133	1
127	129	4
57	59	2
107	116	5
80	80	18
92	110	4
16	16	7
17	32	1
70	71	3
47	47	3
45	130	2
108	111	3
62	131	3
60	60	7
115	118	3
30	32	1
78	78	5
83	83	14
17	17	3
36	37	5
29	29	8
32	32	10
11	11	4
100	125	2
77	78	4
123	123	21
7	129	1
79	79	9
47	129	2
82	82	9
3	7	2
27	62	6
57	113	4
88	88	9
115	123	2
75	75	17
20	24	1
10	113	1
43	43	5
102	104	2
87	87	15
83	85	3
36	36	5
85	121	2
86	86	8
69	131	4
45	45	5
134	134	14
118	118	16
102	126	4
117	135	2
99	99	18
124	125	5
3	3	10
133	133	10
72	72	17
42	45	2
42	43	5
58	112	1
129	129	15
114	114	9
103	103	14
89	90	6
18	23	4
54	55	5
65	65	7
63	70	2
125	126	3
44	72	4
116	116	12
57	112	2
53	55	4
45	52	1
107	113	5
23	27	2
68	71	2
101	102	1
91	116	5
90	129	4
122	123	3
108	132	3
9	18	1
82	85	2
93	101	1
51	51	3
108	108	6
76	114	4
26	26	6
82	118	4
101	101	8
72	120	2
55	60	1
86	98	6
119	119	16
44	87	2
86	120	2
11	13	3
45	80	3
65	125	4
61	61	2
73	75	2
18	18	6
131	133	3
56	66	2
4	7	2
25	25	12
105	113	1
107	110	3
47	130	1
44	58	2
0	1	5
71	127	1
26	57	4
45	46	4
35	36	3
107	107	15
71	71	15
113	116	3
19	37	3
94	95	4
129	133	3
31	31	12
59	60	3
87	118	3
46	101	2
115	116	5
1	1	9
8	16	3
7	66	2
59	59	11
76	78	3
125	132	2
47	49	6
121	134	3
71	78	2
78	98	4
45	79	1
5	5	11
75	76	6
64	65	4
19	19	5
82	83	2
68	69	3
10	11	5
60	94	1
111	133	2
91	107	4
26	113	3
7	7	6
5	6	4
44	77	4
84	120	3
94	96	2
35	37	2
57	79	4
128	128	8
91	132	2
62	71	2
59	75	1
54	59	2
45	87	4
93	96	1
9	9	7
55	131	4
70	72	2
68	132	2
54	107	2
20	20	4
120	131	1
79	95	2
122	125	2
54	54	11
55	107	10
126	133	1
123	124	3
120	120	4
107	133	1
20	37	2
10	10	9
107	108	2
96	104	8
48	48	6
97	97	19
113	115	2
34	57	3
94	94	5
23	30	4
58	78	2
49	79	2
50	77	4
54	97	1
4	4	10
0	72	3
111	111	8
77	128	1
79	94	1
83	115	3
79	97	2
50	82	2
89	115	1
14	35	1
80	86	2
56	57	8
118	120	2
17	18	4
128	130	2
117	117	7
82	98	5
64	68	2
11	12	2
124	127	2
119	132	5
6	6	2
118	133	1
56	78	3
84	84	16
20	21	3
42	87	2
73	89	1
71	102	1
59	125	1
120	121	8
131	132	1
81	91	2
77	82	1
32	33	4
77	87	4
44	62	5
18	19	1
106	110	1
100	106	1
126	127	4
69	71	1
101	126	4
74	75	6
10	13	3
95	95	11
125	125	4
76	88	1
61	130	3
124	126	3
109	110	4
61	62	3
106	135	1
70	97	1
117	118	2
57	57	3
48	54	2
92	94	4
69	70	5
67	122	4
100	101	4
80	121	1
111	132	1
57	61	2
63	64	2
56	56	5
49	55	2
9	19	1
112	114	3
88	98	1
60	61	5
12	12	5
54	91	5
78	131	2
54	124	1
85	90	2
1	3	1
132	133	5
108	117	2
61	93	1
70	70	4
69	133	1
82	112	1
120	132	1
57	58	4
70	96	2
122	127	2
44	131	2
112	123	1
47	91	2
117	122	5
8	66	4
62	125	1
125	130	2
88	115	3
87	88	2
78	99	1
98	98	6
106	132	3
80	116	4
105	107	3
13	58	2
111	112	3
83	122	2
126	128	1
117	134	2
70	101	2
49	49	5
70	88	3
44	44	8
38	86	2
110	111	1
119	120	2
22	23	1
55	120	2
7	17	1
81	82	2
34	36	2
85	86	1
80	91	2
105	116	3
12	36	1
16	17	1
86	87	4
54	93	4
30	37	2
27	31	2
9	11	1
50	50	4
59	93	1
6	66	1
71	123	3
72	82	2
46	71	2
88	118	1
53	54	5
106	130	2
45	83	5
54	77	2
78	79	3
82	87	1
79	80	4
108	110	1
48	81	2
129	131	4
61	78	1
111	120	2
33	34	6
31	35	3
50	61	1
67	96	3
6	22	3
72	90	1
83	87	1
3	5	1
43	87	4
100	124	2
50	80	1
49	131	2
68	124	1
77	79	1
87	97	1
78	100	3
94	97	2
56	124	1
45	94	1
6	15	2
93	94	3
55	55	3
128	129	1
84	87	1
19	20	2
45	47	2
52	96	1
19	22	2
133	134	2
49	95	1
22	37	1
91	108	1
37	37	1
44	50	4
71	126	3
25	114	2
119	121	5
54	56	1
55	62	1
102	127	1
83	84	1
14	15	1
54	81	1
106	125	1
106	111	3
106	131	3
10	17	1
88	112	1
85	85	5
75	104	1
114	115	4
2	2	3
68	122	1
9	16	2
111	116	1
60	112	3
44	99	1
46	46	2
56	68	1
80	82	1
6	34	1
21	22	2
61	69	1
12	13	2
47	101	1
60	72	1
43	96	3
4	5	2
7	10	2
3	49	1
62	96	2
90	91	3
38	75	1
96	123	2
7	14	1
70	129	1
96	96	2
81	131	1
95	96	1
46	47	1
103	104	2
96	111	2
68	108	1
99	131	1
67	83	2
92	116	1
38	72	1
44	78	1
52	53	6
44	54	1
59	124	2
7	113	1
46	49	2
60	69	1
34	47	1
13	33	1
0	0	2
125	129	1
45	107	1
26	27	2
9	15	1
118	121	2
85	124	1
45	106	3
14	104	1
95	124	2
78	82	1
58	66	1
111	113	1
104	105	1
115	117	2
78	91	1
52	54	2
125	133	1
88	119	1
66	68	1
50	130	1
124	130	2
100	116	1
125	127	1
134	135	1
16	18	1
10	14	1
79	92	3
34	35	2
88	93	1
67	118	1
124	128	1
95	98	2
86	122	1
78	88	1
71	73	2
54	106	1
99	101	1
50	106	1
91	93	1
48	79	1
118	131	1
55	130	1
24	30	1
117	130	1
110	132	2
49	91	1
72	75	1
61	101	1
79	98	1
87	115	1
120	124	1
130	132	1
9	23	1
117	119	1
13	13	1
92	132	1
64	120	1
68	125	1
93	108	2
124	132	1
64	71	1
6	51	1
7	16	1
8	113	1
19	21	3
11	17	1
114	120	1
125	135	1
80	81	1
65	111	1
14	34	1
98	121	1
115	120	1
65	71	2
70	90	1
