89	115	1
151	151	3
91	91	4
167	167	8
70	70	7
35	37	5
122	123	3
113	113	4
184	187	5
114	114	5
186	186	1
150	150	4
148	148	13
154	173	1
115	115	8
131	132	1
72	72	12
132	152	1
160	161	3
82	82	3
147	147	10
188	188	4
132	132	8
148	169	3
119	120	2
89	95	3
19	19	9
18	18	4
62	62	3
126	144	3
3	7	2
185	185	3
66	67	5
96	97	1
27	27	3
132	136	1
152	152	4
54	56	1
175	176	8
112	112	5
163	173	3
36	37	1
127	127	6
122	139	3
14	123	1
104	104	3
3	8	1
75	139	2
103	103	4
53	54	3
162	162	5
0	14	3
150	161	3
42	42	3
46	46	5
31	32	2
33	34	5
163	165	3
125	127	1
174	174	4
189	189	6
3	3	9
114	115	11
56	56	2
164	164	10
177	177	3
123	123	5
145	177	3
149	150	2
2	2	3
44	44	4
88	88	11
115	116	6
177	179	3
24	24	5
166	167	2
105	108	2
117	119	1
85	86	2
10	19	4
145	171	7
15	124	2
29	34	5
14	23	5
176	184	1
102	102	3
2	3	1
28	28	3
130	174	1
78	78	5
80	81	4
33	33	3
76	76	4
81	100	1
64	65	2
120	120	5
164	173	2
98	110	3
89	89	9
59	59	7
16	17	4
15	44	4
167	187	2
61	63	4
39	48	4
140	140	3
165	165	15
25	25	1
64	79	1
61	61	8
71	71	9
118	119	2
105	105	8
101	102	4
85	85	6
78	79	4
68	69	3
130	134	3
138	138	2
117	118	1
62	65	1
95	95	5
169	169	13
121	123	2
172	172	9
137	138	1
129	140	2
14	14	13
10	14	1
71	72	5
116	116	4
65	67	2
170	170	1
157	157	12
17	21	2
156	157	7
44	46	5
53	60	3
84	85	1
156	178	1
93	94	9
27	29	4
90	91	1
125	125	7
190	190	3
183	183	1
137	137	8
153	159	2
146	177	2
143	143	5
60	60	2
175	175	1
8	12	1
7	7	1
98	98	7
99	111	1
184	184	2
151	158	2
154	157	2
12	12	9
156	156	4
154	176	3
63	63	8
13	44	6
159	159	6
181	181	3
187	187	4
125	146	2
145	145	2
149	149	5
182	186	6
83	83	9
108	112	1
124	124	1
106	108	1
32	33	4
153	155	1
135	135	2
18	20	1
45	45	10
17	36	2
41	41	2
87	89	1
168	189	3
16	16	4
104	157	1
99	99	3
114	117	6
39	40	4
141	144	2
92	93	4
132	133	3
73	73	3
11	42	1
103	134	1
155	155	9
81	82	2
163	163	6
26	26	3
48	74	3
32	32	4
144	146	4
116	117	4
11	11	5
21	47	1
154	154	2
131	131	3
127	128	6
43	43	3
133	133	2
75	77	2
153	153	4
139	139	4
79	115	5
37	37	7
30	32	2
90	90	11
171	172	1
121	124	2
156	161	4
168	168	2
109	154	6
108	108	3
10	13	2
10	12	5
24	25	6
182	183	2
20	20	5
172	180	2
114	116	1
121	139	1
31	31	3
8	10	2
57	131	2
13	13	6
111	111	3
66	66	4
121	138	2
29	29	6
81	81	5
154	155	4
21	21	3
177	178	3
96	96	7
106	106	4
42	43	1
179	179	4
80	80	3
9	24	2
77	91	4
182	187	1
154	174	3
121	121	3
20	21	1
65	71	6
104	105	2
54	54	4
55	56	1
30	34	2
140	144	11
141	143	2
86	86	6
92	92	2
76	77	2
181	183	1
82	83	7
109	109	2
25	26	1
166	171	1
24	38	2
134	151	3
19	21	1
144	144	7
17	18	1
83	99	3
43	68	2
172	173	2
94	94	2
49	75	2
160	160	2
91	96	3
87	88	5
121	134	1
164	165	2
184	186	1
73	96	4
17	17	4
52	52	2
166	166	1
32	34	2
101	101	5
126	126	3
179	180	1
15	140	3
119	119	3
175	178	2
30	116	1
135	139	2
35	35	2
10	26	2
104	106	5
27	36	1
142	142	9
146	146	5
136	152	3
85	88	4
75	76	1
84	84	2
111	154	3
30	30	1
103	110	2
0	0	5
19	20	1
4	7	1
183	184	2
75	75	1
129	129	1
155	161	3
187	188	1
8	8	1
181	189	2
137	152	1
74	75	2
113	116	2
58	113	3
67	67	1
38	38	6
178	178	3
73	78	1
94	96	4
133	134	2
32	125	1
155	163	3
93	93	5
67	102	1
135	137	1
12	14	1
146	147	1
185	186	1
179	181	1
86	88	2
73	95	2
184	185	1
158	159	2
16	140	2
136	153	2
138	139	3
43	69	4
102	103	3
15	17	3
53	59	2
161	161	1
107	107	1
27	28	1
58	59	2
173	174	3
99	113	2
15	15	10
109	111	2
74	74	2
116	133	1
58	58	1
141	141	5
59	62	1
161	162	2
115	117	4
182	184	2
54	60	1
92	94	1
134	136	1
16	22	2
37	56	2
10	11	3
114	150	1
165	168	1
176	177	2
10	10	1
183	186	4
9	16	1
22	45	4
79	99	1
15	47	2
100	100	1
125	129	1
29	30	1
20	140	1
23	23	1
147	150	1
28	29	2
12	15	1
136	137	1
97	97	2
61	62	5
157	159	1
79	81	1
181	185	3
134	139	1
128	130	1
2	38	1
62	73	1
97	106	1
90	95	1
30	45	3
93	95	1
39	39	2
62	63	1
44	47	1
130	133	3
57	57	2
123	124	1
39	173	3
140	141	1
101	134	1
156	158	1
145	150	1
110	110	1
38	45	1
66	68	1
16	26	1
122	122	1
77	83	1
151	154	1
109	110	1
19	35	2
109	112	1
142	143	2
187	189	1
82	84	2
104	120	1
175	177	1
176	176	2
156	163	1
13	124	1
40	40	4
146	149	1
130	130	2
77	77	1
80	108	2
16	46	1
53	53	1
126	130	1
58	60	1
9	23	1
30	147	1
65	113	2
147	148	2
118	118	1
95	107	1
100	101	1
71	77	1
78	101	1
169	170	1
77	86	1
114	151	1
171	179	1
172	176	1
6	8	1
1	1	1
129	138	1
143	144	1
42	69	1
167	168	1
69	70	1
186	187	1
182	182	1
139	140	1
101	112	1
74	102	1
