119	119	20
134	134	34
71	71	19
104	104	20
94	94	20
100	145	1
128	129	8
121	121	19
66	68	3
82	82	23
59	61	6
29	61	4
74	74	11
48	48	8
102	102	10
69	70	2
49	49	13
9	72	2
92	93	9
134	135	12
130	130	26
12	13	1
58	97	1
15	15	10
16	132	8
70	70	2
41	74	1
64	72	2
86	86	7
38	38	14
79	79	11
105	105	11
89	95	6
138	138	11
66	66	12
98	98	16
143	143	13
24	24	9
123	123	22
135	135	8
51	51	9
131	138	8
20	20	22
37	37	10
117	117	28
98	121	2
38	39	12
96	126	2
105	135	4
59	59	13
42	42	5
82	83	9
92	92	5
113	113	16
67	74	5
81	81	10
0	0	6
18	18	16
32	49	5
76	76	8
22	22	32
80	80	18
50	51	16
18	19	7
101	101	11
114	134	3
114	117	4
107	107	14
24	25	4
144	145	9
118	118	21
57	57	15
90	91	9
29	82	6
36	36	13
139	139	8
41	41	13
134	139	2
29	29	18
40	40	10
118	120	8
10	119	4
125	127	3
110	111	7
106	107	4
25	26	9
30	126	1
21	21	13
87	103	4
103	103	15
131	132	7
57	58	3
20	66	5
9	9	14
64	64	9
17	17	10
56	56	8
125	128	4
21	22	3
30	30	9
129	129	26
136	137	12
8	8	15
124	124	17
22	23	1
143	144	7
125	125	14
100	100	14
128	128	24
95	95	11
32	82	2
127	130	2
36	37	4
115	116	11
144	144	13
59	60	9
20	21	2
106	106	5
107	131	1
31	31	9
89	126	3
141	142	5
120	130	1
26	26	17
11	11	25
127	128	6
75	75	12
110	110	13
122	122	17
2	2	13
116	116	4
61	61	15
40	41	4
123	124	3
97	97	9
120	120	17
111	134	2
26	27	5
53	53	11
99	100	5
10	10	7
83	84	5
46	48	4
89	89	10
55	55	7
122	123	9
89	125	3
99	99	20
146	146	7
136	136	8
88	90	1
6	6	2
121	122	10
87	95	4
90	90	17
32	36	3
89	93	4
24	99	4
126	126	25
79	80	7
118	119	17
83	86	1
141	141	21
112	113	4
25	25	23
142	142	8
99	101	9
129	130	8
114	115	3
33	33	20
115	115	13
119	120	8
136	139	3
125	130	2
39	39	19
23	23	19
62	62	9
113	114	4
127	127	11
35	35	5
68	72	3
100	118	2
54	54	6
126	141	6
114	122	1
19	19	15
90	115	3
72	95	3
35	52	1
25	27	3
32	33	10
5	14	1
26	132	2
132	133	5
127	129	14
74	76	2
134	136	4
13	14	3
16	16	9
128	130	3
133	133	23
109	109	8
105	107	4
58	58	11
56	69	3
108	110	1
10	52	2
91	91	13
93	95	1
89	90	14
99	102	3
74	128	2
60	60	7
85	85	4
73	73	12
54	55	11
96	96	14
83	83	9
4	127	1
108	108	9
47	47	7
85	89	2
78	78	6
84	84	4
145	145	11
4	4	15
111	111	11
125	139	3
39	40	5
124	131	2
61	62	4
111	113	3
116	117	5
93	94	6
88	91	2
36	97	1
94	95	7
47	65	2
126	129	3
2	4	5
21	64	4
138	139	5
15	16	5
101	108	2
52	52	8
67	68	9
107	110	4
33	35	1
114	114	9
92	95	3
114	118	1
131	131	14
134	140	4
90	93	5
95	96	13
66	67	3
135	136	4
69	69	6
28	28	16
80	81	5
39	126	2
16	77	3
9	10	6
88	88	10
10	11	10
61	77	2
60	74	2
86	88	1
25	135	3
112	112	4
23	24	2
74	95	6
15	33	1
68	68	14
105	106	1
1	1	5
24	26	4
139	141	3
140	141	5
137	137	8
106	112	3
17	18	8
30	57	1
65	66	7
142	143	3
28	29	7
127	141	1
55	68	2
29	53	1
100	101	7
121	123	4
92	97	6
106	141	2
27	28	5
133	140	2
133	135	6
71	72	3
76	128	3
119	121	2
77	85	1
5	5	6
27	27	11
68	69	6
13	13	13
37	38	5
77	77	6
56	70	3
3	23	2
80	122	5
8	9	3
101	102	7
42	43	4
55	64	6
43	43	4
87	87	1
36	39	2
86	87	1
8	106	5
31	32	4
89	94	1
30	33	1
67	103	1
65	65	5
126	130	2
58	130	2
124	125	5
145	146	1
132	132	14
96	103	2
41	42	6
105	132	2
32	32	12
3	3	4
117	118	10
0	33	3
134	138	1
9	94	3
19	55	1
18	21	2
38	41	4
5	32	1
98	119	1
117	119	1
3	13	2
12	21	2
137	139	2
23	26	1
73	74	2
35	36	3
19	22	3
30	31	2
11	126	2
105	109	1
30	123	3
93	93	6
95	104	2
29	30	3
19	21	2
2	31	3
72	74	2
47	69	1
102	103	9
13	134	1
64	130	3
62	63	2
34	36	1
55	106	5
39	41	3
72	87	1
96	109	1
87	88	3
140	140	14
47	57	1
32	47	1
126	127	3
20	36	1
103	141	1
103	133	1
81	82	2
123	128	2
70	84	1
9	26	3
3	4	2
51	53	2
118	123	2
120	121	2
62	70	3
1	9	2
111	121	1
109	110	1
124	126	2
48	49	3
1	4	3
50	50	6
115	117	1
137	138	2
108	109	1
126	135	2
63	70	3
63	63	4
20	24	2
72	72	6
53	54	3
6	90	1
118	140	2
128	134	3
113	115	1
73	76	1
89	106	2
96	97	3
6	11	1
34	34	3
66	100	1
16	17	4
19	37	3
34	35	5
61	63	1
49	50	2
38	77	3
66	92	2
74	75	3
70	134	2
70	74	1
95	120	3
30	131	1
89	101	4
78	79	2
63	64	3
1	11	4
19	130	1
62	64	4
24	27	1
93	96	1
25	71	2
101	129	2
22	24	2
133	139	3
124	134	1
42	105	4
133	134	4
131	136	1
125	126	2
75	76	2
17	30	2
68	70	1
118	122	1
11	25	2
16	53	1
125	134	2
21	55	1
111	112	1
0	1	1
107	109	2
1	6	1
8	65	1
8	41	1
97	98	1
43	49	1
110	116	1
55	128	1
31	105	1
19	20	2
93	126	1
62	125	1
95	99	2
95	123	2
6	25	1
110	133	1
9	139	2
106	135	1
101	103	2
24	32	1
33	34	1
75	107	2
10	142	1
18	68	1
1	37	1
119	131	2
6	9	3
38	40	2
107	116	1
14	14	2
10	77	1
53	55	1
124	141	1
59	125	1
2	3	2
2	11	1
87	91	1
11	121	1
117	136	1
79	93	1
57	70	1
66	75	1
99	118	1
95	136	1
107	108	1
14	15	1
96	107	1
49	53	2
113	120	1
67	67	1
136	138	1
76	78	1
17	121	1
95	129	1
48	65	1
67	117	1
14	21	1
5	12	1
144	146	1
14	16	1
58	59	1
98	100	1
