134	134	11
129	130	7
123	141	4
42	42	12
135	135	12
68	70	1
149	149	11
65	65	16
86	94	6
19	19	13
81	81	8
91	91	15
49	49	17
129	129	16
84	84	13
109	109	19
82	82	12
41	41	9
0	0	9
144	144	6
33	47	2
51	51	19
145	145	8
35	55	3
67	67	3
39	39	13
77	78	7
121	123	2
79	79	23
37	71	6
105	154	1
87	144	4
3	3	20
23	23	10
73	73	11
63	64	3
10	23	2
32	32	12
12	12	9
86	86	17
103	104	4
89	89	9
33	54	2
65	75	3
87	109	7
6	6	11
90	91	6
111	112	4
4	4	8
97	98	2
119	119	10
125	125	7
93	93	5
4	51	3
92	92	16
118	118	8
153	153	4
75	83	4
139	140	5
136	137	3
117	117	4
46	47	5
120	120	5
35	36	5
69	69	14
20	20	9
80	80	10
154	156	4
43	151	3
157	157	10
30	30	4
115	116	4
127	127	13
33	33	15
33	34	3
7	28	1
47	94	1
29	29	13
27	107	2
99	99	8
18	36	4
87	148	5
46	46	6
122	136	2
108	108	3
130	130	13
87	87	8
47	150	6
66	66	6
122	122	13
77	77	12
9	10	5
39	40	9
125	147	3
101	101	13
67	68	7
136	136	6
124	124	13
148	148	5
5	8	4
78	96	1
56	62	2
111	111	18
122	123	12
98	98	13
25	25	16
24	24	11
65	128	1
88	88	11
47	47	10
44	44	4
80	86	1
36	36	12
106	110	1
102	102	10
7	7	15
79	81	4
132	132	13
138	149	3
1	2	3
12	38	2
34	61	1
69	110	3
28	29	2
114	114	9
30	126	1
26	26	8
11	12	17
72	72	2
141	152	3
112	112	2
123	124	2
75	85	3
68	69	19
35	53	1
114	115	14
75	75	9
95	96	15
137	137	11
43	43	8
145	146	2
35	51	4
142	146	3
37	37	12
138	138	13
1	7	3
86	122	2
126	126	3
94	94	22
146	147	3
3	51	2
112	113	4
12	13	10
150	150	13
19	35	1
139	139	8
38	38	5
104	104	8
26	27	2
95	95	3
106	106	14
132	133	3
126	127	8
109	133	6
107	158	4
137	154	3
2	2	21
157	158	3
11	11	3
44	158	2
21	21	10
8	28	1
5	42	3
66	98	1
116	117	6
15	15	12
152	152	5
90	90	7
138	148	8
88	112	2
159	159	4
94	95	3
50	51	3
115	115	4
119	120	7
100	101	4
121	121	19
6	7	5
38	66	3
62	63	3
88	144	2
31	32	3
128	128	5
68	110	2
118	133	6
101	129	2
83	83	10
64	64	8
27	28	5
5	5	12
56	56	2
109	121	1
101	158	1
13	52	3
122	144	5
109	110	6
116	116	9
46	151	3
108	109	6
98	99	5
120	144	2
83	84	9
85	95	4
142	143	2
105	105	4
106	134	1
129	139	1
113	113	3
103	142	2
23	63	3
8	8	8
84	85	3
40	41	3
69	70	3
154	154	11
131	151	4
121	132	3
78	78	8
105	112	2
45	46	4
153	154	2
101	159	2
17	18	6
35	35	3
43	44	2
103	103	5
63	63	9
103	144	4
156	156	3
150	151	6
43	51	3
142	148	2
77	155	2
104	148	1
2	127	2
151	151	4
134	135	1
7	47	5
151	152	13
141	142	5
120	154	1
131	131	8
71	91	1
128	143	4
29	30	1
12	39	1
55	56	3
105	135	2
16	20	2
146	146	8
123	123	8
131	132	4
95	98	6
71	72	2
100	100	18
99	134	1
42	43	2
108	113	2
93	95	2
51	54	3
51	52	7
133	133	3
52	67	3
121	151	1
41	42	5
13	14	6
140	140	3
87	142	5
152	154	5
123	136	5
66	110	3
103	134	1
137	138	9
85	85	6
123	137	1
113	121	1
45	45	4
10	10	7
85	118	2
133	134	2
106	136	1
142	156	1
96	96	3
117	120	1
16	16	6
15	16	1
40	40	14
14	49	5
113	132	2
31	31	5
117	130	1
158	159	4
46	48	2
22	22	3
124	142	4
16	30	2
25	26	2
81	153	1
54	54	4
14	14	6
1	1	11
92	114	2
101	102	2
13	136	4
104	151	3
140	142	2
27	27	4
39	51	5
155	155	5
80	81	3
105	117	2
48	90	2
42	53	2
107	117	1
147	147	1
152	157	1
56	63	1
55	55	6
37	38	3
0	1	1
154	155	2
36	37	2
124	125	3
104	131	2
68	71	5
140	150	3
10	13	1
125	126	5
127	128	4
10	11	8
80	84	1
35	49	1
107	107	3
88	89	4
77	138	1
17	17	2
18	20	1
16	17	3
34	34	4
80	93	2
81	82	3
45	50	1
104	135	2
147	148	1
121	140	3
14	46	1
22	30	2
68	68	3
102	105	1
158	158	4
149	150	3
108	119	1
76	76	1
141	156	4
131	149	2
38	144	2
109	112	2
116	131	1
121	133	3
83	96	2
100	157	1
39	66	3
141	141	1
53	53	2
113	115	1
117	155	3
50	50	6
139	146	2
135	136	3
5	41	1
68	97	2
19	20	1
22	23	1
34	65	2
122	145	3
30	32	3
125	127	5
130	134	2
48	48	4
2	30	4
28	28	5
9	11	1
48	50	1
81	88	2
23	24	1
101	124	1
85	140	1
102	131	3
111	113	2
143	143	4
52	71	3
2	3	1
15	46	1
128	129	2
107	143	1
139	141	3
70	70	3
13	54	2
67	95	1
146	148	3
84	118	1
144	145	2
117	143	3
101	136	1
140	154	1
13	13	2
82	83	2
118	144	2
12	50	1
30	52	4
2	42	3
20	21	2
110	112	1
47	48	1
26	105	1
115	129	3
91	92	1
110	110	3
18	43	2
67	69	2
153	156	1
82	130	2
89	91	2
38	39	4
119	146	1
71	71	1
22	133	1
32	128	1
31	49	2
121	122	3
65	66	2
0	26	1
95	134	2
105	138	1
32	49	3
98	125	2
0	158	1
120	145	3
92	158	1
83	85	2
89	90	2
136	153	2
131	135	4
65	117	2
62	67	1
84	94	1
87	145	1
19	140	2
38	42	1
20	24	1
148	149	2
27	41	3
103	128	1
4	54	1
43	53	2
77	79	1
97	133	1
13	134	2
18	18	1
30	68	1
73	105	1
77	154	1
89	97	1
110	111	1
48	49	1
81	83	1
9	9	1
156	157	1
40	51	1
93	114	1
24	25	1
6	75	1
6	40	2
63	72	1
93	94	1
29	40	1
77	88	1
135	137	1
44	50	1
144	149	1
100	158	1
38	51	1
140	141	1
67	71	1
