37	37	8
186	189	3
74	74	6
18	18	5
111	193	1
126	127	4
36	55	3
17	17	3
145	163	1
15	17	6
99	150	5
138	139	9
27	27	17
80	80	12
185	195	5
5	16	2
102	102	2
77	78	1
35	35	5
174	174	9
169	169	13
128	128	10
192	192	11
40	42	7
179	179	13
154	168	4
99	99	10
119	119	7
152	153	3
121	121	8
113	113	7
47	47	9
175	175	9
139	155	2
144	146	3
55	55	7
171	171	4
132	132	10
121	195	5
192	193	5
74	75	3
99	149	1
153	153	8
164	164	5
167	167	23
16	30	2
185	185	9
154	154	14
170	170	5
28	28	7
26	27	2
31	32	9
173	190	10
166	166	5
128	194	4
85	86	3
139	139	11
156	156	16
107	107	9
29	29	13
39	39	4
192	194	4
38	39	12
146	146	7
111	111	8
183	183	17
72	73	6
31	31	21
9	12	11
136	136	13
122	122	9
148	169	2
104	106	1
180	182	5
103	103	7
167	168	7
39	84	3
177	182	3
108	108	14
81	81	6
143	143	8
179	180	9
3	5	8
11	11	4
155	156	1
125	125	10
161	161	9
30	30	9
9	9	11
124	125	6
77	77	1
59	59	8
61	162	7
132	145	4
142	177	1
23	24	4
110	110	3
178	179	3
34	35	9
110	190	2
188	196	1
76	76	6
68	118	2
107	178	4
51	51	8
109	109	12
82	82	10
147	148	4
28	56	3
116	145	3
104	104	18
194	194	8
39	40	14
185	186	3
176	177	6
170	172	2
101	106	2
72	72	17
114	193	1
4	42	1
2	161	3
10	10	12
181	182	7
38	38	7
62	62	3
197	197	8
21	94	5
144	157	3
63	63	3
173	173	13
184	184	5
153	154	6
118	153	3
57	58	3
172	187	2
109	191	1
13	13	16
3	8	7
2	104	2
99	144	4
94	179	3
134	134	15
133	133	7
94	95	3
158	180	3
196	196	19
90	90	6
4	4	9
145	146	7
24	42	3
12	14	2
102	104	6
61	61	4
8	8	6
183	184	11
36	36	27
148	171	4
32	32	6
132	155	1
89	89	5
168	169	3
58	58	3
105	105	5
28	192	2
48	48	7
14	14	12
54	54	4
101	112	1
171	172	1
34	34	7
180	181	2
186	186	14
21	21	4
26	26	4
112	116	3
146	147	3
106	107	10
129	197	4
64	64	4
120	121	1
41	42	2
44	44	18
77	80	3
40	41	10
98	98	2
127	127	8
27	28	7
158	159	11
93	158	1
12	12	20
2	59	3
50	50	9
6	8	4
94	94	14
45	45	5
64	65	5
26	73	3
30	31	5
140	153	3
68	68	4
180	180	4
176	176	12
52	52	14
56	56	8
1	105	1
148	148	10
182	182	4
157	157	10
163	194	1
39	46	4
76	77	2
189	189	12
16	17	5
46	46	8
20	24	1
60	60	1
71	71	5
56	87	4
26	72	4
70	70	6
150	150	13
117	164	1
59	166	1
102	103	4
28	57	6
106	106	5
103	104	6
117	131	1
140	140	3
120	120	7
61	161	2
12	31	2
168	180	2
56	148	2
113	185	2
118	118	2
178	178	4
65	65	3
182	183	5
114	115	5
83	83	5
40	40	3
190	192	7
119	120	3
47	55	2
171	186	1
123	174	5
189	190	1
107	109	3
173	178	2
163	164	11
26	59	5
115	115	8
100	103	3
191	191	3
157	158	12
172	172	12
138	163	2
19	19	8
66	66	8
187	187	7
2	7	2
138	138	4
63	64	6
163	166	1
1	1	2
169	174	2
193	193	10
23	31	1
60	63	3
3	106	7
67	168	1
134	135	10
43	43	9
146	149	2
117	166	2
159	160	3
108	110	2
110	111	9
151	151	13
42	43	4
64	174	2
33	34	1
159	161	2
157	160	4
190	190	5
31	34	2
126	126	8
135	136	8
119	180	2
4	8	1
160	160	9
122	123	2
96	96	7
163	163	3
109	185	2
131	131	7
36	88	3
132	133	2
116	116	6
69	89	2
147	147	6
88	88	4
55	84	2
65	66	1
31	33	1
142	142	2
112	113	2
2	2	5
104	105	1
40	83	3
5	58	3
56	89	1
130	167	3
20	21	8
74	166	1
176	178	3
22	22	15
44	160	3
145	145	4
29	31	2
6	73	4
185	197	5
67	67	6
15	15	6
111	112	7
115	116	2
12	33	1
88	139	4
175	176	3
50	51	5
133	134	1
20	20	5
49	49	7
187	188	10
119	137	8
108	113	1
135	135	9
170	171	2
158	158	8
149	149	4
143	144	1
2	74	2
144	144	10
108	111	3
155	155	2
20	22	3
112	174	5
115	170	1
29	30	1
80	81	2
174	189	5
25	73	2
18	20	1
154	155	2
162	163	1
42	81	1
100	188	3
42	42	6
121	122	3
100	100	5
172	182	2
6	6	11
34	55	4
162	162	3
3	3	1
93	93	4
168	186	3
186	187	5
169	170	4
168	168	6
117	117	3
123	176	1
120	127	3
116	134	2
73	87	7
43	119	1
95	95	7
141	141	7
125	126	6
136	178	2
24	80	4
118	167	3
101	101	4
12	13	2
3	86	2
39	53	2
122	145	1
178	180	1
34	36	3
47	48	3
53	53	8
109	112	2
159	159	6
16	16	9
17	31	1
131	134	4
39	56	5
56	84	4
123	123	5
193	194	8
163	179	5
173	175	2
33	33	5
38	53	2
41	41	3
5	7	8
124	126	3
45	46	2
0	8	2
1	106	1
37	56	3
74	163	1
130	135	1
115	127	1
70	71	1
4	43	5
3	20	1
23	81	5
70	193	5
77	81	2
105	106	2
188	189	5
54	55	3
69	69	5
147	166	1
28	29	2
57	196	2
123	183	5
153	168	1
12	42	2
68	143	4
135	137	2
146	150	6
134	143	4
64	167	1
152	182	2
129	129	4
151	154	2
26	75	1
5	5	2
89	90	2
158	179	1
45	130	1
25	88	5
93	94	4
4	85	3
101	105	2
122	193	1
167	169	3
9	16	2
32	48	1
195	196	2
38	87	1
164	165	3
127	128	2
68	101	1
10	11	2
43	58	1
5	8	2
61	164	1
144	145	1
93	157	2
133	152	2
14	29	1
19	40	1
67	68	4
124	124	5
177	177	1
76	78	2
19	22	1
32	81	3
100	101	3
123	124	4
195	195	9
0	5	1
177	178	2
162	166	3
76	166	1
125	191	1
86	86	1
44	132	3
115	142	1
129	132	3
23	23	4
156	157	4
130	130	7
5	139	1
107	191	2
148	151	2
7	67	2
175	177	2
82	85	2
160	179	2
152	154	1
138	157	2
0	0	1
62	63	3
17	18	2
44	45	2
5	74	1
14	15	2
63	167	2
181	181	2
165	165	2
173	186	1
119	153	3
150	190	2
170	187	1
148	166	1
173	177	1
38	46	2
185	192	2
58	121	1
35	59	5
101	102	2
26	28	2
32	33	3
25	25	2
137	175	2
165	166	2
61	63	2
93	179	2
53	55	1
142	154	1
79	79	2
101	185	1
45	129	1
61	64	1
141	197	1
172	195	3
18	19	3
97	97	2
188	188	2
57	57	3
99	102	1
149	150	1
6	7	2
151	152	2
128	129	1
110	137	1
47	49	1
7	7	3
132	154	1
155	157	2
18	39	1
31	56	1
48	52	2
123	129	2
36	50	1
130	132	1
101	111	2
137	137	2
2	62	1
79	84	2
25	27	2
174	176	1
174	178	1
132	150	1
130	150	4
111	114	1
61	86	1
42	51	2
31	48	1
120	123	1
134	153	2
17	32	1
118	119	1
111	149	2
11	12	1
65	68	1
97	98	1
6	90	1
160	186	2
167	180	1
109	110	2
9	10	1
99	165	1
166	167	1
47	53	1
4	5	1
136	137	1
164	172	1
140	141	1
124	171	1
131	132	1
114	114	1
123	178	1
184	194	1
1	109	1
24	24	1
25	30	1
19	67	1
99	146	1
140	147	2
131	144	1
84	160	2
129	172	1
140	172	1
142	189	1
88	89	1
