13	22	4
121	122	4
75	84	2
18	18	12
114	114	18
94	94	9
96	96	9
115	115	16
134	134	19
100	112	4
129	129	22
138	138	20
140	140	16
10	11	1
124	124	22
95	95	15
16	20	5
85	85	9
137	137	22
126	127	11
133	133	24
131	132	10
123	123	30
98	99	9
122	122	16
100	100	12
37	37	12
108	108	7
22	22	9
131	131	31
122	123	4
36	36	8
137	138	21
6	15	2
130	130	26
126	126	41
87	87	13
106	107	5
79	80	5
16	16	4
3	4	3
134	135	6
119	119	5
135	135	24
28	29	3
89	89	10
83	84	6
1	1	4
89	90	4
102	102	14
102	109	2
22	23	3
18	34	5
71	76	4
128	128	28
110	111	1
137	139	4
117	117	32
15	16	4
99	99	9
24	24	4
32	32	14
113	113	12
117	126	3
4	117	4
19	20	8
75	75	7
74	74	17
7	8	3
35	35	7
2	2	6
6	7	1
121	121	13
4	5	2
34	34	9
92	92	6
127	128	10
97	97	13
130	136	2
110	110	16
103	103	14
38	38	8
9	14	1
7	7	3
130	139	3
21	21	14
106	106	17
76	76	11
139	140	7
132	134	3
139	139	16
86	86	10
112	112	18
36	37	5
95	96	1
81	82	3
4	4	10
125	125	29
98	98	5
108	109	7
114	115	3
111	111	4
7	9	2
30	31	2
11	12	6
102	107	2
77	110	5
130	140	6
113	115	1
129	130	2
98	109	2
138	140	3
101	102	6
87	88	4
127	127	19
97	98	7
93	93	2
5	5	22
94	116	3
94	95	4
133	134	5
118	119	6
100	101	11
132	132	21
123	124	6
17	17	10
73	75	4
120	123	3
21	22	7
140	141	1
107	107	6
101	101	13
86	88	3
109	110	3
109	109	9
119	120	7
71	72	1
107	111	3
117	120	3
19	37	2
88	95	1
113	114	1
16	19	1
37	38	4
93	129	2
31	31	4
127	129	6
13	13	11
91	92	2
84	84	4
15	32	3
29	32	2
138	139	7
84	85	6
90	90	4
28	28	3
10	10	1
128	129	1
80	81	4
116	116	10
25	25	2
123	139	1
73	73	7
79	110	4
30	30	5
136	137	7
73	74	1
77	78	2
75	93	3
78	84	4
10	12	1
130	131	3
124	126	4
104	104	10
129	140	4
13	14	4
125	126	8
98	100	7
90	91	3
29	30	1
124	139	3
17	19	6
82	82	6
27	28	3
101	107	3
75	76	5
97	99	4
120	120	4
4	116	1
83	85	7
3	3	6
88	91	3
83	86	2
124	131	2
78	78	2
5	6	4
33	33	5
103	125	2
29	29	5
80	80	6
12	12	2
91	91	8
88	88	4
19	134	1
0	0	3
21	37	2
24	25	2
16	17	3
76	77	1
14	14	2
112	113	3
82	86	1
108	110	1
124	125	14
77	77	4
11	11	2
81	81	1
27	27	3
72	75	2
74	75	4
77	84	1
19	19	4
34	36	1
91	94	2
74	100	1
3	9	2
78	85	2
71	71	2
25	92	3
0	1	3
121	123	2
78	79	5
5	7	1
74	78	3
93	94	4
33	34	1
23	23	2
117	118	1
72	72	9
93	98	1
104	105	1
93	116	1
116	117	2
99	126	1
4	30	1
82	83	4
126	138	1
15	15	1
1	2	4
11	14	1
36	38	1
23	24	2
86	87	1
132	139	1
94	127	1
35	36	2
78	86	1
71	101	2
102	103	1
18	20	1
131	138	1
100	109	1
88	89	2
72	73	2
136	136	5
115	116	3
133	138	1
83	83	3
135	136	2
13	15	1
96	97	2
111	112	3
129	131	2
129	137	2
117	119	2
126	128	1
82	85	4
12	91	1
6	6	3
128	140	1
133	136	1
105	105	2
32	33	1
95	115	1
76	93	1
14	18	2
128	136	1
5	116	2
74	116	2
91	110	1
11	36	1
4	29	2
77	93	2
27	34	1
133	135	1
95	128	1
9	13	1
8	8	1
15	33	2
97	108	1
9	9	1
18	35	1
95	114	1
79	79	1
20	20	1
