126	126	8
86	86	13
0	1	5
132	132	9
106	107	10
93	93	4
27	28	2
117	126	2
131	131	11
106	106	3
74	75	7
127	127	14
137	137	7
139	139	2
75	75	3
74	74	6
16	22	3
20	21	6
134	135	3
134	134	10
88	88	8
136	136	4
101	101	19
92	92	6
129	137	1
119	119	8
140	140	6
1	7	6
105	106	10
81	81	3
112	112	10
102	102	7
130	130	15
107	107	9
128	129	2
3	5	3
26	108	3
115	115	6
13	13	6
10	10	8
30	31	1
90	90	4
95	95	8
5	108	1
13	26	3
103	104	2
37	37	3
100	116	3
120	120	7
113	113	4
85	85	6
23	24	5
100	102	2
132	133	5
81	82	2
82	84	3
90	91	1
20	25	2
12	14	4
107	108	2
33	34	3
84	84	4
75	76	1
86	89	3
120	121	2
101	110	1
84	87	1
105	105	6
72	72	7
101	113	1
121	121	6
72	73	2
118	119	4
78	78	6
24	24	4
22	22	3
103	103	5
138	138	8
124	124	3
79	79	3
98	98	4
91	91	6
126	131	3
11	14	3
30	30	2
8	8	2
77	77	6
111	111	7
133	134	2
133	133	2
135	135	6
12	12	5
23	23	6
99	116	2
104	106	5
117	118	1
81	85	6
85	92	1
18	115	2
111	139	4
107	109	2
82	82	6
83	83	7
28	29	2
76	76	6
16	17	8
87	87	6
131	139	2
109	110	3
129	129	9
118	118	7
80	92	4
122	122	9
22	75	2
21	21	1
85	117	1
97	98	1
117	117	2
25	76	2
27	38	2
91	114	2
110	110	3
94	94	3
6	12	1
83	84	2
128	128	2
80	100	1
18	18	6
81	100	1
89	89	7
27	27	2
108	109	2
16	16	1
109	111	1
0	3	4
100	100	5
28	28	6
125	125	2
4	4	3
119	125	2
10	11	2
124	125	2
129	138	1
2	2	3
119	120	1
99	100	2
27	30	1
9	9	2
137	138	2
121	122	4
126	129	4
5	90	1
111	112	2
20	20	8
33	33	5
101	118	1
137	139	2
79	83	3
95	99	2
74	77	1
104	104	4
109	109	6
13	66	1
11	17	1
79	125	1
32	32	6
19	19	1
114	114	4
110	111	3
16	18	1
116	116	3
22	23	1
123	123	1
122	123	2
13	14	2
98	134	1
93	94	1
115	116	1
98	99	1
71	71	5
38	90	2
37	71	1
16	21	1
11	23	2
22	25	2
75	77	3
136	137	2
11	16	1
31	31	1
117	120	1
71	77	1
27	32	1
8	11	1
114	115	1
5	5	1
126	127	1
125	126	1
27	115	1
80	93	2
6	6	2
96	96	1
81	94	1
19	106	2
6	17	1
108	108	1
125	127	1
19	116	2
71	78	1
0	0	1
10	107	1
80	80	1
88	92	1
90	126	1
125	129	1
127	131	1
120	122	1
92	109	1
