122	122	4
3	3	3
105	105	3
101	101	5
84	86	7
11	16	3
73	73	10
44	44	4
16	16	3
9	10	3
35	35	3
53	53	7
58	85	2
57	65	1
107	110	4
108	108	4
67	67	9
75	79	3
55	56	5
8	8	2
103	103	4
121	121	5
65	100	3
43	43	4
93	93	2
10	37	4
104	104	8
62	62	4
10	122	2
127	128	2
2	3	5
96	96	7
24	25	3
110	110	8
63	63	6
10	11	1
101	102	1
124	124	9
131	131	1
28	28	5
115	115	2
99	99	3
86	86	2
33	33	6
5	5	7
104	105	2
86	116	1
120	120	4
84	85	4
111	111	8
114	115	4
116	117	1
13	13	1
122	129	2
66	92	1
113	115	3
90	90	3
99	100	1
55	121	2
135	135	1
68	118	5
7	8	4
52	52	6
85	85	3
75	75	7
123	123	2
74	126	8
67	68	11
37	37	4
74	74	4
23	23	2
25	25	3
84	109	2
64	64	7
52	134	1
44	69	4
79	79	3
21	21	4
36	36	1
85	87	5
49	54	3
112	112	3
32	32	1
127	127	1
57	57	1
132	133	3
117	117	3
67	98	4
78	78	2
106	107	1
22	23	1
71	71	3
72	72	2
42	54	3
129	129	5
107	107	5
119	119	11
14	107	3
44	45	6
94	94	5
6	6	1
67	125	2
89	89	3
31	31	1
43	46	3
118	118	4
52	53	4
86	87	1
95	96	1
29	29	1
10	75	4
92	92	8
58	58	5
70	70	1
3	5	2
93	114	2
69	69	2
11	12	2
82	82	1
98	98	5
23	24	4
115	129	4
126	126	4
72	73	3
44	115	1
83	130	2
27	28	2
77	100	3
83	125	1
20	52	1
18	18	4
47	47	4
50	50	3
83	85	2
121	122	1
2	103	1
73	83	1
120	131	2
77	78	2
62	76	1
3	4	2
14	14	3
55	55	2
130	130	1
9	9	1
13	27	1
112	113	1
94	95	1
59	59	4
2	2	4
86	88	2
116	116	2
38	38	2
36	60	1
7	53	1
87	87	5
130	131	1
77	80	1
5	12	2
120	127	1
1	1	2
77	81	2
134	134	2
27	122	2
0	0	1
47	112	2
60	60	2
79	90	3
56	56	1
89	90	1
59	81	1
55	58	1
131	133	2
119	133	3
17	112	1
14	17	2
77	127	1
91	91	3
125	125	1
10	10	2
54	57	2
43	56	1
22	22	3
128	128	7
24	24	3
33	34	1
77	77	1
54	56	1
73	77	1
18	19	2
42	42	2
34	34	3
107	115	1
106	106	1
33	97	2
12	12	1
1	2	1
8	14	1
37	38	1
7	9	1
44	125	1
7	7	2
11	11	1
96	108	1
74	76	2
19	19	1
43	63	1
27	95	2
70	121	1
75	103	1
87	134	1
8	25	2
47	118	2
65	65	1
62	63	1
116	121	1
129	131	1
108	110	1
56	84	1
132	132	1
45	45	1
120	134	1
92	108	1
57	82	1
57	121	1
34	50	1
124	128	1
128	129	1
76	76	1
118	133	1
