70	70	4
78	78	11
103	104	4
84	84	4
9	9	6
135	135	12
125	146	2
119	120	6
3	3	10
14	18	2
40	41	7
55	55	8
75	75	3
85	85	3
109	110	3
137	163	2
123	123	2
37	38	4
33	33	6
99	100	2
17	17	5
24	24	8
67	67	4
1	1	11
159	160	3
15	16	2
112	112	3
80	105	4
144	144	11
73	73	8
126	132	5
131	131	6
154	154	7
128	128	6
39	40	5
35	35	14
37	37	13
102	102	3
44	44	11
117	118	3
160	160	2
159	159	13
159	163	1
167	167	6
147	147	5
86	86	3
45	45	6
112	136	1
144	149	2
11	25	2
21	21	7
119	119	6
80	80	4
91	95	2
18	21	2
20	20	7
51	52	1
26	26	9
110	110	14
20	22	2
49	52	3
2	2	13
34	34	13
76	111	2
78	112	2
131	132	5
40	40	5
25	25	5
18	18	16
43	43	19
150	155	1
109	109	7
155	155	2
36	36	6
33	34	5
144	157	2
120	120	6
48	48	2
101	104	4
37	43	3
6	6	9
111	111	4
96	96	2
100	100	4
50	50	3
93	115	3
127	129	5
98	98	2
52	52	6
10	10	5
74	75	5
27	27	10
35	38	2
57	57	2
6	7	3
124	124	2
23	39	1
4	4	4
165	165	3
126	126	9
148	148	5
53	53	5
168	168	2
127	127	6
22	38	1
8	8	6
167	168	2
96	97	2
36	37	6
74	74	5
153	153	3
134	134	5
127	130	1
10	19	1
63	63	1
66	97	2
123	143	3
1	2	6
87	89	3
115	116	4
81	81	1
65	66	1
16	18	2
110	111	2
15	15	8
146	147	1
162	167	1
148	154	2
46	48	3
158	159	1
132	132	4
19	23	4
151	151	2
6	8	4
125	125	7
39	41	1
69	69	1
163	164	4
169	169	1
82	111	1
48	49	1
90	92	4
87	88	3
86	87	3
7	7	11
142	156	6
80	81	6
64	85	2
125	136	2
55	56	2
139	141	3
114	114	5
56	56	4
138	138	6
79	79	6
9	10	4
90	93	1
105	106	3
11	11	2
108	110	2
113	114	2
47	48	3
137	137	7
129	130	2
121	123	2
24	25	3
144	145	2
132	166	3
42	42	4
62	62	2
71	72	3
34	42	2
131	139	1
124	126	2
137	158	3
71	71	7
129	131	1
165	166	1
7	10	2
41	44	1
57	62	3
130	131	4
126	133	4
122	122	4
19	19	3
49	50	1
51	51	5
93	93	1
16	17	1
38	38	2
106	107	3
17	18	6
23	24	6
141	142	2
169	170	3
54	54	3
133	133	2
130	130	2
121	122	3
50	51	1
54	55	2
25	26	1
121	121	5
143	155	2
83	83	2
82	82	4
117	119	2
157	158	2
16	22	4
101	101	1
154	155	1
114	137	2
112	138	1
76	76	2
156	156	1
122	123	1
123	124	3
96	109	3
101	106	2
149	149	6
140	148	1
20	21	2
126	127	1
125	126	1
41	41	4
124	129	2
152	153	1
102	103	1
162	163	1
18	53	1
145	145	3
22	23	5
5	8	1
17	21	2
162	169	1
75	86	1
166	166	3
132	133	2
155	156	2
107	108	2
150	151	1
53	54	1
103	103	1
99	99	1
151	152	1
71	105	2
146	150	4
92	92	1
16	16	4
11	12	3
0	1	5
97	99	1
37	39	1
23	23	1
65	65	7
77	113	1
97	98	1
159	168	2
52	54	3
100	101	3
135	136	1
104	104	1
108	111	2
115	115	3
117	165	1
41	43	3
116	116	1
145	146	4
28	28	5
129	129	3
43	46	2
118	120	3
3	4	2
3	7	1
158	158	2
88	88	1
151	153	1
87	87	2
44	46	1
164	164	1
7	11	1
14	14	1
91	92	2
69	70	1
160	161	1
12	13	3
108	108	1
101	102	1
162	162	3
47	47	4
7	13	4
67	68	2
105	105	3
52	56	1
98	100	2
130	165	1
38	40	2
76	77	1
69	71	1
136	137	2
159	166	1
138	139	1
147	154	3
42	43	1
67	69	1
119	141	1
66	66	1
125	155	2
35	37	1
93	94	2
5	5	6
89	90	1
83	84	3
14	15	1
161	161	1
128	138	3
146	155	1
11	24	1
137	139	1
133	134	1
52	53	1
0	2	1
6	13	1
79	108	2
125	140	1
136	136	1
97	104	1
111	112	1
49	79	2
34	35	1
118	118	1
148	153	1
120	121	1
79	80	2
39	39	1
107	107	1
1	3	2
120	122	2
13	13	1
65	97	1
150	150	1
47	78	1
22	39	2
90	90	2
7	14	1
95	96	1
78	113	2
58	58	1
63	83	1
107	112	1
64	64	5
121	140	1
13	14	1
76	80	1
94	95	2
79	113	1
118	119	2
64	86	1
41	50	1
44	45	2
149	157	2
66	67	1
98	99	1
142	145	1
122	147	1
33	40	2
22	25	1
0	0	1
170	170	1
106	106	1
46	46	1
