34	34	17
45	45	25
15	15	5
19	19	14
58	58	16
4	4	7
61	61	9
32	32	26
42	42	23
35	36	9
46	47	11
56	57	12
46	46	16
43	43	16
14	15	4
3	3	12
51	51	17
33	33	22
40	40	16
41	41	22
48	48	35
3	45	3
56	56	14
29	29	2
37	37	17
30	30	17
35	35	14
60	60	19
21	21	7
18	18	21
0	0	10
1	2	2
42	46	1
55	55	19
3	46	1
52	52	16
49	49	24
44	44	22
38	39	13
30	32	5
16	16	7
45	46	8
30	31	10
23	23	6
9	9	8
43	44	13
40	42	11
14	16	3
17	47	3
39	39	21
37	38	11
5	5	10
43	57	4
53	53	11
33	34	7
31	31	16
52	55	6
24	24	12
50	50	20
9	10	3
47	47	11
36	37	6
20	21	7
7	7	5
1	1	11
59	60	8
44	45	3
40	41	16
60	61	8
40	52	4
14	14	10
48	60	3
12	13	2
50	51	3
4	5	7
36	36	16
13	13	12
32	40	2
30	45	3
0	1	11
20	20	11
25	25	10
17	17	8
41	52	2
52	53	2
2	4	2
49	50	6
59	59	14
47	61	4
62	62	14
40	51	4
10	10	15
8	8	9
34	35	5
6	6	15
58	59	2
51	52	13
15	18	1
39	41	1
54	54	10
38	38	15
46	48	3
41	50	2
15	16	12
3	4	4
11	14	1
56	59	1
42	43	5
17	18	1
18	46	2
11	11	1
2	2	2
10	12	1
44	58	1
11	12	5
11	13	3
12	12	9
0	4	2
32	33	11
39	42	2
17	41	3
18	47	1
13	16	2
43	46	2
39	40	6
47	48	4
22	22	5
6	7	3
8	10	1
10	11	4
57	57	11
41	54	2
2	3	4
24	29	2
50	54	1
58	60	5
55	56	1
14	30	2
47	60	3
57	58	4
7	8	2
5	47	2
39	51	3
61	62	4
38	40	2
13	14	3
44	46	3
33	35	3
35	37	2
31	42	2
40	50	3
44	47	3
54	55	7
30	42	2
46	58	1
24	25	3
38	51	2
31	33	1
37	39	2
16	17	5
23	24	1
10	44	1
12	56	1
45	57	2
41	42	1
11	17	1
31	32	1
56	58	3
17	19	1
0	2	1
38	41	1
50	52	1
17	38	4
51	55	1
16	41	1
18	19	1
38	54	1
57	60	2
13	15	1
2	45	1
53	54	1
37	52	2
32	42	2
4	45	1
36	43	1
37	54	1
7	9	2
29	51	1
18	20	2
40	54	1
45	47	1
5	7	1
18	38	1
12	17	1
30	37	1
