5	5	8
31	31	26
60	60	10
42	42	16
52	52	12
9	9	14
1	1	7
49	49	10
57	57	13
43	43	22
36	36	17
8	8	15
40	40	15
22	23	1
46	46	9
59	59	27
48	48	19
4	4	6
41	41	16
46	50	3
57	58	6
54	54	10
62	62	20
30	30	15
51	51	9
23	32	2
50	50	16
33	48	1
50	51	8
39	39	9
55	55	18
44	45	8
17	17	16
19	20	5
31	57	1
45	46	5
24	53	8
47	47	12
7	7	4
2	2	5
45	45	26
56	57	8
55	56	9
59	60	9
38	41	1
6	6	16
6	12	5
32	33	16
33	33	12
22	42	3
56	56	13
47	48	5
4	5	5
30	31	5
53	53	8
49	50	7
16	16	6
37	57	2
37	37	16
25	25	7
32	32	19
42	43	8
39	53	3
23	42	3
16	17	7
37	46	2
37	39	1
35	36	5
39	40	10
46	52	8
43	44	7
7	17	2
42	45	1
54	55	1
41	42	1
24	32	2
19	19	11
9	16	3
13	13	4
58	58	5
53	54	2
38	59	1
21	50	2
18	18	5
51	52	5
11	11	3
42	46	5
59	62	2
37	47	2
39	59	4
34	34	7
31	32	6
45	48	2
35	35	3
57	60	3
20	20	4
61	61	4
31	46	5
44	44	12
38	46	1
12	12	3
13	16	3
1	2	6
24	24	4
36	38	2
42	44	2
31	61	2
39	46	4
24	26	4
43	45	2
22	22	6
21	23	1
45	47	2
34	35	2
12	13	4
33	39	2
44	52	1
45	57	2
34	52	4
0	13	1
54	56	2
38	38	5
38	45	7
33	37	2
3	4	3
29	40	1
50	60	3
24	25	2
3	3	11
2	3	3
23	23	4
45	55	3
13	17	1
25	40	6
53	55	2
25	46	1
47	51	5
34	48	2
38	39	3
37	55	2
36	50	1
20	21	5
49	51	6
56	58	1
46	47	5
8	17	1
61	62	1
47	49	1
36	37	4
35	38	2
18	19	1
38	57	3
15	16	3
36	39	2
40	42	2
15	15	5
10	11	2
10	10	1
48	49	1
30	32	1
31	45	3
40	53	2
40	41	2
14	16	1
8	12	3
14	14	2
10	13	2
55	57	1
31	39	1
45	49	1
33	52	2
43	49	1
38	40	4
17	18	4
5	17	1
29	57	1
31	59	1
30	40	2
39	45	1
21	22	2
5	12	1
32	34	1
25	41	1
21	21	2
42	53	1
6	7	1
50	52	1
0	0	1
29	31	1
58	60	1
58	61	1
23	52	1
58	59	1
35	37	1
25	30	1
37	48	1
39	47	1
34	36	1
