30	30	15
160	160	8
104	106	3
139	140	4
118	119	4
125	125	4
102	167	1
168	168	11
115	136	2
124	124	4
194	194	6
15	59	2
119	119	9
6	16	1
20	21	2
154	154	11
178	178	10
116	116	1
159	159	3
78	83	2
161	161	8
93	93	3
51	67	2
163	163	8
7	7	3
14	14	4
165	165	11
100	101	1
13	13	4
27	27	6
120	169	2
172	172	12
135	135	8
133	133	5
182	182	6
70	70	6
117	163	1
131	134	2
156	156	6
157	158	4
133	139	3
96	97	2
137	137	3
175	175	16
116	118	1
77	141	2
59	61	7
188	190	4
47	47	5
148	149	3
22	25	4
62	73	3
39	42	4
127	128	4
115	115	11
57	57	8
1	2	3
145	158	1
80	86	3
149	149	9
26	26	7
19	19	3
145	145	7
180	180	13
107	107	4
42	42	6
128	141	1
157	157	6
120	120	8
80	80	6
46	47	5
138	138	10
169	183	3
122	123	1
36	36	10
35	36	2
120	141	1
50	67	3
48	48	6
59	59	8
184	184	9
111	111	10
23	23	6
151	151	13
56	57	2
42	44	5
102	102	11
176	177	7
171	171	9
5	5	5
3	3	5
161	162	8
52	52	6
16	16	7
174	174	4
164	164	8
153	155	1
50	50	3
98	98	1
170	183	3
167	168	7
156	157	1
193	194	7
157	173	4
122	122	5
79	79	2
10	10	3
162	162	5
121	130	3
7	8	8
32	32	7
44	44	7
190	192	1
33	65	1
30	31	3
117	117	6
195	195	9
176	182	1
120	122	1
174	175	11
142	142	2
99	99	9
137	144	1
100	135	3
68	68	5
166	166	10
94	94	10
101	101	2
104	135	1
89	89	6
35	35	6
68	183	3
64	65	3
12	15	1
58	59	5
174	176	2
169	188	3
116	122	3
49	50	2
107	113	2
18	36	6
191	191	3
155	172	3
56	124	2
40	42	4
174	177	1
112	112	6
9	32	3
100	100	2
155	179	2
32	58	1
101	114	2
83	85	2
8	8	10
51	73	4
183	183	12
42	43	4
146	146	4
170	179	1
3	4	1
141	142	1
40	41	2
136	136	5
59	99	3
144	152	2
114	114	10
54	55	4
181	181	8
176	178	7
169	169	12
196	196	2
112	113	2
134	134	14
20	23	1
14	15	2
58	58	5
74	75	1
60	80	4
158	158	7
110	110	4
27	32	3
167	167	21
54	54	4
193	193	4
12	12	5
192	193	2
102	106	3
18	19	3
108	108	4
155	155	6
55	55	4
183	195	3
123	123	14
9	10	2
132	133	5
82	84	2
142	170	2
9	31	2
9	9	6
20	20	7
133	134	9
177	177	12
185	185	6
87	96	2
195	196	6
191	192	6
130	130	1
109	109	5
113	114	2
150	151	3
4	22	1
54	109	2
163	165	2
63	73	1
25	25	7
179	179	6
197	197	10
87	87	2
72	72	6
132	132	2
153	153	8
126	127	1
173	173	7
143	143	8
187	187	3
11	11	5
77	77	3
150	169	2
183	186	3
16	24	4
161	164	2
176	189	5
31	31	8
34	35	3
31	32	5
60	99	1
160	162	3
70	71	2
106	106	4
76	81	2
127	127	2
34	39	2
187	189	3
55	123	7
0	4	1
147	151	3
4	4	5
72	73	3
187	188	8
162	165	3
41	41	6
128	185	1
38	38	5
141	141	9
122	150	2
110	111	3
118	118	9
10	16	1
119	120	4
24	25	5
105	106	7
133	137	1
2	2	4
164	190	3
51	58	1
53	56	2
71	83	4
139	144	2
148	148	10
137	154	1
126	126	2
129	129	3
184	194	1
56	56	4
109	114	3
119	132	4
75	75	7
169	170	2
163	164	2
192	192	2
146	151	3
140	140	13
113	116	1
53	53	2
178	179	2
172	177	2
89	90	7
184	185	1
113	113	4
117	187	4
81	82	1
49	49	5
120	151	4
114	115	10
69	70	2
98	99	2
172	191	2
34	34	5
51	51	4
33	33	5
152	152	5
24	24	6
140	152	2
171	172	1
142	150	2
13	15	1
94	95	3
186	186	2
141	153	3
25	34	1
115	120	1
74	80	1
83	117	3
39	40	1
131	131	5
144	145	2
150	157	2
88	89	3
151	159	1
156	176	1
189	190	3
115	158	3
56	58	4
150	150	4
165	166	8
69	69	3
65	69	3
172	176	2
15	15	2
77	78	3
130	131	3
188	188	9
158	159	6
50	66	1
104	104	3
56	94	1
12	13	1
121	131	1
158	162	1
66	182	4
40	40	5
20	25	2
179	180	1
167	177	1
173	174	2
147	150	1
180	182	3
143	144	3
103	105	4
121	132	1
163	192	1
142	153	2
159	162	1
61	62	4
1	150	1
40	94	1
155	156	1
67	68	5
78	78	2
53	55	1
147	195	2
102	107	2
190	193	2
188	189	1
118	168	1
84	99	2
168	169	2
107	110	1
64	71	3
54	57	2
123	125	2
170	170	6
115	118	1
156	173	1
23	24	2
51	52	3
154	178	2
18	18	3
190	190	4
40	43	1
149	150	2
82	82	3
1	9	1
153	172	1
147	147	2
55	56	2
44	45	1
39	39	6
43	43	3
110	113	2
44	48	1
66	67	1
67	67	2
58	107	2
46	46	2
2	5	3
146	169	2
147	168	1
69	71	3
120	131	1
186	187	2
97	97	1
144	167	4
17	17	4
83	83	4
128	128	1
103	103	4
75	76	2
65	66	3
138	142	1
152	153	1
155	193	2
28	28	1
37	38	1
130	143	2
134	136	1
170	171	3
135	136	1
48	49	2
128	129	1
4	5	2
144	159	1
6	7	4
63	77	1
71	71	1
196	197	2
156	175	2
21	21	3
141	179	1
45	46	1
104	148	1
160	165	2
42	183	1
99	104	1
24	26	1
21	25	1
54	124	1
101	136	2
28	29	1
60	60	2
2	38	1
117	140	1
13	62	1
131	138	1
88	88	1
70	185	2
43	69	1
18	40	1
9	18	1
116	120	2
19	20	1
53	54	1
172	178	1
60	98	2
130	168	1
4	42	1
128	150	2
11	12	1
32	33	1
6	26	1
67	182	1
10	12	1
176	176	1
76	77	1
21	22	2
153	154	1
70	72	1
180	181	1
24	27	1
122	151	1
85	87	2
53	69	1
102	103	1
142	143	1
29	29	2
63	63	1
60	97	1
62	63	1
121	121	2
36	37	1
22	34	1
99	101	1
1	17	1
154	157	1
6	8	1
160	163	1
158	160	1
43	44	1
22	22	1
4	8	1
2	21	2
139	139	1
100	111	1
123	150	1
134	135	1
