78	78	6
20	81	1
13	14	6
119	119	4
163	168	3
57	57	8
52	52	6
28	28	12
129	129	10
105	106	2
174	175	4
170	170	9
99	99	4
155	156	13
119	120	5
12	12	12
56	56	11
121	122	7
154	156	3
161	161	7
18	18	1
139	139	10
141	142	3
40	41	14
37	37	4
35	35	13
23	23	11
7	8	1
196	196	16
89	90	6
115	115	7
31	31	5
67	69	1
188	188	4
154	154	17
193	193	15
123	123	4
162	164	2
9	10	3
158	158	7
185	185	13
159	160	5
134	134	6
175	178	6
109	110	2
75	76	3
148	150	2
19	19	3
118	118	8
194	194	22
99	151	2
133	133	5
104	104	2
163	164	3
147	149	2
47	48	2
167	169	1
29	29	1
25	25	5
111	113	8
73	74	2
15	15	7
134	135	8
175	175	5
127	127	13
141	149	8
164	164	8
43	44	5
4	6	3
46	46	11
157	160	1
103	103	1
165	165	10
18	21	2
53	53	7
65	66	1
177	177	16
74	74	5
187	187	7
16	17	2
102	103	5
147	147	11
68	68	6
184	185	1
156	156	7
129	142	2
6	7	2
106	106	4
167	168	2
0	27	4
58	58	7
80	80	1
54	55	3
183	183	7
4	4	18
166	166	5
139	140	2
109	109	5
150	150	11
174	174	6
42	42	3
128	128	7
33	55	2
100	101	6
64	64	6
148	148	5
30	31	7
135	135	7
152	153	8
191	192	7
159	159	7
4	23	3
132	133	2
8	9	7
147	176	4
38	40	3
146	147	9
140	149	2
114	184	1
70	76	5
179	179	9
181	181	8
8	8	6
44	44	8
118	119	1
66	66	6
21	21	8
133	135	2
14	15	1
130	137	3
166	167	7
172	172	6
43	43	5
122	122	6
178	179	5
185	186	2
58	63	4
166	168	1
173	173	12
39	174	3
126	126	3
190	190	5
123	124	2
196	197	4
125	126	6
27	28	1
8	56	2
138	138	3
22	22	5
147	150	3
184	184	9
108	109	7
65	65	6
160	177	5
30	30	13
10	11	1
66	90	2
137	137	15
51	51	6
94	94	6
149	157	4
2	2	6
161	162	9
160	162	4
116	118	1
167	167	5
117	117	3
177	189	1
73	73	2
14	14	7
105	108	3
160	160	2
96	152	6
156	158	3
35	88	2
116	116	7
146	148	4
163	163	3
19	79	3
36	36	4
50	50	2
110	183	3
174	179	1
63	63	6
115	139	1
159	174	2
34	34	3
108	108	13
12	14	4
142	143	2
11	33	5
107	107	1
173	176	4
153	153	3
59	60	2
19	27	3
129	130	1
144	154	1
143	144	4
176	176	4
13	43	3
149	149	9
81	82	1
30	33	2
192	193	6
136	137	3
160	161	4
137	138	3
179	181	1
24	59	1
3	3	5
78	81	1
195	195	4
131	142	3
162	163	5
190	192	2
83	85	2
20	20	9
93	93	10
46	55	4
67	67	5
113	113	3
157	172	4
144	144	6
11	11	5
66	67	3
141	150	3
176	177	2
11	12	3
158	160	2
45	45	4
143	143	4
34	82	2
86	86	2
21	22	2
66	119	3
121	121	1
124	124	6
5	5	8
140	140	1
110	111	6
2	6	2
122	130	1
32	32	10
102	102	2
114	115	2
61	73	1
69	121	2
79	79	2
34	36	2
0	3	3
6	6	2
16	16	2
163	165	3
41	41	5
24	40	1
130	131	1
172	173	3
186	186	3
1	3	1
23	24	3
37	38	5
155	155	3
130	130	5
85	86	1
77	77	5
46	47	3
157	158	4
12	32	1
117	118	5
0	2	3
164	166	1
50	51	5
17	18	3
70	73	1
39	39	6
95	152	1
180	180	1
74	94	2
121	123	1
129	131	1
88	88	1
0	0	2
101	102	3
38	42	2
187	188	2
19	20	2
96	96	2
77	78	1
88	89	3
71	72	4
67	87	2
97	97	5
101	101	5
105	105	3
37	148	2
188	189	2
190	191	8
106	107	2
189	189	9
157	191	3
153	154	8
160	181	2
38	39	4
80	81	1
129	141	1
37	45	2
25	27	1
48	48	4
71	73	1
171	171	6
47	47	7
26	27	4
24	24	3
134	140	4
10	10	2
166	193	3
13	13	3
9	174	3
132	132	4
173	178	1
193	195	2
182	182	4
183	193	1
39	40	3
154	174	1
27	41	1
120	120	1
100	100	2
90	90	3
70	71	2
157	157	7
81	83	2
24	25	1
186	187	1
145	145	1
150	151	4
142	142	2
51	54	2
1	2	3
183	187	2
165	170	2
22	23	3
182	183	3
152	155	2
15	16	2
32	33	2
49	49	4
47	49	3
19	22	1
131	132	3
8	42	1
82	83	1
126	127	5
140	141	1
144	145	2
18	19	1
3	41	2
107	108	1
9	9	6
98	98	4
154	159	3
191	191	2
152	154	1
30	32	2
76	77	2
38	38	3
26	28	3
99	102	1
34	37	1
26	26	4
32	57	4
25	29	3
31	32	3
95	95	5
137	139	2
171	172	1
94	96	1
95	106	1
114	114	2
109	128	2
159	164	2
20	23	3
35	37	1
168	174	2
40	40	3
178	193	1
107	109	1
63	64	1
102	155	3
62	62	2
28	29	1
27	29	1
156	160	3
44	46	1
96	97	1
110	113	1
155	159	3
178	181	1
41	43	2
29	30	3
110	110	1
101	104	2
29	32	2
131	135	1
59	68	1
122	133	2
162	173	1
5	6	1
60	63	1
95	96	3
148	149	2
57	58	1
64	89	1
174	176	1
82	84	1
110	118	1
69	72	2
69	124	1
148	157	1
32	54	1
25	26	2
61	61	3
33	34	1
147	181	1
153	155	2
67	68	3
133	134	1
113	114	2
55	55	1
26	34	1
151	151	1
149	183	1
35	36	1
84	84	2
149	150	3
180	181	1
2	9	1
113	183	1
28	30	1
140	147	1
146	146	1
181	182	1
22	27	1
9	24	1
33	33	2
182	186	1
142	163	1
23	36	1
118	136	1
197	197	1
185	190	1
161	165	1
111	183	1
72	72	1
179	180	1
120	121	1
142	156	1
155	157	1
145	156	1
