91	98	5
52	52	8
38	39	4
77	80	5
80	80	12
46	48	8
23	23	21
91	91	9
100	100	12
39	42	3
94	94	10
69	70	6
72	72	5
105	105	22
53	53	11
61	68	6
71	74	4
84	84	2
24	24	12
45	46	6
102	103	7
38	38	7
25	25	9
71	71	10
79	79	13
34	34	19
64	64	17
48	48	3
106	106	7
32	32	7
37	38	5
62	62	17
63	63	13
56	56	5
57	58	3
39	39	16
98	98	15
46	47	3
65	65	15
55	55	24
70	71	5
95	95	7
101	101	8
78	79	10
61	63	4
91	92	1
31	31	16
59	59	19
82	89	3
104	105	10
69	72	3
30	47	3
52	53	5
69	69	14
102	102	10
22	22	9
60	60	8
90	90	9
66	72	1
74	75	6
22	36	2
51	55	2
53	56	4
37	37	5
70	102	7
35	102	2
45	45	7
26	27	4
67	67	14
81	81	14
70	70	20
88	88	3
24	29	2
89	89	8
55	56	6
73	73	25
87	88	6
93	94	7
62	63	1
21	21	9
82	82	5
36	36	11
74	74	12
79	82	2
53	54	9
89	90	4
47	47	3
27	37	3
88	89	2
76	76	5
50	50	18
30	31	4
42	43	7
82	83	9
34	36	4
94	95	3
51	52	4
68	69	4
54	54	11
22	24	4
27	28	4
33	33	8
75	75	18
35	35	20
67	71	4
77	105	3
83	85	7
77	77	8
51	51	4
105	106	3
58	58	2
40	40	3
31	36	4
71	72	10
64	65	3
56	58	3
29	30	5
24	25	1
107	107	1
77	78	5
78	78	7
92	92	8
45	47	2
24	61	1
99	99	4
61	61	19
71	73	3
68	68	9
25	27	6
101	102	8
66	66	13
75	76	4
85	87	6
76	78	4
77	106	7
76	79	3
66	67	2
43	44	2
85	88	6
54	68	5
61	65	2
82	106	1
83	83	8
87	87	12
59	85	2
31	32	6
47	72	1
62	68	3
43	95	1
97	99	7
58	67	1
63	64	7
95	99	5
30	37	2
97	97	4
20	20	7
32	33	6
84	85	2
44	44	5
22	30	6
82	86	1
103	103	9
26	26	8
90	96	3
67	68	3
41	42	4
28	37	1
29	47	2
61	62	5
57	57	4
27	27	9
23	29	1
71	104	1
57	80	2
49	49	6
28	28	2
94	99	3
83	84	3
96	96	4
29	37	3
91	99	1
95	96	1
96	98	1
104	104	6
36	37	3
67	70	4
93	96	1
33	34	3
26	36	4
39	43	5
55	64	4
85	85	4
46	46	2
37	39	5
79	81	1
84	89	3
51	53	3
34	37	2
29	29	2
54	55	1
79	80	2
80	81	1
55	80	1
40	42	3
48	97	1
100	101	3
23	43	1
42	45	1
65	67	1
72	73	2
34	45	1
47	49	1
86	87	1
58	70	1
25	26	1
98	99	6
42	42	6
43	43	1
30	30	2
63	67	2
37	40	1
91	96	1
93	100	1
56	92	3
78	80	1
82	85	1
81	92	1
54	63	3
80	96	1
71	102	1
22	27	1
93	93	2
103	104	1
27	31	4
22	23	2
41	46	1
75	77	1
95	105	1
58	66	1
78	81	1
60	73	1
47	98	1
76	77	1
21	42	2
29	38	1
60	63	1
77	79	1
48	99	1
