88	88	7
117	117	3
141	141	5
145	161	1
121	122	2
85	85	6
96	96	5
4	4	6
75	77	2
132	132	2
149	149	9
33	34	2
90	90	5
51	51	1
147	147	3
115	120	1
129	131	1
100	100	1
23	23	5
133	133	5
156	156	6
79	79	3
8	8	2
64	64	4
23	24	3
35	35	11
136	137	5
3	44	5
135	135	2
65	66	1
138	166	3
63	63	6
10	167	1
106	107	4
8	47	1
87	88	5
136	136	3
106	108	5
123	123	1
17	24	1
145	167	2
50	51	9
143	145	4
105	105	4
161	163	2
91	91	3
146	148	4
148	148	2
99	99	1
65	69	1
108	109	3
81	83	2
43	43	4
77	77	1
12	13	1
34	35	2
57	58	2
133	134	2
138	138	3
93	95	2
115	115	4
71	74	3
22	22	4
155	157	2
56	126	2
42	43	1
155	155	3
70	70	3
146	146	4
5	141	1
126	155	3
102	117	2
40	41	2
46	153	2
127	127	4
76	76	1
38	38	3
106	106	5
52	53	5
119	119	2
169	169	1
8	9	3
1	1	8
108	108	5
9	14	2
12	12	1
42	42	3
56	56	12
77	78	3
119	122	4
34	34	3
11	11	1
134	135	4
163	166	4
50	50	4
150	151	1
5	6	1
126	153	3
140	163	1
100	101	1
145	145	6
2	2	2
141	142	2
146	147	1
152	152	1
162	162	3
25	25	6
130	131	3
39	76	1
120	120	5
45	57	2
129	156	1
124	124	2
46	154	1
55	55	6
121	121	2
13	13	7
14	17	1
89	89	1
38	41	1
119	120	3
19	19	4
17	17	1
150	150	3
137	137	3
116	166	1
130	130	3
152	153	2
3	3	4
126	126	2
109	109	5
143	143	1
14	15	1
102	102	3
15	15	2
110	111	3
98	99	3
69	107	8
154	154	1
48	49	1
64	79	3
86	86	2
5	8	2
128	129	2
110	110	4
57	57	2
58	151	4
41	41	1
139	144	1
25	27	2
44	45	4
92	92	2
54	54	2
58	89	1
52	98	1
21	25	2
165	166	1
6	44	1
85	86	1
153	153	4
82	82	1
17	18	1
74	75	2
15	16	1
159	159	1
2	3	1
93	94	4
14	14	2
7	7	4
83	83	3
160	160	4
21	21	2
44	44	1
53	54	1
5	5	3
55	58	1
158	159	1
44	98	2
146	149	2
8	10	1
135	150	1
6	7	1
127	129	1
97	97	2
78	78	1
87	87	1
158	158	1
49	50	1
150	167	1
108	110	1
53	136	1
167	167	2
40	40	3
42	149	2
101	102	2
81	81	1
45	49	1
11	15	1
7	8	2
1	43	1
43	111	1
44	67	2
0	1	2
105	108	1
45	46	2
52	52	1
84	86	1
134	134	2
94	94	1
151	151	2
48	48	1
36	36	2
37	37	1
116	116	1
67	68	1
114	119	1
122	122	2
111	114	1
11	12	1
139	139	1
16	41	1
125	125	2
20	39	2
151	155	2
65	65	1
67	67	2
117	118	2
44	92	1
3	133	1
24	24	1
25	28	2
46	46	1
5	143	1
76	79	1
54	138	1
