74	74	24
10	21	3
34	34	7
12	13	6
47	47	24
22	22	18
59	60	8
56	56	24
52	52	6
25	25	12
54	61	2
1	2	6
48	52	2
38	39	12
21	21	12
45	45	34
28	28	18
62	62	9
11	11	14
70	70	20
31	31	8
23	23	13
33	35	2
49	49	4
54	54	18
0	0	15
12	12	18
64	66	4
44	45	11
61	61	24
73	73	9
33	33	13
43	43	9
49	50	4
35	35	13
3	3	17
75	75	8
57	61	6
8	21	1
10	10	29
2	2	21
71	71	28
70	72	7
57	57	20
39	39	10
70	71	4
7	8	19
6	7	1
46	46	13
5	5	4
37	38	10
57	58	2
77	77	19
60	60	19
28	29	4
65	65	19
0	1	4
7	13	9
9	9	14
9	11	9
51	52	4
58	59	4
50	52	3
1	1	11
8	8	16
34	42	3
7	24	3
47	48	4
55	55	19
74	75	12
53	53	12
71	72	6
41	41	12
72	73	3
69	71	3
19	19	14
8	11	1
34	35	6
76	76	15
37	37	2
67	67	16
53	54	6
48	48	15
29	29	10
18	28	3
76	77	9
26	26	9
11	12	10
34	45	3
42	42	19
9	21	2
27	27	4
32	33	10
68	69	10
6	26	7
20	21	5
58	58	6
36	37	9
63	63	12
22	23	3
52	54	2
64	64	9
13	13	11
51	58	2
7	7	6
23	24	9
4	4	10
68	68	19
52	53	8
30	30	2
55	61	4
51	51	10
60	62	2
29	43	3
25	26	4
44	44	5
10	11	3
42	43	5
66	66	9
72	72	13
54	55	18
7	20	5
33	34	2
73	74	6
46	60	2
36	36	5
23	25	1
39	42	2
19	29	3
34	44	6
8	25	2
45	47	4
2	3	2
48	58	1
59	59	9
19	20	7
6	8	2
65	66	2
9	12	2
55	56	2
51	53	1
18	19	2
66	74	2
40	49	2
30	31	6
45	61	3
6	6	6
51	57	1
73	75	2
27	28	2
48	49	1
41	42	2
48	57	2
24	25	4
32	44	3
63	73	4
9	10	1
48	55	1
32	32	5
50	58	2
5	6	5
41	49	3
34	41	1
20	20	6
24	24	4
34	43	3
1	3	1
57	60	4
67	68	7
58	61	1
18	18	9
38	38	5
62	63	4
69	74	2
10	12	6
43	47	6
42	44	1
5	25	1
21	25	4
32	34	4
8	9	6
69	69	6
39	40	1
44	47	1
29	30	1
9	19	1
71	73	1
8	18	2
3	21	2
11	13	1
8	13	2
26	27	2
25	27	4
46	52	2
14	14	2
35	36	3
38	42	4
46	47	4
33	41	2
48	51	3
35	44	2
34	36	3
42	48	2
43	44	4
66	68	1
39	41	2
7	14	2
42	51	2
36	38	1
50	51	1
54	62	1
62	64	1
40	40	2
41	50	1
47	49	1
30	60	1
19	21	2
58	62	1
37	43	1
35	47	1
64	65	1
50	50	1
29	31	1
13	18	1
57	63	1
42	76	1
