58	61	3
134	134	6
1	3	1
165	177	1
4	12	3
242	242	2
153	153	1
151	151	3
107	107	5
142	158	3
207	209	4
55	55	9
228	231	5
62	100	1
58	60	5
51	51	9
186	186	3
238	238	1
225	226	3
101	101	6
30	31	3
47	47	3
29	30	4
26	26	9
183	183	7
79	80	3
19	19	2
85	86	1
199	200	3
74	75	5
32	32	8
139	142	2
177	177	6
86	86	3
184	212	2
11	11	4
182	182	3
170	170	1
232	233	3
75	75	5
2	12	1
150	188	3
148	148	2
7	8	5
23	23	3
2	3	1
76	76	3
74	74	9
20	22	1
98	98	3
22	22	2
149	149	5
179	179	1
157	157	1
7	7	4
13	13	3
43	43	3
160	160	7
33	48	2
230	231	6
194	194	1
226	226	5
46	46	12
65	66	1
198	201	3
231	233	2
19	20	3
28	28	8
72	72	3
154	154	5
1	1	12
197	197	4
105	131	1
12	12	5
78	78	3
140	145	1
136	136	2
56	61	4
62	68	2
27	27	3
181	205	4
133	133	1
33	33	2
10	10	2
27	239	2
179	180	2
236	237	3
185	185	3
21	21	5
207	207	5
6	7	3
237	238	3
236	238	1
158	158	3
36	36	11
178	178	1
223	225	2
98	106	2
172	172	2
58	59	5
234	234	2
73	73	3
122	123	5
144	147	2
45	45	3
96	96	2
212	212	2
219	234	3
209	209	2
69	69	2
123	124	2
23	44	3
4	5	3
61	62	6
167	167	1
41	41	4
37	37	1
116	118	6
217	217	3
131	132	1
30	30	5
65	65	1
143	151	4
172	198	2
216	216	5
99	100	3
141	150	4
8	9	1
28	29	2
231	231	1
83	83	6
10	11	2
3	8	2
203	226	3
155	155	3
126	126	3
204	220	3
38	38	2
104	108	1
60	60	2
89	89	1
84	84	1
5	7	4
16	16	2
42	56	1
148	149	1
196	196	4
147	147	2
211	219	2
24	24	2
143	143	2
239	240	2
29	185	7
118	118	3
97	97	4
54	54	3
194	195	3
111	112	1
100	100	4
223	226	2
124	124	2
171	186	2
39	39	4
36	39	4
104	104	5
133	134	3
32	33	5
198	230	5
44	44	2
121	121	3
50	50	3
102	103	2
188	188	5
198	198	3
128	149	5
49	50	1
205	206	2
70	70	5
66	66	3
81	84	1
3	3	1
26	173	1
237	237	1
38	39	1
145	145	1
11	20	1
204	204	2
163	163	2
146	146	1
39	60	5
181	181	1
51	52	2
174	201	3
48	48	4
15	15	2
95	97	1
29	207	2
111	111	2
192	195	3
61	61	5
77	78	2
14	14	5
220	222	2
96	122	5
20	20	4
31	32	1
9	32	4
73	133	2
193	214	1
220	221	4
58	58	2
169	169	4
195	195	1
53	53	2
17	18	1
211	211	1
150	150	3
25	26	1
242	243	2
205	205	2
235	235	1
106	106	3
29	29	3
224	224	4
152	152	5
201	201	1
31	31	3
172	173	1
33	52	1
206	206	3
219	220	1
0	15	4
35	35	1
29	204	2
6	6	1
20	21	2
151	152	4
166	166	1
25	28	1
38	65	2
240	241	5
114	114	3
117	136	1
147	148	1
209	210	2
97	100	3
174	174	1
117	134	2
77	79	4
140	140	2
219	219	4
208	208	1
26	194	2
49	49	1
121	122	1
191	231	1
206	207	2
9	21	2
138	139	1
7	188	1
18	18	2
33	34	2
75	123	1
183	185	1
73	120	2
165	170	1
103	104	2
143	145	1
22	177	1
64	65	2
82	82	1
95	95	1
158	166	1
44	45	3
15	17	1
67	68	1
30	46	1
141	141	1
115	137	1
28	238	1
42	42	1
129	130	1
191	192	1
203	223	1
213	216	1
46	128	1
98	100	1
121	127	2
10	37	1
2	2	1
5	5	1
29	55	1
213	213	2
139	161	1
185	187	1
99	159	1
100	105	1
102	102	1
15	20	1
18	19	2
57	59	1
159	159	2
36	43	1
159	203	1
171	172	1
25	25	1
211	213	1
152	153	1
31	35	1
222	222	1
36	51	1
119	120	1
88	88	1
45	46	1
117	117	1
240	240	1
212	213	1
173	173	2
119	119	1
192	232	1
168	170	1
103	130	1
149	159	1
175	178	1
167	168	2
169	170	1
128	128	1
79	79	1
