118	118	9
143	143	3
60	61	1
147	147	10
115	115	7
27	56	2
132	132	19
3	4	5
47	47	8
100	101	2
83	84	7
169	169	3
155	156	1
175	175	4
168	168	7
160	160	5
182	182	2
57	105	4
31	33	1
33	37	1
21	22	3
64	66	6
187	187	3
94	98	2
153	154	9
170	171	3
183	183	13
128	147	2
180	190	1
111	132	7
120	121	1
5	5	4
96	96	4
25	25	11
126	127	8
118	168	4
158	158	4
44	44	9
65	65	1
16	17	4
45	45	3
22	22	6
110	110	2
127	186	2
148	148	2
17	29	2
12	12	5
139	139	9
64	64	3
146	146	7
107	107	5
184	185	3
171	171	19
14	15	4
11	11	5
63	70	4
174	174	7
170	170	16
155	155	8
82	82	9
157	157	9
181	181	5
52	52	8
185	185	15
161	161	6
180	180	16
81	83	1
108	108	4
121	121	10
59	60	1
28	28	8
6	6	3
151	151	13
131	133	2
148	150	6
26	26	5
94	94	3
97	97	6
165	166	8
184	184	18
142	142	7
55	55	4
27	28	2
149	149	7
113	113	3
129	129	9
150	151	3
193	194	2
16	16	7
128	128	6
159	160	2
189	189	5
23	54	1
176	176	2
0	3	2
153	153	7
127	128	2
19	29	2
107	138	3
10	10	4
186	186	12
122	122	10
51	51	13
190	190	6
172	172	7
144	146	1
100	100	5
69	70	7
112	113	1
48	49	3
34	34	5
6	8	6
145	148	3
125	187	3
137	137	2
96	97	2
56	56	8
0	0	7
54	54	10
195	196	3
86	86	2
197	197	10
24	26	2
25	33	2
105	105	8
120	120	4
15	15	5
114	150	2
165	167	1
109	143	6
35	35	6
78	78	7
135	139	2
193	193	17
130	131	4
3	28	3
14	14	10
43	43	4
48	48	6
37	37	4
102	102	5
157	164	4
99	99	7
112	112	3
103	103	2
95	96	1
31	31	4
77	94	2
106	140	1
178	178	10
154	155	3
80	80	1
102	103	2
28	56	2
125	127	3
26	54	1
36	36	8
35	36	5
135	135	5
33	33	6
164	165	3
39	39	6
21	21	8
24	24	18
164	166	4
97	98	4
38	39	4
58	58	3
101	101	5
130	130	5
89	110	1
123	123	4
79	80	3
26	27	3
140	144	2
1	1	8
160	162	1
16	62	5
177	177	10
17	17	2
72	73	7
93	93	1
179	180	4
134	134	6
139	140	2
172	174	5
3	3	5
167	167	2
88	90	3
141	141	7
41	74	2
29	31	1
93	94	1
34	35	1
195	195	4
62	62	4
115	116	9
161	168	1
30	58	2
165	165	3
73	73	5
19	19	5
123	134	2
127	127	2
60	60	9
9	9	9
4	4	5
1	3	1
159	159	2
194	194	3
6	7	5
18	19	1
109	109	3
116	117	3
196	196	4
179	179	8
104	104	1
22	25	1
99	100	2
106	107	1
40	40	4
41	41	6
15	16	2
168	177	3
61	61	3
154	154	1
42	71	6
131	131	6
67	67	5
53	54	6
133	149	4
8	22	2
117	117	3
166	166	5
33	34	2
161	167	1
131	145	4
173	176	2
66	66	2
53	53	2
188	188	1
180	181	5
51	62	1
49	49	4
58	65	1
139	141	1
124	124	8
191	194	2
25	76	2
111	129	2
114	114	4
146	167	1
95	95	4
22	23	4
83	83	1
46	57	2
38	38	5
27	27	3
42	43	6
39	45	4
78	102	2
71	72	2
196	197	1
148	151	1
66	68	2
126	126	4
9	10	3
31	40	1
116	118	2
163	163	2
83	137	1
176	177	3
125	125	4
160	161	3
74	75	3
118	144	3
192	193	1
168	169	3
172	173	4
138	138	3
105	139	2
43	44	2
146	147	2
107	108	1
164	164	2
59	75	1
63	77	3
23	23	4
159	192	1
93	153	2
156	158	1
152	152	2
30	30	1
152	155	3
89	89	4
119	120	1
138	141	1
110	133	1
28	30	2
107	162	1
7	7	2
161	162	1
1	2	1
185	186	2
87	87	4
156	157	1
136	136	2
97	105	2
52	53	2
2	2	3
174	180	1
88	88	3
106	123	5
142	143	1
24	25	1
140	140	3
100	102	5
147	148	2
18	18	1
54	55	4
75	75	1
57	100	1
76	94	1
128	129	1
88	136	2
128	197	1
59	59	2
33	42	1
22	26	3
158	159	1
186	187	1
86	87	3
7	8	1
102	183	1
119	132	1
116	116	2
76	78	2
61	73	2
39	59	4
96	136	2
137	148	3
190	192	1
29	34	2
178	179	1
161	165	1
145	145	3
70	71	1
119	171	2
111	111	1
106	106	1
17	19	1
160	172	2
10	11	1
36	38	1
81	81	1
75	101	3
39	60	3
32	32	1
29	29	2
40	42	1
174	181	1
98	99	1
186	188	1
69	69	1
47	50	1
151	152	1
156	156	2
182	183	1
16	60	2
161	163	1
9	44	3
80	86	3
119	119	1
28	29	1
51	52	1
132	133	1
177	178	1
184	186	1
38	75	1
1	24	2
20	20	2
151	155	2
63	63	2
101	160	1
98	98	3
173	173	1
117	118	2
27	109	1
16	27	1
126	188	3
162	162	1
187	188	2
72	72	1
108	134	1
73	75	1
187	196	1
113	138	1
116	131	1
67	68	1
11	14	1
173	174	2
13	14	1
147	165	1
46	46	1
