156	156	2
93	93	8
81	82	4
169	169	8
24	25	1
22	24	5
125	125	6
50	51	2
42	73	3
17	19	4
24	167	5
151	151	2
14	17	2
34	34	7
11	12	2
17	18	7
46	51	2
127	139	1
158	172	2
108	108	4
59	61	1
12	37	1
49	49	1
105	105	2
193	195	1
30	30	3
175	177	3
155	155	6
109	111	1
131	134	2
146	146	2
14	168	5
177	177	6
36	45	2
116	144	3
45	46	2
76	76	6
154	154	8
111	111	6
1	4	3
18	18	2
35	44	6
28	28	7
172	177	4
159	188	2
131	131	3
139	140	1
102	146	2
6	8	1
157	157	8
146	147	2
175	175	10
67	68	1
62	65	5
164	164	1
27	27	10
103	105	4
35	41	3
197	197	2
54	54	6
142	142	2
109	110	1
71	71	9
118	118	4
46	48	2
174	174	13
168	168	5
67	67	4
7	7	6
48	48	1
195	195	8
53	53	7
147	148	4
5	115	4
50	52	1
79	104	3
170	187	3
88	167	2
38	38	4
28	29	4
146	148	1
132	132	4
51	51	5
190	190	4
126	126	2
7	14	2
158	158	4
84	84	1
141	141	7
106	106	1
23	23	6
181	181	6
0	1	4
28	37	3
166	166	4
57	57	3
127	128	2
173	176	1
192	193	5
165	165	1
8	43	2
81	81	9
113	142	3
47	47	7
56	56	2
34	37	6
187	196	3
170	170	3
30	33	1
194	195	2
21	25	2
185	186	3
10	10	4
172	172	2
101	147	3
193	194	2
54	55	1
3	3	4
153	157	2
174	175	2
182	182	4
10	27	4
20	20	4
9	9	3
0	6	3
180	197	1
148	148	5
39	39	5
1	1	5
127	156	2
74	74	1
53	54	4
185	185	3
98	98	2
34	36	1
119	164	4
133	133	3
153	153	4
122	122	4
81	114	3
149	149	6
26	26	10
145	177	2
184	184	6
20	21	3
6	6	3
4	4	5
35	43	1
13	14	1
78	79	1
49	58	2
190	191	4
121	154	4
1	8	2
94	97	3
123	127	1
187	188	4
35	35	4
112	112	4
8	9	5
192	192	8
52	52	2
69	70	6
0	0	1
165	166	3
42	42	3
45	45	9
60	65	2
122	123	1
183	183	3
5	5	5
154	155	4
59	59	2
194	194	3
123	153	2
51	52	4
1	6	2
77	77	2
107	107	3
65	73	3
144	144	7
128	128	2
84	86	2
68	73	3
103	103	6
56	58	5
145	145	3
19	21	2
122	157	2
127	127	5
138	140	1
63	147	3
24	24	3
161	169	3
161	162	5
66	69	3
55	55	2
66	66	4
196	196	5
116	116	9
138	142	1
61	61	1
159	159	5
22	22	3
87	87	3
65	65	2
144	145	1
33	33	4
175	176	4
5	8	2
171	171	5
88	88	1
161	161	5
14	20	2
19	26	1
191	192	6
68	68	3
89	90	1
46	46	1
70	71	2
164	166	2
118	147	3
171	174	1
67	110	2
178	192	2
4	6	2
150	150	3
191	191	1
42	80	1
94	95	1
36	36	7
96	98	2
135	135	3
102	102	4
15	15	1
64	73	1
109	109	4
10	14	1
136	141	1
56	57	1
2	36	3
38	116	1
12	152	2
150	153	2
22	23	3
188	188	1
115	116	4
121	122	2
114	115	2
129	136	1
130	131	2
163	163	1
94	94	1
12	57	1
149	177	2
181	182	2
123	123	3
95	96	1
118	142	1
73	73	1
5	19	1
117	144	3
152	152	2
136	136	3
134	134	4
106	107	2
11	11	1
149	150	1
50	50	2
80	80	1
103	104	6
124	124	2
19	20	1
173	178	2
178	178	2
29	29	2
7	8	2
136	137	3
24	93	1
15	29	2
143	143	1
38	39	1
138	150	3
125	126	1
152	153	1
125	127	2
4	52	1
176	177	2
100	100	3
41	41	4
157	172	1
30	31	1
12	24	1
115	115	2
62	62	1
167	167	2
70	70	1
180	181	1
121	159	1
8	67	5
193	193	4
14	14	2
5	18	1
100	141	1
36	44	1
173	173	2
129	129	1
121	140	1
113	195	2
64	64	2
115	121	1
22	154	2
33	35	1
93	102	1
130	130	2
182	193	1
100	110	1
93	142	3
79	79	1
116	117	2
194	196	1
111	194	1
34	35	5
13	13	2
180	180	1
60	60	1
1	2	1
15	43	1
55	56	1
2	12	1
138	138	1
33	52	2
160	192	1
177	178	1
169	170	1
148	149	1
9	46	1
42	43	1
119	119	1
176	178	1
32	33	1
23	42	1
26	27	1
27	34	1
107	131	1
115	117	1
