26	26	14
110	110	7
51	51	9
124	125	8
142	142	20
113	114	2
87	89	10
71	71	7
27	27	13
74	79	6
125	130	3
113	115	4
142	143	12
118	118	5
138	139	6
117	138	1
132	132	15
73	73	3
80	80	6
123	123	20
29	42	4
30	42	1
20	25	3
139	139	10
11	11	11
133	134	14
9	41	4
21	22	3
9	12	1
140	140	19
121	121	20
137	138	5
31	31	2
141	141	12
74	74	23
119	119	17
107	110	2
143	144	7
27	35	3
60	89	4
15	15	14
36	36	10
76	77	3
37	38	5
90	113	2
38	39	5
22	25	3
41	41	19
64	65	6
39	39	13
1	1	4
50	51	5
95	95	18
117	140	4
117	118	4
9	9	7
105	105	6
59	60	6
30	30	12
29	29	24
52	64	4
111	111	9
75	76	7
107	107	4
100	100	13
134	134	28
144	144	11
18	18	16
54	54	12
37	37	22
17	64	4
108	108	7
31	32	5
48	48	19
4	5	1
134	136	5
65	73	3
125	125	18
29	39	1
32	36	3
61	61	14
101	101	7
21	21	14
138	138	4
14	75	4
120	120	4
49	49	8
133	133	22
126	126	36
137	137	13
19	22	4
84	84	11
104	104	19
69	69	6
125	126	2
52	53	4
47	47	4
38	38	12
107	117	4
14	14	6
23	29	4
20	20	13
56	56	11
60	60	1
91	91	3
68	69	4
73	74	14
17	17	12
60	131	1
90	90	8
24	24	8
103	103	17
128	128	23
6	6	18
129	129	16
23	23	20
41	42	7
126	127	4
99	99	12
103	104	6
128	130	3
130	130	18
97	97	4
2	4	1
17	18	1
18	19	6
93	94	4
87	90	1
59	114	3
108	109	1
58	142	2
62	62	6
48	49	6
55	56	7
61	62	3
71	72	1
129	131	3
72	89	2
12	12	13
96	96	7
4	20	1
136	136	5
69	70	6
87	87	5
28	28	15
108	138	1
18	21	8
117	135	5
128	129	2
24	29	3
130	144	1
5	5	8
54	62	2
124	126	4
62	123	5
1	24	1
32	33	2
47	48	3
82	82	14
115	119	1
42	42	18
74	96	2
83	97	3
10	10	19
22	22	13
34	40	2
50	50	7
100	125	1
96	141	2
135	140	3
103	110	4
121	123	4
145	145	7
119	120	13
81	84	3
2	3	4
100	101	4
97	99	1
102	102	25
11	16	2
124	124	16
55	55	6
64	64	9
135	135	17
56	57	15
81	81	14
58	58	8
0	0	8
89	89	11
99	100	5
67	104	5
122	122	9
67	68	4
141	142	5
67	135	1
89	113	3
50	54	2
131	131	32
82	98	1
83	83	6
26	34	1
116	116	6
28	29	3
139	140	6
131	132	2
114	114	10
46	46	2
51	52	6
10	16	3
132	133	10
140	141	4
59	112	5
109	109	6
127	127	15
5	6	4
18	71	1
122	123	4
78	79	2
102	103	18
52	52	4
78	80	1
112	113	2
94	94	13
66	66	19
109	126	1
118	137	1
113	113	8
68	68	7
46	47	3
123	124	4
70	70	8
129	130	4
138	141	2
103	109	1
115	115	10
3	3	9
62	63	2
48	73	1
90	91	4
12	13	4
3	4	4
83	95	1
15	69	1
19	19	7
4	19	2
81	82	5
63	63	11
63	64	2
117	141	1
75	75	14
35	35	6
68	70	2
80	87	5
36	38	4
90	102	5
72	72	9
106	106	9
30	40	3
18	25	1
86	89	5
143	143	10
42	43	4
80	81	2
19	28	1
59	134	1
32	32	4
127	129	3
82	141	3
94	95	5
66	67	6
120	121	4
8	10	2
118	120	3
8	9	6
23	24	4
0	39	3
16	16	18
2	2	3
117	137	2
105	106	7
49	50	1
35	125	8
93	93	6
88	89	3
85	85	6
89	90	5
47	52	3
32	40	4
112	112	12
25	25	7
65	65	4
76	76	3
13	13	3
40	41	3
67	67	3
105	120	1
31	36	3
118	119	8
116	117	3
86	86	2
72	73	5
88	88	11
51	53	1
96	140	1
109	138	3
125	127	1
127	130	4
127	128	3
54	131	1
90	92	1
76	79	3
74	75	2
35	36	3
115	116	3
3	15	1
33	41	5
98	118	2
107	129	4
40	40	1
110	138	1
126	135	5
117	117	6
123	141	2
36	37	2
52	74	3
32	38	2
59	113	1
9	20	2
71	118	3
8	8	2
54	55	2
66	124	1
53	53	1
20	21	4
95	97	1
121	122	1
15	16	1
91	92	1
127	133	1
103	128	2
62	74	1
66	122	1
18	81	1
59	124	1
102	146	1
99	101	2
110	113	2
83	85	1
23	25	3
80	91	3
1	20	2
129	134	3
98	98	6
109	110	1
97	141	3
98	117	2
0	36	1
18	27	3
32	39	2
130	131	1
26	28	1
26	39	1
17	30	2
67	73	1
146	146	4
125	128	3
31	50	2
123	137	1
46	48	1
92	93	5
18	41	3
135	136	1
115	138	2
54	60	3
129	146	2
43	43	5
97	116	1
112	114	3
9	22	1
102	129	1
4	4	3
67	139	1
28	42	3
29	40	2
60	112	1
81	142	2
59	59	1
98	99	1
104	105	2
0	37	1
127	132	3
56	60	2
115	140	1
72	90	1
141	144	2
110	111	2
56	62	1
25	39	1
131	140	1
107	112	1
120	125	1
119	146	1
81	98	3
101	125	1
97	98	2
121	136	1
13	16	1
1	139	1
82	83	1
27	28	3
9	11	2
68	72	2
69	139	1
33	35	1
94	119	1
138	142	2
34	35	3
30	48	1
17	28	1
95	103	1
105	117	2
95	99	1
39	41	1
50	65	1
22	23	1
2	15	4
29	41	1
87	98	1
14	23	1
103	143	5
31	37	1
85	86	1
33	33	1
79	97	1
138	140	1
87	88	1
107	130	1
109	136	1
18	23	1
128	145	1
116	119	2
55	74	1
121	124	1
95	116	1
31	33	1
70	71	1
65	66	1
50	53	1
118	140	1
57	57	2
17	23	2
6	22	1
78	78	1
36	52	1
92	114	2
9	10	3
53	55	1
77	78	1
87	104	1
131	133	1
27	41	2
31	38	3
6	11	1
130	133	1
129	142	2
53	66	1
107	108	1
68	137	1
26	49	1
66	103	1
101	102	1
9	16	1
116	139	1
92	92	1
40	67	1
80	83	1
