45	45	10
7	7	9
87	87	8
41	41	9
19	41	6
67	68	1
73	74	3
22	23	4
151	151	3
152	152	8
150	150	13
118	118	13
96	96	11
44	44	9
46	70	2
38	44	4
136	138	1
39	42	4
138	143	6
73	73	21
141	141	2
21	22	5
41	63	3
65	65	2
136	140	2
127	127	10
144	144	9
111	112	3
51	51	8
84	94	1
20	20	4
147	149	3
24	24	7
64	64	10
106	106	8
121	122	2
124	136	3
123	123	15
38	38	8
66	67	7
40	40	9
69	69	7
10	10	10
124	128	4
78	79	3
110	110	7
34	56	1
12	22	3
28	82	2
45	46	13
50	85	6
16	16	9
21	27	2
69	70	2
128	129	6
33	39	3
34	51	1
22	25	3
61	62	2
17	19	4
30	83	2
67	67	15
112	113	1
53	53	11
23	23	9
28	28	10
55	83	5
114	122	2
48	48	14
103	103	6
27	31	9
87	88	5
58	58	3
22	22	13
85	104	6
9	10	6
123	127	1
94	112	4
67	118	2
37	37	6
80	82	7
149	149	6
129	129	6
85	112	4
19	36	1
145	148	2
21	21	5
19	19	15
74	75	5
23	149	3
63	94	5
83	83	6
49	50	4
10	11	12
5	7	5
51	52	3
145	147	3
125	126	6
86	86	3
54	55	8
54	54	2
57	132	2
150	151	13
153	153	5
15	15	10
130	130	10
93	93	11
76	76	5
53	55	4
123	124	5
55	56	3
20	21	10
98	99	2
94	95	2
13	13	14
69	85	5
147	147	8
39	63	3
43	147	1
108	110	3
134	135	5
107	107	5
14	14	7
57	57	8
87	145	1
85	88	4
15	31	2
90	111	1
84	87	3
35	36	7
11	11	7
142	143	6
35	35	8
68	68	4
105	105	3
105	107	5
135	135	11
40	41	6
137	138	5
131	132	3
123	135	2
43	43	12
4	5	6
74	74	5
31	33	1
56	57	4
47	66	2
84	86	3
23	28	6
66	66	5
20	22	6
48	70	2
17	17	12
28	32	3
69	71	4
33	42	3
22	30	2
131	133	7
32	32	10
5	27	2
133	133	8
88	97	4
6	69	3
5	6	3
145	145	5
76	93	5
90	107	1
97	109	1
39	39	17
147	150	1
137	145	7
148	148	10
41	42	3
106	110	2
125	149	5
137	137	8
100	107	1
34	37	4
6	65	1
32	62	1
82	138	1
92	92	3
34	34	8
14	16	2
117	117	7
84	84	7
120	121	6
146	146	5
9	35	2
25	25	10
7	26	4
4	4	14
135	138	2
42	43	4
133	134	4
29	29	9
31	31	4
82	82	6
39	103	1
123	126	3
14	32	1
10	23	3
88	88	8
105	106	2
79	79	2
3	69	2
119	120	2
33	33	11
90	98	4
36	36	13
25	57	1
45	109	2
14	18	3
56	56	12
81	82	7
111	111	5
11	12	10
141	142	3
109	109	6
75	75	1
35	37	2
116	116	5
37	49	2
56	80	2
2	7	2
39	50	2
76	78	3
78	96	1
50	51	4
4	30	3
50	53	4
49	71	4
8	9	7
102	102	11
31	62	2
77	77	8
43	44	4
13	20	2
122	130	2
130	131	6
71	71	11
18	19	5
52	52	1
46	46	16
126	126	4
11	21	1
122	124	1
9	97	1
97	98	3
47	47	4
49	49	6
79	80	3
74	87	1
49	57	4
90	106	1
18	18	6
34	49	2
19	77	3
120	122	3
64	80	4
6	15	3
26	28	6
48	50	4
143	143	5
121	121	5
102	146	2
81	81	4
70	70	7
9	17	1
103	139	2
12	12	10
53	54	2
72	73	1
106	107	7
34	131	2
79	84	2
57	58	3
71	93	3
9	9	7
123	138	2
41	80	2
71	73	4
30	30	7
34	57	2
140	140	1
132	133	1
109	110	2
119	119	11
64	65	4
100	102	5
23	24	2
4	11	5
38	82	7
50	97	3
43	45	4
44	46	1
39	62	1
15	23	3
50	50	9
38	49	2
82	83	6
57	77	2
119	131	7
5	28	4
13	15	1
27	27	15
13	23	1
65	66	1
36	52	1
76	77	2
6	21	2
80	85	1
143	144	7
97	106	1
122	122	3
56	74	2
7	24	2
84	85	6
129	135	2
73	79	3
62	62	7
136	136	7
109	114	1
42	45	3
6	6	6
42	42	9
80	80	3
126	136	3
63	63	9
118	119	7
19	29	1
102	154	3
143	145	1
6	66	1
57	100	1
96	109	2
142	142	3
22	26	1
37	38	5
2	22	2
66	78	1
123	154	4
154	154	5
97	99	2
18	46	2
124	127	2
40	43	3
97	97	7
28	29	3
102	106	2
131	131	14
128	130	1
40	77	1
103	138	1
49	54	1
101	128	2
144	146	1
58	62	2
96	99	5
17	45	2
6	10	1
36	118	1
141	144	2
39	40	2
25	33	2
33	63	4
12	20	1
94	97	3
72	72	3
83	94	4
110	114	2
28	30	7
81	123	1
50	71	3
32	33	7
94	94	8
26	67	1
55	130	1
110	113	2
20	30	1
8	10	4
131	144	2
151	152	7
87	93	4
139	145	2
5	5	7
75	76	5
112	112	2
54	112	3
75	79	2
104	104	8
4	10	1
11	28	2
128	128	4
89	94	2
12	28	2
104	114	1
8	17	1
26	26	2
103	106	1
124	124	4
42	71	2
4	20	2
78	78	6
32	34	2
98	102	3
38	39	5
66	68	3
108	108	7
31	64	2
104	105	3
64	82	1
103	143	2
20	27	2
74	78	4
90	94	4
32	39	1
90	90	1
16	28	2
91	92	6
133	151	2
144	148	1
30	137	4
132	151	1
24	26	3
42	114	1
42	46	2
32	55	2
99	99	4
132	132	4
85	86	3
16	30	2
54	83	2
139	139	4
8	8	7
35	69	1
96	118	3
107	117	1
128	135	1
4	6	4
38	42	4
128	149	1
47	48	1
16	17	1
50	55	3
7	21	1
55	135	1
122	129	1
85	85	2
80	84	3
20	69	3
73	103	4
117	121	2
44	45	4
62	70	2
96	97	2
114	114	1
110	111	2
108	112	3
108	121	1
146	150	1
17	18	4
96	119	2
92	117	4
38	80	2
34	35	3
131	151	1
62	64	3
39	48	2
90	93	2
32	64	1
124	126	4
104	140	3
92	122	2
94	98	1
102	105	3
36	102	4
51	76	4
14	27	2
62	77	1
121	128	2
4	7	3
134	134	2
65	152	1
120	120	6
95	97	2
55	105	2
100	100	8
75	80	1
111	114	1
15	30	3
81	84	1
26	27	2
117	137	1
90	97	1
33	45	4
115	116	1
121	154	1
22	148	1
109	115	2
130	132	1
12	16	2
14	15	4
92	94	4
64	83	1
38	40	1
23	25	1
39	70	1
34	62	2
93	108	1
31	35	1
25	27	1
84	88	1
88	93	2
107	141	1
97	140	3
36	38	2
34	36	1
122	137	1
146	147	2
76	81	2
136	137	1
16	19	1
144	145	4
54	68	1
35	81	5
83	84	2
8	52	1
17	37	2
31	63	2
104	113	1
107	113	1
103	152	1
101	102	2
45	74	3
105	113	1
98	100	3
143	146	1
137	139	1
113	137	1
80	86	1
111	113	1
49	99	1
88	101	1
16	54	1
115	119	1
27	28	1
62	73	2
3	3	2
3	23	3
43	56	1
46	75	2
27	66	3
22	24	1
95	95	6
91	137	2
41	44	1
68	142	1
109	116	1
104	122	1
97	114	1
103	154	2
38	53	1
66	142	1
55	55	3
71	95	1
74	86	1
12	13	2
101	101	1
41	67	2
119	134	1
117	141	1
91	117	1
122	123	1
45	117	2
125	125	2
69	74	1
74	81	1
67	83	1
104	111	1
46	53	2
29	31	1
140	141	1
6	7	3
105	122	1
20	31	2
29	30	2
110	115	1
78	129	1
32	51	1
127	150	1
6	32	2
93	94	1
129	130	5
67	70	1
29	34	1
106	118	2
88	98	2
68	76	2
51	108	1
79	87	1
15	21	1
67	142	1
85	105	1
48	49	1
148	149	1
63	81	1
32	76	1
125	129	1
23	27	1
97	107	1
42	66	1
24	25	1
53	69	2
4	28	2
109	120	1
50	58	1
103	118	2
46	47	1
15	16	2
33	34	1
94	99	1
91	109	2
9	16	2
113	113	1
149	150	2
87	98	2
108	113	1
64	69	1
34	38	1
49	69	1
139	143	1
115	115	1
123	129	1
99	107	1
136	148	1
26	29	1
56	73	1
12	52	1
138	138	1
74	79	1
7	10	1
64	78	1
35	40	1
2	2	1
11	18	1
105	114	1
137	141	1
19	20	1
50	86	1
134	147	1
