88	101	2
147	147	35
107	109	11
7	44	2
162	162	14
117	118	10
67	67	22
155	155	32
59	59	16
2	3	10
21	34	1
31	33	17
17	18	17
15	18	7
130	131	4
8	8	37
79	80	10
97	97	20
108	108	16
86	86	11
103	113	4
0	2	2
0	0	43
87	87	30
14	16	10
82	84	7
141	142	11
5	6	24
101	101	29
61	61	34
94	96	3
50	65	1
27	28	27
55	57	3
82	114	10
43	43	25
25	26	23
54	54	21
150	151	10
36	37	29
122	122	19
74	75	11
110	110	18
150	150	20
157	169	1
165	165	14
141	141	23
18	18	49
29	29	40
53	61	6
55	56	17
9	12	4
11	32	3
59	61	8
4	5	8
10	10	44
23	23	69
37	37	26
80	81	7
89	90	2
144	144	28
57	59	5
133	133	22
26	26	37
28	29	19
93	93	24
177	178	4
146	148	4
35	35	29
36	36	47
74	74	14
14	15	6
89	89	14
85	85	9
148	176	5
89	91	4
118	118	22
25	27	3
43	44	18
120	120	12
11	11	35
17	17	38
13	13	45
71	71	25
77	78	16
9	9	44
134	134	46
167	168	7
41	70	2
50	50	16
60	94	7
31	31	54
174	175	6
122	124	7
31	32	20
140	140	14
150	153	3
75	75	28
13	14	13
42	43	15
33	33	29
101	102	6
15	164	4
27	27	20
128	128	12
25	25	31
168	170	5
16	16	30
3	3	21
119	119	30
26	27	18
80	80	29
116	121	6
140	148	2
138	138	33
111	111	2
180	180	4
51	57	2
126	128	5
40	42	7
114	115	13
172	172	10
155	156	2
104	104	18
53	53	17
4	4	34
49	49	3
82	82	20
20	20	29
7	8	5
12	25	6
131	131	19
66	77	2
63	63	14
153	153	25
65	66	7
21	21	18
169	170	9
7	7	26
28	28	30
1	1	35
5	5	41
3	4	8
147	148	7
162	163	6
103	106	7
125	125	11
91	106	2
7	45	6
103	119	1
102	143	2
168	168	16
5	14	6
12	13	25
171	174	4
154	156	1
0	1	14
20	22	1
24	26	5
83	83	5
103	159	4
109	109	13
134	135	12
137	137	25
62	78	2
96	96	18
43	51	4
58	58	14
165	166	11
118	120	5
149	174	1
39	39	50
105	107	2
160	160	18
152	152	26
36	40	3
102	102	16
142	142	31
174	174	21
23	24	7
93	118	6
170	170	20
95	96	3
134	178	3
38	38	50
65	67	5
5	9	6
124	124	18
65	65	16
144	145	4
15	15	44
33	39	1
2	2	29
66	73	4
62	63	5
135	135	27
23	25	5
16	18	20
55	55	31
94	94	11
133	167	6
102	103	8
24	25	11
166	167	11
98	98	4
11	12	11
149	149	26
86	87	5
110	111	10
73	75	6
9	10	14
176	176	21
37	39	3
93	94	6
60	61	4
56	56	11
45	173	2
156	162	3
14	31	1
19	19	21
28	30	11
124	125	8
158	158	24
1	6	8
100	100	10
30	31	18
139	139	6
44	44	37
157	163	3
120	158	2
79	92	2
131	132	17
10	12	5
9	43	5
80	83	4
41	44	2
38	39	25
126	127	6
22	22	48
14	14	38
159	167	2
146	176	3
7	9	2
120	121	17
159	159	22
112	112	12
161	161	20
74	79	10
130	161	4
13	39	2
83	86	2
58	59	4
90	90	25
6	6	25
3	20	7
37	38	12
5	23	2
45	172	1
39	58	3
75	76	14
15	16	19
8	9	8
44	45	11
72	76	1
78	79	12
35	36	22
88	89	6
45	45	13
83	84	12
30	30	20
81	81	6
61	126	1
32	32	41
165	170	4
39	40	23
11	13	5
145	145	8
52	52	15
161	162	6
24	33	6
176	177	6
151	170	1
34	34	21
90	91	4
148	152	2
173	176	3
91	94	2
12	12	41
164	165	6
113	113	21
88	88	18
4	44	7
76	76	17
136	136	19
21	31	5
108	109	8
24	24	35
40	40	29
22	39	1
139	149	3
41	41	27
10	11	9
6	7	17
116	117	4
15	38	1
32	132	1
41	56	3
66	66	17
163	167	1
13	29	1
23	27	5
2	7	2
141	147	2
34	43	1
42	42	18
95	95	12
107	156	1
14	17	6
74	98	5
68	68	18
78	78	7
141	143	5
33	36	2
126	126	16
1	2	3
7	22	2
39	55	5
71	72	13
174	176	5
148	148	26
135	168	4
39	127	1
151	155	6
129	130	11
152	155	3
16	35	1
12	19	2
137	138	1
32	33	12
132	133	6
164	164	21
8	13	5
63	77	5
90	93	6
126	136	6
25	29	5
131	140	4
178	178	11
146	158	2
157	157	15
151	154	1
8	43	7
85	107	15
56	57	6
167	167	27
106	106	20
156	156	10
151	152	13
72	73	9
107	107	23
2	16	11
75	83	2
10	134	2
53	55	1
175	175	19
154	154	18
108	111	1
33	35	4
118	119	15
149	153	2
24	44	5
179	180	3
99	116	5
86	89	5
116	116	7
149	150	7
39	41	4
127	127	7
33	34	9
87	89	5
100	116	2
20	21	4
64	64	15
143	144	3
173	173	12
100	101	8
116	128	5
19	20	13
167	170	4
79	79	14
142	143	9
52	53	6
134	176	2
171	178	8
87	118	3
41	42	5
130	135	3
10	14	7
171	172	2
123	147	1
60	60	17
50	51	10
18	41	5
115	115	15
105	113	1
91	91	10
84	84	12
139	140	8
119	156	1
171	171	9
77	77	20
171	176	2
18	19	5
115	146	2
134	136	6
18	21	3
153	154	6
177	177	7
73	73	14
91	93	7
28	31	2
162	164	2
132	170	4
19	30	1
80	94	5
115	116	3
157	158	7
25	35	2
72	77	4
109	110	3
21	22	10
126	130	2
133	134	10
156	157	5
132	132	12
143	143	12
30	38	2
128	136	1
99	126	1
73	78	8
97	98	8
90	92	2
124	146	2
172	173	7
44	78	2
52	57	2
141	149	1
83	87	3
18	20	1
32	36	2
34	36	7
135	136	13
82	126	1
164	167	3
54	63	5
179	179	16
105	106	7
143	145	4
105	105	15
22	23	7
125	137	3
89	106	1
13	32	1
130	157	1
26	32	2
170	171	6
54	56	3
99	100	5
1	10	4
3	15	1
32	34	3
105	149	3
102	114	1
102	127	3
5	7	6
4	7	3
71	73	5
84	90	2
15	72	2
95	98	3
107	108	6
111	115	3
101	146	3
158	159	6
11	15	5
127	145	3
121	121	8
134	175	5
117	123	3
36	38	11
25	34	1
84	101	1
160	170	2
51	53	1
30	32	3
145	146	4
29	30	18
130	130	15
61	123	2
10	13	8
111	112	8
178	180	6
3	8	2
21	23	4
138	139	3
29	80	1
148	149	4
84	85	5
163	165	2
103	104	5
4	20	5
3	9	2
129	129	10
72	72	17
99	101	5
155	160	5
18	31	1
111	113	2
79	133	2
32	37	2
14	25	3
62	75	1
53	54	11
150	163	1
163	163	8
98	99	4
80	108	3
64	98	1
82	83	2
64	66	2
77	79	5
44	50	2
75	93	2
4	21	1
57	57	7
100	126	1
31	42	5
54	61	2
83	93	2
38	40	5
93	96	2
77	122	3
42	54	1
30	33	7
76	94	1
24	30	2
133	136	2
140	142	1
154	155	5
83	104	3
20	23	5
140	141	8
146	146	14
59	60	5
89	94	3
64	65	9
14	33	4
123	124	6
12	15	7
90	94	5
26	28	17
57	77	2
111	114	1
7	16	2
63	67	6
84	86	3
83	103	3
126	135	4
134	157	1
1	5	2
7	32	1
13	135	2
96	100	1
75	85	3
4	18	3
6	10	4
16	19	2
127	128	10
119	120	6
168	169	3
99	99	8
29	37	2
106	107	3
62	62	3
158	163	1
146	147	1
134	153	1
60	133	2
12	16	2
96	98	4
42	44	3
131	167	3
139	150	1
19	22	2
172	175	5
168	171	3
95	139	1
70	70	4
58	133	2
64	76	2
29	31	1
112	113	1
84	88	2
106	150	3
57	71	3
6	8	4
112	115	2
5	32	4
51	51	12
85	88	3
127	130	3
6	67	1
108	110	1
28	35	2
51	52	6
4	28	1
73	74	8
175	176	6
139	141	3
165	167	8
54	133	3
55	96	1
123	123	12
118	157	1
76	96	1
178	179	3
92	92	4
3	13	3
5	8	5
64	106	1
151	151	8
160	168	6
134	159	1
67	68	11
4	6	3
3	7	2
14	43	2
81	102	1
16	33	3
132	168	2
73	97	5
129	157	1
57	58	6
96	102	3
13	30	5
107	153	2
43	45	3
31	34	2
124	126	1
19	24	1
124	142	2
26	178	5
18	42	3
13	26	1
167	172	5
56	60	2
10	136	1
8	11	3
111	131	2
136	137	4
166	166	1
45	50	3
175	177	2
16	17	5
45	51	4
118	121	3
135	174	2
117	119	3
38	90	1
39	56	1
6	17	3
125	131	1
110	128	2
103	103	5
19	21	3
132	134	2
5	16	2
45	46	3
94	95	2
87	119	3
113	115	4
145	150	1
55	90	1
103	105	5
110	155	2
96	114	2
23	28	1
98	100	3
149	154	1
174	178	2
21	40	2
9	16	2
157	160	1
130	169	3
22	24	1
55	58	4
52	54	1
6	14	2
122	123	2
11	135	2
81	82	1
114	122	1
159	160	5
62	97	4
104	117	4
79	86	1
104	107	1
94	140	2
92	94	5
133	137	2
9	20	2
160	162	2
2	6	5
2	4	7
169	174	1
117	117	6
81	109	2
56	58	2
63	96	6
166	168	1
84	89	2
129	169	4
29	83	3
4	15	1
173	174	6
4	16	1
125	126	2
82	98	2
141	171	1
157	161	1
121	142	4
56	59	5
113	114	1
25	31	5
9	13	5
116	118	2
12	135	1
114	124	3
58	96	3
169	169	10
93	155	1
52	179	1
165	168	4
137	172	3
7	26	5
64	71	3
104	105	2
156	158	1
32	139	1
172	177	2
76	146	1
1	61	2
60	64	4
132	169	4
177	179	4
70	71	1
70	73	1
83	91	1
18	28	4
1	9	1
10	40	2
75	86	1
75	92	3
60	95	2
31	35	1
64	74	2
34	42	6
85	86	2
58	68	3
19	45	2
130	132	2
108	140	1
18	24	3
8	14	2
86	88	1
5	22	2
53	99	1
24	38	1
150	152	1
14	40	1
25	28	1
74	78	2
114	142	3
82	107	1
133	168	2
163	164	1
107	114	1
110	129	2
129	155	4
21	39	2
102	105	3
4	9	2
150	154	1
35	38	3
18	36	1
173	175	1
122	138	1
83	92	1
105	109	1
171	173	2
153	158	1
50	58	1
159	165	1
7	15	1
92	93	1
10	43	1
13	31	3
121	122	2
107	110	3
38	133	1
81	95	3
121	125	4
81	83	1
152	171	2
53	60	1
122	126	4
63	75	3
40	41	3
151	156	1
16	41	1
63	76	1
68	73	1
147	153	1
36	39	2
7	23	2
17	19	2
24	31	2
64	67	2
121	140	3
111	130	1
76	77	1
149	176	1
4	8	1
37	40	1
35	39	2
127	136	2
23	31	3
23	26	1
100	143	2
97	127	5
155	157	2
127	137	1
76	79	1
99	146	1
76	95	1
8	10	2
1	17	4
146	163	2
105	120	2
34	35	1
13	40	1
9	11	4
50	52	1
23	29	1
51	58	1
11	14	1
12	28	1
133	135	1
150	158	1
144	146	5
11	38	1
123	125	5
114	114	3
22	31	1
134	137	3
41	43	2
158	170	1
125	129	2
13	15	4
7	10	1
61	125	1
27	30	2
17	20	3
149	151	1
7	46	1
110	140	2
27	29	1
82	109	1
86	94	2
24	28	1
17	21	1
142	167	2
83	150	1
88	119	1
8	26	1
52	180	1
121	159	1
77	146	1
13	17	3
76	91	1
22	38	1
115	127	1
82	86	1
35	43	1
77	95	2
127	144	2
76	78	1
46	46	1
50	53	1
44	51	1
60	126	1
54	57	1
120	127	1
18	22	2
2	18	1
89	150	1
18	23	2
54	55	1
144	147	2
4	137	1
102	109	2
127	135	1
3	6	2
63	64	1
15	41	1
124	143	1
9	46	2
150	156	1
78	80	1
15	77	1
132	135	1
111	128	1
10	18	1
128	147	1
137	139	1
39	59	1
160	163	1
164	169	1
94	138	3
8	137	1
95	100	1
127	142	1
119	121	1
161	163	2
146	156	2
74	89	1
127	146	1
37	149	1
92	117	1
39	43	1
96	121	1
98	118	1
11	25	1
10	30	1
154	172	1
