82	82	5
39	39	6
116	116	6
156	156	9
57	66	1
43	98	4
19	53	2
93	93	4
5	5	18
154	154	2
132	132	8
106	106	3
1	2	4
21	21	2
2	2	7
149	149	8
157	157	5
43	43	12
50	53	3
41	41	5
95	95	8
15	15	14
20	52	5
140	140	13
46	46	7
50	51	9
70	70	4
77	77	10
146	155	1
83	107	2
145	147	5
23	24	6
82	84	1
124	127	3
78	80	1
91	91	6
111	111	9
29	35	4
18	21	1
9	9	10
53	54	2
86	86	17
112	112	5
113	113	6
3	3	15
95	96	3
78	78	6
32	67	1
150	152	9
76	120	1
63	63	3
32	61	3
23	25	3
119	120	4
96	142	1
96	97	5
22	35	1
155	155	11
98	102	2
18	18	12
71	71	5
15	22	3
152	157	2
7	23	4
85	117	5
80	91	4
90	108	3
2	17	5
44	44	6
40	57	1
148	149	1
76	104	1
125	125	6
88	88	2
33	34	4
133	133	13
15	39	4
110	110	6
129	129	7
40	40	13
152	152	11
62	62	1
71	97	4
109	109	11
13	18	4
89	89	4
150	150	6
66	119	1
115	115	6
136	136	5
68	82	4
92	92	5
100	100	5
101	101	3
87	108	4
21	89	1
14	14	6
13	13	2
111	128	1
37	37	1
147	147	8
19	20	3
25	31	5
145	145	1
107	111	2
123	123	8
21	120	2
121	121	6
31	32	2
53	53	5
7	18	2
73	73	10
49	49	4
113	114	4
8	48	1
67	67	7
27	55	7
90	109	4
3	4	5
47	47	6
63	70	3
45	47	2
114	138	2
8	9	7
137	137	8
67	71	1
15	20	2
84	96	2
13	14	4
42	43	5
8	10	1
22	22	4
12	13	3
1	1	5
120	120	6
108	122	1
102	102	2
141	141	3
36	36	2
107	107	1
45	66	3
8	8	2
151	151	4
38	38	3
64	64	3
25	48	3
157	158	3
2	3	6
82	83	3
25	37	2
24	24	5
110	111	5
68	69	1
98	98	2
89	92	1
57	64	1
0	0	11
79	79	6
7	7	4
118	120	1
124	124	4
69	71	4
41	42	4
68	70	5
96	96	3
146	146	4
15	88	1
130	131	3
30	32	6
43	44	1
144	144	2
85	86	4
93	94	11
34	37	1
75	75	1
123	125	1
15	53	3
9	13	3
15	16	1
29	29	7
95	97	1
52	52	4
9	12	3
107	109	3
23	23	6
35	35	9
126	142	3
27	27	3
69	69	5
10	10	2
137	138	3
32	51	2
117	143	1
24	92	1
69	70	5
8	50	5
54	54	4
30	30	4
11	11	2
122	126	5
30	152	1
10	15	2
114	114	6
6	7	2
6	6	1
144	146	2
104	104	1
33	33	3
140	141	3
85	85	3
8	120	1
25	49	4
44	45	2
122	122	3
87	87	1
45	45	9
20	20	3
81	82	8
7	8	2
135	135	11
106	117	2
111	115	4
155	157	4
32	33	2
69	96	1
86	87	5
105	137	3
16	17	7
25	25	1
139	139	4
144	154	3
26	26	5
134	136	3
119	119	8
133	150	1
118	140	2
141	142	1
154	155	6
66	66	1
146	147	1
109	112	1
19	19	9
63	119	1
79	118	3
103	103	12
3	15	3
116	117	1
90	90	6
127	138	1
77	103	2
141	148	2
38	39	4
12	14	2
26	27	1
107	139	4
112	113	1
79	113	1
154	157	5
66	96	2
16	16	2
56	56	1
148	148	4
9	45	2
112	144	1
62	76	1
28	30	1
57	57	1
102	107	1
147	148	2
81	81	6
128	129	4
22	37	1
139	154	1
29	34	2
111	112	2
117	117	5
118	118	2
0	1	2
139	140	1
17	17	5
88	89	3
5	51	2
123	134	1
37	42	2
27	28	1
37	38	2
89	90	2
144	152	3
134	134	11
77	117	4
144	147	1
3	22	1
46	47	1
50	50	3
133	147	1
126	126	3
132	155	3
12	87	3
75	99	3
32	94	3
25	26	1
150	156	6
11	16	2
98	128	1
45	46	2
24	27	1
4	4	4
30	75	1
5	11	1
29	43	2
72	72	1
27	94	1
130	130	2
102	103	2
16	53	3
55	55	3
23	46	3
99	99	2
43	99	2
22	23	1
21	86	1
108	108	1
21	22	1
31	52	2
34	39	3
26	31	3
97	97	3
151	157	1
4	5	2
125	126	1
32	32	3
14	19	1
101	102	1
84	84	2
76	115	2
112	146	1
103	121	1
29	30	3
15	46	1
131	131	2
1	5	2
80	80	4
49	85	2
110	112	1
105	105	1
115	125	3
142	142	1
127	152	1
120	121	2
68	68	2
12	12	2
73	81	1
152	156	1
109	127	2
31	31	1
18	19	3
139	153	4
148	150	1
108	146	1
48	48	2
80	82	1
69	121	1
114	130	2
124	125	3
145	153	1
83	83	3
113	115	1
97	98	1
90	97	2
115	116	2
42	42	2
57	63	2
135	136	1
128	128	2
146	158	1
54	55	3
149	159	1
16	36	1
158	158	1
3	39	1
2	24	1
127	127	2
132	146	2
36	37	1
42	103	1
28	50	2
77	78	2
76	76	1
43	55	1
123	127	1
106	107	1
85	106	1
28	87	1
41	43	1
122	147	1
48	51	1
124	144	1
94	95	1
70	71	2
3	16	1
147	154	1
148	156	1
133	158	1
9	103	1
84	85	1
111	113	1
67	96	1
14	15	1
42	49	1
97	142	1
112	121	1
153	153	1
