114	115	2
44	44	7
116	116	7
29	29	10
72	72	8
99	100	5
90	90	7
63	63	7
54	54	7
108	108	6
108	112	1
7	7	6
105	105	8
10	10	5
70	70	19
132	132	6
62	62	2
103	103	5
113	132	2
31	32	7
66	66	4
24	43	2
41	41	5
50	51	2
95	96	6
48	48	9
32	32	3
113	113	15
99	101	1
30	30	8
77	119	1
130	130	7
109	109	12
92	92	6
62	63	3
48	52	4
71	71	2
118	126	2
117	117	3
74	74	10
51	51	3
10	11	4
60	61	3
96	96	12
111	111	2
84	97	1
65	65	19
21	24	3
41	42	11
98	99	1
47	47	9
97	98	8
69	71	1
41	43	5
75	75	4
93	93	4
52	53	10
39	39	2
2	3	1
59	89	4
126	127	3
79	89	1
113	114	5
85	88	2
21	21	2
122	122	7
43	43	5
97	102	1
34	34	2
68	68	10
46	46	3
12	12	9
101	101	6
115	115	3
24	24	5
61	61	8
79	79	6
15	15	1
6	6	2
67	68	2
78	79	4
121	122	1
112	112	4
131	132	1
79	80	1
3	3	3
129	129	7
51	52	2
2	2	11
74	128	3
0	25	1
89	89	2
120	120	5
49	117	4
106	124	1
40	40	3
125	125	5
14	14	1
86	86	2
110	122	2
16	18	1
22	22	2
117	128	2
52	52	5
50	50	5
23	23	6
72	74	2
55	55	6
18	22	4
54	55	2
107	109	1
26	29	1
58	58	5
8	9	3
81	81	1
121	125	4
13	13	9
121	121	9
18	18	5
9	9	3
18	25	1
99	99	3
11	13	1
115	126	2
117	125	2
42	42	6
4	14	6
13	16	1
115	116	2
120	121	2
85	85	2
45	46	3
68	103	2
18	23	2
88	88	8
119	127	3
2	23	1
131	131	1
22	24	2
5	5	7
40	42	1
49	49	6
128	129	1
68	69	1
68	81	1
87	87	3
111	112	2
112	124	3
99	125	1
108	109	7
59	59	5
77	77	3
73	103	3
60	60	2
9	92	1
12	29	2
9	10	2
34	38	2
30	41	1
25	26	4
27	27	2
33	33	3
74	75	1
104	104	3
20	20	4
53	53	2
100	105	2
40	41	4
13	14	3
123	123	2
78	78	4
63	64	4
87	88	2
106	106	1
80	85	1
88	97	5
129	131	1
58	59	3
26	26	3
100	101	2
69	69	1
0	0	4
110	133	2
21	22	3
45	47	1
64	64	3
124	131	1
107	124	1
57	57	2
79	81	1
73	73	2
46	47	3
31	31	1
124	125	2
11	12	1
110	111	2
26	27	1
99	103	1
125	131	1
75	118	2
56	56	2
33	131	1
82	82	4
83	84	2
82	98	1
19	22	3
40	43	2
95	95	3
110	110	1
94	94	1
58	66	1
102	102	2
67	124	1
45	45	1
25	25	2
133	133	2
17	17	2
127	127	1
102	103	4
80	80	1
24	55	1
93	94	1
21	23	1
29	41	2
16	17	1
28	29	1
20	21	1
57	93	1
105	124	1
98	103	1
8	8	1
72	73	1
53	54	1
103	106	1
80	102	1
105	106	2
103	104	1
85	122	1
104	107	2
65	66	1
11	11	1
87	89	1
20	23	1
114	126	1
107	107	1
16	16	1
27	47	1
118	118	1
47	51	1
114	117	1
49	53	1
