154	155	4
163	163	3
28	38	6
164	164	1
130	130	3
86	86	17
81	81	23
75	75	4
20	20	16
25	36	3
54	54	21
16	16	5
61	61	10
188	207	1
88	89	4
53	63	4
124	124	1
221	228	7
20	28	3
36	36	17
174	174	13
29	29	14
31	36	2
195	197	4
234	234	13
5	5	10
39	39	6
214	214	4
27	27	14
34	36	3
35	35	12
167	167	2
116	120	1
128	128	12
9	38	1
9	10	3
84	85	9
66	66	15
0	0	23
79	79	6
77	77	2
43	55	1
44	44	13
125	126	11
197	197	12
9	9	19
58	60	7
203	204	6
8	19	4
77	105	3
225	225	14
227	227	15
145	145	12
177	177	22
75	99	1
88	102	2
106	106	5
162	162	14
101	101	10
84	84	10
185	185	3
235	236	5
226	226	7
202	202	8
70	70	18
99	105	2
42	46	6
173	173	3
239	240	3
80	83	3
7	7	9
201	201	8
127	127	3
16	223	3
28	44	2
13	14	6
223	223	19
83	83	7
31	31	8
31	32	1
131	131	5
228	228	5
138	138	1
158	158	6
44	45	9
11	18	3
146	146	5
125	125	4
206	206	5
40	42	3
160	200	2
184	184	11
176	178	1
44	47	4
82	83	6
186	202	4
205	207	1
207	207	4
232	232	11
52	141	1
170	170	11
16	17	3
67	67	6
74	74	13
11	11	19
101	102	5
10	10	6
198	198	6
136	136	9
43	43	24
211	211	6
1	7	4
190	190	12
200	201	6
159	159	11
65	65	23
55	64	4
78	123	5
134	164	5
212	212	5
53	142	1
136	137	5
26	208	3
61	120	2
142	143	2
160	161	3
219	219	12
14	21	1
150	150	5
8	11	2
11	13	5
34	35	4
42	42	11
152	152	4
46	47	6
60	61	2
15	19	2
169	169	9
208	208	3
217	217	20
229	229	10
155	155	6
27	28	3
187	187	7
149	179	1
53	53	7
230	236	2
213	214	9
136	143	4
160	201	1
85	85	17
197	208	1
78	78	7
64	64	3
60	135	2
73	73	12
179	180	4
221	221	8
28	28	14
8	8	7
131	132	4
180	180	7
144	144	9
37	56	2
37	44	1
52	52	7
160	160	7
48	48	3
187	189	1
73	86	2
88	88	20
41	41	7
171	172	2
60	60	16
224	224	18
26	26	10
17	17	14
227	234	1
190	191	4
95	95	7
38	38	22
55	55	6
240	241	3
18	19	5
29	32	2
192	211	1
133	134	4
118	118	9
45	45	13
159	160	5
71	71	4
37	121	3
37	55	3
44	70	4
24	65	3
19	20	6
196	196	10
33	33	12
102	102	9
32	34	5
189	189	8
222	222	9
123	136	1
46	46	34
14	22	1
231	233	2
53	65	2
204	205	8
10	38	2
182	182	11
140	163	1
191	191	4
141	142	7
154	154	4
123	123	15
236	236	5
230	230	8
30	30	9
141	141	2
165	165	7
238	238	16
62	120	2
164	167	5
214	215	4
5	8	1
45	46	3
41	42	7
135	135	6
3	224	1
182	183	3
194	195	4
183	183	10
15	17	1
161	183	3
161	161	5
178	178	11
6	33	3
12	186	1
191	193	4
14	14	5
233	233	6
140	141	3
119	119	7
201	202	4
243	243	2
105	106	16
192	192	9
17	18	5
66	67	4
24	67	5
150	151	2
188	189	4
195	196	6
180	208	1
61	131	2
72	72	10
21	39	1
56	62	4
205	205	5
40	62	1
40	40	5
20	30	1
9	30	5
19	19	5
112	112	3
181	181	13
46	71	2
199	199	12
83	84	1
217	222	4
25	25	8
166	166	5
184	186	6
53	55	4
191	196	1
237	237	16
82	82	10
144	163	1
153	167	3
126	126	5
45	113	3
107	108	4
139	139	5
215	228	2
1	191	2
98	98	7
62	62	10
2	11	3
74	86	1
110	110	2
38	55	1
24	25	4
122	124	6
104	104	2
113	113	7
188	188	2
123	124	1
137	137	8
23	26	2
57	57	3
31	35	2
118	120	1
153	154	2
1	1	14
213	213	2
47	47	17
10	15	2
62	177	2
11	23	1
105	105	5
22	22	1
231	231	4
192	194	2
172	206	1
183	198	4
56	56	7
126	127	2
237	238	4
197	198	3
61	62	8
196	198	1
209	221	3
124	127	1
65	66	1
29	75	2
189	197	1
112	113	3
173	174	4
32	32	7
175	208	1
38	43	2
242	242	7
236	237	2
177	178	2
123	125	7
68	69	6
12	12	5
57	155	5
148	148	2
1	17	4
227	228	3
63	68	2
223	224	5
143	204	2
72	73	3
160	202	2
143	146	1
202	207	1
20	26	8
120	120	8
46	149	2
47	61	3
56	69	2
95	96	1
70	72	3
18	18	9
24	237	3
122	123	5
220	220	8
195	195	2
6	16	3
33	34	1
59	59	2
3	7	2
85	122	1
108	109	1
170	179	4
222	223	3
145	147	4
81	83	6
29	30	2
230	231	7
226	228	1
24	31	1
37	52	1
69	83	1
21	21	8
17	223	3
169	204	2
103	106	3
37	38	2
100	100	2
57	135	6
57	59	1
226	227	3
194	194	2
224	225	2
203	206	2
122	126	2
174	175	10
81	82	3
77	78	7
74	108	6
196	210	1
176	176	6
220	222	7
239	239	9
43	45	1
15	15	5
111	112	1
12	13	6
218	218	8
4	4	6
20	31	2
36	50	2
97	97	2
27	73	1
23	23	7
54	55	5
3	15	2
151	151	6
152	169	3
7	8	6
4	15	2
204	204	3
168	170	2
209	209	5
109	109	5
113	149	2
39	40	6
133	133	6
216	216	9
142	142	2
71	72	1
63	65	3
51	51	7
48	49	8
77	103	3
22	23	4
223	225	6
13	13	2
143	143	6
96	127	1
84	122	5
45	70	4
241	241	2
37	37	5
158	198	1
127	155	1
166	171	1
53	54	7
196	197	2
117	118	2
2	3	4
178	186	1
135	140	2
2	7	1
36	67	5
25	65	1
117	117	2
48	122	2
13	22	1
47	114	3
134	134	8
66	68	2
134	180	7
129	129	3
48	60	1
55	86	1
172	172	5
5	6	3
122	122	4
34	34	1
212	218	4
10	39	2
138	141	4
14	15	3
96	97	4
137	154	1
127	129	1
185	193	2
224	227	1
11	32	1
175	175	8
121	122	1
186	186	5
152	153	1
235	235	5
131	136	3
8	14	1
111	111	2
138	161	3
16	19	2
70	84	4
50	51	2
78	105	2
6	34	3
115	115	1
49	139	3
141	164	1
191	192	1
28	29	2
89	95	2
35	57	4
177	182	1
14	31	1
0	223	3
12	73	1
241	242	4
107	107	3
157	157	4
135	136	6
6	7	2
75	79	4
108	108	2
9	59	1
1	2	1
21	29	1
132	133	5
37	64	5
143	147	2
214	216	1
101	105	3
146	147	4
224	228	1
53	68	3
181	209	1
205	206	1
128	154	1
69	69	2
15	186	1
103	107	2
157	158	1
121	121	2
175	206	2
24	33	1
23	34	2
198	207	1
240	240	3
21	24	1
198	208	1
20	101	1
65	69	2
69	71	1
78	104	1
96	96	4
114	120	3
39	136	2
49	49	5
62	64	2
164	165	1
172	179	1
55	56	1
13	72	2
5	22	1
25	101	1
8	9	4
197	224	2
99	99	1
187	193	1
80	107	1
134	161	2
104	105	2
129	134	1
57	58	1
6	17	3
43	56	1
4	5	3
9	241	4
2	2	1
183	184	2
126	159	3
156	156	1
99	101	1
42	44	2
58	58	4
36	37	3
184	198	2
153	153	2
47	98	1
36	69	2
172	201	1
169	181	2
76	77	1
103	103	1
147	150	4
54	63	1
85	98	1
73	74	1
89	89	5
37	39	1
68	68	2
193	193	2
33	57	1
3	10	1
25	26	3
67	84	2
59	60	2
11	12	1
171	182	1
2	4	1
116	117	1
204	207	1
53	66	1
175	207	3
83	122	1
200	200	2
204	206	2
80	80	3
133	183	1
8	189	2
124	125	4
231	236	2
190	192	1
32	73	2
27	53	2
0	1	1
89	106	1
15	53	1
185	186	3
153	170	2
60	126	1
63	63	3
49	118	1
193	196	2
128	157	2
20	21	1
210	218	1
90	108	1
113	114	2
40	146	1
30	31	3
75	98	2
194	196	1
210	221	2
215	216	1
33	36	1
19	175	1
0	201	1
69	137	1
170	183	1
151	152	1
165	166	1
168	169	1
185	192	1
147	147	1
128	156	1
15	20	1
197	213	1
203	203	1
181	182	2
136	161	3
51	52	2
18	142	1
217	218	2
118	131	1
87	109	1
117	119	1
12	24	1
192	193	1
3	4	1
220	228	1
21	41	3
232	233	1
155	156	1
102	105	1
69	70	1
8	31	2
162	165	1
222	230	1
11	41	1
141	143	1
18	20	2
63	66	1
161	166	1
6	6	2
154	157	1
42	43	1
30	32	2
41	151	1
50	139	2
177	180	1
202	203	2
187	192	1
79	80	1
104	107	1
5	13	1
118	134	1
185	198	1
197	201	1
78	79	1
165	183	1
148	149	2
78	103	1
137	138	1
120	121	1
231	237	1
179	179	1
218	222	1
63	64	2
152	160	1
161	162	1
124	138	1
89	91	1
21	64	1
76	76	1
232	234	2
9	71	1
37	65	1
5	18	1
3	6	1
134	143	1
140	162	1
194	227	2
21	22	1
169	170	1
140	140	1
24	24	2
70	71	1
3	11	1
179	203	1
39	41	1
182	198	1
8	15	1
198	199	1
149	149	1
3	3	1
42	55	1
237	239	1
120	148	1
132	165	1
