194	196	2
24	25	4
100	100	13
130	130	12
81	81	16
172	173	6
188	189	4
53	53	12
173	173	3
3	3	3
167	167	4
119	119	3
125	126	9
171	174	1
149	149	7
62	62	8
37	38	8
141	141	20
82	82	6
187	187	18
173	174	2
38	38	10
121	121	5
7	19	4
116	116	12
31	33	4
165	166	12
178	178	14
182	182	20
32	174	3
155	157	4
100	101	4
189	190	10
185	186	5
169	169	13
159	178	2
12	12	5
194	194	13
188	188	8
163	164	5
88	88	9
58	61	6
15	16	6
40	40	8
155	155	8
183	183	11
161	162	8
106	106	7
37	37	7
42	43	3
157	190	5
7	8	5
18	18	15
0	0	6
41	41	18
14	38	1
4	4	13
153	153	14
147	147	11
191	193	3
120	127	1
64	64	5
66	66	5
155	156	8
117	131	4
41	42	4
63	64	4
154	174	1
193	193	20
171	172	10
122	126	5
59	59	8
13	51	3
60	60	5
108	108	6
95	96	1
139	139	16
2	2	7
32	32	5
124	124	4
150	152	7
50	50	4
153	154	10
158	158	12
68	70	4
25	26	4
144	148	1
11	12	7
78	78	13
166	166	11
185	188	1
137	140	4
136	136	10
175	175	8
156	156	6
52	52	9
36	44	4
176	181	4
79	79	7
147	168	3
135	135	3
103	103	5
61	61	4
160	160	19
174	174	6
154	154	14
148	148	5
9	9	13
84	84	6
137	137	9
148	149	5
7	38	2
71	71	4
190	191	4
169	193	3
128	128	18
171	179	2
176	193	1
195	195	11
127	127	2
66	67	2
47	47	9
102	161	6
165	165	7
178	182	2
123	123	9
26	26	4
118	119	2
94	94	19
51	52	1
192	193	6
49	49	15
135	137	1
159	159	3
185	185	15
8	8	10
138	138	13
48	119	1
122	123	5
160	168	1
164	164	11
13	30	2
48	48	14
32	33	3
189	189	12
120	128	5
11	11	7
16	16	5
7	7	9
10	11	5
143	144	3
111	112	5
6	7	6
75	77	6
13	13	3
151	151	7
21	22	5
109	109	5
191	192	7
17	17	10
58	58	12
152	156	1
179	179	5
192	192	7
162	162	7
140	144	1
0	38	3
5	7	6
179	182	4
5	5	6
31	31	5
98	109	6
27	27	6
154	156	5
114	115	8
36	162	2
99	100	1
150	161	2
165	168	3
44	44	16
180	189	2
156	157	3
172	179	5
83	84	2
142	143	3
37	39	3
146	146	6
88	89	11
51	51	5
168	168	4
168	169	10
24	24	9
30	31	8
177	178	6
152	160	1
42	44	4
23	23	4
38	42	2
62	78	3
17	18	4
5	6	7
150	150	8
197	197	18
102	102	9
157	157	9
180	180	6
33	33	15
194	195	6
18	19	1
56	57	2
110	111	4
126	127	1
101	114	6
99	99	3
72	72	8
113	117	2
10	10	6
40	41	7
146	159	1
114	114	12
174	175	5
177	177	9
69	70	5
143	143	16
76	76	4
54	56	2
157	158	6
135	138	1
119	129	2
26	27	7
25	25	5
162	167	2
127	128	2
135	143	1
170	170	11
40	42	5
70	73	2
97	98	1
175	178	5
73	73	2
193	194	2
46	46	4
196	196	6
117	117	7
121	122	2
158	174	1
101	115	2
168	180	3
13	14	4
6	8	6
110	110	2
122	122	6
108	116	1
116	119	4
149	150	2
157	171	5
9	10	5
161	161	11
65	77	1
170	190	8
1	2	7
191	191	7
152	152	2
21	32	4
146	148	8
126	126	5
77	78	3
101	103	2
129	132	2
144	162	1
67	67	4
86	86	8
134	137	8
29	30	6
105	106	4
121	123	3
180	190	3
113	115	7
181	181	13
87	96	2
65	66	2
34	34	11
102	103	1
98	98	5
68	74	3
69	69	6
45	50	2
163	163	15
28	31	2
22	22	5
68	68	5
108	111	2
177	187	2
54	55	5
164	166	1
17	38	1
116	132	3
181	182	3
102	160	1
55	59	2
118	118	7
97	109	2
126	128	2
70	70	6
131	131	7
145	145	8
85	85	4
22	182	5
162	164	6
109	116	3
147	148	4
190	190	4
171	176	1
30	30	2
43	43	11
109	111	4
80	80	2
97	110	5
186	186	5
135	136	7
22	24	2
140	143	2
134	135	4
21	175	1
98	99	3
4	5	4
166	167	1
45	45	8
1	5	1
21	21	11
115	115	10
81	84	1
112	112	2
101	102	4
4	69	4
182	183	7
180	181	4
146	156	1
27	29	3
122	124	4
159	160	3
176	179	1
20	20	2
28	28	3
126	169	3
176	176	7
87	87	6
136	137	3
101	101	6
151	152	1
5	190	1
129	129	8
95	95	4
131	132	1
28	29	2
33	37	1
78	79	3
57	57	3
147	166	2
139	140	3
9	11	3
162	165	3
0	1	4
164	173	1
154	155	3
148	152	1
174	178	1
73	74	1
114	118	1
111	111	9
165	172	3
48	49	2
23	25	1
36	37	3
186	189	2
84	86	2
165	178	3
162	193	1
21	26	4
182	192	3
172	172	4
184	184	8
134	140	2
120	120	2
104	104	4
39	39	4
164	165	3
16	17	2
12	13	4
47	48	2
138	141	2
63	63	3
161	164	4
94	95	4
9	17	1
130	131	5
140	140	5
23	24	3
0	4	2
85	88	3
116	117	1
75	75	3
179	181	1
25	31	2
187	188	6
176	178	3
152	153	3
101	108	4
6	9	1
177	181	3
90	90	9
179	180	2
68	73	4
35	36	2
132	134	2
167	182	2
137	138	2
184	185	3
136	141	1
147	161	2
183	184	3
45	47	1
184	197	2
8	9	1
59	74	2
15	31	5
125	125	2
133	134	1
1	189	1
107	107	6
9	14	5
55	78	1
96	96	3
115	120	2
178	179	2
141	142	1
146	147	2
81	82	1
36	195	2
19	19	2
8	36	3
20	31	2
27	28	3
150	164	2
14	14	9
106	107	3
18	21	2
103	104	1
2	3	3
9	15	2
186	187	5
71	122	2
83	83	3
153	175	1
167	168	1
175	176	2
158	159	3
153	156	3
9	37	2
55	61	4
161	163	1
176	177	3
169	171	2
155	174	1
163	179	2
40	43	1
138	139	1
114	116	1
37	42	1
70	71	1
71	81	1
77	77	3
104	106	1
142	142	1
162	191	1
1	3	2
16	31	2
108	109	3
106	163	1
62	63	1
134	134	4
184	186	1
35	35	4
146	160	1
163	165	1
36	36	3
67	68	1
155	160	1
24	31	2
144	145	2
74	74	5
114	138	1
29	29	1
28	30	1
136	142	1
156	171	4
54	54	4
43	45	2
183	189	2
188	190	1
116	157	1
167	170	1
81	83	3
104	111	1
195	196	1
133	133	3
170	171	2
14	50	1
171	171	2
3	4	4
22	25	3
132	132	4
172	177	1
152	165	1
152	158	2
196	197	2
47	49	1
49	50	1
161	165	1
160	161	1
170	191	2
75	76	1
60	74	2
6	6	1
125	127	1
55	63	1
149	191	1
43	46	2
112	138	1
105	105	1
9	50	2
33	43	1
166	171	1
38	39	1
89	89	1
161	176	1
42	42	4
177	179	2
158	178	2
20	25	1
20	21	1
55	77	1
18	29	1
75	80	2
169	186	1
0	2	1
23	30	1
187	190	1
104	108	1
33	34	1
150	178	1
189	194	1
115	116	2
128	129	1
53	119	1
84	89	1
135	190	1
4	9	1
104	112	1
141	143	1
162	166	1
111	141	1
157	189	1
145	146	1
50	51	1
123	124	1
