47	52	2
76	76	3
57	57	12
97	97	9
22	41	5
45	46	1
90	92	3
49	124	1
54	117	6
96	96	16
121	121	5
57	58	3
24	32	5
46	47	2
29	29	14
52	131	1
11	12	3
126	126	6
82	82	4
25	25	4
30	30	12
127	127	2
130	131	3
88	118	4
22	23	1
56	115	1
51	80	4
68	130	1
48	122	3
129	129	2
39	61	6
71	71	9
15	24	4
72	72	3
122	122	2
39	41	7
48	48	5
120	120	1
130	130	4
13	13	7
118	118	5
102	102	13
20	21	2
95	95	16
92	108	5
102	103	3
72	74	3
21	21	3
22	22	7
4	6	1
9	9	6
59	60	7
3	3	6
129	131	4
82	84	4
70	70	1
65	115	1
19	19	5
90	90	10
97	98	8
52	52	12
120	122	6
125	125	4
54	58	3
9	10	3
13	111	2
108	108	2
98	98	6
60	61	5
39	71	2
21	27	1
76	77	4
112	112	5
100	119	2
43	43	3
40	40	5
111	111	5
20	20	2
78	93	3
21	22	4
99	99	8
54	121	1
106	106	4
105	128	2
93	93	5
5	5	5
29	30	1
54	54	8
73	82	7
107	107	3
5	14	7
52	125	2
52	53	4
94	95	2
64	130	1
49	49	4
123	123	6
38	38	2
131	132	1
69	107	7
8	28	2
70	71	2
51	51	1
21	40	4
113	114	4
42	63	1
95	102	1
26	26	3
11	11	4
96	109	4
92	96	5
122	123	6
52	72	2
33	33	2
92	92	1
90	109	2
64	64	6
73	73	2
76	129	3
101	103	2
0	1	6
39	39	2
55	85	1
78	82	7
31	31	3
100	100	5
128	128	11
40	41	2
2	44	4
22	44	7
79	117	1
15	16	2
104	104	5
2	2	1
115	117	3
89	118	1
48	93	5
110	110	8
101	101	5
79	79	2
53	53	3
65	116	1
17	18	5
74	77	2
44	45	1
24	34	2
68	76	7
80	81	10
106	120	3
116	116	7
13	16	6
68	68	7
66	133	3
67	67	2
126	127	8
3	9	3
97	106	4
14	17	7
90	119	2
97	129	2
32	32	4
114	115	2
78	78	2
81	83	2
58	58	4
88	88	16
17	17	2
24	31	2
120	131	3
102	128	1
129	130	2
73	104	3
75	75	3
27	27	2
47	47	1
15	17	6
48	124	2
0	0	3
62	62	1
113	118	1
42	43	1
114	114	2
30	40	1
77	99	2
45	45	3
79	88	1
57	71	2
126	128	1
34	107	2
12	12	1
25	46	2
34	93	1
117	117	3
98	104	1
81	89	1
6	6	2
119	119	5
80	80	5
93	97	1
74	75	1
2	5	3
124	124	3
115	115	3
81	81	2
25	26	4
96	97	1
3	4	2
50	50	8
47	54	2
1	14	3
108	109	1
15	15	1
120	123	1
53	54	2
18	18	3
65	66	2
60	60	3
1	1	4
55	55	5
112	131	3
115	116	2
84	84	4
44	44	1
51	52	1
16	17	4
80	82	1
132	133	2
113	115	2
31	126	2
45	74	1
25	34	2
72	76	3
59	59	3
24	58	2
28	28	3
82	83	1
91	91	5
41	41	2
79	115	3
68	79	3
109	109	5
111	112	5
2	4	2
94	94	1
59	63	2
83	84	2
51	54	1
32	50	4
23	23	2
127	128	1
52	73	1
110	113	1
58	71	1
39	59	1
105	105	1
96	98	1
86	88	2
47	51	1
118	119	1
92	95	1
112	122	2
59	62	1
84	85	2
113	116	2
38	41	1
46	46	1
125	127	2
38	91	2
79	112	4
22	25	2
102	104	2
90	115	1
20	26	1
124	125	2
8	8	1
4	44	3
14	15	2
75	85	1
56	56	3
10	10	1
23	24	1
54	56	2
75	78	1
68	89	2
89	89	1
31	131	1
30	59	1
77	77	1
14	123	1
74	74	1
126	130	1
42	42	1
73	98	1
52	81	1
8	10	1
96	104	1
29	31	1
53	55	1
65	65	1
110	111	1
28	34	1
69	69	1
93	109	1
85	85	1
30	68	1
102	127	1
109	110	1
65	71	1
