134	134	19
105	105	10
140	141	5
121	125	5
86	87	6
8	8	11
34	35	27
125	125	23
137	138	17
36	36	15
18	18	12
85	88	3
133	133	20
26	26	16
84	84	3
77	77	18
102	102	12
78	78	14
28	41	7
129	129	8
131	132	5
15	110	2
95	95	6
2	2	15
132	133	17
0	36	3
112	113	3
128	128	19
72	73	8
19	26	1
49	50	4
62	110	1
120	120	20
21	21	17
82	82	18
9	131	3
116	118	3
31	31	10
23	25	6
73	73	6
43	64	5
64	84	2
6	122	1
114	114	14
85	85	7
27	27	19
11	11	7
16	16	6
1	1	9
110	130	1
16	38	3
135	135	15
132	132	16
73	74	11
59	59	20
62	63	13
123	123	15
56	130	1
118	118	15
40	72	7
139	139	18
124	124	16
30	30	16
57	57	12
48	48	10
28	28	19
121	121	13
76	77	12
87	88	2
23	23	14
141	141	18
87	87	7
145	145	12
117	121	5
53	53	13
83	83	13
69	90	2
136	138	6
72	72	15
43	43	10
63	67	2
40	40	22
88	89	4
69	72	4
79	79	5
38	39	7
127	127	14
136	140	9
26	49	2
3	3	8
15	15	9
39	39	11
61	62	3
79	95	3
54	55	2
98	99	1
119	119	22
42	42	17
133	134	17
84	85	2
54	54	11
94	117	2
48	49	1
140	140	18
19	19	21
1	11	4
3	31	2
8	9	6
64	110	4
102	129	2
26	58	6
132	137	5
68	103	5
79	93	4
119	124	2
111	112	3
129	130	7
69	70	9
143	143	7
0	0	13
94	94	18
33	64	2
94	104	3
38	41	1
119	131	3
142	142	16
133	137	3
51	65	2
91	92	9
122	123	12
50	51	14
9	10	3
71	80	4
109	136	2
138	139	3
56	56	18
102	104	2
120	126	1
109	109	12
83	108	5
10	132	2
86	106	2
75	75	8
47	47	7
61	61	15
110	110	16
112	112	10
10	11	7
60	60	8
121	123	6
40	129	3
130	140	2
124	125	5
13	13	9
136	136	18
52	65	4
17	17	12
66	67	5
70	70	14
67	67	4
39	41	7
37	37	11
42	66	2
5	5	13
29	29	16
130	130	15
69	69	8
54	93	1
131	135	2
128	129	3
10	10	16
90	90	12
33	33	9
25	25	13
132	136	2
107	107	13
26	37	3
11	31	1
4	4	8
141	142	4
5	56	6
71	87	2
104	105	3
101	101	9
55	55	7
37	41	2
63	63	24
137	137	10
122	128	2
66	92	4
76	76	8
57	58	3
80	90	2
55	81	3
89	89	6
46	47	1
138	138	16
67	117	7
49	49	13
62	62	13
23	119	2
123	137	3
26	36	3
25	49	1
1	20	4
124	144	3
41	49	2
52	53	1
105	106	7
50	50	12
8	40	1
115	115	15
39	40	10
126	126	20
58	58	19
38	38	15
21	122	7
73	76	9
17	18	7
122	122	11
80	85	1
101	102	8
135	137	5
124	143	6
20	130	1
136	139	9
4	16	2
65	98	2
118	121	6
106	108	1
68	80	1
1	2	3
113	116	2
133	143	12
64	64	20
66	81	1
63	70	1
111	111	9
137	139	4
17	120	1
60	141	1
86	92	5
144	144	12
41	68	1
102	103	6
104	104	12
56	57	4
98	98	7
93	96	8
1	21	3
118	123	2
17	42	1
130	139	4
97	97	14
77	78	1
131	131	22
75	78	1
91	91	9
129	140	4
99	99	15
25	120	4
75	76	3
133	139	3
96	96	11
42	47	4
37	66	7
74	74	7
88	88	9
59	117	2
70	140	2
103	108	4
4	5	3
129	139	1
3	56	2
93	93	8
17	23	2
135	138	7
114	115	3
90	91	2
58	79	1
47	48	2
61	98	4
63	109	2
57	141	2
113	130	1
32	49	3
66	66	11
27	32	1
41	42	2
11	125	3
70	85	3
52	52	7
116	116	14
2	3	4
80	80	12
41	41	16
127	129	8
58	59	2
136	137	8
73	75	2
135	142	1
3	36	3
22	124	3
27	28	6
61	75	1
63	72	2
109	110	6
127	130	4
134	137	2
71	71	7
111	120	4
32	41	1
62	115	6
115	118	1
94	128	3
117	128	1
115	134	6
32	32	11
25	26	1
65	65	5
139	142	2
118	122	3
3	20	6
71	72	7
108	119	3
94	96	5
20	20	11
52	75	6
29	32	2
76	95	3
51	52	8
22	22	8
79	80	2
81	81	2
135	136	8
111	114	3
62	64	2
56	129	1
4	6	1
36	37	5
61	114	3
89	90	5
31	33	2
108	111	5
109	111	4
114	130	3
107	117	1
113	113	4
16	118	4
14	16	2
65	111	1
74	76	1
16	37	1
102	128	2
9	52	1
85	86	2
31	32	9
29	30	4
1	5	2
126	127	4
131	140	4
27	33	2
109	121	1
95	140	1
117	117	8
119	120	1
86	105	3
32	42	1
71	129	2
35	63	1
133	144	2
71	73	1
32	36	2
70	71	4
74	91	3
83	84	3
99	101	2
134	143	3
5	8	2
63	118	4
96	104	1
26	27	4
111	118	3
17	119	1
3	4	13
5	20	1
33	36	1
26	65	1
131	133	4
108	109	2
28	29	5
22	33	1
42	43	2
62	68	4
71	94	1
55	56	1
86	130	5
123	127	2
3	16	1
69	71	1
26	33	2
22	25	1
16	36	1
9	143	3
31	52	4
110	111	6
82	84	4
77	79	1
63	68	1
62	130	2
9	9	6
124	140	2
119	127	3
12	14	1
103	103	9
100	100	12
63	117	2
0	1	3
24	24	6
50	54	1
83	92	2
38	84	3
59	131	3
74	75	6
135	139	6
108	108	8
54	66	3
1	48	1
133	135	3
115	116	6
54	56	2
98	122	3
82	87	3
24	120	1
20	21	3
37	64	2
3	65	2
94	140	2
63	64	2
139	140	5
65	68	3
4	20	3
112	130	3
34	34	4
116	117	5
118	144	2
35	35	5
20	127	1
78	79	3
117	118	6
129	131	3
121	126	2
58	72	3
110	113	2
113	118	1
31	36	1
26	53	4
23	60	1
32	33	2
68	68	3
127	135	1
106	106	5
104	108	1
6	6	5
133	140	5
63	121	1
136	144	1
113	117	1
51	51	12
123	136	1
95	96	2
76	79	4
117	124	1
8	10	3
42	48	4
86	86	4
13	15	2
55	130	1
9	55	2
58	131	3
67	86	3
41	69	1
58	62	1
93	95	1
120	121	1
17	111	1
13	118	2
24	25	1
66	84	2
107	108	1
112	129	1
40	41	4
130	131	2
74	77	1
15	40	1
3	10	1
132	135	3
64	75	1
112	114	4
26	34	3
71	79	1
134	146	4
95	98	1
54	77	2
143	144	1
67	103	1
14	14	2
48	51	1
96	97	1
117	144	1
97	98	8
3	52	2
19	23	2
17	37	2
1	23	1
113	114	2
59	62	2
71	91	1
142	143	1
12	16	2
20	24	2
8	23	2
102	105	2
82	83	1
30	48	1
109	120	1
67	81	2
2	47	1
6	19	2
26	56	4
134	141	4
15	16	2
18	19	1
80	119	1
121	122	2
56	62	1
118	133	2
19	24	1
120	122	2
109	135	2
69	86	2
8	52	2
138	141	1
137	141	1
108	113	1
18	110	1
70	93	2
100	103	2
41	73	1
111	129	2
5	6	1
132	142	2
121	129	2
125	128	1
82	103	1
81	82	1
16	22	1
40	73	1
54	58	1
30	55	2
15	119	2
72	80	1
68	98	3
114	132	1
55	78	1
3	26	1
90	102	1
59	61	1
42	82	2
9	142	3
60	94	2
105	137	1
70	94	1
22	57	1
2	4	2
93	100	2
40	42	1
48	50	2
17	38	2
93	94	1
72	74	1
14	15	2
36	64	1
136	141	3
108	112	1
22	24	1
72	103	1
92	93	1
112	118	1
37	38	1
71	128	1
134	138	2
31	53	1
127	139	1
69	92	2
123	130	1
75	100	1
6	20	2
19	143	1
62	69	2
72	91	1
87	91	1
5	57	1
80	83	1
117	141	2
35	55	1
4	52	1
57	118	1
112	116	1
93	139	1
103	104	1
112	115	1
134	139	2
85	106	1
38	68	1
70	128	1
1	8	1
70	92	2
22	59	1
133	141	1
82	102	1
69	85	1
91	140	1
26	31	1
96	146	1
115	117	1
31	66	1
21	60	1
3	13	1
23	24	1
35	67	1
128	130	2
9	26	1
92	92	2
111	115	1
43	48	1
83	106	1
5	55	2
106	107	1
9	132	1
2	65	1
36	58	1
88	91	1
39	68	1
80	105	1
109	137	1
2	55	1
35	36	2
66	82	1
64	80	1
54	69	1
9	22	1
67	93	1
81	92	1
