91	93	3
13	13	37
21	21	20
121	123	2
94	94	24
101	101	15
112	112	21
125	126	2
122	122	12
24	25	10
120	120	23
115	115	22
73	73	14
86	86	16
82	82	27
28	43	4
119	120	19
6	7	14
58	58	20
63	65	4
72	72	19
99	101	8
75	75	23
2	2	36
80	80	17
71	72	26
101	121	3
0	0	13
53	53	24
124	125	17
61	62	10
70	71	3
83	85	11
113	113	28
8	9	10
77	77	24
16	16	24
50	50	26
6	6	22
103	103	30
71	71	14
23	24	1
97	97	17
76	76	31
61	61	23
123	130	3
84	84	13
52	53	8
27	28	16
32	32	15
52	56	3
51	56	1
20	20	11
67	67	14
28	54	2
90	90	37
50	58	2
100	116	9
62	63	11
24	24	10
126	126	15
17	18	10
134	134	16
29	29	10
64	64	30
26	26	4
92	92	19
122	123	14
79	79	8
68	68	37
65	65	23
7	15	2
70	70	39
85	85	13
0	1	5
14	14	13
98	110	2
130	132	10
30	30	19
108	108	28
12	13	10
44	44	21
93	109	1
57	57	19
133	133	18
79	83	4
10	10	15
102	102	26
72	73	16
123	123	20
47	47	4
117	117	12
84	85	5
96	97	11
106	106	13
52	54	5
45	86	3
112	113	10
119	119	29
69	70	10
116	118	7
8	32	4
81	81	12
116	116	21
82	86	2
109	111	7
120	129	7
31	87	6
28	28	9
110	111	12
45	58	1
60	60	23
126	134	4
107	107	19
111	111	14
1	2	8
62	62	25
11	11	10
100	115	6
22	22	13
116	130	2
56	56	9
112	118	8
78	80	3
69	99	3
79	84	5
89	89	11
50	65	3
66	66	10
4	4	15
91	94	1
94	95	8
28	29	10
105	105	24
67	68	10
35	35	7
118	118	16
5	6	9
114	114	28
130	130	15
3	3	12
55	55	23
66	67	19
38	38	12
86	87	16
78	78	13
131	131	37
44	87	1
54	55	10
91	91	20
109	109	14
83	83	11
115	123	2
23	23	14
99	99	15
15	15	7
59	59	6
64	65	10
27	27	24
49	65	4
56	57	13
74	74	34
125	125	19
48	87	2
127	128	14
102	103	5
50	61	2
92	94	2
117	128	4
90	105	3
100	100	37
25	52	4
93	93	14
74	75	3
63	63	24
60	68	5
135	135	5
59	84	1
15	16	3
101	102	3
110	110	15
96	99	2
126	128	1
11	12	4
95	95	15
5	5	15
31	31	3
92	109	4
52	63	7
15	17	5
17	17	11
65	66	2
124	124	24
56	59	2
108	111	5
54	54	14
92	93	6
49	49	3
129	129	8
125	135	4
9	9	5
18	18	7
121	122	4
98	98	15
132	132	16
92	113	2
104	105	16
91	110	3
32	87	5
33	33	11
37	57	6
111	112	9
63	64	8
111	131	2
42	58	1
49	50	5
60	96	6
50	52	4
126	127	17
43	43	7
107	113	1
102	134	3
106	107	9
38	56	2
114	115	10
108	109	1
122	125	4
117	118	11
97	98	5
122	132	7
66	68	8
104	104	27
48	48	5
78	88	1
120	127	1
127	127	14
16	17	5
4	89	1
84	100	2
87	87	19
76	102	2
52	52	19
53	60	5
118	120	4
30	31	2
7	7	14
49	79	2
19	23	2
49	57	3
92	114	1
89	90	5
96	107	2
61	96	2
128	129	2
10	11	3
34	87	3
25	26	6
80	88	2
25	118	2
76	114	5
12	12	14
96	96	16
120	122	1
35	36	2
83	84	7
77	82	2
34	34	11
99	100	8
128	128	7
21	23	5
1	1	12
132	133	2
6	8	2
24	26	2
54	59	3
0	63	3
124	126	4
25	25	14
95	96	3
14	15	7
130	131	12
78	115	3
10	13	1
8	8	11
24	54	3
105	108	6
43	44	9
117	122	1
34	35	9
86	88	4
45	97	3
60	98	2
55	61	6
91	92	9
68	78	3
118	121	7
91	103	2
100	117	1
113	114	7
3	4	7
59	64	2
22	23	3
84	99	7
91	111	4
77	78	16
45	87	2
60	61	9
37	37	8
68	71	3
27	50	3
50	68	2
56	61	1
69	69	12
33	87	2
49	64	1
92	112	1
115	116	4
36	37	4
120	128	2
96	100	3
71	74	1
71	73	7
44	45	5
47	64	7
129	130	7
54	56	2
85	87	4
36	36	10
84	87	3
90	91	5
118	119	13
77	79	3
80	81	5
102	107	6
82	83	2
44	82	3
88	89	3
131	132	5
88	105	1
95	109	3
122	124	1
26	50	3
106	108	6
122	130	1
99	109	2
14	25	2
108	114	2
35	88	2
134	135	3
103	104	4
18	20	4
107	111	3
60	62	4
75	101	1
54	58	3
111	114	2
65	68	1
93	94	5
118	130	2
52	61	2
121	121	13
80	82	5
51	97	1
88	88	11
13	15	4
127	133	2
9	11	3
73	95	1
37	38	2
10	15	3
120	131	2
66	79	1
98	108	1
113	129	1
116	117	3
73	74	5
35	54	1
42	57	1
14	16	3
107	110	1
79	80	10
78	79	3
2	21	3
51	51	4
54	61	3
46	97	5
45	82	1
2	65	1
55	57	1
29	74	2
69	110	1
19	20	8
123	133	1
46	51	1
46	46	2
59	68	1
121	130	1
96	109	1
27	44	1
112	129	4
46	68	1
102	106	3
71	92	1
29	30	3
77	98	3
115	132	1
45	50	2
79	87	3
115	117	1
43	87	3
115	129	2
119	121	2
129	131	1
68	99	3
127	129	3
109	110	3
45	45	5
127	134	1
65	97	3
107	109	2
107	108	1
61	99	1
113	115	2
32	33	2
120	121	4
98	99	3
116	119	2
50	81	1
7	11	1
50	51	1
45	51	2
26	45	1
23	55	3
10	65	1
130	133	4
72	92	1
19	19	6
68	95	1
113	117	1
56	60	1
4	6	1
121	131	5
110	128	1
52	64	1
117	119	2
95	131	1
133	135	1
45	46	2
50	56	1
100	101	1
126	133	1
60	64	1
7	8	2
128	134	2
129	132	2
101	113	3
53	56	1
97	106	2
52	62	1
93	103	1
38	87	2
8	86	5
96	98	1
2	3	2
125	133	1
76	77	1
64	96	1
33	34	5
74	101	1
33	35	3
120	123	1
34	36	4
73	90	2
78	82	1
48	50	1
58	59	1
47	51	1
53	54	5
116	129	2
79	106	1
112	130	1
105	106	2
21	22	2
29	73	1
116	123	1
99	114	1
6	33	1
49	67	1
13	28	1
88	90	1
79	98	1
101	120	2
50	80	1
121	128	1
26	44	2
102	129	1
95	97	2
79	101	1
109	117	3
70	77	1
95	108	2
44	50	1
93	111	1
56	65	3
98	109	1
45	47	2
58	60	2
101	112	1
0	3	2
129	133	2
18	19	1
59	60	1
49	52	2
55	56	1
108	110	1
133	134	1
75	116	1
75	103	1
37	84	1
65	89	1
122	131	1
37	85	3
53	65	1
47	49	1
101	106	1
78	87	1
2	62	1
34	86	1
110	131	1
9	10	1
68	89	1
121	132	1
68	77	1
66	78	1
76	81	1
98	106	2
67	85	1
68	69	1
67	78	1
61	64	1
114	116	1
124	127	1
117	129	1
114	133	1
37	88	1
71	93	1
124	133	1
28	30	1
