8	76	5
76	94	2
0	0	6
84	84	10
17	17	10
104	104	1
44	44	5
22	24	4
15	15	7
63	69	3
79	81	7
123	123	2
90	123	4
93	93	10
29	30	2
26	27	1
26	26	13
46	46	10
32	33	2
82	93	1
27	27	5
116	116	1
18	27	2
67	67	9
74	74	12
20	20	16
33	33	4
134	134	9
101	101	9
13	14	4
117	117	15
101	102	6
128	131	2
110	115	3
7	100	3
73	73	7
19	19	8
43	43	1
4	102	1
91	91	5
69	69	9
96	96	6
63	63	6
99	100	8
25	25	13
104	108	3
21	21	7
84	85	3
37	37	14
121	121	3
94	94	4
36	82	2
108	109	1
7	56	6
128	128	4
57	58	4
18	18	5
47	47	5
10	10	4
65	65	12
4	101	1
79	82	1
82	82	5
119	119	2
8	8	8
89	99	3
19	92	2
36	36	7
34	34	14
97	97	5
30	30	7
79	80	2
83	83	5
66	67	2
78	78	4
87	87	10
32	60	6
115	115	2
10	95	9
12	47	2
57	57	3
7	7	3
113	113	5
76	77	2
4	25	1
71	113	4
48	48	3
3	4	5
20	95	6
6	6	7
66	66	5
42	43	3
18	43	2
21	22	2
79	125	3
31	31	1
68	69	2
95	95	5
114	114	4
59	59	8
28	28	3
110	111	1
70	70	3
7	36	3
10	20	3
45	45	9
11	11	8
35	80	2
12	12	8
61	61	8
4	5	6
61	86	1
95	96	4
80	125	1
105	105	1
62	62	1
68	68	6
5	5	2
56	57	1
30	31	1
5	15	4
70	119	1
109	130	3
117	118	1
72	73	2
15	57	2
62	63	2
29	29	1
64	64	1
73	122	5
76	76	5
131	132	14
25	26	1
19	88	3
75	75	4
2	2	1
9	33	1
61	62	2
88	123	2
93	94	1
30	85	1
127	127	4
38	59	2
72	72	2
4	4	5
58	58	5
29	49	3
92	92	7
122	122	1
130	134	1
77	78	3
5	6	1
33	47	2
55	55	5
84	90	1
20	21	3
33	77	3
40	42	1
114	127	1
46	47	1
74	77	1
16	16	3
79	79	2
41	65	1
28	77	7
58	61	1
13	13	3
24	24	2
18	30	4
70	118	1
9	9	3
41	41	7
18	19	2
20	91	3
20	30	1
6	19	4
20	28	5
12	13	2
88	89	1
98	98	2
40	40	4
71	71	2
14	14	5
122	123	1
35	35	1
91	92	2
90	90	1
85	85	4
35	74	2
38	83	1
50	50	2
24	26	2
10	14	1
28	78	2
26	46	2
18	82	3
35	77	1
97	99	2
75	125	1
48	50	1
37	39	1
68	83	1
29	47	2
7	101	1
126	126	1
56	56	3
20	90	1
34	78	1
61	65	1
133	133	1
86	86	2
38	39	1
31	64	3
37	57	1
111	111	1
25	60	2
20	81	1
10	33	1
124	124	1
32	32	1
132	132	1
47	57	1
108	131	2
74	80	1
33	46	1
10	11	1
1	1	1
80	81	1
22	90	1
45	83	1
120	121	2
67	68	1
108	112	1
21	26	1
