119	119	25
96	98	2
105	140	4
74	96	1
99	99	11
101	101	21
82	103	2
128	128	33
52	52	15
72	96	4
77	78	9
124	124	16
60	60	14
47	47	11
132	132	16
81	81	21
63	63	8
141	141	16
116	119	3
131	131	24
54	54	10
46	47	1
105	105	9
32	32	10
9	82	4
50	50	11
127	127	10
110	110	21
103	125	5
1	20	3
72	82	4
33	35	4
2	52	2
131	144	5
82	82	9
16	17	6
130	130	13
69	69	8
13	13	11
137	138	23
79	81	5
30	30	17
97	98	5
68	68	17
136	136	26
63	67	1
118	134	4
94	94	11
111	111	15
89	90	7
138	139	11
62	63	4
106	106	19
53	53	7
58	58	23
71	71	15
118	120	3
99	100	10
73	73	12
2	2	12
137	137	17
31	33	2
116	120	4
18	19	5
14	15	6
67	67	12
91	91	9
2	35	1
109	109	5
114	115	5
142	144	3
25	25	20
28	29	4
135	136	11
70	70	7
48	48	14
120	121	5
121	122	3
78	116	7
15	15	3
76	76	11
96	96	16
143	144	1
107	137	4
121	121	13
118	118	20
110	123	1
84	84	7
3	85	1
126	126	13
42	43	1
89	89	4
59	59	15
120	143	2
139	139	8
8	19	2
88	88	9
142	142	16
6	6	11
95	95	13
107	107	5
87	109	2
117	128	2
124	125	1
22	22	15
29	59	1
55	78	1
41	41	12
66	66	8
121	137	3
84	89	1
109	110	2
15	16	7
117	132	3
49	49	12
40	57	4
107	108	7
33	34	5
36	37	3
117	117	3
38	38	14
134	141	4
17	18	4
14	14	8
53	54	3
135	141	3
69	84	3
127	131	2
2	10	8
8	8	12
23	23	10
33	33	17
21	35	2
70	85	1
38	39	2
31	31	12
102	103	8
2	31	3
28	28	12
90	90	12
91	92	7
124	127	2
37	38	3
40	56	1
0	0	4
111	113	6
4	4	10
2	21	8
88	92	7
71	76	1
71	79	1
118	132	1
13	18	1
120	120	8
116	138	2
0	1	4
138	138	14
108	108	3
47	65	1
135	135	14
16	16	9
55	55	5
61	61	9
27	27	12
17	17	13
17	27	4
10	57	2
23	24	2
68	75	1
37	37	27
30	59	6
72	79	2
87	87	10
47	48	4
78	78	14
87	89	2
33	57	2
75	75	8
9	10	5
10	10	15
85	111	1
112	112	7
41	42	6
12	13	10
125	125	17
112	114	4
89	95	2
74	98	3
20	20	15
11	58	4
23	28	2
89	112	1
132	133	4
0	18	6
25	26	1
59	62	2
81	82	3
64	64	6
34	35	7
119	120	1
70	74	6
134	143	3
40	40	8
78	79	1
110	113	2
92	93	2
57	76	5
56	56	10
11	31	6
98	102	3
61	62	6
108	138	1
31	32	4
51	52	6
123	123	21
145	145	10
12	16	2
69	105	2
115	115	10
122	122	19
34	34	4
105	113	3
74	74	10
42	42	15
74	75	4
79	88	2
8	21	1
104	104	14
49	66	1
2	20	4
77	77	7
118	129	3
87	96	5
4	12	2
62	62	7
19	53	8
110	136	4
18	18	11
93	98	1
129	129	14
39	41	1
144	144	7
2	40	1
1	21	3
58	59	3
8	18	2
83	87	2
43	43	3
121	136	1
93	94	4
94	107	2
41	43	1
30	31	2
115	121	2
19	19	13
79	117	2
39	39	10
12	12	2
6	18	4
95	96	1
30	58	3
75	79	4
54	64	1
19	21	2
39	40	9
27	28	12
140	141	3
30	61	5
93	96	1
20	21	8
98	98	2
117	119	2
106	133	5
134	134	13
79	80	3
11	20	4
19	38	4
86	86	12
118	123	2
9	75	2
57	57	5
130	132	3
134	135	4
113	114	4
29	30	3
26	43	1
124	137	1
141	142	4
110	141	3
85	85	12
21	56	1
91	123	2
80	94	4
133	134	4
71	86	7
88	122	4
112	130	3
31	43	1
38	115	1
71	90	1
103	145	2
140	140	5
133	133	5
64	65	6
123	124	3
86	90	3
35	36	2
11	57	4
114	114	12
93	93	12
88	90	4
4	54	1
122	123	7
92	92	7
73	82	6
116	118	1
143	143	9
2	32	1
83	83	8
111	139	1
22	30	2
51	51	4
72	97	4
108	116	1
106	107	1
134	139	3
76	77	2
65	69	5
9	39	2
108	132	3
70	72	3
90	91	8
2	3	1
5	5	7
122	126	1
81	95	1
84	85	8
77	101	1
79	79	6
104	125	1
32	41	1
11	11	14
88	89	2
33	37	3
31	35	3
37	55	1
102	102	8
117	142	3
105	133	5
2	4	1
67	100	6
21	22	3
2	13	3
103	142	5
139	140	5
103	103	10
98	123	3
13	19	3
120	126	2
33	36	2
76	78	1
75	84	3
29	29	8
21	21	7
73	114	2
106	139	1
43	47	1
1	1	5
97	97	9
105	132	2
72	73	1
54	55	1
115	120	2
136	137	2
136	139	5
37	47	1
116	128	2
92	112	2
93	97	1
71	72	4
116	116	5
5	13	2
36	36	3
13	15	3
3	20	1
20	79	3
75	110	1
64	67	5
90	120	2
52	53	2
130	144	1
40	43	2
117	122	2
65	68	2
13	14	6
113	116	3
117	135	1
106	112	6
64	66	2
140	142	5
90	105	6
28	30	2
132	143	1
70	71	3
73	123	1
24	24	3
74	86	1
20	56	5
111	129	1
111	112	1
64	68	1
126	130	2
100	103	1
12	15	1
31	57	1
110	119	1
9	69	2
80	81	1
80	80	3
26	26	7
76	79	1
9	43	1
110	139	1
25	83	5
27	42	3
89	96	3
109	140	4
30	36	1
128	129	2
129	130	1
18	29	1
108	139	1
6	23	3
72	105	4
96	97	4
25	55	1
100	141	2
98	99	7
72	72	3
10	50	1
119	123	1
3	3	4
55	56	2
34	36	3
83	106	2
100	100	2
36	56	2
63	65	2
87	94	1
4	5	2
136	138	3
39	50	2
110	130	1
48	49	2
105	106	2
60	61	4
120	138	2
59	60	1
56	57	1
113	113	1
3	4	2
74	99	2
9	9	4
65	65	2
6	26	3
12	35	2
96	118	1
73	93	2
34	52	1
56	78	1
125	127	2
104	106	2
29	82	3
1	2	1
126	127	1
144	146	1
85	89	1
2	36	2
67	68	1
118	119	3
28	42	2
20	35	2
117	118	1
69	123	1
57	65	2
133	143	1
25	28	1
101	102	2
93	113	2
66	73	2
6	17	3
64	81	2
4	20	6
35	35	4
109	132	1
8	9	1
3	55	3
69	70	2
23	39	1
30	32	3
100	101	1
16	61	1
90	141	1
125	136	1
88	106	1
127	130	3
38	58	1
50	51	3
50	52	1
73	105	1
22	25	1
40	41	1
78	115	2
18	32	2
49	50	4
106	127	1
68	97	1
33	38	1
31	53	2
102	115	1
112	113	3
87	98	1
24	90	1
142	143	1
2	57	2
48	50	1
83	84	1
6	20	1
58	63	1
103	104	4
75	82	1
1	4	1
53	64	2
117	143	1
66	67	1
86	97	1
113	141	1
41	65	1
9	55	1
82	119	1
20	77	1
58	71	2
110	111	1
124	139	1
26	38	1
20	34	1
25	41	1
136	140	1
131	133	2
34	47	1
65	72	1
62	68	1
107	116	1
121	127	1
14	16	1
24	25	1
37	48	2
128	130	1
4	24	1
5	24	1
27	41	1
85	88	1
75	78	1
43	65	1
