24	24	22
8	8	6
123	123	8
82	82	9
170	170	10
44	45	7
144	144	9
106	154	2
125	125	8
36	129	1
21	21	5
65	66	5
117	117	9
87	87	7
25	25	10
92	92	8
87	88	5
64	64	6
10	35	1
65	85	7
115	115	10
26	26	13
50	51	13
126	126	7
103	104	8
55	55	9
35	35	11
50	50	8
40	40	18
90	90	8
147	147	11
21	46	1
48	49	16
46	46	17
94	158	10
138	138	12
71	72	9
43	43	18
19	19	10
101	103	2
161	162	4
155	155	3
149	149	14
111	111	7
27	27	21
43	44	4
5	5	8
13	14	6
95	95	5
49	64	4
56	128	5
117	118	4
120	120	13
17	17	10
165	168	6
102	103	5
153	153	5
65	65	3
85	85	2
112	112	22
110	113	4
97	118	5
127	127	8
164	165	9
23	23	22
131	131	6
10	11	6
118	118	4
94	94	10
75	76	5
21	22	4
17	18	1
39	41	3
83	83	6
166	166	4
124	125	6
18	18	3
145	145	11
46	49	2
1	1	10
20	143	3
88	100	1
155	158	1
148	149	6
142	142	10
101	102	5
113	113	7
165	165	3
107	108	5
3	3	11
79	79	11
117	131	1
72	73	2
22	22	4
58	138	1
21	126	1
128	129	3
83	84	1
9	9	8
169	170	3
7	7	2
146	153	2
2	2	10
77	78	9
91	111	3
80	80	10
109	113	1
96	124	2
48	48	15
99	99	9
126	127	4
91	91	11
62	62	3
44	128	1
6	7	3
4	74	2
151	151	5
14	14	17
37	37	4
38	41	2
39	39	13
49	54	3
103	103	4
16	16	7
53	53	13
140	140	2
137	137	5
10	10	14
6	6	11
36	37	7
26	43	2
36	36	7
103	148	4
33	35	6
131	132	3
169	169	9
67	68	2
143	150	6
24	42	3
69	69	9
86	87	2
159	159	5
100	100	9
162	162	2
12	13	9
102	102	9
20	21	6
24	25	1
24	41	2
16	51	1
71	93	3
155	157	7
90	145	3
71	71	11
116	119	7
49	49	17
163	164	6
143	147	1
129	129	7
63	121	7
22	23	5
158	166	5
123	146	5
157	157	8
51	53	4
68	68	6
74	74	5
57	62	5
63	63	17
119	120	11
110	110	12
134	136	3
42	42	7
101	157	4
148	148	9
109	109	8
45	45	8
77	77	7
167	167	2
149	150	2
108	108	10
64	121	5
111	133	5
105	105	5
41	49	5
78	78	13
11	11	14
33	34	1
70	70	7
45	83	1
139	139	6
53	54	6
168	168	2
164	164	10
138	139	5
70	123	1
82	164	1
156	156	18
15	15	12
162	163	13
90	91	2
106	146	7
54	54	7
86	86	2
78	80	1
51	52	10
7	8	4
6	15	2
92	107	2
4	4	12
41	41	4
115	119	4
69	70	4
101	101	8
109	112	4
93	93	7
72	72	3
18	42	4
63	69	3
97	98	5
57	143	1
154	154	2
112	133	2
7	11	4
141	142	6
18	20	1
115	117	2
25	45	2
18	22	3
114	132	1
136	136	10
160	162	3
13	13	4
57	89	1
156	165	3
122	122	4
41	42	2
34	34	15
83	111	4
98	98	2
150	160	2
37	44	1
104	104	1
8	9	5
111	112	4
20	20	7
92	93	5
57	113	3
118	130	2
47	152	4
4	45	6
144	145	4
89	89	5
6	19	2
54	55	6
68	69	3
66	66	3
1	6	3
161	161	6
47	47	2
41	86	3
28	28	3
84	84	14
3	43	2
150	150	2
14	15	4
161	170	4
77	80	2
67	67	5
44	44	5
96	96	2
121	122	1
34	46	2
21	54	4
143	143	3
102	156	1
76	76	5
56	56	7
39	84	2
128	128	3
154	155	2
67	72	3
115	118	2
62	120	3
37	38	6
95	114	2
72	74	3
141	141	4
45	46	3
124	124	5
26	34	3
92	105	4
122	123	4
82	112	2
141	157	2
91	110	1
85	86	2
5	24	3
139	141	2
76	83	2
73	104	3
0	1	2
26	27	4
145	152	1
35	36	3
134	135	6
136	138	1
5	23	2
158	158	5
113	117	1
27	44	2
15	16	1
125	126	1
12	12	3
130	130	2
57	57	1
75	75	4
94	100	2
0	0	5
88	95	2
26	47	2
8	10	3
89	95	3
106	106	2
58	114	2
2	13	1
88	97	2
47	64	4
133	134	1
153	164	1
51	51	6
157	158	2
45	69	2
67	69	4
26	28	1
13	51	2
121	121	2
49	115	3
42	48	1
1	35	2
82	88	1
38	38	1
88	89	3
150	151	2
0	3	3
12	14	1
41	84	1
40	86	1
52	54	1
167	168	1
153	154	1
35	43	1
3	4	4
50	52	2
20	46	3
143	145	2
18	19	3
9	10	3
6	24	1
13	19	1
66	99	1
76	77	5
64	119	3
34	35	1
58	122	1
57	95	2
135	136	5
156	157	1
15	73	1
80	111	2
3	44	2
112	125	1
121	123	1
33	33	1
81	82	2
24	83	4
100	101	2
91	109	1
127	128	4
52	52	4
55	56	3
130	153	1
158	167	1
153	161	3
36	53	2
97	99	2
84	108	1
159	160	1
99	100	2
135	141	2
89	108	1
19	44	1
123	130	3
66	69	2
88	88	1
57	63	2
19	20	2
92	95	1
84	86	1
49	52	2
40	41	2
20	49	1
98	99	1
0	44	1
91	92	4
99	155	1
47	54	1
112	131	2
23	24	2
37	43	1
123	127	2
20	25	1
21	80	2
20	24	1
89	145	1
12	115	1
139	140	1
135	151	2
34	128	1
115	116	2
69	98	1
133	152	2
7	45	1
132	132	2
160	161	2
114	116	1
71	86	1
48	55	1
23	53	1
135	135	2
101	104	1
80	81	1
152	152	1
82	89	2
22	24	1
27	35	1
55	57	1
34	45	1
130	150	1
6	50	1
134	134	1
97	117	1
64	86	1
86	93	1
26	36	1
1	7	1
