74	75	5
105	106	6
73	73	8
28	28	5
79	79	4
84	84	6
91	91	5
103	103	2
79	81	5
71	71	3
59	75	7
105	105	3
51	51	8
103	107	2
49	49	6
43	93	2
113	113	8
58	59	6
93	95	5
75	98	2
40	40	2
20	30	2
63	64	11
78	80	6
93	94	3
87	87	4
69	69	9
64	64	9
44	44	4
46	46	5
98	99	2
41	41	5
47	47	3
39	39	4
110	110	3
76	77	4
80	81	2
61	75	2
74	74	3
100	100	5
62	72	6
67	67	4
57	57	10
105	108	4
78	104	1
66	69	1
22	22	4
28	29	1
80	82	1
90	90	5
30	30	4
22	28	1
97	97	5
63	63	3
76	76	10
107	107	10
76	80	1
33	33	4
108	108	8
67	69	1
72	72	3
41	42	1
88	91	4
34	35	5
81	82	3
113	114	3
78	78	2
85	86	1
59	72	2
114	114	8
109	109	2
46	50	1
37	37	3
71	72	2
20	22	1
78	103	2
44	46	6
67	68	3
55	55	3
57	58	2
64	71	4
26	32	1
26	29	3
70	73	2
70	70	7
82	82	2
30	35	3
109	110	2
76	98	4
94	94	3
75	75	1
38	39	4
112	112	6
56	56	4
94	97	4
66	66	4
87	88	4
31	31	2
49	50	4
25	25	3
32	33	1
50	50	2
35	57	2
88	88	7
89	89	1
96	96	3
89	90	1
54	55	3
92	92	4
46	47	2
61	68	1
89	101	1
32	57	2
86	86	8
106	106	5
102	102	5
109	111	1
78	107	2
61	61	2
99	99	3
74	80	1
29	29	1
63	65	2
86	90	1
77	77	6
42	42	3
28	39	2
61	71	1
111	111	4
71	73	1
62	63	2
100	101	2
21	21	2
80	80	2
24	25	1
59	59	3
22	34	1
43	44	1
88	90	4
101	101	3
77	101	1
53	57	4
19	23	1
94	110	1
48	49	1
36	36	2
62	62	3
82	86	1
105	107	1
81	81	2
19	19	1
26	31	1
72	75	1
74	84	1
37	39	2
83	84	2
107	108	2
54	54	1
71	89	2
71	77	2
101	102	6
68	68	3
72	74	3
48	48	3
38	38	1
98	98	2
44	45	1
39	40	2
97	98	1
72	73	1
82	91	1
106	107	1
80	91	1
81	93	1
99	101	1
96	97	1
79	80	1
65	66	1
43	83	1
74	83	2
22	23	1
54	58	1
60	60	1
23	23	1
59	60	1
22	30	2
86	87	1
54	69	1
68	69	1
79	104	1
35	35	1
37	40	1
