80	80	10
67	70	4
25	25	8
50	64	6
7	7	26
56	63	3
71	71	11
75	76	5
77	78	5
40	40	8
48	49	7
53	53	12
35	35	19
75	75	8
39	40	6
42	42	9
54	54	17
45	45	4
8	49	5
31	32	6
29	29	8
79	79	6
50	70	2
66	66	17
4	6	4
9	10	8
30	31	6
29	30	5
2	3	2
45	46	6
68	68	8
59	59	17
70	80	3
55	55	7
49	71	3
73	73	8
48	75	2
59	61	5
78	78	15
65	67	5
19	27	4
32	33	7
37	37	22
46	46	3
11	11	5
13	13	2
76	76	5
3	4	8
2	2	14
74	74	19
31	31	5
50	51	1
72	77	4
62	65	3
70	71	6
9	9	20
79	80	5
61	62	4
64	64	13
61	61	11
72	72	23
28	30	6
48	62	1
51	51	10
71	72	3
64	66	3
35	38	2
70	70	15
8	8	7
20	21	2
58	60	3
47	47	3
32	32	11
2	59	3
42	43	2
48	48	23
21	26	2
49	49	19
74	75	4
47	55	2
12	12	5
72	75	4
54	55	4
33	33	10
69	70	4
4	4	11
16	17	4
21	22	1
26	26	9
46	48	8
73	74	6
17	19	4
65	66	6
68	71	6
60	60	2
71	76	4
0	0	9
10	10	3
74	79	1
67	67	9
46	47	9
36	36	8
28	28	13
62	76	1
27	28	6
13	32	2
62	66	2
72	73	5
16	27	3
14	16	4
5	29	1
78	80	4
50	50	4
54	64	3
52	52	1
3	3	5
19	34	4
51	53	5
65	65	6
5	5	6
9	49	4
31	33	3
77	80	1
77	77	5
6	6	16
67	72	5
0	9	1
60	61	7
17	17	13
13	16	2
1	1	11
39	39	21
8	9	1
63	63	10
12	32	1
0	11	3
62	62	5
28	80	2
34	34	1
69	69	4
37	40	1
32	34	4
58	59	3
11	12	3
14	14	2
38	40	5
36	41	3
32	35	3
38	39	3
80	81	1
54	63	3
21	21	3
35	39	1
50	63	4
41	48	1
1	2	5
19	20	2
40	41	1
6	8	2
20	28	1
15	15	1
56	56	6
16	16	6
5	33	1
49	76	1
76	80	1
41	41	1
27	30	2
18	18	2
73	78	1
34	35	1
27	34	1
57	57	7
28	43	1
15	16	3
27	27	3
20	20	2
53	54	5
38	38	7
65	74	1
49	51	1
48	50	3
13	14	1
1	4	3
30	30	2
19	19	6
16	19	1
36	37	3
68	69	2
37	41	3
49	50	3
56	57	1
37	38	3
54	65	2
0	8	1
47	48	3
76	77	1
59	60	2
65	69	2
21	30	1
78	79	1
75	77	2
63	64	2
5	6	1
4	5	1
61	65	1
49	65	1
42	45	2
12	13	1
43	43	2
69	71	1
7	30	1
64	65	1
42	48	1
58	58	3
75	80	2
35	36	2
19	30	1
55	56	1
9	29	1
66	67	1
9	26	2
25	26	1
0	1	1
54	68	1
53	63	1
