90	91	7
118	118	4
73	73	15
111	111	14
46	46	13
117	118	6
121	121	7
88	89	3
19	19	13
47	80	1
11	93	4
131	131	7
2	2	6
7	8	7
48	48	2
83	83	7
77	77	19
125	126	4
83	109	2
62	62	12
32	32	5
9	9	17
86	122	2
94	95	8
70	70	8
76	76	12
122	123	2
111	116	1
67	67	9
34	34	13
91	92	3
124	125	6
31	31	9
86	86	10
64	64	18
97	97	7
94	94	8
11	32	3
110	111	3
8	8	14
120	121	3
68	68	7
84	84	9
74	74	2
5	14	3
76	77	7
66	66	23
35	35	16
25	25	11
119	119	8
122	122	5
72	72	15
7	7	7
6	6	5
85	85	6
28	28	7
17	19	2
63	63	13
61	85	3
21	21	9
46	47	4
115	115	2
1	76	2
64	73	1
88	88	4
90	90	8
61	61	10
65	65	15
10	11	2
82	82	2
40	41	3
91	91	6
43	43	7
74	82	2
27	29	2
27	91	1
22	22	10
26	27	2
120	120	4
30	33	1
37	37	2
105	106	1
35	36	5
60	61	6
45	45	6
125	125	5
106	106	5
18	18	8
29	29	5
134	134	2
102	102	3
13	14	7
95	96	1
57	57	3
55	83	4
56	58	4
113	113	4
81	81	1
110	110	4
27	27	1
8	9	2
93	93	2
129	129	3
112	112	5
88	95	2
16	47	2
79	79	4
20	20	2
66	67	2
75	75	21
95	95	9
3	102	2
47	47	8
30	32	3
36	36	3
100	101	1
1	62	3
111	112	2
106	128	1
133	133	1
12	12	4
46	76	4
31	33	4
1	1	4
90	97	3
26	26	3
129	131	2
99	99	4
31	32	5
30	30	1
38	39	1
15	15	5
39	40	4
24	25	1
41	41	3
59	59	8
31	60	3
60	60	8
47	48	4
33	33	10
132	133	2
6	11	1
5	36	1
26	78	1
48	49	3
1	2	2
33	76	1
44	44	4
23	24	1
112	113	1
32	34	1
32	79	1
73	74	2
45	101	2
75	76	3
5	5	3
19	20	2
71	72	3
85	86	4
128	128	4
98	98	4
41	44	3
46	62	9
58	58	4
120	122	1
107	107	3
117	117	4
98	99	2
10	10	5
128	132	2
106	107	3
107	111	1
81	128	4
44	89	2
103	104	4
45	46	2
35	75	3
31	48	1
55	55	6
100	100	2
80	80	2
11	11	4
42	42	2
129	130	2
1	17	1
16	16	1
65	66	3
21	22	2
27	80	2
25	47	6
78	79	6
132	134	3
123	123	6
3	66	1
108	109	3
61	72	2
20	76	1
25	79	4
11	60	2
130	130	2
38	38	1
72	73	1
9	47	1
7	65	1
90	92	2
13	46	1
3	83	2
101	131	2
101	101	5
96	96	1
43	47	1
94	96	4
62	134	2
21	29	1
6	13	3
17	17	6
84	85	1
27	48	1
92	92	6
126	126	3
103	103	2
3	3	1
45	72	2
125	134	2
103	130	2
69	71	3
56	56	1
49	49	1
109	110	1
34	62	1
74	83	2
90	109	1
71	71	1
83	101	1
42	45	1
92	93	1
50	50	3
29	31	1
15	48	1
87	95	1
71	73	1
77	119	1
37	81	1
12	19	1
87	88	2
82	85	2
80	81	1
33	34	1
69	72	1
44	45	1
109	109	1
10	13	1
4	4	1
36	38	1
4	5	2
6	12	1
61	62	2
127	127	2
37	82	1
78	109	1
130	131	1
20	21	1
107	126	1
118	119	2
49	50	2
31	56	2
22	23	1
3	93	1
69	70	2
3	45	2
84	120	1
48	50	1
78	78	1
40	40	1
116	116	1
51	78	1
11	20	1
104	115	1
70	71	1
63	64	1
8	98	1
94	100	1
