27	27	9
38	38	30
6	6	16
90	90	4
24	25	8
110	110	4
171	171	8
124	124	6
97	100	2
31	34	8
32	57	4
100	100	13
19	20	8
0	0	13
151	151	17
105	105	5
63	85	8
116	141	5
112	114	14
37	37	19
52	52	18
119	119	10
5	6	11
10	11	11
58	112	1
5	16	3
22	22	33
128	128	12
7	7	23
24	27	5
108	143	2
145	146	5
33	33	27
22	40	2
66	66	9
163	163	11
122	126	2
50	51	6
3	4	14
8	8	13
25	25	11
18	19	11
32	32	16
4	4	6
96	96	4
123	125	2
16	16	11
20	44	2
103	103	5
115	115	12
44	66	2
15	15	20
44	44	20
13	13	13
84	85	3
83	83	6
34	35	3
98	99	2
122	148	1
130	130	6
56	56	11
56	64	1
17	18	7
14	14	27
40	40	11
15	41	3
12	12	14
16	19	3
155	156	6
23	23	13
133	133	9
26	26	20
151	172	5
146	146	10
37	41	2
29	30	11
117	120	3
54	54	2
120	163	3
122	125	9
161	161	6
160	160	5
61	61	15
2	2	11
5	5	12
173	173	8
62	62	12
139	156	1
159	159	11
68	68	12
89	89	6
21	21	18
127	131	1
15	16	2
26	39	3
126	126	3
93	93	5
53	88	6
63	63	14
174	174	13
30	41	5
127	129	6
18	37	3
148	148	9
97	97	7
136	162	1
63	67	6
41	41	17
2	4	7
1	5	2
11	11	17
35	35	30
26	28	10
41	42	9
76	79	3
2	10	3
155	155	4
29	29	17
74	74	8
67	68	3
104	104	8
59	61	6
169	170	3
8	15	3
144	144	10
113	115	5
103	104	7
53	54	5
30	30	19
176	176	12
41	46	4
144	167	1
129	166	3
121	121	3
140	159	2
24	24	16
43	43	15
169	169	6
136	136	10
42	42	12
161	163	7
72	73	7
5	7	5
91	91	12
158	158	5
6	7	7
16	106	1
121	130	4
88	88	8
56	58	3
19	35	4
101	101	7
41	86	2
25	42	2
149	159	3
50	100	2
156	156	9
14	17	3
128	167	3
76	115	2
95	95	7
110	111	4
9	10	11
29	37	2
18	18	29
25	26	7
135	161	2
1	33	4
45	46	5
2	37	2
37	40	4
129	129	4
24	31	2
23	27	2
13	35	4
77	77	4
18	24	3
152	152	5
102	103	4
139	139	5
148	178	4
31	37	3
50	50	9
0	1	14
2	8	3
87	87	5
72	72	11
82	82	11
154	156	3
152	164	3
12	15	3
75	75	9
99	126	2
28	39	1
77	95	2
18	21	6
177	178	3
166	167	4
83	84	3
170	171	3
108	108	13
12	42	4
33	107	2
105	106	2
85	85	4
168	168	8
140	156	4
35	36	9
76	76	8
126	167	1
10	10	14
52	92	5
143	143	5
142	142	5
92	92	7
14	15	6
31	31	13
1	1	11
120	120	6
134	134	4
37	39	5
39	40	6
65	66	4
32	33	5
45	45	18
118	118	15
100	126	2
73	73	9
152	157	6
19	19	26
77	78	8
155	157	3
130	134	3
30	31	5
131	131	9
20	20	9
117	119	10
127	128	8
152	160	1
71	76	3
146	156	1
20	21	3
36	102	5
6	41	2
171	172	7
122	122	6
137	139	1
17	21	4
52	90	2
17	17	8
62	84	7
138	148	3
101	102	4
62	63	4
146	148	1
32	85	1
84	84	6
123	123	4
8	11	4
163	167	3
173	174	3
64	64	2
76	139	2
104	105	3
158	159	10
136	137	1
145	145	9
71	71	7
65	65	4
50	57	2
86	86	5
79	79	7
115	119	7
165	166	3
73	117	6
120	134	4
137	156	3
81	124	2
0	92	2
61	87	2
136	140	3
85	95	1
28	28	13
116	117	4
37	38	3
20	27	1
16	30	1
65	68	1
57	57	4
61	91	2
163	169	1
66	68	5
114	114	7
151	153	6
51	51	5
154	173	1
162	162	3
81	87	1
109	109	5
40	84	1
172	172	5
14	39	2
91	92	5
162	167	2
70	121	3
99	99	4
94	96	2
14	33	1
36	36	2
2	3	10
115	116	5
11	14	1
6	10	2
70	73	1
7	34	5
135	136	8
27	45	2
80	117	1
12	13	16
149	149	9
159	167	1
22	23	7
46	46	2
28	45	3
125	126	1
163	164	4
141	142	2
59	60	2
32	114	3
1	31	2
104	128	7
3	6	1
77	80	1
96	121	4
29	42	4
93	95	1
164	165	3
81	81	3
132	142	4
136	165	4
157	157	4
170	170	6
147	158	1
3	3	4
116	116	5
49	49	1
31	32	2
43	44	4
118	120	2
28	38	4
144	145	2
86	87	3
178	178	6
4	127	1
103	127	1
11	16	4
18	33	3
119	147	2
60	63	8
67	67	2
10	14	1
123	124	9
18	23	4
14	26	2
119	128	2
37	44	1
114	130	1
28	30	1
5	37	3
138	138	4
142	143	4
21	23	3
127	167	5
139	154	2
106	106	11
107	110	3
49	51	6
14	16	5
53	53	5
55	55	8
78	118	2
32	102	1
112	112	2
63	74	1
16	18	6
9	21	1
29	40	3
9	42	2
112	113	1
19	28	2
11	33	4
98	100	1
50	52	2
127	127	3
83	86	1
9	9	13
130	131	3
113	113	5
145	150	3
125	125	5
53	64	1
22	27	2
96	97	4
126	169	4
111	151	3
57	58	1
78	153	1
18	22	1
27	43	1
33	34	12
9	16	1
120	161	1
132	135	2
22	25	2
18	20	3
1	43	1
60	61	3
71	100	4
52	53	1
152	155	1
152	170	5
117	118	1
21	22	6
147	147	1
137	138	1
129	130	4
64	71	2
22	33	1
16	34	1
55	56	2
75	115	1
178	179	2
156	158	1
32	35	1
37	92	1
20	40	5
11	13	6
106	108	1
150	153	2
39	39	7
19	23	2
26	32	1
10	12	4
113	114	2
94	94	6
16	43	2
43	45	4
62	87	1
82	87	1
11	15	2
139	150	1
124	125	2
2	34	2
121	122	1
179	179	4
135	135	7
43	67	1
24	39	1
157	170	4
81	82	5
39	42	1
134	135	6
54	88	1
40	43	2
95	108	3
81	85	1
61	90	2
7	29	3
40	41	4
80	82	1
51	67	1
71	73	1
118	133	1
132	132	3
73	174	1
132	133	2
15	20	1
81	88	3
29	31	1
44	45	3
105	107	2
111	115	2
80	108	1
77	153	2
168	169	5
80	80	7
111	114	1
115	151	1
32	160	2
88	89	4
64	127	1
60	60	2
1	10	2
74	75	4
141	176	1
61	86	2
87	113	3
22	28	1
16	31	2
8	16	1
145	152	2
141	141	1
72	74	1
3	9	3
25	27	2
20	22	3
108	111	2
51	60	2
26	27	3
21	24	1
42	43	4
163	173	1
35	41	1
79	148	2
11	45	3
87	88	2
62	74	1
23	26	2
16	17	3
21	28	2
79	133	2
22	143	2
10	18	1
97	120	1
74	123	2
118	142	2
41	45	2
108	109	2
78	78	3
104	129	2
33	106	2
5	101	1
131	149	2
167	167	4
33	38	1
66	71	1
2	5	1
157	174	1
40	53	2
97	98	1
140	140	2
102	102	1
107	108	1
8	9	1
5	13	3
27	28	1
153	153	2
35	45	1
117	117	1
9	11	3
142	144	1
154	155	3
92	93	1
165	168	2
131	159	2
158	172	2
13	31	2
60	83	2
7	40	1
58	94	1
90	91	3
31	56	1
151	170	1
15	173	1
74	137	1
115	153	1
34	34	9
2	7	2
78	133	2
22	46	1
116	153	1
2	9	1
13	36	1
66	67	1
59	59	4
58	58	1
159	160	3
23	40	1
87	91	2
24	34	2
115	131	1
84	92	1
24	32	1
35	101	1
175	175	2
10	16	1
6	29	1
53	56	1
71	148	1
16	33	1
91	93	1
56	86	1
34	38	1
62	89	2
32	36	2
131	156	1
107	107	1
32	55	1
33	39	1
56	57	1
165	165	1
78	138	1
13	14	2
123	134	1
1	21	1
23	24	1
111	131	1
143	144	2
87	89	1
99	101	1
28	32	1
96	101	1
143	149	1
134	142	3
64	65	1
133	141	1
70	70	1
0	93	1
93	94	1
153	158	1
136	180	1
174	175	1
51	52	1
166	166	1
112	151	1
98	98	2
135	162	1
0	4	1
32	37	1
64	132	1
152	154	1
27	41	2
8	13	1
14	44	1
134	145	1
148	149	1
120	121	1
38	39	2
177	180	1
11	12	1
4	15	1
28	29	1
143	152	1
1	14	1
10	41	2
0	39	1
17	58	1
