192	195	3
164	175	6
159	160	9
163	163	5
3	3	6
186	187	13
216	217	5
69	69	19
47	47	11
168	168	7
189	189	5
112	112	7
239	239	8
166	166	15
66	67	5
46	46	11
152	189	2
66	66	3
60	62	3
64	64	17
183	184	5
219	219	6
20	20	8
71	73	4
69	71	1
42	42	4
6	7	5
187	187	12
52	52	9
68	68	10
4	18	3
161	161	10
55	57	2
239	240	7
96	96	5
195	195	22
21	22	3
56	57	7
43	43	3
176	176	4
202	203	3
86	86	16
181	199	1
158	159	4
201	203	4
190	191	3
245	246	2
84	84	11
177	194	2
240	241	5
59	59	16
163	164	11
106	106	9
111	111	10
194	194	25
27	27	9
208	208	8
36	36	4
39	39	8
229	230	5
168	169	11
80	80	6
104	107	3
61	61	9
23	33	3
238	239	7
110	110	7
60	60	10
167	168	2
24	24	20
181	183	6
62	62	4
71	71	11
81	84	8
101	102	3
49	49	3
244	247	2
198	198	8
78	78	9
199	199	6
44	44	11
67	68	8
75	75	6
105	105	4
51	51	7
85	86	7
177	177	8
87	158	2
159	159	9
98	98	7
52	53	5
190	190	17
162	162	19
57	59	3
168	170	3
118	118	8
236	236	12
82	82	6
244	244	11
155	156	3
78	79	3
92	92	3
153	153	13
197	201	2
224	224	16
145	181	3
86	87	2
70	75	5
210	210	11
227	229	5
210	214	9
104	104	1
108	108	8
223	224	5
219	220	5
154	156	3
154	160	1
202	204	4
73	233	5
218	220	4
41	41	8
47	48	5
240	240	4
195	209	3
85	90	1
107	107	5
227	227	19
7	7	3
216	216	3
205	206	2
223	223	11
109	109	8
40	40	3
64	65	3
64	66	3
200	201	12
201	201	27
205	205	16
41	42	3
56	56	10
247	247	8
217	218	6
23	23	5
193	241	2
150	150	10
65	65	8
50	57	2
4	4	5
163	165	2
74	74	13
32	33	2
103	103	5
167	167	6
83	83	9
35	36	3
42	43	2
45	46	3
218	218	16
45	45	11
166	167	13
200	212	3
231	231	6
72	73	28
221	222	5
16	16	4
89	90	5
218	219	7
165	166	4
104	105	12
208	209	4
93	94	3
209	209	9
213	215	6
217	219	3
151	152	3
33	33	5
156	161	1
102	102	5
158	185	3
222	223	7
87	88	7
207	207	5
57	57	1
48	48	6
107	108	9
115	115	5
246	247	4
229	229	7
185	191	1
234	235	3
116	117	4
175	176	10
211	211	4
237	237	11
30	30	7
176	177	2
233	233	8
200	200	18
169	187	4
50	50	3
213	213	6
160	190	4
152	153	2
49	50	11
180	194	2
192	194	3
157	157	11
76	77	19
222	222	4
8	40	5
117	117	14
102	105	2
161	162	7
172	172	12
247	248	2
219	242	3
83	86	6
238	238	20
41	84	1
116	116	6
61	62	13
154	185	2
4	38	2
29	29	7
185	185	8
90	90	11
246	246	2
88	88	3
24	26	1
232	233	3
163	195	2
157	160	1
235	236	1
198	200	4
190	192	1
87	87	4
165	165	5
162	163	4
180	180	14
234	234	11
204	204	13
221	221	5
34	34	5
191	191	7
85	85	5
6	6	6
10	29	2
97	97	8
215	215	7
94	94	6
217	217	15
216	218	4
151	151	9
119	119	16
221	223	4
56	60	2
175	175	5
72	72	3
64	74	2
214	215	3
220	220	7
248	248	3
26	26	6
117	118	8
240	243	3
207	208	2
224	233	2
23	92	1
119	120	3
48	49	6
120	145	6
156	178	1
165	169	2
238	242	4
53	53	6
173	174	2
195	196	4
105	106	4
194	209	4
94	95	1
154	154	10
18	18	8
90	91	10
191	194	1
233	234	3
191	192	3
71	237	5
206	208	2
60	63	2
158	158	6
120	144	1
167	199	2
113	114	1
171	172	4
180	197	3
182	182	6
198	199	13
232	232	4
21	23	2
5	5	9
169	169	16
164	177	5
241	241	6
12	12	6
152	165	2
171	178	2
34	35	3
114	116	3
179	179	6
213	218	1
245	245	12
25	25	4
170	170	14
60	61	2
159	171	2
225	225	4
172	174	4
230	231	2
54	54	8
32	32	6
91	92	2
228	228	2
242	242	4
203	203	12
196	196	7
237	238	3
90	92	1
155	155	6
71	76	1
226	226	5
214	214	12
165	168	4
72	74	4
9	9	3
186	186	7
96	97	2
19	39	2
56	59	1
179	181	3
79	79	4
209	210	1
113	113	4
40	41	1
35	35	3
97	98	5
77	78	2
169	171	2
101	101	5
59	73	3
79	82	2
76	82	1
196	199	1
192	193	4
164	165	2
184	184	3
95	100	1
213	214	4
43	52	1
104	106	1
81	83	4
201	202	1
100	100	3
218	246	6
76	76	5
31	32	2
160	160	1
108	109	4
19	19	6
210	211	4
187	188	3
193	193	2
59	60	2
71	78	3
44	87	6
192	192	13
70	70	4
19	20	2
157	158	4
197	199	2
215	218	9
85	91	1
183	183	7
57	60	2
188	190	3
95	95	2
111	112	2
202	202	7
15	15	3
61	233	3
147	147	3
39	80	1
235	235	3
31	31	5
246	248	3
85	87	1
174	175	1
204	206	1
248	249	3
194	196	4
145	145	5
116	118	3
69	70	4
170	172	1
224	225	4
67	67	3
211	212	6
244	246	1
58	58	5
191	200	2
71	74	4
173	173	7
174	174	1
178	178	5
26	68	1
241	242	4
5	12	1
178	186	2
164	167	2
220	222	2
150	151	3
30	31	3
63	64	2
82	83	3
166	170	4
37	37	3
59	61	1
199	200	1
179	180	1
14	14	4
193	199	1
24	25	3
49	72	1
189	190	2
193	194	4
184	185	3
152	184	1
95	96	1
161	178	1
37	38	6
20	34	5
103	106	2
160	161	4
70	72	2
198	214	1
42	55	1
159	187	1
182	183	4
153	158	1
152	163	3
75	76	5
160	192	4
1	3	2
49	74	2
179	185	2
212	212	4
111	113	1
81	81	1
74	75	2
169	170	2
10	10	3
99	101	1
162	195	1
206	206	2
77	77	5
58	59	2
63	63	6
243	243	3
4	5	3
88	89	2
20	30	2
8	9	1
148	149	1
225	232	3
54	55	1
48	50	2
30	34	1
197	198	4
63	94	2
222	225	1
230	230	6
238	241	1
57	58	2
67	75	2
120	120	1
170	178	2
181	181	4
44	45	1
152	152	3
172	176	1
188	191	1
121	121	2
197	197	2
40	94	1
237	239	1
105	109	2
73	73	2
170	171	2
147	202	1
153	154	2
74	81	1
9	11	2
38	39	1
211	213	1
80	81	1
109	110	3
8	8	5
210	213	1
36	38	1
68	69	1
166	183	2
54	57	1
161	190	1
245	247	1
171	173	1
100	101	2
168	187	3
79	80	1
112	114	2
17	26	1
22	22	2
22	23	1
6	11	1
186	190	1
89	89	2
168	182	1
164	164	3
171	186	1
209	211	1
21	21	1
83	88	1
203	204	1
189	200	1
58	74	1
91	91	1
168	240	1
84	85	2
144	145	1
208	210	1
182	200	1
87	103	1
175	183	1
204	205	1
3	83	1
22	41	1
184	193	1
180	200	1
92	93	1
181	194	3
238	245	1
159	161	1
154	155	2
7	21	1
220	221	1
163	166	1
146	152	1
73	74	2
245	248	1
235	239	1
171	174	1
213	241	1
193	198	2
17	193	1
36	96	2
236	238	1
9	10	1
179	191	1
28	28	1
72	76	1
172	173	1
70	77	1
180	186	1
64	67	2
87	89	1
93	93	3
194	195	1
175	179	1
171	171	1
119	121	2
236	246	1
66	87	1
238	240	1
1	6	1
5	6	1
228	229	1
84	86	1
