64	64	5
9	30	2
148	148	11
134	134	3
40	40	13
97	98	5
9	11	4
107	109	1
140	141	3
88	89	4
50	64	4
135	135	7
54	54	4
47	47	25
17	36	7
104	104	4
14	14	10
18	18	14
138	142	3
13	13	15
85	85	7
62	97	2
50	56	5
97	97	6
6	8	3
115	116	7
109	109	9
22	66	1
13	25	7
10	32	5
56	57	4
100	100	2
12	12	12
113	139	6
140	140	6
43	48	2
72	85	2
40	51	5
49	49	4
120	122	5
91	100	2
46	46	6
76	95	5
78	83	4
98	99	1
40	41	4
22	22	12
45	45	8
21	23	2
17	17	14
24	24	6
29	29	13
109	110	1
136	136	4
96	110	5
40	53	5
34	34	10
15	15	4
44	47	1
128	128	6
3	20	2
11	11	12
36	36	6
62	62	2
135	136	1
42	42	14
118	118	6
11	24	1
50	76	5
137	138	6
76	77	2
26	30	4
82	95	4
22	85	1
84	84	11
5	28	3
9	9	15
71	81	4
151	151	4
122	122	5
83	102	1
136	145	3
126	130	3
138	138	8
4	4	8
20	53	3
124	145	1
50	51	3
113	113	1
35	35	7
125	125	11
48	48	8
43	43	11
21	21	4
94	99	6
55	55	12
113	115	2
110	111	3
31	32	4
87	87	3
69	71	1
145	145	11
103	103	5
62	79	1
33	33	7
114	131	2
65	65	3
121	122	6
42	43	9
106	108	3
115	115	4
25	28	4
9	12	7
9	10	3
95	95	4
14	15	1
6	28	1
17	19	1
142	142	2
119	119	8
50	55	3
45	46	1
97	100	3
55	56	1
39	39	10
120	120	9
139	143	3
102	106	2
133	137	1
117	118	3
134	137	2
101	115	3
91	111	6
35	41	2
21	22	8
19	20	3
145	146	1
123	128	2
114	129	1
31	55	1
63	66	3
57	57	9
112	112	8
52	64	4
133	134	6
83	94	1
27	28	12
116	117	1
20	23	1
73	100	3
70	75	5
15	16	3
37	37	4
32	32	9
111	111	4
10	13	1
93	93	7
74	98	1
33	35	3
154	154	6
78	78	11
19	53	6
41	41	6
150	151	2
49	68	3
141	142	11
31	31	10
38	38	6
11	29	2
56	56	3
16	16	10
106	106	8
28	29	1
94	94	3
32	34	4
95	96	5
45	75	4
18	37	5
88	90	1
86	93	1
67	67	9
74	74	3
48	51	2
12	14	2
20	34	1
121	121	5
80	81	2
71	92	3
99	99	5
70	70	8
114	137	2
73	73	2
152	153	2
5	5	2
76	76	4
63	64	2
149	150	4
124	124	2
128	150	4
122	139	2
52	78	3
5	23	1
82	111	4
2	3	2
112	114	2
108	109	1
12	25	5
7	26	1
20	20	7
74	94	1
139	139	18
36	38	2
53	54	3
6	6	12
74	99	5
143	143	3
44	46	1
73	74	5
63	63	6
146	146	7
51	107	2
44	44	4
3	3	5
77	77	4
147	148	3
93	94	4
18	19	1
147	147	2
5	7	3
38	55	2
76	81	3
37	38	4
4	7	1
30	55	3
36	40	2
22	64	5
8	8	6
72	73	3
61	62	1
152	152	4
18	38	2
29	30	5
127	128	2
14	21	1
69	69	2
125	127	1
83	83	3
75	79	1
114	114	2
81	81	4
97	99	3
131	152	3
107	107	5
115	117	3
116	131	2
136	137	3
137	137	7
3	24	2
130	130	6
87	88	4
131	131	5
82	82	6
22	49	3
51	68	3
69	75	2
141	141	1
75	75	3
88	94	2
102	102	6
26	26	3
28	99	1
149	151	1
101	116	1
153	154	3
69	81	2
84	85	2
72	132	2
71	107	1
131	135	3
69	77	2
7	27	1
129	129	5
68	68	4
44	45	1
23	23	2
137	145	1
19	37	2
75	77	1
95	98	1
137	142	3
22	65	2
75	80	5
5	26	3
46	56	2
10	30	1
27	27	1
115	118	5
132	154	1
18	32	5
116	116	2
104	136	1
69	76	2
72	72	3
127	127	7
98	98	3
114	132	2
124	126	1
81	82	4
86	98	1
51	51	1
132	132	4
106	107	3
31	48	1
41	43	1
32	33	5
19	19	2
2	4	1
21	52	1
35	36	2
34	36	2
43	44	1
137	144	4
42	45	2
126	126	3
87	92	3
144	145	2
78	104	1
75	87	1
38	39	2
83	84	2
20	50	1
126	127	1
143	144	1
26	27	2
139	142	2
81	83	1
53	53	3
10	28	1
109	111	1
15	18	1
9	28	2
46	47	2
23	67	1
13	15	3
22	63	2
64	97	2
80	108	2
57	73	1
86	94	1
89	89	3
80	80	1
63	65	1
80	85	1
54	106	1
41	42	1
85	86	1
51	52	1
36	51	1
17	18	1
12	13	1
105	105	1
74	77	1
27	30	1
20	28	1
71	73	1
24	25	1
19	54	1
67	95	1
12	21	1
128	129	1
66	66	1
20	82	1
30	30	3
131	151	1
123	123	4
39	40	1
106	110	1
82	102	1
11	33	1
16	30	1
111	112	2
130	139	1
10	10	1
106	112	1
104	123	1
21	34	2
21	65	1
75	101	1
7	31	1
125	145	1
10	11	1
37	53	1
55	83	1
124	139	1
130	137	1
79	81	1
117	117	2
45	68	2
25	32	1
150	152	1
38	40	1
67	68	1
45	56	1
50	50	1
81	87	1
88	108	1
