133	133	7
72	100	2
86	87	6
57	62	3
28	28	1
3	3	2
81	83	3
81	96	3
68	69	2
80	86	2
164	164	7
116	131	3
136	137	4
161	162	3
15	15	3
97	130	1
142	149	3
15	72	3
153	153	1
106	131	1
101	101	3
18	19	4
8	9	1
9	9	3
111	111	1
97	97	5
18	18	2
126	127	2
99	131	3
152	154	4
133	134	4
37	38	4
21	21	2
24	106	1
91	91	7
137	138	1
163	163	1
20	20	10
158	158	1
115	130	4
87	107	1
138	138	5
157	158	1
136	136	5
76	81	4
19	19	2
25	76	4
134	135	8
65	66	2
160	165	2
11	11	4
144	157	1
146	146	1
133	149	1
101	102	2
114	114	2
39	89	1
112	112	2
102	102	1
167	167	4
8	22	1
107	108	2
39	40	3
15	17	3
141	141	3
24	24	2
130	131	3
125	126	3
115	116	3
20	21	4
115	124	1
55	55	3
113	114	1
35	113	1
2	2	2
115	115	4
54	54	2
0	4	1
167	168	1
117	117	3
47	55	1
3	5	1
89	89	1
119	122	3
87	88	1
124	124	3
69	69	4
148	148	3
95	95	8
66	66	2
63	64	2
135	135	2
107	107	2
77	77	9
46	97	2
48	64	2
92	95	1
37	37	3
36	36	2
161	163	6
27	27	1
50	50	3
54	56	1
147	148	2
100	104	5
109	136	2
14	14	3
40	41	8
144	144	2
74	74	3
67	67	1
109	109	3
85	85	5
159	159	2
5	12	1
49	49	2
99	132	1
23	24	3
64	64	3
72	87	1
166	167	2
69	86	2
106	106	3
22	22	2
139	139	1
4	4	2
12	13	1
16	16	1
70	71	4
1	2	1
132	132	2
134	134	5
99	99	2
121	122	1
36	37	1
108	151	1
103	105	1
155	156	1
89	107	1
123	124	2
116	116	4
6	69	3
99	100	3
102	104	3
5	5	2
98	99	1
136	140	2
74	78	2
94	94	2
96	96	2
53	53	1
104	104	1
155	155	1
85	107	1
48	50	1
87	87	1
152	152	2
34	35	2
169	169	1
170	170	2
7	7	2
41	41	2
0	0	3
62	62	1
81	103	2
90	90	1
118	118	1
76	76	1
159	161	1
127	158	1
155	161	1
10	10	1
22	24	1
100	100	1
128	129	1
86	108	1
58	61	1
26	47	1
91	112	1
10	12	1
46	46	1
33	33	2
85	86	1
115	117	1
116	133	1
103	104	1
75	75	2
139	168	1
162	162	1
128	130	1
34	34	1
