126	126	6
48	48	9
127	129	2
119	119	4
91	96	1
43	43	3
139	139	7
72	72	4
136	140	2
54	54	3
128	128	11
24	57	4
80	80	5
49	49	12
133	133	4
48	52	4
65	65	2
75	75	4
21	92	2
42	130	3
111	112	3
103	103	1
5	35	2
132	132	12
120	125	5
1	20	2
21	21	2
93	93	10
49	50	3
94	94	6
127	127	5
134	134	5
125	127	3
89	90	1
140	140	10
32	32	7
118	118	2
50	50	2
4	31	1
95	96	1
71	91	1
110	110	3
74	74	8
13	13	3
137	137	7
91	125	5
51	56	2
63	63	1
115	115	2
2	5	2
28	28	8
4	5	3
136	138	3
59	60	3
101	101	11
137	141	1
80	120	1
77	110	1
105	105	8
4	4	12
109	109	4
15	16	1
135	135	5
64	65	3
11	11	4
75	84	4
117	125	1
108	109	3
123	123	5
88	88	1
105	134	3
22	74	2
62	63	6
0	53	1
29	29	5
93	94	4
1	21	1
5	18	6
27	27	5
12	15	2
63	64	2
61	61	4
40	40	2
105	106	3
144	144	8
114	115	3
114	124	4
117	117	7
133	140	4
34	34	6
95	95	2
40	41	5
55	55	2
2	11	4
5	5	4
120	120	2
68	69	1
122	122	4
99	99	6
140	141	2
85	85	5
51	51	1
132	133	2
108	129	7
124	129	3
109	140	2
24	58	2
119	132	1
143	144	1
12	21	3
127	131	2
113	117	2
35	41	2
41	41	1
121	121	1
79	79	2
123	124	3
109	110	2
41	67	2
16	16	3
107	111	1
96	96	3
130	133	3
12	12	3
98	98	2
141	141	7
121	132	2
92	94	2
35	35	6
41	42	2
47	47	5
113	114	1
25	56	2
31	31	4
60	61	2
71	71	1
74	115	1
59	59	7
125	129	2
15	15	4
25	27	1
120	133	1
53	53	3
76	76	2
5	6	5
21	91	3
36	36	2
26	26	2
25	94	2
52	52	2
0	0	6
49	51	2
94	97	1
107	107	6
24	25	3
25	26	1
65	66	2
82	109	1
26	91	2
107	113	3
104	134	2
113	129	3
116	116	5
129	129	2
6	19	2
72	85	2
81	81	3
32	33	1
141	143	2
82	82	1
20	73	5
121	136	1
38	38	5
140	143	1
19	73	2
141	142	2
102	102	6
16	18	1
62	62	3
42	42	3
69	69	2
58	58	5
125	125	3
145	145	4
91	91	3
127	132	1
17	37	1
25	25	3
134	141	4
2	2	1
133	142	2
108	108	2
88	89	3
111	113	1
136	136	2
122	123	2
91	95	3
118	127	1
3	6	2
25	40	3
1	53	1
0	32	1
66	66	1
48	53	2
111	111	4
30	33	1
13	15	1
9	9	1
77	81	2
23	33	2
95	102	3
35	51	1
33	33	1
8	22	1
94	96	1
137	138	2
50	52	1
23	24	1
116	117	1
57	57	2
1	1	1
24	24	1
112	117	2
23	23	3
16	21	2
96	97	1
135	137	1
74	75	1
13	14	1
110	111	1
130	131	2
37	37	1
78	78	3
8	8	1
29	30	1
69	70	2
142	143	1
70	70	1
74	105	2
32	104	3
100	100	1
87	99	1
79	81	1
47	53	1
105	107	1
4	35	1
