52	52	10
57	57	11
129	129	9
53	53	18
42	43	6
71	71	16
93	93	14
75	118	1
45	45	5
38	39	9
10	12	5
101	101	10
103	103	9
112	112	7
66	80	4
112	121	1
109	110	2
92	92	13
49	49	9
86	97	2
68	81	5
83	86	8
119	119	13
105	105	17
47	47	14
70	71	3
83	83	1
56	56	15
129	130	10
13	46	3
62	63	1
46	46	13
77	78	8
30	31	3
28	28	5
106	109	1
15	16	6
121	121	10
5	5	4
55	131	1
105	106	3
3	3	8
123	123	12
60	60	13
43	43	9
77	108	3
115	116	4
40	40	11
79	79	13
126	128	2
15	100	2
33	33	5
96	96	8
46	47	3
89	89	7
109	109	10
131	131	5
51	51	15
74	74	10
7	14	6
94	94	6
58	67	4
19	46	1
67	119	2
2	3	3
11	12	5
27	27	10
104	105	6
55	55	11
92	93	5
113	113	14
125	128	1
83	94	2
4	4	11
72	72	8
80	81	8
114	114	22
83	84	1
128	128	10
66	67	3
86	86	2
8	9	4
29	29	8
68	68	7
63	83	2
8	8	12
102	103	5
88	94	3
46	48	1
90	91	4
100	101	11
97	97	7
66	66	23
76	76	9
22	94	1
23	24	7
58	58	9
33	44	2
123	124	4
1	1	8
31	47	3
107	107	12
88	88	8
39	39	15
69	69	5
80	105	1
59	59	9
80	80	7
97	127	3
17	18	13
98	98	3
82	83	5
10	10	6
21	23	5
90	90	8
91	91	10
73	74	3
14	15	7
30	30	8
76	96	2
78	78	7
4	6	1
124	124	6
128	129	5
62	66	2
7	7	8
110	110	10
65	68	5
29	32	1
79	132	3
14	109	1
106	130	1
99	99	6
21	22	1
67	97	8
12	12	3
82	86	3
3	108	2
120	120	11
64	113	4
14	14	9
103	129	2
14	21	2
125	125	2
80	86	2
48	49	7
11	111	2
65	65	8
19	19	5
15	61	3
21	21	3
79	81	4
61	62	4
48	48	4
7	10	2
16	16	4
31	31	1
2	2	2
38	38	7
70	70	3
132	132	3
29	31	2
19	20	5
25	25	3
69	71	2
133	133	2
131	132	6
87	88	2
104	104	2
122	122	6
73	73	8
106	107	1
44	44	11
75	75	5
126	127	7
69	132	3
23	23	10
85	85	3
78	81	2
56	57	3
15	15	10
85	98	3
32	32	2
88	91	2
95	95	5
26	26	5
118	118	11
19	33	2
86	87	4
127	129	1
111	112	4
6	7	2
84	85	16
22	22	3
18	18	1
130	131	2
78	115	3
77	77	2
54	54	7
87	87	3
74	85	3
99	103	1
84	84	4
106	106	3
67	67	10
42	42	6
81	81	6
65	130	1
50	50	6
20	33	2
117	117	4
116	118	2
16	99	6
14	19	2
63	63	5
118	119	2
3	43	2
63	69	2
99	107	2
74	76	6
114	115	3
88	89	4
73	78	2
64	64	1
26	31	1
43	44	3
111	111	7
11	14	2
69	70	1
62	64	3
62	96	1
108	109	1
54	55	1
20	20	2
93	95	2
40	133	1
96	131	3
96	107	4
24	24	1
0	0	3
125	126	1
20	90	2
82	82	3
17	17	4
18	95	1
83	87	4
59	60	2
45	46	2
99	130	1
70	95	2
80	98	2
116	116	4
61	61	4
40	41	2
54	125	1
102	102	3
61	108	1
126	126	1
79	99	3
73	117	4
42	44	2
6	6	2
67	88	2
10	122	1
55	56	2
53	54	3
98	99	1
121	122	1
95	96	1
82	85	2
91	123	1
54	124	1
127	127	4
124	125	1
99	100	2
32	44	1
79	113	1
59	62	1
13	55	1
85	95	1
79	100	3
108	108	1
92	94	3
80	85	1
41	41	3
88	90	3
130	130	5
18	19	6
75	77	2
0	6	3
100	102	2
34	34	1
89	124	1
5	12	3
115	115	4
83	95	2
3	42	1
0	1	2
1	2	1
87	94	2
51	52	2
10	11	4
44	45	1
68	69	1
13	13	3
16	19	1
106	124	4
76	109	2
64	96	1
96	98	2
82	130	1
50	52	2
48	57	2
78	79	2
24	59	1
53	89	1
112	120	1
71	113	1
63	66	2
60	102	1
97	98	1
108	129	1
32	33	2
21	24	4
109	111	1
21	40	1
7	8	1
4	5	1
11	11	1
67	114	1
65	66	6
33	34	2
110	122	3
104	107	2
13	14	1
101	119	1
62	62	2
59	68	2
16	17	1
38	40	1
58	59	1
94	95	1
9	10	1
41	42	1
105	107	1
4	12	1
132	133	1
76	108	1
84	94	1
42	130	1
102	113	1
105	124	1
44	69	1
79	82	1
93	94	2
8	14	1
51	53	2
63	68	1
9	9	1
89	91	1
71	72	1
32	59	1
