64	64	4
63	63	6
59	68	4
60	60	5
105	105	2
56	129	2
4	12	1
67	72	3
44	45	5
20	32	1
121	121	3
72	72	1
15	33	5
42	45	4
6	6	3
11	12	5
35	35	5
132	132	3
93	93	4
99	99	3
133	133	5
58	58	4
38	41	1
44	44	7
20	20	1
56	56	2
93	109	1
5	40	1
23	84	7
78	78	2
15	16	2
8	34	2
37	82	2
37	75	2
125	125	3
10	10	3
35	36	8
42	42	5
17	78	6
88	91	1
59	59	2
10	12	2
101	102	4
55	56	1
106	108	3
14	15	4
34	120	2
94	94	2
31	36	3
64	65	1
33	33	5
116	128	2
86	87	1
11	21	1
7	8	3
95	114	3
113	113	1
13	13	1
30	40	2
22	134	1
26	29	1
112	113	1
80	80	4
61	118	2
36	56	2
15	21	5
83	83	1
123	123	2
76	77	3
33	63	1
103	130	6
12	12	3
41	42	1
20	25	1
17	17	5
99	129	1
29	29	1
73	73	3
30	30	2
50	50	4
29	30	1
40	41	3
27	28	1
81	85	3
108	108	1
21	82	2
31	31	2
95	95	2
56	58	2
20	73	2
124	127	2
27	85	1
21	25	3
30	126	1
76	76	5
106	133	1
69	70	1
45	45	4
113	121	1
120	121	3
17	44	1
23	43	2
27	27	3
97	106	1
129	129	2
10	11	2
131	131	2
29	49	1
77	79	2
20	21	1
7	7	3
86	86	2
54	90	3
4	21	1
113	116	1
47	47	1
101	101	2
63	79	1
104	104	2
23	23	1
67	67	1
77	77	2
69	69	1
87	88	1
59	103	2
121	122	1
115	117	3
79	79	3
37	41	3
38	39	1
64	76	1
31	32	2
63	104	2
126	126	2
68	69	1
55	55	1
17	18	1
31	60	2
130	130	1
15	15	2
36	36	2
19	19	2
37	62	2
5	55	1
25	25	2
59	113	1
112	133	1
21	79	1
17	22	1
11	11	1
15	38	2
63	81	1
26	26	1
96	98	1
15	27	1
32	32	3
34	65	1
6	11	2
17	28	1
66	66	1
9	10	1
71	71	1
107	107	1
106	106	1
9	9	1
13	32	1
19	64	1
26	83	1
27	29	1
0	1	2
64	78	1
85	85	1
5	21	1
95	126	1
43	49	1
37	38	1
19	29	1
20	46	1
20	84	1
93	110	1
8	8	1
