102	102	15
100	101	4
132	133	9
72	72	25
46	46	7
106	106	16
65	65	21
82	91	3
25	25	7
85	85	10
82	82	15
94	94	16
105	106	3
68	68	11
71	71	22
97	98	8
64	65	4
120	122	1
111	120	7
3	3	15
80	80	15
113	113	13
89	90	12
71	72	1
21	22	3
127	128	5
87	87	9
59	85	1
116	120	1
21	21	1
126	126	5
79	79	26
100	107	5
101	119	4
50	52	3
13	13	4
78	79	12
91	91	14
120	120	8
90	90	15
114	114	15
93	93	11
3	5	6
111	111	9
84	85	16
24	26	4
103	103	16
131	131	10
15	15	3
27	27	8
117	117	11
70	85	1
78	78	8
44	44	12
24	25	3
66	70	2
130	130	9
69	69	9
112	112	14
51	51	1
98	99	6
114	121	2
100	100	7
19	20	4
108	131	4
62	62	15
6	6	3
29	30	9
77	80	1
105	105	7
89	89	13
4	53	6
133	133	8
76	76	12
73	73	21
31	31	10
30	82	5
106	132	5
107	107	12
115	115	14
109	109	7
56	59	1
81	81	13
30	30	11
26	26	10
16	16	6
5	6	1
15	17	3
75	75	6
0	2	2
92	92	10
17	19	2
55	56	4
55	55	10
11	18	4
134	134	5
62	74	6
83	83	11
38	38	2
78	80	2
116	116	11
63	64	2
118	119	7
19	19	9
37	37	4
98	98	12
99	99	13
92	93	7
108	110	2
10	11	2
86	87	8
104	104	8
93	94	2
58	87	3
119	120	6
33	33	3
106	107	4
56	56	8
105	108	1
47	48	1
95	95	10
117	120	3
74	80	4
101	101	21
53	53	19
7	7	6
107	108	4
67	96	4
77	77	12
111	113	4
96	97	7
116	124	5
88	88	11
110	111	9
117	129	4
125	125	12
8	8	6
85	86	1
47	73	4
114	127	1
129	129	6
20	20	4
12	14	2
129	130	3
128	129	3
122	130	4
65	90	1
33	34	5
110	110	5
57	108	2
16	17	2
0	0	8
86	86	3
124	124	7
68	69	1
72	75	1
30	32	3
50	50	11
11	11	5
113	114	5
53	54	9
60	61	6
23	27	1
54	54	9
4	4	1
64	64	13
12	12	6
127	127	8
32	32	2
63	63	9
107	109	2
14	16	1
99	120	2
123	123	4
67	68	2
70	70	11
49	49	5
49	50	8
122	124	3
53	59	1
63	66	1
65	69	3
36	36	1
23	23	8
74	74	13
97	97	9
112	113	3
95	101	8
115	116	5
3	4	11
122	122	6
35	35	8
54	85	1
67	67	6
17	18	2
130	132	3
45	46	5
11	13	2
106	108	1
2	2	5
122	123	2
119	119	11
9	11	2
104	105	9
105	119	2
114	115	8
69	98	1
14	15	2
107	132	2
117	122	2
106	118	1
45	45	5
61	61	3
27	28	2
114	130	2
84	84	9
121	130	2
70	71	9
54	58	1
123	124	5
10	10	4
71	79	1
87	88	2
117	118	7
65	71	3
91	92	3
14	14	5
127	129	4
17	17	2
58	59	8
15	16	2
37	43	2
18	18	1
121	121	12
12	13	2
6	7	3
45	47	1
77	78	6
73	75	2
28	29	2
90	91	2
109	130	1
43	44	3
52	52	5
48	48	2
74	81	1
75	77	6
60	60	7
43	43	4
122	131	3
13	14	3
44	45	7
57	57	5
70	98	2
126	127	3
79	80	3
28	72	1
16	19	1
67	100	3
58	58	5
128	128	6
52	53	5
32	33	3
32	43	1
132	132	3
124	133	1
67	69	2
62	63	4
54	55	3
94	101	2
28	30	1
76	99	3
111	116	2
8	9	2
54	59	2
104	126	1
1	1	1
115	128	3
70	74	1
94	95	1
79	108	3
28	28	13
16	18	3
73	88	3
59	59	5
64	88	5
111	112	3
83	85	1
68	128	3
13	15	3
1	2	2
117	124	1
21	23	1
22	22	1
116	117	1
74	88	2
32	34	4
131	132	3
34	34	9
47	49	2
119	121	3
125	128	1
69	95	2
66	87	7
5	5	5
61	62	3
80	81	1
34	35	2
74	76	1
107	110	1
119	132	2
103	104	1
98	127	1
56	58	3
78	81	1
63	88	1
74	75	2
108	108	4
71	73	1
69	71	1
106	109	1
70	77	3
101	102	2
29	29	1
116	123	1
101	116	1
75	76	2
66	97	1
117	125	1
105	111	3
3	87	1
22	23	1
9	15	2
62	76	1
107	119	2
68	100	1
9	24	1
123	131	1
66	66	1
52	54	1
92	96	1
42	44	1
71	102	1
67	97	3
108	119	1
37	38	1
0	3	1
74	89	1
102	103	1
9	9	2
32	35	2
66	67	2
109	121	1
118	118	3
76	112	1
121	124	1
63	68	1
102	105	1
35	36	1
5	54	3
99	100	1
119	131	1
115	121	1
96	130	1
76	77	1
85	87	1
60	62	2
49	52	1
54	65	1
37	82	1
95	96	1
72	86	1
70	73	3
104	127	1
77	79	1
28	88	1
43	45	2
84	87	1
69	70	1
26	27	1
76	120	1
96	96	2
54	64	1
118	120	1
72	104	1
