44	58	1
69	69	8
24	54	2
38	41	2
95	97	7
53	53	16
48	56	1
51	92	6
63	65	1
66	67	5
77	77	6
92	93	4
71	72	3
28	28	5
46	47	7
43	68	1
31	31	8
50	51	1
95	95	5
81	98	3
59	59	4
53	77	1
52	52	9
91	91	12
26	27	2
52	82	5
73	80	2
84	94	1
51	51	23
79	97	2
62	62	4
57	90	1
79	80	4
71	71	12
29	29	9
60	67	4
25	27	6
56	57	2
77	78	4
51	52	2
93	96	3
38	89	2
75	75	1
45	45	6
99	101	3
25	25	8
99	100	9
96	97	4
26	54	3
23	24	5
57	76	1
54	87	3
100	100	9
34	34	5
74	74	7
69	72	7
98	98	10
101	101	4
60	63	2
38	38	6
39	99	2
33	36	2
26	36	4
50	89	2
54	86	2
47	47	3
33	33	8
53	55	4
57	58	3
78	78	4
72	72	9
59	85	1
95	99	1
34	36	2
87	87	8
46	46	7
36	37	2
36	36	7
68	68	5
61	62	4
33	45	2
26	28	2
52	74	1
90	90	10
61	61	4
94	94	5
50	50	5
64	64	6
55	55	6
27	27	9
26	53	3
84	99	3
23	26	3
84	84	14
67	68	4
56	56	8
80	80	5
35	35	4
42	43	4
51	99	1
58	58	4
76	76	4
30	69	2
37	38	1
37	48	1
40	40	4
60	72	2
48	48	9
94	98	4
58	85	2
85	85	3
93	94	3
101	102	3
89	93	2
32	46	2
49	49	14
98	100	3
24	56	1
63	63	6
70	70	6
52	55	3
92	92	10
95	98	2
54	54	4
67	67	9
81	95	2
91	92	3
44	44	10
20	89	1
79	79	4
97	97	12
37	93	2
70	71	1
51	53	1
76	77	7
86	86	3
99	99	6
47	53	1
27	28	4
87	88	4
60	99	3
89	99	2
84	88	1
29	46	1
33	39	1
65	65	4
44	75	4
41	42	1
30	67	1
60	60	6
33	35	2
27	51	3
86	87	1
48	83	1
79	95	1
96	96	2
28	84	5
51	93	1
93	93	5
24	25	1
83	84	1
69	70	2
70	73	1
81	96	2
66	66	3
25	26	3
81	86	1
54	61	1
68	99	1
21	58	1
55	76	2
63	73	1
42	42	1
89	89	8
45	78	1
39	39	1
73	74	1
24	24	1
81	81	3
88	88	1
84	85	2
43	43	2
57	57	2
79	102	1
56	87	1
41	41	2
28	29	1
55	56	1
54	55	1
73	73	3
63	64	1
48	73	2
22	27	2
75	77	1
39	47	1
29	45	1
24	28	2
52	69	1
82	97	2
62	72	1
85	94	3
22	66	1
80	93	1
86	88	1
86	98	2
50	101	2
34	35	1
61	76	2
49	51	1
102	102	2
50	80	1
58	59	1
68	69	1
64	65	2
38	87	1
30	31	1
30	30	1
29	62	1
48	49	1
46	48	1
40	50	1
69	74	2
24	74	1
90	91	1
39	58	1
72	73	1
26	26	1
56	58	1
80	81	1
83	85	1
84	100	1
78	79	1
82	95	1
20	20	1
