0	0	6
121	122	5
112	127	4
73	73	8
120	122	4
82	83	1
101	101	19
79	92	4
19	20	3
135	135	21
138	138	7
125	125	15
11	12	2
84	84	8
74	126	2
1	1	2
101	102	5
21	21	5
6	6	4
107	107	9
132	132	13
110	110	5
119	119	3
134	135	4
133	133	12
140	140	12
85	87	2
122	122	7
78	124	4
96	140	6
114	114	5
109	112	4
83	84	5
15	19	1
27	29	3
7	9	3
89	91	6
124	124	16
23	23	3
23	24	4
27	27	3
2	2	3
103	103	11
33	33	2
131	131	5
79	79	5
86	86	3
137	138	7
137	137	8
124	125	3
122	123	4
88	88	8
28	28	3
126	127	4
118	118	7
125	126	7
78	78	4
136	136	4
94	94	10
109	109	1
16	16	9
128	128	9
72	72	5
97	98	5
120	120	3
115	120	2
11	22	1
74	127	2
127	127	6
7	7	1
121	121	6
113	113	1
87	87	4
74	74	6
106	108	3
116	116	2
123	123	9
37	37	2
8	8	3
71	71	13
80	82	2
129	130	7
117	117	2
130	130	7
107	108	3
77	77	3
115	116	4
139	140	1
18	18	7
5	6	4
34	34	11
3	3	1
110	130	2
15	15	12
119	122	2
11	11	6
126	126	5
87	92	3
13	26	3
130	140	6
22	22	2
127	129	4
34	35	6
98	98	8
136	137	2
115	115	6
110	111	6
15	27	4
108	108	4
90	91	2
20	21	6
119	120	3
105	106	1
81	83	1
123	124	1
119	121	2
86	88	3
135	136	5
85	85	6
113	114	2
5	31	1
16	18	4
18	20	1
81	81	3
91	91	2
95	95	2
17	17	1
116	122	2
139	139	2
83	83	3
100	117	1
96	96	6
82	82	2
94	95	4
30	30	3
5	5	1
120	121	6
3	4	5
120	123	1
0	1	1
94	123	1
134	134	14
97	97	6
32	32	2
118	119	2
38	38	1
13	14	1
125	128	3
76	77	3
78	84	1
72	73	3
11	29	1
96	127	1
133	134	1
108	109	3
24	29	1
100	100	4
112	113	1
86	87	1
115	140	1
6	7	2
131	132	2
85	101	1
134	136	7
96	99	1
104	105	3
130	139	1
98	99	4
93	96	4
128	138	2
127	128	1
83	93	2
130	131	2
13	13	1
102	102	2
101	103	1
84	92	1
104	106	2
93	94	2
10	10	1
90	90	3
78	85	4
94	105	2
92	123	1
85	86	3
112	114	2
35	35	2
75	76	1
129	129	5
128	129	2
107	121	2
117	119	1
16	28	1
75	75	3
31	32	1
22	24	1
11	21	2
36	37	1
107	122	1
80	88	1
76	76	2
26	27	1
78	79	1
26	26	1
112	112	1
87	117	3
2	9	2
23	25	1
4	4	1
74	76	1
132	133	1
20	20	2
108	111	1
105	105	1
78	92	2
101	104	1
124	126	1
4	5	1
19	19	1
10	11	1
