12	12	16
23	27	1
77	77	9
22	27	3
3	3	11
1	1	11
60	60	14
24	24	12
51	52	13
72	72	10
9	10	2
73	86	2
81	81	12
10	11	2
79	79	13
80	80	15
71	71	14
53	58	3
63	64	6
47	47	8
81	83	2
19	19	25
68	68	12
76	84	3
5	6	6
47	48	6
17	17	7
52	53	3
49	59	2
57	57	27
59	61	1
3	4	1
54	54	13
84	84	12
75	76	2
31	31	12
66	66	9
2	2	9
20	20	8
78	78	11
89	89	7
55	55	16
9	9	8
64	65	6
88	88	6
87	87	22
67	68	1
18	18	5
74	74	12
23	23	10
48	48	9
65	65	4
46	48	4
75	75	11
7	7	13
11	11	14
60	66	2
25	25	10
66	67	2
50	50	11
85	85	6
58	58	6
59	65	4
28	28	6
51	51	23
67	67	16
78	80	2
59	59	8
30	31	2
68	81	3
67	80	2
26	26	14
22	56	1
4	4	8
78	79	5
74	76	2
86	86	6
46	54	2
12	13	4
10	10	11
24	25	3
27	27	6
62	65	2
78	82	5
63	65	4
21	21	4
53	55	3
6	12	3
72	81	2
22	22	4
49	51	2
50	79	1
15	16	4
49	49	2
30	30	8
8	8	5
6	7	4
6	6	7
4	28	1
23	24	2
61	61	6
64	66	1
78	81	3
62	63	1
12	17	2
68	69	4
81	86	1
77	80	1
60	61	6
51	79	4
89	90	1
4	5	2
63	63	7
52	59	2
80	83	2
79	80	4
73	73	5
56	57	2
20	22	5
76	76	8
5	5	7
52	52	8
51	77	2
6	10	4
49	64	3
34	34	4
81	84	2
29	29	1
51	63	4
26	27	3
1	2	1
17	25	5
83	83	8
56	56	4
80	85	2
65	66	1
70	70	3
68	87	1
64	64	6
7	8	8
49	63	2
6	8	2
13	14	1
13	13	12
7	9	4
85	86	4
47	53	1
88	89	4
82	82	7
63	79	1
49	50	4
58	60	3
50	80	1
73	78	1
16	16	1
78	87	1
5	11	2
53	53	1
20	21	4
64	82	3
22	23	6
57	58	1
19	20	3
21	22	2
69	69	4
61	87	2
59	60	1
53	57	2
15	21	3
15	15	3
46	47	1
31	34	3
51	53	1
34	66	2
49	80	2
16	17	1
62	62	7
48	62	2
32	66	1
8	11	2
48	68	2
13	17	4
76	80	2
46	46	2
86	87	3
34	47	1
59	66	2
23	56	1
48	56	1
48	49	3
14	14	1
5	7	4
74	75	1
72	73	4
46	53	1
76	77	1
77	83	1
48	60	1
66	79	3
54	59	1
66	87	1
12	26	1
6	13	3
48	65	1
22	24	1
18	26	1
54	58	1
77	82	2
49	52	2
50	51	1
76	79	1
0	0	2
34	35	1
0	1	2
84	85	1
0	4	1
19	21	1
22	31	1
69	70	1
25	29	1
70	72	1
50	56	1
46	55	1
8	9	1
58	63	2
69	81	1
32	82	1
31	60	1
25	26	1
77	78	1
32	33	1
47	62	1
33	46	1
60	65	1
9	12	1
