113	113	7
77	77	9
30	30	1
131	131	10
5	5	14
129	129	20
110	110	7
96	97	4
121	121	10
114	114	11
4	86	1
132	132	18
107	107	12
83	83	4
85	86	3
135	135	9
34	34	7
131	136	1
73	73	15
94	109	1
18	18	3
108	109	8
111	111	11
108	108	6
79	79	4
137	137	11
5	7	10
91	95	7
119	122	2
71	83	3
116	123	2
124	124	17
76	76	7
86	86	12
103	103	5
140	140	11
117	118	13
98	99	2
100	101	1
133	133	9
94	95	2
3	3	5
122	123	2
19	19	5
21	22	3
33	120	1
17	17	6
14	14	4
120	120	3
75	75	17
91	91	16
99	100	3
17	18	4
107	108	7
14	15	2
122	122	14
136	138	1
104	107	2
89	89	10
20	20	8
28	33	1
81	95	4
133	134	4
127	135	2
116	116	9
134	134	11
88	90	3
137	138	9
116	117	2
128	129	3
129	130	5
33	33	5
27	27	5
26	26	2
127	127	10
125	125	15
123	124	5
101	101	3
3	4	10
130	130	14
124	125	4
82	82	7
9	9	1
12	12	12
36	36	7
114	115	5
87	87	8
21	21	9
127	128	5
81	82	7
75	77	1
138	138	9
89	90	4
102	102	6
7	7	8
90	90	12
134	135	4
81	85	4
10	10	5
109	109	8
99	123	2
97	99	1
76	77	6
6	6	3
71	71	11
88	88	8
101	102	1
112	112	3
119	120	3
72	73	2
7	8	2
132	133	1
35	35	3
16	16	4
32	33	2
136	136	2
12	13	1
94	94	8
24	24	1
74	75	3
119	119	13
123	123	13
14	31	3
115	115	6
131	137	1
126	127	8
121	123	1
32	32	3
92	92	2
105	107	1
98	98	3
107	110	5
74	74	9
78	101	2
95	95	4
79	81	1
19	20	2
15	38	1
31	31	4
37	37	4
0	0	6
88	89	1
125	126	2
86	87	3
22	22	6
2	2	1
88	91	1
135	136	1
13	14	8
97	97	7
109	110	4
139	139	6
71	72	1
114	123	2
93	94	2
85	85	4
75	76	2
118	118	7
81	84	1
80	80	4
73	92	1
136	140	6
120	123	2
30	31	1
96	96	7
104	104	2
126	126	6
128	131	2
108	111	3
20	21	3
110	123	4
72	72	2
128	128	8
118	127	1
4	94	1
33	36	2
93	93	3
90	95	1
84	84	3
113	114	4
74	89	1
4	4	6
36	37	2
97	98	6
28	29	2
8	8	2
110	111	3
104	105	5
89	95	2
71	75	2
19	22	1
131	132	1
7	13	1
136	137	4
104	112	3
102	105	2
4	92	2
77	94	2
35	36	1
34	35	1
84	86	2
105	106	2
99	99	2
105	105	1
87	88	2
2	4	1
136	139	1
133	135	1
94	102	1
117	117	2
4	5	1
3	11	1
111	112	2
106	106	1
120	121	2
6	9	2
121	122	1
80	81	1
2	114	1
66	68	1
29	29	1
106	111	1
112	113	3
17	32	1
106	107	4
7	80	1
77	78	2
72	132	1
90	91	2
22	26	1
130	131	1
2	6	1
75	93	1
127	134	1
13	13	1
38	125	1
118	119	1
23	24	1
24	25	1
84	85	1
74	118	1
100	123	1
108	110	1
128	132	1
23	23	1
