44	46	4
42	43	9
113	113	11
86	87	1
57	57	14
89	89	8
57	58	4
59	59	5
22	23	13
64	64	14
20	20	23
29	29	16
63	63	10
123	123	18
7	7	8
112	120	3
24	62	3
8	8	13
108	108	14
115	116	18
10	10	22
50	50	16
53	53	12
49	49	23
33	33	3
79	79	18
92	92	10
90	90	6
97	97	13
43	43	10
109	109	12
31	31	9
85	85	17
54	54	9
103	103	13
51	51	22
11	11	14
70	71	6
83	86	1
126	127	2
70	70	16
111	111	16
124	124	8
19	20	4
98	100	4
76	76	24
106	106	30
48	48	16
83	102	4
23	24	10
34	62	4
58	58	8
16	16	16
85	86	14
91	91	2
64	69	5
5	58	1
110	110	13
113	117	1
41	41	8
58	63	2
27	58	4
62	62	11
2	67	2
30	30	12
15	15	9
32	39	4
50	53	3
46	46	14
82	82	11
125	132	3
27	27	10
116	128	3
3	46	1
71	71	12
56	56	37
28	32	6
38	38	7
114	114	23
3	3	10
84	84	10
90	91	11
69	69	9
21	22	7
75	75	10
94	94	13
56	57	7
40	40	19
51	52	4
95	95	22
41	42	14
96	96	6
80	80	9
38	39	6
127	127	15
25	45	1
82	96	2
15	16	2
42	42	8
66	66	10
20	21	2
116	116	9
120	120	14
25	89	1
78	79	12
6	6	11
44	44	8
5	6	3
45	46	6
127	128	8
27	28	1
58	79	2
22	22	9
77	78	2
43	44	6
65	65	9
90	113	2
122	122	10
17	17	2
81	81	7
110	118	1
131	131	10
102	103	1
47	87	3
18	18	10
98	98	4
89	90	9
47	88	1
120	121	4
47	65	4
73	73	3
60	60	3
30	31	6
115	115	9
129	129	14
47	48	7
68	68	5
81	85	1
17	18	2
21	21	9
89	117	3
13	14	2
126	126	3
118	132	2
1	5	2
118	119	8
77	77	4
52	52	11
128	129	4
100	100	5
125	131	6
53	56	2
119	127	1
2	2	16
104	104	12
29	30	6
105	105	14
32	32	7
47	47	9
32	34	2
5	5	8
1	1	10
50	51	3
9	10	4
86	86	13
121	121	4
119	119	8
72	72	6
24	24	8
132	132	4
83	118	1
99	99	12
74	74	3
101	101	12
25	25	5
61	61	7
97	131	5
26	26	7
117	117	3
40	41	5
97	99	4
107	108	4
5	17	2
7	20	3
128	128	9
101	119	3
102	102	4
26	47	2
14	14	9
83	83	11
111	123	4
13	44	1
107	107	10
20	111	3
23	23	5
75	77	3
113	125	1
27	90	1
95	96	2
4	5	1
74	76	1
110	121	1
109	110	8
93	94	3
127	129	4
129	130	10
112	112	14
89	91	4
28	28	9
20	39	2
68	72	2
4	40	3
46	47	2
111	120	1
34	34	2
125	126	3
59	60	1
84	119	5
19	19	4
117	119	2
133	133	2
125	133	4
104	106	3
4	4	6
88	88	15
87	87	7
44	83	4
89	118	4
54	63	3
97	98	3
125	128	2
2	39	6
5	16	1
4	26	2
105	108	3
88	89	1
82	83	9
72	74	3
2	7	1
67	84	3
15	115	2
16	17	3
45	45	2
103	119	3
100	101	1
78	78	4
113	114	2
105	120	1
69	92	2
130	130	13
53	54	5
106	107	2
42	77	1
92	93	4
67	67	10
79	107	1
5	21	4
16	115	2
123	124	1
12	13	2
15	17	4
79	80	2
83	85	4
91	93	3
34	38	2
60	61	3
25	44	4
78	80	4
28	30	2
17	113	5
93	93	6
23	45	6
125	125	4
106	108	3
1	4	1
118	118	5
132	133	1
121	122	2
94	95	2
64	70	3
76	77	3
81	116	2
95	118	2
72	75	2
95	104	1
116	117	2
98	127	5
114	117	6
114	116	2
14	33	1
1	3	1
54	55	1
55	61	1
9	9	4
37	38	1
59	62	4
10	11	4
55	56	3
50	64	1
112	113	1
23	25	3
67	78	1
66	83	2
41	65	2
39	39	4
66	80	2
39	40	3
83	84	3
27	31	1
67	68	2
77	105	2
13	13	4
118	120	1
78	85	1
91	95	2
31	32	2
114	115	1
93	109	2
15	126	1
18	23	1
122	123	1
25	116	5
121	124	1
55	55	3
18	19	3
91	92	2
59	61	3
108	109	2
28	31	2
114	120	1
11	12	3
72	73	1
46	94	3
75	103	3
31	39	1
27	63	3
65	66	1
114	131	1
111	112	3
80	86	2
42	81	1
60	62	1
14	15	1
128	130	1
12	12	4
87	88	1
39	94	1
6	20	1
80	81	2
58	59	1
84	85	1
56	58	1
66	76	1
27	32	1
63	72	1
69	71	1
18	26	1
3	4	3
11	31	3
126	132	1
27	89	1
8	9	1
104	105	1
115	118	1
67	72	1
19	93	1
71	72	3
110	111	1
71	107	1
73	74	1
125	127	1
49	50	2
41	44	1
114	129	1
46	51	1
118	127	1
25	26	1
27	45	1
1	6	1
