50	51	1
15	24	2
56	56	11
29	29	20
34	35	2
50	50	7
11	12	2
74	75	8
21	21	13
8	8	5
61	62	8
71	71	18
68	68	11
22	25	2
63	63	3
53	53	7
58	58	1
55	55	9
67	68	6
68	69	4
22	23	17
62	62	1
48	49	4
42	43	2
2	2	10
53	75	5
9	10	2
5	6	10
32	32	8
70	71	5
49	49	4
10	11	2
37	38	2
48	48	3
34	34	19
7	8	1
39	40	3
74	74	10
22	22	3
24	24	6
54	54	12
45	45	13
61	61	5
0	2	5
26	26	9
43	60	4
44	44	9
30	34	2
55	56	5
1	1	5
29	30	4
60	60	10
6	7	9
66	66	4
36	37	9
64	64	10
19	20	2
58	59	4
19	19	3
28	28	2
69	69	15
5	5	16
8	9	4
51	51	9
11	11	7
58	66	3
31	31	2
75	75	8
56	74	2
56	57	3
7	7	2
30	30	8
40	76	3
72	72	5
57	57	7
61	63	1
7	9	2
58	61	4
23	24	4
41	41	3
46	46	4
67	67	9
10	10	3
3	3	7
1	6	1
36	38	3
6	24	4
59	59	10
35	39	1
40	53	2
41	43	3
45	46	2
31	32	5
20	21	2
73	73	7
56	73	4
62	64	1
30	31	4
31	35	5
46	48	2
4	5	4
31	36	3
13	13	7
41	49	1
1	5	5
65	66	6
23	25	1
65	65	5
70	70	7
9	9	9
57	67	2
62	65	1
42	42	8
32	33	2
36	36	7
77	77	6
61	64	2
58	67	3
72	73	2
35	35	8
50	53	5
3	4	4
25	25	4
59	74	2
6	6	10
59	60	7
24	28	3
52	52	6
31	34	1
36	39	1
0	32	1
33	35	1
23	23	3
31	40	3
47	54	6
41	53	8
18	19	7
40	40	4
47	47	2
7	12	1
33	34	1
27	28	3
60	61	1
75	76	3
2	4	1
73	74	2
13	24	1
42	48	2
43	43	2
49	53	1
38	38	2
49	54	1
20	20	2
12	12	3
54	55	3
34	39	2
26	27	1
14	14	5
18	18	3
6	8	1
74	77	1
25	26	3
44	45	2
8	10	3
53	71	2
26	40	3
51	52	2
44	54	3
4	4	3
42	45	2
41	42	1
66	67	1
37	68	2
52	55	1
37	39	3
37	37	1
27	27	1
36	40	2
30	35	2
0	1	2
5	30	1
2	3	1
38	39	1
3	9	2
53	59	1
32	34	1
49	50	1
39	68	2
57	58	2
1	2	2
11	20	1
73	76	1
70	72	1
41	50	1
37	50	1
8	14	1
52	77	1
