92	96	5
95	96	13
87	88	4
92	92	18
42	42	4
86	87	8
69	70	10
93	93	7
20	22	2
52	63	3
101	102	3
67	71	2
37	37	19
70	72	5
64	64	3
29	29	2
25	26	1
66	66	6
50	50	12
70	70	12
36	36	4
40	40	6
81	81	1
56	57	5
58	58	12
48	49	5
80	81	5
33	34	4
49	49	10
99	99	11
60	60	14
94	94	2
90	90	11
26	54	3
83	84	3
62	62	18
85	85	17
89	89	8
41	41	8
94	95	2
65	66	2
75	75	23
94	98	2
51	51	14
59	99	5
102	102	4
56	83	5
34	40	2
78	78	13
75	77	3
38	54	6
54	54	6
97	98	7
44	45	8
92	101	1
63	83	3
74	74	14
88	88	5
74	75	1
98	98	11
38	38	7
20	55	2
68	72	2
65	65	18
91	92	10
67	67	22
71	72	6
77	78	1
52	53	2
70	71	5
24	26	5
52	52	11
53	56	2
46	46	6
95	98	3
101	101	8
91	91	8
46	47	2
57	57	5
51	55	1
63	63	5
33	33	8
44	44	7
88	89	3
56	56	10
63	64	4
31	31	8
47	50	3
77	77	11
53	55	3
26	28	5
69	69	7
58	61	2
43	68	2
57	58	8
84	84	2
53	54	6
96	96	4
35	36	5
43	52	2
52	60	1
81	86	2
93	94	6
53	53	5
100	100	11
52	78	1
78	85	3
43	43	7
95	97	3
32	55	1
68	69	4
83	83	6
51	52	1
84	94	1
72	72	3
76	76	17
98	99	1
99	102	1
59	59	8
30	31	1
31	35	1
68	68	5
59	88	2
45	46	2
49	50	9
46	48	2
62	63	1
42	43	2
33	51	1
68	89	1
63	77	4
61	61	11
58	60	5
82	82	2
33	35	3
41	42	6
92	94	4
48	48	6
52	76	3
26	27	2
34	34	2
57	59	1
81	84	1
72	73	4
38	53	2
35	35	2
79	85	2
85	86	4
80	80	3
40	41	2
32	32	2
56	87	1
94	99	1
45	45	4
91	93	1
50	51	5
90	91	3
79	79	6
55	71	1
27	27	5
70	75	1
60	61	3
95	95	3
23	23	2
39	40	2
43	44	5
47	60	1
86	89	1
38	52	1
64	66	3
73	73	3
23	26	2
100	101	4
97	97	3
79	83	1
65	77	1
47	48	3
97	101	1
68	90	1
31	56	2
37	38	2
55	55	7
79	80	2
53	61	2
75	76	1
61	62	2
96	97	2
66	71	2
87	87	1
34	35	2
68	75	1
98	100	2
49	51	1
31	34	1
20	45	1
73	74	2
59	60	1
58	59	1
54	55	1
47	47	1
43	45	1
26	26	1
39	39	1
72	74	2
86	86	2
76	77	2
28	28	1
60	102	1
86	88	1
92	99	1
64	65	1
66	67	1
61	102	1
41	43	1
44	69	1
22	27	1
70	73	1
67	68	1
