73	137	1
52	52	5
169	170	4
39	39	1
11	11	5
6	6	7
137	141	2
88	88	3
148	149	2
21	28	3
19	19	6
67	67	2
101	102	2
42	42	14
14	15	4
64	75	3
137	138	2
27	56	1
23	23	1
133	133	10
11	12	1
125	125	3
34	34	3
72	72	7
57	57	1
38	41	2
36	36	7
146	146	3
49	49	9
139	139	5
2	2	4
38	49	4
24	25	4
100	101	1
127	127	9
6	13	1
162	162	10
67	122	2
156	156	3
7	7	5
54	54	2
47	47	14
149	161	2
53	54	4
67	70	3
84	84	2
26	26	3
0	1	3
113	114	4
75	75	2
43	43	17
9	9	8
109	109	1
44	45	9
6	7	8
26	27	2
46	46	1
104	104	10
47	49	3
71	71	1
163	164	3
135	135	4
166	170	3
91	118	5
145	146	1
134	134	4
17	17	8
65	68	2
24	24	4
8	9	5
107	111	2
3	3	5
38	38	7
67	68	3
107	108	2
159	159	7
82	82	4
120	122	3
74	74	5
98	98	4
90	90	9
49	50	5
91	112	2
16	16	5
0	0	2
9	10	4
62	116	2
14	14	14
101	104	1
7	10	2
92	143	4
73	73	2
8	8	6
44	44	4
4	4	3
25	25	8
123	124	1
150	157	3
7	8	5
170	170	5
21	21	1
102	104	2
150	153	2
66	68	2
16	101	3
123	123	2
169	169	10
129	129	1
55	56	1
121	121	2
4	90	1
84	116	1
122	131	4
158	158	6
122	127	3
87	87	2
45	50	2
52	56	3
40	40	2
15	16	2
56	56	5
153	156	1
54	152	2
125	126	2
50	51	1
76	82	1
22	22	4
114	114	7
91	91	1
157	159	1
95	147	2
78	78	3
141	142	5
149	149	2
52	53	1
155	156	2
12	12	3
76	78	2
116	116	1
28	28	4
168	169	3
138	139	2
93	93	3
48	48	4
55	55	2
125	129	2
98	104	2
63	63	8
157	157	1
6	14	2
108	108	6
53	55	5
120	120	1
111	111	1
147	147	2
167	167	2
1	1	6
80	80	1
3	133	2
157	158	2
96	96	2
128	128	2
33	33	3
66	67	1
93	94	3
47	48	2
79	79	2
153	155	3
101	101	5
128	129	1
103	103	1
35	35	4
39	46	5
132	132	2
77	159	2
8	11	2
62	67	1
13	148	2
97	113	1
65	65	1
3	4	1
144	164	1
109	110	1
37	37	3
88	89	3
107	107	1
92	94	2
124	131	3
138	138	2
166	166	3
89	89	4
151	151	2
141	141	1
145	145	1
6	19	4
34	35	2
110	111	1
90	122	3
104	106	1
118	118	3
168	168	3
100	104	2
95	95	1
94	146	2
53	53	1
123	126	3
69	69	2
126	126	1
91	92	3
124	124	3
98	105	1
51	51	1
21	22	1
17	35	1
161	163	2
134	135	1
148	148	1
105	106	1
3	33	1
142	142	4
13	13	2
150	150	3
121	123	1
121	133	1
83	83	2
62	62	3
68	119	2
17	129	1
20	20	1
165	165	1
143	158	2
93	129	1
41	46	1
58	62	2
43	44	1
121	122	1
41	41	3
13	106	1
72	73	1
102	102	3
140	140	2
124	161	1
50	52	2
77	78	3
22	78	1
39	50	1
118	130	1
91	121	3
37	47	2
85	153	2
36	37	2
14	18	1
15	15	1
89	90	3
92	93	1
119	120	1
45	46	1
114	115	1
135	152	2
115	115	1
122	122	2
15	131	1
50	50	1
114	130	2
160	160	1
105	105	4
161	162	1
85	86	3
74	76	1
33	34	1
35	36	1
119	119	1
137	137	1
18	18	1
10	10	1
5	5	1
4	12	2
110	110	1
100	105	1
140	141	1
68	68	1
148	150	1
52	70	1
14	130	1
164	164	1
50	57	1
