61	61	16
108	109	7
62	62	12
112	112	5
108	108	9
71	78	4
25	79	3
52	52	7
34	35	5
74	74	10
87	89	4
86	86	2
64	70	3
89	89	7
64	71	2
58	58	1
42	43	4
24	25	1
74	78	3
49	50	1
111	111	18
100	100	8
36	36	5
45	45	9
77	83	13
90	90	13
31	31	15
106	106	4
48	49	6
35	36	6
59	60	6
27	27	7
70	71	7
97	104	4
96	96	7
43	43	13
101	101	8
98	98	8
31	41	1
61	96	3
105	106	4
97	98	4
71	72	8
70	70	2
72	72	12
64	93	2
106	109	4
95	95	3
36	37	4
92	92	9
84	84	6
82	84	8
48	48	3
28	75	7
71	71	4
32	80	1
46	46	4
71	75	3
59	61	4
83	84	8
109	109	2
111	112	4
19	100	4
22	24	1
20	79	3
66	66	5
91	91	9
77	84	3
104	107	3
85	85	1
97	97	11
73	73	7
69	69	3
34	34	4
99	99	5
78	79	9
28	28	4
79	79	7
40	79	3
87	87	7
76	77	5
22	22	7
103	103	3
37	58	5
29	29	3
86	87	3
68	68	11
61	104	3
47	47	5
63	65	2
22	78	2
88	88	8
21	77	1
84	85	5
99	101	3
112	113	2
66	67	6
24	24	3
110	110	5
81	81	6
65	82	3
103	107	2
79	81	1
44	45	4
32	41	1
30	92	2
43	45	2
38	80	2
28	36	4
37	37	5
38	38	5
77	77	9
84	101	2
30	30	5
79	80	3
52	53	1
93	94	2
95	106	1
78	78	7
45	96	2
47	51	4
65	65	8
96	105	2
92	94	5
77	101	2
91	102	3
67	68	1
26	81	3
65	69	4
64	66	1
76	85	1
83	88	1
23	23	6
94	94	10
58	59	4
24	40	3
59	59	3
105	107	1
93	93	4
27	28	2
102	102	4
98	99	2
26	27	3
34	70	1
41	41	2
32	34	1
21	21	3
107	109	3
105	105	8
44	51	1
96	97	1
39	40	3
104	104	4
53	54	1
67	67	2
25	25	3
63	93	2
44	47	1
49	49	5
91	101	5
29	74	2
107	107	3
55	55	2
68	69	3
88	89	2
46	105	1
26	35	3
33	34	3
42	44	1
62	69	1
80	81	3
62	63	1
24	80	1
37	38	2
74	75	3
57	57	3
62	101	3
113	114	1
67	95	1
62	66	3
63	66	1
114	114	3
70	82	2
27	36	2
82	83	2
32	78	2
35	70	2
75	94	5
54	54	5
73	98	2
20	24	2
63	110	1
60	60	4
75	103	1
75	75	3
40	40	1
32	74	2
44	52	1
89	90	3
106	107	1
26	26	2
95	99	1
54	101	1
103	106	1
111	113	1
33	38	4
92	95	3
85	88	5
71	76	1
99	100	2
101	103	3
56	56	3
20	20	1
33	70	1
30	70	1
85	86	3
36	72	1
66	68	3
65	94	1
74	77	1
22	76	1
54	55	1
71	94	1
93	95	1
43	44	1
35	37	1
76	76	3
47	48	1
45	105	1
42	92	2
63	63	1
49	57	1
42	80	2
25	28	1
53	57	1
61	105	1
77	82	1
63	70	2
42	42	1
44	46	1
72	74	1
53	59	1
21	22	1
32	40	1
107	110	1
32	32	1
65	67	2
35	35	1
50	50	2
95	104	1
54	56	1
54	60	1
32	35	1
80	80	1
67	74	1
83	104	1
57	58	1
71	74	1
28	74	1
22	23	1
62	65	1
25	26	1
