118	118	2
32	32	2
100	128	2
96	126	2
20	21	4
82	82	2
126	127	9
82	83	6
12	12	5
127	128	3
71	71	5
124	124	8
101	102	3
137	137	13
124	127	2
15	18	1
133	133	10
138	138	21
30	32	3
15	28	2
126	126	4
140	140	18
129	129	13
105	126	2
77	77	7
108	115	5
9	11	4
19	19	3
102	103	1
33	33	6
104	106	3
8	8	4
5	20	1
30	31	5
9	12	1
0	1	9
109	120	2
81	82	5
2	2	4
72	72	6
130	130	20
136	136	11
114	114	10
83	83	6
23	26	2
128	128	15
10	26	1
78	121	2
120	120	16
93	93	7
134	134	13
108	109	1
84	84	2
129	130	5
71	126	1
6	20	2
18	18	20
118	119	3
111	112	5
101	127	2
118	134	3
84	85	3
131	131	6
13	14	9
89	89	3
97	97	9
97	98	4
23	23	4
19	21	6
79	80	3
37	37	7
28	33	2
87	87	9
108	108	2
121	121	10
20	20	2
109	109	3
11	11	2
137	138	3
111	111	1
22	22	7
85	85	11
101	103	2
117	117	8
0	2	4
73	76	1
129	134	3
81	83	1
31	31	7
116	116	7
29	31	6
105	105	2
22	24	3
23	24	8
8	9	3
6	17	1
100	100	2
95	95	10
25	26	4
22	23	1
10	12	3
105	106	3
5	5	4
38	38	6
4	5	5
79	128	5
2	4	5
4	4	12
76	116	6
32	36	2
29	30	6
107	107	2
7	22	6
136	139	6
135	136	3
88	88	6
19	20	1
123	123	7
104	104	3
73	104	5
86	97	1
101	128	3
8	23	1
121	122	5
92	94	2
75	124	1
104	109	6
0	5	1
7	7	14
123	124	5
79	79	3
21	21	3
28	28	3
103	123	4
105	116	3
139	139	7
34	35	5
26	26	2
68	68	3
125	125	5
79	115	1
109	115	1
78	78	3
10	13	3
74	74	9
93	94	5
110	110	6
92	92	6
117	136	1
98	98	14
82	85	4
6	18	3
88	96	2
115	115	1
9	23	3
13	13	5
104	119	3
80	80	13
89	96	3
96	97	3
1	1	1
135	135	6
137	140	3
5	15	2
22	27	6
34	34	4
74	75	2
125	126	1
37	38	1
127	127	7
105	108	2
94	107	2
25	31	7
99	99	4
122	122	10
35	35	5
9	9	2
121	128	3
83	84	2
10	10	3
100	129	2
137	139	3
27	27	11
97	128	2
103	104	1
136	137	4
6	6	2
86	86	4
132	132	8
75	80	1
86	87	2
16	16	3
103	103	5
119	122	2
8	27	1
98	99	2
77	123	1
81	81	3
74	98	1
72	73	3
107	115	2
72	139	3
26	27	2
120	122	3
107	108	3
109	125	2
24	29	3
7	9	2
22	29	3
97	130	1
119	119	3
104	121	1
106	106	1
109	112	1
101	120	4
24	26	3
79	121	1
109	111	2
76	76	1
12	22	3
110	114	1
90	90	2
104	108	1
106	107	2
96	110	1
112	130	2
78	116	1
124	125	1
9	24	1
29	32	2
3	3	1
73	75	1
16	27	1
36	36	1
118	123	1
107	111	1
103	112	5
102	102	2
10	27	1
127	137	1
101	122	1
110	127	1
2	20	1
94	94	2
80	129	1
83	85	1
77	78	1
75	77	3
115	116	1
25	25	1
35	36	1
101	129	1
18	22	1
109	126	1
117	121	2
36	37	1
74	79	1
2	3	1
112	112	1
131	132	2
75	129	1
27	30	1
114	115	2
129	135	2
101	101	1
0	0	1
104	105	2
73	77	1
116	122	2
16	17	1
1	3	1
85	86	3
96	111	1
1	9	1
90	107	1
76	77	1
23	29	1
97	99	1
80	102	1
73	79	2
9	21	1
7	23	1
7	8	1
23	31	2
16	18	1
101	125	1
73	112	1
89	90	1
107	128	1
