41	42	5
81	93	5
48	48	6
52	52	23
85	85	14
92	92	21
78	78	16
71	72	6
77	82	3
86	86	20
76	77	7
83	83	17
28	29	4
23	23	5
22	24	2
31	32	2
67	67	18
99	99	25
70	70	11
42	44	2
87	88	16
83	85	1
63	63	15
39	39	8
51	51	17
51	67	3
64	64	16
91	91	24
66	67	7
44	44	2
37	38	4
38	39	2
69	70	4
25	25	9
81	83	6
41	41	16
68	68	15
92	100	1
60	60	12
37	37	8
69	69	19
77	77	17
42	42	11
84	98	3
74	75	6
59	59	17
51	53	3
74	74	23
97	97	13
58	58	7
26	26	6
48	49	11
50	51	7
73	74	6
62	62	19
81	81	23
92	93	1
93	99	1
72	72	16
35	35	9
93	93	7
43	44	2
57	57	10
79	79	31
60	61	4
49	49	17
98	98	13
26	27	1
48	50	4
58	80	1
84	84	9
73	73	12
100	101	2
94	94	21
68	69	6
71	71	17
46	46	17
46	61	4
29	29	14
44	45	8
88	88	14
101	101	19
90	90	26
66	66	3
93	98	1
75	75	16
55	56	3
65	65	5
31	31	5
77	90	2
77	78	6
41	66	1
34	34	6
20	22	4
51	52	7
90	91	8
95	95	10
73	100	1
80	101	6
81	92	1
93	101	1
70	71	3
92	94	3
86	87	2
43	43	7
34	36	2
56	56	6
49	50	6
47	47	5
40	40	14
80	80	17
38	38	13
61	79	2
31	73	1
85	86	11
58	59	4
91	92	5
80	81	1
32	32	7
33	33	4
45	46	5
29	33	2
35	37	5
87	87	3
42	75	1
47	48	4
61	61	13
45	45	15
96	97	4
100	100	12
53	53	3
50	50	7
89	89	14
95	96	2
100	102	7
40	41	1
57	58	4
94	96	1
98	99	1
64	65	4
99	100	4
99	101	1
36	36	4
35	36	3
34	35	4
25	28	2
70	74	1
49	51	3
83	98	2
61	73	1
76	76	14
83	84	4
75	76	7
95	97	2
86	88	2
92	99	1
96	96	1
80	92	2
65	68	2
24	32	3
53	54	3
64	72	2
67	68	8
48	51	1
20	26	3
54	54	5
71	73	4
20	20	1
46	47	5
54	55	2
52	55	5
79	80	1
36	38	3
22	31	2
72	73	3
56	57	2
38	40	1
76	91	2
81	82	2
55	55	7
80	100	2
67	70	1
84	89	1
46	48	1
86	91	2
80	97	1
84	86	1
27	27	1
51	69	1
82	94	1
23	25	1
88	89	2
60	62	3
82	82	2
94	95	5
102	102	1
68	70	3
76	82	1
42	66	1
36	37	1
97	98	1
93	94	1
87	89	4
61	62	2
94	98	2
50	67	1
62	63	1
90	92	2
89	90	2
77	89	1
101	102	1
53	55	1
85	89	3
65	67	1
80	98	1
69	72	2
42	43	1
29	30	1
81	96	1
30	30	1
70	72	1
79	81	1
