75	104	3
115	118	7
19	19	8
126	127	3
119	120	8
27	27	10
79	114	3
101	101	4
50	50	9
3	3	8
115	115	6
118	119	6
28	29	6
65	65	6
92	92	12
20	20	3
9	23	6
84	84	14
133	134	4
119	119	15
94	98	2
108	110	3
124	124	8
50	59	3
130	130	11
31	31	5
7	8	7
79	79	11
123	123	9
78	78	13
115	117	7
108	109	7
91	112	4
74	75	1
58	58	11
110	111	3
91	91	11
54	54	9
114	115	6
80	108	3
60	60	12
94	94	8
133	133	5
16	17	4
48	48	4
22	22	5
87	87	16
17	17	11
122	122	10
63	63	32
58	59	2
105	105	15
70	70	11
77	78	8
16	16	10
77	80	8
62	67	5
43	43	5
0	0	7
65	66	7
90	91	4
3	4	5
132	132	8
35	35	5
117	118	9
26	26	3
91	94	4
117	117	14
128	128	7
72	94	2
78	79	4
76	76	17
36	36	9
22	23	6
107	108	3
73	73	7
64	65	8
56	56	9
18	19	1
6	6	10
80	111	2
67	67	12
95	96	6
13	14	1
14	14	8
106	106	8
4	4	10
9	17	2
92	97	5
81	128	4
60	97	3
66	118	5
131	131	11
106	115	3
103	103	13
58	77	2
80	83	3
11	11	3
57	57	11
120	120	10
68	68	9
113	114	3
130	131	4
18	20	2
86	86	6
85	86	1
118	118	19
37	50	5
64	64	11
55	86	2
32	33	3
16	79	1
102	103	6
66	67	3
5	5	12
88	100	2
69	69	15
130	133	7
83	83	13
72	72	5
52	52	4
54	55	5
15	85	1
49	50	13
32	35	1
47	48	1
127	128	4
72	73	6
38	38	4
85	87	2
80	80	8
99	99	9
117	122	4
55	56	6
113	113	8
63	65	5
84	92	1
77	77	13
71	71	20
91	97	2
96	96	6
118	122	1
24	89	1
44	45	4
74	95	1
70	114	1
127	127	6
36	52	1
106	107	8
122	123	3
82	83	7
66	66	12
7	24	2
2	2	4
36	37	3
121	121	9
42	44	6
78	110	1
95	95	6
76	121	2
55	55	11
81	81	11
128	129	4
4	5	4
32	32	13
83	92	2
44	44	6
82	110	4
85	88	2
59	98	3
10	10	12
65	79	1
98	98	12
79	80	1
30	31	4
1	1	3
37	38	4
112	112	8
106	114	3
134	134	3
30	30	4
72	74	1
8	8	8
61	70	1
6	7	3
19	21	1
107	125	2
52	65	1
58	86	1
108	108	7
118	120	2
102	102	6
9	9	2
98	109	7
67	69	1
107	107	6
10	16	4
13	13	7
63	64	1
75	101	6
33	33	5
104	104	4
23	24	7
45	45	7
90	90	9
86	87	7
100	100	8
27	126	1
83	84	1
50	113	3
21	21	5
122	124	3
125	126	4
126	126	5
113	118	4
62	112	2
69	98	3
55	57	3
43	49	1
18	18	10
31	32	3
23	23	3
91	92	4
23	129	3
95	124	1
75	75	7
57	107	2
67	97	1
69	70	2
113	122	3
29	33	1
102	128	2
62	63	3
47	51	2
111	111	6
131	132	1
130	132	3
60	91	3
78	108	5
119	124	1
12	12	4
116	116	3
12	13	2
98	110	3
53	53	6
11	87	2
18	68	2
75	112	1
110	110	8
25	25	5
29	34	3
93	94	1
29	29	5
7	7	4
125	125	3
55	106	2
59	79	4
59	60	4
1	2	3
62	62	8
66	68	1
93	126	2
61	62	8
78	109	3
63	88	1
57	77	2
82	82	14
128	130	2
129	129	14
56	58	4
107	112	3
2	3	2
88	101	4
0	1	2
56	78	1
62	64	2
70	71	2
89	89	2
26	27	3
13	15	3
92	95	1
34	34	4
109	109	1
93	93	2
14	15	3
55	107	1
102	104	3
35	36	4
71	93	3
97	98	2
85	85	7
106	109	1
47	49	1
127	129	1
121	129	5
30	35	2
103	104	2
60	61	2
103	120	1
44	48	1
65	67	2
48	49	1
79	81	3
86	123	2
82	84	4
106	110	1
24	25	2
123	124	2
25	53	2
49	49	3
114	114	4
125	129	1
52	54	2
105	107	3
120	121	1
6	9	1
75	76	1
9	87	3
2	53	1
84	85	10
121	122	1
97	97	10
21	24	2
85	100	1
88	88	1
56	59	2
128	132	1
89	90	4
68	77	3
124	129	1
135	135	1
46	46	2
9	10	2
101	102	1
88	99	4
102	133	1
61	61	6
118	123	3
126	132	2
122	125	1
13	122	1
23	25	3
77	107	3
91	96	2
43	45	1
66	114	1
73	115	3
10	86	1
80	81	1
109	111	3
76	77	1
81	83	1
85	132	1
18	69	1
69	116	2
33	34	2
7	50	1
16	86	1
19	20	2
20	25	1
82	85	1
101	103	1
65	68	3
56	107	1
70	72	1
106	119	2
68	82	1
27	90	1
68	117	2
62	113	3
21	88	1
20	124	2
113	115	1
31	33	1
90	93	1
59	59	2
45	50	2
26	123	2
25	26	1
74	74	2
88	102	2
24	129	1
52	53	3
76	129	1
47	47	2
20	26	1
20	24	1
94	103	2
116	118	1
70	93	2
92	93	1
73	74	2
110	115	1
33	35	1
56	109	1
89	94	1
109	112	1
65	99	2
66	69	1
77	108	1
29	30	3
43	44	1
8	9	1
107	119	1
92	94	1
86	88	1
85	131	1
81	82	1
98	124	2
116	117	1
57	86	1
61	107	1
89	121	1
121	123	1
