49	49	10
51	51	19
85	87	1
113	118	1
117	118	6
39	39	9
2	2	5
26	26	7
79	130	2
81	81	12
9	9	11
110	110	12
56	56	17
130	130	10
0	0	5
70	70	3
108	108	18
53	53	18
73	83	1
29	29	10
25	25	8
3	91	2
115	115	11
52	52	10
96	100	4
99	100	5
102	102	8
78	102	1
79	80	1
55	55	5
90	90	10
58	58	9
31	31	3
4	5	4
6	13	2
19	21	2
98	99	5
76	76	13
8	9	7
131	131	11
70	88	4
74	74	7
114	114	12
85	86	3
17	23	4
11	12	3
20	94	1
58	130	2
114	119	7
123	123	11
118	120	2
41	41	10
66	66	6
68	68	5
13	13	7
62	62	4
94	94	14
73	74	2
18	30	3
7	16	1
41	42	9
82	82	5
101	101	5
95	96	3
46	131	1
57	124	1
126	128	5
89	89	11
90	91	11
21	21	9
118	118	13
3	4	4
63	63	5
110	111	2
54	56	2
16	23	3
108	115	2
15	15	13
6	6	12
112	112	14
23	23	8
55	68	1
31	32	6
38	41	4
97	97	6
126	126	4
65	67	2
50	51	4
34	37	1
49	66	3
2	4	2
108	120	3
113	113	5
64	66	5
55	56	2
103	103	9
53	54	1
72	73	3
92	93	3
100	102	2
55	60	2
8	8	5
113	120	3
27	28	2
113	114	6
124	125	4
80	81	4
18	18	9
5	5	10
19	41	1
2	14	2
114	116	2
11	47	1
91	91	6
10	11	4
82	84	5
121	121	19
65	65	8
84	87	1
62	63	6
104	126	1
34	43	2
109	109	12
12	12	6
42	43	5
117	119	5
128	128	16
46	46	9
98	100	4
122	123	2
79	81	3
81	91	3
50	50	4
132	133	3
71	71	5
19	19	9
42	42	17
122	122	15
42	45	1
19	24	2
28	28	16
47	48	1
27	27	3
1	1	7
54	54	4
83	84	5
43	45	5
47	47	16
58	59	5
43	44	1
43	43	11
0	10	11
24	26	2
88	88	9
83	83	6
45	45	10
72	75	2
67	68	5
103	117	1
132	132	5
59	59	13
31	34	1
51	53	3
91	92	8
126	129	2
93	94	1
44	44	12
56	57	3
99	101	6
26	27	1
19	22	1
52	133	2
96	96	6
51	71	1
73	78	1
120	122	1
73	75	2
75	76	2
33	34	1
123	124	4
119	119	14
13	14	2
33	40	2
21	43	1
106	120	3
77	78	2
45	59	1
100	100	6
127	127	12
30	30	7
60	125	3
78	124	2
65	77	2
129	129	5
111	111	2
74	75	2
67	67	8
14	67	2
64	125	1
82	83	1
69	69	9
130	131	7
0	28	2
72	77	4
88	104	1
87	87	8
20	20	3
10	10	6
9	69	2
84	85	1
120	120	6
18	19	1
64	64	10
85	85	4
129	130	3
80	80	6
116	116	8
63	65	2
40	41	8
12	13	4
29	31	1
42	54	2
1	13	1
89	90	2
8	13	1
99	99	10
5	15	2
23	30	2
95	98	2
95	95	7
50	128	1
102	124	2
74	93	2
107	107	8
79	99	1
125	125	8
97	98	5
100	125	3
108	119	2
92	92	6
18	40	2
98	98	9
57	57	3
86	86	9
48	48	13
7	68	1
3	3	5
16	18	3
128	130	1
51	52	4
108	118	2
61	131	1
38	39	2
86	87	7
50	133	3
75	84	3
115	125	2
79	79	2
126	127	1
100	103	1
94	95	1
78	79	6
53	68	2
23	34	2
90	92	2
14	14	8
22	23	1
76	100	1
109	110	4
60	60	5
4	4	4
84	84	5
82	87	2
61	61	4
56	79	1
65	66	2
76	125	2
14	15	8
105	105	6
56	109	1
104	127	1
17	24	1
61	74	1
22	22	4
133	133	3
44	86	2
76	82	5
112	114	2
63	118	2
116	117	5
60	61	3
32	34	2
5	25	1
38	38	3
64	69	1
11	11	2
107	112	2
109	125	1
73	73	6
83	85	1
9	10	6
60	62	1
75	77	1
24	25	2
72	103	1
113	125	2
40	40	9
57	89	1
40	45	4
7	7	5
116	126	1
2	15	2
16	17	4
18	22	1
44	45	6
72	74	4
120	124	1
74	83	1
72	72	8
0	102	1
18	42	4
104	113	1
106	106	5
46	54	2
26	29	1
120	121	1
108	111	1
15	24	3
46	47	1
26	30	2
104	125	3
88	89	2
78	103	3
39	41	5
15	22	1
48	89	2
95	100	1
75	75	6
114	125	1
71	91	2
50	80	1
94	105	2
68	91	2
114	120	2
100	127	1
114	127	1
41	43	3
71	74	1
19	20	2
6	7	2
52	53	1
109	113	3
51	66	2
127	129	6
123	125	1
4	19	1
78	130	1
129	131	2
124	124	5
17	18	1
40	44	1
50	79	1
112	125	2
26	61	2
76	77	2
120	132	1
85	88	1
29	32	1
74	99	1
49	69	1
102	107	1
17	17	3
107	108	1
28	29	1
83	90	1
21	24	2
4	33	1
3	27	1
26	33	1
21	22	3
40	42	2
47	131	1
86	105	1
58	80	1
71	99	1
53	64	1
4	94	1
115	118	2
112	113	1
59	61	1
83	91	1
56	67	1
16	24	3
50	64	2
77	77	1
84	98	1
115	116	3
62	118	2
22	29	2
97	99	3
117	117	4
46	80	2
104	106	2
102	104	1
71	103	1
33	39	1
23	33	1
22	24	1
39	40	2
81	82	2
114	129	1
107	113	1
78	80	2
64	76	1
16	16	2
79	97	1
64	65	1
114	126	1
78	126	1
7	12	1
102	109	1
29	30	2
63	93	1
24	24	1
26	31	1
114	128	1
45	132	1
101	103	2
114	115	1
78	81	1
117	120	1
6	20	3
116	130	1
88	100	1
77	81	1
121	122	2
105	106	1
81	84	1
61	62	2
9	12	2
45	46	1
4	6	1
96	98	1
100	101	1
73	106	1
96	97	1
103	127	1
79	124	1
107	109	1
34	34	1
0	1	1
28	60	1
38	40	1
7	13	1
57	107	1
105	107	1
17	25	1
75	83	1
