125	131	4
22	22	2
56	56	4
84	87	3
85	85	8
50	95	2
97	98	2
84	84	6
126	127	4
57	57	7
86	92	5
63	63	1
72	72	6
45	45	4
4	39	2
27	30	1
104	106	1
61	62	1
7	8	4
96	98	1
26	26	8
91	92	2
69	69	4
95	95	10
30	30	10
67	67	2
89	97	2
103	103	4
28	79	5
13	13	7
34	35	1
113	116	3
11	11	8
32	32	5
35	35	8
65	65	12
31	32	3
97	97	7
7	7	2
43	44	4
5	5	4
98	98	2
19	19	8
10	10	8
89	91	5
6	95	2
79	80	3
46	46	5
90	91	3
132	132	6
8	8	8
107	107	14
4	83	1
60	60	5
86	86	3
20	22	5
122	122	4
119	119	2
77	77	1
17	17	3
34	34	5
78	78	6
5	83	3
17	19	1
11	96	4
74	74	9
67	68	2
59	59	3
92	92	2
108	108	2
106	106	1
118	118	10
75	75	4
100	100	6
104	104	8
45	75	2
102	102	5
43	43	5
20	20	12
57	58	6
123	130	1
88	88	6
27	97	1
128	128	3
103	112	1
15	16	4
60	74	1
109	109	1
47	47	14
66	66	6
59	93	4
25	25	5
79	79	8
30	82	4
20	62	2
31	31	5
44	44	8
3	3	5
82	84	1
73	73	6
93	94	8
59	60	4
40	81	2
4	95	1
48	48	2
25	26	1
70	71	2
48	85	1
3	47	2
96	106	2
84	97	2
95	98	1
110	110	2
83	83	5
18	18	6
97	99	3
92	102	2
117	117	8
64	64	3
35	100	2
120	120	4
73	85	2
126	126	3
75	102	1
90	90	4
68	68	3
36	36	3
133	133	4
87	87	1
63	131	2
71	71	2
12	12	4
79	81	2
4	31	1
16	16	1
123	124	2
78	79	1
37	37	3
106	115	2
62	62	3
75	85	1
74	75	1
128	130	4
45	48	3
61	61	6
20	21	2
24	25	4
127	133	1
15	19	4
113	133	2
39	39	3
101	102	2
32	79	1
90	94	1
29	29	4
33	33	2
93	103	1
9	9	3
3	65	3
101	101	5
118	119	1
127	132	1
29	30	1
95	96	1
6	14	2
130	130	2
94	95	2
27	55	1
99	99	2
25	47	1
3	48	1
85	86	1
104	105	3
114	115	1
35	74	2
39	40	3
124	125	1
40	40	1
99	124	2
4	35	2
80	80	3
113	114	1
77	85	1
42	42	2
104	108	1
14	14	1
111	111	1
105	105	3
11	48	1
92	93	2
96	97	2
60	77	1
6	6	1
107	112	3
25	58	1
4	4	1
60	117	1
28	28	1
32	93	1
99	100	2
18	36	1
110	117	1
7	19	1
55	55	1
28	29	1
22	35	3
41	67	2
1	1	1
6	13	1
131	131	2
4	7	1
44	74	1
119	120	2
111	131	1
33	34	1
23	74	1
2	61	1
102	105	2
58	59	1
30	60	1
113	113	1
112	112	1
32	33	2
106	107	4
45	61	1
25	27	1
40	41	2
81	81	2
32	76	1
36	40	1
90	96	2
132	133	1
26	27	1
84	85	1
32	80	1
93	97	1
121	121	1
94	99	1
50	90	1
60	79	1
49	57	1
23	26	1
6	9	1
93	93	2
10	11	1
15	15	1
