105	105	8
121	121	9
67	67	3
134	139	7
85	85	8
44	46	1
99	99	5
135	135	2
127	128	2
147	147	13
105	106	7
154	155	11
13	13	10
169	175	2
164	164	8
125	126	6
164	176	1
53	81	2
6	6	14
100	122	2
15	18	3
101	101	5
28	28	4
38	48	5
34	35	1
95	95	8
42	42	4
55	56	2
183	183	4
139	139	6
157	157	11
57	103	5
161	161	12
31	31	15
104	104	9
2	2	8
115	141	2
58	105	2
75	137	2
114	120	2
37	37	8
175	177	2
5	5	10
56	56	10
168	168	7
120	123	3
23	25	3
34	34	4
94	94	6
143	143	14
185	185	3
107	107	10
141	146	3
104	115	2
144	144	3
15	16	6
24	24	10
30	30	6
22	22	9
108	141	3
70	71	8
112	149	4
43	44	11
93	93	8
20	20	6
151	151	14
61	61	9
80	134	2
156	156	17
99	100	11
131	131	3
95	132	3
150	150	12
111	111	9
116	117	10
110	110	8
17	17	16
92	93	2
47	48	5
60	62	8
98	130	8
88	89	9
60	70	3
0	8	2
34	77	4
33	33	5
79	79	7
13	32	2
38	38	10
3	26	3
89	129	2
153	153	8
77	86	3
33	34	9
87	87	7
96	103	3
157	168	5
13	29	1
39	40	2
78	79	3
41	41	4
110	111	3
91	95	3
62	62	14
120	120	6
89	89	4
172	173	3
43	43	8
115	115	5
3	3	13
97	98	2
77	77	11
97	105	1
182	184	3
94	95	2
32	32	11
100	111	3
95	145	2
98	98	3
108	108	22
149	149	11
157	158	1
47	47	20
44	44	4
22	24	4
72	79	3
0	30	6
3	4	3
83	83	14
72	72	15
25	138	2
135	139	1
190	190	4
97	109	3
105	146	1
118	121	1
81	82	4
146	146	3
165	165	15
43	71	2
102	102	6
10	10	13
73	74	2
171	172	7
137	137	5
188	188	6
5	12	7
7	25	4
124	125	5
71	76	4
82	86	5
38	84	4
90	128	5
106	135	3
7	41	3
154	154	17
14	14	7
61	63	2
45	45	6
62	64	4
140	140	6
17	57	2
12	12	15
123	123	8
59	63	3
160	160	8
45	46	4
7	8	5
84	84	5
173	173	4
58	69	2
169	169	6
11	12	4
78	78	5
138	138	13
117	121	2
155	156	20
60	60	5
80	83	4
59	104	3
81	81	10
126	128	2
42	70	5
91	91	5
115	122	8
16	16	7
12	13	3
73	73	5
66	66	2
119	119	3
97	123	5
149	150	4
169	170	4
4	4	3
102	109	1
163	165	4
54	55	6
36	36	5
100	112	3
44	60	4
42	60	4
157	161	9
127	127	15
5	27	1
159	159	2
95	129	5
43	60	2
113	113	9
70	101	3
35	35	19
76	77	2
75	76	2
80	80	5
184	184	8
74	84	2
21	21	9
187	188	4
10	12	10
23	23	4
79	84	2
74	81	6
64	67	1
19	19	9
41	42	4
37	38	2
74	74	4
130	149	1
12	80	1
5	6	4
100	113	3
73	117	2
53	53	6
11	76	5
162	162	6
4	17	2
134	134	7
6	47	3
109	109	4
63	63	2
11	32	1
4	6	6
55	79	2
93	94	11
68	68	3
155	155	8
27	29	6
38	41	1
96	97	2
25	25	13
75	75	7
22	136	5
163	177	3
137	140	5
179	180	3
106	107	4
132	137	5
40	40	6
124	134	3
7	7	9
3	5	4
160	178	2
104	118	2
130	131	1
179	186	1
179	179	1
66	78	2
88	88	6
53	54	3
55	55	7
138	140	1
22	23	5
141	142	7
111	165	1
31	32	2
21	22	4
124	124	4
1	1	7
30	58	11
152	153	1
79	86	1
57	58	2
159	164	2
55	83	2
12	49	5
43	46	2
39	39	9
90	90	2
13	25	2
106	106	3
25	26	5
56	78	2
173	174	4
16	17	2
114	114	4
113	114	3
57	57	12
108	109	1
17	58	1
30	34	2
21	104	5
111	131	1
24	25	2
26	26	4
13	14	3
109	110	3
145	145	4
96	96	6
118	122	2
126	127	2
105	107	1
133	136	3
83	84	2
160	163	1
147	148	1
80	86	6
132	132	16
63	70	3
86	86	4
112	112	7
71	71	1
138	139	6
167	167	3
68	69	3
65	65	4
93	126	3
72	85	3
133	133	4
141	141	8
108	112	2
37	61	2
43	63	1
162	179	4
22	25	4
85	128	4
59	59	2
92	128	1
131	149	1
61	62	2
174	174	2
124	126	2
178	178	5
99	120	4
90	95	1
90	92	3
136	136	2
142	142	8
5	10	3
18	24	1
87	88	5
45	47	3
0	0	5
6	7	2
58	63	2
70	70	4
3	27	3
92	129	2
117	117	10
17	18	1
163	163	2
42	48	2
46	46	3
99	122	1
162	163	6
63	64	2
157	167	3
10	32	2
114	115	5
58	58	2
122	122	5
171	171	2
158	164	3
136	137	1
90	91	3
62	65	2
28	29	1
27	30	3
29	29	8
140	145	1
102	103	1
73	79	4
107	143	2
148	148	8
136	162	1
118	135	1
8	27	2
138	159	2
89	90	5
6	10	3
32	41	2
131	132	3
75	82	2
174	175	1
45	76	1
126	126	1
58	64	2
64	65	5
5	8	1
26	30	1
14	41	2
70	84	2
123	124	2
151	162	1
29	30	1
154	156	1
129	130	5
82	82	3
11	11	6
175	176	2
20	21	5
11	59	4
94	131	1
36	37	5
69	78	2
125	125	3
181	181	2
114	147	1
25	28	1
37	57	1
143	144	1
158	158	2
117	136	2
30	31	1
184	185	4
60	61	2
32	33	2
92	94	3
103	103	5
54	54	9
119	121	2
145	146	4
29	37	3
27	28	2
97	127	2
177	177	3
115	123	3
58	59	5
99	127	2
103	119	1
100	100	5
14	15	4
4	8	1
96	99	4
167	168	1
150	154	2
13	26	1
97	108	1
156	162	2
57	60	2
130	130	4
95	110	2
56	121	1
101	109	1
24	33	2
14	40	1
70	85	5
37	78	3
151	152	2
78	80	2
100	101	1
15	15	2
30	76	2
156	157	4
56	57	1
33	35	3
65	68	2
120	135	1
76	76	5
38	39	1
115	146	2
157	163	1
92	127	1
6	25	1
133	135	1
110	146	1
72	73	2
71	98	1
28	30	1
10	42	1
88	95	5
14	25	1
175	175	2
96	129	4
129	129	1
61	64	1
43	70	1
96	98	1
84	85	6
181	182	2
17	24	2
6	48	2
98	100	1
56	104	1
139	150	5
25	37	3
132	133	4
18	20	1
165	189	1
42	47	4
8	8	4
11	13	2
66	106	1
147	149	2
166	167	1
114	116	1
64	64	4
10	87	2
115	116	1
110	112	2
16	18	1
129	148	3
25	41	2
178	188	2
139	147	2
24	136	3
116	119	1
182	182	2
107	110	2
83	131	2
129	145	2
113	115	2
18	22	1
19	20	7
71	80	1
118	127	2
10	11	1
170	170	4
33	85	2
28	68	1
91	92	2
147	150	4
83	138	2
144	145	2
165	176	2
152	152	1
97	100	1
67	77	2
54	68	1
8	38	1
171	176	2
167	169	1
36	48	2
104	105	2
148	149	1
176	176	2
123	125	1
129	146	2
114	119	2
79	98	1
65	67	1
94	147	1
7	82	3
160	161	3
128	128	2
92	98	1
104	140	1
92	95	3
19	104	1
106	119	1
189	189	1
60	63	1
48	48	2
19	47	2
161	162	2
98	129	1
18	18	1
95	98	1
105	136	1
180	181	1
180	180	3
26	37	1
112	113	2
53	80	2
69	69	1
114	122	1
3	23	1
13	23	1
55	86	1
117	122	1
145	147	2
113	177	1
25	137	1
131	133	1
182	185	1
177	178	1
31	85	1
29	33	2
127	131	1
68	73	3
92	92	1
66	73	1
8	13	1
37	52	2
0	9	2
57	68	2
119	123	1
117	118	1
164	170	1
133	134	1
119	134	1
10	46	1
66	67	1
28	74	1
142	143	1
4	5	1
101	102	3
62	63	1
65	73	3
80	106	1
46	47	2
45	72	1
10	82	1
116	118	1
141	144	1
136	150	1
114	146	1
115	119	1
111	113	1
93	150	1
28	35	1
187	187	1
93	95	1
30	84	1
112	145	1
40	41	1
57	65	1
74	132	2
145	148	1
120	121	2
117	119	1
