45	45	12
76	76	2
75	80	3
100	100	1
117	117	7
8	8	17
84	84	13
77	78	9
4	4	12
104	104	5
27	27	12
32	57	3
110	111	1
71	71	4
65	65	17
30	30	7
74	74	14
85	87	1
58	58	3
112	113	1
94	111	2
123	126	5
115	115	6
76	80	5
78	78	5
98	115	3
87	87	9
104	105	2
11	11	13
118	119	1
27	29	2
13	80	1
102	102	9
46	72	2
79	79	8
46	95	5
28	28	2
47	47	6
94	113	2
43	44	3
18	20	7
18	78	5
37	81	1
46	47	6
36	36	2
85	85	6
127	127	2
121	121	7
28	113	5
102	121	1
34	34	1
29	49	2
109	110	3
47	83	4
108	130	2
41	56	3
46	49	5
3	3	8
67	68	6
13	93	3
78	81	3
120	121	1
16	17	4
76	78	5
97	98	1
17	17	12
47	48	3
72	73	5
10	11	6
32	92	1
60	85	3
71	72	8
19	76	2
24	24	9
29	29	5
67	67	4
114	114	14
69	70	1
60	60	5
27	28	3
41	42	5
113	114	2
43	43	2
109	114	3
42	42	4
70	70	4
99	104	3
80	80	8
68	68	14
13	13	6
100	101	5
91	94	1
21	21	5
26	43	5
10	10	4
77	77	5
83	83	7
119	119	6
49	57	2
117	123	3
9	10	8
104	106	4
106	129	2
109	111	5
61	62	11
44	44	2
63	63	2
6	6	4
83	84	1
61	61	9
4	5	6
110	110	12
78	80	2
108	131	3
49	49	1
66	66	10
75	76	3
38	55	5
96	96	6
59	59	4
32	33	3
63	64	2
46	46	2
129	129	2
31	32	9
72	72	10
82	82	1
49	93	3
55	55	4
114	125	3
111	111	6
68	69	3
109	109	6
7	11	1
91	91	2
5	5	6
38	38	3
110	134	5
39	39	1
64	64	6
59	85	6
31	31	5
58	59	3
6	12	2
15	15	3
3	8	2
119	120	5
57	57	3
87	88	1
97	97	2
32	80	3
101	101	3
86	86	8
120	120	3
0	0	1
9	9	6
40	54	1
7	7	6
35	35	7
37	38	2
26	26	9
116	116	4
36	60	2
40	49	3
75	75	4
55	56	1
83	86	2
74	75	2
14	14	5
14	78	1
84	90	1
21	22	5
36	37	2
33	35	1
57	58	1
77	85	2
90	90	2
76	82	4
132	133	2
46	62	3
14	15	1
88	88	4
5	19	2
37	37	7
69	69	3
5	18	1
2	2	1
7	8	2
15	78	4
41	48	3
129	130	3
56	56	4
19	19	2
39	41	2
12	12	7
95	97	3
112	112	2
48	48	2
62	62	8
113	113	1
18	18	5
121	122	6
131	131	3
18	46	3
108	108	1
61	71	1
16	23	3
48	50	2
106	108	2
59	60	1
29	45	1
25	26	1
99	99	2
95	100	1
92	92	2
48	49	4
26	27	1
57	59	1
28	40	2
35	68	1
128	129	3
95	96	1
59	73	2
96	97	4
79	82	4
26	79	1
26	45	1
127	133	1
89	91	1
66	83	1
22	72	2
2	3	3
26	50	1
23	23	1
30	31	3
42	44	2
102	122	1
69	71	2
8	9	2
96	98	1
89	89	3
28	29	1
61	64	1
90	92	1
81	95	1
42	43	1
122	122	1
107	108	4
106	106	1
28	99	1
95	98	1
93	96	2
22	60	1
117	119	1
87	89	1
8	19	1
84	89	1
101	102	2
12	100	1
84	87	1
126	126	1
21	40	1
99	101	1
