25	25	12
152	157	5
116	116	19
75	75	24
105	105	26
113	115	5
20	39	1
12	12	13
152	152	15
7	8	16
3	29	4
77	78	2
124	124	20
16	17	3
105	106	14
82	83	21
119	120	15
158	158	27
143	144	2
103	103	15
37	37	22
121	121	9
137	137	10
92	92	26
44	44	17
45	47	6
135	135	19
119	119	11
103	125	5
37	99	2
27	27	14
24	41	5
36	36	28
114	114	41
111	111	15
26	26	23
78	78	27
51	52	5
62	64	2
106	107	24
42	42	33
136	137	10
66	66	8
1	1	28
77	77	17
111	113	4
20	34	2
117	118	8
3	4	11
144	144	18
107	107	7
155	158	4
126	127	10
25	40	1
138	139	6
144	148	5
28	29	4
122	145	5
51	51	12
4	4	10
81	81	20
113	113	11
108	108	23
14	14	16
142	142	16
155	155	24
9	149	3
100	100	27
9	9	15
104	104	14
38	38	18
156	158	2
55	56	5
121	122	2
64	64	7
84	88	5
102	104	10
128	128	14
90	90	13
30	30	17
19	19	30
109	121	3
14	15	4
52	52	16
122	122	10
128	137	2
69	109	3
87	89	5
131	132	15
17	18	7
145	147	6
72	93	2
93	93	14
11	117	6
132	132	13
19	23	2
12	33	1
50	51	11
10	10	10
11	11	18
157	157	20
134	134	30
20	20	10
65	65	10
151	151	13
88	88	14
7	46	2
21	21	16
81	82	23
95	95	25
84	84	21
34	34	11
6	7	2
154	154	26
148	148	22
17	17	34
69	69	11
23	23	26
123	123	16
93	95	11
125	125	29
145	145	18
106	106	12
130	130	17
111	124	2
83	83	13
108	122	5
86	86	12
93	94	17
78	79	5
140	141	17
137	138	8
29	29	31
11	46	6
86	89	2
85	86	12
129	129	27
6	6	28
48	48	27
140	140	12
19	20	9
63	68	5
8	8	26
106	115	1
6	64	6
24	25	7
147	147	13
71	71	26
30	31	3
24	37	1
82	82	13
94	99	3
122	123	14
94	94	28
35	35	19
79	82	6
124	126	8
8	146	3
115	128	6
7	7	25
32	32	12
87	87	26
118	118	16
16	16	14
76	103	4
13	78	3
113	114	7
123	140	1
88	89	9
76	76	6
68	68	22
110	117	2
54	55	19
129	130	9
92	94	4
1	7	9
39	40	9
131	147	4
131	131	16
156	156	14
155	157	3
14	49	2
98	98	14
103	122	2
40	41	19
70	71	12
29	115	3
80	80	15
116	128	7
39	76	3
18	18	28
102	102	14
134	140	3
21	22	17
2	7	7
94	102	3
28	78	1
93	96	1
36	37	9
109	125	4
30	32	7
1	2	8
39	39	22
135	136	3
67	67	19
33	34	11
37	38	4
97	139	1
76	77	4
95	96	13
51	111	2
77	139	4
72	80	2
31	31	16
125	126	7
41	41	11
49	140	3
73	73	21
141	141	32
133	133	13
154	155	3
0	0	31
134	152	3
139	139	12
150	150	11
153	153	13
0	7	4
83	93	4
34	36	4
13	13	16
90	92	4
113	118	5
96	97	16
56	57	5
122	146	5
62	63	4
117	117	20
105	147	2
127	151	4
153	154	7
107	115	3
46	46	23
80	81	3
24	24	24
68	71	4
0	1	15
123	126	1
103	104	2
8	9	11
146	147	2
63	63	8
96	96	18
50	50	18
2	2	9
11	12	1
22	23	8
129	131	5
49	141	1
149	149	10
127	127	30
78	89	1
146	146	28
79	79	9
120	120	18
28	28	10
55	55	7
89	89	21
89	91	2
77	87	2
118	119	5
0	5	2
83	85	4
91	91	16
78	88	2
107	111	4
134	135	5
109	111	7
117	128	2
109	109	5
124	140	2
42	43	8
41	85	1
156	157	3
54	54	17
80	139	3
40	42	1
135	137	11
105	107	5
126	126	20
4	28	2
115	115	4
7	31	2
25	45	4
44	45	3
85	154	2
130	151	3
18	19	13
115	116	12
143	143	17
114	131	1
16	42	2
85	85	27
89	107	3
92	93	6
22	22	17
90	91	12
145	146	4
146	149	6
21	39	4
26	39	2
15	16	11
23	87	2
70	70	16
69	70	6
25	44	3
4	36	1
19	33	5
108	109	10
34	38	5
57	61	2
88	107	1
26	27	2
142	152	3
43	43	13
73	74	3
99	99	14
5	5	11
131	133	4
53	54	6
29	37	4
8	70	1
118	121	1
24	86	3
29	34	1
66	67	2
125	144	3
114	115	1
125	147	1
120	126	4
49	49	9
20	21	8
144	147	6
120	129	1
120	121	6
89	90	1
94	95	6
47	47	15
113	117	6
83	84	11
136	136	9
145	152	1
12	32	4
151	152	6
91	92	4
28	33	1
23	24	5
31	129	2
55	104	2
67	69	3
110	111	2
67	68	4
84	98	2
23	39	2
64	70	4
111	127	1
123	127	4
64	101	1
3	28	3
56	67	4
127	139	1
113	120	2
112	112	10
54	75	1
13	14	11
48	52	2
36	79	5
104	124	4
40	40	11
104	105	6
138	138	18
158	159	1
78	92	2
101	101	19
110	123	3
79	81	2
89	97	4
13	142	5
41	87	3
133	136	4
132	133	8
92	96	3
53	106	3
29	30	3
35	56	2
84	90	1
13	16	4
99	101	1
33	33	14
83	90	1
104	152	4
150	152	1
126	144	6
25	26	5
48	49	5
148	149	1
116	117	8
77	89	2
5	7	6
47	48	2
69	85	3
148	151	1
56	56	13
28	132	1
52	54	4
38	39	2
19	21	2
112	123	4
147	148	2
31	45	2
31	32	5
110	110	16
111	112	6
144	145	9
112	113	3
64	108	4
141	142	6
128	129	3
53	110	1
139	140	1
123	124	3
133	134	7
28	113	2
28	115	3
12	13	5
109	110	5
100	101	2
108	110	6
68	69	6
82	84	3
79	92	1
85	88	7
51	112	2
130	131	6
68	70	3
27	38	2
13	77	2
18	24	3
15	15	5
49	51	6
110	125	2
25	28	2
71	72	1
2	4	1
63	64	2
29	32	3
131	134	5
37	39	1
53	53	9
148	150	1
48	50	3
140	142	3
75	80	1
152	154	2
13	15	1
149	151	1
32	33	8
107	108	4
97	97	15
82	85	5
135	138	7
48	111	3
91	93	1
65	68	3
36	54	6
108	123	1
32	116	1
120	122	2
7	14	1
10	117	3
85	133	1
83	89	2
125	146	2
102	103	2
145	148	2
14	142	2
143	150	2
45	46	6
20	38	1
4	5	4
49	111	1
2	5	1
10	11	3
12	30	2
69	112	1
55	126	2
102	120	1
46	47	8
35	36	2
21	157	1
147	153	2
53	105	1
97	111	1
45	45	5
48	70	3
48	140	4
130	134	1
124	125	1
25	38	3
55	103	3
114	120	3
119	145	2
129	138	2
24	40	5
52	53	5
9	10	4
30	33	2
132	136	2
75	76	6
87	91	1
81	83	3
83	88	3
90	119	1
69	108	3
152	153	4
75	139	3
10	73	1
128	138	2
72	72	4
103	121	3
109	112	4
9	146	2
62	62	4
115	117	2
20	22	3
106	108	1
117	120	1
107	117	1
30	66	2
112	121	2
99	110	1
78	90	2
128	134	1
7	148	3
98	114	1
97	98	1
48	69	1
52	86	3
129	139	1
47	49	2
13	141	1
7	30	1
26	155	1
88	98	1
92	135	2
63	70	3
50	111	1
104	111	2
142	154	4
116	130	1
128	136	4
34	35	2
105	124	2
6	158	2
151	153	2
84	85	2
8	72	2
51	108	2
126	152	1
2	3	4
89	105	2
53	69	2
135	139	1
48	51	3
4	7	1
105	148	2
86	88	3
5	34	1
51	54	1
112	137	2
26	29	3
42	126	1
84	91	4
25	31	1
46	72	1
22	34	1
79	86	1
79	95	1
81	89	2
24	38	2
23	25	2
103	119	1
113	123	1
79	88	1
51	79	1
11	15	1
16	18	2
65	66	2
120	131	1
95	98	1
131	139	1
114	116	1
27	28	5
128	130	1
29	78	1
88	96	2
6	43	4
118	120	3
116	129	2
25	86	2
8	118	2
147	149	1
18	20	2
8	10	2
77	90	1
95	97	1
48	141	1
78	91	2
104	106	1
98	99	1
107	112	3
80	86	1
45	71	1
24	42	1
123	141	1
99	100	1
142	155	1
46	93	3
67	70	2
103	105	1
62	71	2
7	118	1
79	87	1
72	158	1
70	109	1
104	108	1
104	125	1
142	143	4
82	95	1
30	116	3
53	87	1
63	67	4
31	66	1
108	112	1
149	150	2
46	155	1
96	98	3
153	157	1
15	17	1
81	97	1
52	106	1
109	123	1
76	105	1
48	55	1
77	82	1
3	3	1
6	10	1
128	135	1
19	78	1
102	138	1
14	31	1
26	44	1
102	110	1
159	159	1
129	136	1
103	126	1
87	119	1
79	80	1
144	153	1
12	46	1
108	111	2
38	78	1
18	44	1
102	121	1
36	38	1
91	115	1
18	34	1
91	116	1
28	37	1
14	16	1
79	96	1
91	117	1
48	71	1
19	81	1
108	155	1
87	88	1
11	130	2
75	97	1
53	88	1
