132	132	9
13	13	9
16	16	4
86	86	7
129	129	14
60	60	14
102	102	8
64	73	1
66	83	5
113	113	9
100	100	16
89	115	3
92	92	17
31	31	3
12	12	12
82	83	3
0	59	3
78	78	9
12	25	2
61	61	7
111	112	2
65	65	4
132	133	2
90	90	5
58	61	2
77	77	3
72	72	6
125	125	17
8	9	2
52	60	2
15	21	2
8	20	3
134	134	8
6	6	5
126	127	4
70	70	7
64	64	7
75	75	7
26	33	1
68	68	5
126	129	1
76	77	2
103	103	8
72	76	5
73	73	8
95	95	10
30	30	8
101	102	2
122	122	9
26	26	9
64	65	7
97	98	1
14	15	3
113	133	1
111	118	6
36	37	5
33	33	9
38	43	2
4	4	5
106	106	4
79	123	3
4	5	3
91	91	4
87	87	12
7	7	5
101	101	5
19	22	2
61	64	3
130	132	1
34	34	7
66	66	11
66	68	4
8	25	1
82	82	8
113	119	2
74	74	7
119	125	1
10	11	4
112	112	4
83	83	11
2	2	12
119	133	2
127	128	4
118	129	2
85	85	1
36	36	9
9	9	5
6	77	9
45	50	7
124	125	4
69	69	12
93	93	9
88	110	1
87	115	3
122	123	9
115	115	16
86	87	7
53	53	9
45	47	3
19	21	4
130	133	2
82	110	4
47	47	8
124	124	8
46	47	1
118	118	9
119	129	2
35	35	10
121	122	5
21	21	3
62	62	7
43	43	9
98	102	3
52	53	7
116	116	7
98	98	6
71	71	8
29	29	2
104	104	9
55	55	11
25	25	3
109	109	8
115	131	3
56	56	2
69	70	4
122	125	6
76	76	5
31	33	1
43	44	4
119	119	3
133	133	5
129	130	5
102	103	1
66	81	5
80	126	2
64	67	1
10	55	2
5	5	3
57	57	3
22	22	10
103	104	3
107	107	6
96	96	9
80	80	5
27	30	1
119	122	1
84	84	4
123	123	16
18	20	1
17	21	1
105	106	2
4	59	1
2	56	1
135	135	1
0	0	5
121	121	11
110	110	4
22	23	5
23	75	1
120	120	14
126	128	1
92	93	2
9	37	4
33	34	7
61	63	1
3	7	2
127	127	6
46	62	4
56	58	2
38	103	3
95	96	1
18	77	4
56	59	2
15	26	2
88	88	10
16	21	2
99	99	5
32	47	1
111	111	6
102	111	1
3	3	3
18	18	4
84	85	2
90	96	4
72	73	3
3	4	8
71	82	5
126	126	3
62	64	1
94	94	4
61	62	1
84	105	1
87	91	1
77	82	2
60	63	2
81	81	2
97	97	5
54	55	2
81	96	3
84	94	2
88	115	1
34	47	4
28	28	4
79	79	6
1	2	7
108	108	1
114	115	1
118	130	5
96	97	4
63	65	1
67	98	1
84	118	1
44	44	7
63	63	4
108	109	1
29	30	2
76	79	4
38	129	2
60	61	5
68	82	1
119	131	6
27	27	8
94	96	1
123	132	1
15	15	8
114	114	5
52	52	5
31	35	1
14	14	3
79	83	2
49	49	2
89	89	8
59	77	6
117	117	2
90	91	2
45	68	1
128	128	3
129	132	1
46	46	1
3	5	2
11	79	1
1	1	3
6	25	1
35	37	1
99	100	2
76	106	4
11	12	1
45	53	2
5	57	3
52	54	3
6	17	3
76	105	3
101	104	1
7	8	5
45	46	4
79	106	2
53	54	3
38	38	3
125	129	2
117	118	1
114	118	4
105	105	6
93	94	4
106	107	2
5	58	2
118	120	2
50	50	3
130	131	3
48	49	7
22	75	1
89	103	4
21	23	1
102	129	1
59	59	3
117	119	3
21	22	3
87	110	1
108	110	2
45	67	2
101	111	1
110	131	1
128	131	2
30	31	1
42	52	2
87	88	1
89	94	2
16	109	1
77	81	2
97	107	1
130	130	2
17	17	2
15	16	1
61	80	2
55	67	1
69	72	2
77	80	5
100	101	2
42	43	2
0	1	1
68	69	3
12	13	2
71	72	1
83	107	2
57	77	1
19	35	1
49	50	3
17	18	1
30	34	4
7	23	3
91	92	3
83	111	2
109	131	2
117	127	2
64	103	1
121	133	1
10	10	1
3	31	2
6	9	2
35	36	4
99	107	3
114	131	1
88	90	2
131	131	6
13	14	1
22	46	2
95	97	2
68	83	1
61	84	1
83	106	2
109	121	1
42	44	2
8	8	2
67	67	1
6	56	1
46	49	1
28	29	1
82	112	2
42	45	1
109	110	1
6	7	1
95	106	4
113	115	2
132	134	1
67	68	2
122	124	3
32	33	1
104	105	1
111	119	1
50	52	1
24	33	1
82	92	1
19	23	1
45	52	1
118	133	1
127	129	1
120	121	1
37	37	2
19	77	1
64	80	1
107	109	1
32	32	1
23	24	1
19	19	1
89	90	2
96	106	1
79	80	1
80	83	1
37	45	1
0	3	1
134	135	1
116	117	1
