26	26	4
92	92	14
36	36	9
62	62	5
44	44	15
71	71	2
32	32	3
70	70	8
77	77	7
39	39	8
92	93	5
68	68	5
51	54	1
96	97	7
71	73	1
58	58	4
36	67	2
75	75	5
56	56	8
80	80	5
54	54	8
28	28	4
86	87	5
26	29	3
44	67	2
48	48	9
98	98	5
99	99	2
61	61	19
49	49	2
89	91	2
27	73	4
77	78	3
87	87	5
40	41	3
29	29	1
83	83	11
85	86	2
102	102	2
22	22	4
72	78	6
62	63	3
60	61	2
79	79	16
55	63	1
90	99	2
75	77	1
60	60	7
37	37	8
93	94	1
83	88	1
79	80	3
97	97	7
32	33	1
67	68	1
24	26	1
83	87	2
84	96	4
41	45	2
55	55	3
47	80	1
81	83	1
44	50	4
73	74	2
72	72	4
35	35	13
24	55	1
65	65	6
91	91	3
45	45	6
41	41	9
38	39	1
75	76	1
27	28	1
52	52	2
93	93	14
95	98	3
33	53	6
82	82	5
96	96	4
89	90	2
90	90	5
56	57	5
73	73	6
38	102	3
50	51	2
38	61	2
86	88	5
80	85	1
100	100	8
64	64	3
59	101	1
71	72	2
47	81	2
37	61	2
43	77	2
53	54	4
24	30	3
46	46	5
63	64	1
101	101	5
81	81	11
60	80	1
59	59	5
84	84	2
50	57	2
58	66	1
69	69	5
51	51	2
65	74	2
56	77	1
63	63	4
78	90	2
99	101	3
67	67	5
80	94	2
86	86	6
25	25	1
40	40	2
81	82	2
94	94	10
54	55	1
43	65	1
58	61	3
30	30	1
89	97	4
95	95	5
24	25	1
33	33	2
23	53	2
30	33	1
29	61	2
81	87	1
95	96	7
77	83	1
87	88	2
86	95	3
57	67	2
23	23	2
21	26	1
89	89	3
61	62	1
74	74	2
64	77	1
76	76	1
44	49	2
42	42	1
85	85	2
58	78	2
80	86	3
20	27	1
68	69	1
81	92	2
24	24	1
91	93	1
38	38	1
74	75	1
78	78	1
23	34	2
20	53	2
43	73	1
88	94	1
31	35	2
66	66	1
47	47	1
58	81	2
58	59	1
88	88	1
84	87	3
92	100	1
80	81	1
66	67	1
46	48	1
84	98	1
47	48	1
92	94	2
84	94	1
34	34	1
72	74	1
52	55	1
37	39	1
50	50	1
88	101	1
58	79	1
63	96	1
69	70	1
