72	72	6
45	45	10
38	81	5
96	96	2
66	66	2
77	77	6
30	30	5
41	42	3
25	25	2
93	93	6
73	73	8
127	132	3
1	1	1
8	19	2
128	128	4
80	80	12
86	86	4
90	90	3
89	130	1
127	128	2
7	101	4
13	14	9
130	130	3
124	124	1
36	36	2
79	80	1
95	131	3
71	72	2
84	84	3
29	29	3
17	17	4
12	12	3
76	76	1
47	47	9
13	28	4
95	97	7
78	78	8
25	56	3
15	27	1
101	101	4
75	75	2
47	92	1
79	79	4
30	31	3
116	122	1
87	87	5
66	67	3
11	15	3
100	100	7
117	129	2
4	10	3
28	28	2
31	32	6
16	87	1
43	44	3
21	22	3
34	34	2
18	18	6
36	37	1
60	77	2
74	74	3
24	58	3
133	133	2
78	97	3
8	8	4
134	134	1
44	44	3
9	9	1
43	47	1
13	27	1
109	109	1
48	48	3
14	14	3
78	85	3
46	46	9
104	105	1
96	99	1
68	69	4
33	33	2
42	42	4
10	71	2
57	62	1
77	94	3
60	60	3
65	65	3
94	130	5
114	114	3
21	21	1
6	10	2
10	10	2
62	62	1
111	111	2
14	61	1
24	24	2
42	43	1
102	102	3
44	47	3
92	93	3
99	101	1
89	116	1
3	4	2
10	70	1
44	45	1
70	70	2
94	100	2
31	40	2
61	61	2
37	37	4
26	26	2
82	85	2
20	20	4
7	74	2
85	85	3
43	56	4
122	122	2
97	98	1
68	68	2
15	40	2
49	49	1
23	44	1
84	85	5
126	127	2
4	4	3
6	100	2
125	125	3
9	10	1
35	58	1
40	40	2
98	98	1
28	91	3
120	120	3
57	57	1
94	97	3
12	27	2
118	118	2
119	119	5
67	68	3
33	76	3
105	105	1
128	129	1
7	36	1
31	84	2
99	99	2
3	96	3
28	98	1
23	27	3
45	46	1
59	130	2
59	63	1
27	38	1
38	83	1
64	65	2
74	75	1
11	11	3
84	91	1
47	61	1
11	48	1
63	63	7
27	95	2
110	115	3
19	20	2
66	109	1
78	98	1
84	87	1
103	103	1
28	47	2
107	108	2
71	117	2
55	56	1
116	116	1
33	35	1
46	85	1
90	91	2
39	42	1
132	133	2
15	15	3
4	16	1
83	84	1
81	81	2
94	101	1
106	132	1
61	76	1
23	23	1
25	28	1
88	88	1
6	7	1
28	30	1
67	120	3
131	132	2
64	64	1
45	83	2
132	132	3
41	41	1
45	48	1
97	97	1
6	21	1
112	115	2
92	94	1
91	94	1
15	16	1
45	74	1
85	86	1
125	129	3
84	92	1
98	99	1
48	87	1
92	106	1
78	82	1
43	43	1
90	92	1
101	102	1
10	44	3
48	49	3
22	23	1
107	130	1
127	130	1
25	93	1
29	56	3
6	16	1
9	37	2
130	131	1
24	25	5
93	100	1
22	22	1
110	110	1
64	76	1
35	35	1
21	79	1
26	27	1
107	107	1
60	68	1
35	85	1
121	121	2
27	43	1
95	95	3
16	25	1
91	92	1
83	83	1
94	94	1
49	81	1
27	28	1
65	94	1
116	132	1
32	32	1
47	82	1
19	19	1
78	79	1
56	70	1
62	64	1
51	51	1
33	34	1
61	119	1
12	26	1
