151	151	11
131	131	8
117	117	10
145	145	3
41	42	5
12	12	8
147	148	6
148	148	18
186	186	15
172	172	31
42	42	7
175	178	6
94	94	9
197	197	7
3	3	13
110	111	9
48	48	19
2	19	3
40	40	12
191	191	4
45	45	16
51	77	2
52	53	3
181	182	2
113	113	11
193	194	5
49	50	6
52	52	10
98	111	4
18	41	3
135	136	7
29	29	10
138	139	6
132	132	6
155	158	1
152	152	22
22	22	8
194	194	6
31	32	5
103	103	10
34	34	9
157	157	13
153	154	2
189	193	3
38	48	2
111	130	3
34	36	6
127	128	1
169	172	9
4	45	4
21	22	10
167	169	4
169	169	18
0	3	3
97	98	5
43	43	7
124	124	17
146	176	6
146	146	16
193	193	17
4	41	1
144	144	9
135	135	9
138	138	13
129	129	9
99	99	12
147	147	9
95	97	3
175	175	6
20	21	7
111	111	11
96	97	4
173	174	6
42	111	1
56	56	7
168	168	6
10	11	13
87	87	13
170	170	19
9	11	1
113	148	2
53	53	16
149	160	1
99	100	4
40	41	3
62	73	4
195	195	17
164	164	6
118	119	5
94	95	11
47	47	14
4	5	11
95	99	3
192	192	13
104	104	15
166	166	8
26	26	6
3	35	4
86	119	3
79	79	9
83	83	5
177	178	4
57	58	3
157	159	5
167	167	10
50	50	11
183	183	18
126	127	7
106	107	2
149	149	22
148	149	3
150	185	1
31	31	8
4	20	2
148	178	2
126	149	4
161	162	4
177	191	1
119	120	2
32	32	16
11	188	1
163	164	1
144	161	2
23	23	12
30	30	13
178	178	8
162	165	6
2	2	4
58	59	5
155	156	9
28	28	6
101	101	8
121	121	6
2	3	2
17	17	6
39	40	7
120	120	6
18	19	3
143	144	3
32	33	6
152	153	4
51	51	17
173	173	4
179	179	8
121	166	1
21	28	1
188	188	14
168	174	3
141	141	10
33	33	9
190	190	9
169	170	12
139	139	10
196	196	12
36	36	6
122	122	14
15	15	13
21	23	6
184	184	16
182	182	3
6	7	6
39	111	3
119	119	9
171	171	13
56	57	2
176	177	4
74	74	9
62	63	4
65	65	7
49	49	15
23	24	7
181	181	16
167	172	3
196	197	4
184	195	4
172	187	3
136	136	6
89	89	2
171	172	3
14	15	5
24	25	1
88	89	4
189	190	7
24	149	3
58	58	7
71	71	7
142	142	8
165	176	1
159	160	6
191	192	6
109	109	6
152	154	4
41	41	8
77	94	2
140	145	5
14	14	10
136	138	3
79	82	3
112	112	7
172	173	13
140	140	10
153	153	4
37	37	20
15	16	4
0	1	1
105	106	1
128	149	3
183	184	2
85	85	7
161	163	2
179	180	3
150	150	23
128	128	2
180	181	9
123	123	7
5	45	1
15	45	1
165	169	6
102	105	1
133	133	9
172	176	2
171	183	1
159	161	7
142	147	1
81	82	2
185	185	11
158	158	3
63	63	8
25	25	7
102	102	13
110	112	6
116	168	3
13	14	5
130	130	4
20	20	5
154	155	7
141	142	4
7	8	7
50	51	2
142	143	4
149	171	2
38	38	6
159	162	4
26	154	4
38	39	4
120	159	2
114	125	3
193	197	1
18	18	10
162	162	3
176	179	1
148	182	1
128	196	1
157	158	5
98	98	7
154	173	1
43	44	5
9	9	14
130	131	4
137	137	6
0	0	6
95	100	1
11	11	10
54	54	8
13	13	13
144	146	3
37	41	2
171	173	3
147	154	1
85	86	3
88	88	6
115	117	3
78	78	6
4	4	2
174	175	7
185	197	1
177	177	6
57	57	13
5	7	2
35	35	4
124	147	3
136	137	1
118	159	2
105	105	2
27	28	2
43	58	4
52	83	2
80	87	1
195	196	1
100	100	7
36	37	4
9	10	7
16	17	3
164	169	1
39	39	9
18	21	4
4	17	4
156	156	6
96	96	3
66	69	2
134	134	8
11	15	5
106	126	1
4	9	1
47	58	1
168	170	2
175	176	4
54	55	6
8	8	16
133	166	1
157	178	1
12	47	1
176	178	4
187	187	4
116	116	5
95	96	3
59	59	3
3	4	4
165	165	3
87	88	8
148	150	2
47	48	4
24	24	5
180	180	12
158	159	3
161	175	3
141	151	2
113	114	1
107	107	3
86	86	1
99	111	3
4	8	1
14	54	2
115	115	6
27	27	6
114	115	4
73	74	7
110	115	3
189	189	14
152	195	4
171	187	1
18	24	3
169	190	4
116	118	1
26	27	5
53	54	2
16	16	12
4	15	1
11	12	3
132	146	2
180	182	2
25	104	1
160	160	3
171	195	2
58	67	3
134	138	1
1	1	1
60	61	1
42	43	1
123	124	2
39	98	4
6	8	3
147	178	3
35	36	4
55	56	3
119	137	2
61	61	3
184	185	4
48	49	3
170	171	1
154	154	4
146	172	1
110	110	2
126	126	2
168	169	4
55	55	3
128	131	2
115	144	3
0	30	1
163	163	9
156	157	2
190	191	2
30	31	1
150	152	2
170	172	1
168	187	1
7	7	4
24	148	4
109	111	3
161	161	5
118	118	6
34	35	4
48	57	3
131	132	1
106	106	5
1	16	3
136	142	2
72	72	7
129	150	2
140	150	3
82	82	2
149	168	2
121	122	2
93	94	3
17	19	1
77	86	2
46	47	5
146	175	1
176	176	4
94	96	1
104	106	1
55	64	1
102	104	3
107	132	2
98	99	1
43	121	2
33	71	3
140	141	1
5	8	2
66	66	4
24	106	2
162	163	2
166	168	2
143	145	3
51	52	1
117	168	3
52	54	1
1	2	1
187	189	6
165	166	2
82	83	4
138	140	1
81	81	4
27	149	2
124	131	3
185	186	4
59	60	2
44	46	1
5	6	2
28	30	1
160	161	2
29	30	4
5	5	7
149	151	2
3	16	1
101	108	1
77	82	3
120	155	4
68	68	3
178	179	5
43	123	1
95	95	4
41	45	3
149	150	2
25	148	1
37	99	1
187	188	3
166	181	2
17	57	1
188	189	3
161	165	6
120	125	1
128	129	1
123	155	1
166	167	2
150	151	1
64	73	2
148	179	2
153	156	1
31	141	2
156	165	1
137	138	2
155	155	4
151	153	4
67	67	1
19	19	2
83	119	2
27	31	1
111	112	3
64	64	1
114	120	1
44	44	4
117	118	2
124	132	2
44	45	1
132	134	1
103	109	1
1	35	2
132	133	1
9	44	2
115	143	1
159	164	1
156	160	1
76	78	2
127	127	3
101	102	1
78	80	1
187	190	3
80	80	2
122	197	2
115	134	3
159	165	1
164	175	1
97	104	2
69	69	1
3	29	1
110	113	2
69	80	1
67	69	1
185	190	2
73	73	1
149	184	3
19	130	1
17	41	1
6	6	2
19	29	3
174	176	2
136	180	1
8	39	1
30	142	1
164	167	3
70	70	2
9	126	1
159	159	1
47	111	1
151	194	1
165	167	3
73	75	2
24	101	1
66	67	1
27	41	1
111	113	2
143	143	4
179	181	3
2	8	2
35	37	2
167	178	1
156	166	1
163	165	1
23	148	1
153	173	1
141	194	1
107	108	1
8	40	1
8	169	1
116	133	1
181	191	1
10	10	3
19	56	1
102	103	2
120	122	2
7	21	1
146	168	2
15	42	2
17	18	1
134	139	1
84	84	1
180	192	1
5	32	1
165	191	1
118	140	1
172	177	1
130	132	2
70	71	2
146	167	1
194	195	2
11	186	1
135	137	1
77	78	1
134	136	2
170	190	1
66	71	1
78	81	2
169	171	1
151	171	1
183	194	1
32	70	1
107	131	1
133	134	1
18	141	1
146	174	1
172	180	1
89	90	1
20	23	1
88	90	1
171	194	1
2	16	1
158	166	1
108	108	1
109	110	1
126	171	1
19	57	1
68	69	1
178	193	1
64	67	1
