115	116	5
117	118	3
22	35	2
111	111	7
74	74	20
143	143	13
26	30	1
107	107	11
57	58	1
70	70	5
166	181	4
86	96	6
104	104	15
159	159	12
38	38	21
124	124	5
46	47	5
161	164	2
59	63	2
55	63	4
29	36	2
80	87	1
32	32	7
145	146	9
156	156	4
112	112	9
37	38	1
75	76	10
163	163	12
19	21	4
58	87	1
86	87	7
82	82	7
127	127	2
69	119	3
123	123	6
125	125	9
134	134	10
70	104	3
158	161	1
185	185	7
149	150	10
105	111	2
60	61	1
115	115	19
102	103	3
164	165	6
177	180	3
87	88	5
2	2	14
48	48	15
178	180	4
5	11	3
29	30	9
29	35	1
149	149	14
79	79	20
11	11	5
117	117	10
81	81	3
30	31	1
4	11	4
80	82	5
148	148	15
97	97	16
153	158	4
62	65	2
116	126	8
150	150	6
31	34	6
13	15	4
7	7	7
15	15	20
20	60	3
4	4	7
166	167	8
77	126	1
109	110	8
169	169	15
130	131	5
10	13	2
139	139	17
84	84	24
54	59	3
61	62	4
113	115	1
71	73	2
167	168	5
6	6	3
55	55	7
36	36	8
80	81	4
131	132	3
77	113	1
0	20	2
100	100	7
61	61	6
57	57	7
72	79	2
158	158	4
123	124	7
68	68	10
142	143	4
9	12	2
78	95	1
104	107	1
161	161	7
13	13	13
99	99	6
136	136	7
176	177	4
92	92	3
62	64	1
28	29	1
20	45	1
52	53	2
24	24	15
14	14	19
131	131	10
133	134	2
63	67	1
46	49	1
43	44	9
105	105	14
104	105	4
147	147	12
72	121	3
122	122	8
100	104	3
58	58	9
146	147	6
142	142	10
78	80	3
141	141	6
170	177	1
130	130	7
61	88	3
17	17	16
120	121	2
110	115	1
21	21	12
45	45	13
119	119	10
23	29	2
189	189	5
60	60	2
77	77	15
178	178	7
155	156	4
75	92	2
65	68	4
90	97	6
103	108	2
82	83	5
23	23	5
151	151	6
41	41	4
134	135	8
28	30	5
80	80	2
143	157	3
127	132	2
99	121	1
137	137	9
65	65	13
167	167	5
30	30	4
107	133	2
19	20	6
153	153	5
10	11	3
12	14	1
37	37	8
183	184	3
16	16	10
68	110	3
133	136	5
55	59	5
148	149	7
115	126	1
140	140	12
42	43	6
120	122	4
89	89	8
35	35	4
27	28	9
155	158	2
120	120	7
34	37	1
18	18	12
86	119	3
56	56	5
113	143	1
5	5	11
104	113	6
66	67	2
150	155	6
72	72	8
56	57	4
25	25	20
85	85	12
113	113	7
90	91	1
183	183	10
114	115	1
7	37	4
113	114	5
43	52	4
137	138	2
33	33	6
145	145	7
0	47	3
142	144	1
178	181	1
43	43	12
105	112	3
92	93	1
79	94	2
68	118	2
108	108	10
96	96	14
64	64	9
175	175	2
94	96	3
85	118	1
91	91	4
34	35	8
29	32	2
176	180	3
177	179	5
141	142	3
75	104	2
122	123	8
155	155	3
17	18	7
1	1	5
71	71	15
138	138	17
19	19	11
159	179	1
7	40	3
143	145	3
172	172	10
47	47	8
25	26	7
110	110	7
36	37	5
165	165	7
166	166	9
144	145	5
101	103	5
54	54	6
22	23	2
132	133	2
29	31	1
102	102	4
10	10	7
53	57	2
146	146	22
75	95	3
95	95	7
139	150	2
116	117	5
170	170	5
96	97	9
124	129	2
3	3	3
164	164	5
20	28	1
109	109	9
44	44	8
76	76	8
144	144	3
8	8	13
76	125	1
188	188	2
114	114	16
108	110	2
126	126	3
124	126	5
0	10	2
154	155	3
81	89	1
59	59	7
31	35	1
62	63	5
121	121	8
1	12	4
45	73	1
101	101	10
176	176	5
70	71	3
39	39	9
20	20	2
15	26	2
108	127	1
153	183	1
7	38	2
186	187	3
171	171	5
78	78	14
29	29	6
79	104	3
103	103	7
156	158	2
58	60	3
162	162	3
67	119	1
90	95	2
0	1	2
185	189	3
7	8	6
114	147	3
81	82	2
174	175	2
131	137	2
136	137	7
1	5	3
187	188	3
87	102	2
42	42	5
146	148	3
170	172	1
73	73	7
59	60	4
13	14	4
12	12	4
13	43	2
75	75	4
160	161	2
127	133	1
135	153	1
88	88	14
4	5	6
83	83	5
65	67	5
161	180	1
133	133	3
118	118	5
106	111	1
44	46	1
23	36	1
66	66	8
31	33	8
28	28	4
2	4	1
173	173	4
111	114	3
33	35	2
47	48	2
86	86	14
91	92	4
124	125	10
171	173	1
35	36	3
161	179	4
54	57	4
184	185	3
154	154	9
3	5	1
32	35	3
5	10	3
6	7	5
53	53	5
138	139	2
22	22	3
148	150	1
130	132	2
119	120	1
129	139	2
30	37	2
154	162	2
157	157	3
0	27	4
125	129	1
73	80	1
180	181	2
116	116	5
21	32	4
95	96	1
81	92	1
190	190	1
73	78	2
99	100	5
181	181	6
155	182	1
79	80	5
139	164	1
77	78	3
181	182	2
177	177	2
40	41	1
132	150	2
86	95	2
163	181	2
113	138	1
124	127	1
26	26	8
26	27	1
180	180	4
46	46	4
106	106	8
3	66	4
156	157	2
138	142	3
186	186	6
87	87	4
128	129	2
59	61	1
103	106	3
58	59	7
39	40	2
83	95	5
66	68	2
184	184	2
150	154	2
0	191	2
101	102	2
162	180	1
163	164	2
54	55	3
112	114	1
87	89	1
139	163	3
34	34	4
117	119	2
179	179	2
46	48	1
77	80	1
125	126	5
12	13	1
64	68	2
71	72	3
32	60	2
115	129	1
179	181	3
97	98	2
151	186	4
127	130	1
79	90	2
98	98	5
127	128	1
98	101	2
52	62	1
129	136	3
141	160	1
92	94	2
98	100	3
45	46	3
140	141	12
112	113	4
41	43	2
104	106	4
153	162	1
129	129	5
21	23	2
81	101	4
73	120	2
149	151	1
23	24	1
175	181	2
132	132	1
44	45	3
19	27	1
152	152	6
33	34	5
150	151	2
0	11	1
5	48	1
63	63	1
5	62	2
143	144	3
141	143	1
138	165	2
93	93	2
70	83	1
110	126	1
128	128	1
75	79	1
69	69	1
153	154	2
152	153	2
63	68	1
31	31	1
0	0	3
169	177	1
41	42	1
44	53	1
48	77	2
89	90	1
9	10	1
83	96	2
52	70	1
72	83	1
110	111	3
175	176	3
160	160	3
187	187	4
110	123	1
88	91	1
126	132	1
0	22	1
20	21	1
79	81	1
11	12	2
111	112	1
156	160	3
7	41	3
153	179	1
110	112	1
144	146	1
36	38	3
82	85	1
7	17	3
96	98	2
182	182	5
18	60	1
177	178	1
20	32	3
126	133	2
9	13	2
26	28	1
82	90	1
40	40	2
31	32	2
110	127	1
62	62	2
1	15	2
110	116	1
47	59	1
46	72	1
182	183	1
102	126	1
157	162	3
81	83	2
27	27	1
129	142	1
105	106	1
0	23	1
126	127	1
138	140	1
185	186	1
16	17	1
136	142	1
147	149	1
108	116	1
76	90	1
74	75	1
64	69	1
168	168	1
151	152	3
157	161	1
161	178	1
176	179	1
55	56	1
122	124	1
32	33	1
135	135	1
96	99	1
84	85	1
116	118	1
185	187	1
83	84	1
90	90	2
95	161	1
58	62	1
88	89	1
93	94	1
90	94	1
64	65	1
27	31	1
136	139	1
81	94	1
107	111	1
28	31	1
38	39	2
121	122	1
44	47	1
95	98	1
58	63	1
108	109	1
73	76	1
115	117	1
72	73	1
78	79	1
108	112	1
15	16	1
44	48	1
110	122	1
75	93	1
