169	169	15
165	188	3
9	9	22
101	151	1
43	43	26
94	94	9
152	152	17
31	32	1
104	104	14
126	126	36
178	178	15
82	82	3
173	179	2
193	193	26
38	38	7
176	179	9
196	196	30
160	160	24
86	86	1
175	175	27
62	62	8
50	51	9
96	115	5
77	78	6
151	151	46
105	105	13
83	83	6
131	131	13
111	112	3
7	8	16
107	108	5
121	121	26
43	44	4
157	160	6
36	36	11
188	188	24
176	177	10
155	190	8
7	7	8
113	113	19
191	192	22
48	49	19
177	177	25
181	182	10
75	75	6
123	123	12
17	20	2
94	109	4
173	173	26
127	127	18
69	69	10
167	167	23
164	164	31
24	28	2
138	138	23
158	158	13
148	148	21
155	155	21
51	51	14
159	159	7
181	181	43
135	135	20
138	139	5
55	55	17
69	71	3
162	162	11
125	125	13
129	129	8
153	153	23
0	0	16
132	132	42
134	134	24
142	143	12
151	189	1
194	194	34
186	186	21
186	187	7
137	138	8
4	36	1
146	146	33
44	44	9
102	102	15
50	50	9
186	189	4
11	12	6
119	120	7
37	37	10
88	88	3
47	47	5
116	117	13
141	141	24
132	133	2
14	149	4
14	14	15
180	180	51
181	192	2
122	139	5
174	174	38
195	196	7
96	96	21
174	197	4
38	42	3
169	184	2
113	114	6
31	31	18
103	103	14
120	121	6
46	46	14
137	141	2
150	150	28
6	6	11
21	21	5
195	195	18
154	154	18
110	110	10
171	171	20
147	147	33
191	191	21
81	148	2
177	178	5
17	17	11
29	33	5
142	188	8
151	152	13
102	103	7
161	162	8
4	29	5
65	68	3
152	153	8
15	16	5
142	149	3
46	149	1
157	157	15
107	135	2
167	172	1
79	79	13
124	124	21
155	156	13
35	36	2
27	28	2
117	159	2
183	183	32
143	147	1
182	182	16
156	157	2
109	110	11
67	67	4
147	148	11
145	145	15
172	172	22
170	170	41
71	72	10
149	149	18
189	189	18
84	85	2
197	197	13
187	187	27
21	24	4
45	45	14
10	185	6
189	190	10
53	53	18
151	187	3
16	16	13
119	136	2
135	139	3
80	80	6
0	22	4
89	89	7
130	130	11
72	72	9
180	181	6
135	155	2
133	135	3
156	156	48
145	146	12
7	28	2
58	70	7
117	117	18
51	74	7
33	36	3
101	105	4
110	111	4
143	143	14
184	184	37
161	161	32
3	3	4
152	154	3
4	185	2
143	197	3
85	86	2
37	46	2
27	27	23
153	172	1
190	190	21
174	175	12
119	186	1
99	99	11
179	179	24
106	181	3
192	193	12
122	122	9
139	139	18
116	116	11
152	180	2
99	100	4
122	163	2
55	56	4
81	81	6
56	56	8
186	188	1
111	111	11
140	140	20
67	68	3
136	136	12
37	41	3
5	5	10
165	165	22
122	125	4
106	108	4
11	45	2
94	120	5
172	176	2
20	20	8
189	193	6
2	2	24
166	173	3
116	131	5
24	24	15
135	136	2
95	95	8
65	65	2
184	189	2
134	135	10
9	10	11
133	142	3
36	37	3
163	163	32
23	46	5
121	145	1
160	171	3
119	119	20
173	174	11
136	137	6
38	148	5
33	34	4
190	192	2
115	115	16
57	71	3
143	144	8
128	128	15
140	145	2
3	72	8
161	182	1
155	179	10
137	137	16
43	51	3
161	164	12
21	22	5
19	146	3
24	25	8
142	187	4
133	133	12
13	13	10
166	166	20
123	124	4
23	24	6
4	4	5
120	120	11
106	107	3
90	90	9
176	176	12
173	178	1
102	104	7
177	189	3
103	105	15
172	173	15
139	140	10
178	182	8
117	148	1
157	158	17
192	192	18
137	139	3
87	87	9
1	21	7
129	130	7
120	136	3
164	165	6
30	30	17
178	183	4
164	166	3
13	14	5
68	68	12
157	159	6
151	168	6
98	98	7
171	172	3
184	185	11
1	67	2
187	188	11
154	177	1
168	168	22
114	114	7
33	33	12
168	169	9
160	168	2
144	144	8
159	160	6
167	175	2
102	105	2
109	157	1
113	141	3
14	123	8
109	109	12
179	180	8
18	19	4
153	180	2
132	138	1
155	182	3
70	71	5
103	189	4
162	169	8
142	142	16
45	119	6
101	101	10
44	45	2
34	34	14
165	166	9
11	11	4
78	78	7
29	30	4
59	59	10
105	180	3
185	185	21
23	23	16
23	37	3
54	56	4
178	179	5
35	40	2
105	106	8
59	60	7
180	190	1
82	83	7
18	40	1
58	58	18
173	190	13
112	112	20
173	181	4
4	8	2
20	21	5
4	6	4
107	107	13
45	46	10
15	15	6
100	101	9
19	19	6
85	85	3
81	84	2
48	48	18
171	190	3
112	167	3
16	17	7
126	127	7
151	182	5
169	170	2
24	26	3
97	97	5
106	106	10
34	35	9
100	160	5
158	180	3
10	17	2
6	8	2
53	55	1
169	172	1
121	161	7
145	186	3
64	64	5
166	177	2
74	75	2
94	106	1
113	155	2
71	71	4
182	188	3
95	102	1
163	164	19
184	186	1
15	152	2
176	178	1
121	122	8
100	157	1
107	133	1
28	28	14
0	2	5
29	29	9
73	73	3
12	12	9
53	54	4
181	191	3
22	22	3
146	154	1
167	168	4
158	167	3
124	140	2
65	66	4
145	191	3
23	122	2
76	76	10
96	97	5
162	163	11
26	36	4
37	51	3
98	99	3
150	197	1
103	152	3
160	162	3
3	6	3
113	139	1
175	176	4
114	116	4
25	25	12
163	165	2
76	77	5
153	197	1
144	145	3
190	191	1
8	30	2
143	145	2
44	51	2
182	183	9
34	40	2
135	148	1
3	36	1
136	168	2
99	101	6
26	26	3
68	71	4
1	34	2
159	166	1
41	41	2
153	154	3
158	160	2
136	138	1
5	25	1
62	80	3
135	157	1
18	160	3
100	100	4
77	77	8
154	178	2
21	150	3
41	42	4
121	123	2
1	1	6
39	40	2
100	108	1
159	175	1
148	149	3
64	73	4
20	22	3
32	32	7
40	147	2
173	176	3
118	118	8
101	160	4
160	161	2
17	121	1
49	49	7
37	42	3
106	114	2
150	171	5
108	139	1
42	42	11
8	28	1
153	155	3
116	132	1
23	50	1
58	65	2
3	24	2
68	70	1
154	156	3
18	18	2
87	143	1
184	187	1
142	186	3
147	152	1
31	33	2
188	189	2
185	186	4
101	102	2
109	111	3
141	142	2
183	195	3
160	172	3
39	50	1
9	38	3
173	177	2
17	19	1
146	147	4
123	168	5
131	132	9
167	174	1
86	118	2
173	175	4
170	171	7
4	5	2
38	39	2
145	149	3
5	6	4
166	167	3
155	176	8
52	52	7
135	140	4
154	169	2
5	8	2
27	30	2
129	141	3
17	18	6
58	60	1
172	190	2
28	29	3
150	159	1
155	157	4
40	41	1
153	189	1
177	179	3
130	131	3
54	54	7
103	107	2
32	33	1
35	35	5
23	42	1
117	145	2
136	148	1
158	159	6
66	66	3
169	171	2
151	188	4
76	101	1
64	68	1
84	84	1
25	29	1
2	3	1
42	46	1
158	172	2
128	141	2
190	193	2
27	38	2
194	195	3
4	9	1
105	113	4
112	156	2
80	82	2
48	56	2
0	25	2
94	111	3
120	122	2
104	105	2
183	184	2
4	45	4
162	193	1
182	191	2
14	15	1
103	151	2
10	186	4
48	55	1
51	52	1
86	87	1
89	141	1
116	134	2
99	102	2
43	46	1
165	167	2
108	108	10
18	41	1
17	39	1
187	189	2
140	141	1
28	30	9
52	53	2
88	107	2
38	147	2
162	164	1
10	179	1
0	1	4
65	74	3
115	159	1
133	165	3
15	123	2
167	170	3
54	55	6
134	136	1
1	2	1
149	171	3
154	155	4
12	187	3
109	135	1
116	142	1
160	169	2
152	175	2
70	72	5
42	72	1
119	148	2
137	140	2
136	144	1
148	152	2
132	137	2
42	43	1
97	98	1
15	41	2
81	82	1
47	48	2
101	104	2
166	169	1
51	59	1
39	41	1
40	40	1
98	112	1
146	194	1
117	118	2
117	144	2
185	196	2
94	95	3
124	125	4
6	7	2
150	151	3
153	191	3
16	24	1
110	113	1
154	170	1
131	137	2
161	163	2
151	154	1
106	109	1
152	155	2
89	90	6
30	31	2
137	143	1
23	41	1
7	25	1
124	138	2
58	64	7
106	189	1
127	128	2
165	183	1
147	155	2
140	148	1
59	61	1
116	118	1
11	185	1
118	144	2
133	140	1
181	184	1
57	57	3
196	197	1
94	96	2
60	61	3
157	179	1
148	171	1
138	162	1
17	23	2
26	37	1
12	30	1
98	113	1
11	168	1
57	64	2
160	197	1
182	192	1
12	13	1
173	192	1
61	61	1
79	80	1
157	172	2
15	154	1
94	118	1
114	158	1
178	185	1
73	74	1
172	174	1
125	140	1
104	107	1
144	147	1
9	11	1
63	63	1
10	10	1
86	143	1
180	182	2
162	167	1
111	156	1
105	110	1
136	140	1
3	71	2
186	190	1
25	26	2
139	157	1
35	73	1
149	177	1
185	195	1
104	157	1
80	81	1
74	74	4
12	29	1
151	153	1
26	38	1
107	157	1
2	21	1
157	184	1
39	42	1
22	26	1
18	25	1
153	156	1
68	69	1
122	123	1
16	23	1
163	169	1
151	161	1
