51	51	7
93	93	19
102	102	19
50	51	6
96	101	2
75	76	7
83	83	8
30	30	15
51	52	8
57	57	7
33	33	6
70	73	11
64	64	11
50	50	17
109	110	14
22	22	13
90	90	13
33	48	2
64	66	6
97	99	4
55	55	5
78	79	7
83	85	5
41	42	4
42	44	8
107	107	11
92	92	20
86	86	6
29	30	3
71	71	19
80	86	1
62	64	6
42	42	13
84	95	1
69	69	20
62	62	13
59	61	8
57	62	4
21	43	6
43	43	7
45	45	5
28	29	3
61	61	4
98	98	23
70	70	16
77	77	14
105	105	16
67	67	5
36	39	1
46	46	9
109	109	16
58	63	2
60	60	12
61	62	10
84	84	10
65	65	16
76	76	24
106	106	8
31	31	21
94	94	6
36	36	3
85	85	16
45	46	5
62	67	3
95	95	11
75	75	23
20	28	2
20	20	6
48	49	11
105	106	6
77	78	7
101	101	5
90	93	2
55	56	5
75	77	5
24	55	1
104	105	3
20	22	4
24	24	3
56	56	15
88	88	12
34	34	14
38	39	3
53	53	10
68	68	9
113	113	7
87	87	8
41	43	3
52	53	6
52	52	11
66	67	7
99	100	5
114	114	22
64	65	5
73	73	21
49	50	9
20	29	2
33	69	2
59	59	12
73	75	7
47	48	8
78	81	10
47	49	17
91	91	17
67	104	2
54	61	2
47	89	4
57	58	8
24	59	4
57	61	7
82	82	15
27	28	2
60	66	1
74	74	16
84	98	3
21	25	2
113	114	3
73	91	5
107	110	2
71	95	2
57	63	8
103	106	1
90	92	1
100	100	8
59	62	3
39	39	10
99	101	3
56	57	16
22	25	1
79	79	12
104	104	6
32	33	5
60	74	5
96	96	9
103	104	9
60	110	3
25	25	7
68	106	5
82	84	2
110	110	31
111	111	9
79	91	2
91	94	3
74	75	11
79	82	4
38	38	5
79	80	3
74	76	7
66	69	4
99	99	11
72	72	13
78	78	15
77	97	3
53	68	4
68	69	9
36	37	3
107	108	8
100	101	15
84	90	3
43	44	6
80	80	8
57	66	1
40	40	2
94	95	4
112	112	12
21	21	9
91	93	6
69	103	2
44	45	3
19	19	8
97	98	9
23	23	8
112	113	6
67	71	1
81	81	8
34	65	2
86	89	2
110	111	2
30	50	3
44	44	12
20	43	4
30	45	1
43	46	2
80	98	2
66	66	6
87	91	2
58	58	8
97	97	12
99	102	1
81	86	1
83	84	1
71	73	3
106	108	1
33	34	3
86	87	3
92	103	4
70	71	2
49	49	3
66	70	1
56	58	1
76	79	1
85	86	1
63	67	1
32	32	3
27	67	4
41	45	2
20	61	2
64	67	3
76	77	4
64	76	2
27	27	2
91	92	3
54	62	2
47	51	1
86	95	4
103	107	2
87	88	3
82	97	2
93	95	1
53	59	2
71	88	3
42	43	3
103	103	7
98	100	2
41	41	5
63	63	4
88	90	1
95	96	3
65	66	3
88	89	5
56	59	2
58	60	6
80	97	1
26	26	1
35	35	8
38	41	5
106	107	6
73	74	2
25	27	2
82	83	4
30	31	1
92	93	1
34	97	2
59	70	3
87	90	3
89	90	2
20	21	1
28	28	10
68	70	1
72	73	10
67	68	3
47	52	3
63	64	1
29	29	5
111	113	1
72	107	2
94	96	1
58	61	3
19	64	1
69	70	5
41	44	2
21	27	2
86	96	4
31	32	1
72	109	2
60	73	1
85	95	2
96	97	1
19	61	2
66	68	1
82	85	3
54	54	4
63	109	2
26	27	1
63	68	4
56	110	1
56	63	1
47	47	8
90	91	1
56	61	1
62	63	2
67	106	2
84	99	1
37	39	1
37	37	4
89	95	2
21	28	2
67	70	2
32	34	1
23	58	1
39	40	1
71	94	1
72	91	1
111	112	1
24	60	2
101	102	2
50	109	1
104	106	4
72	96	1
108	108	4
81	82	3
90	94	1
71	90	1
61	104	1
81	83	1
25	26	1
73	92	1
22	24	1
89	89	1
101	103	3
93	94	2
48	48	1
29	34	1
71	107	1
72	75	3
98	99	1
58	59	3
82	87	2
68	103	2
67	69	1
90	103	1
110	113	2
80	88	1
59	63	1
40	41	1
105	107	1
21	22	1
