25	26	8
32	32	32
66	66	48
73	73	47
19	19	53
48	92	2
45	62	9
25	25	20
23	24	16
10	17	2
45	45	22
124	124	31
33	34	9
92	92	9
65	65	45
24	24	28
131	132	9
12	74	5
20	20	33
70	75	1
33	33	28
56	56	22
101	101	20
15	120	1
86	86	26
118	120	5
55	55	10
78	84	1
8	8	37
28	79	1
12	12	49
43	43	7
37	37	19
94	94	3
39	41	12
132	133	15
74	74	52
83	83	31
92	93	3
110	111	4
25	27	6
127	128	11
26	27	19
120	120	20
26	83	2
17	17	46
20	91	2
6	6	22
4	4	15
71	71	28
61	76	6
31	31	29
44	44	34
43	84	4
32	33	6
20	41	2
83	84	8
23	25	3
11	11	30
116	125	1
106	106	22
88	88	11
109	109	23
87	88	18
30	31	9
31	32	16
75	75	42
39	39	9
17	18	10
64	64	67
38	40	12
116	131	4
71	72	26
10	11	11
38	39	3
133	133	15
46	48	4
71	74	6
43	79	6
14	18	1
11	78	3
40	40	26
85	85	23
40	41	13
47	47	56
16	122	2
61	61	57
60	60	27
14	62	1
56	57	10
117	117	23
22	126	4
20	22	6
34	82	1
126	128	1
81	81	16
3	14	1
132	132	20
35	36	20
10	12	12
89	89	7
112	112	34
23	35	3
30	60	1
108	108	21
16	23	5
22	22	14
63	64	12
113	130	2
9	10	11
21	36	4
60	61	6
127	127	16
102	102	34
79	80	8
4	5	12
77	77	43
73	81	2
15	59	2
29	29	25
76	76	31
85	87	3
116	117	17
90	90	12
28	28	20
12	62	3
94	120	2
14	16	2
111	111	22
16	57	3
95	95	6
104	105	10
110	110	25
126	130	5
63	63	45
57	57	34
68	68	41
95	109	4
42	42	12
59	60	14
6	8	5
17	30	1
12	13	10
113	113	13
115	116	2
132	134	2
35	35	53
76	109	1
77	78	9
10	77	4
18	19	7
27	27	34
96	96	12
78	79	18
119	120	8
8	16	4
37	38	13
72	72	38
9	9	26
0	0	15
62	62	43
130	130	15
84	85	12
103	106	1
105	107	8
114	114	11
82	82	47
98	98	12
81	95	1
71	104	4
15	43	5
69	69	33
37	43	4
43	44	4
27	32	2
18	79	3
125	125	21
90	91	11
107	107	13
107	108	8
18	18	44
78	78	30
117	130	4
40	43	3
38	38	20
46	46	29
62	63	13
11	93	2
16	20	3
49	61	1
21	84	3
123	123	21
39	40	9
10	10	22
81	84	6
16	18	6
15	15	22
64	65	9
25	43	3
45	46	9
65	68	3
99	99	12
29	30	26
8	77	1
101	102	7
91	94	2
86	89	2
81	82	11
96	98	2
79	79	29
61	62	9
119	119	27
61	64	6
67	67	21
122	123	12
11	18	1
131	131	15
57	58	12
91	91	15
20	80	2
87	87	11
97	97	2
15	23	5
78	121	1
58	58	29
80	80	22
59	59	28
83	133	2
45	64	2
14	15	3
117	123	6
16	16	27
104	104	8
5	5	11
39	82	3
88	94	2
48	83	5
0	1	3
122	124	3
116	116	23
0	65	4
30	30	19
11	26	1
24	43	4
97	98	3
13	33	4
2	18	6
44	45	6
38	82	3
100	101	6
13	13	11
36	36	23
128	129	3
96	99	3
73	74	8
107	124	2
8	9	10
114	116	9
34	34	32
35	42	3
43	72	2
88	92	1
46	77	3
36	37	17
2	3	2
112	113	5
14	20	3
112	116	2
106	107	5
105	105	6
17	20	4
9	71	1
111	112	13
11	12	13
70	70	20
85	86	13
82	83	24
75	76	5
51	51	2
121	122	8
83	85	5
9	11	5
61	73	1
128	128	15
21	26	3
41	41	15
59	82	1
71	97	2
124	125	6
6	18	2
70	71	16
7	7	8
3	3	12
14	14	18
20	21	6
79	82	2
86	87	6
86	94	2
123	124	8
118	119	3
81	103	3
82	86	2
23	27	5
88	89	3
15	24	4
24	25	4
97	99	4
79	92	1
63	86	2
1	1	12
75	83	3
88	101	2
63	75	5
94	95	4
102	103	9
118	118	17
45	58	3
32	78	2
66	68	3
76	77	6
97	109	2
0	12	2
32	113	4
46	47	13
100	100	5
96	100	1
46	61	6
34	35	12
79	81	12
126	129	3
126	127	3
68	69	9
103	107	2
2	2	15
110	113	4
121	121	7
46	70	2
47	74	2
98	99	7
103	103	6
69	70	13
47	76	3
35	66	2
21	21	14
15	16	8
57	59	3
13	14	7
110	129	5
73	78	3
26	26	19
58	59	9
12	61	2
112	114	3
103	104	4
79	115	1
62	74	3
37	39	3
59	62	3
93	93	8
126	126	12
130	133	1
90	93	9
5	6	17
84	87	3
36	41	2
28	29	5
3	6	1
33	44	2
90	92	4
42	43	5
99	100	4
17	19	1
81	85	2
29	79	4
19	21	2
50	50	13
21	35	2
129	134	3
85	94	1
39	42	2
45	126	4
40	81	2
21	43	3
48	48	15
51	55	1
43	80	5
86	107	1
63	120	3
20	39	1
25	77	6
36	125	3
45	124	1
29	61	1
33	47	3
128	134	2
113	114	7
84	84	13
14	117	1
67	68	5
6	7	1
74	75	4
110	130	1
105	106	1
72	75	3
23	23	8
37	83	1
119	132	2
83	86	3
43	83	7
34	36	3
25	46	2
76	123	1
21	22	6
80	81	4
129	129	20
27	29	5
27	78	3
46	119	3
33	80	1
36	46	3
71	119	2
26	43	3
63	84	1
102	107	3
93	95	3
35	55	2
66	67	4
55	58	1
133	134	4
115	115	12
35	75	4
85	124	3
86	123	1
71	102	2
107	109	1
18	36	2
16	121	2
128	131	1
72	73	9
82	88	3
103	124	4
20	26	1
13	62	4
13	17	4
33	46	4
48	49	2
40	42	6
69	117	3
96	97	6
47	83	2
34	76	3
86	119	1
120	122	5
25	48	1
16	30	3
109	116	3
47	77	2
82	85	2
131	133	3
134	134	9
72	74	2
29	32	2
20	37	5
117	118	3
32	80	2
122	122	8
110	115	1
109	110	11
41	43	2
103	105	8
35	39	3
112	127	1
32	47	1
107	116	1
63	74	3
49	50	2
60	81	1
115	133	2
89	121	1
20	33	1
124	126	2
41	44	3
97	100	2
10	37	1
11	65	3
55	56	8
30	32	3
9	12	3
65	66	2
8	17	4
130	131	6
75	117	1
44	119	3
3	4	7
98	106	3
15	27	2
54	56	1
92	110	1
60	73	3
46	67	3
17	74	1
43	121	2
111	114	1
20	29	4
42	83	5
32	59	1
102	124	2
17	79	3
20	122	2
41	48	1
19	114	2
81	100	2
43	78	2
27	31	1
17	35	1
35	63	3
27	81	4
61	77	2
76	85	1
117	125	2
10	57	3
55	57	1
21	39	2
65	117	1
127	133	2
114	115	4
27	28	2
4	8	3
116	130	4
64	120	2
96	121	1
19	76	4
14	23	3
78	80	7
36	38	2
36	43	5
110	120	1
77	79	1
102	104	3
56	58	3
73	122	1
71	118	1
93	99	3
19	36	2
108	116	1
20	121	3
35	43	4
5	116	1
28	30	1
112	123	1
61	74	1
99	103	1
7	37	1
65	74	1
86	92	2
8	72	2
33	45	1
101	116	1
87	95	1
8	15	2
21	75	3
19	22	2
33	82	4
19	33	1
23	34	3
37	42	3
37	40	1
91	93	1
41	42	6
25	32	3
69	72	1
96	109	3
93	94	2
19	23	2
37	57	3
12	63	2
29	31	3
12	46	1
93	106	1
77	83	1
77	111	2
67	73	2
9	33	2
4	128	2
110	131	1
18	45	2
16	19	2
19	20	1
68	72	2
114	130	1
80	107	1
7	75	2
32	81	2
11	72	2
17	72	1
27	60	1
23	26	1
31	33	2
89	92	2
70	122	2
5	23	1
59	80	1
46	62	2
44	62	1
26	82	1
24	33	1
104	107	1
19	75	1
8	11	1
20	23	1
8	56	2
108	122	1
22	25	2
28	33	1
10	20	1
9	13	2
47	48	5
78	91	1
17	78	1
69	121	1
95	96	3
20	32	2
4	129	1
129	130	1
16	17	2
86	109	2
1	2	1
45	59	1
31	80	2
78	86	1
107	110	1
1	17	2
45	72	1
87	121	1
45	47	2
75	122	1
71	120	2
94	111	1
12	72	1
87	89	2
74	125	4
87	103	2
35	76	1
40	83	1
8	86	2
31	91	2
9	46	2
25	82	3
27	77	2
6	34	1
4	16	1
91	92	1
34	84	1
45	77	1
32	36	1
130	134	1
36	83	1
48	61	2
96	108	1
87	94	2
2	13	2
31	43	1
20	35	1
108	109	1
45	48	3
20	61	1
7	8	1
16	120	1
15	22	1
88	97	1
99	101	1
113	126	1
12	17	1
107	123	1
25	64	1
97	110	1
1	46	1
25	47	1
20	60	1
16	21	1
125	126	1
9	112	1
14	24	1
40	87	1
18	101	1
18	119	1
34	123	1
48	63	1
4	19	1
29	60	1
88	91	1
83	87	1
7	35	1
89	90	1
