194	194	8
166	167	1
21	21	6
60	60	8
74	74	7
43	49	1
57	57	7
143	143	7
78	78	1
9	9	7
38	55	2
169	169	7
103	103	4
29	60	2
179	179	5
166	166	9
219	219	7
0	1	3
153	163	1
69	73	1
15	16	4
208	208	10
70	72	2
198	198	5
84	84	7
209	209	8
220	220	1
72	97	2
218	219	6
15	41	8
84	139	3
37	37	8
30	30	5
24	24	15
10	36	2
121	121	3
216	216	7
17	21	2
35	35	2
34	76	2
8	19	1
70	71	5
104	104	1
200	203	2
34	35	2
120	122	3
221	232	2
201	201	7
169	171	5
68	68	4
204	204	7
13	14	2
234	238	1
205	206	7
21	22	7
111	111	2
7	7	2
3	3	5
16	20	3
45	46	6
75	75	2
134	179	4
101	101	3
239	239	1
114	115	2
173	175	1
119	120	5
28	28	15
71	71	10
29	29	3
36	37	3
73	73	9
146	146	9
224	224	5
64	65	4
188	189	4
241	241	1
64	64	11
1	1	5
49	49	5
187	189	2
11	15	1
183	183	4
86	86	10
201	214	4
46	46	8
175	175	1
23	40	4
227	227	5
54	54	1
228	231	2
103	104	1
194	196	3
39	39	10
224	225	6
195	201	5
205	205	7
222	228	2
164	236	2
209	210	5
147	148	3
170	170	7
65	68	1
214	214	4
61	61	4
12	48	1
47	47	4
55	55	5
118	119	1
238	238	2
105	105	1
152	153	3
36	57	2
170	171	3
158	158	4
196	196	3
199	199	2
190	190	6
221	221	6
132	134	2
232	233	2
149	149	2
72	101	2
81	81	4
41	41	2
151	151	2
150	150	4
145	145	4
156	157	2
120	120	4
185	185	4
8	31	2
150	152	1
162	162	6
7	16	1
191	192	3
164	164	8
228	228	7
56	56	6
8	8	4
214	215	4
62	62	14
59	59	6
144	144	5
181	181	6
207	207	1
124	124	6
31	33	1
200	211	3
7	8	11
17	19	2
36	36	4
56	62	1
100	101	3
89	89	1
186	186	3
36	43	5
113	113	4
147	147	3
163	163	4
8	13	1
223	223	1
45	45	5
231	231	4
117	117	1
6	7	3
11	11	3
4	4	2
69	69	11
33	33	2
15	15	6
23	24	2
184	185	3
167	167	3
156	158	1
177	177	4
130	160	1
142	143	3
99	99	2
76	76	2
208	209	2
192	192	4
103	105	7
24	25	5
204	206	1
130	130	2
28	55	3
131	131	5
137	139	3
168	168	3
133	170	3
235	235	3
10	11	2
180	180	7
213	213	4
217	217	5
44	47	6
63	64	3
67	68	3
43	54	1
226	227	2
22	22	2
67	146	2
100	100	5
70	70	1
42	52	1
181	196	2
228	229	1
88	217	1
85	86	1
83	136	3
171	171	1
114	119	6
67	67	7
189	189	2
32	32	6
185	225	1
184	184	1
174	174	3
188	188	4
65	66	1
198	200	1
37	38	4
130	153	2
37	42	2
217	218	4
135	136	2
227	229	2
18	18	4
187	188	1
201	202	2
207	208	5
237	237	10
52	53	3
46	47	4
160	160	1
46	62	2
40	40	6
203	204	5
56	61	4
23	23	3
19	19	5
199	200	2
38	38	3
16	16	3
39	42	5
98	98	4
102	105	1
174	175	1
43	47	1
25	65	1
203	203	3
12	52	3
31	31	4
29	30	3
22	23	1
25	25	3
72	73	2
138	139	5
63	63	7
119	148	1
39	41	1
192	193	2
102	102	4
21	23	4
152	152	1
234	234	3
202	202	5
178	182	4
119	174	2
174	190	3
74	103	1
0	0	2
149	150	2
125	126	3
119	149	2
140	141	1
34	34	4
77	133	2
135	135	3
159	159	3
45	50	4
12	12	6
198	199	2
232	232	2
42	42	4
12	15	1
97	97	4
156	156	2
9	36	1
182	190	1
210	212	1
44	44	5
2	2	2
32	64	1
240	240	3
85	85	6
1	15	1
195	195	2
26	26	6
13	13	2
86	88	3
135	137	2
218	218	2
133	176	1
4	7	3
226	226	3
127	127	2
52	52	4
236	236	6
45	47	2
15	52	1
88	88	3
173	173	2
185	186	2
119	151	1
40	41	2
49	50	1
106	106	4
200	201	4
110	114	4
48	48	5
82	82	1
141	143	1
187	187	1
176	177	2
136	136	1
215	216	2
171	172	3
53	53	7
66	74	1
109	109	2
45	53	2
95	95	1
99	100	1
9	10	1
134	172	1
71	74	1
201	215	2
43	43	7
140	140	1
178	179	1
220	221	3
35	36	2
42	62	1
197	197	3
76	77	5
126	126	3
210	210	1
17	17	1
40	42	1
234	235	1
242	242	4
212	215	1
15	36	1
68	69	2
175	179	1
140	143	2
139	140	2
11	17	2
155	155	5
223	224	2
133	134	2
222	223	2
69	70	4
38	72	3
20	20	8
102	106	1
133	173	1
182	191	1
122	128	2
1	2	1
10	10	6
8	178	2
206	206	1
18	19	3
51	51	2
154	154	4
230	230	2
196	199	3
3	4	1
236	237	2
161	161	6
50	134	1
58	59	1
85	109	2
84	88	1
182	196	2
107	108	2
44	135	1
189	190	2
30	31	1
178	180	2
172	184	1
99	115	1
137	137	5
139	139	2
172	172	1
107	107	1
211	211	1
132	132	1
188	190	2
58	60	1
50	51	3
223	226	2
159	160	3
55	59	2
191	191	6
114	114	1
87	88	2
74	134	1
83	84	1
167	168	1
173	174	1
23	54	1
137	138	1
211	216	1
53	54	1
12	34	2
11	13	1
142	145	1
28	45	1
3	34	1
58	65	2
176	176	2
197	198	1
233	233	1
148	148	2
115	116	2
31	36	2
160	161	2
31	57	1
168	169	1
229	229	2
108	109	2
44	45	2
179	180	1
158	161	1
39	40	1
165	165	1
14	52	1
112	112	1
195	196	2
7	10	1
202	216	1
138	138	1
200	200	3
148	149	1
73	97	3
195	198	1
128	128	1
156	161	1
11	177	1
210	211	2
122	122	1
79	79	3
27	28	1
65	65	6
14	16	1
180	210	1
4	18	1
78	79	1
109	113	1
65	74	2
232	236	1
110	118	1
42	43	2
119	119	1
179	199	1
4	34	1
134	134	2
115	115	2
101	102	1
177	178	1
57	58	2
162	164	1
153	156	1
54	65	1
18	30	1
88	101	1
170	172	1
4	6	1
102	229	1
72	72	1
38	42	1
50	50	1
16	17	1
29	39	1
103	123	1
96	96	1
25	26	1
2	9	1
106	108	1
232	235	1
146	147	3
225	225	1
115	138	1
103	106	1
7	9	1
239	240	1
144	146	1
128	129	1
72	111	1
68	73	1
230	231	1
120	121	1
79	80	1
66	67	1
165	166	1
58	58	1
153	153	1
32	33	1
231	232	1
