11	27	6
124	124	8
38	38	20
94	95	4
58	58	8
95	95	23
80	80	13
129	129	6
122	123	1
130	131	3
75	75	23
55	56	5
26	26	25
71	71	10
91	91	11
86	86	13
39	56	3
65	65	19
32	64	2
29	83	3
120	120	19
47	47	20
30	31	1
117	118	2
84	89	4
126	126	18
96	96	17
14	14	14
26	82	4
60	79	2
5	70	5
103	104	3
64	74	2
97	97	3
113	114	6
129	130	12
7	7	20
93	93	24
34	34	40
87	87	18
19	19	15
68	68	16
39	41	9
38	55	2
44	44	6
75	77	2
59	59	14
33	34	9
128	129	6
32	32	22
105	105	4
84	84	10
8	8	13
100	100	11
115	115	9
19	60	2
7	65	4
61	61	8
84	85	8
73	101	2
63	64	8
65	66	3
123	123	11
63	63	16
60	60	36
66	66	16
85	85	28
102	103	7
77	80	2
30	30	9
120	121	1
13	13	4
102	102	8
30	34	2
20	22	2
94	94	15
9	45	2
10	11	7
45	45	18
0	0	9
9	10	10
57	57	3
78	78	5
29	29	14
62	62	13
67	67	10
82	82	6
98	102	3
56	59	1
43	82	3
117	117	11
74	74	31
114	114	12
76	76	10
64	65	9
19	37	4
62	64	2
77	77	11
9	9	13
3	3	13
103	103	7
40	42	3
41	49	4
12	12	24
2	101	5
25	25	12
115	129	2
104	105	5
99	99	5
64	64	8
26	62	3
89	92	2
101	101	19
61	75	8
134	134	1
33	33	9
17	18	6
110	110	27
45	76	1
10	10	15
12	16	1
11	11	22
4	5	1
97	129	6
44	82	2
46	46	15
83	83	13
119	130	3
5	7	4
32	33	4
3	4	5
11	36	2
117	119	1
18	19	9
93	95	5
40	41	2
29	49	1
3	102	2
7	45	2
77	78	3
116	123	7
23	23	5
69	69	13
21	21	12
96	97	1
108	108	5
79	79	6
90	90	4
70	70	5
17	81	1
80	81	2
29	60	3
111	111	16
67	68	4
64	68	3
73	73	12
2	3	3
0	1	10
131	134	10
25	26	5
48	48	4
59	60	12
133	133	5
60	61	2
42	43	3
14	18	5
78	79	8
17	19	2
85	86	9
15	23	3
20	20	6
16	58	3
78	80	6
21	58	1
31	31	7
10	85	4
47	48	7
13	29	1
121	121	11
128	128	15
16	86	3
34	35	11
2	4	2
29	31	5
81	81	13
3	93	5
73	74	8
41	45	4
79	80	6
31	32	4
15	17	4
74	75	4
38	42	1
122	122	3
106	107	7
109	110	3
38	83	1
35	47	2
14	15	6
31	34	1
16	17	4
90	92	8
11	35	3
69	75	1
100	102	1
122	129	3
71	72	7
3	101	1
121	122	2
86	96	1
29	47	2
35	36	8
6	8	2
8	10	5
100	101	5
16	16	7
14	16	2
21	45	1
20	21	4
4	4	9
108	109	4
20	28	2
19	35	5
87	109	3
98	99	4
87	107	2
27	27	11
28	28	4
116	116	4
35	77	2
107	107	11
112	113	4
124	127	2
44	45	5
110	111	11
41	43	2
119	119	12
35	74	4
44	62	5
61	65	3
46	47	5
81	82	4
27	47	1
86	87	8
29	46	2
48	49	2
15	15	3
20	61	3
18	18	10
132	133	4
45	62	2
127	134	2
95	96	4
5	5	3
32	47	2
35	35	2
6	6	3
124	126	1
17	23	4
34	76	2
76	77	5
4	94	1
43	45	2
40	40	5
2	2	5
87	88	1
26	27	9
34	36	2
92	93	5
27	28	7
123	124	7
121	123	1
58	59	3
62	65	1
8	9	5
98	127	2
11	93	2
125	125	5
12	13	8
20	60	2
17	48	1
68	70	1
12	14	1
61	63	5
42	42	1
131	133	2
37	38	3
113	113	6
49	49	2
38	40	2
98	98	11
96	99	1
35	68	3
22	23	2
27	92	2
92	92	3
128	130	3
99	100	8
114	115	2
28	29	2
109	109	4
41	44	6
124	125	1
118	118	10
70	71	1
37	81	2
18	20	2
64	67	1
82	83	7
98	101	3
105	106	5
125	131	3
38	81	5
85	91	2
112	115	1
27	60	4
112	112	5
127	127	2
60	62	1
127	128	3
83	84	2
115	116	4
76	78	3
72	72	6
57	59	6
16	48	2
19	61	1
61	86	1
18	48	2
24	24	2
73	98	1
66	83	2
39	82	3
22	24	2
64	72	2
88	103	1
78	81	4
65	74	1
119	120	4
21	25	2
39	40	2
15	18	2
132	132	3
106	106	3
69	77	3
130	134	1
83	90	1
93	94	4
109	131	3
68	69	5
36	37	2
45	46	3
4	44	2
17	17	5
23	26	1
94	104	2
14	23	2
97	127	1
99	112	1
26	93	3
8	36	1
111	112	2
116	117	4
10	20	1
13	61	2
126	127	3
111	114	1
16	36	3
69	70	2
118	131	2
37	37	3
100	103	2
25	29	4
20	29	1
16	93	2
45	90	1
120	122	2
79	81	3
55	55	1
109	111	2
123	128	1
13	46	2
19	62	1
6	7	2
122	124	1
26	92	2
101	127	1
80	82	2
61	82	2
126	134	1
61	66	1
15	16	1
45	63	2
41	41	4
22	27	2
65	73	1
36	36	7
25	48	2
24	82	3
131	131	1
108	110	1
62	67	3
26	47	1
54	54	1
22	22	2
88	89	2
121	129	1
56	57	2
25	47	2
6	62	2
11	71	1
21	37	1
46	85	1
68	72	1
62	63	1
6	95	1
9	75	3
74	76	1
4	6	1
46	67	1
55	58	1
7	33	1
47	72	1
90	91	1
21	38	1
97	99	2
12	77	1
42	84	1
16	32	2
4	20	1
97	98	1
46	62	1
28	91	1
108	131	2
104	106	1
23	74	1
59	62	1
43	43	2
10	14	3
104	118	1
120	124	1
96	100	2
26	48	1
27	32	1
66	72	1
23	27	1
8	18	1
10	12	1
8	76	1
41	42	1
57	85	1
25	62	1
46	72	1
91	92	1
118	119	1
3	94	1
36	77	1
131	132	1
22	36	1
17	65	1
25	75	1
85	90	1
6	43	1
72	74	1
