54	54	2
30	31	5
47	47	4
38	38	11
35	36	6
12	20	3
37	37	1
59	70	1
41	52	2
44	44	9
56	60	5
5	6	4
10	10	4
59	59	8
35	35	8
37	38	8
40	40	7
10	11	3
69	73	2
70	74	2
36	48	2
29	61	2
41	41	4
64	64	3
5	36	2
36	36	3
56	56	10
49	49	11
66	66	9
57	59	1
37	40	2
50	62	4
33	33	9
44	50	4
66	67	2
8	8	2
33	59	3
21	21	14
65	65	10
68	76	6
72	74	2
7	7	14
46	46	2
25	27	2
13	13	7
0	1	7
12	12	4
4	4	6
20	21	2
67	67	3
25	25	5
50	50	3
54	55	1
52	52	2
1	35	1
24	24	12
36	49	2
6	32	1
61	64	1
65	67	10
23	23	11
37	39	6
31	31	11
58	67	2
50	51	1
75	75	3
32	49	7
11	11	4
29	30	2
44	45	7
74	75	1
21	52	5
2	2	11
49	50	3
0	0	8
3	18	1
1	3	3
53	69	3
70	70	7
2	38	4
73	73	13
9	9	4
44	46	1
45	45	12
31	53	2
43	43	9
19	21	3
6	74	3
9	19	6
68	68	6
3	3	13
30	40	6
68	70	4
70	71	5
58	58	7
70	76	1
53	59	2
60	60	4
52	53	3
24	26	2
50	67	2
71	74	6
1	1	6
48	61	1
55	55	7
48	49	2
37	51	2
26	40	1
26	57	1
48	48	8
47	54	2
8	20	3
31	32	3
14	39	2
22	51	2
18	20	5
72	73	6
32	46	2
22	50	3
32	33	2
30	41	3
53	72	2
55	56	1
30	43	2
5	5	1
32	32	9
21	22	2
70	72	5
62	63	8
51	54	3
23	26	1
19	19	3
57	57	7
21	29	2
28	28	4
69	69	6
39	39	1
27	28	1
73	76	1
71	73	1
70	77	2
53	53	6
49	63	1
9	12	2
13	14	4
1	10	4
34	39	3
21	23	2
51	68	2
61	68	3
59	73	3
0	47	1
61	61	9
62	62	5
45	59	1
29	29	6
64	65	2
57	70	1
4	77	1
22	22	6
41	42	1
38	54	1
22	67	2
52	59	1
34	34	1
6	6	9
67	69	1
47	48	1
30	30	2
74	77	1
45	47	1
39	40	2
41	50	3
29	73	2
47	58	2
25	26	4
26	26	3
18	42	1
19	20	5
53	66	1
35	37	1
32	47	1
2	11	2
56	57	5
30	38	1
40	70	1
6	8	2
27	29	3
58	59	2
29	70	1
76	76	1
51	52	1
23	24	2
5	37	4
52	54	3
1	5	1
74	74	2
71	72	2
7	11	1
26	27	1
27	27	4
45	49	2
40	42	1
53	73	1
25	38	1
42	45	2
1	2	1
43	45	2
62	68	1
42	52	1
35	42	2
5	15	1
31	40	2
6	7	1
2	5	1
28	29	1
1	4	1
32	48	1
38	67	1
76	77	1
49	54	2
34	35	1
40	65	1
42	43	1
3	4	1
33	56	1
23	48	1
2	57	1
20	20	1
53	67	1
54	58	1
20	46	1
48	60	1
43	44	2
27	50	1
42	44	1
72	72	1
