131	131	5
95	95	3
127	127	4
72	73	2
21	21	2
87	87	5
99	100	2
123	123	8
73	73	4
30	32	2
25	26	8
132	132	1
103	103	7
23	83	2
74	75	3
119	120	6
122	123	3
92	93	5
4	36	1
118	140	2
10	10	7
75	86	3
18	18	5
82	92	4
78	78	8
123	130	1
135	135	6
97	97	3
96	96	2
13	13	9
77	77	4
106	106	10
0	0	2
120	120	7
108	111	2
80	109	3
31	31	2
3	5	2
19	19	8
17	17	2
82	82	3
104	105	2
116	116	7
124	124	3
130	138	2
1	1	3
140	140	3
74	74	8
109	110	4
14	14	4
20	20	2
121	122	5
80	80	4
22	25	2
21	33	3
105	105	5
80	85	3
16	16	5
109	109	6
15	15	3
29	29	5
116	122	1
19	27	1
22	22	4
113	116	1
118	119	4
76	76	5
102	121	2
112	112	3
137	137	3
4	4	4
10	11	5
6	25	3
119	119	5
134	134	2
7	12	4
79	104	1
35	36	2
113	114	2
101	101	2
119	123	2
98	98	3
94	103	2
113	123	2
129	129	4
128	129	4
0	1	1
119	122	4
15	16	3
10	30	1
18	19	3
117	119	4
113	122	4
86	128	2
130	130	6
13	37	5
79	79	3
85	85	4
133	136	4
116	124	1
9	30	3
6	6	2
93	94	1
101	106	6
83	83	2
21	27	2
25	28	1
114	114	1
7	7	2
3	3	5
128	128	1
132	133	1
35	35	4
74	137	1
92	103	1
133	133	9
123	128	2
3	10	2
125	125	11
36	37	5
133	138	4
33	33	5
7	8	1
122	128	1
125	126	1
77	78	3
121	121	1
107	107	1
123	137	3
97	98	2
20	21	2
89	89	1
77	118	3
5	5	6
25	25	3
26	26	5
36	36	3
81	84	2
32	32	2
81	85	1
27	28	3
22	24	1
14	17	3
75	75	2
124	127	1
132	136	3
11	11	3
123	129	1
118	118	6
79	118	2
131	132	1
111	112	1
79	80	3
108	108	2
30	30	2
73	74	1
110	110	2
83	92	1
19	22	3
122	122	2
115	115	3
138	138	1
81	86	2
16	17	3
85	104	4
111	111	4
85	86	1
23	23	3
5	37	1
136	136	2
9	9	2
117	123	4
4	6	1
14	26	2
120	121	4
105	106	1
82	85	1
92	92	1
28	28	2
15	17	2
84	86	1
97	112	1
37	37	1
120	122	2
71	96	1
127	129	1
36	95	3
28	29	2
0	3	1
78	79	3
107	109	1
76	77	1
99	112	1
83	85	1
2	12	1
100	125	1
125	135	1
80	107	1
21	68	1
89	90	1
115	137	1
104	119	2
7	26	3
113	113	1
102	103	1
21	26	2
2	26	2
33	36	1
4	37	1
1	4	1
6	12	1
11	14	1
117	118	1
15	26	1
115	136	1
81	83	1
126	126	1
116	117	1
101	104	1
6	7	1
27	27	1
