97	97	6
107	109	3
36	76	2
6	6	12
105	106	6
106	107	5
105	108	4
74	125	1
131	131	25
126	130	4
29	48	1
118	118	10
83	84	1
102	102	10
72	73	3
93	93	12
48	48	18
138	138	11
144	144	20
80	80	17
59	60	4
29	130	2
22	22	17
106	108	1
99	99	1
106	106	6
136	136	9
130	131	4
134	140	3
142	142	13
4	5	3
26	26	8
49	49	5
123	124	11
51	51	11
141	141	15
120	140	4
120	120	11
26	28	3
133	140	4
4	4	13
114	114	10
120	121	11
64	70	4
78	78	8
59	130	6
30	30	7
82	82	5
133	133	16
18	18	16
129	129	18
61	61	10
66	66	14
22	40	2
0	0	3
124	124	16
96	96	12
132	141	3
87	87	5
72	74	5
145	145	9
33	33	17
104	121	3
42	42	19
133	134	4
119	120	8
9	9	9
99	100	5
101	101	7
24	24	15
31	31	6
98	119	6
128	129	8
53	53	17
134	134	24
61	64	2
105	123	3
54	54	11
123	128	1
66	67	4
131	134	2
35	35	7
107	108	4
13	13	2
12	12	4
29	29	16
124	125	10
19	20	3
104	104	13
89	90	5
31	32	8
143	144	6
137	137	14
143	143	14
140	141	11
89	89	4
98	112	1
70	70	7
103	136	2
139	140	6
114	115	6
59	59	9
73	73	12
86	86	5
62	62	9
126	133	3
16	16	14
55	55	12
30	31	7
63	63	5
125	125	15
23	23	13
131	132	2
25	25	10
126	126	15
129	141	2
75	75	5
3	3	6
10	10	7
19	19	10
34	34	8
66	68	5
11	28	2
13	14	4
47	49	3
139	139	3
142	144	4
34	36	3
38	39	9
133	135	4
132	132	11
50	50	6
8	10	3
103	103	8
59	88	1
85	85	2
97	112	1
40	40	12
105	105	2
60	60	12
68	68	8
136	139	2
98	98	6
49	50	3
107	112	2
116	116	2
133	137	3
65	65	6
67	68	6
82	83	10
67	69	7
58	59	6
49	51	4
32	32	16
95	126	3
79	79	4
27	52	1
127	127	9
46	64	3
102	104	6
42	59	1
9	74	1
93	94	3
49	87	4
39	41	6
41	41	13
126	127	2
76	76	7
35	77	2
14	15	1
94	94	11
114	136	4
52	52	12
36	36	3
17	17	9
18	19	1
115	117	2
136	138	11
32	33	5
100	102	1
141	142	8
5	6	3
71	71	12
38	38	8
89	94	1
74	74	4
127	128	1
34	37	3
114	117	2
100	127	1
119	119	20
72	76	4
28	28	14
122	123	2
17	18	9
53	54	6
128	128	5
11	13	1
76	77	3
98	99	4
134	135	4
124	130	2
43	53	2
78	87	1
20	20	3
92	92	16
43	43	6
109	109	6
63	145	4
92	94	1
25	48	9
0	1	8
112	112	9
42	49	2
108	108	7
37	37	10
20	25	2
132	140	1
135	135	13
57	57	5
125	128	1
135	136	7
64	64	6
40	41	3
73	122	1
39	39	5
114	122	3
46	47	1
90	90	14
111	139	1
111	111	1
87	88	3
116	121	2
77	78	1
27	40	1
78	79	4
9	41	2
14	14	6
74	98	5
21	21	7
140	142	2
130	130	3
34	135	1
95	96	6
16	17	4
100	100	5
27	27	3
12	13	2
95	97	2
10	11	2
110	110	3
113	129	4
70	76	4
93	114	1
37	38	2
47	47	5
11	11	3
25	26	3
5	5	8
117	127	3
10	18	3
145	146	1
84	86	2
21	22	1
60	61	5
26	27	7
3	4	1
24	26	6
36	37	4
76	97	1
61	103	1
117	117	6
128	133	1
64	98	6
9	19	2
62	63	3
123	123	7
43	49	1
26	35	1
54	69	3
117	118	3
142	143	4
74	139	1
88	89	2
113	113	10
56	64	1
82	91	1
1	5	2
8	9	2
87	89	1
37	134	1
122	122	1
1	1	2
81	81	6
36	54	1
72	72	2
50	51	6
97	115	3
28	143	1
6	23	1
134	144	1
80	81	2
67	70	1
70	72	3
100	101	2
30	36	2
136	137	7
3	5	3
107	111	1
28	29	1
57	58	2
68	70	3
108	109	3
107	118	2
31	37	1
121	140	2
63	66	2
101	102	2
87	91	2
112	113	1
30	66	3
126	128	1
123	125	1
58	58	6
73	93	1
137	139	1
10	90	2
72	120	2
121	122	5
53	72	2
67	67	7
2	2	7
40	56	1
111	113	1
8	8	5
92	93	2
21	40	2
71	72	1
95	128	2
118	119	3
77	77	1
18	25	1
144	145	2
112	116	1
23	24	3
99	101	1
72	123	1
88	90	1
95	95	2
86	87	1
99	120	1
111	112	5
56	57	1
69	71	1
21	39	1
116	126	1
125	127	2
128	131	1
75	96	1
22	23	2
116	118	1
120	123	4
15	16	1
68	71	1
89	91	1
113	115	1
69	69	2
109	137	2
107	107	2
39	40	1
121	121	2
120	127	1
137	138	2
15	15	2
116	117	3
55	66	1
121	125	1
75	76	2
10	66	2
117	144	1
115	115	1
42	56	2
53	58	1
87	114	1
62	64	1
49	79	1
2	5	2
59	62	1
70	71	1
97	98	2
48	87	2
92	104	1
108	121	1
91	91	1
12	18	2
88	114	2
96	97	2
82	126	1
1	3	2
128	143	1
101	103	1
67	96	1
99	124	1
64	65	2
75	124	1
36	47	2
71	141	1
119	136	1
92	125	1
73	74	1
87	113	2
102	103	2
135	137	2
128	130	1
140	140	1
4	11	1
6	28	1
24	27	1
127	142	1
33	34	1
74	75	1
94	119	1
57	61	1
134	137	1
9	86	1
69	70	1
79	80	2
2	3	1
64	72	1
51	85	1
