166	166	21
134	134	9
0	0	17
127	127	12
74	74	19
83	83	13
9	9	10
120	120	7
173	174	4
39	40	3
4	4	13
51	142	5
114	115	8
178	178	20
4	41	1
69	90	1
122	146	4
59	59	13
190	190	19
7	7	9
158	158	21
185	185	19
193	193	21
64	64	12
114	114	11
40	58	3
33	38	1
49	49	14
12	152	1
40	41	9
35	35	14
42	68	3
20	21	3
197	197	10
30	30	12
105	105	7
119	120	4
115	115	9
196	196	19
18	18	15
154	154	13
58	58	14
180	197	7
24	24	3
185	190	3
144	145	3
119	119	8
20	27	3
99	138	6
28	39	5
85	85	8
101	101	4
83	84	7
96	98	2
70	71	2
102	102	9
57	57	17
43	43	6
78	78	5
140	141	4
152	189	2
56	56	7
123	123	6
153	153	16
194	195	3
87	113	1
145	146	9
159	178	2
50	50	25
72	87	1
149	189	3
89	89	14
181	182	5
191	191	23
179	179	7
157	161	1
113	119	2
180	180	7
180	181	4
139	139	12
56	115	2
150	150	12
33	33	11
29	29	8
17	18	2
115	116	11
47	47	11
42	67	1
191	192	1
177	177	19
109	109	8
10	12	1
187	188	2
111	120	5
20	41	2
5	7	2
149	149	19
194	194	25
129	130	5
186	186	12
97	98	3
131	131	12
118	126	2
81	83	9
176	176	16
170	170	10
167	167	22
183	184	5
179	180	11
114	117	2
163	163	5
130	136	2
86	86	4
37	37	6
2	3	4
52	52	16
27	27	10
184	184	14
158	160	5
8	40	2
132	132	13
68	68	4
1	2	7
175	175	17
159	159	17
187	187	21
168	168	19
12	13	2
163	168	4
84	84	14
182	182	7
121	121	10
27	29	3
117	119	6
144	144	10
53	53	13
108	108	6
155	161	3
2	2	7
38	38	4
157	177	2
151	151	25
43	44	2
165	166	12
147	148	9
188	189	6
96	96	7
192	193	7
124	124	22
11	43	1
55	55	2
71	72	5
5	5	13
141	141	13
149	150	5
137	137	7
135	135	8
61	61	7
40	40	14
106	108	3
173	175	10
45	45	11
115	140	3
122	122	12
183	183	15
169	190	3
73	90	1
125	125	3
98	98	3
162	162	6
104	104	18
63	63	3
89	108	4
106	110	1
13	15	2
72	73	7
187	189	5
10	43	6
152	152	4
10	48	2
140	144	1
174	176	2
19	20	3
27	34	2
73	74	1
23	23	10
112	118	4
170	177	3
102	107	1
72	94	1
48	48	12
150	151	4
89	90	1
172	172	17
41	41	11
26	26	1
136	179	2
54	126	4
42	42	8
2	23	6
128	128	15
98	99	1
13	13	7
30	31	8
94	94	2
87	101	1
146	146	13
149	185	1
71	71	2
130	130	6
122	123	1
51	143	1
22	22	17
160	167	1
66	66	8
20	20	16
141	174	3
14	14	3
106	106	11
76	76	15
172	179	4
158	159	1
65	65	10
181	181	6
171	171	14
74	148	2
133	133	20
151	193	1
50	125	1
148	148	2
169	172	1
139	140	8
165	165	14
25	25	13
77	77	3
76	77	6
33	34	1
195	195	12
186	187	2
80	80	5
142	143	5
28	28	13
94	97	6
190	191	6
82	83	3
161	161	9
95	96	3
97	97	9
10	57	3
62	62	3
28	35	3
46	70	3
168	187	6
176	178	4
152	170	2
181	193	2
28	31	1
64	65	6
8	8	9
12	12	10
86	100	1
98	102	2
94	96	7
170	171	4
139	181	1
99	100	2
46	156	4
140	140	4
34	35	7
108	111	3
14	15	7
67	68	8
15	15	12
20	30	3
11	11	5
21	21	4
31	32	4
20	165	2
111	111	9
44	44	6
195	196	4
156	165	3
142	142	6
143	154	1
69	89	1
174	175	5
168	177	2
159	160	3
169	169	17
170	188	3
164	164	10
32	32	8
88	88	4
186	188	5
112	119	5
12	14	6
2	152	1
168	169	4
51	51	5
99	99	14
115	117	7
21	39	2
171	172	5
165	168	2
135	137	1
24	25	3
134	136	2
180	182	7
167	186	1
115	187	5
143	173	2
156	157	3
118	120	4
63	87	2
78	81	2
139	146	2
59	62	4
72	72	9
183	197	4
134	139	4
25	133	1
60	60	7
158	164	1
79	79	8
9	10	2
185	191	2
118	118	12
35	36	1
99	129	1
172	175	4
138	138	6
17	23	2
163	164	7
152	161	3
27	38	7
39	41	4
71	86	1
51	125	4
58	111	2
141	182	2
167	168	6
142	156	3
34	34	9
45	57	2
1	189	4
41	87	2
117	117	5
162	187	2
88	90	1
27	39	2
141	148	1
61	62	3
42	46	2
182	183	6
180	192	1
108	109	8
37	39	3
21	22	6
116	116	4
20	37	1
49	52	1
10	15	2
144	174	5
189	190	6
100	100	8
22	24	1
80	84	1
143	143	8
1	26	2
176	182	3
17	17	3
10	10	3
17	79	1
1	23	1
67	67	8
145	145	9
33	69	1
135	136	5
158	165	2
80	83	2
82	82	6
37	38	8
110	110	4
75	77	3
112	112	12
41	84	2
134	135	6
2	4	1
151	152	5
189	189	7
157	159	2
6	6	2
38	42	2
130	134	4
57	58	4
123	124	1
34	157	2
143	145	2
188	188	13
137	139	6
169	177	5
157	157	8
101	124	1
130	154	4
111	113	1
156	156	5
169	170	6
1	25	1
64	108	3
116	117	2
172	173	3
47	48	3
142	144	3
113	113	4
56	57	5
15	81	2
109	110	2
108	110	4
102	103	6
184	193	3
7	41	1
36	36	8
54	54	6
43	75	1
157	158	4
124	125	1
35	104	1
20	28	2
98	129	1
48	49	2
147	150	2
175	176	5
176	177	2
0	1	6
169	176	1
173	173	7
81	82	4
31	31	7
95	95	3
19	22	2
17	43	3
146	147	2
154	167	1
9	194	1
16	16	12
158	163	2
170	178	1
46	46	3
1	1	2
143	144	3
33	157	2
81	81	1
3	3	11
75	84	1
169	186	2
93	93	1
182	184	4
183	185	2
170	172	7
101	144	2
0	2	5
123	125	2
126	126	6
117	138	1
160	160	5
173	180	1
136	136	9
68	89	2
72	83	1
51	56	1
134	138	3
100	125	2
57	71	3
173	181	4
5	6	3
116	118	2
16	81	2
40	59	1
137	150	2
166	168	3
186	195	2
30	32	2
12	31	1
112	120	2
41	63	1
64	69	1
19	158	4
155	155	7
155	156	3
119	123	6
10	47	1
9	44	1
159	189	3
163	166	2
132	133	1
86	101	2
29	34	3
10	49	2
152	173	5
178	179	3
41	42	3
18	19	1
150	177	1
58	76	4
38	39	3
18	20	7
2	153	3
58	59	1
70	70	4
42	59	1
119	124	1
59	195	1
173	178	1
71	75	2
136	137	7
159	190	1
15	188	2
112	113	2
67	86	1
87	100	4
163	179	1
69	70	2
147	147	6
97	130	2
118	157	2
73	75	2
21	154	1
65	111	4
43	47	1
36	159	2
174	174	5
98	134	2
129	129	2
69	69	1
59	86	1
45	46	4
101	102	2
139	143	1
36	68	1
1	3	1
186	190	1
53	55	1
27	28	1
160	161	1
30	156	1
172	180	1
185	189	1
175	180	2
25	26	4
93	116	1
134	140	1
104	105	1
96	97	2
169	182	1
11	144	1
71	85	4
190	192	3
29	31	1
103	103	2
64	88	1
11	84	3
185	186	2
28	29	1
191	194	2
169	185	2
154	155	3
132	147	2
6	7	2
168	191	4
58	86	1
161	162	1
165	167	1
12	144	3
131	133	3
151	189	1
45	51	3
161	163	2
9	41	1
148	149	1
113	118	1
8	38	2
19	19	6
35	39	1
76	78	1
132	140	3
1	117	1
36	38	1
152	153	5
104	121	1
52	53	2
65	66	1
181	190	2
185	187	1
4	24	1
117	118	1
136	139	3
158	192	3
73	100	1
168	192	1
103	106	4
161	185	1
155	189	1
107	107	5
10	171	1
102	104	1
117	130	1
103	109	1
141	175	3
136	186	2
126	127	1
10	13	1
133	134	1
46	53	1
125	126	2
13	169	2
184	185	1
168	181	1
113	117	1
104	109	1
174	179	2
13	14	1
9	46	3
135	138	3
51	53	3
66	67	2
53	156	2
86	87	1
0	3	1
21	40	2
164	165	1
40	64	2
26	27	4
148	187	1
164	178	1
151	173	1
173	179	1
113	123	1
164	185	1
63	108	1
146	151	1
57	128	1
43	46	2
132	150	2
160	162	1
56	141	1
22	57	2
5	153	1
161	164	1
134	152	2
43	57	2
18	83	1
189	192	1
114	126	1
154	165	2
136	148	2
154	173	1
93	94	2
114	133	1
71	100	1
69	86	4
66	68	1
39	39	2
170	182	2
111	129	1
62	63	1
95	97	1
164	168	2
83	144	1
42	66	1
103	105	1
178	181	1
150	175	1
44	45	1
149	186	3
18	39	1
155	159	2
10	45	1
27	37	3
75	87	1
112	146	1
12	30	1
68	69	2
58	156	1
41	195	1
162	192	1
137	168	1
158	193	1
123	126	1
127	128	4
153	155	1
75	75	1
173	176	1
114	120	1
16	23	2
64	107	1
19	24	1
159	167	1
47	70	1
51	52	1
164	167	1
120	121	1
188	190	1
96	135	1
20	22	1
177	178	2
7	8	2
61	73	2
36	158	1
150	165	1
18	79	1
164	187	1
149	188	1
169	183	1
44	171	1
149	187	1
150	176	3
140	147	1
105	121	1
103	110	1
22	23	1
61	74	2
20	39	1
41	196	1
50	51	1
128	149	2
168	175	1
24	28	1
59	63	1
9	11	1
76	85	1
13	188	1
137	138	1
141	156	1
