57	57	19
150	150	83
43	43	44
92	93	9
56	58	2
85	87	5
91	113	2
90	90	29
59	60	15
84	171	1
156	157	1
60	194	2
157	157	29
187	187	32
5	5	28
96	97	10
235	235	36
51	52	8
108	108	14
225	226	8
233	233	27
216	217	28
27	27	52
174	174	36
203	203	53
207	207	58
152	153	13
84	85	14
160	160	50
114	115	16
233	235	1
90	93	3
8	8	63
179	179	44
201	201	73
209	209	40
165	200	2
189	189	29
245	245	35
203	204	33
1	1	35
194	194	24
167	183	4
162	162	74
205	220	1
201	205	3
211	212	31
66	66	34
85	86	16
150	151	10
163	164	30
114	114	23
169	171	11
10	10	31
7	212	5
199	199	30
154	154	66
197	198	28
32	32	47
38	211	5
79	79	21
156	156	68
70	70	29
180	180	53
212	212	61
71	71	31
39	39	40
214	214	43
205	206	11
150	155	4
53	109	4
232	232	36
165	165	42
107	108	10
219	220	2
93	93	40
45	45	54
86	86	36
9	10	8
194	195	13
221	222	18
28	151	4
26	154	4
215	215	32
22	22	33
77	77	50
239	240	13
8	230	3
214	223	1
26	26	52
6	6	37
175	175	41
202	202	44
217	217	18
41	41	45
195	196	22
24	24	31
183	215	4
174	180	6
33	33	51
160	161	12
223	223	50
200	200	63
155	155	53
15	15	42
55	109	5
240	240	19
36	36	42
205	205	78
161	162	22
153	153	47
176	176	25
154	155	18
23	23	52
229	229	28
169	201	2
80	80	15
243	244	7
182	182	34
181	183	4
7	7	41
222	222	38
84	98	3
244	248	2
234	234	40
78	78	31
77	78	8
109	109	44
3	6	2
186	186	43
1	6	3
75	75	18
171	197	6
151	151	71
63	75	3
17	26	1
62	64	5
193	210	1
50	50	16
18	18	35
247	247	25
11	11	25
19	19	42
21	21	38
168	168	31
169	169	55
225	225	46
68	68	35
54	54	27
51	51	26
29	32	5
231	231	17
0	1	5
29	30	8
155	156	30
189	190	13
17	19	8
59	59	27
171	171	22
164	164	22
205	227	1
60	60	16
28	28	63
211	211	34
17	17	34
97	100	9
189	191	5
222	223	6
28	116	6
207	220	3
68	70	14
46	46	51
56	56	27
179	193	9
105	109	1
213	214	22
112	112	32
45	46	15
151	175	4
91	91	13
243	243	6
24	25	15
3	3	21
58	58	30
105	107	6
48	48	25
76	76	19
232	233	3
89	89	35
152	152	58
243	247	3
69	72	2
189	192	11
47	47	27
167	167	27
166	166	41
227	227	25
21	227	2
230	232	11
83	83	22
111	112	18
1	27	2
88	89	4
166	171	9
226	226	26
33	41	1
31	32	9
59	61	3
87	87	19
170	170	31
115	115	27
106	115	3
201	202	8
42	42	35
180	181	25
91	92	7
220	233	4
161	161	25
102	102	17
198	198	43
204	204	67
46	47	8
52	52	47
228	228	16
198	205	3
239	239	15
20	20	30
28	29	3
40	151	3
167	168	13
234	235	14
63	77	3
74	74	19
230	230	28
71	73	11
117	117	25
104	109	5
87	101	5
31	31	37
94	98	2
2	20	5
183	184	15
2	4	1
229	230	12
206	206	37
210	210	25
177	178	11
174	181	7
72	72	20
82	83	10
81	82	21
100	100	37
190	190	28
161	185	3
200	201	13
194	197	3
18	20	9
4	5	17
78	108	1
61	63	5
37	37	22
62	62	32
95	95	15
106	107	17
177	177	36
187	191	2
57	58	8
55	55	26
204	235	2
15	118	1
54	94	3
99	105	2
94	94	57
15	16	10
55	94	1
47	51	2
53	54	8
2	2	21
92	92	37
18	19	6
176	195	5
65	66	17
61	61	12
175	176	25
67	68	11
244	245	2
43	44	13
153	169	5
67	67	13
197	207	1
47	74	4
199	200	22
216	216	7
9	9	38
45	85	1
45	90	2
99	99	22
81	81	11
183	183	42
116	116	33
237	237	29
206	207	27
173	179	4
100	107	1
198	199	22
8	9	10
64	65	10
160	162	2
68	85	1
236	238	2
182	184	10
66	76	2
165	169	3
48	54	3
238	238	22
172	173	14
180	189	1
153	165	2
90	151	3
166	174	4
57	90	7
215	216	6
185	185	30
28	35	2
154	203	4
64	64	20
102	103	13
55	91	4
34	34	15
27	28	14
202	203	9
30	30	24
146	207	5
55	56	18
0	0	6
196	196	13
157	200	2
35	35	28
236	237	14
159	159	29
158	159	16
187	209	3
242	244	4
197	197	44
157	160	1
217	243	6
56	81	1
40	40	20
198	216	3
62	63	10
163	171	2
69	69	15
79	81	3
44	44	39
188	247	2
178	178	49
229	231	5
195	195	36
81	92	2
156	160	4
106	189	2
192	192	20
193	197	3
112	118	1
166	167	5
173	201	1
213	242	5
7	204	2
207	208	4
203	205	1
118	120	5
73	75	3
97	98	10
30	39	8
183	200	4
87	88	13
208	211	4
219	219	39
84	84	20
71	91	3
247	248	4
95	96	12
79	194	2
237	238	5
43	45	1
22	26	3
7	150	3
163	163	36
71	72	7
184	185	5
220	220	51
107	107	13
174	175	8
49	50	21
166	227	5
149	150	8
158	169	4
207	234	2
63	63	16
175	181	5
58	78	1
76	77	7
114	116	6
49	81	5
47	164	1
156	228	1
109	110	6
165	166	18
38	44	2
63	64	9
118	118	21
99	102	8
232	236	2
16	18	2
241	241	29
100	109	3
144	156	6
234	247	2
221	221	45
70	71	5
37	49	3
194	196	2
12	32	1
233	234	9
208	212	2
104	108	3
236	236	22
58	59	4
35	36	7
111	111	15
162	204	4
36	49	2
170	171	8
190	191	14
179	187	2
168	217	6
202	225	2
167	178	7
181	181	38
95	115	4
214	215	10
170	181	2
218	218	19
173	173	26
204	224	1
185	212	2
149	149	14
208	209	31
196	197	5
64	74	4
176	177	15
209	210	14
52	53	19
78	79	13
85	85	34
101	101	21
38	38	43
240	243	3
230	231	12
208	208	44
105	106	10
44	45	16
188	190	5
172	172	31
204	229	8
8	205	3
58	60	4
246	246	15
74	75	13
97	97	26
46	53	6
29	47	3
4	35	1
25	25	26
108	110	4
144	144	12
167	179	1
82	82	8
12	13	1
205	235	2
245	247	5
56	211	4
37	38	7
6	33	2
204	225	2
64	66	8
110	111	5
113	113	29
61	62	9
71	74	1
184	184	22
106	106	13
118	119	11
150	236	1
93	94	13
98	98	19
185	186	10
8	32	1
8	203	5
68	69	7
224	224	18
26	27	11
215	218	1
186	187	11
89	90	12
194	200	1
29	29	34
193	205	4
23	24	2
72	74	4
111	117	3
51	59	2
244	244	32
30	31	9
61	90	1
115	116	7
90	91	11
21	28	1
83	85	2
103	103	6
226	227	11
200	245	1
159	160	4
31	62	3
73	85	1
187	190	7
188	188	16
212	218	6
158	158	11
190	192	7
191	192	14
242	243	13
191	191	24
75	76	7
217	218	6
71	75	2
110	110	60
12	12	12
186	188	5
80	82	7
71	93	1
53	53	25
90	97	1
72	73	8
47	48	11
55	57	6
29	160	1
162	165	3
2	202	3
35	51	3
45	47	2
178	180	5
185	187	1
179	223	1
164	165	4
242	242	19
167	227	3
164	211	2
4	31	1
218	219	16
6	12	2
1	2	3
153	154	16
48	66	1
212	225	2
237	239	3
213	213	48
117	118	1
105	153	2
59	66	1
182	183	18
53	55	7
4	211	1
37	48	3
206	234	1
34	35	6
157	158	17
7	108	2
204	205	11
165	236	1
160	183	1
119	119	15
69	70	5
10	46	2
162	174	4
22	23	7
4	4	16
41	42	5
196	198	2
193	194	15
100	110	2
47	79	5
86	89	2
97	191	2
14	14	23
65	77	5
7	9	2
104	105	8
14	15	1
21	25	2
10	11	10
77	87	2
31	36	2
73	74	9
198	249	2
112	113	8
20	22	6
5	33	2
220	221	5
77	169	3
50	87	1
226	228	8
21	32	3
212	214	4
173	213	3
146	146	8
145	145	16
13	14	6
243	248	1
195	215	3
201	206	1
241	242	4
202	204	3
37	39	5
19	21	3
181	182	3
65	70	1
2	204	1
153	231	1
29	31	6
33	34	7
69	106	1
205	230	2
105	105	22
47	107	3
13	13	3
66	67	5
14	237	1
48	50	2
68	87	8
16	46	4
210	211	13
36	41	7
113	114	3
173	174	16
244	247	1
25	26	3
60	78	2
150	179	1
27	154	4
7	161	1
241	243	6
88	88	16
69	92	3
172	224	1
171	172	4
183	237	1
104	106	1
202	224	2
208	219	1
94	96	2
192	194	3
61	65	3
179	201	5
48	188	1
242	248	2
12	15	5
108	109	8
185	207	5
227	235	3
196	211	3
168	169	20
227	247	3
39	239	1
77	79	2
242	249	2
167	199	1
233	237	1
1	52	3
231	233	4
177	181	1
152	158	9
56	76	2
62	88	4
217	246	1
63	71	2
87	89	3
180	186	3
74	90	3
33	226	1
54	55	12
164	167	3
222	227	1
62	93	1
99	109	4
162	164	3
200	214	1
152	175	2
80	81	9
78	86	2
201	245	3
2	10	2
224	242	4
172	174	8
166	180	4
56	59	9
225	242	3
188	209	1
1	35	1
32	33	12
212	241	2
92	198	2
212	226	1
36	37	13
192	193	6
208	210	5
212	213	8
69	91	3
12	16	5
38	39	4
48	61	3
201	212	1
179	207	3
86	87	3
68	90	3
157	231	2
15	64	4
185	208	3
206	225	2
75	83	4
80	108	4
191	230	2
174	178	4
3	5	3
189	198	1
62	75	2
235	236	10
102	104	3
184	187	4
104	107	3
158	168	1
162	223	2
104	104	7
75	80	3
15	63	3
200	204	3
5	35	1
237	242	3
38	69	9
68	74	2
96	99	2
16	16	23
175	182	3
200	205	5
152	155	2
77	90	2
191	193	2
6	7	12
56	60	2
2	19	1
229	246	3
179	192	2
220	225	1
236	242	1
238	239	7
201	204	2
49	87	1
230	233	2
193	195	4
93	222	1
106	111	1
208	246	2
179	200	1
60	65	3
176	219	1
100	103	2
162	224	1
167	169	5
94	95	20
52	55	5
46	49	4
101	102	5
176	181	1
62	213	4
38	236	3
179	180	2
183	185	3
81	98	3
223	224	13
42	43	6
55	90	1
7	149	1
180	187	1
65	65	12
217	219	7
147	147	3
245	249	1
178	179	6
190	231	2
48	49	7
150	235	3
20	21	10
52	173	3
66	70	1
110	113	1
54	109	2
176	179	1
158	163	3
85	170	1
246	247	4
38	40	4
58	82	2
170	174	1
233	245	1
174	244	1
173	175	8
63	66	2
81	83	5
167	174	2
168	243	2
161	163	3
95	99	3
207	240	1
70	72	4
11	12	3
235	247	2
20	204	2
9	204	2
21	235	2
98	102	3
210	213	2
101	106	3
185	211	1
2	3	3
57	93	2
53	57	4
80	210	5
89	97	2
50	51	7
57	76	4
215	217	2
34	38	1
49	163	1
90	95	3
184	237	2
87	95	2
162	197	1
75	78	4
8	52	4
248	248	4
171	173	5
220	240	3
50	77	4
208	217	1
208	231	1
33	35	1
36	47	1
15	162	4
101	104	6
13	37	2
8	216	1
214	218	3
151	155	3
102	116	3
5	241	1
158	226	2
36	43	1
57	222	2
44	120	4
213	248	1
166	177	2
159	162	3
119	120	2
23	28	2
98	99	2
216	218	1
35	41	1
33	69	1
90	113	2
46	72	1
169	170	13
81	200	1
73	73	10
21	150	1
111	152	5
186	191	2
21	22	9
9	202	4
65	68	1
96	100	5
19	20	8
220	235	1
152	154	3
112	183	1
179	196	3
47	63	4
93	100	1
40	93	1
183	186	6
172	184	2
108	116	1
73	78	1
1	23	1
44	46	5
2	5	2
40	115	4
51	78	2
22	203	1
112	119	2
47	78	3
75	77	7
96	96	16
62	65	3
196	248	1
30	32	3
195	197	3
47	49	4
116	117	4
110	115	2
157	177	3
173	197	1
67	74	1
51	161	4
249	249	3
198	207	3
59	62	4
184	188	3
200	208	2
183	216	1
215	239	2
49	79	5
213	215	6
22	24	2
183	187	3
182	237	1
217	240	5
170	177	1
70	90	1
19	53	3
163	200	2
174	177	1
240	248	1
114	118	2
59	95	1
231	234	3
8	46	3
176	178	5
51	102	3
48	51	1
147	170	1
233	248	1
67	182	2
161	224	1
164	181	1
76	87	1
91	97	1
227	234	2
214	220	2
193	193	28
171	192	2
176	199	1
69	73	5
39	70	2
33	70	4
5	240	1
31	33	3
201	203	1
62	92	2
4	34	2
241	246	1
109	156	1
67	78	3
65	73	2
212	245	2
81	90	4
75	90	3
30	35	1
190	199	3
37	40	2
47	111	3
209	237	2
38	162	3
168	173	5
179	208	2
149	151	1
44	200	1
39	40	8
61	88	1
16	43	1
186	205	1
151	152	3
63	85	1
77	168	2
51	97	2
156	204	1
121	121	3
1	40	1
78	85	1
170	173	1
47	52	2
23	92	2
153	156	3
27	202	1
63	92	2
199	215	3
33	168	4
1	8	5
58	84	2
197	216	2
189	197	1
120	120	4
40	114	1
184	226	1
85	157	1
201	230	6
53	69	3
211	239	1
60	62	2
99	100	2
2	9	3
21	234	2
223	229	4
0	44	2
51	82	1
7	8	4
224	226	1
41	43	2
209	213	1
67	71	1
85	151	2
237	240	1
14	160	2
69	87	2
214	216	2
77	158	3
245	248	3
188	196	3
228	230	3
181	218	2
228	234	1
200	224	1
47	61	3
212	242	2
221	223	5
56	91	1
4	18	1
170	176	2
56	57	2
16	155	1
49	49	15
170	175	2
41	236	2
61	78	1
32	46	2
2	15	2
188	189	2
90	92	1
66	81	1
187	189	2
17	18	4
9	46	1
146	159	1
70	208	1
52	172	2
30	49	1
197	200	2
200	212	1
52	167	2
91	114	1
231	232	5
91	101	1
60	61	1
72	87	1
61	64	1
60	72	2
197	211	1
44	207	1
34	171	1
230	234	1
47	183	1
4	33	3
176	188	2
4	30	3
8	229	1
107	119	2
95	100	2
4	6	2
66	71	2
211	219	1
102	107	3
160	200	1
100	115	1
48	75	1
37	243	2
172	223	1
167	177	2
21	152	2
211	214	2
200	209	1
111	115	4
10	31	1
45	54	2
165	171	2
212	230	2
28	31	2
156	167	3
8	186	1
231	244	2
85	89	2
7	214	1
57	178	2
194	247	2
17	40	1
6	36	1
27	62	3
202	207	2
243	245	2
79	80	3
202	206	2
80	83	2
153	161	1
63	65	1
14	38	2
25	228	1
50	55	2
71	199	1
39	202	1
4	36	1
155	158	1
172	179	2
147	151	2
207	236	2
16	17	2
145	150	2
79	83	2
5	6	4
119	144	2
6	212	2
33	48	1
5	40	1
3	18	1
71	198	3
150	153	1
35	62	1
56	61	2
164	178	1
182	218	2
222	225	2
223	225	3
4	39	1
50	66	2
145	149	2
236	240	2
224	225	4
66	183	2
163	196	2
163	165	3
62	90	2
36	40	1
198	200	1
27	29	1
39	221	1
180	182	1
211	215	1
35	42	2
182	193	2
21	23	1
180	185	1
80	157	2
174	179	1
186	213	1
9	203	2
196	245	1
65	67	1
10	205	1
95	98	1
116	118	1
177	184	1
71	209	1
188	192	2
84	102	3
115	119	1
83	84	1
80	84	1
86	152	2
193	247	1
113	118	2
239	241	1
35	61	1
152	178	1
220	222	2
184	214	2
218	220	2
8	235	1
40	41	3
212	221	2
46	50	1
4	157	2
114	150	2
189	247	1
31	161	1
193	198	1
151	154	1
9	44	1
17	204	1
165	180	1
162	180	1
28	202	2
229	241	2
228	229	3
44	52	2
157	159	1
14	64	1
160	224	2
169	206	1
211	218	1
12	210	2
120	145	3
205	223	1
176	187	1
219	221	1
38	57	1
52	165	2
31	157	1
14	159	2
97	194	1
48	59	2
19	25	1
64	70	2
164	172	1
174	242	1
156	229	1
209	211	1
48	187	1
50	79	1
59	110	1
59	160	2
205	207	2
214	217	1
145	147	1
70	89	1
194	218	1
97	99	1
156	209	1
110	114	1
191	195	1
176	210	1
32	195	1
224	228	3
165	167	1
228	247	1
105	108	4
39	210	1
10	26	1
57	59	3
43	156	1
53	68	1
96	115	2
6	220	1
144	145	1
33	240	2
50	88	1
193	196	2
190	195	1
52	69	1
162	185	1
26	42	1
164	191	1
151	153	1
12	248	1
5	34	1
44	51	1
204	234	1
195	199	1
48	97	1
60	89	1
12	212	1
196	215	1
200	213	1
160	181	2
88	90	2
207	212	1
95	118	1
11	47	1
10	12	1
104	153	1
76	159	1
161	239	1
240	241	1
58	61	1
216	232	1
177	194	1
162	166	1
54	182	1
199	213	1
49	77	2
87	90	2
21	90	1
212	220	1
91	99	1
158	160	1
179	183	1
206	235	1
4	158	1
159	225	1
207	209	1
117	119	1
167	213	1
165	189	1
111	119	2
232	234	1
8	21	1
167	170	1
46	62	1
79	86	1
30	38	1
208	247	2
17	23	1
110	112	1
211	213	1
153	155	1
92	95	1
203	233	1
160	177	1
78	160	1
109	115	1
61	193	1
145	146	1
178	242	1
34	37	2
245	246	1
168	180	1
113	145	1
27	155	1
179	185	2
163	173	1
14	18	1
162	167	1
168	171	1
169	179	1
164	168	1
5	39	1
190	193	1
15	168	2
67	72	1
21	26	1
150	154	1
197	210	1
165	201	1
187	208	1
212	217	1
171	174	1
