68	69	3
87	87	3
24	25	1
65	65	17
76	76	20
24	24	8
40	40	9
75	76	9
22	22	11
74	74	13
33	33	10
53	53	8
57	57	4
93	98	1
100	101	8
60	60	10
59	59	4
35	36	8
68	68	15
98	98	10
60	99	7
78	82	5
64	64	11
69	69	12
64	66	1
41	41	6
97	99	3
26	29	3
32	33	4
90	92	2
87	88	12
53	54	11
29	32	3
63	64	6
21	21	14
71	72	5
65	67	6
58	58	15
105	105	4
44	44	5
78	78	12
92	92	11
55	100	3
61	61	8
97	106	3
36	37	5
72	81	6
66	72	5
48	49	5
51	52	9
104	104	3
70	70	10
102	102	16
51	51	5
56	56	6
83	106	1
66	67	2
96	96	14
75	89	2
39	40	6
90	91	8
40	41	1
94	94	12
72	72	9
101	102	6
54	54	8
37	38	11
27	27	6
26	26	2
43	43	3
31	31	3
52	52	9
73	73	15
93	93	9
78	99	5
55	65	1
67	67	6
49	58	2
34	34	17
91	91	13
57	60	2
52	53	7
101	101	7
50	50	13
93	94	6
86	87	2
31	32	4
85	85	2
70	71	3
97	98	5
92	93	6
82	82	4
75	75	13
48	57	5
63	100	7
55	55	21
48	51	4
103	103	12
48	48	3
62	62	3
97	97	3
76	106	2
106	107	3
95	95	5
92	94	1
79	107	1
74	100	7
91	94	1
28	29	1
57	85	1
39	39	6
89	90	2
53	102	2
99	99	12
51	54	1
25	25	14
29	34	1
55	56	4
72	73	2
37	37	2
38	38	6
47	47	1
58	61	2
63	63	3
105	106	1
77	77	7
73	74	3
27	93	3
74	75	5
74	76	4
81	81	6
71	71	6
54	57	1
54	55	2
50	51	4
49	49	7
46	46	2
73	100	1
50	53	1
64	65	4
80	80	5
31	34	2
23	24	1
90	90	11
20	20	3
45	48	1
20	90	1
43	45	2
25	52	1
25	48	1
89	96	1
44	46	1
23	23	5
48	53	3
38	51	1
89	97	1
30	30	2
71	84	4
46	47	2
76	100	2
56	57	4
79	79	8
80	81	1
69	73	2
66	66	3
27	28	5
33	34	5
30	38	2
61	62	6
67	74	1
65	72	3
57	67	2
41	42	1
75	100	2
104	105	1
78	81	1
67	81	1
26	46	1
100	100	5
61	68	1
52	55	1
81	83	4
36	36	4
88	88	3
45	46	3
79	80	3
78	97	1
51	56	2
42	42	1
45	45	3
82	83	3
53	69	1
54	91	2
69	70	1
107	107	1
32	32	7
41	44	2
51	61	1
35	35	3
60	61	1
106	106	1
52	62	1
84	84	5
77	78	4
29	29	1
21	22	1
21	25	2
70	72	1
67	102	2
79	83	2
88	96	1
22	23	1
24	102	2
76	78	2
38	39	1
53	91	3
85	86	1
57	58	1
57	98	1
96	97	1
65	66	1
67	68	1
60	66	1
