52	52	5
4	5	1
38	38	9
67	68	2
15	15	14
71	71	8
6	12	3
73	74	6
76	101	3
24	24	10
129	129	3
63	63	13
115	115	19
127	127	12
104	104	12
107	110	2
85	85	18
68	68	18
14	14	17
120	120	10
62	62	10
95	117	4
21	23	4
101	101	8
109	110	10
65	65	13
82	85	3
84	85	4
16	16	9
62	63	3
118	118	22
79	99	2
70	70	16
105	105	25
87	87	21
126	126	11
107	117	9
30	30	15
120	121	8
18	19	1
91	91	31
58	59	6
32	32	21
56	56	11
7	14	6
67	67	30
107	107	8
57	58	2
133	133	8
122	122	10
130	133	2
42	42	7
109	135	1
78	78	18
92	92	9
64	64	15
116	117	4
18	18	1
110	122	3
75	75	13
80	83	2
33	34	8
114	114	18
33	33	2
86	92	5
112	113	21
79	79	17
65	67	1
7	8	3
131	132	1
53	53	10
54	54	8
56	57	7
124	126	3
17	17	6
21	21	13
44	44	8
9	9	12
99	99	20
31	75	3
59	59	3
11	20	3
131	131	3
54	60	2
19	19	7
92	93	5
73	73	19
82	98	3
106	106	7
117	117	18
125	130	2
69	87	3
113	114	6
48	51	2
76	76	10
97	97	8
19	20	3
26	28	2
25	25	11
117	118	9
132	133	2
128	128	6
84	84	9
61	61	5
47	72	2
32	35	9
22	24	7
109	109	7
24	75	6
66	66	20
114	115	7
52	67	3
61	92	6
52	60	8
108	109	6
101	102	11
6	6	7
58	58	1
95	95	3
116	116	14
123	123	12
57	57	7
101	103	2
4	4	13
106	122	2
16	17	4
43	45	2
130	130	12
50	50	11
88	88	14
2	2	9
34	36	2
90	90	20
89	89	6
100	100	14
50	64	3
43	43	5
53	63	1
125	125	13
46	64	1
1	2	3
23	23	6
122	123	7
111	116	2
47	47	4
119	120	6
8	19	4
14	15	5
22	87	1
77	77	14
24	25	6
27	29	2
94	94	10
22	23	2
71	72	3
102	102	9
124	125	3
48	49	1
19	22	1
112	112	5
85	89	5
22	22	19
52	63	1
96	96	13
95	107	3
109	119	1
122	125	2
44	45	11
55	55	10
72	72	5
124	134	8
80	80	18
23	65	2
82	84	5
15	16	3
115	117	2
106	111	2
83	83	7
23	84	5
22	84	1
112	114	3
48	63	2
61	64	2
28	29	7
113	115	5
8	8	10
130	131	2
6	7	3
109	118	4
121	123	3
113	113	1
51	51	7
107	111	4
78	100	1
134	134	12
112	115	2
5	6	4
7	7	12
23	52	4
52	66	3
55	56	1
86	115	2
127	128	3
10	11	5
104	113	4
126	127	2
104	105	3
79	80	3
52	64	2
8	18	4
86	86	11
18	28	3
29	30	4
35	35	4
102	104	3
129	131	4
93	93	5
82	83	6
44	70	3
77	78	5
21	76	4
53	54	3
73	76	1
106	110	4
132	132	7
81	81	10
12	14	1
54	61	4
52	53	3
123	125	1
20	20	5
99	100	7
97	98	4
12	12	3
121	121	5
60	60	8
133	134	2
68	69	5
111	111	6
95	97	1
107	108	2
109	122	1
110	117	2
8	102	4
107	109	3
63	65	2
21	26	3
105	110	2
3	3	11
27	63	3
28	30	2
67	69	2
110	110	7
99	109	1
23	24	2
81	103	3
123	124	6
20	21	5
82	82	7
131	133	5
31	33	4
131	134	1
65	68	2
45	58	3
124	124	5
45	45	5
74	74	7
101	106	3
128	129	2
27	27	12
27	76	3
69	69	4
93	106	1
98	98	4
95	116	2
31	31	4
95	96	3
108	122	1
80	81	1
26	101	1
1	1	4
100	101	2
13	14	4
106	107	1
68	78	2
97	117	3
96	97	1
94	116	2
81	85	2
26	26	4
66	67	7
10	10	3
86	87	3
84	86	5
105	106	4
111	112	4
29	29	2
87	116	1
134	135	1
36	36	11
16	19	2
9	17	1
89	90	3
9	11	2
65	66	1
110	116	3
117	120	1
83	84	2
3	4	4
8	9	4
65	71	6
107	118	2
52	61	2
73	75	3
23	63	1
118	120	1
20	22	2
35	37	4
68	84	1
11	11	1
45	69	1
11	13	2
76	79	2
25	78	1
94	114	5
5	5	4
87	88	5
62	64	1
49	49	6
106	117	2
108	131	1
70	88	1
49	50	3
21	55	1
90	94	1
26	27	1
24	83	2
105	107	4
119	119	3
123	130	1
69	70	1
104	111	2
125	126	2
7	15	1
75	76	1
118	119	1
129	130	1
0	1	2
27	28	3
71	79	3
48	48	4
94	95	1
28	101	1
64	65	1
111	119	3
127	129	1
60	61	2
28	28	4
119	129	1
84	92	1
90	91	3
32	104	2
56	92	2
103	103	5
10	15	3
9	10	1
92	96	1
111	123	1
85	88	1
59	93	2
72	73	1
108	110	1
116	120	1
33	36	1
98	99	3
31	32	1
10	16	3
90	100	1
50	67	1
54	95	1
61	62	1
34	34	1
81	83	1
103	112	1
76	80	1
61	66	2
108	108	3
0	2	1
51	52	1
54	55	3
95	118	1
110	111	1
102	103	2
9	19	1
45	50	1
50	52	1
88	114	1
27	60	2
112	117	1
70	73	1
115	116	1
28	34	1
45	49	1
32	33	1
114	116	1
65	69	1
130	135	1
96	118	1
79	81	1
81	82	1
74	88	1
70	71	1
