1	8	2
30	30	9
128	128	4
38	38	5
138	138	2
71	78	2
8	8	9
94	94	4
74	81	2
25	25	4
11	25	4
127	127	10
3	3	10
27	31	10
20	72	2
88	132	2
98	139	2
103	103	5
9	9	3
129	130	2
84	84	2
132	132	4
89	135	3
86	86	7
102	102	6
78	78	6
89	95	1
7	10	5
29	29	5
103	104	2
114	117	2
106	106	1
122	122	4
124	124	8
80	87	2
74	74	6
28	28	6
8	9	3
83	83	2
36	36	6
71	71	5
11	14	2
106	107	4
104	104	5
22	22	3
14	15	1
116	116	8
33	33	3
137	137	11
114	124	4
109	117	3
90	91	1
129	129	9
89	89	1
118	118	7
128	129	8
7	8	2
71	72	2
102	103	6
35	35	6
108	109	4
68	109	2
105	105	4
139	139	9
84	85	4
13	13	7
103	109	1
31	32	1
136	138	4
130	130	14
27	29	3
74	109	1
74	80	2
15	24	6
109	109	4
104	105	1
105	107	2
29	30	3
124	129	2
11	11	2
72	73	5
17	18	1
117	118	2
125	125	6
90	90	1
2	2	1
75	122	3
134	134	20
0	4	5
6	13	2
81	81	2
34	34	10
37	37	6
100	101	3
97	97	6
28	29	2
135	135	3
19	19	3
80	80	3
112	113	4
111	111	4
15	15	3
134	135	2
105	106	7
31	31	1
93	93	5
18	18	4
83	85	4
7	11	2
10	11	4
19	20	4
73	73	4
91	95	1
85	85	2
112	112	3
4	4	2
83	84	2
20	21	8
120	124	5
5	37	3
107	107	4
95	96	2
82	82	2
10	10	1
115	117	1
78	79	3
10	13	1
112	114	1
77	101	3
2	8	1
16	20	2
125	128	3
8	71	8
8	11	1
74	118	2
77	109	2
98	98	6
26	26	4
118	119	1
1	11	2
140	140	3
123	123	4
26	27	1
136	136	2
71	73	1
104	108	1
37	38	2
126	128	2
109	115	4
81	85	3
78	122	2
121	122	3
86	115	1
27	32	2
131	131	1
88	96	1
72	78	1
126	127	4
6	12	3
123	124	1
9	43	2
91	91	4
117	117	5
103	105	3
8	10	1
31	33	1
117	132	5
1	7	4
101	101	2
77	77	2
106	126	1
27	28	1
114	115	1
121	121	2
18	19	2
93	94	2
95	95	3
0	3	2
12	13	3
72	72	3
85	86	1
12	23	2
108	108	3
76	76	4
126	126	1
79	79	4
111	112	1
79	112	2
19	28	2
120	120	4
73	102	1
80	120	1
73	74	2
110	138	3
87	87	2
79	125	1
25	26	2
23	23	1
91	113	1
27	27	3
124	137	2
4	6	6
117	122	2
101	106	2
95	97	1
105	108	1
12	25	2
4	136	2
112	118	1
128	130	1
74	133	2
115	116	1
26	30	1
5	5	3
71	74	2
0	0	2
91	94	3
76	102	1
87	103	1
21	21	4
82	125	1
110	110	2
96	96	5
86	109	1
92	92	2
16	16	2
34	36	2
130	131	1
123	125	1
120	122	1
119	119	3
113	113	3
79	86	1
89	127	2
131	136	1
74	75	2
101	134	1
78	123	2
108	116	1
3	4	1
10	12	2
84	122	1
24	27	1
113	119	1
88	88	2
33	37	2
76	101	1
15	17	1
14	17	1
92	93	1
6	6	2
1	1	1
103	117	1
4	5	1
12	12	1
66	91	1
