86	86	15
79	79	18
58	59	10
27	27	15
67	68	5
79	80	4
66	66	43
40	40	21
60	61	16
99	100	8
39	39	19
41	41	20
72	74	3
48	48	34
35	35	6
57	57	20
42	43	4
42	42	24
71	71	16
100	102	2
65	66	5
52	52	19
62	101	11
64	64	16
47	96	1
101	101	19
67	67	29
99	99	19
84	86	4
38	38	25
75	75	41
96	98	3
73	73	12
77	77	18
60	67	2
45	52	3
86	95	4
87	98	4
40	41	2
61	61	15
51	51	12
82	82	12
86	89	2
92	92	18
78	78	12
95	97	2
65	65	13
89	89	16
93	94	8
57	101	3
20	22	2
63	63	20
69	69	8
44	66	4
62	100	4
95	96	6
34	34	8
59	60	7
57	93	3
82	83	1
48	90	8
46	46	27
45	45	17
23	23	2
46	96	3
63	64	10
50	50	13
24	24	4
56	56	10
54	54	8
96	97	5
56	57	11
94	94	11
91	92	13
85	89	5
90	90	21
86	92	4
35	36	4
31	32	4
57	58	9
33	33	13
78	91	3
76	76	6
70	70	15
51	52	20
25	26	4
59	59	11
29	29	7
61	80	3
70	72	2
84	84	23
36	37	9
81	83	1
36	36	11
86	87	7
53	55	15
75	76	6
44	44	10
95	95	14
66	68	4
51	77	7
102	102	8
31	31	6
98	98	9
55	93	1
70	71	4
27	28	5
77	89	1
66	67	3
53	54	5
87	87	8
81	81	11
49	50	15
85	91	2
60	60	17
65	99	7
38	39	4
69	70	4
49	49	7
45	102	1
49	51	3
68	68	12
100	101	6
41	42	10
26	26	10
42	52	1
52	53	7
91	91	26
43	44	3
88	88	13
74	74	20
78	79	2
68	69	3
50	96	7
97	99	4
85	85	2
24	53	2
22	22	1
37	37	3
52	77	2
80	80	17
72	72	11
53	53	7
92	93	3
63	65	1
39	40	7
76	77	3
97	97	13
44	51	7
93	96	2
58	58	21
83	84	9
98	100	4
83	83	10
48	59	2
43	43	7
47	49	2
50	51	11
37	38	6
47	48	7
44	45	5
72	73	2
72	76	5
56	99	3
96	96	7
85	86	2
32	33	6
76	80	1
55	55	15
87	88	7
88	97	5
52	101	1
91	93	3
67	77	1
38	80	4
62	62	8
24	25	5
57	59	3
47	95	2
62	80	1
25	27	7
80	81	3
94	95	8
48	50	1
41	66	2
77	78	2
51	99	2
35	37	3
71	76	4
98	99	2
45	46	4
55	56	4
79	88	2
40	76	1
90	91	2
54	61	3
100	100	3
94	99	1
71	72	2
78	90	6
62	63	3
28	39	2
74	75	1
29	36	6
37	40	5
52	100	3
48	52	4
41	59	1
80	82	2
52	98	4
53	91	1
93	93	5
26	27	2
42	78	1
81	82	4
54	100	3
54	55	3
53	88	4
64	65	2
101	102	5
89	90	2
68	71	1
36	93	1
63	99	2
64	101	1
61	96	1
46	47	3
32	32	3
89	93	3
79	81	3
99	101	1
33	34	3
38	40	1
48	51	2
48	67	4
84	87	3
85	90	2
24	39	3
95	99	1
28	28	2
64	102	3
45	101	1
34	35	1
83	88	2
86	98	2
47	47	4
53	61	4
81	93	1
94	100	5
45	58	2
37	39	1
46	48	1
65	73	1
97	98	2
43	51	3
83	89	1
25	25	2
78	89	2
41	90	2
48	60	2
57	100	1
92	94	1
86	94	1
30	31	1
73	76	1
58	100	2
52	64	1
93	95	1
53	85	1
52	78	1
62	98	2
61	62	3
69	74	1
44	79	1
84	85	1
60	62	1
57	99	1
61	81	1
51	102	1
28	55	1
25	54	1
88	89	1
46	52	2
62	95	1
95	98	1
45	56	1
