132	132	25
22	22	14
74	74	27
71	71	25
138	138	30
91	92	5
82	85	3
16	17	3
137	137	18
34	95	2
99	99	23
133	133	37
120	121	8
139	139	13
135	135	24
88	88	23
90	90	19
126	126	34
75	75	14
128	128	51
127	127	30
109	109	24
29	30	4
110	110	9
134	134	34
28	28	15
85	85	21
117	123	6
117	117	35
117	119	1
33	33	3
19	24	3
71	123	1
130	130	29
115	115	24
119	119	24
95	95	35
83	84	6
99	114	1
78	78	11
116	116	36
125	125	25
127	131	5
5	5	14
108	108	18
120	120	21
85	122	3
132	133	6
131	131	38
15	15	10
87	87	31
93	93	18
77	79	2
121	123	7
89	89	41
22	24	11
140	140	45
96	96	21
83	83	37
107	107	23
114	114	29
129	129	43
78	104	3
26	26	6
81	85	3
124	124	34
100	100	25
127	128	14
82	82	22
79	80	10
88	90	3
118	123	3
82	84	3
139	140	8
109	119	1
136	136	26
126	127	19
107	118	2
76	76	42
109	116	2
25	25	7
122	122	31
72	73	8
80	84	5
138	139	10
110	111	12
71	72	5
19	19	11
120	122	11
29	29	8
104	105	12
72	72	12
92	92	18
123	123	42
111	111	29
83	88	2
13	68	2
103	103	15
4	4	18
123	124	10
129	130	9
80	85	2
102	104	9
92	94	7
93	102	4
73	73	15
74	79	2
108	109	12
118	118	19
128	129	27
31	31	12
68	68	1
82	87	3
79	79	18
11	11	5
100	126	3
27	30	13
3	3	13
35	35	8
77	77	10
105	105	16
74	91	4
81	81	27
97	97	17
89	90	5
84	84	16
80	116	2
136	137	4
85	113	2
1	1	12
1	7	1
88	91	2
10	10	18
88	113	8
13	13	7
35	139	1
9	9	12
12	12	5
85	86	9
104	106	3
86	87	3
97	124	1
2	2	10
111	112	4
34	140	2
102	125	4
102	102	13
13	15	4
112	113	4
8	12	6
80	82	8
121	121	37
112	112	27
34	34	10
74	103	2
20	20	6
103	104	5
21	22	2
92	93	5
3	4	10
71	111	3
80	80	13
74	111	6
96	101	4
104	114	1
113	113	39
101	101	32
74	112	3
27	28	7
103	113	2
36	37	1
96	97	7
94	100	4
135	137	5
102	113	2
104	104	20
87	88	7
97	98	4
23	23	6
27	27	22
91	91	10
98	98	25
10	11	5
8	8	6
103	108	3
14	14	13
102	105	3
14	131	2
76	115	2
24	25	4
129	133	3
30	31	5
88	89	3
131	139	1
6	6	8
81	82	9
120	123	1
30	30	5
78	79	3
24	26	3
13	14	17
121	122	10
29	32	4
89	96	1
84	85	3
34	35	4
7	7	9
83	85	2
93	117	2
132	135	3
94	94	12
115	123	5
15	25	2
9	19	2
100	123	2
12	17	7
106	106	18
119	120	6
104	108	2
104	107	2
86	86	12
7	8	8
102	103	5
37	37	10
124	125	16
38	38	4
133	140	3
79	115	5
105	117	3
35	36	1
93	94	8
82	83	6
118	119	5
110	119	2
85	110	3
116	117	2
107	108	4
14	15	5
78	83	1
8	9	6
126	130	1
75	76	1
11	12	8
108	119	6
125	132	2
13	17	2
102	109	3
20	21	4
32	32	5
113	115	1
80	87	3
119	121	5
116	119	4
96	116	3
7	9	1
1	9	1
88	125	4
36	36	10
79	111	3
17	18	8
107	123	2
105	107	3
107	111	2
109	111	10
89	100	4
91	99	1
109	110	3
21	21	10
119	122	4
74	113	1
73	74	7
99	134	1
18	18	12
24	24	12
100	102	2
93	95	4
90	91	2
80	81	4
86	117	6
100	101	2
81	89	2
95	99	1
102	114	1
16	16	5
117	126	1
134	136	4
134	135	8
114	115	8
1	4	1
106	121	4
116	123	3
105	106	7
72	116	1
6	9	1
30	32	1
79	110	2
12	13	4
101	116	3
86	108	2
0	104	2
102	106	2
128	137	1
115	116	5
113	114	1
129	135	1
75	77	1
0	0	4
111	117	5
71	110	1
126	131	2
30	36	2
135	136	5
25	26	3
94	118	2
23	24	6
79	84	2
117	118	3
95	96	5
106	123	2
73	76	2
72	111	1
25	29	1
100	124	1
99	120	1
133	134	1
0	7	2
77	78	1
96	103	3
79	107	2
98	99	1
100	125	2
116	118	3
22	32	1
73	108	1
71	114	2
33	34	2
129	134	1
21	26	1
83	86	3
87	121	2
78	87	2
16	25	1
4	16	1
83	122	1
95	97	2
4	18	2
128	138	2
14	115	1
111	120	1
12	27	1
81	84	1
72	108	1
103	106	1
72	74	1
107	114	5
78	117	2
68	84	3
23	25	2
79	105	1
102	107	1
36	38	2
122	123	1
101	102	3
91	101	1
137	138	4
74	77	1
37	38	1
85	107	1
118	122	1
15	17	1
131	132	1
128	132	2
95	130	1
1	3	1
30	37	1
100	117	1
2	3	1
30	38	1
85	104	2
6	7	1
35	91	1
34	92	1
18	19	1
78	80	1
79	104	1
76	77	2
36	96	1
99	100	1
102	112	1
9	10	1
77	117	1
110	120	1
132	134	1
36	132	1
108	111	1
84	86	1
85	121	1
84	87	2
1	104	1
101	127	1
71	113	1
86	88	1
127	129	1
19	35	1
