150	150	4
97	97	10
73	131	1
158	164	4
16	16	2
34	34	11
80	80	7
85	85	1
28	29	1
79	86	2
14	14	6
73	73	3
141	141	10
114	114	1
60	75	2
89	89	8
116	116	3
103	103	8
117	117	1
76	76	4
106	106	5
176	177	5
139	139	6
84	84	4
86	87	2
135	136	7
53	99	2
122	122	5
122	140	1
168	168	5
108	108	3
122	123	1
185	185	8
146	146	4
163	164	4
19	19	4
59	60	2
29	87	3
148	149	5
152	152	6
10	11	7
23	23	7
157	157	2
48	48	4
33	34	3
27	27	2
26	26	2
83	83	2
24	25	1
68	68	5
22	106	4
58	58	8
125	125	5
90	128	2
171	171	2
3	22	2
67	68	2
38	185	7
169	185	3
148	148	3
40	40	4
158	158	5
166	185	3
22	22	4
3	25	1
36	36	6
100	100	3
53	100	3
172	172	5
115	115	9
104	104	3
28	28	5
31	31	4
170	170	5
163	163	3
33	33	8
82	82	4
158	161	6
107	107	1
12	12	2
71	72	2
126	126	4
173	173	6
130	131	3
165	165	5
149	155	7
36	37	5
48	74	1
119	120	2
161	185	3
80	83	4
59	59	2
104	105	3
88	154	3
99	129	1
177	177	3
166	166	8
5	22	1
117	118	3
7	28	2
146	147	4
176	176	1
135	135	3
159	159	2
56	56	3
165	184	2
164	164	9
113	113	4
4	4	2
162	162	2
145	151	3
71	115	1
26	61	1
25	25	6
147	147	2
35	35	4
162	163	4
179	179	4
181	181	7
118	120	2
167	167	6
72	72	4
92	96	1
124	125	3
77	115	1
31	45	1
121	155	1
30	89	6
160	162	3
126	127	2
25	48	4
70	70	3
47	152	1
114	118	1
32	34	2
121	121	4
187	187	2
67	110	3
174	174	4
72	131	1
26	97	1
94	96	4
162	164	2
137	137	1
33	45	3
94	99	2
13	13	2
142	143	4
134	134	5
185	186	3
40	87	1
2	4	1
11	111	1
5	5	6
65	79	3
147	157	1
3	3	1
120	120	1
184	184	5
177	186	1
182	182	3
95	95	5
130	170	4
19	20	3
93	93	3
118	118	3
49	150	3
9	49	1
132	132	1
179	180	6
62	114	3
24	148	5
40	126	1
149	149	4
105	105	3
65	66	2
77	77	3
16	17	5
114	132	3
138	185	1
5	21	2
9	13	1
186	186	2
129	129	6
113	130	2
87	87	3
48	106	2
154	154	2
39	39	8
8	55	1
59	75	2
167	185	2
169	169	4
10	10	1
108	109	4
41	90	1
92	92	5
32	47	1
34	35	1
79	79	5
72	73	1
145	145	11
101	103	3
68	93	2
26	127	1
174	175	5
161	164	1
119	119	1
91	91	2
0	21	1
172	173	1
82	83	1
4	11	2
85	86	1
152	153	1
121	156	1
46	46	2
123	139	2
99	100	1
14	63	1
90	90	2
72	114	2
183	183	2
180	183	2
143	187	3
146	148	1
37	40	5
75	75	1
38	39	3
96	97	2
55	55	1
58	60	2
84	85	1
109	110	3
15	15	2
163	179	3
99	99	3
34	41	1
150	151	1
188	190	1
165	188	2
166	167	3
109	131	1
31	35	1
73	76	1
39	40	1
15	157	2
24	24	2
57	128	1
124	124	2
45	45	1
171	172	5
60	61	1
21	95	1
66	77	1
138	138	2
29	172	1
180	181	1
164	165	1
13	183	2
123	123	5
53	53	1
74	110	1
188	188	1
25	26	1
15	158	1
151	151	4
12	185	1
42	42	3
137	143	1
140	178	3
178	187	1
190	190	1
137	139	1
71	113	2
137	147	1
52	96	2
94	94	2
47	47	1
36	99	1
25	34	1
133	133	2
66	66	1
75	120	3
10	65	3
64	78	1
100	122	2
61	79	1
17	105	1
170	173	1
140	140	1
61	61	1
128	128	2
63	79	1
122	154	1
107	108	1
186	187	2
109	149	1
6	24	1
63	63	1
112	112	1
120	155	1
98	117	1
111	112	1
2	2	1
101	101	2
133	134	2
169	184	1
74	87	1
30	30	1
62	65	2
85	127	1
7	7	1
166	184	1
13	170	1
134	135	1
23	24	1
20	21	1
148	159	1
65	150	1
52	130	1
175	175	2
139	153	1
46	108	1
20	20	1
93	94	1
53	129	1
37	37	1
105	108	1
