34	34	5
60	60	8
32	33	5
25	26	2
89	91	3
88	88	3
22	23	3
83	84	4
96	96	3
73	74	1
24	25	2
74	75	3
103	104	3
45	45	5
87	87	5
78	79	9
32	32	10
82	83	4
97	98	2
72	72	2
87	88	3
70	78	1
21	22	4
58	66	4
75	85	3
56	56	2
28	28	8
62	69	2
74	74	5
74	84	2
58	61	1
98	98	12
75	76	3
54	55	1
104	104	5
107	107	5
31	52	1
80	80	3
93	96	4
49	49	12
38	40	2
82	82	6
67	67	9
48	49	3
101	103	3
66	67	2
65	65	4
105	105	4
113	113	12
86	88	1
19	19	4
47	48	3
45	46	4
89	110	3
68	68	5
90	90	4
60	75	3
60	71	2
34	79	1
80	87	2
87	109	6
88	89	4
79	79	7
25	25	2
51	51	2
71	74	5
55	107	1
110	110	7
20	20	3
76	78	1
74	82	3
44	102	4
24	24	1
40	49	1
23	23	8
95	98	1
40	41	2
91	92	2
99	102	1
53	53	1
96	98	3
76	87	2
90	91	2
64	65	2
35	36	2
85	85	4
97	97	3
98	99	3
106	107	2
46	47	1
21	21	5
104	108	2
103	103	6
113	114	2
104	105	1
62	62	6
64	67	1
84	107	4
62	63	1
71	78	1
71	72	4
59	65	2
24	69	1
108	108	8
64	64	1
92	92	5
77	77	3
100	100	1
111	111	3
52	52	3
46	106	1
63	64	2
76	77	2
25	66	2
58	77	1
89	94	2
38	110	1
106	106	8
61	66	3
84	85	4
33	33	1
94	94	4
77	102	1
39	39	2
86	87	2
78	105	2
26	34	1
73	75	2
93	93	6
61	65	2
91	91	1
38	38	1
35	35	1
80	92	2
45	101	1
79	83	2
107	109	2
73	77	1
26	26	2
95	106	2
81	84	2
27	27	1
59	59	1
105	106	3
60	61	1
31	51	1
114	114	7
104	106	1
55	55	2
44	44	3
30	31	6
86	97	1
85	86	2
102	105	2
30	30	1
93	98	1
80	107	1
85	91	2
58	58	4
75	75	2
29	29	1
92	93	1
75	79	1
52	114	2
39	51	1
31	31	3
68	72	2
95	105	1
101	101	2
77	84	1
63	70	1
63	65	2
58	63	2
115	115	1
81	81	4
60	67	1
86	98	2
103	105	2
81	93	2
93	94	1
62	68	2
72	82	1
31	32	1
54	54	1
78	101	1
33	34	1
50	50	2
45	110	4
88	109	1
36	36	1
56	57	1
73	73	1
70	70	2
90	113	1
74	110	1
23	34	1
69	69	1
99	99	1
74	87	1
57	73	2
79	114	1
79	105	1
89	89	1
100	102	1
98	103	1
57	84	2
109	109	1
74	114	1
86	89	1
96	99	1
112	112	1
105	107	1
71	71	1
104	107	1
60	77	1
41	42	1
55	56	1
61	62	1
50	52	1
57	57	1
