131	131	9
34	34	5
130	130	14
5	6	3
76	77	5
145	145	15
24	40	1
38	38	27
148	148	14
2	11	4
96	96	3
96	98	2
64	65	11
179	179	13
155	169	1
161	162	7
171	171	13
27	27	7
141	154	3
76	76	20
115	125	7
22	22	8
95	95	14
7	13	1
24	24	15
9	9	10
110	111	5
139	139	6
115	116	5
120	143	3
1	1	9
172	173	7
166	173	3
169	169	3
84	84	2
55	55	9
42	44	2
134	134	7
30	31	4
109	109	4
144	152	2
6	6	3
14	38	4
93	93	11
132	132	10
18	18	3
117	118	13
23	23	16
60	60	11
19	19	8
40	41	7
62	62	7
134	166	1
151	151	9
3	29	2
43	43	4
172	172	21
135	135	10
42	43	5
173	173	16
118	123	10
162	162	11
58	58	12
118	135	2
118	121	1
53	58	2
168	168	4
148	159	2
158	159	2
97	97	10
174	174	4
7	25	1
86	86	1
37	38	10
26	26	4
63	63	6
74	88	2
133	133	9
41	41	7
104	120	1
0	0	23
129	129	8
33	33	21
114	114	3
4	4	12
119	119	11
155	155	7
82	82	3
12	13	9
161	161	8
146	147	3
81	82	3
118	125	4
14	18	4
31	32	6
35	35	14
71	71	7
1	2	5
29	29	10
37	37	10
102	102	6
5	5	7
21	24	1
5	10	2
135	136	8
55	56	5
60	61	7
101	128	5
109	110	3
90	111	2
122	125	1
72	95	5
154	154	11
78	78	11
10	10	9
113	113	5
140	140	11
173	175	3
142	143	6
39	39	21
20	21	5
128	128	2
15	30	1
117	117	2
167	167	8
72	72	12
79	83	2
143	143	3
61	84	1
50	52	3
160	160	4
89	89	2
122	122	8
144	144	4
15	15	6
24	28	1
50	50	5
125	130	1
92	93	4
140	150	3
35	36	10
88	89	2
73	73	5
12	170	2
7	7	8
114	115	2
61	61	9
2	2	12
14	14	14
148	160	1
93	94	3
156	157	5
77	78	4
44	45	3
75	75	4
28	30	6
67	67	5
23	24	10
121	121	7
31	31	6
12	12	12
169	170	4
21	21	6
44	130	1
67	68	1
32	33	7
92	92	5
56	57	2
147	148	7
175	176	5
118	119	3
20	20	4
159	168	2
36	36	4
75	91	6
17	18	3
6	8	3
58	61	3
11	11	5
133	148	2
148	149	3
137	137	6
138	138	13
106	119	1
94	95	3
110	119	2
15	16	4
91	91	2
71	95	2
68	68	4
149	149	8
52	54	4
178	179	3
180	180	1
10	11	6
38	39	5
126	135	1
10	14	2
112	114	5
54	54	8
58	59	1
22	23	8
176	176	4
5	15	5
140	145	2
21	23	1
81	89	4
134	167	2
40	40	9
130	135	3
4	5	1
142	142	9
11	16	1
143	147	1
162	163	2
23	25	2
101	101	3
102	108	1
115	115	1
74	74	5
51	51	5
13	14	2
2	5	1
16	16	16
2	3	2
147	147	5
124	124	3
19	41	1
76	78	1
13	13	5
6	7	8
17	24	1
173	174	2
8	8	10
16	22	1
103	104	4
85	85	4
16	18	1
153	155	2
154	156	1
8	9	4
35	39	1
125	125	2
98	98	3
121	145	1
7	8	1
163	164	4
50	51	4
4	9	1
12	15	8
15	19	4
24	27	7
146	148	5
84	97	3
109	130	1
25	37	1
106	106	14
89	90	4
82	83	2
17	17	8
86	90	2
3	3	14
3	4	5
62	83	1
25	27	7
145	146	1
52	56	3
156	156	4
77	77	5
28	28	6
111	111	4
126	126	12
87	87	1
29	36	2
105	106	2
19	20	1
101	112	1
9	178	4
32	32	4
131	132	4
25	26	5
98	100	5
61	65	1
168	169	6
132	133	2
52	52	2
1	25	3
164	164	5
66	70	3
61	63	5
175	175	6
146	146	10
34	35	1
2	24	1
18	19	7
79	82	1
102	103	1
155	168	2
150	167	1
150	156	1
130	131	1
105	105	1
108	122	5
27	28	5
121	122	6
150	150	4
115	117	1
101	104	3
125	126	5
78	79	1
10	169	1
2	4	2
152	152	1
99	100	3
104	104	5
160	161	4
165	168	2
112	135	1
21	22	3
159	159	1
99	111	2
162	166	1
22	24	3
96	97	3
138	149	2
108	108	5
62	63	3
142	147	1
43	44	1
152	153	2
99	99	1
70	70	2
145	148	1
102	107	2
144	145	3
113	114	3
178	178	1
59	59	4
158	158	3
83	104	2
33	34	1
5	24	1
127	128	2
131	133	3
27	29	3
133	157	3
120	121	1
30	33	1
18	22	3
170	171	1
16	17	5
104	105	1
75	76	2
44	44	3
120	120	2
97	98	2
107	108	3
53	53	3
25	25	2
27	32	2
128	130	4
39	41	3
84	85	7
155	156	1
42	42	5
53	59	1
77	94	2
30	30	5
116	117	1
78	92	3
153	154	4
108	111	1
123	123	2
4	18	2
159	162	3
7	9	1
132	134	1
54	58	1
158	160	3
29	41	2
139	148	1
100	100	2
136	136	5
31	35	1
178	180	2
101	106	2
159	161	2
90	90	3
108	109	3
38	43	1
138	171	1
161	163	2
166	167	1
40	42	1
141	142	1
80	81	1
140	142	5
127	150	1
128	129	1
61	144	1
24	26	2
90	92	1
119	125	2
50	56	3
26	27	4
170	170	2
37	39	1
103	120	5
71	72	3
141	141	2
122	142	1
143	145	1
164	165	1
14	15	1
94	94	1
103	108	2
150	154	1
149	150	1
165	165	3
10	37	1
166	166	4
29	30	4
72	96	1
119	120	2
92	102	1
63	64	1
98	135	1
118	118	2
171	172	3
125	146	1
91	92	1
143	153	1
39	40	2
174	176	1
60	77	2
41	42	1
123	137	5
104	119	1
41	45	1
61	79	1
57	58	3
17	180	1
1	24	1
101	110	1
14	16	2
134	149	1
65	65	4
87	89	1
117	145	1
78	142	1
105	107	2
28	31	1
57	57	1
45	45	5
34	37	1
17	21	1
25	35	1
52	53	1
26	40	1
9	10	3
140	154	1
136	139	1
123	124	2
118	120	2
51	56	1
57	95	1
7	11	1
9	39	1
79	80	2
161	167	2
1	4	1
112	113	2
137	139	1
133	134	1
70	71	1
140	159	1
169	172	1
165	174	1
170	173	1
150	170	1
65	107	2
83	83	2
171	179	1
16	35	1
64	64	1
64	66	1
150	151	1
31	41	1
116	118	1
169	175	2
66	67	1
153	153	1
53	95	1
62	64	2
25	28	1
19	28	1
157	158	1
174	175	1
105	120	1
24	32	1
7	14	1
93	102	1
33	35	1
126	146	1
107	139	1
17	33	1
