17	18	2
9	9	6
119	119	5
80	81	2
87	87	2
26	26	10
38	49	6
110	110	5
58	58	1
21	30	3
99	99	4
82	83	3
79	79	6
80	80	7
81	97	1
36	37	3
128	128	5
62	62	1
75	88	2
85	85	7
4	5	2
29	30	4
20	20	8
14	25	4
11	14	5
109	109	1
112	146	1
102	109	2
131	131	11
39	39	8
70	71	2
146	146	7
72	73	2
4	4	5
128	131	1
66	83	3
7	7	5
76	76	7
5	6	7
86	94	4
39	40	3
106	106	12
139	143	5
12	13	4
69	69	5
105	106	7
97	99	2
45	45	7
64	84	7
41	42	3
26	27	5
48	49	3
17	17	8
47	48	5
15	15	8
121	122	3
82	86	6
125	127	1
96	96	10
24	24	7
47	47	11
73	74	7
43	44	3
10	13	3
45	46	4
38	40	3
117	117	1
13	14	2
22	23	6
149	150	5
111	114	1
6	8	2
86	86	2
79	80	1
31	31	10
12	23	2
92	93	1
132	134	1
154	154	1
107	107	7
153	153	3
29	29	4
85	86	2
30	30	7
92	94	2
3	18	1
42	42	3
63	63	3
30	34	2
83	84	3
97	100	2
23	23	6
82	82	4
25	26	5
83	83	6
95	98	2
7	13	1
50	51	3
84	95	1
84	94	2
133	134	2
42	43	4
51	51	3
148	148	6
129	129	4
7	11	3
44	65	4
66	66	2
5	29	1
50	85	3
81	84	3
12	12	9
80	88	2
114	114	5
100	100	4
73	73	1
22	25	2
28	30	1
34	37	1
57	57	8
103	103	3
14	14	8
10	17	1
92	92	4
111	111	2
49	50	3
127	127	1
19	20	7
85	95	2
61	61	4
64	65	4
75	77	2
64	64	1
37	38	8
35	35	4
8	8	4
110	111	4
55	55	3
21	21	2
131	133	2
95	97	1
130	133	2
11	11	3
88	88	2
41	41	5
14	24	5
79	84	1
72	72	1
5	5	7
101	102	3
104	114	3
149	151	5
134	134	2
49	49	5
65	65	2
78	80	3
47	50	2
44	44	4
137	137	4
7	9	2
6	7	1
3	23	2
46	46	2
13	15	3
76	77	2
70	70	6
121	136	1
50	50	6
104	105	3
78	78	1
116	116	6
102	102	1
25	25	7
33	34	1
28	29	5
18	36	5
84	84	2
87	88	4
121	121	3
19	32	2
8	9	4
67	68	3
26	31	2
52	52	5
23	24	4
8	41	3
115	116	3
19	19	7
30	33	2
151	151	3
67	67	5
150	150	5
93	93	4
45	84	1
104	113	1
13	13	2
135	150	1
33	36	2
119	121	2
65	67	1
15	16	4
40	40	1
22	22	5
40	41	3
81	82	2
99	100	3
139	144	1
118	118	2
105	110	1
152	152	2
54	54	1
24	30	3
84	85	3
66	67	2
97	97	4
53	53	1
120	124	3
74	74	3
110	125	1
141	141	2
124	124	2
34	34	1
132	133	1
69	79	2
116	117	1
125	130	1
32	32	2
140	143	2
66	80	1
58	85	5
56	56	2
18	18	3
86	87	4
83	86	3
83	98	1
144	144	1
38	50	1
36	36	5
11	13	1
16	16	3
128	147	1
20	22	3
11	22	1
64	68	1
33	33	3
139	139	2
78	84	1
63	65	2
136	136	1
93	94	1
120	122	2
98	99	1
104	104	1
56	57	3
138	138	2
95	95	2
127	136	2
25	30	2
52	53	1
137	138	2
76	80	1
89	90	1
103	111	1
6	6	2
114	132	1
38	38	6
4	47	1
21	31	2
80	86	1
28	28	6
32	33	1
124	125	1
27	27	1
146	153	2
108	108	3
32	50	1
43	43	3
65	71	2
122	122	2
15	17	2
44	101	1
63	77	2
98	98	4
47	49	2
147	148	1
84	86	1
94	95	1
130	131	1
98	103	1
70	103	1
135	135	2
17	20	1
32	49	1
146	147	1
48	48	1
75	75	4
71	102	1
74	77	1
122	137	1
137	139	1
141	143	1
34	35	1
141	142	2
93	95	1
63	64	1
126	147	1
90	90	2
143	143	1
21	23	1
54	56	1
101	101	2
20	21	1
110	130	1
11	12	2
66	68	1
77	77	3
40	54	1
4	16	1
121	123	1
98	100	1
52	56	1
105	108	1
145	145	1
65	128	1
122	150	1
56	101	1
145	149	1
75	76	1
95	96	1
130	130	1
120	136	1
