53	53	9
43	128	2
21	59	1
19	19	1
102	103	2
100	101	4
128	128	7
30	30	6
50	65	2
50	50	7
69	110	3
82	82	2
73	73	12
31	31	2
24	24	7
61	61	4
113	114	2
21	25	1
70	70	7
89	89	2
99	131	3
91	91	10
69	87	2
79	79	9
10	11	3
62	117	1
76	76	3
13	13	2
15	15	4
80	80	3
4	72	1
83	118	5
130	131	6
74	74	7
90	90	2
57	57	5
109	109	5
48	63	2
1	12	2
121	121	5
54	115	2
109	110	1
115	115	7
105	105	5
29	29	9
42	77	1
45	110	2
100	100	3
85	123	5
60	117	2
62	98	1
18	20	5
5	46	2
5	5	5
57	68	2
42	43	2
133	133	2
65	67	4
78	78	4
125	126	2
21	23	1
8	22	2
84	84	5
14	14	2
54	109	1
11	18	3
23	33	2
54	54	6
14	15	3
65	65	5
30	36	3
16	16	4
102	102	4
45	79	1
72	125	3
86	117	2
112	112	4
98	98	3
53	58	3
17	24	2
45	84	2
63	63	4
95	96	5
66	83	2
4	98	1
45	54	4
2	2	2
22	35	3
120	130	1
38	59	6
106	116	3
33	34	3
18	24	1
55	56	2
75	75	3
2	3	2
56	59	2
57	58	4
1	11	3
59	59	3
125	127	2
118	118	7
124	125	2
111	131	1
117	132	1
62	62	7
69	96	2
66	84	3
1	2	2
26	26	9
55	55	6
77	78	5
68	69	4
87	87	7
114	114	6
123	123	4
96	131	2
110	111	2
64	64	3
107	107	11
88	88	2
82	135	2
68	68	3
66	85	2
50	52	1
108	130	2
44	44	2
84	87	2
43	54	2
5	67	1
86	86	3
82	84	2
126	126	9
28	28	5
11	12	6
119	119	5
130	130	4
3	4	1
108	124	5
106	107	2
9	10	2
29	75	3
60	68	4
42	42	1
69	117	2
83	116	5
25	25	3
98	99	3
124	124	2
117	124	2
129	129	6
91	92	1
33	33	1
100	108	3
94	94	4
94	95	3
43	43	7
118	129	3
19	21	2
53	59	3
85	85	10
89	90	4
69	69	2
103	103	3
5	12	2
7	7	3
93	93	2
47	121	1
49	49	4
42	45	1
77	77	3
90	91	2
52	53	3
117	130	1
19	22	4
9	23	2
95	130	1
56	56	3
104	128	1
131	131	4
84	108	4
33	37	3
34	34	2
17	23	2
99	99	1
99	129	2
104	134	1
132	132	1
47	77	1
104	104	2
108	108	6
91	115	2
21	22	3
27	76	2
106	111	3
16	52	3
10	10	1
114	132	2
31	32	1
122	122	1
59	60	1
12	12	4
72	72	6
7	8	1
0	17	2
93	94	1
44	84	1
132	133	5
20	20	2
112	113	2
16	17	3
45	109	3
80	119	1
83	84	2
124	134	1
8	60	1
96	97	2
17	17	2
99	100	4
22	22	6
125	125	2
52	95	2
99	101	2
125	128	2
134	134	1
113	117	2
60	61	5
127	129	1
75	77	1
81	81	1
91	119	2
82	85	1
72	104	1
79	80	2
127	127	1
78	80	3
72	81	2
19	52	1
59	62	1
107	109	3
46	46	1
101	101	1
111	133	1
79	81	2
114	115	1
58	118	1
53	60	3
86	87	2
21	21	2
117	117	1
87	116	1
52	52	2
28	126	1
67	109	1
81	83	1
68	85	1
97	135	1
13	19	1
21	103	1
65	117	1
57	59	1
35	36	1
43	130	1
32	32	1
30	126	1
50	108	1
9	9	1
122	125	1
66	106	2
42	78	1
97	97	1
70	72	1
68	109	1
83	85	1
71	71	1
106	117	1
24	25	1
120	128	1
95	95	1
126	128	1
20	21	1
92	93	1
92	92	1
29	126	1
130	133	1
84	85	1
120	124	1
58	59	1
67	67	1
35	37	1
