109	112	4
27	27	31
25	25	27
70	70	23
105	105	41
57	113	6
51	51	40
100	101	5
101	101	11
98	99	9
91	92	13
112	112	32
113	114	8
6	6	15
65	70	1
34	38	5
3	5	2
93	95	7
1	1	17
43	59	7
54	56	3
61	61	5
76	76	27
45	45	26
130	130	12
107	108	9
96	108	6
116	131	2
109	109	17
67	68	14
69	69	34
51	76	2
19	19	14
42	46	1
27	29	9
99	99	20
13	13	22
94	94	36
22	25	5
39	39	22
33	33	10
63	65	4
114	116	7
77	77	24
4	5	2
64	84	11
129	129	4
74	74	9
106	106	27
7	7	24
79	80	14
24	25	4
69	76	7
70	71	20
57	57	38
0	10	1
53	72	1
49	49	27
117	117	35
61	62	7
97	97	19
4	4	7
93	93	24
55	131	6
5	5	28
105	106	38
105	115	5
6	105	3
98	100	1
14	14	14
12	12	20
52	52	38
11	11	21
10	11	10
89	89	21
126	126	18
23	24	18
98	98	26
108	109	7
46	46	28
53	53	31
102	102	18
42	57	4
16	16	18
63	63	26
2	8	9
108	111	10
3	3	23
3	13	4
10	130	4
55	55	23
41	41	12
25	26	9
40	40	20
27	28	12
56	56	34
107	107	19
40	41	5
72	106	4
54	54	24
115	115	33
25	39	3
0	0	16
124	124	23
74	77	7
46	47	15
40	42	2
45	47	9
16	17	6
74	79	3
94	95	14
127	127	5
101	103	9
124	125	12
110	110	19
77	83	5
74	75	4
8	8	17
115	119	3
103	103	22
76	80	2
125	126	14
99	127	5
123	123	31
67	67	5
80	81	6
110	124	2
32	32	19
121	123	2
31	31	20
45	46	8
75	75	40
83	83	14
79	79	37
15	15	32
5	8	4
42	59	3
8	9	22
44	44	23
106	121	5
81	81	14
127	129	5
118	119	11
62	62	20
114	114	33
89	91	8
26	26	31
67	91	4
78	78	11
73	73	13
104	104	31
71	71	11
49	50	3
119	119	14
94	96	1
87	87	13
21	21	11
19	42	1
65	65	13
48	48	29
9	9	23
50	50	11
2	2	18
122	122	25
92	92	21
60	62	6
48	53	2
1	2	12
133	133	16
132	132	14
102	112	1
125	125	24
76	109	4
85	85	38
2	3	5
88	88	13
28	28	16
54	65	1
30	30	14
111	111	30
61	125	4
60	60	7
66	66	7
91	91	22
64	65	6
41	43	6
130	131	6
121	122	4
129	133	3
32	33	9
29	29	14
104	105	19
101	102	5
126	127	8
106	107	5
81	82	4
118	118	30
71	82	2
56	113	2
53	54	5
119	126	8
93	99	1
86	86	8
10	10	33
45	48	2
12	19	6
17	17	14
109	111	5
14	17	1
34	34	24
71	72	3
45	116	4
62	66	4
68	68	20
39	40	7
43	44	7
0	1	9
24	24	24
113	113	13
102	103	5
23	23	17
83	84	11
123	124	6
50	51	6
76	85	2
11	13	3
121	121	30
108	108	23
95	95	17
116	118	2
117	118	11
128	128	10
59	59	13
22	23	6
46	80	4
24	33	6
120	120	23
105	114	6
47	47	25
64	79	4
29	30	11
76	82	6
72	74	11
7	56	4
109	110	8
77	80	8
91	93	1
30	41	1
6	7	3
99	102	4
18	25	3
65	67	6
54	55	8
70	72	2
86	88	9
108	113	9
61	129	2
31	32	17
27	57	2
96	98	3
64	64	22
15	21	2
42	43	3
80	83	7
41	42	12
13	14	4
96	97	6
100	100	6
88	106	2
68	74	3
126	129	3
9	10	8
111	127	2
18	19	4
76	108	4
7	8	6
48	56	1
26	57	3
14	15	6
18	22	5
58	58	17
104	107	5
131	132	3
61	128	4
110	111	10
25	58	1
45	58	3
17	41	4
65	89	3
97	98	7
39	52	4
118	129	4
65	77	6
5	6	4
99	118	2
104	108	5
3	4	15
97	99	5
131	131	21
68	71	3
42	42	20
56	57	8
20	20	8
92	93	6
9	11	5
96	96	13
111	113	3
106	116	4
18	18	7
20	25	3
117	130	2
47	48	5
87	88	14
62	97	1
1	16	4
26	31	3
82	83	5
44	56	2
52	53	6
97	108	3
115	116	15
69	70	16
109	116	3
19	20	5
99	128	3
68	96	1
110	112	4
68	69	5
67	75	1
97	100	7
68	90	5
71	89	2
22	26	2
46	56	1
51	52	9
11	12	4
116	116	19
127	128	10
117	131	9
62	86	4
4	11	2
93	101	5
96	112	2
14	16	5
65	66	2
10	12	10
86	87	2
68	91	2
6	8	8
76	87	4
13	21	4
67	74	2
120	123	5
12	13	4
90	90	16
99	100	7
92	125	1
70	95	1
63	81	2
84	84	13
70	89	2
112	113	5
104	115	6
80	80	10
8	16	3
16	39	2
77	79	3
59	60	3
111	130	6
128	129	10
50	102	2
30	31	2
77	78	4
114	130	6
92	95	5
91	95	1
110	128	4
99	108	5
119	128	1
19	26	4
107	114	3
122	123	4
132	133	5
42	48	1
29	52	2
30	52	4
19	21	5
73	74	8
104	113	1
125	127	1
38	39	9
5	13	5
93	94	8
104	109	1
65	69	3
45	63	4
76	83	3
120	121	3
43	43	5
33	34	1
119	120	4
15	16	7
106	114	1
91	96	4
11	25	3
58	59	4
75	79	3
26	27	4
7	16	3
57	58	1
42	44	7
25	27	3
89	94	7
1	109	4
28	29	7
31	38	3
18	23	4
20	32	2
79	81	1
109	125	2
68	98	2
52	71	2
104	130	3
38	38	21
7	9	3
54	63	1
0	105	1
20	124	3
103	108	3
2	4	3
69	98	4
29	44	3
89	95	2
5	15	7
69	96	1
83	89	2
79	82	3
120	125	3
93	96	1
20	21	1
44	58	3
72	99	1
91	102	1
44	45	6
22	24	6
66	69	4
101	108	2
17	21	3
85	86	2
107	112	3
72	72	8
16	109	2
70	86	2
18	118	1
82	82	3
25	32	3
10	54	1
20	26	3
66	74	2
125	128	5
13	19	1
47	53	1
39	51	1
129	130	2
84	85	2
48	49	2
33	40	2
116	117	2
113	131	1
12	127	1
75	76	3
30	33	4
18	26	4
68	97	2
24	32	1
53	132	2
84	86	1
107	117	3
67	90	1
20	42	2
13	16	3
66	67	6
72	103	1
62	65	2
54	64	5
123	125	2
44	48	2
2	14	1
46	48	6
58	130	2
58	62	2
30	32	2
0	57	2
26	119	2
55	132	1
125	130	1
2	13	3
72	108	2
85	103	1
66	98	1
43	58	2
109	113	3
85	88	3
128	130	1
57	63	2
17	18	5
19	25	3
88	90	3
73	75	4
113	129	1
90	94	2
52	112	2
101	119	2
21	24	1
114	117	2
6	121	2
63	85	1
119	125	3
56	58	5
73	99	2
106	113	1
6	20	3
75	77	1
20	33	1
0	62	1
114	115	2
29	32	1
64	93	3
28	58	1
21	22	1
43	60	2
0	110	1
88	89	1
0	108	1
13	15	1
84	87	2
47	81	1
31	39	2
30	39	1
76	89	1
55	56	2
13	20	1
15	58	2
96	100	2
60	131	2
62	85	2
113	118	2
48	50	2
60	65	2
62	63	1
65	93	1
65	91	2
114	131	2
12	31	1
1	13	2
60	61	1
107	130	1
16	19	1
11	32	3
64	81	2
78	79	1
46	49	1
26	29	1
122	125	1
76	102	3
26	32	1
50	90	1
96	99	4
7	57	1
9	12	2
101	104	1
81	83	1
72	73	1
54	80	1
24	41	1
53	57	1
18	40	1
68	77	1
15	19	1
22	22	1
65	79	1
89	90	2
122	124	1
111	112	1
61	66	2
65	68	1
126	130	1
126	128	1
108	114	1
25	31	2
37	38	1
43	46	2
75	84	1
73	107	1
95	100	1
110	117	1
120	129	1
4	6	1
70	88	1
99	104	1
