43	46	2
91	92	4
24	24	2
38	38	15
104	107	2
94	94	4
67	68	7
104	104	9
100	100	23
33	33	9
93	97	9
75	75	16
62	63	5
68	76	2
74	74	14
44	98	2
111	111	14
100	101	9
112	112	12
59	65	3
111	112	1
67	67	7
77	77	14
26	26	26
95	95	6
42	45	2
31	34	5
71	71	6
60	60	16
81	81	3
89	89	9
89	90	2
113	113	14
61	61	6
48	49	6
92	101	1
112	113	7
109	110	4
34	36	1
51	51	19
51	52	8
91	98	3
66	67	2
69	69	6
82	84	1
77	78	4
52	52	9
26	27	5
39	39	9
79	79	22
91	91	11
80	80	10
86	86	7
114	114	6
29	29	9
34	34	7
101	101	17
76	77	8
45	45	7
34	103	3
22	22	17
72	72	10
55	76	1
83	83	4
97	97	6
69	70	5
77	102	4
96	96	5
92	92	17
56	56	5
77	80	4
109	109	13
47	53	2
71	72	3
27	29	1
87	89	6
46	65	2
103	103	15
110	110	15
75	76	7
47	47	13
42	44	2
78	85	3
98	100	5
88	88	16
32	32	4
54	108	7
102	103	7
86	89	1
58	59	5
48	48	16
113	114	4
73	74	14
35	35	7
46	46	8
115	115	2
98	98	20
53	55	1
87	106	2
37	39	3
42	42	14
62	64	3
110	113	1
101	102	7
59	59	2
43	43	2
78	81	2
79	94	2
61	102	3
103	106	4
57	57	5
70	71	5
29	30	4
39	40	7
21	21	2
30	32	3
31	31	7
59	102	1
30	31	6
27	103	1
77	103	1
78	79	10
50	50	5
107	107	6
106	109	1
78	80	1
101	110	1
99	100	4
50	52	4
93	93	7
41	41	14
43	44	9
99	106	1
87	90	1
109	111	5
79	93	1
60	71	3
95	96	1
79	91	1
53	56	1
40	41	3
32	60	1
31	32	2
33	60	6
32	38	4
58	58	2
61	62	2
84	84	4
25	26	3
63	63	6
76	76	9
58	71	5
44	44	9
60	69	2
91	105	6
22	23	6
70	70	9
27	27	11
103	108	1
78	78	6
80	103	1
20	20	1
55	55	2
59	60	1
53	53	1
40	40	6
42	43	1
48	112	1
74	75	3
23	23	2
108	109	1
72	95	1
36	36	3
43	92	2
108	110	3
85	86	1
102	102	4
25	25	4
64	72	2
49	49	1
62	62	4
102	106	1
34	35	5
100	102	9
93	95	1
96	97	3
47	48	3
65	65	2
79	86	4
99	99	9
66	102	1
53	59	2
78	107	1
90	99	1
30	36	1
101	103	2
73	75	3
19	19	2
41	48	1
100	113	1
68	68	3
21	22	4
73	73	9
85	89	2
73	92	2
108	108	4
95	97	1
99	109	1
27	28	3
53	60	3
82	108	1
83	85	3
44	45	4
50	51	5
95	112	2
59	106	3
21	23	2
59	108	1
92	93	3
37	37	6
97	98	2
82	87	3
62	69	2
25	27	1
20	21	1
82	83	5
58	72	1
85	104	1
60	61	2
43	45	1
80	91	1
81	82	2
54	78	1
39	62	3
102	111	4
91	103	2
38	39	1
57	107	3
64	64	2
88	89	1
79	80	1
105	105	3
59	61	5
64	65	2
68	69	2
77	104	1
72	73	2
54	54	1
28	28	4
37	40	2
26	31	1
45	99	3
69	95	1
104	105	1
90	90	2
69	71	1
87	88	2
32	34	4
98	99	2
53	108	1
98	101	1
87	87	1
46	47	2
30	30	4
92	109	1
22	24	1
59	64	1
85	85	2
102	104	2
37	38	2
93	94	1
88	97	1
74	76	1
82	82	1
91	96	1
80	107	1
94	98	1
