70	70	4
47	56	3
66	66	8
30	30	13
40	40	19
0	0	12
60	60	10
68	68	8
25	25	4
12	18	2
6	76	1
24	26	1
22	23	9
72	74	3
18	18	7
38	39	5
4	4	4
27	27	6
13	13	8
5	6	8
27	42	4
63	64	1
35	68	5
75	76	8
48	48	8
62	62	7
11	11	6
41	73	2
21	21	20
41	44	6
46	61	1
50	50	6
11	12	6
49	69	3
73	73	10
49	49	14
46	46	8
30	66	3
14	14	1
19	19	7
70	71	8
38	71	1
49	50	3
21	74	3
3	3	24
24	24	14
74	74	6
26	26	12
2	20	2
2	2	13
45	47	4
43	45	4
8	8	4
20	21	6
51	51	8
23	24	2
45	45	6
23	23	5
39	39	7
10	10	14
64	66	2
22	36	4
67	68	4
47	48	4
44	45	2
36	37	10
29	29	12
20	20	12
54	54	5
28	30	8
42	42	13
23	74	1
6	6	15
65	65	9
32	34	4
38	74	3
9	9	37
9	10	1
25	26	11
34	38	1
31	31	6
69	69	2
6	7	4
1	1	10
52	57	4
58	59	1
36	36	1
42	43	6
48	56	1
66	67	7
28	28	5
61	61	6
34	34	6
24	25	4
67	67	7
1	2	4
28	69	3
43	43	8
32	36	1
72	72	7
49	59	5
33	33	4
27	28	2
73	74	11
71	71	3
28	29	4
53	53	3
56	61	2
33	71	5
5	5	4
23	73	1
59	59	4
13	30	2
29	31	1
43	44	2
55	55	7
26	29	1
46	47	3
47	47	1
37	39	3
76	77	5
44	44	4
50	59	2
12	12	9
41	42	1
31	32	5
32	66	2
57	57	10
41	41	1
23	70	2
60	61	7
19	20	5
59	60	2
6	8	1
32	32	2
35	37	1
56	56	7
39	45	2
35	35	14
34	35	1
22	29	1
35	41	3
30	31	3
21	24	2
25	29	1
69	71	3
35	69	3
77	77	2
7	7	16
39	40	4
22	22	3
26	64	1
54	55	2
76	76	3
18	19	4
75	75	3
7	9	2
47	63	2
37	40	2
32	33	1
3	9	1
5	7	3
7	8	3
37	37	2
56	57	1
4	6	1
68	69	2
39	69	1
48	49	2
34	70	1
4	5	1
63	65	2
52	52	3
24	27	1
2	3	1
65	67	1
13	18	4
0	74	1
63	63	2
50	51	5
33	68	2
74	75	3
22	25	1
18	25	2
51	52	1
57	60	1
8	9	1
52	53	1
31	34	1
10	19	1
8	13	1
31	66	1
20	27	1
3	4	1
10	12	1
72	73	2
14	40	1
52	75	2
10	11	1
39	64	1
24	70	2
13	14	1
65	66	1
