3	9	4
197	197	17
198	198	10
167	168	15
93	93	7
15	235	1
150	150	45
70	71	2
32	33	4
48	48	13
21	21	22
221	221	21
68	81	1
242	242	7
156	157	6
30	30	28
8	8	26
165	165	32
20	24	6
201	212	1
182	182	29
59	59	24
170	170	19
21	27	2
156	156	77
6	6	51
10	40	1
20	20	24
166	167	11
211	211	25
155	155	50
63	63	8
110	110	35
224	224	13
244	244	18
76	157	3
29	29	19
23	23	26
73	171	2
217	217	14
160	160	18
32	32	49
188	189	5
27	27	45
44	44	30
68	68	15
169	169	22
39	39	22
94	208	4
36	37	7
88	88	14
163	164	11
208	211	5
120	120	10
193	195	9
176	216	5
26	26	16
45	45	26
213	214	13
235	235	12
97	98	12
150	152	4
87	88	12
69	71	1
164	167	2
191	192	20
42	42	22
180	223	7
221	232	1
22	23	4
51	76	4
144	150	2
17	17	33
203	203	41
177	177	20
34	57	4
46	46	42
72	72	11
101	101	19
221	222	13
173	173	40
79	85	2
66	66	25
11	11	27
240	240	8
151	152	5
212	212	31
176	215	3
83	86	6
232	234	8
228	228	16
5	5	27
80	80	4
34	81	2
105	105	14
173	174	16
191	214	6
9	10	21
54	54	30
114	120	1
176	176	8
48	49	6
91	91	12
162	162	28
174	174	20
243	244	14
40	47	6
92	92	31
196	196	15
186	186	24
167	167	29
53	53	13
215	216	8
71	71	15
155	156	3
223	231	3
198	199	11
60	62	1
238	242	2
189	191	3
164	169	1
210	211	15
151	151	35
199	212	1
79	86	3
207	207	28
158	159	7
24	24	24
109	109	24
174	216	1
91	92	9
77	77	17
101	106	2
7	7	34
178	179	8
166	166	14
119	119	32
53	54	2
114	115	4
223	223	17
83	83	4
38	39	8
210	210	30
118	118	16
40	40	40
23	26	4
236	246	3
181	181	37
110	111	5
234	234	21
237	237	15
225	225	16
179	179	28
201	201	40
212	213	4
176	180	7
61	62	4
12	12	22
186	193	1
147	147	7
164	172	3
206	209	2
200	200	18
201	202	7
207	211	1
78	78	5
31	39	1
161	162	3
34	83	4
9	9	29
76	174	2
20	26	2
79	84	6
201	222	1
74	74	20
163	163	16
248	248	14
76	78	1
93	101	8
108	114	3
96	99	3
81	102	2
208	209	20
236	237	2
81	85	10
108	108	12
17	39	5
184	185	5
112	112	9
215	215	22
187	187	11
115	116	10
178	178	33
28	28	36
193	194	3
239	240	4
241	241	16
116	116	26
161	161	15
217	218	12
19	19	20
10	10	26
231	231	17
69	70	6
204	204	43
3	45	3
171	172	21
55	56	13
28	29	11
27	29	3
160	167	3
168	171	6
180	181	8
200	201	7
93	94	22
21	22	17
100	101	10
171	171	21
157	166	7
144	144	3
89	89	20
181	182	10
43	43	33
227	227	11
51	51	15
238	243	1
218	218	20
76	76	14
38	38	30
147	153	7
22	22	19
149	151	1
16	17	7
154	154	31
195	196	10
85	91	7
115	115	35
246	246	10
190	191	7
66	178	2
172	172	23
245	245	16
196	197	3
209	209	32
1	1	20
169	171	10
226	226	23
70	70	11
110	151	3
39	62	2
201	207	1
81	83	3
19	20	11
31	31	14
228	229	19
208	210	2
164	166	2
211	214	4
2	3	7
90	90	22
175	187	5
84	85	8
86	86	8
153	154	25
229	229	10
60	60	16
19	36	3
195	195	20
220	220	16
94	94	27
44	45	19
15	15	24
235	236	6
104	106	1
238	240	8
63	64	8
202	202	29
34	38	1
152	204	1
239	239	7
247	248	4
2	22	3
184	184	16
90	91	4
58	60	2
56	56	12
62	62	11
16	236	2
163	172	1
58	58	7
150	151	8
240	241	7
13	14	3
205	205	24
29	45	2
61	61	6
73	149	5
185	185	19
106	107	7
39	40	4
186	195	2
211	220	3
27	28	10
32	172	4
37	37	18
35	100	7
156	159	4
38	119	9
187	194	8
14	246	6
41	41	24
249	249	5
53	233	7
167	174	3
170	171	5
204	205	11
28	45	1
6	7	9
14	14	14
152	158	2
230	232	4
222	222	19
241	242	12
48	50	1
8	9	11
146	146	11
121	144	1
208	208	19
79	80	16
35	35	12
220	232	1
85	108	2
34	35	6
183	184	4
197	200	2
84	84	10
100	100	8
237	240	2
184	194	4
112	113	3
16	16	6
164	164	17
145	145	11
74	75	11
117	117	17
204	234	4
109	116	2
57	57	20
180	219	3
175	176	8
65	66	13
76	77	11
111	145	2
161	167	2
104	105	1
238	239	12
111	111	16
175	175	33
51	52	6
107	107	20
47	111	3
18	18	26
54	237	4
99	99	15
52	52	2
71	174	1
176	177	9
231	232	13
79	79	12
17	18	9
104	104	9
193	193	12
118	119	11
49	50	11
114	114	21
34	55	2
63	78	5
113	203	1
94	95	4
236	236	17
97	210	6
81	81	13
180	201	1
77	217	2
206	234	1
188	188	9
67	67	20
216	218	4
246	248	6
48	238	4
205	206	8
33	33	21
76	173	4
4	4	14
105	106	7
54	110	1
98	99	2
229	230	12
49	49	23
3	6	1
165	166	10
246	247	4
69	119	4
47	47	9
32	46	2
49	57	3
162	164	11
206	206	9
199	199	18
63	70	4
3	3	14
153	153	13
80	85	2
108	173	2
185	186	9
4	42	8
157	159	6
199	211	3
14	247	1
183	183	15
31	65	2
18	19	5
233	234	11
153	157	5
43	46	5
75	146	2
36	59	5
81	84	5
60	65	3
71	74	2
243	246	2
36	36	14
189	190	7
2	2	11
238	244	3
219	219	7
69	69	15
101	103	5
97	157	10
24	25	14
197	199	8
209	211	6
224	225	6
176	220	1
5	6	3
198	214	5
243	243	7
75	75	8
61	67	3
113	114	8
158	158	11
4	5	9
81	82	9
95	95	14
41	42	12
43	44	9
62	236	1
102	103	8
152	152	16
73	74	5
162	203	2
168	168	17
187	188	6
97	99	1
214	217	4
87	87	11
64	64	5
25	26	5
179	180	5
26	27	8
151	181	1
82	83	15
149	230	4
174	219	6
166	176	6
220	222	4
190	192	3
85	85	14
65	65	6
46	113	2
158	164	2
214	214	17
200	218	2
7	8	3
178	183	4
165	170	9
245	246	7
45	46	9
232	232	13
77	78	9
96	96	6
34	34	9
190	190	10
29	30	6
80	82	5
172	173	9
67	84	1
66	67	7
53	71	2
42	44	1
95	182	3
207	208	4
59	60	9
168	169	5
68	118	9
107	108	8
147	152	1
50	51	7
216	217	4
157	157	8
230	230	11
73	73	7
9	41	6
245	248	2
175	180	2
31	32	14
204	221	2
105	107	2
189	189	10
212	214	3
117	240	4
203	204	14
209	210	5
154	204	2
237	244	1
234	235	4
215	218	2
194	201	1
102	108	1
55	61	3
14	248	3
35	101	1
182	207	1
27	234	3
63	210	1
106	114	2
180	180	21
92	110	1
7	11	3
193	220	1
82	90	3
68	69	2
29	38	5
42	43	2
213	213	17
157	158	5
102	102	16
15	16	8
197	218	1
186	188	2
169	174	2
227	228	3
7	16	4
186	201	4
46	81	3
198	200	4
175	215	2
216	241	1
78	85	1
97	97	8
48	54	2
216	216	5
196	198	2
106	108	3
199	213	2
42	99	2
78	79	4
117	120	4
203	221	5
57	61	4
50	50	21
162	163	2
72	73	9
32	92	4
186	210	3
174	209	4
3	5	7
4	6	7
116	117	1
17	22	1
201	233	7
47	53	1
169	212	4
247	247	4
113	113	10
96	97	6
181	183	2
159	159	10
25	25	6
172	177	3
30	179	1
101	104	3
224	230	4
86	103	3
160	176	3
160	210	1
95	100	4
17	24	1
56	57	6
163	209	3
18	20	5
33	40	4
197	215	2
212	234	2
89	90	6
60	61	7
186	192	2
230	231	4
12	15	4
206	207	4
204	209	1
62	67	4
153	158	3
48	241	2
37	41	4
152	153	1
199	200	5
192	192	10
110	115	2
222	232	3
180	231	1
109	113	5
55	55	3
33	34	3
163	170	3
33	84	1
212	218	1
154	203	1
226	227	8
43	206	2
154	155	3
49	54	1
238	238	6
180	218	1
104	108	10
78	106	1
162	169	2
153	203	4
232	233	2
61	65	9
22	25	4
194	194	7
0	0	2
192	193	3
151	154	5
223	228	4
225	226	3
67	68	8
160	212	5
163	165	3
47	51	3
103	149	6
152	205	2
245	247	2
112	236	3
106	106	7
191	191	2
63	65	3
93	168	3
43	45	2
102	104	4
237	239	1
98	98	4
73	87	3
28	44	5
88	89	5
162	210	2
104	107	5
33	247	1
34	67	3
20	23	2
117	119	4
40	41	1
103	103	6
64	71	2
103	108	1
69	75	2
43	212	2
72	100	1
178	182	1
154	206	7
57	58	3
161	163	5
80	90	1
2	10	4
159	165	3
80	105	3
13	60	2
156	207	3
174	179	2
116	148	2
149	229	1
31	33	4
173	211	2
75	76	5
210	214	1
31	173	3
143	209	1
29	234	2
176	181	2
114	116	1
171	211	1
242	243	6
180	230	1
61	249	3
163	175	1
208	212	4
109	110	5
36	247	2
84	94	3
88	91	2
32	41	3
28	33	4
168	173	1
110	116	1
220	221	2
29	32	3
160	169	3
39	52	2
21	28	3
34	119	2
182	183	5
174	218	1
113	121	1
74	101	1
222	223	3
110	156	1
161	174	3
11	39	1
114	119	3
163	166	3
56	62	1
75	172	1
55	59	1
202	224	4
175	177	2
178	181	1
159	168	1
64	173	2
59	247	2
77	169	1
183	185	2
29	31	2
236	240	3
195	197	4
154	158	1
223	225	3
144	145	1
171	197	2
164	165	1
96	98	2
237	241	2
33	117	1
71	101	2
194	195	4
83	91	3
177	178	1
94	145	3
47	52	2
52	53	1
157	160	1
196	203	3
223	224	4
73	101	1
85	86	2
75	152	4
244	249	1
154	168	3
66	200	1
200	231	1
186	187	7
9	42	1
113	115	1
44	181	1
146	152	2
64	65	1
13	13	2
63	199	1
17	28	1
48	243	3
76	218	1
155	207	2
20	21	7
92	109	2
2	19	1
92	103	1
154	202	1
66	84	2
72	173	6
185	190	1
151	221	4
64	76	1
207	223	1
71	77	1
165	167	1
71	76	2
62	64	2
35	83	2
240	246	2
177	215	1
53	63	2
224	229	1
13	36	1
19	41	1
95	96	2
174	193	4
119	120	2
46	49	2
30	62	3
80	83	2
59	61	2
164	173	1
180	247	1
150	206	2
64	66	3
146	147	4
33	67	4
33	38	4
10	13	1
68	70	1
186	189	2
35	36	7
50	63	3
94	207	1
167	173	1
95	98	3
175	222	1
109	151	1
218	219	1
235	237	4
162	167	2
34	85	1
188	190	3
56	157	2
157	204	1
116	119	3
75	174	3
3	43	1
193	202	3
83	84	3
155	205	1
147	150	3
78	86	2
77	174	1
16	38	2
71	211	1
169	184	1
10	11	4
177	182	2
29	44	1
176	222	1
10	83	2
205	227	2
145	147	1
51	77	1
154	156	1
146	221	1
193	213	2
59	117	1
226	229	1
82	84	4
207	212	1
51	185	3
193	196	1
210	241	1
31	113	1
73	75	2
201	203	1
183	192	1
211	212	2
159	161	1
111	112	1
93	167	1
150	157	1
188	246	2
54	64	1
233	233	3
202	203	1
18	38	1
15	246	1
4	43	1
47	63	1
214	216	2
221	234	1
144	209	1
9	44	1
33	57	1
1	2	1
153	159	1
160	161	1
30	38	1
186	212	1
20	41	1
179	230	1
36	78	2
79	81	2
2	4	1
154	170	1
67	69	1
197	198	2
36	93	1
172	174	1
9	11	1
171	198	1
160	168	1
38	242	1
63	211	1
32	173	1
33	66	1
206	214	1
146	160	1
64	209	1
149	149	1
26	29	1
32	39	1
40	73	1
150	160	1
173	210	1
39	48	1
244	245	1
211	213	1
169	170	1
223	235	1
