96	96	4
83	83	4
84	85	4
84	84	4
14	72	2
19	19	3
70	72	2
39	40	2
61	61	6
101	123	5
12	13	4
17	143	3
118	119	1
63	63	3
34	35	2
134	137	2
65	98	2
42	141	3
1	118	1
117	118	1
60	60	5
126	126	2
3	4	2
120	120	3
23	23	3
109	140	1
140	140	2
129	129	5
6	6	8
133	133	1
5	5	3
81	81	4
82	82	3
118	118	2
51	55	3
20	20	4
105	105	6
39	126	1
26	26	6
104	118	3
50	55	1
49	52	2
115	116	4
2	3	3
36	36	4
71	71	5
59	59	3
62	84	2
29	29	2
116	117	3
124	124	1
136	136	7
39	39	7
14	15	5
133	134	2
18	19	2
1	121	2
100	123	1
67	70	1
30	38	1
86	86	1
27	27	4
127	130	1
108	108	3
112	113	3
15	72	1
121	121	3
143	143	2
22	23	2
113	113	2
0	1	2
18	142	3
114	114	2
25	107	1
137	138	4
62	63	1
87	96	2
128	128	5
68	68	2
11	11	3
28	28	2
145	145	4
107	113	3
99	101	2
39	123	2
96	118	1
67	67	2
124	135	1
47	47	4
22	26	2
69	70	2
90	90	1
81	113	2
58	59	3
38	38	3
114	121	2
77	78	2
46	47	2
115	115	3
17	17	4
101	102	1
127	127	5
13	16	5
111	111	2
99	99	1
50	50	3
104	104	1
128	130	1
31	31	1
38	41	1
13	19	1
131	141	1
82	86	3
119	126	1
80	80	3
34	111	2
125	125	2
127	128	3
70	71	2
132	132	3
98	98	3
43	124	1
54	54	1
131	140	2
57	57	1
41	41	5
4	4	2
131	131	2
79	125	3
77	77	2
48	126	1
4	59	2
122	123	1
52	52	4
127	129	1
88	88	3
103	103	2
126	127	1
22	22	1
41	42	2
56	57	1
134	135	1
78	78	1
106	106	2
22	103	3
91	91	4
40	41	1
37	37	2
13	13	2
141	142	1
75	87	1
102	102	3
32	53	1
56	58	3
17	50	1
130	131	1
95	102	1
21	21	7
49	56	2
135	138	2
95	95	2
30	30	2
86	105	1
85	91	2
60	117	2
64	93	1
139	141	1
76	78	1
124	125	2
65	65	1
33	36	3
9	10	2
74	74	1
43	123	3
16	18	1
104	105	1
82	92	1
129	141	1
14	73	2
98	123	1
85	95	1
66	66	2
49	49	2
14	14	2
83	86	1
9	9	2
109	127	1
137	142	1
136	139	1
110	110	1
109	110	1
102	103	1
25	25	1
79	80	1
16	16	1
80	81	1
64	65	1
136	137	1
55	55	1
87	89	1
99	100	1
27	37	1
20	111	1
94	94	1
34	34	1
