150	151	14
20	21	7
190	190	6
179	180	4
19	20	3
54	55	14
239	239	9
138	138	12
159	159	5
152	152	9
62	62	4
179	181	2
30	30	9
123	124	4
43	69	3
211	234	6
217	217	15
53	53	15
180	192	2
184	185	8
54	54	6
39	53	3
142	142	6
78	81	5
23	24	5
68	68	9
62	63	7
188	188	6
8	8	4
69	69	14
198	218	2
237	239	4
198	198	5
77	80	2
73	74	10
74	74	12
224	224	19
242	242	9
197	197	8
28	28	25
27	27	12
63	64	2
46	46	8
160	160	17
24	117	1
215	218	2
104	104	14
35	36	10
105	105	5
204	204	10
4	5	6
65	65	8
189	189	4
61	61	12
174	175	2
215	228	2
0	231	4
155	156	3
134	163	3
119	119	14
167	169	4
31	31	10
6	8	6
58	58	9
129	129	9
126	127	6
192	193	3
39	39	19
4	4	7
1	20	4
26	26	6
88	89	7
215	216	1
216	216	8
25	26	5
86	86	8
12	12	22
240	240	2
60	64	3
1	1	9
133	133	3
25	25	10
75	75	5
88	88	7
99	99	15
207	207	11
11	28	1
45	165	1
29	29	16
192	192	4
25	172	1
176	176	11
32	211	1
16	16	9
202	202	14
33	34	3
167	168	1
241	241	14
7	7	5
84	84	3
10	10	12
187	189	2
59	60	16
220	220	4
3	3	8
175	176	11
181	181	7
53	55	1
178	178	18
212	227	8
141	141	4
52	52	9
102	102	14
12	15	2
134	135	1
230	230	11
8	12	2
185	185	6
238	238	8
153	154	2
220	221	6
113	114	3
105	106	3
15	16	5
95	95	7
32	33	2
220	225	5
42	42	8
209	210	1
31	217	2
179	179	12
37	40	1
40	41	5
183	184	3
122	128	3
8	15	4
234	237	3
101	101	17
108	108	10
71	71	14
133	136	2
100	123	3
125	125	3
41	41	3
191	192	5
214	216	2
11	11	18
4	14	2
177	178	11
24	29	3
225	225	5
0	0	8
140	141	13
213	214	12
17	17	3
219	222	5
146	146	5
13	14	4
20	20	14
178	180	3
188	190	2
174	174	11
63	66	2
21	21	11
166	169	1
38	40	3
216	234	8
79	101	1
32	190	4
56	64	2
54	56	1
70	70	3
64	64	12
106	106	8
49	50	9
55	56	3
170	170	4
98	98	11
109	119	3
105	110	6
5	13	3
183	183	13
153	155	1
228	228	7
132	154	1
70	86	3
11	12	3
200	200	2
22	23	5
66	67	6
79	84	6
227	227	12
6	6	8
236	237	3
46	47	4
221	221	8
215	215	1
221	222	3
83	83	5
153	153	12
35	35	4
128	128	6
223	224	4
213	213	3
48	49	8
186	192	1
176	196	1
150	150	2
237	238	9
44	45	6
36	36	4
212	215	3
218	218	10
54	57	2
0	1	4
125	126	2
1	232	3
214	214	5
25	187	1
229	229	11
209	209	6
203	203	6
78	78	1
111	113	2
44	44	3
66	68	1
204	208	2
196	196	12
33	35	2
12	13	5
40	162	3
60	60	16
132	132	4
40	40	7
74	75	8
121	121	18
43	43	12
212	212	9
76	76	2
112	113	5
237	237	7
205	207	1
2	2	3
195	224	3
137	137	7
51	51	5
44	65	2
30	31	2
107	108	10
223	226	4
11	17	2
66	66	14
56	56	10
165	166	6
186	186	9
108	119	4
72	73	6
16	17	3
204	205	1
48	48	15
52	53	1
184	186	1
60	97	1
0	2	3
1	33	3
129	131	2
235	235	2
56	82	1
146	147	1
207	209	1
229	231	4
196	197	5
181	183	3
121	138	1
210	210	13
205	206	6
133	145	1
142	150	1
30	41	1
218	219	5
177	177	4
166	168	4
216	232	4
55	55	21
206	206	6
124	124	6
67	67	4
214	215	6
234	234	4
75	100	1
108	113	3
75	84	2
187	187	6
241	242	3
202	208	4
5	6	9
164	164	11
197	216	2
238	242	5
8	17	3
146	163	3
77	212	3
45	45	15
72	102	3
109	118	2
36	43	1
58	60	1
38	38	8
45	46	3
56	68	2
62	64	2
193	193	10
238	239	6
164	205	4
160	162	1
24	24	7
173	173	4
146	164	1
180	180	5
158	158	12
137	138	5
29	39	3
22	22	10
168	170	2
223	223	5
121	122	4
88	153	1
2	232	3
212	213	2
45	66	1
131	131	3
116	116	1
7	9	4
234	236	2
226	226	5
4	7	3
120	136	2
140	140	1
14	14	2
131	156	5
28	29	1
57	57	7
134	165	1
191	191	6
200	201	3
19	19	6
83	84	6
48	54	1
211	211	3
68	69	2
144	144	4
76	85	3
14	16	9
5	5	5
98	99	2
97	97	4
31	33	7
167	167	10
199	200	2
77	79	1
186	217	1
73	73	22
57	61	1
99	130	2
200	210	1
19	22	2
195	196	5
72	72	10
84	85	13
229	230	4
175	175	9
17	191	2
103	106	1
15	15	2
27	28	2
58	59	3
26	27	3
182	182	6
77	86	1
156	157	2
99	109	2
107	111	3
7	34	1
115	118	1
33	33	6
21	22	9
37	39	4
85	97	1
130	130	8
60	98	1
49	62	3
148	171	3
77	77	6
27	30	10
24	27	4
184	190	4
62	99	2
219	220	2
110	111	3
132	135	3
124	126	1
45	47	2
75	104	2
195	195	3
148	148	2
225	226	2
112	132	1
8	10	4
71	98	2
13	17	2
190	191	1
109	114	1
187	188	2
8	9	8
3	8	1
219	219	4
27	29	2
21	23	3
1	224	6
79	80	4
148	149	4
126	126	8
200	209	3
161	161	5
205	205	6
104	125	2
151	151	6
112	112	2
136	136	7
101	138	4
111	111	4
80	83	4
218	224	2
216	217	2
43	176	1
85	85	8
155	155	1
63	63	7
231	233	2
65	68	1
149	149	1
235	237	6
194	194	2
1	234	1
42	47	2
135	135	6
224	225	4
142	152	1
164	165	2
44	46	3
123	123	8
185	186	1
23	23	4
227	228	6
136	138	9
29	30	3
139	139	6
77	104	6
114	114	2
233	239	2
115	115	3
75	78	3
151	152	5
70	72	3
31	41	3
44	170	6
189	190	2
34	35	2
5	9	1
138	139	3
172	172	3
32	32	10
10	19	1
118	119	3
38	44	4
145	146	4
100	101	3
2	10	2
12	192	1
107	107	2
15	26	1
160	161	4
56	57	1
152	154	3
37	38	1
80	82	5
37	216	1
103	105	1
41	159	1
30	32	1
149	151	1
122	123	1
40	54	1
2	3	12
53	58	1
126	129	2
171	172	2
171	190	1
109	110	2
100	100	6
171	171	6
106	107	2
144	146	1
125	127	3
122	129	2
135	144	3
201	201	2
10	11	3
133	157	1
38	39	1
9	31	1
172	236	1
39	71	1
166	167	1
96	96	4
87	87	2
50	50	4
12	14	3
231	231	8
5	63	5
9	26	1
210	212	2
37	37	1
60	62	2
12	37	1
216	218	1
11	15	1
81	84	1
113	113	7
100	102	2
85	86	1
76	77	2
201	212	1
9	10	4
24	25	1
158	160	3
51	81	1
108	131	2
201	202	2
184	184	2
69	70	3
7	8	2
71	131	1
9	9	3
96	100	2
23	26	3
115	117	3
103	103	8
154	155	3
162	163	2
53	81	2
240	242	4
75	76	2
34	34	4
5	7	1
46	48	3
141	143	2
226	227	4
23	207	2
65	106	1
118	118	1
39	48	2
3	20	1
50	80	1
135	136	8
222	222	2
199	199	7
54	161	1
165	167	2
79	83	1
18	19	1
157	160	1
53	57	2
228	229	2
163	163	5
159	160	2
20	232	1
11	55	1
162	162	6
135	161	3
82	82	2
207	208	1
41	161	1
9	112	2
53	54	4
127	129	3
20	56	2
6	214	1
102	104	3
102	105	1
38	127	1
26	29	4
112	146	2
169	169	1
79	79	4
156	160	1
111	121	2
232	232	4
38	176	1
14	36	2
16	21	2
85	88	1
68	102	2
12	53	3
186	188	1
0	3	1
61	62	2
40	159	1
116	117	1
230	231	2
68	164	2
122	161	1
59	59	2
177	195	1
117	117	1
101	106	2
59	64	1
101	137	2
217	218	2
184	187	1
165	165	3
96	98	1
0	9	1
170	171	4
19	21	3
97	98	1
1	32	1
57	84	2
233	233	4
36	188	1
39	41	2
12	19	4
239	240	1
188	215	1
42	43	1
154	154	4
112	161	1
49	49	2
108	109	1
230	232	1
113	131	1
26	39	1
55	57	1
129	136	1
161	163	1
234	235	5
20	26	1
103	104	2
133	134	3
124	125	1
86	139	4
50	54	2
74	83	2
232	238	2
56	62	2
3	6	1
141	142	4
17	21	2
88	122	1
74	128	2
81	82	2
1	3	1
11	37	1
2	20	1
126	128	1
100	103	1
220	223	2
45	53	1
31	34	2
79	82	1
50	51	1
20	37	2
212	226	3
224	226	4
66	69	1
169	170	1
60	76	1
143	144	1
4	8	1
47	47	4
22	25	1
232	233	1
47	69	2
46	178	1
233	234	1
145	148	1
21	42	1
77	102	1
43	48	1
114	137	3
71	74	1
78	82	1
210	211	1
178	179	1
59	191	4
52	54	1
104	106	1
197	198	1
32	36	2
141	148	2
170	173	1
166	166	1
4	214	1
211	212	2
33	37	1
134	134	1
146	148	1
44	55	1
182	183	3
39	40	1
133	161	2
219	223	1
71	72	1
42	160	1
40	42	1
181	182	1
44	165	1
18	18	1
39	62	1
208	208	1
208	209	1
170	172	2
203	204	1
90	115	1
231	232	1
147	148	1
201	216	1
213	218	1
143	172	1
56	67	1
4	12	1
101	102	1
72	157	1
8	215	1
177	198	1
84	104	1
27	31	1
67	147	1
173	212	1
43	44	1
15	21	1
149	150	1
135	174	1
202	203	2
78	79	1
139	142	1
117	118	1
4	216	1
237	242	1
40	75	1
199	212	1
236	239	1
23	164	1
4	215	1
31	40	1
108	115	1
141	144	1
201	233	1
236	236	1
8	11	1
65	66	1
