122	123	18
15	15	28
177	182	3
100	101	10
54	55	8
125	125	22
115	115	17
78	79	7
122	159	7
49	49	32
64	179	3
54	56	1
97	97	20
132	132	12
98	98	11
150	150	38
146	146	23
172	178	3
42	42	37
57	57	16
19	20	8
164	164	11
50	51	11
149	150	10
169	170	16
26	26	11
166	166	32
94	95	13
55	55	23
14	14	20
155	157	3
2	2	11
188	188	21
143	143	30
8	8	13
46	46	23
194	194	44
153	153	30
52	56	2
27	28	8
167	172	5
134	181	2
194	196	5
158	159	22
10	48	3
134	135	11
189	189	16
74	74	8
21	22	4
169	169	28
160	160	29
18	18	8
118	118	15
115	118	10
21	21	14
90	90	7
5	6	18
4	4	6
146	150	3
189	190	2
23	23	20
136	136	32
178	178	18
187	189	4
127	127	22
186	186	36
6	17	2
159	169	3
111	118	3
143	150	5
104	106	6
20	20	22
157	164	3
158	158	38
48	48	35
117	117	15
140	183	6
33	33	13
159	160	6
194	195	5
147	147	32
151	153	5
85	85	2
12	12	26
147	149	5
133	137	1
40	40	9
177	177	20
135	140	3
29	29	26
18	21	8
120	120	24
183	183	26
178	181	2
88	88	5
174	174	18
113	113	14
168	178	5
38	38	13
120	121	8
16	17	14
27	27	20
185	185	17
43	43	19
40	42	4
169	178	3
168	168	31
7	7	12
13	13	24
68	175	6
171	171	19
99	99	25
51	51	50
131	131	18
63	64	4
45	45	28
66	68	4
157	158	16
188	193	4
99	101	3
150	153	1
125	126	11
49	51	2
196	196	24
196	197	17
103	114	3
5	53	3
114	114	23
67	72	2
108	108	22
156	156	25
157	157	21
190	195	2
42	196	1
80	89	4
64	64	10
44	44	16
53	53	25
175	177	7
56	56	15
80	85	5
167	168	11
168	169	18
192	193	20
70	70	8
105	105	12
13	46	4
165	179	2
22	22	28
11	17	1
17	18	10
187	188	17
106	107	12
156	157	6
123	123	20
181	181	15
15	16	3
150	151	5
101	101	6
134	134	19
159	159	35
139	140	13
73	80	3
175	175	16
133	155	3
93	95	6
172	172	23
169	171	5
193	193	27
30	30	15
133	133	11
125	127	3
129	129	12
187	187	24
55	56	5
177	180	3
42	46	1
141	141	16
58	58	23
110	110	8
2	4	3
66	66	9
20	21	12
104	104	13
42	58	3
149	149	41
118	119	10
161	161	16
58	59	7
151	159	5
17	20	3
155	155	22
147	150	7
191	191	24
45	46	19
119	119	35
165	166	17
164	172	2
184	186	12
111	111	12
86	87	4
137	137	20
161	162	8
160	162	4
124	124	16
179	180	10
17	17	13
32	32	3
140	141	5
37	37	24
107	107	20
82	82	9
154	154	22
50	50	17
48	49	6
135	138	2
135	135	22
25	25	21
165	165	12
121	121	15
180	180	25
168	176	2
6	7	4
158	161	4
15	29	5
52	52	16
3	3	10
28	28	6
61	64	2
180	193	6
87	87	10
175	181	2
10	17	1
155	168	2
24	24	16
133	141	8
16	18	3
118	166	2
161	163	10
126	126	19
31	32	5
68	68	11
124	127	2
165	167	3
154	155	11
63	63	8
82	99	11
10	10	27
169	177	1
197	197	7
30	31	4
97	110	2
116	116	13
36	39	2
139	139	15
148	148	12
171	182	4
12	13	5
184	184	22
152	152	14
100	103	2
152	153	17
142	142	26
86	86	13
19	21	3
23	24	6
160	161	11
0	1	9
39	39	23
180	182	10
81	81	9
18	19	6
175	176	2
176	181	1
35	35	7
114	117	7
170	170	8
190	190	30
83	83	16
4	28	6
6	39	2
188	191	3
11	11	8
144	152	6
84	84	6
19	34	3
51	53	8
99	100	14
9	9	28
62	63	3
70	72	3
16	33	4
24	25	4
145	150	2
162	164	9
104	105	5
148	149	17
100	100	24
4	5	3
144	145	9
177	195	3
193	194	21
190	192	6
84	85	3
96	96	4
151	151	19
186	195	2
130	130	17
50	55	1
114	115	5
28	29	8
166	179	6
5	5	21
47	48	8
41	41	6
112	112	22
15	42	1
174	175	10
0	3	1
41	42	6
149	170	3
182	183	2
6	6	13
178	180	6
9	10	3
135	139	4
105	106	7
66	71	6
128	129	10
134	183	4
69	69	14
33	36	3
5	8	10
150	152	1
13	44	1
54	54	12
151	152	4
40	41	16
94	94	23
183	184	10
132	142	3
176	176	6
138	138	20
187	191	3
179	179	10
103	103	9
188	189	8
189	192	3
112	113	7
53	54	9
144	144	19
65	65	2
37	38	11
59	140	2
83	84	2
147	148	10
118	150	2
119	120	6
176	177	3
71	71	17
0	0	18
94	96	3
72	72	5
193	196	4
53	56	2
19	23	3
185	187	3
182	182	25
130	131	18
101	103	6
123	124	5
8	17	3
16	16	21
25	26	13
128	128	11
178	179	11
50	52	7
126	128	1
14	47	1
47	47	12
124	125	11
119	152	1
25	58	1
11	12	9
162	162	9
146	153	2
64	65	4
191	192	3
136	137	7
137	138	5
67	67	11
34	34	19
122	122	14
185	188	6
192	192	18
175	178	2
172	176	2
145	145	9
185	191	1
158	160	8
113	114	3
114	118	2
102	102	10
144	146	3
101	145	3
60	65	2
161	180	1
62	62	4
103	104	4
43	46	4
109	110	9
93	93	11
69	71	2
36	36	12
80	81	3
186	197	5
130	132	2
163	163	15
145	157	2
110	121	1
38	39	5
71	72	7
169	172	1
111	112	8
111	114	1
173	174	1
163	169	4
8	24	4
132	133	5
49	50	10
44	47	2
170	171	7
101	102	10
133	134	8
155	156	8
181	182	9
36	37	5
163	164	6
100	189	1
8	9	5
106	143	2
185	186	13
80	80	10
59	61	1
73	75	5
7	37	8
170	176	2
167	167	12
52	53	3
160	196	3
170	184	5
148	160	1
12	14	5
75	76	2
123	127	2
127	128	11
171	177	1
102	103	5
93	113	3
191	194	6
178	188	2
102	104	2
14	44	1
110	112	2
31	31	9
57	58	5
13	47	3
77	78	5
171	172	11
134	141	2
19	22	3
195	195	11
12	33	3
9	41	4
159	163	5
173	173	25
104	108	2
154	156	1
188	190	3
147	151	4
19	19	15
25	27	3
93	94	7
29	31	3
23	33	6
170	172	10
16	30	1
6	8	2
181	190	1
1	6	4
179	181	4
140	140	12
168	175	1
61	61	6
78	78	2
83	85	6
117	118	5
175	192	3
131	132	7
78	80	5
106	108	3
134	158	1
106	106	2
58	62	1
28	187	1
135	136	2
188	194	2
71	196	1
163	165	3
135	137	2
115	116	8
102	182	2
160	172	2
136	171	5
131	158	2
3	197	2
17	31	2
110	111	2
84	86	3
123	125	3
36	38	3
170	174	3
113	119	1
16	45	1
140	182	5
77	77	3
73	74	4
138	139	5
126	127	3
1	1	6
9	14	1
186	194	3
161	179	4
102	154	1
15	49	6
56	57	6
161	164	4
134	153	3
185	197	4
9	19	3
179	185	2
20	22	5
136	139	3
143	145	5
61	63	1
94	105	2
114	166	3
143	144	3
111	119	1
144	153	2
176	178	8
51	52	3
109	109	2
97	99	1
10	13	1
186	188	3
124	126	3
22	32	2
8	19	2
29	163	2
63	73	2
22	23	3
16	21	3
110	122	2
167	175	2
107	111	4
101	122	2
54	171	5
134	142	2
179	188	1
168	173	4
6	16	2
96	110	1
60	62	1
44	50	1
2	3	4
131	145	1
44	57	2
0	2	3
9	166	2
81	83	2
39	40	3
177	178	1
58	155	3
47	50	1
44	51	1
118	168	1
108	110	3
12	29	1
157	159	5
151	165	1
63	66	2
75	75	2
141	142	3
65	69	2
103	106	1
161	168	8
50	53	2
172	173	3
188	195	2
51	56	2
21	24	3
67	68	2
59	59	2
10	11	2
107	108	3
174	192	1
191	193	6
102	111	1
114	143	2
195	196	5
43	44	2
170	194	1
170	173	2
162	163	2
96	101	1
117	145	3
72	73	3
66	73	3
94	97	1
14	15	1
156	168	1
1	2	1
34	39	1
21	41	4
180	181	6
178	182	1
95	95	6
129	135	1
54	129	3
139	182	2
144	147	1
115	169	1
45	47	1
140	153	3
70	71	3
177	181	1
135	182	1
59	63	5
133	151	1
144	157	1
39	41	7
169	179	1
142	173	2
100	102	3
127	141	6
121	123	4
89	89	1
127	134	1
52	185	3
153	155	1
163	182	2
154	168	1
134	138	2
34	36	1
3	4	2
129	177	2
5	27	1
156	159	1
135	142	3
77	83	1
159	166	3
109	126	1
184	185	2
122	127	1
164	166	2
129	132	2
142	146	2
33	37	1
17	19	1
69	70	3
153	160	1
133	138	1
79	80	1
42	43	2
148	150	2
66	70	2
73	82	2
97	157	1
185	194	2
86	88	8
180	183	4
84	143	1
142	150	1
181	183	2
65	66	2
31	45	1
44	197	3
7	8	1
129	130	6
34	38	1
149	159	4
156	169	1
134	154	3
116	117	1
174	193	1
133	178	2
34	35	1
26	27	3
32	34	1
94	109	2
172	174	1
146	147	1
88	89	2
173	175	4
144	151	2
35	195	1
134	159	1
48	50	1
121	122	3
22	41	3
107	109	1
165	168	1
35	37	1
75	77	1
136	172	2
128	133	3
82	83	1
182	184	1
158	164	4
3	180	1
135	156	1
184	188	1
15	197	2
182	197	1
3	6	4
161	167	1
105	107	1
62	66	2
74	76	1
9	15	1
164	167	2
152	187	1
48	78	2
168	170	1
19	46	1
42	44	1
154	157	1
13	14	1
79	79	1
113	115	4
4	12	1
121	126	2
139	154	1
22	39	1
168	182	1
145	147	2
170	188	2
8	41	1
18	20	2
66	67	1
53	55	3
4	26	1
151	172	2
140	142	2
15	45	1
159	165	1
85	88	1
172	183	1
66	69	3
166	173	1
121	127	1
120	128	1
6	36	2
65	67	1
32	33	1
81	99	1
108	151	1
118	131	2
9	20	2
41	65	1
27	29	1
116	147	2
95	96	2
116	148	1
169	197	2
71	81	2
184	197	2
12	18	2
129	136	1
14	23	1
178	193	1
81	98	1
143	149	1
18	28	1
60	60	2
64	70	1
169	186	1
101	104	1
145	152	2
44	45	1
95	97	1
15	196	1
35	59	1
171	176	1
116	118	2
134	145	1
145	146	2
11	14	1
44	46	1
28	30	1
81	82	1
73	73	1
108	109	1
76	77	2
103	105	1
30	42	1
144	149	1
156	158	1
47	49	1
143	146	1
160	166	1
193	197	1
149	151	1
33	34	1
