33	34	6
56	56	16
83	83	5
165	165	9
64	64	5
128	128	10
3	4	5
148	148	10
138	139	4
35	35	16
43	46	4
125	125	12
142	150	5
149	150	8
81	81	1
45	45	8
44	44	13
137	137	10
114	147	2
115	116	3
22	22	3
80	81	4
1	1	11
110	110	20
33	33	7
138	140	2
80	80	4
115	115	14
141	142	1
101	102	2
166	166	3
19	19	21
114	116	3
50	51	2
112	112	14
130	130	5
16	17	9
18	23	4
106	106	4
39	39	12
83	84	2
155	156	4
99	99	7
134	134	21
25	25	9
49	49	5
91	94	1
73	73	9
138	141	2
37	37	12
11	12	7
80	82	2
136	136	6
39	40	11
91	95	4
67	68	6
40	40	7
11	16	2
76	76	15
23	23	9
43	43	9
26	28	3
3	3	10
55	55	6
92	92	7
158	158	10
135	136	1
11	11	12
17	18	4
38	38	10
12	13	4
41	42	2
111	111	12
142	142	5
17	22	2
6	7	7
109	109	4
105	105	3
63	75	4
161	161	4
124	125	2
8	9	6
146	146	10
77	77	5
26	26	3
88	89	7
108	133	2
148	149	4
34	35	8
48	49	7
46	46	22
147	148	5
90	91	5
13	13	13
92	119	3
70	71	2
7	11	3
111	116	5
134	135	15
90	90	8
7	7	24
164	165	3
126	130	1
157	157	10
20	20	9
5	6	6
108	108	9
110	111	8
122	122	3
79	79	4
55	69	4
133	133	12
15	16	3
55	56	4
143	143	2
161	162	1
57	58	5
89	89	9
6	6	24
155	155	6
12	14	4
74	75	2
96	97	5
54	57	5
139	140	5
125	127	5
116	116	13
104	104	3
114	115	1
2	2	11
88	88	6
149	149	4
144	144	11
7	34	3
21	21	9
127	127	5
18	18	11
94	110	2
62	63	9
97	97	5
129	129	5
133	155	4
163	163	4
15	15	8
99	147	4
120	124	4
47	50	3
53	56	1
138	138	3
159	159	7
116	160	2
56	57	4
76	77	4
90	132	3
121	121	5
20	36	2
1	4	3
153	154	2
93	95	5
41	41	12
91	91	4
20	21	3
78	80	1
14	15	3
63	64	2
56	73	1
150	151	1
53	53	10
102	105	2
69	70	1
117	120	2
34	34	23
144	145	12
157	159	3
48	48	7
10	10	15
90	92	1
27	28	6
54	55	5
21	22	5
161	163	1
52	53	3
7	8	4
118	118	8
14	14	5
143	147	3
107	107	12
44	46	1
78	78	4
46	47	2
17	17	5
53	54	4
114	114	9
45	47	4
151	154	4
98	99	3
147	147	3
101	101	7
7	10	8
98	126	3
86	86	4
54	54	6
145	147	4
58	67	2
141	141	9
79	80	5
43	44	8
126	126	3
7	47	4
5	5	12
98	125	2
124	124	11
74	74	6
132	133	3
14	16	1
10	12	4
117	117	3
71	75	3
121	148	2
157	158	6
113	158	3
117	118	1
7	43	3
6	9	2
140	149	2
47	47	9
4	34	3
42	52	4
120	120	5
72	72	1
113	115	3
8	8	20
162	162	4
75	75	5
66	66	1
112	113	4
51	51	4
35	36	2
42	42	12
13	14	3
106	107	5
111	112	3
104	105	1
13	33	2
87	87	1
121	150	6
163	164	8
78	79	2
125	160	1
93	96	2
143	145	2
145	145	6
84	84	1
38	40	1
27	27	4
50	52	1
52	52	12
13	34	2
21	23	6
79	84	3
98	98	3
121	122	3
63	63	3
87	88	6
73	108	3
15	17	4
2	40	3
9	9	7
120	121	4
123	123	3
77	80	2
9	10	2
66	67	1
64	71	2
142	149	3
16	16	8
0	0	7
130	132	6
58	62	2
153	153	2
36	37	4
162	163	1
37	38	4
167	167	2
126	157	1
13	16	2
162	165	2
20	24	4
17	20	2
95	95	2
146	147	1
62	73	3
18	21	1
135	137	2
105	106	3
139	139	3
36	36	6
4	4	6
12	12	3
94	120	2
102	104	2
10	11	1
119	122	4
42	45	1
128	131	1
27	147	4
54	56	1
51	73	2
113	113	4
65	68	1
160	160	3
1	6	2
143	144	1
82	82	5
98	102	2
89	90	2
116	117	2
136	137	4
143	146	1
92	114	2
119	120	3
77	78	2
13	17	1
169	170	3
17	24	1
131	132	1
62	62	5
97	100	2
97	98	2
2	3	2
152	152	3
55	96	1
170	170	2
108	136	1
94	94	5
81	82	1
113	114	5
120	122	2
100	156	1
47	48	1
121	124	1
90	95	2
165	166	2
8	11	1
28	28	2
82	98	2
131	131	5
44	45	3
85	85	1
89	132	1
64	73	2
14	48	1
162	164	1
4	5	1
38	39	1
62	64	1
133	135	1
153	157	2
144	147	2
118	119	1
45	46	1
145	146	1
152	153	2
106	157	2
1	2	2
133	158	2
16	18	1
150	150	3
63	65	1
126	127	2
5	10	2
66	94	1
92	115	2
102	102	2
101	104	2
125	126	2
2	34	1
38	41	2
0	1	1
145	150	1
18	19	1
57	57	3
128	129	3
42	46	2
91	93	1
151	152	1
5	44	1
24	25	1
156	157	2
154	154	3
151	153	1
41	44	1
120	147	3
91	115	1
104	155	1
158	159	1
161	164	1
118	140	1
101	105	1
110	157	1
164	166	1
99	104	1
100	100	1
66	68	1
57	80	1
112	114	1
