55	55	11
32	32	9
80	80	19
78	82	9
73	73	13
27	27	8
69	69	3
116	116	7
75	75	17
113	114	9
33	44	2
74	112	2
94	131	2
23	23	9
9	10	4
46	47	3
110	110	6
94	129	9
71	72	1
82	82	13
99	100	1
16	26	1
101	101	13
124	124	8
88	93	3
86	87	8
95	95	3
84	113	5
98	98	10
14	121	1
119	119	10
93	94	2
102	102	18
120	120	11
77	77	5
74	74	4
18	18	3
67	68	1
2	2	1
72	76	4
111	119	2
29	29	2
20	20	4
43	79	1
8	8	15
45	53	5
11	11	9
43	120	4
113	121	1
15	16	5
71	71	14
114	133	4
134	134	10
44	109	2
116	118	9
67	67	4
124	129	2
8	9	8
79	129	3
5	5	6
25	25	6
57	97	5
94	94	6
58	60	8
59	69	1
116	128	2
61	80	1
49	53	1
53	54	2
82	110	2
78	78	5
1	2	2
16	17	1
27	28	5
66	66	3
19	20	4
89	90	2
123	123	10
45	46	1
104	104	6
70	70	18
105	105	8
85	85	7
79	79	14
91	92	6
109	131	2
63	63	14
10	11	4
92	105	2
49	49	7
1	1	1
112	112	6
7	9	3
53	53	5
97	97	5
52	53	4
66	119	6
107	108	4
122	122	2
118	119	8
52	54	2
28	28	6
87	87	10
86	86	6
13	13	13
4	4	7
103	103	4
6	6	8
3	4	6
10	10	3
7	7	8
122	131	2
35	35	7
11	34	2
31	31	9
63	65	2
130	131	4
68	68	6
95	96	4
10	21	2
109	110	4
96	118	1
133	133	3
82	106	4
44	44	9
0	0	8
74	107	2
120	123	1
64	65	2
108	109	8
63	66	2
10	18	3
112	127	1
78	118	8
64	105	4
84	84	4
76	76	9
20	24	1
6	11	3
100	100	4
63	67	1
127	127	12
92	92	6
44	45	3
108	110	2
12	120	2
62	69	4
22	23	1
73	118	1
43	43	4
34	34	7
82	83	3
16	16	5
68	96	1
16	18	1
4	5	2
108	108	2
26	27	2
38	38	1
113	132	1
34	52	3
66	68	2
54	54	3
30	30	12
114	114	4
91	91	6
93	93	2
83	83	4
59	59	7
23	24	5
132	132	6
81	81	3
104	105	3
74	75	1
84	117	2
80	87	3
24	25	4
99	99	3
79	80	2
14	14	8
121	127	4
131	131	2
56	56	7
12	12	6
69	82	1
125	125	9
107	107	4
88	105	3
109	109	3
119	120	2
128	128	1
89	89	17
11	38	2
111	111	5
83	86	2
121	125	2
36	36	4
58	59	5
77	116	1
82	86	3
9	9	2
97	98	2
61	61	3
97	101	2
52	95	3
60	66	4
115	115	8
133	134	1
115	129	1
56	59	4
110	111	1
73	106	2
19	24	1
108	123	1
62	63	1
115	116	4
97	122	1
100	133	2
58	58	7
44	54	2
113	113	1
122	133	2
57	57	8
7	24	1
62	62	3
50	56	2
103	131	1
120	128	1
34	48	4
71	131	2
14	15	1
73	74	4
58	132	2
26	26	2
83	84	4
126	127	1
49	50	2
3	5	1
100	109	2
23	32	2
121	126	2
96	96	5
28	29	1
115	130	2
50	50	5
90	93	1
64	64	1
124	130	4
72	72	6
127	128	4
68	69	3
14	26	1
57	58	2
96	109	1
50	105	1
61	132	3
101	103	1
17	17	5
106	110	3
73	115	2
42	78	1
54	118	2
69	115	1
130	130	3
18	20	2
65	67	3
77	78	5
129	129	5
42	43	2
87	128	2
24	24	1
124	135	2
15	15	3
72	95	1
8	36	1
128	129	2
134	135	1
28	43	2
3	3	4
24	65	1
44	135	2
50	59	2
43	112	1
13	35	1
90	92	1
77	80	1
116	129	2
90	90	1
109	111	1
78	79	3
54	55	3
84	85	2
37	37	2
47	47	2
21	21	2
9	11	2
74	110	1
66	106	3
132	133	3
88	88	1
69	94	1
58	66	1
117	117	3
29	30	2
33	33	1
65	77	1
30	32	2
14	37	1
124	125	1
29	36	1
22	22	1
118	118	1
31	32	1
100	134	1
59	81	1
18	35	2
126	126	1
62	76	1
8	23	1
97	120	2
49	52	1
116	127	1
11	31	2
108	111	1
82	108	2
72	73	1
87	98	1
73	116	1
42	44	1
11	36	1
106	109	1
30	31	1
18	19	1
26	38	1
46	46	1
65	65	1
106	107	1
98	99	1
106	115	1
66	84	1
122	132	1
7	27	1
56	57	1
