1	2	7
34	35	1
119	119	9
42	43	3
92	93	5
40	40	10
128	128	8
4	4	14
80	80	7
127	128	10
123	123	6
30	31	18
52	52	6
143	151	1
70	70	11
38	38	9
68	70	1
50	50	21
138	138	7
107	108	3
31	38	2
34	34	14
97	97	10
88	90	7
150	150	7
127	127	13
76	77	2
102	102	4
113	113	4
86	86	5
151	151	13
11	15	6
87	91	6
99	99	8
93	93	5
32	32	11
27	27	12
99	100	5
63	108	4
25	25	9
33	34	4
94	94	13
26	26	14
133	133	11
85	96	2
40	41	21
67	67	2
7	137	5
45	45	7
13	14	5
47	47	14
36	36	7
71	71	11
47	48	1
152	154	6
67	68	7
148	149	7
87	88	4
32	33	7
66	67	6
119	120	6
56	56	4
114	115	1
104	106	3
85	86	8
91	91	13
29	30	4
63	63	4
31	32	3
79	81	4
8	8	7
21	22	6
33	36	6
82	157	1
53	54	2
129	129	18
115	116	6
157	158	8
120	123	2
51	152	1
3	4	8
43	48	2
143	143	6
78	79	3
88	88	9
108	108	8
99	151	1
134	134	11
51	52	3
108	109	3
120	120	7
140	140	4
43	43	7
7	8	4
37	37	5
22	39	2
68	69	9
124	124	3
116	116	11
24	24	23
73	73	17
43	44	2
136	144	3
22	27	3
6	6	4
26	27	7
46	46	8
83	83	9
145	145	2
96	96	4
20	20	5
6	87	1
6	17	5
89	90	3
130	130	8
122	122	6
125	125	8
73	93	7
2	2	11
95	95	8
41	41	11
146	146	2
82	158	2
65	65	4
131	132	6
126	126	8
22	28	3
72	73	4
2	8	2
108	122	2
92	92	15
87	87	10
3	3	7
96	102	4
111	116	2
15	24	2
51	51	10
139	139	18
94	95	3
139	140	4
142	142	7
42	42	15
98	99	2
72	98	1
158	159	2
22	22	7
44	44	6
144	145	3
147	148	1
100	127	3
156	156	10
76	82	3
5	5	9
28	29	5
55	55	4
103	103	9
107	107	8
57	57	3
107	109	5
23	23	7
89	89	5
157	157	3
65	72	2
18	18	4
9	9	8
12	12	6
11	11	4
104	104	9
13	13	3
29	29	10
4	5	6
95	97	1
27	28	5
82	83	2
100	100	4
39	40	7
53	53	3
148	148	6
56	90	2
147	152	3
110	110	2
1	8	2
88	89	4
75	75	6
104	116	1
48	48	14
21	21	7
146	147	6
121	122	4
147	147	4
79	79	6
121	121	6
54	54	9
54	56	3
110	111	1
105	105	8
109	111	1
23	24	4
101	101	8
144	144	5
15	29	3
109	110	2
110	121	1
93	94	5
14	14	1
10	10	5
159	159	6
76	76	6
52	158	11
127	140	2
82	82	14
109	117	5
45	46	3
90	91	5
79	93	3
6	7	4
69	69	6
39	43	1
111	112	5
49	51	1
106	107	5
0	0	5
3	11	2
106	106	8
110	112	1
17	17	7
42	45	3
86	87	1
79	80	4
66	66	7
81	81	13
9	11	1
138	139	4
126	133	1
119	121	3
19	20	5
127	129	2
90	90	9
131	131	7
113	148	3
111	111	17
131	133	3
130	131	4
85	92	1
155	156	8
142	147	2
8	9	4
122	144	1
0	1	1
45	48	1
97	98	2
33	33	8
32	34	1
154	154	1
24	27	2
95	96	3
128	130	1
111	113	2
117	117	8
56	57	1
47	49	1
152	156	2
29	47	1
80	93	3
115	115	5
29	32	3
44	65	3
34	115	1
26	28	1
77	82	3
105	107	1
51	53	2
32	148	1
112	113	2
140	141	3
141	141	3
73	74	1
87	90	3
72	72	3
117	118	2
9	10	2
112	121	2
80	81	2
54	55	1
28	149	1
70	71	3
116	117	1
49	49	7
43	57	4
76	139	1
125	126	1
104	105	6
158	158	7
68	68	2
100	138	2
135	136	1
50	52	3
25	27	4
128	129	4
73	92	2
118	118	3
152	152	3
16	17	2
114	114	4
105	111	2
123	126	1
85	85	2
24	25	1
124	125	1
32	151	1
55	56	1
21	31	2
112	112	1
111	118	1
15	30	1
7	7	6
1	45	1
38	39	3
130	138	2
135	135	4
31	31	1
5	32	3
54	71	1
55	73	1
17	18	3
77	77	3
12	13	1
78	78	2
83	84	3
123	141	1
2	44	1
135	138	2
69	71	1
25	28	3
30	30	1
84	84	7
145	146	1
3	27	1
117	120	2
137	139	1
41	45	1
123	131	1
108	110	1
136	136	4
19	19	1
106	125	1
17	32	1
153	154	2
121	123	1
100	124	2
132	132	3
117	119	1
15	15	2
50	51	2
136	145	1
96	97	2
11	17	1
137	137	4
129	139	2
52	53	2
117	135	1
56	71	1
105	108	2
62	64	2
28	28	1
143	145	1
54	94	2
31	34	1
22	130	1
1	17	3
135	153	1
67	69	1
16	16	3
15	40	1
123	143	1
36	37	1
19	40	1
86	88	1
13	16	2
29	46	1
131	139	1
136	154	1
28	46	1
101	127	2
109	109	1
93	98	1
3	23	3
8	11	2
16	19	1
28	37	1
77	78	1
156	158	1
105	106	1
67	71	1
76	79	2
144	146	1
23	27	1
72	114	1
3	85	1
51	151	1
113	121	1
62	62	2
8	22	1
11	12	1
134	136	1
109	112	1
40	47	1
7	30	2
22	23	1
15	17	1
102	103	1
110	115	1
98	128	1
118	119	2
113	125	1
4	34	1
40	42	1
1	1	1
29	39	1
2	3	1
78	80	1
24	30	1
44	45	1
