126	127	5
19	19	11
52	53	7
92	92	12
82	82	9
38	39	3
58	58	12
58	60	2
4	4	4
53	53	18
105	105	20
20	27	3
11	11	6
83	83	6
67	67	3
8	8	7
54	54	9
118	118	25
19	25	3
80	88	3
110	124	2
23	23	12
87	87	7
96	96	11
14	14	14
112	121	1
11	30	2
131	131	11
3	5	1
109	109	15
56	56	24
60	61	4
49	49	17
10	11	4
12	12	32
96	117	3
27	27	23
78	81	4
115	116	2
4	32	1
20	20	15
15	15	7
13	13	13
13	62	3
14	15	5
11	14	7
49	51	3
54	56	2
84	84	6
98	98	13
121	121	11
116	129	2
21	30	1
26	50	1
114	114	17
117	117	9
46	47	9
33	33	6
25	26	6
46	46	19
45	45	7
108	109	4
110	110	7
41	44	6
99	115	2
113	125	3
123	123	9
112	112	23
13	14	15
6	7	6
21	21	11
55	55	12
47	47	17
66	117	1
62	76	1
130	130	10
89	105	4
77	78	1
49	50	1
44	44	3
18	19	6
127	128	7
24	24	15
124	132	1
108	130	2
95	95	17
60	64	6
25	25	7
6	6	14
71	71	5
130	131	7
77	79	3
76	76	10
12	32	7
9	9	9
104	109	2
10	10	13
28	29	1
90	90	13
102	103	3
116	130	1
29	38	3
32	32	12
59	59	3
0	1	6
111	111	10
88	99	1
86	86	7
62	62	2
102	102	11
58	103	2
63	68	4
64	64	11
22	22	5
133	133	9
82	87	1
41	61	1
19	20	3
53	54	3
116	116	5
108	108	15
115	130	4
85	86	5
16	16	13
52	52	19
2	2	4
128	128	5
50	50	27
132	132	12
120	120	9
69	69	12
29	30	4
57	64	3
44	45	2
97	126	1
1	1	6
14	28	2
50	51	6
86	90	1
18	21	1
91	91	11
21	59	1
0	26	3
63	63	6
80	80	10
51	51	15
117	118	3
105	106	4
81	81	6
116	117	6
103	108	1
126	126	3
39	39	5
49	70	3
21	29	1
74	74	15
4	5	8
22	23	4
9	10	2
48	48	10
115	125	4
95	117	2
45	74	1
14	21	4
26	26	4
77	83	2
0	0	9
61	114	1
78	78	10
104	105	7
96	120	1
104	106	1
13	22	3
40	40	6
115	115	10
85	85	10
97	99	2
88	88	11
31	75	2
58	59	3
76	81	3
61	62	1
89	89	10
124	124	6
88	89	2
17	29	2
30	30	7
64	67	4
59	60	5
33	39	2
26	40	4
77	77	12
129	129	5
97	117	5
15	62	2
12	30	2
31	32	3
91	93	4
93	94	5
28	28	6
125	125	10
60	111	2
31	50	2
97	97	3
51	52	4
72	72	6
73	73	3
43	44	7
48	49	7
132	133	1
8	9	4
42	43	10
66	67	1
45	46	3
2	24	1
113	113	12
12	13	6
114	130	11
15	16	5
68	68	4
113	127	3
63	64	7
72	73	2
65	65	9
3	4	4
13	31	6
81	83	1
4	23	4
119	119	14
89	90	4
79	79	2
127	127	6
7	107	1
17	74	1
20	23	1
115	129	2
124	125	3
10	27	1
120	121	2
27	50	1
122	122	12
41	41	4
1	25	3
91	100	1
96	97	4
68	69	5
129	130	1
57	57	6
90	91	8
90	96	3
30	33	1
5	42	2
80	82	4
114	128	1
103	104	6
99	100	5
18	18	7
25	27	1
43	43	7
123	124	6
65	80	2
7	7	4
97	98	3
33	34	2
69	70	1
104	104	7
100	100	7
40	42	4
106	131	2
10	89	1
16	17	2
106	106	5
28	96	2
11	24	1
95	96	1
84	119	3
70	100	1
93	93	3
11	15	1
11	12	7
5	5	5
16	41	2
68	76	1
26	49	2
24	25	4
86	88	4
43	45	3
78	79	4
3	7	1
84	85	1
40	41	4
14	18	1
79	84	2
75	75	6
67	108	1
106	107	3
27	28	3
118	130	1
60	76	1
55	103	1
47	52	1
31	31	4
58	130	1
42	42	7
50	120	1
32	33	2
90	102	1
68	72	3
103	103	6
83	84	3
68	108	1
29	96	2
97	127	4
102	104	1
128	129	2
40	116	2
55	56	2
26	27	4
110	113	2
3	3	3
55	108	5
29	29	2
101	109	1
66	78	5
13	16	3
46	48	2
38	38	1
59	130	1
95	119	2
87	88	2
110	111	1
98	99	1
89	91	5
53	120	1
78	83	2
41	42	2
94	94	9
72	85	1
123	132	1
117	132	3
66	66	5
7	8	1
58	102	2
48	52	2
16	61	3
21	58	2
109	110	2
43	74	2
58	61	3
107	107	1
10	44	1
92	94	1
49	57	4
58	117	3
49	73	1
14	60	2
69	80	1
82	86	1
57	125	2
58	92	3
2	7	4
98	100	1
85	88	1
43	64	2
61	61	1
1	7	1
91	92	3
70	70	4
50	66	1
69	76	2
64	65	1
120	132	1
19	21	1
65	66	1
82	83	2
79	81	1
52	121	2
74	78	1
99	99	6
113	115	1
72	74	1
54	55	1
111	112	1
100	114	1
70	71	1
112	113	2
56	57	1
4	34	1
88	101	1
43	63	1
38	40	1
6	70	1
109	112	2
85	106	2
93	95	2
63	65	2
67	116	1
5	91	1
15	29	1
55	117	1
67	76	1
113	114	1
7	106	3
30	32	1
109	114	2
129	131	1
39	46	1
5	44	2
82	107	1
5	31	1
121	122	1
113	117	2
67	69	1
6	10	1
22	57	1
14	19	2
2	22	1
21	22	1
101	102	2
16	71	1
98	111	1
17	17	1
122	123	1
62	63	1
60	63	1
47	50	1
113	116	1
126	129	1
