134	134	23
24	25	6
2	78	1
3	4	8
78	80	5
82	109	1
31	32	2
88	88	20
3	10	3
1	1	13
29	29	14
100	100	8
82	84	7
80	112	8
9	9	9
82	83	11
10	10	13
107	108	6
120	121	10
132	133	6
111	111	10
126	127	12
26	26	15
126	126	25
89	89	16
90	90	5
75	77	2
33	34	3
129	129	21
81	81	12
125	125	21
115	116	6
2	2	14
73	77	1
30	31	6
34	34	7
97	97	14
28	31	4
35	35	9
104	104	26
6	6	9
37	38	4
102	111	2
136	137	7
84	107	3
21	23	3
0	1	6
80	80	15
131	131	20
99	99	8
76	77	6
136	136	6
27	27	17
109	109	17
73	73	5
83	83	12
72	72	13
72	77	2
0	33	1
140	140	11
6	33	8
98	111	2
108	109	10
7	8	7
115	115	14
23	23	13
78	78	16
11	11	13
4	4	5
128	128	5
135	140	2
81	82	5
133	135	3
107	107	13
12	17	3
105	105	9
112	112	10
14	14	9
23	24	4
103	103	14
113	113	14
19	19	19
120	123	7
21	24	2
102	102	19
117	119	3
96	128	2
71	109	1
80	81	1
84	84	10
138	138	5
9	10	1
86	86	17
91	93	1
119	123	1
30	30	15
33	33	11
108	108	18
108	114	1
34	36	2
32	32	14
122	122	15
122	123	10
82	82	13
92	92	7
31	31	9
91	91	8
116	116	12
106	106	2
90	91	8
8	8	5
114	114	16
108	120	1
8	23	1
10	11	9
139	139	13
21	38	7
74	74	14
95	95	12
85	85	4
11	29	3
98	98	9
132	132	14
115	119	1
24	28	2
36	36	5
137	137	8
13	14	4
110	110	8
114	115	8
23	27	1
94	94	11
121	121	21
28	30	3
135	135	13
92	94	3
121	122	3
15	15	9
101	101	9
100	101	2
4	6	3
123	124	6
84	85	5
20	20	9
16	16	9
134	135	8
19	20	8
83	107	8
120	120	19
105	106	3
22	22	10
127	127	12
11	15	4
16	21	3
24	24	9
119	119	7
100	103	2
71	71	8
75	75	5
88	90	2
90	140	2
123	123	12
27	31	1
7	7	11
130	130	8
87	88	2
32	34	4
114	123	4
135	136	7
11	13	1
128	129	11
15	18	1
91	98	1
4	5	4
76	76	15
104	105	8
103	104	1
8	9	5
36	37	1
28	28	8
133	134	5
25	27	1
5	5	8
116	123	2
133	133	12
37	37	8
95	138	2
4	9	3
0	14	3
118	118	14
121	123	4
124	124	18
117	117	5
92	98	1
6	7	3
11	26	5
118	119	3
77	100	1
98	99	2
124	125	10
10	14	13
74	76	4
11	12	3
112	113	5
72	79	1
10	12	3
119	121	3
96	96	7
94	100	4
116	118	1
18	18	13
24	26	1
95	96	6
74	79	2
28	125	1
93	94	4
2	13	3
3	3	11
118	121	1
21	21	7
96	97	2
12	12	7
19	22	1
15	17	1
0	0	7
17	17	8
3	72	3
72	81	3
2	14	2
90	94	2
7	32	1
112	136	2
78	83	2
101	102	3
119	122	2
134	138	1
86	115	1
71	72	6
107	111	3
11	14	1
75	76	2
74	110	1
79	79	4
118	122	5
18	26	1
23	25	2
20	133	1
23	29	1
87	112	2
12	14	2
1	2	3
33	128	2
101	123	1
14	15	2
20	21	3
34	35	2
0	12	1
127	131	1
27	30	5
109	119	3
25	25	6
13	13	4
25	26	2
12	30	1
21	25	1
7	25	1
138	140	3
139	140	5
131	132	3
82	107	1
77	77	3
6	27	1
97	99	2
73	80	1
26	27	1
74	75	3
0	8	4
83	108	1
93	93	2
79	81	2
123	126	1
21	29	1
100	126	1
19	121	1
109	117	1
94	127	2
29	31	1
76	79	1
38	126	1
82	87	1
110	111	5
78	84	1
72	100	1
116	117	3
85	86	1
137	139	1
130	132	1
125	126	3
2	9	1
28	29	2
87	87	1
4	15	1
5	7	1
114	116	2
70	70	1
119	120	1
82	85	2
116	126	1
81	87	1
15	16	1
77	78	1
91	99	2
73	78	1
12	29	1
17	37	1
111	112	1
71	108	1
110	124	1
84	105	1
12	15	1
108	122	1
85	102	1
89	91	1
28	32	1
88	89	1
109	110	1
2	3	1
22	23	1
84	88	1
106	107	1
4	13	1
14	17	1
102	103	1
27	28	1
86	88	1
21	26	1
79	80	1
92	97	1
