63	65	1
93	93	7
63	63	6
100	100	10
41	41	8
73	74	2
77	78	3
84	85	4
59	59	6
44	74	3
33	33	7
108	108	19
83	83	11
26	26	7
74	74	9
49	49	11
43	43	5
76	76	17
27	27	7
27	28	10
81	111	2
101	102	3
65	69	1
78	79	13
92	93	4
95	95	13
63	64	4
112	112	12
107	107	8
77	77	12
115	115	3
77	103	5
80	80	3
82	82	8
103	104	6
56	56	5
24	26	2
78	78	17
113	113	11
55	55	10
52	52	7
82	85	2
79	79	7
44	44	7
71	71	13
68	68	8
57	57	2
32	33	4
64	64	5
95	96	2
30	30	5
55	56	5
40	40	2
48	48	5
65	65	9
111	111	4
87	90	4
72	73	3
20	26	2
23	23	1
24	24	7
43	96	2
37	37	6
45	45	13
81	85	3
36	39	2
28	39	2
75	78	2
44	87	2
54	54	7
73	75	4
53	53	4
47	83	3
100	101	1
58	59	8
38	38	9
69	69	10
53	55	3
84	84	11
26	27	3
32	32	1
97	97	12
98	98	9
72	92	2
50	50	8
35	35	10
90	90	9
39	39	10
88	88	6
32	34	2
109	109	4
53	58	1
104	104	7
81	81	5
87	87	15
89	90	4
66	66	8
109	110	2
25	25	3
40	90	1
70	70	6
75	75	9
101	105	1
30	31	5
83	84	1
68	69	10
103	103	8
71	92	2
74	75	3
46	47	4
37	39	1
61	61	2
79	80	3
96	99	1
58	58	9
89	91	2
34	35	4
64	79	1
22	22	5
106	107	3
75	76	2
66	67	10
35	36	2
88	90	3
105	112	2
104	105	2
102	102	11
25	58	4
76	79	3
93	94	3
49	50	2
60	60	8
23	26	1
113	115	1
38	58	4
33	44	4
44	70	1
101	101	9
65	66	4
99	99	11
47	51	4
29	29	1
62	63	5
85	85	6
68	71	2
84	87	3
55	58	4
31	31	5
36	36	3
20	87	1
85	86	5
47	47	5
19	19	1
88	92	2
44	73	2
68	87	4
36	37	5
102	103	3
94	103	2
52	92	1
39	59	2
24	31	5
41	43	2
20	20	5
67	67	3
94	94	2
72	95	2
64	67	4
19	20	1
51	51	4
114	114	3
73	73	3
101	103	2
23	37	1
75	100	1
80	81	2
31	61	1
28	30	1
105	106	2
76	77	5
80	95	1
57	60	2
23	29	2
20	86	1
45	46	2
81	93	3
21	21	4
76	108	2
86	87	9
38	106	2
26	28	2
104	107	3
92	92	11
53	81	1
106	106	3
98	103	1
48	50	1
67	99	1
23	40	3
67	78	2
102	106	1
89	89	2
80	93	2
86	89	2
40	41	2
59	60	2
43	44	2
81	97	2
110	110	5
57	58	1
72	72	6
34	36	1
85	95	2
56	57	3
43	45	1
81	82	1
29	30	4
77	91	2
75	86	1
104	106	1
27	29	1
104	108	4
65	67	2
66	94	2
55	101	1
71	72	1
21	22	2
96	96	1
19	22	1
39	40	1
51	52	2
85	92	2
24	34	1
52	113	1
101	106	1
46	46	3
53	59	1
72	78	1
95	101	1
110	111	2
63	70	2
96	97	1
22	37	2
55	57	2
91	93	2
34	34	1
112	113	1
27	38	1
20	88	1
70	71	3
25	32	1
90	91	1
59	98	1
50	51	1
45	47	2
102	105	1
104	109	1
77	79	1
73	81	1
105	105	1
82	83	1
73	97	1
21	88	1
73	77	1
94	109	1
76	91	1
78	94	1
36	40	1
69	71	1
24	54	1
68	70	1
65	70	1
81	84	1
