6	6	24
119	119	3
76	76	11
47	48	5
65	65	2
49	90	3
94	94	3
26	27	2
97	105	3
58	63	7
39	39	12
19	19	4
111	123	1
51	51	20
56	56	9
94	125	1
120	120	3
72	73	2
72	72	7
2	2	3
111	111	10
83	84	9
127	127	6
17	17	2
8	9	7
99	100	3
112	113	4
49	54	7
29	29	3
106	106	9
123	123	10
18	21	6
52	52	16
130	130	6
2	101	1
30	32	7
131	131	5
72	75	2
100	100	7
20	20	3
1	1	8
112	112	9
102	102	6
53	53	10
77	77	10
67	69	5
45	45	8
104	104	6
125	125	10
67	70	3
105	125	3
99	108	2
50	50	14
71	71	2
48	48	6
75	76	1
55	55	5
23	23	2
46	47	11
20	102	2
105	105	18
108	125	4
4	4	4
88	89	5
124	124	6
81	81	3
15	15	2
133	133	3
132	132	2
28	28	6
84	84	6
29	30	3
99	102	1
109	118	5
67	67	3
86	86	2
7	7	9
54	54	4
93	95	4
69	89	2
60	60	4
114	115	3
12	13	5
0	0	10
82	83	3
73	73	4
122	122	12
118	118	3
20	22	1
114	114	6
49	53	3
21	24	2
131	132	2
113	114	8
28	48	2
93	93	6
98	99	1
85	85	6
77	78	1
115	115	4
19	20	11
6	7	1
43	43	6
95	95	5
50	51	2
10	88	1
20	68	2
57	57	8
27	27	3
96	96	3
42	42	3
28	31	1
107	110	4
110	110	14
49	49	1
89	89	4
34	34	1
48	89	1
80	80	3
80	82	2
42	43	3
30	44	2
106	119	1
70	70	8
45	66	1
128	129	2
121	121	4
126	126	1
109	109	4
85	112	4
61	61	6
117	118	2
78	131	1
87	96	2
59	60	2
47	47	8
10	10	1
5	6	2
103	103	4
80	99	1
66	67	2
38	38	2
25	25	3
117	117	4
19	21	1
53	63	1
16	33	2
13	13	8
103	104	1
8	8	1
21	72	2
132	133	2
22	22	3
61	88	1
79	79	4
2	3	2
32	32	4
104	105	3
39	40	2
9	9	7
98	98	2
5	5	1
52	62	2
78	99	4
97	98	3
24	24	4
3	117	1
54	63	3
30	31	1
58	58	3
20	21	3
124	126	2
10	11	3
66	66	3
107	119	1
83	83	5
90	90	7
22	23	2
120	121	5
23	24	2
116	117	1
74	75	2
99	101	2
105	112	1
52	54	2
46	46	4
75	75	1
64	64	2
52	53	2
63	63	2
41	42	5
122	129	1
97	97	2
49	51	1
99	104	1
19	93	1
61	67	2
74	74	2
118	129	1
96	113	1
18	18	4
81	82	1
126	128	1
49	88	1
12	14	1
54	55	2
41	43	2
68	68	3
110	117	1
107	108	1
60	62	1
109	110	1
61	62	1
108	108	3
107	107	2
130	131	1
51	52	1
99	113	4
107	126	3
91	91	2
44	45	1
118	119	2
97	101	1
93	94	1
25	26	2
69	69	3
41	41	2
18	19	2
1	2	4
1	103	1
124	125	2
78	78	3
126	127	1
16	18	1
111	113	1
118	125	1
102	103	4
55	56	1
127	128	2
19	91	2
48	50	1
57	58	2
128	128	1
100	108	1
98	101	1
73	74	1
92	92	1
68	70	1
20	25	1
129	130	1
116	116	1
24	25	1
16	16	1
12	12	1
14	15	1
129	129	2
97	109	1
30	30	1
94	95	1
55	74	1
