32	33	7
24	24	11
182	182	18
1	2	9
77	77	7
127	127	9
8	8	15
19	19	12
69	80	3
170	170	4
83	83	4
177	177	19
157	158	3
156	157	2
139	139	4
168	169	10
64	73	3
165	165	19
112	112	6
9	9	10
164	164	9
33	33	12
196	196	9
46	46	10
179	179	10
160	161	8
5	6	7
59	59	9
1	58	4
8	10	1
66	73	4
148	175	5
111	112	4
189	189	13
48	48	6
18	18	2
112	117	4
76	76	4
15	16	4
193	193	19
173	175	11
45	84	2
50	51	11
70	72	6
171	171	10
3	4	1
146	146	21
131	131	9
128	128	17
155	155	27
154	155	7
31	32	10
11	11	7
189	193	2
34	35	10
168	168	10
43	184	4
184	185	3
0	1	4
81	81	5
154	154	10
13	13	8
116	181	2
58	58	2
145	147	4
39	39	16
166	166	10
76	77	4
43	43	13
121	121	9
119	119	4
126	127	9
118	118	4
142	142	7
147	147	11
69	69	4
188	188	9
115	135	2
107	136	2
157	157	11
127	128	2
111	111	6
25	25	8
54	55	2
161	163	1
15	19	4
103	104	2
184	184	10
156	156	5
60	61	1
147	175	1
10	10	13
87	87	10
16	16	13
47	47	13
153	163	2
180	181	10
4	4	19
158	159	7
194	194	16
51	51	8
72	74	3
175	175	8
145	145	6
116	182	4
80	80	2
44	44	10
22	23	1
45	45	15
170	171	5
78	78	8
112	113	5
89	89	13
119	120	6
130	131	8
77	89	2
69	115	7
151	151	5
2	3	5
39	40	7
110	111	2
144	144	4
53	53	12
42	43	5
82	84	7
34	34	11
110	116	1
14	14	7
192	192	10
115	154	1
129	129	6
148	160	4
172	172	10
137	137	6
141	141	4
49	49	4
26	28	6
27	27	9
113	117	2
117	117	5
107	107	1
173	173	4
89	90	2
17	17	9
2	2	2
55	110	4
187	190	3
12	12	13
67	69	1
149	150	6
22	22	17
95	95	5
152	152	10
65	73	1
165	166	4
171	175	3
54	54	10
163	163	3
72	73	5
67	68	2
40	41	5
26	26	11
82	82	5
106	106	7
161	161	9
144	145	5
80	137	1
122	122	14
169	178	4
70	70	4
98	99	1
84	84	2
26	27	13
39	41	2
132	133	2
22	35	3
52	52	3
108	108	9
172	177	3
98	98	2
185	185	6
187	193	4
147	148	12
183	183	19
154	177	1
186	190	3
81	135	2
113	171	6
30	33	3
101	102	1
77	78	4
10	11	1
68	69	2
60	60	4
158	158	9
116	116	1
28	29	2
66	67	5
175	176	4
100	100	5
87	95	3
23	23	10
173	177	1
191	191	4
159	161	1
101	138	1
81	83	1
181	182	6
127	142	4
87	88	2
185	186	6
178	178	3
163	166	2
122	123	3
114	175	1
169	169	7
152	159	4
116	119	2
11	12	8
117	118	5
167	167	12
90	90	2
138	138	8
181	181	13
192	193	5
99	99	4
79	80	1
135	135	3
79	86	3
114	114	5
169	170	1
96	96	4
7	7	10
182	183	6
12	13	6
122	138	1
56	56	6
186	186	6
4	5	4
107	108	1
34	38	8
94	95	5
86	86	5
84	85	1
154	157	1
180	180	9
134	135	3
174	174	12
124	125	3
115	116	6
64	72	4
1	10	6
8	9	3
9	38	2
162	164	3
113	115	1
95	149	1
177	178	2
35	35	5
145	146	2
21	21	8
132	132	6
153	153	12
159	174	3
167	168	6
173	174	3
79	79	1
83	84	4
151	157	2
31	31	11
44	45	2
46	47	3
0	2	1
197	197	9
6	7	4
104	104	5
187	187	9
9	23	2
110	110	4
188	189	1
58	59	3
133	134	2
124	124	2
59	61	1
116	117	7
172	173	1
3	6	2
32	32	2
176	177	6
141	148	3
74	74	1
105	107	1
134	134	4
24	25	4
102	102	2
1	1	6
109	117	1
159	159	11
113	113	8
63	72	2
78	141	3
85	85	4
15	171	1
160	160	9
17	32	3
12	48	2
15	179	1
52	53	2
179	180	4
0	24	2
109	110	4
194	195	7
99	101	2
56	57	1
0	0	4
195	195	1
37	42	2
21	22	2
15	15	4
28	28	9
74	182	5
57	196	1
173	176	4
133	133	7
71	71	2
29	29	2
107	164	4
128	160	1
123	123	4
164	166	2
152	153	2
150	150	10
16	19	4
2	37	3
140	143	1
102	103	2
79	88	1
170	172	2
0	21	1
140	140	5
36	37	9
15	17	3
190	190	7
103	105	1
78	88	5
5	5	7
166	167	3
34	45	7
103	103	4
150	152	1
191	192	3
140	164	4
158	179	1
171	172	1
58	63	2
176	176	5
6	6	4
139	180	2
193	194	3
100	103	4
162	162	6
149	149	5
97	170	2
41	41	1
94	94	2
27	28	3
99	100	2
96	97	4
28	31	1
143	143	7
69	70	1
101	101	3
101	103	1
47	49	1
75	154	3
20	20	5
165	168	7
55	55	5
163	165	1
87	89	2
102	104	2
106	195	1
151	152	1
191	193	2
54	106	1
49	52	2
79	142	5
176	181	1
163	164	2
38	38	9
43	85	1
4	38	3
13	14	2
16	17	4
104	105	7
119	183	1
178	191	3
72	72	3
161	164	2
88	89	5
7	8	2
3	58	2
141	142	1
42	42	5
0	4	6
131	134	1
45	58	1
22	24	2
178	181	4
41	43	1
189	190	1
62	65	1
122	187	1
28	33	1
153	154	4
118	183	4
138	139	3
57	57	6
28	38	1
186	187	3
9	10	2
157	159	4
1	19	2
34	36	1
129	130	1
115	115	5
19	22	2
50	50	3
62	72	1
65	66	2
151	153	2
100	101	1
148	148	4
143	144	4
97	98	1
140	179	1
61	61	1
53	55	2
103	138	2
66	68	1
17	33	4
125	125	3
170	174	3
37	37	4
139	179	3
113	114	1
81	82	3
169	172	1
35	36	9
149	163	1
18	19	2
161	162	3
4	36	2
62	68	1
23	24	1
126	126	1
136	136	2
120	121	1
122	136	2
49	50	1
79	85	1
196	197	1
69	183	1
6	8	5
130	146	2
18	177	2
190	193	1
164	169	1
20	21	2
108	137	1
20	34	1
170	173	2
139	160	1
177	190	1
94	160	2
46	195	1
30	31	4
148	149	2
164	165	1
36	36	5
128	129	3
106	107	2
190	191	4
3	8	1
114	115	1
21	23	1
20	22	3
105	105	3
105	128	1
61	66	2
53	54	1
68	81	1
195	196	2
45	46	1
168	170	1
14	186	1
95	96	3
184	197	1
175	177	2
45	189	1
120	120	1
190	192	3
14	15	1
40	42	1
137	165	1
155	159	2
97	97	1
57	63	1
169	171	1
68	68	1
121	123	2
4	37	2
70	71	2
62	62	1
0	25	1
27	32	1
188	190	1
154	173	1
74	75	1
148	152	1
160	162	1
146	147	1
37	38	2
154	158	1
67	80	1
76	155	2
103	195	1
130	130	1
177	191	1
103	193	1
5	7	1
97	169	1
69	156	1
150	151	1
59	64	1
186	188	1
