32	32	42
174	174	10
54	56	2
115	117	10
28	28	19
91	92	11
108	109	4
23	25	5
61	119	4
79	79	16
111	111	11
23	23	38
59	59	32
3	3	16
37	37	39
79	95	2
87	88	3
151	151	8
13	13	34
99	112	2
18	19	22
2	8	7
126	143	6
94	94	24
157	158	10
25	25	15
136	140	1
45	45	25
54	54	15
82	82	10
148	148	47
156	166	1
12	12	23
10	10	57
112	136	5
135	135	16
175	175	19
7	10	4
143	145	9
8	38	1
51	51	20
149	150	23
80	80	24
38	38	96
14	14	69
90	91	5
53	54	8
146	146	8
100	100	10
138	138	22
60	118	1
121	121	7
51	53	2
106	107	16
39	39	45
43	43	19
75	76	13
114	117	3
73	74	8
134	134	26
125	125	20
83	83	14
15	15	39
32	36	5
81	82	5
44	44	16
29	30	6
5	6	27
105	117	5
102	111	4
142	142	30
177	178	11
110	111	13
122	122	18
8	8	33
4	5	8
136	136	21
77	77	21
153	156	3
61	61	11
154	154	12
18	18	29
58	58	18
19	19	29
7	7	24
130	131	7
24	24	39
23	24	8
155	155	15
27	29	7
16	16	31
44	45	9
20	20	18
116	116	9
104	104	10
34	34	34
147	147	36
71	71	11
35	37	4
141	156	4
11	15	6
23	32	9
92	94	5
162	177	3
7	39	3
28	29	18
137	138	7
75	87	4
35	35	45
101	104	2
3	11	26
36	36	63
16	19	3
96	96	26
107	107	17
163	164	4
139	139	25
99	99	6
136	137	9
172	173	7
18	22	3
27	39	4
122	124	7
171	171	32
92	106	2
166	168	1
10	19	1
170	170	11
2	3	11
38	40	6
40	40	24
135	136	12
107	108	7
105	106	3
97	98	6
30	30	16
2	9	7
31	31	27
5	5	25
2	18	4
105	107	3
22	25	1
63	81	4
3	6	7
128	167	1
80	118	5
149	153	6
19	23	9
153	154	5
133	133	38
10	14	3
33	33	58
114	115	3
1	1	13
89	89	14
22	22	31
91	91	5
65	65	3
71	72	26
57	59	2
161	162	19
152	164	2
98	98	11
93	93	4
125	126	13
172	172	26
123	124	15
13	14	7
164	164	10
36	37	11
110	128	3
143	144	1
154	157	3
135	147	3
143	143	31
6	41	2
2	6	2
128	130	6
126	126	15
5	10	1
73	73	31
11	11	26
1	3	5
71	156	3
167	167	12
16	20	3
132	132	24
122	123	2
19	30	1
10	12	7
105	105	14
57	57	10
52	52	18
25	28	13
59	76	2
2	2	24
17	18	6
160	161	6
27	28	6
179	179	9
96	123	4
31	33	5
86	86	11
60	64	3
53	53	16
124	124	18
123	123	11
128	128	4
27	27	22
103	103	4
4	4	29
41	41	20
180	180	9
131	149	8
6	6	33
22	24	4
78	97	5
33	44	4
144	144	11
52	58	2
160	162	16
35	39	3
169	169	8
3	4	17
112	112	25
34	44	3
175	180	2
107	109	6
35	41	5
62	62	15
102	102	14
127	127	9
125	142	2
98	102	1
15	16	23
12	13	10
50	51	6
26	33	1
26	27	6
137	137	41
102	106	2
25	26	15
87	87	10
35	43	1
157	159	5
35	36	10
17	36	5
165	165	10
32	33	20
147	154	2
147	148	7
163	166	2
21	21	8
3	13	4
22	23	5
26	30	2
58	59	18
101	101	6
106	114	1
112	148	6
18	23	4
117	117	3
117	118	3
94	95	11
163	163	11
3	68	1
149	149	27
22	26	3
116	120	4
16	17	16
104	120	3
146	168	4
151	177	1
129	129	11
4	11	6
168	169	8
112	122	1
20	23	3
16	40	1
173	175	4
118	118	17
156	165	2
168	168	8
156	158	5
97	101	4
170	171	1
159	159	18
26	26	22
119	120	2
31	32	14
9	9	22
17	17	26
85	85	6
145	146	2
9	10	9
23	29	3
154	159	3
4	21	2
93	108	1
60	61	4
93	96	3
52	55	4
14	15	3
141	141	9
130	130	15
72	72	12
12	22	2
65	66	2
110	110	4
102	104	11
15	21	2
173	173	25
12	18	3
144	146	1
115	115	8
3	34	9
150	150	9
95	95	30
153	153	12
138	139	3
176	176	15
68	68	18
78	78	11
98	134	6
29	29	20
31	41	1
22	45	1
70	72	3
131	132	6
34	36	1
102	110	5
2	5	5
98	101	2
14	17	4
55	55	13
175	176	3
3	9	6
11	13	11
32	35	3
1	2	5
3	12	7
173	174	4
148	149	5
39	40	7
59	77	10
42	42	21
76	79	1
164	165	3
16	31	4
76	76	21
52	53	17
38	39	17
119	121	2
127	131	3
134	147	7
79	98	6
1	5	4
131	131	10
140	140	9
134	136	3
100	101	3
167	180	1
104	117	1
114	114	8
65	94	5
21	23	3
60	65	3
4	6	4
57	58	9
161	178	3
169	172	1
38	42	5
70	70	4
64	64	5
83	84	5
160	160	5
152	152	7
85	99	7
4	9	2
152	153	7
0	0	17
97	97	10
159	162	2
8	9	12
75	83	4
127	167	1
11	12	10
83	85	4
13	15	8
157	157	14
55	56	5
161	161	18
92	92	13
75	75	13
27	31	5
82	110	8
98	108	3
1	62	3
50	50	5
155	156	6
109	109	9
46	46	1
85	86	3
142	172	7
90	90	14
103	107	3
125	136	3
24	25	23
108	108	10
31	36	4
33	35	6
175	179	1
101	120	2
5	11	4
54	55	3
159	161	1
102	139	4
103	109	3
80	86	3
120	121	3
145	145	20
14	32	6
139	149	3
37	38	8
5	7	5
7	9	7
55	148	4
103	116	2
0	39	5
56	56	15
126	136	3
40	41	3
134	145	6
43	45	1
103	105	3
65	67	4
113	113	17
62	79	1
61	62	5
19	20	13
158	159	15
111	112	4
1	8	3
78	95	2
4	13	3
4	67	4
88	89	7
102	108	3
96	97	3
26	42	3
6	7	4
56	57	3
7	21	3
129	130	7
43	44	7
85	88	3
4	18	1
171	172	6
11	25	4
156	156	6
73	79	5
28	31	3
5	12	1
28	32	7
155	164	3
21	38	4
156	157	3
82	83	3
139	140	8
74	74	2
28	33	4
8	11	2
116	119	2
9	11	6
63	66	2
57	62	3
111	147	3
121	122	10
101	112	5
99	101	4
29	38	2
39	137	3
41	72	3
133	134	6
136	148	3
42	51	2
12	30	2
123	148	1
134	137	8
79	81	1
7	14	2
86	88	1
81	81	12
23	41	4
93	94	2
24	32	4
63	139	2
118	119	3
71	75	2
169	170	7
52	93	1
66	67	5
58	134	3
30	31	4
60	60	9
1	14	3
6	15	3
137	149	5
40	44	7
152	157	1
144	145	1
77	79	2
81	98	4
91	109	1
13	43	5
6	10	1
102	103	6
29	158	4
113	117	2
2	4	2
151	152	9
154	160	2
77	86	4
158	158	8
2	67	5
60	133	3
130	141	1
80	85	4
2	11	2
35	44	4
3	5	2
166	167	4
68	72	3
82	113	1
134	135	3
19	21	4
100	116	1
120	120	6
99	141	1
67	67	9
53	55	3
61	81	1
132	133	5
74	79	1
168	170	1
4	30	1
76	77	7
27	32	3
140	141	3
0	1	12
124	125	5
17	19	3
109	130	2
15	17	6
155	157	4
21	22	2
33	34	5
0	50	2
112	113	5
1	9	2
120	122	2
84	84	1
34	43	3
129	164	3
42	44	4
38	41	3
87	97	1
49	49	6
162	163	2
167	168	5
159	160	1
78	84	4
166	166	7
87	89	3
106	106	4
27	41	1
140	157	2
23	36	1
84	88	5
154	163	2
105	119	3
89	96	3
79	80	2
179	180	4
22	38	5
176	177	3
143	170	2
141	154	2
104	105	3
13	31	2
4	20	3
29	37	2
16	24	5
40	42	6
107	111	1
177	179	1
133	143	2
145	148	2
31	35	2
99	100	3
118	121	7
18	34	2
27	30	2
100	118	2
143	146	3
15	23	2
14	16	2
3	42	2
70	74	4
64	65	2
3	19	1
8	10	6
84	85	3
23	40	2
162	178	2
59	60	1
52	54	1
6	8	1
115	116	6
83	86	3
41	43	7
105	116	2
63	63	6
38	158	2
60	108	1
112	145	1
142	143	6
0	5	2
154	179	1
20	22	3
7	33	2
50	52	4
84	123	2
66	68	1
25	30	2
34	35	5
41	42	5
17	21	2
10	13	4
95	96	9
177	177	8
150	151	2
15	20	4
119	119	3
101	113	6
29	31	2
170	173	2
14	60	2
121	130	3
21	36	2
1	24	2
116	136	4
1	39	1
22	30	1
162	162	3
140	150	1
7	8	6
8	45	1
153	157	2
1	25	2
27	142	1
130	147	1
2	42	2
88	92	1
26	41	4
45	46	3
18	21	4
127	147	1
178	178	11
142	144	4
6	13	1
140	155	3
111	130	1
111	114	4
3	8	3
151	154	2
127	166	2
5	8	3
5	15	4
39	41	2
21	24	4
83	88	3
16	33	1
81	84	1
33	37	2
125	137	2
83	89	2
154	155	1
20	37	2
154	156	2
51	64	1
11	27	2
103	119	2
28	30	2
19	22	2
68	76	2
153	167	3
29	32	1
130	165	1
58	76	1
63	95	1
74	76	2
33	45	1
10	17	4
118	122	1
104	107	1
148	171	3
174	175	1
10	11	6
30	41	3
18	45	1
17	20	2
70	73	1
147	155	1
68	70	2
67	68	2
31	42	1
105	110	1
24	33	2
3	62	1
2	7	1
88	88	4
157	178	2
14	18	5
141	142	2
16	34	1
178	180	3
20	41	2
50	66	2
12	31	3
172	179	1
58	136	1
17	22	1
20	21	1
24	26	1
0	37	2
129	131	2
58	65	1
2	13	2
6	14	2
29	159	1
178	179	1
58	139	2
137	139	3
72	73	1
1	10	1
13	38	1
102	114	1
165	167	2
153	177	1
9	33	1
174	178	2
3	7	1
5	16	2
24	27	1
6	35	2
151	155	1
31	161	2
60	62	3
98	110	1
11	31	2
51	52	2
127	128	1
59	71	1
163	167	1
75	79	1
49	65	1
0	67	3
54	148	1
131	143	1
42	45	2
92	93	1
36	51	1
33	41	1
169	173	1
165	166	1
31	38	1
6	30	1
128	140	3
90	92	1
58	138	1
140	156	2
136	172	1
56	59	1
119	132	1
106	119	1
128	129	2
102	113	1
79	82	1
126	147	1
77	88	1
165	178	2
78	79	1
22	42	1
15	19	2
32	38	2
138	149	1
30	32	1
12	60	1
98	104	2
59	148	1
33	43	1
141	143	2
65	93	1
133	159	1
81	117	1
101	102	2
132	140	1
9	19	1
59	133	1
8	31	1
153	176	1
74	75	1
38	44	2
93	95	1
106	110	1
