104	104	7
9	9	9
18	18	8
108	108	11
26	26	4
77	87	2
100	100	2
19	21	4
81	81	6
81	82	2
106	106	4
12	13	5
54	54	4
146	146	17
119	121	1
17	18	2
123	123	5
127	127	5
26	102	1
128	128	8
30	30	3
48	48	4
71	71	8
144	146	3
46	47	5
150	157	1
107	107	13
56	63	2
136	136	11
23	25	1
141	146	2
69	70	5
37	46	3
126	145	1
28	28	6
23	23	14
15	18	3
17	17	5
34	34	2
148	148	10
49	49	6
110	111	3
62	69	1
75	75	5
151	151	3
119	120	5
108	110	4
90	90	2
122	153	4
32	34	3
133	154	4
89	89	4
84	111	1
84	88	2
145	145	6
13	13	9
117	156	2
20	20	8
104	105	5
135	135	5
24	26	2
61	61	2
152	158	2
51	51	3
22	31	5
121	122	5
116	117	13
25	103	3
144	145	1
31	31	8
144	156	3
153	153	2
121	121	3
73	73	9
146	153	3
31	32	2
11	11	10
127	128	1
142	142	2
141	153	4
38	50	6
155	155	7
113	125	3
137	137	8
99	99	4
83	83	5
138	138	9
137	147	4
26	113	8
145	146	3
25	25	10
21	25	2
131	132	1
4	4	10
6	6	2
27	27	2
84	85	1
150	150	3
48	49	4
143	143	3
95	95	4
128	152	2
29	29	2
22	22	12
142	146	6
15	31	2
94	94	9
105	116	5
16	16	2
13	14	3
132	132	1
26	114	5
41	41	5
64	64	7
5	5	2
38	38	7
28	31	1
3	3	1
57	57	2
10	19	2
87	87	6
148	156	3
32	32	3
118	118	2
72	72	3
124	124	8
157	157	7
5	6	1
128	129	1
39	39	6
55	72	2
110	117	6
131	133	3
140	158	2
138	151	2
86	87	1
149	150	1
82	82	4
3	28	2
23	24	7
73	99	2
149	149	9
97	97	3
23	139	4
117	117	3
84	86	1
155	157	2
132	133	1
125	125	3
69	69	2
148	152	2
79	79	4
122	152	1
68	68	4
63	63	5
25	137	2
112	113	1
30	31	5
22	23	3
78	78	7
65	65	4
83	84	3
114	115	2
20	29	2
28	133	2
10	30	3
32	33	5
131	131	4
101	101	5
135	137	2
40	40	7
37	38	2
94	96	2
91	91	4
40	48	1
40	41	1
63	64	1
38	41	1
70	70	1
45	45	3
137	151	2
53	90	2
132	154	3
76	100	2
4	87	2
148	150	4
84	84	3
33	33	4
54	84	1
78	104	3
138	150	3
25	136	1
36	37	3
37	37	1
113	115	1
143	156	1
129	130	5
8	22	2
156	156	3
88	88	2
8	8	4
99	107	1
22	32	1
47	47	3
155	158	3
130	130	6
73	75	6
24	24	2
50	51	4
71	98	3
80	80	4
147	151	1
115	122	3
106	122	2
102	103	2
56	57	2
102	104	3
42	50	1
118	120	3
116	137	1
100	129	1
127	130	5
139	146	2
113	136	2
92	93	2
106	107	3
139	144	1
24	50	1
143	144	5
4	32	2
147	147	3
66	66	2
90	91	5
54	62	1
45	54	1
50	98	3
103	103	1
98	98	1
141	148	2
67	69	2
90	95	3
2	2	1
65	69	2
144	144	3
39	50	2
150	155	1
147	153	1
51	52	2
18	19	1
55	55	3
111	112	3
15	15	1
123	132	1
7	7	1
85	85	2
92	96	1
36	36	2
136	137	1
42	42	2
36	40	2
129	129	3
25	26	1
34	43	1
70	94	1
12	12	3
2	5	1
121	156	1
158	158	3
141	145	3
26	110	2
83	96	1
52	52	2
88	89	1
119	119	2
134	135	1
50	97	2
116	116	1
46	46	1
110	110	2
70	95	2
150	156	1
108	112	2
81	86	1
48	50	2
111	111	1
66	68	2
105	153	1
139	140	1
8	9	2
93	94	3
100	101	3
30	114	1
109	110	2
21	119	1
64	76	1
124	127	1
144	155	2
139	139	1
36	39	1
50	82	1
140	147	1
64	71	1
46	50	1
44	44	1
37	45	1
0	1	1
52	53	1
35	42	1
85	112	1
105	105	1
86	86	1
133	133	1
29	129	1
134	134	3
118	154	1
16	37	1
1	1	1
3	31	1
67	71	2
69	71	1
12	14	1
19	19	1
113	113	1
108	109	1
1	2	1
16	18	1
137	138	1
87	90	1
117	120	1
65	72	1
157	158	1
