20	20	7
45	45	16
45	46	6
82	107	3
51	51	5
35	35	20
48	93	4
58	58	27
62	62	13
47	48	8
56	57	6
105	105	6
52	52	20
74	74	10
73	74	6
22	54	1
31	31	6
102	102	10
100	100	12
41	85	3
64	64	6
37	37	21
31	34	1
98	98	15
57	57	6
86	86	10
66	66	10
36	36	3
33	93	2
22	22	11
58	60	1
40	41	9
42	66	1
42	42	9
65	65	8
92	92	9
72	72	5
40	106	3
95	106	2
41	41	9
96	106	4
69	69	11
33	70	2
51	91	1
61	62	5
34	34	3
51	71	2
101	101	12
46	57	3
77	78	9
63	63	7
40	43	1
41	66	5
28	28	7
48	49	6
28	29	2
72	92	2
43	61	1
28	88	2
59	60	10
75	75	16
60	63	1
40	40	14
48	57	2
85	98	8
21	24	1
95	98	5
77	77	18
27	78	3
87	87	8
95	96	3
56	56	8
95	95	7
90	90	10
96	97	6
67	67	5
21	21	3
75	105	1
54	54	7
59	59	6
91	94	3
61	94	4
60	61	2
99	99	13
38	39	11
45	106	9
38	71	3
82	82	8
78	106	5
80	80	16
69	102	3
37	38	3
49	50	1
31	39	5
31	33	2
76	105	5
24	50	1
104	104	7
29	29	18
36	37	6
39	83	1
33	33	10
93	93	13
27	27	5
94	94	11
58	59	2
55	55	14
33	88	3
33	37	4
20	94	1
26	80	2
42	60	2
72	87	1
103	103	3
29	31	3
26	26	11
58	80	5
20	21	3
85	85	10
38	81	1
34	70	4
74	75	3
39	95	3
94	97	1
42	43	4
29	30	3
62	63	13
65	67	2
48	48	5
97	99	5
70	70	6
70	71	1
39	96	1
32	32	11
47	49	4
99	100	1
79	80	5
68	68	6
65	70	3
67	101	5
25	27	1
84	86	3
86	87	4
94	95	2
85	86	2
40	44	1
36	39	2
75	89	1
85	97	3
25	26	3
84	85	2
80	81	3
50	50	9
64	100	2
43	60	1
39	81	2
72	94	3
58	92	2
20	25	2
24	24	3
99	104	3
84	94	1
97	98	5
47	80	3
87	89	1
78	79	6
43	43	5
49	90	4
32	92	4
84	84	4
64	67	1
61	61	18
33	84	2
71	71	4
29	88	2
41	73	3
101	102	1
78	88	3
89	92	4
96	96	6
68	69	5
73	73	9
23	28	3
25	25	1
21	22	1
23	23	12
44	97	3
55	56	3
51	58	2
85	105	1
52	53	1
65	96	2
30	30	7
46	46	3
66	71	4
28	31	1
96	100	6
33	34	3
23	31	1
22	24	2
25	67	2
20	23	3
57	58	1
72	89	1
62	70	3
47	47	3
31	35	3
26	27	2
86	104	3
70	78	2
47	99	3
78	78	7
89	89	5
93	95	3
89	97	2
61	63	4
46	47	2
87	88	2
81	81	1
76	76	4
44	67	1
36	38	1
52	55	1
41	45	1
39	39	5
106	106	2
41	102	3
72	88	2
80	82	1
25	28	1
88	88	2
37	100	2
38	38	5
67	68	4
42	44	1
91	91	6
22	65	3
73	90	1
50	51	1
89	90	5
39	60	1
53	53	3
79	84	2
53	54	1
22	86	1
46	58	1
70	72	3
27	28	2
41	63	1
23	27	3
19	19	1
22	68	1
41	71	1
23	34	2
51	52	2
25	29	2
43	87	1
40	90	1
97	97	2
49	49	2
82	83	4
43	49	1
45	72	1
84	99	1
31	79	1
83	85	3
60	62	3
42	76	1
106	107	2
22	26	2
30	67	1
21	105	2
44	60	1
31	97	1
22	76	1
92	93	1
43	65	1
26	29	2
21	54	1
51	79	1
37	54	2
94	96	1
41	43	1
35	36	3
72	73	1
79	79	1
69	76	1
44	45	1
41	82	3
83	97	1
57	60	2
48	86	2
83	84	1
95	97	2
60	60	1
62	104	1
41	42	1
20	97	1
69	70	1
42	67	1
98	99	1
41	87	2
22	82	1
22	78	1
62	64	1
96	99	1
44	44	1
65	93	1
98	107	1
76	77	1
