147	148	3
68	70	9
47	47	11
87	87	11
90	90	4
10	10	6
121	121	10
19	20	10
13	22	2
111	112	5
19	19	17
149	149	9
70	70	8
6	6	2
150	150	6
73	73	12
2	2	6
54	55	5
4	4	6
18	18	5
68	104	3
1	1	10
8	9	2
141	142	2
105	106	7
55	55	10
111	117	3
42	42	13
23	37	4
190	190	2
134	134	6
30	55	5
126	126	7
120	120	3
25	25	4
143	143	12
94	94	4
12	12	2
20	20	7
58	61	2
106	106	5
110	111	3
97	97	18
104	104	7
62	138	5
127	127	8
58	59	9
187	187	4
42	43	1
92	93	1
118	118	5
11	12	4
78	79	5
72	72	3
77	77	2
103	103	1
147	147	3
182	183	4
14	37	3
33	33	7
165	165	4
148	156	5
145	146	3
25	26	3
171	172	3
169	169	7
36	36	12
32	33	1
185	185	3
113	113	7
110	110	8
177	177	5
78	78	12
18	19	4
41	41	7
31	31	4
46	47	8
105	105	1
122	122	6
150	157	2
39	39	5
11	11	8
27	29	6
137	137	3
150	158	3
34	34	4
156	156	8
92	92	10
101	101	5
109	109	1
124	124	8
63	65	1
140	140	8
129	129	4
99	99	3
112	112	5
42	70	3
36	37	2
173	183	5
70	71	17
81	81	2
56	57	1
86	86	13
37	37	2
9	9	3
38	39	3
59	59	6
168	168	5
0	0	2
155	162	3
152	152	3
76	76	3
52	57	1
164	164	12
75	100	3
44	77	2
79	79	2
17	26	1
131	156	2
89	89	7
129	154	1
17	18	6
108	127	2
118	119	8
130	130	6
88	88	4
54	54	6
42	72	3
16	17	1
75	98	6
17	17	4
24	24	3
28	28	9
48	48	4
178	178	2
152	153	3
67	67	2
97	99	3
135	137	3
4	26	4
62	62	6
7	7	5
64	64	5
77	78	1
159	159	3
123	123	5
8	8	9
84	87	1
175	175	2
49	49	3
53	53	5
107	114	4
181	181	7
112	114	6
84	151	1
148	149	6
90	93	7
10	11	5
22	22	6
176	177	1
21	21	3
3	3	2
172	173	2
146	147	4
157	157	2
26	29	1
2	25	2
112	165	1
170	170	3
26	26	8
55	56	4
184	184	1
38	38	3
131	132	2
58	58	4
46	46	1
110	126	4
43	43	6
160	160	3
82	83	2
23	23	5
160	166	1
10	12	1
84	84	10
32	37	2
100	101	5
153	153	4
59	62	5
53	101	1
140	141	1
16	16	8
44	76	3
7	54	3
142	142	6
145	145	3
129	171	3
156	158	4
109	122	2
149	158	2
14	14	3
133	181	4
155	155	7
120	122	5
133	134	2
121	123	3
22	27	1
14	38	6
96	98	5
44	44	8
21	26	2
142	144	3
119	119	1
3	5	3
65	68	2
180	189	1
4	5	4
135	135	6
91	92	7
136	137	1
30	30	6
134	174	3
78	145	4
14	15	3
96	96	5
133	133	2
66	66	2
74	74	3
8	10	1
173	173	1
6	7	2
43	46	3
11	26	3
13	14	5
123	125	2
132	133	1
13	13	9
110	163	2
5	5	11
85	85	4
5	7	1
111	111	1
29	37	1
117	117	7
179	179	1
163	163	4
154	156	3
90	94	3
16	26	2
12	13	7
146	146	4
52	52	1
128	128	3
16	21	1
134	135	3
96	97	2
71	72	3
153	159	3
37	38	5
115	116	1
148	148	3
144	144	3
155	156	2
3	32	3
107	107	3
83	152	2
158	158	2
100	100	5
90	91	4
119	120	1
23	38	4
30	32	3
179	180	1
111	115	1
154	154	1
30	33	1
132	173	1
166	166	2
60	60	3
139	139	3
15	26	1
186	186	1
151	151	11
1	2	1
163	164	1
148	150	1
68	68	3
27	28	3
62	139	1
85	154	2
59	140	1
108	108	3
34	35	3
117	146	3
45	45	3
30	31	2
138	138	5
182	189	1
143	144	3
84	153	1
69	73	2
91	91	3
183	183	1
93	93	4
73	77	1
120	165	1
101	102	4
83	83	1
107	108	4
126	127	2
7	13	1
31	56	1
82	86	1
138	139	1
133	177	1
124	170	1
180	181	3
187	188	2
127	129	1
141	141	2
15	15	1
61	100	1
61	64	1
150	151	2
154	155	1
102	102	3
75	95	1
40	40	3
13	28	1
11	29	2
125	125	2
188	189	2
113	114	1
162	162	2
116	116	1
3	4	1
137	146	3
185	186	1
13	32	1
167	167	1
95	95	2
158	161	2
104	105	2
68	143	2
20	22	1
48	75	2
134	139	2
29	29	3
75	81	1
53	57	1
58	138	1
67	145	1
75	97	2
75	78	1
110	139	1
70	146	1
118	157	1
155	160	1
115	115	1
160	161	1
180	188	1
32	35	2
80	80	1
3	14	1
71	71	2
136	136	1
172	182	1
141	144	1
65	67	1
158	162	1
164	166	1
120	159	1
127	128	2
43	71	1
114	114	1
162	163	2
126	171	1
82	82	1
61	61	1
164	165	1
188	188	1
13	26	1
151	153	2
109	110	1
19	30	1
4	7	1
108	122	1
40	47	2
52	58	1
5	55	1
93	94	1
23	30	1
53	56	2
