8	25	4
10	10	11
52	122	1
123	124	1
26	26	11
84	85	2
112	112	5
108	119	1
56	56	5
55	55	4
93	93	12
3	4	5
147	147	3
96	97	3
101	101	8
132	132	4
50	54	5
83	84	5
115	115	8
29	31	1
47	64	1
85	85	4
36	37	5
54	123	2
126	132	2
26	29	3
35	35	8
115	116	4
146	146	2
83	110	2
95	95	13
96	96	8
103	103	3
70	87	3
158	158	9
67	67	5
97	97	11
126	133	2
117	121	2
139	139	4
71	71	5
54	54	6
154	154	2
118	118	12
31	31	8
150	150	11
22	22	2
11	47	5
153	153	5
107	107	5
157	158	5
111	112	3
156	156	8
72	72	8
53	55	2
24	24	2
137	138	4
49	123	6
109	109	6
73	73	12
6	6	1
131	131	2
138	138	13
3	39	1
111	111	5
130	130	6
99	99	3
141	157	4
65	73	2
153	156	2
127	135	4
22	33	4
92	92	6
50	150	6
0	0	7
129	130	3
8	11	2
82	86	7
128	129	4
52	68	1
13	16	4
151	151	9
79	79	8
27	27	6
75	75	5
67	70	6
89	89	4
20	35	2
117	136	4
120	120	6
43	43	3
50	50	8
87	87	1
67	69	8
1	2	3
52	53	5
81	81	15
5	5	7
142	155	2
119	120	1
52	87	4
133	133	9
18	18	6
56	90	4
20	20	1
87	88	6
148	148	8
13	14	5
145	145	7
12	48	4
94	94	11
123	135	3
136	137	6
12	12	7
49	86	1
78	78	4
93	95	3
98	158	3
68	68	2
28	43	2
83	109	3
106	106	8
62	62	3
25	25	9
19	35	1
11	11	8
117	117	10
83	86	2
90	91	1
65	65	5
136	136	5
2	4	2
11	13	3
37	37	7
41	46	2
97	114	2
85	86	2
141	147	5
38	38	1
111	120	3
121	121	3
148	150	2
32	33	2
134	134	6
19	19	11
82	105	3
153	154	3
80	82	3
63	63	4
19	42	5
149	149	2
110	111	3
99	100	4
52	52	1
124	127	1
133	134	8
13	13	5
106	119	2
68	69	2
146	147	1
48	48	4
83	85	5
85	111	2
36	36	5
16	19	4
30	34	2
23	23	1
11	21	1
122	122	7
21	35	3
70	70	2
140	146	6
116	116	9
2	28	2
120	125	2
86	86	8
49	49	2
8	10	4
108	111	2
152	152	9
26	27	5
24	25	2
113	113	5
98	98	3
30	40	2
30	30	3
15	15	4
69	71	2
29	55	3
2	3	9
88	88	2
82	83	1
119	119	4
125	125	5
23	24	5
145	146	4
77	79	2
98	99	1
106	107	4
110	110	3
56	69	2
80	120	4
142	142	1
49	54	1
44	44	6
104	117	1
135	141	2
109	111	4
0	1	2
49	108	1
105	105	4
105	106	3
81	82	2
144	144	3
139	141	3
100	100	6
51	95	2
114	114	1
98	131	3
7	8	3
132	133	5
53	96	1
150	151	2
143	143	4
63	64	1
31	32	4
51	52	6
156	157	5
141	154	1
39	39	2
51	51	2
111	113	1
39	40	4
75	81	1
155	158	2
92	113	1
126	126	3
83	108	3
77	78	4
3	3	6
81	86	1
91	91	2
49	82	1
15	16	1
41	42	1
100	101	3
112	113	1
128	130	2
118	122	1
92	93	2
89	90	1
82	82	2
21	21	3
106	131	2
149	150	3
75	101	1
40	40	2
66	67	2
9	9	1
53	53	3
45	45	2
73	99	6
1	46	2
47	47	1
104	104	1
91	106	1
4	4	3
85	105	1
117	118	3
66	86	1
55	56	1
49	50	1
62	64	1
49	53	1
108	121	3
17	17	3
96	122	1
51	64	2
7	7	1
76	77	1
32	64	1
158	159	2
71	107	1
56	72	1
128	128	1
78	105	1
46	47	4
68	71	2
87	91	3
124	125	3
48	133	3
66	127	1
13	32	2
140	140	3
78	86	2
2	2	2
34	34	2
81	105	1
113	150	1
127	127	3
75	76	1
50	95	1
122	123	2
41	41	1
108	108	1
118	124	4
121	122	2
45	46	1
26	28	1
135	136	2
77	77	2
57	57	1
96	112	2
12	30	2
12	20	1
29	29	2
71	103	1
25	26	3
16	16	2
37	38	1
94	107	1
124	124	1
94	111	1
12	25	1
141	153	1
42	42	3
125	134	2
136	141	1
154	155	2
91	95	2
20	21	1
15	35	1
118	120	1
135	135	4
140	147	1
144	154	1
18	34	2
150	155	1
46	46	2
66	66	1
97	121	1
13	17	2
106	121	1
155	156	1
121	133	1
87	103	1
53	54	1
94	95	2
79	80	1
28	67	1
106	110	1
67	85	1
140	141	1
145	153	1
7	45	1
9	10	1
105	138	1
30	33	1
113	144	1
116	148	1
21	39	1
