189	189	12
169	179	2
177	177	7
43	43	7
138	139	9
152	152	3
19	19	5
125	125	9
128	128	7
34	35	3
11	14	1
174	175	2
84	84	6
185	185	10
162	184	2
145	145	8
181	182	3
181	181	10
157	157	12
179	188	2
44	63	2
32	32	7
69	78	3
51	51	4
163	163	3
189	190	8
61	61	4
4	4	4
74	74	2
135	135	10
108	108	3
8	8	6
114	115	3
84	86	3
88	88	1
159	185	1
27	174	8
24	37	4
129	136	4
83	83	7
155	155	9
130	131	4
33	33	7
131	131	9
76	77	3
19	34	1
47	193	4
154	156	3
16	17	3
183	183	14
97	97	2
75	75	1
151	170	1
63	63	4
103	103	14
57	57	13
149	149	4
14	14	8
70	70	5
66	67	2
174	178	2
39	39	5
112	158	1
52	52	5
105	105	10
16	16	3
151	151	6
101	188	2
175	176	3
30	31	4
81	82	2
38	38	7
27	27	3
11	11	8
30	30	2
13	13	2
173	173	7
135	175	3
194	194	6
62	63	2
6	24	4
170	170	12
172	183	2
120	120	2
50	50	5
77	78	3
20	39	2
60	60	1
42	42	8
59	60	5
40	63	2
56	58	1
188	188	6
167	167	6
125	126	3
68	68	6
0	0	8
45	45	9
179	179	7
180	180	10
161	184	2
182	183	3
119	120	6
169	170	1
74	75	1
47	47	4
26	28	1
59	59	2
3	3	7
191	197	1
10	11	3
93	93	3
161	162	3
17	19	2
161	181	5
196	196	10
17	18	2
2	2	5
174	174	1
139	140	3
161	161	2
25	26	1
20	21	4
124	129	3
188	194	3
113	113	3
56	56	3
49	139	4
126	126	4
21	22	1
169	169	7
182	182	5
53	54	1
177	185	3
111	111	1
192	192	6
13	14	5
187	187	13
16	60	1
174	176	2
1	1	7
18	21	1
56	57	1
81	81	2
21	21	5
58	58	7
188	189	5
159	162	1
106	106	7
37	38	1
120	130	1
69	69	4
150	150	4
107	107	5
43	70	1
118	118	2
31	31	2
104	105	7
5	9	1
140	140	3
197	197	7
4	12	3
98	103	1
186	186	3
42	44	1
41	41	3
133	133	5
176	178	3
123	127	1
132	153	1
9	10	3
112	195	3
5	7	3
176	176	2
112	112	1
64	64	1
101	114	2
145	184	1
183	187	4
127	127	4
0	26	3
156	156	10
20	20	2
87	87	7
22	35	5
146	147	4
96	96	2
154	155	2
84	85	1
42	66	1
102	103	2
169	172	1
1	2	3
107	108	1
113	125	2
15	32	1
177	178	3
144	154	1
54	54	2
168	168	1
83	85	6
53	53	2
114	119	2
23	23	5
34	34	8
18	60	1
193	193	9
89	89	2
138	138	2
9	14	3
121	130	1
43	44	2
20	22	3
134	135	1
137	140	1
167	172	3
146	146	2
24	24	4
139	176	2
109	109	2
19	43	3
195	195	2
175	175	2
101	102	3
177	193	2
162	162	3
171	171	7
102	102	10
32	33	1
25	25	4
156	157	3
116	130	1
105	106	2
120	152	2
48	48	7
70	71	6
10	10	2
150	171	1
26	27	2
122	157	2
35	35	4
82	85	6
165	165	5
164	164	2
132	132	1
37	37	3
122	122	3
153	155	2
6	6	2
78	78	4
114	135	1
17	17	4
67	68	2
15	15	4
108	109	2
168	172	1
64	72	1
45	61	1
141	141	2
49	49	2
71	71	2
46	51	6
39	63	2
40	40	7
160	161	4
29	32	1
162	176	1
69	70	1
82	84	1
46	54	1
100	122	1
190	194	2
95	96	3
106	108	2
172	182	1
10	50	2
16	33	2
113	126	2
24	70	3
16	83	1
47	51	3
115	116	1
62	78	4
153	153	1
173	175	2
111	137	1
118	121	3
52	53	2
161	168	1
152	153	1
166	169	1
36	36	1
65	78	2
39	40	1
106	107	2
5	19	1
132	133	3
178	178	5
14	46	1
175	186	1
33	37	2
28	29	2
5	8	1
29	29	2
193	194	1
129	129	3
110	110	1
95	95	2
158	183	1
136	136	2
10	47	1
134	134	1
97	98	2
167	168	1
12	12	4
3	7	1
115	133	3
38	63	2
130	130	1
54	57	1
190	190	3
104	104	4
9	9	4
4	23	1
42	43	2
34	41	2
166	166	1
137	139	1
170	177	1
64	74	1
55	55	3
148	148	1
151	152	3
137	144	1
142	142	3
103	106	1
69	79	1
14	15	1
82	86	1
29	30	1
3	6	1
119	119	1
25	61	1
123	124	1
26	174	2
5	62	2
94	94	3
46	46	1
161	167	1
155	156	1
13	55	2
6	21	2
115	115	1
156	189	1
0	2	1
184	184	1
72	73	1
40	43	1
133	153	1
176	179	1
179	180	2
0	15	1
147	148	1
90	165	3
195	197	1
192	193	1
101	101	1
160	160	1
118	120	2
4	7	2
112	117	1
160	176	1
99	105	1
163	164	1
27	30	1
159	159	3
99	99	1
119	194	1
99	136	1
160	184	1
58	59	1
145	152	1
119	139	1
115	126	1
163	179	1
89	90	1
147	147	1
132	142	1
37	41	1
118	153	1
37	42	1
67	67	1
187	188	1
116	116	1
83	84	1
