33	33	5
31	31	9
4	4	4
172	172	11
51	51	4
98	98	5
112	112	1
45	66	2
67	112	1
163	170	4
126	126	3
43	43	5
180	180	3
127	127	6
158	158	4
80	80	5
109	145	4
90	150	1
173	174	2
17	23	5
6	6	2
75	75	7
26	26	3
2	4	9
9	12	1
2	20	1
86	86	3
110	111	12
56	57	2
59	59	8
76	76	9
152	170	1
122	124	4
40	41	3
0	0	6
52	52	2
113	113	6
66	66	7
90	91	1
21	21	5
42	42	7
2	21	4
15	18	3
82	82	2
81	81	7
16	22	6
167	168	1
89	89	1
32	33	5
5	6	3
22	26	3
66	67	2
88	88	2
18	31	4
53	53	9
142	142	5
177	177	2
87	87	4
134	134	4
13	19	4
52	94	2
101	106	3
110	110	2
108	130	3
26	28	6
12	13	1
8	8	7
112	168	1
137	151	1
12	43	4
114	114	2
148	148	10
137	156	1
135	135	3
149	149	3
152	152	3
153	163	2
161	162	6
5	36	1
52	53	1
3	4	3
92	93	2
175	175	1
108	145	4
5	5	2
13	45	3
31	36	4
178	178	2
3	3	10
19	19	10
160	160	2
138	138	3
157	166	5
138	150	1
135	150	3
11	15	4
136	136	1
72	72	1
8	45	2
15	15	4
55	55	4
173	173	5
121	121	1
1	2	1
77	138	1
109	109	8
158	169	1
37	37	4
171	175	1
179	179	2
109	118	4
103	104	4
163	163	4
6	43	1
150	173	2
164	170	4
93	93	3
17	17	12
130	130	1
18	24	2
161	161	1
10	20	1
9	9	3
28	28	5
171	171	1
14	14	8
131	132	1
155	155	2
36	36	5
14	21	3
113	164	3
100	100	1
136	143	3
150	151	3
143	143	5
104	126	2
105	126	5
96	96	1
109	117	2
35	44	3
101	101	3
124	125	1
3	8	2
106	106	1
41	41	4
18	19	2
7	16	5
139	139	1
73	73	2
22	22	7
62	152	1
25	44	3
2	2	2
23	24	1
24	24	1
33	41	2
174	174	2
53	137	2
170	170	2
83	83	3
95	95	7
76	77	1
159	159	3
119	119	3
154	154	2
74	74	1
11	41	1
60	60	2
122	122	1
129	129	2
71	72	1
92	92	1
40	67	2
166	166	2
59	64	2
50	51	3
45	45	1
78	79	1
65	65	1
21	24	1
73	74	1
115	115	3
38	38	4
154	156	1
123	123	2
108	108	1
131	176	1
155	178	1
40	40	3
164	165	2
7	7	1
25	26	2
130	174	1
150	150	2
111	112	2
4	9	2
10	19	2
124	124	2
10	66	1
75	77	1
176	176	2
36	37	2
160	164	1
128	129	3
89	94	2
143	144	1
12	12	2
160	166	1
53	57	1
14	43	2
81	150	1
147	147	1
8	9	2
133	133	2
140	140	2
117	161	1
30	30	2
61	63	1
10	38	1
94	94	2
153	170	2
11	11	3
132	150	1
163	166	1
16	21	2
123	124	2
13	13	2
118	118	3
101	151	1
169	169	1
67	123	1
155	156	2
82	150	1
70	121	1
18	18	1
104	104	1
32	32	1
123	125	1
20	21	1
39	39	1
36	78	1
39	40	1
152	169	1
118	121	1
154	157	1
84	85	1
121	149	1
157	158	2
107	111	1
60	61	1
167	167	2
50	50	1
54	54	1
61	64	1
118	119	1
77	150	1
51	66	1
34	34	1
164	164	1
140	142	1
71	71	1
120	162	1
27	27	2
128	171	1
58	58	1
168	169	1
29	87	1
24	25	1
