65	71	3
152	153	9
191	210	3
46	46	14
163	164	9
215	215	6
180	180	10
236	236	19
169	203	5
186	225	4
6	6	6
229	229	1
163	163	6
63	63	10
217	217	6
234	241	7
227	227	8
244	244	11
171	192	1
166	241	1
3	7	1
210	210	10
57	57	16
154	243	2
247	247	18
19	19	12
211	211	15
167	170	4
70	119	1
71	71	7
182	182	12
104	104	8
12	109	3
12	57	2
151	151	28
168	172	3
171	171	12
237	237	8
101	101	11
207	208	4
245	245	11
161	162	1
79	81	1
55	109	6
154	154	23
202	203	1
90	100	2
214	214	10
1	1	6
157	157	4
69	119	3
37	38	6
209	209	15
55	55	3
86	87	3
160	160	19
113	115	1
174	197	6
16	17	1
82	94	2
64	64	9
68	68	15
167	177	2
68	70	6
26	26	10
70	71	4
168	168	12
170	204	10
114	114	14
237	238	8
5	5	15
8	110	2
169	204	2
22	23	1
176	177	5
156	159	2
193	193	14
5	73	3
29	29	8
30	102	1
208	209	10
174	174	6
29	34	5
54	54	7
47	119	4
95	96	5
85	85	10
104	105	4
88	113	4
221	221	4
237	242	3
78	85	1
242	242	10
210	219	6
231	231	10
77	77	12
191	192	6
78	78	5
36	46	5
21	21	11
39	39	8
116	116	11
157	183	2
178	240	4
166	242	1
36	36	8
101	102	4
235	235	9
65	66	4
38	114	1
191	193	3
229	231	2
178	178	13
161	239	4
149	149	5
212	212	15
79	85	1
112	112	19
181	181	14
190	192	4
205	206	2
27	94	1
107	107	11
88	88	10
110	115	2
37	37	5
150	150	3
14	14	1
183	183	7
175	176	6
164	164	14
226	226	12
207	207	11
110	110	14
60	60	4
99	99	2
157	179	4
178	234	1
173	174	8
223	223	20
176	176	3
187	189	3
179	209	2
191	194	2
219	220	5
197	197	7
189	190	4
48	49	5
191	191	8
108	237	4
66	66	8
13	15	1
210	211	2
46	85	5
195	196	7
59	62	4
51	68	2
246	246	1
153	153	21
33	33	6
165	243	6
206	206	9
198	198	11
49	51	6
169	169	12
201	218	2
17	59	2
214	215	2
102	102	11
49	50	2
38	40	3
162	162	14
233	233	11
3	53	1
40	40	10
156	192	2
216	216	6
186	186	10
158	158	8
31	31	10
108	111	1
218	219	3
48	48	4
177	177	5
179	180	4
31	40	3
59	116	1
52	52	15
56	56	7
86	114	4
162	165	6
190	191	9
213	214	3
243	243	2
165	166	6
90	91	1
232	232	18
71	72	4
199	204	4
111	111	10
147	147	7
118	118	14
190	190	10
184	209	3
59	60	2
21	116	1
84	84	3
12	108	3
166	239	3
229	230	2
96	97	7
73	73	5
225	226	3
36	45	2
186	215	2
184	184	3
160	248	5
219	219	25
49	49	9
235	236	6
178	179	2
43	101	1
158	184	5
243	244	7
188	188	11
162	246	3
171	172	4
105	105	2
34	117	2
230	230	10
80	80	9
18	19	1
166	184	3
218	218	7
55	57	1
170	203	2
204	204	13
38	46	2
183	194	1
50	96	2
18	32	1
59	59	3
47	47	7
23	23	8
181	248	3
96	107	8
190	217	6
9	31	3
185	188	2
22	22	14
15	30	1
195	195	4
3	111	4
33	42	1
76	78	3
62	116	1
165	165	12
195	212	2
241	241	3
90	90	6
113	113	11
104	108	3
2	3	4
208	210	3
152	176	1
175	209	6
199	199	3
160	199	3
179	179	6
90	113	3
32	32	8
74	74	8
203	204	7
67	67	9
108	108	6
185	185	11
107	111	5
103	105	3
71	79	3
16	16	4
224	224	6
188	195	3
4	15	1
13	13	2
24	24	5
201	201	23
187	188	5
38	38	10
106	111	2
16	19	3
172	207	1
157	191	2
58	58	1
249	249	2
206	207	4
151	173	1
4	4	4
35	35	6
3	42	2
168	169	11
197	198	3
193	195	3
117	117	14
12	12	7
116	245	7
93	93	7
46	93	3
9	219	4
211	220	1
237	241	4
87	88	9
64	67	3
99	100	4
77	78	2
189	189	11
201	221	3
85	86	4
73	74	6
232	234	3
72	72	6
186	192	5
59	64	5
191	218	2
87	87	6
14	77	3
76	83	1
44	113	2
62	62	9
166	168	4
156	156	13
19	117	2
37	48	5
97	97	7
94	94	15
219	222	2
149	150	3
52	53	2
18	115	2
50	72	3
228	228	5
152	152	5
188	189	4
193	244	3
96	106	2
176	210	3
7	7	4
107	108	7
171	239	6
70	70	5
171	199	5
170	184	3
160	171	1
86	86	7
38	39	2
65	65	7
175	177	4
9	9	9
167	167	7
155	178	2
172	172	12
3	4	2
238	238	4
159	160	3
212	213	11
185	225	1
146	146	2
117	242	2
235	239	4
5	42	2
36	107	1
150	179	2
3	3	6
17	17	10
240	241	2
16	18	3
209	218	3
76	76	5
174	196	3
119	119	5
53	53	5
42	43	2
159	159	10
233	238	3
154	155	6
160	161	2
200	201	2
175	201	1
36	95	3
61	61	9
194	195	1
165	237	4
247	248	8
119	120	1
93	116	1
36	206	3
9	10	1
222	222	5
84	85	6
109	109	9
42	42	2
4	5	2
11	12	2
106	106	2
164	167	3
63	80	1
192	193	2
32	38	2
14	89	1
188	215	1
28	28	8
24	89	2
13	85	1
111	162	4
42	46	2
1	113	1
50	50	2
39	76	2
174	209	2
239	244	5
182	202	3
245	246	2
211	245	2
111	246	2
36	39	4
69	70	3
46	47	1
42	105	1
72	73	1
4	37	1
224	226	3
13	22	2
25	25	7
11	11	5
175	175	8
17	18	1
192	192	4
171	236	2
7	8	2
190	211	2
29	101	4
92	92	6
147	153	3
162	245	1
7	51	2
53	61	1
51	93	1
75	75	6
200	208	1
55	56	3
54	105	3
205	205	3
50	69	3
27	27	8
91	91	3
162	163	1
72	106	1
200	205	1
147	159	2
156	179	2
18	18	3
213	213	8
68	73	10
57	58	9
189	241	2
160	165	1
77	87	1
226	236	4
45	104	3
234	237	1
118	188	4
148	177	1
155	224	2
79	120	1
240	240	6
92	93	1
52	69	3
45	45	5
12	23	2
10	10	2
75	78	2
8	8	3
204	248	4
81	115	1
110	119	3
238	239	2
34	34	3
227	228	4
118	119	1
43	43	7
115	115	3
181	211	5
240	242	1
9	17	2
156	157	3
173	173	7
237	240	1
59	88	3
214	242	1
192	214	1
25	29	1
195	242	2
196	196	4
154	205	2
116	117	3
81	81	2
60	69	3
155	155	2
182	184	2
223	224	2
96	96	3
20	20	4
83	87	2
40	180	1
41	43	3
199	200	2
161	161	1
20	71	2
38	107	1
119	121	2
14	37	3
97	99	4
56	220	1
181	246	1
86	112	1
95	95	1
44	45	3
162	242	2
23	89	2
79	80	2
225	225	10
82	84	4
157	216	2
18	30	2
198	199	1
183	200	1
68	119	2
219	224	1
210	218	1
180	181	3
197	199	1
239	241	3
10	33	2
66	67	3
192	218	1
67	70	3
244	248	1
201	202	3
7	73	2
162	243	2
171	175	2
80	81	3
239	239	5
65	68	3
81	86	1
89	99	2
6	111	5
203	203	2
32	89	1
158	215	1
231	232	5
56	57	4
44	44	8
175	199	1
43	100	3
156	184	2
216	217	1
220	220	4
54	57	1
198	208	1
9	101	4
38	99	1
15	15	3
204	205	4
41	41	4
17	19	4
234	234	2
158	180	2
105	106	3
145	145	5
89	89	1
43	121	4
18	114	1
226	227	2
166	166	4
50	75	2
83	84	4
12	14	3
29	31	1
11	110	2
89	90	2
86	88	1
238	240	3
160	200	1
202	202	4
222	223	1
91	104	2
215	220	1
48	117	2
26	27	2
211	212	3
165	241	1
199	208	1
7	118	1
177	203	1
146	147	1
99	104	1
11	26	3
210	217	2
3	97	1
82	83	2
111	112	3
208	208	5
44	85	1
39	40	1
82	82	1
195	221	1
2	2	3
172	173	1
185	186	2
41	106	2
156	163	1
151	178	1
17	78	1
241	242	2
228	229	1
236	247	1
194	214	2
19	20	1
100	110	1
63	173	1
69	69	3
155	156	1
221	223	1
160	240	1
198	245	4
19	115	3
157	166	2
18	20	2
180	184	2
188	220	1
118	189	2
166	183	1
67	68	1
119	187	2
10	29	1
156	231	3
58	109	1
200	200	3
83	119	2
60	62	1
111	161	1
176	179	1
158	241	1
205	225	1
4	11	2
145	200	1
39	42	1
175	184	2
103	103	1
173	206	1
95	188	2
233	241	1
117	118	1
112	114	2
191	214	1
248	248	2
47	69	1
21	22	2
115	116	2
14	15	2
25	30	1
33	34	1
175	200	1
193	194	2
32	101	1
152	159	1
69	116	3
194	212	2
196	197	1
102	105	2
75	77	1
191	211	1
98	98	1
41	55	1
54	58	1
211	246	1
209	210	1
98	104	1
10	55	1
178	184	1
36	37	2
234	240	2
72	74	1
79	79	1
146	171	1
39	114	1
213	246	1
61	115	1
100	101	1
8	11	1
183	184	1
223	229	1
69	74	1
233	236	2
19	58	1
176	192	1
111	163	1
111	245	1
17	117	1
186	187	1
151	153	1
32	33	1
170	170	1
237	246	1
30	31	1
43	87	1
120	120	1
