45	45	7
92	114	2
17	17	12
45	74	3
63	63	8
91	95	1
125	125	12
41	42	3
126	128	2
72	72	7
77	77	13
128	128	1
13	32	3
38	82	2
132	132	4
88	90	1
113	114	4
9	9	4
96	96	6
26	27	3
84	84	14
70	70	8
11	48	3
43	43	11
63	105	1
98	99	1
62	63	2
124	124	8
25	32	4
87	88	4
31	31	9
27	78	4
45	46	3
15	15	10
27	27	17
4	6	4
108	108	4
90	131	4
26	26	7
84	112	3
21	60	2
8	8	9
59	60	5
95	95	17
46	46	4
29	90	1
32	33	3
101	102	3
64	64	12
96	99	5
85	85	7
47	47	16
57	85	1
20	21	5
98	100	4
27	80	1
62	62	15
20	20	1
83	83	2
35	36	5
20	80	2
67	67	2
41	41	4
130	130	5
36	36	5
29	29	11
127	127	6
113	113	5
11	11	5
19	30	6
117	117	9
120	120	2
119	119	9
57	57	3
33	33	16
15	79	2
116	116	4
33	74	1
11	93	4
44	62	2
118	118	3
8	47	4
94	94	2
28	33	1
103	103	4
11	112	2
79	79	3
16	16	6
66	66	5
134	134	4
2	2	4
42	42	4
75	75	6
93	93	7
103	127	3
55	57	1
38	46	4
55	55	4
36	37	4
131	131	7
51	51	2
45	68	1
59	59	3
26	93	4
27	60	3
111	124	4
40	40	6
102	102	1
128	130	1
49	90	2
3	3	3
88	91	2
81	112	3
49	80	2
112	117	5
14	28	3
133	133	4
101	101	3
80	80	7
82	108	2
68	120	2
10	10	16
116	124	2
92	92	1
32	32	3
71	72	2
27	93	2
30	32	3
34	35	1
104	104	5
61	61	4
62	81	1
111	123	1
3	17	2
7	44	2
86	86	4
25	42	2
33	62	1
25	25	4
14	32	1
7	7	10
37	37	1
73	73	4
84	85	3
68	70	3
69	69	5
107	107	6
6	47	2
31	82	3
106	115	2
22	22	6
90	129	1
35	35	9
21	21	3
57	91	6
99	103	1
91	91	7
10	65	4
6	6	11
117	119	1
89	91	1
38	80	1
87	87	2
65	65	10
45	62	2
28	29	1
68	69	5
34	77	2
90	90	3
92	93	2
76	76	11
99	99	4
37	60	4
108	111	2
91	96	2
30	31	3
19	19	2
83	84	1
28	28	6
73	121	1
46	104	1
100	100	1
112	113	4
105	105	1
6	7	3
3	26	1
14	14	7
96	97	7
97	100	5
83	99	3
32	42	2
78	79	3
114	114	4
12	45	3
11	45	3
98	101	1
23	24	2
44	44	4
24	25	2
81	81	4
115	115	6
88	88	5
58	58	4
117	118	2
111	114	1
19	36	2
7	8	6
25	26	5
26	79	3
126	132	2
44	45	5
57	92	2
23	26	2
56	57	4
30	30	1
55	56	1
60	80	3
18	42	2
121	121	2
27	32	1
13	13	3
61	62	5
94	99	3
29	30	1
114	115	5
1	1	4
66	97	1
123	124	2
129	129	2
25	34	1
95	133	4
28	91	2
46	111	1
48	48	3
74	74	7
106	106	8
38	38	1
7	128	1
25	85	2
51	56	1
28	96	1
4	4	2
81	113	1
89	89	2
46	47	1
45	69	1
39	42	2
48	49	1
12	12	3
74	77	2
110	114	3
49	49	4
21	42	1
39	82	3
10	45	1
7	39	1
97	97	5
109	109	4
20	25	1
35	87	1
43	44	1
68	68	5
112	112	3
94	133	2
73	74	1
17	46	1
36	40	1
13	14	3
13	65	1
10	129	2
94	98	1
78	78	3
4	21	1
58	59	4
98	98	1
11	12	2
93	100	1
19	20	4
115	116	3
106	134	2
78	92	1
90	92	1
78	82	2
3	8	1
0	0	1
6	81	1
21	29	1
46	72	1
19	29	1
125	127	2
99	100	2
37	38	1
21	79	2
6	26	1
86	98	1
71	71	2
118	119	1
69	70	1
21	22	2
113	116	1
87	92	1
38	92	1
11	92	1
22	80	1
21	85	1
23	23	1
104	116	1
82	111	1
26	43	1
79	109	2
27	33	1
93	131	1
22	35	1
58	60	1
36	55	2
110	115	1
12	77	2
12	13	1
126	126	4
76	77	1
48	83	1
11	89	3
83	89	2
19	61	1
109	114	1
120	122	1
8	99	1
90	91	1
18	18	1
28	90	2
46	61	1
32	90	1
7	27	1
18	20	1
67	68	1
95	106	2
74	75	1
5	5	2
131	132	1
51	55	1
61	130	1
16	17	1
106	108	2
94	116	1
62	118	1
106	133	2
111	111	2
60	60	1
47	76	1
108	109	1
31	80	1
27	28	1
117	122	1
70	120	2
100	101	2
20	46	1
93	101	1
39	81	1
77	123	1
103	133	1
45	94	1
97	98	1
81	82	1
85	86	1
118	121	1
28	48	1
5	26	1
97	99	1
123	123	1
27	98	1
87	91	1
84	89	1
