4	5	5
40	44	3
52	55	11
42	42	22
53	53	20
30	30	23
11	11	14
62	62	29
31	32	11
51	51	29
9	16	1
53	54	11
50	52	9
52	52	23
48	48	25
49	49	17
39	39	9
58	58	20
30	31	12
24	25	1
50	50	31
8	8	10
5	5	11
51	52	7
11	54	6
6	6	3
47	47	19
37	38	4
51	53	10
61	61	7
38	38	19
35	35	25
36	36	36
38	40	9
56	56	27
0	0	13
35	36	7
49	52	3
36	37	10
15	48	6
12	52	4
44	44	27
2	11	1
41	42	5
41	54	8
22	25	4
15	16	15
7	7	16
16	16	17
4	4	9
44	45	7
41	43	3
33	47	3
9	9	10
57	60	3
8	12	6
23	23	9
37	55	3
41	41	16
42	49	2
29	50	7
10	11	5
32	33	4
10	10	13
2	2	9
18	18	13
46	46	29
19	19	15
41	45	12
6	7	19
31	31	35
55	55	22
24	24	17
45	45	11
60	62	1
45	60	3
17	17	11
15	15	7
42	45	2
29	29	4
5	8	6
20	23	2
33	33	11
54	54	19
56	58	3
52	54	2
58	60	2
12	12	7
40	52	2
46	47	6
14	17	3
40	40	13
48	49	8
52	53	8
39	62	2
60	60	12
37	37	27
52	56	5
1	1	10
45	46	16
55	56	10
43	43	11
34	35	4
30	48	6
61	62	4
14	14	14
38	39	13
25	25	8
59	60	3
49	50	9
35	44	2
14	15	5
15	59	2
42	61	4
13	13	5
37	41	2
42	44	4
7	8	5
50	51	9
20	22	7
51	54	7
20	20	12
19	22	7
40	41	6
12	50	1
57	58	15
32	43	1
20	21	8
10	13	2
47	51	1
31	46	3
39	41	2
9	12	4
0	1	11
37	57	2
31	50	3
36	40	5
33	35	10
32	32	11
21	22	5
9	10	3
41	44	2
39	53	2
17	60	7
57	57	5
8	9	3
34	34	11
41	51	4
3	3	6
58	59	5
56	57	6
39	56	2
10	19	2
21	21	4
9	30	3
3	4	1
35	48	1
42	62	6
13	59	1
43	44	10
31	49	2
46	51	4
33	43	2
37	42	1
8	10	1
31	60	2
35	43	1
57	59	3
59	59	5
38	58	1
2	3	6
40	45	1
47	48	2
29	52	1
9	19	4
12	54	3
18	23	2
19	20	3
44	61	1
22	23	3
33	52	1
41	60	1
22	22	12
13	17	5
9	11	5
12	17	3
60	61	6
15	41	2
1	2	2
39	58	1
33	36	1
36	42	1
9	22	3
3	5	3
40	46	1
0	2	1
34	49	1
41	55	2
35	60	1
13	18	3
20	26	1
45	47	1
30	49	1
16	17	3
54	55	2
6	25	1
10	30	1
30	32	1
37	58	3
32	57	3
54	58	1
14	39	2
12	30	1
39	42	2
17	30	1
23	24	2
5	25	1
39	40	3
2	10	2
10	18	1
14	16	1
38	56	1
48	58	1
12	16	1
43	45	1
18	19	3
38	51	1
5	30	1
8	22	1
15	17	1
37	39	1
40	42	1
21	26	1
39	50	2
42	48	1
40	49	1
