63	64	8
79	79	10
94	98	1
81	81	9
78	135	2
75	98	2
45	45	19
7	56	5
135	135	13
71	74	2
74	74	9
42	43	13
22	22	6
5	23	6
145	145	7
142	142	7
103	137	8
20	20	4
94	96	6
118	118	5
113	133	3
116	116	13
7	10	2
5	6	10
78	79	2
104	135	3
25	25	16
39	39	24
69	70	6
147	148	3
100	100	5
13	20	5
67	68	6
34	34	11
112	112	13
127	147	2
30	30	19
68	68	15
85	85	10
65	65	16
79	80	4
70	71	3
16	24	4
142	143	4
13	13	28
15	15	13
28	29	5
127	145	1
47	47	14
17	18	5
42	42	12
4	4	8
63	108	2
8	9	6
107	107	7
94	99	3
41	41	10
104	129	4
17	20	5
97	97	8
7	8	5
46	46	10
35	41	2
63	63	13
31	32	6
75	76	3
18	32	2
6	120	2
31	31	4
76	83	4
33	57	1
94	97	4
105	105	2
14	21	1
139	140	3
103	120	1
94	94	15
96	96	9
17	21	2
127	127	5
98	98	6
80	84	7
121	121	9
70	134	1
50	57	5
18	18	16
53	53	8
35	35	7
131	131	7
87	144	1
21	51	3
10	39	1
27	29	1
113	114	12
133	133	10
6	6	11
40	49	6
3	3	9
21	26	2
21	27	3
77	77	5
76	76	13
80	81	7
11	23	3
120	120	5
9	45	1
119	119	6
62	62	7
141	147	5
54	54	12
74	99	3
37	37	9
110	111	3
88	88	6
4	77	1
108	110	3
21	21	28
16	16	13
82	82	14
74	125	3
64	64	9
33	33	14
109	109	14
105	113	2
110	112	2
102	102	5
64	69	4
147	147	12
27	30	5
130	130	4
132	132	3
103	126	1
118	119	3
16	56	1
28	28	1
82	100	2
104	134	3
5	120	8
64	65	12
8	8	13
24	24	11
6	7	10
71	71	10
95	122	1
97	111	1
99	99	11
149	152	4
76	126	1
40	111	4
84	85	1
3	4	1
117	117	4
48	49	1
122	123	3
81	82	5
11	11	19
119	152	2
93	95	3
144	144	10
109	110	2
135	136	3
55	121	3
15	64	4
137	137	11
84	125	2
114	114	5
149	149	11
74	75	3
80	80	12
108	108	7
92	93	4
39	113	2
5	5	11
102	135	6
7	37	3
75	93	1
75	75	1
22	23	5
41	122	2
131	132	9
108	115	1
65	111	3
86	86	7
138	139	3
17	17	8
75	82	1
93	93	3
4	6	3
20	21	3
128	131	5
27	27	2
26	28	2
129	130	1
30	35	3
25	42	1
30	53	2
141	141	10
127	146	2
10	11	6
38	38	9
66	66	7
61	87	1
9	51	2
10	23	3
34	36	3
36	50	3
51	108	2
38	39	2
41	49	5
111	111	9
34	35	7
115	116	3
82	83	3
44	44	8
37	38	2
136	138	1
84	84	3
10	27	3
151	151	6
139	139	8
67	92	3
36	37	3
102	128	3
73	73	8
58	58	5
124	125	3
102	132	1
137	138	4
106	106	5
48	52	1
130	147	2
62	65	1
94	95	4
125	125	7
117	118	9
19	20	2
9	55	2
48	48	12
111	113	3
6	86	4
50	50	7
75	84	1
13	14	2
9	9	9
67	67	4
128	128	5
77	86	2
41	44	1
69	69	9
102	133	2
124	126	2
153	153	2
33	50	4
145	146	5
30	117	2
122	138	2
42	107	6
19	19	5
63	69	2
62	64	3
129	140	1
83	126	3
11	20	1
120	138	3
8	42	1
129	131	6
115	115	8
31	41	2
32	33	4
136	136	3
42	49	1
26	26	2
95	95	7
8	25	1
46	48	3
103	131	4
15	16	3
58	63	2
53	54	2
14	15	2
129	132	8
96	105	1
78	78	5
134	137	2
36	36	8
104	113	1
4	5	1
101	127	4
16	79	1
26	31	3
12	23	1
95	137	3
143	147	1
74	114	3
83	86	6
43	52	1
40	40	10
27	28	4
129	133	3
41	107	3
86	87	2
11	13	1
127	128	6
87	87	3
13	28	3
48	53	2
138	138	1
11	25	6
131	134	1
113	116	3
84	124	1
150	150	7
152	152	2
6	12	2
70	70	8
50	51	2
32	32	2
149	151	2
77	78	2
52	52	2
83	84	3
104	104	8
79	93	1
82	145	1
13	32	1
120	122	4
9	42	1
10	25	2
78	130	3
21	40	1
78	83	6
18	31	2
143	143	2
11	12	1
99	125	1
111	112	2
56	56	7
17	25	3
120	136	4
73	93	2
94	105	3
10	10	3
126	126	3
145	147	1
84	130	3
85	87	7
101	132	2
31	117	3
33	34	4
38	129	2
40	107	2
134	134	9
128	130	4
15	23	1
20	51	1
5	56	1
123	123	4
65	108	1
14	62	1
78	80	3
116	117	4
129	129	2
4	86	1
71	80	1
139	152	2
69	96	2
150	151	4
103	103	4
122	122	3
13	40	2
146	146	2
12	12	8
25	43	2
130	146	4
43	43	4
41	47	1
11	22	2
44	45	4
25	51	1
87	88	1
18	19	4
106	109	1
71	73	2
98	137	2
5	38	4
148	148	7
8	27	1
3	64	2
68	75	1
154	154	3
58	61	1
68	69	2
72	138	1
55	55	8
14	51	2
51	121	1
12	39	2
64	77	1
74	78	2
62	63	1
53	116	1
15	17	1
65	71	3
144	145	3
133	148	2
47	49	2
137	139	1
125	126	1
55	68	4
73	132	1
14	14	6
32	38	4
9	11	2
67	81	2
41	48	2
9	46	2
97	138	2
29	48	2
64	67	2
104	133	1
102	103	1
97	99	2
50	58	1
4	54	2
79	130	1
29	29	3
13	24	2
110	115	1
108	109	3
84	86	4
54	56	2
25	27	1
65	73	2
96	99	1
17	73	1
85	86	5
130	134	1
101	102	2
121	122	2
29	53	1
148	150	2
65	67	2
146	148	1
67	74	1
53	56	3
8	55	2
51	51	5
25	26	2
28	33	2
132	133	2
48	89	1
32	34	3
95	98	1
15	94	4
6	11	1
13	19	1
57	57	7
66	98	4
23	23	3
100	128	2
141	146	5
103	104	1
49	49	1
119	123	2
141	145	2
8	43	1
102	127	1
125	130	3
2	2	1
70	74	1
55	56	1
9	49	1
16	53	1
28	31	1
30	34	2
153	154	1
44	46	2
128	148	1
103	127	1
19	118	2
46	49	2
95	99	2
7	7	3
99	126	1
79	84	2
141	142	1
5	24	2
68	80	1
123	124	1
85	151	1
90	90	1
97	98	2
46	47	2
146	150	2
61	61	3
32	35	1
57	62	1
92	92	4
84	99	1
29	30	3
101	112	1
140	151	1
73	125	1
85	146	2
5	7	1
5	57	1
80	82	1
51	56	1
76	92	1
63	76	1
11	26	1
14	20	3
41	42	1
10	26	1
85	126	1
7	108	2
8	54	1
27	32	1
127	129	1
128	144	1
66	78	1
78	87	1
28	34	1
103	135	2
29	115	3
106	107	2
132	143	1
25	29	1
35	36	2
45	46	2
76	84	1
101	101	2
81	83	2
10	20	2
73	100	1
14	50	2
76	91	1
30	31	1
69	109	1
91	92	2
98	99	2
97	139	2
9	12	2
6	10	1
4	37	1
72	98	1
108	111	1
48	57	1
79	82	1
67	136	2
127	137	1
92	139	2
70	96	2
28	30	2
63	137	1
132	145	1
47	48	1
71	136	1
83	83	2
4	120	2
104	112	1
66	95	1
82	140	1
72	72	3
75	125	1
20	26	1
57	58	1
83	145	1
63	73	1
23	24	1
64	136	1
26	27	1
79	81	1
73	137	1
66	67	2
38	113	1
81	144	1
17	28	1
9	23	1
68	71	1
66	82	2
5	121	1
72	137	1
11	49	1
26	30	1
54	108	1
110	110	1
25	57	1
67	91	1
16	52	1
57	63	1
113	113	1
123	125	1
21	22	1
100	143	1
126	127	1
61	134	1
61	130	1
