133	134	3
4	4	12
155	157	5
54	54	18
138	138	16
67	67	13
52	54	6
30	30	13
66	67	9
28	28	10
118	152	2
85	85	14
91	91	8
116	116	10
109	110	2
51	52	4
61	61	5
28	29	8
121	121	18
50	50	21
30	36	1
2	2	8
81	92	4
14	14	11
125	126	12
68	86	1
134	135	6
97	97	15
66	81	1
27	27	5
70	96	2
23	23	8
106	106	14
105	105	1
69	71	3
93	95	3
131	155	5
69	69	14
150	150	18
82	93	2
146	146	13
21	21	7
110	110	4
24	28	2
123	123	8
95	95	9
42	42	23
48	49	1
107	107	23
111	111	10
139	139	13
108	111	5
68	70	2
73	73	7
83	84	5
126	126	9
19	19	13
66	66	13
33	47	7
138	150	2
69	98	5
37	37	4
42	45	9
158	159	3
100	100	6
142	142	5
6	6	5
24	24	12
70	71	6
41	41	7
12	12	16
63	63	8
109	112	2
29	29	23
118	119	8
83	83	7
5	5	6
75	75	13
3	3	8
132	132	6
137	137	11
49	49	4
156	156	12
53	53	9
46	46	12
129	130	4
93	93	9
40	41	5
128	128	6
152	153	5
134	134	10
80	82	1
34	53	2
0	0	2
155	155	10
88	88	10
20	21	1
8	9	5
65	65	10
117	118	3
46	55	3
18	33	4
8	8	14
131	131	3
141	142	14
88	89	1
27	48	1
87	87	6
116	148	8
39	39	14
123	153	1
114	114	7
112	112	8
56	68	3
70	70	15
10	10	8
127	151	4
11	12	6
148	148	9
40	40	22
13	14	1
42	66	1
124	157	8
26	27	7
30	84	4
138	139	3
29	30	3
113	113	5
154	156	5
9	9	6
74	107	5
13	13	17
150	151	5
18	19	2
62	63	2
156	157	6
16	16	10
80	137	3
35	36	2
111	112	4
27	46	2
7	7	18
78	78	11
68	69	4
26	117	2
19	112	5
77	102	4
1	123	4
43	43	3
38	71	3
110	113	4
123	124	1
45	45	14
50	83	3
137	144	1
151	151	10
49	55	2
116	126	3
18	22	2
101	101	6
144	145	2
19	88	3
140	142	1
33	34	3
86	88	4
48	48	7
127	127	13
153	153	8
120	120	8
47	48	6
158	158	7
98	98	8
2	4	6
92	92	5
115	115	2
152	152	7
86	89	2
55	64	2
52	88	2
10	13	2
130	130	6
91	131	4
98	132	2
31	39	6
113	122	2
140	140	9
34	34	3
97	104	3
122	142	1
136	136	7
117	145	2
16	18	6
93	97	2
50	93	2
99	113	1
15	33	1
50	85	1
7	17	1
24	25	7
116	117	6
141	141	10
33	68	4
15	22	3
20	22	1
157	157	12
23	24	8
125	135	1
15	50	2
7	15	1
140	143	4
82	82	11
17	18	2
105	113	5
123	152	12
77	148	3
35	98	6
16	47	1
15	48	1
39	71	4
21	31	2
76	76	1
86	87	8
84	105	7
152	154	1
3	10	2
55	55	8
111	113	2
31	37	2
35	35	3
8	10	6
72	94	1
99	139	4
80	81	5
64	65	1
71	84	3
85	86	4
47	47	11
117	122	2
133	133	7
64	69	1
95	96	8
109	140	3
99	99	5
132	133	2
111	116	2
38	39	2
71	71	13
110	137	1
39	40	5
135	135	11
46	49	1
145	158	2
145	145	4
80	80	11
49	64	1
125	125	2
115	151	3
34	56	1
56	57	2
84	91	1
55	81	3
86	90	1
11	11	4
21	28	1
54	89	3
34	35	3
14	15	5
15	15	13
14	55	2
124	124	3
142	150	2
157	158	2
112	131	4
57	57	1
18	18	6
20	20	3
118	147	2
25	25	5
112	122	1
122	152	2
120	121	3
31	31	5
5	23	1
37	91	2
118	118	3
142	143	2
32	33	2
119	119	3
115	116	1
48	57	3
121	143	4
130	131	4
50	52	6
146	147	1
102	102	4
96	96	6
108	108	5
32	32	5
109	111	3
77	77	8
10	18	2
93	100	1
3	15	1
36	89	4
122	136	2
151	152	2
52	52	4
33	46	3
103	155	1
103	121	4
126	127	2
90	92	1
45	47	5
12	14	1
98	117	3
29	31	1
93	96	2
89	89	2
122	137	3
29	38	3
79	87	1
0	7	2
129	131	2
111	139	2
94	101	1
91	92	2
39	72	3
54	67	1
89	90	1
12	13	6
43	66	1
93	101	3
7	8	3
54	55	2
42	43	1
17	19	2
16	19	3
102	103	2
81	82	2
96	97	3
14	21	4
98	139	1
109	109	4
104	121	3
136	157	2
155	156	3
44	44	1
5	6	2
47	89	2
34	82	3
130	133	1
84	87	2
99	102	1
137	138	2
64	64	7
68	68	4
105	116	3
144	144	2
62	64	1
68	71	1
14	50	2
139	140	2
37	38	2
25	145	4
36	36	4
125	146	3
117	117	1
122	126	1
17	22	2
3	14	3
116	120	2
77	103	1
33	45	1
122	122	4
94	94	2
22	22	3
76	90	7
93	94	5
90	91	3
129	135	4
108	112	3
103	103	5
84	104	2
80	145	4
145	155	1
79	89	1
143	143	1
1	2	4
21	78	1
42	69	2
145	153	4
30	91	1
18	20	1
1	1	4
3	12	1
4	9	3
135	145	3
48	88	1
28	31	1
138	151	1
84	84	2
119	121	3
65	66	2
77	95	1
9	16	2
104	105	2
32	52	4
87	88	1
107	114	1
53	54	1
78	82	2
134	137	4
8	16	2
67	89	2
27	28	1
14	22	3
114	137	1
110	114	3
122	123	5
30	31	2
5	12	2
23	33	1
84	85	3
144	146	3
90	90	6
115	124	1
0	134	2
108	132	2
133	141	1
33	33	2
72	100	1
44	54	1
68	98	1
79	90	1
28	32	2
57	63	1
110	111	3
128	155	1
94	95	2
104	131	1
107	116	2
0	1	1
31	35	1
140	141	1
11	16	1
9	10	1
37	39	1
32	54	2
80	117	2
26	26	4
129	136	3
56	56	7
129	129	3
41	79	4
9	15	1
135	136	3
44	100	2
16	131	1
123	130	1
19	21	1
98	100	1
124	129	1
94	100	2
121	122	1
5	24	3
78	93	2
85	104	3
105	106	2
124	134	2
85	87	1
50	88	3
46	47	1
21	88	1
31	32	4
35	82	2
73	94	1
10	11	2
36	37	2
30	105	1
79	96	2
33	35	1
15	16	2
81	87	1
81	81	2
107	108	3
25	27	2
23	46	1
116	145	2
49	50	2
27	45	2
77	78	2
82	106	1
76	78	3
36	43	3
36	115	1
147	147	2
5	8	1
41	104	1
35	42	2
45	46	1
79	83	1
119	146	1
42	47	1
25	26	1
154	154	2
38	38	1
51	51	4
63	68	2
10	12	1
119	147	1
116	134	1
35	71	2
130	135	1
37	71	1
69	90	1
48	63	4
94	139	1
154	155	1
49	52	1
88	90	2
134	136	1
78	147	2
136	141	1
53	56	1
75	82	1
92	96	1
99	105	1
9	11	1
108	133	1
3	9	1
45	80	1
0	13	1
148	150	1
106	107	1
29	36	1
36	92	1
51	92	1
20	87	1
62	69	2
129	134	1
109	141	1
83	132	1
43	140	1
76	149	1
61	88	1
87	108	1
62	62	1
146	155	1
