142	146	2
156	156	10
44	45	7
159	159	4
38	39	4
52	52	4
130	131	5
14	14	6
147	147	3
132	132	6
106	106	10
112	112	4
96	99	1
5	5	3
48	48	10
75	75	6
1	1	3
90	91	4
69	114	5
83	144	1
33	33	6
114	114	5
126	126	5
86	88	2
163	164	6
120	120	4
80	80	16
82	82	13
167	167	7
44	44	9
27	28	2
37	39	1
90	90	3
57	57	2
152	164	4
84	85	5
63	63	13
54	55	3
23	23	5
109	109	3
166	167	1
105	106	11
150	150	4
115	115	6
155	155	2
20	22	1
99	100	2
77	77	6
133	133	7
37	37	13
106	156	2
151	151	6
45	45	4
74	75	5
16	16	6
85	148	6
70	73	4
72	72	11
138	138	6
110	111	2
69	124	1
15	15	9
47	50	4
67	67	4
113	114	2
71	71	9
129	129	7
17	17	6
24	24	5
86	86	3
91	91	7
19	19	5
69	69	3
107	107	17
143	143	15
102	161	2
101	164	3
66	96	2
134	135	1
11	12	10
20	20	18
40	40	14
18	22	1
150	151	1
55	55	1
105	155	2
162	163	1
1	53	4
66	66	3
56	56	9
62	62	2
80	82	2
124	168	1
23	24	3
78	116	1
123	123	6
51	51	18
11	11	9
8	10	1
58	58	5
135	145	4
83	97	6
158	158	2
8	8	11
136	144	3
2	100	2
14	21	4
53	53	9
68	69	7
77	81	3
102	164	4
98	99	2
91	98	1
97	98	3
144	144	6
58	74	3
102	102	3
50	50	15
79	80	3
71	73	3
86	87	1
67	157	7
145	145	6
36	36	9
111	111	7
139	139	3
84	84	10
80	99	3
73	73	3
74	74	2
135	136	4
168	168	6
70	76	2
162	162	10
64	64	5
158	159	2
163	163	2
16	17	1
48	49	1
126	127	4
141	141	6
63	123	1
122	122	6
151	152	3
47	51	1
131	131	4
83	83	6
47	49	3
43	43	8
113	113	7
2	2	5
64	155	7
165	165	4
97	154	4
101	101	2
70	70	3
6	6	1
26	26	2
57	62	1
25	25	4
134	134	13
92	92	7
51	68	2
115	116	5
125	125	2
46	53	2
43	44	2
22	45	2
20	37	1
22	22	10
130	130	4
14	43	1
104	124	4
117	117	1
79	79	3
3	3	7
74	91	2
81	81	2
140	141	3
108	109	8
85	91	4
154	154	11
3	5	1
39	39	7
74	76	4
91	92	4
21	22	1
153	153	2
87	87	9
44	135	5
164	165	2
20	38	3
136	138	3
95	99	1
159	166	1
52	53	2
24	38	1
4	41	2
0	0	1
4	4	5
69	88	5
54	54	8
157	157	4
65	66	1
67	94	5
92	108	5
110	110	5
15	16	3
35	35	3
155	157	1
42	42	6
152	152	5
99	165	3
76	78	4
88	88	7
96	96	2
19	48	1
16	67	1
100	101	2
134	146	1
169	170	3
38	38	2
39	41	2
153	154	2
120	122	4
88	118	2
88	89	2
80	160	2
131	143	4
46	46	8
108	108	4
118	118	9
47	47	10
124	159	3
76	79	1
10	10	6
18	18	4
80	116	2
17	18	2
85	86	4
6	9	3
125	127	3
42	133	2
94	94	6
101	103	1
141	142	5
27	144	3
65	90	1
47	48	5
160	160	1
81	83	2
25	43	1
94	95	5
37	160	2
118	155	2
103	124	1
3	4	5
55	57	2
93	106	1
124	124	3
84	160	2
46	49	1
13	13	5
100	164	3
101	102	1
89	89	4
103	103	1
87	89	3
0	3	4
125	155	1
99	99	3
128	129	2
56	110	2
46	47	4
93	93	1
55	56	7
2	11	1
128	128	5
129	152	3
104	104	3
7	37	2
36	43	1
12	12	4
69	118	2
41	41	5
72	87	6
125	170	3
92	151	2
6	22	1
85	85	1
78	78	3
76	77	2
111	125	1
79	91	1
151	170	2
7	47	2
148	148	3
147	166	1
6	7	1
76	76	4
63	74	2
153	156	5
88	152	1
67	153	2
15	18	3
119	119	2
79	120	1
97	97	3
96	114	3
10	12	1
155	156	2
36	37	3
27	27	1
154	155	5
65	65	4
8	12	1
86	89	1
19	34	3
20	24	3
7	41	1
103	104	2
66	67	1
97	151	1
118	119	3
96	159	1
39	40	3
83	149	1
136	136	2
164	167	1
89	90	1
64	66	1
106	157	1
64	159	3
116	116	2
85	98	1
137	137	4
121	122	1
123	124	4
40	41	2
18	150	1
142	142	1
72	74	1
9	9	2
135	135	3
3	103	2
146	146	2
1	4	1
46	48	1
79	88	1
76	83	1
93	107	2
33	34	2
49	49	1
58	63	1
121	121	1
127	127	3
64	118	1
101	158	1
127	129	1
139	141	1
146	147	1
2	33	2
110	137	1
7	44	1
83	84	1
56	57	1
119	123	1
13	14	1
92	94	1
35	36	1
10	26	1
153	155	1
118	123	1
149	154	1
25	36	1
88	120	1
132	163	1
24	56	1
166	166	1
