41	211	1
206	206	7
179	179	13
31	31	8
207	210	5
181	181	4
107	107	11
29	29	10
109	110	3
145	145	4
171	171	6
88	88	15
16	17	2
26	26	25
213	213	13
60	60	11
13	13	2
205	206	9
6	6	7
2	3	6
11	11	11
173	173	7
46	46	15
52	52	11
130	131	3
43	44	8
105	105	8
129	129	13
192	192	14
10	10	14
138	139	7
63	64	12
238	238	7
195	195	5
165	165	8
187	187	6
208	209	6
20	20	9
143	146	3
70	71	7
44	44	7
100	100	14
134	154	1
59	60	3
234	234	12
174	174	5
53	165	2
7	7	7
45	46	2
5	8	5
99	100	2
88	108	2
37	37	10
51	52	4
49	49	8
190	190	10
151	151	6
176	178	5
62	62	8
48	48	7
19	19	12
22	22	8
95	114	3
77	77	5
197	197	10
233	234	2
233	233	6
44	45	11
191	191	9
47	56	1
219	221	5
54	164	5
236	238	1
3	3	10
18	19	3
148	163	1
36	52	2
108	114	1
12	12	37
0	20	3
74	75	7
85	139	2
111	150	2
36	59	3
47	162	5
32	32	22
25	25	11
43	43	11
79	79	9
2	2	17
82	83	4
194	197	5
133	135	10
47	50	2
180	191	3
61	61	5
130	130	5
177	177	19
187	189	5
215	215	5
33	33	5
221	221	10
167	167	4
83	84	2
34	35	5
27	28	4
172	182	1
117	139	2
152	153	3
179	181	1
48	209	4
53	54	4
204	206	5
77	80	5
165	166	9
64	64	22
35	35	8
170	170	10
59	59	6
228	231	5
142	142	4
153	153	10
163	163	7
114	115	5
156	182	2
159	159	8
236	237	4
228	228	7
166	166	10
39	39	2
180	180	13
142	154	4
171	172	4
85	85	17
184	184	6
154	154	8
209	210	3
53	53	28
239	241	8
55	55	14
188	198	2
105	106	11
58	58	9
174	202	1
169	169	2
225	226	5
68	68	9
211	213	7
235	235	15
86	86	11
1	1	12
5	6	11
0	0	8
84	84	12
47	48	2
217	217	12
121	121	10
16	16	9
225	225	2
30	30	5
171	173	2
212	216	1
66	67	5
60	66	3
211	211	12
226	226	4
40	54	3
185	196	5
45	45	5
74	74	13
106	106	12
42	42	8
164	164	9
99	99	7
172	173	10
3	5	2
157	160	5
199	199	4
100	105	2
75	75	21
193	193	5
31	32	3
158	158	6
235	236	6
49	50	8
52	53	1
4	4	4
96	106	5
78	78	4
128	128	12
36	74	4
210	210	7
217	218	6
51	51	5
227	227	8
218	223	4
167	168	4
53	85	1
221	222	5
117	117	4
210	211	3
188	188	15
29	30	4
36	50	3
5	7	3
238	239	3
82	82	6
101	101	18
40	40	5
98	98	13
57	57	11
239	239	7
71	72	2
231	231	7
137	137	9
155	155	5
25	26	5
8	8	7
56	56	7
62	71	4
148	162	4
63	63	5
18	20	3
9	10	7
216	216	2
138	138	9
192	193	2
135	136	3
127	127	6
151	161	2
202	202	5
214	214	4
230	230	4
21	22	4
133	134	1
184	188	1
190	196	2
12	39	1
201	201	9
91	91	1
3	231	7
127	177	2
165	205	1
3	24	3
235	237	10
152	152	16
160	162	3
4	5	3
122	123	2
195	224	1
181	184	1
102	102	7
8	9	3
161	162	2
67	67	5
103	105	1
96	105	5
28	28	3
23	23	22
207	212	3
203	203	5
122	154	3
15	15	6
236	236	7
35	36	2
159	188	2
123	123	2
21	21	2
108	156	3
219	219	8
10	29	2
196	197	3
67	68	2
21	29	4
230	231	4
26	27	6
232	233	5
108	108	11
55	56	4
19	21	2
136	139	2
228	229	1
36	58	4
157	189	3
127	128	1
13	41	5
61	62	5
77	78	2
25	27	3
136	137	6
134	134	6
224	224	13
95	95	6
160	161	2
188	193	2
115	128	1
15	16	3
150	191	1
97	97	2
65	65	12
40	42	1
10	11	5
118	118	3
140	140	3
135	135	9
0	42	2
6	7	1
134	164	3
180	183	1
164	165	4
86	112	1
229	229	7
211	212	5
205	208	1
41	42	3
120	121	3
218	218	8
36	36	13
17	17	11
47	47	8
100	101	5
41	41	20
176	176	4
48	49	1
197	203	1
170	185	3
158	159	5
8	19	1
122	158	2
157	158	2
121	122	6
112	112	3
119	119	2
240	240	10
198	198	5
161	161	9
153	160	4
9	9	7
39	41	2
28	29	5
150	150	13
71	71	4
70	116	5
242	242	13
225	227	1
196	196	5
96	101	4
141	141	7
111	111	2
124	124	3
3	178	1
194	194	2
200	200	6
157	157	5
116	132	1
22	23	5
49	80	2
146	146	5
66	136	2
223	230	1
18	18	5
168	168	5
211	228	3
190	191	7
147	148	2
184	185	1
70	70	8
153	162	6
185	186	2
237	237	11
213	229	3
120	120	8
231	232	4
104	105	1
54	54	8
182	183	5
114	114	3
56	75	3
135	142	1
208	212	3
1	2	1
181	186	3
54	55	10
96	96	5
1	7	2
202	234	1
140	154	2
33	42	2
66	66	10
188	189	2
2	7	1
147	147	2
72	72	2
6	181	1
167	209	5
199	213	1
199	200	4
104	104	4
236	241	1
72	73	4
207	207	2
195	196	3
204	210	3
139	143	2
48	118	3
154	155	2
235	240	4
139	139	2
189	201	1
184	207	4
174	175	6
102	103	1
229	230	3
179	182	3
9	29	6
142	145	3
205	205	3
144	144	2
37	38	3
71	86	1
150	160	2
203	204	1
69	73	3
212	213	1
42	228	1
109	109	2
34	37	3
70	72	3
17	18	5
141	142	4
80	81	3
38	54	3
162	162	4
54	56	2
66	72	3
204	204	3
189	189	2
8	24	3
1	19	1
241	241	6
133	133	6
95	103	3
89	89	2
81	81	5
197	198	3
240	241	2
143	157	3
223	223	5
30	31	3
221	230	2
138	153	2
96	97	1
76	83	2
199	210	3
200	235	3
12	32	4
183	183	11
24	24	7
191	195	4
175	175	3
77	79	2
26	43	1
40	41	4
120	122	1
178	178	2
40	205	1
113	131	2
38	38	6
58	60	2
73	73	3
235	238	1
107	108	2
75	92	1
83	83	3
127	129	1
125	126	3
65	66	2
120	152	1
62	63	1
69	69	2
31	40	1
36	37	2
61	71	2
219	230	1
69	119	1
76	91	3
132	132	2
106	114	2
8	18	1
14	14	1
150	159	1
69	70	5
200	201	2
28	30	1
80	80	1
49	119	2
19	29	1
1	3	3
186	187	2
213	226	1
34	34	6
207	209	3
138	165	3
154	168	4
222	228	4
61	74	1
172	172	9
177	213	3
234	237	2
115	131	3
235	241	4
8	16	2
68	121	1
0	8	1
69	71	1
76	77	1
113	113	3
51	80	1
220	221	2
131	131	3
39	47	2
219	220	1
232	232	2
154	162	2
5	5	2
224	225	1
31	34	2
169	200	2
132	134	2
81	82	1
128	129	1
14	15	2
2	179	3
214	215	2
199	227	1
49	118	2
189	193	1
85	86	1
156	158	2
25	175	1
226	227	1
47	147	2
216	233	1
123	125	1
239	240	2
170	171	1
141	208	2
140	143	1
80	83	3
210	213	2
234	235	2
218	219	1
33	36	3
175	217	1
71	220	1
191	196	1
160	160	3
182	186	1
27	27	4
182	196	2
8	11	3
110	110	1
126	131	1
75	76	1
207	208	1
209	209	1
141	143	5
220	220	5
3	4	1
60	68	1
241	242	1
0	1	1
50	50	1
221	229	1
221	228	2
111	112	2
73	74	1
118	167	1
151	162	1
211	217	1
64	65	1
61	72	1
110	114	1
148	148	2
76	79	1
156	156	1
58	69	1
178	179	1
208	208	4
58	62	1
116	117	1
48	68	1
9	25	1
122	166	1
35	37	1
39	40	2
22	52	1
126	127	1
57	60	3
136	136	1
193	194	1
6	8	1
133	153	1
206	222	1
60	67	2
118	119	1
142	153	1
190	195	1
26	29	2
24	25	1
204	208	1
69	122	1
202	203	2
12	41	1
71	73	1
30	32	1
179	180	1
10	26	1
26	42	1
137	138	2
237	238	2
103	103	2
95	151	1
34	66	1
41	231	1
27	29	2
45	56	1
184	190	1
189	198	1
47	161	1
72	109	1
68	118	1
9	28	1
10	20	1
57	70	1
84	116	1
222	222	1
102	105	2
121	153	1
242	243	1
195	198	1
