46	117	1
71	71	15
20	20	4
68	68	17
8	8	16
66	66	13
54	55	6
57	78	4
87	89	1
109	109	13
132	134	4
68	69	4
118	118	7
131	133	3
37	37	3
42	42	8
64	66	6
52	53	4
49	73	7
47	47	20
31	32	4
67	71	3
110	121	1
17	18	14
136	137	9
7	7	4
14	14	18
18	18	12
99	99	9
134	134	12
53	53	8
76	76	9
77	87	4
16	18	3
123	123	14
78	78	8
57	58	3
110	110	2
22	23	3
63	63	10
91	100	3
92	92	2
83	96	2
10	10	15
144	145	3
119	119	5
69	69	12
41	45	4
86	86	7
131	131	16
26	27	1
70	70	9
84	84	12
138	139	9
27	30	2
98	98	4
101	121	3
3	10	3
12	12	19
62	75	4
135	136	5
9	9	17
85	93	3
149	149	6
73	73	6
39	39	12
23	25	2
11	12	6
17	17	7
12	16	7
13	31	3
16	16	10
40	40	12
6	7	8
56	56	4
121	121	7
127	127	8
32	71	6
19	19	14
8	24	2
41	41	16
64	65	8
22	22	12
2	2	4
65	65	7
44	46	7
114	119	3
69	70	4
15	15	5
42	88	1
113	114	5
126	126	7
147	149	3
97	97	4
101	101	5
128	131	4
49	49	7
26	26	15
23	23	7
150	150	17
24	24	14
19	20	6
144	144	7
142	142	3
19	115	3
48	48	16
46	114	2
34	34	9
21	21	9
123	124	2
154	154	11
95	97	3
138	138	9
7	30	2
125	128	2
75	75	6
148	149	3
33	34	6
126	127	3
6	6	3
54	54	14
81	82	3
72	72	2
70	73	2
107	108	4
80	81	4
151	151	9
9	24	2
4	8	6
46	84	3
40	41	11
135	135	7
118	119	3
4	4	6
129	129	5
43	43	5
145	145	9
79	79	5
116	117	2
115	115	3
77	78	3
25	25	3
25	26	2
50	50	7
48	49	3
103	114	3
39	40	12
92	93	2
137	141	3
137	139	2
111	131	3
61	65	2
102	103	2
23	30	5
143	146	2
26	34	1
151	152	1
56	78	4
64	64	11
18	19	7
65	71	2
117	117	8
39	44	2
56	57	3
67	68	6
95	114	1
143	143	8
95	98	2
9	10	6
107	107	12
141	145	2
132	132	5
93	93	3
112	112	4
13	13	9
30	30	6
122	133	3
31	71	4
21	24	1
123	125	6
137	146	1
41	42	6
141	141	3
111	111	3
11	11	6
111	134	4
85	109	3
20	23	2
103	107	1
94	94	2
66	67	6
130	134	6
100	101	2
78	100	3
74	99	3
36	36	6
10	13	3
130	132	3
49	72	1
62	62	1
36	37	9
133	133	4
128	129	6
29	37	1
108	109	9
16	19	6
80	82	2
45	91	3
50	51	2
22	31	1
87	87	6
132	152	1
111	125	2
110	111	1
106	107	1
5	10	2
95	96	1
62	64	1
44	44	4
32	32	1
7	8	6
104	110	1
103	106	1
5	5	5
133	134	6
121	122	3
96	96	7
78	82	1
75	77	1
47	48	3
29	38	4
82	82	8
78	101	2
49	67	1
12	13	2
135	151	2
47	62	4
38	38	6
11	16	1
147	147	1
24	34	1
90	90	5
131	134	3
75	76	6
67	67	5
26	63	2
92	106	1
111	112	1
107	125	3
65	67	5
55	56	2
100	100	5
41	44	1
147	148	4
30	36	3
39	41	1
56	67	2
78	81	3
8	11	3
142	143	4
137	147	2
49	66	1
57	57	2
21	26	2
38	40	3
58	77	4
45	114	2
107	126	3
103	105	1
97	99	4
135	140	2
57	107	2
14	19	3
81	97	2
38	39	5
42	89	1
77	77	9
122	122	6
137	138	2
9	12	3
103	103	3
25	31	5
146	147	1
85	85	4
87	108	1
46	46	4
74	75	1
16	17	5
102	102	1
116	118	3
136	136	2
115	117	2
136	139	2
47	49	6
108	108	3
10	30	3
74	77	1
15	21	1
103	128	3
84	86	1
20	91	4
95	95	2
35	35	1
30	31	4
48	69	1
101	112	2
27	27	3
46	81	2
83	83	1
128	133	1
114	116	1
101	104	1
2	3	2
131	152	2
78	85	1
24	30	1
108	116	2
50	80	1
123	135	3
19	116	3
31	39	3
153	153	7
58	58	1
42	43	1
93	96	2
70	85	1
83	84	2
78	79	1
29	29	1
14	15	2
40	44	1
28	29	2
128	128	4
4	5	4
103	109	1
134	150	2
18	115	1
9	13	3
46	80	2
10	12	5
77	79	1
112	119	1
122	137	2
14	16	2
69	72	1
45	47	4
65	66	1
21	22	1
103	110	1
137	145	1
71	72	4
13	15	2
98	99	4
146	146	1
55	55	4
80	80	2
50	53	1
45	45	5
129	130	3
40	42	1
28	28	1
125	125	2
116	116	1
70	79	1
70	71	2
133	135	1
107	112	1
86	96	2
119	120	2
109	110	2
43	46	1
45	46	2
100	105	2
139	139	1
11	25	1
132	133	1
17	19	3
76	77	3
119	122	1
31	34	2
33	35	1
80	85	2
30	35	1
82	83	1
18	117	1
7	76	1
68	72	1
74	74	2
122	130	1
137	137	1
106	106	1
16	109	1
83	85	1
96	106	1
22	66	1
138	144	1
13	14	1
53	54	2
65	72	1
35	36	1
86	95	1
51	55	1
84	87	1
84	85	1
62	63	1
102	113	1
43	44	1
