105	106	5
118	118	1
69	70	2
5	6	1
120	122	3
90	91	2
16	16	3
109	117	2
64	69	4
106	129	3
114	114	1
153	153	3
154	154	3
117	118	4
97	97	4
44	45	8
89	90	1
15	15	8
7	25	2
91	91	2
41	41	8
71	72	5
92	92	3
27	27	4
84	84	10
108	109	3
146	154	2
99	99	2
14	14	9
11	11	1
101	101	3
53	53	9
170	170	2
1	1	3
115	115	1
144	147	3
106	106	2
19	19	3
146	147	1
95	128	2
121	121	1
93	93	3
122	124	4
10	10	3
126	130	4
35	35	5
120	120	5
51	51	4
64	64	3
16	48	3
22	23	2
34	34	3
43	57	1
106	107	1
87	87	6
169	169	4
101	102	4
80	80	4
49	49	3
133	134	1
73	73	1
88	88	3
91	156	1
28	95	4
103	158	3
114	116	1
75	75	2
21	23	2
69	69	3
157	158	2
157	157	1
56	56	10
96	96	8
163	165	4
72	72	1
54	55	3
74	94	6
74	75	3
55	55	1
125	166	5
128	129	3
113	114	2
81	108	1
138	139	2
17	17	2
38	38	1
134	134	8
57	57	1
107	107	1
44	44	6
6	24	3
47	48	2
133	133	4
87	167	2
104	104	4
87	89	2
7	7	3
4	5	3
79	107	3
90	97	3
5	5	1
42	43	2
88	89	2
159	159	2
152	152	2
8	8	1
40	40	3
57	58	3
103	103	1
46	46	3
165	167	1
95	95	4
139	139	1
2	2	5
149	149	2
81	81	5
110	166	4
161	163	1
76	78	1
35	111	4
18	18	1
13	13	4
4	12	1
23	83	1
71	71	6
88	91	1
111	111	1
55	56	3
127	128	4
163	163	1
151	153	1
87	88	3
38	78	1
89	100	1
100	100	3
84	93	1
105	105	2
142	142	4
161	161	3
74	76	1
54	54	1
78	78	1
22	24	1
95	97	1
136	136	2
129	132	2
9	9	1
15	82	2
36	36	2
3	3	2
67	69	1
134	135	3
21	21	1
139	146	2
48	53	1
43	43	2
145	149	1
24	24	2
162	162	1
126	126	3
109	109	3
145	145	1
117	157	3
35	53	1
49	52	2
68	68	2
36	138	3
47	47	1
76	95	1
144	144	4
111	114	2
110	110	2
77	77	2
156	157	1
66	67	1
150	151	1
26	26	3
70	70	2
43	52	1
160	160	3
126	166	3
35	54	2
0	1	1
108	108	2
116	117	1
66	66	2
128	131	2
98	99	1
14	15	1
84	103	1
124	162	1
137	137	1
65	66	1
93	94	2
109	116	1
81	82	1
67	67	1
39	39	1
86	86	1
90	118	1
62	62	1
150	160	1
94	94	1
24	25	1
122	123	1
