19	49	4
84	85	3
9	11	7
53	53	4
16	16	11
96	141	5
102	102	8
117	117	6
59	73	1
68	86	1
15	15	5
140	140	5
0	0	3
17	26	4
5	6	9
161	161	6
14	14	10
62	77	1
150	151	4
160	160	8
81	83	6
59	59	8
127	127	10
55	56	5
151	152	4
169	170	4
19	33	2
21	24	3
80	80	10
115	116	3
50	101	3
8	8	4
108	108	9
36	36	11
52	52	12
22	22	14
82	83	5
98	98	4
50	102	3
11	11	13
105	108	3
157	157	6
165	166	2
32	33	5
119	119	2
39	40	6
14	16	2
109	109	10
42	42	11
58	58	4
142	143	1
14	15	2
41	41	12
135	135	11
160	161	3
175	175	2
24	24	6
4	4	12
159	163	3
44	44	9
33	33	3
87	91	3
167	167	5
93	98	2
110	110	5
133	133	10
35	35	5
96	96	5
55	57	2
95	125	1
127	128	4
170	171	2
174	174	3
158	158	6
77	84	2
9	10	2
79	94	3
120	122	1
30	30	16
29	30	10
4	44	1
86	86	7
88	88	5
45	45	8
66	68	2
42	44	2
40	40	5
144	144	10
120	120	2
82	82	2
149	149	9
112	113	3
105	105	3
34	34	10
17	17	6
14	17	2
121	121	3
2	42	1
157	158	3
73	74	2
100	113	5
131	161	1
13	13	6
143	144	2
97	97	1
10	12	4
159	159	6
113	114	4
128	128	6
95	133	4
137	137	6
95	95	10
1	34	2
93	93	5
92	106	2
52	58	2
139	141	1
170	170	1
62	62	3
101	106	6
25	31	3
50	51	2
10	10	3
123	125	12
173	173	4
163	166	6
3	13	1
117	118	2
169	169	3
32	32	5
5	41	3
148	148	1
168	169	3
22	73	2
23	23	8
83	83	5
1	4	1
111	111	11
77	157	4
8	11	3
27	28	5
1	2	1
175	180	1
156	156	6
81	82	5
76	77	3
26	26	9
12	12	5
20	20	6
134	135	6
148	159	1
13	18	4
94	98	1
103	106	2
8	13	2
178	178	7
172	172	6
25	25	14
40	42	5
24	30	2
132	148	2
117	120	2
139	176	1
110	153	3
167	170	2
162	162	5
91	91	1
82	84	1
22	25	1
121	122	2
73	111	1
155	155	4
78	110	4
62	67	5
28	88	1
142	142	2
135	158	2
92	92	2
22	23	4
99	99	2
31	31	12
106	110	4
95	96	2
1	1	7
2	2	2
139	139	4
115	151	4
9	9	5
119	123	5
118	119	4
4	11	2
151	151	5
7	7	11
124	124	2
83	92	1
151	153	1
146	152	6
20	22	1
154	154	5
6	15	1
6	7	1
128	129	2
39	39	7
37	37	4
121	125	1
118	118	10
17	18	3
31	39	2
22	28	5
167	169	2
61	71	2
66	75	4
38	38	7
105	106	1
107	107	7
34	35	3
104	104	2
99	152	1
2	15	1
89	89	3
103	104	1
83	85	2
174	175	2
39	42	2
19	19	13
28	28	11
76	76	3
60	61	3
137	138	1
20	21	2
144	145	3
126	126	3
41	42	2
146	146	1
122	122	10
152	152	2
111	153	1
116	153	2
88	116	1
21	21	4
99	104	4
62	63	5
125	125	6
3	4	2
43	44	3
153	153	2
16	18	1
31	41	1
148	149	2
86	90	1
52	53	3
123	123	5
138	138	3
12	13	2
163	178	4
32	36	3
16	42	5
173	176	1
26	42	2
129	129	1
129	130	2
3	3	4
18	19	6
145	145	8
83	91	2
84	84	4
112	112	1
147	148	4
4	5	3
125	152	1
71	74	2
55	55	3
22	50	1
131	179	1
165	165	3
156	164	2
71	75	3
116	117	2
11	12	5
75	86	1
63	63	2
103	117	2
12	21	2
23	63	3
133	134	3
43	43	3
83	100	1
94	94	1
132	132	1
149	154	2
13	15	2
6	6	2
50	73	3
154	155	3
74	74	1
16	17	4
63	65	1
32	43	1
41	43	1
167	168	1
49	126	1
150	150	1
112	125	1
153	157	4
2	5	2
120	121	2
8	9	3
99	100	1
36	37	2
132	146	1
61	61	5
112	136	1
100	100	1
162	170	1
85	89	1
79	79	3
143	145	2
73	73	2
153	155	3
166	166	2
154	156	2
153	162	1
106	106	2
130	130	1
157	162	2
108	126	1
131	131	3
113	123	2
168	171	1
156	157	2
26	28	2
171	172	2
31	63	1
85	90	5
123	124	3
128	161	1
27	27	3
113	113	4
131	135	1
91	92	1
51	51	2
76	111	1
31	32	5
74	91	1
96	98	3
26	27	1
87	102	1
103	103	3
93	94	3
28	29	2
104	106	4
141	141	3
156	160	2
118	128	2
171	171	1
37	38	1
96	97	1
13	14	2
2	44	2
31	36	2
0	1	1
126	136	1
133	179	1
35	39	2
67	68	1
31	89	2
10	36	2
25	27	1
4	15	2
10	11	1
87	87	1
66	66	2
163	165	1
136	137	1
121	124	1
116	116	2
91	101	1
28	86	1
161	162	4
123	126	1
74	75	1
29	29	2
80	84	1
44	45	1
41	44	1
67	67	2
164	165	1
34	36	1
97	98	1
122	126	1
7	9	1
168	168	1
10	22	2
54	54	1
99	101	1
26	29	2
130	131	1
15	17	1
12	14	1
72	94	2
155	156	2
3	5	1
68	68	1
1	38	1
112	115	2
163	163	1
3	8	1
101	102	1
77	102	1
75	76	1
10	34	1
127	159	1
117	123	1
90	90	1
32	37	1
5	5	1
54	57	1
20	23	1
141	148	1
147	159	1
