132	132	15
45	45	2
90	90	16
130	132	8
55	56	2
120	121	5
125	125	11
64	68	3
127	127	8
78	80	4
74	74	19
59	59	10
99	101	5
73	73	18
1	1	16
68	68	15
118	118	12
89	89	13
82	82	16
6	6	15
120	120	12
83	83	11
115	121	1
92	92	11
115	115	16
8	22	1
13	14	4
54	55	2
17	20	7
84	84	17
35	35	11
27	27	15
111	112	7
84	115	3
135	135	19
52	52	6
102	102	10
108	108	18
126	134	2
108	120	2
9	36	2
121	121	7
122	123	17
76	76	18
19	52	2
129	129	23
15	15	10
70	90	2
97	109	4
84	85	6
112	112	19
80	80	27
119	131	1
53	53	8
96	134	2
5	31	3
78	78	28
85	85	9
103	103	13
97	97	13
88	88	10
107	129	5
13	91	1
30	30	13
94	94	9
7	7	2
53	54	6
16	43	2
119	120	7
20	21	4
79	79	10
106	106	2
13	13	8
34	34	9
55	55	11
67	67	5
38	38	9
69	79	1
133	134	3
50	52	3
112	116	1
71	71	7
84	87	1
112	113	7
117	118	1
52	53	8
56	58	3
123	134	5
77	77	11
116	116	9
75	75	19
128	128	7
78	117	1
33	33	9
134	134	7
31	71	2
101	101	19
0	0	18
72	72	8
126	126	18
16	87	3
131	131	16
107	113	1
57	59	2
82	86	3
2	2	12
96	96	18
110	125	1
80	85	5
32	32	3
124	125	2
10	37	4
134	135	6
91	91	16
6	14	2
95	95	15
110	110	14
124	124	15
7	33	1
43	43	6
66	66	17
16	20	1
61	61	9
95	96	4
62	62	6
31	31	6
57	58	6
96	97	6
124	133	2
109	109	6
11	11	8
15	36	3
60	61	3
104	104	8
10	10	7
24	24	9
117	120	4
23	23	13
19	20	3
96	129	5
8	9	9
4	5	3
9	10	6
83	84	5
93	94	7
50	50	12
129	131	1
102	103	1
86	86	8
19	19	11
56	56	3
57	90	1
123	126	1
56	57	4
24	25	2
109	112	7
99	130	3
44	57	3
119	122	3
81	81	7
15	16	8
57	57	9
14	43	1
105	124	1
69	70	5
133	133	4
91	92	4
130	130	13
108	109	6
93	93	18
37	37	6
20	20	3
111	111	4
61	64	3
6	50	5
127	129	8
61	63	3
60	60	9
70	70	4
58	60	3
86	116	2
85	86	5
64	69	2
115	116	4
77	79	3
86	101	2
56	89	2
116	120	4
76	93	2
110	131	2
6	78	6
88	103	2
5	5	10
3	3	8
122	122	4
18	18	2
15	19	3
122	131	6
64	64	4
79	81	2
108	112	1
78	91	2
94	95	3
15	17	2
63	79	2
118	123	1
126	132	2
26	26	12
108	128	3
63	63	10
74	94	2
18	19	1
104	105	11
114	114	21
131	132	3
36	36	6
120	126	2
17	26	1
50	51	3
79	130	1
46	46	3
28	29	2
82	85	6
25	25	5
23	60	2
118	122	2
79	80	6
117	117	2
113	120	1
28	28	12
35	45	2
8	8	11
31	32	9
105	105	6
128	129	4
85	113	2
34	50	1
23	25	10
92	114	5
123	123	8
4	4	10
88	122	4
85	88	1
22	23	2
37	44	5
90	93	2
82	83	4
91	97	3
79	100	2
77	112	3
113	119	1
64	65	5
63	64	1
108	131	4
47	47	3
101	107	4
21	21	6
84	86	1
99	99	7
129	130	2
22	22	13
13	38	1
56	59	1
92	109	3
58	61	2
14	16	4
70	93	4
86	100	3
9	86	2
106	108	3
31	33	3
100	100	15
80	81	4
21	22	4
9	42	2
79	84	1
85	105	1
117	122	3
69	69	6
12	12	2
95	128	2
58	58	8
65	65	8
73	76	1
32	34	1
58	59	7
28	62	3
68	92	2
97	133	1
98	100	2
54	54	9
29	29	2
96	98	4
91	100	4
110	111	4
32	37	4
111	126	3
61	62	1
120	130	4
44	45	3
66	67	1
129	132	5
78	79	4
107	128	2
54	59	5
107	107	3
14	14	8
15	44	1
31	106	2
114	121	2
48	48	7
117	129	2
103	104	2
119	119	11
118	119	2
0	95	3
8	24	1
23	24	1
18	21	1
25	26	4
92	100	3
67	69	2
9	11	3
123	131	2
119	134	2
58	89	2
33	34	3
32	52	2
101	102	2
16	39	1
121	122	1
77	81	1
108	111	3
119	135	2
88	89	1
29	30	4
70	84	2
62	68	2
48	49	1
1	2	2
61	69	2
16	45	4
43	44	1
108	125	1
89	102	3
45	49	1
0	2	3
7	11	1
99	127	1
71	73	1
99	100	1
29	62	2
0	1	3
89	90	1
80	82	3
29	65	1
55	57	2
31	35	3
12	13	4
17	17	2
22	24	1
27	29	4
87	87	2
44	55	5
11	37	4
89	109	4
54	56	1
69	83	2
116	126	1
107	111	2
78	92	1
70	101	2
130	131	2
123	130	3
102	105	2
127	128	2
122	124	2
86	88	1
113	113	3
98	98	9
5	6	1
74	75	1
11	12	2
44	44	3
111	117	1
3	4	1
37	38	1
89	97	2
38	43	2
16	25	1
80	86	1
117	123	3
123	133	2
93	102	1
101	128	2
113	115	5
111	116	1
117	124	1
49	50	1
65	66	3
119	124	1
33	54	1
113	118	1
98	105	3
16	16	3
106	113	1
2	3	1
56	95	1
32	33	2
19	23	2
105	106	2
54	84	1
106	109	1
127	133	1
82	92	2
108	114	1
9	9	2
91	127	1
19	53	2
16	38	1
131	133	1
100	101	1
21	29	1
84	114	1
23	38	1
62	63	2
11	35	1
68	69	1
113	114	3
17	25	1
81	82	1
114	115	1
12	36	2
15	18	1
45	68	1
76	88	1
43	56	1
77	113	1
106	127	2
73	74	1
96	102	1
110	117	1
60	67	1
13	18	2
72	73	1
64	102	1
110	121	1
71	72	1
49	49	1
