94	94	20
31	33	8
87	87	22
90	90	27
72	90	2
52	52	18
61	61	25
33	33	33
82	83	9
37	37	14
24	32	7
96	96	34
66	98	2
57	59	3
43	43	15
71	72	19
20	20	25
79	80	10
27	27	18
31	31	22
34	34	21
100	103	6
105	105	18
64	64	38
66	79	1
59	59	30
78	78	16
77	78	15
78	82	6
94	101	2
95	95	25
45	45	13
72	73	8
92	101	5
83	86	9
63	63	26
36	36	15
89	89	34
67	68	14
76	77	2
30	33	6
73	73	24
100	101	12
78	79	9
66	66	21
79	97	4
84	84	10
68	68	27
35	35	36
62	63	8
24	24	19
75	100	1
70	70	23
85	92	3
56	57	11
28	28	15
47	47	19
82	85	4
88	89	9
69	77	1
87	88	3
71	71	23
75	75	12
44	44	15
48	49	17
49	49	15
57	57	14
77	107	1
23	23	10
76	76	36
22	22	11
86	88	2
36	37	9
38	38	10
62	62	12
106	106	8
88	88	11
61	82	2
104	104	16
71	73	7
93	93	11
82	84	1
30	31	5
78	94	5
22	47	3
55	96	2
99	99	7
74	75	13
105	107	1
37	41	2
66	67	9
85	88	3
81	84	2
39	43	5
79	85	4
80	80	8
40	40	12
59	60	8
51	54	4
79	103	4
80	81	9
56	56	17
33	48	2
81	95	4
79	79	17
91	93	2
42	42	16
69	69	21
60	84	2
94	96	2
65	65	16
56	61	3
27	28	8
22	26	5
35	36	10
70	71	8
22	32	2
25	27	4
82	89	2
68	70	1
81	81	17
58	58	12
43	44	7
21	31	6
77	77	10
25	25	8
60	60	17
97	98	14
69	70	7
72	72	16
31	34	13
36	54	7
93	100	5
60	61	6
58	59	14
25	26	3
100	100	24
32	32	11
60	63	3
53	54	4
29	29	18
81	93	2
79	95	6
92	93	7
83	83	22
101	102	18
37	38	4
39	39	10
33	40	3
26	26	10
78	81	1
67	67	18
101	104	3
86	87	10
47	67	2
34	38	3
25	54	2
30	30	12
38	39	4
102	102	15
81	88	2
22	30	5
64	66	3
21	21	14
41	41	12
25	33	1
55	55	29
24	53	3
79	82	8
78	95	5
55	56	8
83	89	4
60	88	6
34	52	1
31	55	7
74	74	18
26	27	4
83	87	2
97	101	1
86	97	7
107	107	3
42	43	6
46	57	3
73	76	2
70	72	3
33	36	2
38	44	4
27	30	5
83	88	6
51	52	8
97	97	23
27	57	3
60	66	7
96	99	2
92	99	2
71	75	3
34	36	8
46	46	11
86	86	12
91	91	17
79	81	5
54	54	22
20	22	5
53	53	23
68	69	10
92	92	17
28	38	2
25	28	4
32	33	7
89	99	2
61	62	11
20	30	5
62	67	2
73	92	3
98	98	25
105	106	4
56	59	3
101	101	23
50	50	7
64	67	3
30	49	1
56	58	7
52	106	1
47	48	4
20	23	1
76	97	2
94	95	3
70	73	4
103	103	26
24	25	2
21	22	8
83	85	5
24	52	3
86	92	1
84	86	7
35	37	4
45	48	2
77	85	2
57	58	6
49	51	5
22	27	2
48	48	13
21	29	2
91	95	1
56	96	2
76	99	1
85	85	10
85	91	3
40	44	7
68	71	2
54	58	2
88	97	4
74	78	2
52	53	5
27	29	3
30	48	5
89	90	8
65	78	1
82	82	7
26	33	3
25	29	3
46	49	2
59	68	5
95	96	5
92	96	2
20	21	7
89	91	7
65	76	2
104	105	1
78	97	3
45	46	1
33	34	3
82	88	6
46	51	2
26	29	10
31	32	4
59	61	1
41	47	3
37	39	8
34	53	4
91	92	7
102	103	10
24	31	1
62	66	1
50	51	5
77	80	3
33	56	2
64	84	3
30	32	3
90	98	3
28	49	1
29	30	4
30	87	1
50	64	3
104	106	1
33	53	1
57	61	2
54	60	2
88	90	3
39	40	3
98	99	23
30	34	4
83	84	4
33	49	2
41	42	3
89	98	1
46	47	4
80	100	3
30	47	2
43	45	1
69	72	1
45	47	2
60	67	1
78	96	5
23	24	4
53	55	1
89	97	2
36	53	6
29	32	1
51	51	8
34	50	6
75	76	1
33	54	2
80	94	1
40	50	1
77	94	1
102	104	1
66	68	1
64	102	1
59	65	2
67	84	5
93	95	3
81	85	1
38	49	1
35	54	1
29	33	2
84	85	4
58	90	3
59	67	1
46	48	3
88	98	2
106	107	2
66	81	2
69	71	2
62	64	2
94	98	2
82	87	2
65	75	4
79	99	1
49	54	1
39	45	2
58	97	1
63	85	8
55	100	2
96	97	3
76	100	2
67	69	1
81	103	2
56	60	2
58	89	1
26	28	2
80	82	2
23	26	1
85	87	6
62	85	1
36	38	4
65	104	1
100	102	2
50	52	3
40	48	1
70	91	3
55	58	2
65	84	2
73	74	3
29	46	3
103	104	3
46	58	2
64	65	3
85	86	1
31	39	2
57	60	4
61	88	1
85	90	1
65	67	2
20	32	2
90	91	5
29	48	1
82	90	1
39	53	1
66	99	2
41	48	1
54	61	2
95	98	1
91	94	2
46	67	1
62	106	1
28	29	4
62	82	1
27	37	2
25	32	1
31	38	4
22	54	1
80	83	2
63	83	2
80	97	1
34	55	3
88	96	1
54	106	2
86	95	1
37	54	3
65	77	1
57	89	2
19	19	1
26	47	1
80	88	1
25	52	1
23	36	2
76	96	2
78	99	3
96	102	2
60	106	1
79	90	1
22	25	1
81	97	1
35	52	1
57	97	1
28	37	2
63	64	2
76	78	1
52	54	1
51	53	2
81	89	1
69	73	1
60	87	1
82	86	1
94	97	1
64	82	1
85	99	1
62	83	1
52	57	1
42	45	1
78	107	1
45	51	1
42	44	1
34	37	1
40	45	1
60	86	1
37	40	1
68	91	1
40	41	1
28	32	1
40	42	1
75	77	1
80	87	1
22	23	2
80	95	1
41	46	1
82	93	1
44	46	1
