56	56	13
109	109	9
19	23	2
1	1	15
0	0	1
88	88	6
107	107	11
2	53	3
134	134	5
12	12	3
142	143	1
66	66	1
6	6	11
94	94	13
162	162	8
166	166	11
84	84	6
46	47	3
42	43	12
151	152	2
137	137	10
40	40	5
114	114	3
112	112	6
58	58	6
43	43	12
11	11	11
133	134	9
11	22	1
25	25	7
170	170	6
113	113	8
160	160	9
55	55	11
18	19	2
49	51	2
149	149	4
36	36	12
133	133	15
76	76	7
105	112	3
22	23	3
130	152	1
21	21	5
80	81	3
18	18	7
75	76	6
11	12	2
66	67	3
89	89	5
156	159	5
53	53	18
64	64	13
144	144	3
145	148	6
97	97	2
65	67	5
78	78	1
12	34	2
99	99	2
138	138	10
41	41	10
106	106	7
39	39	7
50	50	5
46	46	15
88	89	3
151	151	11
99	100	2
37	37	12
41	44	2
73	73	7
27	27	3
127	129	2
144	145	7
132	132	7
50	51	4
44	44	14
120	120	4
9	9	5
35	36	2
141	141	4
79	80	2
52	53	8
23	24	2
110	111	7
129	129	3
161	161	1
143	143	5
126	126	8
67	67	2
130	133	5
38	38	7
25	135	1
164	168	1
74	74	6
131	136	1
106	107	4
139	143	2
130	130	9
79	79	3
71	72	2
24	24	9
54	55	9
145	158	1
135	136	2
23	23	7
52	63	4
102	102	7
54	54	11
142	142	3
2	2	4
1	2	5
40	45	1
159	159	5
8	12	6
51	51	4
18	24	2
4	4	2
12	16	4
47	47	10
84	85	1
111	111	4
42	42	15
125	125	4
9	10	2
67	112	2
3	3	4
127	128	4
103	105	2
48	48	5
124	126	2
135	137	1
164	165	1
35	35	8
67	70	2
22	22	3
167	170	1
27	39	2
51	64	6
162	164	4
93	93	2
51	52	4
63	63	5
92	92	1
81	81	9
58	118	1
36	41	8
148	148	9
33	33	7
72	72	6
50	52	1
7	35	2
1	3	2
37	112	1
8	8	8
155	156	3
12	161	3
129	130	3
136	138	1
155	155	1
52	52	6
148	152	2
64	65	2
133	139	6
10	19	4
68	68	2
14	15	5
152	152	4
26	26	5
19	20	1
132	133	1
137	138	3
11	13	2
45	75	1
90	92	2
57	134	3
46	52	3
163	165	3
4	6	1
96	96	3
118	126	1
136	136	4
57	57	2
24	25	6
162	165	1
156	162	1
20	20	3
163	164	4
165	165	8
69	69	9
34	133	1
92	113	1
116	116	4
2	3	4
108	109	1
150	150	4
144	164	4
3	7	4
36	37	5
169	169	4
45	51	1
16	16	3
20	22	1
53	54	4
3	5	2
168	170	4
63	69	3
13	14	2
19	19	3
131	131	3
154	155	3
90	90	6
5	6	6
1	52	1
13	13	3
56	57	4
98	98	3
17	17	8
116	121	4
41	71	1
20	21	4
17	20	3
5	5	10
165	166	1
112	113	5
27	40	2
159	160	3
150	151	3
119	120	3
18	23	2
166	167	4
157	157	2
15	15	4
7	7	7
55	56	1
116	117	2
9	16	3
87	87	5
9	35	1
34	134	2
57	64	1
121	123	2
57	63	2
117	118	2
128	128	1
119	119	3
162	169	1
5	8	1
10	10	5
108	108	6
34	34	4
140	140	4
141	143	1
72	74	1
39	40	1
145	165	2
129	132	1
135	135	4
126	127	3
65	65	1
83	83	3
103	103	4
10	133	1
110	110	2
38	41	1
135	139	3
37	39	3
139	139	3
131	150	5
118	125	1
47	50	2
140	141	2
49	58	1
4	5	2
46	65	1
87	88	3
47	51	1
156	156	2
105	105	1
147	147	1
82	108	1
75	75	1
28	39	2
124	124	3
101	111	3
114	115	1
157	158	3
160	161	2
62	62	2
6	21	1
141	144	1
3	4	2
120	124	2
26	27	2
81	82	2
127	127	2
40	47	2
47	54	1
121	121	1
122	122	2
16	17	4
157	159	4
77	78	2
48	49	2
133	135	1
113	115	1
76	81	6
139	149	1
46	50	1
147	148	1
56	134	3
143	166	1
11	21	2
113	114	2
48	65	1
165	169	1
117	119	1
49	64	1
25	27	1
144	158	1
69	70	2
158	160	2
145	155	2
37	38	3
161	162	1
141	142	1
32	35	4
129	139	1
44	76	1
105	106	1
38	42	1
116	125	2
38	54	1
152	156	1
14	19	1
74	75	1
153	153	1
144	156	1
47	48	2
134	135	1
88	90	1
115	116	1
89	92	1
72	73	1
15	16	1
125	127	1
70	73	1
90	91	1
11	24	1
158	158	1
111	112	1
86	86	1
17	18	1
40	48	1
46	74	1
130	150	1
102	103	1
62	63	1
