73	73	6
65	245	2
189	189	3
211	211	7
117	117	7
45	45	11
9	9	12
165	165	7
61	61	3
147	147	17
36	38	4
30	233	3
58	58	5
17	17	10
182	190	2
177	177	10
146	165	5
16	16	13
201	201	17
247	247	7
28	31	2
38	38	8
117	118	1
47	61	2
229	229	14
103	103	3
152	205	1
159	159	3
235	236	4
197	213	3
239	239	6
201	202	4
224	224	6
203	203	12
62	62	12
207	212	1
56	56	8
24	72	2
67	67	9
21	21	13
33	33	4
15	15	18
65	65	8
23	26	7
145	145	3
32	32	16
104	107	5
76	76	6
162	162	8
226	235	3
48	177	2
247	248	2
206	207	3
86	88	2
219	222	2
164	164	9
241	242	5
41	42	7
50	59	5
44	44	11
192	193	4
182	182	7
220	220	11
228	228	9
187	187	7
2	2	3
20	20	4
57	57	4
202	202	21
200	200	5
152	152	9
27	27	8
36	40	3
22	23	4
102	103	2
183	183	11
196	196	5
22	22	18
190	190	5
110	110	10
38	48	1
156	156	8
210	213	1
245	246	3
224	225	5
153	153	13
48	49	3
113	113	8
118	119	5
179	179	12
86	86	2
46	46	12
217	242	2
222	222	11
99	100	1
111	111	6
153	162	5
177	181	4
188	189	6
26	26	10
238	238	3
172	172	16
96	96	5
184	190	2
112	119	2
69	74	2
30	30	4
158	160	4
212	212	13
65	92	3
19	19	12
68	68	8
36	36	8
225	225	8
77	77	1
118	190	4
240	241	6
76	92	3
173	173	8
25	26	9
231	231	3
165	166	7
154	154	10
28	67	2
155	155	6
244	244	12
30	33	2
107	108	7
207	207	4
55	55	15
199	199	5
30	91	4
52	52	2
39	39	4
237	239	2
204	205	3
193	194	7
57	81	2
202	203	2
187	188	1
86	90	1
168	168	13
31	31	13
70	70	9
29	37	3
13	14	4
6	7	3
214	214	4
211	219	2
207	209	4
186	194	3
213	222	7
41	52	6
82	82	4
217	217	5
175	176	4
235	235	7
33	72	3
49	49	8
225	239	2
238	248	2
86	87	2
5	5	3
55	57	2
77	78	1
60	60	3
43	43	6
40	40	8
101	152	1
105	106	3
102	104	1
7	7	8
191	192	8
10	10	7
83	83	2
160	161	3
162	164	3
112	112	4
82	180	3
64	64	10
195	195	3
1	1	3
23	39	5
221	221	4
187	189	4
88	104	3
151	151	10
171	174	5
216	217	4
107	107	11
204	204	13
238	240	3
33	35	3
101	101	5
175	175	10
29	31	3
119	119	7
104	113	1
193	195	3
17	19	2
116	117	8
115	115	10
31	33	2
71	71	4
15	18	2
17	20	4
64	65	4
18	18	3
68	92	2
240	240	13
195	196	1
160	160	7
218	233	2
14	14	9
6	6	7
213	217	8
223	223	6
78	78	4
197	197	2
112	113	3
115	116	4
39	41	1
233	233	6
194	194	4
241	241	6
116	158	3
223	226	2
29	30	2
32	33	1
146	146	4
3	3	2
13	13	3
69	70	2
99	99	2
243	247	2
8	8	7
72	93	2
246	247	3
25	92	4
210	210	7
23	23	8
186	186	8
50	50	7
188	188	2
80	84	2
23	24	2
78	79	1
57	59	1
181	181	5
100	100	11
4	4	7
11	11	14
69	69	3
47	51	2
94	94	11
68	91	1
215	242	3
154	172	1
79	79	4
206	210	2
172	175	2
31	34	1
43	44	1
167	167	13
82	84	2
23	28	2
118	120	2
226	227	3
46	61	4
237	237	5
150	183	2
29	29	7
159	160	2
174	174	6
174	247	2
19	57	5
242	243	3
56	57	2
209	225	4
228	229	4
84	84	4
246	246	2
236	236	6
42	42	12
153	204	2
178	178	5
116	184	1
197	201	4
215	223	2
205	206	1
227	227	5
66	66	6
30	90	1
120	120	2
69	103	2
205	205	8
248	248	8
150	150	9
37	37	5
81	81	2
31	156	2
65	66	1
98	98	2
56	58	1
182	226	1
98	103	1
99	114	1
40	42	6
30	76	3
198	199	3
185	186	6
9	16	2
180	180	9
54	54	6
114	114	13
116	116	7
204	215	3
34	34	3
175	178	3
59	60	6
194	219	3
74	75	6
208	208	8
88	89	2
49	50	2
144	145	4
111	244	4
45	46	2
39	40	4
149	149	4
153	171	1
93	93	4
30	31	1
18	19	1
1	3	1
28	28	6
176	177	4
87	89	1
171	171	5
51	51	5
226	226	6
88	88	1
4	5	2
55	56	1
192	192	3
163	163	8
48	48	2
161	161	4
110	111	1
230	231	1
157	157	8
223	241	1
12	12	7
219	219	2
85	86	2
17	18	1
240	247	6
41	41	4
186	187	2
232	232	4
2	3	1
50	58	2
239	240	3
200	212	3
105	105	2
109	109	7
66	93	1
176	176	9
172	173	2
153	154	2
60	61	2
24	24	2
156	168	2
189	213	2
93	94	1
61	66	2
213	213	5
25	25	5
168	169	5
231	232	4
212	213	3
200	201	2
245	245	12
161	162	5
170	170	7
191	191	2
83	84	2
70	73	2
214	218	1
96	155	4
121	246	3
63	63	5
236	244	1
114	115	8
65	87	1
154	173	3
234	235	2
35	78	1
48	68	1
35	76	1
194	196	2
211	218	1
197	198	1
27	201	1
210	244	2
212	221	2
27	202	1
87	87	1
47	47	10
90	90	4
79	93	1
209	209	7
164	170	1
181	226	2
169	169	5
149	150	6
157	166	3
37	57	3
205	228	1
197	199	1
157	158	2
216	216	3
152	153	3
181	182	1
68	90	4
118	118	9
95	111	3
215	215	4
242	245	1
222	223	2
20	231	2
42	43	1
89	91	2
169	170	4
109	114	3
20	21	1
117	119	1
213	214	7
101	102	2
162	163	3
248	249	1
75	79	2
17	24	2
8	9	1
169	172	2
26	92	2
179	180	3
193	193	1
12	51	1
242	242	2
238	241	2
51	52	1
113	118	2
31	84	3
154	155	1
112	118	1
155	156	5
158	224	2
91	91	2
176	187	1
81	83	2
236	237	1
236	239	1
230	230	5
237	238	1
208	212	3
19	21	2
182	184	1
92	92	6
170	172	2
197	229	2
212	227	3
202	206	1
102	102	1
76	77	1
158	200	1
52	55	2
183	186	2
114	147	4
177	178	4
119	120	1
37	38	2
108	108	2
176	178	2
29	33	1
187	195	1
202	234	1
202	204	2
180	181	2
31	32	2
244	246	1
75	75	1
3	8	1
105	109	4
27	32	1
34	50	2
53	53	3
31	74	1
68	69	1
88	91	2
236	245	1
206	206	3
2	41	1
146	147	1
54	55	1
188	246	1
235	237	1
243	244	2
35	35	3
236	242	1
203	204	2
198	198	2
97	164	1
184	184	1
15	16	1
81	82	1
178	182	1
208	221	1
7	14	2
186	240	1
218	219	1
157	159	1
26	27	2
61	62	1
147	158	1
217	218	1
103	107	1
149	156	1
169	174	1
39	55	2
190	212	1
186	189	1
34	35	1
47	50	1
162	168	2
111	112	1
170	171	1
156	167	1
59	59	1
166	169	2
144	148	2
7	8	1
232	234	2
115	119	3
178	185	2
94	115	1
121	145	2
203	241	1
234	234	2
108	111	3
74	74	1
97	118	1
237	244	1
156	172	1
174	198	1
50	56	1
174	189	1
31	35	2
49	87	1
211	230	1
223	224	1
24	205	1
218	224	1
201	203	1
36	42	1
156	161	1
213	218	2
37	55	2
179	183	1
205	220	1
227	228	1
116	118	1
70	109	1
95	96	1
84	85	1
175	179	1
6	8	1
208	210	1
13	48	2
171	175	1
95	99	1
197	228	1
104	105	1
87	88	1
67	68	1
82	92	1
164	165	1
92	93	1
190	195	1
218	222	1
