99	99	5
98	98	7
245	246	3
177	177	16
183	184	11
88	88	6
217	238	4
23	24	4
220	220	2
171	171	4
169	171	5
210	214	3
216	219	1
74	74	2
145	145	8
84	86	1
159	159	7
159	194	2
182	182	3
16	16	3
5	5	3
153	182	5
59	60	2
228	230	2
110	110	8
14	15	2
217	217	2
45	45	4
202	222	1
180	180	4
168	169	4
18	22	2
170	170	12
102	102	11
96	96	3
208	210	4
23	23	10
166	175	1
193	194	1
70	103	5
158	158	5
5	48	2
235	236	3
173	173	3
210	210	5
165	171	1
102	103	1
164	165	2
214	215	3
39	40	5
180	181	2
106	108	3
62	62	2
115	116	3
117	117	4
64	64	4
7	7	3
7	41	3
187	187	2
194	194	14
110	111	2
164	164	4
115	115	6
107	143	1
163	164	3
229	229	5
234	234	7
237	237	6
92	94	6
189	190	9
242	242	7
213	214	2
42	42	3
227	227	4
197	197	5
221	221	3
108	237	3
15	15	10
203	203	14
90	97	4
224	224	5
163	165	1
223	229	1
174	176	2
4	4	6
160	160	4
222	226	2
223	223	5
164	166	3
32	33	2
8	37	2
109	110	5
78	90	2
66	74	2
175	175	8
34	34	2
66	108	1
66	66	8
166	182	2
97	97	4
238	238	7
231	232	10
11	11	5
193	193	9
89	89	5
171	184	1
84	100	3
119	119	5
45	52	3
151	167	1
79	80	2
117	118	1
168	168	6
153	154	1
180	184	4
84	106	3
82	82	7
15	29	4
96	104	2
8	8	4
32	32	5
107	107	4
121	121	4
237	239	5
175	177	2
14	14	2
189	189	4
78	78	2
202	202	4
179	213	2
109	237	2
112	112	2
198	198	10
218	219	8
77	78	4
55	55	2
68	68	3
113	114	4
177	178	2
154	154	6
246	246	10
236	237	2
49	50	2
19	19	5
211	211	7
190	216	2
68	70	2
161	161	3
178	179	2
223	234	3
41	41	6
149	149	1
40	40	3
51	63	2
44	44	2
104	106	1
63	63	2
249	249	1
160	161	1
10	10	4
153	153	4
95	97	3
190	190	4
247	247	5
61	62	3
48	59	2
72	72	2
208	208	1
191	191	8
48	50	4
239	239	2
114	115	4
244	248	3
93	93	2
70	70	1
223	224	2
92	92	4
120	120	3
72	73	2
101	101	4
248	248	6
176	177	3
186	221	2
168	186	2
184	184	2
87	87	5
150	150	8
118	119	3
226	229	2
25	26	3
58	61	1
211	212	1
5	62	1
155	155	6
89	107	1
188	214	1
14	30	4
156	156	11
45	46	2
167	167	6
199	200	3
218	232	2
96	102	3
215	237	2
235	235	4
12	56	2
113	113	3
214	214	3
201	212	1
96	101	1
238	240	1
5	77	2
24	24	3
172	190	2
85	85	5
99	102	1
50	63	3
113	117	3
183	183	4
242	243	1
87	89	2
175	181	3
9	44	1
169	169	3
97	103	2
145	147	3
229	235	1
244	245	4
225	225	4
109	115	2
188	235	1
22	22	4
84	84	1
153	203	1
231	231	3
180	193	4
152	157	1
100	102	2
216	223	5
71	71	4
189	192	4
77	79	2
232	233	2
1	2	1
195	214	2
73	73	1
204	204	3
17	17	2
240	240	2
213	213	7
209	210	4
69	69	3
152	156	2
57	57	1
228	229	1
63	110	1
65	65	2
153	183	1
227	229	1
21	21	6
202	203	2
65	68	1
186	188	2
43	43	6
76	76	2
106	106	2
35	46	1
202	229	1
37	37	5
226	227	3
170	171	1
228	228	2
163	163	1
201	201	4
69	71	2
77	77	3
195	195	1
81	87	2
158	175	1
80	81	1
172	189	1
157	158	2
208	212	3
169	170	3
222	222	1
27	27	1
246	248	1
53	53	3
11	52	2
85	161	1
9	9	2
178	180	1
39	39	4
219	219	2
174	174	5
38	38	1
198	199	2
3	3	1
44	51	2
26	234	1
35	35	1
104	105	1
34	49	3
181	182	1
75	75	1
38	53	6
88	89	1
233	234	1
233	233	5
46	46	2
71	73	1
176	176	3
42	43	1
212	212	1
232	238	1
86	151	1
177	192	1
56	56	3
160	184	2
208	209	2
4	5	1
170	185	1
199	199	1
154	155	3
210	211	2
188	188	3
22	23	2
100	175	1
211	215	1
163	199	1
60	60	6
243	244	1
36	36	3
152	158	1
226	226	3
211	242	1
191	197	1
241	241	2
28	28	3
165	181	1
172	172	1
67	67	3
83	85	2
165	174	2
178	178	2
180	185	2
70	71	1
59	59	2
112	113	3
145	151	1
167	180	2
207	207	5
240	241	2
230	230	1
216	216	2
179	179	1
157	157	1
101	102	4
37	40	1
245	245	1
187	237	2
66	71	2
165	178	1
75	77	4
57	58	1
161	198	1
6	62	1
151	151	3
52	52	1
109	109	1
59	63	1
188	196	1
202	224	4
72	103	1
50	50	2
3	80	3
4	14	1
107	108	1
89	90	2
195	196	1
147	147	1
159	165	1
194	195	1
237	246	2
54	55	3
146	180	2
51	51	2
161	162	1
18	18	2
192	195	1
186	192	1
24	25	1
182	185	1
166	166	2
64	66	1
58	59	1
76	77	1
241	247	2
31	34	1
8	9	1
192	192	1
222	229	1
16	23	1
241	242	1
186	186	3
94	226	2
88	98	1
206	206	2
153	156	1
243	243	1
78	221	1
200	203	1
159	196	1
155	205	2
102	107	2
105	146	1
83	84	2
116	116	1
70	93	1
229	230	1
192	193	1
184	193	1
215	216	1
48	110	1
26	26	2
184	237	1
113	115	2
110	115	1
2	15	1
55	68	1
102	106	2
16	55	1
64	220	1
4	30	1
177	179	1
196	214	2
12	12	1
5	13	1
108	108	1
31	31	1
52	180	1
71	75	1
185	186	1
230	240	1
180	198	1
54	54	1
60	63	2
215	215	1
78	169	1
83	83	1
225	231	1
114	114	1
67	80	1
99	100	1
167	208	1
3	161	1
31	219	1
25	25	1
193	216	1
