38	107	2
138	138	4
3	3	4
126	126	9
81	81	8
26	26	8
111	111	7
36	36	5
135	135	8
100	126	3
24	24	5
31	31	10
7	7	10
90	90	1
93	93	14
95	95	8
74	74	3
118	118	10
37	37	5
131	131	6
104	141	1
104	105	6
27	27	7
135	136	6
121	121	7
18	19	2
13	19	1
96	128	3
134	134	7
125	125	10
35	35	8
80	117	3
121	122	6
18	18	7
133	133	2
129	129	11
77	111	3
139	139	6
88	92	2
32	32	8
124	124	5
3	4	5
119	120	2
2	2	4
83	83	9
11	11	3
133	134	2
105	111	4
78	78	3
123	123	5
38	38	5
136	136	11
88	88	9
127	127	4
5	5	8
35	36	1
19	20	2
105	105	13
77	87	1
30	32	2
109	110	2
91	113	1
23	23	4
92	93	3
0	1	4
122	122	10
134	135	4
126	127	5
89	89	10
7	12	3
137	138	3
101	101	4
93	104	3
130	130	7
96	96	6
114	114	8
74	77	6
106	106	4
118	119	2
15	16	1
95	98	1
27	34	4
110	110	6
11	14	2
136	140	7
28	28	3
104	104	4
99	99	4
123	127	2
113	113	5
85	85	1
104	106	5
10	10	3
4	5	3
112	135	2
7	8	3
107	108	5
29	29	1
116	116	2
17	17	6
100	100	4
77	77	2
111	112	5
81	122	1
2	6	2
13	14	5
124	125	3
94	94	3
85	86	1
20	20	3
76	86	5
3	5	1
16	16	3
4	4	4
28	29	2
22	25	3
10	12	1
120	120	6
102	103	5
115	134	1
84	84	5
112	112	5
90	115	3
76	80	3
125	126	1
104	113	1
98	98	7
85	87	1
132	132	9
77	109	1
25	25	2
119	119	4
128	128	10
90	91	2
22	24	1
79	79	2
109	109	5
93	94	1
76	77	2
16	17	1
97	110	4
24	25	1
87	87	2
87	88	1
81	83	3
80	81	3
105	122	1
105	116	1
101	102	11
98	124	1
94	105	4
86	86	4
92	135	2
7	10	1
76	76	3
7	23	2
72	72	1
88	89	1
91	110	1
124	127	1
0	0	3
79	113	1
91	91	4
74	75	2
7	9	3
98	125	1
82	82	5
22	23	5
108	109	1
26	28	5
8	10	2
107	112	2
10	11	2
93	105	3
115	120	2
132	133	1
71	71	1
1	1	3
79	94	2
82	83	1
14	14	2
75	75	4
8	9	2
22	22	3
115	115	3
130	131	2
73	73	1
102	127	2
79	106	2
12	23	1
78	92	3
33	33	4
118	122	1
126	134	1
117	117	1
103	104	2
139	140	3
30	30	2
99	130	2
76	87	3
15	15	2
130	137	1
95	96	2
72	87	2
7	24	1
97	97	2
130	139	1
95	99	1
112	113	1
137	137	3
128	129	2
6	6	3
88	112	2
91	115	1
79	80	2
81	106	2
115	117	1
102	102	4
27	93	3
118	120	2
108	126	2
77	78	1
27	130	1
123	124	1
72	112	3
79	82	2
25	75	1
98	132	1
81	82	1
26	32	1
12	73	2
21	77	2
101	117	1
82	108	1
87	90	1
140	140	1
108	108	1
78	115	1
106	109	1
6	17	1
109	111	2
77	80	1
105	110	1
92	92	1
75	76	1
84	92	2
127	128	1
79	81	1
126	129	1
