56	101	2
68	68	18
99	100	2
38	38	23
73	73	8
47	48	4
39	39	8
93	93	9
86	88	5
63	68	7
66	67	9
41	41	13
81	81	21
85	85	12
94	94	9
27	27	4
31	58	2
57	80	4
31	31	8
47	73	1
81	88	1
43	43	13
43	64	6
90	90	9
90	99	3
40	40	6
25	26	8
24	25	2
78	78	6
46	54	1
37	37	9
54	54	29
67	67	22
51	51	17
69	70	2
22	22	4
42	42	23
71	71	5
30	35	1
35	35	14
87	88	5
92	92	7
83	87	2
98	98	7
33	91	2
87	89	4
66	66	10
43	44	8
86	86	4
26	27	7
49	49	11
57	57	8
53	53	17
57	61	3
83	85	2
49	50	5
97	99	5
46	47	4
56	56	8
86	100	3
67	68	6
48	49	3
20	20	9
69	69	13
26	94	3
58	59	4
79	79	8
45	45	11
75	75	12
83	84	2
58	58	11
51	56	2
78	79	3
55	95	3
36	39	1
33	33	14
64	64	12
20	96	4
51	52	1
84	89	3
47	47	9
59	59	11
80	81	8
46	46	17
65	66	4
82	85	1
32	32	4
100	101	1
32	33	5
60	60	5
52	53	5
61	61	12
82	82	5
26	26	8
76	77	9
52	52	7
74	76	2
28	28	3
36	38	3
91	91	12
80	80	16
100	100	7
78	86	1
89	102	3
99	99	6
51	55	6
96	97	7
62	70	1
82	84	4
101	101	6
59	80	1
48	50	4
45	46	5
49	100	3
90	91	2
62	83	2
88	88	6
83	83	9
97	98	3
55	56	10
74	74	16
72	72	5
91	93	3
89	89	9
52	58	3
70	70	16
35	102	1
65	68	5
52	81	1
24	27	2
95	98	3
48	48	20
59	78	6
56	57	4
34	34	8
80	86	2
45	100	2
63	63	7
53	55	2
34	35	2
25	25	8
73	74	4
92	94	5
44	45	1
41	42	3
56	89	1
31	33	1
23	23	2
63	73	4
94	98	4
81	82	7
29	30	4
54	55	7
50	50	5
82	87	1
81	98	2
59	75	3
63	74	2
42	43	5
98	100	1
97	97	10
29	91	2
23	29	2
50	56	1
30	30	2
46	48	5
37	79	3
35	89	1
59	64	5
29	92	1
33	58	3
33	60	3
65	65	3
58	72	1
68	69	5
44	44	3
87	94	2
77	77	6
29	93	1
57	59	1
37	38	3
83	88	3
24	24	4
77	78	2
95	97	2
59	61	1
96	100	3
62	62	2
76	76	13
96	96	3
39	40	3
93	100	1
55	86	1
25	29	1
51	81	1
38	39	3
45	50	2
41	43	3
86	89	1
35	37	1
22	24	1
61	62	2
58	75	1
33	34	1
75	76	1
23	27	2
90	102	1
72	73	1
44	90	2
77	85	1
60	80	1
58	60	2
34	38	2
59	60	5
60	61	1
82	97	2
89	99	2
29	90	1
92	93	3
35	36	1
87	87	1
55	55	3
81	100	4
49	54	1
59	68	1
49	95	2
36	37	1
80	95	1
63	66	2
95	96	1
86	87	1
62	82	1
72	74	2
22	95	2
62	65	1
95	100	1
84	88	2
84	84	2
36	36	1
99	101	2
83	86	3
79	80	3
70	76	1
71	72	1
52	92	2
91	98	1
93	98	2
89	91	1
92	98	1
102	102	3
88	95	2
95	95	2
34	48	1
64	69	1
40	41	1
96	98	1
46	95	1
95	101	1
89	90	1
