27	27	13
78	79	6
115	115	5
34	34	13
110	110	4
32	32	13
94	94	7
76	76	4
17	18	9
117	117	22
132	132	16
140	140	29
28	28	15
4	4	12
14	15	5
21	26	1
124	124	34
139	139	14
112	113	3
94	103	7
12	37	2
90	90	15
81	84	3
120	122	4
29	29	16
28	29	5
21	22	9
6	6	7
81	82	8
131	132	9
11	37	5
120	120	3
103	103	12
78	122	3
20	80	2
110	111	5
119	121	3
104	107	1
7	7	7
126	126	18
103	104	8
89	89	18
8	11	2
72	72	7
117	118	2
83	84	4
131	131	26
37	37	6
76	77	8
97	131	8
23	26	1
34	35	11
96	96	15
124	126	3
133	133	22
108	109	2
113	113	13
5	5	12
0	0	11
125	125	13
114	115	12
119	123	3
74	76	2
81	83	6
116	116	12
120	121	6
93	93	9
98	129	1
74	74	8
128	128	26
130	131	9
73	76	3
26	26	4
22	23	8
122	122	19
21	21	21
4	5	2
101	101	15
8	8	13
108	110	3
100	100	25
130	130	24
93	103	7
138	138	14
82	87	5
136	136	13
93	118	3
111	112	4
95	95	7
71	72	1
33	33	7
32	33	4
115	116	6
9	9	5
114	114	8
97	97	14
98	98	10
92	92	8
138	139	6
13	37	6
97	98	5
37	38	4
118	119	10
102	102	10
15	27	2
119	119	4
134	134	26
13	13	8
22	22	11
88	89	6
76	78	2
3	4	10
129	129	22
133	134	3
19	80	2
127	127	21
127	128	3
10	10	9
108	108	9
123	123	22
27	29	2
135	135	18
81	88	2
77	79	2
85	85	11
111	111	21
20	20	5
5	31	1
104	106	17
134	136	4
75	75	6
31	32	2
95	96	5
112	112	12
29	30	5
72	73	5
12	12	1
77	85	2
3	3	5
73	73	7
20	21	5
36	36	10
7	10	2
106	106	7
18	24	1
99	99	6
35	35	22
138	140	3
24	24	5
128	129	4
123	124	9
35	36	2
105	108	1
132	133	4
122	123	5
81	86	1
21	36	2
73	74	4
137	137	20
105	105	8
124	125	2
7	8	2
94	95	5
33	34	11
121	122	16
91	92	10
95	103	1
25	25	5
30	114	6
17	17	11
19	20	6
18	18	10
105	107	2
31	31	5
2	4	3
105	120	2
77	77	6
139	140	10
19	22	3
18	28	2
116	117	1
118	118	12
75	76	2
19	19	4
93	101	2
86	86	2
90	94	1
26	74	2
80	80	4
106	107	7
135	138	4
126	127	2
23	23	8
13	14	3
91	91	11
91	120	3
87	87	8
15	17	2
18	19	3
5	108	2
86	88	2
13	38	5
11	11	7
113	114	3
119	120	2
79	79	4
25	28	1
6	7	3
14	14	2
38	38	3
84	85	3
29	32	2
73	77	2
107	107	1
109	109	6
83	85	2
71	78	2
93	94	6
129	130	7
102	104	2
84	84	2
117	119	4
28	30	5
21	37	2
96	129	2
19	21	2
37	75	1
109	112	5
81	81	2
90	91	4
27	38	1
121	121	1
7	9	4
127	129	2
114	117	3
94	112	1
109	110	1
36	139	3
1	1	10
129	133	2
94	102	2
79	82	1
92	93	2
74	75	7
36	37	2
98	99	4
1	2	2
9	23	4
13	15	1
112	114	1
2	2	5
129	132	1
23	24	3
111	115	2
2	37	2
30	30	1
88	88	3
2	3	1
34	36	2
101	102	3
77	82	2
107	108	1
28	91	2
5	6	2
80	81	1
10	12	2
30	32	1
36	86	1
81	113	1
26	27	2
29	91	1
101	111	2
82	85	2
3	7	1
125	126	2
31	109	3
89	111	2
16	16	1
30	31	1
5	30	1
89	90	2
100	101	2
25	26	1
123	128	1
113	117	1
30	33	1
96	131	2
102	103	1
75	88	1
82	82	2
78	84	2
91	114	1
123	129	1
94	104	1
77	84	1
9	24	1
136	137	1
108	121	1
134	135	1
91	93	1
89	92	2
93	119	1
37	74	1
131	139	1
137	138	1
28	31	1
27	28	1
99	100	1
16	28	1
36	134	1
13	17	1
115	125	1
76	84	1
96	128	1
