113	113	4
79	79	10
80	80	5
110	110	2
50	51	4
115	115	5
107	108	3
120	120	3
78	78	7
14	15	2
29	29	6
102	103	5
62	62	3
89	89	3
108	108	4
45	53	3
77	78	5
77	77	4
107	116	5
71	71	9
66	67	5
70	70	5
55	56	1
107	107	8
121	121	5
112	115	3
85	85	19
55	58	2
12	34	3
57	57	2
44	54	3
7	7	6
9	10	4
66	84	2
1	1	4
55	69	2
66	69	1
49	50	1
31	31	3
119	123	1
60	65	1
99	99	2
61	61	6
96	107	3
96	106	4
122	130	1
92	93	6
34	91	3
23	24	4
52	98	3
72	72	2
73	74	1
107	110	3
119	119	7
32	33	8
72	105	4
83	84	3
76	129	1
121	126	5
56	59	1
9	24	4
33	33	1
131	131	5
54	55	7
114	114	7
48	61	3
49	49	6
52	52	5
20	24	4
76	79	2
71	72	2
131	133	5
16	17	2
64	64	3
30	30	5
125	125	11
87	100	2
96	104	2
4	4	4
134	134	3
90	90	3
44	113	3
118	118	2
129	129	2
63	69	2
93	101	1
102	102	1
55	55	2
46	106	2
15	15	1
96	96	10
91	91	4
52	67	2
48	48	2
56	57	7
55	98	3
123	123	4
93	93	5
38	119	2
69	75	1
123	124	1
36	36	4
50	109	3
46	46	1
2	2	3
33	36	2
104	104	1
59	59	1
29	30	3
32	32	5
45	106	2
95	96	1
68	69	3
50	50	2
94	94	5
33	34	2
3	90	2
24	24	6
6	7	2
38	38	1
47	47	2
62	63	1
122	129	1
44	44	2
37	38	3
61	62	2
75	75	4
64	65	2
92	92	3
2	3	1
22	23	3
98	98	3
109	116	2
21	23	2
66	66	3
117	118	5
130	130	1
86	86	2
73	73	2
65	68	2
130	131	1
122	122	1
109	109	3
35	35	6
58	58	1
54	54	4
85	86	1
63	63	2
16	119	4
98	99	1
34	34	2
37	91	1
3	3	1
23	23	2
3	4	3
78	79	2
5	5	3
91	92	2
88	88	2
111	135	1
118	120	1
52	72	1
69	116	1
133	133	1
33	37	2
126	126	1
100	100	3
43	100	1
91	93	1
55	99	2
84	87	1
59	97	1
13	20	1
50	108	1
63	114	1
28	29	1
16	16	1
51	51	1
59	69	1
121	124	1
87	87	1
120	121	4
101	101	1
38	45	1
13	13	2
117	120	1
128	128	1
132	132	4
116	116	3
128	129	1
14	16	2
32	34	1
69	69	1
22	22	1
76	76	1
90	91	1
97	97	2
14	14	1
44	108	1
16	118	1
61	96	1
123	129	1
111	111	1
76	102	2
117	117	1
48	50	1
12	23	1
91	96	2
83	100	1
68	68	1
77	130	1
14	27	1
65	65	1
100	101	1
127	127	1
