111	116	1
120	120	11
121	121	6
2	2	10
53	56	2
142	142	8
134	134	12
89	89	11
79	84	5
67	67	8
99	99	14
89	90	2
145	145	10
127	134	4
132	133	7
115	115	6
143	143	10
67	68	9
70	71	5
132	136	2
72	72	8
105	105	7
91	91	9
103	135	4
88	88	8
127	130	7
50	52	7
142	143	7
132	132	7
25	76	6
130	131	3
84	84	2
70	135	2
144	145	2
104	110	1
113	116	3
113	114	13
92	94	5
144	144	17
138	138	13
8	8	10
49	49	8
124	127	4
30	37	4
97	97	5
8	101	2
133	135	2
27	27	14
28	28	10
116	116	6
62	62	7
5	5	8
83	95	6
117	132	2
112	118	3
58	58	9
122	131	3
131	131	7
135	137	3
0	4	3
120	124	2
66	66	11
123	124	9
31	31	6
68	77	2
102	102	7
69	70	3
30	30	9
99	134	8
28	108	1
136	140	4
137	137	11
134	138	2
12	13	1
28	30	2
119	119	4
53	54	8
50	50	7
77	79	3
117	138	5
23	23	6
135	135	20
96	96	11
53	58	1
129	129	8
34	34	4
130	130	9
110	110	7
4	21	3
74	74	4
92	92	10
104	105	2
113	115	4
112	113	8
25	26	8
72	73	7
65	66	3
69	69	3
118	119	5
139	139	6
108	113	2
19	22	2
126	126	21
50	51	4
78	82	2
94	109	5
29	29	10
143	144	4
140	140	7
82	94	3
25	25	9
38	38	6
6	6	7
76	77	7
14	41	3
75	75	8
107	107	6
140	144	2
112	112	1
64	64	14
20	20	15
54	55	6
77	77	3
13	13	9
48	52	4
67	70	2
32	32	13
86	122	1
24	24	6
55	58	4
114	115	4
19	19	12
103	103	4
118	118	13
121	123	1
83	83	1
3	6	3
136	139	2
66	67	8
68	69	2
125	125	3
85	85	4
35	39	3
58	63	1
97	116	3
107	110	3
121	122	3
67	77	1
98	98	1
137	140	4
74	81	2
29	32	3
89	104	2
15	15	4
101	101	8
59	59	9
141	141	13
93	96	2
82	82	3
80	81	4
61	62	3
122	122	4
9	19	2
68	68	4
13	25	2
33	33	8
89	93	2
98	99	1
1	1	6
65	65	9
71	71	4
9	9	3
102	104	3
125	131	1
33	57	2
10	11	3
71	73	2
9	12	3
121	135	2
91	121	4
127	127	8
49	51	1
91	104	1
133	133	10
104	139	6
27	28	1
8	13	8
81	81	10
47	47	12
130	133	4
126	129	1
20	21	3
78	79	1
111	111	6
56	56	5
37	38	7
19	21	4
128	129	1
109	110	4
8	9	3
123	127	3
40	40	7
68	76	7
103	104	4
73	115	1
93	94	6
54	89	2
90	119	7
2	4	2
49	50	2
138	139	2
124	124	8
120	121	3
127	128	1
128	128	7
63	63	1
125	128	2
75	83	3
14	40	3
69	116	1
123	140	1
34	64	1
13	24	2
4	4	4
62	140	5
55	55	3
32	90	1
110	117	1
9	10	5
109	109	7
50	69	4
36	38	1
60	60	2
119	120	9
26	26	10
110	112	1
6	10	1
73	86	1
141	144	2
5	10	1
134	137	1
58	106	2
136	136	2
84	122	2
75	79	3
122	123	9
70	72	4
3	34	1
115	116	2
51	69	2
136	138	2
104	108	3
114	117	1
106	106	3
41	41	5
114	116	8
125	126	3
21	27	2
74	92	2
21	21	4
76	78	6
53	53	6
13	20	3
137	139	3
132	143	2
73	73	7
23	24	3
129	130	2
104	104	7
67	75	2
70	133	1
136	143	2
0	10	7
121	132	2
91	96	2
111	135	4
18	19	6
39	40	3
18	20	7
11	18	2
21	26	1
35	65	2
107	108	8
88	90	1
137	138	4
67	72	5
1	2	3
93	95	2
135	136	1
74	75	3
54	54	2
106	110	1
24	25	7
57	58	1
105	106	3
80	108	2
61	65	5
78	78	3
17	17	4
79	79	5
37	37	3
100	100	5
132	137	1
102	103	3
92	99	3
22	22	8
35	35	5
18	39	2
30	31	1
48	48	5
128	131	1
47	48	4
36	47	1
139	140	3
37	42	2
94	96	4
124	125	3
119	135	2
3	4	2
40	41	8
38	40	2
90	91	1
30	110	1
82	120	2
146	146	2
10	10	5
121	139	4
16	16	4
52	52	1
131	134	2
87	125	1
60	61	2
12	15	2
108	108	4
27	94	1
59	66	2
0	0	4
117	143	4
76	81	1
76	79	1
64	134	2
70	120	1
118	137	1
124	130	4
31	33	1
83	105	1
87	90	1
42	42	2
132	135	1
126	127	2
69	76	1
3	3	1
131	133	3
42	43	3
133	137	2
2	3	2
66	69	3
12	16	1
101	103	2
11	11	10
16	20	1
73	110	2
4	13	2
82	92	4
32	36	3
111	112	5
50	53	1
88	118	2
71	134	3
124	131	2
61	61	2
108	121	2
80	116	1
13	16	1
30	38	1
86	104	1
81	84	1
2	26	1
83	84	1
132	134	1
125	127	4
98	103	1
95	102	3
92	121	1
95	96	1
14	16	1
68	73	1
14	15	1
22	23	1
0	3	1
98	116	4
58	59	2
41	43	1
94	94	2
31	32	2
90	90	1
136	137	2
99	103	1
57	57	2
9	41	1
117	117	1
62	131	1
85	122	1
36	40	2
84	108	1
65	67	1
93	97	1
55	89	1
31	51	1
73	85	2
62	70	2
35	36	1
105	132	1
36	58	1
70	138	2
56	57	1
27	32	1
13	14	1
141	142	1
51	52	2
116	117	1
0	1	1
133	134	1
102	123	1
106	121	2
131	132	1
89	101	1
12	38	1
96	98	1
91	98	2
99	100	1
122	136	2
133	138	1
3	10	2
115	117	1
122	128	1
73	74	2
33	61	1
65	71	1
67	71	1
133	140	1
17	18	1
36	37	1
102	134	1
93	93	3
11	39	1
87	102	1
111	117	1
21	38	1
97	106	1
62	139	1
5	6	1
36	36	1
92	98	2
4	5	1
51	51	1
2	34	1
21	22	1
59	60	1
141	143	2
134	135	1
129	132	1
71	72	1
3	24	2
11	21	1
37	62	1
