82	93	5
99	99	24
142	143	6
37	37	26
87	91	2
135	136	8
15	15	12
25	32	4
128	129	16
19	23	5
102	102	36
78	78	4
117	117	21
35	35	20
87	90	3
95	95	29
2	2	25
38	38	31
21	21	28
131	131	35
60	60	9
90	91	4
98	98	25
22	22	27
111	112	6
54	54	20
74	74	18
124	124	41
127	130	2
29	29	42
63	63	8
128	128	30
80	80	27
87	88	4
89	92	3
3	4	10
68	68	15
35	65	1
82	82	13
118	120	6
55	86	3
112	112	16
64	65	10
28	28	28
84	84	7
126	127	7
100	100	26
24	24	16
4	5	8
132	139	3
131	134	3
126	126	43
111	111	9
49	49	25
0	35	4
36	36	9
125	125	25
10	14	3
52	52	6
102	141	3
115	115	11
104	105	7
143	143	22
91	94	2
27	52	3
14	14	21
123	124	11
100	101	7
127	137	3
55	55	29
33	33	8
0	0	5
129	129	35
101	101	38
96	96	17
130	132	6
139	139	26
16	16	25
12	12	5
88	89	13
119	119	25
34	34	4
107	107	7
134	141	5
58	59	7
140	141	10
59	126	2
17	17	25
136	136	24
27	28	12
20	20	20
96	98	2
108	109	8
108	108	7
39	51	5
124	125	11
141	142	18
120	120	40
56	58	4
103	128	4
82	91	3
13	14	2
32	32	14
122	123	17
9	9	17
19	22	5
66	66	18
33	55	3
77	78	2
50	51	5
109	109	9
142	142	35
40	40	26
19	19	38
131	132	10
77	77	14
30	30	17
80	81	7
103	103	31
136	137	14
47	48	5
72	72	6
101	102	15
62	62	12
135	135	18
144	144	34
8	8	14
3	14	4
76	77	4
110	110	14
39	39	34
107	139	2
52	53	1
77	81	1
54	55	3
41	41	23
74	81	2
12	21	3
109	110	8
42	43	6
47	47	16
140	140	24
101	107	3
92	92	11
95	96	6
136	139	8
4	4	9
141	141	42
70	70	11
71	71	13
118	119	14
59	62	6
89	89	12
61	61	22
90	90	15
127	127	19
71	76	8
23	23	28
119	120	21
93	93	19
105	105	5
42	48	3
85	85	8
11	124	5
134	134	25
67	67	27
69	70	4
103	117	4
87	87	7
133	136	4
51	51	14
35	36	12
138	138	18
114	115	10
59	60	15
113	113	22
106	108	4
31	31	13
73	73	7
94	94	14
41	42	8
106	107	1
98	119	1
137	137	10
88	88	9
133	134	19
104	104	5
64	64	6
37	66	1
133	135	3
91	92	2
58	66	5
117	118	11
42	128	1
121	123	6
18	18	26
34	36	2
53	53	25
39	95	4
65	65	9
62	63	14
106	110	1
110	111	4
20	117	2
3	3	8
26	26	22
145	145	14
25	25	13
75	75	12
77	79	2
78	85	1
1	1	9
121	121	22
67	68	5
91	91	14
114	116	4
81	126	2
98	118	4
92	94	3
123	123	28
57	57	6
23	24	7
84	85	15
102	103	13
43	48	2
132	132	9
26	27	1
82	83	4
127	129	18
22	23	8
3	5	2
90	95	2
35	48	3
118	118	29
55	62	1
69	75	2
58	62	5
42	42	27
49	50	6
57	58	12
118	135	3
124	131	3
74	75	15
78	82	1
122	122	8
8	9	4
82	85	5
55	64	2
5	5	4
106	106	25
119	135	1
133	137	2
1	6	1
103	104	7
133	133	25
27	27	18
67	87	2
25	26	9
13	15	2
55	56	8
5	9	5
59	59	10
6	38	2
80	110	2
39	40	13
15	16	3
13	37	1
117	141	2
137	138	12
81	81	27
125	126	8
31	32	8
95	99	5
63	66	10
78	79	3
13	38	1
143	144	2
83	83	19
59	61	6
115	116	11
117	128	1
19	21	4
129	132	1
120	125	2
99	100	7
126	135	2
126	130	3
8	21	1
33	34	8
129	130	12
16	23	7
89	91	2
130	130	33
18	19	2
30	55	2
113	114	5
96	107	6
78	81	2
94	103	2
109	117	4
79	84	3
13	13	13
58	58	15
34	59	2
27	100	3
104	108	4
15	24	3
73	81	1
29	77	3
30	40	2
15	22	2
112	114	2
88	90	1
126	129	8
10	10	3
80	99	2
6	11	6
79	93	4
31	34	5
61	66	2
58	64	4
116	117	2
115	142	6
12	15	1
89	90	3
32	36	2
0	40	2
97	98	13
73	76	1
60	64	2
65	66	3
69	69	3
107	109	3
86	86	7
94	110	5
50	52	2
135	139	4
144	145	4
20	21	13
94	117	3
112	134	1
131	135	2
119	131	4
56	56	8
18	24	3
111	134	2
18	29	3
4	40	3
62	76	2
61	62	3
83	84	6
69	71	5
140	143	1
50	87	7
79	79	7
48	48	9
23	35	4
47	85	3
1	35	6
34	73	3
37	38	1
128	131	7
28	29	12
134	135	14
131	133	2
46	46	5
52	56	2
69	76	2
24	25	3
103	105	2
20	24	1
53	64	1
116	116	9
86	104	1
5	16	5
138	143	3
48	54	2
14	15	2
132	135	3
68	69	4
135	137	2
34	35	1
6	6	9
4	65	1
122	134	1
85	104	2
93	94	2
39	41	1
18	22	4
43	43	4
96	114	2
0	2	3
43	55	3
56	85	1
110	112	4
73	75	2
50	50	5
57	65	3
87	89	1
123	125	1
74	124	3
140	142	1
98	99	1
96	97	8
7	11	2
104	107	2
65	68	1
28	30	2
94	95	3
1	20	1
40	42	2
5	10	1
137	139	1
12	37	3
100	102	3
42	101	2
57	59	3
145	146	5
76	76	4
131	140	1
130	131	5
95	109	2
11	11	10
58	60	1
77	100	1
117	126	1
104	116	1
75	77	2
9	17	2
30	34	1
136	138	2
103	110	2
23	122	3
50	63	2
84	122	1
124	141	1
83	123	3
97	97	6
29	30	7
10	11	1
27	142	2
30	31	2
38	39	3
0	1	2
119	134	1
10	12	1
114	120	3
20	125	1
11	12	4
6	28	4
36	37	3
98	110	1
33	36	3
102	125	2
11	125	3
24	26	1
93	103	1
31	52	2
68	70	1
43	47	2
138	142	1
139	140	1
56	76	2
9	39	2
132	133	7
39	52	1
102	104	5
16	17	2
47	50	3
116	118	1
125	127	5
11	16	2
113	117	1
19	20	2
1	2	2
1	55	2
2	39	1
138	139	8
71	72	4
73	79	2
130	133	2
54	96	1
53	54	2
77	83	1
17	18	1
32	37	1
76	78	1
146	146	2
22	33	1
4	6	2
18	23	2
73	74	2
37	67	2
66	67	3
47	49	1
79	80	3
67	70	3
27	120	3
14	21	2
77	85	3
58	68	1
2	4	3
119	123	2
9	11	4
20	22	1
70	71	2
75	76	2
2	12	1
142	144	1
26	63	2
37	49	3
32	43	1
11	17	2
32	42	2
98	107	2
32	33	2
16	79	2
10	33	1
13	39	1
54	69	3
112	113	2
114	117	1
123	131	1
111	135	2
127	128	3
8	17	1
109	112	2
114	114	1
0	64	1
27	37	1
4	14	1
67	80	1
17	19	1
115	141	1
41	101	1
48	49	1
107	108	1
51	52	1
99	106	2
55	96	1
91	103	2
17	24	2
137	143	1
117	138	1
103	108	2
120	131	1
2	3	1
127	136	1
133	141	1
128	130	2
9	18	1
29	55	1
113	119	1
122	133	1
58	63	1
119	121	1
122	124	1
27	112	1
28	52	1
39	49	1
59	64	2
15	17	1
119	125	1
21	22	1
115	117	1
15	18	1
104	106	1
10	39	1
70	72	1
29	128	1
57	62	1
63	82	1
67	72	1
74	101	1
