81	81	9
112	112	4
135	142	2
140	140	8
172	172	5
94	94	9
141	141	8
102	102	6
136	136	6
33	41	3
40	41	1
61	61	25
106	106	13
153	153	4
8	8	3
9	9	8
56	59	6
13	13	11
92	92	2
18	23	1
2	2	5
22	22	10
37	37	13
178	179	1
12	13	6
82	82	11
159	159	4
81	83	2
123	124	8
24	104	3
87	150	2
110	127	1
155	174	4
1	1	7
38	38	16
34	34	7
127	127	3
171	174	4
5	6	5
51	51	6
134	151	5
118	137	2
171	171	10
156	178	1
59	61	3
86	87	6
43	44	2
28	28	27
58	60	3
49	49	3
21	31	5
22	24	4
5	8	2
42	42	12
72	72	8
18	25	2
115	115	3
31	31	13
95	95	5
2	5	1
165	165	6
91	118	6
62	99	4
163	163	13
129	129	4
55	57	1
98	98	4
35	35	7
116	151	1
38	61	4
173	173	9
124	124	14
71	72	3
41	41	6
144	144	10
20	21	3
39	39	8
5	10	3
116	127	1
55	56	8
164	168	1
4	4	4
149	149	8
126	126	5
38	60	1
9	13	3
61	78	4
45	45	4
27	27	6
28	29	4
150	150	4
84	85	2
162	162	1
91	91	13
99	99	3
67	67	4
0	1	3
150	167	2
143	145	3
128	129	3
103	104	3
133	133	3
151	151	5
135	136	1
33	33	7
57	57	6
114	114	6
164	166	4
1	4	3
175	177	3
87	87	5
63	63	2
25	25	6
153	160	4
82	124	2
29	29	11
130	150	2
53	54	6
43	43	3
24	25	11
83	83	1
176	176	5
154	154	6
55	55	6
19	19	9
10	10	10
154	156	5
90	91	5
29	31	2
14	14	12
147	147	6
91	92	3
15	16	4
94	95	2
134	134	4
180	180	5
58	75	3
0	0	14
52	52	8
60	60	6
173	179	1
129	130	4
8	12	4
36	36	9
39	40	3
132	132	5
146	146	2
13	67	1
20	22	3
89	89	4
54	79	1
93	93	9
71	71	4
19	20	7
151	160	1
136	146	4
121	122	3
104	104	7
82	109	4
112	114	1
51	53	3
178	178	1
104	106	3
110	111	1
9	16	1
168	168	2
50	51	5
40	54	2
77	81	1
8	11	2
10	16	2
138	138	16
20	20	2
169	169	2
3	20	6
22	23	3
56	56	6
139	139	2
78	79	9
52	64	7
63	64	2
12	12	6
76	76	7
18	22	10
21	21	6
111	111	2
93	94	5
4	7	3
67	101	1
9	10	2
13	16	5
143	143	3
97	97	1
152	155	2
150	155	2
179	179	3
161	161	2
32	32	7
122	122	1
141	142	2
6	6	11
68	179	1
30	30	11
163	166	1
12	20	4
135	145	1
160	162	3
145	145	7
85	89	5
15	15	4
167	167	13
2	4	2
125	147	1
26	26	6
96	96	4
123	123	4
97	98	1
3	4	3
161	162	3
83	113	1
160	160	5
73	74	9
148	148	7
11	11	6
103	103	2
109	109	7
64	65	3
16	16	8
84	84	2
104	107	4
152	152	6
17	60	1
12	15	1
28	104	2
105	111	1
156	156	4
108	109	2
13	14	1
80	80	2
159	168	1
62	64	1
125	125	2
59	59	4
79	80	2
10	11	3
167	171	1
14	21	4
126	129	3
70	70	1
145	146	11
2	18	1
142	142	7
9	15	3
24	24	10
111	128	8
2	3	3
105	105	2
107	107	4
93	108	2
10	17	3
36	40	4
108	108	1
18	18	4
79	79	3
37	40	1
83	118	2
158	159	1
21	37	1
100	100	3
158	161	1
81	148	1
177	177	4
44	44	3
40	40	4
62	62	5
79	107	3
85	86	1
92	93	2
117	165	1
52	53	4
14	23	1
6	15	1
33	35	2
50	50	7
35	36	2
29	30	5
91	108	4
157	157	10
83	86	1
5	5	5
23	24	4
24	31	1
146	166	1
10	15	1
73	73	5
175	175	2
90	90	6
45	111	3
80	142	1
30	31	6
147	151	2
29	36	1
73	78	2
59	79	2
120	120	6
104	122	2
7	9	3
66	66	1
107	108	2
87	88	1
7	20	2
97	106	2
25	26	2
101	107	3
166	167	2
104	105	1
86	88	5
14	35	1
128	128	2
10	21	2
98	99	3
8	10	3
151	152	2
2	16	1
27	28	2
166	166	1
135	135	7
44	118	3
9	33	5
130	130	7
32	33	2
105	147	2
70	95	2
40	42	2
68	103	1
34	35	2
6	18	2
1	10	2
36	37	2
170	170	3
79	109	1
8	151	2
139	141	1
81	82	3
167	169	1
102	104	3
118	129	2
5	14	1
97	99	2
3	22	1
88	88	1
11	37	1
117	117	1
5	18	1
65	66	1
56	60	3
6	7	3
5	9	1
170	173	3
26	28	1
64	66	1
90	92	1
19	21	2
111	115	4
137	137	2
40	56	1
33	34	2
6	9	2
12	14	1
128	142	1
119	120	4
147	148	2
12	29	1
135	144	1
10	38	1
31	32	1
177	178	1
81	113	2
146	147	1
113	115	1
124	129	1
144	170	3
23	23	1
166	170	1
125	126	1
130	131	2
105	106	1
112	131	1
65	65	1
105	107	1
96	97	2
127	148	1
116	116	2
13	21	1
151	163	2
139	140	1
115	121	1
14	27	2
119	119	1
68	109	1
17	18	2
124	163	1
59	75	1
75	75	2
77	77	1
26	27	1
116	119	1
106	107	1
118	120	1
145	147	1
41	42	1
119	127	1
68	68	1
11	13	1
154	155	2
8	13	1
99	100	1
58	96	1
24	26	1
108	111	1
156	164	1
53	53	1
98	101	1
121	121	1
116	169	1
