5	20	2
8	54	1
179	179	4
140	140	5
53	53	2
61	61	5
10	10	2
59	59	6
134	134	5
29	30	2
114	114	3
32	35	2
58	58	2
47	47	4
25	25	3
117	117	4
120	120	3
95	95	2
22	23	2
167	167	1
61	86	3
53	54	2
44	65	3
101	102	4
77	77	2
8	11	8
137	137	5
12	14	2
56	56	5
46	46	5
71	71	6
64	64	1
102	102	8
6	6	3
101	101	2
107	108	4
39	39	1
131	132	3
58	59	6
170	183	3
164	166	4
162	162	2
110	110	3
125	125	3
123	126	2
167	169	3
85	85	3
158	158	5
133	133	2
146	146	4
96	96	2
189	190	2
13	13	4
76	80	1
85	117	3
127	146	3
83	94	2
9	10	3
109	109	7
142	143	3
59	60	2
78	80	4
160	160	6
8	8	3
110	169	2
3	4	4
163	165	1
48	94	1
105	105	1
73	73	8
48	48	3
144	144	4
16	16	6
77	78	2
115	115	4
31	33	2
106	169	2
101	103	5
132	133	1
44	63	4
81	82	1
78	78	5
71	74	2
19	19	1
34	34	4
118	118	4
63	63	3
92	94	2
18	22	6
18	18	4
68	69	1
178	180	5
156	163	2
60	62	1
33	33	3
82	83	1
121	121	1
155	178	4
149	149	4
130	132	1
66	72	1
84	84	3
6	7	2
143	143	2
164	164	1
135	155	2
85	86	4
111	111	1
8	10	2
189	189	1
62	62	2
163	163	1
40	90	3
184	184	2
128	129	2
156	156	3
10	11	4
36	36	1
130	130	4
139	146	1
97	97	4
113	113	1
154	154	1
107	107	4
13	14	4
174	174	2
62	63	1
124	125	1
34	35	5
48	53	3
112	112	7
66	66	1
139	139	2
90	90	1
85	118	1
30	30	2
13	23	1
88	88	2
41	41	2
15	15	1
124	136	1
167	168	2
57	57	4
186	186	2
129	129	2
154	168	1
172	172	1
99	103	3
92	93	2
106	184	1
146	147	1
71	73	1
169	169	1
1	2	1
52	54	1
1	1	2
182	182	4
74	76	1
14	14	5
173	173	1
94	94	2
144	145	1
24	24	3
93	103	2
64	65	1
130	137	2
124	124	2
5	6	1
24	25	1
178	179	2
74	74	1
180	180	1
135	135	1
108	169	1
26	26	2
148	148	1
17	70	1
110	111	2
171	171	3
64	70	1
70	70	3
63	65	1
187	188	2
106	106	2
83	83	4
39	40	1
186	187	2
7	7	1
147	147	2
80	81	1
42	42	1
134	135	1
133	153	2
153	153	1
43	43	1
131	133	1
43	44	1
35	35	1
123	123	1
15	24	2
29	29	1
27	45	2
135	138	1
108	122	1
170	170	2
81	81	1
163	166	2
48	54	1
25	46	1
155	174	1
126	137	1
22	54	1
176	176	1
166	166	1
114	115	1
108	167	1
5	5	1
141	141	1
131	131	1
181	181	1
18	20	1
72	72	1
84	85	1
103	103	1
104	104	1
44	47	1
126	151	1
76	76	2
161	161	1
38	38	1
