30	40	3
75	75	9
20	20	5
113	113	6
90	90	7
59	59	7
66	66	3
108	108	3
81	81	2
42	42	5
26	51	4
112	113	3
28	28	9
63	63	5
82	84	2
21	21	4
102	102	3
24	60	5
110	110	7
93	94	3
40	41	4
52	52	12
77	78	4
40	40	4
27	30	4
20	60	4
74	74	6
44	50	3
36	36	4
71	87	3
22	22	2
35	35	4
67	68	3
107	107	6
28	29	8
37	37	5
24	24	2
114	115	3
93	103	6
61	88	1
68	68	1
62	64	3
87	87	3
103	107	6
54	54	3
65	66	5
98	101	3
64	65	2
38	38	5
73	73	13
84	84	3
26	26	8
62	62	6
104	104	6
80	83	1
87	88	3
103	108	3
102	103	6
79	79	4
87	89	1
27	27	3
103	104	6
95	95	6
25	71	1
51	52	1
48	48	3
55	55	1
53	53	3
41	41	2
92	103	2
27	53	3
31	31	1
47	47	4
86	106	3
46	46	10
70	71	5
65	65	5
109	111	4
31	32	4
40	61	5
99	99	1
44	44	9
101	108	2
27	29	3
103	106	2
90	91	4
33	33	8
106	106	3
77	77	9
96	97	2
83	83	1
101	102	1
105	107	3
72	82	1
81	82	5
29	29	6
25	64	3
112	112	6
97	97	8
92	92	8
61	68	4
109	109	5
100	100	8
82	82	2
56	58	1
25	69	3
25	95	2
26	27	1
76	81	1
86	93	3
114	114	2
36	37	1
54	56	2
85	86	2
62	68	1
101	101	1
94	95	3
77	79	1
100	101	2
33	36	2
56	57	9
97	98	2
25	25	2
60	61	1
36	41	1
80	81	1
58	71	3
26	70	1
58	67	1
38	39	2
39	39	1
58	58	3
105	105	1
61	63	1
47	49	2
68	69	1
33	34	4
46	47	1
70	70	4
83	86	1
20	21	2
78	79	1
60	69	1
72	91	1
27	96	1
50	50	2
85	85	1
80	80	3
31	90	2
56	56	1
29	82	2
65	67	3
49	49	1
25	53	1
59	66	1
72	74	1
55	57	1
25	26	2
48	50	2
72	72	2
23	59	2
40	60	1
43	51	1
36	98	1
60	60	1
40	58	2
95	96	1
66	68	1
85	106	1
78	78	2
99	101	1
45	112	2
64	66	3
57	57	1
95	99	1
30	30	2
59	61	2
86	86	2
30	36	2
19	19	1
85	92	1
26	53	1
55	56	1
32	32	2
73	84	2
43	43	1
94	94	1
73	109	1
105	106	1
27	28	1
48	99	2
82	83	1
63	64	1
67	67	1
26	56	1
61	61	1
61	64	1
34	34	1
78	105	1
75	85	1
61	62	1
