60	60	12
86	89	3
81	96	2
49	50	2
101	101	6
33	33	6
76	76	10
95	96	7
88	88	8
34	35	3
38	38	3
77	77	6
41	41	19
46	47	1
48	48	7
32	55	1
39	39	3
90	90	10
43	43	7
55	55	10
91	91	4
89	89	14
63	67	1
27	29	7
95	97	3
83	84	3
45	83	1
46	46	10
73	73	7
23	23	6
87	88	3
98	102	1
69	69	10
25	25	7
74	74	7
24	25	4
27	84	3
45	54	2
49	49	11
50	50	10
93	94	6
76	77	3
54	55	5
57	57	9
81	98	1
98	98	12
96	96	4
59	59	8
53	54	5
40	40	8
44	44	10
91	92	4
88	89	3
86	88	1
63	63	17
72	73	3
96	98	2
67	67	11
70	70	10
37	38	8
33	34	5
22	27	1
70	72	2
97	98	5
89	92	1
27	27	11
57	76	1
45	50	1
28	28	5
31	88	1
41	42	8
62	62	7
64	64	12
92	92	11
64	69	3
36	36	3
75	75	2
58	59	2
99	99	9
71	71	8
86	87	3
26	26	3
20	85	4
71	72	1
78	78	7
94	97	3
83	83	5
79	79	1
85	101	2
22	22	1
68	68	12
63	77	1
94	98	2
33	55	2
56	76	5
27	31	3
80	80	6
53	80	1
73	85	1
79	80	4
79	82	3
68	69	1
95	95	8
32	33	4
24	27	1
85	85	6
97	99	4
66	66	3
55	56	2
44	57	3
53	92	1
26	28	1
78	79	5
47	48	2
94	94	7
58	58	6
63	64	2
43	59	3
60	61	5
51	51	2
56	92	2
55	72	1
47	47	7
65	77	1
30	30	6
101	102	2
60	66	3
65	65	2
43	85	1
54	54	2
77	78	3
72	72	6
34	85	3
27	28	2
23	30	2
87	87	2
93	93	6
42	42	10
31	31	3
23	24	3
97	97	5
61	61	4
53	53	6
43	44	1
23	84	2
39	54	1
56	56	4
39	40	2
51	52	2
87	98	3
89	90	3
45	45	3
59	60	2
57	58	2
31	89	1
63	91	1
53	55	2
82	86	1
35	38	1
86	86	3
52	52	3
82	96	2
88	92	2
32	32	1
100	100	4
53	79	1
75	76	2
29	29	2
94	95	1
75	102	1
51	53	1
62	63	2
57	78	1
34	34	1
87	89	1
24	24	3
66	70	1
25	26	2
55	60	1
99	100	2
83	86	2
86	93	2
20	22	1
63	68	1
39	53	1
73	74	1
51	79	1
69	70	2
28	31	1
81	85	2
46	59	1
82	87	1
59	63	1
45	91	1
74	75	1
62	72	1
35	35	1
