77	77	1
169	169	11
67	69	2
170	171	17
133	133	6
174	175	7
194	194	11
16	16	4
23	23	11
148	149	2
15	15	16
94	127	1
77	78	1
94	94	12
163	163	9
197	197	11
58	82	1
106	109	2
103	103	8
32	33	4
17	17	11
80	81	3
76	77	6
10	10	19
22	22	8
142	142	12
147	147	10
8	28	4
178	178	4
109	110	8
156	156	9
85	85	2
124	124	8
113	113	9
137	137	15
171	171	15
155	155	11
25	26	4
196	197	6
166	167	9
112	113	5
41	41	13
48	48	13
59	59	3
149	149	9
187	188	8
183	183	9
97	98	1
157	157	13
158	158	11
27	27	14
104	104	9
135	158	1
167	178	1
172	173	8
138	139	1
190	190	21
196	196	17
188	188	12
177	177	22
115	122	1
134	134	10
114	114	12
28	30	3
146	146	7
159	159	19
55	55	12
185	185	25
25	25	8
150	150	14
139	140	7
115	129	3
170	170	20
100	100	4
138	138	14
163	164	8
33	33	17
167	167	13
156	166	1
32	32	8
151	151	8
118	118	4
119	119	12
4	138	2
181	182	7
61	61	3
38	38	19
106	106	7
155	158	3
158	159	5
120	122	2
194	195	9
132	135	3
168	168	15
71	72	4
111	111	14
174	176	3
152	152	11
18	19	5
190	193	3
128	136	2
184	184	27
37	37	9
49	49	4
60	60	7
193	193	11
8	8	10
95	95	16
106	152	1
8	17	1
137	138	12
56	57	7
3	4	15
30	31	3
102	102	7
51	51	7
0	2	6
186	186	10
2	5	1
189	189	12
78	79	1
107	107	8
122	126	1
29	29	8
175	175	5
135	137	4
186	192	3
123	123	13
81	83	4
135	136	3
164	164	12
134	135	9
152	161	2
40	40	6
176	176	11
8	16	3
179	179	5
9	10	2
123	160	1
195	195	10
121	122	4
117	117	3
43	44	6
159	160	5
131	133	3
143	144	4
180	181	11
160	160	11
101	101	6
124	125	3
12	13	1
97	97	7
56	56	13
81	82	4
122	122	12
145	147	1
11	12	6
167	168	3
141	141	8
139	139	6
180	180	13
192	193	8
30	30	9
154	155	3
14	14	4
53	55	9
36	36	11
42	43	1
130	155	2
80	80	11
102	103	3
120	120	16
146	167	1
13	13	10
192	192	13
172	176	4
34	34	8
189	190	3
136	137	1
21	32	2
17	18	2
160	161	6
133	134	6
172	172	18
191	192	2
195	196	3
15	17	1
187	187	7
54	55	5
50	50	11
55	56	5
37	41	1
154	154	21
152	172	2
169	179	2
24	25	10
155	176	2
165	165	15
18	18	7
165	166	3
133	135	1
110	110	8
178	179	6
26	26	13
145	145	5
161	162	4
127	127	5
128	133	1
87	87	8
182	183	5
174	174	14
7	7	10
39	40	1
31	31	3
122	123	5
115	115	10
70	71	3
50	51	4
63	65	1
129	129	8
185	186	3
38	39	6
16	32	2
10	11	5
57	57	10
31	32	3
3	3	6
99	99	6
45	45	9
0	4	3
170	172	1
54	54	8
44	44	14
151	152	4
143	145	2
103	104	11
13	196	4
166	166	4
93	101	1
151	172	3
182	182	9
110	111	6
169	171	3
66	67	2
140	140	6
20	20	9
126	126	14
162	163	3
5	5	4
146	147	7
125	125	3
185	187	3
104	106	6
126	127	2
152	153	9
94	95	2
130	147	3
152	154	3
24	24	3
150	151	4
64	87	3
6	16	3
121	121	13
108	108	5
90	90	5
162	162	6
47	47	9
176	177	12
73	73	3
35	35	7
128	129	1
121	159	3
142	167	1
84	85	3
72	72	6
146	148	1
136	154	1
144	145	1
100	101	2
176	178	1
1	17	1
43	43	5
160	165	1
189	191	3
70	70	2
38	42	4
155	156	8
174	177	3
1	1	3
156	157	2
153	182	4
148	171	2
151	155	1
2	3	6
130	132	3
146	149	1
130	131	5
141	142	6
89	89	3
171	172	7
103	108	1
1	137	1
34	36	1
52	52	10
54	56	3
177	178	7
16	31	3
109	109	8
42	42	6
82	83	2
41	42	3
9	9	10
20	21	2
65	82	2
151	186	4
151	184	2
131	131	3
75	76	3
52	113	2
144	144	3
148	148	2
168	170	3
48	49	7
162	166	2
150	174	3
119	122	5
164	165	3
62	63	2
106	107	4
53	53	4
127	129	1
6	6	1
135	135	11
129	131	4
132	132	6
83	84	1
93	93	6
151	165	2
40	41	1
130	130	5
34	59	3
3	8	2
5	12	1
4	4	9
68	70	2
16	17	5
171	173	2
0	0	6
36	40	2
152	163	2
185	191	1
177	195	4
160	162	2
134	143	2
188	189	4
103	107	2
119	142	3
143	167	1
35	36	1
15	16	2
37	38	11
95	96	5
168	169	5
150	156	2
58	58	2
161	161	7
24	26	2
129	130	3
64	65	3
128	128	10
29	31	3
126	176	2
128	186	2
115	119	3
178	181	1
125	126	4
108	109	3
36	41	4
134	140	4
10	44	1
149	195	2
67	67	1
175	177	4
153	154	3
179	182	3
6	25	2
152	160	1
173	175	3
145	146	1
14	15	4
11	13	2
155	167	1
134	137	2
191	191	5
79	79	2
29	30	1
21	22	1
186	187	4
133	161	2
132	133	2
34	42	4
27	28	1
28	28	2
10	14	3
153	153	8
137	139	2
162	164	3
120	121	1
67	70	2
10	13	2
190	191	3
61	62	1
105	106	4
116	116	12
149	150	4
46	47	1
110	127	1
167	172	3
60	61	2
111	112	2
39	39	6
193	194	2
37	59	3
171	188	1
153	159	1
132	142	1
11	14	1
2	32	1
11	11	2
3	5	2
131	132	2
129	133	1
32	47	1
149	166	1
169	170	5
116	120	2
23	24	9
154	174	1
98	98	2
111	138	5
166	179	1
122	127	1
9	27	2
84	84	1
143	143	3
151	168	1
190	194	1
96	96	1
135	138	1
31	38	2
57	58	7
108	111	1
95	110	1
21	21	1
150	185	2
159	161	3
101	105	1
104	105	2
179	181	1
131	138	1
96	97	2
96	110	1
31	46	2
150	152	1
149	179	1
37	56	1
150	178	1
69	71	1
8	9	1
123	125	1
88	90	2
114	119	1
156	158	1
113	114	3
66	66	1
30	47	2
98	113	1
163	165	1
101	102	1
119	140	1
38	69	1
69	87	1
126	185	1
82	82	2
121	123	2
6	8	1
173	174	1
136	149	2
136	136	5
150	155	1
22	24	1
18	20	1
87	88	1
55	57	2
116	139	1
140	141	1
99	112	1
12	95	1
33	42	2
2	17	1
57	82	1
21	33	2
49	51	2
181	181	1
151	183	1
174	190	1
50	55	3
67	68	1
179	180	1
50	115	1
12	42	2
78	78	1
99	101	1
157	158	1
115	117	1
81	81	1
114	115	1
45	55	2
74	76	2
144	161	2
5	117	1
46	46	1
94	96	1
10	57	1
7	16	1
74	74	1
132	156	1
149	187	1
116	131	2
105	105	1
9	33	2
186	193	1
2	4	2
157	168	1
65	66	1
0	195	1
2	6	1
115	124	1
145	166	1
164	166	1
52	53	1
20	22	1
59	60	1
44	45	1
