78	80	2
6	6	3
21	21	4
73	79	1
23	25	1
71	72	3
31	31	12
123	123	4
25	26	2
78	107	2
120	122	6
17	33	2
130	130	3
8	8	1
11	11	3
90	96	3
100	110	3
132	132	7
90	90	3
4	4	9
72	78	2
25	25	1
30	30	5
129	129	9
85	85	1
109	119	1
119	120	1
25	27	1
2	4	3
122	122	9
136	137	1
134	134	5
76	78	2
13	14	1
14	20	2
93	94	1
135	135	5
96	97	2
3	20	2
8	12	1
81	81	3
66	80	4
5	13	1
2	2	2
89	90	4
15	15	4
115	120	2
96	96	6
12	15	2
82	82	2
29	29	2
9	26	1
5	6	1
125	125	2
125	128	2
105	105	3
120	121	2
86	87	5
6	12	1
33	37	2
25	103	2
17	26	2
84	93	1
27	28	1
31	32	2
127	127	3
20	20	4
23	23	7
92	97	2
113	113	3
129	132	2
106	106	3
136	136	3
34	34	4
29	30	2
78	78	5
80	108	1
10	10	8
78	104	1
128	137	1
15	20	1
137	137	1
103	103	2
72	104	2
87	87	6
76	106	3
126	127	2
134	135	1
11	12	1
74	89	3
26	103	2
6	14	2
93	93	1
136	138	2
127	128	2
79	79	6
126	126	6
19	20	1
19	34	1
16	16	2
89	115	1
98	98	3
0	0	4
27	27	3
111	113	2
133	133	4
117	117	3
95	95	4
107	107	3
133	134	2
77	78	1
38	86	1
91	91	1
118	118	3
104	105	1
11	20	1
139	139	5
140	140	4
22	25	1
128	129	2
111	111	2
75	80	2
92	93	1
17	17	1
84	85	3
130	139	1
28	28	1
129	134	1
13	13	3
104	104	1
19	19	3
37	37	1
0	6	1
15	24	1
12	12	1
22	24	1
85	92	1
115	135	1
119	122	1
74	74	1
117	119	1
12	26	1
0	15	1
1	13	1
121	121	2
7	7	2
1	1	1
79	107	3
124	124	2
27	31	1
72	72	3
18	18	3
87	88	1
78	87	1
9	9	4
137	138	1
102	129	1
101	103	1
119	119	2
132	134	1
80	80	1
114	114	1
36	36	2
129	130	2
115	115	3
85	87	1
124	127	1
93	116	1
33	33	1
14	15	1
9	31	1
92	92	1
79	112	1
33	94	1
114	115	1
78	79	1
35	35	1
11	28	1
108	108	2
125	131	1
103	109	1
133	136	1
120	120	1
13	19	1
112	113	1
26	27	1
88	88	1
102	103	1
73	73	2
25	106	1
12	30	1
127	138	1
3	3	1
75	75	1
84	86	2
5	5	1
75	77	1
139	140	1
99	140	2
21	26	1
102	102	1
127	129	1
