90	90	34
61	61	14
35	35	19
56	65	1
76	76	27
71	72	17
50	50	18
80	80	24
100	100	17
68	68	37
102	102	3
81	81	39
34	34	15
23	53	3
74	74	39
72	73	6
85	85	9
89	89	20
68	71	2
94	94	13
60	60	28
57	57	23
56	56	34
58	58	20
52	52	50
46	46	9
20	48	2
37	37	15
79	80	8
101	101	22
78	78	31
40	40	12
65	66	28
96	96	14
49	50	16
45	45	16
33	33	19
43	43	22
51	53	4
41	41	41
62	63	6
75	75	26
32	89	3
34	58	2
44	45	2
49	49	34
22	22	13
84	84	17
88	88	23
93	94	9
30	30	6
27	49	2
66	68	5
80	98	2
44	44	31
53	54	17
46	47	18
77	77	39
67	70	6
101	102	8
47	47	20
48	100	2
69	76	10
25	25	15
29	29	14
93	93	32
55	55	7
53	53	14
54	55	13
85	86	4
87	89	5
65	65	45
69	70	7
73	73	13
71	71	18
61	92	4
66	66	34
42	42	37
73	76	1
62	83	1
57	59	2
51	51	8
67	67	21
60	76	3
71	73	2
63	63	22
65	73	4
95	95	19
98	100	3
89	91	1
41	42	6
53	55	12
87	88	13
99	99	25
90	91	4
89	93	5
54	54	15
23	26	3
46	94	1
66	77	3
83	85	6
66	75	4
92	96	2
100	101	8
39	39	12
32	44	7
97	97	22
23	23	7
39	40	4
26	27	4
66	67	8
60	81	5
92	92	11
27	27	6
33	34	2
24	25	9
56	68	2
72	72	24
31	31	16
79	79	21
59	60	6
65	67	3
31	50	2
69	72	1
30	52	3
59	59	23
68	69	7
81	88	4
51	52	10
82	82	9
56	83	2
43	44	7
94	102	3
98	98	17
33	85	3
70	70	27
95	96	3
48	49	6
91	91	17
77	78	4
67	69	3
39	45	3
99	101	1
60	63	1
98	99	4
26	26	7
31	32	5
61	62	8
63	69	8
48	48	22
69	71	4
20	22	1
97	98	9
35	36	3
47	94	5
45	48	1
60	93	2
67	73	6
52	53	2
64	64	21
59	63	2
78	79	4
83	83	15
57	58	8
45	59	4
87	97	1
83	84	3
69	69	12
95	98	3
34	102	4
92	93	4
39	93	4
65	68	1
86	87	4
83	95	1
28	94	2
49	52	2
44	58	3
62	62	16
45	47	1
35	51	4
86	88	6
91	92	5
58	59	7
79	83	2
50	58	1
42	65	2
32	32	5
24	26	2
50	52	3
50	51	10
55	57	6
51	61	2
95	97	4
34	35	5
75	76	2
89	90	1
47	48	4
20	20	5
86	86	8
21	37	4
38	39	3
51	57	3
33	38	1
56	57	3
96	97	6
20	53	1
84	85	2
49	82	6
87	87	14
52	57	1
35	38	2
60	61	4
79	82	1
24	54	1
36	37	8
74	75	2
45	100	3
76	77	9
42	66	4
29	46	2
64	65	5
74	78	2
86	90	4
46	53	2
79	81	10
91	99	4
73	77	4
70	81	2
86	94	2
61	65	3
93	95	2
48	94	2
79	92	1
75	77	1
83	96	2
81	82	4
70	99	3
66	76	3
89	94	1
67	68	1
70	90	2
36	36	6
50	90	1
41	43	1
63	68	2
38	38	2
47	93	2
86	99	1
86	89	1
45	94	4
43	74	1
99	100	3
33	70	1
78	85	1
44	49	3
37	40	1
48	85	1
37	54	3
73	74	2
80	81	2
31	34	1
61	84	3
42	43	2
70	72	2
37	38	2
79	98	2
59	65	1
55	56	3
53	87	1
40	44	2
88	89	3
79	100	6
24	24	2
33	101	1
31	37	2
29	53	2
55	70	2
28	53	1
60	62	2
79	97	2
24	55	3
58	68	2
41	75	2
55	96	2
62	89	1
80	101	1
84	97	2
25	27	5
24	35	1
32	33	1
28	34	2
74	76	1
76	78	1
96	102	1
38	47	1
40	41	1
96	98	2
81	84	2
41	44	2
22	44	1
40	42	1
68	72	2
89	92	1
58	93	3
36	62	2
46	48	2
61	94	1
63	71	2
91	93	2
90	92	1
27	28	1
65	69	2
61	64	2
63	64	1
33	83	1
48	55	1
60	95	2
59	74	1
94	95	2
49	51	1
40	72	1
40	51	1
46	55	1
57	79	1
