79	80	13
61	66	2
41	89	1
41	41	8
101	101	12
61	94	5
43	83	2
66	67	5
31	101	3
95	95	12
86	86	18
83	88	2
90	90	20
91	91	14
28	79	3
52	91	1
97	97	4
56	56	9
52	92	5
84	86	2
79	79	5
93	98	1
81	81	9
44	44	6
64	64	6
35	88	4
83	83	7
86	87	12
53	53	17
65	65	7
34	77	2
49	49	16
94	97	2
58	75	1
73	73	11
94	94	12
72	72	11
36	36	13
62	101	5
87	100	1
74	74	6
93	93	10
89	89	12
92	92	7
96	97	7
50	50	11
42	44	1
20	20	1
49	51	7
54	54	5
58	59	4
37	59	2
37	38	2
26	26	4
48	92	1
28	28	3
40	41	2
69	73	4
59	59	7
76	76	4
87	87	7
31	31	3
42	48	4
92	93	3
49	50	5
38	38	4
35	35	8
69	69	6
33	33	10
68	68	8
69	74	1
23	26	1
95	96	12
89	90	1
57	58	8
46	80	2
84	84	14
25	25	4
101	102	1
87	88	7
45	57	1
71	71	15
24	26	1
62	62	8
60	60	13
55	55	4
48	52	4
29	29	7
102	102	3
35	36	3
80	86	1
85	85	3
99	99	8
75	75	9
39	39	4
22	27	3
23	23	2
47	87	2
44	66	3
45	90	2
85	86	2
58	63	4
76	77	4
52	52	3
32	33	2
23	46	2
70	70	6
98	98	6
37	37	3
69	70	3
95	97	3
33	36	1
60	61	1
68	69	2
57	57	6
23	57	4
44	45	1
66	71	5
61	62	1
46	81	1
88	88	6
58	60	3
85	89	2
34	100	3
45	45	3
97	98	1
100	100	2
60	85	3
75	76	1
22	22	2
57	63	1
61	61	7
36	46	2
23	47	1
67	67	8
91	92	5
42	42	10
99	100	2
51	51	8
36	37	2
90	93	2
55	56	2
58	80	3
24	24	8
58	58	9
70	71	2
40	101	3
96	96	2
41	71	5
76	78	3
29	80	1
47	81	2
54	87	2
39	75	1
95	98	1
37	93	3
47	47	8
27	27	2
42	85	2
32	80	1
38	39	2
36	89	2
40	40	1
46	89	5
64	71	1
39	94	3
77	77	4
32	32	2
35	49	2
78	78	4
59	88	3
82	84	2
42	86	1
63	63	2
48	90	2
51	52	4
79	81	2
42	89	3
20	23	2
48	48	5
83	84	3
37	47	4
61	76	2
41	85	3
42	90	1
52	74	2
40	63	2
73	74	4
70	77	1
23	79	1
55	81	2
82	89	1
62	65	2
66	100	1
41	42	1
43	43	2
78	85	2
34	34	1
56	62	2
39	96	1
86	99	3
92	98	1
23	81	2
63	64	1
46	46	1
49	80	1
83	99	1
45	49	2
67	68	5
25	26	1
93	95	1
35	38	1
42	43	1
46	86	1
47	58	1
30	30	1
22	37	1
23	38	1
22	29	1
66	66	2
72	101	1
48	50	1
94	100	1
90	91	1
87	89	1
43	92	1
71	72	1
