209	210	5
189	216	1
42	42	5
128	128	14
83	145	3
98	98	7
161	162	1
147	148	6
123	124	7
122	127	1
118	119	1
190	190	8
6	6	9
199	200	7
15	23	6
155	159	2
209	209	14
54	54	11
238	238	7
73	73	7
4	22	2
139	139	1
233	233	2
144	144	3
240	241	1
99	99	4
152	152	2
157	157	3
34	35	5
20	20	9
31	31	6
50	50	8
32	32	1
122	123	1
191	191	2
105	105	2
62	64	1
4	4	4
234	234	7
39	39	6
159	181	1
66	85	3
63	64	5
19	19	8
182	184	3
168	168	4
66	66	11
88	115	3
126	126	6
88	97	2
101	102	7
151	152	1
52	53	3
13	13	2
145	146	3
123	123	5
82	139	2
142	142	2
72	72	10
221	221	6
62	126	2
225	225	6
205	205	5
190	212	2
70	70	6
101	101	9
179	179	6
137	138	3
49	49	3
122	122	7
150	152	5
12	14	1
88	117	1
17	17	2
66	67	6
173	174	4
140	155	1
58	58	10
18	18	9
148	148	6
22	23	2
198	198	6
71	72	4
161	180	1
37	42	1
42	47	1
84	145	2
133	133	3
184	184	1
102	102	5
220	222	1
67	67	12
64	64	5
77	79	1
82	82	3
161	161	8
55	56	3
192	192	2
38	38	3
41	41	3
160	160	2
35	36	5
84	84	5
33	57	1
74	75	2
43	44	4
1	186	1
8	9	2
37	37	2
51	51	5
107	107	2
91	91	4
176	176	2
74	74	2
241	241	2
177	177	5
103	103	3
21	34	1
158	159	5
24	24	10
12	36	2
175	175	4
70	74	1
196	196	4
124	124	2
4	7	2
55	57	4
200	200	2
8	15	1
68	123	1
204	204	5
174	174	6
51	52	5
166	184	2
219	219	2
210	210	6
239	240	1
52	52	6
129	129	1
141	142	1
1	9	3
163	163	3
87	88	2
45	61	1
71	71	3
78	78	3
61	61	7
76	78	1
144	145	1
39	42	4
138	140	2
50	60	4
108	108	7
222	223	2
180	181	1
221	222	1
107	131	1
9	10	8
223	223	7
204	205	2
14	14	4
57	57	6
151	201	2
8	8	7
223	232	4
167	168	4
10	16	1
22	22	4
151	151	3
68	68	7
104	104	1
79	79	6
100	100	1
228	228	2
50	51	4
19	156	5
29	29	3
69	122	2
34	34	11
0	0	1
78	79	1
45	45	7
73	74	2
3	3	3
140	160	2
50	53	2
109	129	1
28	28	1
194	195	2
193	193	6
153	156	3
168	169	2
125	125	6
4	13	2
150	159	1
6	7	3
208	220	3
12	12	9
56	56	12
97	97	2
20	118	4
232	234	5
197	197	3
167	169	4
1	1	5
23	23	3
0	1	1
16	16	5
55	143	1
1	2	1
30	31	4
136	136	1
1	17	1
113	197	1
81	84	3
174	234	1
218	236	3
88	89	1
191	192	1
134	134	7
124	127	1
53	81	3
1	3	1
60	60	6
46	51	5
65	65	7
42	44	2
43	47	2
21	21	1
133	134	1
24	219	1
78	85	3
171	172	2
52	54	1
201	201	4
103	105	9
214	214	4
129	130	2
18	20	2
75	84	1
239	239	2
162	162	2
44	45	8
48	48	2
181	181	1
10	11	1
80	81	3
2	8	2
136	138	1
79	80	1
84	133	3
33	34	3
234	235	3
137	137	3
200	201	2
198	199	3
108	127	3
59	59	4
46	46	7
104	105	1
40	40	2
235	235	1
71	73	1
150	151	4
226	227	6
126	127	3
174	175	3
53	53	4
197	198	1
17	23	4
88	88	8
17	18	3
171	171	4
76	76	12
157	159	1
43	43	4
49	50	1
229	229	3
224	224	4
20	21	1
103	104	3
230	230	1
211	213	1
111	112	1
211	211	1
107	118	4
69	69	4
36	36	4
95	96	1
7	7	2
242	242	5
118	129	2
158	158	5
123	125	3
46	47	1
206	206	2
85	85	5
115	115	4
170	235	2
109	109	2
48	49	2
154	155	3
122	136	1
166	166	7
225	226	2
58	60	1
19	20	2
11	11	3
39	41	1
4	21	1
27	28	3
82	84	1
13	14	3
119	119	2
210	211	2
145	152	3
239	242	1
32	33	2
35	35	3
30	30	1
190	211	1
137	140	1
203	203	6
218	224	1
50	54	1
5	6	1
47	47	7
227	227	2
37	38	4
110	110	2
26	26	6
116	118	1
77	77	3
110	111	1
125	141	4
231	231	2
27	27	6
188	189	2
96	103	1
30	37	1
186	186	1
25	26	2
232	232	1
68	241	3
135	187	2
183	183	3
117	117	3
39	40	1
224	225	2
143	145	1
71	110	3
99	100	2
2	9	1
207	208	1
240	240	5
114	115	2
14	22	2
12	13	4
36	51	1
15	15	5
173	173	2
7	9	1
156	157	1
138	138	1
21	118	1
141	141	4
116	116	3
9	9	3
60	61	2
25	25	1
155	158	5
135	135	1
153	153	2
162	163	3
65	241	1
88	105	3
5	7	1
86	86	2
37	43	3
210	215	4
214	216	2
11	12	1
116	117	2
21	40	1
142	155	1
26	28	1
13	33	1
98	99	3
213	213	1
96	102	3
6	16	2
203	220	2
86	87	2
195	196	2
61	62	1
188	188	1
89	89	1
136	137	2
20	129	2
134	135	1
123	140	2
177	188	1
146	146	4
33	33	2
189	211	1
67	68	1
222	229	2
182	199	2
113	113	1
185	186	1
184	189	1
190	216	3
164	164	3
212	212	1
220	220	1
159	161	1
155	155	2
21	23	2
96	96	2
11	47	1
12	32	1
101	122	1
104	232	1
106	118	1
218	220	3
155	166	1
70	149	2
50	55	2
147	147	1
21	22	2
169	169	1
139	140	2
133	135	1
62	63	1
16	20	1
193	197	1
102	103	1
59	60	2
218	237	3
167	167	1
207	207	2
121	121	1
144	175	1
23	37	1
36	40	3
194	194	1
149	149	1
130	130	1
51	78	1
228	229	1
226	226	1
215	215	1
216	216	2
178	178	1
84	85	1
20	164	3
65	66	1
43	50	1
29	31	1
66	88	2
143	155	1
7	8	1
69	142	1
218	218	3
174	183	1
184	186	1
109	119	1
54	60	1
155	167	1
38	41	1
215	216	1
199	199	1
111	111	1
154	194	1
42	45	1
237	237	1
5	5	1
164	165	1
202	202	1
3	7	1
88	118	1
208	208	1
190	191	1
