162	163	9
147	149	4
83	110	1
75	75	8
122	123	5
93	93	8
42	42	18
43	43	2
104	104	10
109	138	8
69	69	1
2	40	2
30	32	3
35	35	7
126	126	9
29	29	4
77	77	8
110	129	2
37	37	7
150	151	11
107	109	4
33	33	5
86	86	11
79	79	7
98	99	9
156	156	6
46	56	3
59	59	6
183	183	5
104	105	4
84	103	5
155	155	10
44	46	6
116	116	4
148	150	7
185	188	4
130	130	6
16	16	4
174	175	5
57	58	2
22	23	7
127	128	6
160	189	4
82	101	6
42	77	5
63	71	1
109	110	9
70	78	2
101	106	3
157	158	6
96	149	1
149	156	1
121	121	6
123	123	6
12	15	2
94	142	3
66	67	4
139	142	2
131	144	3
150	154	3
88	89	4
134	134	3
89	139	5
90	92	1
93	138	5
90	90	1
185	185	7
107	108	3
53	53	5
41	41	5
115	115	6
156	157	1
113	113	15
39	40	10
76	76	4
22	24	6
8	8	15
103	103	10
35	37	5
4	13	1
142	142	1
11	12	9
139	143	1
7	11	2
32	32	3
118	137	3
75	76	7
13	75	2
169	169	3
127	127	2
105	105	4
42	78	2
153	153	3
4	5	7
139	139	5
111	111	8
147	147	3
21	22	3
23	23	9
60	60	4
162	162	2
91	91	11
138	138	5
2	2	14
91	139	2
152	153	3
117	117	4
90	96	5
7	8	7
131	132	5
129	129	25
0	0	5
13	13	1
188	189	7
78	78	13
148	149	15
67	114	1
30	37	1
84	101	2
54	54	1
108	111	1
145	145	12
89	94	4
54	55	2
30	89	3
42	43	4
1	1	1
103	104	4
152	152	7
88	88	8
56	57	6
133	134	4
70	71	4
91	94	2
154	155	2
95	95	8
146	146	2
55	56	2
83	84	7
73	73	4
184	184	10
113	114	5
177	177	7
147	148	5
52	56	2
23	25	3
85	85	8
63	64	6
80	80	5
71	72	5
6	8	3
172	172	1
149	149	7
90	91	2
24	25	5
74	74	12
101	139	2
89	89	9
119	119	1
120	120	5
96	148	3
107	137	6
45	45	5
94	94	13
175	175	8
86	102	2
14	24	1
123	145	2
148	148	5
181	181	5
102	142	4
62	63	1
24	24	4
128	128	4
8	9	1
151	151	7
5	5	4
25	25	12
99	134	2
185	186	4
114	114	10
52	53	8
122	122	17
38	87	2
33	34	3
39	39	5
147	154	7
174	176	5
98	98	4
38	38	6
117	119	4
136	137	5
67	67	6
163	164	4
168	169	5
47	48	2
159	165	2
152	186	3
107	113	2
110	133	6
148	153	2
26	88	4
31	31	3
84	85	4
159	159	4
116	117	2
71	71	5
82	82	6
87	87	15
97	109	3
186	187	2
174	174	7
110	111	2
42	47	2
182	182	4
123	146	6
55	55	7
134	146	1
39	42	3
75	77	2
77	126	3
96	96	3
58	59	6
148	156	2
61	61	5
53	57	2
111	112	6
140	141	4
28	28	6
25	48	5
65	70	2
15	19	2
118	118	2
102	102	2
140	140	19
66	66	9
71	73	2
78	79	9
23	24	12
124	143	3
70	70	4
15	15	7
95	96	2
136	136	3
87	114	1
13	15	1
79	118	2
154	154	11
133	133	8
57	57	4
37	40	1
189	189	11
21	21	3
106	107	2
84	84	10
59	60	1
7	7	4
45	65	3
83	83	5
137	137	2
63	78	4
158	159	4
110	110	1
60	67	1
6	7	1
91	92	2
96	97	1
135	137	1
149	150	6
58	58	5
123	124	1
47	47	7
175	178	6
41	57	4
95	119	3
12	13	7
4	4	4
13	14	7
76	77	1
161	161	4
74	76	3
148	151	2
117	118	2
144	144	5
18	18	5
146	147	2
52	52	1
97	108	2
71	76	1
17	17	6
179	185	1
182	183	2
13	24	2
159	160	1
77	86	2
87	111	2
119	121	4
6	6	5
69	70	2
68	114	1
124	125	1
31	34	1
112	112	2
79	80	4
20	103	1
90	140	2
68	68	3
153	154	2
185	187	2
46	46	3
12	12	5
101	101	4
72	72	6
128	129	1
119	120	2
108	108	5
161	162	2
178	178	3
42	44	1
102	138	1
149	151	2
162	177	1
83	111	1
158	158	6
138	139	6
166	167	1
21	28	4
74	75	5
88	123	5
64	64	3
68	109	2
143	143	10
114	118	1
110	127	2
160	160	4
150	150	5
108	133	3
99	108	2
45	47	3
29	44	6
173	173	4
109	109	2
107	136	1
142	150	2
17	23	2
34	35	1
141	141	4
184	185	3
49	49	4
121	124	1
86	126	1
186	186	3
65	66	1
25	26	2
180	180	2
58	68	1
142	145	1
67	126	3
86	87	3
180	181	4
24	38	1
25	41	2
56	56	1
107	107	3
122	124	2
32	33	1
120	121	2
152	169	3
109	127	2
187	187	1
25	38	2
48	48	5
10	10	1
92	92	2
157	157	2
143	144	3
148	166	1
78	84	1
108	128	2
100	100	1
187	189	1
87	88	1
130	131	1
38	39	1
63	63	3
2	3	1
124	124	2
68	115	2
45	68	1
94	95	2
176	176	4
87	123	2
28	29	1
0	1	1
40	77	1
115	116	1
77	84	1
79	83	2
93	94	3
27	30	2
130	134	2
166	166	2
38	90	6
141	142	3
142	144	1
40	106	1
102	104	1
109	113	1
16	17	2
113	130	1
106	106	1
3	3	1
32	37	1
83	85	2
55	58	1
133	138	2
14	25	1
100	104	1
160	168	1
27	43	2
153	172	1
97	99	1
27	27	2
85	97	1
30	31	1
36	37	1
30	34	1
80	82	1
22	43	2
164	164	1
10	12	5
132	133	1
44	44	1
43	45	1
121	122	1
138	143	1
85	103	1
40	40	1
16	20	1
165	165	1
29	30	1
97	97	2
95	103	1
171	171	2
73	74	1
14	15	1
158	161	1
81	96	1
135	135	1
