77	86	3
1	1	2
3	65	3
65	65	17
21	22	1
6	55	1
55	56	1
31	79	2
114	115	2
17	24	4
5	5	11
18	18	11
89	90	3
77	77	5
94	94	7
112	112	15
9	48	1
82	82	5
119	119	3
40	41	4
127	131	7
31	31	7
2	3	5
60	60	12
43	63	2
64	64	16
61	61	12
17	17	5
72	72	14
9	9	8
130	134	1
46	46	3
34	34	15
134	134	7
93	93	4
113	113	7
104	104	4
41	41	3
18	78	1
78	133	1
71	71	4
101	101	2
58	58	5
7	7	5
9	12	1
74	74	1
7	8	1
118	118	8
36	36	2
25	74	1
28	97	5
120	121	5
3	4	4
93	98	5
62	62	8
79	79	9
115	115	9
73	75	1
8	8	6
104	105	2
91	91	5
16	81	2
29	49	1
30	30	7
133	133	2
97	97	10
111	119	2
6	83	1
47	47	13
26	47	6
24	25	1
131	132	1
27	40	1
63	64	6
10	10	6
45	45	8
5	21	1
69	69	13
34	78	3
90	91	2
76	76	6
81	81	2
8	31	1
16	17	2
48	48	4
11	11	10
44	44	4
89	95	1
60	122	1
77	78	1
96	97	1
63	63	8
34	35	2
68	71	3
74	76	1
64	111	1
11	62	3
108	111	1
96	96	5
15	16	7
32	32	6
66	66	3
4	5	3
13	103	1
120	120	4
3	3	1
110	111	1
126	126	8
2	2	1
101	102	5
72	123	4
95	95	4
55	57	3
16	16	3
35	35	7
56	81	5
35	74	1
69	112	2
11	12	1
61	62	1
130	130	5
64	66	1
26	35	3
12	67	1
9	10	1
79	83	2
117	134	4
10	14	2
26	26	3
124	124	3
26	27	1
23	80	1
29	29	6
33	33	3
7	31	2
105	105	3
123	123	4
106	106	5
6	48	1
11	97	1
111	111	4
62	68	1
10	57	4
86	86	1
67	67	2
116	117	3
28	28	2
23	23	7
40	91	2
18	27	1
44	59	5
83	83	4
5	63	1
32	78	2
13	13	5
12	12	7
48	50	2
33	34	1
30	37	3
85	87	2
47	48	4
16	22	1
50	50	2
30	79	5
79	80	2
69	77	1
15	24	3
14	37	2
114	114	3
103	103	1
90	90	2
102	107	1
56	56	2
68	68	7
50	55	1
19	19	7
27	27	4
66	67	1
75	75	1
87	88	3
66	123	2
3	75	1
62	93	5
117	121	1
38	42	4
21	21	4
61	113	2
124	125	2
28	43	1
70	70	2
109	110	1
4	4	3
59	75	2
59	59	6
81	113	1
79	123	1
65	113	1
127	127	2
96	100	1
28	80	1
10	11	3
22	22	3
30	36	2
88	88	6
50	59	2
6	6	3
62	63	1
92	93	2
99	99	2
51	51	1
81	126	2
25	86	1
28	38	5
93	94	1
72	73	2
26	92	1
85	85	5
56	87	1
107	108	4
90	97	1
109	109	3
57	58	2
74	87	1
93	101	3
36	76	1
60	63	1
48	100	1
5	94	1
74	79	3
7	45	1
62	64	1
116	116	1
74	75	1
50	94	1
129	129	1
39	39	1
8	35	2
37	40	1
109	115	1
98	117	2
57	57	3
42	97	1
17	74	3
36	82	2
55	55	2
98	98	2
62	72	1
11	64	1
57	59	2
20	20	3
125	126	1
107	107	1
66	84	1
75	76	1
29	33	1
80	80	2
87	87	2
110	110	1
56	113	1
91	92	1
76	77	1
84	85	1
56	84	1
15	36	2
7	79	1
66	77	1
48	49	2
15	15	1
84	126	2
94	98	1
95	97	1
25	25	1
48	111	2
106	107	3
49	49	2
69	70	1
85	88	1
59	113	1
21	48	1
32	33	1
84	89	1
34	74	1
33	35	1
119	120	1
122	122	1
66	80	1
60	62	1
59	121	1
123	125	1
59	60	1
2	102	1
48	58	1
85	86	1
17	96	1
39	40	1
20	21	1
