193	193	4
73	73	7
5	5	6
119	171	3
74	75	3
161	161	2
122	122	2
42	43	3
123	123	5
1	1	4
11	11	6
180	181	1
111	111	7
76	77	3
164	164	2
11	12	9
87	87	4
10	10	9
134	140	1
127	127	5
25	25	3
150	151	5
74	74	4
62	63	1
81	81	2
158	158	9
77	77	3
196	196	5
142	142	11
20	21	2
45	45	6
54	54	2
180	180	10
159	160	2
37	37	4
49	49	7
64	66	1
50	51	2
25	26	2
172	172	4
119	119	2
187	187	5
29	30	2
129	129	6
126	127	6
13	32	1
178	178	9
156	156	5
130	131	5
21	22	4
149	149	3
196	197	5
33	33	1
150	150	13
59	110	3
17	18	2
191	191	6
117	118	2
135	135	3
114	114	7
70	70	1
132	132	2
141	189	1
110	110	1
170	170	16
162	162	3
16	16	1
8	8	3
51	52	4
2	2	4
69	70	3
69	69	10
153	178	2
16	36	2
23	24	3
125	126	1
161	162	2
13	13	5
147	147	9
160	160	1
136	141	5
94	94	5
133	133	9
28	40	2
7	7	5
153	154	3
128	128	5
182	182	3
53	54	8
157	157	5
104	106	3
55	55	2
1	3	2
50	50	7
27	27	4
79	134	2
138	139	3
19	19	1
56	57	2
117	117	2
132	135	1
192	192	5
167	167	5
40	41	3
136	136	11
2	42	1
149	150	3
19	20	1
177	177	2
109	160	6
154	154	3
30	31	1
108	109	6
171	192	1
166	166	5
39	39	5
0	0	2
36	37	1
15	15	3
53	169	1
153	153	3
143	144	4
189	189	7
22	22	1
2	3	2
178	179	3
47	47	7
41	41	2
3	4	2
150	169	2
14	37	1
19	21	1
170	171	4
127	129	2
185	185	7
188	189	1
97	97	2
40	40	3
0	3	1
36	36	2
63	63	1
192	193	1
23	37	3
121	121	1
121	123	2
157	181	1
56	56	3
184	184	3
184	185	1
67	67	1
32	32	4
158	159	5
143	145	1
45	46	1
159	159	6
142	185	3
176	176	2
197	197	4
81	149	2
105	106	3
112	113	3
70	127	1
17	17	3
109	109	1
26	27	1
15	16	6
156	158	1
187	188	1
17	34	3
46	46	2
194	194	5
53	53	4
59	59	3
116	169	1
186	186	2
105	105	4
83	107	3
190	191	2
49	50	3
113	178	2
154	155	1
12	12	7
137	137	5
182	193	2
181	181	2
139	140	1
6	6	3
171	171	2
121	135	1
130	130	1
123	194	4
48	49	1
113	155	1
120	149	2
51	51	3
141	185	2
143	143	1
22	23	3
52	53	1
148	149	1
149	158	1
162	163	1
6	22	1
188	188	2
114	115	1
183	183	4
39	40	2
165	165	2
119	149	1
140	140	1
13	14	1
148	148	4
129	130	3
69	150	1
116	117	3
120	120	5
141	141	2
124	124	1
193	194	3
9	9	1
102	102	2
189	192	1
107	108	2
23	23	1
54	55	2
84	84	2
115	115	2
94	96	4
155	155	1
179	180	1
119	173	1
11	13	1
73	80	3
175	176	1
165	166	2
123	124	2
168	169	1
25	37	1
194	195	2
18	18	1
151	151	1
8	19	3
146	147	3
170	196	1
145	145	1
157	158	3
103	105	2
127	141	2
118	118	2
43	43	1
155	156	1
137	153	2
112	160	2
24	24	2
102	103	2
156	171	1
14	197	2
9	186	1
30	64	1
155	190	1
9	15	1
111	112	1
5	22	1
127	128	2
44	45	1
11	48	1
78	78	1
28	28	1
195	196	1
156	157	1
106	106	4
150	166	1
103	145	1
86	87	1
14	189	1
64	64	1
146	146	1
44	44	1
89	89	1
140	182	1
174	175	1
146	181	1
151	153	1
152	154	1
61	62	1
126	126	2
7	8	1
145	148	1
48	52	1
130	150	1
151	152	1
168	168	1
149	163	1
181	182	2
80	80	1
