24	24	48
35	35	56
5	8	2
28	28	44
48	51	4
63	63	51
75	75	43
70	71	17
21	55	1
61	63	6
58	58	56
7	8	28
31	52	2
14	41	8
26	33	1
21	21	93
31	31	27
4	4	71
1	4	9
22	22	52
35	36	19
45	45	38
71	71	43
51	62	2
22	74	1
66	68	13
9	9	81
57	57	41
7	7	81
51	55	3
46	46	45
48	49	4
13	13	66
68	69	22
68	68	24
73	74	10
1	1	65
10	11	51
68	70	15
20	21	15
65	65	45
56	56	42
76	76	46
40	40	32
41	41	32
18	23	2
2	2	65
59	59	33
73	73	58
42	42	35
77	77	56
23	34	4
67	68	25
65	66	12
3	56	6
6	56	7
2	4	8
41	43	9
51	51	52
12	13	15
0	30	4
2	3	18
29	29	44
3	3	108
38	77	1
67	67	53
8	9	30
0	0	75
11	11	81
66	69	5
69	72	5
37	39	9
23	24	17
43	77	3
64	66	9
45	46	20
56	57	12
22	28	7
70	70	60
28	37	3
6	6	53
30	30	33
41	42	26
57	59	5
41	44	7
53	53	64
18	19	16
44	44	40
29	31	2
8	8	63
1	69	5
37	38	11
20	20	69
69	69	62
52	52	21
55	55	55
19	19	71
2	57	3
25	25	30
22	24	4
62	62	41
48	48	51
54	54	24
36	36	21
22	23	31
28	29	7
26	26	55
0	2	29
25	44	5
61	61	24
30	32	8
60	60	26
64	64	31
74	75	15
28	75	1
14	14	19
13	44	3
38	38	35
43	43	27
24	25	7
0	1	20
10	10	66
25	69	1
52	59	4
12	12	71
23	23	58
27	27	43
47	47	37
69	71	6
32	51	3
43	44	16
6	27	5
14	33	3
54	55	19
22	46	1
24	26	2
63	64	8
39	40	2
72	72	40
29	38	4
18	18	34
19	20	33
31	34	8
36	37	28
5	68	2
1	2	24
6	11	3
9	10	13
25	26	9
66	66	45
34	34	30
27	28	17
2	18	2
32	32	36
9	11	5
23	25	9
53	76	2
13	61	6
70	73	1
52	69	3
54	68	1
54	56	1
25	72	2
62	63	16
7	9	5
57	58	8
75	76	21
29	30	22
67	69	8
0	4	7
4	5	26
52	57	4
35	41	13
39	39	34
26	41	2
5	6	21
7	30	2
3	8	3
38	39	17
47	51	2
50	68	2
76	77	23
72	73	18
34	36	11
47	48	14
39	42	1
23	26	5
69	73	1
26	27	17
71	73	8
43	50	6
26	68	5
68	71	3
34	37	5
2	13	9
50	51	11
71	75	4
13	14	7
74	74	24
5	5	57
33	33	38
60	72	1
44	71	1
18	43	2
32	39	8
6	7	11
40	41	12
49	49	27
44	45	11
51	58	11
13	37	3
60	65	4
21	22	8
6	13	7
8	10	2
53	75	5
36	49	4
48	69	3
39	48	6
4	6	13
60	77	2
49	73	2
60	63	8
68	75	5
32	34	5
65	67	8
5	31	6
28	32	2
63	65	9
11	18	2
48	67	4
3	10	8
9	13	2
64	65	14
31	44	1
0	13	2
52	55	6
28	30	3
74	77	4
40	70	2
62	64	16
2	23	1
6	8	8
64	75	3
52	54	5
55	56	17
13	34	4
13	47	3
9	19	2
25	31	4
27	30	7
53	54	11
37	51	2
70	75	1
63	66	7
3	4	10
40	42	7
38	44	7
6	14	7
2	28	3
69	70	10
33	47	1
39	41	1
23	30	3
10	20	1
34	35	9
14	40	3
59	60	5
46	47	8
14	62	4
32	33	18
5	72	1
22	35	1
30	31	11
25	64	4
54	74	4
35	49	5
10	21	3
44	56	6
52	53	16
12	20	4
68	73	6
38	43	3
2	75	3
42	76	6
60	61	8
72	74	10
50	50	37
70	72	7
38	59	1
22	34	7
22	26	10
31	51	1
50	56	3
66	67	11
50	57	3
71	72	21
44	72	2
49	59	3
26	30	1
46	48	3
42	75	4
51	52	8
58	59	7
3	57	4
42	74	5
34	38	3
61	62	12
43	71	3
8	11	4
3	5	5
49	51	8
37	37	29
74	76	5
42	43	7
35	39	6
34	41	4
45	57	1
2	6	5
14	18	1
6	46	3
64	67	2
59	70	8
32	53	2
55	61	1
33	77	2
34	39	4
31	32	8
9	20	4
27	75	3
52	67	2
59	77	3
27	65	1
69	75	2
2	36	5
31	41	3
49	50	13
21	23	5
48	74	4
21	43	5
32	49	3
11	48	4
26	31	1
59	65	5
35	54	4
56	67	1
63	70	5
25	41	2
44	54	5
62	70	2
64	68	3
30	36	3
48	66	4
3	11	2
1	24	2
48	50	3
2	21	2
12	38	3
28	34	3
15	40	2
53	56	3
4	7	3
32	36	2
12	32	4
53	58	6
3	70	1
22	32	4
3	77	2
37	72	2
24	28	1
50	53	2
34	40	3
8	12	2
44	65	1
57	75	1
32	59	1
36	38	7
27	58	3
42	47	3
47	52	1
49	57	3
19	21	6
33	36	3
59	61	2
19	22	1
9	12	2
23	40	1
45	47	4
73	75	5
33	34	12
29	39	1
4	13	4
19	24	1
8	38	1
0	77	4
2	58	5
10	48	2
49	61	3
18	48	2
1	58	3
7	13	1
57	74	1
0	27	3
4	31	6
33	71	3
51	57	3
2	11	1
52	60	2
26	28	6
47	50	4
50	59	2
51	53	5
44	48	4
22	53	2
57	71	3
4	27	3
71	74	2
5	52	1
59	67	1
67	70	2
24	41	1
31	45	1
51	67	6
14	27	5
14	45	2
46	72	1
43	47	3
6	68	2
14	51	2
27	31	1
5	7	6
47	70	1
37	48	1
45	56	1
1	21	1
18	71	1
56	77	6
2	5	3
36	44	3
39	46	2
30	33	1
1	76	6
12	33	2
55	59	1
12	18	3
18	49	1
50	77	2
24	31	3
60	73	2
64	76	2
2	24	1
1	3	2
3	12	4
48	59	1
31	33	2
26	36	1
65	68	1
25	27	2
8	59	5
0	59	2
53	59	2
50	52	7
69	76	2
50	58	2
38	40	3
50	76	2
13	19	2
35	40	2
23	41	1
44	75	2
12	21	1
38	72	2
3	31	7
32	35	1
3	26	3
32	40	5
58	73	2
24	44	1
25	75	1
2	74	1
1	27	1
7	71	2
58	63	2
4	11	1
11	12	6
2	8	2
42	62	5
26	72	1
0	24	4
27	29	2
20	23	2
47	55	1
29	57	1
54	64	2
7	65	1
6	72	1
33	40	3
13	43	3
4	29	2
42	44	2
7	70	1
7	36	3
25	73	2
7	11	1
41	76	3
13	48	2
32	76	2
25	49	3
25	67	2
1	68	5
47	66	3
52	62	1
46	56	2
37	76	3
25	40	1
21	63	2
70	74	4
30	37	1
61	64	3
22	33	2
50	67	2
51	59	3
34	44	2
39	44	4
37	44	1
27	70	3
14	59	2
34	48	3
1	5	2
25	59	2
49	69	3
3	28	1
50	54	2
48	53	1
14	29	1
13	24	1
5	13	1
57	76	2
32	48	1
31	53	2
61	65	3
51	63	1
6	29	1
0	76	2
35	45	1
7	25	1
53	68	1
1	53	2
24	30	1
1	25	1
3	71	2
44	47	1
42	53	2
46	70	2
22	48	1
29	34	2
37	71	1
8	14	1
75	77	2
23	29	1
6	32	1
23	33	1
54	58	1
22	25	1
2	33	1
23	27	2
47	71	1
10	33	2
3	6	1
13	42	1
13	45	1
77	78	2
46	73	3
3	38	1
21	64	1
51	54	2
30	34	2
36	39	2
36	54	1
24	34	2
22	30	1
35	37	1
5	22	1
0	15	1
38	71	1
61	71	1
4	8	2
68	76	1
24	77	1
25	76	1
12	19	1
32	37	1
7	19	1
35	51	1
35	38	2
4	14	1
2	7	2
18	20	1
20	59	1
37	43	1
6	24	4
58	62	1
49	76	1
53	67	1
8	57	1
51	65	1
10	12	1
31	72	1
0	7	1
2	9	3
44	49	1
3	34	1
53	63	1
8	18	1
14	31	1
13	27	1
47	68	1
12	43	1
11	19	1
3	14	1
43	49	1
21	25	1
35	44	1
27	68	2
9	60	1
