42	42	15
92	92	2
105	105	24
102	102	26
31	31	7
25	25	13
100	100	14
107	107	3
90	90	7
61	61	24
92	93	10
47	48	6
91	92	4
21	21	6
36	36	11
75	76	4
70	87	2
56	56	26
62	62	9
86	86	11
101	101	9
88	88	14
82	82	21
39	39	17
23	23	32
41	41	17
75	75	12
76	76	25
59	59	24
70	70	16
57	81	1
45	45	9
71	71	9
84	85	3
29	30	9
106	106	6
89	90	2
96	96	17
54	63	2
78	79	4
104	104	16
59	72	3
51	52	7
81	81	15
27	28	3
77	77	6
53	53	11
85	85	12
42	43	12
60	76	4
72	73	6
78	78	9
80	80	17
70	71	3
69	69	12
88	96	5
60	61	12
68	68	15
60	60	17
41	42	7
95	95	14
96	99	4
87	87	14
43	43	10
49	49	14
92	104	3
64	74	1
92	100	3
62	78	5
41	47	3
82	84	5
92	105	3
79	84	6
99	99	17
85	87	3
78	96	4
66	66	10
93	93	6
40	43	3
54	54	14
33	33	8
67	67	2
32	33	7
55	56	10
79	92	1
24	24	10
37	37	13
51	51	3
84	84	6
20	48	4
83	83	9
73	73	10
94	95	4
57	57	13
89	89	3
41	43	6
47	49	2
64	64	11
97	97	11
44	44	6
50	52	2
52	52	9
61	81	3
65	65	15
28	31	3
66	73	3
26	57	2
35	35	16
62	63	5
79	80	15
58	58	3
21	24	3
25	58	2
79	81	4
22	22	3
25	27	3
41	48	7
82	83	8
79	79	10
38	39	4
32	32	10
29	29	7
94	94	13
84	86	5
55	55	11
62	93	2
25	30	2
20	20	4
21	39	1
69	70	2
50	50	15
46	47	5
38	38	11
77	78	7
95	96	2
31	33	8
20	59	4
47	47	9
36	94	3
37	42	4
90	91	8
48	49	3
24	45	1
51	64	2
103	104	1
88	92	2
91	91	7
26	26	7
46	46	10
24	77	2
71	74	1
99	106	2
34	34	7
98	99	5
50	51	6
30	30	10
63	63	14
27	29	4
28	28	5
89	95	3
54	55	6
73	76	5
61	62	3
50	102	3
48	48	7
21	98	2
97	98	11
27	32	2
98	98	10
29	98	4
49	98	1
96	105	3
65	67	2
27	106	1
39	61	5
86	87	4
84	92	3
83	84	6
99	101	1
36	46	4
68	69	5
93	94	2
28	62	4
92	95	2
77	79	2
54	70	3
43	45	1
40	42	2
78	91	2
103	103	7
28	48	1
83	88	2
40	40	6
40	41	10
74	74	9
20	21	5
21	99	2
59	60	3
31	32	1
25	35	1
100	101	2
25	45	1
52	107	3
27	27	2
20	49	1
38	59	2
97	99	5
57	58	3
56	94	2
66	67	3
102	104	1
83	85	1
84	91	1
31	34	1
72	72	2
82	87	2
61	63	1
23	31	2
63	78	2
79	99	6
29	57	2
99	100	1
66	68	1
96	103	1
80	85	2
86	88	1
93	96	1
38	41	2
34	35	2
73	74	1
41	45	1
76	77	3
42	44	1
27	45	1
80	81	1
100	105	2
59	63	1
46	48	2
80	96	1
31	59	1
76	100	2
26	27	1
53	54	4
82	97	3
49	58	1
50	103	3
27	30	3
64	65	1
92	96	1
65	73	1
20	58	1
32	35	3
95	98	1
36	38	1
68	76	1
44	45	1
23	49	1
64	73	1
35	44	1
22	23	4
87	88	1
91	93	1
106	107	1
25	26	1
36	80	1
22	30	1
23	24	1
37	39	1
85	86	1
22	95	1
29	46	1
69	72	1
79	85	1
