183	183	14
160	161	1
192	192	19
43	43	10
156	156	18
181	181	23
20	20	5
146	146	4
13	13	4
1	1	18
106	107	1
23	23	16
172	173	4
110	110	13
49	49	10
168	168	7
153	153	8
50	50	7
107	107	8
104	105	3
153	157	3
26	59	2
11	12	3
185	185	12
190	190	9
44	44	2
186	194	5
47	50	2
94	94	2
187	188	5
37	37	4
56	56	6
4	4	8
5	7	2
149	155	3
58	58	10
47	48	5
93	93	4
194	196	2
65	65	3
105	106	5
108	108	8
112	112	19
153	154	7
109	109	8
158	158	9
0	0	1
184	184	3
58	61	3
124	124	6
48	48	14
165	168	2
17	17	3
195	197	3
121	121	6
165	165	4
39	39	7
149	150	3
27	27	5
96	97	4
191	191	12
14	14	7
42	47	3
15	16	4
185	186	3
98	101	3
105	105	7
181	183	2
140	140	17
173	180	1
78	79	4
52	52	8
115	141	3
129	130	3
115	147	3
34	35	5
160	163	1
9	9	5
15	15	14
33	36	2
159	192	1
115	115	5
102	103	3
189	189	13
22	22	10
106	192	3
137	137	15
146	148	4
161	161	16
28	28	6
56	62	5
54	54	2
148	148	9
28	29	12
173	182	5
184	189	1
142	143	1
191	192	3
30	30	1
159	159	11
36	36	8
145	145	13
127	127	10
1	24	2
177	177	11
1	174	6
122	144	2
134	134	9
133	133	7
113	113	2
128	128	1
179	179	6
126	127	3
167	167	5
165	166	5
161	162	8
166	166	4
195	195	8
186	187	4
62	62	5
118	118	3
95	97	4
176	177	4
196	196	4
25	25	3
80	80	6
128	129	1
35	35	1
135	135	8
62	64	2
125	126	2
174	174	5
96	96	2
142	142	7
133	134	1
86	86	3
87	88	2
41	41	9
101	101	4
6	6	8
157	157	5
132	135	3
141	141	9
126	126	9
8	8	8
172	179	2
193	193	11
42	42	9
104	107	2
45	45	10
160	167	4
181	182	7
144	145	6
188	188	8
99	99	6
172	172	12
143	144	4
169	169	5
147	147	7
126	163	1
73	73	4
17	20	1
17	19	2
29	29	6
167	182	2
114	116	1
95	164	1
18	18	1
169	170	4
98	191	2
196	197	5
21	21	3
71	71	1
31	31	2
47	57	2
89	89	1
67	67	5
175	175	9
114	114	9
66	70	5
108	130	2
74	74	4
45	56	3
125	125	1
119	119	9
149	149	12
45	57	2
109	137	3
186	189	2
64	73	2
180	180	10
89	179	3
170	172	3
83	85	5
57	57	5
64	74	1
108	109	1
146	150	2
171	171	1
104	104	7
103	103	12
8	35	2
175	176	6
151	152	3
107	108	2
177	178	5
68	68	5
1	2	4
82	82	2
100	100	5
60	62	1
70	70	3
136	136	5
106	106	3
119	121	4
162	162	1
122	122	3
72	183	5
142	153	1
66	66	9
129	129	2
187	187	8
166	168	4
136	137	2
167	168	9
131	131	9
144	144	5
146	147	3
192	193	2
32	32	7
83	83	1
163	163	6
183	184	1
53	53	12
151	151	2
143	143	4
10	13	5
59	59	4
130	132	1
104	192	2
72	72	1
78	78	2
124	148	1
107	109	1
93	96	2
2	3	3
187	189	2
3	28	1
82	180	1
10	10	12
46	47	3
0	30	1
51	51	3
40	40	6
103	111	2
46	46	9
102	102	9
99	100	2
71	72	3
58	59	1
125	127	1
42	44	1
178	178	1
75	75	2
173	173	5
39	44	2
77	77	2
63	63	5
152	158	1
84	84	6
19	19	1
154	154	5
112	124	2
137	139	1
64	64	4
122	136	1
26	26	8
118	119	2
147	148	5
107	111	2
132	132	12
99	190	5
106	118	2
59	74	4
170	171	1
34	68	1
33	33	1
94	102	4
185	190	1
148	149	4
168	181	2
190	191	2
122	124	1
184	185	2
150	150	5
174	176	2
33	37	3
194	195	2
121	123	1
164	164	2
132	160	1
79	80	1
197	197	2
114	115	3
124	125	1
138	141	2
24	25	1
5	5	6
12	12	3
16	17	1
51	52	1
118	141	2
136	138	2
109	110	1
156	157	4
64	72	1
27	68	4
106	182	2
155	155	5
183	189	3
150	155	1
62	177	2
93	94	3
138	138	6
33	34	2
55	56	5
36	37	1
176	176	1
173	176	1
161	168	1
195	196	1
162	171	1
104	118	2
171	187	1
60	60	3
186	186	3
10	11	2
131	142	4
42	43	2
157	158	1
117	118	2
139	139	7
194	194	4
88	88	2
85	86	1
72	73	2
160	160	2
116	116	1
141	146	3
113	147	2
4	9	1
155	156	3
87	172	1
66	88	4
163	164	3
5	38	1
3	4	4
156	175	1
0	9	2
138	153	1
95	102	3
139	158	2
11	15	1
123	161	1
41	58	1
6	7	4
10	52	1
20	22	1
0	1	4
180	182	1
106	120	1
170	170	1
173	174	4
120	120	1
30	31	4
182	182	3
67	68	2
176	178	1
5	17	2
73	74	2
117	117	1
158	177	2
165	167	1
152	155	1
134	137	1
96	160	1
64	67	1
158	176	1
94	105	1
152	152	2
81	81	2
42	141	1
21	23	1
9	33	1
63	64	2
154	181	1
115	116	2
146	151	1
65	73	1
11	39	2
104	119	2
77	78	1
48	49	1
16	16	1
16	37	2
97	97	2
139	157	2
122	123	1
45	123	2
150	156	2
75	76	1
123	123	3
68	181	1
148	162	1
16	18	1
47	149	1
155	180	1
142	156	1
2	24	1
107	182	1
26	58	1
38	39	1
0	21	1
111	112	1
7	7	1
139	140	1
40	60	1
122	142	3
161	171	3
49	50	1
17	18	1
140	157	1
20	21	2
2	25	1
121	122	1
54	55	1
143	175	1
81	82	1
12	14	1
36	73	1
148	157	2
55	88	1
79	79	1
11	37	1
3	3	1
3	27	1
113	114	1
11	11	1
62	86	1
82	87	1
132	134	1
137	180	1
48	94	1
158	159	1
22	24	1
150	174	1
102	125	1
24	24	1
37	41	1
132	156	1
105	110	1
