2	2	8
169	169	11
84	84	16
73	74	1
170	170	14
73	73	18
161	161	3
5	5	7
136	137	3
164	164	14
134	134	16
148	149	2
30	30	8
59	59	12
106	107	8
107	107	12
115	115	4
122	155	2
122	122	15
151	151	9
88	89	9
62	66	5
184	184	19
47	47	17
70	71	6
187	189	4
146	146	2
74	74	4
133	133	8
31	31	4
65	71	2
5	112	4
127	132	6
78	78	10
37	38	7
142	143	2
124	155	2
55	55	12
150	150	8
65	65	8
7	7	18
14	17	1
154	163	1
79	79	16
181	181	15
174	175	8
140	140	34
11	11	7
129	129	20
16	16	9
149	149	19
117	132	5
77	78	11
88	88	15
148	151	2
95	97	2
180	180	7
56	56	10
172	172	5
84	85	1
101	102	5
123	123	22
24	24	18
41	41	24
112	112	9
77	90	4
111	112	6
18	19	4
1	3	2
156	156	3
116	116	6
99	99	4
148	148	13
11	27	1
55	62	2
79	82	2
186	186	11
185	185	15
26	26	7
85	87	4
7	8	5
40	40	13
144	167	3
173	173	11
174	174	6
24	25	8
46	47	5
175	175	17
56	62	7
137	170	3
143	145	3
58	61	1
36	37	6
1	1	15
40	80	3
57	57	9
32	33	6
37	37	13
87	88	6
150	151	5
62	64	5
153	153	9
80	129	2
8	8	4
23	24	15
3	3	13
58	58	8
6	8	4
170	171	7
138	138	9
25	26	14
120	131	2
119	120	3
82	127	4
32	34	2
20	21	6
183	186	4
118	119	4
76	76	5
178	178	11
92	93	2
152	152	9
183	184	12
138	181	3
48	48	23
169	170	9
155	157	2
126	156	8
12	12	4
168	168	12
55	56	2
134	135	5
7	25	4
19	19	5
152	153	4
113	146	4
58	65	1
83	127	6
45	45	8
83	85	2
141	142	13
141	141	8
125	125	4
93	93	3
187	188	2
68	74	1
140	141	3
163	164	6
95	95	5
142	142	9
57	94	2
75	139	1
44	46	5
138	139	3
139	140	7
147	147	4
143	143	9
109	110	9
190	190	2
39	39	12
167	168	6
93	94	15
52	52	4
28	28	3
60	60	1
87	110	5
89	89	18
183	183	19
145	186	3
76	77	4
45	46	7
90	90	3
122	127	5
177	187	1
14	15	10
23	23	11
171	174	3
110	110	20
33	33	5
72	73	11
59	93	3
126	127	4
42	42	11
17	18	2
133	179	3
122	126	3
8	13	4
189	189	15
102	102	9
33	35	2
163	163	7
107	109	1
106	106	6
22	23	10
89	90	3
29	29	8
43	71	1
164	165	9
36	36	9
84	108	5
111	132	2
113	119	3
46	46	10
21	21	8
157	158	3
165	169	1
38	38	10
91	98	1
171	173	3
99	101	4
82	83	3
86	86	11
31	32	4
76	82	3
160	160	8
102	119	5
81	81	5
77	77	8
14	14	6
113	120	2
39	40	7
154	155	3
72	72	4
38	39	7
148	150	5
64	65	2
6	7	12
26	30	2
34	38	8
120	120	17
160	163	5
128	175	3
27	28	1
127	128	5
113	113	15
6	6	10
115	116	4
126	126	7
80	80	9
128	128	3
25	25	6
78	84	4
13	14	5
124	124	5
54	73	2
103	103	4
57	58	2
182	183	11
179	179	8
121	121	2
125	157	1
114	114	4
53	53	7
87	87	8
58	114	12
0	4	1
97	97	6
53	54	6
169	186	4
92	92	5
35	113	5
15	15	17
132	133	7
176	176	1
154	154	12
92	115	3
54	74	1
78	87	4
101	101	6
35	55	4
139	139	13
114	115	2
107	151	2
104	104	14
179	181	4
149	162	2
76	92	3
78	83	2
52	53	2
170	176	1
146	150	1
111	177	1
111	111	8
28	30	8
109	111	1
165	165	4
18	18	10
91	91	6
86	150	3
34	34	4
80	81	7
92	94	5
56	57	7
47	48	1
85	121	3
3	4	1
16	17	2
63	64	4
147	155	1
100	100	8
124	156	2
9	16	1
118	136	1
83	128	1
100	102	1
56	72	1
67	67	2
112	141	2
127	130	4
167	167	2
96	100	4
98	98	6
25	36	8
131	170	6
76	79	1
144	152	1
170	186	1
56	68	1
22	22	3
74	76	5
172	173	4
23	38	3
187	190	5
137	138	2
60	63	1
20	20	8
159	171	1
13	111	4
9	10	1
96	96	5
187	187	10
34	74	1
112	119	3
140	142	1
108	121	4
82	82	5
98	101	1
84	87	1
158	167	3
106	108	8
43	44	4
96	97	2
75	117	2
0	2	2
27	30	1
133	136	1
44	44	1
109	109	7
100	101	4
13	25	3
80	82	2
71	71	7
24	36	4
97	101	2
101	118	3
166	180	2
19	20	7
166	167	2
9	111	1
161	162	2
91	93	1
10	27	1
108	108	7
31	34	2
182	186	1
145	145	5
76	91	2
150	164	2
156	167	2
58	60	1
84	125	2
37	70	1
127	127	3
103	104	3
122	123	4
166	166	6
42	66	1
91	92	7
54	65	2
156	161	2
23	37	1
130	130	10
78	125	4
0	6	1
95	96	3
92	97	1
21	22	5
34	35	2
136	136	1
131	132	7
82	128	3
10	10	8
166	169	4
104	117	4
162	162	5
178	180	2
3	7	4
175	176	4
41	42	3
83	83	5
9	27	1
125	174	4
12	15	2
189	190	2
173	174	1
54	54	7
135	139	3
42	48	2
117	118	4
99	100	2
119	119	4
40	41	3
104	105	6
70	70	4
134	170	3
105	105	9
35	36	1
98	100	3
168	169	5
120	154	3
29	31	4
118	118	4
151	154	2
168	172	1
75	75	6
183	185	3
46	48	1
100	103	2
125	139	2
15	16	2
113	147	2
66	68	3
53	73	3
35	35	7
29	30	2
145	164	1
62	63	2
177	177	8
185	189	1
11	12	1
42	56	3
112	113	7
129	152	1
129	130	2
7	26	1
96	118	2
77	79	2
62	65	2
17	17	7
22	49	1
100	139	2
84	121	1
159	160	1
58	115	3
21	24	2
68	110	2
82	126	1
57	74	2
184	185	7
146	147	2
130	132	1
138	142	1
54	55	3
123	124	1
30	31	1
94	95	1
155	164	2
0	0	7
45	47	1
2	3	4
108	109	4
135	135	3
97	98	2
65	66	2
171	171	2
42	43	1
149	177	1
154	164	2
126	130	2
92	110	3
0	5	1
86	110	2
30	32	2
116	117	1
84	148	2
180	181	1
58	59	3
154	162	2
79	130	1
174	178	1
139	141	1
120	123	1
43	43	2
135	136	1
99	139	1
68	68	8
64	73	1
96	98	2
110	139	3
95	138	1
157	161	1
13	13	1
91	97	1
122	154	2
140	144	1
10	11	2
170	173	1
66	95	1
36	58	2
1	7	5
101	103	1
67	68	1
61	61	3
116	152	2
131	131	2
160	161	1
177	178	2
176	180	1
85	85	6
117	117	3
66	67	1
76	78	1
26	27	3
40	78	2
36	55	1
4	4	2
80	130	2
137	164	1
134	176	1
140	143	2
38	70	2
69	69	1
64	64	3
72	82	1
115	138	1
98	99	1
169	175	2
141	176	2
105	106	3
162	163	4
48	52	3
163	166	3
114	118	1
58	74	2
33	74	1
57	114	2
81	130	1
12	111	3
0	38	1
93	96	1
154	186	3
4	162	1
60	61	3
134	137	1
23	36	1
37	88	1
176	177	1
133	174	1
72	86	1
111	117	1
7	89	1
157	165	1
90	91	1
78	79	2
179	180	1
52	87	1
186	187	1
62	62	2
137	137	2
114	117	1
46	64	1
141	143	1
71	79	2
168	174	2
161	163	1
63	65	1
63	63	1
113	117	1
121	122	1
2	25	1
114	116	1
59	60	1
158	158	1
156	157	2
76	110	1
56	58	2
27	27	1
32	32	1
127	158	1
164	166	1
56	74	2
57	68	1
113	114	1
165	166	1
137	172	1
134	136	2
124	125	1
176	186	1
93	98	1
68	69	1
71	86	2
55	158	1
102	108	1
9	154	1
36	38	1
10	12	1
32	75	1
14	23	1
28	31	1
21	23	1
112	114	1
42	63	1
4	5	1
145	152	1
101	119	1
108	151	1
83	84	1
