137	137	28
19	19	15
107	107	10
88	109	5
34	34	22
135	135	11
73	74	3
130	130	18
3	3	28
15	15	5
134	134	14
104	104	13
74	74	33
123	123	17
76	76	14
8	8	16
126	126	12
85	86	5
129	129	23
106	107	4
89	95	1
4	4	21
116	123	5
21	21	12
98	134	2
22	29	3
131	131	11
127	130	1
100	101	4
79	89	1
75	77	3
7	13	6
44	44	2
89	125	1
139	139	19
95	95	17
117	117	18
128	141	1
13	14	14
80	80	12
80	124	2
125	125	17
93	94	8
121	123	4
133	133	24
114	131	6
115	115	8
94	94	14
127	127	20
123	125	5
117	140	3
4	68	4
12	14	5
101	101	17
19	20	8
113	114	2
29	32	1
88	88	22
87	88	4
77	80	3
133	134	11
87	87	23
78	78	8
21	27	1
118	120	1
128	128	13
28	28	15
107	117	3
115	131	4
106	106	7
79	84	3
0	12	1
84	85	2
82	83	4
132	132	16
82	82	4
76	125	2
79	79	4
3	4	5
133	137	7
15	128	2
102	102	8
125	126	5
76	77	5
121	121	40
25	25	2
106	117	5
27	27	21
11	11	10
27	28	5
111	111	13
98	135	3
108	108	8
97	116	1
140	140	29
118	121	3
122	122	19
104	105	5
10	10	11
120	120	12
0	0	16
97	97	5
6	6	8
124	124	15
26	26	12
25	26	7
73	73	5
12	31	2
17	78	5
35	35	15
127	135	3
81	82	6
99	100	3
100	100	20
118	119	4
78	82	5
86	86	9
89	89	6
87	93	3
75	99	3
9	9	10
22	24	1
105	105	17
110	111	10
116	122	5
114	114	18
116	116	17
11	13	4
96	96	5
8	9	8
136	138	3
20	25	5
75	75	16
88	91	1
29	29	6
77	77	30
123	124	7
93	93	12
3	6	1
87	105	1
120	121	9
112	112	11
90	91	3
19	38	3
91	91	6
16	17	1
38	38	8
33	33	11
126	129	3
1	2	2
17	17	13
81	109	1
7	24	2
94	104	1
72	72	2
4	5	1
32	32	5
11	12	4
16	31	2
129	130	10
127	129	2
113	113	9
135	136	6
10	16	2
129	138	3
99	99	5
86	95	4
25	76	2
28	31	1
5	14	1
0	1	5
129	140	1
103	103	14
18	18	10
113	140	5
35	36	8
31	31	12
81	89	1
118	118	8
24	30	9
124	125	4
16	19	2
136	136	9
89	96	1
116	128	2
90	90	7
32	77	2
76	104	2
37	72	6
141	141	1
101	140	1
17	32	1
126	128	2
109	114	3
71	85	1
36	36	12
14	14	8
77	78	2
110	110	14
102	119	2
98	98	12
136	137	8
75	76	1
78	79	2
119	120	5
7	23	6
108	109	9
112	125	3
126	127	5
21	32	3
22	22	8
3	32	3
112	115	3
20	20	12
2	8	3
113	115	1
102	103	3
5	5	8
3	8	2
30	31	4
131	132	5
7	25	4
24	24	8
93	103	1
96	101	3
74	75	7
85	85	4
117	121	3
138	138	12
32	78	4
77	104	1
111	137	1
8	12	3
71	84	3
72	73	2
1	8	6
81	81	2
76	78	6
84	84	5
7	7	7
114	130	1
20	24	2
86	111	1
1	32	1
134	136	1
78	85	1
137	138	3
98	116	2
86	108	2
26	78	1
24	78	2
112	113	3
109	119	4
119	119	5
85	115	1
90	107	1
109	116	1
32	33	2
76	93	2
72	79	2
30	30	3
24	33	3
1	1	6
109	115	3
95	113	3
127	140	1
130	140	3
128	132	4
12	12	3
90	100	1
76	92	1
2	27	3
8	14	3
71	71	2
92	92	2
89	90	1
96	108	2
138	139	4
21	22	2
94	140	2
91	92	2
122	123	3
128	129	4
24	25	1
109	109	3
85	111	1
86	102	4
21	103	1
88	92	3
16	16	8
83	83	5
81	108	2
23	23	2
79	81	2
13	13	5
20	21	3
30	34	1
118	122	2
19	21	2
75	92	3
114	115	2
107	108	3
37	130	2
86	120	4
112	118	3
2	2	4
66	72	1
122	125	6
85	108	2
88	102	2
20	103	2
24	32	1
88	106	4
111	112	5
127	134	3
66	73	1
99	117	1
125	135	4
4	77	1
18	34	1
30	32	2
121	122	2
0	31	2
72	104	4
101	102	2
116	117	1
86	88	3
77	88	3
1	9	1
14	15	1
79	105	4
135	137	1
11	14	1
83	84	3
77	105	1
100	127	1
34	35	1
132	137	3
81	85	1
100	135	2
37	37	1
92	103	1
7	8	1
128	137	1
125	136	1
88	108	1
97	127	1
34	101	1
116	140	1
28	29	1
36	37	1
15	34	1
12	13	1
2	4	1
9	13	1
88	103	1
109	117	1
92	140	1
14	32	1
32	93	1
115	116	1
69	69	1
37	71	1
32	76	1
79	85	1
100	126	1
120	122	1
102	140	1
