23	23	14
14	22	3
2	2	21
14	14	9
21	21	14
121	121	24
67	67	9
128	128	10
20	20	15
27	28	12
41	43	2
91	92	8
57	57	25
32	34	7
126	130	4
123	124	4
68	68	9
99	99	13
86	86	7
133	133	7
116	116	13
11	11	8
107	107	20
46	46	12
38	38	11
53	53	18
26	26	4
102	102	15
33	38	1
19	21	8
93	93	14
129	130	3
131	132	8
47	47	11
132	132	15
76	76	13
43	43	14
83	83	11
99	100	12
47	48	10
28	47	4
64	64	18
10	10	18
116	117	3
114	115	7
51	51	17
124	127	4
113	113	15
126	126	12
3	3	7
20	29	1
104	104	25
119	119	24
52	52	19
41	41	21
103	106	6
96	96	18
123	123	13
75	75	11
17	23	2
77	77	15
69	69	18
114	121	2
112	112	14
70	70	27
70	75	2
92	92	16
25	25	13
101	101	12
19	19	11
90	91	7
78	88	2
29	29	9
99	128	1
46	56	1
54	55	2
12	12	25
9	9	9
107	130	3
12	13	3
18	19	7
16	16	11
26	58	3
127	127	11
81	89	4
62	62	5
19	20	2
6	6	8
93	105	3
107	108	4
79	79	14
89	89	20
103	104	13
39	40	5
98	98	6
44	47	6
110	110	26
40	40	10
19	45	1
46	48	1
124	131	3
125	130	5
53	54	5
57	58	1
48	48	19
15	16	8
124	124	13
120	120	7
51	52	2
50	50	12
5	6	3
67	68	3
103	103	7
73	74	6
31	32	7
66	66	5
28	28	7
11	12	3
32	32	10
80	104	4
98	99	5
126	127	4
25	26	7
71	71	4
13	13	7
61	62	1
118	118	10
102	114	1
3	53	1
5	14	2
104	117	1
69	70	10
18	18	14
33	33	6
42	42	18
83	84	4
68	70	3
101	108	1
104	105	12
50	52	3
96	98	5
113	114	2
105	105	6
109	109	16
42	65	5
106	107	1
87	87	6
39	39	4
51	76	4
64	104	2
117	131	2
63	63	9
68	69	1
122	123	6
72	74	1
71	116	1
31	31	5
44	44	20
5	5	11
40	47	1
54	54	17
102	103	5
1	1	17
125	132	3
43	44	13
84	102	2
45	45	14
7	42	2
94	132	2
94	94	14
97	103	1
19	23	2
80	80	11
45	46	6
90	90	18
49	49	12
96	127	2
100	100	6
110	116	1
108	109	8
62	63	2
24	24	7
72	72	6
5	13	6
101	119	5
85	86	2
95	95	3
115	116	3
102	105	2
23	62	2
61	61	4
114	114	16
111	111	16
79	80	2
127	128	7
59	60	5
26	27	2
46	47	3
3	4	3
7	8	3
119	120	2
73	73	11
28	30	3
119	126	7
105	107	2
99	101	3
125	126	7
15	15	7
80	103	2
38	45	1
27	27	9
97	97	10
65	66	11
60	61	3
86	88	3
0	1	4
88	89	6
125	125	22
71	75	4
65	65	16
64	65	4
30	30	8
63	66	2
108	108	10
56	56	15
122	122	9
73	98	1
56	57	5
30	43	1
9	14	1
77	86	1
17	17	3
106	106	5
95	96	4
84	84	2
51	53	1
66	118	3
110	111	3
23	61	2
58	59	2
86	87	5
130	131	5
115	115	15
60	60	7
66	72	1
115	118	2
40	44	8
43	76	2
77	81	2
104	115	2
94	95	2
70	71	2
92	93	4
82	82	5
101	102	2
21	25	3
25	28	1
42	48	1
63	65	5
0	0	11
9	10	2
105	120	2
78	79	4
30	62	3
120	121	2
29	30	4
26	45	4
2	3	8
18	31	2
25	32	4
79	81	1
64	67	2
81	88	1
50	74	1
29	81	2
54	57	1
38	68	1
22	22	9
118	119	5
55	55	17
131	131	4
98	101	1
90	94	1
42	64	2
75	76	1
91	91	11
7	7	8
117	120	3
95	112	2
80	82	2
71	72	3
71	104	2
130	130	4
22	29	1
72	116	2
29	31	1
7	13	2
22	27	2
111	112	5
114	116	7
70	90	1
24	54	2
16	22	3
39	45	1
55	56	5
22	23	1
22	33	1
17	18	5
93	108	1
129	129	5
81	103	2
84	86	2
100	101	2
95	114	2
59	63	1
115	127	2
38	80	1
125	129	4
32	33	3
107	109	1
49	50	4
21	60	1
4	41	2
105	106	5
76	100	1
16	21	1
4	6	2
50	51	7
63	71	3
4	4	7
82	83	5
32	68	2
32	39	1
109	110	1
118	126	4
52	53	1
21	24	3
50	70	3
38	44	1
78	78	1
91	94	2
47	71	2
42	43	9
7	48	1
74	98	2
8	27	1
10	11	1
85	85	2
91	95	1
93	94	3
31	57	1
8	40	2
80	83	1
113	117	1
10	14	4
67	97	1
22	44	1
89	91	2
25	44	1
90	99	2
41	63	1
116	119	2
44	45	1
114	118	3
82	84	3
13	42	1
44	88	1
22	38	1
34	39	2
79	99	1
41	42	2
108	125	2
23	24	1
21	50	4
8	8	2
38	39	3
122	132	1
112	113	1
47	50	1
20	27	2
104	106	1
51	71	1
46	50	3
22	24	1
85	87	1
44	85	1
20	122	1
117	117	2
77	79	1
124	125	2
13	15	1
41	72	2
88	131	1
91	93	1
88	88	4
8	63	1
107	110	1
30	119	1
55	58	1
58	58	2
29	32	1
0	10	1
23	33	1
6	13	1
74	74	1
1	2	1
110	112	1
88	90	1
58	62	1
109	111	2
87	88	1
8	39	1
75	101	1
99	103	1
16	17	1
121	122	1
6	7	1
75	77	1
21	22	1
33	34	1
34	34	1
115	119	2
89	90	1
3	63	1
20	22	2
82	91	1
1	26	1
