97	122	1
105	116	4
34	34	1
54	54	3
109	112	6
126	134	2
77	77	1
28	28	3
16	16	24
77	78	4
98	99	2
133	138	2
104	104	5
21	107	3
95	95	3
134	134	5
101	101	7
18	20	4
36	53	2
23	24	4
39	53	2
80	81	2
131	133	4
2	2	3
138	139	1
1	1	3
46	46	3
97	130	1
96	96	16
120	121	7
45	48	3
79	103	4
31	35	4
146	147	6
50	50	2
155	157	1
125	134	2
143	143	3
153	157	3
68	69	5
28	115	2
78	78	5
98	98	9
137	137	6
157	158	2
84	84	11
150	150	7
92	92	18
110	110	5
31	32	3
155	155	3
68	71	4
37	37	1
113	113	1
11	11	4
89	90	1
109	109	2
33	33	3
25	25	12
141	154	1
12	15	3
140	141	2
133	133	6
29	29	6
107	108	3
89	91	2
77	104	2
57	57	6
80	80	3
116	116	3
42	42	6
153	153	2
148	148	3
76	76	8
28	32	2
56	56	1
147	147	3
84	86	2
4	4	2
24	121	4
66	66	4
28	29	6
128	128	7
102	102	4
124	145	6
70	70	1
103	103	2
1	2	4
123	123	9
51	52	1
71	71	9
8	8	4
145	145	7
82	82	2
138	138	6
97	97	1
25	26	3
123	125	1
36	36	6
25	42	2
50	78	3
22	106	1
120	125	4
141	141	1
64	113	1
126	133	2
158	158	5
118	118	2
0	0	5
51	80	1
130	130	7
140	140	4
148	149	1
74	74	3
147	148	3
113	115	6
127	127	6
155	156	4
90	136	2
131	131	4
106	107	4
49	49	4
136	136	3
108	108	3
66	90	1
48	48	7
40	40	1
124	124	3
19	96	4
41	42	6
133	142	4
88	97	4
27	27	5
51	51	6
115	115	1
136	137	2
2	29	3
113	117	2
45	45	3
47	47	4
47	51	2
24	24	5
53	107	2
67	67	8
44	44	3
3	3	1
52	52	2
63	121	3
46	47	2
110	135	4
73	73	1
129	129	3
156	156	5
21	21	4
132	132	3
151	152	3
69	70	3
75	75	4
154	155	3
17	18	2
125	145	2
15	43	4
76	77	4
4	64	3
38	52	5
123	140	2
7	7	3
152	152	2
119	120	3
8	9	1
31	33	2
15	15	3
88	88	2
43	43	4
61	144	1
18	19	3
16	26	2
98	102	1
117	118	2
157	157	5
20	20	1
94	137	5
131	132	2
17	17	4
91	92	4
9	10	1
64	64	3
146	155	1
65	67	1
78	79	2
64	117	3
40	41	1
71	96	1
52	53	2
142	142	3
66	77	2
79	79	3
90	90	1
67	70	2
38	54	2
126	126	2
31	31	1
5	6	2
55	55	1
109	110	1
99	100	1
22	22	2
12	13	1
85	86	1
85	94	2
85	85	2
14	15	2
18	22	1
24	43	4
42	43	1
90	129	1
7	156	3
20	107	1
95	97	3
93	94	1
2	3	2
149	153	2
33	34	1
87	87	1
124	137	1
0	2	1
81	81	1
32	33	1
86	86	1
132	133	1
5	5	3
122	122	1
19	25	1
72	72	1
38	50	1
68	68	2
73	74	2
91	91	1
32	32	1
31	38	1
153	154	1
82	83	1
5	28	1
119	119	1
35	35	1
107	107	1
50	57	1
112	112	1
139	139	2
36	69	1
75	82	2
101	102	1
145	150	2
81	82	1
80	82	1
11	27	1
113	114	2
121	121	1
80	138	1
27	46	1
53	53	1
150	151	1
42	45	1
73	75	1
99	99	1
9	9	1
114	114	1
140	150	1
100	100	1
94	94	1
128	129	1
87	118	1
