96	96	17
46	47	9
66	66	8
48	48	7
14	16	2
98	100	5
29	29	5
98	98	9
130	130	13
48	124	3
78	78	9
50	57	5
75	79	2
100	100	4
116	116	15
33	129	1
97	97	13
40	40	11
118	119	4
55	106	1
14	14	8
93	93	13
83	83	13
73	101	2
87	127	4
18	81	5
42	42	10
65	66	9
76	76	17
25	25	14
4	11	3
50	52	2
5	5	8
30	34	1
18	21	5
2	20	1
45	61	4
110	111	9
121	121	9
46	46	4
65	65	19
122	123	2
34	65	6
53	109	4
97	117	2
56	56	18
54	54	15
4	4	9
64	64	5
27	44	3
32	32	5
63	67	1
43	58	2
80	80	8
111	125	6
109	109	4
74	74	5
5	7	3
0	1	8
47	58	6
111	111	20
126	127	11
107	107	9
101	105	1
28	28	5
82	82	13
109	111	6
2	24	4
59	59	4
125	125	7
77	77	15
10	84	3
8	24	5
8	8	17
20	20	13
49	49	8
18	18	9
113	113	13
57	58	4
24	24	7
30	32	5
106	106	7
22	33	3
44	120	1
89	89	11
58	61	3
117	117	11
43	43	5
26	97	4
67	99	9
68	88	5
44	44	11
99	100	4
14	81	5
81	81	9
73	73	6
122	122	5
11	11	11
124	124	11
27	116	1
94	95	3
27	27	7
41	41	7
120	123	3
50	50	16
9	61	1
120	121	4
102	105	1
82	83	2
2	4	8
33	65	1
5	18	2
38	38	8
52	53	8
126	126	7
70	119	3
54	112	1
53	100	4
83	84	10
108	109	4
45	55	2
77	84	5
15	23	5
49	50	2
49	92	3
62	62	5
21	24	6
114	114	12
26	26	14
21	21	9
63	63	9
51	52	4
131	131	11
75	80	3
98	99	5
60	61	4
41	42	6
51	51	7
14	88	4
97	98	4
93	94	5
41	43	4
123	124	1
84	84	6
42	43	13
129	129	10
33	33	10
21	28	2
53	53	11
127	129	6
9	9	15
20	27	7
15	66	3
106	108	3
66	97	5
86	87	5
2	5	2
42	66	2
5	14	1
46	59	3
118	118	26
77	100	3
76	77	5
61	63	3
45	125	1
19	19	13
39	39	12
70	70	7
68	68	1
116	122	2
19	54	4
91	91	11
129	130	6
6	6	3
120	120	13
21	30	6
132	133	1
87	87	7
23	23	5
88	88	8
61	61	3
86	86	7
115	115	10
13	13	7
38	43	3
108	108	3
114	117	2
15	17	1
28	31	3
62	65	2
101	101	8
110	126	1
12	12	13
6	19	2
7	60	2
16	17	5
43	67	2
90	91	11
15	15	1
47	124	5
102	102	6
7	7	9
47	47	6
128	131	2
91	93	3
103	103	5
73	125	2
34	129	1
81	82	2
79	79	9
28	32	5
17	17	6
74	97	2
112	112	2
18	28	2
123	123	8
128	129	2
106	110	9
2	3	1
46	130	6
89	90	4
73	127	5
19	117	1
119	119	11
5	8	6
62	63	1
8	113	4
68	125	3
23	103	5
76	84	1
110	110	9
80	116	1
22	25	3
75	75	3
13	18	6
15	127	3
45	45	5
56	57	4
31	31	3
5	11	2
3	3	6
23	31	2
12	13	5
127	127	3
110	112	1
52	52	7
109	110	4
24	29	3
61	62	2
54	96	2
115	116	2
34	34	3
114	116	6
16	16	8
120	122	5
51	57	2
116	117	4
126	128	5
43	108	1
117	118	3
61	84	3
57	57	15
67	97	7
61	85	3
26	31	3
77	79	1
22	28	1
31	33	3
121	122	6
40	41	3
26	32	1
15	16	6
70	132	2
49	52	3
128	128	10
49	96	2
30	30	3
42	67	3
78	79	6
26	66	1
71	72	3
63	68	1
107	108	4
25	30	3
45	46	2
70	118	1
77	83	1
51	118	2
22	30	6
94	94	3
43	106	1
38	39	4
64	65	3
73	79	1
11	12	1
69	70	2
17	114	3
76	97	2
67	67	1
2	2	3
90	90	5
26	113	3
131	132	9
45	128	1
124	125	2
27	31	2
10	10	3
69	132	2
95	95	1
79	80	4
9	21	2
133	133	3
108	128	1
38	80	1
47	48	2
100	119	2
74	83	2
58	58	3
77	78	9
118	131	5
15	27	1
34	39	2
21	23	1
71	71	6
44	97	4
105	105	2
104	104	14
7	12	1
33	52	3
86	88	3
21	114	1
105	110	1
32	103	3
44	47	5
82	87	1
80	81	6
5	17	3
32	43	5
30	33	2
47	49	1
91	94	3
24	25	3
75	76	2
62	98	3
69	76	3
46	124	1
96	97	2
48	71	1
85	86	2
92	92	3
88	90	3
102	107	2
69	69	2
13	14	2
55	119	2
73	74	4
33	34	2
49	132	4
27	66	3
44	99	2
40	42	3
104	106	1
97	100	1
41	97	1
45	47	2
53	54	2
0	0	2
72	72	6
72	128	2
18	114	2
76	78	4
45	53	1
1	1	5
41	80	3
91	92	3
21	105	2
24	33	3
46	51	3
23	28	1
38	87	4
50	56	3
34	104	1
4	14	4
31	32	2
43	107	3
24	26	1
48	56	1
72	99	2
44	88	1
104	105	3
99	99	3
64	67	2
125	128	2
59	98	2
30	31	4
132	132	5
2	7	2
130	131	2
111	112	3
88	89	3
21	32	3
126	131	2
71	133	3
68	89	5
22	22	4
75	81	2
19	20	1
90	92	1
29	30	3
27	45	2
7	25	1
49	51	1
39	41	3
48	111	1
70	77	2
101	108	1
111	119	1
70	120	1
45	97	1
4	13	1
66	67	2
42	101	1
40	47	4
74	127	1
3	4	2
59	64	1
42	63	1
111	127	1
14	127	3
8	11	2
90	95	1
33	103	2
1	6	1
102	106	1
55	56	1
48	52	1
15	74	1
58	69	2
14	78	1
1	2	1
45	68	1
18	69	3
1	5	1
103	109	1
14	15	1
39	104	1
103	105	2
13	130	1
16	18	1
45	118	1
45	54	1
111	126	1
77	99	1
71	74	1
102	103	1
51	119	1
100	129	1
76	129	1
27	109	1
96	124	2
