135	135	8
129	129	6
126	126	13
101	101	7
67	67	9
110	110	9
112	112	11
113	113	4
29	29	16
18	19	8
105	105	13
151	151	17
14	14	10
146	146	12
26	26	10
84	84	9
43	44	5
44	44	5
64	66	4
3	3	13
109	109	13
141	146	1
94	111	3
102	103	3
73	73	11
104	104	5
31	45	5
139	140	3
120	120	1
65	70	1
38	38	4
2	81	2
123	123	5
136	136	11
11	11	15
49	49	6
15	18	6
16	35	4
21	21	23
156	156	5
120	121	15
32	32	8
132	136	4
108	111	3
130	131	4
2	23	3
152	152	13
46	47	5
144	144	12
70	70	3
71	71	6
131	132	4
12	13	5
49	50	2
94	94	10
130	130	9
28	51	5
29	31	2
43	43	6
33	34	3
49	54	4
29	130	4
138	138	11
106	116	3
131	133	2
76	76	3
3	22	2
127	127	11
140	158	2
91	91	12
37	42	6
133	134	5
96	127	5
20	20	5
10	18	4
82	82	5
18	18	4
78	79	4
143	143	8
16	16	14
121	121	6
140	140	9
50	54	3
86	86	5
90	90	16
78	78	7
87	87	9
125	127	1
30	30	4
149	150	3
53	53	16
55	55	11
112	137	3
114	115	6
127	128	5
80	80	11
4	4	8
48	48	19
31	31	3
122	122	8
108	109	14
132	132	5
36	37	5
81	84	6
21	25	2
139	139	20
90	99	2
25	25	2
133	133	18
124	154	3
93	93	10
6	8	1
99	99	4
17	17	11
104	147	2
135	136	3
16	30	4
129	130	1
25	26	8
62	62	6
22	22	1
154	158	4
79	83	2
21	90	4
107	107	9
47	47	3
78	81	6
143	153	3
20	38	2
114	114	7
17	18	10
95	95	6
132	135	3
27	32	2
98	98	11
128	139	6
23	23	4
106	106	14
124	125	1
63	69	4
69	69	6
8	8	5
118	118	9
142	142	7
51	55	3
100	100	8
77	77	12
40	41	5
148	148	9
87	88	6
29	30	6
10	10	11
81	81	9
27	27	2
154	156	2
14	15	6
151	152	1
111	111	6
116	116	13
133	155	2
52	52	16
141	141	1
1	2	3
86	107	6
16	38	4
30	47	6
100	101	3
79	82	7
112	121	2
49	52	1
26	30	1
32	132	1
106	115	2
35	35	6
92	92	6
122	145	2
32	34	4
37	37	6
26	27	6
153	156	6
142	147	4
42	57	2
70	71	5
115	115	4
147	149	4
12	12	2
113	116	1
118	121	3
45	47	4
24	24	7
75	75	10
17	56	3
0	43	4
51	51	4
3	4	3
121	147	2
108	108	13
85	86	14
13	13	6
149	155	2
24	25	2
4	5	5
9	9	5
25	89	1
94	95	6
89	89	6
126	127	4
20	27	2
145	146	1
14	16	2
107	111	3
85	118	3
54	55	3
33	33	2
35	40	1
14	34	2
13	52	4
117	118	1
143	146	2
30	34	1
69	70	6
28	95	6
51	52	3
108	112	3
140	141	7
115	116	9
107	142	1
36	83	2
105	106	8
16	19	4
19	19	7
46	46	4
68	68	1
4	48	2
139	148	4
95	105	1
45	45	2
47	48	1
64	67	3
23	46	2
63	64	5
3	45	1
48	49	4
106	107	8
95	97	9
12	108	2
65	69	2
37	38	2
9	38	8
120	122	3
124	157	2
4	49	1
147	147	4
94	99	5
20	28	9
66	66	1
73	95	1
117	117	5
2	21	3
154	155	4
124	127	1
10	111	3
103	103	5
19	20	3
145	152	1
34	34	6
120	137	6
147	150	3
132	133	3
41	41	5
50	50	5
2	38	4
104	121	1
116	131	6
153	153	4
7	7	8
14	35	3
147	153	3
65	65	3
56	71	4
2	26	1
5	5	3
119	120	2
119	137	3
156	157	2
134	136	7
109	111	1
77	105	1
17	23	1
16	18	4
82	83	1
67	68	2
123	140	5
112	113	3
32	45	1
27	28	6
144	146	3
136	137	5
40	42	2
155	157	2
82	126	1
45	46	2
111	114	3
2	2	7
18	42	1
11	110	5
86	87	4
118	119	1
157	157	8
128	128	6
151	156	1
8	9	5
14	51	1
42	42	3
123	124	5
88	88	6
103	105	2
83	84	6
4	23	7
41	43	2
11	12	2
28	28	3
50	51	2
96	96	3
17	20	5
102	124	1
8	11	1
102	102	1
10	11	3
110	111	1
90	91	3
149	149	6
27	29	1
145	145	3
141	142	2
18	21	1
34	39	2
8	109	1
21	38	2
152	153	1
54	54	1
25	28	1
119	119	3
121	135	2
155	155	6
5	40	2
36	111	1
95	102	1
7	128	1
88	89	6
23	24	5
158	158	2
103	126	3
33	40	2
120	124	1
46	48	1
2	6	1
16	50	2
125	125	6
119	121	2
21	39	1
27	96	2
22	37	2
77	78	2
18	57	4
86	92	1
25	86	2
2	3	2
104	105	1
52	54	1
30	31	2
26	46	3
84	85	5
32	39	3
84	115	3
13	18	3
32	33	2
23	28	1
97	99	1
9	10	3
0	1	2
52	53	2
150	150	4
131	131	5
48	51	1
90	103	2
107	108	1
21	22	1
125	126	2
64	64	1
147	148	1
21	41	1
57	57	2
15	19	2
142	143	3
90	93	1
116	118	1
104	108	2
113	115	1
12	45	2
92	93	1
23	45	2
36	49	1
55	56	2
31	71	1
130	136	3
98	128	3
117	122	1
14	19	2
40	40	2
79	80	1
31	53	1
0	0	3
42	43	1
39	39	2
32	35	1
13	14	2
12	38	1
50	52	1
25	27	1
19	21	1
126	136	1
102	127	1
150	157	1
97	98	2
122	147	1
97	97	2
71	87	1
123	141	2
6	6	3
113	114	2
13	46	2
85	85	2
131	134	2
155	158	1
144	145	2
118	120	1
140	147	1
141	151	1
122	154	3
79	79	1
103	114	2
43	139	1
84	110	1
109	110	1
9	11	1
38	49	3
25	31	2
1	1	1
35	37	1
7	8	1
13	30	1
18	52	2
36	36	3
51	64	1
107	112	1
72	73	1
20	57	1
16	17	1
31	32	1
105	107	1
107	110	1
143	145	2
130	135	1
21	40	1
67	69	1
87	89	1
146	148	2
137	137	1
83	110	1
83	86	1
124	124	2
18	56	1
43	45	1
28	30	1
