240	240	16
229	230	4
4	4	19
77	77	14
61	66	2
179	179	11
202	202	15
28	56	4
116	116	10
226	226	12
162	163	4
196	196	9
64	64	13
115	120	4
144	149	2
234	235	8
204	205	7
210	210	14
182	183	9
221	221	11
199	200	3
56	56	8
193	193	11
90	116	5
22	22	9
35	55	1
106	106	6
34	35	8
91	92	2
201	201	15
8	8	3
213	213	12
182	182	8
197	197	14
11	11	13
153	180	5
166	166	9
205	205	9
18	19	3
222	222	7
114	115	10
90	90	11
70	70	10
161	161	11
36	36	17
92	92	9
183	208	4
99	99	4
94	114	6
197	198	13
176	176	6
113	116	1
112	112	17
104	105	1
193	194	6
85	85	5
29	29	2
170	170	11
21	21	8
97	98	4
173	173	8
11	17	3
182	209	3
246	247	1
247	248	2
209	209	12
224	225	4
61	62	5
187	214	2
68	68	15
200	200	15
192	192	8
109	109	15
212	212	11
40	40	11
171	172	8
241	242	7
40	62	1
214	215	4
226	228	5
181	181	13
181	182	9
165	165	7
153	181	3
204	204	23
7	7	17
1	2	2
10	11	4
152	152	25
28	28	5
157	157	7
84	84	14
158	158	7
191	191	2
230	232	5
222	223	7
159	162	1
101	102	7
165	166	3
96	98	3
196	197	4
243	243	14
84	85	17
100	150	2
67	67	12
25	30	2
93	169	2
204	225	7
84	87	1
25	26	2
188	188	1
43	44	3
184	184	7
94	94	8
101	117	1
60	83	4
95	96	2
63	69	1
185	185	19
14	14	4
85	95	5
160	164	1
178	178	9
15	15	6
108	108	7
46	46	9
87	87	3
78	95	3
60	61	9
199	199	15
154	154	10
29	30	2
9	38	2
57	58	3
195	196	7
196	198	6
203	204	15
33	34	1
186	186	13
117	117	20
151	151	12
189	190	5
45	46	6
93	93	6
68	69	3
167	167	7
18	18	12
56	57	1
94	95	11
244	244	17
62	64	8
183	210	1
88	88	8
4	35	1
189	189	4
51	217	2
212	235	1
172	172	6
113	113	8
24	24	7
237	247	1
198	198	9
150	150	14
71	71	8
229	233	2
216	216	2
145	145	3
27	28	2
220	220	1
185	186	8
191	195	1
168	168	11
44	46	5
223	237	1
245	246	5
42	42	7
86	89	6
70	71	2
49	57	5
104	106	2
47	88	3
30	30	13
71	72	4
181	196	9
49	49	7
41	41	6
183	185	4
146	243	2
159	160	7
98	98	7
26	26	4
172	173	11
101	101	8
65	65	5
114	114	15
157	158	1
27	27	6
238	238	6
180	180	9
78	78	7
175	175	7
48	48	8
28	29	3
163	165	1
68	70	1
93	94	7
45	53	1
107	108	10
157	163	1
227	227	14
63	63	7
237	237	3
154	180	1
180	181	8
211	212	4
228	229	1
107	107	4
22	23	4
89	89	11
210	218	5
219	219	8
96	97	6
169	170	5
117	118	3
32	32	6
118	118	9
207	207	15
10	10	9
228	228	7
55	56	4
165	172	5
231	231	16
155	155	12
217	217	1
121	121	3
165	215	2
240	241	6
245	245	11
33	33	13
39	39	12
44	44	3
61	61	11
168	169	6
230	230	2
178	179	2
186	214	3
163	163	6
43	43	2
16	16	7
56	219	3
188	196	1
106	107	4
1	1	5
47	47	3
176	220	3
37	37	14
6	7	2
159	159	5
239	239	7
212	215	1
23	23	6
66	66	15
93	100	4
70	77	1
155	156	3
89	90	6
98	99	9
69	85	5
156	156	18
173	230	2
187	191	2
170	172	1
45	45	12
100	102	3
179	181	3
244	245	5
59	59	6
218	218	7
113	114	2
237	238	2
208	208	8
91	91	13
116	144	2
110	236	2
225	226	4
58	153	3
27	237	3
229	229	3
198	199	9
88	89	2
5	5	6
105	105	7
105	106	4
167	168	4
239	240	1
5	239	1
49	50	5
51	51	3
92	93	2
104	104	1
173	175	5
246	246	18
53	53	9
67	68	7
76	84	1
211	211	2
40	41	3
96	96	3
85	86	8
38	48	2
174	174	9
218	219	4
177	177	8
50	50	16
100	109	2
190	190	5
24	29	1
183	183	10
181	189	2
100	100	5
162	162	5
39	40	1
66	72	3
54	55	4
37	38	3
187	187	11
102	102	9
174	175	6
201	205	2
51	52	7
93	117	2
119	165	1
203	203	8
108	109	2
248	248	4
167	178	2
66	77	1
31	33	4
194	247	1
225	225	2
235	235	10
97	97	11
242	242	10
95	97	2
146	150	2
73	73	9
113	118	2
160	169	3
164	233	1
158	167	2
52	53	5
232	232	10
79	79	10
47	89	1
20	43	2
62	62	14
73	75	2
111	111	5
156	209	1
237	240	3
81	85	1
105	113	1
212	247	5
100	101	3
49	242	2
223	223	3
57	57	15
187	192	4
13	56	3
168	170	2
60	60	3
11	12	6
86	86	16
117	120	3
235	236	3
146	174	3
58	59	2
45	54	1
74	74	9
34	34	4
247	247	5
193	246	8
72	72	7
120	145	2
184	185	2
65	66	5
35	36	3
3	6	2
91	112	3
233	233	5
229	231	2
194	194	5
73	74	4
9	9	3
12	12	1
87	88	2
153	153	3
64	85	1
209	210	2
4	5	1
69	69	4
7	8	3
25	25	6
102	107	2
116	117	4
160	160	4
169	172	1
234	249	2
241	245	3
219	220	2
221	224	1
35	52	3
187	188	2
58	58	3
163	164	2
47	48	3
249	249	4
150	153	1
239	242	2
224	224	4
66	67	3
183	202	1
218	220	1
9	10	1
221	236	2
144	144	4
20	20	4
171	174	2
11	162	2
118	119	3
5	193	3
236	240	3
210	211	3
153	175	1
218	240	5
171	171	3
92	109	2
103	103	3
191	193	4
188	189	3
1	26	2
36	38	2
240	244	3
212	219	1
28	33	3
19	19	7
157	160	3
236	236	5
15	243	1
197	224	3
43	46	2
112	147	1
176	177	4
35	35	8
221	222	4
175	222	1
115	145	1
110	114	1
171	236	1
169	169	2
3	4	3
3	3	8
179	180	1
237	241	2
152	153	6
69	70	4
59	83	1
52	52	8
159	168	1
4	15	2
6	12	1
165	167	2
115	115	9
233	235	1
63	64	2
78	79	3
195	195	2
31	32	1
80	86	1
95	95	3
13	15	2
81	81	4
83	85	3
153	154	3
186	212	1
17	17	3
21	22	2
54	54	5
31	78	1
231	232	4
221	233	5
183	184	3
208	209	3
146	147	1
69	198	1
20	64	1
30	70	1
110	111	3
80	82	1
23	26	5
21	44	1
59	60	2
15	55	1
28	234	1
158	159	2
53	61	1
83	83	1
207	212	1
29	32	5
223	225	3
75	75	3
38	39	2
83	98	1
10	27	1
212	214	5
177	231	2
173	174	4
32	33	4
165	214	2
83	84	3
77	78	6
39	52	2
2	3	2
109	116	2
234	234	2
243	244	1
177	179	1
74	75	1
191	192	1
31	31	2
215	218	2
75	76	3
80	80	3
214	214	4
46	52	3
146	146	4
5	244	1
80	83	1
70	72	2
38	38	2
93	95	2
64	65	5
17	18	2
220	223	1
30	31	4
175	230	1
217	218	1
236	242	2
110	110	6
216	244	1
175	223	2
13	14	1
172	213	1
150	152	3
2	2	2
242	243	4
112	113	1
98	174	1
3	35	1
8	9	1
150	151	3
103	104	2
21	24	1
162	181	1
200	228	1
37	63	1
15	237	1
212	213	4
225	236	2
192	194	1
164	165	1
186	187	1
238	239	1
144	145	1
118	164	1
96	171	2
214	232	1
151	154	2
215	215	2
40	46	1
19	39	1
182	184	3
194	195	2
179	205	2
47	49	3
164	164	3
23	24	1
171	173	3
84	86	1
55	55	9
158	247	3
69	71	3
24	30	1
44	151	1
99	146	4
183	209	1
115	118	2
8	55	1
230	233	1
214	216	4
225	229	1
99	100	1
145	150	1
100	111	1
6	192	1
45	65	1
20	22	1
20	66	3
227	228	1
79	84	2
23	29	1
196	211	1
17	22	1
190	203	1
195	197	1
109	145	1
16	55	1
92	99	2
182	248	3
229	232	3
215	216	1
46	94	1
178	222	1
76	76	1
226	227	1
120	120	1
64	67	1
21	23	1
226	230	1
102	152	1
18	37	1
98	114	1
55	88	2
165	174	1
156	157	1
2	11	1
230	231	1
11	13	1
168	173	1
98	112	2
108	114	1
6	11	1
59	61	1
169	175	1
156	162	1
28	71	1
188	190	1
57	62	1
31	36	1
115	116	3
3	5	2
107	119	2
223	236	1
201	202	2
60	154	1
166	173	1
33	39	1
193	196	1
189	191	1
5	159	1
85	93	1
172	231	1
220	222	1
8	19	1
185	211	1
72	73	1
211	247	1
65	67	1
76	78	2
79	80	3
66	107	1
175	176	1
90	91	1
4	160	1
10	26	2
157	161	1
234	236	1
151	153	1
63	80	1
239	246	1
169	171	1
50	56	1
77	85	2
168	178	1
190	195	1
82	83	1
70	76	1
146	237	1
164	172	1
69	72	1
161	162	1
212	230	1
14	15	1
