109	109	3
106	129	1
48	49	13
25	46	2
169	169	10
135	136	3
17	17	10
66	67	3
4	53	2
139	139	1
146	148	4
3	3	10
57	57	5
137	137	2
4	4	12
63	63	16
35	35	4
96	96	4
65	65	4
108	112	5
70	70	3
46	46	8
162	163	4
8	8	6
54	78	1
150	151	3
112	141	4
142	142	3
144	144	5
58	122	1
37	37	4
25	25	9
110	110	4
8	13	4
16	16	10
106	107	3
52	56	2
72	72	7
82	82	3
90	91	2
13	13	2
41	41	3
20	20	5
72	73	4
56	153	4
71	72	2
151	151	6
112	114	3
39	39	6
168	168	5
49	86	4
146	146	5
81	104	3
56	126	2
51	62	5
165	165	7
97	97	7
46	50	1
24	24	5
69	69	4
14	14	8
9	9	4
12	51	2
10	11	1
51	51	3
11	11	4
53	53	5
114	114	5
16	23	1
87	87	3
39	51	1
131	131	2
84	97	1
22	22	5
67	68	1
86	86	3
38	77	2
154	154	4
150	150	3
100	100	3
79	79	4
56	56	5
108	108	6
8	9	2
118	118	3
19	19	2
43	44	5
46	47	6
28	64	2
62	62	4
106	106	14
18	18	7
81	82	3
121	122	3
97	100	1
83	84	1
158	158	2
14	15	3
38	55	1
7	7	9
136	136	11
28	28	6
96	97	1
130	130	5
167	168	4
85	85	2
10	10	4
95	131	5
27	27	6
101	101	1
40	40	5
115	151	1
0	0	5
34	34	4
6	160	3
101	102	1
3	4	1
128	129	2
1	3	1
43	43	8
152	152	4
57	85	2
17	25	2
58	123	2
25	37	2
76	76	6
166	166	6
33	33	6
75	75	5
55	56	2
4	48	4
64	112	2
21	23	4
47	47	4
74	75	3
156	156	2
138	138	4
112	112	3
45	62	1
39	40	6
133	133	1
73	73	5
157	157	5
126	131	5
81	81	5
6	6	6
42	42	5
57	58	2
163	164	5
88	88	7
21	21	3
0	1	3
89	89	3
1	2	2
55	55	1
132	132	1
64	116	1
145	145	4
148	148	1
68	68	2
83	83	1
122	122	3
119	120	2
49	49	4
17	24	1
6	7	3
161	161	2
69	79	1
44	44	2
66	66	2
38	40	2
146	147	5
140	140	1
54	55	1
40	41	1
13	14	1
44	62	2
47	74	1
116	116	6
2	2	4
68	73	1
114	118	1
40	66	1
50	51	1
34	109	2
98	98	2
2	4	1
63	145	1
15	15	2
161	164	3
26	26	7
55	150	4
74	74	8
7	13	3
54	54	4
62	63	4
85	86	1
156	158	1
111	111	4
112	113	1
3	16	3
1	1	3
128	128	1
15	102	1
13	148	2
112	150	2
67	154	2
95	96	2
18	20	4
54	69	1
67	114	2
48	48	3
141	141	2
143	143	3
157	158	3
143	154	2
2	27	1
56	57	1
66	116	1
101	106	3
102	103	1
124	124	1
89	90	1
36	36	6
51	91	3
53	151	1
18	24	3
48	70	1
71	71	3
58	130	1
44	45	7
102	102	1
16	17	3
64	64	1
20	21	2
114	115	3
91	91	3
64	114	3
89	97	1
90	90	2
23	23	2
126	127	2
117	117	1
77	77	1
143	144	3
49	85	2
119	121	2
53	54	4
87	92	1
135	135	2
170	170	1
36	37	1
2	10	1
145	163	2
113	114	1
98	165	1
5	15	1
127	144	1
17	36	2
12	52	1
161	162	2
12	13	1
120	121	2
95	95	3
111	157	1
42	45	2
39	85	1
163	165	1
133	134	1
134	134	2
50	50	1
164	164	1
35	89	1
117	148	1
152	153	1
162	162	2
97	98	1
116	158	1
118	135	1
93	93	1
105	105	1
145	159	1
140	141	1
79	83	1
69	154	1
105	128	1
108	109	1
88	91	2
45	108	1
155	155	1
129	129	1
120	120	1
