151	151	5
184	184	4
10	11	9
20	20	6
101	104	1
140	140	4
152	153	2
4	4	6
88	88	9
135	135	9
85	142	2
173	173	2
124	127	1
150	150	3
65	67	3
110	111	2
112	117	2
69	99	2
182	182	2
81	86	2
101	103	3
159	159	2
32	32	10
58	60	6
127	131	1
27	28	2
115	116	4
53	53	4
48	48	4
134	149	2
139	139	7
108	108	7
27	36	3
127	127	6
131	135	1
78	78	3
45	68	5
88	140	1
89	97	4
125	149	1
161	162	2
46	76	4
83	83	3
7	41	3
165	165	4
153	153	5
21	21	6
119	120	3
0	26	1
86	110	2
82	82	4
136	136	6
126	126	4
11	11	6
80	81	5
56	56	3
143	145	4
155	155	11
38	83	6
111	112	4
154	155	1
123	127	2
102	102	11
21	22	1
79	86	2
118	142	4
164	165	2
104	104	6
73	73	11
44	45	2
125	125	2
138	138	1
77	117	3
9	10	2
68	68	7
147	148	1
130	130	6
13	13	2
70	70	3
152	152	4
90	90	3
168	169	2
27	39	1
24	25	3
118	119	2
68	71	2
120	122	3
115	115	2
95	96	4
1	1	10
26	26	3
33	34	5
109	109	2
105	105	7
136	150	3
59	62	2
64	64	3
52	52	4
109	111	4
43	44	8
100	100	5
43	43	2
136	149	1
64	80	2
28	28	4
97	98	2
87	87	1
166	166	1
3	3	5
6	6	4
177	183	1
134	135	5
87	93	1
133	133	8
36	36	4
148	148	4
5	37	1
57	57	6
118	118	3
1	52	1
18	27	1
77	77	11
130	132	3
82	86	2
109	130	2
12	12	9
178	178	2
18	18	2
139	140	1
96	96	4
176	176	2
142	142	4
122	122	1
188	188	3
115	118	3
23	23	4
149	163	4
115	119	5
123	123	9
170	170	2
158	158	3
62	62	5
183	183	1
71	71	2
85	91	1
149	149	15
58	79	2
10	10	4
144	179	3
168	168	3
167	168	1
128	129	3
106	119	4
15	15	2
8	8	4
157	157	6
122	123	1
25	25	5
24	24	6
96	100	2
37	37	6
179	179	4
38	38	4
172	172	3
30	30	1
105	115	1
40	41	2
145	146	2
110	110	3
119	143	2
43	66	1
177	177	2
146	146	2
27	27	2
12	27	6
171	171	3
7	7	4
61	61	1
121	121	2
134	136	1
174	174	1
16	26	2
19	19	1
149	150	1
88	93	3
74	74	2
61	62	3
91	94	1
119	119	2
14	14	2
83	84	2
190	190	2
41	41	2
76	76	6
1	4	1
13	14	7
144	147	3
33	33	2
22	22	2
4	5	2
151	165	1
87	147	8
149	155	2
63	63	3
13	15	2
40	40	1
46	73	3
46	46	4
83	91	3
131	131	2
82	112	1
67	117	3
154	154	6
93	94	1
79	79	4
16	17	3
104	130	1
185	185	1
95	95	4
161	176	3
10	12	1
180	181	1
17	79	3
100	106	1
171	174	1
123	142	3
166	168	2
94	94	1
47	48	1
31	31	2
94	95	1
13	16	2
47	49	2
41	90	3
81	95	1
18	19	3
134	152	2
20	21	3
9	126	2
32	34	1
134	134	1
21	24	2
65	65	1
92	92	2
84	91	2
142	183	2
129	129	3
143	143	3
167	174	2
77	116	1
11	114	4
59	59	2
57	58	1
72	72	2
120	139	1
160	160	1
87	88	1
47	47	3
107	107	2
88	102	1
62	63	1
87	110	1
162	163	5
59	60	2
106	123	1
6	7	1
106	107	1
128	128	1
54	55	2
183	184	1
127	128	2
105	108	1
105	138	1
108	110	1
142	143	1
124	125	2
141	144	2
141	141	1
91	93	2
93	105	2
18	73	1
58	76	1
137	137	2
14	86	2
63	81	1
84	84	1
34	35	1
42	43	1
13	84	1
39	39	3
169	169	2
85	86	1
31	32	2
17	18	1
162	162	1
98	99	3
160	176	1
9	9	1
116	125	1
169	170	1
121	126	1
78	79	1
175	175	1
17	17	1
137	152	1
118	130	1
47	79	1
82	83	1
101	102	1
116	116	1
10	22	1
89	89	1
99	105	1
80	80	1
104	106	1
100	105	1
18	20	1
67	67	1
41	42	1
