13	14	15
109	109	9
73	73	22
20	22	1
96	96	19
55	61	6
51	51	32
54	71	2
113	113	14
32	33	7
100	101	5
43	43	34
8	8	11
52	52	25
25	26	11
101	119	5
28	28	17
44	44	27
115	115	22
131	131	15
40	41	14
125	129	3
93	94	3
65	73	1
105	106	6
126	129	4
22	22	16
40	40	11
103	103	30
75	75	26
105	105	14
16	16	18
42	44	3
86	87	9
65	66	19
62	62	13
51	52	4
24	24	13
68	68	29
29	29	23
118	129	1
84	84	25
98	98	29
116	116	12
53	123	2
0	0	9
50	50	22
14	14	16
93	93	21
126	127	8
17	33	3
110	111	6
121	121	21
49	50	13
102	103	8
67	73	2
57	57	19
128	129	11
99	103	1
27	27	19
11	29	2
31	32	8
64	67	3
81	84	4
15	15	19
47	47	19
3	3	20
41	41	26
21	21	21
18	23	5
72	73	8
79	79	11
120	120	22
57	58	10
16	17	16
39	39	26
74	74	7
60	62	7
124	124	38
34	34	12
56	56	26
75	98	2
104	105	18
64	64	23
97	97	17
91	91	18
17	17	18
46	47	17
23	23	29
79	80	5
9	10	5
49	49	18
29	31	13
65	65	16
71	125	5
111	112	22
118	130	3
17	18	19
2	109	3
87	89	1
4	4	5
42	42	16
102	102	20
77	79	4
67	67	15
14	38	5
32	32	16
70	70	10
83	83	17
67	68	9
116	117	13
81	82	14
65	80	3
110	110	14
11	11	14
48	48	26
90	108	2
4	5	12
124	128	1
45	47	11
25	25	15
23	39	1
59	62	4
58	58	21
76	95	2
20	20	6
13	13	12
120	121	5
97	98	13
126	126	22
76	77	5
7	7	10
88	89	12
111	111	22
4	7	3
118	119	13
80	81	17
26	26	16
76	79	5
118	118	21
117	119	6
0	2	4
80	80	10
97	99	2
19	20	4
81	98	3
3	4	12
12	13	7
124	131	5
104	104	16
19	28	4
6	13	1
112	112	21
101	102	6
68	76	2
55	114	1
111	122	2
18	21	13
108	108	20
45	45	12
33	34	7
112	113	5
124	125	5
2	4	4
78	78	24
11	13	4
114	114	24
65	72	6
109	125	1
109	111	3
105	120	3
73	79	5
16	18	4
2	2	11
9	9	18
72	72	20
17	68	3
28	29	5
77	78	8
39	40	14
83	84	9
60	60	6
91	106	1
37	38	3
129	129	14
99	100	10
107	107	8
31	31	7
89	91	5
17	94	2
94	94	16
58	59	3
70	91	1
81	81	19
22	23	6
38	39	8
19	27	3
20	29	2
91	93	8
15	41	3
1	1	15
46	60	4
73	78	1
68	71	4
88	88	15
99	99	27
117	118	3
106	107	10
51	53	2
11	90	5
89	89	12
12	31	3
18	18	14
54	56	6
130	130	25
85	85	19
64	65	5
44	45	7
95	103	2
92	92	13
54	114	5
126	128	6
0	1	10
19	19	17
20	26	4
118	120	3
127	127	21
65	67	4
85	87	3
78	79	2
94	95	7
42	45	4
73	74	3
28	39	2
119	119	14
14	25	3
42	84	2
2	3	1
14	66	3
83	85	6
84	96	3
16	55	3
69	69	25
77	77	16
69	70	1
114	115	6
109	122	3
125	125	23
47	48	2
71	71	29
102	126	1
95	98	1
11	14	3
9	104	2
27	60	2
85	86	5
68	69	5
20	28	1
71	75	5
123	124	1
95	96	4
90	90	11
57	61	2
87	88	6
128	128	6
71	72	8
14	16	6
18	22	3
107	109	1
77	96	5
38	38	16
70	71	12
65	89	4
3	7	4
76	76	25
62	63	12
89	106	4
39	63	1
66	66	14
11	44	5
64	69	2
3	5	2
24	25	9
29	30	15
9	12	2
7	8	3
27	31	3
90	91	7
95	95	18
33	69	3
15	26	1
5	7	7
14	15	21
66	75	7
92	96	2
10	64	2
92	94	4
22	33	6
120	125	3
82	84	1
10	87	2
100	102	11
63	63	15
109	110	1
111	113	9
101	103	9
22	32	3
43	44	9
5	6	4
84	95	4
91	92	11
82	82	11
63	64	2
102	118	2
119	120	2
12	12	14
46	48	6
57	109	1
65	68	2
73	100	3
34	65	2
101	118	5
121	122	7
20	21	3
115	117	1
21	22	5
96	132	3
106	106	11
31	113	1
100	100	6
61	61	12
57	123	3
89	92	2
28	32	1
11	12	6
97	104	5
117	117	10
98	104	3
57	106	1
5	5	22
77	97	2
6	7	5
80	101	1
30	30	17
108	122	2
52	53	7
16	22	4
61	62	6
95	97	6
25	27	8
103	104	4
34	37	1
87	87	11
69	120	1
2	7	3
96	97	11
22	28	1
123	123	2
55	55	15
42	74	2
70	75	1
2	5	8
44	46	1
39	42	2
42	85	1
53	53	13
122	122	15
1	6	4
78	80	1
32	37	1
132	133	5
42	43	8
29	33	2
62	64	2
72	74	1
63	65	3
38	72	2
14	39	1
2	8	4
81	99	2
132	132	8
12	28	2
38	41	3
23	33	6
46	88	2
125	126	3
82	83	1
4	14	2
58	62	3
89	90	5
33	33	7
11	60	3
115	116	9
8	9	1
101	101	9
98	99	4
58	61	2
59	59	4
18	20	2
41	43	14
41	102	3
78	81	10
20	32	1
44	48	1
1	2	3
114	117	2
66	72	6
11	28	1
65	75	5
10	60	5
103	125	4
127	128	6
19	21	2
54	54	7
27	29	5
17	38	1
133	133	5
92	95	4
126	131	2
107	116	7
23	26	2
8	12	1
64	89	2
108	109	7
76	96	3
23	25	5
26	27	1
13	17	3
10	11	4
17	32	3
57	70	1
57	69	2
13	15	1
43	45	7
18	19	3
20	94	1
108	114	3
104	106	2
80	82	4
48	90	1
87	114	2
8	13	2
71	93	1
62	71	2
38	82	2
1	112	3
113	114	4
46	46	10
99	101	6
31	41	2
10	46	2
18	68	1
54	117	2
86	88	1
63	84	1
84	85	2
27	28	4
74	75	1
55	63	7
92	133	2
61	67	1
62	106	1
131	132	3
117	132	3
124	126	2
11	48	1
106	116	1
39	67	2
124	132	4
111	123	1
43	81	3
41	84	2
94	96	3
40	42	2
67	103	1
65	79	1
107	121	2
122	123	3
116	118	2
98	126	1
42	46	2
79	81	1
64	83	3
77	98	1
24	45	2
6	6	6
32	39	2
63	107	1
88	91	1
10	12	2
108	111	1
104	118	1
2	120	3
95	101	2
41	44	3
54	123	1
57	105	1
29	34	1
112	122	1
66	67	3
40	61	2
25	31	2
58	60	2
114	116	1
0	114	1
93	120	5
10	13	3
2	6	4
45	46	6
130	131	3
68	96	1
22	27	1
11	62	4
95	133	1
88	90	2
75	78	2
50	80	1
69	80	1
37	41	1
65	69	1
23	24	2
72	99	1
110	127	2
111	114	3
1	113	1
0	3	1
106	117	2
113	131	1
24	26	2
9	11	1
69	72	1
38	42	3
43	88	1
125	130	1
26	32	3
39	64	2
93	102	2
13	38	2
59	61	1
59	60	1
43	87	1
15	16	1
68	100	1
22	25	2
7	13	1
3	113	2
32	38	1
97	103	1
55	56	1
117	131	1
2	113	2
129	130	2
10	10	1
86	86	5
21	23	1
10	14	5
27	30	1
42	80	1
64	104	1
54	55	1
27	87	3
42	83	1
79	99	1
77	103	1
31	57	1
16	33	3
99	104	1
15	25	1
28	33	1
107	122	1
6	10	1
83	95	2
76	81	2
7	40	1
16	93	1
48	49	1
11	56	1
15	17	1
102	130	1
100	103	1
60	67	1
69	71	2
84	90	3
70	88	1
61	71	2
74	77	1
64	106	1
19	22	1
12	30	1
66	74	2
3	118	1
3	6	1
40	81	1
23	40	1
23	32	1
106	108	1
57	85	2
106	109	1
20	126	1
74	79	3
107	115	1
30	82	1
45	48	1
41	42	2
96	101	1
69	75	1
8	10	1
107	113	1
42	48	1
120	122	1
108	113	1
87	92	1
96	99	1
9	13	1
107	118	1
26	41	1
63	104	1
59	63	1
28	31	2
30	31	1
110	122	1
43	85	1
119	126	1
76	80	1
92	113	1
