51	51	11
112	112	6
25	26	5
52	52	8
64	64	2
60	61	5
58	58	9
83	85	7
34	34	11
33	33	16
55	56	1
61	62	3
113	113	5
25	25	18
79	102	3
42	43	5
97	103	5
99	99	30
71	71	16
96	96	12
111	111	10
47	76	1
30	30	12
107	107	6
44	45	2
36	37	11
62	63	1
83	84	3
84	86	2
83	83	14
68	68	12
27	39	1
103	107	2
43	48	1
107	108	12
29	29	13
96	97	3
59	59	7
62	62	5
20	20	10
48	48	9
61	61	12
78	108	3
56	57	10
53	53	4
54	59	1
78	78	11
78	79	7
67	67	15
79	79	9
60	60	22
71	80	5
69	69	6
26	27	6
24	24	10
37	38	7
22	22	17
115	115	1
88	88	14
91	91	8
40	41	2
84	84	9
23	23	13
100	100	7
77	77	24
74	85	1
110	110	21
101	110	1
98	98	7
81	81	2
68	72	4
92	92	17
97	104	3
75	75	7
72	73	11
54	60	5
63	63	9
55	59	1
85	85	10
26	36	5
69	81	1
96	98	4
41	41	10
101	101	17
28	28	7
99	109	4
106	107	1
79	109	2
82	108	2
32	32	5
104	107	5
46	61	2
99	101	1
69	71	2
74	75	6
52	56	4
95	95	13
52	73	1
56	56	3
32	60	5
47	77	1
46	46	26
66	66	18
55	55	4
92	105	1
37	37	9
89	97	3
86	86	6
87	88	4
53	85	1
74	105	4
25	27	3
82	82	8
109	109	4
59	67	1
48	73	3
89	89	16
86	96	4
59	61	15
44	48	1
44	44	5
95	104	2
19	19	3
67	85	1
34	35	8
54	66	1
74	74	17
64	66	4
59	60	11
51	55	4
45	45	6
91	96	4
74	106	3
106	106	4
38	38	10
65	65	10
97	97	10
39	41	7
20	21	3
76	76	17
31	31	11
102	103	2
103	103	8
56	69	7
73	73	11
49	49	13
95	106	1
67	78	1
35	35	7
50	50	12
86	89	3
50	76	1
93	93	4
108	108	4
85	92	2
111	114	3
114	115	3
105	105	6
94	94	7
80	80	14
91	95	1
97	98	6
90	90	5
67	68	1
69	78	6
19	20	1
43	43	10
41	42	6
109	110	4
36	54	2
49	50	4
82	83	3
31	32	3
103	106	3
52	60	1
54	56	1
47	48	6
58	67	2
50	51	3
102	108	5
63	64	7
47	59	2
70	77	4
44	47	1
51	53	3
28	29	2
76	78	1
53	57	1
45	50	1
23	24	10
27	28	2
46	47	3
47	47	4
33	35	2
35	36	2
114	114	7
79	81	2
39	39	7
82	85	2
53	54	1
81	85	2
108	109	3
52	92	3
27	27	7
57	69	1
51	68	5
29	46	3
69	70	2
70	80	1
83	86	3
73	74	3
100	101	5
20	22	1
37	39	2
48	49	6
36	36	4
75	76	1
27	38	2
43	44	2
111	112	5
27	30	2
57	58	1
46	60	2
81	86	2
95	96	3
84	87	4
59	77	1
37	62	1
54	54	3
42	44	1
90	91	8
94	105	2
30	60	1
55	58	4
104	104	4
40	40	3
41	43	1
52	67	2
72	72	2
78	107	2
85	100	2
26	32	2
33	34	1
53	66	1
101	109	1
65	67	1
82	84	1
53	91	1
28	32	3
26	37	1
70	70	3
36	65	3
76	77	2
29	30	1
98	99	2
67	75	1
58	60	1
68	69	2
86	87	1
85	98	1
19	34	1
26	26	2
43	45	1
113	114	2
103	104	2
67	69	1
91	94	1
26	41	1
78	104	1
48	52	2
71	78	2
24	40	1
102	102	5
58	59	1
80	98	1
52	57	2
34	37	2
42	42	9
30	77	1
81	84	1
106	110	1
27	55	2
31	61	1
54	55	2
35	66	1
36	55	2
61	74	1
74	92	2
64	65	1
57	59	1
105	108	1
53	58	1
101	102	1
91	93	2
99	110	1
40	65	1
79	104	1
56	59	1
104	105	1
94	106	1
24	25	2
67	73	1
54	69	1
83	106	1
68	70	1
57	57	1
28	33	1
80	99	1
