77	78	12
23	23	20
0	1	1
24	24	5
83	83	11
72	72	2
6	7	2
17	65	1
80	82	5
73	74	1
56	57	5
75	76	4
84	85	6
63	64	10
88	88	8
4	4	14
19	19	17
89	89	9
85	85	6
80	80	12
68	68	18
59	59	7
55	58	1
80	81	3
10	10	18
86	87	2
49	66	1
51	53	3
74	75	2
48	48	12
0	2	4
51	65	5
87	87	5
26	26	8
27	27	5
77	77	12
69	69	11
62	62	8
79	79	6
25	26	8
61	64	2
84	84	2
6	9	3
13	34	1
56	56	5
68	73	3
59	63	2
75	75	11
11	11	4
78	78	12
50	65	1
12	12	2
81	81	2
64	64	6
9	9	7
47	47	6
7	7	5
0	67	2
61	61	9
73	73	6
27	28	1
0	0	2
46	63	1
62	63	4
65	66	3
3	3	6
76	79	3
76	77	5
26	27	9
66	66	3
14	14	4
54	54	5
50	50	5
21	21	12
19	71	4
46	46	2
62	64	4
58	58	10
71	71	10
76	80	5
24	80	2
89	90	5
75	81	4
74	74	3
79	82	2
6	6	5
63	63	5
29	30	5
30	31	1
12	13	4
1	1	10
20	20	11
82	82	13
2	2	9
17	17	5
52	65	4
8	8	2
70	70	4
47	74	1
76	76	8
60	60	4
66	67	2
86	86	9
66	74	1
46	47	1
49	50	3
9	10	3
67	67	4
3	71	2
67	68	2
24	25	3
49	49	4
49	61	3
72	73	2
65	71	3
54	55	10
16	16	4
84	86	3
88	89	3
28	28	3
31	32	2
53	54	5
25	25	4
19	20	5
85	86	1
58	64	5
53	55	4
0	89	4
57	66	2
55	55	8
12	50	1
53	81	2
65	65	12
55	56	1
0	31	2
59	60	3
5	5	4
57	57	11
16	17	6
47	48	4
13	13	3
68	69	3
8	9	4
60	62	5
15	15	2
32	60	1
11	72	2
11	12	2
34	35	2
63	66	2
69	71	1
54	66	2
61	63	3
53	53	3
7	8	1
52	62	1
60	63	2
32	51	3
54	56	2
57	70	2
46	52	3
34	64	2
50	52	2
46	51	2
68	71	1
16	21	1
19	47	2
50	72	1
52	53	3
30	30	3
5	6	1
59	61	4
15	16	2
47	65	1
24	27	3
20	21	3
52	73	1
48	63	4
66	71	1
4	15	2
61	62	2
51	51	2
1	2	1
3	4	1
51	62	2
81	84	1
34	34	1
49	51	1
53	66	2
46	48	2
49	65	3
71	74	1
31	31	2
19	72	1
56	81	1
18	19	1
54	58	1
10	13	2
83	84	3
81	83	1
52	52	1
56	76	1
81	87	1
35	64	2
