131	132	5
27	27	3
28	30	1
60	61	2
20	20	9
106	136	3
57	57	4
92	106	4
85	87	1
21	21	13
122	131	1
30	30	9
96	96	10
81	81	13
76	79	2
53	53	8
99	100	17
2	20	3
100	100	4
131	138	3
107	111	4
77	79	2
83	83	4
49	51	2
85	85	7
34	34	12
10	10	16
72	72	8
108	109	5
93	109	4
88	88	10
106	106	7
112	113	8
67	67	5
11	11	7
98	120	4
29	29	7
82	104	3
64	64	7
6	11	5
79	79	11
115	115	5
4	35	2
50	51	1
108	108	3
122	124	1
48	52	2
131	131	18
41	42	5
56	74	1
73	74	2
128	129	9
103	103	19
80	81	5
110	110	19
113	114	7
96	133	6
17	39	1
91	92	4
107	109	4
10	11	2
78	79	6
17	17	11
126	128	7
23	23	19
118	132	6
21	22	11
16	16	12
104	104	5
109	110	16
136	139	3
135	135	14
41	41	17
32	32	4
142	142	10
112	115	3
94	108	3
134	134	27
107	136	1
75	75	12
122	122	8
141	142	4
126	126	17
109	109	6
140	141	5
97	140	2
91	91	2
15	16	1
74	74	13
36	36	9
139	140	5
118	123	3
53	55	1
65	65	8
136	136	8
141	141	16
143	143	8
92	92	12
33	34	5
53	60	4
82	82	12
145	145	14
114	114	5
30	32	3
55	57	6
131	133	1
13	31	5
114	115	1
137	138	5
42	42	10
95	96	12
111	113	1
128	128	17
60	60	5
65	68	3
50	50	9
101	101	12
102	120	1
13	13	3
140	140	10
65	67	2
86	87	8
110	139	3
35	35	7
139	139	5
124	124	18
143	144	4
2	2	8
129	129	11
80	80	13
31	32	6
127	142	1
48	48	18
93	93	2
127	130	3
68	68	9
95	95	7
103	124	3
50	56	3
5	5	15
118	119	2
67	68	9
68	100	2
117	118	3
92	95	9
77	78	7
82	83	6
105	136	2
84	84	6
73	89	3
134	135	8
66	68	2
59	59	5
71	90	3
95	109	5
88	89	2
57	61	3
123	123	4
56	56	13
10	20	3
69	69	11
67	81	4
125	130	2
18	18	11
85	86	1
138	141	5
58	60	2
78	85	3
22	27	4
26	26	5
120	120	16
146	146	7
63	63	7
37	37	17
109	111	2
94	95	2
15	129	2
14	16	10
56	140	2
130	130	8
107	108	5
102	102	4
51	51	10
76	76	2
116	117	7
92	109	2
70	84	2
109	112	4
113	113	2
138	139	1
24	25	9
59	61	1
14	14	9
15	15	11
90	90	5
86	86	8
43	54	2
136	137	3
51	52	3
111	112	3
105	134	4
121	135	3
24	27	3
137	142	3
36	37	1
111	137	2
120	134	3
125	125	4
12	13	3
27	38	3
118	118	3
22	22	14
28	28	9
43	43	2
123	124	3
3	3	5
31	31	9
119	119	9
124	125	5
103	104	3
26	27	1
123	142	3
76	77	2
33	33	7
119	134	4
87	88	1
19	19	6
108	112	5
137	137	6
87	87	6
131	134	1
31	123	3
133	134	2
54	76	6
127	128	2
110	117	1
76	78	6
105	107	4
24	24	4
25	25	6
0	10	2
13	14	2
56	58	4
88	90	2
31	33	1
61	61	10
78	78	8
97	97	11
98	102	1
36	39	3
80	82	3
119	127	2
58	58	4
8	8	1
136	140	4
144	144	12
118	131	1
5	64	1
111	111	5
127	127	9
5	63	1
121	122	2
127	132	1
123	127	1
90	112	5
54	55	1
115	118	1
142	143	5
120	121	1
127	129	6
57	58	5
82	92	2
112	112	5
89	89	2
122	134	2
110	132	1
79	104	3
8	16	3
92	93	1
117	122	2
63	136	1
77	77	2
116	116	4
47	124	1
40	43	4
130	139	2
94	94	5
121	123	1
93	94	3
60	132	2
92	94	4
1	1	4
121	121	4
74	75	2
57	62	3
70	70	5
18	33	2
111	118	2
118	120	1
117	117	10
52	52	5
78	81	1
66	66	1
117	119	5
64	65	1
117	134	4
55	141	1
76	80	2
107	107	7
87	92	1
71	71	3
138	138	8
120	138	1
125	128	3
110	111	2
74	76	8
9	10	1
69	86	1
133	133	10
101	102	1
6	6	1
79	80	6
14	129	1
54	54	1
38	38	3
4	4	3
12	23	2
122	125	2
38	39	1
58	62	2
62	62	3
97	98	3
62	63	5
73	73	1
89	90	2
79	81	2
66	84	1
20	21	1
63	64	4
105	132	2
110	113	1
52	53	1
4	5	3
55	55	4
113	115	2
119	120	3
55	56	3
119	132	1
135	138	2
102	124	1
69	72	1
18	19	2
14	15	3
115	132	2
35	37	1
61	64	1
83	85	2
5	11	2
91	94	1
39	39	5
133	138	1
121	134	1
121	136	1
69	91	3
116	118	2
112	114	2
118	121	1
69	70	1
12	24	1
19	20	1
67	70	1
9	20	1
23	24	3
75	79	1
86	88	1
57	60	2
59	74	2
86	89	1
79	86	1
56	62	2
0	3	1
6	12	3
108	116	2
119	126	2
129	134	2
95	110	1
21	26	1
132	132	1
66	67	1
96	106	1
132	134	2
139	141	2
98	98	1
73	90	1
34	35	1
99	99	3
17	20	1
115	116	1
115	117	1
126	127	1
71	89	1
35	36	2
124	129	2
2	7	2
105	105	6
104	110	1
129	130	2
96	114	1
100	101	1
102	123	1
102	103	2
71	72	2
18	22	1
108	110	1
136	138	1
96	97	1
106	107	2
70	72	2
29	30	1
105	106	1
66	69	1
81	87	1
8	19	1
135	140	1
133	139	4
74	82	1
104	106	1
53	54	1
58	73	1
36	53	1
127	144	1
123	134	1
104	136	1
80	105	1
40	41	1
