104	104	5
130	130	16
73	73	14
155	158	5
66	66	9
14	14	16
7	11	5
65	66	4
1	1	11
41	41	39
125	125	10
15	16	13
15	15	44
27	27	20
114	119	3
85	86	2
136	136	9
162	162	3
120	121	2
66	127	1
16	16	23
169	169	6
159	159	13
43	44	13
107	108	6
21	22	6
37	37	38
19	20	14
34	35	9
24	26	9
157	171	1
109	109	5
8	8	10
18	18	31
78	78	10
106	107	16
75	75	19
20	20	8
173	174	8
154	154	12
26	95	2
10	10	24
141	141	8
153	153	12
33	34	2
43	45	10
42	42	33
57	57	4
59	60	2
130	131	13
74	74	8
126	126	18
36	36	32
112	158	1
158	159	2
96	96	17
35	35	29
0	1	8
168	168	10
166	166	7
11	11	13
25	59	3
19	41	1
80	81	4
27	28	3
19	26	1
132	133	5
157	157	8
2	46	5
3	5	4
147	163	2
81	82	15
16	18	3
53	53	9
19	19	16
167	167	15
144	144	9
108	109	3
126	127	5
95	95	16
136	137	3
80	80	17
39	39	12
90	90	13
22	61	1
163	163	13
155	156	12
143	151	2
135	135	12
146	151	3
9	10	7
26	34	4
35	36	4
134	146	1
83	85	2
0	5	2
171	171	7
180	180	8
12	13	11
144	164	1
167	168	8
9	9	23
15	24	4
12	22	3
16	62	1
131	131	13
45	45	14
3	10	6
58	58	11
22	22	25
14	21	2
71	71	11
32	32	28
23	29	5
4	5	5
57	73	2
114	115	6
125	126	1
118	124	1
37	38	6
172	173	7
179	179	3
72	72	6
78	79	4
177	177	6
74	82	2
121	121	5
81	81	16
114	114	5
127	130	2
143	143	3
159	160	2
154	166	3
173	173	14
142	142	4
176	176	10
102	103	3
174	174	15
59	59	12
65	65	9
150	151	5
0	0	10
71	73	1
66	101	4
100	100	7
33	33	20
123	123	19
12	30	2
5	6	7
76	77	5
165	165	5
33	36	4
147	152	5
90	92	6
162	163	3
13	13	26
169	170	1
54	55	4
80	98	7
53	54	5
92	92	18
178	178	10
71	80	2
118	119	4
31	31	21
81	93	2
129	130	5
52	52	5
17	27	3
56	56	19
132	132	11
101	102	3
77	77	5
117	118	3
10	19	1
156	156	3
33	35	3
3	3	4
97	97	4
110	111	3
40	41	9
7	7	16
147	147	9
103	103	15
131	143	1
55	56	3
173	177	2
38	38	20
116	116	10
42	52	1
64	64	9
30	32	3
6	6	10
18	19	3
70	71	7
11	13	5
28	28	9
38	63	3
146	146	4
36	51	2
86	87	6
40	40	11
27	29	2
111	111	7
28	29	7
56	57	4
158	162	4
52	88	3
32	37	5
83	83	5
68	68	1
60	61	6
137	138	3
96	113	2
168	169	3
164	165	8
51	52	1
142	143	5
82	82	11
13	15	3
17	17	15
27	95	4
107	109	5
119	120	12
21	21	13
112	114	2
150	150	9
73	74	4
26	27	2
107	107	12
158	158	13
31	36	1
57	58	4
117	124	2
43	43	27
90	93	1
126	130	6
122	122	7
79	80	6
79	79	11
84	86	1
113	113	7
13	23	2
51	154	1
125	127	1
91	91	2
82	87	2
160	160	12
55	55	6
97	101	2
15	19	2
92	94	2
120	120	2
3	4	10
140	146	3
86	86	3
138	138	11
10	21	4
96	111	2
31	37	4
36	64	3
112	112	6
50	50	4
81	83	1
99	99	7
92	93	6
34	34	10
44	44	23
170	172	4
154	155	3
148	148	22
14	29	1
5	5	16
34	64	4
107	112	2
131	132	12
156	158	3
170	170	7
53	88	1
97	114	4
118	118	14
96	109	3
16	17	6
12	12	14
33	88	4
26	26	8
157	159	2
101	110	1
149	149	11
37	39	2
171	172	7
139	139	9
4	4	8
165	172	2
123	125	9
1	15	1
29	29	5
42	43	7
89	90	5
113	114	4
2	2	9
133	133	8
67	85	2
23	23	11
92	95	2
14	15	4
60	60	5
117	117	8
8	9	15
145	145	5
52	53	4
67	67	9
115	115	8
65	68	4
93	93	9
55	81	3
15	31	3
13	27	5
62	80	3
151	152	3
163	165	3
83	103	2
154	158	5
6	9	3
170	171	2
148	165	2
132	143	5
147	148	4
25	25	12
94	95	5
140	162	3
138	139	5
68	104	6
66	67	4
67	117	2
11	12	1
143	144	3
1	2	5
130	141	2
51	51	4
143	145	5
49	51	4
23	60	1
40	43	1
127	127	8
9	11	4
32	42	3
41	42	10
159	172	4
153	176	1
36	50	1
20	21	1
14	16	2
85	87	3
88	96	1
5	19	3
54	54	11
61	138	2
106	179	4
24	25	7
107	111	5
174	175	2
5	17	7
31	32	9
117	119	1
131	144	4
9	15	5
124	124	9
73	75	7
36	37	10
58	59	6
15	17	4
12	18	2
132	134	4
55	77	1
177	178	2
2	22	1
161	161	2
165	166	2
152	152	6
61	61	2
6	7	5
18	21	4
32	33	6
157	174	5
118	128	1
35	37	5
93	132	1
88	89	3
24	32	2
27	31	1
113	120	2
135	136	3
112	113	3
71	72	4
172	172	5
14	28	2
63	63	2
151	153	2
153	154	5
64	65	4
10	11	1
22	23	2
30	30	14
61	63	2
52	54	1
0	140	4
109	112	3
18	20	4
149	150	1
67	68	5
15	37	2
129	129	8
77	81	3
3	8	4
36	38	2
115	116	3
5	30	1
76	76	7
30	31	3
134	134	3
4	7	2
158	173	2
44	45	2
103	104	6
41	44	1
172	174	1
84	87	2
72	74	2
134	137	1
137	139	1
143	171	2
84	84	2
98	98	3
140	140	9
17	18	6
60	135	2
63	86	2
135	151	2
52	58	3
121	132	2
62	62	5
52	147	2
109	128	1
18	59	1
178	180	1
90	91	4
150	179	3
40	42	4
88	88	4
89	89	1
101	101	1
38	39	4
127	162	4
179	180	3
53	58	4
103	105	2
79	88	4
13	14	7
91	92	3
19	21	1
54	74	3
29	30	10
119	119	6
123	124	3
146	147	2
59	135	2
83	86	1
20	30	2
54	56	3
150	159	1
61	62	2
1	32	3
7	10	3
106	109	4
94	94	2
68	107	3
155	178	1
5	16	1
85	85	2
39	40	5
114	163	1
117	122	1
5	7	3
108	140	4
87	120	2
175	177	1
113	157	2
24	24	5
175	176	4
53	56	2
99	101	4
114	159	1
95	102	3
141	144	1
2	3	3
83	84	1
144	156	1
13	40	1
27	39	2
96	112	2
23	35	2
129	131	1
150	170	1
75	80	1
37	52	1
37	40	1
9	13	2
68	71	2
90	123	2
107	159	1
85	89	1
151	151	13
157	158	6
178	179	1
60	91	1
37	56	2
21	25	1
122	123	3
145	146	4
57	63	2
144	160	2
153	170	2
67	71	3
36	139	1
159	178	2
77	79	2
122	124	1
26	28	2
16	20	2
138	170	1
98	101	3
128	131	1
112	122	1
28	30	1
38	77	2
96	102	2
50	51	2
80	85	1
121	122	2
124	125	2
27	43	1
59	61	1
134	140	1
36	41	1
106	108	1
32	36	1
139	140	4
93	94	3
135	144	2
75	78	1
76	92	1
60	62	2
42	45	1
116	121	2
8	12	1
105	105	2
126	141	2
168	173	2
134	139	1
5	10	1
67	86	1
31	43	1
108	108	1
144	145	1
54	136	1
97	119	2
98	99	2
32	40	1
54	77	2
14	17	2
142	145	1
150	180	1
8	30	1
61	95	1
68	103	2
25	27	1
104	105	2
168	170	3
20	62	1
35	65	1
18	25	1
127	131	1
12	20	1
74	75	1
135	140	2
159	167	1
70	73	1
24	61	1
116	117	2
117	125	1
74	76	1
115	119	1
155	177	1
109	110	1
63	64	2
8	43	1
114	123	1
142	171	1
118	138	1
94	176	1
127	129	1
151	159	1
53	55	1
12	42	2
21	62	1
161	162	1
20	22	1
8	45	1
101	111	3
150	152	1
13	16	1
7	12	1
106	106	1
111	127	1
142	144	1
17	24	1
124	133	1
87	87	1
111	112	1
164	164	1
9	23	1
136	138	1
0	15	1
84	104	1
30	41	1
107	142	1
163	164	1
11	14	1
52	56	1
115	118	1
118	125	1
21	33	2
24	39	1
149	162	1
11	26	1
23	25	1
