214	215	9
33	57	1
218	221	2
60	61	5
119	135	3
145	146	7
51	52	2
61	82	4
212	212	3
22	84	2
37	53	1
166	188	1
173	174	6
12	16	3
10	15	2
53	53	2
19	19	18
128	128	3
47	47	9
4	196	6
220	221	5
103	104	2
84	84	7
22	22	3
9	9	11
67	67	10
6	6	5
8	8	14
141	141	8
5	6	3
220	223	3
30	50	2
21	22	6
141	142	5
68	68	8
45	45	10
232	232	5
11	232	2
160	160	5
97	97	3
149	160	3
31	31	13
105	106	2
120	121	3
120	122	5
69	70	10
135	135	1
114	115	3
241	241	3
185	188	3
215	215	5
34	206	3
17	17	12
145	145	3
154	154	3
169	169	8
234	235	4
21	81	3
146	146	9
208	208	5
3	35	4
32	32	4
227	227	4
27	27	7
150	150	8
113	116	4
33	33	11
29	29	16
181	227	4
144	144	11
240	242	7
187	187	6
121	121	9
81	82	3
155	155	10
3	3	8
20	21	4
219	219	4
28	28	7
233	236	3
117	118	1
65	65	5
69	69	7
217	220	1
12	38	3
110	136	6
20	47	6
186	186	6
54	54	4
2	2	10
169	170	4
184	185	2
113	113	2
51	51	12
185	185	1
221	221	5
234	234	4
147	161	3
40	40	1
152	152	4
179	189	1
26	26	13
99	100	3
2	7	7
34	34	4
96	96	7
133	143	4
10	181	4
167	168	4
60	81	2
120	120	5
27	47	2
45	62	2
1	3	2
211	211	15
190	190	3
124	124	2
153	162	1
126	126	10
70	70	6
76	82	5
5	7	4
17	230	3
35	225	1
78	78	7
82	83	8
238	239	1
181	182	4
7	8	12
214	214	7
208	209	1
49	49	16
235	236	2
142	142	6
236	237	2
198	199	3
101	101	8
3	207	2
195	218	1
30	41	2
50	50	5
55	55	6
133	133	5
85	85	12
34	35	5
176	176	6
5	5	4
38	38	11
104	105	4
179	183	4
134	134	10
57	60	1
44	44	7
83	83	10
191	195	4
64	78	1
172	172	3
4	4	4
242	242	3
228	228	11
147	147	5
4	6	4
45	46	4
223	223	5
6	7	3
127	153	2
16	80	1
181	212	3
71	71	3
128	148	3
170	184	2
80	80	9
172	194	1
178	181	2
235	235	5
39	39	2
21	35	2
41	42	2
170	171	4
31	33	2
105	105	8
183	183	5
106	106	4
147	148	7
75	75	4
193	193	6
56	121	2
4	5	8
11	11	12
37	38	7
56	57	4
12	15	2
207	207	7
201	201	7
198	198	1
129	143	3
211	212	4
6	29	1
19	30	2
225	229	2
179	179	5
124	125	3
7	7	5
102	103	2
196	198	4
158	159	8
45	69	3
72	72	5
42	54	2
19	230	3
184	184	3
203	203	10
37	85	1
30	31	3
119	119	5
88	88	3
228	230	3
66	67	6
137	137	8
86	128	6
66	66	3
195	198	7
15	15	3
86	86	8
106	241	4
30	80	4
139	139	5
192	195	1
41	65	5
44	48	1
163	163	4
18	18	8
52	74	3
12	35	1
3	221	1
43	43	8
74	74	10
68	69	1
176	177	4
67	68	11
195	196	1
182	182	7
113	114	1
213	216	2
240	240	2
105	114	2
114	173	4
1	1	3
75	77	2
153	202	1
193	194	2
231	231	8
59	59	3
10	10	13
0	0	3
61	61	6
192	200	2
46	46	3
58	58	9
222	222	4
36	52	2
162	162	4
29	30	4
120	195	3
160	237	3
167	197	3
161	161	9
178	205	3
197	197	5
25	54	1
102	102	11
208	210	1
140	142	1
149	149	3
190	192	2
88	127	5
17	82	1
42	216	2
12	13	3
209	209	7
24	24	5
42	42	5
95	118	1
3	4	2
154	155	2
148	164	3
100	100	5
138	176	2
71	72	4
168	168	4
37	37	9
210	210	4
129	129	4
153	154	4
35	36	6
77	79	2
107	107	3
108	108	1
109	109	2
170	185	5
236	236	4
108	131	1
241	242	1
77	78	3
197	199	2
150	151	2
237	237	6
42	43	3
8	16	2
13	48	1
32	40	2
174	174	5
131	132	2
57	226	5
140	140	5
18	229	1
189	189	5
27	71	2
123	126	2
192	193	1
82	84	3
36	204	2
144	146	1
49	50	2
40	42	1
51	53	3
105	116	2
127	127	4
47	48	1
55	56	3
165	165	3
1	82	1
199	200	2
149	151	3
38	39	1
76	79	2
167	193	1
129	130	2
151	151	7
191	211	4
84	210	2
52	52	2
56	79	2
72	73	2
211	222	2
213	213	3
114	220	1
59	60	3
218	218	3
148	157	2
109	114	3
35	35	3
79	79	4
98	152	1
158	166	1
171	188	1
20	23	5
216	217	2
191	191	9
28	220	4
18	19	2
66	68	2
159	159	5
56	82	1
164	164	2
16	216	4
221	231	1
46	47	5
2	142	1
139	142	3
11	227	3
6	15	1
174	183	1
222	231	2
178	178	2
196	196	1
32	61	5
115	115	8
205	206	5
128	129	1
1	2	2
5	8	3
47	51	2
111	112	1
61	79	1
119	197	2
206	208	1
224	224	1
217	217	2
86	102	1
190	196	1
88	122	2
2	3	3
14	88	2
170	178	2
84	126	3
166	166	4
161	164	4
12	12	8
188	188	1
194	196	3
24	25	1
147	153	2
16	16	4
210	213	2
127	138	1
52	53	3
143	178	1
143	162	1
16	17	3
181	181	3
33	141	1
223	225	3
206	229	1
206	206	3
192	192	1
173	173	1
117	117	5
216	216	2
23	23	3
118	196	1
146	172	1
156	156	5
14	14	3
150	152	4
143	164	3
95	95	1
160	164	2
216	224	1
13	15	3
18	77	1
20	20	7
205	205	4
41	41	3
29	31	3
230	230	6
204	204	3
169	193	2
157	157	4
36	206	2
40	41	3
122	219	2
143	143	2
103	103	7
43	46	1
181	217	1
122	124	2
160	172	2
123	123	4
10	27	1
0	75	3
73	73	3
82	82	5
172	227	1
81	204	1
18	79	3
25	25	5
154	156	2
3	7	1
95	96	3
76	207	3
62	62	3
202	202	4
39	65	1
118	118	1
133	177	2
54	55	1
175	175	1
8	9	2
85	215	2
79	80	2
82	104	1
149	231	2
42	215	3
23	75	1
208	213	1
43	216	3
226	227	3
101	102	1
106	136	1
159	162	3
11	27	1
18	228	2
225	225	3
206	207	1
204	230	1
215	216	3
60	62	1
10	233	2
229	229	4
14	38	2
30	30	2
5	12	2
124	139	1
26	55	1
177	178	1
194	210	1
76	76	4
192	229	2
23	81	1
126	139	2
104	104	1
214	228	2
118	197	2
13	16	3
143	144	1
218	231	1
220	220	3
56	56	1
47	53	3
165	176	1
197	211	2
198	201	1
224	225	1
142	143	2
226	226	2
167	169	2
118	232	1
74	75	2
0	47	1
50	51	1
77	77	2
71	73	1
41	230	1
102	147	1
167	167	2
10	182	2
223	224	2
130	132	2
21	83	1
48	48	3
114	132	1
235	240	2
2	22	1
2	6	1
138	138	1
1	36	1
46	57	1
229	230	2
177	177	2
125	154	1
8	15	2
50	52	1
4	77	2
62	202	2
49	118	1
98	99	1
36	36	3
128	175	1
62	64	1
176	178	5
218	222	2
158	158	7
187	193	2
215	217	1
200	200	2
46	63	1
23	78	1
130	140	1
104	138	1
187	188	1
100	106	2
207	208	1
30	49	1
204	206	1
236	238	2
0	203	2
201	202	2
29	32	1
150	238	1
110	111	1
16	49	3
44	45	1
119	198	2
194	194	2
17	18	2
110	110	1
237	238	1
13	223	1
218	219	1
148	150	2
85	216	1
4	7	1
193	231	1
211	213	1
195	201	1
54	135	1
13	49	1
133	233	1
136	137	2
214	223	1
213	224	3
24	55	1
104	137	1
43	87	1
136	136	2
100	101	1
195	195	2
192	228	1
53	55	1
6	209	1
123	155	1
34	36	1
120	127	1
115	116	1
144	145	1
194	199	1
85	237	1
153	153	1
74	201	1
149	194	1
212	213	1
63	63	1
172	183	1
63	64	1
99	99	1
133	134	1
13	14	1
58	61	1
2	81	1
107	137	1
122	122	1
45	53	1
