167	183	7
191	192	12
158	167	2
45	48	3
187	187	24
58	58	19
145	155	8
180	180	33
193	193	33
9	57	7
47	53	3
145	145	26
192	192	32
23	23	23
71	73	10
26	26	21
177	177	27
147	147	32
10	10	26
100	100	15
18	18	40
54	55	13
122	122	14
43	43	13
102	106	3
109	110	6
38	38	32
35	36	15
2	2	19
33	33	17
4	4	11
79	80	8
75	100	7
117	167	1
171	171	35
106	106	5
152	153	16
126	130	5
62	63	6
157	163	2
135	135	18
178	178	27
15	18	3
48	49	5
161	164	12
148	148	25
170	172	9
12	13	14
158	158	29
35	66	1
196	196	18
185	185	25
123	123	5
158	192	4
138	138	11
174	174	16
161	161	23
61	61	17
50	50	14
31	31	15
57	57	9
118	118	25
158	159	10
44	45	18
42	69	2
76	77	5
31	32	11
163	164	8
188	191	4
188	195	4
149	161	2
24	25	14
35	35	26
0	0	19
37	38	14
70	71	12
42	42	6
40	70	1
161	163	1
116	116	12
1	4	2
82	86	1
10	12	4
75	75	8
15	28	2
150	152	3
64	64	10
187	188	13
29	29	4
178	196	3
115	115	20
107	107	9
116	197	3
88	89	10
180	182	4
95	96	12
197	197	19
15	15	14
78	80	7
156	156	16
109	109	19
44	44	26
193	194	19
121	121	10
124	124	9
51	52	8
1	167	3
159	160	13
169	169	25
165	166	16
28	30	5
7	9	2
143	155	3
34	34	15
9	12	1
118	119	15
103	103	16
61	161	4
41	69	3
113	115	3
165	168	6
160	160	22
80	80	23
13	18	2
28	29	7
175	175	11
133	133	25
186	187	6
108	108	19
23	24	5
131	135	6
59	59	8
124	132	2
149	150	7
153	153	14
138	140	5
116	119	3
141	155	1
152	152	19
169	188	1
58	59	6
16	17	6
40	41	9
154	161	3
24	24	23
22	23	13
5	6	12
41	41	16
74	103	3
157	157	23
165	165	19
9	9	34
29	30	3
7	7	14
164	164	16
97	98	3
21	21	11
140	140	20
139	139	19
8	62	3
84	84	7
151	151	30
136	136	15
36	36	25
104	105	5
70	70	13
154	155	25
75	76	1
49	49	20
148	161	5
67	67	9
117	118	9
2	184	3
56	57	9
179	180	14
20	21	10
83	83	21
23	183	6
131	131	18
99	104	3
125	125	19
42	88	2
30	30	18
18	19	13
3	3	21
94	95	15
9	53	2
117	117	23
141	141	17
11	12	14
150	150	17
128	128	5
99	100	10
163	163	17
150	154	5
1	1	13
94	94	18
128	129	6
2	3	14
154	154	26
104	104	15
179	179	18
77	105	1
8	9	4
15	16	9
77	78	12
113	114	9
82	82	7
60	64	4
69	69	6
83	85	3
86	86	17
56	56	11
173	173	13
86	90	4
122	123	3
55	56	9
52	52	8
172	175	1
172	172	20
70	74	3
40	68	3
168	168	31
21	22	5
191	191	22
22	22	18
176	177	7
143	143	24
147	170	5
156	157	15
87	88	13
19	20	7
63	94	2
169	170	6
105	106	11
5	7	4
5	59	2
53	56	1
183	184	12
112	113	4
81	82	5
1	2	19
155	155	25
167	167	22
48	48	13
9	31	4
143	145	1
127	195	2
24	148	2
142	142	10
181	182	16
47	47	6
194	195	11
173	174	12
182	182	26
168	169	11
7	8	18
146	192	8
106	107	6
103	104	6
61	159	3
72	72	14
159	168	4
93	94	2
177	178	4
45	49	1
55	55	14
73	73	10
16	33	1
46	46	14
149	149	28
99	106	3
97	97	10
3	5	4
17	29	2
18	185	1
170	171	4
87	87	18
121	122	9
4	6	8
136	137	10
34	35	7
184	185	3
181	181	25
0	2	8
167	178	4
167	177	2
17	17	11
144	172	2
189	189	29
128	187	3
157	173	4
38	57	1
33	35	11
132	132	23
188	188	17
5	5	21
113	113	12
69	80	3
8	8	16
9	10	12
14	14	23
194	194	25
166	166	26
105	105	2
115	117	5
32	33	3
167	196	1
102	104	1
159	161	4
70	73	2
85	85	18
148	179	2
146	147	11
136	195	3
100	105	2
117	197	3
39	40	4
180	181	5
37	37	11
147	148	14
1	24	5
179	189	2
63	63	21
100	108	2
32	32	8
7	20	1
13	13	15
138	149	9
0	23	7
162	163	16
175	176	15
120	197	3
139	140	11
143	144	7
111	111	15
169	184	3
101	103	1
129	160	1
11	31	5
58	63	2
186	188	6
98	99	2
136	152	5
12	12	22
51	51	15
120	120	3
102	102	10
107	109	3
26	27	11
180	189	5
82	83	9
30	32	7
64	66	10
127	127	8
38	39	3
129	187	5
101	101	6
20	20	16
112	112	12
186	186	32
120	121	8
159	159	20
113	116	8
8	14	2
85	88	7
60	60	9
79	79	13
16	16	12
81	84	3
185	191	2
45	112	1
120	122	2
54	54	11
98	98	6
2	167	1
96	97	3
29	38	5
171	172	7
19	186	4
63	93	5
139	193	1
159	162	3
35	64	4
1	168	1
25	25	14
109	111	4
87	101	1
41	67	8
101	113	2
124	138	2
12	14	3
17	42	5
147	174	2
35	37	3
158	191	5
76	76	8
126	126	4
164	189	2
164	169	1
184	184	11
135	136	2
130	130	17
148	156	2
174	176	6
129	129	8
77	77	21
161	167	3
82	84	3
169	196	2
170	170	13
66	87	1
170	177	3
34	64	1
61	62	8
13	16	3
37	39	3
1	184	4
126	127	14
85	90	2
78	78	6
182	193	4
61	165	1
154	174	5
67	69	1
73	74	7
29	138	4
195	196	9
77	85	2
162	164	12
30	39	1
46	47	3
161	165	6
95	95	7
67	68	14
104	106	5
133	134	2
135	137	4
145	146	3
100	101	9
183	183	14
121	123	2
58	60	2
110	110	11
19	29	5
44	58	4
157	158	7
90	142	1
150	151	11
119	120	5
149	177	3
140	141	8
44	57	3
39	39	10
85	86	5
157	159	4
28	28	7
119	119	13
144	144	8
176	176	18
43	47	4
27	27	21
167	180	2
151	176	3
129	130	3
56	59	2
134	134	9
134	169	2
147	160	2
193	196	1
7	58	1
132	153	2
82	85	1
74	74	8
59	60	6
154	175	1
159	192	2
95	97	5
85	89	7
143	181	1
193	195	1
126	129	2
5	15	1
38	44	6
127	129	1
86	87	6
142	143	6
162	162	10
0	24	3
29	33	5
79	84	5
143	172	2
68	86	3
68	68	12
71	74	2
121	141	1
150	189	1
156	192	5
25	26	12
87	89	3
11	11	12
170	176	2
3	4	11
109	112	2
138	194	1
40	40	14
191	195	1
27	28	6
54	56	4
20	31	2
138	139	9
118	167	1
59	68	1
144	145	5
137	138	4
108	109	3
157	187	3
45	45	15
123	197	1
68	78	2
85	100	5
139	141	7
126	128	1
142	157	1
83	84	2
5	23	2
19	23	4
152	164	4
43	44	5
152	154	3
186	194	2
155	156	4
150	177	2
0	1	9
114	114	8
50	51	11
141	148	3
131	132	17
146	156	3
19	19	13
130	141	1
45	47	1
169	185	1
19	147	2
151	175	7
146	170	2
170	186	3
115	116	8
137	137	5
154	173	3
151	153	2
24	27	6
8	22	3
53	53	6
27	32	1
177	189	1
155	160	1
157	192	2
15	168	1
182	183	7
157	167	1
10	11	6
15	43	7
73	86	3
195	195	5
190	193	1
145	154	4
179	192	3
132	137	1
179	181	3
85	94	3
161	169	4
99	99	3
2	4	1
103	105	3
116	138	5
184	187	1
166	167	10
142	183	1
28	31	3
5	14	2
117	141	1
17	27	1
180	183	3
190	190	8
141	143	1
123	126	3
147	179	2
71	72	3
52	55	7
69	71	4
164	166	1
119	125	3
112	115	1
38	145	3
11	17	1
116	117	6
36	37	5
149	160	2
59	61	2
163	176	1
169	182	2
53	55	4
188	189	5
172	173	3
114	115	8
128	188	1
169	187	1
77	79	2
59	62	3
97	160	2
87	90	1
155	171	2
40	42	4
139	146	1
158	163	1
66	66	9
141	142	7
172	189	1
36	67	4
190	191	11
1	23	2
164	197	1
170	189	3
44	48	3
23	25	4
168	183	4
6	6	11
47	48	4
130	156	1
110	112	7
60	68	2
164	165	1
161	162	8
110	111	2
9	60	2
58	62	3
107	117	1
118	141	1
177	179	4
59	69	1
78	81	1
132	196	1
156	164	2
84	106	2
45	46	3
157	174	1
130	131	5
42	89	5
158	181	3
173	192	2
25	75	2
124	125	1
176	179	2
144	146	4
41	43	3
178	179	3
22	62	4
10	13	3
13	14	6
56	123	4
173	176	1
20	30	2
111	112	4
167	176	2
159	194	1
104	107	3
157	193	3
115	137	2
65	66	2
1	3	2
9	22	1
40	43	4
53	72	1
84	100	4
49	50	1
127	186	2
134	135	7
192	193	5
145	147	1
98	115	1
174	197	1
19	21	3
4	5	7
8	11	1
146	158	3
149	180	1
18	21	1
150	174	2
84	107	2
88	88	7
116	118	2
123	124	3
187	194	2
155	157	1
165	183	2
40	67	1
24	54	2
62	62	9
144	171	1
39	144	1
45	132	2
75	101	2
141	195	1
146	146	7
46	133	1
20	37	2
140	155	2
15	24	1
67	71	5
96	96	5
175	177	1
71	71	2
59	97	3
59	83	2
14	185	1
141	147	5
68	81	2
173	181	2
20	39	1
60	160	3
89	89	2
81	81	7
128	135	1
20	34	3
102	103	3
184	186	2
94	96	2
189	190	6
41	68	7
10	17	1
153	174	2
147	175	2
8	13	2
148	174	1
10	15	3
9	136	1
45	135	1
156	159	1
65	65	7
174	185	2
171	189	1
171	183	3
156	193	1
25	147	1
145	157	6
38	40	1
131	137	1
173	175	1
119	121	4
126	135	2
66	67	1
81	88	3
59	67	3
77	90	2
47	134	1
187	195	2
24	26	1
8	59	2
15	27	2
5	13	1
121	126	3
128	133	1
9	63	1
33	38	2
171	176	1
14	18	3
16	29	3
36	144	3
6	58	1
196	197	5
18	27	1
15	32	3
172	174	2
189	193	1
17	18	4
126	171	1
160	161	1
34	63	1
32	138	2
143	154	2
9	28	2
185	186	3
16	31	2
107	108	2
178	180	1
6	7	6
18	71	1
166	183	1
122	135	2
72	73	3
144	182	1
73	75	2
8	10	1
127	128	2
126	133	1
25	148	2
108	116	1
23	29	1
133	136	1
39	141	1
16	18	1
148	149	4
125	127	3
30	37	2
142	145	2
16	19	1
156	158	2
151	152	1
124	127	5
144	154	6
130	137	3
125	136	1
132	135	1
23	177	1
140	168	3
2	5	2
129	195	1
21	24	2
153	154	3
42	45	2
113	118	1
129	131	2
187	192	2
18	23	1
179	182	1
63	64	2
122	167	1
144	173	2
4	7	2
33	62	1
120	152	2
16	27	4
132	195	6
169	183	1
146	153	3
51	54	1
12	136	1
167	169	1
30	31	6
142	155	1
139	144	1
57	59	1
42	44	1
177	188	1
119	127	2
190	192	2
168	178	1
140	195	1
63	65	2
145	193	1
61	162	3
20	22	1
89	107	1
163	165	1
133	135	1
4	14	4
146	148	2
57	58	1
115	119	1
141	146	1
70	78	2
5	8	1
140	143	3
168	172	2
130	150	2
165	188	1
43	89	2
6	21	1
155	192	3
105	107	2
34	37	1
41	70	1
65	86	1
51	57	1
174	175	2
118	120	1
103	106	1
8	58	2
33	34	2
0	3	2
130	151	1
155	174	1
72	81	2
13	186	1
75	77	1
142	147	1
33	37	2
105	108	1
119	123	1
16	140	1
21	32	1
88	90	1
129	186	1
187	189	1
178	190	1
101	105	1
6	8	1
176	178	4
70	89	1
143	152	1
30	36	1
23	148	1
32	36	1
69	73	1
125	126	2
156	178	1
36	69	2
111	119	1
131	154	1
171	179	2
143	150	2
29	31	1
109	137	1
80	81	1
2	181	1
0	4	1
139	149	2
138	155	1
145	181	1
156	167	1
152	155	1
45	58	2
102	105	1
171	177	2
188	190	1
171	173	2
80	83	1
101	102	1
138	180	1
140	149	1
47	196	1
17	26	1
41	42	1
118	122	1
118	160	1
57	150	1
137	152	1
39	143	1
146	151	1
100	114	1
182	185	1
98	114	1
18	147	1
43	45	1
