62	62	21
2	2	5
21	21	8
45	52	1
6	6	13
44	45	5
11	13	9
13	13	5
46	48	2
19	19	3
45	45	13
11	11	5
4	4	9
37	38	4
39	39	8
9	9	12
37	50	6
44	46	3
44	44	25
31	35	2
49	50	17
31	60	9
45	46	3
44	56	4
52	53	5
18	19	1
30	30	18
53	53	11
43	46	3
34	34	12
43	43	27
40	40	17
33	34	5
10	10	10
33	35	4
57	57	14
3	3	5
2	3	14
48	48	20
56	60	8
43	44	3
20	21	6
33	33	24
16	16	7
58	58	15
54	54	15
46	46	20
2	6	2
48	49	5
29	52	4
51	51	11
14	14	9
36	36	23
39	52	4
41	54	7
7	7	15
17	17	5
50	50	22
5	5	12
49	49	17
40	41	5
38	39	6
21	24	3
42	42	17
51	54	4
61	61	12
1	1	13
56	56	13
12	13	2
32	43	1
11	12	9
44	47	5
47	47	25
31	32	7
36	44	4
25	25	8
37	37	17
45	54	6
36	57	1
32	32	20
4	49	2
17	18	1
13	18	4
42	43	4
17	60	1
55	55	15
36	46	4
44	48	3
41	41	18
39	50	5
38	38	13
37	45	12
45	55	4
10	11	3
58	59	3
25	59	1
37	41	1
55	56	8
37	42	1
31	42	9
37	47	2
29	29	2
45	57	2
52	52	23
53	54	4
30	46	3
49	56	1
7	8	2
60	60	9
22	22	2
58	60	7
0	0	8
35	45	1
34	35	7
22	23	3
15	15	1
14	15	5
35	37	1
9	10	1
50	51	1
4	5	3
46	55	5
51	53	3
16	17	2
37	39	2
39	51	3
45	60	1
37	52	1
6	7	7
23	31	2
35	35	6
59	59	1
17	20	1
25	57	1
60	61	4
16	20	3
15	16	5
36	55	1
23	23	3
39	43	2
44	55	1
30	36	2
31	56	1
46	47	3
42	55	3
42	44	2
30	31	3
10	13	1
61	62	4
41	60	2
35	57	4
47	48	2
37	54	1
45	47	5
18	18	4
38	52	3
11	15	1
24	24	3
31	31	10
3	4	4
1	2	4
54	55	1
9	12	1
32	33	1
38	40	1
21	22	1
31	55	2
17	21	2
51	52	2
35	36	3
29	55	2
19	20	1
57	60	1
39	48	1
8	8	1
39	58	1
24	25	2
10	12	5
48	50	1
41	58	1
3	5	1
20	20	1
36	39	1
56	62	1
46	51	1
34	56	1
24	31	1
57	58	1
35	56	1
36	50	1
56	57	1
10	30	1
