25	25	10
77	77	11
57	58	4
129	129	3
232	232	4
57	59	1
40	41	10
9	9	18
29	29	4
109	109	5
217	217	4
57	57	7
8	13	4
210	211	2
122	122	12
102	102	6
53	55	5
117	119	2
53	58	1
119	125	4
48	48	7
167	167	8
27	28	2
69	70	4
53	53	13
161	161	9
221	221	10
68	68	9
142	143	1
8	8	11
61	61	11
122	123	5
7	8	7
111	111	2
84	84	11
202	203	8
203	203	5
103	103	1
50	50	15
71	71	32
190	191	2
135	135	7
19	19	11
1	7	4
189	193	3
51	52	4
4	5	9
101	101	5
97	97	12
42	42	15
165	165	6
220	220	10
172	172	2
114	117	2
182	182	3
210	210	7
145	145	10
168	168	6
198	198	3
163	212	2
162	162	10
66	67	8
237	237	6
16	16	8
65	66	6
153	153	8
228	228	4
38	38	11
223	224	4
120	172	1
189	191	2
119	122	2
23	23	16
27	27	28
234	235	2
41	41	16
201	228	4
137	137	5
165	167	4
208	208	4
105	105	8
33	33	10
183	183	9
47	47	12
18	19	3
123	123	15
227	227	10
175	175	6
43	62	2
164	164	9
114	114	5
20	20	10
139	140	1
109	112	5
103	104	2
73	97	3
191	191	6
11	11	11
17	21	1
198	199	16
127	127	9
43	43	16
155	155	8
164	165	5
3	5	5
207	207	7
236	236	7
40	40	5
39	39	12
206	206	9
1	2	7
242	242	11
128	128	5
6	12	1
200	200	16
173	173	10
11	12	1
125	125	9
234	234	13
222	222	8
205	213	5
74	74	14
218	219	5
229	229	5
119	119	8
6	36	3
160	172	2
48	59	3
191	192	2
195	196	2
225	225	7
2	7	1
108	108	5
45	45	14
195	195	12
199	199	7
166	166	12
144	144	3
46	46	13
11	33	5
105	204	3
105	205	5
28	28	5
126	127	2
174	174	6
72	72	7
39	109	4
230	231	8
106	106	5
61	62	4
185	185	4
140	141	1
156	157	6
82	83	6
238	239	5
97	99	3
163	211	4
76	76	10
173	215	3
20	76	2
170	171	5
30	30	9
70	71	5
34	36	4
65	65	4
32	34	1
99	99	15
177	177	9
197	197	8
23	24	1
14	14	9
114	119	1
10	10	9
116	200	2
138	139	4
186	186	9
83	83	13
11	15	1
24	24	10
179	180	4
138	203	3
150	151	9
163	163	7
184	184	8
219	219	8
136	138	2
159	160	2
63	65	2
1	8	1
63	63	18
88	88	5
60	60	8
7	7	4
164	179	2
205	206	3
136	136	9
181	181	3
237	238	2
235	237	3
82	82	10
165	212	1
86	86	8
0	37	6
55	55	11
214	214	6
142	142	4
80	80	12
112	133	1
143	152	5
113	113	8
54	54	7
64	64	7
17	19	5
202	204	3
189	190	4
194	196	2
228	229	1
140	140	1
121	220	1
141	143	6
58	61	1
24	202	1
107	121	2
146	146	1
5	5	4
34	35	1
193	195	2
9	10	2
216	216	4
21	22	2
114	115	2
16	17	5
235	236	3
218	218	7
107	107	4
8	36	1
104	151	2
98	98	4
178	178	8
15	15	10
105	106	6
74	75	7
104	104	4
52	53	1
138	138	5
37	37	5
62	62	10
13	13	10
44	46	1
53	63	1
205	227	3
86	112	3
212	212	4
169	169	8
105	139	1
70	70	11
45	59	2
184	185	7
116	123	2
47	242	2
162	166	4
224	224	1
14	15	5
165	170	7
167	169	2
171	171	9
157	157	7
241	241	4
51	54	2
163	173	4
67	67	9
122	127	1
188	188	7
56	56	2
53	54	5
188	189	1
209	213	3
201	201	6
116	116	6
120	120	4
0	0	10
110	110	2
71	73	3
133	134	4
180	180	3
51	60	4
204	204	6
15	16	2
122	175	8
107	109	2
17	17	7
223	227	2
6	22	2
51	51	1
49	54	1
39	40	2
83	84	5
116	171	1
22	23	8
199	200	4
158	158	14
22	24	5
142	147	4
4	22	2
31	34	3
59	59	12
46	50	1
21	21	6
178	180	5
12	29	4
28	197	2
69	69	5
34	34	6
40	196	1
167	176	2
207	227	4
136	152	4
44	45	4
143	147	2
4	4	23
22	22	4
151	151	4
231	232	2
39	42	2
209	209	2
2	198	1
140	142	2
79	80	2
55	57	1
70	72	2
187	211	4
148	149	3
1	1	7
95	95	8
162	165	6
162	175	3
177	178	1
214	215	1
238	238	6
141	145	4
44	113	1
71	72	4
4	23	2
2	221	1
64	65	3
112	112	3
28	83	3
59	60	5
3	4	6
159	159	5
26	27	4
45	46	6
43	46	3
35	37	2
156	169	1
119	159	4
227	233	1
119	223	1
21	34	1
18	31	5
55	59	1
146	147	1
152	155	1
139	139	5
196	196	5
108	116	1
192	192	3
56	57	1
85	86	2
152	152	6
190	190	2
150	150	4
141	142	3
79	79	1
14	35	4
223	223	4
71	218	2
67	68	1
20	82	2
180	181	4
131	131	2
133	133	2
197	198	1
143	148	1
28	29	2
219	220	4
214	216	1
26	26	5
12	12	5
3	3	10
52	62	1
11	29	2
47	198	2
2	2	3
109	113	1
116	122	3
178	179	5
137	139	3
228	231	1
145	149	1
202	202	2
80	81	3
58	183	2
115	125	2
225	232	3
12	13	3
81	83	3
35	35	5
136	137	1
55	56	4
16	18	3
52	52	5
231	231	1
18	18	4
120	121	4
81	81	7
135	136	2
205	217	4
212	214	5
158	159	2
50	51	6
66	66	4
34	51	1
49	103	2
37	46	2
209	210	3
118	118	1
82	146	1
175	176	1
106	205	2
230	230	5
122	177	1
221	222	1
204	206	4
19	41	2
15	24	4
45	217	1
20	22	2
45	205	3
25	234	3
179	179	6
155	170	1
141	141	6
200	212	4
211	227	1
100	101	1
120	128	2
78	78	2
239	239	4
63	153	1
157	158	1
18	29	2
133	136	1
106	217	1
116	117	2
118	228	3
115	223	1
233	233	8
10	39	1
85	85	4
149	151	2
47	52	2
104	105	4
220	223	4
106	107	2
221	224	1
160	160	5
37	38	1
134	134	1
224	225	1
225	226	3
56	147	1
143	146	3
124	124	4
174	193	3
120	171	1
13	14	1
211	211	2
65	240	1
58	59	2
213	213	5
6	6	2
173	175	1
42	43	5
29	30	2
121	121	1
175	211	5
1	3	1
126	181	3
44	44	1
206	218	1
49	51	3
208	209	1
174	175	1
161	184	1
51	58	1
66	68	1
24	25	4
163	200	1
192	198	2
76	81	3
5	23	1
102	103	5
117	168	1
215	215	1
230	232	1
213	216	1
162	212	1
24	26	1
25	26	4
170	170	1
75	75	2
200	201	1
29	92	2
137	138	1
118	122	2
49	49	1
240	240	4
149	149	1
176	176	3
180	183	1
30	33	1
32	33	1
51	53	4
96	96	1
118	220	1
119	171	3
96	104	1
136	140	1
112	113	1
4	7	1
46	47	1
201	202	1
140	147	1
31	31	3
153	155	2
115	115	1
6	16	1
123	127	1
8	9	2
145	146	3
212	213	1
23	34	1
205	205	2
187	187	1
73	96	3
45	113	1
5	6	2
21	81	3
11	13	1
31	32	3
36	36	1
73	73	3
174	183	1
1	20	1
156	188	1
30	31	1
63	147	3
101	102	1
231	233	1
41	195	1
17	18	1
120	207	1
130	130	1
8	15	1
160	161	1
71	98	1
129	157	1
43	61	1
217	218	2
205	229	1
0	201	1
76	77	1
155	157	2
45	47	1
27	85	1
104	143	1
39	126	1
210	223	2
127	177	1
206	227	1
103	105	2
102	105	1
156	156	1
224	232	1
217	222	1
100	100	1
4	18	1
35	51	1
4	221	1
162	207	1
150	152	1
173	174	1
13	15	1
171	172	1
240	242	1
91	92	1
