66	66	14
59	59	5
75	75	9
27	27	5
72	72	6
77	81	4
73	73	3
87	88	1
50	56	6
13	14	4
58	58	6
21	22	4
26	27	12
51	51	14
68	89	8
63	65	3
63	66	6
31	31	7
81	81	13
50	53	1
54	54	8
66	74	6
32	87	2
9	10	6
71	79	2
64	66	4
5	5	2
60	60	2
17	17	13
82	82	5
7	7	9
75	77	3
59	65	7
52	62	5
84	84	7
48	48	6
55	55	3
50	51	3
77	77	7
34	49	2
55	63	5
46	46	4
53	62	1
4	5	1
3	4	1
54	55	4
4	4	4
0	0	4
71	80	3
8	8	7
9	9	7
13	13	9
13	82	1
19	19	9
67	74	2
52	58	4
35	35	4
57	57	3
50	50	3
30	31	2
86	86	4
53	53	3
3	3	1
5	22	1
20	20	4
53	54	6
52	53	1
9	12	4
55	56	2
23	23	2
69	69	7
67	67	11
71	72	3
55	79	1
26	26	3
51	55	1
62	83	3
48	66	3
73	74	1
76	77	3
71	71	5
62	81	5
1	1	1
24	24	9
75	84	1
5	6	2
49	55	5
59	60	3
23	24	1
10	12	1
63	80	3
34	34	2
72	73	1
78	79	1
56	56	10
58	66	2
25	25	7
51	53	1
68	68	7
89	89	1
67	68	1
14	14	5
15	16	5
50	52	3
22	22	6
8	12	1
6	7	4
58	74	1
52	52	3
57	58	4
65	65	4
88	88	4
74	74	10
52	55	2
85	85	6
15	58	3
0	1	1
78	78	3
58	61	1
12	12	3
51	59	1
65	79	1
80	80	4
75	76	2
80	81	3
79	79	4
71	82	1
76	76	4
27	28	3
83	83	2
74	75	4
48	49	6
51	52	3
19	20	5
10	10	4
1	2	4
61	82	2
12	13	2
21	23	3
14	20	1
70	70	1
6	6	4
34	35	1
86	87	3
8	9	2
25	26	1
61	65	1
56	65	3
47	47	4
5	7	2
51	56	1
51	63	3
60	61	1
63	78	1
63	63	4
11	11	2
20	27	1
82	84	1
72	74	1
16	16	1
62	62	1
87	87	2
30	58	1
49	53	1
28	28	2
79	80	1
57	66	2
68	69	4
48	53	1
47	48	3
13	83	3
82	83	1
24	50	1
30	57	1
61	61	2
9	24	1
31	77	1
66	67	2
70	87	2
5	26	2
84	87	1
69	86	1
4	56	2
56	57	2
30	30	3
10	25	1
15	15	1
23	27	2
68	74	2
62	63	1
77	84	1
50	54	2
8	11	1
22	23	1
74	88	1
73	78	1
60	62	1
67	81	2
2	2	2
64	64	1
49	49	1
47	70	1
