20	39	4
117	130	3
50	52	5
144	144	31
21	21	27
143	143	14
55	55	8
138	138	11
98	98	4
126	134	2
80	80	7
58	58	15
69	109	2
92	92	21
67	118	2
54	54	9
2	2	9
54	58	6
135	139	8
81	82	3
70	72	5
34	35	6
83	84	14
89	89	23
40	40	26
0	5	7
87	138	5
108	108	17
99	100	3
133	133	10
14	14	17
84	84	5
26	27	7
66	66	9
137	137	10
18	18	23
145	146	10
6	10	2
126	138	5
118	121	1
30	30	12
119	119	22
132	132	22
27	27	26
144	145	8
113	113	8
123	126	3
114	114	4
64	65	3
73	73	13
121	121	17
116	116	11
42	42	12
136	136	22
86	92	3
30	31	4
33	75	6
47	48	3
121	123	2
86	86	2
0	36	1
56	106	1
119	136	4
48	48	9
34	34	9
17	42	3
66	75	2
96	96	14
124	124	18
122	122	16
129	130	15
59	59	7
20	20	5
6	6	11
8	10	2
141	141	33
67	67	22
37	37	23
118	118	14
125	128	4
57	58	2
128	129	14
19	19	23
121	129	2
127	128	4
51	66	2
124	125	16
29	29	10
49	49	8
64	85	1
127	129	2
115	120	4
65	65	5
53	55	6
24	25	5
26	122	2
56	56	16
103	104	5
146	146	1
94	94	7
23	24	10
140	140	9
109	133	1
26	26	21
68	128	1
55	58	2
126	126	19
1	1	12
137	138	14
116	117	3
23	23	12
120	120	34
101	101	14
54	68	3
112	112	12
120	134	11
78	79	4
135	140	10
111	111	8
119	120	3
10	23	2
98	131	5
22	22	20
130	130	22
80	81	7
64	88	5
16	16	22
16	17	7
129	129	14
117	139	3
134	135	2
142	142	29
13	14	8
17	60	3
5	6	10
53	95	2
51	52	2
93	108	2
39	39	7
141	142	5
19	130	2
47	47	6
32	32	10
52	143	6
134	134	19
82	82	4
47	52	6
91	91	21
8	8	11
76	76	15
72	72	12
0	1	6
128	128	25
71	71	8
19	124	1
104	104	6
37	38	4
145	145	19
77	77	1
109	119	2
87	87	14
88	88	13
117	123	3
86	116	1
136	137	5
39	40	4
4	4	5
117	117	23
123	123	13
95	96	9
52	52	8
30	33	3
28	28	12
105	105	9
96	99	3
103	103	18
127	127	19
125	125	22
58	89	4
57	57	18
0	0	1
62	95	2
55	68	7
122	123	18
66	88	2
106	106	11
102	102	7
79	80	4
109	109	10
124	134	4
63	100	2
78	78	13
24	143	3
74	74	10
20	21	10
15	16	7
115	116	7
135	135	9
65	85	1
12	13	3
90	90	11
112	114	2
105	106	6
5	5	21
100	100	5
87	89	2
76	126	3
35	35	2
111	137	5
131	131	11
25	25	15
99	99	12
139	139	15
3	4	6
86	88	5
72	86	5
112	120	10
96	103	3
32	114	1
24	24	8
134	139	3
79	79	7
64	64	9
61	77	2
111	113	2
127	130	5
36	79	2
97	97	8
50	69	1
134	137	3
92	93	3
125	126	3
60	133	3
111	112	7
52	53	1
62	62	10
14	113	1
85	85	5
32	36	1
25	100	1
118	119	14
78	126	3
27	139	2
138	139	3
24	142	1
95	95	7
132	134	9
108	130	2
32	33	10
54	113	2
55	67	2
75	76	3
39	41	4
69	117	2
121	139	3
41	42	5
21	22	7
35	36	3
100	113	5
37	48	1
5	20	12
48	53	3
55	56	8
33	47	4
15	25	1
19	134	4
33	73	2
80	125	2
12	12	6
62	106	3
77	78	5
2	4	4
53	54	1
51	93	2
107	107	9
115	115	6
136	138	3
107	120	2
33	35	4
126	127	7
100	101	8
2	21	2
11	11	17
61	61	8
51	51	5
75	75	13
116	118	1
36	37	3
10	10	19
33	33	5
117	128	4
101	102	10
1	4	1
131	132	5
63	105	3
101	104	1
107	144	6
70	70	5
61	62	5
66	99	5
85	87	2
10	11	4
13	15	1
124	141	5
33	36	3
101	105	1
18	138	3
59	60	7
36	36	8
33	34	9
31	31	5
87	90	4
3	16	2
3	3	6
19	20	2
118	130	4
12	21	3
34	96	4
17	17	19
31	82	3
117	126	2
117	131	3
107	110	2
39	52	2
15	15	10
27	84	1
40	41	3
61	141	5
9	9	9
117	118	3
28	29	6
36	75	2
83	102	10
32	89	2
121	133	1
9	10	2
38	116	4
53	108	1
60	100	2
71	72	1
82	84	3
60	62	3
53	53	3
135	138	3
27	28	2
8	23	2
106	108	1
113	114	3
119	128	2
2	24	1
134	144	4
93	93	10
140	141	6
14	16	2
81	81	10
93	120	2
2	3	9
60	60	7
81	83	2
80	90	3
68	68	8
75	83	3
91	92	2
16	18	3
37	41	2
63	63	5
135	136	6
64	79	1
70	88	1
71	107	3
99	111	2
120	131	4
68	69	1
109	117	4
102	103	1
31	34	2
106	107	5
131	133	8
112	117	3
133	134	4
19	60	2
106	109	1
9	12	1
114	129	2
61	67	3
17	88	1
2	5	2
34	47	3
42	43	1
49	50	3
69	69	4
48	129	4
95	126	1
141	143	1
119	126	3
82	83	2
85	92	2
26	82	2
69	91	2
97	98	3
76	81	2
70	71	5
77	126	2
54	57	1
117	119	1
104	106	1
71	117	2
58	59	2
104	108	2
57	126	2
38	39	8
99	117	3
13	13	3
65	72	1
18	19	3
133	137	1
23	143	2
139	140	3
93	94	3
54	139	3
56	113	1
16	113	1
32	35	2
41	41	4
66	67	2
134	136	3
134	141	1
87	88	2
143	144	2
31	32	3
12	33	2
66	102	1
88	89	2
48	49	1
106	110	2
136	139	3
27	48	1
90	102	3
83	83	6
102	104	3
56	69	1
73	76	2
114	125	1
67	97	4
31	35	1
34	36	4
56	109	3
19	131	1
93	106	2
110	110	6
80	83	1
31	33	7
64	84	3
99	104	1
50	50	4
71	86	2
94	98	1
120	121	5
74	128	1
91	117	1
98	99	1
55	108	3
71	118	2
50	82	2
142	143	2
36	40	1
47	51	1
74	127	1
17	18	1
56	68	2
25	26	1
120	140	2
110	118	1
2	10	2
72	73	1
25	123	1
126	142	1
49	51	1
68	120	1
50	130	1
119	122	1
74	98	1
54	55	1
63	95	1
119	125	1
61	63	1
90	91	2
22	51	2
50	51	2
113	117	1
9	65	4
98	104	1
17	29	2
90	94	2
65	66	2
85	91	1
25	32	1
69	70	2
100	110	2
74	75	1
36	48	1
19	30	1
40	52	3
80	89	1
64	66	1
57	59	1
61	133	2
115	117	2
119	134	4
36	73	1
115	118	1
38	38	4
53	68	1
43	43	2
137	140	3
121	122	2
95	128	1
103	110	1
0	8	1
96	98	3
84	85	2
26	123	1
65	87	1
82	88	1
71	136	1
13	32	1
91	105	1
19	133	1
17	30	1
20	34	1
89	113	1
84	90	1
51	53	2
14	15	2
116	128	1
118	131	1
110	111	1
67	115	1
138	140	1
3	11	1
33	48	1
86	106	1
132	142	1
62	64	1
40	43	1
26	33	1
129	131	1
63	66	1
74	87	1
10	12	1
50	145	1
12	91	2
19	22	1
90	113	1
55	64	1
140	142	1
111	114	1
