16	18	1
6	12	3
100	111	1
31	32	7
76	76	10
85	85	9
2	2	12
35	35	6
105	105	3
81	88	3
132	133	6
102	117	3
86	88	1
101	101	13
107	108	3
100	100	12
77	77	7
76	77	1
97	111	1
103	103	16
117	118	7
81	81	7
80	80	9
89	89	11
130	130	9
78	93	2
136	136	9
21	22	5
130	131	7
15	15	4
134	134	10
14	14	9
124	124	11
83	85	2
93	93	6
112	112	8
127	127	12
78	78	9
121	121	11
118	118	14
113	113	9
124	126	2
109	110	3
15	19	5
33	33	3
111	111	4
131	131	15
17	17	10
107	109	2
137	137	13
107	107	4
123	124	11
12	25	2
4	4	4
123	126	1
37	38	4
115	115	6
119	120	2
95	95	16
90	90	5
98	111	5
21	21	4
133	133	7
18	18	6
117	120	3
126	126	8
7	7	11
104	104	4
1	4	2
114	115	7
124	125	10
29	32	3
138	138	9
84	86	1
133	134	6
129	129	7
140	140	2
26	26	7
94	94	8
123	123	17
6	6	9
28	33	1
92	93	1
27	27	10
73	95	2
128	128	8
118	119	7
116	116	13
99	121	1
20	21	3
71	71	5
122	122	20
91	112	1
109	109	8
3	3	5
113	127	4
100	109	1
139	139	5
80	82	1
74	74	7
3	30	1
87	87	6
109	116	1
25	25	5
91	101	2
74	92	3
111	127	1
135	135	2
99	100	4
131	132	3
134	135	2
110	116	2
109	111	5
102	118	6
15	17	1
108	122	1
132	132	5
88	88	9
91	91	6
84	84	4
74	80	7
97	98	2
103	104	3
113	133	1
124	127	3
79	79	4
74	79	3
128	129	3
83	83	3
30	30	2
125	126	5
22	22	6
124	128	2
86	86	2
82	82	2
1	2	5
140	141	2
137	138	4
141	141	1
119	119	5
31	31	2
98	98	2
5	5	8
34	34	6
85	86	2
93	94	3
114	114	9
110	111	2
9	23	1
78	79	1
8	24	7
119	122	11
74	75	1
129	130	3
38	136	1
71	81	1
0	1	2
120	120	3
29	31	4
117	117	9
14	15	2
37	37	5
28	28	1
74	89	1
124	129	2
101	103	2
74	90	3
98	99	1
135	136	3
126	128	2
119	121	1
93	101	4
90	95	1
28	112	1
33	110	2
103	120	3
0	2	1
0	0	3
23	23	1
110	110	7
102	102	4
111	123	3
84	85	2
98	127	3
8	9	2
75	77	2
7	26	4
26	27	1
116	118	1
9	9	3
12	26	1
12	13	1
127	128	2
99	120	4
38	71	1
72	73	5
2	4	2
108	116	1
1	3	2
108	108	2
120	123	1
115	117	1
112	114	2
99	99	2
1	1	1
113	123	1
14	27	1
84	90	2
11	12	2
30	31	1
75	75	2
93	103	1
78	94	1
96	97	2
102	121	1
8	21	2
32	32	1
116	117	3
9	11	1
113	114	2
16	16	2
97	130	1
136	137	2
8	25	2
101	102	3
19	19	3
92	97	3
24	24	1
12	12	2
111	128	1
125	125	2
100	110	1
73	74	1
72	72	2
131	133	1
86	87	1
8	23	2
34	35	1
23	24	1
94	101	1
5	6	1
27	31	1
22	23	1
3	38	1
99	112	1
20	26	1
2	7	1
96	98	2
38	38	1
106	107	1
79	80	2
89	90	1
89	91	1
98	124	2
117	119	1
116	132	1
1	102	2
90	107	1
4	5	1
