27	27	6
17	17	11
36	36	12
38	38	13
100	115	5
19	19	5
87	87	11
154	162	2
165	166	5
55	57	4
2	2	5
4	4	3
162	162	3
26	26	15
42	42	10
86	87	2
27	28	2
9	19	3
62	62	2
71	71	5
47	47	6
29	29	3
69	69	3
188	190	2
14	14	3
8	8	5
68	72	6
72	72	7
33	33	2
29	33	1
34	34	4
77	98	1
15	15	1
125	125	7
11	12	3
89	97	2
94	94	1
22	25	4
167	167	7
140	141	2
109	125	2
89	90	3
70	70	6
56	56	12
65	66	4
77	77	12
82	82	1
32	87	2
80	81	3
71	72	3
113	113	1
31	32	2
137	137	5
21	21	10
180	180	1
133	133	5
131	131	6
109	109	7
74	84	4
39	39	5
108	108	16
88	88	10
10	10	5
11	11	13
78	87	5
48	48	8
6	6	4
60	60	3
57	74	3
119	137	8
178	178	1
157	157	4
62	65	2
144	145	1
31	31	3
152	153	1
81	99	2
70	106	2
177	177	8
1	1	4
85	116	3
103	106	1
67	67	10
74	74	6
12	12	10
117	131	2
99	100	2
55	55	7
73	73	6
122	122	8
37	37	9
118	118	2
44	44	4
83	83	2
149	150	3
93	112	4
149	149	5
163	163	4
172	172	4
103	104	3
25	25	6
115	131	1
95	95	2
0	0	10
116	116	2
140	140	7
16	63	1
181	181	2
19	41	1
147	149	1
131	133	2
96	97	4
164	165	4
115	130	4
84	84	5
13	13	7
133	134	2
111	111	2
105	108	2
54	54	5
75	75	2
128	159	2
40	41	4
95	96	5
137	149	1
7	7	9
105	105	2
141	142	5
92	92	5
91	91	9
174	174	3
26	27	1
24	24	8
18	18	6
44	45	3
45	46	3
79	85	1
12	13	4
116	117	1
35	35	3
70	71	2
123	123	5
86	86	6
142	142	2
83	96	1
22	22	7
100	114	6
145	146	5
53	53	6
119	119	4
14	15	8
137	138	2
143	143	3
147	147	2
3	3	2
93	100	4
41	71	5
153	153	1
151	151	2
132	136	3
107	108	1
138	138	5
187	188	1
45	47	1
16	16	8
99	132	1
10	11	3
157	172	2
27	30	4
30	31	3
135	135	2
164	164	7
78	137	2
22	36	1
161	161	4
106	121	1
85	95	1
87	88	2
85	86	7
112	113	4
167	170	4
78	78	1
121	121	4
66	66	1
97	97	1
7	8	6
10	19	6
102	102	1
155	155	5
93	93	7
16	17	2
96	96	5
23	23	4
85	85	3
41	69	5
105	106	5
112	112	11
32	83	1
128	141	1
118	119	4
126	126	4
132	133	2
98	99	1
174	183	1
84	85	5
111	112	3
104	104	7
8	13	1
148	148	3
53	55	3
190	190	4
134	134	1
183	183	2
66	67	1
185	186	1
13	15	1
63	63	2
80	80	2
48	67	2
152	185	1
123	125	1
91	101	4
63	64	1
146	146	5
138	146	2
56	69	1
25	27	2
58	58	1
144	152	1
93	94	4
37	42	3
174	175	1
130	130	3
171	171	2
98	98	2
13	14	1
158	158	2
101	101	3
146	147	2
175	175	2
83	97	2
99	118	3
46	47	3
62	66	1
123	126	1
20	20	4
74	75	2
9	9	2
104	107	1
156	156	3
45	45	1
141	141	5
127	129	1
67	78	2
183	184	1
30	30	3
123	157	2
169	175	2
65	65	2
170	170	1
185	185	2
99	99	3
68	68	3
143	144	2
169	169	3
169	170	2
76	76	5
159	173	2
5	6	1
13	23	1
21	28	2
123	129	2
10	20	2
41	41	3
97	98	2
129	133	2
2	3	1
83	101	1
119	166	1
108	110	3
88	89	1
10	12	1
101	121	2
52	69	2
124	124	1
187	187	2
145	145	5
80	137	1
100	100	3
93	110	1
19	20	4
81	114	1
128	128	2
57	77	2
97	99	3
64	64	4
120	120	2
90	90	4
16	39	2
135	147	1
110	135	1
21	22	1
57	57	1
44	53	3
182	182	2
79	79	3
6	8	1
115	115	1
65	67	2
162	163	1
114	114	1
110	110	3
13	40	2
46	46	1
1	5	1
112	139	1
8	25	2
106	106	1
78	79	1
46	70	2
40	74	2
150	150	1
61	61	2
154	155	1
32	141	1
32	32	1
152	152	1
77	78	1
15	123	1
20	21	1
90	115	1
89	89	1
29	30	1
42	43	1
142	148	3
40	40	1
56	64	1
54	56	1
72	82	1
125	126	1
39	40	1
126	127	1
69	70	1
103	103	1
