28	28	11
15	15	6
33	33	10
122	122	32
121	125	1
90	112	1
76	77	9
57	57	11
55	55	11
66	66	14
80	80	19
115	120	2
81	81	9
78	78	12
12	12	13
61	95	3
103	135	2
75	85	3
124	124	6
122	123	5
18	18	12
58	96	5
119	120	4
61	61	18
56	96	9
125	125	19
128	128	25
27	29	1
68	69	12
83	83	8
74	74	11
7	8	7
56	56	5
102	103	7
80	81	4
116	116	7
65	66	3
45	45	12
105	105	5
110	110	22
77	78	4
30	30	28
109	119	2
14	14	22
115	115	12
96	98	4
75	75	31
18	50	1
130	130	29
90	90	9
127	129	5
44	45	6
104	104	24
89	90	6
92	93	6
68	68	10
56	57	4
71	71	17
59	79	5
54	54	23
118	118	27
21	21	14
70	73	5
132	132	31
81	82	5
113	113	13
77	77	16
121	121	16
20	21	6
48	49	3
98	99	2
92	92	27
7	11	3
129	131	10
99	99	16
129	129	16
26	26	11
32	32	7
99	105	7
63	67	4
102	102	14
7	135	4
127	127	19
82	82	14
112	114	8
95	101	5
58	58	8
94	94	21
3	3	15
86	87	11
35	35	11
26	27	8
49	49	11
95	96	4
76	76	21
62	63	6
72	73	4
117	117	10
65	65	14
4	124	1
63	63	6
29	29	9
55	56	6
79	80	5
35	100	2
12	16	6
61	84	2
114	115	3
78	86	3
73	73	18
43	43	8
17	17	2
126	126	17
43	45	10
50	51	2
50	50	5
133	133	17
79	79	32
97	97	7
105	111	10
131	131	16
103	103	18
69	69	7
36	37	2
109	109	10
97	98	5
98	98	28
103	104	5
19	19	6
52	52	11
125	127	1
95	95	24
93	112	2
7	7	12
107	108	3
112	112	19
88	88	8
72	72	18
92	111	5
48	48	4
109	111	3
43	50	1
34	50	3
4	4	4
119	119	10
77	79	7
84	84	15
56	61	7
107	107	11
27	27	12
66	78	3
120	122	8
70	70	11
108	108	8
124	125	2
24	24	6
106	107	7
9	10	3
33	34	10
106	106	23
127	128	13
64	69	6
84	107	4
11	12	2
62	62	12
65	121	3
1	3	3
8	8	13
15	37	6
20	24	1
12	133	4
114	114	12
44	44	12
27	28	3
105	112	2
37	37	2
86	86	11
120	120	12
16	20	6
53	53	8
25	25	12
60	64	2
108	118	5
13	15	6
128	129	7
56	59	6
102	118	4
1	1	7
135	135	3
86	88	3
16	17	2
36	36	6
121	123	3
88	90	7
100	113	2
54	56	4
134	134	9
71	72	13
16	21	4
52	53	7
50	53	5
100	100	13
82	83	4
89	89	7
53	83	2
133	134	3
54	55	8
106	109	2
87	87	11
114	116	4
17	19	3
4	8	4
16	23	3
78	79	5
38	38	3
92	113	4
7	10	4
64	64	16
34	34	7
8	9	5
126	127	9
38	39	1
3	36	3
4	9	6
0	0	2
111	111	4
34	45	4
131	132	5
59	59	5
33	100	1
60	61	1
67	92	4
70	76	1
82	91	2
93	93	9
83	85	11
98	106	7
123	123	6
69	70	8
23	24	6
9	9	4
12	120	3
18	21	2
31	31	5
34	61	2
67	70	2
37	44	1
82	123	4
54	109	2
127	132	3
13	16	2
15	25	2
6	6	6
105	106	6
76	78	2
63	65	4
61	62	4
52	77	2
102	112	1
57	58	2
78	120	1
84	99	4
49	50	1
66	77	2
60	60	7
82	87	1
67	107	6
10	10	7
38	59	1
58	59	6
65	124	3
1	2	1
100	101	1
13	13	9
76	79	3
58	60	2
61	92	1
22	22	6
74	75	3
59	91	2
25	27	2
7	25	1
63	64	5
11	11	5
55	60	1
59	89	3
93	94	1
0	2	3
56	63	2
29	30	5
123	124	4
130	132	5
37	38	2
91	110	3
26	43	1
89	123	2
36	45	5
106	108	2
14	17	2
20	20	6
108	109	2
20	23	4
46	46	1
55	86	4
33	99	1
67	68	6
96	100	4
11	26	2
86	90	5
3	4	7
82	85	6
47	76	4
45	64	3
30	31	3
8	10	2
84	85	6
21	22	4
62	125	2
90	116	1
43	132	4
94	95	4
104	105	4
85	85	5
91	100	2
79	85	2
109	110	11
62	92	2
5	5	6
113	115	1
13	14	4
112	113	3
15	17	2
4	35	1
22	24	1
99	110	1
62	64	5
45	46	1
114	121	1
63	96	1
52	76	1
84	122	3
67	98	1
121	122	2
115	116	2
110	117	1
81	134	1
130	131	4
5	11	4
114	118	3
2	3	1
86	117	2
18	19	1
107	118	2
83	86	7
54	87	1
85	87	2
66	82	1
126	130	2
126	129	6
18	20	5
21	25	1
80	84	1
19	20	6
57	61	4
20	22	3
16	18	4
101	102	4
81	88	2
17	18	1
16	26	2
61	91	3
47	47	4
71	133	4
86	100	2
42	42	1
7	9	1
123	135	3
86	135	1
4	28	2
16	16	4
34	49	1
57	59	1
90	114	1
132	133	3
83	84	1
12	13	1
66	107	2
3	29	2
17	22	1
14	15	3
43	44	2
110	111	2
101	101	4
19	37	2
34	60	3
79	82	3
89	132	5
55	57	5
0	5	2
103	128	1
96	106	2
96	96	2
33	35	2
107	111	2
12	14	1
106	110	1
17	21	2
67	67	4
126	134	1
56	58	1
60	66	1
111	118	2
15	16	2
91	92	1
99	100	3
23	23	3
49	52	3
33	51	2
16	19	1
32	50	2
22	25	1
23	25	3
104	112	1
66	97	1
62	65	1
62	66	2
70	71	2
94	112	1
102	128	2
82	84	1
131	134	2
125	126	1
111	129	1
86	129	3
55	67	2
35	37	4
128	130	1
23	26	1
68	105	1
113	114	1
106	115	1
75	76	2
65	94	1
31	32	3
85	126	1
85	90	1
2	2	3
58	107	1
47	51	3
0	1	2
19	22	1
59	60	2
50	61	1
89	104	1
91	116	2
68	77	1
64	101	1
78	80	2
101	104	1
96	97	2
50	101	1
64	68	1
114	124	1
100	102	2
0	12	2
4	11	1
6	7	1
69	72	1
129	132	1
66	117	1
4	22	1
10	130	1
108	128	1
117	118	1
54	88	1
81	122	1
92	95	1
102	113	1
126	128	1
57	60	1
107	109	1
73	74	2
11	131	1
91	91	1
106	116	1
103	111	1
103	112	1
92	94	1
84	86	1
126	131	1
3	125	1
34	52	1
131	133	1
54	65	1
72	80	1
107	115	1
91	114	1
32	33	1
30	32	1
56	65	1
5	7	1
