96	129	1
33	56	3
26	123	10
106	106	9
50	61	3
97	129	1
8	8	1
90	134	2
57	57	10
23	23	7
31	43	1
68	68	10
101	101	8
72	72	5
132	132	4
49	53	1
56	56	11
96	131	2
77	119	1
60	60	11
63	75	1
9	10	6
100	100	9
54	54	6
34	34	1
75	75	1
25	25	8
96	97	1
105	105	5
124	124	7
22	23	3
86	86	4
44	44	10
103	103	13
19	21	8
66	66	2
29	30	2
112	112	12
106	107	6
67	68	2
1	2	1
49	60	3
43	52	2
49	49	5
27	27	3
115	115	3
73	73	7
65	91	3
104	104	4
33	33	2
129	129	1
87	87	3
80	134	2
29	76	2
12	12	4
75	90	4
31	33	2
56	108	3
130	130	2
77	77	11
104	127	4
22	22	2
17	49	3
88	88	1
82	108	4
8	86	2
38	56	3
25	38	4
131	131	6
93	93	6
90	90	11
35	35	3
123	123	5
122	122	11
110	111	8
86	87	3
27	32	3
48	48	1
71	99	1
94	95	3
31	31	9
38	38	6
32	32	2
119	119	4
98	107	3
102	102	4
45	45	6
109	109	5
13	122	1
98	117	2
70	70	9
55	55	2
50	50	10
46	46	3
0	15	4
45	76	4
42	67	6
55	56	1
120	120	3
28	28	2
96	96	7
94	94	3
9	9	3
54	86	2
83	87	1
50	67	2
63	63	5
1	3	1
98	129	2
0	0	3
0	17	1
117	118	4
53	57	3
50	114	3
130	132	1
46	126	2
126	127	3
121	121	6
15	24	5
117	117	3
133	133	1
109	110	1
65	65	2
69	69	2
114	114	4
82	82	1
68	99	2
59	60	2
78	79	2
7	7	2
81	81	1
92	92	2
72	94	3
44	120	1
106	131	1
132	133	1
77	82	5
60	93	2
113	113	5
108	108	3
65	118	1
78	117	2
124	130	2
88	92	5
88	89	2
99	99	5
14	14	5
19	19	6
59	88	3
61	62	1
13	13	8
76	112	3
45	61	1
59	59	3
82	84	3
32	51	3
89	89	2
7	15	1
7	8	2
124	125	6
4	4	2
80	80	2
11	11	3
106	108	1
124	131	1
10	10	1
79	81	3
74	74	5
21	22	3
94	98	1
96	100	2
64	64	2
82	91	2
53	108	4
6	7	2
83	83	2
89	93	1
11	13	3
12	34	2
126	129	1
26	26	2
27	123	2
82	83	3
30	43	3
107	107	3
102	115	1
58	58	4
78	82	4
2	3	1
78	78	2
118	123	2
6	6	1
56	57	5
1	1	2
52	52	1
53	55	1
68	81	1
14	27	4
83	96	2
135	135	2
94	121	2
118	135	4
57	58	2
92	93	3
85	113	1
50	53	2
61	61	3
17	17	1
83	84	1
26	121	1
20	21	2
36	54	4
105	132	2
69	96	2
70	72	1
123	130	2
129	130	1
15	15	2
96	99	2
84	84	2
93	133	1
10	13	2
71	71	4
3	3	1
93	105	2
77	92	1
21	21	2
117	120	2
117	122	1
111	111	1
16	18	2
48	60	2
55	81	1
119	130	1
84	85	1
134	134	3
79	135	1
84	98	1
64	92	2
54	111	1
93	134	2
97	101	1
66	79	1
95	97	1
116	117	2
67	67	1
62	63	1
55	58	1
43	43	1
96	117	1
91	91	2
112	113	4
78	132	1
95	95	1
43	49	1
47	47	1
59	112	1
66	97	1
120	121	1
128	128	2
35	108	2
8	10	1
15	16	1
118	118	1
7	14	1
32	90	1
64	104	1
47	49	1
70	74	1
53	56	1
18	19	1
91	92	2
116	116	1
19	23	1
64	65	1
31	32	1
94	99	1
13	14	1
125	125	1
114	134	2
62	62	1
52	53	1
79	79	2
57	60	1
53	53	1
54	56	1
70	75	1
32	88	1
