175	175	7
133	134	8
99	99	2
170	170	9
100	100	6
45	45	8
110	139	3
192	192	12
150	178	2
164	165	3
139	139	13
37	38	5
82	82	18
77	129	2
58	59	8
167	167	6
121	121	7
178	179	7
1	1	5
137	146	2
139	140	7
88	88	9
135	146	2
25	25	4
68	70	1
42	42	5
163	180	8
155	156	1
189	189	5
156	156	7
51	83	1
105	105	11
60	76	1
9	14	1
184	184	6
161	187	4
119	119	8
43	43	12
30	30	1
168	173	3
31	31	4
71	125	2
33	35	2
24	25	5
11	44	2
191	191	7
185	185	6
22	173	1
135	135	2
111	111	10
4	39	2
8	10	1
1	3	3
112	152	2
28	38	6
158	158	16
144	145	2
96	96	5
167	174	5
33	33	9
146	146	13
187	187	9
188	188	8
49	49	10
128	128	6
105	112	3
195	195	6
85	85	3
144	144	4
9	9	4
115	115	4
154	158	2
54	54	3
32	32	3
124	124	6
1	35	1
87	90	2
167	168	8
97	98	4
169	169	3
141	141	3
173	181	3
8	8	8
42	43	6
184	185	1
162	162	4
177	177	7
8	45	1
118	119	3
188	189	7
34	39	4
62	62	14
39	40	4
161	161	4
34	55	2
137	137	5
152	153	7
163	164	8
154	162	2
157	157	5
46	187	2
160	174	4
110	110	7
107	107	5
159	159	4
121	129	5
109	110	4
183	184	2
104	132	3
117	135	2
101	101	5
145	147	5
168	168	8
21	23	2
112	128	3
3	3	2
81	81	8
102	103	7
149	150	1
45	46	2
41	42	3
22	23	7
22	22	4
177	178	2
50	52	3
24	26	1
7	7	8
123	123	10
188	192	2
184	186	3
14	42	1
165	165	3
118	118	2
94	95	3
10	14	2
0	0	6
168	175	2
152	179	4
145	145	10
103	116	3
136	136	4
5	34	3
190	190	5
149	149	10
2	27	2
117	118	3
154	154	9
180	191	3
141	142	4
161	194	4
40	40	5
11	34	5
58	58	7
62	67	1
169	171	2
9	33	1
73	135	2
120	138	2
173	175	3
118	155	3
162	167	3
167	188	6
3	9	2
104	110	5
47	47	12
22	27	4
55	55	5
71	71	5
147	147	5
117	130	6
3	33	2
81	85	2
73	76	2
12	12	4
192	194	3
6	7	4
168	169	6
94	105	1
67	73	4
16	16	5
42	148	3
10	15	1
168	192	3
172	174	1
130	133	4
36	36	7
87	123	2
87	87	3
181	189	7
151	152	4
28	44	3
192	193	2
44	44	3
190	191	3
134	146	1
20	20	5
123	125	1
138	157	2
107	108	1
7	8	4
18	40	1
5	26	2
15	16	4
140	143	2
35	35	3
11	11	3
28	28	1
27	27	4
112	112	5
122	122	3
25	161	2
72	72	1
2	18	5
76	88	2
18	18	5
183	183	5
34	35	3
53	54	3
181	188	1
196	196	11
157	158	2
3	4	3
162	163	3
106	106	8
129	129	8
97	148	4
34	34	4
81	82	1
62	66	2
2	2	4
108	108	6
176	176	2
160	160	2
132	155	2
55	56	2
176	178	6
181	192	1
109	140	2
50	50	5
21	21	1
51	51	3
166	181	4
86	86	3
175	178	3
155	157	2
47	50	2
120	120	6
54	55	1
170	171	5
104	106	2
148	149	2
102	102	11
144	147	4
174	174	1
171	172	1
54	86	1
10	23	8
122	135	1
135	137	4
1	2	5
3	8	3
148	148	2
10	28	2
46	46	3
116	118	1
127	127	3
174	175	2
5	5	2
50	51	2
172	173	9
65	76	1
161	173	3
178	191	1
52	52	5
185	186	8
19	63	3
0	2	2
130	131	4
182	183	1
187	191	1
53	57	1
165	167	1
197	197	1
179	182	1
113	117	4
171	176	3
14	43	1
65	139	1
182	187	1
0	26	2
178	190	1
17	18	1
144	164	3
134	134	5
83	84	3
9	13	2
43	153	3
39	39	3
14	14	4
137	156	3
131	131	2
64	108	2
27	41	2
2	35	1
172	172	2
137	138	2
142	142	3
17	17	3
33	34	1
120	129	2
193	193	1
61	65	1
76	90	3
65	66	1
46	53	1
119	127	2
116	116	2
177	190	2
135	147	1
194	194	3
9	32	1
40	41	1
33	36	3
150	155	3
130	134	4
181	181	1
141	184	1
5	27	1
43	159	1
63	73	2
109	109	2
25	42	2
103	103	2
19	20	2
63	108	1
12	13	1
105	106	1
138	179	1
183	193	2
179	180	1
8	35	1
173	173	1
9	10	3
15	32	1
67	67	1
132	133	3
131	134	2
109	143	1
6	26	2
101	137	3
186	187	4
104	104	3
97	106	2
15	44	1
176	177	5
16	22	1
9	27	1
114	114	2
27	29	1
151	151	2
100	101	1
10	11	1
101	138	1
15	15	1
53	53	1
12	31	1
10	10	1
1	7	2
111	113	1
67	68	1
166	166	2
83	87	1
42	44	1
150	157	1
120	123	2
129	137	1
19	19	2
4	4	1
21	22	1
5	8	1
180	181	1
34	86	1
126	128	2
5	173	2
146	152	1
3	7	1
103	137	1
114	136	1
182	182	1
114	116	1
155	155	2
57	57	1
26	27	1
45	49	1
76	76	1
143	143	2
7	26	1
3	19	1
67	84	1
96	103	1
36	168	1
132	175	2
24	173	1
81	83	2
143	190	1
17	29	1
152	152	2
28	53	1
132	132	1
83	83	1
152	154	1
69	75	1
