166	166	3
132	132	9
41	41	13
30	30	5
165	166	5
35	36	1
161	161	3
168	168	5
36	36	11
3	5	7
157	158	5
71	71	8
143	143	4
29	30	5
155	155	4
150	150	6
166	169	4
135	137	3
44	45	7
171	171	14
73	74	8
98	99	9
6	6	10
42	43	1
22	22	20
43	44	7
67	67	4
176	176	8
62	62	4
138	139	8
92	92	4
28	29	2
165	165	4
127	129	1
3	3	13
34	34	4
172	172	7
125	125	10
26	26	14
96	96	11
23	23	6
8	10	4
40	40	4
26	27	3
127	127	9
36	37	4
110	111	8
160	160	4
46	46	1
83	85	1
18	19	5
32	33	10
142	148	3
39	39	13
2	2	15
142	142	6
87	88	3
144	145	6
128	128	9
114	114	4
115	115	6
130	130	2
174	175	2
175	176	1
174	177	2
31	31	6
8	8	16
52	56	2
38	38	21
125	133	3
50	51	3
150	151	7
3	4	4
118	123	2
5	38	2
1	2	4
158	166	1
65	66	3
49	49	1
30	41	2
113	113	8
66	68	1
145	149	2
40	41	6
178	179	2
19	19	12
13	13	15
98	98	2
27	29	5
43	43	7
81	83	2
33	56	1
24	96	3
65	65	4
139	149	1
6	7	5
7	7	6
136	137	2
2	4	3
70	71	5
147	147	4
16	16	7
148	149	3
2	3	7
113	136	2
74	74	6
7	20	1
90	92	3
15	15	8
5	6	3
146	146	6
104	105	2
100	130	1
33	33	17
30	31	6
17	18	6
90	90	5
119	120	1
22	23	6
161	162	5
119	119	7
111	120	2
4	4	9
134	134	9
10	11	5
79	79	1
10	13	2
42	42	6
170	173	2
66	66	3
10	10	9
16	18	3
4	5	9
55	55	9
92	102	1
96	97	3
71	72	2
106	119	3
62	63	1
102	102	7
141	141	5
20	21	4
125	146	2
73	73	2
130	132	4
106	106	2
28	30	5
152	152	10
116	116	1
2	6	1
106	125	1
5	5	12
76	111	6
6	9	2
23	32	1
118	118	3
11	11	9
137	137	3
122	123	6
102	103	2
94	94	8
159	159	7
12	13	10
14	14	14
28	112	3
41	42	5
39	44	1
19	21	2
18	18	4
93	93	3
0	0	3
38	39	4
21	24	2
140	141	2
162	163	1
126	126	5
133	133	5
28	62	4
144	144	3
125	149	1
153	153	7
154	154	11
35	35	9
167	167	3
15	17	2
156	157	3
149	149	6
155	156	3
9	9	19
83	84	4
77	77	1
134	141	3
158	159	3
129	131	2
56	56	2
33	34	1
0	1	3
72	148	3
16	19	2
125	126	3
28	28	6
148	148	9
24	24	2
109	109	3
163	169	1
132	136	2
50	50	2
108	108	7
52	54	2
115	116	8
142	143	4
129	130	3
101	102	3
34	35	4
138	138	6
20	20	8
136	136	7
83	83	2
29	29	7
9	38	2
63	63	4
13	14	2
23	26	1
116	126	1
130	131	4
10	15	3
131	131	5
173	173	5
82	84	1
5	22	2
37	38	3
153	154	3
143	153	2
129	129	6
25	26	8
104	104	1
150	156	2
135	135	1
96	123	1
140	140	4
18	45	2
29	62	2
39	40	6
5	7	2
63	64	5
81	86	1
100	101	6
125	127	1
37	37	7
57	57	4
53	53	1
134	147	1
81	81	4
27	61	1
172	175	3
45	45	3
32	32	8
95	137	1
121	121	4
111	119	2
100	104	2
29	34	1
112	113	4
131	132	3
65	81	1
108	126	1
111	111	3
54	54	3
125	173	1
8	9	8
123	124	3
123	123	5
111	113	1
140	169	2
173	174	5
78	79	1
146	147	1
10	23	1
67	104	1
95	96	5
143	151	2
151	151	5
105	125	3
124	124	4
87	87	2
112	116	1
81	89	2
140	158	1
139	140	5
88	101	2
114	115	2
75	81	1
108	133	1
28	86	1
141	142	3
19	44	1
110	110	5
72	72	2
18	36	2
134	154	1
163	164	2
122	122	1
21	135	2
85	87	2
21	25	3
100	117	1
132	178	3
99	99	6
105	108	1
68	68	2
131	133	2
103	107	4
148	174	2
9	10	1
147	150	5
126	134	2
19	20	1
18	20	1
126	127	1
95	95	5
114	116	4
61	61	4
11	16	2
125	154	2
25	25	4
150	159	2
67	78	1
91	91	3
51	52	2
14	24	1
1	5	1
15	16	1
117	117	1
21	21	4
75	79	1
132	133	3
157	157	4
0	10	1
114	118	1
49	50	2
174	174	3
133	134	1
157	166	1
58	58	2
54	57	1
77	79	3
89	89	2
154	155	4
102	104	4
145	145	7
36	64	1
88	88	3
82	82	3
99	100	1
102	117	2
170	174	2
44	44	4
27	37	3
11	12	2
139	139	11
72	79	1
27	28	7
1	1	2
7	79	3
177	178	2
88	89	1
164	164	2
107	113	1
133	136	1
77	78	1
14	15	6
52	52	1
64	65	2
108	147	1
55	58	1
111	127	1
38	44	1
78	78	1
94	102	3
59	65	1
116	117	1
36	41	3
17	17	5
144	166	1
27	112	1
12	12	3
21	39	1
54	55	1
109	115	2
128	129	4
150	157	1
170	171	2
158	158	3
127	153	3
0	38	4
138	148	2
147	151	2
102	105	1
107	109	1
61	64	1
60	60	2
81	82	3
143	144	1
168	169	1
17	36	1
154	172	2
2	5	1
150	172	1
60	61	1
134	137	1
16	37	1
125	134	2
28	42	2
33	35	1
16	17	3
132	177	1
58	133	1
152	153	2
17	19	1
32	63	2
177	177	2
68	125	1
97	97	2
133	137	1
127	173	2
131	157	1
17	24	1
80	86	1
169	175	2
93	94	1
74	76	1
89	92	2
161	178	1
148	172	2
163	163	2
162	162	2
170	170	3
103	103	3
22	26	1
27	27	2
10	14	2
112	112	4
52	58	1
153	155	1
24	59	1
90	101	1
127	154	1
101	101	1
29	31	1
76	76	1
30	32	1
64	95	1
169	169	1
71	73	1
118	149	1
100	100	1
1	4	1
19	32	1
94	95	2
51	51	2
52	59	1
14	43	1
153	166	1
96	108	1
60	81	1
20	41	2
12	14	1
132	134	1
56	79	1
105	105	2
24	25	1
108	109	1
39	41	2
23	29	1
101	116	2
70	133	1
76	77	1
84	86	1
127	128	1
121	122	2
8	14	1
68	72	1
123	126	3
86	87	2
95	108	1
137	158	1
3	16	1
106	108	1
85	85	1
75	90	2
52	53	1
86	86	1
52	57	1
0	9	2
5	9	1
7	9	1
101	107	1
5	31	2
103	104	1
129	136	1
149	172	1
160	163	1
80	81	1
86	95	1
25	62	1
22	98	1
28	43	1
56	59	2
10	12	1
72	73	1
3	7	1
132	172	1
87	96	1
129	164	1
