135	135	6
144	144	9
42	42	4
20	78	4
10	10	13
133	133	2
63	67	3
2	2	3
170	186	2
48	48	3
54	56	2
196	197	3
18	18	7
112	112	1
54	54	4
36	36	6
152	154	3
169	169	6
63	63	3
9	9	3
15	15	10
185	186	5
14	55	4
39	39	7
160	170	3
101	101	10
147	147	6
25	25	5
50	53	1
105	106	1
24	24	3
70	70	3
176	177	8
152	152	4
11	11	8
52	52	4
186	187	4
170	178	1
18	19	2
119	119	6
179	180	2
26	26	4
117	118	4
28	28	3
118	119	2
132	133	5
14	78	1
191	191	7
99	99	5
55	56	3
130	130	3
44	44	7
37	37	5
181	181	5
127	127	3
38	55	2
131	131	8
47	48	3
67	68	3
159	189	5
152	153	1
194	195	3
129	129	1
26	29	1
16	16	11
187	187	1
33	33	4
57	57	9
79	80	4
138	139	2
116	116	4
21	21	3
154	154	3
128	128	9
151	151	4
53	53	1
143	143	3
153	153	2
178	178	3
110	110	4
12	13	3
40	40	3
34	35	6
53	54	1
64	65	2
58	85	1
159	159	7
176	176	8
80	86	3
171	171	12
106	106	1
159	192	2
139	140	5
129	130	3
103	104	2
183	183	6
173	173	4
20	21	2
123	124	4
46	46	3
149	150	4
160	169	7
177	178	4
156	157	3
130	155	1
34	34	2
80	80	1
185	185	5
130	131	2
146	146	4
7	7	1
122	122	1
36	37	3
43	66	5
142	144	1
161	174	4
156	156	7
166	166	6
50	51	1
121	121	2
43	43	5
111	111	3
40	41	5
43	70	6
150	152	1
170	170	4
188	189	1
7	8	7
94	94	1
81	86	2
168	168	3
83	83	4
7	26	4
6	6	3
81	81	6
192	193	3
194	194	10
42	71	2
109	111	2
167	167	3
38	40	7
31	32	5
172	173	1
195	196	7
55	55	8
162	162	3
29	37	1
137	137	7
114	114	2
131	140	3
133	134	1
5	5	5
151	152	2
83	85	2
110	112	2
193	195	1
178	179	1
155	156	4
159	160	2
197	197	2
134	138	3
196	196	3
103	107	1
193	193	1
63	93	2
189	190	8
20	20	3
29	29	3
70	71	2
6	182	4
160	182	1
158	190	4
30	31	2
51	52	1
47	49	1
55	79	1
26	28	3
69	69	3
29	30	1
171	186	4
108	109	3
139	139	6
140	140	1
45	46	1
73	74	1
118	118	2
189	189	4
150	150	4
8	8	1
27	37	1
152	155	3
6	7	2
190	190	1
78	78	4
111	167	1
102	102	4
120	120	2
122	127	3
31	31	2
177	177	1
0	36	2
88	88	3
19	19	2
47	114	3
111	112	2
60	60	2
30	30	4
190	191	2
163	164	1
29	32	2
172	194	1
191	192	2
157	158	2
99	102	1
66	88	1
193	194	2
141	141	3
192	192	1
86	86	1
71	71	1
43	104	4
32	32	1
172	172	5
158	158	8
70	75	3
3	4	2
27	27	1
145	146	3
3	3	4
161	163	1
161	193	1
14	107	1
100	100	1
175	175	3
10	12	2
148	148	1
74	74	2
4	10	2
4	4	2
5	7	1
175	177	3
160	160	10
16	19	2
136	136	3
133	151	1
77	77	2
182	183	1
135	149	1
30	35	2
11	78	1
35	35	2
52	95	4
115	115	2
40	42	3
63	76	1
117	117	6
160	192	1
182	182	2
101	102	1
179	179	1
64	76	1
54	55	3
164	165	3
79	79	1
23	33	2
32	120	2
181	182	1
161	162	4
123	123	4
69	112	1
174	175	2
19	63	2
13	13	2
124	124	2
175	176	1
148	158	1
174	179	2
184	184	1
130	135	1
50	50	1
49	51	1
20	22	2
104	104	3
133	136	2
1	1	1
115	116	1
126	127	1
57	124	1
17	19	1
52	94	1
168	190	1
95	95	1
45	45	1
170	171	2
115	131	1
183	184	1
180	180	3
172	179	1
29	31	1
2	35	1
119	129	1
55	99	1
41	45	1
66	72	2
186	186	1
115	142	1
126	128	1
113	113	1
132	137	1
23	23	1
137	138	1
56	56	1
132	132	1
80	85	1
26	27	1
133	155	1
41	41	1
9	10	1
143	145	1
158	159	1
183	189	1
69	82	1
9	13	1
145	145	1
116	118	1
165	165	1
25	34	1
161	164	1
161	161	1
