16	23	3
82	82	6
46	46	3
80	80	10
1	8	3
101	101	9
119	119	9
57	57	3
19	35	4
75	75	8
124	125	3
93	94	3
13	13	6
134	134	6
106	108	1
78	79	2
97	98	3
26	51	2
71	72	3
26	26	6
77	77	10
26	85	2
56	92	6
49	91	2
87	87	4
11	11	18
10	10	3
79	80	7
9	9	6
15	15	2
64	64	9
48	49	1
100	100	19
90	90	5
27	27	10
86	87	3
9	12	8
66	67	2
106	107	4
38	39	5
129	130	3
74	74	6
105	105	9
33	33	2
22	37	7
56	56	6
76	92	6
9	10	2
59	76	4
35	35	5
112	132	9
21	21	12
66	66	5
31	32	4
29	29	8
34	34	4
69	70	4
63	64	2
39	43	3
15	23	3
113	113	5
63	63	3
59	60	9
18	18	13
69	122	5
44	45	2
45	89	4
70	75	3
8	12	5
44	44	4
86	86	7
92	94	4
12	61	6
5	5	4
4	5	5
110	113	3
71	71	2
4	12	1
58	78	3
110	115	2
60	60	4
17	85	2
107	107	4
104	105	4
20	80	1
41	41	9
6	94	1
108	108	1
97	97	3
126	127	1
76	76	2
85	85	2
105	106	2
127	127	3
72	72	10
12	12	6
7	10	2
37	83	3
103	124	7
15	16	7
56	83	2
59	81	2
61	61	3
14	14	10
69	69	6
121	122	2
4	7	3
96	96	4
95	95	5
60	79	2
93	93	3
102	102	4
24	24	3
11	12	4
70	70	7
37	46	2
7	25	4
98	98	4
32	32	1
36	36	6
112	112	5
20	31	4
65	66	1
65	65	6
26	93	3
81	92	4
10	47	2
116	121	3
11	60	3
83	84	6
20	20	2
41	90	1
8	8	11
123	123	5
1	116	1
3	3	2
41	50	1
25	25	2
55	55	5
35	37	1
109	109	7
75	124	3
33	34	1
62	75	2
78	78	5
89	97	2
86	98	2
59	59	1
111	113	1
120	120	1
83	83	9
99	99	7
21	84	4
107	108	3
9	47	2
114	115	6
117	117	2
47	47	5
64	67	2
87	89	1
17	17	4
45	45	6
73	73	2
70	71	2
6	12	2
20	22	1
64	66	1
23	26	1
2	2	5
75	76	1
43	43	2
128	128	4
41	91	2
88	94	3
103	103	10
22	74	2
20	74	1
10	11	2
16	74	1
23	25	2
114	116	5
4	8	2
39	39	4
62	62	3
117	121	2
40	81	1
3	93	4
59	79	1
109	110	1
32	103	1
114	114	3
26	27	4
12	76	2
96	100	1
31	81	1
106	109	5
6	6	2
92	93	1
63	75	2
111	111	4
19	19	1
116	116	2
55	56	1
10	18	3
0	0	1
118	118	2
4	4	1
5	7	3
82	83	3
133	133	1
29	30	2
16	16	1
106	106	2
7	7	4
58	58	1
132	132	2
32	33	2
63	65	4
57	81	1
46	99	1
120	132	3
121	121	1
35	36	1
87	88	1
89	93	5
37	38	1
122	122	1
12	13	4
68	68	1
25	26	1
94	97	1
80	81	1
130	130	1
76	77	1
4	6	1
95	96	1
11	47	2
120	123	1
40	41	1
78	83	1
116	129	2
67	67	1
44	63	3
2	47	1
112	121	1
32	104	1
30	115	1
111	132	1
23	109	2
26	84	1
44	128	1
109	111	1
104	104	1
56	88	1
40	40	1
79	79	1
68	69	1
