76	77	12
70	90	3
79	79	13
93	93	14
42	42	27
84	84	14
71	71	23
80	80	20
38	56	3
61	62	10
60	63	8
39	39	14
46	47	12
69	69	18
48	48	16
65	66	10
97	98	12
72	73	5
31	31	6
68	68	32
49	59	3
43	43	22
100	100	13
51	53	3
73	73	11
102	102	2
76	76	23
49	49	21
66	66	19
64	64	27
26	27	4
57	58	12
29	29	6
87	88	8
100	101	5
92	92	22
44	45	8
63	63	26
45	45	13
94	96	1
66	75	1
91	91	31
81	81	13
73	74	19
65	65	18
50	50	29
59	65	2
30	30	6
85	101	2
20	20	3
53	53	13
74	74	23
90	91	15
86	86	19
64	77	5
88	88	14
41	91	4
51	51	18
40	40	14
81	82	4
83	83	11
36	36	10
52	55	2
41	41	12
91	92	10
56	56	21
85	85	29
49	50	25
62	62	18
66	67	4
81	84	3
53	54	6
22	25	1
52	52	26
77	77	21
41	42	10
43	44	6
55	55	16
54	54	5
33	67	2
96	97	1
75	75	25
48	49	7
79	81	2
68	70	6
70	70	27
26	26	5
67	67	25
99	100	12
55	78	1
101	101	8
58	58	19
59	59	20
99	99	16
89	89	18
49	51	3
29	30	2
48	50	4
72	72	6
59	60	12
97	97	14
33	33	23
65	68	2
33	34	7
94	94	10
86	100	4
78	78	28
60	60	20
73	77	3
71	72	12
93	94	3
90	90	9
46	46	22
80	81	9
98	98	16
84	99	3
101	102	5
35	35	16
56	60	4
44	44	16
95	95	11
54	55	6
92	93	8
56	76	2
33	51	3
47	48	11
35	36	3
50	51	13
77	78	5
55	56	2
64	90	1
38	38	4
30	98	1
34	34	20
96	98	6
42	67	4
70	91	2
56	57	6
61	61	6
78	79	7
20	22	8
90	92	2
29	98	1
94	100	3
25	26	1
68	69	2
64	65	11
34	100	4
57	57	8
57	64	2
50	58	1
47	47	7
47	54	2
28	89	1
39	40	7
62	63	4
50	74	1
96	96	8
63	90	3
74	78	1
34	51	3
22	23	3
59	64	2
38	57	2
87	87	5
35	48	3
51	57	1
40	41	5
36	39	4
37	38	2
69	71	3
53	55	6
31	32	4
79	82	3
40	85	1
66	91	2
54	61	2
82	93	1
27	27	8
86	87	7
64	66	4
27	86	4
79	80	6
26	87	3
74	79	2
67	75	4
39	87	2
98	99	7
58	63	4
39	47	3
40	99	2
95	97	7
75	76	1
49	52	4
67	68	8
77	83	1
62	82	7
83	98	2
83	84	5
22	27	2
40	88	1
37	37	2
61	63	2
32	32	2
45	47	3
56	58	5
69	70	4
95	98	1
58	59	4
34	60	4
24	27	2
37	62	2
63	89	2
66	68	1
95	96	3
31	33	2
56	64	1
46	54	2
94	98	1
23	25	2
70	93	1
89	90	3
55	81	1
42	43	2
46	48	2
27	84	3
38	40	3
91	93	2
70	71	2
36	37	5
58	62	3
85	86	1
82	83	1
20	46	2
74	85	2
50	67	3
40	63	3
42	47	3
42	101	1
43	79	2
56	62	1
68	76	2
65	70	1
24	24	2
26	48	1
41	101	1
88	89	3
34	35	1
52	57	4
60	61	3
99	101	1
60	94	1
55	80	2
31	54	2
97	99	1
52	54	2
35	90	2
71	76	2
55	59	1
77	91	2
23	88	1
49	57	1
42	90	1
56	61	1
73	76	2
63	91	2
28	86	1
55	58	1
45	82	1
30	31	1
75	78	4
29	93	1
35	39	3
45	48	1
93	97	1
40	58	2
28	28	2
48	52	2
87	89	2
51	52	3
64	67	1
61	94	1
74	75	2
52	53	2
50	52	1
58	64	1
56	59	1
84	98	1
47	50	1
78	91	2
68	77	1
71	85	1
