170	171	10
132	134	1
123	124	4
129	129	10
124	124	20
178	178	5
127	127	13
189	189	25
162	163	5
49	49	17
0	1	4
128	128	21
147	169	3
151	152	8
5	5	29
171	171	20
100	100	20
113	113	24
81	81	9
97	153	1
194	194	20
107	107	14
177	178	2
100	101	4
0	3	2
185	188	1
3	3	16
180	182	4
72	72	13
137	137	26
161	161	26
53	53	24
117	117	2
38	38	20
119	119	21
83	84	1
84	84	2
14	14	15
158	158	20
116	120	3
36	36	17
148	149	14
124	125	9
160	160	27
100	146	8
56	56	12
182	183	13
105	105	16
16	16	24
149	149	20
157	158	8
146	148	10
125	127	3
184	184	19
41	41	10
148	148	25
35	35	11
150	151	12
173	173	12
64	64	14
171	172	6
48	48	21
122	123	10
9	9	19
154	154	7
99	99	12
163	163	13
44	45	4
112	112	15
1	28	2
178	179	11
78	79	10
12	12	32
156	156	41
28	29	9
45	46	8
33	33	17
189	192	3
131	131	17
125	125	11
55	56	11
118	119	5
164	172	4
146	155	3
8	8	9
125	126	7
37	38	5
126	127	12
137	139	8
172	172	18
54	54	17
134	140	9
152	152	28
21	22	4
32	32	18
176	177	9
133	133	10
190	190	23
93	93	8
37	37	19
8	9	8
52	52	9
26	26	25
18	54	2
100	156	2
1	3	10
34	34	19
121	121	12
44	44	7
4	4	8
15	15	12
192	192	17
23	23	11
142	142	18
167	168	7
22	25	3
195	195	8
140	140	11
193	193	20
78	78	17
26	27	4
191	192	9
179	184	1
55	55	24
149	155	3
174	191	6
31	31	18
175	193	2
170	170	20
122	122	17
190	191	11
25	25	14
25	27	4
70	75	1
29	45	1
126	126	15
197	197	12
155	156	9
187	188	21
47	47	23
183	183	26
63	63	6
177	177	33
0	0	8
149	150	3
11	11	18
110	113	1
172	173	1
171	174	4
43	43	20
134	135	6
131	132	3
34	35	10
38	39	12
39	39	18
143	145	3
66	68	3
147	147	9
108	108	9
13	13	12
104	105	5
33	36	3
169	170	5
39	40	7
196	196	20
156	157	5
40	41	2
48	49	13
148	172	4
15	18	2
161	162	2
4	5	3
45	45	7
72	73	4
114	114	22
94	96	2
176	176	18
101	101	18
79	79	5
179	179	12
103	104	2
181	181	13
36	37	3
30	30	17
20	33	2
158	169	6
170	172	10
59	61	7
59	59	13
136	136	21
29	30	2
163	173	4
105	106	16
123	123	27
146	156	2
111	111	15
115	115	9
17	56	3
46	47	4
145	145	6
169	177	3
102	102	20
71	71	9
101	103	6
4	9	3
50	51	15
117	118	6
101	105	1
155	155	17
186	187	13
96	96	8
51	51	24
188	188	11
162	164	5
138	139	6
159	159	21
135	136	15
74	74	9
67	68	7
20	20	6
191	191	19
172	190	1
28	28	11
85	86	3
26	37	2
46	51	1
133	153	1
187	189	3
143	143	10
192	194	3
29	37	3
157	157	17
88	88	12
152	166	4
104	104	4
70	72	1
153	153	15
57	62	2
12	37	1
99	138	4
182	182	19
29	29	9
165	165	28
116	116	15
106	106	25
19	20	6
50	126	2
97	97	5
68	68	10
24	24	12
111	112	5
13	53	2
87	87	16
164	173	3
139	139	11
152	155	4
62	74	5
7	7	8
160	172	1
130	130	9
58	58	10
8	21	3
74	75	2
31	32	3
193	194	13
10	10	18
152	153	6
169	169	15
16	17	11
57	57	10
150	150	21
70	71	18
195	196	2
165	167	4
142	147	2
67	69	3
124	128	4
79	81	1
159	188	2
35	36	2
5	6	7
88	107	2
50	50	15
135	135	22
168	168	3
186	186	16
69	70	1
17	17	10
167	167	9
35	37	3
5	7	1
152	167	4
114	120	1
185	185	13
110	110	14
5	9	1
133	142	1
166	166	7
40	40	8
33	54	4
145	146	3
179	192	1
187	187	13
9	188	2
116	117	9
15	53	1
139	141	5
176	181	1
106	129	1
146	146	8
102	103	6
109	110	2
21	21	12
138	144	4
151	151	21
141	141	4
3	5	4
118	118	14
11	21	3
168	169	11
27	27	4
188	190	4
16	149	2
166	178	3
94	94	8
71	85	4
1	1	7
15	16	4
105	138	3
182	184	1
163	165	4
99	100	4
73	118	5
75	75	2
34	40	1
175	191	2
85	85	5
150	152	2
12	13	5
98	159	1
184	185	5
11	12	5
63	73	3
59	62	3
61	61	4
143	144	12
138	138	6
1	10	1
95	102	1
120	121	5
136	137	7
37	39	4
142	146	3
46	46	18
70	84	2
13	14	7
26	29	1
10	11	7
2	3	4
132	133	3
114	115	5
155	168	9
77	78	3
54	55	12
130	131	7
164	166	2
121	137	3
120	123	4
106	125	1
159	164	3
133	134	4
154	155	12
134	134	12
132	135	2
10	23	1
135	148	1
179	180	6
159	187	4
106	107	6
126	128	3
38	52	1
169	171	1
35	39	4
193	195	1
73	119	3
102	111	1
158	159	4
2	2	2
26	28	2
69	69	15
89	89	6
153	154	10
103	103	10
66	66	7
51	156	2
73	74	4
81	85	3
62	63	1
164	164	5
112	113	6
147	149	2
140	145	3
132	132	10
181	182	2
121	122	4
50	128	1
128	129	9
139	140	10
94	95	1
175	175	7
162	162	3
36	54	3
109	112	2
3	4	6
0	111	2
144	145	5
28	30	6
42	140	3
107	119	2
41	42	4
196	197	2
43	44	10
172	175	3
82	82	3
65	68	1
130	143	2
189	190	11
26	34	5
52	53	2
11	32	1
30	45	2
6	6	6
192	193	6
120	124	2
20	21	2
30	31	5
115	116	5
78	113	2
146	147	6
1	2	6
188	191	5
174	179	2
101	102	4
86	86	8
180	180	6
136	142	1
59	60	2
122	130	5
160	161	7
138	140	1
109	109	4
127	138	1
95	95	3
61	74	1
109	111	1
9	10	3
119	133	2
85	87	1
127	128	3
115	120	1
98	98	10
188	196	2
56	57	8
15	17	7
16	157	9
7	27	1
135	151	3
75	76	4
14	192	4
49	50	5
73	73	6
158	163	1
62	62	6
8	27	3
82	85	4
43	188	1
145	149	1
73	120	3
155	157	2
176	184	1
8	30	1
175	176	2
8	43	3
71	76	4
76	120	2
37	42	2
133	135	3
190	193	1
133	143	5
52	54	2
81	113	2
81	82	2
96	102	1
20	22	2
28	41	2
129	130	5
81	86	1
103	111	1
148	171	4
42	192	3
18	43	2
60	63	1
119	136	3
170	193	1
190	192	7
11	13	2
172	182	3
175	177	2
188	189	5
162	173	3
80	80	4
17	22	2
72	119	1
11	31	4
72	120	3
162	170	2
151	166	3
68	69	6
142	143	8
98	155	3
27	28	3
96	152	1
71	74	1
121	123	7
181	185	1
42	42	11
185	190	4
72	115	1
58	62	2
33	34	3
53	56	2
27	42	4
121	124	2
72	81	2
108	110	2
69	99	5
77	77	2
149	186	1
14	15	3
113	114	4
28	37	1
103	110	1
184	186	3
149	151	3
19	19	5
6	7	1
170	175	2
4	30	3
166	167	9
119	130	2
9	13	1
107	116	3
145	156	2
172	174	1
122	129	2
95	97	1
47	48	2
86	88	1
137	138	1
60	60	2
23	30	3
119	121	1
17	54	1
96	97	2
165	166	6
137	148	1
37	44	1
18	19	1
140	144	2
130	145	1
162	182	1
163	164	4
152	154	1
16	169	2
1	11	1
185	186	5
115	117	2
134	141	1
108	109	1
151	164	2
174	175	2
2	5	4
180	191	2
173	175	6
144	144	2
69	149	1
184	188	1
16	18	2
110	111	4
10	13	2
58	115	1
44	189	1
4	16	2
8	22	3
108	119	1
94	98	2
22	22	1
130	150	1
32	58	3
120	120	4
17	18	1
42	44	2
195	197	2
90	90	2
21	180	2
135	142	2
2	4	1
186	189	2
24	25	1
22	23	1
83	83	7
71	72	2
43	185	2
13	43	2
22	26	1
165	172	2
3	28	3
142	149	3
74	76	1
13	50	1
159	160	1
55	140	2
16	54	2
150	154	3
148	150	5
24	26	1
98	99	2
146	158	2
81	89	1
84	114	1
42	43	2
10	129	2
163	169	1
29	32	1
62	154	1
47	56	3
119	122	3
53	54	1
165	182	1
13	44	1
38	42	4
152	161	1
114	121	1
71	120	1
40	42	1
21	34	1
70	70	6
133	140	1
58	59	2
139	144	1
97	98	1
104	137	1
43	187	2
114	159	1
107	108	1
57	58	1
45	52	1
149	170	2
113	118	1
65	65	1
152	169	1
60	62	1
134	136	2
29	31	1
18	18	1
189	193	1
32	34	1
88	89	1
5	16	1
8	188	1
147	148	3
132	140	1
136	152	2
180	192	1
151	173	1
122	141	2
186	188	1
123	126	1
105	128	2
32	57	1
36	39	1
53	55	2
47	49	2
146	157	1
12	45	3
71	124	1
70	79	3
133	141	1
63	74	1
119	120	2
51	52	1
3	16	1
23	24	1
65	66	1
106	128	1
174	174	1
140	148	1
135	137	2
25	26	1
180	181	2
122	124	1
177	187	1
146	172	1
34	36	3
81	87	1
17	27	1
164	174	1
98	100	1
183	184	1
99	101	1
19	21	1
140	146	1
194	196	1
105	122	1
194	195	1
93	95	1
174	189	1
147	157	1
79	116	2
130	142	1
146	170	1
37	43	1
118	129	1
44	187	1
6	19	1
4	31	1
54	145	1
4	8	1
13	15	1
108	116	1
187	190	1
149	185	1
28	33	1
191	195	1
27	30	1
158	160	1
