185	188	5
158	158	1
72	72	3
33	39	2
81	81	8
89	91	3
1	1	7
164	165	9
101	101	5
171	171	12
150	151	5
102	102	9
39	39	9
23	23	4
187	187	8
135	135	11
168	168	4
125	125	4
109	111	3
153	154	2
159	159	3
156	156	4
136	136	5
39	40	1
1	2	5
33	34	1
17	20	1
28	36	6
79	79	4
139	140	7
6	8	2
149	149	7
177	178	4
134	134	4
127	127	13
147	147	5
184	185	4
62	62	2
91	91	2
90	90	6
134	135	2
113	113	8
138	138	6
47	47	3
64	64	2
73	79	1
125	126	3
109	118	2
67	68	3
109	110	6
182	183	3
119	119	2
91	92	5
55	142	1
129	129	9
177	184	1
166	167	6
80	81	3
12	12	7
169	170	3
22	22	2
128	129	3
178	181	1
110	120	5
90	91	2
16	17	3
163	164	4
106	154	4
92	92	4
37	39	2
24	24	9
102	104	2
27	28	12
165	166	4
142	143	4
6	54	2
62	66	3
123	123	6
92	94	2
42	42	3
175	176	8
140	141	7
95	95	6
73	73	4
83	84	2
169	169	5
85	85	5
110	110	7
114	117	5
182	187	2
70	70	5
165	165	1
170	173	1
104	104	2
179	179	3
74	74	2
111	111	10
140	140	5
48	63	1
154	158	2
115	115	5
154	154	7
6	17	1
155	155	4
56	56	6
65	65	1
96	96	4
65	70	6
28	28	2
41	41	3
87	87	2
106	106	4
46	46	7
17	43	3
109	109	2
112	112	3
63	63	3
107	108	3
124	124	1
13	13	4
6	6	3
103	131	2
184	184	2
47	48	5
123	125	1
53	54	2
58	58	3
124	125	11
117	165	5
38	42	2
6	7	7
7	48	2
183	184	2
152	152	5
112	118	1
150	150	2
97	98	1
4	5	1
130	131	1
64	93	1
77	78	10
36	37	1
2	2	6
73	75	5
136	138	1
79	83	1
139	139	1
172	173	4
105	107	4
38	38	6
105	111	3
19	20	2
142	142	1
78	79	1
68	68	3
61	62	4
38	39	5
88	88	2
122	125	5
170	170	5
43	43	4
148	148	2
78	78	2
111	112	1
75	77	1
33	35	2
102	113	3
29	29	4
186	186	1
155	156	3
128	128	2
123	130	1
84	84	4
75	75	1
48	48	1
66	66	3
71	71	3
5	5	5
107	110	3
5	8	2
122	122	1
134	137	1
34	41	1
83	83	3
5	55	4
189	189	2
54	54	3
4	4	2
175	175	2
57	57	4
123	124	1
67	67	1
25	27	1
152	170	3
174	175	3
10	45	2
8	8	1
173	184	2
59	60	2
95	99	1
29	30	2
5	56	2
113	115	2
160	160	3
31	31	1
128	133	4
146	146	1
89	90	3
76	77	1
97	99	3
73	74	1
27	27	2
128	175	1
71	77	2
163	163	1
40	41	2
188	188	2
60	63	6
114	115	3
38	48	2
182	182	1
124	126	3
121	121	1
32	32	1
100	100	5
108	108	1
5	7	1
11	14	1
30	36	2
2	8	1
22	32	1
55	55	3
35	36	1
172	172	3
8	9	2
105	105	4
44	44	2
132	135	1
13	14	4
97	97	1
114	114	2
120	120	1
169	173	1
103	103	1
174	174	1
20	20	2
176	176	2
138	139	2
185	185	2
166	166	1
86	86	2
14	14	1
63	94	1
100	101	2
56	142	2
88	104	3
179	183	2
67	79	1
48	57	2
108	109	1
46	47	1
117	127	1
151	151	2
14	15	1
103	104	1
71	73	1
64	72	1
187	188	1
173	173	1
123	127	1
143	143	1
77	79	1
189	190	1
7	7	1
170	171	1
75	76	1
94	94	1
180	180	1
162	163	1
60	60	1
63	66	1
57	58	1
43	44	1
88	89	1
80	80	1
17	29	1
183	183	1
169	174	1
107	107	1
119	120	1
168	170	1
165	168	1
