131	131	11
101	101	7
148	149	4
78	80	1
116	116	22
81	81	9
45	48	2
88	88	25
115	115	10
156	156	13
158	158	4
135	135	7
140	140	12
41	41	18
33	33	23
92	92	21
104	105	5
110	110	12
94	102	4
135	147	4
123	133	6
96	97	4
52	52	24
114	123	3
2	2	5
21	54	2
77	78	2
11	17	1
112	112	15
68	68	10
51	52	2
84	85	4
95	95	13
79	89	4
71	98	1
34	38	4
78	156	4
69	154	2
142	142	22
86	86	14
124	128	3
70	70	7
38	38	9
9	41	3
66	104	1
157	157	13
31	31	10
152	152	7
67	112	2
140	152	1
15	18	2
5	49	1
26	30	1
135	136	5
15	15	14
108	108	12
63	64	7
89	89	11
103	103	7
11	20	4
130	130	9
134	135	4
109	109	6
94	94	13
9	57	1
128	128	6
120	121	8
139	139	14
118	118	14
27	30	1
13	13	7
78	78	13
38	39	1
49	56	1
11	42	1
96	105	1
29	33	2
48	48	7
108	112	6
40	40	12
95	97	2
119	119	5
47	47	8
97	103	3
150	150	5
95	96	7
103	107	4
136	136	14
98	98	19
132	132	4
13	18	2
34	34	7
69	71	2
28	37	2
106	106	14
52	70	3
23	23	15
16	17	4
12	12	7
27	27	13
24	24	12
83	84	4
129	129	12
7	27	3
124	124	10
21	21	11
6	29	3
39	39	13
7	7	6
143	143	8
27	29	5
57	57	7
131	147	1
7	48	1
125	125	7
113	113	18
35	35	11
48	56	2
53	53	19
115	116	11
97	126	1
66	67	1
25	25	7
97	99	2
104	117	3
111	144	2
147	147	7
78	145	1
42	42	9
18	18	19
25	31	7
50	50	3
113	114	2
155	156	6
146	147	3
79	82	1
10	10	5
61	112	1
63	63	5
67	70	2
153	153	7
85	110	3
76	76	4
77	79	3
96	96	9
141	157	1
14	49	3
126	127	5
125	126	20
127	139	3
55	55	12
150	158	2
80	80	9
1	1	6
145	145	9
99	136	1
99	100	2
146	146	11
134	137	2
55	65	2
14	31	1
154	156	7
123	126	2
11	13	2
29	29	7
88	106	1
91	94	2
80	156	4
105	105	19
26	29	2
128	138	1
72	72	4
0	0	10
129	130	9
61	61	2
70	71	8
3	3	6
149	157	1
4	4	8
137	138	9
94	95	5
82	83	4
107	108	1
83	83	13
153	156	5
132	138	5
79	79	9
54	54	12
102	121	2
67	67	11
37	37	8
28	38	6
46	46	27
10	13	1
27	28	3
104	104	9
19	19	6
110	112	3
141	141	7
120	120	14
79	142	2
111	149	2
113	153	2
126	126	29
13	16	7
154	154	1
25	51	1
137	137	14
148	148	6
117	117	12
124	151	4
49	49	5
119	153	5
26	27	7
14	15	5
93	93	13
4	28	1
116	117	11
10	22	4
27	43	2
120	156	1
108	109	14
144	144	3
98	99	4
109	110	5
6	6	5
100	100	10
67	150	2
22	44	4
17	17	9
159	159	2
42	56	2
68	69	2
109	141	4
123	123	16
50	51	3
15	50	2
126	157	1
79	80	3
114	116	2
46	127	1
20	83	7
78	91	1
117	120	1
132	140	8
85	86	1
133	134	4
45	45	9
14	14	11
71	71	16
113	140	2
30	33	2
35	36	1
105	107	4
151	151	6
112	158	2
79	96	2
125	127	2
9	14	2
30	30	8
90	91	2
158	159	6
15	16	1
97	97	8
67	68	9
4	5	6
133	144	2
103	136	3
124	131	4
111	156	2
142	149	4
11	11	11
64	64	3
20	141	2
36	55	3
96	125	3
8	8	14
120	155	1
25	50	5
113	121	1
9	9	3
107	107	3
146	148	1
20	153	4
42	43	7
90	90	11
87	89	3
44	44	13
85	85	14
22	48	8
36	37	2
53	54	7
155	155	10
8	10	14
106	136	2
43	43	10
96	104	4
26	26	11
111	123	1
152	153	5
65	65	3
112	113	4
29	45	3
54	55	6
8	42	1
7	33	3
17	18	4
149	149	4
75	76	2
82	82	6
64	101	1
28	33	1
24	25	1
15	54	2
134	134	15
36	36	9
79	113	2
127	128	2
40	41	4
85	150	8
67	85	2
69	69	8
5	33	1
106	107	4
125	131	1
13	14	3
88	89	3
5	5	5
72	111	4
46	47	7
107	142	3
87	88	2
111	111	8
39	43	1
130	131	4
6	28	4
94	101	4
80	98	2
114	114	9
23	45	2
133	137	4
22	29	3
14	48	1
78	141	4
32	32	3
93	94	7
39	41	4
123	124	4
37	50	1
75	75	8
99	99	4
87	126	1
135	137	4
23	65	1
92	95	2
68	108	4
91	91	6
90	97	1
121	156	4
41	42	6
41	43	3
96	103	1
84	86	1
16	16	5
56	65	2
100	135	1
123	135	2
151	152	3
83	108	2
28	28	14
149	150	1
24	45	1
114	115	4
80	81	3
117	118	3
78	155	1
73	73	7
141	142	2
1	2	1
136	137	1
44	45	2
136	145	2
81	156	1
79	119	1
69	109	2
108	134	2
150	151	1
39	40	4
12	13	4
64	87	2
68	143	1
144	145	5
43	74	1
84	84	2
157	158	1
33	131	1
6	26	3
80	84	1
67	69	3
143	146	1
119	120	3
32	42	3
92	94	2
9	10	6
117	122	3
32	63	2
22	23	4
111	112	2
127	127	11
63	118	2
89	150	1
29	30	3
112	118	2
152	154	3
37	49	2
124	125	7
151	153	1
113	141	3
3	4	8
105	137	1
104	106	1
94	106	3
117	121	1
20	41	2
25	45	1
10	16	3
22	22	7
81	112	5
118	154	1
13	17	2
56	56	6
135	158	2
46	64	2
0	3	1
12	16	1
85	108	1
132	133	2
73	127	2
130	132	2
18	19	3
82	154	3
92	93	1
121	121	8
148	157	1
72	150	1
85	115	1
77	119	2
14	28	2
77	77	8
14	16	3
54	56	1
102	135	1
123	149	2
69	70	1
129	131	3
140	141	2
118	122	5
33	46	1
131	137	2
66	66	8
112	147	2
143	145	2
133	133	6
139	140	1
138	138	6
77	80	3
144	146	1
69	110	1
40	42	5
64	108	2
113	119	2
68	70	6
92	97	3
103	104	2
28	31	3
77	158	1
52	53	3
87	87	6
66	109	1
112	155	1
31	32	1
71	84	1
102	102	3
12	43	1
20	20	4
49	50	2
11	12	3
42	50	1
86	87	1
45	47	8
122	122	2
84	120	2
33	51	2
80	141	1
142	146	1
25	52	1
81	82	4
10	39	1
26	42	1
8	11	1
116	118	3
30	34	1
68	86	1
51	55	1
97	98	1
85	109	2
0	1	3
145	146	8
25	38	3
81	126	2
68	83	1
78	82	1
79	85	3
23	107	1
146	150	1
100	137	1
62	122	2
20	152	1
109	136	2
66	108	1
34	35	1
116	158	1
109	140	1
84	95	1
102	103	3
34	48	3
29	34	1
10	20	3
89	91	1
32	41	1
12	28	3
64	112	1
31	39	3
53	56	1
86	156	2
122	123	3
110	111	3
26	47	2
87	112	2
119	154	1
5	8	2
8	26	2
23	44	1
51	51	2
119	156	1
25	70	2
8	57	1
37	86	4
153	154	5
13	15	1
27	50	1
33	36	1
14	54	2
95	105	1
141	153	2
20	39	3
156	158	2
84	87	1
69	156	1
71	132	1
28	34	1
21	142	1
32	33	1
28	32	1
68	112	1
15	34	3
63	102	1
100	134	1
16	19	2
71	155	3
154	157	1
70	111	2
31	62	3
125	153	1
113	116	2
25	42	1
99	116	1
132	137	1
155	157	1
86	88	1
105	106	2
7	12	1
144	158	1
70	91	2
26	39	1
131	139	4
47	48	1
124	139	1
62	63	3
46	128	1
71	86	2
126	131	1
69	85	2
77	81	2
69	145	1
77	100	1
62	112	1
45	49	1
65	77	1
43	47	2
115	149	1
122	131	2
109	111	1
37	38	2
130	139	2
120	134	1
57	58	1
32	43	1
105	109	1
67	154	2
102	134	1
72	73	1
121	122	2
84	98	1
132	149	1
141	145	1
21	55	1
118	141	2
106	109	2
142	148	1
110	114	1
23	25	1
133	138	1
131	136	1
28	39	1
65	93	1
49	52	1
79	81	2
15	31	1
64	97	1
25	26	1
129	133	1
145	148	1
103	135	1
117	119	1
71	92	1
21	22	2
137	147	1
17	20	1
81	84	1
68	87	1
28	29	1
75	80	1
74	74	1
113	115	1
48	50	1
71	108	1
64	103	1
72	106	1
20	27	1
109	113	1
66	70	1
66	72	1
97	127	1
120	149	1
33	44	1
32	36	1
87	122	1
