104	105	5
53	53	6
54	87	3
89	89	3
103	103	7
94	94	4
96	96	9
134	134	5
113	114	2
115	115	2
96	111	1
128	129	2
65	65	2
13	23	1
92	100	2
55	55	1
86	113	1
111	118	2
84	97	3
68	68	2
35	36	3
35	35	5
78	85	2
67	115	3
108	109	2
108	111	4
107	112	3
124	124	9
110	110	5
106	107	3
62	62	8
93	93	5
67	67	1
108	108	2
19	24	1
23	118	2
25	123	7
131	134	1
109	110	2
88	88	8
131	133	3
107	107	4
130	130	4
60	60	4
82	82	7
63	63	12
82	83	4
71	72	3
129	129	4
50	50	5
22	68	1
15	22	1
35	117	6
134	135	3
128	128	9
66	83	4
82	115	1
19	22	2
18	34	2
116	116	5
54	54	4
13	13	7
56	79	1
32	33	5
24	25	2
95	95	6
51	100	2
22	36	3
6	7	1
37	110	1
119	120	5
1	2	5
84	85	2
85	85	4
55	69	2
54	56	6
31	91	2
117	118	3
112	123	5
86	86	5
53	54	7
76	76	15
7	8	2
90	90	4
129	131	4
14	68	3
104	104	7
110	126	1
31	31	3
91	91	7
29	29	2
64	64	8
120	120	7
116	120	2
105	105	6
69	69	9
5	7	1
110	122	1
23	37	4
95	96	5
72	72	4
20	30	2
61	125	4
57	57	3
1	27	1
21	22	2
56	56	1
125	125	5
83	97	1
93	94	3
75	77	3
54	96	2
101	101	4
121	121	2
81	91	1
69	72	2
28	28	6
58	58	3
127	127	3
57	87	1
118	118	13
75	76	4
109	109	1
55	57	4
4	10	1
8	8	11
111	111	7
56	57	2
53	56	1
102	126	2
51	51	2
123	124	4
44	44	3
19	38	1
90	91	1
53	92	4
70	70	8
62	67	1
3	4	3
9	10	2
3	3	6
67	79	2
44	67	2
112	112	1
13	24	1
52	52	3
112	115	6
58	83	2
111	119	1
2	2	3
99	99	2
79	106	1
91	93	1
123	123	10
98	98	4
70	101	1
96	98	7
131	132	2
68	85	3
57	58	3
86	134	1
132	132	4
26	37	1
61	61	4
59	59	2
79	79	1
127	128	2
18	19	1
26	26	2
59	61	6
33	36	2
50	97	1
60	62	2
44	110	3
83	83	4
59	92	5
71	71	6
108	129	2
102	102	2
37	71	1
70	71	4
108	117	1
11	63	2
24	32	2
10	10	1
75	101	2
19	31	1
68	69	1
91	92	2
106	121	2
60	72	1
78	80	5
58	67	3
22	109	1
75	75	2
78	78	1
4	4	2
1	1	2
77	81	1
111	112	1
84	130	2
83	92	1
9	9	1
80	107	1
107	110	2
81	81	4
33	33	1
101	102	5
45	50	2
18	18	1
72	79	1
66	68	2
115	130	1
73	73	2
80	80	4
126	127	2
79	83	1
74	75	3
20	21	1
133	133	1
114	115	2
130	131	1
17	119	1
82	86	1
122	123	2
22	123	2
69	106	1
91	100	1
123	126	1
117	117	6
99	101	1
74	115	2
38	123	3
120	133	1
23	23	1
15	16	1
114	120	1
64	65	1
68	77	1
81	100	2
42	42	1
47	79	1
65	67	2
17	124	1
106	106	3
25	122	1
32	32	1
89	90	1
92	97	1
53	86	1
22	22	2
66	67	1
71	124	2
44	106	1
59	67	1
96	100	2
75	105	2
124	125	2
77	100	1
108	112	1
90	103	1
116	122	1
107	125	1
87	108	1
16	128	2
68	84	1
75	102	1
10	11	1
131	131	1
83	86	1
69	125	1
7	9	1
104	126	1
18	20	1
11	72	1
76	94	1
45	98	1
37	38	1
16	25	1
78	81	1
15	23	1
80	100	1
