58	60	1
111	111	11
116	117	7
10	35	1
122	122	21
1	2	6
128	129	9
10	11	4
13	13	23
104	104	14
68	68	16
48	48	22
120	121	5
103	103	17
55	101	4
61	61	16
88	90	6
67	67	11
15	16	12
10	10	16
115	115	9
51	51	9
57	57	8
133	133	8
122	123	17
9	32	1
64	115	5
125	126	19
105	105	9
49	49	16
3	3	7
9	9	9
109	109	15
31	40	6
0	14	2
19	19	12
24	25	1
112	113	6
58	58	18
92	92	10
20	21	11
79	97	1
107	108	4
28	30	1
38	38	13
146	146	2
57	99	8
68	69	1
20	20	21
8	8	17
131	131	37
74	75	3
117	119	4
134	134	18
107	107	9
99	124	1
57	58	13
126	126	16
77	103	2
82	82	9
57	102	2
65	65	20
121	122	3
123	123	9
56	56	18
130	130	14
18	21	1
120	120	18
23	23	7
0	3	3
125	125	14
87	87	2
99	112	3
140	140	11
110	110	15
73	80	3
103	104	5
119	120	10
102	126	4
27	28	12
9	33	2
135	138	1
36	38	4
127	127	11
26	26	20
67	69	3
78	79	6
89	92	1
24	24	4
114	114	7
62	63	4
106	107	6
95	95	18
11	16	4
113	114	7
96	96	9
123	124	2
94	94	20
109	110	6
47	47	5
35	37	8
65	82	2
80	80	11
135	136	8
63	63	13
81	81	13
41	42	4
102	102	11
117	117	8
83	84	9
89	89	5
54	64	1
73	73	9
139	139	15
50	50	9
99	101	1
112	112	5
141	141	7
76	76	8
8	10	5
100	100	4
22	22	13
13	23	2
112	114	1
74	119	4
137	138	2
124	125	8
30	31	2
132	132	18
30	41	5
125	127	3
33	33	16
38	39	2
28	29	10
99	99	10
27	27	7
0	0	3
121	123	9
118	119	7
95	98	6
62	102	2
141	142	22
43	48	2
97	98	5
6	6	14
124	124	10
0	13	2
91	91	7
5	112	1
128	128	15
118	118	9
53	53	8
129	129	20
117	121	5
75	75	16
9	10	7
40	40	17
42	42	10
4	59	2
117	118	2
88	88	12
37	37	10
81	103	5
34	34	12
33	40	1
4	5	3
30	42	1
84	84	6
104	146	1
32	33	4
88	95	1
122	139	2
25	25	6
95	109	4
61	62	6
93	94	10
14	33	1
108	108	3
119	126	1
33	34	6
69	69	3
99	100	13
77	90	1
17	17	13
145	145	6
133	135	6
10	16	3
95	97	1
17	28	3
123	136	3
71	71	16
102	131	4
113	113	8
129	130	2
136	136	14
70	70	12
100	101	1
93	95	5
138	138	2
66	66	10
77	78	6
71	142	1
18	19	10
14	16	4
60	70	1
90	90	6
116	116	4
136	139	7
47	51	5
34	36	3
82	128	1
76	77	2
51	52	2
43	43	7
133	134	8
15	15	9
15	33	1
135	135	17
136	138	4
59	59	26
85	86	4
57	101	2
41	41	4
79	109	4
71	74	2
125	129	5
110	133	2
42	43	4
57	73	3
60	60	8
66	71	3
14	14	8
53	55	6
130	131	4
144	144	7
108	109	3
140	141	5
136	140	3
81	82	4
69	73	2
32	40	1
53	54	5
143	144	7
131	133	1
56	65	2
74	74	19
58	59	1
28	28	18
104	107	1
106	106	3
2	5	3
78	103	4
86	87	4
122	131	2
55	56	3
80	88	2
57	100	3
0	23	7
115	117	3
80	82	5
55	61	1
64	64	5
126	127	3
31	34	2
128	130	5
47	48	1
66	67	3
29	47	3
142	142	11
1	98	1
76	79	7
88	89	3
37	38	4
92	93	6
104	108	1
125	142	1
121	121	10
21	21	2
84	95	3
120	144	1
114	115	3
75	97	2
100	103	2
59	67	3
119	119	15
102	103	5
64	97	4
11	25	1
25	26	2
101	126	3
105	106	1
65	83	4
14	15	3
136	137	5
78	85	2
55	63	1
131	132	1
30	30	8
77	77	7
36	37	3
59	68	1
137	140	3
5	97	5
145	146	2
79	79	5
83	83	12
39	40	2
92	94	2
111	112	2
65	70	2
75	82	1
75	79	3
131	140	4
35	35	12
13	25	1
16	16	4
65	71	3
130	134	3
132	139	1
107	128	1
73	76	1
54	54	11
63	83	1
0	1	3
54	55	4
132	134	3
134	135	4
93	93	11
78	78	7
143	143	11
113	119	2
62	62	2
65	92	2
1	1	1
104	109	1
3	52	3
139	140	3
34	35	3
32	32	4
132	133	4
104	105	6
94	95	3
139	143	2
137	137	5
78	88	2
59	60	3
105	108	1
122	141	2
93	106	1
86	86	6
63	70	4
74	76	1
70	73	3
52	54	1
55	64	2
55	62	1
59	62	1
88	91	1
89	91	3
89	90	5
113	115	3
96	110	1
19	20	2
39	39	6
52	52	2
98	98	2
16	17	1
11	27	3
127	131	1
77	99	3
29	29	7
60	65	4
2	2	6
93	125	3
137	139	1
115	130	1
5	5	2
12	24	2
1	5	1
72	73	1
140	142	2
66	68	4
50	51	6
101	103	2
116	130	2
15	17	2
71	72	2
29	54	1
97	97	5
31	31	4
12	14	1
85	85	8
110	113	3
130	142	1
9	14	3
126	129	2
116	118	2
18	18	2
2	4	5
26	27	1
84	94	2
84	85	3
33	35	4
83	92	1
98	100	1
89	124	2
101	101	2
80	128	2
116	120	2
111	132	2
117	144	2
105	109	1
125	134	1
36	36	5
65	66	3
35	36	1
29	48	1
57	59	2
121	138	3
83	85	1
2	43	3
30	49	2
57	61	1
98	109	2
0	19	1
46	47	1
4	4	4
117	120	1
64	65	2
9	11	6
135	139	3
98	99	1
101	102	1
115	131	1
117	132	2
96	118	2
114	116	3
124	128	3
87	88	1
40	41	3
72	117	1
2	3	2
91	95	1
126	145	1
30	38	1
8	9	2
64	83	1
37	39	1
36	39	1
60	61	1
34	39	2
125	143	1
12	31	1
127	129	1
23	24	2
56	57	2
67	68	3
74	77	1
6	17	2
5	25	1
56	63	1
119	139	2
82	83	1
115	116	1
122	136	1
6	30	1
12	12	2
80	81	1
118	142	1
131	139	2
126	130	1
122	129	2
109	111	1
101	130	1
94	125	1
4	98	1
91	92	1
37	40	1
29	43	1
80	87	1
124	129	1
135	137	3
68	73	1
73	119	1
72	72	3
60	69	2
107	115	1
58	99	1
59	101	1
5	59	1
127	144	1
37	41	1
95	124	1
104	120	2
63	98	2
30	39	1
55	55	1
5	43	1
20	81	2
139	141	1
18	81	1
79	85	1
125	144	1
