4	94	2
87	87	3
188	189	8
70	71	2
48	48	4
19	43	1
150	150	2
120	121	3
88	167	1
7	7	3
47	47	1
85	86	2
151	160	1
3	3	4
167	167	6
24	28	3
74	87	1
143	144	4
33	189	1
135	136	3
28	30	5
149	149	10
6	6	4
9	16	4
74	171	2
105	107	2
161	169	1
104	137	2
89	123	2
96	97	1
64	108	2
62	64	6
10	17	1
173	174	1
120	120	1
74	75	1
23	187	5
103	110	4
116	116	2
145	145	3
190	190	2
144	150	3
159	159	3
36	47	1
132	133	1
58	80	2
85	124	4
152	153	1
58	60	1
79	179	1
74	74	10
95	95	2
185	186	3
31	32	1
94	94	3
29	29	4
124	128	1
36	36	5
100	100	3
122	123	4
38	76	2
17	17	3
85	85	2
175	175	6
25	25	1
169	169	10
4	8	4
45	46	3
146	182	3
172	173	2
65	179	2
122	133	2
108	108	5
163	163	4
143	143	2
169	170	2
23	24	3
32	37	2
82	178	3
37	45	2
135	135	3
105	120	1
31	31	2
112	112	5
178	178	1
90	90	5
38	38	10
88	88	2
65	168	1
79	80	3
183	183	2
97	98	2
12	19	1
60	78	2
109	110	2
79	79	3
80	80	3
168	168	3
157	157	5
146	178	2
32	33	2
143	154	5
16	17	4
54	54	6
57	58	1
45	45	1
170	170	9
140	145	1
86	98	1
10	19	6
164	164	5
170	180	1
121	121	4
96	96	2
1	1	5
149	155	1
89	185	3
136	136	1
44	126	1
71	166	1
147	147	1
148	149	6
131	131	2
3	29	3
63	64	1
169	172	3
91	94	1
186	186	1
55	111	1
147	179	2
9	12	1
15	15	2
61	61	5
66	66	1
111	182	6
177	177	1
101	103	2
180	180	1
77	77	2
105	105	2
120	182	2
165	166	3
87	121	1
127	152	2
109	109	2
119	122	2
174	175	1
110	110	4
84	85	1
36	65	1
85	118	1
13	15	1
166	166	3
92	94	1
16	16	6
155	156	4
162	162	4
153	153	1
81	81	3
11	12	4
93	93	3
64	73	2
100	125	1
81	175	1
40	40	2
33	57	2
165	179	1
89	89	3
20	62	1
22	22	2
96	98	1
115	118	1
152	152	4
187	189	3
182	188	2
141	141	2
25	30	1
116	122	2
140	140	1
181	182	3
114	130	1
70	80	1
171	171	1
84	84	2
187	188	2
129	129	3
133	167	1
41	41	1
155	162	1
106	113	3
104	105	3
8	26	2
109	114	3
54	55	1
161	174	2
107	107	5
56	56	8
106	107	1
84	122	5
85	87	4
134	134	1
104	104	2
110	117	2
147	178	2
27	28	2
155	155	2
115	116	2
57	83	2
42	43	3
21	21	1
65	65	2
149	150	1
110	111	1
56	82	1
95	102	2
95	103	1
35	68	1
101	171	2
70	70	3
102	102	3
132	135	2
101	102	2
96	99	1
65	67	1
88	89	1
55	56	1
104	153	2
119	119	3
117	118	2
147	159	1
5	5	1
126	129	1
142	143	2
60	71	2
83	115	1
104	179	1
172	172	1
12	14	1
120	122	1
73	76	1
126	127	1
81	82	1
75	133	1
66	67	3
58	81	1
10	11	1
128	130	2
37	42	1
45	81	1
152	154	1
10	25	1
86	87	1
122	122	1
64	64	1
53	68	2
71	71	1
139	147	1
163	169	1
31	48	1
126	143	2
176	176	1
14	15	1
32	32	2
78	122	1
19	19	1
23	23	1
57	77	1
160	162	2
165	165	1
113	113	2
182	182	1
95	96	2
59	59	1
129	146	3
128	129	1
100	103	2
12	17	1
37	37	1
65	117	1
4	177	1
48	77	1
109	118	1
11	68	1
34	70	2
5	20	1
53	53	1
131	133	1
181	181	1
103	103	1
147	154	1
73	73	1
10	21	1
103	133	1
96	100	1
125	127	1
100	118	2
10	22	1
180	190	1
163	175	1
151	151	1
179	179	1
115	115	1
9	10	1
35	36	1
138	138	1
58	61	1
183	186	1
173	173	1
17	24	1
117	117	1
28	29	1
