10	34	4
104	106	10
55	81	3
16	16	25
148	161	5
125	126	6
159	159	18
7	8	9
87	87	16
177	180	6
130	130	13
41	42	7
12	13	12
38	38	33
109	109	15
129	129	23
5	10	3
127	127	9
178	178	18
29	29	39
89	89	11
65	65	7
13	13	27
153	153	28
157	163	2
123	123	12
68	71	14
156	156	15
72	72	27
145	146	7
95	96	4
131	131	22
114	114	11
45	45	29
92	93	6
36	36	25
119	126	4
8	8	23
43	43	23
130	159	1
41	41	31
54	54	16
50	50	15
158	158	23
76	76	23
167	167	18
0	1	12
56	56	22
9	9	27
89	115	1
33	35	13
25	25	14
57	57	24
180	180	14
116	175	3
142	142	21
136	144	2
79	79	22
178	180	5
141	142	3
60	60	9
62	62	18
110	110	9
163	163	29
101	101	13
134	134	18
38	39	6
20	23	3
90	90	20
108	108	21
96	96	4
41	62	3
120	121	5
157	157	20
132	132	26
6	6	32
143	143	13
66	100	5
115	116	22
51	51	18
21	22	4
80	80	25
98	101	3
15	16	12
55	55	16
2	3	10
165	166	16
94	94	3
1	32	3
29	31	7
38	73	2
143	144	5
8	9	14
115	115	23
97	98	14
12	12	21
83	84	13
18	19	20
81	82	11
100	101	19
134	136	12
9	11	11
123	130	4
126	152	4
30	30	21
65	76	2
99	99	15
44	46	2
96	103	2
165	165	22
35	35	25
3	15	1
62	63	5
116	116	14
126	133	2
173	173	18
14	14	19
3	8	6
55	98	3
138	138	22
116	117	8
67	68	3
33	33	19
149	149	19
80	81	6
152	156	7
63	119	3
151	160	1
164	164	10
107	110	4
106	107	12
88	100	2
19	19	26
133	139	3
37	74	4
123	125	13
6	7	5
103	103	8
85	85	7
148	148	18
31	31	17
152	153	8
121	121	29
0	0	27
124	124	14
44	97	4
122	124	2
3	3	22
149	155	4
8	13	4
135	135	11
61	61	14
32	35	3
33	36	9
118	154	1
158	162	1
50	107	9
2	2	25
75	75	20
140	141	11
167	168	10
32	33	4
15	15	13
11	19	1
27	27	22
43	45	5
81	81	9
169	169	16
21	21	10
91	91	5
107	130	2
22	22	23
174	180	8
23	23	36
174	174	22
30	31	10
168	168	11
40	40	17
10	10	14
100	100	4
20	20	28
35	36	3
166	166	13
153	155	4
121	122	3
154	156	4
25	26	10
135	148	1
145	145	15
126	126	17
86	86	12
3	30	4
88	88	15
117	117	4
17	24	4
30	45	1
12	22	4
152	171	4
167	174	3
178	179	6
64	92	4
59	59	10
5	5	14
142	143	10
1	1	9
37	52	2
98	113	1
87	89	8
64	64	11
172	172	19
118	118	16
161	161	20
21	35	5
24	24	25
26	28	6
152	152	14
53	53	11
176	176	21
84	85	5
17	17	24
53	54	3
42	42	25
16	17	5
106	110	1
32	32	10
97	97	20
52	64	3
107	118	4
151	151	11
27	28	4
40	60	1
10	13	6
81	101	1
102	103	6
4	4	18
19	20	8
54	62	2
51	110	3
104	104	11
84	84	11
161	162	15
147	147	22
21	23	4
175	175	7
44	44	17
65	66	8
111	112	2
155	157	2
4	7	6
160	160	5
109	111	1
120	152	6
37	37	20
147	161	2
142	145	2
166	169	5
90	91	5
99	100	7
92	94	9
73	73	5
26	29	11
150	150	14
171	171	17
155	156	2
113	113	13
78	78	21
95	95	30
174	177	10
122	122	10
125	125	15
77	78	7
1	2	13
93	93	19
167	171	7
29	35	7
119	119	16
103	105	5
120	120	15
170	170	20
77	77	7
109	110	6
107	113	1
7	10	2
137	142	5
111	111	25
139	139	23
7	28	1
87	99	7
129	130	6
97	100	2
6	29	5
155	155	14
18	22	11
43	44	19
82	83	6
83	99	2
102	114	6
24	25	2
39	40	10
136	136	12
20	21	15
140	140	30
160	161	3
157	162	6
83	85	4
105	114	1
11	11	17
105	107	2
109	117	1
12	14	1
3	9	10
31	32	9
98	98	13
55	57	2
109	151	2
112	135	10
16	42	6
124	134	2
125	147	3
117	173	4
7	16	4
165	168	1
66	66	13
13	21	2
85	86	3
34	36	5
82	82	19
27	30	1
124	135	4
121	123	1
124	125	4
89	161	1
60	144	1
127	128	10
78	79	6
102	102	8
26	35	2
91	92	9
154	155	9
87	88	5
137	137	15
42	44	4
12	18	4
105	106	3
20	44	6
25	27	5
62	96	5
26	26	14
9	10	5
42	46	3
74	78	2
161	164	4
12	42	1
5	7	3
172	173	4
107	108	4
55	56	14
177	177	5
28	30	8
98	100	2
93	94	6
148	165	2
98	99	2
91	148	1
8	11	4
34	64	4
144	146	2
108	122	2
28	31	2
66	82	2
1	5	2
127	160	6
158	163	2
39	39	16
149	150	6
127	158	3
11	12	5
146	146	18
147	148	11
113	115	4
4	18	5
34	42	5
85	87	2
122	131	3
60	61	8
63	63	7
12	19	4
7	7	13
127	129	1
163	166	5
31	36	2
28	28	10
125	143	2
22	24	8
99	102	3
126	157	1
19	22	6
133	133	5
99	107	3
146	147	3
158	161	5
123	129	2
169	170	8
114	115	13
132	133	8
18	18	13
163	165	2
3	7	5
112	112	10
82	102	4
2	13	3
18	20	2
3	4	17
122	123	5
130	135	2
52	52	13
168	169	1
11	14	3
155	158	2
91	94	1
14	41	4
159	167	5
26	27	10
4	5	7
83	86	5
5	6	11
162	164	5
85	135	2
160	164	7
56	57	8
27	32	1
93	148	2
96	97	15
114	138	3
79	80	1
130	157	3
71	71	15
22	50	2
60	148	1
84	101	1
151	154	3
83	83	19
82	84	4
44	45	1
144	144	11
30	44	1
80	132	1
61	94	6
157	161	3
93	102	9
171	173	1
11	15	2
36	37	5
28	29	7
22	41	1
97	99	8
59	61	8
107	107	11
61	91	1
103	115	3
67	75	4
41	45	5
63	65	4
42	43	7
19	21	8
110	119	2
7	9	6
39	41	2
5	9	12
92	92	11
160	162	8
20	22	6
53	66	2
98	109	2
116	118	1
17	26	3
35	40	2
75	86	3
143	146	1
171	172	7
100	103	1
141	141	4
162	162	7
118	120	4
135	146	3
56	80	2
90	94	9
135	147	2
76	78	1
179	179	7
0	36	3
22	25	4
20	45	1
22	26	3
3	11	3
16	19	2
22	23	7
23	26	1
93	112	2
85	101	4
43	60	1
135	136	4
126	127	1
144	147	2
133	134	4
121	144	3
52	60	1
38	45	2
82	90	8
166	167	7
58	58	4
11	13	3
175	176	5
108	111	1
148	167	3
104	105	2
97	105	3
117	120	1
81	103	1
73	75	5
103	106	4
58	112	1
124	126	2
10	16	2
144	145	7
115	118	4
104	110	4
109	112	2
88	90	1
85	100	1
4	6	1
134	137	2
8	94	1
68	68	5
24	44	2
58	94	5
170	171	5
9	13	5
114	174	1
94	95	4
73	74	2
94	96	1
81	94	3
160	166	1
88	118	2
118	121	1
34	34	8
138	139	6
28	40	3
67	67	7
72	73	2
2	4	6
74	75	4
26	32	3
151	153	5
157	158	4
10	11	8
81	88	2
153	154	3
147	165	2
128	158	3
24	26	4
37	38	7
134	135	1
113	114	5
110	111	5
57	145	1
105	105	9
135	137	2
18	37	3
164	167	2
106	106	8
40	41	4
41	49	3
6	30	4
23	24	5
127	131	8
21	25	2
19	45	1
24	29	1
2	19	3
31	41	2
40	46	2
74	77	1
125	129	1
119	120	7
150	180	1
150	156	4
128	130	2
68	79	1
34	35	8
123	152	2
39	42	3
17	18	5
108	109	8
27	35	1
111	113	7
7	29	1
153	170	1
20	43	1
110	151	1
83	88	3
147	157	3
152	174	1
25	35	2
137	138	1
59	60	1
16	18	7
22	57	2
68	70	2
5	13	1
128	129	6
21	40	2
135	180	1
154	154	7
130	132	1
112	113	5
149	153	7
1	3	1
20	28	5
96	106	2
67	85	1
103	107	8
135	178	2
23	35	3
79	81	2
110	113	5
4	19	2
86	87	6
2	9	1
96	101	1
21	27	5
9	15	1
158	159	3
95	102	3
32	36	1
88	89	3
97	111	2
89	90	3
103	109	2
147	162	3
49	53	2
97	107	1
28	32	5
80	92	3
75	76	1
177	178	2
58	147	1
28	34	2
118	119	5
151	152	3
81	86	2
173	174	7
16	44	2
14	16	1
90	93	1
33	53	3
39	61	2
63	66	2
52	95	3
51	63	3
17	142	1
118	153	3
41	44	1
131	132	6
25	30	4
84	86	4
98	108	4
157	168	3
159	161	2
50	51	4
96	98	1
7	30	1
122	134	2
58	144	1
170	173	2
114	123	2
87	100	1
101	105	1
168	170	1
87	118	3
128	128	4
67	82	4
82	89	1
37	73	2
17	39	4
150	167	1
119	171	1
12	40	2
52	53	4
28	125	2
52	54	1
154	171	2
27	31	2
49	49	2
90	99	2
110	122	1
167	169	1
84	100	3
120	154	2
134	179	2
24	27	1
157	160	2
125	137	4
104	109	1
14	43	1
176	177	2
159	160	3
163	164	4
107	135	2
74	74	2
73	84	2
94	114	1
3	12	1
55	58	1
120	124	5
112	151	3
17	21	3
70	70	3
36	44	6
101	108	2
118	179	2
27	40	2
104	108	3
137	154	2
95	97	1
107	111	1
123	124	2
113	151	1
99	106	1
23	25	1
101	103	2
18	21	1
5	8	1
62	65	1
34	177	1
18	24	1
57	93	1
80	131	2
179	180	1
65	67	1
158	160	2
32	64	1
117	118	3
173	179	1
86	89	1
65	71	1
63	68	2
68	77	1
151	177	1
10	15	2
71	96	1
128	156	2
35	41	1
119	153	1
2	5	2
120	125	1
110	112	2
54	55	2
4	8	3
58	59	1
45	49	2
94	121	2
131	133	2
90	132	1
88	99	1
85	99	4
100	102	2
50	52	1
105	117	1
122	125	1
49	51	1
23	45	1
54	57	2
9	34	3
28	33	2
119	121	2
104	107	1
150	177	1
53	63	3
102	108	2
8	12	1
16	20	1
26	33	1
33	34	2
58	64	1
159	162	2
64	68	2
174	175	2
0	5	1
79	133	1
71	73	1
115	117	3
30	33	2
126	158	1
111	180	1
22	40	1
129	156	2
71	82	1
99	103	3
72	93	2
150	153	1
115	127	1
129	154	2
169	171	1
99	101	1
154	170	1
32	38	1
144	162	2
97	104	1
29	30	1
61	96	1
101	115	1
13	14	2
29	32	1
107	109	1
132	137	2
82	85	2
13	17	2
96	105	3
165	167	1
60	147	1
52	98	2
67	84	3
0	68	1
80	82	1
142	144	1
118	152	2
57	59	1
51	67	1
72	92	1
94	102	2
159	163	1
161	166	1
77	93	1
142	146	1
3	35	1
128	131	2
26	30	1
117	119	1
21	92	1
103	104	1
139	142	1
53	60	2
115	119	2
121	124	1
67	74	1
149	156	1
51	53	1
19	24	1
104	118	1
66	71	1
6	8	1
41	46	1
121	125	1
175	180	1
16	23	1
128	157	1
77	94	1
31	37	1
140	149	1
67	73	1
