83	83	19
69	69	12
97	97	19
29	29	15
63	63	18
46	46	11
94	94	12
80	81	13
89	90	3
74	80	1
40	40	5
73	73	8
38	46	2
42	42	12
26	27	2
62	76	4
46	47	9
81	86	2
22	22	5
66	66	23
32	33	5
48	48	13
94	98	3
64	64	7
92	92	15
76	77	9
77	77	16
79	79	15
39	39	7
45	45	7
94	97	6
36	36	6
67	67	6
76	76	7
56	56	19
56	57	5
88	88	23
58	58	10
41	41	10
44	58	1
86	98	7
50	50	5
90	94	1
40	41	2
92	97	2
52	77	2
37	37	7
96	97	15
100	100	14
97	98	4
44	44	13
85	85	5
33	34	3
72	72	12
90	91	1
24	25	4
47	47	3
69	70	3
47	57	2
84	84	11
99	99	15
31	31	9
80	80	4
86	86	17
65	65	12
62	62	16
95	95	5
51	51	12
74	75	6
60	60	8
48	50	5
59	59	16
43	43	11
44	77	3
59	85	3
81	81	12
65	86	1
89	89	13
34	36	5
26	26	10
47	52	1
50	51	1
78	78	8
55	55	8
96	96	10
93	93	11
88	100	3
53	100	4
80	86	4
75	75	10
52	52	9
33	55	4
43	76	1
63	65	3
77	80	1
68	68	18
60	62	2
63	79	3
91	101	1
66	69	6
38	38	17
52	55	1
22	23	2
33	33	1
82	82	3
85	86	4
35	50	4
33	49	7
87	87	9
42	43	4
50	67	2
27	28	3
57	58	5
80	92	1
32	32	2
60	61	2
49	49	9
79	80	4
57	57	10
70	70	9
81	84	2
89	96	2
90	90	8
62	69	3
38	53	1
79	90	1
35	35	4
51	59	2
91	91	11
31	32	6
102	102	2
98	98	6
35	36	1
23	23	1
91	93	2
60	75	1
34	35	5
74	74	5
40	59	3
86	93	1
71	72	2
92	98	6
54	97	5
83	99	3
53	53	7
71	71	5
63	69	5
60	79	3
37	38	1
92	95	1
60	100	3
61	79	3
72	73	4
25	25	3
73	74	4
37	46	2
23	24	1
59	63	3
88	89	2
44	59	3
81	82	1
86	88	1
53	57	3
47	97	3
41	43	1
77	91	2
50	52	1
46	79	3
27	27	5
30	30	4
85	89	4
63	78	1
94	96	2
78	80	2
73	79	1
87	88	7
54	55	6
54	54	5
97	101	1
95	96	6
92	93	2
91	97	1
44	79	2
44	80	1
35	38	1
91	92	6
69	88	2
64	66	1
40	56	3
82	87	1
40	80	1
70	71	1
62	67	2
93	98	2
93	94	2
63	64	1
48	63	2
67	68	1
57	99	1
88	94	1
39	56	2
52	59	1
61	61	2
79	93	2
69	73	2
83	84	2
44	90	1
42	45	2
89	94	2
57	59	3
65	66	6
44	45	3
56	76	1
66	68	1
87	96	1
43	44	5
36	42	1
95	98	2
21	22	1
68	69	1
44	75	2
22	27	1
91	96	1
81	94	1
46	48	1
58	59	1
65	74	1
48	49	1
55	78	1
62	63	2
101	101	5
55	71	1
59	60	1
56	59	1
93	99	1
25	27	1
54	68	1
63	75	1
53	68	1
31	34	1
74	78	1
20	20	1
45	96	1
87	94	1
82	86	2
86	87	1
44	57	1
