71	73	2
10	27	1
53	53	4
6	6	14
69	70	8
3	3	8
49	49	12
67	67	5
55	55	16
89	89	20
19	20	13
11	11	16
69	69	18
83	84	3
65	65	14
51	51	19
72	72	6
55	56	3
61	70	2
5	5	12
50	50	11
0	0	9
72	74	7
77	77	10
80	81	7
82	82	11
16	16	2
87	87	5
30	30	12
70	71	4
16	18	3
74	74	13
70	70	6
58	58	17
78	78	6
48	48	14
61	61	6
10	10	9
81	85	3
12	13	1
8	8	9
62	63	5
57	57	15
3	21	5
12	12	6
27	28	6
23	24	7
52	52	7
85	87	1
59	65	2
68	69	4
31	31	9
84	84	9
10	11	2
80	80	10
77	82	7
79	80	1
81	81	7
59	59	6
79	79	9
54	56	4
83	83	15
66	66	6
63	63	9
78	79	10
53	54	4
28	28	11
19	19	11
21	22	8
62	62	5
14	14	4
84	88	5
82	83	8
49	72	4
4	4	4
71	71	5
8	11	2
60	60	1
47	49	1
46	48	7
24	24	18
23	23	8
25	71	2
86	86	12
19	23	1
53	55	3
61	62	8
63	64	2
54	55	4
1	1	7
8	9	2
15	75	1
58	72	1
26	27	2
12	71	2
84	87	3
24	70	3
85	85	5
22	22	12
5	6	2
17	17	2
72	80	3
72	73	7
73	73	8
75	75	14
13	13	5
56	56	8
76	76	4
26	26	10
7	8	1
68	68	11
2	14	2
25	26	3
20	20	9
34	35	3
9	9	8
88	88	1
17	20	1
24	25	1
81	82	1
51	52	8
51	71	2
26	31	2
9	10	3
65	82	5
50	61	1
78	80	4
12	27	2
59	72	3
65	66	3
60	62	4
73	84	1
50	72	1
11	12	3
47	47	5
29	29	5
1	2	3
17	21	3
2	2	3
57	58	1
75	79	2
8	18	1
74	75	2
35	35	3
73	86	1
54	54	2
18	49	3
67	68	2
14	24	1
3	16	1
50	51	3
64	64	3
58	65	1
27	27	7
3	4	5
19	21	2
49	59	1
62	64	1
46	46	3
59	62	1
7	12	1
76	77	2
7	9	4
63	79	2
59	60	1
25	25	1
64	71	1
17	74	1
58	60	2
65	83	2
12	22	1
75	80	1
56	57	1
59	66	1
85	86	1
29	30	2
75	77	1
23	25	1
86	87	1
31	83	3
2	23	1
62	79	2
48	60	2
63	66	1
21	21	2
51	53	1
23	83	1
16	17	1
34	34	1
13	25	2
48	49	2
52	53	1
5	7	1
20	21	1
24	30	1
