18	18	6
77	78	2
68	70	2
91	91	4
110	112	5
73	74	2
62	62	3
131	132	2
125	125	6
37	37	4
29	143	2
134	137	3
57	69	1
142	142	5
121	121	7
133	133	3
105	106	3
136	136	2
84	86	3
73	73	9
97	97	6
77	116	5
130	130	5
67	70	5
80	81	7
5	5	5
156	156	10
154	154	3
152	152	6
9	12	2
110	111	4
100	100	5
17	30	1
83	83	4
29	29	2
116	118	2
87	87	5
22	22	6
127	128	7
78	80	1
107	107	10
21	21	1
86	86	4
24	24	5
108	108	8
65	65	5
39	108	3
11	11	2
9	10	3
2	2	8
30	30	3
117	125	3
153	153	5
34	40	5
34	34	2
127	127	3
38	39	5
138	138	4
69	70	5
27	28	3
133	135	3
123	124	7
158	159	5
139	140	4
32	32	6
19	19	2
17	17	7
64	64	6
14	16	3
132	132	1
122	122	2
71	72	1
88	88	5
77	115	1
158	158	9
129	129	6
128	128	3
44	44	9
39	39	13
130	131	2
55	55	3
84	144	3
91	92	2
105	105	2
148	148	1
152	155	4
98	105	5
38	38	10
89	89	5
147	147	7
143	143	5
55	61	1
151	151	7
36	36	5
10	12	3
22	23	11
137	138	2
68	69	4
128	156	2
117	118	3
42	42	2
41	41	6
54	54	5
77	141	4
116	116	5
31	31	3
20	20	5
11	17	2
98	128	2
46	46	2
114	115	2
82	82	11
110	128	1
16	18	3
57	57	1
77	145	2
8	8	8
106	106	4
67	67	2
75	130	2
140	140	7
141	141	3
13	13	1
20	49	3
153	154	2
85	86	2
155	155	2
15	15	4
52	52	1
134	156	2
93	93	2
157	157	4
95	95	2
71	71	3
76	77	2
141	142	2
50	50	2
15	31	1
31	32	4
76	78	1
48	48	3
72	73	2
84	84	2
127	143	1
24	36	1
152	153	3
6	6	1
31	38	4
150	153	2
19	20	6
124	124	1
51	51	5
13	24	1
46	47	1
23	24	6
139	139	3
146	147	6
29	34	2
109	122	2
31	141	1
55	71	3
5	33	2
113	113	2
107	122	3
20	54	2
153	155	4
50	53	1
11	12	1
132	152	2
63	108	3
50	51	1
68	72	1
47	49	5
123	123	2
7	7	2
9	21	1
45	45	2
78	98	3
131	144	1
3	3	2
114	114	3
47	48	2
114	128	2
43	43	1
49	49	6
35	35	1
28	40	1
10	10	2
10	24	4
38	43	4
27	27	3
103	103	2
109	109	3
27	33	2
88	89	3
144	144	2
92	94	2
80	80	2
11	20	1
134	134	1
13	14	3
33	34	2
123	136	2
66	66	2
129	132	1
149	149	1
68	68	1
16	22	2
150	150	1
113	115	2
17	18	1
104	122	1
56	57	1
81	81	1
79	79	2
147	149	1
148	154	1
75	76	1
26	27	1
69	69	1
28	28	2
44	45	1
146	146	1
137	137	1
154	155	1
16	16	1
0	0	1
119	119	1
86	87	2
38	41	1
124	127	1
3	4	1
47	47	1
103	152	2
115	115	1
40	42	1
1	1	4
18	46	1
112	113	1
126	142	1
23	23	2
88	90	1
118	120	1
116	117	1
94	94	2
118	118	2
98	98	1
102	103	2
81	82	1
117	126	1
29	30	1
117	117	3
75	75	2
96	96	1
99	100	1
120	120	1
9	9	1
84	89	2
100	139	1
54	55	1
124	125	1
23	34	1
111	129	1
28	35	1
111	111	1
48	49	1
94	101	1
77	77	1
79	140	1
