51	70	8
23	77	1
31	69	8
18	23	3
41	41	8
56	56	13
26	26	8
32	33	3
20	20	5
42	42	15
0	77	1
1	1	13
52	52	4
40	40	5
24	24	8
62	62	11
2	2	15
22	23	12
54	55	10
59	59	9
61	61	11
22	28	3
42	52	3
25	75	4
26	28	4
28	28	8
3	3	16
51	51	5
74	74	5
38	38	14
0	0	11
51	54	1
6	6	4
5	5	7
58	58	10
31	31	11
55	66	1
25	26	7
60	60	13
21	21	14
24	70	2
69	70	2
34	41	1
58	64	1
22	22	7
77	77	9
55	57	1
55	56	5
23	23	5
4	5	10
51	53	4
62	63	3
52	71	2
0	2	5
50	67	1
19	68	4
66	66	7
3	4	3
19	19	12
43	44	3
27	28	6
26	27	3
9	10	5
9	9	12
65	66	3
7	8	4
10	10	3
63	63	10
33	33	6
3	7	1
37	37	10
0	23	1
23	29	2
9	52	3
21	33	3
29	31	3
32	50	2
54	57	3
7	7	14
28	29	2
55	55	15
42	53	3
49	49	11
36	37	6
55	72	2
8	8	7
34	42	1
36	36	11
76	76	4
4	4	11
57	58	5
61	62	4
30	31	2
45	45	8
53	54	5
49	50	7
14	72	4
48	48	11
10	11	2
71	71	4
7	9	1
28	69	5
35	35	8
12	12	6
30	30	14
32	32	12
75	75	10
68	68	7
72	73	3
34	75	3
39	52	3
73	74	3
36	70	4
72	72	7
46	47	2
18	19	3
11	11	2
38	40	1
73	77	2
1	2	5
34	34	6
44	44	6
46	46	2
47	68	2
69	69	5
39	62	3
34	72	1
22	25	3
59	60	2
47	48	1
73	73	6
1	22	1
35	42	2
44	47	2
68	69	3
30	43	1
6	7	1
25	27	1
64	65	3
20	21	1
56	66	1
13	13	6
14	42	1
24	30	5
27	27	6
63	64	3
11	12	2
27	62	2
48	49	5
12	13	5
74	76	3
54	66	2
37	68	2
53	53	6
3	5	1
21	54	2
44	64	1
33	34	1
61	63	2
20	44	1
18	18	3
28	65	2
35	38	2
20	56	1
37	72	1
23	28	2
2	7	1
34	37	1
50	50	4
72	74	1
23	53	1
57	57	2
43	75	1
67	67	2
34	35	3
33	39	1
68	71	1
32	43	1
65	73	1
64	66	3
53	69	3
42	51	4
43	43	1
47	47	2
74	77	3
52	73	3
52	55	1
23	30	2
59	74	2
40	50	1
33	37	1
71	75	1
13	14	1
49	53	1
64	64	5
55	69	2
49	52	1
51	57	1
51	75	1
61	72	1
29	29	3
50	51	2
66	68	2
61	67	2
70	74	1
20	46	1
2	3	1
39	40	1
57	65	1
32	34	1
70	70	1
39	42	1
36	39	1
35	66	1
57	61	1
49	75	2
51	58	1
24	75	1
3	12	1
74	75	1
18	60	1
68	73	1
50	52	2
