47	47	8
81	81	8
54	54	11
64	64	7
63	63	19
59	62	3
25	25	8
92	93	8
69	69	6
97	97	21
71	71	9
56	56	23
46	47	5
43	44	4
59	85	2
56	60	4
33	33	6
101	101	10
93	93	19
39	76	3
79	79	10
31	101	2
100	100	9
101	102	6
66	67	3
75	75	8
60	60	8
68	68	18
72	72	14
94	94	13
48	48	15
28	28	6
35	36	3
67	67	14
58	58	7
27	27	8
23	33	3
46	46	4
82	83	6
43	63	5
55	56	2
51	52	6
57	59	3
61	61	20
103	105	9
47	49	4
29	29	3
56	63	1
93	94	5
31	31	5
57	57	5
81	82	2
58	59	4
102	102	9
76	76	9
21	21	8
27	29	2
54	55	5
61	62	17
81	87	4
83	83	5
103	103	22
23	23	6
78	79	9
47	48	2
92	92	12
39	96	1
37	37	7
98	98	18
62	62	11
91	93	4
62	63	4
88	88	14
42	43	6
89	89	7
66	66	8
86	86	8
50	50	8
76	77	13
30	30	2
41	41	10
34	34	2
82	82	9
20	20	2
84	90	3
46	48	1
105	105	6
26	26	8
32	34	3
85	87	3
77	77	9
78	78	15
35	35	14
104	104	3
85	85	13
65	65	8
55	55	7
58	65	1
82	107	2
62	71	3
106	106	3
22	22	3
61	63	2
38	38	8
40	40	2
32	32	5
40	41	5
53	53	14
20	44	4
56	67	3
96	101	1
22	40	1
89	96	3
87	87	12
26	30	2
57	58	4
95	95	12
73	73	16
58	60	4
95	99	10
28	36	1
36	36	7
23	25	3
39	39	2
91	91	4
69	70	4
45	63	2
46	72	1
40	47	1
32	33	5
87	88	5
80	81	2
24	24	10
94	95	7
20	21	3
42	42	6
63	64	3
84	85	8
80	80	8
34	36	2
79	81	3
95	98	2
70	70	6
51	51	6
57	85	2
49	63	1
70	72	2
22	25	4
84	88	2
66	96	1
22	24	2
52	52	5
37	58	3
96	97	5
96	96	13
59	59	2
41	43	4
42	66	5
38	76	7
36	77	2
45	45	1
49	49	3
31	103	2
99	99	7
74	74	3
22	23	4
89	90	10
43	43	12
22	34	1
53	55	1
65	97	1
77	90	1
63	65	1
89	97	2
46	63	5
33	38	2
78	91	1
97	99	1
57	64	1
44	44	3
94	96	4
47	62	2
35	76	2
33	44	3
51	102	1
90	90	2
80	82	1
51	101	1
22	49	2
83	86	1
96	98	1
102	103	1
37	84	3
37	85	1
69	73	3
82	90	2
81	91	1
99	107	1
25	29	2
74	105	3
91	92	2
101	103	3
88	98	2
83	85	1
67	68	1
97	98	1
48	59	1
48	49	3
82	84	3
45	62	3
42	44	1
53	54	3
27	28	1
58	62	2
36	48	1
89	92	2
32	69	1
39	40	1
26	27	1
88	89	3
84	84	6
41	42	1
62	64	1
72	101	2
29	30	2
79	89	1
80	96	1
33	41	1
21	22	1
73	76	1
91	104	1
38	107	1
100	101	2
23	43	1
72	73	1
82	96	2
40	44	1
