95	97	5
120	121	3
131	131	7
125	126	7
13	14	7
88	88	9
117	117	4
87	87	13
12	12	10
71	71	19
29	29	14
80	81	4
36	36	3
102	113	1
21	21	8
54	58	1
95	95	10
76	76	14
110	110	2
50	50	15
75	75	11
134	134	23
109	109	8
22	23	3
1	1	5
14	15	3
128	129	5
96	96	12
71	72	7
112	122	3
86	124	1
116	116	6
78	78	12
122	123	12
116	117	2
129	129	16
118	120	3
45	48	2
98	98	6
32	32	19
93	93	4
103	103	14
103	105	4
83	83	4
101	112	1
69	69	12
33	34	9
55	56	2
124	124	6
19	19	6
38	38	2
49	50	11
74	74	9
43	43	4
101	101	15
53	56	1
115	120	2
97	97	7
70	94	2
122	128	4
78	79	2
77	77	14
84	85	12
120	120	11
14	14	6
82	82	6
113	115	3
89	89	18
12	13	5
22	22	3
63	63	13
104	104	26
127	127	8
79	79	5
98	108	3
67	68	3
62	62	13
59	60	2
86	86	9
79	88	3
6	6	1
121	123	2
60	60	3
13	13	11
2	3	2
130	130	1
60	61	3
126	126	13
28	28	9
86	87	15
91	91	15
70	91	1
23	24	3
82	83	8
68	69	2
125	125	4
69	70	1
73	79	1
108	108	5
111	114	2
25	29	1
59	59	6
85	86	10
16	17	2
99	99	8
116	121	1
109	110	2
127	128	2
35	35	5
63	72	1
123	124	3
92	92	6
21	22	3
121	121	14
28	29	3
124	125	7
131	132	2
88	94	4
102	102	10
33	35	2
82	84	3
56	59	1
87	132	5
73	73	13
84	122	4
70	70	7
94	95	1
112	113	1
100	101	5
17	17	3
33	46	2
24	24	2
115	124	4
95	96	6
105	105	8
90	90	12
55	55	3
34	34	5
100	100	5
75	76	1
33	33	6
82	106	2
35	36	3
20	20	4
66	66	4
64	64	9
119	120	5
106	110	1
88	133	4
80	80	5
37	37	3
65	65	10
106	122	6
25	25	3
66	68	4
105	120	4
72	72	9
114	114	2
57	58	2
106	106	14
91	92	4
30	30	5
74	75	6
115	125	4
62	63	5
45	46	1
106	120	2
5	5	1
103	104	6
7	7	3
25	28	1
17	18	2
107	109	1
133	133	6
45	55	2
107	110	1
7	8	1
65	68	2
119	119	8
95	99	2
117	122	3
125	127	2
37	38	1
18	20	3
98	101	1
74	102	1
61	61	6
107	121	3
85	85	3
79	80	6
107	108	4
63	64	2
8	11	2
112	112	11
123	123	5
53	53	13
8	9	2
9	9	1
18	18	1
105	106	4
134	135	2
48	54	1
16	16	7
58	59	10
2	27	3
83	122	3
97	99	3
81	81	4
96	97	2
85	88	1
76	77	1
64	65	3
15	15	3
94	94	3
25	26	2
106	107	6
32	33	3
2	2	4
54	54	3
35	43	2
126	127	1
81	90	3
24	26	1
96	106	1
53	54	1
26	26	1
130	131	3
47	47	4
84	86	1
70	71	4
115	115	7
1	3	2
56	56	1
44	44	3
99	118	1
24	27	1
43	44	4
95	122	3
107	107	2
118	119	2
30	31	2
88	134	2
42	42	1
108	109	3
124	126	4
15	16	2
18	19	4
89	90	2
33	52	1
111	111	2
72	79	1
37	42	1
85	106	1
65	67	1
105	127	1
123	127	1
98	99	4
50	57	1
122	124	1
122	122	6
112	114	3
132	132	3
26	27	1
118	118	5
76	89	3
3	3	9
112	118	3
50	58	1
68	68	2
117	118	1
114	116	3
34	35	1
100	111	1
84	84	1
0	30	1
31	52	2
29	30	3
57	57	1
67	67	1
14	32	1
97	98	1
114	115	3
54	57	2
111	112	1
91	93	2
87	88	1
73	75	2
19	21	5
93	120	2
72	73	1
55	57	1
1	29	1
123	125	1
24	25	1
52	52	1
73	74	1
92	93	2
0	0	1
106	108	1
108	110	1
87	125	1
31	31	2
23	23	1
129	130	1
27	27	1
52	55	2
128	128	1
62	65	1
31	59	1
7	11	1
11	11	1
22	25	1
132	133	1
88	132	1
