161	166	2
104	105	8
134	142	1
25	26	3
173	173	6
135	135	8
181	181	4
196	196	7
45	45	9
171	171	5
2	34	3
123	123	6
101	102	3
124	137	10
140	140	3
39	40	5
55	56	2
49	49	5
100	100	12
9	14	3
3	50	5
112	147	1
184	185	2
170	170	2
125	142	3
129	129	4
82	82	6
96	96	4
107	107	5
174	174	7
12	54	2
176	177	4
34	34	5
185	185	8
36	37	1
117	117	12
117	144	2
8	9	2
24	25	10
63	64	3
74	74	2
32	33	2
121	121	2
194	194	4
47	47	7
124	124	7
70	71	2
29	29	3
178	181	2
110	111	1
146	148	4
118	119	3
109	114	1
187	188	3
108	108	5
42	44	5
188	190	3
22	22	9
158	158	8
40	41	9
3	7	1
181	194	2
37	37	8
189	195	1
35	35	4
88	89	2
133	133	6
161	162	1
146	146	3
68	68	5
166	166	6
197	197	3
176	176	5
128	129	4
32	32	4
53	67	2
106	155	1
42	59	1
114	126	1
105	105	3
55	55	8
162	162	5
53	53	4
64	65	2
130	130	3
138	138	7
173	174	4
2	3	1
150	150	11
69	69	5
109	119	1
186	187	1
174	175	3
183	183	3
143	144	5
7	7	4
4	4	2
12	12	5
156	156	9
119	119	9
143	143	7
178	178	5
165	165	5
57	57	4
54	54	7
61	62	1
0	0	4
25	25	6
98	109	2
71	71	2
77	77	2
147	147	1
48	48	6
111	138	1
138	152	3
148	168	1
190	190	5
21	22	4
152	152	1
5	5	2
17	17	4
25	28	2
145	145	5
65	74	4
15	16	4
169	169	4
28	29	5
151	151	1
100	121	3
42	42	7
139	168	8
58	58	7
156	159	3
17	50	1
182	184	2
96	131	2
176	179	1
111	131	1
8	29	2
61	61	4
6	6	1
148	148	3
45	71	2
188	188	4
24	24	5
67	67	4
160	165	1
179	179	4
153	153	2
155	155	6
184	184	4
156	157	1
161	165	2
12	39	1
24	51	1
193	193	7
157	157	1
151	152	5
43	67	2
149	149	2
184	192	1
20	20	6
154	154	4
165	166	1
66	66	3
173	176	3
17	18	7
179	180	3
171	172	1
62	62	3
185	186	4
85	87	3
94	95	3
182	182	4
190	191	5
3	5	1
160	176	3
34	35	4
102	102	2
193	195	1
53	65	4
176	178	1
13	13	3
101	101	4
19	19	1
27	30	8
112	112	9
115	115	2
76	76	3
114	114	1
140	143	5
160	160	2
99	99	1
49	52	1
57	58	2
104	104	2
103	103	6
102	103	3
9	23	2
134	134	3
43	43	3
5	6	5
19	21	3
191	191	4
172	172	5
30	31	3
152	153	4
122	122	3
111	147	1
181	185	2
125	127	1
103	142	1
3	6	1
124	125	1
60	60	1
110	110	4
95	95	1
192	193	1
139	139	4
162	163	2
144	144	2
36	39	3
9	10	2
154	156	2
18	18	1
11	54	3
138	146	1
30	30	2
172	175	2
167	167	1
21	21	7
125	126	4
173	178	2
132	146	2
9	9	1
160	161	1
126	126	2
18	51	2
131	131	9
132	133	2
7	35	3
82	83	1
188	189	1
165	192	1
63	63	1
139	142	2
27	27	1
8	8	2
16	16	2
174	181	3
192	192	6
141	141	4
50	51	1
6	7	3
96	152	2
19	25	1
135	138	2
113	120	1
107	146	1
128	128	1
73	74	1
113	113	2
159	160	2
140	142	4
9	52	2
159	159	7
152	154	2
156	166	1
100	101	1
81	81	1
111	112	1
31	31	2
121	122	1
189	189	2
59	59	1
175	175	5
17	41	1
99	167	3
38	59	2
14	15	1
39	39	2
161	163	1
111	111	3
156	160	1
93	96	1
164	164	5
153	154	3
72	72	2
108	138	3
49	50	2
98	98	4
181	182	2
15	71	1
111	115	1
168	174	1
108	139	1
78	78	2
146	147	1
10	10	1
152	167	1
35	179	3
23	23	2
94	94	2
89	89	1
97	110	1
172	177	1
15	37	1
5	27	1
137	137	2
177	177	1
72	73	3
67	68	1
0	33	1
63	73	1
179	194	1
73	73	1
161	169	1
36	36	7
63	83	1
100	167	1
3	4	1
109	110	2
6	22	2
195	195	1
40	40	2
80	175	1
38	38	1
157	159	1
149	178	1
132	132	1
28	28	1
161	161	1
136	136	2
100	162	1
163	189	1
103	163	1
114	115	1
120	121	2
48	54	1
52	52	1
61	64	1
68	73	1
43	44	1
5	7	1
106	106	1
3	3	3
173	177	1
65	65	1
126	127	1
164	166	1
111	197	1
180	180	1
44	45	1
31	190	1
12	52	1
16	41	1
103	158	1
107	152	1
109	109	1
14	14	1
64	64	1
76	86	1
5	8	1
11	11	2
38	66	1
4	22	1
44	44	1
85	85	1
136	137	1
