11	11	22
20	20	16
24	24	30
41	41	54
157	157	11
44	44	27
95	95	23
160	162	2
1	1	26
24	25	10
52	58	1
50	51	3
4	20	7
25	26	12
67	72	4
130	160	13
146	146	26
134	134	10
27	28	1
149	166	2
173	173	13
85	86	1
159	161	2
121	124	2
80	80	11
17	22	1
15	22	4
119	119	7
159	163	1
174	174	13
116	117	5
112	112	15
1	10	4
23	23	28
126	126	16
113	115	6
82	84	6
145	147	6
34	37	3
24	29	1
16	30	2
35	35	32
105	144	8
146	169	3
92	92	18
15	15	11
145	145	5
110	125	3
171	171	11
101	162	3
147	159	2
99	99	12
16	21	6
67	87	4
83	86	5
128	128	28
3	9	5
32	35	3
106	107	2
19	20	4
109	109	17
153	154	12
20	23	1
87	87	9
4	19	3
156	156	13
58	60	5
158	158	7
12	19	2
124	125	9
17	29	5
54	54	8
178	179	2
159	162	6
163	163	9
12	12	30
39	40	3
64	64	17
145	151	5
180	180	7
70	70	11
40	40	40
11	15	7
81	81	14
146	170	3
64	76	10
141	141	25
2	2	21
155	155	4
33	33	27
133	160	3
83	89	3
67	78	4
142	142	12
94	131	2
24	28	2
0	38	1
7	10	4
54	56	7
176	176	18
6	6	32
21	22	2
89	89	13
141	142	11
68	68	18
39	41	3
132	132	17
30	30	25
3	6	1
163	166	2
115	115	11
19	31	1
150	150	17
72	73	2
118	118	7
3	4	5
17	17	30
88	90	2
65	65	12
73	86	3
23	25	13
33	35	8
107	107	10
62	62	9
170	170	22
5	8	2
30	42	7
153	153	23
29	30	22
97	97	27
160	160	16
43	43	7
118	122	3
38	38	43
63	73	7
167	176	5
35	36	9
151	168	6
125	132	5
161	161	17
105	105	7
130	130	13
56	58	6
140	141	8
136	175	4
77	78	4
53	53	5
25	33	3
168	168	14
33	36	6
60	61	12
73	73	17
103	157	2
7	7	17
75	75	16
82	82	17
4	9	6
135	135	15
110	110	6
107	108	10
22	46	2
115	116	8
96	96	19
112	178	3
83	83	8
67	67	15
106	106	15
135	163	3
88	121	2
92	170	4
122	122	20
8	8	28
6	7	12
79	79	14
37	37	32
135	174	12
76	76	14
82	83	4
6	26	3
36	36	34
34	34	18
139	139	21
0	0	23
117	155	6
87	120	3
152	155	10
81	83	6
31	31	34
12	13	14
73	101	5
5	5	33
60	60	16
157	168	5
62	65	3
16	29	4
116	116	5
164	169	3
10	34	1
10	63	5
53	54	8
148	148	20
98	100	2
55	59	6
107	110	1
117	117	15
94	99	4
14	14	26
2	4	7
163	164	2
160	163	6
94	96	2
159	159	23
71	78	3
54	92	4
24	26	9
22	25	5
35	133	1
111	140	1
56	65	2
21	32	4
102	171	1
137	154	5
148	167	3
10	10	38
81	85	2
51	51	13
113	119	5
52	52	12
50	63	2
120	165	2
3	3	22
91	91	8
112	177	7
18	30	6
15	23	6
6	23	5
100	100	8
74	74	11
11	23	2
136	153	2
101	102	8
85	85	5
15	16	1
26	26	23
11	20	1
5	9	3
45	45	10
8	20	2
77	104	1
67	68	6
131	133	6
13	67	2
147	147	10
39	39	27
18	60	1
2	13	1
138	138	20
179	179	9
177	178	12
55	55	9
104	104	7
166	166	14
119	120	10
10	15	4
168	172	3
28	28	30
115	177	4
144	173	4
76	100	1
56	56	21
130	135	4
94	95	6
72	72	12
58	58	6
83	84	3
97	127	3
136	164	2
9	9	23
147	153	1
41	42	17
13	13	30
16	16	28
11	13	10
147	148	7
4	8	9
169	173	2
151	157	1
4	91	1
93	120	1
32	32	34
29	29	11
179	180	8
97	128	1
30	51	2
18	20	11
31	37	4
153	174	1
172	175	1
149	149	14
43	44	10
134	136	3
4	14	2
15	18	2
42	42	23
4	42	2
114	118	10
88	89	14
9	10	7
101	104	3
21	33	5
32	33	5
17	90	3
87	93	4
7	23	3
119	129	6
102	102	4
96	98	3
161	162	11
29	31	3
167	167	5
81	84	4
1	7	1
136	136	14
123	123	12
118	119	4
2	19	5
78	82	6
113	113	18
75	103	4
126	128	5
173	174	3
121	121	4
84	89	1
92	94	2
50	50	5
146	148	1
132	175	1
162	169	2
137	137	10
73	99	1
26	27	17
165	167	1
16	43	5
57	65	1
133	133	6
65	76	2
22	22	20
41	43	4
144	144	14
56	57	2
38	41	1
152	154	9
134	145	2
17	18	7
18	19	9
12	18	2
176	179	4
125	160	2
143	145	5
27	29	1
16	60	4
79	115	2
16	31	4
19	19	11
121	168	1
50	96	2
65	66	3
9	23	2
21	21	5
58	59	6
34	39	3
76	77	6
150	165	2
150	151	4
28	29	13
10	16	2
96	97	6
61	65	2
178	178	14
116	118	2
1	2	4
15	52	2
169	172	4
154	166	5
79	171	1
124	124	11
5	28	1
25	25	22
166	167	2
143	144	10
138	149	6
140	140	11
169	169	9
61	61	5
135	155	5
123	157	1
106	157	2
84	84	5
9	16	1
8	9	9
101	101	11
27	32	4
77	77	9
57	58	1
88	88	19
33	34	5
154	167	2
120	121	1
126	155	1
172	176	1
105	146	4
15	24	2
27	27	32
23	44	3
131	131	7
41	50	1
55	57	5
146	157	3
10	86	1
18	18	17
64	65	5
128	155	2
144	147	4
123	125	1
151	151	8
63	63	14
59	59	8
77	111	2
42	43	4
104	105	6
144	152	3
125	133	4
114	115	4
66	66	12
62	67	1
175	175	12
111	111	14
5	6	4
36	39	2
113	116	4
9	14	1
71	75	1
94	141	4
62	73	4
118	120	5
123	124	5
73	75	5
2	8	1
70	71	2
127	127	11
128	174	9
20	42	2
130	162	4
8	12	4
153	165	1
12	20	1
77	133	1
93	95	3
164	168	1
13	17	2
148	149	14
136	165	4
83	87	3
55	58	3
31	33	4
155	156	1
114	116	5
112	113	6
52	53	7
105	106	7
94	130	5
33	37	1
53	132	2
93	93	16
81	82	7
5	33	1
122	126	1
90	90	8
62	63	9
103	103	8
63	66	7
1	5	2
79	80	3
103	104	3
105	141	2
16	20	3
12	67	5
1	15	1
173	175	2
5	13	2
18	44	1
84	130	1
5	29	1
8	11	2
77	131	1
16	37	1
2	20	2
111	162	1
115	154	2
40	42	6
12	87	2
32	39	4
20	21	4
177	180	3
78	79	1
137	138	3
16	17	8
168	169	2
10	31	2
86	124	4
31	38	1
66	77	3
4	4	12
57	57	8
51	132	3
21	43	2
137	173	1
66	68	1
5	7	2
146	168	9
87	104	5
52	55	1
78	78	3
37	56	4
103	105	3
18	21	3
12	31	2
11	31	2
128	129	4
139	141	1
97	143	1
13	14	2
177	177	15
72	151	1
19	21	4
44	45	14
125	125	6
12	68	1
89	99	3
124	170	1
11	33	1
127	132	2
113	114	5
76	115	2
92	93	6
94	153	1
20	22	4
80	101	3
18	29	2
121	135	1
71	71	2
40	41	9
7	21	4
143	143	6
109	139	2
49	126	2
165	165	8
43	98	6
91	92	7
8	23	8
62	66	2
134	135	2
132	133	2
18	131	3
2	22	2
113	129	2
121	122	5
42	44	1
88	123	2
119	130	1
177	179	2
111	161	1
127	128	4
147	165	2
174	175	2
155	165	2
7	9	15
152	153	5
22	31	1
16	32	9
83	88	4
3	19	4
60	89	4
35	39	6
44	59	3
0	1	4
4	5	3
66	67	3
114	114	7
55	56	9
165	166	3
20	43	2
146	158	1
154	165	2
54	55	5
126	175	2
136	158	2
160	164	1
103	164	2
51	52	2
46	46	1
73	83	3
116	165	1
0	14	10
34	36	4
114	122	4
18	22	2
131	132	3
64	98	2
126	127	2
8	13	5
37	92	2
10	11	10
115	151	2
6	13	2
50	61	4
137	175	1
108	131	3
36	37	1
171	178	1
88	130	1
25	28	3
30	31	8
98	98	6
156	157	6
115	118	2
79	81	4
38	39	4
172	172	15
129	129	4
68	100	1
38	92	3
37	54	2
2	12	1
92	95	1
36	87	2
118	165	1
7	35	2
16	18	2
19	45	3
32	34	3
35	40	1
145	146	9
153	180	4
154	155	3
120	120	11
152	152	11
106	140	8
146	147	1
2	6	4
101	120	3
19	29	2
153	177	2
170	174	2
18	126	3
156	158	1
11	12	3
164	164	2
111	113	2
5	26	3
62	68	5
2	9	2
96	169	1
130	174	1
7	8	2
110	150	7
19	42	2
13	24	1
109	117	2
2	94	2
64	85	1
5	17	1
38	43	4
34	35	4
30	33	1
35	45	1
157	158	5
148	154	1
132	135	1
158	160	6
86	87	5
32	40	2
86	86	5
59	141	3
109	170	1
102	160	2
63	101	2
3	15	4
5	23	2
85	94	1
8	14	3
3	41	2
84	87	3
49	63	1
7	34	1
168	173	4
64	102	2
162	162	5
65	68	1
32	41	2
141	149	2
144	146	1
104	107	2
121	125	2
98	99	1
57	134	2
66	94	4
108	109	4
50	53	1
116	167	1
113	178	1
136	168	1
28	32	1
84	85	3
7	26	1
79	111	2
80	105	3
94	112	2
143	176	1
121	129	1
100	127	3
37	40	2
130	161	4
74	83	2
79	105	1
136	156	3
146	159	1
66	83	4
3	31	2
110	126	1
76	79	1
37	94	4
23	24	6
17	30	2
147	156	2
39	51	2
116	128	1
88	124	2
83	115	1
115	117	1
19	44	1
158	173	6
55	65	2
93	94	9
130	133	1
154	154	7
117	163	1
33	40	3
16	41	2
37	65	3
126	129	6
118	169	1
83	129	1
10	12	2
24	30	1
67	100	3
171	172	2
1	36	4
128	130	1
31	40	1
1	14	2
120	136	2
13	34	1
122	123	6
74	76	1
100	112	1
121	160	4
114	128	2
22	23	9
18	24	1
78	115	1
13	22	1
139	140	1
74	101	1
2	3	4
30	41	1
89	90	3
114	121	1
144	156	1
61	82	1
13	18	3
71	73	3
90	101	2
178	180	2
147	149	1
9	35	1
84	86	2
132	168	3
52	131	2
97	98	4
52	95	3
102	117	2
31	32	4
18	31	1
25	30	2
66	89	1
26	30	2
83	114	6
120	158	2
3	45	1
127	133	1
110	129	1
167	168	6
51	65	1
127	135	1
144	145	4
21	23	1
24	44	1
124	160	2
80	87	3
23	26	2
16	27	2
14	43	2
11	27	1
10	13	3
102	109	2
158	159	3
54	94	1
72	79	1
19	24	1
6	8	1
168	180	4
175	178	1
154	164	3
92	119	1
94	94	5
18	28	2
157	162	1
42	50	1
158	162	4
10	32	1
93	123	1
1	38	1
160	161	3
75	76	1
123	158	2
102	110	1
10	54	1
169	170	1
142	143	3
3	46	1
116	155	1
113	120	2
151	154	1
44	101	1
134	172	2
102	104	3
102	161	1
43	71	1
74	75	1
9	26	1
97	145	1
13	23	1
4	22	1
172	178	1
80	86	1
130	173	1
9	20	1
6	9	5
112	166	3
171	180	1
8	34	2
106	148	3
111	117	1
77	79	2
135	168	1
150	168	3
150	152	2
124	159	3
37	45	1
4	92	1
136	157	3
3	8	1
80	167	1
4	12	1
63	70	2
73	74	1
154	158	2
79	117	1
22	24	1
79	92	3
85	93	2
117	165	1
2	11	2
144	170	3
15	32	3
5	21	2
116	153	2
16	28	1
34	43	1
6	21	3
110	111	1
113	127	1
138	139	1
102	103	2
13	15	1
26	29	3
90	92	1
91	94	2
90	113	1
83	116	1
103	106	2
110	118	1
86	104	1
4	90	1
94	100	2
28	30	1
105	157	1
164	170	1
37	38	2
74	99	1
158	163	2
123	150	1
77	100	2
126	131	1
117	118	1
108	139	1
156	179	1
161	163	2
7	27	1
30	44	4
13	26	1
76	101	2
78	109	1
2	37	1
57	140	1
3	20	1
90	99	3
14	15	1
65	102	2
9	37	1
112	154	1
31	42	1
119	121	1
8	10	2
164	167	3
5	12	2
103	147	1
39	50	1
145	169	1
12	34	1
56	93	2
83	173	1
21	31	1
94	152	1
163	167	2
126	130	1
101	121	1
56	140	1
72	75	1
21	91	2
9	22	1
162	163	1
6	32	1
160	167	1
163	165	1
110	170	2
100	101	2
67	85	1
147	169	1
142	176	1
19	22	1
133	134	1
116	164	2
151	153	2
91	174	3
7	20	1
21	131	1
2	5	1
103	117	1
174	176	1
107	109	1
87	106	1
92	129	1
171	175	2
9	38	1
110	135	1
14	24	1
8	22	1
111	129	1
6	10	1
138	173	1
58	140	1
72	78	1
2	15	2
37	55	2
35	37	1
91	144	1
76	103	1
125	150	1
4	31	1
95	96	1
147	179	1
2	10	1
170	171	2
7	16	1
20	31	1
108	108	3
53	90	1
122	132	1
86	89	1
18	33	2
5	16	1
162	164	3
17	31	1
137	176	1
43	46	1
159	160	1
5	14	1
2	38	1
23	43	1
31	39	1
79	176	1
99	101	1
17	25	1
175	179	1
91	119	1
12	39	1
150	156	1
10	45	1
9	46	1
135	136	1
57	59	1
134	137	1
29	33	1
143	148	1
87	92	1
147	180	1
143	171	1
153	157	1
13	44	1
28	31	1
110	121	1
