1	1	5
76	76	4
0	3	1
57	168	3
66	66	4
213	214	4
84	84	3
80	80	4
100	100	1
49	49	7
236	236	4
120	120	1
46	54	4
148	174	1
191	191	9
184	184	3
24	25	5
99	99	8
130	130	1
34	35	4
238	238	9
185	185	8
24	26	3
17	17	2
107	107	4
187	200	4
203	204	3
61	73	2
127	127	4
19	19	2
195	196	2
171	171	6
233	233	6
187	188	5
18	19	9
193	193	2
239	240	1
69	73	5
5	19	1
141	143	5
59	72	3
189	194	4
125	126	4
74	84	2
150	152	6
28	29	2
224	224	2
238	239	5
138	139	1
159	159	2
21	21	3
8	9	1
3	5	2
51	52	6
15	18	3
63	63	4
21	45	1
203	203	6
10	19	3
53	53	7
121	124	3
80	83	6
235	239	2
160	160	3
47	47	2
20	21	6
58	58	5
102	103	2
71	71	4
133	133	3
235	235	4
103	103	3
151	151	1
210	210	4
75	76	4
49	50	3
64	211	4
220	221	3
142	143	2
63	84	2
22	22	5
165	167	1
55	55	4
55	56	4
216	216	1
38	42	3
119	119	5
16	16	4
174	174	3
134	156	4
228	228	3
234	234	2
124	124	1
48	48	1
235	236	4
28	28	4
172	172	3
48	49	1
189	190	2
68	68	4
219	219	3
237	237	2
11	11	8
42	42	7
143	143	3
191	198	1
147	148	4
36	37	3
70	70	2
9	9	7
88	89	2
181	181	2
165	165	1
189	189	1
11	85	4
77	77	4
68	70	2
9	17	1
54	54	4
115	115	3
34	34	2
20	29	1
108	118	1
32	34	3
60	60	8
116	121	2
200	201	2
150	150	1
43	58	4
25	25	8
128	128	1
178	178	5
73	75	2
109	109	2
26	26	4
182	182	1
183	183	5
38	38	3
207	207	5
166	166	3
35	218	2
146	147	1
179	180	1
140	141	2
208	209	1
211	211	8
44	44	2
46	46	5
61	65	1
169	169	6
48	50	3
121	121	1
62	62	4
104	105	1
175	175	4
31	31	1
80	81	1
6	6	3
20	27	3
123	123	1
175	176	1
71	72	4
148	153	3
40	40	2
156	156	4
74	74	5
232	232	6
69	70	4
146	146	1
45	45	4
57	57	3
10	37	1
190	201	2
20	20	4
50	50	1
233	234	1
202	202	3
104	104	1
223	224	2
102	164	1
205	206	1
37	37	1
97	97	2
161	161	1
64	64	3
63	65	2
23	23	2
51	51	3
52	52	1
96	96	2
182	215	1
82	83	2
86	86	3
120	121	3
10	36	2
183	184	2
21	22	1
24	24	1
12	213	2
54	55	3
187	189	2
156	158	1
57	66	2
148	148	2
33	33	3
194	217	2
173	174	2
231	232	3
148	151	1
39	39	3
108	109	1
201	202	2
31	33	2
206	206	4
242	242	3
43	62	1
20	33	2
157	157	2
156	157	2
65	68	1
132	132	2
13	18	1
201	213	1
14	14	4
198	198	2
217	217	5
8	8	1
10	25	3
43	43	6
73	73	3
182	207	1
223	223	1
10	10	1
27	27	1
205	209	3
56	56	1
67	67	1
69	69	3
139	139	2
12	19	1
42	43	2
118	138	2
134	134	1
152	152	1
15	28	1
60	62	2
32	32	2
116	163	1
68	69	2
173	231	1
232	236	1
70	71	1
99	129	1
137	137	3
133	135	4
21	40	1
29	29	1
64	212	1
199	200	1
225	225	1
171	192	1
186	186	2
138	141	1
108	108	1
65	66	1
9	20	1
228	229	1
27	28	1
204	204	1
190	190	1
129	129	1
75	75	1
218	220	1
215	215	1
4	4	1
220	220	1
