129	129	1
142	184	1
105	105	5
144	144	15
13	16	5
84	85	3
42	90	1
81	81	4
7	8	5
158	158	2
208	208	4
226	227	4
85	85	5
120	120	2
29	29	7
107	107	4
174	174	4
36	36	3
73	74	6
243	243	2
163	221	3
217	217	1
76	117	2
103	103	3
177	177	4
102	102	6
224	224	4
49	51	4
230	232	3
171	171	4
201	201	3
42	42	4
72	72	5
47	47	10
89	89	1
137	138	5
9	68	1
131	131	3
35	45	7
169	221	3
10	10	2
239	239	6
28	28	4
81	84	4
56	75	1
112	112	6
64	64	2
100	100	4
99	99	5
187	205	4
164	164	6
18	18	9
76	119	5
183	183	5
41	41	6
84	84	5
186	187	6
113	113	5
3	3	3
110	110	3
45	45	5
70	70	5
3	205	2
60	60	6
140	140	2
82	84	5
11	20	2
77	77	1
179	179	3
12	12	2
0	0	9
29	109	1
48	54	4
83	83	7
20	20	3
172	212	2
212	212	4
111	111	4
139	169	3
68	68	5
111	114	2
95	131	3
76	78	1
161	219	1
28	29	4
121	121	1
58	58	3
36	41	2
33	33	8
223	223	3
31	99	4
66	67	4
38	38	2
99	100	4
180	180	2
165	165	4
48	48	1
21	223	1
150	150	3
102	103	2
210	212	3
141	141	8
44	44	5
231	231	3
21	22	4
16	57	3
8	8	9
145	145	5
80	80	2
203	203	3
36	43	1
69	219	2
69	210	1
12	13	1
90	108	1
235	235	9
4	66	4
235	241	1
46	46	1
139	140	1
152	210	2
150	214	2
62	62	14
52	52	4
18	30	1
240	240	1
37	37	8
75	75	1
31	57	2
175	178	2
35	35	5
42	97	1
199	199	4
4	4	3
190	190	1
159	161	2
19	29	1
138	168	1
194	194	1
103	106	1
214	214	3
151	151	5
77	79	1
43	43	3
154	154	3
16	62	3
161	161	6
52	53	2
237	237	3
7	7	5
25	102	5
25	25	5
98	113	1
202	202	7
18	19	2
216	217	5
118	118	1
51	113	4
2	2	3
5	5	1
119	119	3
196	196	3
26	62	4
167	221	4
103	104	2
30	31	4
96	97	3
215	215	4
64	68	4
143	143	6
40	41	3
75	76	1
66	66	6
51	52	1
22	22	6
69	70	1
71	72	2
123	123	2
50	50	2
233	237	3
45	46	2
149	150	3
68	143	3
118	119	6
128	128	6
86	87	2
109	109	3
50	83	3
167	220	1
168	170	1
20	102	2
238	238	1
36	83	1
86	86	3
65	66	1
184	184	3
122	122	2
13	13	4
104	123	3
203	204	2
61	61	2
2	195	1
32	33	1
57	57	2
30	98	2
70	71	2
39	39	3
147	147	2
0	153	2
160	160	3
152	211	1
135	135	4
104	119	1
152	152	2
144	217	1
153	153	5
123	125	2
205	205	1
242	242	2
137	137	6
167	169	2
173	173	2
196	197	3
157	157	3
138	162	1
33	35	1
1	9	2
7	16	1
104	117	2
211	215	5
47	229	2
183	207	2
170	200	2
76	76	3
234	234	5
34	91	1
124	133	2
29	54	2
173	211	1
80	83	2
101	101	2
19	19	1
67	67	4
56	56	4
125	125	1
219	219	3
155	156	2
76	77	2
69	69	1
23	223	1
104	104	1
8	48	1
106	106	3
204	205	2
198	198	2
166	166	4
17	17	3
69	164	1
140	176	2
211	216	1
71	73	2
21	23	2
149	192	2
11	11	2
2	23	1
71	74	6
47	96	2
99	106	1
200	200	1
175	179	2
19	102	1
25	224	1
32	99	1
27	28	2
219	220	2
69	209	1
213	214	7
136	137	2
241	242	2
55	56	3
211	212	1
136	138	1
169	169	1
193	195	2
236	236	3
54	113	1
34	35	1
83	84	2
32	43	1
60	114	3
99	197	1
156	156	1
114	115	1
123	218	1
147	148	2
176	178	2
176	176	1
55	96	1
51	51	4
7	31	3
82	83	3
12	97	1
76	106	3
3	4	3
14	15	2
178	179	1
49	49	1
59	59	2
163	163	1
79	79	1
216	216	2
160	172	1
49	50	1
53	53	2
78	79	2
185	186	1
73	73	4
108	108	2
105	106	1
36	48	2
134	134	2
225	225	1
210	210	1
72	75	2
52	79	1
204	204	1
40	40	2
3	195	1
1	107	1
74	103	1
0	13	1
17	98	1
212	213	1
127	127	3
48	49	1
2	3	1
32	32	1
29	76	2
7	9	1
107	119	1
221	221	2
141	184	2
194	205	1
47	48	2
229	229	1
20	21	1
78	119	2
54	54	2
21	21	1
84	98	1
232	232	1
133	134	1
183	184	1
167	168	1
30	33	1
55	57	1
226	226	3
61	64	1
125	158	2
32	69	1
151	152	1
62	63	1
69	226	2
81	82	1
163	165	1
14	19	1
125	126	1
99	101	1
191	192	1
206	206	2
95	99	1
116	116	2
228	229	1
15	49	3
207	207	2
23	23	1
95	125	1
170	170	1
51	63	1
139	204	1
57	58	1
88	88	1
63	63	1
31	31	1
139	139	1
156	157	1
91	91	1
116	118	1
123	124	1
105	119	1
16	16	2
9	9	1
222	222	1
129	222	1
133	142	1
4	30	1
65	150	1
68	152	1
19	88	1
37	38	1
236	238	2
15	19	1
151	156	1
