65	65	17
27	27	26
42	42	19
54	57	5
36	36	7
40	40	9
22	23	2
70	71	3
39	39	10
23	31	8
21	21	13
43	43	8
59	59	8
8	8	6
54	55	3
48	76	4
31	66	5
3	4	3
62	62	4
6	6	9
66	67	8
51	51	3
19	19	8
62	63	4
22	22	11
47	47	13
4	5	6
21	28	2
25	25	6
57	68	2
23	33	1
14	14	2
60	61	3
57	61	3
23	23	8
75	75	6
43	45	4
30	34	2
49	50	6
34	37	1
45	54	1
24	30	1
19	20	3
12	12	10
50	50	6
35	36	4
69	69	3
7	7	4
3	3	14
31	31	9
32	33	8
62	64	5
55	55	11
57	57	16
51	56	3
9	9	13
54	58	1
23	41	2
47	48	7
8	24	7
38	39	5
42	60	5
38	38	8
71	74	1
4	4	1
73	73	9
61	61	4
26	26	3
45	45	11
33	33	9
6	13	4
24	24	8
52	52	11
30	35	4
24	25	1
42	43	4
77	77	7
37	37	8
75	76	3
11	11	6
31	49	3
53	53	4
7	13	4
10	11	7
30	30	3
71	72	2
32	65	3
43	44	2
23	30	3
73	76	4
32	34	1
7	30	1
28	29	2
60	60	4
11	21	2
66	66	3
1	1	5
39	42	1
40	41	2
18	19	3
74	74	7
72	77	1
56	56	5
46	47	5
20	43	5
44	44	5
28	28	4
35	35	3
36	39	3
63	63	4
40	57	2
59	64	1
29	29	6
58	58	5
73	75	3
2	20	1
77	78	4
32	32	4
39	41	2
67	67	4
36	38	1
48	56	4
51	52	2
26	31	7
64	66	1
20	21	2
28	31	4
31	32	3
32	57	2
44	45	2
49	49	3
20	20	7
72	73	6
35	38	2
42	56	1
8	9	2
37	41	3
5	5	6
8	22	2
67	71	1
50	75	3
69	70	3
64	64	5
6	8	2
46	46	2
57	59	3
13	13	3
10	12	2
0	0	7
11	12	3
71	71	8
0	26	2
7	51	1
23	42	1
64	65	2
33	35	1
38	40	2
1	4	1
34	38	2
28	50	3
72	74	1
41	42	2
42	59	1
41	41	4
22	27	1
22	31	1
76	76	3
59	68	3
12	13	1
18	18	1
50	51	3
2	2	4
61	65	1
67	68	1
13	32	2
50	69	2
27	30	2
30	31	1
62	65	2
68	68	2
49	51	2
44	46	1
74	76	3
70	70	2
23	24	1
53	59	1
45	70	2
8	18	1
58	59	1
1	8	1
11	45	2
61	63	1
54	69	1
45	56	2
62	67	1
29	30	2
62	66	1
22	24	3
61	62	1
36	37	1
69	72	2
55	56	1
36	40	1
45	71	1
1	14	1
3	5	1
39	68	1
22	36	1
25	35	3
24	26	1
48	48	3
56	65	1
26	75	1
10	10	1
25	28	1
26	27	1
69	73	1
63	64	1
24	75	1
45	46	1
