32	32	6
101	101	4
119	119	10
24	82	5
112	116	1
93	93	16
76	77	4
27	104	1
111	111	18
37	81	1
76	76	11
10	46	4
91	91	10
83	83	18
94	94	29
109	109	1
31	64	1
68	70	4
28	28	2
8	43	2
66	76	2
69	70	9
13	13	17
82	82	11
0	0	7
10	14	1
36	48	2
33	33	19
124	124	20
61	61	16
78	78	10
65	68	5
9	10	5
71	71	8
17	17	12
128	128	6
99	100	4
45	63	1
89	90	2
58	60	1
16	17	6
15	19	6
47	47	13
11	11	8
75	75	8
4	4	16
74	74	8
122	122	13
94	95	2
65	65	15
12	12	5
127	127	3
26	26	9
126	134	3
5	100	2
102	102	4
9	9	17
133	133	1
7	8	2
75	76	4
60	61	3
6	94	1
69	69	17
66	66	22
64	65	3
23	23	2
112	113	1
11	48	2
10	10	6
71	80	4
81	84	4
126	128	4
20	20	3
100	100	5
106	106	11
45	45	16
111	123	1
48	48	4
31	32	4
116	118	3
35	35	6
95	95	6
7	94	1
114	121	1
36	36	9
77	77	10
46	71	3
73	73	19
63	66	3
109	110	13
81	82	5
72	73	7
70	70	9
87	87	3
64	64	13
131	131	4
93	94	7
78	80	3
8	9	2
95	134	4
64	70	2
22	22	5
18	18	7
98	99	3
97	97	5
78	79	5
60	67	3
86	126	1
27	27	5
96	96	5
34	34	5
126	126	4
72	72	28
129	129	7
49	49	1
16	16	11
57	57	3
84	84	3
121	121	4
5	99	3
88	88	10
2	77	1
7	83	2
32	60	2
32	48	3
46	99	2
125	125	10
113	113	10
29	30	2
62	77	3
63	71	3
14	14	3
27	44	6
73	74	3
110	110	10
123	123	3
27	34	1
26	27	4
35	46	2
43	43	1
6	6	11
105	117	1
45	46	4
37	37	9
130	131	5
32	82	1
47	48	1
47	76	2
68	68	17
63	63	12
34	35	2
9	47	3
100	101	3
132	132	2
122	123	2
118	118	10
8	12	1
126	127	3
2	101	5
66	67	1
60	60	12
26	48	5
37	42	2
24	25	4
110	123	3
44	44	14
109	126	2
29	29	9
112	130	2
82	83	2
123	124	3
25	47	1
120	120	7
38	38	1
4	5	2
14	15	3
19	20	5
103	104	3
85	97	1
117	117	5
30	30	15
4	99	2
35	77	2
108	108	4
57	58	2
116	117	1
106	107	7
25	105	4
64	69	3
31	31	11
56	57	3
4	12	1
42	42	8
78	88	3
130	130	11
81	81	2
101	104	5
13	14	4
110	125	3
46	46	13
19	19	8
59	59	5
123	125	1
31	42	1
13	48	2
35	36	9
8	45	4
110	121	1
114	114	4
85	86	6
18	45	4
8	60	5
25	26	3
14	74	3
3	16	1
15	15	5
37	83	2
2	2	4
68	69	1
121	122	2
16	81	2
22	47	2
128	131	1
67	74	1
8	8	11
79	80	2
115	115	3
63	67	1
76	78	4
68	73	2
86	86	7
29	60	2
47	64	1
11	93	1
128	130	1
92	92	1
25	25	3
15	18	5
26	28	1
18	19	1
3	3	6
24	24	2
23	26	1
95	96	3
46	47	1
28	97	3
2	3	1
1	1	5
25	56	3
75	77	2
107	107	2
10	12	2
10	85	2
32	34	4
94	100	2
63	102	2
87	88	2
56	56	2
79	79	7
7	7	8
11	78	3
19	44	2
94	97	3
17	45	1
67	67	5
99	99	3
84	93	2
114	115	3
7	84	1
58	59	1
57	59	3
71	75	2
71	108	2
49	50	1
83	86	3
116	119	3
21	60	4
116	116	1
5	6	5
16	20	1
28	29	4
60	76	4
111	112	2
84	85	1
57	128	2
35	78	1
3	6	1
104	104	3
24	37	3
45	48	4
6	47	3
87	89	1
85	87	1
61	71	1
26	90	1
74	75	4
32	66	2
19	45	6
96	100	1
93	108	4
101	102	4
85	85	3
72	74	3
20	21	1
71	72	2
63	76	1
128	129	1
20	39	1
26	78	1
50	50	1
14	18	2
46	62	2
28	91	1
4	30	2
34	80	2
46	64	1
34	76	3
86	87	2
37	38	3
62	62	2
5	11	1
61	62	1
46	66	1
40	40	1
16	18	2
43	44	1
107	116	3
80	80	5
6	65	2
13	18	1
84	101	2
59	63	1
118	120	2
109	114	1
8	10	1
20	30	1
68	72	1
5	5	1
12	13	1
2	71	1
63	70	1
48	49	1
39	40	1
58	58	2
64	67	2
77	79	1
6	7	1
32	79	1
71	100	1
104	105	1
42	43	1
