53	53	23
58	62	1
96	96	15
78	78	12
94	94	46
80	80	7
50	50	17
95	96	6
41	41	26
88	88	25
49	50	4
49	49	11
73	75	2
85	86	4
91	91	23
80	91	2
59	59	11
61	61	8
52	78	3
84	84	10
89	89	11
40	48	6
69	70	2
97	98	5
85	85	22
54	101	3
33	33	6
22	23	2
52	52	10
83	83	3
63	65	3
86	86	9
48	48	8
57	57	21
56	56	12
38	39	11
98	98	18
38	38	14
23	23	5
60	60	6
69	69	5
76	78	3
43	43	10
63	63	11
54	54	16
48	49	4
98	99	5
87	87	19
44	44	13
101	102	9
62	62	8
73	73	4
87	94	1
99	99	14
33	39	1
75	75	4
76	76	20
58	59	8
101	101	9
64	65	4
30	30	2
92	98	1
80	93	2
57	58	2
67	67	6
45	67	2
39	39	6
63	64	8
42	42	9
72	72	3
79	79	6
51	63	4
67	68	2
73	78	3
71	71	5
46	46	17
42	43	9
79	89	1
70	70	3
81	91	3
36	36	14
65	65	15
100	101	3
50	51	1
58	63	1
55	55	13
92	94	7
87	88	6
100	100	4
76	77	5
37	37	3
56	57	7
68	68	7
92	92	15
47	48	6
90	90	4
24	26	6
49	77	1
24	25	2
68	69	3
86	96	1
93	93	4
97	97	13
88	92	3
31	32	3
65	67	4
46	50	5
33	38	4
51	51	4
47	47	9
35	36	8
27	27	1
80	81	2
29	29	7
36	39	1
54	56	5
68	72	2
78	96	3
79	97	2
90	91	5
79	99	3
53	54	6
43	44	2
20	20	3
64	64	6
87	89	4
45	45	4
66	66	11
91	92	5
74	74	11
79	98	2
48	50	4
81	81	10
96	97	10
85	91	1
37	39	1
74	75	1
58	60	3
40	49	1
77	78	3
31	31	1
46	47	5
86	87	3
40	41	2
89	90	2
99	100	3
54	55	13
58	58	8
40	40	7
26	28	1
79	80	7
84	85	1
61	62	5
35	35	6
85	88	2
98	100	2
95	95	5
72	73	5
68	70	1
81	84	3
89	91	1
25	25	4
93	94	2
50	59	1
47	49	1
36	37	3
26	27	3
30	33	1
96	100	2
29	33	1
71	76	1
48	81	1
95	97	1
81	97	2
29	32	1
92	93	1
86	88	1
65	66	3
94	98	2
85	95	1
24	24	2
77	77	4
55	56	4
34	35	6
38	40	1
33	36	1
26	26	4
25	29	2
70	87	2
34	34	2
56	58	1
44	49	1
74	77	3
53	55	3
27	38	1
80	83	3
86	97	1
73	74	1
95	99	2
24	27	1
84	88	1
60	61	2
81	98	1
56	61	1
66	67	1
23	24	1
85	89	1
72	77	1
83	86	2
55	80	2
97	100	1
28	38	1
52	53	2
25	27	2
53	61	1
22	95	1
27	28	2
84	98	1
37	38	1
22	97	1
91	95	1
78	86	1
83	98	1
36	38	1
46	49	1
