82	118	2
26	26	16
27	27	22
101	101	15
105	105	19
67	77	2
53	54	4
18	33	2
33	33	15
67	128	1
11	13	3
55	55	19
65	65	12
65	66	10
80	109	10
81	102	2
44	44	22
110	110	15
73	81	1
84	84	11
31	32	2
40	40	7
17	17	7
45	88	2
56	56	19
2	2	24
79	79	13
71	71	20
122	122	21
119	120	5
62	62	11
48	48	21
120	120	38
118	118	13
18	19	11
54	54	27
86	86	19
46	46	30
94	94	14
124	124	10
76	78	1
113	113	10
50	51	15
82	82	9
127	127	10
103	103	16
7	7	17
76	76	18
123	124	4
57	58	6
83	84	12
20	27	2
46	47	10
78	78	5
32	68	4
125	125	26
81	94	2
16	16	12
30	39	1
15	16	10
91	91	17
74	75	6
117	117	22
87	88	2
5	117	1
19	20	8
104	112	4
10	125	1
51	51	21
4	4	11
68	68	19
131	131	29
106	106	9
32	41	3
47	48	5
67	67	12
127	129	2
102	103	6
90	91	7
92	92	24
68	91	5
108	109	1
69	126	2
114	114	23
108	113	3
15	15	16
13	14	4
63	63	9
74	74	17
99	117	4
61	61	23
34	34	4
104	105	13
45	45	14
75	75	15
99	99	8
47	47	29
130	131	4
63	64	4
109	109	11
85	85	15
124	125	1
11	15	4
3	62	2
45	46	5
12	12	14
90	90	8
55	109	2
105	123	1
41	114	4
102	102	13
67	72	5
67	68	11
85	86	5
39	39	25
112	112	29
130	130	14
41	41	19
5	5	11
115	116	5
69	69	11
9	31	1
23	23	17
52	52	26
126	126	15
42	42	4
30	32	2
111	111	6
111	112	3
108	108	20
53	53	39
59	60	14
50	52	2
10	10	11
51	78	3
50	50	15
77	78	2
95	95	26
57	57	23
22	23	9
93	94	2
89	89	26
49	69	3
83	102	3
19	19	19
77	77	19
86	102	2
3	3	11
121	121	26
65	69	4
25	27	1
45	119	1
48	49	5
11	11	11
58	59	9
64	64	8
116	116	22
132	132	11
62	66	2
40	41	5
14	101	2
97	98	8
119	119	13
55	119	3
68	69	5
21	22	5
112	113	4
14	15	3
28	28	19
123	123	24
21	21	15
70	70	4
42	83	7
101	102	5
109	111	4
75	76	8
96	96	17
107	128	3
48	57	1
88	89	10
102	125	1
19	86	1
115	129	1
12	13	5
8	9	4
52	131	3
18	18	8
5	6	4
9	10	4
85	88	8
25	118	2
93	93	12
25	28	7
56	58	6
43	44	9
0	0	20
49	49	18
122	123	2
73	73	11
105	115	4
20	39	1
62	73	2
86	87	6
13	13	12
7	66	4
44	45	7
81	129	7
66	67	4
71	72	2
38	39	3
8	8	10
88	88	11
114	118	2
24	28	7
104	104	5
58	58	18
83	86	2
131	132	2
55	66	3
54	56	2
30	31	2
18	22	4
13	117	2
60	92	1
32	32	6
66	66	6
43	43	21
23	24	8
87	87	3
33	42	2
118	119	3
115	117	5
104	111	3
56	57	4
3	13	1
108	114	1
80	80	11
125	127	6
113	118	5
22	22	10
33	34	7
63	69	1
129	129	12
128	128	11
121	122	7
8	11	5
107	107	16
38	127	2
81	127	1
31	31	11
100	101	7
81	82	5
24	25	3
110	112	1
1	1	14
101	129	5
24	24	13
116	129	2
79	80	7
39	40	4
6	6	11
67	125	7
59	59	6
107	114	3
23	41	3
63	65	5
51	55	3
38	53	2
27	45	2
44	46	2
64	65	2
58	60	4
80	89	1
98	98	8
64	105	3
47	91	3
105	106	1
33	39	1
16	123	4
79	127	1
14	131	2
45	71	3
58	83	1
52	68	1
90	92	1
16	30	8
71	125	2
39	44	5
97	97	15
110	123	1
18	30	4
13	15	3
120	132	5
72	74	3
83	99	2
6	56	1
99	100	5
10	11	7
25	121	3
60	60	16
38	52	1
16	121	3
109	110	15
6	117	2
108	115	3
82	99	1
41	43	1
64	96	5
132	133	2
55	62	3
62	64	6
61	68	1
41	42	4
72	78	3
72	73	5
29	29	4
45	76	1
120	124	1
126	132	4
106	108	1
117	118	3
47	49	3
80	88	4
2	3	5
81	81	7
76	77	2
95	130	1
30	30	6
128	130	1
104	115	3
80	90	4
120	121	6
27	71	1
25	25	14
83	83	3
91	131	1
73	79	7
12	18	3
72	72	10
85	89	4
22	31	1
42	43	1
67	127	3
29	30	3
125	126	3
13	25	3
55	56	4
97	100	4
115	115	15
83	87	4
21	45	3
11	12	4
55	107	1
7	8	6
100	103	3
98	125	1
58	114	1
101	119	1
4	5	2
86	96	1
47	50	1
33	103	1
3	60	1
62	63	5
52	53	9
77	79	1
1	97	5
90	98	3
33	74	1
66	77	2
58	105	1
100	104	3
80	105	2
7	42	1
97	116	2
39	80	4
73	102	4
24	62	3
85	102	3
20	20	15
78	117	2
98	104	1
55	100	1
82	128	1
15	19	2
51	131	2
105	108	2
117	124	2
52	63	5
43	87	1
77	90	3
117	119	1
49	57	3
0	57	2
7	27	1
82	97	1
100	100	8
97	103	3
52	119	1
72	75	2
2	4	1
7	9	2
65	77	7
58	116	1
115	118	1
126	129	1
14	19	3
49	55	1
128	129	2
45	126	1
25	69	4
59	65	3
15	99	2
43	70	3
28	32	1
107	110	3
109	112	1
107	130	2
91	110	2
62	71	1
60	61	2
110	111	3
5	55	1
14	16	3
40	42	6
114	129	1
129	130	7
10	12	3
46	71	3
80	81	3
52	76	1
118	125	1
67	100	5
66	124	1
9	29	2
108	112	1
0	1	1
73	75	2
22	29	6
53	60	4
106	126	3
32	33	2
25	26	2
64	72	1
108	125	2
103	108	3
95	122	1
133	133	3
20	21	1
8	20	2
41	117	3
49	53	2
38	125	3
22	32	3
53	67	1
84	85	3
40	107	1
91	92	1
107	131	2
116	117	3
100	128	3
9	9	4
57	63	4
27	57	2
76	114	1
86	95	2
53	113	1
8	65	1
64	100	1
56	130	1
89	90	3
19	27	2
3	4	1
19	22	1
81	106	1
27	28	2
50	57	2
21	25	1
40	68	1
14	14	5
28	45	4
27	47	1
48	92	1
70	79	2
81	90	1
107	115	2
126	128	1
43	66	1
88	92	1
71	123	2
28	30	3
84	94	1
3	14	1
74	101	3
68	71	1
62	115	1
89	125	2
7	17	2
91	93	3
107	108	2
74	119	1
100	126	1
38	41	1
14	22	2
76	121	1
78	116	2
111	113	1
28	29	3
58	131	2
102	130	1
50	70	1
11	102	2
49	50	1
52	56	1
60	81	3
41	44	1
113	117	1
91	104	1
34	114	1
73	126	1
103	104	3
22	44	2
78	115	1
10	26	1
54	55	1
38	38	2
98	99	2
113	120	1
50	53	1
39	64	1
127	131	1
79	109	1
31	34	1
16	100	2
57	120	1
16	25	1
103	125	2
108	117	1
68	77	1
65	67	1
55	63	1
107	121	1
111	114	1
127	128	1
119	126	2
70	117	1
122	132	1
51	56	3
65	126	1
83	91	1
60	117	1
114	115	1
117	120	1
71	126	1
46	50	1
58	100	1
42	67	1
86	88	1
50	76	2
41	45	1
62	67	1
72	82	1
70	71	1
20	38	1
92	94	1
96	131	1
21	23	2
82	84	1
79	96	1
