149	150	4
106	107	3
136	137	11
113	113	8
14	34	4
24	24	29
30	30	10
198	201	3
176	176	17
75	75	15
237	238	6
211	211	9
168	170	13
72	73	2
83	84	4
177	185	2
228	228	19
140	140	10
6	6	10
193	193	5
27	27	24
24	28	1
34	34	10
64	64	17
223	223	15
222	222	11
232	232	13
216	216	14
116	135	5
234	234	16
13	13	13
65	65	26
101	101	24
150	151	7
61	61	17
5	222	5
138	138	23
108	108	5
20	21	1
26	26	12
127	149	3
102	102	19
49	49	16
155	155	24
221	221	8
100	100	12
14	14	17
233	233	17
187	187	8
173	173	6
172	173	1
148	162	1
45	45	15
68	68	14
54	54	6
214	216	4
8	8	6
179	179	8
89	89	7
212	230	2
9	9	21
33	34	16
70	70	19
205	205	3
44	44	13
5	7	1
230	230	11
134	135	4
0	0	13
16	17	4
152	152	12
214	215	2
11	11	14
145	146	17
225	226	2
43	43	10
194	212	2
168	168	6
72	72	14
83	83	1
197	197	12
41	41	18
183	186	2
23	84	2
31	32	6
86	152	1
195	212	5
59	85	2
217	232	2
80	84	3
38	41	3
30	59	5
116	117	6
74	74	15
91	97	3
99	99	26
60	61	2
107	108	6
129	201	2
40	73	1
158	159	3
50	50	14
38	54	3
80	80	22
86	86	21
122	182	3
123	124	4
39	39	21
48	48	12
103	103	6
189	196	7
114	124	4
5	8	6
175	177	6
0	15	7
20	20	11
231	231	7
50	53	2
210	210	12
46	46	11
33	33	14
81	81	21
180	181	9
59	60	12
191	192	3
2	222	2
58	58	8
88	88	18
21	21	13
167	168	5
97	98	1
217	218	18
80	81	8
33	219	2
60	79	3
168	169	3
238	239	1
59	78	2
13	17	1
144	144	3
32	33	5
66	66	15
170	170	6
21	22	3
35	36	2
30	38	5
152	157	1
104	104	7
218	219	1
29	29	26
84	85	11
2	2	10
180	180	13
18	19	6
95	95	10
199	205	4
151	151	9
120	121	8
40	40	10
32	32	24
202	203	9
129	130	4
101	128	4
213	213	6
129	165	3
37	38	4
29	37	2
24	25	6
31	211	4
28	28	29
129	129	6
78	100	3
131	131	3
10	56	3
76	76	11
241	241	17
174	174	7
221	222	11
101	171	1
74	75	4
195	195	2
35	35	17
212	213	6
19	19	7
14	16	10
240	240	8
35	95	1
111	112	3
8	13	1
5	5	10
48	49	11
4	17	2
59	59	13
117	117	5
189	190	10
60	60	13
1	2	2
18	49	3
43	46	1
103	105	2
57	59	4
25	54	4
160	160	17
106	106	12
84	187	1
128	128	1
201	201	9
206	232	3
130	169	2
166	166	14
126	126	14
7	7	6
132	167	1
128	171	2
199	199	9
78	81	2
177	177	13
98	99	10
224	225	10
122	122	8
116	116	8
78	79	9
63	64	8
30	212	4
4	8	3
63	63	9
26	202	3
178	179	1
218	218	11
26	27	4
121	122	13
30	62	4
78	78	11
205	206	7
102	169	5
120	120	16
159	163	4
144	146	8
239	239	8
37	58	2
53	53	21
163	163	8
98	98	7
10	10	13
190	194	2
150	150	4
29	60	8
35	204	2
107	107	3
184	187	4
25	25	15
170	178	4
9	10	8
110	110	5
10	11	6
67	67	5
26	73	5
55	55	15
109	109	5
125	161	1
153	153	3
36	36	9
188	190	1
17	17	13
130	167	6
122	166	2
71	215	5
38	38	8
14	15	7
184	185	5
139	139	4
37	37	13
139	145	3
190	190	7
196	196	4
101	121	2
135	135	7
31	33	1
105	106	2
22	59	2
76	77	4
79	79	5
197	198	9
122	136	2
228	229	8
19	60	7
143	147	1
162	162	13
241	242	5
56	57	11
143	143	10
0	3	7
201	202	2
107	126	6
97	100	2
7	8	4
194	196	3
49	56	3
234	236	4
206	206	4
31	31	15
227	227	4
115	116	4
161	161	6
140	179	2
122	160	2
153	188	4
25	219	5
84	210	3
172	172	3
58	59	8
159	160	6
124	124	15
31	56	4
123	123	7
165	165	4
185	185	9
34	35	3
157	162	3
207	208	7
15	15	18
49	50	3
50	155	2
147	181	2
182	182	9
77	79	4
82	83	3
152	153	7
123	125	12
124	159	6
210	211	6
162	167	5
113	114	3
158	172	2
137	163	1
204	208	3
202	202	12
220	222	2
154	154	2
82	84	6
56	56	4
77	77	3
96	96	7
142	142	10
183	183	8
46	47	3
36	37	3
105	105	11
167	167	10
219	219	4
40	108	2
139	140	3
135	136	1
53	193	2
118	119	2
228	231	10
100	143	3
69	69	18
52	52	10
219	220	1
121	121	11
209	210	2
155	163	4
32	219	2
48	50	6
193	214	2
85	85	15
157	157	11
54	55	10
184	184	11
164	164	5
216	232	2
22	22	8
156	157	6
33	220	3
18	18	5
133	134	5
155	156	3
1	15	1
134	134	3
175	175	8
4	4	11
16	16	8
21	23	4
229	229	4
13	34	7
83	101	4
230	231	1
115	115	4
17	49	1
3	3	4
34	60	5
185	186	3
143	172	2
40	41	2
166	167	2
17	18	5
42	42	3
53	54	5
12	13	4
147	148	2
84	84	9
31	60	10
148	174	4
112	112	1
144	147	2
108	127	3
19	33	3
208	208	2
239	241	2
23	82	3
226	226	3
41	42	2
57	57	16
137	138	3
136	136	10
114	125	3
71	71	18
229	230	5
62	62	16
194	194	10
186	186	2
128	129	4
68	160	4
84	211	3
1	1	4
183	187	2
192	192	9
29	79	1
242	242	16
169	171	2
121	164	3
78	85	2
61	62	2
10	44	2
127	144	2
6	7	4
176	180	2
140	141	3
189	189	5
184	209	3
100	128	2
219	227	2
130	130	3
226	227	5
15	53	2
34	36	2
22	210	3
79	80	9
10	20	1
44	45	3
8	11	2
15	16	4
38	103	4
101	113	1
198	209	2
12	12	7
8	56	7
23	79	1
130	131	5
13	15	3
7	33	3
190	191	1
79	98	2
138	140	1
140	145	2
227	228	3
75	77	1
187	188	5
41	130	5
42	43	2
143	145	1
25	26	3
199	200	1
119	119	4
17	19	1
17	36	2
158	170	2
64	65	7
54	225	4
186	187	3
20	52	1
38	83	4
45	54	1
12	53	2
237	237	9
86	211	2
149	149	8
14	129	4
198	199	2
27	218	2
19	36	2
195	196	3
29	30	5
153	156	1
85	86	1
34	221	1
30	60	2
47	47	5
220	221	2
13	16	6
0	74	1
99	100	4
188	188	5
23	23	7
82	82	4
171	171	2
236	237	1
236	236	7
172	174	1
145	148	2
102	109	1
238	238	2
116	123	2
30	31	6
124	163	4
28	191	3
79	84	5
176	178	5
215	215	2
15	20	3
5	17	2
75	76	4
99	101	3
122	125	3
221	226	1
207	207	4
177	178	1
32	235	3
159	159	5
41	128	4
17	51	2
189	193	1
28	32	2
4	42	3
178	178	17
19	68	1
122	154	1
95	96	1
8	33	1
176	177	3
137	137	3
80	82	1
124	166	1
35	205	1
103	127	1
170	171	3
73	73	5
56	58	3
78	80	3
51	51	4
115	131	3
121	153	2
203	203	8
127	164	2
189	195	2
182	183	2
209	209	3
1	210	3
21	102	1
119	121	1
200	201	1
84	102	3
82	105	1
51	52	5
149	152	1
141	179	3
85	183	2
34	206	1
20	228	1
147	147	2
125	127	2
55	58	1
36	48	2
77	80	2
26	111	1
141	141	3
102	103	4
8	9	4
116	133	2
169	169	8
229	231	4
120	172	2
77	78	1
181	181	5
22	77	1
71	72	2
188	189	1
117	125	2
145	145	2
169	170	2
31	35	1
157	183	3
173	180	2
74	78	1
52	56	2
22	83	1
0	25	2
101	102	2
118	118	4
225	225	4
106	128	2
178	198	1
158	158	7
125	126	3
190	193	2
66	68	4
87	87	3
133	133	2
57	228	5
148	157	1
23	40	2
98	100	1
10	69	3
23	32	3
212	227	1
233	234	4
76	91	1
19	20	4
123	148	4
142	143	1
222	223	2
22	23	2
65	66	2
0	17	2
128	170	3
3	5	2
46	151	2
224	224	1
153	154	3
57	80	1
117	123	2
114	115	2
43	44	4
30	79	1
192	213	2
120	168	1
21	37	1
22	41	1
173	174	2
127	147	1
30	37	2
211	212	3
156	163	1
143	150	3
123	126	2
143	180	3
103	108	2
125	125	5
239	240	4
1	99	1
4	6	3
39	41	1
118	209	2
37	149	1
181	182	3
0	18	1
48	56	1
115	124	3
18	59	3
43	45	1
14	17	3
109	111	1
132	133	1
57	60	3
235	236	1
220	220	3
3	7	1
42	206	1
68	69	2
65	68	1
1	18	3
179	180	2
50	51	3
122	165	3
155	158	1
5	6	1
173	179	1
208	209	2
127	128	2
96	97	2
136	138	1
160	161	1
73	74	1
66	67	1
47	56	1
212	212	5
240	241	2
204	237	1
20	56	3
41	150	1
64	67	1
111	111	3
191	191	4
27	28	2
192	193	1
32	48	1
214	214	2
40	128	1
60	231	3
203	204	2
232	233	1
143	146	2
25	70	3
155	157	1
123	164	1
44	46	3
207	209	1
19	34	3
211	213	1
30	84	1
192	214	1
156	156	1
18	77	2
234	235	3
146	147	3
117	181	1
35	221	1
164	165	2
0	1	2
29	86	1
88	89	3
0	2	2
20	23	2
33	205	2
107	127	1
7	19	2
215	235	1
223	224	4
219	226	1
97	191	1
127	127	2
150	152	1
57	58	2
132	132	1
134	136	1
138	139	2
31	49	2
4	13	2
26	231	2
97	97	2
184	186	1
198	198	1
162	168	1
63	217	1
165	166	1
103	104	1
100	101	1
162	170	1
221	227	2
151	187	1
58	60	1
146	146	1
214	234	1
217	217	1
235	235	1
196	214	1
15	17	1
19	69	1
19	61	1
141	144	2
62	63	1
191	196	1
4	5	2
193	194	1
179	199	1
149	204	1
106	108	3
164	181	2
148	149	1
12	16	1
148	148	1
32	83	1
188	191	1
194	213	2
148	151	1
144	149	1
171	172	2
39	207	1
45	63	1
84	89	1
116	118	1
102	105	1
129	169	1
85	105	1
64	217	1
81	83	2
48	52	1
35	206	1
24	200	1
38	39	1
204	206	1
37	49	1
46	54	2
128	130	1
81	82	1
36	153	1
22	60	1
141	142	1
30	153	1
30	40	1
134	168	1
50	66	1
63	214	1
