54	54	5
108	110	4
66	104	3
105	105	5
46	52	1
56	56	8
110	111	5
107	112	2
74	76	2
61	61	8
66	66	14
66	69	2
109	110	6
61	107	3
88	88	9
33	33	5
80	80	3
101	101	4
70	74	3
86	86	5
35	37	3
21	21	3
84	84	20
72	75	3
20	20	9
22	22	6
45	45	6
71	74	3
78	81	8
102	102	6
53	60	1
62	65	2
83	83	5
41	41	8
114	114	3
50	50	4
50	51	1
93	93	4
108	108	12
38	39	1
92	92	10
81	107	1
89	90	6
64	64	2
84	94	3
106	106	16
43	45	4
60	60	7
85	85	6
97	98	1
111	111	14
70	70	11
103	103	6
96	97	4
50	52	3
71	71	22
102	108	1
89	91	2
72	72	9
87	87	7
88	95	4
95	96	4
104	109	1
113	113	28
55	55	3
87	89	8
82	82	8
64	65	10
69	69	5
62	66	1
40	40	2
101	110	1
68	68	7
67	67	2
70	72	2
53	101	5
52	52	4
98	98	19
79	80	4
44	44	10
73	73	2
71	72	1
38	38	4
57	58	1
63	65	3
46	46	6
65	65	8
64	102	3
84	97	4
105	106	4
112	113	5
36	38	3
75	75	3
61	74	3
110	110	5
100	100	9
35	35	2
39	39	6
72	74	2
34	34	6
62	63	1
80	112	2
77	104	5
92	97	1
51	51	9
59	59	5
95	95	3
57	84	1
92	96	5
100	112	2
57	59	2
37	37	1
76	82	3
84	105	2
85	86	5
43	43	8
74	74	8
106	107	6
109	109	7
55	56	5
40	41	3
45	48	3
63	63	4
69	70	3
76	76	3
39	40	5
26	26	2
81	81	10
54	62	1
63	103	1
42	43	3
87	88	5
34	35	2
35	36	2
76	79	2
81	109	2
90	91	4
51	52	6
93	97	1
53	53	2
28	29	5
77	77	5
77	103	2
91	91	2
89	89	8
78	85	4
99	100	1
48	48	3
76	97	2
58	59	6
98	111	1
27	27	3
36	37	3
105	107	1
24	24	5
83	84	2
49	49	5
97	97	3
53	57	1
60	63	4
96	96	4
76	111	2
29	29	1
99	101	3
28	28	1
23	23	2
94	98	2
78	88	3
62	69	2
59	60	1
20	30	3
78	80	1
77	84	4
37	61	2
99	99	15
60	102	1
86	103	1
97	106	2
47	47	4
81	82	2
47	48	3
58	58	6
19	21	1
29	40	1
22	34	2
90	90	2
78	78	1
77	83	1
57	57	5
106	109	1
37	39	5
79	79	4
111	112	2
72	84	2
81	84	1
104	104	4
99	112	3
93	94	4
31	31	4
70	101	2
64	71	3
77	91	1
98	100	5
68	69	2
42	42	5
22	27	1
48	49	1
107	110	2
86	94	1
54	58	1
86	88	1
112	112	4
94	95	2
76	103	1
79	96	1
52	53	1
70	71	2
37	57	1
63	64	1
91	97	1
107	107	3
38	61	1
41	43	1
97	109	2
22	25	1
42	46	1
71	89	2
63	66	3
32	32	3
44	45	2
39	58	1
101	102	3
68	71	1
21	22	1
36	36	1
71	73	1
60	107	1
49	51	3
73	74	1
25	26	1
76	78	2
62	64	1
46	47	1
68	94	2
30	30	4
103	106	1
63	69	1
86	87	2
94	103	1
64	66	1
65	66	1
63	71	1
97	105	2
85	95	1
91	93	1
23	24	3
43	44	1
100	101	1
107	109	1
49	50	1
67	69	1
41	52	2
82	83	1
75	76	1
