36	36	2
129	129	4
136	137	3
84	84	4
116	116	5
120	120	3
75	75	3
98	98	4
7	7	6
71	97	2
112	112	2
89	89	6
88	88	6
40	40	8
0	2	1
96	152	4
27	27	5
103	103	5
40	42	2
139	139	3
27	30	3
58	59	6
73	73	2
169	169	2
39	40	1
173	174	2
107	129	3
170	173	2
124	124	2
150	154	1
53	53	3
42	42	1
103	106	3
16	16	3
137	137	2
42	44	5
37	37	6
87	87	2
94	94	5
127	127	5
72	73	2
39	125	3
91	91	3
90	152	3
21	70	1
110	110	2
101	103	1
152	152	5
78	78	2
55	55	5
149	150	1
48	48	3
159	161	1
64	64	2
4	4	6
24	24	4
85	85	4
116	119	2
109	109	1
62	65	2
80	80	1
153	153	7
90	109	1
60	60	4
170	170	3
101	101	1
102	108	1
0	30	4
105	114	1
186	186	4
107	107	1
74	75	2
181	181	5
70	71	2
109	112	1
101	114	3
118	118	1
145	166	1
109	122	2
143	146	1
10	13	1
30	66	2
22	22	2
6	6	4
136	136	2
104	104	4
79	81	2
82	96	2
60	61	3
46	58	1
153	154	1
23	23	9
184	184	7
61	61	2
111	112	1
92	93	1
60	67	1
151	151	7
156	156	4
35	35	1
110	128	2
157	157	3
56	56	5
100	100	3
171	171	4
39	39	1
86	87	5
126	133	2
74	74	3
54	54	4
58	60	1
78	81	4
33	33	2
173	173	3
28	30	3
61	63	1
70	70	3
165	165	3
141	141	4
20	21	2
114	135	3
29	29	1
81	85	2
62	64	1
19	20	1
47	47	1
31	31	1
127	128	1
76	76	10
0	0	3
4	5	1
38	38	4
77	77	1
12	12	1
104	114	1
94	106	1
116	117	3
109	111	1
113	113	2
21	23	2
142	143	3
68	76	2
65	65	1
121	122	3
32	33	2
149	154	1
47	61	2
139	182	2
102	102	1
117	132	1
32	77	2
112	134	4
99	110	2
134	137	1
174	174	3
140	154	2
97	97	2
26	26	1
132	132	2
125	125	2
130	133	2
172	172	1
13	13	4
118	120	3
148	148	2
37	113	3
144	166	5
98	99	2
79	79	3
90	90	3
104	109	1
124	125	2
83	84	1
36	59	2
68	68	2
144	149	2
3	3	2
54	55	5
44	44	1
15	15	1
25	25	2
112	113	3
38	39	2
37	59	1
91	92	3
90	103	1
123	124	1
182	182	3
14	14	1
4	29	1
165	174	1
85	88	1
118	119	1
57	57	1
146	147	4
62	63	1
81	84	1
143	143	2
46	46	2
113	122	1
190	190	3
5	28	1
139	141	3
26	29	1
95	95	3
32	32	2
140	140	1
86	86	1
27	73	3
48	57	1
92	92	1
96	96	1
22	24	1
108	108	1
117	117	1
139	183	1
81	86	1
126	126	1
61	62	1
26	47	1
71	72	2
43	43	1
168	169	2
160	160	1
151	154	1
158	158	1
135	135	1
133	133	3
39	42	1
9	11	1
45	47	1
157	158	1
86	118	1
118	121	1
80	81	1
35	76	1
99	100	1
185	185	1
45	67	1
28	44	1
41	41	1
43	44	3
25	37	2
142	178	1
146	148	1
103	110	1
155	155	1
145	149	1
157	159	1
34	62	1
132	133	1
42	57	1
152	153	1
76	77	1
75	81	1
91	107	1
28	28	1
67	67	1
