47	52	4
51	52	11
118	133	2
1	9	3
32	32	8
136	137	8
127	131	9
68	70	3
129	132	1
103	103	3
77	78	2
131	131	7
4	62	3
14	14	9
129	130	6
94	94	14
105	105	8
67	67	3
144	144	8
95	95	7
53	53	10
127	127	4
141	141	4
93	108	1
24	130	2
58	58	10
34	35	1
36	36	8
0	70	3
102	102	11
119	119	5
143	144	3
60	60	15
23	23	5
115	116	4
133	133	14
20	22	2
35	36	4
114	114	12
71	71	2
65	65	5
18	18	8
80	80	7
26	26	7
107	107	6
38	38	9
115	117	2
118	140	1
79	79	5
3	4	3
111	124	1
128	130	2
122	122	7
4	4	7
135	135	4
124	124	9
31	32	2
93	106	1
48	48	9
59	59	2
17	17	4
66	66	16
53	54	7
49	49	4
41	67	1
116	118	4
68	68	6
34	36	3
134	134	9
78	78	4
8	8	11
101	101	6
86	86	5
124	125	5
142	142	5
30	30	14
13	62	2
37	37	7
118	119	2
66	84	2
54	55	3
28	28	5
121	125	2
82	82	5
99	101	2
61	61	11
4	111	2
114	116	1
8	9	3
41	42	2
24	66	1
59	83	3
32	34	2
108	108	6
88	89	2
60	132	3
125	125	9
89	89	6
108	109	3
126	127	5
13	13	3
67	82	1
91	91	3
87	87	8
68	69	3
2	2	5
56	56	6
67	97	5
116	116	2
56	64	1
125	138	2
82	83	3
54	54	5
129	129	8
17	18	7
5	12	1
139	140	12
136	138	2
115	130	3
78	80	1
99	100	7
51	72	1
117	117	9
70	70	6
55	55	6
3	40	2
34	34	1
10	11	1
75	80	3
125	128	2
130	131	1
42	42	2
28	29	5
89	90	1
128	128	6
41	41	16
137	138	2
92	92	4
31	31	2
73	83	2
69	69	1
122	123	4
118	130	4
17	139	3
33	33	5
74	86	3
84	92	3
6	6	2
119	120	3
97	98	1
137	137	2
93	93	5
126	126	9
73	73	2
99	99	8
100	101	1
107	108	1
15	15	3
132	133	3
117	119	2
74	82	1
57	57	4
20	21	5
14	15	1
115	115	1
119	138	1
140	140	5
80	81	4
101	103	1
122	125	1
77	77	1
9	11	2
133	134	2
121	121	5
81	81	2
0	6	2
56	69	1
145	146	3
22	22	3
82	108	1
72	92	2
26	66	4
109	111	1
0	1	2
97	97	6
34	95	1
72	73	4
75	79	1
27	66	1
5	5	5
117	118	2
70	72	1
26	40	2
68	88	1
8	62	1
120	120	3
29	29	2
13	31	3
50	50	4
27	27	2
137	139	4
40	40	1
19	19	8
132	132	6
111	111	2
65	66	1
39	39	4
123	123	4
35	35	7
76	76	2
130	130	4
146	146	4
23	24	2
62	63	4
87	92	3
104	104	3
140	141	4
89	98	1
90	91	2
1	41	3
92	109	3
17	19	3
90	95	1
138	138	2
63	63	3
112	112	1
24	24	2
134	138	3
3	5	3
38	39	1
11	131	1
143	143	4
19	56	2
91	98	3
95	96	2
109	122	1
118	118	6
100	100	2
107	109	1
89	118	2
21	21	3
106	106	2
21	52	2
64	64	1
84	84	2
52	69	3
123	126	1
55	69	1
145	145	2
110	111	3
123	139	1
75	109	1
98	99	3
138	139	2
70	96	1
58	64	2
43	43	5
141	142	1
12	12	1
62	86	2
131	134	1
10	25	1
90	90	4
64	65	2
133	137	1
98	98	3
79	82	1
102	103	1
33	95	2
4	41	2
27	96	1
79	80	2
97	115	1
4	5	2
87	88	1
57	87	2
75	90	1
134	139	1
83	84	2
22	28	1
116	133	2
36	38	2
47	47	3
80	141	2
67	68	1
13	14	1
78	79	1
106	107	1
9	9	1
116	117	1
72	72	2
77	80	1
16	71	1
75	75	4
59	74	1
73	107	1
6	21	2
113	115	1
48	50	2
134	142	1
42	43	3
91	95	2
113	113	3
86	87	1
1	1	3
81	83	1
87	95	1
22	23	1
56	72	1
10	10	2
94	95	1
38	42	1
59	60	1
111	112	1
110	112	1
57	65	1
110	123	2
133	135	1
95	108	1
17	69	2
109	110	1
52	54	1
93	94	1
110	110	1
11	39	1
36	63	1
109	109	3
68	71	1
16	16	2
91	93	1
1	62	1
58	59	1
91	92	1
92	93	1
90	99	1
83	92	1
55	60	1
25	25	1
121	128	1
84	86	1
74	75	1
33	34	1
48	49	1
50	56	1
89	101	2
40	41	1
52	60	1
25	103	1
97	120	1
