42	42	9
8	10	4
129	129	3
149	149	8
30	31	1
75	76	1
55	55	18
59	60	2
99	99	1
35	35	8
6	17	1
22	23	1
167	167	7
153	153	3
22	119	1
64	127	1
68	68	5
23	23	3
146	146	9
8	9	5
76	76	2
24	26	6
152	153	4
60	60	11
132	132	5
148	149	4
81	81	3
32	32	10
7	9	4
118	119	3
139	139	18
92	92	18
87	87	1
19	19	9
175	175	8
122	122	6
83	83	2
93	93	9
135	136	11
78	78	4
39	42	3
117	117	6
26	139	1
31	31	13
18	18	20
151	151	11
151	162	3
88	101	3
107	108	2
167	170	2
79	80	6
28	29	10
176	176	6
6	16	2
136	136	4
43	44	5
154	163	5
20	21	3
41	41	15
14	41	3
10	10	15
40	40	6
102	102	6
123	124	2
53	56	2
3	3	5
123	123	2
5	7	5
9	9	10
172	176	3
171	172	3
138	138	8
71	92	3
128	128	3
32	34	3
137	137	15
56	57	4
37	120	3
101	101	8
143	144	3
0	0	9
100	101	1
59	59	6
154	154	11
39	39	10
143	143	7
57	57	16
12	41	1
140	141	2
11	41	3
113	142	5
76	77	3
52	53	6
38	38	13
166	166	4
120	121	3
51	58	1
52	52	1
151	155	5
21	21	7
26	26	14
133	133	3
100	100	16
4	7	4
95	138	2
52	121	1
115	118	3
3	4	4
23	24	4
34	37	1
116	117	3
16	16	5
155	155	12
53	53	8
173	173	2
150	152	2
129	132	5
35	93	2
45	45	4
14	14	7
50	51	3
17	44	5
132	133	5
146	147	1
86	86	5
125	125	5
131	131	7
170	170	9
24	173	1
137	138	4
159	159	10
45	46	8
20	20	11
81	86	1
127	127	3
171	171	11
135	137	2
88	96	6
28	28	4
160	164	4
126	127	2
90	91	3
134	134	19
10	17	2
111	111	3
96	96	8
36	121	4
119	121	1
66	66	3
87	88	1
54	72	2
148	148	8
150	150	7
33	33	5
104	109	3
30	32	1
105	115	4
110	113	1
66	104	1
118	122	2
80	82	2
37	37	11
139	140	3
61	61	3
138	139	4
162	163	2
15	15	16
149	179	1
99	100	1
36	43	3
129	130	4
92	96	3
144	144	5
24	29	3
168	168	5
125	126	3
4	4	4
115	115	3
156	156	4
38	119	3
13	13	2
104	105	3
2	3	2
98	100	1
89	89	2
61	127	3
28	88	2
87	89	2
141	142	3
113	125	1
33	42	3
13	175	1
134	135	11
174	174	7
43	55	4
2	18	2
58	58	1
138	179	1
16	17	1
41	42	8
164	164	1
122	150	3
73	73	2
163	164	1
141	141	3
2	8	5
73	76	5
11	11	3
142	142	2
125	131	1
29	30	4
120	120	2
1	1	5
113	113	2
79	79	2
130	152	3
169	169	3
96	104	2
140	140	4
88	89	6
79	86	7
30	30	10
12	12	11
40	52	2
116	116	8
42	63	3
54	93	1
51	62	2
75	178	2
36	36	5
101	104	4
21	22	4
54	54	6
172	172	12
39	52	1
109	109	7
15	16	6
106	115	4
24	24	6
158	160	2
7	7	8
103	104	3
172	173	5
72	72	6
82	99	1
124	124	3
50	50	3
102	104	2
148	155	4
130	131	5
122	147	1
151	153	1
53	90	7
153	157	2
78	79	1
173	174	4
23	26	2
26	111	1
26	27	5
71	74	3
122	152	1
104	107	1
19	20	1
2	4	8
104	129	1
13	14	6
147	155	1
91	91	4
124	125	3
33	153	1
4	30	2
65	65	7
94	94	6
106	106	6
136	137	4
163	176	1
66	67	3
7	10	2
36	39	4
87	97	4
118	118	4
73	74	5
14	15	2
88	88	5
62	62	2
36	37	1
9	10	4
42	44	1
161	161	5
83	84	1
18	22	1
57	58	5
105	106	3
135	174	2
34	34	3
25	43	4
16	51	2
17	17	4
90	102	1
160	162	1
169	175	3
33	35	2
11	12	3
178	178	3
5	9	1
8	8	4
118	149	1
165	165	3
8	17	3
29	29	4
44	44	3
18	19	3
1	16	2
126	159	3
102	131	1
98	110	5
107	107	3
126	126	3
94	123	3
52	61	1
177	177	6
72	73	2
41	62	1
6	6	3
134	136	1
94	112	2
103	103	2
92	94	4
132	138	1
4	13	4
13	174	3
5	6	6
56	56	3
75	75	5
58	59	2
157	159	1
67	67	2
10	13	1
14	17	1
80	81	1
145	145	6
27	120	2
9	13	1
95	123	2
33	91	2
33	36	1
144	145	2
103	107	3
21	25	5
71	71	3
39	40	5
20	33	3
104	106	2
0	44	1
17	57	2
67	104	3
95	95	8
84	99	2
179	179	2
26	28	1
23	25	1
2	2	3
14	31	1
43	43	4
142	143	1
26	170	1
144	159	3
89	91	4
10	19	1
77	177	4
96	122	2
95	96	1
154	155	2
135	150	3
32	33	2
80	80	2
98	99	2
66	68	3
95	108	1
21	26	1
90	99	1
137	154	1
119	119	1
152	155	1
158	171	1
63	63	4
33	43	3
114	114	3
50	52	1
160	163	1
161	163	4
89	90	2
110	110	1
105	105	5
168	169	2
22	22	2
4	6	1
74	150	1
157	157	2
77	77	2
131	134	2
55	56	1
96	97	1
50	62	1
51	51	1
122	123	1
40	41	3
9	15	1
156	162	2
12	13	3
26	157	1
71	72	1
165	166	1
13	15	1
84	85	2
121	122	2
86	89	3
94	111	1
147	147	2
4	9	1
2	9	3
108	108	1
74	74	2
141	149	1
6	7	1
8	15	1
133	150	1
1	2	1
7	8	1
41	66	1
24	28	2
25	25	2
19	84	1
108	115	1
22	24	2
103	106	3
31	38	1
12	14	2
31	120	3
180	180	1
109	110	3
85	86	1
90	94	1
121	121	2
97	97	2
94	95	1
124	126	3
147	148	1
3	31	1
61	128	2
32	36	1
52	90	1
102	107	1
126	153	3
3	16	2
57	61	1
11	23	1
127	129	1
32	149	1
64	64	1
115	148	1
21	27	1
148	154	1
152	152	1
106	124	1
101	103	1
128	141	1
24	61	1
156	157	1
112	112	1
95	125	1
82	101	1
78	94	1
38	55	1
51	52	1
17	20	1
67	68	1
10	11	1
14	173	1
131	150	1
22	25	1
41	65	1
