75	75	6
12	12	4
2	30	2
27	31	3
29	29	4
25	25	4
110	111	7
24	32	3
83	84	2
135	135	7
34	35	2
77	79	3
84	84	13
96	138	2
108	139	2
16	16	5
80	80	4
78	79	5
30	31	6
78	80	1
125	125	8
102	102	7
93	94	5
24	24	1
22	22	4
104	104	6
115	115	9
37	37	2
138	138	14
88	88	3
94	95	2
26	26	7
134	134	6
130	130	5
20	23	1
82	82	4
24	25	4
23	23	9
19	25	1
100	100	12
95	97	6
106	106	6
112	112	6
125	127	3
78	78	6
13	14	12
27	28	2
122	122	10
109	109	3
75	76	5
71	71	11
126	126	3
128	129	8
27	27	3
83	83	7
96	125	1
8	28	2
28	28	8
86	86	12
21	23	3
86	98	2
92	94	1
31	44	1
30	36	3
7	8	3
10	13	5
10	29	2
92	92	5
33	34	3
88	102	1
1	1	6
137	138	4
79	79	6
10	25	1
2	32	2
128	128	8
71	72	1
73	73	5
139	139	7
129	131	2
120	120	6
123	123	4
131	131	8
81	84	2
19	20	5
9	9	5
74	74	5
72	72	3
11	14	2
16	18	2
140	140	8
125	126	1
119	119	3
128	135	3
87	87	9
105	107	2
18	18	9
127	127	4
81	82	4
99	102	2
9	12	2
21	21	1
77	78	4
76	76	7
2	4	1
93	93	4
114	114	8
133	134	1
137	137	5
133	133	8
124	124	6
129	129	11
96	96	3
0	0	3
11	15	1
95	98	4
36	36	4
90	91	4
108	108	2
4	4	3
31	31	9
116	116	6
80	81	3
2	2	4
95	95	1
132	132	8
81	81	8
36	37	6
4	80	1
76	92	5
99	99	6
20	20	1
33	33	4
118	118	5
91	99	5
94	94	3
110	113	1
89	89	4
117	117	1
126	129	2
1	2	1
71	73	2
35	35	5
29	31	1
94	112	3
107	107	2
92	141	1
10	10	1
110	110	1
106	107	1
27	37	2
90	94	1
113	113	2
121	122	3
88	97	1
99	100	2
14	17	2
118	119	2
5	5	4
11	13	2
117	128	2
84	85	2
103	104	2
95	108	1
32	32	2
11	23	1
17	17	5
101	102	2
20	21	1
85	85	1
120	130	1
7	7	2
3	3	5
91	91	3
124	125	3
82	83	1
25	26	1
93	141	1
127	140	1
102	103	2
19	19	1
121	129	1
131	132	2
10	11	2
12	14	1
80	118	3
0	1	1
96	140	2
81	83	1
9	23	2
10	12	2
110	138	1
136	136	5
14	14	3
22	23	2
121	123	2
12	18	1
109	134	2
134	135	2
91	94	1
37	38	1
111	111	1
12	22	1
71	74	2
23	24	2
10	23	1
31	68	1
37	99	1
93	110	1
121	121	2
97	98	1
114	137	1
12	23	3
96	101	1
16	71	2
0	31	1
78	85	1
138	139	1
35	36	1
136	140	1
92	112	1
112	115	1
122	123	1
34	34	1
2	3	1
11	11	1
92	115	1
1	8	1
0	10	1
90	90	1
0	8	1
114	136	2
118	130	1
6	6	1
11	12	1
77	77	1
