54	75	5
104	104	3
91	93	4
67	103	2
174	175	5
72	72	8
40	40	5
102	102	11
30	31	4
106	107	1
153	153	1
113	113	3
91	91	1
162	162	2
55	55	8
28	28	13
151	153	3
80	81	1
114	114	4
79	79	3
121	121	2
186	186	1
100	100	4
115	115	2
150	151	10
100	105	1
161	161	8
91	92	1
80	80	2
99	99	12
71	74	3
45	45	5
26	44	2
25	26	6
21	21	3
17	17	2
107	107	6
9	10	2
112	112	4
22	24	4
178	187	2
31	32	3
174	174	1
77	77	1
97	97	7
152	153	5
187	190	6
15	15	7
75	86	3
84	84	4
116	116	3
171	173	5
58	59	1
93	94	4
184	184	3
33	33	3
152	152	6
7	8	1
36	36	3
54	54	8
6	7	1
157	158	2
178	178	6
136	138	1
160	161	3
105	105	8
133	135	2
165	172	3
143	143	2
57	87	3
94	95	3
135	136	1
82	84	2
120	120	7
118	118	5
24	24	8
44	44	5
128	128	2
136	137	2
74	74	2
145	146	2
22	22	3
140	140	8
42	42	2
14	14	1
98	98	6
20	20	6
189	189	3
63	63	5
90	91	5
166	175	2
154	155	1
11	13	1
122	122	4
37	37	4
44	46	3
135	137	1
167	167	7
144	144	1
95	95	1
27	27	4
93	95	2
186	187	1
175	175	2
95	97	2
66	66	1
103	126	1
8	8	3
56	57	3
25	44	1
85	85	2
179	180	6
133	134	3
67	68	4
71	71	1
65	68	1
90	90	1
182	183	2
23	24	3
46	47	2
18	18	8
83	83	1
54	73	1
110	120	2
115	116	6
36	37	3
39	39	4
183	183	2
40	57	4
178	179	2
88	88	3
3	3	4
147	147	3
110	110	3
70	70	1
165	177	3
189	190	3
65	65	4
81	81	3
117	118	5
106	106	3
77	78	8
79	80	1
173	173	7
123	123	10
88	89	2
125	126	4
141	141	1
86	87	1
78	78	3
26	27	1
168	169	1
58	62	2
38	38	2
14	88	2
11	12	1
30	30	4
82	98	1
117	117	2
65	67	1
21	23	1
172	172	2
92	93	2
169	169	1
82	82	1
1	1	1
166	167	5
166	166	5
149	149	1
84	90	2
164	164	6
171	171	1
148	148	2
185	185	3
105	107	3
61	64	1
150	150	8
2	2	1
157	167	2
58	60	1
10	10	1
97	98	3
34	36	1
4	8	1
137	137	1
112	133	2
126	128	3
0	1	2
103	103	2
75	87	3
134	134	2
175	176	1
123	134	1
177	177	1
10	12	1
176	181	1
146	146	2
23	30	1
35	36	1
111	116	2
0	0	1
176	176	2
122	139	3
171	172	2
57	57	1
44	45	2
126	126	2
96	96	1
160	164	2
13	14	2
119	119	2
89	89	2
125	125	1
74	76	3
52	54	1
13	15	1
13	13	4
141	143	1
45	46	3
154	154	2
182	182	1
96	98	5
59	59	1
83	114	2
185	188	1
170	170	1
92	92	2
108	109	2
28	33	1
127	127	3
148	152	1
32	33	1
43	71	1
87	87	1
46	46	2
120	122	1
60	60	1
75	75	1
148	151	3
48	48	2
125	149	2
79	95	1
152	166	1
14	15	1
154	157	1
178	190	1
20	21	2
41	58	2
116	117	1
10	11	1
3	6	1
156	156	1
56	56	2
2	3	2
69	70	1
47	48	1
12	12	1
104	115	1
105	106	1
165	165	1
94	94	1
172	173	1
144	146	1
46	80	1
145	145	1
34	34	1
