28	29	2
82	82	3
3	3	2
151	151	7
77	77	2
136	136	2
28	28	7
23	23	2
4	5	6
14	14	3
106	107	2
94	94	4
1	1	13
105	105	3
147	147	4
113	114	3
108	109	6
6	28	5
6	115	1
51	52	1
141	141	3
118	154	3
125	126	1
62	62	6
104	105	1
134	134	6
43	43	4
2	2	6
48	50	2
29	44	3
132	133	3
129	129	8
107	107	2
103	130	3
1	2	3
109	109	1
127	127	3
132	132	4
123	123	5
73	73	2
80	80	2
84	84	5
159	159	2
89	90	2
92	92	4
130	130	5
46	46	13
150	153	2
85	89	1
6	6	5
101	101	7
39	39	2
70	71	1
10	11	2
107	108	1
103	111	2
99	99	8
19	19	5
109	113	3
112	114	3
25	25	2
150	150	2
71	71	3
33	33	3
125	125	15
21	153	2
133	133	2
7	7	6
65	66	2
124	133	3
115	122	1
4	15	4
68	68	4
31	31	6
124	125	2
120	120	1
116	116	1
0	0	1
87	130	2
93	94	5
0	1	1
57	58	1
41	41	6
135	135	3
50	50	6
135	136	3
43	44	1
130	131	2
146	146	5
117	117	3
107	110	3
10	10	1
149	149	1
86	87	1
97	97	2
122	122	6
40	40	3
30	69	2
81	81	6
90	91	2
109	110	4
7	8	3
73	77	1
47	48	4
29	29	3
75	75	1
115	117	1
81	82	2
129	133	2
146	147	1
109	112	2
100	101	1
16	16	3
113	115	1
90	90	1
128	128	8
111	111	3
52	52	3
102	103	4
25	26	1
95	97	6
9	10	1
36	36	1
37	37	1
83	84	2
28	31	2
134	138	2
82	129	2
95	137	2
93	93	1
138	138	3
80	115	1
127	128	5
94	99	1
114	114	1
155	156	3
39	41	3
2	3	1
79	80	1
15	15	1
92	152	1
112	112	2
21	21	3
144	144	2
62	64	2
96	96	2
137	137	1
116	117	3
91	91	1
142	153	1
51	88	3
100	100	1
35	39	2
158	158	4
38	38	2
81	130	1
102	102	2
12	12	2
12	114	2
129	131	1
66	69	1
158	159	2
95	95	2
4	4	5
118	118	1
153	153	1
82	83	1
21	22	6
53	53	3
22	22	2
140	140	4
139	139	1
131	131	9
18	23	3
66	66	2
8	8	1
113	113	1
104	104	1
148	150	3
148	148	2
137	139	2
15	128	1
20	20	4
124	150	2
41	43	2
108	108	1
50	51	3
78	79	1
131	133	1
156	156	1
86	86	2
122	123	3
101	105	2
31	42	1
38	40	1
8	17	2
54	55	1
44	45	1
152	154	1
87	88	1
20	36	1
142	143	1
112	113	3
27	28	1
6	18	1
121	121	1
78	78	2
130	134	2
68	69	1
87	87	1
55	55	1
51	51	1
56	56	1
117	118	2
143	156	1
92	93	1
16	17	1
102	117	1
144	150	1
68	89	1
20	21	1
154	154	1
6	29	1
17	18	1
17	17	1
70	70	1
120	139	2
115	116	1
118	119	2
104	151	1
