25	26	41
104	104	58
90	91	20
19	19	55
6	6	68
35	35	92
125	125	89
75	77	12
21	33	6
134	135	52
20	20	57
76	76	63
26	26	54
138	138	68
129	134	7
24	24	52
28	28	44
118	118	43
127	128	19
123	123	112
110	110	50
25	102	2
88	100	4
73	73	30
6	37	4
98	98	51
97	97	41
140	140	78
130	130	105
106	107	17
101	114	5
110	111	29
118	122	3
86	87	2
11	117	2
27	27	44
123	124	28
122	122	112
93	100	7
87	104	5
14	14	51
25	25	58
29	29	49
0	15	2
124	124	108
107	128	7
82	82	31
37	37	67
91	91	49
95	95	47
113	113	54
131	132	26
101	101	59
4	4	52
132	134	7
85	85	28
94	121	2
83	83	35
105	123	1
133	133	71
116	125	4
0	0	29
76	97	3
114	114	49
27	28	23
72	106	3
22	23	11
73	112	1
2	17	4
105	118	1
103	104	10
29	30	29
121	122	42
132	132	96
1	3	1
7	7	45
117	117	56
30	31	23
80	83	12
136	136	100
126	126	113
71	71	48
131	131	99
121	121	57
137	137	98
73	109	1
2	2	63
27	29	14
31	122	1
17	18	29
81	82	23
126	132	8
11	12	20
107	117	5
132	133	23
11	31	5
109	110	3
111	111	70
84	84	47
89	89	54
10	14	4
77	108	3
82	108	10
100	100	48
78	78	61
1	1	58
125	126	21
77	126	1
128	128	113
111	114	2
83	85	13
81	85	6
106	113	3
77	78	15
124	125	39
5	6	27
126	127	32
74	74	56
99	99	40
32	32	56
134	134	105
32	33	11
17	19	18
34	34	56
9	26	2
11	11	30
23	24	33
80	108	5
10	11	25
16	16	52
93	94	27
28	29	23
92	92	17
118	119	23
104	105	10
96	96	56
30	30	33
15	15	38
103	103	56
139	139	82
71	79	5
17	17	60
105	120	2
20	21	3
127	127	116
109	109	46
106	106	26
94	94	49
10	104	5
128	129	31
4	9	1
4	12	4
90	116	2
77	77	40
115	115	47
124	141	2
111	113	10
18	18	66
3	3	51
79	85	5
140	141	3
5	17	11
101	102	20
33	34	5
19	21	6
72	72	54
129	129	113
105	106	17
23	23	32
33	33	37
8	8	47
78	81	2
93	93	34
135	135	89
72	79	9
92	95	3
6	17	1
7	8	27
22	22	59
36	36	66
27	36	2
105	105	41
137	138	22
75	75	51
133	134	18
123	134	4
110	112	8
111	112	11
115	123	4
5	9	6
19	20	26
3	4	31
91	137	6
78	122	2
8	36	6
37	38	18
21	21	71
82	86	7
124	136	2
125	130	3
79	79	62
12	14	7
10	10	34
72	103	2
23	116	2
85	87	2
85	119	4
9	9	42
102	103	18
102	108	4
87	87	74
131	137	1
120	121	20
8	11	4
16	17	8
138	139	23
83	84	21
81	81	38
16	18	6
12	15	2
112	116	2
80	81	9
28	30	8
15	38	1
120	120	66
6	8	6
97	98	8
103	106	12
90	90	42
95	118	3
31	32	16
80	80	49
23	32	1
33	139	3
92	128	2
13	14	40
31	31	23
85	99	10
72	87	2
127	129	10
93	102	2
119	121	5
5	5	49
126	128	6
37	89	3
84	87	4
100	102	8
15	16	8
106	108	3
105	109	3
7	27	1
129	130	28
102	102	37
11	28	2
24	28	1
76	79	2
74	111	3
26	27	12
6	7	6
109	121	4
131	140	4
115	127	3
112	113	17
5	15	1
79	80	13
80	111	2
87	88	18
108	108	47
89	90	12
108	109	19
37	106	3
76	78	11
74	76	5
82	84	11
122	124	5
88	105	4
12	12	27
95	96	16
8	9	31
116	116	37
21	22	28
106	109	5
2	19	4
25	27	5
107	107	42
98	99	5
135	136	12
74	75	16
84	86	4
11	137	1
104	107	6
88	88	55
13	26	1
8	13	4
76	77	21
113	132	5
12	23	2
93	95	3
86	86	50
22	68	6
125	127	2
112	112	54
117	128	7
110	114	6
13	13	39
126	137	8
73	74	13
10	12	25
44	68	1
86	116	2
72	73	16
111	120	1
84	120	2
14	15	5
119	119	28
2	27	3
95	97	7
77	106	6
85	86	17
79	109	3
122	123	14
87	102	6
2	4	5
16	95	2
129	135	1
81	86	4
103	108	11
71	95	4
74	124	5
82	94	1
94	124	3
68	124	1
38	38	19
134	140	5
101	105	2
115	118	4
2	23	5
18	19	14
12	13	16
1	5	5
16	37	2
17	36	3
128	138	7
122	125	6
87	106	6
113	114	14
21	34	3
80	86	2
73	77	7
93	106	2
91	101	5
101	104	1
27	31	4
82	120	2
0	6	3
84	88	6
126	136	3
78	116	2
23	25	6
130	131	15
36	37	5
83	86	6
101	115	3
91	92	8
74	91	2
24	26	2
135	140	7
108	111	4
72	93	4
13	21	7
80	84	5
91	94	3
71	94	1
94	102	8
75	99	1
102	104	4
77	130	3
133	137	3
79	106	7
22	31	2
4	5	20
102	107	3
33	119	2
91	105	3
73	76	7
0	2	12
29	31	16
112	129	4
17	95	3
22	28	4
94	95	9
108	132	2
124	126	5
11	20	3
78	86	5
117	118	18
9	10	11
92	124	7
0	1	14
71	76	5
109	114	1
30	34	4
92	111	1
114	115	18
120	122	8
99	137	2
134	137	6
112	122	3
8	24	3
139	140	15
80	92	2
122	126	4
113	140	1
6	33	2
82	85	9
21	45	5
99	100	12
125	131	4
9	11	2
78	111	3
82	116	2
13	101	2
71	102	2
113	119	6
122	127	2
103	117	1
87	98	1
31	33	4
114	116	3
92	94	9
128	136	3
72	105	1
93	131	1
21	26	8
8	19	4
80	82	6
15	18	2
22	26	9
0	3	4
116	117	10
79	123	3
85	112	4
86	90	4
73	87	3
77	125	2
7	13	4
124	128	3
123	125	5
10	24	4
118	120	4
77	120	4
84	85	16
87	116	3
12	25	1
136	137	5
74	77	6
118	123	7
85	120	4
0	28	2
116	119	7
123	127	5
130	135	1
34	37	7
101	103	6
77	123	4
109	111	2
92	123	3
82	83	15
83	127	2
78	119	6
18	21	1
80	121	2
74	139	1
16	28	2
110	127	1
6	19	4
78	107	3
80	85	2
108	110	2
101	110	3
100	101	13
28	86	3
97	99	2
79	102	2
75	81	2
76	98	3
73	108	1
13	22	2
82	103	5
130	134	3
129	137	1
72	119	2
88	89	7
78	93	1
94	133	5
18	91	3
5	18	1
127	135	5
26	29	1
74	119	1
89	137	2
0	4	2
74	118	2
37	101	3
10	23	3
5	37	1
6	28	6
14	19	3
91	110	1
124	133	4
79	115	2
90	125	2
14	28	1
38	75	2
89	94	3
35	36	9
10	31	3
78	80	5
22	25	5
117	119	3
96	131	2
22	101	1
81	84	7
4	28	3
18	128	3
9	19	3
71	111	2
88	97	3
88	91	5
6	13	4
78	123	1
1	2	11
33	35	6
22	24	2
78	120	1
80	104	1
120	123	3
89	100	2
117	124	2
3	13	1
116	140	3
7	9	15
112	118	1
11	15	4
77	104	1
93	105	1
77	80	2
11	16	1
86	88	6
73	94	3
81	130	1
3	10	4
115	116	1
89	99	2
81	83	10
75	76	10
132	136	4
9	125	5
126	134	9
76	85	3
26	34	2
75	80	3
87	118	1
72	78	2
16	27	3
78	79	11
88	116	3
68	68	1
94	99	1
33	116	1
71	136	3
24	25	4
78	96	1
119	122	8
21	37	3
115	140	1
90	131	1
4	138	2
73	75	2
99	112	4
72	128	6
17	20	1
27	30	2
3	18	1
78	84	1
76	105	1
87	101	3
79	117	5
107	127	2
90	95	3
127	134	2
10	30	4
5	22	1
79	118	1
14	26	2
92	93	12
74	123	1
11	78	3
21	31	2
15	27	4
74	140	1
5	34	1
121	124	1
119	120	14
94	126	4
33	133	1
125	135	5
117	125	2
34	35	7
127	137	3
30	33	1
7	19	4
73	119	1
76	115	2
102	135	3
20	23	6
88	102	2
79	83	1
5	21	3
78	117	1
35	38	2
101	111	3
117	129	1
113	118	2
32	34	3
78	106	2
4	33	2
76	116	3
3	9	3
1	102	1
86	89	1
131	134	1
38	88	2
104	112	2
3	5	2
16	19	2
22	35	4
118	124	3
93	123	2
107	108	6
91	125	2
0	83	6
0	5	3
79	104	6
6	15	5
116	124	5
14	31	1
79	108	2
91	140	3
104	106	1
93	96	2
72	115	1
8	10	4
14	17	1
71	125	1
83	91	2
91	93	4
4	6	4
102	115	4
129	133	2
100	129	1
82	107	2
103	105	6
35	101	2
73	121	1
7	10	3
108	112	3
77	79	2
22	123	2
125	129	5
7	28	1
77	111	3
86	103	2
98	125	4
104	108	1
104	113	3
17	27	2
18	35	2
20	32	4
0	24	2
27	97	1
19	36	4
1	16	1
87	108	3
10	19	1
108	130	3
103	107	2
26	30	2
113	115	1
95	124	1
110	113	2
97	134	2
77	95	1
88	90	2
137	139	2
96	100	1
78	126	1
5	32	1
3	116	2
25	124	3
80	90	3
9	13	1
34	132	2
14	21	4
79	88	4
40	104	1
14	124	3
6	25	1
124	127	1
73	85	1
132	135	3
74	115	2
12	26	3
71	86	3
85	105	3
1	22	2
103	122	2
9	31	1
77	83	2
23	30	2
5	127	2
94	114	2
14	71	3
73	78	2
115	124	2
75	78	2
12	16	1
10	80	3
77	117	3
28	31	1
121	123	2
4	22	1
98	108	2
1	10	3
93	109	1
84	103	1
11	120	1
92	118	2
28	32	3
112	114	4
96	97	1
91	95	1
2	3	2
136	138	5
29	32	2
30	32	3
103	111	2
111	131	1
79	125	1
94	131	1
92	101	1
2	38	3
101	126	1
78	125	2
100	112	1
9	106	1
88	96	1
80	103	1
71	82	1
109	119	4
4	18	2
10	22	1
79	90	1
8	106	2
87	90	2
95	123	4
125	140	2
73	84	1
36	94	1
3	30	1
33	36	2
92	97	7
11	26	3
133	136	4
71	124	2
92	116	2
20	22	4
112	115	2
28	33	1
75	116	2
74	100	1
85	106	2
23	26	3
129	131	1
129	132	1
1	7	1
131	133	2
114	128	1
79	119	2
1	71	2
121	125	1
6	30	1
101	128	1
115	125	4
130	133	1
79	84	1
105	126	1
0	20	1
11	30	6
75	123	1
107	111	2
81	99	2
25	130	1
134	136	2
124	132	3
77	121	1
1	88	2
85	121	2
72	94	1
11	13	2
88	94	1
76	81	1
107	125	1
9	28	1
15	23	2
124	129	2
32	122	1
85	88	1
97	111	1
71	121	1
90	118	3
78	87	2
73	125	1
24	72	1
117	121	1
105	107	1
89	130	2
71	77	1
71	72	5
13	18	1
71	84	1
108	140	1
98	100	1
13	15	1
83	109	1
72	74	3
94	96	2
113	124	1
2	37	2
19	22	1
87	121	1
102	111	1
24	31	2
73	93	1
72	84	1
71	78	1
115	121	1
0	27	2
3	22	2
128	130	1
126	133	1
128	135	1
2	128	2
108	123	1
9	30	1
80	105	5
75	104	1
89	138	2
6	26	1
7	112	1
0	10	3
82	101	1
109	113	2
83	135	1
110	118	2
95	98	1
107	109	1
116	120	2
80	87	1
7	17	1
10	37	1
107	120	1
13	31	1
15	17	2
91	111	1
97	138	1
4	121	1
99	104	1
91	138	1
17	21	1
10	25	2
19	85	1
5	7	1
71	73	2
0	23	2
0	19	2
20	33	1
110	115	1
21	71	1
87	89	1
126	131	1
135	139	1
2	13	1
2	36	1
0	80	1
85	89	1
7	11	2
22	29	1
126	135	1
25	28	1
1	4	1
133	135	1
25	91	1
23	27	1
136	139	1
108	117	1
6	21	1
73	116	1
15	25	1
87	103	1
121	131	1
93	120	1
14	91	1
6	138	1
36	139	1
11	23	1
108	118	1
98	101	1
82	132	1
96	110	1
105	108	1
85	93	1
