61	61	11
107	107	8
40	98	3
50	50	1
37	38	4
26	27	1
38	39	3
49	49	9
88	88	11
90	90	7
78	79	4
110	110	12
95	98	6
73	73	13
100	100	15
63	65	1
85	85	5
72	98	4
88	89	6
28	28	11
104	104	9
53	57	2
19	35	4
40	79	2
95	96	9
53	53	7
77	77	8
83	85	1
25	25	4
62	93	1
24	24	5
20	21	1
54	55	4
20	50	2
109	110	7
76	76	3
62	62	5
23	30	3
72	74	2
59	60	3
33	33	2
109	109	11
59	59	13
82	85	4
41	42	1
86	86	10
55	56	3
104	105	4
84	85	10
42	42	5
106	106	6
112	112	5
39	74	1
81	81	7
39	39	9
29	71	6
106	107	1
99	99	4
63	63	4
31	31	9
79	110	3
54	54	4
20	34	3
20	24	7
78	78	6
108	109	5
46	101	1
101	101	3
51	51	5
61	64	2
46	46	7
92	92	4
25	88	4
32	32	7
29	29	11
103	103	5
35	35	4
36	37	2
26	26	5
71	73	1
82	86	2
26	48	1
57	59	5
71	71	2
27	27	4
32	33	3
40	40	6
98	99	6
70	70	6
37	42	1
29	58	1
88	91	3
21	22	6
80	81	5
55	55	7
105	105	3
67	67	5
35	36	1
81	84	4
20	51	1
87	88	2
65	65	6
96	97	2
56	56	5
48	48	8
52	52	2
44	44	4
32	53	2
52	72	1
34	35	5
43	111	2
21	47	1
84	97	2
55	57	4
47	47	2
79	80	1
23	27	2
113	113	2
64	65	2
36	62	3
38	72	2
94	94	4
60	60	2
42	73	5
81	82	3
64	67	1
24	88	2
22	30	2
23	23	6
114	114	4
22	22	6
112	113	5
82	84	3
66	67	1
74	74	6
30	33	5
30	30	11
22	60	1
108	108	10
102	102	4
52	74	1
69	71	3
38	49	3
100	101	3
75	94	2
64	92	6
23	29	1
64	64	3
26	94	2
80	80	1
33	34	1
38	38	2
52	53	1
58	58	5
31	46	1
51	53	1
37	52	1
56	59	3
45	45	4
56	58	3
75	75	4
93	93	1
41	41	3
96	96	5
26	29	1
30	71	4
25	31	3
70	73	1
37	57	4
20	93	2
87	87	6
108	112	2
20	49	2
44	45	1
96	99	2
36	52	2
43	44	2
72	73	1
27	91	1
37	92	1
66	66	4
38	76	2
97	97	8
95	95	6
37	37	4
105	106	1
22	51	1
94	99	1
46	51	2
68	68	4
95	97	1
81	83	4
74	97	3
19	19	1
27	55	1
99	100	1
87	91	1
38	73	1
21	60	2
22	46	1
23	56	1
93	94	2
36	42	2
68	69	1
21	23	1
111	112	2
103	107	1
51	52	3
22	45	1
39	112	1
88	90	2
60	61	2
41	88	2
111	111	4
40	51	1
23	75	1
84	84	3
79	79	1
40	41	1
20	20	4
50	51	1
21	21	2
36	39	2
36	61	1
50	100	1
89	89	1
107	108	1
70	74	2
48	49	1
39	51	1
30	61	1
45	91	1
19	53	1
58	59	2
83	83	2
39	94	1
84	86	1
65	66	1
27	28	2
92	115	2
95	100	1
80	103	2
104	107	1
34	54	2
77	101	2
69	70	1
54	56	1
69	69	1
98	98	3
43	43	1
88	92	3
78	109	1
47	49	1
30	31	1
72	96	1
76	79	1
49	50	1
32	34	1
36	36	2
79	108	1
64	66	1
46	100	1
34	34	1
41	108	1
40	53	1
115	115	1
78	80	1
