13	14	14
99	117	1
74	75	3
124	124	22
75	75	18
90	90	7
112	114	4
76	76	10
9	9	6
19	21	3
120	120	20
92	92	7
113	126	1
16	16	10
139	139	17
133	133	14
126	126	26
134	134	17
78	78	20
105	105	1
110	111	6
6	7	2
111	112	7
92	93	6
127	127	24
33	34	1
84	85	2
95	95	14
19	26	6
135	137	7
115	115	6
37	37	8
29	29	6
134	135	9
109	110	14
33	33	5
117	117	22
4	16	2
121	122	10
135	140	1
3	3	8
104	104	8
72	75	1
27	27	10
122	124	6
106	107	4
88	88	13
14	14	8
45	91	2
122	122	12
12	16	2
132	132	22
102	102	10
89	89	17
18	18	8
20	31	3
14	102	2
130	135	1
87	87	19
120	125	6
98	98	13
133	135	3
93	96	1
35	35	10
121	121	4
129	129	20
135	135	12
73	73	9
85	86	9
12	12	5
112	131	2
28	30	6
91	91	9
5	5	6
16	71	2
131	132	3
138	138	11
125	126	14
72	73	7
82	82	1
115	116	6
110	134	3
118	119	7
119	120	6
6	11	3
136	140	4
118	118	9
114	129	1
83	84	1
30	32	7
36	36	6
6	6	9
137	138	6
113	116	2
4	5	4
130	130	26
71	71	8
29	30	3
131	131	22
99	99	9
120	121	5
105	107	4
22	22	8
113	122	5
80	80	9
72	72	10
101	101	13
119	119	5
132	133	7
140	140	6
105	106	2
101	102	4
23	25	1
97	98	1
107	108	2
120	124	3
89	92	3
4	4	9
76	77	6
116	117	1
2	2	4
108	109	4
4	13	5
113	113	6
91	103	2
73	74	1
77	78	3
80	81	2
136	137	7
75	76	6
137	137	13
124	125	9
36	95	1
93	93	7
112	112	4
109	109	7
134	136	4
116	118	3
134	139	4
25	27	2
38	38	4
100	100	11
129	140	4
30	30	4
15	15	3
111	111	5
0	93	2
100	101	12
135	136	3
27	30	6
125	125	13
113	114	3
128	128	9
1	2	6
96	98	2
77	77	3
110	110	6
36	37	8
135	138	6
17	19	3
116	116	7
72	74	7
17	18	5
5	13	1
34	35	4
74	74	7
111	118	1
19	19	4
34	34	6
89	91	1
139	140	5
79	79	4
105	117	1
17	17	4
140	141	2
83	83	6
113	129	8
112	119	1
103	103	4
119	121	1
86	92	4
21	21	6
118	126	4
126	127	8
2	95	3
117	126	4
137	139	2
20	26	1
21	26	1
32	32	10
109	114	2
114	125	3
123	128	2
4	32	1
71	72	4
120	122	3
126	128	3
118	120	3
123	123	7
13	103	2
16	17	1
35	36	5
117	119	1
85	99	2
127	129	7
84	93	2
25	25	3
22	23	1
85	85	9
14	103	3
114	115	1
32	33	2
100	105	3
24	24	2
91	96	3
29	32	6
84	97	3
73	75	3
114	114	6
136	139	1
89	90	4
86	86	11
16	93	3
128	129	3
1	94	4
86	100	3
20	32	1
138	140	3
96	96	8
136	136	5
3	4	6
1	3	2
90	91	7
28	28	1
98	99	1
99	100	3
130	132	1
31	31	3
92	97	1
27	28	5
130	131	7
90	101	1
138	139	1
74	78	1
108	108	6
113	121	2
109	111	2
119	126	2
114	118	1
13	13	1
75	94	1
26	27	4
13	101	6
111	116	1
11	11	4
114	121	1
37	102	1
112	113	2
106	106	3
88	120	3
125	139	1
108	110	2
116	125	1
95	101	2
28	29	5
86	88	2
101	105	1
95	109	1
112	134	1
7	8	2
82	83	1
107	117	3
125	127	2
94	94	1
3	21	2
131	139	1
78	81	1
112	130	2
1	15	1
0	6	1
37	71	1
112	115	1
22	97	3
1	1	8
11	12	2
102	103	3
12	13	2
8	9	2
80	96	1
27	33	2
0	7	2
129	130	1
94	95	2
80	99	1
10	12	2
97	97	1
21	22	1
109	112	2
5	12	1
112	120	2
7	7	1
80	93	1
81	96	1
79	80	2
95	108	1
8	8	1
87	90	1
90	104	1
123	130	2
85	87	1
6	135	1
86	87	1
132	134	1
126	129	1
90	92	1
126	130	1
119	124	1
14	15	1
36	103	1
15	19	1
