177	177	3
53	53	7
1	1	3
30	32	3
145	145	5
13	14	2
142	142	2
133	133	2
149	150	2
80	80	2
41	42	1
185	185	2
4	7	1
45	45	3
187	187	1
6	6	4
136	137	3
76	76	2
90	90	5
140	140	5
34	35	4
78	78	3
21	21	3
86	86	2
23	23	5
177	178	3
62	62	1
48	48	7
30	31	2
58	63	1
96	97	3
3	74	7
77	82	2
95	109	3
43	43	2
174	174	4
59	59	4
116	116	2
103	105	2
83	84	4
67	67	3
102	102	5
28	28	1
98	116	2
171	171	3
54	54	4
188	188	3
168	168	4
53	54	1
83	83	3
90	120	1
128	128	2
80	81	1
127	127	2
2	2	7
22	23	3
3	3	9
109	110	4
3	6	2
20	21	2
130	137	3
89	90	1
4	6	4
18	22	2
38	38	5
31	34	1
125	126	2
91	93	1
40	40	4
99	99	4
176	176	1
31	32	3
117	119	2
11	19	4
107	109	2
169	170	1
121	121	5
12	13	2
17	19	3
115	115	2
43	68	3
3	5	1
24	25	1
16	18	1
66	70	1
6	7	1
79	128	3
31	35	1
23	77	4
113	113	1
25	25	5
148	169	1
150	154	1
88	88	5
104	104	1
110	111	1
29	29	1
79	80	1
2	7	1
138	138	2
122	125	2
46	71	4
109	146	1
86	95	3
22	24	5
75	75	2
183	183	2
94	94	1
106	116	2
17	35	1
38	40	1
103	103	6
162	162	6
39	39	6
105	105	4
92	92	5
0	1	2
14	14	2
186	186	4
118	118	2
125	125	2
46	58	2
112	112	2
59	60	1
95	108	2
152	152	2
8	8	2
93	94	5
32	32	1
52	53	2
92	93	5
173	174	2
82	82	1
16	24	1
70	70	2
150	150	1
19	19	5
149	149	1
9	10	1
109	109	1
154	154	1
7	7	7
159	159	1
37	37	3
109	115	1
175	176	1
0	37	1
113	118	1
72	74	3
24	24	3
33	33	1
104	105	2
25	26	3
56	56	1
79	79	1
81	81	2
39	41	2
15	42	1
189	190	2
100	105	2
41	41	1
190	190	1
56	57	2
26	26	1
87	87	2
152	154	2
67	69	1
62	63	2
18	18	1
38	39	1
173	182	1
19	21	1
89	89	1
1	2	2
153	153	1
85	90	1
129	157	1
55	55	2
97	98	1
26	29	1
114	127	2
37	47	1
130	130	1
72	73	1
37	38	1
41	46	1
165	165	2
115	117	1
27	27	1
65	66	1
57	57	1
74	74	2
61	61	1
58	60	1
156	156	2
11	12	2
39	40	2
183	184	4
69	69	2
35	35	1
117	118	1
140	141	1
46	48	1
121	126	1
119	119	1
10	11	1
104	123	1
96	111	2
37	39	1
36	38	1
17	17	1
31	31	1
111	115	1
78	90	1
16	16	1
28	29	1
58	58	2
42	42	1
3	73	2
31	33	1
95	114	1
29	31	1
124	124	2
108	108	2
40	42	2
162	163	1
86	88	1
151	151	1
88	89	2
5	5	1
157	157	1
95	95	1
122	122	1
8	20	1
98	105	1
