37	37	18
60	60	13
25	25	14
34	34	31
18	18	12
6	9	7
38	39	4
17	17	16
44	44	36
23	23	17
36	36	20
16	17	10
49	49	32
10	10	15
37	59	4
45	48	4
4	4	14
15	15	14
47	50	10
48	48	34
47	52	2
43	43	32
41	41	11
43	44	9
31	33	2
52	52	12
33	33	17
44	50	2
57	57	12
22	22	7
61	62	8
30	40	4
30	30	12
0	1	3
0	0	14
29	29	9
45	45	26
45	46	10
47	47	37
54	54	11
15	19	7
9	11	3
8	9	4
49	50	23
39	41	5
7	7	11
53	54	6
32	32	28
6	6	10
30	33	3
40	42	5
36	39	5
42	42	12
48	49	3
51	51	13
31	32	11
61	61	18
31	31	23
39	39	41
11	20	2
54	59	3
15	20	4
34	35	7
8	8	10
58	59	6
6	7	8
16	21	3
30	31	10
21	21	9
1	2	1
30	43	3
35	35	24
9	9	2
58	58	4
39	42	6
7	14	4
51	52	1
55	56	6
57	59	3
5	21	4
38	38	20
38	41	4
39	40	2
50	51	8
50	50	23
20	20	11
36	37	8
58	60	5
40	40	3
17	18	5
41	58	2
25	40	6
5	5	18
37	39	10
44	45	5
46	50	4
40	41	5
62	62	18
53	56	3
25	30	2
11	11	4
55	60	4
14	19	2
53	53	12
47	48	5
51	55	2
41	42	8
11	12	4
60	62	5
16	40	3
23	39	2
12	12	3
13	13	7
31	48	4
17	23	3
50	53	2
17	39	5
21	37	3
1	1	8
4	47	2
13	14	5
13	16	2
33	34	3
56	58	3
3	3	9
47	54	1
10	12	4
24	24	10
2	2	4
19	21	2
4	5	1
34	45	2
19	20	1
6	8	2
7	12	2
32	33	10
14	14	3
31	37	4
46	46	5
54	58	3
32	34	4
14	15	2
15	16	2
59	59	10
2	3	1
56	56	5
34	37	1
40	59	3
52	53	1
52	55	2
12	21	2
21	42	1
31	47	2
21	22	5
23	24	1
55	55	3
38	40	1
54	55	8
35	36	2
55	61	3
36	43	2
51	54	4
16	16	2
51	53	1
21	39	3
47	61	1
14	20	2
26	26	1
12	13	2
38	42	1
13	17	3
11	19	1
20	21	2
25	29	2
43	49	1
10	13	1
32	39	2
57	58	1
31	43	1
17	41	2
5	6	1
13	20	1
46	52	2
1	3	1
9	10	2
30	60	2
3	4	1
5	7	1
32	44	1
56	60	1
30	39	1
30	47	1
17	21	2
29	40	1
24	42	1
19	22	1
45	52	1
37	40	1
46	47	2
16	19	1
7	8	1
