47	48	2
133	133	3
54	54	7
99	125	3
50	50	22
56	56	13
30	30	10
42	43	1
2	3	3
5	5	7
131	131	4
60	60	8
52	53	9
41	42	2
26	28	2
51	52	1
113	116	2
80	105	2
33	34	2
102	102	3
94	94	3
10	10	7
120	120	18
77	77	2
72	74	2
121	121	2
87	87	3
103	103	7
25	26	4
105	105	2
0	0	2
124	127	1
58	58	3
130	130	9
99	100	6
93	94	1
48	48	6
27	27	14
28	28	3
115	115	5
14	15	5
108	111	4
64	64	7
33	39	1
98	98	2
85	96	4
11	11	2
96	96	7
122	122	11
62	67	2
127	127	5
20	20	2
44	44	6
3	4	5
17	17	2
29	29	5
3	3	2
38	40	3
92	92	8
69	69	6
104	122	4
4	4	7
53	53	8
85	86	5
26	26	1
67	67	7
24	33	4
55	55	7
76	76	6
66	66	4
112	112	6
86	86	13
32	32	8
125	128	1
46	47	3
9	9	9
114	114	5
91	91	5
8	9	3
48	49	2
79	80	4
18	18	1
45	53	2
38	38	5
68	72	2
78	78	6
101	102	1
43	43	4
19	19	2
125	125	3
15	15	2
94	95	3
88	90	1
68	68	4
72	72	7
88	88	10
40	40	7
78	82	5
97	97	4
25	25	3
66	67	2
77	79	4
2	2	6
62	62	1
83	85	1
30	47	1
84	84	5
7	7	3
23	33	2
13	13	1
118	119	4
19	72	2
108	109	2
61	61	2
13	15	2
61	62	3
57	57	5
1	4	1
92	93	2
126	127	4
110	110	6
41	41	4
58	59	1
100	101	1
57	62	1
30	31	6
124	124	4
117	118	2
86	88	3
59	60	4
116	117	2
130	132	5
6	6	3
22	22	4
104	104	2
123	123	2
83	83	2
129	130	2
21	21	3
82	82	2
130	131	2
59	62	3
15	21	1
129	129	3
79	79	1
73	73	1
38	41	4
65	66	6
6	7	1
25	31	3
123	124	1
63	64	3
87	89	3
38	39	2
82	85	4
113	113	2
8	8	1
16	16	1
57	69	9
33	33	3
97	98	3
27	28	2
106	106	2
68	70	2
63	63	2
13	14	1
114	116	2
39	43	2
105	107	2
102	103	2
43	44	1
46	53	4
93	93	4
79	84	1
10	11	1
95	104	2
99	99	1
90	90	2
1	1	1
6	132	1
31	31	1
102	106	3
126	126	2
27	29	1
37	39	1
17	23	1
80	80	2
46	46	1
52	52	1
108	108	4
54	55	1
101	103	1
89	94	1
45	45	1
11	12	1
50	51	3
9	11	1
88	89	2
112	113	1
17	84	1
100	100	1
71	72	1
42	42	3
115	116	1
9	29	1
14	14	1
58	76	1
12	13	1
127	128	1
7	67	2
6	69	1
106	107	1
126	128	2
39	54	1
28	29	1
43	45	1
29	31	1
2	18	1
109	111	1
28	30	1
131	132	1
20	48	1
19	21	1
65	65	1
101	101	1
80	81	1
97	99	1
