123	123	9
62	83	3
16	16	4
124	124	11
71	71	8
64	151	1
137	137	7
21	21	19
2	2	13
143	143	2
14	15	11
43	43	9
76	76	13
9	10	4
63	63	7
44	45	6
42	42	11
157	157	11
25	25	11
144	145	3
96	96	6
48	49	7
1	112	2
13	15	1
1	1	9
68	68	4
140	140	14
120	120	13
148	148	4
135	135	5
39	40	2
101	101	8
17	17	14
46	56	2
48	48	14
0	10	3
36	98	2
56	56	11
138	142	2
146	147	3
127	127	3
52	52	12
98	98	8
8	8	10
39	41	5
20	21	3
164	164	12
81	81	14
14	14	14
105	105	5
166	167	2
36	36	10
119	119	6
47	48	3
23	58	1
133	133	2
70	155	3
26	53	6
128	128	7
6	14	6
122	122	4
70	79	3
26	26	12
167	168	2
24	25	3
111	111	10
5	6	4
107	107	15
159	159	7
96	124	2
134	134	13
113	113	11
69	69	12
48	50	3
168	168	11
137	142	2
114	116	3
79	79	5
78	79	2
136	136	9
89	89	5
120	121	3
47	47	14
37	37	11
51	51	6
73	74	1
15	16	4
58	58	1
115	116	9
87	87	7
1	145	1
40	40	8
12	12	11
115	115	7
100	114	2
78	91	5
85	85	9
97	97	15
153	154	2
75	82	1
152	153	2
103	105	1
162	162	15
149	149	13
36	56	1
40	41	2
105	106	7
114	114	8
1	10	4
162	163	3
33	33	8
94	97	4
38	38	9
37	38	4
154	154	8
54	54	5
15	15	14
65	68	1
112	114	8
20	20	6
117	117	5
116	125	1
53	54	3
8	57	3
127	166	2
145	146	1
45	45	5
3	3	13
27	50	4
23	23	9
102	102	13
114	128	1
168	169	1
144	144	7
155	155	16
35	35	5
27	27	10
24	24	14
94	94	3
77	77	11
46	46	10
11	11	6
38	39	3
146	146	12
112	112	11
96	125	1
139	159	1
164	165	3
3	113	3
169	169	12
33	35	2
116	116	3
55	55	6
82	82	5
109	109	3
152	152	6
130	130	10
14	19	2
125	127	1
161	161	8
74	82	7
166	166	5
62	96	3
96	97	4
17	41	2
83	85	1
4	16	1
108	128	3
138	138	5
38	41	2
13	13	5
130	164	2
101	105	1
80	81	2
36	47	1
53	53	17
124	126	1
6	6	7
70	81	8
5	5	10
62	62	16
41	41	4
108	161	2
146	167	7
34	111	1
46	47	1
170	170	6
6	42	2
142	142	2
71	72	3
57	80	3
151	151	3
74	74	6
108	109	1
69	70	3
46	76	5
4	5	3
108	108	6
69	88	1
55	56	1
113	114	4
13	45	5
126	127	3
131	132	2
37	42	4
44	44	11
27	28	2
62	162	2
93	94	1
22	46	1
16	19	3
113	132	2
106	108	2
57	62	4
78	78	8
66	66	7
93	93	5
77	78	2
8	9	2
52	112	1
163	163	5
130	154	1
3	164	3
142	144	2
9	9	5
132	132	9
75	127	1
89	90	4
91	91	8
92	93	6
77	79	4
117	120	3
126	126	4
110	110	10
75	75	11
71	79	1
19	19	10
64	128	1
85	104	4
151	157	1
6	15	3
28	28	4
103	103	7
3	10	1
135	137	4
18	18	6
63	65	4
123	124	2
112	144	4
81	86	1
6	7	4
27	51	1
7	7	10
16	41	3
20	161	2
74	94	2
101	103	2
104	104	6
155	156	8
65	66	6
34	34	10
107	110	3
21	34	2
106	106	5
99	99	1
81	84	2
39	39	6
69	163	2
109	111	1
147	147	4
72	72	6
38	40	4
49	49	9
4	20	1
41	52	3
157	158	5
99	102	2
16	28	2
145	145	7
48	54	1
53	56	4
130	132	3
50	50	8
99	101	2
85	97	1
103	104	2
6	9	2
37	75	3
129	129	5
73	94	2
119	120	2
35	55	3
68	69	1
45	46	1
56	88	1
117	118	2
65	65	3
46	80	2
4	9	3
160	160	1
87	100	1
34	55	2
112	149	2
124	125	4
62	87	1
41	48	2
9	166	1
4	4	3
139	140	2
102	104	1
38	126	1
129	139	2
112	113	2
83	83	5
158	158	5
7	8	3
22	48	1
45	58	1
6	8	2
114	136	1
70	71	1
76	77	1
86	86	4
131	131	4
163	169	4
68	71	1
72	80	3
39	77	1
132	133	2
45	56	3
144	167	2
5	19	4
62	64	2
86	105	2
57	57	4
118	121	2
109	110	1
8	49	2
22	24	2
14	20	2
39	80	1
126	129	1
100	100	1
22	35	3
24	35	2
22	23	2
2	64	4
87	114	1
161	163	1
113	145	3
36	126	3
33	34	2
87	101	1
116	119	1
109	113	1
26	27	7
73	73	1
19	22	2
46	77	1
134	135	1
99	100	1
41	49	3
136	139	3
10	48	1
9	159	1
25	38	3
100	102	3
36	37	3
42	43	2
67	68	4
90	97	1
66	67	2
114	115	2
88	89	3
0	162	2
162	169	2
167	167	2
80	80	3
131	167	2
148	165	3
81	85	1
147	151	1
70	70	2
69	162	2
28	38	1
122	124	1
27	39	3
112	145	1
8	10	2
18	20	1
10	10	2
156	156	1
4	144	2
25	50	1
94	96	1
142	158	1
65	117	2
14	94	2
49	53	1
157	163	2
26	41	2
145	167	1
98	103	3
114	130	2
142	152	1
118	118	6
35	36	2
39	70	1
83	96	2
21	63	1
27	40	1
160	161	1
86	101	1
67	121	2
20	23	1
64	64	3
85	86	1
56	57	1
25	49	1
114	123	3
13	44	1
108	114	1
26	40	3
13	14	1
90	91	1
131	151	1
34	88	3
13	16	1
94	161	1
169	170	1
71	78	3
36	55	1
95	95	2
42	109	1
88	96	1
148	149	2
112	142	1
144	146	1
16	50	1
125	126	4
79	80	1
66	68	1
97	102	2
7	12	1
69	78	1
84	85	1
67	67	1
36	42	1
152	156	1
35	47	1
127	165	2
1	2	1
25	80	1
37	43	1
111	112	1
8	48	1
166	168	1
113	157	1
14	39	1
72	73	1
21	64	1
17	18	1
109	120	1
21	22	1
136	137	1
140	144	1
0	1	1
55	143	1
107	108	1
114	131	1
93	95	1
73	93	1
5	7	1
106	107	1
