38	55	1
88	88	10
22	22	9
103	103	13
72	73	10
93	94	9
60	60	15
27	28	1
49	56	10
55	55	7
102	102	5
40	41	3
29	30	6
54	55	3
65	65	13
28	99	3
66	67	8
74	75	6
99	99	8
69	69	17
53	90	2
28	28	6
51	51	16
24	58	1
70	76	1
53	53	15
45	49	7
30	31	3
21	23	3
92	92	16
105	105	13
35	35	10
25	26	2
32	33	12
58	58	18
56	56	12
96	96	13
71	74	2
72	72	8
49	49	13
90	91	1
90	90	13
51	53	1
25	29	1
83	83	12
79	81	2
43	44	5
56	57	6
102	103	8
40	49	5
61	61	15
31	81	2
20	20	7
94	94	26
74	74	12
70	70	7
103	105	2
39	40	7
91	95	1
39	39	18
81	89	2
23	23	9
59	60	6
31	31	15
81	81	13
101	102	3
67	67	10
32	32	4
68	68	14
41	41	7
97	97	13
54	54	8
40	40	21
75	76	4
47	48	4
98	99	3
77	77	8
59	59	12
37	37	2
44	45	1
69	70	4
104	104	4
38	90	1
30	30	9
38	39	8
79	79	4
61	62	5
21	21	14
82	82	3
25	25	12
29	33	2
36	36	15
53	91	2
43	55	4
84	85	6
64	65	1
94	97	5
37	38	6
50	50	7
24	24	3
86	86	2
84	90	4
71	71	5
68	69	6
20	21	6
91	92	6
36	49	1
106	106	3
75	77	2
80	80	4
86	88	3
88	89	1
67	68	1
38	38	6
45	45	8
57	57	6
93	93	4
37	40	2
35	45	5
49	62	1
52	66	3
65	70	3
92	95	1
35	92	4
64	64	7
42	42	5
76	76	14
48	48	10
105	106	1
29	60	1
63	99	4
22	23	1
39	51	2
34	34	7
50	51	3
51	66	1
46	49	5
52	62	1
95	95	2
85	87	2
58	59	4
51	63	2
25	32	3
66	92	4
62	63	7
76	91	3
45	46	2
63	69	1
53	54	4
91	91	6
94	95	2
87	88	8
52	52	3
104	105	6
55	64	1
87	89	2
51	52	3
93	105	1
55	89	1
30	32	2
45	47	2
40	44	2
35	91	3
89	105	1
46	48	2
51	65	3
65	92	2
47	47	4
27	29	2
79	89	1
26	27	2
67	92	3
76	77	4
46	46	5
63	64	1
47	49	2
82	84	2
40	48	1
70	72	1
37	75	1
85	86	5
93	104	2
73	74	3
89	90	2
25	102	2
67	73	1
38	51	6
71	72	5
73	73	7
78	79	2
101	101	3
90	94	1
65	67	1
66	66	6
87	97	3
35	66	2
100	103	1
68	80	2
42	43	2
78	78	3
93	96	1
55	58	1
26	61	1
27	27	3
79	80	3
87	87	2
53	55	2
52	53	2
63	63	4
36	37	4
55	56	2
66	91	1
31	68	1
57	58	3
34	42	2
26	30	1
37	39	2
106	107	1
40	42	2
28	30	3
31	32	3
29	29	2
35	49	1
31	62	2
55	84	1
40	55	1
98	98	3
76	92	1
65	66	1
34	80	1
80	81	3
72	74	2
33	33	7
28	33	1
100	100	2
34	35	2
61	99	4
33	34	2
100	102	1
58	60	1
75	91	1
99	106	1
56	59	1
83	85	1
86	87	1
56	81	2
52	58	1
97	99	3
61	63	1
49	63	2
75	75	3
55	76	1
103	104	1
20	23	1
42	50	1
27	30	1
89	89	1
62	62	4
44	44	3
50	64	2
90	93	1
86	89	1
77	78	1
95	96	1
92	94	1
26	97	1
49	50	1
72	76	1
53	74	1
33	35	1
56	62	1
21	22	1
75	78	2
34	40	1
87	98	1
101	106	1
25	28	1
43	43	1
97	98	1
36	38	1
66	70	1
78	81	1
34	45	1
56	95	1
40	45	1
52	90	2
84	84	1
35	36	1
32	34	1
28	35	1
33	91	1
70	71	2
85	95	1
46	47	1
41	42	1
