23	23	2
29	79	4
76	76	6
21	21	6
122	122	8
45	46	5
28	29	1
7	65	2
15	15	1
3	3	1
68	68	3
14	16	1
64	64	4
113	120	1
19	19	10
81	81	6
95	95	3
36	36	9
80	80	13
29	29	4
46	46	7
105	108	2
106	132	2
18	18	9
84	87	3
94	94	3
76	77	1
96	101	1
26	78	1
77	77	7
63	75	1
83	90	2
4	99	2
20	20	6
33	34	2
3	23	3
8	8	6
35	57	1
31	31	1
13	14	5
36	59	2
13	20	3
91	91	3
82	83	4
11	13	6
51	74	4
81	82	3
17	17	11
36	37	2
83	93	7
127	127	3
133	133	2
123	124	1
57	129	5
27	67	2
7	85	6
79	79	1
77	78	7
14	14	7
106	131	3
6	6	3
38	38	3
13	15	2
10	10	7
131	132	6
47	47	3
103	104	2
73	73	4
128	128	3
66	66	7
31	32	7
81	83	1
7	66	2
98	111	3
32	32	4
107	107	4
65	65	9
111	117	2
99	99	5
98	98	6
30	31	1
16	16	7
86	86	7
108	129	3
17	60	1
105	106	3
14	104	6
26	26	8
43	44	2
36	44	3
115	115	3
28	28	3
61	77	3
118	118	1
12	12	5
5	6	2
22	22	3
41	60	1
116	117	1
84	103	1
33	33	1
110	110	5
61	61	4
67	67	3
11	11	3
63	64	2
9	46	2
45	45	6
129	129	2
89	89	3
132	132	1
48	49	3
48	48	3
6	23	2
106	110	4
56	57	2
87	87	5
59	89	2
88	88	4
109	133	1
75	75	3
103	103	2
82	102	1
36	78	2
11	93	3
85	85	6
9	9	2
80	101	2
101	101	1
65	85	3
45	75	2
44	45	2
60	60	1
31	81	2
107	109	2
81	101	2
71	71	2
74	74	1
25	25	1
110	134	1
117	117	4
100	100	1
30	41	1
65	102	4
93	93	7
117	118	5
5	5	4
124	125	3
60	61	2
0	0	5
7	8	2
72	72	2
37	37	4
86	88	1
63	63	1
72	73	1
76	91	1
109	109	3
102	121	1
42	42	1
10	19	2
92	93	2
13	13	3
1	64	1
75	76	1
83	83	5
24	38	1
82	82	4
37	59	2
128	130	2
41	41	1
50	50	1
78	78	2
83	96	2
36	56	1
112	112	1
112	115	1
102	103	1
96	96	2
123	123	1
102	102	1
113	114	2
8	9	2
55	56	1
97	99	2
62	73	2
28	98	2
68	70	1
41	77	1
69	71	1
86	87	1
103	110	1
70	70	1
2	31	3
108	108	3
87	88	1
87	92	1
134	134	1
85	86	4
92	92	2
73	74	1
29	61	2
44	44	2
114	114	1
36	41	3
43	43	3
104	104	1
5	48	2
105	107	1
7	7	2
88	89	2
128	129	2
45	48	1
37	38	2
111	134	1
106	106	3
119	121	1
78	79	1
1	1	1
34	34	1
120	120	1
5	7	1
50	55	1
4	4	2
49	49	1
119	119	1
90	120	1
29	58	1
105	105	1
45	72	1
91	112	1
82	105	1
121	121	1
127	132	1
40	41	1
25	47	1
41	43	1
30	58	1
39	78	1
115	120	1
4	5	1
6	56	1
123	129	1
57	57	1
7	14	1
