54	134	2
122	122	5
143	143	10
13	15	6
97	99	5
78	95	5
32	33	10
26	31	8
103	103	9
154	154	8
174	180	4
58	59	3
124	124	2
133	144	2
57	127	2
23	31	3
47	47	8
22	25	2
67	82	5
22	23	2
100	101	2
56	57	10
23	30	5
96	96	1
102	102	2
21	21	3
65	65	15
112	112	2
120	120	1
82	83	4
62	63	4
130	130	1
109	109	8
142	142	2
65	86	2
64	65	3
42	42	9
61	61	4
158	158	5
175	175	2
161	163	4
82	82	3
135	163	1
34	34	4
132	132	2
65	66	3
55	55	5
126	126	6
129	129	12
149	149	10
151	153	3
108	108	4
147	148	2
11	15	2
163	163	3
77	77	6
47	70	2
142	143	2
11	42	2
16	26	4
3	4	5
136	136	4
147	147	3
165	165	1
145	145	4
155	155	2
6	41	5
70	70	1
76	100	1
80	82	1
46	46	5
38	38	6
144	144	3
117	133	1
102	103	7
119	130	2
17	20	1
142	168	3
57	57	3
14	14	1
40	40	6
18	18	3
7	7	4
85	85	11
63	132	4
119	120	2
130	143	2
85	86	2
133	133	3
136	137	4
173	173	2
171	172	7
90	91	4
123	123	7
27	28	2
25	27	2
184	185	1
174	175	6
8	42	2
110	110	3
3	3	7
182	182	3
63	63	2
38	46	1
58	58	5
23	23	5
28	28	7
168	189	2
29	29	4
148	149	2
169	169	5
177	188	1
10	10	1
15	26	2
171	171	3
43	44	1
89	90	2
106	137	1
157	157	2
136	139	3
88	173	3
45	47	2
18	19	2
86	86	3
139	139	1
54	54	4
93	93	9
64	131	1
24	24	2
107	133	2
100	100	2
119	126	2
82	85	2
59	59	7
156	156	3
29	30	1
53	116	5
56	65	3
6	6	1
76	76	2
5	5	7
173	183	2
73	74	4
137	137	2
183	183	1
124	125	2
162	188	3
159	159	3
68	73	3
119	119	7
188	188	3
97	97	5
186	186	2
48	48	4
55	57	2
14	15	1
128	128	3
148	165	1
60	72	2
148	148	2
28	30	2
122	123	3
3	17	3
88	89	2
15	15	2
68	68	3
26	26	7
176	186	2
0	0	2
134	134	4
30	30	1
79	79	2
22	22	3
172	173	2
37	37	5
30	46	1
94	94	2
54	58	1
16	19	1
78	79	2
116	116	4
106	107	2
154	155	4
109	110	3
25	47	1
90	95	1
121	121	3
4	5	4
127	128	1
5	20	2
56	67	1
2	42	1
114	115	1
78	82	2
131	131	4
161	161	3
147	159	1
131	133	2
8	11	3
66	68	3
59	101	1
24	75	1
176	176	3
109	115	1
63	94	4
83	83	4
21	44	2
130	131	3
125	126	2
10	22	3
55	71	2
31	31	3
8	16	1
74	74	5
53	62	1
138	139	5
149	164	1
139	150	1
30	32	1
80	85	1
11	37	2
156	157	2
71	72	1
88	88	2
180	180	6
35	35	3
47	48	2
107	107	1
153	183	1
94	98	3
68	72	1
98	98	5
13	13	2
2	3	1
7	40	1
137	138	1
173	175	1
89	89	4
55	120	1
141	141	3
58	98	1
177	177	3
27	27	1
106	106	2
155	156	2
84	84	2
78	78	3
36	44	2
146	146	1
149	151	2
71	71	2
66	66	1
109	127	1
189	189	4
75	75	2
118	137	3
11	16	1
24	98	1
160	160	1
82	95	1
73	73	2
9	9	2
78	83	2
20	21	1
74	75	1
125	125	1
80	80	1
115	115	1
13	14	1
162	162	2
163	165	1
4	74	1
186	187	1
47	84	2
140	140	2
98	114	1
111	112	1
91	91	1
78	80	1
134	135	1
15	40	1
72	105	1
169	170	1
31	32	1
101	101	1
38	39	1
24	48	2
107	131	1
153	153	1
96	97	1
64	68	1
45	48	1
