19	19	15
80	119	3
134	134	30
30	31	3
73	76	6
127	127	34
9	10	5
110	112	1
112	113	15
137	137	13
6	12	8
32	32	9
13	27	3
31	31	29
111	111	15
120	121	14
104	104	21
11	24	4
124	124	22
121	122	15
83	83	10
20	20	22
5	13	3
89	89	20
73	73	18
80	116	1
118	118	19
108	109	14
105	110	1
9	9	6
33	33	15
81	81	6
131	131	38
114	114	16
34	34	37
137	138	13
13	22	2
11	13	8
79	79	15
72	76	7
120	123	1
93	128	2
133	133	19
15	17	6
78	78	14
88	88	17
118	120	6
99	99	14
71	71	15
103	115	2
4	4	22
12	12	11
115	115	20
79	80	7
139	139	18
101	102	20
134	135	13
23	23	16
116	119	2
2	3	8
85	88	4
5	14	4
15	15	7
133	134	6
26	27	3
112	112	14
3	3	25
78	79	10
128	128	26
101	101	21
87	87	20
7	8	11
35	35	22
75	76	17
30	30	24
36	36	10
74	74	23
4	18	2
79	83	4
85	86	16
0	0	19
119	122	9
14	14	12
91	91	16
86	86	15
125	125	21
103	103	23
80	80	4
118	122	3
37	37	18
126	127	2
110	110	22
120	120	13
106	106	12
25	25	5
102	102	15
5	6	6
27	27	10
123	124	26
95	129	2
93	94	10
7	7	14
12	14	7
11	11	15
107	109	5
98	98	13
107	107	14
76	76	18
72	72	9
122	122	42
138	138	30
119	119	23
103	105	2
117	117	22
105	111	6
121	121	15
123	123	21
86	106	2
19	20	8
96	130	3
2	29	7
103	104	6
12	13	10
116	121	2
95	96	11
29	29	12
16	16	14
116	120	4
13	14	18
138	139	9
105	109	2
115	117	1
24	24	12
96	96	18
27	29	15
25	26	9
12	30	2
17	20	5
114	115	11
114	120	3
21	21	17
125	130	6
75	124	3
127	128	25
37	38	14
81	82	15
72	73	4
17	17	14
104	105	6
126	126	21
87	122	2
102	104	1
28	30	1
86	88	3
10	11	5
109	109	10
130	130	24
23	25	3
10	10	10
80	81	6
91	92	4
94	95	1
71	100	1
99	100	3
110	111	12
1	1	22
26	26	9
13	15	2
73	74	5
29	32	3
71	120	3
77	82	3
133	135	2
99	125	1
97	98	9
36	37	8
84	84	14
28	32	3
132	132	37
87	123	2
120	122	4
11	12	4
3	4	6
92	93	6
93	93	11
117	118	6
15	16	3
30	32	9
18	18	10
8	8	5
28	28	19
135	138	5
108	110	5
22	23	28
114	119	1
86	123	3
18	19	3
8	9	3
135	135	12
103	119	3
85	87	4
94	94	5
75	75	2
13	13	19
116	116	13
115	116	2
105	105	7
1	2	7
113	121	4
35	127	3
109	113	1
90	90	13
119	123	3
126	130	2
128	129	16
129	129	20
5	5	8
111	123	3
140	140	12
89	90	2
113	114	2
95	95	9
31	32	12
71	72	6
132	133	7
73	75	6
87	92	2
116	127	3
90	91	8
28	29	6
136	136	8
17	18	7
6	7	2
73	82	4
91	127	1
124	125	6
74	77	3
97	97	10
81	84	1
82	83	8
6	14	1
91	125	1
74	76	4
131	132	10
96	98	2
108	111	6
102	103	2
5	27	2
92	92	6
119	120	5
38	38	6
82	84	1
104	112	3
11	31	3
16	18	3
85	93	3
118	119	7
6	6	9
22	22	5
85	85	5
113	113	8
79	82	5
2	2	7
82	82	4
113	116	1
19	24	3
117	120	2
98	99	3
111	131	2
2	7	7
37	46	1
112	123	4
34	35	6
130	134	4
21	22	4
109	112	3
2	4	2
122	123	4
126	128	1
5	29	1
104	109	1
114	116	2
130	131	2
0	1	4
72	78	2
117	121	1
77	81	4
71	119	2
7	16	1
22	27	5
115	124	2
32	33	7
77	77	14
18	20	3
7	12	1
28	31	2
135	136	5
0	5	1
88	126	2
108	108	9
35	36	4
25	27	6
100	100	9
16	17	1
76	116	2
117	122	2
73	78	2
73	81	1
19	21	2
124	132	1
139	140	3
14	16	4
17	22	1
21	30	1
11	76	1
111	112	3
28	33	3
102	110	6
92	98	1
75	116	1
13	31	1
84	86	1
107	110	2
97	99	4
71	89	3
94	127	3
117	130	1
140	141	1
89	91	3
78	81	1
27	28	8
32	34	1
118	123	3
88	100	1
129	131	3
116	117	8
129	130	5
100	110	2
136	138	4
125	126	4
98	102	3
134	138	1
108	114	1
31	33	1
79	118	1
88	89	2
141	141	2
113	123	2
33	34	5
24	26	2
21	23	1
127	130	1
25	28	1
117	119	4
131	133	1
104	106	1
98	103	3
85	122	2
2	5	5
28	36	3
72	126	1
3	30	2
90	92	2
109	116	1
108	117	2
79	117	2
74	75	2
126	138	1
27	82	1
87	90	1
72	88	2
14	22	1
113	115	1
109	111	4
80	118	2
3	18	1
0	2	2
78	85	1
111	118	2
0	30	3
99	102	2
131	139	1
99	128	1
29	31	4
75	77	2
20	26	1
71	95	1
125	127	1
29	76	2
124	126	1
134	136	1
135	137	1
123	126	4
110	119	3
35	37	1
24	29	2
29	30	4
12	23	1
79	104	1
3	5	2
100	101	2
1	32	1
10	12	1
38	39	1
14	32	3
108	116	1
32	36	1
36	38	2
24	25	1
130	135	1
71	124	1
16	20	1
1	5	1
14	30	1
33	127	1
29	33	1
3	6	1
106	107	1
107	118	1
16	19	1
19	22	2
136	137	1
7	19	1
97	100	1
103	120	2
7	14	1
23	30	1
71	73	1
77	113	1
23	26	1
1	3	2
112	114	1
107	108	2
104	107	1
112	116	1
0	4	1
91	94	2
112	115	1
84	87	1
80	84	1
74	81	1
78	84	1
27	32	1
82	86	1
131	134	1
23	24	1
76	84	1
72	130	1
116	118	1
37	42	1
79	116	1
