153	153	16
75	75	1
143	147	1
11	12	5
5	21	1
102	103	6
46	46	7
124	124	9
74	74	2
36	36	7
95	150	1
145	145	7
33	33	8
17	20	2
28	30	1
96	97	6
185	185	1
18	24	1
125	126	4
93	93	7
138	138	5
40	40	12
42	45	1
184	184	3
134	135	5
96	96	5
0	0	8
117	117	6
99	99	9
152	153	2
135	150	1
100	102	5
48	48	11
149	149	3
60	114	4
58	59	4
77	79	4
53	53	9
166	166	5
79	79	7
95	95	9
149	150	4
20	20	14
179	180	4
118	129	4
82	82	6
92	92	3
122	132	1
1	1	4
18	18	13
125	125	8
56	56	11
109	109	4
38	38	6
31	33	1
70	71	2
95	96	4
113	113	7
41	42	3
151	151	12
23	28	1
177	177	3
77	77	3
119	120	2
90	90	14
121	121	5
30	105	5
32	33	3
97	98	6
104	104	7
156	156	9
147	147	12
120	120	3
65	97	3
15	15	7
43	43	5
174	175	3
37	37	5
165	165	11
74	98	4
35	35	9
22	60	2
160	160	3
17	17	7
53	81	1
36	37	4
18	30	2
3	7	3
0	18	1
39	39	10
71	71	15
55	56	3
126	126	4
8	9	1
143	143	9
82	83	5
32	32	4
84	84	10
19	20	1
16	16	4
109	122	3
40	48	3
189	189	3
81	81	4
78	140	2
62	62	3
112	112	4
132	135	1
130	130	6
26	45	3
131	133	2
9	9	5
179	179	9
3	4	3
150	150	10
183	183	8
88	88	8
52	52	3
144	144	11
118	131	3
14	14	18
118	124	1
156	157	4
137	137	11
109	110	1
65	65	8
68	68	16
106	107	4
89	90	5
79	80	7
173	173	6
73	73	8
117	125	2
57	96	2
47	105	2
59	63	1
2	4	3
10	10	15
131	132	4
57	57	5
28	28	4
103	103	4
121	177	3
141	141	7
78	80	1
106	106	8
62	63	6
116	117	2
132	132	3
40	41	1
159	159	4
4	4	7
111	111	7
63	66	1
108	112	1
27	27	2
115	115	1
23	23	4
148	148	7
167	168	9
123	128	2
164	164	7
26	28	5
66	67	1
137	180	2
102	102	7
34	35	4
67	67	13
124	125	4
157	157	4
56	140	1
155	155	6
94	106	1
80	83	4
60	118	3
116	116	9
42	42	4
78	86	2
151	186	1
163	163	8
16	22	2
76	76	6
68	71	1
129	146	3
70	70	3
55	79	1
140	140	7
155	161	2
167	167	2
64	65	6
63	111	4
10	12	3
83	83	6
60	60	6
2	44	5
47	47	6
134	134	10
134	175	1
115	116	2
100	100	3
91	92	3
181	182	1
83	96	2
118	122	2
1	7	4
129	137	1
72	72	10
12	12	4
163	165	5
55	169	1
132	133	1
149	151	3
127	127	7
120	124	3
112	131	1
146	184	2
171	172	2
5	10	2
6	10	2
80	80	5
110	110	7
77	78	3
22	22	8
70	73	1
7	48	2
185	186	6
182	182	3
172	172	2
1	34	1
85	117	1
108	109	2
29	30	7
64	64	8
175	181	1
86	86	7
45	45	8
129	144	1
91	95	3
101	102	3
89	89	12
8	54	2
0	8	1
122	123	5
66	66	5
130	133	1
27	42	1
111	116	4
155	156	1
3	8	4
4	24	1
170	170	2
186	186	3
124	127	2
152	152	9
65	67	6
64	96	2
71	121	2
68	119	3
188	188	4
158	162	4
121	122	1
113	115	2
90	128	1
141	156	1
134	136	3
154	154	10
143	144	5
37	45	2
83	146	3
31	31	2
19	53	3
65	113	2
135	137	3
181	181	9
110	124	4
116	120	1
174	174	2
30	30	3
129	129	5
22	81	2
63	63	4
157	162	1
8	8	5
87	87	7
4	27	2
31	41	2
120	136	1
57	66	1
85	85	6
107	107	3
162	162	7
26	26	1
99	100	6
127	128	2
111	112	2
129	130	3
60	63	1
94	150	3
135	135	10
55	118	2
131	137	1
127	129	1
169	169	5
144	175	2
131	131	8
158	158	9
58	58	7
94	94	11
119	119	3
17	18	2
13	14	3
150	186	4
37	38	2
136	136	5
59	64	3
146	146	3
175	175	1
119	124	1
118	118	3
171	171	4
169	172	1
63	149	1
137	138	4
105	105	4
78	88	1
7	9	3
25	25	4
44	48	2
144	147	1
70	82	6
80	82	4
20	21	3
34	34	1
45	46	1
129	150	1
141	144	1
160	180	1
19	19	3
7	7	8
13	13	1
67	89	1
62	82	3
55	70	1
162	163	4
76	77	1
146	147	2
84	85	3
20	22	1
169	170	5
130	131	5
145	184	1
26	42	2
61	63	4
153	154	2
114	114	3
54	56	2
14	15	3
41	41	10
108	156	1
62	155	1
136	139	2
179	182	1
128	128	4
110	111	3
64	112	2
75	76	1
23	24	1
48	79	1
5	5	2
57	169	1
43	44	3
10	11	1
107	109	1
61	87	2
122	122	2
114	115	1
82	85	1
142	142	3
0	55	3
23	25	1
133	133	8
57	93	1
139	145	2
58	63	1
44	44	3
101	101	5
68	131	2
61	61	4
98	98	3
21	22	4
6	6	4
132	148	1
9	10	3
73	104	1
39	126	1
85	154	1
62	64	2
59	85	1
184	185	3
52	117	2
140	141	2
86	87	2
57	182	1
12	13	1
97	107	1
23	30	1
33	34	1
157	158	1
164	165	3
15	53	3
74	97	1
129	131	3
61	69	1
34	48	1
139	175	1
57	64	1
11	32	1
144	146	1
11	42	1
72	97	1
63	64	1
128	129	2
10	13	1
155	181	2
168	190	3
24	25	1
64	82	1
25	125	1
141	142	1
114	123	2
52	59	2
142	143	3
26	47	2
14	17	2
117	121	1
104	106	1
91	91	1
152	162	1
133	134	3
97	99	1
57	84	1
39	41	1
83	86	3
117	118	1
112	147	1
108	108	1
97	97	1
187	187	3
105	148	2
170	175	1
21	21	2
133	136	2
20	94	1
78	78	1
15	16	1
75	96	1
32	35	2
147	149	1
136	149	1
76	94	1
189	190	1
11	20	1
84	86	1
19	135	2
4	13	1
161	161	1
123	130	3
112	114	2
1	14	1
68	98	1
104	117	1
116	124	1
148	151	2
110	129	1
40	123	1
59	59	2
27	28	1
68	129	1
36	132	1
29	29	2
6	7	1
65	89	1
72	74	3
0	4	1
161	162	2
15	54	2
168	168	2
34	80	1
69	83	1
67	82	1
53	54	1
162	180	1
26	123	2
44	47	1
97	110	1
41	120	1
76	79	1
21	23	1
132	147	1
9	85	1
176	179	1
92	95	1
61	64	1
126	127	1
129	139	1
135	136	1
133	135	1
87	88	1
127	130	2
85	86	1
84	140	1
40	138	1
103	106	1
54	54	1
57	58	1
36	122	1
0	14	1
160	176	1
65	150	2
35	36	1
53	56	1
161	167	1
65	96	1
136	137	1
116	119	1
78	79	1
59	155	1
124	128	1
123	123	1
60	65	1
69	69	1
106	139	1
2	2	1
54	188	1
132	136	1
139	144	1
85	142	1
