11	12	27
115	115	19
142	142	44
95	95	33
85	93	1
126	135	3
157	157	27
86	86	16
79	80	2
8	8	26
7	8	15
90	90	24
16	111	2
37	37	52
110	111	10
8	12	6
170	170	31
32	32	44
14	14	89
180	180	6
38	38	67
90	91	16
28	29	16
40	41	16
43	43	51
35	71	2
86	87	12
112	112	36
17	30	2
111	111	36
0	1	9
63	63	12
97	97	22
92	93	10
56	56	27
130	130	27
107	131	1
65	65	25
14	18	2
54	54	29
153	153	44
55	55	33
39	39	51
143	143	36
114	114	16
141	143	7
117	117	9
127	127	14
148	148	43
20	21	21
59	59	29
10	10	81
33	34	12
36	36	58
24	28	3
81	90	2
154	157	6
58	58	31
85	86	14
1	2	15
136	136	42
139	139	23
7	7	26
116	116	23
167	172	3
121	121	27
29	29	35
92	92	26
167	168	29
178	178	18
154	154	33
146	146	30
84	87	1
14	40	1
38	40	3
132	150	1
39	44	2
3	14	1
7	9	12
102	103	2
124	124	13
154	180	4
89	89	22
24	24	26
36	37	6
119	120	5
175	175	13
64	76	1
5	5	21
19	21	4
30	31	11
137	137	24
31	31	58
10	58	2
147	147	39
29	30	18
10	11	34
39	40	30
120	122	1
164	164	18
152	152	12
159	159	21
64	64	30
148	149	12
132	133	16
1	1	35
88	90	5
16	16	54
21	21	33
16	17	34
77	78	4
11	13	11
9	13	6
115	116	10
93	94	10
38	43	1
35	35	51
36	42	7
8	9	25
62	63	3
78	79	6
10	31	5
133	133	31
13	13	67
15	16	39
118	118	32
4	6	7
107	107	14
131	131	24
84	85	14
85	113	2
25	25	32
63	65	3
140	140	42
27	27	26
152	153	7
56	57	8
173	174	15
85	85	8
33	33	60
89	90	4
144	144	13
103	104	7
137	158	1
110	129	2
135	141	1
107	108	4
150	150	31
74	74	17
13	14	15
34	38	5
71	71	22
67	67	23
30	142	1
2	2	24
71	72	18
129	129	19
151	151	24
160	160	14
9	9	42
30	30	31
72	73	4
10	16	4
57	57	11
135	135	44
113	114	3
4	9	3
66	67	9
41	41	27
107	110	3
11	11	53
55	56	10
174	174	18
17	54	2
176	176	27
126	127	7
88	88	20
127	154	5
14	15	24
5	7	10
76	78	6
14	61	7
137	138	15
22	22	40
109	109	7
75	75	14
25	27	13
3	4	29
20	20	22
110	130	4
139	140	7
25	26	16
141	141	33
172	172	26
14	32	2
10	32	4
57	90	1
23	23	31
73	75	5
0	10	4
123	124	9
108	108	23
175	176	13
2	4	12
126	136	2
16	21	3
32	58	5
60	60	10
178	179	26
18	19	24
40	40	37
106	109	3
65	168	1
15	15	52
161	165	5
26	27	6
114	115	5
143	145	6
153	180	6
62	62	9
23	25	10
128	128	9
99	100	5
131	132	7
6	6	47
179	179	32
154	155	12
105	106	11
166	166	13
17	18	11
77	77	16
126	126	14
15	37	4
17	17	72
33	35	11
166	167	18
93	93	18
111	113	3
2	8	11
11	14	5
96	111	3
113	113	20
156	156	21
3	24	1
72	99	1
12	62	2
39	42	5
38	93	4
145	146	8
95	96	15
0	0	27
110	110	21
158	166	4
4	10	1
17	60	9
81	81	6
158	162	3
52	52	26
23	26	2
73	74	8
6	7	13
28	28	20
4	4	32
134	134	20
3	3	28
151	153	8
57	59	5
114	122	1
162	164	4
116	118	5
154	156	2
17	112	3
73	73	10
136	137	10
42	42	33
15	53	5
26	26	44
92	124	3
62	97	1
99	99	12
77	88	4
66	66	29
83	83	10
158	161	2
101	101	9
134	139	8
120	146	5
85	132	5
153	154	15
76	76	26
19	20	12
119	121	6
88	126	1
162	162	9
43	44	20
27	30	5
123	123	21
144	145	16
24	25	20
146	150	3
125	125	21
53	54	6
158	158	26
72	72	23
133	167	1
1	4	4
32	93	2
159	160	6
147	153	2
156	158	2
34	34	24
58	77	3
94	94	21
14	38	6
163	163	11
4	7	6
171	172	15
101	117	2
155	156	7
8	10	6
4	20	3
4	8	8
72	77	4
3	15	3
100	101	6
106	122	2
147	170	5
87	88	3
149	151	4
9	18	6
165	168	4
129	135	2
50	50	13
149	149	18
147	148	28
76	77	7
8	11	8
21	22	10
152	159	3
83	86	2
97	98	10
145	145	19
64	65	8
77	95	3
169	169	23
155	173	1
142	143	20
37	40	2
51	65	2
38	39	23
32	33	19
162	174	2
11	16	2
98	99	9
168	168	30
76	96	1
9	30	2
53	53	30
83	84	9
21	23	2
173	173	24
5	50	2
31	38	4
109	114	2
27	28	12
92	94	3
11	15	5
165	165	9
16	18	10
65	66	13
150	151	9
45	45	5
121	122	7
73	77	7
15	61	2
29	32	10
36	56	2
95	111	3
42	43	12
122	125	4
128	178	1
116	117	9
20	27	2
106	106	16
155	155	4
36	77	1
155	158	1
129	136	5
38	42	3
12	12	33
118	122	6
158	168	2
44	44	39
9	14	4
119	119	21
64	74	1
5	6	22
34	35	13
85	108	1
170	171	10
98	98	2
41	42	12
37	38	17
91	91	16
33	108	1
28	30	2
94	123	3
80	81	4
103	103	15
22	37	1
98	111	3
33	124	2
33	44	2
127	179	1
124	125	15
159	161	4
9	31	4
22	23	16
9	11	7
61	62	5
40	43	1
54	55	5
31	32	13
59	60	6
33	43	1
138	138	35
67	68	10
177	178	9
72	106	3
160	162	3
18	18	29
121	126	1
26	28	8
94	112	2
122	122	25
172	173	7
40	42	7
101	102	4
135	136	8
75	76	3
3	5	4
27	29	1
171	171	23
157	158	8
96	96	15
36	38	10
168	170	2
105	105	9
100	100	7
114	125	4
19	25	2
115	119	3
3	6	10
21	35	1
24	26	12
83	113	3
23	54	2
3	7	5
41	44	6
11	23	2
15	54	1
20	96	2
52	53	17
135	154	8
9	32	4
1	10	4
31	109	1
82	82	18
35	60	6
173	175	4
120	120	11
29	90	1
104	107	4
167	167	24
29	31	1
162	163	9
6	8	1
22	27	10
15	42	2
21	38	1
148	171	1
131	148	2
165	166	3
103	105	10
7	10	9
3	31	2
75	98	2
88	89	5
96	97	3
32	34	4
84	84	2
23	28	3
51	52	9
45	46	5
23	24	12
68	68	15
2	15	3
15	38	2
50	51	5
2	3	8
133	136	2
14	37	5
44	45	14
10	38	2
65	75	4
0	6	3
17	24	1
96	98	4
3	8	8
95	112	1
12	13	16
101	103	2
90	127	1
34	37	1
151	152	13
3	9	5
58	59	11
129	130	3
35	44	5
153	156	3
84	121	3
2	20	1
134	136	5
118	120	2
1	6	2
141	142	13
132	132	20
150	152	3
18	26	6
85	134	1
36	40	2
13	63	2
63	64	2
95	108	2
32	108	3
78	78	16
2	5	8
51	51	10
154	173	1
64	66	3
142	144	1
158	159	13
54	64	3
26	36	3
16	58	2
137	175	2
75	78	3
104	114	2
168	169	3
57	58	3
24	42	2
94	95	7
77	96	1
109	110	10
62	64	1
2	6	2
160	161	3
120	121	6
161	161	23
70	71	3
80	80	16
122	148	3
55	71	1
65	71	1
32	40	2
14	28	2
59	77	1
91	100	1
53	56	3
22	26	2
19	19	12
104	104	4
103	110	3
15	28	2
37	41	2
11	61	1
94	122	4
154	177	1
61	61	7
5	16	1
25	43	8
134	140	2
173	176	5
15	52	3
168	171	1
159	166	1
35	41	4
85	106	7
87	103	3
104	106	4
74	78	3
102	102	6
3	45	4
49	50	1
143	144	5
12	28	2
177	177	12
83	94	1
72	91	1
14	78	1
115	117	1
142	145	2
13	31	3
93	113	1
84	134	6
27	43	3
135	179	3
143	146	4
57	78	3
142	146	4
5	11	1
1	17	1
22	38	4
42	172	2
104	108	2
2	13	1
3	13	1
0	3	3
16	19	4
9	17	1
52	54	6
148	154	3
134	135	5
13	15	6
61	71	2
88	125	3
18	25	2
156	157	5
108	110	2
49	51	3
131	134	3
131	149	3
133	137	4
4	5	13
12	15	2
54	65	2
141	145	1
11	18	1
157	159	2
34	36	5
164	165	4
94	121	2
31	33	3
127	131	2
38	57	1
61	63	2
126	154	1
63	72	4
31	82	3
35	37	2
9	10	13
32	41	5
55	59	2
65	67	4
0	2	4
7	19	1
5	9	5
171	176	1
31	88	1
148	150	1
15	19	2
162	166	2
131	135	4
152	155	1
71	97	3
129	150	1
153	157	5
170	173	1
27	163	1
110	131	2
60	61	8
140	141	6
127	128	9
90	93	2
39	41	3
32	36	2
119	122	5
108	109	5
93	103	2
38	41	2
99	111	1
106	114	4
79	79	12
41	43	3
25	33	2
24	31	3
14	16	6
170	174	1
33	41	3
91	94	3
54	58	2
2	14	4
17	59	2
118	125	3
86	128	1
115	131	1
15	17	4
10	28	1
54	56	2
147	150	2
117	122	3
96	133	1
130	131	2
33	37	2
94	125	2
64	72	3
140	143	2
10	93	1
61	72	4
16	54	3
121	143	1
55	58	3
153	159	1
158	167	5
5	10	4
100	102	3
35	42	3
22	24	4
28	42	1
10	51	1
49	53	3
139	141	1
171	178	3
57	60	1
91	92	5
42	45	1
113	121	3
98	102	2
55	57	2
10	111	2
145	170	1
130	132	1
18	60	4
100	110	2
7	13	2
16	20	1
2	99	2
92	116	3
36	57	7
94	96	2
32	94	5
83	90	3
117	118	4
79	90	1
110	113	2
146	147	4
1	5	1
83	105	1
137	139	3
17	44	1
159	178	3
37	59	1
153	155	2
112	113	4
163	167	1
143	148	1
158	160	2
122	126	1
17	58	2
30	85	1
76	82	2
56	58	2
135	167	5
138	150	1
42	44	3
0	8	1
81	82	2
103	107	1
149	154	2
150	153	2
6	10	4
11	21	1
168	174	2
83	85	2
30	33	2
174	175	2
143	150	1
31	90	7
136	138	1
130	135	5
30	35	1
139	142	3
114	116	1
109	113	5
147	154	1
150	154	1
60	133	1
113	116	1
78	91	3
11	30	1
18	20	3
71	89	2
91	93	3
162	173	2
104	105	2
33	149	3
8	28	1
19	22	1
79	91	2
27	31	1
73	78	1
105	107	2
73	79	2
132	148	2
161	162	9
87	89	1
31	37	3
65	76	2
106	110	1
64	147	2
40	44	2
102	111	2
31	57	4
79	96	2
32	56	2
28	164	2
95	104	1
115	122	1
90	134	3
130	154	5
99	134	2
138	139	3
153	158	2
84	86	2
35	36	6
126	128	1
8	33	1
78	102	1
73	97	1
138	175	4
26	31	1
133	149	1
87	87	4
95	100	3
31	81	1
29	82	1
82	85	2
171	173	1
64	73	1
111	112	4
33	92	1
12	14	1
17	20	2
15	62	1
51	64	1
20	25	3
159	162	1
41	49	1
122	123	3
17	39	1
32	109	2
73	80	3
43	45	4
87	102	3
33	57	2
133	134	5
26	71	1
1	7	1
33	42	1
10	14	1
25	35	1
163	169	2
83	121	4
156	176	1
58	60	1
50	52	1
96	132	7
5	8	1
116	126	1
111	131	2
30	32	1
54	59	2
129	131	1
171	174	1
87	127	1
138	156	1
46	46	2
59	95	2
57	77	1
3	28	1
31	98	1
6	11	1
163	164	2
146	151	2
76	93	1
10	112	1
128	130	3
151	156	2
80	95	1
18	21	3
11	31	1
177	179	1
70	72	2
101	116	1
113	119	2
17	38	2
127	153	2
118	119	1
74	75	3
82	119	1
165	167	1
32	85	1
96	107	2
127	134	1
10	15	1
59	76	1
9	19	2
0	5	1
22	25	1
87	99	1
168	172	2
10	17	1
28	31	2
166	168	1
114	127	1
13	24	1
14	59	3
76	103	1
4	43	1
160	164	1
63	97	2
56	59	1
70	70	1
142	147	1
87	90	1
44	46	1
2	21	2
141	150	1
10	29	1
18	36	1
63	71	1
132	137	1
125	134	3
45	150	3
154	158	1
178	180	2
92	107	2
172	175	1
85	87	3
169	170	2
126	134	1
1	38	1
0	11	1
15	111	1
23	36	1
49	65	1
135	153	1
20	22	2
131	133	3
128	129	1
35	72	1
5	49	2
95	122	1
2	7	1
3	30	1
7	12	1
118	121	1
149	150	1
43	72	2
102	116	1
146	164	1
18	31	1
31	42	1
84	122	1
21	78	1
106	121	1
13	32	1
112	114	1
163	170	1
113	129	1
161	166	2
34	71	1
162	168	1
17	28	1
116	122	1
12	163	1
44	51	1
163	166	1
145	151	1
5	174	1
176	177	1
136	155	1
153	179	1
2	10	1
169	171	1
116	119	1
6	29	1
22	54	1
111	123	1
35	177	1
172	174	1
40	108	1
84	113	1
143	147	1
64	140	1
93	115	1
53	65	1
24	40	1
23	33	1
1	3	2
5	15	1
24	43	1
