32	32	9
12	13	4
36	38	2
9	10	14
24	74	3
29	37	3
35	35	7
70	70	3
77	94	4
11	11	9
10	10	8
78	97	2
27	27	9
91	91	7
4	4	3
40	42	5
113	113	1
102	103	5
28	45	1
28	30	3
94	94	1
106	106	6
100	100	9
24	59	3
57	57	11
20	92	4
92	92	11
55	115	7
112	112	4
101	102	8
46	47	7
26	37	5
66	66	11
114	114	2
68	68	10
112	113	4
26	26	20
45	45	4
84	85	2
95	95	7
6	7	9
30	40	3
98	98	7
73	73	2
7	7	9
58	130	5
19	114	4
4	5	4
26	27	4
123	123	5
98	99	6
93	93	11
37	39	6
41	42	2
12	47	2
9	9	6
13	13	5
133	133	8
59	59	5
20	20	11
126	126	1
8	8	4
47	48	3
63	63	11
22	22	2
111	112	5
109	109	6
89	89	3
81	81	6
129	129	8
95	100	2
128	128	4
17	17	8
14	14	3
67	67	6
36	36	10
13	93	1
25	83	4
86	86	5
125	125	10
42	42	6
61	130	3
88	88	5
2	2	1
87	87	3
83	85	1
26	90	4
38	38	4
65	65	8
130	130	1
110	110	6
47	47	8
96	100	1
120	121	2
48	49	6
85	110	3
65	66	5
68	69	3
5	5	2
99	99	3
29	30	5
105	105	7
27	60	3
26	47	3
117	117	4
98	133	4
33	33	12
70	71	6
79	80	3
75	77	3
21	28	3
120	120	5
26	58	4
79	79	3
131	131	5
75	75	4
103	104	4
4	13	2
101	101	4
56	56	7
19	35	1
48	48	5
74	74	2
91	95	4
132	132	2
127	127	4
62	62	3
21	41	1
20	28	1
21	21	4
92	101	3
46	61	2
16	17	2
119	119	1
31	31	1
39	56	1
83	83	3
12	35	1
64	64	7
101	106	2
25	32	3
15	15	6
57	58	1
103	103	2
33	39	6
78	78	2
13	46	1
81	131	1
29	29	5
1	1	2
111	111	5
48	50	1
11	12	1
82	89	1
8	18	2
77	77	6
44	44	7
28	91	2
14	59	1
21	39	2
6	6	4
108	108	1
28	29	5
46	46	4
92	100	2
18	33	3
49	56	1
50	50	4
58	60	4
60	61	3
35	113	2
116	130	1
36	37	5
83	84	1
56	58	2
94	125	2
35	36	3
43	80	3
34	34	3
12	14	3
80	81	3
55	56	2
11	48	4
33	36	1
72	72	3
76	76	3
41	41	3
56	78	3
36	77	2
11	96	3
107	111	3
90	91	2
23	23	5
31	32	2
80	82	2
60	75	1
7	36	3
10	11	1
84	84	3
71	71	2
85	121	3
3	3	1
12	12	5
61	76	1
43	77	3
81	130	1
24	32	3
61	61	5
5	43	1
19	47	1
19	132	1
9	35	2
89	94	2
12	68	2
11	13	2
57	132	1
40	55	4
58	132	3
110	117	3
7	21	1
81	83	1
95	96	4
42	43	2
11	29	1
8	28	2
76	77	2
38	116	1
116	117	2
41	78	1
12	17	2
8	10	3
100	101	1
27	116	1
93	94	2
11	20	3
90	90	4
107	107	2
16	16	2
35	43	3
43	78	1
45	62	1
85	85	2
90	92	3
14	74	2
25	61	1
125	128	1
91	132	2
33	38	4
71	72	2
25	25	2
130	131	1
12	46	1
60	60	2
22	78	1
69	69	1
38	80	1
104	105	1
82	118	1
105	129	1
78	80	1
80	80	1
115	116	1
131	132	1
5	6	1
38	79	1
84	94	1
48	125	2
35	37	2
97	97	1
115	115	1
7	8	1
1	2	1
25	27	1
37	43	1
122	122	1
26	30	2
7	83	2
14	24	1
104	104	1
59	60	1
20	21	1
3	27	1
81	82	1
27	91	1
85	95	1
46	77	2
110	111	1
116	127	1
51	56	1
51	92	1
34	69	1
60	77	1
40	56	1
11	93	1
