81	82	3
102	102	11
37	37	13
119	119	12
76	80	2
126	127	6
12	12	9
102	119	4
74	74	11
111	111	12
9	11	2
109	109	19
35	35	25
23	24	1
13	13	6
22	22	5
27	124	4
71	102	2
2	2	8
110	110	10
10	10	5
125	126	5
104	104	6
1	26	3
3	3	15
13	111	1
99	99	13
8	26	3
129	140	5
132	132	21
127	127	11
87	87	7
32	32	9
93	94	2
134	134	18
114	115	4
97	97	16
124	124	29
27	27	4
108	108	12
98	98	11
92	92	6
94	95	1
4	4	9
113	113	7
20	20	5
107	107	9
117	117	15
120	120	21
9	9	5
123	123	11
71	81	2
38	38	7
122	123	6
21	21	10
131	132	1
3	4	8
3	7	8
1	1	7
136	136	19
139	139	10
140	140	19
128	129	2
126	126	22
0	8	3
118	121	4
71	106	2
81	81	11
138	138	7
75	75	11
96	96	18
17	34	7
30	30	14
131	131	23
135	135	17
29	29	13
106	106	11
104	112	6
83	85	8
19	125	1
122	122	16
92	93	3
79	79	5
0	28	2
83	105	4
130	130	19
85	86	4
132	133	1
19	19	4
115	131	1
23	25	4
22	26	1
108	119	2
100	100	7
128	128	21
99	100	5
101	101	8
133	133	5
103	104	3
26	26	9
87	88	2
89	90	4
27	29	3
117	121	4
111	112	4
5	5	9
99	101	1
15	16	7
84	84	7
34	35	7
105	105	3
11	11	4
90	90	5
125	125	15
0	3	1
23	23	12
24	25	7
94	94	6
75	113	1
85	85	13
73	73	14
115	117	1
102	103	1
106	122	5
2	27	3
14	14	7
17	17	9
78	80	2
88	89	5
10	11	6
0	0	3
121	122	4
2	5	2
118	119	3
91	91	3
29	30	2
22	24	5
16	31	5
32	86	2
89	89	11
85	104	4
30	38	3
129	129	4
127	128	3
83	83	12
95	96	7
29	32	3
6	6	6
109	112	4
93	93	9
135	136	7
5	138	1
72	73	1
93	120	1
30	31	3
95	95	5
74	75	2
102	118	1
121	121	16
34	34	6
9	14	1
98	100	3
30	32	5
11	12	7
118	118	11
102	104	4
71	71	14
116	116	7
83	84	6
138	140	2
80	81	1
36	36	6
111	130	4
114	114	3
115	116	3
89	91	3
114	129	1
103	103	13
33	34	3
16	16	9
139	140	2
109	111	2
85	101	1
129	138	2
104	106	1
33	33	8
86	86	3
29	35	3
92	96	2
73	81	1
91	94	2
2	6	2
72	123	1
110	123	2
7	9	3
15	15	10
28	66	2
93	96	2
117	118	2
115	115	4
101	131	4
25	25	8
124	125	5
92	122	2
13	14	9
8	12	2
7	8	3
124	126	1
102	106	1
104	107	3
24	24	7
78	81	2
78	78	13
9	10	8
16	17	1
137	138	7
88	88	2
127	129	3
23	29	1
82	83	2
107	113	2
28	31	2
109	110	1
113	114	1
106	119	5
121	123	1
133	139	2
123	124	1
72	116	2
80	80	4
1	24	3
82	82	5
106	107	4
130	131	1
77	113	1
17	21	4
72	74	2
93	122	1
79	80	3
28	28	4
107	121	2
137	137	5
129	139	1
20	21	5
73	123	1
16	23	2
23	26	2
137	139	5
13	15	1
26	31	1
18	21	2
119	120	1
31	31	4
77	77	11
15	24	1
7	20	1
106	115	2
5	7	1
29	31	1
23	30	1
17	18	2
110	111	1
136	138	4
18	18	4
27	28	3
76	76	3
130	134	1
71	72	1
5	35	2
74	123	1
8	8	4
0	7	2
72	72	3
76	77	1
14	21	3
125	129	1
75	114	4
136	137	1
112	112	1
20	25	3
77	78	2
72	115	2
133	134	2
129	130	2
79	104	2
19	20	4
8	20	1
74	129	1
1	8	2
125	132	1
16	18	2
90	103	2
109	124	2
67	67	1
20	22	1
12	26	2
22	23	1
2	3	2
123	132	1
73	84	3
104	105	2
78	82	1
22	85	1
17	19	2
109	125	5
120	121	2
37	38	1
6	18	1
121	140	1
11	26	2
135	137	1
73	80	1
9	25	1
105	115	1
14	15	3
90	91	2
12	19	1
119	121	1
7	7	4
9	12	1
126	129	1
16	19	2
13	20	1
0	12	1
125	128	1
15	22	1
2	4	1
13	24	1
31	38	1
129	131	1
103	112	1
81	106	1
15	23	2
7	11	1
136	139	1
128	140	1
95	100	1
