18	19	13
75	83	3
26	26	11
115	141	1
6	12	9
136	136	4
120	120	2
10	10	18
39	39	19
33	55	5
121	121	17
85	88	3
151	151	5
88	113	6
43	43	18
9	20	1
84	86	5
43	47	2
79	86	1
48	54	7
8	8	16
105	113	1
105	105	15
141	141	1
29	29	15
4	11	6
32	35	1
4	4	18
34	46	1
53	53	15
72	87	3
34	65	2
67	118	2
63	63	14
140	142	5
47	47	12
16	16	9
130	131	3
44	45	4
135	136	7
125	127	8
78	78	12
111	111	11
85	87	3
132	132	9
6	22	6
28	28	15
37	37	9
3	3	4
103	108	3
149	149	10
133	133	15
6	6	11
68	139	7
118	118	8
131	131	10
41	41	6
90	95	6
100	109	3
33	33	9
102	102	13
12	15	4
67	96	2
35	37	3
10	11	6
132	138	5
82	93	1
122	122	12
138	143	2
110	124	6
75	81	5
5	24	2
152	152	2
106	112	2
38	38	20
31	81	2
129	129	13
15	25	1
142	143	9
124	128	3
113	113	4
51	128	3
65	128	2
48	48	15
31	87	3
23	23	10
23	26	2
31	31	23
112	112	7
50	50	7
24	24	21
28	35	2
34	115	4
7	20	2
119	133	1
49	49	15
116	116	6
20	21	14
5	5	15
35	35	9
6	65	4
104	148	2
4	62	5
36	36	12
25	38	1
42	43	24
84	84	6
97	97	15
79	79	7
110	110	8
134	134	1
109	109	16
6	127	5
72	73	4
111	124	4
124	127	5
41	43	7
19	20	10
133	145	3
14	14	9
29	31	3
123	145	3
100	100	7
56	56	4
104	110	2
115	115	5
74	74	5
81	82	7
4	5	3
57	57	9
20	23	4
93	93	14
16	17	2
50	74	3
92	92	8
56	57	2
67	67	17
22	22	24
70	70	18
98	98	7
133	148	2
47	48	10
107	113	4
42	42	6
99	112	2
148	148	6
43	44	10
132	139	4
83	83	5
138	140	2
7	12	4
142	142	10
4	6	8
55	55	15
22	23	6
80	80	5
126	130	2
5	12	1
72	72	2
137	152	2
96	96	13
127	127	2
50	51	5
17	18	12
53	54	6
5	11	3
16	87	1
67	68	4
87	87	12
23	25	3
20	20	14
43	51	5
63	65	2
104	118	7
28	29	3
7	67	2
95	95	5
125	125	6
80	81	6
69	69	7
135	135	14
45	45	16
9	9	14
33	34	2
121	126	6
77	148	3
134	136	2
7	7	4
76	76	15
25	64	3
141	142	4
151	153	2
27	80	2
3	4	1
21	21	7
32	33	3
124	124	1
71	71	15
21	22	10
58	79	4
11	21	2
107	107	10
12	39	3
47	49	2
143	146	6
94	99	3
27	27	11
132	145	2
12	31	1
50	101	1
15	70	2
34	36	3
93	110	5
46	46	11
32	32	16
30	34	3
119	122	2
14	31	2
51	51	3
37	47	3
40	40	7
73	79	1
12	12	15
123	123	9
57	78	2
73	74	1
38	68	4
33	37	2
139	139	12
29	30	5
26	28	1
33	68	1
48	55	3
12	13	3
119	119	14
82	82	18
26	84	3
106	106	4
153	153	3
104	108	4
13	13	16
103	114	1
18	29	4
124	138	1
86	88	2
74	91	2
96	99	1
150	151	3
142	147	5
15	15	4
4	127	4
137	150	1
137	138	8
5	64	2
38	40	2
33	64	3
77	77	5
73	73	8
124	145	2
77	82	2
27	82	2
5	21	3
81	81	4
91	91	3
6	20	3
79	80	2
104	104	8
141	143	2
147	150	3
127	144	1
140	149	1
150	152	1
21	23	1
30	31	1
101	115	2
5	14	2
134	149	4
69	70	6
14	24	1
30	30	3
88	111	1
43	54	3
75	75	11
18	20	1
92	146	2
65	66	5
55	56	8
135	146	6
97	98	9
133	136	2
144	144	13
57	69	2
64	73	2
147	147	4
14	15	10
134	147	2
7	27	2
28	34	2
40	41	2
28	42	1
5	7	1
69	114	3
137	145	4
21	24	2
99	99	6
113	122	1
154	154	4
139	141	6
8	128	1
112	113	5
35	36	9
37	64	1
51	65	1
100	108	3
16	43	2
3	40	1
120	137	4
22	30	6
80	87	2
124	147	4
17	19	3
29	34	6
135	152	1
8	11	3
108	118	2
22	25	5
76	83	1
30	32	3
50	63	2
8	9	10
28	30	3
6	14	4
71	80	2
138	150	1
71	74	1
7	9	1
108	109	6
69	102	2
42	78	2
94	94	16
18	18	9
104	113	2
140	141	5
144	145	1
14	20	2
111	112	2
16	30	1
136	137	1
33	35	1
45	46	2
134	137	1
42	48	3
11	11	10
86	86	4
130	134	1
133	135	2
64	85	2
81	83	5
34	34	15
88	93	2
78	82	3
68	114	3
51	56	3
130	146	4
25	25	6
120	136	4
82	96	2
17	17	4
76	98	2
20	22	3
43	46	2
145	145	5
41	42	4
24	66	1
9	10	2
2	3	1
116	117	2
87	88	2
68	68	9
142	146	3
140	148	3
135	149	2
42	114	2
29	38	4
62	62	5
44	46	1
35	94	4
10	20	1
126	126	4
111	127	2
91	92	2
94	95	2
62	63	2
44	44	7
146	146	2
70	107	1
84	99	1
78	92	3
130	130	8
126	137	3
29	33	4
50	52	2
25	66	4
85	85	3
127	128	5
48	69	1
110	120	1
27	41	1
64	64	2
68	108	1
85	86	2
69	99	1
105	110	1
41	81	2
17	30	3
27	29	4
4	25	1
72	81	4
86	87	4
11	37	5
4	66	5
136	149	2
26	27	5
74	90	4
75	98	1
6	15	2
140	140	3
61	62	2
35	92	2
5	66	3
62	85	2
74	76	3
8	13	2
51	52	2
69	96	2
140	144	3
25	32	1
105	118	1
95	99	3
40	44	2
25	67	1
29	62	1
80	84	2
121	130	1
128	128	6
145	148	3
48	56	2
151	154	1
97	99	3
90	114	1
56	65	1
138	145	5
121	148	3
116	146	2
2	40	1
113	124	2
104	114	1
75	77	3
50	73	3
74	101	3
30	42	2
118	133	2
122	127	1
5	6	3
103	103	3
17	41	1
111	120	1
83	97	2
102	114	3
5	38	1
3	5	1
75	90	2
31	32	1
151	152	4
72	78	2
52	81	2
138	144	1
143	143	2
124	146	1
88	90	1
48	49	4
137	137	6
17	26	2
123	139	1
144	146	4
65	68	2
23	53	1
74	87	1
66	66	4
16	22	5
47	57	2
24	53	1
138	138	4
79	94	1
77	81	2
78	85	2
12	14	2
102	103	2
34	35	5
7	11	1
35	55	1
32	39	1
93	94	1
18	25	2
79	88	2
75	99	4
121	122	2
123	125	1
28	82	2
79	87	4
39	40	3
24	63	1
30	81	1
6	21	1
19	34	2
74	79	1
111	122	1
51	55	1
13	15	1
39	54	1
125	126	1
31	83	1
55	58	3
95	97	2
31	74	2
32	94	2
153	154	4
6	11	1
4	147	1
75	117	1
64	65	2
117	117	4
48	64	1
31	51	2
122	130	2
80	88	1
25	34	1
63	115	1
72	96	1
144	148	1
75	80	1
104	111	2
3	27	1
46	52	1
66	67	2
123	128	1
25	26	3
68	69	2
126	127	1
63	64	1
117	118	1
11	12	2
47	51	2
79	95	1
127	136	1
86	112	2
76	80	2
16	28	1
75	92	1
76	84	2
104	145	2
27	32	1
31	35	1
76	77	2
96	97	2
4	63	1
64	82	2
42	87	1
74	92	2
110	112	2
80	83	1
110	117	1
119	130	2
111	119	2
33	39	1
24	56	2
75	78	2
147	148	1
128	129	2
73	78	1
66	108	2
46	53	1
54	54	1
76	82	2
148	149	1
65	124	1
49	70	3
93	115	2
13	20	1
125	132	1
17	38	3
16	20	1
29	82	1
11	66	1
36	118	1
13	16	1
47	70	1
110	111	2
117	153	1
6	24	2
8	22	3
3	118	1
90	90	1
40	70	2
25	29	1
115	117	1
110	133	3
127	137	1
90	99	1
52	56	1
33	82	1
74	103	1
8	46	1
23	48	1
36	37	3
115	140	1
68	124	1
74	99	1
109	113	3
16	21	1
65	65	3
25	55	1
134	150	1
9	68	1
139	142	2
7	65	2
12	38	1
94	113	2
56	79	1
127	135	1
4	61	2
95	96	1
7	8	1
38	39	4
11	20	1
22	45	2
28	85	1
57	79	1
64	87	1
24	102	1
40	47	2
70	97	1
108	108	2
53	118	2
75	84	1
5	33	2
145	147	1
37	69	1
47	53	2
69	85	2
16	40	1
15	22	1
64	66	1
34	68	1
14	25	1
83	84	2
103	109	1
46	84	1
69	73	1
6	9	1
68	106	1
30	35	1
6	116	1
87	94	1
6	13	1
72	79	1
101	110	1
68	95	1
45	84	2
54	55	1
40	45	1
105	106	1
42	80	2
54	118	1
83	85	1
11	13	1
146	147	1
85	97	1
133	153	1
36	38	1
79	110	1
90	100	1
75	76	1
100	101	1
52	52	1
27	28	1
139	145	1
35	93	1
26	40	1
127	138	1
15	85	1
