23	26	3
78	81	1
68	68	8
71	72	1
36	36	11
86	86	6
33	34	3
74	74	4
8	88	4
101	126	1
15	15	4
46	46	3
44	44	2
12	12	5
51	51	1
64	65	3
96	97	2
72	72	7
31	31	6
38	39	2
11	26	4
9	9	2
64	71	4
9	10	2
46	57	3
67	67	3
97	97	1
116	116	2
29	29	1
127	127	5
1	35	3
19	19	2
5	5	1
65	65	8
122	125	1
23	24	1
96	96	5
131	133	5
107	108	4
119	119	1
40	40	5
10	10	12
47	47	13
31	35	6
36	42	2
122	122	4
30	30	6
86	101	2
32	32	6
19	22	1
43	82	3
8	8	6
45	45	3
13	93	2
128	128	4
117	117	3
61	62	1
4	5	7
44	84	2
84	100	2
14	15	1
23	25	3
93	94	1
77	78	3
98	99	4
44	81	2
34	34	7
46	62	1
13	14	6
7	42	1
28	29	4
27	27	5
43	43	3
26	26	9
69	72	1
107	107	3
78	93	1
22	22	8
20	30	1
23	23	2
79	80	6
64	75	3
20	29	2
119	134	1
32	36	3
111	111	4
47	48	2
55	55	3
14	31	2
90	91	1
13	63	3
48	56	2
61	71	2
90	112	9
49	55	4
93	93	3
37	43	3
16	16	1
13	26	1
87	106	3
116	134	1
6	37	2
70	70	2
18	18	2
78	78	5
26	27	1
27	93	4
62	62	8
7	58	1
22	29	1
76	76	1
38	38	1
91	92	4
105	105	5
24	24	4
108	109	2
73	73	9
126	126	1
45	64	3
109	110	2
61	69	1
34	35	2
129	130	1
96	98	3
77	97	2
11	82	3
131	131	1
115	131	1
12	40	1
34	77	3
100	114	1
7	8	3
36	37	4
63	63	7
92	92	5
100	105	4
37	38	4
100	100	4
19	79	1
80	80	4
12	86	1
21	57	2
89	89	1
92	93	1
103	104	1
11	93	1
8	82	1
96	133	5
48	48	1
41	41	3
80	99	2
27	28	2
87	87	5
84	93	1
87	88	3
97	98	2
35	35	6
45	75	3
27	92	1
18	31	3
43	44	1
102	102	3
119	124	2
59	60	4
4	7	2
14	14	2
7	87	1
85	85	4
9	88	2
125	131	1
24	26	1
39	39	3
56	56	2
78	82	1
46	61	1
0	1	1
48	90	1
129	129	1
49	90	3
22	24	1
134	134	4
66	66	1
130	131	1
33	78	1
125	126	1
116	120	3
47	61	3
82	83	2
121	121	1
31	78	1
41	42	1
6	6	3
7	7	3
37	37	1
58	58	1
83	83	1
75	75	4
84	84	1
20	20	2
33	33	1
43	56	2
104	104	2
95	95	1
71	71	2
25	62	1
27	46	1
99	99	1
61	61	2
82	82	1
74	75	1
109	112	1
77	77	2
12	47	2
114	114	1
79	87	2
32	35	1
63	64	1
0	0	1
64	64	5
81	84	1
35	44	1
4	4	2
120	120	1
13	13	3
132	132	2
121	124	1
55	56	1
51	55	1
6	65	1
11	11	1
55	90	1
31	77	1
21	58	1
125	129	1
78	85	1
12	63	2
79	126	1
32	78	1
28	28	1
29	30	1
79	79	1
86	89	1
