0	0	6
154	156	2
60	60	3
107	108	1
153	153	2
120	155	2
29	30	4
150	150	1
23	23	11
35	41	1
161	161	4
9	9	7
27	29	5
8	8	4
5	42	2
77	121	5
1	2	4
50	50	1
26	26	3
33	34	5
15	15	12
22	23	1
170	171	2
121	136	1
44	45	3
100	100	3
32	43	2
27	27	5
29	29	8
143	146	2
177	177	1
39	40	1
170	170	5
162	167	2
118	125	5
64	64	2
52	142	3
94	114	1
134	134	6
51	51	8
30	30	5
52	53	1
49	49	1
38	38	3
84	84	3
121	121	5
34	34	6
131	131	2
38	72	2
33	33	5
31	44	3
110	110	5
97	101	6
118	119	3
167	167	3
152	152	4
164	164	1
102	103	4
24	24	1
15	60	1
7	7	1
163	165	1
119	119	3
160	160	4
155	156	5
157	158	2
170	174	1
145	145	4
37	37	11
35	36	5
169	175	2
14	33	1
15	16	8
173	173	3
23	32	1
108	109	1
116	116	2
6	6	8
3	3	7
109	109	6
39	39	3
131	174	4
24	26	3
172	173	1
118	122	1
53	54	2
76	76	6
26	28	3
134	136	2
152	153	1
80	81	2
19	20	3
75	75	5
35	35	3
149	149	2
5	5	6
65	66	2
92	92	2
10	10	10
127	128	3
14	14	3
116	117	1
51	111	1
90	90	7
33	39	5
11	146	1
133	134	2
54	54	5
139	139	6
136	136	4
87	88	3
172	172	3
25	27	3
4	4	2
89	89	2
124	124	1
137	137	1
173	174	2
2	15	2
169	169	3
145	146	2
129	155	1
30	31	5
128	128	2
79	106	1
13	16	2
162	162	1
127	127	1
122	122	1
130	152	3
72	73	2
53	105	3
78	82	3
125	125	2
41	41	6
168	168	5
123	123	6
20	20	2
62	65	4
140	140	4
62	63	3
51	52	1
156	168	3
114	114	1
117	119	1
17	17	5
18	18	4
63	158	1
36	36	3
86	88	1
52	52	2
74	74	4
174	175	4
42	42	7
21	21	2
29	44	1
129	156	2
79	80	1
148	158	1
141	141	2
112	126	1
80	80	2
148	161	2
110	111	1
25	25	2
25	31	1
18	19	5
94	94	1
93	93	4
159	159	1
65	65	2
11	11	8
28	28	3
106	106	5
39	42	2
14	16	1
144	144	4
95	95	2
126	128	2
156	156	1
133	133	6
13	14	2
13	13	3
5	40	1
16	16	6
87	87	1
5	35	3
175	175	2
113	113	1
107	107	3
101	115	1
120	120	5
158	158	1
31	31	2
63	63	3
174	174	4
11	156	2
14	145	3
2	2	4
149	167	2
165	166	2
17	18	2
37	43	3
18	41	4
16	31	2
56	57	4
81	82	1
6	35	2
21	23	1
99	99	7
2	9	5
105	106	1
21	145	2
145	147	1
22	22	2
146	146	5
1	1	3
2	10	1
166	166	4
61	174	1
124	125	2
130	142	1
32	33	1
148	148	2
71	72	4
57	124	1
176	176	2
104	105	1
43	44	2
78	78	1
132	133	1
16	42	1
43	46	2
107	122	1
60	115	3
91	108	1
138	138	2
57	59	1
39	112	1
24	36	1
37	94	1
35	44	3
88	88	1
54	125	1
130	157	1
16	18	1
71	71	1
62	62	1
52	96	1
152	157	1
30	44	1
10	37	1
16	20	1
45	45	4
128	162	1
123	138	1
163	163	3
12	12	2
104	104	2
30	34	2
132	132	1
11	42	1
101	101	1
44	44	1
44	140	2
129	130	1
27	28	1
67	133	1
129	129	2
126	126	1
32	37	1
1	21	1
123	124	1
17	36	1
66	66	1
62	67	1
105	105	2
52	170	2
83	86	1
55	55	1
140	151	1
58	58	1
142	143	1
90	91	1
86	136	1
61	73	1
38	39	1
18	32	1
179	179	2
86	86	1
34	35	1
67	67	1
154	154	1
55	56	1
148	159	1
165	165	1
73	73	1
