33	34	4
51	51	5
84	84	11
31	31	6
96	110	2
36	72	1
23	23	5
57	59	1
55	55	5
100	100	13
91	91	9
26	26	14
53	57	2
20	20	5
94	94	5
57	101	2
43	43	8
85	85	2
50	51	3
58	58	6
65	67	1
46	46	7
110	110	5
88	88	10
61	61	7
30	30	3
37	99	2
20	21	5
26	32	4
63	63	5
48	49	5
66	67	1
28	32	3
86	89	6
111	111	1
91	108	1
29	33	5
28	28	13
38	71	6
76	76	12
46	103	3
108	108	2
59	59	6
48	48	5
102	102	2
41	53	2
39	39	6
109	109	4
54	78	1
42	42	2
104	104	6
53	55	2
31	32	1
45	45	10
54	56	5
96	96	2
102	103	5
103	103	6
73	109	4
70	108	1
83	109	2
73	74	8
40	100	2
65	65	4
71	75	2
34	34	7
36	36	8
93	100	2
105	106	4
34	35	2
29	29	4
53	53	4
98	98	9
32	60	2
39	55	3
71	74	2
41	63	3
44	45	4
41	57	2
75	76	2
95	108	2
79	79	9
87	87	5
77	77	6
27	27	4
74	75	3
60	60	7
32	32	1
47	47	4
78	78	6
71	72	6
38	38	6
54	55	3
69	70	2
21	21	4
46	101	1
81	81	10
40	77	1
105	107	1
37	37	3
24	76	2
74	108	2
99	99	8
113	113	3
83	83	1
96	97	1
71	71	4
49	49	5
70	70	4
95	95	8
31	106	4
27	70	1
109	110	1
52	80	3
101	101	3
69	69	3
78	85	2
75	75	6
82	83	2
62	62	4
106	106	5
110	111	2
112	112	4
89	89	4
91	92	3
70	71	2
65	70	3
68	68	1
33	33	4
114	114	4
58	102	1
39	53	1
105	105	3
19	20	2
106	107	1
46	48	3
81	89	3
39	47	1
43	99	3
80	80	2
76	80	4
107	107	1
44	44	1
73	73	2
72	72	2
26	28	3
36	64	1
89	94	1
82	87	1
86	110	1
37	53	3
41	42	1
41	108	2
93	93	1
36	70	2
37	41	2
105	113	1
28	29	1
22	23	3
76	77	3
80	81	3
92	92	1
66	66	3
84	85	1
61	69	3
58	61	2
78	97	2
46	105	2
41	41	3
88	102	1
98	99	4
103	104	1
83	84	2
42	43	1
95	107	1
78	106	1
54	54	2
46	67	3
90	91	2
85	86	1
35	35	1
70	103	1
35	106	1
59	62	1
80	109	1
78	98	1
72	105	1
59	60	1
35	52	1
104	107	1
97	97	1
41	80	2
40	76	1
52	52	1
115	115	1
72	73	1
34	109	1
93	94	1
