3	3	17
0	1	7
101	101	43
106	106	24
82	84	16
74	74	56
54	54	28
94	95	29
57	57	9
4	4	17
55	57	15
49	49	9
91	91	37
85	85	18
18	26	4
130	132	2
104	104	23
24	25	12
75	75	53
29	29	27
69	103	1
12	12	43
22	22	18
110	110	40
52	52	17
128	128	33
7	8	11
7	16	3
93	112	4
32	32	14
92	92	31
5	5	18
9	9	17
109	109	20
81	82	5
88	88	62
23	23	24
72	72	31
83	83	30
99	99	66
89	89	36
114	117	2
115	115	38
125	125	35
114	114	31
50	50	32
93	93	60
2	2	19
21	21	18
99	101	5
64	64	36
63	64	13
78	78	18
82	82	22
48	48	5
121	121	30
10	10	25
80	80	58
121	123	7
84	84	27
102	102	45
69	69	31
1	2	8
116	116	35
0	0	13
133	133	20
9	10	13
15	25	6
118	127	2
37	37	9
112	112	53
73	74	16
66	68	4
35	35	21
4	24	1
31	75	3
120	123	6
31	31	18
117	117	32
53	54	9
32	33	11
119	119	22
24	24	29
127	127	38
135	135	14
61	61	20
98	98	22
55	55	28
26	43	7
27	27	29
100	101	9
91	92	6
79	79	46
53	53	26
68	68	22
20	20	14
127	129	8
87	87	36
127	128	12
13	13	18
113	114	14
44	57	5
19	19	8
26	30	3
65	81	2
117	125	5
130	130	26
8	9	2
77	81	1
44	45	12
96	98	1
73	73	36
16	16	29
110	111	14
86	86	26
118	118	14
101	102	14
51	51	9
81	83	5
100	100	41
90	90	45
25	25	34
113	113	37
78	79	6
104	105	15
109	114	1
111	111	24
98	118	4
99	126	3
120	121	16
106	108	12
0	7	2
20	21	3
65	65	17
120	130	2
90	114	1
71	71	37
120	120	33
107	110	2
49	50	7
33	33	16
54	56	6
119	130	5
55	56	8
62	66	4
7	7	19
124	124	13
108	110	8
125	130	6
12	72	6
50	65	7
72	73	22
100	134	1
50	52	1
131	131	20
76	76	45
106	107	17
76	77	9
94	94	37
79	81	5
26	26	14
77	77	55
105	105	39
108	108	19
31	32	6
95	95	33
97	97	41
81	81	20
70	70	56
134	134	34
129	132	8
67	68	4
86	89	1
34	34	23
43	44	2
96	97	3
74	121	2
90	91	21
36	36	18
2	3	5
8	8	5
47	49	3
122	122	20
102	104	3
5	29	5
49	53	1
76	80	4
56	57	6
95	96	18
103	103	27
55	58	5
115	127	2
129	131	4
94	113	2
132	133	10
90	95	5
45	45	16
132	134	3
74	103	2
27	35	15
132	132	12
123	123	34
29	63	4
92	113	2
99	112	3
73	75	8
61	62	8
82	86	1
16	20	4
109	110	17
67	67	15
100	112	1
36	38	1
64	86	1
96	96	20
11	11	11
116	120	3
128	129	15
66	67	8
131	134	3
60	69	6
85	106	1
45	46	2
3	29	2
113	118	4
101	116	2
45	57	2
5	6	1
30	30	11
33	34	7
1	1	23
96	127	2
3	4	7
56	58	4
33	74	3
78	95	1
111	112	15
125	126	6
74	75	11
10	14	3
20	23	3
121	132	4
15	15	7
1	61	1
23	24	7
117	119	2
79	109	3
107	107	13
58	58	10
126	127	11
36	37	4
93	94	15
11	12	6
83	84	13
112	114	1
109	111	3
22	23	5
54	61	1
59	59	20
75	76	11
111	116	3
92	95	2
111	134	5
18	19	6
56	59	2
2	7	3
114	115	13
26	27	3
79	125	3
12	71	3
85	86	4
123	130	1
47	47	16
86	87	14
121	125	1
102	103	8
44	44	4
2	4	1
95	116	6
99	100	12
34	37	2
28	38	1
18	18	5
14	14	19
82	83	5
84	101	3
17	17	6
126	133	1
126	126	26
21	22	7
50	83	3
108	132	1
9	11	3
67	95	1
84	86	8
48	49	2
66	66	17
57	58	14
45	92	2
89	112	5
60	60	22
73	88	4
79	80	18
91	113	1
70	71	9
26	59	9
59	80	3
117	133	3
115	116	5
95	107	4
117	118	7
32	35	3
98	109	7
97	118	5
57	61	1
10	11	3
76	101	2
58	59	5
112	120	3
30	73	4
88	134	3
63	63	23
81	86	1
64	65	13
80	81	2
25	26	6
108	109	5
9	49	1
28	28	11
100	118	1
47	67	1
34	35	5
6	71	2
37	59	1
6	6	18
62	75	4
34	62	2
59	60	4
53	115	1
106	111	1
80	105	1
61	65	2
62	63	8
127	134	1
95	110	4
65	66	3
67	86	2
129	130	11
62	62	9
103	104	4
76	104	2
71	72	15
96	119	4
19	20	11
50	54	4
133	134	9
67	69	5
100	116	2
47	51	2
95	125	1
18	52	1
50	77	1
126	134	3
42	43	4
54	55	6
115	117	2
81	91	1
43	43	12
65	69	4
69	70	4
49	64	1
35	36	2
6	17	1
68	76	2
79	85	2
33	60	1
48	51	3
129	129	5
107	109	3
11	88	2
99	106	2
80	115	1
65	68	8
54	57	2
57	65	5
119	124	3
98	101	4
124	129	2
97	98	5
5	27	1
54	67	3
91	97	3
4	5	4
29	30	10
122	123	7
62	64	3
23	27	5
7	25	2
114	116	3
65	67	2
36	52	1
134	135	2
79	102	3
124	131	3
10	25	1
46	46	2
80	100	3
65	78	3
86	88	3
22	59	2
56	56	6
105	114	1
131	133	4
38	38	9
89	90	14
1	9	1
68	70	4
91	135	2
79	89	6
91	111	5
125	132	2
65	80	2
82	85	1
26	37	3
60	82	6
123	124	8
108	130	2
9	17	3
122	124	2
77	78	10
88	89	1
38	52	2
61	63	2
77	84	5
116	117	7
98	99	3
17	19	1
71	73	5
111	113	5
100	117	3
131	132	2
123	133	7
19	21	3
46	49	1
65	70	1
121	126	1
64	80	2
68	69	3
122	130	4
93	120	2
28	29	5
3	31	1
50	67	4
121	128	1
107	132	4
112	121	1
79	114	4
23	26	4
75	89	3
73	102	1
52	55	2
15	76	1
13	14	5
118	119	5
112	116	1
8	47	1
37	38	2
7	9	2
129	133	1
35	54	2
94	106	4
51	52	4
112	113	9
27	34	4
53	55	2
30	31	2
77	79	1
90	94	2
35	37	4
70	74	2
52	53	5
119	120	5
102	114	1
7	74	2
106	124	2
42	42	5
29	33	3
61	88	3
52	54	3
12	13	6
108	111	5
16	17	1
90	92	3
58	82	1
55	85	2
50	60	1
120	122	3
98	102	3
84	85	3
107	108	8
66	69	1
88	129	2
73	89	1
83	86	2
92	93	4
32	34	2
31	50	4
17	18	7
77	82	1
3	5	3
49	52	5
87	90	4
103	114	2
13	34	2
9	32	3
103	105	3
24	28	6
7	32	2
70	105	1
95	128	2
105	112	1
81	100	2
88	98	2
50	69	2
6	7	3
21	23	3
69	88	3
1	71	3
133	135	1
97	106	2
130	133	1
116	118	1
48	77	1
14	15	1
76	78	1
106	118	2
57	59	3
12	14	1
84	87	1
99	123	2
98	116	2
17	86	1
59	83	1
124	133	1
52	68	1
118	132	1
4	73	1
115	134	4
97	131	5
27	28	2
60	76	4
70	95	4
5	34	1
96	120	2
8	97	2
52	64	4
93	95	1
28	74	1
124	128	1
15	77	2
85	88	4
125	131	1
14	104	2
101	112	1
126	130	1
96	107	1
35	59	1
56	82	1
7	11	2
112	127	1
18	20	1
2	71	1
62	89	3
124	125	6
123	125	1
50	66	1
47	77	2
50	53	1
30	60	2
95	102	2
59	69	2
37	62	1
121	124	1
31	80	1
52	61	1
35	57	2
98	111	2
28	36	1
68	85	1
105	106	6
25	33	1
24	60	1
120	127	1
107	127	2
64	67	1
2	5	2
56	124	1
67	85	1
81	112	1
69	82	2
87	96	1
112	134	1
82	87	2
62	69	1
93	114	1
92	120	1
60	61	1
11	22	1
72	76	1
48	50	1
23	25	1
98	100	2
50	51	1
88	99	1
86	132	1
54	59	2
11	50	2
79	94	1
94	104	1
76	79	1
96	111	1
127	130	2
121	122	2
116	121	1
16	85	1
98	106	1
33	89	1
99	105	1
44	48	1
29	35	2
116	130	1
130	131	1
0	9	1
81	85	1
108	113	1
101	115	1
114	134	1
58	62	1
97	108	1
9	50	1
64	106	1
97	101	1
35	52	1
23	34	1
123	131	1
96	129	1
82	95	1
50	81	1
105	126	1
7	33	1
16	49	1
1	88	1
95	129	1
108	118	1
