66	66	13
192	192	4
115	115	2
13	13	12
61	146	4
157	202	8
185	186	5
52	52	4
105	105	3
179	179	5
30	30	7
3	30	2
29	29	8
225	225	8
1	2	4
182	182	13
103	103	7
226	231	1
71	71	6
158	158	5
207	207	5
59	59	12
0	142	3
62	62	13
72	72	26
73	73	18
41	41	5
188	188	13
73	154	1
175	175	5
220	220	6
47	56	2
224	224	8
184	186	8
155	155	5
77	77	9
43	43	15
37	40	2
174	211	3
194	228	3
140	140	4
2	3	7
214	215	6
30	138	3
189	189	9
35	56	2
22	22	9
165	165	4
130	130	1
36	36	12
66	79	2
136	136	6
108	117	2
153	155	3
216	216	4
48	48	4
76	76	11
81	81	15
29	227	3
197	201	4
155	163	2
33	33	15
27	27	11
75	75	10
182	191	1
103	115	2
175	232	3
80	123	4
223	223	4
138	239	2
212	215	3
106	106	14
21	23	2
45	45	11
102	102	4
19	19	6
3	3	5
203	203	6
61	143	8
196	200	3
15	51	3
233	236	2
125	125	8
38	40	4
210	211	8
47	47	12
23	24	1
10	10	10
39	39	9
128	149	2
75	78	4
236	236	5
206	206	15
37	37	7
157	210	1
8	8	6
100	127	1
139	140	1
60	104	1
142	142	11
28	28	21
238	238	8
234	234	10
165	202	3
67	67	7
7	7	8
144	144	4
180	180	5
210	212	2
100	100	7
105	106	3
71	74	3
21	21	16
139	151	3
51	52	11
1	1	7
85	85	10
176	183	2
161	237	1
53	53	21
58	58	15
139	139	7
186	188	2
173	173	9
6	6	4
133	133	8
137	137	8
221	221	10
172	172	3
33	35	5
27	40	4
145	145	4
42	42	6
64	64	6
71	72	4
7	8	8
96	96	10
32	138	3
168	168	2
186	187	6
39	101	4
24	226	2
101	102	1
25	25	2
0	31	2
171	226	2
104	112	4
82	83	3
9	231	2
218	218	2
9	201	3
13	14	4
63	63	11
0	38	1
161	163	7
0	0	5
217	217	6
196	199	1
186	186	3
99	99	9
50	88	1
182	232	1
214	216	4
180	213	1
80	80	13
55	55	6
165	233	1
135	163	2
58	106	2
70	99	3
174	174	7
169	193	2
193	193	6
27	37	2
38	38	8
124	125	1
69	69	12
30	31	5
193	196	4
64	230	4
68	69	3
27	232	3
41	49	4
128	167	4
196	196	3
122	168	1
84	84	13
149	152	3
74	74	9
0	1	10
185	185	15
242	242	7
241	241	6
116	116	4
178	183	4
226	226	8
187	188	2
230	230	6
219	219	1
88	218	6
46	46	7
14	15	12
65	67	8
15	15	6
129	129	5
181	181	7
95	95	4
86	86	4
81	99	3
44	44	12
199	199	1
171	230	1
58	65	3
205	206	8
44	57	2
183	183	6
134	134	10
52	53	5
179	217	2
169	223	1
3	16	2
84	85	6
31	31	2
227	227	6
235	235	4
138	139	3
5	31	2
62	149	1
164	165	3
35	35	3
231	231	8
34	56	1
43	68	2
62	148	3
121	121	11
101	113	2
57	68	4
237	238	1
126	126	1
48	49	2
83	84	3
204	204	8
74	109	1
164	164	9
177	177	4
80	99	4
184	184	8
109	109	11
200	200	4
163	163	16
28	181	2
42	54	2
38	42	4
237	237	3
43	64	2
138	138	3
9	9	8
2	2	8
41	42	2
49	50	2
202	202	9
135	135	1
34	34	3
141	141	8
24	25	7
150	150	6
215	215	3
29	182	2
78	78	3
63	64	1
205	205	8
144	146	2
144	174	4
158	161	2
67	79	4
176	176	8
6	8	2
107	107	9
54	55	1
117	117	6
240	240	5
163	208	4
12	12	2
98	189	1
18	18	3
40	40	5
146	146	4
190	190	5
118	120	2
42	44	3
48	50	3
151	151	9
80	83	1
104	105	3
112	112	6
14	14	14
44	45	8
122	122	8
46	71	3
198	201	1
54	54	3
96	169	2
224	225	2
23	23	8
31	32	1
143	143	5
156	156	6
17	17	12
173	211	1
70	70	6
107	117	2
26	26	6
6	33	3
155	157	6
227	235	2
35	39	3
120	153	1
177	220	2
171	173	3
61	61	11
193	194	5
127	127	3
182	197	3
167	223	1
124	126	1
46	72	4
100	101	3
56	56	7
122	131	1
44	68	2
166	224	3
65	66	2
226	227	3
194	194	2
29	192	1
65	65	5
116	180	1
40	41	4
98	171	2
178	178	8
113	114	1
77	102	1
169	169	4
21	22	3
104	104	7
114	236	1
209	209	8
173	174	4
191	191	12
178	218	1
136	137	1
191	192	2
69	108	1
68	68	6
140	147	2
146	147	3
118	157	3
133	134	7
153	153	2
153	154	1
62	202	1
16	32	2
83	83	6
3	50	1
122	136	1
69	74	3
42	49	1
43	44	5
100	137	2
81	133	2
49	49	8
2	18	5
124	124	1
211	211	5
120	146	2
97	97	6
8	9	3
132	133	2
103	105	2
110	118	3
197	225	2
69	110	1
159	159	8
58	59	1
115	116	1
232	232	7
73	74	3
183	239	4
98	99	2
159	237	3
4	4	3
102	105	3
29	201	2
213	214	3
213	213	4
152	155	4
20	20	12
143	148	1
9	10	4
9	200	4
239	239	1
0	6	1
124	169	2
137	163	2
215	216	3
11	12	3
64	73	2
80	81	6
69	72	4
157	158	1
16	17	3
234	235	3
16	49	7
83	104	2
228	229	2
46	47	3
4	6	2
195	195	5
64	86	3
66	67	5
78	79	3
5	5	6
1	15	3
34	35	5
172	182	1
97	142	2
189	190	4
183	207	4
169	224	5
40	53	2
163	172	2
104	115	1
13	16	1
16	16	2
59	60	1
95	116	2
98	117	2
131	200	1
6	15	3
57	57	8
32	46	2
81	84	4
50	51	6
201	201	9
32	230	2
4	16	4
148	151	3
119	150	1
164	166	3
32	32	4
173	208	1
160	163	2
166	166	6
128	128	1
12	13	2
33	34	10
18	22	3
24	230	1
96	228	3
135	137	2
172	217	2
96	110	1
98	98	5
82	82	6
217	218	4
125	168	6
141	142	4
110	110	2
61	63	2
91	102	1
147	147	2
138	143	4
191	208	1
202	220	2
229	230	1
101	101	2
88	88	3
47	60	2
82	99	3
221	222	4
63	65	2
195	196	1
53	189	3
170	170	3
126	168	2
5	30	5
8	206	2
49	103	5
53	56	3
38	39	1
119	127	1
37	38	4
162	162	3
145	146	2
209	210	2
125	135	1
81	82	1
23	225	4
149	149	6
119	119	4
99	111	2
157	157	6
7	14	1
144	156	1
73	128	9
38	160	1
172	180	4
167	169	4
132	132	3
82	84	8
7	9	3
123	126	1
239	240	1
171	171	4
198	198	4
233	235	3
25	44	4
130	148	2
70	154	1
132	197	1
197	197	3
11	29	1
141	149	2
200	216	1
67	70	2
27	120	1
48	105	4
144	203	3
178	179	1
35	36	1
174	239	1
29	30	2
38	54	1
99	230	1
225	234	2
100	117	2
185	213	1
12	195	1
104	116	2
210	210	4
209	212	2
15	56	1
142	143	5
26	112	2
43	231	4
14	16	3
65	68	1
178	184	1
127	147	2
131	131	1
24	24	3
114	114	1
89	95	1
59	104	3
22	31	1
104	111	4
100	107	1
11	53	2
134	137	1
76	77	1
137	143	1
31	33	1
56	57	2
125	126	2
100	112	1
127	137	2
80	104	3
150	239	1
97	174	2
154	154	8
83	103	1
122	124	1
95	170	1
210	219	2
10	33	2
118	118	1
179	184	1
157	207	1
125	127	4
88	180	3
81	83	2
77	109	2
169	170	2
60	60	8
228	228	2
150	151	1
108	108	3
25	181	1
141	144	3
3	51	1
232	238	1
69	70	1
15	50	2
155	207	1
158	159	1
154	157	2
194	223	1
81	106	1
13	57	2
187	187	1
20	33	1
116	117	1
118	158	1
99	115	4
74	75	1
45	46	1
114	115	2
232	233	4
111	111	2
180	184	1
240	241	1
57	60	3
11	19	1
99	100	1
121	122	1
18	35	1
107	118	3
21	196	2
39	42	1
154	156	3
167	168	2
161	161	2
236	237	3
170	223	1
70	72	1
3	4	4
11	196	2
95	229	1
62	63	2
45	72	1
20	32	2
227	228	1
18	36	1
83	105	1
11	13	1
62	99	3
177	206	1
3	32	1
229	229	2
138	162	1
18	19	1
24	136	1
5	199	1
37	55	2
207	208	2
5	49	3
120	150	1
46	74	3
129	169	1
131	134	2
10	47	1
216	217	1
172	225	1
182	216	1
65	85	1
121	150	2
16	35	1
113	120	1
27	39	2
25	190	1
201	202	1
1	6	2
39	40	3
79	124	1
188	194	1
208	211	2
161	175	1
111	121	2
17	225	1
133	166	2
6	7	1
158	209	1
4	5	2
62	69	1
95	169	1
72	73	1
165	237	1
6	49	1
17	50	1
176	190	1
62	64	1
159	238	1
1	32	1
78	111	3
119	120	2
24	148	1
48	67	1
151	152	1
213	216	2
157	204	1
61	212	1
122	169	2
128	227	1
186	194	1
64	65	1
74	113	3
65	154	1
160	160	2
113	118	2
208	208	2
19	20	4
190	208	1
212	212	1
60	81	1
96	97	1
184	193	2
191	216	1
25	151	1
172	239	1
65	150	1
233	233	1
49	51	2
16	33	2
23	31	1
18	29	2
158	207	1
28	182	2
194	195	1
107	108	2
105	115	1
222	222	1
139	162	1
47	73	2
153	156	1
197	231	1
100	118	1
27	86	1
20	23	1
41	50	1
129	166	1
1	31	2
83	115	1
95	228	1
61	64	1
95	137	1
157	175	2
168	220	1
140	145	1
139	143	1
36	37	1
32	33	1
126	146	1
17	224	1
155	156	1
129	130	1
24	231	1
75	105	1
67	76	1
156	177	1
22	229	2
124	140	1
62	127	1
140	142	1
170	191	1
30	197	1
145	148	1
17	20	1
127	168	1
241	242	1
214	214	1
196	207	1
227	230	1
47	62	1
111	120	1
