152	152	4
104	104	7
34	36	1
117	139	1
1	1	8
54	54	5
75	75	4
73	73	12
7	101	6
110	110	5
127	127	1
131	131	6
111	113	2
53	53	8
119	119	5
158	158	4
129	129	4
78	78	2
114	141	2
116	116	9
110	115	3
71	71	4
4	4	3
6	98	2
98	98	9
10	12	5
139	140	4
92	97	1
46	46	4
45	46	2
135	136	1
121	121	1
12	13	6
11	12	2
155	156	3
93	93	11
109	109	4
35	36	10
4	5	2
25	26	2
2	2	7
136	137	8
136	136	5
132	143	3
102	103	3
42	42	4
23	24	1
57	57	3
43	43	5
106	106	6
2	3	1
112	112	2
99	99	7
0	0	7
48	50	2
84	103	1
120	120	3
32	104	3
101	101	4
51	51	4
29	30	3
98	101	1
21	22	5
83	83	4
52	53	1
36	37	2
108	111	1
131	132	1
111	111	7
47	47	4
31	32	5
81	81	4
12	14	2
113	114	5
20	20	4
154	154	2
126	126	8
132	132	5
150	150	5
72	72	1
12	12	6
122	122	3
46	47	10
87	88	6
133	134	4
108	108	2
41	41	1
64	64	1
21	21	5
100	100	5
3	3	5
79	79	7
48	51	7
103	103	6
76	82	2
90	91	1
125	144	2
32	32	10
75	79	1
29	29	3
50	51	2
13	13	2
8	10	2
69	69	1
36	36	1
135	135	8
7	7	4
141	141	10
119	121	3
149	149	1
134	134	6
51	52	2
123	124	3
15	17	1
38	39	1
13	19	1
144	147	1
159	159	4
24	50	2
145	145	1
92	92	3
4	24	3
115	117	5
55	56	1
16	16	2
82	82	2
22	43	2
122	126	3
40	41	4
117	117	1
147	147	3
5	5	5
38	38	4
67	67	5
55	76	5
149	150	2
151	152	2
66	67	1
13	14	3
118	118	1
20	22	2
9	10	1
97	97	8
143	148	2
44	44	2
79	80	5
22	40	2
8	8	3
53	54	2
47	73	1
130	130	4
1	2	3
49	51	2
5	98	3
109	110	1
44	45	2
133	133	1
95	95	3
56	56	1
132	133	2
34	34	1
56	79	2
27	27	4
10	10	2
50	50	4
68	68	1
114	114	3
75	105	2
34	37	2
52	52	2
57	61	2
35	35	6
85	94	1
24	25	2
158	159	1
19	20	2
116	130	1
31	33	3
48	48	1
71	126	2
63	63	1
88	88	1
19	19	3
148	148	2
77	78	1
98	99	4
86	86	2
67	68	1
90	90	1
6	13	1
24	47	2
123	123	1
151	151	4
109	121	2
113	115	3
116	117	2
91	91	1
30	30	7
41	49	1
39	39	1
123	127	2
128	128	3
105	105	4
125	126	1
138	138	1
22	22	2
33	33	2
12	21	1
128	134	1
154	155	1
5	7	1
156	156	2
139	139	3
100	101	1
67	69	1
137	137	2
96	97	2
16	17	2
70	70	1
101	102	1
25	27	1
122	140	2
45	45	2
87	90	1
6	6	1
7	85	1
130	132	1
155	157	1
27	48	1
11	11	1
50	80	1
4	13	1
41	45	1
87	87	1
63	70	1
24	24	1
67	79	1
157	157	1
14	14	1
48	49	1
31	31	1
127	148	1
22	23	2
17	17	2
78	123	1
94	94	1
138	139	1
17	19	1
11	30	1
43	93	1
44	51	1
49	49	1
107	107	1
111	117	2
12	16	1
