199	200	1
72	73	4
205	205	8
65	67	4
199	199	8
94	110	2
236	238	4
212	212	7
175	182	2
210	210	5
183	183	3
23	23	12
194	194	7
198	198	6
172	172	13
43	43	9
171	171	6
214	233	2
169	169	1
5	53	2
47	47	11
74	77	4
110	114	2
113	113	1
113	114	5
30	80	3
179	179	8
103	105	3
158	158	4
222	222	7
71	72	9
163	163	2
38	38	5
46	46	12
247	247	6
83	83	6
189	196	2
222	225	5
168	168	5
38	39	3
176	181	1
106	106	3
160	161	2
156	157	5
191	191	2
118	119	2
97	100	1
216	216	7
194	195	6
225	225	8
62	63	4
80	85	2
87	87	2
68	68	7
58	58	5
9	9	9
26	26	4
46	47	2
90	90	2
195	195	7
235	235	7
180	209	2
111	116	6
145	145	5
243	244	1
48	49	5
237	237	3
226	227	2
87	97	2
1	2	4
181	181	8
208	208	5
33	33	8
81	81	5
5	5	1
223	223	15
66	66	4
160	165	1
207	223	2
174	174	8
89	91	3
233	233	6
105	107	4
56	58	3
50	50	2
159	159	4
32	32	11
157	158	6
181	182	3
25	168	5
201	202	2
34	88	1
228	228	6
60	60	3
99	190	2
224	224	4
206	207	6
156	156	15
184	184	2
182	182	9
15	15	9
55	68	2
157	157	6
209	209	7
71	71	16
34	34	3
17	18	3
166	166	8
204	204	11
51	51	2
180	180	6
231	239	1
199	246	2
24	24	6
193	194	3
240	241	5
120	120	6
74	74	2
168	169	7
232	237	2
115	116	5
105	105	14
34	35	1
234	234	6
152	152	6
173	173	3
65	65	4
187	213	3
217	218	2
201	201	10
51	52	4
151	152	1
114	115	2
201	203	3
155	155	5
48	48	2
232	247	3
21	21	1
44	45	3
203	203	8
190	196	1
202	206	1
12	12	3
98	98	4
44	44	1
2	4	3
104	106	2
220	221	1
150	150	8
193	195	2
31	31	4
198	199	7
213	213	3
7	161	5
1	1	6
211	211	2
72	74	2
27	27	7
118	144	2
210	211	5
179	180	4
218	219	3
187	187	3
76	76	6
191	194	1
206	219	4
197	198	3
248	248	2
151	151	3
197	197	2
176	176	5
27	29	1
201	204	3
62	73	3
11	15	1
66	69	5
2	54	1
227	227	3
102	104	2
192	192	3
29	29	8
16	17	1
114	114	3
154	154	6
199	209	2
172	176	2
80	80	5
75	76	10
231	231	6
79	80	1
10	10	3
232	232	2
62	62	2
227	235	3
115	115	8
31	154	4
29	68	4
241	241	7
102	102	6
207	207	15
88	90	1
162	162	2
190	190	1
161	161	7
78	81	3
150	151	1
85	98	2
188	188	6
118	118	3
229	230	3
147	164	2
195	199	1
111	111	5
72	72	1
117	118	4
239	241	1
21	22	3
56	56	5
217	219	2
8	28	1
239	240	3
235	236	2
4	34	3
103	163	1
211	224	1
189	195	2
77	77	2
247	248	1
189	190	1
184	225	2
49	57	2
6	7	1
203	204	6
25	25	8
185	185	6
68	69	4
119	119	7
116	116	5
112	112	3
34	86	1
160	160	2
236	237	3
95	96	2
185	186	1
94	100	2
16	36	1
41	42	1
49	88	2
175	175	8
15	16	3
36	36	4
21	212	2
214	234	1
14	14	5
100	100	3
165	166	1
219	219	1
221	221	5
194	196	4
89	89	2
149	149	1
78	117	2
76	162	3
163	177	2
78	78	6
62	97	1
197	199	1
18	18	3
163	165	2
78	144	2
106	107	2
70	70	1
186	186	1
147	147	2
49	50	1
200	200	1
109	109	2
6	54	1
193	193	2
237	245	4
146	147	2
232	242	1
189	189	1
245	246	2
45	45	2
93	93	1
22	22	1
244	244	13
57	80	3
6	32	2
163	176	2
5	49	3
3	3	1
243	243	2
178	178	8
39	39	1
116	117	1
246	246	2
95	98	2
20	20	2
16	16	1
21	25	2
7	7	1
74	89	2
108	237	1
61	62	1
31	68	1
59	59	1
153	153	1
69	69	4
230	238	1
200	201	2
177	178	2
208	209	3
87	94	2
231	235	3
153	154	2
214	215	1
35	35	1
36	48	2
179	235	1
40	41	1
17	17	1
64	64	2
32	44	3
97	97	1
103	103	2
241	242	1
60	99	1
215	215	1
30	95	2
105	106	1
146	149	1
2	3	1
49	49	1
155	156	1
230	243	2
87	106	1
53	69	1
34	74	1
165	165	1
28	29	1
57	57	2
30	30	2
228	232	4
64	65	4
72	89	1
237	238	1
41	41	2
226	226	1
223	224	2
63	63	1
213	245	1
75	78	1
74	75	1
190	192	3
242	243	2
180	181	4
174	176	1
245	245	1
3	5	1
15	31	1
101	101	2
184	195	1
186	209	2
54	54	1
184	185	1
79	79	2
197	201	1
161	162	1
164	165	1
88	88	1
214	214	2
77	176	1
182	183	1
55	55	1
149	160	1
225	226	1
100	101	2
198	200	1
85	85	1
229	234	2
158	163	2
95	95	2
236	236	1
94	94	2
93	94	1
228	229	1
117	119	1
61	61	1
242	242	1
230	235	1
233	237	1
196	196	1
232	233	2
30	35	1
25	201	1
26	27	1
212	231	1
202	202	1
108	108	1
195	198	1
25	200	1
33	34	2
184	226	1
109	110	1
49	51	1
35	97	1
99	99	1
