21	21	3
114	115	4
110	110	4
19	19	8
68	69	4
135	139	3
61	64	2
127	127	9
123	123	9
62	95	3
88	91	1
57	57	6
55	55	7
129	130	14
27	27	6
117	117	6
70	71	1
3	33	2
137	137	2
31	31	3
60	114	3
3	3	5
14	15	1
73	109	1
93	94	3
34	37	4
66	87	2
70	72	4
62	88	4
130	130	10
141	142	5
37	37	3
104	104	3
19	24	2
60	118	1
32	32	11
135	135	11
75	120	1
34	36	1
53	54	3
111	111	5
65	65	10
57	104	4
131	131	6
105	105	3
84	85	7
122	123	3
82	82	7
25	25	3
134	134	2
39	39	3
38	40	1
24	24	4
61	61	6
25	43	2
138	138	3
11	11	2
122	124	1
112	112	6
10	10	7
93	93	12
107	107	5
48	123	1
59	59	4
58	60	1
129	129	12
111	112	4
74	82	1
64	64	11
100	100	1
82	94	1
121	121	8
65	86	4
49	49	6
118	118	5
78	94	2
105	106	1
126	129	1
136	137	3
110	113	1
68	68	2
122	122	5
65	98	1
102	141	2
74	119	2
5	40	4
72	72	6
135	137	2
9	9	2
3	4	4
54	54	7
138	139	1
85	98	1
109	109	3
1	1	3
63	63	3
30	30	5
58	109	1
34	34	6
124	124	7
103	103	8
16	16	7
80	80	2
83	83	2
97	97	3
128	128	8
61	62	3
24	25	2
139	140	2
126	126	4
89	89	3
101	101	10
58	59	2
142	142	5
18	18	8
60	61	2
14	14	2
62	87	2
128	130	4
121	125	3
21	22	1
58	58	4
65	139	1
77	78	5
95	133	1
106	106	3
91	91	8
73	73	5
115	116	2
143	143	1
23	23	5
13	21	6
78	83	3
55	136	4
52	52	3
69	69	4
47	56	1
10	24	1
66	67	1
112	113	1
86	110	1
99	99	3
96	133	1
42	42	6
76	82	1
51	51	3
4	33	1
0	5	1
133	137	1
60	60	4
136	136	4
105	127	2
79	79	2
56	95	2
122	126	1
87	88	3
110	120	1
98	140	1
32	123	1
33	33	4
36	36	5
119	119	9
83	126	1
25	117	1
120	120	2
78	79	6
67	68	1
102	102	3
110	131	2
70	70	3
49	71	2
109	110	1
29	29	1
4	4	2
71	71	1
24	26	1
6	6	2
76	76	1
98	98	2
96	96	2
141	141	9
69	119	2
87	89	1
94	94	2
97	98	1
77	77	1
117	138	1
80	126	1
132	133	1
114	114	4
79	81	2
112	127	2
17	17	3
90	91	1
74	74	5
39	40	2
30	31	1
92	93	2
8	74	2
49	123	1
74	128	1
140	142	1
92	92	3
41	41	1
125	125	2
95	95	3
87	126	1
35	35	1
110	111	1
85	85	1
102	103	5
84	84	1
55	63	2
75	108	1
90	90	4
132	140	2
108	108	2
85	109	1
81	142	1
69	70	4
48	48	1
50	54	2
103	126	1
29	30	5
85	129	1
63	119	4
95	141	1
13	13	3
41	42	1
98	109	1
73	74	2
67	67	1
116	116	3
117	118	1
3	5	1
135	136	2
130	133	1
78	78	1
133	134	1
50	50	1
62	117	1
143	144	3
74	75	1
64	114	2
133	133	1
139	139	1
70	110	1
22	22	1
0	1	1
89	90	1
9	104	1
9	24	2
65	66	1
83	84	1
118	119	1
113	115	1
56	56	1
40	40	1
62	63	1
132	132	4
52	71	2
83	85	1
26	26	1
54	55	1
57	117	1
53	53	1
82	93	1
8	11	1
62	93	1
108	109	1
113	114	1
98	99	1
113	113	1
126	127	1
17	81	1
