116	116	13
33	34	2
91	91	4
99	99	10
45	45	5
64	64	3
63	65	1
55	55	5
68	68	7
100	100	4
129	129	6
134	134	6
117	122	2
70	71	9
25	25	12
61	66	2
99	124	6
67	67	11
98	98	7
126	126	8
75	75	10
122	122	9
120	120	7
73	73	8
44	45	1
14	18	6
86	91	1
36	111	2
128	128	6
43	110	1
113	113	3
84	84	4
28	29	2
42	113	1
23	23	3
71	72	3
56	56	9
124	127	1
50	134	3
63	64	2
135	135	3
129	130	4
63	67	2
9	10	7
74	74	4
42	45	4
44	44	7
90	91	1
118	122	5
82	82	9
79	114	1
112	112	5
108	108	6
36	36	2
95	96	3
64	67	4
48	48	4
13	79	3
112	132	1
70	70	11
34	34	8
69	69	2
58	60	4
118	118	4
61	61	5
124	125	10
82	106	1
13	13	8
56	57	7
90	93	4
8	9	3
11	11	1
48	116	2
126	129	1
112	124	1
24	24	11
32	32	4
18	20	3
38	38	4
107	108	1
3	4	1
85	85	4
107	107	2
101	101	2
47	81	1
121	121	2
112	114	2
83	85	2
14	14	5
104	104	5
110	110	4
124	124	10
76	115	3
97	98	2
130	130	5
115	115	5
15	15	4
87	122	1
58	59	5
44	56	2
94	94	4
54	56	5
77	77	4
35	35	1
108	109	5
78	78	6
26	26	2
118	120	7
125	125	4
121	122	2
112	123	1
30	79	2
30	30	5
82	86	1
53	53	6
93	105	1
54	54	6
126	127	5
6	6	2
133	134	2
71	133	2
76	76	5
87	87	6
21	21	1
57	58	5
84	100	3
58	119	1
2	2	3
119	119	8
75	76	3
35	47	1
46	47	2
42	43	3
127	127	2
25	116	2
3	3	3
50	65	1
105	124	2
65	66	1
43	109	1
114	114	6
114	115	1
82	105	1
92	95	5
17	17	1
117	117	2
85	87	1
43	44	1
36	49	1
118	123	1
56	68	1
44	135	1
77	78	5
4	5	2
130	131	1
62	62	3
91	92	4
46	48	2
102	102	4
7	65	2
115	131	3
102	103	1
92	92	4
20	79	2
62	63	4
103	103	2
63	63	7
97	97	5
122	124	1
84	131	2
66	123	3
68	112	1
96	97	1
59	61	1
108	110	2
43	49	1
71	71	8
68	125	1
86	123	3
7	101	1
78	83	2
53	61	2
11	101	2
16	19	2
79	79	4
60	60	4
54	57	1
109	135	1
115	118	1
58	58	2
119	122	4
85	130	1
22	22	1
68	132	1
119	123	1
16	16	1
83	83	3
70	73	1
117	118	5
79	112	2
32	102	3
46	117	2
105	105	4
37	37	4
61	62	1
88	88	4
96	96	5
132	134	3
113	130	1
89	89	2
59	116	2
20	24	3
44	84	1
72	72	1
118	119	2
65	65	4
50	50	2
112	113	1
132	132	6
53	134	1
87	125	1
26	120	2
82	85	1
16	20	1
75	79	2
33	98	3
131	131	2
34	35	2
16	17	2
36	54	1
83	84	1
57	57	3
93	93	2
107	122	3
60	61	1
33	36	1
37	45	1
52	52	2
56	59	3
123	123	3
63	79	2
53	66	3
25	35	2
66	113	1
115	119	1
18	19	1
113	114	1
95	95	3
127	132	1
22	118	1
55	67	1
106	106	1
12	17	3
8	10	3
66	132	2
10	16	1
109	111	2
16	18	1
109	109	2
25	117	1
76	114	1
87	92	2
32	101	1
119	121	1
77	121	1
59	78	2
47	47	3
20	20	1
133	133	1
12	30	1
50	53	3
65	81	1
121	125	1
12	14	2
107	113	1
72	73	1
28	28	3
127	128	2
66	68	1
128	129	1
132	133	1
29	29	2
44	114	1
81	81	2
99	106	1
87	110	1
69	108	2
77	117	1
13	28	1
125	127	1
57	110	1
105	106	1
30	103	1
61	122	2
24	78	1
13	14	1
23	114	1
66	66	1
