108	108	19
55	56	10
69	71	1
67	68	6
7	7	35
121	122	10
54	54	10
120	120	12
83	83	13
116	116	34
3	4	4
122	123	3
16	16	14
21	22	11
91	93	9
47	47	9
20	20	16
52	89	4
137	138	13
15	18	3
89	89	10
14	14	19
71	71	20
149	149	18
17	26	3
14	15	7
88	88	25
133	150	4
84	91	2
86	90	3
81	82	9
96	96	16
163	164	9
94	94	15
123	125	8
18	21	8
9	10	9
150	151	3
43	43	23
105	105	10
115	115	12
97	97	18
69	69	16
152	152	19
37	37	9
83	84	3
109	110	16
85	85	10
22	23	11
44	47	7
139	144	1
44	44	22
73	73	18
81	83	2
1	1	21
118	130	5
8	8	20
22	22	19
159	165	6
90	98	4
150	150	15
92	92	8
104	105	1
52	52	4
87	88	9
100	102	10
131	132	4
0	0	4
33	34	7
156	156	18
24	24	21
52	53	6
14	56	3
44	45	13
157	157	9
46	47	5
64	64	12
74	74	7
160	160	14
24	25	10
162	163	1
114	114	23
74	75	14
136	137	5
166	166	4
2	4	6
139	140	9
117	119	4
19	19	10
1	3	6
169	169	12
137	137	6
126	166	2
114	115	11
167	167	11
68	76	1
136	138	7
152	153	13
42	43	8
87	87	13
118	118	19
126	131	3
111	114	5
53	55	4
169	170	10
18	20	6
166	167	4
92	101	1
49	49	16
50	67	3
92	93	10
134	150	3
51	51	8
93	95	2
136	136	14
138	138	5
133	133	7
162	162	13
77	77	12
130	130	17
65	75	6
77	78	5
67	67	12
27	52	5
2	3	12
153	154	8
142	142	16
76	78	8
125	127	3
125	126	8
64	69	2
5	6	3
11	12	14
42	42	23
132	132	17
145	145	6
76	79	2
158	159	3
35	36	7
160	161	4
40	46	7
119	120	14
153	153	19
62	64	2
136	141	1
69	70	12
47	67	2
15	20	5
126	126	9
100	100	23
91	94	13
127	127	19
158	158	8
44	46	3
26	26	16
170	170	9
161	161	15
20	21	13
123	123	12
45	46	9
9	9	23
96	97	1
50	50	11
122	122	13
90	90	17
41	41	10
130	131	9
35	37	5
7	77	3
51	52	2
1	105	4
48	95	6
62	62	10
48	48	22
89	90	7
112	112	11
143	148	2
86	88	2
53	53	8
144	145	7
126	132	3
39	39	8
155	155	16
144	146	5
98	98	12
149	150	4
41	43	4
163	163	13
51	89	2
106	106	14
131	131	21
18	18	8
110	113	5
63	63	7
97	99	12
48	68	5
91	92	7
102	104	3
152	154	3
48	55	2
9	107	5
40	40	10
115	117	3
119	126	7
164	164	14
3	82	2
33	33	15
81	81	7
131	154	3
8	10	7
36	36	10
120	121	4
82	82	24
65	66	7
35	44	3
103	103	12
104	104	5
2	2	20
91	91	13
111	111	23
115	116	2
13	13	18
65	103	1
63	66	1
46	46	17
137	140	3
86	87	7
134	134	20
150	152	3
84	84	12
133	134	5
48	49	3
11	11	11
95	95	15
112	114	6
101	105	1
139	143	4
134	135	11
119	119	5
3	3	10
90	91	2
111	132	1
129	131	3
78	81	2
6	7	9
159	159	19
130	155	2
12	16	1
113	115	5
51	90	1
118	122	2
64	66	8
5	5	9
84	85	8
6	6	9
85	86	5
12	114	3
27	28	1
118	148	4
167	168	5
165	165	4
17	25	4
115	129	7
125	125	13
117	117	15
168	168	8
4	4	12
10	10	18
23	23	17
72	72	9
52	66	2
86	86	14
52	90	5
39	40	9
75	75	4
19	23	1
1	108	1
124	124	19
27	27	17
159	167	3
110	110	15
89	137	3
154	154	18
37	38	8
55	55	11
140	160	3
78	78	6
148	148	5
168	169	6
13	115	2
151	151	5
71	72	5
75	107	9
23	24	10
89	91	2
127	132	3
164	165	9
39	46	5
103	104	10
146	148	3
105	140	2
15	15	6
55	95	4
76	76	19
98	100	2
153	155	2
39	41	2
56	64	4
37	40	6
25	54	1
3	5	4
47	50	3
68	69	5
48	50	6
47	48	5
39	49	5
104	145	3
119	121	4
99	99	8
8	11	4
88	90	2
45	52	5
107	108	9
105	107	1
21	23	2
142	143	1
135	135	10
61	70	1
67	69	3
70	86	2
120	122	4
127	166	2
17	17	11
56	70	5
38	38	24
140	140	6
16	28	4
135	136	3
38	39	8
41	53	4
66	66	16
56	56	10
145	151	1
70	70	18
101	146	2
66	67	6
5	114	2
132	154	2
117	148	1
37	93	2
17	19	2
53	78	2
137	145	2
97	98	2
156	157	6
9	53	2
129	130	2
146	147	8
106	107	6
129	129	9
36	89	3
143	143	7
71	87	3
139	139	2
126	127	6
88	89	9
69	73	4
84	86	5
103	119	1
109	109	7
118	119	9
111	113	5
63	71	4
110	111	14
79	79	15
113	113	8
121	121	12
127	128	5
104	111	1
92	99	3
133	151	2
74	82	2
43	52	2
8	9	3
101	101	7
25	25	13
117	131	2
25	32	4
95	96	5
92	94	9
16	17	2
85	90	1
53	77	4
70	71	3
13	25	2
62	69	2
76	83	1
38	49	3
39	53	2
5	12	1
45	45	6
7	9	4
34	34	6
14	48	1
128	128	7
104	106	4
65	69	1
74	103	1
106	111	3
3	112	3
155	157	2
155	156	7
40	44	3
17	93	3
156	159	1
115	118	3
100	137	2
124	125	17
79	80	2
105	113	1
17	18	4
129	156	2
6	97	2
146	160	1
147	147	6
48	97	1
103	107	1
93	94	4
123	124	5
149	169	2
73	74	2
39	45	2
105	106	3
85	96	2
146	146	8
17	36	2
40	41	5
151	152	6
117	128	1
112	115	2
8	16	4
102	103	4
148	170	3
47	49	6
15	35	1
70	73	5
45	73	4
66	75	4
139	141	2
22	25	3
25	26	2
41	45	2
93	93	11
33	35	5
65	67	3
37	41	2
64	75	3
139	142	4
107	107	10
165	167	2
3	80	1
94	99	5
138	145	3
83	100	2
6	8	3
43	48	3
113	114	3
21	21	8
66	102	1
70	72	2
1	2	6
115	119	1
141	150	1
54	55	3
13	14	9
11	13	3
77	82	2
158	168	6
151	160	2
108	109	7
72	83	2
15	17	2
101	102	2
144	144	8
76	81	2
6	12	9
120	131	2
78	79	6
102	110	5
15	16	3
145	148	2
21	51	2
142	153	4
58	70	1
42	45	1
80	82	7
96	104	1
18	24	1
140	141	2
141	142	1
10	107	1
50	52	3
92	95	4
125	161	3
143	146	3
95	98	4
10	11	6
148	149	2
137	141	4
37	42	1
109	112	3
135	137	5
140	142	3
143	149	2
100	111	4
141	141	7
9	12	1
68	103	3
57	62	2
33	56	5
90	94	1
159	160	7
146	159	3
126	146	5
44	143	3
124	152	2
42	103	2
82	84	1
101	104	5
101	103	2
119	125	2
133	157	1
49	55	2
145	147	3
149	151	4
94	95	3
18	19	3
7	11	2
149	152	2
136	139	2
43	44	6
27	63	1
0	106	1
72	73	2
69	72	1
159	164	2
72	87	2
62	63	7
28	28	4
105	146	3
45	51	4
73	86	1
102	102	5
63	64	3
36	37	2
28	35	1
167	169	2
80	80	5
123	165	2
18	139	2
40	90	2
149	168	1
73	75	3
16	43	2
34	35	2
62	98	1
56	88	1
80	81	1
100	110	1
63	93	1
111	112	8
13	15	5
10	12	6
78	87	1
99	100	6
6	99	2
163	165	4
6	115	1
118	121	2
95	99	2
40	45	2
148	159	1
138	144	1
161	162	6
35	35	3
0	3	2
88	94	2
23	51	1
68	68	3
17	28	1
87	89	2
4	115	2
41	42	6
130	156	1
27	64	1
86	98	1
15	19	1
71	73	3
12	55	2
20	22	2
12	53	1
166	168	2
118	125	2
37	39	1
45	64	1
65	65	5
6	81	1
84	97	1
19	20	3
23	25	1
136	155	2
24	51	3
89	95	2
20	37	2
113	151	3
78	86	1
16	18	1
7	10	1
52	54	3
154	155	2
38	41	1
98	99	3
17	34	2
6	114	1
76	77	2
58	87	1
39	50	1
15	57	1
12	13	1
118	131	1
50	56	2
128	132	1
150	157	2
91	99	1
117	118	2
157	168	1
112	113	1
24	96	1
100	116	2
49	89	1
106	146	2
46	50	3
63	65	1
4	5	2
87	91	2
27	58	1
2	80	1
41	49	1
12	12	2
88	93	1
154	156	1
38	91	2
112	138	1
15	55	2
85	114	1
37	88	1
128	156	1
63	87	1
42	47	1
100	119	1
107	144	2
8	37	1
5	16	1
150	160	2
141	149	1
115	157	1
52	78	1
61	69	1
75	76	1
64	99	1
34	53	1
14	45	1
105	145	1
138	139	1
137	139	2
138	142	1
78	80	1
86	113	1
140	146	1
113	125	1
77	79	2
103	105	1
63	92	1
6	19	1
52	75	1
42	46	1
52	80	1
134	158	1
77	86	1
58	58	1
10	37	1
133	135	1
70	87	1
72	74	1
120	123	1
6	102	1
158	160	2
75	79	1
83	97	1
8	100	1
6	43	1
38	51	1
34	55	1
5	48	1
152	163	1
64	72	1
140	144	1
114	116	1
121	123	1
102	138	1
63	70	1
14	16	1
110	134	1
101	106	1
85	87	1
128	129	1
53	54	1
53	63	1
32	32	1
148	169	1
40	51	1
