142	142	3
141	141	9
88	128	3
121	121	5
153	153	2
65	65	3
161	161	3
138	139	3
127	129	1
89	140	2
3	41	4
42	44	2
45	45	5
177	178	4
53	53	5
188	189	2
140	140	2
71	76	1
179	180	2
10	42	1
36	36	2
9	9	3
80	80	3
108	110	3
132	132	2
124	124	2
38	38	4
123	123	7
10	10	3
5	5	2
146	146	3
16	16	6
172	172	8
105	136	1
31	31	2
52	52	8
148	150	1
28	30	2
46	60	2
110	115	1
85	85	8
29	29	8
41	76	6
89	89	4
91	92	1
81	82	5
117	117	6
173	173	2
145	146	1
111	111	1
86	87	2
27	34	3
172	174	1
75	83	1
23	25	2
176	176	5
150	150	6
185	189	1
73	76	1
154	154	3
78	79	2
173	175	3
139	139	6
113	113	3
134	134	10
137	138	3
2	3	3
23	23	1
83	83	6
57	57	2
42	42	2
97	98	9
13	23	3
14	14	7
22	46	1
147	147	3
170	170	2
119	120	2
7	7	7
25	74	2
18	22	4
26	33	2
124	125	3
171	171	1
121	122	6
26	26	3
126	126	6
156	156	4
155	155	3
99	99	5
155	156	5
29	41	3
15	15	4
49	80	3
150	184	2
131	131	3
120	122	1
105	108	3
70	70	10
22	22	5
190	190	7
30	30	2
40	40	5
54	54	9
178	180	3
77	77	4
104	105	2
172	176	1
115	116	3
136	136	4
41	41	3
147	149	2
189	190	1
37	37	3
15	143	2
129	129	3
138	181	1
182	182	7
16	22	4
62	63	6
119	119	5
157	157	3
71	71	6
79	81	5
79	82	4
113	119	2
160	162	3
118	131	1
9	10	2
167	173	3
133	133	1
15	25	1
132	135	2
21	21	4
25	25	5
90	90	5
29	32	2
183	183	1
162	162	3
139	152	2
73	73	3
27	42	5
67	68	4
118	118	7
125	135	3
43	44	1
93	94	1
64	97	1
43	66	3
93	93	4
39	39	8
133	137	3
12	12	8
146	147	4
13	26	3
75	75	1
58	63	2
152	152	3
84	152	2
48	48	12
138	172	1
25	40	2
108	139	1
188	188	8
140	141	5
105	105	2
113	115	3
104	106	2
104	104	4
168	168	2
113	114	2
6	7	1
154	157	1
100	100	2
147	150	1
89	158	2
100	125	4
166	169	1
47	59	2
112	115	1
7	8	1
60	62	1
139	154	1
89	110	3
77	78	5
114	114	3
115	115	1
105	107	2
46	47	4
153	186	1
2	41	1
83	99	2
55	55	2
186	186	6
32	34	4
130	133	1
124	129	2
1	1	4
102	102	1
145	150	3
130	132	1
133	185	2
159	159	1
143	143	2
176	177	2
160	182	2
18	19	3
90	94	2
108	108	2
106	106	1
58	98	3
81	83	1
34	34	3
61	61	3
139	173	2
159	168	1
9	11	1
97	99	1
182	183	3
88	88	2
17	17	1
17	21	5
16	17	2
109	119	2
160	160	2
122	123	1
101	101	5
68	68	2
24	25	2
96	96	2
151	151	5
114	117	2
81	81	2
184	185	2
35	35	1
98	98	1
167	167	1
65	80	3
46	73	1
70	71	2
12	76	4
20	21	1
127	127	2
80	82	1
87	87	1
66	79	1
84	84	4
92	121	2
118	130	1
178	178	3
95	95	4
86	97	1
53	71	2
24	74	1
43	43	1
112	112	3
178	179	2
29	30	2
187	187	3
31	33	1
45	63	3
72	72	2
187	188	1
168	169	1
19	35	2
33	35	1
11	11	1
161	162	1
106	107	2
175	176	2
181	181	2
136	181	2
42	59	2
30	34	1
60	61	5
131	132	1
48	75	3
108	138	1
84	86	2
135	135	2
25	187	2
189	189	1
154	158	1
71	73	1
117	118	2
66	66	2
106	113	1
58	75	1
91	91	5
25	37	2
111	125	1
74	74	3
130	131	2
18	23	1
13	13	1
25	38	1
16	184	5
84	154	1
147	148	2
44	64	1
10	71	1
45	46	1
99	106	1
118	121	1
145	145	1
79	126	2
58	59	1
47	47	1
11	80	1
12	13	1
75	151	1
14	15	2
76	76	1
18	18	1
92	92	1
96	97	1
79	79	1
107	107	1
65	81	1
141	143	2
185	186	1
112	116	2
154	156	3
179	179	1
129	132	1
14	83	1
103	104	1
119	121	1
142	143	1
84	153	1
99	101	1
135	148	1
66	67	2
94	94	1
59	79	2
117	120	2
78	78	1
154	186	1
122	126	1
62	78	1
158	158	2
158	160	1
133	134	1
59	61	1
93	136	1
110	111	1
24	185	1
87	109	1
129	130	1
10	76	2
142	145	1
165	166	1
125	125	1
12	41	1
76	77	1
148	188	1
94	96	1
88	89	1
24	24	2
83	134	1
22	23	1
96	137	1
57	61	1
11	12	2
36	37	1
81	118	1
47	64	1
82	97	1
