25	25	5
96	115	3
47	56	3
175	175	3
116	119	3
111	112	3
64	70	1
97	97	6
98	99	7
67	97	8
36	53	3
87	87	4
39	39	9
37	37	11
95	95	7
73	73	2
86	87	1
106	106	3
164	164	3
117	120	2
100	100	6
5	5	7
166	166	1
56	56	7
88	127	3
71	71	5
92	98	2
80	80	3
6	6	14
87	129	1
61	61	5
76	147	1
38	40	4
138	138	8
113	113	11
83	84	2
89	89	6
142	142	7
62	62	6
106	107	3
3	3	5
81	81	3
21	21	8
63	64	3
54	54	11
65	134	1
40	41	2
1	1	8
4	13	1
18	30	1
169	182	2
15	15	5
176	177	4
139	139	5
23	23	5
8	14	2
107	107	4
156	156	8
8	8	8
140	140	1
21	22	2
52	52	4
57	57	4
161	170	3
84	85	5
105	105	7
94	116	2
107	111	1
136	136	6
77	77	10
85	86	1
184	184	2
30	30	10
58	58	5
91	96	3
116	162	6
108	108	2
86	86	4
172	172	3
27	46	1
43	44	4
60	60	3
22	22	4
47	47	7
16	18	2
32	34	2
57	59	1
59	59	7
5	6	3
120	129	1
154	154	4
53	54	8
10	11	1
53	53	7
93	161	4
30	42	4
80	146	6
99	99	4
148	148	4
12	17	3
115	115	4
22	27	4
114	115	4
129	129	9
17	18	3
123	123	8
15	183	6
55	55	2
28	28	12
144	145	5
10	10	6
73	74	4
74	74	1
60	63	1
14	21	1
110	110	5
145	157	4
131	132	5
71	130	1
139	148	4
27	43	1
14	18	1
20	20	4
93	94	3
78	78	7
27	29	1
171	171	1
45	45	8
96	96	4
174	174	5
54	58	4
29	29	1
73	108	7
101	102	2
100	125	2
85	85	2
98	98	9
128	128	4
24	24	2
27	27	7
136	137	5
41	41	4
8	142	3
109	109	3
97	116	5
60	61	1
72	109	3
90	91	6
158	158	4
88	89	2
2	2	4
0	43	4
153	153	7
17	17	4
187	190	1
48	48	7
12	144	1
11	20	3
183	183	2
176	178	3
40	40	3
127	128	1
58	64	3
62	63	1
126	128	7
117	117	1
43	43	6
35	43	2
181	181	3
152	152	4
99	100	2
146	146	8
68	69	2
124	125	1
164	168	3
42	48	3
122	122	8
189	189	2
78	82	4
31	31	1
112	112	3
104	130	2
94	94	6
92	92	3
125	125	1
116	157	1
70	71	3
89	114	2
64	137	5
12	73	2
30	32	5
59	61	1
35	36	1
185	187	3
44	46	4
15	34	4
151	151	3
19	19	7
148	149	1
142	143	2
180	180	5
170	170	4
79	87	3
187	188	1
63	63	1
18	18	1
107	108	3
160	161	3
154	161	4
110	176	3
36	38	1
125	127	1
182	182	5
3	48	1
82	82	3
16	16	8
62	74	2
135	156	1
16	142	1
100	104	1
75	151	1
136	139	1
64	65	3
110	111	4
12	147	1
76	77	3
163	163	5
36	36	2
156	164	3
178	179	2
2	6	3
42	42	11
187	187	2
141	141	2
11	11	3
162	162	8
132	132	3
130	131	2
11	12	1
29	34	3
127	130	2
81	154	5
44	44	1
72	72	4
9	16	1
117	125	1
57	66	4
75	147	1
0	0	3
21	52	3
53	56	3
43	53	3
143	143	3
147	147	2
8	9	1
92	116	2
66	66	2
111	123	1
7	8	1
27	28	2
28	30	2
34	34	1
9	9	1
165	165	3
78	79	1
3	4	2
12	156	1
63	156	1
178	183	1
161	161	1
6	10	3
56	57	3
125	129	1
131	134	1
146	151	1
13	57	4
16	41	7
73	75	1
38	82	2
111	111	3
7	7	3
34	126	2
135	135	1
26	26	7
61	62	1
144	144	2
124	124	2
150	150	2
67	67	2
120	120	2
21	70	1
185	185	5
97	98	2
78	80	2
12	14	1
55	56	4
177	177	3
14	15	1
178	181	2
189	190	1
59	60	1
126	126	1
121	128	1
58	62	1
26	129	1
100	117	1
10	22	1
69	69	1
32	35	2
14	17	2
185	186	3
70	128	2
16	21	1
134	148	1
156	162	2
98	113	3
157	157	2
38	38	2
130	130	1
20	25	2
155	155	4
19	21	2
101	101	1
123	177	1
109	110	1
125	153	2
190	190	6
71	74	1
96	158	1
140	141	2
17	21	4
170	174	3
2	60	2
155	167	1
136	156	1
90	90	4
153	154	2
164	165	1
165	178	1
32	33	1
22	23	1
37	38	1
133	138	1
101	104	1
74	108	1
13	13	3
104	127	1
105	106	1
15	17	1
125	126	1
104	106	1
46	46	1
90	121	1
127	151	2
13	15	1
68	140	3
110	112	2
69	110	1
63	78	1
188	188	3
74	75	1
135	147	1
113	114	1
172	176	1
166	172	2
20	22	1
174	175	1
129	141	1
66	68	1
84	149	1
26	32	1
12	13	1
35	35	1
10	97	1
20	21	1
119	119	1
25	26	1
40	61	1
121	122	1
92	93	1
90	119	1
160	162	1
14	14	1
102	102	2
18	24	1
121	121	2
95	125	1
15	16	1
12	12	1
75	75	1
127	127	1
55	57	1
16	17	1
182	183	1
171	176	1
79	79	1
135	138	1
115	116	1
107	115	1
