184	189	4
112	112	3
192	195	9
192	211	4
171	171	6
234	235	4
189	191	2
198	198	3
245	246	7
211	234	1
181	245	2
14	14	5
194	194	7
82	82	6
59	59	1
168	178	2
120	120	8
116	116	6
217	218	1
201	202	3
159	159	7
76	77	5
185	185	4
153	153	10
157	157	3
112	113	10
154	154	8
182	182	3
190	190	2
186	220	6
154	156	2
40	40	8
83	89	3
9	9	12
155	155	4
229	230	4
38	39	6
200	228	4
32	33	7
179	179	5
186	186	9
176	176	2
56	92	6
183	212	1
192	192	3
110	110	7
234	239	1
53	53	3
163	164	2
92	92	4
79	82	2
42	43	3
63	63	3
181	181	3
60	60	4
56	61	1
242	243	4
52	52	4
12	12	6
97	97	4
169	175	2
213	213	3
178	179	3
148	158	1
106	106	6
177	177	1
101	101	4
8	8	5
237	237	6
43	109	1
44	44	3
166	175	3
64	64	4
211	211	6
96	96	4
109	117	2
56	233	3
86	97	2
69	91	2
159	160	2
168	168	3
81	81	6
37	62	1
61	61	2
77	77	8
108	170	2
40	109	6
200	200	2
197	233	3
83	97	2
149	151	3
52	54	6
241	245	1
162	162	5
238	238	7
210	210	4
112	120	1
32	32	4
146	163	2
35	35	7
86	181	1
16	16	9
88	88	4
169	169	1
119	120	2
180	180	7
5	34	1
219	224	1
86	86	7
172	172	7
167	168	6
220	221	4
22	22	4
195	195	5
233	233	4
166	176	4
230	231	1
152	152	3
223	231	4
59	63	3
224	224	4
5	5	3
71	71	10
89	90	2
107	116	2
29	31	1
228	228	2
67	68	4
68	71	2
183	210	4
88	104	1
212	212	9
244	244	2
80	81	8
166	166	2
225	225	5
213	214	5
75	75	10
16	53	5
197	197	11
151	151	8
185	186	5
103	105	1
189	190	2
46	46	5
105	108	2
173	173	7
42	42	3
167	167	1
7	7	4
87	88	4
194	196	2
231	244	1
243	243	8
238	240	3
50	50	1
118	118	10
82	84	2
246	247	1
222	222	3
174	174	7
176	177	3
198	199	2
192	230	4
209	209	6
87	87	6
33	150	1
146	147	1
223	238	3
117	117	4
201	201	1
70	70	2
39	40	4
195	208	6
117	119	6
199	199	1
12	58	4
19	19	6
158	159	4
247	248	2
151	154	2
71	86	3
93	93	5
0	0	3
48	62	1
76	76	3
239	239	2
187	187	11
171	181	3
218	225	6
90	90	1
84	84	6
214	214	6
80	85	2
28	28	1
59	60	2
113	113	4
6	6	8
43	43	4
228	244	1
43	52	1
234	236	1
1	2	2
111	111	8
181	184	3
109	114	1
28	205	2
19	205	3
168	169	1
216	216	4
208	208	7
45	45	4
62	62	2
191	191	3
42	202	1
105	149	2
66	86	3
33	33	4
10	10	1
178	178	2
224	238	1
83	84	1
157	166	1
10	11	2
45	46	7
177	178	2
221	221	2
6	10	1
28	35	1
172	183	5
56	57	2
149	149	2
49	50	2
180	205	2
26	26	1
79	79	3
147	176	1
152	153	2
30	236	1
36	172	1
170	171	1
44	85	2
21	22	2
167	169	2
173	189	1
32	183	3
235	235	4
19	226	2
233	234	6
175	175	5
168	204	2
74	74	1
81	82	3
203	203	3
17	181	2
230	230	4
204	204	3
69	88	2
79	80	3
246	246	3
198	200	1
85	110	1
39	39	1
166	214	1
10	17	2
200	241	1
27	93	2
38	38	1
240	240	8
69	70	1
3	3	2
146	208	1
237	245	1
98	98	5
95	95	1
205	205	1
4	4	5
17	32	1
115	115	3
101	102	4
91	100	1
202	202	3
175	177	2
104	105	4
165	166	3
215	215	1
185	220	1
205	206	1
46	47	1
6	7	2
27	27	2
191	192	7
30	30	1
114	114	1
244	245	1
248	249	1
85	85	3
12	236	2
94	94	4
223	223	4
161	168	2
84	85	3
217	217	3
166	172	1
76	89	1
196	197	2
43	44	1
2	4	1
8	26	1
220	220	1
83	83	3
169	182	1
215	230	1
94	180	1
163	163	1
36	56	1
180	181	1
98	99	1
145	210	1
57	62	2
193	194	2
226	226	2
47	89	1
193	193	2
54	93	2
54	54	3
231	232	1
145	145	1
241	241	2
49	49	5
25	25	1
248	248	1
164	164	1
15	15	1
104	104	3
116	187	2
6	19	2
40	41	2
6	32	2
84	86	3
75	180	1
183	183	3
197	198	1
246	248	2
8	9	2
245	248	2
183	186	1
150	150	3
214	216	3
15	59	2
26	27	1
15	147	1
42	205	1
41	41	1
192	197	1
170	174	2
77	84	4
57	60	2
229	229	2
38	156	1
192	198	1
78	79	1
31	31	1
162	169	1
119	119	1
172	186	1
76	78	1
212	237	2
47	101	2
66	85	2
72	74	1
55	55	2
65	65	2
90	97	1
236	239	1
186	187	2
156	156	2
31	183	2
2	2	1
245	245	1
243	244	1
158	158	2
20	20	1
47	114	1
161	161	1
103	103	2
222	223	1
245	247	1
36	36	3
234	234	2
78	78	1
90	100	2
208	213	1
95	98	1
238	239	1
1	1	1
211	212	1
72	84	2
14	15	1
113	115	1
212	230	2
89	89	1
196	196	1
58	58	1
3	35	1
24	24	1
180	217	1
48	63	1
21	21	1
72	106	1
170	187	1
81	84	1
153	155	1
247	247	1
215	218	1
66	66	2
74	86	1
49	223	1
75	105	1
226	240	1
72	75	1
80	80	1
40	42	1
203	204	1
74	99	2
115	116	1
