22	22	7
123	123	16
113	113	7
110	110	3
35	35	9
107	108	4
77	102	1
9	9	8
87	88	2
136	138	4
8	8	7
36	36	9
19	19	4
125	125	15
92	92	7
1	2	3
14	14	3
134	134	15
106	107	3
97	97	7
119	119	9
99	99	7
90	90	3
140	140	6
138	138	8
121	121	2
131	132	4
102	102	3
133	133	6
81	81	8
22	92	3
93	115	1
132	132	15
5	6	4
9	10	2
7	7	7
135	135	12
71	73	3
73	73	8
81	82	5
108	108	5
34	34	1
80	80	10
74	74	11
95	95	10
15	16	4
27	28	6
131	131	16
132	139	1
76	77	3
25	25	7
21	101	1
18	19	1
3	3	2
81	100	6
98	98	6
88	88	4
91	103	4
128	128	1
85	85	8
74	75	2
99	100	1
38	38	3
81	86	1
107	117	2
127	127	5
106	125	2
126	126	12
115	122	4
104	104	6
124	135	2
1	1	9
85	86	4
29	30	2
137	137	5
92	93	4
124	130	7
109	109	1
82	82	7
75	75	5
24	26	2
0	0	3
124	124	6
79	82	1
76	76	4
11	11	5
71	105	2
5	9	3
18	33	1
121	122	5
93	94	3
106	106	3
135	138	3
71	71	1
10	10	8
6	6	4
114	122	3
95	115	3
15	18	2
87	87	4
114	114	10
136	137	5
78	80	1
73	78	2
103	104	2
14	81	1
79	79	3
6	33	3
83	84	3
93	103	5
102	103	2
16	16	2
98	101	1
139	139	4
116	116	5
131	136	2
130	130	6
20	20	3
5	5	1
104	106	1
93	95	1
120	121	8
105	112	2
13	66	2
72	72	5
23	25	3
111	111	2
21	21	6
89	89	3
93	93	4
129	129	9
79	138	1
77	134	2
71	74	2
3	32	1
104	105	2
123	125	2
127	128	3
37	79	3
72	108	1
91	123	1
77	78	3
72	73	2
86	88	2
76	80	2
118	119	2
115	115	5
122	122	6
27	27	3
32	36	1
105	105	2
20	22	2
30	31	2
91	120	5
81	96	1
101	104	2
97	113	2
13	15	1
71	72	1
117	118	2
78	78	5
74	95	1
103	107	1
91	91	3
135	136	1
116	117	1
118	118	2
6	25	2
26	26	1
8	15	1
104	120	2
23	23	2
136	136	8
79	80	2
36	37	1
95	100	1
122	123	1
101	101	1
84	85	2
83	103	1
26	27	1
24	24	2
18	18	2
119	122	4
86	86	1
77	109	3
17	23	2
127	130	1
19	20	1
88	139	2
93	106	2
76	82	1
116	122	1
94	94	1
137	138	1
13	13	5
7	9	6
4	4	1
72	77	2
88	91	2
117	117	3
123	124	1
127	131	1
17	17	1
116	121	2
91	125	1
100	100	1
12	12	2
73	74	3
130	131	2
96	96	1
34	35	2
103	108	1
140	141	1
103	103	4
124	125	2
130	134	1
27	29	1
112	112	1
134	135	1
80	104	2
112	116	2
32	32	2
37	37	2
33	33	1
86	90	1
96	132	2
126	128	1
95	117	1
103	109	1
101	113	1
73	116	1
