230	230	12
61	62	8
233	233	10
121	121	6
210	210	19
227	227	11
135	135	8
34	34	10
40	40	18
147	147	7
74	74	9
68	69	2
36	39	1
205	205	5
76	79	5
174	174	7
26	26	7
143	143	2
4	4	7
192	211	1
25	36	4
42	42	19
176	176	3
71	71	12
37	37	21
85	85	20
231	231	3
53	219	8
200	200	11
10	10	15
180	181	5
226	227	9
176	177	9
183	205	1
187	188	5
136	136	11
239	241	9
142	142	8
211	211	11
47	47	16
26	28	3
69	69	13
42	43	10
106	119	2
190	190	11
181	181	8
36	37	2
99	109	1
63	66	3
38	39	2
185	185	14
46	46	9
22	22	13
159	159	5
60	61	10
72	73	8
38	44	2
168	171	3
109	109	5
172	172	5
65	67	13
0	23	2
20	20	11
206	206	7
7	9	3
165	165	8
41	61	1
38	38	25
9	10	4
42	50	1
104	105	7
168	172	2
123	123	4
10	28	2
197	197	8
186	186	5
51	56	2
67	67	17
181	203	4
29	29	18
53	53	3
84	85	8
8	8	11
146	176	3
207	208	4
168	168	5
138	138	2
134	149	8
178	178	8
238	238	5
17	18	4
36	48	2
84	86	8
79	81	4
194	196	6
34	35	6
23	23	13
19	21	3
229	229	17
24	25	12
49	49	13
159	160	2
212	212	9
222	222	5
166	167	5
230	231	3
13	48	5
19	19	10
41	42	8
65	65	5
155	155	1
28	36	3
62	62	10
199	200	3
218	220	2
191	211	2
219	219	7
13	14	10
225	225	5
152	153	4
86	86	22
186	188	3
113	113	4
103	103	10
63	63	4
169	169	9
101	101	8
11	101	3
73	74	1
0	2	6
81	87	2
224	224	9
11	11	14
154	155	3
117	126	2
226	226	3
14	15	8
160	160	6
40	41	12
9	9	17
2	7	1
181	182	1
144	145	11
195	196	7
122	122	9
43	56	3
1	1	7
147	166	3
201	201	10
150	152	8
4	8	3
199	199	2
139	140	7
183	184	1
96	106	1
179	190	3
232	232	5
153	154	6
162	163	12
81	85	3
21	21	10
71	72	18
38	40	2
208	210	2
6	6	8
142	218	5
203	236	2
181	183	2
197	198	7
72	72	5
214	215	4
21	23	7
5	6	3
102	102	10
144	146	8
148	148	10
170	171	9
43	43	14
212	226	4
162	162	11
114	118	3
143	172	2
233	234	3
73	73	6
84	84	9
27	27	10
141	142	8
55	55	21
21	221	5
15	29	3
179	180	2
183	183	3
143	146	3
203	204	2
128	128	13
36	63	2
213	214	1
57	58	3
36	36	12
148	149	4
208	212	4
45	45	12
48	52	2
152	154	4
150	174	2
193	193	4
182	183	8
14	16	5
198	198	7
175	175	4
42	44	6
85	86	9
54	54	6
133	173	8
187	187	21
151	151	4
233	236	1
203	211	1
58	59	4
164	164	4
241	241	3
22	23	4
167	167	10
72	74	1
37	38	6
24	24	3
38	47	5
193	240	5
6	7	8
103	105	1
66	67	8
241	242	3
163	163	15
13	39	2
67	68	5
88	89	1
179	179	7
118	118	4
112	112	6
39	39	2
36	227	3
79	79	3
136	189	2
194	194	8
177	177	6
144	144	4
10	39	5
189	189	3
4	5	3
223	227	2
15	16	5
101	102	3
3	5	2
33	35	2
180	180	4
213	213	3
202	207	2
69	70	9
8	12	3
218	218	3
157	157	4
23	28	5
2	3	5
235	236	7
235	237	5
198	213	2
14	14	5
30	31	6
188	189	3
217	218	6
49	51	6
68	68	7
28	229	1
214	214	4
28	28	13
220	222	3
173	175	1
0	0	4
137	138	2
153	153	7
30	30	15
129	129	3
61	61	18
127	128	6
142	144	5
52	57	4
12	18	2
240	240	5
4	6	3
28	29	3
236	236	8
104	104	14
59	61	2
98	98	6
73	76	2
145	146	1
25	26	13
167	168	2
202	202	7
57	57	9
77	79	12
49	50	5
208	209	3
215	217	3
21	136	3
101	121	1
50	50	4
107	109	2
205	206	2
64	66	2
60	60	7
31	31	3
66	66	11
133	133	2
209	209	3
75	75	4
59	60	10
81	82	7
20	32	4
8	9	12
78	78	10
52	54	2
17	30	1
139	172	4
1	9	1
144	216	1
146	148	5
191	191	15
100	100	4
27	30	1
155	158	2
147	148	3
41	41	4
216	216	14
175	178	4
189	190	9
88	102	2
52	53	1
115	115	9
39	40	4
171	171	9
189	195	3
224	225	4
44	44	5
148	175	2
175	212	3
242	242	3
74	75	9
182	182	10
213	222	1
234	234	2
52	52	3
211	229	1
150	151	2
140	141	6
156	157	3
192	192	10
5	5	2
86	102	3
210	211	7
201	202	1
2	2	5
109	118	3
70	70	10
217	217	3
0	7	2
50	52	2
109	110	2
126	127	1
228	229	6
156	156	9
129	130	4
17	17	12
177	178	1
136	137	2
59	59	6
7	7	3
18	20	5
36	41	4
18	29	1
77	84	2
138	143	5
144	176	1
193	195	1
181	207	1
48	48	6
188	188	6
159	172	2
18	18	6
7	8	1
145	145	4
26	219	3
146	146	7
97	97	7
218	223	2
56	57	4
12	36	2
134	134	9
12	12	6
234	235	6
35	36	7
64	64	4
103	104	2
61	113	2
192	225	2
111	111	3
221	227	2
178	179	6
175	176	2
149	149	2
80	80	2
19	68	3
180	210	1
177	190	3
160	172	1
9	110	2
105	106	5
132	174	2
23	25	3
2	4	4
51	228	3
212	213	4
213	216	1
49	56	3
237	237	15
120	120	5
45	46	2
4	12	2
58	60	1
80	81	2
107	107	1
135	139	4
184	185	3
128	129	4
220	220	4
213	215	5
131	174	1
33	34	2
215	215	7
141	141	3
71	73	3
146	147	5
95	95	3
149	150	2
230	242	2
156	158	2
21	22	2
20	197	2
96	97	6
11	15	1
6	12	1
207	210	4
114	114	3
141	151	1
153	156	2
144	218	5
136	188	1
78	84	1
8	10	1
98	99	9
228	238	4
127	127	4
152	172	1
234	236	1
28	31	2
13	16	3
106	107	2
228	237	3
165	167	2
96	96	3
62	63	2
0	20	3
107	108	1
120	122	2
174	189	4
161	162	3
240	241	1
31	37	3
139	141	4
141	149	2
11	12	1
203	203	8
56	56	4
141	143	3
223	223	2
76	77	1
65	66	3
207	212	1
34	40	2
239	239	5
173	174	3
102	103	1
28	43	1
19	24	2
106	106	1
15	18	1
152	152	3
195	195	3
190	195	1
119	119	2
30	34	1
189	194	2
3	3	3
228	231	1
26	27	6
104	107	3
168	170	2
0	3	2
11	27	1
205	211	1
212	225	1
21	32	2
49	53	3
76	76	2
133	134	5
149	175	3
108	124	2
161	161	3
83	84	3
145	215	1
164	169	3
75	76	1
50	51	2
32	36	1
58	58	3
137	173	1
15	15	4
29	34	2
211	230	3
218	219	1
211	212	3
35	37	1
19	20	3
151	173	1
191	192	1
184	186	1
29	30	2
19	23	3
99	100	1
150	150	4
99	99	4
57	62	3
193	194	3
13	13	1
1	22	2
131	135	2
0	1	2
35	35	5
223	226	2
227	228	2
132	132	2
2	8	1
159	161	1
217	225	1
160	161	3
83	83	3
170	170	1
121	122	1
231	232	1
31	35	1
134	173	1
105	105	3
227	238	2
138	139	4
53	228	2
18	19	2
74	100	1
23	30	4
140	140	1
228	228	2
158	158	2
63	64	3
198	199	4
25	27	1
28	34	1
134	135	1
173	173	2
204	207	1
217	219	1
146	157	2
199	210	3
82	82	2
153	179	1
146	152	2
140	219	3
216	219	1
131	173	2
168	169	6
154	178	3
48	50	1
22	24	1
135	137	3
134	174	1
87	87	1
65	70	1
22	221	1
130	131	1
83	85	1
16	16	2
174	175	3
11	13	1
134	136	1
30	32	1
38	64	1
39	41	1
155	156	1
124	124	1
10	11	1
142	145	2
196	198	1
5	14	1
46	48	2
9	26	1
180	185	2
143	145	2
200	209	2
54	55	2
12	17	2
53	55	1
189	193	1
55	56	2
48	49	3
79	80	1
203	208	2
81	81	2
32	32	2
202	209	2
13	15	1
1	7	2
135	136	1
170	172	1
189	192	2
134	188	1
206	207	1
97	106	1
47	60	2
157	158	2
133	188	2
235	235	1
144	147	2
1	3	1
212	228	1
36	53	2
14	17	2
184	184	1
181	185	1
221	221	2
190	193	1
141	147	2
71	74	1
155	178	2
6	39	1
47	48	2
29	32	1
219	220	1
35	58	1
201	217	1
169	172	1
198	215	1
185	186	2
31	32	2
27	28	1
200	201	2
101	128	1
215	216	1
177	192	1
10	109	1
10	12	2
20	21	1
190	191	2
154	157	2
65	72	1
196	196	1
198	200	1
40	42	1
125	125	1
95	96	1
158	162	1
205	207	1
79	82	1
171	176	1
77	77	1
76	88	1
202	203	1
77	83	1
80	83	1
