2	2	69
65	65	25
152	152	79
1	2	25
15	15	76
56	57	22
119	119	68
115	116	23
145	146	40
189	190	34
112	112	51
193	193	84
130	140	1
186	188	10
58	62	2
179	179	99
6	6	43
181	181	62
24	25	25
98	99	14
165	167	31
170	170	79
195	195	63
53	54	21
55	56	11
33	36	6
65	78	3
3	26	5
172	187	3
143	157	5
197	197	68
14	14	82
81	89	8
171	172	64
4	4	56
178	178	86
56	56	49
135	184	3
168	169	50
147	147	95
178	192	2
185	185	84
69	69	61
138	138	56
10	10	103
30	30	66
165	165	60
54	55	18
55	126	2
25	25	61
25	34	1
29	30	7
28	28	50
169	169	71
167	168	34
151	165	6
151	152	37
148	149	21
172	172	107
153	153	71
59	59	52
143	143	57
5	5	55
135	191	4
196	196	89
148	148	84
106	106	81
170	171	27
128	128	76
173	173	82
187	187	101
188	188	104
1	1	60
109	109	35
79	80	21
105	107	2
77	78	19
2	27	5
24	24	65
34	38	5
172	173	25
176	180	7
143	145	3
151	151	66
175	176	23
113	113	57
26	27	19
190	190	102
1	162	3
180	182	20
51	52	11
99	100	11
191	191	108
177	181	2
149	150	20
183	183	138
161	168	2
139	139	52
64	64	20
129	129	62
61	61	34
115	139	1
157	157	94
106	107	16
34	34	64
136	136	71
176	176	74
58	59	6
38	39	20
76	78	4
23	192	5
118	118	45
137	138	19
188	193	2
40	62	2
11	11	73
15	37	5
39	39	69
124	146	3
4	5	18
86	87	10
150	152	6
13	13	54
45	45	51
28	71	2
70	70	33
37	37	77
172	181	5
80	81	19
120	120	50
158	158	72
94	94	52
42	58	3
131	131	55
100	112	1
144	145	26
20	20	56
21	21	68
54	54	53
0	0	72
3	3	61
141	141	95
16	16	58
21	36	8
145	162	2
161	194	2
189	189	85
168	168	88
83	83	30
115	189	3
33	33	68
66	66	22
174	174	84
35	35	54
115	115	63
146	150	3
107	149	2
9	9	91
184	185	12
44	69	2
105	106	24
163	163	33
82	82	41
27	27	84
131	192	5
44	161	3
50	50	75
102	122	3
121	121	60
186	186	107
58	58	43
30	34	3
8	8	45
151	186	2
107	107	68
116	189	2
37	38	13
102	103	23
83	84	26
172	193	4
161	190	1
48	121	1
150	163	2
23	23	67
27	57	2
183	184	12
0	2	12
12	12	60
124	125	26
163	164	50
10	124	1
167	167	81
125	125	59
173	176	16
21	22	28
145	145	57
139	140	32
122	122	66
97	99	5
183	187	15
124	124	54
147	148	20
161	161	87
124	128	7
111	159	2
124	136	6
150	158	2
102	102	68
162	162	56
57	57	73
52	52	58
156	156	106
164	169	9
35	93	1
68	68	46
184	184	77
100	100	48
42	75	2
130	130	49
20	44	2
109	143	1
74	74	34
109	138	1
119	120	16
173	175	21
24	58	2
177	178	29
31	31	81
25	32	3
167	179	6
65	66	14
161	164	25
126	126	55
101	104	1
33	35	10
86	86	28
164	164	75
93	93	20
127	127	63
101	101	54
149	149	101
116	116	58
41	41	63
56	74	1
22	23	17
155	156	29
2	5	3
35	39	7
6	7	27
64	67	9
48	52	8
166	166	49
152	153	43
54	71	3
27	28	24
110	110	34
26	26	26
73	73	34
62	100	2
5	33	1
96	96	17
117	136	5
192	192	84
18	18	56
142	147	2
111	111	67
134	134	78
65	148	4
190	191	30
55	55	71
170	182	2
112	115	4
159	159	68
153	154	13
116	139	4
159	160	18
150	161	5
57	69	9
171	171	104
0	1	26
114	151	2
39	41	12
153	160	5
191	193	14
158	159	22
29	113	3
5	7	11
72	75	8
15	16	23
189	191	4
44	45	17
165	166	51
176	177	41
156	175	5
171	185	3
84	84	27
149	193	4
15	71	2
169	179	4
166	169	1
182	182	63
152	155	4
192	193	29
47	48	21
141	151	1
111	113	2
175	175	72
179	180	31
150	150	75
75	75	18
37	56	2
2	3	15
133	133	95
177	177	67
154	155	24
23	24	14
153	155	5
104	116	3
194	194	70
49	49	65
160	160	89
114	114	59
76	76	40
19	19	48
155	155	64
51	51	56
146	161	8
36	36	52
38	50	2
106	109	3
85	85	19
193	194	31
96	106	6
4	8	7
190	192	17
113	132	4
42	42	86
156	157	8
109	131	7
60	60	30
144	182	2
67	67	28
88	88	36
157	158	57
183	193	3
116	117	30
173	190	4
22	22	59
103	108	3
5	16	5
180	180	91
107	108	28
97	97	22
53	53	71
95	95	27
189	192	3
108	142	6
99	99	49
187	188	32
58	63	2
87	124	2
62	63	24
17	17	37
134	135	35
60	160	2
46	46	78
16	31	2
146	174	3
105	105	32
40	41	32
173	174	20
150	162	7
174	175	18
164	167	13
142	142	57
13	194	2
115	136	1
14	15	14
41	70	1
196	197	33
47	47	62
57	58	15
142	150	1
132	135	4
104	115	5
32	32	50
81	82	16
110	111	21
6	8	19
18	19	24
130	158	3
110	166	1
121	169	8
133	141	3
87	87	27
142	144	2
7	7	54
8	9	9
104	104	63
119	122	5
127	129	5
6	185	2
115	118	2
114	146	4
26	34	3
29	29	63
28	30	12
191	192	32
94	97	3
183	186	8
65	72	4
95	96	16
120	143	2
109	163	2
45	69	6
0	5	2
154	159	4
89	89	35
0	33	2
17	18	31
117	117	55
79	79	36
14	44	2
24	28	2
146	146	59
120	121	21
137	187	3
28	29	31
104	105	10
37	40	10
160	167	3
6	33	2
146	147	27
180	181	17
187	194	2
116	118	13
103	104	10
33	86	2
27	61	2
138	140	20
104	128	3
46	129	11
0	177	1
109	110	20
20	26	2
38	164	3
43	44	17
166	195	2
106	110	8
108	109	21
149	166	3
78	78	55
161	174	1
97	98	13
43	43	58
4	111	4
25	26	27
167	185	1
48	48	65
150	151	25
38	42	3
127	128	16
13	14	16
111	132	5
61	122	2
123	197	1
132	132	43
32	172	2
11	14	3
156	158	6
94	95	19
120	122	5
135	135	62
158	169	5
82	84	4
74	75	8
90	90	9
88	98	1
152	156	5
112	159	6
170	172	15
44	44	76
11	38	1
117	123	3
20	25	1
142	167	2
71	72	4
43	197	5
1	179	4
16	194	3
111	172	3
102	120	1
131	132	9
160	161	17
144	144	70
43	46	1
45	57	3
8	27	4
131	161	2
85	89	8
100	113	7
9	132	3
48	49	15
162	167	5
178	179	17
13	195	6
143	146	10
173	177	3
33	146	2
18	25	1
156	168	9
123	123	59
164	177	1
40	40	54
50	51	20
169	170	12
138	152	1
137	137	57
54	59	2
4	18	6
125	127	7
23	26	3
166	167	22
108	158	4
52	53	16
9	15	6
64	65	13
144	154	5
148	190	7
81	84	5
69	71	3
61	124	3
6	20	1
124	185	2
67	69	15
56	76	6
41	42	19
38	38	41
15	80	6
3	73	7
182	186	5
73	87	2
98	98	41
2	34	2
115	181	6
111	166	4
152	154	8
99	101	12
132	133	18
41	56	2
13	37	2
1	161	2
151	156	6
63	73	5
75	84	5
174	176	10
16	38	1
114	115	12
29	192	2
128	171	2
20	21	27
162	163	29
72	74	4
9	25	4
62	64	10
29	191	1
180	189	3
54	76	2
14	45	3
42	43	10
160	165	6
66	68	5
102	105	1
159	168	1
181	182	22
77	87	5
98	181	2
38	43	7
70	72	8
63	63	29
72	72	38
190	193	2
143	148	2
154	154	93
123	124	10
34	39	5
34	95	3
188	189	13
28	159	1
161	162	25
71	71	26
146	154	1
158	187	3
118	146	3
1	4	6
74	89	1
179	197	2
16	35	2
33	187	1
186	187	13
94	133	4
68	69	6
158	163	2
16	17	29
135	136	26
15	47	2
164	165	10
69	82	3
77	77	33
24	27	8
11	12	12
48	150	2
90	131	2
175	180	9
194	195	17
129	131	2
105	113	8
34	179	1
9	12	4
2	9	5
0	120	4
160	177	13
161	170	5
98	103	2
1	137	3
12	13	15
138	161	2
138	139	11
140	158	3
69	191	1
122	123	14
89	97	8
29	41	3
24	26	3
129	136	3
56	149	2
131	140	3
3	6	5
108	137	2
99	106	2
130	151	2
101	150	4
39	40	16
17	24	4
118	120	4
83	149	1
108	116	9
25	33	1
29	31	5
29	194	2
62	77	2
121	146	2
133	192	1
155	180	7
48	50	3
172	182	10
15	57	2
88	89	18
109	111	9
15	43	1
154	160	2
163	174	5
3	21	6
39	56	5
67	79	8
64	66	9
80	80	34
168	195	1
10	11	20
170	197	5
58	78	2
146	190	8
54	56	10
44	71	2
8	19	8
100	141	4
153	174	2
1	22	3
101	102	8
157	174	4
26	29	2
141	142	10
121	123	4
62	62	23
161	163	9
157	173	8
20	27	8
120	135	1
12	44	3
55	138	2
18	85	3
142	168	12
139	193	4
156	171	3
169	171	6
5	129	2
184	191	2
42	72	5
20	22	9
146	191	5
81	85	4
185	186	24
187	189	3
114	138	8
96	97	7
164	166	10
47	124	4
139	170	1
163	165	17
141	183	3
23	63	1
72	101	3
29	34	8
117	118	37
54	149	3
12	15	6
36	41	10
121	122	19
31	168	1
12	130	4
118	119	13
188	190	3
9	10	17
1	23	6
135	181	1
153	156	5
152	159	2
146	148	7
7	20	4
150	167	10
122	125	2
130	137	3
8	36	2
5	89	2
14	37	2
117	188	2
137	143	6
108	181	7
154	167	1
2	6	6
48	51	2
55	118	2
58	64	4
81	81	25
9	32	5
74	76	6
25	30	2
175	178	10
176	178	13
112	119	6
161	179	1
107	109	4
21	141	1
70	71	12
37	39	3
162	164	14
13	47	2
140	166	2
108	156	2
156	160	2
176	197	3
61	87	2
119	121	6
116	134	1
195	196	12
18	24	3
137	140	7
3	7	9
0	3	10
178	190	7
177	179	4
15	17	7
33	95	1
134	137	19
185	188	5
86	88	2
22	25	5
164	173	1
71	73	7
73	74	13
53	55	3
24	44	1
165	168	6
101	187	5
15	38	3
22	24	2
109	181	1
94	139	2
173	178	5
59	62	7
67	68	13
103	103	41
160	195	7
114	132	3
150	170	1
108	178	3
130	131	32
87	120	5
13	39	2
60	103	1
108	108	40
142	153	3
106	116	2
58	61	3
117	179	3
94	151	3
5	6	19
22	61	2
181	191	6
140	174	4
33	34	6
175	179	4
3	24	1
22	28	1
5	8	8
59	134	4
147	161	8
14	171	2
112	160	2
60	62	4
28	34	2
63	75	3
151	173	4
152	183	6
25	28	4
0	34	2
157	159	5
177	194	2
26	39	5
4	113	2
9	157	3
7	8	20
138	191	2
170	176	5
2	4	5
147	166	5
137	177	1
170	183	6
12	57	2
161	172	1
94	96	14
172	178	6
66	79	10
21	43	3
98	135	3
26	43	2
137	144	6
150	164	3
17	22	1
8	69	6
166	177	8
1	40	4
30	32	5
0	87	5
100	101	5
172	174	23
99	137	3
2	41	6
37	42	1
84	85	13
63	84	6
132	161	2
151	189	3
20	68	2
172	179	6
50	143	3
75	76	8
18	35	5
115	119	6
118	135	5
116	144	1
60	66	1
30	31	37
160	192	2
9	23	4
172	177	5
31	167	4
15	56	3
61	183	2
116	143	3
2	190	4
131	193	5
97	136	6
171	188	1
38	150	3
157	176	2
6	35	3
3	138	2
76	82	1
130	192	6
17	42	1
27	41	4
129	130	7
139	178	1
73	155	4
55	127	3
157	168	4
125	126	7
79	81	9
77	80	6
23	149	3
152	182	2
21	145	4
113	114	21
153	159	6
163	167	4
17	44	3
113	119	2
101	180	2
15	33	6
124	173	1
169	180	3
138	151	2
140	140	40
66	75	1
192	194	4
4	55	1
46	122	8
1	88	2
162	179	4
32	33	10
72	76	1
4	132	1
60	61	10
132	152	2
28	153	2
6	112	2
126	185	6
179	181	5
106	114	2
17	26	1
184	187	3
136	137	11
99	107	2
115	117	1
114	136	1
114	116	5
121	140	1
5	37	6
45	46	9
183	195	2
2	26	4
81	154	1
23	69	4
125	186	1
112	158	1
122	185	5
81	83	7
85	86	13
51	183	1
110	132	2
49	50	5
71	74	4
137	154	1
99	194	2
64	123	2
89	90	3
161	165	8
141	164	3
129	185	1
30	194	6
31	32	16
22	146	8
167	180	2
120	123	3
13	24	6
138	148	3
6	37	9
37	149	3
76	77	9
89	190	1
104	139	2
175	177	9
23	45	1
136	152	2
116	154	3
31	35	4
38	45	1
24	32	6
34	35	12
107	110	4
98	191	1
118	140	1
141	167	1
89	93	6
21	27	5
40	82	2
139	151	1
140	141	2
159	178	3
73	75	6
72	87	1
44	79	2
133	180	1
119	180	1
3	189	2
106	151	1
1	85	1
102	107	2
4	6	6
119	183	1
167	169	7
120	142	2
36	37	5
3	4	5
162	188	1
82	83	7
67	106	1
9	169	1
159	164	2
0	39	3
111	149	1
77	81	6
3	19	2
85	96	4
115	131	6
155	187	2
102	113	3
3	190	2
179	191	1
69	70	1
5	192	6
16	44	4
170	186	1
154	192	2
18	173	4
145	150	5
113	128	4
76	193	1
18	20	7
164	168	4
60	80	3
194	197	2
21	85	4
164	197	4
58	146	1
28	89	1
8	193	2
84	89	6
103	105	3
24	33	2
158	165	3
42	44	10
122	148	2
9	43	4
54	119	5
152	194	3
113	153	2
112	135	3
82	89	1
33	53	3
143	144	24
163	172	4
122	189	2
9	37	3
187	192	2
16	30	3
140	142	3
150	168	2
39	194	1
133	148	3
60	84	1
26	28	6
63	64	6
96	131	4
37	75	1
154	156	11
159	167	6
136	174	2
19	20	9
3	22	3
28	161	1
140	196	2
113	173	1
56	63	2
130	134	4
186	189	4
109	161	4
3	20	3
159	161	1
182	183	20
4	34	2
147	151	1
145	160	2
119	139	1
56	193	3
146	151	1
58	76	5
112	113	15
104	106	1
133	167	1
3	27	1
0	8	3
93	141	2
141	143	6
1	24	2
142	143	11
2	24	12
135	137	7
103	122	1
160	178	1
30	189	1
89	98	1
28	192	6
45	193	3
171	184	5
142	181	3
151	160	2
40	192	2
34	40	1
119	194	6
104	150	2
35	40	4
189	194	4
6	82	3
112	171	1
19	21	4
1	3	1
12	153	3
120	124	4
26	64	2
30	42	4
87	89	5
36	173	1
110	113	1
87	88	4
137	167	4
155	181	2
40	193	1
165	177	2
27	40	6
42	51	1
146	157	1
129	133	3
34	36	2
23	128	1
151	168	2
155	167	3
126	139	2
72	73	5
94	106	1
44	56	4
108	168	2
28	43	4
31	36	4
16	43	3
15	27	3
9	69	3
110	156	4
79	82	4
13	129	1
23	43	3
132	134	4
168	170	5
26	32	4
131	133	2
49	189	1
110	165	1
170	179	2
119	143	1
148	150	4
17	19	3
133	136	4
25	50	3
101	107	2
12	38	5
150	169	5
59	60	13
43	50	5
153	165	2
22	60	1
3	141	1
104	112	1
181	189	2
154	158	2
138	189	1
98	102	3
76	84	2
156	162	2
138	141	1
133	134	8
9	44	4
99	158	1
162	183	2
82	85	1
108	110	5
167	170	2
171	197	3
163	170	5
103	106	5
136	141	1
62	66	3
15	195	3
81	86	2
193	195	2
32	50	1
137	163	1
8	38	4
20	35	5
83	111	4
94	177	1
4	25	3
1	138	1
126	127	9
4	74	2
41	167	2
1	26	5
96	107	2
137	181	2
10	49	3
112	114	4
168	173	3
147	149	5
130	174	3
55	58	1
101	105	3
12	124	2
35	36	12
184	194	3
68	80	5
54	75	1
108	115	7
172	176	5
174	190	4
105	112	2
64	73	4
99	103	3
121	132	1
7	40	2
145	154	5
111	123	2
74	80	1
56	79	1
163	166	3
9	17	2
116	156	2
58	93	1
48	156	3
50	52	3
50	56	1
32	171	2
3	160	3
118	136	3
116	140	2
0	23	2
110	184	4
126	158	1
142	163	2
169	190	1
64	93	2
56	71	3
132	158	3
3	192	2
1	193	2
167	177	1
9	160	2
158	160	5
111	112	16
16	26	2
133	135	4
136	151	1
27	29	6
52	54	8
118	184	1
116	179	1
88	122	4
17	81	3
36	60	2
4	26	7
28	31	3
111	184	2
66	70	1
3	8	3
76	79	4
156	194	8
70	168	1
23	160	2
108	163	1
8	165	7
144	172	2
61	62	4
58	60	3
0	26	4
95	99	2
163	186	1
27	102	1
82	87	3
145	159	1
31	169	3
23	42	1
143	182	2
14	172	1
112	151	2
36	38	5
27	31	3
26	41	3
102	116	2
59	61	3
161	166	4
110	161	1
76	81	1
174	178	4
99	144	2
132	140	3
25	40	3
155	157	5
40	56	1
160	166	2
138	160	1
59	73	2
157	180	3
59	74	2
48	165	2
161	173	1
38	52	1
176	191	4
142	197	4
137	139	2
181	192	1
87	112	4
52	184	1
42	78	2
146	164	3
73	191	3
113	115	5
165	179	2
59	106	2
93	158	1
36	39	1
101	132	1
30	40	1
156	164	4
21	40	5
184	186	1
40	42	4
28	39	1
171	181	4
159	162	2
17	30	2
32	190	1
126	186	3
3	5	3
33	78	2
46	47	9
136	150	1
89	112	3
71	88	2
61	93	3
109	166	4
153	164	1
73	76	2
150	180	3
74	86	2
103	148	3
166	194	2
151	188	2
9	53	1
144	146	1
136	138	3
164	196	1
142	173	6
10	187	2
116	181	3
113	117	2
3	25	3
5	38	5
97	103	3
28	57	2
122	124	3
0	40	5
116	119	1
137	146	2
179	182	9
182	187	1
19	22	6
114	160	8
18	58	4
145	164	2
96	139	2
58	148	1
86	124	4
145	147	2
131	138	2
146	149	1
107	172	2
98	145	2
5	134	2
176	190	1
42	73	5
6	26	2
51	56	3
121	190	1
42	106	2
40	72	3
15	20	1
59	65	1
7	36	1
13	46	1
121	127	5
53	57	1
0	169	2
39	137	1
154	194	2
157	160	3
114	128	1
5	113	4
26	35	2
1	6	4
35	67	4
93	94	4
67	72	2
146	162	5
25	190	1
125	152	1
88	192	1
181	183	1
130	173	3
105	108	1
39	60	1
160	172	3
59	135	3
156	159	3
14	24	1
123	150	1
154	181	3
170	188	2
39	43	4
41	137	5
113	118	5
14	196	1
65	71	2
128	150	2
135	140	2
130	176	2
115	192	1
58	187	1
172	197	5
39	45	1
174	181	4
59	77	1
104	155	1
4	165	2
41	193	1
17	172	4
58	133	3
159	179	1
107	111	3
64	148	1
64	77	5
143	181	2
117	148	2
99	161	2
100	111	2
121	194	1
115	120	2
9	187	1
131	135	1
10	48	2
40	64	1
45	124	2
140	162	2
143	155	4
6	39	4
97	107	5
56	136	3
1	90	3
2	161	2
180	191	2
38	59	1
139	192	1
142	162	2
123	194	1
154	173	3
13	56	4
38	40	2
45	195	2
3	34	2
129	170	1
154	164	2
36	40	3
74	85	2
177	190	2
38	194	1
136	177	4
101	126	2
63	76	2
61	64	4
99	110	1
60	93	1
156	161	6
73	113	3
44	46	4
146	178	6
134	158	3
31	37	2
156	172	2
90	190	2
171	183	1
174	192	2
9	80	2
21	26	7
29	189	2
23	134	1
47	153	1
146	180	1
89	96	1
21	23	1
12	151	1
2	30	5
11	47	6
105	185	1
100	183	1
6	22	5
180	190	2
155	189	1
113	133	2
135	152	3
133	162	1
68	72	1
0	4	2
183	185	2
55	61	1
101	159	1
112	132	3
149	161	2
108	167	3
26	169	1
48	129	2
163	169	2
27	42	5
47	49	2
62	188	1
156	184	2
80	82	1
60	75	2
164	174	3
22	34	3
112	133	3
17	33	3
168	178	4
158	186	1
41	73	1
38	56	1
77	79	4
165	195	1
135	139	6
10	12	1
107	143	5
167	174	1
157	178	3
65	68	1
161	167	2
155	169	2
108	111	1
170	174	1
23	72	3
114	119	3
16	33	2
93	95	2
2	22	1
157	182	3
18	79	3
130	136	2
71	84	2
37	48	1
109	112	1
158	167	1
13	31	1
117	138	3
10	29	2
158	162	1
133	146	1
170	173	3
110	133	1
90	103	1
141	156	2
173	182	2
120	129	2
123	126	2
2	88	1
2	23	3
31	51	1
112	128	4
8	87	2
8	10	4
42	152	1
100	103	1
32	40	3
183	189	1
147	184	1
47	123	2
11	16	2
164	170	1
88	99	1
74	188	2
4	9	2
33	41	1
160	163	2
123	148	1
140	157	4
0	35	2
128	129	4
117	169	1
0	30	4
150	153	1
102	104	4
35	38	1
87	130	4
9	103	1
11	18	4
1	42	2
145	155	1
179	193	5
64	72	3
33	195	2
35	41	3
103	117	4
99	102	2
106	115	1
29	193	2
28	170	2
93	122	4
31	161	1
127	185	1
83	127	3
156	180	2
60	77	6
56	147	1
137	191	1
30	82	2
151	161	2
58	104	1
111	189	1
186	190	3
22	40	2
150	187	2
25	36	1
150	188	2
26	33	3
175	193	1
16	24	4
25	39	2
38	44	1
1	189	1
126	129	1
176	193	1
4	7	1
123	163	1
132	196	1
41	106	2
103	121	1
9	183	1
138	153	3
51	54	3
112	117	1
124	126	3
162	165	2
42	70	2
43	69	1
153	190	1
0	6	2
16	37	4
42	179	1
0	161	1
34	37	1
110	151	1
47	189	1
129	168	2
7	24	2
60	68	3
10	19	2
141	157	1
0	32	2
56	183	2
16	46	1
112	172	1
62	65	3
145	148	4
119	182	1
74	84	1
4	58	2
124	183	1
19	28	1
126	128	1
21	42	3
133	156	1
21	134	1
13	16	2
17	31	2
106	142	2
7	39	2
148	188	1
132	169	2
137	145	1
152	172	1
7	164	2
124	171	1
4	31	2
79	166	2
120	155	4
123	140	2
16	18	5
122	187	1
31	176	1
151	155	2
75	132	1
52	169	1
28	40	1
133	145	2
7	76	2
5	39	2
178	189	1
99	165	1
57	67	1
185	192	1
155	170	1
94	178	2
146	159	1
17	38	2
14	16	1
128	186	1
98	162	3
56	127	2
148	157	2
88	107	1
121	142	1
132	137	2
146	185	2
71	76	3
109	191	3
95	109	1
23	25	1
101	125	1
148	184	3
43	196	3
138	178	4
177	186	1
113	129	1
116	131	1
0	160	1
98	155	1
5	22	5
97	118	1
123	131	1
158	161	2
160	164	2
182	191	1
136	154	3
122	129	3
12	37	1
42	71	1
129	137	1
57	68	1
36	46	1
68	73	1
32	41	5
138	146	4
149	184	6
0	24	3
4	23	1
28	169	1
147	164	2
162	166	2
8	57	2
113	186	1
42	56	1
33	48	2
34	196	1
79	144	2
14	125	2
123	186	1
4	54	3
93	142	2
152	179	1
12	30	2
117	181	3
15	18	1
166	174	6
98	130	2
23	41	3
14	54	1
47	177	2
11	42	1
94	194	2
125	196	3
175	182	1
98	108	2
63	122	1
108	132	1
3	62	1
189	195	2
136	195	2
82	86	1
81	168	1
185	187	4
170	185	3
116	145	1
23	142	1
81	124	2
145	181	1
66	67	3
173	181	3
61	67	1
22	72	6
178	197	1
15	19	1
149	163	4
106	125	3
133	138	1
95	123	1
108	133	1
113	121	2
115	158	1
67	70	1
160	179	2
146	165	1
55	64	1
112	122	1
158	182	1
38	148	1
96	138	1
148	151	4
57	149	2
67	73	1
81	149	1
133	144	1
125	139	1
141	153	1
158	184	2
30	169	2
90	106	1
71	138	1
142	145	1
191	194	5
186	196	1
136	153	1
29	169	1
54	150	2
9	73	1
169	189	2
5	57	2
114	118	3
18	21	1
4	13	3
20	81	3
109	130	3
36	59	1
129	162	1
70	88	3
118	121	1
16	20	1
123	130	1
128	146	1
52	170	1
101	189	1
108	113	1
144	159	2
77	90	1
139	145	1
112	181	1
99	139	4
78	145	1
124	135	2
42	117	2
58	118	1
32	48	2
100	120	1
61	74	2
7	9	4
148	152	1
158	178	1
140	143	3
3	41	2
42	189	1
163	188	1
175	181	1
108	136	1
121	124	1
0	70	3
70	141	2
168	194	1
107	133	1
6	12	1
39	76	2
84	138	2
119	137	1
96	98	1
116	137	1
153	189	1
35	37	2
163	189	1
136	140	1
17	32	1
143	150	3
114	124	1
115	121	2
38	64	1
79	86	2
33	172	1
120	183	1
99	109	1
27	188	2
173	197	2
69	97	1
2	21	3
18	81	1
106	149	1
188	196	1
184	193	5
116	133	2
137	182	1
15	150	1
14	49	2
119	140	3
95	159	1
161	178	3
114	192	2
99	140	1
154	187	1
178	180	4
142	151	1
29	36	3
144	153	1
16	57	1
10	17	2
158	166	1
22	26	1
138	150	2
28	35	1
12	14	2
19	24	2
164	180	1
145	151	1
32	39	3
100	123	2
24	148	1
28	137	1
41	118	1
4	73	2
5	15	1
108	122	1
136	139	1
146	181	4
115	143	1
174	180	2
39	59	1
78	81	1
62	73	1
62	78	1
42	188	1
63	102	1
120	182	1
145	168	1
111	142	2
2	40	2
149	151	1
63	68	2
128	187	1
43	70	1
58	90	3
117	182	1
33	42	1
97	143	1
115	154	1
69	72	2
83	112	1
109	156	1
15	181	1
26	40	2
2	75	1
133	139	2
7	162	2
183	188	2
118	134	1
52	140	1
133	152	1
158	181	2
155	177	3
0	36	1
48	184	1
134	136	3
61	184	1
139	158	2
42	187	1
97	195	1
137	153	2
132	136	1
116	147	1
114	121	2
86	89	1
129	139	3
104	121	1
119	145	1
130	135	3
118	139	1
133	196	1
11	15	1
48	124	2
39	193	1
105	166	1
174	177	2
158	173	1
181	184	1
3	76	1
59	66	1
2	8	1
38	193	2
136	145	2
1	38	2
40	111	2
99	166	1
171	189	1
97	140	1
147	150	3
157	166	1
19	147	1
140	161	1
18	44	2
158	175	2
18	40	1
103	155	2
37	76	1
146	184	1
6	16	2
107	118	1
117	119	1
180	188	3
123	142	1
120	128	2
22	31	1
166	180	2
100	180	1
172	189	1
40	44	1
84	86	1
114	154	1
114	137	2
154	162	1
43	45	1
56	60	1
114	189	1
149	176	1
27	69	1
160	182	1
104	142	1
37	46	1
124	140	1
59	127	1
18	59	1
2	192	1
76	150	1
30	56	1
7	158	1
40	165	1
182	184	2
130	132	1
137	169	1
154	185	1
45	79	2
105	144	1
159	165	1
8	17	1
116	121	1
32	136	1
56	138	1
1	174	1
23	28	1
119	146	1
2	77	1
78	79	3
155	190	1
158	179	1
174	186	1
100	104	1
30	90	1
47	170	1
97	104	1
112	196	1
9	45	1
7	77	1
142	179	1
138	147	1
142	161	1
49	151	1
137	141	1
96	99	1
176	189	1
47	197	1
111	139	1
155	176	1
155	174	1
9	87	1
169	197	1
63	86	1
159	170	1
112	164	1
20	40	1
88	104	1
134	139	1
51	53	1
115	130	2
21	39	2
171	186	1
99	120	1
109	176	3
89	131	1
124	179	1
129	183	1
45	63	1
138	144	1
33	45	1
154	157	1
136	144	1
73	151	1
30	132	1
108	120	1
4	90	1
70	73	1
127	149	1
134	147	1
77	89	1
176	179	1
45	53	1
185	190	1
25	197	1
33	50	1
136	146	1
36	155	1
22	37	1
6	38	1
171	182	1
61	85	1
9	196	1
44	73	1
9	71	1
109	133	1
4	27	1
145	156	1
9	29	1
49	54	1
114	120	1
55	69	1
14	195	1
119	175	1
155	173	1
179	189	1
63	66	1
