61	62	4
47	48	3
86	95	1
15	15	9
140	140	15
11	11	6
115	116	10
103	106	2
78	78	10
16	71	3
7	7	29
143	143	14
88	89	6
31	31	8
69	164	1
17	18	6
13	13	20
156	162	7
25	25	5
46	46	7
100	100	7
113	114	2
177	178	3
113	113	18
16	16	12
152	152	16
181	182	1
174	174	4
129	129	22
35	35	7
74	75	7
95	95	5
40	40	12
173	173	17
86	86	4
98	99	5
88	88	18
107	107	8
26	28	6
57	58	4
122	131	2
3	3	11
76	146	3
27	27	8
1	1	12
64	70	3
77	77	14
149	150	4
21	21	3
183	183	24
43	47	2
180	180	8
45	45	16
85	91	3
11	12	5
141	141	7
46	47	7
43	44	2
28	28	8
35	36	4
29	29	10
74	74	16
66	66	5
89	90	1
30	35	3
98	98	8
55	55	18
60	61	9
42	43	4
39	40	9
64	64	4
177	177	6
103	103	11
92	105	5
134	180	2
96	96	3
87	87	6
93	93	1
1	142	1
168	169	3
39	39	15
96	121	2
109	109	7
144	144	17
53	53	15
8	8	14
61	61	12
182	182	3
56	56	11
43	43	9
100	124	2
23	23	5
41	41	11
46	63	2
115	115	6
92	92	8
20	21	3
120	121	4
45	113	2
38	38	2
124	125	7
64	65	3
123	124	1
189	189	5
67	67	13
43	45	2
36	37	11
6	7	1
75	76	4
77	155	1
97	97	14
94	130	2
82	104	1
96	134	2
117	117	6
114	114	4
32	33	3
146	146	8
130	181	4
102	106	4
119	119	14
17	25	3
164	167	3
101	102	9
94	95	4
11	13	2
83	99	2
90	90	17
6	6	12
150	150	4
80	80	11
1	39	2
12	21	5
154	168	7
111	112	1
91	130	3
122	122	13
75	75	8
65	118	2
188	188	5
125	125	11
84	84	10
66	99	3
19	21	6
37	37	12
88	96	5
48	49	3
158	160	3
169	169	16
55	58	3
71	72	3
19	38	2
156	157	3
185	185	8
100	111	2
24	24	6
159	159	9
14	14	13
187	188	3
65	104	4
10	10	9
81	82	1
101	101	12
118	119	3
57	57	7
26	27	2
102	102	13
89	89	4
34	35	3
17	17	3
148	148	12
126	127	5
135	139	1
96	98	6
60	60	8
105	105	9
134	134	11
163	164	7
153	153	14
166	189	3
0	5	4
163	163	4
25	26	2
95	96	1
62	62	1
134	154	4
147	147	10
183	184	6
121	125	1
119	122	4
110	110	15
93	125	6
40	41	8
84	106	3
121	126	4
120	120	9
10	43	3
111	111	9
151	151	5
105	136	2
80	108	1
20	45	4
0	0	7
186	186	2
112	149	1
34	34	10
37	38	3
91	91	9
76	78	2
144	164	1
33	33	5
78	99	3
137	138	4
56	57	3
131	132	3
8	26	1
188	189	3
63	69	2
23	24	1
121	121	3
147	148	4
114	115	1
21	22	3
19	24	1
168	171	2
127	131	1
130	130	7
14	17	2
5	5	9
83	83	14
42	42	4
28	29	3
80	81	3
175	176	4
95	152	4
151	152	6
24	25	2
7	111	2
154	154	5
108	108	3
42	48	3
4	4	8
108	117	1
52	52	2
165	165	13
93	94	5
30	30	2
163	165	1
139	139	15
157	157	6
131	131	5
124	124	6
176	177	4
158	158	4
138	138	6
138	139	2
121	122	7
4	5	5
125	126	3
23	25	4
65	65	3
12	12	9
58	62	4
79	79	14
176	182	1
31	32	2
148	160	3
169	170	8
172	172	7
48	54	2
58	59	2
118	118	2
146	147	2
46	59	1
127	128	1
86	89	5
54	122	3
110	128	5
66	67	4
87	90	3
141	142	2
73	154	1
12	13	6
104	108	2
145	145	10
2	2	9
41	42	4
82	105	3
162	162	12
47	47	7
29	30	2
2	41	3
136	137	1
185	186	1
9	10	2
85	92	2
164	165	2
170	170	10
36	36	1
13	70	1
84	85	1
156	156	9
83	86	2
166	185	4
15	17	3
82	120	2
57	61	3
148	150	1
114	116	2
5	6	4
101	103	2
78	140	4
8	54	2
190	190	2
127	127	9
123	123	3
167	172	4
112	112	10
63	63	3
149	149	4
81	108	2
81	81	8
95	111	1
55	57	2
87	88	5
38	110	2
132	133	2
59	85	2
157	178	2
54	54	4
94	112	1
79	154	2
18	19	3
178	179	7
135	135	6
90	129	3
132	132	5
95	151	2
48	48	7
83	90	1
19	20	1
111	119	2
179	179	3
188	190	2
8	20	1
134	135	2
44	46	2
127	150	1
97	139	1
173	174	5
99	99	7
36	43	2
126	126	1
71	71	4
72	73	5
85	95	1
126	129	1
79	80	5
58	85	2
4	11	3
25	110	2
105	125	2
175	182	1
33	37	1
70	72	1
82	82	4
83	84	3
13	14	1
104	109	1
61	76	1
176	176	5
96	100	1
71	73	1
95	150	3
164	164	6
168	172	3
105	117	2
136	136	4
154	155	3
129	135	2
109	114	1
40	57	1
58	63	2
176	184	1
33	34	1
160	161	2
27	28	1
133	136	4
76	155	1
162	163	4
22	22	2
143	183	1
8	13	1
102	103	1
34	36	2
62	110	2
58	82	1
62	81	1
95	101	5
129	130	4
78	154	3
58	60	3
184	184	6
18	18	2
5	10	2
155	155	1
155	156	2
57	116	3
137	137	7
135	136	2
44	44	5
107	123	3
53	54	2
57	83	1
90	91	2
23	38	1
14	18	1
106	108	1
100	118	2
20	22	1
22	23	2
72	84	2
44	45	1
115	141	2
83	139	3
26	26	3
87	98	3
91	111	1
114	118	3
116	116	2
85	98	1
116	117	4
130	149	1
73	73	3
5	70	4
109	123	3
95	97	2
112	113	1
109	165	3
4	24	1
14	15	1
96	97	2
109	110	2
166	166	5
134	139	1
171	171	1
5	25	1
106	107	1
161	161	2
76	76	4
137	150	3
53	67	1
68	68	1
3	4	1
16	18	1
128	128	2
178	178	1
155	190	1
72	134	1
142	142	4
13	19	1
112	147	1
85	85	2
88	94	2
45	48	3
87	99	1
187	187	3
129	134	1
99	100	2
167	167	2
60	83	2
157	158	1
84	87	1
95	134	1
143	190	1
154	162	1
167	168	1
143	144	4
58	58	1
17	34	2
87	101	1
152	153	1
132	139	1
106	106	4
64	109	1
139	148	2
74	152	3
111	121	3
75	83	1
9	9	2
17	35	1
139	145	1
32	36	1
79	108	1
2	8	2
133	133	2
62	65	1
107	116	1
67	106	1
68	69	1
88	90	1
58	61	1
65	164	1
85	94	2
43	53	1
4	21	1
115	118	1
54	55	2
38	41	1
94	94	1
26	29	1
180	181	1
175	175	1
