36	36	2
117	117	9
126	126	19
3	3	9
102	102	14
99	99	9
133	133	6
37	39	6
100	101	11
81	81	10
67	67	12
106	106	10
14	14	8
63	89	1
63	63	15
78	119	3
66	71	3
76	76	15
86	86	5
113	113	10
23	26	8
13	14	4
120	120	9
110	111	1
1	71	8
88	92	4
64	64	12
73	73	11
44	44	6
59	60	1
70	70	11
100	100	7
77	77	24
11	11	6
93	94	4
21	22	7
95	95	6
108	111	3
62	63	11
101	101	11
49	99	4
114	114	7
124	124	14
58	58	13
12	12	9
85	85	9
66	69	3
14	25	4
131	131	16
31	31	6
2	2	8
75	112	9
9	35	1
66	68	8
129	134	3
10	11	4
13	52	5
64	65	5
106	108	1
90	90	21
74	99	2
0	0	14
27	67	2
8	8	9
96	96	7
60	133	1
21	21	7
24	49	1
107	107	10
125	130	1
112	112	25
123	123	16
67	69	4
46	46	7
29	29	5
66	66	8
132	132	16
14	17	3
0	1	6
99	106	2
28	28	4
77	119	2
70	71	3
18	18	7
15	53	2
71	71	9
7	7	8
105	111	9
116	116	13
121	124	7
122	122	12
8	9	3
12	28	2
11	59	3
69	69	12
75	75	12
16	17	5
27	29	4
3	4	9
13	15	3
44	45	8
104	104	18
129	129	6
22	22	5
62	62	7
96	119	5
47	50	2
24	24	12
4	4	7
108	108	8
31	32	2
101	112	3
34	34	16
82	82	8
118	118	6
45	47	5
124	132	4
111	111	10
79	80	6
59	62	6
33	34	2
93	93	9
77	78	2
102	116	2
76	127	4
6	64	1
107	108	15
73	79	2
55	77	1
7	8	3
127	131	1
71	88	3
21	43	4
110	110	8
32	32	8
59	59	8
50	50	6
84	85	4
105	105	11
17	56	3
52	52	7
67	68	11
128	129	2
129	130	7
54	55	1
38	38	1
12	14	2
92	92	9
30	30	8
112	113	11
128	128	8
131	132	2
10	57	4
8	37	1
96	124	1
98	98	2
72	72	13
13	13	7
15	16	4
47	63	6
126	127	5
47	47	1
74	74	6
15	24	2
54	58	3
23	23	5
60	61	2
10	58	2
121	121	6
53	54	4
106	107	10
88	88	2
60	60	10
12	69	2
57	58	4
8	60	5
94	94	11
80	81	1
75	101	3
17	43	1
99	100	1
126	130	1
13	24	3
99	114	2
127	127	10
14	15	3
124	131	2
97	98	11
75	76	2
55	55	5
27	27	5
94	95	1
55	58	1
71	72	1
52	99	2
88	91	4
96	97	2
132	133	5
87	126	1
118	130	2
65	65	5
11	37	4
119	119	7
26	26	4
22	23	2
85	120	3
108	109	4
130	130	7
125	125	8
56	56	1
57	57	2
99	102	4
89	89	10
103	103	3
15	15	9
126	128	1
100	105	2
124	125	6
18	19	3
80	80	9
79	93	1
26	34	2
54	54	8
38	39	2
100	112	3
18	21	3
37	37	8
86	125	1
79	79	9
59	120	1
80	82	7
109	109	5
115	116	4
42	43	3
16	43	3
61	120	1
73	76	2
12	62	5
55	76	1
120	121	5
102	103	5
57	59	3
52	53	2
119	128	2
91	91	7
49	49	1
35	36	2
9	11	4
43	100	5
19	19	2
91	92	4
66	67	3
14	26	1
26	69	1
97	116	2
56	57	3
134	135	2
68	92	1
84	84	2
97	97	3
45	45	3
83	83	2
19	34	2
114	125	1
22	29	1
16	16	5
86	88	6
109	110	2
45	46	3
87	88	1
93	131	1
94	126	1
35	35	3
48	48	3
117	122	2
54	120	3
65	66	2
127	129	1
5	5	4
22	43	2
26	30	1
87	87	3
1	2	4
16	24	1
53	100	1
78	78	1
122	123	1
119	120	2
6	7	2
131	135	3
59	76	1
19	33	1
64	92	1
68	68	3
73	121	3
125	126	1
53	53	1
115	115	3
133	134	5
13	17	2
75	102	1
130	131	1
61	61	1
105	109	1
49	50	1
116	117	4
33	33	3
11	18	1
13	69	1
90	93	1
9	9	1
6	8	4
79	81	2
75	104	1
83	118	2
49	53	2
88	127	1
68	69	1
9	10	1
24	52	3
20	20	1
43	58	1
30	32	1
121	122	2
97	99	1
1	1	2
109	111	1
134	134	3
107	110	3
96	125	1
99	105	1
24	62	1
17	17	1
6	63	1
110	113	1
108	114	1
74	75	1
53	93	2
85	91	1
54	77	2
8	59	1
66	83	1
43	43	2
49	131	1
87	115	1
106	110	1
93	114	1
124	133	1
27	68	1
