123	123	10
173	173	28
155	155	18
143	143	7
133	153	6
24	24	14
99	99	11
177	179	4
172	176	4
166	166	24
22	23	4
150	155	5
88	88	13
148	155	2
128	128	13
168	168	14
94	94	8
86	87	5
172	172	22
36	37	5
170	175	3
41	41	9
56	57	5
142	169	3
110	124	3
135	135	15
150	151	5
150	150	11
165	166	3
70	94	4
172	178	3
86	86	10
31	31	12
119	119	9
113	114	9
4	4	11
183	183	13
8	8	8
127	127	8
115	116	3
103	103	15
133	134	4
181	182	3
112	113	10
107	107	18
47	49	1
16	22	1
1	3	2
16	17	4
111	113	10
42	42	11
66	66	7
148	148	10
15	169	1
75	76	5
130	130	12
102	105	14
159	159	2
182	182	16
87	88	12
49	63	6
39	39	15
141	141	11
23	23	11
57	57	17
62	63	5
175	176	7
37	37	21
79	79	17
138	139	3
174	174	16
72	72	13
53	63	3
54	54	4
175	175	28
13	23	3
149	149	24
82	83	3
0	0	13
100	100	15
48	48	21
134	135	13
85	85	20
96	96	18
130	131	1
2	2	11
47	47	15
83	84	8
60	60	5
46	46	5
91	92	5
30	31	14
31	32	5
55	55	14
105	105	27
134	134	15
137	138	7
45	45	23
37	43	2
23	24	9
88	93	1
10	13	3
176	176	20
168	175	1
87	114	3
76	91	4
56	58	8
160	161	5
187	188	10
153	153	15
136	139	4
131	133	3
28	33	3
187	187	19
62	62	7
184	184	13
85	89	3
189	189	23
138	138	15
44	44	9
98	98	4
172	174	7
189	190	2
122	122	20
37	47	2
178	179	4
139	139	13
15	15	14
124	124	23
142	142	11
139	142	4
120	120	16
80	80	7
109	110	7
5	7	2
5	5	8
98	100	2
188	188	12
109	109	8
78	78	12
124	125	14
136	136	2
152	152	16
82	82	11
56	56	12
171	171	12
68	68	4
64	64	7
163	165	2
161	161	4
26	26	14
67	67	10
156	156	6
18	21	3
47	48	4
70	72	2
116	116	6
125	125	14
30	30	8
167	175	1
126	127	6
173	178	3
165	165	27
162	163	4
177	178	9
31	34	4
58	61	3
168	169	12
14	17	2
40	90	8
70	73	4
129	129	3
104	104	12
36	72	5
187	189	2
104	105	5
77	78	7
162	164	5
146	146	12
102	102	14
159	162	5
35	35	14
163	164	9
182	184	1
112	112	7
32	35	1
152	153	7
59	59	9
20	20	8
78	83	3
16	38	4
179	179	3
10	10	14
103	104	3
161	163	3
46	48	1
163	163	11
113	113	7
14	14	7
120	122	11
125	127	1
169	170	8
185	185	17
186	186	19
178	178	6
27	28	2
83	83	15
24	31	5
157	157	4
61	142	4
121	122	11
61	62	4
167	167	21
164	164	7
3	4	4
26	27	3
71	71	6
85	91	6
135	138	8
124	129	1
160	165	6
84	85	7
11	11	9
106	106	19
110	111	4
118	119	2
13	13	8
10	12	5
78	80	11
170	170	23
147	147	6
118	118	6
109	147	2
157	162	2
60	69	1
140	141	5
126	126	20
125	129	3
180	181	6
132	132	3
169	169	32
43	43	10
30	34	6
143	144	2
88	114	2
121	121	9
166	169	3
53	54	8
40	46	1
150	154	5
14	15	3
39	127	2
102	103	4
38	38	19
102	104	10
97	98	3
41	42	9
183	184	5
69	69	2
100	103	4
145	148	1
166	170	7
171	172	5
6	8	2
164	166	5
127	128	5
90	92	2
25	25	10
177	177	11
17	19	2
137	137	10
111	111	14
27	27	3
141	165	1
104	110	2
169	186	3
114	115	3
99	100	4
101	103	10
106	107	6
60	61	1
101	101	11
145	145	12
66	84	7
18	19	5
28	29	3
184	185	10
36	36	2
70	70	8
46	47	4
68	83	1
131	131	6
22	22	2
125	126	6
132	141	1
172	173	13
145	146	2
75	75	7
13	15	3
37	38	6
160	160	2
33	34	3
16	16	8
47	133	1
167	168	10
94	95	8
120	148	2
78	79	3
100	101	3
134	139	1
18	18	4
154	154	11
89	120	2
110	110	9
30	32	3
164	165	3
101	102	5
141	169	1
188	190	5
12	12	7
151	151	10
114	114	8
155	156	2
164	178	1
73	73	20
119	151	2
98	101	3
84	84	3
29	29	2
7	7	6
93	93	9
148	153	2
43	59	6
13	14	7
44	45	2
154	155	8
45	96	3
71	72	3
61	61	2
108	108	8
133	135	1
65	65	6
95	95	5
76	76	5
172	177	2
158	167	1
33	33	13
96	99	9
105	106	4
43	46	6
74	75	6
117	117	5
149	151	2
91	91	11
72	73	7
188	189	6
145	149	1
34	34	8
13	16	8
149	152	5
138	164	1
140	140	12
1	1	6
103	105	1
162	167	2
77	77	17
0	4	1
68	69	5
90	93	1
92	92	3
24	25	5
8	15	1
118	175	1
111	112	1
156	159	4
64	74	2
186	187	6
108	109	7
41	45	3
82	84	1
162	162	5
81	84	6
140	148	1
122	123	5
110	123	1
166	167	7
58	58	11
190	190	5
17	18	1
74	74	13
75	82	1
92	120	2
80	81	1
183	185	2
100	117	1
90	90	14
135	136	3
87	87	18
97	97	7
52	53	3
11	18	2
9	18	1
85	86	6
109	146	2
79	80	2
40	40	11
144	144	2
6	6	6
158	158	1
45	47	1
141	142	3
63	63	1
22	24	3
2	3	2
127	129	4
163	178	1
53	53	3
170	172	3
92	94	3
22	30	1
76	77	2
117	118	5
168	170	8
115	115	9
147	148	13
89	91	4
35	68	2
136	137	4
24	68	1
137	164	2
89	89	13
34	35	2
170	171	2
129	130	3
113	146	1
157	158	5
89	169	1
127	130	2
59	153	1
148	149	2
30	68	4
153	154	4
144	145	2
179	181	2
111	114	1
54	55	1
81	81	8
154	157	3
125	154	1
74	90	2
7	8	5
158	168	1
3	3	4
181	188	2
34	36	4
65	73	4
21	21	3
125	140	1
40	74	1
133	133	3
137	139	3
179	190	1
160	166	1
158	163	5
139	159	1
131	132	5
181	181	5
112	146	2
173	174	4
9	10	1
28	28	2
10	11	6
156	157	1
22	25	3
107	111	2
119	120	3
90	153	1
35	36	3
35	37	3
65	74	1
167	170	1
49	62	3
97	102	7
142	143	3
39	40	1
19	19	4
96	115	2
151	155	2
179	185	2
67	84	2
127	153	4
103	118	2
90	91	3
91	121	1
86	92	2
92	93	5
36	71	1
151	152	1
45	48	2
108	147	2
66	82	2
128	132	1
74	76	2
77	85	1
139	140	1
99	116	3
68	70	1
5	6	3
142	145	2
57	58	3
13	74	1
114	119	3
39	41	1
176	177	4
127	131	1
57	64	2
120	123	2
25	26	1
86	95	2
58	62	1
83	101	1
48	62	2
107	108	7
89	90	1
0	5	1
174	175	5
133	154	2
57	80	1
38	73	1
185	186	1
16	37	1
8	24	2
161	162	1
52	52	1
180	180	1
11	13	1
158	162	2
157	161	2
31	33	2
123	124	5
93	94	1
86	114	1
168	174	1
0	3	1
141	143	2
66	67	1
128	129	1
56	65	2
182	188	2
11	12	2
65	67	1
61	63	1
166	178	1
182	183	1
120	121	1
129	140	1
108	119	2
89	93	1
177	186	1
55	56	1
112	115	2
140	153	1
159	167	3
6	7	3
15	41	1
141	145	1
174	180	1
139	163	1
101	104	1
138	142	2
105	119	2
81	82	1
67	69	1
137	143	1
27	36	2
108	118	2
182	185	2
155	162	1
99	101	1
28	31	1
41	127	3
126	131	1
74	92	1
54	63	3
9	20	1
106	121	1
43	44	1
94	121	1
1	2	2
42	43	2
121	164	1
97	100	1
23	147	1
172	179	1
72	82	3
109	121	1
127	134	1
101	105	1
156	162	1
15	16	1
91	93	1
17	17	1
22	134	1
87	148	1
0	1	1
155	157	1
57	61	1
17	20	1
95	96	1
132	149	1
109	119	1
