40	40	7
22	38	1
65	65	17
25	29	4
46	46	9
92	97	3
66	66	21
43	43	15
101	101	10
53	55	4
67	73	1
53	53	11
85	90	2
42	44	7
46	83	4
61	61	10
84	84	3
22	22	5
33	33	6
69	71	3
29	29	11
22	27	5
52	54	1
48	49	1
49	59	4
62	62	9
32	33	3
80	84	1
78	79	2
81	81	21
69	70	3
51	51	11
44	44	7
61	62	7
70	91	1
95	95	22
86	86	8
58	58	14
50	50	18
71	71	4
75	75	11
60	60	12
85	85	8
36	36	6
27	31	1
87	87	9
76	76	12
58	80	5
41	41	17
77	77	10
43	66	1
70	70	9
65	66	3
74	74	21
28	28	4
38	39	5
57	57	8
97	97	17
64	76	1
33	52	1
53	54	4
83	83	14
67	68	4
36	37	2
92	94	2
90	91	3
94	94	12
63	79	2
91	92	4
47	47	13
64	74	2
40	41	5
49	50	6
45	45	7
80	80	9
96	96	11
57	79	4
92	96	1
98	100	3
48	56	1
44	64	5
56	84	1
55	63	8
52	52	12
42	62	1
69	69	22
92	92	11
42	63	3
80	81	6
59	60	2
55	55	10
41	42	4
97	98	1
24	28	1
79	79	9
39	40	3
56	56	9
71	72	2
40	63	1
35	35	5
70	99	2
39	39	11
23	23	1
42	42	12
78	86	1
83	84	5
33	34	1
63	63	8
64	64	12
35	38	4
96	100	3
77	79	3
38	38	8
20	20	2
41	44	2
47	83	6
67	67	4
89	89	15
68	74	3
66	73	4
88	89	3
61	84	2
56	57	2
79	80	3
73	73	6
96	98	1
54	54	8
79	86	2
37	37	4
28	38	1
92	93	2
54	55	4
51	91	7
72	91	1
48	48	29
85	86	3
53	77	2
72	72	4
75	87	2
88	88	11
68	68	14
63	64	4
47	61	2
27	27	3
90	90	11
46	98	1
37	38	4
48	85	2
36	56	1
48	50	1
46	48	4
100	100	10
87	98	3
63	74	3
55	56	2
33	61	6
23	28	3
70	71	2
54	79	1
37	47	2
52	71	1
45	48	2
30	45	4
57	59	1
64	65	5
47	48	1
81	82	4
29	30	2
28	35	3
23	25	2
35	70	2
55	79	8
74	75	2
58	79	2
52	53	4
25	25	2
101	102	2
60	63	2
99	99	7
40	60	3
49	49	7
51	52	3
62	84	3
27	50	2
58	94	2
82	82	4
35	63	1
40	70	1
78	78	4
49	57	2
37	48	2
48	51	4
96	97	3
93	94	6
48	59	1
66	69	1
47	84	1
62	63	2
69	95	1
77	102	3
62	86	3
91	91	11
91	97	2
26	27	1
48	83	1
69	72	2
44	78	1
28	54	4
75	76	1
76	77	2
53	81	1
42	73	1
68	69	3
91	93	2
26	26	2
93	93	5
53	88	1
95	96	1
20	55	2
27	28	1
29	53	1
70	101	1
31	45	4
84	98	3
43	62	1
67	71	1
44	73	2
46	47	1
43	85	1
22	26	1
31	31	3
34	40	1
51	78	4
52	77	1
60	61	1
46	84	1
86	88	1
83	90	1
84	89	1
47	62	1
53	58	2
70	90	1
33	60	1
63	65	1
51	89	1
27	30	1
51	72	1
54	57	1
64	85	2
58	61	2
30	84	1
87	88	2
95	99	1
68	76	1
55	88	1
55	59	1
42	75	1
45	85	2
102	102	3
72	73	1
76	85	1
56	79	1
65	73	1
44	77	1
35	36	1
98	98	1
64	78	1
34	34	1
96	99	1
46	53	1
49	52	2
77	86	1
57	58	1
59	59	2
77	78	1
77	81	1
49	81	1
23	76	1
55	58	1
