41	41	21
66	66	37
20	20	1
63	63	38
28	29	1
51	51	12
61	61	30
100	100	15
89	89	20
64	64	23
71	72	28
63	99	1
42	42	50
55	55	17
53	53	20
97	97	27
91	91	28
95	98	3
57	57	30
41	56	1
48	48	40
62	62	27
43	43	22
74	74	26
96	98	6
88	88	23
49	50	20
52	52	37
87	87	14
98	98	29
59	59	53
61	68	4
93	100	1
44	45	3
46	47	8
39	39	33
93	98	2
50	51	6
90	90	27
93	93	50
98	99	9
44	51	2
47	47	9
45	50	9
60	63	8
35	35	21
60	60	25
68	68	30
95	95	22
44	44	25
49	49	27
69	69	22
67	67	24
30	30	2
70	71	9
36	37	13
52	53	17
58	58	26
77	78	3
55	56	19
31	32	4
83	84	7
95	96	25
76	76	47
86	86	42
79	79	23
83	97	6
69	83	7
68	75	2
102	102	13
96	97	13
56	56	8
75	75	17
41	42	27
58	59	12
80	80	34
75	76	10
50	50	24
85	85	17
36	36	27
77	80	2
74	75	12
97	100	5
28	28	8
83	83	17
29	29	14
86	100	2
59	76	4
65	65	23
71	78	4
32	32	8
83	98	1
101	101	27
88	89	11
73	73	42
72	72	35
73	74	7
43	72	3
81	82	3
25	25	3
89	94	1
52	54	7
33	33	12
53	54	9
91	93	9
47	48	9
77	77	11
42	43	14
45	62	2
26	26	7
76	77	13
33	34	7
61	62	10
81	81	23
63	67	1
24	25	1
48	49	9
68	76	1
65	66	9
54	54	14
45	45	16
63	64	7
70	74	8
96	96	13
34	35	4
55	88	2
44	49	5
70	70	37
37	39	5
26	27	8
80	81	13
57	58	2
89	99	1
66	67	12
87	96	4
37	37	7
92	92	21
51	55	2
47	52	3
70	78	1
84	94	7
46	46	18
60	61	12
78	78	35
79	81	3
87	88	9
49	56	4
94	94	33
40	41	14
90	91	9
34	60	3
72	73	4
79	93	1
33	38	3
56	57	8
94	95	3
69	70	7
22	22	5
40	40	17
48	57	1
91	92	10
37	38	3
100	102	4
57	61	5
54	88	3
42	46	3
38	48	4
31	31	7
36	38	3
71	71	15
84	84	21
30	31	5
49	51	3
89	90	2
27	27	12
66	69	1
34	34	13
91	94	2
99	99	25
65	67	2
86	90	1
82	101	5
59	60	3
95	97	2
71	73	3
38	38	8
43	65	3
93	94	5
47	99	3
61	63	1
58	77	3
92	93	8
67	68	4
23	23	5
60	80	3
78	101	2
34	51	5
38	47	2
62	99	2
78	79	12
82	82	3
24	86	3
81	94	2
43	66	4
79	88	2
54	55	4
86	87	4
43	45	2
75	101	4
73	76	4
38	40	2
97	101	2
25	27	4
24	24	6
62	88	4
101	102	5
82	83	3
61	96	3
46	55	2
51	53	1
86	98	3
59	64	1
68	69	2
60	72	2
46	48	2
86	88	2
51	52	11
64	65	7
79	101	1
100	101	9
46	50	2
94	97	5
87	97	2
25	30	2
47	57	3
76	78	2
33	44	3
81	84	5
86	89	6
67	69	2
71	74	1
85	89	2
47	49	2
35	36	2
61	99	2
50	52	2
42	44	2
25	26	3
78	86	3
37	46	2
55	81	2
99	101	1
79	96	2
20	28	2
86	92	6
23	32	4
70	73	2
92	95	3
44	50	1
65	69	3
35	49	2
74	76	2
64	66	2
45	49	5
24	28	3
98	100	1
32	33	1
22	32	1
73	77	1
35	39	2
97	98	3
30	39	3
94	96	2
47	61	5
44	64	3
99	100	1
44	59	7
83	94	3
73	79	3
96	99	4
38	39	2
36	42	1
27	28	2
24	26	1
81	88	3
52	56	5
60	70	2
33	53	1
93	96	3
48	51	3
45	47	1
45	46	2
38	51	3
58	60	4
51	98	1
59	61	1
60	93	1
41	43	1
48	55	1
59	68	2
78	81	1
30	45	3
73	89	2
34	63	1
59	71	2
62	63	1
52	100	3
62	89	2
29	51	2
62	67	1
88	95	1
43	50	1
51	57	1
39	40	4
25	28	1
30	38	2
80	95	1
29	30	1
33	51	2
79	80	1
20	22	2
84	87	1
87	94	1
51	86	1
23	29	3
45	63	1
54	56	1
82	89	1
92	96	1
65	68	1
88	96	1
59	65	1
31	38	1
86	95	1
80	82	1
