9	9	18
26	26	4
24	25	12
69	69	7
186	186	17
74	76	6
137	137	18
139	139	12
24	24	16
32	41	6
58	62	1
113	113	5
165	165	5
48	48	17
108	108	23
134	134	18
189	189	12
175	176	5
26	39	6
31	32	8
18	18	13
141	196	2
85	85	8
80	164	4
48	56	1
7	8	9
127	128	7
46	46	13
3	4	11
114	117	4
125	126	4
159	159	16
155	167	2
163	165	2
38	39	13
33	33	7
143	143	15
79	79	3
19	19	14
11	11	16
142	160	3
107	132	6
152	153	5
28	38	6
194	194	11
154	154	22
58	60	1
150	150	13
139	159	3
111	111	23
177	177	18
149	149	20
51	51	16
131	131	18
55	55	9
0	0	11
135	135	7
197	197	14
139	160	3
149	151	2
195	195	11
182	182	17
190	190	28
179	180	9
50	50	13
2	4	4
161	185	2
178	179	2
102	105	7
175	175	7
115	115	17
153	153	9
158	158	13
141	148	5
66	67	2
44	44	10
151	159	1
25	26	3
84	85	3
45	51	4
25	25	18
124	124	19
78	78	8
119	119	14
183	189	4
52	52	8
12	13	7
158	159	7
163	163	9
146	146	14
76	77	7
8	8	13
125	125	5
196	196	13
53	53	17
61	62	3
133	133	14
192	192	13
58	58	16
16	16	12
2	3	3
150	178	6
1	19	3
161	161	11
173	190	1
0	1	4
40	40	14
110	114	1
162	164	1
80	80	3
155	156	5
157	157	11
180	181	9
141	141	15
105	105	12
188	188	7
5	5	10
5	9	1
158	161	2
105	106	6
104	107	5
157	192	4
191	192	9
122	124	4
185	185	21
28	37	5
176	177	8
48	49	9
6	41	2
97	97	6
3	3	8
4	5	7
102	115	3
79	87	3
94	150	2
187	187	16
104	105	3
39	39	5
84	84	8
184	184	17
49	49	19
152	152	5
102	102	23
43	44	7
123	123	4
160	185	3
72	80	2
142	169	3
120	120	14
160	166	4
38	38	10
18	177	2
172	185	1
30	58	1
126	126	8
181	181	8
1	181	2
137	138	2
160	168	3
145	146	2
46	55	1
12	12	16
59	59	9
47	47	27
46	53	1
180	180	5
167	168	6
52	177	7
73	73	9
117	117	13
17	31	4
166	166	9
167	167	10
43	43	4
66	66	5
71	71	2
121	121	11
5	8	4
177	182	2
122	123	6
129	130	3
56	57	6
168	168	10
19	26	2
132	132	9
183	183	23
170	170	10
172	173	1
139	140	5
138	138	4
141	160	7
1	21	1
77	77	2
125	170	2
159	160	5
87	87	11
148	148	12
176	181	1
20	20	9
41	41	12
7	7	14
156	157	8
104	104	11
170	195	1
100	189	3
4	4	8
36	37	3
162	162	7
118	118	3
114	114	6
130	130	10
33	177	3
169	171	3
29	160	5
80	162	2
142	155	1
80	81	2
109	113	4
154	155	13
26	61	2
32	87	6
151	151	10
10	10	17
61	61	14
104	134	7
121	187	4
34	82	2
27	27	7
76	79	2
60	60	5
94	94	7
125	127	2
186	188	4
151	177	4
47	48	9
1	34	1
70	71	7
25	27	9
98	98	9
15	15	16
142	142	6
29	29	11
144	144	11
40	42	2
31	31	9
171	186	1
85	86	5
49	55	1
102	145	5
164	164	5
5	62	2
131	134	2
119	130	3
106	130	2
116	134	2
32	33	6
147	148	9
133	136	1
128	128	15
35	35	7
46	47	4
107	107	9
100	100	8
176	176	7
28	28	10
129	129	12
109	111	3
145	145	11
54	54	8
68	68	8
152	177	2
103	105	5
42	42	9
184	186	1
183	184	6
16	177	1
94	95	4
161	166	2
151	176	3
93	113	2
36	41	1
16	67	1
170	171	9
136	136	11
176	184	2
34	172	1
122	132	3
88	88	9
144	146	4
67	68	7
12	168	1
169	169	15
17	18	3
30	176	1
62	63	1
168	172	1
50	51	10
10	27	1
102	114	6
190	191	5
107	108	3
31	183	4
14	14	11
3	6	4
160	167	5
105	129	1
180	182	7
88	90	5
185	186	1
134	135	5
59	60	2
195	196	3
146	147	3
134	138	3
44	45	6
117	118	11
74	79	2
127	127	8
112	113	6
18	24	2
116	118	4
34	35	7
69	70	4
101	112	4
122	122	10
183	194	2
10	12	4
20	22	4
155	155	10
162	176	2
151	178	2
105	115	1
62	62	5
143	153	1
141	162	1
13	14	6
96	96	3
53	55	2
26	171	3
45	45	7
191	191	9
140	140	5
74	75	6
20	37	2
120	121	4
170	187	6
57	57	9
141	150	1
80	166	4
165	167	5
121	122	7
134	137	2
132	133	2
16	53	3
150	157	2
108	109	2
151	157	7
19	20	4
21	21	5
74	77	4
147	147	9
23	23	4
99	100	2
13	13	5
169	170	7
17	17	4
4	62	1
74	78	3
56	56	1
102	103	6
2	2	11
143	145	3
130	131	10
114	127	2
74	74	3
6	6	22
106	134	3
22	22	9
6	79	1
101	105	1
64	65	4
112	112	3
156	179	4
0	28	1
153	177	3
47	57	3
32	32	6
110	110	7
3	8	8
15	66	1
115	135	2
0	40	1
9	158	1
11	54	1
99	191	2
160	160	10
103	103	8
124	125	2
148	149	1
140	144	1
20	63	2
34	34	8
38	41	2
99	115	2
14	15	2
120	134	1
140	148	3
107	115	1
162	163	5
19	63	5
22	42	1
75	77	2
0	57	1
116	117	1
76	76	2
95	95	2
9	170	2
106	106	2
110	181	3
64	64	5
110	133	5
78	87	3
21	22	2
22	41	3
10	40	2
34	178	1
42	43	2
119	133	1
82	165	2
101	101	5
99	99	3
35	36	1
182	190	1
181	183	1
77	78	3
70	70	1
193	194	1
84	89	2
193	193	10
179	179	8
54	55	2
114	115	3
112	139	3
39	40	2
7	9	4
171	171	14
109	184	2
49	50	3
78	90	1
121	124	3
152	160	3
3	59	4
109	109	8
17	29	1
114	126	3
116	116	2
59	61	4
60	61	2
63	63	3
136	138	5
100	128	1
78	188	3
154	185	3
140	146	1
95	181	3
6	7	2
89	90	3
156	156	5
100	101	5
165	190	1
172	172	4
18	53	1
157	166	1
153	155	5
28	29	5
83	84	4
182	183	6
27	30	1
133	134	2
30	31	4
15	16	4
104	106	4
101	102	2
105	190	3
29	69	2
147	196	3
141	149	3
30	30	11
17	177	1
10	26	2
59	62	4
10	169	2
172	174	2
178	185	1
173	173	7
141	155	3
97	98	1
133	153	1
110	130	1
52	53	2
71	160	3
116	130	2
110	111	1
168	180	2
150	160	1
149	167	1
97	109	2
154	181	1
45	46	1
36	176	2
178	178	11
106	107	1
19	62	2
103	115	3
174	175	8
190	192	1
111	112	2
168	171	1
182	194	1
19	25	1
99	101	1
86	88	1
103	190	2
184	187	2
89	89	3
113	114	2
160	161	4
118	121	1
37	37	4
57	58	3
192	193	4
101	115	1
28	41	2
65	80	1
142	143	2
24	69	1
151	152	1
126	127	4
68	75	2
45	72	2
100	149	3
50	52	1
5	6	3
158	160	1
4	58	1
189	194	2
47	56	1
143	156	1
188	189	1
184	185	2
82	85	1
81	81	1
110	115	3
96	114	2
86	86	5
4	59	1
149	183	4
189	191	4
108	133	2
15	33	1
161	167	1
125	197	2
162	166	2
50	54	2
163	164	1
16	17	3
16	172	1
101	103	1
172	182	1
151	156	1
184	197	1
6	8	1
159	166	1
166	168	3
183	187	3
142	144	1
37	80	2
173	178	1
33	34	2
106	190	1
136	137	2
16	24	1
108	110	1
93	94	5
108	132	1
1	2	2
100	183	1
154	158	1
176	185	2
166	191	1
135	136	1
102	104	2
153	156	1
11	12	1
140	143	1
160	171	2
18	19	2
138	139	2
22	23	3
90	90	2
38	87	1
167	197	1
20	45	1
24	113	2
10	168	1
16	37	1
152	154	2
55	56	2
170	186	1
157	160	1
37	41	1
174	174	1
99	106	1
105	110	1
67	67	3
171	195	1
171	172	1
165	177	2
12	15	1
36	36	2
149	150	2
103	191	1
141	157	2
125	168	2
143	144	1
33	36	1
0	2	1
165	166	2
173	174	1
106	133	1
168	177	1
172	189	1
107	188	1
4	8	2
148	152	1
157	177	1
69	74	1
145	148	1
143	154	1
93	93	2
10	11	1
164	165	1
141	146	1
160	187	1
87	88	1
4	30	1
1	1	1
172	176	1
47	49	1
21	68	1
157	165	1
102	110	1
156	180	1
83	83	1
23	24	1
81	82	1
131	136	1
169	187	1
186	187	1
175	183	1
148	154	1
81	85	1
20	24	1
158	182	1
132	138	1
53	54	1
150	151	1
189	192	1
