72	73	2
107	108	6
100	101	3
61	61	6
118	118	5
7	7	5
124	125	3
36	36	7
93	94	5
28	80	5
4	5	5
82	83	1
43	43	8
66	66	8
79	81	5
126	126	11
28	40	4
88	94	4
71	71	5
84	84	4
26	27	4
37	37	12
106	109	9
25	26	8
81	81	6
87	87	2
9	9	8
122	123	5
6	6	11
72	72	4
93	104	3
11	11	8
21	43	1
95	95	7
44	44	4
125	130	1
105	105	8
10	10	10
67	67	10
130	134	1
81	83	5
27	29	3
58	106	3
43	49	1
25	73	1
96	96	5
97	97	11
85	85	1
29	29	9
108	115	1
28	97	3
3	3	4
18	18	5
64	64	7
29	59	1
10	11	6
20	21	4
103	104	1
114	114	4
80	80	10
21	21	6
19	19	9
31	32	1
79	132	2
98	98	2
75	75	4
71	72	3
90	90	7
103	103	10
55	114	2
26	121	3
100	100	11
9	13	2
27	27	9
99	99	3
39	80	2
10	92	2
59	59	7
18	20	2
30	30	6
93	100	1
5	5	10
25	25	6
84	85	2
47	47	7
92	109	6
9	12	2
37	38	5
11	48	2
46	46	12
26	39	2
83	83	2
57	58	2
35	36	1
41	42	2
90	92	3
26	26	2
86	86	1
129	130	1
12	12	3
78	78	7
108	111	4
5	6	3
14	15	4
69	69	7
38	38	4
119	119	4
0	1	4
102	102	3
35	60	1
111	112	3
24	78	2
28	91	6
3	102	1
35	74	2
6	7	3
127	131	2
4	20	1
99	100	4
55	55	9
33	33	4
101	101	2
39	48	2
56	114	4
42	42	3
40	56	2
30	33	3
39	43	1
24	27	1
29	30	3
110	110	7
92	92	4
108	108	3
12	13	2
45	62	1
20	39	4
31	37	3
121	121	3
62	62	4
27	93	2
68	68	6
58	58	4
33	34	2
34	121	2
76	76	3
12	43	2
39	45	2
87	88	4
27	131	1
60	61	2
84	92	3
123	123	1
106	106	2
96	99	1
104	105	2
4	4	6
74	74	6
127	127	2
107	116	4
85	86	6
73	73	9
130	130	2
96	97	4
76	77	4
45	45	6
65	65	5
117	117	8
81	82	2
94	95	8
35	35	1
47	48	2
130	132	1
40	41	3
97	99	2
46	76	2
7	11	7
51	51	1
32	122	1
96	100	3
93	93	9
29	34	3
28	34	1
15	21	1
127	129	4
91	91	5
34	34	8
78	82	4
56	90	2
39	42	2
90	91	2
85	89	3
22	22	2
32	32	4
114	133	1
8	9	3
8	32	4
21	22	1
32	33	3
77	77	7
132	133	5
108	110	2
95	101	4
13	13	1
29	125	2
120	121	1
24	24	3
17	17	6
6	101	2
79	80	4
15	51	1
40	42	1
80	81	2
3	4	1
11	26	2
133	133	2
132	132	3
128	128	1
103	106	1
48	91	1
32	36	3
21	49	1
28	90	4
63	73	1
126	127	1
8	131	2
11	29	3
26	77	2
114	126	2
129	132	4
107	107	2
131	131	4
56	56	6
29	60	1
49	91	1
60	60	1
63	80	1
86	87	4
29	31	3
100	102	2
26	78	1
11	30	1
70	70	1
59	60	4
80	101	2
49	81	1
14	23	2
77	81	2
56	58	3
6	17	2
80	131	2
94	104	1
57	57	3
129	133	1
92	106	1
10	44	1
28	29	1
23	23	6
46	94	4
82	128	1
130	131	3
93	98	2
28	28	1
116	116	1
77	93	3
3	8	1
27	28	3
79	79	4
47	85	2
91	92	3
3	33	1
115	116	3
4	26	2
113	113	4
58	108	3
98	103	2
75	76	3
17	42	1
66	67	3
45	72	1
0	0	3
40	40	5
29	32	1
20	20	5
115	127	1
26	37	1
12	61	1
49	55	1
8	8	4
11	15	2
29	71	1
16	17	3
131	132	6
104	104	1
7	8	3
10	71	1
45	49	1
86	90	1
97	98	2
3	134	2
94	105	1
15	15	5
49	50	2
16	16	3
63	70	2
49	49	2
61	63	2
69	71	2
118	119	2
82	82	3
70	71	2
40	48	1
112	112	2
22	35	2
5	89	1
115	115	2
64	76	1
32	37	1
7	95	1
83	87	1
63	63	2
63	84	1
129	129	2
38	41	2
23	29	1
80	133	1
32	59	1
5	38	1
21	84	1
126	128	1
94	94	1
13	19	1
68	69	1
98	100	1
80	84	1
20	42	1
55	56	1
33	74	1
79	83	1
31	31	1
6	8	1
9	10	1
46	71	1
46	102	1
