79	79	19
46	46	12
123	123	2
26	27	4
18	43	3
68	75	2
40	56	3
98	98	5
8	8	22
66	66	29
18	36	2
73	73	13
21	81	5
33	48	4
109	110	6
128	128	7
80	80	18
87	87	10
90	93	1
100	100	17
42	42	13
78	79	7
95	95	8
122	123	2
17	17	8
11	27	2
16	37	8
129	129	8
132	133	1
86	87	3
5	5	25
15	22	4
75	75	24
26	26	24
68	68	9
103	104	6
42	43	2
122	122	5
70	70	11
1	1	1
30	88	2
57	99	8
90	95	2
50	50	5
32	32	22
11	36	14
94	94	9
27	27	8
90	90	3
24	24	7
89	95	2
35	35	29
98	99	7
14	14	10
48	56	3
86	126	3
18	56	2
35	37	6
76	125	4
112	113	8
61	61	5
37	37	15
25	25	13
89	99	5
20	80	4
11	11	26
47	96	4
10	10	23
8	37	2
19	44	5
45	57	4
12	43	3
69	117	5
59	59	12
127	128	6
78	78	5
102	128	3
70	71	7
64	64	10
16	16	10
20	20	11
3	98	1
10	37	3
41	42	11
125	125	4
38	80	1
38	38	5
9	37	3
46	74	1
9	9	5
17	60	5
126	126	6
33	33	11
82	82	14
83	83	8
113	113	12
96	96	7
28	28	14
112	116	5
39	44	1
132	134	2
28	29	3
8	77	1
72	72	22
7	132	2
10	11	10
83	84	4
110	111	5
81	100	3
51	57	1
89	94	3
4	94	3
134	134	4
24	83	8
115	115	10
15	18	2
91	131	9
103	103	8
97	99	4
100	114	1
18	19	3
74	119	5
106	106	8
77	77	11
76	76	9
8	9	2
4	4	11
34	34	15
6	100	3
46	47	3
32	70	1
114	114	6
26	29	2
4	97	3
119	119	3
43	43	9
92	92	4
127	129	1
130	130	12
99	99	8
39	39	5
70	100	4
18	18	4
27	81	2
118	118	8
56	73	4
19	31	2
57	72	4
0	0	6
37	38	1
20	55	1
120	122	2
56	56	3
45	86	4
13	14	3
11	44	3
91	91	5
4	99	3
71	71	4
84	116	2
82	107	1
97	98	4
27	93	1
18	22	2
128	129	2
48	49	9
24	25	2
110	110	2
57	57	12
126	127	5
69	71	4
88	94	3
6	6	3
2	3	1
101	101	6
37	133	1
117	120	2
82	84	6
84	85	5
125	128	2
12	12	12
89	89	5
55	92	1
45	45	9
65	65	11
62	62	5
31	78	2
70	89	5
20	22	3
2	2	2
127	127	3
51	54	5
84	93	3
29	29	7
76	77	4
120	120	6
27	32	1
25	26	4
85	121	5
77	78	2
71	75	4
100	103	2
95	96	2
25	85	2
34	101	2
79	81	1
87	132	3
121	121	3
109	109	4
67	67	5
62	121	4
21	21	5
74	74	10
31	31	3
15	15	14
55	55	3
113	114	7
110	112	3
26	93	1
3	3	9
81	81	7
125	127	4
131	131	7
41	43	3
23	23	11
58	58	6
45	47	1
47	47	20
117	117	1
99	102	5
20	21	1
40	51	1
93	98	2
3	101	2
89	102	1
90	91	4
66	96	2
3	4	2
124	124	1
6	84	3
18	21	1
48	88	1
40	40	4
19	43	5
35	84	3
69	69	10
114	117	2
93	93	8
16	45	10
79	80	7
29	59	2
60	60	11
68	119	2
84	84	6
35	36	3
7	8	3
30	30	6
113	118	1
28	63	2
18	42	2
11	26	2
44	76	1
116	116	2
8	78	4
8	26	1
96	98	2
17	44	7
107	107	2
13	13	1
88	88	1
28	30	2
9	18	1
63	73	1
79	131	5
7	93	3
114	115	4
95	97	6
91	98	5
44	100	2
6	17	2
45	69	4
112	114	3
19	19	3
86	86	8
20	27	2
17	18	4
26	47	3
27	28	1
41	58	2
18	59	2
91	99	3
84	126	1
33	40	4
74	76	3
27	30	4
118	119	1
27	31	2
78	131	5
103	134	1
28	98	1
93	99	2
12	16	1
85	85	6
63	68	2
33	34	2
87	97	6
5	45	1
15	44	1
44	92	4
133	133	3
36	45	1
63	63	9
31	35	2
73	74	5
11	12	4
27	47	1
36	36	8
44	62	1
61	64	3
70	76	1
92	98	2
105	105	2
70	93	2
46	73	1
9	17	6
4	101	2
44	44	2
10	47	1
45	82	3
88	93	3
11	94	4
61	68	4
117	118	2
105	111	3
25	44	1
35	70	1
62	77	3
111	111	7
17	40	4
4	98	2
116	117	1
59	60	2
70	74	4
8	60	1
106	122	2
5	87	1
48	48	4
70	84	1
50	56	1
7	10	2
22	22	3
22	43	3
29	30	9
56	60	3
104	105	4
55	56	2
116	119	2
69	70	3
12	93	2
96	120	1
82	85	2
88	98	3
99	114	3
64	65	2
101	102	2
64	68	5
19	20	1
59	94	3
86	88	2
10	38	3
20	23	2
40	59	2
57	59	3
82	101	3
83	99	3
27	88	3
106	107	2
87	131	1
39	42	1
92	99	1
12	86	1
29	72	2
77	107	2
7	11	1
56	59	1
88	101	1
57	60	2
84	102	1
7	7	3
105	124	2
34	86	1
42	76	2
82	83	2
14	92	2
100	121	4
9	10	2
94	99	1
84	133	1
14	23	3
9	12	1
21	87	1
83	86	1
63	72	3
5	83	2
27	77	1
43	56	1
41	41	3
66	69	1
15	55	1
11	18	1
12	26	1
82	92	2
45	62	2
67	68	1
62	76	3
104	108	1
58	64	1
132	132	1
81	82	3
2	101	3
11	35	2
23	39	1
93	100	1
4	82	4
35	74	1
44	77	3
13	42	1
0	1	1
8	61	2
35	48	1
97	100	3
68	69	1
32	40	1
104	104	1
88	89	2
37	70	3
40	42	1
102	102	9
100	101	2
123	124	1
7	97	1
88	133	1
56	92	1
45	73	2
60	134	1
97	97	2
77	93	2
15	56	3
96	97	2
6	8	1
28	103	1
46	72	1
21	58	2
69	119	1
48	92	2
71	72	4
100	102	1
31	77	3
62	73	1
119	123	1
92	131	1
36	76	1
46	93	1
22	55	2
73	77	1
82	113	1
1	2	1
36	47	1
90	92	1
103	106	1
71	74	1
27	89	2
32	33	1
9	79	1
2	9	1
21	84	3
7	25	1
3	41	1
74	77	2
89	101	1
8	36	1
115	116	1
21	43	2
57	58	1
11	47	1
41	79	1
51	91	1
73	120	1
30	78	1
9	85	1
51	88	1
62	63	1
73	76	1
70	101	1
94	101	1
83	115	1
4	5	2
59	102	1
5	101	1
21	56	1
46	59	1
80	81	1
59	91	1
63	93	1
29	31	1
39	45	1
45	71	1
