137	137	4
179	179	6
150	159	1
123	125	4
18	18	8
174	174	1
30	30	4
172	172	6
4	35	2
83	83	2
149	149	2
53	53	2
130	159	2
168	170	1
7	7	7
154	154	4
122	133	2
153	153	4
17	29	3
103	103	7
92	92	1
160	160	5
128	129	4
140	140	3
128	151	2
107	108	3
1	2	3
9	9	9
63	63	2
134	173	1
72	72	3
89	96	2
157	167	1
36	36	15
73	73	4
49	53	3
87	87	4
38	134	1
15	21	3
6	9	2
27	90	2
90	90	4
51	62	4
152	152	5
24	24	8
52	54	5
100	100	1
22	22	14
133	133	2
161	161	2
92	135	3
165	168	1
42	42	10
115	144	5
29	31	6
15	28	4
33	33	10
40	151	1
5	6	6
99	99	3
108	132	1
97	115	3
89	91	2
4	6	3
2	3	5
21	23	3
86	87	5
55	55	3
123	123	6
8	9	3
110	111	2
94	94	5
17	19	1
148	153	2
126	166	6
65	157	2
137	138	2
147	147	4
158	161	1
19	20	3
29	29	11
116	120	1
164	164	3
15	16	4
71	81	4
26	27	4
145	145	7
165	165	5
12	30	2
104	105	2
37	37	8
115	129	4
100	101	2
32	33	1
9	10	3
105	106	3
8	33	3
11	11	5
119	128	3
127	150	1
12	16	1
80	81	2
89	90	1
2	49	1
2	2	8
18	19	12
26	28	1
16	17	3
118	160	3
12	12	3
162	162	3
113	113	2
109	109	2
27	27	5
34	34	2
27	43	1
4	12	2
116	117	4
2	95	1
148	148	5
49	50	2
128	128	6
111	111	6
131	145	3
146	147	6
38	38	3
155	156	2
51	52	2
96	97	3
87	89	1
168	168	6
58	88	2
66	125	2
51	72	2
7	11	3
27	35	2
31	31	7
13	13	11
72	73	5
14	14	6
180	180	1
31	159	1
45	45	7
117	117	2
80	95	3
118	128	2
168	169	4
3	3	4
49	49	2
38	39	6
43	43	10
41	41	5
133	143	3
106	106	1
152	157	1
19	35	1
6	10	1
8	8	4
40	41	2
35	35	6
57	57	3
66	66	3
83	84	4
39	39	6
18	39	3
127	128	4
176	176	3
28	28	1
101	118	2
23	24	4
135	136	1
51	51	2
4	4	1
171	174	2
147	152	1
33	108	2
108	108	3
129	135	1
107	112	5
67	67	3
74	74	6
21	21	10
26	26	5
138	138	3
64	65	2
84	84	5
25	25	6
41	42	1
146	146	3
17	17	6
5	15	1
58	58	1
92	93	2
88	125	2
40	43	1
13	14	1
144	144	2
76	77	3
143	167	2
104	106	3
120	122	1
171	171	5
147	148	1
122	130	4
44	45	1
152	174	6
45	95	3
156	156	4
10	36	1
32	32	6
77	77	1
143	144	3
39	40	2
23	23	7
105	141	2
169	169	1
165	166	2
143	143	2
90	100	1
104	167	2
27	32	1
167	167	5
95	95	3
61	61	4
5	5	7
15	15	6
20	21	3
152	155	2
28	29	6
7	10	1
119	120	2
36	43	1
30	41	2
170	171	1
37	38	2
116	116	2
40	40	4
19	19	2
59	134	1
173	173	3
80	80	1
20	20	3
41	107	1
34	138	2
75	90	1
89	92	1
53	54	2
105	123	3
3	4	1
17	18	3
19	43	2
126	160	2
73	74	3
120	120	3
153	175	4
124	137	1
5	29	3
148	171	2
136	136	2
175	175	1
36	38	2
34	39	1
43	44	2
155	162	2
93	148	1
64	106	3
11	12	1
62	62	1
10	10	7
59	60	1
1	52	2
150	150	3
92	133	1
33	106	1
7	23	1
102	102	3
118	120	1
6	7	4
92	94	4
35	36	4
6	6	11
127	135	2
154	159	5
127	127	2
124	125	1
104	107	1
25	26	2
143	145	3
117	135	1
43	45	1
101	101	3
78	78	1
26	30	3
1	35	3
127	159	3
125	147	1
61	86	2
52	53	1
89	97	1
119	119	2
178	178	1
159	161	3
144	150	3
80	88	1
123	135	2
177	178	3
124	148	1
91	135	1
112	114	1
3	45	3
144	145	1
10	11	1
94	149	1
0	1	1
146	153	1
82	82	1
65	65	1
9	12	1
67	132	1
42	43	2
14	36	2
25	31	2
105	105	1
74	75	1
122	122	3
63	90	1
56	56	3
2	31	2
121	121	3
30	31	2
2	7	2
8	10	1
162	164	1
118	123	1
117	120	2
93	94	1
16	16	2
104	104	1
8	32	1
112	112	2
45	62	1
158	158	3
91	91	1
114	114	3
108	144	1
126	126	2
6	129	2
68	81	1
24	26	1
56	65	1
6	49	1
3	5	1
110	110	1
81	81	1
112	165	1
111	114	2
151	151	1
38	43	2
72	76	1
6	15	1
96	99	1
170	170	1
103	106	2
55	56	1
59	59	2
102	125	1
50	50	1
163	164	1
132	132	2
27	33	1
65	77	1
54	54	2
129	129	2
4	7	1
7	22	2
159	172	1
7	84	2
44	44	2
107	114	1
127	136	1
51	63	1
24	25	3
12	13	2
37	41	1
151	152	1
3	8	1
144	157	1
122	123	1
115	116	1
131	131	1
41	144	1
71	71	1
22	38	1
50	52	1
23	128	1
28	30	1
120	151	1
67	95	1
7	15	1
141	142	1
1	1	2
59	61	1
120	145	1
26	43	1
63	64	1
92	96	1
97	146	1
39	41	1
