62	62	3
44	44	4
111	111	6
130	130	5
26	27	2
17	17	1
104	104	3
158	158	2
148	160	2
28	28	3
7	7	3
160	161	1
36	37	2
22	23	5
114	117	2
15	15	5
41	41	4
135	136	4
48	48	4
102	103	3
53	54	2
2	2	3
162	162	1
145	145	6
76	78	3
21	21	3
159	159	5
110	110	2
96	97	2
134	135	2
18	18	5
58	62	2
20	20	2
74	78	3
35	36	2
34	34	4
6	14	3
125	125	4
54	65	1
82	82	4
129	155	4
14	14	5
16	17	9
148	149	2
113	113	2
71	72	2
10	20	2
77	79	1
88	96	1
47	49	3
58	61	2
145	146	1
35	35	2
0	1	7
23	23	5
37	38	3
89	89	3
121	148	2
40	44	3
91	92	5
50	51	3
112	152	1
115	116	1
90	90	1
53	53	5
6	51	2
36	36	3
52	53	6
52	52	6
49	49	2
138	138	2
63	63	3
26	26	8
71	71	3
118	120	2
150	155	1
87	102	10
112	139	2
84	95	6
107	108	3
164	164	2
112	112	1
150	150	1
48	49	2
102	102	3
49	51	2
105	106	4
159	160	2
117	117	5
45	45	2
155	156	3
20	123	3
151	151	1
5	19	1
38	38	1
11	11	5
132	132	1
118	164	3
139	139	2
33	34	1
140	140	1
137	137	2
76	76	1
97	98	1
147	148	1
66	66	3
168	168	2
13	13	1
37	37	2
21	25	2
79	79	4
2	66	1
144	144	1
6	12	1
76	79	1
86	86	3
25	25	1
157	157	1
113	114	3
19	167	2
122	122	3
98	98	4
77	78	3
21	22	1
7	8	1
152	152	1
103	121	1
72	74	2
83	83	1
65	65	1
19	19	2
6	6	3
115	115	4
106	106	4
39	39	6
39	46	2
88	88	2
1	1	2
114	115	1
48	131	2
87	90	1
40	40	3
55	56	1
46	57	1
56	56	2
129	129	1
161	161	2
93	93	1
142	142	1
130	132	3
99	100	1
99	99	2
146	146	1
21	89	1
136	136	1
54	67	1
87	87	1
149	149	1
118	118	3
53	55	1
23	24	2
138	139	1
126	126	2
12	13	1
55	55	1
50	50	2
67	67	1
103	104	2
87	95	1
144	146	2
68	151	1
9	73	1
148	165	1
48	121	1
10	21	1
3	36	1
57	57	1
64	152	1
10	10	3
6	11	1
54	54	1
122	164	1
5	5	2
97	97	1
57	124	1
143	158	1
2	42	1
79	81	2
9	21	1
109	156	1
56	153	1
27	46	1
41	135	1
110	123	1
95	97	1
19	20	1
72	72	1
147	147	1
39	40	1
6	7	1
170	170	3
43	44	1
116	116	1
131	131	1
20	24	1
43	158	1
98	99	1
17	18	1
64	70	1
21	108	1
