72	72	7
17	17	8
108	108	6
119	119	1
28	29	1
35	35	11
35	36	3
22	22	4
1	1	2
13	13	2
108	109	1
21	21	15
18	30	6
129	129	2
3	3	7
113	124	1
38	38	3
9	16	3
45	45	10
23	23	4
73	73	2
65	65	9
100	100	8
101	101	3
99	99	3
72	125	2
27	28	2
27	27	4
96	100	1
86	86	7
8	9	3
130	131	5
61	61	2
8	8	5
18	48	2
64	64	11
68	70	4
16	21	1
95	95	4
85	100	1
130	130	7
39	39	2
122	123	1
36	42	2
24	24	4
81	93	3
8	12	2
20	28	2
12	12	6
14	14	1
10	10	2
5	21	1
114	116	3
87	116	2
90	90	4
87	87	9
38	82	5
66	66	7
104	104	4
11	27	1
63	63	5
126	126	3
116	126	2
31	32	2
82	83	2
10	13	1
96	98	3
106	106	4
70	70	8
123	124	5
62	62	7
81	81	6
64	65	2
92	93	4
48	48	3
18	18	3
117	117	2
120	120	5
115	115	3
25	25	3
107	109	1
56	57	1
41	83	2
76	76	6
21	38	3
61	77	3
21	81	1
78	79	5
132	132	6
11	69	1
11	11	3
41	41	4
69	69	1
16	18	3
6	11	2
47	48	2
72	75	1
59	59	7
84	84	7
69	100	1
43	43	2
31	31	2
111	111	2
42	42	1
110	110	3
11	92	1
123	123	3
3	93	3
29	61	3
6	6	9
82	82	6
104	105	3
97	100	4
21	30	1
9	57	1
28	97	1
125	134	2
40	40	4
34	34	4
16	16	4
39	43	1
36	36	2
93	93	5
84	87	1
6	99	1
132	133	2
77	88	3
55	55	3
57	57	7
10	68	1
79	79	2
68	68	4
77	77	5
96	97	2
47	47	1
8	59	1
33	33	1
32	32	4
10	11	1
25	29	2
26	27	2
10	59	2
51	51	1
121	122	1
24	25	1
9	9	1
75	76	2
4	7	4
2	3	1
13	15	1
67	67	1
92	92	3
88	88	1
4	87	1
71	72	2
96	102	1
88	90	2
47	83	2
15	16	2
6	86	1
112	123	2
113	113	1
29	29	5
4	6	4
63	77	1
70	71	1
15	15	3
118	118	1
40	41	2
46	46	4
48	54	2
12	16	1
37	37	1
19	19	1
5	6	1
40	43	1
29	47	1
78	86	2
30	32	1
3	98	2
7	101	2
42	43	1
29	48	1
50	50	1
4	5	2
58	58	2
110	111	2
7	7	3
130	134	3
89	91	1
121	121	1
42	81	1
90	91	1
7	60	1
91	91	2
30	30	2
76	113	1
20	20	2
29	30	2
97	97	1
116	130	3
5	5	1
32	34	2
22	30	1
74	74	1
46	120	1
75	75	1
90	94	1
62	64	1
8	76	1
12	13	1
55	56	1
114	115	1
48	49	1
109	109	1
76	125	1
103	103	1
61	62	1
7	22	1
118	119	1
134	134	1
85	86	1
