1	2	2
118	118	10
77	77	11
15	15	12
19	20	6
126	127	10
16	26	2
131	131	8
105	105	14
83	84	3
6	7	7
77	122	1
70	70	5
72	72	14
121	121	11
132	132	4
121	129	2
114	123	5
0	0	5
63	88	2
8	8	6
75	75	4
65	65	13
97	97	10
118	119	4
31	31	8
32	33	9
130	130	11
94	95	5
69	70	5
84	84	8
64	65	6
56	56	11
77	123	2
11	11	13
104	104	8
80	80	25
100	100	6
18	18	7
60	60	13
38	38	7
79	79	11
57	58	7
119	119	9
20	21	2
84	85	6
4	10	2
92	92	13
111	111	3
45	47	4
62	63	9
9	10	5
6	6	9
78	78	13
63	63	6
76	76	25
116	128	3
64	64	12
69	71	4
61	61	10
68	68	5
89	90	8
54	57	2
101	101	14
65	109	1
82	84	8
23	23	3
83	83	10
85	105	2
66	116	3
69	69	16
24	34	1
69	109	5
87	100	4
103	103	16
66	66	6
109	110	6
24	24	8
21	21	10
22	22	4
107	109	9
74	74	7
67	67	10
112	114	7
50	50	6
100	101	5
3	4	3
133	133	6
96	96	10
56	58	4
56	62	3
54	54	9
130	131	4
102	102	6
113	114	3
128	129	3
125	125	12
29	29	3
58	99	1
65	70	1
10	10	4
106	106	14
21	22	8
109	109	10
14	30	1
92	98	2
50	51	2
85	85	9
73	74	6
48	87	3
35	35	6
17	107	4
71	72	5
14	14	23
123	123	9
88	88	12
23	24	13
98	98	7
120	120	13
52	52	7
63	64	4
14	15	1
48	85	2
92	93	9
105	106	1
119	120	6
79	80	3
97	115	2
110	116	1
34	34	6
16	16	7
66	112	1
124	124	9
53	54	2
107	107	4
112	112	4
20	20	8
113	113	8
81	111	3
96	119	5
122	122	13
127	127	5
120	130	1
110	111	3
60	62	5
86	86	4
66	67	4
93	93	7
90	90	8
120	124	2
125	126	8
64	69	1
30	32	4
63	65	2
107	110	3
73	73	7
83	85	3
118	122	1
122	123	5
50	66	1
78	79	8
0	75	4
4	5	1
15	18	3
45	80	1
80	81	2
16	17	5
7	31	1
122	124	2
65	68	2
82	82	10
116	116	9
56	57	5
44	134	3
128	128	2
116	117	2
27	28	8
75	76	4
72	73	6
65	132	2
46	46	3
117	117	6
33	33	1
99	99	12
100	120	4
103	104	4
25	25	2
22	23	3
26	26	13
126	126	1
43	43	11
4	4	6
3	3	5
45	45	5
120	129	3
89	89	6
127	129	8
44	80	2
131	133	5
120	125	2
53	53	5
22	29	1
44	44	5
14	18	1
105	126	7
58	58	4
109	116	2
80	82	1
86	88	6
19	19	4
80	87	2
81	106	1
79	97	1
31	32	10
37	37	6
26	126	3
86	87	12
68	79	2
55	56	3
108	108	5
96	98	1
129	134	1
1	1	8
122	135	1
54	61	3
57	60	1
28	28	4
45	46	2
28	29	2
55	57	4
107	108	3
8	11	1
60	61	3
36	54	3
47	50	2
131	132	3
81	81	8
124	130	2
114	114	5
56	66	2
4	28	1
96	130	2
44	84	3
45	51	1
36	43	1
11	14	1
49	50	4
71	74	1
32	36	1
69	107	3
77	124	3
52	60	2
126	128	3
50	64	1
78	84	1
107	111	2
18	20	2
108	111	2
27	27	7
10	11	1
87	88	3
102	103	4
66	79	5
115	115	8
88	98	3
71	71	3
62	62	13
124	126	4
4	6	2
121	127	1
106	107	2
81	88	3
95	95	9
129	129	7
121	123	2
68	112	1
18	22	2
85	98	3
57	57	2
5	6	1
91	91	15
104	105	2
33	34	1
134	134	11
123	124	2
18	19	1
60	95	1
99	119	1
98	131	3
24	25	3
101	107	3
38	44	2
62	87	1
47	47	2
9	9	1
114	118	1
52	62	7
68	69	1
133	134	3
106	108	7
30	30	9
7	7	2
96	107	2
12	12	4
85	86	3
25	26	1
44	83	3
82	83	3
8	9	5
78	87	1
106	111	1
119	121	2
4	11	1
17	33	1
98	125	1
126	129	2
120	121	5
7	8	3
94	94	3
95	96	1
132	133	3
59	60	3
9	20	1
109	112	2
134	135	1
23	26	1
61	68	1
43	44	4
9	11	2
61	72	2
32	32	1
81	105	3
50	71	3
87	87	6
26	36	1
96	132	1
97	109	1
94	106	2
113	115	1
16	22	2
49	49	4
119	126	1
12	34	3
127	128	3
97	106	1
7	9	1
13	14	1
64	86	1
77	79	1
111	112	1
78	82	3
3	34	2
135	135	2
85	92	2
34	45	1
65	67	1
59	59	6
94	99	3
103	127	1
11	12	2
52	53	2
44	133	3
69	79	2
81	112	1
66	68	2
108	109	2
106	109	1
54	65	1
65	66	2
111	125	1
17	26	1
58	59	3
35	43	1
94	98	2
35	38	2
97	98	1
68	80	1
54	58	2
109	114	1
115	129	1
25	34	1
91	92	1
17	19	1
63	70	1
27	36	2
55	55	2
13	33	2
12	30	1
68	82	1
130	132	1
117	118	1
84	91	1
114	124	1
65	84	2
7	11	2
106	112	2
55	59	2
75	103	1
3	5	2
61	62	1
99	112	1
50	59	1
24	26	1
99	101	1
69	77	1
115	118	1
120	123	1
108	110	1
13	13	1
36	36	1
132	134	2
90	92	2
1	24	1
47	52	1
129	132	1
43	45	1
52	79	2
67	68	1
80	86	1
79	82	3
87	94	1
74	75	3
93	95	2
101	120	2
68	87	1
29	36	1
77	126	1
115	117	1
85	114	1
38	39	1
98	111	1
24	27	1
110	110	1
0	2	2
100	119	1
82	101	1
67	87	1
99	134	1
71	88	2
2	3	1
112	115	1
