51	51	13
55	55	16
6	6	9
37	58	2
72	72	11
79	79	12
45	45	22
60	61	7
76	76	21
40	40	11
49	52	1
10	25	5
17	17	22
19	27	1
30	30	17
1	1	17
14	14	9
7	7	15
10	11	6
9	9	16
46	46	25
56	56	10
2	2	12
51	52	7
39	74	3
74	75	8
39	39	19
54	54	12
77	77	10
67	68	2
25	25	16
58	59	5
57	57	20
35	35	12
19	19	8
70	70	9
21	31	2
38	54	5
36	36	9
49	49	25
38	38	15
50	52	5
74	74	11
42	42	25
68	68	14
32	32	18
44	76	2
39	75	3
61	65	2
11	11	11
10	10	12
80	80	16
5	8	2
0	0	10
29	30	3
64	64	13
31	31	6
5	6	23
4	4	13
67	67	14
60	60	6
62	65	1
63	63	20
12	12	26
33	33	13
38	39	7
20	28	4
66	66	21
48	48	11
58	58	13
5	5	9
37	57	2
50	70	12
53	53	10
4	5	2
45	79	1
41	41	9
65	65	17
16	16	12
49	50	12
20	25	4
29	29	19
11	31	2
71	71	6
43	43	7
62	62	10
50	50	11
28	59	2
8	8	17
1	4	3
74	78	2
36	64	2
75	76	2
13	13	7
74	77	1
73	73	9
69	69	1
34	73	1
10	12	6
46	60	2
0	5	1
62	64	2
54	64	2
11	12	4
52	52	21
15	15	12
62	74	2
50	51	2
19	20	2
28	28	8
14	31	2
62	63	3
34	34	5
53	54	3
78	78	20
49	53	1
61	76	4
27	42	1
31	32	6
27	56	4
9	31	2
61	61	18
47	47	13
2	8	3
32	33	3
79	80	3
63	66	2
21	21	18
1	20	2
69	70	8
37	37	7
56	78	2
34	38	3
20	36	5
35	39	1
26	26	6
33	69	2
7	15	3
49	54	2
3	4	7
47	71	2
73	76	5
70	71	6
18	18	8
68	69	4
75	75	8
70	72	5
71	72	6
29	35	1
3	3	6
10	31	4
27	75	2
45	76	1
25	26	1
66	67	5
12	22	4
9	10	7
21	26	1
8	71	3
4	80	3
63	64	1
43	73	1
64	65	3
27	27	6
7	29	4
12	14	1
15	25	3
37	55	1
40	42	2
46	47	1
30	53	1
13	14	5
6	8	2
4	19	2
46	64	1
37	40	1
22	22	2
36	37	4
55	78	2
66	69	2
30	73	1
34	55	1
78	79	1
61	62	1
6	15	2
77	78	3
20	20	3
27	28	2
16	30	2
64	66	1
59	59	3
26	27	4
50	53	3
41	42	1
31	51	1
2	30	1
41	65	3
64	68	2
39	40	1
69	72	1
11	15	1
27	76	2
15	31	1
52	72	1
39	77	1
21	25	1
63	69	1
8	9	1
30	33	1
44	45	1
50	72	1
56	57	2
1	2	2
36	57	1
46	54	1
37	61	1
61	64	2
14	15	1
66	70	1
