152	153	3
100	101	3
103	103	1
6	6	2
70	76	3
34	68	4
54	54	5
83	83	3
156	156	1
48	48	3
105	105	5
71	72	8
112	112	1
115	115	4
98	98	4
8	72	1
102	102	3
0	6	3
38	39	5
100	100	3
139	149	2
84	85	3
54	75	4
120	120	4
24	70	3
84	126	4
52	89	4
13	128	4
72	73	6
93	94	1
26	26	2
23	23	2
16	16	8
162	162	2
77	136	3
141	141	5
5	5	8
148	148	2
49	49	7
24	24	1
18	111	3
82	117	1
64	66	4
152	152	4
126	129	2
99	99	9
161	161	2
114	116	2
15	89	1
12	70	2
12	12	11
50	50	8
58	61	1
94	95	4
118	119	3
35	35	8
37	43	3
144	144	1
151	156	3
27	89	5
124	124	2
114	115	1
107	107	6
71	71	5
137	137	4
164	165	1
67	67	2
20	20	3
46	46	9
116	122	2
142	149	2
18	18	5
46	47	1
113	155	2
36	128	2
126	126	2
23	68	2
24	53	8
119	120	3
9	10	5
27	27	5
75	75	2
122	122	1
74	75	2
101	102	5
136	143	3
86	86	5
99	166	2
11	12	3
19	19	3
44	44	6
73	73	3
113	113	1
133	139	1
163	164	1
17	18	1
80	80	5
7	7	8
91	91	2
12	27	2
155	155	1
42	42	1
76	114	3
149	149	3
13	13	3
89	89	3
135	136	3
40	46	2
169	170	1
90	129	4
127	127	1
65	65	2
84	84	6
14	70	1
66	99	3
40	47	2
165	165	1
81	121	4
17	25	2
170	170	2
20	142	2
164	164	4
24	57	2
44	45	3
11	54	2
117	117	2
118	118	4
68	70	4
108	111	3
140	140	4
64	64	1
78	136	3
63	63	2
53	54	2
139	139	1
161	163	1
89	118	2
15	15	2
119	121	2
10	71	2
153	153	2
9	9	1
145	146	2
156	160	1
160	160	3
69	69	1
17	17	2
101	101	4
149	150	1
53	53	1
18	95	1
82	82	4
133	136	1
34	34	1
79	137	1
102	103	2
154	154	1
129	143	5
24	81	1
100	118	1
106	106	4
39	39	1
4	4	5
85	96	1
145	145	3
51	51	1
14	15	5
38	38	3
104	104	1
142	142	1
150	161	2
19	116	1
41	42	1
128	128	4
109	158	1
92	92	1
66	142	2
15	66	1
98	150	2
16	18	1
10	10	1
52	52	1
150	160	1
111	111	1
115	116	2
75	76	1
57	57	1
129	131	1
113	152	1
168	168	1
147	148	1
45	47	2
13	14	1
70	70	3
159	159	1
8	8	1
21	22	1
96	96	1
61	61	1
34	109	1
134	134	1
147	147	3
64	98	1
163	163	1
140	141	1
1	3	1
152	155	1
3	3	1
21	24	1
51	52	1
72	72	1
166	166	2
152	165	1
135	135	1
33	36	1
4	5	1
123	123	1
20	25	1
87	89	1
158	159	1
