69	70	6
111	111	14
54	55	6
77	77	8
56	56	10
80	81	1
107	108	1
78	78	27
82	108	1
68	69	9
31	31	6
64	69	2
50	50	9
95	96	11
103	103	21
47	47	13
65	65	6
93	98	1
115	115	2
96	98	3
91	91	19
55	62	2
99	101	2
42	44	4
66	67	4
83	83	9
55	56	5
30	30	6
70	70	5
71	71	6
72	72	8
103	105	1
94	96	1
87	87	6
99	99	3
42	42	4
78	80	5
73	73	9
110	110	6
45	45	8
86	93	6
107	107	11
110	111	7
30	31	9
76	98	1
37	37	1
64	71	1
106	106	9
26	26	5
32	32	10
80	82	2
76	76	7
49	49	11
93	99	1
42	45	7
27	40	4
101	101	18
36	36	4
79	79	8
19	22	5
91	94	1
64	70	3
38	53	3
28	28	6
86	86	5
43	68	4
46	46	5
34	34	10
89	89	2
28	40	2
29	46	4
112	112	7
22	22	3
114	114	7
75	78	2
59	59	7
63	63	2
85	85	15
95	97	7
103	104	5
61	95	2
79	80	10
111	113	5
66	66	5
91	93	10
96	96	12
75	75	7
60	70	2
97	97	11
109	110	7
58	95	3
108	109	5
96	97	6
76	78	3
28	32	2
60	60	11
47	48	4
67	67	11
24	51	2
81	85	2
20	21	2
108	108	10
105	105	6
79	88	3
63	70	3
74	74	6
82	84	1
37	38	9
102	102	4
57	97	3
41	67	1
52	52	7
77	79	4
66	68	5
94	105	3
59	70	1
43	43	11
100	100	13
82	83	6
73	93	1
46	48	6
90	90	9
100	101	5
38	55	1
39	40	3
79	97	2
53	53	4
87	91	2
73	74	6
85	86	6
59	95	2
43	44	4
28	31	1
88	94	4
73	77	3
80	87	1
70	71	2
68	92	4
59	60	3
77	83	2
58	58	2
41	42	5
60	64	5
42	43	1
68	68	2
29	29	10
113	113	5
82	85	2
61	64	1
58	59	1
69	69	4
97	98	4
62	62	7
83	84	6
38	39	7
98	98	3
61	70	2
75	99	1
93	95	2
23	23	5
98	100	3
57	57	6
74	78	3
86	110	3
34	36	2
93	93	3
48	48	2
33	33	2
84	84	4
29	37	2
95	95	4
37	39	2
99	100	1
63	76	5
61	61	2
75	101	5
62	65	4
41	44	2
39	59	2
33	34	1
28	29	1
113	114	5
86	96	5
71	93	1
102	105	3
55	55	2
112	114	3
51	51	5
94	94	3
38	38	2
104	108	1
79	86	2
86	91	5
56	95	2
40	41	1
58	60	2
71	72	4
98	107	2
23	25	4
86	95	2
109	109	3
92	98	3
104	104	7
67	68	8
64	65	2
73	99	1
27	27	3
99	102	2
62	63	2
80	80	4
49	50	1
92	93	4
64	76	5
87	110	1
81	81	8
88	88	5
106	107	4
22	25	3
76	102	1
102	103	2
57	58	3
92	92	9
59	66	1
60	62	4
85	95	1
90	91	5
21	21	2
50	51	1
51	52	2
62	64	1
70	78	1
64	64	3
87	88	2
63	65	2
74	75	3
41	41	5
94	97	2
82	91	1
67	74	2
67	73	3
72	78	2
73	88	1
63	78	1
69	72	2
65	70	2
75	76	2
54	54	4
82	82	1
38	62	1
89	91	2
50	52	1
32	34	1
59	61	2
101	102	1
53	54	2
97	100	2
72	76	2
32	33	2
97	101	2
104	105	3
77	97	1
27	29	1
57	90	2
36	37	1
24	45	4
72	73	2
26	27	1
22	37	2
66	70	2
20	22	1
103	106	1
86	87	1
78	79	1
65	67	1
74	99	1
81	86	1
71	78	2
37	42	1
88	91	1
51	59	1
105	106	1
41	46	1
65	66	1
25	25	2
112	113	1
58	104	1
