98	98	12
117	120	7
145	145	11
39	41	8
121	121	6
111	114	3
133	133	8
26	26	6
4	154	3
45	45	9
92	92	14
16	17	8
84	85	4
24	25	4
155	155	11
20	21	26
37	38	7
142	142	27
25	25	12
105	105	15
137	137	11
1	1	9
31	31	20
138	138	8
68	69	3
120	121	5
53	152	3
67	67	15
7	7	10
140	142	2
73	156	7
140	141	13
116	116	12
80	80	14
86	86	15
96	97	2
71	71	12
134	139	4
151	157	3
108	109	11
94	95	3
151	151	14
100	100	11
40	40	15
84	84	12
96	96	7
110	118	1
141	141	5
24	24	15
112	112	10
131	133	1
116	117	5
27	42	5
22	23	1
95	131	1
52	54	1
146	146	4
144	144	16
3	4	11
79	79	16
13	13	11
26	28	1
28	28	7
27	27	15
22	22	14
113	114	4
131	132	5
110	110	9
8	8	17
150	150	7
67	68	3
5	6	7
128	128	7
41	41	10
127	127	9
87	90	3
21	21	31
39	142	2
75	75	10
78	78	7
124	124	15
122	127	4
29	40	1
38	39	13
42	42	12
95	95	16
135	135	12
89	90	4
121	139	3
102	102	5
119	119	6
36	37	3
9	10	12
86	87	2
144	145	11
11	11	4
11	12	3
144	150	6
31	78	1
4	4	17
139	148	2
129	130	1
49	49	10
21	22	10
96	132	3
2	2	8
157	157	10
132	133	4
130	132	5
121	132	2
130	130	4
50	50	14
73	73	10
154	154	13
67	70	2
25	153	3
52	52	9
93	99	1
101	101	15
129	129	19
154	155	3
158	158	25
1	2	3
53	145	1
103	103	8
37	37	9
87	119	6
42	91	4
49	52	3
79	81	5
19	19	11
124	125	3
109	109	23
56	56	2
48	50	7
83	83	9
54	54	10
140	140	14
88	88	21
146	147	3
148	151	5
82	83	4
119	131	3
93	94	8
83	85	3
18	18	10
65	65	10
94	96	2
70	71	2
35	45	1
9	9	6
5	5	13
66	66	11
86	106	5
70	70	4
64	64	11
119	120	6
111	111	19
12	12	8
36	36	7
82	82	8
77	78	2
156	156	11
13	14	7
138	140	2
126	126	13
0	1	5
111	112	20
42	50	4
91	92	2
63	67	1
63	64	5
113	115	3
155	157	5
81	81	17
97	97	18
136	137	2
94	94	30
55	55	11
107	107	13
20	20	8
137	138	5
114	114	12
72	73	5
16	16	10
104	105	4
121	126	1
29	29	11
115	116	7
46	46	13
85	85	8
57	57	1
152	152	4
19	20	7
6	6	6
132	132	11
98	99	7
47	49	2
147	147	11
81	139	1
153	154	8
34	34	19
92	93	2
124	126	9
107	113	4
65	66	2
45	47	7
30	30	16
95	96	7
68	68	5
88	89	6
17	17	5
117	117	8
47	48	4
120	134	1
32	37	5
33	35	5
141	147	1
91	91	7
80	81	8
10	10	4
14	19	1
7	8	10
15	15	3
139	140	6
46	132	2
50	53	2
90	116	1
39	39	4
7	11	1
117	147	1
115	115	15
47	47	7
134	146	2
83	112	3
48	127	3
113	113	10
18	19	4
71	99	6
85	150	3
152	157	2
103	105	3
144	147	4
45	46	1
33	34	5
120	120	12
23	23	4
30	35	3
134	136	1
137	145	1
136	136	7
118	119	3
109	110	1
40	41	6
44	45	3
2	3	5
127	130	2
152	153	1
68	71	2
56	71	1
148	149	2
127	128	3
8	10	6
122	122	5
36	38	5
101	102	1
42	43	6
89	91	3
103	106	2
90	90	14
108	112	1
25	41	3
26	27	6
66	68	1
3	3	4
51	51	4
48	49	6
152	154	2
53	53	6
25	26	2
76	77	2
43	43	11
71	72	2
109	111	4
110	111	1
29	30	4
139	139	5
52	53	7
26	156	1
41	43	1
135	136	1
45	130	2
145	146	2
108	108	4
84	118	3
15	16	2
105	155	1
53	54	2
28	41	1
108	111	3
154	158	3
14	14	14
148	148	12
28	73	4
151	152	8
116	151	1
96	139	3
125	125	9
151	158	2
48	157	1
81	82	9
72	72	3
134	135	6
13	16	2
155	156	7
90	91	1
104	104	8
36	39	1
90	114	3
128	129	5
78	140	1
134	134	17
97	132	1
122	141	1
102	103	2
93	93	2
111	113	2
14	16	1
69	70	5
92	126	2
106	116	1
149	150	1
4	155	1
22	25	3
78	79	2
27	28	1
21	89	2
156	157	6
81	89	1
87	87	7
95	125	2
79	80	3
96	131	5
51	52	1
144	148	2
35	35	1
153	153	3
56	69	1
23	24	3
120	130	1
85	86	4
16	18	8
54	158	3
123	126	1
120	131	3
92	125	3
106	106	2
157	158	1
66	67	5
0	0	8
0	4	1
39	40	5
12	13	1
141	142	4
99	100	1
73	75	2
105	106	2
90	96	2
3	24	1
45	133	1
13	19	1
44	44	7
26	40	2
69	69	6
74	74	1
25	139	2
138	148	1
115	117	1
135	138	1
118	118	5
38	38	2
32	36	3
95	124	1
138	139	5
73	74	1
117	118	4
33	33	5
14	15	1
50	131	1
112	114	2
99	99	11
133	138	2
123	123	4
107	114	1
92	98	1
83	86	2
121	138	1
32	142	2
106	108	1
149	149	5
120	126	1
120	132	2
11	14	1
83	84	2
46	50	3
108	110	2
63	63	1
51	141	2
54	92	1
123	129	3
62	68	2
20	41	2
90	117	2
32	34	2
32	33	2
138	141	1
131	131	3
146	151	3
22	87	2
112	117	1
151	154	2
46	48	2
31	32	3
91	158	1
48	48	2
46	140	1
33	75	2
34	36	1
77	77	4
67	69	3
86	112	5
124	128	1
54	90	1
91	118	1
18	38	1
25	151	1
125	127	2
30	31	2
34	35	1
87	118	2
35	36	2
156	158	2
122	124	1
138	142	2
55	56	1
84	113	1
143	144	1
142	145	1
62	63	1
12	15	1
121	133	2
133	134	3
125	126	1
97	114	1
89	89	1
10	16	1
112	118	1
20	22	1
130	131	1
32	139	1
150	151	1
100	101	2
114	115	1
86	145	1
12	19	1
