144	144	6
78	78	17
162	162	14
9	9	27
103	103	10
141	141	18
116	116	7
65	65	9
38	38	19
37	38	9
15	15	21
99	99	9
137	138	7
99	109	2
44	55	4
179	179	10
41	41	24
165	165	5
11	12	6
146	146	20
131	131	14
23	23	22
86	89	1
7	16	5
172	176	3
19	19	18
122	124	7
145	150	2
10	16	1
31	31	25
7	7	6
64	64	21
21	22	5
167	177	8
132	132	9
55	55	9
7	9	10
25	26	4
19	33	3
147	147	14
13	13	16
93	93	15
4	4	19
154	156	6
56	56	18
96	97	9
71	72	10
133	133	14
150	150	10
54	54	10
23	33	3
67	67	6
21	23	2
151	151	10
17	17	16
120	120	8
4	7	9
76	155	3
42	42	21
11	18	3
101	117	3
11	20	2
10	10	21
80	81	9
39	39	7
91	91	12
12	12	12
43	44	4
176	179	3
104	105	4
98	180	4
142	173	2
154	154	9
82	82	16
154	159	3
153	153	11
7	12	1
117	118	4
124	125	2
22	23	10
19	162	1
115	117	5
94	94	11
96	96	14
106	139	2
8	9	24
66	66	6
132	133	7
28	28	15
22	22	25
147	148	2
170	170	13
52	52	12
99	126	1
148	149	2
6	32	7
136	136	9
29	29	25
150	151	11
33	33	19
168	168	9
83	90	2
164	164	13
14	94	1
123	123	13
100	117	5
171	171	8
18	18	23
115	135	2
79	81	6
123	124	9
97	119	3
14	14	26
34	34	15
63	64	3
75	86	1
4	13	5
35	35	25
134	134	4
30	30	10
124	124	11
102	102	7
80	122	1
148	148	20
171	172	11
110	113	2
83	84	5
57	61	2
66	68	3
4	8	5
43	43	12
127	128	4
141	142	2
111	111	10
13	64	3
128	128	11
5	5	9
163	163	15
158	159	4
140	140	15
39	40	8
141	172	8
79	102	1
2	2	16
3	3	11
135	135	19
16	42	2
165	166	6
27	27	21
6	6	19
71	76	1
19	27	4
98	98	2
90	90	4
73	152	2
24	24	19
169	170	7
3	13	2
143	143	7
53	53	7
112	112	10
93	108	1
86	101	3
85	91	1
51	77	4
87	87	10
77	77	11
126	126	9
108	109	6
12	13	11
143	144	1
146	147	2
10	11	3
168	169	7
117	117	8
65	66	6
161	178	3
83	89	3
4	12	4
109	109	2
12	16	3
127	127	7
155	156	12
37	37	10
115	161	3
44	44	18
157	158	8
3	4	12
98	100	3
129	130	9
16	16	17
26	26	25
57	57	11
149	149	8
54	77	3
113	130	3
178	178	5
159	180	3
50	50	3
15	81	2
122	126	3
80	102	7
96	180	3
84	84	2
113	113	16
32	32	18
61	61	7
172	173	2
81	81	8
83	91	4
115	158	7
174	174	14
118	119	4
58	172	1
72	72	7
60	60	21
94	138	3
36	36	15
73	73	9
40	40	16
26	27	4
159	165	1
113	164	5
110	110	10
23	24	7
37	41	5
38	40	1
5	6	6
24	27	1
164	166	4
118	118	8
145	146	6
85	85	10
25	31	2
66	79	3
5	9	2
130	163	2
145	145	10
0	0	7
156	160	2
76	76	15
25	106	1
155	167	3
103	104	5
42	66	2
144	145	10
20	30	4
14	15	6
84	85	3
19	20	13
137	174	1
67	68	10
106	147	2
25	25	16
155	159	3
15	16	6
130	130	6
131	132	5
62	62	13
2	35	5
32	38	4
32	33	8
64	73	3
152	152	5
11	16	5
92	93	6
29	30	9
147	151	3
88	89	3
92	92	9
75	75	6
104	104	10
50	86	3
78	142	1
151	154	2
6	31	2
16	27	3
41	57	2
83	83	5
95	95	8
115	116	5
28	37	1
113	150	3
10	14	3
126	127	7
159	159	7
77	81	2
134	135	3
26	43	4
61	71	7
40	41	2
125	125	11
16	18	5
81	82	4
2	3	11
77	176	4
68	68	3
158	160	1
50	51	5
74	75	7
99	100	6
112	113	1
125	127	8
8	10	5
115	157	1
73	83	3
169	169	17
74	98	2
7	43	1
116	117	2
177	177	10
31	32	15
56	57	3
14	16	7
63	63	10
12	14	6
164	165	4
21	21	4
0	1	3
156	156	3
172	172	4
62	63	7
130	139	1
65	81	9
151	153	2
133	177	1
101	102	2
144	146	6
158	172	1
66	67	3
65	154	2
51	51	6
103	136	3
137	137	10
98	112	2
101	101	5
164	167	1
86	117	3
95	119	3
80	80	7
121	122	5
8	8	14
129	129	11
173	174	1
22	41	3
11	46	2
117	160	1
121	121	11
18	20	8
105	105	7
160	160	9
51	135	1
108	108	11
16	19	3
119	121	3
160	162	3
146	152	1
83	85	7
101	143	2
46	46	1
20	23	3
59	59	11
158	158	10
123	125	3
72	89	1
116	144	1
60	136	1
24	25	4
64	76	6
89	89	16
131	134	2
10	12	1
94	95	7
146	157	2
21	42	1
19	110	2
97	98	2
54	123	1
18	105	1
105	106	5
114	160	1
24	135	2
66	151	5
151	152	9
138	138	10
119	120	8
119	119	10
85	111	2
30	31	3
2	4	3
84	120	1
139	140	3
50	87	2
7	62	2
142	142	12
98	166	2
60	61	3
152	158	5
9	10	9
12	63	5
61	65	3
167	167	10
64	65	1
74	74	3
100	100	3
22	29	2
90	118	3
36	37	3
98	119	1
106	107	4
95	114	2
5	14	2
14	93	3
144	152	5
85	128	2
64	143	1
74	101	1
128	130	2
176	176	9
4	10	2
20	20	12
29	38	1
61	62	2
28	45	4
173	173	13
112	139	2
175	180	1
10	13	5
101	154	3
154	155	7
98	130	2
11	11	10
71	89	3
50	116	2
38	41	2
133	170	2
45	72	1
140	149	4
54	55	3
18	19	5
99	117	4
59	60	3
122	122	5
114	157	3
28	30	1
56	58	1
175	175	8
49	134	1
15	41	5
163	177	1
159	163	2
65	174	4
170	172	3
1	2	7
15	22	2
24	26	1
121	144	1
4	9	5
31	33	2
45	45	6
83	88	1
71	79	3
167	174	3
96	98	4
2	6	1
152	159	4
33	168	4
73	85	4
109	113	2
33	39	1
150	170	2
2	42	7
41	42	3
0	39	1
114	114	5
66	153	4
76	154	1
95	122	2
161	161	7
25	27	2
16	41	2
142	145	1
34	91	1
12	15	3
30	35	2
76	118	3
167	170	2
159	161	1
18	27	3
6	14	4
35	36	2
79	79	5
110	147	1
100	119	2
126	143	3
136	137	2
109	118	1
67	150	1
163	171	2
85	120	1
132	179	3
12	22	2
81	115	1
72	80	1
20	33	1
18	25	1
24	134	1
76	78	1
118	121	2
2	5	5
76	115	2
7	15	3
73	151	2
34	35	3
73	153	1
3	12	8
64	142	1
112	114	2
164	168	4
2	31	2
85	116	2
99	112	1
139	139	4
50	92	1
108	147	2
107	109	1
9	14	3
44	45	4
180	180	4
86	86	5
11	63	5
107	108	4
110	120	1
14	17	2
86	92	1
54	71	2
148	176	1
135	146	3
116	152	2
19	120	1
102	154	1
6	10	1
40	42	1
37	54	2
17	18	2
125	126	5
142	143	7
11	44	2
5	10	1
1	1	6
8	45	3
44	54	2
6	7	4
73	89	1
11	13	3
163	164	4
67	82	1
76	77	5
1	33	2
114	115	1
22	27	3
155	158	3
110	117	3
29	36	1
7	8	2
40	134	1
158	167	3
11	73	6
110	111	6
76	156	1
57	122	5
178	179	2
45	46	2
12	73	1
150	153	1
152	153	4
125	136	1
44	62	1
101	107	2
55	56	1
104	149	1
10	43	1
37	58	2
24	42	1
59	133	2
0	27	1
106	106	5
76	117	3
20	27	1
108	159	2
104	108	2
70	70	4
16	22	1
26	28	1
95	138	1
13	15	4
24	59	3
12	74	1
42	43	2
27	28	1
71	71	4
14	19	1
58	58	7
162	166	1
102	143	2
72	86	1
65	84	1
61	77	2
16	20	1
38	43	3
49	117	3
166	166	3
90	92	1
114	147	2
136	143	1
2	41	2
104	106	2
115	154	4
80	134	1
38	39	2
52	53	6
83	92	2
7	22	3
5	28	2
100	129	2
95	96	1
86	87	3
20	46	2
101	119	1
44	77	3
99	142	1
28	77	1
161	162	2
164	180	2
77	78	2
37	40	1
125	171	1
93	94	2
74	114	1
155	155	5
72	79	1
161	177	1
50	115	5
4	14	1
97	97	6
156	159	3
77	79	2
76	85	1
102	105	1
19	21	1
79	138	2
75	85	2
174	175	2
102	104	2
73	75	2
161	169	2
84	86	1
159	179	1
95	120	3
29	44	2
163	173	3
0	10	1
50	89	1
102	103	2
88	126	1
133	147	3
92	138	1
55	96	1
4	5	1
9	18	2
27	29	2
74	151	2
110	115	1
133	179	1
28	29	3
19	30	1
37	93	1
32	37	1
155	169	1
96	160	1
39	138	1
7	30	3
165	167	1
150	154	2
53	93	1
52	58	1
80	125	1
10	44	2
5	33	1
58	91	3
4	33	1
24	40	3
88	88	4
101	116	1
11	15	2
114	153	1
108	139	1
9	44	1
58	122	1
22	24	1
34	40	1
115	115	5
5	16	2
85	90	2
113	153	1
112	163	1
23	31	2
85	86	3
52	77	1
12	18	2
52	79	1
110	116	1
17	59	1
18	32	1
30	32	2
57	123	2
107	107	3
122	123	2
17	103	1
54	138	1
4	42	1
9	12	1
35	109	1
110	127	1
6	24	2
103	149	3
133	176	1
159	167	1
35	38	2
39	80	1
5	32	2
106	115	1
130	177	1
168	177	2
132	150	1
99	154	1
157	157	3
157	174	3
156	157	1
117	161	1
2	77	2
94	148	1
98	110	1
40	61	2
25	30	1
154	175	1
84	87	1
67	79	1
41	43	1
22	31	1
16	37	2
96	125	1
28	36	1
58	61	1
1	178	1
0	25	1
177	178	3
154	165	2
40	43	1
51	179	1
111	173	1
60	82	3
10	19	1
66	75	2
89	90	1
84	117	2
13	14	1
70	71	1
104	119	1
8	13	1
130	176	1
128	129	1
96	110	1
65	180	1
55	58	1
53	54	1
81	125	1
74	78	1
72	83	1
159	168	1
130	135	2
110	129	1
0	62	1
131	156	2
8	15	1
76	91	1
2	7	1
14	37	1
101	141	1
74	149	1
99	127	2
162	164	1
130	151	1
13	16	1
3	6	1
53	72	1
102	106	1
6	15	1
10	27	2
115	118	2
162	174	1
10	59	1
8	16	1
23	40	1
16	17	1
95	137	1
94	96	1
87	118	2
50	120	2
7	31	1
95	139	1
107	118	2
66	78	1
18	22	1
0	2	1
160	161	1
122	125	1
32	42	1
165	174	1
156	172	1
9	43	1
51	89	1
176	177	1
78	79	1
149	150	1
8	12	1
115	121	1
50	71	1
121	126	1
15	18	1
114	179	1
82	84	1
76	90	1
80	126	1
109	110	1
10	22	1
20	21	1
31	169	1
60	71	1
132	147	1
