11	11	10
83	83	8
94	94	18
112	112	9
34	34	15
129	129	7
43	107	2
53	53	13
141	142	5
28	28	8
43	64	4
6	6	3
42	42	7
45	46	2
146	146	7
63	63	5
24	26	2
15	15	9
56	56	13
35	35	17
47	47	12
19	19	8
109	110	11
139	144	2
20	26	3
33	34	2
20	20	11
15	16	2
121	145	8
110	110	5
4	6	4
72	79	2
130	130	6
22	28	6
6	7	9
54	105	4
143	145	1
149	151	4
99	99	4
129	149	3
127	132	3
25	26	10
121	121	8
107	107	17
121	138	4
7	7	9
45	45	2
136	136	5
51	95	3
154	154	1
122	126	2
135	135	9
134	134	5
31	32	1
44	69	6
46	47	4
18	22	4
108	109	3
76	98	1
78	79	7
22	29	4
87	87	15
37	38	6
46	46	5
29	30	3
92	92	3
17	19	12
150	150	6
139	146	5
84	95	1
133	134	12
123	123	7
37	37	2
26	68	3
92	93	1
82	82	3
81	83	2
37	41	1
44	44	5
90	90	3
33	33	14
33	37	1
81	99	1
28	57	1
13	17	6
39	56	1
5	5	7
24	25	2
103	111	2
2	3	4
63	66	3
12	12	10
148	150	2
80	82	2
70	135	2
30	30	6
62	67	4
77	77	7
11	15	5
88	95	1
35	36	8
38	38	12
125	127	1
54	54	16
54	55	3
16	16	9
30	73	4
113	114	5
21	21	8
128	128	5
13	15	10
147	147	7
71	87	1
18	19	2
68	68	8
32	32	14
62	112	3
81	81	11
133	154	4
40	49	2
78	87	2
70	70	5
49	49	5
79	80	1
138	139	2
15	24	3
20	21	5
112	113	9
68	79	5
81	82	1
118	119	2
124	124	12
85	85	7
38	154	2
50	50	2
13	13	8
76	76	9
41	41	9
23	23	9
7	17	1
149	149	6
4	4	3
48	49	1
69	86	4
26	26	2
44	45	1
18	18	9
121	126	3
94	97	2
9	9	10
78	78	5
122	122	5
19	24	3
106	107	3
101	102	2
23	24	4
14	14	6
30	31	6
55	64	2
97	97	6
125	125	6
86	86	10
96	96	7
73	74	4
114	114	3
51	78	1
4	5	4
69	102	3
33	87	3
88	99	2
40	52	2
25	25	8
39	52	1
39	51	1
104	136	2
36	36	3
108	108	2
116	116	2
10	12	1
145	145	3
65	83	5
37	40	2
102	102	3
29	29	5
102	139	1
153	154	1
38	93	5
132	132	4
110	111	3
151	151	8
117	117	4
28	87	2
21	27	4
141	141	10
123	124	4
83	84	5
76	80	2
35	112	4
31	31	8
78	86	1
62	62	3
66	76	1
22	22	8
66	74	1
87	93	2
85	103	1
41	43	1
85	104	1
138	138	9
27	29	1
83	99	2
14	15	4
124	127	2
143	143	6
66	75	3
56	98	1
67	76	2
147	148	3
127	138	4
111	112	3
43	43	3
153	153	2
5	6	3
122	137	3
36	42	6
21	30	3
5	7	2
90	93	1
88	88	3
30	32	2
10	10	6
80	84	2
55	57	4
93	93	6
137	150	2
66	79	4
43	65	1
53	106	2
79	79	7
100	139	1
20	31	3
84	84	4
71	71	9
142	142	4
8	14	2
37	154	1
100	145	1
124	125	1
127	127	5
118	118	3
41	71	1
11	13	1
104	105	2
33	42	3
100	119	1
69	84	1
126	126	6
76	78	1
27	27	10
105	114	5
44	46	2
64	72	1
24	24	8
51	84	2
80	81	5
148	148	10
34	36	8
48	102	2
125	126	1
50	69	1
57	76	1
13	14	1
106	106	4
30	33	1
56	57	1
40	41	1
3	25	1
50	82	5
33	94	2
127	128	1
106	114	2
95	96	1
7	10	2
49	68	4
53	55	2
64	64	1
127	133	1
25	28	1
84	136	2
8	8	5
27	88	4
45	80	2
103	103	2
27	87	1
74	74	2
55	55	2
34	38	2
119	119	1
123	125	2
146	149	1
109	117	2
120	144	1
98	103	1
131	144	1
42	50	1
26	29	4
131	131	1
6	10	1
130	141	1
4	8	1
79	84	1
53	54	3
40	40	5
144	144	1
18	23	1
142	144	2
100	100	1
74	75	4
99	102	3
32	42	1
4	12	1
115	116	3
4	13	1
12	15	1
48	48	1
8	9	2
126	127	1
123	127	2
120	149	1
58	58	1
120	127	1
95	95	1
133	149	1
121	139	1
63	101	2
58	65	2
145	146	2
57	96	1
134	135	1
29	74	2
104	104	5
133	133	3
64	66	1
64	68	1
73	88	1
56	87	2
70	71	1
22	83	2
38	39	2
130	132	4
97	102	1
57	57	4
55	56	2
74	94	1
89	92	1
129	130	3
9	10	1
137	137	3
138	146	1
122	141	1
42	43	2
50	51	1
101	145	1
103	105	2
42	71	1
49	50	1
105	105	1
65	65	3
16	17	2
111	111	4
107	109	1
109	115	3
23	26	2
80	80	4
34	116	1
139	139	2
73	73	7
75	75	5
7	9	4
62	113	1
114	149	1
20	30	2
104	147	1
67	67	2
98	113	1
52	52	1
109	109	2
31	37	1
28	46	1
81	84	1
85	87	2
11	17	1
78	81	2
9	12	2
33	79	1
35	152	1
50	65	1
26	28	1
39	39	1
8	25	2
66	68	1
99	101	2
43	45	1
17	17	1
22	26	1
120	137	3
81	95	1
26	44	1
56	97	1
144	146	1
77	78	1
10	11	1
32	78	1
101	101	1
69	69	1
29	77	2
152	153	1
41	47	2
27	32	1
88	92	1
132	135	1
47	48	1
110	136	1
72	93	1
11	12	1
67	68	1
78	97	1
144	145	1
100	101	1
15	40	1
7	8	1
103	109	1
33	88	1
