153	154	1
49	49	6
58	58	3
27	58	5
108	131	3
187	187	3
139	139	6
180	180	2
164	164	2
197	197	9
107	137	5
44	80	5
160	164	2
149	149	5
196	196	8
122	122	9
29	66	1
194	194	3
126	126	5
123	123	8
9	45	1
37	37	9
171	193	5
80	80	9
161	161	13
12	187	3
26	88	2
25	25	8
127	127	6
96	96	4
109	110	6
147	158	2
176	181	4
121	122	5
153	153	3
116	171	1
38	38	13
20	23	1
78	78	2
155	155	5
71	71	1
160	160	11
58	61	3
114	114	3
168	168	3
178	178	6
62	62	2
82	83	2
142	143	2
0	12	6
170	170	9
14	17	1
140	140	5
109	109	7
157	167	2
135	136	2
33	33	4
160	161	9
3	80	2
101	102	2
86	87	2
27	28	5
171	171	17
37	79	5
28	28	5
20	65	1
21	21	7
18	18	2
26	40	5
167	168	1
168	169	1
32	45	1
176	176	2
12	12	3
61	62	2
121	163	2
169	169	3
36	41	1
195	196	4
186	186	3
62	118	4
126	128	5
134	195	2
144	146	3
26	70	4
192	192	5
16	16	4
143	158	2
61	61	7
15	27	1
104	104	3
173	173	13
106	106	4
83	83	10
195	195	6
144	156	4
158	159	5
184	184	4
149	150	6
5	17	3
136	136	5
191	191	10
33	34	6
105	105	2
186	187	1
72	72	3
99	99	4
34	63	1
151	151	3
175	175	7
141	183	2
177	178	8
179	179	5
53	53	11
147	147	9
51	51	5
36	36	4
40	40	3
7	7	6
83	84	3
9	9	3
148	149	2
8	8	7
117	118	2
6	7	1
107	107	3
64	64	6
150	155	3
68	79	1
15	15	1
30	31	3
108	109	2
172	173	3
74	76	4
8	9	3
7	8	2
145	150	1
163	166	1
138	138	6
119	119	5
44	44	4
54	55	2
162	168	5
17	18	2
50	50	6
185	186	8
133	133	3
159	160	2
31	46	1
20	64	4
12	24	1
108	108	8
183	183	5
68	80	2
145	173	1
142	142	1
152	152	6
45	45	4
59	73	3
108	161	1
48	48	7
69	69	2
19	19	2
125	125	1
47	47	1
112	112	4
158	164	1
0	49	4
166	166	6
19	31	3
143	143	3
160	193	4
181	181	4
172	172	6
132	135	2
156	159	1
38	42	2
184	195	2
95	95	5
144	145	2
59	88	8
37	83	1
54	189	5
2	3	6
106	139	2
169	170	6
154	166	2
172	175	2
108	118	2
132	132	1
0	21	1
13	50	2
147	148	6
24	131	2
32	33	3
178	179	7
133	157	3
116	137	1
110	110	1
131	146	4
134	136	1
190	190	1
39	40	1
173	178	1
145	177	1
41	42	5
36	43	3
30	30	4
163	164	4
64	67	3
17	24	7
42	88	2
41	99	1
130	130	4
152	153	1
157	193	1
123	124	4
112	142	1
193	193	5
151	161	1
170	171	4
184	186	1
13	14	1
19	163	1
70	88	1
143	144	1
119	176	1
63	175	3
23	23	3
13	51	2
16	17	8
3	16	2
139	140	3
116	116	5
146	160	4
14	14	8
3	19	1
55	56	4
100	105	2
103	103	3
94	96	1
157	157	2
167	170	4
7	18	1
88	90	2
183	185	4
193	194	6
5	5	4
161	165	5
1	2	5
150	160	1
1	1	3
25	85	2
38	68	2
100	100	6
20	26	3
27	36	1
46	47	1
123	166	2
99	116	1
162	162	7
124	128	1
102	102	7
33	191	2
42	42	1
97	97	2
111	111	7
134	134	2
15	30	3
121	165	3
68	68	7
135	137	2
134	137	3
6	6	2
93	96	3
98	98	2
106	107	1
116	117	4
34	34	2
179	183	2
22	22	8
72	73	1
4	17	1
63	63	2
22	70	2
20	20	2
38	39	3
137	137	7
154	164	2
133	180	1
10	11	3
123	142	1
36	88	2
63	140	2
109	155	2
4	4	2
80	81	1
83	89	1
191	193	2
117	117	5
148	155	4
67	68	2
29	51	1
69	189	1
130	131	4
16	18	3
99	107	2
104	106	2
22	40	1
107	135	1
21	22	1
59	59	3
121	121	1
129	129	2
167	167	4
165	165	5
131	131	1
24	34	1
47	185	3
114	115	3
118	163	1
49	50	3
170	175	1
118	139	3
26	73	3
98	132	2
102	119	1
37	138	5
79	81	1
185	185	2
173	174	1
24	24	4
2	2	3
150	150	3
135	139	1
154	154	5
179	180	1
65	65	3
34	61	1
146	147	1
115	115	2
183	184	2
159	159	5
82	82	1
34	35	1
142	163	1
54	56	1
134	140	2
120	143	1
101	101	1
27	29	2
107	120	1
39	39	3
97	150	1
191	192	3
131	140	2
11	12	3
145	145	6
161	167	2
52	52	1
111	152	1
5	22	2
163	163	1
188	188	5
41	41	2
19	39	1
12	48	2
88	89	3
18	20	1
62	139	2
179	194	3
150	152	2
186	194	1
28	66	1
101	106	2
37	42	2
149	158	3
157	159	1
162	174	2
180	182	1
29	29	1
116	135	2
99	108	2
28	29	2
76	78	1
100	101	4
135	135	1
188	191	1
28	77	2
181	182	2
21	24	1
113	187	2
160	180	6
192	193	2
171	172	2
154	160	1
142	146	2
160	165	1
145	146	6
35	76	3
156	156	2
148	148	5
29	30	1
67	70	3
78	84	3
62	140	1
41	43	1
101	154	2
167	180	2
27	31	1
137	138	2
143	176	1
113	120	1
128	129	1
101	105	1
43	43	2
168	174	1
120	120	2
99	102	1
79	79	2
174	176	1
159	186	2
153	161	2
57	58	3
58	72	1
59	60	1
112	187	1
1	24	1
28	59	2
63	108	3
44	89	1
31	31	2
64	73	1
36	174	1
75	76	1
40	41	1
81	81	1
22	34	1
161	179	2
62	64	4
34	116	2
15	16	2
133	135	1
35	35	2
187	188	1
113	113	1
79	85	1
129	130	1
40	66	3
141	141	2
7	9	1
20	62	2
96	100	1
90	90	1
121	123	4
182	183	1
132	157	2
58	89	1
32	32	2
3	3	1
9	36	1
55	55	1
194	195	1
48	49	2
29	67	2
74	74	1
112	155	1
129	139	1
116	142	1
24	87	1
17	120	1
23	44	2
59	74	1
124	168	1
40	61	1
12	32	1
108	135	2
73	74	3
171	187	1
143	174	2
169	172	1
155	156	1
45	46	1
27	27	1
76	76	2
77	78	1
66	66	1
102	103	1
98	156	1
141	142	1
18	29	1
63	73	1
117	139	1
0	3	2
188	193	1
109	116	2
102	104	1
18	19	1
119	121	1
67	67	1
31	32	1
87	88	1
160	166	1
20	22	1
111	133	1
20	41	1
100	130	1
40	67	1
124	193	1
130	134	1
177	177	2
174	175	1
151	163	1
62	63	1
176	177	1
171	179	1
53	56	1
17	22	1
79	80	1
143	156	2
14	27	1
157	179	1
181	193	1
111	151	1
0	2	1
170	179	1
26	26	2
23	24	1
89	89	1
153	167	1
19	187	1
182	191	1
145	164	1
95	99	1
115	116	2
