72	99	3
16	17	3
110	110	2
60	90	1
25	25	9
101	101	8
17	17	12
39	39	7
19	20	6
114	119	2
93	94	3
8	8	2
54	55	5
131	131	2
2	2	8
67	67	7
44	96	1
26	30	2
60	60	7
69	69	5
86	86	4
113	113	4
34	55	1
114	114	8
21	21	3
48	48	7
96	96	2
87	87	8
73	80	1
83	84	7
82	84	4
56	56	11
71	71	2
44	45	1
118	118	3
119	119	5
50	51	4
38	39	5
23	23	7
59	69	4
78	78	16
112	112	6
128	129	3
79	79	7
80	80	3
75	78	1
111	111	8
45	45	10
52	76	2
18	18	3
34	34	2
53	56	2
41	78	2
7	7	3
15	100	2
95	95	9
77	77	3
13	27	1
88	88	8
97	97	9
74	97	1
44	44	7
98	98	1
101	102	7
9	9	1
82	83	2
13	13	5
28	108	4
84	85	2
75	102	1
122	122	7
111	112	1
108	120	4
49	50	5
108	119	2
39	46	2
75	75	7
54	79	1
29	29	3
16	16	10
3	3	3
44	106	1
69	70	2
66	66	2
44	87	1
18	23	1
16	29	1
94	95	10
57	57	8
126	126	4
23	128	1
40	42	2
54	54	8
38	38	3
113	114	1
105	105	5
105	106	1
84	84	4
61	62	3
53	53	11
108	118	3
59	59	16
0	5	1
76	77	2
109	109	9
87	116	2
72	72	6
50	50	5
32	33	2
48	56	1
52	52	6
27	31	1
104	105	3
46	46	3
75	76	1
39	40	3
23	24	5
79	81	2
1	1	1
87	88	3
43	43	4
104	104	6
30	30	2
14	14	7
71	75	3
20	116	1
55	55	3
28	28	6
58	61	2
42	97	1
15	15	9
115	115	4
92	93	2
67	68	2
131	132	2
86	87	3
74	74	1
85	86	1
38	59	4
105	110	4
73	74	6
73	73	3
33	97	1
14	100	1
68	69	2
121	121	7
31	84	2
70	75	3
64	106	2
133	133	6
60	63	2
58	58	5
89	95	2
61	61	5
20	32	1
30	116	1
38	70	1
13	77	3
64	68	1
18	24	2
5	6	2
70	72	1
94	94	1
126	127	1
50	56	2
23	25	1
91	95	2
62	100	2
40	41	1
17	24	5
118	119	5
75	79	1
31	31	7
125	126	4
22	128	1
129	129	2
47	47	2
99	100	4
32	59	1
110	111	2
51	52	1
123	123	1
53	104	2
46	47	2
71	102	1
100	100	3
39	56	4
22	22	2
116	116	2
59	60	1
4	5	1
51	51	7
88	89	2
60	70	3
78	127	1
115	116	1
69	125	1
82	82	4
62	62	2
15	19	1
78	81	2
81	81	5
89	89	3
108	108	7
64	64	8
18	94	2
15	99	2
41	74	1
38	62	2
42	42	6
107	120	1
40	40	4
10	10	1
106	107	3
125	125	4
97	99	1
32	32	1
83	83	4
104	113	1
62	90	1
101	133	1
7	118	2
117	119	2
57	71	1
4	4	5
47	68	2
16	30	2
0	51	1
112	113	2
106	120	2
71	76	3
43	44	1
41	41	2
99	99	2
25	126	1
56	78	2
33	33	3
68	68	5
78	79	1
127	127	3
38	128	1
41	96	2
28	43	1
40	43	1
41	44	2
15	131	2
52	53	2
92	92	2
17	25	2
3	6	3
106	106	4
127	130	1
6	6	4
49	49	4
91	91	1
85	94	1
27	27	2
65	65	1
16	131	1
23	76	2
55	56	1
47	76	1
66	72	1
65	69	1
65	68	2
103	103	5
7	8	1
12	12	2
73	101	1
55	99	1
26	26	1
53	112	1
62	102	2
91	92	1
112	115	1
56	102	1
20	46	1
107	108	1
71	72	1
76	76	6
8	124	3
40	44	4
19	84	2
124	124	2
88	95	2
62	89	1
10	92	1
32	83	2
21	22	2
60	61	1
0	0	1
63	103	1
77	102	1
14	57	1
130	130	2
107	107	1
5	132	2
69	127	1
11	11	2
68	127	1
70	70	1
90	90	2
64	71	2
22	23	1
58	68	1
128	130	1
19	19	1
119	120	1
102	102	1
97	98	2
69	133	1
16	128	1
89	90	1
2	5	1
14	103	2
13	14	2
73	97	2
66	69	1
93	93	1
67	104	1
75	77	2
120	120	3
15	96	1
122	124	1
34	92	1
128	128	1
98	99	1
132	133	1
42	80	1
28	30	1
17	19	1
58	59	1
125	128	1
77	127	2
100	101	1
113	117	1
15	23	1
48	117	1
88	119	1
56	103	1
120	123	1
10	11	1
54	76	1
91	93	1
33	131	1
58	102	1
101	128	1
12	77	1
38	101	1
25	70	1
