66	76	7
56	56	7
15	16	3
83	84	3
104	104	3
132	132	3
93	94	3
116	116	3
63	63	7
126	126	1
10	10	11
28	30	1
38	57	2
52	52	10
1	1	2
57	57	4
2	7	4
40	40	2
30	30	9
119	120	2
60	62	1
32	33	2
53	53	12
67	72	2
46	46	13
66	67	8
118	119	5
47	47	5
112	116	2
113	113	4
112	112	6
45	54	3
13	72	1
100	101	4
85	100	9
23	23	2
27	29	4
75	76	4
69	69	4
76	76	5
31	31	3
91	95	1
107	107	3
124	124	3
86	87	4
80	80	5
73	74	6
40	46	2
0	0	4
39	39	7
100	100	5
98	99	4
90	91	2
119	119	4
83	87	1
20	20	2
26	26	3
41	41	6
33	33	4
94	106	2
88	89	6
34	45	2
24	25	2
2	3	4
32	32	1
8	8	2
110	110	3
110	111	3
55	55	1
109	111	7
54	54	6
60	61	3
14	14	3
31	48	3
55	76	3
50	50	8
19	19	4
128	130	1
116	117	1
127	127	4
74	74	3
102	102	4
25	57	1
69	104	3
92	92	2
38	39	3
41	43	5
53	54	5
5	5	8
87	87	6
80	81	9
61	63	1
22	22	2
115	116	1
89	91	2
1	6	2
85	85	2
84	92	1
6	7	1
7	7	4
6	52	4
112	113	1
48	48	11
63	64	3
103	103	5
81	81	5
126	128	2
6	6	1
131	131	2
51	51	8
12	12	3
120	120	1
49	49	1
11	11	4
105	105	2
130	130	4
84	91	2
32	58	2
63	65	3
46	47	9
9	9	1
111	111	3
73	73	1
123	123	7
101	101	2
72	72	1
44	45	2
73	99	2
89	89	1
29	29	5
108	108	3
88	88	3
62	62	1
70	77	2
75	75	5
64	64	4
90	90	1
40	48	4
2	2	1
91	91	2
38	38	2
93	93	1
114	125	1
44	44	1
127	128	5
31	32	2
83	131	3
125	125	1
127	129	1
114	118	3
60	60	2
86	102	1
76	77	1
85	93	3
59	65	3
28	28	2
67	67	2
122	122	3
44	65	1
16	16	2
34	34	4
130	131	1
3	4	2
104	106	1
40	41	3
124	125	2
1	2	2
41	42	4
67	75	2
4	4	1
18	19	1
79	79	3
86	90	2
101	102	2
28	29	2
59	59	1
0	5	1
23	41	1
52	53	1
118	118	1
89	90	3
63	75	1
106	112	4
42	42	1
29	47	1
95	106	3
133	133	2
74	75	3
8	10	1
99	129	1
15	15	1
13	13	1
58	59	2
96	96	1
77	85	1
111	117	1
114	115	1
77	77	1
2	4	1
115	115	1
58	58	1
99	99	1
59	60	1
12	13	1
37	38	1
43	43	1
