84	85	4
101	102	9
35	37	7
85	85	9
114	114	1
42	48	4
104	104	10
42	42	22
183	183	14
154	154	7
135	135	6
164	164	7
139	139	13
38	40	4
168	168	12
169	183	3
25	26	5
140	140	20
86	87	4
75	75	13
46	46	5
92	93	6
106	106	3
175	175	7
2	3	8
124	124	10
83	83	11
100	100	2
149	150	4
55	85	3
64	72	2
32	32	9
10	10	10
109	109	11
33	35	2
90	91	6
10	11	5
23	23	6
88	88	5
35	36	8
78	78	2
12	14	2
147	150	2
150	150	1
10	12	2
1	2	6
113	113	8
176	176	10
13	13	4
94	94	3
61	61	6
183	184	7
102	102	3
15	47	2
101	101	8
130	132	2
171	172	5
134	136	2
125	125	6
96	96	12
57	68	6
29	29	4
16	18	10
48	48	21
84	84	6
6	6	11
113	114	5
75	76	1
17	18	3
40	42	4
57	57	12
185	185	10
7	7	5
118	118	4
108	108	2
169	170	5
163	163	3
170	170	17
56	56	4
116	116	7
19	21	8
77	82	2
47	48	2
53	54	3
2	2	7
39	40	2
138	142	3
155	157	3
146	146	5
152	152	13
68	69	2
177	186	1
150	179	4
145	145	10
83	85	4
117	119	1
129	141	2
156	158	1
87	88	2
48	86	2
130	130	9
148	148	2
38	38	8
12	12	8
188	188	3
56	57	8
125	126	4
153	153	11
86	86	3
92	92	3
142	142	5
26	26	4
57	58	5
82	83	2
123	135	2
156	156	3
125	135	4
169	169	8
37	53	2
108	109	4
76	76	12
42	43	1
169	182	5
47	47	6
133	133	8
36	36	8
27	28	2
1	4	3
150	151	4
165	165	4
29	31	1
21	21	2
90	90	6
129	130	8
33	34	2
98	100	3
135	136	2
39	39	3
16	43	4
165	166	7
27	53	3
22	24	1
118	119	2
79	80	6
109	110	7
70	70	11
171	171	1
49	49	3
67	67	2
112	112	8
184	185	5
141	141	4
4	4	2
136	137	5
104	105	6
87	87	5
56	74	2
92	96	2
133	135	1
34	34	12
54	54	7
175	176	6
80	81	5
5	5	3
111	115	1
137	137	4
8	8	8
38	39	4
171	174	1
4	5	2
97	98	2
103	103	6
132	132	3
91	91	7
40	47	1
85	86	3
139	140	1
79	79	2
77	77	6
28	56	2
29	30	2
178	179	4
42	47	1
106	177	3
0	0	6
167	171	2
3	3	12
123	127	2
107	108	2
83	84	6
178	178	9
174	181	5
43	44	4
181	182	2
107	109	1
166	168	3
190	190	3
108	110	1
149	151	1
98	98	3
48	84	1
86	88	5
137	138	2
156	159	1
4	6	1
142	143	4
151	152	2
115	115	3
95	95	3
57	74	4
1	1	4
72	72	7
134	135	4
56	60	1
36	37	4
68	74	1
111	111	8
78	79	3
184	184	14
35	35	5
171	173	1
93	93	1
152	184	3
155	155	5
116	122	1
28	28	2
161	162	4
101	182	1
30	30	2
74	74	8
174	189	2
0	90	2
26	27	3
55	57	2
40	40	7
184	186	3
76	77	1
64	64	2
20	20	6
180	182	4
33	36	1
68	171	5
134	134	3
120	120	2
166	166	9
96	101	5
68	68	2
116	131	2
156	157	2
74	75	3
182	182	6
13	17	1
152	186	1
122	122	5
77	78	1
58	62	2
179	180	2
41	48	4
43	43	2
124	125	1
56	71	1
187	187	5
4	68	3
58	68	4
143	143	2
27	27	3
41	42	1
110	112	1
179	179	4
121	123	1
161	161	2
181	181	2
177	177	2
23	91	4
60	60	2
62	63	3
10	13	2
129	129	2
3	13	1
63	64	1
90	95	2
167	169	1
37	37	5
114	115	3
159	159	6
96	97	3
131	131	2
170	182	4
24	27	3
107	107	3
95	96	2
64	65	3
15	15	2
13	14	7
66	67	1
114	116	1
2	89	2
177	178	4
65	66	1
112	137	1
28	29	1
105	107	1
89	90	2
173	173	1
55	55	4
133	138	3
129	133	2
162	165	2
130	131	2
157	162	1
81	81	2
162	162	2
158	158	1
41	41	3
136	136	2
121	121	2
160	160	4
59	63	1
17	17	1
30	32	1
58	58	2
34	35	2
180	180	1
1	75	2
60	62	2
117	118	1
123	124	1
155	156	2
88	89	2
80	80	1
16	16	2
42	45	2
57	67	3
18	19	1
149	153	1
128	128	1
134	137	2
133	134	1
5	6	2
127	129	1
73	73	1
101	104	1
165	168	1
40	52	2
173	175	2
35	39	1
99	102	1
3	8	2
3	94	4
149	149	1
163	164	1
61	62	2
57	73	2
180	183	1
127	127	3
132	136	2
151	151	5
45	45	1
68	85	2
80	82	2
25	25	2
65	71	1
133	139	1
154	157	1
158	159	1
110	111	1
52	52	3
120	121	1
185	187	1
89	89	4
18	23	1
121	122	2
41	47	1
2	15	2
55	56	3
189	189	2
110	169	1
164	165	2
93	94	2
31	31	1
60	64	2
17	42	2
24	24	2
15	43	1
18	18	1
176	177	1
91	93	1
20	24	1
104	109	1
37	38	1
99	99	1
76	80	1
104	106	1
167	168	1
154	155	1
144	144	1
168	171	2
170	173	1
40	41	2
174	175	1
113	118	3
110	113	1
146	148	2
28	30	2
21	22	1
92	94	2
135	139	1
110	110	1
95	129	2
18	91	1
3	90	1
60	63	1
11	11	2
101	103	1
84	99	1
46	47	1
7	68	1
16	19	2
128	130	1
142	144	1
44	47	1
174	174	1
172	173	2
116	120	2
180	181	1
20	21	1
108	125	1
82	82	1
14	14	1
136	138	1
188	190	1
157	167	1
53	55	1
38	52	1
