106	107	6
91	91	7
81	81	8
131	131	9
5	7	3
67	67	7
101	101	8
109	115	2
44	44	6
127	127	11
44	45	9
11	12	5
26	26	5
71	125	8
87	98	3
132	133	5
61	61	15
100	100	11
94	104	1
126	127	2
23	23	5
110	110	6
4	4	5
108	109	4
0	1	1
120	120	8
27	27	3
92	123	1
96	97	3
55	55	6
28	28	7
125	125	5
77	77	6
122	122	9
0	2	3
70	73	2
30	30	13
14	14	6
119	119	11
45	130	1
114	115	5
29	30	2
44	76	2
5	5	2
119	120	4
118	118	6
93	93	23
32	32	10
82	82	4
58	58	5
92	102	3
74	74	6
104	104	3
125	129	8
17	17	9
64	64	7
53	53	16
95	96	7
1	63	1
100	101	3
102	102	11
90	91	10
132	132	9
49	50	7
54	54	9
120	123	4
106	106	17
115	115	13
98	98	10
42	42	2
68	68	8
102	103	5
9	11	6
60	62	1
76	76	10
113	114	5
19	19	7
34	34	8
112	113	4
62	62	8
6	6	7
75	93	2
115	119	5
134	134	7
124	125	1
80	80	9
60	60	12
123	123	9
101	102	3
72	77	1
62	64	1
96	96	8
87	87	17
117	117	3
63	63	5
51	51	1
45	47	1
16	16	2
121	121	2
48	50	1
128	128	3
97	97	6
130	130	13
100	106	1
92	93	4
24	24	9
24	25	3
25	25	6
48	48	3
13	14	5
59	59	9
11	11	5
113	113	14
22	36	2
45	45	7
75	75	11
2	2	2
56	56	5
127	128	5
90	90	4
42	86	1
67	68	3
94	94	6
85	85	4
35	35	5
79	79	7
105	105	6
1	1	5
111	111	5
106	116	2
134	135	3
70	70	9
7	7	4
31	32	3
3	54	3
24	26	4
84	84	2
65	65	5
43	43	6
110	111	2
99	99	2
107	108	6
90	95	2
61	77	2
126	126	6
36	36	5
50	50	6
72	73	4
129	132	1
19	20	3
81	100	2
7	43	2
114	114	2
108	108	1
32	75	3
21	21	5
1	71	1
72	72	1
105	106	1
112	115	1
45	64	4
30	98	2
89	109	2
15	17	5
12	19	7
54	55	4
0	31	2
86	86	7
29	29	3
18	18	4
61	63	2
62	77	4
63	65	1
69	70	4
63	97	1
71	72	4
98	101	1
71	71	5
65	66	4
63	68	4
58	59	4
89	90	2
113	115	2
20	20	2
54	66	2
69	69	6
1	2	2
13	13	1
111	114	4
115	120	2
45	51	5
4	74	1
100	107	3
124	124	5
103	103	5
84	132	4
4	5	2
63	85	1
31	31	4
50	51	2
112	112	8
122	123	1
78	78	2
133	133	6
9	9	1
130	132	4
81	98	1
73	74	5
98	99	1
120	129	1
38	74	2
63	81	3
118	134	1
64	92	1
9	100	1
112	114	3
105	116	1
97	98	2
64	65	2
33	33	7
108	114	2
15	16	3
77	78	3
0	0	5
28	44	3
3	5	2
2	104	2
49	64	1
108	111	1
27	28	3
92	108	3
46	52	1
37	37	4
63	84	1
119	122	1
47	48	1
10	106	1
35	43	2
119	121	1
92	92	7
49	49	1
79	81	1
30	96	1
8	47	2
79	80	2
2	63	1
4	27	1
8	9	1
74	93	2
0	63	3
12	21	1
79	82	1
119	126	2
83	84	2
66	67	4
116	116	4
125	126	1
131	132	3
56	133	1
50	60	1
63	80	4
60	61	1
8	44	1
79	127	1
101	105	1
54	64	1
135	135	3
105	108	1
36	37	1
32	33	1
80	81	2
88	88	3
128	134	1
21	24	1
52	52	1
128	129	2
114	116	3
30	31	1
93	102	1
52	77	2
120	122	1
57	132	1
8	8	1
8	12	1
72	75	1
95	95	4
10	11	1
28	30	1
7	71	2
77	79	5
98	105	1
62	69	1
94	105	1
25	26	2
63	64	2
25	44	1
43	79	1
28	29	1
46	71	1
71	127	1
61	114	1
9	10	2
104	105	2
66	66	1
101	106	1
86	97	1
82	130	1
3	33	1
45	83	1
3	3	1
6	7	1
57	86	3
15	15	2
26	96	2
89	89	1
44	58	2
16	17	1
20	21	1
48	106	1
55	56	4
83	83	3
22	22	1
91	92	1
113	123	1
109	109	1
43	44	1
87	92	1
65	69	1
88	89	1
91	128	1
53	62	1
