58	69	3
51	52	5
98	98	11
56	56	15
72	73	3
86	86	8
28	28	7
89	106	4
99	99	4
26	26	5
66	67	4
98	99	4
54	74	4
50	51	4
65	65	4
75	76	2
92	93	6
49	49	6
39	39	3
26	30	4
67	67	6
77	77	11
36	53	1
37	39	1
101	101	11
88	88	2
69	69	5
37	37	5
76	77	4
71	71	12
102	102	10
58	60	3
50	50	8
96	99	4
35	62	1
58	64	2
62	62	5
61	62	3
67	77	3
30	32	2
32	32	3
100	100	7
25	25	2
79	79	4
92	92	1
89	101	1
55	55	7
64	64	7
37	38	5
43	44	4
78	78	6
71	92	1
94	95	3
68	69	4
84	85	2
70	70	5
30	33	7
91	91	7
40	47	2
85	85	4
33	33	3
73	73	5
97	97	2
107	107	1
41	43	2
44	44	3
64	65	2
73	76	2
96	97	4
35	72	1
48	50	1
43	43	3
87	88	4
76	93	2
57	60	2
57	58	6
66	66	3
80	80	3
46	49	1
78	82	1
38	39	4
106	107	3
72	72	4
23	24	7
89	89	2
26	27	2
40	41	2
52	54	2
55	56	2
99	106	2
58	58	6
72	79	1
38	38	7
82	83	2
46	47	4
63	63	4
83	88	2
51	51	3
95	97	4
90	91	4
40	40	3
74	74	2
52	52	6
33	34	5
71	72	2
95	104	5
67	71	2
78	79	4
31	51	3
55	57	2
94	94	3
21	21	3
24	24	5
75	75	3
68	68	8
38	40	4
96	98	2
45	49	3
76	76	4
99	105	1
27	27	6
96	96	3
79	80	4
40	52	2
38	55	4
41	42	4
36	51	2
82	87	3
94	97	4
44	46	2
20	20	3
35	35	2
89	94	1
45	45	2
48	49	4
32	51	5
29	30	1
82	82	2
91	92	1
36	36	5
23	23	3
93	94	1
30	31	2
88	90	2
80	82	2
62	63	2
64	66	2
105	105	2
30	84	1
61	63	1
31	72	4
60	62	2
22	22	1
30	82	1
71	102	1
90	90	4
53	53	2
28	29	1
80	104	1
39	40	2
25	30	2
53	54	2
42	43	2
38	42	1
83	83	2
34	34	2
51	53	1
37	67	1
96	106	1
54	54	1
47	48	1
84	84	2
92	95	1
58	70	1
93	93	1
46	46	1
34	35	2
67	68	2
42	42	1
22	24	2
104	104	1
30	36	1
100	102	1
47	47	2
54	103	1
83	85	1
60	60	2
81	81	2
81	84	1
48	48	2
60	61	1
35	37	2
65	76	1
36	37	1
31	32	1
52	53	1
101	102	1
28	61	1
57	57	2
36	49	1
86	98	1
44	45	1
27	30	2
89	90	1
80	81	2
61	61	1
94	106	1
29	45	1
56	60	1
