19	19	25
55	56	5
154	162	2
195	243	2
230	231	13
211	242	1
17	28	2
41	41	14
60	60	11
49	74	1
225	225	30
243	244	7
189	208	3
96	96	4
46	156	3
195	196	5
237	237	10
39	39	17
37	37	8
86	86	19
170	211	2
100	101	13
219	219	12
197	197	26
204	204	23
45	45	10
198	198	11
72	72	10
9	9	16
221	221	8
6	7	7
182	220	2
113	113	19
238	246	2
179	179	16
33	33	12
174	174	20
233	233	19
12	12	23
157	158	9
54	54	24
245	246	13
99	100	7
220	223	5
169	169	17
110	249	5
216	216	6
94	94	27
190	191	13
192	192	25
43	43	21
65	65	14
55	55	18
202	202	17
234	234	7
83	84	8
181	208	6
195	195	17
209	209	24
201	201	31
0	1	3
21	41	6
78	78	15
200	200	16
242	243	3
213	213	13
157	157	10
178	212	4
191	191	12
109	109	24
42	72	2
216	219	7
192	193	8
155	155	7
23	23	11
212	212	17
48	48	12
182	182	15
151	162	7
197	198	14
208	208	20
35	36	1
107	107	13
28	28	14
177	178	1
153	153	30
166	166	25
168	179	5
21	21	18
91	91	13
26	26	28
151	228	5
19	149	6
247	247	20
229	230	9
63	63	15
4	4	7
36	36	10
241	241	24
113	114	6
104	114	2
58	58	11
153	154	6
162	186	4
241	242	11
177	177	16
59	59	6
179	180	4
157	162	1
87	87	9
73	73	7
184	230	1
226	227	3
208	210	9
100	100	9
101	103	6
85	85	22
5	60	4
178	233	6
232	233	12
14	37	7
7	7	20
199	199	29
50	50	16
104	104	24
5	5	14
40	40	17
158	158	4
217	217	8
156	156	19
248	248	12
79	79	10
93	109	2
10	155	3
27	27	18
163	163	38
221	231	8
213	248	4
118	119	7
152	153	5
157	165	1
3	13	3
235	235	14
6	6	16
170	223	1
244	244	25
215	215	16
47	95	4
151	151	10
34	159	1
225	226	5
210	211	18
176	176	14
24	25	6
22	23	7
73	81	3
89	90	5
117	118	14
116	116	33
220	220	10
152	178	1
171	207	3
114	114	19
203	203	29
73	75	4
22	22	19
168	168	25
243	243	10
152	154	1
67	67	25
42	45	4
99	99	8
103	103	14
214	214	19
167	167	9
240	240	25
81	82	3
150	150	15
182	211	2
237	244	3
172	172	16
114	115	2
41	106	6
11	11	12
205	205	18
86	92	10
56	57	13
97	98	10
92	92	33
245	245	11
153	163	3
5	59	4
226	228	1
238	245	5
109	110	11
194	194	16
146	157	3
10	10	17
38	38	13
208	213	4
221	222	6
212	213	4
194	222	3
199	202	1
31	31	10
171	246	1
232	234	3
71	71	25
89	89	22
12	30	3
66	67	5
160	160	14
151	165	2
16	16	13
11	12	5
180	191	2
195	244	2
170	210	3
84	84	23
91	94	11
101	116	2
97	97	9
24	24	7
210	210	11
71	73	5
90	90	11
187	187	22
31	40	6
83	111	1
20	40	3
185	243	3
154	154	24
198	199	15
47	109	3
174	175	2
42	87	1
207	207	16
185	197	2
51	52	5
115	116	9
180	180	6
79	99	4
188	188	6
185	186	10
183	183	15
164	165	7
68	68	10
203	222	4
174	212	3
107	108	4
204	207	3
238	239	4
193	193	33
93	147	2
111	111	11
173	173	19
157	232	3
178	179	12
161	161	13
12	56	2
168	169	6
152	152	7
112	177	2
4	242	3
240	241	1
75	75	9
43	107	4
226	226	23
199	203	3
95	95	6
211	241	1
190	190	15
4	5	13
56	56	18
164	164	29
32	32	11
189	189	8
206	220	5
116	117	6
232	232	23
118	118	11
189	190	12
58	237	2
42	42	22
35	35	13
159	159	17
191	192	7
216	217	4
82	82	9
101	102	6
98	98	9
166	182	6
2	34	2
176	177	16
13	13	10
201	219	4
162	162	7
57	57	9
3	34	2
211	239	1
23	27	2
5	41	2
116	244	5
108	109	1
224	224	18
106	107	12
77	77	13
171	171	12
4	208	1
54	66	2
184	185	4
153	175	5
62	62	16
29	30	8
36	81	8
64	64	22
188	189	6
11	154	3
60	71	2
92	93	4
189	209	1
115	115	12
229	229	9
196	196	14
61	61	12
89	111	8
89	150	1
48	49	2
181	182	4
49	49	12
172	220	1
246	246	11
42	85	6
80	82	2
151	163	5
222	223	7
2	5	1
211	240	5
29	29	8
187	189	2
206	207	4
188	248	3
187	188	11
108	108	11
2	18	4
176	178	4
175	178	4
67	68	11
218	219	8
209	217	1
178	198	2
48	112	3
34	34	16
3	3	13
42	108	2
34	35	3
42	107	4
213	214	10
17	17	8
171	241	2
20	41	7
230	230	6
121	121	2
72	107	3
23	98	3
239	241	9
60	61	5
223	225	3
18	160	1
110	110	16
25	115	3
193	208	1
112	113	5
86	87	13
199	200	14
165	180	2
70	92	3
91	92	9
152	158	6
37	38	5
169	170	3
165	165	18
76	77	7
146	146	5
53	55	2
229	233	1
84	102	1
5	6	6
184	229	1
93	103	2
84	117	5
238	238	21
112	112	15
112	159	1
171	182	2
85	149	2
15	57	1
194	196	4
178	178	13
181	181	12
70	70	7
41	44	5
229	243	1
180	181	3
197	211	4
12	209	4
31	32	4
6	12	4
12	14	1
223	223	15
87	88	7
80	80	4
95	96	8
169	181	2
238	247	4
219	247	3
62	63	5
12	19	3
117	117	14
70	74	3
186	186	9
54	55	3
99	102	8
18	18	9
10	180	5
162	179	1
227	228	8
113	115	3
72	79	7
69	75	4
158	160	7
101	101	3
171	176	1
44	44	12
7	47	2
34	246	3
17	31	2
1	1	6
200	201	7
154	191	3
236	237	6
80	97	7
164	247	1
165	166	6
15	29	3
87	89	1
204	212	6
163	164	5
60	101	3
145	145	5
35	39	2
2	2	7
88	88	6
18	158	4
8	8	16
185	185	18
211	211	16
17	30	4
110	111	2
183	184	15
171	174	4
47	51	2
104	111	1
72	73	1
34	96	7
76	76	10
159	165	3
233	234	9
49	77	2
1	7	3
108	249	3
28	29	1
41	114	2
196	197	1
242	242	5
1	6	1
208	209	3
74	74	14
111	112	8
20	20	12
46	46	15
14	14	6
183	192	1
217	239	3
175	212	2
59	61	2
222	222	13
216	218	4
236	236	15
71	72	3
206	206	7
170	232	2
43	45	6
194	242	2
172	182	3
200	206	2
162	165	2
218	218	16
170	170	7
63	64	2
198	207	1
51	62	6
25	25	7
239	239	12
50	75	6
180	234	3
62	70	2
176	195	2
6	61	2
231	231	12
85	109	6
149	158	2
109	158	2
184	205	2
169	228	5
42	43	2
44	45	6
8	28	2
30	30	20
33	56	3
48	192	3
153	195	1
79	96	5
14	50	1
59	112	1
47	112	2
218	220	7
55	57	2
205	207	1
172	173	13
95	98	3
208	211	2
111	119	6
69	69	13
156	159	1
149	149	3
57	58	10
93	95	1
203	233	3
35	38	1
47	47	9
14	28	1
69	70	7
18	19	9
111	236	5
1	12	1
175	175	16
79	111	2
161	240	3
188	209	3
72	105	2
146	179	2
22	26	3
175	183	3
83	83	3
119	119	13
236	249	7
244	245	1
177	247	2
224	226	3
171	191	1
111	113	1
242	247	3
152	180	1
161	184	2
115	159	2
1	46	3
52	52	15
243	247	4
5	58	4
230	242	3
223	224	9
15	15	4
117	244	1
189	193	2
145	167	1
51	207	1
159	162	2
228	232	3
48	55	1
249	249	5
164	166	6
28	160	3
186	188	5
17	43	1
13	18	1
73	84	1
147	147	7
102	115	1
71	105	1
162	183	2
6	15	1
88	111	4
70	91	1
47	152	1
102	104	2
158	165	3
45	108	1
64	65	4
194	195	9
155	156	5
196	199	1
44	111	3
151	156	3
113	117	5
181	191	2
108	157	1
160	165	5
206	217	5
24	116	1
94	96	2
68	69	4
38	207	3
54	114	2
72	74	2
84	85	4
153	213	3
43	85	1
81	97	1
176	181	1
108	248	1
22	44	4
156	168	2
47	114	1
86	88	4
35	96	2
181	193	1
22	43	2
175	176	2
228	228	4
152	176	2
239	240	7
205	223	1
157	183	2
5	34	4
151	159	1
6	34	5
88	113	4
66	66	5
208	216	2
107	112	7
1	27	2
5	18	2
120	120	4
37	96	1
7	10	2
227	227	11
69	71	7
106	108	2
161	187	3
177	245	2
187	191	3
188	217	2
196	244	1
171	214	1
17	38	2
166	176	1
88	89	1
105	108	3
222	231	2
164	181	1
6	47	2
162	178	2
105	105	3
9	16	2
181	209	3
157	239	1
214	217	3
224	228	5
9	41	2
50	74	1
205	206	3
162	163	2
210	241	1
166	180	5
175	190	2
31	186	4
144	144	1
185	202	3
59	60	4
64	99	3
85	95	1
17	33	5
184	184	8
38	39	2
201	206	3
89	186	2
204	226	2
149	233	2
14	56	2
27	41	4
238	240	3
185	209	2
5	174	4
57	61	1
160	193	1
7	153	2
6	31	4
89	113	1
43	44	3
111	248	2
71	74	2
168	171	1
48	65	2
111	237	1
203	213	1
198	200	4
47	153	1
181	211	3
210	237	3
225	228	3
102	147	5
69	77	3
104	105	8
38	246	3
74	77	1
109	117	1
81	81	2
101	118	4
98	99	1
100	116	1
237	238	7
73	93	3
57	60	5
170	176	1
220	221	4
204	219	3
92	95	1
150	162	2
179	212	2
13	14	5
21	82	3
176	180	2
93	93	9
110	113	1
76	103	2
12	192	1
152	161	1
45	113	1
216	230	1
34	38	2
244	246	2
30	38	1
36	95	1
197	200	1
175	180	1
213	237	1
187	195	1
102	102	2
29	31	2
10	93	1
15	33	1
195	245	3
217	219	1
159	160	1
212	217	1
4	34	2
108	164	1
9	53	2
225	230	1
204	213	2
92	106	5
62	71	1
61	78	2
245	247	2
237	249	1
16	28	1
59	62	1
149	239	2
177	192	1
169	235	3
193	195	3
114	117	2
189	191	2
166	167	5
56	207	1
49	61	2
167	168	1
146	147	6
174	177	1
222	246	1
203	204	2
149	178	2
6	51	1
56	67	1
150	151	1
170	171	4
59	68	2
58	60	1
111	242	2
18	31	2
166	175	3
67	112	2
72	81	1
239	247	1
46	47	1
198	219	1
167	178	5
78	79	1
230	248	1
11	17	1
183	230	1
151	152	1
80	84	2
203	206	2
51	51	5
196	234	2
49	50	5
6	33	2
6	28	1
204	223	1
167	240	1
209	210	4
72	77	1
111	238	1
54	227	2
44	146	1
227	245	1
43	203	1
150	155	2
45	80	1
94	99	1
157	160	1
243	246	2
26	33	2
160	239	4
11	16	1
192	196	1
178	193	1
106	106	1
155	184	1
165	167	3
166	168	1
224	233	3
62	68	1
201	202	2
3	4	2
55	61	1
38	40	2
59	67	2
182	231	4
30	31	3
79	81	1
46	58	1
22	27	1
176	185	1
193	194	2
53	54	3
45	109	2
50	66	3
10	156	1
39	114	1
17	20	1
173	214	1
85	91	1
18	39	2
3	15	2
193	230	1
19	46	1
161	183	1
45	147	2
167	175	1
14	29	1
173	190	2
7	53	1
165	248	2
17	32	1
149	150	1
173	174	3
37	78	2
217	231	2
49	196	1
33	96	1
212	216	2
216	240	1
105	117	1
44	109	1
36	46	2
21	22	1
247	248	1
21	183	1
170	181	1
154	156	1
151	231	1
210	238	1
213	216	1
76	78	1
44	110	2
33	115	1
11	52	1
46	152	2
187	190	2
161	225	1
112	115	1
73	74	1
183	204	1
78	95	1
152	164	2
153	194	1
19	30	1
149	167	1
53	53	1
151	230	2
110	247	1
96	99	1
26	40	2
28	30	1
105	106	1
118	120	1
173	230	2
143	143	1
2	3	2
158	170	2
23	24	1
90	91	1
176	179	1
187	248	1
237	241	1
59	71	1
20	160	1
28	33	1
10	52	1
20	71	1
84	110	1
93	94	1
169	179	2
6	35	1
46	109	1
204	205	1
218	234	1
203	245	1
37	65	1
100	103	1
193	209	2
224	229	1
39	112	1
49	104	2
184	245	1
10	169	1
106	112	1
200	202	1
9	28	1
14	15	1
48	111	1
169	175	1
223	226	1
169	176	1
100	113	1
229	242	1
183	222	1
158	159	1
54	67	1
120	121	1
41	42	1
237	245	1
33	114	1
210	242	1
80	107	1
108	110	1
208	217	1
14	30	1
