97	97	12
46	46	5
180	180	10
231	231	4
105	105	2
95	95	4
73	80	1
76	76	9
224	224	15
182	182	7
77	112	2
110	110	17
5	5	3
179	184	6
107	108	2
161	161	4
41	41	7
88	88	6
189	189	11
85	107	2
169	169	4
172	172	9
64	64	1
180	181	6
219	219	10
111	111	10
114	114	12
162	162	13
24	26	2
43	156	5
101	120	1
217	217	9
12	106	3
181	181	4
51	51	10
156	156	9
201	201	8
174	174	9
32	32	9
81	81	10
200	200	10
49	57	3
58	102	4
215	215	6
59	59	8
108	108	5
167	179	4
95	116	1
104	115	5
11	11	5
168	183	2
154	154	6
235	235	8
163	163	11
19	19	12
186	186	4
18	32	2
243	243	7
69	70	7
225	225	4
59	60	3
214	214	12
245	245	10
198	198	7
179	227	2
14	14	3
113	113	1
90	90	9
218	220	2
8	8	14
90	91	2
234	234	7
212	212	6
104	104	4
183	187	5
77	77	1
103	103	3
2	111	2
44	45	2
166	233	2
1	1	5
92	94	5
240	240	3
87	88	2
23	25	3
112	112	2
197	197	12
210	210	7
6	6	10
157	159	4
205	205	5
61	111	3
115	115	9
155	155	15
44	229	2
233	236	3
108	119	2
201	202	4
60	62	1
190	191	2
11	60	1
190	190	5
164	164	7
185	186	5
166	242	1
240	244	2
70	76	1
229	229	9
242	242	19
36	47	1
107	107	4
189	191	1
46	47	2
177	180	2
26	26	1
150	150	7
161	168	2
112	113	1
157	162	7
20	20	7
10	11	2
14	113	2
21	22	8
17	69	3
78	78	5
169	184	1
89	245	7
44	44	4
94	95	6
243	244	6
165	166	7
247	247	8
24	24	4
200	202	2
217	218	3
226	226	11
152	152	17
228	233	3
4	107	2
48	55	9
79	81	4
209	209	9
78	112	3
163	213	3
63	63	6
108	118	4
38	38	7
109	109	5
212	213	4
199	200	6
118	183	2
96	98	3
48	67	7
94	114	2
12	62	1
217	225	3
157	210	1
237	242	1
115	116	1
5	70	2
176	177	1
11	27	2
159	165	4
73	73	5
88	111	4
213	213	1
9	9	4
192	192	5
179	181	4
48	50	2
239	239	2
80	82	4
45	45	2
37	38	1
119	119	7
232	233	2
80	81	6
225	227	4
221	222	7
193	193	12
120	120	5
218	218	14
176	176	3
79	79	5
171	171	8
208	248	4
76	112	2
72	73	3
169	170	2
60	60	5
241	241	1
175	176	1
12	12	4
85	85	8
50	60	5
202	202	4
39	39	6
247	249	3
173	173	9
248	248	2
177	177	4
187	187	6
167	167	2
166	166	3
170	171	5
206	206	6
93	93	2
12	109	1
230	230	3
214	223	5
203	204	2
10	29	2
18	34	6
185	199	6
62	68	6
228	228	2
60	61	4
237	237	6
52	52	4
207	207	8
5	68	2
117	117	15
183	183	5
175	177	4
65	65	8
16	16	3
36	36	5
162	163	4
155	156	1
22	22	4
75	75	6
190	192	3
88	108	2
49	55	1
153	200	6
56	56	2
242	243	2
77	113	3
77	88	6
160	160	9
201	204	3
54	54	2
168	169	2
153	154	2
175	175	7
69	69	4
73	74	2
18	38	5
178	178	4
220	220	1
100	100	4
66	66	6
156	201	2
166	167	4
85	108	3
40	40	7
64	79	1
77	111	4
82	85	1
73	103	2
184	184	7
117	173	2
238	240	3
208	208	6
174	242	6
105	116	3
163	164	6
159	159	3
85	91	2
214	215	2
188	188	7
201	206	3
68	69	3
35	35	4
33	33	6
51	61	4
211	211	3
223	223	8
219	220	6
27	27	5
84	111	6
208	216	1
105	106	3
72	92	4
158	159	1
30	35	1
72	117	2
82	110	1
101	101	4
98	98	4
170	170	7
181	248	3
32	34	1
5	106	2
222	222	5
83	83	3
33	57	2
215	238	2
174	231	4
203	203	5
8	23	3
196	196	4
117	118	3
218	237	2
15	16	1
113	115	1
8	92	2
227	227	6
19	20	2
58	58	1
82	82	4
191	192	2
111	178	1
90	208	1
169	171	4
239	240	2
213	214	2
23	24	4
48	203	1
162	204	2
151	151	5
57	57	5
3	3	8
102	102	3
64	104	2
99	100	3
116	116	7
90	110	2
199	199	4
214	222	2
52	102	1
62	78	1
96	96	3
62	62	6
244	244	3
29	29	1
161	162	5
84	97	1
104	107	5
177	198	3
47	150	1
149	159	2
21	21	1
7	7	5
198	199	1
158	158	3
86	99	2
145	145	1
200	201	2
120	144	3
63	64	1
93	94	1
214	221	2
30	47	1
9	12	2
197	203	4
53	53	3
4	111	1
84	84	5
94	94	4
187	188	3
12	36	1
181	183	2
163	209	3
176	182	2
43	43	4
160	161	1
76	113	3
226	227	2
182	186	1
162	208	2
231	235	4
18	39	1
74	74	1
191	191	4
34	50	4
30	30	3
15	15	2
173	174	3
74	75	4
188	189	3
37	37	3
176	241	2
55	55	3
195	195	4
91	91	3
194	219	1
84	108	3
157	165	1
232	232	3
92	92	6
156	173	5
179	180	4
4	91	1
68	78	4
100	101	1
174	181	1
30	31	3
147	147	3
185	185	2
79	82	3
58	77	2
28	29	4
14	15	3
104	106	1
80	80	2
213	231	1
45	79	3
100	109	2
96	119	2
77	103	1
23	23	1
220	221	1
166	240	2
60	69	4
28	28	7
72	88	2
58	101	1
36	53	1
19	38	2
20	34	1
208	243	1
162	167	2
15	69	2
46	155	1
72	72	2
67	67	3
88	210	2
111	238	1
246	246	2
35	38	4
210	214	3
87	113	3
165	165	1
68	70	1
10	10	2
53	54	2
108	239	3
39	47	1
210	215	2
29	38	2
176	247	1
20	33	2
238	239	2
244	245	1
25	26	1
174	175	2
238	238	2
194	194	2
181	245	1
106	106	2
46	52	2
4	4	1
153	153	6
89	118	1
240	243	1
241	242	2
76	119	2
221	221	2
214	235	1
49	49	2
196	244	1
25	25	1
41	56	1
168	168	2
223	225	2
47	47	2
83	84	2
157	208	2
102	103	1
94	104	1
11	37	1
230	233	1
146	152	2
212	235	1
185	205	1
76	77	2
10	22	3
240	241	2
197	206	1
63	68	1
189	246	1
2	3	1
7	111	1
45	156	1
193	246	1
17	17	1
64	77	1
60	92	2
5	35	1
160	166	2
173	206	1
231	233	1
118	118	5
18	18	3
31	31	2
208	214	1
19	33	1
17	201	1
14	49	1
182	183	4
172	173	1
177	178	1
200	208	1
161	170	1
87	102	1
191	196	1
114	115	1
171	227	1
218	238	1
152	160	1
216	238	2
175	226	1
156	199	1
202	203	1
99	99	1
4	5	2
49	50	1
145	204	1
42	42	1
46	153	1
160	165	1
18	48	1
192	193	1
17	60	1
27	28	1
211	215	1
