57	183	1
32	33	3
165	165	5
132	132	1
25	42	1
53	53	9
152	181	1
188	188	5
12	61	1
144	144	4
67	67	7
166	173	2
150	150	19
9	18	1
5	6	1
108	108	3
118	118	2
48	196	4
99	190	2
0	27	3
7	62	3
144	154	1
4	58	2
170	170	4
183	183	11
42	182	3
59	59	3
180	180	3
125	126	1
21	21	6
56	57	3
47	47	4
16	16	4
180	181	1
55	56	4
24	24	5
34	34	5
171	179	1
65	65	2
57	57	5
110	110	8
194	194	4
146	146	6
145	145	4
187	187	8
76	76	3
37	69	3
111	112	4
71	71	5
186	186	21
107	107	9
2	2	5
101	102	2
125	127	1
157	157	7
116	118	4
104	104	5
167	167	9
143	144	4
99	144	2
29	29	6
116	192	2
5	20	1
129	129	2
43	43	9
130	130	11
146	147	5
54	55	3
127	127	8
155	157	2
119	119	6
169	169	3
166	167	2
191	191	12
187	188	1
35	35	1
124	124	9
161	161	11
8	8	3
173	174	4
151	151	5
138	138	5
196	196	10
26	26	5
39	39	6
174	174	9
156	156	4
29	89	4
37	37	2
52	52	9
19	62	3
166	172	6
1	1	2
45	45	5
168	168	5
182	182	8
121	121	7
94	95	3
47	48	2
100	140	1
40	41	4
131	132	1
99	99	3
114	188	6
95	119	3
109	110	2
14	37	4
14	14	7
31	32	2
128	128	5
77	78	4
142	154	3
7	7	6
48	48	10
33	69	3
23	42	3
95	95	3
27	28	3
2	3	3
20	20	10
18	18	6
163	163	3
40	40	2
176	179	3
15	15	8
193	193	2
46	46	3
43	44	3
181	181	10
61	62	3
86	181	4
2	13	5
108	109	2
89	89	5
94	156	2
56	56	4
181	182	1
117	117	4
192	192	7
59	61	1
109	111	1
128	190	5
108	110	1
81	82	4
94	118	1
24	25	5
99	100	2
163	167	5
182	194	2
39	74	2
93	118	3
50	69	3
58	61	6
165	166	1
101	101	4
182	183	1
190	190	5
72	72	3
143	143	4
5	5	7
1	82	2
36	37	1
178	178	4
78	88	1
166	166	5
122	129	1
42	42	5
195	196	2
0	24	2
145	174	2
79	85	1
17	17	6
82	83	3
98	155	1
77	182	2
100	157	1
164	164	3
118	133	1
147	147	8
162	162	5
184	184	5
88	89	2
104	105	4
53	54	1
6	6	2
152	152	5
19	21	4
153	153	3
110	112	2
14	17	2
139	140	2
66	86	6
31	47	1
195	195	3
176	176	14
185	186	4
171	171	2
133	133	4
62	62	1
22	25	1
161	165	2
4	6	3
44	44	3
70	70	4
81	81	1
153	154	2
30	30	4
120	120	2
121	191	2
38	69	2
156	157	3
36	36	5
99	191	3
188	189	2
7	36	2
149	149	5
104	125	5
109	116	1
68	68	4
175	177	2
119	121	1
130	132	2
163	166	1
11	11	1
21	68	1
12	36	2
96	97	6
61	61	2
20	21	14
0	0	1
31	31	4
157	158	2
97	97	3
94	94	1
78	85	2
25	27	2
49	49	3
182	184	2
147	182	2
96	96	2
131	140	3
34	36	3
79	79	7
189	189	2
52	53	2
82	82	6
134	135	2
64	64	2
9	9	5
152	153	3
112	112	2
39	73	1
123	123	1
122	122	6
155	155	7
183	184	1
173	173	1
141	141	2
164	179	1
87	90	4
89	90	1
197	197	2
160	185	3
134	171	3
64	65	5
103	103	2
143	145	4
115	116	1
142	142	6
11	38	2
84	85	2
50	50	8
74	74	2
140	140	1
120	124	1
38	50	7
83	84	1
33	38	1
167	168	1
50	51	2
134	134	6
100	119	3
101	160	1
62	72	1
87	87	3
191	192	4
5	36	1
10	33	1
166	191	3
111	113	1
111	111	2
47	55	3
10	46	2
23	23	2
161	162	2
63	63	3
105	106	2
162	164	1
173	176	2
27	27	1
137	137	2
116	116	2
172	172	1
125	125	3
158	159	1
25	25	1
88	88	1
51	51	2
159	160	5
1	3	1
132	133	2
136	136	2
178	180	1
40	42	3
101	132	1
160	167	1
84	84	3
34	35	1
12	56	3
103	105	2
2	8	1
63	68	2
25	38	2
145	175	1
34	58	1
21	28	1
175	176	2
117	118	5
158	192	3
168	173	1
79	83	2
154	154	3
164	165	2
148	148	4
24	67	1
175	175	3
100	100	2
19	19	1
85	85	1
18	22	5
66	66	3
21	25	1
137	140	1
100	101	1
116	135	1
173	175	1
99	112	1
25	26	2
75	77	2
23	45	1
28	29	1
158	158	2
135	139	1
75	75	1
22	22	4
106	106	2
16	30	2
102	113	1
168	181	2
146	151	2
99	103	2
130	142	2
32	32	2
191	194	1
39	41	1
115	142	2
27	62	1
11	46	1
58	59	2
13	13	3
102	102	3
14	15	3
125	195	1
43	51	1
58	58	2
4	23	1
193	194	2
20	88	1
8	24	2
86	180	4
12	12	1
16	29	2
38	38	2
144	160	2
165	171	1
54	54	5
177	177	3
8	105	3
132	188	1
3	83	1
28	28	1
109	109	1
6	50	3
157	181	1
185	187	1
16	17	1
78	83	1
52	56	3
3	79	1
65	88	1
21	26	1
115	115	1
106	107	1
13	19	1
20	26	1
122	136	1
60	60	1
184	190	1
136	139	1
40	51	1
14	49	1
4	4	1
152	162	1
192	193	1
35	51	3
16	88	2
164	177	1
105	105	1
134	196	1
99	143	1
0	1	1
185	185	1
65	89	1
132	134	1
179	179	1
126	192	1
116	139	1
12	55	1
30	58	1
100	168	1
84	88	2
190	192	2
0	53	1
134	139	1
0	38	1
41	41	1
4	52	1
102	196	1
11	12	1
119	126	1
151	152	1
180	182	1
18	34	1
27	32	1
162	165	1
51	52	1
158	167	1
170	186	1
79	80	1
160	160	1
78	86	1
