28	29	3
108	108	3
11	29	6
80	80	1
16	16	4
75	75	3
72	84	2
18	25	1
75	84	5
28	28	5
6	6	4
16	26	5
66	67	4
142	142	8
40	40	1
64	64	6
45	45	11
148	148	1
128	128	3
103	105	4
83	83	4
130	131	2
88	94	5
11	11	6
96	96	4
39	39	3
18	19	2
41	41	6
53	55	2
84	84	7
81	81	2
122	122	6
123	137	2
3	5	4
8	9	4
93	118	1
21	24	3
132	132	10
75	90	5
65	66	3
76	78	4
15	16	4
56	120	3
45	46	6
139	143	4
48	48	5
30	34	3
24	24	5
96	117	2
115	116	3
5	6	4
10	18	2
135	135	7
22	23	3
53	53	5
141	151	3
75	83	6
25	25	7
20	24	3
64	67	6
55	56	8
39	40	3
27	27	6
112	114	4
17	30	1
39	42	2
152	152	4
11	15	3
58	58	6
6	7	6
98	98	4
19	94	5
77	79	4
56	57	3
34	78	1
121	122	4
11	45	2
32	32	2
133	148	2
67	67	1
94	97	4
37	40	2
86	86	3
127	127	2
13	13	6
149	149	6
50	50	3
14	82	1
41	42	1
116	116	3
19	19	2
68	68	2
71	79	1
151	151	1
10	10	2
30	30	3
23	24	2
43	43	1
94	95	2
77	78	3
81	82	1
75	76	1
134	134	2
23	23	7
124	124	5
22	25	1
47	47	6
36	78	3
46	46	5
34	34	2
151	153	2
118	118	6
33	33	1
20	20	7
79	79	6
36	36	1
57	57	6
70	70	2
121	121	7
113	114	1
54	54	1
49	49	3
108	112	1
29	34	2
125	126	3
17	19	3
12	12	3
42	43	4
26	26	4
9	9	10
112	115	1
76	76	3
74	74	4
31	31	4
80	97	3
74	83	1
116	117	2
122	123	1
94	98	2
128	129	4
111	111	2
120	121	7
74	82	2
126	126	1
10	11	1
72	77	4
18	18	2
35	35	2
13	41	3
15	83	1
82	83	1
113	113	2
107	114	3
69	69	4
93	93	3
4	4	3
100	100	4
17	18	2
97	98	3
20	23	1
8	8	2
150	150	5
31	32	2
63	67	2
51	51	1
21	21	1
10	32	2
12	43	2
106	107	1
15	26	1
85	86	1
71	71	2
102	103	1
39	43	3
34	36	2
56	56	1
84	86	1
8	61	1
70	71	1
106	106	3
147	148	1
11	12	1
27	28	2
37	37	1
88	88	1
17	17	1
8	32	2
21	37	2
5	5	3
9	12	2
15	15	4
18	93	2
62	63	2
129	144	1
19	97	1
44	44	1
133	147	2
150	152	1
101	108	1
117	117	1
16	32	1
110	116	1
112	112	1
91	92	1
134	149	1
92	96	1
133	134	2
119	120	1
129	140	1
102	112	2
21	23	1
103	103	1
141	141	1
62	81	1
130	145	1
