130	131	8
59	60	3
78	78	21
47	47	19
19	23	3
62	62	24
82	82	22
118	126	3
25	25	13
85	85	10
99	100	11
40	40	19
112	112	37
19	19	15
50	50	31
13	13	23
22	23	4
125	125	24
14	22	4
87	88	10
111	112	5
24	24	18
19	20	6
80	80	25
65	65	21
108	127	2
69	70	6
118	118	29
70	71	20
127	127	25
9	10	14
52	52	44
32	32	22
32	33	6
27	29	3
44	45	12
116	116	24
41	41	21
81	84	3
65	107	5
9	11	10
13	22	4
1	1	17
71	71	15
120	120	21
84	84	11
51	51	18
98	98	16
65	66	6
109	109	31
7	7	15
76	76	19
111	111	16
100	100	26
23	23	20
129	129	25
94	94	23
121	121	24
115	115	26
106	106	17
25	54	4
97	98	5
53	53	29
16	16	19
128	128	13
117	118	5
49	65	2
16	39	5
132	132	20
77	77	28
26	26	37
3	4	11
57	58	11
131	131	16
23	24	9
12	64	1
69	69	22
66	104	1
18	62	1
60	61	20
20	20	18
104	105	11
104	104	28
21	59	5
46	46	35
38	38	15
15	15	18
74	75	3
25	26	12
55	55	13
54	54	28
93	93	32
98	99	10
95	95	17
107	108	12
18	18	6
48	48	33
15	16	8
6	6	19
61	61	16
10	11	7
4	4	12
70	70	21
75	76	5
75	77	3
76	97	2
42	42	25
61	62	4
78	79	15
92	92	30
52	53	7
99	101	5
12	13	18
42	43	6
39	45	1
101	101	30
102	102	21
95	115	1
46	49	1
90	90	14
79	80	8
22	22	28
109	111	5
29	30	16
99	99	29
17	17	12
125	126	7
4	17	1
39	67	2
97	127	6
110	111	12
78	81	5
103	103	26
82	87	3
108	108	16
84	85	11
91	91	11
63	63	22
0	11	1
96	96	10
43	45	4
12	12	39
122	122	14
95	113	5
32	56	2
40	41	5
117	119	3
14	14	24
81	81	11
43	43	17
0	0	25
30	30	17
119	120	2
58	58	22
85	86	3
119	119	19
72	73	5
112	114	3
49	50	15
92	94	7
78	80	1
9	9	13
110	110	31
123	124	6
77	78	6
13	14	16
113	113	20
68	69	2
45	46	6
107	107	21
25	89	3
41	45	4
83	84	27
31	31	12
52	54	4
74	74	25
29	29	15
20	72	7
5	5	17
67	72	8
117	127	2
87	89	2
81	82	6
18	48	10
88	89	13
128	129	5
56	56	28
114	114	32
8	9	6
73	73	11
114	117	4
105	106	8
97	97	23
67	67	26
87	87	16
27	28	6
106	107	5
75	75	16
49	49	31
59	61	7
4	5	11
61	63	5
33	33	16
126	131	6
79	79	13
4	25	2
106	109	2
109	110	6
7	10	2
89	90	3
124	128	2
64	64	32
39	39	5
82	84	7
49	54	2
44	44	22
2	2	29
31	46	1
19	21	11
129	130	17
80	81	10
83	83	19
54	55	3
113	131	6
16	18	1
125	129	1
28	28	19
97	99	10
47	74	4
86	86	16
60	60	16
125	128	9
27	27	17
103	104	9
132	133	6
72	72	9
66	107	6
3	3	17
11	11	12
123	123	19
22	66	5
45	45	16
61	64	1
34	34	10
43	44	2
1	55	5
121	123	1
124	124	12
104	111	3
67	69	2
127	128	10
113	128	1
21	21	6
120	121	15
131	132	8
126	127	8
58	60	4
57	57	14
18	19	6
8	20	4
98	125	2
12	18	1
90	91	16
24	55	2
46	48	2
7	12	5
126	126	12
115	116	9
9	27	4
40	44	5
105	105	15
101	102	9
10	10	23
86	88	5
47	67	2
30	32	3
1	25	2
20	49	2
33	34	9
59	59	14
2	3	2
88	95	2
2	25	2
0	20	2
94	95	11
38	39	3
45	47	1
51	52	2
18	39	1
8	71	2
89	91	2
63	65	2
111	123	1
11	12	7
90	92	2
68	68	14
118	119	13
39	41	2
100	114	3
113	117	1
109	115	2
88	88	14
121	122	3
13	18	6
117	117	18
30	31	3
125	130	4
52	55	2
47	60	1
40	45	4
127	129	5
86	87	7
19	64	3
113	127	4
14	15	10
108	109	1
28	29	5
116	117	2
89	89	8
91	92	12
8	8	13
90	102	4
22	49	2
116	120	4
94	104	1
4	16	2
96	114	2
99	104	3
66	66	11
21	64	3
40	42	5
58	89	2
11	61	2
13	21	1
113	114	9
17	62	4
48	49	2
101	105	5
95	96	6
95	98	3
50	51	7
19	85	1
46	63	4
9	57	3
24	67	2
58	59	3
26	27	9
59	62	3
93	94	5
63	64	10
0	1	5
102	103	1
1	132	3
108	126	1
13	15	1
52	56	5
31	32	3
115	127	3
94	112	2
73	75	2
81	87	2
113	115	2
86	91	2
76	77	3
101	103	5
82	85	3
62	64	8
20	22	2
100	105	2
112	129	1
60	62	4
18	21	9
124	131	1
98	112	1
41	42	4
22	50	7
101	117	1
74	96	1
129	131	5
107	130	2
98	104	5
93	104	3
133	133	6
116	127	4
15	39	2
65	67	3
130	130	4
93	102	4
29	31	3
96	98	4
17	23	2
92	93	7
107	125	3
62	63	13
71	76	3
15	38	5
66	72	1
29	32	2
77	97	4
20	61	1
89	93	3
99	103	3
9	70	4
51	56	2
48	64	1
18	64	1
80	83	5
58	62	1
3	20	1
66	75	3
116	126	5
5	6	4
22	46	2
88	90	1
14	16	2
97	104	2
57	105	1
53	54	5
21	22	3
80	82	2
100	101	4
18	59	1
1	10	2
80	85	1
106	108	7
98	101	1
22	64	2
7	24	1
49	56	4
83	96	3
5	25	3
45	72	2
68	76	3
83	113	1
64	65	2
47	58	3
25	32	3
76	96	1
28	31	3
68	71	3
39	40	9
15	60	3
63	108	1
67	68	2
24	25	5
82	97	3
15	30	1
6	10	1
103	118	1
105	107	3
8	11	2
22	47	1
53	55	2
49	64	1
96	97	1
15	40	1
94	106	1
47	93	1
114	115	1
43	72	1
1	24	2
15	18	1
99	124	1
18	67	2
98	130	2
31	40	1
3	5	1
39	46	2
125	127	1
102	117	3
27	31	3
124	125	1
13	41	3
51	57	1
85	88	3
46	47	4
99	102	1
42	44	3
82	83	4
24	56	5
20	26	1
114	116	1
20	60	1
126	128	4
46	60	2
21	84	1
28	32	2
8	26	1
115	117	1
91	94	1
44	47	1
15	17	3
69	76	2
10	59	1
95	114	1
65	68	2
91	93	4
16	17	3
80	125	1
55	56	2
41	43	1
51	65	1
21	73	1
59	63	1
7	15	1
66	67	2
108	114	2
1	2	1
94	105	1
26	32	1
103	114	1
73	76	1
76	95	1
30	39	1
83	87	1
20	25	1
10	58	2
73	74	1
72	76	1
100	102	1
12	22	3
50	53	1
126	129	1
6	7	1
114	131	2
52	69	1
21	62	2
97	126	1
7	11	1
71	72	2
48	53	1
19	22	3
10	30	1
87	123	1
19	73	1
72	74	2
16	40	1
8	10	1
100	119	1
102	104	1
20	21	2
111	122	1
65	106	2
98	126	1
39	63	1
68	75	1
0	19	1
0	10	1
80	123	1
92	105	1
76	78	1
25	28	1
2	124	1
41	73	2
68	72	1
39	70	1
113	125	1
65	72	1
61	66	2
5	26	1
97	100	1
32	40	1
17	18	1
93	111	1
121	124	1
48	59	1
126	130	1
0	60	2
