76	76	8
70	70	6
12	124	2
65	65	3
155	156	1
177	177	2
118	118	3
48	58	3
142	143	1
115	146	2
72	72	3
7	24	2
105	108	4
150	150	6
138	138	10
155	155	4
188	189	4
23	23	6
45	55	6
1	57	2
127	128	1
58	117	1
16	18	2
78	110	2
99	101	3
134	134	4
27	27	2
109	132	2
121	123	3
20	20	12
55	59	3
97	97	2
1	41	2
28	28	2
163	163	2
74	74	4
119	119	4
107	107	9
143	143	7
56	71	3
116	118	1
168	168	2
15	17	3
94	94	7
87	126	1
52	127	2
78	96	3
60	60	5
88	88	8
79	96	5
17	177	3
108	109	1
73	74	4
39	40	2
58	58	1
11	43	1
67	99	1
20	21	1
153	153	8
25	26	2
115	115	4
12	86	2
0	1	2
13	46	2
76	144	1
35	40	4
105	105	7
47	48	1
146	146	3
25	85	3
7	13	1
123	124	3
35	36	2
140	162	5
81	94	3
140	140	7
130	163	6
12	12	6
18	18	8
99	99	3
55	56	1
126	126	9
107	132	9
66	67	2
159	159	2
188	188	3
177	185	2
65	66	4
97	104	1
75	75	1
132	132	3
102	102	1
78	98	1
91	95	1
113	133	1
161	161	8
133	133	3
33	44	4
10	12	1
13	13	4
134	183	2
86	86	3
100	133	3
149	150	6
82	82	3
110	177	2
180	180	3
103	103	3
65	144	3
56	57	2
164	182	2
40	158	3
166	166	4
148	149	3
5	27	1
9	12	2
138	139	2
91	93	2
46	46	2
59	60	2
37	37	6
148	156	2
117	117	3
62	65	5
136	136	4
4	5	4
7	7	4
2	2	1
186	186	4
98	98	2
162	162	5
164	164	3
130	164	2
56	56	4
13	14	5
139	140	5
89	186	3
46	48	4
158	158	5
42	42	8
9	46	2
186	189	1
60	63	4
111	113	2
139	139	8
14	84	2
26	26	6
90	91	4
123	123	2
96	97	1
135	183	2
146	147	1
77	77	3
44	53	1
19	19	4
171	171	1
86	124	2
10	36	2
81	133	1
31	32	1
42	43	3
59	59	2
111	111	1
0	44	2
179	179	1
96	96	4
70	71	6
129	134	1
121	121	3
89	184	1
34	44	4
130	180	4
104	104	3
76	141	2
125	125	3
101	101	1
171	173	1
100	100	1
120	121	4
71	71	2
120	120	2
63	64	2
154	165	1
13	95	1
40	40	2
65	85	1
111	188	2
114	115	1
47	47	8
25	25	3
81	81	1
173	175	3
134	136	5
169	169	4
58	59	1
90	93	2
54	55	4
170	170	4
22	187	2
131	133	1
79	79	9
61	63	2
90	90	2
113	134	1
55	55	4
9	9	3
14	15	1
124	125	2
70	75	1
116	116	5
67	67	1
66	144	1
73	73	1
184	184	1
154	162	2
152	152	4
108	108	1
80	98	2
63	63	3
154	154	3
58	60	2
82	136	1
144	149	3
106	106	2
178	178	3
182	182	1
53	53	1
147	154	2
48	68	1
36	36	4
109	130	1
136	137	3
129	129	5
59	187	1
43	43	3
114	114	7
11	11	6
149	157	1
124	124	2
57	57	1
96	98	1
12	13	2
39	39	1
47	171	1
166	167	1
21	22	3
36	37	3
80	81	2
58	73	2
25	47	1
48	53	1
106	111	1
64	64	2
5	42	1
31	31	4
38	38	1
52	128	1
76	77	3
16	64	1
30	30	1
103	151	3
10	44	3
77	78	3
154	161	1
35	37	2
122	122	1
132	134	3
11	183	2
3	3	1
89	185	1
162	165	2
56	59	2
135	139	1
147	147	3
93	93	4
98	104	2
22	188	1
15	15	3
93	94	3
114	134	1
54	124	1
175	175	1
128	128	1
56	60	2
34	36	3
21	21	2
157	158	2
57	76	1
130	182	1
13	15	1
74	98	1
20	22	2
163	164	1
117	118	1
109	109	2
88	176	2
62	63	2
135	135	3
62	62	1
130	130	1
177	186	2
29	46	1
33	33	1
76	131	3
4	4	4
156	156	2
88	126	1
9	16	1
118	142	1
152	153	3
33	34	4
65	73	2
131	182	1
112	112	1
144	144	1
5	5	1
97	125	1
1	1	1
9	29	1
85	171	1
176	176	1
187	187	1
117	137	2
141	141	1
100	105	1
154	155	1
17	18	1
5	6	2
131	131	1
19	20	1
32	32	1
157	157	1
145	148	1
145	145	1
6	6	2
83	83	1
67	103	1
69	132	1
187	188	1
16	61	1
10	18	1
119	120	1
118	119	1
10	11	1
48	48	1
80	115	1
68	178	1
10	10	1
66	74	1
151	151	1
151	154	1
110	110	1
22	22	1
82	94	1
40	47	1
16	16	1
16	22	1
45	45	1
22	23	1
131	169	1
61	66	1
83	84	1
