99	100	3
25	32	3
92	93	2
60	60	12
75	78	2
32	33	3
84	85	8
40	40	3
87	87	7
82	82	8
100	100	11
52	54	4
41	41	8
63	63	9
85	85	8
66	66	6
29	29	3
92	92	11
54	60	2
55	56	1
82	88	3
74	96	1
65	68	1
91	91	4
86	89	4
98	98	6
26	41	3
48	48	5
61	61	5
80	80	14
103	103	20
56	56	15
30	30	10
42	43	4
64	69	3
81	81	9
51	51	4
26	33	1
24	24	7
96	96	9
25	25	6
53	96	1
30	42	2
53	54	4
57	57	10
52	52	7
42	42	3
76	78	4
45	45	8
68	71	1
26	28	3
59	59	3
78	98	1
51	72	6
47	49	1
77	77	5
72	72	3
65	66	5
26	26	1
68	68	10
93	95	4
78	79	6
48	59	4
77	96	2
87	94	5
71	72	4
82	90	3
31	31	9
72	93	3
35	35	4
30	40	5
76	77	3
79	79	1
37	39	5
93	94	1
90	91	1
102	102	7
41	43	2
28	28	10
83	83	2
22	22	3
86	91	3
32	32	6
31	34	1
40	42	2
97	98	5
73	73	3
52	63	1
47	51	2
99	103	6
101	101	7
94	94	6
97	97	4
70	70	9
87	88	4
50	50	2
39	47	1
22	34	3
67	81	2
50	66	1
32	34	2
25	43	1
43	43	4
87	89	8
40	41	2
75	75	2
26	84	2
27	27	4
36	36	3
27	29	3
45	92	2
84	84	2
98	99	3
30	41	1
22	33	4
93	93	2
41	49	5
51	99	1
69	96	2
21	27	1
70	72	3
52	88	2
51	52	3
92	99	2
76	76	3
78	78	1
28	31	2
82	89	3
84	90	1
71	71	6
28	89	2
53	53	8
75	77	3
54	97	1
48	97	4
89	89	3
88	88	1
48	60	1
107	107	1
49	73	1
61	66	6
30	32	3
73	92	1
72	73	3
70	71	1
82	87	3
48	49	2
29	40	1
51	77	1
78	82	1
104	104	7
64	64	1
74	74	1
69	100	3
46	52	1
20	20	4
37	37	2
67	93	2
62	62	3
69	69	3
58	58	1
98	107	1
62	66	5
26	52	1
101	104	1
80	85	1
47	47	6
28	30	1
50	93	5
65	65	3
81	83	3
49	49	2
103	104	1
64	65	1
54	79	3
43	44	1
26	29	1
94	96	2
34	34	8
60	62	1
70	76	1
74	75	3
33	33	1
63	100	3
69	76	3
29	30	3
36	37	1
25	40	1
65	75	2
41	59	1
28	91	1
58	60	3
46	46	2
54	69	2
84	86	1
54	68	1
40	46	2
105	105	1
83	87	1
95	101	1
98	106	2
95	96	1
60	97	1
26	46	1
56	67	1
68	69	2
21	30	2
52	79	1
38	38	2
27	78	2
23	23	1
47	48	3
57	59	3
41	47	1
30	48	1
67	67	1
62	70	1
39	39	1
52	68	1
86	86	2
78	90	1
36	59	1
85	86	2
54	54	1
106	106	1
58	70	2
23	39	2
81	86	2
51	91	1
39	79	1
82	95	1
37	59	1
21	21	1
52	58	1
47	60	1
60	99	1
95	95	1
