31	31	5
82	82	3
8	9	4
49	64	2
26	27	2
53	53	12
87	87	10
18	24	3
43	43	8
14	14	7
43	44	2
119	133	3
35	36	3
19	19	9
68	69	4
21	21	5
123	127	1
46	46	9
66	68	5
95	95	10
45	45	10
16	16	6
45	46	3
129	129	6
81	81	3
50	99	5
9	9	7
4	31	3
151	151	1
85	92	1
141	141	3
84	84	7
65	65	2
147	147	1
33	36	2
23	23	1
25	25	5
65	66	7
92	92	3
17	17	8
72	72	7
7	76	2
4	5	3
104	104	5
152	153	3
13	13	8
62	73	2
94	94	2
7	7	5
107	108	6
81	82	5
47	47	6
30	30	5
34	34	4
94	99	7
53	54	6
127	137	1
80	81	5
117	117	5
135	135	4
123	123	4
98	98	3
95	96	4
123	147	4
154	154	2
73	74	1
38	40	1
75	77	1
100	119	2
36	36	6
35	35	5
7	11	2
27	27	4
79	79	3
152	152	1
108	125	3
15	25	2
26	33	3
27	54	1
101	109	1
4	62	1
32	32	4
22	23	6
77	78	5
126	132	2
6	6	5
141	142	1
106	106	6
38	51	2
125	125	1
139	139	4
48	52	5
127	127	7
144	148	6
66	69	4
127	128	6
78	79	1
139	145	1
33	33	7
113	142	2
41	43	1
45	48	4
98	101	3
24	24	1
120	122	3
18	19	3
27	37	1
126	126	5
118	118	2
82	97	2
41	41	3
46	115	1
22	31	3
67	67	2
42	43	3
113	114	1
5	5	4
12	12	2
107	107	3
48	48	4
126	129	6
71	72	2
20	21	4
17	22	3
131	131	6
62	63	1
153	153	3
102	104	3
26	29	2
119	119	1
144	146	2
78	119	1
97	98	5
66	79	1
115	115	2
138	139	4
122	122	4
64	64	5
96	121	1
37	40	1
55	55	6
49	77	2
26	26	3
15	20	2
74	74	4
109	115	1
11	11	9
65	77	4
90	90	3
24	43	3
120	147	1
31	32	2
65	79	1
85	86	2
30	32	1
62	62	1
108	110	1
111	116	1
93	93	7
39	39	4
80	80	1
110	111	3
50	50	2
54	57	1
81	116	1
5	6	1
15	15	3
145	147	1
121	121	7
42	42	8
113	113	1
88	88	2
7	10	2
23	31	4
71	71	7
7	30	2
40	41	1
65	86	2
97	97	2
125	131	3
98	108	1
107	148	1
136	136	2
75	80	1
4	4	4
38	38	5
73	73	3
76	79	2
89	113	3
68	68	3
151	152	1
11	12	1
30	50	3
12	25	1
51	82	3
132	132	4
79	82	2
20	20	2
98	99	3
85	87	4
130	135	3
112	117	1
95	98	1
100	100	2
10	11	2
108	109	3
103	103	3
74	99	1
90	93	1
13	15	2
105	127	2
78	81	2
94	121	1
33	34	1
69	69	1
133	133	6
106	123	1
149	152	3
106	133	1
148	148	2
27	29	2
130	132	2
91	91	1
17	18	1
94	98	2
72	102	1
20	36	1
83	91	2
99	99	5
139	143	1
22	22	3
126	144	2
70	70	2
116	117	1
13	48	1
64	65	2
119	129	1
98	102	2
44	46	1
25	27	2
138	138	1
143	145	1
132	133	2
112	112	2
28	56	2
92	121	1
124	125	1
28	28	1
49	53	4
53	67	3
17	19	1
15	16	2
145	146	2
54	54	3
28	30	1
40	49	1
82	116	1
11	31	1
33	50	1
30	41	1
29	34	1
93	121	2
39	40	2
34	57	1
3	28	1
132	134	2
75	76	2
114	121	1
23	81	3
44	44	3
129	133	1
49	67	3
86	94	1
13	18	3
40	40	1
87	91	1
6	50	2
130	131	1
50	81	1
84	93	1
116	116	2
101	120	1
10	33	1
71	83	1
106	107	1
18	18	2
22	51	1
86	86	2
83	93	2
134	137	1
56	56	1
82	94	1
3	139	1
5	43	1
110	121	1
54	55	1
123	128	1
130	134	1
76	76	1
65	76	2
4	13	1
137	139	1
78	127	1
96	97	1
19	23	1
53	66	1
26	28	1
83	83	2
6	12	1
28	37	1
109	110	1
147	148	1
49	49	1
77	127	1
