86	87	3
224	224	9
8	9	3
157	158	11
107	109	4
162	185	2
205	205	8
241	241	15
182	183	7
69	70	8
0	1	2
83	83	6
181	182	1
204	205	4
113	204	1
55	55	13
93	93	5
22	22	4
221	222	8
51	55	1
216	216	10
120	120	4
150	150	12
63	63	8
152	153	8
117	117	13
29	30	4
115	115	16
238	239	4
97	98	4
36	38	3
242	242	14
27	27	9
168	169	1
232	235	5
14	15	4
96	97	6
61	64	3
56	56	20
42	218	4
239	239	5
75	75	10
168	168	5
247	247	12
229	229	9
1	1	6
190	190	13
229	230	5
78	80	4
167	167	16
64	64	3
30	32	5
161	161	6
113	113	6
108	108	10
208	209	6
70	70	9
79	119	2
116	175	3
198	198	18
109	109	8
245	245	8
51	58	4
111	112	6
191	191	10
44	44	11
181	181	17
247	248	12
156	156	22
144	145	6
171	172	6
95	100	2
39	39	20
21	22	3
169	171	5
86	86	6
26	26	16
204	204	20
17	18	4
43	207	2
44	45	3
155	155	18
197	198	9
212	212	20
147	147	3
71	71	7
182	182	14
200	200	13
28	28	3
96	96	7
203	203	11
194	194	17
154	154	2
11	54	3
19	52	2
92	92	14
84	84	4
24	26	5
68	70	3
78	78	7
214	214	11
223	224	4
194	198	4
184	185	6
157	157	3
207	207	5
238	238	9
92	93	5
48	48	8
156	182	1
73	74	8
46	46	19
114	115	4
88	89	6
189	191	2
53	53	10
89	89	7
225	225	5
210	210	4
32	32	12
164	167	3
75	113	1
114	117	1
217	218	2
23	23	10
71	76	1
175	176	8
206	208	4
6	7	1
206	206	5
101	101	7
58	60	13
108	109	3
205	206	5
19	20	3
173	173	10
243	244	2
217	217	9
31	31	5
43	43	4
196	196	13
77	83	6
199	199	14
246	246	8
175	175	13
196	198	2
36	37	1
196	220	1
187	192	4
72	115	1
179	182	2
117	119	1
37	37	9
186	186	13
87	89	3
108	243	8
172	173	2
106	107	7
203	240	2
75	77	2
186	187	1
245	246	5
30	203	2
71	72	9
66	66	2
70	71	2
221	221	8
41	41	4
163	165	3
61	61	9
12	12	12
184	184	8
87	87	4
102	105	3
176	177	4
72	72	3
153	153	3
187	191	1
186	189	1
37	38	6
0	0	9
73	73	4
159	160	4
248	248	7
64	66	5
12	39	2
176	176	6
213	218	5
151	152	1
51	51	2
233	233	3
61	62	5
49	65	2
243	243	6
47	162	4
66	67	3
65	65	6
244	244	14
218	241	5
226	226	9
235	235	6
20	20	15
185	186	1
16	16	15
69	69	7
183	183	16
93	117	1
112	112	8
41	45	1
219	219	8
79	82	4
188	190	2
150	151	4
187	189	6
234	234	11
4	20	1
85	87	2
98	98	11
110	110	10
109	110	2
177	177	16
51	56	1
188	189	11
232	234	1
241	242	8
59	60	7
173	174	5
41	42	6
85	85	5
246	247	2
201	201	12
202	202	8
174	174	10
201	246	1
101	104	1
223	223	5
14	14	8
11	11	16
237	239	5
34	47	3
181	184	2
93	94	3
202	203	11
155	172	1
161	162	5
49	49	12
31	32	2
57	58	5
213	217	1
215	215	7
81	82	4
45	231	2
116	117	8
13	14	2
155	156	4
166	166	6
33	34	4
33	33	10
20	21	6
102	102	3
209	209	9
183	197	1
74	77	4
194	195	2
232	232	18
179	181	1
215	217	10
164	165	2
193	197	2
102	104	2
163	163	16
207	210	3
104	118	4
78	98	3
4	5	1
22	157	2
233	234	2
95	95	2
238	242	1
163	170	2
166	167	2
52	53	6
103	104	2
3	3	8
197	200	3
219	244	2
230	230	5
197	199	2
175	184	2
178	178	4
2	6	8
237	237	3
56	58	2
172	172	7
27	29	1
172	209	1
213	214	1
91	92	4
51	64	1
80	80	3
178	179	1
110	245	1
3	6	2
111	246	1
162	163	3
187	187	5
248	249	2
163	164	1
158	171	4
238	240	1
190	191	7
41	202	5
6	29	7
157	170	2
68	68	11
7	157	2
91	98	5
7	59	3
224	225	1
158	170	3
162	186	4
160	160	12
74	116	3
213	223	1
236	237	2
2	9	2
171	178	2
21	21	3
12	37	3
188	188	2
179	179	4
75	82	4
243	245	1
215	216	3
119	147	4
116	116	3
111	245	4
102	116	2
92	94	1
97	97	5
151	151	4
9	9	6
35	75	2
156	157	10
28	40	4
96	115	5
197	197	7
192	192	4
195	195	7
50	59	2
158	159	8
169	169	7
56	59	2
39	40	1
149	149	1
203	204	2
214	217	2
81	163	3
185	185	6
105	108	2
120	149	2
107	108	6
52	52	7
170	170	11
64	65	3
69	90	3
180	183	3
51	62	4
80	82	1
183	184	3
231	231	4
26	27	5
96	98	1
42	42	12
88	88	5
171	182	1
59	59	8
8	8	3
4	14	3
46	224	1
118	181	5
230	231	2
188	222	2
220	221	1
240	240	4
222	223	4
67	68	2
108	167	2
9	11	1
175	182	2
54	54	13
187	190	2
162	162	2
112	114	3
61	66	2
231	232	4
145	153	2
24	24	4
4	74	1
189	189	3
170	178	4
67	72	2
164	164	10
6	6	4
100	113	4
175	178	2
49	50	1
218	219	2
179	180	3
95	120	2
187	196	1
60	61	1
182	184	2
119	119	2
199	200	6
40	41	2
145	154	3
102	118	2
45	45	3
65	73	4
191	192	4
193	193	10
67	67	6
95	96	2
76	81	2
99	99	9
16	162	1
183	209	1
167	222	1
49	84	2
68	69	4
103	107	6
206	207	3
78	82	1
72	74	2
30	30	2
110	112	1
158	185	1
216	217	2
180	180	1
15	37	3
17	17	4
74	74	1
52	224	3
228	229	4
175	177	2
35	35	1
157	159	4
69	71	4
189	192	2
159	167	4
158	158	5
73	117	4
91	91	12
19	19	4
111	114	1
111	111	5
231	244	5
58	61	1
171	171	11
169	170	7
227	227	5
171	177	1
114	114	3
187	188	2
107	107	2
110	111	7
193	195	1
20	22	2
115	116	5
237	248	1
211	211	2
16	40	2
213	213	8
15	112	2
38	49	1
23	24	2
67	204	2
227	231	4
62	62	4
118	164	2
113	114	5
82	83	2
159	159	4
13	13	1
105	105	1
147	159	1
100	100	5
22	23	1
89	95	1
90	109	1
108	145	2
179	193	3
197	217	2
69	73	1
40	40	4
214	218	1
192	193	3
93	115	2
118	157	1
91	95	2
43	45	4
189	190	2
65	88	1
50	144	3
104	104	3
73	82	1
242	243	3
25	25	6
106	106	3
114	116	3
103	103	2
4	4	5
116	203	1
55	56	3
90	103	4
220	220	6
119	145	1
47	188	1
152	152	1
228	230	2
97	116	1
50	50	6
170	177	5
201	203	3
47	47	3
50	62	3
153	173	2
222	222	2
105	119	4
167	168	2
203	229	1
12	38	2
15	20	1
49	58	3
7	44	2
198	200	1
43	44	2
211	212	1
80	81	1
184	190	1
111	244	2
8	208	2
32	33	2
107	116	1
68	87	2
59	94	2
34	49	1
101	106	1
192	196	1
83	89	2
167	179	1
232	233	1
75	78	2
77	78	1
172	184	2
237	238	3
82	82	1
110	118	5
236	241	1
233	239	2
187	237	2
28	44	3
77	79	1
110	119	1
90	91	2
149	150	1
120	158	1
99	101	1
3	40	1
171	176	1
193	194	2
193	196	2
170	171	1
163	227	1
38	51	1
180	204	2
38	64	3
38	38	1
74	80	2
65	70	1
236	236	2
175	179	1
78	90	1
89	90	1
154	155	1
53	54	2
29	29	2
185	191	2
109	161	1
177	178	1
145	145	1
106	169	1
118	118	3
212	220	1
165	165	2
151	153	2
189	195	1
90	107	1
157	171	2
171	173	4
113	115	1
70	112	1
27	28	1
72	111	1
57	57	2
208	208	2
103	118	1
244	245	1
77	77	1
2	2	1
34	35	1
90	90	3
33	58	1
55	57	2
51	52	1
47	48	1
202	207	1
87	88	2
212	227	1
72	78	3
214	216	1
225	228	1
58	63	1
98	99	2
191	193	1
153	160	2
190	246	1
105	107	1
91	117	1
23	157	1
108	247	1
172	175	1
187	215	1
164	222	1
211	239	1
153	154	1
10	10	1
6	223	1
178	180	1
46	228	1
116	118	1
185	190	1
189	208	1
210	242	1
81	81	1
17	19	1
74	75	1
56	57	1
188	210	1
234	238	1
185	210	1
