130	139	5
136	136	13
6	7	4
121	122	6
120	120	2
126	129	2
132	133	5
93	93	11
138	138	16
19	19	5
81	81	7
78	93	5
122	122	17
128	129	11
28	28	4
32	32	10
71	71	6
101	101	5
78	78	5
13	14	3
87	104	2
16	17	2
109	109	12
119	119	4
77	79	2
20	21	6
11	125	2
82	83	4
93	94	6
133	133	11
118	118	5
72	72	11
5	5	2
6	27	2
126	127	3
23	95	1
120	121	2
92	92	8
87	87	10
130	131	4
129	129	11
12	125	1
131	132	10
127	129	5
139	139	19
105	106	9
126	134	3
137	138	1
98	101	2
22	22	3
8	8	4
86	121	1
132	134	2
15	15	4
110	110	9
111	111	5
97	125	1
75	76	2
4	4	3
8	24	3
16	16	10
79	79	9
105	105	2
86	86	2
135	135	8
5	30	1
89	89	14
85	113	3
129	130	2
95	95	7
105	112	2
121	121	7
87	88	2
114	114	12
71	72	3
22	24	2
81	112	2
29	29	3
123	123	10
94	94	2
130	130	14
115	122	3
127	127	4
6	6	3
91	91	2
20	20	6
124	124	4
104	120	2
72	114	2
14	33	2
77	77	4
117	118	2
138	139	10
2	7	2
84	140	3
134	134	18
99	99	3
75	75	6
95	96	2
74	74	7
90	90	3
98	98	5
37	37	1
7	7	5
103	103	1
34	34	2
33	35	1
3	3	2
128	128	4
108	108	6
104	105	1
15	20	2
71	91	3
88	88	2
140	140	5
81	82	5
110	111	2
137	137	6
98	125	5
115	115	8
7	8	1
78	102	1
9	9	3
92	93	3
27	27	9
100	100	1
117	120	3
32	36	4
33	33	1
11	12	1
107	108	3
131	131	6
30	30	4
10	23	1
21	21	4
68	68	4
93	103	1
5	8	3
66	72	2
72	74	4
11	11	2
20	23	1
0	1	3
92	106	2
74	76	1
122	124	2
76	76	4
12	12	2
90	113	1
13	13	2
80	80	2
31	32	3
131	135	1
99	100	2
87	106	2
89	91	2
91	100	2
89	112	2
26	26	5
72	109	3
116	116	3
72	73	2
18	18	2
82	87	1
73	76	3
85	85	4
2	2	2
117	117	4
102	102	4
14	14	5
132	132	7
29	32	3
104	106	1
28	134	1
19	23	1
126	126	5
71	105	1
102	103	1
125	125	9
3	9	1
82	82	2
118	122	2
106	106	3
24	25	1
29	31	4
8	23	2
36	37	1
117	135	3
19	21	4
125	135	1
120	135	1
113	113	8
17	17	3
111	135	1
94	126	3
97	97	2
84	106	2
14	21	1
121	123	2
139	140	1
81	84	5
96	96	2
35	35	3
89	94	2
38	38	1
72	108	3
75	129	1
113	114	5
80	125	2
18	19	3
80	119	1
109	110	1
100	101	2
135	136	3
86	101	1
125	137	3
80	90	1
120	123	1
98	99	1
0	0	3
72	76	3
128	130	2
8	9	2
101	113	1
85	140	1
134	135	2
13	32	1
66	68	1
120	122	1
114	115	2
112	112	1
93	111	1
1	126	2
108	110	1
94	110	3
118	119	1
4	7	1
104	104	2
72	75	2
83	83	1
135	137	1
127	134	1
106	107	2
11	23	1
107	141	1
107	122	1
37	132	1
96	108	1
124	128	1
23	24	1
124	125	1
1	9	1
79	101	1
81	133	1
