24	32	2
133	133	1
92	108	7
55	71	2
49	140	4
2	23	1
106	131	6
25	37	3
121	121	18
2	20	1
50	53	2
24	24	4
121	122	6
117	137	3
23	23	4
32	32	8
2	43	7
107	107	8
27	27	3
98	98	3
68	73	4
53	53	9
121	126	2
18	18	4
5	34	8
93	95	2
67	67	6
48	48	6
123	126	2
75	75	3
80	80	6
19	19	9
18	124	4
109	128	2
130	130	9
93	108	3
9	9	9
85	125	2
143	143	2
17	17	6
135	136	3
96	102	1
47	70	6
141	141	9
35	114	2
58	58	4
82	82	4
113	113	6
8	8	15
17	19	2
6	6	4
18	123	5
77	79	2
78	114	1
57	57	11
136	136	12
2	14	2
14	15	5
2	111	1
78	115	1
16	60	6
40	41	2
41	41	5
35	35	6
144	144	2
81	81	6
4	13	3
134	135	8
128	128	16
60	60	4
117	118	3
99	100	8
13	35	1
25	25	4
87	127	2
2	2	4
0	11	1
125	126	2
109	109	9
19	119	2
117	119	3
38	38	12
94	94	11
55	56	6
105	107	6
55	57	1
20	37	3
118	119	1
108	108	9
124	124	11
93	93	7
135	135	5
85	85	4
116	122	2
64	64	6
79	79	7
28	28	4
134	134	5
104	104	3
102	129	1
89	89	9
106	106	1
125	134	1
102	102	4
116	116	9
66	67	5
17	59	2
49	50	5
6	14	1
84	84	8
37	38	2
33	98	4
49	49	11
125	125	3
132	132	5
15	16	3
2	3	1
139	139	5
59	60	3
10	36	3
11	53	2
53	69	1
22	22	9
17	120	1
48	52	3
20	24	2
51	51	10
13	13	7
79	83	2
11	11	5
5	6	3
1	1	2
64	65	2
114	116	5
118	118	5
34	47	1
101	103	2
15	15	8
25	26	2
35	48	1
39	39	6
110	112	1
97	98	1
96	108	3
80	128	2
56	56	4
29	29	11
87	89	2
6	103	3
103	130	1
128	143	2
20	39	1
140	140	4
48	97	3
50	109	1
122	122	2
103	103	5
50	74	3
76	76	5
92	136	4
12	15	1
59	59	6
33	33	2
110	135	4
61	61	6
42	42	2
47	53	2
57	129	4
26	26	8
62	78	5
48	115	1
136	137	1
69	69	2
78	78	4
37	37	11
91	91	5
92	92	3
112	118	1
139	140	2
60	64	1
117	117	6
96	96	8
126	126	5
143	144	2
123	123	10
94	95	2
1	141	4
12	143	1
42	141	2
35	143	2
30	30	3
135	137	2
69	70	1
4	4	7
50	52	4
18	83	1
76	85	1
90	90	2
10	42	2
21	21	2
65	98	4
105	109	4
119	119	14
70	70	4
63	63	2
87	87	5
54	56	1
86	90	3
68	68	4
142	142	2
8	131	1
120	120	2
88	89	3
20	123	1
141	142	2
99	103	2
25	27	4
74	75	5
102	128	1
62	142	2
96	101	3
97	138	2
104	118	1
87	129	3
3	113	3
40	48	1
106	107	2
36	36	4
72	74	2
68	72	3
54	141	2
146	146	1
49	111	1
64	66	2
84	120	4
55	55	2
30	48	5
95	95	3
89	90	3
67	68	4
87	131	1
57	58	1
56	108	4
34	138	1
14	16	3
20	20	5
69	73	3
107	139	2
50	72	4
100	100	5
17	85	1
106	108	3
5	5	5
65	67	1
31	31	3
24	39	2
71	72	2
50	71	1
65	69	2
73	73	1
3	35	1
55	108	2
0	0	4
21	106	1
76	78	1
79	85	3
86	86	3
87	88	3
47	48	2
87	132	1
0	19	2
74	74	1
128	130	6
24	124	1
6	37	1
137	137	6
88	134	1
97	97	3
129	129	7
62	62	1
27	60	1
92	132	1
23	38	2
131	132	2
63	66	1
20	21	1
54	54	4
124	143	1
130	133	1
129	130	5
69	107	1
98	130	1
1	140	1
64	75	6
18	19	2
19	66	2
81	84	5
16	103	2
63	82	2
47	47	1
28	30	2
75	76	2
127	127	5
95	96	3
26	138	1
13	15	2
117	135	1
47	118	1
136	139	3
32	33	3
142	144	1
81	124	4
62	63	1
96	97	3
9	11	2
65	79	2
145	145	2
98	124	1
50	51	3
4	5	1
99	99	7
113	114	5
66	121	1
53	68	1
109	130	1
61	78	1
14	14	1
78	79	1
48	53	2
111	111	2
10	131	1
132	140	2
35	36	1
34	34	2
23	24	1
101	101	1
36	37	1
16	16	1
103	128	2
100	103	1
81	100	1
112	112	2
81	89	1
80	81	2
21	39	1
43	43	1
94	108	1
79	129	1
111	112	3
126	127	2
38	48	1
2	5	1
58	129	2
3	3	2
28	71	1
21	110	1
123	124	2
102	103	1
0	30	1
32	122	3
130	142	1
17	142	1
127	134	1
115	116	1
117	120	1
84	85	1
15	91	1
77	78	1
26	38	1
33	137	1
21	117	1
50	77	1
52	71	1
115	115	1
43	112	1
21	35	1
82	85	1
116	117	1
25	34	2
83	83	1
70	71	1
60	61	1
19	114	1
81	82	1
114	119	1
26	124	1
108	133	2
98	99	1
3	4	1
118	137	1
132	135	2
58	62	1
120	121	1
65	65	1
3	47	1
10	10	1
114	114	1
