105	105	3
117	117	15
112	112	11
37	37	8
33	36	3
99	99	26
97	98	1
128	128	17
19	19	27
77	125	5
153	153	15
14	36	4
119	120	2
82	82	18
44	44	17
152	152	14
154	154	24
143	144	18
42	42	14
122	122	14
57	57	15
134	134	12
70	72	1
14	15	2
125	125	20
73	74	5
77	77	15
69	70	7
21	48	9
67	75	2
26	26	14
4	5	16
120	120	8
97	100	1
93	93	6
78	78	17
121	122	9
87	93	6
35	35	15
100	123	1
109	109	17
49	73	2
67	67	9
76	76	24
15	15	25
45	45	12
48	48	25
5	5	29
51	54	1
18	116	2
143	143	17
14	14	14
6	6	9
47	47	22
131	131	18
152	154	2
133	133	14
132	133	8
141	141	21
50	50	15
67	73	1
4	48	3
40	40	11
62	85	3
137	147	2
30	31	1
132	132	8
68	68	10
49	50	3
149	150	7
32	113	1
31	31	11
55	55	11
102	103	2
7	7	20
34	34	15
64	92	3
81	81	2
10	23	4
63	65	7
14	19	1
56	57	4
24	24	18
127	127	14
106	106	21
53	53	19
28	30	8
148	148	14
23	23	18
111	111	16
49	55	3
72	97	6
100	107	2
13	24	2
22	22	12
32	33	2
38	38	11
75	75	4
139	139	9
140	140	8
64	75	2
38	42	5
120	123	5
88	88	7
129	129	10
12	14	5
95	95	18
74	74	8
25	28	3
71	71	20
110	111	2
19	22	6
134	135	2
28	29	8
15	16	6
10	16	1
150	151	1
40	41	6
100	100	10
121	121	5
97	99	8
144	144	11
80	80	6
25	25	16
46	46	14
108	108	7
9	19	3
133	143	1
104	104	6
36	36	23
58	58	2
113	113	7
29	29	17
67	69	2
12	12	18
17	17	17
100	101	1
87	88	1
126	126	3
70	70	16
130	130	9
66	86	2
76	78	2
138	138	7
32	32	20
71	72	4
136	147	3
53	97	3
103	112	1
22	23	7
39	40	7
138	150	1
135	135	13
108	109	4
61	62	4
10	10	11
110	110	8
25	81	1
18	18	14
128	134	1
51	51	13
140	141	3
84	85	2
102	102	6
29	33	1
101	102	2
90	116	5
67	90	1
79	79	11
96	113	4
25	27	2
101	101	7
49	49	10
27	27	10
54	55	8
3	3	6
106	108	4
67	68	7
67	96	1
75	98	3
72	80	1
17	18	7
18	19	15
81	86	1
65	65	6
67	80	3
48	49	4
104	105	2
20	20	15
11	25	5
75	91	3
77	78	16
107	107	15
62	79	1
114	114	14
13	13	29
85	126	3
70	77	3
9	9	27
21	21	16
7	15	2
67	70	1
33	33	9
11	26	9
42	43	6
105	112	8
46	53	3
8	10	8
10	25	3
41	41	15
84	121	1
123	123	8
40	42	1
70	91	2
119	119	9
146	146	13
27	28	8
111	113	3
86	98	1
73	73	17
16	22	6
115	116	6
41	43	7
28	126	1
47	48	2
118	118	15
82	85	7
15	20	2
29	67	3
21	23	6
26	33	2
84	86	3
43	43	13
142	142	6
65	85	2
96	96	14
12	21	5
83	83	12
130	131	2
74	77	3
99	100	1
82	83	5
98	99	9
65	75	2
45	46	3
34	62	1
69	71	4
67	87	3
38	39	8
19	23	5
28	28	15
134	137	1
21	118	1
94	94	14
135	137	2
123	124	3
6	75	2
97	97	7
127	146	6
39	39	12
72	73	1
13	14	3
140	146	2
20	21	10
135	150	3
139	142	6
116	117	4
115	115	5
116	116	12
140	143	1
23	110	1
11	11	13
53	54	9
54	66	1
144	146	1
122	126	1
89	89	4
50	51	7
5	8	2
25	79	2
141	142	1
15	26	3
16	20	2
51	52	1
23	24	1
98	98	2
95	97	10
86	86	10
13	20	2
87	94	6
4	4	6
69	69	7
27	29	7
103	104	2
35	36	2
128	132	3
55	56	3
66	66	4
134	136	11
86	94	3
125	132	3
87	87	6
43	44	2
9	25	5
10	11	8
99	114	1
12	13	2
150	150	5
103	103	15
22	25	3
84	84	8
136	137	5
120	134	4
106	107	2
92	92	6
72	111	3
122	131	2
62	87	3
7	8	5
121	124	1
68	69	6
98	131	4
120	124	3
107	115	2
85	92	2
43	45	1
81	124	1
38	40	6
130	144	3
56	56	9
64	64	6
95	98	3
108	110	1
71	112	2
14	16	2
39	42	5
148	150	1
94	111	2
88	94	3
104	111	2
49	52	3
101	113	4
8	9	3
30	30	9
33	50	1
27	32	2
109	110	3
31	74	3
11	38	2
64	95	1
3	28	1
95	123	1
8	8	18
146	150	3
31	53	1
75	76	4
147	147	7
8	39	3
41	49	1
96	99	1
30	32	4
41	48	5
11	12	3
137	137	4
132	146	4
29	30	3
125	128	4
142	143	6
81	82	5
94	97	1
110	115	2
112	117	1
64	85	1
96	97	1
31	37	2
135	136	6
108	113	5
13	35	1
42	53	1
143	146	3
42	46	4
95	108	1
135	146	1
62	62	7
131	139	1
21	22	10
75	84	2
136	145	2
118	123	4
151	151	12
85	85	7
28	51	1
5	62	3
142	146	4
16	19	3
88	89	1
49	71	3
6	7	2
58	85	2
67	88	1
5	12	3
125	130	3
105	106	1
19	20	2
17	115	2
126	127	3
2	27	2
76	82	2
103	105	8
31	55	1
32	111	1
11	21	2
139	143	2
35	57	3
16	24	1
34	35	4
45	53	5
129	133	3
107	109	1
76	77	4
54	54	8
10	13	2
122	132	4
11	20	2
42	44	5
3	7	3
5	6	1
63	63	12
41	42	4
24	114	4
140	147	3
119	123	4
26	27	5
94	113	2
62	63	6
37	38	3
53	55	1
62	78	1
105	122	1
97	105	2
85	86	5
5	28	7
138	143	4
146	148	1
42	64	1
113	114	1
145	145	8
28	62	5
63	75	5
46	69	4
6	31	1
16	16	4
49	69	3
63	81	1
94	99	3
33	34	4
72	72	1
44	46	2
15	42	1
90	90	2
64	66	3
27	81	2
57	63	3
83	84	1
124	124	3
5	7	2
22	118	1
95	111	1
71	92	3
112	113	2
50	76	1
106	113	3
55	68	1
77	101	4
95	96	2
118	129	2
100	110	2
149	152	1
3	4	1
11	16	1
34	50	3
122	128	1
51	56	1
100	102	4
104	135	2
45	76	1
135	144	1
48	51	2
24	30	1
93	99	3
11	15	3
26	80	1
88	93	5
138	149	2
90	96	1
8	40	1
149	149	5
85	94	1
29	38	1
4	12	2
63	64	3
26	52	1
84	95	3
18	115	2
136	138	3
106	109	1
46	54	3
141	150	3
140	144	3
36	37	2
144	145	2
110	112	2
121	131	1
131	148	2
20	22	2
10	43	4
80	82	1
66	71	1
4	71	3
14	24	2
14	83	1
128	129	2
124	127	2
70	117	1
94	95	2
118	131	1
136	136	3
148	149	2
100	108	3
9	10	2
6	11	1
33	38	1
64	77	2
153	154	4
14	93	2
9	11	2
50	55	1
33	78	1
152	153	1
9	39	2
67	86	1
32	38	2
4	76	1
13	69	1
103	113	1
75	79	1
86	99	2
126	129	1
4	6	1
131	133	3
16	33	1
17	24	1
146	147	1
79	80	4
142	144	1
89	92	2
102	105	3
80	81	2
21	31	1
82	111	1
68	71	1
124	125	1
127	128	2
2	3	1
34	37	1
139	140	2
80	83	1
35	37	2
136	144	1
26	79	1
123	133	1
69	75	1
81	83	2
115	117	4
29	65	2
74	76	1
44	45	1
100	111	1
30	73	1
25	32	2
63	78	1
10	34	1
72	82	1
58	65	1
83	86	1
31	34	1
63	76	1
68	77	1
34	94	3
10	37	2
18	123	2
139	149	1
109	151	1
90	93	1
20	112	1
17	19	1
27	33	1
139	144	1
81	84	1
24	25	1
93	94	1
78	83	1
136	146	2
122	123	1
38	43	1
109	117	1
130	134	1
145	146	1
120	122	2
97	136	1
139	145	1
134	147	2
29	66	1
97	108	1
66	83	1
22	50	1
74	112	1
66	79	1
46	96	1
147	148	1
31	32	1
105	110	1
11	13	1
64	79	1
64	73	1
