16	76	2
28	29	11
11	11	13
9	9	28
71	71	12
70	70	37
47	47	25
48	48	24
27	28	7
16	19	6
26	27	3
56	56	20
33	35	6
29	29	39
78	78	22
30	55	1
1	4	1
10	11	4
32	72	2
52	52	6
3	3	17
46	46	23
65	65	22
75	75	18
41	46	7
13	15	7
59	59	31
64	64	18
31	31	8
53	53	21
5	5	29
42	55	5
72	72	24
21	21	14
26	26	32
16	17	6
59	60	6
63	64	6
69	69	26
54	54	29
73	73	20
36	36	15
2	11	1
61	61	30
43	43	9
15	16	8
8	8	22
42	42	43
49	49	23
66	68	8
41	41	30
38	38	30
15	15	13
51	51	27
6	6	15
79	80	8
9	10	12
38	39	28
0	2	5
1	2	3
60	64	3
27	27	29
30	30	12
66	71	4
28	28	39
57	57	28
78	79	2
62	62	15
80	81	5
58	58	22
3	20	2
60	60	14
53	54	4
37	37	52
76	76	15
60	68	9
55	55	34
20	20	16
30	74	6
8	10	4
29	38	1
17	79	2
2	2	28
73	74	7
42	43	5
16	16	20
3	4	14
45	45	28
9	18	2
33	33	31
74	74	29
58	59	17
17	75	3
45	47	9
33	34	10
64	72	10
35	35	20
65	69	2
10	10	25
66	67	9
41	45	1
1	1	29
59	70	3
32	32	8
77	77	17
67	67	23
25	25	15
74	75	8
60	65	3
68	68	18
34	46	1
0	10	7
64	65	13
35	36	3
68	70	9
25	26	12
80	80	29
0	0	14
41	55	1
34	35	5
35	38	1
65	66	13
14	71	7
36	79	1
4	4	18
76	79	3
71	77	7
63	63	32
4	5	3
7	8	11
75	76	6
13	72	2
70	71	5
41	42	6
63	72	3
72	77	2
17	17	37
12	12	17
35	37	5
36	37	6
48	49	6
50	50	5
10	12	4
57	60	1
34	34	26
50	52	5
67	71	2
30	73	1
40	40	16
5	6	6
66	66	33
17	18	4
2	9	8
54	64	5
14	15	3
16	20	2
47	53	1
61	62	3
81	81	5
2	7	1
42	54	1
15	19	6
67	68	8
18	27	1
59	64	5
76	78	4
7	7	24
35	46	1
15	20	2
55	57	3
0	1	5
6	7	1
12	13	7
19	19	16
39	39	14
38	40	5
57	58	19
14	14	3
47	54	3
30	31	3
44	56	1
2	6	3
21	25	2
46	48	4
28	39	2
13	14	5
27	33	1
37	40	1
55	56	5
68	69	5
50	51	4
12	14	5
71	72	3
14	16	5
63	71	4
39	41	1
54	55	6
27	39	1
44	48	3
13	13	4
36	41	2
40	41	7
2	3	16
4	6	2
60	61	20
13	16	1
14	32	3
57	59	1
62	64	2
33	73	1
30	33	10
65	71	3
10	72	3
48	61	3
49	50	3
14	33	2
10	19	1
59	61	1
0	72	2
11	32	1
77	78	3
56	66	1
3	35	3
32	33	3
33	45	1
16	72	1
64	66	1
75	77	3
2	8	1
39	52	2
30	32	2
20	29	1
56	58	1
56	57	8
0	37	1
1	33	3
35	41	2
62	73	1
75	79	2
0	26	1
1	19	3
14	64	5
11	72	2
20	53	1
72	73	4
17	74	4
37	39	2
51	52	5
20	75	1
18	18	3
54	56	3
31	32	3
43	45	6
69	70	8
72	78	4
29	30	10
37	38	11
79	79	14
41	49	1
8	9	7
37	48	2
12	31	1
4	8	1
52	57	1
1	16	1
11	15	2
38	70	1
2	4	4
34	37	1
73	77	3
39	40	4
16	37	1
26	30	1
16	35	1
44	55	1
69	71	2
34	36	1
47	48	5
46	47	5
16	64	1
0	31	1
70	77	1
2	5	2
74	76	1
3	8	2
31	33	1
11	12	3
13	31	1
52	53	2
10	14	1
61	68	1
27	59	1
49	51	1
29	33	1
14	31	1
33	47	3
26	31	1
3	34	3
29	53	2
11	14	1
16	32	2
19	21	1
34	77	2
21	32	1
49	52	3
3	39	1
5	7	2
5	9	1
3	9	3
10	31	1
30	39	1
17	20	2
3	5	2
61	63	1
76	77	1
36	72	2
40	52	2
45	46	4
28	78	1
25	32	2
20	27	1
26	28	1
3	10	1
25	30	3
16	18	1
3	40	1
0	11	1
6	76	1
4	33	1
16	30	1
62	65	2
17	73	1
48	50	1
19	20	1
7	80	1
27	36	1
17	27	2
55	59	2
26	39	1
15	64	1
15	18	1
0	6	1
45	56	1
1	36	1
14	19	1
15	32	1
16	27	1
