201	201	7
10	10	20
10	46	3
30	30	7
1	1	8
191	191	14
9	9	12
29	29	28
108	108	6
104	104	14
136	136	11
56	57	4
36	36	14
242	242	2
46	47	4
100	102	2
75	75	5
2	2	6
220	220	3
22	22	3
40	40	2
49	50	2
197	197	8
50	50	13
95	95	3
86	87	3
170	170	7
23	23	9
128	128	7
43	43	14
209	210	3
139	140	5
88	201	4
112	112	2
41	164	3
160	160	5
58	58	7
104	105	4
16	17	8
65	68	3
37	37	8
98	98	6
19	19	11
26	46	3
10	11	3
62	63	2
53	55	2
41	41	11
5	6	3
233	233	7
0	3	6
45	45	14
113	113	5
67	67	17
192	192	6
235	235	8
57	57	6
183	183	7
67	71	1
59	60	4
232	232	5
105	147	1
27	29	5
46	46	6
79	79	8
186	187	4
114	118	7
39	39	3
52	52	7
137	138	6
210	210	15
106	218	3
166	167	2
70	70	17
211	220	1
49	55	3
167	168	7
83	83	7
116	117	1
134	200	1
105	105	9
69	81	7
59	59	4
14	14	5
199	199	5
190	190	4
197	198	1
53	53	9
119	119	10
190	191	1
225	225	6
115	118	2
56	56	5
84	85	6
19	38	2
141	142	7
189	190	3
176	176	3
47	124	6
78	78	9
12	12	9
239	241	6
15	17	3
13	14	1
24	25	5
65	65	14
164	164	7
6	126	1
20	20	16
187	187	9
63	63	2
71	71	9
174	174	11
141	141	3
103	105	5
48	50	4
38	38	4
121	121	3
0	0	10
34	59	3
151	151	7
9	10	4
133	133	6
64	64	1
71	86	6
85	86	4
9	47	1
85	85	6
227	227	5
71	72	7
30	31	3
108	115	4
224	227	2
80	84	1
29	201	2
19	42	1
47	47	11
188	188	3
134	134	7
99	99	5
160	162	1
143	143	11
18	81	5
39	40	5
68	68	13
4	31	1
230	230	2
203	203	4
124	124	6
17	17	4
103	104	1
25	25	15
30	32	1
229	229	3
102	102	13
191	192	2
42	42	12
223	223	6
74	74	8
58	81	1
186	186	7
21	22	8
48	48	4
228	228	2
27	28	5
103	103	2
122	125	3
50	52	2
82	83	1
11	133	3
19	68	6
64	69	3
72	84	2
147	186	2
240	241	5
4	6	2
217	218	11
194	194	5
149	150	2
171	172	3
4	4	10
150	150	6
204	204	5
171	171	4
82	82	3
181	182	2
31	31	6
209	209	8
148	149	1
26	27	3
16	16	9
230	232	2
213	213	6
192	195	1
2	3	3
133	134	2
164	165	5
122	200	2
213	214	4
185	185	3
214	222	9
49	49	5
68	79	3
32	55	1
130	130	3
7	127	6
129	129	10
72	73	7
86	86	8
7	7	1
240	240	5
66	66	6
122	122	5
84	84	9
13	13	2
69	70	2
104	107	11
106	106	4
200	200	6
205	205	5
222	222	4
12	75	4
28	28	7
35	57	2
10	24	2
156	157	1
73	74	8
21	21	4
13	40	1
217	217	2
91	106	1
72	72	2
147	147	12
127	127	1
167	184	1
101	101	6
146	147	2
26	26	5
111	134	3
189	189	6
138	138	3
5	5	3
81	81	6
113	231	1
126	126	3
234	234	3
81	83	2
187	189	1
110	110	2
193	194	3
55	68	3
18	44	1
69	80	1
219	219	5
39	82	5
212	218	2
167	167	4
147	148	2
96	104	1
117	118	3
224	224	10
3	3	6
67	75	4
57	68	2
20	39	2
99	101	2
37	56	1
144	153	3
241	241	2
27	27	8
102	103	5
236	237	2
14	23	2
42	164	1
226	226	2
237	237	1
239	240	5
241	242	2
35	68	1
6	6	4
204	233	1
207	208	2
44	45	2
28	70	4
126	127	1
214	214	2
36	70	3
209	226	4
198	198	2
8	8	7
208	208	2
137	137	1
40	41	4
78	90	1
129	130	1
191	196	1
105	179	4
123	123	1
166	207	2
183	193	3
175	176	3
120	120	3
30	53	1
182	182	1
231	232	1
20	82	4
181	181	2
72	74	3
215	216	1
157	162	1
192	194	1
231	231	5
206	223	2
100	100	3
100	155	1
206	206	4
36	37	7
18	18	3
69	69	4
61	61	1
39	41	3
107	115	3
104	179	1
3	51	2
172	212	4
54	54	7
151	152	1
40	42	2
168	168	2
19	69	1
218	222	1
107	116	2
7	63	3
20	21	2
16	213	2
21	78	5
27	45	1
35	36	2
173	173	9
150	151	2
212	212	4
80	80	1
34	80	1
63	64	2
99	183	4
131	132	1
29	56	1
216	216	1
11	75	2
56	58	2
86	90	2
37	38	1
202	234	2
23	24	1
34	35	2
36	48	2
118	118	1
104	106	1
9	129	3
14	25	1
48	173	1
45	89	1
119	127	1
38	147	6
33	46	2
220	221	2
116	116	2
156	159	2
83	84	2
159	159	2
102	155	1
60	62	2
105	178	2
112	133	1
40	76	1
236	236	2
146	146	4
52	53	2
111	111	5
3	65	2
31	36	1
121	130	1
202	235	2
1	8	2
81	82	2
203	204	2
170	182	3
23	75	2
61	66	1
136	201	3
60	66	1
39	81	3
55	55	4
60	60	6
127	128	2
107	107	2
135	136	1
166	166	3
135	135	2
7	32	3
193	198	2
175	175	1
152	153	2
100	184	1
215	227	4
89	89	2
35	46	1
80	81	1
70	71	2
214	215	2
20	208	2
230	231	1
77	78	1
28	29	1
176	177	1
8	9	2
114	114	4
23	25	1
119	120	4
79	80	2
17	22	2
180	180	2
79	84	2
12	13	1
173	174	1
20	23	2
6	7	1
61	64	1
18	22	2
47	48	1
14	15	2
118	119	2
51	53	1
8	128	1
97	97	1
169	169	2
34	84	1
239	239	2
54	56	1
180	181	1
195	195	3
24	24	4
163	166	3
103	191	1
211	213	1
136	209	1
63	75	1
70	85	1
11	11	2
19	199	1
154	154	1
138	139	1
177	178	2
214	216	1
184	185	1
155	155	1
1	84	1
1	54	1
34	37	3
109	109	1
193	197	1
162	162	1
61	65	1
7	126	1
96	96	2
201	202	3
15	16	1
65	66	1
4	22	1
157	157	1
197	207	2
20	65	2
6	65	1
222	223	2
218	218	3
156	158	1
60	64	2
196	196	1
165	165	1
55	64	1
162	163	1
11	14	1
153	153	1
210	211	1
163	177	1
44	44	1
173	182	1
34	34	1
47	127	1
15	33	1
35	58	1
78	79	1
223	235	1
3	28	1
144	144	1
172	172	1
