111	111	9
125	125	11
119	119	1
81	81	15
17	17	10
31	31	8
77	77	7
87	87	16
34	34	8
3	3	11
0	2	5
30	30	12
123	125	1
27	27	7
33	33	11
104	104	11
36	36	11
30	31	2
120	120	13
106	106	3
78	78	2
93	93	12
13	13	4
20	20	11
6	6	12
10	11	2
80	80	2
78	103	3
135	138	2
128	128	8
127	127	10
32	32	10
18	31	1
98	98	8
139	139	11
134	135	5
131	131	22
22	22	7
86	86	1
2	2	4
4	5	8
101	101	10
24	24	6
73	73	8
21	21	3
4	4	8
35	35	8
21	27	4
136	136	7
9	9	5
25	26	9
129	129	15
71	71	4
27	125	1
74	102	5
132	132	15
103	103	9
92	92	3
138	138	4
123	123	14
122	123	3
7	12	3
28	29	2
15	15	4
5	5	7
17	34	2
94	94	5
116	119	2
21	22	1
114	114	12
140	140	3
14	14	5
16	17	4
134	134	12
100	100	4
37	134	2
135	135	11
122	122	9
74	78	3
94	117	2
77	78	3
116	116	4
130	130	10
76	80	2
16	16	2
137	138	4
126	126	6
82	83	4
30	32	1
99	99	5
81	82	3
118	118	5
85	85	5
8	8	4
117	118	2
76	76	3
102	103	1
84	84	3
71	72	3
22	24	3
120	121	1
26	26	3
12	13	1
31	126	5
25	25	1
28	28	4
74	74	12
90	124	3
95	107	3
118	119	3
130	131	4
105	107	4
86	116	1
89	89	9
1	1	7
102	102	4
133	133	8
90	91	3
3	6	2
23	117	5
91	91	4
8	9	6
107	107	6
11	11	1
27	28	2
93	94	2
97	97	2
132	133	2
0	1	2
121	122	1
131	139	2
113	113	2
117	117	3
78	116	3
108	108	3
38	38	2
95	95	5
101	127	1
5	7	2
121	121	4
34	90	3
29	29	8
79	79	4
3	4	2
88	88	3
115	115	3
116	118	2
98	100	1
87	88	2
124	124	2
105	106	2
0	7	1
79	104	1
122	139	1
7	7	1
0	0	2
84	85	3
111	114	3
125	126	3
18	19	4
104	108	1
101	103	1
137	137	1
79	116	1
79	100	1
22	25	1
78	80	1
34	71	1
18	18	8
18	90	1
19	19	1
90	90	7
93	113	2
128	129	5
82	82	1
109	112	3
82	84	1
79	80	1
89	90	3
71	80	2
44	66	1
36	38	2
99	101	1
120	125	1
75	78	1
96	96	1
37	37	5
104	105	2
96	98	2
99	128	2
110	111	1
83	100	1
105	105	2
20	27	1
2	6	2
138	139	2
127	129	1
24	25	2
31	32	1
97	98	1
131	132	1
33	34	1
73	74	1
82	101	2
114	123	1
106	107	3
113	115	1
92	115	2
15	31	1
97	100	1
117	119	1
121	123	1
109	109	2
75	75	1
5	19	1
120	122	1
13	14	1
96	115	1
75	76	1
32	33	1
4	20	1
