176	176	15
166	166	11
40	41	4
61	76	3
19	20	2
77	79	3
171	171	13
32	33	4
30	30	11
34	36	2
113	114	7
112	112	19
27	27	3
75	77	1
167	172	2
63	63	6
54	54	10
90	92	4
153	153	12
96	96	8
45	45	11
114	114	8
168	168	7
57	57	5
101	122	1
178	178	6
114	120	1
24	24	17
28	28	10
77	80	2
126	126	11
174	175	3
169	169	10
31	32	10
90	91	5
135	135	12
2	2	13
145	153	2
144	144	11
172	172	11
7	25	2
155	175	1
145	172	4
160	160	9
159	159	14
7	10	5
152	153	5
17	17	11
38	38	7
9	9	22
128	130	5
105	107	4
113	113	7
5	6	11
164	167	1
22	23	2
37	40	2
41	41	9
163	163	9
12	12	10
16	17	5
72	74	8
86	86	7
4	13	1
73	73	8
1	17	1
179	179	12
9	10	5
101	121	2
146	161	3
122	122	5
26	27	3
39	40	9
78	99	3
140	141	2
178	179	3
6	11	8
21	23	4
129	154	2
121	122	3
76	77	3
13	36	3
104	121	2
99	99	1
20	40	1
52	138	2
105	105	7
101	102	8
44	44	10
27	29	2
146	146	7
167	176	2
98	98	12
127	151	2
72	89	3
137	137	8
23	23	8
60	61	1
145	171	3
26	26	7
89	89	15
162	162	9
37	37	12
11	11	8
72	73	11
64	68	2
119	119	5
177	177	16
13	13	12
142	142	6
142	143	8
134	134	9
25	26	1
6	35	3
175	176	3
117	117	7
149	149	9
95	95	5
130	131	6
110	111	1
167	167	10
102	114	2
35	35	19
42	42	9
174	174	11
153	155	3
156	156	10
159	160	3
167	168	1
32	32	17
1	1	10
77	77	8
44	45	5
79	80	5
97	97	2
92	94	3
21	21	11
161	162	3
100	100	11
81	81	15
108	108	8
89	97	3
157	158	3
88	89	5
35	36	3
22	24	4
14	16	1
111	127	1
162	163	4
87	87	22
80	81	12
148	148	6
123	125	5
66	66	7
6	6	21
29	32	3
145	160	4
29	31	2
85	85	6
15	16	1
39	39	12
50	50	2
155	156	5
127	142	1
152	152	12
76	76	3
133	133	5
112	142	1
180	180	7
36	36	21
141	143	1
97	117	6
93	93	6
164	164	3
92	92	2
118	119	2
10	10	23
134	136	1
5	32	4
46	46	2
78	78	9
16	16	12
139	141	4
147	162	7
80	80	10
79	126	2
75	75	4
25	27	1
131	132	8
84	84	9
91	92	9
34	35	2
99	100	8
133	134	4
90	90	2
52	52	3
152	154	5
56	56	17
5	11	1
107	107	4
41	42	3
129	131	5
15	113	2
146	150	2
169	170	7
151	151	17
112	127	3
109	109	5
15	15	7
7	7	9
173	174	7
107	108	5
116	117	3
144	145	6
13	14	5
11	12	1
22	22	9
43	45	4
148	149	4
145	145	8
167	169	2
165	166	4
176	177	1
73	143	2
77	78	2
149	167	3
135	176	1
157	157	8
5	5	7
101	103	1
88	88	15
14	15	2
139	139	6
5	34	3
171	177	3
134	145	1
20	20	4
7	41	3
14	14	6
16	110	3
147	147	10
102	102	4
31	31	12
3	3	3
170	177	1
79	81	6
4	5	6
112	113	5
147	148	4
11	13	3
33	33	7
115	117	2
71	71	10
154	154	1
77	104	1
122	125	1
6	7	1
19	19	2
143	145	4
42	43	6
161	161	6
29	29	6
104	104	4
101	101	2
118	118	9
89	90	7
55	55	1
135	159	1
107	109	3
9	12	2
43	43	7
103	105	2
166	174	2
168	169	5
138	138	14
17	18	4
135	160	5
140	140	2
26	28	2
114	126	2
116	116	3
87	96	2
80	99	4
11	31	2
3	4	2
170	170	4
38	40	1
9	30	2
8	9	3
103	103	8
131	131	5
92	98	1
15	44	2
153	162	1
115	115	14
97	98	8
146	155	2
79	79	3
54	55	2
4	26	2
163	166	2
87	88	4
166	167	1
43	44	6
104	105	2
150	151	3
25	25	9
101	115	1
109	110	2
58	59	2
67	67	4
22	28	1
171	172	4
14	17	4
173	173	9
126	127	3
4	6	3
83	83	2
43	148	4
111	111	5
2	115	2
73	74	3
136	136	4
34	37	2
91	91	2
17	32	1
40	40	5
136	158	3
129	130	1
38	39	5
27	28	6
37	38	2
36	43	4
158	167	1
163	170	2
91	95	1
76	78	3
123	123	2
143	154	1
78	80	2
158	158	6
23	25	1
108	109	3
124	125	3
88	95	3
2	44	1
120	121	3
143	143	7
98	117	1
70	70	3
10	13	1
1	2	6
164	168	1
75	127	1
34	34	5
7	40	3
50	51	2
14	32	3
94	94	5
143	148	4
17	33	2
24	25	3
4	4	3
28	32	1
124	124	11
177	178	2
146	162	1
4	12	1
165	165	4
77	83	1
123	124	5
102	103	2
55	56	1
58	123	1
96	112	1
102	120	1
12	13	5
117	118	2
136	137	2
64	64	1
106	106	3
24	26	6
95	122	2
143	144	2
52	53	7
155	155	4
62	62	2
60	60	2
127	127	1
37	41	2
165	168	1
59	60	1
11	30	1
141	142	1
18	18	2
130	154	1
114	141	1
143	150	3
0	0	2
80	86	1
2	37	3
133	179	3
129	129	5
86	87	1
18	29	1
136	157	2
86	148	1
158	173	2
36	38	2
101	125	1
81	118	3
121	121	3
134	135	1
13	32	3
130	160	1
9	13	3
10	12	1
8	27	1
110	110	4
168	170	3
127	143	1
116	118	2
65	65	4
28	29	2
120	126	2
59	59	1
106	123	2
151	153	1
93	94	1
160	161	4
7	37	1
1	4	1
45	46	2
61	93	3
8	10	1
128	128	4
74	74	1
141	141	7
28	30	2
125	133	1
8	8	4
172	173	1
76	126	1
2	4	3
117	121	2
133	162	1
125	125	2
31	34	2
68	68	5
161	164	1
93	95	1
175	175	1
10	35	2
104	106	2
147	150	1
95	97	1
10	15	1
5	33	2
96	97	3
71	84	2
163	164	2
170	171	2
4	115	2
78	87	1
150	150	3
36	37	1
95	96	3
21	22	1
74	75	1
17	60	1
82	90	3
132	132	2
3	8	1
158	159	2
153	154	1
102	110	1
130	130	2
177	179	1
113	126	2
17	90	1
80	150	1
116	119	1
10	11	3
21	63	1
178	180	2
113	129	1
153	171	1
157	169	2
92	93	1
134	176	1
120	120	3
130	159	1
12	30	1
115	125	2
97	115	1
59	77	2
13	18	1
145	162	1
156	157	1
23	24	2
151	152	1
72	72	1
11	115	1
146	152	1
98	104	1
89	93	1
132	145	1
9	35	1
121	123	1
171	173	1
150	160	1
36	41	2
30	33	1
31	38	1
113	127	1
150	153	1
151	164	1
57	58	1
51	51	1
