126	126	3
70	70	4
149	149	7
178	178	10
14	14	15
113	113	9
38	38	4
56	56	6
139	139	6
148	148	9
34	35	4
158	159	1
177	177	1
14	15	5
90	95	5
92	92	11
177	178	3
77	77	11
157	174	6
8	8	8
181	181	8
182	182	3
138	138	7
6	6	2
96	96	9
148	149	1
108	109	3
129	129	6
31	32	2
152	153	4
127	127	1
23	23	7
110	113	2
101	102	2
5	7	1
38	39	1
74	82	3
163	163	2
35	64	3
111	111	11
1	1	10
155	156	3
13	14	5
7	7	9
87	87	6
21	21	4
94	94	2
55	63	4
71	72	5
98	103	2
183	184	3
93	93	4
185	185	3
156	156	2
173	173	3
132	155	3
90	90	12
53	59	4
120	120	5
5	5	13
46	48	2
155	163	2
90	93	2
18	26	4
13	13	9
27	28	3
82	82	4
116	118	2
121	121	4
186	186	9
108	110	4
58	59	1
55	55	6
84	84	7
112	112	5
43	45	2
47	47	11
73	74	2
155	155	4
154	162	4
54	54	2
132	133	3
164	165	3
17	17	8
97	97	6
125	125	4
35	35	4
57	57	7
4	39	5
135	135	3
128	128	14
6	7	2
130	131	9
62	62	4
71	71	5
5	14	5
140	140	7
108	108	6
172	172	1
90	91	4
25	25	8
153	154	1
66	71	1
34	34	1
134	135	1
40	41	2
144	144	3
99	99	5
43	44	3
60	64	3
152	152	4
76	76	6
122	123	4
58	58	5
118	118	6
12	12	6
2	2	9
142	142	5
189	189	5
172	173	1
37	37	5
89	89	7
164	164	1
151	152	2
79	79	3
125	134	5
130	136	2
66	66	3
18	18	1
119	130	1
80	81	3
173	174	3
65	65	6
24	24	7
169	169	4
64	65	3
74	76	3
76	80	5
185	187	8
56	57	3
141	143	1
154	154	3
109	109	5
131	131	4
38	40	3
165	165	7
44	47	1
149	150	2
88	88	2
153	153	4
74	95	2
54	55	1
158	158	6
141	142	2
109	110	2
55	56	7
151	151	3
48	48	5
8	10	4
28	67	3
184	184	1
101	101	7
55	98	4
107	107	2
124	124	6
36	37	2
84	86	1
138	139	1
26	26	5
139	140	1
22	37	2
43	43	1
75	75	3
122	122	6
156	158	5
25	26	1
103	103	2
16	16	7
120	121	3
18	19	4
136	136	3
83	99	1
19	20	1
78	78	5
154	165	1
111	135	1
22	22	5
39	39	15
86	88	1
26	27	2
183	188	1
20	20	3
145	147	1
83	83	8
92	93	3
59	59	4
106	106	1
46	46	2
143	143	2
157	158	2
52	53	1
182	183	2
128	146	2
73	73	1
40	40	1
133	133	5
85	85	4
57	77	2
74	75	5
72	72	3
28	28	1
42	42	5
69	69	3
106	141	2
83	95	1
17	18	4
10	13	1
157	173	1
62	63	1
102	102	2
137	137	1
64	64	1
110	111	2
36	36	5
126	127	5
75	77	3
114	118	1
98	98	2
98	100	2
147	152	1
60	60	2
147	148	5
20	21	3
143	146	1
106	144	2
135	138	2
130	130	3
77	79	2
127	129	3
106	107	2
125	126	3
88	89	4
141	148	4
135	142	1
20	23	2
168	168	2
176	176	2
44	44	1
31	31	3
127	128	3
16	30	2
150	150	2
119	120	2
140	141	1
158	174	2
170	170	1
138	157	1
24	25	2
100	100	3
134	134	1
169	184	3
5	15	1
70	71	1
182	187	1
138	140	1
110	123	1
79	80	3
1	2	1
62	65	1
119	119	3
4	42	2
80	80	2
81	81	4
142	153	1
21	22	1
60	61	3
9	9	3
57	82	2
12	13	2
15	15	1
110	110	2
27	27	2
98	99	1
45	45	4
183	183	3
63	63	2
79	82	1
30	30	2
30	31	1
174	174	2
10	10	2
95	96	2
157	157	2
38	48	2
105	105	2
104	105	1
179	179	1
131	154	2
116	123	3
111	112	1
57	67	1
83	96	1
54	57	1
6	17	1
76	77	2
133	135	2
14	16	2
114	114	1
139	169	1
78	119	1
11	11	2
31	39	1
23	24	1
74	74	1
154	164	1
41	41	1
159	159	1
111	113	1
77	78	1
32	33	1
33	54	1
