35	36	4
124	124	23
129	129	14
13	13	16
99	99	12
4	34	1
18	36	2
97	97	10
127	128	14
110	110	6
122	122	9
112	112	4
90	90	11
83	83	5
16	16	8
92	92	7
139	139	9
121	122	3
85	86	5
23	23	7
76	77	4
109	109	10
127	127	19
10	14	3
111	112	3
102	102	4
11	13	3
123	124	3
17	36	5
25	26	10
4	75	1
138	138	27
8	38	3
120	122	14
11	11	10
18	18	10
137	138	11
117	117	6
87	87	2
84	93	1
22	22	6
38	89	3
116	116	12
123	123	14
88	88	4
115	115	3
6	6	7
125	126	1
37	75	4
106	106	10
125	125	4
105	105	4
126	126	17
104	104	9
13	14	3
78	122	4
118	118	6
102	104	2
77	80	1
89	89	16
106	119	3
9	22	1
74	74	7
33	33	10
0	14	3
73	102	7
97	98	8
22	23	5
118	119	4
137	137	4
104	106	1
128	129	11
136	136	18
130	130	19
28	29	3
86	86	6
78	81	2
112	115	2
34	34	2
103	103	3
103	118	1
8	9	3
136	138	2
72	76	3
27	27	10
73	73	13
29	29	3
119	123	5
81	81	15
14	23	2
88	114	1
134	134	9
102	103	5
85	94	5
132	132	14
30	30	4
133	136	2
7	8	1
104	105	4
131	131	14
112	113	2
14	14	5
20	34	2
100	100	8
106	122	4
28	30	6
14	85	5
36	37	2
111	118	3
71	71	4
100	104	2
20	31	3
94	94	5
135	136	1
96	109	2
10	24	2
116	140	5
140	140	6
96	105	1
2	2	11
26	26	8
3	4	4
79	84	2
85	92	2
135	135	3
15	18	3
128	128	4
98	98	4
85	85	3
79	99	3
16	17	2
8	25	4
92	101	3
38	38	3
31	32	5
104	107	2
13	15	2
101	101	5
103	104	1
20	82	5
122	123	2
108	109	5
28	28	1
96	96	2
20	20	15
10	10	6
120	120	8
21	78	1
31	31	7
75	75	3
20	27	2
78	80	1
2	7	3
75	77	2
101	103	3
5	32	1
107	107	3
121	121	5
133	134	1
107	120	1
81	82	2
27	29	2
116	118	1
120	121	2
93	94	3
12	13	2
78	78	9
19	20	2
81	123	3
24	24	4
119	119	1
12	12	7
7	7	6
33	34	4
79	100	1
73	75	7
35	38	1
32	32	5
17	18	2
34	35	2
95	107	2
110	111	1
90	91	6
37	74	1
21	21	5
15	15	9
17	37	1
25	25	8
80	80	1
117	118	3
14	84	1
23	24	2
83	84	3
1	1	4
107	108	5
114	114	4
97	111	3
93	100	2
17	17	4
96	129	2
131	132	4
4	4	5
100	101	4
35	35	7
119	121	3
35	128	1
0	76	2
1	10	2
82	82	6
106	117	2
23	25	2
10	22	5
84	84	3
113	114	4
5	5	1
11	12	2
105	106	2
79	79	5
95	96	1
7	10	2
101	104	6
72	72	5
36	80	1
37	37	9
136	137	4
116	136	4
78	86	1
76	76	6
99	110	1
89	90	2
75	123	3
133	133	5
103	123	1
103	122	1
0	0	3
10	19	4
111	111	6
6	9	1
1	14	7
106	121	1
16	36	2
113	113	2
78	123	2
78	87	3
72	83	1
19	19	3
77	79	2
116	119	2
91	91	2
3	3	3
134	135	4
23	26	1
108	108	1
114	138	1
27	28	1
7	37	1
81	83	1
95	95	7
86	87	1
115	117	1
94	95	1
5	6	1
106	107	2
38	71	1
89	113	2
6	7	1
2	4	1
91	92	1
109	110	4
75	78	1
9	21	1
99	113	1
14	34	1
88	101	1
138	139	1
10	23	1
93	93	1
97	100	1
10	11	3
111	123	1
71	72	2
105	107	2
12	14	1
0	1	2
6	37	1
9	9	1
82	83	1
7	24	1
29	30	1
123	128	1
11	77	1
26	27	1
100	112	1
74	75	1
5	71	1
2	6	1
117	119	1
0	2	1
11	20	1
77	77	1
19	103	1
3	8	1
