70	71	3
8	135	2
96	96	7
90	90	6
50	50	6
71	71	2
26	26	10
54	54	4
106	117	5
38	38	5
58	59	6
133	133	8
118	118	7
17	17	3
89	89	11
58	65	4
90	93	2
76	76	2
136	137	4
32	33	5
115	127	1
53	55	2
84	84	7
97	98	12
35	35	3
116	120	2
129	129	6
3	3	6
127	127	11
110	111	1
91	91	3
47	51	3
34	34	2
20	20	3
125	125	10
128	128	7
2	2	6
93	118	5
39	40	4
31	33	2
16	126	3
54	55	3
137	137	9
105	127	2
94	94	6
143	143	6
25	26	1
96	137	2
24	24	6
121	122	7
123	123	3
13	13	1
65	75	1
59	60	3
12	12	11
124	124	13
69	70	3
135	136	6
55	61	3
81	90	2
8	9	1
72	72	3
123	135	8
74	74	4
80	80	3
92	93	3
59	59	11
129	133	1
82	87	1
37	37	9
36	36	10
136	136	13
110	118	5
14	21	4
5	5	2
101	101	4
75	80	6
77	78	3
111	112	9
61	61	5
67	68	1
77	125	5
67	69	3
51	51	6
119	119	6
51	52	3
28	28	7
115	118	2
55	55	8
111	136	4
54	64	1
19	22	2
74	81	2
133	134	4
95	96	3
134	141	1
25	25	6
43	43	7
90	91	5
14	15	2
136	140	2
19	19	2
100	100	1
27	27	5
24	62	2
114	126	2
49	55	3
132	133	5
91	92	3
138	138	2
122	132	2
124	125	1
118	119	5
104	104	6
98	98	11
109	116	1
54	67	2
75	75	1
0	1	1
14	14	2
120	123	1
62	62	8
119	120	4
2	3	3
109	109	8
29	29	10
65	65	4
5	6	3
85	86	6
122	122	9
32	32	2
9	26	6
145	146	1
100	102	2
47	47	7
97	97	1
60	60	4
134	140	2
135	142	4
106	109	2
66	96	1
70	80	6
49	49	10
107	127	2
13	14	2
56	59	2
33	33	1
70	70	3
62	119	2
9	9	4
63	64	1
18	19	2
129	130	8
82	82	5
132	132	4
141	142	3
12	16	2
11	11	3
22	22	3
114	114	1
41	41	5
95	99	1
57	63	2
83	85	2
73	73	4
79	79	3
135	139	3
140	140	3
48	109	2
134	134	2
4	5	3
56	57	3
131	135	1
108	108	1
28	29	3
93	122	1
120	120	1
1	2	3
10	10	2
144	144	5
85	85	4
121	121	1
53	54	3
48	48	3
117	117	4
13	39	3
93	93	2
107	109	3
74	76	2
57	57	2
39	39	1
99	99	2
80	81	3
56	58	4
31	31	2
9	126	2
15	15	2
139	140	1
103	104	1
102	103	4
111	111	1
141	141	1
55	80	1
107	110	2
37	38	4
131	133	1
86	94	1
119	121	6
18	18	4
101	124	1
123	124	2
88	92	4
107	126	2
62	63	2
6	6	2
131	131	2
102	102	1
119	123	1
68	73	1
83	83	1
10	26	1
142	142	3
145	145	2
40	41	1
126	128	2
105	131	1
64	93	1
120	134	1
30	30	3
65	66	3
117	118	2
78	78	1
135	140	2
115	128	2
106	107	2
58	73	2
126	127	1
50	52	1
53	53	1
110	120	3
8	8	2
128	131	2
33	34	1
96	109	1
113	113	1
140	141	1
75	83	1
89	90	2
65	73	1
70	72	1
121	124	1
52	52	2
23	23	1
80	86	1
34	35	1
50	90	1
68	68	4
66	66	1
0	0	1
12	14	1
98	105	1
112	112	1
103	103	1
112	138	1
56	80	1
86	133	1
87	87	2
92	92	1
103	105	1
31	32	1
62	66	1
26	28	2
105	106	1
16	16	2
96	97	1
27	58	2
127	128	1
21	21	2
76	77	1
118	120	1
52	81	1
68	69	1
