15	15	20
10	11	3
3	4	4
80	80	3
115	115	30
84	84	17
52	53	2
83	84	7
67	68	4
14	14	11
54	55	5
65	66	10
19	20	4
98	98	6
112	116	8
8	9	2
131	132	3
31	32	7
82	83	6
28	28	6
111	116	3
129	129	14
79	80	2
117	117	12
16	16	11
95	96	2
86	87	2
112	117	3
18	105	4
91	91	3
20	23	3
82	82	2
33	33	9
12	12	21
109	109	9
112	113	3
125	125	3
32	47	1
118	119	8
19	21	2
54	54	13
91	92	7
7	7	21
46	47	6
68	68	12
41	43	5
103	103	10
121	121	17
0	0	29
88	94	1
126	128	1
97	99	3
40	40	14
22	22	9
44	44	11
129	130	10
26	26	4
28	49	3
27	27	14
34	34	5
90	90	7
43	44	2
112	115	2
64	64	11
76	76	7
30	52	4
62	62	16
46	60	3
55	56	7
113	115	1
50	50	18
18	19	8
132	132	6
60	61	7
104	105	2
66	66	11
61	61	8
49	49	12
5	5	8
14	15	7
33	45	3
69	69	7
61	74	1
108	109	2
120	121	2
94	94	8
92	93	3
93	93	16
59	61	6
38	40	3
29	29	3
89	109	5
58	79	1
53	53	15
53	54	1
94	95	2
11	14	5
81	83	4
72	72	17
107	107	1
4	4	8
18	24	1
107	117	2
38	39	2
77	77	5
4	67	2
47	47	27
23	23	2
55	55	6
105	105	5
8	11	3
70	70	7
118	120	2
113	116	2
51	51	20
77	78	2
68	69	6
44	46	2
127	127	5
21	24	2
23	24	6
29	30	11
125	131	2
110	110	4
58	58	4
13	13	10
76	91	1
4	66	2
111	111	11
25	26	7
20	21	3
41	42	3
92	92	3
75	75	11
46	46	20
74	77	2
123	123	10
114	114	15
130	131	8
100	103	2
52	52	18
85	85	5
11	12	11
90	91	12
83	83	2
122	123	5
53	55	2
52	90	2
48	48	23
20	20	11
124	125	6
96	96	13
79	81	4
44	45	5
42	42	6
105	117	1
118	118	6
88	88	12
42	44	2
0	1	4
96	98	3
86	86	1
33	38	5
57	58	4
63	64	2
40	41	4
45	45	5
25	25	2
94	104	1
106	106	4
100	100	8
110	113	2
76	77	1
9	9	2
99	99	5
65	65	8
17	17	3
63	77	3
39	72	3
4	5	5
97	97	1
30	30	7
99	101	4
130	130	8
80	81	4
94	117	2
10	10	5
119	119	5
49	50	7
39	42	2
73	74	1
39	39	6
102	103	2
79	79	3
65	67	1
51	52	4
8	8	4
95	95	5
22	23	3
101	102	4
43	47	1
102	102	7
131	131	8
43	43	4
83	85	3
32	32	4
110	111	7
64	76	3
13	17	2
78	78	3
81	91	4
133	133	5
75	77	4
28	29	5
49	51	1
18	21	4
97	98	9
71	71	3
19	25	3
63	65	2
50	51	2
66	77	2
83	87	3
15	71	1
73	73	5
13	14	3
75	82	2
24	24	5
119	126	4
112	112	7
9	12	3
59	77	1
87	87	9
74	75	4
7	9	4
18	22	4
41	41	5
126	126	2
128	129	2
110	115	2
6	7	1
46	80	3
63	63	6
120	120	5
116	116	13
33	128	2
90	92	1
1	1	9
3	3	2
11	11	7
95	121	2
122	122	8
69	70	4
106	108	2
49	112	2
24	68	5
2	2	2
104	104	9
110	112	2
105	106	1
93	94	2
63	100	1
115	116	3
57	57	6
3	8	1
59	72	1
56	56	1
18	18	3
105	111	1
82	97	1
66	96	2
124	124	3
30	54	2
9	10	2
91	93	4
13	67	3
99	100	8
26	27	2
59	60	3
15	19	2
40	42	3
73	75	3
119	130	2
30	31	3
127	129	4
78	96	2
81	82	5
7	11	1
24	69	2
80	86	1
27	50	1
6	6	4
98	120	1
47	48	5
69	123	2
101	125	1
82	84	1
29	53	2
123	124	2
57	93	1
16	17	1
100	101	2
13	24	1
75	76	4
68	76	1
113	114	1
84	85	1
65	74	2
74	74	6
86	101	1
85	86	1
20	61	1
33	72	1
118	129	1
58	72	1
126	127	2
120	123	2
117	118	1
70	71	2
19	19	2
95	109	2
50	52	2
84	97	2
69	105	1
31	31	7
105	107	1
67	67	5
88	89	2
38	38	2
34	73	2
101	130	1
47	62	1
34	40	3
39	41	1
118	126	2
106	107	1
66	67	1
105	110	1
117	128	1
93	105	2
16	18	2
91	110	2
66	72	1
98	99	1
108	108	4
125	129	2
81	81	4
28	55	1
109	111	1
15	20	1
95	104	1
124	131	1
24	27	1
14	17	1
18	57	1
101	101	2
37	37	1
99	106	1
118	130	1
114	115	1
17	25	2
117	130	1
58	59	1
44	47	1
82	85	1
59	59	1
22	24	1
34	38	1
60	63	1
65	76	1
60	60	1
94	118	1
62	63	1
19	24	1
2	3	1
54	59	1
76	92	1
45	46	1
88	90	1
