131	137	1
138	139	1
131	131	7
27	28	1
50	50	9
93	94	1
93	133	2
87	87	9
141	141	5
83	84	6
85	86	5
98	102	1
80	98	2
23	23	4
113	130	2
132	139	5
72	72	6
145	145	10
76	77	1
96	96	2
19	19	8
88	91	3
67	68	2
34	35	2
132	132	6
49	49	8
67	67	6
104	132	2
145	146	3
110	111	2
137	137	5
143	143	6
121	121	5
85	85	1
8	8	10
105	106	8
127	129	2
57	58	11
124	131	3
34	34	4
111	112	7
95	95	10
88	88	12
134	134	2
28	28	5
28	29	4
125	125	11
139	139	5
107	127	4
105	110	2
1	2	2
117	117	13
50	51	2
135	136	4
100	101	8
13	13	7
40	40	8
0	0	2
8	40	3
55	55	3
73	73	2
50	52	6
41	61	1
133	134	5
53	53	6
118	118	5
114	114	4
90	90	5
85	97	1
128	128	9
109	109	4
4	5	1
131	133	6
60	68	2
2	2	7
120	120	8
10	11	12
110	110	8
137	138	3
119	120	6
24	24	3
53	54	4
103	105	3
1	1	1
129	129	5
10	10	11
63	63	10
9	9	4
72	91	6
82	83	3
77	77	8
14	14	6
51	51	6
124	125	6
136	137	5
58	59	3
18	18	12
17	17	3
21	21	1
131	140	3
15	15	3
58	58	8
50	70	3
9	10	1
82	106	1
128	129	3
83	83	5
71	72	1
130	130	7
81	81	5
75	76	5
135	135	2
57	57	3
48	48	3
37	37	12
140	140	4
102	102	2
68	68	4
80	80	2
114	115	2
126	127	1
42	42	9
108	108	3
133	133	3
124	124	8
97	97	1
60	87	1
105	109	2
16	16	9
106	106	8
75	75	3
79	92	3
1	26	2
76	76	5
96	118	3
71	71	3
56	56	3
58	83	2
43	69	2
3	4	6
66	66	6
110	112	1
41	41	3
98	105	3
134	135	2
144	144	3
138	138	4
84	112	1
119	119	1
87	88	3
101	102	1
23	75	1
33	37	2
17	27	1
122	122	11
30	30	4
82	82	3
33	33	1
47	47	2
59	60	3
69	87	1
136	136	3
38	60	2
38	38	7
69	69	4
79	84	1
104	104	3
77	78	2
47	57	1
20	20	3
142	142	5
11	11	3
9	20	2
98	98	4
54	54	2
113	113	2
10	20	1
64	64	4
126	126	3
94	95	3
140	141	4
57	63	1
112	113	3
92	131	2
35	35	10
142	144	1
115	115	6
146	146	2
31	31	2
39	39	3
94	94	2
108	109	3
62	62	3
89	90	2
85	138	1
90	91	5
106	119	3
99	99	1
105	105	2
88	89	3
15	29	2
129	130	6
127	127	4
117	118	2
83	85	2
95	141	1
136	138	1
2	4	2
13	14	3
115	116	6
55	63	2
72	73	1
130	142	1
116	116	2
79	79	1
23	123	1
72	129	2
15	26	1
68	96	2
50	54	3
36	36	3
123	125	1
65	65	2
3	3	2
49	72	2
139	140	2
26	26	3
3	34	2
132	133	2
92	112	2
84	85	3
29	29	4
49	54	1
112	112	3
92	111	4
133	141	3
93	93	1
91	92	2
18	19	1
97	98	2
64	73	2
54	56	1
104	108	3
67	92	1
25	26	1
67	91	1
61	61	5
6	11	2
23	24	3
102	103	1
103	103	2
86	96	3
107	107	2
57	117	6
101	101	2
8	9	2
38	59	1
4	31	4
5	5	1
61	74	1
5	6	3
18	21	2
89	89	4
12	12	2
52	53	2
66	72	2
126	128	1
66	68	1
74	77	1
121	127	1
64	65	2
115	118	2
134	142	1
26	27	1
60	60	2
84	84	3
11	20	2
93	103	2
27	27	1
112	119	1
25	25	2
6	30	1
91	91	1
32	32	1
76	116	1
4	4	1
114	117	1
