57	57	7
170	171	1
140	140	14
0	0	3
8	9	5
42	43	3
102	103	3
152	152	5
72	72	6
80	80	4
159	159	7
118	127	4
167	167	5
149	149	3
33	33	13
158	158	3
106	106	4
3	3	12
73	79	1
154	154	6
131	131	7
80	81	3
97	97	4
180	180	8
176	176	3
174	175	8
128	129	4
142	142	5
163	164	2
44	45	2
101	102	5
24	24	6
60	61	2
178	178	4
18	19	5
30	30	17
7	8	4
83	84	4
59	83	2
166	166	3
7	7	9
72	73	1
10	10	19
159	160	9
114	114	6
119	119	3
8	8	8
134	134	5
41	41	9
15	15	9
73	100	7
4	4	6
147	147	9
26	26	7
53	80	7
120	120	6
54	54	5
0	6	5
68	68	2
65	65	3
5	5	8
121	123	2
148	148	2
66	66	7
19	19	9
52	64	3
74	74	14
160	160	4
136	164	4
17	39	3
53	64	2
83	83	7
100	165	6
13	13	4
27	28	8
137	138	4
11	12	3
81	84	4
177	177	7
92	92	5
35	35	5
104	105	1
42	42	9
16	16	2
67	67	1
115	126	2
52	52	3
67	73	2
170	173	3
0	1	1
22	23	10
95	95	5
131	137	3
123	123	2
27	27	15
56	59	3
56	159	3
61	61	5
34	34	2
146	162	3
53	86	8
43	44	7
63	84	2
58	71	7
173	173	7
9	40	1
139	139	3
105	161	1
35	36	2
126	126	6
86	86	2
156	156	3
20	20	11
155	155	4
103	103	6
22	44	2
14	14	8
63	63	6
90	93	3
121	124	7
121	121	3
24	25	4
106	107	2
83	85	9
15	30	2
105	105	4
50	50	1
73	73	2
2	2	6
64	64	7
40	40	2
165	165	3
0	40	4
111	111	2
25	25	8
7	10	3
9	10	6
172	172	4
164	168	1
146	147	4
77	78	3
107	107	3
17	27	1
9	9	4
25	26	4
81	97	1
1	1	1
12	12	7
6	68	3
37	37	5
81	82	1
75	75	2
172	173	2
43	43	2
93	93	8
39	40	6
36	36	9
100	100	3
13	178	1
91	91	3
9	14	2
41	42	7
9	13	3
127	127	5
106	120	4
132	133	3
38	38	4
129	129	6
7	9	4
37	65	1
15	17	4
12	13	11
161	161	5
1	33	2
153	153	7
141	141	5
158	159	1
105	142	6
123	129	2
29	29	2
121	122	3
90	90	5
139	162	4
31	169	4
5	8	1
144	144	5
110	113	4
29	31	7
27	29	6
140	151	2
74	75	2
123	124	3
146	146	1
85	85	1
145	145	8
56	56	3
165	166	3
109	109	10
36	38	1
1	2	5
144	146	2
24	26	6
110	111	1
60	60	6
106	135	1
170	170	1
96	96	4
109	110	2
6	6	4
139	140	4
15	16	8
60	85	1
11	15	1
31	31	4
174	174	2
32	33	7
151	151	4
38	39	1
28	28	4
117	118	2
79	79	2
151	169	2
126	127	3
56	57	1
135	141	1
91	122	2
82	82	6
2	3	9
154	155	1
102	134	2
57	58	5
81	81	2
10	16	2
41	114	1
104	107	2
177	178	11
0	21	2
31	32	1
168	168	2
6	7	6
89	89	4
105	135	2
35	42	1
63	88	2
179	179	6
17	17	8
6	11	1
44	44	5
107	109	3
68	74	3
2	5	1
21	21	3
8	66	1
92	110	1
94	94	2
52	53	3
54	80	4
165	167	3
14	15	3
117	131	2
128	128	3
150	153	1
123	125	2
143	144	4
75	76	2
10	14	2
2	7	2
138	138	9
83	91	1
151	161	1
19	33	3
51	51	2
162	162	3
6	19	2
120	127	2
23	23	3
114	115	3
108	108	4
68	72	1
78	79	2
7	42	1
99	99	2
128	140	1
20	22	4
36	39	1
157	157	2
99	112	1
129	130	1
90	133	1
122	122	3
1	36	2
15	20	1
165	170	2
76	76	9
16	44	1
128	131	1
164	165	1
33	42	2
32	32	2
166	168	1
34	35	2
87	90	2
7	34	1
42	67	1
4	5	2
95	96	3
16	18	4
40	43	1
58	60	2
3	5	1
117	117	1
147	148	2
3	4	2
11	175	1
169	169	2
173	175	1
10	18	1
36	37	3
151	164	2
98	99	2
53	54	1
66	67	2
16	41	3
143	145	1
13	25	2
38	42	5
13	30	1
33	35	3
24	171	1
146	152	1
17	22	1
10	17	2
166	167	2
15	32	4
23	27	2
20	21	3
119	120	2
52	87	1
141	164	2
151	152	1
167	168	3
43	114	2
18	30	1
127	128	2
70	70	2
116	156	1
117	158	1
22	22	2
96	113	3
84	85	1
71	71	2
115	115	1
179	180	1
163	163	2
11	13	3
100	112	2
77	95	1
6	15	1
97	98	1
144	150	1
23	26	1
27	30	3
19	32	1
131	132	1
30	31	1
17	19	1
117	135	1
81	96	1
5	12	2
112	112	1
2	4	1
62	63	1
125	125	1
133	133	1
16	34	2
5	15	1
30	176	1
90	92	1
88	90	1
65	71	1
14	17	1
160	168	1
124	125	1
11	11	1
101	101	1
150	151	1
20	29	1
