231	231	10
42	42	18
14	14	13
40	40	12
182	182	15
216	216	23
129	129	9
50	50	11
2	15	3
120	121	3
203	203	18
53	54	2
38	38	9
124	124	8
69	69	22
20	136	4
67	67	17
64	64	11
52	55	3
164	164	22
218	218	8
141	142	7
232	233	6
59	59	17
201	202	3
9	14	2
118	213	1
84	84	12
215	215	5
140	140	10
182	205	2
165	165	14
199	200	12
168	168	6
153	153	8
198	204	1
118	118	10
206	206	4
51	52	10
3	4	7
88	88	10
70	70	8
69	70	11
163	163	9
184	184	6
154	163	2
185	185	11
147	148	8
15	19	6
63	64	10
135	135	13
150	150	7
54	54	19
29	31	16
81	81	13
46	47	9
75	77	3
55	55	25
129	133	4
16	16	18
2	3	22
75	75	11
154	155	8
119	153	2
36	36	9
12	14	3
42	44	2
195	196	3
115	115	8
53	53	22
81	82	2
63	148	1
172	173	2
211	212	9
25	235	2
67	240	2
183	183	15
72	72	12
143	145	2
163	164	3
5	5	8
197	197	9
217	217	9
44	44	25
16	17	4
73	75	6
56	56	23
66	67	2
191	191	12
170	170	11
111	111	8
71	71	14
211	220	1
24	236	3
26	26	15
70	71	12
237	237	15
151	152	7
56	57	8
187	189	3
31	31	31
50	78	5
85	85	24
45	47	4
74	75	2
233	233	24
222	222	2
62	62	15
6	6	16
48	48	16
205	205	10
20	20	23
86	86	29
114	118	1
234	234	12
81	84	12
123	123	3
209	220	1
212	222	5
8	8	16
65	66	5
139	139	2
57	76	2
184	185	1
189	189	10
104	105	4
238	238	16
231	232	8
33	33	11
34	35	2
104	104	18
213	213	4
165	173	1
180	181	14
224	226	5
32	32	9
74	74	15
236	236	17
156	157	7
164	165	8
136	136	9
61	61	17
1	1	5
3	8	4
3	9	5
77	77	14
174	174	8
13	13	10
175	176	5
49	51	8
195	195	9
46	70	1
9	9	14
105	106	10
4	4	24
2	8	8
122	122	6
34	34	7
27	27	31
119	120	4
158	160	1
100	100	9
142	142	13
181	181	22
18	19	14
60	61	5
9	68	3
207	220	5
76	76	14
28	175	4
121	127	4
103	104	6
46	53	3
17	17	14
25	25	11
120	120	3
205	206	5
105	105	8
46	46	16
10	10	17
108	108	11
230	230	8
58	59	5
4	23	3
28	28	15
76	85	1
17	34	2
194	196	3
148	148	8
11	11	16
41	41	18
9	10	11
145	151	3
193	194	3
143	194	7
20	24	1
5	16	5
23	23	16
39	39	23
30	30	19
3	151	2
83	105	7
37	37	13
21	22	12
153	162	1
71	72	4
121	121	7
0	1	21
182	183	8
82	102	1
45	45	14
52	53	9
28	29	5
70	73	7
118	125	1
48	50	6
97	97	9
58	58	21
49	50	7
133	133	22
198	202	6
137	137	11
204	207	6
161	201	1
145	146	11
235	237	1
50	52	3
234	235	3
83	83	10
190	200	2
165	166	4
4	8	2
37	38	8
80	80	13
151	151	11
27	28	1
212	213	13
128	130	2
125	127	4
217	218	5
35	36	5
168	170	6
207	209	2
197	198	12
179	179	5
207	207	8
63	63	22
199	199	20
61	63	2
22	22	14
101	101	8
29	30	7
228	229	4
116	123	2
35	37	3
43	128	1
46	64	8
0	3	3
30	156	7
212	212	13
221	221	16
229	230	4
205	207	3
159	164	1
201	201	8
1	11	6
192	194	2
53	55	2
190	191	3
7	14	1
21	21	13
226	226	8
31	32	8
122	123	4
186	227	4
107	117	1
232	232	5
78	79	13
203	223	1
106	106	10
25	26	4
193	193	6
47	47	10
138	140	9
182	206	2
32	35	2
128	128	14
166	169	3
43	44	4
55	61	8
6	7	5
137	145	1
224	229	3
173	173	10
75	79	7
108	109	1
242	243	3
161	161	12
7	217	1
19	19	16
21	129	1
147	150	1
76	84	2
219	219	7
219	220	2
18	18	10
173	196	5
227	227	13
153	237	2
55	57	2
67	68	8
64	73	3
226	227	8
13	17	3
235	235	6
145	145	5
147	147	7
220	221	4
77	79	6
110	110	3
66	88	5
66	66	10
24	24	23
36	50	2
157	157	6
175	175	10
43	43	11
113	122	4
155	156	8
119	119	8
40	41	9
228	228	8
57	57	13
157	158	1
198	199	4
23	129	3
60	60	13
75	76	3
44	45	8
3	6	8
202	202	13
65	65	14
36	43	3
41	220	2
180	180	4
149	152	2
109	110	2
51	53	4
99	99	10
130	130	7
214	215	14
2	2	5
186	186	7
138	146	1
62	63	8
117	118	3
12	13	8
116	117	9
134	134	16
171	171	9
61	62	4
86	102	1
181	185	12
140	160	3
170	171	1
142	191	5
15	15	11
107	107	7
115	116	1
12	12	8
124	126	4
140	141	6
81	83	6
225	225	11
136	137	2
196	197	6
204	204	6
206	225	4
64	65	7
160	160	7
161	191	4
203	204	19
9	36	7
126	126	4
71	73	7
131	131	2
224	224	11
114	122	2
7	34	3
3	14	2
51	51	23
122	127	3
153	154	5
49	49	8
43	45	4
197	202	4
35	35	3
73	74	4
190	190	9
152	152	8
209	210	2
162	190	4
9	34	1
68	68	9
183	187	6
101	103	2
9	25	3
45	63	1
192	192	5
23	237	6
240	240	16
50	51	4
238	241	6
106	111	4
77	78	5
8	9	9
73	73	5
96	96	4
192	193	6
121	128	4
145	148	2
220	220	8
162	162	7
148	149	3
109	109	7
208	208	11
3	3	21
150	152	3
79	79	8
224	225	1
166	166	14
241	241	6
81	85	3
10	25	4
53	84	4
49	52	4
55	56	5
227	228	3
169	199	2
19	20	10
101	102	4
96	98	4
174	175	5
83	84	2
68	69	9
33	34	9
45	46	4
48	101	1
159	160	9
18	20	3
66	68	6
160	162	2
148	152	2
51	54	4
144	147	4
116	130	3
242	242	10
132	132	1
154	154	4
82	83	5
162	167	3
6	13	2
154	162	5
99	100	2
169	200	2
207	208	6
40	48	3
13	16	1
20	134	4
215	221	3
111	112	5
40	42	7
20	23	3
120	129	3
153	169	6
43	228	2
198	198	6
10	11	7
31	33	1
121	122	4
103	105	5
155	159	1
123	125	3
116	116	4
89	89	6
144	145	5
4	7	3
192	195	2
0	0	13
32	33	6
76	77	4
158	158	8
102	102	12
2	13	1
152	154	1
7	7	6
183	184	1
8	33	2
9	218	1
125	125	6
183	204	1
214	214	3
20	240	1
201	238	3
80	81	4
62	64	9
191	237	2
7	12	5
142	145	4
95	95	4
78	78	4
135	136	4
233	234	1
177	180	3
13	18	2
167	167	10
209	209	1
49	80	2
200	200	10
39	49	3
53	57	2
65	67	2
29	29	4
14	15	5
163	165	1
73	87	9
54	57	1
82	82	11
186	199	5
176	176	14
223	223	9
169	170	2
33	35	2
150	151	10
152	166	2
241	242	1
140	198	4
4	5	5
1	10	2
39	42	1
156	162	1
43	230	4
9	240	3
109	114	4
178	178	9
52	52	3
188	188	3
19	39	2
143	154	2
98	98	4
11	22	2
133	134	3
147	151	1
135	154	2
36	37	5
114	117	3
188	189	4
208	221	2
164	168	2
129	134	2
22	129	3
177	177	7
2	4	6
196	196	5
118	120	1
142	143	1
193	197	7
39	46	1
146	147	4
182	188	3
9	12	1
114	124	2
140	143	2
30	31	3
85	86	1
149	151	3
235	236	4
113	113	2
17	23	2
194	194	5
136	159	3
111	113	2
229	229	5
108	117	1
59	60	12
88	89	1
50	53	3
115	124	6
211	211	14
179	180	4
156	199	1
79	80	7
39	40	2
112	112	3
55	62	1
9	219	2
200	201	2
239	241	3
146	146	1
13	14	6
146	150	2
4	59	5
184	187	1
149	149	3
8	15	3
75	87	2
14	16	3
134	135	6
229	231	2
137	138	3
102	103	2
149	150	1
155	155	5
239	240	5
239	239	7
143	144	1
54	80	1
139	141	2
99	104	1
159	161	1
17	40	1
5	14	2
6	16	1
1	2	5
189	190	1
6	19	1
114	114	3
5	6	2
42	43	4
42	45	1
89	99	2
77	80	2
99	101	2
50	84	3
78	80	3
103	103	4
8	16	2
143	198	3
225	226	2
119	131	2
149	166	1
180	221	4
147	152	1
4	6	1
185	187	2
221	230	3
72	73	2
136	169	2
24	65	1
148	150	2
137	169	2
11	12	4
173	175	2
3	15	3
172	172	5
210	210	3
161	199	1
159	159	4
182	186	1
240	241	3
23	24	4
200	206	1
169	169	5
116	124	4
9	22	2
162	163	2
14	18	2
20	74	3
186	187	2
16	18	1
2	17	1
132	137	3
166	167	1
48	55	1
142	144	1
53	56	1
207	230	3
82	84	1
24	25	1
135	137	2
4	14	1
176	222	3
129	130	2
73	89	1
95	100	1
41	112	1
42	46	1
149	153	2
8	17	1
173	174	2
117	117	1
13	19	2
166	171	1
155	170	1
236	238	1
176	189	1
223	224	2
12	16	2
202	203	2
179	224	2
168	169	3
194	195	2
8	13	2
0	212	2
42	57	1
23	115	2
41	113	2
7	33	1
82	85	3
137	143	3
127	127	5
126	127	2
204	208	2
66	72	1
230	231	4
58	76	1
144	198	1
222	223	2
153	165	3
155	162	2
27	109	2
11	13	1
8	22	1
7	8	6
50	54	1
124	125	3
208	210	2
32	37	2
178	222	2
46	73	1
191	200	2
103	106	1
26	27	2
152	153	2
143	192	1
199	210	1
1	9	3
1	28	1
95	97	4
211	213	2
22	23	1
221	223	1
100	102	1
78	86	2
83	129	1
182	204	3
106	109	1
7	17	1
29	32	2
9	33	1
34	36	1
158	159	3
6	60	1
119	122	1
12	133	2
153	168	2
176	221	1
206	223	2
134	137	1
165	167	2
3	38	1
177	221	3
209	212	1
136	138	1
175	177	1
223	229	1
187	187	1
118	119	1
191	192	1
210	211	2
76	101	1
22	115	2
5	17	1
34	37	1
214	219	1
104	107	1
44	62	1
28	174	1
144	144	3
12	15	1
53	76	2
184	186	1
2	12	1
53	85	1
138	144	1
124	127	1
220	230	1
27	35	1
113	114	1
41	48	1
183	185	1
154	169	1
67	186	1
98	99	1
214	216	1
138	139	2
156	156	1
3	16	1
138	143	1
39	41	1
107	115	1
74	78	1
23	217	1
0	31	1
119	127	1
86	87	1
113	115	1
44	65	1
231	233	1
138	138	1
143	143	1
0	25	1
56	85	1
10	84	1
