22	24	7
0	1	7
20	20	26
67	73	3
67	69	8
23	24	10
55	55	10
10	11	10
5	5	21
3	6	2
55	56	3
40	67	3
58	58	10
12	13	6
54	54	16
47	48	5
23	47	2
11	11	10
61	61	33
1	1	15
68	73	3
24	25	2
60	60	23
57	57	14
42	43	4
24	24	9
42	42	8
10	10	18
31	33	4
7	8	9
56	76	6
57	58	5
63	63	13
67	67	9
35	35	11
53	54	5
50	51	9
21	22	2
33	34	11
59	59	24
75	75	19
36	36	6
13	74	1
30	30	14
73	73	9
26	26	8
8	8	27
23	25	2
77	77	15
2	2	17
32	33	7
39	39	8
56	56	18
51	73	4
9	9	13
66	66	7
54	55	6
37	37	6
76	76	18
27	27	12
51	77	4
38	41	3
70	70	5
64	66	1
28	35	3
71	71	14
13	47	4
25	27	6
14	34	1
61	62	5
27	35	2
51	76	4
13	13	7
38	46	3
50	50	11
64	64	16
28	29	1
35	36	5
55	67	1
52	54	8
48	49	2
43	44	3
31	34	5
12	12	11
48	48	5
28	28	7
20	23	3
39	43	1
54	76	2
52	56	3
20	25	1
65	77	1
32	32	10
21	21	6
38	38	15
19	20	7
72	74	2
45	45	17
37	40	4
74	74	8
65	65	6
28	31	3
7	7	14
41	42	11
3	3	7
19	19	17
13	14	2
22	23	10
61	64	2
75	76	8
26	28	5
46	46	7
0	0	17
72	73	4
41	41	10
12	21	1
61	63	4
52	53	4
6	8	2
4	4	4
8	60	2
3	4	11
68	70	1
62	64	2
62	63	5
34	34	11
71	73	2
7	11	3
32	53	3
62	62	11
36	37	1
12	25	4
59	60	2
9	10	4
36	39	4
14	35	6
12	33	3
43	43	13
69	69	3
22	22	8
27	28	6
29	36	4
29	30	9
58	59	3
38	39	5
40	41	2
13	31	1
52	52	6
47	47	9
60	65	2
53	53	14
56	73	7
44	45	4
36	41	1
6	6	6
57	66	2
62	65	5
73	74	4
49	49	17
48	51	3
63	64	5
11	12	2
1	5	3
68	74	2
26	27	4
42	56	1
25	28	2
29	29	8
31	31	4
69	77	1
3	5	5
40	42	1
72	72	5
44	44	7
40	43	4
23	23	8
46	47	3
65	66	6
38	40	1
70	71	5
10	12	1
41	54	1
49	51	5
51	75	1
8	9	2
49	50	4
45	46	2
9	11	1
70	72	1
39	41	1
61	66	2
56	57	6
45	55	2
25	25	10
66	68	4
65	69	1
1	2	2
33	33	15
2	3	2
30	31	3
48	71	1
43	45	4
40	49	1
73	75	5
57	59	9
58	61	3
69	70	2
68	69	3
66	69	2
36	38	4
20	21	3
4	5	4
13	30	3
32	52	2
58	74	2
13	77	1
40	40	4
30	34	3
42	54	1
40	54	1
22	28	5
14	50	3
71	72	1
29	32	3
54	57	1
68	68	3
37	38	3
37	66	1
60	61	3
5	6	3
42	55	1
19	21	2
7	9	2
74	75	3
29	31	1
25	26	1
65	67	1
18	72	1
66	67	2
54	64	1
18	24	1
39	40	3
53	64	2
2	5	1
53	68	1
42	58	1
35	68	4
37	39	5
13	27	1
51	51	9
34	39	1
27	47	1
57	63	1
23	27	2
69	75	1
29	33	1
72	75	1
47	73	3
12	29	1
13	23	1
18	18	1
