91	110	3
238	238	15
41	111	4
83	84	6
135	135	2
117	117	17
38	38	8
61	61	14
64	65	2
54	54	6
10	10	4
54	55	3
20	20	7
62	62	7
73	73	14
47	47	20
102	102	9
159	159	4
21	22	5
114	114	3
15	20	1
202	202	7
219	220	4
101	101	6
223	223	4
63	83	3
67	67	10
207	207	5
139	139	7
205	208	1
235	239	4
3	3	4
222	225	1
85	85	12
123	123	1
55	55	12
105	105	4
39	39	5
213	213	10
6	7	3
36	36	12
86	86	3
242	242	5
197	201	4
80	80	1
221	221	5
232	233	2
104	104	6
42	80	1
168	169	7
34	34	7
27	27	5
200	200	6
234	234	7
43	43	10
223	228	3
163	165	1
191	191	4
72	72	11
237	237	4
100	100	7
144	144	5
40	40	1
24	25	11
173	173	15
192	192	8
4	16	1
32	33	2
228	228	3
43	55	2
231	231	14
40	42	4
9	9	9
78	79	4
42	73	3
49	49	9
26	26	8
8	8	14
97	97	2
44	44	14
144	145	3
216	227	2
219	219	7
186	188	1
51	51	4
74	75	6
16	16	5
183	183	6
41	80	1
137	139	1
220	221	2
172	172	7
222	222	4
48	48	5
82	82	5
32	46	3
71	72	3
79	79	4
46	46	5
160	160	5
4	4	10
211	212	6
41	41	11
173	174	1
103	103	11
7	8	7
217	217	4
104	105	2
65	65	15
41	42	3
41	117	5
156	156	5
220	220	8
33	33	5
84	84	6
140	140	1
29	29	8
211	228	5
146	146	1
119	119	6
153	157	3
211	211	10
116	117	1
225	230	1
205	206	3
31	31	4
45	45	11
161	173	3
174	174	2
167	168	2
158	165	2
56	59	4
175	176	1
124	127	1
75	75	16
29	30	3
32	32	7
29	188	6
45	72	2
210	210	4
25	27	2
122	171	1
35	36	2
20	21	2
204	204	3
233	233	7
239	239	4
165	166	4
6	18	2
14	17	4
221	222	6
210	211	7
70	70	3
142	144	2
22	24	1
167	169	4
181	182	2
159	160	7
203	203	2
225	232	2
86	102	7
7	7	4
30	30	5
25	25	8
56	56	8
76	78	1
215	216	3
194	195	9
225	234	1
6	12	1
206	217	1
25	43	2
143	143	4
17	17	8
0	214	1
122	122	2
81	81	4
104	108	2
58	59	4
227	228	1
182	182	13
107	108	3
82	84	2
233	236	2
218	218	6
0	0	12
50	84	3
61	82	1
199	199	2
125	125	4
69	69	8
179	179	5
99	99	5
203	204	3
11	20	2
170	171	1
199	228	2
201	201	11
26	27	3
2	3	1
0	29	3
12	13	2
194	194	2
201	219	3
169	169	8
161	166	1
235	235	2
71	71	5
28	28	6
5	5	3
161	161	5
157	162	4
205	205	3
118	119	2
42	86	5
106	106	8
160	161	3
189	189	4
178	178	13
0	1	4
110	119	1
98	98	3
49	51	1
10	20	2
209	209	4
177	177	3
29	71	3
6	6	2
59	60	3
201	202	4
18	18	5
214	214	9
70	71	5
133	134	10
160	174	4
26	233	1
168	172	4
172	173	1
182	197	1
68	68	3
4	6	1
187	187	3
214	216	3
10	11	4
208	231	1
99	105	4
152	153	2
137	137	4
58	58	6
136	137	1
78	78	3
17	18	3
150	151	1
21	23	3
96	96	3
157	157	2
61	62	2
196	197	3
135	137	1
60	76	1
148	148	3
192	194	6
177	178	3
24	24	13
100	101	3
66	66	2
11	28	4
233	235	6
59	80	3
19	36	4
225	225	17
64	64	5
164	164	8
186	190	2
8	36	1
64	68	2
150	150	4
225	226	10
132	134	2
192	197	2
118	118	3
10	69	2
238	239	2
30	31	2
34	35	2
38	39	3
53	54	2
15	15	2
81	82	1
198	205	2
199	222	4
62	83	2
74	147	2
167	167	1
28	29	2
47	73	1
61	85	1
52	53	3
233	234	3
240	240	5
138	140	3
198	198	5
126	126	2
20	24	1
171	171	6
83	83	1
167	180	3
42	42	7
169	170	1
51	54	4
116	116	4
2	2	3
46	54	1
15	16	4
63	64	1
182	207	2
109	110	2
96	97	2
57	180	1
199	200	3
79	80	2
227	227	3
204	206	1
186	210	1
69	79	1
215	217	5
79	86	2
58	78	2
74	74	5
37	38	3
113	117	5
130	131	1
118	128	1
60	60	3
163	163	2
115	115	1
42	45	2
234	235	2
219	221	4
88	89	3
0	183	1
39	40	4
190	190	5
11	15	3
95	120	2
12	18	3
151	151	5
185	186	2
67	68	2
181	181	3
58	60	4
11	12	1
209	210	5
59	59	2
136	136	1
237	238	2
189	191	1
131	131	3
75	77	1
224	224	3
176	176	2
100	102	1
185	185	4
129	129	3
112	113	3
44	55	1
197	197	3
45	46	2
141	142	3
117	118	3
1	2	2
46	47	2
228	231	1
85	87	1
2	36	2
207	208	2
9	45	1
5	6	1
142	142	2
44	45	1
183	185	2
113	116	1
60	61	3
226	226	2
98	110	1
155	159	1
4	17	1
175	179	2
207	231	2
48	69	2
73	74	1
145	146	1
222	223	1
86	137	2
171	172	1
85	99	2
216	217	1
111	113	1
215	215	2
155	156	4
158	159	3
186	189	1
229	229	3
160	179	1
85	86	2
46	101	1
113	114	1
12	12	4
8	9	2
48	50	4
154	154	4
51	52	5
226	227	3
144	146	3
95	95	2
14	30	2
152	154	1
13	13	2
53	83	1
24	26	1
180	180	3
239	240	1
156	158	3
153	153	1
10	24	1
138	139	1
17	20	1
231	232	1
152	152	3
49	80	3
111	111	1
135	144	2
37	37	2
5	31	1
200	201	2
72	73	2
196	196	4
145	145	2
156	157	1
79	82	1
146	148	3
22	22	3
216	216	4
199	201	1
138	138	1
168	198	1
170	170	1
60	82	1
63	63	5
22	23	2
184	228	1
102	103	2
183	193	1
11	14	1
208	209	2
47	50	2
112	112	1
241	241	1
120	170	1
196	198	2
48	64	3
129	130	1
39	42	1
176	177	1
138	143	1
11	36	1
151	152	1
133	133	2
57	57	5
69	73	1
50	51	3
217	227	3
19	19	1
33	36	1
123	171	2
146	147	1
14	29	1
80	84	2
18	19	3
56	73	1
128	128	2
182	230	1
198	199	2
198	228	3
13	14	1
212	212	3
214	215	1
21	21	3
230	230	1
121	121	2
28	182	1
224	230	1
170	173	1
11	25	1
127	127	2
11	11	3
68	87	1
98	148	2
0	213	1
1	1	1
2	37	1
101	102	2
20	43	1
134	143	1
113	113	1
15	17	1
192	193	3
76	77	1
57	66	2
17	68	1
23	24	1
154	172	1
195	196	1
75	84	1
25	26	1
166	167	1
98	99	1
130	130	1
158	158	1
201	228	1
63	69	1
9	185	1
232	234	1
77	77	2
27	182	1
39	96	1
131	133	1
184	184	1
13	15	2
52	52	1
25	28	1
40	41	1
89	89	1
224	226	1
88	88	1
163	179	1
15	21	1
35	35	1
16	17	1
62	70	1
47	56	1
202	203	1
114	115	1
49	53	1
3	32	1
42	43	1
139	142	1
