24	25	7
189	190	3
183	183	16
52	52	9
155	155	12
128	128	9
58	75	1
16	36	1
179	179	15
118	121	2
110	110	11
190	192	2
129	177	6
59	60	3
26	61	6
94	94	11
128	129	3
117	117	6
126	126	4
195	195	9
189	189	11
150	151	4
130	130	7
156	178	3
25	29	2
51	51	12
67	67	5
28	65	3
125	125	6
54	54	20
55	55	13
24	24	12
81	81	4
185	186	7
152	162	2
82	83	6
188	188	14
97	97	4
15	25	1
22	22	3
5	27	4
0	103	3
146	148	6
4	166	8
155	191	2
102	102	8
12	47	4
10	13	2
144	144	11
18	18	16
118	118	11
63	139	3
170	170	12
174	174	9
35	36	1
4	28	3
25	25	3
151	151	11
4	15	6
122	122	9
62	62	10
6	8	8
119	119	4
113	113	5
155	156	2
159	159	4
99	100	6
28	29	3
38	76	2
148	179	2
15	15	7
59	74	1
148	148	11
157	157	10
123	134	2
18	36	5
187	188	10
163	187	1
169	169	15
156	156	12
141	141	4
158	158	13
30	30	13
94	96	3
45	45	6
183	184	6
26	26	7
0	3	1
156	157	4
15	24	2
175	175	1
54	56	6
99	126	1
13	51	3
34	36	1
1	1	6
184	184	5
41	42	5
5	38	5
63	63	1
56	62	1
121	126	2
59	59	5
72	72	3
167	167	4
25	26	2
58	58	9
173	173	15
179	180	5
2	13	4
192	192	11
168	174	1
7	34	2
38	38	10
53	53	10
23	37	4
77	77	6
116	135	1
174	175	3
14	14	8
7	7	9
74	74	6
107	109	6
94	95	7
39	39	10
165	166	2
160	160	8
187	187	14
18	165	5
186	186	19
70	162	4
72	73	1
176	176	5
36	36	12
139	140	3
23	25	3
10	11	2
195	196	6
2	5	1
85	128	6
87	87	7
110	111	6
171	172	2
9	10	1
31	32	1
132	148	2
137	143	3
42	66	1
47	47	9
140	141	1
171	171	21
37	37	6
127	128	1
41	60	2
49	49	11
114	114	3
177	177	8
9	9	10
156	177	1
191	192	6
62	67	3
105	106	4
172	172	11
10	10	5
163	164	8
154	154	6
56	75	2
44	44	11
84	84	7
121	122	3
48	48	12
154	179	4
20	20	8
88	89	4
43	43	4
166	166	13
158	171	1
111	111	3
95	95	7
0	163	2
12	13	5
182	188	1
4	5	4
101	102	7
36	37	4
141	180	6
176	179	2
40	67	2
5	5	6
153	163	4
7	8	4
27	28	4
173	181	4
132	132	15
49	186	1
6	22	2
194	194	9
116	116	2
173	175	12
21	22	2
130	139	1
3	76	1
169	190	4
102	104	2
15	170	2
190	190	6
197	197	11
109	111	7
19	29	2
145	145	13
139	139	15
103	106	2
27	63	2
112	143	6
20	24	1
34	34	6
146	146	14
193	193	11
6	7	2
161	161	14
100	107	5
185	185	12
3	78	1
148	153	2
42	43	2
56	56	3
37	85	2
79	87	2
163	163	12
114	122	5
100	104	2
168	176	6
168	168	14
178	179	3
85	85	2
37	76	2
136	136	9
34	35	3
115	115	8
31	31	6
0	1	5
129	133	6
133	133	9
95	96	3
42	74	1
119	120	5
134	135	4
78	78	5
160	161	7
158	179	3
72	74	2
35	35	7
1	102	2
21	39	3
147	177	7
30	31	4
153	153	3
149	150	3
135	135	4
129	130	4
12	12	3
17	166	2
20	21	2
100	133	6
165	165	8
158	159	3
93	93	6
124	124	9
176	177	5
7	21	6
44	45	4
104	104	9
167	183	2
44	60	1
36	38	2
170	181	1
150	150	15
11	133	4
76	76	5
66	67	2
74	89	2
161	164	5
11	11	7
152	152	6
66	66	5
33	33	12
112	121	5
145	146	5
71	141	3
93	98	2
176	182	5
147	147	12
106	119	2
127	170	2
156	158	3
131	134	1
99	99	2
180	180	7
27	27	8
15	47	1
8	27	2
120	120	3
126	127	2
17	17	7
29	31	2
20	34	4
84	85	3
128	183	2
106	111	1
151	181	4
12	49	2
16	197	3
71	71	11
66	68	4
166	167	4
101	104	5
86	86	4
112	112	11
41	41	4
167	168	2
118	136	2
142	142	4
99	135	1
144	145	2
11	13	2
3	109	2
4	4	3
82	82	5
164	164	7
172	175	1
0	6	4
140	140	2
102	103	5
183	196	6
4	16	7
123	123	4
21	21	3
108	112	2
70	140	1
9	75	4
122	197	1
93	123	4
50	50	4
187	194	2
121	125	2
98	131	1
138	138	7
178	178	7
25	74	2
163	165	1
159	193	4
79	137	1
146	152	3
116	118	3
188	196	5
3	3	3
146	147	5
159	165	2
34	76	2
73	74	4
42	61	1
16	16	10
131	132	4
144	146	2
40	41	5
37	83	2
79	79	2
46	46	3
13	15	2
186	187	5
121	121	4
20	35	1
60	75	2
15	16	2
9	40	1
14	58	3
44	58	1
105	105	3
153	178	5
19	63	2
107	107	3
133	137	3
118	119	1
93	94	2
126	134	4
4	147	1
13	13	3
170	172	2
196	196	7
51	57	1
6	6	4
31	147	1
2	3	2
17	197	2
167	191	3
39	67	1
155	179	5
182	182	7
108	108	5
157	161	3
135	137	2
114	145	2
57	57	10
191	191	4
162	162	7
194	195	7
29	162	1
148	170	3
176	178	2
189	194	4
103	103	5
35	185	2
129	129	2
46	66	2
23	23	4
3	5	2
128	133	3
70	86	2
69	79	2
22	24	3
174	176	1
151	173	2
61	77	3
29	29	3
78	138	2
137	137	4
40	42	5
124	125	5
100	101	1
78	79	4
5	6	1
161	163	3
176	180	2
138	139	3
101	119	1
39	43	1
11	138	3
116	145	1
147	148	2
149	149	7
31	160	2
72	139	1
25	39	1
144	178	2
37	38	2
53	54	3
157	175	3
135	136	3
109	109	4
32	32	4
6	59	1
3	63	2
125	196	4
64	64	1
19	20	2
181	181	12
28	28	4
131	131	1
71	73	2
80	80	1
184	185	3
7	40	2
70	70	3
13	14	3
2	2	5
96	96	6
143	143	5
42	42	2
113	124	3
99	157	2
64	65	4
61	64	2
117	118	5
16	45	2
103	107	1
179	182	1
57	58	3
62	64	4
115	116	2
68	68	3
40	66	1
196	197	2
17	18	3
155	180	2
140	184	3
60	60	1
9	12	1
88	88	3
69	69	7
39	73	1
184	195	2
98	98	1
27	61	3
4	44	2
15	56	2
193	194	2
161	162	3
115	118	1
160	163	2
172	174	4
10	14	2
19	32	2
25	42	2
143	172	6
127	127	3
76	77	1
58	72	1
156	165	2
63	80	2
134	134	1
108	123	2
150	166	1
93	95	1
100	100	2
81	82	3
30	70	1
62	68	5
110	112	1
128	189	1
149	172	1
31	43	3
69	70	2
107	108	1
187	195	4
123	124	1
172	178	3
39	64	1
54	55	4
73	139	2
28	173	1
146	157	1
70	75	2
55	56	1
99	131	2
102	105	1
162	164	2
165	175	4
35	37	1
4	30	4
135	139	2
13	56	1
16	35	1
108	109	1
179	192	3
42	64	1
144	172	2
186	193	1
123	133	3
10	47	3
188	190	3
183	185	1
27	35	1
47	48	1
118	120	1
103	104	1
106	118	1
12	123	1
117	134	1
34	37	1
155	157	2
27	33	1
157	158	1
141	160	1
140	142	1
123	195	1
59	90	2
151	152	3
162	163	2
168	190	1
152	153	1
8	8	3
106	106	1
44	68	1
101	124	1
27	68	2
158	165	1
39	41	2
170	176	1
19	19	3
21	78	1
26	39	1
181	182	1
140	162	2
70	71	2
117	122	1
72	140	2
29	165	1
101	101	3
79	80	1
11	55	1
16	46	1
114	115	1
108	121	1
170	171	3
39	60	1
50	51	1
19	37	1
6	21	1
83	83	2
161	174	1
44	67	1
134	136	1
109	121	1
11	139	1
89	90	1
43	44	1
79	138	1
21	77	2
26	59	1
115	142	1
112	126	2
45	46	2
106	108	1
48	49	1
93	96	1
173	180	2
59	73	2
11	12	1
56	58	2
169	170	1
114	127	2
154	155	1
60	76	1
191	193	1
108	111	1
147	149	1
113	180	1
4	29	1
4	45	1
142	145	1
114	144	1
13	45	1
130	133	1
24	29	1
38	42	1
130	131	1
143	144	1
14	104	1
