4	4	13
24	24	18
29	29	10
62	62	6
60	60	15
42	42	6
40	40	9
51	51	3
23	23	6
5	5	14
22	22	8
63	63	7
25	26	5
61	66	3
0	0	8
54	54	8
25	25	19
11	11	8
42	47	2
31	31	8
41	41	7
33	39	4
67	67	6
43	44	1
34	34	16
43	43	9
13	13	8
36	37	9
46	46	11
37	37	5
58	58	5
64	65	7
2	2	2
19	19	8
63	64	3
65	66	7
53	53	13
7	7	5
1	1	8
77	77	9
10	10	6
37	38	2
70	71	9
59	59	7
33	33	6
69	72	3
12	18	5
72	72	6
52	52	10
71	71	10
39	39	9
9	10	3
18	19	4
20	20	14
66	66	7
69	73	3
76	76	7
41	42	5
12	12	5
25	29	2
20	21	8
58	62	6
1	2	8
57	59	3
50	50	18
58	59	3
38	38	19
26	26	12
47	48	1
61	61	8
31	32	1
55	56	7
32	33	3
35	35	10
74	75	1
19	20	5
3	22	2
68	69	2
9	48	4
73	74	1
55	55	4
26	31	1
73	73	5
0	23	2
68	68	2
27	27	10
1	26	3
49	49	8
70	70	7
3	3	11
6	23	3
12	47	1
29	62	1
38	55	3
21	21	5
63	65	4
48	48	7
48	49	2
36	36	9
48	50	5
9	9	15
28	33	1
61	62	3
7	24	2
20	44	1
51	52	8
22	26	2
61	64	2
44	45	2
8	47	3
36	41	4
63	66	1
38	42	3
68	70	3
25	27	1
64	66	10
53	54	9
69	69	7
65	65	6
18	18	4
47	47	1
4	5	7
56	59	1
45	45	2
23	24	2
7	47	3
64	64	6
44	44	2
7	8	2
9	12	1
52	54	3
40	42	2
66	67	7
70	72	2
24	27	1
0	5	1
50	51	3
10	11	2
41	51	2
29	31	3
65	76	2
45	46	3
3	4	1
60	70	2
13	14	1
33	54	3
25	46	1
27	28	1
29	63	1
28	28	8
49	51	1
2	3	2
30	36	1
75	76	1
8	8	6
75	75	3
10	44	1
9	19	2
62	63	2
28	30	1
5	6	1
56	56	10
37	47	2
33	34	1
27	33	2
57	57	3
57	58	2
25	75	1
6	6	4
74	76	2
42	48	2
6	7	1
26	46	1
43	45	3
35	69	1
32	46	1
30	30	3
0	1	4
24	57	2
25	28	1
12	48	4
26	29	2
32	32	1
3	6	2
19	21	1
26	27	1
8	57	1
72	73	1
29	30	1
14	48	1
36	42	1
34	56	1
19	43	1
6	52	1
28	67	1
