131	131	4
25	205	3
180	180	8
143	143	9
224	225	4
32	207	1
57	60	6
4	5	7
202	203	6
14	18	1
103	106	1
119	129	9
179	179	9
155	155	1
7	7	9
223	224	3
141	141	9
58	58	10
180	181	7
1	1	12
207	207	10
14	34	6
108	108	4
116	118	1
235	235	10
161	161	6
153	153	4
63	64	4
70	73	1
221	223	3
200	201	9
183	183	9
43	43	13
102	102	13
53	53	7
60	63	1
156	157	2
197	198	5
40	40	13
174	174	21
203	204	3
170	171	2
226	226	4
80	80	11
77	79	4
28	190	2
75	76	3
21	21	12
141	142	4
226	227	5
188	188	6
219	219	5
225	226	5
0	1	10
77	77	12
66	67	2
171	183	2
11	11	19
36	37	8
8	8	15
16	16	3
100	100	16
99	100	2
62	64	4
14	14	3
62	62	19
58	111	2
127	128	7
27	149	2
48	61	1
176	176	8
9	227	1
3	3	7
25	46	5
158	160	1
48	55	1
81	82	6
101	101	12
133	134	6
32	118	1
198	199	1
13	13	1
59	59	12
45	46	2
74	74	16
76	76	5
162	162	11
24	24	14
26	205	3
154	154	5
147	148	6
72	72	9
41	41	8
35	35	9
55	67	3
59	60	13
197	197	4
4	4	7
234	234	6
175	175	4
62	63	7
6	8	2
123	123	1
33	33	5
134	135	3
32	32	11
229	229	14
23	23	15
85	85	14
154	155	1
18	19	3
17	18	4
135	177	3
200	200	10
37	37	11
147	147	5
69	88	2
30	31	8
140	141	1
210	211	2
203	218	5
204	220	2
111	111	7
177	177	9
10	10	11
41	56	2
75	82	3
157	157	8
60	60	12
46	62	1
238	239	5
234	235	3
6	6	4
42	42	22
51	52	8
114	114	7
168	168	3
127	127	11
105	106	3
101	102	4
60	174	3
67	67	10
112	212	1
54	54	16
9	9	17
184	184	9
119	120	3
175	176	4
204	204	9
40	42	4
128	128	17
135	136	3
19	19	13
177	181	3
20	26	1
25	72	1
29	30	3
66	68	3
225	225	11
55	55	7
55	66	1
58	110	3
219	231	1
19	23	4
69	86	2
210	210	4
15	15	6
184	196	2
49	49	10
241	242	2
42	46	2
82	83	6
134	134	9
170	170	6
138	138	7
192	192	8
238	238	7
84	84	14
50	133	1
156	158	1
29	67	2
17	19	1
123	134	4
17	17	9
27	28	3
83	84	6
228	229	5
82	82	6
230	230	13
146	146	3
221	221	4
102	103	3
135	135	6
239	239	6
8	30	3
136	136	10
223	223	10
220	220	4
40	57	1
133	137	2
242	242	11
186	186	2
19	26	1
48	48	13
2	2	15
205	205	7
69	70	2
65	65	3
5	8	7
38	38	10
109	109	3
50	50	3
224	227	3
212	212	7
40	41	4
215	215	8
13	16	3
19	20	6
148	148	7
135	162	1
35	37	4
181	182	1
236	237	5
236	236	6
27	29	2
103	104	3
221	225	5
69	69	9
47	47	24
85	86	6
43	44	7
209	209	6
232	232	8
189	189	4
3	15	1
113	113	4
181	181	6
66	77	1
161	170	1
20	231	3
61	69	2
113	214	2
21	41	1
79	79	3
176	177	2
110	110	6
47	48	7
228	228	12
239	240	10
199	199	8
198	198	10
203	203	9
23	24	4
39	39	9
31	35	4
208	208	16
194	195	2
142	161	2
79	80	1
124	124	2
0	0	5
9	10	7
121	121	7
154	168	3
211	211	10
98	98	8
139	162	2
22	22	7
63	63	9
33	37	3
155	157	1
44	234	3
172	172	10
221	226	5
137	162	2
233	233	5
20	21	4
110	153	2
80	82	1
216	216	6
217	219	1
227	227	7
64	65	3
39	67	3
237	237	11
5	227	4
27	27	8
57	57	9
156	209	2
194	196	2
22	49	4
72	73	8
190	190	8
215	216	3
138	162	1
12	12	10
59	111	1
28	28	12
74	75	8
214	215	1
156	161	1
66	66	10
217	217	6
226	228	4
55	56	3
184	192	2
115	133	2
53	55	1
30	30	9
103	103	2
209	211	2
139	139	7
158	159	3
32	34	3
96	229	2
164	165	2
65	66	1
113	114	2
180	188	2
18	18	3
75	75	7
51	125	1
136	137	6
167	167	6
104	107	3
211	212	1
9	11	1
187	188	5
19	46	1
112	112	3
146	147	3
57	62	3
29	129	1
23	26	3
199	200	6
195	195	6
107	107	2
10	11	7
38	39	2
145	145	3
133	136	2
150	152	4
83	83	9
29	29	13
117	117	3
100	101	8
159	159	7
1	2	6
96	228	2
37	64	4
12	16	3
46	46	11
68	68	5
22	55	1
126	126	4
10	37	2
106	106	4
30	118	1
196	196	3
191	192	6
160	160	7
21	22	5
26	27	3
202	202	7
31	31	5
241	241	7
144	149	4
144	147	1
96	96	8
41	42	4
201	201	8
52	54	5
177	178	5
21	51	2
161	162	3
48	125	4
26	26	9
142	142	1
116	116	1
70	70	6
95	95	2
6	7	2
139	140	4
171	198	6
188	189	2
76	131	1
107	108	2
191	191	7
182	182	11
95	196	3
105	105	5
96	97	4
77	78	2
15	19	1
15	67	3
29	70	4
31	106	4
97	97	5
26	28	1
60	64	2
120	120	10
98	101	2
137	166	1
173	208	2
118	118	8
152	212	1
149	150	3
234	236	1
128	129	5
11	13	1
163	163	6
96	227	2
216	220	3
31	119	1
218	219	5
61	61	8
24	26	3
159	160	2
78	79	2
32	105	2
140	140	2
86	86	4
162	163	4
22	23	6
224	224	4
5	31	1
10	20	1
48	134	1
28	29	3
231	231	7
56	56	3
165	170	1
20	190	7
196	197	1
103	187	3
78	81	2
156	156	4
101	119	2
97	106	2
81	81	4
222	224	5
80	81	4
214	216	2
166	176	4
1	10	1
73	74	5
117	157	6
50	51	2
52	52	4
5	9	2
25	26	1
4	6	1
109	208	2
86	87	2
88	88	4
45	45	2
150	150	3
190	191	2
9	30	1
179	180	1
55	187	2
214	214	2
36	97	2
33	36	3
48	49	1
217	231	1
37	38	5
14	17	1
105	169	2
125	125	7
64	64	10
80	84	1
29	120	1
207	208	2
81	84	1
36	189	1
155	208	1
43	63	1
124	125	2
145	147	1
142	143	4
166	166	4
169	170	5
191	195	1
54	188	2
233	234	6
143	146	1
103	105	2
32	121	2
235	236	4
9	232	2
201	202	1
147	150	2
36	36	7
195	196	3
132	134	1
9	37	3
24	65	1
78	78	1
101	120	3
28	71	3
154	212	3
22	219	2
152	152	2
104	104	15
64	67	1
17	38	4
9	25	1
186	187	2
133	133	3
120	122	1
73	73	5
127	130	4
76	78	3
169	169	6
9	12	1
69	85	3
197	200	1
180	189	2
5	7	2
70	74	3
149	149	3
174	175	2
67	68	2
122	127	1
8	32	3
35	36	4
101	214	2
24	38	1
52	53	2
66	217	4
168	176	2
164	166	2
60	62	3
220	222	1
14	15	2
178	178	2
97	230	1
129	130	2
132	148	2
48	52	3
69	77	3
39	40	2
44	47	1
16	17	2
173	173	3
95	96	4
170	181	5
173	235	2
170	236	1
122	212	1
14	16	1
58	59	4
135	176	1
232	234	4
13	53	4
48	50	1
192	195	1
11	12	2
5	35	1
224	226	5
26	217	2
22	222	2
169	182	2
129	129	1
71	72	6
25	39	2
81	83	2
197	226	1
160	161	1
54	55	6
160	211	1
25	206	2
198	228	2
190	226	1
177	216	1
21	227	2
106	154	1
153	154	2
29	121	2
49	50	3
108	161	1
222	222	6
36	103	4
182	183	4
69	84	1
70	71	3
151	151	2
68	70	3
102	104	2
65	68	1
144	144	3
25	97	2
20	20	2
120	121	3
56	68	3
5	5	3
71	71	5
77	80	2
13	74	3
198	200	1
171	171	3
77	205	2
16	19	2
25	25	4
115	117	1
138	139	2
220	221	1
190	224	2
5	6	2
163	211	1
106	111	2
240	241	2
101	121	1
212	221	2
8	98	3
193	193	1
104	108	2
208	209	1
116	117	1
164	164	2
106	107	1
163	210	1
209	210	1
142	162	1
157	209	1
53	54	2
60	61	1
122	122	2
212	213	3
125	127	2
56	102	2
31	194	3
3	4	2
67	232	2
239	241	1
174	238	1
204	238	1
147	152	2
173	174	2
171	172	1
96	105	1
117	119	1
70	72	1
213	214	1
236	240	1
219	220	1
1	35	1
231	232	1
101	189	1
46	48	1
180	185	2
11	15	2
81	202	3
56	66	3
56	62	3
120	129	1
194	224	1
117	118	4
168	169	2
137	138	2
24	61	1
1	54	1
26	206	2
201	225	2
206	207	2
220	230	2
9	31	1
21	24	1
63	169	2
79	82	1
102	189	1
15	48	3
57	59	6
102	187	1
184	185	2
53	187	1
61	75	1
154	208	1
120	130	2
136	158	2
169	225	2
37	63	2
130	130	3
213	215	1
104	105	4
224	230	1
84	85	2
39	41	2
69	78	2
240	243	1
12	13	3
232	233	2
201	206	2
2	3	2
62	70	1
217	220	1
2	35	1
119	119	2
7	8	1
237	238	1
68	69	2
125	128	1
61	62	1
24	25	1
151	152	1
165	167	1
15	33	1
1	36	2
33	192	1
78	80	1
33	103	2
112	113	6
27	216	3
158	158	1
178	179	1
15	20	1
33	34	1
52	133	1
227	229	1
167	169	3
33	189	1
81	203	1
57	58	1
2	14	1
23	55	1
11	27	1
166	167	1
223	230	2
34	225	1
2	5	1
189	190	1
28	56	1
2	102	2
48	51	1
26	45	1
24	218	2
176	183	1
152	153	1
101	191	2
96	191	1
49	55	1
13	14	1
145	146	2
126	127	1
36	38	1
229	230	1
32	35	2
146	150	2
76	77	2
67	233	2
26	190	3
167	168	1
135	167	1
204	227	1
24	43	1
2	4	1
56	57	4
18	189	1
134	136	1
137	137	1
113	129	1
50	60	1
50	124	2
173	175	1
23	64	1
68	89	1
12	37	1
230	231	1
22	57	1
111	213	2
51	51	1
182	184	1
29	119	1
4	7	1
5	226	1
134	163	1
197	199	1
150	238	1
206	206	1
141	162	1
20	24	1
8	9	1
123	127	1
8	11	1
34	34	1
139	142	1
32	108	1
42	43	1
105	117	1
58	61	1
1	6	2
48	53	1
58	64	1
194	194	1
80	83	1
12	14	1
186	193	2
55	59	1
104	239	1
29	38	1
205	230	1
115	115	1
19	100	1
189	226	1
154	165	1
59	63	1
