112	114	2
0	58	3
182	182	4
97	97	17
56	79	3
46	47	1
70	70	7
16	16	24
66	68	4
65	65	20
185	187	5
33	33	12
10	18	8
5	6	4
8	78	5
29	29	6
112	112	7
9	14	2
22	22	13
20	54	7
103	103	8
155	156	5
157	157	6
33	34	4
120	120	15
43	44	8
111	163	1
14	26	1
129	133	3
7	7	15
91	92	3
3	80	6
130	130	12
159	159	13
75	95	4
19	19	5
129	129	8
4	78	3
151	151	22
3	3	6
126	126	16
153	153	10
130	149	4
89	89	15
21	22	4
74	78	1
125	126	3
32	41	4
140	144	1
143	144	5
118	183	6
177	177	6
123	123	12
83	85	5
152	153	1
10	10	6
21	81	3
62	64	5
137	139	1
118	174	3
151	152	2
163	163	12
93	93	5
90	91	1
139	139	7
90	103	2
127	158	1
105	105	12
10	57	2
16	24	1
60	85	2
165	165	5
124	124	17
122	122	17
84	84	8
57	66	2
31	32	5
4	6	1
131	154	1
76	76	15
71	108	1
5	18	4
152	152	6
129	152	3
162	168	1
117	117	9
83	95	4
15	15	10
95	95	14
162	162	8
95	99	4
121	164	1
104	105	10
5	106	7
41	47	2
67	82	2
148	156	5
73	116	4
46	46	1
167	170	8
167	168	1
86	87	7
38	38	13
150	150	12
157	187	3
108	110	2
89	90	1
4	81	3
98	126	2
106	106	10
33	35	2
118	118	22
90	90	16
24	26	7
94	94	5
128	128	9
1	1	9
126	135	3
60	60	2
174	174	2
5	5	6
141	141	5
35	36	4
150	151	6
42	42	5
134	135	5
134	134	8
80	82	6
124	161	2
136	136	5
173	173	8
32	32	20
62	62	12
147	156	3
53	105	3
167	167	14
144	144	14
124	125	2
88	88	6
108	108	11
161	161	4
107	107	15
168	178	2
4	4	2
164	165	9
12	63	1
47	47	3
125	179	3
83	84	10
55	55	17
23	23	2
172	183	4
94	95	4
81	146	5
19	20	6
72	72	9
184	184	7
109	109	10
43	47	1
132	136	3
110	110	4
34	35	10
13	14	4
101	131	2
74	116	5
64	127	1
63	63	7
156	157	4
39	39	8
177	178	4
8	17	1
175	175	1
101	130	3
58	59	2
21	21	9
99	99	13
4	5	2
133	133	6
98	100	5
45	47	7
162	163	10
154	154	11
149	153	2
106	109	6
26	26	9
171	179	1
136	137	2
63	100	6
14	15	7
12	12	9
81	81	6
166	166	2
92	93	3
91	93	4
71	71	6
61	61	11
32	35	3
189	189	4
54	54	6
41	41	9
15	28	6
111	114	6
12	14	5
59	60	5
103	104	1
67	77	3
46	55	3
120	164	1
148	148	11
144	145	1
33	37	1
127	128	1
7	8	1
74	81	5
158	158	6
156	156	6
182	183	3
31	31	7
134	136	2
127	129	2
85	136	4
73	82	3
187	190	1
78	78	14
186	186	7
80	80	7
62	63	3
41	56	2
48	57	3
83	83	5
112	133	1
140	176	4
115	115	6
58	58	1
125	125	7
113	113	2
52	52	1
11	11	4
47	53	4
67	67	1
122	163	6
138	155	3
140	140	13
172	172	5
121	121	5
57	115	2
166	168	1
59	59	4
87	87	9
147	148	1
188	189	5
117	173	2
102	102	6
20	21	6
79	79	7
79	109	2
138	138	10
56	115	1
0	0	2
145	145	7
60	61	2
70	99	1
61	62	7
58	81	5
96	131	2
151	184	2
53	53	10
76	110	1
20	20	3
18	26	3
109	115	2
149	155	2
71	117	2
85	85	8
40	40	15
6	6	9
17	37	1
30	33	3
171	181	2
130	161	5
99	100	2
48	56	1
102	105	1
48	48	12
143	143	7
85	145	2
13	13	9
176	176	11
45	46	5
120	121	6
113	115	8
85	132	1
58	154	2
148	154	2
75	76	5
77	77	6
25	25	8
14	37	3
22	23	3
41	42	2
127	127	3
13	57	2
110	114	4
164	164	10
177	190	2
116	116	11
32	40	2
86	86	3
71	72	1
16	68	3
112	128	3
119	172	2
178	178	5
140	141	5
42	43	3
149	171	3
0	25	2
56	68	3
28	28	5
56	56	6
88	150	2
101	101	4
155	178	5
7	102	1
66	66	9
172	173	8
8	56	1
77	78	2
190	190	5
75	75	5
142	153	3
179	180	6
41	88	2
119	119	4
11	12	5
99	107	2
142	142	8
14	16	2
24	24	9
15	37	2
128	136	2
130	150	2
149	180	6
62	67	1
54	55	3
169	170	4
64	64	4
150	155	2
18	108	2
10	19	1
187	189	1
96	147	4
185	185	5
30	90	4
52	55	3
82	82	3
8	16	1
121	122	3
114	115	10
127	153	5
127	165	2
24	29	1
54	68	1
183	183	4
92	124	2
146	157	2
141	142	4
93	94	3
17	18	1
57	58	6
14	17	2
73	90	2
25	26	2
169	177	5
66	83	2
78	79	4
62	101	1
135	135	5
128	135	2
91	124	3
71	107	4
122	162	2
111	112	1
122	123	3
48	66	2
1	2	2
22	26	1
0	24	1
97	99	2
104	104	7
96	96	8
57	109	2
22	24	1
74	74	9
33	78	1
123	124	5
44	139	3
137	157	2
102	109	2
161	163	3
9	12	5
109	110	4
98	98	6
127	147	1
111	111	5
101	102	7
77	83	6
29	30	2
138	139	4
23	24	3
122	164	4
84	85	3
92	94	1
169	169	5
34	36	1
69	69	2
163	164	2
181	181	2
114	117	2
188	188	3
132	133	2
65	106	2
80	116	3
46	65	1
67	68	2
48	68	2
114	114	7
103	110	2
37	37	9
10	56	2
105	106	1
107	108	2
4	55	2
68	68	2
135	161	2
67	83	1
53	55	1
66	67	1
91	91	3
56	107	5
139	145	1
13	25	2
4	80	8
72	108	1
135	145	1
58	85	1
140	142	1
8	66	1
160	161	2
149	149	4
180	181	4
179	179	3
27	28	3
152	189	1
14	19	1
66	106	2
12	107	1
58	83	1
160	160	3
52	68	4
72	100	1
54	67	2
18	18	3
110	147	3
146	146	1
87	138	1
168	181	1
29	33	4
171	182	3
63	85	1
45	45	5
149	151	2
12	83	2
57	67	1
70	97	4
11	57	1
14	14	5
57	63	2
102	110	1
11	55	2
70	107	1
22	80	3
106	107	2
147	149	4
23	35	2
131	131	5
155	180	2
29	34	2
171	180	1
30	30	1
22	36	1
151	180	1
185	186	1
5	78	1
74	76	1
166	167	2
163	165	1
149	154	1
32	48	2
105	107	1
20	104	1
146	147	1
142	144	4
55	104	2
44	44	4
162	164	1
172	185	1
35	35	1
81	85	1
150	154	2
121	171	3
156	158	2
9	10	1
18	107	1
10	11	3
171	172	1
44	45	2
65	68	2
57	83	5
9	19	2
125	127	4
6	7	3
170	170	2
178	181	4
104	116	1
38	110	1
31	89	1
52	104	2
47	104	1
88	90	1
63	65	1
2	2	2
76	77	1
170	188	1
54	65	1
74	77	1
71	100	1
64	65	1
20	81	1
105	108	1
91	126	1
111	113	1
17	36	1
96	97	5
0	1	1
57	57	2
28	29	3
17	17	1
163	167	2
159	160	1
117	118	1
58	86	1
80	81	2
88	89	1
80	115	3
1	58	1
117	183	1
127	161	2
105	110	1
43	43	2
12	18	1
137	138	1
187	187	1
54	66	2
86	136	2
93	130	2
127	152	4
130	131	2
82	97	1
100	100	1
137	137	1
72	97	2
149	156	1
32	36	1
65	66	1
46	64	1
38	39	1
186	187	1
40	65	1
134	137	1
93	95	1
127	159	1
81	116	1
155	155	1
41	45	1
85	86	1
15	34	1
73	94	1
33	48	1
20	82	1
87	90	1
8	60	1
125	178	1
26	27	1
163	171	1
157	168	1
19	63	1
6	8	1
176	177	1
