188	190	2
127	127	6
100	127	2
140	140	4
38	38	9
150	150	12
67	68	2
103	103	6
101	102	7
75	76	7
95	95	18
139	159	1
79	79	9
111	111	3
169	170	5
185	185	3
151	151	6
176	176	1
131	131	5
47	48	10
118	118	12
152	175	1
143	144	7
121	121	7
177	177	9
112	113	1
136	136	6
73	74	5
81	85	2
79	80	5
53	54	3
24	48	3
16	37	3
14	23	8
88	88	8
64	64	11
13	13	2
40	40	9
139	140	5
123	123	7
186	186	10
120	121	3
113	113	4
174	174	6
45	45	4
5	5	8
96	96	2
30	30	7
84	84	6
6	6	6
23	23	3
175	180	1
153	153	4
82	82	6
1	1	12
184	185	4
25	25	4
153	165	2
45	46	2
101	103	3
89	89	4
162	162	5
101	101	9
107	107	5
77	77	10
56	57	7
136	140	2
72	72	7
134	134	6
130	130	6
7	8	3
114	114	4
90	90	3
0	0	9
48	48	2
120	120	9
128	129	4
124	124	11
87	87	7
7	7	7
184	184	6
58	58	8
3	3	2
10	10	5
106	106	10
60	60	5
24	25	2
43	43	5
142	142	7
29	29	5
76	84	1
8	37	2
140	141	4
154	154	9
36	47	4
55	56	10
9	11	1
104	104	9
78	79	9
101	141	4
135	136	2
91	141	2
55	57	3
133	134	5
70	72	3
36	36	8
188	189	1
178	178	6
147	147	8
37	37	8
70	70	3
167	169	4
98	98	4
11	11	5
157	162	1
187	188	1
67	67	2
32	32	5
19	19	5
85	85	11
10	72	3
136	172	1
102	102	2
17	17	5
166	185	2
71	71	4
184	186	2
8	8	8
104	105	2
26	48	5
83	84	3
129	130	6
95	100	3
86	115	2
17	111	3
152	157	1
85	106	1
26	26	5
128	138	2
64	65	2
18	18	8
123	154	1
122	122	5
65	65	5
84	118	4
139	139	11
170	170	1
74	77	1
15	16	4
112	112	5
16	17	7
27	28	4
149	149	3
136	137	2
173	178	3
87	88	2
125	150	2
16	16	2
87	140	1
174	175	1
61	61	2
14	15	1
109	127	4
47	47	3
152	153	7
39	39	2
46	46	3
87	89	2
180	180	3
95	96	10
92	93	4
110	110	1
108	108	2
99	138	2
35	36	2
161	161	7
85	86	2
169	169	1
115	115	6
86	109	2
116	116	2
129	129	7
94	95	1
124	151	2
158	158	3
74	75	2
175	175	2
31	31	5
15	15	7
12	12	3
116	117	4
93	94	2
165	168	3
115	129	3
6	7	2
86	86	6
39	85	2
109	109	4
93	93	5
41	42	6
159	171	2
24	24	5
97	98	5
134	148	2
84	85	2
27	27	1
127	128	2
90	141	3
119	119	2
160	160	4
166	169	1
104	106	1
43	45	5
171	171	5
92	92	3
176	178	1
129	149	5
162	165	3
98	104	3
63	65	2
32	33	4
179	179	2
138	138	4
72	73	1
4	6	4
81	81	5
159	159	1
17	36	2
158	180	1
78	78	9
41	41	5
153	159	2
99	99	5
22	24	1
138	139	4
33	33	6
146	146	3
164	183	1
125	139	1
79	107	2
34	34	1
42	42	4
137	138	4
68	74	1
183	184	2
125	129	3
78	80	1
4	4	5
69	69	1
141	141	1
190	190	6
73	73	7
155	155	3
180	185	3
79	127	1
146	151	1
129	148	2
149	161	1
66	66	4
44	54	4
110	127	1
144	144	2
68	68	5
13	14	3
98	128	1
173	174	4
88	139	2
175	183	3
117	117	1
166	166	4
125	126	1
92	135	1
91	91	5
182	183	4
23	160	2
165	170	1
19	20	1
108	123	2
91	92	3
150	151	1
11	109	4
173	173	3
54	54	6
135	135	1
83	110	2
156	156	2
149	151	2
41	48	4
146	147	1
62	62	2
134	135	2
110	124	1
155	156	4
164	167	1
98	100	1
88	89	1
15	174	1
38	39	1
107	110	2
82	83	2
113	114	1
149	150	3
61	62	2
157	177	1
23	24	4
172	172	1
92	106	3
36	37	1
63	63	2
62	65	2
135	157	1
11	12	2
65	74	1
139	157	1
112	137	2
54	55	1
85	110	1
60	69	1
38	108	2
94	94	7
19	24	1
80	81	2
126	126	1
125	154	1
106	108	2
154	173	2
18	36	1
2	2	4
145	148	2
34	35	1
103	141	2
167	167	3
109	110	1
142	143	1
44	68	1
70	71	1
108	176	2
55	55	2
42	43	4
83	88	1
157	157	1
63	64	2
106	107	2
14	17	1
41	108	1
10	11	2
14	14	4
147	148	1
152	152	4
44	45	2
168	170	1
138	143	1
159	175	1
138	140	1
86	114	1
92	98	3
151	152	2
74	74	1
90	91	1
121	143	2
168	176	1
115	118	2
35	35	1
131	174	1
105	106	1
121	122	4
44	67	2
59	61	3
151	173	1
156	158	3
143	143	2
167	168	1
29	30	2
37	48	1
179	185	2
161	162	1
53	53	2
105	147	2
22	22	1
128	148	2
85	87	2
128	128	1
42	44	3
33	43	1
119	140	2
38	88	2
91	94	1
137	137	4
5	6	2
41	56	1
98	99	1
144	148	2
28	28	1
1	3	1
67	73	1
180	183	1
165	165	1
87	96	1
13	16	1
73	87	1
172	173	1
125	152	2
151	154	1
84	104	1
171	172	1
18	20	1
