44	44	8
3	3	16
38	38	10
22	23	11
59	59	7
5	6	20
73	73	25
2	2	29
3	4	5
65	66	2
1	2	15
30	31	5
14	14	4
63	65	2
24	25	12
19	25	5
23	23	13
63	63	9
43	66	3
5	5	26
1	38	1
13	13	11
9	9	20
38	56	9
27	27	12
40	40	24
43	47	7
64	65	9
30	30	36
24	27	3
7	8	9
61	61	15
58	58	6
20	20	17
62	62	13
71	71	9
32	32	9
5	59	5
13	68	4
34	34	13
29	29	20
6	12	1
52	53	4
69	70	3
51	51	12
24	24	19
68	70	4
34	37	1
1	1	9
53	53	11
6	6	20
2	10	1
18	19	5
7	7	32
25	25	28
48	52	3
12	13	3
58	59	7
20	21	8
70	70	6
51	52	2
48	54	4
18	18	6
23	27	2
41	41	7
41	57	1
11	12	6
21	21	28
22	32	2
72	72	11
0	29	3
29	30	10
53	54	1
68	69	7
10	10	16
74	76	2
28	28	16
4	4	19
8	8	14
20	25	5
73	74	1
57	57	17
21	55	4
54	54	13
68	68	10
52	52	20
4	5	7
62	63	3
12	12	18
5	72	1
49	50	9
48	48	10
26	26	10
26	27	12
39	56	4
30	34	5
69	69	8
10	11	9
49	49	12
50	60	4
33	33	5
75	76	3
35	35	10
30	43	2
67	67	8
76	76	2
32	49	4
7	60	2
57	60	2
74	75	8
77	77	9
0	0	6
19	19	13
61	63	1
12	19	1
13	14	4
36	36	2
74	74	6
39	42	1
3	59	1
6	74	1
18	24	1
31	31	18
11	11	15
6	8	6
35	37	4
45	45	7
41	42	3
60	60	9
23	24	3
71	73	2
66	68	2
42	42	18
52	54	1
35	39	3
46	46	6
2	3	3
39	43	2
67	77	6
67	69	1
64	68	2
6	76	2
0	38	1
47	54	3
44	67	3
64	64	6
9	76	1
41	68	5
43	44	6
39	40	1
34	35	4
48	50	4
63	64	7
37	37	10
2	4	1
44	45	6
34	45	3
47	47	7
27	30	2
41	56	2
24	28	1
57	59	2
8	13	1
11	20	2
2	71	1
21	23	2
1	39	2
56	56	11
23	29	2
35	36	3
65	65	3
36	37	3
34	36	1
61	62	4
39	41	1
34	46	2
75	75	8
22	53	2
36	38	1
3	6	2
10	57	1
37	38	2
47	55	3
49	51	3
41	58	2
59	61	1
22	22	7
28	34	2
19	21	1
3	8	2
57	58	1
72	73	4
22	28	4
1	18	1
47	65	2
43	43	1
32	48	1
33	46	1
38	47	1
36	39	2
39	39	3
33	36	1
28	29	2
21	22	3
25	27	1
1	3	1
22	54	1
14	31	2
66	66	1
70	71	7
55	55	2
25	28	2
22	55	3
24	50	1
14	30	1
59	74	2
1	27	1
20	33	1
4	6	1
10	58	2
27	28	2
25	26	1
66	67	2
14	42	1
54	55	1
18	42	1
10	59	1
