38	40	2
76	77	9
90	90	17
69	69	13
50	51	7
74	74	10
93	93	6
94	98	2
50	50	17
81	81	4
70	71	8
85	86	4
38	38	4
88	88	13
32	52	1
32	32	13
44	45	7
98	100	1
64	64	10
40	40	12
72	72	15
44	44	12
36	36	5
63	63	28
97	97	3
44	67	5
79	79	17
51	51	8
42	42	11
75	75	10
98	98	6
95	96	2
83	83	8
73	73	12
90	91	3
67	82	2
100	101	2
60	61	5
99	99	14
101	101	12
79	80	4
70	70	10
92	92	17
84	97	1
86	86	9
29	33	2
95	95	10
96	96	9
42	43	3
47	99	1
27	27	3
60	60	10
48	48	14
30	51	6
77	78	7
61	65	2
86	90	3
65	66	6
46	47	3
33	33	6
88	93	2
39	39	8
49	49	12
63	67	1
76	76	7
54	54	11
78	78	12
86	87	4
66	66	6
59	59	15
55	56	1
48	51	2
62	62	9
77	77	7
36	37	8
89	89	5
55	57	5
46	46	4
69	70	9
22	22	4
52	52	6
68	81	2
45	45	6
84	101	1
73	74	2
41	42	3
68	69	6
68	68	12
67	67	11
41	41	16
57	58	8
58	58	7
83	84	2
86	88	3
79	81	3
66	68	2
52	53	9
23	23	5
70	82	2
54	55	10
58	59	5
99	100	7
92	93	6
94	94	6
84	84	5
85	89	1
23	28	4
49	58	2
49	62	2
78	79	2
31	31	7
71	71	6
87	88	5
34	34	1
41	43	2
69	71	2
25	29	2
61	61	8
24	25	4
28	28	3
87	87	4
64	66	1
82	82	2
64	65	2
45	46	1
59	76	1
37	37	2
85	85	5
80	80	2
65	65	7
72	73	4
55	55	12
24	24	1
56	56	3
88	89	2
91	92	4
27	28	1
78	80	5
67	68	5
91	91	7
96	98	1
80	81	7
46	49	4
71	72	4
78	81	1
71	80	2
81	84	2
25	26	3
53	53	2
51	52	1
43	43	6
35	47	4
35	44	4
96	97	6
26	53	1
25	25	2
47	48	1
102	102	5
62	63	1
53	54	1
101	102	2
39	40	1
89	90	5
61	62	4
49	50	1
60	73	2
78	91	2
74	75	3
36	38	2
62	65	2
48	49	2
24	26	2
46	48	2
75	76	1
82	83	1
87	89	1
57	57	1
97	98	5
94	95	2
43	44	3
32	33	1
73	75	1
94	96	1
20	24	2
63	71	2
31	48	2
99	101	1
26	28	1
60	62	1
71	73	1
58	67	2
37	38	1
66	67	1
84	98	1
20	20	2
40	41	2
26	26	2
35	40	1
95	97	1
29	29	1
72	78	1
89	92	1
51	58	1
93	100	1
36	40	1
52	54	1
