45	66	1
38	65	2
63	64	2
108	108	8
42	43	3
9	9	6
100	100	4
93	93	4
49	51	4
142	142	6
136	136	1
90	90	7
38	38	2
14	48	1
105	105	6
113	113	7
74	74	3
163	164	3
124	124	3
12	12	5
45	45	4
102	103	5
13	56	2
10	10	4
1	2	2
145	145	5
23	23	10
114	115	3
97	97	5
36	36	4
16	16	4
87	87	2
68	96	6
68	80	1
85	85	4
89	89	5
12	13	2
82	105	2
116	129	4
27	27	3
42	107	2
50	50	4
39	40	1
115	124	3
166	166	6
152	153	1
78	78	3
35	41	1
14	15	4
138	138	4
170	170	1
123	123	6
93	94	3
52	52	6
42	42	1
113	114	8
162	162	3
129	129	2
1	1	4
9	12	2
41	42	1
157	157	2
28	28	3
169	169	3
69	69	6
102	102	1
89	90	4
133	134	2
49	49	4
132	132	3
21	90	2
77	78	3
149	149	3
33	34	3
7	7	1
7	8	2
14	14	3
83	83	4
76	76	1
82	88	2
155	160	3
43	43	2
121	121	2
99	133	2
54	54	4
55	55	2
46	100	1
18	18	4
152	152	6
97	100	1
94	94	7
146	163	1
163	165	3
15	16	4
44	49	2
112	112	4
79	79	2
99	99	2
39	39	2
165	165	3
161	162	3
40	40	3
16	17	2
153	153	1
6	6	6
5	19	1
161	161	4
91	91	3
18	47	1
71	92	2
54	55	6
33	35	6
5	6	2
24	24	3
11	12	2
118	118	5
128	128	3
110	110	2
146	146	2
111	112	2
85	98	1
151	151	3
63	63	1
56	56	7
72	72	4
130	130	2
68	68	1
12	93	4
104	127	5
156	156	2
99	100	3
140	140	1
46	46	5
25	25	1
48	48	2
82	82	3
4	4	3
1	43	1
70	92	1
22	22	2
155	156	1
98	98	3
38	41	1
4	5	2
119	119	2
46	103	2
23	89	1
67	67	1
80	80	1
71	71	2
163	163	1
96	96	2
81	81	2
146	147	1
86	86	3
53	83	1
159	160	1
0	2	1
1	42	1
44	46	2
165	169	4
84	84	1
151	152	1
164	164	3
160	160	3
75	84	1
76	84	3
48	49	2
74	76	2
92	92	2
13	17	1
13	26	1
19	19	2
39	41	2
62	62	1
53	53	3
11	11	1
1	55	1
75	75	2
101	101	2
137	137	1
112	113	1
101	128	1
134	134	2
50	51	1
117	117	1
102	136	2
5	5	1
0	1	1
135	135	2
24	90	1
115	115	3
10	12	1
37	37	3
127	127	1
44	45	2
56	57	1
70	70	2
109	109	2
164	165	3
37	93	1
110	111	1
168	169	1
103	127	1
65	66	2
2	2	1
17	18	2
142	143	1
23	86	1
26	26	2
126	131	1
91	92	1
15	15	1
134	135	1
0	0	1
24	27	1
103	104	1
51	51	1
82	84	1
148	156	1
122	124	1
69	74	1
69	70	1
27	41	1
