31	31	6
111	111	10
29	29	12
146	151	2
144	146	4
104	104	8
131	132	5
142	142	7
150	150	11
67	67	2
115	115	11
131	131	12
68	68	8
83	83	9
56	56	2
92	93	5
126	127	3
99	99	8
6	6	9
79	79	5
121	121	7
105	105	5
25	54	3
125	137	4
50	50	2
2	2	13
43	43	7
23	23	8
41	41	8
156	156	7
30	105	4
18	19	5
15	15	11
108	109	1
45	45	12
138	138	11
42	43	2
75	76	3
39	39	3
92	92	11
124	126	3
66	67	3
88	112	1
116	116	10
129	130	2
87	87	4
21	21	2
152	153	2
72	72	2
134	139	4
102	102	5
125	125	7
12	12	6
145	151	1
86	86	7
131	134	2
70	70	3
130	130	6
8	8	4
42	50	3
7	7	5
110	111	7
146	147	3
10	10	3
101	101	14
7	27	6
128	129	4
2	26	3
120	120	3
32	32	8
122	122	5
75	75	12
151	151	11
20	20	5
5	6	2
142	155	3
115	116	1
11	11	8
1	1	14
54	55	2
36	36	5
126	126	5
123	138	1
153	154	5
79	81	1
118	118	3
135	135	2
44	45	2
152	152	4
21	25	3
56	57	5
26	104	1
143	143	10
7	53	3
3	51	4
95	100	4
77	77	14
98	98	14
100	100	25
141	141	4
13	13	2
157	159	5
94	100	3
51	51	5
127	127	4
64	64	3
95	97	1
85	85	5
100	129	4
6	23	1
14	21	5
123	124	2
42	42	16
47	47	3
78	140	3
52	53	3
125	126	3
67	71	2
141	142	2
111	112	6
113	115	3
13	15	2
5	5	17
65	65	6
66	66	3
35	37	1
148	149	3
52	52	4
2	44	4
100	116	4
119	120	2
48	49	4
139	140	1
25	26	4
99	100	3
83	84	1
7	8	8
88	88	8
110	115	1
81	82	5
46	47	5
151	152	2
147	148	3
148	150	2
114	114	2
48	48	7
97	98	1
27	27	6
3	3	13
97	97	4
123	123	1
73	73	12
130	131	4
98	100	2
128	128	3
135	137	8
33	33	8
14	15	3
95	95	2
136	137	1
28	29	8
82	87	3
117	140	3
0	1	5
28	28	3
93	94	2
37	37	7
69	69	6
3	5	1
158	158	3
2	3	2
74	74	2
30	87	3
155	155	9
38	39	1
46	46	3
108	108	2
135	147	3
54	68	1
104	107	1
30	31	1
30	30	3
135	136	1
16	16	2
35	49	1
148	152	1
22	22	1
36	37	7
34	34	4
41	46	4
102	116	2
80	80	1
24	25	3
19	21	1
134	142	1
129	138	4
118	139	1
139	139	5
35	35	4
18	41	1
146	146	3
40	40	7
145	147	1
71	71	3
9	43	4
33	34	3
132	132	4
29	150	2
84	85	3
90	91	2
84	84	6
110	110	10
107	107	2
40	41	4
126	149	1
55	55	3
124	134	3
28	130	1
9	9	6
152	154	3
147	147	3
51	65	1
91	91	5
144	145	5
3	13	2
68	71	1
113	114	1
117	117	5
26	26	1
125	129	2
28	30	1
144	144	6
155	156	2
53	53	6
116	128	1
25	33	2
38	49	1
50	71	3
148	148	2
131	150	2
71	79	2
104	115	1
130	132	1
94	94	1
47	56	2
63	64	1
118	120	1
49	49	1
108	111	2
132	135	1
131	135	4
134	134	2
9	10	3
27	92	3
149	154	2
57	133	1
65	66	1
144	150	1
94	95	2
30	79	2
88	89	2
110	122	1
0	0	6
116	117	2
129	129	5
118	141	1
66	68	1
29	30	1
0	29	1
73	74	1
62	63	2
149	150	1
1	29	2
51	52	2
118	119	2
31	123	2
17	18	2
80	81	1
135	140	2
4	4	2
44	44	2
10	11	5
37	49	1
107	108	5
136	147	1
12	50	1
106	110	2
25	123	1
129	151	2
120	121	2
75	81	1
63	63	2
78	79	1
5	56	1
21	44	1
27	28	4
66	72	2
57	57	1
105	106	2
114	121	1
53	125	1
3	50	3
93	93	2
68	69	2
24	92	4
96	96	2
38	38	4
14	14	2
121	133	2
104	106	1
63	91	1
18	50	1
89	89	4
50	51	2
38	50	3
25	32	3
134	135	1
103	104	3
133	134	2
34	35	1
80	120	1
66	70	1
32	33	1
52	56	1
0	63	1
73	87	1
47	48	3
8	9	2
109	109	2
138	139	1
112	122	1
55	100	1
0	5	1
77	78	2
137	138	1
25	25	3
67	69	2
24	24	1
136	136	2
86	96	2
154	154	1
81	120	1
27	30	2
17	17	4
87	88	1
27	115	1
43	45	1
109	111	1
26	110	1
153	153	1
23	128	1
109	110	1
17	34	1
31	32	1
20	40	1
