38	38	15
135	135	25
129	129	24
91	93	2
120	121	8
99	100	3
28	28	26
133	133	18
2	2	17
77	78	2
110	110	13
34	35	7
132	132	37
89	89	19
7	8	8
29	30	12
130	133	5
128	129	11
118	118	19
121	121	10
30	30	28
80	123	2
112	112	9
83	83	4
81	121	2
111	111	23
107	107	16
94	109	1
118	119	7
93	110	3
128	128	25
22	23	7
90	90	13
127	128	4
16	31	2
91	91	22
108	108	12
99	99	5
115	115	13
3	3	14
136	136	37
6	6	11
119	119	24
8	8	15
80	80	13
76	103	3
112	113	8
130	131	5
139	139	29
75	76	5
138	138	19
29	29	8
120	120	22
103	103	15
116	129	1
131	132	4
98	102	1
81	84	9
103	106	2
13	13	7
83	85	7
140	140	10
124	124	20
113	113	20
24	24	20
122	122	27
27	27	4
16	131	1
4	22	3
81	82	12
108	109	9
79	79	26
24	120	4
73	73	8
88	88	16
20	21	9
131	131	21
4	38	3
4	4	20
17	18	7
72	73	9
93	93	26
71	75	2
127	127	35
89	110	4
114	114	23
86	108	4
19	130	3
90	91	4
16	17	4
36	36	11
1	102	2
12	14	2
126	126	27
130	130	35
10	11	9
5	5	14
34	34	14
121	122	13
113	115	9
11	12	8
9	12	5
33	33	16
17	17	14
16	16	14
10	10	13
3	101	3
31	31	8
134	134	42
27	29	2
108	119	1
72	72	11
77	77	5
124	125	9
20	20	12
36	37	5
37	37	14
25	26	10
79	80	5
23	23	20
102	119	3
27	30	2
37	38	3
81	83	3
7	27	2
0	1	1
90	124	3
117	117	8
125	126	9
100	104	1
95	95	24
5	81	1
133	134	4
105	105	15
79	115	4
137	138	7
105	107	5
106	107	4
108	113	5
12	12	10
84	85	6
106	106	13
86	86	8
74	74	12
82	88	7
21	26	3
125	125	12
26	32	1
92	92	5
3	4	8
78	82	2
11	11	14
14	26	1
5	6	5
20	108	4
136	138	3
19	19	12
77	103	5
8	10	2
11	32	4
87	87	15
94	130	6
92	93	6
15	15	16
137	137	24
94	101	1
102	102	20
83	84	8
91	128	3
82	82	8
114	131	3
126	127	9
106	108	5
71	74	3
12	24	3
123	123	17
97	122	3
16	138	2
114	115	6
139	140	6
100	100	9
28	29	8
18	125	2
22	22	10
71	71	9
108	115	1
13	14	5
32	99	5
109	109	11
97	100	2
25	25	15
119	120	8
28	31	5
35	35	19
4	5	3
113	120	6
123	127	1
100	116	2
100	101	2
32	33	2
11	25	5
9	9	12
92	96	3
121	123	2
13	23	6
85	122	2
1	1	15
109	114	6
90	125	6
93	131	2
132	133	5
36	77	2
71	72	3
20	24	2
10	12	7
24	27	3
105	106	9
107	112	8
104	104	16
26	26	5
101	120	1
74	75	9
5	8	3
109	119	2
75	119	1
134	138	3
8	9	8
98	98	11
80	93	3
15	17	1
21	22	6
6	7	1
68	68	1
77	104	1
0	0	7
21	100	1
37	138	2
115	129	7
116	116	32
13	15	2
118	122	3
21	21	8
106	113	2
84	84	4
98	99	1
78	78	18
73	76	6
18	106	2
76	77	4
12	93	3
96	96	14
92	94	6
18	18	14
102	103	5
119	122	4
127	129	2
81	81	15
92	110	5
7	7	13
85	92	1
22	24	3
83	86	2
117	118	1
134	135	3
80	102	3
80	86	2
88	124	4
110	111	11
107	115	1
1	2	2
76	89	4
77	79	2
74	78	7
116	117	4
14	14	7
136	139	5
3	38	1
102	112	2
29	31	1
2	3	5
104	122	1
109	112	2
20	123	1
87	103	6
82	87	2
115	116	1
91	124	2
101	101	8
0	101	1
85	101	2
124	126	2
136	140	2
131	133	3
75	75	13
35	97	8
76	76	3
2	5	2
94	110	3
122	123	4
14	20	4
32	32	10
87	88	10
18	19	3
103	104	2
73	77	1
76	88	6
104	106	5
89	130	3
114	119	1
108	110	1
115	118	2
75	97	1
11	24	1
9	11	4
88	92	2
117	123	3
124	135	1
135	139	1
123	129	2
36	138	1
79	84	2
135	136	3
85	120	2
78	79	3
82	85	4
72	81	1
68	73	1
112	119	4
30	38	1
5	80	4
88	95	2
93	94	3
128	140	1
2	79	3
7	69	2
101	103	1
23	26	2
80	83	2
97	97	4
136	137	1
113	118	3
15	137	1
129	130	1
80	121	4
77	112	3
100	111	3
130	132	3
87	104	6
77	102	1
26	27	1
3	124	5
86	103	4
3	19	1
21	27	1
126	131	2
104	112	4
95	130	1
130	135	2
79	106	1
19	24	1
33	34	2
72	75	1
113	122	1
80	84	2
131	140	3
124	129	3
91	92	2
115	117	1
85	85	3
80	101	5
101	124	2
3	100	2
77	85	1
95	112	2
86	88	1
31	32	2
16	28	2
117	122	2
15	24	1
15	21	2
75	123	2
88	93	1
15	16	1
15	26	1
98	100	3
8	12	1
113	114	3
10	24	1
94	95	1
14	15	5
31	37	2
101	102	1
24	121	1
88	101	2
30	31	2
104	105	2
2	4	2
97	98	3
93	96	1
14	19	1
23	77	1
131	135	2
1	4	1
116	126	1
117	124	1
24	25	3
75	77	2
131	134	1
89	128	1
29	132	1
24	26	1
112	118	1
88	94	1
96	97	1
0	3	3
4	18	1
101	117	1
108	111	1
12	21	1
83	102	1
2	124	1
23	24	1
33	99	2
27	38	1
19	94	1
73	79	1
82	121	1
19	21	2
13	20	1
91	127	2
102	118	1
94	111	1
106	112	1
82	83	2
26	108	1
15	19	1
20	23	1
126	138	1
81	93	1
7	10	1
80	82	1
92	124	1
118	129	1
1	79	1
4	6	1
126	140	1
81	87	1
104	120	1
