87	87	15
124	134	2
118	118	11
69	69	14
71	71	9
56	111	3
105	105	13
56	57	3
107	107	15
60	60	11
62	62	15
113	117	4
43	43	19
112	114	3
12	12	4
111	111	5
119	122	7
130	130	18
109	109	11
122	122	11
6	26	1
53	53	8
21	21	11
75	75	16
114	116	5
88	124	2
67	67	5
98	98	11
122	124	4
131	131	18
34	34	14
125	126	4
56	68	3
119	119	5
7	7	22
85	85	17
3	4	10
21	22	2
13	32	2
122	125	11
106	107	7
57	58	6
96	96	5
55	56	5
88	88	19
20	20	15
42	43	3
55	55	27
113	116	1
63	63	8
24	25	8
130	131	6
77	79	1
21	26	4
124	124	20
52	114	3
69	109	3
11	129	2
102	102	32
132	132	19
2	2	4
52	61	6
66	67	10
3	3	9
113	122	2
11	13	3
82	87	5
122	123	6
118	122	1
30	30	7
84	86	4
50	78	1
32	33	8
105	106	4
77	84	1
33	34	13
76	76	14
52	52	19
14	20	3
84	84	10
22	23	2
120	121	3
129	129	13
96	98	2
117	117	10
106	106	9
85	91	2
83	85	5
117	118	6
69	108	1
44	44	11
112	125	1
77	77	13
114	114	10
126	126	22
10	14	3
84	85	4
129	134	4
133	133	10
45	45	21
65	65	18
116	116	12
11	20	1
108	108	9
84	111	1
44	110	2
0	1	1
6	6	3
55	110	3
15	15	8
72	72	14
81	81	9
86	86	9
76	99	2
54	111	2
83	83	6
92	92	10
95	97	3
97	97	12
56	119	4
70	91	1
82	82	13
37	37	10
65	126	5
19	19	10
113	113	8
125	125	10
121	121	14
26	26	11
66	66	5
20	107	4
86	110	6
13	133	2
80	80	9
106	124	2
68	68	10
115	115	13
101	101	13
78	79	8
91	91	14
92	93	5
104	104	14
86	92	2
1	1	3
93	93	15
67	117	2
16	16	8
45	50	2
14	28	1
112	119	2
79	131	3
11	11	13
95	95	13
90	99	1
115	124	2
70	70	9
44	58	4
128	128	14
17	17	8
117	122	1
123	133	4
49	49	7
80	131	3
116	132	3
99	103	5
74	75	4
90	92	3
16	23	3
48	68	2
95	98	4
134	135	5
98	99	2
64	130	5
113	119	8
44	121	3
126	129	3
47	48	3
52	117	2
8	8	2
77	87	1
59	60	6
49	50	12
72	79	4
103	128	3
79	79	9
134	134	1
24	34	2
119	125	2
19	107	2
63	118	1
56	56	7
112	113	6
94	94	8
4	4	8
50	50	15
135	135	1
33	33	5
44	51	2
71	76	2
124	132	4
53	106	3
53	65	2
83	108	5
56	58	1
63	64	5
100	100	20
29	29	10
2	3	5
107	108	1
73	73	16
46	47	2
64	118	7
126	127	6
113	125	2
14	14	6
102	103	3
19	30	1
129	133	2
116	117	4
28	28	2
97	98	6
122	132	1
43	44	1
13	13	5
25	25	8
103	104	1
90	90	13
45	51	4
54	66	1
57	57	8
83	130	1
32	32	3
9	10	3
55	60	2
67	109	2
84	107	2
45	67	3
59	59	7
22	59	2
23	26	3
115	116	2
54	62	1
45	46	2
73	81	1
83	86	1
125	130	3
65	67	3
26	27	3
70	73	3
4	5	5
65	120	1
91	99	1
120	125	1
89	89	6
95	96	1
109	111	1
43	106	4
74	74	8
48	48	3
96	97	1
103	103	6
38	110	1
122	133	5
127	127	7
56	60	2
24	26	2
61	61	6
83	84	3
94	95	2
36	36	4
78	78	13
64	64	6
112	115	2
96	108	1
75	103	1
52	115	1
56	122	3
84	87	1
54	55	7
8	36	5
54	64	2
112	122	1
38	38	4
114	115	6
119	126	2
56	66	4
91	92	5
70	72	1
64	86	2
50	52	1
53	114	3
17	21	2
113	115	2
93	104	2
25	38	2
35	35	4
112	112	3
24	24	5
9	36	2
63	83	2
62	105	1
100	108	1
36	37	4
26	36	2
99	99	4
51	51	3
22	22	11
54	54	10
8	15	2
87	88	3
31	31	4
7	8	2
68	98	1
70	71	2
127	128	6
50	61	1
53	115	1
45	111	2
69	70	2
58	58	3
15	132	2
133	134	8
0	37	2
45	118	4
63	125	5
85	86	2
21	33	1
68	69	1
89	90	2
47	90	2
111	112	1
110	110	6
126	128	3
48	59	2
58	60	2
52	53	3
45	120	1
123	125	2
51	119	4
5	5	8
34	130	2
79	80	4
71	79	1
109	110	4
60	61	2
55	68	2
53	118	5
54	75	3
72	134	2
98	104	1
121	123	1
118	119	3
87	100	1
73	74	3
108	109	3
58	69	1
45	113	4
12	13	4
16	33	1
38	87	1
54	59	1
96	99	3
121	122	1
94	100	1
96	100	2
87	107	1
53	69	3
9	15	1
76	105	2
31	32	2
54	117	2
57	59	2
82	114	2
106	116	2
116	121	1
53	113	1
30	32	3
107	117	3
123	123	6
92	97	2
47	50	1
27	27	5
82	90	1
61	62	2
3	28	2
16	17	2
50	105	1
46	51	1
7	30	2
76	78	1
112	117	2
18	18	4
124	135	2
67	118	1
36	132	1
113	114	2
120	120	8
44	47	1
116	126	1
48	49	1
54	60	2
23	23	10
17	29	2
4	6	2
108	111	1
19	106	2
66	86	1
58	59	1
119	120	2
83	100	2
82	83	2
125	133	4
16	105	1
65	68	2
65	66	1
110	111	1
116	122	2
72	78	1
48	78	1
55	67	2
38	83	1
121	125	1
114	124	1
56	67	1
50	79	2
21	29	1
78	94	2
69	78	2
24	36	1
112	116	1
108	117	1
116	118	4
86	106	1
18	19	1
11	127	3
77	95	2
1	2	1
77	78	2
7	105	1
10	10	3
2	31	2
109	119	4
5	6	2
67	68	1
55	102	2
10	11	1
9	18	1
82	113	1
71	72	1
69	102	2
9	9	2
19	20	2
124	130	1
44	45	1
123	124	1
14	102	1
118	123	1
80	95	1
44	48	1
108	130	2
84	108	4
9	14	2
90	91	2
119	121	2
71	104	1
29	31	1
59	62	1
22	105	3
82	85	1
8	9	1
130	132	2
16	25	1
93	94	2
81	109	2
0	30	1
45	48	1
70	76	1
68	97	1
106	125	1
80	81	1
52	105	1
87	124	1
62	125	1
71	98	2
74	104	1
115	128	2
80	123	1
81	108	1
10	15	1
13	134	1
66	68	1
11	15	1
57	106	1
56	59	1
71	75	1
86	88	1
64	66	1
120	128	1
53	56	1
113	123	1
7	18	1
8	37	1
21	23	1
82	99	1
60	62	1
42	42	1
126	134	1
14	130	1
113	124	2
71	73	1
101	105	1
83	106	1
133	135	1
65	84	1
54	56	1
75	76	1
119	124	1
107	125	1
66	82	1
