38	38	2
147	147	2
90	90	24
13	122	1
126	126	2
34	36	1
83	83	4
75	75	8
128	128	6
172	172	2
169	170	4
159	159	11
145	145	1
94	94	4
117	120	3
72	73	6
109	109	3
2	2	4
70	73	1
150	150	10
118	120	4
165	165	3
82	83	1
72	94	2
100	111	3
119	123	3
127	183	2
16	19	1
43	44	9
84	84	1
105	106	4
71	73	1
63	65	3
129	129	13
141	141	3
84	85	8
79	79	7
127	127	1
30	30	5
65	65	7
142	142	5
135	137	3
123	123	13
139	139	8
107	107	3
48	48	1
113	113	1
70	70	9
132	133	6
179	179	1
187	187	5
162	162	4
101	101	2
84	100	2
95	112	2
146	146	2
166	168	2
3	23	2
80	80	5
3	4	3
170	170	11
122	123	8
7	7	1
166	166	12
120	121	3
25	26	4
164	164	7
76	76	10
112	112	1
104	107	1
10	123	2
121	122	3
116	116	2
124	186	3
33	33	3
160	171	1
45	46	4
21	21	7
160	162	4
130	131	1
153	153	6
41	41	2
12	12	1
92	94	2
54	54	5
126	127	5
142	144	1
177	177	2
114	129	1
164	168	1
92	93	3
24	27	2
119	119	1
189	189	1
42	42	10
182	182	3
24	24	5
58	63	2
180	184	3
43	43	4
122	124	1
16	16	2
176	176	1
171	171	3
58	59	3
77	77	3
87	87	1
9	9	6
149	150	1
23	126	1
28	31	2
140	140	9
131	134	2
140	141	6
166	170	4
110	110	2
77	80	6
3	3	3
40	40	7
106	106	6
99	99	1
28	28	3
118	118	5
103	103	3
95	108	4
134	134	1
183	183	4
122	122	1
46	46	7
47	47	2
137	137	3
15	15	5
21	22	2
96	97	1
71	74	3
0	0	3
63	63	5
133	135	2
88	139	4
23	24	4
42	44	1
168	168	6
179	187	2
45	45	1
53	56	2
53	55	2
154	173	2
90	91	1
124	148	4
148	184	1
7	124	1
76	88	2
26	26	3
108	112	3
74	75	6
157	157	3
131	133	2
102	103	2
44	44	3
82	82	5
11	11	3
94	95	1
64	64	1
66	67	1
53	54	3
95	95	1
180	183	1
6	8	1
180	189	1
124	126	1
134	137	1
139	140	2
91	91	2
1	1	5
74	95	1
33	115	1
89	89	2
180	180	2
29	29	2
40	41	2
73	74	1
111	112	2
104	116	2
151	152	2
167	168	2
91	137	3
114	115	1
149	149	2
138	138	1
80	81	1
20	26	2
61	68	6
22	22	3
54	55	2
27	27	5
35	35	2
44	47	1
123	153	1
154	176	3
125	125	4
70	76	3
14	15	1
38	39	3
168	169	2
13	14	3
169	171	1
143	143	3
148	148	2
140	144	1
39	39	2
122	183	2
28	32	1
69	70	2
132	135	2
100	106	1
15	16	1
19	19	1
17	18	1
1	2	2
69	113	1
24	30	1
100	100	2
121	178	3
127	128	1
75	76	1
147	177	2
154	156	5
100	101	1
133	138	2
70	110	2
99	101	1
70	72	1
132	132	1
58	61	3
181	182	1
130	133	2
179	180	1
91	138	1
12	13	1
142	143	2
102	114	1
36	132	1
8	24	1
123	146	2
66	66	1
105	107	2
25	25	2
98	110	2
74	74	3
23	30	3
23	23	4
70	71	3
97	98	1
93	111	1
169	169	1
7	33	1
88	88	1
171	172	3
108	108	2
126	183	1
134	135	1
130	130	1
71	92	1
163	180	1
81	81	2
168	170	2
135	136	1
156	158	1
9	10	2
112	113	1
114	170	2
124	124	1
136	169	1
55	58	1
47	48	1
71	71	1
87	88	1
55	55	1
6	6	3
5	5	1
61	61	1
123	125	1
147	166	1
33	34	1
184	184	1
40	67	1
61	65	1
20	21	1
173	174	1
90	111	1
91	93	1
8	8	1
6	38	1
106	109	1
97	103	1
166	187	1
180	185	1
56	56	1
