135	135	13
94	94	22
39	39	21
10	10	12
68	69	12
75	75	10
102	105	3
47	47	14
45	45	16
39	92	2
28	84	3
74	81	1
136	137	13
146	147	7
58	63	3
96	96	20
36	36	20
37	37	10
106	106	11
76	76	9
53	53	25
147	150	3
43	43	20
68	68	8
18	19	16
7	34	3
44	44	10
3	16	1
89	92	3
18	18	16
96	97	5
63	63	4
132	132	8
13	13	15
9	9	21
126	147	1
33	77	3
81	82	2
11	14	1
8	8	14
128	128	14
49	74	1
22	22	19
129	129	4
108	108	4
29	29	23
153	153	5
42	42	2
48	48	18
49	73	2
37	85	2
76	79	2
154	154	4
33	36	2
111	114	1
5	62	3
3	3	13
142	142	9
3	31	1
62	65	2
51	51	9
149	150	2
32	33	23
15	15	12
69	69	4
7	14	2
98	116	4
81	86	6
55	56	5
82	86	8
85	87	4
75	76	10
150	152	4
44	45	2
132	134	2
6	53	1
99	105	1
44	46	14
111	127	1
32	101	1
83	83	17
21	22	6
113	113	1
88	90	6
21	21	13
81	120	8
85	85	17
19	19	16
144	145	10
131	131	23
112	113	4
71	71	10
35	35	9
93	94	14
26	26	14
95	97	2
49	51	3
37	54	2
81	81	18
12	26	4
3	5	3
113	114	6
151	151	6
49	50	8
23	23	9
110	111	2
24	24	4
38	39	13
119	119	8
117	117	8
43	46	1
17	47	2
34	37	2
52	72	2
104	105	4
103	103	13
25	25	20
55	55	10
7	7	19
23	25	2
132	138	8
66	71	1
99	99	11
4	4	25
148	148	5
6	7	9
3	11	1
39	41	5
28	81	2
102	102	12
66	66	18
43	44	9
29	30	7
38	38	13
34	34	9
33	33	10
32	56	4
8	9	11
41	42	9
123	130	3
96	98	4
87	87	26
98	99	8
50	52	4
50	64	4
79	79	6
138	138	6
106	116	2
85	112	1
37	53	5
118	118	13
27	28	14
104	104	5
131	138	3
16	23	5
109	109	4
24	30	2
152	153	3
100	117	6
147	147	8
94	137	3
82	121	2
97	97	16
42	43	21
54	55	7
72	73	3
106	107	1
79	120	4
73	73	23
37	57	5
5	5	23
5	12	2
108	111	4
62	63	4
17	17	11
64	64	18
121	138	7
69	70	7
122	133	4
18	21	7
35	81	3
30	148	4
84	86	5
95	98	11
31	32	7
8	10	4
99	106	5
103	104	9
64	65	7
133	134	4
67	82	3
125	132	2
52	56	1
104	106	3
34	35	6
84	84	15
123	126	3
26	35	3
53	54	8
136	136	2
33	57	1
124	124	6
9	11	6
17	18	8
84	85	6
103	111	1
110	110	3
31	31	15
108	109	6
136	139	12
93	98	3
109	110	5
100	100	7
84	120	1
48	49	5
30	30	9
97	98	14
94	95	4
36	57	5
57	57	14
82	82	16
21	23	1
23	27	2
79	82	2
16	17	5
87	90	2
128	129	1
63	64	2
80	80	8
41	63	1
78	78	10
75	77	7
111	111	2
142	143	11
93	105	3
102	103	7
73	79	2
36	37	3
83	84	13
150	151	3
121	121	8
96	102	3
22	23	7
7	12	1
130	130	7
11	11	17
74	74	9
48	51	1
49	49	10
95	95	8
141	143	4
134	134	4
15	16	10
120	147	4
41	117	2
87	88	6
121	129	4
93	104	5
150	150	7
35	36	3
74	82	4
67	67	13
36	38	2
120	120	2
117	118	5
121	122	14
74	129	2
124	126	2
39	70	2
37	38	4
19	20	4
4	5	9
146	146	12
125	125	2
46	47	8
139	141	4
62	62	2
97	99	1
5	6	6
36	56	4
35	50	4
49	67	3
65	65	8
122	122	8
143	143	2
63	65	2
137	137	8
25	26	10
8	17	1
7	62	5
48	55	4
79	80	2
141	141	6
28	32	2
98	98	3
34	51	4
139	146	2
139	139	1
6	6	8
123	123	4
12	14	9
64	131	4
65	66	7
127	127	5
14	15	7
66	67	7
37	39	1
115	115	8
66	78	3
6	55	8
72	72	4
50	50	9
148	149	2
104	107	3
5	11	2
27	27	9
124	125	3
38	40	1
41	41	8
50	96	1
49	52	1
103	105	2
77	114	3
43	62	1
7	18	2
70	70	5
31	101	4
22	25	4
141	142	3
82	83	10
20	21	9
8	50	2
51	52	1
87	89	2
47	50	6
111	112	8
29	56	3
9	10	6
71	119	2
35	71	1
30	136	7
112	112	4
39	53	2
145	145	14
122	138	1
152	152	6
77	77	11
131	135	1
86	86	7
17	20	1
14	14	17
83	120	6
31	99	3
37	56	5
107	107	6
19	21	5
12	12	7
11	12	3
39	50	1
74	78	5
36	55	5
41	43	3
17	29	1
16	16	17
115	117	5
33	46	1
126	126	2
86	87	3
24	25	3
75	86	1
56	56	4
10	11	2
52	52	1
31	36	1
147	148	4
101	101	6
79	81	3
9	12	5
83	85	3
125	126	2
37	100	1
39	57	2
13	14	7
114	114	5
125	127	3
73	74	2
47	49	2
71	73	5
50	63	1
135	144	2
105	106	9
98	110	3
108	113	1
78	86	1
39	40	4
71	83	1
6	16	2
7	13	3
149	149	5
4	6	6
25	149	1
35	37	4
46	46	7
45	46	6
76	77	5
138	139	1
100	103	1
8	72	2
153	154	1
24	152	5
111	139	2
95	96	1
2	2	3
88	140	2
42	46	4
92	92	7
71	118	1
25	27	3
21	26	1
80	81	3
40	40	7
105	105	9
11	28	1
67	70	4
16	22	5
34	36	1
54	142	3
47	152	2
120	121	3
76	85	1
108	137	1
120	123	4
32	36	4
79	111	2
67	128	3
93	93	7
99	103	2
14	20	2
16	27	2
10	12	1
67	68	1
54	54	3
8	43	3
100	102	3
39	142	3
77	86	2
5	7	3
76	94	2
55	57	3
145	150	5
98	106	2
129	130	3
30	51	1
74	75	1
132	137	3
39	55	1
119	137	1
120	125	1
144	146	2
68	124	1
136	145	2
93	99	2
16	19	2
136	144	5
144	144	3
33	38	2
8	70	1
25	66	2
9	15	4
64	138	2
30	147	3
133	144	2
140	142	1
69	74	6
15	27	2
37	52	5
14	23	1
35	51	1
4	64	1
110	113	2
65	67	6
78	85	1
136	138	5
29	50	1
80	82	4
34	58	2
32	32	11
20	20	11
7	8	2
13	25	1
131	132	3
124	137	5
17	35	1
89	109	3
38	84	5
102	104	1
20	24	3
57	58	2
94	111	2
53	63	1
127	130	1
132	149	1
133	140	2
18	56	1
49	78	1
11	33	2
139	144	3
75	78	1
42	123	1
134	135	3
138	148	1
35	38	1
67	122	1
13	15	6
63	128	7
76	93	4
121	148	1
32	131	1
33	93	3
68	80	1
28	30	1
141	151	1
38	46	1
38	49	3
28	28	2
78	125	2
105	110	3
67	74	2
32	148	3
28	29	3
12	13	3
76	87	2
7	11	1
133	133	4
93	121	1
110	115	1
74	77	1
40	41	8
20	23	4
115	118	1
73	75	1
94	96	2
136	146	1
116	116	6
73	78	1
65	68	2
66	128	5
122	123	2
81	83	2
89	90	3
34	53	4
135	136	2
75	83	1
3	41	1
10	30	2
10	14	1
93	103	1
29	63	1
32	51	1
18	22	2
137	138	4
14	22	1
147	149	3
64	77	2
28	63	3
123	133	2
77	128	2
61	61	1
61	62	1
130	133	2
12	39	1
12	27	2
33	58	1
127	129	1
26	27	3
37	40	1
75	85	1
13	24	1
27	29	3
77	84	1
39	144	2
14	28	1
94	112	1
58	65	2
37	70	1
26	81	1
8	65	1
78	120	1
38	42	1
14	27	1
83	111	2
34	63	2
50	51	4
149	153	3
96	114	3
34	85	2
98	105	1
15	26	1
19	23	1
3	28	1
126	127	2
14	30	1
85	86	1
133	149	1
143	154	1
85	119	1
54	141	1
138	144	1
24	26	2
30	131	1
75	120	1
90	90	1
133	145	1
70	71	1
65	80	1
140	141	2
13	54	1
104	109	1
22	26	1
9	68	2
31	57	2
75	79	1
13	53	1
134	152	2
9	62	1
119	121	1
104	111	1
86	92	2
113	129	1
13	18	1
139	140	1
112	128	1
48	52	1
10	61	1
94	97	1
50	53	1
43	45	1
121	123	1
33	127	2
33	64	1
87	138	1
71	75	2
118	119	2
5	18	1
48	53	2
11	13	1
143	145	1
36	58	2
109	113	1
108	122	1
88	88	1
119	120	2
25	50	1
71	77	2
9	38	1
129	131	1
149	152	1
71	81	1
51	53	1
27	66	1
30	57	1
77	97	1
55	58	1
40	69	2
34	94	1
13	17	1
26	151	1
6	12	1
77	78	1
132	133	1
13	16	1
