8	8	16
22	22	8
75	75	7
54	54	5
41	41	11
37	37	6
30	30	5
146	148	5
118	118	7
48	49	6
104	104	10
14	16	2
33	36	5
128	129	3
94	98	4
78	78	14
124	129	2
27	104	4
89	89	2
7	7	1
102	102	6
68	68	5
6	6	6
46	46	14
46	96	4
147	147	4
21	21	8
42	42	11
10	11	3
82	82	4
33	34	6
61	62	1
34	34	6
70	70	12
66	66	3
93	93	5
119	119	6
13	13	5
10	12	6
22	90	1
95	95	6
106	106	16
10	10	5
72	80	1
14	14	6
121	121	7
137	137	3
40	40	7
55	55	7
137	144	2
103	103	5
56	57	2
43	43	6
55	56	1
23	23	5
44	44	3
131	131	6
26	27	3
97	97	7
26	26	12
20	22	7
133	136	2
79	81	2
129	129	3
12	15	4
63	75	1
36	36	7
90	92	4
3	3	2
132	133	1
64	82	3
58	58	4
22	34	2
63	65	3
77	77	15
87	87	12
84	111	6
27	28	5
43	44	4
39	39	10
62	64	3
74	80	3
95	98	1
42	104	1
85	111	6
153	153	2
116	116	10
63	63	3
2	3	4
112	113	2
15	15	5
146	146	4
80	80	4
94	94	4
27	27	1
140	140	5
97	103	4
68	76	2
115	115	4
66	68	1
25	28	2
135	135	2
35	35	7
52	52	2
49	50	2
54	55	2
18	28	2
18	44	1
31	33	1
38	40	1
20	20	7
76	76	4
25	30	1
41	43	6
23	39	3
110	110	5
152	152	4
149	149	8
111	112	7
57	57	8
9	10	4
150	150	3
32	32	4
21	30	2
18	18	4
114	114	9
71	86	2
81	99	1
14	32	3
17	17	11
29	29	4
93	99	2
33	33	10
45	45	2
17	18	3
53	54	5
70	75	1
77	78	2
112	112	2
24	24	2
56	56	7
49	85	5
12	12	5
145	146	1
17	19	1
139	141	4
32	34	1
28	28	4
124	124	6
52	133	3
16	103	2
130	130	6
65	65	2
67	67	3
64	85	1
133	133	2
100	100	6
31	31	7
96	108	4
96	105	1
21	23	2
53	53	5
86	86	6
50	51	1
76	80	1
4	4	3
145	148	4
67	68	2
40	48	1
147	148	2
80	82	1
42	43	3
29	30	3
79	79	8
92	93	1
41	135	1
48	70	2
16	16	6
9	9	5
4	5	5
97	99	3
93	103	1
12	13	3
63	85	3
16	18	2
20	21	1
72	73	1
93	97	2
83	86	4
93	96	3
85	85	2
62	62	5
75	78	1
56	133	1
21	25	4
23	75	1
80	86	2
80	99	5
81	82	2
99	109	2
65	71	2
68	69	1
95	96	4
106	110	1
34	35	2
22	23	4
77	85	1
25	25	4
83	83	1
154	154	1
142	143	3
41	53	2
121	147	1
17	96	2
76	85	1
25	34	3
141	142	1
109	109	3
151	151	1
75	94	1
134	134	1
7	19	2
64	67	3
40	41	1
71	71	3
145	145	1
38	38	3
44	68	1
87	88	2
108	116	1
120	120	1
62	82	4
128	128	1
77	81	1
88	88	3
94	99	2
80	98	2
141	141	4
152	153	1
131	134	3
64	64	2
39	40	2
8	9	1
3	4	1
73	77	1
62	85	1
24	31	1
139	140	1
97	105	4
143	143	1
144	144	2
33	37	1
50	50	1
123	123	3
95	97	3
68	86	1
74	74	3
137	147	1
73	85	1
13	14	3
75	87	1
19	19	1
77	80	1
126	126	2
113	113	1
32	92	1
5	6	2
75	77	2
103	108	1
86	99	1
76	81	2
9	11	2
47	86	1
71	77	1
109	110	1
15	16	2
71	73	1
144	145	1
92	97	1
127	127	1
25	32	1
107	109	1
14	15	1
142	142	1
125	129	1
48	48	1
125	125	1
81	81	1
15	32	1
108	108	1
11	12	1
79	88	1
4	39	1
84	86	1
49	49	1
