1	1	8
167	168	3
5	5	6
23	24	6
30	30	5
63	64	3
76	76	5
94	94	3
100	129	2
85	85	3
97	156	3
174	174	13
54	57	1
175	175	4
119	119	8
25	25	6
144	144	11
52	56	3
44	44	5
177	177	9
110	111	7
31	34	2
42	43	3
0	0	6
147	148	5
32	32	7
36	36	12
6	12	4
163	163	17
95	95	7
37	37	10
59	59	5
43	43	9
15	15	15
153	155	1
68	68	4
81	180	1
52	52	1
6	6	6
156	156	3
107	107	1
11	30	2
80	81	3
26	26	3
25	36	3
11	11	5
57	57	3
89	96	1
35	35	13
21	24	2
10	31	2
150	150	8
78	79	1
13	25	1
43	44	3
137	137	4
133	133	5
79	80	2
1	2	7
106	106	4
42	42	18
161	164	1
139	141	4
18	19	4
118	171	1
116	117	11
7	7	4
29	41	2
64	67	2
44	45	3
149	149	2
45	90	3
108	142	2
53	54	6
18	18	2
66	66	6
129	129	1
116	145	1
132	132	8
3	18	2
40	40	5
24	28	1
122	135	2
153	153	8
10	14	1
2	4	6
3	3	2
13	13	13
139	139	4
87	88	3
169	170	2
76	77	3
111	111	3
92	143	3
102	104	4
24	24	6
51	51	8
71	71	6
18	30	4
126	126	5
9	9	9
84	88	3
58	58	2
105	106	4
95	169	2
18	28	2
4	4	4
17	27	4
157	171	3
63	66	2
6	42	1
79	79	1
112	113	3
158	159	2
34	34	7
28	28	4
40	41	6
50	51	2
10	10	8
41	41	10
99	99	5
26	27	2
39	66	2
152	154	6
173	173	1
116	116	1
115	117	1
81	82	1
38	38	2
17	17	4
153	168	4
80	82	1
73	75	5
54	54	3
43	49	2
55	55	7
50	50	3
90	90	2
176	176	6
14	17	3
145	145	2
75	75	3
89	90	2
62	62	2
53	53	6
149	150	4
123	123	2
139	140	2
101	101	5
167	167	9
108	108	6
151	151	4
141	141	9
70	70	6
100	100	3
147	151	2
17	36	1
83	84	2
50	57	2
104	104	1
7	15	3
147	147	9
16	16	7
31	33	2
140	140	3
121	123	3
98	98	8
73	73	3
125	125	6
96	96	10
23	23	4
168	177	5
91	92	2
118	119	4
93	121	1
88	88	1
162	162	1
33	33	8
93	93	2
83	83	8
130	148	3
68	129	2
121	121	7
1	31	3
162	164	2
23	39	3
138	139	1
166	166	3
170	170	6
29	29	1
117	118	1
168	169	3
40	42	3
170	173	2
42	64	1
170	171	3
180	180	4
20	20	2
56	57	3
73	74	2
82	82	6
89	95	1
8	8	2
152	152	2
11	12	4
1	35	1
23	45	1
14	14	6
150	152	2
149	170	3
102	102	3
45	45	2
28	29	8
130	147	1
131	131	4
64	64	5
166	168	2
3	4	3
53	55	1
31	31	3
12	12	1
138	141	2
143	143	2
36	39	4
38	39	8
32	36	2
5	6	1
54	58	3
45	46	1
132	133	3
81	81	7
170	172	4
126	164	1
14	15	2
16	17	1
86	88	1
39	41	4
114	115	2
165	168	2
33	34	3
77	83	5
171	172	2
118	127	2
17	35	1
22	22	4
28	30	3
135	136	2
114	148	1
18	20	1
64	65	2
160	160	1
91	145	2
127	149	2
103	104	1
145	146	7
127	127	4
71	74	3
137	139	2
86	86	2
179	180	1
134	134	4
62	63	2
110	110	5
41	42	2
124	124	1
38	40	1
127	129	1
5	15	1
60	60	3
91	99	3
161	161	1
95	102	3
11	20	1
103	105	2
152	153	2
157	157	3
78	82	1
18	25	1
159	159	1
36	37	1
61	61	3
16	34	3
120	120	2
49	49	1
42	66	1
172	172	1
107	108	3
109	109	1
36	38	3
91	93	1
10	11	3
34	35	1
13	16	1
1	14	3
178	178	2
95	103	1
100	101	2
173	174	1
89	89	2
6	7	1
25	27	2
179	179	2
71	72	2
6	18	2
65	66	1
61	63	1
172	173	1
130	130	2
35	36	2
127	128	3
21	42	3
61	62	1
144	146	1
168	168	1
91	178	3
60	62	3
146	147	2
138	138	1
27	27	1
30	31	2
136	136	3
112	112	4
92	93	1
141	142	1
122	122	3
22	23	1
77	78	4
96	97	2
177	178	1
10	16	1
92	92	2
67	71	1
106	107	1
19	21	2
52	60	1
128	128	2
39	39	2
31	32	1
148	148	1
15	16	1
2	3	1
4	5	1
63	63	1
44	64	1
171	171	3
114	114	1
13	14	2
99	102	2
25	26	1
125	127	2
16	21	1
153	154	2
154	156	1
0	1	1
165	167	1
115	115	2
123	125	1
2	2	3
29	35	1
37	38	1
19	19	1
118	118	1
135	135	1
93	96	1
108	132	2
66	67	1
136	137	1
147	150	1
140	141	1
151	152	1
112	133	1
97	97	1
157	159	1
113	113	1
44	46	1
78	78	1
