13	13	4
93	93	1
16	16	6
56	56	1
155	155	3
143	146	2
7	7	3
83	83	7
170	173	4
11	12	4
100	100	5
27	27	6
96	97	5
115	115	1
67	71	4
17	25	2
79	79	6
37	37	8
1	1	2
186	186	7
151	189	7
73	73	6
166	170	4
159	159	7
93	96	2
31	33	3
37	181	4
74	74	1
111	112	3
20	20	3
187	188	2
42	179	3
133	133	3
3	15	3
119	122	2
0	0	3
139	139	1
64	64	2
101	128	1
8	10	4
80	94	1
153	153	3
42	59	3
120	124	4
9	11	2
39	39	1
154	156	2
97	97	3
94	94	2
100	102	5
99	99	8
29	29	3
182	182	2
2	2	5
158	159	2
21	21	8
189	190	4
173	173	3
102	102	1
126	126	3
101	101	5
55	55	8
79	123	1
26	46	2
70	71	3
125	125	1
107	107	2
17	17	1
113	113	2
112	112	3
6	6	5
114	114	5
114	115	8
190	190	2
38	39	1
122	122	3
133	135	2
105	105	7
144	146	4
58	59	1
30	35	1
188	189	3
12	12	1
23	24	2
80	80	3
177	177	4
78	79	3
67	74	1
28	28	2
85	94	3
41	41	1
32	32	2
34	109	3
74	76	1
88	88	6
98	98	1
179	179	6
56	57	2
155	156	2
54	55	2
47	48	3
128	142	4
158	158	6
151	151	4
78	78	10
35	35	2
184	184	2
1	8	1
4	4	3
176	176	4
58	63	1
117	138	1
147	148	4
58	107	1
44	46	3
19	19	3
44	44	6
121	122	2
129	129	3
42	46	4
153	154	2
92	94	3
110	110	2
66	66	7
23	23	2
110	111	3
92	92	4
132	132	1
152	152	4
86	99	1
180	181	3
19	26	1
10	10	4
84	94	1
79	92	1
106	106	1
53	53	3
128	128	2
82	82	3
150	150	4
130	131	3
156	156	5
74	75	1
32	181	1
8	8	2
35	182	2
127	128	2
156	158	1
141	141	1
146	146	1
40	153	3
38	38	2
58	58	4
104	104	2
123	123	1
20	21	5
39	185	1
84	84	1
58	61	1
157	157	1
22	22	3
26	26	1
13	27	2
107	128	1
98	99	2
100	111	2
36	37	1
48	48	3
189	189	1
17	24	2
42	42	1
130	130	1
9	29	1
12	23	1
39	40	1
32	182	2
143	147	1
133	150	1
36	36	1
69	71	1
86	98	1
54	54	5
60	60	1
119	119	1
45	46	2
89	89	1
20	182	2
118	129	2
171	171	2
36	42	2
148	148	2
5	5	3
163	164	2
119	120	2
180	189	1
57	57	1
43	43	1
13	18	2
74	77	1
95	97	2
90	94	3
160	160	1
67	67	1
166	166	2
30	31	1
32	179	2
68	69	1
76	76	2
13	14	1
161	161	3
32	37	1
188	188	1
15	15	1
21	37	1
15	16	1
132	133	1
31	32	1
100	104	1
91	91	1
145	145	1
140	140	1
36	38	1
147	147	1
144	157	1
9	12	1
72	72	1
176	177	1
87	87	1
42	58	1
