28	28	7
141	142	1
134	134	6
187	188	4
125	125	2
1	3	2
234	237	2
5	5	10
127	127	7
63	63	11
62	63	3
10	11	5
44	44	6
84	84	4
3	3	10
191	208	1
50	52	5
231	231	12
114	115	3
167	170	2
95	95	3
55	55	16
180	181	1
163	163	9
9	10	2
33	36	2
104	105	6
233	233	6
180	180	13
5	31	2
135	135	5
36	36	15
86	86	8
41	41	4
32	33	4
176	176	7
4	4	7
32	156	5
111	111	1
200	200	5
196	196	6
233	235	1
69	69	14
212	212	3
5	13	4
45	45	8
223	223	19
152	156	4
40	42	5
201	201	6
62	62	7
11	14	1
187	187	14
7	9	3
12	206	5
207	207	11
40	44	2
212	213	6
22	23	9
40	40	11
156	156	4
231	232	5
42	42	13
3	51	3
73	73	4
9	9	12
52	52	5
229	229	9
29	29	19
208	208	12
194	195	3
133	138	6
51	51	10
182	182	5
97	97	6
189	189	4
183	183	7
35	36	3
2	2	5
209	212	3
81	81	8
25	31	2
8	8	11
216	216	8
179	228	1
199	199	13
230	230	14
72	72	13
146	146	11
140	142	2
10	10	12
139	139	8
183	184	5
220	220	9
161	161	8
103	103	3
64	64	8
178	178	4
156	158	1
162	162	3
167	167	4
213	213	5
33	33	8
200	207	1
66	67	2
159	159	3
102	102	2
96	96	4
2	3	1
105	105	10
198	198	11
211	211	10
202	205	2
184	185	5
0	20	1
6	6	6
20	20	10
0	242	2
46	160	1
99	99	3
196	198	1
157	157	3
20	21	3
0	0	11
67	67	8
136	136	2
48	48	14
59	59	12
39	39	10
202	202	16
221	222	5
31	31	4
17	17	5
225	225	4
25	27	2
171	171	9
34	36	1
27	28	1
101	102	1
214	214	9
73	74	1
30	30	6
7	8	2
60	60	8
181	181	3
48	49	7
70	70	10
160	160	4
209	209	6
44	45	2
83	84	2
53	54	5
166	166	2
234	235	2
197	214	1
211	212	1
140	155	1
25	25	5
121	121	11
211	221	3
234	234	5
47	47	1
138	138	5
18	19	3
82	82	9
154	154	4
81	95	2
195	195	3
229	230	6
147	148	6
11	230	3
74	74	4
123	123	4
36	37	3
50	50	8
186	187	5
34	34	2
144	144	4
170	170	8
61	67	4
234	236	4
87	87	4
227	227	8
57	57	6
140	151	1
108	108	1
179	200	2
136	137	3
11	11	8
106	106	2
186	186	5
37	37	3
119	119	5
127	130	1
237	237	8
56	56	9
240	240	9
26	26	9
129	138	3
104	116	1
226	227	5
206	206	7
116	117	2
40	43	1
72	73	5
205	207	2
27	27	13
102	103	2
120	121	6
1	46	2
52	54	3
24	25	2
67	68	4
222	222	4
103	104	1
89	89	3
78	79	3
22	22	5
126	127	2
150	151	2
177	177	3
171	172	3
103	105	1
24	24	7
160	161	2
65	65	7
109	109	3
5	7	4
73	135	3
225	227	5
122	124	1
162	163	4
21	21	6
165	166	2
163	164	4
60	100	2
170	171	1
169	169	4
3	32	3
135	137	5
233	234	3
1	1	7
184	184	3
16	16	1
177	194	7
226	226	1
21	22	4
21	23	4
179	179	1
153	153	8
98	98	3
154	155	3
23	23	2
17	19	1
62	66	3
35	35	2
128	136	6
49	49	2
164	165	4
214	215	5
4	14	3
39	177	4
121	122	2
58	194	2
113	113	4
173	173	1
31	34	1
12	12	7
46	46	10
149	150	4
145	145	6
232	232	5
74	144	2
63	66	1
167	168	1
3	16	1
66	66	6
113	115	1
7	30	3
232	236	2
228	229	4
8	9	6
76	77	3
19	19	5
12	13	3
19	29	3
78	117	2
43	43	3
13	15	1
228	228	6
174	174	4
158	158	9
66	68	3
192	192	2
15	31	2
172	172	5
15	18	1
23	24	1
40	206	1
130	131	2
38	38	6
215	216	4
218	218	6
29	30	1
85	85	7
205	205	5
135	136	1
221	221	4
76	83	1
24	71	2
120	120	2
148	148	7
181	182	2
176	177	5
41	205	2
8	11	2
30	31	2
159	176	5
10	240	3
18	41	3
210	210	9
132	139	1
127	128	4
185	194	1
13	13	6
153	155	1
168	170	3
200	201	3
198	201	6
114	114	4
39	191	1
182	220	1
54	75	1
65	66	5
61	61	6
210	211	6
100	163	3
50	51	4
101	101	8
150	150	2
164	164	2
99	113	1
176	195	1
177	178	4
126	126	6
47	72	1
219	219	6
30	113	2
68	68	5
31	32	3
209	210	3
236	236	7
34	35	2
1	24	2
165	168	3
220	221	2
37	38	3
72	74	3
71	72	3
42	204	2
140	141	3
221	223	1
155	155	2
35	157	1
2	7	1
48	51	1
215	231	2
147	147	2
14	14	3
141	141	2
156	157	1
239	239	6
154	158	2
218	225	4
3	29	3
75	113	2
61	62	1
105	106	1
24	40	3
99	101	2
13	14	3
15	15	5
76	76	2
129	129	5
97	98	1
151	158	2
168	168	2
28	75	1
225	232	2
64	65	1
4	32	1
204	204	5
25	26	1
215	215	2
1	29	2
8	46	1
242	242	4
20	22	3
214	230	1
182	189	2
175	192	4
14	229	1
185	185	5
235	235	3
14	19	1
151	151	2
11	36	1
1	21	1
41	43	1
0	44	1
65	68	3
175	175	2
80	120	1
110	110	1
164	175	1
107	107	4
137	137	1
210	213	3
241	241	1
50	69	1
128	128	1
58	59	4
24	45	2
68	69	3
32	32	1
197	197	3
213	222	3
58	58	2
30	128	1
232	234	1
6	14	1
61	63	1
135	138	2
62	64	2
165	198	2
188	188	3
14	15	2
82	84	2
71	71	1
75	75	1
218	219	1
40	176	2
144	145	1
99	100	2
217	217	3
236	237	1
12	208	1
85	86	1
180	182	1
183	220	1
2	31	1
40	214	1
54	69	1
224	224	1
53	53	3
56	57	2
78	78	1
6	7	1
88	88	2
29	55	1
9	20	3
54	55	2
238	238	1
226	228	1
88	96	1
122	122	1
42	175	3
2	36	1
195	196	1
165	165	2
124	124	1
238	239	2
61	75	1
11	208	1
125	126	2
155	156	2
179	184	1
191	191	1
58	63	1
12	18	1
131	131	2
107	108	1
227	230	1
169	185	1
83	83	3
38	112	1
95	96	1
214	216	1
149	149	1
43	44	1
194	194	2
18	18	1
161	174	2
196	197	1
135	141	1
190	191	1
184	186	1
128	129	1
207	208	2
204	206	1
208	226	1
