96	97	4
167	168	6
190	190	2
173	173	4
74	75	5
99	99	3
165	165	8
138	139	7
38	42	3
16	16	11
103	154	4
179	190	4
59	60	3
132	132	3
6	47	2
19	19	8
2	2	7
89	151	4
161	161	5
90	152	2
108	138	3
91	92	1
83	83	5
87	87	5
1	1	5
78	78	15
140	140	16
128	128	10
13	13	4
122	122	2
166	166	6
151	152	7
108	108	10
66	66	2
53	53	2
145	152	1
97	107	3
15	15	11
138	159	5
64	64	4
168	168	5
89	126	2
120	164	3
96	98	7
84	84	5
76	77	6
69	69	1
156	156	14
158	160	1
47	48	4
57	57	4
107	107	4
138	138	3
110	110	16
72	172	1
40	40	7
188	188	5
174	174	7
68	68	2
28	29	3
167	167	4
92	93	1
82	82	2
151	177	4
68	82	1
63	79	1
175	175	5
30	32	2
88	88	11
146	146	4
136	137	6
72	76	1
108	109	3
70	70	4
183	184	3
133	133	3
92	96	2
187	190	1
101	101	9
177	177	5
100	108	2
108	139	1
185	185	3
38	38	5
137	137	6
75	77	5
65	65	6
43	44	4
48	48	7
19	30	3
27	29	1
0	0	9
149	149	5
16	17	18
52	52	3
5	5	8
98	98	4
25	25	4
72	74	3
3	3	2
150	151	1
106	106	3
43	43	3
153	153	6
73	74	2
101	102	2
77	77	4
152	152	4
102	103	2
2	6	2
19	21	2
33	77	1
109	113	1
143	145	3
113	129	4
34	37	3
59	59	3
145	145	3
157	158	4
103	103	6
15	17	1
124	125	2
100	100	8
159	161	1
35	35	2
93	93	9
94	95	2
147	147	5
112	140	2
23	24	5
61	61	4
4	4	5
95	95	1
126	126	9
86	86	2
120	122	1
124	148	1
80	80	3
112	135	5
143	143	7
143	152	5
76	76	6
120	120	4
17	17	6
121	121	3
131	135	1
175	183	3
177	178	2
113	114	2
6	6	3
88	92	3
134	135	1
118	118	2
130	135	2
18	19	2
11	11	9
115	115	1
117	118	3
92	92	1
140	141	3
176	186	1
60	60	2
68	71	5
148	148	5
41	43	5
113	113	2
97	98	3
158	158	3
96	96	2
104	105	2
38	56	4
181	181	2
151	151	13
187	187	3
130	131	2
153	154	8
139	139	4
74	74	1
149	151	4
135	135	9
103	105	5
99	100	5
18	20	5
1	2	1
58	58	4
74	76	1
65	79	2
90	90	7
126	127	2
187	188	1
71	71	7
12	13	6
5	38	1
133	136	2
88	89	3
31	31	4
145	146	4
41	41	3
129	129	8
117	119	1
162	162	3
156	157	3
89	89	5
87	90	2
184	184	1
114	114	3
90	91	2
158	162	1
174	175	3
83	171	1
23	23	5
83	85	3
4	5	1
118	119	2
184	185	3
144	144	1
46	46	4
5	7	4
182	189	3
169	169	2
29	39	3
155	155	5
171	173	1
186	187	4
131	132	4
12	12	1
104	104	3
8	8	7
42	43	2
3	19	1
37	38	1
24	24	4
170	183	3
129	130	4
79	79	4
175	176	2
142	154	2
39	41	2
84	85	3
120	177	1
176	183	1
171	174	3
10	10	3
6	7	2
85	85	3
30	77	2
7	7	2
86	87	2
124	126	4
26	26	4
132	134	3
164	167	1
40	66	4
130	130	7
125	125	3
1	7	1
178	178	1
111	111	5
67	68	3
45	46	1
57	66	2
67	67	2
85	86	1
39	39	3
57	58	5
21	22	1
22	23	2
121	123	2
95	103	1
95	104	5
0	12	2
56	57	2
182	183	3
67	87	1
125	126	2
45	45	3
148	149	1
162	163	3
141	141	3
77	78	5
124	124	2
91	91	2
3	79	3
56	56	3
22	22	2
14	15	2
83	86	2
113	123	1
163	163	3
176	187	2
157	161	1
154	154	5
26	27	1
23	26	1
98	107	3
170	170	1
94	94	2
54	54	2
104	106	1
110	129	1
42	42	1
29	32	1
133	134	2
109	109	1
165	180	2
46	47	2
169	170	1
81	82	4
127	128	1
164	164	1
179	180	2
146	148	2
31	32	1
112	112	2
107	108	1
172	172	1
21	21	2
40	41	1
134	134	1
72	73	2
5	6	3
14	14	3
148	150	1
144	145	1
55	55	2
164	165	1
94	152	1
150	152	1
109	110	1
98	99	2
32	33	1
30	31	1
180	180	2
32	32	1
75	75	2
90	109	1
73	73	1
161	162	2
30	78	1
10	11	1
5	9	1
142	142	2
40	42	1
166	179	1
79	81	1
171	171	1
97	100	1
179	179	1
183	183	2
83	84	1
139	158	1
98	132	1
103	138	1
6	44	1
37	37	1
