101	101	7
122	144	1
97	143	6
31	31	11
1	1	17
113	113	6
75	75	10
81	81	7
42	42	5
17	18	3
119	121	5
132	132	1
7	7	15
133	133	5
14	17	2
103	103	6
45	103	1
30	30	6
108	113	4
127	127	7
48	50	2
0	1	3
108	108	3
2	17	2
147	147	9
7	12	3
103	138	2
66	134	2
86	86	3
53	53	2
39	39	2
146	147	2
154	154	6
120	120	16
72	85	3
64	110	3
41	41	6
36	36	9
123	123	2
157	157	4
19	19	6
154	156	8
81	82	3
22	31	2
99	99	6
109	110	5
121	122	2
129	130	3
82	82	6
122	153	1
25	25	7
68	68	5
107	107	10
125	125	4
150	150	2
33	130	5
120	121	2
93	94	2
137	138	1
8	10	1
151	151	6
126	127	1
15	50	3
50	50	7
2	2	10
109	117	1
130	130	9
56	68	3
115	115	5
93	93	12
97	97	6
73	73	9
6	19	3
11	11	12
54	54	4
44	44	5
78	79	2
111	111	4
34	35	2
36	37	4
26	26	11
111	112	1
4	79	2
64	121	2
100	100	8
42	67	7
9	9	2
4	4	8
111	114	3
18	19	9
6	6	6
10	38	1
78	122	4
145	145	5
72	72	2
138	138	3
145	146	1
155	155	3
39	41	2
135	146	5
87	151	2
25	80	4
31	49	1
56	56	8
106	106	9
33	35	2
28	28	3
148	148	4
45	98	1
67	67	11
15	35	3
103	141	1
22	23	3
35	36	1
107	142	2
27	27	7
107	112	2
116	118	3
11	12	1
131	136	4
95	120	2
17	26	2
80	80	3
112	112	2
71	71	4
94	94	6
105	105	7
96	97	2
7	9	5
5	5	5
21	21	7
124	124	2
95	96	6
51	51	10
19	20	2
12	16	2
109	111	2
49	108	1
94	134	1
136	136	6
63	63	4
152	153	3
106	107	4
113	120	3
24	24	3
3	3	6
47	47	5
48	95	3
77	77	1
127	128	2
93	150	3
12	12	3
89	95	2
112	158	2
156	156	7
71	88	2
66	71	4
131	132	5
9	10	5
89	89	1
64	64	6
23	23	7
41	115	1
49	68	1
37	37	6
32	32	1
140	140	4
141	141	4
150	159	1
33	34	1
8	8	5
78	78	1
78	93	1
0	0	2
17	17	1
34	34	2
65	66	7
77	95	2
24	25	2
117	118	3
134	138	1
25	130	3
124	127	1
84	87	1
8	11	4
104	105	2
28	40	3
3	4	2
6	40	1
107	128	1
48	49	1
135	135	2
78	83	2
45	45	2
13	13	3
38	38	2
107	113	2
43	43	4
97	123	2
108	109	1
134	134	4
150	151	2
78	121	2
110	110	5
84	84	4
121	121	3
144	146	2
91	91	3
110	113	2
78	103	1
84	85	1
88	88	1
109	109	6
15	38	3
29	29	2
46	46	2
86	87	2
158	158	6
65	65	5
85	122	2
98	98	6
14	15	3
116	120	1
5	34	1
9	54	1
131	157	3
52	56	2
37	52	1
18	18	6
31	32	1
40	40	7
35	35	2
106	138	1
46	102	4
20	31	1
15	16	2
50	52	1
10	39	2
52	53	1
148	155	1
132	133	2
90	90	5
8	9	2
20	21	4
68	70	1
14	14	3
68	71	1
104	104	6
116	116	5
46	116	1
7	8	2
132	156	1
16	16	6
81	107	3
8	12	4
120	139	1
70	70	1
15	53	2
122	122	3
141	157	1
57	57	1
137	137	5
65	153	2
91	103	2
119	120	1
98	99	1
145	157	2
40	43	3
149	150	2
13	31	2
104	151	1
153	153	4
19	26	1
114	115	3
139	143	1
89	123	1
19	25	1
27	115	1
33	33	4
55	66	1
67	70	2
22	48	1
79	79	3
96	96	1
33	131	4
106	111	3
134	137	2
102	102	3
129	129	5
139	142	2
139	140	2
33	137	1
85	86	3
128	128	1
119	119	1
38	39	1
123	124	3
92	92	2
111	138	1
26	101	2
152	154	4
14	22	1
83	88	2
92	96	1
15	37	2
18	20	1
83	84	2
38	48	2
123	135	2
80	86	3
13	37	2
5	36	1
29	30	1
127	152	3
92	93	3
12	13	1
27	91	1
20	20	1
48	67	2
132	134	3
22	22	2
66	66	1
131	152	2
145	147	2
135	136	1
45	46	2
80	92	4
145	153	3
136	137	1
97	142	1
114	114	2
129	158	2
42	48	1
35	132	1
42	43	2
90	118	3
152	152	3
10	19	2
152	155	1
32	35	1
33	158	1
38	53	1
120	128	2
127	151	1
48	48	4
11	55	1
144	144	2
117	117	1
15	15	1
62	66	1
28	29	2
144	147	1
95	104	1
98	104	2
131	131	1
107	137	1
30	31	2
133	134	1
23	152	1
127	155	2
86	89	1
9	11	1
12	25	1
46	158	1
112	138	1
155	158	1
107	108	1
100	101	1
95	95	1
81	104	1
77	89	1
92	145	1
130	156	1
138	157	1
138	158	1
131	133	1
143	158	1
80	83	1
129	151	1
77	78	1
126	147	1
49	69	1
137	144	1
110	126	1
33	36	1
149	149	1
146	157	1
23	115	1
143	143	1
20	22	1
126	126	1
35	131	1
74	100	1
54	55	1
55	71	1
52	52	1
119	140	1
81	87	1
71	108	1
50	121	1
145	154	1
139	139	1
113	122	1
145	152	1
23	24	1
97	105	1
82	90	1
56	70	1
