28	28	9
57	64	8
28	29	7
85	86	4
59	62	3
61	62	5
90	103	4
79	79	3
53	56	2
80	91	3
62	63	4
62	62	9
51	52	7
23	23	5
34	35	3
82	82	10
51	51	19
25	25	5
31	31	5
55	55	7
20	20	2
50	51	1
79	81	4
105	105	11
85	87	3
86	87	8
104	104	1
26	26	16
66	66	10
73	73	5
37	38	1
39	39	5
66	82	4
80	80	11
87	87	12
97	98	4
57	57	4
36	36	6
102	102	4
67	67	6
92	92	9
88	88	3
34	34	2
44	49	1
21	21	10
43	43	6
67	91	2
99	99	7
30	30	9
24	24	3
70	70	3
48	48	4
96	96	4
89	89	2
94	94	8
68	71	3
47	49	1
74	74	12
33	36	2
76	78	10
35	37	1
75	75	6
57	62	2
25	26	1
67	84	1
41	41	10
69	69	3
40	57	4
37	37	6
68	68	2
50	50	7
48	49	1
82	83	4
71	71	3
58	86	1
85	85	5
106	106	6
22	22	8
27	27	2
71	72	3
91	93	5
76	76	5
103	103	7
29	29	4
47	58	2
98	99	4
59	59	3
93	93	3
83	83	9
95	95	4
26	28	2
23	55	1
45	60	1
52	53	4
40	72	1
20	46	1
38	38	7
51	93	6
97	97	6
52	52	9
69	70	1
91	91	5
39	96	4
59	87	4
40	64	1
100	100	2
56	56	6
40	58	2
54	94	3
33	37	1
56	95	4
65	65	8
63	64	3
41	42	2
77	78	1
38	65	1
66	67	1
20	42	3
63	63	7
45	45	3
36	41	3
88	93	2
83	86	1
67	85	6
66	78	3
54	54	3
36	37	1
77	77	8
94	104	3
96	97	2
37	40	3
72	77	2
58	95	1
49	94	1
66	77	2
42	42	3
53	53	1
56	58	1
33	33	3
29	48	2
46	46	1
24	25	2
84	90	2
80	82	4
107	107	4
34	36	1
28	30	3
57	58	2
89	90	2
86	86	3
83	85	3
75	76	2
32	32	4
65	76	1
67	94	3
40	41	1
52	54	2
33	35	3
72	72	6
28	41	2
78	78	5
42	48	1
83	84	1
60	87	2
66	81	2
90	95	1
84	84	1
90	90	4
94	98	1
31	32	1
35	35	2
27	28	1
82	88	2
54	84	2
40	40	3
43	44	2
96	99	2
55	95	3
83	88	1
87	93	2
42	65	1
92	93	1
31	36	1
72	78	1
79	80	2
60	60	2
89	102	1
31	59	1
59	70	2
20	53	1
25	56	1
90	91	1
58	58	1
73	77	1
41	65	2
26	27	1
64	80	1
44	48	2
83	87	2
21	42	1
50	78	1
29	30	2
54	91	1
46	49	1
88	107	1
64	64	1
76	77	1
53	95	2
50	53	1
74	103	1
