1	1	6
148	148	11
11	90	1
115	116	3
15	16	6
139	139	6
0	0	6
39	39	5
8	8	13
14	15	2
55	55	4
88	88	5
26	26	9
81	81	3
44	45	11
25	25	11
15	15	7
144	144	9
126	126	10
16	41	2
21	21	10
103	103	2
11	11	5
167	167	4
99	100	3
43	43	23
134	134	2
120	120	3
151	151	6
76	77	1
17	17	7
130	130	7
14	14	4
113	113	11
110	110	8
41	41	4
13	14	9
86	86	5
10	10	7
56	56	8
137	137	5
90	90	11
133	133	5
71	71	7
12	12	6
33	34	3
110	112	2
86	87	1
158	158	6
152	152	7
20	20	12
68	68	1
19	19	3
8	89	2
155	155	6
80	111	5
119	119	2
136	136	9
6	6	6
22	22	3
126	158	1
64	64	3
124	124	3
137	138	1
108	108	9
72	72	7
82	82	6
44	44	7
2	2	9
33	33	5
141	141	13
35	35	23
89	89	10
47	79	4
7	7	8
16	16	8
114	158	2
155	156	3
13	168	1
146	147	3
149	149	8
92	93	2
114	114	6
102	102	6
166	166	1
9	9	10
122	122	3
24	58	1
131	138	1
53	53	3
164	164	1
140	141	2
49	84	2
136	137	7
5	6	5
87	87	4
140	140	5
133	134	6
52	52	4
93	93	9
146	146	8
135	135	10
36	36	5
117	117	9
3	15	2
45	45	16
107	107	1
35	82	1
113	149	1
8	19	1
118	118	7
21	24	1
40	78	3
46	46	6
108	159	1
69	69	3
143	162	1
101	101	1
90	91	4
112	158	2
21	23	5
96	96	5
145	157	3
3	4	2
51	51	2
138	138	7
154	155	1
117	118	1
165	166	2
19	20	3
147	147	4
34	71	3
51	52	6
45	46	2
128	128	2
72	73	3
4	4	12
116	116	3
113	158	2
70	71	2
41	42	2
105	105	2
162	162	1
53	130	2
39	40	5
125	125	8
13	13	5
20	27	1
12	14	2
107	108	4
11	12	1
143	143	3
111	111	2
106	107	2
87	88	1
155	157	1
166	167	2
54	54	1
97	98	3
5	5	10
18	21	1
1	136	2
149	150	3
2	3	1
112	112	6
16	17	6
34	34	10
10	11	3
42	56	1
123	123	5
69	70	2
40	159	1
40	41	6
26	27	1
74	75	5
70	70	1
55	56	3
88	89	2
76	76	4
156	156	6
145	147	6
47	47	6
104	104	1
161	162	2
160	160	8
45	47	1
103	105	2
2	15	1
20	41	1
76	81	1
56	57	1
4	11	2
145	145	4
137	140	2
23	23	3
74	74	2
153	153	6
1	2	4
100	100	3
78	79	2
106	106	2
38	53	2
82	83	1
42	42	8
7	10	1
127	128	1
27	27	6
10	12	2
6	7	3
73	73	2
50	51	2
76	113	1
50	50	5
170	170	2
144	145	2
38	72	1
80	81	4
34	37	2
22	23	1
40	40	6
79	79	1
160	161	1
13	24	3
28	28	2
169	169	1
52	57	1
154	154	3
80	80	4
84	85	3
41	46	2
81	82	2
129	129	1
109	109	3
168	168	2
148	149	3
16	131	1
165	165	3
92	92	5
131	131	2
26	43	4
150	150	1
127	127	6
161	163	2
118	167	2
34	35	2
161	161	4
62	62	1
76	106	1
12	90	1
132	133	1
24	26	1
19	169	1
144	157	1
63	63	1
140	166	1
42	43	3
27	28	1
36	38	2
64	67	2
78	78	2
18	18	5
26	135	2
27	36	1
25	38	1
99	99	2
21	22	1
130	131	2
74	76	1
38	38	2
98	98	1
156	157	3
27	42	1
7	8	2
4	5	1
110	111	1
77	77	4
37	37	4
16	38	1
109	158	2
0	1	1
55	76	1
91	91	1
121	121	4
24	25	1
24	24	7
20	21	1
50	85	1
16	47	1
126	152	1
111	126	1
112	113	1
132	132	2
82	145	1
144	163	1
3	131	1
139	140	1
100	101	1
115	115	1
83	83	1
57	108	1
53	54	1
69	84	1
75	75	1
49	49	1
76	78	1
11	48	2
41	53	1
11	52	1
153	154	1
157	157	1
36	42	2
23	24	1
153	160	1
94	94	1
105	106	1
163	164	1
163	163	2
159	160	1
42	53	1
