109	112	2
21	21	8
48	49	3
20	20	8
13	13	7
160	160	12
19	19	1
166	166	5
36	36	15
35	35	16
10	12	4
110	110	12
119	119	18
107	107	8
55	56	5
10	10	6
34	34	12
40	40	13
92	93	4
153	153	13
5	5	15
140	151	1
139	139	12
46	46	13
7	7	21
77	77	7
15	15	6
157	157	3
11	12	5
144	144	6
130	130	5
1	22	2
89	89	11
100	100	8
112	112	7
52	52	4
47	119	5
168	168	11
121	122	6
146	164	1
146	146	18
41	41	25
152	152	14
125	125	11
7	8	5
129	129	6
74	74	7
2	3	5
113	113	4
161	161	2
33	33	8
80	81	7
20	57	5
100	101	6
73	73	7
123	126	1
53	53	4
45	45	4
47	47	14
143	149	3
92	92	4
48	48	6
99	99	6
105	106	6
135	136	4
42	64	1
122	122	3
129	130	5
135	135	4
45	46	3
66	66	4
164	164	3
136	137	7
114	115	1
74	75	3
128	129	9
37	37	21
163	163	5
12	45	1
78	78	2
17	17	14
114	114	15
146	148	3
159	160	4
89	90	8
88	88	19
111	111	8
33	44	1
109	109	10
133	133	7
158	158	10
91	93	3
23	23	10
54	55	5
12	12	6
34	35	4
11	11	12
115	115	9
103	103	10
24	24	14
107	108	4
94	95	3
91	91	9
8	8	11
145	145	8
126	126	7
6	6	11
116	116	15
14	14	5
52	53	11
49	52	4
90	91	5
49	49	12
149	149	9
102	102	4
38	130	6
80	80	2
47	51	1
93	93	7
76	77	4
86	86	7
155	155	5
141	142	2
118	118	7
144	145	2
23	25	2
70	71	3
51	53	2
169	169	12
100	132	2
51	51	4
121	121	3
94	94	2
120	121	5
79	80	3
96	97	3
39	40	7
39	39	9
105	105	8
25	25	22
42	43	4
108	108	9
81	82	3
169	170	4
110	111	4
67	67	3
6	7	6
25	26	1
9	9	10
140	140	10
55	55	10
53	64	1
151	151	7
1	28	2
27	28	4
46	47	3
2	54	1
3	3	14
63	71	5
53	149	1
154	154	4
20	21	7
57	57	7
14	15	6
81	105	8
44	44	18
139	142	3
84	84	7
138	143	3
8	9	2
4	4	7
70	70	7
114	116	4
165	165	14
17	53	2
159	159	10
6	8	2
58	58	5
83	83	5
18	20	5
39	54	5
134	134	8
43	44	1
132	132	12
140	141	1
133	134	6
150	150	1
52	62	2
2	2	9
1	2	1
146	154	3
139	141	3
71	71	12
38	39	2
56	56	8
75	75	17
37	116	1
132	136	2
104	105	1
144	148	1
72	72	7
85	118	5
18	18	8
43	93	4
108	111	3
120	120	2
4	18	1
108	109	3
42	42	11
137	137	5
15	16	6
37	38	3
112	113	2
26	164	4
93	94	2
163	164	8
20	22	3
24	25	5
69	70	1
161	163	2
156	156	1
155	156	5
63	65	1
117	118	3
0	1	4
125	130	3
162	165	3
162	164	3
4	5	1
13	18	2
47	50	1
22	23	1
133	144	1
156	157	1
17	18	8
137	138	2
39	55	2
144	147	3
90	90	4
106	106	3
97	97	5
11	83	1
117	117	3
26	26	7
126	166	3
68	68	3
91	107	3
57	63	1
166	167	1
113	114	6
87	87	4
165	170	3
102	103	4
79	79	9
138	138	7
22	22	5
101	102	4
161	164	5
12	13	3
146	147	6
3	4	3
83	84	4
19	23	5
84	96	3
85	85	5
152	153	1
149	154	4
58	70	2
86	87	6
56	57	1
3	109	4
88	104	1
143	143	14
111	112	3
87	168	2
10	16	2
67	69	4
116	122	4
91	101	1
98	119	2
8	12	2
63	64	1
38	38	3
132	139	1
112	143	1
148	157	2
28	28	1
67	68	1
5	19	1
53	54	2
162	162	1
155	160	1
148	148	4
50	50	5
101	103	3
1	1	1
55	138	1
0	2	3
6	9	3
85	87	1
141	148	3
95	95	3
47	48	2
64	141	1
10	11	4
162	163	4
170	170	2
152	155	1
95	96	1
8	11	2
165	166	5
64	74	1
16	16	4
27	27	7
55	89	3
86	166	3
48	146	1
88	89	1
44	45	2
44	46	2
76	76	6
15	124	1
98	103	1
150	151	6
63	63	5
78	80	2
97	115	2
122	123	1
9	10	3
134	135	7
122	128	1
69	69	1
7	10	1
18	44	2
101	101	1
36	37	2
45	53	2
164	167	3
103	104	2
18	19	2
10	152	4
56	82	1
11	72	1
145	146	1
128	135	1
11	13	3
146	155	3
43	43	5
87	88	3
79	106	3
167	167	6
50	57	2
89	114	2
19	21	1
35	36	1
5	6	3
3	110	2
133	137	1
141	141	2
16	24	3
51	98	2
37	42	1
12	28	1
36	41	1
125	163	1
117	128	2
147	147	3
110	140	1
33	34	1
43	56	1
98	100	1
62	63	3
21	22	3
142	143	2
86	96	1
82	83	1
154	155	1
127	127	3
17	19	1
149	158	1
69	84	1
74	76	1
66	67	1
88	97	2
122	126	2
97	104	1
146	151	1
125	126	1
130	131	1
98	98	1
93	107	1
104	104	1
74	104	1
136	136	1
71	109	1
80	113	1
20	23	1
151	152	1
70	163	1
15	18	1
124	124	1
87	98	1
4	67	1
54	54	1
63	169	2
61	61	1
41	42	1
48	73	1
14	124	1
147	148	1
64	109	1
56	100	1
80	107	1
6	11	1
