72	72	11
100	101	2
46	49	3
97	99	3
56	56	3
44	44	5
33	33	30
42	43	9
31	98	1
69	70	3
24	24	12
51	54	7
46	47	5
35	36	6
64	65	16
40	40	7
55	55	16
83	84	11
38	52	1
25	25	4
102	102	12
95	95	8
103	103	18
21	23	7
60	62	4
22	62	4
60	60	4
105	105	11
94	96	2
29	49	2
58	58	10
70	70	9
96	99	7
62	62	16
104	105	6
76	77	13
86	86	6
59	60	8
53	53	21
22	23	8
23	23	28
27	29	1
73	78	1
37	37	21
57	57	7
91	100	4
54	55	2
72	76	3
20	32	1
49	49	8
95	96	9
73	73	16
75	76	7
98	98	6
28	30	4
21	22	7
45	54	1
35	35	9
97	98	8
100	100	7
67	67	5
27	38	1
93	93	18
76	76	14
59	63	1
81	81	14
51	51	13
46	46	3
80	81	10
34	34	9
76	92	5
54	54	14
23	24	5
21	21	7
45	53	3
87	87	8
38	38	5
94	94	16
24	56	3
83	83	12
50	51	3
88	89	9
45	55	6
70	71	4
65	65	9
77	77	15
50	54	4
78	78	10
86	87	3
65	67	2
89	89	12
82	83	3
79	107	2
101	101	16
47	49	1
24	58	2
75	75	19
64	64	8
92	100	5
74	74	11
39	39	14
73	106	4
37	39	3
90	90	12
71	79	3
31	32	9
56	58	6
91	93	1
43	44	2
92	92	8
102	104	3
79	79	10
52	52	7
55	57	1
87	88	1
50	50	11
22	22	9
82	84	3
73	81	3
91	91	8
63	64	3
53	54	7
78	97	2
44	45	1
90	91	3
52	53	13
31	66	3
98	99	4
28	29	7
36	36	2
26	26	7
31	64	3
97	97	10
33	34	2
25	29	2
85	88	1
61	69	5
103	106	2
21	40	3
48	48	1
27	27	2
71	71	18
84	84	9
99	99	15
104	104	4
52	56	1
74	78	4
96	96	8
31	33	4
21	30	1
81	86	6
92	106	2
58	60	3
32	37	1
58	59	1
68	69	5
69	69	11
89	92	4
45	45	7
51	52	3
70	77	2
66	67	4
20	39	1
59	59	8
66	66	7
103	104	5
40	45	1
38	39	6
47	47	8
22	25	2
70	78	5
43	43	4
81	82	1
29	30	5
73	74	6
21	45	4
86	88	1
85	85	8
82	88	3
67	68	3
28	28	8
101	102	2
29	33	4
20	40	3
65	66	5
48	49	4
72	74	1
41	41	2
71	72	10
88	88	1
77	91	2
32	33	1
61	61	6
56	57	2
51	58	1
23	62	1
63	66	2
74	75	2
20	20	9
99	100	4
27	28	1
31	70	1
37	38	3
39	43	5
72	79	2
31	31	7
25	39	1
65	68	9
45	51	3
103	107	4
49	52	2
88	98	1
93	94	2
78	81	5
26	27	1
100	102	3
33	36	2
31	39	2
30	30	4
54	61	1
76	94	1
44	50	2
70	74	3
82	82	7
74	77	1
80	80	6
64	66	3
21	44	2
81	89	2
77	92	1
106	107	2
32	32	8
29	29	3
25	32	1
54	56	4
42	44	2
24	37	1
92	93	1
55	56	2
51	55	1
52	54	1
62	64	2
57	63	1
84	86	3
96	97	3
20	44	1
36	37	3
20	21	1
91	92	6
24	25	4
20	49	2
84	85	2
64	71	1
44	71	2
53	74	2
94	99	1
58	61	1
34	35	1
73	75	1
21	39	1
32	36	2
45	46	2
30	32	2
89	90	3
61	62	3
72	92	1
78	79	2
91	102	1
37	40	3
72	91	2
62	63	2
82	89	1
68	68	1
72	75	1
60	61	1
56	105	1
89	98	1
61	63	1
58	66	1
47	48	1
93	106	1
73	77	1
63	63	1
34	52	1
54	60	1
101	105	1
23	37	1
21	25	1
92	101	1
106	106	1
24	60	1
32	72	1
33	37	1
