98	99	1
147	147	5
14	27	4
24	24	13
94	94	10
109	109	1
70	70	9
28	28	7
153	153	6
111	111	2
129	130	9
109	111	2
91	91	7
68	71	2
25	26	4
140	140	7
96	96	6
40	41	9
110	110	6
68	69	6
75	75	16
35	42	2
153	154	2
103	103	4
74	74	1
108	131	1
119	119	7
66	66	5
42	43	7
102	117	1
21	21	4
118	118	12
51	51	1
27	27	18
44	44	15
32	37	1
15	16	3
131	131	9
86	86	11
144	144	9
151	151	7
132	133	3
75	76	2
138	138	9
88	88	9
72	73	3
123	123	9
23	23	8
31	32	2
37	37	12
41	41	6
106	110	3
150	150	10
121	122	2
121	150	1
143	143	7
40	47	1
140	141	2
134	136	3
123	142	2
97	97	11
105	105	7
64	64	4
0	0	6
25	25	5
130	130	3
128	128	4
154	154	4
94	95	5
87	87	11
101	101	11
38	39	1
106	106	4
100	101	1
79	79	4
98	98	4
156	156	10
6	6	6
129	129	18
122	155	1
110	147	2
17	17	7
116	116	12
80	80	6
148	148	4
82	84	3
14	52	4
118	132	5
157	157	11
95	95	4
33	33	7
6	31	3
93	93	10
7	9	5
154	155	3
78	78	7
2	3	8
35	35	3
144	145	11
123	131	3
47	47	5
36	39	1
43	50	2
121	152	1
19	20	1
55	55	8
107	108	1
45	45	4
155	155	4
132	132	6
149	149	5
88	90	1
119	142	4
125	125	4
117	117	8
48	49	1
13	13	2
2	25	1
145	145	5
14	15	1
3	3	10
41	42	2
141	141	4
40	40	5
53	53	3
52	52	4
20	22	6
71	71	2
92	92	5
26	26	6
86	87	2
34	38	3
104	104	4
4	4	4
35	44	4
135	135	4
103	138	1
141	142	5
3	4	2
22	22	1
37	38	2
119	124	1
7	7	2
12	12	6
39	40	1
123	157	1
99	99	4
118	133	3
157	158	1
122	147	1
89	91	3
91	114	2
7	37	1
69	71	3
136	136	3
146	146	4
114	114	2
83	84	1
104	105	5
15	15	3
87	95	2
28	29	1
30	50	5
30	33	2
114	115	1
90	90	3
110	111	4
2	2	3
136	140	2
102	103	7
112	113	1
16	16	5
145	146	7
73	73	4
5	5	10
127	127	7
46	46	7
67	70	1
149	155	3
54	54	2
84	84	6
85	86	2
142	142	1
117	120	2
146	147	5
65	65	1
4	41	1
62	64	1
9	10	5
130	133	1
20	20	5
32	32	5
148	149	3
103	104	4
2	8	2
50	50	3
49	49	6
92	113	2
100	100	2
68	68	4
67	69	3
39	39	3
30	30	1
15	19	3
90	106	2
77	78	1
135	137	3
95	97	1
79	80	1
8	9	3
57	57	2
82	82	2
137	137	5
102	102	3
24	25	1
89	90	3
107	107	5
155	157	4
1	1	2
96	97	5
9	9	4
56	56	3
66	68	2
145	147	4
122	154	2
137	138	3
119	120	4
73	95	1
11	11	1
90	91	3
7	32	3
19	21	1
158	159	1
29	30	1
72	72	4
107	131	1
87	88	2
69	70	1
21	22	2
126	127	2
134	135	1
122	136	1
15	53	1
85	85	3
22	23	2
108	109	1
48	51	2
6	36	1
144	146	1
34	34	3
80	92	2
47	48	3
133	133	1
147	150	1
33	34	2
55	56	2
38	45	2
133	134	2
115	116	1
39	78	1
45	47	1
144	155	2
152	152	2
120	120	1
65	66	3
44	48	1
127	148	1
50	51	2
42	42	3
119	122	1
105	131	2
78	80	1
33	35	2
108	108	3
109	149	1
14	14	1
17	19	3
139	139	1
101	102	3
128	129	1
120	141	1
115	125	2
27	29	1
134	134	2
81	82	2
82	83	1
19	19	3
80	94	2
32	34	1
123	154	1
40	43	1
7	8	1
69	69	2
30	32	3
6	32	2
49	51	2
122	146	2
6	37	1
43	43	2
0	1	2
113	121	2
45	51	1
136	138	1
31	31	2
92	93	2
36	36	1
46	47	2
63	63	1
80	81	1
125	126	1
33	38	1
67	68	2
123	125	1
115	115	1
44	45	1
112	112	1
27	28	1
31	37	2
91	92	1
19	44	1
18	18	1
105	106	1
83	86	1
38	89	1
116	117	1
14	30	1
138	139	1
47	54	1
109	150	1
10	10	1
38	38	2
48	50	1
134	158	1
120	146	1
81	81	1
118	155	1
77	83	1
