113	114	10
85	85	16
80	80	22
73	73	15
171	172	13
149	149	45
129	130	14
119	121	3
66	67	11
170	170	31
107	108	6
143	143	15
163	166	7
66	91	1
158	158	18
3	3	11
140	142	4
147	149	12
141	141	8
31	31	19
154	154	33
27	27	15
139	140	3
59	64	11
11	12	13
74	74	24
140	140	32
147	147	30
45	45	19
59	59	16
140	141	7
86	87	8
72	124	1
167	167	19
72	128	4
26	26	15
137	137	22
183	183	19
111	111	24
141	184	2
161	161	14
152	152	28
162	162	19
130	134	4
5	5	16
16	16	26
59	60	12
85	90	4
184	185	5
142	142	29
126	126	19
182	183	16
127	137	3
138	141	5
171	171	30
169	170	26
7	7	23
16	17	6
97	98	11
116	117	9
65	65	17
46	47	7
114	115	12
142	144	7
33	33	21
29	29	17
14	14	21
62	72	5
190	190	36
67	67	19
105	105	20
53	55	3
4	6	4
56	56	20
138	138	23
42	42	21
108	108	27
181	181	21
124	124	23
155	161	2
1	1	15
161	162	6
98	98	22
104	104	26
126	135	5
130	130	16
13	13	6
9	9	10
178	183	2
109	109	25
106	107	14
146	146	14
68	68	13
153	153	31
12	19	2
58	58	14
136	137	9
100	101	9
149	150	10
33	34	11
72	73	4
43	45	8
119	119	11
100	102	8
43	46	4
55	56	9
156	156	17
2	2	9
148	148	10
110	135	3
160	160	13
134	135	11
111	112	6
176	177	8
6	7	10
65	69	5
62	62	22
93	95	5
154	158	2
57	57	40
39	39	19
37	37	9
181	182	6
112	112	16
44	44	28
135	141	3
174	174	34
178	178	25
45	46	9
44	62	4
93	93	26
81	87	4
187	189	6
123	123	9
103	103	29
176	176	30
34	34	7
106	134	2
184	184	16
45	47	7
78	82	5
89	89	20
32	33	7
169	169	29
27	29	3
38	38	33
110	110	24
73	81	1
40	40	12
165	165	20
46	46	20
79	79	19
136	136	13
129	129	23
99	100	10
27	28	4
102	103	14
113	117	2
18	18	13
112	131	1
72	72	32
14	15	22
120	120	13
36	36	4
88	97	1
189	189	15
24	25	10
166	166	20
173	173	16
137	139	1
112	113	9
91	92	13
96	97	11
132	133	6
146	147	6
179	179	16
87	87	17
78	79	19
70	72	7
133	133	24
101	101	28
114	114	16
172	172	21
91	96	5
74	75	15
145	145	34
19	19	11
66	71	1
122	122	10
131	131	25
140	143	2
86	86	20
22	22	10
83	114	1
22	52	6
157	157	18
118	188	4
97	99	1
20	20	17
184	186	4
60	81	1
64	69	2
182	182	17
77	77	43
115	115	10
175	175	34
12	12	13
186	188	1
139	139	15
91	91	18
117	118	5
143	144	6
153	154	10
82	112	1
183	187	3
41	41	29
141	144	11
97	97	14
95	96	1
21	21	14
117	121	3
118	118	13
44	46	9
47	48	10
150	152	2
150	150	17
135	135	2
167	168	12
113	113	16
88	88	22
187	188	15
38	39	8
181	189	8
66	66	13
175	176	11
98	111	2
133	135	5
121	121	25
71	71	18
109	155	4
39	88	4
70	70	19
60	60	17
138	139	12
127	127	27
159	159	16
2	3	4
128	128	10
28	91	2
29	30	4
81	81	20
26	28	2
118	119	10
89	90	6
77	82	7
173	174	17
181	184	2
120	136	2
106	108	2
185	185	20
54	54	15
134	134	17
55	55	22
67	68	16
83	96	2
28	86	1
31	35	1
95	95	25
142	143	14
12	13	11
131	158	3
57	61	4
135	138	1
174	175	13
86	93	3
188	189	7
148	152	1
166	170	5
74	76	5
177	177	12
31	32	5
6	6	15
141	142	15
24	24	16
86	101	2
132	136	4
85	86	10
31	33	7
132	132	17
155	155	15
59	81	2
25	26	1
75	75	12
44	49	2
11	16	5
76	128	5
55	57	4
18	44	4
186	186	11
106	106	21
43	44	6
56	57	7
0	0	18
1	2	5
60	62	17
100	100	21
177	178	8
146	149	5
43	43	11
25	89	2
9	12	2
8	79	3
180	180	13
83	83	17
168	168	12
91	94	2
63	63	13
109	113	1
60	61	3
157	158	21
78	78	13
47	52	2
128	134	3
14	24	3
188	188	7
102	102	21
10	13	7
66	120	3
162	181	3
174	176	4
99	138	2
136	161	3
36	37	11
47	47	23
61	63	3
116	116	15
90	91	9
109	110	16
68	73	1
134	161	2
30	33	5
186	189	2
90	90	15
73	74	16
53	53	15
10	10	17
83	110	2
81	82	7
65	67	9
82	82	25
138	148	1
74	77	1
54	55	8
183	184	9
164	165	16
92	97	2
106	124	2
59	85	10
115	117	7
164	164	25
124	127	1
94	96	7
13	14	6
182	185	3
131	133	3
119	120	5
163	163	25
14	16	5
120	124	1
171	173	8
15	15	24
168	169	2
5	9	4
4	4	14
34	35	2
35	36	4
100	120	3
8	78	1
67	75	2
104	107	4
93	94	18
46	53	4
27	30	8
77	87	3
149	165	1
83	84	8
65	75	7
104	105	9
95	130	2
149	152	2
18	19	6
21	22	5
4	5	7
24	30	2
128	137	4
108	128	2
124	126	15
90	126	4
187	187	14
103	104	6
170	171	10
65	104	3
111	115	5
189	190	6
180	181	10
84	85	12
123	146	1
114	127	3
151	151	17
154	155	15
94	94	24
28	45	2
98	99	9
165	168	4
120	123	3
71	123	1
121	124	2
129	135	4
135	155	1
138	145	2
123	130	5
18	114	4
76	76	17
7	8	9
29	32	4
30	30	18
124	125	8
125	128	1
158	162	4
79	111	6
89	96	4
122	127	2
52	52	4
177	180	5
169	187	1
99	156	1
104	113	5
63	73	1
17	43	1
87	88	4
162	163	5
156	181	5
84	84	20
92	93	10
15	16	7
153	156	3
83	120	2
42	174	5
148	149	6
103	106	2
158	163	2
32	34	3
152	153	2
144	164	1
16	18	3
13	59	2
145	150	6
125	126	9
56	61	3
8	8	11
61	119	1
30	35	2
156	158	2
127	136	2
62	75	3
146	175	3
155	157	2
150	182	3
101	102	9
59	63	1
156	189	5
92	92	17
64	91	1
99	99	16
122	123	4
176	183	1
79	80	7
155	156	4
188	190	4
84	89	8
57	77	1
28	28	19
0	2	2
104	119	4
13	15	8
114	136	2
13	23	3
55	62	4
175	178	3
19	42	4
61	62	9
108	109	2
86	88	1
61	61	14
93	96	3
18	20	6
156	161	4
79	113	2
40	54	3
126	127	4
22	72	3
95	137	3
25	59	1
108	110	14
104	138	6
115	116	14
154	165	3
125	125	13
79	89	2
92	94	10
81	138	1
104	115	2
8	9	2
34	37	3
23	23	20
62	120	2
56	58	1
35	35	14
98	103	2
28	29	3
119	137	3
130	137	2
180	184	1
108	112	4
68	74	4
80	81	5
106	135	1
68	75	1
78	81	7
156	163	2
75	78	3
166	169	5
102	126	3
26	84	4
169	174	3
108	130	4
170	183	1
64	64	9
85	87	9
23	84	1
100	103	3
88	89	13
154	169	3
159	160	7
114	117	2
58	59	7
144	151	6
106	123	2
167	169	1
142	164	4
148	150	5
127	128	6
7	40	5
19	20	12
139	154	3
27	34	2
185	186	2
59	61	6
154	182	2
83	85	5
60	80	2
56	63	4
166	167	6
39	89	3
23	27	2
68	120	2
32	109	2
166	178	2
11	82	1
152	154	1
135	140	5
90	135	2
65	66	14
66	68	2
48	53	1
15	74	2
104	111	10
68	69	6
80	82	3
62	63	4
22	23	7
117	117	12
41	44	3
153	155	1
5	6	10
41	42	5
11	45	1
161	163	1
168	177	1
115	136	1
90	96	1
28	30	4
130	132	5
98	116	1
10	11	5
11	11	5
10	12	2
67	70	2
148	161	2
8	14	3
107	107	12
94	102	2
11	71	3
52	53	1
68	70	6
59	68	4
43	48	2
115	119	3
10	56	1
8	10	2
105	107	5
12	22	1
96	96	7
65	101	1
127	133	3
40	41	1
61	67	2
31	84	3
96	101	2
65	72	1
172	173	12
10	16	1
106	138	1
27	32	2
169	177	1
106	119	5
92	99	1
163	164	7
104	108	1
9	10	1
34	36	3
145	146	3
70	71	6
86	92	3
79	176	2
56	118	1
74	80	4
64	70	3
19	21	7
25	25	10
114	116	3
37	38	6
83	92	3
78	83	3
98	131	3
46	58	1
176	182	2
77	83	1
69	69	6
77	125	2
87	175	1
111	114	2
16	21	2
70	127	3
111	113	2
32	35	2
105	126	1
147	148	11
20	22	2
105	106	7
16	56	5
123	125	3
101	113	1
119	134	1
66	72	1
136	163	1
61	71	2
32	87	1
17	19	3
116	120	2
93	130	3
121	122	11
129	136	3
32	38	2
120	122	6
145	167	2
177	182	3
71	72	7
99	159	2
22	27	5
122	124	4
94	133	1
125	127	8
55	63	2
130	131	12
57	66	3
0	12	2
129	159	1
130	136	6
162	165	1
101	109	1
139	141	1
60	66	1
91	93	10
58	62	2
7	13	1
115	118	7
186	187	4
61	68	1
23	24	5
58	65	3
18	83	2
61	83	3
69	127	2
94	100	2
133	137	1
125	146	3
63	119	2
150	151	6
129	134	3
157	160	1
102	104	2
134	140	3
161	181	3
29	90	2
141	155	1
167	179	3
0	1	2
45	69	3
12	16	5
101	104	1
176	179	1
176	184	2
82	94	3
41	88	1
21	53	2
134	136	1
134	139	2
109	112	2
93	133	4
142	149	1
64	65	5
107	111	3
148	158	2
169	180	1
57	58	4
122	130	1
13	19	2
176	178	1
181	183	3
139	177	1
113	139	1
128	129	2
138	147	2
41	48	1
170	174	2
38	121	3
48	48	18
114	131	2
66	119	2
64	73	4
187	190	3
97	103	1
162	164	5
109	111	3
26	62	2
61	122	2
12	58	1
59	62	3
10	15	1
56	62	1
35	97	2
24	54	1
16	83	2
11	60	1
94	95	4
75	81	1
8	15	1
66	123	2
24	162	1
168	170	6
33	36	2
92	96	3
58	61	1
26	27	7
75	76	4
182	188	2
13	24	2
28	33	2
110	147	1
147	151	1
22	33	2
85	91	1
139	179	1
40	48	9
2	4	2
48	55	2
170	173	3
135	139	1
93	97	3
61	64	3
14	21	2
12	17	1
112	116	1
65	91	2
26	86	2
18	43	1
145	174	2
172	176	1
141	175	2
90	93	1
12	57	1
32	32	3
110	111	2
144	146	2
75	80	1
82	83	4
3	14	1
140	155	2
44	48	2
157	165	1
184	187	2
98	134	1
148	166	1
159	184	1
120	127	2
115	120	3
35	122	2
10	22	2
111	131	2
156	166	2
0	191	3
58	64	1
77	78	2
144	144	4
20	21	4
65	68	2
107	109	1
126	131	2
123	126	1
18	21	2
9	13	2
179	180	3
156	162	1
98	132	1
55	61	1
70	76	3
58	60	1
155	164	2
42	44	3
98	136	2
61	89	2
89	127	2
63	65	2
96	98	2
8	40	3
3	4	1
57	73	2
151	162	1
82	85	3
27	87	1
31	38	1
96	100	2
164	166	1
106	126	3
73	76	3
67	74	1
145	149	1
159	165	3
5	90	1
143	151	2
8	22	1
17	17	4
94	129	1
111	149	1
25	27	3
60	124	1
99	140	2
78	80	1
42	48	3
60	123	1
146	161	1
131	157	3
99	101	2
17	45	1
11	19	3
59	84	1
106	120	3
103	105	2
181	186	1
135	136	2
140	152	1
31	36	2
144	145	3
111	125	1
9	15	1
145	158	1
76	174	1
145	147	1
98	156	1
97	102	1
124	133	1
37	122	1
105	115	1
112	114	1
58	67	1
57	68	3
151	153	1
59	67	1
163	165	3
35	37	4
6	8	1
111	124	5
62	73	1
10	60	2
71	134	1
104	116	1
123	127	3
72	76	1
169	173	3
44	47	2
154	164	2
58	85	2
146	148	6
124	136	1
106	130	1
116	118	2
53	54	2
146	167	1
128	139	2
122	131	2
76	80	1
84	120	1
158	159	3
63	121	4
42	43	2
108	115	1
101	103	1
131	132	5
77	113	1
150	177	1
113	116	1
179	183	3
13	72	1
141	145	3
132	134	2
110	154	1
104	114	1
140	144	3
182	190	2
64	67	2
167	182	1
138	178	1
10	14	1
19	23	1
117	119	1
73	82	1
26	88	1
69	72	1
161	165	2
97	101	1
160	161	3
97	100	1
80	139	1
100	122	1
103	110	3
47	58	1
22	31	1
153	157	1
1	4	1
25	83	1
31	109	1
30	34	2
44	45	1
55	58	2
81	178	1
134	138	1
171	177	1
28	43	1
26	75	1
103	128	1
183	186	1
45	48	1
123	131	1
56	106	1
133	134	1
167	177	1
5	37	1
84	87	3
26	125	1
142	145	4
141	182	1
109	149	1
10	58	1
14	19	2
73	79	2
177	179	1
76	78	1
181	187	2
143	157	2
167	170	1
97	132	1
21	43	1
41	46	1
14	72	1
66	122	1
42	173	1
9	57	2
154	168	1
183	185	1
57	67	1
137	140	2
98	133	1
63	64	1
139	143	1
8	11	2
17	83	1
141	143	1
143	156	1
149	154	1
0	13	1
28	90	1
81	117	1
179	182	1
136	160	1
172	178	1
129	160	1
12	18	1
157	163	2
143	183	1
23	25	1
11	13	1
12	15	1
105	108	1
180	183	1
45	88	1
19	43	1
115	137	1
156	157	1
81	85	1
178	179	1
12	21	1
54	62	1
143	177	1
