44	44	17
151	157	3
112	112	7
152	152	4
12	13	3
93	93	5
20	48	6
6	6	17
10	10	15
12	12	17
35	35	19
157	157	5
38	38	15
90	90	23
55	55	14
23	23	9
34	34	14
69	69	13
81	82	1
71	72	3
152	153	6
107	108	1
107	127	2
26	28	3
34	35	9
143	143	11
160	160	7
75	75	14
108	109	3
79	79	8
24	24	9
1	1	22
20	37	1
88	88	7
114	114	2
109	109	16
83	137	2
86	87	4
136	136	9
98	98	2
63	63	16
16	17	9
132	132	3
100	101	11
0	0	14
157	158	1
6	7	20
33	33	24
86	86	12
82	82	16
78	79	5
155	155	7
111	111	12
40	40	5
151	151	17
145	146	5
141	142	1
56	57	1
63	64	5
103	103	6
161	169	8
159	159	4
164	164	11
43	43	13
76	76	9
52	52	11
82	85	2
54	55	7
101	101	13
169	170	5
89	89	9
16	16	8
45	45	12
70	70	7
102	110	2
73	73	15
128	130	8
126	126	8
64	64	8
46	50	2
36	36	7
10	11	5
109	142	2
118	118	8
7	7	5
14	15	2
0	1	10
107	107	14
46	46	7
150	151	9
14	14	11
63	69	1
72	72	10
41	41	7
107	128	1
51	51	10
130	131	5
117	117	13
146	146	10
94	95	5
5	5	2
56	56	16
57	57	4
50	51	4
49	49	7
26	42	3
39	40	4
12	90	2
63	70	3
85	85	12
42	42	24
3	3	22
49	50	1
96	96	9
153	154	2
65	67	3
5	6	2
53	53	12
142	143	3
21	41	1
158	158	21
133	134	3
85	93	1
142	157	1
13	13	4
165	166	9
137	137	4
85	88	4
10	25	2
116	140	3
160	166	4
54	57	2
119	120	6
138	138	12
127	127	4
111	112	8
97	98	3
106	108	2
162	166	4
142	142	13
92	92	6
48	49	1
35	54	2
161	161	5
128	128	8
8	8	4
4	5	7
139	139	10
162	162	6
98	99	2
20	21	2
134	134	10
105	105	4
43	44	6
108	108	2
167	167	6
81	81	4
4	37	1
166	168	1
46	56	4
139	140	4
17	19	1
50	50	8
7	11	3
95	96	5
87	144	3
99	100	5
18	18	12
70	71	6
141	141	4
159	163	2
2	2	5
4	4	7
80	80	7
11	12	4
114	115	5
148	149	5
18	56	1
130	130	2
23	24	1
71	71	4
91	94	2
52	53	2
25	25	11
67	67	4
116	116	11
27	27	1
110	111	3
149	149	8
100	100	6
147	147	10
99	99	7
111	121	1
49	51	4
87	87	4
150	150	6
94	102	4
11	11	10
79	80	1
124	125	4
19	20	2
26	26	3
9	9	6
88	94	3
15	16	9
48	110	1
1	102	1
47	47	7
150	158	3
106	106	6
156	156	6
163	163	4
74	74	10
163	165	3
33	34	3
165	165	6
151	158	2
95	104	5
37	37	3
13	24	3
168	168	6
131	131	4
41	76	3
68	68	3
145	145	4
115	115	3
133	135	4
111	138	2
90	96	1
145	156	2
40	77	2
104	119	1
82	132	2
153	153	1
90	91	4
4	9	2
83	83	15
163	166	4
105	106	4
19	40	1
65	65	7
18	22	2
72	73	4
57	63	1
148	159	3
135	135	7
113	113	2
128	129	3
136	166	2
94	94	2
76	166	3
42	43	4
121	129	2
133	133	8
117	125	1
83	84	2
76	78	2
2	3	1
22	24	5
18	62	2
116	117	2
10	27	1
117	121	1
17	21	3
1	3	1
22	23	3
35	36	2
112	122	3
118	123	2
62	62	3
25	42	1
103	104	2
167	168	2
16	41	2
91	92	3
14	97	2
84	141	1
3	5	1
83	140	1
110	110	3
62	63	2
18	57	3
123	124	2
45	46	3
101	102	3
66	66	3
12	104	2
96	97	1
123	123	3
95	95	1
53	54	6
68	69	2
69	70	2
20	24	3
48	48	3
135	137	5
131	141	2
15	15	1
85	87	2
56	58	1
43	45	1
73	74	5
89	90	2
161	163	2
126	128	2
51	84	1
84	84	2
57	62	1
17	17	2
65	69	1
39	39	1
166	166	5
3	41	3
24	25	1
55	56	3
14	70	1
170	170	2
14	22	2
130	160	2
106	107	3
121	121	3
17	106	1
3	25	2
22	22	5
16	23	2
7	8	2
114	120	1
146	148	1
54	54	8
145	157	1
143	144	3
115	116	2
105	117	1
77	77	1
1	98	2
125	125	1
87	88	1
58	58	1
102	102	4
15	104	1
9	64	1
64	65	1
18	19	1
84	85	1
122	129	1
53	55	2
6	12	1
8	9	3
8	12	1
113	114	3
134	135	2
4	38	2
154	154	2
46	47	1
67	68	2
9	54	1
147	149	2
35	53	1
142	144	3
17	18	1
150	154	2
21	22	1
40	58	1
2	36	1
144	144	1
104	104	1
111	113	1
34	56	2
95	103	1
38	42	1
99	101	3
4	6	1
117	137	1
4	57	1
119	119	2
66	70	1
121	122	1
163	164	1
145	149	1
164	169	1
36	48	1
