126	126	5
97	107	4
1	1	26
6	50	1
110	111	10
73	76	1
109	109	12
56	56	10
125	125	9
48	48	17
28	28	15
2	2	18
132	132	5
84	84	3
118	118	3
119	120	3
24	24	6
117	119	5
113	113	25
61	62	10
107	108	2
97	98	7
12	125	6
25	26	1
102	102	19
64	65	3
78	78	11
31	31	8
38	38	6
27	27	5
71	71	11
52	52	33
89	89	10
8	8	3
93	93	4
50	50	18
44	44	4
68	69	8
113	114	4
32	33	1
45	47	2
66	108	2
128	128	2
59	114	2
116	117	9
73	73	7
127	127	7
104	105	7
22	27	4
0	7	4
65	66	2
122	122	14
97	97	7
69	69	14
6	49	6
94	94	8
53	53	37
20	20	8
5	6	3
120	120	11
117	117	10
70	89	1
90	91	3
123	123	2
75	76	1
108	109	1
16	59	1
96	96	23
129	129	5
64	114	4
72	72	9
15	62	2
112	112	9
83	83	2
67	67	5
56	57	4
7	7	15
54	54	21
6	6	9
69	70	3
58	58	15
107	107	10
49	49	22
79	106	2
99	99	4
85	85	8
17	17	3
0	1	7
13	17	4
29	29	5
0	0	5
104	104	17
19	20	3
43	44	2
10	10	4
114	114	2
76	76	28
63	63	5
74	75	3
43	43	8
103	103	4
11	63	4
16	16	6
75	75	4
68	91	1
57	57	13
8	9	8
111	112	8
50	51	8
92	92	2
3	3	7
105	105	17
18	18	9
130	130	14
86	88	8
47	48	5
41	42	4
41	73	1
41	41	5
106	107	4
10	11	6
33	34	4
122	123	4
51	51	16
86	86	1
45	45	11
29	45	2
80	80	5
12	113	1
23	26	1
85	86	1
92	93	1
68	94	1
68	68	5
14	62	4
55	60	1
82	84	2
89	92	3
30	31	3
111	123	6
30	30	12
39	39	1
32	32	3
44	45	2
121	121	11
67	68	2
111	111	11
125	126	3
49	50	2
108	108	6
119	119	6
115	117	2
40	41	4
124	124	6
70	71	1
65	65	7
46	47	9
62	63	3
110	110	7
106	106	13
126	127	2
22	23	3
66	66	6
86	87	3
100	100	10
15	20	2
58	60	5
61	73	3
81	81	4
81	85	1
41	71	5
13	13	3
52	68	4
120	121	2
52	53	3
19	112	2
54	56	2
100	101	2
43	45	6
1	2	2
116	116	5
90	90	4
66	67	2
21	22	6
76	113	6
15	15	3
77	80	2
78	79	3
20	68	1
82	83	5
17	18	4
46	46	7
42	43	5
31	32	5
42	42	3
105	106	9
95	95	8
116	125	4
39	74	1
79	81	5
26	26	6
74	100	1
29	30	3
77	77	6
12	12	5
10	12	2
77	78	2
47	47	12
1	9	2
76	100	1
71	104	3
98	99	2
94	102	3
69	88	2
22	24	2
97	103	2
40	40	2
83	91	3
27	56	2
69	96	1
109	110	3
81	82	3
115	115	1
9	12	1
89	90	3
90	92	3
112	113	2
118	119	2
9	61	1
15	63	1
26	27	1
27	30	1
121	122	4
9	9	5
114	115	3
18	21	3
121	125	2
62	62	3
16	17	2
48	49	2
107	109	1
78	82	2
0	2	1
14	14	4
55	55	3
131	132	4
2	3	1
130	131	3
88	88	2
46	56	2
11	11	1
46	121	1
27	28	1
117	120	1
15	16	1
76	77	1
53	54	4
60	61	5
54	55	1
124	126	3
51	52	1
95	96	2
3	7	2
33	33	2
50	67	1
20	113	1
54	65	1
88	89	1
59	59	3
23	23	2
11	12	1
40	73	1
23	24	2
64	64	3
25	25	2
41	44	1
21	21	2
77	107	3
20	86	1
87	87	2
133	133	1
101	101	2
4	5	2
78	109	1
71	72	1
19	27	2
5	5	1
83	87	1
124	125	4
5	7	1
19	19	2
111	124	2
99	105	1
98	98	2
90	103	1
46	49	1
72	73	2
12	13	2
19	21	2
97	99	1
99	103	1
3	4	2
78	107	2
40	44	1
68	93	1
103	104	1
73	74	1
79	79	1
106	109	1
87	112	1
6	7	1
70	70	1
116	122	1
3	6	1
3	5	1
