203	203	10
15	15	3
194	196	3
188	191	10
202	203	2
9	9	11
108	110	1
214	214	10
219	219	4
205	205	9
204	204	13
155	161	6
242	243	5
175	186	2
191	192	6
169	169	5
71	74	4
25	44	1
164	164	7
7	7	3
247	247	8
227	228	5
231	232	1
150	150	8
52	63	6
26	31	4
114	114	8
23	23	2
6	6	10
109	109	6
56	58	4
10	11	1
34	35	4
31	31	6
189	190	4
81	84	3
167	167	3
73	73	7
151	151	18
153	153	6
62	65	2
245	245	3
57	61	3
247	248	2
118	118	15
192	194	10
42	42	2
198	198	12
161	161	5
52	52	5
4	13	2
68	69	3
179	179	7
55	56	2
166	168	2
75	76	8
210	211	5
166	167	6
186	194	3
196	196	11
232	232	7
60	97	2
25	112	1
61	61	5
235	239	3
206	207	6
78	195	1
80	80	7
53	53	12
62	62	2
44	57	1
30	31	5
43	43	7
229	232	6
49	73	3
152	170	2
10	10	6
26	28	1
4	4	12
101	101	2
87	87	5
201	201	8
187	187	7
76	83	1
199	199	5
104	105	9
17	17	7
44	45	4
212	212	4
86	86	7
165	177	1
238	238	23
172	172	8
222	223	1
63	75	6
171	171	6
112	114	1
152	152	6
175	175	6
229	229	16
57	58	6
216	225	3
145	145	3
20	20	16
116	116	9
114	115	8
159	160	7
228	228	3
203	204	1
243	244	3
150	151	2
146	165	6
59	98	5
180	180	10
231	231	3
165	165	8
45	45	6
227	227	4
27	28	10
182	182	11
82	150	5
175	176	4
24	37	3
18	19	2
119	119	19
193	193	3
93	93	4
54	54	5
101	102	4
56	57	1
199	209	3
152	166	4
36	36	4
171	172	4
147	147	1
12	12	17
1	1	3
47	97	1
37	85	2
67	67	3
208	209	9
98	98	3
1	2	4
95	95	5
179	180	11
172	181	3
112	112	8
74	74	5
54	110	1
184	185	7
152	245	4
81	81	8
32	230	4
157	163	1
48	48	8
100	101	2
108	108	13
90	91	5
22	22	3
168	170	2
176	176	3
235	235	9
166	170	4
177	184	3
168	168	4
189	189	6
191	191	2
25	25	13
33	33	8
244	244	9
32	52	2
97	98	2
201	203	3
110	110	5
154	156	3
236	236	13
235	241	1
53	54	4
2	2	4
37	37	4
193	195	1
8	8	1
35	35	5
39	39	2
213	213	8
223	223	8
107	112	4
103	103	7
90	90	5
79	79	7
57	74	1
177	192	2
153	160	2
9	11	1
26	26	7
213	215	2
20	62	3
120	120	3
183	183	12
107	107	5
37	38	3
101	104	2
6	201	2
51	51	3
186	187	1
63	66	2
241	241	12
84	85	1
178	178	3
155	155	7
35	150	5
77	80	1
29	29	4
11	11	6
218	218	9
217	218	5
177	177	10
192	193	3
24	24	4
185	188	3
44	44	4
106	107	4
13	14	3
241	242	1
50	50	6
17	32	3
28	28	10
173	174	4
173	173	8
210	210	8
6	40	5
64	65	2
198	199	3
57	57	2
170	171	2
185	185	2
216	218	2
82	82	1
167	168	3
45	46	4
160	160	13
246	246	5
87	88	1
169	170	10
9	10	3
226	226	6
192	195	2
184	186	2
110	238	2
115	115	5
157	157	3
105	105	6
166	166	5
181	181	7
113	114	2
55	72	3
187	189	1
188	188	4
52	53	2
236	238	2
221	222	6
76	86	2
158	158	7
70	70	4
157	162	2
170	170	11
23	24	4
190	190	8
226	227	1
32	33	4
34	34	4
99	100	2
5	5	3
208	208	12
3	3	3
200	200	8
215	215	8
159	159	7
207	207	4
248	248	8
216	217	2
149	151	1
239	240	4
41	42	2
114	116	5
197	198	1
49	50	2
31	145	1
37	81	2
84	89	2
211	212	1
187	190	3
7	8	3
215	233	1
85	87	4
117	117	5
49	102	2
29	31	2
145	162	2
28	77	1
55	55	3
19	19	4
111	111	4
18	18	10
79	107	2
190	194	3
16	16	4
206	212	2
49	74	2
172	173	2
174	174	4
113	113	18
191	213	1
85	86	3
10	34	2
75	75	2
14	34	1
50	72	1
188	189	3
94	95	2
64	64	6
75	96	4
13	24	3
224	224	2
119	241	3
30	30	4
212	213	2
99	99	3
171	174	6
144	179	1
118	238	2
177	208	1
47	113	1
60	60	6
2	3	2
3	4	2
197	213	1
71	99	1
166	176	1
162	162	1
67	68	4
14	16	1
159	224	1
56	56	7
202	204	1
186	193	3
206	208	1
162	163	8
31	34	1
197	199	1
173	197	2
50	68	3
94	193	3
231	235	2
180	186	3
72	72	2
195	196	5
19	34	2
236	240	1
63	237	3
102	107	1
118	119	1
175	193	3
225	225	5
234	235	2
154	204	4
236	237	5
221	221	5
230	230	3
4	15	4
85	106	2
46	48	1
191	194	2
5	15	3
185	199	3
17	19	2
37	82	2
0	6	1
157	158	1
4	5	4
175	177	2
243	243	2
17	79	1
54	55	1
195	228	1
28	29	3
204	205	3
71	72	2
202	202	10
216	216	5
163	163	1
49	51	2
159	171	1
22	23	5
14	17	2
88	88	7
41	41	5
239	239	3
221	223	5
177	181	4
219	220	2
169	171	1
197	208	1
78	78	1
96	97	2
238	240	1
6	7	2
21	21	3
104	104	2
63	63	2
58	74	1
156	156	8
154	154	7
3	51	2
19	35	1
79	80	1
229	233	2
209	209	1
220	245	1
220	220	3
3	14	3
200	229	1
205	230	3
172	174	1
192	224	2
115	116	6
37	70	1
238	239	3
193	194	5
110	111	6
30	240	1
171	175	3
34	62	2
200	215	3
106	106	1
152	244	1
47	57	2
165	166	3
111	112	2
105	113	1
65	65	5
16	17	1
192	192	4
38	38	3
58	61	1
8	9	1
47	47	4
206	206	3
59	64	1
111	113	1
5	30	1
156	164	2
14	14	2
152	159	2
111	114	3
147	167	1
78	90	2
223	224	2
11	12	1
91	92	2
87	93	2
58	66	2
56	94	3
89	89	4
27	27	3
82	95	2
80	95	1
59	59	3
71	71	2
33	197	1
97	97	1
57	95	1
58	87	1
163	167	2
32	32	2
203	205	1
20	79	1
151	168	1
246	247	1
169	188	1
170	177	3
196	198	1
161	164	1
50	63	1
158	160	2
234	234	3
37	39	1
96	96	3
160	161	1
66	67	4
18	35	1
76	76	2
145	179	1
25	37	1
16	169	1
156	158	2
58	60	1
168	169	1
31	33	1
40	41	2
186	186	2
170	181	1
222	222	2
176	177	3
217	217	1
14	15	2
152	153	1
184	225	1
38	39	3
200	221	2
156	160	1
220	224	1
20	21	1
182	183	1
32	93	1
64	85	2
186	189	1
152	167	1
86	87	4
48	57	1
229	230	1
197	197	2
170	176	1
200	201	1
73	74	1
187	188	3
3	29	3
89	90	2
188	190	1
69	71	2
47	56	2
97	108	1
67	77	2
227	233	1
69	70	3
175	205	1
26	27	1
229	231	1
107	113	1
49	49	2
23	45	1
14	19	1
233	234	3
213	216	2
16	205	2
63	64	1
245	247	1
1	59	2
20	23	1
27	35	2
192	230	1
233	235	1
167	170	1
180	181	1
230	232	2
186	188	1
201	202	1
157	164	1
88	114	1
20	22	1
37	84	2
94	94	1
151	154	1
72	100	1
175	180	2
242	242	2
160	164	1
174	192	2
57	100	1
116	117	1
81	82	1
231	234	1
237	238	2
24	25	1
46	47	1
228	229	2
22	33	1
237	237	3
28	35	1
211	244	1
46	59	1
3	65	1
191	195	1
159	164	1
202	205	2
194	194	1
69	69	2
78	95	2
96	99	1
47	85	1
239	241	1
211	211	1
149	175	1
64	145	2
58	58	1
248	249	1
56	67	1
107	119	1
82	84	1
153	154	1
11	40	1
99	149	1
80	81	1
234	236	1
100	100	1
184	184	1
72	75	1
