88	89	5
105	105	5
28	28	4
22	22	5
57	79	1
54	54	2
61	88	1
89	89	11
33	37	5
86	86	8
49	49	8
66	66	2
62	63	3
37	37	8
40	41	1
93	93	11
66	89	2
78	78	12
75	75	7
89	90	2
63	63	15
96	96	10
35	39	6
90	93	6
41	58	1
40	40	8
61	102	4
61	62	6
63	100	3
59	95	7
104	105	2
27	27	6
44	45	2
44	78	2
27	54	3
46	83	2
51	78	2
56	56	15
32	51	1
40	47	2
25	28	1
30	30	10
69	70	2
52	78	3
36	36	8
100	101	1
36	102	2
53	53	5
44	44	19
61	99	2
90	90	14
51	52	12
72	99	3
70	73	3
101	102	7
23	24	4
74	88	3
41	97	3
38	67	3
79	79	17
91	92	2
61	83	2
22	24	3
99	99	8
74	75	3
60	60	3
42	42	5
68	68	5
51	51	10
47	82	2
84	84	10
67	67	6
96	99	6
36	37	2
55	76	2
62	69	3
43	54	6
86	87	3
50	50	7
23	23	10
46	46	12
76	76	2
59	59	8
43	43	4
33	57	1
47	48	6
81	81	8
80	102	2
73	73	10
33	34	5
45	45	4
25	25	8
94	94	3
74	100	1
97	97	7
27	93	4
92	92	9
43	55	5
72	72	10
65	94	1
46	79	1
100	100	18
36	39	5
107	107	2
38	39	1
42	43	2
30	42	3
82	82	10
62	62	8
24	24	9
43	53	2
68	70	2
24	25	3
80	82	2
65	65	4
21	22	1
79	83	1
104	104	4
76	77	5
59	60	1
38	38	8
33	33	1
27	94	2
45	46	7
58	78	1
52	52	11
55	55	12
76	92	2
58	58	2
54	81	8
67	104	1
71	98	1
26	27	2
53	77	1
80	80	8
73	79	9
83	84	4
61	67	2
101	101	6
55	100	4
39	39	2
61	84	5
27	46	2
32	32	4
57	57	5
85	85	5
71	71	15
95	98	1
34	34	9
53	58	3
95	96	6
74	74	5
29	29	9
85	86	1
83	83	3
42	84	2
77	87	2
71	107	3
35	35	9
41	84	2
95	95	3
92	96	2
49	83	3
60	87	1
55	103	2
88	88	7
33	36	2
87	87	7
92	95	2
34	39	1
41	42	1
70	70	8
73	95	1
79	80	3
98	98	4
57	98	3
94	95	3
82	83	1
49	58	1
97	98	1
76	102	3
27	29	2
63	76	3
32	34	2
41	41	2
66	67	3
86	97	2
50	62	2
77	77	4
47	49	1
92	93	4
40	98	1
21	21	6
92	107	1
34	41	2
78	79	5
31	31	3
59	77	4
47	47	4
61	61	5
64	64	5
43	44	2
98	99	1
65	70	2
103	103	6
75	101	1
103	105	2
82	102	2
45	83	3
62	74	1
21	73	1
22	76	2
22	23	3
92	94	4
74	83	1
67	85	3
67	70	1
55	63	3
25	26	1
39	41	1
49	56	2
47	79	5
65	66	1
93	99	2
68	76	1
46	47	1
57	97	1
63	64	1
29	30	2
62	64	2
68	69	8
42	44	3
48	48	1
69	69	1
63	92	1
24	87	1
73	99	1
59	61	1
90	97	1
88	107	1
84	88	1
51	71	2
66	90	1
106	106	4
25	80	1
50	51	1
73	97	1
40	94	2
90	91	1
41	48	1
84	85	1
30	48	1
73	75	1
49	50	1
27	28	1
55	77	1
45	54	2
52	53	1
35	36	1
59	66	1
76	78	1
76	97	1
71	72	1
102	102	2
80	81	1
