87	87	4
99	99	8
74	94	2
97	98	4
60	114	1
116	116	6
116	130	1
74	74	3
22	36	2
81	82	2
82	83	3
35	36	5
114	114	2
35	35	17
115	115	3
122	122	6
10	10	11
26	26	2
81	81	7
45	45	3
95	95	7
91	91	15
33	33	7
23	23	3
45	46	5
84	91	2
80	99	4
6	7	2
32	32	7
7	7	17
81	101	4
8	47	5
96	96	7
29	30	3
93	107	5
76	76	4
25	25	7
125	125	3
82	89	2
14	91	1
31	31	4
79	79	15
110	111	7
66	66	14
9	9	5
88	88	4
68	68	7
13	13	8
12	13	5
59	79	3
41	83	3
58	58	5
60	60	4
90	91	9
73	73	3
56	56	8
23	91	4
77	77	6
38	50	1
8	8	3
24	92	2
46	46	8
62	62	7
56	93	2
104	105	3
61	61	2
23	59	3
45	71	3
101	102	3
25	30	1
19	19	5
67	67	9
81	87	2
34	34	9
46	47	3
8	19	3
92	92	2
15	15	7
93	96	3
40	42	2
119	119	6
5	29	2
47	61	2
19	42	3
126	128	1
94	94	12
72	72	17
98	98	7
16	27	3
29	29	4
39	42	3
5	5	5
120	121	2
31	37	2
80	94	1
49	49	2
92	96	1
121	121	2
27	27	2
39	41	3
4	4	3
34	35	4
16	95	1
16	96	1
56	133	1
21	21	4
11	11	19
69	69	2
57	59	1
33	34	3
19	37	3
14	30	4
57	57	9
74	95	3
24	24	3
7	18	2
120	120	4
64	65	3
39	40	2
5	27	2
71	71	2
57	95	8
26	27	5
128	129	1
48	48	11
96	97	2
3	3	12
32	47	1
47	47	7
94	95	3
78	79	9
65	68	3
22	105	1
74	121	2
74	75	2
93	93	3
16	16	2
20	58	2
29	32	2
47	78	5
59	59	11
42	109	3
32	33	5
126	126	1
112	112	2
113	129	1
42	42	7
106	106	1
101	101	9
31	108	2
113	115	2
16	90	1
49	56	4
82	93	2
84	84	4
86	89	3
104	104	2
97	97	1
103	103	6
86	111	2
131	131	3
13	43	1
94	100	2
45	64	4
40	110	1
56	57	1
86	90	1
63	63	1
0	0	2
50	50	2
117	117	3
2	2	1
82	82	2
85	85	4
126	129	1
28	29	3
78	94	2
51	51	1
91	106	1
88	131	2
35	79	1
89	97	1
62	63	1
93	99	3
85	92	3
41	42	3
30	81	1
75	76	3
59	60	2
49	51	1
28	28	1
30	48	4
82	84	1
64	64	2
75	75	4
17	21	2
113	113	7
111	118	1
98	100	5
43	43	3
26	93	1
65	66	2
6	6	2
14	21	2
43	44	4
111	128	1
25	62	1
118	118	4
30	79	4
131	132	2
5	8	2
40	40	3
100	100	4
95	96	3
78	78	5
78	101	1
57	75	1
92	93	1
123	123	5
103	104	4
83	83	2
38	39	2
121	126	1
130	131	5
31	35	2
97	100	2
38	38	1
10	11	5
83	84	2
4	8	4
110	110	3
16	18	4
90	90	3
80	80	5
127	127	4
11	34	3
113	116	1
84	85	3
30	30	1
7	49	2
12	114	1
4	101	2
19	44	1
31	80	1
22	23	1
80	93	2
43	80	2
21	31	2
45	117	1
12	12	1
21	48	2
46	95	3
48	50	1
5	6	2
15	21	3
33	36	2
89	134	2
42	43	3
124	125	1
40	130	2
3	48	1
23	95	1
3	101	4
123	129	2
18	18	3
74	97	2
49	121	1
79	101	1
48	55	1
9	45	1
65	65	2
20	20	4
101	103	1
10	12	1
111	111	2
124	128	1
55	79	1
115	116	1
1	1	1
61	62	1
83	98	3
123	131	1
10	47	1
55	56	1
32	76	1
45	74	1
36	38	3
88	91	1
13	26	2
117	118	1
41	41	1
3	4	1
17	44	1
99	100	1
132	132	2
90	93	1
44	107	1
127	128	1
103	106	1
107	107	1
39	133	1
17	94	2
36	59	1
29	61	1
28	61	1
31	60	1
68	69	1
123	124	1
33	46	2
108	108	1
8	10	1
87	133	1
12	117	1
105	105	1
93	94	1
36	108	1
49	54	1
113	118	1
70	70	1
