134	134	2
110	111	1
17	17	4
39	39	6
103	107	3
17	18	3
73	74	1
141	141	2
124	124	4
24	24	14
32	33	4
77	78	4
57	96	2
73	73	1
47	47	14
35	43	2
111	111	5
140	141	1
40	40	14
45	45	2
108	109	4
33	33	8
18	18	7
14	21	2
14	14	4
99	99	1
49	50	2
107	107	4
77	77	5
144	144	6
10	12	5
23	24	7
131	131	1
34	35	5
48	48	8
152	152	5
142	145	2
88	88	1
11	11	3
16	16	7
139	145	7
27	27	5
20	36	5
14	36	1
18	21	1
139	139	1
35	35	2
13	13	10
46	46	11
112	112	4
81	81	7
53	56	5
32	34	1
96	97	4
9	9	3
64	65	1
6	6	4
3	9	5
135	135	6
54	54	9
96	96	3
123	123	2
126	128	4
8	9	4
72	72	3
115	117	1
86	86	1
79	83	1
20	21	4
20	51	1
137	146	4
18	19	4
114	114	8
129	129	9
37	37	7
63	65	3
137	137	3
34	34	1
92	92	1
3	8	1
103	105	2
58	58	1
49	49	6
130	130	1
74	74	10
75	83	1
29	29	3
86	87	2
101	102	4
136	137	2
83	83	6
36	36	1
57	57	10
147	147	5
16	33	1
110	110	5
56	56	6
65	66	4
62	64	1
38	38	7
102	118	2
71	71	4
20	20	4
94	97	2
64	64	3
67	67	6
90	92	1
63	86	3
78	78	6
108	108	2
153	153	3
86	114	1
109	109	6
13	14	1
19	20	3
105	105	4
70	70	6
43	43	5
67	68	3
23	23	9
63	63	2
53	53	4
32	32	4
95	95	2
149	149	2
37	38	4
128	129	1
15	41	1
3	3	1
45	64	2
98	98	5
136	150	2
54	55	2
73	79	3
69	69	5
102	117	1
136	136	2
26	28	2
151	151	4
9	10	5
107	108	2
66	67	2
5	5	5
133	133	2
103	104	2
65	68	2
116	119	2
47	48	1
10	23	2
4	6	1
76	84	3
46	96	1
39	40	2
100	109	1
41	42	2
132	132	2
21	21	3
115	115	1
15	19	3
126	132	1
74	75	3
111	112	2
12	12	6
92	97	3
55	58	1
117	117	1
117	118	2
44	44	2
66	66	2
71	107	2
126	126	1
72	73	2
143	144	1
10	30	1
87	97	3
15	23	2
94	94	1
51	52	1
42	43	2
11	12	1
7	7	5
102	102	4
129	133	1
122	123	3
25	25	1
55	57	2
27	28	1
76	76	1
84	85	2
146	148	1
16	17	2
10	10	6
20	34	2
5	6	1
48	51	2
68	69	1
43	56	1
152	153	1
116	120	3
21	22	1
25	51	2
103	103	1
93	93	3
74	84	1
82	83	2
18	36	1
123	125	1
15	15	1
19	19	1
75	75	1
86	102	3
9	19	1
73	77	2
43	64	1
147	148	3
15	21	2
41	51	2
116	117	1
38	40	1
99	101	3
87	87	2
124	126	1
50	50	4
7	19	2
82	82	1
2	3	1
24	25	1
115	116	1
8	8	1
12	13	1
17	33	1
143	143	1
81	83	1
141	142	1
75	77	1
49	55	1
130	131	2
4	5	2
55	55	1
49	56	1
81	82	2
34	37	1
100	100	1
8	15	1
71	74	1
52	52	1
65	65	1
150	152	1
86	113	1
104	105	2
46	48	1
116	116	1
26	27	1
80	81	1
79	79	1
10	11	1
104	104	2
