78	78	35
96	96	22
48	48	24
97	97	30
44	44	21
43	43	43
71	72	10
69	69	17
85	85	16
42	68	3
81	83	5
50	51	8
66	66	18
65	66	8
32	33	4
34	34	6
53	54	13
87	88	15
49	56	3
61	61	32
33	39	1
67	69	2
58	69	1
35	35	20
23	25	4
63	63	38
99	100	8
95	100	1
63	64	5
101	101	16
56	56	23
31	31	16
50	50	17
77	78	4
47	51	10
67	68	11
92	92	16
69	70	15
81	81	42
88	100	1
51	51	29
33	33	13
23	23	6
60	62	4
59	59	16
38	38	27
39	39	19
80	80	18
70	72	2
101	102	4
74	101	3
84	84	22
37	37	8
63	65	3
95	95	34
77	77	26
86	87	8
76	77	11
72	72	20
48	49	3
67	67	25
79	81	3
44	45	6
80	81	25
92	98	3
56	58	8
52	52	21
75	75	21
87	96	13
90	90	34
75	76	5
76	76	28
64	64	20
60	61	12
99	99	31
91	91	28
94	97	5
31	33	9
29	30	1
60	60	27
68	68	24
88	90	3
87	87	26
72	73	7
91	92	18
93	93	27
102	102	9
79	79	25
88	88	23
92	93	10
51	52	11
74	74	36
86	86	32
40	40	21
100	100	17
73	73	31
22	37	3
41	42	7
46	46	30
55	56	8
79	80	11
61	62	16
56	85	2
55	55	7
85	99	2
62	63	7
82	82	14
29	29	6
68	69	9
98	98	22
24	25	5
23	24	3
82	83	3
45	45	8
57	67	2
47	48	10
20	20	2
26	26	17
86	89	5
36	36	23
88	95	4
41	41	34
82	97	5
57	57	37
94	95	4
87	89	3
87	98	5
62	84	5
58	58	20
25	25	9
39	40	10
26	27	6
53	53	22
97	100	4
94	94	20
49	49	33
65	65	31
89	89	28
64	65	7
42	52	3
70	71	9
42	42	30
36	37	5
57	58	9
96	97	10
82	88	3
46	55	4
24	24	8
24	54	2
67	70	2
85	89	4
70	70	27
96	98	4
83	83	15
95	97	10
74	75	5
66	67	7
42	43	13
63	67	1
65	71	2
30	30	7
88	94	1
85	101	5
62	62	19
46	47	7
95	96	5
46	48	4
78	79	2
54	54	9
93	94	5
44	52	2
58	59	4
51	55	1
85	92	2
27	27	8
74	76	3
84	86	1
28	29	3
91	93	4
62	86	3
57	65	2
56	57	9
49	50	11
41	44	2
90	92	2
79	96	1
94	96	6
48	53	2
100	101	2
84	87	2
78	99	1
61	86	4
47	47	12
57	74	3
32	34	9
31	37	4
54	55	3
95	98	3
98	99	5
100	102	4
94	98	5
35	38	3
65	67	1
44	66	1
74	100	3
61	89	3
42	44	1
45	54	1
71	71	11
89	101	2
43	58	5
45	46	2
83	84	3
55	58	1
83	94	1
58	68	2
71	73	2
58	74	1
28	36	1
39	46	2
32	32	4
47	50	1
43	44	2
64	66	1
98	101	1
82	96	2
34	38	1
25	26	3
82	87	2
89	92	3
82	85	2
88	89	3
79	99	3
20	23	2
30	38	1
80	83	2
90	91	2
52	53	2
36	38	6
22	22	9
52	55	2
87	94	1
30	36	3
58	67	1
47	49	1
59	65	2
87	95	2
52	79	1
81	87	1
34	35	2
87	93	2
76	82	1
34	37	3
79	97	1
27	37	1
67	71	1
69	71	1
45	55	1
40	41	4
40	50	2
66	81	2
87	100	1
73	78	1
25	27	1
50	52	1
66	72	1
48	50	2
52	63	1
76	99	1
66	71	1
61	63	2
99	101	3
47	54	3
85	86	1
80	86	2
24	26	2
74	77	3
82	84	2
36	39	1
82	86	1
57	59	1
74	78	3
97	98	1
66	69	1
58	75	1
80	97	2
38	39	2
82	101	2
59	80	1
33	48	1
81	82	3
41	45	1
83	86	1
49	51	3
73	77	3
80	88	1
60	99	1
89	90	2
65	68	1
35	37	1
88	96	2
27	28	3
87	97	1
83	88	1
60	86	1
33	34	1
39	55	1
86	98	1
40	56	2
37	38	1
84	92	1
46	51	1
45	51	2
91	98	1
42	55	2
22	25	1
39	47	1
91	99	1
48	55	3
48	51	1
28	28	1
53	55	1
89	98	1
86	92	1
65	72	1
71	77	1
60	63	1
51	54	1
81	84	1
73	74	1
