9	9	3
88	88	5
138	138	9
25	134	4
152	152	9
31	34	1
153	153	5
53	54	8
158	158	7
21	21	2
150	152	2
92	92	10
61	89	4
134	134	9
108	112	6
63	63	4
132	147	5
17	17	4
23	23	8
95	95	5
82	82	15
77	77	10
31	31	5
50	50	5
107	108	1
103	124	5
136	136	5
54	55	1
15	16	3
154	156	4
93	118	3
19	20	9
8	8	20
30	42	3
3	4	4
76	76	7
116	116	6
97	97	5
85	97	1
105	105	6
44	44	7
129	129	12
78	140	3
79	99	4
103	103	4
106	107	4
154	155	3
36	36	9
122	122	9
119	119	5
49	49	6
110	135	2
1	2	2
11	11	4
28	28	2
125	133	4
4	16	3
129	130	4
111	133	3
142	142	3
19	19	8
13	89	3
102	102	6
57	57	2
9	10	5
124	138	1
87	87	3
142	154	1
77	140	3
115	116	5
30	46	3
28	94	3
131	131	8
56	56	6
130	130	18
49	52	3
30	30	3
144	147	1
7	20	3
28	29	6
27	27	6
143	144	4
156	156	6
142	144	7
22	22	2
66	66	6
101	101	4
47	47	6
85	85	16
84	84	5
146	157	1
125	125	4
91	98	6
157	157	6
13	17	2
108	108	12
52	53	2
150	150	5
68	70	1
113	123	5
35	36	5
147	147	11
27	94	3
145	145	5
111	111	9
78	78	3
153	154	4
70	71	3
107	138	4
107	107	9
35	35	6
99	99	8
95	133	2
107	117	1
54	54	5
121	121	12
95	96	2
126	126	3
132	132	6
25	26	9
81	140	3
10	57	6
90	90	3
80	82	5
124	125	1
45	45	11
51	51	4
114	129	2
56	82	2
112	112	2
110	110	3
117	118	1
128	128	7
24	24	9
40	40	6
7	8	3
122	137	2
25	25	5
10	10	6
110	111	4
63	130	3
82	151	3
56	57	3
25	92	1
52	52	7
48	52	2
2	2	4
3	3	9
143	156	2
91	119	4
5	5	11
113	114	3
24	99	2
82	148	2
69	69	6
12	118	3
69	70	3
37	37	1
4	4	3
67	69	3
48	48	4
65	65	5
154	154	2
33	39	2
20	20	12
100	100	7
78	141	2
52	54	4
146	147	2
62	63	1
123	153	2
9	11	4
81	81	5
12	12	5
104	104	3
44	55	4
123	123	5
79	82	4
91	92	3
135	136	3
83	85	3
92	118	2
64	140	3
118	118	12
91	129	1
149	149	6
93	133	1
44	45	5
37	53	2
15	15	7
0	0	3
124	124	3
26	26	3
105	128	3
141	141	5
68	145	1
97	98	4
20	22	2
45	47	1
32	51	2
7	7	1
141	142	4
71	82	2
27	55	4
145	154	2
9	13	3
33	33	2
7	19	3
136	140	2
20	21	2
23	24	6
96	97	2
70	70	9
86	86	7
96	96	2
132	133	2
67	132	1
48	49	5
122	125	1
106	106	3
94	94	1
144	146	1
39	39	5
110	117	2
81	82	1
90	92	1
72	72	2
117	117	6
120	142	1
141	156	3
6	6	3
18	18	6
155	156	5
24	25	1
108	110	2
98	98	2
156	157	3
50	92	5
127	127	3
66	68	1
64	145	2
80	80	2
30	45	4
88	89	2
41	47	2
43	43	3
10	54	3
53	53	5
62	64	1
4	30	2
30	43	1
98	136	2
11	12	1
69	88	1
129	147	3
24	26	2
148	149	1
21	28	2
78	137	1
148	148	9
122	124	1
28	49	2
152	159	1
83	86	3
15	39	3
0	1	1
119	120	1
14	98	1
7	11	1
80	109	3
70	89	2
51	52	1
64	88	2
134	141	2
139	140	3
41	41	5
113	113	4
39	40	3
32	33	1
18	23	3
1	5	1
133	152	1
29	29	3
12	13	6
23	106	4
125	126	2
93	127	2
140	140	6
66	80	2
99	132	2
75	75	5
21	22	1
49	69	1
83	87	2
106	110	2
114	114	1
75	99	1
41	42	4
31	33	1
76	78	2
137	138	3
90	118	2
3	19	1
143	155	1
53	68	2
107	109	2
27	35	3
68	68	2
64	64	2
17	18	3
92	113	1
30	31	2
13	14	3
131	148	1
48	71	1
22	25	2
93	95	4
64	158	2
131	152	3
16	16	3
117	138	2
83	84	1
3	56	2
122	139	1
36	143	1
65	143	1
85	86	1
18	152	1
56	135	1
25	51	1
67	92	1
26	33	3
139	141	1
152	154	2
42	42	1
89	89	4
90	91	1
78	84	1
120	120	4
76	111	3
38	38	3
43	52	2
29	32	2
77	137	2
144	145	1
93	93	2
25	141	2
75	110	1
0	21	2
3	131	1
131	146	1
8	14	1
56	141	1
28	31	1
55	55	2
18	20	1
33	35	2
48	54	2
67	118	3
153	157	1
121	125	2
112	121	1
95	134	1
98	135	1
106	135	1
144	144	1
79	79	1
106	134	1
25	38	3
154	157	3
105	107	1
67	157	1
72	134	1
131	140	1
31	36	1
92	127	3
112	136	1
128	151	2
90	149	2
67	67	1
46	46	3
91	141	1
69	107	1
31	57	1
136	138	1
120	137	1
14	15	5
115	115	1
30	44	3
86	87	1
151	151	1
111	124	2
149	150	2
25	29	2
25	65	1
77	104	2
65	72	1
47	54	1
137	137	2
143	143	1
94	128	1
96	134	1
146	146	1
26	27	1
85	95	1
83	151	1
107	118	1
46	47	1
4	8	1
54	88	1
111	112	1
15	17	1
98	155	1
78	83	1
146	155	1
14	14	1
51	53	1
109	109	1
38	43	1
53	145	2
84	85	1
148	152	1
73	73	2
39	42	1
8	10	1
142	146	1
70	98	1
133	135	1
94	133	1
