47	47	4
43	44	3
60	60	10
55	55	14
88	88	9
82	82	6
32	32	7
88	89	3
33	34	3
86	86	17
49	68	1
51	52	2
41	41	18
94	100	2
91	99	5
74	74	6
35	35	4
59	60	4
48	49	4
63	77	3
25	25	10
90	90	7
47	48	1
67	67	8
66	66	4
97	98	6
95	95	6
64	64	12
75	75	17
56	56	6
76	76	21
84	84	9
29	30	5
59	59	15
61	61	19
97	97	10
60	68	3
52	52	20
63	63	3
40	40	7
99	99	9
68	68	6
101	101	11
42	42	7
79	79	6
89	89	14
56	58	4
77	78	1
77	77	14
57	58	3
51	51	13
91	91	11
98	98	15
25	26	2
90	91	6
69	69	14
87	88	9
96	96	4
42	55	3
44	45	6
94	98	3
56	63	1
84	85	4
65	65	11
86	87	9
73	73	7
33	33	9
53	53	12
92	92	15
65	66	6
81	100	1
34	51	1
34	34	3
65	76	1
29	29	5
58	59	2
58	58	7
42	43	7
46	46	3
81	81	18
80	80	12
54	54	4
45	48	3
56	57	2
62	63	2
70	70	5
69	70	3
100	100	4
38	38	5
85	86	1
72	75	3
39	44	3
85	85	7
96	97	5
35	64	1
58	61	2
98	99	7
80	83	3
28	28	3
43	43	4
60	61	4
46	48	2
79	80	5
62	62	6
102	102	4
57	57	6
83	83	7
43	45	3
50	69	1
44	44	6
45	45	2
76	77	2
67	70	2
87	87	3
91	94	1
80	81	2
54	81	4
26	27	1
53	60	1
81	82	1
45	46	3
46	83	2
36	36	6
93	94	4
43	56	2
76	79	1
86	88	6
101	102	2
39	39	14
56	60	1
95	96	3
91	93	6
35	36	3
37	37	8
47	85	2
41	59	2
27	27	2
43	75	2
93	93	7
66	67	2
48	48	3
53	54	2
60	87	2
50	50	5
81	85	1
70	71	2
82	84	3
66	75	1
52	83	1
24	25	4
76	95	3
94	94	4
78	78	4
55	56	2
84	101	2
79	82	2
94	95	1
62	74	4
29	61	1
52	53	3
47	50	2
60	62	1
61	88	4
49	49	9
34	50	1
22	22	4
61	80	1
58	77	1
49	51	1
35	37	2
81	92	2
36	38	1
55	76	2
70	89	1
30	30	1
86	102	3
62	76	1
34	39	1
44	101	2
88	97	1
78	87	3
20	22	2
68	69	1
71	71	2
82	83	2
88	91	3
43	58	1
75	76	2
72	72	3
62	88	1
43	50	1
41	67	1
67	72	1
48	55	2
49	50	1
57	59	2
78	88	1
26	28	1
34	41	1
56	86	1
63	64	3
49	63	1
61	62	1
78	79	1
83	89	2
31	31	1
41	65	1
52	64	1
80	93	1
73	74	1
49	70	1
45	82	1
79	88	1
