106	106	6
71	71	10
98	98	14
56	57	5
86	88	2
77	87	4
56	65	3
122	123	3
120	123	2
75	75	11
66	67	9
121	121	9
61	61	7
74	74	16
68	68	8
8	8	3
103	103	30
30	30	13
126	131	3
112	112	10
52	52	6
0	0	6
129	132	5
118	118	5
113	117	2
71	74	1
120	120	13
16	16	6
121	122	1
11	55	1
57	57	15
115	115	6
74	91	2
128	128	11
100	101	1
117	123	3
81	81	8
19	22	2
79	79	13
78	79	3
120	121	9
11	11	8
60	65	2
123	127	3
98	99	4
66	70	1
50	50	11
69	69	10
132	132	4
2	31	3
116	116	5
92	125	2
88	94	2
31	31	3
59	64	1
93	93	14
105	105	4
115	116	11
124	124	20
49	53	2
71	102	4
14	27	6
106	108	8
73	73	7
118	120	8
12	12	9
72	72	12
99	99	6
119	119	15
13	20	1
82	98	9
67	67	11
111	111	11
65	65	11
106	107	6
28	28	9
126	128	3
82	82	11
63	63	8
37	38	3
82	85	3
94	96	2
96	96	12
126	127	2
59	59	5
88	90	2
103	104	1
126	126	10
87	87	5
86	86	8
101	102	1
1	2	1
132	133	7
127	128	5
26	69	3
20	28	2
66	68	2
76	76	3
1	1	9
44	47	2
80	84	2
28	29	1
122	122	17
119	120	4
30	33	1
117	117	20
90	90	13
108	108	15
52	58	2
50	52	5
76	77	9
3	3	10
126	129	3
118	119	4
47	53	1
13	28	1
78	78	12
134	134	3
99	112	4
84	84	13
0	2	4
22	22	5
104	104	9
43	43	10
24	24	10
7	7	3
16	20	2
130	131	1
20	69	2
110	111	10
123	123	10
83	83	7
89	127	6
105	106	4
107	108	9
133	133	7
71	72	3
62	62	6
70	70	16
17	17	5
114	115	4
114	114	8
58	59	4
14	17	2
68	69	2
72	132	6
34	34	2
60	61	4
83	98	3
129	129	19
8	9	1
44	44	5
100	102	2
85	86	1
100	109	2
81	129	2
124	127	1
56	56	2
94	94	15
2	3	2
53	54	2
26	26	10
60	60	7
38	38	3
48	95	1
95	96	6
131	131	10
79	80	8
35	35	5
60	66	2
116	118	2
100	105	2
109	109	5
62	64	1
50	57	1
127	127	8
123	126	1
54	54	9
59	60	1
56	66	2
45	45	6
47	59	1
6	6	2
55	55	3
5	5	5
33	33	1
107	110	2
113	113	2
53	53	8
116	117	4
97	97	3
95	118	1
106	110	3
106	127	2
30	32	7
133	134	4
90	91	4
107	128	10
74	75	1
14	15	8
54	56	1
65	68	4
57	58	3
79	82	1
62	65	3
52	60	1
77	79	1
29	29	4
125	125	5
49	49	1
85	85	7
86	87	4
83	84	3
77	81	3
95	95	2
43	91	2
66	69	2
113	114	8
82	86	3
113	115	3
59	72	2
117	120	6
47	47	1
23	26	2
48	49	5
112	116	1
0	3	2
124	133	1
10	10	1
130	130	2
37	37	1
71	120	3
80	80	6
31	33	3
127	129	1
102	102	5
67	69	5
102	103	5
85	121	2
10	56	1
27	27	8
72	131	3
45	46	3
98	100	4
124	131	2
5	6	2
85	88	2
67	70	1
4	4	3
109	111	2
124	125	6
77	78	7
56	67	1
80	81	3
87	88	4
16	28	3
50	56	2
45	79	3
37	79	2
15	24	2
133	135	2
113	116	2
130	133	3
30	119	2
112	115	2
52	53	1
13	13	1
96	97	2
34	36	2
55	56	3
4	5	3
62	63	1
34	37	1
99	100	2
87	98	2
89	89	5
93	123	1
104	105	1
112	113	1
54	55	2
122	124	1
18	27	2
32	69	4
129	130	4
116	127	7
97	98	2
92	94	2
84	85	4
127	130	1
108	109	3
82	83	1
50	55	1
57	64	1
15	17	3
110	113	2
3	5	1
89	90	3
73	74	3
88	88	7
100	100	5
27	28	2
68	87	1
6	7	1
107	107	2
127	132	2
94	95	1
107	122	1
130	134	1
109	110	5
43	89	2
59	63	2
37	78	2
66	66	3
58	60	1
74	89	1
108	110	3
55	66	1
32	33	2
23	25	1
64	64	3
126	134	3
14	14	5
19	23	1
13	17	2
19	20	1
120	124	1
7	8	2
106	109	1
5	7	1
125	130	1
123	124	1
31	32	1
22	66	1
83	87	1
92	92	3
110	110	5
75	76	1
26	27	1
117	119	2
6	8	3
101	106	4
37	80	1
10	11	1
25	25	1
30	31	1
32	32	3
99	102	1
93	127	1
11	13	3
21	21	1
91	92	2
24	25	2
45	48	1
105	115	1
64	65	1
15	16	1
33	92	1
101	101	1
69	70	1
119	121	1
110	118	1
63	64	1
128	129	1
95	97	1
58	66	2
127	133	1
89	134	1
11	113	1
20	65	1
118	121	1
44	45	1
58	58	1
4	14	1
63	65	1
102	134	1
28	103	1
106	111	1
62	68	1
95	108	1
15	15	1
23	65	1
58	65	1
108	117	1
