76	76	8
30	38	5
60	60	22
79	79	14
72	73	2
31	31	9
113	113	9
59	60	4
36	36	11
74	74	9
98	112	3
91	91	11
101	101	9
26	26	12
84	85	5
107	107	23
79	80	7
25	32	3
101	102	9
87	87	5
106	106	18
30	30	17
62	69	2
30	31	5
74	75	6
105	107	7
63	63	22
111	111	13
36	39	7
94	94	10
88	88	12
33	40	4
60	62	1
62	74	4
99	99	18
75	75	10
65	66	11
41	41	23
50	50	8
68	69	8
35	35	23
42	43	9
42	45	3
23	24	3
42	42	9
112	112	19
62	63	6
92	92	14
95	96	11
60	61	9
34	36	7
39	39	19
86	93	1
83	83	32
85	85	23
86	105	5
86	89	6
74	76	3
27	28	7
97	97	10
98	98	15
84	84	17
35	40	5
110	111	8
67	68	4
77	83	2
58	58	14
81	109	4
105	106	7
22	22	7
38	50	4
24	24	12
52	52	12
25	26	8
86	102	6
101	103	6
25	25	4
37	38	7
47	49	3
61	61	10
44	52	2
78	81	1
19	20	8
73	75	1
70	70	10
89	89	9
64	64	7
90	91	20
31	32	2
71	71	11
29	31	4
62	62	1
97	111	2
82	82	11
82	91	5
100	101	10
57	58	6
96	96	9
107	111	2
27	27	10
33	33	12
65	86	2
47	48	9
48	48	4
42	44	6
43	43	14
71	74	1
59	61	2
62	64	3
59	59	6
66	67	3
94	101	2
32	32	9
105	105	14
99	101	6
103	103	17
33	41	2
46	47	2
94	95	5
102	102	6
68	71	1
28	29	3
81	81	12
34	40	4
54	54	11
69	70	13
43	53	1
78	78	11
20	23	2
57	57	5
49	50	8
38	38	8
104	105	6
83	84	4
90	90	20
49	49	8
70	71	8
54	57	4
77	78	2
43	44	16
47	47	14
83	85	7
48	49	5
71	86	1
91	93	6
64	67	1
88	89	6
86	86	3
37	37	6
35	37	7
19	19	2
56	56	6
93	93	4
104	104	10
46	46	8
40	41	3
68	68	2
102	103	2
114	114	5
23	23	6
44	44	10
65	65	5
40	40	8
94	102	3
60	68	3
54	56	6
85	104	4
79	81	4
80	80	12
39	50	1
64	65	4
51	51	5
22	75	1
55	58	1
45	45	5
21	21	8
38	39	6
104	109	4
78	80	3
103	104	5
54	58	3
54	67	4
63	65	3
99	100	6
73	74	10
106	107	2
110	115	1
99	103	4
22	23	6
64	85	2
54	55	2
50	53	2
110	110	9
66	66	7
65	72	2
26	27	2
66	69	1
75	77	4
97	98	3
100	100	8
85	86	3
99	108	1
47	50	1
32	77	2
86	87	8
36	37	9
82	86	2
109	110	7
33	34	11
29	30	1
32	74	4
32	71	1
26	29	2
28	28	10
39	91	1
25	71	5
95	95	13
78	79	11
34	34	5
45	46	1
41	42	2
82	93	3
77	77	11
84	100	3
62	66	1
35	39	2
32	33	3
77	81	1
34	37	3
58	59	7
93	102	6
55	56	2
90	92	2
49	51	5
37	39	3
39	88	2
31	44	1
84	105	1
52	53	4
35	36	5
53	55	5
40	45	2
72	82	3
72	78	4
67	67	9
38	41	3
63	71	2
108	108	10
83	93	1
98	102	1
69	86	1
82	84	2
46	48	3
63	64	2
33	73	1
87	105	4
103	107	3
20	24	2
50	51	8
26	28	4
74	77	1
69	75	1
66	68	1
72	72	3
47	51	1
40	89	3
20	21	2
111	113	2
85	103	3
34	35	2
53	60	1
88	91	2
107	110	3
109	109	4
38	40	3
38	90	3
20	20	3
24	27	1
98	99	1
25	29	1
73	76	4
29	29	5
22	73	3
64	71	2
29	35	2
77	82	2
61	71	2
82	85	4
53	53	5
108	111	1
95	99	2
58	74	2
26	36	5
72	74	1
107	109	1
96	97	5
75	76	1
36	38	1
103	105	1
54	64	2
36	71	2
71	75	1
104	107	3
96	99	1
25	37	1
25	30	1
50	68	1
88	90	3
107	108	2
55	55	2
37	40	1
31	36	1
69	87	1
51	52	3
85	91	1
73	73	7
69	69	6
24	85	1
54	61	1
33	42	3
44	45	1
58	61	2
112	113	2
32	34	1
39	71	2
33	77	1
53	54	1
82	83	1
87	88	1
91	92	1
27	29	1
71	87	1
93	94	3
32	36	1
41	45	1
75	81	1
96	105	2
29	40	1
25	28	1
100	109	1
58	62	1
84	88	2
63	72	1
99	107	1
96	101	1
50	52	2
89	90	1
32	35	1
82	105	1
57	68	1
