65	65	6
231	231	5
159	159	10
108	108	5
168	169	14
110	110	7
209	209	8
117	117	12
61	61	8
39	39	3
177	177	17
14	14	5
52	52	7
30	30	5
151	151	14
153	160	3
25	31	5
245	245	6
63	63	9
232	232	11
227	227	10
184	184	4
193	194	6
220	220	10
102	108	4
195	210	4
82	170	2
60	60	5
79	81	2
105	106	2
235	235	2
172	172	13
79	79	5
34	34	5
90	91	5
66	67	6
99	100	1
71	71	1
102	102	7
164	164	9
198	198	2
166	166	12
61	62	2
147	147	6
111	111	7
199	200	4
102	247	2
208	208	9
112	112	3
21	21	10
79	80	4
205	205	7
162	167	1
45	45	5
96	96	5
157	160	1
234	234	11
59	66	1
49	49	3
185	185	8
71	72	9
199	199	8
216	216	9
74	74	5
22	24	1
238	238	11
105	105	1
149	149	4
172	176	1
38	38	7
27	27	3
219	219	7
66	66	8
209	210	4
28	28	17
202	202	22
221	221	12
160	160	7
201	201	7
186	186	12
157	171	1
56	57	4
182	182	14
84	118	5
192	192	10
197	197	7
2	2	4
76	77	7
208	215	1
84	84	9
214	215	10
189	189	12
73	73	3
13	13	1
156	156	6
4	5	7
208	230	2
5	5	2
153	154	2
109	109	15
152	176	1
150	150	7
165	165	12
24	32	1
210	211	6
20	20	10
87	88	2
244	245	1
173	173	10
107	107	5
194	218	5
87	87	3
180	180	12
33	33	4
191	192	3
72	73	4
214	214	17
35	35	1
47	51	4
37	37	4
153	159	1
181	181	14
166	171	2
209	232	2
208	209	8
24	24	2
196	196	4
48	120	4
240	240	6
50	118	1
213	213	17
207	211	1
188	192	1
113	113	5
115	115	2
168	168	12
224	224	8
188	188	2
67	87	3
69	111	1
29	29	3
18	18	8
101	103	2
96	97	2
70	70	4
49	105	2
217	217	5
54	94	2
217	230	8
43	43	10
226	226	11
184	185	7
32	32	3
166	179	4
83	83	5
186	188	1
111	112	5
25	168	2
107	113	3
2	3	2
46	46	8
57	58	2
162	163	2
60	64	3
69	70	2
222	222	3
86	86	2
47	48	3
239	239	8
242	242	2
225	225	7
40	52	1
36	36	5
206	206	4
187	189	2
96	101	3
94	94	4
120	120	7
53	53	12
174	174	7
149	150	1
159	160	5
98	98	10
165	195	1
80	81	3
22	23	2
5	15	1
8	35	2
11	11	7
208	213	3
95	117	4
88	89	6
83	84	7
193	193	3
190	190	3
24	29	2
158	158	1
81	81	5
218	220	5
164	180	1
163	183	1
173	179	6
210	210	7
200	200	6
209	215	2
4	4	1
55	56	3
14	15	6
77	77	6
248	248	2
152	166	1
26	168	2
186	208	2
95	95	6
207	207	6
243	244	4
4	11	4
247	248	3
100	100	7
13	14	3
175	199	4
115	116	1
101	119	4
212	212	2
46	65	2
17	17	4
183	183	5
68	112	5
70	71	2
155	156	3
118	118	4
111	118	1
48	60	3
116	116	6
89	89	4
44	44	5
82	82	11
12	47	4
36	37	4
239	240	4
117	180	2
71	181	5
155	155	10
165	166	8
228	228	3
198	199	1
58	58	5
145	145	4
209	213	5
247	247	7
9	9	2
56	66	1
114	114	4
60	62	8
176	177	2
112	244	4
162	162	2
68	69	2
104	104	2
174	176	4
184	199	1
92	92	8
49	111	2
113	114	1
65	108	1
172	173	1
221	224	1
164	172	3
155	224	4
99	99	7
152	152	5
200	201	3
237	240	2
210	215	3
8	8	3
233	234	6
194	194	1
190	192	1
216	217	1
41	41	5
157	180	4
72	74	3
229	230	4
163	165	2
77	78	5
78	78	5
25	26	2
197	199	1
76	76	1
79	101	3
166	204	2
59	60	3
15	47	2
77	79	4
169	170	2
216	241	1
205	226	3
158	160	1
53	54	2
214	247	3
23	23	5
218	221	2
42	46	2
171	171	3
89	90	4
80	80	7
76	86	2
92	114	1
91	92	4
241	246	2
100	101	3
237	237	8
240	241	1
28	145	7
23	26	1
181	182	2
51	51	2
181	184	3
119	119	9
186	193	4
146	147	2
35	36	2
73	168	2
33	34	2
156	157	3
93	93	2
215	215	3
191	191	5
60	61	3
234	240	2
170	170	11
236	237	1
169	169	5
54	54	11
202	206	2
235	236	1
15	34	1
41	42	4
52	53	1
217	247	1
162	182	2
169	175	1
237	243	2
201	202	1
48	50	5
55	60	3
153	153	8
79	109	4
179	179	3
197	198	1
15	26	1
195	196	3
187	187	1
42	43	1
17	28	1
211	213	1
213	214	6
81	84	2
157	157	3
59	59	4
50	51	2
175	178	3
206	207	2
241	242	2
68	88	2
176	176	10
234	235	3
202	226	1
65	66	2
203	203	7
73	95	1
154	154	4
85	85	2
73	103	2
188	211	1
152	153	2
74	106	2
22	22	1
184	188	2
23	24	1
156	161	1
187	190	3
165	167	1
37	38	1
65	170	1
15	16	2
26	26	4
44	45	1
41	43	3
204	204	10
193	218	1
102	103	2
68	244	1
168	175	1
168	170	2
40	40	1
244	244	3
189	190	3
231	232	2
54	55	1
218	219	2
230	231	2
69	71	2
110	236	1
180	181	1
56	58	1
205	206	3
204	241	1
1	1	1
209	212	5
90	90	3
73	74	2
62	64	2
186	200	3
109	236	1
225	235	3
245	246	1
57	57	2
151	178	1
7	7	4
232	233	1
245	247	1
236	249	2
101	101	2
26	113	1
153	200	1
146	146	2
64	64	5
96	118	1
47	64	1
207	208	2
118	119	2
86	87	6
160	179	1
225	226	1
76	101	1
88	88	2
88	91	2
26	27	2
190	191	3
196	198	1
86	92	1
47	111	2
84	85	1
16	16	1
85	86	4
32	33	3
71	182	4
178	178	2
49	118	1
42	42	1
218	218	3
243	243	1
237	242	1
91	91	2
164	165	2
233	233	2
207	233	3
223	223	3
181	189	1
82	83	2
68	114	1
243	246	2
68	110	1
209	211	1
216	247	2
148	233	1
82	106	1
15	15	2
195	217	1
168	219	1
167	167	1
246	246	3
179	180	1
177	178	3
55	55	2
78	115	1
71	74	2
108	109	1
59	95	2
223	225	1
171	172	1
25	25	3
31	31	1
147	225	1
7	8	1
56	64	2
188	210	1
90	92	1
195	195	1
70	85	2
144	246	1
227	228	1
17	34	2
105	108	3
69	69	1
94	95	1
48	178	1
238	248	1
48	63	3
69	87	1
55	61	1
216	230	1
111	244	1
234	238	1
236	236	2
106	106	1
70	103	1
145	197	1
73	182	1
113	115	1
169	171	1
75	105	2
157	179	1
168	220	1
50	72	1
242	246	1
92	93	2
71	73	3
166	167	1
158	165	1
175	176	1
231	234	1
228	230	1
229	229	3
112	113	1
186	192	1
217	219	1
170	173	2
10	10	1
15	33	2
202	234	1
19	19	1
153	167	1
163	163	1
163	164	1
188	194	1
211	211	1
51	153	1
12	12	1
207	238	1
47	47	1
75	75	1
67	110	1
11	12	1
90	114	1
161	212	1
6	8	1
203	204	1
104	105	1
105	107	1
