32	36	5
6	6	13
8	10	3
40	40	18
97	97	26
117	117	22
139	139	8
71	72	4
63	104	1
110	110	11
96	96	4
84	96	1
5	5	17
133	138	4
86	87	2
61	63	1
10	11	3
136	136	13
37	48	2
132	132	7
78	79	10
133	133	9
98	98	8
93	93	7
8	8	7
112	117	4
130	130	20
23	59	2
65	65	4
48	48	7
85	92	1
69	69	16
83	83	12
142	144	2
42	42	15
131	131	15
118	118	20
90	91	3
30	30	18
120	122	2
23	23	12
121	123	1
68	68	8
4	9	1
64	64	11
114	116	3
50	56	1
120	120	8
142	142	11
79	79	4
129	129	8
63	65	4
145	145	8
37	37	30
141	142	6
0	0	10
43	43	3
104	104	23
77	79	2
13	54	1
134	135	9
83	140	7
84	84	7
91	91	7
127	127	14
27	27	19
134	134	19
118	144	2
53	54	2
29	128	1
96	97	10
1	10	2
126	126	25
15	15	5
85	86	2
102	103	1
100	101	4
23	58	1
18	22	2
127	128	2
93	94	3
94	99	4
49	49	13
70	71	9
86	86	7
20	132	4
0	1	4
97	98	8
54	54	9
78	78	10
33	33	4
1	16	4
70	70	8
108	108	10
88	88	9
122	122	16
41	41	10
115	115	4
1	1	5
129	130	8
35	35	16
55	55	18
39	39	10
36	36	10
86	97	2
124	125	7
105	105	13
30	141	1
98	110	2
1	26	4
110	111	6
93	136	3
25	125	2
136	137	3
57	59	1
99	100	7
26	26	9
92	92	13
57	57	15
57	131	1
111	111	18
92	133	1
140	140	14
119	119	9
2	2	8
24	24	8
72	72	15
144	144	6
56	57	6
73	73	4
2	3	4
73	74	5
74	74	4
77	77	21
108	111	1
113	113	7
113	114	2
31	33	2
99	99	10
51	51	3
61	61	11
135	135	11
21	21	7
17	19	3
126	130	4
115	118	2
125	126	3
64	105	2
95	95	10
82	128	1
19	53	2
89	109	4
87	95	3
34	34	8
24	58	1
123	123	19
90	90	5
59	60	2
89	89	14
24	25	4
3	4	1
51	52	9
95	96	8
57	58	2
136	138	2
70	118	2
41	130	2
60	60	8
80	111	2
132	139	2
12	16	1
64	108	2
18	19	1
73	122	1
125	125	15
137	138	5
135	138	2
116	133	3
34	35	4
135	137	2
66	67	4
104	105	5
120	142	1
89	90	9
73	143	2
50	50	14
36	37	9
32	65	2
4	4	10
66	66	10
20	27	1
141	141	10
82	82	4
75	75	9
124	124	6
30	31	3
91	113	4
123	135	3
117	144	1
140	141	9
103	103	12
76	79	4
92	136	5
123	124	4
17	26	4
14	14	10
96	105	5
52	131	3
106	138	2
31	136	1
33	62	3
32	98	4
101	102	1
116	118	1
98	99	2
17	18	2
101	101	7
6	11	2
63	63	5
97	140	1
82	121	3
136	140	1
137	137	6
116	116	5
97	104	3
82	120	1
14	30	1
111	118	1
76	76	13
79	80	2
74	83	3
4	33	3
59	59	5
146	146	7
36	60	3
120	121	4
28	28	2
58	59	3
47	48	3
5	6	2
128	128	6
30	95	2
116	117	3
21	48	2
24	124	4
85	85	7
77	99	2
121	121	9
34	36	2
67	68	3
83	85	2
138	138	6
18	18	9
99	103	6
53	55	3
28	30	2
6	9	1
122	135	2
33	100	2
15	16	6
66	110	3
80	80	9
109	109	13
56	56	7
138	139	6
29	29	15
114	115	10
37	39	2
94	107	1
112	114	7
82	103	2
102	102	23
16	16	8
115	117	2
111	140	4
28	29	4
49	50	6
55	56	4
75	76	3
71	71	4
83	104	3
52	52	14
135	140	2
48	96	2
59	61	3
128	129	3
59	122	3
22	22	6
37	89	1
100	100	7
113	138	2
69	70	9
107	111	4
105	134	8
107	107	7
9	9	9
72	117	4
57	79	1
16	26	2
81	81	4
85	115	3
92	93	2
94	94	5
38	38	2
112	113	6
109	136	6
90	135	2
67	130	2
43	125	1
86	88	1
87	92	1
92	104	2
17	17	3
67	67	6
88	113	1
106	106	9
11	132	1
6	29	2
11	11	4
110	113	5
113	135	1
107	108	9
22	27	2
38	40	1
87	93	3
11	13	2
95	105	5
114	118	4
122	123	8
135	136	4
13	13	6
131	137	2
37	38	3
62	62	5
25	120	1
58	58	9
72	75	2
105	131	3
56	88	1
143	144	2
99	124	2
19	19	1
86	112	1
19	20	4
77	131	2
65	84	1
70	120	1
27	28	1
36	58	2
60	70	1
14	16	1
30	143	1
85	87	1
66	109	2
100	103	1
2	26	2
77	122	2
95	141	2
60	62	1
40	124	3
23	24	3
3	3	6
122	142	1
83	95	3
46	48	3
36	38	3
66	73	1
83	84	1
143	143	6
118	133	2
132	133	2
63	74	2
60	61	3
21	43	1
36	47	2
68	73	2
22	24	2
65	68	2
39	53	3
20	55	2
24	26	3
139	140	7
70	73	1
13	14	1
32	86	2
96	104	2
98	140	1
12	13	4
10	10	6
89	110	2
16	20	1
74	130	1
109	110	2
85	98	3
98	118	1
53	120	1
113	131	1
31	31	8
119	125	1
76	77	3
53	53	5
100	107	3
58	125	1
83	88	2
14	68	2
105	106	3
62	133	2
43	69	1
61	75	1
92	94	1
131	132	1
62	63	2
134	138	1
115	116	7
118	126	1
48	49	1
77	78	1
127	130	4
19	21	1
5	16	1
25	25	7
31	84	2
32	39	1
120	141	3
94	104	2
118	119	7
112	112	2
105	107	1
145	146	5
4	6	2
50	53	3
33	34	2
38	41	2
133	141	1
81	135	2
29	102	1
75	133	2
23	39	1
64	65	5
111	112	2
101	143	1
47	84	2
9	10	1
133	135	1
87	87	2
77	80	1
84	140	1
3	34	3
94	109	2
79	102	1
32	33	4
73	84	1
0	4	2
92	138	2
28	42	2
62	64	2
35	62	1
2	5	1
92	108	2
47	51	1
78	133	1
74	76	1
32	32	5
73	112	1
93	108	1
83	86	1
94	111	1
43	46	2
85	118	1
96	98	1
54	87	1
108	133	1
89	129	2
39	128	1
7	12	1
9	12	1
77	112	1
94	131	1
38	43	1
57	61	1
29	30	1
103	115	1
101	123	3
40	41	1
54	55	2
13	43	1
54	56	3
102	109	1
112	138	1
85	132	4
30	66	1
119	123	1
125	127	2
53	56	4
117	133	3
5	14	1
115	135	1
57	95	2
32	87	2
81	95	1
85	97	2
22	59	3
79	138	1
68	71	2
9	27	2
18	143	2
49	90	1
101	103	1
27	75	1
21	22	1
111	137	1
121	140	2
127	129	2
69	131	2
105	130	1
97	112	1
65	66	1
37	53	1
61	131	2
133	134	5
66	84	2
33	36	1
85	139	1
70	110	1
20	21	2
102	129	1
95	113	1
70	72	1
95	143	1
134	136	1
20	20	3
117	135	1
133	139	1
111	131	1
142	143	1
5	8	1
108	118	1
55	57	1
76	138	1
36	109	1
48	62	3
17	22	1
110	138	1
65	110	1
50	51	1
3	32	1
2	31	1
129	143	1
8	30	1
90	120	1
49	51	1
58	144	1
117	136	1
70	92	1
81	111	1
33	105	1
13	137	2
21	24	1
61	64	1
47	47	2
78	131	2
121	122	2
75	128	1
131	135	1
92	109	1
48	145	1
80	82	1
85	120	1
41	124	1
9	23	1
89	130	2
87	108	2
103	130	1
29	41	1
68	83	1
141	144	1
75	81	1
55	141	1
9	26	1
59	97	1
