112	116	3
121	121	4
111	111	10
34	34	8
116	117	5
30	30	7
4	34	5
126	126	14
102	102	4
98	98	10
51	75	6
78	134	2
19	19	24
61	61	7
97	98	4
92	132	3
84	84	12
32	32	10
69	139	6
132	132	5
123	135	4
13	13	6
54	54	6
117	117	5
50	51	10
20	20	8
1	125	1
94	95	3
54	55	1
57	57	6
3	84	3
51	51	5
75	75	6
123	124	3
114	116	10
8	8	11
125	125	5
77	77	13
35	41	3
25	26	5
3	3	6
23	23	9
17	17	11
114	114	13
14	14	9
137	137	7
143	143	7
76	95	5
37	39	2
78	78	4
31	37	3
2	3	3
58	58	7
67	80	1
59	61	2
104	104	4
2	2	11
69	69	2
18	18	6
4	4	6
76	78	6
6	6	13
97	97	15
142	142	11
76	76	10
12	128	5
74	74	6
73	73	17
11	11	8
56	56	4
83	114	2
127	127	5
79	79	13
118	118	14
60	98	4
91	91	9
77	78	4
31	40	2
126	136	1
62	63	11
90	90	11
115	115	6
131	132	6
105	106	2
16	39	1
39	39	11
132	137	1
94	94	8
118	134	2
95	95	10
116	116	8
139	139	9
104	107	3
113	117	2
8	15	4
66	71	3
42	42	6
76	121	3
123	123	16
122	122	5
66	66	6
84	133	1
108	112	5
52	52	10
131	131	13
53	66	1
20	33	1
71	71	5
26	26	4
71	72	3
14	39	1
50	50	9
67	67	5
118	133	4
36	36	6
129	130	4
65	65	5
142	143	2
134	134	19
103	103	9
129	143	2
89	90	6
125	129	5
133	133	21
12	13	7
124	124	12
144	144	1
110	128	2
5	6	4
34	36	5
85	88	2
51	76	3
49	49	3
82	82	7
107	107	14
5	5	6
83	94	5
146	146	3
96	97	3
73	75	10
110	111	2
65	111	1
40	40	5
28	28	4
138	140	1
128	130	3
18	19	1
0	1	2
88	88	8
121	137	1
140	140	11
78	96	4
119	119	7
29	29	11
10	10	2
24	25	2
85	85	3
109	109	13
124	125	2
130	130	7
35	35	3
47	85	4
1	32	2
128	128	12
109	110	4
61	64	3
33	34	7
137	138	2
55	66	7
60	60	7
83	113	3
90	95	1
59	64	1
67	138	3
82	114	2
136	137	6
68	68	3
48	48	5
19	20	3
20	21	11
13	14	6
11	17	1
136	136	1
32	33	4
99	100	4
100	100	6
3	4	3
21	21	5
138	139	5
49	79	2
61	114	4
80	102	6
64	79	4
87	91	3
81	81	9
16	17	5
126	131	1
58	64	2
76	131	2
135	135	7
141	141	7
120	120	4
0	0	2
78	80	1
128	129	2
80	80	14
145	146	3
126	127	5
76	130	2
92	93	3
53	53	8
70	70	8
72	130	6
110	113	1
127	130	5
105	105	12
108	132	2
95	107	2
66	135	2
35	145	2
102	121	3
84	85	2
53	68	4
52	75	2
72	75	3
87	92	2
32	35	3
64	65	2
49	52	1
92	92	5
16	16	5
83	92	1
93	96	2
24	24	5
76	77	8
83	127	3
10	21	4
29	60	2
73	74	5
104	140	3
63	115	2
135	140	4
125	136	1
105	132	3
121	123	2
1	87	4
80	81	6
119	120	3
23	24	5
41	41	4
25	39	2
63	64	2
113	113	13
27	27	9
59	62	5
133	134	5
83	83	2
49	50	3
20	24	2
72	72	5
31	31	6
145	145	5
33	33	6
123	132	3
68	69	4
25	25	3
21	33	3
38	38	3
93	94	3
118	131	4
2	4	4
0	34	1
53	65	1
39	43	1
15	15	7
0	40	2
131	133	2
54	66	2
55	56	1
62	62	6
103	104	4
69	70	2
63	63	4
34	35	3
104	117	3
86	93	1
85	92	2
86	86	3
14	124	2
48	77	2
52	74	2
95	96	2
134	139	3
63	117	2
59	60	3
46	46	7
126	143	1
118	120	1
138	138	8
105	108	3
87	95	1
110	131	2
126	137	3
88	91	2
61	105	3
9	9	2
117	118	4
93	93	5
61	69	2
135	136	1
53	57	2
101	102	5
58	97	2
26	28	1
53	58	2
112	132	2
22	22	3
102	103	4
120	121	2
57	128	2
129	129	8
112	112	6
129	144	1
21	26	4
116	119	2
17	18	2
27	28	1
141	143	2
96	105	3
54	63	3
106	106	2
96	96	5
3	90	1
49	70	1
88	93	1
118	119	1
125	137	3
116	118	3
16	38	6
81	82	1
117	120	5
1	126	2
141	142	3
82	128	1
36	37	3
19	32	2
136	138	1
6	11	1
99	99	5
102	144	3
1	1	4
66	67	1
66	124	1
97	108	2
70	78	3
134	135	3
101	101	5
81	102	2
121	122	1
20	63	1
58	98	1
47	47	2
107	108	2
89	89	2
83	85	2
19	22	1
94	114	1
129	140	1
1	43	1
71	130	4
84	136	1
130	131	1
40	41	2
114	125	1
137	143	1
31	32	1
118	140	1
118	141	2
66	79	2
98	111	1
76	79	1
20	32	2
85	93	3
125	128	1
58	59	1
85	106	2
71	75	1
53	69	1
6	31	3
78	112	1
67	68	1
110	110	4
13	33	1
3	31	1
50	77	3
2	5	2
126	129	2
82	83	1
106	107	2
79	114	2
100	101	3
60	89	2
55	55	3
93	95	1
64	64	2
13	15	1
5	36	1
41	117	1
122	130	1
126	130	1
77	121	1
62	64	1
6	16	2
65	77	2
77	79	1
56	100	1
111	113	1
33	35	2
75	76	1
39	125	1
61	62	2
37	37	2
126	144	1
122	123	1
1	124	2
94	115	1
35	36	1
14	15	1
66	75	2
59	69	1
12	12	1
122	141	1
86	98	1
92	118	1
60	99	1
1	2	1
64	66	1
110	116	1
137	139	1
30	31	2
84	127	1
2	33	1
52	133	1
127	129	1
70	72	1
0	41	1
