46	46	15
127	127	2
84	84	3
44	45	4
37	106	2
135	135	6
129	129	9
42	42	7
42	43	4
150	150	12
92	92	14
109	109	13
43	43	6
23	23	6
78	78	2
9	9	8
14	16	1
41	41	16
149	150	6
4	5	7
76	77	5
115	117	2
19	24	5
14	14	2
69	72	1
121	121	9
63	70	3
65	66	1
41	42	1
12	12	15
49	69	9
80	123	10
118	131	1
47	47	5
123	128	5
133	135	5
71	71	4
13	37	5
67	69	3
70	71	2
21	21	12
53	53	7
38	38	7
128	128	4
24	24	9
10	10	5
130	130	4
86	87	2
38	39	6
76	76	10
48	48	21
11	11	8
41	43	4
37	37	13
112	112	6
47	48	1
58	58	5
5	5	1
35	35	2
137	137	2
15	16	6
107	107	15
115	119	2
116	116	12
62	62	13
83	83	1
152	152	6
77	77	11
20	20	10
26	26	6
96	98	1
15	15	14
17	17	11
5	6	4
65	65	10
82	94	4
125	126	4
33	35	1
19	19	7
72	137	1
73	73	3
80	81	1
144	144	4
55	55	3
53	54	4
101	103	1
82	82	2
69	69	6
118	119	6
132	132	5
86	86	3
74	74	6
13	13	10
93	93	7
64	65	8
39	39	4
36	38	4
40	40	7
54	55	1
107	109	1
23	48	4
146	147	3
40	41	4
78	97	2
44	44	2
102	102	6
131	131	2
110	111	2
153	153	9
114	116	1
51	51	4
104	104	2
64	64	6
96	96	1
25	25	7
103	103	5
45	70	3
119	130	1
6	6	5
106	108	2
118	118	7
57	57	6
105	105	1
38	40	3
22	23	8
21	23	4
94	94	8
81	82	4
4	4	6
48	49	5
39	114	3
8	9	6
127	129	3
25	26	1
100	116	2
114	114	10
132	135	4
149	149	9
10	54	2
8	8	12
124	125	2
68	69	5
87	147	2
70	70	9
38	48	1
106	106	6
68	68	2
22	22	7
87	88	2
81	139	2
26	27	5
11	24	4
12	15	2
11	108	1
101	102	2
67	67	9
32	32	4
107	108	2
3	4	2
52	65	5
12	16	1
56	57	1
114	115	1
102	106	1
101	101	3
74	75	2
31	31	8
142	144	3
150	151	3
63	64	9
54	57	1
122	122	4
44	135	1
81	81	6
137	142	2
40	46	1
113	115	2
72	72	5
51	56	7
117	117	5
121	128	5
7	12	2
31	32	2
30	30	1
96	115	5
143	144	3
134	148	3
75	75	2
22	25	4
11	25	4
45	47	2
72	73	2
27	27	3
25	29	3
103	106	1
79	122	1
66	139	3
55	108	1
93	96	2
18	19	1
2	3	1
16	16	1
134	140	4
97	98	1
28	28	4
54	54	2
49	49	4
138	143	3
108	108	3
45	46	2
130	131	4
45	48	3
66	66	3
39	40	2
99	99	5
85	85	2
106	107	7
108	109	2
146	146	1
63	63	3
18	18	7
25	108	1
73	74	2
17	18	4
43	44	1
50	51	4
95	95	6
85	86	4
73	137	3
56	70	2
131	134	2
104	110	1
126	126	4
138	138	7
10	24	1
81	83	2
29	36	1
27	29	3
54	115	1
30	47	1
118	128	1
10	11	6
75	99	3
33	33	5
82	83	3
53	55	1
122	123	1
93	94	1
75	76	4
125	130	1
14	20	1
122	128	1
121	122	2
20	24	2
136	136	3
150	152	2
123	123	1
100	100	2
45	45	2
29	29	1
55	68	2
74	139	1
36	36	2
127	128	2
47	51	1
37	38	1
80	139	1
8	10	1
100	101	2
25	106	3
56	56	2
144	145	1
120	121	2
17	24	1
135	149	2
119	119	2
82	86	1
77	78	4
84	86	1
31	35	1
93	128	3
98	98	2
145	148	1
50	69	1
124	126	2
32	37	1
65	67	1
137	138	1
12	14	3
50	50	2
73	138	2
64	67	1
141	141	1
29	47	2
26	28	1
147	147	1
57	66	1
42	45	2
102	154	1
102	103	2
14	15	1
111	114	1
14	24	1
11	12	1
22	26	1
33	34	1
48	52	1
4	8	1
139	139	2
27	28	1
13	14	2
115	115	3
29	30	2
133	134	1
148	150	2
80	80	1
93	95	1
102	109	1
68	89	1
7	7	1
52	52	1
151	152	1
9	53	1
125	127	1
39	41	1
67	68	2
124	124	1
