150	152	7
126	126	18
0	7	4
11	14	2
21	21	11
109	109	11
20	20	18
51	51	18
58	59	1
160	160	13
20	22	3
124	125	4
1	2	6
188	188	8
157	159	4
117	118	10
148	158	1
140	163	4
113	113	11
101	101	4
45	45	15
187	187	21
39	186	1
122	122	13
185	185	17
37	173	3
18	19	7
67	67	6
116	117	9
171	171	9
128	128	11
82	82	10
194	194	13
120	143	1
77	133	1
80	80	5
163	164	15
109	111	6
126	127	7
165	168	2
5	7	6
114	114	24
8	11	4
179	180	12
29	31	5
107	108	5
149	149	18
13	13	10
136	177	2
154	156	8
8	8	14
196	196	21
87	89	5
115	115	9
112	112	9
57	57	18
39	39	10
149	182	3
158	158	14
147	148	8
41	41	17
15	15	12
58	125	2
14	14	16
155	155	23
178	178	17
124	124	18
147	147	29
71	71	2
54	55	3
142	142	11
32	44	1
110	110	32
17	17	10
191	191	21
156	156	11
46	46	12
157	158	9
119	119	5
99	131	6
183	183	17
61	62	3
108	109	2
146	147	15
30	30	18
89	164	1
154	158	5
168	168	23
34	34	13
195	195	15
103	107	2
55	55	12
135	155	4
4	4	18
165	165	13
189	189	31
114	119	5
81	82	12
104	105	1
70	70	8
7	7	13
137	137	2
21	24	2
166	166	8
138	138	17
193	193	14
192	193	10
114	115	6
169	194	2
9	147	3
14	29	1
130	150	6
166	167	2
151	174	1
177	177	32
14	123	3
93	95	2
74	74	7
113	123	3
60	60	7
142	147	1
134	135	6
40	40	5
189	194	5
52	53	8
107	114	3
6	20	4
152	177	2
108	117	2
174	184	2
163	190	4
182	191	4
142	143	2
49	49	25
190	191	8
86	86	7
47	48	3
63	67	8
59	60	2
169	169	10
2	2	9
141	142	3
30	31	8
194	196	5
108	108	15
110	134	2
151	176	3
26	26	17
155	159	1
34	35	6
127	127	18
31	31	20
179	179	10
148	148	22
127	128	6
100	100	20
50	112	1
132	132	13
190	190	7
1	19	1
133	133	13
168	179	1
35	35	17
120	120	13
141	161	3
181	181	20
63	71	2
90	90	4
184	184	25
106	112	4
123	124	6
6	7	3
144	144	16
112	162	3
21	26	2
18	20	4
43	43	11
6	31	4
42	42	20
142	177	5
137	138	4
88	88	11
186	186	18
117	117	6
6	6	9
148	176	2
22	34	3
52	100	3
135	135	4
107	148	3
122	148	2
143	179	1
150	150	12
105	105	6
157	157	17
111	111	22
176	176	12
165	166	9
3	87	2
47	47	31
105	106	6
161	161	17
53	53	8
152	153	5
69	167	1
73	73	7
11	11	13
155	156	2
154	154	15
72	84	1
170	170	19
94	136	2
3	3	18
152	152	10
7	21	6
19	19	15
25	25	11
183	184	5
107	111	2
152	174	2
12	39	2
151	151	19
66	66	3
16	33	3
27	27	16
5	26	5
144	146	3
129	129	8
138	141	3
12	12	15
6	17	4
152	155	2
43	184	3
140	161	3
150	154	1
38	183	4
153	153	23
174	176	2
117	142	4
181	197	1
192	192	17
136	136	10
50	51	5
23	23	3
20	35	2
159	160	11
159	172	1
173	173	8
175	175	6
108	155	1
10	39	1
22	22	18
167	167	10
180	180	9
149	164	2
17	38	3
131	131	13
63	63	5
146	146	19
166	189	4
4	6	4
54	54	14
70	80	7
23	33	4
130	131	2
28	28	5
159	171	1
53	197	3
95	96	1
125	125	9
177	180	3
45	47	5
38	38	7
83	83	8
112	113	6
50	50	8
139	140	9
10	10	8
145	145	10
43	57	4
3	174	3
56	56	18
89	133	5
5	5	7
116	168	2
1	1	3
139	139	8
20	21	13
154	179	3
58	128	6
68	68	6
132	133	5
67	68	14
102	104	6
40	41	14
85	85	4
9	11	2
34	36	5
26	27	6
9	15	2
163	169	3
163	163	27
121	121	6
8	24	2
106	106	11
151	152	9
2	42	1
49	101	1
2	3	2
187	188	6
32	33	1
89	148	2
140	156	3
38	39	6
182	182	9
132	139	7
48	48	18
59	59	10
145	153	2
135	136	6
2	38	1
171	172	7
7	24	1
173	180	1
120	121	8
162	162	16
62	62	11
176	177	2
36	36	9
38	82	1
83	85	8
136	138	2
65	73	8
172	172	23
95	95	2
131	132	7
0	68	2
46	47	6
158	159	5
143	144	6
109	121	1
197	197	9
114	129	7
96	97	5
23	51	2
39	61	1
144	178	2
64	89	2
38	83	3
170	194	3
108	116	2
45	46	4
164	164	9
145	154	2
168	194	4
64	64	12
110	111	6
168	169	2
121	133	2
176	178	2
113	161	1
109	133	3
0	2	2
68	168	2
85	87	2
184	195	1
94	94	14
187	189	6
188	194	3
90	139	1
195	196	2
72	72	8
46	51	4
134	134	6
135	138	2
31	32	4
67	167	2
77	77	7
45	52	2
170	171	9
50	124	1
108	131	3
66	71	4
69	72	5
29	55	1
116	116	3
96	96	5
24	25	4
155	158	4
0	12	1
139	158	4
132	143	2
81	113	1
172	173	4
119	169	1
24	24	18
141	141	7
59	130	3
40	42	2
62	147	1
138	160	2
28	31	1
69	71	1
98	132	4
140	140	9
181	184	4
32	32	9
152	176	2
37	44	1
33	54	1
101	102	3
160	174	2
191	192	2
58	58	8
39	41	2
140	162	1
104	104	8
159	159	6
38	43	4
13	14	1
118	161	3
133	134	3
99	132	2
21	164	1
184	185	1
10	11	4
55	171	1
98	99	7
39	40	6
185	194	1
95	125	2
110	117	1
162	164	1
35	36	3
2	5	4
167	168	4
185	186	2
170	172	1
161	165	4
31	72	1
1	67	2
49	126	1
44	45	1
121	126	5
60	64	3
0	0	13
53	185	1
148	192	1
188	197	4
161	173	1
179	185	3
130	130	5
122	132	6
114	152	2
123	123	9
65	65	2
108	111	3
94	132	3
143	143	4
1	12	2
29	29	9
81	81	6
99	151	5
151	155	1
140	158	3
163	165	2
98	98	6
36	38	8
28	34	1
173	175	6
174	177	1
67	78	1
89	162	1
107	131	1
35	37	5
16	17	1
76	76	5
153	159	3
104	107	3
149	152	1
99	99	14
87	87	6
162	183	3
80	178	2
86	94	4
169	170	7
43	56	1
21	22	1
150	169	3
49	57	3
190	192	7
148	149	5
162	165	2
122	127	1
28	38	1
37	169	2
52	52	6
73	178	4
22	67	4
94	96	1
62	64	1
11	19	1
33	185	1
72	181	1
42	51	1
59	64	1
84	84	3
5	21	5
115	119	2
3	39	1
183	185	5
180	181	7
144	173	2
31	168	2
8	25	1
125	128	1
52	129	3
156	180	2
146	155	2
2	4	1
9	9	7
1	68	1
21	163	1
16	36	4
52	57	1
185	187	1
156	157	3
7	8	3
46	186	3
102	103	3
0	3	1
189	191	3
187	194	4
115	120	6
62	73	1
133	143	6
108	160	1
5	8	4
104	106	3
29	30	7
176	182	1
86	95	3
154	159	3
120	188	2
36	41	1
156	160	3
64	65	4
36	42	2
177	178	3
174	174	9
108	165	2
17	18	4
144	145	4
39	149	4
167	191	3
63	73	4
41	98	3
43	44	2
99	100	1
21	35	2
20	34	3
18	22	1
186	187	6
94	97	2
28	51	1
22	23	2
88	89	5
77	78	3
127	159	3
0	31	2
28	194	1
4	22	1
30	52	3
165	167	3
3	42	2
5	6	2
81	83	4
96	132	1
115	123	1
93	94	4
41	73	1
61	67	2
118	118	2
8	17	1
102	133	1
53	196	1
62	63	3
11	37	1
21	25	4
139	161	1
18	32	1
63	74	2
94	107	2
151	183	1
116	121	2
5	22	3
173	174	1
112	119	2
78	78	2
162	169	2
147	190	1
90	93	1
68	86	2
80	81	5
109	110	3
79	176	6
100	101	2
25	26	1
120	122	2
74	75	1
130	143	2
130	138	1
42	43	2
89	89	5
95	102	1
33	33	6
64	66	2
122	123	1
37	38	3
152	196	1
45	55	1
186	197	1
50	55	1
182	183	1
146	172	2
174	175	6
111	138	2
70	71	5
191	193	2
50	56	3
28	30	1
75	75	2
135	142	1
32	43	1
47	51	1
97	98	3
145	176	1
29	32	3
154	155	3
14	197	2
9	10	2
117	130	2
87	186	3
115	185	4
5	17	4
194	195	2
98	131	5
82	85	3
44	83	2
143	147	1
17	126	1
115	118	1
3	77	2
137	152	1
63	89	3
49	50	1
124	159	3
36	39	2
154	157	1
156	192	1
48	50	1
132	140	2
19	66	1
105	108	1
103	103	3
103	104	2
112	149	1
150	151	4
95	97	1
132	169	2
73	78	1
37	52	1
119	127	1
66	68	2
112	116	1
167	193	1
177	179	1
14	37	2
152	154	2
163	168	1
161	163	2
102	105	2
5	23	1
93	184	1
19	34	1
153	161	1
0	20	2
151	187	1
135	140	2
18	18	9
142	153	1
157	173	1
86	87	2
67	74	1
82	112	1
61	61	2
37	174	1
108	110	1
13	31	1
48	52	1
22	69	1
58	69	2
28	29	1
10	19	1
123	125	1
17	32	1
177	184	2
37	37	3
162	194	1
76	90	2
33	184	1
15	19	2
57	58	1
72	73	1
144	167	1
106	107	1
159	173	2
97	99	1
41	52	1
17	19	1
67	166	1
19	36	1
120	166	2
16	18	1
99	136	2
182	194	2
196	197	4
137	167	1
3	31	2
8	21	1
48	49	1
164	169	2
129	150	3
30	44	2
1	177	1
3	4	1
105	107	2
103	142	1
53	54	1
99	133	1
137	154	1
151	168	1
1	17	1
118	169	2
112	150	1
102	106	1
172	175	1
157	191	1
129	130	1
0	1	1
44	44	1
185	192	1
162	163	1
7	18	1
155	157	1
156	158	1
150	192	3
33	36	1
6	8	1
129	169	3
69	194	1
123	141	1
101	139	1
181	182	1
88	90	1
161	164	1
188	196	1
145	179	1
16	16	3
97	126	1
55	56	1
59	61	1
69	79	1
58	168	2
84	85	1
12	114	3
169	182	1
27	28	1
60	61	1
107	107	2
132	145	1
178	180	1
27	33	1
180	183	1
13	56	2
97	148	1
11	12	1
81	84	2
114	117	2
171	187	2
15	37	1
102	102	2
71	72	1
96	104	1
53	125	1
159	170	1
12	21	1
145	146	1
41	148	1
2	169	1
183	189	1
12	22	1
132	136	1
29	56	2
41	42	3
102	136	1
47	52	1
38	64	1
1	72	2
23	29	1
115	128	1
69	69	1
18	26	1
139	155	1
12	55	1
56	106	1
107	179	1
166	171	1
107	163	1
18	126	1
132	142	1
