24	24	6
203	204	5
63	64	2
26	26	17
231	231	1
111	114	1
122	157	3
20	20	18
37	37	6
187	187	14
137	138	10
120	121	2
83	83	3
56	57	8
116	148	1
212	212	6
21	39	2
1	31	3
156	156	8
33	33	11
0	0	8
109	109	7
61	61	8
40	42	9
12	13	5
173	174	7
195	195	7
124	125	3
9	24	6
107	107	6
29	29	7
77	82	6
43	43	7
206	206	5
65	66	3
23	23	15
242	242	5
37	38	2
16	16	9
173	173	8
45	46	7
182	184	4
205	205	12
135	135	16
176	176	9
10	11	3
6	6	3
240	241	5
238	238	9
66	66	3
204	207	6
177	178	3
182	183	7
77	88	2
17	17	4
122	124	3
179	186	2
3	12	1
29	30	9
80	83	3
111	111	2
223	223	7
69	69	4
196	196	10
85	86	3
3	8	7
10	10	11
41	41	9
56	58	1
68	69	2
214	215	4
17	30	2
19	20	5
116	126	4
32	32	8
4	4	2
165	165	4
102	119	4
48	176	1
106	123	2
95	95	6
136	138	4
46	46	20
110	110	2
213	215	2
166	167	3
3	7	2
198	198	7
99	99	21
11	11	10
143	143	1
158	158	1
160	160	4
25	25	9
42	42	23
126	126	1
155	155	3
168	168	7
39	45	2
161	161	11
14	16	2
101	101	4
225	225	5
203	203	4
149	152	5
117	117	1
133	133	3
204	204	12
60	60	3
181	181	3
211	211	8
229	230	5
89	109	3
99	100	7
73	160	2
9	11	7
68	192	2
132	132	2
62	63	8
162	162	9
216	224	2
106	106	10
102	102	8
116	150	4
210	210	9
206	229	3
11	20	1
8	8	11
191	192	1
221	221	6
96	96	9
62	62	6
53	56	2
75	75	6
12	17	2
235	235	11
107	108	3
162	163	6
212	213	3
9	10	5
39	39	9
54	55	5
122	126	3
31	61	3
205	206	3
30	31	4
211	212	3
80	81	7
180	180	2
47	52	5
228	228	6
104	124	2
238	239	5
204	206	6
81	81	3
129	129	3
35	35	4
79	79	6
200	200	9
46	183	3
192	194	3
59	59	5
142	142	3
53	63	1
37	51	4
151	151	8
9	9	9
102	118	5
79	83	2
139	139	8
30	30	1
51	51	3
186	186	6
223	225	2
221	222	3
207	207	14
229	229	3
11	19	1
133	134	2
55	55	5
217	219	2
55	61	2
95	96	1
167	180	4
192	217	1
163	163	5
154	154	9
199	200	3
172	172	7
219	219	5
65	68	4
31	31	6
71	86	1
116	116	3
38	38	13
31	37	2
47	48	3
220	220	3
187	207	2
12	47	2
175	176	3
138	140	3
175	175	4
208	208	7
236	236	10
174	174	4
14	14	3
27	28	4
196	197	6
218	231	2
1	2	4
120	120	6
71	73	2
5	5	5
143	175	3
136	136	6
211	213	3
202	203	5
34	36	7
196	217	2
112	112	4
74	74	5
58	58	5
70	70	15
237	237	4
233	234	1
174	175	5
69	191	1
61	65	1
106	108	6
233	233	4
33	34	3
40	41	21
211	224	5
123	123	3
133	138	4
184	186	2
35	36	1
213	214	3
240	240	9
106	129	3
159	159	2
201	201	6
13	15	1
53	98	3
17	24	1
81	83	10
189	206	1
102	105	5
148	182	1
140	140	5
67	67	6
182	191	3
36	42	3
1	1	11
166	177	7
216	216	9
53	53	8
16	37	3
45	45	9
114	114	2
184	185	4
153	174	2
183	184	2
210	213	2
179	180	3
80	80	11
3	4	1
209	226	2
85	85	3
71	154	2
152	153	6
34	49	2
53	54	1
125	125	3
77	80	3
160	161	1
167	168	3
144	146	1
214	216	4
214	214	2
154	155	6
226	226	5
48	221	3
47	222	2
39	41	1
121	127	5
48	49	1
138	138	9
177	177	1
12	12	4
80	84	2
39	42	4
227	227	4
178	179	2
11	12	1
141	141	1
36	36	2
128	129	2
28	28	8
106	119	3
224	224	7
172	173	2
109	110	4
54	56	5
169	169	3
101	105	3
33	37	2
63	63	6
4	6	1
184	184	2
198	211	2
25	233	3
170	170	10
43	45	2
165	174	2
0	2	1
19	19	3
179	179	3
170	171	1
84	84	5
171	172	4
29	63	6
10	77	2
20	21	1
147	175	2
146	146	1
97	97	6
113	113	2
196	230	1
197	197	8
217	218	3
232	234	2
201	202	3
71	71	3
137	137	2
194	195	1
71	72	1
121	123	3
91	91	3
47	47	4
220	221	3
205	230	2
221	231	3
49	49	3
73	73	9
74	75	3
33	35	5
98	99	1
15	15	12
159	160	2
178	178	5
218	218	3
65	67	1
36	37	3
166	166	1
203	227	1
27	27	8
122	129	4
98	98	3
234	234	6
183	187	1
108	108	3
125	127	1
88	88	6
97	99	4
58	60	4
86	86	2
174	241	1
164	164	2
206	207	3
50	52	3
56	56	1
50	51	2
75	121	2
213	213	1
72	73	3
193	193	1
116	117	1
167	167	1
228	229	7
230	230	9
18	19	6
14	15	1
102	103	3
42	44	4
78	78	3
78	83	3
108	137	1
54	153	2
238	240	1
217	217	1
217	220	4
22	22	5
118	149	2
157	158	1
44	44	8
157	157	9
1	20	1
79	80	3
227	228	3
207	208	5
182	182	5
101	103	2
217	224	1
36	43	2
239	239	2
232	232	4
156	157	2
17	19	3
221	223	2
189	199	5
138	139	2
179	184	3
122	158	1
155	165	1
127	127	6
40	40	4
57	57	4
103	105	1
100	100	2
75	79	2
122	122	1
165	177	1
242	243	4
83	88	2
68	68	6
13	17	1
202	204	3
166	168	2
239	240	2
153	155	1
8	12	3
43	44	2
153	153	4
104	107	4
209	209	3
67	191	2
65	65	7
37	45	1
23	24	2
150	151	1
25	26	2
45	75	3
192	192	6
223	224	6
104	106	4
166	173	3
36	55	2
131	131	2
8	11	1
105	106	3
181	184	2
190	191	5
102	113	1
200	201	1
148	173	1
148	148	2
128	128	6
114	115	3
118	119	3
139	141	1
189	190	4
145	146	4
198	199	3
0	21	1
188	188	1
118	118	4
75	76	4
103	103	2
183	183	2
180	182	1
152	152	2
167	169	1
181	183	2
208	209	1
64	64	3
222	222	3
81	82	1
76	76	3
200	210	1
53	55	2
171	171	2
61	66	2
190	190	4
19	195	2
149	149	2
232	233	3
73	74	1
235	236	2
28	29	1
222	223	3
235	238	1
2	2	5
153	154	5
100	114	1
1	14	1
95	133	5
43	53	2
13	14	5
111	133	1
33	58	2
135	136	1
48	48	1
0	24	1
143	144	5
189	189	2
118	162	5
194	194	3
4	25	2
115	115	1
72	72	3
1	3	2
82	84	7
5	17	1
17	18	3
2	4	3
202	234	1
9	20	1
134	137	1
145	177	1
152	154	1
26	191	1
103	123	1
168	180	1
225	230	2
8	42	1
36	41	2
61	67	1
153	161	1
168	169	2
234	236	2
141	161	2
222	224	1
37	64	1
41	42	3
14	36	2
62	64	2
119	119	1
125	139	1
22	23	1
35	50	2
227	229	2
16	17	1
49	50	1
82	83	1
130	132	1
38	39	2
21	21	2
125	126	1
16	31	1
185	186	1
31	32	1
3	3	1
203	205	1
52	53	1
12	32	1
121	121	1
67	68	3
124	124	1
142	143	2
155	157	2
35	51	1
54	54	1
188	189	2
219	220	1
218	219	2
39	40	1
78	119	1
10	12	2
82	82	1
130	161	1
127	128	1
49	51	1
49	221	1
7	7	1
162	167	3
61	62	3
101	123	2
5	7	1
15	23	4
64	65	1
21	22	1
66	111	1
26	27	1
20	195	1
70	71	1
37	52	1
19	53	1
142	161	1
142	188	1
134	134	1
203	206	1
66	67	2
143	165	1
46	47	1
37	53	1
164	165	1
23	25	1
0	1	1
187	201	2
5	6	1
196	223	1
108	116	2
204	233	1
7	8	1
23	46	1
97	98	1
59	60	1
121	129	1
68	191	1
