124	124	16
72	72	6
131	131	23
99	100	6
113	114	4
86	86	7
134	139	1
137	137	25
25	25	18
66	66	24
105	107	4
92	126	4
81	81	25
130	130	14
117	118	3
139	139	16
138	138	25
1	15	5
82	115	4
69	72	7
74	74	15
81	82	4
48	48	9
114	114	14
96	97	7
13	14	3
62	65	3
39	53	1
124	125	6
56	56	10
127	129	3
90	90	11
127	127	13
37	38	7
118	120	3
27	27	16
73	73	11
129	131	2
107	108	6
39	39	16
130	132	2
41	41	4
82	82	11
84	84	24
55	55	12
102	102	10
121	121	20
128	129	7
122	122	14
78	129	1
65	65	16
16	16	18
119	119	14
22	22	21
141	141	16
12	12	2
136	136	15
77	77	20
10	11	21
93	93	16
64	65	1
118	122	3
132	132	21
59	59	14
118	118	9
127	130	6
89	91	4
24	28	1
4	35	1
82	121	1
65	66	7
112	112	8
98	98	12
6	6	13
95	95	14
17	17	8
66	67	5
18	18	13
67	68	7
98	99	7
83	83	28
123	124	9
10	10	6
123	123	15
90	101	3
85	85	11
40	40	14
32	32	16
42	42	21
14	14	19
26	92	1
36	66	4
61	61	13
125	137	4
92	129	2
8	8	13
71	72	10
129	129	17
27	57	4
96	96	5
145	146	2
38	39	5
134	135	10
21	62	1
89	89	5
141	142	8
126	127	7
140	140	12
24	24	11
29	82	7
50	50	13
82	123	2
79	79	7
31	33	7
109	137	3
38	38	16
60	60	9
24	34	1
64	64	12
144	144	4
63	65	4
108	109	5
76	77	8
108	111	2
107	107	13
58	58	12
126	126	14
72	73	9
94	96	1
30	30	15
3	132	2
131	134	1
39	40	2
128	128	10
24	26	2
32	34	4
32	61	1
98	103	1
91	92	3
101	101	17
57	57	22
146	146	10
76	76	11
28	28	18
122	123	6
70	70	5
119	120	8
62	64	2
53	53	13
58	64	3
42	62	3
68	124	3
115	115	10
82	84	2
79	82	5
89	90	5
116	120	2
105	105	12
71	71	11
126	142	3
129	130	3
103	103	15
19	19	20
110	111	7
117	138	1
0	1	9
51	51	12
95	96	6
125	126	2
63	63	7
125	133	6
135	135	11
125	125	9
73	114	2
31	32	1
3	3	17
32	33	10
22	29	2
49	53	3
36	36	15
112	125	2
75	91	4
145	145	7
74	75	4
21	21	16
97	97	20
92	92	14
91	91	13
90	99	2
106	111	4
113	113	13
41	42	3
110	110	10
61	64	3
14	16	4
85	86	5
23	25	5
116	118	2
108	108	12
94	95	3
118	119	9
66	87	3
4	4	5
115	116	4
88	91	2
47	50	4
109	109	11
107	114	3
29	29	17
2	135	6
35	35	7
75	90	2
40	42	3
88	89	3
78	114	5
51	54	4
68	121	2
97	98	4
22	23	4
134	140	3
52	52	16
75	76	3
11	11	15
67	67	12
111	111	7
83	84	6
114	116	2
54	54	8
75	75	3
18	143	4
5	9	2
87	87	8
63	64	3
142	142	15
49	49	15
34	34	18
59	98	5
125	134	4
70	72	2
139	141	2
9	9	12
17	18	2
78	95	2
74	89	2
134	134	6
23	26	7
26	27	9
112	127	2
116	116	10
42	43	1
79	80	5
70	91	1
88	88	14
103	107	4
131	133	3
135	136	4
82	83	1
4	5	8
1	132	8
72	117	1
84	93	3
116	122	4
82	132	2
102	103	11
27	28	7
98	112	2
15	16	10
104	105	8
47	51	2
104	106	4
130	133	7
133	134	1
26	26	11
121	123	6
71	119	8
47	47	3
66	68	5
13	16	5
120	121	4
27	91	7
142	143	8
13	13	5
61	63	1
135	139	1
52	53	4
116	117	3
99	101	2
137	138	6
92	93	4
59	60	1
143	144	2
33	33	8
106	109	2
143	143	7
115	117	1
97	112	5
34	36	1
133	133	10
35	36	6
2	2	2
125	139	8
105	106	6
119	138	1
29	38	2
20	21	6
80	81	1
78	79	2
67	76	3
117	117	10
4	9	3
20	20	9
73	82	2
99	99	5
106	106	3
68	68	9
85	133	2
73	74	2
37	37	22
81	84	3
24	25	13
21	92	2
123	137	1
76	94	2
69	69	9
39	41	1
121	135	1
49	51	2
60	65	6
60	61	4
78	78	4
119	137	3
139	140	7
128	130	1
17	19	2
84	85	2
95	128	1
92	127	1
57	58	6
58	60	1
118	138	2
41	43	3
80	80	3
61	62	4
129	133	1
75	95	2
32	62	2
136	138	2
31	31	5
93	94	6
28	30	5
50	53	1
26	56	1
43	43	2
23	50	2
18	19	1
51	52	5
20	142	2
97	106	3
70	118	1
74	119	2
120	123	1
12	13	4
86	87	1
104	104	10
125	127	3
1	82	1
49	50	4
0	2	4
131	132	4
15	15	8
101	102	5
73	117	1
57	98	1
63	136	1
48	50	2
80	83	2
34	38	3
104	107	4
84	86	1
6	12	1
138	139	3
87	88	1
95	97	1
2	3	4
127	133	3
3	8	1
50	51	4
69	122	2
135	137	4
36	37	11
140	141	5
76	100	1
34	35	2
16	17	2
69	70	4
97	107	1
26	28	2
100	100	4
134	136	2
40	41	2
62	63	4
1	1	3
122	124	1
25	27	3
4	6	3
122	133	3
117	120	3
5	5	6
76	84	2
62	62	5
12	16	1
54	55	4
77	130	1
30	32	2
31	34	1
77	99	2
6	26	2
21	143	3
75	85	2
75	88	1
94	97	3
76	78	1
84	127	1
61	65	3
15	18	2
30	33	1
55	56	3
30	92	2
106	107	4
112	113	2
118	137	2
1	2	2
74	76	1
9	11	1
22	134	2
0	136	2
67	87	2
0	0	1
105	138	2
25	26	1
123	127	3
84	131	1
120	120	2
52	55	2
112	135	2
122	125	2
94	94	5
58	59	1
136	137	1
122	126	1
3	4	2
113	115	1
129	135	2
102	105	2
84	90	2
109	110	1
101	105	1
55	58	2
54	98	1
115	122	1
27	92	1
20	143	1
126	128	1
30	70	1
68	118	1
28	81	1
1	20	1
23	23	3
80	82	1
2	19	1
55	57	1
59	65	2
71	74	3
66	69	1
37	57	1
135	138	2
121	122	1
53	54	1
113	124	1
82	118	2
72	88	1
85	94	2
119	121	1
114	129	1
77	78	4
56	57	1
87	90	1
85	95	1
119	136	2
69	118	1
30	31	2
76	91	1
114	122	1
68	69	1
70	71	1
8	9	2
81	124	1
28	29	1
22	30	1
27	48	1
73	88	1
114	128	1
84	132	1
133	137	1
48	49	1
114	115	1
4	14	1
73	128	1
114	138	1
121	129	1
76	79	1
23	51	1
65	67	1
79	115	1
107	109	1
56	58	1
33	34	1
