83	83	7
43	44	2
69	69	19
94	94	6
61	82	3
95	95	4
86	86	6
57	58	8
38	38	12
26	26	7
25	26	6
53	53	3
100	100	1
63	64	3
94	98	3
74	74	15
80	80	4
54	54	11
25	80	5
57	61	2
24	28	2
42	42	8
98	100	4
97	98	4
33	33	2
52	54	2
82	82	2
64	65	7
54	55	1
96	96	11
67	67	5
79	79	5
42	43	5
31	32	1
63	74	2
64	64	8
50	50	4
71	71	15
69	70	4
87	87	7
22	25	1
68	69	3
44	44	1
75	75	7
32	89	3
60	60	12
66	66	7
33	37	1
52	60	1
47	47	4
65	65	5
72	72	13
91	91	7
48	48	3
67	91	2
45	69	1
74	79	1
86	88	3
43	43	4
96	97	3
86	87	3
85	85	5
88	88	6
59	97	3
58	60	1
101	101	5
98	98	9
46	47	1
92	100	5
78	78	7
81	81	12
96	101	4
58	71	2
92	92	4
46	66	2
49	50	3
68	70	1
57	100	3
39	39	2
28	79	1
58	58	8
75	77	1
97	97	4
58	59	7
77	77	7
52	55	1
84	84	3
37	37	3
52	52	3
70	70	4
56	57	1
34	34	3
40	68	1
87	88	7
61	61	14
48	56	2
93	96	2
90	90	2
63	63	7
24	27	2
67	90	1
41	42	5
92	94	1
38	73	5
95	96	6
55	56	3
38	40	9
69	79	1
65	72	1
34	77	2
75	76	3
100	101	1
73	73	5
93	93	7
45	81	1
40	41	2
79	98	3
71	78	1
32	87	2
99	99	5
83	86	1
48	50	5
45	89	1
51	52	2
96	98	2
42	44	4
27	28	2
72	79	2
57	57	2
68	89	3
56	56	2
49	49	3
63	89	6
45	45	4
28	80	2
90	101	1
47	48	6
33	34	3
44	85	1
24	25	1
91	92	3
83	84	4
79	80	3
62	62	4
49	57	1
80	100	1
65	90	1
41	41	2
39	73	1
24	24	1
77	78	1
66	67	1
36	36	3
52	80	1
61	62	2
34	39	1
27	27	2
99	101	2
44	49	1
58	61	1
35	35	3
67	70	1
48	53	1
46	46	3
78	79	1
42	48	1
61	101	1
40	73	1
69	85	3
56	60	2
81	82	1
81	83	1
31	31	1
65	67	1
70	71	1
42	65	1
23	23	1
81	87	1
74	75	1
46	51	1
25	78	1
32	33	1
54	95	1
89	89	1
76	77	1
61	100	1
76	76	1
37	38	1
89	94	1
