21	27	1
183	188	3
93	93	5
118	118	8
93	95	6
51	52	3
205	206	5
96	97	1
75	116	6
216	216	8
56	72	2
96	96	13
92	92	3
172	173	2
181	227	4
55	55	12
152	166	2
158	158	8
21	22	9
184	185	6
6	17	3
78	78	9
209	209	8
181	181	9
83	83	1
155	155	10
110	110	5
161	161	7
146	167	2
43	43	12
176	181	3
184	184	1
212	212	9
215	215	4
69	76	2
246	246	10
168	179	2
188	189	3
201	229	3
71	75	1
196	197	2
189	189	6
179	179	7
75	75	10
159	159	9
90	90	3
241	241	4
227	227	10
181	182	1
11	16	2
231	232	9
28	110	1
64	64	7
61	61	7
192	192	12
49	49	3
233	233	2
111	112	7
199	200	3
50	68	1
147	147	6
67	156	3
9	10	1
25	25	1
88	88	11
149	149	5
45	45	8
151	184	4
203	203	3
104	104	2
210	219	4
189	190	3
152	152	11
109	109	23
9	9	7
80	80	5
240	242	4
71	166	1
191	197	3
29	30	4
56	56	4
183	183	6
152	214	3
145	145	6
238	238	8
37	39	2
171	171	1
108	111	1
229	230	2
197	197	4
157	183	2
117	117	4
206	207	3
228	229	5
54	54	4
162	182	3
163	164	3
82	85	2
32	32	11
59	59	6
39	40	7
181	187	2
153	165	3
10	10	5
185	188	1
219	236	3
157	213	4
38	39	1
62	70	1
158	204	1
49	67	2
226	226	11
19	38	2
154	154	5
207	207	10
5	5	8
63	64	6
160	166	1
19	37	2
114	114	3
167	167	3
22	24	1
113	113	11
41	41	8
225	226	2
216	217	7
27	27	4
173	173	6
106	106	8
25	228	2
234	234	9
245	246	3
18	29	2
29	29	3
48	115	2
88	115	2
15	15	3
74	74	3
169	170	7
179	180	7
166	166	15
51	51	4
14	14	3
198	198	4
200	200	11
150	150	4
198	208	4
56	61	3
187	190	2
28	28	9
35	35	3
222	223	2
46	47	1
7	7	8
6	207	1
61	230	4
239	239	6
76	76	11
88	91	4
210	211	3
230	230	2
245	245	9
174	174	5
178	178	5
105	106	2
193	195	1
159	188	2
32	63	2
222	236	4
49	50	3
164	164	5
61	62	7
162	162	5
27	28	2
208	241	3
84	160	3
30	31	1
182	182	5
104	105	5
33	34	3
99	99	7
196	196	5
67	67	5
79	79	4
62	63	3
199	199	5
42	42	4
229	229	8
106	107	3
8	8	2
201	206	4
22	23	5
167	185	4
163	170	3
187	187	1
225	245	3
87	87	1
155	171	1
17	19	3
47	47	7
190	191	2
107	107	4
112	112	9
178	184	2
118	119	4
17	34	3
40	40	6
244	244	4
175	176	3
89	89	2
32	223	2
193	193	10
49	82	5
34	40	2
100	100	2
32	179	2
152	160	3
18	19	2
38	38	3
243	243	8
198	200	4
119	119	7
85	160	1
53	54	6
185	185	6
2	5	3
66	72	2
156	156	6
180	181	7
242	242	4
2	3	1
82	82	1
164	166	4
46	46	2
220	221	1
169	198	1
238	239	1
158	166	3
146	147	4
188	188	4
240	240	5
5	47	3
57	58	2
87	89	3
168	168	1
223	223	7
50	81	1
113	114	5
164	170	2
95	95	3
204	204	10
177	190	2
62	62	4
220	220	8
210	242	2
63	247	4
212	213	2
80	81	2
197	220	2
173	179	1
164	202	3
23	23	4
196	227	2
208	208	10
94	94	4
201	201	11
69	69	3
222	238	2
247	247	8
103	103	3
164	177	1
18	18	3
176	200	2
64	65	4
171	195	1
6	11	3
45	46	1
231	233	3
40	41	2
209	211	3
242	243	3
39	39	5
57	71	4
237	237	7
108	108	1
194	194	6
211	211	7
11	35	1
152	153	8
19	19	5
68	68	2
70	77	1
213	213	5
217	217	10
17	17	3
225	225	4
51	64	1
21	26	1
160	160	5
197	225	3
53	56	2
76	79	2
3	4	4
221	222	2
176	195	4
64	66	1
65	65	10
11	11	3
163	165	2
115	115	5
78	89	2
111	111	6
177	178	3
116	117	7
181	188	1
84	84	2
107	108	8
77	116	1
61	67	3
38	40	1
197	246	1
222	222	3
153	159	4
178	183	1
91	93	2
21	228	2
152	180	1
215	216	1
205	226	1
57	57	6
35	36	3
13	13	2
26	26	4
228	232	2
105	114	1
167	172	1
31	31	4
21	21	3
153	155	3
233	238	2
165	165	3
157	158	1
58	58	6
95	100	2
180	180	3
190	190	6
168	208	4
216	219	5
94	100	2
81	116	2
237	242	2
102	102	1
184	187	1
221	236	1
218	218	6
158	179	3
170	175	2
44	44	5
52	79	1
186	186	4
183	214	3
14	34	2
169	193	2
175	177	2
186	195	3
59	60	4
12	20	1
12	12	3
26	42	2
183	198	1
243	247	2
4	29	2
72	74	1
184	196	1
165	166	2
226	244	2
203	204	3
97	98	1
77	77	2
235	235	5
92	96	1
119	161	2
81	84	2
213	244	1
151	155	1
116	119	1
70	166	1
73	73	2
174	179	1
77	88	1
171	172	1
86	86	2
71	71	2
211	219	1
36	36	4
188	237	3
206	233	1
3	3	2
14	228	1
156	164	1
214	239	2
218	247	1
157	162	1
113	117	2
98	98	3
211	212	2
205	205	3
63	63	1
8	211	1
34	38	5
176	216	1
93	94	1
31	226	3
146	146	2
176	189	2
163	163	4
5	29	2
24	24	1
162	169	2
30	32	1
29	31	1
59	93	3
186	205	1
59	71	2
220	230	1
114	115	4
22	22	3
189	191	2
237	238	3
6	7	3
59	111	3
154	205	2
116	116	5
176	187	2
188	192	1
166	167	4
43	52	1
176	176	1
206	206	4
86	90	1
201	234	1
156	202	1
50	60	2
20	20	2
33	33	1
85	95	2
176	196	5
149	150	2
17	18	1
162	180	4
166	174	1
46	48	3
194	195	2
243	244	3
245	247	3
88	89	1
91	91	2
19	40	3
195	196	2
37	37	2
171	174	1
227	229	1
112	115	2
188	191	1
36	39	3
153	166	2
175	184	1
6	6	1
176	185	2
186	191	1
210	210	2
84	85	3
52	247	4
55	56	3
236	241	2
4	18	1
10	227	1
10	223	1
116	118	1
170	192	1
30	30	2
223	224	1
200	215	2
153	204	2
72	72	1
87	88	2
248	248	1
174	195	1
101	101	5
70	70	2
19	20	1
82	84	3
18	34	1
163	194	1
19	29	1
157	157	1
158	159	2
4	4	3
78	81	2
5	34	1
68	69	1
60	71	1
178	212	1
60	60	1
170	170	1
249	249	1
163	182	1
4	224	1
105	105	3
184	211	1
160	162	1
212	216	2
156	167	1
176	177	2
76	115	2
157	184	2
166	182	2
42	43	2
219	237	1
183	184	2
208	220	3
232	232	1
165	179	2
1	1	1
228	241	1
75	83	2
152	181	1
68	70	1
215	218	2
172	192	2
85	86	1
31	62	2
30	40	1
29	47	2
165	194	1
222	241	1
77	115	1
105	121	1
182	239	1
238	240	1
151	151	4
70	113	1
34	34	2
49	71	1
193	226	1
92	101	1
160	167	2
67	68	2
168	192	1
4	5	1
0	1	1
175	186	1
182	184	1
149	170	1
232	236	1
11	17	1
99	100	1
191	191	1
74	101	1
50	58	1
82	83	1
65	242	1
33	44	1
217	237	1
18	144	1
211	235	1
221	221	1
168	169	1
239	240	1
80	86	1
32	33	1
240	241	2
84	92	1
