143	143	5
23	73	3
153	169	2
14	30	3
68	99	2
59	59	7
174	193	1
156	158	7
100	105	3
20	20	4
190	190	2
128	200	2
173	173	3
119	170	4
48	48	5
150	151	2
65	174	2
77	77	3
46	46	5
202	203	1
0	0	5
158	158	1
72	72	3
146	146	5
135	160	2
148	148	4
53	53	8
62	62	3
33	33	5
22	23	3
177	177	3
96	200	2
53	54	2
117	118	2
170	221	1
121	210	1
113	114	3
85	85	2
107	107	1
26	129	2
123	123	3
140	142	2
15	118	3
139	139	1
3	9	1
117	117	3
95	95	5
199	199	3
32	58	5
181	181	6
235	235	4
3	15	3
101	101	4
35	35	4
52	52	1
43	43	6
1	53	3
54	55	3
166	166	3
155	155	3
69	69	4
202	202	2
47	47	6
39	40	3
125	168	2
138	139	7
5	5	2
152	152	5
73	73	3
63	63	5
17	30	3
19	19	6
199	200	1
197	198	2
115	125	1
81	81	6
171	172	1
75	75	6
192	193	1
98	98	4
121	121	5
188	189	3
144	144	8
219	219	2
29	30	1
20	54	2
136	136	2
3	3	2
187	187	3
44	45	4
163	163	3
241	241	3
82	82	1
97	130	4
9	9	7
8	12	2
37	43	2
38	38	16
112	113	1
122	159	2
71	71	8
139	140	6
212	212	6
40	40	4
17	19	4
42	43	2
79	79	6
162	162	6
83	84	2
13	13	5
193	193	2
8	9	1
121	198	3
18	18	8
225	225	5
121	206	3
45	45	5
240	240	5
36	36	5
158	179	2
5	119	1
118	198	1
68	69	1
161	161	4
76	76	2
58	58	7
228	229	8
142	143	1
128	197	1
167	169	1
41	41	6
3	32	3
10	55	1
55	152	3
230	230	1
174	175	3
88	88	4
239	239	4
86	86	2
24	24	5
16	29	1
98	99	2
106	167	2
223	223	1
137	143	2
176	176	2
137	138	2
122	162	1
64	65	2
160	160	1
97	110	1
178	179	1
178	202	1
129	129	7
32	32	6
46	48	1
227	227	9
60	60	2
30	30	1
160	162	1
214	223	3
14	14	1
45	67	2
81	82	2
25	25	8
67	67	12
162	182	2
217	219	2
197	197	2
125	125	1
105	105	4
102	177	5
49	49	2
122	122	1
125	147	2
180	190	4
140	140	4
23	66	1
214	215	2
100	100	3
45	46	5
151	151	1
224	232	1
29	29	6
221	221	10
192	192	4
191	191	5
207	207	4
54	54	7
189	189	6
174	174	2
200	200	4
20	201	8
170	170	5
66	69	2
17	29	3
190	220	1
52	107	2
23	23	5
230	231	3
64	174	2
25	230	3
39	39	9
180	180	4
138	138	3
165	204	3
217	217	3
111	111	2
186	223	2
190	191	1
99	99	3
35	36	7
168	191	1
127	210	3
115	199	1
82	96	3
122	123	9
66	66	2
20	85	1
96	158	3
29	76	2
206	206	1
164	164	1
124	207	2
26	26	7
210	210	4
70	70	6
117	176	1
27	27	3
137	156	1
200	201	2
121	165	1
26	27	2
156	156	3
166	225	2
21	218	2
109	109	3
82	83	5
84	85	2
4	4	7
97	98	2
17	106	2
50	57	2
141	141	2
3	13	1
57	57	2
57	58	1
234	234	5
231	232	1
238	238	3
67	68	1
211	211	3
27	70	2
50	52	1
181	191	2
203	203	1
32	56	1
135	157	2
22	53	1
142	142	1
84	84	3
80	83	1
23	175	1
185	227	2
213	213	2
18	69	4
233	233	1
57	115	1
56	57	3
226	226	2
182	191	2
56	56	2
229	229	1
96	201	2
107	216	1
219	221	4
21	21	6
162	179	5
78	80	3
4	14	2
96	96	1
204	204	4
12	13	5
98	106	1
31	31	2
166	182	2
45	75	1
26	75	4
145	145	4
22	173	3
80	84	2
36	46	2
75	83	1
11	11	3
65	65	2
64	71	1
108	108	2
2	59	1
122	152	3
92	92	1
136	141	1
120	197	2
179	180	1
188	188	5
3	8	1
43	45	1
239	240	3
162	186	1
10	10	2
118	119	1
179	179	5
113	113	4
6	6	3
184	189	1
61	61	3
227	231	1
22	22	1
220	220	1
56	102	3
116	117	2
28	28	4
120	120	4
97	97	2
223	233	2
78	78	4
144	145	2
27	85	1
208	208	2
106	107	1
75	167	1
164	165	2
107	108	1
228	228	1
122	170	2
20	32	2
21	23	1
118	118	2
34	34	1
85	86	4
68	146	1
86	128	2
30	97	1
189	190	2
168	193	1
165	166	2
226	227	2
116	177	1
131	199	1
154	186	1
26	79	1
1	2	2
23	24	1
33	47	1
205	205	1
15	51	1
16	16	4
66	68	2
34	35	3
4	6	1
96	143	1
224	224	2
175	175	4
133	133	1
62	63	3
51	51	4
23	29	2
17	17	3
5	6	1
56	100	2
31	32	1
211	213	1
16	17	2
189	220	2
68	68	1
38	88	2
181	198	1
159	189	2
13	14	1
58	60	2
37	37	1
24	43	1
154	154	1
108	118	2
116	116	1
40	41	1
224	225	2
20	178	1
27	54	2
162	184	2
65	72	1
95	199	3
179	192	1
103	103	3
114	177	1
15	17	1
50	51	2
1	1	1
47	65	1
7	8	4
186	186	1
187	223	1
15	15	2
154	191	1
128	128	1
2	47	1
74	74	2
115	115	2
212	214	1
140	141	1
211	214	1
1	12	2
159	159	2
113	169	1
153	199	1
50	50	3
112	121	3
36	89	2
29	31	1
167	167	1
10	25	1
236	236	2
70	140	2
2	2	3
168	169	1
231	231	1
186	224	1
52	100	2
237	237	1
234	236	2
8	14	2
115	177	1
31	41	1
165	181	1
129	153	1
195	207	1
31	36	1
80	80	2
24	235	1
135	136	4
9	217	1
49	60	1
76	77	1
182	182	1
20	21	2
113	183	1
130	153	1
132	200	1
75	76	1
34	36	2
198	198	1
185	185	1
19	31	1
55	55	1
30	107	1
127	197	2
20	27	1
34	84	1
102	102	2
67	74	2
42	42	1
21	58	1
126	126	1
82	102	1
144	149	1
1	99	2
201	201	1
184	222	1
171	171	1
242	242	4
12	12	2
110	110	1
184	185	3
156	157	1
31	106	1
18	105	1
30	218	1
27	28	1
193	202	1
27	86	1
119	119	1
223	224	1
135	135	1
31	218	1
89	89	1
0	200	1
194	194	1
117	126	1
26	43	1
17	61	1
91	91	1
10	20	2
188	190	2
124	168	1
65	70	1
50	105	1
169	169	1
53	142	1
180	186	1
77	78	2
1	3	1
23	106	1
168	168	1
154	194	1
120	180	1
67	131	1
69	71	1
150	194	1
126	159	1
74	146	1
