25	26	17
157	158	12
123	123	14
65	88	3
139	139	23
70	72	3
39	41	3
175	175	11
19	20	11
14	14	23
94	94	11
110	110	11
133	133	5
49	49	18
45	45	18
76	76	8
10	10	9
115	135	1
26	27	6
135	135	9
155	155	11
186	186	21
130	130	5
80	80	10
52	52	17
125	127	4
157	157	19
32	40	3
2	2	12
26	26	9
156	156	28
132	132	8
56	59	5
48	48	15
196	197	7
159	172	1
154	155	9
155	156	10
59	59	14
11	11	14
12	33	3
6	6	17
152	159	1
166	166	8
164	174	3
136	144	3
176	176	20
17	17	13
153	153	22
195	195	21
101	186	2
5	6	13
190	191	9
62	63	6
41	42	2
188	188	6
0	20	6
181	181	17
140	140	28
112	112	13
163	170	5
170	170	12
116	117	4
103	104	7
167	167	14
68	68	8
194	194	30
3	9	5
70	70	7
0	2	7
82	83	3
29	39	5
96	96	5
121	121	7
189	189	27
158	159	3
76	78	3
138	138	8
4	4	35
39	39	10
95	95	18
32	32	15
64	76	5
69	69	11
120	121	6
9	9	14
170	171	8
41	41	22
137	139	6
152	168	3
121	124	4
67	67	15
104	105	7
32	38	1
147	147	18
150	150	23
31	32	3
149	149	14
107	108	14
178	179	9
58	59	5
136	136	23
34	37	3
162	164	4
57	57	15
191	192	4
149	193	4
131	144	7
63	69	5
8	8	14
36	36	14
171	171	24
7	18	3
167	168	7
191	191	11
172	172	29
168	168	8
193	193	19
21	21	7
109	109	12
162	162	12
18	18	7
19	19	7
1	2	4
108	108	11
40	41	24
159	159	12
11	12	12
125	125	13
137	137	17
21	28	3
187	187	17
179	190	5
49	85	8
162	163	3
56	56	12
97	97	9
31	31	22
161	162	9
0	23	3
163	163	8
22	23	9
111	111	12
128	128	18
126	128	8
50	70	7
54	54	19
56	57	5
175	180	5
176	177	7
46	47	3
109	111	2
188	189	5
85	85	19
176	178	12
87	87	11
35	38	3
38	40	3
183	183	29
82	85	6
192	193	3
130	133	2
38	38	14
114	114	13
33	34	8
99	155	1
99	99	8
53	53	21
3	3	13
178	192	1
140	143	5
169	169	7
152	153	8
82	82	14
45	48	4
154	154	19
119	119	10
72	72	7
173	174	6
165	165	26
24	25	6
120	120	26
25	25	10
2	3	8
40	51	3
104	104	6
111	113	1
27	28	8
42	43	3
101	101	26
81	84	1
95	116	3
124	124	11
38	39	4
73	74	3
13	13	23
142	142	19
24	24	18
113	154	4
57	69	3
62	62	2
81	81	14
101	103	1
34	34	8
80	81	10
37	54	2
37	58	1
122	122	13
39	40	11
16	16	13
173	173	10
185	186	5
179	180	10
6	26	1
64	64	14
145	145	13
49	51	4
40	42	3
43	44	8
105	105	10
164	175	3
151	151	14
75	85	3
15	15	14
47	47	24
144	144	14
55	56	10
5	20	1
16	154	2
20	20	10
115	118	3
173	179	4
197	197	8
51	51	18
152	152	16
121	122	1
165	170	4
172	191	4
178	178	16
0	3	4
6	12	1
43	43	15
141	141	17
9	16	2
168	169	6
12	12	12
128	144	6
40	40	13
146	146	10
93	93	6
88	88	8
190	190	23
55	55	12
33	35	3
179	181	6
150	190	2
86	86	4
67	69	2
115	143	3
16	191	1
116	116	11
185	185	17
125	126	5
0	0	12
60	62	4
142	156	4
187	189	15
83	83	12
108	123	2
77	78	2
30	30	8
7	8	3
171	191	1
35	35	11
112	113	6
104	183	3
9	14	3
174	175	11
146	172	2
19	176	4
182	182	11
158	158	9
113	113	6
100	188	9
22	24	3
140	181	4
104	151	3
177	192	3
8	26	1
190	195	1
52	53	4
161	161	8
78	80	2
34	35	7
44	45	4
9	17	3
32	46	2
55	82	1
9	12	2
186	187	5
62	73	3
192	192	8
147	161	2
130	131	1
168	192	4
30	31	6
180	180	10
135	158	2
8	9	3
142	158	4
44	44	22
67	68	6
49	55	1
32	54	9
163	164	8
193	194	6
18	29	5
87	88	6
56	82	5
140	141	6
126	126	7
115	115	12
112	124	4
128	197	2
129	197	1
42	51	3
146	147	8
13	15	1
59	75	5
134	134	9
135	136	3
106	106	10
10	12	2
22	22	11
142	144	2
136	139	4
101	102	6
2	9	1
12	13	1
50	51	5
177	178	4
15	16	4
147	172	2
179	179	19
173	178	4
129	129	7
46	46	21
19	28	5
196	196	13
116	143	4
29	29	9
98	99	10
23	24	4
140	142	3
148	148	17
187	188	17
59	74	2
37	41	8
0	18	2
156	182	4
165	166	8
20	21	7
96	116	6
28	29	9
102	103	12
121	193	3
74	89	7
190	194	3
131	132	5
28	59	1
107	187	2
137	138	2
69	73	2
167	169	6
166	167	4
64	68	3
161	164	8
164	164	6
135	139	4
28	28	6
41	50	2
136	145	5
7	7	16
87	89	6
33	52	4
16	18	6
47	48	4
79	79	4
7	11	2
63	63	6
13	14	7
42	50	1
35	36	6
72	109	2
174	174	11
33	33	7
137	158	4
155	158	7
45	47	4
131	133	3
42	46	3
10	168	2
4	6	2
9	10	5
74	75	4
8	23	3
161	196	1
78	79	3
98	98	11
70	73	3
24	27	1
34	39	1
13	31	2
6	8	1
128	150	3
100	113	4
14	15	5
27	27	4
108	124	1
168	193	1
105	106	9
14	33	1
144	172	3
141	156	3
148	160	1
143	144	12
147	150	3
143	147	2
77	77	7
24	28	2
37	37	6
108	113	2
132	149	3
107	113	6
73	73	3
23	23	13
145	147	2
166	175	1
5	5	18
32	45	2
1	23	4
42	42	5
88	89	3
183	189	1
72	118	3
44	53	3
36	40	2
42	45	5
23	27	4
60	60	7
126	127	2
63	66	3
127	127	8
134	137	2
110	111	4
6	7	5
148	197	1
167	177	1
179	182	7
173	180	3
118	131	1
166	171	3
117	151	3
186	189	2
127	128	3
143	159	2
168	194	2
55	85	2
176	181	3
29	37	1
19	23	3
19	22	2
171	174	1
130	132	2
172	176	1
58	64	4
119	120	2
184	184	13
107	107	7
124	125	2
170	179	1
135	137	8
94	95	4
42	44	2
4	15	1
150	192	1
37	38	1
131	131	6
109	110	2
99	109	3
139	158	4
121	131	2
118	119	5
133	143	1
1	1	7
117	117	5
142	143	3
130	145	2
148	149	8
18	19	5
138	146	2
143	143	4
83	84	2
103	103	5
61	73	1
4	5	9
171	182	1
155	163	1
72	73	5
48	52	2
65	65	9
73	75	1
17	30	1
173	175	2
132	165	6
163	182	2
100	100	12
15	32	8
116	137	1
20	22	2
138	142	5
152	154	4
155	175	7
137	159	4
136	137	2
113	114	1
112	136	2
150	151	1
78	83	6
52	55	1
170	172	1
37	59	3
119	130	1
78	81	1
135	144	3
156	180	2
64	65	3
173	177	1
12	15	1
66	66	1
117	118	3
192	194	2
116	120	3
2	7	1
93	97	1
134	135	3
107	112	4
177	177	5
71	80	4
17	18	6
50	50	10
180	181	4
128	129	5
176	191	2
22	27	2
132	151	1
185	187	4
18	193	3
0	31	4
1	35	2
139	140	5
184	188	1
143	145	2
58	72	3
40	50	1
153	155	2
113	134	2
37	40	3
111	122	1
160	160	5
71	71	4
117	150	2
81	83	1
165	169	1
58	58	4
139	144	1
60	61	4
140	184	2
174	182	1
25	27	3
7	10	3
169	171	2
4	25	2
59	63	1
113	140	2
19	155	1
43	45	3
74	88	3
181	182	1
119	129	2
185	195	2
61	72	3
166	168	5
72	89	1
47	71	2
194	195	2
115	116	5
185	188	3
124	127	3
16	17	4
165	168	1
16	35	1
132	159	1
147	173	2
73	98	2
175	176	2
148	194	1
48	49	3
176	179	1
129	146	1
2	21	3
142	182	1
170	183	2
54	55	5
159	181	1
151	152	7
171	172	3
46	48	1
3	19	4
108	187	1
132	155	3
150	165	3
24	30	1
79	80	3
79	82	3
161	163	1
129	142	1
150	152	3
39	42	3
103	105	2
45	46	1
141	142	5
7	36	3
86	87	1
21	37	2
189	190	2
19	37	2
119	133	2
81	82	3
32	33	5
145	146	4
134	142	1
113	155	1
181	190	1
29	30	1
116	135	1
78	78	3
113	115	1
43	51	2
84	84	2
23	32	2
28	54	1
142	160	2
16	30	1
97	98	4
114	153	3
164	165	5
144	145	2
16	168	1
65	79	2
123	126	1
31	34	1
111	115	1
190	192	1
165	171	1
122	146	1
133	134	1
116	129	1
68	73	1
62	74	1
30	36	1
172	188	1
170	176	2
115	146	2
183	195	1
8	24	1
152	155	1
125	186	2
132	156	2
123	124	2
21	24	2
165	176	1
126	135	2
1	8	2
9	20	1
189	193	1
115	155	1
168	175	1
139	159	1
93	94	1
178	181	1
85	86	2
153	154	1
128	160	1
53	55	1
117	129	1
58	87	1
3	6	2
137	184	1
181	189	1
63	72	1
62	118	1
144	153	1
154	173	3
144	159	2
65	87	2
75	75	2
144	157	1
8	10	1
133	145	2
22	28	1
178	193	1
145	160	1
159	160	2
148	196	1
4	19	1
76	79	1
110	138	1
97	119	1
19	21	1
61	61	1
116	142	1
56	85	2
63	70	2
24	33	1
69	70	2
7	17	2
169	182	1
165	192	1
0	4	1
129	130	1
3	4	1
133	155	1
8	22	1
123	125	1
131	140	2
137	140	1
97	117	1
174	192	1
57	87	2
90	90	1
156	157	1
72	117	1
182	183	1
64	66	2
14	23	1
139	142	1
58	63	1
151	197	1
61	63	1
143	182	1
14	16	1
163	167	1
1	3	1
33	53	1
164	183	1
107	109	1
149	179	1
111	112	1
0	22	1
61	74	1
15	169	1
21	38	1
134	140	1
150	189	1
25	28	1
7	16	1
59	60	1
