81	82	4
6	8	3
47	47	13
81	101	2
19	19	9
94	96	2
14	23	5
16	36	4
126	134	6
40	40	2
99	99	4
35	35	5
32	33	5
73	73	4
9	11	1
24	27	2
36	37	1
74	75	1
29	29	13
23	40	1
14	20	1
106	106	4
43	43	6
79	80	2
4	4	3
133	133	8
21	21	7
23	31	2
36	41	2
77	77	4
70	72	4
22	50	2
83	83	7
124	125	2
7	11	3
128	132	1
97	98	1
60	61	4
1	38	7
131	131	2
79	79	4
7	15	4
82	83	7
110	110	6
22	22	10
120	120	1
70	103	4
94	94	7
132	133	3
85	85	5
6	6	7
105	105	1
117	130	4
11	11	13
41	42	4
100	100	4
64	72	3
125	125	3
74	74	6
70	70	10
78	78	6
16	16	1
27	28	3
91	93	3
13	16	5
7	7	1
5	5	8
82	82	6
27	92	2
48	84	2
98	98	3
46	46	4
44	47	1
15	49	3
81	115	2
64	64	3
95	100	1
60	60	10
68	68	10
61	61	1
51	56	3
134	134	1
45	45	7
127	128	1
111	111	1
71	71	1
60	78	1
34	34	2
32	35	2
118	118	3
26	26	9
122	122	1
69	69	5
126	126	8
90	122	3
112	112	2
93	99	1
20	32	3
114	114	4
15	109	2
90	92	3
85	87	1
56	56	3
49	49	5
131	132	3
40	127	1
90	90	2
66	66	2
10	10	5
23	30	3
85	86	2
91	126	2
27	27	1
14	14	9
23	23	1
21	32	4
65	65	6
20	21	1
130	130	1
9	9	5
48	93	2
78	79	2
28	28	2
17	17	3
67	108	1
108	109	2
25	83	3
46	47	1
95	95	4
93	96	3
33	33	5
86	86	2
115	115	2
10	61	2
15	41	2
1	1	1
6	89	1
97	97	6
66	68	3
15	15	6
123	124	1
84	84	1
25	26	2
18	18	3
117	117	6
109	127	2
64	65	1
71	78	1
91	92	1
89	92	1
13	13	8
117	123	2
12	28	2
60	86	1
51	51	1
106	107	1
123	123	7
81	81	4
18	36	2
34	75	1
58	58	2
101	102	1
72	72	5
7	27	3
76	76	1
106	134	3
41	41	4
21	107	1
68	74	2
37	38	3
8	8	4
5	21	1
4	44	2
9	10	3
8	10	2
59	59	7
15	78	1
15	16	2
132	132	2
48	48	1
3	3	2
15	59	1
12	68	1
5	7	3
63	63	2
128	128	1
38	55	2
4	56	1
47	48	2
24	25	3
58	88	3
67	67	1
23	25	1
24	29	1
93	93	2
87	87	3
12	12	3
35	36	1
102	102	2
15	90	1
100	101	1
31	31	7
9	17	2
31	38	1
78	82	1
11	12	1
37	37	2
88	90	1
26	80	2
129	129	3
111	127	1
6	84	1
43	44	2
38	51	1
38	38	1
24	24	1
34	35	1
42	82	1
50	50	1
8	44	2
61	74	1
112	113	1
29	37	1
122	127	1
101	101	1
110	111	1
92	92	1
80	86	1
21	31	1
1	2	1
6	12	1
