111	112	13
138	138	12
111	123	2
0	11	4
112	113	9
100	100	11
124	124	17
71	101	3
12	12	8
93	94	5
34	36	1
8	9	8
7	7	7
3	13	3
20	20	18
86	101	4
127	127	8
3	3	10
95	95	6
91	98	4
109	109	5
126	126	14
111	111	9
13	13	7
77	77	12
134	135	4
0	12	4
17	17	12
113	113	5
4	4	9
125	125	16
122	122	8
80	81	3
104	104	6
99	99	9
97	97	11
92	92	4
5	6	5
96	97	2
73	73	12
35	36	1
90	92	3
120	120	10
35	35	5
4	5	5
90	91	3
120	121	2
134	134	5
3	4	4
86	86	6
96	110	3
30	30	2
74	124	5
131	131	23
117	124	1
0	1	2
117	117	5
14	14	12
81	82	14
77	78	6
6	7	4
138	140	1
90	90	9
2	12	1
33	33	6
29	29	4
133	133	7
7	19	2
92	93	5
89	89	13
14	25	1
110	111	2
0	0	4
11	11	3
8	44	4
120	122	3
91	91	4
74	74	8
26	27	4
107	108	6
137	137	8
104	105	2
128	128	10
81	81	10
21	109	1
123	124	3
123	123	11
98	98	14
93	93	2
26	26	3
113	115	8
93	96	2
22	22	2
34	34	12
20	27	2
76	106	2
29	30	2
75	91	1
103	103	7
132	132	15
78	107	1
74	75	2
36	36	8
75	76	4
102	102	8
33	34	5
5	5	9
139	139	7
119	119	11
20	37	3
115	115	7
80	86	2
125	126	2
79	79	5
129	129	4
24	24	8
73	74	1
72	72	5
107	119	1
114	114	6
21	26	3
126	127	5
101	101	9
118	119	3
138	139	7
115	120	1
85	104	6
94	94	6
101	102	2
78	78	5
6	37	3
72	75	2
96	96	4
76	102	2
89	116	5
97	98	2
127	129	2
110	114	1
137	138	3
16	16	3
85	85	6
76	104	5
74	91	3
32	32	11
110	123	2
37	37	5
13	26	3
135	136	1
130	130	7
28	28	8
18	18	11
19	19	5
128	129	2
25	25	3
112	112	8
109	110	2
7	8	2
80	80	12
15	17	3
31	31	5
99	100	1
92	105	6
93	100	1
136	136	3
121	121	1
9	10	4
2	2	11
27	27	7
28	29	4
75	77	1
108	108	2
86	122	1
79	122	1
9	9	3
87	88	6
107	107	5
97	100	1
7	114	2
9	11	2
80	87	2
31	32	6
84	84	6
88	89	1
3	19	1
88	88	6
124	125	2
38	38	1
140	140	6
71	103	2
22	26	2
131	133	1
102	103	3
29	37	2
80	82	3
97	136	1
15	15	3
38	118	2
76	108	3
71	71	4
91	106	1
82	83	4
105	106	3
135	135	5
129	130	2
72	110	2
76	77	3
83	84	2
76	76	3
110	110	4
84	119	3
1	1	4
93	105	1
27	32	3
21	21	3
8	8	1
34	35	3
106	106	3
114	124	4
9	12	1
87	106	1
105	105	4
75	89	1
89	90	1
12	13	1
109	121	1
19	20	3
13	14	1
17	26	1
22	23	2
72	74	1
30	32	1
15	25	3
26	28	1
85	119	1
76	100	1
75	90	1
96	135	3
79	80	3
23	23	2
108	109	4
7	9	2
121	122	4
16	18	2
81	109	1
91	119	1
127	128	1
127	140	2
116	116	3
111	124	2
108	118	2
80	123	1
75	75	4
2	4	1
78	79	1
87	87	1
119	120	1
82	82	1
14	16	3
32	33	2
13	25	1
78	88	1
98	100	2
6	6	1
106	107	1
75	105	1
118	118	1
96	98	1
2	5	1
95	96	1
77	102	1
18	19	1
28	30	1
112	121	1
36	37	1
16	20	1
94	95	1
