145	145	13
124	125	15
127	127	17
13	13	10
164	165	13
48	48	9
38	38	12
14	14	5
43	44	9
97	188	3
55	56	4
98	129	2
80	80	4
121	121	8
53	53	13
78	79	10
17	18	13
160	161	7
63	64	7
150	150	7
166	168	1
18	18	16
151	157	3
10	12	6
10	10	13
129	130	1
58	66	3
64	82	1
67	68	6
89	90	5
22	22	6
141	161	1
70	76	2
26	27	2
4	5	3
112	113	3
94	127	7
2	2	20
183	183	1
106	106	7
17	17	12
59	60	6
15	15	12
41	41	6
79	79	16
83	83	23
11	11	5
62	62	10
153	153	3
118	118	10
21	22	5
159	159	8
94	123	9
147	147	23
64	64	14
126	127	2
36	66	2
19	20	3
14	15	6
23	23	13
151	152	4
140	166	3
155	190	2
21	24	5
166	166	3
138	138	6
124	124	9
3	3	6
152	153	8
174	182	1
34	34	4
169	179	4
5	13	1
184	184	5
117	117	9
178	178	2
90	90	6
16	17	6
111	111	10
148	148	11
26	26	16
18	43	6
79	126	3
71	77	3
115	115	4
61	61	3
70	70	5
63	83	3
122	123	1
76	76	12
88	88	16
4	4	5
99	99	10
96	107	8
97	101	5
133	133	8
92	92	12
86	118	6
56	57	8
68	75	1
4	6	2
142	142	16
12	12	8
71	72	14
53	54	4
74	81	5
6	7	3
125	126	10
134	134	6
24	24	14
27	27	10
146	146	9
176	176	4
58	58	12
151	151	9
19	47	6
70	71	8
67	67	11
116	116	12
114	165	3
107	107	7
23	24	7
160	160	10
97	98	1
137	138	3
139	163	1
100	109	3
81	81	10
114	143	3
70	72	3
25	30	2
118	144	3
66	78	1
33	41	4
5	5	8
44	45	6
63	63	7
143	144	2
145	161	3
60	70	2
134	135	7
140	143	3
15	17	3
13	29	1
184	186	2
112	112	7
119	119	4
37	63	6
24	25	3
90	112	7
74	74	7
20	24	8
64	83	2
156	156	9
75	75	3
143	143	3
95	128	5
85	87	1
125	125	7
101	106	2
8	8	15
113	113	16
130	131	2
177	177	6
4	15	4
53	72	3
11	58	8
142	143	2
105	106	2
145	162	2
69	71	3
44	44	5
46	46	10
58	59	6
83	96	3
102	174	1
32	34	3
15	16	6
93	93	6
108	109	2
89	89	8
97	97	12
189	189	8
65	103	2
98	104	3
86	86	7
84	84	4
31	31	7
82	82	8
98	188	3
38	39	3
75	76	5
110	111	3
165	165	4
65	68	2
158	158	3
99	152	4
57	57	2
173	173	1
35	36	3
6	35	3
163	163	15
140	165	1
40	65	4
64	80	3
29	31	5
39	87	3
117	130	2
86	88	2
32	33	6
0	0	8
74	89	6
75	82	4
108	108	3
90	95	3
39	40	10
123	123	6
139	139	8
163	170	6
19	19	14
152	152	11
153	159	6
28	28	8
11	22	2
37	37	3
37	38	1
135	139	7
73	73	7
5	17	1
105	105	8
31	32	3
148	149	10
114	114	10
146	149	1
141	142	2
71	109	1
70	96	1
70	106	3
100	120	4
187	187	1
175	186	1
14	41	3
76	102	5
6	6	11
149	149	7
93	113	4
16	18	2
87	87	11
87	88	7
126	126	3
81	82	5
100	110	2
8	10	3
43	43	10
42	42	8
161	162	4
36	36	5
154	154	12
115	116	2
10	17	1
86	99	1
53	55	4
56	56	10
7	31	1
27	33	3
26	30	2
22	26	4
72	73	5
54	54	11
141	165	5
164	164	5
16	16	11
93	94	4
135	137	2
11	60	4
104	105	3
132	132	15
47	47	9
58	60	4
57	78	5
100	101	4
140	180	3
85	119	1
0	1	3
21	21	10
127	178	3
122	122	1
39	39	7
45	45	5
161	161	2
137	137	11
94	94	1
130	133	2
120	120	10
166	167	4
135	135	2
96	182	5
162	163	2
147	149	2
76	82	5
7	8	2
106	170	2
7	24	1
133	137	6
33	34	3
33	33	8
133	136	4
55	55	11
9	12	1
45	47	3
39	100	1
126	168	2
123	124	1
96	96	3
6	67	1
123	175	2
174	174	3
54	76	3
30	30	5
155	156	2
7	25	1
138	156	5
95	108	1
182	183	4
65	65	10
92	93	3
170	170	3
7	26	4
77	77	9
66	66	8
33	38	6
110	110	6
110	112	1
61	73	2
140	140	9
60	60	4
111	118	7
136	136	7
74	107	1
142	144	2
101	102	5
173	179	4
9	11	6
35	35	3
144	144	2
34	35	4
59	59	1
99	188	2
103	103	7
155	155	10
45	46	4
179	180	4
134	140	1
58	61	2
52	52	3
157	157	4
151	166	1
140	144	4
113	127	4
85	105	1
175	175	8
130	130	7
131	133	3
135	136	4
72	100	1
182	182	5
115	129	1
28	31	2
108	119	2
1	1	7
91	92	1
134	137	1
88	89	1
127	185	2
95	95	2
114	133	3
127	143	2
10	18	1
123	139	5
106	150	2
141	141	2
6	46	1
10	13	2
175	185	2
5	6	6
189	190	3
138	139	4
53	56	1
101	101	12
55	72	1
186	186	6
98	98	2
71	110	2
104	107	5
72	72	8
8	13	3
169	169	2
130	139	3
20	21	5
8	12	2
41	48	1
46	47	1
66	67	9
161	164	1
132	134	3
22	23	2
100	100	2
54	62	2
71	71	3
95	129	3
154	155	6
111	112	3
33	35	4
58	73	4
90	185	1
171	171	1
74	80	3
163	164	2
76	77	1
4	17	4
86	123	1
98	100	2
91	94	5
40	40	1
65	101	5
141	156	2
83	84	1
128	128	2
3	4	3
127	128	3
144	145	3
94	185	2
156	161	2
171	172	4
157	158	6
6	43	2
96	97	2
41	42	3
5	18	1
114	141	2
20	22	2
173	178	1
145	164	1
181	182	2
153	154	1
114	129	1
69	111	2
90	91	4
180	181	2
7	19	1
98	103	3
102	102	5
16	19	1
185	185	1
143	184	2
55	75	5
63	68	2
93	95	3
89	103	2
74	87	1
99	107	1
146	147	2
9	9	2
128	129	1
2	14	1
52	68	1
6	42	3
136	137	2
10	11	1
6	68	3
180	180	1
162	162	1
109	109	3
101	103	3
71	100	3
131	131	4
188	188	1
171	173	1
4	59	1
105	170	2
107	108	9
124	126	2
53	69	4
190	190	2
95	123	1
5	16	1
14	17	1
25	25	4
61	69	2
137	139	1
13	14	2
91	91	3
73	86	1
10	21	1
61	62	1
20	20	3
5	60	1
58	72	2
96	124	2
113	115	3
102	103	1
114	115	2
129	129	4
95	96	2
14	38	2
118	119	3
141	154	2
56	79	1
179	179	2
82	87	1
114	127	1
178	179	2
79	81	3
113	118	1
181	181	2
152	160	3
88	122	1
161	189	1
73	88	1
106	113	1
124	140	1
149	150	2
7	7	3
29	34	1
36	37	1
172	173	3
53	57	1
124	128	1
27	28	1
85	89	6
80	81	1
94	186	1
19	24	1
98	107	1
32	32	1
86	110	1
147	148	1
102	173	1
117	118	1
3	7	1
188	189	1
158	162	1
183	184	2
110	118	1
142	164	1
174	175	3
6	27	3
128	165	2
87	100	1
162	164	2
145	154	2
3	5	1
47	48	1
99	186	1
82	86	3
177	180	1
110	119	1
11	12	3
188	190	1
85	85	1
3	10	3
7	47	1
104	104	2
4	8	1
93	106	1
170	189	1
12	19	1
167	167	2
30	32	1
29	32	1
119	125	1
94	113	1
8	30	1
184	185	1
162	165	1
100	131	1
58	75	1
