234	234	4
120	120	7
182	182	4
214	214	2
44	45	4
195	195	7
201	202	5
64	85	2
135	175	2
36	39	1
30	129	4
11	11	14
186	187	3
199	199	13
20	98	4
197	198	4
177	235	5
30	31	5
68	68	4
103	137	1
226	227	11
155	155	9
224	224	7
123	123	2
28	28	6
17	49	3
138	168	1
66	72	8
58	58	7
37	84	1
235	235	5
30	130	4
107	115	2
216	216	10
63	63	4
186	186	5
71	71	5
134	134	1
42	48	5
125	125	6
233	233	8
30	30	1
144	145	6
51	51	13
17	17	4
96	96	9
156	156	3
195	196	4
17	43	1
217	218	5
217	217	4
149	149	5
47	47	4
105	105	7
114	115	3
191	191	2
190	190	1
25	25	7
66	68	2
27	46	2
110	110	2
206	210	2
24	24	3
37	39	3
99	99	6
164	229	1
215	215	1
236	236	15
77	78	3
158	158	6
79	96	1
24	65	1
151	151	4
219	219	4
128	130	1
14	38	2
29	29	10
84	84	14
20	21	4
119	119	3
37	37	3
48	49	1
49	50	2
52	237	2
74	74	10
43	43	10
0	117	4
0	127	4
181	214	2
164	164	5
104	104	11
70	71	6
101	135	2
164	165	3
145	146	2
210	210	7
239	240	2
175	175	5
102	241	1
20	20	8
177	177	5
145	145	6
229	230	3
16	17	2
118	126	2
28	47	2
52	53	8
30	89	4
64	64	3
205	205	7
61	61	4
38	44	2
52	54	5
127	130	3
15	23	5
192	192	6
47	48	4
80	80	6
170	218	4
81	84	6
173	173	2
23	23	5
228	228	5
54	54	2
148	148	7
194	194	5
66	73	1
101	101	5
226	226	3
216	230	3
201	201	6
103	105	1
4	79	4
32	32	2
116	116	1
18	101	2
6	49	5
1	53	4
195	197	2
33	33	11
10	43	1
125	127	5
180	183	2
20	60	2
4	13	4
232	232	1
224	225	3
167	190	4
65	65	4
102	102	6
184	184	2
107	110	1
112	112	4
137	137	4
35	37	3
67	67	4
72	72	5
21	65	3
34	34	4
18	34	2
187	220	3
122	122	3
212	212	7
183	183	5
126	126	5
6	6	2
0	0	3
26	26	3
41	42	3
204	206	1
60	60	3
172	173	2
188	188	3
109	109	3
5	79	1
21	22	1
44	44	1
34	50	1
143	143	3
148	149	1
85	85	9
57	57	9
17	38	3
206	206	2
5	123	2
79	80	2
181	182	7
52	52	9
167	229	3
40	40	2
23	36	1
19	19	12
153	171	1
211	211	7
109	127	2
100	127	2
70	70	2
4	49	3
155	159	1
21	35	3
167	201	6
56	56	6
207	207	2
242	243	3
13	17	4
96	226	2
138	138	4
161	161	3
17	98	5
169	169	5
208	208	2
7	7	5
67	68	4
18	18	2
27	27	8
202	202	12
15	128	3
102	121	3
77	81	2
158	166	2
203	205	1
189	189	1
169	188	3
144	172	6
49	60	2
151	157	1
123	124	1
59	59	1
240	240	5
171	173	2
45	45	3
197	197	3
115	115	2
16	16	2
238	238	8
35	35	1
171	172	2
97	97	4
8	8	5
193	205	1
78	99	1
12	12	5
239	239	7
204	204	1
36	36	3
25	86	1
34	80	2
48	48	4
136	138	2
237	237	3
1	50	2
45	46	1
147	170	5
124	137	1
14	14	1
46	47	3
12	78	2
100	101	3
1	3	2
33	36	1
119	125	2
5	6	6
130	131	2
96	241	4
128	193	1
84	105	2
76	76	3
3	3	10
127	131	3
124	124	3
163	163	6
50	123	4
62	62	3
74	75	1
214	234	1
81	105	1
100	100	2
66	66	2
165	165	2
65	74	1
223	225	1
104	116	1
49	100	4
132	134	1
4	5	3
225	236	1
137	138	3
53	117	1
59	60	1
68	72	2
200	200	1
128	135	2
203	203	5
81	81	8
64	81	2
11	86	1
159	166	1
227	227	5
142	142	4
39	39	1
88	88	10
184	186	1
195	202	1
81	82	2
2	121	2
135	135	1
177	187	2
179	179	5
31	59	6
154	154	1
78	78	4
231	231	2
184	207	2
174	174	3
69	145	2
177	226	1
103	103	5
174	177	1
147	149	2
46	46	3
48	50	4
36	37	1
153	153	4
97	190	1
55	83	1
138	217	2
82	82	2
51	52	4
29	43	3
6	15	1
86	86	3
53	242	1
198	198	4
178	183	2
18	99	1
102	120	3
213	213	4
171	171	4
118	118	1
75	75	14
180	180	3
16	23	1
172	172	4
58	91	2
106	106	7
115	124	3
15	15	6
141	141	1
185	187	1
140	141	1
43	44	5
17	77	2
123	125	3
98	101	3
221	229	1
225	226	4
28	29	4
218	218	4
13	78	3
30	36	1
185	213	2
154	170	2
124	125	3
18	48	2
6	23	1
133	133	3
31	31	1
187	187	2
41	41	2
21	105	1
4	16	1
29	31	2
120	240	1
18	19	2
225	225	3
219	233	1
185	185	3
139	210	1
98	99	1
175	226	4
18	22	1
166	167	1
121	121	2
153	154	1
10	10	1
120	241	3
123	127	1
138	140	1
13	13	1
8	34	2
7	8	2
5	129	2
33	57	1
0	30	2
220	221	3
25	61	1
145	178	2
22	22	6
39	40	1
24	48	1
180	212	2
131	131	5
105	106	1
80	84	2
190	231	2
24	27	1
71	73	1
99	100	1
187	221	2
95	99	1
50	58	2
108	191	1
4	7	1
214	216	1
183	200	3
18	21	1
153	180	2
35	57	2
82	83	2
147	147	2
42	42	3
36	85	2
19	77	2
38	39	1
155	156	2
15	16	2
213	214	1
157	158	1
179	183	1
48	114	1
185	186	1
169	196	1
223	228	2
11	98	1
203	204	2
0	16	2
38	38	2
159	159	3
182	183	1
50	50	2
21	21	1
12	31	1
149	150	2
64	65	4
207	208	1
138	139	1
77	77	6
4	4	2
200	203	1
17	35	1
160	227	2
116	117	1
144	144	2
1	1	1
174	191	1
15	106	3
173	174	1
215	234	1
185	200	2
62	63	1
2	3	2
4	8	1
170	170	2
139	139	1
51	53	1
12	14	1
4	21	1
61	78	1
222	222	1
118	136	1
87	105	1
104	126	5
223	223	2
166	166	1
29	60	1
18	59	1
143	171	2
108	123	1
211	213	2
50	115	2
168	207	1
12	20	1
188	215	1
241	241	3
130	130	2
220	220	1
128	128	1
98	98	2
1	2	4
174	175	3
20	91	1
183	199	1
120	127	1
154	155	1
230	231	1
144	170	1
153	155	1
69	73	1
12	47	1
152	196	1
2	13	1
103	117	2
78	79	1
53	53	1
69	69	1
3	55	3
65	66	3
144	149	1
38	82	1
7	33	1
190	216	1
190	191	1
180	181	1
129	130	1
190	229	1
179	180	1
82	84	1
99	239	1
216	231	1
129	217	1
146	146	1
33	53	1
14	211	1
8	33	1
19	20	1
13	80	1
18	80	1
118	119	1
55	89	1
150	150	1
160	160	1
50	107	1
101	217	1
152	152	1
99	101	1
170	179	1
164	212	1
157	161	1
1	101	1
15	19	1
63	74	1
206	207	1
13	79	1
