41	59	2
12	12	13
56	58	4
9	12	6
45	50	3
1	2	4
50	50	14
39	39	23
0	1	8
59	59	15
38	42	9
53	56	2
37	37	35
49	49	11
2	2	21
60	60	37
40	42	3
53	54	8
61	61	19
19	19	8
62	62	26
21	59	2
32	33	6
51	52	18
59	60	4
5	5	23
50	53	2
54	54	17
22	22	13
32	32	37
44	45	3
0	0	16
57	57	25
21	24	2
60	61	4
8	9	11
56	59	11
23	24	10
56	56	20
24	25	5
21	21	5
18	18	14
6	35	2
42	60	4
41	41	14
35	36	12
16	16	9
13	13	22
58	58	19
19	20	3
10	10	19
21	23	3
11	12	4
44	44	49
43	44	13
43	43	25
35	35	47
56	57	14
53	53	14
14	14	19
47	60	2
40	41	13
52	52	36
45	58	5
39	40	9
47	48	13
46	46	38
0	5	2
45	45	18
47	47	31
24	24	13
36	36	41
38	38	36
1	1	12
57	58	15
31	32	13
41	56	1
41	42	7
56	61	2
18	19	8
8	32	1
17	17	9
55	55	29
8	8	19
30	30	27
51	51	27
37	38	10
10	11	8
33	33	35
34	34	30
47	51	3
11	11	14
40	40	12
42	42	19
58	60	2
48	56	2
34	35	6
23	23	8
2	3	5
45	57	1
44	58	1
9	9	19
31	31	36
51	53	6
22	23	7
24	45	4
14	16	7
6	7	17
21	22	6
31	33	2
4	4	10
38	41	5
4	17	3
21	40	3
37	39	8
32	35	1
48	48	34
42	43	10
44	47	2
42	61	4
3	12	1
3	3	6
15	15	9
45	54	3
38	39	12
2	20	1
19	23	3
32	50	2
6	15	2
42	47	4
16	18	1
38	58	2
24	26	2
55	56	5
45	47	4
7	8	5
20	20	9
36	56	5
55	59	1
15	16	3
49	50	10
52	53	7
13	14	3
7	7	3
1	5	5
42	58	6
41	58	2
32	48	4
40	51	2
30	42	2
30	31	10
25	25	13
16	17	6
4	5	5
35	43	4
22	24	4
20	42	2
5	6	2
41	45	2
44	57	4
50	51	2
12	13	11
36	43	1
17	61	2
33	34	3
57	59	2
46	47	7
30	32	8
44	53	1
31	36	2
43	46	1
46	53	4
38	59	4
44	62	1
8	16	1
40	43	1
54	55	2
45	59	2
36	39	3
53	57	2
1	3	4
44	61	5
6	20	1
58	59	13
14	15	5
4	6	2
53	55	2
3	5	2
44	46	1
6	6	6
13	35	2
25	51	2
1	20	3
5	10	1
52	54	2
24	46	1
31	35	1
36	42	4
24	58	2
37	54	1
37	56	2
3	4	9
46	59	2
48	50	3
39	42	1
48	49	3
37	48	1
55	58	1
1	6	1
23	61	2
2	4	1
17	18	1
41	48	1
37	51	1
9	10	3
39	41	6
36	37	3
37	53	1
45	60	2
16	19	2
2	7	1
54	57	2
36	50	2
46	55	2
31	50	3
22	59	1
0	19	1
34	49	1
41	44	1
45	46	1
42	44	2
8	29	1
33	48	1
9	11	2
31	49	1
37	42	2
46	51	1
29	30	1
52	57	1
37	40	2
45	56	1
29	50	1
39	59	1
36	60	1
20	21	2
51	54	1
42	46	2
37	59	2
37	50	1
24	44	1
7	24	1
51	55	1
38	52	1
47	55	1
18	20	1
30	39	1
0	2	1
29	29	1
15	17	1
