40	45	7
20	20	7
130	130	6
10	11	3
118	118	2
109	110	4
51	55	4
75	105	1
41	41	11
62	63	4
24	24	10
18	18	16
26	27	6
66	66	9
104	104	20
42	42	19
81	81	11
112	113	5
95	95	15
18	123	3
131	131	12
84	84	6
32	32	8
117	117	7
8	8	5
34	34	6
49	49	9
68	68	14
85	85	16
20	32	7
77	78	9
35	36	7
17	17	3
98	98	8
140	140	9
6	22	1
16	22	1
77	79	8
141	141	7
12	29	2
10	10	2
51	73	6
53	53	4
6	6	16
55	107	1
152	152	7
75	76	3
46	46	10
38	38	7
27	27	5
29	38	5
115	115	3
82	82	4
73	74	5
26	32	6
37	38	4
21	21	5
39	39	11
27	28	3
151	151	3
15	15	8
87	87	2
120	121	2
51	51	7
99	115	1
19	19	22
66	74	3
132	132	4
119	119	12
72	75	3
123	123	11
39	49	2
5	16	3
104	105	2
40	40	10
110	110	6
126	137	2
28	63	2
65	66	2
134	152	2
136	136	9
55	55	3
71	71	14
19	21	2
16	16	15
20	23	2
114	114	9
99	99	10
41	43	3
57	58	2
57	57	6
54	56	3
79	79	13
70	70	6
5	5	15
31	31	10
24	57	2
67	78	2
50	51	2
105	105	4
9	9	11
127	127	3
135	138	4
117	118	4
85	86	1
112	112	3
102	102	7
38	50	2
137	138	5
150	150	8
75	79	2
6	18	5
106	106	9
29	29	12
37	109	2
6	8	2
127	132	4
63	63	3
77	80	6
153	153	8
48	48	4
47	48	5
33	39	2
138	143	4
93	94	10
28	28	8
32	52	2
4	9	5
101	105	1
33	33	17
109	109	12
73	73	9
6	7	6
125	125	4
22	32	2
44	46	1
124	124	6
76	76	8
22	22	17
74	75	5
47	47	17
149	151	1
67	91	2
147	148	5
58	62	2
126	127	3
11	15	2
11	11	4
32	37	3
45	45	20
129	142	1
102	103	9
83	88	4
107	107	13
125	127	8
147	147	6
48	72	1
113	113	3
77	77	13
144	146	1
87	98	3
86	100	4
37	37	20
85	100	4
8	9	2
16	17	7
5	7	2
65	65	8
72	76	1
33	50	3
116	128	2
15	16	3
80	81	4
92	92	9
71	93	4
67	87	2
39	64	3
20	21	12
83	83	3
58	58	6
4	4	9
12	13	1
56	57	5
76	105	3
23	23	6
28	62	4
82	84	2
94	116	3
109	114	1
39	62	4
24	25	3
26	26	3
31	32	5
30	39	6
67	73	1
103	103	6
39	40	3
128	128	3
45	46	6
30	31	5
93	93	2
124	126	4
80	80	7
22	23	4
15	25	2
66	76	2
32	33	3
41	42	6
35	35	8
4	8	1
69	70	1
148	148	1
92	95	2
50	63	3
115	116	3
133	133	8
21	135	3
135	135	4
96	96	7
57	85	2
32	86	2
87	89	3
88	93	3
53	54	3
129	135	2
94	97	3
27	51	2
129	129	9
108	108	5
95	96	2
137	144	2
144	145	1
98	99	3
31	39	4
69	69	3
81	82	4
114	115	1
23	29	1
26	49	3
99	100	3
86	89	3
36	36	7
85	87	2
110	111	3
122	122	3
64	74	4
51	74	6
43	43	2
125	137	1
146	147	3
19	124	3
46	109	1
33	100	2
44	44	5
67	68	5
30	30	1
78	78	5
134	134	2
21	22	5
120	120	8
90	90	3
50	50	3
130	131	2
6	23	1
18	19	1
14	49	1
2	2	3
89	89	3
56	56	3
44	45	2
24	45	3
33	56	3
51	68	2
54	54	9
100	100	2
143	144	4
87	92	1
7	7	4
78	80	1
34	36	3
46	50	2
105	109	2
28	84	2
71	92	2
142	143	2
50	55	2
32	63	2
142	144	5
75	75	2
107	114	3
12	14	1
129	131	1
28	29	7
52	74	2
68	76	3
103	111	1
12	12	6
13	26	1
14	15	5
142	142	2
54	55	5
126	142	3
48	71	3
132	133	2
39	43	2
154	154	3
19	24	2
138	139	2
94	94	2
45	109	3
43	63	3
117	124	1
56	85	3
33	42	2
3	3	6
14	14	2
149	149	1
52	52	3
11	16	1
129	141	2
64	64	5
101	101	2
51	63	1
40	41	1
8	18	1
71	79	2
43	104	2
126	126	2
63	64	1
23	30	2
28	42	1
145	145	2
113	137	2
14	26	1
48	73	4
32	106	1
20	30	3
13	13	4
143	146	2
150	151	5
120	123	2
14	102	2
23	49	1
137	139	1
47	147	1
43	62	1
119	122	1
43	44	1
65	67	2
109	112	1
94	126	2
133	134	2
62	62	4
109	111	1
51	72	2
18	21	2
33	41	3
24	104	1
58	88	1
75	85	1
83	98	1
9	10	3
72	80	1
136	137	1
66	78	1
49	52	2
142	147	1
71	72	2
132	134	2
67	67	4
84	99	3
77	88	2
27	84	1
50	62	1
68	69	1
25	26	6
84	88	2
94	95	2
76	78	1
113	116	1
94	127	4
7	22	1
53	71	1
86	86	2
121	122	1
127	128	1
96	142	2
27	62	1
120	137	2
12	28	1
116	125	2
97	98	2
123	126	2
4	7	1
97	97	1
113	114	1
108	114	2
118	123	1
21	66	1
94	96	3
53	55	1
95	98	1
63	74	2
29	51	1
25	25	1
14	17	4
20	38	1
101	103	1
9	23	1
23	63	1
83	84	2
57	106	1
129	146	1
46	51	1
21	23	1
30	38	1
111	113	1
47	69	2
13	15	2
129	130	1
105	151	1
106	107	2
19	22	1
70	71	1
6	48	2
36	37	1
75	108	1
65	69	1
22	31	1
28	34	1
32	35	1
51	70	1
49	51	1
140	141	1
49	50	1
9	16	1
29	62	1
22	25	1
121	121	1
76	79	1
18	43	1
38	39	1
137	141	1
74	74	1
116	116	1
3	5	1
