41	41	4
145	146	4
79	88	2
21	21	11
102	102	5
19	19	8
58	65	2
111	112	3
141	141	9
75	82	3
75	104	2
13	13	9
74	74	8
69	69	8
72	72	7
132	133	4
8	21	2
46	71	1
4	140	2
27	38	1
129	129	2
38	54	4
121	121	8
4	4	8
96	132	2
80	93	16
148	148	12
10	10	4
73	74	2
77	99	3
13	14	5
44	44	8
76	100	2
144	145	2
13	17	5
43	43	4
37	121	1
145	145	2
7	31	2
33	34	4
17	18	5
50	51	9
143	143	7
66	67	8
123	123	5
40	48	1
36	85	3
67	67	7
144	144	5
147	147	5
93	94	1
12	35	1
74	91	1
15	16	1
152	154	2
120	120	8
8	8	5
42	118	3
126	126	9
9	9	5
76	101	2
6	6	9
45	45	7
65	66	2
149	149	2
104	105	4
11	11	7
107	107	5
73	85	2
49	49	3
109	109	4
56	56	4
18	19	4
79	79	3
120	121	2
102	103	2
39	69	2
140	145	3
133	133	5
26	26	6
51	52	5
47	47	4
34	35	2
79	80	2
86	86	2
4	6	2
95	99	1
78	78	6
63	63	13
90	92	4
30	30	2
5	5	4
77	77	3
35	35	4
124	126	2
98	98	3
103	103	1
6	28	2
10	53	5
64	64	6
68	104	7
80	114	3
29	44	1
42	42	4
42	43	1
99	100	1
44	45	5
96	97	2
150	150	3
142	142	5
151	151	4
114	114	2
22	22	5
116	116	5
140	141	3
36	36	10
107	119	1
29	29	6
29	51	1
40	40	1
25	25	4
61	62	3
97	97	6
63	138	1
82	82	9
37	38	3
46	46	9
85	86	9
43	44	3
73	73	2
123	126	2
6	8	1
139	139	7
152	152	3
38	53	1
94	94	2
30	32	4
92	92	3
35	36	2
14	14	2
90	93	2
149	150	2
93	95	1
37	37	2
37	46	1
57	57	3
41	102	2
13	18	3
48	64	2
65	67	1
130	130	2
118	118	1
32	33	3
66	66	4
95	95	5
50	50	4
17	17	4
128	128	6
120	124	2
101	101	3
101	102	2
27	27	2
12	12	2
63	64	2
96	98	2
27	28	1
46	107	2
98	99	3
11	12	3
24	24	6
6	7	2
131	131	1
13	15	1
24	44	1
72	73	2
77	87	3
49	72	1
102	135	4
65	65	4
80	80	2
7	7	3
85	85	6
24	43	1
93	93	1
105	113	1
106	144	1
39	53	1
55	55	4
79	100	2
103	130	1
20	21	3
33	35	1
83	83	2
94	99	2
111	111	3
22	23	5
71	73	1
118	119	1
81	82	2
31	32	2
34	121	2
76	78	2
57	63	2
75	76	2
80	82	10
10	13	1
62	86	1
117	117	3
39	39	4
106	107	2
12	30	1
76	77	1
53	54	2
46	108	1
5	8	2
104	104	1
87	88	1
84	84	2
122	122	1
106	106	3
62	69	2
25	27	1
122	125	4
33	33	1
113	113	1
73	76	1
141	146	1
54	54	3
108	108	2
138	138	2
115	115	3
150	152	1
78	79	1
32	32	1
143	144	1
71	71	3
41	42	4
66	74	1
15	15	1
81	81	1
14	15	1
121	128	2
39	54	1
131	142	2
27	43	2
79	83	1
62	62	1
84	85	1
125	132	1
13	32	1
26	28	1
70	71	1
49	52	1
115	116	1
135	135	2
42	108	2
76	76	1
153	153	2
128	133	1
52	122	1
101	111	2
17	19	1
38	38	1
87	87	2
67	68	1
147	148	2
100	100	1
112	113	1
124	124	1
79	87	2
85	87	1
39	40	2
25	28	1
18	18	2
119	122	1
122	135	1
34	34	1
74	77	1
80	81	2
64	144	1
4	5	1
20	20	1
140	140	1
83	99	1
7	98	1
11	32	2
103	121	1
127	128	1
62	63	1
31	31	1
100	121	1
37	103	1
45	46	1
28	28	1
53	53	1
77	83	1
