41	41	3
181	181	13
134	134	9
142	155	2
4	4	2
107	107	7
112	112	7
33	33	5
197	197	1
167	167	6
142	142	5
122	126	3
11	15	2
116	118	1
84	184	3
4	28	5
147	147	8
58	63	2
169	170	2
110	110	5
83	86	3
42	51	3
64	86	1
49	49	14
43	44	7
175	175	4
27	27	7
129	129	7
123	123	3
85	85	4
10	11	2
95	96	3
177	197	1
0	2	2
189	189	8
160	180	1
115	171	1
196	196	3
5	7	2
50	50	15
162	164	1
141	141	11
15	15	8
101	188	2
53	53	8
46	46	7
76	76	4
169	196	2
176	176	7
113	114	5
94	96	1
150	150	8
159	159	5
122	122	8
24	24	5
45	45	9
140	178	3
156	159	2
32	32	8
113	113	3
171	171	5
188	188	6
104	163	4
114	186	2
96	97	5
191	193	1
158	159	1
7	7	4
194	194	6
186	186	10
63	69	5
163	163	1
51	51	5
133	134	2
54	54	7
154	178	1
119	119	2
38	38	8
24	29	3
178	181	2
117	117	8
13	46	4
150	155	2
7	8	5
196	197	1
140	140	5
129	154	2
116	116	1
143	143	8
145	145	5
139	176	3
155	156	3
99	186	4
131	132	1
56	56	12
190	190	5
177	179	1
138	138	6
112	150	4
13	13	6
149	149	6
187	188	1
160	181	2
108	109	2
38	53	4
126	126	3
157	157	16
1	1	6
99	99	7
135	160	6
109	110	6
29	30	3
58	58	6
33	64	2
47	47	5
180	187	6
150	151	2
10	10	6
66	66	8
0	23	1
96	96	6
102	109	2
48	48	8
139	153	3
95	95	2
18	18	7
1	16	5
187	189	1
169	169	11
108	108	5
105	106	4
12	12	15
66	67	5
193	193	6
6	7	1
39	39	9
121	183	1
161	163	3
192	192	3
151	151	5
69	69	3
61	77	2
176	183	1
8	23	1
175	178	3
26	27	5
4	47	1
158	158	6
8	8	3
93	105	2
155	155	7
117	118	6
168	168	4
59	63	2
151	183	2
137	137	7
139	139	6
44	44	3
46	56	4
156	156	3
2	2	3
136	183	2
34	34	2
133	133	8
34	57	5
116	117	4
182	185	2
106	106	2
37	37	5
132	133	4
42	45	1
62	62	3
173	173	12
106	162	4
144	144	2
115	115	6
46	50	1
37	39	6
121	121	4
113	177	2
161	161	6
148	148	5
126	127	6
4	54	3
83	84	1
116	129	1
155	158	1
112	153	2
169	191	1
81	85	2
127	127	3
35	35	8
70	70	7
43	65	3
98	182	4
154	181	1
55	55	2
14	14	4
52	52	6
89	90	2
19	20	4
106	172	1
177	178	1
62	74	1
130	130	6
143	144	2
152	152	6
188	194	2
17	17	2
86	87	2
61	74	4
183	183	8
160	160	7
100	100	4
105	105	1
174	174	3
74	74	1
165	174	1
176	180	2
45	46	4
183	187	1
191	191	10
145	165	4
176	177	2
177	177	3
136	180	5
87	150	1
1	2	4
67	145	1
170	171	3
44	65	2
155	176	5
136	137	1
5	5	3
158	163	1
125	125	4
87	87	1
20	51	2
180	181	2
34	61	1
123	124	4
14	46	2
28	28	5
11	11	1
179	179	5
8	16	2
135	163	1
170	170	8
154	154	2
115	137	1
141	142	3
103	103	1
101	103	2
111	111	2
111	189	1
5	66	3
182	182	3
172	191	1
11	71	3
134	135	3
25	25	3
103	107	3
67	77	1
59	59	1
134	162	1
118	120	2
155	168	2
38	39	2
139	140	1
153	155	3
157	158	4
40	40	2
59	73	1
174	175	3
18	80	2
28	29	3
34	38	4
168	169	3
186	193	2
140	173	1
30	30	4
3	6	1
185	185	2
88	88	5
23	23	3
33	174	2
65	65	1
27	28	3
3	5	1
195	195	4
146	146	3
118	118	2
180	185	1
102	111	3
64	64	6
171	191	1
64	72	1
94	94	1
131	131	2
165	166	3
139	160	2
62	63	2
79	81	2
172	172	4
173	176	2
141	149	1
163	189	1
26	26	2
166	182	2
129	133	3
95	100	1
78	78	3
166	166	3
102	106	1
72	73	1
59	60	3
61	65	1
29	29	4
146	148	2
84	86	3
11	12	2
77	77	3
52	53	3
71	72	2
192	193	2
138	181	2
113	186	2
175	176	1
152	177	2
68	68	2
7	76	2
102	108	1
40	51	1
103	109	1
128	128	1
48	51	1
1	7	1
71	71	1
104	104	2
155	174	1
22	62	1
112	184	3
162	162	1
19	41	2
114	120	1
25	52	2
135	136	1
135	135	2
4	20	1
120	120	3
132	132	2
101	101	1
168	181	1
3	4	1
115	119	2
63	63	2
163	164	1
25	39	1
28	53	2
16	16	4
122	125	1
34	96	1
86	86	1
2	18	2
36	36	3
185	188	1
23	28	1
85	94	1
102	103	1
38	43	2
14	15	1
2	3	3
161	162	2
111	137	1
115	134	1
46	47	2
5	51	2
34	39	1
71	74	1
105	107	2
113	176	1
180	180	4
42	42	1
191	192	1
102	102	2
114	196	1
57	57	1
123	135	1
56	69	2
103	108	2
118	119	1
16	40	1
149	150	1
76	165	1
98	98	2
39	40	1
153	153	2
178	178	1
67	75	1
131	176	1
5	26	1
114	114	1
114	119	1
19	19	1
90	151	1
124	124	1
25	27	1
87	88	1
7	17	1
138	143	1
167	168	1
107	108	1
25	44	1
9	9	2
99	171	1
141	169	1
171	190	1
104	105	1
130	174	1
84	93	1
39	96	2
109	109	1
82	82	1
