2	19	2
29	29	18
51	58	1
168	168	9
91	91	3
14	14	8
24	24	8
89	89	6
36	37	3
56	84	2
137	137	2
59	59	4
28	28	2
85	111	3
7	7	6
55	55	5
84	85	7
32	32	6
161	162	3
12	17	2
119	119	4
20	22	9
152	152	4
45	45	8
11	12	9
43	43	8
122	123	4
6	6	14
8	8	15
135	135	4
97	113	2
115	115	2
37	37	4
13	13	5
71	71	5
78	78	3
43	44	10
0	0	11
96	121	2
4	16	3
142	142	10
144	144	3
167	167	6
103	103	7
2	2	2
22	23	1
109	109	4
134	134	4
41	41	17
18	18	11
166	166	12
74	74	2
38	38	11
104	104	10
68	68	2
154	154	5
170	170	3
22	178	2
54	54	3
171	176	2
158	159	1
159	164	3
9	9	18
39	41	3
116	116	2
82	85	2
96	96	5
105	106	2
16	16	11
94	94	3
170	171	4
126	126	3
0	1	3
129	129	8
5	5	1
26	26	4
135	136	2
33	33	2
22	24	2
77	77	3
124	125	1
159	159	2
80	80	5
145	146	3
19	30	1
20	36	3
141	141	1
61	61	9
81	81	3
3	7	8
106	107	2
19	19	5
23	23	4
4	4	16
16	31	2
29	30	4
25	26	2
30	30	2
133	137	2
42	42	6
169	169	3
147	147	5
112	126	1
16	17	3
166	178	1
155	156	5
148	148	12
15	25	3
83	84	6
11	21	7
24	25	4
11	23	2
75	75	5
179	179	6
30	31	4
11	13	7
6	7	6
168	177	2
102	102	4
164	164	7
18	19	7
1	2	1
136	136	12
5	7	1
123	124	1
54	56	1
52	79	2
161	161	1
2	4	3
28	29	3
32	33	1
3	4	4
1	1	6
170	178	1
141	142	2
36	41	3
58	59	4
164	165	1
34	34	4
94	112	3
59	147	1
17	18	4
91	94	2
62	62	1
127	173	3
180	180	7
35	35	6
134	138	2
10	10	10
143	145	1
121	121	2
62	63	5
120	169	2
33	43	1
81	84	1
50	50	2
19	20	4
93	93	1
55	68	3
91	97	2
35	36	3
172	172	9
98	98	4
84	84	1
16	18	1
96	97	4
144	164	2
26	27	2
133	133	5
138	138	6
36	36	6
57	57	4
125	126	1
128	131	1
106	112	2
37	38	5
154	165	1
95	95	9
13	15	1
100	100	4
98	99	4
87	119	2
44	44	9
50	51	1
132	134	2
167	168	2
155	155	8
104	111	1
21	21	3
34	36	1
60	60	8
65	65	2
3	3	7
23	24	1
108	109	2
33	35	2
101	103	1
146	146	2
91	92	3
140	140	4
5	8	1
108	108	5
11	11	13
53	54	5
28	33	1
12	13	4
147	165	1
99	100	4
158	165	1
28	37	2
131	131	2
139	139	2
67	67	3
24	29	2
145	145	1
120	120	8
79	79	2
130	131	5
113	113	2
27	28	3
157	158	1
130	141	3
10	11	4
23	31	2
138	142	1
58	147	1
123	156	3
96	120	3
118	118	4
100	101	2
5	6	2
40	40	4
106	106	1
117	118	2
80	81	2
101	101	1
79	80	1
4	5	3
92	97	1
115	123	1
2	3	1
107	107	2
91	115	1
118	120	1
15	15	1
22	25	1
92	92	3
83	83	3
130	130	2
145	147	2
102	112	1
77	80	1
90	90	2
3	8	1
76	77	5
115	145	2
59	60	3
169	170	1
25	117	3
27	27	7
143	143	6
81	87	3
103	131	1
32	38	1
155	165	1
5	18	1
157	159	1
116	119	2
92	93	1
41	42	2
13	17	1
124	173	1
72	117	1
51	52	1
26	28	2
65	66	1
52	52	2
127	127	3
35	44	2
23	25	1
13	14	2
97	97	1
163	163	1
71	72	1
125	125	1
43	45	1
111	111	1
118	119	3
153	153	1
115	125	1
31	32	2
114	114	3
66	68	1
128	128	1
70	85	2
64	64	1
6	60	1
158	167	2
38	39	1
163	164	3
117	146	2
8	14	1
105	105	3
19	21	1
39	39	3
120	121	1
103	104	1
165	165	1
22	22	2
52	53	2
56	58	1
82	82	1
129	130	2
56	56	1
72	74	1
166	167	1
12	12	3
107	132	1
156	157	1
156	160	1
8	10	2
103	105	2
34	35	2
177	177	1
49	49	1
176	177	1
138	139	1
72	83	1
65	112	1
27	32	2
149	149	1
150	150	1
148	171	1
39	40	1
133	147	1
90	96	2
16	30	2
7	12	1
132	138	1
24	37	1
151	151	1
157	157	3
2	8	1
72	73	1
158	158	1
80	118	1
18	45	1
98	117	1
122	122	2
103	115	1
173	175	2
176	176	1
142	154	1
17	38	1
24	30	1
88	89	1
98	114	1
145	161	1
7	8	1
18	30	1
167	179	1
110	110	2
156	156	1
21	25	1
25	25	1
100	103	1
112	112	1
173	173	1
109	110	1
