3	3	15
140	140	2
115	115	1
67	67	8
19	19	16
125	131	1
42	42	4
143	143	8
53	57	2
21	22	6
95	96	2
50	50	5
117	118	3
104	104	5
37	37	8
28	28	3
45	45	13
14	14	4
169	170	6
129	137	3
163	163	6
24	24	12
8	10	2
9	53	1
41	43	1
157	157	11
158	158	5
67	69	3
17	18	3
98	98	5
54	54	15
4	5	3
95	98	3
130	131	5
123	152	4
33	33	5
0	0	19
103	103	7
22	22	8
116	116	8
151	154	2
21	21	10
166	167	4
90	90	12
64	66	5
1	2	12
108	108	17
1	1	14
62	67	2
48	49	10
20	156	1
138	138	12
11	11	9
130	130	5
40	40	6
115	147	1
165	166	1
47	49	3
1	12	3
135	136	4
34	34	6
162	164	1
53	53	3
14	16	2
20	24	2
74	75	2
88	89	5
38	49	2
36	36	8
45	46	2
51	51	6
39	39	7
52	52	5
154	154	4
91	93	4
128	128	7
25	56	1
46	47	5
41	44	3
139	141	1
119	120	5
23	65	2
25	25	8
55	55	9
70	76	3
124	127	2
124	125	3
101	103	6
73	73	7
159	161	3
108	152	1
112	112	8
10	10	5
94	94	2
79	80	4
137	139	1
117	126	2
70	70	7
8	8	3
44	46	4
105	106	8
164	165	3
22	90	4
106	107	2
9	16	2
12	12	12
52	53	3
37	51	1
142	142	5
129	132	2
146	149	1
93	93	4
162	162	5
81	81	2
142	156	3
148	148	3
2	2	15
63	63	1
134	134	5
69	70	5
77	77	3
1	10	2
12	13	3
62	84	1
43	43	7
123	123	6
38	38	10
16	18	3
12	16	4
145	145	8
76	85	2
71	71	6
33	34	2
109	109	7
156	157	1
6	26	1
46	46	10
120	120	10
125	126	2
39	40	7
68	68	2
149	150	1
36	37	6
160	160	2
37	38	8
41	41	10
114	155	1
147	147	10
24	26	1
0	1	14
112	151	4
15	15	10
164	164	11
84	95	2
53	55	1
20	20	6
17	17	6
123	144	3
117	117	8
81	82	3
6	149	2
112	113	4
118	163	4
140	141	3
37	75	3
92	92	5
62	62	3
20	21	7
108	109	3
23	24	3
44	45	4
69	86	3
114	115	3
35	35	3
18	18	5
150	150	5
26	26	15
117	120	5
111	111	3
124	161	2
58	58	3
97	102	2
78	80	3
106	106	10
85	86	6
114	114	10
9	111	3
4	4	12
65	68	2
78	79	2
16	19	4
16	16	9
52	149	3
53	147	3
86	87	2
110	111	5
116	129	1
96	96	4
99	101	3
86	86	5
24	25	11
24	42	3
12	96	3
161	161	7
0	2	1
118	118	7
64	86	3
8	14	5
117	122	2
9	10	2
14	15	7
110	137	1
132	133	2
88	88	4
27	54	1
7	7	3
163	169	1
85	91	2
18	46	2
8	9	4
99	102	2
72	72	5
56	121	3
47	52	1
101	105	1
7	10	6
14	21	2
87	87	3
98	105	3
123	128	1
103	105	4
97	97	6
159	160	3
78	78	2
16	17	2
75	75	3
112	114	5
19	46	3
159	159	5
169	169	3
55	56	3
91	91	2
107	143	3
143	144	3
0	42	2
44	47	1
85	85	6
27	27	3
57	142	2
27	108	1
136	137	3
73	81	1
168	168	1
34	35	3
63	69	3
7	8	1
92	95	2
89	89	2
141	141	3
94	132	2
101	101	3
119	119	2
100	100	4
146	146	4
99	105	1
155	156	2
62	147	2
56	144	2
127	128	1
9	9	3
155	155	3
102	103	5
88	91	2
125	125	4
70	71	2
98	99	2
78	137	3
90	92	2
167	168	1
101	102	3
123	124	1
74	74	4
83	83	1
5	7	1
145	146	1
35	38	1
6	6	8
84	85	3
57	57	4
56	56	2
159	163	1
144	144	3
150	151	2
135	135	4
139	139	1
37	47	2
77	78	4
113	116	1
100	101	1
117	119	2
119	147	3
61	115	4
8	51	3
26	52	1
75	82	1
97	98	1
129	130	1
131	132	4
95	97	1
103	104	2
126	126	7
104	116	1
21	94	7
84	84	2
162	168	2
111	112	4
48	48	4
108	113	2
0	3	1
63	93	3
16	20	2
23	23	4
102	105	1
102	102	3
132	132	3
58	114	1
66	66	7
37	46	1
77	85	1
14	23	1
40	46	1
116	138	3
43	44	1
70	77	4
128	129	2
113	113	6
71	81	1
64	67	1
160	161	1
124	124	3
15	87	1
79	79	4
22	23	4
2	3	1
62	63	1
47	54	1
141	145	2
13	13	1
147	156	4
153	154	1
139	140	2
2	50	1
104	105	1
27	28	4
48	52	2
50	114	1
9	26	2
170	170	2
121	121	1
144	145	1
91	96	1
8	11	2
25	52	1
94	96	2
70	73	2
139	144	1
69	115	1
105	115	4
166	166	2
80	81	2
99	99	5
138	146	3
122	151	1
88	93	1
46	50	1
93	96	2
48	58	3
116	126	3
112	132	1
44	44	1
20	22	3
6	7	2
26	27	2
84	86	2
9	24	1
5	5	2
151	152	3
138	141	4
78	135	1
73	119	1
66	108	1
68	69	1
145	148	1
132	137	1
50	141	1
165	165	2
67	68	2
127	127	1
126	127	1
155	157	2
95	95	1
151	151	2
141	142	1
167	170	1
122	132	1
146	155	1
92	130	1
147	148	1
19	24	3
55	155	1
16	22	2
118	159	2
154	161	1
87	90	1
38	39	1
64	64	1
52	116	1
46	89	1
99	100	1
88	94	2
149	149	3
16	25	1
110	156	1
9	11	2
146	153	1
82	83	1
10	11	1
74	79	1
153	158	1
13	110	1
76	76	3
36	40	1
137	137	2
79	137	1
111	138	1
5	23	1
57	63	1
47	47	1
145	149	1
24	50	1
15	19	2
122	145	1
124	126	1
69	72	1
63	97	1
6	9	1
119	164	1
91	94	1
167	169	1
39	44	1
108	110	1
