57	57	4
80	82	4
43	45	4
214	214	4
81	81	11
211	213	9
75	75	7
172	172	12
70	70	25
214	215	8
40	41	3
238	238	4
144	145	4
236	236	19
102	102	6
88	88	4
6	18	4
1	3	1
174	174	12
114	116	2
210	211	3
121	138	3
50	54	4
170	170	2
63	73	3
48	48	7
55	55	11
68	80	3
31	31	8
208	208	11
106	107	1
53	53	11
82	82	7
3	7	3
72	74	3
17	17	13
209	210	2
71	73	6
127	127	6
46	46	16
165	165	1
104	104	15
234	234	9
103	103	11
61	61	6
118	118	5
106	106	5
53	54	3
198	198	12
43	43	19
15	16	3
65	65	15
234	242	1
135	135	9
44	44	14
27	27	7
89	89	3
0	28	7
212	213	9
26	26	9
218	218	7
128	137	6
204	204	17
166	177	2
229	229	6
7	34	2
158	158	2
213	213	5
71	71	9
237	237	8
10	10	7
13	15	4
219	219	4
72	72	13
60	81	1
77	77	15
134	134	5
240	240	6
8	8	13
0	0	15
86	86	8
168	168	12
158	165	2
15	15	12
26	73	7
51	51	9
205	209	1
40	40	13
231	231	8
76	76	7
112	112	4
181	181	10
62	62	7
232	232	4
25	26	3
32	32	7
49	50	4
169	169	9
60	79	3
212	212	11
80	107	2
239	242	7
30	151	1
121	122	2
120	120	4
11	11	9
103	105	7
242	242	10
8	18	1
39	40	11
127	128	2
42	42	8
153	202	4
168	169	1
158	178	3
123	126	4
203	203	17
21	23	1
159	159	7
61	69	1
221	221	11
45	45	16
127	161	1
104	106	3
103	104	2
83	84	4
118	156	2
239	239	14
25	43	2
136	138	2
73	73	5
37	37	9
108	189	3
7	8	3
119	119	5
160	160	11
63	99	1
147	148	1
49	49	16
104	105	10
36	36	11
163	177	1
21	118	1
36	56	1
60	60	4
85	85	9
122	139	2
190	192	3
180	182	1
8	23	2
134	135	7
136	137	1
0	41	1
122	122	11
160	161	3
51	53	4
241	241	6
111	111	7
39	39	8
163	209	2
5	7	1
211	212	7
63	64	8
50	51	4
233	233	2
18	18	4
50	50	12
2	2	5
58	58	11
194	194	6
47	48	1
38	45	7
176	176	7
18	19	4
36	74	2
165	178	2
101	104	2
59	60	4
3	4	4
99	102	8
236	238	2
188	198	1
104	120	2
6	6	2
80	83	2
125	125	1
4	22	2
204	210	3
177	177	11
74	79	2
221	222	2
223	224	1
16	22	5
115	115	14
147	151	1
148	148	4
22	80	1
198	204	3
76	80	3
42	72	3
30	31	9
164	175	3
77	78	1
19	19	3
95	98	1
48	50	4
101	101	6
8	9	4
55	56	3
83	83	13
25	25	5
122	228	4
0	32	3
20	37	2
210	210	5
21	21	5
12	49	1
41	41	4
132	161	2
204	205	1
14	14	9
175	175	4
126	126	13
97	97	3
63	68	6
146	146	6
79	81	3
61	62	9
151	151	10
105	105	4
84	101	2
64	64	5
28	70	1
158	160	1
1	37	4
207	213	2
207	211	2
158	217	1
156	156	1
34	34	7
69	69	8
67	67	13
225	225	4
205	205	8
188	188	3
28	28	14
166	167	1
183	183	1
186	186	4
116	116	3
164	210	2
0	1	3
108	108	5
157	157	4
138	205	1
114	114	6
29	29	6
195	229	2
80	80	8
65	79	3
7	48	5
220	220	8
47	47	9
227	227	5
5	6	3
138	181	1
74	80	2
61	75	1
152	152	7
164	164	7
196	196	1
140	230	4
223	223	14
59	75	6
30	149	3
51	62	3
66	68	2
121	124	1
156	219	1
43	46	1
98	98	5
141	230	4
144	147	4
125	126	2
191	191	3
12	13	2
177	179	2
200	200	4
188	200	1
106	125	1
213	221	2
54	54	16
188	223	1
206	211	2
195	195	7
182	182	3
123	123	4
38	38	11
203	204	3
178	178	5
5	5	6
128	128	6
217	217	8
192	192	4
205	211	3
150	150	4
221	223	2
175	180	1
171	173	2
81	84	4
136	141	3
24	24	3
161	161	1
144	150	2
52	53	3
173	177	2
163	175	7
158	223	1
135	170	3
100	100	10
173	174	1
3	3	4
6	33	2
129	129	10
113	113	5
213	214	7
76	118	1
81	82	6
226	226	3
158	174	3
228	228	5
80	81	4
194	229	4
187	188	6
52	55	1
137	137	6
57	58	8
22	23	1
165	198	2
30	30	8
33	36	1
10	11	2
139	139	2
130	132	1
23	23	3
216	216	5
20	31	4
140	141	2
38	47	5
129	133	1
59	59	3
190	190	2
11	24	2
224	228	1
135	136	2
202	202	3
144	144	8
37	38	3
209	211	4
64	65	3
54	55	3
234	235	3
20	60	2
4	5	6
99	99	14
187	187	1
70	113	2
165	166	3
66	66	6
8	61	1
41	81	1
82	83	2
206	209	2
142	142	4
43	44	2
51	52	4
11	18	1
28	32	2
61	85	1
200	222	1
66	67	3
29	31	1
45	47	4
204	206	3
146	151	2
13	14	1
116	117	3
234	238	4
204	209	2
65	68	2
236	240	2
127	159	2
199	223	3
64	85	3
215	216	3
124	124	6
34	35	3
154	154	6
160	191	1
180	183	2
60	62	3
207	210	3
191	199	3
28	29	3
28	223	1
35	35	5
146	150	1
48	56	3
153	156	1
14	15	9
153	153	2
95	95	7
222	222	6
192	222	4
2	98	1
167	167	5
141	141	10
3	22	2
215	219	1
176	204	1
15	24	5
110	110	2
159	183	1
158	162	3
206	206	2
12	104	3
22	34	2
126	127	3
9	46	2
145	147	1
78	78	5
171	171	3
60	69	1
117	117	1
133	134	1
185	189	1
154	157	2
209	209	4
162	162	2
188	196	1
62	85	2
20	23	1
107	108	4
7	18	2
172	179	1
20	20	6
84	84	6
136	171	2
17	20	2
115	117	3
167	169	2
19	75	2
201	201	5
198	200	1
32	56	5
127	134	3
38	39	3
81	83	3
75	79	2
20	22	2
68	69	2
131	199	2
191	198	4
171	177	2
63	65	2
64	128	4
13	35	1
103	225	1
68	81	1
192	196	2
48	55	2
20	21	2
3	104	1
12	16	3
1	2	1
6	60	1
96	96	3
56	57	4
70	131	1
176	206	2
66	80	2
196	217	1
172	173	1
143	144	1
109	137	1
78	81	3
17	19	4
29	148	2
179	211	3
8	48	3
126	139	1
153	155	1
8	24	1
148	155	1
125	193	1
143	143	2
141	142	3
106	109	2
102	103	3
170	183	2
0	70	2
156	157	3
13	13	3
181	228	1
199	207	1
10	46	1
22	79	1
207	207	5
46	47	2
195	196	2
47	60	2
20	59	2
29	56	1
77	80	5
197	198	4
52	63	1
6	31	1
162	208	1
97	113	1
45	105	1
163	165	1
137	229	1
178	179	2
77	82	2
236	237	2
163	210	2
7	7	2
2	5	1
209	219	2
33	54	3
125	128	1
68	68	2
54	63	1
24	33	1
2	69	2
4	6	2
4	4	6
193	193	6
63	63	1
192	197	1
2	8	1
65	67	1
211	211	2
170	178	1
179	179	1
9	9	6
18	60	2
163	164	1
165	199	3
69	70	1
37	39	1
196	222	3
75	97	1
122	123	1
78	80	2
10	58	2
199	199	5
176	205	1
9	20	1
5	8	1
8	36	1
232	233	1
15	23	3
215	215	3
233	241	1
14	16	1
187	189	2
49	60	1
165	174	1
161	178	1
17	25	1
27	128	2
67	102	1
53	61	1
194	207	1
191	201	1
56	58	2
48	51	1
160	223	1
181	227	2
58	59	1
173	173	1
48	54	1
133	133	2
1	1	1
182	185	1
39	58	2
66	95	1
127	130	1
189	189	1
52	54	1
86	99	3
224	231	1
19	20	1
193	196	1
63	80	2
137	181	2
190	195	1
0	97	1
83	85	2
59	63	1
202	203	1
152	202	2
122	127	1
99	103	1
31	32	1
108	109	1
2	51	1
222	223	1
4	7	4
31	111	2
238	240	1
65	70	1
2	4	2
114	120	1
199	222	2
136	202	1
73	112	2
78	79	1
197	197	1
9	10	3
64	74	1
10	165	1
74	74	3
2	234	1
27	28	1
124	126	1
234	240	1
184	186	3
28	36	2
56	83	1
117	118	2
109	226	1
191	192	1
6	17	1
182	221	2
139	140	1
12	12	1
169	170	2
35	49	1
139	229	2
230	230	1
226	227	1
145	145	1
58	75	1
100	104	1
210	219	2
227	228	1
224	234	1
0	26	5
149	149	1
124	125	2
166	166	2
3	36	1
114	131	1
135	191	2
56	56	1
4	17	1
197	205	1
34	49	1
211	216	2
127	129	1
152	153	1
198	199	1
210	216	2
137	171	1
235	235	1
122	229	1
152	156	1
55	63	1
21	22	2
63	69	2
17	75	1
2	36	2
230	235	1
109	109	1
84	91	1
18	75	1
5	33	1
44	45	1
155	155	1
174	175	1
201	221	1
178	217	1
0	37	1
22	77	2
216	217	1
76	79	1
189	197	2
19	32	1
150	151	1
33	35	1
105	109	1
179	218	1
137	228	1
144	148	2
198	201	1
71	72	1
176	207	1
159	176	1
123	125	1
16	16	2
135	162	1
154	172	1
76	99	1
85	86	1
224	224	1
188	195	1
4	35	1
80	84	1
60	67	1
163	220	1
2	6	1
24	25	1
