183	183	7
80	80	5
69	70	4
44	44	12
76	76	9
202	202	3
205	205	9
208	209	9
63	63	6
176	213	1
29	29	3
14	173	2
58	58	5
56	57	2
91	92	3
234	234	6
153	153	13
187	189	4
114	114	7
162	162	9
197	199	3
21	21	7
209	209	4
109	109	8
67	67	1
57	58	8
39	39	4
236	236	8
18	18	2
160	160	3
28	28	5
204	204	9
167	169	2
113	113	7
93	93	4
166	166	4
155	155	9
150	151	5
157	158	6
3	3	6
101	121	4
79	85	1
11	11	7
48	48	5
211	211	4
180	184	1
171	171	2
242	242	8
209	213	3
51	62	2
219	219	3
38	38	7
45	45	4
225	225	6
173	234	1
58	59	2
106	107	1
224	224	2
159	183	4
203	203	10
212	212	11
244	246	3
190	239	2
71	71	9
149	149	2
177	177	11
100	100	2
61	62	4
197	197	11
162	163	1
181	183	6
178	178	6
243	243	3
172	219	1
237	237	10
196	196	1
36	36	4
226	226	7
228	228	4
210	218	2
168	168	2
103	109	4
105	105	1
6	6	4
95	97	3
175	213	1
212	214	5
7	7	4
197	198	5
153	180	6
51	51	2
150	152	2
195	195	4
97	98	5
72	72	3
90	90	5
50	50	2
116	116	4
164	164	3
194	194	4
107	107	4
108	109	3
167	167	4
181	181	8
165	165	5
154	154	9
86	86	6
218	220	4
44	45	4
183	212	3
30	34	1
10	61	1
52	62	2
41	41	1
213	213	9
8	234	4
191	191	2
111	115	2
153	178	1
87	87	5
42	42	3
27	27	1
8	8	11
172	172	3
218	218	3
85	85	1
185	185	4
240	240	1
6	224	3
117	150	1
31	31	7
190	192	2
27	28	3
77	86	2
150	150	6
165	170	2
61	156	1
16	17	8
215	215	3
247	247	5
175	212	1
178	217	3
158	160	2
237	238	3
245	245	4
23	24	1
180	180	5
119	238	4
176	177	2
40	40	3
184	185	6
174	174	4
159	169	1
88	89	2
161	161	6
156	156	5
201	201	6
151	151	2
92	92	2
56	56	1
115	115	4
199	199	8
91	91	10
106	106	5
93	103	2
151	152	1
161	162	2
97	97	3
9	9	6
10	10	2
117	117	4
211	219	1
54	54	4
169	169	4
208	208	5
187	187	2
63	64	5
244	244	7
170	170	1
46	47	2
17	17	3
180	185	1
176	184	1
153	154	1
67	68	1
33	33	1
37	37	4
181	187	2
222	222	2
204	205	2
116	117	2
75	76	2
68	68	3
175	176	1
5	6	5
22	22	2
236	243	2
64	64	3
175	175	6
155	156	2
90	100	2
145	145	1
1	67	1
190	190	2
229	231	2
24	24	1
25	26	4
221	221	2
68	70	2
24	25	1
197	212	3
64	93	3
201	202	2
202	234	1
223	223	2
145	152	1
6	7	3
31	33	1
207	207	2
82	85	2
51	52	3
154	223	2
67	99	2
32	32	6
196	236	2
163	164	2
89	90	1
95	95	2
206	235	5
229	236	2
195	196	3
231	232	3
80	81	3
226	232	1
96	96	2
158	159	1
245	246	1
54	55	1
60	61	1
217	217	4
168	171	1
17	18	3
112	112	2
188	189	2
214	214	1
173	173	3
154	232	1
65	65	2
12	12	2
16	16	2
158	158	2
186	186	1
6	10	3
89	119	2
206	207	3
225	226	1
23	23	2
159	165	2
20	20	2
94	94	1
184	186	1
6	168	3
44	171	1
206	206	1
248	248	2
152	152	3
165	166	1
25	25	1
68	69	1
113	114	1
78	79	2
45	54	1
59	59	1
26	33	1
74	74	2
241	242	4
193	193	1
98	99	1
227	227	1
162	208	1
15	15	7
88	88	2
112	113	1
50	59	1
35	35	3
14	14	1
20	21	2
233	233	3
90	99	1
60	60	3
246	246	2
59	60	1
173	174	2
118	118	1
110	246	1
53	54	3
78	116	1
101	101	2
159	159	1
178	182	1
239	239	1
62	108	1
20	37	2
170	210	1
213	214	1
197	200	1
207	208	1
30	31	1
1	1	1
210	210	1
166	168	1
182	195	1
26	26	2
205	206	1
231	231	1
1	234	1
201	208	1
66	70	1
61	61	1
156	157	1
168	169	1
163	163	1
64	66	1
