134	181	1
130	130	2
86	95	5
56	56	13
169	169	2
63	64	5
104	104	2
103	103	2
153	153	13
149	150	4
102	106	5
112	112	14
121	121	12
22	22	6
139	139	4
80	80	11
85	85	7
3	6	2
180	184	3
59	59	4
156	156	9
106	159	3
190	190	5
144	144	6
53	53	11
19	19	5
42	42	4
133	143	2
188	188	4
68	76	3
87	87	11
116	116	3
175	175	8
149	149	2
143	143	4
23	23	6
28	30	2
118	119	3
106	106	9
89	89	4
147	148	2
138	170	4
73	73	8
110	110	9
142	142	15
115	117	2
16	16	11
71	72	3
52	53	2
78	169	2
181	181	5
13	14	3
6	7	1
107	107	7
99	99	5
82	150	2
29	29	4
138	159	3
59	71	1
10	10	3
14	14	11
47	49	1
26	28	1
62	65	2
168	168	2
185	185	2
142	146	1
125	127	4
93	94	2
154	154	8
84	86	2
92	93	1
182	183	3
14	22	1
46	46	2
161	161	11
64	71	2
102	102	8
101	101	4
15	15	6
128	128	2
25	26	1
54	54	2
137	137	6
37	41	1
52	52	1
8	8	5
13	13	12
107	108	5
171	172	5
37	37	8
115	115	10
117	117	9
54	56	1
48	48	1
105	130	2
7	7	4
32	72	4
115	119	2
35	36	3
23	24	12
156	157	5
182	182	7
35	74	1
40	41	3
68	70	6
157	157	9
75	177	2
139	142	4
92	94	1
3	3	5
103	152	1
96	96	14
5	5	9
78	78	9
78	79	6
154	155	7
15	16	2
117	119	3
100	101	7
83	148	7
139	186	3
76	76	8
186	186	2
124	124	9
100	100	5
30	30	3
130	132	2
108	145	3
122	122	4
82	82	7
18	19	2
98	100	1
188	189	12
83	99	3
184	188	2
114	114	3
180	180	1
114	119	2
9	10	2
94	110	3
101	103	3
36	52	4
116	119	3
68	80	3
145	154	2
90	90	7
41	41	9
123	123	5
150	150	4
128	129	2
111	111	5
98	103	1
28	67	1
166	166	1
62	62	4
64	64	1
2	3	2
125	125	1
31	32	4
123	124	2
133	133	2
77	77	5
68	75	4
12	12	3
76	77	2
102	103	4
74	74	4
119	120	3
59	60	3
163	163	5
35	35	5
0	10	1
86	87	3
37	40	4
2	2	4
151	151	5
121	122	3
19	20	4
12	15	6
57	57	5
60	61	1
39	40	4
88	88	6
118	118	5
111	112	2
45	54	1
147	147	3
106	107	5
24	25	8
76	172	2
109	113	2
141	142	3
6	6	4
65	67	3
53	64	2
87	88	4
103	107	1
62	66	4
32	32	1
150	151	6
77	78	3
187	187	5
3	5	1
109	110	1
54	55	1
177	178	1
162	163	1
96	99	2
174	175	3
68	72	1
177	177	2
106	126	3
164	164	8
172	174	2
174	174	1
105	106	2
135	163	2
111	116	3
33	33	2
58	59	3
95	95	2
133	135	5
109	135	2
40	40	8
75	75	1
178	178	3
153	168	2
54	59	2
165	165	3
82	83	1
11	11	3
28	29	2
189	190	2
140	140	5
91	91	3
107	145	2
104	105	4
17	18	1
9	9	2
147	149	3
21	21	2
89	100	4
11	26	2
136	137	4
146	147	1
72	72	4
41	42	1
109	111	1
141	144	1
22	23	3
115	118	1
13	20	1
137	164	2
27	27	3
52	60	2
12	22	2
143	144	3
1	1	3
0	11	2
7	8	5
104	133	1
116	129	2
58	61	2
38	38	5
37	38	1
16	17	3
32	33	2
83	150	2
10	12	1
122	123	2
4	4	1
60	157	3
5	6	3
116	117	1
155	155	1
16	19	1
145	145	1
129	129	4
131	131	1
4	5	2
37	42	3
25	25	4
45	45	3
128	133	1
83	83	3
127	128	1
89	102	2
57	78	1
39	39	4
83	149	1
151	152	1
154	157	1
113	113	1
82	84	1
112	113	1
189	189	1
136	138	1
114	115	1
86	86	2
47	47	1
185	186	1
1	2	1
172	173	1
32	36	1
78	86	1
176	176	1
108	108	2
141	141	2
98	98	1
0	0	2
151	163	1
107	109	1
148	148	2
0	87	1
55	64	1
137	139	2
121	123	2
114	123	1
67	72	2
31	35	1
161	165	1
88	89	2
131	150	2
12	20	1
133	134	2
55	65	1
69	73	1
129	131	1
74	76	4
72	76	1
43	43	1
30	34	1
81	157	2
97	97	2
131	132	2
0	7	1
135	135	2
134	134	1
101	102	1
45	46	1
144	147	1
152	152	2
160	160	1
22	24	2
125	126	1
140	142	1
57	58	1
53	71	3
155	157	1
27	28	1
120	121	1
34	34	2
144	145	1
137	138	1
68	73	1
27	75	1
133	137	1
