76	76	13
85	86	6
75	75	25
71	90	3
27	27	6
78	78	16
38	38	10
92	92	18
82	82	13
66	67	16
36	36	6
95	95	23
88	95	2
90	90	7
69	69	19
104	104	22
44	90	3
30	30	8
50	56	4
29	30	5
74	76	3
73	73	16
22	22	11
80	80	5
80	81	15
63	63	6
64	103	2
69	100	1
59	60	6
63	64	2
23	23	24
65	66	2
34	100	1
100	100	19
68	68	28
22	24	3
78	79	1
33	33	12
25	26	5
27	44	3
51	51	17
50	50	24
105	105	11
56	77	3
82	83	9
72	72	7
53	53	9
32	81	2
94	94	18
49	49	13
42	45	3
40	40	7
70	70	13
84	84	14
57	57	20
59	59	17
97	98	5
25	25	13
61	69	3
44	44	2
32	36	1
101	101	27
67	68	2
24	24	9
54	61	3
47	48	2
37	37	8
29	33	2
77	77	6
72	73	6
48	48	3
60	60	6
65	65	10
98	98	15
102	103	12
62	62	19
66	66	3
102	102	13
91	91	16
61	62	12
25	29	6
91	95	2
31	31	34
52	53	7
107	107	1
27	29	6
95	107	6
48	89	1
55	57	3
83	86	3
83	83	6
68	69	5
90	94	2
56	56	16
22	23	7
55	62	4
99	99	11
83	84	2
54	55	5
62	75	2
96	99	2
63	69	3
34	35	7
59	70	3
58	58	4
71	103	1
88	89	13
35	35	11
75	76	15
45	45	10
95	101	4
20	22	6
26	40	5
48	49	3
74	74	24
106	106	5
35	36	5
43	44	2
67	67	7
71	71	16
49	50	8
51	53	3
32	32	15
30	43	1
79	79	8
26	26	9
27	28	5
86	87	10
71	89	1
88	88	11
74	75	8
52	52	14
81	103	2
64	64	15
25	34	2
42	43	9
55	56	8
77	78	6
31	32	3
101	102	7
69	70	5
84	85	6
43	43	3
81	81	10
71	72	16
53	62	2
82	84	4
33	34	4
92	93	8
90	91	3
78	99	1
26	37	4
103	103	21
84	90	4
87	87	6
26	27	1
63	102	1
79	80	5
64	95	2
98	99	6
70	72	2
55	55	11
25	28	5
61	61	10
72	90	1
93	94	1
30	48	1
56	59	2
60	61	7
104	105	7
57	58	4
52	54	4
76	77	7
50	58	3
42	42	7
55	59	7
65	69	2
46	47	4
54	54	4
77	79	2
55	61	3
34	34	10
63	65	1
57	59	2
75	92	3
86	86	3
28	28	5
55	75	1
92	94	2
72	87	1
41	48	2
65	67	5
29	47	1
41	42	3
87	88	8
85	85	1
96	97	2
39	39	7
30	31	1
105	106	2
101	104	2
61	98	2
41	41	3
100	104	3
34	106	1
99	106	2
46	46	2
96	96	7
69	102	3
71	91	1
50	51	1
26	43	1
70	71	3
32	33	2
83	90	1
32	99	3
73	74	3
29	49	2
28	36	1
69	71	2
20	21	1
91	93	1
49	56	3
55	105	1
71	84	1
73	93	1
58	106	2
45	46	3
24	25	1
47	49	1
45	49	1
37	38	4
55	73	1
83	85	2
62	63	4
29	46	3
29	29	4
94	95	3
62	67	3
49	89	1
32	64	2
100	101	1
100	103	1
62	70	3
63	103	3
91	92	1
89	89	3
58	59	2
100	102	1
52	62	1
95	100	6
42	47	1
93	93	5
76	91	1
70	91	1
64	65	2
48	82	1
40	41	2
30	40	1
26	29	1
40	42	2
23	95	3
72	83	1
56	58	1
84	89	1
39	79	1
21	21	2
56	57	2
60	102	1
97	97	2
33	106	1
