242	248	3
89	89	5
87	87	6
161	161	8
53	89	2
247	247	9
203	203	7
208	208	7
229	229	4
247	248	2
165	165	2
220	220	6
193	196	2
55	55	8
244	244	8
67	67	11
59	59	11
202	202	1
174	174	4
170	170	8
178	178	13
66	66	4
240	247	2
75	102	5
163	164	9
223	223	6
205	205	10
195	195	2
35	35	2
219	248	7
20	20	5
14	14	2
186	186	4
200	200	5
194	194	6
97	97	8
166	169	4
226	226	7
4	34	2
201	201	8
107	107	9
60	60	5
28	29	1
216	216	5
64	65	1
117	117	6
202	203	4
151	151	8
158	166	2
248	248	8
146	164	5
145	146	3
237	241	1
150	202	3
101	101	3
55	229	1
10	229	1
68	68	5
168	168	7
205	228	1
240	240	8
183	219	1
225	226	6
84	84	6
187	187	1
74	74	2
23	23	2
180	246	2
52	53	2
159	176	2
233	233	5
52	52	8
30	57	1
85	95	1
181	182	1
244	245	4
185	185	7
31	233	1
85	85	1
10	10	7
211	211	6
82	82	2
183	233	1
175	177	1
240	241	3
174	175	1
166	193	1
175	176	3
120	120	3
150	150	1
43	43	5
160	161	4
238	242	1
36	62	3
181	181	3
191	192	2
19	19	5
182	182	4
222	222	7
151	155	3
188	191	2
156	156	4
146	147	1
40	40	4
119	119	9
210	211	2
177	177	2
198	198	11
234	234	2
27	113	1
193	193	2
29	31	2
37	87	3
206	235	1
4	4	3
105	107	1
102	102	1
178	192	4
213	214	4
211	212	3
153	154	5
61	83	1
92	180	1
152	184	1
157	157	10
228	228	5
72	73	4
241	241	4
109	109	8
180	180	5
26	26	5
96	97	2
103	103	2
212	213	3
215	234	1
152	172	2
78	78	4
153	188	2
110	245	2
20	24	1
110	110	4
34	34	10
51	78	3
73	74	9
152	152	3
169	169	3
21	21	2
209	234	3
7	7	11
63	64	2
95	100	2
57	233	1
117	118	3
237	237	11
199	199	8
151	182	1
37	97	3
215	215	5
215	219	2
156	167	1
214	214	4
5	5	2
171	171	7
147	176	4
187	192	2
77	78	1
105	105	6
224	224	2
184	184	10
239	240	1
231	232	3
159	159	6
152	179	2
84	85	3
36	36	2
194	208	2
28	28	1
27	27	6
68	70	2
249	249	1
112	113	3
18	61	1
30	30	4
57	235	2
116	116	8
39	39	8
183	183	7
32	230	2
31	31	4
64	64	2
58	58	4
219	219	9
170	171	2
179	227	2
33	47	1
98	98	7
221	221	12
1	2	1
95	95	3
153	164	2
211	237	1
96	98	1
9	9	7
89	93	3
91	91	2
108	108	1
16	54	3
41	42	1
78	82	1
164	166	1
176	176	7
165	166	1
58	59	1
65	65	2
74	76	1
37	37	2
32	33	3
191	191	10
152	162	1
162	164	1
12	15	2
89	90	2
88	88	2
155	155	5
42	42	2
106	106	3
45	46	2
11	11	4
72	72	2
167	167	3
22	22	1
95	97	1
116	118	2
172	173	2
79	79	2
37	114	2
209	209	4
1	1	1
97	110	5
115	115	1
204	204	3
243	244	3
51	51	4
118	118	4
111	111	6
169	172	1
103	105	2
194	195	4
93	93	3
73	73	2
174	237	2
246	247	3
15	198	1
68	92	2
18	18	5
221	245	1
160	189	1
166	166	2
107	108	2
237	238	2
179	179	3
186	188	1
76	76	3
55	57	1
67	68	2
26	45	1
45	45	2
92	92	2
180	244	1
245	245	7
200	244	1
190	192	3
227	227	6
198	247	1
216	218	2
178	206	2
81	187	2
153	153	2
147	182	2
117	119	1
159	164	3
242	242	6
188	215	2
184	210	3
6	9	4
172	240	1
105	106	4
163	171	2
96	99	1
175	178	1
80	81	2
32	32	3
19	57	1
239	239	2
167	169	2
154	156	3
83	102	1
102	104	1
46	46	4
232	237	2
163	165	1
6	6	3
15	15	1
74	75	2
54	54	3
212	242	1
84	89	1
95	109	1
162	162	1
112	112	6
225	235	2
82	83	3
47	47	6
158	170	2
41	41	3
4	5	2
217	218	4
159	160	1
186	192	3
71	71	2
88	99	2
238	240	1
17	21	2
8	94	1
97	100	3
175	181	6
238	238	1
217	217	2
223	224	1
62	63	3
218	218	2
8	8	2
171	174	1
216	217	3
152	166	1
88	89	1
49	49	4
220	230	1
84	95	2
90	90	1
154	173	1
188	210	1
38	39	3
25	25	1
29	29	1
152	232	3
94	94	1
167	168	2
227	228	1
189	190	2
163	163	3
47	62	2
222	223	1
212	212	4
37	94	1
183	215	1
171	172	3
246	246	1
64	68	2
77	107	1
99	99	4
181	243	1
238	239	1
24	24	3
96	96	1
79	82	2
188	188	2
169	183	1
236	236	2
179	247	2
114	114	3
159	183	3
48	51	1
236	248	1
193	194	1
29	30	1
59	60	1
157	166	1
220	221	1
87	99	1
30	232	1
185	186	1
208	214	1
175	175	2
28	32	2
245	246	2
244	246	1
190	209	1
183	184	1
172	172	1
75	75	2
210	213	1
147	218	1
93	179	3
121	121	1
210	210	1
48	48	1
148	153	1
64	66	1
198	199	2
171	175	1
69	69	1
100	101	2
14	78	1
173	173	2
87	88	1
19	20	1
25	33	1
197	212	2
154	154	1
35	51	1
170	175	1
12	12	1
61	81	1
207	207	1
13	14	3
65	90	1
100	100	3
79	101	1
53	54	1
174	182	2
16	16	1
160	183	1
113	113	1
201	203	1
199	200	1
216	239	1
15	50	1
72	76	1
81	81	1
208	209	1
161	162	1
17	17	1
184	211	1
27	28	2
57	58	1
232	232	2
187	210	1
36	233	1
146	181	1
57	57	1
162	182	1
175	179	1
55	56	1
219	234	1
236	237	1
50	50	1
196	213	1
112	117	1
0	1	1
225	225	1
162	186	1
146	175	1
40	41	1
