8	36	1
74	75	5
230	230	2
0	0	10
187	188	1
58	59	6
202	202	11
155	157	1
154	237	1
60	60	3
52	53	4
33	33	10
221	221	2
220	222	2
209	209	1
125	126	5
71	71	14
13	13	8
121	121	8
81	84	3
45	45	6
196	196	7
4	4	6
214	214	6
58	58	8
35	35	7
72	72	9
8	8	11
124	126	1
237	237	10
128	128	2
143	143	4
2	2	5
89	103	1
178	178	5
172	180	2
31	31	8
12	15	5
203	203	14
55	63	2
55	55	6
156	156	2
7	8	8
100	101	6
239	239	7
147	148	1
133	134	1
152	153	2
20	20	6
217	217	3
222	222	5
26	172	1
59	60	3
170	178	4
229	230	2
104	105	9
164	165	5
192	193	2
95	95	8
12	13	9
226	227	7
9	9	8
23	23	17
75	75	11
227	227	8
7	7	15
73	73	11
21	33	2
184	184	3
19	19	9
136	137	4
35	37	2
40	40	7
25	25	3
86	86	20
13	14	7
228	228	4
215	216	5
66	68	1
24	53	5
5	40	1
51	51	4
105	117	1
34	48	5
17	17	2
15	15	16
191	191	7
175	175	9
28	28	19
15	47	1
78	78	3
24	24	7
186	187	3
187	187	2
11	12	13
150	151	9
5	6	7
26	26	10
10	10	9
146	147	1
69	69	7
32	33	6
30	59	1
21	21	20
241	241	4
137	137	5
1	1	5
22	22	15
7	49	1
174	175	3
8	12	6
42	42	9
197	197	7
220	220	7
36	36	3
199	199	6
237	238	1
72	100	4
88	88	6
135	157	4
202	220	1
218	219	5
95	102	3
100	100	10
68	68	6
179	180	6
21	22	6
84	84	10
221	222	3
108	108	7
118	119	7
99	99	4
80	80	4
125	125	4
107	107	4
235	235	10
208	208	4
213	213	15
4	17	2
134	134	6
9	11	4
0	30	4
65	65	2
178	201	2
163	163	4
25	73	5
14	15	6
162	162	1
213	230	3
123	124	5
113	113	3
201	201	9
75	95	4
89	105	3
136	136	3
207	207	7
29	60	2
194	194	6
102	103	5
30	62	3
172	203	5
225	225	17
210	210	4
223	223	11
82	82	8
200	201	3
125	130	6
50	51	5
131	131	3
63	63	3
191	192	4
116	116	1
103	103	4
57	57	9
168	168	1
195	196	5
213	214	1
194	196	1
14	16	5
2	144	1
228	230	1
24	86	1
104	104	13
61	85	1
74	74	7
164	164	1
61	61	7
35	59	2
105	118	2
97	97	2
176	176	1
66	66	11
173	174	1
39	39	13
29	29	6
48	48	9
76	79	3
140	140	3
54	54	7
183	222	5
77	81	5
10	32	3
150	152	6
207	208	3
97	101	3
3	12	2
11	11	6
169	169	3
105	107	2
2	7	3
45	65	2
165	165	3
71	78	2
38	38	9
36	37	6
14	46	2
204	204	6
174	174	2
64	64	10
62	64	4
11	148	2
78	80	1
231	231	3
34	36	2
151	151	4
50	50	3
233	234	4
180	180	6
105	108	1
189	189	5
2	4	4
211	213	3
105	105	3
16	230	2
120	120	1
53	53	5
42	190	2
42	194	4
153	156	1
181	181	12
193	200	2
151	154	1
62	62	5
89	89	1
178	179	2
32	61	3
116	124	2
31	32	3
85	85	10
148	180	1
232	232	10
188	189	2
111	111	3
48	49	1
216	216	17
43	43	12
70	70	9
10	46	1
79	79	1
211	211	6
108	116	1
75	116	1
135	137	1
103	126	1
12	17	7
4	6	5
208	227	3
59	59	8
181	182	4
73	76	2
11	33	1
218	223	2
156	157	2
109	109	6
218	221	2
173	202	2
182	187	1
130	130	4
67	68	4
113	114	1
27	175	1
69	179	2
2	8	1
8	61	4
159	159	5
114	115	2
102	102	6
1	3	1
80	81	3
23	51	1
119	119	1
185	186	1
73	115	1
190	194	2
49	50	2
64	65	7
48	55	3
153	154	6
76	76	5
75	114	1
29	89	1
216	217	6
5	17	2
25	26	1
220	223	1
214	216	2
83	83	10
73	74	3
18	18	3
186	186	3
11	15	4
49	49	8
129	130	2
153	153	2
37	37	6
23	100	5
9	47	2
223	230	1
172	172	1
120	151	1
134	236	2
160	160	6
92	104	5
124	240	1
205	205	14
46	67	4
96	96	3
209	211	1
121	157	1
16	16	2
166	166	3
77	77	5
152	152	1
84	106	2
30	87	1
101	102	4
16	41	1
140	143	3
211	226	1
34	34	10
96	106	1
210	216	2
101	101	7
73	82	3
214	215	7
81	83	4
80	89	1
143	166	1
21	53	3
190	190	2
195	198	1
132	133	2
193	193	1
65	66	4
221	223	2
46	46	7
240	241	2
58	61	2
52	52	2
148	149	1
6	6	10
30	30	2
32	32	1
240	240	5
20	23	1
175	176	4
13	16	2
105	115	1
56	60	1
215	215	1
138	139	1
71	81	4
193	194	1
6	7	1
198	198	3
44	44	9
27	28	1
173	173	3
141	142	1
219	220	2
28	88	1
3	15	2
240	242	3
61	175	4
28	233	3
165	202	1
10	47	2
160	161	2
56	57	2
55	56	3
18	48	2
147	151	1
183	183	1
151	161	2
106	107	1
118	118	5
26	42	1
12	12	4
19	20	1
62	100	1
224	224	2
141	141	2
33	34	2
14	197	1
98	98	1
170	170	4
236	236	4
198	199	1
61	64	3
71	72	4
192	192	3
207	232	1
116	117	1
109	110	1
103	104	1
45	46	1
21	64	2
141	143	1
140	166	3
120	134	2
215	229	2
127	128	1
163	165	1
75	97	3
10	50	1
14	17	1
200	230	2
77	80	1
226	226	8
212	230	1
218	218	2
184	186	1
73	84	1
78	79	1
131	133	1
5	5	3
167	168	3
96	118	1
120	135	1
62	63	2
224	230	3
182	182	1
19	23	3
37	38	2
238	238	3
184	200	3
185	185	1
26	236	3
205	206	2
58	84	3
29	32	1
47	47	4
18	20	2
43	45	1
177	177	1
57	60	2
39	52	2
179	179	3
37	59	3
39	43	2
159	160	3
41	41	1
236	238	3
161	161	1
45	170	1
15	39	2
31	88	3
51	52	1
4	14	3
167	171	1
106	106	5
110	160	5
234	234	1
145	145	2
182	201	3
219	219	2
129	129	1
225	229	1
127	127	1
223	224	1
40	42	3
133	236	1
17	40	2
195	195	2
8	58	2
128	138	3
149	152	1
6	49	1
25	63	2
23	24	2
109	121	1
20	22	1
77	79	1
16	17	3
23	54	1
77	84	1
44	139	1
79	80	2
101	103	1
12	49	1
90	105	1
44	46	1
171	219	1
81	81	1
206	225	1
200	220	2
27	27	3
108	111	1
136	138	1
8	9	2
70	86	1
144	144	4
43	55	1
211	212	2
26	28	2
111	113	1
176	177	3
67	67	1
120	148	2
242	242	1
51	53	1
124	155	1
213	217	2
70	109	1
23	99	1
13	55	3
20	25	2
78	117	1
164	169	1
217	228	2
96	97	1
167	170	1
157	165	1
107	110	1
105	106	1
112	112	1
212	213	2
229	229	2
66	67	2
28	61	1
208	209	1
21	182	1
204	205	2
175	178	1
206	228	1
78	115	2
145	165	1
12	16	1
54	110	1
123	134	1
218	220	1
103	108	1
133	133	2
4	16	1
11	17	1
225	227	1
71	97	1
50	63	2
144	147	1
99	100	1
55	61	1
36	50	1
3	14	1
36	49	2
238	239	1
30	31	1
215	218	1
217	218	1
98	99	1
114	114	1
69	70	1
169	170	1
22	23	1
173	187	1
117	117	1
177	178	1
170	171	1
68	69	1
154	203	1
207	219	1
77	78	1
42	192	1
33	35	1
101	118	1
