109	116	2
119	135	2
126	126	11
62	63	1
21	21	5
76	76	9
125	128	6
33	33	17
31	31	12
45	46	8
20	20	9
123	123	24
84	84	6
48	49	3
57	57	3
20	21	8
6	6	12
5	5	6
123	126	5
64	70	2
103	105	3
109	109	12
115	116	9
82	83	4
4	149	2
13	14	6
39	39	31
62	64	3
95	95	13
122	122	17
10	10	18
40	40	13
14	14	13
65	145	2
10	12	4
58	58	4
117	117	10
97	97	12
23	23	18
76	98	2
74	102	6
141	142	3
67	67	16
78	85	4
56	57	4
25	25	7
100	108	5
131	131	14
30	31	5
24	24	27
39	40	11
11	17	4
55	55	13
16	16	12
132	133	2
71	71	13
41	41	24
13	13	15
74	74	8
90	90	2
65	66	6
149	149	9
107	109	3
22	22	14
28	28	7
93	93	8
50	51	5
43	44	2
103	111	12
15	16	2
119	122	1
143	143	3
85	86	6
64	64	5
15	15	23
136	137	2
57	67	2
20	38	3
65	83	1
136	136	4
9	10	5
112	135	6
116	116	15
68	68	16
87	98	6
92	93	6
50	72	2
78	78	7
125	127	8
115	115	11
145	147	1
33	34	7
92	92	5
118	118	9
45	45	15
130	130	9
76	77	2
95	97	4
29	29	22
144	144	4
83	83	13
69	74	2
77	86	1
109	115	1
17	17	23
115	117	1
42	43	7
103	104	3
8	8	13
125	134	3
100	100	14
94	97	9
55	56	2
67	68	15
28	30	3
18	19	6
70	70	14
41	43	8
132	147	3
112	112	9
53	53	33
64	66	1
6	25	3
153	153	12
3	3	5
130	131	5
119	119	2
12	12	7
29	30	5
12	17	6
40	41	4
81	81	8
56	56	10
66	66	7
106	106	12
63	63	3
110	116	3
141	146	5
122	154	4
36	130	1
137	138	3
65	69	3
95	96	6
123	154	2
132	132	14
148	150	1
140	142	2
36	36	8
65	81	4
3	5	4
5	6	7
68	70	2
118	119	6
70	99	4
14	15	10
125	125	2
72	72	11
14	31	2
9	9	12
27	28	9
107	107	16
86	106	4
141	141	10
97	99	1
19	19	7
51	71	1
46	47	1
26	26	4
147	147	9
48	48	12
96	96	12
129	129	9
64	65	3
133	151	3
52	73	1
16	26	3
100	107	2
128	128	11
23	24	21
91	91	3
152	152	14
45	47	2
77	88	2
77	77	9
78	83	4
104	105	3
123	124	4
44	44	7
93	98	2
35	35	7
34	34	7
12	14	2
7	149	5
85	85	6
31	38	1
151	151	7
79	87	3
146	147	3
20	22	4
135	135	3
131	153	4
42	42	15
112	122	2
96	97	6
133	133	13
69	69	3
99	99	10
120	122	3
7	7	5
82	82	11
83	84	6
9	11	5
9	35	4
4	5	2
138	139	2
122	149	1
132	137	2
117	118	2
74	75	1
37	37	3
126	127	3
102	102	5
8	33	3
32	34	2
122	123	1
133	134	3
34	35	5
144	145	2
52	52	5
43	45	2
80	81	6
98	99	4
11	11	2
116	129	2
113	114	1
8	9	3
65	65	2
108	108	9
47	47	6
91	102	2
26	37	1
114	114	6
91	93	1
30	30	6
7	33	1
35	37	3
132	134	3
84	85	8
121	121	2
14	16	2
93	94	5
104	113	3
112	113	6
154	154	5
129	130	5
49	50	2
44	45	1
51	52	6
109	110	3
12	13	16
18	18	7
64	67	2
146	146	3
61	62	2
145	145	2
62	62	3
11	12	2
11	21	1
120	120	2
19	20	3
63	70	1
46	46	10
103	103	3
67	69	2
38	40	4
26	27	2
130	137	3
134	134	10
130	138	2
121	122	5
124	124	6
13	15	2
92	99	1
51	51	8
100	102	2
147	148	3
17	30	3
10	21	1
80	83	2
79	79	2
69	70	2
136	139	1
36	40	2
49	94	2
81	84	5
48	54	3
53	54	2
4	7	1
43	43	1
53	71	3
143	147	1
131	142	1
97	98	2
89	92	4
75	75	2
105	105	4
54	70	1
25	27	3
80	82	4
98	98	4
34	38	2
128	139	1
143	144	2
22	23	3
111	112	1
68	69	1
111	111	4
56	68	1
33	35	1
24	25	1
48	56	2
96	98	2
17	19	2
78	79	3
32	32	3
73	77	1
105	106	1
50	50	1
136	138	3
105	110	3
2	2	2
76	82	2
12	15	1
142	142	1
41	42	3
16	24	1
118	128	1
54	54	2
132	144	4
8	129	1
49	49	5
49	73	2
137	137	1
22	31	3
10	11	2
57	62	1
28	29	2
110	110	3
55	73	1
16	17	1
113	113	1
150	150	3
73	91	1
55	111	1
118	138	5
138	138	1
17	18	2
76	85	1
63	64	1
82	126	1
135	154	1
69	75	3
74	103	3
4	35	1
73	85	3
38	38	3
139	139	2
108	109	1
131	132	4
150	151	2
70	71	2
33	36	1
134	150	1
87	87	4
48	96	1
4	4	2
3	4	1
74	100	1
78	88	1
7	15	3
22	30	1
27	30	1
84	88	2
123	136	1
23	28	2
50	69	2
99	150	1
106	107	2
21	22	1
138	142	1
80	84	2
58	62	1
136	144	1
135	149	1
32	150	1
104	104	2
100	105	2
102	103	1
71	76	2
125	126	1
127	146	2
8	148	2
10	34	3
38	39	2
96	134	2
49	97	1
76	87	1
25	26	3
72	93	1
5	7	1
127	127	1
14	30	1
78	81	2
42	51	1
31	32	2
78	86	1
127	128	1
6	10	1
124	127	1
54	55	1
110	111	1
18	38	2
51	56	1
83	144	1
7	8	2
35	36	1
84	144	1
73	73	1
49	96	3
86	86	1
118	123	2
93	95	5
99	151	1
17	26	2
67	80	1
140	145	1
62	143	2
50	68	2
19	21	1
114	122	1
39	42	1
9	19	1
23	44	1
140	140	1
124	137	1
27	31	1
123	141	1
53	57	1
