227	227	4
65	100	1
84	84	4
97	98	2
184	185	2
214	215	1
233	233	2
180	212	1
118	118	4
100	104	4
5	5	12
177	183	3
62	66	3
92	92	3
152	156	2
62	88	3
17	17	6
71	71	5
103	103	2
70	70	6
69	71	3
202	205	3
171	171	6
247	248	6
59	60	2
176	176	6
67	144	4
241	241	2
167	167	2
86	86	2
188	188	4
68	95	2
23	23	3
193	195	3
165	166	2
98	98	3
244	244	10
89	183	4
90	90	8
40	40	2
58	60	4
18	19	2
111	111	2
226	226	9
93	183	4
85	85	2
54	54	8
53	229	2
171	247	2
57	57	5
182	213	3
147	150	1
113	114	1
99	100	5
71	73	1
228	228	5
112	113	4
88	88	4
115	116	3
235	235	1
232	237	2
208	211	4
119	119	8
202	202	2
107	112	1
34	35	2
26	26	5
102	113	2
176	177	6
210	210	4
14	43	2
99	99	3
175	175	1
37	52	2
186	186	6
73	88	3
187	189	5
204	204	8
63	67	2
19	19	5
74	74	4
74	86	1
61	61	5
217	217	8
94	94	5
109	109	7
44	44	2
23	35	1
117	117	5
156	156	7
110	112	1
50	50	3
192	195	2
155	155	4
55	113	2
44	45	5
14	14	5
230	230	5
36	37	3
223	223	3
75	79	1
218	218	5
31	32	2
157	176	2
245	246	2
215	218	1
163	163	2
230	231	5
108	108	4
78	94	2
85	118	1
20	20	5
185	185	5
45	45	3
173	173	2
189	190	2
209	210	1
156	174	4
168	169	5
165	165	1
20	38	2
35	35	2
168	168	5
57	58	6
216	217	1
153	153	3
10	10	3
230	246	3
222	222	4
34	34	3
98	102	2
239	240	3
242	242	1
27	27	1
118	119	2
214	214	4
68	68	5
200	200	6
244	245	1
207	207	3
205	205	2
110	110	1
17	18	3
231	239	4
224	224	2
60	60	2
168	206	1
194	195	2
18	18	2
178	178	2
55	57	2
8	8	3
59	109	2
60	116	2
102	103	5
206	206	2
202	240	2
182	182	2
167	199	2
247	247	2
230	235	1
211	211	5
56	60	2
33	33	1
238	240	1
179	179	5
69	69	2
48	96	1
199	199	1
190	190	2
47	54	2
157	157	1
49	49	2
74	198	2
56	56	1
17	39	1
34	157	1
70	186	1
174	175	2
117	118	2
195	195	2
231	236	1
102	111	2
169	170	1
33	37	3
201	201	2
20	39	1
76	76	1
197	198	1
81	82	4
6	7	1
85	109	2
97	101	2
104	110	2
229	246	1
180	180	5
7	7	4
1	2	1
78	80	2
115	115	3
62	62	3
14	31	1
52	52	1
48	48	3
232	236	2
239	239	2
186	209	2
182	183	1
9	9	3
14	15	2
149	150	1
215	215	6
245	245	2
190	191	3
187	187	4
92	93	2
212	212	8
81	85	1
196	196	1
179	180	2
201	236	1
222	233	1
100	100	1
93	94	3
73	73	3
77	82	1
179	213	2
64	64	1
70	71	2
213	213	2
36	39	2
28	28	1
15	38	2
117	231	2
197	197	1
183	183	3
164	164	1
246	246	1
97	97	1
39	39	2
114	115	1
64	67	2
90	112	1
208	208	1
76	77	2
78	196	1
190	194	2
202	203	1
240	241	2
95	96	1
20	22	1
82	82	2
78	197	1
220	220	1
228	229	2
179	198	3
210	215	3
229	230	2
162	162	2
106	107	1
114	114	3
95	95	1
18	38	4
59	59	1
238	239	1
116	117	2
215	216	1
86	97	1
113	113	1
170	170	1
32	33	2
85	220	2
85	86	1
6	6	1
213	216	2
60	110	1
231	231	1
58	58	2
90	110	2
221	223	1
169	169	1
62	73	1
5	85	2
209	209	4
55	56	1
226	227	1
203	203	2
13	14	1
66	96	1
30	34	2
165	170	2
248	248	3
80	81	2
16	16	1
116	116	1
63	63	1
193	197	1
158	165	1
11	11	1
120	120	1
162	200	1
152	152	1
71	72	1
32	32	1
216	218	1
78	78	2
78	207	1
150	155	1
112	112	1
178	180	1
94	95	2
158	160	1
225	226	1
46	55	1
30	30	1
208	209	1
56	114	1
101	101	1
230	241	1
172	190	1
241	242	1
15	16	1
6	8	1
238	241	1
