66	67	1
33	33	9
147	147	1
126	126	4
47	48	5
83	120	2
34	34	10
109	110	4
68	69	2
85	86	5
104	108	2
32	40	4
22	22	4
11	11	4
30	30	2
24	27	2
29	29	7
6	6	6
36	37	1
97	97	4
23	23	14
74	74	6
41	50	4
110	111	2
11	14	3
95	97	3
75	76	2
40	40	6
69	71	3
75	75	14
17	17	7
45	45	5
81	112	2
138	138	1
151	151	4
71	71	7
146	146	6
46	47	2
48	48	6
57	57	2
149	149	5
63	63	13
32	32	2
9	9	5
22	23	2
21	21	1
125	127	1
115	116	1
28	56	1
117	117	6
104	104	4
47	47	5
13	14	7
108	108	8
49	49	5
22	29	2
134	134	4
67	68	6
24	24	2
153	153	9
52	54	3
5	5	6
122	123	1
103	103	3
131	131	8
84	84	4
13	13	2
12	12	4
18	18	2
126	128	5
20	20	6
64	64	2
78	79	3
98	98	10
87	87	5
26	26	3
62	66	3
112	113	1
94	95	1
133	133	3
102	109	2
6	8	1
110	110	6
77	78	1
121	121	6
123	132	2
43	43	4
133	134	5
16	16	2
80	80	4
42	42	5
119	119	1
9	25	1
130	130	5
44	45	1
70	70	2
3	3	6
137	140	2
136	137	2
79	81	3
136	138	2
41	41	3
106	106	2
39	40	8
80	84	1
14	22	2
7	9	3
53	53	4
69	70	3
107	107	5
63	64	1
73	87	2
35	35	2
132	132	7
141	141	1
73	75	2
122	142	1
111	111	1
123	123	2
7	7	2
41	44	1
93	94	2
66	74	4
8	13	2
84	86	3
101	147	3
129	129	4
95	95	1
26	33	3
87	88	1
41	42	1
50	52	2
72	75	1
107	136	1
28	39	4
69	69	3
43	46	1
25	34	2
97	99	4
79	113	2
118	122	2
125	126	1
54	55	2
127	128	5
23	25	3
139	139	3
28	28	2
145	145	1
132	134	2
8	9	3
56	56	4
20	31	1
71	73	3
28	30	1
26	27	1
88	88	1
89	89	4
124	137	1
14	14	3
25	49	1
39	39	2
19	19	1
45	47	3
50	50	2
20	21	1
15	15	2
11	12	3
109	114	2
66	71	1
101	102	3
130	132	1
62	62	1
148	154	1
135	136	1
149	150	2
78	93	1
49	50	1
15	18	1
142	143	1
25	25	3
38	39	1
19	23	1
19	20	3
23	24	1
96	100	1
44	44	3
19	69	2
10	11	1
21	65	3
40	41	2
41	43	1
131	142	2
116	116	1
142	142	1
148	149	1
107	108	2
144	146	1
4	4	2
23	29	4
10	26	2
150	151	1
152	152	1
33	35	1
120	120	2
66	66	4
12	14	1
111	114	1
126	127	1
14	15	1
92	93	1
101	101	1
54	54	1
50	81	3
46	48	1
30	32	2
134	146	2
94	94	1
128	129	1
45	46	1
68	68	1
10	10	1
34	35	1
63	71	1
15	16	1
55	56	1
120	145	1
64	75	1
