51	53	6
66	70	3
109	128	2
0	0	14
123	124	28
31	38	1
70	70	12
150	150	15
68	68	14
29	29	19
29	30	8
93	93	10
9	10	16
80	80	5
48	87	3
137	144	2
40	40	13
3	4	2
107	107	25
143	150	5
133	133	21
139	139	23
37	37	32
131	131	15
9	9	14
73	73	21
17	32	2
15	16	4
44	44	26
34	35	4
56	56	14
21	21	32
12	12	13
42	42	21
32	32	11
88	88	10
78	78	8
123	140	2
3	61	4
45	46	1
138	138	9
130	130	16
46	46	14
20	20	27
11	11	19
14	14	22
127	127	21
15	36	1
42	52	4
63	118	7
64	116	1
136	136	8
3	3	29
122	146	4
4	4	10
77	77	5
25	25	24
137	137	14
5	6	7
71	71	24
64	86	9
116	152	1
105	149	4
82	82	16
109	109	13
138	139	3
113	119	5
39	39	12
68	71	1
146	147	6
7	56	3
75	75	22
17	17	16
2	100	6
121	122	1
67	67	29
48	51	3
55	55	28
71	104	2
124	125	4
72	73	4
79	79	15
66	75	3
15	37	3
118	119	2
83	83	10
126	135	6
73	140	6
134	144	1
38	39	21
63	145	1
52	53	7
32	35	8
141	142	4
64	64	12
5	5	11
157	157	16
13	13	13
11	50	4
65	65	11
41	41	22
100	100	12
114	130	3
100	101	10
118	118	20
62	71	2
87	87	22
16	16	18
47	47	17
57	57	5
108	109	3
8	8	16
107	150	6
50	50	6
94	94	22
56	57	7
2	2	7
128	138	1
81	82	9
18	18	23
21	22	12
81	81	6
63	63	18
23	23	23
11	13	2
47	53	2
51	83	2
45	45	20
146	146	7
24	24	9
30	30	6
95	96	1
34	34	13
65	84	1
55	57	5
33	34	3
97	97	9
9	11	6
12	22	1
70	131	3
110	111	7
28	47	6
149	149	11
155	156	2
108	118	3
108	108	12
53	53	6
156	156	12
142	143	1
10	11	4
118	152	5
118	148	6
158	158	12
38	50	4
65	103	2
120	141	4
144	145	7
28	28	10
38	38	17
91	107	1
116	116	11
125	125	7
8	42	3
109	129	3
90	121	4
44	45	1
125	127	2
26	43	3
90	90	14
6	6	23
53	54	2
48	48	10
147	147	19
67	68	6
112	113	4
11	14	6
56	61	2
115	115	19
142	142	4
126	128	2
51	52	3
119	119	6
17	18	5
13	14	7
42	49	7
31	41	3
15	15	21
76	77	1
22	22	13
26	33	11
120	121	2
129	139	5
112	112	3
128	128	16
62	146	1
114	114	7
99	99	24
107	108	1
96	96	12
106	106	16
71	126	3
34	37	1
131	137	1
20	21	1
141	153	4
105	105	15
79	157	2
50	51	3
96	97	1
98	98	9
110	110	10
126	126	16
62	62	4
68	69	5
9	15	2
159	159	3
10	10	13
4	48	2
111	122	5
127	128	8
124	124	15
51	51	6
65	66	1
18	19	6
47	55	3
152	154	1
26	26	8
36	36	18
77	133	2
133	144	3
132	133	4
40	41	8
89	89	17
81	88	6
91	93	2
38	53	3
48	50	3
70	136	3
49	50	3
10	13	1
108	111	3
86	87	6
129	129	6
50	54	2
141	144	3
132	132	5
137	141	10
103	103	15
145	147	3
81	89	4
136	158	3
49	49	13
35	35	8
86	86	6
154	154	6
143	143	3
108	112	1
65	73	2
112	154	10
82	103	3
109	110	5
155	155	6
43	43	15
116	123	4
7	8	6
27	27	9
6	74	1
90	91	4
48	49	8
153	159	2
7	7	17
16	18	2
65	67	1
144	144	10
8	10	3
8	45	2
113	113	4
24	25	1
122	148	2
9	28	4
114	140	2
89	126	5
69	146	3
52	52	15
56	62	1
120	120	13
68	132	2
132	134	3
1	1	12
140	140	15
116	117	6
40	43	1
106	107	3
18	33	1
152	152	13
19	25	1
114	139	3
25	37	2
31	32	5
82	117	3
6	11	1
8	11	2
121	121	5
54	54	14
8	9	1
83	86	1
97	98	3
83	84	2
123	127	7
98	105	1
7	47	3
133	134	2
122	122	7
45	53	2
24	29	1
137	139	5
66	66	4
62	88	1
127	148	1
84	84	5
39	44	2
112	120	3
80	81	2
123	147	1
19	34	2
69	69	9
4	5	5
78	79	2
30	37	3
19	37	2
8	29	7
4	35	2
130	139	2
69	145	7
13	36	4
92	92	9
28	29	2
79	80	2
12	35	2
69	70	15
50	52	3
112	129	1
66	144	1
27	50	5
42	50	5
109	120	2
104	104	8
153	153	3
135	140	1
95	97	1
151	151	19
36	37	11
95	95	13
9	137	2
107	152	4
73	116	2
129	130	11
18	34	3
134	141	7
126	127	3
0	1	1
103	150	1
23	24	7
7	46	3
12	36	2
63	153	1
115	116	1
54	56	3
92	94	2
42	43	1
140	141	1
137	158	2
8	12	1
66	77	2
10	38	2
87	88	2
109	140	1
91	92	3
31	31	13
145	145	4
103	116	3
137	140	1
112	145	3
85	103	6
147	154	1
31	42	2
69	75	2
33	33	18
87	93	2
123	123	7
22	50	2
102	114	2
12	13	1
61	61	2
41	47	3
41	42	2
135	136	2
46	47	9
89	121	1
30	31	7
126	137	4
84	85	2
92	151	1
1	29	1
19	19	11
122	135	1
116	154	1
78	134	4
62	63	4
37	38	3
5	139	1
111	111	10
19	35	2
115	129	4
25	26	2
33	35	5
83	88	3
1	7	1
9	16	3
148	148	7
130	138	1
136	157	1
26	39	4
111	148	3
5	55	1
65	70	4
63	88	2
149	150	2
32	33	2
156	157	2
72	72	5
26	27	10
14	15	2
54	55	8
117	117	3
33	156	3
118	154	4
23	36	1
68	145	3
37	39	4
91	91	6
70	146	1
85	85	9
113	122	1
114	115	4
77	79	6
123	148	2
102	116	1
11	156	2
125	138	3
110	148	4
83	85	1
112	138	2
13	20	3
69	131	5
73	141	2
88	126	3
19	20	5
86	103	1
91	105	3
51	84	3
11	38	3
5	101	1
41	45	2
63	69	3
32	42	3
126	134	2
119	144	2
111	156	1
67	70	6
74	74	1
3	25	5
103	108	2
18	35	1
9	50	1
9	37	1
96	106	1
30	63	1
27	41	2
84	103	2
88	89	1
2	26	1
41	46	4
134	135	5
65	68	2
55	82	3
37	43	3
109	112	2
79	134	1
7	51	1
112	121	2
95	106	4
0	12	1
3	19	1
145	146	1
117	154	1
64	150	4
111	137	1
31	37	1
148	149	3
10	14	2
72	100	1
101	101	8
16	17	4
87	115	3
2	3	1
66	67	1
6	129	4
16	23	3
69	77	1
116	120	1
131	147	2
125	141	4
94	101	2
150	151	3
140	153	3
11	39	3
152	153	3
13	23	2
113	154	2
81	90	1
25	38	1
131	145	3
7	10	2
6	53	6
135	135	1
64	90	3
48	100	3
12	19	1
110	129	1
80	92	2
124	152	1
127	151	3
68	77	1
27	47	1
85	86	1
42	51	1
135	137	1
73	74	2
8	47	1
131	134	2
65	104	2
122	147	1
133	142	1
134	134	4
67	69	2
17	19	1
93	151	2
66	68	1
31	40	2
117	133	1
68	70	1
9	145	1
10	138	1
113	155	5
8	136	1
7	12	1
119	120	2
67	126	1
8	100	1
48	82	2
7	65	1
22	23	2
75	99	1
68	131	3
141	141	4
92	93	1
125	153	3
3	54	2
40	42	1
56	85	2
105	106	1
103	104	1
51	54	2
124	151	1
6	12	1
44	47	1
155	158	1
124	126	1
0	6	1
125	126	1
109	121	1
113	114	1
93	94	1
9	45	1
70	71	2
52	54	1
24	26	1
139	140	1
76	99	1
11	157	2
79	81	1
25	50	1
142	144	1
1	2	1
30	42	1
120	156	1
43	87	1
41	55	1
71	90	1
39	40	1
25	34	2
17	31	1
147	155	2
118	145	1
55	81	1
1	21	1
142	150	1
9	48	1
2	24	1
