59	60	16
77	77	24
48	52	1
28	62	5
4	5	14
56	56	25
6	6	38
36	36	32
13	13	49
70	71	14
24	24	32
34	35	6
37	38	17
30	30	42
64	65	14
0	1	8
58	58	25
31	66	2
75	76	12
26	26	25
5	25	2
19	20	13
29	30	17
23	25	3
63	63	21
22	22	21
69	70	6
72	72	32
65	67	4
58	59	4
40	42	5
54	54	23
24	25	9
51	51	37
13	24	6
35	35	31
74	74	31
73	73	29
44	55	6
47	54	10
65	66	14
44	65	4
33	55	2
7	7	30
65	65	26
25	26	11
12	12	29
56	67	2
75	75	23
52	52	33
57	59	8
1	1	21
39	39	32
62	62	47
48	48	35
13	27	3
33	33	9
7	13	9
28	29	18
20	38	3
0	0	24
22	59	2
19	19	53
49	49	26
34	63	3
31	31	26
22	23	10
18	20	1
10	10	33
30	31	14
21	55	8
57	57	36
53	53	29
20	22	4
41	41	28
31	69	1
70	70	16
45	48	4
21	36	5
44	44	26
43	43	19
42	42	38
4	4	34
39	40	6
36	39	2
13	23	2
34	34	16
44	48	2
66	67	11
28	28	33
32	32	28
5	6	19
20	23	2
9	9	50
61	67	1
13	14	9
9	56	1
34	40	4
2	2	34
7	9	12
5	5	28
47	48	14
49	68	3
71	73	4
60	60	39
40	67	1
51	69	4
21	21	39
44	45	5
66	76	2
23	23	34
69	69	34
64	64	21
46	46	24
37	39	8
55	55	27
54	55	19
74	75	5
34	56	2
68	74	4
54	68	3
14	25	1
25	25	43
19	21	2
20	20	42
11	11	35
2	12	4
44	46	1
48	65	3
8	8	37
53	54	16
72	76	1
47	47	19
21	22	8
32	33	14
27	38	3
31	36	2
27	62	4
68	71	3
20	37	1
55	67	3
36	40	4
45	45	29
37	37	13
48	50	3
33	34	9
42	49	1
3	3	32
29	39	13
61	61	21
21	58	2
54	67	1
52	53	8
7	11	3
8	18	1
23	50	1
69	73	4
10	11	10
67	67	15
38	38	24
32	55	4
49	50	10
50	50	48
34	37	1
66	66	16
53	60	2
0	22	2
27	27	35
47	67	4
25	49	3
39	43	1
40	40	33
59	59	17
48	49	10
46	55	2
63	68	1
38	39	4
27	28	7
67	76	3
5	10	2
24	28	3
61	62	18
68	70	6
34	43	3
6	18	1
68	68	24
29	29	35
3	5	6
62	63	15
22	38	4
71	71	28
53	73	4
28	36	3
68	69	15
7	8	6
44	58	1
55	56	6
51	52	4
18	18	20
7	59	4
30	35	10
56	57	3
1	6	6
9	12	8
31	39	2
25	69	2
34	36	4
40	51	1
31	32	6
26	38	3
69	71	5
47	52	2
57	69	3
41	48	2
50	53	3
2	4	5
43	55	3
14	14	13
38	52	1
33	62	4
32	63	4
73	74	12
33	70	1
5	14	2
25	36	1
31	37	1
50	67	4
38	68	2
32	43	2
14	40	1
24	26	7
72	73	15
59	61	4
36	42	1
4	13	6
2	11	2
25	29	2
29	61	2
34	50	2
19	23	3
12	43	1
74	77	1
60	62	4
25	28	2
1	5	7
61	63	2
52	59	6
2	13	7
28	67	3
50	54	1
51	68	4
62	67	2
12	21	2
57	58	13
64	68	1
2	5	1
50	77	1
53	76	1
31	40	4
52	57	2
51	53	2
76	76	15
60	71	1
9	32	3
28	66	1
62	64	4
25	27	6
55	58	3
18	23	2
30	34	4
8	10	6
11	77	1
52	67	2
41	59	3
26	27	6
36	37	13
71	72	7
57	75	2
43	54	2
45	46	1
5	28	2
60	68	2
13	25	4
29	46	3
4	72	2
73	75	2
41	63	8
1	4	2
27	51	1
28	47	1
11	12	5
57	65	1
1	13	5
35	49	1
9	10	7
0	5	6
40	41	6
56	63	3
39	54	3
64	66	8
42	63	3
4	45	2
32	37	4
31	33	3
59	63	2
72	74	10
18	19	3
2	10	4
50	63	1
4	25	2
2	3	4
6	13	2
54	77	5
27	65	1
33	39	4
42	43	3
49	64	1
53	55	5
29	31	5
39	41	1
28	45	3
28	40	5
39	50	3
33	36	1
52	71	2
21	23	1
30	36	5
49	63	2
10	22	4
23	27	6
27	37	4
32	77	1
32	47	2
5	8	5
5	24	1
50	62	3
29	32	1
0	2	2
22	24	4
38	49	2
69	72	2
30	57	5
13	22	3
35	44	1
31	34	1
3	6	1
38	40	5
8	9	11
7	28	1
30	44	1
54	76	1
4	26	1
24	32	3
26	29	2
6	7	6
32	61	2
35	42	2
62	66	1
0	64	2
20	44	1
31	35	5
33	51	2
0	13	2
25	38	3
61	64	1
5	44	1
21	29	1
5	64	4
7	10	3
22	25	2
1	15	1
37	42	1
37	40	3
56	65	3
47	72	3
76	77	2
49	51	2
74	76	2
3	13	2
13	75	2
48	70	4
26	34	1
29	52	2
52	61	3
4	9	2
71	76	1
26	36	2
27	36	1
45	51	1
47	71	1
28	53	2
60	66	3
63	64	2
2	22	4
63	73	2
23	73	1
39	49	2
52	56	1
1	2	3
36	50	1
27	29	1
44	64	1
29	54	1
13	42	1
14	41	3
18	72	2
34	55	2
24	27	1
8	11	1
41	42	9
37	41	2
38	45	2
42	52	1
71	74	1
31	44	3
34	44	5
51	54	3
45	72	1
37	43	5
24	36	1
30	41	1
32	34	2
6	75	3
20	21	1
35	36	7
40	53	5
32	69	2
60	67	1
42	62	1
52	73	1
41	50	1
43	44	5
44	47	1
8	58	2
49	54	2
7	45	1
34	47	4
2	6	1
21	56	1
50	51	4
35	39	2
28	38	2
31	43	3
48	51	1
1	8	1
8	66	3
36	49	1
61	65	5
40	48	3
2	19	4
34	38	2
50	68	2
49	58	2
9	61	4
55	57	1
24	35	1
10	23	1
3	4	3
48	69	1
53	68	2
35	37	2
0	3	3
8	12	1
65	68	4
46	53	1
27	33	1
10	77	1
50	52	1
48	71	1
42	45	1
62	68	2
6	10	1
52	68	1
6	8	2
64	67	1
28	61	1
43	48	2
24	34	1
23	24	2
49	69	3
22	56	1
30	52	1
44	51	1
25	52	1
78	78	1
46	54	1
33	47	1
42	65	1
6	12	1
51	55	1
44	56	1
8	46	1
47	77	2
38	43	3
54	56	1
28	41	2
58	64	2
29	33	1
13	68	1
12	13	1
60	61	1
36	38	1
31	42	1
55	59	1
53	56	1
2	31	1
0	4	1
58	67	1
23	28	2
28	63	2
13	15	1
50	58	1
35	50	1
59	68	1
23	49	1
8	59	1
27	58	1
36	44	1
23	51	1
49	70	1
52	70	1
28	33	1
64	73	1
27	34	1
