163	163	7
55	55	7
157	237	2
238	238	7
48	48	6
38	42	1
167	167	3
220	220	3
8	8	6
242	242	7
172	173	5
73	77	2
62	63	3
53	53	12
160	160	12
118	120	1
31	31	22
22	22	9
15	16	4
16	16	4
76	76	14
162	214	3
192	192	16
24	35	5
34	47	2
18	58	2
28	28	10
152	152	13
87	87	12
97	97	7
194	194	12
234	237	6
33	97	1
113	113	18
234	235	6
77	105	2
39	40	3
76	78	5
85	89	3
71	81	4
34	48	2
196	196	12
201	219	4
12	19	1
75	77	2
103	103	16
184	207	2
35	36	2
35	35	16
201	201	23
185	185	16
156	156	36
120	120	14
47	68	4
84	101	1
45	45	10
38	38	10
78	80	2
88	99	1
34	34	9
193	193	11
111	111	8
77	77	9
188	188	19
2	2	8
161	161	6
189	190	8
152	153	3
151	151	15
157	157	8
216	216	9
188	190	5
229	229	14
110	117	3
155	155	24
223	223	20
231	231	9
207	207	17
56	58	4
57	57	3
96	100	3
119	119	12
73	73	10
175	179	1
105	105	7
110	110	16
162	238	2
99	99	7
235	235	12
50	50	12
211	212	5
197	198	7
204	204	9
182	240	4
206	206	5
81	89	4
84	84	5
101	113	2
49	50	3
163	164	8
237	237	7
79	79	5
87	108	4
246	246	7
102	244	6
146	147	2
21	21	3
165	208	3
177	177	8
73	90	4
226	226	10
60	60	6
150	150	29
18	19	9
26	26	7
165	242	3
173	174	2
82	83	6
200	200	14
54	54	6
83	98	2
107	116	2
191	191	9
38	39	1
231	233	5
11	12	8
218	218	8
105	111	2
94	94	9
102	102	12
92	92	19
219	219	5
195	210	2
220	221	2
6	184	1
17	19	1
108	108	8
109	201	1
61	71	4
191	216	2
239	239	10
245	246	4
25	25	7
20	20	4
204	211	2
159	159	6
171	171	8
4	5	16
72	72	10
182	183	1
109	110	3
198	198	10
162	162	9
10	10	5
156	177	2
101	101	3
86	86	14
197	197	9
172	172	25
188	202	6
87	94	4
244	245	5
96	97	6
75	107	2
41	41	8
89	110	1
70	70	5
160	161	3
7	7	14
233	234	6
100	100	10
46	46	10
217	217	8
158	185	2
189	241	1
214	214	10
164	164	7
103	104	3
247	247	8
1	1	19
163	214	1
157	166	6
48	73	4
206	207	7
17	17	6
79	80	15
192	232	3
204	205	2
88	88	20
98	98	9
67	72	2
236	236	13
175	175	15
63	64	9
20	48	3
117	117	2
166	209	2
23	23	24
147	147	7
3	47	3
155	156	5
180	246	2
105	107	7
158	184	3
205	205	12
66	66	10
95	97	4
153	210	2
5	63	4
74	74	6
18	34	2
208	217	4
29	29	8
82	85	1
93	236	2
66	68	3
192	227	3
192	193	6
44	44	9
197	200	4
245	245	12
71	72	7
192	194	7
19	19	9
15	15	10
193	196	4
212	212	9
158	159	3
159	238	1
209	210	7
62	64	5
30	34	5
82	82	11
60	61	2
36	39	4
170	248	2
208	223	5
0	15	1
179	179	12
186	186	13
115	115	21
52	52	9
56	57	4
34	35	3
239	240	4
27	27	10
32	32	12
217	218	3
202	202	9
18	18	7
230	230	5
112	112	13
12	12	6
225	226	3
203	203	11
154	154	10
153	227	5
96	96	10
89	89	4
240	240	17
71	71	12
211	213	2
218	219	7
101	115	3
187	213	3
214	218	2
72	76	3
21	46	4
183	219	1
116	116	6
68	68	4
209	209	5
43	44	6
234	234	13
88	89	3
21	27	2
72	74	7
168	168	7
238	241	1
80	81	5
73	74	5
180	180	8
207	212	3
42	43	2
248	248	11
106	106	4
117	245	1
197	199	3
6	7	2
174	174	8
193	195	7
165	248	2
30	30	4
95	237	3
186	212	3
40	41	1
8	32	2
198	200	4
165	217	1
95	115	2
199	199	13
57	112	1
67	68	1
96	98	5
243	243	2
220	222	2
179	203	2
75	75	11
2	3	3
109	109	9
62	62	6
194	195	7
104	107	2
150	202	2
164	166	6
224	224	12
114	114	11
113	114	9
104	104	8
96	115	1
87	97	3
176	176	5
182	182	11
111	112	4
10	11	3
9	10	3
17	20	5
85	214	3
165	165	13
191	192	9
193	194	6
172	174	3
225	225	10
158	165	3
176	182	3
87	88	4
55	56	3
227	227	12
48	79	3
210	214	1
102	112	8
37	38	4
184	184	11
9	9	6
241	241	14
162	215	3
180	181	5
184	185	7
90	90	10
110	111	5
169	170	4
169	169	18
195	209	1
80	80	4
247	248	5
180	182	2
176	237	3
40	40	3
166	166	7
34	50	3
147	211	2
153	204	1
183	183	11
4	35	3
181	181	19
229	233	7
4	14	2
23	29	1
197	202	2
107	112	2
34	49	1
15	48	5
233	233	5
47	47	7
0	53	2
149	174	2
195	196	3
18	48	1
189	189	13
230	231	2
110	150	2
3	3	7
119	120	3
183	211	2
161	184	3
58	58	11
205	206	2
67	70	3
162	172	1
150	167	2
87	113	1
244	244	11
178	178	7
231	232	3
60	84	2
74	75	3
243	244	5
228	231	2
63	63	9
225	242	3
105	118	2
173	173	8
33	33	5
61	61	10
156	185	1
12	38	4
29	49	1
65	72	3
165	174	3
49	236	5
195	195	6
67	67	8
57	58	3
163	184	2
47	77	5
242	243	3
95	95	4
20	114	1
42	42	4
186	198	2
51	53	3
39	39	7
117	118	3
69	69	5
43	111	4
162	237	2
221	221	5
84	86	2
51	51	9
153	153	4
170	238	2
53	54	3
100	101	4
221	222	3
91	110	4
159	168	1
50	56	3
43	43	5
54	55	3
163	175	3
65	65	6
198	211	2
177	178	3
228	228	3
210	210	3
202	247	3
64	64	17
215	215	10
96	241	3
9	173	2
24	25	2
213	213	8
61	64	1
193	202	3
71	75	4
37	37	2
8	151	3
208	208	9
188	189	4
160	176	1
160	166	3
240	247	1
33	79	1
8	10	2
222	223	2
76	85	1
153	216	1
199	200	4
59	59	3
213	214	5
73	91	3
77	79	2
235	236	5
51	175	1
40	53	3
145	145	6
24	45	1
56	56	5
156	214	1
36	36	8
232	232	8
185	218	5
47	74	4
89	90	3
241	243	2
240	242	2
183	220	2
31	35	1
211	211	11
199	231	2
107	107	9
6	23	2
164	177	1
192	196	2
41	199	5
84	106	1
165	166	2
216	217	8
223	226	3
186	211	3
27	45	4
42	45	2
5	5	5
222	222	6
3	5	4
26	33	3
247	249	1
95	98	3
94	180	2
78	78	9
178	183	6
213	219	1
171	186	3
162	231	2
176	177	3
93	93	2
164	213	3
92	93	1
195	204	1
61	73	1
170	170	5
46	47	5
61	80	1
69	71	1
190	190	2
72	77	1
39	100	1
16	17	4
49	49	2
104	115	2
168	169	7
60	63	2
208	215	3
107	115	4
103	114	2
11	22	2
98	108	1
33	50	5
46	63	2
78	81	1
24	24	3
233	235	1
93	94	2
88	101	2
158	173	1
87	90	4
56	236	1
112	115	3
84	100	2
37	40	1
18	63	3
51	72	3
6	6	8
76	91	1
118	118	5
174	186	1
156	234	2
81	100	1
81	82	1
40	52	1
158	158	8
86	87	3
171	172	3
75	111	3
205	225	1
4	6	3
51	56	4
94	116	1
164	165	2
19	20	1
44	45	2
57	235	1
187	188	7
185	212	1
114	115	2
231	234	1
241	242	3
83	83	3
17	29	3
30	37	2
226	244	5
226	237	1
89	91	3
73	213	3
223	227	1
208	209	3
14	15	3
177	187	1
217	229	1
5	14	1
196	197	2
229	230	3
149	149	1
214	249	3
157	185	3
75	86	1
18	60	4
96	99	2
175	247	3
164	198	1
170	174	1
111	245	2
212	232	2
146	158	1
230	236	3
81	106	3
21	33	2
167	168	1
171	178	1
94	216	3
59	70	3
30	49	3
1	6	1
157	240	1
6	35	1
58	64	2
176	181	2
17	55	2
95	245	2
161	171	1
188	192	6
170	171	2
101	102	1
159	240	1
163	165	1
219	232	2
5	36	1
75	84	1
23	155	2
237	240	2
191	244	1
76	77	4
228	230	3
209	213	4
182	218	4
193	216	3
108	111	1
75	90	1
73	208	1
169	175	1
157	181	1
90	108	2
166	186	1
13	37	2
102	113	1
240	241	1
118	119	1
162	165	6
34	68	1
91	91	4
212	230	2
69	75	1
167	172	3
14	58	1
159	239	1
159	236	4
147	151	3
185	186	1
35	48	2
51	202	3
166	216	2
158	239	2
210	211	3
12	64	1
24	27	1
58	86	2
151	152	1
235	237	4
192	198	3
165	218	1
243	246	1
111	114	2
85	88	2
2	37	1
31	32	2
55	58	3
237	238	1
36	38	1
0	28	1
27	31	1
176	248	2
20	67	1
11	11	3
88	215	2
101	112	2
224	226	1
153	226	1
77	78	1
25	26	1
174	175	1
188	193	1
174	184	1
184	191	1
177	181	1
160	215	1
144	166	1
33	90	1
179	180	1
188	198	1
191	197	1
179	235	1
157	175	1
61	62	2
84	102	1
115	119	1
208	210	1
212	231	1
228	244	1
153	194	2
61	66	2
158	236	1
68	70	2
6	34	1
21	31	1
3	13	1
196	232	1
3	36	1
64	82	1
111	213	2
8	9	2
32	93	1
47	205	1
238	239	2
81	94	1
1	10	3
100	115	2
54	56	1
84	109	2
76	90	1
190	191	1
4	36	2
162	174	1
71	77	2
172	249	1
116	244	1
85	85	1
32	94	1
75	102	1
91	222	1
72	80	1
75	89	1
176	219	1
112	113	1
209	214	1
210	213	1
60	83	1
175	176	1
214	215	1
201	202	1
14	49	1
59	60	1
39	200	1
108	210	1
152	208	1
232	234	1
17	235	1
245	247	2
67	76	1
35	71	1
103	191	1
74	92	1
75	76	1
220	229	1
110	213	1
40	222	1
222	241	1
163	218	1
19	61	2
54	57	1
194	197	1
29	34	1
21	170	1
28	29	1
88	91	1
99	113	1
30	35	1
222	227	1
178	179	1
1	11	1
171	173	1
29	31	1
57	237	1
69	70	1
193	237	1
182	241	1
10	15	1
175	188	1
161	222	1
230	233	1
