89	89	4
101	101	2
84	84	7
62	63	6
25	100	2
70	70	2
127	127	8
90	90	5
133	133	12
115	115	9
31	32	3
62	62	8
15	15	5
25	25	11
13	13	2
120	121	5
125	130	1
61	61	8
21	21	8
23	100	2
128	129	3
60	84	2
99	99	5
86	111	2
134	134	2
56	56	2
106	106	3
106	128	6
5	5	8
22	23	1
73	73	13
75	75	5
27	27	4
92	92	9
72	73	2
33	33	5
104	104	5
105	114	2
84	85	2
52	52	2
22	22	10
131	133	1
119	120	2
71	72	2
108	108	5
45	56	1
121	121	7
48	54	1
26	26	8
80	80	4
107	107	8
102	102	6
89	90	7
86	87	4
131	131	7
44	44	4
54	79	7
87	87	5
63	81	1
68	69	6
118	118	4
53	53	3
130	130	3
94	95	5
14	24	7
57	57	1
10	129	5
87	129	1
129	129	5
122	123	6
95	95	15
6	6	2
79	80	5
33	34	1
0	0	4
28	70	2
9	133	2
43	110	2
11	11	1
1	1	2
114	115	6
50	51	1
119	119	2
128	128	4
118	133	2
24	24	6
106	114	4
50	50	2
103	103	5
125	125	9
129	130	1
76	76	8
76	77	1
120	120	9
56	77	2
44	131	2
17	58	3
99	111	1
32	33	4
113	113	2
59	88	2
123	123	2
2	2	2
24	101	2
96	98	3
117	117	2
125	126	1
58	59	1
98	130	2
66	69	1
63	63	5
97	97	3
12	12	3
58	78	1
72	72	7
88	93	1
49	49	5
75	81	1
29	29	2
8	44	2
7	7	3
74	74	3
126	135	2
64	64	2
9	9	1
52	53	6
97	108	2
59	127	3
114	114	4
102	104	3
14	25	3
62	91	2
112	112	5
8	8	4
74	75	5
43	43	2
59	60	2
82	85	3
26	100	3
91	91	2
93	93	8
71	128	2
81	81	1
124	129	1
43	98	2
91	111	6
6	7	3
36	36	2
27	98	3
60	83	5
2	3	3
44	45	2
116	116	5
16	23	1
105	105	9
86	86	3
17	56	1
115	119	2
83	83	2
91	92	1
114	132	1
28	28	1
35	37	1
53	84	3
43	55	2
69	69	10
11	100	1
58	132	1
15	20	1
60	61	1
112	113	2
24	111	3
59	86	2
69	80	1
27	28	2
59	74	3
61	134	2
50	52	5
124	124	4
99	112	1
96	129	3
12	99	2
11	16	2
118	119	2
52	102	2
49	50	1
106	107	3
122	122	3
97	98	2
66	66	3
135	135	2
94	94	3
77	80	1
68	68	2
102	103	1
107	108	1
58	58	4
132	133	1
126	126	1
38	38	2
85	85	3
98	98	3
43	109	1
14	14	4
77	77	3
73	74	1
24	26	3
82	84	1
45	94	3
42	42	1
97	111	2
132	132	2
0	1	2
52	54	2
96	96	1
35	35	3
79	79	1
91	95	1
17	24	2
11	129	1
20	20	1
16	16	3
88	88	1
28	29	3
76	126	1
127	129	2
130	131	1
91	117	1
48	48	2
66	82	1
99	100	2
30	37	1
30	31	1
121	135	1
64	65	2
7	96	2
109	110	2
99	103	1
104	105	2
111	119	3
55	57	2
17	17	1
100	100	2
9	11	1
81	112	1
54	54	2
1	2	2
83	112	2
30	30	2
67	82	2
66	68	1
79	109	1
111	111	1
23	23	1
32	32	3
8	130	1
97	132	2
106	132	1
116	123	1
4	5	1
10	11	2
52	70	1
23	24	1
112	120	1
9	130	2
65	65	1
83	109	1
116	117	1
69	70	1
102	126	1
14	33	1
115	117	1
112	133	1
71	71	1
19	20	1
88	94	1
7	12	1
67	120	1
55	58	1
55	68	1
46	71	1
59	85	1
67	67	1
9	10	1
82	83	1
