6	6	9
112	112	7
123	123	18
129	130	6
17	17	12
7	7	11
91	92	4
27	27	6
14	83	1
130	130	14
134	134	16
83	83	10
128	129	4
24	24	9
111	111	8
80	115	2
137	138	2
116	116	7
83	84	12
107	107	6
26	78	3
119	121	3
78	78	7
91	93	1
131	131	18
18	18	12
132	132	20
74	74	7
11	12	9
12	13	4
32	32	15
109	109	10
30	31	3
26	26	8
27	30	3
108	112	1
119	119	4
105	105	1
8	8	2
123	124	2
91	91	11
83	85	5
97	124	4
94	95	8
71	74	3
128	128	19
15	17	4
108	114	4
79	80	1
29	29	3
127	127	17
115	115	9
113	113	10
100	100	12
25	26	9
112	127	1
135	136	5
133	135	2
85	103	2
140	140	22
33	33	20
98	98	21
126	126	17
94	94	4
92	93	3
117	123	1
22	22	24
138	138	14
96	96	6
19	19	9
33	34	6
93	93	4
102	103	3
125	125	19
119	123	1
94	96	2
13	14	9
97	98	2
20	20	9
130	131	3
31	31	5
25	83	2
73	73	10
13	13	1
4	25	2
21	22	9
72	72	11
2	3	2
138	140	5
117	117	11
1	1	6
28	29	6
116	117	1
121	123	3
118	118	2
139	140	4
10	11	3
120	127	1
80	88	2
124	124	20
99	100	4
97	97	9
117	118	5
87	87	6
83	103	3
95	95	13
113	114	8
103	103	5
34	34	11
27	128	2
98	99	3
76	76	22
71	71	5
135	135	7
134	136	2
37	37	1
92	101	3
139	139	6
125	126	4
80	80	11
2	2	5
101	102	3
24	25	2
95	98	6
0	0	6
89	89	8
106	106	6
105	107	5
133	133	12
111	112	1
4	4	5
75	75	16
81	114	2
123	134	1
104	114	1
106	107	7
132	136	2
127	130	6
88	90	1
33	124	1
81	84	6
23	23	7
110	110	6
82	84	2
30	30	4
31	35	1
107	116	2
71	72	7
95	97	1
110	141	1
4	33	2
84	84	4
21	21	8
106	112	3
136	136	8
16	16	10
40	85	3
36	90	1
120	120	3
31	32	5
12	21	3
17	19	3
75	117	3
121	122	5
79	79	6
27	29	2
86	86	4
111	114	2
5	5	6
114	115	2
22	23	7
137	137	7
106	109	1
14	14	2
20	21	3
102	108	1
78	106	2
29	31	1
95	104	3
15	15	3
4	5	6
78	80	2
7	10	3
118	121	2
32	33	2
96	101	4
82	82	3
76	116	2
19	20	2
110	111	9
102	104	3
9	17	2
126	127	2
122	122	13
119	122	1
3	4	5
80	82	6
80	84	1
15	16	2
3	111	2
133	134	5
7	9	1
118	119	5
4	6	4
80	87	3
124	125	5
35	35	10
108	115	1
9	9	1
78	87	2
17	18	7
104	107	3
102	106	2
101	101	5
88	88	5
28	28	5
107	108	1
74	75	4
75	92	1
90	90	4
109	118	2
127	128	1
14	15	2
104	104	1
85	85	2
23	24	4
116	119	3
92	92	3
36	36	4
73	86	2
29	30	5
3	3	7
102	102	5
6	12	1
89	90	2
23	26	1
109	112	2
81	81	5
131	140	2
86	88	1
75	78	1
82	83	2
110	114	2
15	87	2
132	133	2
97	123	2
129	129	5
87	90	1
112	115	3
72	109	1
95	96	3
25	25	4
0	7	2
2	4	1
72	77	1
108	111	1
114	114	7
107	115	1
79	87	4
72	73	1
37	38	2
78	79	1
73	75	3
114	116	1
130	132	1
0	1	1
81	86	2
92	120	2
15	74	1
80	81	2
91	100	1
87	102	1
105	106	1
28	128	1
7	8	1
136	140	1
106	115	1
27	28	2
76	77	1
99	99	1
116	127	2
1	5	1
109	110	1
121	121	1
22	78	1
10	10	2
113	115	1
38	92	1
77	77	1
124	130	1
71	88	1
104	109	1
12	18	1
21	124	1
84	85	2
90	92	1
104	108	1
126	130	1
8	9	1
8	11	2
109	111	1
85	86	1
35	97	1
