133	133	21
17	17	7
102	105	2
140	140	7
117	118	11
121	121	10
117	117	4
105	105	5
31	32	1
89	134	4
138	138	4
72	72	6
98	98	4
30	31	5
10	10	7
115	126	5
27	28	1
29	29	3
131	131	16
0	1	2
8	8	4
103	114	3
11	12	3
103	112	2
133	134	3
120	123	2
81	82	9
114	114	8
7	7	2
20	20	3
116	116	4
127	127	5
74	74	9
115	130	3
83	84	1
123	123	6
97	106	4
21	21	5
130	130	8
78	78	13
83	83	7
18	18	2
110	110	8
134	134	6
34	86	3
134	138	1
88	88	9
79	133	2
125	125	3
106	107	4
26	72	3
139	139	5
99	99	5
13	13	2
96	96	8
100	101	4
86	86	3
37	37	4
97	99	1
10	30	1
19	33	2
26	26	1
19	71	1
129	129	3
35	35	3
95	96	1
87	103	3
100	138	1
102	129	1
71	71	3
71	72	9
111	115	3
7	10	1
105	117	1
27	27	2
93	93	8
132	132	18
16	29	3
108	111	1
80	80	8
33	33	6
13	15	1
137	137	1
94	94	8
10	12	3
102	102	8
113	113	1
109	109	11
119	119	8
89	90	2
126	126	5
127	140	2
90	134	4
74	114	3
97	116	2
81	81	8
128	129	2
98	120	3
19	23	1
5	18	2
118	118	2
7	31	3
73	74	9
3	3	6
135	136	4
76	76	7
25	25	2
77	77	1
101	101	2
88	94	3
88	90	2
121	122	4
115	115	2
23	23	4
130	136	2
111	112	3
34	71	1
75	77	2
28	30	1
112	112	4
88	89	2
95	95	4
90	105	1
136	136	6
80	81	1
88	95	2
108	108	8
90	90	1
107	107	1
16	16	3
91	91	2
23	72	2
35	38	1
1	23	1
130	131	1
126	127	2
82	125	1
13	14	6
74	75	4
111	111	5
120	120	2
28	28	4
23	71	2
5	6	3
95	100	4
122	122	3
113	114	5
27	34	1
124	124	8
127	128	3
85	86	2
134	135	1
74	80	3
34	34	6
0	0	2
108	110	2
17	18	2
132	133	1
34	35	1
32	32	4
38	130	1
103	103	3
98	103	1
74	77	4
13	18	1
87	101	2
110	124	2
128	128	6
112	140	1
24	24	2
5	33	3
118	119	2
87	95	1
125	126	3
75	75	1
5	7	2
87	106	1
2	2	1
127	129	2
20	21	1
90	91	1
135	135	2
19	19	3
84	84	3
120	122	1
31	31	1
5	5	3
100	114	1
82	82	5
12	13	3
90	107	3
75	81	2
82	121	1
99	104	1
6	6	3
87	87	1
114	115	2
76	118	1
10	71	1
129	130	2
2	3	1
80	133	1
28	29	2
80	82	1
73	73	1
120	121	1
36	36	1
29	30	2
94	95	1
116	128	1
130	132	2
88	136	1
14	14	1
131	139	1
86	122	1
21	22	1
16	23	1
