148	148	6
151	151	9
74	74	10
5	6	2
159	159	12
69	70	8
156	156	2
81	81	14
150	150	10
121	121	10
140	140	6
80	80	5
120	120	4
132	132	3
70	70	2
76	76	3
139	141	3
87	87	7
40	40	7
81	82	8
113	113	10
39	40	5
27	27	8
71	72	4
16	16	6
149	149	12
48	49	9
111	111	10
14	14	6
116	117	6
13	13	18
162	162	7
117	117	9
56	56	26
137	137	6
8	9	9
57	62	4
136	139	1
71	71	9
54	56	1
105	105	6
64	64	10
124	124	7
118	118	4
11	11	8
129	130	1
34	34	14
17	18	3
140	141	4
2	2	10
10	10	3
120	121	3
99	99	13
47	47	12
150	151	2
25	25	10
43	43	15
63	63	8
3	3	18
46	46	13
55	55	5
12	12	4
136	137	3
147	147	3
77	77	12
51	63	3
42	42	12
45	45	11
52	52	13
10	11	3
7	8	3
69	72	2
56	73	1
91	91	3
108	110	7
148	169	1
157	157	2
91	94	2
8	8	18
53	53	20
133	134	7
107	125	3
52	53	10
153	153	13
108	108	13
143	143	14
39	39	10
134	135	9
55	56	6
0	1	10
6	6	11
37	37	12
116	116	6
9	9	10
114	115	9
3	5	2
51	51	7
121	122	3
36	111	5
114	123	2
70	99	7
85	85	11
23	24	2
126	126	7
47	48	1
93	95	2
133	133	13
9	11	4
18	18	10
114	114	6
98	98	10
113	131	5
35	35	6
64	65	8
15	16	6
79	79	4
91	93	1
149	152	4
91	92	3
157	161	1
24	24	8
146	146	8
107	108	8
155	156	10
112	166	2
88	88	7
119	119	6
142	142	9
169	169	6
93	93	6
49	49	11
14	15	2
82	83	1
142	143	2
131	131	6
64	67	3
104	114	1
45	46	3
155	157	5
15	38	4
41	41	16
110	110	5
26	101	1
1	2	5
20	20	3
54	54	13
165	165	8
141	142	3
101	105	6
160	160	4
119	160	4
127	127	5
112	112	13
56	57	3
44	44	12
47	133	2
18	19	12
158	158	18
1	1	5
163	163	4
17	17	11
51	52	1
15	17	2
147	156	1
152	152	8
75	75	5
4	4	15
21	23	1
27	56	2
155	155	10
129	129	5
47	71	3
24	71	2
111	165	2
9	10	7
125	126	2
117	118	6
67	67	4
98	99	5
62	62	8
83	86	3
123	125	2
134	134	6
55	91	2
15	15	8
72	73	3
168	168	5
78	79	2
106	106	7
166	166	5
148	149	7
108	109	2
65	65	3
106	107	1
16	19	1
111	112	4
46	50	1
38	38	5
115	116	1
125	130	8
170	170	3
66	81	2
44	46	2
21	70	1
41	42	2
80	81	3
123	123	1
144	144	7
75	99	3
145	145	2
109	109	10
96	97	3
92	92	1
83	83	11
86	86	3
7	7	2
138	138	4
97	97	5
111	114	1
69	69	10
154	154	7
43	45	1
73	73	7
155	162	1
19	19	3
136	136	3
3	6	2
22	22	3
90	91	1
16	18	2
84	84	8
4	5	3
39	41	2
145	146	2
89	89	11
46	49	1
84	85	4
46	48	2
77	80	2
26	26	4
100	101	4
0	0	1
99	100	3
48	48	7
77	87	2
107	107	5
44	45	5
101	101	2
96	96	4
36	36	10
5	20	4
51	62	1
52	72	3
140	144	1
108	126	1
52	57	4
40	41	5
25	27	1
1	13	1
160	162	3
50	50	4
6	7	1
127	166	1
119	122	1
105	106	2
164	164	2
127	128	1
66	67	2
86	91	1
159	160	2
141	168	2
11	12	1
141	144	2
73	99	2
167	167	4
90	90	2
120	122	2
141	143	1
57	76	1
149	151	1
5	24	1
103	103	2
57	57	6
46	47	2
141	141	3
21	24	2
68	71	2
165	167	2
21	21	7
72	72	4
145	147	2
92	93	1
2	7	2
35	36	2
82	82	6
146	147	8
121	130	2
137	139	1
118	119	1
12	13	1
161	162	3
100	100	3
5	5	3
151	152	2
47	49	3
20	21	1
122	122	5
116	118	1
120	165	3
22	23	1
5	21	1
127	167	1
120	155	1
130	140	1
126	127	3
112	113	6
139	140	1
119	127	2
124	125	2
53	55	1
64	75	1
130	130	4
135	135	4
159	165	4
36	90	2
143	144	1
53	56	1
126	130	1
74	76	2
115	115	4
165	166	1
36	37	3
78	78	1
66	66	3
28	28	4
21	22	2
113	125	1
83	89	2
133	136	2
63	72	1
146	148	4
95	96	2
65	83	1
8	135	1
95	95	1
157	158	2
57	98	1
120	162	2
164	165	2
25	26	2
7	24	1
139	139	2
125	125	1
135	138	1
37	38	1
138	139	1
82	106	1
34	35	1
135	136	3
136	140	1
147	148	1
23	23	1
80	90	2
97	98	1
93	94	2
130	131	1
85	86	1
132	133	2
139	142	1
161	164	1
77	79	2
119	126	1
103	107	1
49	50	1
33	33	1
115	117	1
39	74	2
18	23	1
73	74	1
144	145	1
62	63	2
128	128	1
68	68	1
74	99	2
68	69	1
16	17	1
101	103	1
110	111	1
108	111	1
117	119	1
84	91	1
