118	118	5
137	137	14
8	9	5
6	6	16
178	178	13
160	161	10
105	105	8
153	153	13
185	185	4
30	30	2
150	150	5
173	173	6
99	99	10
104	105	2
23	23	13
115	115	7
69	70	5
220	220	6
69	73	2
208	208	15
101	101	15
45	46	10
189	189	11
168	196	2
123	127	1
25	53	1
10	11	6
203	204	1
123	125	5
11	11	14
225	225	4
23	24	2
24	160	2
20	20	13
25	25	17
65	65	9
240	242	3
63	70	6
118	129	1
133	133	13
227	227	9
30	31	7
202	202	13
23	47	1
24	24	21
224	224	8
69	71	2
200	201	5
110	110	6
41	41	10
177	178	2
19	19	8
136	137	8
231	231	14
125	126	4
66	66	1
48	48	23
18	59	4
116	116	5
143	175	1
29	33	2
98	99	3
50	52	3
129	130	6
220	221	1
37	37	26
157	236	1
9	9	20
35	36	6
84	85	9
159	161	2
38	38	9
144	145	2
28	29	4
122	126	1
130	139	1
177	177	12
73	73	6
154	154	3
48	50	8
34	161	1
185	186	3
56	63	5
161	164	3
171	171	5
201	236	1
109	109	4
81	119	2
159	159	8
27	27	11
78	106	1
107	107	5
7	117	2
201	201	12
57	58	6
47	54	6
226	226	3
239	240	1
55	55	15
233	233	11
74	74	23
131	131	9
142	142	12
216	216	7
21	22	3
186	187	3
51	51	9
10	10	19
53	53	17
200	220	1
184	184	9
69	69	15
58	58	6
168	170	3
236	236	9
39	157	2
139	164	3
219	219	7
59	61	1
44	44	6
61	61	12
29	29	15
100	100	10
189	198	1
33	35	3
172	172	20
141	142	5
197	197	15
155	156	3
108	125	4
77	78	5
131	132	4
40	41	7
46	46	21
34	34	8
104	104	12
8	77	1
74	75	6
133	134	3
20	29	1
128	134	2
150	159	1
20	22	1
44	45	2
37	38	2
148	148	10
33	33	14
38	39	7
143	144	7
208	223	4
212	212	5
189	211	2
212	217	3
213	213	10
103	104	8
29	32	3
238	241	2
232	232	15
113	113	9
124	126	3
162	170	6
135	135	2
54	101	1
122	125	2
177	205	1
0	0	7
80	80	10
156	157	14
12	15	5
154	235	2
64	64	13
120	120	7
183	183	3
108	108	4
17	19	4
64	68	4
21	21	11
2	3	5
228	228	2
233	237	2
16	20	1
159	190	1
15	15	1
25	37	7
70	70	21
243	243	2
82	120	2
75	88	4
97	97	6
168	168	1
17	21	3
70	71	2
20	21	6
117	118	2
173	217	1
50	50	1
34	37	1
101	102	1
195	195	7
184	186	2
54	54	11
47	47	15
59	59	10
129	129	1
36	37	4
39	39	10
12	21	1
52	53	9
187	187	9
1	1	2
143	143	12
8	24	6
116	117	7
139	140	5
20	83	4
32	185	1
128	128	9
180	180	4
138	138	6
242	242	7
96	96	10
147	147	1
64	65	9
191	192	1
43	45	3
139	163	1
59	60	7
228	231	3
148	149	2
200	212	1
1	7	2
221	222	1
163	163	2
65	67	2
160	160	6
151	158	2
204	204	16
39	40	3
13	14	4
75	75	9
51	52	5
76	76	7
126	126	5
80	84	2
209	209	5
5	7	4
203	208	2
76	79	3
2	2	13
40	51	2
224	225	2
135	138	4
124	125	7
230	230	3
126	127	3
165	232	2
31	31	5
29	186	2
122	122	3
28	28	17
54	83	4
111	190	3
7	7	12
20	62	2
235	235	2
66	68	4
76	83	2
143	173	3
82	82	6
11	16	4
108	131	3
83	83	2
85	85	9
190	190	7
102	106	2
217	218	2
0	1	4
24	25	2
161	161	4
5	5	11
145	145	8
182	217	5
81	81	10
210	229	5
7	8	2
49	83	1
115	119	3
167	167	6
26	27	5
207	207	4
84	84	7
17	18	6
223	223	5
225	226	2
134	134	6
181	182	4
157	157	7
194	194	1
130	130	7
58	69	2
2	7	2
14	14	3
3	4	3
219	220	3
32	32	6
34	35	5
169	170	4
86	86	8
11	12	2
140	140	7
141	169	2
12	81	4
103	103	4
34	36	2
56	56	10
170	170	12
19	20	3
181	181	1
137	138	3
142	166	2
22	23	2
106	106	8
19	31	3
49	49	6
158	158	4
26	26	6
234	234	8
136	136	5
60	61	2
155	155	2
88	89	1
18	19	3
48	49	4
217	217	3
182	182	4
98	191	5
218	219	3
122	123	2
132	132	6
25	26	6
42	42	17
25	38	1
8	75	1
153	154	2
180	188	5
60	60	5
107	124	1
43	111	5
191	191	8
71	73	2
175	175	3
83	85	3
79	80	3
203	203	8
144	172	2
194	197	1
174	175	8
180	209	2
40	40	7
183	212	1
147	148	2
24	47	2
12	12	5
157	158	7
48	51	1
77	77	3
224	227	3
98	100	3
27	28	7
81	82	2
36	36	7
211	212	3
1	3	2
54	55	2
3	21	3
42	53	1
139	139	8
178	191	2
12	13	4
73	83	3
21	23	2
62	62	10
172	173	1
199	199	8
241	241	5
165	165	8
196	196	3
112	113	4
65	66	3
143	152	2
202	203	2
62	63	2
78	78	3
32	74	2
174	174	2
56	57	2
4	4	5
188	188	3
72	72	6
3	3	7
18	31	5
43	43	19
41	158	2
240	240	11
162	162	2
152	152	8
102	103	3
198	198	3
37	42	2
154	155	3
127	127	3
73	97	1
80	83	5
214	214	4
164	165	4
63	105	1
217	232	1
165	167	1
30	42	2
235	239	2
31	32	2
204	205	5
67	67	8
139	141	1
16	79	2
222	222	8
45	45	6
35	35	4
57	57	3
191	197	1
20	36	1
148	166	2
18	18	3
6	8	2
5	115	1
66	67	4
180	217	2
76	77	3
237	237	4
141	141	4
192	192	5
211	211	7
125	125	1
166	166	1
43	44	1
46	47	3
29	30	4
238	238	2
26	43	1
152	153	5
172	190	2
81	84	5
176	194	1
15	16	3
217	226	2
138	142	2
88	88	12
140	141	1
5	116	3
188	199	1
160	165	4
50	59	1
16	17	4
61	62	4
97	98	1
170	175	1
201	202	2
209	230	2
142	143	5
16	16	4
45	197	2
167	169	6
124	127	5
37	140	1
193	194	1
37	224	2
176	202	3
58	61	5
32	53	1
81	85	4
33	40	6
164	164	6
177	204	2
20	42	1
118	127	1
114	114	5
3	6	2
26	28	1
183	184	1
32	33	2
193	195	1
170	171	8
58	67	7
128	133	4
13	82	1
8	74	3
110	135	1
146	148	2
49	60	3
52	52	4
117	117	4
74	82	1
52	67	2
141	167	2
156	156	5
173	201	1
102	102	11
182	201	1
202	204	3
232	242	2
100	107	1
121	121	8
167	168	4
79	79	2
98	98	2
152	197	3
170	190	1
146	146	6
217	219	1
95	96	1
70	138	1
9	27	1
10	82	1
156	236	1
50	103	3
162	163	1
141	170	1
123	123	2
4	84	3
172	201	2
153	156	2
76	82	2
36	48	2
179	181	2
12	18	4
163	167	2
39	43	4
97	156	1
139	143	3
218	218	1
189	190	3
11	61	1
215	215	1
11	18	1
98	123	1
72	74	2
216	219	2
226	227	2
71	71	4
102	104	3
40	42	5
8	8	6
227	232	2
107	108	2
37	54	1
19	29	1
213	216	2
3	7	2
155	157	1
108	126	1
4	7	1
203	211	1
233	234	2
42	54	1
11	13	3
1	8	1
55	60	2
186	199	1
73	96	1
68	68	2
179	200	3
9	53	1
178	201	1
205	205	1
146	147	3
141	198	1
52	103	1
80	81	1
47	61	1
100	102	3
76	105	1
17	79	1
95	95	2
231	232	3
190	191	5
122	128	2
30	43	1
176	176	4
10	25	3
200	215	1
105	107	1
27	236	1
58	62	1
123	126	1
141	143	2
38	160	1
5	6	1
111	154	1
210	228	6
81	120	1
91	91	2
146	154	2
241	242	1
192	196	1
165	189	1
19	30	1
198	221	2
101	208	2
5	114	2
127	128	1
210	216	1
77	79	1
14	16	1
58	68	1
230	231	1
38	161	1
27	177	3
4	14	1
200	213	1
159	160	1
173	174	2
17	17	3
121	134	2
219	226	1
4	83	1
49	50	1
193	193	1
239	239	3
175	194	1
82	83	3
55	70	1
144	144	1
48	52	1
119	131	2
36	41	2
170	184	3
113	151	2
6	16	1
36	49	3
9	10	2
49	52	1
63	64	4
71	72	1
6	22	1
206	206	2
183	186	1
222	223	1
207	221	2
192	194	1
179	222	1
30	32	2
5	83	1
221	221	1
223	224	1
143	147	1
165	166	1
106	215	1
45	47	1
63	63	4
101	109	1
184	185	1
36	42	1
209	222	1
214	215	1
197	203	1
17	20	1
164	170	1
109	136	1
22	22	2
199	200	1
78	117	1
41	42	2
212	214	1
7	9	2
78	121	1
38	44	1
180	212	1
147	149	1
27	183	1
73	74	2
101	125	2
90	92	1
1	4	1
195	196	3
56	58	1
32	40	1
227	229	2
148	168	1
38	159	2
132	134	1
194	196	1
171	172	2
26	37	1
204	211	1
186	186	1
37	53	1
145	147	3
178	207	1
190	197	2
53	54	1
42	43	1
161	162	1
213	215	1
128	130	1
108	129	2
201	220	1
3	9	1
68	69	2
75	79	1
56	85	1
42	160	1
80	102	1
138	139	1
86	87	1
3	24	1
117	124	1
24	28	1
