14	14	3
50	53	4
117	117	9
123	124	4
36	36	6
11	11	4
17	17	5
24	27	4
104	107	1
48	48	11
68	68	12
60	60	8
10	10	7
111	112	8
59	59	8
50	51	5
0	12	1
119	120	9
81	81	7
74	75	5
28	28	3
74	74	6
126	126	22
87	94	2
103	103	12
47	47	3
13	13	3
70	70	3
127	127	6
74	80	1
82	82	10
135	135	6
54	54	6
114	115	6
124	124	4
63	63	12
23	23	2
62	63	5
29	29	10
84	84	3
93	94	3
82	92	6
33	33	7
41	59	2
143	144	4
90	101	3
100	100	13
31	31	18
61	61	9
79	81	2
125	125	7
131	132	4
81	95	4
91	91	8
111	111	3
93	93	11
95	117	2
115	119	1
55	55	12
25	25	17
140	140	8
142	142	7
4	5	6
79	80	5
107	107	7
27	27	6
123	123	9
99	107	2
30	30	13
63	69	1
42	42	2
118	118	6
144	144	2
132	142	1
65	66	8
10	74	3
94	94	3
76	97	2
38	38	11
8	8	13
49	55	2
136	136	12
98	98	6
17	19	3
140	141	7
18	18	13
141	142	7
105	105	5
90	90	4
99	100	9
143	143	8
134	135	5
60	66	5
20	20	10
102	112	6
133	134	7
130	130	13
9	23	4
117	118	4
128	130	4
38	39	6
102	103	5
110	110	11
34	35	6
32	33	2
112	113	3
133	133	13
136	138	3
113	116	3
95	95	3
19	20	3
73	73	6
76	79	1
76	76	5
96	98	1
18	22	3
84	86	2
3	3	4
39	40	4
78	80	1
25	26	7
19	19	9
76	77	5
133	135	6
53	53	5
22	22	15
9	22	1
66	67	4
67	67	17
134	134	5
70	78	3
22	26	2
83	83	8
57	57	1
107	108	11
95	96	8
41	41	9
16	16	3
39	39	5
118	119	20
79	79	2
114	118	1
128	128	18
38	40	1
40	41	3
108	110	3
109	109	8
104	104	8
144	145	7
98	99	8
37	37	11
108	109	5
2	6	2
129	129	11
76	78	4
131	131	21
0	5	3
65	65	2
21	144	2
144	146	1
80	81	5
141	141	4
142	143	2
13	16	1
1	3	2
69	70	2
101	101	5
56	68	5
26	26	5
32	36	1
96	96	7
88	89	4
0	0	3
80	80	11
137	137	3
36	38	2
31	42	2
59	60	3
62	69	1
115	115	2
9	14	2
137	138	2
125	126	2
42	61	3
74	104	5
100	102	2
82	104	2
96	97	3
66	66	1
15	15	1
51	52	3
99	99	7
16	17	5
12	13	3
64	64	4
122	122	4
109	110	3
6	26	1
90	91	3
138	138	5
18	19	6
21	21	4
24	24	5
19	21	3
40	53	1
90	100	7
22	25	2
92	93	1
81	82	2
56	57	1
25	124	2
89	89	4
106	110	3
71	72	3
95	111	3
123	128	1
31	34	3
69	115	1
88	88	3
2	2	1
82	85	1
146	146	7
9	9	6
66	68	3
145	145	3
92	94	3
62	74	1
58	58	2
85	95	2
16	30	2
14	15	4
73	74	7
48	49	2
108	108	5
58	59	2
87	87	6
64	65	1
138	139	2
113	113	5
87	89	2
122	123	1
139	139	5
49	49	3
40	40	8
72	72	1
78	78	3
5	6	3
79	95	1
102	102	7
75	76	3
55	56	1
77	77	4
9	10	3
120	120	8
78	79	1
47	48	1
31	32	2
121	121	2
83	96	5
123	130	1
73	75	3
41	63	1
1	1	8
60	61	1
106	113	3
76	81	3
110	114	1
83	84	4
73	104	1
48	59	1
74	99	3
34	52	1
17	18	2
87	88	1
65	68	1
72	75	5
135	140	1
80	84	1
4	16	4
27	28	1
87	90	3
15	16	2
24	133	1
43	43	3
124	125	4
75	79	1
51	51	1
116	118	2
89	90	4
89	97	2
134	136	2
24	26	2
27	32	1
11	65	2
79	97	4
105	110	4
71	73	2
23	24	3
49	58	1
56	56	1
122	124	4
3	4	1
53	54	1
88	92	1
34	34	3
100	104	1
18	20	4
82	86	1
62	62	7
93	133	1
58	61	2
116	117	4
131	133	2
116	141	2
128	129	2
120	121	4
119	134	1
130	131	1
85	105	1
16	35	2
107	120	1
120	122	1
50	52	2
119	119	1
26	30	2
71	71	2
35	36	2
121	122	3
78	138	1
2	36	2
5	29	3
24	124	1
132	132	3
102	104	2
58	66	2
21	29	2
119	131	1
29	61	3
90	94	3
10	66	1
134	140	1
132	133	1
101	115	1
38	42	2
69	69	2
37	38	1
136	139	1
75	75	1
68	124	1
8	66	1
49	57	2
114	114	1
73	77	1
49	52	1
55	68	1
63	72	1
67	68	3
92	96	1
92	92	2
50	50	1
135	137	1
4	4	1
67	69	1
119	121	2
84	85	2
77	79	1
53	55	1
129	130	1
32	42	1
100	101	1
82	84	1
75	81	1
5	34	2
93	95	1
77	100	1
57	88	1
126	141	1
129	131	2
5	5	1
0	2	1
38	43	1
14	16	1
14	29	1
10	12	1
90	115	1
80	96	1
99	103	1
95	110	1
109	111	1
