60	60	10
50	51	6
17	17	2
29	30	2
15	15	4
1	1	12
85	85	8
23	23	7
10	10	6
49	49	11
21	22	3
65	66	1
28	28	5
58	61	1
3	3	3
57	57	15
9	9	5
29	29	9
53	53	6
60	61	7
33	33	3
5	25	1
82	82	11
6	7	4
49	63	6
49	59	1
53	54	11
21	21	8
25	27	3
11	20	2
63	63	13
68	69	5
30	30	11
64	64	9
27	27	9
72	72	7
79	80	2
72	73	8
54	54	9
3	4	1
48	48	5
18	18	2
52	52	4
67	68	8
7	7	7
59	59	11
28	69	2
61	61	11
69	69	12
13	13	12
8	8	7
78	79	3
5	14	3
9	11	1
77	80	2
12	12	10
89	89	11
12	13	6
74	81	2
11	11	8
75	77	3
57	83	3
15	30	5
20	26	3
84	84	12
50	61	1
72	74	1
88	88	9
20	20	5
56	56	11
2	2	9
8	59	1
51	59	3
26	26	5
63	79	1
19	19	9
9	60	3
80	80	2
71	71	12
9	10	5
27	57	2
69	70	1
65	80	3
48	61	4
64	76	4
9	26	1
10	24	1
70	75	2
79	79	1
47	47	7
14	14	3
7	8	4
85	86	3
73	73	16
64	65	2
66	67	1
75	75	8
59	60	6
30	31	1
74	74	3
6	8	3
73	74	1
63	64	3
52	53	3
54	55	4
77	79	1
51	54	4
76	77	4
46	46	7
23	24	2
70	71	2
4	4	6
86	86	14
81	83	8
66	66	6
51	53	2
75	81	2
73	77	1
70	70	4
58	58	3
62	64	2
87	88	7
28	30	4
68	68	5
16	17	7
22	22	8
50	54	3
9	59	1
13	20	1
59	82	5
56	57	5
67	71	4
62	62	11
16	29	1
31	31	5
17	31	1
51	51	8
81	82	3
65	65	4
9	19	1
82	83	3
5	6	1
16	16	1
67	67	6
19	25	2
6	6	4
57	58	1
71	73	2
12	15	3
53	55	3
49	61	5
49	50	4
87	87	3
74	75	4
50	50	5
54	80	3
83	83	7
76	76	3
19	27	4
6	58	1
1	2	1
77	77	2
14	24	1
25	25	7
60	62	1
72	77	1
26	47	1
85	87	1
66	71	1
10	11	1
19	22	2
3	88	2
65	78	2
5	47	1
20	22	1
10	53	3
5	5	1
48	56	1
75	76	2
83	84	1
5	62	3
4	22	1
6	25	1
67	69	2
52	62	2
0	1	1
8	9	2
4	29	2
67	70	3
24	24	4
4	21	2
27	28	2
78	78	1
15	24	2
0	0	3
71	72	3
11	14	1
20	21	3
34	35	1
24	25	1
29	85	2
11	56	2
80	81	1
54	79	2
19	20	2
55	65	1
1	3	1
58	60	1
2	3	1
55	61	2
13	48	1
55	56	2
22	24	1
48	82	2
63	66	3
81	81	5
50	52	2
1	22	1
18	19	1
76	78	1
17	46	1
49	56	1
80	84	1
12	25	1
24	46	1
22	23	1
49	58	2
15	17	3
24	48	1
8	25	1
50	53	1
34	50	1
26	27	1
11	58	1
