67	74	2
101	101	10
68	68	16
25	27	2
62	62	20
42	44	7
69	69	27
45	45	7
52	52	18
30	30	6
35	35	19
100	100	14
29	29	7
72	72	15
92	93	2
93	94	2
24	24	14
95	95	10
104	104	13
50	50	13
76	76	19
93	101	2
86	87	3
56	58	3
51	51	16
53	61	2
55	55	16
80	81	2
32	32	7
95	102	3
43	43	8
76	79	2
46	46	6
48	48	8
26	26	7
60	65	2
62	63	6
97	98	5
79	91	3
61	62	7
23	23	29
51	53	2
83	85	1
68	69	7
61	70	2
102	102	13
74	74	15
65	75	2
77	77	16
44	59	1
54	54	10
38	39	8
77	78	2
61	67	2
31	31	12
97	97	7
85	85	15
78	78	15
69	71	3
83	84	6
94	94	7
73	74	2
95	96	4
33	34	7
71	72	9
58	58	4
44	45	3
83	86	1
75	75	15
87	87	19
86	90	2
89	90	4
40	43	2
70	71	6
76	93	1
84	84	11
59	61	7
36	37	5
42	49	4
95	98	5
83	83	10
44	58	2
78	82	2
64	69	1
88	88	4
81	81	5
66	67	8
36	38	1
66	66	10
44	44	3
52	54	6
92	92	4
61	61	4
102	107	3
99	100	4
67	67	7
94	97	3
47	47	5
57	57	8
40	40	7
42	59	1
90	90	10
100	101	9
82	88	4
20	20	9
60	61	1
103	103	13
101	102	8
68	75	2
88	93	1
85	93	2
86	89	2
46	47	10
58	59	4
38	50	3
65	65	8
79	80	2
57	58	7
60	72	6
75	100	2
25	25	4
53	54	5
22	22	8
80	80	17
59	59	15
96	99	1
63	64	1
92	94	1
96	96	11
38	38	9
60	60	16
39	39	9
46	101	2
89	89	15
25	42	1
106	107	4
84	91	1
36	36	7
56	88	2
53	58	3
98	98	6
76	78	1
64	64	17
104	105	2
37	37	8
28	29	3
39	99	2
100	104	1
63	63	8
60	64	1
44	67	2
55	62	1
82	83	5
21	21	10
39	103	1
27	27	4
68	70	1
96	97	7
102	103	2
98	99	6
28	28	7
31	35	2
35	38	1
82	82	7
33	33	7
93	93	4
99	99	6
59	70	3
71	71	11
56	56	8
105	105	6
34	50	4
87	88	4
42	42	5
29	30	4
81	96	1
76	82	4
70	70	5
53	55	1
60	77	1
66	72	1
107	107	2
35	36	4
41	60	2
64	84	1
71	73	2
27	28	4
85	86	1
50	51	4
105	106	2
74	103	3
39	49	2
40	42	2
39	45	2
79	79	7
41	49	2
59	63	3
67	87	3
49	49	8
90	91	1
21	22	5
45	66	1
60	102	4
64	75	1
41	50	5
64	65	5
41	43	2
41	41	5
26	32	1
39	41	1
23	32	1
42	43	2
78	81	4
95	97	2
80	88	2
19	25	1
106	106	4
78	79	1
53	53	8
84	86	1
91	101	3
52	53	5
70	73	2
59	60	6
56	57	1
91	91	6
78	92	1
38	49	2
34	34	4
97	99	2
65	81	1
71	76	1
103	105	1
35	52	3
54	55	2
100	102	5
50	70	1
86	86	1
46	93	3
45	47	2
42	71	1
66	86	1
41	47	1
41	45	1
62	64	1
73	73	3
32	33	1
33	50	1
72	73	1
100	103	2
49	59	1
55	61	2
36	41	2
77	87	1
69	70	2
82	84	2
26	48	1
46	48	1
41	42	1
27	29	1
82	85	2
87	91	1
84	90	1
44	56	1
65	66	2
56	77	1
23	24	1
77	92	2
44	66	3
92	98	1
47	62	1
30	31	1
26	28	1
76	77	1
37	38	1
91	92	1
75	105	1
58	84	1
80	82	1
46	94	1
37	39	1
63	65	2
24	28	1
26	41	1
38	69	1
96	102	1
41	48	1
42	48	1
20	23	1
66	82	2
65	67	1
