85	92	4
63	103	1
30	117	1
18	64	1
79	79	10
124	125	1
63	63	2
59	59	9
129	133	1
115	115	4
16	64	1
75	75	1
94	94	2
55	91	1
131	131	6
22	22	2
18	18	1
46	46	4
134	134	1
86	86	4
70	74	2
81	90	3
127	128	1
20	124	1
6	6	8
87	87	7
36	36	2
17	129	2
42	42	4
47	48	1
91	91	3
113	113	4
33	33	5
73	73	1
97	98	3
19	19	2
96	99	2
13	17	2
118	119	5
107	108	1
129	129	1
23	23	2
83	83	2
39	41	2
125	125	4
85	85	3
17	64	2
90	132	4
21	21	4
72	72	6
81	95	1
130	130	2
79	80	5
76	76	1
66	66	5
41	42	5
27	27	1
98	99	5
107	131	5
126	127	3
67	67	4
7	85	1
91	101	1
41	41	2
26	26	4
132	133	3
70	70	5
11	81	1
8	84	3
105	107	1
8	35	2
130	131	4
56	78	1
106	107	3
86	87	1
100	100	2
37	94	1
119	119	2
109	110	1
127	129	1
96	98	2
109	109	4
29	29	3
93	94	3
56	56	4
7	20	1
88	93	1
34	111	2
30	30	2
96	96	2
27	90	1
95	96	1
63	106	1
89	98	2
9	100	1
95	95	1
7	84	1
70	102	2
45	75	1
15	16	1
94	95	2
21	22	1
32	102	1
73	74	4
124	124	2
5	5	8
39	43	1
90	90	3
47	47	1
20	21	1
108	109	1
31	31	1
58	58	1
6	81	1
71	71	4
88	94	2
84	84	4
10	11	2
11	11	3
13	14	1
68	69	2
131	132	1
65	65	3
122	122	2
98	98	1
121	121	5
15	15	4
26	85	3
77	78	1
120	121	1
25	26	1
94	99	2
114	114	1
104	106	2
50	92	2
89	96	2
40	102	1
45	45	2
26	115	1
45	94	1
44	44	2
101	132	4
113	114	1
69	73	1
60	60	1
46	61	3
78	101	1
32	32	1
34	34	2
17	17	1
29	115	1
48	48	1
101	106	1
116	116	2
120	120	1
56	99	1
31	71	2
112	112	1
112	113	2
5	133	1
93	93	1
49	88	2
29	47	2
31	76	1
101	101	2
58	82	1
55	83	1
56	57	2
37	100	1
81	82	1
36	37	1
10	10	4
116	117	1
7	114	1
57	57	2
102	103	1
49	93	1
48	49	1
69	69	1
11	59	1
15	31	1
10	130	2
64	64	1
100	106	3
97	97	2
118	118	1
67	68	1
12	111	1
68	70	2
104	105	2
61	61	2
87	95	1
28	28	1
90	96	1
26	27	3
96	97	1
63	64	1
37	38	1
85	86	1
25	25	1
13	94	1
8	8	1
107	130	1
70	78	1
