62	62	8
118	119	7
96	148	7
41	141	3
13	13	12
53	53	12
115	115	2
134	134	8
30	31	4
95	99	5
113	113	1
145	145	8
93	105	4
32	77	3
98	121	3
76	76	3
83	83	5
110	110	12
121	126	1
98	122	3
18	18	11
16	16	7
139	141	1
32	33	4
22	26	2
80	81	4
69	69	6
79	87	9
141	141	4
51	51	7
140	140	7
82	82	7
4	17	2
48	48	9
107	108	2
67	91	1
94	94	9
138	139	3
6	7	6
6	6	6
69	72	8
69	71	4
35	36	8
34	34	7
99	108	1
95	97	6
43	46	1
24	36	3
121	121	2
31	31	5
85	127	1
93	93	11
55	71	2
78	80	7
86	86	7
103	104	6
122	122	8
32	32	14
7	7	8
141	143	4
100	111	1
45	45	11
4	5	3
19	20	5
49	49	4
23	23	5
74	74	2
56	70	1
99	99	5
39	63	1
15	15	3
98	98	3
12	13	2
72	73	9
117	118	3
19	19	2
104	108	5
148	149	4
91	91	1
55	56	5
48	49	2
75	75	6
77	102	2
79	85	3
135	136	1
28	29	4
65	65	4
85	88	3
88	93	1
63	114	2
12	12	11
84	84	5
35	47	5
70	70	10
9	9	6
147	147	3
47	47	6
47	56	3
71	71	1
150	150	8
104	104	2
49	51	4
27	27	1
38	39	4
9	10	1
26	27	8
96	96	10
25	25	4
20	116	1
20	26	1
75	78	2
98	99	6
154	154	2
119	121	4
40	54	2
3	3	1
146	146	2
77	78	3
76	77	3
83	131	2
34	35	7
9	24	2
93	94	4
88	94	5
129	149	1
22	101	2
11	11	7
93	104	2
123	131	5
105	108	1
100	100	2
109	109	4
64	135	2
36	36	1
42	43	3
38	38	2
46	46	1
39	53	1
5	5	9
57	58	4
17	17	10
8	8	4
65	67	4
82	126	2
135	135	3
67	108	2
102	102	4
66	66	4
113	114	5
20	22	2
39	43	3
42	42	5
56	58	2
95	96	2
147	148	2
53	54	4
103	105	1
76	136	2
151	151	4
47	48	2
77	136	3
40	73	4
46	47	4
17	54	2
139	146	5
52	57	2
13	19	3
25	29	3
14	14	11
143	143	1
45	46	1
92	92	5
125	126	4
110	112	2
112	117	3
94	99	2
104	105	1
33	34	2
5	28	2
120	121	3
17	21	6
66	83	1
122	127	1
29	64	4
29	33	4
145	147	3
68	68	3
141	150	4
133	136	2
18	19	2
44	44	2
23	24	2
8	9	5
11	12	6
29	29	4
24	25	1
50	52	1
55	55	5
94	104	1
92	93	3
26	26	7
77	77	2
66	76	3
17	18	7
73	73	1
67	98	2
128	128	1
145	146	3
50	50	2
20	20	9
86	95	4
141	144	1
22	22	2
108	108	2
138	142	2
74	76	5
129	150	1
43	43	3
122	123	4
8	10	3
68	99	2
142	142	6
4	29	2
132	134	3
14	16	6
40	40	2
54	70	3
49	50	2
7	10	3
23	25	2
127	130	1
110	116	1
84	137	2
33	33	3
115	116	1
84	86	1
34	36	1
11	14	3
131	131	5
121	122	1
53	56	1
24	31	4
123	133	1
100	117	2
105	110	2
69	73	4
24	37	4
62	78	3
114	114	3
64	64	4
76	135	2
67	68	1
50	74	2
67	67	2
12	15	3
106	106	6
90	92	2
86	87	1
142	143	2
22	23	9
127	137	1
87	95	1
55	153	1
52	54	1
119	119	3
85	85	3
78	85	2
137	137	1
41	41	3
144	144	5
6	28	1
85	86	4
141	147	1
71	73	2
103	108	1
118	118	2
78	82	1
133	134	1
4	31	3
126	126	3
10	10	6
129	153	4
75	136	3
99	113	3
105	105	3
56	65	1
21	22	2
123	125	1
83	84	1
117	123	1
39	39	2
26	28	1
112	112	1
57	57	2
80	80	2
153	153	4
69	70	1
137	138	1
136	136	1
52	52	3
10	11	2
93	95	2
20	27	1
149	150	1
68	69	1
79	79	4
28	28	2
139	147	1
90	91	1
75	77	1
107	107	2
73	98	1
4	4	4
149	149	2
31	123	1
43	44	1
4	18	1
97	97	1
42	62	1
24	24	2
138	138	2
47	118	4
30	79	3
133	133	2
143	147	2
150	152	3
78	134	1
41	42	2
152	152	2
89	89	2
123	123	1
54	54	3
56	56	2
102	117	1
112	113	1
56	63	1
127	127	2
36	109	1
119	125	1
35	37	1
132	133	1
63	66	1
127	128	1
97	122	2
31	117	1
116	118	2
117	117	3
30	30	2
84	85	2
148	148	2
51	55	1
79	80	1
97	153	2
53	64	1
31	32	1
108	111	1
139	140	1
53	62	1
83	93	1
30	32	1
136	137	1
95	98	1
67	81	1
22	24	1
81	81	4
65	66	1
101	114	1
4	10	1
65	75	1
6	118	1
46	48	1
62	64	1
62	63	1
38	45	1
112	130	1
87	88	1
124	124	1
94	96	1
109	111	1
15	16	1
