183	183	8
139	139	2
110	110	10
90	90	8
142	142	7
35	35	3
67	67	3
56	57	4
30	63	5
56	67	1
18	18	10
182	182	1
62	62	7
87	87	13
75	75	2
109	134	2
12	12	3
23	24	8
89	89	16
9	11	3
179	179	1
93	93	3
140	140	2
147	149	2
121	121	10
58	101	1
43	43	9
13	14	4
39	42	2
137	137	10
123	126	5
15	16	5
189	189	6
143	143	6
23	52	13
138	138	4
79	79	3
88	88	7
97	97	6
79	95	1
127	127	3
20	20	1
111	111	6
144	153	3
131	131	4
85	85	12
166	166	8
81	81	5
144	145	3
11	11	10
65	65	6
165	165	5
176	176	5
45	45	2
126	126	3
16	16	10
140	142	1
93	94	9
37	37	4
29	29	5
0	0	4
75	81	2
24	25	1
24	36	1
126	127	8
55	56	4
148	149	4
177	177	2
20	22	3
141	141	9
11	142	4
154	165	3
108	146	2
60	60	6
74	100	2
88	89	7
19	20	6
187	188	4
38	38	11
1	1	5
107	107	4
165	168	2
34	34	5
25	25	5
72	101	2
129	130	1
125	126	6
88	103	3
22	94	1
114	115	5
22	181	3
87	88	3
36	36	5
159	160	8
91	93	4
109	109	5
63	63	6
60	61	4
77	78	5
150	161	8
2	2	6
122	122	5
164	164	8
170	170	8
184	184	6
155	184	3
150	151	3
44	44	2
41	41	14
40	44	1
140	141	5
1	2	4
128	134	1
85	96	1
180	180	7
115	119	2
24	24	9
133	136	1
34	35	8
96	98	2
155	155	4
144	144	2
1	135	1
64	66	2
178	178	11
164	167	2
97	98	1
74	74	6
26	27	3
166	167	3
96	96	5
163	164	6
119	122	1
163	163	1
6	6	3
112	112	2
175	175	5
186	186	9
134	137	1
113	113	10
146	147	2
22	183	2
39	39	3
130	130	3
136	136	3
171	171	4
4	4	3
56	56	3
104	104	4
83	83	5
152	154	4
25	38	1
127	131	1
116	116	4
59	59	10
1	6	3
82	82	5
14	15	4
25	32	4
110	163	1
58	58	2
7	8	2
114	114	7
175	176	3
46	46	3
169	169	6
92	92	3
176	187	3
8	8	2
52	53	1
62	95	4
75	77	4
65	71	2
154	154	3
23	23	5
94	94	2
188	188	5
78	95	1
46	164	1
116	166	2
158	158	1
109	168	1
1	3	2
76	76	1
148	150	4
131	132	3
152	173	3
24	88	1
25	36	2
107	190	2
48	48	5
162	162	3
141	163	2
171	175	2
58	59	3
7	7	4
40	41	3
31	36	1
54	61	1
77	77	2
40	40	7
151	151	3
81	99	3
20	78	2
32	32	7
53	53	2
46	181	2
116	135	1
54	54	3
176	177	2
64	65	1
27	27	2
19	21	2
164	165	1
121	164	2
68	77	6
17	17	5
179	186	2
102	103	2
101	101	2
84	84	3
105	127	3
120	120	1
115	120	2
57	64	1
147	147	9
178	179	5
92	95	1
168	168	3
71	71	2
155	157	2
15	15	3
47	47	5
119	119	2
30	31	2
128	128	1
80	80	1
147	148	1
61	65	1
55	55	3
149	178	2
170	171	2
156	156	3
150	163	1
64	64	4
122	123	2
59	60	4
16	22	1
65	67	1
150	150	1
27	28	4
111	112	4
190	190	10
57	57	2
133	137	1
30	38	1
14	14	2
89	90	2
101	103	3
133	133	2
149	150	4
172	172	3
60	166	1
5	9	1
134	134	2
8	90	1
125	125	2
172	173	1
148	148	2
19	78	1
188	189	2
66	70	3
135	136	2
71	102	1
23	53	2
157	157	1
128	137	2
16	183	3
129	129	2
3	3	2
70	168	1
160	160	1
146	146	1
123	148	1
106	106	4
154	162	3
145	145	1
120	149	1
43	44	2
180	182	2
33	34	1
5	5	2
24	42	1
88	123	1
75	76	1
99	100	2
75	84	1
71	168	2
22	22	2
103	103	1
9	10	1
103	104	1
75	83	1
45	46	1
154	155	1
24	37	1
124	125	2
70	151	1
78	78	1
141	143	1
166	169	1
63	71	2
167	167	1
185	185	1
16	21	1
181	182	1
179	180	1
113	114	1
15	23	1
77	117	1
96	97	2
21	21	2
104	179	1
103	178	2
123	123	1
157	158	1
145	153	2
29	35	2
72	100	2
154	156	2
55	188	1
27	30	1
33	33	2
158	174	1
12	13	1
173	173	1
21	22	1
25	79	1
108	108	1
36	37	1
66	66	1
