102	102	3
33	34	5
86	86	8
28	31	3
70	70	9
82	87	6
17	78	5
120	121	3
133	134	2
106	106	13
43	43	9
87	87	3
14	17	2
129	129	11
82	84	3
86	97	2
154	154	6
10	10	7
108	108	2
17	17	7
16	32	5
30	31	2
107	114	2
4	5	4
124	124	2
14	14	7
75	77	5
53	54	3
73	73	4
88	95	2
93	93	11
73	77	1
92	92	3
47	47	4
17	19	5
115	115	5
113	116	9
21	23	9
98	98	4
56	56	9
32	32	7
135	135	13
112	112	4
82	83	4
16	17	5
17	77	3
145	148	1
104	105	6
141	141	6
97	111	3
30	30	12
6	10	1
124	127	3
100	104	1
68	68	4
13	13	6
62	63	1
43	45	3
110	110	9
23	24	3
7	10	4
85	85	11
44	44	13
103	103	4
42	43	5
108	109	4
72	77	2
56	65	2
153	153	7
80	82	2
125	135	2
12	14	8
87	92	3
24	24	12
123	135	5
5	5	1
69	69	9
33	35	1
81	81	4
95	112	1
138	138	7
132	132	7
38	38	11
79	79	6
18	19	5
107	107	7
103	104	5
128	136	2
130	132	3
139	139	2
29	29	4
43	44	6
40	40	14
134	134	5
66	66	3
111	111	16
127	127	5
15	15	10
73	74	1
144	146	3
63	65	6
36	37	7
136	137	6
13	17	6
91	91	2
36	36	7
125	141	1
143	143	5
138	147	5
52	54	5
95	95	5
39	39	17
43	48	4
65	65	10
5	6	4
21	21	5
130	131	3
96	96	11
97	101	4
44	54	4
129	136	4
49	49	10
67	71	3
53	53	14
49	51	1
100	100	9
14	81	2
23	23	8
35	36	3
8	11	3
37	38	5
54	63	1
72	72	4
6	7	1
27	35	3
48	48	12
80	84	3
37	37	4
79	80	7
75	85	3
95	98	3
95	101	2
26	27	3
77	78	2
127	136	4
101	118	2
3	3	1
12	13	1
46	46	8
118	118	2
27	28	6
127	144	1
108	112	5
18	18	2
74	74	1
117	117	5
9	11	2
80	80	4
40	50	2
20	24	5
106	107	5
34	36	1
50	50	7
8	8	9
19	19	8
123	123	6
19	77	3
112	113	4
54	54	3
14	80	1
133	133	14
46	47	4
83	84	6
28	28	8
81	82	3
104	104	4
95	97	8
123	136	2
75	75	2
52	82	1
125	126	1
144	144	4
78	78	5
150	150	2
45	45	6
95	111	2
101	122	2
53	77	3
9	10	1
81	84	3
71	119	4
26	26	8
125	140	2
51	51	7
20	84	2
71	73	1
54	78	4
35	35	3
50	51	5
131	148	4
146	147	4
64	65	9
131	131	11
139	141	3
34	34	12
22	24	1
117	139	4
106	114	2
25	25	11
11	12	7
40	49	3
71	71	5
129	130	1
49	57	4
126	127	2
7	7	2
134	135	5
142	143	3
20	21	6
13	67	1
94	98	2
39	52	1
25	35	3
33	33	4
72	74	4
8	9	4
5	151	1
66	68	2
25	27	2
82	85	5
101	101	1
115	116	7
28	29	5
140	142	2
25	26	1
79	82	2
34	38	2
119	120	2
34	35	9
11	11	8
21	79	3
89	91	1
25	83	3
116	116	5
11	13	1
104	110	2
96	138	1
149	149	2
65	85	2
6	6	5
146	148	4
43	46	1
69	70	3
41	41	2
66	67	10
83	83	2
15	16	1
5	7	2
111	113	1
121	121	3
145	147	1
84	86	3
13	15	1
84	85	1
134	146	1
96	97	1
27	27	5
102	104	2
103	111	1
98	99	10
114	114	3
80	81	6
79	83	1
13	14	1
130	130	5
55	55	2
55	77	1
77	77	4
152	153	2
137	138	2
50	55	1
65	83	1
126	135	2
138	139	1
14	15	2
16	16	2
44	45	2
23	29	1
19	22	3
67	68	1
40	55	1
42	42	2
74	83	3
27	30	2
117	118	1
46	62	2
39	49	1
134	136	1
147	147	1
17	18	4
128	128	3
84	84	3
109	109	2
110	111	2
63	64	3
22	72	1
41	42	1
53	55	4
56	78	2
64	64	3
10	12	1
64	68	1
122	122	3
120	120	3
62	65	2
96	113	2
142	142	2
22	23	2
138	145	2
9	9	5
76	77	1
119	119	1
25	29	1
61	71	2
102	122	2
48	53	1
72	73	2
96	101	1
47	68	2
18	80	1
126	144	1
7	150	1
137	137	2
20	20	3
32	33	3
10	11	3
67	67	2
39	40	2
137	146	2
61	63	2
132	151	2
130	144	1
20	23	2
25	82	1
37	84	1
97	97	3
141	142	2
97	110	3
95	104	1
49	58	1
100	102	1
146	146	1
138	144	2
25	28	1
12	12	2
45	46	1
105	113	2
17	32	1
17	31	1
56	64	1
13	69	1
144	145	1
22	22	1
19	21	2
147	148	2
109	112	2
93	94	1
93	95	2
13	32	1
20	82	2
65	68	1
29	30	2
106	111	2
45	97	1
70	71	2
54	55	1
96	98	1
99	99	1
131	149	1
128	135	2
128	129	2
7	154	1
129	139	1
65	66	2
57	58	1
68	71	2
148	148	1
82	82	2
106	118	1
72	78	1
5	150	1
75	76	3
21	84	1
74	76	1
122	129	1
24	29	2
39	98	2
136	136	1
68	122	1
129	132	1
20	73	3
41	58	2
116	117	1
45	47	1
87	97	1
94	95	2
61	75	1
47	65	1
62	67	1
21	22	1
151	151	1
62	68	1
107	109	1
96	111	1
150	152	1
11	28	1
54	70	1
68	77	1
