24	25	7
31	34	2
60	73	5
60	60	3
12	12	7
79	89	2
55	80	5
16	18	2
23	23	2
79	81	4
52	63	1
4	16	2
73	80	5
13	13	1
69	84	2
71	78	1
67	67	3
4	4	5
59	60	2
2	26	2
7	30	5
57	58	1
9	10	2
7	20	3
72	74	4
3	3	7
3	30	1
60	72	3
24	29	1
88	88	1
3	7	1
80	80	4
61	66	2
0	2	1
2	2	3
8	11	1
62	83	1
13	22	2
4	6	3
54	54	2
50	63	1
61	68	2
79	88	2
0	11	1
63	64	6
6	7	3
17	17	2
79	80	4
21	22	3
12	13	3
1	1	3
67	69	6
49	52	2
24	26	3
1	3	2
6	6	2
26	26	2
85	87	3
56	83	2
62	64	2
80	81	1
10	14	2
83	83	3
34	34	2
55	62	2
34	72	2
81	85	2
55	84	3
20	20	2
13	15	3
46	84	2
3	12	1
84	84	7
55	57	3
19	22	2
50	50	7
82	84	2
72	86	2
76	82	2
49	55	3
27	27	2
61	73	3
81	84	3
60	61	2
0	0	4
3	17	2
84	87	1
4	5	2
83	85	2
60	67	1
5	5	1
14	14	3
58	58	3
76	89	2
51	57	3
56	59	2
1	5	1
14	47	1
66	66	1
6	8	3
4	10	1
51	51	4
9	11	2
46	49	1
2	27	2
13	17	1
58	62	1
61	65	3
81	87	3
58	59	3
54	79	2
11	25	4
74	79	3
57	62	2
15	20	1
65	65	2
10	13	2
57	57	2
50	68	2
9	9	3
81	89	1
24	24	6
69	78	3
63	73	1
10	10	5
79	87	2
1	2	2
77	82	1
50	86	3
8	9	3
75	78	1
68	68	2
30	31	2
52	52	5
86	86	2
30	68	1
65	66	2
80	83	4
1	6	2
75	75	2
10	11	2
48	56	3
29	30	1
74	74	2
71	87	1
65	84	1
57	60	1
48	57	1
47	49	1
63	72	1
74	76	1
5	7	3
13	24	1
47	47	1
48	49	4
16	17	1
60	86	1
31	31	4
22	25	1
25	27	1
65	67	2
56	70	4
54	57	2
85	86	1
73	76	2
23	25	2
21	26	2
3	24	1
60	83	2
56	56	1
6	26	1
80	85	3
87	88	2
74	75	1
72	85	1
73	74	1
72	73	2
67	68	2
51	52	1
17	21	2
76	76	1
53	55	1
8	10	2
47	53	1
59	61	1
27	35	1
47	50	1
7	14	1
0	5	1
51	58	1
2	3	2
3	6	1
89	89	1
57	85	1
19	19	2
54	56	1
52	58	1
52	57	2
14	35	1
79	82	1
27	29	2
8	8	1
65	74	2
17	18	1
14	15	1
18	19	1
30	30	1
