19	19	11
76	76	23
40	41	2
133	133	20
85	87	2
34	34	6
116	117	8
131	131	15
0	0	8
18	19	17
14	14	12
96	96	15
97	97	19
106	106	25
126	126	41
48	48	20
100	100	14
86	87	3
72	73	3
28	130	2
13	14	12
71	71	16
0	2	3
95	96	8
93	94	7
132	132	12
14	15	6
44	45	7
72	72	11
11	11	19
61	62	3
75	75	7
29	29	7
1	1	7
8	8	13
101	101	27
28	28	8
104	113	7
2	2	12
30	30	5
28	30	7
32	32	12
69	70	3
20	20	9
99	99	17
46	95	3
69	69	18
26	27	10
61	88	2
46	46	17
82	83	1
86	86	14
76	78	2
19	20	2
117	117	26
111	111	12
21	25	1
43	44	8
88	88	11
70	72	2
121	122	5
38	38	7
18	21	4
42	42	20
51	52	8
69	125	2
23	24	10
77	78	7
122	122	12
128	128	7
27	27	23
129	129	8
43	43	10
85	85	12
102	102	14
31	31	1
27	28	6
2	107	4
74	75	2
7	101	5
79	84	2
70	70	16
70	71	5
91	92	7
128	129	1
41	42	6
0	109	4
41	41	13
19	46	1
80	90	14
84	84	6
2	106	7
125	130	2
56	56	21
102	103	7
45	45	30
17	18	1
52	53	9
94	96	4
75	92	4
114	115	6
73	73	4
39	39	11
0	6	4
104	104	18
50	50	24
25	25	22
51	51	23
44	77	1
53	53	16
90	90	15
29	39	1
77	96	2
69	71	2
65	65	18
67	74	4
4	4	12
125	125	15
15	15	17
51	53	7
53	56	1
4	5	11
122	123	2
104	105	5
117	119	2
130	132	4
63	63	9
63	64	3
23	23	7
70	91	2
111	112	7
124	124	12
20	26	3
60	86	6
95	116	2
113	124	2
88	91	5
92	92	9
120	120	13
109	111	5
112	112	16
94	117	1
30	54	1
0	3	1
77	79	7
5	99	2
85	86	10
110	111	9
121	121	7
44	44	15
79	80	11
18	20	5
94	94	23
117	118	3
50	51	7
4	14	3
99	100	6
114	119	3
78	79	3
1	3	3
79	79	22
81	86	2
33	33	17
113	113	15
45	46	10
87	89	4
12	109	2
110	112	7
114	114	10
114	117	4
68	69	3
83	83	5
126	127	6
123	123	21
15	16	3
80	80	8
74	91	4
101	103	4
19	21	10
25	26	10
126	128	7
72	74	1
6	7	3
120	122	1
113	114	10
95	95	5
105	105	13
97	98	6
105	106	9
58	87	1
52	52	28
50	57	3
109	109	9
53	57	4
17	21	4
100	119	7
65	124	1
82	82	5
68	68	15
21	21	7
80	81	6
64	65	4
92	93	4
96	98	8
77	77	6
98	98	10
111	113	7
57	57	16
22	22	10
95	122	1
7	7	10
30	49	5
44	46	1
5	5	6
89	90	7
80	86	5
89	89	10
81	89	2
115	115	9
91	93	6
11	19	4
88	89	7
5	15	3
94	112	2
18	18	12
24	24	6
18	39	1
55	55	5
104	109	1
107	108	2
3	98	4
7	8	2
100	101	5
51	113	3
61	63	4
125	132	2
19	45	4
84	85	7
108	108	8
106	107	9
12	12	10
60	60	17
108	114	2
70	130	2
1	2	5
55	63	4
4	19	1
120	124	1
10	10	6
84	91	1
59	59	10
113	120	2
47	47	3
54	54	11
93	93	7
40	40	13
29	32	9
21	27	3
47	77	1
105	107	3
94	95	12
107	107	15
42	43	4
64	64	13
53	54	15
65	75	5
29	40	3
18	40	3
8	9	9
91	91	11
115	116	2
29	30	4
117	120	1
15	22	1
103	118	1
88	93	3
26	30	5
16	17	7
11	107	2
32	33	4
58	59	4
104	106	2
66	66	7
76	77	4
46	47	10
1	115	2
33	34	2
49	49	10
48	49	6
3	4	1
130	130	8
39	78	1
131	132	3
1	108	4
44	82	1
108	119	2
71	72	5
72	79	1
67	67	6
42	99	5
75	94	2
62	64	3
127	127	2
13	13	5
110	110	9
101	102	9
15	20	1
3	3	12
37	55	1
55	56	7
77	128	3
112	116	3
6	6	13
32	39	2
132	133	2
90	95	5
65	68	1
9	9	6
17	17	3
80	85	1
42	97	2
87	87	5
66	67	3
66	68	1
103	103	21
47	48	4
61	84	3
43	99	2
5	14	2
85	91	1
118	118	4
59	60	4
116	116	8
26	32	1
104	108	1
45	47	1
20	21	5
67	68	2
119	120	6
119	119	4
60	88	3
78	78	5
0	1	6
62	62	8
75	91	1
27	29	2
87	88	4
103	119	1
59	61	3
46	80	1
73	75	2
130	131	1
60	62	2
46	110	3
127	128	2
28	31	1
61	79	1
57	86	1
12	107	1
65	66	6
126	129	1
107	109	2
99	103	3
32	67	1
121	125	2
118	119	4
19	40	2
11	12	2
118	120	2
3	99	3
2	3	5
69	122	2
25	28	1
81	81	7
109	116	1
2	4	1
47	49	3
63	78	1
43	79	2
60	61	2
46	81	1
118	121	1
22	24	1
101	114	1
16	16	1
125	128	1
0	119	1
32	64	1
130	133	1
74	74	1
52	111	4
113	118	2
18	42	2
75	76	4
31	32	3
114	120	4
61	61	2
67	73	2
124	125	6
58	58	4
86	93	2
18	32	1
86	89	1
108	109	2
98	99	2
55	57	2
96	97	2
55	104	1
112	121	1
72	98	4
24	25	3
89	91	1
10	12	1
38	39	5
49	52	3
21	39	1
43	77	1
3	42	1
61	85	1
109	110	3
99	104	1
62	92	2
83	84	2
120	121	1
64	66	3
26	26	3
107	112	2
51	55	2
57	58	4
62	63	1
58	93	1
125	126	1
48	65	2
102	117	1
54	92	2
72	97	1
68	73	1
46	65	1
80	89	1
58	90	3
4	43	1
47	69	1
25	27	1
58	63	1
69	79	1
56	57	1
9	23	1
61	90	1
32	55	1
103	108	1
12	22	2
94	103	1
113	117	1
106	121	1
1	22	1
30	31	1
34	54	1
90	91	2
90	93	1
10	11	1
86	88	1
94	123	1
54	55	2
75	77	1
62	83	1
124	131	1
81	82	1
7	14	2
92	94	1
71	73	1
123	124	2
2	104	1
101	117	1
58	61	1
21	22	1
111	118	1
71	76	1
29	31	1
98	118	1
70	92	1
51	114	1
