90	93	1
62	63	4
29	29	3
121	121	6
105	106	6
26	26	6
78	79	2
68	68	8
95	95	5
4	4	9
6	6	3
2	2	10
111	111	2
89	89	4
64	86	2
79	79	6
52	52	5
51	52	10
16	17	3
119	120	3
133	133	2
16	16	3
97	97	2
50	51	5
19	19	6
93	94	12
32	32	1
45	45	7
111	113	6
59	59	5
109	109	6
131	131	5
115	115	4
28	30	7
22	24	1
45	46	10
82	82	4
114	116	3
86	87	4
51	51	11
70	71	6
49	50	4
105	105	3
53	53	6
94	94	10
83	84	2
10	10	9
113	113	5
6	107	2
24	40	4
47	55	2
76	76	3
14	14	7
48	90	3
29	30	3
46	46	9
9	9	3
23	23	4
12	12	3
56	56	6
30	31	1
81	81	3
41	41	3
75	78	3
71	71	6
11	12	1
124	124	10
103	104	2
58	58	6
61	62	2
127	128	1
15	15	4
65	65	7
84	85	1
42	42	3
88	88	1
93	93	5
54	65	5
7	8	2
52	55	1
4	13	1
118	120	2
124	125	6
73	73	5
54	54	4
62	67	1
7	7	3
99	99	6
92	92	9
57	57	3
75	75	5
84	84	6
40	42	4
1	1	7
111	112	1
33	76	3
96	96	2
129	130	1
50	50	9
80	85	7
77	77	4
0	0	4
47	47	3
94	95	2
72	77	1
5	5	6
17	17	1
87	87	3
110	111	1
109	119	5
22	40	1
126	126	7
114	114	2
54	56	2
19	20	3
100	101	3
18	19	3
128	128	2
132	132	1
114	115	2
27	47	3
72	72	1
15	25	2
112	112	2
59	62	1
18	18	12
126	128	2
53	54	2
30	30	8
107	108	2
20	27	3
108	108	3
24	24	3
86	88	3
3	4	5
41	42	2
40	40	3
115	116	2
67	67	11
65	67	2
43	43	3
91	91	2
125	125	3
64	65	1
69	69	1
102	103	2
13	13	2
34	34	2
16	18	2
76	77	3
83	85	3
57	76	1
63	63	5
123	124	1
47	48	3
49	49	21
109	110	1
129	129	6
55	55	7
99	103	2
42	44	1
108	119	1
48	48	6
59	61	3
8	8	2
31	40	2
106	106	4
85	85	10
0	1	2
78	78	2
76	81	2
98	102	1
69	75	4
2	3	2
48	66	2
122	122	5
20	20	4
78	81	1
116	116	1
45	47	5
54	64	1
118	118	1
66	66	2
102	102	3
39	39	3
23	34	1
123	123	5
90	91	2
14	15	2
102	105	1
38	38	1
94	102	1
14	64	3
113	114	4
130	130	1
104	105	1
46	47	1
9	60	2
117	117	2
116	124	2
11	11	3
28	28	1
83	83	4
78	82	1
82	83	1
123	132	1
107	107	2
110	110	2
27	27	2
89	91	1
48	51	2
1	2	1
33	40	1
103	103	1
66	67	2
80	81	1
74	75	1
126	127	2
98	98	2
79	81	1
21	21	3
110	115	3
120	120	1
60	61	1
79	80	1
46	55	2
119	119	4
19	51	1
97	98	2
6	7	1
75	77	3
118	119	1
25	41	1
107	119	1
31	31	1
96	98	2
70	95	3
100	115	1
44	44	2
92	93	1
9	70	1
42	43	1
104	104	2
55	67	2
64	64	4
70	70	1
91	92	1
6	8	1
23	42	1
80	84	1
114	130	1
100	103	2
106	115	1
108	130	2
85	92	1
27	30	1
52	53	2
25	26	1
127	127	2
5	12	1
101	102	1
8	9	1
66	69	1
10	68	1
85	86	1
93	95	1
48	65	1
12	13	1
59	63	1
63	67	1
87	89	1
