36	36	4
70	71	3
55	56	3
66	66	13
70	70	20
58	58	7
40	40	8
38	46	2
20	73	2
65	76	4
51	51	13
40	41	4
88	88	16
100	101	1
67	67	7
41	41	20
93	93	25
58	59	2
72	72	10
43	43	5
87	88	3
59	59	14
68	68	7
69	69	11
76	76	11
53	53	3
89	89	6
95	96	2
25	26	4
63	63	13
99	100	3
63	64	6
37	37	2
80	81	5
62	62	8
61	81	5
39	39	4
93	101	4
52	52	11
79	79	4
29	29	13
33	89	4
84	84	2
91	102	3
85	85	11
64	72	2
26	26	6
91	91	4
52	53	1
21	22	1
95	95	13
95	100	2
85	86	6
60	60	14
64	64	7
94	94	8
92	93	2
36	37	3
92	94	4
100	100	12
55	55	18
38	58	5
35	35	5
81	81	8
44	58	7
50	50	14
49	49	15
67	69	1
61	62	2
28	31	1
51	52	1
56	56	10
30	30	4
59	60	1
74	74	11
83	83	5
97	97	4
99	102	3
65	65	1
57	78	2
78	78	6
37	53	4
54	55	6
66	67	11
31	31	9
90	91	3
96	99	2
75	75	6
42	42	13
46	46	3
53	55	3
70	90	1
80	80	10
22	28	2
65	66	1
72	74	3
41	50	3
27	27	3
67	70	1
98	98	3
67	68	5
96	96	8
61	61	7
98	99	1
39	67	3
72	73	7
49	50	9
51	68	2
36	39	2
71	72	2
86	86	8
87	87	5
101	102	2
71	71	4
44	45	7
95	98	3
77	77	5
68	69	2
90	90	4
60	62	2
44	44	9
94	100	3
22	47	1
102	102	7
48	48	7
33	33	3
54	54	6
46	47	3
23	25	1
47	47	4
53	95	2
57	57	2
37	38	6
33	45	2
38	38	3
29	86	1
73	82	1
28	33	1
38	48	2
32	33	1
64	65	9
62	63	1
93	94	2
85	88	2
85	101	1
44	48	2
41	42	2
50	51	2
25	25	5
23	24	3
82	83	1
76	78	1
51	59	1
43	51	2
42	43	3
45	45	1
51	89	3
40	43	3
74	75	1
79	80	1
92	92	5
22	22	1
76	77	2
56	57	8
67	73	1
28	30	2
35	37	1
73	73	1
34	34	1
32	32	1
93	95	2
99	99	2
34	40	2
98	100	2
101	101	1
75	76	3
64	90	1
41	51	1
81	83	1
23	89	1
80	86	1
59	64	1
43	48	1
48	51	1
61	80	1
48	53	1
56	61	1
34	37	1
40	52	1
24	25	1
56	60	1
