33	35	2
41	41	6
73	73	7
61	80	2
57	57	10
112	131	2
20	20	5
13	13	9
62	62	10
74	100	2
51	52	4
34	35	1
100	101	2
119	120	3
11	11	14
18	18	4
133	133	12
126	126	7
117	134	3
70	98	2
41	56	3
108	110	3
87	87	12
95	95	4
131	141	1
123	123	5
10	10	2
94	109	3
94	94	14
125	125	6
9	9	7
4	4	6
137	137	7
29	29	7
34	34	7
73	99	5
136	137	12
117	133	3
63	64	4
48	48	7
24	24	10
27	27	12
75	76	4
38	38	9
32	32	3
139	141	3
85	94	1
59	59	7
87	143	1
132	132	6
117	117	12
101	107	3
12	12	3
133	135	5
114	115	13
63	63	6
35	35	3
19	39	2
22	22	1
65	120	1
129	130	7
36	96	1
131	132	5
114	114	1
142	142	1
27	29	2
98	98	2
135	135	5
56	141	3
145	145	9
84	84	10
118	118	3
58	58	5
106	117	4
15	15	3
12	14	7
71	72	1
12	13	6
70	70	6
99	99	2
92	92	12
136	136	6
133	140	3
93	93	3
89	89	8
84	104	2
140	140	11
57	58	3
115	115	3
81	81	4
120	120	3
17	18	7
42	95	1
33	33	10
5	144	2
66	86	5
110	110	10
33	87	4
125	131	1
143	143	4
27	38	3
66	67	3
43	43	1
27	30	4
63	67	2
127	132	1
48	57	1
126	127	4
118	135	5
27	28	2
6	12	3
53	55	3
115	117	7
137	138	2
134	142	1
104	104	7
19	19	17
25	25	12
35	36	1
17	17	10
5	143	1
141	141	4
69	69	5
117	131	4
140	142	1
70	73	3
134	135	5
87	89	1
57	83	1
120	145	3
129	129	3
10	11	7
62	63	5
124	131	4
128	129	2
100	131	2
96	97	4
104	134	3
80	80	2
67	67	2
121	121	2
62	112	1
124	125	1
109	109	2
128	128	9
28	32	1
124	124	7
58	75	3
134	134	4
131	140	2
118	119	3
14	39	1
52	52	8
5	5	2
63	76	2
61	61	1
102	102	7
110	111	2
4	5	3
107	108	5
50	51	1
75	75	3
97	98	2
30	30	5
108	108	2
72	72	2
51	51	1
92	95	2
23	23	3
76	79	6
49	49	4
4	40	1
15	40	2
65	108	2
139	139	6
8	23	2
60	134	3
127	128	2
89	130	1
33	36	3
93	94	2
4	14	1
125	129	1
64	65	8
125	142	2
2	3	2
90	90	6
3	3	2
83	86	2
127	137	1
18	93	1
113	123	3
72	96	1
136	139	5
85	97	1
20	21	1
101	101	5
78	78	3
146	146	2
88	89	5
85	130	4
89	128	1
137	139	3
106	106	3
14	15	4
119	144	2
34	39	3
98	123	3
92	94	2
105	105	1
0	3	2
76	76	1
77	78	4
94	95	2
108	116	5
125	135	2
56	56	8
122	123	1
97	97	1
65	72	2
91	91	2
56	95	1
65	68	3
132	138	5
0	0	2
53	56	4
90	96	1
126	142	1
113	113	3
66	93	2
127	127	10
76	80	1
64	64	2
131	131	5
127	143	1
75	83	1
107	109	2
11	130	1
26	26	2
83	112	1
53	53	1
77	77	2
94	104	1
79	79	2
79	80	1
88	91	2
66	71	1
66	66	1
118	131	2
40	40	2
48	49	1
8	14	2
68	68	2
31	31	2
134	141	2
61	62	2
2	2	4
124	142	3
65	65	2
131	133	1
86	86	1
18	19	1
59	84	1
99	113	2
11	38	1
47	64	2
73	81	2
68	69	1
47	66	1
69	84	3
22	143	1
61	105	1
50	50	3
75	84	5
131	139	1
83	85	2
115	116	2
130	130	2
80	99	1
112	123	3
29	144	1
127	138	2
87	96	2
86	87	1
77	98	2
68	71	1
52	53	2
3	23	1
124	126	1
18	28	1
136	138	2
49	90	2
82	82	2
132	136	1
112	112	1
70	85	2
35	88	2
28	144	1
66	108	1
99	101	1
144	144	1
89	90	1
9	10	1
23	24	1
67	94	2
39	119	1
122	125	1
119	119	2
95	117	2
130	131	1
36	41	1
78	117	1
68	85	1
75	108	1
105	136	1
39	39	1
14	14	2
37	70	1
11	30	1
21	30	1
