37	44	5
26	26	14
128	129	5
40	41	10
64	130	3
116	116	12
147	147	24
45	46	7
148	170	1
124	126	3
173	173	18
193	193	24
187	188	13
54	54	17
149	149	12
116	117	11
2	2	21
171	171	18
164	164	18
139	146	2
189	189	12
122	122	7
106	106	12
96	96	16
0	1	5
110	110	16
194	194	30
56	133	1
177	177	21
34	34	13
189	190	4
153	153	18
119	120	5
171	172	1
134	177	2
123	123	5
152	153	9
113	113	12
156	157	5
168	169	5
100	100	8
126	126	7
185	191	2
51	51	9
196	196	17
10	10	16
59	59	13
157	181	8
184	184	9
150	150	16
49	49	20
13	15	6
82	83	7
62	70	6
112	113	8
52	52	16
170	171	1
150	151	5
113	120	4
77	78	8
118	118	11
18	161	2
79	79	9
175	175	14
69	69	10
119	119	33
124	129	3
179	179	30
81	81	4
41	42	6
31	31	12
54	131	2
162	172	4
133	143	1
150	157	1
117	139	4
99	99	10
153	190	3
120	120	12
129	129	5
50	50	17
60	61	3
143	143	10
3	27	3
118	139	2
21	21	9
152	152	16
101	102	3
109	110	12
117	140	9
68	68	6
25	25	29
160	160	8
179	182	8
196	197	12
182	183	7
53	53	19
33	35	4
82	82	8
12	12	23
13	14	1
140	140	6
57	57	20
60	87	7
15	15	26
9	10	7
31	184	2
150	169	5
115	115	18
38	38	26
5	7	2
9	9	17
16	16	3
161	161	21
152	154	2
165	165	12
190	190	17
0	0	7
4	4	15
163	177	3
179	181	1
4	5	4
156	156	30
77	77	9
54	140	3
30	30	13
5	5	20
25	28	10
125	125	14
28	28	16
47	47	9
159	159	14
174	174	6
163	163	10
61	64	1
76	78	4
98	98	10
55	132	4
81	86	5
179	180	8
12	31	2
6	7	4
20	20	8
16	18	3
97	97	7
142	142	13
10	12	5
121	121	12
41	41	12
195	196	4
169	169	15
165	166	16
101	101	22
133	142	3
153	181	7
44	44	19
133	133	14
184	185	5
144	144	10
112	121	5
151	151	12
112	122	3
168	168	9
172	172	16
1	1	5
63	63	3
139	145	6
126	130	4
85	85	6
180	191	2
112	112	16
154	162	2
55	55	6
56	59	2
84	84	3
145	175	6
136	136	12
113	115	4
155	159	1
84	85	5
138	138	4
195	195	18
137	137	8
68	69	7
65	67	3
124	127	3
155	155	10
104	106	3
128	128	10
111	111	11
32	33	2
65	65	3
162	163	8
124	124	17
162	162	11
170	186	2
120	122	1
30	33	3
167	167	11
148	150	3
178	190	5
176	176	11
182	182	6
116	118	4
48	48	10
187	187	16
103	130	1
89	136	4
144	175	7
159	160	12
30	39	1
152	161	1
62	63	3
132	134	2
125	126	4
154	154	11
173	174	2
46	46	8
197	197	13
134	156	2
5	18	4
133	134	9
178	178	12
102	102	12
74	139	1
47	48	3
185	186	9
170	170	7
103	106	6
76	76	12
37	42	2
154	155	9
167	168	8
191	191	5
36	37	5
12	13	4
14	51	3
13	13	12
94	95	8
155	162	4
184	192	2
89	89	2
126	187	1
107	107	15
74	88	2
73	90	4
7	8	9
188	190	3
142	143	2
8	8	15
36	36	4
147	148	3
2	26	1
160	176	3
32	32	8
31	33	5
58	62	4
144	146	3
47	51	7
6	8	4
47	52	4
56	56	3
34	55	3
169	170	9
32	79	5
102	106	3
68	116	1
131	132	8
61	61	5
183	183	15
134	138	4
180	180	11
108	111	1
135	136	3
101	113	2
139	139	7
67	68	5
184	196	1
88	88	10
16	37	1
19	148	1
7	9	1
35	36	11
70	70	9
81	84	2
23	23	9
56	145	2
30	31	5
124	130	1
11	11	16
155	172	1
189	193	2
5	191	2
49	50	2
149	188	2
7	7	3
28	29	6
59	64	1
0	21	1
166	166	11
157	191	1
139	175	2
4	27	3
179	193	3
43	43	2
192	192	13
11	47	3
150	185	1
136	168	3
183	184	7
85	93	8
78	78	3
146	146	15
71	72	2
33	38	1
53	56	3
3	4	3
42	58	2
29	31	6
72	73	9
54	58	5
183	190	2
85	94	4
73	86	3
172	174	2
81	82	4
43	44	4
53	130	2
71	172	1
114	114	8
138	139	1
134	134	8
178	179	3
74	74	3
109	109	8
84	86	6
100	101	2
99	106	4
57	69	1
93	96	3
124	125	5
86	86	4
134	135	4
13	52	1
154	159	3
35	53	2
157	157	13
37	38	3
66	69	1
27	39	4
2	6	1
53	133	6
42	43	1
15	16	4
96	98	2
117	117	10
23	24	12
130	131	2
76	77	6
5	6	5
27	27	4
151	155	3
138	166	2
186	189	2
170	172	7
167	172	1
65	70	3
42	42	7
2	3	1
180	182	4
18	21	1
186	187	7
123	184	1
162	164	3
80	80	5
94	94	7
147	159	3
72	72	7
188	188	10
98	112	4
185	195	1
155	182	2
126	127	7
74	75	1
61	88	1
28	30	2
107	113	2
16	17	9
18	18	1
155	166	2
173	179	1
141	141	10
185	185	8
89	90	1
180	192	3
153	179	2
148	191	2
33	33	12
58	58	8
17	17	4
181	181	8
40	40	5
103	107	6
135	135	11
177	179	1
37	37	9
149	150	11
103	103	11
173	176	3
152	178	2
164	192	2
98	99	7
193	194	2
138	140	5
116	119	2
184	190	2
170	182	3
145	145	3
174	177	3
14	14	5
148	167	2
163	164	4
155	163	3
147	152	3
18	162	1
135	137	6
56	72	2
31	32	6
46	53	2
173	180	2
9	27	4
106	109	3
71	71	3
87	88	4
183	194	2
49	51	4
171	186	1
24	24	17
160	161	6
102	103	8
60	60	5
83	84	6
22	28	2
107	108	6
1	2	4
40	42	5
67	77	2
127	127	4
39	39	4
178	180	1
139	140	2
186	186	2
3	6	1
21	22	3
50	51	4
61	139	3
45	45	6
64	64	5
148	148	8
66	72	6
26	27	7
158	159	2
58	59	2
171	187	1
148	172	1
16	23	5
38	76	1
75	89	1
5	8	1
131	131	6
116	144	2
146	190	1
185	192	1
79	86	3
68	76	1
133	140	1
83	83	3
115	130	3
57	58	1
5	21	2
178	181	3
33	34	2
4	19	3
84	94	1
124	131	1
148	151	3
127	185	4
117	118	2
161	162	4
99	100	1
56	57	2
22	22	4
44	45	4
63	65	1
81	89	3
4	6	1
166	167	1
67	67	4
156	182	4
161	163	9
147	172	2
14	195	1
121	122	1
10	11	3
103	104	1
20	21	3
158	168	3
37	86	3
115	116	3
20	188	1
176	179	2
130	130	8
117	143	5
65	68	1
75	86	2
34	35	2
60	89	2
148	149	11
46	54	2
87	89	2
3	25	5
163	171	1
4	9	3
154	158	1
188	189	2
54	142	3
151	178	2
134	137	1
154	173	2
185	189	1
4	17	1
62	62	2
5	147	1
67	78	5
54	145	2
4	26	3
80	81	2
15	46	2
35	35	7
3	19	1
66	66	4
34	44	2
104	108	2
143	184	3
2	27	1
2	7	2
132	143	1
144	145	3
156	159	4
41	43	3
172	173	3
29	29	1
58	66	2
115	118	1
179	192	1
5	12	3
104	105	6
108	108	2
48	52	3
53	54	3
126	197	1
137	138	1
38	39	2
120	123	1
151	181	2
26	39	3
54	56	3
135	143	3
114	115	3
2	39	1
11	13	1
17	19	1
19	19	3
161	164	3
17	148	1
147	191	2
113	121	1
132	132	5
151	170	1
43	55	1
157	159	2
79	80	4
104	104	12
62	131	1
158	158	4
138	145	2
54	55	2
179	194	1
154	166	1
109	111	1
159	161	3
152	192	1
18	19	2
155	156	3
93	93	1
68	123	3
59	74	2
163	180	1
183	189	1
148	152	1
35	55	1
159	162	2
181	182	1
39	40	3
191	195	1
20	22	1
3	146	1
192	193	1
33	56	1
6	6	2
19	21	1
59	61	3
136	137	4
21	23	1
129	131	1
132	133	1
120	121	1
12	16	2
157	168	1
147	175	4
22	24	1
65	89	3
151	157	2
123	124	1
5	25	1
73	73	2
194	195	1
147	173	2
165	167	1
62	117	2
146	153	1
137	166	1
122	126	2
153	154	1
166	168	1
4	30	3
97	98	2
149	170	1
131	140	1
146	192	1
55	138	2
75	117	1
56	58	1
145	195	1
181	191	1
169	183	1
100	113	1
156	181	2
36	39	2
3	3	2
157	158	1
151	152	4
22	23	1
141	142	1
145	146	1
120	127	1
36	44	2
75	75	1
95	100	4
152	181	1
138	167	1
13	146	1
146	147	1
121	123	2
31	163	3
95	96	3
191	192	1
33	55	2
139	142	1
96	97	1
190	191	1
157	165	2
184	194	1
161	167	1
59	69	1
68	75	1
61	135	1
15	23	1
111	112	2
110	111	1
75	141	1
54	135	1
88	93	2
170	183	1
65	116	1
15	35	1
38	80	1
150	177	1
78	114	1
18	160	1
70	71	1
111	120	1
3	16	1
66	73	1
65	71	1
180	181	1
139	167	1
23	150	1
184	186	2
177	178	2
175	176	1
31	38	1
177	180	1
191	194	1
140	142	1
136	148	1
158	166	2
22	27	2
186	188	2
146	152	1
175	193	3
64	87	1
1	7	1
147	176	1
0	2	1
53	132	1
71	87	1
160	163	1
118	123	1
165	168	1
176	177	1
185	187	1
138	190	1
95	95	1
147	174	1
4	8	1
149	169	1
153	182	1
173	175	1
