8	8	9
25	25	18
30	30	17
97	97	9
189	189	29
80	80	14
39	39	20
160	160	35
102	102	16
41	41	33
58	58	32
154	192	6
42	42	14
98	99	6
45	47	1
55	55	17
163	163	24
88	88	2
38	38	8
194	195	10
122	122	21
158	159	22
174	174	12
27	33	1
128	128	49
190	190	26
119	119	29
5	5	16
152	152	40
196	196	36
109	109	22
156	156	37
165	166	12
181	181	21
4	4	18
195	195	26
168	168	21
165	171	1
113	114	9
180	181	8
22	22	26
154	154	25
187	187	24
105	105	17
72	72	16
31	32	6
34	34	25
61	61	6
185	186	12
53	53	26
194	194	50
123	123	8
78	78	11
141	141	26
76	77	5
13	13	30
117	137	5
108	109	7
13	14	10
58	59	13
168	173	2
39	40	10
99	99	5
190	191	4
186	186	17
15	15	35
95	95	12
47	47	28
12	12	41
10	13	2
100	101	8
10	10	21
60	60	4
155	155	21
113	125	9
127	127	27
50	52	3
48	48	30
5	7	5
120	120	34
126	126	28
38	39	6
77	77	11
179	179	14
2	3	16
130	131	14
144	144	22
124	124	32
129	134	5
106	106	7
148	149	1
167	172	3
183	184	10
20	21	7
42	96	4
12	170	3
115	115	32
16	17	13
174	175	8
9	9	30
59	64	1
148	148	20
195	196	10
176	176	14
114	115	15
3	4	2
36	36	29
104	104	7
150	151	7
33	35	8
146	148	5
173	173	13
137	146	2
101	126	1
132	133	5
161	168	1
170	171	22
128	129	8
52	52	27
101	101	19
7	22	4
183	183	37
142	143	6
64	64	4
11	11	30
135	135	5
164	178	3
145	145	21
112	112	13
104	106	6
43	43	23
114	114	35
167	168	5
172	172	29
158	184	6
80	81	6
86	86	4
118	118	12
113	113	24
127	128	11
183	193	2
56	56	20
191	193	6
149	149	43
22	23	6
168	169	9
31	31	17
33	33	17
10	12	4
36	43	2
63	63	24
57	57	29
100	100	34
51	52	7
133	133	36
182	182	21
167	174	2
36	37	12
19	20	17
104	105	6
170	188	3
37	37	31
153	153	22
180	184	6
87	87	7
16	16	17
193	193	27
46	47	22
98	98	13
17	17	24
121	122	1
134	135	6
20	23	5
32	32	13
27	27	12
24	24	20
44	44	15
157	157	20
23	23	24
50	50	14
185	185	23
101	131	2
94	95	3
70	77	2
139	139	13
111	111	28
85	86	3
40	40	14
181	182	21
39	140	4
188	188	28
170	170	25
85	85	13
120	121	6
159	159	13
133	134	10
27	28	3
14	43	1
41	42	13
156	158	6
188	189	10
54	56	2
149	150	14
189	193	3
79	79	9
114	129	2
151	151	15
180	180	10
171	171	27
77	85	1
138	138	11
113	115	3
142	142	34
163	168	3
14	37	1
175	175	10
135	137	3
177	177	11
35	35	40
112	128	3
169	170	7
103	103	10
158	161	8
157	158	5
115	137	1
1	1	22
176	177	10
171	195	3
14	14	10
155	181	3
18	18	14
23	25	7
71	71	17
54	55	4
172	187	3
166	166	15
126	127	13
141	190	2
33	34	1
131	131	21
81	82	4
134	134	28
147	147	16
166	182	5
28	28	8
111	130	5
169	169	25
38	50	3
168	174	7
24	29	2
190	193	5
150	150	28
125	125	21
144	145	6
196	197	12
70	71	3
62	62	3
108	108	7
191	191	29
6	7	7
117	117	15
0	2	3
152	154	11
110	110	20
164	164	8
166	167	5
146	147	6
102	103	14
11	12	11
156	174	2
197	197	23
50	119	2
163	165	4
51	55	1
54	54	20
26	26	30
109	131	7
180	188	2
116	116	19
67	67	6
140	140	11
0	0	4
186	187	6
9	15	2
179	180	18
75	80	2
70	196	3
141	142	8
45	45	24
93	94	4
82	83	4
139	140	7
23	24	8
2	2	9
57	101	1
154	190	2
168	184	4
175	177	2
119	120	7
34	35	6
47	48	14
144	146	3
147	148	9
103	104	8
112	113	11
136	136	19
28	30	3
61	62	7
184	184	23
155	179	6
54	67	4
18	38	3
84	85	7
147	153	2
182	183	4
75	75	10
0	1	11
59	59	16
121	121	12
60	62	8
1	3	2
51	51	21
60	65	2
6	6	10
162	162	5
52	56	5
111	112	10
46	46	23
42	43	9
69	69	10
36	39	6
7	32	3
68	68	13
19	19	14
71	77	1
72	73	1
33	98	2
163	182	1
49	49	25
188	192	5
51	119	2
139	141	1
29	29	14
54	63	5
167	167	16
131	132	8
173	174	4
122	149	2
152	153	6
161	163	8
185	187	7
192	193	7
177	179	3
9	10	7
151	152	15
118	122	1
156	177	2
83	83	6
45	46	8
25	36	3
192	192	11
26	27	4
99	100	10
110	111	5
140	143	1
53	55	4
116	118	3
129	129	15
1	2	8
165	181	3
109	110	21
160	161	4
36	38	5
186	188	2
157	183	2
116	130	2
0	42	2
115	139	1
53	54	7
118	123	2
148	166	2
69	71	3
8	10	2
176	178	5
15	16	5
89	90	2
132	137	6
143	143	7
123	135	1
93	93	3
14	15	5
3	3	17
159	160	10
65	65	4
125	126	10
135	136	7
143	145	5
175	180	5
95	96	4
158	158	7
7	25	2
94	94	11
165	165	9
162	190	5
141	149	5
150	180	3
112	121	5
115	116	5
116	117	8
187	188	19
50	134	3
154	155	6
159	164	1
48	49	10
84	86	4
154	194	2
49	129	3
120	151	3
10	11	10
136	142	2
112	130	5
157	162	3
134	147	1
161	162	12
61	65	4
170	185	2
12	13	4
148	154	3
172	176	4
29	30	4
172	182	2
173	175	6
101	102	9
81	81	1
70	70	8
0	5	3
66	67	2
51	120	4
141	169	3
142	145	3
149	157	3
124	125	12
193	194	5
117	118	1
141	151	3
122	125	2
22	38	1
7	21	4
22	33	1
191	192	11
40	97	3
75	76	3
145	146	13
34	37	4
72	74	2
171	194	4
133	146	1
96	96	7
15	19	3
107	107	8
155	178	2
43	44	2
7	8	11
21	22	2
20	20	7
137	137	2
53	171	2
141	152	4
156	175	3
178	181	1
143	153	3
5	31	2
77	78	1
66	66	7
21	39	2
30	32	3
104	107	6
160	181	1
164	165	5
163	164	6
173	176	2
153	155	4
164	166	1
161	161	18
12	15	3
17	48	2
178	179	7
109	152	2
13	17	1
159	169	2
67	69	1
178	178	9
102	104	3
18	185	1
123	124	2
8	19	3
33	95	2
7	7	6
120	152	1
136	149	2
63	64	4
160	171	1
155	156	7
79	80	5
73	73	2
6	28	1
84	84	4
115	117	2
130	130	3
171	172	11
42	45	2
132	132	7
32	33	2
103	106	2
37	38	2
49	50	3
25	26	9
82	82	1
12	14	5
156	157	2
42	97	3
146	146	7
166	168	1
41	140	2
52	169	2
4	34	11
131	133	1
33	36	3
58	60	2
155	175	4
96	97	2
88	89	1
2	14	1
164	179	4
113	122	1
101	141	3
13	15	9
37	43	1
5	12	4
18	43	1
49	52	3
162	163	5
50	55	1
50	51	1
76	78	4
8	22	1
160	166	2
171	191	7
189	190	3
136	152	1
171	193	2
51	135	2
34	39	1
110	130	2
4	5	3
153	165	1
36	132	3
59	61	3
50	194	1
14	20	1
140	141	2
165	169	2
60	61	2
142	147	2
177	178	9
155	182	1
17	19	3
147	159	4
80	82	1
149	151	1
109	111	1
102	150	1
173	182	2
136	146	1
57	58	5
73	74	4
167	190	1
169	185	2
68	72	3
43	45	1
69	195	2
9	48	2
167	170	1
157	182	1
87	90	2
71	72	2
149	171	1
100	103	2
74	76	1
150	189	1
3	12	2
66	73	3
119	155	1
138	139	5
63	74	1
122	136	1
28	29	5
52	187	2
60	64	2
164	173	1
44	45	5
146	151	1
9	12	2
154	171	1
157	161	1
106	107	1
189	192	2
4	9	2
127	130	4
189	195	2
178	193	2
136	137	3
109	154	1
124	134	1
165	170	2
15	17	1
169	173	2
19	21	1
25	33	3
38	51	2
83	84	4
4	23	2
115	118	2
50	120	2
17	20	2
76	85	4
22	25	1
57	100	3
85	151	1
169	184	2
160	170	1
55	56	6
136	153	1
173	177	3
76	76	4
111	131	2
118	119	4
4	8	3
138	140	2
116	138	1
170	192	2
175	176	4
52	53	4
166	169	2
114	124	1
183	186	2
64	65	2
166	183	2
158	169	2
143	150	1
97	98	2
96	141	4
5	20	2
25	27	3
23	26	1
155	174	4
107	177	1
139	158	1
184	193	2
83	89	1
168	170	2
50	135	2
40	42	2
172	183	1
161	165	1
167	184	2
98	141	1
143	146	2
99	140	2
178	190	2
180	183	1
123	134	2
24	25	1
5	30	1
111	119	1
113	123	1
164	167	2
21	21	6
8	16	1
122	123	1
4	6	1
112	115	1
0	3	1
24	36	1
5	22	1
6	8	1
9	20	3
33	38	2
133	135	1
0	41	1
162	164	1
103	108	1
172	180	1
159	181	1
187	194	2
10	14	1
160	165	1
119	140	1
113	124	1
111	124	1
154	184	1
165	168	1
16	18	1
18	19	1
101	140	1
67	68	1
35	36	1
68	75	1
127	135	1
179	184	1
120	134	2
11	48	1
130	132	1
174	177	2
24	37	1
50	193	1
29	31	2
189	194	1
28	32	1
64	66	1
22	24	2
9	14	1
155	157	1
171	177	1
126	128	1
156	160	1
143	144	3
40	41	2
4	7	1
7	20	1
72	77	2
2	9	1
158	183	2
49	173	1
40	140	1
85	87	1
191	196	1
71	79	1
5	15	1
151	178	1
150	154	1
50	129	2
132	135	1
172	173	1
