77	79	1
23	23	10
81	95	5
120	120	1
134	134	2
16	17	2
77	77	1
25	29	6
38	40	3
104	105	2
14	14	5
71	71	5
97	98	2
92	93	2
4	4	9
24	29	4
37	38	4
29	29	1
30	30	5
111	141	1
63	64	3
140	144	2
132	132	2
94	98	1
66	67	1
8	8	4
33	34	2
65	69	3
41	42	1
31	32	3
34	35	1
144	150	1
137	137	2
87	88	1
150	150	2
90	92	1
25	25	4
9	9	3
66	66	4
55	55	4
101	102	1
65	80	4
151	151	1
134	135	4
42	54	2
153	154	2
50	50	4
68	77	1
2	2	1
6	7	2
69	69	3
130	130	4
84	84	3
17	18	3
116	118	1
149	149	4
102	102	2
114	114	1
63	68	3
109	109	2
113	113	1
82	82	1
101	101	2
152	153	4
152	152	2
11	11	3
76	77	1
107	108	4
143	145	4
83	86	3
129	129	5
16	16	4
86	87	3
45	45	3
83	84	2
10	10	4
48	48	3
58	58	1
121	123	2
21	22	6
50	51	3
73	73	3
74	74	3
75	79	2
6	6	3
70	70	5
75	81	3
21	21	6
50	52	1
27	27	3
92	94	2
51	52	2
69	70	6
48	49	3
22	22	3
26	27	2
95	96	3
42	42	4
31	33	2
11	29	1
140	140	1
43	43	2
5	5	1
148	148	5
20	20	4
106	106	2
51	90	2
83	88	1
23	24	1
14	15	1
133	134	1
18	19	2
47	71	4
36	36	2
68	68	2
106	111	2
12	12	1
118	119	4
27	29	1
68	79	1
53	53	2
34	34	4
79	79	1
56	56	2
117	117	3
121	121	2
142	143	2
83	83	2
8	9	2
39	39	2
93	98	1
147	147	1
20	21	2
85	86	2
7	7	2
81	81	1
108	109	1
64	97	1
2	3	1
39	41	1
64	65	1
120	128	1
16	53	1
125	126	2
141	141	1
108	108	2
75	75	5
145	145	1
63	63	1
141	150	3
95	98	1
17	17	3
80	82	1
10	17	2
26	26	1
46	46	2
144	147	2
123	128	2
78	78	4
33	33	2
130	131	1
115	115	1
27	30	1
24	24	2
96	96	2
46	47	3
7	8	1
69	71	1
22	31	2
142	142	1
4	9	1
15	22	1
146	146	1
110	110	1
153	153	1
10	13	1
63	65	1
61	62	1
102	103	1
103	103	1
32	33	1
67	68	2
65	65	2
104	104	1
126	128	1
112	112	2
40	40	2
49	49	1
24	28	3
49	50	2
122	122	4
154	154	1
48	67	2
135	135	1
40	46	1
131	131	1
13	14	2
76	101	1
29	30	2
12	13	2
122	123	1
40	41	1
85	101	1
6	54	1
45	46	1
75	76	1
128	128	1
47	47	2
99	99	2
138	139	1
116	136	1
96	107	1
136	136	1
105	105	2
123	124	1
34	37	1
52	52	1
6	20	1
