46	46	24
15	18	5
57	59	8
34	36	5
1	2	10
38	40	8
40	40	43
51	52	12
34	34	36
33	34	15
17	19	2
39	39	25
14	15	3
50	52	8
1	1	13
55	55	24
4	5	8
11	11	16
37	39	15
38	38	29
35	35	20
20	21	6
13	14	4
0	0	15
49	49	46
4	4	27
52	53	4
32	32	17
44	44	22
51	53	6
42	44	6
21	24	1
62	62	15
12	12	16
37	38	6
58	58	41
32	43	2
58	59	17
23	23	15
5	20	4
30	36	3
47	47	38
45	45	16
51	51	58
57	57	16
61	61	18
6	7	3
37	37	46
32	33	6
46	56	6
59	59	28
30	31	21
16	17	5
21	21	13
9	9	14
38	39	17
16	16	16
48	48	24
46	50	1
6	18	3
19	19	8
43	45	9
41	41	14
61	62	15
30	30	32
44	45	16
6	6	17
22	23	18
45	46	14
54	56	4
5	5	13
40	59	6
6	20	7
41	42	2
34	35	10
39	40	9
17	17	10
30	32	4
18	18	6
33	33	15
2	2	24
5	6	4
56	56	17
2	16	2
6	8	6
31	31	21
53	59	6
10	10	6
11	13	6
19	21	1
52	52	18
42	42	31
14	14	23
25	25	8
18	37	5
49	50	7
48	49	3
47	48	23
42	50	2
43	43	26
37	42	3
56	57	7
24	24	18
54	55	6
9	10	7
7	8	6
10	11	10
50	50	19
37	48	1
47	49	3
17	22	2
39	51	4
40	55	4
0	4	1
32	35	3
43	44	14
17	18	4
3	3	13
37	53	2
5	8	8
10	13	2
11	12	5
13	13	8
0	1	17
43	47	1
49	61	2
15	15	9
8	8	7
36	39	1
54	54	12
40	41	6
32	42	4
41	53	7
45	47	5
39	46	2
14	39	2
57	58	3
7	7	12
46	49	5
44	56	6
15	16	7
36	36	36
2	3	12
20	20	9
60	60	17
31	36	2
23	24	6
51	59	3
47	56	3
35	36	11
42	43	8
53	53	12
15	54	3
19	20	4
31	47	1
18	19	5
35	38	3
59	60	6
0	2	4
22	22	5
14	16	3
44	51	2
31	32	11
24	51	2
33	35	4
26	26	5
24	25	4
45	52	3
0	60	2
36	37	4
45	56	5
37	55	3
39	45	5
32	36	1
18	55	3
18	20	2
52	56	2
1	4	4
44	47	1
46	54	3
58	60	2
46	57	5
20	53	3
45	54	2
45	60	1
35	47	1
1	3	1
41	54	5
41	50	3
0	47	1
38	53	3
45	55	2
17	57	1
42	46	1
0	3	5
39	57	1
37	60	2
3	6	2
2	40	2
46	52	2
29	38	1
46	51	2
3	4	1
42	53	4
58	62	2
19	40	3
29	37	1
33	44	6
12	13	2
15	52	1
38	57	2
39	56	1
34	37	1
48	50	4
30	49	2
57	60	2
41	45	3
49	54	1
47	61	2
35	39	1
38	51	2
8	9	6
21	22	1
46	61	2
32	37	3
32	48	2
20	23	1
47	62	2
46	47	2
35	43	3
11	18	1
46	55	1
50	51	5
20	29	2
23	25	2
41	52	2
56	62	1
16	19	1
29	36	1
59	61	1
55	58	1
41	51	1
41	55	1
54	58	1
38	47	1
56	58	6
14	53	1
40	52	1
2	59	1
44	46	1
4	8	1
39	55	1
38	50	1
14	52	1
47	57	1
18	54	1
50	59	1
