83	107	1
46	46	32
2	8	6
119	119	9
30	70	7
27	80	2
92	92	16
43	43	8
121	123	1
125	125	21
103	103	2
61	61	26
14	14	16
60	103	6
4	5	9
127	133	1
3	66	5
36	36	14
87	87	13
83	83	29
128	129	5
26	27	13
68	69	13
19	82	1
63	63	16
44	44	10
124	124	4
82	84	3
7	8	5
45	45	16
72	73	10
15	74	2
78	78	10
12	46	2
75	76	5
4	4	15
84	84	21
85	86	4
30	30	19
3	17	2
117	117	11
25	79	3
7	7	13
3	40	1
30	107	1
56	109	6
16	19	3
95	95	19
12	12	36
31	32	13
33	34	9
109	109	15
25	77	9
75	75	27
26	78	5
100	102	1
79	79	13
94	95	8
13	14	9
91	92	13
19	20	18
95	99	8
104	119	3
20	20	14
89	89	4
97	98	16
125	127	6
8	8	23
25	34	2
64	66	3
101	101	19
70	70	17
11	11	26
16	16	16
15	40	1
122	122	8
94	94	19
57	57	10
62	62	12
38	48	5
72	72	7
126	126	7
21	39	2
110	117	2
76	76	23
104	105	10
47	47	29
78	83	3
69	69	26
120	127	3
101	102	7
98	100	6
97	97	15
3	3	13
25	25	13
55	113	3
29	78	4
8	91	3
6	44	2
9	9	17
9	10	3
88	96	5
2	2	9
76	77	8
6	14	2
98	99	8
106	132	2
28	28	25
46	74	1
26	26	28
26	75	3
78	114	2
20	21	10
86	87	7
45	78	4
90	90	13
126	132	1
68	68	13
20	43	4
85	85	27
78	80	7
38	38	11
71	71	13
11	27	1
134	134	10
15	15	16
11	89	3
88	98	1
11	12	4
33	33	24
88	91	2
48	98	3
70	79	6
18	18	16
3	101	5
8	71	1
60	118	4
120	134	5
11	26	3
6	6	29
87	88	4
57	70	4
93	93	5
10	10	24
9	82	5
96	96	12
106	127	3
47	63	1
94	117	3
87	94	2
21	22	2
27	27	15
113	132	2
99	99	9
60	84	2
67	67	21
93	114	6
66	66	16
106	126	1
5	49	5
29	29	17
113	113	12
17	17	14
128	128	4
59	59	8
3	6	2
3	48	5
129	129	9
17	18	3
77	77	18
81	81	15
32	112	4
37	56	3
24	43	1
131	131	10
21	21	11
107	108	2
121	122	6
56	84	4
111	118	3
56	56	12
30	48	3
14	16	3
112	112	12
71	79	3
23	43	3
18	60	1
8	47	1
7	45	2
11	88	2
118	119	5
3	5	3
6	82	10
25	26	5
87	96	1
69	134	2
5	21	1
61	62	3
39	40	3
28	79	1
95	96	4
27	28	11
118	118	9
51	51	2
23	23	17
5	5	21
80	80	25
71	72	5
29	55	1
111	111	11
55	115	4
31	49	6
28	29	1
47	48	5
121	121	15
24	25	3
41	41	5
22	26	5
40	42	1
27	84	2
55	55	8
73	76	5
34	35	1
45	70	4
55	56	5
7	14	1
73	73	23
9	46	2
26	43	2
34	36	7
126	127	4
64	64	22
94	125	3
84	85	5
25	81	7
86	86	35
31	34	3
132	134	3
65	75	2
19	19	12
129	130	6
71	112	5
7	41	1
95	100	3
72	77	2
106	123	2
27	93	5
8	45	6
105	128	4
37	38	5
0	0	8
87	97	3
94	127	1
9	92	1
108	108	5
63	80	1
2	74	1
51	56	1
65	65	21
114	114	3
113	116	2
88	88	2
21	30	3
14	84	2
29	48	6
8	62	2
82	82	6
90	91	5
110	111	9
13	16	3
28	112	1
78	108	2
30	59	4
116	117	2
100	100	18
96	98	4
27	45	4
70	84	4
78	79	8
115	116	4
7	44	2
27	90	8
120	120	8
132	132	5
21	25	1
9	43	2
133	134	8
37	37	28
27	75	2
32	111	1
58	79	6
21	60	3
40	41	2
106	107	1
3	12	3
62	76	4
122	123	1
8	17	5
85	114	5
11	16	3
113	131	5
67	68	5
99	100	3
107	107	7
127	127	7
30	49	3
84	92	3
31	56	3
13	45	3
20	42	1
42	42	4
65	66	2
6	15	1
26	80	1
3	34	5
42	82	1
11	84	3
35	35	17
34	34	13
68	118	3
108	110	3
62	84	1
130	130	6
61	73	2
79	106	1
39	55	3
69	72	2
39	83	3
61	64	3
123	123	5
58	58	2
1	1	9
69	70	2
49	99	2
29	56	2
32	32	10
32	33	4
115	131	2
20	22	2
11	31	3
94	134	1
6	40	6
55	111	4
88	102	1
13	89	2
58	87	1
5	6	5
39	84	1
36	63	1
91	91	11
128	133	1
98	98	9
120	130	2
75	93	2
115	115	3
126	133	1
106	106	15
120	124	4
70	128	4
97	100	2
45	46	2
57	58	9
13	17	9
79	82	4
82	83	8
106	130	3
91	131	1
41	42	2
21	68	1
32	114	2
22	22	1
40	113	1
123	131	2
93	94	5
26	83	1
62	75	3
8	92	1
22	23	2
3	18	5
8	36	2
22	37	3
35	36	4
9	24	2
37	48	2
30	31	3
6	78	3
55	114	1
28	33	1
22	27	3
39	39	4
48	99	2
37	80	2
13	84	4
26	116	1
127	134	2
23	24	3
60	67	1
26	48	1
6	19	1
70	129	1
60	60	8
15	16	9
79	80	4
13	86	1
25	39	1
16	43	3
43	49	2
112	113	1
113	126	2
74	74	18
29	49	8
19	71	4
16	28	2
11	76	2
21	55	1
94	130	1
11	13	1
88	92	1
18	45	6
58	131	6
24	24	6
31	94	2
74	75	3
11	93	5
43	44	4
14	45	2
64	67	3
18	28	1
89	92	2
56	115	3
5	44	1
81	82	4
106	128	1
23	46	3
70	113	3
8	13	2
15	44	1
29	31	2
31	115	2
11	32	1
84	89	2
66	67	3
112	133	1
123	127	4
64	76	3
124	131	3
57	71	2
78	84	2
18	21	1
90	92	4
61	66	1
54	115	6
78	81	3
3	10	2
31	55	1
100	127	3
32	71	1
60	120	4
100	104	1
62	78	1
6	64	4
116	133	2
112	131	1
13	13	3
8	88	3
90	93	1
10	11	3
26	65	3
128	131	1
46	47	1
25	83	2
7	42	1
111	112	5
25	40	2
67	80	1
88	90	2
31	31	9
26	93	2
48	48	4
108	134	1
102	118	1
47	76	3
94	129	2
85	130	3
89	131	2
94	97	2
108	109	3
17	45	5
45	83	1
102	102	4
116	116	1
64	65	9
25	33	3
70	78	1
55	59	3
14	15	2
94	119	2
126	134	1
110	110	6
85	121	2
109	110	6
4	31	5
64	69	4
96	97	3
26	31	4
31	112	1
105	105	3
44	45	2
33	73	1
14	59	1
29	77	1
121	124	2
49	49	7
38	39	6
124	125	2
95	101	4
66	119	1
26	89	1
39	43	1
12	16	1
87	93	4
117	133	4
25	29	1
32	41	2
106	121	1
16	21	2
5	41	1
133	133	6
56	110	1
4	19	4
89	100	1
40	40	5
14	40	1
100	134	2
43	45	2
57	63	2
42	45	1
25	35	2
99	103	2
11	15	1
27	67	3
92	93	4
114	115	3
40	83	1
40	81	4
124	132	1
70	71	5
71	85	1
21	59	1
4	6	4
4	94	2
29	112	3
5	78	2
72	118	2
29	80	3
73	74	3
121	128	2
27	83	2
25	56	1
89	132	1
106	124	2
12	13	7
107	112	1
8	46	1
36	37	3
122	126	5
21	29	1
30	79	2
63	65	1
26	32	2
86	129	1
105	129	4
41	55	2
91	98	5
111	115	1
62	65	2
27	30	2
40	56	1
33	74	2
83	84	1
27	97	1
14	44	1
15	82	1
57	109	1
70	81	1
103	121	1
88	94	1
21	85	1
106	120	2
6	42	1
39	48	1
80	112	2
26	36	2
86	96	1
0	1	2
96	99	1
124	128	1
39	42	1
33	35	1
3	11	1
98	102	2
29	60	4
29	94	3
29	32	2
60	71	1
50	50	2
89	93	1
101	103	1
7	90	3
3	70	2
82	107	1
3	9	1
104	134	1
31	107	3
7	75	3
81	115	2
41	43	2
115	121	1
60	119	1
123	125	1
115	132	1
10	63	2
30	60	1
89	90	4
42	57	1
38	41	1
91	132	1
5	7	2
32	116	1
26	46	1
1	33	3
43	82	2
103	134	1
15	84	1
46	61	1
57	106	2
36	77	2
61	76	1
11	46	1
16	23	2
70	126	1
127	128	1
2	3	1
131	132	1
31	61	3
9	90	1
5	11	1
39	56	1
105	131	1
92	132	1
113	117	1
34	108	1
26	79	4
69	128	1
32	113	1
18	44	2
93	130	2
27	29	1
122	125	1
69	88	1
44	49	2
16	17	1
7	16	1
22	75	1
63	70	1
4	95	1
29	30	2
16	46	1
87	90	1
59	78	1
87	92	1
25	76	1
22	30	1
58	106	1
114	116	1
19	83	1
22	31	2
70	82	1
93	98	1
3	4	1
28	32	1
108	131	1
28	91	1
42	81	1
7	18	1
69	119	1
7	15	1
7	22	1
31	36	1
3	45	2
103	104	1
132	133	1
21	31	1
111	114	1
62	63	1
22	40	1
6	18	1
10	12	1
