138	138	17
52	52	3
58	58	18
40	41	5
57	71	2
64	64	10
42	142	3
107	107	17
119	119	17
91	123	6
30	81	3
53	94	3
49	49	9
24	24	11
88	88	9
29	29	16
102	102	25
24	26	2
23	24	5
2	2	10
74	74	9
94	94	7
62	62	14
50	51	7
112	112	3
142	142	7
114	114	18
56	131	2
68	69	9
92	94	3
3	3	4
0	0	8
8	8	7
128	130	2
15	15	15
96	108	2
140	140	9
65	94	4
84	84	22
16	39	3
135	143	1
42	42	17
52	53	4
34	35	12
136	137	13
95	95	11
134	134	21
4	35	3
10	10	8
119	120	7
41	42	5
141	141	4
16	51	3
140	141	6
60	60	11
34	39	5
26	26	7
50	130	2
103	103	1
22	22	10
73	114	1
91	100	1
37	118	1
65	65	10
68	68	13
39	39	3
136	136	23
115	115	29
35	36	3
139	139	22
38	39	1
130	131	7
33	33	5
35	139	2
67	107	2
74	75	4
19	41	5
100	115	2
16	16	11
130	137	4
90	90	7
30	53	6
95	96	2
54	55	5
90	117	6
18	22	1
107	134	4
61	61	11
34	34	8
89	111	1
66	70	3
120	120	16
23	23	12
99	99	9
17	19	7
142	143	12
14	15	3
102	103	11
34	133	1
129	129	16
122	122	30
43	43	3
125	125	8
27	81	2
81	142	4
55	55	18
64	88	2
123	123	9
77	78	2
108	108	8
36	36	14
133	133	12
94	128	1
130	130	15
77	77	21
2	4	3
101	103	1
109	110	1
135	135	18
28	28	12
47	47	8
106	107	2
121	127	3
38	38	13
51	51	2
50	77	6
68	130	2
144	144	8
118	119	6
104	104	5
131	133	3
132	136	9
4	36	3
130	133	5
69	69	8
41	41	10
102	115	5
126	126	16
48	48	13
4	13	11
131	131	25
21	24	3
18	48	1
105	105	5
58	60	2
113	114	1
71	141	1
118	118	12
107	108	2
66	66	14
73	108	5
17	27	1
132	132	10
79	111	3
55	84	3
48	96	4
117	117	14
57	58	2
135	141	2
50	50	15
137	137	19
17	17	9
76	79	4
3	47	4
118	144	3
63	63	12
83	127	1
72	87	7
1	1	4
56	56	4
18	18	6
61	99	2
116	139	3
71	73	1
61	94	1
82	82	9
118	135	2
72	73	4
72	72	8
55	61	3
97	97	4
97	118	3
25	25	9
13	67	3
9	9	8
114	115	7
5	35	4
85	115	3
35	35	10
42	109	5
69	137	3
22	29	6
32	80	3
37	37	9
135	136	2
35	107	2
95	120	2
57	57	13
133	134	8
69	126	2
114	126	2
79	80	2
5	65	2
69	70	9
21	21	8
91	91	9
105	106	4
1	64	4
26	41	2
34	107	4
121	122	6
37	38	2
33	37	2
92	128	2
69	140	2
30	30	8
59	59	6
80	82	2
93	94	5
64	66	3
82	85	3
110	111	3
78	78	5
124	124	17
85	85	7
98	126	3
106	133	3
76	77	10
83	84	5
9	10	5
81	114	3
42	66	2
3	18	3
93	93	6
96	96	7
72	88	1
62	63	15
124	142	4
56	79	2
67	67	12
110	112	4
6	6	8
20	20	8
106	112	3
61	71	3
132	133	2
43	111	3
15	16	8
56	76	5
15	38	1
69	108	1
73	74	1
127	127	10
146	146	4
84	85	3
65	69	5
2	3	8
145	145	7
122	123	8
35	106	3
80	85	2
56	57	2
0	20	2
114	116	6
104	112	1
70	70	3
37	145	1
82	125	7
27	27	10
84	89	2
53	53	9
32	33	4
78	85	1
32	116	3
143	143	5
84	133	1
71	72	5
12	12	2
76	76	8
83	83	10
70	72	3
14	14	6
85	88	3
40	40	10
121	121	8
40	137	2
100	138	3
129	130	7
96	97	2
121	142	3
73	73	13
19	19	3
35	133	5
80	80	6
124	125	2
49	52	4
5	5	10
100	101	4
27	28	5
58	59	5
137	139	2
127	128	2
74	85	2
22	23	3
129	134	2
123	125	2
13	13	4
99	100	7
33	34	6
111	111	8
53	98	1
49	50	3
99	141	1
99	128	1
15	32	5
29	41	1
87	87	2
10	97	1
5	33	2
143	144	2
145	146	2
6	8	2
75	75	6
47	130	3
62	65	2
105	112	1
103	107	2
98	99	1
83	114	3
69	96	1
72	83	1
28	30	2
71	71	5
81	81	2
31	127	3
100	100	3
6	20	1
4	4	3
128	128	4
18	19	4
15	67	2
103	114	3
28	33	3
140	143	4
91	92	4
1	23	1
100	120	1
131	135	5
101	101	5
32	36	3
32	32	5
5	17	1
87	135	2
128	129	4
53	54	2
86	86	3
98	98	2
103	104	1
128	138	1
126	127	2
5	13	5
66	68	2
56	58	3
119	134	1
110	110	10
97	105	5
79	79	3
137	138	6
21	25	1
32	118	1
31	31	4
104	105	3
119	141	1
108	110	3
91	115	1
11	83	1
89	90	10
57	67	2
84	91	1
96	105	1
135	138	3
38	41	1
9	125	1
26	125	4
136	138	5
106	113	1
126	144	2
51	77	1
91	128	4
67	88	1
48	49	2
68	105	4
93	112	1
25	26	2
107	137	3
14	16	2
131	137	2
14	51	2
84	115	2
133	135	4
57	76	4
68	113	1
109	139	2
33	134	1
60	64	1
64	65	1
106	106	5
34	128	1
95	97	1
43	124	2
2	64	1
25	124	1
59	91	2
31	128	1
31	98	1
32	126	1
12	27	2
4	5	4
42	52	1
115	128	1
91	127	1
68	115	3
75	77	1
33	126	2
122	124	2
39	48	1
2	6	2
81	131	4
80	110	1
37	83	3
136	140	1
94	95	2
141	142	1
97	110	3
88	89	1
117	138	1
0	115	2
11	37	3
98	113	2
58	77	1
62	93	3
89	114	1
92	92	3
61	64	1
79	85	4
16	17	2
109	109	8
112	113	1
134	135	4
12	20	2
116	118	1
3	5	2
88	90	2
74	114	1
30	37	3
123	124	4
31	126	2
13	14	3
75	76	2
72	86	1
89	89	6
15	48	1
114	117	2
41	142	4
47	50	1
84	119	2
6	14	1
8	26	3
73	104	1
60	61	2
58	67	1
15	52	1
18	28	1
31	66	1
8	10	2
37	39	2
92	93	1
65	98	2
84	87	1
138	139	2
85	87	1
39	40	1
144	145	1
92	111	3
87	102	4
66	126	2
11	36	1
95	131	1
6	24	2
121	123	1
1	2	2
30	127	1
83	116	2
33	36	1
35	136	2
20	40	1
129	131	1
51	130	1
35	66	2
13	17	1
126	129	1
63	72	1
141	143	1
139	140	3
18	20	1
116	138	1
100	124	1
99	129	1
68	95	1
99	109	1
48	134	1
74	78	1
41	145	1
116	117	2
39	41	1
53	128	1
4	24	3
16	145	1
54	54	1
98	105	1
29	30	1
123	127	2
68	137	1
47	105	1
107	115	1
98	107	1
34	66	1
9	96	2
4	47	1
125	129	1
89	112	1
131	139	1
75	89	1
11	11	1
101	143	2
103	112	1
84	138	1
120	121	2
27	35	1
53	79	1
113	115	1
131	134	1
116	116	1
18	56	1
32	127	1
0	71	1
111	112	1
42	131	1
10	11	1
10	96	1
85	104	1
65	66	1
114	133	1
55	58	1
21	40	1
73	118	1
