1	1	7
65	65	7
33	35	2
48	49	4
111	111	7
16	16	2
147	147	4
26	28	4
133	133	6
38	38	7
163	164	4
105	105	8
154	163	2
138	138	7
17	17	5
94	95	2
155	155	3
36	36	3
123	123	4
47	48	4
75	75	1
167	167	3
4	125	2
54	55	8
143	143	3
114	115	4
74	74	4
153	153	5
84	85	6
4	4	2
118	118	2
3	3	4
150	150	4
40	41	3
63	63	6
69	69	4
80	80	2
64	65	3
132	132	5
170	170	5
57	64	2
157	158	2
109	109	4
3	4	4
98	98	9
73	73	4
115	120	2
84	84	4
15	15	2
116	116	5
112	112	4
103	105	1
97	97	4
0	2	3
76	76	7
1	2	7
81	82	6
56	64	2
45	45	7
34	35	4
5	5	3
140	140	4
35	36	3
107	107	1
12	12	7
20	21	1
108	108	4
44	44	2
82	82	5
46	46	6
41	41	3
124	125	3
113	113	4
159	159	3
16	18	2
4	34	10
69	70	4
51	51	4
72	72	2
48	48	1
86	86	8
68	69	4
125	125	8
15	139	2
18	18	6
26	27	2
11	12	4
79	80	2
103	103	2
158	159	1
136	136	1
68	68	3
14	137	2
67	67	5
110	112	4
0	150	4
43	43	11
46	48	3
107	112	1
148	161	4
158	158	3
146	146	3
96	96	1
136	137	4
160	160	4
21	24	1
68	72	1
7	7	2
90	91	1
128	128	5
142	144	1
5	7	2
152	152	1
37	38	3
52	64	1
169	169	3
163	163	2
88	88	2
126	127	3
13	13	7
36	37	1
25	25	4
4	5	4
157	157	3
85	85	1
3	152	2
127	127	1
151	160	2
39	41	1
23	132	2
137	137	1
151	151	2
26	26	1
104	108	2
111	112	3
87	93	2
16	17	1
92	92	1
118	119	4
9	9	2
0	1	1
24	24	2
28	28	3
107	108	1
83	83	4
47	47	3
101	116	2
9	10	2
79	79	1
161	167	4
67	68	4
138	139	1
148	148	4
94	96	2
87	88	2
126	126	1
82	83	3
66	69	1
63	116	1
70	71	2
91	91	1
56	63	1
2	2	3
12	19	1
39	40	1
24	98	2
109	132	1
121	121	3
112	113	1
11	13	1
97	98	2
10	10	3
49	50	1
58	58	1
42	42	2
147	151	1
117	117	1
52	56	2
24	25	2
47	50	2
46	47	2
105	109	2
70	70	3
164	165	1
9	132	1
114	114	2
114	120	4
7	12	3
164	164	1
119	119	1
148	149	1
20	20	1
37	37	3
23	23	2
55	56	1
85	87	1
168	168	2
11	11	1
165	165	1
52	53	1
71	72	2
100	100	1
162	162	1
83	84	1
130	130	1
128	129	2
109	150	1
120	120	4
142	143	1
142	142	1
1	4	2
99	99	2
40	40	2
37	44	1
19	19	3
166	166	1
110	110	2
145	145	1
62	62	2
134	134	1
151	152	1
34	34	3
95	96	1
55	55	1
74	89	1
156	156	1
74	75	1
4	151	1
50	50	1
105	113	1
56	56	2
64	64	1
156	157	1
46	52	2
95	97	1
44	56	1
