17	17	7
96	96	8
76	79	1
113	113	6
6	79	3
25	25	8
39	40	5
128	143	6
81	81	9
118	118	10
86	86	6
123	126	1
18	114	1
106	106	5
83	154	4
63	80	6
78	78	14
94	94	10
44	44	8
32	32	7
143	145	6
57	57	8
129	132	4
88	88	7
65	76	4
64	64	8
66	79	3
35	35	14
39	39	12
21	22	6
14	14	6
132	132	4
16	107	4
79	79	3
67	71	2
37	40	1
98	98	8
90	113	4
85	91	4
104	104	5
20	21	7
22	23	5
69	69	8
88	92	2
8	9	3
125	144	8
85	86	9
16	55	3
132	150	4
85	85	8
29	32	2
147	148	2
16	23	2
43	44	2
49	49	10
69	72	1
67	72	3
79	80	9
4	6	1
39	42	3
123	123	4
18	18	10
6	22	4
135	135	8
80	80	8
26	77	1
74	74	3
71	71	10
103	127	4
123	124	4
50	50	8
34	35	12
49	91	2
154	154	6
38	38	9
21	51	4
120	120	2
53	54	8
23	77	2
31	31	9
27	27	5
75	75	3
26	27	3
117	117	6
34	34	10
5	6	10
23	23	11
23	69	1
62	62	6
2	7	1
93	137	2
4	4	8
72	80	1
99	99	13
13	14	1
28	29	6
30	30	3
87	95	2
6	78	1
115	115	2
133	133	11
6	63	4
37	39	1
46	47	2
90	95	4
109	109	7
61	64	1
92	92	3
77	77	9
8	8	5
115	122	5
101	121	2
99	102	4
102	143	2
67	67	13
5	7	3
99	123	2
22	44	3
43	43	4
11	12	4
143	143	4
113	114	3
120	121	5
7	15	1
34	73	1
64	88	2
82	82	8
124	124	8
49	64	3
49	85	1
28	28	7
130	130	4
89	89	2
48	77	2
126	147	3
47	49	3
151	151	7
95	95	3
144	144	6
67	78	2
15	53	6
114	117	2
33	84	2
6	7	2
129	129	4
125	137	3
14	15	2
3	3	5
119	122	4
46	48	2
102	142	3
141	142	5
116	138	5
40	67	3
58	62	2
62	64	3
116	116	3
66	80	3
100	122	6
148	148	11
95	114	2
67	68	1
146	146	7
36	36	14
33	33	5
139	139	3
34	36	7
139	145	3
95	96	3
11	13	3
144	145	1
98	99	10
48	48	11
29	30	6
31	79	5
127	137	5
126	127	1
12	12	2
10	18	3
22	22	8
68	68	6
5	5	5
53	53	10
33	37	6
110	111	5
62	75	1
88	124	4
93	94	4
47	89	1
5	49	2
62	76	2
7	7	9
110	110	2
109	111	2
55	55	4
85	87	4
124	126	2
97	113	2
19	19	9
102	103	3
52	52	2
134	135	5
46	46	7
14	18	2
66	94	4
12	19	3
84	87	7
140	141	2
37	38	1
32	65	3
70	70	6
131	131	8
7	11	2
50	66	1
81	82	2
80	85	1
25	26	2
23	44	4
75	76	1
153	153	2
110	125	3
76	77	1
25	40	2
80	86	1
29	29	3
95	113	2
94	105	2
10	33	5
6	28	2
13	13	4
16	34	2
92	103	1
54	54	2
130	131	1
80	81	8
69	71	1
50	64	1
129	130	3
15	112	2
10	10	4
62	67	1
62	65	2
40	40	5
139	142	2
110	127	3
102	102	6
134	134	3
20	20	2
50	51	4
40	42	1
11	22	3
128	148	1
72	74	2
31	32	3
3	21	5
51	54	1
87	93	2
116	139	1
141	146	3
19	55	2
72	72	3
37	37	5
11	11	10
100	107	2
61	94	4
126	128	1
96	138	3
119	119	11
47	48	4
128	128	5
65	65	2
66	99	4
9	40	2
72	73	2
9	55	1
63	63	2
125	125	3
117	125	4
62	84	1
11	14	1
9	19	3
19	39	2
101	107	2
25	81	2
38	39	1
8	13	1
31	33	6
27	75	1
9	10	3
9	9	4
146	147	4
38	58	1
35	68	1
40	133	1
8	64	1
129	133	2
37	77	1
33	35	2
103	135	1
70	76	2
33	38	2
70	73	3
15	16	3
42	42	7
21	47	1
142	142	5
46	54	2
85	135	3
99	112	1
84	84	7
24	24	4
64	76	3
45	45	10
102	111	1
17	18	6
22	93	1
116	122	1
42	43	3
41	41	6
66	66	4
76	76	5
3	23	1
135	148	2
149	151	1
47	47	4
61	61	1
149	150	4
35	36	3
26	79	2
13	41	5
49	50	3
54	66	1
69	89	2
112	143	3
110	126	2
32	33	1
56	56	3
137	137	2
105	105	5
63	87	4
72	107	3
26	101	3
94	97	1
147	147	5
116	123	2
26	26	2
18	19	1
62	63	1
66	67	5
58	58	5
35	40	1
87	87	7
95	123	2
80	83	1
34	37	2
33	82	4
114	114	2
20	22	2
90	105	2
129	135	2
30	51	1
113	138	2
4	94	2
100	113	1
41	43	3
25	66	1
63	64	2
77	79	5
63	76	1
51	52	1
86	87	2
26	69	2
74	98	2
24	89	1
51	62	2
13	16	4
127	127	1
73	73	6
87	104	1
7	16	1
19	20	3
39	43	4
24	71	3
16	19	2
125	126	6
152	152	4
141	151	2
16	16	3
122	122	1
48	53	2
3	27	1
96	116	3
22	69	2
22	51	1
28	93	2
48	51	2
7	30	1
24	72	2
83	84	1
67	80	1
42	50	2
5	57	1
138	138	2
102	108	1
132	133	1
84	88	1
132	135	1
26	95	2
28	45	1
76	104	1
7	22	1
145	146	1
103	103	1
136	143	2
125	128	2
5	30	2
64	94	2
34	57	2
58	75	1
136	137	1
31	50	1
24	40	1
130	148	1
19	22	1
121	121	3
12	17	2
107	107	2
5	23	1
38	43	1
94	95	1
11	17	1
145	147	2
54	55	1
87	90	2
65	66	1
93	125	1
6	11	3
40	76	1
51	51	2
32	58	1
25	93	1
111	111	2
94	98	1
92	111	1
112	112	2
30	95	1
116	117	2
6	6	2
31	103	1
13	19	1
101	101	1
110	143	1
100	102	2
21	21	2
40	49	1
58	72	1
137	145	1
15	114	1
58	93	1
37	41	1
19	44	1
135	138	1
77	98	1
115	116	1
10	13	1
27	51	1
4	26	1
131	132	1
9	18	1
139	144	1
94	99	1
117	122	1
20	32	1
136	136	1
6	64	1
53	55	1
51	56	1
103	104	1
10	20	1
68	69	1
68	93	1
