52	52	16
7	16	9
57	57	20
57	83	2
85	85	15
55	56	4
71	71	9
75	76	5
9	54	3
56	56	9
5	6	3
79	79	12
78	78	15
50	87	2
52	81	1
75	82	6
7	8	3
63	63	9
53	54	3
66	66	20
83	84	6
16	17	2
76	79	1
14	14	8
26	28	1
27	27	10
30	30	8
13	13	2
31	31	7
68	68	11
74	84	2
74	74	3
0	1	5
88	89	1
47	47	8
59	82	3
84	84	14
24	24	7
53	53	10
1	1	10
26	27	4
10	10	5
8	8	5
86	86	4
28	30	1
17	18	2
23	23	2
61	61	6
80	81	3
11	11	17
64	64	7
5	83	4
89	89	11
50	50	3
22	26	2
26	26	7
51	52	2
67	67	7
59	59	8
81	81	8
8	12	4
60	60	5
24	27	6
29	30	2
7	17	3
62	65	2
17	17	5
2	2	10
76	76	9
5	5	5
60	61	6
9	19	2
58	81	2
58	66	3
70	72	2
83	83	2
34	34	9
12	17	1
9	13	1
90	90	5
82	82	5
53	55	3
54	54	9
69	69	4
51	66	2
50	51	10
71	72	4
11	21	5
6	6	5
20	20	7
48	48	4
80	80	6
75	75	11
73	73	8
51	51	6
49	49	6
72	72	4
25	25	9
10	11	2
72	73	2
5	7	2
86	87	7
51	83	4
7	7	2
8	17	1
47	67	1
79	80	2
48	49	7
68	69	2
49	80	2
6	17	3
4	4	5
75	84	1
71	74	2
5	19	4
60	81	2
23	24	3
28	28	4
75	77	3
17	26	2
76	80	1
54	65	4
50	53	1
16	16	5
9	10	1
56	71	1
6	7	3
12	13	6
22	22	2
61	64	5
83	86	1
58	60	1
3	29	2
19	48	2
3	27	1
21	21	5
53	57	7
13	19	1
54	55	6
9	9	2
67	73	1
46	47	2
48	60	2
65	66	2
85	88	1
27	28	1
49	60	2
63	64	7
4	27	1
47	48	1
70	71	1
75	79	3
74	75	4
56	65	3
59	88	4
67	68	1
59	60	3
68	87	3
19	50	2
47	49	2
55	68	3
88	88	1
65	65	5
15	19	1
63	78	2
55	55	5
77	77	6
23	25	3
51	53	3
6	8	1
82	83	5
3	3	2
61	62	2
57	58	3
58	58	6
22	24	1
5	82	1
63	65	2
33	35	1
60	83	3
6	11	1
70	70	2
77	79	1
59	62	1
52	63	1
58	61	1
64	65	1
53	63	1
76	77	1
25	26	1
0	2	1
50	86	1
24	25	2
22	23	1
5	20	2
51	80	1
56	72	1
26	29	1
12	12	1
