0	10	5
10	11	5
15	17	2
121	121	10
71	124	5
49	49	5
14	15	4
125	125	3
129	129	1
76	76	5
64	64	4
27	33	2
5	5	12
104	110	4
117	117	6
6	6	6
61	61	3
113	113	3
44	44	1
107	107	7
22	22	7
103	103	3
88	88	9
56	56	4
108	108	5
67	71	2
128	130	5
112	112	5
65	65	6
29	29	4
18	18	4
124	125	3
56	60	4
65	80	1
31	31	3
83	85	3
34	65	3
83	84	5
96	96	6
102	102	4
55	55	5
130	130	3
116	132	1
90	92	3
81	81	3
13	15	4
1	1	3
28	28	1
13	24	1
86	86	2
54	54	7
12	50	5
90	90	3
68	68	3
101	101	9
111	111	4
73	74	2
27	86	2
46	46	4
104	104	1
83	83	2
85	85	6
67	67	2
109	109	3
109	112	5
41	41	3
45	45	4
104	125	3
48	48	1
126	128	2
46	47	1
0	0	3
21	22	2
77	85	4
67	68	4
94	94	2
92	92	3
70	70	1
108	129	2
61	100	2
99	99	4
121	123	1
14	14	3
30	30	4
0	132	2
10	10	10
106	107	1
77	77	3
45	97	3
62	92	2
89	91	1
50	50	3
19	33	1
123	123	4
19	19	2
120	120	1
74	74	2
52	52	4
51	51	3
57	122	2
4	24	4
78	78	2
53	54	1
124	124	3
13	13	2
94	95	2
66	74	2
104	133	3
22	39	2
20	20	2
70	125	2
39	40	3
0	117	2
75	75	1
48	124	2
104	123	1
66	66	3
33	33	2
112	113	1
16	23	2
24	25	1
45	46	1
77	78	1
79	79	3
128	129	3
59	123	1
93	93	4
88	89	2
42	42	3
64	65	1
91	92	4
15	16	5
16	17	3
14	17	1
95	121	3
7	43	1
70	72	3
21	21	1
9	9	3
131	131	2
23	23	1
108	109	1
4	4	6
63	63	1
16	16	1
102	126	1
5	15	2
98	98	2
75	78	2
26	26	1
60	60	1
16	34	2
127	131	1
110	110	1
40	40	1
71	71	1
66	72	2
128	128	1
12	12	1
97	97	1
106	106	1
100	100	2
19	25	1
111	114	1
58	58	1
25	25	2
51	52	1
31	32	2
102	103	1
101	102	2
16	120	1
69	69	1
38	39	1
91	94	2
14	21	2
3	5	1
119	119	1
43	43	3
9	39	1
97	98	1
84	85	1
57	60	1
108	131	1
27	27	1
2	5	3
89	89	1
80	80	1
88	93	1
48	57	1
72	75	1
50	51	1
2	16	1
77	79	1
95	95	1
59	63	1
87	87	1
27	28	1
