47	48	8
69	69	18
16	16	2
54	54	11
60	61	6
14	14	7
3	3	18
66	66	18
77	77	18
86	86	9
59	62	9
50	50	13
88	88	4
84	84	17
66	83	3
2	75	2
63	63	10
60	60	21
29	29	3
72	72	14
5	5	14
12	12	7
10	11	4
24	24	7
8	8	8
47	59	7
87	89	1
46	46	7
58	58	9
52	52	17
7	8	5
59	59	21
16	19	1
56	56	11
85	85	12
75	75	10
62	77	4
7	7	4
89	89	10
2	2	9
26	27	7
68	68	20
64	64	14
7	9	7
78	79	13
20	21	2
19	19	7
21	21	3
75	84	4
12	15	1
11	11	13
31	31	5
22	50	1
68	89	4
79	79	15
24	26	3
26	26	9
81	81	6
1	19	4
53	53	18
51	52	2
9	9	16
27	28	3
74	81	1
67	68	4
24	27	1
25	28	2
22	23	5
13	13	5
49	49	2
4	4	8
13	20	1
24	67	1
86	87	3
71	71	7
86	89	2
55	58	3
61	61	14
24	48	1
13	26	1
47	63	1
58	70	3
15	27	1
57	58	4
70	70	9
85	87	1
73	73	10
72	74	2
52	60	6
5	6	5
58	59	1
65	65	10
52	61	2
32	46	2
63	83	4
17	20	6
46	48	6
12	27	2
22	22	11
80	80	10
51	51	14
67	67	13
48	49	7
6	6	3
87	88	4
52	65	5
30	30	8
89	90	2
53	58	1
72	73	2
47	47	12
22	59	1
62	65	3
63	65	3
65	66	1
23	23	13
16	22	3
74	74	3
82	83	4
57	57	6
62	62	9
49	50	1
82	82	13
74	78	2
78	78	5
83	83	11
50	51	4
28	29	1
14	34	1
18	18	5
76	76	9
20	20	10
1	1	5
50	83	1
11	14	2
34	34	12
73	74	2
76	79	4
87	87	8
48	48	10
21	27	3
25	27	2
64	65	3
3	4	3
73	81	1
15	15	3
28	28	10
25	26	6
58	84	1
5	7	1
11	17	3
47	49	2
8	9	6
10	10	6
55	76	5
27	61	2
9	13	1
73	86	1
80	84	3
49	52	3
24	25	1
12	13	7
0	0	9
80	86	1
72	80	3
13	14	1
56	83	1
4	24	2
7	63	1
47	62	2
7	51	1
22	46	2
25	25	2
68	69	4
53	54	2
56	57	1
31	51	1
75	76	1
12	19	1
55	55	5
10	20	1
63	64	3
50	81	2
6	21	1
56	66	4
11	12	1
30	72	1
27	27	7
3	20	3
74	75	5
13	16	1
68	88	1
5	19	2
56	67	1
28	69	2
78	80	6
7	10	1
76	77	2
19	20	5
55	64	4
27	58	3
53	55	2
66	69	1
50	52	5
34	35	2
46	53	1
84	86	1
56	58	2
52	59	1
75	79	1
50	66	1
26	31	1
50	64	1
51	83	1
90	90	1
10	48	3
6	17	1
49	64	1
62	63	2
70	75	2
58	61	3
52	56	1
75	80	3
9	19	2
6	47	1
4	10	1
46	75	1
81	83	2
20	22	1
8	70	2
77	78	2
51	77	2
50	53	2
22	24	2
26	48	2
22	27	1
59	60	1
8	31	1
8	50	1
9	10	2
64	80	2
17	17	2
51	55	1
21	51	1
54	61	1
11	31	2
14	19	1
15	16	1
81	82	1
46	51	1
58	78	2
64	82	2
12	20	1
6	51	1
86	88	1
6	13	3
78	82	1
5	31	1
80	81	1
85	86	1
4	5	1
10	18	1
59	66	1
17	26	1
12	51	1
48	73	1
55	56	1
48	55	1
6	12	1
80	82	3
4	19	1
46	54	1
72	75	1
61	75	1
9	18	1
52	66	1
57	81	1
20	26	1
52	53	1
84	88	2
58	60	1
23	24	1
4	11	1
8	72	1
11	20	1
6	11	1
29	30	3
59	83	1
1	2	1
59	61	1
22	52	1
6	50	1
