98	98	8
91	107	2
111	111	5
121	121	5
38	39	4
122	122	3
152	152	13
147	147	4
78	78	4
112	112	5
71	72	15
91	94	2
30	34	1
165	165	6
118	118	9
6	6	14
128	128	9
152	169	3
15	15	2
96	120	1
138	138	1
82	84	2
81	93	1
157	157	5
97	97	1
154	164	3
102	115	1
39	48	4
103	104	2
176	177	2
65	65	12
35	35	8
74	74	2
11	11	4
45	45	4
74	77	2
15	17	1
142	152	1
155	156	8
81	81	8
10	61	2
67	67	5
66	66	4
93	138	2
148	189	1
115	120	2
151	152	2
58	58	5
82	82	7
187	188	4
186	186	5
97	98	1
37	48	3
1	1	3
70	70	4
28	29	2
72	72	7
35	36	1
161	161	3
16	16	5
135	136	5
37	37	4
180	180	2
9	10	2
25	25	5
130	130	6
84	84	5
40	40	7
62	62	1
63	65	1
83	91	1
124	127	3
26	30	1
184	184	4
15	16	3
5	5	3
172	189	2
112	132	2
157	158	2
17	17	5
5	21	3
0	0	2
117	133	1
64	64	5
128	129	4
27	27	3
61	61	4
177	177	2
131	131	2
45	46	6
73	73	10
129	134	5
153	170	3
38	38	6
159	159	5
77	77	7
151	151	1
47	47	9
153	153	2
58	73	4
24	24	3
31	34	3
54	54	3
143	143	7
104	105	4
124	125	5
174	174	5
82	87	4
89	89	4
109	109	7
129	135	1
20	21	2
76	76	10
168	169	2
26	28	2
102	102	4
117	118	6
131	133	3
147	148	2
171	171	1
117	117	1
98	115	2
48	48	4
116	117	1
39	39	6
124	124	4
129	129	5
162	162	6
22	22	2
164	164	4
53	53	5
14	14	4
154	154	1
168	182	1
5	57	1
13	13	6
145	145	3
44	46	5
125	125	3
1	6	2
22	23	3
175	175	1
5	6	1
30	32	5
57	59	1
79	79	6
20	20	2
56	58	2
179	180	2
90	90	6
59	60	6
94	94	3
149	149	7
32	32	4
169	169	4
170	170	1
115	115	4
16	31	1
23	23	7
0	46	2
178	179	4
23	24	2
123	124	1
42	42	8
99	101	2
124	126	1
80	81	3
46	46	3
101	101	2
142	142	6
134	136	2
143	146	5
126	127	4
118	120	3
181	181	2
108	109	1
94	110	3
115	151	2
70	71	4
137	138	2
3	3	4
44	44	4
27	28	5
19	20	1
136	138	1
78	79	3
5	64	2
87	87	5
96	96	2
156	156	4
135	135	4
136	139	2
146	162	3
35	48	1
99	118	2
47	48	2
188	188	1
156	157	2
85	85	2
21	21	3
142	157	1
148	149	2
106	106	1
122	123	1
107	108	3
81	82	2
95	97	2
75	75	3
10	62	2
155	155	6
5	7	4
140	142	5
28	28	2
113	128	2
182	182	1
141	141	3
110	111	1
95	95	1
102	114	2
139	139	4
106	108	3
115	116	1
149	150	2
136	136	5
138	161	1
19	19	1
42	43	7
24	33	1
88	88	2
10	10	4
83	83	4
110	110	4
99	100	2
12	12	2
37	44	2
83	94	2
158	162	1
12	37	3
120	129	2
10	36	2
125	126	3
103	103	1
114	114	2
7	7	1
56	57	4
41	42	2
87	88	1
152	154	2
92	93	2
137	137	2
104	104	1
109	114	1
129	130	4
132	132	1
40	41	5
75	76	2
136	137	3
121	122	1
57	60	1
36	36	2
14	47	1
91	135	2
4	11	4
122	129	1
114	116	1
30	31	1
144	144	3
140	140	3
17	18	2
83	103	1
34	34	3
33	33	1
95	107	1
138	139	2
31	31	2
123	127	3
35	47	1
79	86	1
148	148	1
4	6	1
175	183	2
140	141	1
55	55	1
114	137	1
163	164	3
127	127	2
2	3	1
113	113	3
180	181	1
83	101	1
105	106	1
172	173	1
144	145	1
57	57	1
95	98	2
14	52	2
126	126	1
100	100	1
161	162	1
120	120	1
176	176	1
71	71	3
29	30	1
8	8	3
167	167	1
84	87	1
95	103	1
82	86	1
93	93	2
6	21	1
52	53	1
62	63	1
7	8	1
83	84	1
166	166	1
105	105	1
91	92	2
80	92	1
99	102	1
93	107	1
79	80	1
36	37	2
19	22	1
99	99	1
77	78	2
41	41	1
117	119	1
101	103	1
107	107	1
4	7	1
170	187	1
127	128	1
