46	46	8
19	20	9
61	61	16
33	68	1
40	41	5
74	74	4
73	74	5
79	79	14
37	37	5
1	1	23
52	52	6
73	73	24
49	49	13
71	71	5
20	21	1
27	27	8
57	57	19
75	75	18
38	38	11
41	41	16
11	11	18
16	16	9
36	36	8
70	70	13
26	26	13
63	63	9
60	62	8
68	68	18
17	21	2
42	43	1
4	37	2
17	26	8
27	28	7
10	10	22
35	40	3
40	40	15
29	30	3
50	51	2
15	15	6
65	65	11
47	47	20
10	11	4
53	67	3
80	81	2
8	8	18
46	57	1
78	78	16
58	59	4
10	31	1
18	18	7
59	59	11
45	45	11
70	72	1
10	15	5
80	80	11
0	0	15
49	50	3
33	33	7
19	19	9
29	29	10
2	2	19
8	9	4
63	65	3
53	54	11
77	77	4
3	3	9
65	66	4
67	68	9
6	6	10
11	12	4
12	70	2
57	58	7
56	56	7
3	4	11
7	7	12
60	60	3
30	30	13
70	71	3
50	53	1
5	5	8
35	35	12
42	42	3
30	33	4
72	72	11
71	72	11
30	31	1
25	25	12
59	62	2
66	66	12
20	61	1
14	14	3
21	22	2
22	22	3
55	55	11
58	63	1
39	39	15
1	45	1
48	55	5
69	69	5
41	42	8
52	53	2
13	14	11
56	57	4
64	64	17
76	77	2
13	13	2
47	48	9
20	20	6
58	58	4
3	76	5
8	53	2
9	9	7
51	51	5
17	17	7
74	75	5
4	39	1
59	64	1
27	29	3
4	4	6
67	67	7
28	28	9
6	7	4
12	12	5
51	52	2
68	69	3
33	34	5
60	61	3
48	48	4
46	55	1
74	76	1
63	64	3
31	33	1
34	34	10
4	38	1
54	54	13
15	65	1
60	63	1
21	21	5
14	68	1
45	73	2
37	38	2
10	14	3
46	63	1
19	62	1
9	67	2
34	35	1
59	61	1
18	65	1
42	59	2
44	44	2
45	46	2
66	68	4
61	62	4
2	3	4
11	68	1
42	48	1
49	52	3
3	39	2
5	34	1
30	53	4
75	76	2
4	40	2
29	36	4
22	25	1
39	59	1
32	32	2
55	56	2
46	56	1
31	31	5
36	37	1
11	74	2
54	56	2
41	59	1
37	64	1
58	60	3
0	3	1
1	2	3
43	67	1
48	49	2
46	47	1
45	53	1
8	50	2
55	57	2
0	2	2
5	6	2
76	76	5
15	74	3
25	76	1
44	45	2
50	52	1
31	32	1
4	5	1
59	65	2
28	29	3
16	17	1
53	53	2
35	41	1
17	18	2
50	50	3
6	17	1
7	8	1
54	55	1
0	45	2
62	64	1
3	75	1
71	74	1
38	39	1
50	54	1
38	60	1
30	42	1
77	79	1
18	19	1
53	55	1
26	76	1
