70	70	13
94	95	9
96	96	22
91	91	15
74	79	6
24	25	1
81	81	15
83	86	4
46	46	16
20	20	16
85	85	9
55	56	7
31	31	8
92	92	21
110	110	22
44	44	13
52	64	1
21	51	3
30	30	21
26	26	12
41	42	17
39	107	2
34	34	13
43	68	2
97	98	6
91	107	3
59	59	5
45	46	16
68	68	13
33	34	7
61	73	2
77	79	8
73	74	14
69	72	4
114	114	14
49	49	19
53	63	4
97	97	20
50	51	11
74	80	3
77	77	12
93	93	12
51	51	10
35	37	2
68	70	6
71	72	7
83	84	3
93	99	1
78	79	8
22	22	16
103	103	30
19	20	1
53	56	3
87	88	9
109	109	24
87	89	7
74	74	15
90	90	24
76	76	16
105	106	6
87	87	7
52	65	9
62	62	11
38	38	5
50	50	22
72	72	8
21	21	11
95	95	14
75	76	17
35	35	7
27	28	6
34	84	5
115	115	6
68	69	2
106	107	7
84	84	14
75	75	14
85	87	2
59	61	1
35	36	8
86	86	10
64	64	13
45	45	12
113	113	16
65	65	16
93	101	2
47	48	6
32	73	2
37	38	4
111	112	3
52	52	8
27	27	21
48	49	6
101	102	13
48	48	13
19	19	6
58	58	11
32	32	13
86	89	1
103	104	18
90	104	2
64	85	3
72	92	4
92	93	6
73	76	4
33	33	10
79	80	1
98	99	3
25	71	2
66	98	9
71	71	9
46	99	3
83	98	1
106	106	12
102	107	8
100	100	10
63	85	2
42	42	14
69	69	17
75	92	5
28	28	9
88	89	5
103	109	1
73	73	9
74	110	1
95	111	5
72	82	3
106	108	5
111	113	3
102	102	4
40	40	9
107	107	13
110	111	6
32	42	4
66	79	2
66	66	12
82	82	8
105	105	10
53	62	4
89	93	4
20	21	3
44	45	8
100	101	3
74	75	9
32	83	2
98	98	6
108	109	2
78	78	9
101	101	9
44	47	2
74	81	5
109	110	8
65	66	3
108	108	7
97	99	3
90	91	12
30	70	2
67	68	2
108	111	3
104	104	7
104	106	2
56	61	2
79	85	3
43	44	5
104	105	4
47	47	10
81	100	1
79	92	3
112	112	6
85	102	4
85	86	3
67	67	4
91	98	1
29	29	20
34	35	4
82	87	2
95	96	9
60	60	12
70	74	3
61	62	6
31	43	4
94	94	3
86	90	5
45	47	1
99	99	6
51	65	3
30	31	6
26	71	1
43	43	3
68	78	1
53	53	1
89	90	8
79	79	9
96	108	2
62	64	1
91	97	4
88	88	5
106	109	2
92	108	2
49	50	5
47	49	4
39	39	14
54	61	8
89	91	2
53	55	1
64	67	1
102	103	9
44	56	2
23	61	3
89	89	8
101	110	3
80	100	3
83	83	7
81	94	1
111	111	10
53	54	3
91	93	11
100	112	4
68	77	3
69	74	2
75	95	2
70	71	8
76	78	1
23	23	3
107	108	5
102	105	1
65	98	4
94	109	4
112	113	3
61	63	7
41	41	13
73	75	1
75	103	1
80	80	4
113	114	8
26	27	4
40	41	3
22	43	1
26	62	2
42	44	2
28	29	3
74	109	1
73	96	1
36	36	5
20	59	1
90	105	1
38	39	3
22	60	1
22	71	4
33	38	5
73	80	1
50	56	2
82	83	4
63	69	3
37	79	3
58	59	1
33	76	6
51	52	3
33	83	3
37	37	6
85	90	2
86	87	3
80	99	3
32	80	3
79	84	3
80	81	6
57	61	2
47	99	2
86	91	2
68	86	1
32	43	2
75	82	2
73	110	1
51	53	3
42	43	5
64	65	4
76	79	3
99	111	2
91	105	1
76	91	1
56	56	7
24	43	1
105	107	1
39	40	1
103	105	1
88	90	1
59	60	3
73	109	1
99	100	2
41	43	1
93	98	1
96	97	2
82	94	1
63	63	2
69	70	2
81	83	4
63	64	3
104	107	1
61	61	3
26	70	1
75	94	2
32	41	1
87	101	1
53	61	2
79	94	1
92	98	2
51	59	1
98	112	1
86	102	1
58	60	2
93	105	1
71	73	1
85	95	3
75	77	1
91	103	1
114	115	3
85	93	1
82	84	2
79	95	1
21	22	2
51	64	1
70	73	1
71	96	1
74	76	1
76	77	1
45	67	1
54	69	1
24	26	1
27	72	2
43	45	2
61	69	1
101	103	1
27	30	1
76	92	1
103	111	1
90	98	1
44	54	1
23	40	2
71	97	2
29	73	1
54	55	2
31	32	2
69	78	1
24	24	1
43	85	1
83	85	1
69	71	1
27	29	1
30	41	1
39	88	1
54	54	1
28	73	1
62	72	1
43	73	1
69	77	1
56	58	1
80	93	1
34	36	1
