144	144	5
24	24	6
151	151	15
90	90	11
92	96	1
104	105	7
2	2	9
23	23	10
10	10	4
94	95	2
72	72	3
26	26	18
46	46	6
136	137	7
156	156	11
104	104	5
111	111	12
78	78	4
25	27	3
57	63	3
148	148	4
98	98	10
114	116	4
37	37	4
19	19	7
155	155	20
126	127	4
21	25	8
93	95	4
120	120	8
121	121	7
21	22	9
147	147	8
8	9	6
128	128	16
146	146	7
105	105	6
113	113	9
118	118	9
6	6	14
86	86	10
131	132	2
120	121	4
139	140	2
35	40	2
18	23	3
22	23	3
134	134	12
137	138	8
8	8	4
31	36	2
152	154	3
70	113	1
50	52	5
85	86	3
81	81	10
25	25	6
23	24	4
93	93	15
131	134	4
86	87	8
95	95	3
112	112	9
40	41	3
136	139	3
141	141	11
48	48	3
97	98	2
128	136	3
133	133	6
88	89	5
5	5	12
92	93	1
142	142	5
36	36	17
42	42	24
68	68	6
73	73	19
130	130	6
99	99	13
80	80	5
17	18	5
17	49	2
54	131	3
100	101	5
34	34	13
82	124	1
82	96	3
16	16	12
123	123	6
158	158	14
67	67	8
98	116	3
108	110	1
71	71	10
157	157	15
7	7	16
114	115	5
153	153	5
69	70	6
152	156	1
100	100	15
107	108	3
125	126	2
67	88	2
55	55	9
81	82	3
14	15	2
101	101	5
103	126	2
94	94	3
141	142	3
127	127	13
55	109	1
44	45	8
92	95	4
108	108	9
97	97	10
156	157	3
45	45	8
51	51	7
33	35	4
142	143	1
150	150	2
79	79	2
17	17	3
65	66	1
126	126	7
30	30	5
22	107	2
148	151	1
12	12	6
132	132	5
24	44	1
7	124	3
32	110	3
131	148	1
75	75	8
43	43	13
39	48	3
54	54	10
51	54	7
110	110	5
28	77	4
47	47	7
93	121	3
45	46	3
106	106	10
43	46	4
92	92	6
88	90	2
9	9	4
68	92	2
90	91	1
82	82	10
79	81	6
116	124	3
65	65	1
98	99	6
25	26	3
131	131	4
18	18	7
151	152	3
47	48	8
4	4	14
30	48	4
49	49	7
71	88	5
86	157	1
148	149	1
111	112	7
70	71	1
48	50	4
35	35	4
41	41	2
117	117	5
72	87	1
33	70	2
33	33	11
83	83	5
68	69	1
50	51	5
39	40	1
42	44	2
40	40	9
53	116	1
22	22	9
6	7	1
66	66	9
46	47	2
41	42	3
157	158	3
123	133	3
88	88	9
11	13	1
67	69	2
119	119	1
85	85	4
47	83	2
96	96	8
129	129	3
0	0	7
156	158	4
154	156	2
86	159	2
75	80	2
96	105	1
26	27	4
24	25	5
32	32	3
91	91	11
44	44	6
7	9	4
52	53	3
42	43	9
124	125	5
39	110	3
40	91	3
102	105	3
73	74	2
34	35	4
102	102	1
32	38	1
107	107	7
38	38	5
137	137	5
87	87	7
103	103	8
45	47	4
21	21	5
7	8	9
84	85	5
70	70	5
105	106	3
134	136	1
81	90	1
108	109	3
91	92	8
31	33	2
77	90	4
29	46	4
110	112	1
93	94	1
130	131	4
154	154	4
31	38	1
122	123	1
34	88	1
101	128	2
110	111	3
152	152	2
27	27	4
1	1	10
92	123	4
146	147	3
118	120	1
101	102	1
117	118	3
70	127	1
19	20	3
10	11	3
33	39	6
27	29	2
29	119	2
31	31	3
42	110	2
80	81	5
2	150	4
135	135	4
42	72	1
21	26	1
122	122	4
144	152	1
131	133	3
41	111	1
126	139	1
62	112	1
14	14	4
116	116	9
3	3	7
24	27	2
134	138	3
28	28	5
106	107	1
38	39	2
51	52	3
129	131	1
5	127	2
45	48	1
114	114	6
123	132	2
3	4	3
84	84	3
91	121	1
7	141	2
28	32	1
113	115	4
53	53	1
40	44	3
11	12	1
116	117	1
50	50	2
32	111	1
88	95	1
37	83	2
57	57	3
8	10	1
82	89	3
98	100	1
79	80	1
143	143	1
37	84	2
67	105	2
8	15	2
129	130	5
75	77	2
27	30	1
6	149	2
132	133	1
140	152	2
41	44	5
30	31	3
77	77	3
76	76	3
118	119	1
66	67	2
89	89	2
89	90	1
81	92	3
28	29	1
152	153	2
90	152	1
91	95	1
37	48	1
133	158	2
109	109	2
30	86	1
37	38	4
5	6	2
13	13	2
30	47	4
80	85	1
31	78	1
138	138	3
54	111	1
12	13	1
27	28	2
145	154	1
140	140	1
29	29	2
149	149	2
153	154	2
33	34	3
35	39	1
135	136	1
97	117	1
133	134	2
105	121	2
52	52	1
139	139	1
147	148	1
36	37	1
23	110	2
0	1	1
4	144	1
18	27	1
46	48	1
136	136	1
155	156	2
9	66	2
91	122	1
56	56	1
67	68	1
87	96	1
115	115	3
122	132	2
35	78	1
99	100	1
62	62	1
95	96	1
125	140	1
120	124	1
99	128	1
7	15	1
35	36	1
98	103	1
136	147	1
17	31	1
147	156	1
