149	149	9
17	18	2
41	41	3
71	71	5
127	130	4
73	73	6
22	23	2
117	118	3
8	10	1
12	12	3
11	12	1
146	147	2
111	112	3
142	142	4
5	5	5
75	75	4
53	54	3
20	24	3
68	69	1
8	8	11
130	130	6
89	89	4
15	19	3
153	153	8
167	167	7
111	111	2
151	151	7
81	81	5
10	10	5
138	139	4
153	164	1
142	143	5
90	91	6
25	27	6
45	45	13
47	47	3
133	133	4
21	21	4
112	114	6
34	34	4
37	38	5
71	74	1
113	113	16
50	69	1
106	106	3
20	21	3
124	124	3
13	16	1
136	136	4
135	135	2
44	45	5
3	3	4
37	40	1
165	165	3
168	168	4
14	17	2
115	118	3
110	110	4
89	92	1
63	63	4
107	115	2
153	154	1
19	19	3
72	72	2
84	87	1
52	52	1
12	14	3
50	63	1
85	85	5
97	99	2
45	46	5
95	96	1
67	67	3
106	107	2
82	83	5
170	170	3
2	3	1
64	69	1
109	109	7
135	137	1
64	64	1
114	114	2
140	142	2
54	69	1
2	2	8
6	7	4
16	21	2
69	69	1
116	116	6
90	90	3
27	27	5
162	162	1
54	56	2
38	38	10
43	44	1
143	143	5
77	77	3
51	51	5
86	87	2
10	11	2
42	42	10
74	74	1
49	49	6
65	67	2
14	16	1
12	15	1
166	166	5
36	36	7
126	126	3
133	134	1
42	43	3
0	2	4
13	15	2
112	113	1
91	91	6
24	24	1
2	71	2
125	153	3
57	57	3
87	87	4
23	24	1
148	148	2
158	159	4
6	24	1
15	15	8
13	13	7
79	79	1
137	155	3
105	105	4
156	156	9
100	101	2
101	103	2
19	23	1
65	65	2
155	155	1
72	73	1
20	20	5
14	14	5
131	131	2
136	154	1
9	10	3
48	48	2
24	25	2
103	103	4
5	6	2
104	115	1
144	146	2
136	151	2
157	158	4
128	129	2
144	144	2
50	50	5
118	121	1
102	102	3
79	80	2
34	35	3
7	7	5
33	33	1
43	43	4
1	1	9
46	46	4
137	138	2
110	111	1
47	52	2
147	147	8
4	4	9
140	140	7
134	134	7
3	5	4
39	39	2
139	139	1
52	80	1
143	144	3
74	76	2
122	162	1
41	42	3
53	55	2
9	9	5
97	97	2
20	22	2
35	37	1
14	15	1
122	122	1
119	163	2
137	137	2
80	82	3
33	34	1
146	146	3
97	98	1
13	14	1
9	75	1
101	104	1
120	121	3
136	137	2
120	120	1
154	154	4
112	112	3
44	64	1
157	157	1
14	22	1
86	86	3
11	11	8
1	7	1
101	102	4
92	92	6
126	127	2
135	136	3
16	16	3
142	165	1
6	9	1
73	74	8
100	100	2
138	138	2
66	66	2
71	77	1
83	83	4
1	2	9
54	57	1
84	84	5
126	128	1
164	165	2
54	54	2
27	38	2
117	119	1
56	56	1
136	159	1
26	26	1
35	35	5
12	13	1
99	99	4
127	127	3
108	108	3
1	111	1
105	107	5
55	55	3
145	145	1
68	68	1
117	117	2
124	161	1
132	132	2
71	75	3
43	45	2
18	19	2
22	22	2
18	18	2
127	158	2
62	69	2
13	43	1
157	159	1
81	82	4
38	85	1
23	25	1
118	118	3
53	53	3
136	158	1
17	17	2
3	7	1
112	117	2
44	44	5
34	39	1
66	68	1
10	13	2
15	16	1
159	159	3
38	40	3
25	25	1
134	136	2
91	93	1
19	24	1
122	125	1
101	101	2
160	160	1
123	123	1
37	37	2
138	142	1
26	27	2
144	149	1
40	40	1
19	20	1
6	105	2
150	152	1
144	147	1
4	7	2
147	148	1
74	75	3
49	72	1
139	140	1
65	66	1
116	118	2
149	158	1
38	39	1
144	145	1
163	163	1
6	25	3
36	37	1
37	41	1
128	128	2
14	24	1
104	105	1
50	51	1
1	3	1
28	28	1
80	80	1
151	152	1
144	165	1
76	76	1
46	47	1
134	135	1
108	116	1
16	17	1
129	129	1
133	143	1
70	70	2
96	97	1
121	125	1
99	100	1
169	169	1
105	106	1
104	104	1
141	142	1
