63	67	3
21	56	3
133	163	5
40	40	6
150	150	3
34	34	19
153	155	1
52	83	5
135	139	2
193	198	4
48	48	10
13	28	3
223	226	3
139	140	3
4	4	8
54	55	2
166	171	1
75	81	2
47	48	1
216	216	6
119	119	2
97	97	14
55	55	3
193	193	6
83	84	4
107	117	2
166	168	2
46	46	3
238	238	7
74	74	25
123	127	1
24	25	4
177	177	10
39	42	4
163	163	3
232	232	22
20	20	29
133	133	6
77	81	3
45	47	1
113	113	17
189	190	2
205	206	10
11	16	4
221	221	3
188	188	11
104	104	6
219	219	6
205	205	7
75	75	4
57	60	9
182	182	6
65	68	4
84	84	8
73	74	12
241	242	5
63	63	10
71	71	9
42	42	5
45	66	2
174	174	18
8	8	17
48	50	4
227	227	2
118	119	12
33	34	6
103	103	14
220	220	3
200	200	4
71	72	6
53	53	11
204	204	3
1	1	6
230	230	13
121	121	5
19	19	8
126	157	3
39	40	9
81	81	7
194	194	7
66	68	3
197	198	9
173	173	8
163	164	4
222	222	13
180	180	10
59	60	3
182	184	3
58	58	8
78	129	3
183	183	12
199	199	9
182	183	2
193	194	4
55	98	2
146	146	2
5	5	18
9	9	15
16	24	2
67	67	9
126	127	5
235	235	12
26	26	2
62	62	14
122	231	1
59	59	4
12	14	10
61	62	3
196	196	9
26	27	2
4	5	2
206	208	1
118	118	6
37	38	2
0	97	3
57	57	4
77	77	10
36	38	2
153	153	14
68	68	12
7	7	9
15	15	5
211	212	6
147	161	2
157	157	6
184	184	9
188	202	4
1	15	4
127	127	5
96	96	3
3	3	5
143	143	6
235	236	1
215	215	6
25	25	24
32	32	7
58	59	3
98	98	8
29	30	1
199	210	4
77	79	2
32	62	2
116	119	2
103	110	2
181	181	1
123	123	2
101	102	4
0	0	11
6	6	5
69	69	12
170	170	5
41	41	19
23	23	14
10	14	3
79	79	7
106	106	7
139	142	6
148	150	8
101	101	7
207	207	7
55	56	6
208	208	7
102	102	11
241	241	5
49	53	3
181	182	7
195	196	8
240	240	8
35	35	11
5	21	1
143	144	3
124	124	15
133	134	1
210	211	2
134	135	3
79	81	1
116	116	5
31	31	4
134	134	4
0	1	5
223	223	9
128	128	10
18	18	9
54	54	10
15	16	2
17	18	6
236	237	2
224	224	5
38	38	3
66	66	6
49	49	5
12	13	4
104	105	2
50	50	10
24	24	5
156	157	8
195	195	5
96	97	1
168	206	5
99	124	4
30	56	4
217	217	7
43	43	4
13	15	2
2	5	4
210	210	3
154	154	3
24	65	6
56	56	10
20	21	10
232	233	8
172	190	1
73	73	9
169	169	3
52	67	1
165	166	3
137	137	9
68	83	3
48	49	7
117	119	4
40	49	2
78	78	6
222	223	5
11	23	2
9	10	3
135	135	6
45	45	4
174	177	3
225	229	2
15	17	2
112	112	1
68	81	3
54	58	4
109	109	3
136	136	5
82	82	2
37	37	2
76	128	1
14	16	5
100	101	4
68	69	4
109	120	1
238	239	4
33	33	6
29	29	5
27	28	2
169	205	3
66	82	3
97	106	1
166	166	8
229	229	6
47	47	3
8	34	2
233	233	5
213	216	3
234	234	7
28	28	10
214	219	1
53	88	3
125	126	7
46	47	9
169	170	2
125	125	4
4	15	2
160	160	4
6	16	3
145	146	2
137	139	3
196	221	3
178	178	13
136	145	2
240	241	4
73	86	1
214	214	4
8	57	2
36	36	8
187	189	5
13	13	7
66	67	4
227	228	8
5	15	2
191	242	2
184	186	1
166	167	2
176	176	1
155	156	8
166	172	3
76	76	6
99	99	8
130	162	2
105	125	2
1	2	2
80	80	11
172	174	3
173	174	3
204	207	3
105	105	15
220	222	2
22	22	6
107	108	5
34	35	7
149	149	5
20	22	3
109	133	1
86	86	9
62	66	2
46	61	2
184	185	2
141	151	3
11	15	2
29	32	4
10	11	4
197	199	2
141	141	4
152	152	5
199	209	4
37	60	2
9	39	3
189	189	15
231	231	7
168	168	1
154	155	3
228	228	4
34	38	1
207	208	2
242	242	8
33	35	3
179	183	1
20	24	2
209	209	2
74	121	1
118	121	1
188	189	2
10	35	3
32	66	1
51	52	3
51	51	3
144	145	2
2	4	2
212	213	1
117	123	2
51	53	3
27	27	6
76	88	1
193	196	3
180	187	2
203	203	2
72	72	8
95	96	4
157	179	3
10	112	2
135	165	2
208	210	1
60	60	14
138	140	2
89	89	1
236	236	3
129	129	2
96	231	3
208	209	4
49	89	2
239	239	6
122	127	2
230	231	6
224	226	1
16	27	1
155	155	1
52	54	1
66	69	4
76	83	1
16	16	7
98	99	3
88	88	8
111	139	1
126	146	1
161	164	2
191	191	1
172	172	2
202	202	3
56	57	4
52	52	2
75	79	4
13	17	2
36	61	2
170	171	2
0	44	2
78	79	2
167	167	5
35	37	2
54	86	2
64	64	3
17	17	5
36	60	1
163	165	4
150	161	1
191	192	3
225	226	4
43	44	1
81	84	6
39	39	3
215	216	4
101	105	3
95	97	3
82	83	1
189	191	2
30	32	3
114	118	1
34	36	3
70	70	3
82	84	3
19	20	2
213	213	8
186	186	2
97	118	1
140	147	2
197	197	3
139	139	2
18	22	1
30	30	4
181	216	2
100	100	2
231	232	1
14	14	3
161	161	1
185	185	7
147	148	4
3	118	1
11	11	3
90	125	3
136	137	2
42	43	3
113	131	1
68	82	3
107	107	2
178	181	1
79	130	1
9	38	1
52	53	1
101	113	1
114	114	1
53	54	2
170	172	3
116	118	3
200	221	1
127	129	2
70	71	2
206	207	1
168	169	2
147	147	3
226	227	5
17	19	2
18	23	5
63	64	3
122	123	1
81	82	2
190	190	2
117	118	3
21	22	2
225	225	3
229	230	2
192	192	1
44	44	3
159	166	1
85	85	2
86	99	3
105	106	4
137	172	3
2	18	3
225	227	3
8	30	1
97	116	1
108	118	1
2	29	1
167	170	3
186	187	1
123	125	6
121	122	1
104	123	2
144	147	2
127	141	1
61	61	3
203	207	1
34	40	2
62	64	2
1	3	2
44	66	1
125	127	2
148	151	2
137	148	1
125	129	1
220	224	2
18	19	1
217	218	1
185	193	3
237	237	5
11	67	1
224	225	1
78	82	1
4	6	2
7	16	1
194	197	1
83	83	5
30	31	1
138	138	1
40	41	1
168	171	1
234	235	4
62	63	3
31	37	2
129	138	1
144	144	2
164	164	1
201	201	3
108	109	1
6	14	2
152	159	2
228	229	1
120	120	2
102	140	4
212	212	5
5	31	1
25	26	3
167	168	2
113	136	1
201	202	2
44	45	1
102	103	1
221	222	1
123	124	2
6	8	1
79	80	1
9	11	1
122	122	2
38	40	1
191	200	2
164	169	1
58	60	1
21	23	1
9	23	1
52	56	1
162	162	2
200	209	1
141	142	1
199	203	2
176	177	1
198	198	1
105	115	2
115	115	3
88	89	1
192	193	1
162	166	1
171	171	1
6	13	1
199	200	1
144	146	1
187	187	3
1	22	1
108	108	3
140	140	3
111	111	2
27	72	1
6	17	1
40	42	2
15	20	1
115	118	1
10	10	1
179	179	2
199	218	1
196	198	1
209	210	1
75	82	2
27	42	1
164	178	1
55	86	1
80	82	1
146	147	1
129	135	1
125	157	1
14	17	1
227	231	2
2	2	2
142	142	1
70	74	1
237	238	1
114	129	2
148	148	1
21	21	1
18	21	1
145	145	1
8	10	2
141	145	1
6	29	2
75	76	1
226	226	1
211	211	1
25	28	1
46	48	1
5	22	1
102	136	1
