8	8	13
0	0	14
112	113	5
83	83	22
129	130	10
125	126	8
149	149	14
38	38	18
121	124	1
110	110	22
140	140	14
95	95	21
167	167	7
56	56	21
1	1	25
110	111	6
120	120	11
128	131	2
7	7	23
43	43	28
119	119	18
77	79	9
48	85	3
22	24	4
137	137	5
134	134	18
68	68	17
0	2	1
145	162	3
82	109	1
20	21	13
80	80	5
68	69	6
88	90	2
14	14	27
44	44	9
86	86	13
38	40	8
140	143	1
25	25	32
107	122	1
101	101	12
166	166	9
142	143	7
112	114	15
11	11	15
6	6	13
78	118	1
48	49	8
1	2	21
113	115	17
82	111	3
37	37	7
22	22	17
2	19	1
2	11	5
115	115	26
126	128	2
139	139	8
47	64	3
132	133	2
19	21	4
3	3	23
106	139	3
79	134	2
28	28	15
2	3	7
102	102	16
92	92	12
134	135	10
10	13	1
48	48	15
21	129	3
150	150	25
9	9	24
145	169	1
19	151	3
89	99	3
163	164	17
74	79	5
49	52	2
154	156	6
131	166	11
19	19	23
79	79	11
77	78	8
2	2	14
100	100	10
169	169	6
97	99	14
109	109	13
16	21	2
85	85	17
105	105	20
63	64	6
129	129	19
47	70	2
106	106	11
156	156	14
138	138	17
145	166	2
76	78	4
81	81	10
155	156	5
38	39	8
97	97	15
89	89	7
21	21	18
43	47	4
74	75	7
74	76	3
58	58	4
11	15	3
45	46	7
34	34	17
113	113	14
135	135	9
24	91	3
19	23	3
11	16	1
3	4	4
49	54	1
104	104	3
27	27	21
64	84	4
6	11	3
108	108	19
14	15	9
39	41	9
17	17	14
18	20	5
50	51	12
124	125	6
137	140	1
53	53	19
46	46	18
27	28	1
157	158	6
144	163	1
50	50	23
88	88	20
23	96	3
55	55	15
117	118	9
93	93	29
24	24	24
147	148	4
127	127	26
128	155	2
62	138	1
118	119	4
51	52	2
23	41	4
133	165	3
157	157	4
155	155	17
91	94	7
87	87	10
67	71	10
112	112	33
120	121	9
70	71	4
133	133	24
22	23	11
57	70	3
49	49	15
124	128	3
98	98	17
76	80	3
52	52	21
18	18	14
103	104	3
25	26	3
50	54	5
66	67	5
69	70	7
156	168	2
71	86	1
10	10	18
70	72	2
47	48	8
69	69	12
114	146	6
62	64	2
34	35	3
19	41	3
34	37	2
15	15	22
47	49	4
147	169	3
54	55	1
69	110	6
86	102	3
83	84	18
130	130	15
63	85	2
16	16	16
76	76	10
15	16	5
116	116	19
23	23	22
81	82	5
45	45	17
157	167	3
103	103	15
23	24	8
18	19	12
66	66	4
40	41	4
126	126	7
91	91	17
10	11	14
146	146	17
14	18	1
168	168	6
89	92	3
164	164	17
107	107	9
124	124	18
119	120	12
57	67	5
10	12	6
72	72	9
48	63	3
113	114	14
71	71	10
132	132	16
12	13	11
8	9	9
4	4	17
88	89	3
84	84	17
39	40	8
85	86	3
148	148	8
62	103	2
162	162	12
88	97	2
58	69	3
123	123	17
130	131	9
125	127	5
65	65	10
154	154	17
120	145	1
92	93	7
135	136	11
128	128	9
51	51	11
44	152	6
12	12	14
96	96	10
85	102	1
26	26	23
107	108	4
146	147	4
89	90	4
160	161	9
149	150	6
158	158	9
118	118	19
54	54	25
138	139	5
77	77	4
73	73	5
86	95	2
50	52	7
121	121	8
117	117	10
5	6	7
161	161	7
121	122	9
100	101	5
21	24	1
66	86	2
70	120	1
98	99	4
136	137	9
42	42	19
65	70	4
26	35	1
63	63	11
133	151	8
82	100	1
78	79	3
73	84	10
40	40	13
111	111	14
15	155	2
123	124	9
127	154	1
109	110	5
13	13	11
112	147	6
20	23	5
169	170	6
5	7	1
54	66	3
33	33	7
73	80	6
141	142	3
81	83	2
74	134	4
161	164	4
139	142	3
162	164	8
94	94	22
52	53	11
125	125	8
151	151	12
62	63	7
20	20	26
82	82	5
150	154	1
129	160	4
140	141	4
41	41	9
9	10	11
159	159	7
70	137	2
107	120	1
10	25	2
118	120	3
160	160	12
124	165	1
11	12	4
152	152	9
56	57	13
53	55	7
114	114	22
45	69	2
51	62	4
143	143	11
87	99	3
64	64	13
143	144	7
99	99	11
47	47	13
14	19	2
165	166	4
75	77	5
136	136	9
102	105	3
24	25	7
67	68	1
10	134	3
62	62	9
35	35	17
120	166	2
101	103	3
153	161	2
13	14	5
119	121	5
96	97	4
115	116	8
7	42	3
70	70	11
5	5	13
153	153	6
20	22	2
146	148	5
21	155	1
112	115	10
162	167	3
24	92	1
35	50	1
2	44	1
71	72	9
114	116	5
90	91	4
46	160	2
144	144	11
39	39	11
49	50	3
53	54	5
116	117	5
156	170	1
119	123	1
3	17	2
4	8	1
24	34	2
21	158	2
11	167	2
105	106	2
84	100	2
36	36	20
20	91	1
112	120	4
85	87	8
108	133	2
147	147	13
6	8	3
160	162	3
111	112	4
90	90	4
79	113	2
14	156	3
80	118	5
67	67	5
167	168	3
113	117	1
16	17	4
68	70	5
91	93	10
112	151	2
156	169	5
35	36	5
62	66	2
81	109	2
57	57	17
27	91	1
46	47	3
57	112	2
145	145	13
4	5	8
139	141	5
75	75	11
67	85	1
144	145	2
24	158	2
151	152	1
113	116	4
170	170	9
49	63	3
25	32	5
125	158	1
4	6	2
131	163	2
80	82	6
104	142	5
123	125	3
163	165	2
102	110	1
0	1	5
133	134	7
119	162	2
55	56	11
47	90	1
124	126	7
71	83	1
126	154	4
144	166	2
142	142	7
68	77	1
88	96	1
57	69	2
83	110	3
122	122	16
132	163	5
163	163	7
78	117	2
58	63	2
53	56	1
9	133	3
76	99	3
5	8	4
72	83	3
106	133	3
38	69	1
159	160	7
65	67	3
80	81	4
125	154	3
41	53	2
95	96	5
162	163	3
161	162	5
141	141	5
113	148	1
16	166	1
153	154	3
158	167	1
8	10	1
7	20	2
65	66	1
42	158	1
123	148	6
149	155	4
122	123	3
139	140	1
137	139	2
94	112	2
62	70	6
162	165	3
145	167	2
47	55	3
18	154	1
151	153	3
166	167	2
146	149	7
45	68	2
87	88	5
65	72	4
120	162	2
131	131	13
9	11	2
103	106	4
1	109	1
36	57	3
55	63	4
44	46	1
156	157	2
161	163	3
22	27	3
76	97	1
64	94	3
14	16	5
105	139	3
93	94	6
71	84	2
36	37	4
133	143	1
74	81	1
134	143	1
100	141	1
131	165	4
43	135	1
37	38	7
72	89	3
26	27	5
45	70	1
94	95	3
49	58	1
12	167	2
6	27	1
43	158	5
72	74	2
123	164	1
33	34	3
26	28	5
102	104	3
20	156	1
84	102	1
23	42	2
146	162	1
79	117	4
44	135	1
5	18	1
39	70	4
85	98	1
25	89	3
146	161	2
101	104	2
5	14	1
21	23	3
108	143	1
43	44	5
50	96	1
127	153	4
129	131	1
25	91	2
20	129	3
84	86	2
158	159	4
14	155	1
75	76	4
18	151	4
155	160	1
37	53	2
119	144	2
5	13	6
133	163	2
45	153	1
18	25	1
86	87	6
143	150	2
20	24	1
67	72	1
136	139	1
63	142	4
126	127	6
47	54	1
3	11	2
132	134	2
148	150	1
6	7	4
165	165	8
56	62	1
15	153	2
101	102	1
63	65	3
103	105	1
96	98	3
74	98	1
72	88	3
131	161	6
106	107	2
52	54	1
74	74	3
133	142	1
64	66	3
99	100	5
137	138	2
146	170	1
127	128	2
21	22	4
63	138	2
22	26	1
112	119	1
27	35	2
22	130	1
139	163	1
44	45	4
94	113	1
93	114	3
73	74	2
168	169	1
4	13	1
46	71	1
80	117	1
108	109	10
15	18	6
90	98	2
51	56	1
9	17	1
135	137	1
104	106	2
2	45	1
79	118	1
143	166	1
104	135	1
35	41	1
4	152	1
35	37	4
86	96	1
41	43	1
152	153	2
25	151	3
110	112	1
159	168	2
74	86	1
0	108	2
21	128	2
85	97	1
113	118	2
157	160	1
82	83	2
17	151	1
159	169	3
156	163	4
90	93	3
105	107	2
101	158	1
114	147	1
156	159	1
10	17	1
84	101	2
105	118	1
11	13	1
131	132	5
140	150	1
134	141	3
162	166	1
19	20	2
70	89	2
129	166	1
42	43	3
57	66	3
74	99	2
74	82	1
148	149	3
108	120	3
90	97	1
88	151	1
41	42	1
120	124	1
17	18	1
112	116	1
21	91	2
3	18	1
141	143	1
49	86	3
58	61	1
46	69	3
128	160	1
109	111	2
113	149	1
37	41	1
167	169	1
116	122	3
121	145	1
110	151	1
65	73	1
69	107	1
6	134	1
108	134	1
104	139	1
45	127	1
120	122	1
19	153	1
49	66	2
144	168	1
48	96	1
21	93	1
45	49	1
93	95	1
7	15	1
6	10	1
106	143	1
78	128	2
160	166	2
111	148	1
41	44	1
44	126	1
22	25	1
109	141	1
146	156	1
16	155	1
101	109	1
104	140	1
153	156	2
108	110	1
105	142	1
129	161	1
99	168	1
104	105	2
18	153	2
132	144	1
49	64	1
127	159	1
142	166	2
75	101	1
61	62	1
98	100	1
28	93	1
1	3	2
76	77	1
77	118	1
146	160	1
79	80	3
55	62	1
54	56	1
128	157	1
28	90	1
128	130	1
45	73	1
78	78	2
135	139	2
10	166	1
159	167	1
121	166	1
64	65	1
91	95	1
85	96	1
155	161	1
37	39	1
132	136	1
66	69	1
22	90	1
8	17	1
48	64	1
101	142	2
6	13	1
16	130	1
110	160	1
2	4	1
7	23	1
47	152	1
34	38	1
100	167	1
13	17	1
49	71	1
150	151	2
17	130	1
72	84	1
7	8	1
20	41	1
116	148	1
73	83	1
111	118	1
132	165	1
80	116	1
97	98	1
