140	140	17
131	131	8
131	132	4
14	14	5
84	85	4
117	117	10
20	20	6
5	5	6
112	112	8
75	76	2
113	113	10
135	138	7
76	76	3
22	22	4
87	87	7
78	78	5
103	103	11
8	30	6
30	31	2
9	9	5
109	109	3
27	27	7
83	118	4
117	119	8
135	135	7
25	26	4
10	12	2
104	104	13
129	130	4
2	5	3
130	131	3
136	136	12
75	75	7
79	79	2
110	110	11
10	10	6
93	94	2
37	100	1
130	130	10
122	122	14
35	35	14
94	94	8
128	128	14
72	72	14
114	118	6
86	86	5
102	102	13
80	88	1
115	115	2
36	36	6
125	125	6
8	8	12
15	77	2
120	123	2
121	121	11
2	2	4
71	71	3
94	95	6
124	125	3
96	97	3
101	101	14
11	11	10
133	133	5
81	85	4
95	95	10
78	135	1
107	108	5
85	85	5
132	132	2
29	29	9
107	107	3
74	74	2
3	4	3
7	9	1
23	23	8
95	111	5
90	90	9
38	38	2
100	100	7
6	84	2
31	32	6
2	3	3
7	7	3
88	98	2
120	122	8
77	77	3
123	124	4
16	27	5
4	4	6
82	83	2
87	118	3
30	30	7
118	118	2
123	123	4
12	14	2
18	18	1
6	6	7
102	105	3
106	106	2
72	86	2
11	12	2
90	96	5
37	37	5
108	108	8
88	88	5
83	104	2
28	28	2
138	138	4
116	116	6
27	32	3
8	9	4
104	117	1
34	34	3
109	110	1
98	124	2
91	102	1
17	17	7
88	125	1
24	25	1
99	99	7
10	11	11
88	104	2
137	137	7
93	105	2
105	105	10
125	126	2
83	83	4
24	24	7
12	29	2
3	3	2
34	138	2
26	26	6
73	73	2
139	139	13
98	98	7
120	121	2
2	7	2
82	111	3
84	84	2
134	135	2
111	111	6
13	13	1
22	26	1
82	82	4
137	138	2
32	32	4
121	122	4
92	92	1
25	44	3
118	119	3
126	126	5
29	30	3
29	31	2
78	79	1
138	139	1
27	30	4
73	79	1
79	135	3
15	17	3
12	12	7
85	103	2
74	76	3
105	121	3
135	137	2
128	129	7
13	23	3
79	80	3
0	0	4
119	119	1
124	124	7
0	1	2
16	16	5
83	85	4
117	118	1
82	104	2
77	98	3
8	11	5
17	18	1
129	129	5
121	123	1
18	19	2
89	112	1
80	80	1
96	96	3
7	8	7
91	109	3
120	120	5
87	115	2
14	25	2
91	91	2
20	21	3
97	97	2
19	21	1
128	134	1
91	94	1
88	89	2
139	140	2
77	78	2
75	99	4
86	119	1
15	26	5
4	6	1
15	15	3
79	89	1
21	21	3
72	102	2
76	78	1
89	89	2
12	27	1
83	84	1
104	105	4
136	137	1
68	68	2
129	135	1
22	24	1
92	93	1
9	32	1
113	114	2
31	31	1
134	134	2
81	86	3
82	84	1
107	109	1
115	118	1
89	98	1
93	93	2
95	96	2
103	105	1
79	90	2
127	127	3
95	99	2
13	26	1
14	26	2
129	137	1
89	124	2
15	33	1
23	24	1
134	140	1
111	112	1
19	19	1
22	23	1
