95	95	20
105	105	13
98	99	10
22	22	9
73	73	22
81	81	19
100	100	24
78	86	5
53	53	17
86	87	8
24	90	2
50	50	13
69	69	22
48	48	9
35	84	2
24	24	9
40	41	4
68	68	26
92	92	21
25	88	3
71	74	1
22	23	1
38	39	4
41	78	3
68	75	3
42	78	2
35	35	19
25	81	4
41	41	10
67	68	4
83	83	7
106	106	14
64	100	5
76	77	4
74	101	1
64	64	14
92	93	2
43	85	3
60	60	5
98	98	19
74	76	5
56	56	24
23	80	2
37	39	5
79	81	6
104	104	16
30	90	7
71	71	14
79	79	8
94	98	5
34	34	7
25	86	6
76	76	16
50	51	2
77	77	8
69	70	4
30	30	1
82	82	14
54	54	13
94	94	12
23	58	2
70	70	13
93	93	14
67	67	6
59	105	1
48	49	8
102	102	15
83	85	3
45	45	18
21	21	12
39	39	20
30	95	3
35	36	3
65	65	17
88	88	12
74	74	24
61	61	12
90	92	1
23	93	7
34	71	1
42	43	4
58	58	4
23	24	2
95	96	6
70	71	4
36	36	6
44	94	1
80	81	1
28	28	18
85	85	14
47	47	6
32	32	15
91	91	8
82	86	7
26	26	13
59	65	2
40	45	7
25	26	7
38	38	1
62	63	4
62	62	15
29	79	2
55	55	21
78	78	10
51	51	19
30	83	4
63	63	14
86	86	3
51	60	1
36	37	6
32	65	2
20	21	3
36	66	2
101	101	17
40	40	7
50	88	2
79	80	5
37	37	17
23	45	2
70	81	4
32	59	6
46	82	3
22	27	2
71	72	2
26	81	6
23	23	14
63	64	4
75	100	2
58	71	2
82	88	2
66	67	10
97	97	12
31	31	6
23	68	4
94	95	1
87	107	2
25	25	7
96	96	5
91	100	6
75	75	14
80	90	2
67	72	2
84	85	4
81	90	3
82	84	4
57	76	1
100	101	5
24	25	4
66	66	7
68	69	4
96	97	5
29	30	3
97	98	7
53	54	5
54	59	1
44	44	10
82	87	3
86	88	5
52	69	8
70	80	3
82	83	4
99	99	19
46	95	1
49	77	1
37	73	4
45	78	2
25	29	2
42	42	5
51	52	3
104	105	7
43	43	3
101	102	6
90	98	1
96	99	3
83	84	1
89	89	5
56	61	3
87	87	6
41	43	2
81	93	3
89	90	4
78	87	2
61	62	1
56	72	1
28	38	2
83	86	1
54	65	4
57	57	19
51	65	4
43	87	2
52	60	2
90	91	2
84	84	6
90	99	1
31	70	3
30	85	5
95	103	4
20	102	2
78	89	3
27	27	2
30	40	1
29	29	5
99	100	2
22	88	3
65	67	1
39	45	4
97	99	2
88	89	2
23	50	6
80	80	4
103	103	13
33	83	1
77	100	2
51	59	1
28	88	4
87	90	3
52	52	6
72	72	2
80	84	3
33	41	3
78	90	1
22	87	1
88	90	2
75	76	1
20	42	2
73	74	1
47	48	2
102	103	3
42	70	6
66	72	1
71	79	2
31	58	1
32	34	1
24	50	1
30	88	3
46	47	4
53	104	1
58	59	1
77	79	1
87	88	2
33	33	4
50	67	1
47	86	2
43	44	3
46	58	1
77	78	1
27	28	2
59	60	3
38	42	4
25	30	1
91	93	2
26	48	1
54	96	3
84	86	3
45	80	3
81	88	3
56	57	2
37	38	5
25	49	2
67	77	1
90	100	3
49	50	2
24	58	1
83	93	1
37	43	4
41	44	8
72	73	3
42	44	3
54	101	1
26	92	3
34	59	1
51	104	2
25	70	2
51	53	3
39	40	1
60	82	3
21	22	1
57	84	1
36	75	1
43	70	1
20	95	1
36	43	1
51	92	2
45	65	2
105	106	2
47	49	2
23	67	1
21	37	1
36	39	2
80	96	1
53	103	1
96	98	3
92	101	2
45	81	1
33	34	1
30	41	1
29	107	2
42	89	1
44	45	2
64	65	3
39	42	1
65	104	2
40	49	2
79	87	1
25	48	1
69	71	4
59	59	1
55	58	1
29	42	1
71	73	1
22	49	1
79	88	1
30	82	2
58	78	1
46	46	1
47	97	2
30	47	2
76	100	1
76	82	2
95	106	1
90	90	2
66	104	1
58	64	1
57	72	1
30	46	1
32	33	2
34	36	1
23	54	2
94	106	1
100	104	1
31	87	1
24	86	1
75	101	1
29	94	1
40	44	1
52	53	1
36	42	1
21	89	1
53	67	1
49	49	1
