97	97	20
51	52	5
21	22	3
35	36	4
96	96	13
36	38	3
29	45	5
45	46	8
89	90	4
73	73	8
66	66	10
62	62	14
46	46	16
22	22	25
52	63	1
56	56	16
65	65	7
78	78	16
74	74	3
36	37	10
64	103	2
20	20	7
31	32	2
35	35	13
72	72	13
53	53	21
93	101	1
101	101	10
87	88	10
50	50	19
93	93	3
102	102	13
31	31	12
27	27	4
103	103	8
38	38	16
66	69	1
55	90	1
55	55	18
45	45	16
61	61	16
98	98	9
91	91	7
23	23	19
87	87	10
67	67	6
51	51	5
105	105	11
57	62	4
43	43	4
75	75	16
81	81	7
36	36	13
55	56	9
44	44	2
34	36	2
95	95	15
62	65	3
80	80	11
58	58	10
80	81	9
28	28	9
54	54	9
33	33	10
34	34	19
82	82	19
92	92	9
90	92	3
89	89	7
30	30	18
39	64	4
76	76	13
71	72	5
42	42	4
41	41	6
68	68	12
25	25	11
90	90	8
104	105	9
76	77	2
55	58	1
94	94	15
56	63	3
52	53	7
101	102	7
61	63	1
47	47	4
70	70	18
25	28	2
95	97	4
42	43	3
55	92	3
79	79	12
21	21	6
58	59	2
95	100	2
79	80	8
84	84	5
47	62	6
26	29	8
39	40	7
59	59	13
44	45	5
106	106	7
77	91	4
64	64	8
61	62	6
24	26	4
57	58	4
32	32	3
29	31	5
28	29	4
60	76	3
91	93	1
40	40	7
52	52	7
100	100	14
69	69	11
91	106	2
72	97	2
77	77	11
104	104	10
67	95	2
103	104	4
69	70	5
37	37	13
60	61	1
99	99	5
81	82	1
65	66	4
59	76	3
29	29	4
23	24	7
100	101	5
62	63	6
40	43	1
60	60	8
51	100	1
39	39	3
94	96	3
24	24	3
91	92	5
25	26	5
78	79	9
44	58	1
88	88	7
70	75	3
23	40	1
71	71	7
90	93	1
90	91	4
51	63	4
20	21	5
21	68	1
95	96	5
49	49	7
27	28	3
26	27	1
35	37	1
96	97	3
37	39	1
85	85	3
48	49	4
56	57	1
99	100	5
67	68	2
82	86	2
63	63	14
47	88	2
47	63	1
88	89	5
60	62	1
33	35	2
101	107	3
73	74	6
57	57	4
54	59	1
58	61	4
68	69	2
37	50	1
64	68	2
38	39	2
46	48	1
64	65	1
74	75	3
33	34	3
105	106	6
75	76	4
41	42	5
94	105	1
70	71	1
53	78	2
21	42	1
64	104	5
40	42	2
97	98	4
53	67	2
48	56	2
29	40	2
27	29	1
34	35	3
93	100	3
34	37	3
50	79	3
92	106	3
65	67	2
53	54	1
53	73	1
59	60	5
93	94	2
34	38	1
41	66	2
102	103	3
46	66	1
24	43	3
41	43	1
63	64	3
34	46	1
48	48	3
43	47	1
30	37	1
66	67	6
98	99	3
94	95	1
68	70	4
35	52	1
51	55	2
77	78	2
89	103	1
21	78	1
52	54	2
32	51	3
86	87	3
22	45	1
57	63	2
49	61	1
22	23	1
76	92	1
69	71	1
24	36	1
55	67	1
83	83	1
54	55	1
30	31	2
57	90	1
37	38	1
79	81	1
56	58	2
100	102	1
66	77	1
26	26	1
35	51	1
45	74	1
26	30	1
92	93	1
80	82	1
86	88	1
50	62	1
