198	199	3
218	219	5
179	179	10
235	235	4
221	221	6
56	60	3
243	244	2
96	96	18
184	185	4
164	185	2
208	210	7
194	195	4
45	45	7
117	117	7
153	153	10
190	190	6
35	35	7
51	51	8
61	62	6
227	228	5
210	210	9
206	206	10
26	26	5
4	4	15
95	95	5
201	201	16
240	241	6
30	31	2
167	168	4
200	200	7
47	47	6
211	212	5
58	58	14
246	248	5
88	88	4
33	33	5
163	163	5
82	82	11
88	90	3
106	111	2
84	84	4
173	174	1
16	16	8
72	72	3
190	191	1
86	86	11
198	198	5
77	108	4
227	227	3
202	202	12
61	61	14
96	97	9
65	71	2
99	99	9
110	111	6
223	223	4
225	225	1
37	37	6
63	63	5
90	96	3
216	248	2
65	65	11
79	86	5
54	54	6
20	21	8
185	185	3
197	197	6
33	66	6
62	62	6
7	8	5
63	65	2
55	55	3
46	54	4
88	89	1
207	208	2
245	245	9
226	227	2
76	78	2
113	113	11
237	237	11
213	216	2
71	74	3
120	144	4
182	186	4
94	97	2
225	234	3
195	195	12
110	110	9
69	69	3
15	18	5
204	204	13
16	17	3
150	150	8
217	219	7
217	218	5
52	52	11
75	75	21
219	219	5
104	104	4
84	96	5
48	48	9
57	59	4
191	191	3
181	181	4
36	36	11
177	177	5
223	225	1
168	169	2
32	39	4
174	176	1
206	212	1
120	120	10
170	170	2
219	220	2
223	224	7
79	79	16
97	97	15
154	155	2
58	59	4
78	78	12
168	203	3
35	36	8
162	163	6
92	95	2
42	42	9
241	248	2
54	64	2
248	248	5
103	104	2
208	208	9
87	99	1
175	176	10
56	56	9
68	71	4
67	68	5
6	43	6
224	224	16
70	70	1
106	107	2
205	206	4
160	160	11
242	242	4
156	156	9
25	25	7
85	85	7
77	79	3
31	33	4
156	199	2
92	93	3
55	85	5
50	50	15
95	160	2
152	152	5
46	46	4
165	178	1
109	109	6
92	92	3
49	50	2
100	114	1
159	159	12
188	188	4
104	105	3
165	165	9
221	223	4
213	214	5
239	239	10
17	17	4
209	209	7
81	81	6
224	226	1
222	224	2
157	157	6
11	28	5
217	245	4
83	83	9
25	26	2
41	42	4
69	70	4
38	38	10
208	209	4
113	114	8
99	100	1
1	35	5
87	96	8
197	198	9
183	184	5
39	119	5
60	60	11
193	193	2
178	178	6
158	159	4
33	43	3
14	14	4
218	218	12
118	119	8
77	77	3
182	182	9
116	120	7
205	205	13
45	88	2
6	6	11
106	110	2
197	199	3
239	240	2
30	30	5
82	96	2
47	66	1
96	98	1
162	162	9
46	99	1
180	181	9
71	72	4
184	184	6
231	238	2
245	246	9
65	104	3
23	23	4
151	151	7
220	222	2
27	27	7
46	47	6
229	230	6
84	85	2
26	113	1
7	7	5
72	74	1
119	119	12
228	228	2
21	21	3
3	4	2
191	199	2
31	31	11
6	7	5
62	63	2
58	60	3
9	9	1
196	196	2
212	212	5
164	164	5
236	236	10
102	104	4
166	166	8
201	202	3
114	115	3
39	39	5
8	40	1
165	171	1
57	57	8
34	34	6
237	238	8
175	177	4
112	112	8
68	193	3
146	146	4
21	22	3
67	67	3
199	200	4
245	247	3
150	152	1
15	15	7
211	211	8
37	38	5
23	24	4
158	193	1
40	40	1
82	83	3
94	98	2
226	235	3
190	196	2
105	106	3
64	105	2
173	173	1
242	245	2
108	108	15
74	74	9
18	18	7
187	197	3
25	112	4
49	65	1
169	176	6
94	94	3
46	51	3
1	1	5
176	177	5
55	57	2
80	80	11
109	110	1
178	182	2
226	228	1
41	41	4
2	5	1
12	12	5
39	40	1
28	28	5
217	217	6
79	80	4
232	232	4
86	105	2
185	186	3
34	35	6
99	147	3
44	44	2
112	113	3
238	238	7
182	185	2
11	11	9
95	98	3
59	60	6
53	53	8
209	211	2
166	167	2
32	32	4
89	89	8
203	204	2
228	229	5
183	190	1
85	96	1
85	86	2
228	231	2
96	99	3
30	42	6
155	155	5
19	19	7
47	197	2
70	91	1
64	64	2
85	98	2
220	220	5
241	249	2
231	232	2
56	71	5
38	39	1
49	49	6
5	5	4
218	248	3
246	247	3
244	248	3
74	80	2
192	192	2
219	221	1
163	166	1
7	116	1
46	87	2
101	105	1
47	50	7
175	175	6
229	229	4
56	57	1
189	225	2
75	76	12
75	79	2
172	209	3
186	186	4
246	246	3
169	169	9
78	82	6
234	235	2
152	154	1
18	22	3
18	23	1
216	216	4
189	190	1
187	188	6
192	194	4
87	97	1
10	11	7
97	98	4
66	72	3
57	69	3
176	176	2
234	234	1
107	107	1
43	44	6
85	95	1
241	245	2
118	118	7
226	226	4
163	164	2
116	116	3
193	196	3
200	207	2
193	194	4
150	209	1
224	237	1
4	120	1
203	203	11
105	107	3
145	145	3
51	52	1
53	94	2
244	246	9
228	230	1
160	161	1
55	58	5
145	147	2
196	211	2
160	193	4
73	73	5
105	105	2
2	2	5
210	211	1
240	240	10
53	89	2
107	108	2
97	99	3
190	219	3
182	183	6
82	84	2
29	42	1
48	50	2
169	198	1
179	182	1
187	189	5
12	13	1
46	84	1
53	54	3
192	196	4
238	239	2
90	90	5
19	20	1
42	43	1
115	116	4
184	194	2
98	98	1
33	117	1
102	102	3
247	247	5
179	180	2
215	248	3
173	182	2
77	78	4
207	207	2
164	183	3
224	235	2
233	233	3
103	103	1
175	178	1
219	228	3
100	101	3
90	91	2
200	217	1
151	155	2
13	29	1
106	113	5
24	24	1
108	109	3
157	193	1
89	90	1
29	29	5
157	158	2
1	8	1
120	145	2
241	241	5
5	6	1
70	195	1
101	119	1
197	200	2
201	212	2
237	239	2
54	61	2
244	244	2
44	59	2
156	180	3
116	118	3
9	26	1
94	100	1
181	189	1
60	64	1
79	82	2
219	222	1
247	248	1
216	217	2
57	65	2
114	114	6
76	83	2
154	154	2
20	20	1
173	178	1
111	243	2
188	190	2
57	60	2
236	238	1
49	52	1
191	216	2
71	71	3
91	91	3
196	199	1
231	231	4
111	113	3
52	53	3
98	99	1
199	199	1
149	150	3
64	107	1
180	225	1
180	180	1
180	182	2
183	183	3
92	98	1
171	171	2
161	163	2
161	247	1
44	47	2
100	100	1
227	229	2
161	161	5
93	93	1
183	201	1
236	237	3
233	242	1
220	221	3
101	102	1
31	32	1
10	10	1
249	249	2
187	190	1
80	81	1
19	30	1
42	44	1
172	172	2
213	215	1
17	21	1
115	115	2
8	8	2
176	179	1
152	211	1
168	168	1
165	174	1
153	171	1
222	237	1
156	161	1
43	43	1
175	182	1
53	62	1
209	210	1
102	103	1
65	75	1
35	49	1
54	62	2
44	45	3
22	22	1
188	189	2
106	108	1
172	183	1
186	196	1
185	190	1
214	214	2
229	231	1
7	115	1
214	236	1
15	45	1
108	110	1
166	185	2
187	195	1
157	194	1
4	5	1
169	170	1
222	222	1
177	183	1
111	245	1
39	109	1
244	245	2
236	239	1
87	93	1
14	15	1
33	67	1
146	147	1
