2	2	25
24	24	7
150	150	16
138	148	2
68	68	6
124	125	11
139	139	9
151	151	6
35	46	1
127	135	5
116	116	8
96	96	3
105	105	14
99	99	13
90	90	5
122	123	6
80	80	15
114	136	6
153	153	6
132	135	2
7	8	11
43	43	11
67	68	4
104	106	5
102	105	3
12	12	5
14	147	5
97	97	13
103	103	14
4	4	22
77	77	8
72	73	8
20	20	17
25	26	4
19	21	1
4	29	2
144	146	2
54	55	6
40	41	8
87	87	14
134	134	9
82	82	7
45	121	2
157	157	15
112	112	13
0	0	11
79	80	2
129	129	28
18	18	21
50	51	9
125	137	2
79	81	2
135	137	4
33	33	13
16	23	1
39	40	2
144	144	8
124	135	3
76	77	4
103	104	11
116	157	4
97	98	4
17	18	12
132	132	14
15	15	4
145	146	8
83	85	6
100	100	11
92	93	2
75	75	3
130	134	3
65	65	11
57	57	1
46	46	7
27	27	12
110	110	11
1	1	14
98	99	3
145	145	7
28	28	14
106	107	9
66	66	9
89	90	4
83	83	9
15	17	2
127	157	3
156	157	5
37	37	9
85	87	1
44	45	3
119	120	3
30	31	2
36	37	5
142	142	12
26	26	18
127	127	15
105	113	2
3	29	11
79	79	15
25	27	2
16	16	4
138	138	5
5	5	30
93	94	5
98	98	8
61	61	2
103	156	10
146	146	6
32	32	13
124	124	7
53	54	8
107	107	12
85	85	9
113	113	12
92	92	6
89	89	1
136	137	6
30	30	10
140	140	13
32	91	1
54	54	8
151	152	4
5	44	2
100	101	2
70	71	3
155	155	7
139	141	2
14	14	3
135	135	2
121	121	2
126	126	6
68	70	2
101	130	1
3	7	1
29	29	6
118	120	4
22	137	4
69	69	6
101	157	2
20	54	4
72	72	5
56	56	4
65	66	2
53	152	3
68	69	2
149	150	3
4	128	2
82	148	3
139	140	5
21	21	4
78	78	6
94	94	10
132	140	1
8	8	11
112	113	4
131	131	12
84	85	4
128	129	3
154	155	1
35	41	5
101	101	11
93	93	7
122	125	2
45	45	9
34	34	9
85	86	2
25	25	4
144	145	2
128	134	1
117	117	14
14	30	3
54	123	2
140	141	8
40	43	1
154	154	9
35	35	4
73	73	17
114	115	3
23	24	7
118	118	6
134	137	3
6	6	12
149	149	3
102	102	5
106	131	1
38	38	13
103	138	1
150	151	11
122	122	8
19	19	7
114	114	10
86	86	5
11	17	1
3	4	2
54	153	2
118	119	4
23	46	1
67	67	9
22	52	3
70	70	5
10	10	6
49	49	12
3	3	11
17	17	12
119	119	2
45	46	3
104	127	3
109	109	7
135	139	3
77	78	4
125	136	2
17	23	2
123	125	4
42	42	8
115	115	11
33	34	6
2	4	4
132	133	4
21	29	3
137	137	6
103	135	6
55	55	4
78	79	2
46	47	4
16	17	7
126	141	1
113	114	1
127	128	2
14	15	6
7	7	9
148	149	1
16	54	3
15	16	5
147	147	7
22	22	16
51	51	9
4	5	1
71	71	4
130	131	3
81	81	6
25	49	3
107	110	1
9	9	5
106	106	10
13	13	7
91	91	9
102	128	1
121	122	6
76	76	2
24	47	1
111	114	3
48	54	3
51	116	2
90	140	1
130	130	3
37	38	8
28	29	2
62	69	3
136	136	7
12	36	1
158	159	1
33	115	3
102	120	1
3	8	1
80	81	1
20	51	1
124	127	1
47	47	3
148	148	8
62	63	2
38	39	3
131	132	3
47	49	5
44	44	6
36	36	13
50	116	2
45	152	1
109	110	2
4	93	2
128	128	8
129	136	2
48	48	3
55	56	5
11	38	2
47	48	2
8	12	1
24	28	2
16	21	1
17	19	1
8	9	1
22	26	8
138	152	1
44	46	1
95	95	2
83	91	3
94	123	2
96	97	1
129	134	1
125	126	1
24	25	8
104	104	9
137	138	1
107	134	1
34	36	2
64	64	6
74	74	2
27	28	4
11	11	1
0	1	1
45	54	2
48	49	3
50	50	7
136	148	1
138	150	3
134	136	1
31	32	3
133	133	8
143	143	2
144	155	2
33	42	1
107	115	1
80	82	1
146	147	1
127	138	6
52	52	2
131	133	2
1	3	1
92	94	1
104	149	1
6	12	2
91	140	1
84	84	1
88	88	4
155	156	3
95	96	3
144	147	2
45	150	1
125	125	4
90	95	2
2	3	2
102	116	3
6	7	1
10	11	1
77	114	5
91	95	2
97	111	1
127	158	2
7	51	1
85	88	1
138	142	1
37	40	5
95	135	1
6	44	1
84	112	1
88	89	5
91	103	1
102	125	1
137	145	1
64	65	1
23	50	2
11	12	2
24	51	1
101	102	3
52	54	1
23	23	3
141	141	2
30	55	2
90	91	1
105	106	8
83	145	1
92	138	1
115	116	5
129	130	4
76	140	1
13	14	1
13	31	1
104	105	1
156	156	1
152	152	1
31	94	1
141	144	1
135	136	2
41	41	5
153	154	1
16	18	1
31	33	1
139	144	1
137	144	1
123	124	1
82	83	1
10	31	2
147	148	1
111	112	1
157	158	6
21	135	1
43	111	1
94	95	2
25	131	1
115	117	2
41	43	1
47	54	1
26	27	3
31	31	2
126	140	2
81	82	1
7	35	1
43	110	1
134	149	1
8	99	1
123	123	1
111	111	3
17	121	2
4	45	1
91	145	1
79	82	1
148	155	1
41	42	1
83	146	1
142	156	1
40	40	1
105	137	3
107	138	3
61	63	1
35	36	5
133	134	1
108	108	1
91	92	4
22	25	1
108	111	2
69	70	1
32	42	1
115	119	1
145	147	1
111	113	1
32	35	1
38	40	1
23	151	1
67	70	1
75	76	1
17	21	1
39	62	1
43	44	1
158	158	2
23	25	1
122	126	1
31	138	1
