233	248	4
157	185	3
156	156	49
145	183	1
164	164	28
78	78	13
104	105	10
52	53	14
208	209	27
34	34	17
77	77	21
51	51	8
225	225	21
88	89	13
41	150	2
48	48	15
245	245	21
36	41	2
162	201	3
56	56	15
115	116	13
109	109	34
182	182	18
44	44	27
167	173	2
153	155	1
67	88	2
237	237	14
153	153	18
223	224	16
156	157	2
180	181	12
2	229	3
178	191	5
114	114	25
6	6	31
163	165	8
19	19	19
1	1	13
49	61	2
209	209	35
220	223	2
198	199	15
25	25	13
169	170	7
206	206	21
40	65	2
37	38	13
235	235	25
144	146	4
185	185	37
21	21	43
108	237	3
185	200	2
165	165	20
233	234	14
207	207	39
234	234	25
58	76	5
85	86	7
64	64	19
56	58	4
40	40	42
33	33	30
220	220	17
193	193	21
59	79	2
62	79	7
146	146	22
211	213	6
215	216	6
118	118	25
185	249	4
11	192	2
28	28	24
221	221	21
120	120	13
174	174	9
20	34	2
95	95	23
153	162	3
110	111	10
60	60	14
54	108	1
39	39	10
171	171	20
81	94	3
242	242	30
150	150	30
153	235	4
177	177	24
178	178	16
107	107	17
55	56	21
199	199	28
18	18	25
160	160	28
173	174	21
84	85	13
172	173	13
77	91	4
180	182	11
168	168	19
27	32	6
180	180	18
118	120	3
27	27	29
175	175	37
213	213	25
117	117	7
89	90	6
59	59	17
23	23	30
223	229	3
117	119	1
230	230	12
112	112	19
3	3	8
228	230	1
206	207	11
35	35	11
196	196	21
241	242	10
184	187	1
26	27	9
176	177	17
167	167	25
166	166	35
232	236	2
236	236	36
231	231	15
190	196	2
204	205	10
102	102	14
47	62	5
55	55	36
15	16	5
224	224	17
62	86	2
158	158	12
217	237	2
157	157	17
8	9	5
202	202	11
190	191	7
191	191	16
43	44	22
25	26	6
188	189	5
247	247	18
210	211	9
19	29	9
89	89	37
68	68	28
184	191	5
162	169	1
68	83	1
5	5	11
71	72	9
63	63	20
110	110	32
179	179	17
78	79	2
70	70	33
96	96	24
26	94	2
45	45	12
71	73	7
115	115	25
74	76	2
74	75	5
170	225	2
97	102	2
244	245	12
246	246	26
144	144	8
91	91	19
210	245	2
164	192	2
152	154	3
51	154	1
20	29	2
205	205	46
22	24	2
86	86	7
42	42	31
68	70	10
98	98	12
160	165	6
211	211	37
198	198	28
159	159	28
162	162	17
212	212	35
73	81	3
67	67	13
189	189	21
222	223	9
214	215	5
92	92	27
45	55	2
69	70	8
113	113	22
93	93	22
21	111	3
219	219	18
53	54	7
150	154	6
201	201	56
20	20	13
218	218	10
96	99	9
84	84	22
235	236	5
66	66	10
21	22	8
161	229	2
84	111	4
161	161	20
70	108	1
32	32	33
200	200	36
241	241	28
12	12	16
193	197	5
20	22	4
228	229	8
36	46	3
5	227	15
223	223	22
97	98	6
216	216	25
217	218	6
153	154	6
90	90	12
221	234	2
205	206	10
173	173	16
220	221	8
44	45	10
236	237	18
151	151	21
112	114	5
239	239	16
41	41	24
6	51	2
88	88	15
111	119	3
227	227	21
210	210	20
87	91	3
81	81	14
36	36	27
145	147	4
194	194	18
172	172	34
6	54	1
177	180	8
178	182	4
81	82	6
157	159	4
166	173	4
232	234	2
187	187	15
29	29	14
30	30	17
60	65	2
203	203	27
103	103	5
183	184	9
119	120	3
65	65	23
8	8	31
188	188	13
211	214	4
197	198	25
43	43	30
214	214	34
87	87	11
184	184	30
225	234	1
240	241	9
229	229	18
31	31	15
98	99	3
105	107	4
103	152	5
170	171	8
237	241	5
0	1	6
238	238	25
86	120	6
114	115	10
204	204	28
149	149	3
34	37	6
216	240	12
15	54	2
221	222	17
232	232	13
69	69	19
172	183	8
192	194	3
187	188	5
74	74	7
106	108	6
181	181	25
50	51	4
75	75	21
155	155	36
234	237	2
76	76	9
113	114	11
81	231	6
162	174	2
26	26	24
156	184	4
184	185	8
4	5	14
101	101	12
95	97	5
72	72	10
32	53	2
78	84	4
176	176	27
160	161	13
170	170	29
158	181	1
174	175	3
100	100	16
58	61	15
79	79	13
61	61	5
49	49	10
244	244	21
179	202	4
57	58	12
50	50	13
17	17	5
10	10	12
90	91	11
65	67	3
15	15	30
170	177	3
57	57	23
242	245	1
209	248	7
87	88	17
26	33	2
58	58	24
17	18	5
186	186	15
188	210	4
167	171	3
56	57	7
41	42	8
154	154	19
112	113	9
234	235	14
76	78	5
218	219	6
85	85	24
150	155	2
243	244	12
169	182	16
240	246	3
243	243	31
169	169	17
152	153	12
47	47	5
199	200	8
202	203	10
236	248	2
107	108	6
208	210	8
73	73	13
146	152	5
79	82	5
70	86	5
111	112	11
60	61	11
46	46	19
232	233	5
100	101	12
53	53	13
49	50	9
108	109	5
155	156	6
183	226	1
62	62	9
192	192	19
108	108	9
200	205	1
178	203	1
94	95	8
47	48	7
166	171	7
165	177	3
154	155	3
96	97	3
237	238	3
216	218	4
60	79	1
42	230	6
111	115	14
18	20	2
170	173	3
14	15	2
238	239	16
17	19	6
70	85	2
86	192	2
168	228	4
225	226	6
117	239	1
105	109	1
7	7	18
97	97	21
168	169	10
185	186	10
195	195	21
71	74	12
70	71	9
160	204	2
233	233	18
217	217	29
118	119	11
208	229	2
20	118	1
61	62	6
145	145	15
177	178	2
120	145	3
52	80	7
22	30	4
213	214	8
13	14	13
224	236	5
60	63	2
164	173	2
62	63	6
114	116	4
38	38	15
230	232	4
159	167	5
18	19	8
73	74	7
185	189	4
150	151	11
176	220	3
22	22	19
77	78	12
2	2	8
175	191	3
28	54	8
181	197	3
152	172	1
64	87	5
90	111	2
83	86	2
16	16	15
33	34	3
186	189	6
79	104	3
42	44	4
223	236	1
152	165	6
222	222	13
215	215	11
226	226	5
228	228	11
9	10	8
109	110	8
76	106	1
9	9	21
15	18	9
200	201	11
102	103	6
116	241	4
36	39	2
164	172	2
149	150	7
91	92	9
92	94	3
189	191	6
54	54	12
4	230	2
101	102	12
92	93	4
236	238	7
114	150	2
56	66	6
203	205	4
190	190	13
99	101	9
44	47	4
102	105	6
37	39	7
90	94	2
75	104	3
72	73	2
205	223	4
4	6	1
53	55	3
7	8	2
240	240	10
22	112	5
227	229	1
38	40	2
216	222	3
86	89	1
185	188	6
220	222	6
24	24	11
226	228	5
45	53	4
82	82	5
83	83	9
173	175	4
5	99	3
209	214	5
223	248	10
196	198	3
116	157	2
35	36	4
58	60	3
31	32	2
243	247	3
196	197	8
32	33	8
146	147	7
56	82	2
100	106	2
19	20	5
17	37	3
197	197	17
11	11	19
70	163	2
217	219	4
19	37	2
195	197	7
157	161	6
26	52	1
154	167	6
23	25	1
186	188	4
10	28	3
164	227	2
73	87	2
208	211	4
207	212	4
40	41	11
90	92	4
111	111	23
39	162	1
24	25	6
37	37	11
72	74	4
211	212	12
181	186	4
12	51	2
12	14	2
208	208	13
181	217	8
194	195	12
206	208	3
207	208	8
82	84	3
167	177	2
212	213	13
220	239	2
187	189	1
8	46	5
50	59	4
150	160	1
104	106	3
240	242	4
166	169	2
249	249	10
59	62	1
242	243	10
36	225	4
183	183	24
247	248	8
68	162	2
105	119	1
163	163	17
181	182	9
111	151	1
69	71	4
163	181	5
63	78	4
182	183	7
149	152	3
54	110	2
54	55	4
171	173	2
171	172	7
111	241	4
11	12	1
119	119	10
53	103	3
184	186	3
2	3	7
6	7	5
156	234	3
90	101	4
152	152	8
13	233	3
34	36	5
227	228	7
89	116	4
157	184	4
76	77	7
39	40	4
86	87	7
20	23	4
191	192	2
168	212	2
110	115	1
71	81	1
68	80	1
199	201	3
23	113	1
214	221	2
4	4	7
200	212	1
116	117	6
63	86	2
91	94	3
64	65	5
95	100	1
30	117	3
201	220	3
53	157	1
163	187	2
248	248	8
216	217	8
98	100	2
192	215	2
215	221	2
60	66	1
14	14	9
179	201	1
186	187	2
38	53	4
239	247	2
63	64	2
5	98	1
83	84	2
168	182	1
200	208	3
222	224	3
79	151	4
182	211	2
245	246	9
3	229	2
67	68	4
177	200	2
71	71	11
112	115	4
215	217	1
200	206	2
18	29	2
14	49	3
144	184	2
23	85	2
34	58	4
239	240	7
71	75	2
227	230	5
45	46	4
40	228	2
101	104	4
201	204	5
51	52	13
205	207	3
7	53	5
198	208	4
52	52	9
175	177	5
98	101	2
230	231	4
187	214	5
167	169	1
39	85	3
37	40	3
193	194	7
13	13	2
149	151	4
36	167	1
58	80	3
44	145	2
163	178	1
165	166	16
187	246	2
94	94	16
112	154	3
18	39	3
87	90	4
45	52	2
80	80	5
233	235	3
111	114	2
11	17	3
92	116	2
77	79	1
241	247	2
163	164	3
26	28	4
44	51	2
19	39	2
8	39	1
156	167	2
224	230	2
117	118	9
145	150	1
175	176	11
110	248	2
221	223	4
52	82	2
36	37	3
187	217	2
57	63	2
166	184	1
192	193	4
23	93	4
16	53	2
108	113	3
91	119	1
189	190	4
68	89	3
93	94	7
218	248	2
195	209	4
56	59	6
156	160	2
162	181	4
27	29	2
20	30	7
98	102	1
105	105	4
4	10	2
99	100	2
118	243	3
43	49	1
27	28	4
157	173	2
153	171	2
147	147	3
194	214	1
11	24	6
18	77	1
209	212	1
118	154	3
200	203	1
30	31	3
106	116	2
17	20	2
45	54	1
115	157	2
12	19	2
95	96	4
60	64	2
44	66	2
193	231	3
169	231	1
221	225	7
10	11	4
186	234	1
165	181	2
5	228	2
107	157	3
226	227	2
95	98	1
15	17	1
159	184	1
201	207	3
0	51	1
22	32	2
22	46	1
97	99	6
169	174	2
57	83	1
78	162	3
109	237	3
36	53	3
192	214	3
47	58	1
62	71	3
159	163	2
225	228	1
20	38	5
212	214	2
19	77	1
194	238	1
12	83	2
193	195	2
85	225	2
166	176	4
72	88	1
229	232	1
75	77	3
176	198	2
30	235	2
154	162	3
40	42	1
106	106	7
163	189	4
222	238	1
49	82	2
166	175	2
4	98	3
159	170	2
55	78	6
99	99	8
59	66	3
241	243	2
55	57	3
185	248	1
11	26	3
55	161	3
164	165	3
169	183	1
75	79	1
224	232	2
165	208	3
164	183	1
33	36	4
197	199	4
197	200	3
58	74	2
107	116	2
175	180	1
209	210	2
22	23	3
167	225	1
177	198	2
75	81	2
41	230	2
159	190	2
194	217	1
18	34	2
113	115	4
60	62	3
164	176	2
50	76	3
152	170	3
59	75	3
183	213	4
178	179	5
191	219	1
27	117	1
49	233	2
96	98	1
28	29	3
165	175	1
218	220	3
166	167	6
179	181	1
152	160	4
120	144	4
165	172	1
203	204	4
220	246	1
20	21	2
201	203	1
151	172	3
209	223	1
66	85	1
16	234	2
68	69	1
102	106	2
196	199	1
12	47	1
79	154	2
57	61	2
159	162	1
56	65	1
1	151	2
168	185	2
112	244	1
228	232	1
116	119	5
82	83	3
12	16	4
30	118	2
8	53	3
212	216	2
161	162	2
54	161	2
167	172	1
64	92	2
209	211	1
63	65	4
75	80	2
164	182	2
116	116	5
18	85	3
21	36	2
38	39	4
85	116	1
219	222	3
63	90	1
50	100	4
16	27	1
172	174	2
31	110	1
164	166	1
219	220	6
166	225	4
25	69	2
54	64	1
156	165	2
36	47	2
223	242	1
209	241	2
48	50	1
165	169	1
32	81	1
18	37	2
15	47	3
47	100	1
208	239	2
187	190	1
152	169	1
175	178	1
162	173	1
68	71	2
33	35	2
213	215	5
67	69	2
223	225	2
156	203	2
158	159	2
168	183	2
234	242	1
179	180	3
195	196	2
210	214	1
158	185	4
157	162	2
187	211	2
103	147	2
39	47	1
228	235	1
110	237	2
212	218	2
159	160	1
165	189	1
87	89	2
209	213	1
90	236	1
244	247	2
59	60	1
240	243	1
195	205	1
85	111	1
157	217	1
58	59	4
35	54	1
186	197	1
245	247	1
201	209	1
231	236	1
34	235	1
162	175	3
86	110	2
178	187	1
44	46	1
161	183	1
49	234	1
2	45	2
181	193	1
187	235	1
156	162	1
26	95	2
86	96	1
180	183	1
193	201	2
91	93	1
163	184	1
229	230	2
63	88	1
109	119	2
167	168	3
210	213	1
80	83	1
72	75	3
50	82	1
198	209	2
35	53	1
40	156	1
92	118	2
160	183	1
225	244	1
81	84	1
185	191	2
157	163	2
174	176	1
51	62	1
75	76	3
221	229	1
157	165	1
34	35	2
81	85	2
161	179	1
166	183	2
78	82	1
188	190	3
159	181	2
36	38	2
224	233	1
180	205	1
235	238	2
231	232	2
179	209	3
46	59	1
12	17	1
243	245	2
76	91	1
42	43	4
200	211	1
158	179	1
85	144	1
65	66	3
51	82	2
80	81	1
45	64	1
162	163	1
160	176	2
177	179	3
153	191	1
160	167	1
193	198	1
29	31	1
103	104	5
179	215	2
218	246	2
214	216	2
215	219	1
107	114	1
111	153	1
3	158	1
12	38	1
201	202	1
51	54	1
17	29	1
158	182	1
83	96	2
63	162	1
106	107	1
78	152	1
238	240	1
218	241	1
224	225	1
188	199	1
181	201	1
166	170	3
153	180	1
154	156	1
3	6	1
34	236	1
33	37	1
159	182	2
166	232	1
147	152	1
168	205	1
84	86	2
39	226	1
242	244	2
112	242	2
173	180	1
188	217	2
248	249	1
183	186	1
227	231	1
91	118	1
177	199	1
31	36	1
47	51	1
186	201	1
186	237	2
72	77	1
241	244	1
157	164	1
3	4	1
40	78	2
30	110	2
9	38	1
85	90	1
115	118	1
81	86	1
20	31	1
159	192	2
17	22	1
116	118	1
79	169	1
197	207	1
184	189	1
109	117	1
56	63	1
190	238	1
57	87	1
72	108	1
66	67	1
85	110	1
167	175	1
108	119	1
16	40	1
76	86	1
62	173	1
46	51	1
104	104	1
208	237	1
34	38	1
209	215	1
116	158	1
187	191	2
153	161	1
77	158	1
102	116	1
22	111	1
