72	73	12
125	125	11
26	45	3
95	117	2
1	1	18
39	39	15
40	40	16
4	4	19
95	95	20
73	103	2
104	105	6
79	80	3
75	75	18
8	8	17
76	76	10
114	115	9
60	60	9
117	117	24
87	88	2
26	26	12
45	45	16
124	124	7
19	20	5
66	66	9
80	81	5
86	87	7
21	23	4
39	49	2
57	99	2
23	74	2
52	52	25
28	28	9
74	97	4
6	31	1
99	107	2
79	105	3
112	112	7
127	128	5
106	106	18
107	107	16
0	0	16
58	117	1
102	103	4
78	79	7
126	126	8
55	73	5
79	79	4
61	61	4
57	132	4
12	12	14
2	21	4
119	119	15
64	64	4
30	31	4
7	7	11
38	39	4
8	32	3
96	96	14
26	54	2
32	32	14
49	49	21
2	4	8
13	13	10
41	47	2
26	30	2
118	118	7
7	121	3
43	117	2
68	116	3
40	133	3
48	48	18
33	33	5
62	62	7
104	104	9
24	24	11
128	129	4
83	83	8
78	105	1
89	90	7
101	104	3
53	53	24
6	6	17
4	5	5
65	90	3
82	120	3
73	73	14
16	17	4
49	50	11
47	47	6
24	25	2
56	56	13
30	30	8
50	50	13
110	110	10
28	31	2
115	115	11
9	9	5
71	71	10
21	21	9
111	111	7
60	107	1
46	47	16
99	99	11
7	34	1
59	59	10
1	2	13
94	94	7
91	91	9
41	42	5
70	108	1
64	65	2
11	11	11
60	62	6
132	132	11
85	85	15
87	87	9
15	15	16
48	49	3
130	130	16
68	68	10
67	68	11
89	89	11
106	107	7
120	120	21
41	41	15
2	2	9
43	43	7
105	108	1
32	33	3
45	119	3
86	86	12
114	114	18
101	102	8
23	23	16
63	63	21
123	124	1
92	92	10
88	90	1
75	76	9
79	104	2
44	44	16
66	132	3
43	128	2
90	90	17
90	91	5
34	61	1
109	110	2
126	127	5
40	68	2
18	18	6
7	33	5
62	63	2
38	38	6
93	93	14
65	65	19
100	100	13
128	130	3
18	20	5
93	94	2
82	83	4
92	93	5
128	128	7
91	95	2
101	103	5
41	44	1
29	30	3
130	131	2
29	29	10
121	121	9
95	98	2
70	77	1
72	72	9
131	132	3
34	34	3
51	51	24
46	46	13
14	14	6
45	108	6
83	84	7
66	115	2
7	8	1
58	59	8
39	40	4
81	83	6
46	51	2
11	12	2
102	117	1
81	81	9
20	38	1
114	116	3
82	82	8
22	33	1
81	82	8
118	130	1
101	101	13
47	50	3
23	24	7
0	19	2
82	119	1
72	74	8
13	14	3
14	33	3
56	101	3
78	78	6
22	29	1
77	108	2
8	9	3
47	52	3
28	74	1
125	127	2
74	75	3
1	87	1
107	108	9
105	106	4
77	77	15
65	66	3
69	69	5
16	16	6
75	102	1
61	86	2
82	88	2
0	120	2
40	49	2
109	109	5
125	128	5
117	118	4
43	52	1
129	130	2
27	27	6
114	132	2
59	63	1
10	10	5
116	116	11
25	26	10
26	93	7
45	46	5
25	78	1
97	98	3
31	31	4
14	23	1
72	130	2
33	43	2
79	84	2
29	44	1
5	5	15
120	127	1
87	90	4
100	101	2
22	41	3
30	109	3
50	122	2
10	11	9
85	86	5
2	3	4
77	89	2
24	77	1
17	17	5
115	117	2
83	85	1
43	63	4
19	21	1
25	25	4
55	117	3
98	98	4
57	57	8
113	113	6
27	32	3
80	80	7
60	76	2
55	98	3
53	54	4
14	15	9
42	55	1
11	106	2
73	74	9
68	83	1
61	63	2
131	131	14
40	64	1
60	70	2
112	113	6
123	123	8
47	48	3
65	76	3
103	103	6
88	88	8
10	38	3
12	13	1
74	79	4
59	62	1
89	91	4
33	98	1
55	56	2
106	130	1
3	5	2
77	107	6
6	7	3
25	98	2
22	22	11
55	55	5
4	51	2
94	95	5
27	29	2
27	28	4
63	72	3
70	70	8
67	70	1
19	109	1
31	32	8
25	32	2
61	64	1
42	43	4
20	21	2
116	117	5
105	105	6
60	95	1
42	42	10
100	108	2
108	108	5
101	133	2
29	32	1
84	84	3
122	122	3
24	98	1
48	109	2
81	120	1
111	114	4
46	120	1
73	77	1
96	97	1
20	20	10
90	92	1
19	30	2
38	54	1
92	102	3
9	39	2
41	48	1
127	127	10
19	19	5
61	62	2
65	67	1
70	118	3
113	114	9
110	122	1
69	108	2
31	43	1
89	107	1
23	64	3
97	97	11
62	85	3
25	27	2
62	86	1
42	44	2
77	91	1
67	67	7
101	118	1
77	111	3
43	55	3
32	85	1
92	109	4
69	71	5
54	54	9
80	88	1
58	75	1
67	80	2
133	133	3
22	105	2
102	107	1
102	108	5
69	70	5
99	102	2
78	104	3
69	91	2
41	46	1
38	100	1
70	117	3
34	38	1
26	77	2
63	64	2
59	107	2
3	3	7
124	125	5
25	74	1
43	44	5
82	85	1
15	16	3
91	92	1
75	96	3
4	23	1
118	119	2
59	60	4
59	93	3
72	80	1
56	60	1
23	123	1
58	58	6
67	73	1
33	88	1
28	29	1
106	118	3
71	72	2
102	102	4
71	117	1
74	98	1
98	132	1
8	18	2
59	86	2
104	109	3
129	129	7
115	116	6
12	23	1
51	52	1
113	115	4
42	48	1
26	75	6
102	128	1
108	120	2
11	39	4
8	21	1
15	23	4
1	22	3
95	96	2
29	69	1
111	117	3
20	84	3
22	104	1
112	115	2
40	41	2
112	114	4
99	103	1
8	33	3
49	51	2
95	116	1
16	64	1
68	130	2
1	18	2
1	4	1
28	32	1
1	21	1
33	63	2
63	89	3
74	77	3
70	71	7
98	99	1
26	46	2
101	105	1
8	96	2
47	127	2
46	49	1
21	30	1
0	34	3
42	125	1
23	72	2
74	74	7
108	117	1
60	61	3
49	54	1
52	53	3
99	100	2
49	122	1
34	98	2
73	131	3
63	80	1
13	17	1
65	133	3
8	86	1
10	40	2
98	112	1
69	115	1
13	15	1
65	131	1
21	22	2
33	96	1
104	114	1
60	81	1
46	118	1
94	109	1
6	88	1
68	69	1
27	44	2
46	100	1
61	87	1
7	12	1
10	12	1
61	88	2
39	55	1
4	82	1
7	16	2
72	100	1
99	133	1
82	86	1
22	24	1
110	111	2
57	110	1
60	91	1
18	19	1
47	118	1
77	86	3
28	57	4
103	105	1
30	62	1
8	64	1
54	58	2
78	111	1
6	63	2
97	104	1
19	24	1
106	108	1
88	89	2
46	48	1
10	106	1
19	25	1
43	130	1
20	23	1
89	118	1
22	99	1
42	126	1
39	94	1
65	117	1
43	118	1
37	37	1
33	62	1
17	41	1
105	109	1
62	68	2
125	126	1
5	7	1
63	118	1
33	34	1
34	55	1
72	102	1
95	97	1
14	16	1
77	78	1
73	78	1
25	62	1
96	100	1
47	49	1
43	126	1
24	55	1
72	76	1
75	90	1
28	78	1
84	85	1
23	38	1
50	54	1
85	89	1
66	75	1
42	63	1
45	118	1
31	42	1
30	60	1
99	108	1
80	82	1
0	32	1
