74	74	7
117	118	2
25	25	10
102	102	18
66	93	3
71	71	11
132	135	8
38	43	3
18	20	3
44	44	12
92	92	8
76	76	11
154	154	1
20	21	3
86	88	2
69	69	4
72	99	2
54	54	9
31	32	1
77	81	1
10	13	3
4	10	1
122	122	7
19	19	21
10	11	1
78	78	5
106	106	11
53	54	3
31	36	2
30	31	1
31	31	13
16	16	18
153	153	12
63	64	4
108	109	2
37	38	11
70	70	11
24	24	13
48	52	1
71	73	2
3	9	5
118	119	1
73	73	10
17	21	3
153	154	4
108	108	4
124	127	4
18	18	6
110	115	4
117	117	6
15	102	3
17	57	2
120	121	2
14	19	1
83	83	4
118	118	15
21	22	7
38	38	11
50	50	6
42	53	3
23	34	2
42	63	2
30	30	3
68	68	14
88	98	1
27	27	4
112	113	1
133	133	8
16	17	11
42	42	3
4	7	3
49	49	9
119	119	2
85	87	1
5	5	3
31	33	1
85	85	9
8	11	2
82	84	1
66	66	3
5	6	3
130	130	12
145	150	3
42	43	18
12	12	8
53	75	3
32	33	4
38	40	6
116	117	7
43	43	6
28	28	9
107	140	3
53	55	2
36	37	1
21	21	6
9	9	7
18	51	1
84	85	3
17	19	3
36	36	8
40	40	8
121	122	3
132	138	3
41	42	6
129	130	8
68	71	1
17	17	14
41	65	6
134	134	8
63	63	6
115	115	4
7	19	1
64	65	2
8	8	7
126	126	7
125	125	2
107	113	2
22	23	4
36	42	1
75	76	6
14	22	1
142	142	8
91	91	2
39	39	7
81	84	3
38	39	4
6	8	5
86	87	4
130	131	1
6	9	1
53	53	7
77	78	2
145	146	2
106	107	3
16	102	3
87	87	5
79	82	2
147	147	4
47	47	4
6	6	6
112	112	7
2	8	2
62	62	4
93	93	3
74	78	3
65	65	3
124	124	4
147	149	1
15	16	4
12	13	12
46	46	12
152	153	1
7	24	1
14	14	5
34	34	6
71	79	2
29	29	5
120	123	1
46	47	3
32	34	5
114	114	7
152	152	6
10	10	13
143	144	4
35	38	2
103	105	1
131	131	12
144	144	2
132	132	7
25	29	1
78	83	1
95	96	1
140	140	6
67	68	3
28	33	1
13	13	10
49	50	3
51	51	8
27	29	1
13	25	1
113	115	5
72	73	8
129	129	3
136	136	9
145	145	1
27	28	7
37	40	3
4	4	8
135	135	8
149	153	1
80	97	1
105	105	2
135	137	1
35	35	3
123	123	6
137	138	4
115	147	2
43	52	2
24	52	2
5	7	2
18	22	2
123	124	5
104	104	6
129	131	1
8	10	1
20	20	9
99	99	5
12	20	1
17	18	7
15	15	7
120	120	2
7	11	3
43	66	2
18	19	2
131	132	2
23	23	8
77	77	9
43	44	7
82	83	5
101	102	7
64	64	13
20	36	2
45	45	7
112	127	2
8	20	2
14	15	3
116	146	3
14	17	2
151	151	4
74	80	1
78	95	3
7	9	4
22	22	12
11	12	3
48	48	13
130	141	4
46	48	2
128	128	4
132	133	5
79	80	2
12	25	1
121	128	5
137	137	5
88	93	4
10	50	1
21	23	1
11	11	2
57	57	1
140	141	4
93	98	6
36	44	1
148	149	4
56	56	3
13	31	2
69	99	2
121	148	1
24	33	1
19	20	5
96	99	2
74	89	1
24	25	1
96	96	3
115	116	4
102	103	1
119	146	1
146	146	3
98	98	9
127	127	3
82	85	1
119	123	1
146	148	2
33	34	3
112	114	4
55	55	3
56	57	2
36	58	1
97	98	3
79	79	1
22	28	1
38	54	1
37	37	8
28	30	6
66	79	1
32	32	6
40	41	4
110	110	2
47	53	2
62	65	2
101	111	4
2	3	2
31	42	1
30	51	4
104	114	1
39	40	7
18	37	3
133	134	2
105	107	2
7	7	4
30	35	2
95	95	1
25	27	1
25	26	7
103	103	4
93	99	4
122	151	1
6	10	1
137	144	1
127	139	2
113	113	5
67	67	11
52	52	2
16	19	1
150	154	2
86	86	5
65	66	6
93	96	3
81	81	3
67	87	2
81	82	3
7	8	3
109	109	7
32	42	1
52	61	1
120	141	2
76	78	1
110	111	1
150	150	3
107	109	5
119	141	2
42	58	1
69	92	2
20	31	1
32	35	4
23	24	6
87	88	2
135	136	5
80	80	1
78	82	4
55	58	1
97	99	1
84	88	4
117	142	2
127	141	1
85	93	1
76	77	5
42	44	4
80	93	1
24	35	1
128	137	2
74	75	2
69	76	1
139	139	3
29	62	2
25	34	1
116	142	1
121	121	2
72	76	2
67	119	1
113	114	3
43	63	1
75	75	8
141	141	2
119	122	2
90	92	1
47	68	2
49	54	1
4	8	3
123	143	1
54	55	1
27	31	5
44	45	2
129	136	1
78	79	2
83	84	1
3	3	1
125	141	2
32	36	2
35	36	6
116	116	1
37	51	1
43	51	1
79	81	1
13	15	4
69	77	1
100	100	2
48	49	6
54	69	1
83	85	3
61	61	3
94	94	1
8	9	4
127	138	1
20	37	2
26	26	2
28	29	2
149	149	2
41	44	1
18	38	1
10	51	2
148	148	1
34	72	1
142	146	2
99	100	1
75	81	1
74	133	1
80	81	1
129	135	1
127	146	1
84	84	1
65	73	1
56	74	1
44	47	1
79	83	2
120	145	2
94	97	2
70	72	2
125	143	1
78	80	3
101	103	2
38	41	1
45	46	1
33	33	1
91	92	1
13	14	2
127	137	1
123	125	1
86	92	1
107	107	2
137	149	1
142	144	1
142	143	1
14	16	1
57	58	1
81	83	1
48	51	1
108	110	1
123	127	1
41	41	3
129	141	1
63	65	1
95	97	3
136	146	2
137	147	1
138	139	1
128	129	2
118	129	1
122	123	1
70	71	1
104	107	1
22	24	1
68	86	1
75	77	1
100	111	1
136	138	1
65	84	1
144	146	1
83	88	1
48	53	1
37	53	1
67	69	1
78	96	1
12	29	1
79	94	1
144	145	1
134	137	1
149	154	1
15	19	1
51	57	1
94	98	1
