52	52	14
86	90	1
121	121	1
75	76	10
91	125	1
96	98	1
81	82	9
62	62	3
5	5	10
10	20	3
26	26	6
83	99	1
82	87	1
64	65	4
9	46	2
102	103	3
52	53	1
105	105	10
112	113	2
22	22	4
92	93	7
98	98	8
112	112	8
126	126	4
53	54	4
31	31	5
42	44	4
89	89	12
14	14	6
124	125	1
93	123	3
132	133	1
99	99	8
49	51	2
105	109	1
125	126	5
59	59	4
69	69	7
96	101	3
129	129	11
69	70	4
12	12	7
38	38	7
41	109	2
54	54	11
46	46	4
72	72	4
2	2	8
40	59	1
1	1	7
50	50	12
83	86	3
87	87	1
128	128	3
3	5	2
110	111	3
61	61	3
32	32	8
94	94	13
104	104	8
110	110	7
102	102	6
93	93	8
104	105	2
80	83	4
30	31	1
123	123	4
106	107	1
53	53	6
78	78	6
9	10	2
74	74	7
49	49	12
66	68	1
118	120	2
58	69	3
113	113	3
73	73	2
73	106	1
111	111	7
130	130	13
34	40	4
3	3	8
103	104	2
70	70	10
11	11	3
30	32	2
85	86	4
19	20	5
105	106	1
101	102	4
7	7	6
88	89	6
73	74	1
129	130	2
91	91	5
63	63	6
95	95	9
69	107	1
79	81	3
99	100	7
30	30	8
69	85	2
120	120	6
86	86	2
101	101	7
109	110	1
88	88	1
57	64	2
131	131	4
57	57	8
28	28	6
42	42	9
29	29	8
71	71	4
51	51	13
85	85	4
118	119	1
59	63	5
122	122	6
58	62	3
103	103	5
108	110	4
50	55	4
79	79	3
59	62	4
85	106	2
48	48	12
46	47	4
12	86	1
106	106	11
16	16	3
83	84	3
39	39	4
81	81	3
96	96	3
64	82	5
55	63	2
107	107	6
130	131	4
70	72	3
68	68	4
80	80	5
43	44	5
28	29	2
101	126	1
24	24	4
66	67	2
115	115	2
6	6	9
100	100	3
127	128	2
47	48	1
65	68	3
67	67	2
39	40	1
68	69	3
43	43	7
119	119	5
125	127	1
81	87	2
13	14	1
4	132	2
65	65	4
122	123	3
125	125	3
18	18	5
56	56	1
25	28	1
63	85	2
98	120	2
78	79	1
44	44	2
114	116	3
109	109	8
92	92	1
121	133	2
121	122	4
51	53	2
5	6	2
50	51	6
116	116	4
95	116	2
45	45	10
20	20	7
2	3	1
123	124	3
12	26	2
17	17	2
4	4	3
85	122	2
49	69	5
78	80	1
40	41	2
97	98	3
65	80	2
108	108	4
109	111	5
79	118	2
4	5	3
34	38	2
46	74	1
13	13	3
46	56	5
120	122	1
58	59	3
49	50	1
114	115	1
97	116	1
63	64	3
8	9	5
87	88	1
38	39	1
14	31	1
31	32	2
102	123	1
126	128	4
15	16	2
39	42	2
25	31	1
42	43	2
90	90	4
117	123	3
19	19	5
31	56	1
56	57	1
19	21	1
91	93	1
67	68	2
72	109	2
40	40	4
72	74	1
19	26	1
32	62	1
15	15	2
89	91	3
66	66	6
9	11	1
77	78	1
132	132	1
61	62	6
25	25	2
42	46	1
41	41	1
133	133	2
58	58	5
49	64	2
89	90	1
11	93	1
71	76	3
54	56	1
9	9	2
76	76	2
59	60	5
50	52	1
120	121	1
0	0	2
16	33	1
99	102	1
21	21	2
117	117	3
51	52	1
12	29	2
119	120	1
27	27	2
60	61	2
46	122	1
42	88	2
72	73	1
33	33	5
99	101	1
55	55	1
48	49	1
15	24	1
27	31	1
64	64	2
59	77	1
15	32	2
11	12	1
10	54	3
79	117	2
94	103	1
124	124	3
20	21	1
59	76	1
111	112	1
90	92	2
108	109	1
27	87	2
31	60	1
23	24	2
25	26	2
80	105	1
8	8	2
77	77	2
32	56	1
83	83	1
71	121	2
95	96	1
63	84	1
26	27	1
66	81	1
69	87	1
94	112	1
69	86	1
18	20	1
59	61	1
100	112	1
101	104	1
131	132	2
93	125	1
5	7	1
93	94	1
62	70	1
70	107	1
10	10	3
100	105	1
102	117	1
16	25	1
103	116	1
82	82	2
23	34	1
101	112	2
21	22	1
14	28	1
60	70	1
70	71	1
96	97	1
104	123	1
39	109	1
20	30	1
123	125	1
75	77	1
