51	51	5
33	33	8
33	74	4
8	8	9
66	66	14
73	73	15
79	80	8
37	37	27
35	35	16
75	75	13
19	19	16
41	41	27
38	38	19
34	34	6
77	77	10
74	74	13
49	49	7
58	59	7
56	56	3
5	5	6
10	10	7
64	64	14
47	47	18
65	65	9
27	27	13
2	2	18
59	60	11
67	68	14
78	80	4
48	48	18
31	31	19
57	58	4
52	52	7
68	70	5
3	3	8
18	18	9
19	20	7
5	7	4
57	61	6
29	29	13
14	14	7
42	42	10
80	80	13
38	39	10
49	50	9
9	10	12
68	68	7
6	6	16
72	72	14
12	14	4
49	66	2
36	36	18
71	75	6
67	67	17
60	61	8
4	4	13
58	58	11
34	35	2
8	9	9
7	7	11
60	60	9
65	67	3
26	27	10
30	33	8
12	13	2
61	61	20
32	32	5
21	21	6
63	63	21
50	50	6
15	15	17
71	72	3
0	11	2
53	53	7
40	41	3
31	32	4
78	78	15
16	16	9
1	1	19
39	39	9
45	45	13
12	15	4
46	46	18
4	6	4
79	79	8
54	54	16
17	17	22
46	47	4
26	26	5
70	70	17
11	13	7
76	76	17
46	58	3
28	28	7
62	62	21
13	13	4
39	56	1
72	76	3
46	59	7
37	60	9
31	35	2
30	35	1
57	57	14
11	11	3
47	48	13
63	64	4
56	70	2
28	29	4
80	81	1
32	33	5
0	0	14
51	53	5
7	9	3
40	40	17
35	36	10
72	73	11
32	70	8
73	80	8
39	75	1
6	7	7
9	9	14
4	7	2
38	70	1
37	38	3
69	70	4
10	11	3
39	40	2
50	51	6
57	59	2
69	69	6
63	65	3
12	12	3
78	79	1
72	77	1
15	16	1
75	77	1
29	30	4
2	4	2
45	46	4
20	21	3
64	65	3
42	71	3
53	66	1
39	74	1
17	18	2
27	45	2
55	57	6
54	59	1
25	26	2
50	54	3
65	66	5
54	55	5
27	28	2
30	30	8
59	59	8
55	56	4
19	42	1
3	4	4
35	37	4
36	37	5
55	55	5
70	71	5
55	59	1
25	25	7
25	27	1
71	71	10
34	74	2
73	74	1
12	16	1
13	14	4
54	56	1
62	65	1
5	8	1
36	38	2
1	2	1
48	65	3
30	31	1
13	53	3
56	57	2
36	46	2
38	40	6
68	69	2
41	42	3
71	76	2
4	5	2
76	77	2
7	8	2
74	75	1
73	75	1
56	75	3
74	76	1
5	6	2
11	15	1
58	60	2
15	52	1
49	52	1
48	64	2
33	36	1
32	69	1
62	80	2
15	53	1
19	45	1
17	43	1
43	43	1
30	32	1
39	41	2
32	34	2
20	20	3
70	73	2
73	77	1
30	36	1
53	54	3
62	63	1
3	6	1
50	53	1
33	73	2
47	58	1
70	72	2
27	34	1
10	12	1
49	55	1
16	18	1
21	22	1
30	70	2
3	5	1
49	64	1
70	77	1
75	76	1
15	48	1
20	27	1
16	17	1
12	32	1
38	71	1
34	36	1
19	21	2
12	68	1
63	70	1
