12	12	34
23	23	21
71	71	20
67	70	2
16	17	28
118	119	7
25	25	29
41	43	6
15	19	4
80	80	5
98	99	13
36	36	29
26	27	7
127	130	3
117	117	15
66	67	10
120	120	9
75	76	14
39	40	18
68	75	2
63	64	9
11	11	30
40	41	10
27	27	12
43	44	7
131	131	17
41	42	26
77	77	21
65	65	19
39	43	1
14	15	7
133	137	3
32	32	33
134	134	13
137	137	8
24	24	41
106	116	3
38	51	2
122	123	5
54	54	15
93	93	5
37	49	1
39	50	3
121	121	15
30	31	10
67	67	12
95	95	20
47	47	10
112	112	15
130	132	3
72	73	19
106	106	26
107	108	8
23	24	6
58	58	2
15	15	12
78	147	2
51	52	9
111	112	7
80	82	8
22	24	4
75	91	1
69	70	15
62	64	1
86	86	8
40	40	28
103	113	4
32	33	11
66	66	37
97	97	21
72	72	20
100	100	14
94	98	1
18	19	14
112	113	3
7	7	11
115	116	7
84	86	5
129	129	23
31	32	9
108	108	12
57	131	1
66	77	13
34	37	7
154	154	16
16	16	22
44	44	17
132	132	17
34	34	16
95	148	1
87	87	4
108	109	11
113	113	20
116	117	3
126	126	5
99	101	4
11	14	8
46	46	16
13	14	2
39	39	22
47	48	11
119	119	10
121	122	3
31	31	17
120	122	2
98	98	14
12	14	2
70	152	10
133	133	12
77	78	11
42	43	4
137	138	13
44	53	2
151	151	10
40	68	4
64	68	3
102	102	15
19	19	28
33	33	8
8	8	12
106	122	4
4	5	5
76	79	4
13	13	21
127	128	8
139	140	4
95	98	2
131	146	2
138	138	6
35	35	19
43	43	30
4	37	1
35	37	2
118	118	15
133	134	4
85	85	7
7	8	12
135	135	20
79	79	11
145	148	11
44	45	10
107	107	29
51	51	6
66	71	3
114	114	13
130	131	4
57	57	8
2	16	4
105	108	2
134	136	4
50	50	20
17	17	21
29	29	12
5	5	16
127	127	11
114	115	4
19	20	12
130	133	2
32	37	7
48	48	28
106	107	15
7	19	2
20	20	22
5	6	11
68	69	12
104	113	5
123	123	7
78	78	16
103	103	17
94	97	4
75	75	11
15	18	1
95	96	2
104	104	9
6	21	3
147	148	3
37	37	26
73	77	3
118	120	9
30	30	18
125	125	7
42	44	2
18	20	12
41	41	21
10	10	33
63	67	3
21	22	5
53	72	1
49	50	4
99	100	7
35	36	14
41	54	2
22	23	24
49	49	9
6	7	15
46	48	2
38	38	21
112	114	1
37	38	12
82	83	7
56	131	4
68	68	13
40	49	4
4	15	1
95	97	5
37	50	5
64	66	15
149	149	5
25	26	8
124	124	4
9	9	13
83	83	10
28	28	14
122	151	3
47	68	9
131	140	1
86	91	3
74	74	17
38	50	2
143	143	22
109	111	7
122	122	7
6	6	4
24	25	7
94	94	9
86	87	8
67	72	9
94	95	10
136	136	17
29	30	5
18	18	5
130	130	25
93	94	8
14	19	1
70	70	6
150	151	6
110	110	17
73	73	19
108	122	4
109	109	23
56	57	2
82	100	2
86	96	5
113	114	4
96	96	23
140	141	8
23	25	2
80	81	4
136	137	4
82	82	5
36	53	3
5	7	3
45	45	10
106	114	2
26	29	3
20	21	1
107	110	4
63	66	2
152	152	7
52	56	2
2	37	3
78	79	5
63	63	8
111	111	6
22	22	8
88	88	3
126	127	4
45	46	2
17	20	3
92	92	13
4	4	5
7	12	3
42	50	6
52	55	2
132	137	6
38	39	8
63	73	3
15	16	22
10	11	20
105	105	11
8	9	7
6	24	4
143	144	2
53	53	13
26	26	13
65	129	2
105	106	2
97	100	8
70	94	1
99	139	3
13	19	3
28	29	9
69	69	14
70	73	6
6	16	4
21	25	2
81	81	2
99	99	12
79	80	5
97	98	3
45	54	1
64	129	3
64	64	5
13	21	2
119	142	2
69	131	1
32	36	5
129	132	2
132	133	7
141	142	13
70	76	1
61	62	1
97	99	2
76	76	9
67	69	7
80	147	5
27	29	1
142	142	4
77	79	7
146	147	4
4	6	3
47	49	5
133	136	3
148	148	8
64	65	9
119	129	3
68	74	1
136	147	6
16	18	8
17	39	9
36	37	9
101	101	3
68	78	1
128	128	7
50	52	1
101	114	3
3	109	1
74	151	1
106	108	4
65	66	2
95	99	1
33	36	7
132	135	3
146	148	2
17	18	5
145	146	5
96	97	9
14	14	10
14	16	6
53	54	8
86	98	1
65	73	3
135	136	5
141	153	2
74	81	3
107	111	1
3	7	3
128	129	6
102	103	8
16	21	6
102	104	5
30	32	7
140	140	5
50	68	3
131	132	9
150	150	15
66	76	2
51	56	2
101	102	2
82	84	5
33	34	4
76	90	2
144	144	7
69	152	3
8	23	1
24	26	5
14	38	2
56	56	9
7	11	1
48	49	2
88	92	5
10	14	4
121	150	1
85	86	3
66	70	9
116	116	9
141	141	6
94	146	2
146	146	9
73	75	2
74	94	1
76	77	12
68	129	1
45	103	1
62	65	1
7	16	4
125	127	2
68	73	8
29	34	1
153	153	5
55	69	1
121	123	7
153	154	2
8	31	4
66	68	2
65	83	2
142	143	4
67	71	3
40	42	6
49	52	2
62	66	1
43	45	3
91	105	1
2	3	7
65	75	3
11	12	5
48	50	3
95	103	1
27	28	6
136	138	1
70	153	1
30	33	3
106	150	1
120	121	6
8	12	1
107	115	2
6	38	3
54	62	4
106	121	5
63	129	4
84	98	4
84	84	1
38	54	2
28	30	4
115	115	6
98	145	1
134	137	2
149	151	4
13	20	2
110	114	2
107	150	1
108	150	1
10	39	5
85	88	1
110	111	3
42	49	4
29	31	4
7	15	2
134	135	5
42	42	10
117	118	4
21	21	4
54	55	5
151	154	3
91	91	6
3	39	1
82	85	2
103	105	2
123	125	2
50	51	1
58	131	1
71	76	1
108	110	3
119	153	4
126	145	4
44	46	2
116	118	6
74	75	2
124	127	2
104	106	3
79	146	3
12	13	7
93	146	4
62	62	6
61	63	5
70	77	1
75	77	1
148	149	1
124	125	2
42	117	3
8	10	2
38	68	2
50	55	1
33	121	2
75	82	1
100	101	2
133	135	1
36	51	3
73	76	1
83	94	3
109	110	1
140	142	4
41	44	1
83	84	4
108	121	2
92	97	2
34	35	1
98	101	2
33	35	2
143	148	1
75	115	1
50	63	3
22	25	1
9	10	4
20	22	3
145	145	2
108	120	1
55	56	4
68	150	1
67	68	1
69	128	3
50	54	3
50	67	1
55	55	2
71	72	2
103	104	6
138	139	2
38	132	1
15	24	4
112	118	2
120	126	1
66	73	1
136	139	2
90	154	2
16	23	1
92	105	2
28	139	1
17	19	3
77	101	1
148	150	1
78	80	1
87	93	1
16	22	2
3	42	2
37	51	1
3	3	1
38	131	1
31	35	1
128	139	2
34	121	2
62	69	1
34	36	1
92	93	3
144	145	1
81	83	1
147	147	1
124	129	2
17	41	1
125	126	2
129	131	1
93	103	2
72	76	1
69	130	1
81	142	2
72	115	1
99	102	1
48	135	1
3	49	2
84	95	1
3	9	1
109	120	2
10	12	2
6	10	2
40	135	2
95	102	1
89	91	1
44	49	1
74	148	1
78	91	1
40	43	1
36	54	1
124	128	1
128	134	1
84	85	1
69	132	2
56	62	3
75	90	1
42	48	1
9	13	2
138	142	1
140	144	1
123	124	3
94	96	1
119	148	1
3	38	2
77	102	1
7	14	2
112	122	2
77	82	1
71	77	1
52	52	2
8	20	2
46	47	1
38	69	2
69	74	1
54	72	1
67	154	1
68	152	1
107	109	1
107	114	1
142	144	1
8	16	1
16	20	1
31	34	1
55	72	2
31	33	1
82	89	2
49	54	1
90	92	1
134	139	1
