48	48	14
52	52	12
39	40	5
11	11	10
4	4	10
40	40	20
59	59	19
1	1	25
6	7	7
8	8	19
55	55	32
1	2	6
61	61	15
31	31	36
5	5	9
35	35	10
36	36	29
5	6	10
10	13	6
22	22	8
29	30	2
41	41	20
22	24	3
40	50	2
43	43	15
30	30	27
17	17	11
35	43	2
58	59	8
15	15	8
62	62	11
15	16	6
19	20	8
47	47	20
38	59	5
6	10	5
54	55	6
51	51	22
46	50	1
3	3	12
20	20	7
29	29	3
7	8	5
38	38	19
39	39	7
7	9	5
37	37	23
36	37	4
55	56	11
9	9	11
53	53	18
32	32	29
38	55	2
43	44	9
31	47	2
40	45	1
52	59	4
47	48	6
8	10	7
58	58	15
37	38	6
44	44	21
58	60	7
56	56	14
30	39	2
31	32	3
0	0	9
42	42	27
60	60	10
30	31	6
60	61	3
42	45	2
34	34	28
5	11	2
49	49	21
57	57	5
33	33	7
46	46	26
19	38	5
23	25	1
24	25	1
19	29	1
51	52	12
30	44	4
21	21	13
54	54	19
38	40	7
20	21	8
45	45	19
14	14	8
6	6	12
44	45	8
32	33	4
25	25	10
56	57	16
4	5	8
0	2	2
2	2	6
24	24	10
50	50	11
48	55	5
33	34	3
38	41	4
50	51	13
11	12	3
18	20	7
23	23	5
51	59	5
18	18	8
21	22	6
0	1	4
16	17	4
16	16	3
54	59	3
44	47	5
53	54	9
32	48	3
50	53	6
31	57	1
31	40	1
39	41	2
35	49	2
37	40	3
41	50	1
2	4	2
50	52	5
40	41	4
6	8	4
8	13	4
12	12	5
32	40	6
10	11	6
16	18	2
38	39	8
41	54	1
30	55	2
33	36	1
49	50	15
44	50	2
24	26	2
22	23	8
20	23	1
8	9	3
37	44	2
57	59	3
45	46	9
39	42	2
34	35	6
56	59	2
13	13	5
44	60	3
42	58	2
37	41	1
51	55	1
46	47	4
60	62	4
48	49	2
19	19	7
52	60	6
36	45	4
4	13	3
59	60	5
54	56	2
31	44	3
20	22	1
52	53	3
21	24	2
41	42	2
2	3	3
10	10	5
52	57	3
36	42	1
53	55	1
57	58	8
7	7	8
18	19	5
16	19	1
43	47	2
8	11	4
19	21	1
57	60	2
56	58	2
41	45	4
38	53	2
32	34	1
39	57	2
17	20	1
35	42	1
46	49	2
6	22	3
35	36	3
17	19	3
52	58	1
30	37	2
42	44	1
47	49	3
13	15	1
11	13	3
14	16	1
30	57	2
13	16	1
32	49	1
39	49	1
56	61	1
45	48	1
30	32	1
40	42	1
42	43	1
23	24	1
13	14	2
37	56	1
30	56	1
41	59	1
34	50	1
