80	81	1
41	42	3
34	34	11
22	22	11
54	62	5
99	99	10
55	55	9
87	88	3
37	37	2
70	70	9
73	73	9
75	76	4
24	24	11
83	84	8
91	91	4
51	51	12
51	55	6
92	92	18
78	78	14
23	23	7
71	71	7
84	85	3
88	88	7
67	67	5
83	86	4
37	68	3
52	52	8
43	43	5
46	46	3
40	40	11
20	20	5
76	77	4
58	59	6
77	77	6
106	106	12
37	97	5
50	50	6
76	76	6
29	94	1
105	105	9
97	97	7
104	104	16
54	54	8
72	72	11
45	45	4
23	78	4
61	62	2
96	96	6
27	27	1
85	101	5
22	28	3
65	75	2
32	32	7
64	64	9
63	67	2
98	98	3
38	38	8
22	88	3
93	99	1
60	61	3
36	36	3
65	67	1
59	59	9
102	102	6
53	54	3
56	56	11
90	90	5
65	65	1
68	68	8
47	47	3
103	104	2
101	101	6
100	100	11
49	50	3
71	72	1
61	63	2
103	103	12
29	95	1
30	30	6
25	85	2
66	67	3
58	58	2
94	94	7
60	60	4
57	89	5
87	87	2
25	25	4
28	28	2
74	74	6
45	49	1
84	86	2
90	91	3
65	66	2
31	31	6
63	63	6
53	53	1
89	92	2
21	21	4
77	78	1
84	84	4
47	48	1
44	44	3
86	86	3
68	81	1
99	100	2
95	95	10
25	27	1
97	99	4
36	70	2
65	84	4
66	66	2
85	85	4
33	33	2
69	69	2
42	43	1
82	82	2
22	23	1
62	68	1
78	80	2
92	94	1
38	85	3
50	51	1
61	61	4
73	74	3
89	90	2
89	89	3
79	79	3
71	73	1
91	95	3
81	82	2
37	38	2
57	57	3
97	106	5
72	73	5
44	45	1
20	92	2
49	49	2
93	93	5
21	56	4
38	70	1
81	81	1
29	29	3
95	96	1
51	93	2
97	98	1
88	90	1
100	105	2
34	86	2
33	34	1
54	55	3
41	45	1
45	46	1
20	21	3
36	72	1
40	45	1
65	76	1
86	87	1
39	39	2
39	68	2
36	58	1
57	60	2
35	35	4
91	92	1
66	68	1
98	99	1
45	59	1
39	98	1
83	99	2
37	54	2
40	42	1
78	95	1
100	101	1
23	65	1
80	80	1
35	37	1
90	94	1
88	89	2
62	62	1
47	57	1
62	63	1
51	52	1
65	103	2
26	26	1
82	99	2
83	83	1
77	102	1
59	60	1
52	53	1
61	70	1
