132	137	6
70	70	15
94	95	4
149	149	25
131	151	1
80	82	2
53	54	9
129	129	9
128	130	5
46	46	23
79	80	14
48	48	22
33	33	11
17	24	3
111	111	9
144	145	4
135	135	17
16	16	19
11	11	20
147	147	16
109	110	5
49	49	10
80	80	19
92	92	7
51	62	6
38	41	7
53	53	27
68	96	3
145	146	13
63	65	6
128	128	8
19	19	10
83	86	1
143	143	10
127	127	7
39	43	2
99	99	12
106	108	2
34	35	18
137	147	7
98	98	29
55	55	17
33	34	13
9	10	4
146	146	6
133	133	6
144	146	5
57	57	11
85	85	7
29	30	14
53	58	4
69	69	11
80	96	3
132	133	8
138	138	9
122	138	6
47	52	2
126	137	6
18	18	22
123	123	16
44	44	19
123	124	17
44	46	5
63	63	13
13	13	16
72	73	9
86	95	1
151	151	10
101	102	3
120	121	6
32	32	16
148	148	16
17	17	24
48	49	5
68	68	24
6	14	2
121	121	25
18	19	9
109	126	3
23	23	9
51	51	12
34	34	17
29	29	18
44	45	4
66	66	17
27	27	7
137	137	9
84	84	17
123	138	2
100	100	9
18	25	3
102	104	2
74	74	19
12	12	11
113	113	12
34	69	2
147	148	9
136	136	14
145	147	4
53	55	7
90	92	4
54	55	4
4	4	14
57	58	4
7	7	11
9	9	15
30	30	15
7	32	3
86	86	9
102	102	7
101	101	6
20	20	16
41	43	6
21	21	13
90	90	7
20	21	14
57	108	7
40	41	5
25	26	5
95	98	6
38	39	7
56	58	3
77	77	12
26	26	12
93	112	1
45	45	17
68	120	3
78	79	5
101	111	2
110	110	20
84	104	2
35	36	11
16	17	2
64	64	12
7	31	8
12	13	17
126	126	16
8	11	3
137	143	2
92	93	4
71	73	7
136	137	4
25	36	5
4	25	6
53	116	3
144	144	9
94	96	1
107	107	17
32	35	3
134	134	7
5	5	14
137	138	6
31	31	16
131	134	5
62	62	5
81	82	7
22	22	12
130	141	2
4	5	9
141	142	13
13	14	9
94	94	7
2	2	2
72	75	4
86	87	4
37	37	14
36	38	6
85	86	12
96	112	3
125	125	14
8	8	15
42	42	16
84	85	2
96	98	2
66	124	5
154	154	17
22	34	4
39	39	21
69	72	4
66	74	4
83	83	10
40	40	22
82	82	9
40	42	3
145	145	10
73	78	5
73	76	2
22	23	14
72	85	3
138	154	4
39	40	6
112	112	13
67	68	11
96	117	2
117	117	22
54	54	11
96	102	7
20	22	4
56	107	7
90	142	2
37	38	10
51	56	6
53	117	2
38	43	5
71	71	13
79	111	3
71	72	1
19	20	9
50	72	5
36	36	9
47	47	5
116	116	8
58	58	7
37	40	5
68	71	3
132	134	8
15	15	25
65	65	13
125	136	4
103	104	6
103	108	4
35	73	4
138	148	1
50	50	5
139	139	5
41	41	17
107	118	4
78	78	14
32	34	2
73	73	13
6	7	6
143	144	2
46	47	8
132	142	2
100	101	4
68	115	4
13	23	6
41	52	1
15	16	11
70	131	3
26	27	4
69	71	13
36	44	5
97	97	16
139	143	6
14	22	5
24	38	6
132	151	2
43	43	9
9	16	2
68	73	2
134	145	2
141	141	5
8	9	6
14	24	2
11	13	8
128	129	4
96	96	13
82	87	3
115	115	9
104	104	15
101	110	6
61	63	4
81	81	9
10	10	16
120	124	5
152	152	9
75	75	7
38	38	13
48	50	4
10	12	1
15	31	2
17	38	2
74	75	6
80	81	9
153	153	15
75	76	8
30	31	8
81	99	3
126	136	1
140	144	4
110	111	5
108	110	5
10	13	2
71	76	1
67	120	5
150	150	8
28	28	7
25	25	15
112	113	8
38	40	2
36	42	2
118	119	2
43	49	4
42	43	7
106	107	6
131	137	1
114	114	6
100	146	4
32	33	6
132	132	10
25	37	5
77	136	2
24	25	6
104	105	1
76	76	4
139	140	1
106	110	1
69	135	4
3	3	5
24	69	1
87	87	7
5	18	2
135	136	4
10	125	2
142	144	4
22	38	3
12	24	5
43	44	5
17	19	2
75	77	5
56	63	1
25	32	4
119	119	8
39	49	1
49	52	5
26	34	6
67	67	6
21	22	3
77	78	4
31	32	4
88	94	3
146	147	5
109	109	7
141	144	1
42	44	5
66	121	2
58	108	1
14	14	8
19	64	2
11	30	2
115	117	6
22	25	3
114	115	2
104	106	3
126	127	3
97	111	1
21	68	1
89	93	2
103	113	3
133	134	2
3	4	2
96	103	1
127	128	5
122	122	5
9	11	1
142	142	4
89	90	1
120	120	6
27	28	1
116	118	2
144	147	1
23	34	2
65	105	3
106	109	4
48	54	1
117	118	1
65	115	4
93	98	2
11	31	8
150	151	4
134	139	1
69	140	1
10	24	1
152	153	2
88	89	4
134	140	2
79	85	4
75	111	5
74	78	4
136	148	3
35	35	7
111	114	2
68	69	6
137	146	5
63	64	7
21	33	3
45	46	11
93	93	12
89	89	3
26	31	2
105	105	10
130	146	2
81	110	3
70	75	5
89	141	1
139	148	3
6	6	6
76	77	4
16	20	2
34	37	4
34	42	1
78	136	5
95	95	19
130	132	1
82	85	5
96	97	8
64	71	2
107	110	2
124	124	4
54	116	6
70	71	7
121	123	3
38	52	1
12	35	4
150	152	3
137	145	1
41	50	1
90	143	2
55	56	4
131	132	5
125	126	8
101	113	2
20	25	4
129	130	7
65	94	1
104	109	1
23	24	6
21	23	8
54	57	2
76	98	2
69	121	1
118	118	11
103	103	6
69	139	3
24	24	7
48	53	2
56	57	4
93	114	1
106	106	4
123	137	3
138	139	2
49	51	1
55	141	1
130	130	4
124	125	6
34	43	3
15	19	3
5	6	4
3	30	2
102	113	2
134	136	1
78	148	2
67	71	1
50	51	8
14	15	3
8	42	4
99	113	3
131	135	2
107	109	3
91	141	6
85	126	4
120	143	2
34	71	1
140	141	1
50	52	3
6	8	2
79	86	2
98	99	4
127	134	1
84	96	2
7	11	1
10	11	4
87	88	1
11	37	3
75	110	1
113	115	1
85	87	3
149	151	2
34	36	1
66	67	7
95	101	2
28	30	2
100	109	1
17	18	4
63	105	3
43	50	2
45	47	3
48	51	5
26	36	2
76	79	3
87	92	2
13	33	1
69	70	1
21	65	1
64	65	1
95	96	3
118	138	1
36	56	4
136	154	1
127	145	1
4	22	4
85	148	2
97	98	4
3	25	3
138	145	2
140	142	2
95	120	1
76	110	1
27	31	1
111	113	2
96	131	3
81	111	2
4	7	5
19	25	3
67	123	5
72	72	10
36	37	1
149	150	2
100	149	1
17	86	1
130	136	2
81	114	2
134	148	1
92	118	1
25	34	4
92	142	1
119	120	3
121	122	1
26	29	2
76	78	2
16	38	4
8	31	9
23	36	3
30	32	4
71	84	1
14	35	1
69	123	1
22	30	1
41	54	3
5	20	3
127	136	1
71	74	1
93	141	4
69	131	3
56	56	3
115	116	3
131	133	3
150	154	1
133	135	3
63	108	2
52	55	1
91	91	2
119	122	3
9	42	4
137	139	3
80	92	1
41	42	1
6	28	1
10	42	2
12	25	2
146	148	1
75	78	3
125	138	1
41	49	3
49	50	1
112	114	3
102	110	3
138	146	2
22	24	3
107	112	1
65	66	2
37	43	1
99	114	1
87	93	2
6	31	1
31	37	1
4	30	1
92	120	1
74	77	3
134	138	2
139	144	2
52	52	1
6	64	1
93	111	1
129	133	1
70	130	1
99	100	2
23	32	1
20	65	1
23	38	1
123	128	2
20	24	1
84	125	2
143	148	1
19	63	1
136	147	2
123	144	1
140	140	4
88	92	2
84	102	2
137	148	1
99	146	2
62	64	2
39	41	1
105	110	2
52	103	1
64	103	2
100	111	1
48	57	1
134	137	2
118	142	1
110	113	4
68	84	1
62	63	2
108	154	1
122	127	1
88	88	4
99	141	2
122	130	1
85	89	1
9	13	1
102	108	1
12	33	1
61	64	2
78	137	1
49	53	2
122	123	1
10	45	2
15	24	2
93	94	1
73	75	1
65	108	1
20	23	2
131	131	1
56	109	1
73	74	1
84	95	1
47	48	1
153	154	1
96	101	3
95	112	1
16	24	1
113	114	2
115	118	1
100	110	2
117	119	1
83	102	1
3	22	2
100	154	1
19	24	1
50	63	1
12	19	2
95	97	1
5	31	1
134	135	2
96	121	1
78	111	1
113	116	1
84	124	2
78	125	1
104	113	1
5	7	1
64	94	1
7	27	1
57	109	1
151	152	2
119	124	1
92	94	1
93	95	1
67	119	1
66	116	1
84	117	2
96	141	1
84	103	1
65	103	1
4	33	1
34	73	1
89	149	1
24	34	1
105	106	1
19	26	1
117	144	1
35	62	1
10	17	1
123	126	1
79	126	1
104	107	1
19	65	1
