40	40	9
29	29	14
48	48	11
71	72	3
2	33	2
57	57	17
55	55	24
131	132	9
52	52	9
108	108	4
2	2	10
125	125	26
68	127	3
61	98	1
27	84	2
47	47	16
102	103	11
8	9	12
46	70	8
10	10	13
129	129	6
98	118	1
105	106	8
124	125	4
81	81	10
14	14	13
60	60	8
95	95	8
114	114	12
87	87	8
33	33	17
9	9	11
46	47	15
64	64	12
105	105	24
125	127	1
80	82	2
12	12	17
81	82	4
25	25	15
122	122	12
54	54	26
5	5	17
1	1	3
99	99	5
101	101	7
112	113	3
45	45	19
47	48	1
97	97	7
66	66	19
114	115	2
37	38	1
5	42	1
61	63	3
22	22	8
4	5	8
27	88	4
115	118	5
120	120	16
47	49	4
118	118	14
3	4	3
13	13	12
38	39	4
93	94	4
74	74	11
26	26	6
77	77	12
100	101	4
18	22	6
90	90	9
69	69	7
48	49	5
53	53	17
113	119	3
39	40	9
85	86	4
55	56	3
126	127	9
70	71	16
117	118	5
83	85	3
11	12	6
99	101	1
14	16	4
61	97	4
83	84	4
65	65	6
102	102	6
115	115	7
44	44	11
27	27	11
121	121	15
70	70	8
73	74	6
6	6	10
0	0	3
124	124	7
91	91	12
75	75	9
18	19	2
130	130	13
111	111	3
119	119	6
43	43	13
84	85	8
112	112	14
58	62	2
94	94	9
67	67	15
4	4	14
86	88	4
78	78	10
72	72	10
97	98	5
26	27	7
131	131	17
80	80	7
103	103	8
127	127	11
39	39	20
75	77	2
110	110	11
75	79	5
21	22	4
83	83	9
58	58	18
107	107	11
130	131	5
11	11	7
96	96	4
51	51	7
99	127	3
113	113	8
31	32	1
73	73	7
19	19	12
40	43	6
18	18	3
119	120	5
76	76	18
28	30	4
85	85	11
121	122	3
21	21	13
68	68	2
63	63	9
128	128	7
0	1	2
92	92	5
13	23	4
80	81	6
116	116	10
118	119	5
89	89	5
38	38	5
82	83	2
67	68	4
44	90	3
42	43	1
52	53	5
37	37	7
106	106	11
107	109	2
30	30	15
41	41	7
101	103	3
94	122	1
56	56	17
86	87	4
22	25	1
126	126	7
61	61	8
63	88	2
46	46	7
66	67	6
122	123	3
104	105	6
46	49	2
32	33	4
17	17	3
59	59	7
22	23	3
15	16	4
32	32	16
24	24	6
132	132	4
20	20	9
109	111	7
129	130	5
100	100	11
103	119	4
62	62	9
50	50	19
42	42	10
117	117	13
8	8	5
65	66	6
27	29	4
104	104	24
1	2	3
49	56	1
92	94	4
41	42	6
50	51	4
84	84	4
50	57	2
103	104	2
43	44	4
58	59	5
12	64	2
49	49	12
84	90	1
43	47	1
88	88	8
126	128	2
111	112	5
109	109	7
90	91	3
91	92	3
86	86	4
69	123	1
20	99	2
108	109	12
16	16	1
93	93	12
65	78	2
22	99	1
67	78	4
7	7	7
28	28	9
2	3	7
32	45	2
117	120	4
123	123	8
57	71	3
115	116	1
82	82	7
76	77	2
25	26	4
79	79	1
69	76	2
75	76	3
65	79	2
49	52	4
88	89	5
51	52	5
116	117	2
19	20	2
25	100	3
57	106	1
114	116	2
109	110	4
66	69	2
73	98	2
42	44	8
20	21	3
104	106	2
84	88	3
128	131	1
45	46	7
106	107	4
6	20	5
96	97	3
52	54	1
98	98	10
9	10	4
85	89	1
104	109	3
113	114	4
91	93	2
127	128	1
31	101	1
71	71	4
7	11	1
5	13	2
57	58	1
131	133	3
18	23	1
29	31	1
4	22	1
116	125	1
30	50	1
132	133	2
15	15	4
16	96	4
33	79	4
74	98	2
28	32	1
74	85	1
102	125	3
51	54	1
23	23	1
57	118	1
64	65	2
56	64	3
47	95	1
33	77	1
24	25	1
19	26	3
3	3	5
45	47	1
79	98	2
20	83	1
106	119	1
18	99	2
27	28	4
89	90	1
45	58	2
13	43	2
77	78	1
80	95	1
61	62	4
22	67	1
72	73	2
17	99	1
33	34	1
40	42	4
44	55	1
113	116	1
54	96	1
78	79	1
101	104	2
44	45	2
53	54	6
10	27	2
59	61	1
102	120	1
89	102	2
133	133	1
62	63	1
31	31	1
99	100	1
66	68	1
5	6	1
64	99	1
78	85	1
129	131	1
95	96	1
114	118	1
56	57	2
109	113	1
87	88	1
120	121	1
22	24	1
28	53	1
92	106	1
20	26	1
111	113	1
123	124	1
12	13	1
61	90	2
63	75	2
115	120	1
13	96	1
31	61	1
29	30	1
59	60	1
51	53	1
0	6	1
20	22	1
126	129	1
24	99	1
8	16	1
41	43	1
102	104	1
100	119	1
0	53	1
