107	109	4
25	25	17
25	134	2
61	61	22
21	22	9
114	114	39
22	22	17
30	30	11
67	116	2
54	55	9
53	58	1
42	42	5
18	21	1
120	120	31
28	28	6
65	69	5
78	91	5
65	65	15
119	119	56
12	12	25
33	34	5
104	105	7
63	63	24
88	102	3
110	110	22
71	71	37
134	135	5
15	15	23
9	9	19
114	116	10
44	44	24
29	29	6
79	79	19
26	27	3
49	49	27
134	134	34
85	87	3
9	16	1
127	127	17
97	97	27
70	70	35
73	73	44
55	55	26
24	28	4
77	79	4
105	116	2
58	59	5
86	86	12
118	118	11
4	4	29
21	21	26
74	74	33
31	33	9
66	66	16
77	91	4
57	57	22
90	90	34
126	126	26
92	92	27
55	62	2
64	68	3
129	129	34
83	109	2
132	133	7
89	90	20
97	98	10
132	132	29
89	89	26
29	30	8
113	113	34
7	8	5
69	69	23
101	101	19
109	117	1
50	97	2
75	77	2
111	111	41
107	107	16
103	103	46
123	134	3
119	120	11
91	91	27
106	106	20
95	95	26
122	122	19
108	108	28
86	89	1
19	19	10
80	81	4
102	121	4
112	113	8
6	6	14
31	31	24
102	102	36
70	74	5
29	33	3
98	100	5
122	130	4
87	87	26
3	3	13
59	59	17
38	38	7
7	23	3
96	98	7
109	109	16
112	112	34
53	53	14
117	118	11
1	1	9
2	23	1
115	115	35
133	134	9
57	58	11
19	23	1
105	106	16
31	92	7
11	48	2
72	73	17
116	134	2
10	11	9
8	8	24
50	50	36
21	23	2
120	121	9
14	15	10
128	128	26
87	122	3
43	43	10
76	76	31
52	52	23
81	82	14
113	121	4
52	53	5
75	75	25
5	6	1
11	11	14
100	100	26
23	23	11
20	25	3
51	51	2
68	70	3
93	109	3
104	104	40
24	24	25
29	78	1
17	17	4
74	75	9
1	23	2
123	123	52
17	18	5
108	109	6
98	98	47
116	116	26
42	56	2
12	99	4
72	72	19
12	76	2
36	36	17
84	85	7
50	51	2
13	14	6
113	129	4
131	131	34
60	60	34
83	83	19
15	16	5
93	93	19
27	28	2
106	128	1
7	7	18
56	56	10
106	107	13
92	93	16
34	34	11
107	110	2
114	130	2
119	121	6
20	20	9
56	57	3
36	46	2
111	118	5
73	76	4
63	64	15
14	14	11
64	64	31
78	78	21
3	28	1
60	77	4
124	125	12
22	23	6
3	6	3
45	50	1
62	105	4
124	124	25
101	102	10
104	121	1
128	131	4
112	125	2
114	115	6
99	99	16
61	62	8
70	99	3
129	130	11
77	80	3
93	134	1
123	124	7
43	44	7
69	108	3
133	133	18
103	126	1
68	69	2
16	19	1
119	130	7
18	18	4
106	110	5
93	125	1
79	80	6
69	80	2
98	99	10
1	3	14
77	77	22
103	104	2
10	10	15
86	120	3
99	100	6
125	125	23
66	67	7
90	95	3
71	72	9
95	103	1
32	32	20
91	95	2
1	2	10
77	78	13
75	76	12
38	60	1
72	76	2
82	82	25
115	116	7
109	113	9
57	61	3
20	24	1
84	84	17
114	126	3
70	71	8
33	35	3
87	96	2
117	117	18
54	56	4
114	128	2
96	116	1
121	121	14
121	123	2
80	80	12
107	108	12
89	92	7
49	50	10
127	128	13
130	130	40
66	69	9
22	24	8
58	58	18
46	54	3
76	77	4
19	20	10
31	32	2
66	79	2
88	104	5
55	59	3
66	68	5
29	79	3
52	65	4
111	119	3
67	67	13
88	103	1
85	85	15
23	98	10
68	68	16
24	26	2
132	134	1
59	97	4
45	45	10
33	33	23
37	37	8
88	88	13
6	11	3
111	113	8
16	16	18
2	5	2
112	114	2
25	26	12
88	132	3
81	81	12
94	94	18
13	25	3
23	24	4
26	97	3
90	94	5
96	96	19
56	60	2
7	13	1
29	32	2
2	2	12
121	122	4
13	15	3
115	126	1
113	126	2
68	84	3
99	101	8
130	131	3
69	70	5
38	44	2
123	128	3
53	117	3
45	46	4
115	131	2
36	37	8
94	95	11
26	26	11
108	126	2
63	101	2
72	75	1
19	27	2
42	43	1
88	121	7
82	100	2
91	93	2
81	93	2
122	123	10
5	5	13
9	10	6
71	79	2
83	84	14
113	114	2
62	112	4
53	56	3
35	35	13
30	32	5
103	135	3
62	77	3
55	56	7
130	132	2
100	102	2
50	57	1
73	77	3
11	37	7
66	84	1
106	124	2
84	88	4
88	94	3
135	135	2
55	60	1
105	105	25
2	4	2
57	59	1
117	130	1
27	27	15
69	71	6
78	80	2
128	130	2
6	7	4
62	62	7
65	68	2
78	79	3
3	4	10
94	108	5
48	48	4
7	11	6
106	115	1
101	106	3
78	84	2
112	127	4
6	112	1
82	83	7
44	45	9
80	102	4
26	28	4
54	57	1
103	106	4
111	125	5
16	17	1
30	34	3
121	124	1
131	133	1
79	92	3
47	47	6
0	1	5
8	9	4
62	63	8
4	27	4
46	46	8
96	99	3
92	96	1
109	111	2
51	54	2
110	111	5
64	65	10
103	121	1
50	66	2
105	115	3
83	85	6
95	105	1
6	8	5
34	35	11
12	26	1
119	127	1
24	25	5
18	43	3
81	97	6
118	119	6
10	37	1
91	92	8
28	29	1
131	132	8
92	120	1
72	74	2
10	15	2
100	101	6
43	58	2
35	36	6
95	121	2
106	111	4
60	61	5
6	10	4
67	68	4
18	20	1
87	133	3
0	0	8
89	91	2
125	131	4
69	72	5
28	30	3
122	131	7
54	107	2
113	117	3
108	110	3
110	116	2
117	120	4
53	118	2
13	13	11
123	126	3
106	133	3
49	51	1
7	24	5
51	60	6
32	61	4
75	91	1
70	72	7
110	122	1
126	135	1
7	14	2
93	94	6
97	99	1
7	113	2
32	76	2
35	53	2
82	99	3
77	96	4
15	27	3
60	85	2
51	79	2
9	32	1
87	129	4
96	97	6
126	127	6
3	5	2
25	27	2
0	3	6
86	87	8
87	90	5
65	66	4
59	66	2
47	54	5
94	104	1
117	131	3
1	8	2
18	28	2
87	128	1
50	52	1
42	57	2
28	35	1
63	124	4
95	96	8
7	112	4
6	23	1
87	106	2
76	99	1
116	119	1
117	119	3
123	127	1
122	129	3
111	115	1
79	124	1
59	64	1
109	110	3
62	64	4
32	34	5
93	102	2
125	127	1
18	19	2
90	91	9
82	91	2
87	88	2
34	76	2
89	121	2
112	118	3
93	99	2
53	55	3
116	117	3
10	35	2
56	83	2
106	118	1
73	74	4
64	66	1
52	64	2
0	101	2
78	131	1
54	54	6
58	78	3
91	117	4
54	58	2
78	92	1
7	9	2
95	100	1
95	120	3
88	90	3
5	129	1
9	15	4
62	91	3
114	117	1
86	93	1
87	94	1
83	86	2
111	126	2
63	69	2
84	86	4
71	73	5
20	22	3
78	97	2
106	135	1
33	36	2
12	27	1
113	115	4
107	111	1
45	51	1
115	119	1
116	124	1
10	20	1
35	76	1
94	110	3
110	119	1
84	131	3
42	78	1
112	115	1
75	94	3
13	77	4
110	125	2
122	125	3
106	108	1
43	62	2
111	130	1
78	96	1
125	126	2
65	67	2
18	25	4
132	135	1
53	62	2
82	84	2
4	6	1
5	12	3
66	78	3
49	52	3
67	69	3
116	118	4
20	21	3
68	81	4
11	78	1
27	35	1
69	74	2
20	23	1
63	85	1
111	112	1
7	10	1
70	89	2
89	93	1
10	91	1
31	78	2
5	125	1
87	91	2
120	123	1
26	30	2
2	3	2
59	61	2
55	58	1
45	61	2
44	54	1
85	103	1
124	126	4
33	61	1
105	126	1
16	18	1
63	65	1
4	5	4
126	128	2
70	98	1
81	98	1
53	54	2
125	130	1
80	96	1
90	93	1
8	11	1
28	55	4
31	37	1
123	131	1
9	11	3
105	122	1
65	79	2
17	19	1
86	128	2
29	34	1
127	129	2
1	70	1
110	118	1
76	105	1
72	97	1
56	59	2
72	77	2
12	28	1
17	50	1
50	61	1
36	56	1
62	68	1
45	107	2
15	56	1
81	84	3
108	111	2
81	95	1
88	89	2
17	57	2
61	65	1
85	107	1
55	109	1
17	135	1
30	77	1
73	75	1
110	113	1
94	112	1
36	95	1
102	103	1
46	47	1
126	129	1
35	37	1
76	79	1
103	105	2
91	109	1
19	21	1
92	101	1
32	33	1
71	127	1
59	77	1
48	53	1
50	65	1
28	75	1
17	20	1
70	75	1
48	126	1
12	13	2
1	7	1
88	98	1
54	62	1
30	31	2
72	98	1
128	129	1
8	16	1
54	106	1
1	21	1
58	64	1
14	54	1
2	6	1
90	114	1
60	79	1
66	128	1
116	133	1
19	44	1
67	77	1
129	131	1
