126	129	5
60	60	5
71	75	1
8	97	1
19	19	3
125	125	3
96	96	4
85	85	5
33	33	6
131	141	5
129	129	3
92	92	5
10	33	1
119	138	2
52	52	1
22	22	8
130	130	7
123	125	2
39	39	6
109	109	1
39	59	3
100	100	5
19	29	6
97	97	1
2	2	4
141	142	3
102	102	4
18	19	5
63	65	4
128	128	10
86	86	4
119	119	6
64	65	7
134	134	2
102	103	7
135	138	3
42	42	10
41	126	3
0	1	3
70	71	1
61	62	2
118	118	5
114	114	1
50	51	2
145	145	6
68	68	1
49	50	2
101	101	3
18	25	2
142	142	6
62	62	10
90	91	2
47	52	3
75	75	10
28	29	4
55	56	3
81	82	1
124	124	5
86	87	1
41	41	11
53	77	2
40	80	3
21	21	9
35	35	2
99	108	2
74	75	7
56	57	4
6	6	6
47	48	2
57	58	1
49	116	3
90	90	2
133	134	5
14	14	1
51	53	3
114	118	1
27	27	4
5	5	2
132	133	3
15	16	6
142	143	2
34	35	4
132	132	3
123	123	6
70	104	4
32	32	2
113	113	4
126	136	2
38	40	3
141	141	2
47	47	1
105	105	3
20	21	1
11	11	3
59	126	1
30	30	3
25	25	2
54	54	1
37	38	1
117	117	4
122	122	3
42	67	1
51	51	3
128	131	3
139	139	8
106	106	2
138	139	3
127	127	5
112	113	2
31	31	5
116	116	1
73	75	1
33	36	2
95	95	8
8	9	1
103	103	5
79	89	2
33	38	5
55	55	1
10	10	1
4	32	1
105	106	3
22	42	2
100	101	1
58	127	1
16	16	5
76	76	2
120	120	3
120	142	2
84	84	2
98	98	4
38	42	3
51	116	2
99	101	2
54	138	3
92	94	2
101	102	8
23	23	5
88	89	3
87	87	4
77	77	1
67	68	1
91	91	3
14	16	2
80	89	1
102	117	2
83	83	4
137	137	1
3	4	2
132	137	1
62	63	2
89	89	1
99	99	1
41	42	3
104	104	3
117	130	2
69	72	1
130	132	2
131	131	3
79	79	1
48	80	2
57	57	4
136	137	3
136	136	7
88	88	6
56	56	2
0	0	2
18	20	4
126	126	5
24	24	6
23	51	4
77	78	8
64	64	1
29	29	3
38	38	3
68	70	1
115	115	3
89	90	2
2	12	2
128	130	1
70	70	2
103	118	1
144	144	6
143	143	5
136	139	1
139	140	1
18	18	2
99	100	3
38	39	1
65	67	2
48	115	2
5	16	2
140	140	3
137	138	4
66	66	3
40	67	1
52	114	1
131	132	1
145	146	1
17	17	3
133	133	1
134	141	1
36	37	1
37	37	1
50	117	2
61	104	2
69	70	1
96	97	2
22	38	1
140	141	1
52	82	1
8	8	3
72	72	1
119	123	1
59	59	4
9	9	1
33	34	1
101	103	2
61	61	3
10	138	1
104	106	1
95	123	2
52	112	2
34	34	2
21	22	1
37	103	1
134	143	2
126	127	1
56	106	1
28	28	2
116	117	1
3	3	3
108	109	2
35	47	1
70	82	1
25	26	2
91	93	3
107	107	1
135	137	1
8	11	1
119	121	2
93	125	1
53	78	1
74	74	4
121	123	2
78	79	1
38	103	1
4	5	1
49	49	1
23	81	1
110	110	1
73	73	2
64	75	1
20	20	1
103	139	1
78	78	1
111	111	1
86	138	1
135	135	1
50	50	1
15	15	1
37	63	1
52	53	1
