42	57	7
70	70	38
67	68	13
58	59	27
38	39	7
79	80	11
52	52	40
100	100	18
67	67	43
58	58	34
44	44	28
41	42	4
35	35	15
84	87	3
41	41	40
94	94	16
42	42	42
69	69	23
61	62	7
66	74	4
65	65	24
62	62	9
73	73	22
80	81	12
95	98	2
72	72	29
75	75	30
60	63	4
43	43	24
42	45	2
93	93	35
76	76	33
101	101	24
40	40	31
46	56	1
71	72	4
74	74	30
37	39	3
50	51	21
84	88	3
61	61	29
77	77	29
100	101	3
66	66	23
77	85	5
71	71	41
52	55	2
66	67	3
68	68	30
48	50	2
59	60	5
94	98	11
64	64	24
34	35	11
92	93	8
90	91	8
79	79	9
49	49	27
82	88	1
30	52	4
85	85	33
90	90	19
40	41	8
51	52	11
96	97	10
86	101	6
92	92	15
88	88	23
26	26	9
47	47	5
45	53	7
75	76	6
87	88	12
96	96	19
63	63	37
23	24	6
85	88	1
91	93	14
38	38	11
64	65	2
53	54	5
62	63	7
37	37	17
95	100	1
46	46	24
63	64	21
86	86	16
78	78	14
56	56	25
50	50	23
25	29	2
91	92	9
35	38	1
41	49	2
59	59	18
96	99	9
91	91	27
60	60	33
45	45	11
47	48	15
51	55	2
69	70	12
23	25	6
44	74	6
86	88	2
78	86	3
87	102	1
86	89	9
42	62	6
48	48	9
87	87	17
57	57	21
76	78	5
102	102	10
76	80	3
74	75	9
99	99	30
33	33	13
86	91	2
55	55	7
24	47	2
95	95	17
83	83	12
70	74	6
23	28	1
76	77	9
35	37	7
39	40	5
78	79	6
54	54	14
84	84	11
24	27	1
25	25	10
34	47	2
51	56	6
40	50	2
56	57	8
51	51	9
81	81	14
33	53	2
47	56	6
98	98	18
35	39	3
58	67	3
89	89	15
89	93	3
36	37	6
52	59	4
68	69	3
98	99	2
74	90	2
85	86	11
60	85	1
97	98	3
78	83	4
28	29	2
25	26	2
42	43	1
20	34	3
69	71	4
30	30	2
53	53	14
70	71	6
29	34	3
21	27	1
57	58	2
53	55	6
79	94	1
41	59	2
81	84	5
42	66	2
93	94	4
24	45	1
35	36	4
24	24	7
24	26	3
31	31	6
73	74	1
101	102	10
39	39	23
34	34	17
42	44	2
36	36	4
59	63	7
60	61	6
24	29	2
27	27	7
23	23	12
64	66	3
80	80	11
39	50	2
78	89	2
66	71	2
83	84	2
95	96	4
36	40	3
79	89	1
97	97	9
77	80	5
83	88	5
33	54	1
38	41	2
31	33	3
45	48	6
55	56	9
32	32	4
82	92	4
61	83	1
26	39	2
36	49	1
62	68	4
49	50	8
77	89	5
76	83	5
76	85	3
43	44	7
61	84	1
99	101	2
29	46	1
78	80	1
29	29	6
85	91	1
48	101	4
33	47	4
93	100	4
81	82	8
38	45	1
28	28	1
84	93	1
54	55	5
22	29	5
48	49	2
94	97	2
88	101	1
65	66	6
31	50	2
89	99	2
68	74	5
79	81	6
72	75	3
82	82	1
51	57	3
62	66	2
41	57	2
41	44	3
47	101	1
46	47	6
20	46	1
31	52	1
61	69	2
67	69	1
83	92	1
77	79	1
64	91	1
46	48	2
27	41	1
87	91	2
100	102	4
41	43	1
49	58	2
36	38	1
46	55	2
86	87	4
81	92	1
73	79	2
38	49	1
68	72	1
87	92	3
59	99	2
20	20	1
91	99	2
96	98	2
68	70	4
46	100	2
34	38	1
25	45	2
77	78	1
88	91	1
84	100	1
38	48	1
61	70	2
70	73	1
23	26	2
79	88	2
20	22	1
29	81	2
57	68	1
21	34	1
35	49	1
44	57	1
98	100	1
58	66	1
42	67	1
94	95	1
37	38	1
78	81	1
77	90	1
89	90	1
80	82	1
