66	66	18
128	129	13
118	119	3
107	107	7
105	105	9
13	38	1
118	118	25
108	146	4
99	99	11
65	139	1
72	89	1
51	52	4
106	113	5
139	139	11
113	114	10
114	115	11
2	3	3
10	10	10
134	135	10
69	70	9
15	15	13
58	58	11
135	135	16
22	22	16
35	35	14
8	8	11
4	33	3
121	123	2
19	25	2
13	14	6
11	11	9
36	36	6
55	85	4
24	24	8
58	59	5
122	122	16
113	115	6
145	146	2
61	141	3
49	49	11
25	38	2
73	73	20
37	37	12
4	98	2
125	125	10
103	113	3
14	25	2
49	50	9
75	95	2
56	56	9
61	134	6
2	33	2
130	131	8
23	23	7
36	37	13
64	94	2
127	141	3
1	1	5
80	82	2
12	14	3
126	126	11
137	138	9
121	137	4
57	90	4
138	139	4
136	138	4
36	96	2
136	136	17
21	21	11
100	134	2
90	90	24
129	130	20
15	42	2
143	143	14
41	41	7
141	141	6
40	41	6
125	141	3
31	43	3
142	142	12
47	72	8
135	136	3
145	145	8
71	73	4
34	34	11
4	4	11
31	35	1
103	103	8
0	55	2
83	87	3
83	109	2
47	47	4
95	95	9
96	104	5
79	79	25
119	119	17
127	127	16
52	75	3
77	85	4
106	107	5
50	88	2
13	20	4
65	106	5
67	102	1
14	16	4
0	79	2
20	21	6
72	72	9
41	88	3
133	134	4
136	140	4
77	77	12
2	75	5
70	70	14
98	109	2
115	117	4
5	5	4
31	33	5
33	33	19
54	54	5
120	130	5
67	74	5
127	129	2
76	76	10
97	98	6
118	120	5
54	130	3
14	62	6
85	87	5
26	64	2
27	27	15
121	130	2
94	94	4
105	141	3
124	125	7
42	42	17
10	12	4
102	102	8
144	144	7
123	123	14
131	132	6
137	137	11
78	78	8
40	40	10
81	81	5
56	133	4
104	105	7
13	13	15
50	50	4
0	0	9
79	83	1
105	108	5
39	39	5
71	88	1
116	117	4
43	61	2
62	62	4
32	42	3
78	79	3
17	37	2
57	95	2
133	137	4
106	132	5
79	125	3
115	140	3
140	140	26
133	136	6
53	53	5
96	96	18
74	74	15
30	36	2
121	138	6
137	139	11
68	73	4
50	52	3
64	107	3
53	83	5
67	68	3
128	128	16
19	19	12
60	60	17
55	55	11
2	2	9
80	80	8
53	79	1
18	39	6
131	131	23
57	130	4
55	56	6
91	91	16
66	67	12
121	121	16
64	64	10
106	114	2
27	68	1
32	32	15
92	92	16
114	114	18
97	97	4
121	125	5
27	70	1
120	120	24
28	29	3
136	139	2
68	70	4
69	93	2
126	131	3
53	54	7
20	20	12
14	43	5
12	40	2
51	51	7
58	129	3
62	87	1
63	63	7
132	132	13
99	100	7
28	144	5
146	146	4
69	69	11
134	140	8
28	30	4
65	65	14
75	75	20
50	62	4
80	81	10
107	109	2
138	138	16
88	89	2
89	89	10
50	75	2
102	141	2
83	83	4
59	59	6
93	93	11
74	138	5
57	71	5
117	118	15
122	130	3
52	62	3
53	74	3
112	136	3
29	29	18
89	90	2
134	134	27
66	99	2
98	99	8
65	92	1
127	134	5
109	109	10
88	88	3
56	85	5
24	71	7
108	110	4
71	86	1
5	6	6
55	110	6
98	132	1
3	3	15
95	140	4
127	133	3
32	35	10
65	69	3
107	136	4
93	94	4
84	84	9
77	78	8
130	136	3
80	111	4
101	105	5
116	116	6
18	18	14
1	68	3
79	80	8
102	103	13
133	133	19
49	95	6
76	77	4
18	26	2
43	102	1
97	107	2
16	16	3
87	108	7
57	57	12
51	76	1
61	112	1
13	21	3
48	71	1
17	38	2
93	105	5
81	82	1
70	106	3
111	139	1
66	132	2
130	139	4
75	136	6
70	71	4
139	140	8
111	113	1
130	130	5
82	82	3
95	98	3
104	118	4
19	20	3
144	145	6
27	91	9
2	31	2
78	109	2
47	62	7
6	20	2
91	116	4
83	84	9
4	104	4
2	4	5
80	119	2
105	132	4
93	97	4
59	63	2
9	9	6
93	119	1
125	126	6
124	124	6
67	112	1
16	42	1
25	27	4
37	38	6
82	110	1
51	132	1
73	137	1
41	42	2
125	139	3
54	55	1
12	13	2
14	14	5
66	68	2
65	88	3
58	61	4
26	26	6
114	132	2
61	64	1
83	85	4
0	6	8
53	86	1
1	94	2
48	50	9
26	67	2
73	75	1
17	17	9
48	48	10
68	68	6
56	110	4
69	106	4
123	125	5
56	66	2
56	58	1
120	121	3
86	108	1
110	110	3
72	73	4
47	53	1
85	86	3
54	81	5
11	21	1
1	26	3
38	38	16
54	79	2
98	106	4
100	100	10
116	118	5
61	61	16
57	82	6
130	134	6
132	133	2
125	127	2
68	69	2
53	107	3
129	129	13
51	68	5
113	133	1
87	87	2
106	106	4
47	136	3
117	117	21
112	112	6
9	10	1
6	6	11
95	104	8
20	47	3
101	101	7
142	143	8
115	115	9
36	40	1
6	33	3
17	40	1
14	20	8
71	87	5
21	36	4
30	30	4
98	115	3
118	140	1
53	55	3
16	17	3
27	28	7
72	86	4
128	130	4
142	144	4
80	83	1
51	55	2
127	135	3
4	5	4
122	140	1
10	48	3
108	113	1
23	30	5
74	75	7
104	139	5
71	72	2
119	120	7
125	136	2
64	65	2
8	9	2
17	18	4
68	97	3
28	28	9
1	10	1
109	138	1
121	133	4
51	109	1
3	4	5
66	71	2
43	43	8
6	135	2
110	132	4
24	65	1
56	95	1
117	133	2
117	120	1
51	72	3
96	133	3
30	42	2
87	107	5
35	37	5
55	76	2
33	35	1
47	71	2
101	103	7
59	60	10
105	109	4
135	138	7
92	114	4
37	96	2
5	20	10
26	40	1
136	143	1
102	111	1
65	111	2
2	40	4
97	116	2
54	89	2
42	43	4
76	79	1
121	122	5
89	95	1
104	104	8
47	48	1
125	130	1
89	133	2
54	70	2
135	139	1
32	34	3
38	39	4
15	16	3
100	101	4
26	47	1
126	135	3
135	137	1
78	96	7
67	69	2
108	108	4
92	130	2
117	129	3
72	88	2
34	37	4
118	122	3
31	34	3
53	64	1
14	37	3
31	31	1
98	98	13
51	105	3
113	113	6
68	95	1
123	126	3
66	133	3
14	42	2
65	66	4
60	131	2
18	28	2
58	130	5
15	38	2
111	140	1
48	56	1
68	94	2
91	125	2
119	121	1
56	131	1
0	5	1
134	141	1
6	104	3
119	138	6
29	67	1
122	123	5
131	141	3
126	129	3
22	29	1
62	131	3
25	25	7
20	36	4
129	134	2
110	112	1
92	105	1
89	93	2
39	40	3
4	34	2
2	16	2
12	17	1
60	82	1
52	86	3
75	108	1
5	33	2
51	74	4
86	86	1
112	137	1
134	138	2
92	93	4
117	123	1
104	132	3
69	76	1
55	96	1
85	85	9
95	105	2
59	64	1
123	142	1
56	84	1
99	102	2
53	57	2
66	75	1
30	43	4
52	52	6
71	75	1
132	136	1
2	43	1
54	88	3
105	107	1
115	116	7
129	133	2
57	119	1
49	131	2
79	85	1
122	125	4
102	132	1
18	19	1
133	140	3
19	57	4
94	132	2
74	95	2
3	20	2
5	10	4
71	76	1
84	85	1
131	140	2
49	90	1
52	53	4
4	68	4
39	41	1
126	127	2
63	131	3
125	137	5
114	117	2
72	92	2
111	111	5
56	57	2
71	71	2
60	129	3
10	27	3
57	94	1
19	38	2
48	141	2
141	142	3
32	33	2
118	123	2
88	105	1
99	118	2
79	81	1
91	110	2
123	127	1
73	94	1
65	109	3
25	26	2
117	131	1
53	78	1
110	138	2
56	63	5
20	37	1
93	138	2
52	65	2
101	102	2
47	49	1
13	67	1
73	95	4
108	109	2
74	99	1
104	112	1
30	34	1
23	24	1
66	135	1
130	140	1
3	31	2
0	56	1
31	32	1
61	131	1
50	51	1
5	104	1
19	21	3
64	87	2
132	139	1
58	60	1
24	25	2
1	90	1
49	89	1
90	94	1
66	134	1
13	61	3
99	101	1
46	91	1
58	82	1
16	34	2
1	2	2
106	112	1
68	100	3
57	121	1
5	21	1
65	108	1
34	35	1
76	114	1
95	96	1
112	138	1
97	114	2
3	35	1
27	29	2
67	67	2
127	140	4
91	126	2
63	129	1
118	139	1
64	86	1
78	90	1
92	115	1
74	84	3
3	5	2
39	42	2
115	138	2
100	102	1
19	23	2
35	36	3
38	63	1
76	78	1
67	89	1
19	85	2
21	37	1
14	36	1
18	25	2
123	124	1
140	143	1
111	135	2
16	21	3
98	111	2
84	86	1
81	112	2
50	74	1
6	26	1
87	88	1
127	128	2
68	90	2
74	76	2
109	110	1
31	46	2
105	118	1
60	61	1
1	91	1
122	127	2
117	122	1
14	58	1
96	117	2
24	41	1
109	132	1
88	96	1
63	128	1
14	17	1
6	31	1
3	34	1
124	140	1
76	80	1
112	119	1
1	9	1
15	41	1
74	137	1
17	42	1
8	10	1
105	114	1
133	139	1
48	49	1
62	113	1
92	97	1
61	144	1
19	32	1
56	93	1
104	107	1
68	89	1
140	141	1
134	137	1
56	87	1
24	53	1
27	30	1
104	114	1
56	62	1
122	126	1
28	119	1
55	63	1
125	128	1
