189	189	1
45	47	3
186	188	4
190	190	15
178	178	8
43	43	6
86	86	5
107	108	3
84	85	6
96	96	4
75	75	9
107	110	3
78	78	8
182	183	18
35	46	1
138	138	5
38	38	8
95	96	2
64	64	1
90	90	7
170	170	3
63	76	1
99	99	9
80	81	4
6	6	7
17	27	2
31	32	4
63	63	9
83	83	4
4	5	4
42	42	3
1	1	6
71	72	2
98	98	4
82	86	3
80	80	10
87	87	10
146	172	5
180	183	1
23	23	10
148	148	3
107	107	2
3	3	3
139	149	1
32	33	7
19	20	1
83	84	4
184	184	4
47	47	6
79	85	1
92	92	2
185	185	8
181	181	6
188	188	4
23	24	8
58	60	1
122	128	2
167	167	21
52	53	4
19	19	11
58	58	13
20	22	1
30	34	6
41	41	5
78	80	3
15	15	5
111	112	7
162	164	5
62	62	5
144	145	1
109	111	3
182	182	8
2	5	3
145	145	4
141	142	1
12	14	7
103	103	7
17	18	3
28	28	1
166	166	4
131	131	6
115	115	3
177	178	3
147	149	3
149	150	2
99	103	5
155	156	1
79	79	1
99	116	1
33	34	4
76	108	3
54	54	4
165	165	7
81	81	6
129	129	9
137	137	6
54	55	7
105	106	7
160	161	1
13	13	6
98	100	5
61	62	9
126	129	1
117	134	2
187	187	1
65	66	3
166	185	3
186	186	5
30	31	7
80	83	2
18	20	8
27	28	4
8	8	4
141	144	2
130	131	3
175	175	1
114	146	2
132	133	5
21	21	5
5	5	5
42	44	3
128	185	2
38	184	1
91	91	3
165	166	6
72	73	2
61	63	2
46	46	13
133	151	1
155	155	17
113	113	5
32	35	3
94	94	3
138	174	2
22	22	6
153	165	3
107	117	4
159	159	1
36	36	4
28	42	2
11	11	7
110	110	2
127	127	2
29	29	3
135	136	5
70	70	5
154	154	4
95	95	4
176	176	5
112	113	3
152	152	5
168	170	2
131	189	1
150	151	4
124	124	6
59	68	2
101	103	4
79	80	5
83	110	5
158	165	1
35	35	2
37	37	3
17	17	8
81	82	9
156	157	8
180	182	1
16	16	3
157	158	4
101	102	4
88	88	14
141	141	4
46	72	2
70	71	3
100	135	1
44	44	1
65	71	3
25	25	5
161	161	6
132	132	7
167	188	1
177	177	6
61	61	5
104	108	2
127	158	3
119	120	3
178	179	2
143	143	3
122	122	6
133	137	1
155	162	3
93	96	3
104	104	2
128	128	6
142	142	1
24	34	1
148	150	2
157	159	2
154	170	1
74	75	3
110	120	1
130	130	3
176	177	2
82	82	1
14	14	6
13	14	3
66	68	4
174	175	3
54	75	5
16	26	1
39	39	4
114	115	3
161	162	4
126	126	4
149	149	8
183	183	5
56	56	2
140	140	4
166	168	1
68	68	7
40	40	4
148	151	1
93	94	6
12	12	6
99	100	3
9	9	4
109	110	3
146	146	6
12	13	3
0	2	2
151	152	6
174	174	3
36	174	2
15	16	5
120	122	1
21	22	1
36	37	7
76	78	2
154	166	2
97	97	2
116	116	4
147	147	3
93	93	2
98	103	1
146	163	2
64	65	3
98	146	2
67	67	1
108	109	1
159	164	1
31	31	2
26	26	2
82	84	3
2	2	4
104	105	1
74	74	11
94	142	2
85	85	4
121	121	4
8	9	1
114	114	2
164	165	2
164	164	6
171	171	6
38	175	3
48	48	3
19	24	2
133	133	4
34	35	1
144	144	1
175	176	2
158	161	2
172	172	3
146	149	1
189	190	1
79	95	1
118	136	2
79	81	1
157	157	2
134	150	1
118	134	2
106	106	12
136	136	8
32	32	2
68	77	1
13	26	2
130	133	1
153	153	1
142	144	1
60	64	1
38	41	2
59	59	1
84	90	3
165	189	1
156	165	1
33	33	1
85	87	2
109	109	1
134	134	5
45	48	2
72	72	1
116	117	1
1	2	1
76	76	4
139	139	5
77	78	2
43	45	4
88	89	1
183	190	2
90	91	2
97	98	2
41	42	6
118	157	2
36	46	2
20	20	1
134	137	1
112	112	2
171	172	2
32	40	2
134	148	1
127	128	3
30	30	1
95	141	2
180	180	1
100	100	1
55	55	1
124	127	2
31	33	2
184	185	1
18	21	2
94	101	2
188	189	2
57	57	1
58	59	2
102	141	1
156	158	2
179	179	1
19	22	2
140	141	1
132	134	1
132	137	1
117	164	2
117	117	1
154	155	2
9	10	1
143	144	1
137	172	3
158	166	1
123	176	1
136	137	4
106	111	1
152	153	1
84	84	1
115	116	3
158	158	1
156	156	1
31	40	1
163	164	2
55	56	1
151	151	1
85	92	2
175	179	1
89	90	1
13	15	1
27	27	1
131	178	1
126	186	1
166	172	1
79	109	1
133	135	1
7	7	3
14	15	2
35	36	1
61	65	1
172	175	1
56	57	1
74	148	1
0	0	2
2	3	1
28	30	1
55	63	1
173	173	1
163	163	1
125	125	1
