78	78	12
88	88	2
197	241	3
218	222	5
178	178	10
103	111	4
74	74	13
173	173	19
115	118	4
6	6	5
178	180	1
146	152	5
166	166	9
184	184	10
85	98	1
186	190	3
74	119	5
34	34	1
176	177	2
2	2	5
21	21	11
190	190	4
19	20	9
164	164	8
150	221	1
9	9	10
3	16	2
181	181	8
32	32	12
212	217	2
209	209	6
187	188	7
208	208	17
5	34	4
233	233	6
113	115	1
94	97	3
67	78	4
146	146	6
92	92	7
58	59	9
8	8	10
51	52	4
247	248	1
4	35	3
68	109	5
151	151	5
22	25	3
52	55	1
22	22	6
150	150	11
117	117	3
55	55	5
162	168	5
97	97	1
108	108	10
165	167	1
204	224	2
213	214	11
48	239	2
4	14	5
190	191	6
187	196	1
30	63	4
152	153	4
107	107	4
28	28	5
208	209	3
68	69	2
206	207	11
71	71	7
197	198	3
248	248	3
155	156	6
204	204	15
245	246	10
182	182	8
43	43	12
33	64	1
170	209	3
238	238	8
7	109	2
61	61	7
152	152	7
87	87	10
242	242	6
236	236	3
176	192	4
12	12	10
167	167	10
149	149	10
118	119	5
233	236	1
71	73	3
192	246	2
30	75	1
182	185	4
223	232	2
70	71	4
171	171	3
102	103	3
85	85	12
58	58	4
113	113	7
21	25	2
33	33	6
229	229	7
158	158	15
110	110	6
157	157	15
220	221	2
25	25	10
97	99	4
191	191	7
244	244	12
89	89	7
83	84	7
147	190	5
45	45	5
179	179	8
82	82	9
18	18	3
58	60	4
187	189	2
111	112	2
65	66	3
160	177	2
62	121	1
74	82	6
73	73	6
71	75	4
65	99	4
211	212	2
39	39	3
87	102	2
100	194	1
227	227	6
186	186	10
154	167	1
179	180	3
203	203	13
40	40	3
37	37	17
66	66	17
34	89	2
246	246	6
243	243	5
116	116	5
231	233	5
4	5	7
70	145	1
169	183	1
94	94	16
176	191	5
65	155	1
111	247	1
101	104	5
37	38	4
154	154	8
120	120	2
160	160	8
115	115	12
156	156	11
198	199	2
239	246	1
35	35	6
201	201	10
176	176	5
8	27	5
162	165	5
80	80	5
220	220	13
172	172	5
20	20	6
105	106	1
242	243	4
181	182	3
96	96	6
42	42	11
76	76	7
1	150	2
7	7	8
5	5	5
178	222	2
68	68	11
167	193	4
153	161	1
221	221	11
100	100	4
217	217	8
107	108	2
61	63	4
207	207	8
67	68	5
119	119	11
48	48	5
86	89	3
161	161	8
225	225	12
173	235	4
1	1	4
176	184	3
116	118	6
74	90	1
169	170	5
98	98	3
109	113	1
112	112	7
30	30	4
5	12	5
154	155	1
96	119	1
93	93	2
31	31	8
231	231	8
196	208	3
16	16	6
109	109	10
15	15	13
38	38	4
117	144	1
6	7	2
44	44	1
104	106	2
35	77	1
235	236	1
73	74	1
72	72	7
155	155	9
86	87	3
56	56	12
95	96	1
233	235	3
170	170	3
29	29	2
75	75	10
83	83	7
175	175	1
171	172	3
63	153	2
188	189	3
60	60	9
95	97	2
84	84	3
205	222	1
247	247	7
42	43	1
163	171	3
188	188	3
198	207	5
185	185	3
214	216	2
153	153	6
177	177	4
241	241	11
198	198	6
202	202	4
18	62	1
145	145	3
178	221	1
66	67	2
67	67	9
18	19	2
241	247	4
198	231	1
70	70	2
169	212	2
214	214	4
184	195	3
166	182	4
172	173	4
168	168	5
97	116	1
161	237	1
155	175	5
218	219	2
169	196	2
44	46	3
239	240	5
205	205	1
163	166	7
95	95	1
157	159	2
41	41	8
54	54	5
240	240	5
169	169	3
86	104	3
216	216	7
195	195	1
85	86	4
171	188	1
181	191	2
52	54	2
102	102	2
58	76	4
239	239	5
100	101	2
174	174	4
77	77	2
235	235	3
218	218	7
157	158	2
71	76	1
3	211	4
106	108	4
222	222	1
26	26	5
187	246	1
206	206	4
80	81	1
4	4	9
55	118	2
34	37	4
0	1	2
189	192	2
224	224	7
4	34	2
226	226	7
216	218	2
180	180	9
165	165	3
212	212	3
69	87	3
6	12	1
217	218	1
59	59	7
185	247	8
226	227	1
103	103	4
200	228	2
152	162	1
34	112	1
150	180	2
214	217	4
8	151	1
63	64	7
76	77	1
181	196	1
208	211	2
162	163	2
62	62	1
160	161	6
210	210	4
151	233	1
216	217	5
169	191	1
90	112	1
224	225	5
116	117	1
82	97	1
56	119	2
23	23	5
48	63	2
81	81	1
30	37	2
210	218	3
78	87	2
234	234	2
7	31	3
14	38	1
36	36	5
151	186	1
61	62	2
203	225	1
147	147	7
209	210	3
168	200	5
65	87	4
29	246	1
211	211	4
95	101	1
246	248	2
16	119	1
20	204	3
161	192	3
215	216	4
192	192	6
11	11	2
158	159	3
2	16	2
11	16	2
65	76	2
55	56	2
228	228	5
237	237	4
220	222	1
34	35	2
26	27	3
232	233	3
161	163	1
55	65	2
213	213	4
187	187	3
48	58	1
71	121	1
162	162	5
176	190	1
2	3	1
189	189	4
18	65	1
105	105	4
49	49	2
92	101	2
30	78	1
49	50	3
30	77	2
231	234	2
6	9	2
90	91	2
65	65	6
156	157	1
183	183	6
73	82	5
9	10	1
150	198	3
223	234	2
215	215	3
186	192	1
86	86	5
177	178	3
210	211	5
162	179	2
2	230	1
51	55	2
223	223	2
91	91	2
71	72	3
75	77	1
6	8	3
242	246	3
170	190	1
104	107	2
55	57	1
196	196	8
90	90	3
161	171	3
180	212	2
198	219	2
29	33	1
157	170	3
106	111	2
110	161	1
14	14	3
38	42	1
10	10	4
51	51	2
114	114	3
69	88	3
111	111	4
77	102	1
230	230	5
171	193	1
116	119	1
46	46	5
197	200	1
3	60	2
193	209	4
11	12	2
17	17	5
101	101	2
101	111	1
63	63	3
52	52	2
193	193	4
99	99	3
82	84	1
79	80	3
59	60	1
45	54	2
99	100	2
38	39	1
57	57	1
104	104	4
35	150	1
200	200	2
24	24	2
174	180	2
29	36	1
187	192	1
106	109	1
153	155	1
68	87	2
50	50	5
171	194	1
192	245	1
222	225	2
20	24	3
117	118	2
19	19	3
69	70	1
189	190	4
204	226	1
119	145	2
181	208	2
245	245	2
182	183	2
54	202	1
167	201	1
215	239	1
159	159	4
88	89	1
150	173	1
165	183	2
2	17	2
168	208	1
150	151	1
96	144	2
238	248	1
229	234	2
210	212	1
153	189	1
47	48	1
185	192	1
76	82	2
164	237	2
168	169	1
27	28	2
179	182	1
197	197	1
3	3	2
66	72	1
173	174	2
8	150	1
48	50	3
27	27	2
236	247	3
95	106	1
201	228	1
219	219	1
244	248	1
77	155	2
14	29	1
57	58	1
177	179	1
233	234	1
82	106	1
199	222	1
163	163	2
57	76	2
206	222	2
195	196	1
33	60	1
202	206	1
62	75	1
81	85	2
185	186	1
199	231	2
67	74	1
207	209	1
47	47	1
156	171	1
6	51	1
56	145	1
72	88	1
45	46	1
61	156	2
216	239	1
35	152	1
156	164	1
53	53	1
161	177	1
232	232	1
202	226	4
153	162	1
159	170	2
177	181	1
24	26	2
165	169	3
27	65	2
199	199	2
77	97	1
120	145	1
216	240	1
28	36	1
152	210	1
78	82	1
233	241	1
5	7	1
212	222	2
212	213	2
33	50	1
163	177	1
231	232	1
48	62	1
7	154	1
175	183	2
7	8	2
180	191	1
233	237	1
81	82	1
19	57	1
146	171	1
30	81	1
2	19	2
152	160	1
183	184	1
194	194	1
185	235	1
163	164	1
167	168	1
81	89	1
144	145	1
229	235	1
167	172	1
159	167	1
3	18	1
0	18	1
82	86	1
147	152	1
105	107	1
