104	104	7
108	120	3
97	97	6
119	126	3
0	0	4
60	61	6
68	68	4
39	39	9
13	14	12
69	72	3
75	101	1
61	115	3
20	20	2
88	89	1
27	27	5
93	93	6
125	127	2
114	115	2
57	117	3
53	53	10
116	116	7
11	12	4
8	13	2
80	80	5
59	59	5
85	85	7
131	131	12
78	79	4
48	80	5
111	111	6
84	85	2
49	49	11
124	124	7
31	31	1
106	106	5
45	45	3
58	58	5
82	86	2
25	30	2
95	95	4
43	43	4
97	99	2
40	41	3
75	81	6
114	130	5
46	124	2
29	29	6
87	88	3
118	129	2
23	41	3
15	15	2
86	106	1
79	79	5
127	128	2
127	127	2
43	88	6
25	28	4
98	131	2
122	122	6
85	86	6
94	94	9
18	18	6
58	69	2
123	123	6
47	47	7
112	112	6
6	6	4
100	102	2
22	33	2
63	63	6
67	67	2
28	28	7
44	44	12
54	54	10
109	109	3
76	76	4
71	85	2
11	11	8
107	108	8
78	101	4
53	54	6
55	80	2
90	90	7
119	119	5
8	8	3
61	64	3
81	116	2
104	106	3
19	19	9
7	7	3
73	73	2
12	12	8
60	60	2
120	120	6
4	5	2
23	23	5
65	66	6
10	10	4
100	106	2
45	101	1
43	72	4
8	38	4
116	117	3
23	25	1
114	126	3
62	63	2
32	32	3
28	31	4
51	51	7
48	48	3
63	65	3
125	125	9
24	24	6
92	93	1
102	110	2
103	103	5
97	100	2
92	92	9
86	86	1
2	2	4
107	107	5
56	92	4
41	77	1
69	69	7
15	52	5
118	119	2
31	32	6
104	105	2
96	96	5
26	26	5
72	91	3
123	124	7
108	108	6
34	34	3
115	116	2
16	16	3
98	99	2
83	83	3
17	17	4
124	125	2
102	106	2
101	102	1
103	125	2
129	129	3
109	110	4
38	42	3
105	106	5
121	121	4
69	70	3
101	101	2
77	77	3
21	34	7
90	91	3
49	52	2
4	4	6
44	45	6
10	12	4
79	100	2
75	75	6
21	21	2
74	101	2
42	42	4
5	8	1
82	97	1
43	92	4
2	3	8
50	50	6
114	116	5
111	112	1
65	65	7
1	6	2
33	33	6
52	52	14
101	104	2
43	101	2
66	66	5
17	18	1
118	132	2
130	133	1
3	3	8
41	42	4
94	95	3
82	82	5
22	23	2
108	118	3
118	130	1
25	25	4
30	30	5
62	62	3
117	129	1
69	129	2
128	128	1
9	9	2
71	76	1
84	84	4
26	27	5
130	130	1
98	98	3
26	29	1
41	41	2
59	61	2
118	118	7
46	46	3
87	87	2
64	64	3
38	39	2
74	74	3
14	112	1
67	68	4
82	83	3
86	87	1
47	48	2
56	56	3
55	55	7
14	14	4
100	100	4
83	84	1
132	132	4
99	117	3
71	71	1
108	117	1
107	131	1
75	77	1
15	17	2
60	68	5
93	129	1
57	57	5
80	99	1
7	14	1
104	107	1
41	63	1
97	103	2
56	95	2
77	78	3
13	13	4
91	91	1
114	114	2
58	128	3
77	98	1
15	16	2
101	110	1
119	127	2
102	102	2
51	55	1
57	96	2
27	30	1
60	62	4
18	19	1
83	85	2
88	93	1
5	5	2
121	123	3
80	96	3
94	108	2
50	112	1
64	128	3
99	99	1
70	84	1
119	129	1
91	93	2
115	117	1
129	130	2
3	5	1
19	102	2
38	76	2
59	67	1
44	124	1
57	94	2
22	34	1
62	126	1
3	53	1
10	26	2
17	21	1
20	40	2
75	78	1
47	59	1
110	119	1
59	68	4
87	130	1
117	117	1
70	71	1
22	22	1
41	43	3
59	60	2
2	4	1
61	67	1
113	114	2
122	123	1
126	127	1
91	92	2
83	97	1
31	39	1
15	25	1
16	34	1
101	106	1
120	125	1
96	98	1
61	62	2
45	103	1
62	114	1
21	23	1
72	72	1
120	121	2
14	15	1
40	42	1
101	128	1
8	49	1
63	125	1
51	56	1
97	131	1
21	33	1
44	63	1
