210	211	5
162	237	2
174	174	13
6	12	3
51	51	16
34	34	1
33	81	2
52	52	4
13	30	4
123	123	2
164	164	8
72	73	1
138	138	5
187	188	6
67	67	7
224	224	10
85	85	10
124	141	2
53	53	12
157	179	2
105	105	5
219	219	5
49	49	9
160	160	5
191	191	4
233	233	9
70	74	3
150	235	2
162	162	4
2	80	4
56	58	3
21	21	6
101	153	3
55	55	12
185	197	3
44	44	11
76	76	2
147	148	1
32	36	2
39	39	12
150	150	8
8	8	2
61	61	11
80	80	1
70	70	7
76	77	7
19	84	2
240	240	4
42	42	6
8	59	1
63	63	6
21	23	7
201	202	2
78	80	2
204	229	3
68	154	2
60	60	6
225	225	2
48	48	18
57	58	3
208	214	3
75	75	10
58	61	2
26	26	10
208	208	7
16	17	3
58	58	14
86	86	9
169	225	2
36	36	15
8	159	6
180	181	2
18	18	10
64	64	6
184	185	3
7	7	12
186	186	11
135	135	1
55	56	1
211	212	2
223	226	2
71	71	4
218	218	13
31	31	7
28	28	6
2	101	1
43	43	5
199	200	2
238	238	1
1	1	6
191	234	1
16	16	3
23	181	3
104	104	6
224	228	1
15	15	5
161	161	4
153	153	6
163	184	2
113	113	5
88	89	2
216	217	1
126	138	1
73	73	4
222	222	3
116	116	5
177	178	2
65	65	10
103	104	4
181	181	3
203	212	2
14	15	4
122	127	2
238	239	4
21	22	4
68	68	9
9	29	2
234	234	8
181	182	1
202	207	3
223	225	1
84	84	6
90	90	1
37	37	11
121	121	5
81	83	4
20	39	1
7	14	3
6	7	6
177	177	4
216	216	1
20	20	9
4	4	5
32	32	13
209	211	4
82	83	8
168	168	2
173	174	1
141	141	5
236	237	1
8	60	4
45	47	3
158	158	11
180	180	10
207	207	1
66	66	15
137	137	4
209	210	3
59	60	2
4	49	3
74	74	7
83	83	4
173	173	9
28	55	2
69	152	1
37	120	1
201	201	1
11	56	4
120	123	2
144	145	5
81	81	3
24	26	3
211	211	6
4	5	3
127	127	6
124	125	7
62	62	6
203	204	1
108	114	4
2	2	4
5	58	4
228	230	2
5	6	8
214	214	4
18	22	2
138	139	2
54	54	7
146	146	5
199	199	8
43	74	2
103	103	6
6	6	12
185	185	5
37	85	4
77	78	4
5	5	10
64	65	3
156	156	9
23	23	1
79	79	5
202	202	6
151	151	5
14	14	4
15	16	2
154	154	3
15	33	2
46	81	4
99	101	1
113	128	2
118	120	3
125	167	2
79	84	5
128	129	2
89	89	5
61	62	5
30	33	1
23	56	4
182	182	3
15	66	3
232	232	2
155	155	5
7	13	1
193	193	5
235	235	2
239	239	3
38	42	3
188	189	1
101	101	7
128	128	6
17	17	6
147	147	3
223	223	1
109	109	6
18	19	5
0	102	3
220	220	5
12	12	5
190	190	6
69	73	1
9	10	4
62	74	2
208	220	4
226	226	3
165	182	4
34	36	1
148	148	5
75	80	1
117	154	2
212	212	7
172	172	4
152	152	3
217	217	3
13	16	4
30	30	5
165	201	3
156	240	1
229	230	3
19	19	6
125	126	7
87	87	3
210	222	1
48	69	1
136	136	7
10	54	5
79	85	2
157	157	11
157	164	4
70	146	1
155	156	2
170	183	3
236	236	1
229	229	3
30	31	1
188	190	2
180	182	3
197	207	1
18	33	3
146	158	1
137	172	1
167	168	4
3	3	4
122	122	6
226	228	2
38	38	10
59	59	7
150	151	2
158	159	5
59	77	1
25	25	4
171	171	9
41	41	5
154	155	2
175	175	6
96	108	2
20	23	3
29	40	3
140	169	4
65	68	1
167	167	5
102	102	4
33	34	1
143	143	4
235	239	3
135	173	3
78	78	2
145	148	3
231	231	3
60	75	1
11	33	1
19	20	8
204	204	4
35	96	2
140	140	4
139	139	2
105	119	1
22	22	2
48	49	3
152	153	3
142	142	4
102	103	1
210	212	4
194	195	1
17	18	2
198	198	3
158	184	2
119	119	6
237	237	5
4	53	1
42	43	1
115	115	2
226	230	1
130	130	2
115	119	1
189	189	9
32	81	2
1	48	2
96	96	5
215	215	2
6	14	1
14	16	5
227	236	1
193	196	2
77	77	4
148	149	4
126	127	2
156	157	4
8	12	4
227	231	2
220	222	3
151	152	1
121	122	1
133	134	8
27	27	2
230	230	4
43	45	3
104	117	1
53	73	4
137	143	2
52	53	2
123	124	4
136	137	4
166	171	2
23	59	2
2	3	2
187	187	2
195	195	2
124	127	1
198	222	1
221	222	3
216	219	1
202	220	1
40	40	3
234	235	5
184	184	2
8	48	3
71	73	4
200	204	3
124	124	3
46	46	7
232	234	2
179	179	2
198	223	2
36	97	1
22	23	5
158	179	1
10	160	2
29	29	4
33	53	2
205	205	2
66	67	2
117	117	1
9	55	1
68	76	4
24	25	3
197	197	3
141	170	2
168	170	5
145	145	4
10	10	5
33	33	1
149	149	3
115	130	3
129	129	2
203	218	1
97	97	5
104	105	1
45	45	4
7	8	1
99	100	4
13	14	1
37	56	1
6	8	1
49	51	5
17	20	2
57	59	4
80	83	1
173	225	1
103	105	5
30	32	1
12	15	2
228	228	1
177	226	1
126	126	3
203	203	3
226	233	2
186	191	3
27	73	2
56	56	6
61	74	1
111	111	1
170	170	1
192	192	3
15	35	1
122	123	2
182	183	1
103	171	1
196	196	8
99	99	2
10	11	3
3	54	3
200	200	1
129	130	1
103	118	3
62	64	1
69	69	1
120	120	1
95	96	1
16	35	3
20	22	2
214	215	3
220	223	1
103	167	1
168	169	2
161	180	1
88	88	3
13	13	5
119	123	1
186	187	1
236	241	1
195	196	1
61	63	1
225	230	1
36	89	1
183	183	3
162	181	2
54	55	1
35	35	2
155	157	1
29	30	2
59	76	1
37	47	3
176	176	1
21	59	1
98	98	3
8	50	1
191	201	2
14	100	3
40	42	2
115	117	1
131	131	1
21	40	1
28	71	2
113	152	2
46	47	1
210	210	1
201	220	2
11	11	2
171	179	1
223	224	1
13	15	1
69	145	1
79	80	1
106	106	2
161	234	1
144	146	2
164	179	2
205	222	1
3	6	3
148	153	1
214	216	1
108	108	1
24	32	1
194	194	1
154	156	1
26	149	1
0	0	1
3	4	1
135	136	1
7	79	1
66	68	2
57	57	3
41	49	2
145	146	1
172	237	1
138	167	3
2	6	1
165	178	1
139	169	1
35	36	1
1	35	1
158	169	1
84	85	1
95	105	1
25	232	1
56	57	1
7	12	1
12	13	1
23	37	1
68	233	1
167	169	1
139	140	1
68	69	1
33	35	1
20	42	1
51	53	1
40	41	2
34	35	1
96	97	1
36	56	1
17	31	2
165	165	1
60	61	1
18	23	1
208	219	1
138	142	1
40	49	1
102	105	1
41	77	1
209	209	1
100	100	1
204	206	1
174	175	2
24	24	1
144	144	1
98	102	1
1	49	1
70	75	1
43	55	1
65	108	1
137	178	1
52	54	1
166	166	1
35	57	1
