72	109	5
2	3	4
111	112	2
61	115	2
13	13	3
45	46	5
111	111	8
83	83	4
107	110	7
77	83	3
117	119	3
50	50	4
73	73	1
9	9	3
23	23	2
131	131	9
17	26	4
9	37	4
94	110	3
38	57	3
133	134	2
91	91	4
61	65	3
132	132	5
89	89	4
102	114	5
105	106	3
52	53	2
71	73	2
109	109	8
89	90	2
72	74	1
62	65	2
118	120	4
0	4	3
87	92	3
103	104	2
50	133	4
29	29	1
104	126	3
52	107	3
19	24	4
118	119	7
96	96	1
100	100	6
50	55	4
14	14	9
116	116	4
75	76	6
52	94	2
83	85	1
102	105	1
131	134	1
63	63	5
85	100	6
134	134	1
11	13	1
105	111	1
70	70	8
57	61	3
82	82	7
49	80	1
52	85	2
124	131	4
44	45	3
106	115	1
116	117	5
88	110	1
76	76	7
54	100	3
103	103	4
78	78	2
63	64	5
123	125	1
88	117	5
14	20	1
13	15	2
53	57	4
7	7	4
49	54	5
52	56	5
52	61	6
0	1	1
72	73	3
91	92	1
116	125	6
108	108	3
2	11	4
120	124	1
117	117	9
104	105	2
127	129	5
53	82	1
0	33	5
21	22	1
82	86	4
49	49	5
120	122	6
50	51	1
58	92	2
95	95	1
60	130	2
109	110	2
76	129	2
99	99	7
69	94	2
3	4	2
81	88	4
65	82	2
115	130	2
108	117	6
131	135	4
53	106	1
86	88	4
106	131	3
71	71	7
105	105	2
13	14	1
67	67	5
105	108	4
87	117	1
121	122	2
80	80	2
27	33	5
93	95	6
88	90	3
102	102	7
85	86	2
103	123	2
77	78	3
109	130	2
100	117	2
110	110	4
68	68	2
60	106	5
79	122	3
92	92	2
25	25	6
0	80	1
132	133	4
90	91	5
123	124	1
102	104	2
87	87	4
28	35	2
33	33	4
106	106	5
43	43	4
14	31	3
56	56	7
133	133	3
126	127	2
104	104	3
78	111	1
21	90	2
61	134	1
101	101	1
90	98	1
88	88	2
121	123	3
62	75	1
8	8	3
124	124	1
108	109	2
17	22	1
89	116	3
28	104	2
62	62	1
14	19	1
107	117	2
86	132	1
24	111	1
118	118	1
70	113	1
110	117	1
43	49	1
79	80	2
65	67	4
83	84	1
121	128	1
5	6	1
131	133	1
60	63	2
117	132	1
77	77	2
13	31	1
91	126	3
123	123	1
78	80	1
115	127	1
87	116	2
90	122	1
119	119	3
9	38	5
76	77	1
125	129	3
112	112	1
72	72	1
78	133	2
109	117	3
61	61	3
126	128	1
122	123	3
31	56	2
61	69	2
124	125	2
127	128	3
125	125	6
82	83	2
95	101	2
121	129	3
79	85	2
61	67	1
71	75	2
53	73	2
107	113	1
45	133	1
93	94	2
11	11	2
58	58	1
130	130	2
87	118	2
56	60	1
61	116	2
89	104	2
95	96	3
11	28	3
105	135	1
14	37	1
62	63	1
64	64	2
46	50	5
112	114	1
107	132	1
77	130	2
80	81	2
117	118	1
67	68	1
97	100	2
124	126	1
84	91	2
22	24	1
79	131	1
62	64	1
114	114	2
59	60	1
52	52	1
7	11	1
4	34	2
12	27	1
83	91	1
91	118	1
56	133	1
95	107	1
45	45	2
107	134	4
28	28	3
86	86	1
105	132	1
34	34	1
122	128	1
24	24	1
56	106	1
1	68	2
110	115	1
106	108	2
20	23	2
43	44	1
37	37	1
17	38	2
84	84	1
53	71	2
128	128	1
119	122	1
54	56	1
36	37	1
118	132	1
77	85	1
82	123	1
123	126	2
32	32	1
90	127	1
127	127	1
126	126	1
