214	215	9
227	227	22
59	64	5
30	30	22
218	232	2
232	232	2
98	109	2
45	45	25
63	63	18
151	151	26
44	63	5
186	186	6
114	139	2
188	193	5
216	216	15
1	1	19
137	137	10
188	189	6
205	206	18
13	14	9
28	102	3
43	43	26
56	56	18
19	19	18
57	57	11
169	169	15
62	139	2
79	79	28
48	48	12
20	24	6
240	240	17
24	143	10
64	64	16
188	188	20
66	67	10
98	98	8
176	197	3
214	214	13
100	100	20
18	19	8
133	133	16
103	103	14
115	115	17
41	80	2
119	119	11
233	233	8
16	17	6
237	237	15
104	104	24
210	210	5
38	39	8
154	155	2
22	22	19
129	130	8
121	122	7
225	225	18
186	187	12
116	116	22
153	156	3
121	123	3
239	240	6
166	168	2
0	1	2
39	39	9
154	154	11
81	81	9
28	28	17
10	10	10
86	141	5
228	228	6
231	231	15
59	59	22
135	135	9
146	146	17
238	238	17
4	4	11
61	61	23
3	3	9
71	71	19
176	176	10
166	169	4
35	35	4
175	198	3
80	80	19
5	5	12
32	33	4
179	179	8
34	34	22
208	230	3
65	66	7
191	191	18
25	25	12
75	75	29
161	161	17
15	15	10
43	44	3
51	51	31
78	140	2
77	79	11
54	55	4
143	143	13
27	27	27
17	39	5
222	222	10
21	49	2
177	204	1
224	225	9
53	53	13
140	140	6
2	2	14
118	119	13
13	15	5
4	5	5
74	74	19
34	35	12
90	90	1
164	164	16
76	77	3
226	226	23
37	75	8
167	189	4
3	5	1
150	150	7
239	239	7
81	82	14
182	182	12
196	196	18
61	64	2
50	51	2
179	180	2
136	136	5
85	85	7
201	201	24
46	75	3
41	42	1
61	226	3
242	242	7
221	222	5
115	117	5
4	13	6
194	194	9
198	199	6
139	224	3
165	167	2
80	138	6
86	86	16
117	118	7
72	72	25
46	48	1
216	217	6
17	18	10
13	13	11
23	23	15
70	72	1
70	70	30
54	54	4
16	31	6
47	47	27
7	169	1
134	134	12
67	68	6
67	67	13
147	147	20
55	55	21
192	192	16
24	24	13
62	221	3
234	239	2
111	111	11
13	84	3
7	35	1
173	174	9
16	88	2
23	30	1
219	226	1
38	38	36
10	24	1
47	53	4
77	77	18
215	215	5
33	35	2
215	216	14
26	36	6
184	185	8
69	74	1
163	163	17
122	122	18
180	202	2
8	8	32
62	62	20
128	128	15
96	154	2
155	156	2
120	129	3
197	197	7
18	18	27
160	160	14
115	118	2
9	9	13
176	198	3
173	173	21
82	83	5
39	50	3
211	211	8
58	60	6
196	197	12
39	42	9
33	33	21
11	11	13
116	123	4
57	60	1
206	210	2
204	204	2
14	14	11
99	100	8
104	179	3
105	106	12
82	82	11
213	213	8
40	78	3
35	68	5
120	120	21
126	126	11
7	8	15
111	129	6
110	113	4
176	177	3
66	66	10
76	76	12
139	140	13
229	229	20
50	50	19
17	17	27
111	116	4
30	31	2
26	42	2
167	168	5
95	95	9
57	80	1
222	223	4
60	60	22
145	146	3
5	6	12
181	181	9
56	57	9
189	189	22
69	69	16
48	65	2
97	97	18
167	167	10
167	169	1
4	6	9
13	40	1
198	200	1
13	30	2
202	203	4
217	218	17
0	29	2
131	131	9
238	239	3
129	129	15
175	175	8
141	141	11
121	128	4
16	177	5
180	180	22
114	116	1
12	13	3
27	44	3
16	78	2
162	162	9
88	88	14
153	153	14
139	139	5
208	208	23
73	74	2
20	20	19
125	125	4
39	40	4
40	40	25
78	78	24
230	231	4
79	80	5
41	41	10
162	172	4
52	57	2
51	79	9
202	202	15
42	45	1
26	26	12
241	241	10
57	78	9
48	49	6
16	16	10
200	211	3
134	172	2
49	77	5
192	193	4
198	198	10
48	63	4
102	102	17
221	223	1
207	207	30
58	58	26
36	38	2
104	105	8
42	75	1
59	80	3
141	142	6
118	156	3
138	138	4
83	84	3
133	141	3
37	39	2
112	112	5
29	57	3
138	151	1
187	214	2
180	181	3
47	62	4
84	84	10
46	46	17
96	109	2
121	121	6
192	196	2
29	29	20
116	124	2
99	99	18
219	219	12
45	76	1
104	128	2
49	50	5
178	178	15
103	165	2
205	205	9
101	120	1
135	137	2
103	105	3
52	53	5
114	114	10
236	236	21
98	156	1
73	73	14
199	199	13
200	209	2
76	141	6
75	135	3
218	218	16
151	216	7
136	150	3
144	145	7
177	178	5
42	42	24
86	113	2
142	142	16
150	151	3
106	106	9
212	229	2
186	212	1
32	32	16
18	103	1
63	64	8
199	205	4
100	162	3
102	122	7
216	224	2
166	166	6
41	79	1
83	83	7
136	138	4
172	174	3
170	171	8
223	223	13
217	217	8
108	125	7
157	162	6
145	145	24
11	12	4
9	32	2
37	38	4
36	36	17
201	203	2
117	117	7
191	192	3
113	113	10
107	108	3
3	78	5
37	76	1
201	202	5
16	21	3
71	72	9
21	21	17
108	180	3
96	186	3
206	212	2
226	227	7
83	89	2
13	60	1
103	117	5
178	199	8
154	175	6
119	120	9
156	191	1
118	118	9
7	7	19
54	66	9
49	49	23
102	103	7
1	3	3
60	75	3
54	72	2
16	30	2
192	194	1
138	193	2
210	230	4
96	165	2
101	101	6
123	123	22
206	206	5
174	175	3
80	81	5
142	236	3
193	193	11
137	223	4
195	196	2
61	62	5
174	192	3
46	65	1
196	216	3
112	113	4
76	131	3
102	123	1
189	192	4
211	228	3
8	35	5
108	108	4
51	100	4
130	154	6
68	68	18
6	6	11
201	204	1
28	39	4
43	75	2
178	179	1
127	127	8
18	31	2
183	183	16
108	163	1
159	159	14
21	76	1
168	168	13
37	42	7
189	215	5
97	113	1
106	178	5
198	215	3
13	79	4
158	163	1
220	220	6
2	3	3
104	127	4
39	48	2
44	44	7
187	187	3
64	218	1
33	34	3
0	31	3
76	78	2
0	70	1
122	124	3
11	44	3
25	86	2
142	235	1
204	206	4
18	68	2
0	0	12
234	234	8
101	105	2
77	139	4
74	173	2
24	25	2
37	37	9
174	174	17
124	124	6
57	58	4
190	190	8
98	99	4
140	142	4
6	14	6
154	156	2
198	201	5
153	184	2
98	191	3
189	196	1
51	52	5
227	228	4
102	180	2
170	170	11
212	212	7
147	148	2
153	196	2
197	216	5
133	164	1
159	160	2
233	234	4
207	211	3
199	200	2
31	31	19
164	165	2
3	184	1
35	36	5
17	20	1
7	9	1
43	138	1
221	221	6
4	7	2
54	85	1
114	115	4
154	159	3
149	149	2
25	150	2
10	11	8
55	74	1
152	152	5
9	45	1
64	66	2
131	151	2
185	185	9
178	206	2
234	236	2
105	105	8
99	163	2
5	39	2
156	156	8
1	18	2
0	26	3
96	97	2
200	201	2
158	158	10
144	144	7
63	127	2
112	116	3
20	39	4
172	172	9
105	177	3
10	32	1
135	136	5
166	179	4
155	155	9
77	78	6
3	8	2
173	192	6
235	235	4
27	67	3
160	161	6
153	165	2
65	65	10
214	216	1
7	170	1
78	141	1
89	89	4
20	103	1
27	28	4
210	229	1
149	151	3
58	75	2
98	175	3
108	156	2
223	230	7
204	207	1
205	211	2
236	237	1
96	96	9
22	23	2
98	122	1
184	184	7
29	30	4
236	242	2
62	63	3
192	217	4
109	192	2
180	183	2
170	187	1
200	204	4
43	136	1
79	115	1
136	140	1
83	88	1
43	45	2
175	176	1
77	137	3
49	79	2
189	216	1
127	128	3
182	219	3
54	67	6
103	216	2
169	170	7
115	119	2
103	179	5
113	114	3
31	32	9
44	45	2
52	52	12
174	195	2
11	15	5
166	167	4
118	163	1
175	177	3
59	75	6
148	149	4
194	196	2
133	135	2
209	229	1
100	163	4
161	191	2
45	46	6
167	171	4
102	172	2
25	143	5
131	138	2
120	121	1
3	23	2
155	157	3
39	47	1
14	21	2
107	188	1
22	81	1
220	224	4
9	33	1
12	12	16
177	177	8
143	235	2
54	64	4
53	75	6
53	63	3
63	81	1
176	225	3
14	33	1
3	89	2
21	22	4
25	55	1
155	184	2
155	164	5
124	125	8
43	135	1
23	29	1
3	176	1
59	60	6
84	85	4
220	226	2
219	220	3
194	195	2
72	73	1
203	203	9
182	218	3
38	43	2
22	80	3
184	187	4
36	40	3
209	223	1
188	190	5
136	187	7
75	79	1
177	180	5
96	107	1
107	107	1
9	10	4
131	135	3
188	194	1
114	157	3
195	223	2
132	138	3
170	186	1
28	67	2
126	131	5
9	38	2
137	139	1
130	130	3
20	204	2
22	58	1
140	237	2
162	163	3
76	137	8
36	49	1
55	67	3
157	159	2
110	118	3
80	89	2
15	16	6
209	214	1
6	7	4
230	230	7
237	242	3
173	181	2
111	113	1
103	104	2
104	107	2
175	180	3
3	133	1
198	206	1
24	54	2
23	24	2
123	125	1
100	157	4
195	195	9
158	159	2
122	123	5
174	220	2
121	131	1
36	68	3
108	155	2
161	192	1
25	44	2
199	213	1
21	78	4
109	109	2
106	108	3
30	102	1
35	51	1
76	139	1
115	116	2
79	91	1
85	86	3
6	8	4
36	41	2
155	191	5
10	141	1
55	66	1
40	66	3
64	65	2
15	59	1
140	141	12
32	40	1
162	195	1
95	108	1
81	84	1
37	52	1
206	231	2
157	157	1
140	235	1
99	155	3
178	203	2
126	127	2
103	128	2
187	211	1
24	26	2
115	163	3
43	182	1
163	166	1
13	80	2
20	23	1
175	201	4
106	164	1
212	214	3
25	61	1
44	85	4
212	213	4
39	43	3
96	188	4
25	26	3
240	243	1
27	68	2
160	191	1
200	200	5
224	224	11
133	134	4
5	229	1
7	48	2
3	10	1
75	137	3
201	211	1
113	116	5
109	110	1
40	41	3
32	67	1
181	183	2
86	92	3
209	209	1
213	228	2
5	79	2
168	169	4
6	40	1
25	54	2
91	180	2
223	224	3
98	120	3
37	53	2
45	85	1
47	52	1
2	206	3
205	210	2
103	169	1
99	101	1
37	50	2
39	41	3
74	75	1
38	81	3
26	99	1
53	54	2
16	20	1
46	49	5
79	138	2
76	79	1
96	128	1
143	147	5
20	42	1
40	53	3
207	208	4
119	122	1
190	192	3
172	173	3
102	216	1
211	212	1
17	19	1
128	157	3
43	55	2
3	88	3
2	178	2
184	186	1
46	66	5
169	215	2
48	64	2
7	33	1
12	24	1
207	209	5
24	58	1
3	4	2
211	229	3
75	86	1
96	194	2
189	214	1
68	72	1
27	47	1
23	27	1
98	101	3
68	73	2
187	190	2
0	10	1
98	100	2
165	165	1
167	194	1
140	242	1
107	156	1
105	214	1
232	233	3
177	206	1
48	50	1
240	242	1
63	116	2
43	63	1
101	103	1
143	144	1
175	204	1
100	161	1
105	178	1
171	171	4
101	165	1
148	148	2
209	213	1
1	12	1
44	61	1
97	157	1
1	2	3
50	52	1
151	152	2
107	163	1
228	229	3
39	61	2
52	56	1
118	123	2
154	206	1
140	182	1
63	115	1
33	41	1
185	187	3
44	88	1
28	70	1
32	48	3
155	158	2
78	79	1
134	242	1
164	180	2
139	142	1
182	183	1
5	13	2
74	148	1
2	20	1
205	213	1
64	74	1
206	207	1
69	70	2
123	124	2
29	36	1
169	190	1
0	36	1
36	57	1
114	118	1
210	212	1
232	239	1
48	80	2
74	236	1
41	66	1
18	102	1
19	22	2
213	214	1
103	106	1
211	213	1
70	71	1
56	59	1
218	220	1
65	72	1
19	103	1
8	31	1
219	238	1
134	142	2
8	9	3
50	59	1
28	29	3
75	139	1
92	171	1
53	85	1
149	152	2
101	164	1
20	26	1
95	170	1
136	151	2
206	209	1
23	134	2
26	231	1
209	210	1
3	21	1
67	73	1
168	170	2
210	211	1
1	24	1
58	61	1
34	36	1
156	159	1
234	235	1
132	132	1
209	212	1
241	242	1
1	9	1
20	25	1
80	82	1
14	63	1
199	204	1
138	139	1
193	194	1
135	171	1
146	174	1
109	157	1
181	182	1
231	232	1
58	82	1
57	59	1
