54	54	8
112	112	5
43	43	5
5	24	1
26	26	11
102	102	8
111	111	13
15	17	2
105	105	11
80	80	9
107	107	8
68	68	4
64	65	3
19	19	6
113	114	4
116	116	8
86	86	9
51	51	19
72	72	3
41	41	3
18	33	6
40	41	4
117	117	10
106	106	14
130	131	6
66	67	5
0	53	4
123	123	6
19	21	4
64	72	2
8	9	3
131	132	5
13	14	4
101	101	9
30	30	3
108	108	7
56	57	1
69	69	14
21	21	4
23	24	2
3	3	5
29	29	16
5	7	5
39	39	9
52	52	8
42	42	7
16	16	4
33	33	3
78	79	1
23	23	6
121	122	2
31	32	1
10	11	4
49	49	15
24	24	4
84	85	1
86	88	1
85	85	6
116	124	1
100	100	13
26	38	3
19	20	10
71	72	1
42	43	6
22	22	5
55	55	4
7	61	1
74	74	5
128	130	4
32	33	6
92	92	7
3	4	1
38	38	1
20	48	1
132	132	9
52	53	5
6	6	11
12	48	2
58	62	3
7	52	3
8	26	2
25	25	2
44	44	9
119	131	1
57	57	12
7	60	8
121	121	5
89	89	15
111	112	2
40	40	8
59	59	15
0	105	1
60	61	3
12	12	10
76	89	4
5	130	1
98	98	7
81	81	2
112	113	3
71	99	3
108	109	2
71	105	2
115	115	4
60	60	5
1	2	3
96	96	12
4	4	5
68	69	1
96	100	1
126	128	1
83	88	2
79	79	4
47	47	11
20	20	4
128	129	8
77	77	8
125	125	9
28	28	11
45	45	3
103	103	7
99	99	4
120	120	14
75	88	3
124	124	5
82	83	1
50	50	8
125	132	1
48	48	13
2	2	17
8	44	2
14	14	9
83	83	8
113	113	9
91	91	4
119	119	9
68	77	3
9	10	3
92	93	6
18	20	5
50	65	3
114	114	8
53	53	11
4	7	2
94	94	11
5	61	2
90	91	6
0	52	2
15	16	3
61	62	4
34	34	3
88	88	2
27	28	5
1	1	4
109	109	12
46	46	6
133	133	7
7	40	1
67	68	4
27	53	1
31	31	3
56	56	11
75	76	2
74	88	1
76	76	5
63	63	4
2	3	3
27	27	7
93	95	1
8	28	1
5	11	3
58	58	5
105	112	3
109	110	1
119	132	2
103	104	3
14	30	1
7	7	11
120	124	1
33	34	1
41	42	6
71	71	7
20	31	2
130	130	7
126	129	2
75	75	5
129	129	2
68	70	1
3	16	1
91	92	4
84	84	4
67	67	2
96	97	3
22	23	2
11	11	10
62	62	10
9	9	3
110	111	2
46	47	2
66	66	3
17	17	1
5	6	3
101	102	2
115	116	2
6	116	1
65	65	1
19	31	2
126	126	2
80	83	2
61	61	3
0	0	7
8	8	7
82	82	3
1	29	2
55	56	2
104	104	2
131	131	5
127	128	1
2	51	4
100	101	10
59	75	1
31	33	4
10	10	4
5	5	3
96	99	1
13	13	5
32	32	1
89	90	2
21	29	2
6	131	3
76	86	1
57	58	2
64	64	2
123	130	1
83	87	2
15	15	1
62	63	4
105	106	2
118	130	2
74	75	1
86	87	3
93	94	3
21	28	2
117	131	1
79	80	1
30	31	2
31	34	1
117	120	3
8	39	1
49	72	1
129	130	2
117	125	1
70	71	3
95	96	2
64	68	1
21	22	2
97	98	3
88	90	2
4	22	3
104	110	1
0	15	1
42	44	1
118	118	3
47	48	1
118	131	3
119	130	4
127	127	2
122	122	2
4	123	1
46	59	2
95	95	2
50	51	2
98	99	4
86	92	2
99	100	2
102	103	4
67	122	1
6	19	1
72	73	1
52	113	3
6	49	1
93	93	3
41	45	1
22	120	1
117	121	1
110	110	4
94	104	1
59	62	1
26	27	1
114	115	1
66	82	1
132	133	1
73	73	1
59	60	2
80	81	1
53	54	1
66	81	1
26	47	1
51	53	1
17	30	1
44	45	3
66	98	1
71	76	1
19	43	1
123	124	1
50	54	1
9	46	1
25	39	1
19	119	1
18	42	1
14	15	1
115	117	1
77	78	1
