98	100	4
110	110	15
12	12	7
3	3	14
52	73	1
54	54	19
78	78	5
17	18	6
108	109	4
62	62	21
45	118	3
121	121	10
24	24	13
82	82	15
117	117	4
92	92	12
27	27	1
63	70	3
85	85	10
129	129	12
1	1	9
16	17	3
99	101	2
131	161	2
106	106	17
156	156	15
53	53	9
37	38	6
39	39	8
170	170	2
90	91	5
108	116	2
146	160	6
101	102	5
76	76	11
105	109	2
111	112	8
46	46	11
104	122	2
120	163	2
7	7	22
19	19	15
80	81	4
115	115	11
6	6	16
144	144	11
56	57	6
74	74	11
81	88	4
98	98	8
70	71	3
120	120	16
124	125	7
40	86	3
37	37	14
164	164	13
50	51	6
57	57	8
11	37	3
76	78	3
44	44	4
99	99	8
1	2	10
95	96	2
103	104	4
138	145	6
34	34	25
115	116	4
76	79	5
151	152	5
105	105	21
22	22	16
68	68	6
9	9	12
16	16	27
70	77	2
26	26	10
36	36	10
96	96	27
153	154	5
72	72	13
130	130	17
56	56	8
8	19	2
36	37	1
131	131	12
42	42	12
49	49	26
75	75	6
64	64	14
15	15	18
121	151	2
159	160	6
54	56	5
116	118	4
26	110	3
136	136	18
97	97	20
161	161	6
108	108	18
155	155	9
86	86	14
113	117	2
89	89	15
66	66	9
77	77	17
70	70	15
18	20	5
148	148	10
123	123	13
106	136	6
119	119	15
121	122	5
123	130	4
88	88	13
84	84	9
41	88	2
147	166	2
101	101	9
140	140	13
10	10	14
128	128	9
91	91	11
128	129	4
4	4	13
107	107	14
18	19	13
112	112	18
51	51	18
7	38	1
102	102	11
141	141	13
114	115	10
95	95	19
52	56	2
38	38	13
90	90	16
112	115	1
108	137	3
122	122	9
37	39	2
39	40	13
93	97	3
89	90	3
25	25	19
152	152	12
68	71	2
47	119	3
157	157	14
73	73	12
142	142	8
169	170	2
19	20	3
14	24	2
21	21	5
166	166	5
13	13	6
20	20	11
8	15	1
138	138	8
165	165	10
43	43	12
103	103	18
9	12	2
133	133	6
100	101	8
116	116	10
4	67	4
8	8	5
42	43	3
88	89	4
79	102	2
144	146	2
153	153	12
39	57	2
126	126	7
55	57	2
154	169	4
135	136	8
104	105	5
55	55	7
48	48	10
111	158	2
38	44	3
160	160	10
137	137	13
53	160	5
41	42	3
118	118	7
21	22	5
8	9	2
154	165	1
101	103	2
77	78	6
155	156	8
127	127	4
100	100	16
94	94	16
6	7	8
111	111	12
109	109	4
11	11	21
40	40	5
55	56	6
38	62	4
119	166	2
146	146	10
51	57	4
96	103	2
129	130	3
93	94	7
5	5	13
23	23	10
35	36	4
141	142	1
14	16	2
66	67	10
4	7	8
18	18	15
147	147	8
14	14	11
52	52	14
139	139	5
115	153	6
163	163	4
62	87	1
49	57	2
11	24	6
47	49	9
160	161	1
79	103	5
83	83	4
125	125	14
9	10	5
94	95	4
140	143	2
54	55	6
9	13	5
161	163	1
87	103	4
126	127	9
87	87	9
107	108	11
123	124	4
100	165	4
71	71	1
98	99	9
41	41	7
51	89	2
94	140	2
154	154	8
17	17	10
21	25	1
84	85	5
53	158	2
10	28	4
83	86	1
159	159	2
109	110	3
86	87	4
151	151	4
46	54	1
136	137	3
159	164	6
22	139	2
145	145	3
85	94	1
64	66	3
34	43	7
40	41	1
133	134	3
63	65	2
16	24	3
95	98	2
81	81	2
86	127	1
163	164	1
0	2	2
50	86	4
76	85	4
90	99	1
2	2	11
119	121	5
137	138	1
34	37	3
113	123	2
166	169	1
110	111	1
150	153	3
16	19	2
43	44	3
107	111	3
124	124	4
50	50	4
45	45	8
45	46	4
99	100	8
48	49	2
125	131	1
154	157	2
120	121	6
99	103	3
68	70	3
47	47	11
154	155	4
107	110	2
57	63	2
118	146	3
20	21	8
35	35	8
65	70	1
33	33	8
83	88	4
109	158	3
87	88	5
38	107	1
67	68	3
74	75	5
10	13	2
40	63	4
124	131	3
102	113	10
104	104	9
81	82	3
169	169	1
49	133	6
63	63	6
77	84	2
103	112	1
125	126	2
156	164	5
132	132	4
22	24	6
83	91	7
44	45	1
161	162	4
150	150	8
21	23	4
112	159	3
11	12	2
78	116	3
51	52	3
11	71	1
27	113	2
93	93	4
76	77	2
86	89	1
58	62	2
0	0	7
114	114	6
4	5	6
117	118	2
22	23	1
15	27	5
106	126	3
143	143	7
95	112	2
85	86	1
67	67	2
131	143	1
167	167	2
97	139	2
40	54	5
149	149	9
5	89	1
118	153	3
34	35	5
97	99	2
52	155	4
65	67	1
33	34	1
134	134	5
15	24	1
69	69	8
96	97	3
71	72	7
106	133	3
47	48	3
35	44	1
72	73	4
39	50	2
38	39	4
41	52	4
49	50	5
97	98	2
105	106	3
127	128	10
131	132	1
135	135	4
91	94	2
4	28	3
158	158	4
133	146	1
52	54	4
8	18	1
157	158	2
41	74	5
122	169	2
8	10	9
38	40	4
101	111	1
79	80	4
111	113	1
47	55	2
133	136	1
83	85	1
106	109	1
64	65	2
23	24	3
112	113	3
116	143	2
147	148	1
71	78	1
149	164	1
73	74	6
67	137	1
65	66	3
162	162	6
80	80	3
87	90	3
5	6	5
76	133	1
45	75	1
160	167	2
51	58	3
24	55	3
168	169	2
79	79	3
78	80	1
167	169	1
107	109	1
78	81	2
113	141	2
39	69	1
155	157	1
168	168	2
65	65	1
127	143	1
112	160	1
120	151	2
138	139	1
86	96	2
148	162	2
118	121	3
119	151	2
135	138	2
122	123	1
37	44	1
50	115	2
62	86	1
14	23	2
67	69	3
73	101	1
57	62	1
47	75	1
7	11	1
52	53	3
116	144	1
48	117	2
47	53	2
4	12	1
130	161	2
149	160	1
4	6	2
150	167	2
102	121	2
15	18	2
84	86	1
34	41	1
4	24	2
86	88	1
146	147	2
39	72	2
99	164	2
143	144	1
8	40	1
147	165	1
14	15	1
130	131	1
113	161	1
69	70	1
0	1	2
68	95	1
71	73	1
101	107	1
102	119	1
0	15	1
100	102	2
23	25	2
152	153	1
92	94	1
12	27	1
33	38	1
8	46	1
44	142	1
75	76	2
12	16	2
50	58	1
150	170	1
92	93	2
63	85	1
64	72	1
52	87	2
119	120	1
53	54	1
164	167	1
64	71	1
154	163	1
24	25	1
113	113	1
62	63	1
74	82	1
33	89	1
67	71	1
