72	81	2
112	112	4
12	14	5
67	67	7
25	25	4
59	59	10
39	39	9
22	22	14
102	102	7
51	51	6
43	43	15
66	66	11
24	25	1
52	52	12
38	39	8
6	6	8
5	5	13
54	54	9
17	17	5
4	5	4
3	5	2
0	1	3
123	123	7
53	54	1
97	97	6
49	49	10
19	20	7
77	77	1
107	107	2
85	88	1
56	56	14
15	16	7
68	69	2
92	92	8
2	2	21
102	103	6
10	11	6
11	11	8
12	28	1
118	118	4
47	47	12
87	88	4
18	22	5
65	67	4
69	69	4
52	53	7
84	85	2
131	131	15
99	99	6
13	63	3
68	81	1
65	65	7
78	79	2
14	15	2
79	79	5
81	82	5
100	100	4
4	52	3
18	21	6
40	40	13
71	71	9
56	57	4
129	129	2
120	120	10
7	7	4
21	46	6
114	115	7
14	14	8
16	16	6
28	28	7
101	101	3
33	33	6
42	42	15
50	50	4
56	62	4
1	51	2
55	55	9
103	103	8
21	21	8
56	76	1
116	116	8
64	64	10
73	73	4
3	4	11
110	110	8
17	18	3
42	43	2
91	91	9
98	98	7
121	121	3
130	130	5
93	93	5
90	90	2
46	46	10
29	29	6
68	79	1
25	26	4
105	105	7
85	86	7
72	76	1
124	124	1
57	57	13
58	58	12
22	23	1
15	15	4
4	4	13
27	27	15
44	44	9
113	113	7
48	49	1
18	18	9
44	66	5
93	94	5
54	55	1
95	96	4
2	3	2
75	76	3
74	74	4
131	132	7
128	129	3
10	12	3
20	20	4
128	128	2
67	72	1
70	70	4
94	94	7
1	50	4
106	107	3
132	132	3
30	30	7
31	31	7
106	108	2
130	131	2
12	12	11
55	56	4
45	46	8
76	77	7
71	90	1
81	91	2
48	48	4
50	51	4
83	83	8
60	60	2
121	122	3
23	23	1
125	126	2
117	117	9
1	1	7
117	118	2
114	114	12
106	106	6
72	72	7
46	47	11
75	84	2
6	10	7
86	86	8
85	85	4
89	89	2
10	10	10
86	131	2
129	130	2
125	127	5
116	117	1
20	30	1
8	8	5
45	45	2
0	13	3
28	29	1
26	27	2
115	115	3
108	109	3
81	99	1
3	12	1
19	19	6
118	119	3
18	19	4
17	19	3
100	101	4
41	42	5
44	45	3
88	88	9
104	104	5
93	95	2
3	3	1
70	71	5
72	86	3
76	76	6
108	108	2
24	24	4
54	56	1
84	84	3
39	41	1
102	116	1
58	59	5
9	9	2
21	22	3
122	122	4
26	26	6
11	12	2
81	81	6
34	40	2
96	96	5
55	70	1
21	23	1
109	109	3
91	93	2
2	8	2
69	71	1
73	83	1
45	73	1
94	117	1
131	133	2
90	94	1
82	92	1
10	13	2
78	78	1
16	17	1
86	87	2
51	52	1
124	125	1
54	110	4
126	126	2
16	18	2
68	68	1
113	114	1
53	53	7
87	87	2
71	77	3
82	83	4
41	41	3
27	28	3
17	39	2
73	74	5
62	63	2
14	42	2
87	97	2
105	108	1
40	43	1
1	52	1
105	117	2
8	9	2
61	95	2
65	66	2
33	34	2
79	80	3
85	87	2
51	105	1
83	84	2
13	18	1
80	80	2
63	63	2
29	31	1
55	109	2
77	78	1
38	42	1
56	77	1
32	94	1
122	123	1
133	133	2
62	62	5
20	21	1
41	43	3
125	128	1
81	84	1
100	116	4
111	111	2
95	95	3
13	13	1
103	116	2
125	125	1
127	127	4
0	9	1
75	75	1
92	93	4
88	89	1
69	70	2
102	117	1
94	95	4
104	105	1
50	53	1
119	119	1
104	107	1
80	120	1
15	23	2
68	72	1
86	130	1
103	104	1
40	46	1
3	14	1
45	66	1
80	82	1
45	65	1
96	113	2
20	44	1
96	97	1
2	5	1
42	64	1
7	8	1
22	24	1
113	126	1
61	61	2
40	42	1
79	100	1
39	40	1
132	133	1
126	127	1
18	61	1
112	113	1
