134	134	16
24	24	12
145	146	5
37	37	9
190	190	6
176	176	7
174	175	3
165	166	7
136	136	9
143	143	9
135	136	2
26	26	13
159	159	15
119	119	4
2	4	3
102	108	3
141	141	14
77	77	11
75	76	2
24	25	2
156	167	1
23	24	2
57	57	7
80	81	1
185	185	6
176	177	6
69	69	16
135	135	9
50	51	4
21	44	4
97	97	2
5	6	4
145	145	5
187	190	2
101	111	3
4	4	4
49	49	17
79	80	3
12	12	12
104	104	8
63	63	9
44	44	18
156	156	11
122	122	12
151	151	10
117	117	10
183	183	18
25	25	5
155	155	6
74	74	3
41	41	4
137	169	2
133	133	8
194	194	10
115	115	15
174	174	9
10	10	12
163	164	12
99	99	2
193	193	7
118	118	8
46	46	7
130	131	12
14	14	13
185	186	8
93	93	3
18	18	18
118	151	2
123	123	7
131	131	2
27	193	4
13	13	10
94	94	3
105	105	2
50	50	10
30	30	7
142	143	5
195	195	6
51	53	4
138	141	1
19	24	3
162	163	4
55	55	3
109	109	5
142	142	7
43	44	5
35	35	5
127	127	4
192	192	14
60	60	3
22	29	3
137	137	8
162	165	2
117	138	3
145	163	4
16	16	8
9	9	19
52	52	3
43	43	7
170	170	6
180	180	8
196	196	10
40	40	10
191	191	11
168	168	15
144	144	10
120	120	7
66	69	4
25	26	3
133	142	4
0	1	2
181	181	13
3	29	1
111	111	5
60	61	2
197	197	14
12	23	1
13	62	3
5	5	8
28	28	3
39	40	3
182	182	17
27	27	10
188	188	7
0	0	2
195	196	5
175	175	5
154	154	2
83	85	3
30	31	6
2	3	1
148	148	7
96	96	2
56	56	1
184	184	11
1	5	3
57	88	1
66	68	3
179	179	10
127	128	4
45	45	11
108	108	6
131	140	2
162	164	6
53	53	9
4	5	6
18	19	7
39	39	8
58	58	6
165	167	3
22	192	8
42	43	15
86	87	7
129	129	8
102	152	3
143	144	3
11	14	3
181	182	5
169	170	1
150	183	2
169	169	8
81	81	4
44	45	1
132	178	2
103	103	2
38	43	2
112	112	6
40	41	4
17	21	3
36	40	2
107	108	2
150	150	10
169	171	3
149	149	11
157	165	4
100	100	5
191	192	11
16	17	5
61	62	1
78	81	3
26	27	4
62	63	3
108	152	3
15	38	1
17	17	5
134	135	2
0	3	1
72	128	1
49	56	1
101	101	9
67	67	3
6	6	3
163	163	9
6	26	3
34	34	8
79	79	2
181	193	1
107	107	15
105	115	1
156	157	1
9	10	5
86	86	6
173	173	8
182	189	6
186	186	9
29	29	2
45	46	1
51	51	12
147	147	2
124	124	2
8	8	4
9	25	2
31	31	15
194	195	3
94	96	1
9	31	3
178	178	3
6	20	3
42	42	3
1	2	3
138	138	6
182	183	2
179	180	2
6	21	2
119	120	7
140	141	4
93	127	1
14	15	1
18	26	2
11	141	3
171	172	9
164	167	4
35	37	1
38	42	2
59	59	9
11	23	2
1	1	2
126	126	2
161	162	2
105	106	2
190	192	3
38	38	4
19	19	4
147	148	5
78	78	8
153	153	13
30	142	2
0	5	4
121	123	2
110	129	1
187	187	13
103	107	2
133	160	1
157	158	3
34	35	9
126	127	4
172	174	3
25	27	1
104	115	3
93	94	2
189	189	1
65	70	1
0	30	4
116	117	1
132	133	2
160	160	3
161	161	3
0	59	3
162	162	3
37	53	3
19	20	1
135	137	5
128	128	5
139	140	5
15	15	4
20	23	1
148	149	1
171	171	3
186	188	2
138	139	1
124	126	2
176	180	1
132	132	7
32	33	2
130	130	12
152	152	8
47	47	6
109	110	3
177	196	1
17	18	4
132	136	1
36	38	4
149	150	5
100	129	1
38	39	3
54	54	5
176	178	4
72	72	4
166	166	3
113	113	2
177	180	1
140	140	5
88	89	1
77	78	4
160	189	1
135	147	3
33	33	5
120	121	3
163	187	3
157	157	4
101	102	3
7	7	2
192	193	2
66	66	3
102	103	3
138	150	1
71	71	3
42	156	1
142	149	1
14	52	1
169	172	1
27	34	1
22	25	1
158	158	2
1	7	2
126	128	1
57	186	1
48	48	7
98	98	1
6	8	1
75	75	2
180	182	1
155	159	2
7	27	4
114	115	1
114	114	1
98	100	1
152	153	2
125	125	3
103	111	1
12	54	2
133	134	1
46	47	1
32	32	3
95	177	2
11	11	3
100	101	2
25	59	1
81	82	2
98	105	4
64	64	1
146	182	1
146	146	5
149	187	3
174	176	1
65	85	1
59	61	4
36	36	1
189	190	3
121	121	1
135	148	2
21	21	1
36	39	2
78	79	1
26	63	2
122	123	2
193	194	2
147	149	2
110	110	2
172	172	3
167	167	4
116	119	1
103	106	1
147	172	1
23	23	1
177	177	2
175	178	1
112	121	4
38	40	1
68	84	2
47	48	1
0	75	1
61	61	1
51	52	1
140	146	1
166	167	1
121	135	1
123	125	1
19	21	2
186	187	1
170	171	3
152	167	3
22	40	1
147	163	1
115	116	1
16	44	1
175	176	2
173	174	3
105	114	1
65	65	1
100	123	1
3	4	1
193	195	1
27	39	1
27	32	2
68	68	3
11	13	1
153	159	1
5	8	1
52	53	1
78	80	1
167	168	1
104	106	1
85	86	1
2	2	2
53	54	1
161	164	1
179	183	1
27	28	1
114	136	1
144	147	1
141	142	1
162	180	1
