23	28	3
77	77	15
58	59	9
43	43	16
44	45	13
49	50	14
108	109	10
81	99	1
90	91	6
46	52	2
67	67	11
53	54	4
85	89	2
81	83	2
76	76	46
70	70	6
66	66	16
99	99	2
44	44	14
23	29	5
110	110	22
80	80	20
105	105	16
54	54	7
42	42	15
52	52	10
54	55	3
102	102	15
28	28	6
59	59	18
101	106	7
101	101	13
61	63	2
103	105	4
62	64	4
31	31	14
45	45	19
111	111	20
105	106	13
82	82	12
108	108	19
104	105	11
78	78	20
22	30	4
76	77	7
69	70	5
86	86	6
89	89	9
39	39	11
61	61	11
85	85	16
75	75	8
69	73	7
91	94	11
97	97	12
83	86	3
69	69	17
103	106	2
59	60	7
49	49	14
104	106	3
93	93	11
91	97	3
90	97	4
65	66	5
23	23	9
93	94	6
20	20	21
72	73	4
40	41	11
40	40	21
53	55	4
38	71	5
36	88	1
33	33	22
99	100	8
30	31	3
89	90	6
109	110	17
55	55	10
58	60	5
73	74	21
96	96	10
26	27	9
57	57	8
76	78	8
19	19	2
92	93	7
113	113	27
64	64	23
68	68	5
37	37	17
109	109	37
103	103	12
114	114	9
83	83	10
29	35	6
92	92	22
106	109	3
91	91	18
47	48	8
84	84	13
79	79	11
112	113	3
92	94	7
29	30	3
65	65	6
92	95	4
33	35	7
63	69	6
24	37	1
72	72	4
47	49	6
42	44	4
62	62	3
101	102	1
56	75	2
94	94	8
22	28	3
56	61	6
95	96	2
107	111	1
32	33	3
51	51	15
46	46	18
106	106	10
71	73	3
106	108	2
30	30	20
25	29	4
102	104	2
39	40	3
108	113	1
58	58	15
95	95	22
74	74	26
61	64	2
60	60	8
62	68	6
104	104	15
55	56	13
98	98	6
81	81	8
21	21	8
22	23	3
91	92	6
83	85	8
60	61	1
82	85	2
53	53	6
29	29	12
81	82	4
75	76	10
25	28	7
24	24	3
34	35	5
27	27	14
75	77	2
88	88	8
35	36	1
83	84	7
73	73	36
85	86	5
107	107	5
86	91	2
54	58	5
101	103	3
102	108	4
71	75	2
85	91	2
26	31	2
87	88	9
76	108	3
38	38	12
38	39	11
56	56	4
59	61	1
107	108	10
51	52	7
76	79	3
100	100	9
35	35	4
48	48	6
32	92	4
78	79	6
36	66	4
84	85	3
60	63	4
28	29	2
22	22	5
112	112	10
104	111	4
98	101	3
57	71	1
88	89	14
55	59	2
71	71	8
106	107	4
89	91	1
62	63	3
20	21	3
113	114	2
111	112	6
25	25	5
96	97	4
57	58	3
67	68	9
24	29	2
43	44	6
41	41	6
94	97	1
52	53	1
23	25	4
70	71	3
23	26	3
61	66	2
79	80	3
29	31	3
90	90	3
50	51	2
98	99	6
60	72	2
90	92	1
103	110	6
84	95	2
62	67	3
104	112	1
25	30	5
87	92	3
106	111	8
103	104	4
25	33	2
56	65	1
35	37	1
62	71	1
41	42	6
77	78	2
110	111	3
84	91	4
93	95	4
48	49	6
66	67	6
68	69	2
49	64	3
47	47	5
70	73	2
59	78	1
107	110	1
60	89	3
50	50	7
105	107	1
33	34	2
63	63	6
54	72	2
77	108	1
74	75	8
57	59	2
86	87	3
102	103	3
36	36	6
61	62	3
28	30	2
92	97	1
49	76	1
87	87	7
71	72	3
77	80	2
34	34	3
73	79	1
56	66	6
45	46	4
20	22	1
102	109	1
58	61	2
100	102	2
73	85	2
23	27	2
42	43	1
107	109	3
103	108	1
52	54	3
80	81	1
24	78	1
62	65	1
22	27	2
115	115	1
54	57	2
78	80	1
98	100	2
109	111	1
111	113	3
74	78	1
35	66	1
54	71	1
23	34	2
72	90	1
83	99	1
25	31	1
61	72	1
94	95	1
83	98	2
26	26	1
70	88	1
58	62	1
58	78	1
55	58	1
93	97	2
36	70	1
104	113	1
65	68	1
46	47	1
25	26	1
23	32	2
70	87	1
60	66	1
48	52	1
24	41	1
