5	41	1
21	21	18
37	37	8
65	65	17
47	49	4
61	61	14
42	42	11
54	55	16
13	32	2
63	63	3
26	48	4
45	45	6
49	50	8
2	3	12
21	22	1
44	45	5
25	30	1
19	20	9
69	69	3
48	48	6
11	11	4
25	26	7
74	74	10
0	0	7
68	69	9
43	44	9
4	4	8
30	31	1
50	53	1
35	36	3
22	23	4
43	47	4
22	22	6
73	73	5
7	20	1
12	13	7
48	50	5
3	4	3
19	19	4
21	40	3
22	48	2
24	24	7
33	34	8
35	67	2
31	42	1
47	47	8
22	24	1
59	62	1
20	20	15
55	55	23
55	56	6
28	28	3
71	72	10
75	76	4
21	39	2
5	6	1
8	8	7
8	9	7
43	63	6
33	33	8
46	59	1
76	76	3
9	11	7
46	46	14
54	54	5
59	59	14
19	21	2
60	60	10
44	44	10
20	21	1
63	64	2
12	12	8
18	19	3
35	35	10
29	29	12
2	7	1
6	7	2
30	77	1
42	43	1
1	1	3
10	42	7
18	18	3
12	63	2
50	50	3
70	70	9
7	10	3
61	62	4
67	67	5
26	26	3
58	58	9
20	29	3
10	10	6
4	5	8
32	32	8
6	6	7
43	43	5
45	58	2
68	71	2
75	77	1
30	30	6
4	6	2
13	21	5
51	51	5
2	2	10
52	52	7
32	35	3
7	21	1
51	52	2
66	66	4
74	75	2
57	59	2
68	68	8
5	5	2
36	37	4
57	60	1
24	28	2
6	21	1
9	9	6
3	3	9
22	29	1
77	77	7
40	42	2
50	51	1
54	77	2
6	22	1
53	53	11
45	46	1
37	40	2
72	73	4
56	56	7
7	8	4
72	74	2
72	72	5
0	3	6
37	44	2
34	34	6
27	57	2
31	31	4
22	39	1
57	57	5
36	57	2
38	39	2
10	52	1
23	25	2
49	49	3
1	2	1
33	54	2
58	60	1
28	49	4
64	64	2
7	7	5
40	40	3
39	39	2
23	23	4
59	67	1
58	61	3
24	29	1
14	14	2
54	73	1
12	22	1
58	59	3
4	7	2
46	47	2
52	53	1
26	58	1
24	25	5
69	73	2
11	58	3
72	77	2
28	29	1
22	52	2
37	56	2
9	33	2
28	42	2
75	75	3
23	29	1
61	63	2
56	57	3
70	71	1
43	48	2
32	33	2
5	7	1
22	25	1
38	38	3
59	60	1
23	51	1
45	54	1
44	47	2
34	43	1
43	61	1
33	35	1
71	71	2
38	73	1
69	70	2
41	64	1
41	42	2
60	61	1
53	57	2
76	77	1
68	70	1
73	75	1
22	27	1
1	4	1
51	53	1
62	62	3
37	38	1
57	58	1
41	41	1
39	40	1
25	28	1
