37	38	6
101	101	10
68	77	1
30	30	7
73	73	4
99	101	3
98	98	8
57	57	7
63	64	3
97	98	6
65	66	1
56	56	3
76	76	5
42	42	9
71	71	5
51	51	10
100	100	7
49	49	12
64	64	18
31	31	9
61	61	6
44	45	3
40	49	2
48	50	1
87	87	14
60	60	9
95	95	13
77	77	9
99	99	6
36	37	3
85	85	5
73	74	3
36	36	12
59	59	7
48	48	7
43	43	12
89	89	5
62	63	3
80	81	1
93	93	10
43	44	3
39	39	7
63	63	4
66	66	11
29	29	2
62	62	7
102	102	2
91	91	5
50	50	5
51	52	1
55	56	2
35	36	2
53	53	3
68	69	2
60	61	3
79	79	10
94	98	3
47	47	5
41	41	11
81	81	11
67	67	12
39	40	4
66	75	2
32	32	1
69	70	2
85	89	2
95	97	2
20	20	4
86	86	6
59	77	2
56	62	2
70	70	11
80	80	9
69	69	2
86	95	1
93	98	5
35	38	3
72	72	10
59	62	5
67	68	6
47	57	3
83	83	10
33	39	1
60	80	1
29	30	1
54	54	5
84	84	7
46	46	4
75	76	4
52	59	1
60	62	4
90	91	3
34	34	11
68	68	5
47	55	4
47	48	3
27	27	1
69	71	2
75	75	5
53	62	1
95	99	1
40	40	5
40	41	2
74	74	3
77	79	1
50	51	7
70	71	1
41	42	3
86	89	2
45	45	5
95	96	3
66	67	1
41	43	1
86	87	1
85	100	1
85	101	3
46	48	4
35	35	5
55	55	4
53	58	1
65	68	2
56	57	2
66	74	1
82	82	2
38	38	2
26	27	2
53	56	2
90	90	4
48	49	1
41	65	2
49	52	1
46	55	1
37	37	3
56	96	4
24	24	2
58	62	1
58	58	7
78	78	6
91	92	4
33	33	4
89	101	3
28	32	1
92	92	6
99	100	4
42	43	2
51	56	1
53	60	1
91	94	2
44	44	4
96	97	2
71	73	1
88	88	3
58	60	1
31	34	3
67	69	2
46	47	3
86	88	1
76	77	1
26	26	1
88	99	4
93	100	1
57	58	1
49	50	1
96	96	3
87	98	2
25	27	1
83	101	2
100	101	1
31	33	1
57	62	1
28	28	1
64	75	1
63	98	1
97	97	1
48	55	1
65	65	1
54	61	1
83	87	1
45	46	1
52	60	1
51	54	1
77	78	1
22	23	1
86	93	1
46	51	1
26	53	1
73	75	1
64	70	1
94	94	2
68	84	1
47	54	1
54	62	1
72	76	1
86	92	1
93	94	1
51	77	1
22	22	1
79	80	1
