112	112	3
51	52	1
68	68	13
50	50	1
87	93	3
28	36	2
35	36	4
114	114	8
36	41	2
105	105	3
76	76	6
87	107	4
22	24	4
104	105	2
99	113	1
32	33	1
82	82	7
46	54	1
45	45	12
44	44	6
99	99	7
54	57	5
102	103	6
56	57	3
72	72	7
101	101	4
57	106	3
92	92	10
79	79	9
28	41	4
101	102	2
59	61	2
46	62	2
93	95	1
69	69	11
70	70	1
33	33	5
80	91	3
63	63	10
95	95	7
36	36	10
92	94	1
25	25	6
108	109	1
65	69	2
48	49	2
38	38	4
54	54	4
81	81	8
111	113	3
88	90	2
87	88	1
52	52	5
110	110	5
105	106	6
37	77	3
55	55	11
73	73	14
80	80	7
60	60	1
26	31	3
87	109	3
90	104	1
78	78	9
66	73	2
21	21	2
75	75	2
80	81	6
98	98	5
98	105	3
100	100	5
46	51	1
89	89	7
108	110	3
97	98	3
87	87	7
39	39	8
85	85	4
98	100	1
47	47	5
99	100	2
27	33	4
27	32	1
46	55	4
65	65	6
113	113	4
96	97	1
19	19	7
24	24	5
91	103	2
58	58	8
64	64	14
35	50	4
29	35	1
71	71	5
73	78	3
49	49	5
90	91	1
63	64	1
34	34	3
40	40	2
47	49	2
20	20	3
51	51	7
53	68	1
90	90	3
37	38	5
27	28	1
65	66	1
97	97	4
35	43	1
70	71	3
74	74	5
107	107	12
109	109	5
42	92	1
93	93	2
88	88	3
59	60	4
60	61	1
26	42	1
61	61	2
29	29	2
54	55	1
85	86	1
104	104	5
84	85	1
78	79	4
88	89	4
108	108	2
30	30	2
53	53	2
113	114	3
88	105	2
72	99	5
56	56	9
47	62	2
22	22	6
62	69	2
47	61	2
46	57	1
69	70	1
28	29	1
64	66	3
37	37	2
77	77	3
51	76	1
31	31	1
26	26	3
107	111	1
103	103	3
72	82	1
104	109	1
94	97	1
111	111	4
91	104	2
103	107	1
66	99	4
56	61	4
29	102	2
91	91	3
73	99	2
86	87	3
46	53	1
100	101	6
94	110	1
94	94	3
58	75	1
69	73	1
86	86	2
62	63	3
59	59	8
28	75	1
79	81	1
48	48	2
40	51	3
98	99	2
107	108	1
64	68	1
34	36	4
75	76	1
104	108	3
22	23	1
86	95	1
51	59	5
64	67	2
87	110	1
84	84	3
55	56	2
36	62	2
31	99	2
83	83	6
62	68	1
33	34	2
23	24	1
43	43	1
94	101	1
74	75	1
62	62	1
115	115	2
56	58	3
73	74	4
103	104	2
109	110	2
57	57	2
32	32	6
25	37	1
86	110	1
101	105	1
93	109	1
102	105	1
89	111	1
82	95	1
92	95	1
37	39	1
86	89	1
43	68	1
96	96	2
57	88	1
60	80	1
75	77	2
35	93	1
93	108	1
106	107	1
67	67	1
46	77	1
93	94	2
47	48	1
41	51	1
66	66	1
42	42	1
101	103	1
55	61	1
41	42	1
95	96	1
41	41	1
39	61	1
28	28	1
