3	21	2
49	51	4
21	49	2
205	206	7
61	74	3
226	226	11
10	10	11
40	132	2
133	133	3
85	86	1
7	8	3
64	65	6
184	184	10
149	150	5
0	0	9
142	142	4
11	11	6
39	39	10
96	96	1
23	24	6
6	6	4
9	9	5
16	18	4
34	34	4
104	106	3
56	56	8
97	97	4
213	215	6
241	241	6
86	86	16
18	18	6
103	103	4
211	211	9
198	198	3
171	221	3
218	218	6
136	146	1
52	57	2
68	82	1
46	46	9
149	166	8
232	233	5
209	209	2
34	49	4
38	39	5
123	123	3
136	137	1
76	77	7
86	203	1
63	63	5
219	219	10
47	47	6
221	221	6
200	231	2
191	232	3
45	45	2
204	204	10
213	213	3
143	143	3
65	65	5
55	55	4
15	15	5
199	200	1
48	48	5
3	17	2
48	204	2
181	182	2
183	183	7
194	195	4
59	59	19
95	95	2
60	80	2
35	35	2
152	152	6
118	118	3
238	242	3
50	52	2
80	80	3
193	193	1
141	201	2
23	23	6
100	100	6
43	44	4
221	222	3
195	195	5
207	221	1
193	195	3
5	5	5
177	177	5
202	203	2
75	75	3
96	97	4
168	169	8
52	56	4
69	70	1
19	20	2
43	43	9
41	49	3
176	176	10
126	130	3
214	214	3
100	126	1
150	150	10
67	68	4
79	115	2
47	57	1
239	240	4
54	57	1
169	169	1
80	118	1
80	81	3
74	101	4
13	13	3
147	148	1
179	215	1
192	195	4
204	231	2
167	169	2
138	138	13
28	28	5
77	78	4
224	225	4
195	196	5
51	51	3
129	130	4
49	53	1
76	76	3
139	139	3
156	164	3
70	159	2
81	82	7
113	113	6
168	168	3
19	19	10
186	186	3
20	20	6
69	81	6
165	178	1
44	44	6
158	158	3
227	229	1
14	14	10
207	207	2
22	22	7
46	47	4
51	71	3
34	50	2
10	26	3
179	190	3
240	240	7
42	43	1
225	225	2
139	141	1
167	170	5
36	36	4
99	99	3
150	151	5
208	208	12
174	200	1
108	121	1
155	156	5
79	79	3
210	210	4
142	143	3
139	143	6
16	21	3
197	197	13
66	66	3
2	2	2
217	217	5
205	205	4
58	58	3
215	215	4
38	38	2
97	142	2
237	239	1
15	16	3
201	201	4
74	74	11
27	43	2
37	40	1
85	85	3
30	30	5
217	230	1
132	132	3
199	199	7
102	102	2
68	68	6
50	60	4
21	21	7
167	167	7
217	223	2
58	59	5
151	151	2
106	106	5
210	213	2
189	189	3
136	136	5
65	68	1
108	123	2
212	225	1
72	72	4
156	162	2
212	212	8
75	118	4
81	81	6
51	52	3
159	159	1
17	17	2
104	126	2
222	222	10
227	227	5
24	24	7
155	157	1
79	82	1
224	224	11
54	54	1
135	176	2
61	69	3
197	198	4
3	3	5
116	116	4
201	202	2
61	61	8
163	164	5
88	88	4
31	31	5
78	79	3
190	203	1
69	197	3
175	175	1
122	122	2
202	232	1
172	172	13
228	229	2
186	199	2
166	171	6
75	88	4
182	182	3
97	113	1
72	176	3
8	8	4
220	220	1
79	80	2
41	41	3
206	206	4
155	155	4
203	210	2
4	5	2
162	163	2
21	24	4
115	115	5
215	216	3
121	121	2
225	233	1
203	219	1
17	34	2
144	146	1
62	62	3
18	19	2
25	25	4
127	190	1
71	131	1
28	43	1
53	56	3
48	60	3
37	37	4
165	215	1
210	228	1
55	57	2
157	157	3
147	147	1
216	216	5
57	57	5
184	185	1
134	134	6
111	112	2
159	177	3
64	64	3
190	190	3
203	220	1
114	114	3
29	32	1
14	15	5
59	60	1
31	33	1
192	193	1
78	78	3
42	135	2
219	239	5
71	71	6
69	69	5
142	151	1
27	143	2
12	21	1
52	71	3
148	148	5
52	52	4
5	6	2
152	177	1
34	42	6
51	57	2
167	168	4
179	180	2
238	238	5
103	104	2
29	38	1
242	242	4
61	62	1
98	106	1
231	231	3
67	67	2
196	196	3
239	241	1
145	152	3
21	22	4
170	170	2
29	50	1
32	33	1
194	194	1
40	40	2
202	202	2
30	31	6
167	223	1
234	234	2
205	217	4
108	108	3
1	2	1
55	75	2
52	53	2
12	12	4
211	212	1
58	60	1
42	96	1
60	66	1
226	235	1
214	215	4
66	83	1
34	48	3
1	1	6
35	37	1
39	97	1
26	26	6
178	178	2
120	120	3
122	136	2
239	239	5
190	198	1
236	236	4
65	67	1
174	174	2
153	153	2
102	105	2
145	187	1
39	42	1
160	173	1
53	58	1
194	198	1
12	60	3
49	77	1
230	230	3
171	204	1
95	96	2
213	214	2
81	84	1
114	115	1
64	74	1
154	155	1
0	19	2
73	136	3
193	196	1
171	182	1
12	13	2
9	17	2
2	13	1
42	42	2
54	114	1
51	63	3
130	130	2
78	80	5
148	152	2
60	60	2
119	119	2
12	14	1
16	17	2
166	178	1
189	190	3
128	128	3
224	233	2
37	38	2
152	188	1
131	202	3
147	152	5
6	8	3
33	36	1
166	166	5
79	143	1
38	63	2
143	151	1
11	47	2
204	208	1
179	179	2
29	30	1
80	84	2
73	73	5
20	39	2
70	154	1
128	132	2
36	59	1
223	225	1
145	145	1
12	16	1
12	22	3
44	97	1
5	8	1
152	178	1
7	7	1
33	33	1
208	209	1
98	141	3
116	117	1
127	127	2
209	210	1
212	213	1
13	16	1
105	105	1
167	171	1
32	32	2
175	200	1
164	185	1
236	237	2
155	158	1
82	83	1
79	89	1
106	107	1
20	33	1
102	103	1
33	34	1
75	77	2
101	101	2
53	59	1
20	23	1
144	147	1
106	128	1
187	188	2
193	194	1
188	204	2
50	79	1
173	173	1
75	174	1
1	17	1
128	136	2
0	17	1
39	41	1
62	63	1
8	9	1
144	144	2
154	154	1
76	84	2
168	177	1
50	51	1
188	189	1
123	126	2
71	118	2
156	156	2
81	83	1
122	129	1
190	193	1
53	53	1
6	12	1
184	188	1
8	18	1
84	85	1
188	188	1
126	131	1
