122	122	15
137	137	12
106	106	13
125	125	21
139	140	1
117	118	2
4	5	2
19	19	3
119	119	13
92	93	6
72	88	3
20	20	9
88	115	4
128	128	16
138	140	6
77	78	4
130	130	26
100	100	17
15	30	6
128	138	3
118	118	9
131	131	10
29	29	4
35	35	6
130	131	3
91	124	1
80	87	4
105	106	7
121	121	11
82	85	2
5	5	13
83	83	11
107	107	5
114	114	13
116	116	16
139	139	5
90	94	2
89	89	9
15	15	15
108	109	5
78	78	7
101	101	9
79	85	2
136	136	9
132	132	17
118	119	12
102	128	5
71	71	9
137	138	7
109	111	6
98	98	5
32	32	7
18	28	2
37	37	3
89	94	2
74	78	1
99	99	3
80	80	9
87	92	2
135	135	12
87	87	12
88	95	3
136	137	7
126	126	12
96	96	8
6	6	9
33	36	2
119	123	3
113	113	3
75	77	3
124	125	6
96	97	6
127	127	15
112	112	21
84	86	1
21	22	4
134	134	17
73	73	13
2	2	19
128	129	7
81	81	8
77	77	4
103	103	17
109	110	2
126	140	1
117	120	2
130	133	2
21	21	10
72	72	10
107	108	1
107	117	2
73	74	3
104	105	2
97	97	17
89	100	7
76	77	1
18	129	2
83	85	1
105	105	7
124	124	23
4	6	1
109	109	13
9	9	4
120	120	6
115	116	3
10	12	5
30	30	5
11	12	6
92	119	4
1	7	6
23	24	2
76	76	4
13	14	8
97	99	3
11	11	3
112	113	4
99	100	1
90	90	10
104	107	4
12	12	4
16	21	1
3	5	5
34	34	12
134	135	5
119	120	5
4	4	6
123	123	12
101	124	1
84	120	2
17	130	3
127	137	1
140	140	15
95	95	4
87	88	4
94	94	3
121	122	10
77	85	4
73	92	2
90	91	2
5	6	4
5	7	1
88	101	1
25	26	3
30	31	3
25	25	3
16	16	3
118	120	4
6	37	2
138	138	7
110	110	12
82	86	2
9	13	4
17	17	14
86	86	17
89	90	7
95	97	2
26	27	9
38	38	12
31	31	2
1	1	4
24	25	7
133	133	6
129	129	5
75	75	2
123	124	2
93	93	9
118	123	3
97	98	8
88	88	11
71	96	2
21	27	2
128	135	2
92	92	3
81	82	8
115	115	2
116	117	1
84	84	5
26	26	3
88	124	3
96	98	2
104	104	15
131	132	2
10	11	3
122	140	5
15	16	1
10	10	4
28	28	4
124	126	1
34	35	2
22	96	1
117	117	4
74	74	14
102	103	2
95	96	3
33	91	1
135	137	4
111	111	2
125	126	4
4	11	2
78	85	2
94	122	3
36	125	1
89	92	3
82	82	1
103	104	1
6	8	6
102	118	2
132	133	5
8	8	2
11	32	2
135	136	4
18	18	5
91	91	5
12	13	1
73	75	2
100	129	2
0	1	3
27	27	3
95	102	1
98	127	3
114	115	1
128	134	2
129	130	3
117	119	2
102	102	4
36	36	3
91	118	1
129	138	1
77	84	1
0	0	7
111	118	4
26	35	2
14	14	2
7	7	1
83	84	2
31	32	2
118	121	1
127	128	4
71	73	2
87	122	1
72	93	2
1	84	1
28	30	7
97	125	1
85	85	3
100	131	2
78	79	3
92	120	2
93	94	4
79	80	2
71	72	3
110	125	1
73	103	2
114	119	1
10	13	1
6	36	1
17	18	2
102	117	1
109	118	1
27	29	2
3	3	4
81	115	2
7	15	2
2	84	2
15	33	1
36	91	3
100	101	1
24	24	1
84	85	2
87	104	1
77	86	1
79	104	1
33	33	2
79	79	3
28	29	2
137	139	1
82	83	1
29	30	1
9	11	1
92	94	2
75	100	1
7	27	1
26	72	1
28	31	1
120	123	1
80	82	1
86	87	1
121	123	1
80	81	2
126	127	2
88	102	1
92	123	1
133	135	2
26	38	1
72	94	1
94	95	1
72	73	1
71	103	1
