25	26	2
132	133	3
59	79	2
2	2	2
108	110	2
9	73	2
37	38	1
114	115	4
83	83	9
108	108	8
75	75	6
86	102	1
25	29	4
64	64	22
84	84	10
48	49	8
68	68	5
20	21	10
14	14	7
66	66	15
35	35	16
58	81	4
23	24	1
79	79	11
24	25	4
49	49	1
131	131	10
26	27	5
82	83	6
64	66	1
9	9	5
10	34	2
32	32	6
16	16	5
66	68	2
33	33	12
57	57	7
13	13	7
45	45	12
22	24	2
36	36	4
5	5	18
29	48	4
30	31	2
103	104	2
80	80	6
11	11	17
74	75	6
46	47	9
50	50	5
85	120	1
109	109	6
48	48	7
11	93	5
118	118	5
91	93	3
23	23	4
112	113	1
126	127	1
11	71	3
71	71	8
19	19	4
8	71	6
74	76	2
67	67	15
78	78	3
91	92	4
37	37	8
88	101	2
68	69	4
104	116	3
95	95	6
104	104	4
8	8	10
99	100	3
74	74	10
36	44	2
65	66	5
100	100	5
89	90	2
6	8	1
47	75	2
63	63	7
69	69	6
16	32	2
120	121	2
6	25	6
47	48	7
47	47	21
20	20	4
63	64	2
17	73	1
94	120	5
62	62	10
61	61	16
44	44	5
93	93	7
119	120	3
75	76	7
72	72	25
67	68	1
99	99	4
55	55	11
0	1	5
114	116	5
40	56	1
11	13	3
65	65	11
5	27	1
25	25	9
46	48	1
12	12	3
90	90	10
93	94	4
133	134	4
89	96	2
29	30	4
97	97	1
94	94	13
81	81	11
3	3	10
4	4	5
76	76	11
129	130	2
119	123	2
17	18	1
4	29	2
97	98	2
37	59	4
29	29	17
36	37	4
101	101	6
129	129	6
11	12	4
86	86	3
15	15	7
70	70	8
46	46	7
111	111	4
77	77	9
92	92	3
27	29	2
73	80	2
34	35	5
110	110	1
42	42	4
134	134	4
100	101	4
105	105	1
58	58	6
87	120	2
124	126	1
39	39	4
102	102	6
114	129	2
17	17	9
4	5	2
31	32	6
132	132	7
105	107	2
66	67	2
56	56	8
98	98	5
32	33	9
33	37	2
10	10	6
87	88	1
5	26	6
25	75	1
26	26	10
95	115	1
6	6	4
40	59	3
4	123	3
126	126	4
85	85	10
0	0	1
12	92	1
103	103	2
38	38	3
34	34	3
3	47	3
91	97	1
38	81	3
19	57	2
7	21	1
40	40	1
86	93	3
123	124	1
125	125	2
18	83	2
115	115	7
93	99	3
61	64	2
22	22	3
73	73	9
113	113	2
43	43	5
18	31	3
27	27	7
2	3	1
6	86	1
56	58	2
115	125	1
18	18	5
125	126	2
91	91	5
58	59	1
0	65	2
96	96	1
7	7	5
4	57	2
77	78	2
25	47	1
128	133	1
15	16	2
31	31	5
83	100	3
41	41	3
45	46	2
94	95	1
24	24	1
89	92	3
46	62	1
80	109	1
130	130	2
33	34	5
21	30	2
124	124	1
64	65	3
48	95	1
84	101	1
98	125	1
112	112	5
94	96	2
80	92	1
7	51	1
133	133	3
106	106	9
116	116	7
122	122	6
89	89	1
8	83	5
23	32	1
76	83	1
44	45	1
121	121	4
1	1	1
90	92	3
30	32	1
82	82	7
63	66	1
78	79	2
77	81	1
8	27	3
59	60	1
87	87	2
109	111	2
28	29	3
91	99	1
77	102	2
8	36	2
24	34	2
34	47	1
115	116	3
81	110	1
90	91	3
18	41	1
21	21	4
69	70	2
81	82	3
5	23	1
4	20	1
85	93	1
30	30	1
45	47	2
28	66	1
7	56	1
39	83	2
59	61	1
60	60	2
22	37	4
109	110	2
107	108	2
78	82	1
12	36	3
33	66	1
119	119	1
93	124	1
8	9	1
3	99	1
9	10	3
106	107	1
10	45	1
84	87	2
85	95	1
39	80	1
22	23	2
19	29	1
80	82	1
36	60	2
45	71	2
42	43	1
19	61	1
88	98	2
4	19	3
25	32	1
87	94	1
90	98	1
34	92	1
39	40	1
28	28	2
87	91	1
45	57	1
73	74	1
44	70	1
110	111	2
88	88	2
39	60	1
120	120	1
83	89	1
23	25	1
26	49	2
59	59	2
117	118	1
90	93	1
104	105	1
61	75	1
36	39	1
132	134	1
97	111	2
20	93	1
93	95	1
128	130	1
16	60	1
79	82	1
35	71	1
10	11	1
119	124	1
