168	168	7
63	63	8
28	90	1
81	83	3
139	139	6
188	190	1
106	108	5
153	166	4
92	93	7
140	140	11
119	119	4
22	22	5
86	86	5
58	58	4
178	179	5
41	42	1
107	108	5
137	137	11
131	131	10
35	35	5
95	124	3
181	181	5
26	26	4
80	81	3
46	46	3
33	36	2
171	172	1
31	31	5
142	142	24
27	27	2
188	188	10
133	136	4
60	89	7
127	127	15
130	130	2
111	111	5
12	12	3
99	99	6
2	2	14
56	87	4
0	0	3
134	134	10
128	128	4
57	57	11
156	156	16
98	122	1
124	125	7
119	164	3
96	101	2
130	138	4
110	111	6
177	178	3
78	148	2
150	150	12
60	61	3
123	150	2
107	107	13
32	32	7
61	61	9
18	18	5
3	3	11
88	88	8
149	149	4
133	133	6
53	83	3
164	169	1
125	125	14
123	149	4
105	107	1
171	171	2
124	124	6
100	100	8
146	155	5
121	126	5
106	112	2
108	163	3
169	169	4
128	165	3
136	137	3
85	85	3
102	102	3
49	73	2
66	66	4
90	90	8
131	157	2
122	125	2
20	35	2
72	72	1
54	79	1
178	178	8
123	123	7
58	59	4
118	119	8
1	2	4
158	160	2
57	62	3
109	109	9
166	167	5
37	37	10
132	133	4
146	147	5
83	83	2
57	95	3
15	15	9
64	64	4
100	101	5
115	115	2
47	49	1
53	53	1
74	187	4
95	96	4
147	163	1
126	165	3
184	184	6
147	147	11
142	144	2
76	76	11
71	171	4
84	85	4
62	87	3
94	94	3
54	56	1
155	177	6
144	188	4
130	146	1
77	77	3
152	152	3
116	116	10
33	33	1
21	21	4
143	155	4
82	82	6
115	118	2
129	129	7
96	96	14
68	168	3
121	127	1
80	80	9
10	10	11
152	153	7
160	160	5
76	80	6
8	26	6
73	73	5
7	7	3
167	167	12
66	94	3
53	121	4
168	171	1
179	179	3
145	154	2
84	84	6
157	158	2
56	56	7
172	172	6
40	41	3
61	89	5
109	111	1
119	145	2
40	40	9
65	69	1
113	113	16
55	63	4
42	42	6
15	16	2
53	81	3
161	180	3
70	72	2
142	143	2
126	126	3
43	71	2
24	24	5
26	27	5
142	152	2
178	182	3
11	11	2
45	72	2
47	47	4
166	166	8
131	132	6
45	45	2
110	110	1
156	177	2
102	103	6
14	14	12
164	164	2
89	89	4
158	158	2
67	110	1
59	104	6
78	79	2
177	184	3
19	20	5
145	179	1
9	16	2
44	71	1
161	161	6
188	189	2
75	76	2
92	92	5
45	46	2
101	103	2
58	60	1
161	187	3
23	35	5
43	47	1
33	35	1
183	184	3
137	159	3
182	182	9
43	43	6
78	81	1
160	164	2
134	135	4
87	87	2
154	154	4
173	173	6
43	44	4
155	156	5
157	182	1
175	175	4
112	112	4
67	167	2
158	179	4
23	23	10
56	57	3
187	187	4
106	121	1
9	37	1
75	75	1
36	36	1
146	146	5
74	74	5
112	113	3
29	30	1
108	108	5
53	78	2
126	127	7
79	80	2
179	181	1
45	73	1
151	165	2
55	55	5
145	145	2
21	22	1
46	63	2
75	77	4
149	150	5
119	125	2
119	120	4
180	183	1
104	107	1
163	164	1
99	113	3
12	21	1
30	30	4
170	171	3
16	16	3
47	92	5
62	62	6
77	129	1
104	105	4
25	26	1
118	118	3
150	168	1
156	157	4
20	20	5
59	59	4
151	151	2
42	44	1
65	66	1
53	54	1
155	189	2
174	175	2
145	187	1
144	144	3
180	181	4
40	42	2
137	160	2
59	63	2
153	170	3
28	28	3
152	174	1
57	104	4
55	78	1
39	39	6
38	39	1
53	108	1
169	184	3
136	136	5
131	156	2
172	173	1
128	145	2
143	187	2
160	161	3
5	5	6
176	176	2
101	101	2
76	77	1
106	130	2
30	32	2
19	19	4
121	125	2
91	91	7
66	67	4
162	162	9
147	148	5
4	6	2
58	90	3
174	185	1
157	157	2
116	117	1
156	175	1
132	132	2
131	136	1
85	86	4
18	19	2
182	184	1
67	86	2
10	37	1
148	148	3
151	190	1
123	125	2
78	78	5
114	115	1
143	143	5
69	169	2
99	103	1
44	44	4
90	91	1
141	141	4
185	185	2
185	186	4
109	132	1
189	189	3
102	186	1
24	38	2
183	183	6
58	61	1
36	37	4
58	63	2
32	33	2
60	60	3
105	109	1
107	114	1
158	181	1
122	123	1
73	188	3
30	31	4
115	116	1
77	169	2
23	32	1
165	165	1
112	164	1
120	120	3
53	60	3
145	155	3
34	36	2
13	13	6
4	4	2
117	117	1
57	87	5
157	180	3
48	48	3
81	81	2
168	172	1
140	184	1
179	183	3
16	76	1
109	168	2
130	163	1
9	10	3
63	104	2
13	22	1
180	180	4
17	17	1
13	33	1
175	177	2
46	47	1
81	149	3
104	124	2
98	100	2
67	67	4
169	170	1
117	129	3
129	130	1
177	177	6
8	8	1
146	163	2
64	73	1
162	166	1
80	82	3
98	119	1
178	183	4
109	110	3
179	182	2
34	35	1
158	164	2
117	189	1
152	185	1
13	14	1
6	6	2
98	104	1
68	123	3
15	17	2
11	38	1
172	174	1
117	122	1
159	159	2
65	67	2
125	126	1
65	105	2
148	155	3
108	119	1
136	157	2
128	190	3
71	71	2
113	124	1
189	190	1
97	98	1
68	148	2
41	41	3
104	104	3
30	34	1
1	1	1
54	55	1
117	118	2
153	175	1
174	174	3
135	137	1
5	6	1
53	85	1
130	134	2
107	112	1
29	29	1
186	186	1
41	74	1
80	110	1
68	147	2
35	38	1
153	153	1
173	185	1
58	94	1
10	11	2
128	138	2
68	68	1
28	29	1
54	74	2
108	109	2
6	7	1
150	153	1
97	97	4
17	18	1
110	168	5
58	87	1
6	26	1
37	38	1
86	93	2
104	125	1
68	103	1
18	20	1
18	38	2
149	154	1
58	62	1
70	70	1
38	38	1
111	125	1
128	130	1
128	151	1
99	112	2
96	97	1
135	141	1
111	119	1
34	34	1
152	169	1
158	178	1
3	15	1
23	27	1
10	15	2
93	93	1
107	111	1
11	16	1
108	117	1
44	46	1
178	180	2
105	105	3
87	88	1
54	54	1
145	152	1
11	15	1
59	93	1
33	34	1
138	138	1
116	164	1
56	62	1
117	121	1
181	183	1
138	139	1
68	110	1
82	83	1
182	183	1
115	129	1
143	144	1
93	94	1
148	170	2
104	106	1
98	125	1
79	79	2
139	144	1
103	103	1
87	89	1
89	94	1
