112	112	10
39	39	6
132	132	10
143	143	3
110	110	2
113	134	1
39	147	3
141	141	7
45	45	15
61	98	1
87	89	1
154	155	3
152	152	12
22	22	13
97	98	4
131	132	6
90	92	4
64	65	1
51	51	9
90	108	3
33	33	6
141	145	5
68	69	10
55	56	3
43	47	1
104	127	3
124	124	11
86	86	7
77	77	6
36	36	8
46	47	7
116	116	11
102	102	9
67	68	2
69	147	1
128	128	17
9	9	13
67	67	3
28	30	4
110	120	1
4	77	2
131	131	12
134	134	10
35	35	2
154	154	7
155	156	1
47	50	6
20	20	8
30	30	7
103	112	1
115	131	1
83	83	6
15	15	8
39	50	3
22	39	3
26	28	2
131	133	3
97	97	7
144	144	2
79	116	3
62	62	5
113	119	4
132	137	1
20	49	1
24	24	15
126	126	12
22	23	6
79	119	4
10	16	6
34	57	5
104	104	8
33	142	1
99	99	6
8	8	6
31	48	5
22	24	7
127	127	10
124	125	5
79	156	3
38	38	3
40	44	4
3	3	4
66	66	3
96	96	6
98	98	15
136	137	9
68	68	13
13	14	9
2	3	2
125	125	6
101	101	16
48	49	4
80	80	11
37	54	2
44	44	8
87	87	9
123	124	7
2	2	6
103	104	3
37	37	8
122	123	6
141	142	3
135	152	2
12	12	8
129	129	16
135	136	5
114	114	15
104	112	2
118	118	6
138	138	9
115	116	7
108	109	2
25	25	7
106	106	14
85	117	3
28	157	4
85	113	3
68	79	6
79	79	7
113	138	3
31	31	6
21	21	18
86	90	3
41	155	2
92	92	18
148	148	7
40	40	11
79	82	2
85	88	5
115	115	8
69	109	2
93	120	3
137	137	18
88	90	1
137	138	2
11	11	20
6	6	5
34	34	4
123	123	7
104	105	4
73	73	7
150	150	4
54	54	3
158	158	9
129	151	1
130	130	10
111	112	8
4	32	1
26	26	9
81	82	10
5	5	4
33	57	2
78	78	7
9	11	2
70	70	11
82	82	11
73	74	2
117	118	3
155	155	3
97	103	3
140	140	12
28	28	1
11	16	3
73	130	1
13	18	2
49	49	3
142	142	9
113	137	1
122	122	9
1	6	2
16	17	3
89	149	2
154	156	1
46	46	10
10	15	1
69	69	3
68	147	5
108	108	5
71	71	5
17	44	2
23	23	6
16	16	11
135	135	4
107	108	2
91	91	5
83	107	3
16	53	2
80	110	1
7	8	3
97	118	5
93	125	2
91	92	6
39	41	2
84	84	3
25	26	5
38	48	2
111	111	6
114	151	2
78	112	2
64	64	4
113	117	2
146	146	2
12	15	2
38	40	2
96	118	3
106	108	2
18	20	3
130	135	4
31	33	3
67	152	1
19	19	5
8	42	1
85	86	5
132	145	4
15	143	2
7	7	13
53	53	3
12	14	2
84	86	1
31	32	3
94	95	3
50	50	2
139	139	8
155	157	4
93	97	2
156	156	4
47	47	11
19	20	7
140	141	2
32	57	1
78	79	1
66	67	1
98	99	4
130	136	3
52	54	6
36	37	3
85	85	6
57	57	3
152	154	2
14	16	3
117	119	3
132	133	2
38	49	1
96	146	3
103	103	8
17	17	6
42	42	6
52	52	8
94	94	6
8	35	2
72	72	2
0	0	1
132	136	3
21	22	2
119	119	12
123	137	3
3	17	1
122	148	3
95	95	4
82	113	1
14	14	6
86	107	1
63	63	4
77	134	4
29	29	8
38	50	2
18	40	1
128	129	8
120	121	1
83	111	4
138	149	1
157	158	3
107	107	5
40	135	1
25	33	1
34	51	2
15	16	1
37	42	1
108	111	2
6	43	2
119	120	11
148	149	3
117	117	4
20	38	1
106	110	4
146	147	2
9	42	5
15	139	1
41	41	3
27	27	6
27	28	2
146	154	1
18	19	5
104	113	2
10	155	2
48	48	4
120	122	3
13	15	3
145	146	4
2	6	2
62	85	2
105	106	2
81	151	3
55	55	7
38	141	1
133	133	8
34	36	5
32	51	4
71	152	1
109	109	9
145	145	8
85	122	2
100	100	6
114	115	5
137	149	1
80	115	1
28	35	2
135	137	2
107	113	1
137	140	6
8	52	1
43	43	9
110	111	1
78	80	2
20	21	2
76	77	1
114	139	1
129	130	4
66	146	2
90	91	1
88	88	7
69	70	1
7	45	1
14	128	3
104	131	2
57	136	1
65	65	2
106	107	3
32	32	7
92	94	1
37	132	1
95	117	2
138	150	4
151	151	5
69	71	2
136	136	4
1	1	10
83	122	2
10	32	2
23	38	3
43	44	4
131	135	2
125	126	2
71	86	2
112	131	2
13	43	1
83	84	4
37	146	2
77	125	2
137	141	4
67	147	2
23	51	2
67	91	2
22	35	2
96	119	3
152	156	1
141	144	3
0	5	2
152	153	5
72	105	3
70	147	1
89	89	3
120	120	1
10	10	3
123	127	2
157	157	2
14	141	3
104	118	1
112	134	2
74	130	1
20	40	1
103	106	1
19	31	2
32	34	1
70	82	2
39	132	3
26	55	2
4	4	2
71	120	2
85	119	5
17	19	6
53	156	2
83	85	2
63	118	1
17	49	1
28	33	2
93	93	6
85	90	1
131	142	3
118	119	2
64	102	1
147	147	2
17	18	1
92	125	1
11	36	3
79	80	2
26	97	1
30	31	2
75	75	4
105	105	1
85	87	1
70	149	1
149	149	4
69	86	1
143	144	4
148	152	2
64	104	2
108	117	1
28	29	1
128	151	3
14	17	4
77	79	3
27	56	2
3	52	1
84	85	1
34	45	1
99	100	1
114	119	1
80	153	3
37	52	1
28	142	1
117	120	3
18	18	3
31	36	1
7	43	1
10	94	1
105	147	1
134	145	2
68	118	1
23	32	1
88	89	1
39	155	1
27	46	1
96	97	1
11	12	1
38	39	4
6	45	1
8	37	1
121	121	2
71	89	1
14	45	1
116	120	2
25	39	4
109	110	3
79	91	2
13	23	1
37	38	1
4	51	2
121	123	1
67	146	1
135	144	2
11	13	1
147	152	2
44	45	2
68	70	2
104	107	1
34	39	1
18	51	1
10	18	3
131	145	1
117	151	3
87	119	1
83	86	1
92	151	1
147	154	1
113	115	3
118	128	1
141	148	1
75	116	1
102	106	2
30	44	1
6	27	2
8	43	2
68	71	1
6	42	1
9	61	1
18	32	1
138	139	4
23	24	1
81	112	1
39	53	2
50	51	3
110	118	1
52	125	2
150	151	1
30	37	1
69	106	1
33	34	1
35	36	3
113	145	1
113	113	2
29	93	1
28	56	1
136	142	1
64	148	1
81	81	1
32	49	2
93	94	2
135	141	1
91	107	1
20	48	1
18	53	1
36	54	1
17	48	3
76	76	1
34	35	1
29	30	1
18	31	1
128	149	1
23	29	1
77	126	1
18	49	2
75	94	1
71	128	1
144	145	1
28	54	1
84	112	2
80	81	1
142	143	1
87	88	1
9	36	1
19	21	1
25	133	1
56	57	1
78	107	1
102	109	1
80	91	1
48	50	1
64	99	1
95	106	1
113	151	1
118	145	1
118	152	1
