138	139	11
94	94	10
136	136	60
80	82	12
25	27	5
88	88	26
88	90	13
88	101	1
131	131	41
30	30	24
129	140	2
17	17	32
128	128	35
8	8	9
73	73	44
135	135	41
0	2	7
15	16	17
72	72	24
132	132	62
4	4	23
93	93	26
134	134	75
124	125	15
109	109	52
2	2	21
32	32	27
138	138	33
117	117	35
98	98	25
27	29	17
71	71	30
7	121	5
19	20	7
20	21	12
100	101	19
20	20	26
78	78	34
114	127	2
26	26	28
31	31	30
128	129	21
133	134	16
124	124	41
100	100	20
16	16	39
79	79	38
101	101	51
108	109	20
91	92	6
105	106	18
125	126	11
140	140	32
8	12	7
76	76	45
105	105	20
34	34	37
126	126	66
9	23	8
78	79	9
75	75	33
104	107	4
123	124	34
21	21	32
102	102	34
117	119	13
73	77	4
80	80	34
87	105	7
36	36	17
120	121	27
126	127	13
85	86	16
99	99	29
14	21	3
96	96	29
99	100	8
19	19	16
94	95	13
29	30	7
1	3	3
85	85	26
15	15	22
86	86	14
125	125	39
106	109	4
82	84	7
139	140	9
110	110	40
130	130	42
13	13	46
7	7	35
38	38	18
71	72	5
77	77	16
34	35	4
6	6	26
107	107	27
12	12	53
25	25	19
127	127	57
81	81	48
81	82	11
103	104	11
80	102	6
74	74	40
17	18	8
130	131	12
27	27	17
3	4	17
23	23	35
1	10	2
98	99	13
81	103	8
119	120	20
33	34	3
106	107	2
15	24	2
108	108	26
113	118	6
116	117	17
0	0	30
91	91	23
82	107	7
33	33	24
133	133	42
106	106	41
120	122	10
110	111	21
14	14	30
81	83	7
122	122	49
5	5	9
90	91	13
93	94	15
116	116	33
89	114	2
29	31	3
114	114	31
139	139	28
111	111	41
118	119	22
127	128	9
27	28	11
9	9	7
77	78	11
84	85	6
108	111	4
131	132	15
97	97	37
22	23	18
104	104	21
100	123	1
129	129	51
18	18	28
2	3	11
102	123	4
23	24	4
118	118	26
26	122	6
35	35	42
77	82	7
115	116	4
87	106	4
119	119	27
37	37	33
26	30	2
9	22	4
10	11	8
113	113	23
30	31	22
86	87	8
137	138	13
117	118	11
85	103	4
102	119	3
36	37	10
13	14	23
134	135	19
2	14	6
96	97	17
97	109	3
89	91	3
4	6	5
37	38	13
123	123	41
28	28	25
73	74	4
106	108	1
137	137	28
122	124	5
31	33	3
107	109	3
3	17	2
20	114	4
24	25	14
1	122	3
135	136	13
95	95	38
81	104	5
22	22	39
90	90	12
121	121	27
115	118	1
92	92	15
20	110	3
113	114	5
82	82	13
103	103	27
1	2	7
87	87	29
0	7	2
29	29	24
115	115	25
133	135	6
16	26	3
120	123	3
126	129	1
2	4	5
8	10	4
121	123	3
7	12	2
5	6	7
118	121	3
113	117	1
112	112	23
74	75	13
79	80	16
31	32	10
11	26	3
72	73	10
115	117	2
122	123	5
21	22	19
12	20	3
95	96	11
8	9	8
89	89	23
76	77	7
5	7	6
26	27	10
24	24	16
132	138	4
23	25	7
116	130	1
0	4	6
16	19	12
71	104	3
22	24	4
12	121	3
1	9	3
2	12	1
90	93	4
6	7	6
1	6	2
74	77	2
102	124	6
73	76	5
11	11	16
112	115	2
10	10	11
102	103	13
121	131	1
1	5	8
28	29	29
121	124	3
117	122	1
18	126	5
97	98	9
107	118	3
1	1	47
107	108	11
109	126	3
93	125	14
92	115	2
73	78	3
20	22	7
33	90	2
89	90	4
3	3	23
112	113	10
120	120	32
80	103	2
116	121	2
27	30	7
111	115	4
93	124	8
111	114	4
0	127	1
117	123	7
7	8	15
16	23	4
125	127	4
21	26	2
121	122	19
106	119	1
130	137	1
132	133	6
80	108	3
79	85	6
93	106	3
88	91	1
9	10	5
90	127	2
7	9	11
14	22	1
136	137	11
129	130	13
83	84	4
16	17	7
81	108	2
74	114	1
119	122	5
97	115	9
18	19	4
104	108	7
76	82	1
19	21	3
105	120	3
19	127	4
101	124	4
80	81	10
118	120	4
34	124	4
74	112	3
131	133	6
112	114	3
82	83	6
0	125	1
109	110	5
137	139	4
128	130	12
92	93	3
75	77	13
95	125	3
81	102	6
73	75	11
104	105	9
87	122	5
81	85	2
92	107	3
90	124	5
90	100	1
108	113	2
101	125	1
87	88	9
109	111	4
16	25	3
0	115	1
11	23	3
101	102	9
26	28	1
135	137	1
83	83	14
104	118	3
103	113	1
25	26	8
94	97	6
115	122	2
0	5	3
1	13	1
12	16	1
37	39	1
7	26	3
28	31	4
92	125	5
110	120	2
1	4	3
12	27	4
101	118	5
44	44	1
91	101	4
136	139	2
115	119	2
88	106	3
2	26	4
133	138	2
17	31	3
117	124	3
28	30	4
12	21	1
2	11	3
25	122	2
132	136	2
21	23	2
20	115	2
75	76	7
17	123	2
35	36	1
102	120	2
94	124	1
92	121	3
109	130	1
92	94	9
1	23	1
98	129	2
124	126	1
32	33	2
40	72	3
4	18	1
13	23	2
84	84	4
11	12	4
18	20	2
14	16	6
111	112	7
7	122	2
102	122	1
69	125	1
17	24	2
3	114	2
134	136	1
119	121	2
107	125	1
5	18	1
114	115	4
115	128	1
100	107	2
95	108	2
92	117	3
14	15	4
27	31	3
14	31	2
105	122	2
0	1	2
14	108	1
3	5	2
92	111	2
95	116	1
113	134	1
70	71	1
88	89	3
17	29	4
19	131	1
104	113	4
81	101	3
12	25	2
141	141	2
78	83	1
77	79	3
88	122	1
89	111	1
17	19	6
12	13	2
98	108	3
127	129	3
104	114	1
1	7	1
12	19	2
136	141	2
34	125	1
2	25	1
91	103	2
4	123	1
87	104	1
93	116	1
23	26	1
12	122	1
24	26	1
76	83	3
22	25	2
14	107	1
13	31	1
104	106	2
111	113	2
35	38	2
91	112	2
91	94	1
125	129	1
92	96	2
118	122	2
136	140	1
129	138	3
116	119	1
12	23	1
116	122	1
17	110	1
135	140	1
10	12	1
72	75	1
122	125	2
100	102	1
91	100	1
137	140	2
106	110	1
130	132	1
4	20	2
28	32	1
80	84	2
15	17	2
80	107	1
136	138	1
93	117	1
5	31	2
115	127	1
133	136	1
16	30	1
5	124	1
106	122	1
13	32	1
4	5	1
78	84	1
98	100	1
14	23	1
92	124	1
93	126	1
88	107	1
9	121	1
85	87	1
86	88	1
108	112	1
33	36	1
16	18	1
74	78	1
