126	127	6
36	37	2
119	120	2
18	18	5
125	125	3
35	35	13
136	136	9
72	72	12
80	80	2
132	132	12
29	31	4
73	73	3
108	127	5
137	138	2
120	122	2
133	133	10
127	127	5
100	100	7
120	120	3
8	8	4
3	3	11
99	99	3
21	26	2
71	72	3
71	114	1
24	24	3
108	109	3
86	86	9
77	77	7
111	113	2
20	93	1
114	114	2
78	122	1
135	135	13
79	79	2
90	91	3
73	74	4
131	132	4
14	14	10
22	22	4
106	113	2
1	71	2
94	94	6
116	116	8
136	137	3
36	36	13
6	20	1
126	126	7
26	26	4
139	140	2
21	22	5
0	2	4
74	74	6
1	2	3
134	134	12
84	84	4
129	129	14
93	93	8
75	75	4
91	93	3
19	19	5
9	9	9
17	20	2
129	130	3
108	122	3
117	117	5
4	4	2
4	19	2
95	101	1
34	34	4
112	112	1
112	113	6
111	111	1
88	88	2
119	119	2
130	131	8
100	101	2
117	120	2
123	123	12
93	94	8
131	134	2
140	140	8
72	105	2
2	4	3
4	5	2
109	110	2
96	96	3
112	125	2
27	27	1
137	137	3
71	71	4
103	129	2
76	76	4
30	31	1
17	18	3
92	92	3
13	14	1
132	133	2
84	85	1
33	91	5
16	18	1
110	111	2
6	6	1
133	135	4
110	112	5
2	2	2
93	101	2
110	126	2
122	122	3
74	76	1
91	91	6
20	20	2
130	130	5
124	124	5
15	15	2
15	16	6
125	126	2
131	131	10
32	32	4
101	101	6
95	95	1
128	128	2
7	13	3
121	121	3
16	16	6
12	12	1
21	21	7
81	88	1
22	23	2
105	115	1
17	21	2
25	25	2
95	96	1
128	129	2
118	118	2
91	124	1
110	110	1
125	134	1
94	124	2
20	21	1
24	25	1
85	86	2
79	80	2
7	7	1
23	23	1
102	102	2
115	120	1
76	77	1
98	139	1
85	85	3
90	92	2
37	38	2
97	98	2
81	112	2
87	87	1
138	138	2
104	105	1
121	123	1
139	139	3
135	137	1
108	128	2
31	31	1
27	28	2
81	81	1
16	17	1
105	105	2
25	26	1
109	109	2
17	22	2
118	121	1
23	25	2
120	121	2
114	115	1
97	97	2
72	73	1
124	125	1
82	83	1
98	100	1
13	13	1
19	93	1
77	107	1
5	5	1
2	88	1
78	109	1
122	123	1
106	106	1
37	37	1
126	128	1
80	105	1
