18	19	2
5	6	3
4	5	1
38	38	12
102	102	6
37	37	8
35	35	5
71	78	3
106	107	3
53	73	2
120	134	1
69	69	2
135	135	5
9	9	7
98	98	10
26	27	4
76	78	3
68	68	10
41	42	2
96	96	9
49	52	4
20	21	4
25	25	5
27	27	10
10	11	1
28	29	8
57	57	3
15	15	6
13	15	1
135	136	2
39	39	4
33	33	8
19	19	18
59	60	6
49	49	2
55	60	5
141	144	3
36	36	8
26	26	12
64	64	3
71	71	4
122	122	10
40	40	8
28	28	8
111	114	3
22	24	3
108	108	2
21	26	5
54	55	3
8	8	2
22	22	12
137	138	7
129	129	10
59	59	2
90	92	1
78	78	1
136	139	2
6	11	2
103	103	8
35	36	6
105	105	9
42	81	3
126	126	5
137	137	7
3	4	3
29	29	9
142	143	2
94	94	3
52	55	1
2	2	12
89	90	3
52	52	10
126	127	5
93	93	5
52	53	3
99	99	7
6	10	1
27	28	3
87	88	2
143	144	10
86	86	2
96	100	3
20	25	3
57	58	1
91	91	1
92	93	6
141	141	9
41	41	15
58	58	4
57	82	1
73	73	7
74	76	1
117	117	2
37	40	2
23	23	7
97	98	4
111	130	2
4	4	4
74	74	8
131	131	12
103	104	3
104	104	4
139	139	18
17	29	2
89	113	1
124	124	6
101	101	11
64	66	2
144	144	3
24	25	1
132	132	10
60	60	4
122	141	1
67	67	7
81	81	7
118	118	10
90	90	4
122	134	2
34	36	4
71	72	2
100	100	7
83	83	4
38	39	2
133	133	9
69	70	2
121	122	2
34	35	3
18	22	1
140	140	5
3	3	2
116	118	1
88	113	5
102	126	1
62	62	3
116	116	2
111	111	3
32	39	1
119	119	4
6	42	2
36	72	1
62	63	3
85	85	3
128	128	3
0	0	4
8	9	2
97	97	2
64	70	1
1	4	1
102	120	2
89	89	6
103	125	2
0	1	2
145	145	3
66	66	6
80	80	2
113	113	2
138	138	7
2	71	2
31	31	7
124	125	3
42	42	8
10	75	3
20	20	2
10	10	7
95	95	6
105	109	1
130	131	3
72	72	7
78	80	4
102	123	1
134	134	7
125	125	3
106	106	4
72	74	1
64	71	4
121	124	2
88	89	1
50	50	2
88	88	2
123	123	2
82	83	1
112	112	2
67	69	2
48	48	5
18	18	5
33	39	2
143	143	4
49	50	3
78	79	3
95	96	2
8	11	1
104	105	2
56	57	2
31	33	2
65	65	4
30	31	2
133	134	1
77	79	2
63	63	3
79	79	6
99	100	2
59	61	3
87	87	3
10	76	3
96	98	3
42	43	3
51	52	5
136	137	8
68	72	1
17	17	6
110	110	2
139	140	5
50	51	1
100	113	1
33	52	2
66	67	4
21	21	6
90	94	2
66	69	1
60	61	3
48	49	1
96	99	1
14	14	3
26	128	1
135	137	1
6	6	6
109	112	4
127	128	1
2	6	4
33	42	3
4	6	1
121	121	1
43	43	2
12	32	1
5	5	2
94	95	4
71	108	1
70	70	2
37	80	3
62	64	1
14	47	1
100	134	3
40	41	1
125	134	1
30	30	2
2	20	1
77	78	2
13	16	2
111	113	1
58	59	3
135	139	1
130	133	2
111	118	3
110	113	2
119	122	2
122	123	2
53	53	3
124	134	1
39	40	2
25	26	2
118	120	1
37	38	2
21	24	1
56	56	2
77	77	3
142	142	4
103	124	2
100	112	2
11	11	3
37	41	1
32	32	2
92	92	5
70	71	2
31	32	2
18	27	1
17	18	2
75	76	1
68	119	1
144	145	2
129	130	2
33	34	4
130	130	2
84	86	1
64	65	1
114	120	1
35	37	3
110	128	1
61	61	1
76	77	2
22	23	1
37	78	1
102	103	1
75	75	2
84	84	1
97	99	3
141	142	1
120	121	2
109	118	1
65	69	1
131	134	2
86	87	1
42	48	1
136	138	1
128	131	1
104	120	1
32	33	2
73	75	2
36	50	1
15	16	1
123	124	1
134	135	1
28	30	1
2	4	1
132	133	1
84	85	1
126	144	2
109	110	1
20	26	1
146	146	1
55	55	3
138	142	1
43	52	1
91	110	1
135	140	1
115	131	1
92	129	1
92	94	1
136	136	1
138	139	1
14	15	1
33	37	1
51	51	1
112	130	1
3	5	1
106	109	1
95	115	1
68	115	1
94	96	1
40	42	1
6	8	1
80	81	1
1	1	1
128	129	1
111	112	1
109	114	1
