9	10	5
155	156	3
113	113	1
189	189	5
152	152	9
142	142	6
55	55	5
12	14	1
61	61	4
32	117	4
92	92	10
137	137	3
110	110	9
70	72	3
180	181	4
80	80	4
186	186	1
72	72	8
67	77	1
105	105	5
176	176	2
87	88	1
70	107	11
36	36	5
3	3	4
146	146	17
29	29	10
146	179	1
52	55	1
76	76	9
24	90	1
123	123	2
138	138	9
57	58	1
37	45	2
128	134	6
68	78	1
33	91	1
19	19	6
155	155	4
83	103	5
143	175	3
77	77	9
31	91	3
131	132	2
125	125	7
8	40	6
33	42	4
81	82	1
8	8	3
66	66	3
87	89	2
188	188	4
64	64	4
90	173	5
149	149	2
150	150	7
40	41	2
74	74	7
95	104	3
5	5	7
2	110	1
72	106	3
123	124	2
134	134	13
40	40	22
93	94	4
41	115	4
62	72	1
2	2	5
86	86	14
75	75	2
184	184	4
102	103	4
27	27	12
79	133	2
45	47	3
14	14	9
41	41	9
106	141	3
21	60	4
83	83	5
39	39	8
154	154	3
182	183	4
101	154	2
181	188	1
81	81	6
148	148	2
56	56	1
39	41	2
119	119	6
42	48	1
71	114	1
82	105	2
135	138	3
175	176	3
11	12	4
139	139	11
63	63	2
19	43	3
17	44	4
183	187	2
1	1	4
179	179	9
124	143	4
65	67	4
76	152	3
140	140	6
131	131	6
57	61	1
114	114	6
112	112	4
62	65	4
10	23	4
156	156	8
122	134	3
157	158	5
12	12	6
47	47	4
88	88	9
28	31	3
104	104	9
174	174	2
60	60	2
144	154	4
15	15	4
34	35	3
26	170	1
32	33	5
188	189	1
166	166	2
17	17	7
98	98	7
150	156	6
23	23	5
148	157	3
118	119	2
71	177	2
18	18	9
95	95	8
91	91	8
79	79	6
77	83	3
142	143	4
41	177	3
182	188	2
126	140	2
89	89	5
189	190	5
56	66	6
35	35	5
99	99	6
134	136	1
12	24	4
66	112	1
26	26	8
7	7	9
12	111	4
137	138	11
136	137	2
90	91	2
43	46	4
88	114	1
151	151	7
150	158	2
100	100	7
101	101	3
136	136	6
129	129	5
153	153	7
76	77	2
38	84	1
5	36	1
84	84	2
63	64	4
115	115	7
33	35	5
20	20	7
16	129	3
13	13	2
148	178	2
3	7	5
31	31	4
89	95	1
94	137	4
91	92	2
134	137	3
159	159	3
124	140	2
95	118	7
42	42	3
182	182	8
73	73	1
16	39	3
185	186	1
108	108	3
178	178	1
52	62	1
13	14	2
122	122	3
94	94	4
162	163	6
4	4	7
87	120	3
90	170	4
125	143	3
71	76	2
33	33	7
103	103	4
27	54	2
0	48	3
127	127	7
92	94	2
27	29	4
120	120	6
85	85	1
78	81	3
78	78	9
82	82	8
116	116	1
101	102	3
171	171	1
143	143	2
142	152	2
144	147	2
47	64	2
71	116	3
16	86	4
146	147	2
130	130	2
16	16	5
92	138	1
107	107	3
24	93	1
24	88	1
11	11	8
131	133	1
75	77	1
16	85	2
33	34	2
41	47	2
5	37	1
59	59	5
125	127	1
84	105	4
17	45	1
102	122	1
108	109	2
43	47	4
69	69	3
27	170	2
58	64	2
67	67	1
21	36	2
190	190	2
168	185	3
24	25	4
165	165	7
132	133	3
88	120	1
102	102	2
72	74	1
100	134	1
46	139	1
59	61	3
71	112	2
46	46	1
117	117	1
11	27	2
53	55	2
93	122	2
25	25	9
90	90	2
139	165	3
97	97	2
150	154	1
145	145	2
31	92	4
126	126	3
40	110	1
15	18	2
102	125	2
130	154	2
155	157	2
101	120	5
126	139	1
170	171	1
170	170	1
9	9	3
55	98	3
170	173	2
87	87	1
61	62	3
156	157	2
10	11	3
58	60	1
41	144	1
116	118	4
14	15	4
135	136	1
170	182	1
77	152	3
69	72	1
58	59	3
28	28	1
107	108	3
158	159	1
70	70	4
171	178	2
4	5	2
118	118	5
161	162	2
164	165	1
54	54	1
176	177	3
21	88	1
136	138	3
41	42	8
8	39	1
20	21	1
53	53	1
17	18	3
104	115	3
183	183	2
34	34	1
66	67	4
58	58	3
114	115	3
158	158	4
161	161	3
135	151	1
169	185	1
157	157	3
98	155	1
23	24	1
92	93	1
109	110	3
137	162	2
44	44	2
22	22	4
156	161	1
11	56	3
140	176	1
163	163	2
149	156	1
52	52	6
22	58	1
97	123	1
32	35	1
121	122	1
35	107	2
37	109	1
175	184	1
54	57	1
30	30	1
39	144	1
79	129	1
141	141	1
186	187	1
13	63	2
96	98	1
43	43	2
34	37	1
84	85	1
187	187	1
68	68	2
136	150	1
147	147	2
175	175	2
34	93	1
25	30	1
119	141	1
174	175	1
91	93	1
22	23	2
31	32	2
169	170	6
12	13	1
99	100	1
45	45	1
149	150	2
114	120	1
85	89	1
112	116	2
160	160	4
130	131	1
85	103	1
128	128	1
35	53	1
144	144	2
184	185	2
84	109	1
97	98	1
90	156	2
110	111	1
171	180	1
25	170	1
55	97	1
158	162	1
59	63	1
109	109	1
16	17	1
145	180	1
95	96	1
67	126	1
68	124	1
38	71	1
76	100	1
177	177	1
124	124	1
88	89	1
162	162	1
65	65	1
102	120	1
76	116	1
8	10	1
84	98	1
59	65	1
97	155	1
104	123	1
94	95	1
15	78	1
57	57	1
69	70	1
15	87	1
