47	47	9
201	201	7
183	184	3
11	11	3
184	184	9
180	180	3
210	214	5
54	54	8
167	167	9
197	200	5
56	62	5
59	59	1
234	237	2
6	6	12
23	23	8
174	174	6
194	195	4
112	112	3
2	2	2
38	39	4
40	40	12
238	238	8
222	222	4
200	234	1
237	237	2
111	111	7
173	173	4
166	166	5
48	70	2
210	210	2
87	87	7
42	43	2
33	35	2
45	45	6
28	28	7
164	164	5
119	119	2
202	203	4
37	37	7
8	18	1
147	147	9
37	40	1
181	181	5
68	69	4
166	222	1
115	115	10
214	217	2
91	91	7
212	212	6
37	39	3
8	203	3
6	7	1
41	41	6
171	172	1
56	56	7
117	117	5
89	90	3
175	176	3
230	230	4
47	48	3
201	234	2
65	65	8
151	151	14
20	20	1
223	225	1
24	24	10
159	159	3
213	213	9
92	92	6
211	211	7
187	195	6
16	16	4
204	205	4
29	45	3
235	235	6
26	26	9
27	44	3
30	210	1
58	60	1
49	49	2
51	99	4
198	199	2
61	62	5
4	5	8
93	93	4
48	48	12
244	244	5
87	90	1
156	156	5
17	189	4
190	196	3
118	118	2
38	38	5
68	68	8
110	110	8
8	44	3
243	243	2
28	29	1
36	36	4
64	64	8
77	78	6
186	186	2
31	31	10
101	101	8
69	69	4
3	3	3
33	33	12
172	173	3
161	161	3
92	93	7
49	50	2
204	204	13
31	33	1
99	103	1
199	199	2
249	249	3
236	237	8
116	116	4
82	82	3
151	152	3
169	169	5
212	213	1
40	41	1
98	109	2
28	48	4
22	24	2
16	25	7
30	225	1
207	207	11
217	217	1
34	34	5
64	66	1
241	244	4
182	182	7
152	152	2
85	85	4
222	225	3
19	19	8
215	215	1
95	95	4
178	214	2
99	99	8
29	29	5
79	84	2
163	164	2
57	57	3
52	55	2
215	222	1
55	56	2
31	32	2
233	234	2
203	222	1
168	169	5
168	172	3
17	18	4
112	114	3
194	194	3
44	44	2
185	186	3
242	242	4
92	175	2
106	108	5
245	245	9
168	168	10
42	44	1
205	205	7
241	241	1
247	247	2
65	66	2
48	49	3
155	155	4
181	196	1
234	242	1
25	25	6
232	232	3
55	55	15
162	162	9
96	108	2
12	12	7
194	208	1
30	30	3
20	21	1
10	10	5
205	223	2
52	52	2
214	215	3
189	189	8
39	39	6
144	207	5
90	90	6
69	75	3
220	223	6
86	86	5
34	62	1
22	22	4
81	82	3
46	46	3
173	175	5
173	174	3
160	163	1
246	248	2
216	217	5
167	168	10
156	159	4
232	233	4
179	180	3
75	104	1
9	9	3
175	178	1
62	62	5
227	228	3
154	172	2
88	88	5
205	226	3
218	218	1
152	172	3
2	17	4
160	161	3
42	42	5
70	70	3
72	90	1
206	207	5
54	55	1
214	214	8
25	27	2
71	71	4
172	172	6
16	17	2
60	61	5
175	175	2
165	166	6
202	202	8
231	234	1
26	29	1
178	178	3
145	145	2
72	73	1
98	98	1
197	197	3
242	243	1
3	6	2
27	27	3
219	222	1
206	206	4
234	235	8
32	33	1
15	31	2
97	97	1
53	53	2
203	203	11
191	191	6
64	73	1
34	72	1
15	15	1
69	224	2
64	65	1
110	157	3
146	147	1
45	46	6
176	177	4
65	67	2
8	8	6
26	27	1
75	75	4
202	204	3
228	228	3
246	246	1
21	21	4
45	147	2
113	113	1
76	76	7
227	227	2
106	106	2
25	26	3
183	183	4
7	9	2
21	22	1
46	212	3
213	214	2
224	225	3
157	157	5
77	81	1
108	108	2
170	203	1
17	17	1
50	234	3
216	216	2
179	192	3
180	183	1
201	204	1
57	91	3
209	209	4
4	14	3
210	212	1
66	67	2
155	172	1
179	182	1
66	66	6
94	94	4
1	6	1
208	209	3
12	14	1
5	5	3
197	211	2
32	32	1
74	75	1
208	208	2
193	194	1
2	33	1
170	170	2
210	211	3
201	221	1
206	230	1
195	195	1
209	210	4
18	19	1
194	199	2
46	47	2
44	45	3
79	80	1
233	233	1
114	115	1
171	171	2
1	1	2
8	234	4
193	216	1
25	113	1
35	35	2
198	198	1
61	61	2
9	10	1
33	39	2
47	51	1
0	188	1
51	51	7
31	35	2
15	167	1
116	243	5
22	25	2
178	182	1
56	58	3
178	179	1
188	194	1
94	95	2
116	119	1
23	24	3
200	201	2
43	44	2
114	114	1
231	232	1
22	23	2
154	154	1
150	150	6
96	99	1
78	78	2
165	165	1
229	229	1
196	196	2
107	108	1
233	235	2
177	177	3
5	241	1
240	243	1
158	159	1
62	63	2
226	227	2
115	116	1
58	59	1
181	182	2
35	36	1
89	89	2
224	240	2
35	37	1
199	210	2
26	28	1
197	226	4
153	153	1
228	229	1
200	223	1
7	7	2
71	73	1
94	110	1
90	91	1
99	108	2
29	33	1
36	37	1
14	14	1
243	244	1
149	149	1
238	240	2
225	235	1
241	247	2
194	196	1
176	176	3
39	40	1
8	9	1
100	100	1
243	246	3
97	98	1
109	109	4
66	79	1
171	173	1
200	200	3
5	36	1
163	166	1
53	112	2
93	115	1
184	185	1
111	112	2
187	188	1
84	84	1
193	199	1
178	180	1
234	234	1
57	58	1
151	153	1
201	205	1
213	217	2
187	191	1
17	145	1
179	179	1
201	202	1
172	179	1
5	6	1
111	243	2
84	88	1
172	207	1
63	69	1
161	165	2
102	102	1
225	225	1
193	193	1
187	187	1
87	88	1
65	69	1
78	153	1
169	171	1
5	20	1
179	181	1
239	239	1
177	178	1
74	76	1
205	207	1
107	241	1
65	110	1
225	242	1
205	212	1
43	43	1
240	241	1
91	92	1
