128	128	17
32	33	13
91	91	28
50	50	15
90	90	21
138	140	5
167	167	22
16	34	1
111	112	6
126	128	4
63	63	20
15	16	7
9	31	5
152	154	6
157	159	5
41	42	6
154	154	29
125	131	5
53	55	4
170	170	11
36	37	13
172	173	7
178	178	9
83	83	14
64	65	7
21	21	14
7	10	5
34	37	1
130	131	11
112	112	19
52	52	9
57	57	12
171	172	9
9	11	4
143	143	14
133	148	6
0	1	8
17	17	39
5	5	6
108	109	11
10	10	25
92	92	9
54	54	16
12	37	3
156	164	5
64	64	6
71	71	18
126	126	25
40	43	2
134	135	7
5	30	7
156	157	6
31	68	1
19	19	13
61	62	8
150	150	14
37	37	27
178	179	3
98	98	16
142	150	1
6	6	30
38	68	2
25	28	6
55	55	30
87	87	12
1	1	13
43	43	16
79	79	21
99	100	8
43	44	21
89	89	19
72	72	17
33	33	21
11	11	9
27	27	21
33	34	4
57	60	15
168	169	4
25	25	13
88	91	2
15	15	37
13	37	3
4	4	6
122	123	4
162	162	10
6	8	3
147	148	6
65	72	4
136	136	16
172	172	18
168	168	18
117	118	6
126	144	5
31	31	35
89	114	3
63	79	3
164	165	5
163	163	22
121	122	14
107	107	28
59	59	19
35	36	12
127	133	2
53	71	2
52	53	8
37	40	1
14	45	3
70	70	2
138	138	20
107	109	8
5	7	4
137	176	2
56	60	2
61	61	17
158	158	22
7	8	12
18	26	4
112	115	1
171	171	24
67	68	5
54	55	5
103	103	15
124	154	4
138	139	8
93	93	22
16	16	17
131	131	13
123	123	9
11	14	4
16	30	2
147	147	24
101	102	4
40	41	16
74	74	23
143	144	13
113	113	10
123	128	7
45	45	11
102	139	1
60	60	21
13	13	29
8	32	2
40	42	5
76	76	20
80	80	14
33	35	10
22	34	3
128	129	3
161	161	18
162	164	5
84	84	5
24	24	17
9	9	46
14	14	20
132	137	1
22	25	4
160	160	23
95	95	9
68	68	7
167	168	7
163	164	10
141	141	25
169	169	14
103	107	1
179	179	15
102	102	19
84	85	5
15	36	4
97	97	15
155	155	4
22	22	28
37	43	6
56	69	1
127	127	21
17	18	11
39	39	11
78	79	7
173	173	22
35	35	24
26	26	11
44	44	28
12	13	14
13	42	2
153	153	16
63	65	5
114	115	6
18	18	34
127	128	5
130	132	2
138	149	5
22	31	8
153	154	11
100	100	8
67	67	27
164	169	9
42	51	3
149	149	10
121	121	6
103	141	2
68	70	2
67	167	4
73	73	16
173	174	7
42	42	17
87	88	1
76	77	10
90	91	22
166	166	9
118	123	2
95	112	2
104	104	10
164	164	3
32	36	6
95	96	9
83	84	8
62	63	4
62	67	1
1	2	3
105	105	11
139	139	12
175	175	15
93	94	13
17	21	4
134	134	25
150	152	5
71	72	12
177	178	11
14	159	3
20	28	4
117	123	3
55	57	4
91	107	2
40	40	29
59	60	12
81	82	6
119	121	5
137	137	15
13	16	3
0	0	25
71	81	4
90	93	4
3	44	1
10	11	3
36	36	19
176	176	12
40	65	3
146	146	13
82	82	13
159	159	11
159	160	4
157	157	15
51	170	2
50	51	2
75	75	13
134	139	5
11	12	16
146	147	12
97	100	2
81	86	4
145	145	7
119	119	19
141	142	3
79	81	1
149	171	1
62	62	31
73	75	1
30	30	14
81	85	2
86	86	10
29	29	19
18	20	2
124	124	13
101	103	4
65	66	11
65	65	16
19	21	1
140	141	12
121	167	2
135	135	5
151	151	10
148	148	20
130	130	16
119	120	2
13	14	15
72	81	4
154	155	8
118	118	11
94	137	3
129	130	5
135	150	5
51	51	13
41	41	10
140	140	20
117	117	7
77	77	9
122	122	13
132	135	3
74	92	3
125	125	20
134	137	9
42	44	2
8	9	5
158	161	5
9	10	18
12	12	30
18	19	2
56	57	7
56	56	19
88	88	7
38	38	15
37	38	13
158	159	13
108	108	11
71	103	2
38	40	2
10	44	3
2	2	9
169	174	3
112	114	12
64	79	4
57	58	5
6	43	1
28	30	6
90	108	5
91	95	2
133	133	16
162	163	9
163	165	7
111	131	3
122	125	2
149	172	5
37	39	2
101	101	14
31	39	2
145	168	2
99	114	3
83	127	6
66	66	8
59	71	6
55	56	12
131	132	7
42	43	17
170	171	7
179	180	4
57	71	4
85	85	9
4	31	3
21	26	9
115	115	30
95	124	3
60	61	6
74	75	4
81	81	10
121	163	2
8	8	23
94	102	2
6	7	9
114	131	2
20	20	6
157	166	1
64	112	4
53	54	4
39	40	15
78	78	15
87	95	3
29	31	1
148	150	4
124	130	1
103	104	10
28	31	1
60	62	6
139	176	2
30	31	6
7	7	14
21	29	1
6	20	5
129	129	4
41	45	1
58	136	5
157	158	8
32	34	8
111	111	14
145	146	10
65	112	3
60	72	8
109	109	13
122	133	1
102	122	2
96	96	25
154	157	2
7	44	2
79	82	2
132	174	2
126	159	1
140	148	2
42	45	3
76	92	1
143	146	5
160	161	2
32	32	19
24	25	3
149	150	3
96	98	2
109	115	2
18	21	1
110	111	6
38	94	2
176	178	3
28	28	9
139	149	5
53	59	3
13	40	4
82	129	1
16	17	9
80	81	7
98	99	7
25	26	7
13	41	2
126	127	8
34	34	6
107	108	4
14	135	3
136	151	6
166	167	7
15	136	2
135	136	6
120	122	5
2	40	5
83	107	5
102	109	5
106	106	10
165	166	4
153	155	2
159	172	6
156	166	3
42	49	2
142	142	11
94	94	20
110	116	1
14	15	6
175	176	7
70	71	2
176	177	2
29	30	5
13	43	1
79	80	5
39	42	3
28	29	10
23	24	11
115	117	4
16	18	6
78	80	3
66	168	1
134	138	1
143	149	1
120	125	2
122	134	5
135	148	1
93	107	3
152	152	8
145	148	1
51	62	2
26	28	4
77	92	10
22	23	12
50	52	4
100	102	1
152	153	3
99	99	6
52	58	1
102	114	1
10	17	2
3	42	1
7	31	2
102	112	4
49	52	3
12	20	2
4	5	10
100	131	3
14	137	1
19	25	2
7	9	7
57	59	9
68	76	2
15	159	2
150	157	3
123	124	7
23	23	14
75	76	9
27	28	10
116	117	4
49	50	3
102	131	1
82	83	4
16	23	2
136	137	5
131	133	5
1	16	2
124	125	7
3	9	1
90	107	3
44	45	2
115	130	1
61	77	2
67	168	1
90	100	3
96	142	2
128	147	1
41	43	3
132	132	13
124	131	3
52	54	1
90	111	1
89	113	4
43	51	1
137	139	1
67	70	1
49	51	1
83	101	2
53	53	2
106	107	4
151	152	1
180	180	4
41	49	1
118	122	6
141	174	1
38	111	1
74	77	6
130	152	1
87	89	7
86	87	4
11	17	6
84	90	2
156	156	9
103	173	1
2	3	1
73	74	9
22	29	1
161	162	7
67	174	2
81	83	1
66	71	2
148	149	3
3	3	12
91	93	1
58	58	4
61	72	2
100	101	10
80	97	4
4	9	1
19	20	3
177	177	11
95	123	2
92	93	3
120	126	1
64	66	2
102	132	1
90	95	1
66	141	1
134	172	1
154	156	2
136	140	4
14	36	3
11	13	4
45	50	1
142	146	3
135	151	3
45	46	1
132	133	4
136	147	1
137	138	6
56	64	1
92	102	1
56	73	4
9	34	1
144	144	5
118	119	5
174	174	5
12	14	2
86	111	2
96	110	1
165	165	6
125	128	2
97	98	2
105	115	2
22	35	2
52	73	1
89	108	3
66	67	1
96	144	2
101	127	4
78	88	1
158	160	1
68	168	1
102	107	2
78	107	1
120	120	4
3	4	5
130	153	2
166	169	1
125	130	2
139	140	1
82	84	3
133	136	4
8	20	1
136	150	1
105	106	3
124	126	1
84	131	2
32	40	1
172	175	1
113	114	4
140	142	1
82	131	1
139	171	2
15	28	4
168	170	1
163	169	2
14	16	4
15	156	1
125	126	5
93	101	1
10	14	1
0	10	2
55	58	1
108	110	2
127	145	3
2	6	1
135	149	1
63	112	1
89	110	2
35	40	1
114	114	5
7	11	3
89	90	2
119	123	3
121	179	2
150	173	1
39	41	1
165	170	3
58	71	2
99	103	1
111	114	4
80	105	2
134	136	4
66	68	1
21	22	3
98	102	1
68	73	2
54	70	1
6	9	1
24	30	2
146	153	1
130	139	1
88	112	1
127	146	1
108	114	2
71	80	4
38	39	2
81	89	1
61	73	1
34	50	1
61	71	1
83	87	3
98	104	2
156	160	2
20	21	1
127	129	1
137	149	2
174	175	3
7	32	1
133	167	2
146	150	1
59	61	2
164	170	1
128	131	2
5	6	3
124	148	2
46	105	1
111	113	1
77	88	2
150	153	2
10	12	3
104	114	3
163	166	3
122	174	2
121	151	1
17	20	1
17	31	1
142	143	5
5	9	1
58	105	2
144	146	2
14	139	1
24	26	2
66	102	1
6	10	1
74	78	1
95	125	1
141	175	1
137	140	1
133	134	1
6	32	2
5	10	2
60	68	1
125	147	1
150	174	1
55	72	2
10	32	1
168	171	1
2	44	4
14	136	1
131	146	2
121	125	2
13	44	2
95	106	2
41	67	2
31	32	3
44	149	1
16	31	1
9	12	1
78	87	1
109	114	1
108	112	2
169	170	1
98	106	1
25	30	1
15	44	1
96	106	1
96	109	1
21	28	1
57	68	1
15	158	1
131	153	1
87	112	1
130	147	1
143	168	1
113	119	1
119	126	1
43	45	1
43	96	1
112	113	1
125	159	1
44	64	2
41	50	1
33	173	1
146	151	1
31	33	1
157	164	1
44	96	2
161	178	2
18	28	1
11	15	1
126	147	1
96	132	1
72	73	1
22	24	1
5	31	1
144	168	1
101	126	1
42	46	1
134	150	1
173	175	1
144	147	1
118	159	1
