80	80	2
91	91	2
146	146	3
65	173	4
188	188	5
102	103	1
23	23	12
110	111	1
72	72	3
18	177	1
147	153	2
178	178	13
24	24	8
197	200	3
170	170	20
32	32	11
247	247	13
204	204	14
150	150	9
207	207	4
102	102	3
198	198	5
165	171	1
230	230	8
225	225	10
35	35	1
224	224	3
33	33	10
39	39	6
232	232	6
189	189	4
41	245	3
186	187	2
46	46	8
163	163	3
206	206	5
209	209	7
32	33	5
43	43	11
237	237	3
227	229	7
34	34	11
88	89	6
226	226	4
221	222	7
235	235	5
34	37	1
205	208	2
241	242	8
15	15	9
41	41	2
4	173	2
87	88	4
69	71	1
175	175	10
242	244	3
174	178	2
15	35	3
189	190	4
216	216	9
37	38	4
161	161	2
210	210	3
8	231	1
81	81	3
168	168	5
178	179	3
238	238	2
219	219	9
86	88	3
182	198	5
14	14	11
185	185	5
153	153	8
209	214	2
52	52	8
116	116	5
182	182	11
27	27	4
172	173	2
184	184	7
40	40	7
50	51	5
10	46	1
97	98	7
73	74	1
199	199	11
181	181	10
108	162	2
9	9	4
166	166	9
155	155	12
185	200	2
159	160	6
182	205	3
239	239	10
7	7	1
180	180	12
28	28	4
16	16	7
166	196	1
99	99	9
110	110	7
31	212	3
213	239	3
93	93	2
176	176	2
164	167	4
244	244	9
48	48	7
82	83	4
173	174	1
193	194	9
192	192	7
44	44	7
25	25	8
208	236	2
214	214	7
215	217	3
48	50	1
155	156	1
194	194	5
18	18	3
187	187	7
191	192	2
179	222	3
229	229	4
14	15	4
196	198	3
197	198	3
10	231	2
187	189	9
241	241	7
76	77	1
47	164	6
242	243	4
177	178	2
114	114	3
37	37	6
78	79	9
78	78	2
80	81	1
245	245	12
95	95	7
50	50	7
186	186	4
218	218	4
89	89	2
6	6	3
77	78	5
5	5	5
106	108	2
68	68	1
99	100	7
22	22	1
109	110	1
77	77	3
233	234	2
166	171	1
212	214	1
228	231	1
177	216	3
171	171	4
26	27	6
118	118	2
59	59	2
70	71	3
70	70	6
47	47	6
86	87	1
211	211	4
162	162	11
171	172	4
160	160	10
213	246	1
202	234	6
20	20	4
11	11	5
111	111	2
167	167	5
202	203	2
8	8	5
86	86	2
57	60	1
6	7	5
164	183	2
32	212	6
173	230	1
159	159	1
210	211	10
222	222	3
112	112	2
38	38	1
224	225	3
190	191	3
169	169	5
208	248	2
2	228	2
158	158	8
212	212	5
101	101	2
30	38	2
158	160	2
2	2	7
31	31	6
179	179	4
187	192	1
104	104	1
185	186	5
13	245	2
21	21	6
217	217	6
162	163	9
30	39	1
220	220	1
119	119	4
88	88	2
118	119	3
183	202	1
191	191	7
4	6	2
17	17	3
82	82	8
201	201	8
193	195	8
181	205	3
245	246	2
23	28	1
71	71	3
61	61	1
165	166	3
33	41	2
246	247	3
105	105	4
237	238	5
175	176	5
182	219	2
17	175	4
69	70	1
177	181	1
246	246	3
109	109	2
161	162	3
15	16	2
223	234	1
8	207	3
240	241	1
171	173	4
157	165	2
194	195	1
24	164	4
1	40	1
164	164	2
196	201	3
215	215	2
107	107	1
202	226	3
183	194	2
29	31	3
165	165	4
248	248	1
54	54	3
57	58	3
95	152	1
200	205	1
41	43	1
79	79	5
56	57	3
80	82	4
4	4	4
24	156	3
67	67	2
177	177	2
75	75	1
203	203	3
76	76	3
213	213	3
30	30	4
37	189	1
85	85	6
187	188	1
203	204	4
173	225	2
188	190	2
43	44	1
146	147	3
160	163	1
235	245	6
233	233	2
231	231	2
222	223	2
65	65	1
222	224	2
83	83	2
159	161	4
60	60	3
96	96	4
157	157	2
111	112	2
55	56	2
200	212	3
221	221	2
174	179	3
66	71	1
165	192	1
183	183	4
154	154	4
117	118	2
216	217	1
85	86	1
98	99	3
204	205	1
106	118	1
100	110	2
178	181	1
64	94	4
156	156	8
217	237	4
48	49	2
83	94	1
81	85	3
225	236	1
31	32	3
33	36	1
103	103	2
96	98	4
189	198	1
205	205	10
175	177	2
36	37	3
61	62	2
208	213	3
119	162	2
107	118	1
180	181	2
113	113	5
211	212	3
49	49	2
5	6	1
115	115	2
55	55	1
170	171	2
218	219	2
95	96	2
68	244	1
72	77	1
194	210	3
210	214	2
158	163	1
42	42	4
17	176	3
27	31	2
17	20	1
106	106	3
100	106	1
236	236	2
228	228	1
164	182	3
179	180	1
229	230	3
36	36	3
215	218	3
152	152	3
74	74	2
115	116	2
175	178	3
58	175	2
16	77	5
65	71	1
92	93	2
186	225	1
66	173	2
18	19	1
48	54	1
94	94	1
201	206	1
221	228	1
190	190	3
44	45	1
202	202	2
71	75	3
47	48	1
223	224	1
26	26	2
61	63	1
196	197	1
163	165	1
94	95	1
227	227	1
114	147	1
174	174	1
151	151	1
225	226	1
113	114	1
13	14	2
64	65	1
243	244	1
183	220	1
234	234	1
208	208	1
181	182	1
151	225	3
8	234	1
35	37	1
12	12	1
6	36	1
23	29	1
65	66	1
115	144	1
240	240	1
40	182	1
81	83	2
172	172	1
196	196	2
120	120	1
199	209	2
205	206	1
206	212	1
192	194	1
193	193	2
96	107	1
210	239	1
157	159	1
58	58	1
163	164	2
76	78	1
9	156	1
173	173	1
149	149	1
57	175	1
117	151	1
73	73	1
170	191	1
55	58	1
28	42	1
244	245	1
92	167	1
200	200	2
62	62	1
59	60	1
