94	94	3
19	19	3
3	4	4
35	35	5
147	147	11
40	40	5
119	119	5
122	122	6
52	52	11
40	137	1
192	193	4
19	22	1
64	65	5
124	124	2
133	133	8
53	188	8
182	188	6
45	45	4
170	170	9
191	191	6
179	180	1
193	194	4
187	188	2
21	22	6
145	147	3
168	178	1
182	182	13
46	46	9
142	142	8
132	133	2
66	66	2
0	0	5
145	146	3
179	179	6
171	193	3
19	20	2
5	6	3
171	171	8
155	157	1
53	54	4
127	128	2
69	78	2
41	41	3
132	132	3
38	38	4
134	135	1
48	48	5
118	118	5
64	64	5
49	49	4
139	139	6
13	13	5
127	129	2
31	55	3
9	33	5
186	196	6
155	155	3
60	61	2
109	113	5
193	193	8
149	149	14
138	141	2
17	17	5
127	127	3
150	150	1
14	14	10
14	15	3
139	140	8
29	80	1
121	121	5
5	5	8
104	105	2
24	24	10
121	186	2
32	73	1
100	100	6
159	159	1
137	137	3
26	27	1
43	43	9
163	164	3
58	88	1
192	192	5
45	52	1
73	77	1
197	197	2
189	191	2
123	124	6
149	150	3
182	183	5
143	146	3
51	51	12
148	148	7
167	167	7
169	169	8
178	178	5
2	3	3
156	156	7
131	144	1
153	190	1
23	23	2
185	186	3
16	36	2
15	15	10
37	38	4
20	21	2
125	183	1
128	128	4
122	176	1
130	152	3
58	58	4
11	11	4
18	22	5
97	99	1
28	35	1
83	84	4
72	72	2
105	105	6
174	174	9
6	7	4
168	169	1
16	16	1
76	76	1
117	117	5
53	53	2
59	59	4
50	51	4
146	147	2
29	138	2
56	56	4
4	4	3
44	87	2
101	101	5
154	190	5
20	20	2
100	113	2
173	174	1
71	71	3
6	6	3
151	151	4
9	9	5
119	129	3
166	166	2
195	196	1
108	109	7
173	175	3
81	81	1
159	164	3
36	36	5
63	63	2
0	1	1
10	43	2
34	34	4
55	55	4
11	47	3
115	115	4
103	105	6
52	195	2
39	40	7
181	181	6
168	168	1
27	61	3
26	79	3
58	90	2
29	31	1
115	147	2
46	56	2
176	176	4
33	33	4
146	146	1
29	29	3
57	57	3
171	172	2
162	163	2
31	32	5
196	196	6
131	131	5
190	191	3
7	8	8
183	183	2
26	26	4
1	6	1
163	163	3
165	165	2
113	169	1
54	55	2
70	71	2
187	187	9
173	173	2
17	19	1
16	28	1
126	127	1
184	184	2
172	172	2
50	86	1
2	2	4
143	143	8
108	113	2
140	140	6
181	182	3
69	69	1
177	177	2
147	172	3
60	76	1
77	77	3
134	154	1
7	7	3
62	62	2
143	144	1
86	87	2
9	21	1
94	99	3
58	62	1
25	25	5
83	83	1
175	175	2
37	37	5
154	155	2
79	79	1
183	184	1
39	55	1
135	135	4
129	129	3
67	67	2
112	112	2
34	63	1
44	44	2
186	186	1
145	167	2
158	159	2
113	113	2
130	132	2
190	197	3
189	189	1
105	106	1
110	113	1
145	145	1
116	117	5
188	188	2
87	87	2
108	108	4
171	182	2
125	125	2
104	104	3
149	195	2
120	120	2
142	143	3
189	193	2
39	39	1
137	138	1
148	150	1
19	39	1
158	158	2
21	37	1
28	70	1
153	153	1
57	185	1
38	39	3
185	185	1
10	32	1
22	22	2
186	187	1
99	117	2
23	44	1
138	139	2
3	3	2
46	48	1
130	130	1
137	139	1
7	86	1
47	57	1
170	189	1
120	142	1
134	134	1
31	87	1
22	63	1
137	176	1
190	190	1
162	165	1
144	145	1
135	136	1
155	182	1
48	49	1
12	12	1
21	21	1
138	138	1
79	81	1
124	125	1
102	106	1
23	37	1
4	5	1
109	109	1
141	141	1
37	44	1
31	98	1
194	194	1
164	164	1
123	148	1
8	8	1
