10	48	3
69	69	11
51	51	20
72	73	10
34	35	3
77	77	14
80	80	13
73	74	9
1	1	13
12	12	7
32	33	1
13	48	8
20	20	8
28	29	9
29	89	2
8	8	8
18	67	2
64	65	9
65	65	18
19	19	13
75	76	6
86	86	21
76	77	3
7	31	2
57	57	15
64	64	8
74	74	16
17	17	21
63	63	7
70	70	3
11	11	15
2	2	7
48	48	13
13	13	4
81	81	24
78	80	3
24	24	36
68	68	12
25	25	19
78	79	7
50	65	4
58	58	8
76	76	13
49	49	27
50	52	4
17	34	5
50	60	1
51	58	4
78	78	14
6	6	9
82	83	6
21	21	9
55	72	1
55	56	4
47	47	15
60	60	9
54	73	1
79	79	16
30	30	11
87	87	12
67	67	14
60	65	2
8	28	4
5	5	12
54	55	5
50	90	2
46	47	3
18	18	1
84	84	15
76	82	2
55	55	12
0	0	10
34	48	3
10	10	15
89	89	16
17	54	2
63	64	6
82	84	2
61	62	5
6	9	1
62	62	7
59	65	2
88	88	20
23	23	21
72	74	4
77	78	2
6	22	2
54	54	22
12	35	1
58	59	2
77	79	4
19	50	2
61	61	17
14	14	16
50	53	1
13	63	3
33	33	5
84	85	4
22	22	14
15	20	1
29	29	6
56	56	7
47	79	3
78	81	3
28	28	4
75	80	4
19	20	4
87	88	2
58	61	2
73	73	7
46	46	5
71	72	5
76	83	4
75	75	17
27	27	11
75	84	2
4	4	24
4	57	1
65	66	12
53	54	5
49	51	7
57	68	3
6	7	3
10	11	3
86	87	8
54	59	3
20	21	2
60	61	2
10	31	3
60	62	5
26	57	1
63	65	5
52	52	9
74	75	2
17	18	2
7	7	10
53	58	7
53	67	4
58	60	2
59	59	10
81	84	4
77	82	4
34	34	3
10	12	4
48	49	5
60	63	2
52	63	1
13	66	1
9	10	4
72	72	11
70	87	2
54	58	4
53	53	6
22	31	1
3	3	14
48	68	1
83	83	10
66	78	1
1	14	1
82	82	8
17	20	3
8	9	3
22	23	6
65	79	3
18	19	3
15	15	5
48	78	3
77	80	2
66	66	10
81	82	2
55	58	1
54	56	4
26	26	8
9	9	4
50	50	11
79	80	1
66	84	2
31	31	10
85	85	7
80	81	4
22	27	3
85	86	2
6	8	2
90	90	4
73	75	2
15	16	6
16	71	5
16	53	4
4	30	3
70	71	2
47	48	8
14	17	1
26	27	3
66	71	2
72	88	3
68	69	3
53	70	2
55	66	1
29	30	1
5	22	2
9	14	2
16	16	4
50	66	5
32	65	1
12	49	2
49	64	1
70	75	1
4	29	1
62	63	2
72	80	1
23	31	2
69	70	3
70	89	3
71	71	4
20	51	2
52	54	5
1	2	1
53	55	1
46	80	4
53	73	1
61	66	2
52	60	1
52	90	3
58	63	2
0	2	1
24	77	1
27	31	1
9	12	1
59	74	1
47	61	2
19	53	2
53	56	2
13	35	2
12	54	4
5	6	2
3	4	3
12	13	4
50	55	1
51	65	1
17	21	3
22	25	1
0	1	2
61	78	3
13	14	1
1	4	1
48	52	2
60	64	2
23	47	1
24	47	1
69	74	4
67	68	1
23	25	2
76	88	3
50	54	2
35	35	2
25	27	3
51	64	1
62	80	2
52	65	1
62	66	1
12	56	1
12	62	3
5	9	1
46	48	2
15	53	1
15	22	2
13	59	2
48	50	4
8	31	1
63	66	2
23	24	1
52	53	1
50	51	1
16	70	1
52	55	1
59	61	1
50	73	1
68	72	1
49	52	1
9	48	1
25	26	1
7	8	4
48	65	1
71	88	1
4	14	1
77	83	1
52	73	2
49	53	1
6	63	1
68	89	1
47	78	1
33	65	1
50	59	1
18	74	1
75	88	1
49	50	1
0	67	1
