3	5	10
96	96	13
36	36	35
21	21	17
50	50	11
32	32	35
1	1	22
138	138	18
88	96	1
40	41	13
52	80	6
41	41	17
25	26	4
95	95	17
81	81	9
135	143	2
177	177	6
20	20	14
14	14	32
5	5	11
152	155	4
40	40	29
0	0	19
19	20	6
84	84	7
80	80	13
126	136	3
6	10	3
130	135	9
143	143	12
155	158	2
60	60	25
129	130	5
140	140	25
147	153	3
101	107	2
88	120	3
39	40	16
129	160	4
37	37	32
88	89	1
120	120	7
89	90	7
146	150	2
172	173	14
164	164	10
117	117	11
159	159	15
123	123	15
16	65	4
92	92	10
76	77	3
13	18	5
78	79	4
103	103	9
81	148	7
161	161	17
128	129	5
129	159	5
104	104	8
137	138	11
109	109	12
78	80	1
112	112	10
102	102	19
139	140	2
119	162	1
39	39	17
76	76	10
44	44	13
94	96	10
54	71	5
12	12	14
74	86	8
157	158	7
135	135	16
112	127	1
15	15	14
127	127	26
43	43	20
101	103	1
72	72	15
171	171	14
26	26	10
56	56	11
30	30	10
0	1	6
124	124	8
130	142	1
179	179	17
9	10	7
173	174	6
54	55	7
61	71	6
173	173	23
11	11	10
131	135	6
28	28	11
53	53	19
129	147	3
90	90	11
121	121	2
165	165	1
10	10	30
177	178	7
128	128	3
152	153	5
60	67	3
38	39	4
105	107	9
114	114	20
144	145	2
110	156	4
100	100	6
84	104	2
148	150	9
31	32	10
116	118	2
150	161	2
38	38	20
11	38	6
115	117	5
107	108	11
158	159	8
147	154	7
9	9	23
51	51	12
52	53	7
178	180	1
136	137	3
125	126	9
145	146	2
75	75	11
94	100	2
71	72	10
153	153	13
6	6	12
74	83	5
172	172	15
23	23	15
2	2	12
23	34	4
169	169	10
133	133	10
27	27	2
65	65	10
32	39	2
157	159	8
33	33	21
17	17	23
136	136	16
56	143	3
137	137	15
14	15	10
133	173	3
93	93	6
75	87	4
99	99	7
4	45	1
24	26	1
102	118	3
95	104	3
51	64	2
60	61	7
142	149	3
4	46	4
78	78	5
81	91	4
132	132	8
45	45	19
57	57	10
168	168	17
160	162	1
73	79	1
147	147	9
135	136	4
110	110	7
118	118	24
115	115	8
13	13	15
13	19	4
122	122	24
10	37	2
154	154	5
43	54	3
127	129	2
41	42	3
161	162	7
139	139	12
25	25	8
8	9	9
166	166	14
10	15	3
18	18	5
133	137	1
11	44	1
9	11	2
145	145	11
107	109	1
141	142	5
166	167	6
82	82	13
74	75	3
136	139	3
23	25	3
96	113	2
68	68	4
149	150	3
29	29	22
111	111	7
8	8	15
89	89	7
24	24	23
150	151	3
155	164	2
30	31	3
132	133	3
82	158	3
152	152	4
71	79	5
91	94	5
11	14	1
83	83	3
71	71	16
54	54	10
113	116	1
146	153	2
42	43	11
119	145	4
92	166	1
150	150	28
163	163	10
152	164	4
81	82	11
67	67	8
150	154	1
64	109	1
90	94	4
148	148	18
95	97	3
101	102	9
135	140	2
54	72	6
34	34	15
125	125	10
26	29	5
32	33	8
2	11	3
108	108	9
91	91	14
28	30	1
13	14	7
11	19	2
6	7	4
94	95	6
31	31	9
13	15	4
44	45	7
21	41	2
70	71	2
58	59	8
20	21	6
12	19	1
119	146	4
56	58	4
117	128	3
56	57	8
124	125	11
72	73	1
151	152	6
157	157	7
149	149	24
142	142	8
131	131	15
94	94	8
112	114	10
90	92	1
85	113	1
103	105	2
113	113	7
25	52	1
155	156	3
4	4	5
79	79	15
108	109	4
61	61	14
180	180	5
5	6	8
92	167	1
116	116	6
147	161	2
83	85	2
65	66	2
55	59	1
96	125	6
119	129	1
86	123	3
106	106	17
16	16	11
147	150	3
100	121	3
63	63	2
43	44	5
11	15	3
174	174	4
26	27	2
18	38	4
119	119	5
90	91	2
4	13	4
61	78	1
19	41	2
151	154	4
158	158	10
176	176	8
162	162	11
77	77	14
5	12	1
134	134	14
7	18	2
59	60	5
116	154	2
154	156	4
115	151	2
4	5	6
19	19	3
101	101	4
87	169	3
178	178	6
11	13	10
130	130	13
43	45	8
70	72	10
122	123	9
63	82	4
89	168	2
1	5	2
107	107	5
4	6	1
10	65	1
146	146	5
59	59	13
77	138	2
100	101	6
120	121	6
116	117	1
137	145	4
99	166	1
123	124	8
132	171	2
36	38	7
58	58	10
10	42	3
141	141	6
97	97	9
35	35	8
7	7	4
170	170	6
87	170	3
85	156	3
105	105	6
52	52	6
40	43	1
24	28	2
136	168	2
4	10	2
55	55	10
161	163	4
3	3	10
91	142	2
114	115	4
111	112	3
73	74	4
60	162	1
42	42	3
154	164	4
29	30	3
130	159	3
120	156	4
97	112	1
87	88	1
8	20	2
14	16	4
8	45	1
159	167	6
64	79	2
15	40	1
153	154	3
15	65	1
61	64	7
152	163	3
82	84	2
19	36	1
98	98	6
156	163	2
151	153	9
21	22	9
73	73	8
126	128	1
107	112	3
131	169	3
6	17	3
123	125	4
3	4	6
12	162	2
27	29	1
155	155	7
167	167	13
24	29	4
50	53	6
34	40	6
83	155	1
10	64	1
126	126	7
37	38	13
13	42	7
67	91	2
70	70	3
4	12	2
148	149	7
96	112	3
145	154	3
0	5	1
96	143	2
176	177	1
144	144	9
132	170	1
174	175	2
27	28	1
110	111	1
131	175	1
7	21	2
95	96	3
151	151	6
1	2	1
23	24	1
1	31	1
2	4	2
95	125	1
57	65	1
13	23	3
16	43	1
121	122	2
134	137	1
127	147	1
10	19	1
64	65	8
162	163	4
86	90	1
10	11	5
87	87	4
98	100	1
32	36	3
170	172	5
104	113	4
16	67	6
146	151	2
116	151	1
10	161	7
39	43	1
153	158	1
52	60	5
8	13	2
21	59	1
84	160	1
142	143	4
60	77	2
21	23	2
77	78	4
152	160	1
36	39	1
79	80	2
63	64	3
24	25	2
53	71	1
13	159	1
33	34	1
168	169	2
80	81	5
164	165	1
156	156	3
86	86	2
87	98	1
10	14	1
43	53	3
82	152	3
15	16	4
122	130	2
10	16	1
73	81	2
66	68	4
112	115	2
74	74	3
111	114	1
61	158	1
2	71	1
113	114	1
80	90	3
110	131	2
130	136	4
33	36	2
117	118	2
12	13	1
93	95	2
83	151	1
49	71	1
53	77	1
130	131	4
133	136	3
18	19	1
132	176	1
35	36	5
145	168	1
5	10	4
85	85	2
14	75	5
64	78	3
0	39	2
80	93	2
15	43	3
64	64	3
61	163	1
119	158	2
131	132	2
90	98	2
34	38	1
171	173	2
52	81	3
129	129	7
115	116	2
86	102	4
156	157	3
115	125	2
173	175	1
122	126	1
44	53	1
99	103	1
134	135	2
66	66	4
29	34	2
62	62	1
7	33	1
147	148	4
92	102	1
59	61	1
140	141	2
59	157	1
43	50	1
135	142	1
11	12	5
63	116	1
83	146	3
153	166	1
57	58	4
137	167	1
14	149	1
7	8	1
53	76	3
120	122	1
22	22	6
97	98	1
34	36	1
67	68	2
93	94	2
159	160	1
14	79	1
154	155	2
51	157	2
94	104	1
127	153	1
88	122	2
144	169	1
115	146	1
129	131	2
15	42	1
21	37	2
32	34	1
76	78	1
55	56	2
135	163	2
101	111	1
115	118	1
18	21	1
17	19	1
153	165	1
73	103	1
21	45	2
130	157	1
79	81	1
90	114	2
3	7	2
59	163	2
88	121	1
126	130	1
125	127	2
62	63	1
29	31	3
53	75	2
11	64	1
16	17	2
19	21	1
5	7	2
46	66	1
58	76	2
114	143	1
50	51	1
157	171	1
131	133	2
127	128	1
131	158	2
62	110	1
117	160	1
138	172	1
9	28	1
163	164	1
11	154	1
21	38	1
36	37	1
136	140	1
20	71	1
2	3	1
158	172	1
12	27	1
149	170	1
105	114	1
133	139	1
81	97	1
8	10	2
10	41	1
64	154	1
98	112	1
49	50	3
17	39	1
141	150	1
22	31	1
49	51	1
25	30	1
14	45	1
94	98	1
18	66	1
56	65	1
105	106	1
85	86	1
106	107	2
99	100	1
51	61	1
3	12	1
9	16	1
137	168	1
85	88	1
3	8	1
91	92	1
22	23	1
32	93	1
159	166	1
3	6	1
102	103	1
165	168	1
119	130	1
117	157	1
28	29	1
122	170	1
