28	28	7
64	65	5
106	106	8
116	116	6
50	50	7
14	17	1
65	104	4
116	119	2
36	36	4
80	80	15
130	130	3
14	14	2
102	102	4
75	75	8
110	111	2
2	2	5
12	12	2
77	77	5
31	34	4
10	36	2
27	27	4
47	47	7
114	114	3
75	76	1
13	13	9
23	23	3
71	79	4
15	48	4
44	44	3
134	134	9
45	51	3
121	132	3
105	105	1
49	49	3
8	8	4
69	70	1
101	101	3
38	68	4
57	85	3
62	62	10
25	25	2
97	99	3
6	7	2
79	79	2
38	38	3
133	133	5
132	133	7
99	100	2
118	123	1
48	48	5
42	42	1
77	78	2
121	121	3
125	125	4
83	85	2
20	20	5
84	84	4
98	98	7
28	63	1
69	69	11
106	133	1
74	74	5
2	75	1
99	101	5
85	86	1
70	70	6
76	76	3
72	73	5
104	104	5
65	68	2
11	11	8
61	114	2
73	73	9
131	131	1
3	3	3
96	96	2
78	78	3
52	52	3
60	62	4
38	64	1
129	130	2
88	88	4
94	94	4
61	64	6
35	35	1
86	120	1
47	48	1
60	60	1
30	30	3
117	117	6
71	72	5
127	127	12
66	66	7
64	64	10
12	18	2
83	83	2
37	37	1
4	75	1
67	67	2
25	62	2
122	122	2
81	83	2
65	105	1
60	116	2
53	53	6
16	16	5
78	124	1
112	112	4
46	46	1
65	111	4
127	128	2
53	54	4
84	85	8
33	35	1
87	87	3
4	4	5
19	19	3
111	111	6
72	74	2
18	21	2
79	112	2
93	93	4
68	68	2
117	122	2
108	108	11
90	90	9
86	86	1
82	121	2
18	18	6
12	15	2
68	92	3
73	121	4
91	91	4
53	56	2
7	32	1
132	132	5
17	76	2
128	128	1
129	129	4
97	98	6
59	110	3
122	130	1
51	127	1
127	129	1
120	120	5
66	67	2
58	58	1
135	135	1
124	124	5
99	104	2
130	132	1
21	21	5
33	33	3
21	22	3
82	84	1
63	64	3
93	105	3
100	100	1
82	82	2
29	29	1
86	98	2
89	89	2
32	32	8
9	14	2
122	132	1
107	109	1
113	116	1
15	78	4
115	118	2
98	100	1
44	48	1
49	57	2
119	119	4
67	68	3
99	99	5
84	100	1
7	7	4
4	29	1
26	26	3
44	87	1
79	117	1
46	81	2
95	95	5
16	17	3
45	100	4
43	43	3
105	108	1
65	67	2
123	123	2
118	118	1
115	115	3
113	113	3
97	97	2
114	115	1
90	104	1
98	99	2
70	104	1
109	110	4
57	57	1
71	71	1
92	98	1
122	123	1
103	103	5
54	108	3
45	85	4
85	85	2
5	6	2
63	65	1
5	5	3
2	3	2
75	120	1
126	127	1
62	94	1
65	66	1
1	2	3
43	55	2
15	17	1
52	132	1
76	79	2
27	31	2
55	55	2
99	134	1
110	110	1
60	129	1
20	22	1
78	79	2
76	129	1
65	65	1
82	83	2
92	104	1
6	11	1
34	115	1
23	26	1
1	3	1
10	23	1
87	88	1
123	124	1
54	54	1
70	75	2
70	71	1
0	0	2
104	105	1
22	23	1
6	19	1
54	57	1
85	91	1
74	75	1
47	98	1
80	85	1
10	20	1
