12	12	10
134	135	2
107	107	3
106	106	8
59	59	6
62	67	3
43	43	29
159	159	17
23	23	20
114	116	2
7	35	1
65	65	10
152	155	1
99	178	2
168	169	4
97	98	8
161	165	3
139	139	11
29	29	25
18	18	12
103	105	7
75	83	3
78	95	1
13	15	9
28	29	4
7	9	12
118	118	20
165	166	9
76	77	6
173	174	15
166	167	4
26	28	5
65	67	2
174	176	4
55	55	6
122	122	10
15	15	23
10	10	33
68	68	5
56	146	1
98	98	10
127	127	8
11	12	19
77	77	12
56	59	5
164	168	2
67	67	11
2	2	9
124	124	3
0	0	20
44	44	26
65	66	4
176	177	5
9	9	36
155	156	8
7	28	2
2	5	6
24	25	18
24	27	3
59	61	2
60	60	12
2	4	11
50	52	4
151	152	9
35	36	10
74	125	1
74	74	7
135	135	12
37	38	10
71	71	6
65	92	3
36	36	16
162	167	5
155	155	8
4	10	2
32	32	17
52	52	11
39	39	22
103	104	6
119	119	22
18	19	11
85	86	3
62	72	1
23	24	5
8	8	24
19	22	9
123	124	2
14	14	33
40	40	14
11	11	16
39	40	12
139	180	3
129	129	3
156	167	2
110	118	4
33	35	4
102	102	11
95	95	10
91	92	5
42	42	19
13	13	20
12	13	19
10	12	3
149	149	11
3	8	1
13	156	4
18	29	2
49	52	2
79	80	12
74	75	4
20	22	4
163	163	14
4	4	10
24	24	11
21	99	2
104	104	13
20	20	12
41	42	7
35	35	19
26	27	5
55	56	10
19	19	17
90	141	2
103	103	10
17	17	11
105	105	7
30	31	10
73	73	7
78	79	5
19	33	3
19	45	2
7	7	9
167	169	2
121	121	21
40	41	3
76	76	14
21	22	6
94	95	8
3	3	16
170	170	18
177	178	3
125	125	6
140	140	16
116	116	12
2	3	12
167	168	4
114	120	2
129	143	2
73	127	2
96	96	4
56	127	1
0	1	3
115	118	6
126	168	9
56	57	7
156	156	7
160	161	4
131	169	7
38	38	23
25	25	23
145	145	9
6	6	11
10	14	5
172	172	11
167	167	12
88	89	2
147	148	3
51	52	4
180	180	14
31	31	22
67	124	3
78	78	5
57	58	2
143	143	9
128	131	2
153	167	4
50	50	13
30	30	20
44	45	3
112	112	9
88	88	9
140	141	4
81	81	8
20	31	3
106	108	1
45	45	17
152	152	1
77	78	2
80	80	5
10	32	3
109	153	3
144	144	6
165	165	7
175	178	2
33	33	12
93	93	3
114	121	5
8	19	5
5	7	7
126	128	2
168	168	7
152	177	2
9	85	1
26	29	2
145	148	1
42	43	3
132	132	5
171	171	12
23	29	5
108	112	2
27	28	8
35	37	3
85	85	6
3	34	3
68	138	2
116	118	5
130	130	3
5	5	13
120	120	11
5	14	1
0	175	2
163	164	4
83	83	10
113	115	5
158	158	7
66	71	3
114	165	1
82	109	3
37	43	2
82	82	5
137	137	15
174	174	11
27	27	11
75	75	6
100	178	5
8	15	2
27	36	1
34	35	7
37	37	11
11	16	2
83	85	2
79	103	4
136	136	9
86	91	1
148	148	3
175	176	3
17	23	5
118	120	4
115	116	3
152	153	3
6	7	10
54	54	9
166	166	6
97	97	10
46	46	4
111	111	9
173	173	12
108	108	10
8	9	10
52	53	7
124	125	7
176	176	9
62	89	2
72	127	8
111	124	3
99	99	7
101	110	1
86	86	5
28	30	5
147	147	4
53	65	2
99	118	3
132	133	5
89	89	9
16	16	18
118	123	3
125	130	4
150	150	11
66	67	4
21	23	2
14	16	4
36	37	9
55	150	4
20	21	8
126	170	3
96	113	1
150	177	3
166	173	2
70	95	4
1	2	2
114	114	4
139	147	1
106	107	4
14	23	1
53	56	1
50	51	8
127	131	5
3	30	4
92	94	2
5	6	14
67	71	1
114	174	3
15	35	3
142	142	7
127	169	3
28	28	23
137	138	10
1	1	8
22	23	13
15	32	5
90	92	7
81	82	4
99	109	3
78	98	2
76	179	7
4	9	6
179	180	4
26	26	14
33	34	6
6	63	4
128	128	10
53	53	2
117	160	3
109	110	4
57	57	7
177	177	1
18	22	2
51	51	4
72	72	7
150	151	4
114	157	1
79	79	6
133	145	2
128	130	4
160	160	11
62	62	10
16	21	1
9	11	3
64	68	3
11	13	5
94	94	7
84	85	2
75	148	2
98	100	1
109	109	4
105	106	8
135	148	1
16	17	5
22	25	1
0	3	1
171	176	4
34	36	1
2	15	1
44	136	2
151	151	14
113	126	1
18	67	5
108	109	1
117	129	1
73	150	1
10	11	6
14	30	4
153	153	3
100	114	2
25	111	1
102	107	3
22	22	14
0	43	3
67	95	3
63	174	2
31	75	2
15	68	1
127	151	3
84	87	3
56	56	5
32	35	3
92	129	2
156	179	2
113	114	2
153	157	2
32	33	10
40	43	1
4	6	1
134	134	3
154	158	3
179	179	6
81	83	2
8	20	4
114	115	2
126	126	9
19	20	2
51	97	6
125	167	2
31	32	2
169	169	3
84	84	3
144	177	4
117	117	2
94	98	4
154	157	3
133	133	15
133	134	2
6	9	1
145	146	10
18	43	1
123	123	9
41	41	13
3	15	6
98	99	1
51	84	2
8	12	3
51	53	5
86	90	2
13	155	2
158	160	4
101	101	2
3	16	4
61	61	7
76	89	1
119	121	2
157	157	6
9	16	2
126	169	2
115	115	2
63	63	6
104	107	3
125	126	4
150	152	1
87	87	4
34	34	12
25	26	5
91	94	1
61	62	4
71	135	2
119	120	8
90	101	3
11	127	1
10	44	2
64	64	1
146	163	1
30	33	3
13	161	3
43	45	2
8	22	1
76	86	4
106	153	2
85	92	1
154	160	2
64	90	3
154	156	6
75	178	2
131	131	11
104	108	1
78	80	4
67	68	6
3	4	4
169	170	2
66	66	5
25	28	3
156	178	2
139	140	1
150	158	2
127	136	3
12	24	1
21	24	2
104	105	2
99	100	2
83	129	3
17	72	2
91	133	2
158	159	4
62	73	2
63	73	2
26	46	1
24	67	2
144	145	6
20	28	2
161	161	4
178	178	5
13	14	3
43	44	9
13	38	2
116	126	2
3	20	1
172	178	5
97	108	1
120	121	2
14	32	3
97	116	1
83	93	4
14	33	3
117	178	3
6	26	3
29	30	2
110	110	5
81	84	3
92	93	2
72	75	5
81	106	1
130	131	2
28	66	1
65	89	1
4	42	2
80	108	1
171	172	3
54	134	4
98	121	1
100	100	2
138	138	2
63	72	4
90	90	5
4	8	6
17	36	1
8	10	5
15	16	3
148	149	1
146	146	5
104	106	3
33	36	1
142	143	6
21	21	2
160	168	1
11	15	3
141	141	1
154	155	3
82	173	1
24	26	1
124	154	1
7	11	2
39	41	1
143	144	3
2	174	1
97	110	4
109	174	2
35	38	4
2	6	1
73	75	4
10	13	1
157	158	3
58	161	2
18	35	2
75	168	3
72	149	1
15	103	2
107	150	1
2	8	3
155	160	2
90	98	1
126	127	2
116	119	1
16	29	1
130	157	3
23	37	1
105	152	1
71	72	3
67	75	2
92	92	2
11	83	2
84	101	2
76	140	1
121	122	4
10	16	2
175	177	3
17	24	1
155	158	1
16	34	1
75	76	2
95	99	3
7	8	1
161	162	1
86	87	3
99	111	2
80	81	2
15	40	2
169	177	2
67	86	2
127	161	2
128	154	2
29	76	2
101	106	1
72	76	1
27	29	2
114	168	2
74	122	1
114	119	1
125	131	1
13	126	1
162	162	2
35	45	1
148	151	4
10	31	2
62	65	1
5	9	1
163	165	1
36	38	2
53	54	3
147	150	4
126	130	2
93	94	2
9	89	3
77	81	1
137	180	1
123	125	3
23	28	1
66	74	1
3	10	1
101	136	1
117	162	1
117	155	2
25	126	1
63	89	1
135	136	4
99	101	1
18	26	1
162	165	2
53	92	1
70	70	1
138	139	3
164	164	4
154	154	2
132	172	1
73	112	1
86	89	2
103	106	2
19	21	3
14	29	2
160	164	1
2	7	2
91	93	1
177	179	1
41	44	1
166	169	1
45	77	1
1	167	1
128	153	1
137	159	1
157	159	1
117	151	1
2	14	1
85	87	2
43	46	1
8	11	1
96	105	2
65	95	2
53	109	1
154	162	2
13	149	3
116	130	1
66	68	1
174	175	1
6	33	1
22	34	1
68	71	1
87	88	1
152	179	1
113	113	1
113	117	1
95	97	2
53	59	2
8	21	1
101	104	1
127	149	1
129	160	1
10	20	1
38	42	1
128	129	1
131	132	2
98	139	2
18	21	1
83	84	1
160	166	2
24	28	3
175	175	2
1	6	3
79	92	2
11	37	2
13	40	1
73	74	1
0	54	1
0	59	2
61	64	1
37	41	1
142	145	1
127	133	2
4	62	1
82	170	1
118	121	1
54	73	1
96	97	2
66	73	2
10	43	1
107	109	2
112	156	1
24	34	1
45	76	1
64	95	1
141	142	1
77	109	1
136	137	1
58	58	1
111	113	1
108	166	1
156	157	1
29	32	1
16	18	1
13	42	1
8	46	1
9	14	1
54	55	1
17	18	1
62	84	1
0	8	1
4	15	1
81	131	1
14	15	2
30	32	1
132	134	2
116	117	1
21	29	1
52	163	1
125	127	1
139	149	2
60	61	2
40	42	1
4	5	1
1	88	1
117	161	1
11	126	1
10	163	2
18	25	1
62	63	1
11	36	1
129	130	1
10	18	2
122	125	1
29	31	1
96	118	1
13	167	1
3	42	1
116	161	1
57	59	1
3	11	1
16	35	1
133	173	1
114	118	1
117	119	1
63	91	1
72	73	1
127	150	1
101	108	1
