60	61	5
55	56	5
44	44	17
45	45	16
70	70	5
51	51	16
83	83	7
42	42	8
66	66	13
58	59	4
36	36	10
73	73	8
93	93	7
40	40	3
46	53	4
101	101	10
86	86	17
26	26	12
92	92	9
71	72	1
98	98	7
55	55	7
54	93	1
48	48	4
75	75	11
95	97	6
97	97	7
27	27	9
62	62	12
34	68	1
67	67	11
91	91	2
46	46	10
95	99	1
76	76	4
76	77	5
92	101	2
90	90	7
80	80	5
22	73	2
34	40	1
59	59	9
79	79	11
56	56	15
77	77	12
52	52	8
68	92	1
61	61	3
64	64	13
100	100	7
30	50	5
92	93	5
56	57	4
72	72	5
78	89	3
54	54	12
29	29	4
74	74	5
64	78	4
44	51	3
52	99	1
80	81	12
65	66	8
90	91	6
99	99	14
86	87	7
50	51	1
63	65	1
84	98	5
21	98	2
68	68	6
79	81	1
37	37	4
47	47	6
88	88	6
35	35	7
52	77	2
48	49	4
82	82	5
64	65	3
57	58	3
29	68	2
87	88	5
66	78	1
26	27	4
58	75	2
33	68	1
50	50	14
38	54	4
63	63	5
64	67	3
87	101	3
33	33	11
99	100	1
69	69	6
97	98	6
75	76	5
37	38	2
35	36	1
65	65	9
55	93	2
95	95	14
78	78	8
53	53	10
52	53	8
74	85	1
55	100	2
89	89	6
66	76	3
62	64	2
47	62	2
87	87	11
61	62	3
81	81	15
53	61	4
80	83	5
46	88	3
22	22	8
101	102	3
60	60	5
27	82	3
41	41	2
58	58	5
49	49	3
79	89	3
27	53	1
21	46	2
46	84	2
25	53	2
54	55	2
73	74	1
31	68	4
69	76	1
60	62	4
87	94	1
24	93	2
71	71	6
67	78	3
57	57	6
22	27	2
72	73	3
39	39	5
89	93	2
63	66	2
43	46	2
38	39	2
34	38	2
51	88	3
79	80	2
59	60	1
88	93	2
38	38	4
53	60	3
53	98	2
63	83	3
94	94	1
43	43	7
47	53	1
83	89	2
56	62	1
33	44	2
63	64	2
75	77	2
63	85	1
31	59	1
76	78	2
67	86	1
70	76	2
52	61	3
73	90	1
31	31	1
32	33	2
79	82	1
28	28	1
44	47	1
85	85	1
66	68	1
79	88	4
66	67	1
86	88	1
91	93	2
102	102	2
45	47	2
23	28	1
24	25	1
73	76	3
83	88	1
74	77	1
35	37	2
46	47	1
46	48	2
92	99	1
84	84	1
100	101	1
46	51	1
42	43	1
37	97	2
22	23	2
87	91	2
69	72	1
94	96	1
48	88	1
49	50	3
25	25	2
96	96	3
63	67	1
87	92	1
21	56	1
66	73	2
41	42	1
22	68	1
88	89	1
53	55	1
92	95	1
60	63	1
23	29	1
47	61	1
57	78	1
94	98	1
82	83	1
93	94	1
81	82	1
24	26	1
70	101	1
