37	37	2
68	147	1
95	121	2
83	83	3
38	51	3
132	132	3
126	126	2
131	131	2
97	124	4
51	51	1
115	116	1
9	9	3
68	68	3
54	55	5
87	95	1
13	13	10
20	20	7
14	31	1
17	17	8
27	30	3
110	110	3
111	131	5
104	137	1
88	88	1
98	125	1
95	96	2
20	28	1
80	81	3
101	146	3
33	82	3
63	64	2
129	129	5
114	114	5
24	24	3
54	54	1
133	150	2
119	119	2
128	128	7
124	124	4
117	117	3
50	51	5
54	71	1
71	71	4
122	136	2
68	69	2
123	126	2
150	151	1
31	31	3
82	96	1
19	19	4
26	27	4
72	145	4
93	95	1
112	112	5
81	82	1
47	145	3
57	57	10
34	36	1
7	9	4
105	112	2
73	74	2
82	82	5
133	133	7
37	63	1
65	67	3
14	14	9
97	97	1
39	39	3
11	12	2
113	144	2
5	5	3
40	40	7
98	128	1
145	145	3
137	137	1
5	33	2
104	120	1
13	17	2
7	12	2
75	86	1
35	35	4
130	130	1
99	99	10
17	20	1
106	106	3
88	97	3
64	66	1
105	105	8
63	75	4
66	67	3
133	134	2
129	134	1
36	36	4
67	67	6
76	146	5
144	144	3
118	130	1
63	63	3
120	120	3
100	100	3
63	66	2
18	19	3
46	46	4
66	69	1
50	55	3
84	84	1
63	148	1
14	26	5
14	19	1
104	104	6
27	28	1
115	115	1
148	148	2
84	95	1
107	109	1
25	27	3
80	82	1
21	21	5
77	81	2
23	23	4
33	34	4
10	10	3
18	18	2
8	9	4
67	68	4
74	74	4
58	58	3
122	139	5
53	53	2
146	147	1
130	132	2
154	154	2
16	16	2
58	63	2
112	139	1
92	92	5
105	121	2
76	138	2
78	78	5
73	73	3
73	80	1
132	133	1
107	141	1
46	55	1
67	71	1
98	98	1
29	29	1
74	98	2
22	22	2
147	147	5
83	85	1
83	90	2
28	33	1
85	94	2
62	80	1
27	27	3
138	138	3
79	136	3
15	16	1
109	109	1
13	24	3
101	138	2
98	99	1
110	114	3
97	123	1
64	65	5
22	23	4
4	29	1
34	34	4
102	102	5
38	38	2
116	117	2
108	108	2
95	95	2
42	43	1
111	111	4
69	69	1
42	42	4
58	62	1
94	94	2
27	32	1
108	110	2
49	53	1
81	85	2
31	32	1
34	37	3
105	108	4
109	110	1
28	28	1
121	121	3
101	101	2
113	113	2
79	79	2
41	41	2
75	75	2
110	140	2
62	62	2
98	127	2
124	125	1
48	48	2
138	139	3
64	69	1
41	42	1
84	127	1
137	138	4
143	147	4
12	28	2
36	37	3
139	139	2
51	55	1
112	131	1
7	7	1
81	81	1
141	141	1
116	116	2
8	36	2
66	73	1
152	153	1
15	15	1
118	118	2
135	135	2
38	39	4
13	25	1
80	80	2
48	54	1
150	152	2
25	25	4
96	96	1
26	57	1
12	12	2
123	123	1
86	138	1
38	40	1
90	151	1
123	124	1
58	146	1
153	153	1
151	151	2
131	133	1
57	64	1
70	70	3
56	56	2
35	37	2
30	30	1
101	121	1
85	87	1
6	6	2
26	65	1
94	138	1
87	94	1
94	122	1
85	136	1
74	81	1
32	32	1
3	3	1
48	53	1
76	76	1
55	55	2
109	115	1
82	125	1
77	135	1
8	8	1
4	4	1
26	26	1
53	57	1
87	93	1
75	78	1
81	83	1
7	23	1
94	96	1
