19	19	2
32	33	9
151	151	14
63	63	4
127	127	6
7	8	3
137	137	3
17	17	6
126	126	7
47	48	3
12	12	7
7	24	2
29	30	6
62	64	2
4	4	2
75	75	7
26	26	3
65	66	3
125	125	4
135	150	2
33	33	11
17	35	5
146	146	2
111	130	2
129	129	7
41	42	5
144	144	1
82	82	2
90	90	2
6	6	10
165	165	5
133	133	3
145	145	11
148	148	7
138	138	11
158	183	3
135	135	2
120	120	3
71	75	3
2	2	10
134	135	13
115	115	4
131	134	2
118	118	1
108	108	4
66	66	4
161	161	4
14	14	8
71	71	3
179	180	4
176	178	2
123	133	1
17	34	4
5	6	4
76	76	2
101	101	2
147	147	5
138	149	2
48	48	1
69	69	3
58	63	3
34	35	9
98	98	3
141	143	1
111	113	2
59	59	8
182	183	3
35	35	2
138	151	4
70	70	2
83	83	4
160	183	2
99	99	6
33	34	3
0	0	9
161	162	1
25	25	7
157	161	3
81	82	7
166	166	2
95	95	2
171	187	1
22	22	8
7	7	12
172	172	3
159	159	4
154	157	1
68	68	4
98	100	3
185	185	4
78	78	1
142	142	5
3	47	1
58	62	1
136	147	2
1	1	4
64	64	2
96	97	1
66	67	3
189	190	4
80	81	1
153	153	13
152	153	5
173	173	1
85	85	8
111	111	5
101	103	1
28	28	1
38	38	6
34	34	4
4	5	4
101	106	1
11	11	3
55	55	3
10	10	11
40	40	3
41	41	4
42	59	4
46	47	2
27	27	6
74	74	3
152	152	4
141	141	9
156	156	2
85	86	2
43	43	5
92	92	5
80	80	1
43	55	3
168	168	2
65	65	2
114	114	2
111	112	2
36	36	5
8	8	8
182	182	1
20	24	2
70	71	2
9	10	2
21	23	2
119	121	3
8	24	1
107	108	1
163	163	5
178	178	2
140	141	1
139	139	5
149	150	2
169	172	3
3	4	2
29	31	2
21	22	3
45	48	5
187	187	1
74	81	3
12	13	4
98	110	1
29	33	4
67	67	1
130	130	4
79	79	4
16	16	5
38	39	2
124	124	7
14	16	1
84	84	3
114	115	2
169	169	4
57	57	2
45	45	3
100	102	1
112	112	8
155	155	2
94	94	3
18	18	3
142	165	1
5	5	5
6	7	4
79	80	1
73	73	1
158	165	1
52	52	2
40	41	1
23	48	1
46	55	4
110	129	1
59	60	4
27	28	4
3	3	3
37	37	4
96	96	2
156	162	1
103	104	2
45	46	4
42	43	1
74	75	2
106	107	2
117	117	1
147	148	3
39	39	8
6	11	2
112	118	4
119	122	2
54	58	1
86	87	5
13	13	3
7	23	2
123	124	3
77	77	1
23	24	2
149	149	2
24	24	4
142	151	2
86	86	5
154	155	2
105	108	3
30	30	2
190	190	1
121	121	2
132	132	1
178	185	2
189	189	1
165	171	2
178	179	4
103	103	1
60	60	1
44	44	1
89	89	1
63	64	2
164	165	2
168	170	2
58	58	3
76	77	1
107	107	2
151	165	4
23	23	2
22	37	1
105	105	2
122	122	1
100	101	2
44	45	1
100	103	1
179	179	1
113	113	1
61	61	1
31	31	2
42	42	2
62	62	1
16	17	1
27	49	2
73	87	1
157	162	1
98	99	1
81	86	1
102	103	1
93	100	1
87	87	1
58	61	1
148	149	2
168	173	2
21	21	1
79	81	1
186	186	1
143	143	1
105	106	3
91	92	1
167	167	2
15	15	1
180	181	1
176	185	1
53	55	1
70	75	1
