4	5	8
169	169	17
155	156	5
66	68	1
148	150	5
44	44	9
9	177	8
57	57	11
65	65	1
133	140	3
45	45	9
0	1	9
72	72	13
112	114	5
131	131	12
32	33	3
56	81	2
29	29	8
56	56	13
35	37	1
109	109	7
31	187	2
191	191	11
135	138	1
170	172	5
6	6	20
27	31	6
163	163	18
15	37	9
76	78	1
170	170	13
185	185	8
107	108	8
87	88	9
82	85	1
36	36	9
94	96	5
177	178	5
112	112	10
118	118	7
100	100	12
33	33	9
49	49	10
1	1	13
162	162	7
34	34	7
121	121	6
8	15	3
147	147	12
170	171	5
140	143	3
180	180	8
156	156	12
52	52	16
34	35	8
113	116	10
22	24	8
55	101	3
30	31	1
153	153	8
63	64	2
37	37	9
147	152	2
195	195	6
40	41	11
44	52	4
18	18	14
67	68	5
40	40	11
5	18	3
171	179	1
35	35	12
165	167	5
191	192	6
2	5	3
21	22	13
10	138	1
5	5	7
146	146	3
160	160	13
130	130	9
147	148	9
121	122	1
179	179	16
160	189	2
74	74	11
194	194	3
146	148	5
99	99	12
132	132	3
135	136	2
164	164	10
187	188	6
8	8	9
18	19	2
154	154	5
60	60	6
103	103	8
85	88	3
169	170	3
146	163	1
141	141	4
184	184	9
66	66	8
101	101	14
23	23	11
62	62	9
3	3	15
127	127	2
193	193	8
197	197	11
133	139	6
17	17	9
151	151	14
43	43	15
125	126	3
139	139	9
119	119	13
46	46	14
36	37	7
83	89	1
182	182	9
173	177	3
56	57	8
157	157	17
178	178	7
4	6	5
35	36	5
134	140	1
12	12	19
96	108	1
157	158	3
120	156	2
42	42	6
105	105	11
116	116	13
77	77	3
142	195	3
85	85	1
94	140	3
159	162	1
9	10	11
183	185	2
154	155	6
177	177	11
184	187	4
83	98	2
107	107	5
32	34	1
62	63	5
187	189	2
170	174	2
143	146	5
28	28	11
84	84	7
106	106	2
113	151	5
1	2	7
19	19	8
167	167	10
158	158	13
41	41	11
153	155	5
170	181	2
19	20	5
17	18	7
106	107	4
146	176	2
190	193	2
176	176	6
51	53	5
113	113	6
189	190	4
165	166	6
3	183	1
159	159	15
194	196	3
48	48	11
12	184	1
35	104	1
151	153	1
110	146	9
186	188	2
4	4	5
189	189	7
186	186	5
94	95	5
134	173	3
139	140	10
174	174	9
8	58	1
22	22	6
165	165	9
28	29	2
14	14	14
45	46	6
87	87	10
9	9	21
14	51	3
190	190	8
177	187	4
108	108	4
51	51	20
37	38	8
26	59	2
114	114	8
24	26	3
32	32	6
54	56	8
168	168	16
76	76	3
88	89	3
25	26	6
136	136	13
172	172	6
82	83	1
95	95	5
145	146	4
0	3	4
104	106	1
67	67	9
196	197	8
102	102	7
140	165	2
0	2	4
7	8	4
118	119	9
31	31	8
171	172	2
149	149	7
150	150	7
183	184	3
168	170	6
115	116	4
115	115	3
41	102	3
126	126	3
104	146	2
152	156	3
153	154	2
148	149	11
71	74	2
70	71	1
136	137	1
116	117	5
25	191	1
34	36	1
168	169	1
142	148	2
117	117	9
25	28	1
89	89	4
26	27	8
122	154	1
68	68	4
16	17	7
196	196	11
118	120	1
5	7	8
53	53	3
134	139	1
155	157	3
155	158	7
78	78	9
2	2	3
63	63	3
21	21	7
192	192	4
7	7	7
6	7	6
42	43	5
74	86	2
20	20	3
82	82	1
53	54	6
109	110	6
104	104	1
21	30	3
100	101	1
21	23	5
123	126	2
52	53	2
143	144	5
161	164	2
96	96	3
152	152	4
144	144	18
103	104	12
94	97	1
146	147	4
10	11	2
105	106	3
3	5	10
183	183	4
50	50	4
11	11	9
156	159	2
99	100	1
36	103	4
0	0	15
154	157	6
25	32	1
2	3	2
133	133	9
30	30	14
58	59	2
14	140	4
29	31	1
123	123	12
46	107	3
54	54	9
181	182	3
53	156	1
149	152	1
47	47	4
66	67	3
13	13	4
70	72	1
118	162	2
174	175	3
25	25	3
69	69	2
173	173	12
110	110	14
181	181	4
97	98	4
129	140	5
55	55	8
4	9	6
148	148	12
13	15	2
23	36	4
124	125	2
18	21	4
39	40	3
71	72	1
26	28	3
78	79	1
24	24	1
5	169	2
93	108	1
38	39	2
11	13	4
12	13	2
176	179	2
187	187	3
61	63	1
165	168	1
86	86	7
12	32	1
58	64	1
102	103	5
16	16	9
9	12	3
19	39	3
114	115	5
165	182	2
89	90	4
10	10	10
171	171	13
27	27	4
22	23	3
7	28	2
175	178	2
57	58	1
111	112	1
130	131	1
166	181	1
188	188	5
187	197	2
15	15	3
61	62	1
27	28	1
58	58	11
50	51	3
33	38	2
159	160	2
105	107	5
151	152	2
121	123	5
19	21	1
53	71	2
122	123	1
185	188	3
188	190	1
24	25	4
192	193	7
154	156	1
25	29	3
39	39	4
88	88	5
6	29	1
180	182	3
33	39	2
138	138	4
24	27	2
158	159	2
120	120	3
7	22	3
84	85	1
59	59	1
155	155	8
112	113	6
77	79	2
130	154	4
23	35	1
70	70	2
171	183	1
131	139	1
93	93	2
47	97	2
3	4	1
48	49	4
145	145	5
26	26	7
79	79	1
152	155	4
73	73	5
73	86	3
71	73	1
79	80	1
142	142	2
53	55	2
15	162	1
39	42	1
108	109	2
150	161	3
179	180	2
76	80	1
38	38	2
140	148	4
25	192	1
122	122	8
161	161	3
135	140	2
135	135	3
7	26	2
6	24	1
20	143	1
182	183	2
109	111	1
178	187	1
175	175	3
12	16	1
10	12	1
188	189	1
156	157	2
111	111	7
76	77	3
37	103	1
173	176	2
25	188	3
95	96	2
0	6	1
78	82	1
143	143	1
54	55	2
115	118	1
147	175	2
116	120	1
153	157	1
53	56	3
156	189	1
83	83	4
98	99	1
128	128	2
43	57	2
141	142	4
90	90	4
27	32	4
8	176	3
163	164	3
98	100	1
166	171	1
111	125	2
55	56	2
80	80	3
157	168	2
113	119	1
180	181	1
176	187	1
120	121	1
167	168	2
59	60	3
176	178	4
8	177	2
191	194	2
23	24	1
95	98	1
189	191	1
61	64	1
5	8	2
80	81	1
166	166	2
8	9	1
100	104	1
113	120	4
163	180	1
8	10	2
164	166	1
152	163	1
74	75	2
110	145	3
56	58	1
182	194	2
12	46	1
132	142	1
77	78	2
132	133	3
71	71	1
100	103	2
121	153	1
153	191	2
65	66	1
184	186	1
64	64	1
31	33	1
124	124	2
23	33	1
169	172	2
3	7	2
69	70	2
36	38	1
16	38	2
63	65	2
64	65	1
185	186	4
14	15	1
157	170	2
141	143	1
140	140	2
50	148	1
130	141	1
55	100	2
143	175	1
36	39	1
149	150	1
82	86	1
97	97	1
186	187	2
13	52	1
137	137	1
46	47	3
8	138	1
143	147	2
181	183	2
128	156	2
135	137	1
195	197	1
166	170	3
166	183	1
7	23	1
161	163	1
17	40	1
122	124	1
47	48	1
189	192	1
4	29	1
103	106	2
129	197	1
172	173	2
193	194	1
173	178	1
166	167	1
45	48	1
144	148	1
169	174	1
163	185	1
158	169	1
152	160	1
64	67	1
20	36	1
