19	19	13
109	109	14
21	22	2
79	79	5
10	10	22
64	65	4
36	36	3
75	75	12
130	130	16
78	78	13
117	117	2
106	106	9
37	37	14
9	9	14
97	98	6
103	103	8
122	122	15
22	22	25
56	56	13
4	4	10
8	9	17
87	88	8
83	83	10
18	20	9
120	122	5
34	35	6
69	69	16
39	98	1
70	70	24
7	10	3
5	5	16
125	125	16
101	101	4
62	62	5
113	113	6
108	119	2
137	139	1
30	31	4
14	15	9
17	17	19
133	133	17
33	34	10
41	42	6
49	49	7
125	134	6
94	96	3
29	29	9
40	50	1
87	87	6
117	118	9
12	14	2
4	24	2
11	14	1
79	83	3
102	103	6
86	86	13
40	47	1
74	74	5
149	149	20
34	34	15
152	152	12
27	31	4
139	139	10
39	40	7
16	16	13
137	143	2
54	54	28
144	145	3
21	24	9
120	120	5
127	128	3
27	27	7
20	20	14
38	38	11
8	8	12
44	44	21
47	53	2
143	143	9
37	117	5
99	99	7
115	116	10
40	41	9
73	73	9
23	44	3
12	13	8
47	47	21
80	80	5
23	23	12
26	28	2
48	48	10
19	20	11
92	98	3
3	19	3
39	49	2
122	125	3
30	30	6
123	134	7
25	25	20
118	118	9
153	153	10
12	12	15
67	67	14
68	69	10
73	93	4
76	76	17
123	123	15
134	135	6
85	85	4
116	116	7
150	154	3
45	46	26
107	107	10
85	87	3
14	14	12
100	114	2
66	66	5
114	114	11
42	42	10
78	81	2
21	21	10
106	108	1
131	131	7
15	67	3
4	26	2
40	80	2
43	43	3
41	41	24
142	142	6
34	37	2
40	40	13
73	102	1
105	105	4
124	124	9
123	132	3
110	110	14
69	72	8
33	49	6
122	130	4
28	28	3
71	72	8
136	137	1
95	97	4
5	27	2
43	129	2
68	68	25
41	43	3
9	18	3
57	63	2
128	128	9
8	19	6
3	22	2
121	129	4
130	138	1
24	24	19
83	84	7
78	79	1
48	50	3
136	136	3
13	13	12
53	89	3
15	15	10
51	55	4
32	32	5
119	119	11
94	95	13
116	118	4
92	95	6
39	39	6
57	57	5
123	125	6
65	65	9
77	80	4
115	115	5
49	50	6
130	131	7
7	7	2
86	87	12
107	117	2
105	128	2
56	84	1
96	96	9
137	144	2
27	29	1
66	68	6
13	14	3
47	48	4
23	39	1
13	31	7
56	80	3
147	147	4
45	45	6
93	114	4
35	114	1
77	77	13
18	18	19
30	32	2
46	46	12
88	88	2
98	99	9
125	154	1
101	102	2
53	54	2
137	137	6
54	55	4
105	119	2
154	154	2
122	129	4
141	141	5
33	33	12
4	5	6
37	44	1
119	120	2
2	3	2
140	140	10
111	111	4
150	152	1
43	44	3
99	100	7
73	75	2
135	135	5
10	11	5
150	151	2
38	39	7
22	23	11
141	146	3
107	110	6
55	68	1
15	16	9
35	35	4
51	51	4
53	73	1
149	150	1
44	96	3
8	10	3
12	142	4
61	68	1
67	68	7
53	67	1
30	48	1
16	17	8
36	42	1
106	107	6
109	110	2
19	24	2
27	28	4
132	132	10
79	80	2
8	15	2
127	148	2
48	49	2
90	112	4
49	51	6
100	102	7
5	6	2
93	93	5
11	30	2
116	117	4
102	102	2
132	133	6
20	21	4
21	28	1
24	25	1
57	77	4
34	41	3
97	112	2
53	53	14
53	70	1
131	132	3
130	147	1
71	71	8
18	24	3
104	104	5
97	97	7
50	50	7
74	90	1
152	153	3
42	43	2
129	129	4
37	38	1
26	26	4
121	121	2
68	87	2
34	66	2
138	144	4
150	150	2
32	34	1
105	106	2
128	130	1
30	49	4
76	77	4
44	45	1
129	135	1
94	128	3
66	67	4
49	94	1
81	82	1
76	78	2
93	94	3
125	126	1
73	103	2
17	20	1
6	25	9
51	52	3
108	109	3
115	120	2
73	74	3
96	97	2
69	71	1
3	21	2
100	100	5
87	129	3
84	84	1
85	130	2
18	19	5
143	150	1
55	55	4
98	98	4
29	33	4
13	22	4
96	117	2
77	78	5
82	138	1
10	41	4
95	96	3
64	64	5
31	31	8
7	9	3
9	10	3
53	57	1
57	67	2
81	136	2
75	76	2
80	82	2
57	69	2
3	3	2
47	100	2
126	147	2
104	120	2
138	142	1
14	22	3
45	96	1
113	114	2
109	150	3
88	90	2
49	99	5
123	124	3
107	112	1
63	64	1
8	34	1
85	90	3
35	36	1
71	73	3
107	109	2
112	112	3
13	27	3
93	128	2
9	15	4
94	94	5
100	120	2
6	6	5
92	99	1
122	123	2
58	58	3
35	42	3
137	138	3
53	77	3
77	82	1
78	82	1
121	122	1
57	84	1
31	49	1
124	146	3
112	113	1
17	19	2
11	11	2
122	148	1
81	81	2
141	142	7
93	98	3
136	144	3
123	131	4
124	136	2
127	127	2
72	73	4
123	129	1
43	51	1
50	52	3
123	130	1
38	46	1
62	63	2
80	81	2
17	18	1
133	134	1
57	58	3
19	48	2
27	48	4
70	71	2
37	116	2
138	138	2
101	114	3
75	84	1
63	68	3
27	30	3
148	149	3
32	121	1
146	147	1
86	91	2
43	83	2
12	139	1
14	68	1
39	44	2
31	32	3
40	78	1
3	10	1
115	122	1
130	134	1
10	12	1
63	63	3
15	24	1
75	98	1
144	147	1
126	126	2
14	16	2
12	42	2
13	25	1
95	95	1
35	116	1
86	88	4
122	127	2
37	46	1
13	30	3
146	146	1
38	45	2
72	85	1
25	26	1
73	85	3
40	68	1
136	138	2
11	25	1
52	103	1
14	17	1
138	139	2
53	55	2
32	111	1
133	135	1
12	41	1
111	115	1
39	41	1
40	115	1
76	94	1
120	126	1
145	146	1
78	97	1
44	94	1
47	49	1
145	145	1
8	16	2
107	114	1
29	30	1
92	92	1
5	10	1
63	79	1
31	34	2
129	132	1
69	70	1
69	84	1
91	91	1
18	21	1
72	72	1
129	130	2
131	133	1
36	51	1
108	110	1
17	21	1
56	76	1
13	24	1
53	79	1
76	101	1
