63	104	4
27	28	1
28	28	3
42	43	5
135	137	2
62	62	5
1	51	2
42	42	3
140	140	7
2	3	2
23	24	1
57	57	1
116	132	1
22	24	2
75	76	2
41	41	3
66	66	1
74	75	2
86	92	4
120	122	5
47	47	4
107	107	7
129	142	4
12	12	7
47	55	2
47	51	2
67	68	3
65	65	6
146	146	2
118	132	1
120	120	6
23	26	1
60	116	2
36	61	3
82	82	1
110	123	3
26	26	2
124	124	2
10	10	5
37	62	1
31	31	6
118	118	6
131	131	3
121	129	2
123	141	2
53	54	3
96	116	1
104	111	2
25	26	3
29	29	2
50	51	1
25	57	2
60	124	1
28	29	2
15	15	3
105	106	1
4	86	1
64	92	1
32	32	6
60	60	2
132	134	3
24	32	3
89	98	2
55	55	10
24	27	1
0	31	2
138	138	5
20	21	1
76	78	2
25	25	2
48	50	3
110	118	1
34	86	3
64	65	1
143	143	2
136	136	1
135	135	4
111	111	4
32	134	3
93	114	2
68	104	1
72	88	2
39	39	2
79	79	3
121	126	3
129	129	2
59	59	5
135	136	4
50	53	3
104	108	4
76	76	2
128	130	2
145	145	1
90	90	1
112	113	1
141	141	5
0	0	3
40	40	1
18	18	2
51	51	1
107	130	2
117	132	2
30	30	1
85	110	2
67	67	3
32	38	2
33	41	2
117	121	1
76	77	6
101	102	2
118	124	1
14	14	1
22	22	4
19	19	1
5	16	2
37	37	1
138	139	2
33	33	3
73	75	2
36	36	3
104	104	3
128	128	3
133	134	3
120	121	1
114	126	5
93	94	3
3	4	2
15	35	2
49	49	2
37	101	3
64	64	2
95	96	3
22	23	4
87	88	1
133	133	3
127	129	3
105	105	2
140	143	1
12	13	3
73	85	3
4	4	2
72	73	1
82	87	3
58	58	1
20	20	1
122	123	1
127	128	2
48	64	1
77	78	3
40	57	1
74	74	2
142	142	2
116	116	1
130	131	3
60	64	1
6	6	2
103	103	1
119	120	2
80	90	1
132	135	2
112	120	1
87	87	1
71	109	1
60	85	1
127	127	2
54	55	4
88	88	1
19	21	3
50	64	1
23	23	1
126	126	2
32	33	1
24	24	1
68	110	2
83	84	1
99	100	1
112	112	1
5	85	1
5	9	1
57	58	1
86	86	1
133	139	1
132	132	1
114	114	2
81	81	1
38	102	2
137	137	1
87	91	1
13	21	1
35	36	1
43	86	1
114	140	1
107	108	1
19	20	1
63	64	1
21	134	1
11	138	1
125	125	1
80	80	1
8	8	1
2	66	1
36	39	1
