5	5	21
130	130	19
98	98	13
127	127	16
48	48	10
30	30	25
8	9	5
26	26	9
76	78	5
5	7	3
22	22	11
81	81	20
4	4	8
58	58	5
63	63	19
78	79	2
20	21	6
63	71	1
41	41	14
64	64	8
139	140	3
42	43	2
119	121	2
125	125	22
16	16	11
58	59	3
1	1	10
42	42	16
1	21	3
116	118	8
123	123	7
134	134	15
27	27	5
138	138	11
39	39	16
19	19	13
115	116	3
64	65	9
63	69	2
89	89	8
24	24	17
74	74	29
136	136	15
33	34	4
59	60	6
88	88	9
70	88	13
126	126	18
143	143	16
142	142	13
36	69	2
77	79	3
26	65	1
17	25	3
62	92	4
68	73	5
15	16	8
114	114	10
79	80	3
105	106	7
121	121	16
135	135	15
144	144	19
48	120	1
114	134	1
129	129	3
84	84	11
96	101	4
55	55	11
137	137	21
66	90	1
108	109	5
122	123	8
60	60	13
43	78	1
122	122	11
47	47	6
92	92	13
33	33	5
89	90	9
82	82	8
36	37	12
51	93	2
62	62	7
120	123	6
81	82	4
108	108	10
96	96	19
39	41	2
105	105	14
36	43	5
50	50	7
40	41	2
140	140	7
6	6	13
4	5	9
38	38	20
133	133	17
119	119	22
79	117	3
75	134	6
102	103	5
57	67	1
110	110	7
103	103	14
124	124	31
53	53	17
50	51	4
15	35	2
52	52	5
89	123	2
68	68	15
10	22	2
104	105	14
102	102	12
76	77	3
127	139	4
32	32	15
29	30	4
23	23	20
63	65	2
70	70	4
9	9	14
83	84	18
121	125	1
72	132	3
103	120	3
51	51	19
114	115	3
23	29	4
2	3	8
21	21	6
145	145	17
46	46	1
91	91	13
97	98	5
99	99	13
56	57	1
66	124	3
0	1	4
112	112	5
139	139	22
75	135	7
43	43	9
90	90	7
20	20	19
100	100	8
58	143	4
115	115	14
53	84	5
111	138	2
64	73	1
118	118	12
104	104	3
71	126	2
75	79	3
138	140	3
135	139	2
136	137	9
85	85	3
67	67	12
72	72	13
75	76	2
13	13	3
84	86	4
126	127	4
21	33	5
133	134	5
47	84	2
93	112	2
29	101	5
35	35	16
100	103	1
8	8	22
56	56	7
80	120	2
112	113	9
90	95	2
119	137	4
83	112	3
131	134	2
12	17	3
57	57	18
110	112	4
87	87	2
55	56	11
5	9	5
59	61	4
14	14	11
11	11	8
38	39	5
135	138	1
77	78	7
99	102	3
23	24	11
81	114	3
107	107	8
84	139	1
85	107	1
137	138	2
71	71	15
76	76	6
133	140	2
127	128	2
25	25	16
135	137	3
118	119	6
79	79	11
90	91	5
93	93	5
55	80	4
111	111	6
83	83	6
18	18	7
110	131	2
21	41	2
141	142	3
62	63	4
122	125	2
21	40	1
119	141	3
37	37	20
32	33	5
69	121	3
146	146	6
34	34	7
66	125	4
39	40	3
17	17	16
5	10	2
58	119	1
66	66	14
76	114	3
61	68	2
81	102	3
118	140	1
96	112	4
23	25	2
83	105	1
28	28	14
120	120	15
75	75	4
27	28	1
48	86	3
19	20	4
18	22	3
34	50	2
101	101	6
141	141	14
73	73	9
97	110	3
54	55	1
120	137	1
117	117	15
134	135	3
105	108	6
90	98	1
29	29	14
136	138	7
95	95	9
132	132	11
24	30	7
92	94	1
115	117	3
75	137	6
121	138	1
68	69	4
56	58	3
36	36	2
117	118	2
105	107	4
38	48	1
126	136	3
77	77	11
85	127	1
12	13	7
16	25	7
80	80	6
97	139	2
75	131	4
1	2	3
106	107	1
25	32	2
121	122	2
79	91	1
96	98	2
131	131	4
32	76	2
131	132	4
91	120	2
97	97	9
3	4	2
86	86	2
73	74	5
118	136	5
59	90	2
71	109	1
69	69	3
117	123	2
17	18	5
87	88	4
94	94	10
53	54	5
61	61	5
93	94	4
135	136	7
101	103	1
65	65	4
49	49	4
80	81	2
10	10	6
127	130	2
82	85	2
28	29	1
12	12	7
14	15	2
26	27	5
36	70	1
22	23	2
111	112	4
65	68	1
55	57	2
65	66	2
63	73	2
9	36	2
90	140	3
10	11	6
51	68	2
40	40	5
2	21	3
64	67	1
14	16	2
31	31	8
13	19	1
47	85	5
17	39	3
125	130	4
15	15	2
59	59	9
67	68	6
25	26	3
95	96	6
84	85	1
37	38	3
9	10	3
132	133	2
18	42	2
25	27	2
63	141	2
125	126	2
136	139	3
116	116	6
120	124	2
109	110	1
85	112	2
88	89	4
75	84	3
136	140	2
93	96	2
2	5	4
125	137	1
3	3	13
31	32	1
54	54	8
119	120	2
85	105	1
80	128	1
23	39	1
117	143	1
75	133	1
54	136	2
89	130	3
128	128	15
131	137	5
34	35	2
98	104	1
79	113	1
68	84	1
97	121	2
96	113	4
53	90	1
60	61	3
92	93	7
94	95	5
16	50	2
70	128	3
68	118	2
51	97	3
92	127	1
70	82	1
77	114	2
78	78	2
106	106	3
121	135	1
72	83	2
70	111	1
55	74	2
74	134	1
87	108	1
121	123	3
137	139	1
76	105	1
93	97	2
32	37	2
129	140	3
70	71	1
109	131	3
31	79	1
2	2	3
86	118	3
1	17	2
99	116	2
26	30	1
4	47	1
3	14	1
15	87	2
1	39	3
25	79	1
106	108	3
83	85	1
17	31	2
109	109	3
94	96	3
48	87	1
52	67	1
22	30	2
19	21	2
58	62	1
63	72	2
18	19	2
23	80	1
96	99	2
111	119	1
113	113	2
71	72	3
57	58	1
82	111	1
5	36	1
52	53	3
128	129	3
107	108	1
120	121	2
72	107	1
8	16	2
69	117	1
2	9	1
104	106	1
106	139	1
95	134	1
88	90	1
80	114	1
49	52	2
127	141	1
116	117	1
0	0	2
49	51	1
68	103	1
127	131	1
92	97	1
70	78	1
121	124	1
85	111	1
60	144	1
9	57	1
35	38	1
92	139	1
73	138	1
74	93	1
36	84	1
83	113	2
76	111	1
37	42	1
124	125	2
26	62	1
5	11	1
77	110	1
14	33	2
8	10	1
65	79	1
22	31	1
30	33	1
117	126	1
21	38	1
82	113	1
20	48	1
120	122	1
