134	134	12
21	30	1
61	61	4
51	51	19
172	173	2
48	49	4
162	182	5
3	4	4
47	50	2
178	178	25
122	122	10
79	81	2
121	122	15
73	75	6
163	163	18
117	117	6
154	154	19
191	193	5
17	18	3
62	63	12
167	167	18
45	46	2
143	143	18
24	27	1
73	133	2
168	186	4
76	76	10
68	68	8
57	57	14
101	101	8
169	169	25
40	40	13
141	141	9
142	142	8
113	113	11
26	26	17
40	41	13
147	189	2
94	95	4
8	41	2
194	194	19
110	110	7
23	23	7
58	63	3
146	148	9
59	59	11
53	54	7
145	167	4
21	21	11
107	108	9
44	44	11
176	180	3
90	90	4
76	77	2
27	27	11
130	130	19
182	182	13
112	113	10
192	193	8
4	4	12
34	36	4
148	148	9
150	150	21
115	115	12
62	62	9
34	34	16
172	172	21
103	171	1
109	109	19
58	59	7
18	18	9
133	133	15
157	157	24
57	58	4
83	85	5
170	171	9
116	116	15
24	25	2
167	169	4
98	98	7
78	78	12
170	170	13
71	71	11
138	141	7
149	150	9
104	112	4
87	87	4
113	114	7
180	181	7
186	186	19
65	65	9
75	75	6
197	197	11
8	8	11
13	13	6
107	107	9
20	34	3
189	189	14
190	190	8
196	197	2
148	149	7
64	66	5
159	159	30
173	173	16
26	34	3
106	108	7
139	139	6
0	0	15
63	64	3
185	185	20
83	84	2
114	114	9
187	188	9
146	147	7
18	24	1
162	162	10
158	179	1
138	139	12
129	129	9
190	193	3
46	46	12
184	185	5
97	99	4
179	180	13
190	195	1
60	86	2
42	42	10
187	187	23
177	177	28
59	68	1
29	29	7
118	118	16
84	84	14
74	79	1
45	45	22
140	140	8
71	72	10
46	50	3
176	195	2
156	156	17
74	74	7
168	168	24
149	149	24
83	83	4
61	62	3
161	161	6
124	133	4
119	119	19
151	187	1
166	166	15
81	87	2
100	100	14
149	155	4
195	195	18
10	165	1
7	7	10
160	166	1
19	19	12
158	158	19
33	33	8
177	190	2
163	165	4
180	185	1
9	178	2
123	123	13
189	190	2
125	126	10
173	178	2
102	104	2
164	164	8
1	2	9
165	165	9
160	164	1
96	100	2
117	138	1
136	137	4
44	112	3
128	128	18
47	47	9
194	196	3
12	12	18
109	111	6
174	176	4
59	76	1
173	175	4
23	24	7
132	134	4
119	143	1
67	67	5
127	128	6
144	144	19
165	167	11
30	30	15
2	5	3
103	104	3
30	42	1
19	44	5
120	120	10
88	88	4
126	126	11
104	104	8
118	119	3
17	17	11
110	111	3
37	57	3
120	121	4
181	186	3
43	43	9
138	149	4
37	54	3
39	39	11
99	106	1
25	26	6
165	166	16
134	140	4
126	128	4
108	108	17
151	151	10
70	71	4
160	160	30
172	177	2
12	196	2
12	42	3
175	188	4
119	138	1
169	181	5
188	190	3
12	15	2
173	176	6
127	127	13
76	137	4
80	87	2
0	188	1
181	185	1
1	1	8
130	131	2
147	147	15
154	164	4
145	158	1
10	10	15
24	24	9
105	106	1
190	194	2
144	154	2
67	68	7
132	137	3
126	168	1
85	85	6
173	174	4
50	50	8
5	7	3
137	138	3
174	174	16
32	33	1
155	155	6
67	70	2
102	102	14
3	3	15
106	106	17
53	57	2
134	164	1
11	11	8
12	50	1
49	49	6
37	38	4
129	197	2
22	23	7
24	41	2
96	97	4
108	150	2
64	64	10
138	152	2
15	44	4
144	148	4
156	158	1
79	79	10
188	188	12
59	63	2
10	166	4
121	121	11
137	139	2
15	159	2
52	52	14
179	179	18
95	95	4
116	136	1
140	145	3
134	149	6
181	182	14
161	181	1
163	191	2
193	193	29
101	172	2
131	131	13
64	86	3
133	140	6
154	155	4
143	156	3
187	194	1
77	77	7
15	15	15
9	9	7
26	64	2
194	195	3
38	39	6
81	82	6
124	124	12
175	178	2
175	175	10
183	197	2
175	176	3
5	5	1
109	110	5
19	36	4
154	167	8
39	42	2
156	160	1
117	118	12
8	9	5
152	153	4
83	86	2
31	31	16
125	127	2
33	34	2
36	37	2
149	162	1
87	136	1
180	180	13
21	27	5
86	86	10
28	30	4
77	78	3
160	161	12
179	194	2
160	174	5
128	129	8
41	61	3
146	146	8
54	54	14
25	25	10
178	182	3
171	171	8
32	151	1
142	169	1
133	156	4
119	132	2
163	164	8
164	187	1
28	31	3
6	6	7
157	159	4
54	56	5
70	84	2
179	192	2
86	87	5
50	51	1
104	164	3
151	152	7
181	181	21
8	32	3
113	172	1
37	37	8
74	76	2
42	54	1
145	147	1
73	97	3
183	185	2
185	191	4
112	112	5
165	168	5
16	83	1
145	176	2
40	83	1
142	145	4
161	163	4
103	105	5
28	28	5
125	125	10
172	182	3
145	148	1
192	192	16
156	187	1
41	41	14
0	57	3
3	7	2
105	105	7
163	180	3
43	46	3
103	103	8
153	153	14
79	80	7
101	104	1
5	18	2
153	162	2
97	184	2
89	89	5
177	181	1
144	147	5
39	76	1
4	5	3
32	32	5
176	176	4
51	52	1
100	114	1
16	52	1
55	55	9
28	29	13
48	48	12
94	94	8
31	32	5
132	138	1
20	21	10
43	45	1
36	138	2
191	191	8
80	80	8
150	160	2
63	63	8
54	55	13
4	10	1
104	111	1
101	105	1
101	106	2
141	174	1
35	74	3
98	122	1
75	114	3
22	22	8
137	173	1
133	134	3
20	20	6
115	118	8
22	64	1
136	136	7
163	184	2
61	64	2
139	140	5
135	136	5
35	59	3
174	183	1
65	66	1
80	83	4
126	127	4
6	159	3
148	153	4
157	170	1
38	38	16
59	77	2
116	159	3
124	125	1
142	182	1
113	115	4
15	33	1
147	150	2
0	1	4
36	36	11
43	44	3
16	16	13
191	192	4
36	38	3
7	8	4
189	196	2
183	183	26
90	106	2
16	17	7
172	174	4
143	155	2
145	145	7
53	78	1
3	6	3
59	62	1
184	184	15
155	158	2
195	196	5
158	188	1
47	53	2
192	194	4
167	172	2
34	35	4
63	86	2
167	168	9
26	27	5
82	83	2
122	141	2
98	101	3
12	13	3
72	72	6
190	197	2
13	51	3
5	10	2
58	58	6
133	135	4
142	155	3
9	127	1
111	111	3
162	163	5
69	69	4
137	147	1
135	161	2
4	18	2
20	64	1
122	123	1
152	154	1
158	159	3
112	140	1
36	40	1
184	188	2
35	42	2
177	195	4
122	144	3
156	190	2
175	180	2
132	132	3
76	139	1
151	164	2
178	179	1
28	52	1
166	167	7
133	141	1
144	145	1
119	188	2
186	187	3
35	35	8
9	11	3
9	37	3
152	152	4
176	178	1
104	105	5
147	148	4
28	57	2
53	53	7
137	137	2
165	172	2
10	11	5
111	113	2
151	154	2
184	187	3
143	144	2
89	112	1
153	154	6
62	64	2
104	163	2
159	160	1
72	133	3
146	187	1
118	136	2
4	14	1
15	23	2
182	183	1
87	88	3
155	157	1
20	23	1
7	25	2
120	130	2
33	41	2
116	117	1
70	70	8
187	195	1
167	170	1
98	129	1
155	166	2
15	32	1
144	178	2
143	161	2
14	14	4
109	119	1
113	141	1
156	161	1
22	26	3
5	6	1
98	99	1
81	81	5
119	141	2
82	85	5
49	52	2
14	52	2
134	135	4
170	186	3
15	183	3
153	188	3
155	160	1
144	169	1
119	120	8
155	156	5
82	82	2
174	175	10
69	70	2
116	118	1
102	103	1
177	178	3
13	196	2
13	14	2
56	56	2
174	181	1
161	164	2
2	2	4
6	7	2
15	160	2
56	58	3
102	105	3
35	41	2
165	173	4
0	71	1
118	121	2
157	162	3
108	110	3
119	137	1
132	135	2
160	182	1
19	25	2
24	26	1
14	50	1
196	196	5
40	64	3
19	22	4
47	48	1
178	181	2
151	158	3
170	189	3
5	19	4
176	181	3
150	164	3
26	28	3
132	133	2
4	6	1
28	56	1
172	175	3
3	5	2
59	67	2
95	97	1
93	94	1
151	167	2
168	169	10
67	75	1
68	86	1
60	74	1
157	160	2
164	170	1
13	50	4
18	20	3
100	101	2
182	186	2
143	168	1
111	112	3
135	164	1
56	89	1
11	150	2
62	166	1
55	128	1
135	139	2
157	158	3
130	138	2
18	22	1
93	93	2
35	36	5
37	40	1
16	20	4
59	69	3
144	152	2
99	107	2
132	141	6
190	192	1
146	163	1
88	89	2
86	89	2
117	147	2
20	22	4
99	99	1
0	14	3
62	104	2
135	135	6
11	156	2
147	167	2
96	96	2
160	162	1
149	194	1
54	61	2
96	102	1
117	143	1
114	170	1
99	100	2
119	179	1
178	180	1
99	141	2
138	138	1
77	87	1
119	122	3
153	164	3
67	84	1
120	154	2
152	168	1
126	189	3
68	70	1
63	104	2
3	40	1
186	188	3
156	157	1
156	189	2
168	182	2
150	152	1
176	177	4
26	30	2
56	61	3
0	3	2
183	184	4
57	169	1
152	159	2
157	161	1
185	188	1
113	125	1
125	159	3
171	172	2
164	165	2
88	121	2
161	162	2
61	63	2
156	159	2
155	173	1
5	45	1
22	41	1
60	69	1
55	61	3
162	186	1
25	27	2
66	66	4
5	8	1
30	31	2
100	169	1
19	21	1
171	195	1
62	150	1
138	144	1
141	142	1
80	81	1
121	128	1
42	46	3
121	132	2
133	148	1
188	193	1
36	167	1
96	133	2
145	146	1
138	147	1
46	47	1
139	143	1
14	35	1
156	165	1
1	39	1
178	187	1
89	113	3
158	181	1
29	58	1
162	164	3
146	157	1
21	22	2
37	43	1
26	61	1
166	184	2
118	135	1
48	77	1
166	169	1
132	136	2
139	174	1
7	193	1
81	85	1
155	188	2
93	95	1
67	83	1
55	165	1
180	192	1
23	43	1
19	26	3
18	21	2
186	193	2
25	58	2
93	100	2
13	15	1
21	31	1
114	125	2
148	150	1
144	155	1
6	8	2
59	61	1
9	36	1
73	73	2
153	180	2
97	97	3
142	147	2
137	140	1
142	151	1
0	2	1
134	170	1
190	191	1
193	194	3
41	42	1
2	3	1
95	114	2
8	24	1
103	113	2
171	189	2
191	197	1
25	43	2
178	190	1
132	147	1
17	20	1
121	155	2
182	187	2
139	152	1
27	57	1
60	60	3
144	158	1
114	115	1
52	53	2
153	161	1
99	109	1
27	34	1
106	150	2
14	17	1
188	194	3
169	170	2
12	148	1
187	189	3
9	47	1
158	190	1
26	35	1
101	113	1
112	115	1
129	132	1
73	131	1
117	119	1
178	193	3
44	51	1
172	183	1
35	75	1
73	74	2
42	43	1
180	182	1
178	192	1
110	116	1
0	4	1
120	123	1
23	30	1
22	30	1
98	115	1
138	165	2
8	159	1
72	73	1
120	157	1
179	193	1
31	46	1
145	155	1
6	26	1
8	38	1
175	177	1
170	181	1
34	41	1
168	171	1
55	56	1
143	157	1
119	165	1
66	69	1
90	104	1
28	117	1
115	125	1
32	45	1
167	186	1
58	66	1
73	94	1
146	186	1
36	39	1
45	52	1
140	155	1
135	138	1
136	170	1
177	179	1
154	157	1
23	54	1
75	76	1
187	193	1
41	46	1
168	190	1
68	82	2
7	35	1
80	86	1
143	158	1
111	174	1
86	110	1
135	146	1
128	135	1
37	42	1
