157	157	7
22	22	3
68	68	4
75	123	1
80	87	4
125	126	2
83	84	2
111	112	1
19	20	1
31	47	1
111	111	4
129	138	2
123	124	7
49	132	1
71	126	1
122	122	5
7	7	10
127	127	3
17	17	8
82	82	7
151	151	3
131	133	2
77	79	2
120	122	2
110	110	3
121	122	3
97	97	3
158	158	6
57	57	5
131	131	7
102	103	2
124	124	5
125	125	1
67	67	4
40	145	2
152	152	9
99	99	4
55	55	4
116	116	7
148	149	3
26	27	6
78	85	1
8	12	3
90	90	4
113	114	2
78	78	3
81	86	1
32	51	4
18	18	4
41	42	5
145	146	6
131	132	1
33	125	1
132	155	3
155	155	10
102	102	1
71	71	6
85	85	7
3	3	3
91	91	1
90	91	3
88	89	3
116	118	2
89	90	2
37	38	1
51	51	7
1	2	1
62	71	2
9	10	2
137	137	5
95	96	5
77	77	5
146	146	2
5	5	5
66	66	2
145	145	5
52	54	1
87	88	2
73	74	1
47	48	2
101	101	4
12	12	2
147	148	3
66	94	2
41	50	1
56	56	2
50	55	1
83	83	11
89	89	5
113	113	5
23	23	2
130	130	1
50	52	4
139	139	2
19	38	2
136	137	2
152	155	3
45	45	2
147	147	5
120	130	1
10	10	4
48	50	2
20	20	6
23	25	2
131	139	1
131	155	2
104	104	3
81	82	3
6	6	5
142	146	4
148	148	1
32	36	2
70	70	2
94	94	3
71	158	3
43	43	4
112	112	4
126	126	9
67	68	1
45	46	2
26	26	3
134	134	5
146	148	3
98	116	3
121	121	6
42	42	2
103	129	5
135	135	5
46	46	5
119	119	2
153	153	1
18	19	3
16	16	8
49	49	6
96	96	9
105	105	5
69	70	3
64	64	4
39	39	2
107	107	9
90	133	1
139	144	2
14	15	1
95	95	1
44	44	4
68	144	2
48	56	2
4	5	1
138	138	2
50	50	4
109	109	2
86	87	2
35	35	3
53	54	2
134	135	3
18	20	2
123	123	8
11	15	1
143	143	2
76	77	4
69	69	3
52	52	3
156	157	3
136	136	4
25	29	1
31	32	1
92	92	1
33	33	1
53	53	2
136	154	1
27	27	2
8	8	1
4	4	5
55	103	4
49	133	2
24	24	1
103	103	5
0	0	1
153	156	2
16	42	1
111	130	1
2	3	1
88	153	1
127	129	2
38	41	2
37	37	2
114	114	5
103	107	1
155	156	2
68	69	3
115	117	1
11	16	4
76	81	3
5	129	3
136	152	2
13	13	2
68	95	2
106	106	5
93	94	3
66	134	2
115	115	1
18	35	2
151	152	1
144	147	2
40	40	1
87	89	2
46	47	2
73	73	4
95	107	4
102	112	1
28	29	1
133	133	2
132	134	4
79	87	1
108	108	2
152	158	1
139	155	1
21	34	2
30	37	2
33	152	1
83	85	2
48	48	3
38	38	3
56	92	3
15	39	1
67	133	2
115	134	1
107	129	1
36	37	2
16	39	1
30	51	1
32	50	1
57	119	4
109	116	1
91	103	1
82	119	1
140	140	3
30	30	1
85	119	1
77	80	1
129	151	3
107	117	2
94	95	1
36	36	3
2	2	3
40	56	1
25	26	1
129	129	3
9	11	1
14	95	2
29	29	2
133	154	2
43	100	1
118	118	2
34	34	4
75	75	6
80	119	4
158	159	2
112	114	1
14	14	2
87	87	1
149	150	1
132	132	5
34	124	1
62	63	1
47	47	1
25	25	1
46	139	1
115	116	2
156	156	2
77	78	7
64	109	1
65	65	1
127	128	2
147	158	1
94	96	1
53	81	1
141	141	1
148	154	1
125	128	1
66	103	4
21	21	2
93	93	1
144	146	1
132	133	1
121	132	1
53	71	3
7	27	1
105	106	1
10	15	1
15	38	2
48	52	1
137	138	4
9	51	1
24	25	2
145	147	1
146	157	1
108	119	2
13	14	1
50	51	1
1	46	1
122	123	1
96	97	3
68	142	1
131	140	1
41	41	1
105	136	1
30	31	2
154	154	1
129	130	1
142	142	1
48	49	1
131	135	2
77	82	1
15	15	1
70	71	1
54	54	1
24	43	1
148	150	2
88	88	1
87	98	2
154	155	1
81	81	1
123	131	1
16	49	1
17	19	1
143	148	1
92	156	1
56	131	1
52	53	1
64	90	1
148	157	1
72	157	1
137	157	1
104	105	1
23	33	1
79	79	1
