83	83	6
99	99	8
17	17	9
63	63	18
15	15	2
65	89	2
55	55	7
59	59	4
81	81	8
100	100	2
126	126	9
137	137	5
37	37	5
153	162	3
122	122	9
87	87	9
30	40	2
149	149	5
146	146	10
80	80	2
102	107	4
27	44	1
31	31	5
169	169	16
104	104	4
7	15	7
156	158	4
72	72	7
1	1	12
128	129	4
144	145	2
145	145	11
108	108	5
14	15	14
155	155	9
163	163	12
89	103	2
94	94	18
19	19	8
129	129	2
72	73	1
140	153	3
102	102	2
92	94	4
20	20	5
178	178	5
28	28	11
10	10	11
10	11	3
87	131	4
24	29	1
7	18	5
17	19	2
142	142	7
62	62	4
92	92	4
155	168	3
23	23	11
133	146	4
95	95	10
38	38	4
87	103	3
174	174	3
112	135	3
136	157	3
93	93	1
71	72	1
85	103	2
137	150	3
29	29	7
123	124	6
8	12	1
13	18	1
52	59	5
96	96	2
120	162	2
124	124	4
71	71	9
8	9	5
5	5	8
166	167	1
117	117	8
20	23	2
6	7	2
24	25	6
150	161	2
90	107	2
40	40	3
11	12	1
143	144	2
14	14	10
5	6	9
57	57	7
145	146	4
8	8	11
100	101	8
18	18	5
135	135	7
5	18	4
9	11	1
111	111	2
39	39	7
157	158	2
115	135	6
79	80	2
177	177	9
11	13	2
123	123	6
9	10	4
43	43	7
51	52	3
31	32	7
22	22	10
176	176	6
130	130	9
142	143	3
26	27	3
39	43	1
174	176	5
154	165	3
0	0	13
8	15	1
40	41	3
66	66	6
28	29	4
19	20	4
53	80	3
43	113	2
152	152	4
160	165	1
155	156	2
114	162	3
37	38	4
40	60	5
68	75	2
152	158	2
60	61	4
89	112	3
116	116	6
25	25	7
79	79	1
3	17	1
126	128	1
124	153	6
87	88	4
109	109	7
134	134	5
74	74	1
89	114	3
124	125	2
149	150	2
167	171	1
13	15	1
0	14	1
153	153	12
53	63	1
154	155	4
22	28	2
7	7	4
21	21	9
147	147	6
22	23	1
30	30	2
164	164	3
154	154	2
174	178	10
133	133	5
115	116	2
134	136	1
154	169	1
24	24	7
4	5	6
120	121	3
49	51	4
165	165	4
65	81	3
1	12	1
81	82	3
99	100	8
143	143	5
165	166	3
164	178	4
4	4	1
169	174	1
144	144	1
35	35	7
91	93	5
39	45	5
148	148	3
91	92	1
28	109	2
136	161	6
74	75	2
3	3	2
143	180	2
4	15	4
21	23	3
25	32	1
138	138	5
103	104	1
13	13	5
32	32	5
61	73	1
35	37	1
32	110	1
97	105	1
114	114	7
92	96	1
174	175	3
121	170	2
128	128	2
38	172	1
158	159	1
155	161	1
114	135	6
146	150	1
76	77	3
103	103	1
103	106	4
131	131	6
107	108	5
21	37	2
129	162	1
34	34	2
49	67	4
41	42	6
2	2	6
158	180	2
138	142	1
77	77	1
75	75	1
100	104	2
160	160	2
73	73	3
159	159	2
5	8	1
11	11	3
113	113	1
32	64	4
104	107	2
26	26	7
159	180	2
28	30	3
67	88	1
54	55	4
34	36	3
6	17	3
9	18	3
147	148	2
162	162	3
153	155	4
141	141	3
25	26	2
13	65	3
12	12	4
118	118	3
107	109	1
15	18	1
23	24	5
63	91	2
46	46	1
120	120	4
172	173	1
8	14	3
153	154	1
130	162	1
167	178	1
140	143	1
58	58	1
76	76	1
117	164	2
39	40	5
88	114	3
169	175	1
135	142	1
80	81	4
50	51	4
60	60	2
103	126	4
106	107	1
110	110	1
157	157	2
156	167	2
65	66	2
168	169	4
53	53	2
42	43	4
36	36	1
67	67	3
83	85	1
89	89	2
111	114	1
40	42	1
35	41	1
101	105	4
96	97	1
82	84	3
126	155	5
156	156	1
50	55	1
44	44	1
151	151	4
7	8	2
144	147	2
101	113	1
155	167	1
136	159	1
158	168	1
45	45	5
33	33	3
53	82	1
55	56	3
54	79	1
154	156	1
27	40	2
143	145	4
52	80	2
109	180	2
114	128	1
7	9	1
56	56	5
110	160	2
168	168	1
59	61	2
88	88	2
3	9	1
19	21	2
56	62	1
73	74	1
151	157	2
110	135	2
117	163	1
6	6	1
90	91	1
145	153	1
141	167	1
58	59	1
18	20	1
9	9	2
98	101	1
103	131	2
35	36	1
8	31	3
3	4	1
31	60	2
115	117	1
111	178	1
175	175	1
103	107	1
33	79	1
78	78	2
61	61	2
84	84	2
45	93	1
160	162	2
86	125	2
41	41	2
121	121	1
144	171	1
17	20	1
16	16	1
104	106	2
91	107	1
119	120	1
88	89	1
5	21	1
32	35	1
4	8	1
156	170	2
27	28	2
3	7	2
159	163	1
173	173	1
12	13	1
71	73	1
155	159	2
168	175	1
141	166	1
136	136	1
44	131	1
25	29	1
119	119	1
96	98	1
144	180	1
164	165	1
50	52	1
130	144	1
171	171	1
52	53	1
