12	12	21
27	27	18
79	79	14
13	15	2
173	173	17
66	66	17
200	200	7
162	164	2
208	209	1
1	29	1
124	125	11
98	98	11
149	184	5
134	164	4
64	65	3
106	106	9
14	14	13
51	52	26
11	11	24
6	11	1
172	172	16
202	218	3
170	170	7
71	71	19
237	238	7
74	96	2
171	171	4
73	145	1
1	1	14
88	88	5
209	209	11
58	58	11
209	210	4
178	179	7
125	126	1
239	239	5
191	191	5
238	238	8
124	143	5
184	192	3
143	190	2
211	226	1
104	104	21
123	125	4
154	155	4
41	41	6
120	172	2
149	238	5
231	232	5
107	107	15
227	227	10
43	43	13
12	17	4
83	83	4
62	79	4
220	220	13
59	66	9
205	233	2
32	32	12
35	36	4
74	86	4
71	74	3
236	237	4
210	211	1
39	39	15
203	203	6
73	73	8
154	154	7
77	84	5
133	161	2
114	115	4
101	101	3
74	78	6
170	171	3
183	191	1
30	31	2
11	69	10
176	176	10
213	215	1
152	152	9
25	25	14
155	221	4
161	161	7
220	221	7
216	216	5
74	113	2
193	194	4
222	222	6
77	77	12
28	28	18
118	118	7
214	214	2
122	122	8
235	235	21
158	168	2
156	180	2
56	58	2
153	153	9
130	130	14
173	186	2
145	234	1
129	130	7
68	69	2
5	6	1
85	85	11
102	102	15
109	109	2
14	15	4
19	19	14
195	195	11
21	194	4
162	163	5
116	116	9
158	176	1
33	203	4
95	95	4
81	82	5
9	9	8
11	12	5
160	160	2
60	66	1
133	135	8
20	68	1
211	211	9
48	49	4
79	80	3
23	23	5
74	74	18
140	179	2
129	129	6
207	207	10
157	157	15
168	168	7
17	17	18
208	208	9
50	76	4
60	60	6
155	155	4
18	31	7
137	138	11
95	110	3
1	3	2
55	55	11
63	63	15
51	51	9
135	135	22
134	134	6
30	30	5
69	69	27
229	229	3
134	135	4
37	53	5
21	44	2
58	60	4
147	147	2
6	6	5
78	79	4
164	164	3
174	175	1
175	175	8
235	237	3
239	240	3
223	223	8
156	188	3
219	219	9
70	70	16
202	203	3
53	53	8
100	100	16
75	79	4
22	22	8
0	30	4
15	72	3
165	234	5
74	83	3
127	127	6
102	103	10
159	164	5
18	19	2
163	163	4
56	72	2
164	175	2
146	175	4
151	151	13
217	217	16
97	97	8
47	47	15
103	106	3
230	230	6
46	46	12
188	188	7
60	61	6
137	139	3
215	215	7
31	65	4
62	70	4
3	55	1
21	22	11
8	11	2
223	224	1
234	234	16
198	209	3
72	73	3
128	128	3
113	113	7
96	96	3
80	82	3
160	161	5
182	225	2
166	166	6
181	181	8
99	100	4
65	65	10
56	70	1
24	185	5
137	137	10
52	53	2
43	45	2
198	229	3
26	28	5
107	108	1
76	76	9
174	184	1
188	190	5
67	75	1
124	124	4
211	230	1
232	233	3
212	214	1
56	153	3
64	64	13
103	103	17
47	48	1
33	33	4
3	3	12
16	38	7
126	126	3
36	36	12
20	21	3
16	17	13
119	146	3
40	40	19
66	67	5
42	203	2
32	102	1
7	7	6
62	62	6
232	232	1
108	109	8
151	152	6
159	159	7
0	0	14
119	119	2
56	57	4
158	158	2
150	150	16
183	183	10
4	4	9
172	239	3
58	180	3
162	162	7
32	33	5
213	213	4
186	187	11
190	190	7
1	4	1
16	205	3
37	38	3
225	226	5
166	221	3
89	89	4
174	183	4
202	219	2
79	97	2
61	70	3
145	175	4
18	24	3
111	111	2
157	158	5
78	78	4
21	21	9
237	237	6
115	115	5
240	240	5
132	132	4
38	38	5
178	178	7
152	194	2
126	130	3
141	142	3
0	61	1
119	129	4
80	91	2
103	105	2
114	114	8
55	71	1
109	112	1
210	210	10
116	117	5
176	179	7
36	83	7
37	37	5
144	144	10
13	156	6
143	147	1
122	123	1
26	26	10
131	131	2
177	179	2
0	6	4
56	69	5
116	120	2
81	81	6
150	151	2
2	3	2
189	189	6
9	70	2
103	104	2
159	165	2
104	105	9
120	120	4
28	43	2
163	164	2
31	35	2
184	184	3
185	186	1
8	29	4
139	141	2
236	236	7
145	164	2
80	80	4
164	165	1
21	45	3
201	201	5
198	198	6
45	45	6
181	223	2
20	20	7
159	221	1
100	104	2
2	4	1
147	234	2
23	191	3
32	34	3
204	204	3
19	69	1
111	112	2
182	182	10
234	235	2
214	215	4
204	225	3
47	63	1
85	86	1
233	233	3
44	232	4
8	10	3
61	61	13
21	54	5
129	135	2
208	214	2
54	71	2
75	113	1
61	62	4
186	186	7
199	199	5
166	175	2
7	56	1
59	59	12
57	57	5
30	205	1
53	154	1
84	85	5
70	73	2
42	45	1
180	197	4
35	35	7
185	185	5
61	63	2
55	149	2
17	18	2
112	136	2
200	209	4
13	16	1
45	46	2
79	105	2
13	13	9
95	116	4
121	121	4
197	197	5
77	97	6
156	196	2
71	145	2
153	164	3
2	31	1
22	23	3
0	1	1
42	42	8
2	2	10
133	133	3
119	120	2
224	224	8
105	126	1
158	196	2
37	85	2
75	75	3
3	58	3
29	29	8
28	70	1
134	160	1
14	80	2
151	219	2
146	164	2
99	99	12
137	142	1
8	9	4
6	57	1
228	229	1
48	62	4
17	24	3
158	178	3
2	68	2
44	45	1
205	206	3
205	205	4
199	200	2
75	76	3
133	137	2
89	129	2
10	69	1
2	208	2
240	241	3
8	8	5
20	203	2
62	172	2
18	49	1
108	134	2
103	119	3
19	31	1
52	52	15
105	105	11
213	231	1
50	50	5
220	222	1
23	198	2
217	218	2
214	216	2
196	196	6
62	63	4
123	123	1
156	158	2
82	85	4
191	219	3
9	10	4
119	128	1
5	5	10
111	135	3
59	222	4
155	199	2
4	6	4
43	232	4
34	35	2
84	84	2
192	193	6
24	71	2
16	16	5
124	126	2
229	230	1
36	75	2
140	140	11
125	125	2
24	208	1
49	49	2
63	80	1
156	170	5
208	219	6
242	242	8
192	192	6
86	86	10
3	68	2
241	241	4
72	72	6
126	127	2
211	228	1
153	154	3
79	84	2
46	69	4
113	114	3
49	62	1
228	228	1
46	47	1
188	189	2
38	63	3
140	142	3
166	223	1
188	228	4
33	68	2
4	5	3
130	131	5
153	197	1
4	30	3
226	226	3
5	58	3
172	240	6
111	133	1
9	33	2
41	155	1
198	222	3
3	4	4
9	23	1
235	236	2
180	180	4
15	23	2
70	71	3
226	227	1
169	169	2
65	74	1
68	68	7
181	199	4
149	150	3
123	124	4
105	106	10
24	24	2
56	56	2
19	79	1
69	86	2
157	169	1
226	228	1
197	230	3
199	220	1
53	60	1
44	44	3
192	197	7
137	146	1
15	15	2
108	135	2
138	139	3
82	82	3
206	227	1
224	225	2
13	14	3
176	184	2
59	153	2
39	58	2
112	112	4
198	228	1
143	149	3
118	119	2
190	191	3
212	212	1
0	5	2
15	16	2
6	7	3
221	221	4
143	143	2
179	179	6
187	188	2
121	147	2
8	22	2
42	44	3
55	138	1
198	199	2
154	157	1
12	39	1
31	34	3
19	20	3
15	229	4
171	172	3
200	210	2
177	177	1
10	10	7
111	116	1
54	54	3
11	13	2
167	167	2
218	218	3
141	188	1
146	146	3
35	220	3
156	230	2
159	193	3
156	157	2
31	91	2
149	149	3
210	228	2
46	65	2
10	11	5
163	165	2
31	31	1
42	232	1
12	13	2
182	223	1
191	209	1
199	223	1
26	44	3
148	237	1
231	233	1
184	186	2
14	47	1
1	7	2
13	68	1
39	77	1
67	88	2
30	69	1
123	129	1
202	202	5
117	117	2
143	167	3
11	66	2
135	136	2
41	42	2
30	66	3
50	63	1
55	57	3
133	134	2
167	168	3
65	73	1
77	78	3
193	195	1
176	177	2
82	101	2
77	79	1
79	85	2
24	52	1
48	63	2
96	106	2
129	133	1
7	8	2
49	67	3
43	70	2
230	231	1
48	65	2
100	106	1
18	18	3
26	27	2
49	76	1
35	83	1
98	99	2
70	85	1
96	131	1
154	189	1
86	113	3
34	34	3
211	212	2
2	19	1
46	137	1
18	22	4
82	99	1
148	149	1
24	25	2
6	8	2
39	205	1
193	193	2
20	69	2
225	225	3
166	167	2
85	101	1
209	230	2
144	146	1
101	102	1
174	174	1
33	34	1
45	232	2
55	203	2
33	88	2
208	211	1
80	84	1
67	67	1
37	42	2
141	141	1
194	194	1
128	131	1
138	140	2
36	37	1
141	177	1
213	217	1
169	176	1
50	85	1
40	58	1
29	56	1
39	41	1
95	118	1
121	174	1
157	164	1
119	175	1
212	231	1
64	67	1
33	76	1
16	213	1
71	195	1
80	104	1
35	101	1
117	119	1
48	48	1
142	142	1
171	178	1
96	118	1
97	99	1
59	68	1
118	132	1
137	145	1
42	204	1
32	50	1
231	231	1
181	230	1
30	65	1
199	224	1
42	153	1
227	228	1
55	136	1
107	133	1
191	192	1
32	71	2
152	195	1
39	64	1
67	68	1
136	136	1
1	6	1
155	187	1
74	119	1
