126	126	9
159	169	1
162	162	8
85	85	2
145	147	4
32	32	2
42	42	3
65	66	4
18	18	2
101	102	3
31	31	3
141	142	4
14	14	5
183	183	4
154	162	2
37	37	8
62	63	2
12	22	1
5	6	5
178	179	11
93	93	3
155	155	15
113	113	12
38	39	2
12	13	2
11	12	5
119	119	4
98	98	5
7	7	4
30	31	4
25	25	7
111	111	8
190	190	2
119	121	1
8	8	9
82	82	6
13	24	1
152	152	10
45	45	3
94	95	1
40	40	13
170	170	4
30	30	5
143	143	3
136	136	8
89	89	4
13	14	13
138	139	4
141	147	1
29	30	7
96	96	5
180	181	3
58	107	3
132	132	3
115	115	9
167	167	1
150	150	4
105	108	3
118	119	2
149	149	5
129	130	4
168	168	9
13	21	3
2	2	2
75	75	7
88	88	4
104	104	3
84	84	10
47	47	14
79	79	7
117	118	5
15	15	8
127	128	4
140	140	8
48	48	7
56	109	2
127	127	11
16	31	2
7	8	2
75	77	1
157	157	6
112	112	5
182	182	4
103	103	9
36	36	3
178	178	4
57	57	2
0	10	2
90	90	6
58	58	12
12	12	3
150	165	2
64	65	1
61	61	1
185	186	4
53	125	1
115	120	4
39	40	2
36	37	5
118	118	15
27	27	5
35	36	6
95	95	12
20	20	1
6	6	14
63	64	2
188	190	1
26	27	4
39	39	9
66	91	1
10	10	4
111	112	1
24	37	5
117	117	6
81	81	7
16	16	6
29	29	5
86	87	2
68	68	5
41	41	7
109	111	2
163	163	15
24	24	1
163	164	2
21	30	1
0	14	3
146	146	4
77	78	2
123	123	6
116	118	8
159	166	1
96	97	8
3	38	6
59	61	1
110	110	10
25	26	2
64	64	12
176	176	12
139	139	9
24	25	3
56	108	1
131	132	3
128	128	8
40	41	4
46	47	2
166	166	3
129	129	7
37	38	3
187	188	3
23	23	2
19	19	6
48	56	7
142	166	2
80	80	2
64	84	1
1	1	10
97	97	2
99	99	5
63	66	2
64	72	2
156	156	5
189	189	2
106	106	7
59	64	6
184	184	3
78	78	4
54	55	7
115	116	2
172	172	6
46	46	4
105	106	7
112	113	4
146	155	4
80	81	3
121	122	6
154	154	8
164	164	7
67	67	2
114	114	2
13	13	3
71	72	1
175	175	4
153	153	8
33	33	5
79	80	2
161	163	1
129	131	3
141	145	2
27	28	2
173	173	4
141	144	2
16	22	2
95	98	3
151	154	1
72	72	6
102	103	2
141	141	6
160	170	3
40	83	2
187	187	3
3	3	6
83	83	3
178	184	6
73	73	3
98	99	6
142	142	9
151	151	3
169	173	1
161	169	2
137	137	4
129	141	4
109	110	7
17	17	3
23	31	2
151	165	3
58	59	2
137	138	2
157	158	3
102	102	6
104	105	4
23	24	9
185	185	3
148	148	5
179	179	3
147	149	5
117	190	4
90	91	3
91	91	4
184	189	1
189	190	2
165	170	1
43	43	1
74	74	5
86	86	1
116	116	2
62	62	7
67	109	1
73	74	1
69	107	1
76	76	4
77	77	4
55	55	7
83	84	2
3	4	1
133	136	1
59	69	2
65	68	2
132	133	3
23	56	2
22	22	2
135	136	2
93	94	1
174	174	3
170	171	3
161	165	2
6	7	1
101	101	3
150	151	2
165	166	5
154	160	1
61	65	1
106	107	3
91	97	2
60	64	2
54	54	2
66	66	3
160	160	2
125	125	3
162	170	1
152	153	1
0	0	6
117	119	2
3	39	3
145	145	1
20	22	1
124	124	2
31	32	3
100	100	6
109	109	4
171	173	4
159	159	3
21	21	3
74	75	2
176	177	3
58	60	3
75	76	2
133	135	1
138	138	6
87	88	1
149	165	1
134	135	3
56	56	4
42	45	2
169	169	8
5	7	1
70	70	3
186	186	3
66	103	3
124	125	3
151	152	4
23	38	1
162	164	3
56	125	2
114	115	2
5	5	5
34	35	1
158	161	3
23	28	2
107	107	4
11	11	2
57	125	2
147	148	1
63	65	2
55	57	1
17	26	1
144	144	1
24	55	1
122	122	2
188	188	1
34	34	1
101	103	2
60	60	1
141	169	1
147	147	2
114	122	2
184	185	2
72	73	2
91	102	2
7	38	1
23	39	2
186	187	1
35	35	1
38	38	15
69	69	3
62	71	1
186	189	2
13	15	1
67	68	2
161	162	1
119	120	2
70	75	3
4	4	3
106	108	1
42	126	1
16	32	2
76	77	1
4	5	1
120	120	1
113	122	3
23	37	2
44	47	1
133	133	4
55	56	1
148	149	1
70	71	2
81	82	2
130	138	2
79	84	2
146	168	1
16	30	1
29	31	2
124	126	1
12	14	1
28	29	1
33	34	1
179	180	1
105	105	1
53	53	1
122	125	1
26	26	2
42	47	1
117	132	1
103	104	1
133	138	1
122	123	2
62	64	2
14	21	1
140	142	1
108	108	1
61	66	1
131	133	1
32	35	2
159	167	1
54	56	1
158	158	1
79	96	1
10	12	1
84	86	1
59	59	2
149	150	2
78	88	2
60	65	1
59	60	1
70	79	1
10	11	1
145	146	1
53	54	1
57	58	1
108	109	1
22	55	2
20	25	1
129	142	1
92	94	1
183	188	1
25	36	1
115	117	1
156	171	1
1	3	1
112	122	1
177	177	1
167	168	1
8	31	1
56	127	1
112	124	1
