132	132	7
25	25	3
121	121	2
75	77	3
81	81	12
77	77	11
128	129	1
2	3	3
6	6	3
96	97	5
79	79	5
73	73	4
25	26	5
85	95	1
5	5	7
111	111	8
78	104	2
33	33	7
100	100	11
73	80	3
102	102	5
37	37	9
129	130	1
10	11	6
139	139	13
89	90	5
35	38	1
129	129	12
4	5	6
126	126	5
6	7	6
91	91	8
20	21	2
1	1	1
13	15	2
89	89	7
120	122	4
20	20	5
12	12	3
122	122	13
3	3	4
5	71	3
80	80	8
118	118	10
21	22	1
128	135	1
116	118	4
10	10	3
16	38	3
117	118	4
13	14	7
108	109	6
105	106	2
8	8	7
31	31	1
12	24	2
21	21	2
133	133	7
112	113	6
66	72	1
125	125	14
86	108	5
7	9	4
33	36	2
136	136	7
123	123	5
110	112	1
111	112	7
29	29	4
24	25	3
88	88	10
114	115	6
98	98	7
18	18	10
105	105	2
22	23	1
85	85	5
16	16	2
30	30	3
140	140	11
26	26	2
72	86	2
84	84	5
109	109	9
7	8	4
75	76	5
98	99	2
96	96	3
97	97	2
85	86	1
29	32	2
116	122	1
127	128	2
93	93	4
35	35	4
72	73	3
110	120	2
124	124	20
24	24	2
1	2	2
32	33	2
107	107	9
71	71	2
23	23	5
108	118	3
72	72	4
94	94	4
110	111	5
13	13	2
7	7	1
78	78	6
96	99	1
5	82	1
103	103	5
100	104	1
79	83	3
127	127	3
18	37	5
0	0	2
109	110	1
101	114	1
36	37	3
114	114	1
84	86	2
122	123	2
130	130	4
2	2	5
113	113	2
91	92	3
27	27	8
23	24	1
33	34	2
9	9	4
73	78	6
83	103	1
4	4	9
2	29	2
8	24	1
77	78	4
34	99	3
3	29	3
88	89	2
15	15	1
101	101	2
116	119	1
97	99	4
95	95	3
86	86	2
17	17	1
111	116	1
134	134	2
138	138	2
128	128	1
90	90	2
106	121	4
131	131	3
19	19	4
133	134	2
106	106	4
26	32	2
101	107	1
93	94	5
20	88	1
80	117	1
6	29	1
83	85	1
32	32	2
73	79	2
34	34	1
30	31	1
130	131	1
115	115	2
111	114	2
83	83	1
125	129	1
126	127	3
78	110	1
18	38	2
84	85	2
74	75	5
10	12	1
38	38	1
117	117	1
110	110	2
22	36	2
106	107	2
119	120	2
95	96	2
89	91	1
22	22	1
124	125	1
92	93	3
116	116	1
112	115	4
108	108	1
117	119	2
75	75	2
135	135	1
106	108	1
109	114	2
119	119	1
111	120	1
118	119	1
101	124	1
86	106	1
73	86	1
82	95	1
1	72	1
108	110	1
128	136	1
6	14	2
1	76	2
132	133	2
116	117	1
137	137	2
112	114	1
101	102	1
136	137	1
112	112	1
17	18	1
2	77	2
77	80	1
135	136	1
120	120	1
74	74	1
24	26	1
12	13	1
103	114	1
81	82	1
81	84	1
103	120	1
