33	34	2
121	122	1
40	40	3
165	165	2
153	153	1
166	179	3
37	37	6
96	108	1
154	154	2
172	173	2
24	25	2
88	88	6
152	152	3
149	150	5
99	99	8
59	60	1
141	141	4
17	17	6
96	96	5
2	8	1
2	2	3
15	15	2
122	142	1
12	21	4
163	173	3
107	108	1
94	94	1
97	97	3
135	177	5
30	30	6
132	162	2
4	14	1
159	159	3
86	87	4
84	106	1
174	174	4
16	36	4
57	76	2
140	184	4
126	126	4
19	20	2
89	110	6
100	117	4
47	48	3
36	36	6
47	49	7
8	24	1
6	6	3
21	21	7
100	118	1
101	117	5
14	14	2
27	29	3
140	140	12
12	15	2
127	127	3
109	110	3
190	190	1
92	106	1
53	56	2
47	47	1
41	41	4
111	111	2
65	66	4
61	77	2
131	136	4
123	127	2
146	147	1
48	48	6
71	71	5
129	129	4
91	91	8
72	72	5
156	156	4
182	182	1
88	89	1
36	68	4
130	130	1
136	136	1
135	136	4
142	142	9
175	176	1
63	63	4
23	48	2
135	135	3
8	8	2
2	77	2
134	179	2
76	77	4
24	24	6
57	57	6
93	93	2
150	176	3
25	66	5
59	82	3
35	35	4
124	124	9
38	38	4
9	16	4
26	26	3
130	172	1
66	66	8
45	48	2
184	184	1
158	158	3
26	34	2
181	181	3
67	67	4
131	131	2
169	169	6
12	12	2
119	119	1
86	86	1
171	171	2
61	72	2
92	92	3
72	74	3
79	79	5
147	147	3
64	64	8
139	139	6
18	18	1
149	163	4
170	173	4
3	3	2
114	114	1
82	82	4
95	95	4
54	54	3
147	148	1
31	31	3
1	1	4
23	23	2
53	53	4
13	13	3
87	87	1
11	11	4
175	175	2
6	8	2
28	28	3
97	98	4
30	32	2
151	151	3
22	53	2
150	150	3
105	109	6
1	55	1
164	165	7
155	163	2
161	161	6
138	138	2
91	92	1
45	46	3
120	121	3
78	78	1
129	144	1
108	138	2
19	21	1
62	72	2
118	118	2
178	179	6
112	146	2
140	144	1
84	84	2
26	28	3
114	130	2
160	183	1
187	187	2
185	187	3
159	160	3
9	10	2
90	91	3
110	110	4
145	146	1
179	179	1
1	2	1
59	81	4
123	141	4
96	97	3
45	45	1
30	37	1
103	113	4
77	77	2
24	66	2
132	133	1
10	11	2
7	7	4
83	108	3
144	146	1
54	56	1
107	109	2
5	24	1
56	56	2
102	103	1
74	74	3
58	58	3
75	75	2
12	43	1
187	190	1
29	29	1
108	108	1
163	168	2
132	132	1
19	19	1
77	83	1
29	30	2
9	9	2
120	127	2
145	163	1
22	49	1
11	12	1
20	28	1
44	44	1
140	177	2
120	120	3
174	175	1
15	43	1
128	129	1
14	17	1
161	162	1
162	162	2
189	189	2
20	20	3
155	155	1
78	79	1
105	134	1
85	146	1
10	13	1
22	27	1
5	5	2
22	23	1
57	78	1
62	62	1
125	126	2
122	122	1
14	43	1
75	76	1
167	167	1
34	35	1
100	100	1
13	37	1
36	46	1
26	48	1
