138	138	11
36	36	15
77	78	5
100	111	1
86	86	4
135	135	2
113	114	3
6	6	4
126	126	6
134	135	6
125	125	7
88	88	7
18	18	5
102	103	2
4	29	2
34	35	5
107	107	9
7	7	2
108	109	8
134	134	12
87	88	2
120	122	1
118	119	4
14	15	3
23	24	5
127	127	7
5	5	5
32	32	4
137	137	8
83	83	4
17	19	3
9	11	3
113	113	15
93	93	5
92	92	1
0	0	4
84	86	1
80	83	6
23	23	5
139	139	8
131	132	3
97	98	3
19	20	1
9	9	2
75	76	5
4	125	2
136	136	5
105	105	5
101	102	3
115	116	2
112	112	4
96	126	2
111	111	4
21	26	3
75	75	5
94	94	2
91	91	2
6	33	3
29	29	6
108	108	4
72	72	4
97	97	2
97	100	1
3	25	4
30	32	2
138	139	3
11	11	2
78	78	4
79	79	7
131	131	7
94	123	2
38	38	8
89	89	5
34	34	7
3	4	4
86	87	1
31	31	2
15	15	1
37	37	3
124	124	12
95	95	5
132	132	4
35	35	3
6	127	2
107	108	2
80	80	6
27	28	1
115	115	3
116	117	3
21	21	1
73	74	5
78	79	3
106	108	3
72	74	3
21	22	3
120	120	5
16	17	1
101	101	5
7	9	2
116	116	7
74	75	3
100	100	6
12	12	4
1	2	1
110	111	1
87	101	1
90	110	2
118	120	3
133	133	1
8	10	1
121	122	3
104	104	7
37	90	1
4	4	1
30	31	3
119	120	1
128	132	4
20	20	2
30	30	3
76	76	3
28	28	1
99	99	6
122	122	5
100	113	3
98	98	1
3	7	3
87	87	4
14	21	1
92	93	5
86	95	2
16	16	3
140	140	4
86	93	1
19	30	1
5	6	4
2	2	8
131	134	1
13	14	2
3	3	2
96	96	3
102	104	2
79	80	1
1	7	2
129	130	4
88	123	1
4	126	2
19	19	1
137	140	1
107	110	1
125	141	1
129	129	4
71	71	2
103	103	2
90	90	1
81	81	2
123	123	2
24	24	3
14	14	1
73	75	1
125	126	1
107	109	1
139	140	1
107	130	1
13	13	1
86	91	2
33	33	2
76	77	2
102	109	2
2	4	2
121	121	1
1	8	3
124	140	1
137	138	2
118	123	1
83	86	1
98	112	1
90	91	1
106	107	1
102	107	2
8	72	1
104	130	1
120	121	1
111	114	1
87	91	1
78	84	1
99	111	1
119	119	2
83	87	1
85	88	1
26	26	1
8	13	1
128	128	1
118	118	1
