87	87	3
108	108	10
94	156	1
71	71	3
23	24	4
15	23	3
176	187	1
47	47	5
59	59	5
114	115	1
20	20	12
9	67	3
30	30	8
116	117	1
94	94	3
0	56	8
24	24	3
43	43	4
175	175	6
88	88	8
63	65	2
55	55	3
82	83	3
165	165	4
130	135	2
128	128	3
100	121	4
28	28	5
31	32	3
33	35	3
106	106	1
176	176	2
108	116	1
101	102	1
156	156	8
72	72	7
82	150	2
27	29	4
7	7	6
1	1	4
118	118	6
57	58	5
154	155	4
117	154	4
92	187	1
119	120	3
46	46	1
17	17	11
58	60	5
93	164	1
38	39	7
5	9	1
126	139	3
41	41	2
96	96	3
8	14	3
80	80	8
13	13	11
140	140	16
169	175	3
164	164	6
23	23	7
36	36	5
38	38	12
127	128	1
78	78	10
187	187	8
89	89	5
83	126	1
90	90	3
135	135	7
19	81	4
65	65	1
67	122	2
105	120	3
115	115	2
178	178	13
29	30	4
84	84	4
62	95	4
20	21	2
34	34	5
93	93	5
53	53	3
37	37	4
113	113	3
33	33	12
107	108	1
98	98	8
125	125	5
104	114	1
184	185	3
120	120	11
162	163	2
65	66	2
89	90	2
146	146	3
109	151	1
154	163	4
105	108	3
48	48	2
12	12	7
14	22	2
117	117	4
157	157	4
60	156	1
3	3	1
132	155	3
67	71	1
112	112	9
68	124	3
76	76	10
31	31	2
6	55	2
121	122	1
99	105	1
19	26	1
147	147	8
22	22	10
168	168	2
32	32	4
83	85	1
15	15	8
181	187	1
95	99	3
160	160	1
83	83	9
151	151	1
158	158	4
81	81	3
155	156	6
97	98	3
71	147	5
114	125	5
6	6	4
58	59	2
67	164	3
4	8	4
101	101	1
161	163	1
130	130	7
33	34	2
58	58	6
14	14	4
78	79	1
39	101	4
21	108	1
54	74	2
95	152	2
34	35	2
153	157	4
27	28	4
73	73	4
70	70	3
154	154	5
163	163	2
188	188	3
21	22	5
133	133	8
63	154	4
57	57	9
45	45	4
126	126	6
179	179	7
109	110	3
83	150	2
18	19	5
44	45	6
21	21	2
139	139	8
16	16	4
86	86	1
148	148	5
131	131	3
103	103	6
142	142	1
24	70	4
77	77	4
44	47	3
168	190	1
100	100	3
138	138	3
85	85	1
17	21	3
32	34	2
114	114	1
100	110	2
44	44	3
116	116	3
23	25	2
36	37	1
144	144	2
67	86	1
91	91	7
18	18	5
99	99	5
156	157	2
181	181	3
70	108	1
85	95	1
75	79	2
29	29	5
143	143	4
156	159	1
149	149	2
190	190	1
141	141	2
25	25	2
129	129	9
137	137	8
66	66	2
85	121	2
102	119	1
27	35	4
81	82	2
15	33	4
54	54	3
20	25	1
180	180	4
163	164	1
43	44	1
84	85	2
55	159	7
176	177	1
101	151	2
139	140	2
105	105	3
62	64	2
159	159	4
18	20	3
115	116	4
35	35	2
94	95	1
110	110	4
11	47	1
27	30	1
140	144	1
63	63	1
134	139	2
95	96	4
124	125	1
83	84	2
155	155	5
73	80	1
172	172	2
80	81	4
80	96	3
136	144	1
10	67	4
111	121	2
150	150	1
71	79	1
167	168	1
178	179	1
102	102	7
99	154	4
111	118	2
21	23	1
127	127	3
46	47	2
40	40	2
11	11	1
100	114	1
152	152	1
123	123	3
166	166	2
132	134	1
43	47	2
136	136	2
42	42	3
30	36	1
115	127	1
42	43	2
177	177	3
40	42	2
77	106	1
161	161	1
130	131	1
92	93	2
152	153	1
82	82	3
65	164	1
55	73	4
131	132	2
133	135	2
57	95	1
125	142	1
61	95	3
16	26	2
134	135	2
131	133	1
145	145	3
74	79	1
62	62	2
182	183	1
77	109	2
115	120	1
61	61	1
4	4	2
77	110	2
162	162	4
72	73	1
0	0	5
39	39	1
90	91	1
42	46	3
5	5	2
124	124	1
99	100	1
15	16	1
88	89	2
102	117	1
11	12	1
105	122	1
75	78	2
130	136	1
171	171	1
173	173	1
56	57	1
27	27	1
107	107	3
124	129	1
122	149	3
17	78	1
75	75	1
122	123	4
61	155	2
73	129	1
85	86	1
61	62	1
111	111	1
77	78	1
10	11	4
104	104	2
22	26	1
129	166	2
123	126	1
170	170	2
5	11	1
45	100	1
12	87	1
113	115	1
68	91	1
153	153	1
130	166	1
45	46	1
41	42	1
131	163	1
169	169	2
103	111	1
0	6	1
22	23	1
64	65	1
118	154	1
172	173	1
16	17	1
9	9	1
78	110	1
122	148	1
60	159	1
8	8	1
4	7	1
111	112	1
98	155	1
92	94	1
94	106	1
