94	98	1
68	68	11
62	62	8
49	49	3
50	81	1
89	89	11
37	37	9
50	50	17
46	46	14
66	67	4
25	25	16
46	95	1
79	80	10
57	57	19
44	81	3
38	67	3
26	86	5
80	80	5
66	66	24
94	94	8
29	78	2
47	47	7
95	95	12
88	88	10
56	56	30
101	102	4
45	88	3
64	65	7
48	51	4
35	38	5
60	60	10
75	75	15
33	33	17
42	42	10
36	36	9
22	22	4
81	89	8
61	61	11
44	44	22
55	56	3
77	77	14
56	57	5
24	24	2
50	51	5
32	45	2
53	65	3
90	90	12
79	79	5
45	82	2
76	76	17
44	77	1
29	29	4
52	59	5
95	97	9
42	75	1
74	74	7
62	64	1
68	93	8
52	53	6
35	35	9
55	58	3
87	88	9
69	69	6
38	38	9
99	99	12
28	61	2
40	40	4
20	86	3
36	69	1
65	69	3
70	70	16
74	88	1
52	52	6
47	85	2
22	87	3
75	76	4
41	41	13
71	74	3
35	78	2
26	26	16
56	101	1
66	95	4
73	74	6
59	59	11
97	98	15
53	53	10
57	91	5
92	93	4
54	54	12
93	94	7
92	92	14
96	96	12
86	88	15
52	95	3
41	42	4
59	60	4
65	65	4
35	36	1
96	101	3
48	48	11
43	43	8
93	95	4
85	85	14
27	28	2
98	98	6
53	96	1
91	91	8
88	89	5
102	102	5
63	63	17
44	45	4
33	34	1
30	32	7
97	97	13
58	58	14
94	100	3
45	45	11
30	30	4
72	72	10
34	76	2
27	36	1
31	31	4
47	50	2
48	52	4
78	78	14
28	28	9
81	82	4
71	71	5
29	86	2
86	86	8
34	81	1
54	55	2
76	77	3
84	84	9
101	101	8
24	27	2
43	44	2
77	90	4
83	83	4
55	55	3
54	86	2
64	64	12
65	68	1
70	75	3
30	31	1
22	60	3
81	81	3
37	60	2
100	100	2
76	79	4
67	67	6
58	64	2
52	55	4
44	90	2
65	81	3
31	34	1
92	101	1
53	55	6
51	52	2
69	91	1
80	81	4
87	87	6
54	95	1
52	56	2
22	63	2
82	82	7
94	99	1
36	67	1
47	80	1
83	88	2
90	91	4
27	37	3
46	84	1
42	55	1
46	47	11
72	75	2
93	93	4
80	89	6
72	85	2
96	97	8
53	54	6
34	34	3
46	83	4
34	37	2
94	96	1
70	81	1
55	76	1
39	60	2
40	41	2
23	23	4
83	84	2
20	63	1
36	65	1
25	61	2
23	37	2
45	86	2
96	99	3
60	87	2
44	86	1
80	95	1
62	63	1
69	70	4
95	96	2
61	94	2
49	50	5
71	72	2
25	26	2
51	53	1
58	59	5
90	96	1
42	51	2
77	78	1
91	92	2
74	85	1
71	73	2
86	94	1
51	85	3
37	38	3
28	46	1
41	89	1
78	100	1
49	73	1
59	90	2
89	90	6
38	60	2
83	89	1
39	39	1
80	98	4
61	62	2
63	66	3
42	52	1
53	86	2
66	81	2
55	98	1
74	77	3
65	67	2
47	48	3
20	26	1
58	86	2
94	97	2
23	86	1
48	49	1
60	88	1
30	57	1
47	49	3
20	72	1
51	89	1
27	27	1
99	100	1
38	40	1
23	26	1
86	87	2
60	92	1
20	45	1
29	92	1
100	101	1
73	73	3
26	27	1
78	89	1
93	98	1
86	89	1
48	79	2
42	99	1
84	87	2
36	81	1
27	88	1
90	99	1
95	99	2
69	79	1
22	45	1
45	46	1
53	62	1
84	94	1
67	68	1
73	76	1
90	92	1
68	69	1
53	61	1
55	90	1
58	63	1
35	37	1
51	51	1
