22	62	3
40	40	7
46	47	6
57	58	4
87	87	13
73	73	9
85	85	9
106	106	8
42	88	2
54	56	3
99	99	22
55	56	6
75	75	12
21	69	5
27	28	5
102	102	18
35	36	1
33	33	13
21	21	12
95	95	13
31	31	11
99	100	5
89	90	8
103	103	10
94	94	13
58	58	9
81	90	2
67	75	4
83	83	11
57	57	14
76	76	12
26	26	14
101	101	6
82	83	5
45	46	5
52	54	1
29	29	3
67	100	6
69	69	15
44	45	6
68	68	7
39	90	6
86	90	2
82	82	4
55	55	10
68	100	2
22	24	3
30	30	13
22	22	9
60	79	1
69	85	3
93	93	13
68	69	17
79	80	2
29	39	2
76	101	2
23	23	13
24	24	9
48	81	1
71	71	5
28	29	6
22	34	2
70	70	9
54	57	8
85	86	5
49	49	9
97	99	5
83	85	6
80	80	8
60	60	11
24	106	1
42	43	10
56	88	2
90	90	10
45	81	1
59	65	5
72	72	6
20	21	4
25	25	8
65	65	3
42	42	13
37	37	10
103	104	1
66	66	11
100	100	13
46	78	2
36	37	8
97	98	1
63	63	8
105	105	9
20	20	6
62	62	5
61	61	13
38	39	4
41	45	6
67	67	9
88	88	6
42	68	2
31	33	1
42	44	4
61	87	1
27	27	5
96	96	9
35	35	4
95	99	4
84	84	4
51	52	7
76	77	2
26	40	2
73	74	4
39	39	7
66	95	3
32	32	8
67	87	6
34	34	6
50	50	10
33	34	6
81	81	10
46	46	5
35	51	2
55	105	3
66	106	3
92	92	4
20	39	2
59	70	1
53	53	7
38	38	9
77	78	4
48	48	9
79	82	2
71	72	3
35	100	3
85	87	3
74	74	12
86	87	5
62	105	1
56	56	9
90	91	4
42	45	1
71	76	2
40	41	7
86	86	1
91	91	7
57	79	3
92	93	3
79	85	2
79	79	10
64	64	4
97	97	17
80	81	7
45	49	2
58	99	2
92	94	4
38	73	1
33	96	2
69	84	2
22	61	3
67	96	4
23	24	3
44	49	2
32	100	3
76	100	1
24	25	1
59	59	6
77	101	1
78	78	8
42	89	2
25	26	2
94	98	2
51	51	3
70	100	1
71	91	4
47	47	7
36	36	4
102	103	1
28	28	2
53	56	1
29	40	2
59	60	2
46	87	1
45	45	2
68	75	3
20	28	4
95	97	1
78	80	2
54	54	7
60	61	2
46	72	3
98	98	3
41	41	6
22	25	3
69	70	1
55	102	2
22	31	1
87	88	4
52	55	1
21	60	2
21	63	2
23	34	2
47	79	1
56	61	1
20	29	2
79	95	1
26	28	1
67	68	2
54	55	1
37	47	2
32	43	2
52	52	4
94	97	4
21	100	2
58	59	1
43	43	3
66	94	2
54	70	1
61	62	2
89	89	1
62	65	2
62	63	3
56	71	1
32	38	1
96	98	1
37	45	1
50	51	2
70	71	1
38	76	1
72	73	1
40	88	1
49	99	1
53	57	1
29	41	2
75	76	1
30	34	1
104	104	3
92	100	2
64	65	1
63	64	1
34	39	1
42	82	2
78	79	1
54	102	1
91	94	2
70	88	1
56	87	1
39	40	1
96	97	1
45	47	1
91	92	1
79	81	1
40	42	1
39	68	1
62	64	1
46	49	1
46	69	1
63	86	1
47	72	1
66	88	1
61	96	2
87	90	1
37	41	1
84	85	1
63	97	1
52	53	1
36	39	1
46	67	1
22	33	1
