105	106	7
71	74	4
77	77	5
39	39	4
88	91	2
94	94	5
103	103	12
102	103	6
101	106	2
75	75	5
106	106	9
110	111	4
38	38	5
64	65	2
28	29	7
61	61	9
91	91	5
76	76	18
56	57	1
88	88	8
24	24	6
48	48	2
47	49	5
87	87	2
55	69	3
67	99	3
101	101	6
30	57	2
29	57	3
91	101	3
36	36	7
79	81	2
60	62	3
25	31	1
29	29	5
86	86	5
80	80	10
108	108	7
73	73	5
47	47	4
83	83	8
99	99	2
81	82	1
66	69	3
36	69	3
42	43	3
84	84	10
41	42	4
71	71	4
81	104	1
61	67	3
111	111	12
102	102	4
30	32	2
55	57	5
59	61	4
64	64	5
59	59	3
96	101	3
103	104	3
69	69	6
33	33	6
40	40	3
102	107	1
95	96	4
104	106	5
32	32	2
84	91	2
63	63	6
38	39	6
97	97	8
40	43	1
96	98	4
82	83	5
42	42	7
26	31	8
74	75	5
86	90	3
109	109	3
46	46	4
107	107	3
32	33	3
20	35	3
23	26	3
54	54	3
99	110	4
43	43	4
30	31	5
30	30	6
59	60	5
50	50	1
67	70	5
76	77	6
31	31	3
45	107	1
25	25	8
23	33	1
41	109	3
113	114	9
67	67	7
63	74	2
28	28	9
86	105	2
33	39	2
35	36	2
53	53	14
55	61	2
43	48	4
75	76	2
110	110	3
82	82	1
90	91	8
79	79	6
67	68	3
93	93	1
95	95	5
70	108	2
77	78	3
77	97	1
104	104	4
105	107	3
50	51	2
36	61	1
65	65	4
33	34	3
35	54	1
68	68	1
56	61	1
87	88	2
72	74	1
86	88	2
83	84	2
29	110	1
113	115	3
93	98	2
56	56	2
109	110	2
88	89	8
72	76	3
24	25	4
23	24	1
44	44	1
56	58	2
37	37	5
90	92	3
27	27	4
22	22	1
54	55	6
20	20	7
56	66	2
34	34	4
78	78	5
95	97	1
43	45	2
89	89	3
96	96	2
100	100	3
24	26	2
87	90	2
97	98	6
86	99	5
82	94	1
43	44	1
84	102	1
32	34	2
52	52	6
38	40	2
40	68	1
40	42	2
107	109	1
104	105	6
89	91	1
81	94	1
76	105	2
74	74	1
31	32	4
70	70	3
76	80	4
111	113	2
22	35	1
26	26	2
69	109	1
70	75	1
98	98	4
90	90	2
70	111	1
20	22	1
101	110	1
55	55	3
63	67	2
106	107	3
69	111	1
41	43	3
112	113	1
45	45	1
83	85	1
100	103	2
58	59	1
63	64	2
84	87	2
81	83	2
81	81	1
63	68	2
53	54	2
28	108	1
72	72	3
37	39	2
62	67	1
112	112	1
98	99	1
66	67	1
92	92	6
68	103	2
60	60	1
99	100	3
34	35	1
71	73	1
101	102	3
57	62	1
97	100	1
65	72	1
62	65	2
58	58	5
93	108	1
81	85	5
49	51	1
36	92	1
96	97	4
60	87	1
73	74	2
25	26	3
71	75	2
89	90	1
99	113	2
62	66	1
93	97	2
33	51	1
30	73	1
29	31	2
21	21	2
23	23	1
71	72	2
28	65	1
19	25	1
51	52	1
105	105	3
50	53	1
95	110	1
51	51	1
36	37	1
91	92	1
42	44	1
70	72	1
35	35	1
41	41	1
74	79	1
72	75	1
