147	147	2
42	42	12
13	46	2
122	122	7
109	109	10
33	33	9
75	75	6
175	175	3
144	144	8
3	4	4
168	168	8
4	4	3
143	143	14
35	35	12
42	102	4
117	117	5
30	36	1
22	23	5
95	95	15
136	136	5
123	123	6
120	121	3
144	145	1
26	27	5
8	8	5
104	105	2
24	24	9
15	16	2
15	15	15
54	54	3
29	29	8
3	3	16
38	38	10
103	119	3
5	5	3
74	74	4
155	155	6
41	41	11
111	111	5
86	100	2
53	60	1
0	1	4
10	16	2
164	166	2
21	21	8
127	127	5
30	30	6
2	115	1
124	124	5
146	167	1
176	177	1
42	43	5
105	105	1
164	164	5
129	129	9
144	168	3
2	36	2
180	180	4
12	12	16
32	41	1
153	153	6
130	135	3
137	137	6
43	43	5
29	36	1
146	152	2
145	145	3
106	106	2
28	29	3
170	170	2
145	166	1
66	67	4
132	132	6
22	22	14
162	163	1
6	87	2
171	171	3
53	53	3
8	10	1
165	165	5
133	133	3
18	44	2
36	37	6
114	114	5
77	78	1
6	16	1
130	131	4
39	39	4
75	80	4
11	12	2
9	9	7
80	81	5
169	169	4
28	28	6
156	156	13
43	44	6
140	140	5
44	45	2
37	37	2
117	118	2
32	32	4
166	166	3
165	166	6
117	129	3
2	35	2
59	59	2
72	73	1
150	151	1
161	161	5
62	63	4
73	148	1
148	148	6
20	20	4
149	149	4
10	17	2
134	179	3
2	4	6
4	33	1
6	6	5
87	87	8
116	116	4
50	50	2
120	120	5
176	176	6
121	122	2
73	74	2
66	97	3
87	112	2
10	10	10
178	178	4
164	174	4
0	15	2
13	14	1
15	17	1
7	9	6
34	34	4
13	29	3
23	24	3
41	110	2
52	53	8
25	29	2
142	142	5
128	129	3
63	63	7
157	157	9
13	13	8
85	100	1
147	151	2
95	96	1
115	116	2
152	152	2
11	11	4
84	85	6
163	165	1
162	162	4
52	52	3
16	36	4
53	54	4
110	111	3
26	26	3
119	153	1
118	153	3
25	27	2
112	112	11
60	60	4
6	60	1
178	179	2
83	83	4
134	134	5
168	175	2
174	174	5
121	121	3
104	104	6
79	80	1
108	109	2
77	80	2
177	177	3
158	158	7
108	108	3
86	91	2
6	43	1
86	111	1
89	93	1
98	99	3
44	44	8
164	168	1
102	102	6
135	139	2
86	98	1
30	31	5
41	42	3
27	27	4
31	32	1
103	104	3
9	32	2
1	1	4
31	31	5
93	93	2
15	18	1
166	167	2
8	9	3
86	89	2
82	82	13
29	34	2
133	134	2
7	7	16
19	20	6
58	58	2
16	16	12
120	126	1
120	152	1
96	111	3
107	107	2
115	152	3
18	23	1
165	169	1
11	13	2
16	21	1
119	119	2
25	25	4
46	98	1
17	18	2
5	16	1
156	157	5
2	3	3
146	150	1
126	126	5
27	28	1
79	79	2
65	72	2
66	68	1
92	96	1
14	14	7
157	162	1
139	139	5
90	90	1
68	68	4
33	41	1
73	85	1
35	36	1
90	91	4
156	163	1
122	145	1
127	128	3
4	51	1
127	129	4
139	140	3
0	0	6
135	135	3
5	6	2
30	34	1
172	172	5
62	62	1
36	36	6
163	164	2
30	101	1
51	81	2
49	49	1
76	79	1
138	138	2
19	19	7
89	89	2
156	180	1
66	66	4
37	38	3
61	75	2
15	63	2
68	118	1
63	86	2
107	143	1
21	22	1
53	58	1
26	28	1
75	106	2
66	118	1
83	84	5
80	80	3
23	23	3
4	14	1
16	17	2
18	18	8
72	72	4
15	62	1
56	56	3
25	30	1
60	63	1
2	2	2
60	75	2
86	88	1
8	14	1
76	77	2
131	148	1
3	5	4
45	45	2
29	30	2
59	83	4
40	40	5
130	151	1
153	161	1
158	167	1
1	4	1
110	110	6
98	101	1
13	39	1
130	130	1
119	151	1
38	44	2
115	115	1
71	71	3
10	12	1
7	8	2
15	20	2
63	88	2
31	82	1
159	160	2
103	103	2
154	154	1
15	43	1
51	51	2
5	17	2
97	98	1
167	167	1
31	36	1
8	84	1
51	52	2
91	144	3
159	167	1
160	160	5
106	153	1
141	141	3
128	128	1
73	110	1
39	106	1
4	15	4
57	60	3
46	65	1
19	22	1
18	43	5
122	125	2
145	147	1
17	31	1
87	98	1
116	117	1
10	97	2
86	86	1
115	117	2
119	161	1
154	174	1
125	125	1
118	118	2
142	173	2
64	76	1
90	93	2
175	176	3
19	42	1
75	85	1
4	5	1
35	41	2
164	167	1
30	32	1
10	11	3
84	84	1
96	97	2
152	161	3
99	99	2
3	15	4
78	80	1
3	36	1
17	32	1
97	97	1
61	116	1
105	147	1
18	34	1
24	29	1
27	29	1
163	170	1
62	64	1
76	78	2
22	24	1
20	21	1
65	65	1
168	169	1
17	20	2
24	26	3
30	35	1
131	131	2
154	167	2
55	55	2
113	114	1
92	93	1
134	135	1
12	38	1
3	46	1
73	73	1
128	157	1
144	172	1
137	141	1
0	123	1
17	61	1
17	17	1
25	28	2
143	145	1
91	95	1
1	2	2
53	72	1
8	11	1
54	61	1
107	170	1
88	88	1
115	157	1
75	81	1
83	86	1
100	101	1
85	86	1
40	106	1
29	37	1
93	150	1
162	174	2
120	128	1
60	61	1
172	173	1
113	119	1
114	115	1
169	174	1
89	128	1
99	100	1
85	85	3
143	144	1
51	61	2
127	166	1
70	70	1
86	95	1
67	118	1
17	23	1
129	165	1
50	55	1
6	7	1
111	113	1
140	142	1
131	149	1
173	173	1
125	160	1
45	66	2
11	38	1
73	97	1
9	84	1
40	41	1
93	163	1
16	30	1
21	23	1
96	109	2
6	51	1
81	81	1
64	110	1
39	40	1
135	136	1
151	151	2
6	12	1
91	94	1
121	161	1
104	106	1
42	139	1
54	71	1
18	31	1
74	85	2
57	57	1
46	46	1
0	65	1
50	84	1
13	43	2
142	143	1
179	179	1
61	61	1
102	150	1
166	169	1
