70	70	16
95	95	10
100	101	6
75	76	3
54	54	6
71	71	18
64	65	10
44	44	19
81	92	2
58	100	9
88	88	23
63	64	7
99	99	26
35	96	2
44	75	4
53	53	10
53	54	5
98	101	4
50	86	5
42	42	26
57	58	5
77	77	9
87	87	19
32	32	9
43	43	27
82	82	4
80	80	16
96	97	2
62	62	13
48	99	4
67	67	19
49	50	4
40	40	15
66	66	6
74	75	2
77	78	8
38	38	12
55	92	5
84	84	8
35	44	4
34	95	2
40	75	2
23	55	1
48	48	19
43	44	6
51	52	5
92	92	20
101	101	13
42	43	5
27	68	3
91	93	4
54	55	5
76	76	14
33	33	10
61	92	5
84	91	2
27	53	2
39	39	5
46	88	4
51	97	2
41	41	11
47	47	6
70	74	1
83	84	8
63	63	20
29	29	15
78	78	14
61	64	4
35	35	5
34	35	5
60	61	9
74	74	13
45	90	2
85	85	10
33	34	4
33	84	1
25	25	10
23	53	5
99	100	4
46	54	5
93	94	10
58	58	23
50	50	8
56	57	5
100	100	20
64	64	9
70	72	9
31	66	1
46	48	3
55	65	4
97	97	17
49	86	2
73	73	15
92	93	6
52	52	12
48	80	3
36	36	3
93	93	21
51	51	13
26	83	2
81	81	22
71	72	4
51	96	1
91	94	2
59	59	22
81	82	3
27	27	8
90	101	1
47	88	4
22	77	1
40	41	7
68	70	1
66	67	1
91	91	9
60	60	21
36	39	2
62	93	3
91	92	8
89	94	4
55	94	3
29	60	3
69	69	15
47	48	6
58	64	2
96	96	8
93	101	2
36	37	3
54	81	2
24	24	5
45	52	1
69	70	3
55	55	12
65	66	7
33	82	1
47	85	5
46	46	8
57	57	3
64	68	3
35	90	3
89	89	7
90	91	2
75	75	17
29	30	2
61	61	13
37	37	17
79	79	6
65	65	11
20	20	4
52	58	4
48	49	1
95	96	6
27	94	2
47	86	5
56	56	9
51	64	1
62	63	11
95	97	2
92	98	2
60	93	5
58	59	2
49	49	10
83	83	11
46	101	1
68	74	4
79	81	12
25	49	2
20	26	3
94	94	5
46	53	2
45	76	1
31	93	2
47	81	6
73	75	2
51	76	4
55	87	6
86	86	12
41	42	3
85	86	1
70	71	2
61	80	2
52	54	1
34	39	1
34	34	8
22	23	2
62	83	1
26	27	2
32	94	2
28	29	2
22	51	2
39	40	2
59	63	1
46	77	2
102	102	4
59	60	1
24	28	3
68	68	11
64	69	2
21	22	1
40	80	2
32	44	1
64	72	2
45	45	11
98	98	11
72	73	3
25	61	4
28	87	1
32	45	3
24	27	4
54	87	2
38	95	3
35	36	4
52	81	2
79	80	6
50	55	2
50	99	3
58	90	1
89	99	1
51	79	1
37	97	2
77	99	2
66	72	2
25	26	8
89	90	2
78	79	5
40	63	4
26	26	1
27	28	3
50	89	3
39	58	1
45	80	1
31	31	5
22	53	2
67	68	2
68	69	1
83	92	5
35	52	2
25	53	2
34	96	2
61	94	4
72	72	5
41	50	3
93	96	3
45	46	2
97	98	2
51	65	1
55	80	2
37	48	4
87	88	1
26	61	3
41	44	1
22	25	1
61	83	5
35	63	2
36	95	1
51	69	2
54	86	2
35	86	2
62	92	1
38	96	1
41	99	1
80	81	4
91	101	1
27	45	1
90	90	8
20	27	1
38	78	1
83	93	2
53	81	6
96	98	2
74	82	1
46	79	1
34	99	1
37	47	2
50	56	3
61	81	2
23	24	1
35	82	1
61	62	1
60	95	1
89	101	3
56	65	1
34	94	1
31	100	1
26	28	3
38	88	1
86	87	3
44	73	2
31	45	1
47	79	1
59	97	1
55	56	4
23	50	1
65	73	1
48	54	1
65	67	2
57	72	1
27	84	1
33	49	2
34	89	1
25	27	1
24	53	2
45	55	1
95	98	1
38	53	1
23	26	2
47	87	1
76	96	1
49	93	1
99	101	1
53	82	1
34	101	1
22	22	1
57	61	1
62	81	1
94	99	1
94	95	2
38	40	1
60	97	1
32	95	1
41	75	1
33	54	1
23	78	1
25	77	1
62	84	1
76	77	1
37	53	1
55	61	1
73	74	1
58	60	1
23	23	1
