57	57	2
46	47	3
142	142	8
78	78	15
53	53	2
73	74	5
77	78	9
67	67	5
49	57	1
132	132	6
87	87	7
14	16	1
40	40	5
27	27	11
11	56	1
75	75	4
64	64	6
65	65	21
47	53	2
80	81	2
140	142	3
24	25	3
28	28	3
46	46	13
115	115	6
26	26	8
62	62	7
43	46	2
133	151	3
114	114	6
93	121	5
83	83	14
94	150	3
19	19	5
12	12	12
80	95	4
41	43	1
102	102	11
3	5	1
4	21	3
125	125	5
92	93	4
127	128	4
25	26	6
128	130	3
63	63	5
55	55	5
51	51	2
11	11	6
124	125	1
15	15	4
63	64	4
96	97	4
139	139	7
45	45	9
130	130	4
121	121	4
101	119	1
144	147	5
65	66	4
93	99	3
83	84	9
12	13	1
76	76	4
38	41	2
41	41	3
51	68	6
97	97	5
44	45	1
14	14	4
63	84	2
104	104	9
107	107	3
49	49	6
19	24	6
131	131	1
3	3	5
81	82	5
49	53	3
13	13	2
68	69	1
134	134	4
11	16	2
15	36	3
26	57	3
89	89	1
28	29	5
143	143	3
34	36	2
84	85	4
88	88	1
117	117	5
31	31	2
82	82	5
126	126	1
74	74	3
19	37	2
26	28	1
94	95	3
80	80	6
129	129	2
122	136	1
96	99	1
93	93	10
42	42	5
15	37	3
45	46	5
93	98	2
86	86	2
55	56	2
93	150	3
21	21	6
20	21	5
140	140	4
92	94	2
136	148	3
31	35	2
15	16	2
106	106	5
77	77	6
141	142	1
35	36	1
8	8	3
33	33	4
72	73	4
75	76	2
5	5	2
105	111	3
118	118	7
48	48	7
34	54	3
92	92	1
105	110	1
110	115	6
22	22	10
33	34	3
148	148	5
70	70	2
122	147	1
3	81	3
47	47	1
29	30	2
98	98	4
24	24	2
112	112	1
127	127	2
111	111	4
43	43	1
65	75	1
74	80	1
141	141	2
18	18	13
64	66	3
150	150	2
28	41	3
96	96	4
7	8	1
135	135	2
17	17	2
117	135	2
41	42	4
88	92	2
34	51	1
101	102	1
99	127	3
77	81	1
67	86	4
120	120	4
102	116	4
81	113	1
10	10	1
38	39	4
100	119	1
118	119	3
13	55	2
72	74	2
10	18	1
66	66	2
13	38	2
153	153	2
34	34	6
146	148	2
7	7	2
29	29	2
147	147	2
85	85	1
96	149	2
118	151	3
97	98	7
67	85	3
100	101	3
25	64	2
12	55	1
119	138	1
96	112	2
23	23	2
84	84	4
44	44	2
7	66	3
34	37	1
110	110	1
37	40	2
16	17	2
125	128	1
100	151	4
32	33	1
94	94	2
32	32	3
113	113	1
3	6	1
93	132	2
100	102	2
18	40	2
11	55	1
144	144	2
87	94	2
25	25	2
58	58	2
100	100	1
126	127	1
137	137	1
128	128	1
105	105	1
72	72	3
95	98	2
66	67	1
9	76	1
66	68	1
94	149	1
98	112	1
96	108	1
20	20	1
50	55	1
121	122	1
39	39	1
104	112	2
85	86	2
147	148	1
48	49	1
149	149	3
42	43	3
27	34	1
103	112	2
17	18	1
9	10	1
119	120	2
36	37	1
69	81	1
79	79	2
49	54	3
14	15	2
108	108	1
32	35	1
123	124	1
75	81	1
81	81	1
124	124	1
10	39	1
32	34	1
19	38	1
133	148	1
108	109	1
92	114	1
40	72	1
3	82	1
26	76	1
19	20	1
39	40	1
74	76	1
36	36	1
4	4	1
136	138	1
49	50	2
87	88	2
43	53	1
11	28	1
75	85	1
46	92	1
9	9	1
71	71	1
