22	23	6
102	103	6
138	139	8
99	99	6
90	90	9
97	97	6
129	129	1
140	140	8
2	2	13
75	77	5
78	78	8
16	16	2
87	87	5
83	83	3
122	123	6
110	110	6
115	115	10
103	104	6
128	128	8
79	79	4
121	140	2
126	126	11
7	7	11
119	119	6
92	92	9
118	118	2
30	31	3
27	28	5
114	115	7
105	122	1
122	122	9
32	32	3
123	123	6
28	28	5
5	5	6
120	120	5
74	74	5
80	80	12
15	15	1
135	135	7
111	123	4
93	93	5
14	15	4
35	36	9
125	126	5
74	94	4
75	75	12
17	91	2
75	80	2
136	136	13
127	137	1
0	0	3
37	72	1
105	107	1
139	139	11
138	140	2
94	95	3
138	138	5
16	98	3
34	34	8
111	111	9
4	4	5
106	107	1
119	120	2
21	21	2
12	16	3
131	131	16
134	134	4
96	96	2
84	85	3
86	86	4
87	90	1
25	26	3
74	75	2
33	34	2
36	36	7
136	137	4
88	88	2
25	25	2
116	116	11
2	3	11
87	93	3
125	125	8
8	8	4
89	89	10
14	17	3
79	80	3
104	104	8
106	106	2
97	98	5
19	20	1
127	128	2
92	93	3
100	101	1
18	33	5
110	125	2
127	127	9
35	116	2
132	132	6
87	88	8
93	94	4
124	124	14
76	77	4
137	137	5
17	19	2
12	22	3
6	36	9
130	134	2
26	26	4
27	27	3
20	20	10
129	130	1
117	117	3
125	127	3
123	124	7
112	112	6
113	113	5
12	12	2
19	19	6
105	116	4
100	100	7
101	101	7
95	96	4
17	18	1
20	21	2
5	6	3
82	82	4
112	113	1
23	23	2
22	31	2
133	133	8
1	1	3
17	17	3
20	37	2
73	73	4
131	134	2
72	74	2
126	127	3
34	35	2
11	11	3
113	115	2
120	121	2
85	89	2
73	93	2
18	18	5
104	106	6
134	135	1
89	90	3
131	132	2
131	138	2
124	125	3
113	114	1
1	3	1
91	91	4
129	136	1
13	14	4
77	77	2
35	35	2
13	13	4
85	85	2
108	108	3
85	87	3
72	73	3
128	136	2
130	130	11
109	109	5
14	78	1
118	120	2
11	12	4
87	96	2
31	32	1
33	33	1
101	124	1
7	31	2
99	100	4
4	5	1
10	10	3
117	118	1
32	78	1
21	22	7
22	22	1
73	75	2
83	84	3
111	112	1
75	79	1
23	25	1
36	37	1
83	85	1
100	135	3
84	87	2
102	102	2
90	95	1
99	130	1
29	30	3
84	84	2
37	37	2
25	31	1
121	121	3
8	10	1
89	101	1
128	135	2
23	27	2
24	25	2
6	6	4
125	130	2
4	6	1
103	108	2
86	87	1
3	34	2
116	117	1
91	94	1
10	78	1
132	133	1
33	35	3
90	91	1
98	130	1
6	101	1
81	85	1
132	134	1
1	9	1
6	7	1
38	38	1
