46	46	5
183	188	2
50	50	9
40	41	1
172	173	4
188	188	6
153	153	5
26	28	2
2	2	1
138	141	4
1	1	8
57	57	4
99	115	4
153	186	3
113	114	1
144	145	6
15	15	3
170	170	5
33	33	2
36	36	4
134	137	1
12	13	4
112	112	2
190	191	1
6	6	5
65	65	2
111	111	1
180	180	5
163	163	6
24	192	2
28	29	1
166	167	2
112	140	1
13	13	1
156	156	6
156	170	2
4	20	2
128	128	4
154	155	1
20	22	2
127	128	1
124	126	3
120	121	1
54	54	4
34	34	6
16	40	1
78	78	6
152	152	4
58	58	1
53	54	4
121	121	4
165	165	4
61	61	2
24	24	3
120	120	4
72	72	2
147	147	6
175	177	3
105	107	6
31	142	2
71	137	3
20	20	3
164	165	1
94	94	2
22	173	8
18	19	1
26	36	4
43	43	3
23	23	2
104	104	5
179	179	3
165	166	4
8	8	8
40	40	4
145	145	3
166	166	1
181	181	3
153	166	3
27	27	3
4	25	4
153	165	1
51	56	1
113	113	4
106	106	3
9	9	4
108	108	2
42	42	3
23	187	3
190	190	4
17	17	6
157	157	2
35	35	2
180	183	2
179	181	1
33	195	2
33	114	6
185	185	3
86	86	3
183	184	1
146	146	1
15	16	2
161	164	3
175	176	1
177	178	7
14	14	1
182	185	2
196	196	5
27	29	4
30	30	4
101	101	2
38	38	1
148	159	2
184	184	7
32	32	1
146	147	3
148	148	6
1	3	5
29	29	4
67	67	8
192	193	4
189	189	9
158	158	3
101	102	1
174	174	5
45	45	9
10	10	4
22	22	8
161	190	1
95	95	5
183	187	1
13	14	2
173	173	1
139	139	2
160	160	4
116	116	5
100	135	5
197	197	4
85	86	1
87	89	4
46	47	5
48	48	3
68	68	1
182	183	2
185	189	2
109	109	2
49	50	2
132	137	1
99	99	3
79	79	6
169	169	3
102	102	3
25	25	3
150	150	3
183	189	2
129	129	2
55	55	1
124	124	2
82	85	1
179	180	2
182	182	3
59	59	1
4	4	2
193	193	3
41	41	2
36	37	2
7	8	2
105	105	1
171	171	1
145	146	1
32	33	1
191	191	3
151	160	1
35	37	2
178	179	1
56	56	1
20	32	1
161	161	1
125	126	6
173	175	3
4	8	2
27	28	4
177	177	4
40	42	1
186	186	1
18	26	2
30	31	6
0	0	5
162	162	1
49	49	3
64	64	2
167	167	5
154	169	1
19	20	3
107	107	3
95	96	2
184	185	2
192	192	7
5	5	2
39	39	1
162	164	2
3	6	1
138	138	2
43	44	2
127	127	2
183	183	4
7	7	2
34	35	2
106	107	2
151	155	2
110	110	1
24	25	2
123	123	3
159	159	1
41	43	1
195	195	1
123	126	1
135	142	1
71	72	2
107	143	2
117	117	2
176	176	1
14	32	1
36	38	1
32	143	1
0	2	2
101	106	1
20	21	1
12	12	1
68	69	1
30	142	1
180	181	2
88	90	1
168	168	2
100	100	1
164	166	1
186	188	1
124	125	1
58	59	2
134	168	1
165	168	1
51	51	1
48	160	1
187	188	1
149	154	1
31	31	1
124	128	1
142	142	1
