52	52	22
44	44	23
68	68	10
51	57	4
46	46	11
59	59	18
67	67	13
60	60	29
50	50	20
66	66	12
39	40	6
89	89	17
55	55	15
91	91	16
43	44	5
71	72	9
93	93	28
74	74	13
26	27	4
54	54	7
98	98	10
34	34	3
91	92	7
36	36	7
60	76	3
44	65	4
62	62	7
88	88	7
65	65	13
90	90	18
56	57	10
79	81	3
101	101	7
80	80	18
63	65	3
51	51	10
44	45	6
48	48	19
51	52	7
76	77	10
42	42	27
101	102	8
48	68	4
73	73	18
29	29	15
64	64	17
85	85	18
61	62	9
97	98	4
73	74	4
57	58	4
71	71	7
99	99	9
24	25	3
83	87	2
33	33	18
92	92	28
68	89	1
25	27	3
40	41	9
22	22	7
72	72	18
77	77	13
93	98	1
93	95	3
81	88	3
50	52	3
62	63	9
75	75	20
63	64	8
92	94	3
61	61	23
82	92	2
51	56	3
80	81	7
65	66	6
76	76	11
86	86	8
25	29	2
83	83	10
59	60	5
97	97	3
86	87	7
81	92	4
47	47	3
63	63	15
37	37	6
49	50	6
102	102	16
79	79	19
65	67	3
76	90	3
42	44	3
23	25	3
35	35	18
90	91	4
57	57	11
58	60	6
74	75	6
43	75	3
94	98	3
68	70	2
84	97	3
86	93	1
26	26	14
44	99	2
47	96	5
81	82	1
55	85	5
49	49	14
41	41	14
70	70	12
33	64	4
69	74	7
51	73	3
59	63	1
74	85	2
31	31	2
50	51	2
86	89	3
46	63	3
35	37	3
25	25	10
67	68	2
39	39	6
20	21	1
40	40	10
33	48	2
41	56	3
52	86	4
68	86	1
92	93	8
70	71	7
42	75	2
58	58	4
82	88	5
45	45	7
59	74	2
64	65	9
66	69	2
48	83	1
56	56	14
52	91	1
32	33	2
64	67	1
24	27	1
99	100	3
64	70	8
80	86	1
68	69	1
64	71	4
94	97	2
27	27	7
56	59	2
69	69	11
82	87	3
23	26	1
41	42	4
78	78	9
82	93	2
42	43	1
52	85	2
24	24	3
72	99	3
35	36	3
98	99	5
52	55	2
46	47	4
87	99	2
79	94	2
53	54	4
56	76	4
81	81	6
90	99	2
34	35	3
84	93	1
49	63	1
48	101	1
96	96	4
94	94	7
83	93	1
52	53	2
53	91	3
25	26	5
82	82	3
93	94	4
92	96	1
41	43	3
78	95	2
51	62	2
92	95	2
41	50	5
69	70	1
47	71	3
48	50	1
55	86	2
94	95	3
27	28	1
60	77	3
37	38	3
87	88	3
60	61	8
64	66	3
49	101	6
89	90	2
24	26	1
95	95	6
96	97	4
38	38	5
100	101	4
66	67	1
50	64	4
45	65	1
46	50	3
53	62	1
78	79	1
32	32	1
44	85	1
55	56	7
85	86	1
38	39	3
81	87	1
96	101	1
42	72	1
91	93	1
79	82	2
45	47	3
44	66	1
88	90	1
71	75	3
83	84	1
72	74	2
87	87	3
81	93	1
72	73	3
23	24	1
29	30	3
56	90	1
43	43	1
58	59	3
92	97	2
47	48	2
44	64	1
48	53	1
79	91	1
77	78	6
83	86	1
49	62	1
93	99	2
84	84	1
40	85	1
80	100	1
29	37	1
49	67	1
80	92	2
68	74	1
87	89	2
43	74	1
67	102	1
37	39	1
36	37	1
85	91	1
56	71	1
48	90	1
100	100	1
55	57	2
46	84	1
34	41	1
63	74	1
70	72	1
95	96	3
89	92	1
45	74	2
27	78	1
28	28	2
91	94	1
94	96	1
33	44	1
