39	44	2
110	110	28
75	75	32
29	29	28
98	99	12
52	52	42
53	53	29
26	26	42
74	74	31
126	127	13
5	7	3
61	61	15
114	114	31
19	32	3
82	84	11
78	78	12
25	26	11
104	104	18
65	66	13
1	1	28
49	50	8
115	124	2
101	101	14
13	13	51
94	94	18
41	42	10
131	131	10
21	21	33
19	19	8
21	22	8
8	9	9
112	112	32
85	85	21
96	97	6
77	77	13
90	90	22
103	103	22
45	48	3
11	13	5
121	122	5
60	88	1
102	103	18
84	84	8
0	0	19
53	54	6
130	130	24
22	23	16
122	122	15
129	129	13
106	106	27
51	53	3
7	7	29
96	96	20
10	10	44
102	102	14
31	32	7
68	80	2
101	103	12
117	117	23
124	124	23
29	30	21
25	25	19
33	33	15
89	89	18
132	132	21
37	37	4
13	15	1
121	121	26
18	18	12
23	24	11
41	75	1
44	45	11
73	74	13
95	96	13
51	51	34
23	45	5
22	22	26
23	23	17
39	40	14
69	69	17
64	64	16
19	21	13
44	44	17
41	41	27
49	49	31
40	40	23
123	123	29
111	112	3
54	54	41
43	44	10
82	82	22
4	6	3
91	93	11
76	76	31
2	3	9
33	34	5
80	81	15
28	30	6
4	5	18
11	11	20
20	22	6
95	95	20
113	113	25
19	20	8
88	88	17
99	104	2
15	15	33
49	54	1
15	78	5
107	107	16
92	92	15
45	47	2
115	116	12
105	105	10
6	31	9
107	109	7
57	96	2
12	12	19
66	66	6
78	79	18
60	60	31
24	25	1
127	128	8
28	28	18
20	20	13
5	6	7
38	38	15
86	86	11
105	116	3
61	62	9
72	72	23
56	56	45
14	14	20
58	58	14
46	47	18
125	130	3
104	106	3
60	62	8
85	86	10
118	120	3
87	87	16
69	74	1
108	108	23
47	48	8
83	83	23
5	5	21
11	16	4
73	73	16
88	97	3
64	66	4
12	13	16
68	68	27
30	30	12
74	117	3
65	95	3
0	5	4
79	80	9
59	71	5
41	44	3
67	67	24
59	66	3
83	85	3
64	65	12
105	106	9
70	75	2
100	126	4
55	55	21
80	80	27
40	47	2
93	94	5
8	8	17
47	47	31
98	101	3
113	114	7
27	27	17
100	101	12
87	88	13
125	126	7
118	118	15
40	41	9
80	83	1
15	16	3
13	22	2
45	45	21
9	10	4
16	16	15
59	59	22
123	124	17
63	102	1
63	63	21
6	52	1
56	57	2
4	97	3
105	107	2
20	21	4
2	2	17
91	91	12
74	76	1
17	17	15
43	43	19
118	119	13
65	65	11
59	60	3
4	4	18
69	70	10
130	131	7
28	29	4
68	130	1
81	81	28
104	120	2
45	46	9
43	48	4
75	77	4
114	116	6
100	100	9
72	75	3
109	109	33
99	114	2
93	93	22
52	69	4
1	5	3
108	113	6
39	42	5
97	97	21
18	20	1
79	79	17
71	71	15
90	91	2
86	87	7
40	52	3
48	49	8
58	62	6
38	39	5
42	43	9
48	48	15
0	1	13
102	105	2
82	99	4
120	120	13
99	99	23
13	25	3
103	108	1
2	7	4
122	123	8
87	89	3
128	128	10
82	102	2
102	106	1
98	100	1
46	49	3
11	12	6
57	57	23
58	59	11
119	119	17
46	46	21
70	70	26
13	14	10
19	27	1
14	41	1
6	7	2
19	98	7
116	116	18
96	99	3
8	39	1
91	92	6
95	105	6
11	25	2
46	48	10
95	109	2
115	115	22
77	101	3
40	43	3
34	34	8
4	85	2
131	132	5
55	59	3
42	54	2
24	24	18
90	93	4
19	76	3
66	67	17
104	105	12
126	128	9
98	98	14
29	31	4
111	111	11
69	71	2
58	61	3
6	56	1
68	76	1
6	26	1
18	60	2
15	96	6
119	120	9
97	103	5
38	40	5
101	102	11
18	103	2
6	6	29
96	100	1
107	111	3
108	109	5
72	73	3
65	69	1
96	98	2
125	131	1
88	90	5
108	111	4
10	49	6
77	100	1
109	111	5
85	88	2
11	24	3
133	133	8
126	126	19
58	80	2
83	84	8
8	12	2
125	125	15
77	118	3
30	31	5
18	29	1
71	72	3
14	15	8
20	80	1
74	115	1
3	3	12
58	60	4
16	17	7
4	9	2
115	125	4
52	53	7
3	4	8
39	39	14
26	27	1
107	115	4
68	82	1
87	115	2
29	42	2
43	45	3
46	53	1
27	32	3
132	133	4
83	88	1
87	97	2
97	98	2
7	16	4
88	89	4
31	31	4
75	76	5
89	93	2
68	69	5
127	127	14
109	110	4
84	85	6
72	74	6
8	66	5
50	50	28
23	47	2
72	76	1
11	26	2
94	96	1
93	104	2
10	11	1
15	30	5
94	95	9
40	65	4
63	75	1
67	77	3
40	92	4
110	112	1
113	118	1
63	133	4
70	71	5
39	82	2
29	92	3
66	68	3
33	99	1
89	91	5
13	23	2
10	67	1
24	30	2
129	130	2
38	44	2
0	3	2
93	96	1
49	52	1
91	95	3
77	78	3
128	130	1
50	51	8
116	117	7
40	91	4
67	69	1
22	33	1
42	42	21
128	133	2
23	114	2
9	9	12
60	99	3
39	41	3
3	5	4
63	64	6
19	95	2
51	52	7
81	91	1
84	89	2
96	102	2
16	115	1
60	61	9
88	115	1
58	68	3
17	18	4
65	68	2
19	30	2
38	42	1
108	115	2
34	109	1
30	56	1
53	92	2
114	115	1
57	58	2
2	5	1
49	109	3
31	63	2
49	51	1
61	65	1
95	112	4
41	53	2
62	63	6
75	133	3
69	92	4
99	101	4
59	62	3
8	10	1
79	97	1
7	25	8
58	70	3
89	105	1
130	132	1
72	78	1
76	112	1
42	55	2
60	63	2
53	57	1
86	90	2
7	9	1
3	7	1
24	117	1
33	119	1
91	94	1
12	15	4
70	90	1
67	68	8
12	14	1
32	39	4
63	65	3
68	77	3
90	107	2
63	66	1
76	77	2
100	103	1
2	50	2
105	113	4
13	24	2
24	26	5
27	116	2
111	113	4
118	124	3
20	56	2
26	98	2
70	133	1
99	103	4
62	62	5
73	108	3
83	87	1
99	100	5
27	30	1
114	118	2
68	74	2
20	31	3
97	102	3
25	127	3
54	65	2
101	113	1
1	81	1
128	131	1
38	41	2
52	112	2
83	89	1
86	88	1
110	111	2
43	72	1
48	57	2
8	11	2
92	96	2
55	56	1
2	8	2
70	72	1
92	94	1
124	126	1
71	81	4
46	55	1
126	129	2
38	109	1
71	73	1
32	70	3
55	57	1
74	75	3
114	117	1
90	118	1
31	33	2
1	2	2
27	28	1
79	99	2
71	80	1
32	32	6
41	43	2
100	104	3
15	33	4
45	58	2
39	66	1
124	125	2
58	76	1
42	56	2
92	93	2
125	127	3
3	34	3
23	26	2
66	77	1
52	57	2
83	86	1
121	123	2
128	129	2
18	21	1
28	96	1
16	21	3
15	93	1
40	42	2
72	77	3
1	20	1
7	8	3
57	82	1
89	107	3
127	133	1
11	61	1
51	94	2
47	60	2
10	30	1
97	99	1
81	90	1
70	121	1
28	44	1
91	106	1
70	92	1
107	108	2
6	34	1
58	79	1
64	104	2
84	87	2
79	100	1
68	102	1
85	90	2
12	63	1
33	38	1
29	39	1
87	91	1
34	39	1
80	104	2
25	116	2
48	54	2
117	118	1
5	9	2
88	94	1
96	124	1
81	83	2
88	91	3
10	12	1
100	109	1
41	47	1
108	116	1
42	45	1
64	75	1
64	113	1
118	122	1
33	66	1
28	46	1
59	68	1
77	97	1
32	34	1
87	100	1
30	39	1
99	102	1
89	90	1
61	98	1
54	55	2
68	81	1
20	32	1
0	2	1
89	116	1
68	70	1
106	107	1
42	85	1
88	99	1
18	28	1
82	86	1
