118	118	16
4	5	4
123	127	3
16	136	2
129	129	29
33	33	6
78	78	16
116	116	24
11	11	12
73	79	9
131	131	56
27	27	24
140	140	25
134	135	9
132	132	69
34	36	3
78	79	10
27	28	3
136	137	6
100	134	4
125	125	42
19	21	3
114	114	20
114	115	23
94	117	2
128	128	18
100	100	14
117	117	12
5	5	32
85	85	12
8	8	20
0	2	6
92	92	18
135	135	13
123	123	53
139	139	31
132	133	9
112	112	27
130	130	48
15	15	17
29	30	8
134	134	32
31	31	12
138	139	5
2	2	14
28	28	8
126	126	29
10	10	3
122	122	24
20	20	24
115	116	9
95	95	11
89	89	28
81	86	8
138	138	30
75	75	32
92	119	6
139	140	16
34	34	20
130	131	14
120	120	26
129	134	8
72	72	16
137	138	7
137	137	24
19	19	25
76	76	17
116	117	4
36	72	1
105	106	6
131	134	9
17	20	2
19	20	10
115	115	12
37	37	15
22	22	26
101	112	3
74	116	4
13	13	23
97	135	4
97	97	9
97	98	3
35	35	39
104	105	3
18	18	18
133	133	39
91	91	15
79	85	1
80	117	7
35	36	6
80	80	13
32	32	29
26	29	3
99	99	3
134	140	1
3	15	5
71	71	8
119	119	10
89	90	4
128	138	4
87	87	6
9	10	7
90	90	7
1	1	14
84	84	14
4	4	17
104	104	4
110	110	11
123	128	3
7	12	7
0	12	2
82	82	10
24	24	7
83	84	7
25	25	7
102	102	6
12	12	12
72	75	4
17	17	18
101	102	3
127	128	13
0	16	1
85	116	3
73	73	18
15	16	6
107	107	13
21	21	12
26	26	11
105	105	3
20	21	14
99	135	1
111	112	8
129	138	1
94	94	3
132	139	7
10	12	2
82	83	5
136	138	12
30	31	12
98	98	16
3	4	5
84	87	5
6	7	8
123	129	2
17	21	6
16	16	17
101	108	2
108	108	4
74	75	16
36	36	30
124	124	21
23	26	7
6	6	26
91	94	5
126	128	7
8	9	5
127	135	1
129	130	19
126	133	2
101	106	2
28	32	4
9	9	15
113	113	22
74	74	22
23	24	5
7	7	12
37	38	3
21	22	5
121	122	8
6	17	1
103	104	12
82	84	1
79	117	4
133	134	4
128	133	3
9	22	6
2	4	5
91	92	3
101	101	21
29	31	2
121	123	1
32	34	4
100	111	7
97	100	2
129	139	8
23	25	1
96	96	19
17	22	9
8	23	1
103	103	12
118	121	2
14	14	11
131	133	7
2	25	5
84	86	5
26	27	7
109	109	9
72	73	3
127	127	22
127	132	2
128	129	5
8	11	8
128	139	8
81	81	16
124	125	13
93	94	8
125	126	11
0	0	8
77	78	15
0	1	6
102	104	3
126	137	8
100	114	7
16	38	5
117	119	1
88	89	4
9	18	5
112	114	3
111	111	2
72	86	1
15	128	2
73	75	5
1	2	4
81	83	3
95	96	5
14	111	6
79	79	14
27	30	3
6	18	1
15	21	1
105	116	4
28	29	3
120	122	4
121	121	9
74	106	1
129	133	3
90	91	2
112	113	6
16	17	4
30	30	10
5	26	2
107	108	7
136	136	11
91	132	2
119	122	6
126	127	8
79	80	6
110	129	1
23	43	2
127	133	5
91	95	2
23	23	10
3	38	2
35	37	1
96	97	10
104	108	3
127	131	2
71	72	3
93	93	3
103	124	2
93	120	2
90	113	2
85	87	1
5	34	5
94	95	8
118	122	3
77	102	3
76	77	4
26	113	1
5	6	7
18	19	15
74	138	3
7	8	3
85	88	3
3	3	11
0	8	3
130	132	2
32	33	10
82	116	1
120	123	4
36	37	5
110	111	7
84	85	1
18	20	1
120	121	4
83	83	3
34	35	5
24	26	1
135	136	7
133	135	3
73	74	2
88	88	3
122	123	8
10	11	7
2	3	2
102	103	4
1	7	4
105	107	6
86	87	8
11	12	3
110	114	2
17	18	7
0	13	3
82	87	2
77	77	4
99	100	1
24	25	2
0	11	2
22	34	1
2	12	2
74	77	2
27	29	2
5	31	1
108	118	2
101	103	3
132	134	1
92	93	1
22	23	3
31	32	3
127	129	3
117	118	7
83	85	3
73	78	2
117	120	4
122	128	2
7	11	5
113	114	4
2	26	2
12	13	3
9	23	3
106	107	1
86	86	3
17	38	7
118	119	1
92	94	2
14	15	3
91	111	2
101	111	2
73	116	1
93	119	6
4	16	2
17	19	4
104	117	2
113	135	1
7	18	1
29	29	2
7	9	1
25	26	1
73	104	1
11	18	2
88	115	1
8	13	1
75	77	2
102	106	2
130	140	1
106	108	4
9	16	1
136	140	3
90	111	1
72	89	1
23	30	2
109	110	4
131	132	5
13	23	2
131	135	2
103	106	2
130	134	2
119	120	2
21	34	2
74	101	1
83	86	2
110	113	2
80	114	1
134	139	1
136	139	1
100	124	1
92	95	1
1	8	1
14	21	2
103	108	1
27	32	1
134	136	1
85	86	1
75	76	2
105	119	1
130	138	1
9	11	2
44	44	1
109	111	2
128	137	2
128	131	3
27	37	1
129	135	1
125	127	2
6	12	1
95	100	1
104	111	2
1	10	2
15	39	1
129	136	2
123	124	2
13	14	2
116	118	1
96	100	1
2	14	1
130	133	1
14	22	1
119	121	1
88	114	1
73	77	2
9	12	1
28	31	1
104	106	1
8	10	2
106	106	1
81	88	1
108	110	1
36	130	1
131	136	1
108	116	2
23	27	1
103	105	2
117	130	1
3	5	1
