162	163	2
79	124	1
166	166	2
106	106	17
27	119	3
189	189	10
58	58	7
14	14	9
174	176	4
101	101	21
183	183	25
35	36	9
195	195	9
136	136	3
172	173	8
1	29	2
159	165	7
3	16	5
159	178	3
100	100	4
2	4	7
132	144	4
144	145	3
9	14	3
120	120	4
131	164	1
100	101	2
43	44	1
137	137	2
159	159	3
166	172	1
96	118	4
148	148	2
175	185	2
93	186	4
155	155	2
95	183	6
13	195	2
178	178	3
97	150	5
71	71	3
105	159	1
109	109	9
130	172	2
181	181	8
156	157	2
123	123	8
190	190	8
45	45	6
9	9	6
158	158	4
34	35	1
109	110	6
138	138	2
24	44	1
184	195	1
36	36	5
160	161	4
4	4	5
167	168	1
0	0	4
144	144	3
170	170	6
10	10	8
116	142	1
13	42	1
196	196	8
143	143	3
119	119	6
179	180	5
139	139	5
102	103	1
138	158	3
156	156	5
47	47	5
110	113	4
103	119	2
59	60	1
3	3	3
49	51	2
168	194	4
36	42	10
18	20	4
173	173	4
191	191	2
72	72	4
172	172	6
175	178	5
51	51	5
150	150	6
151	151	10
114	133	3
149	149	8
143	145	1
93	145	3
172	176	6
131	150	6
101	102	1
102	120	3
131	131	3
104	105	3
167	167	8
124	125	5
157	158	3
154	155	4
197	197	2
129	129	13
170	177	2
13	13	11
117	117	5
48	51	2
119	121	1
22	22	2
132	132	2
16	16	8
14	56	3
31	44	3
179	179	6
165	165	6
127	127	15
113	136	1
82	82	4
89	89	3
19	19	1
99	113	1
93	94	2
55	55	4
15	16	5
8	9	2
14	46	1
112	112	4
140	192	1
47	48	4
3	23	1
191	192	3
62	62	10
193	194	2
83	83	2
151	152	5
140	155	2
63	79	2
125	126	3
145	146	8
180	180	3
96	97	3
128	169	4
175	175	2
9	38	2
142	143	5
40	165	1
94	94	5
32	33	2
188	188	5
76	77	3
31	31	1
133	152	4
168	168	1
66	66	1
41	42	2
176	187	3
96	98	2
8	16	2
53	53	5
27	27	2
126	126	4
174	175	4
120	121	2
3	8	2
48	48	7
89	90	3
105	106	1
164	164	5
115	147	2
176	178	1
163	164	2
103	103	6
183	194	2
127	128	3
93	93	2
53	54	3
57	57	1
77	77	1
179	181	1
145	145	8
28	58	1
183	186	1
187	188	4
96	122	12
6	7	4
1	16	1
163	163	2
113	115	1
140	140	1
155	167	2
182	182	4
16	17	2
132	180	4
96	117	1
14	37	1
133	133	7
134	134	3
98	98	6
160	165	2
76	76	1
138	196	1
122	187	1
154	154	2
193	193	4
174	191	3
108	108	5
67	67	1
122	122	3
46	46	1
99	100	1
149	177	6
8	19	3
74	138	2
17	17	3
2	38	2
186	187	2
192	192	7
114	115	1
116	116	7
152	152	3
47	49	2
64	64	10
165	178	4
79	79	1
161	164	3
33	51	1
102	102	3
146	146	2
149	150	1
63	123	1
81	81	2
107	107	2
161	161	5
31	48	5
69	72	2
0	2	1
12	13	1
3	62	5
148	156	1
49	49	4
176	176	3
185	186	4
59	59	3
148	177	2
194	194	3
78	79	7
43	43	3
161	189	1
34	34	2
20	34	3
142	190	2
150	154	1
98	153	1
135	136	3
69	69	1
1	1	2
97	157	2
97	114	1
154	156	1
30	65	2
157	161	3
151	155	3
132	164	1
121	194	1
8	8	4
180	181	7
86	86	1
2	42	2
78	78	2
141	142	3
122	156	1
136	139	3
112	125	1
31	45	1
105	105	2
142	142	2
118	118	3
58	59	2
11	11	5
12	12	4
0	39	2
13	56	1
177	177	2
192	193	3
187	187	6
68	86	1
141	190	2
196	197	3
0	1	3
4	8	7
144	169	1
171	171	2
189	190	2
17	19	1
36	40	3
119	171	1
125	150	1
134	136	1
23	85	2
50	50	1
42	42	2
84	84	1
113	113	3
152	153	1
15	15	3
80	80	2
188	189	3
136	138	1
115	123	1
121	122	2
129	189	4
141	141	1
164	190	3
7	8	3
94	96	2
65	66	2
167	169	2
120	185	1
56	56	4
176	177	1
32	32	2
184	184	1
173	178	2
18	18	1
118	175	2
182	193	1
118	153	1
45	46	2
79	128	3
97	97	1
183	184	1
26	55	1
132	133	1
124	124	2
138	148	2
160	160	1
116	117	1
113	122	1
13	14	1
27	31	1
56	168	2
17	24	1
111	134	1
96	96	1
188	191	1
22	59	1
122	150	1
98	99	1
128	128	3
106	107	4
87	87	2
61	61	2
153	153	1
9	33	1
85	85	1
36	43	1
122	123	1
114	116	1
38	38	1
137	140	2
42	43	1
42	193	2
117	118	1
6	167	1
157	157	1
184	185	1
42	51	1
154	175	1
122	151	1
39	39	1
