67	67	20
43	43	4
47	47	8
75	75	4
90	145	8
134	134	19
113	113	9
73	73	4
141	141	12
52	52	4
81	81	7
54	68	3
112	112	10
28	28	6
127	130	2
126	127	10
48	48	6
119	119	7
145	145	5
132	133	12
79	80	12
39	40	3
18	19	6
130	141	3
24	24	2
35	35	4
131	131	13
61	61	7
90	90	5
107	122	3
30	32	4
108	108	7
60	60	6
125	125	19
18	80	1
129	129	12
54	54	7
26	70	3
74	74	6
117	117	13
128	130	4
42	42	7
78	100	5
53	53	12
79	79	14
33	33	13
19	19	6
144	144	8
130	130	18
4	4	4
99	99	7
128	129	5
39	62	5
21	99	1
140	141	8
102	102	10
50	51	3
113	114	7
58	58	2
123	136	2
137	138	4
40	40	8
41	41	12
134	137	1
88	90	2
97	97	6
87	87	10
117	118	7
80	81	7
126	126	13
101	101	8
66	67	7
38	38	11
125	127	5
143	143	7
37	38	5
73	74	2
117	133	2
62	62	5
138	139	6
123	131	3
71	72	3
118	133	3
2	94	1
37	37	11
96	132	3
133	134	5
95	95	6
81	133	3
15	15	3
124	124	5
94	94	3
20	20	5
133	133	13
21	21	6
49	50	6
42	43	2
18	18	13
55	55	10
128	142	4
140	140	8
119	120	7
128	128	10
30	30	11
55	56	3
118	119	7
119	141	4
72	72	11
89	89	5
100	100	12
127	127	9
125	143	8
76	85	2
10	15	4
59	60	3
84	84	5
102	131	1
76	76	2
28	69	2
136	139	5
29	29	9
3	4	3
5	6	2
69	71	1
74	87	1
17	17	13
111	111	4
1	1	4
94	96	3
91	94	2
88	88	14
55	64	1
104	104	5
81	96	5
41	42	5
96	104	2
8	8	6
118	118	8
68	68	4
108	109	7
3	3	11
98	98	2
61	62	12
17	29	4
91	92	2
116	117	3
17	82	2
39	39	12
49	49	8
110	110	7
49	51	1
64	66	1
141	144	4
69	70	5
108	110	2
56	56	10
114	115	2
67	68	15
4	128	2
71	71	7
51	51	4
123	126	3
120	120	12
91	91	3
39	61	3
26	26	2
96	96	7
124	127	7
60	62	2
107	108	2
129	130	2
97	104	1
115	121	1
136	136	5
40	41	5
14	14	3
1	143	4
120	121	4
134	135	7
107	107	3
129	140	1
33	34	1
130	131	6
142	143	4
142	142	5
82	93	4
19	20	5
59	61	4
19	72	2
20	77	1
4	92	2
146	146	4
58	94	2
77	77	6
64	64	3
27	27	3
23	24	2
135	135	5
97	98	3
77	88	1
133	138	2
0	1	1
116	116	2
83	83	3
59	59	8
15	16	6
20	21	1
31	31	2
71	94	2
53	65	3
65	66	1
105	132	1
123	123	10
16	126	1
113	115	1
103	103	14
77	80	1
49	123	2
142	144	4
114	114	4
99	110	1
12	12	1
92	96	1
109	109	1
39	41	1
98	104	1
122	122	5
85	85	1
95	96	5
82	82	2
104	105	3
5	127	2
121	121	5
32	33	1
93	93	2
106	106	3
74	75	2
29	32	2
25	26	1
119	121	2
32	32	11
130	136	1
10	10	4
80	100	2
98	99	2
23	92	2
104	108	1
17	18	3
16	17	1
58	59	5
89	94	1
131	134	2
120	133	1
58	62	3
77	79	3
99	100	3
24	26	2
124	135	3
84	85	1
27	28	2
126	128	2
21	22	2
144	145	6
65	120	4
56	57	1
123	138	1
88	89	1
2	95	1
2	92	3
131	133	3
56	64	2
36	36	2
70	70	1
105	117	3
113	134	4
72	75	1
22	23	3
16	16	5
2	2	5
129	141	2
50	123	1
23	23	7
62	71	1
29	30	1
78	78	2
33	37	1
135	136	5
28	29	1
115	116	1
12	13	2
25	70	1
125	126	3
62	63	2
145	146	5
92	92	4
48	54	2
19	28	2
26	67	2
103	104	2
30	42	1
64	65	1
132	132	7
99	127	2
123	134	1
141	142	1
30	56	1
11	11	2
105	105	2
100	102	2
13	13	2
29	91	1
39	144	2
102	103	1
57	70	1
122	136	1
111	113	3
110	119	4
139	139	4
51	55	2
54	67	2
61	70	1
132	135	1
112	115	1
122	127	4
68	69	2
32	88	4
23	73	2
86	87	1
138	138	2
1	142	1
76	80	2
136	137	1
13	14	3
5	5	1
139	140	2
110	111	1
69	69	1
52	117	2
104	117	1
8	12	2
1	141	1
22	22	3
42	48	2
137	139	1
57	57	2
24	58	1
95	98	3
20	71	2
57	60	1
60	61	1
49	87	2
113	122	1
74	81	1
65	65	1
82	91	1
80	124	1
9	12	1
80	80	1
143	144	1
112	114	1
103	105	1
128	131	1
31	32	2
9	10	3
30	33	1
76	98	1
113	124	2
131	137	1
36	39	1
26	66	2
80	94	1
53	54	1
6	6	1
31	34	1
93	96	1
24	74	2
106	123	2
86	86	2
82	92	2
34	35	1
56	65	1
140	145	1
34	34	1
124	133	1
27	29	1
92	93	1
9	9	3
63	68	1
124	134	1
132	138	1
66	66	1
54	55	1
118	140	1
123	130	1
0	0	1
81	110	1
26	27	1
124	125	1
66	96	1
31	33	1
136	138	1
17	19	1
