106	106	8
25	25	10
73	73	39
42	43	4
90	91	1
90	90	13
36	36	10
48	48	12
48	49	8
94	94	24
99	100	11
70	70	23
89	90	2
74	74	20
34	34	20
91	91	21
95	95	10
78	79	14
22	22	16
105	105	19
75	93	3
36	37	3
85	87	5
61	61	8
105	106	7
47	49	4
90	106	3
50	50	23
37	37	10
31	31	9
78	78	17
92	104	7
104	104	17
28	28	2
40	40	15
67	67	17
92	93	8
103	103	30
76	76	23
39	39	21
92	94	2
21	21	11
91	95	6
46	46	16
51	51	7
66	71	1
77	96	4
88	89	2
64	65	2
35	35	12
80	80	12
87	87	9
101	101	17
65	65	9
34	35	2
77	77	16
79	80	7
53	53	20
55	55	23
102	102	5
42	42	10
62	62	23
66	87	3
24	24	10
23	23	21
76	77	3
21	22	7
63	64	8
73	74	2
72	72	12
64	64	22
75	75	28
59	59	28
56	56	11
56	57	6
100	101	4
44	44	6
29	47	4
86	86	4
95	99	2
97	97	8
100	100	31
28	29	12
63	63	31
54	54	15
101	104	3
71	104	2
32	47	2
31	32	4
41	42	2
71	72	4
50	51	4
27	27	8
44	45	3
61	62	14
80	84	1
32	32	19
58	58	7
71	73	1
69	69	9
30	31	6
60	60	11
59	85	1
84	84	11
24	31	3
81	81	4
36	43	1
85	86	3
45	49	3
66	67	8
101	102	4
68	69	8
30	45	1
33	49	1
83	83	5
106	107	2
48	51	3
82	82	5
93	93	21
53	54	7
93	103	5
41	41	4
93	94	4
20	20	5
102	103	8
89	98	3
100	105	5
27	42	1
65	67	3
83	84	6
98	98	14
57	58	1
59	60	3
104	105	4
52	52	15
45	45	2
42	48	3
77	83	4
40	44	1
96	97	4
92	92	7
79	106	1
68	68	22
85	85	10
49	49	4
93	104	4
75	76	4
80	81	2
77	78	6
98	99	5
94	103	2
96	99	2
78	82	3
21	24	2
55	56	3
80	106	2
58	79	2
22	40	1
33	33	4
32	45	1
51	52	2
95	96	8
50	53	3
62	63	5
71	71	5
57	57	6
22	23	10
76	97	3
38	38	2
26	27	1
39	40	2
23	24	4
66	66	16
76	89	1
43	43	3
70	74	2
40	41	4
55	74	4
75	100	1
37	38	2
62	99	3
107	107	2
26	29	2
37	45	4
30	30	4
97	98	5
46	49	2
82	83	6
86	87	13
90	100	2
70	71	5
60	61	5
56	61	2
37	39	1
27	28	3
47	47	3
69	70	1
65	66	5
99	99	7
35	36	2
26	26	3
67	69	1
79	82	2
79	79	4
96	96	3
57	59	3
34	37	5
52	53	2
25	27	4
89	89	6
25	30	1
102	104	3
49	50	1
90	107	1
91	92	7
34	36	3
25	29	2
94	96	3
31	33	1
88	88	2
96	100	1
33	34	1
25	26	2
103	104	2
91	101	2
24	29	1
80	93	1
78	81	1
27	29	2
65	90	1
42	44	2
46	47	1
96	98	2
29	30	3
82	87	1
74	75	5
76	91	2
58	60	1
29	29	2
72	73	2
77	97	1
68	73	1
96	102	1
88	90	1
94	95	1
36	44	1
81	83	1
35	51	2
103	105	1
70	104	1
