38	39	10
129	129	10
171	171	39
100	100	33
152	152	23
121	121	24
99	147	8
139	141	1
194	197	3
145	145	15
166	166	4
146	146	23
45	45	13
16	16	12
121	151	2
151	151	21
179	182	3
101	101	14
123	123	27
195	195	23
189	189	34
188	190	13
104	133	2
122	122	16
102	109	4
182	184	5
6	6	12
114	114	14
144	145	1
167	184	2
187	188	9
184	184	41
113	113	23
124	124	22
116	168	2
188	188	13
168	169	9
164	168	3
22	24	7
168	168	13
172	179	2
169	169	25
181	182	7
136	136	23
197	197	20
8	27	1
155	155	18
11	11	7
135	140	1
28	31	3
185	185	27
99	99	24
40	45	1
174	174	5
101	122	1
27	30	1
154	154	15
16	55	4
98	98	28
111	111	7
163	164	7
114	115	19
187	193	5
102	102	11
165	165	6
160	169	3
106	106	22
103	103	5
138	138	24
170	170	12
170	171	16
0	0	4
194	194	17
14	14	7
135	155	8
154	168	4
109	109	6
126	127	15
18	20	7
6	8	4
170	189	2
10	14	10
161	161	31
141	141	29
189	190	10
182	183	18
181	181	12
190	191	4
139	155	4
137	138	7
156	156	15
176	190	1
190	190	23
196	196	20
39	45	6
96	97	10
111	151	2
160	160	25
117	117	11
154	155	4
122	125	3
98	99	14
127	176	2
196	197	9
123	124	4
148	148	21
158	158	22
51	51	18
8	8	8
27	27	8
192	192	10
142	142	12
28	30	11
18	18	9
121	122	8
134	135	10
174	177	4
137	137	12
149	149	22
138	159	3
183	185	4
110	110	12
177	178	4
8	127	1
105	105	10
150	150	28
176	176	7
13	13	11
12	12	12
151	157	7
183	184	6
173	173	8
134	136	9
160	172	14
162	164	11
193	193	24
186	187	12
97	145	1
182	186	8
2	2	7
23	23	16
176	197	1
103	133	6
131	131	5
154	158	1
159	175	3
157	157	21
50	51	3
155	156	9
179	179	27
122	123	10
107	108	4
93	93	3
31	31	4
178	184	1
103	105	8
102	134	4
125	125	8
151	152	15
32	33	2
9	49	4
136	137	2
164	166	4
95	96	18
182	182	22
30	30	6
93	100	3
183	183	15
9	14	4
187	192	1
99	100	8
170	191	1
36	36	16
120	150	2
135	153	1
47	51	1
118	119	8
169	190	1
159	179	2
37	37	8
54	54	7
130	131	10
19	20	1
17	17	4
149	150	9
175	183	2
186	186	33
93	96	2
10	10	8
140	141	2
48	48	20
100	101	7
26	26	8
116	117	9
146	147	4
160	161	1
195	196	4
94	94	13
5	5	8
163	165	2
130	130	8
110	111	3
120	120	9
161	162	3
53	53	14
55	59	4
9	13	14
107	109	1
183	196	3
145	146	9
127	127	13
128	128	11
134	134	9
147	147	8
96	124	1
7	26	2
19	19	8
184	188	4
112	112	13
160	168	5
132	132	6
52	52	1
117	174	1
15	15	9
22	22	5
111	112	7
162	163	4
130	148	3
128	129	4
179	186	7
40	40	13
104	104	3
93	94	4
7	7	2
187	189	2
104	105	5
194	195	11
191	191	12
42	44	5
145	148	7
181	191	4
122	124	2
126	132	1
126	128	1
183	186	2
140	140	8
126	126	15
28	28	2
155	157	6
187	187	14
108	109	2
135	185	3
133	133	25
9	10	9
15	16	3
153	155	4
0	3	2
109	111	3
176	178	1
152	154	7
143	145	1
164	164	15
183	194	2
148	149	11
186	188	2
135	135	7
177	177	10
102	105	4
127	150	4
4	4	5
176	179	2
115	120	4
115	115	10
158	161	1
28	49	4
50	52	3
139	139	6
14	15	4
152	153	5
103	134	4
134	140	1
188	189	8
159	163	3
11	12	8
39	39	8
56	197	1
169	170	2
172	172	25
58	58	4
124	125	16
97	97	17
178	179	4
107	107	9
174	183	5
106	107	7
172	173	4
55	55	7
27	29	3
94	96	1
117	119	3
54	56	3
153	153	6
127	128	6
106	108	2
109	121	4
138	172	6
20	21	2
131	150	3
108	108	10
163	163	4
153	154	7
96	98	2
132	150	5
10	11	2
101	135	2
175	176	3
101	102	5
3	5	2
184	185	5
167	167	12
174	178	4
116	118	3
142	144	5
185	186	8
107	123	6
112	152	3
142	143	7
143	143	3
115	121	4
49	49	12
159	159	15
42	42	11
44	44	8
23	33	4
166	167	4
163	167	1
170	172	6
116	119	1
47	47	7
191	192	7
193	194	5
97	142	5
119	119	5
4	48	2
168	182	1
184	186	7
4	8	2
170	180	2
189	191	2
127	149	3
114	116	3
13	14	2
133	134	3
54	58	2
101	140	1
188	197	4
95	95	13
175	175	2
135	154	2
166	174	1
43	43	8
20	20	4
116	154	2
159	176	1
141	170	1
101	123	2
143	144	6
100	141	3
95	98	5
169	180	2
150	151	5
128	197	2
22	23	1
34	34	1
24	26	1
173	178	3
36	37	3
165	166	4
24	25	6
0	1	3
127	129	8
108	121	5
38	47	1
125	129	2
12	13	3
128	132	2
175	177	4
175	178	4
178	178	5
180	182	8
9	9	5
100	102	2
1	3	5
32	32	9
136	138	2
174	175	1
21	33	2
37	38	2
44	45	2
29	30	2
13	49	1
112	119	4
167	168	3
115	156	2
3	4	4
38	38	6
134	153	1
182	185	3
8	33	4
45	46	1
113	115	2
120	152	3
50	50	3
116	116	3
46	47	3
5	27	2
190	192	2
21	21	4
1	2	7
147	148	2
96	96	2
180	180	4
143	179	4
144	144	8
127	186	2
6	26	1
187	191	2
16	17	4
131	132	5
37	47	1
141	142	5
25	25	5
173	174	2
57	172	2
57	197	1
43	46	3
57	57	5
29	29	6
119	125	1
94	95	4
47	113	5
121	132	1
59	59	2
51	53	3
49	52	1
177	190	2
57	58	2
150	162	1
55	56	1
158	159	1
139	140	6
33	33	4
15	51	3
47	48	2
115	157	1
16	33	4
120	121	3
159	177	3
104	109	1
105	133	1
129	132	4
115	116	2
105	107	4
172	176	1
154	157	1
174	179	3
112	113	6
126	176	1
118	118	2
176	184	1
125	130	2
162	162	5
52	53	1
187	194	3
134	139	5
181	183	5
127	185	2
39	41	2
46	46	1
156	157	1
130	156	1
193	195	3
169	179	2
149	151	3
184	192	2
173	175	1
59	60	1
16	38	2
38	44	1
34	39	1
37	44	1
162	168	3
11	30	2
167	185	2
155	181	1
181	186	1
173	182	4
103	106	2
41	42	1
145	149	3
121	152	1
159	160	6
185	190	1
11	13	2
128	130	2
182	190	1
177	179	1
163	166	1
165	167	3
176	187	1
113	119	1
160	175	1
2	3	3
56	56	4
177	187	2
190	193	1
179	181	1
159	161	1
186	193	1
170	190	1
135	139	2
100	148	1
38	51	1
142	186	2
177	182	2
163	169	3
191	193	4
119	185	2
179	187	1
3	3	2
180	181	1
15	52	2
5	6	2
95	97	1
6	7	1
5	21	1
154	159	1
39	40	1
21	26	1
24	24	1
164	165	1
160	171	1
157	158	1
125	126	2
41	41	3
100	109	1
148	150	1
174	176	1
161	164	1
138	142	2
33	41	1
184	190	1
34	36	1
179	180	2
114	131	1
185	194	1
183	188	1
179	184	2
116	175	1
177	183	1
171	172	1
97	98	1
109	110	2
50	53	1
166	188	1
151	185	1
100	140	1
112	114	1
176	177	2
166	179	1
124	129	2
111	152	1
4	5	1
99	111	1
193	197	1
135	137	1
35	35	1
23	24	1
170	186	1
30	32	1
31	32	1
160	176	1
48	50	1
