108	109	4
151	183	2
33	33	22
139	139	18
135	152	2
2	2	23
93	98	2
172	172	7
68	68	8
152	153	7
45	45	10
179	179	11
68	107	2
178	178	21
35	35	11
28	41	1
197	197	5
12	12	12
120	121	2
108	108	12
109	110	3
51	51	9
23	23	12
174	174	14
160	160	4
1	1	22
189	192	2
65	107	8
20	20	13
157	157	13
66	66	5
114	119	3
41	41	5
146	146	16
113	153	4
185	185	10
161	163	5
130	130	16
143	143	14
163	163	19
16	16	17
117	117	6
170	171	9
141	142	5
44	57	2
192	193	10
117	118	2
25	26	4
10	11	13
48	48	14
89	89	9
36	161	1
8	8	10
14	14	7
145	146	2
177	177	16
181	182	8
113	113	8
13	13	14
116	116	12
134	137	5
160	181	1
102	106	8
96	96	7
128	128	12
171	171	25
170	170	10
137	146	3
127	127	5
28	28	12
136	136	11
191	191	17
165	165	16
101	101	22
82	82	10
20	28	1
177	179	3
196	196	15
45	46	3
175	176	7
177	190	6
86	87	7
5	6	1
156	156	4
24	24	12
9	15	2
172	192	2
153	153	5
118	118	10
5	5	12
17	17	7
125	125	5
181	181	19
9	10	5
34	131	1
137	151	4
161	161	21
86	86	9
46	46	21
131	131	3
183	183	6
104	104	10
142	142	14
134	136	1
120	120	9
19	40	4
142	145	5
123	170	1
37	46	2
69	70	2
136	146	2
151	151	15
10	10	17
11	11	11
118	137	3
21	21	12
67	67	10
36	36	9
185	186	3
155	178	3
117	137	5
31	39	1
131	132	4
174	176	2
52	52	15
7	7	4
3	3	9
188	189	4
93	93	8
30	30	9
184	185	7
193	193	10
32	37	2
172	189	5
154	154	9
135	136	3
63	64	5
186	186	23
107	108	2
155	155	25
73	75	3
3	4	2
28	31	5
41	66	2
15	15	11
134	159	1
111	111	13
108	111	1
129	129	4
43	44	9
54	55	4
155	156	7
119	119	16
115	130	5
74	74	5
124	125	11
169	174	2
52	53	2
153	175	9
34	34	5
152	157	3
34	35	26
100	101	2
153	176	4
180	180	20
112	154	1
173	173	9
59	60	4
141	144	1
149	149	9
102	102	16
40	41	7
126	126	5
78	78	8
142	143	8
11	13	3
23	128	2
145	190	1
148	148	7
11	12	5
12	30	1
41	42	4
11	188	1
97	97	1
138	138	14
132	133	8
162	162	16
130	133	1
99	99	9
7	8	5
15	46	3
173	174	8
166	166	6
19	19	9
171	172	8
26	26	11
165	167	6
119	145	1
128	129	4
130	144	1
137	139	1
167	167	19
55	56	2
56	56	12
27	27	21
18	29	6
164	164	11
171	192	2
116	161	2
44	51	4
82	84	2
73	74	6
44	50	4
104	110	2
115	115	6
139	143	2
62	63	2
165	166	11
115	157	3
67	68	4
158	158	18
88	165	1
121	121	6
72	84	4
152	152	4
24	30	2
33	37	2
70	70	10
79	79	6
43	43	5
159	159	23
14	29	3
189	189	12
114	114	18
190	190	13
184	184	10
188	188	18
67	72	1
32	32	7
135	135	13
176	177	6
143	178	2
73	73	8
6	7	1
168	173	4
30	40	5
187	188	7
163	189	2
69	69	9
132	132	7
119	120	4
12	14	3
30	52	2
49	49	8
87	87	9
11	14	2
175	175	9
16	17	5
175	192	3
83	83	4
4	4	6
150	150	20
101	107	1
64	64	10
47	47	23
95	95	5
162	164	5
54	54	11
39	39	10
122	122	12
137	137	9
146	186	1
103	103	8
156	178	1
119	142	5
62	62	1
88	88	8
44	44	10
140	140	13
139	140	1
144	144	8
80	83	1
0	0	10
58	58	11
53	53	9
37	38	4
72	72	14
116	117	7
36	38	1
109	111	3
117	132	2
195	195	10
64	66	7
142	180	5
18	18	4
127	171	1
29	29	2
65	65	3
59	59	11
99	100	3
98	99	3
106	106	13
42	42	14
124	124	5
177	178	4
172	173	4
187	187	15
194	194	15
182	182	11
70	71	8
28	36	1
158	165	3
154	196	5
110	110	9
171	176	1
128	148	1
18	32	1
93	94	1
160	161	2
57	57	2
146	147	11
6	6	4
7	18	6
163	164	9
28	53	1
77	77	4
9	14	1
119	138	2
78	79	1
136	159	1
82	93	1
23	24	1
32	33	2
25	27	1
40	40	13
169	169	9
98	98	1
25	28	3
30	31	5
53	60	1
76	76	4
25	25	12
156	175	1
105	106	6
80	86	1
53	54	3
53	57	3
141	171	4
135	137	1
107	107	10
17	29	3
124	185	1
140	143	2
145	145	4
133	133	9
147	166	3
153	154	5
22	26	1
100	100	12
141	141	4
147	147	8
119	177	3
75	75	3
7	9	1
179	180	7
20	41	2
88	89	3
77	78	4
58	59	4
135	150	1
148	168	1
115	117	5
67	70	3
35	36	3
105	105	11
22	39	3
115	131	2
8	25	1
182	191	1
27	43	4
157	158	8
80	84	4
38	59	4
80	80	7
134	134	7
51	52	4
50	51	6
37	42	3
81	83	5
4	11	4
22	22	6
120	146	1
123	124	1
150	151	3
123	150	2
67	71	1
38	38	21
9	9	12
159	161	3
85	86	2
38	39	5
77	87	1
76	78	2
159	180	3
28	30	5
152	156	4
75	76	2
134	135	3
133	134	2
130	134	1
71	71	5
33	34	3
84	84	4
131	157	2
44	45	2
122	123	3
61	61	6
123	123	9
56	57	1
144	145	6
0	14	2
173	178	2
194	195	3
175	178	2
87	101	1
55	55	8
37	37	5
156	159	10
174	175	7
140	167	4
163	188	1
95	96	4
90	90	1
127	128	2
168	168	12
101	102	10
59	62	5
33	35	1
74	75	1
0	1	6
193	194	4
149	187	2
37	161	1
129	130	2
135	159	2
151	172	2
57	112	1
86	95	2
67	69	5
143	144	3
176	178	1
160	193	1
120	145	3
150	154	2
12	19	1
126	128	1
5	58	1
60	62	1
34	36	4
180	182	1
114	115	2
161	162	4
38	44	1
116	176	2
102	103	2
85	85	5
76	89	1
157	165	2
183	186	5
15	24	3
63	63	2
101	106	2
25	46	2
143	145	2
21	22	2
43	127	2
36	60	2
60	61	2
62	64	2
173	175	2
44	111	1
57	58	2
115	149	4
87	99	2
9	48	1
29	30	1
162	165	1
116	118	1
30	36	2
192	192	7
42	44	1
16	54	4
154	155	5
169	175	5
72	74	3
81	95	2
176	176	6
112	112	4
23	25	1
31	31	3
167	173	1
26	27	2
114	141	3
119	139	1
34	37	1
109	109	2
99	102	1
35	164	5
1	2	2
41	50	1
145	192	2
93	95	2
130	132	2
63	70	1
149	150	7
155	159	1
83	84	1
105	107	2
76	77	2
45	127	1
130	131	2
114	120	1
48	52	1
126	127	2
6	24	1
148	167	1
88	90	3
6	42	2
22	23	1
190	192	2
161	178	2
45	55	1
133	167	2
16	18	2
12	13	3
149	169	2
19	21	1
166	167	5
46	47	4
0	2	3
13	49	1
134	139	1
118	166	1
183	184	1
187	189	9
175	179	2
72	73	1
60	60	2
37	58	3
50	50	1
161	164	5
191	192	2
170	175	2
13	18	1
174	192	2
158	190	2
180	181	3
149	196	2
32	38	2
164	165	3
0	3	1
144	177	2
47	48	1
49	196	1
81	94	1
111	112	1
85	95	1
44	56	1
76	87	2
14	15	1
135	138	1
117	131	1
30	53	2
156	157	1
94	95	1
28	29	2
65	69	1
156	172	2
182	183	2
186	189	1
9	23	1
31	33	3
127	153	1
116	147	1
121	151	1
48	49	2
189	191	1
169	193	1
168	169	2
167	168	1
138	140	2
17	58	1
115	133	2
44	123	1
64	108	1
73	83	1
72	76	2
152	176	1
8	26	1
36	159	2
159	160	3
94	94	3
15	47	1
20	22	4
37	54	2
138	152	1
30	44	1
120	149	1
80	81	1
158	159	1
159	179	1
87	88	1
15	16	2
147	148	1
195	196	1
21	40	2
19	20	1
159	178	1
11	29	2
54	56	1
13	31	2
116	160	1
186	187	1
56	112	1
121	122	3
163	168	1
6	8	2
148	174	1
113	125	1
81	82	2
38	50	2
189	193	1
155	175	1
163	194	1
139	166	1
103	106	1
67	107	1
114	125	1
43	45	1
163	165	1
95	158	1
35	41	1
113	114	1
116	134	1
125	127	1
143	190	1
114	142	1
183	197	1
113	115	1
97	98	2
38	95	1
61	63	1
42	112	1
115	132	1
49	52	1
150	186	1
87	94	1
87	89	1
189	190	1
96	97	1
147	149	1
172	176	1
150	155	1
25	29	1
177	189	1
160	163	1
