21	22	10
3	3	25
5	15	2
134	137	2
31	32	1
101	140	3
16	31	2
4	4	5
52	53	3
77	78	1
65	65	8
170	170	16
159	159	7
94	94	10
154	155	2
89	90	3
87	87	7
22	22	12
24	24	14
155	156	3
99	164	3
12	12	14
150	153	3
132	133	9
114	134	3
41	42	7
129	130	6
93	93	4
42	42	9
64	110	2
80	80	8
173	173	8
35	35	6
31	31	12
156	166	1
34	34	9
11	42	1
153	153	8
97	97	6
17	18	8
61	63	5
127	127	9
12	67	3
26	40	1
9	9	12
161	162	2
85	85	2
118	123	1
38	38	15
152	153	6
63	63	9
36	36	20
32	32	5
120	120	4
6	7	2
76	124	7
130	130	4
152	152	2
13	42	2
59	60	4
81	83	1
174	174	7
68	73	2
123	124	7
77	124	1
89	89	3
157	164	1
147	147	1
114	120	3
18	20	4
137	169	3
167	167	4
96	96	8
1	2	3
140	140	5
121	121	8
161	161	9
11	12	5
43	146	1
113	129	2
151	151	8
6	9	3
85	86	1
60	60	6
106	106	4
82	82	10
160	162	2
133	133	11
5	5	7
75	75	4
59	59	4
135	135	9
150	150	3
135	155	3
104	104	2
22	23	7
109	110	2
150	179	3
6	10	5
41	41	17
123	125	1
169	170	6
8	35	8
99	99	4
119	121	1
103	106	5
151	152	3
158	159	1
66	66	4
115	115	4
4	15	2
127	152	2
160	160	7
30	31	2
31	34	1
30	30	5
33	33	17
81	82	6
162	169	1
56	56	6
68	118	3
128	136	2
28	28	11
117	117	4
126	126	4
2	3	5
162	165	1
168	169	7
90	90	3
18	18	10
143	143	9
8	16	3
111	127	5
7	26	3
58	58	8
71	81	3
95	111	4
136	136	8
10	10	16
51	51	5
175	176	1
77	77	8
67	67	6
138	138	4
116	118	5
91	91	3
1	1	6
157	157	7
86	86	5
168	170	2
105	105	8
2	36	3
145	145	7
73	73	2
139	139	3
21	21	3
43	43	7
152	159	1
21	23	3
20	21	2
6	6	7
126	169	2
87	88	3
159	172	3
96	170	3
25	28	3
130	135	4
124	125	9
23	23	9
165	166	6
171	171	14
98	165	5
101	146	2
176	177	3
40	40	13
62	102	3
115	116	1
37	37	6
74	74	7
54	54	6
157	177	3
4	7	2
144	145	3
86	88	3
23	33	3
106	111	1
4	22	3
11	11	7
122	122	6
13	13	3
57	58	4
84	86	1
116	116	4
26	28	3
178	178	4
55	56	1
99	144	1
148	148	4
113	113	4
68	68	8
7	7	7
26	26	4
17	17	5
24	26	10
27	30	5
107	107	3
144	144	2
112	112	6
180	180	1
61	61	4
169	169	14
117	118	3
4	5	2
19	20	2
45	45	8
156	157	2
15	66	1
27	27	11
24	25	2
7	16	2
111	111	11
82	109	5
134	134	2
81	81	12
137	137	7
153	159	4
35	44	1
36	37	1
166	166	2
12	13	1
3	4	4
74	75	1
152	164	1
76	170	1
102	151	2
4	17	1
112	113	1
119	119	9
68	74	2
30	50	1
101	108	3
107	143	2
64	64	3
102	102	6
176	176	8
76	76	3
72	72	11
115	128	2
4	31	1
154	178	3
4	19	5
125	174	4
117	135	2
88	88	2
28	37	3
44	44	4
8	8	8
19	19	5
165	165	5
134	138	10
140	141	4
26	27	3
76	77	3
45	50	2
5	7	3
171	172	1
52	52	2
16	16	6
6	19	2
11	66	3
12	37	1
34	35	2
29	29	4
140	146	4
25	25	11
128	135	2
162	162	3
8	15	3
119	120	2
57	57	2
5	6	5
14	15	1
118	119	3
80	108	2
17	22	4
137	140	1
135	156	4
58	141	2
74	126	1
41	66	2
15	16	2
9	11	2
107	108	3
114	114	2
125	125	2
129	129	1
37	38	2
101	110	2
4	46	3
15	35	3
1	3	4
120	121	2
13	114	1
84	84	1
20	20	6
152	171	2
131	137	1
118	118	4
67	68	2
8	11	4
33	34	3
133	134	8
71	71	1
40	41	2
6	27	4
168	168	2
28	44	2
66	67	1
172	176	1
124	124	1
0	0	7
95	96	2
74	78	3
156	156	2
79	79	3
53	54	2
98	144	2
158	178	2
146	146	2
112	114	4
99	111	1
163	171	3
58	59	3
62	63	4
44	144	2
5	19	3
15	31	3
136	152	1
152	162	1
83	83	2
128	166	3
72	150	1
131	135	2
32	33	5
2	2	5
96	108	1
7	15	2
123	123	1
39	39	3
63	111	1
121	128	2
11	15	2
16	33	1
2	22	2
12	14	3
154	154	2
121	124	1
42	43	1
27	31	1
33	35	1
81	110	1
113	116	2
110	110	1
29	30	2
108	108	2
83	87	1
126	134	1
14	65	1
18	81	1
12	33	2
94	95	1
10	15	2
122	123	2
6	8	2
11	19	2
52	60	1
163	175	1
173	174	2
105	143	1
172	172	5
111	112	1
37	43	1
14	112	1
43	44	1
128	128	1
15	15	2
2	31	1
142	142	1
55	55	1
109	109	1
6	141	3
10	84	1
175	180	2
21	29	1
1	10	2
97	143	2
103	103	3
35	66	1
149	150	1
3	19	4
37	41	1
78	78	1
62	101	1
163	163	2
158	162	1
40	83	1
62	62	1
75	126	1
154	156	1
143	145	1
61	64	1
75	120	1
72	106	2
129	144	1
73	148	1
162	170	1
137	154	1
63	106	1
23	38	1
111	138	1
97	98	1
127	135	1
0	27	1
92	92	1
95	102	2
172	173	2
87	91	1
37	39	1
87	116	1
61	62	1
23	24	3
9	13	1
176	179	1
135	136	1
145	172	1
150	162	2
114	115	1
16	37	1
39	107	1
110	116	2
14	14	2
76	138	1
129	157	1
23	44	1
172	174	1
8	9	2
95	95	1
31	51	1
145	146	1
98	104	2
141	141	1
128	167	1
161	177	1
