20	24	1
99	99	13
83	91	1
72	72	6
22	25	4
67	67	32
93	93	19
37	37	8
80	80	16
24	25	2
45	45	11
34	36	6
83	83	5
22	22	4
38	60	4
48	54	4
71	72	3
57	57	7
29	29	2
49	49	16
26	26	10
54	55	6
20	20	6
70	70	21
20	97	2
95	98	3
92	92	10
42	42	23
64	64	14
38	40	4
76	76	5
47	47	3
61	62	9
96	96	17
69	69	12
30	65	1
45	94	1
40	64	1
25	53	2
71	71	11
41	43	1
65	65	20
99	102	1
89	89	8
94	94	14
36	36	16
100	101	4
95	96	8
61	61	17
48	69	2
34	34	6
62	63	12
80	81	8
92	93	3
81	82	8
44	44	12
88	88	12
35	35	12
53	53	17
25	25	1
27	97	1
62	89	7
48	48	8
47	61	4
47	48	5
87	88	13
69	72	3
41	41	17
97	97	3
52	52	6
59	59	10
34	35	1
65	81	1
43	44	6
68	68	17
54	92	4
41	42	4
85	85	17
66	66	14
55	92	1
69	70	11
56	60	3
60	61	1
97	98	7
50	50	11
79	93	5
58	59	5
85	87	2
96	97	3
86	89	3
79	79	10
35	77	1
66	68	2
85	86	2
74	74	10
87	89	2
62	62	14
56	57	7
66	74	2
50	51	6
53	54	5
51	52	7
59	65	1
95	95	12
96	98	2
49	50	5
86	98	4
94	98	7
28	77	1
31	31	4
87	95	2
46	69	3
55	61	2
94	95	4
67	68	7
28	28	1
82	86	1
73	74	2
60	100	1
46	48	2
73	73	8
75	75	16
81	81	12
45	95	2
50	78	2
84	84	10
35	59	2
60	60	12
63	64	3
54	60	2
86	88	6
52	56	1
51	51	13
44	45	3
52	67	5
52	66	2
54	54	13
98	98	17
33	33	7
71	73	2
46	46	14
70	71	1
37	38	9
22	34	2
59	60	3
29	37	4
51	53	3
77	77	6
67	77	2
38	38	6
75	77	1
82	82	5
78	78	9
92	97	2
36	65	2
62	67	1
52	53	2
24	28	1
94	99	1
79	80	5
31	49	2
64	77	1
80	93	4
47	89	1
58	58	12
42	43	3
91	92	6
72	73	1
77	78	3
87	87	6
52	54	2
35	36	2
39	39	9
68	69	2
101	101	8
102	102	2
55	55	7
60	62	2
46	47	2
77	85	1
64	65	4
63	77	2
45	101	1
97	101	1
27	27	8
58	84	3
58	60	4
100	100	5
38	77	5
49	82	1
52	81	1
99	101	3
66	96	2
56	56	7
95	97	2
43	45	1
64	78	6
51	57	1
55	101	3
61	94	2
94	97	3
40	40	5
36	40	1
39	40	4
33	34	2
67	91	1
91	91	6
95	102	1
28	29	1
68	74	1
66	99	1
46	51	2
61	82	1
92	95	3
45	49	5
86	87	2
83	86	2
38	54	1
35	40	1
90	90	8
54	58	1
67	100	2
63	63	6
86	91	2
43	43	8
75	90	1
86	86	11
57	60	1
95	99	4
80	94	3
33	39	1
89	95	1
81	94	2
63	65	1
76	77	2
68	70	1
22	23	1
29	33	2
73	76	1
85	99	1
67	101	1
86	92	1
46	54	3
89	90	3
83	88	1
62	79	1
36	37	1
72	81	1
60	78	2
32	32	1
48	50	2
55	57	2
30	31	1
99	100	1
50	68	1
57	58	6
48	49	3
48	88	1
79	86	3
59	83	1
71	95	1
39	63	1
64	66	2
83	84	4
93	98	1
24	47	2
23	24	1
84	102	1
65	66	2
60	89	1
36	39	1
57	59	2
86	90	2
63	78	4
88	89	1
24	24	2
96	101	1
72	76	1
53	56	1
100	102	2
33	47	3
61	87	1
30	30	2
64	76	1
96	100	1
43	47	1
93	94	1
52	55	2
85	101	1
85	91	1
47	53	1
81	83	1
77	79	1
55	84	1
79	82	2
63	85	1
48	52	1
53	55	1
47	50	1
46	102	1
32	34	1
45	55	1
82	84	1
69	73	2
42	59	1
55	56	1
53	88	2
43	90	1
63	95	1
25	29	1
68	89	1
66	92	1
68	72	1
54	100	1
53	100	1
27	28	1
