68	68	10
21	21	8
11	11	7
95	95	5
136	138	3
118	118	19
103	103	14
124	124	22
87	92	3
141	141	7
92	104	2
130	130	9
30	30	12
18	94	3
29	29	16
10	10	8
23	26	2
2	2	2
139	139	7
142	142	10
87	90	3
109	109	9
94	95	4
38	38	23
89	91	7
27	27	7
31	31	13
40	54	2
125	127	2
26	27	7
73	73	5
36	62	3
121	125	1
56	56	17
6	57	5
114	115	3
74	98	2
116	116	12
78	84	2
2	54	2
20	20	14
53	53	6
81	82	11
19	19	8
5	14	4
83	84	3
19	20	5
134	134	12
4	14	2
137	137	10
117	118	7
69	70	4
130	132	1
74	74	16
117	117	16
18	18	14
69	118	1
33	34	8
32	32	8
54	54	18
58	59	6
81	81	9
128	129	8
136	136	9
25	25	16
1	1	12
25	26	7
5	5	4
118	135	4
126	126	11
118	121	1
110	110	20
97	97	2
101	101	6
107	107	8
4	4	4
119	119	5
78	78	3
140	140	15
122	124	5
94	94	13
1	2	5
96	96	14
132	132	14
52	52	3
28	81	2
135	135	7
66	66	11
63	63	4
105	105	4
117	134	1
2	14	2
127	127	7
13	13	5
57	59	2
78	79	2
121	122	3
87	89	2
22	22	16
42	42	6
67	67	5
92	92	13
133	134	4
92	97	3
24	24	12
50	50	3
20	21	8
53	54	7
100	100	8
83	83	3
9	9	9
37	40	2
30	31	2
79	79	15
133	133	18
0	0	5
39	39	8
91	130	3
74	75	4
24	73	3
23	23	11
111	111	8
87	91	1
28	28	13
66	67	3
61	61	13
62	62	8
132	133	4
142	143	9
26	26	10
64	64	9
95	96	12
57	58	4
21	23	5
54	56	4
16	16	9
41	41	10
75	75	9
134	135	7
62	63	3
108	108	6
58	73	2
80	126	2
29	83	2
99	100	5
57	57	13
124	125	9
93	94	1
129	130	7
110	130	3
118	119	5
104	104	4
113	113	9
123	124	6
67	68	2
120	120	13
98	104	1
76	77	5
32	53	2
115	131	5
109	115	1
35	65	3
80	80	14
64	65	1
33	33	2
90	90	8
143	144	4
60	61	5
37	39	1
122	125	4
85	85	7
47	50	1
119	120	3
75	86	1
131	131	11
91	91	9
48	48	10
63	74	1
121	121	8
17	22	4
123	123	17
63	64	3
68	69	2
122	123	5
43	43	3
28	30	2
133	138	1
27	81	3
40	40	3
58	58	14
3	3	6
115	117	3
137	143	3
88	89	1
6	6	15
139	140	1
103	130	2
91	93	3
133	136	2
84	84	6
17	19	4
23	24	7
27	31	2
119	140	5
98	98	5
2	3	1
128	128	7
89	90	3
49	49	6
49	50	2
54	55	13
99	102	2
55	55	6
24	25	7
93	93	3
120	128	2
61	62	3
91	92	1
10	11	3
125	125	6
87	87	8
111	133	3
3	5	4
88	92	1
88	88	6
59	60	1
115	115	9
137	142	2
8	8	2
25	27	4
3	13	1
82	82	5
50	70	3
37	38	3
94	106	1
112	114	3
9	10	1
146	146	2
87	88	3
51	51	2
106	134	1
54	66	2
59	64	1
65	65	1
65	66	3
71	71	3
141	142	5
77	77	4
76	78	6
39	63	3
36	36	8
91	98	1
122	122	4
37	37	6
97	106	2
2	25	3
121	132	6
70	70	3
28	31	2
35	49	1
50	51	3
128	130	3
31	32	4
51	52	2
88	93	3
72	72	4
15	16	4
99	120	3
137	138	1
2	24	1
16	17	3
144	144	7
136	137	2
123	125	2
109	140	3
34	34	12
69	69	1
117	143	1
112	113	2
58	74	2
13	51	2
76	76	1
129	132	3
140	141	6
20	93	3
40	41	7
106	108	1
130	131	2
13	23	1
48	50	2
53	57	1
3	15	2
17	17	3
17	18	3
99	126	1
143	143	1
36	39	2
109	111	1
11	12	2
137	139	1
118	127	3
118	120	4
112	112	4
39	95	1
62	64	6
125	143	1
89	89	3
2	16	1
133	135	1
2	4	1
70	71	1
119	125	4
74	96	1
35	64	2
34	36	2
60	60	2
108	133	1
92	94	4
42	43	2
118	140	2
4	13	2
18	95	4
53	92	1
37	43	2
99	99	4
117	133	3
102	102	2
33	62	4
100	107	1
6	16	1
6	17	1
106	106	1
19	22	1
85	122	1
18	19	3
53	55	2
114	114	1
102	103	2
127	131	1
80	88	3
15	15	3
13	14	4
32	51	1
121	123	2
138	140	1
99	130	1
33	49	3
95	98	1
90	91	3
99	125	1
2	40	1
113	125	1
22	30	1
38	39	1
105	130	1
29	30	3
102	124	1
67	70	2
12	26	1
14	15	2
39	43	1
118	134	6
129	133	3
71	116	1
91	120	2
129	129	7
39	40	3
35	37	6
38	75	2
118	133	1
81	91	1
27	28	1
110	131	2
38	40	3
99	101	1
131	132	1
0	1	2
23	79	1
82	83	2
82	97	1
104	105	1
5	16	1
77	79	1
14	14	1
43	52	1
35	36	2
56	60	2
22	24	1
1	40	1
125	126	4
36	40	1
145	146	1
120	122	1
112	133	2
73	74	1
81	87	1
8	9	1
48	49	1
77	87	1
25	73	1
89	126	2
75	77	1
39	58	1
5	6	1
56	57	1
37	62	1
145	145	1
17	21	1
49	71	1
91	103	1
73	75	2
83	101	1
6	14	2
12	15	1
79	80	2
89	114	1
6	30	1
28	29	1
105	106	1
134	136	1
103	126	1
22	23	1
32	56	1
91	132	1
2	41	1
106	107	1
19	42	1
99	122	1
119	124	1
25	30	1
116	118	1
120	121	1
28	37	1
121	131	1
55	56	1
15	18	1
80	81	1
99	106	1
115	124	1
101	102	1
15	17	1
0	103	1
59	59	1
115	125	1
109	110	1
