98	99	5
101	101	3
26	26	5
50	51	2
99	99	16
85	86	11
44	44	7
90	90	7
100	100	4
40	40	6
32	32	6
72	72	7
95	96	4
63	65	2
44	45	2
22	40	2
37	37	5
53	53	3
23	23	19
112	112	9
54	54	5
66	66	6
32	33	2
77	79	2
109	109	4
84	112	5
38	52	4
56	56	5
93	100	2
82	85	3
85	85	8
111	111	6
113	113	6
70	70	7
75	75	6
69	69	4
66	67	3
25	25	8
102	102	4
55	55	4
76	76	4
31	111	2
59	59	5
61	61	12
71	75	5
63	63	11
84	84	2
108	108	10
41	41	5
66	69	1
38	38	6
54	61	1
94	94	7
74	76	1
49	49	12
86	86	14
89	89	5
42	42	4
33	38	3
81	81	2
37	38	2
97	97	8
65	65	4
25	50	3
23	26	1
46	46	8
95	95	6
82	82	1
78	79	2
67	67	9
94	95	1
20	20	6
39	39	5
33	33	4
47	47	7
89	90	2
104	104	8
55	57	2
87	91	4
43	43	3
106	107	6
51	51	7
79	79	5
62	63	7
77	77	4
31	34	1
59	61	6
33	34	6
98	98	1
62	62	5
85	95	2
71	71	4
52	52	4
73	73	6
68	69	5
19	59	4
97	101	2
103	103	7
24	24	3
103	107	2
21	21	8
103	104	8
60	65	4
22	22	7
90	92	2
83	85	3
92	92	4
30	31	1
87	87	6
27	27	6
36	36	7
110	110	6
43	44	3
93	101	2
31	31	4
35	35	3
28	47	1
91	91	3
84	96	1
57	57	7
87	109	3
31	32	1
78	98	1
67	83	1
64	84	1
23	25	2
72	73	1
80	92	5
34	34	2
36	47	2
68	96	4
83	84	3
68	68	2
38	47	2
60	60	8
87	89	1
69	78	1
42	43	7
50	50	4
87	105	1
105	106	4
93	102	1
58	108	3
74	74	7
36	37	3
40	41	4
77	78	5
72	74	1
106	106	2
73	107	1
107	108	1
71	72	3
83	83	5
26	27	1
99	100	5
88	88	6
25	29	4
101	102	4
36	38	3
108	109	1
52	109	2
51	52	2
64	64	1
21	41	3
82	86	2
20	42	2
74	75	3
80	81	3
91	110	1
53	56	7
30	30	2
46	47	2
68	102	2
48	48	9
61	62	1
114	114	2
22	104	3
29	29	1
75	81	1
28	28	2
55	69	1
87	88	1
76	92	3
58	58	4
70	101	1
29	112	1
20	21	2
65	69	2
56	58	1
99	102	1
71	74	1
100	111	1
98	111	1
47	48	1
80	80	2
82	84	1
60	61	2
88	89	1
53	76	1
96	100	1
82	83	1
45	45	3
89	91	1
31	51	1
26	32	1
86	92	1
75	79	1
41	42	1
23	24	1
76	77	1
