167	167	10
188	188	6
159	159	16
54	54	3
33	33	6
50	60	3
179	180	3
43	46	1
238	238	2
114	114	5
164	164	5
30	30	2
152	153	4
155	155	6
50	50	14
87	105	7
212	212	9
198	221	1
187	188	11
91	156	1
105	105	7
225	225	11
173	173	8
32	32	15
214	215	12
197	198	4
208	211	1
218	218	8
34	34	5
7	44	3
46	46	5
156	156	6
237	238	1
16	46	1
1	1	8
52	53	2
92	92	3
209	209	10
23	150	2
35	35	2
62	62	7
205	205	5
18	18	2
244	244	12
154	154	14
145	145	7
226	226	6
65	66	1
55	117	2
213	247	2
31	31	6
238	239	8
248	248	7
170	213	4
177	178	6
192	192	3
183	185	1
182	183	2
73	74	1
55	55	7
184	184	8
152	152	9
245	246	4
224	224	3
174	175	2
28	28	3
216	216	5
6	6	6
59	59	7
181	181	9
52	52	6
77	77	6
12	35	4
211	211	6
101	101	10
203	203	8
144	145	1
92	180	4
84	84	4
175	176	4
170	170	9
235	235	3
153	153	5
112	239	2
81	82	6
89	97	1
86	104	3
8	8	10
27	27	9
53	53	7
115	116	3
81	81	5
89	98	3
7	7	14
72	73	5
176	216	5
193	195	5
157	169	1
51	51	5
203	204	5
222	223	2
209	240	1
180	180	7
38	38	6
204	204	5
247	247	8
19	218	4
107	110	1
71	71	7
231	240	11
159	166	3
162	247	3
157	157	2
193	193	2
64	64	2
82	83	4
177	183	1
223	223	4
23	23	5
109	111	3
178	201	3
237	240	1
226	228	2
56	57	2
85	86	2
165	165	10
201	201	10
161	161	12
65	65	10
204	205	3
194	194	10
152	214	2
187	187	6
210	210	5
171	227	5
163	164	9
69	73	1
11	45	1
236	241	5
113	244	2
72	72	9
94	94	3
113	113	6
147	147	7
40	40	8
24	24	5
15	34	4
0	0	1
60	61	3
100	100	3
209	211	1
157	158	4
160	160	9
5	102	2
95	96	4
178	178	5
118	119	8
176	176	3
54	58	2
246	246	1
202	202	5
42	42	4
183	188	3
119	119	13
159	185	4
116	116	2
191	191	5
2	2	7
103	103	3
107	108	1
237	237	4
193	194	7
242	243	1
236	236	3
43	43	10
208	209	10
44	44	3
206	238	7
96	97	2
147	182	1
227	227	2
189	189	6
183	183	8
75	75	7
170	184	4
47	65	2
90	90	9
166	167	4
41	41	5
231	231	7
11	11	4
163	166	4
185	185	7
3	16	1
62	89	1
228	229	4
166	243	4
38	113	3
207	207	14
182	182	5
74	74	3
4	5	7
97	98	1
6	157	1
171	171	2
39	78	3
199	200	1
28	32	3
99	100	2
92	93	1
115	115	18
175	175	3
82	82	4
66	66	5
114	116	4
104	104	4
220	220	8
197	197	3
48	48	5
79	79	4
146	174	2
49	49	4
14	14	5
151	151	11
106	106	7
199	199	9
155	156	1
2	112	4
233	235	1
109	109	10
158	158	10
169	184	2
76	77	3
200	200	2
195	196	3
221	221	6
77	86	3
174	174	5
187	210	1
76	76	3
215	215	7
12	12	4
34	35	4
222	222	5
171	184	2
29	35	1
111	111	7
194	210	4
51	52	3
181	227	2
167	205	3
195	195	8
16	17	2
67	67	6
2	113	1
234	234	5
232	232	3
24	26	2
118	118	2
172	172	8
186	186	4
5	5	6
88	88	6
41	167	2
21	21	3
81	83	5
159	160	1
169	169	2
162	163	5
103	116	3
39	39	12
34	77	2
36	36	4
31	53	1
151	182	1
46	106	1
112	112	5
102	103	1
44	154	1
168	168	9
156	248	2
109	110	7
17	17	3
165	168	2
6	10	1
120	239	1
200	236	1
58	58	6
52	62	1
4	13	3
17	18	1
179	179	5
94	95	1
19	169	4
99	115	1
96	98	5
70	70	2
229	229	9
69	69	7
85	175	3
95	95	3
68	72	2
20	165	2
15	15	8
155	205	2
10	10	4
37	38	3
219	219	4
197	199	2
30	54	1
242	242	12
239	241	2
217	217	6
152	240	1
117	117	4
183	216	2
186	192	3
188	191	2
56	56	7
166	166	9
45	178	4
104	105	4
20	20	1
47	55	1
22	35	1
57	57	4
208	208	7
241	242	2
51	62	2
216	217	3
61	61	6
5	37	2
163	163	9
17	74	3
115	221	3
26	26	7
65	76	1
63	63	4
168	169	2
177	198	1
108	108	1
71	72	2
236	237	2
9	9	5
201	202	2
77	101	1
78	78	4
176	177	7
91	92	1
12	46	1
13	13	1
180	181	4
86	86	6
160	246	1
212	213	5
213	213	4
59	97	3
150	150	3
146	146	1
89	89	4
110	110	10
60	71	3
245	245	8
20	46	1
104	119	1
197	236	1
189	190	2
171	172	2
225	236	3
209	241	2
18	19	4
240	241	2
54	56	1
173	174	2
5	48	1
6	48	1
4	4	2
22	147	1
197	200	3
232	233	1
53	61	2
47	47	1
37	98	1
196	244	2
37	75	2
208	216	1
221	225	1
107	107	2
53	62	2
98	98	1
214	238	2
196	225	3
186	215	1
77	78	1
7	43	1
91	91	6
22	22	3
232	241	1
191	192	1
64	65	3
160	243	1
190	190	1
87	88	2
55	56	1
11	46	1
59	60	1
48	49	2
233	242	3
213	233	2
96	96	4
33	34	1
146	184	1
185	186	1
164	166	1
189	210	1
84	97	1
186	217	1
172	173	1
95	99	1
169	219	5
228	228	2
162	162	3
45	45	4
14	118	1
117	119	1
180	182	1
110	236	1
60	60	2
232	236	1
70	71	3
211	213	2
243	243	1
93	93	1
240	240	2
229	230	2
234	235	2
24	36	1
29	37	1
3	14	1
95	104	1
69	79	1
237	246	2
58	63	1
40	100	1
192	209	1
249	249	3
16	16	2
149	149	2
73	73	1
145	150	1
114	115	2
206	206	4
75	77	2
198	247	1
106	168	4
213	220	1
10	46	2
241	241	1
203	228	2
33	74	3
97	97	1
67	92	1
41	172	1
30	37	1
160	161	1
48	53	1
210	212	1
12	28	1
80	80	2
175	216	2
159	182	1
31	37	1
15	33	1
233	234	2
163	165	1
15	99	1
68	70	1
33	178	1
6	7	1
120	120	1
68	68	1
176	186	2
101	103	1
95	100	1
165	173	2
31	43	1
166	236	1
192	217	1
96	102	1
34	96	2
239	239	1
106	117	1
193	202	1
36	78	1
117	118	1
81	112	1
51	178	1
44	45	1
93	168	1
102	120	1
158	243	1
28	43	1
231	232	1
244	246	1
173	176	1
181	182	2
194	211	1
168	242	1
207	211	1
181	186	1
147	205	2
64	66	1
101	102	1
225	226	1
243	244	1
29	29	2
111	244	1
4	30	1
46	178	1
105	107	1
15	108	1
