69	69	9
2	2	22
21	21	21
7	7	16
25	26	1
23	23	14
35	36	11
73	73	1
11	11	14
9	13	1
72	72	4
34	34	8
28	28	9
63	76	1
52	52	11
24	48	3
56	56	26
59	60	9
63	63	11
34	38	2
43	43	20
18	19	8
54	54	5
61	61	15
77	77	11
29	30	5
49	50	5
46	46	13
29	32	2
33	33	14
59	59	10
68	70	3
45	47	4
34	35	8
42	42	24
39	39	6
7	8	13
44	44	19
22	22	19
0	1	12
31	31	16
65	65	8
4	4	21
68	68	6
6	28	3
52	55	5
62	62	17
45	48	3
43	57	6
0	0	10
44	47	3
32	32	10
12	12	22
49	52	3
48	49	5
28	29	15
27	28	5
3	3	10
36	37	2
20	20	13
10	10	17
38	38	5
44	45	2
8	9	4
51	51	13
49	51	8
67	72	1
29	29	9
67	67	8
40	40	10
34	36	5
50	51	3
6	6	20
47	47	12
66	66	8
9	9	8
67	68	6
30	40	3
58	59	2
9	61	5
23	31	2
29	36	1
30	30	15
64	64	6
70	70	12
43	44	5
66	67	9
55	55	26
24	24	7
8	8	11
13	13	7
74	74	9
55	56	6
56	57	9
2	6	1
45	46	4
53	53	11
19	19	10
1	1	22
23	29	1
75	75	9
43	45	5
19	20	12
60	60	14
39	44	3
11	12	4
3	4	9
5	5	4
7	12	2
32	71	1
38	39	3
49	68	2
76	76	1
53	54	4
45	45	5
36	36	21
1	2	5
19	21	3
57	67	2
12	21	2
54	61	2
52	54	3
25	29	1
58	64	3
54	55	8
35	35	17
58	58	6
39	41	2
49	49	2
62	63	2
38	42	1
24	26	3
50	50	5
35	47	1
29	43	1
24	25	7
71	71	5
2	3	8
10	11	10
33	34	8
33	35	3
32	33	6
2	4	2
24	31	2
64	65	1
10	12	2
51	52	4
66	69	1
41	41	3
22	59	3
22	23	2
57	57	6
31	32	9
6	33	3
27	48	1
9	11	3
57	62	1
39	70	2
9	12	2
48	48	3
13	32	5
35	37	1
49	67	1
44	46	2
75	76	2
2	8	1
33	36	1
48	55	1
58	67	3
74	75	4
57	59	2
68	69	2
61	62	1
35	39	2
68	72	1
8	23	1
67	69	1
18	18	4
12	13	6
27	27	1
7	11	3
23	33	1
38	41	1
32	44	1
61	63	5
4	22	1
40	41	2
31	71	4
5	34	1
35	48	1
52	53	2
57	58	2
33	37	1
62	64	1
46	57	3
6	13	1
6	7	3
74	76	1
26	26	1
23	26	1
11	21	1
70	71	2
60	61	1
45	67	1
18	21	1
31	40	1
64	67	1
62	72	1
8	33	1
37	37	1
25	25	1
38	44	1
61	77	1
31	34	1
35	51	1
