125	128	4
40	42	3
78	78	8
42	43	6
49	49	25
109	109	6
59	63	2
98	98	11
14	14	17
67	68	7
109	110	11
54	55	7
40	40	20
8	8	6
41	41	35
83	83	7
89	89	15
76	76	24
86	86	10
99	99	17
102	102	11
115	117	1
3	3	8
13	15	7
71	72	5
103	107	1
79	79	17
22	67	2
28	28	14
91	91	11
88	91	5
78	80	4
53	53	12
41	42	14
49	116	3
123	123	14
52	52	22
95	96	5
64	64	11
18	18	18
57	62	3
121	121	35
122	122	15
98	102	2
70	70	14
73	73	15
13	13	24
48	49	6
16	16	18
17	17	10
11	12	3
120	121	4
44	62	1
117	117	18
42	42	17
59	59	15
39	100	1
76	78	3
105	106	9
82	82	8
56	56	8
61	61	13
90	90	20
93	124	2
54	54	37
48	48	31
126	126	9
62	62	9
46	54	1
8	31	1
96	96	9
51	51	14
93	112	1
19	19	11
5	5	17
127	130	1
24	24	7
108	108	9
43	43	14
66	66	14
93	93	12
87	87	25
75	75	10
72	74	5
45	45	9
113	113	22
81	81	19
12	12	10
111	111	21
124	124	13
119	119	9
72	72	11
20	20	9
1	2	3
9	74	1
29	29	13
19	21	3
84	102	3
21	21	9
48	65	3
5	15	2
39	39	14
95	95	10
132	132	7
69	70	5
60	61	10
82	114	3
78	79	7
30	30	13
77	78	9
76	86	2
44	45	11
97	104	1
57	57	21
16	73	1
105	105	20
97	100	4
2	2	13
21	22	2
2	4	1
82	103	3
65	65	12
114	114	9
84	85	6
96	117	1
63	63	11
27	32	1
39	67	1
44	46	2
7	7	3
0	0	15
104	104	4
53	54	3
28	122	2
112	121	3
85	86	6
10	11	2
8	11	2
10	10	18
80	80	9
40	41	12
62	100	1
68	76	2
112	112	17
107	107	16
78	97	1
46	48	6
18	47	3
45	67	3
47	47	21
15	15	8
25	25	10
110	110	21
28	29	7
100	100	1
43	52	3
116	117	6
113	116	3
15	16	2
60	90	1
97	98	6
100	103	6
120	129	1
2	12	2
42	64	2
43	64	1
75	76	4
1	20	3
97	97	10
112	113	3
111	113	1
129	129	10
105	109	5
58	59	3
52	54	1
26	31	5
103	118	2
2	59	1
65	66	6
121	132	1
7	8	3
64	68	3
31	31	12
38	62	2
70	71	7
90	104	1
49	56	1
74	79	1
8	9	6
38	39	2
52	66	2
60	60	8
103	103	17
74	74	12
44	44	16
53	66	1
107	129	4
38	38	11
125	125	9
50	50	23
72	84	1
15	58	5
31	33	2
73	75	3
52	53	7
15	55	4
19	20	3
115	131	1
114	119	3
46	47	11
42	49	1
120	132	2
85	85	12
19	28	4
79	80	1
26	26	17
59	61	5
92	123	3
26	71	1
116	119	2
130	130	18
86	88	3
58	58	15
23	73	2
20	25	3
17	19	1
129	130	7
102	105	1
1	3	1
43	55	1
46	56	7
73	74	6
80	81	13
92	94	1
2	121	1
67	67	7
6	6	6
103	128	5
58	100	3
32	45	1
126	129	2
72	73	3
55	55	7
68	68	10
101	101	7
125	132	2
127	127	8
44	53	2
46	49	2
104	130	5
27	29	9
107	117	2
0	8	3
29	31	1
65	67	2
0	1	4
96	98	2
127	128	8
59	97	1
94	104	2
44	55	8
106	106	14
62	66	1
87	88	3
82	85	3
114	115	2
107	108	2
23	26	3
78	101	2
115	115	11
42	60	1
27	86	2
23	23	18
32	32	7
16	39	2
128	128	6
76	77	2
46	46	8
106	108	2
110	111	6
26	27	3
82	84	4
47	48	8
63	85	2
53	55	3
76	99	2
25	26	3
28	30	2
52	61	2
85	88	2
94	94	9
108	129	3
67	99	1
55	56	2
33	34	3
108	113	2
49	50	2
5	7	1
56	92	3
71	77	3
14	22	3
15	69	2
33	33	6
119	127	2
66	90	1
22	23	5
43	44	8
27	27	10
89	109	7
46	67	1
128	129	4
88	100	1
13	23	2
38	42	3
2	5	2
126	128	4
50	51	2
4	15	2
94	103	1
11	38	2
106	124	4
84	84	6
51	52	3
62	64	2
14	40	1
32	64	2
109	113	1
94	95	4
66	68	3
66	78	1
4	4	13
131	131	15
27	28	8
16	23	1
37	38	2
114	117	2
92	92	13
39	61	2
94	121	3
102	104	1
87	97	3
58	78	1
75	78	2
16	34	1
54	56	4
101	114	2
80	94	4
29	30	2
97	108	3
72	105	1
89	90	9
9	64	1
69	69	6
86	91	1
29	79	1
106	107	8
14	15	2
102	125	2
88	88	15
60	67	2
13	16	4
100	118	1
69	96	2
96	97	2
91	104	2
62	63	8
87	99	3
82	89	1
39	56	2
8	89	6
57	113	3
99	102	1
55	58	1
86	87	7
99	118	1
81	86	1
130	131	2
11	11	5
37	43	1
82	97	3
19	33	1
99	100	1
19	23	1
123	124	2
118	120	2
14	17	5
5	115	2
116	116	8
101	102	7
15	18	3
6	38	1
29	90	3
115	116	1
109	123	1
82	94	1
62	75	2
77	80	2
121	122	5
118	118	3
8	29	1
10	13	1
18	19	3
83	85	2
60	99	1
81	88	1
117	118	2
9	10	3
128	130	8
18	21	1
40	67	1
22	25	4
22	22	21
118	119	5
1	1	7
6	32	2
92	109	1
95	125	1
65	118	5
74	78	2
84	99	1
110	112	1
113	129	3
4	11	1
50	113	2
31	32	3
111	112	3
54	76	1
81	90	1
114	116	4
106	109	2
19	51	1
13	24	1
97	106	1
23	24	3
61	100	2
68	69	1
66	67	3
133	133	3
13	14	3
46	55	1
71	71	5
127	129	3
6	109	2
9	9	1
103	104	1
3	4	2
63	66	2
83	84	5
70	88	1
119	120	2
32	34	3
74	77	1
120	120	4
114	127	1
13	40	3
26	28	1
82	83	3
100	101	6
116	118	1
4	5	4
99	129	1
111	120	4
69	91	2
13	38	1
5	6	1
61	62	1
7	56	3
66	119	2
119	126	1
55	70	1
3	5	1
3	11	1
16	17	3
28	104	2
101	117	1
77	77	4
107	112	1
20	26	2
62	132	1
92	93	2
47	68	1
12	13	1
104	112	1
39	41	1
83	130	1
2	3	2
25	48	2
1	4	1
60	62	3
3	16	1
91	92	2
3	21	1
45	76	1
69	88	1
83	86	1
64	66	1
81	96	2
40	83	2
43	56	4
115	118	1
34	34	4
4	34	1
101	126	1
124	132	1
113	119	1
59	60	1
52	60	1
39	46	3
81	82	4
57	59	1
85	87	4
5	72	2
4	7	1
40	55	1
100	117	1
72	75	4
104	105	1
32	33	1
23	28	2
107	128	1
3	9	2
103	130	1
56	57	4
17	18	1
30	38	1
99	107	1
65	74	1
90	110	1
61	99	1
63	67	1
61	68	3
62	65	4
2	11	1
7	17	2
18	120	2
44	71	2
32	41	1
126	127	2
71	88	2
52	55	1
116	125	1
60	65	1
80	82	1
70	109	1
99	128	1
13	47	1
60	78	1
74	103	1
72	81	1
2	14	1
58	71	1
18	40	2
98	99	1
125	130	2
53	56	2
74	80	1
63	64	1
41	44	1
81	83	2
59	65	2
129	131	2
21	111	2
22	42	1
99	127	1
11	13	3
124	125	1
22	32	1
58	60	1
65	68	2
123	131	1
46	77	1
16	22	1
1	21	1
62	79	1
86	89	1
8	50	1
27	31	1
7	13	1
40	84	2
100	102	1
11	23	1
101	103	1
7	14	1
1	22	1
10	78	1
16	103	1
101	118	1
68	94	1
0	20	1
3	55	1
81	98	1
38	68	1
79	96	1
3	20	1
3	12	1
51	53	1
88	89	1
66	118	1
14	43	1
6	84	1
22	33	1
39	40	1
131	132	1
61	133	1
77	97	1
6	15	1
21	47	1
80	95	1
29	121	1
