80	80	6
51	51	14
88	89	4
79	79	6
102	103	2
44	45	7
58	58	9
70	71	10
42	42	12
45	45	7
27	27	5
98	98	13
93	94	7
59	59	10
36	36	10
23	29	3
43	43	6
38	38	10
87	87	2
75	76	4
76	76	1
64	64	8
70	70	12
83	84	6
96	96	11
35	36	4
85	85	6
33	36	3
78	78	7
106	106	12
39	39	9
53	53	16
99	99	14
105	105	17
60	60	21
93	93	13
51	52	7
22	67	1
61	61	11
57	58	1
63	63	14
74	74	6
84	85	3
56	56	10
32	33	8
57	57	12
81	81	14
35	35	2
103	103	20
31	32	2
101	101	11
63	64	4
37	37	6
46	47	11
66	67	4
75	75	2
31	31	22
69	69	13
50	50	12
73	74	3
95	96	3
91	92	1
49	52	1
71	74	1
28	29	1
82	82	8
28	28	8
33	63	2
48	49	3
91	91	12
33	33	14
55	59	1
92	92	8
34	34	14
89	89	4
21	21	5
36	37	15
37	72	4
100	100	3
95	95	7
40	41	4
43	73	2
55	55	10
91	99	5
78	81	1
66	66	7
50	51	2
73	73	4
38	39	6
89	90	6
67	67	20
92	95	1
42	43	3
94	95	9
103	104	3
40	40	11
22	23	1
71	71	15
22	22	5
86	86	8
84	98	1
49	49	4
23	24	6
68	68	12
25	38	3
54	54	9
44	44	6
61	62	6
38	40	5
26	26	5
104	104	13
23	23	3
94	94	13
72	73	1
101	102	9
32	63	8
24	24	9
25	27	3
52	53	7
69	70	4
52	52	7
77	100	3
92	99	4
77	77	18
93	99	2
40	42	3
53	54	3
102	102	15
72	72	7
25	25	12
36	68	3
68	69	4
43	44	2
65	65	4
98	99	1
59	60	3
37	38	3
38	72	2
55	72	3
84	97	1
106	107	2
57	60	1
46	46	11
24	30	4
85	96	1
34	61	2
90	90	3
38	53	3
39	42	2
37	69	2
25	26	5
97	97	3
20	20	1
51	54	2
78	79	4
60	64	2
62	63	11
54	55	1
92	93	1
62	62	4
76	77	2
88	88	2
24	25	6
83	86	1
79	80	1
29	39	2
80	81	2
65	66	2
32	32	6
35	62	3
74	75	2
25	28	1
105	106	2
45	49	1
33	34	2
60	61	1
63	65	1
27	28	1
84	84	1
41	42	3
60	62	1
47	47	3
48	48	3
77	81	1
41	41	2
26	27	1
22	55	1
39	73	1
45	46	2
54	70	1
52	54	1
56	57	2
71	72	1
31	35	1
29	29	3
90	91	1
53	55	1
34	35	1
