120	120	7
59	59	8
43	51	2
176	177	2
223	223	6
114	114	2
204	204	3
105	106	3
190	190	4
212	234	2
241	244	4
242	242	12
161	161	8
165	166	5
167	167	4
25	25	1
213	214	2
109	109	9
158	159	6
231	237	1
166	166	8
177	177	6
55	56	2
203	203	1
184	187	4
99	101	2
8	198	2
153	156	2
160	176	3
69	71	5
61	61	11
8	8	3
172	173	1
6	7	3
177	181	2
113	114	3
224	224	6
107	111	2
210	218	1
71	71	12
31	31	8
181	181	6
61	62	2
116	116	8
188	188	4
55	71	2
3	3	5
191	191	6
92	92	4
189	190	4
45	45	5
145	169	1
245	245	5
200	224	3
199	200	1
12	12	2
163	192	1
14	14	10
236	236	2
88	88	2
90	91	3
193	195	2
47	47	1
48	49	1
193	194	2
73	74	1
171	172	4
27	27	2
196	196	4
33	195	1
211	211	3
39	39	9
229	229	4
112	112	4
110	110	2
82	111	1
182	182	5
104	104	3
239	240	11
29	30	5
21	21	1
30	37	2
217	232	1
29	186	2
88	91	1
119	120	3
150	150	5
156	156	1
91	91	2
173	173	7
1	25	3
92	93	1
179	180	1
30	30	7
7	7	9
238	238	2
51	60	2
169	203	1
17	17	2
200	200	7
70	70	6
247	248	1
36	36	3
187	187	3
170	170	2
218	219	1
153	162	4
198	230	2
242	243	1
53	69	1
6	28	3
107	107	10
31	195	1
209	210	3
54	54	4
171	171	1
54	55	4
168	204	1
178	178	1
157	161	2
163	163	11
5	37	2
41	41	10
232	234	2
38	42	1
84	84	1
155	155	3
197	198	5
18	22	1
232	232	3
175	175	1
35	229	2
209	239	1
6	41	1
230	230	1
192	192	5
120	237	1
231	232	3
155	156	1
194	195	8
184	192	2
165	165	4
198	199	3
2	2	1
168	168	8
35	35	5
226	226	5
183	232	2
207	207	2
64	64	3
153	153	8
238	239	3
94	94	4
86	111	2
145	145	5
113	116	1
174	176	1
154	154	7
195	195	3
31	240	1
216	216	2
113	113	2
46	46	3
108	112	2
111	245	1
31	194	2
82	82	3
76	119	1
39	245	2
26	26	3
80	80	2
166	176	1
193	196	3
102	102	7
4	4	3
164	164	1
234	234	2
51	61	6
70	72	3
44	44	1
240	240	1
35	46	2
218	233	3
229	230	1
53	54	1
40	40	7
160	160	6
179	179	3
60	115	2
84	96	2
76	77	2
61	70	1
117	117	2
214	214	3
6	6	4
208	208	2
29	29	3
171	178	3
197	202	2
184	184	2
24	24	3
10	47	2
227	227	1
223	236	1
162	164	3
40	41	1
171	182	1
176	176	7
74	145	2
16	46	1
203	204	2
33	187	1
106	106	2
69	69	3
72	72	5
158	158	5
197	197	1
239	239	2
11	11	1
237	237	4
176	178	1
204	206	1
13	13	6
11	12	1
111	111	2
50	50	1
218	218	2
189	189	1
40	53	5
68	68	2
83	83	5
72	73	1
159	159	1
233	233	2
103	103	3
234	235	2
163	188	1
112	158	1
12	13	2
49	49	3
42	79	1
11	183	2
215	218	2
68	70	1
195	225	1
43	43	2
242	245	1
162	162	1
235	235	4
27	46	4
241	241	2
58	59	1
18	25	1
164	165	2
207	209	2
144	144	1
42	42	3
241	242	2
62	109	1
73	76	1
68	74	1
89	95	3
170	176	1
163	165	3
15	42	1
215	216	1
63	85	1
87	88	1
166	177	1
86	86	2
145	173	1
16	16	3
76	76	1
187	190	1
18	18	2
247	247	2
86	115	2
28	28	1
213	213	5
14	15	1
160	165	2
193	193	3
19	19	2
146	157	1
211	216	1
143	145	1
101	106	1
1	43	1
227	228	1
62	63	2
11	28	1
174	174	1
60	60	2
166	167	1
181	182	1
112	118	3
217	217	2
33	34	1
5	5	2
48	59	1
58	109	1
168	169	1
222	222	1
98	99	1
105	108	1
37	37	2
52	52	1
41	43	1
13	209	1
79	79	2
243	243	4
6	17	1
151	198	1
60	75	1
79	80	1
81	81	2
32	32	1
225	225	2
207	224	1
3	38	2
53	53	1
42	60	1
101	101	1
83	85	1
210	238	1
161	168	1
201	201	1
82	116	1
169	169	2
108	110	1
4	5	1
20	20	2
115	115	2
55	55	1
7	52	1
151	151	1
222	238	1
193	249	1
12	181	1
7	199	1
35	187	1
213	232	1
162	163	1
163	167	1
7	8	1
219	219	1
60	62	1
150	188	1
117	118	1
217	236	2
183	183	1
74	75	1
156	157	1
8	10	1
81	89	1
149	149	1
202	202	1
212	236	1
82	83	1
34	47	1
152	152	2
9	9	1
236	238	1
73	73	1
179	181	1
202	223	1
111	119	1
46	47	1
