55	55	32
65	65	39
31	32	14
67	67	16
36	63	5
9	9	40
57	57	35
55	56	6
76	77	4
27	27	24
54	55	19
32	35	3
29	29	45
52	52	27
40	50	3
1	1	27
4	4	19
56	56	15
6	7	2
14	14	4
44	44	39
62	62	65
58	61	2
45	47	8
66	68	4
8	8	32
77	77	19
72	72	23
60	60	39
7	8	11
33	37	10
34	53	2
43	43	32
28	28	26
62	64	13
70	70	23
41	41	45
19	19	29
37	38	19
12	13	7
18	61	6
48	49	6
46	46	31
0	0	26
36	36	17
39	39	18
13	13	28
54	54	27
23	23	24
66	66	39
67	76	2
5	6	19
40	58	1
66	67	16
64	65	7
30	30	30
51	58	8
39	50	4
74	74	27
60	63	5
34	34	13
10	24	9
47	48	12
21	21	46
3	3	24
69	69	38
73	73	27
63	64	2
57	58	22
35	35	40
22	22	23
42	42	48
40	49	4
1	2	7
34	54	11
57	72	3
13	18	2
9	11	6
23	28	8
6	6	16
25	27	13
11	11	33
2	2	17
33	34	9
75	76	4
75	75	17
26	27	5
35	37	2
69	73	2
49	49	39
37	37	20
10	10	32
74	75	10
3	5	1
46	47	7
47	52	3
37	39	11
63	63	23
40	59	4
35	36	8
26	26	16
68	68	37
18	20	5
70	71	8
64	66	5
61	61	21
50	50	30
58	58	22
22	23	9
25	26	8
58	59	29
2	3	7
71	71	20
33	33	26
64	64	43
25	25	11
48	48	17
38	38	23
31	31	20
21	24	3
42	48	4
39	71	3
70	77	3
30	31	13
68	76	4
60	61	13
52	53	24
40	41	9
39	47	1
38	47	4
48	54	3
72	73	10
32	33	14
40	40	35
3	8	3
53	53	23
25	28	7
19	60	1
25	58	4
5	5	21
59	71	1
42	43	9
45	45	28
51	52	11
60	70	3
20	20	17
65	67	8
48	55	6
40	42	2
19	20	19
37	61	1
12	22	2
24	28	3
12	12	45
11	12	5
71	72	7
51	51	27
39	40	11
4	14	4
56	57	10
41	42	12
50	51	1
42	47	2
62	63	12
4	5	16
10	11	12
65	70	3
2	74	1
36	37	9
67	68	10
51	53	4
44	45	5
65	66	18
61	62	6
43	44	9
47	47	35
33	35	7
6	8	1
7	7	19
29	30	8
59	61	2
24	59	1
24	24	21
43	48	2
26	32	2
23	24	7
2	4	4
59	59	22
20	21	11
38	39	12
73	74	3
26	58	5
52	54	2
27	29	2
3	32	4
26	28	3
45	46	7
18	18	3
22	59	1
42	44	7
40	51	2
13	22	1
9	10	5
60	66	2
10	26	2
29	37	2
74	76	4
49	50	5
32	32	12
71	77	4
34	37	5
26	29	2
43	56	7
30	33	6
32	37	2
43	45	1
13	20	1
3	4	13
15	27	3
11	29	5
34	55	4
0	2	1
32	34	1
35	39	9
67	70	4
55	57	3
63	65	5
69	70	6
68	71	8
49	52	4
36	38	4
34	35	5
38	73	5
58	72	1
28	29	1
68	69	20
38	72	1
8	9	4
30	39	2
19	22	3
53	54	4
4	8	2
18	34	2
46	61	3
38	71	2
35	61	1
51	54	2
24	27	3
70	73	1
31	37	1
24	26	3
2	14	1
68	70	5
50	71	3
37	49	1
39	41	6
49	53	2
27	28	5
54	58	4
76	76	15
49	51	6
61	64	1
7	9	1
42	49	3
36	72	2
40	43	3
19	61	1
67	72	4
48	50	2
60	65	4
1	23	2
54	56	2
41	48	2
13	14	1
18	19	2
41	43	6
30	62	3
12	21	1
39	59	1
29	33	1
18	76	1
0	1	3
22	24	1
63	70	2
60	69	2
56	70	2
36	71	1
29	36	1
12	20	2
33	56	2
2	19	2
13	23	1
41	50	1
35	62	1
30	32	1
13	61	1
33	73	1
12	19	1
37	52	1
10	22	1
40	71	1
41	71	2
34	36	1
58	70	1
1	76	1
34	62	1
44	56	2
63	71	1
59	60	2
66	70	1
32	38	1
36	40	1
22	27	1
21	23	2
19	76	1
35	53	1
61	63	1
42	54	1
21	22	1
29	61	1
