107	107	2
82	89	6
144	144	6
132	132	13
131	138	2
95	113	1
114	115	4
124	125	7
1	2	1
48	48	9
16	16	6
130	134	1
36	36	7
88	119	2
46	46	7
157	157	5
108	108	7
72	72	6
147	147	2
123	123	8
32	32	3
41	41	7
21	21	7
122	147	2
98	98	10
36	40	3
30	54	3
126	126	5
110	110	9
52	52	5
90	111	2
50	51	3
97	121	1
104	130	3
105	105	7
132	142	1
128	128	2
90	97	6
122	122	3
131	134	4
53	53	7
22	25	2
131	132	2
133	142	3
112	112	5
31	31	12
89	157	1
19	19	9
94	94	6
96	97	2
38	38	6
108	109	4
49	49	12
31	32	3
100	100	3
3	69	1
87	87	6
91	92	1
121	121	5
154	154	2
135	135	5
20	21	4
141	141	2
108	147	6
99	100	6
74	74	2
7	7	17
52	55	3
14	14	13
95	95	10
148	149	1
99	99	6
8	8	10
152	154	4
132	136	3
104	154	4
107	114	5
153	156	1
4	4	13
149	149	4
29	30	5
124	127	6
109	109	5
126	129	1
73	73	8
96	96	5
48	49	3
119	119	6
146	146	3
47	47	6
114	114	11
97	97	6
7	36	2
63	64	1
86	87	9
103	103	6
39	41	1
45	47	2
82	82	10
7	10	2
12	18	3
83	86	5
95	97	4
90	95	6
123	124	6
145	145	2
24	25	2
45	45	5
131	131	3
12	12	4
88	88	3
146	147	2
26	26	5
66	66	10
91	91	9
113	114	1
33	36	3
30	30	5
23	26	3
116	152	1
75	76	5
3	3	4
23	24	6
27	27	18
127	127	11
106	106	6
6	6	4
114	149	3
9	10	2
80	80	4
68	70	1
9	21	3
115	115	1
124	124	4
28	30	1
83	84	2
32	49	1
77	80	1
43	43	2
88	89	8
67	68	3
135	138	2
156	158	1
89	89	2
9	35	3
0	0	2
68	68	4
55	55	6
125	125	8
29	29	4
9	9	1
55	56	1
13	13	7
46	47	3
80	81	5
134	134	3
137	137	9
109	115	3
62	62	3
118	119	5
25	144	2
34	34	11
111	111	5
90	112	1
84	84	5
78	78	9
39	132	4
22	22	7
121	122	3
134	138	1
63	71	5
25	25	4
31	34	4
115	116	4
79	79	9
17	18	3
146	148	2
33	33	5
5	5	2
130	130	8
79	89	2
81	82	5
112	114	3
157	158	1
67	67	8
135	136	3
102	103	2
123	127	4
39	39	6
58	154	3
120	141	1
9	11	1
153	153	1
89	90	3
148	148	4
151	151	9
2	2	7
97	105	2
18	19	2
23	25	2
41	84	2
26	27	2
83	95	1
18	18	1
90	91	1
107	137	1
73	101	3
31	33	3
92	92	3
86	86	5
23	23	5
34	35	2
30	31	2
130	131	2
132	143	1
51	51	7
42	42	1
44	44	6
132	133	1
104	104	2
13	14	3
71	71	7
51	55	1
153	154	7
78	79	2
17	39	1
101	101	8
27	29	2
81	81	3
10	11	1
38	52	3
12	20	2
7	8	2
25	120	1
45	46	1
10	10	5
7	21	2
108	146	1
15	15	1
30	36	1
40	40	3
95	111	1
140	140	4
94	148	3
129	129	2
69	69	7
152	152	4
49	51	1
42	50	1
75	75	3
85	95	1
34	52	2
42	84	2
107	115	1
110	139	4
136	137	2
21	22	1
73	75	1
144	147	1
96	109	2
132	137	2
33	34	3
156	157	1
131	135	1
125	126	2
139	139	5
22	26	1
85	85	8
11	12	2
8	9	2
24	27	2
65	65	1
15	37	2
79	80	3
47	91	1
2	6	1
158	159	3
150	156	1
120	120	4
149	150	5
36	39	1
138	138	5
78	140	2
84	86	2
68	142	1
98	158	2
116	118	3
143	143	2
102	102	1
48	50	5
142	146	1
48	55	2
91	111	1
155	155	3
128	129	2
23	120	1
109	147	2
100	101	1
91	97	1
82	85	3
145	146	1
38	39	1
156	156	9
42	43	2
141	146	3
113	120	2
152	153	2
119	150	1
35	46	1
3	71	1
144	145	3
96	111	2
147	156	1
29	96	1
28	29	1
2	5	1
142	142	3
123	146	1
77	77	1
93	123	2
151	152	1
50	50	1
28	28	2
96	108	2
141	153	1
68	69	1
20	20	1
134	137	1
117	118	1
51	52	2
105	149	2
148	150	1
77	79	2
24	24	4
22	23	3
53	54	2
69	70	1
25	26	1
63	63	1
93	96	1
40	42	1
14	16	1
16	17	1
130	138	1
27	28	2
153	158	1
148	156	1
37	37	1
44	45	1
41	82	2
30	119	1
136	136	3
36	53	1
84	85	1
116	117	1
122	123	2
92	117	1
158	158	3
137	138	1
131	133	2
133	133	1
118	118	3
15	16	3
152	155	1
117	119	1
11	11	1
104	105	1
90	90	2
36	42	1
35	35	2
3	4	2
42	65	1
111	117	1
64	67	1
116	151	1
53	55	1
77	81	1
106	148	1
117	117	1
49	57	1
5	138	1
113	113	1
