112	112	11
5	6	6
45	45	14
119	122	4
62	71	4
77	77	7
1	16	2
106	123	4
116	116	4
159	159	3
61	63	2
19	19	8
88	88	2
142	163	1
110	110	4
19	20	2
100	100	11
42	42	6
46	46	10
147	148	5
69	70	3
9	10	3
34	37	1
141	141	5
11	11	7
47	49	2
98	98	11
15	19	3
89	90	1
68	69	2
78	78	6
124	124	6
7	8	2
21	23	8
22	22	6
151	151	11
10	42	1
44	44	10
53	54	7
98	99	5
10	19	3
115	118	2
163	164	5
43	43	5
104	105	2
87	87	5
26	26	3
136	136	10
84	84	3
38	38	10
141	152	4
157	157	10
14	14	5
18	18	7
119	119	8
156	156	3
132	132	1
114	115	4
121	122	7
91	96	2
96	96	2
148	148	9
86	88	3
112	113	2
10	94	6
106	155	2
107	108	1
86	87	3
87	88	11
68	111	1
58	62	2
55	55	8
112	167	2
99	99	8
39	40	4
73	73	6
4	4	16
117	118	3
17	17	6
81	82	6
15	15	2
108	112	3
40	41	3
13	20	1
57	57	3
101	102	6
22	23	1
24	25	5
33	133	1
108	108	5
130	130	3
78	146	3
80	83	2
23	23	3
124	125	4
91	97	3
89	89	7
65	65	3
131	160	1
7	27	2
51	51	2
111	132	3
138	138	8
26	76	5
137	148	4
1	2	4
33	33	2
63	98	1
77	85	1
140	141	2
50	50	8
34	35	2
49	93	3
8	52	4
45	69	4
94	94	5
83	83	5
21	22	3
14	15	7
125	127	1
130	137	4
100	101	3
144	156	2
6	20	5
93	93	3
144	145	4
108	149	4
73	124	3
107	107	5
70	70	3
43	44	3
91	91	7
125	129	2
150	150	4
27	103	3
82	82	5
21	21	3
71	71	6
121	125	4
106	106	8
106	111	1
135	135	3
63	63	2
162	162	4
27	27	3
109	109	8
109	110	7
25	25	5
1	1	6
101	101	2
42	53	2
37	102	2
77	78	4
65	68	5
90	90	7
153	153	6
24	24	2
98	103	3
22	48	1
37	37	4
157	158	4
11	12	4
73	74	1
140	140	5
139	139	1
39	41	3
149	149	2
53	53	9
7	7	1
64	64	6
154	154	1
14	35	1
71	168	3
58	58	1
16	20	1
74	89	1
142	146	1
142	143	1
13	13	2
170	170	6
64	79	1
143	143	2
65	77	2
160	160	3
10	10	3
6	6	2
8	8	6
72	73	2
86	86	10
20	20	4
64	70	1
20	21	5
156	157	1
155	156	4
1	8	2
137	137	1
6	7	2
2	2	10
0	64	2
69	110	2
166	166	4
67	67	1
44	68	2
40	40	3
117	117	1
11	15	1
5	5	5
162	164	3
167	167	1
67	76	2
169	169	4
75	75	3
104	104	4
51	57	1
115	117	3
113	114	1
43	47	2
83	86	2
125	125	3
125	139	1
49	49	4
12	12	4
13	14	6
35	128	2
90	96	1
16	16	5
112	120	3
3	3	9
62	62	2
139	142	1
27	28	1
6	64	1
37	38	1
49	55	2
81	86	1
129	135	2
128	129	3
74	75	3
127	127	2
63	70	3
138	139	1
97	97	3
79	80	3
16	66	3
88	157	1
104	163	1
28	28	4
102	102	3
8	47	2
151	155	2
36	36	2
86	89	4
75	103	3
76	76	1
155	157	1
12	14	4
7	20	1
89	98	2
12	40	3
44	45	6
54	54	2
49	53	1
114	116	2
51	55	1
47	48	2
138	143	2
74	76	3
153	154	2
72	72	3
86	90	1
164	164	3
12	63	1
92	93	1
8	9	2
120	120	4
23	24	4
13	45	3
56	74	1
119	133	2
132	170	1
64	93	3
142	144	1
128	128	1
120	135	1
111	111	1
62	63	1
88	90	1
71	72	1
115	115	2
38	39	2
34	132	3
107	166	2
20	52	2
103	103	4
39	39	1
48	48	1
74	80	1
74	105	1
54	55	2
41	42	1
123	123	2
166	167	2
116	121	2
49	50	1
133	133	1
24	51	2
114	114	1
16	18	1
99	117	1
35	99	1
105	124	1
91	93	1
66	66	1
122	122	2
58	71	2
102	103	1
90	91	2
139	140	2
126	128	1
35	35	1
143	154	2
133	167	2
44	46	4
161	161	2
56	57	2
24	53	1
9	9	1
129	137	1
122	125	1
76	79	2
80	80	3
129	129	1
118	123	2
92	92	1
27	52	1
111	112	2
126	126	1
115	116	1
4	131	2
74	74	1
25	58	1
146	146	2
107	128	1
15	20	1
119	167	1
134	134	2
151	152	2
4	57	1
57	73	1
0	56	1
91	104	1
101	104	1
65	67	1
6	42	1
47	53	1
