157	158	2
28	28	4
97	97	5
105	106	4
136	137	1
19	19	3
155	155	2
38	145	1
80	81	4
56	57	1
104	105	2
137	137	6
13	80	3
1	1	5
69	71	3
127	128	2
71	71	7
64	64	8
149	152	2
23	23	4
29	36	4
126	126	5
93	93	4
131	133	2
15	15	7
112	135	3
29	29	10
62	70	4
157	157	1
119	119	3
112	134	4
12	12	4
54	54	2
67	67	5
52	55	4
94	94	6
68	118	5
67	112	1
44	44	3
17	17	1
69	112	2
146	146	3
40	43	2
52	53	5
150	150	1
115	115	4
21	25	5
129	129	4
57	57	5
35	36	9
148	148	6
82	82	4
123	123	2
15	19	6
117	145	2
135	135	5
108	109	3
18	20	4
48	50	3
31	31	4
48	49	3
127	127	2
65	65	3
2	17	4
152	152	5
66	101	1
61	71	1
75	75	3
145	145	1
28	34	6
20	21	3
56	75	2
21	22	2
56	56	3
55	64	4
67	68	3
124	124	3
145	147	1
109	158	1
128	129	2
121	121	5
79	80	3
49	53	1
30	31	2
106	107	1
87	87	2
77	77	2
76	76	1
38	38	1
19	20	3
116	150	2
95	96	2
114	114	2
116	120	2
91	91	3
120	121	3
78	78	2
111	148	1
118	154	2
118	118	1
80	80	6
41	41	3
100	100	6
156	156	3
13	35	3
25	25	4
111	128	2
108	108	1
56	158	1
66	69	2
111	113	1
16	16	4
73	138	3
44	48	2
147	148	3
83	91	1
155	157	5
37	37	3
7	7	5
29	30	2
53	54	2
0	65	1
111	111	1
16	19	1
49	50	2
118	146	4
88	88	3
132	132	3
73	75	2
48	52	3
133	133	6
144	144	2
79	93	1
6	7	1
77	78	3
152	158	1
120	120	3
45	45	7
22	37	1
30	30	6
72	152	1
105	105	1
124	156	2
9	10	4
55	56	1
154	155	2
139	139	1
108	128	2
31	32	4
122	123	3
51	66	2
86	86	2
35	35	3
85	85	1
29	39	2
151	151	1
83	84	1
1	6	1
147	147	2
122	154	1
85	86	2
47	48	3
45	66	2
0	0	2
92	104	1
21	21	1
45	47	3
54	132	1
1	127	1
111	112	1
33	79	1
27	28	1
22	28	1
4	6	2
101	101	2
126	154	3
29	42	2
41	42	2
146	147	5
67	147	1
66	68	1
1	2	3
95	112	1
83	86	3
87	105	2
52	52	2
119	122	1
16	18	2
19	102	1
40	49	2
64	142	1
116	116	2
79	79	4
24	24	2
40	41	2
115	140	1
45	46	4
92	92	1
90	91	2
130	130	1
68	68	3
9	11	2
2	2	1
101	105	2
36	57	1
152	157	1
153	154	1
131	132	1
109	109	2
12	13	2
18	18	1
91	103	2
4	19	1
57	61	1
85	110	1
38	42	3
83	103	2
122	122	3
79	87	1
89	89	1
117	117	1
81	159	1
0	1	1
70	71	2
29	37	1
70	70	1
121	123	1
101	102	2
141	155	3
142	142	1
122	141	1
80	111	2
69	146	1
2	3	1
84	98	2
45	107	1
9	12	2
55	55	2
90	97	1
15	18	2
36	36	2
41	44	1
16	20	2
110	110	1
125	153	1
27	139	1
48	48	1
132	133	1
154	154	1
32	32	2
52	57	1
38	40	1
153	153	1
12	34	1
112	132	1
26	26	1
17	20	1
107	107	1
74	74	1
