22	22	16
121	124	3
176	176	12
42	42	8
64	64	3
119	158	3
15	34	2
90	92	10
173	173	11
167	170	3
0	0	9
45	45	4
146	146	6
127	130	5
18	42	2
24	25	12
115	115	5
142	143	16
140	140	13
95	97	1
143	143	5
122	122	15
125	125	8
131	132	4
120	121	3
20	20	19
31	31	18
121	121	13
76	77	12
126	126	7
9	9	16
179	179	18
166	166	7
32	34	1
23	24	3
114	114	11
135	178	1
36	36	6
39	40	8
90	90	13
65	73	2
119	119	6
7	7	13
155	155	8
92	92	12
44	61	4
101	101	10
72	72	12
112	114	4
3	4	4
153	153	10
118	119	2
1	4	1
1	1	9
106	106	4
73	73	9
170	170	9
121	122	4
112	140	5
98	99	4
166	167	3
103	104	8
15	45	3
53	77	2
163	166	2
80	80	3
93	138	2
118	118	17
31	32	5
87	88	2
11	12	9
116	116	5
77	77	6
142	142	6
165	165	2
42	44	4
151	157	3
54	56	3
19	19	5
159	160	1
18	30	4
67	67	13
56	106	2
33	33	17
159	159	14
18	18	4
10	10	21
87	87	9
16	16	15
172	172	8
51	53	1
71	72	7
35	35	18
125	126	6
37	37	9
88	88	4
133	133	11
12	12	5
87	89	1
35	36	2
11	17	2
130	130	4
19	45	3
15	15	17
44	44	26
79	86	1
179	180	7
131	131	8
77	78	10
61	61	10
22	83	2
71	74	1
113	113	4
0	17	2
147	147	13
155	156	2
41	41	8
127	127	1
171	172	7
5	5	16
65	65	15
38	38	14
68	71	7
112	112	18
142	162	2
26	26	7
168	168	5
104	105	3
100	101	3
14	15	3
128	128	5
61	111	1
135	137	2
17	18	5
134	135	4
15	17	3
146	147	2
93	136	1
149	150	6
93	94	9
2	2	4
63	63	5
52	52	11
40	42	1
75	76	5
139	139	1
24	27	3
64	65	5
145	145	9
152	152	1
136	136	11
122	127	1
29	29	9
120	120	8
151	152	10
30	30	16
10	14	1
7	8	5
66	74	1
40	41	5
50	51	1
102	102	5
91	93	2
172	173	4
23	23	6
150	150	26
169	169	7
57	57	13
14	14	24
167	172	3
94	102	3
55	55	7
12	16	1
1	5	4
126	129	2
33	36	4
130	161	1
129	129	3
171	171	7
11	13	7
79	79	4
151	151	8
83	85	2
58	102	1
59	59	12
15	16	8
180	180	7
18	19	2
24	24	9
162	162	3
111	113	6
67	68	6
19	20	5
38	39	3
97	97	6
167	168	1
132	132	11
49	49	3
141	142	2
5	7	4
93	93	11
149	149	11
130	150	6
54	55	7
13	21	2
21	21	8
41	42	1
11	44	3
91	92	4
21	22	3
2	4	4
119	120	5
123	162	1
142	144	2
136	172	2
10	42	5
3	7	5
160	160	10
148	148	10
150	164	4
43	43	12
108	108	6
54	54	7
27	29	1
2	6	7
10	28	7
173	174	2
16	17	5
63	135	4
7	11	2
137	137	8
95	95	7
40	40	13
50	50	2
3	3	1
116	117	1
53	54	5
86	86	6
105	107	3
80	84	3
25	25	6
53	55	1
62	62	4
5	9	2
35	40	2
32	32	15
101	102	1
96	96	6
37	90	3
17	17	13
44	53	2
32	39	3
34	34	5
80	81	1
9	13	2
60	60	17
111	111	3
167	167	8
103	103	1
90	91	4
64	85	3
43	44	8
75	75	11
132	133	1
140	141	3
138	138	13
66	71	3
130	162	5
16	42	2
137	140	2
9	44	3
12	13	1
170	171	4
56	56	5
178	178	6
134	134	5
134	176	2
9	10	5
57	59	3
144	145	11
53	53	8
15	20	6
0	1	2
3	9	1
107	107	5
141	143	7
17	43	1
8	11	2
94	96	2
35	37	3
56	57	3
101	126	2
71	78	1
44	60	3
173	175	1
11	11	11
62	63	2
73	75	4
51	61	3
171	176	2
24	28	4
23	25	2
20	86	1
126	130	4
38	40	3
84	85	4
12	41	1
118	128	3
51	51	15
3	44	1
8	9	3
39	39	9
37	38	6
28	33	3
158	158	3
16	44	2
91	94	2
76	76	5
125	164	1
24	32	1
1	2	2
66	68	2
16	24	2
89	89	3
161	162	6
168	175	1
177	179	2
175	176	2
55	57	4
133	141	4
81	82	6
102	115	2
122	123	1
57	144	1
14	29	3
109	109	13
103	105	1
156	157	2
10	61	1
105	106	3
123	126	1
4	4	3
168	171	2
108	110	2
102	144	4
10	11	3
114	142	2
105	105	4
7	22	1
82	82	2
178	179	3
126	127	5
26	27	6
78	78	5
113	141	3
85	85	2
97	98	1
71	73	3
71	71	10
115	125	1
139	143	2
133	135	3
90	95	4
29	30	4
118	120	1
27	30	1
33	34	7
14	39	1
65	80	1
91	91	4
14	21	1
16	31	1
102	103	4
149	167	4
41	43	3
78	90	1
30	31	2
154	157	1
121	123	3
98	109	1
54	57	2
113	114	1
160	163	2
113	124	4
38	42	2
56	64	3
138	139	1
30	44	1
0	14	1
132	174	1
124	125	2
155	158	2
100	100	1
59	146	1
134	136	6
17	19	1
124	124	9
117	121	4
137	139	1
63	64	1
37	39	4
0	55	2
136	175	1
17	60	3
143	144	3
161	161	2
3	15	3
126	152	1
82	107	1
1	54	1
2	5	4
8	8	4
143	149	4
92	94	4
136	140	5
42	43	4
21	70	2
66	66	2
123	123	2
72	73	4
173	176	1
61	88	2
96	97	2
0	34	1
76	78	2
52	89	1
8	20	1
157	159	1
1	3	2
119	131	1
7	9	4
16	43	3
32	33	1
97	100	1
99	101	2
28	28	6
13	14	2
118	147	2
17	37	1
22	40	1
57	60	2
91	105	1
167	174	2
131	148	2
109	110	3
84	84	1
9	15	1
94	94	4
34	35	2
147	148	1
15	18	4
83	84	1
14	17	3
28	29	1
17	44	1
68	68	2
140	145	1
107	109	1
137	138	4
94	140	1
59	61	2
67	71	4
125	153	1
35	38	2
154	154	2
2	7	1
10	44	1
88	89	1
127	128	1
95	96	2
176	179	1
140	142	1
163	164	2
89	102	2
52	77	2
93	111	1
104	104	2
154	170	1
68	74	1
150	172	2
22	23	1
13	13	4
175	179	1
163	163	1
89	95	1
134	137	1
66	89	1
102	106	2
101	107	2
15	30	2
123	150	1
42	45	1
133	134	2
39	45	1
120	124	1
144	144	2
106	107	1
53	90	1
5	6	1
125	128	1
82	97	2
25	26	2
154	155	2
109	117	2
22	24	1
95	134	3
93	95	1
125	166	2
4	10	1
100	104	1
95	98	1
6	30	1
81	81	1
3	5	2
107	108	1
156	156	1
17	42	1
176	180	1
88	90	1
49	50	3
131	145	1
17	39	1
19	86	1
157	157	1
11	38	2
108	139	1
78	79	1
118	123	2
20	23	1
13	37	1
10	13	1
101	114	1
56	59	1
46	46	1
44	45	3
172	176	1
20	85	1
126	153	1
91	96	1
27	28	1
23	29	1
101	106	1
1	10	1
