112	117	4
102	143	3
28	45	3
47	47	15
32	33	14
52	52	23
104	104	34
13	13	16
29	30	8
116	130	4
0	73	6
40	40	10
100	101	8
49	50	2
122	123	5
115	116	4
127	127	13
28	28	19
148	148	28
45	46	6
9	9	15
133	133	16
143	144	7
86	86	19
153	153	12
5	28	1
53	121	4
98	120	2
73	141	4
7	32	3
36	100	3
118	118	9
112	139	4
43	45	3
156	156	22
68	69	2
131	131	25
129	129	15
128	128	17
33	33	18
66	72	3
80	85	1
45	45	19
73	73	25
98	99	4
10	10	5
90	91	13
69	70	4
78	106	3
134	134	15
96	97	5
80	80	18
84	84	11
67	68	5
35	35	11
2	26	9
115	115	39
25	25	21
68	70	2
18	19	16
8	8	6
54	155	5
40	49	3
139	139	9
14	19	8
146	146	8
23	92	2
23	23	26
89	89	10
36	36	26
9	10	5
0	2	2
40	48	4
135	136	6
5	5	15
2	2	21
36	37	9
8	9	9
106	106	14
114	115	1
32	32	12
20	20	17
121	121	12
95	117	7
30	30	16
26	36	1
24	24	27
13	14	3
31	32	11
100	143	3
5	6	4
116	117	13
12	12	33
93	93	7
92	92	14
138	138	15
154	155	6
22	95	2
17	17	24
132	133	4
22	22	21
145	146	13
106	111	1
52	53	14
136	136	9
38	42	1
135	135	18
124	126	6
88	89	8
3	3	11
130	131	8
135	140	6
142	143	2
54	156	6
102	102	9
6	6	10
26	26	11
137	137	17
100	156	2
28	37	3
6	27	3
124	127	8
123	125	2
111	112	6
33	47	3
128	129	8
17	18	8
157	158	5
103	103	14
75	75	22
7	7	19
121	122	12
95	96	11
44	44	15
66	67	3
111	115	3
94	94	19
119	119	13
28	43	2
47	48	16
151	151	17
148	149	5
103	149	2
13	107	2
27	43	2
130	130	27
88	88	3
84	85	2
55	56	1
87	87	17
19	22	3
62	63	2
22	23	5
40	41	6
1	44	6
46	46	19
125	125	8
1	1	15
147	147	20
55	116	4
112	112	7
105	105	15
111	111	5
39	40	12
50	51	3
38	39	10
79	79	19
98	101	1
0	0	14
63	126	2
34	34	7
14	31	8
151	152	1
101	101	23
69	83	3
79	82	5
156	157	4
48	51	1
105	106	8
154	154	5
122	122	20
11	11	6
99	100	13
88	92	2
22	157	4
107	108	6
55	77	4
90	90	21
38	131	2
118	119	15
97	97	15
17	28	5
137	139	6
123	123	2
18	18	8
146	147	9
31	31	6
33	34	7
78	78	5
15	19	3
46	47	13
4	4	5
126	148	1
4	29	2
77	77	10
65	65	8
16	16	8
87	88	8
96	96	21
19	20	3
18	20	3
0	1	13
83	83	7
22	91	3
42	42	17
124	124	5
27	30	2
130	132	4
46	91	4
147	153	1
97	98	6
12	16	2
99	99	23
132	157	5
104	117	9
80	81	18
28	29	7
113	113	6
144	145	6
125	126	2
67	67	2
27	27	11
71	72	4
149	149	6
11	12	8
150	150	17
49	49	4
91	123	2
16	18	4
12	13	3
76	78	2
21	22	9
122	144	3
155	155	16
28	44	4
137	138	14
33	54	2
118	132	1
6	7	7
7	43	1
44	45	12
54	54	5
68	82	2
56	56	1
157	157	18
54	89	1
112	118	2
68	145	3
6	25	1
92	93	4
85	87	2
54	107	5
10	15	3
23	25	1
2	3	8
94	125	4
83	84	4
83	91	3
38	38	2
114	114	9
112	113	5
93	95	8
144	144	13
115	117	1
141	141	8
91	92	13
104	142	4
54	55	8
137	140	4
131	132	7
50	52	4
108	109	12
122	124	5
8	11	2
109	110	4
144	154	2
8	22	5
55	55	7
13	43	2
47	49	3
53	54	6
155	156	1
91	91	7
152	152	22
10	50	3
142	142	12
48	48	11
88	90	2
6	43	2
98	98	5
100	157	5
39	39	14
1	2	14
61	67	1
126	127	4
103	104	1
32	50	3
150	151	3
152	154	2
78	81	2
123	146	3
53	53	5
77	80	1
10	11	7
43	43	16
123	126	2
17	22	6
87	116	4
50	50	8
149	156	2
66	66	6
67	72	1
29	29	14
36	73	1
44	46	1
81	85	1
81	81	14
11	15	3
26	32	1
16	23	1
147	148	1
44	48	1
68	68	7
143	151	3
56	57	1
120	120	7
94	95	6
7	30	1
9	91	3
55	65	2
109	109	6
103	142	1
82	83	5
127	128	2
80	96	6
51	51	13
110	110	6
102	129	1
129	130	3
82	82	10
24	25	3
25	26	2
34	54	3
8	26	3
94	151	3
12	42	3
145	145	10
15	16	3
105	108	3
34	35	5
95	109	3
64	64	5
126	128	1
134	135	5
79	80	16
14	16	1
70	70	6
116	116	9
93	94	8
36	54	2
21	21	17
50	103	6
13	19	6
143	149	2
71	71	5
97	156	2
26	27	4
140	140	10
14	42	1
153	154	3
106	108	5
100	100	7
41	41	7
9	11	2
51	53	3
49	56	1
25	30	2
124	125	10
11	14	2
37	131	2
83	85	5
99	101	3
130	134	8
129	135	1
107	110	1
119	121	6
8	48	3
25	28	1
102	103	4
82	85	3
85	86	1
43	48	8
15	15	9
3	4	6
9	48	2
158	159	1
27	28	6
112	114	2
77	85	5
136	142	2
149	150	3
123	124	3
110	111	3
5	75	1
71	77	1
76	81	2
117	117	21
20	22	5
14	14	10
127	129	8
37	132	3
19	21	1
120	125	4
12	23	1
55	158	1
131	134	2
92	123	2
87	90	1
87	102	3
101	102	3
14	15	7
48	49	3
79	108	4
69	144	2
119	120	1
16	17	5
149	154	4
110	127	2
72	72	8
36	65	4
85	95	1
132	132	5
52	54	1
20	21	1
152	153	2
51	104	1
43	44	2
67	69	2
2	4	3
8	23	2
35	52	4
67	143	2
158	158	5
68	146	1
48	50	4
63	63	4
113	114	1
126	126	6
103	148	1
117	118	2
107	107	12
140	141	3
57	61	2
70	113	2
130	159	1
62	67	2
117	119	2
135	143	2
63	64	1
18	106	2
120	121	5
78	87	1
159	159	2
90	122	1
7	25	1
108	108	4
149	157	1
135	149	1
5	73	1
96	108	2
82	86	2
35	100	2
3	106	1
26	30	4
119	125	2
136	138	1
127	135	5
72	76	1
65	66	5
148	150	3
104	111	3
93	122	1
148	154	2
64	67	2
73	74	1
122	155	2
69	145	2
7	33	7
108	127	1
62	62	2
78	79	2
95	95	6
8	33	1
112	141	3
76	76	4
23	24	9
35	101	1
152	157	2
143	143	2
32	100	1
66	77	3
117	127	2
113	142	2
22	156	1
85	97	2
11	13	4
85	85	1
104	115	2
115	142	4
29	31	1
69	69	2
104	105	4
19	19	1
57	68	3
71	95	2
106	107	12
37	37	2
5	27	1
30	43	2
94	96	1
69	71	2
114	134	1
13	16	3
72	114	1
86	87	2
20	156	1
9	18	1
79	81	3
9	15	1
105	158	1
148	152	2
29	67	2
33	39	1
101	135	1
153	155	3
129	137	1
141	149	2
150	156	2
152	156	2
117	129	1
70	71	2
3	29	3
81	82	2
3	25	6
20	24	1
104	124	1
17	19	1
3	26	1
104	116	1
113	115	3
103	150	2
145	147	2
27	32	3
144	146	1
72	77	2
108	130	2
114	131	4
6	44	1
114	141	1
118	156	1
18	22	2
42	44	1
67	70	1
27	34	2
13	15	3
34	102	1
66	73	1
112	127	1
77	107	1
40	66	1
89	90	3
45	47	2
5	24	1
86	94	1
108	112	1
134	142	3
87	89	1
121	124	1
106	158	1
86	102	1
7	28	2
122	145	1
104	107	1
51	52	1
30	32	1
147	154	1
110	135	1
62	132	1
112	140	1
24	92	1
52	153	1
30	31	1
126	131	2
110	113	1
47	50	1
64	65	1
57	57	1
