93	93	14
72	72	25
48	48	18
10	10	20
36	36	17
28	80	9
66	66	26
33	33	26
95	95	12
65	65	15
34	35	4
75	75	28
121	130	2
111	111	12
23	23	2
42	43	9
98	99	3
88	93	8
81	82	8
8	77	2
101	101	10
25	36	2
29	29	11
83	104	1
61	61	29
74	74	29
4	4	11
20	20	5
87	87	7
100	100	20
6	6	19
99	100	18
70	70	12
37	37	12
8	8	24
19	19	10
45	46	3
67	67	11
11	70	1
18	18	10
97	98	2
63	64	9
34	34	19
90	127	2
68	69	5
71	72	4
44	44	8
71	71	16
113	113	6
78	80	12
55	55	6
80	81	3
78	78	15
19	43	9
47	48	8
27	28	6
98	98	24
129	130	9
11	11	12
2	2	5
119	119	21
98	101	8
12	123	3
3	5	2
5	5	18
129	129	19
73	73	22
94	95	7
20	85	3
104	105	7
59	60	4
84	102	3
94	94	14
7	122	3
134	134	6
104	104	9
31	31	8
99	99	1
9	9	18
30	30	9
45	45	28
47	47	37
60	60	18
29	30	8
81	81	19
128	129	3
78	79	9
19	20	4
110	110	3
8	36	7
116	126	8
46	46	17
15	16	4
31	32	10
8	82	1
22	22	1
96	96	4
118	118	17
59	59	8
121	121	8
8	9	12
14	25	6
3	3	16
14	14	12
62	74	9
122	123	1
25	25	18
84	90	3
85	86	6
88	88	3
2	119	9
132	133	4
106	106	3
9	10	17
124	124	21
89	89	2
93	94	4
108	109	6
63	63	16
116	117	3
95	97	1
90	90	11
26	26	6
78	126	2
12	12	15
94	97	3
122	130	3
36	37	6
24	24	7
2	3	1
110	111	2
63	66	1
27	96	1
105	105	9
43	43	8
16	16	10
6	125	3
83	102	2
64	64	15
82	82	26
103	106	9
127	129	2
6	7	2
35	35	21
109	112	3
123	124	5
76	83	2
32	32	4
4	20	1
122	122	7
128	128	5
110	112	2
13	13	3
77	78	3
76	76	9
28	28	10
21	82	1
81	99	4
46	61	8
16	17	4
17	17	10
17	18	4
15	55	3
15	23	3
27	27	19
86	86	16
126	126	4
40	40	5
25	26	4
49	49	2
14	15	4
21	43	6
116	116	6
38	39	4
34	36	2
26	93	2
57	61	3
125	125	8
18	19	5
115	115	9
119	120	2
41	41	19
92	92	9
47	92	2
57	58	8
132	132	2
40	50	4
93	112	1
62	62	15
23	60	2
78	82	6
78	122	3
98	115	4
84	101	1
84	85	4
73	74	5
123	123	10
74	104	2
82	83	1
8	13	4
83	83	12
32	33	10
12	13	3
112	113	2
101	102	2
68	68	25
112	112	5
102	102	5
11	17	1
8	10	6
7	29	1
121	122	4
80	82	3
56	57	5
42	42	4
57	57	5
4	5	8
114	114	4
75	76	6
35	36	6
69	69	15
4	116	1
117	117	17
74	75	7
40	64	2
13	19	4
13	14	6
66	85	1
37	39	6
120	120	5
63	72	1
108	108	5
46	64	2
83	84	4
63	68	2
77	77	9
29	84	3
14	17	1
61	72	1
65	66	5
39	41	2
131	131	3
79	122	2
92	93	4
32	42	2
81	85	1
90	91	10
21	21	11
75	121	1
17	19	2
7	8	4
15	15	12
79	79	2
36	79	1
78	102	1
16	27	9
44	45	2
80	80	12
8	124	1
21	22	4
85	85	7
62	72	3
123	126	2
34	74	1
67	68	4
19	44	3
5	6	3
40	41	5
30	57	2
57	59	1
24	25	2
109	110	1
34	61	3
46	74	1
133	133	4
5	9	2
10	73	1
20	22	1
22	31	3
66	67	5
10	20	1
106	107	13
9	46	2
93	95	1
16	25	3
86	98	2
6	30	1
115	121	1
14	47	2
60	61	2
97	97	7
94	96	1
60	87	1
50	50	1
7	65	2
0	0	6
26	27	1
33	34	1
88	92	4
45	64	4
46	98	6
39	39	4
26	92	3
96	97	1
28	62	2
27	80	4
36	48	1
90	92	3
11	12	4
111	112	2
1	1	5
127	128	7
20	32	2
11	34	3
87	116	5
34	45	2
27	93	1
19	45	1
106	109	1
38	49	1
45	71	2
36	47	3
9	124	1
84	84	4
10	17	2
64	118	3
109	109	1
59	86	1
77	104	1
124	125	2
40	56	2
11	97	1
70	71	3
86	87	1
88	89	1
73	77	1
4	94	1
79	115	1
103	103	7
20	61	1
90	93	1
75	83	1
130	131	2
72	74	2
13	76	3
25	76	2
38	38	2
26	48	2
63	65	2
86	103	1
3	93	1
45	72	1
109	114	1
39	81	1
10	11	2
79	97	2
87	88	1
72	73	3
100	101	3
131	132	3
115	116	1
18	45	4
25	33	1
3	119	1
21	84	2
91	100	1
28	45	2
107	108	1
39	40	1
17	28	3
44	47	1
12	47	1
113	125	1
61	74	1
92	94	1
97	99	2
4	19	1
20	37	1
20	43	1
46	60	1
75	89	1
14	42	1
11	35	1
133	134	1
16	28	4
95	96	1
69	70	1
90	100	1
96	115	2
118	119	1
27	97	2
28	32	1
126	127	3
30	33	2
15	43	2
120	121	2
110	113	1
105	107	1
46	100	1
21	83	3
93	108	1
111	128	1
114	116	1
28	29	1
20	62	1
93	126	1
114	115	1
64	65	2
23	74	1
91	92	1
127	127	1
7	121	2
56	56	1
46	47	4
0	66	1
39	55	1
77	79	1
78	83	1
47	83	1
37	41	1
30	31	1
86	99	1
93	134	2
19	55	1
20	29	2
21	36	1
62	98	1
61	76	1
32	36	1
51	55	1
7	7	1
3	4	1
123	125	1
10	74	1
112	114	1
55	95	2
102	103	1
28	30	1
20	44	2
113	114	2
4	18	1
55	57	1
5	26	1
77	83	2
43	44	1
11	93	1
47	93	1
25	93	1
113	128	1
130	130	1
5	45	1
