47	48	2
27	27	17
119	119	4
101	101	10
68	68	18
93	98	6
11	93	12
7	7	11
82	82	11
28	97	7
17	17	10
17	35	1
91	116	3
10	38	2
21	55	3
95	121	1
86	86	10
3	101	8
10	10	18
85	85	11
115	115	8
25	48	4
15	22	1
84	84	4
88	93	2
72	73	4
62	62	11
75	76	4
47	47	23
27	100	4
40	40	6
7	26	2
66	66	19
76	77	5
39	39	1
78	107	3
27	60	2
12	63	2
74	74	5
82	83	10
28	28	20
65	67	1
20	21	10
122	123	4
14	30	4
26	26	11
99	99	3
59	59	10
8	8	6
77	125	3
5	21	6
43	45	2
10	73	4
113	113	2
46	61	2
105	105	2
88	89	3
98	98	6
111	112	4
21	21	9
61	61	5
45	89	3
109	110	1
81	81	8
58	59	4
85	86	4
30	40	1
126	133	3
11	12	14
64	64	7
91	93	2
56	57	3
17	64	4
43	43	8
117	117	11
31	31	17
79	81	4
45	45	12
121	121	4
70	70	5
16	55	2
97	97	22
9	46	7
103	103	7
104	105	2
109	109	1
17	18	3
41	58	2
75	75	16
108	108	3
39	40	4
96	96	2
113	114	1
20	58	3
48	48	4
88	88	7
13	16	2
129	129	2
76	76	12
41	41	2
23	24	9
4	8	3
103	104	2
1	1	5
92	96	1
40	57	5
34	113	3
14	14	12
121	133	3
25	47	2
97	99	3
6	26	2
10	12	2
34	76	6
128	129	4
32	32	8
122	122	4
79	79	6
24	46	3
5	5	11
60	60	10
24	25	2
27	91	3
96	121	2
102	102	7
9	9	8
38	45	2
95	95	8
10	11	9
21	22	2
35	82	2
58	58	4
94	95	6
56	56	8
78	78	5
35	36	6
57	110	3
107	108	3
73	73	14
63	77	3
7	27	2
14	91	1
44	44	4
22	30	2
60	74	2
31	32	1
69	70	1
90	90	10
46	46	9
39	43	4
79	103	1
134	134	6
71	117	2
28	47	1
72	72	6
29	29	6
35	74	1
35	75	1
94	94	9
36	37	5
15	15	7
51	115	1
95	100	1
12	12	15
27	84	1
6	6	7
4	4	5
5	20	5
117	131	4
20	20	2
13	14	3
11	59	4
34	34	7
48	71	2
32	76	3
62	65	2
2	2	9
30	34	2
125	125	1
79	111	1
5	101	3
91	100	5
83	83	7
33	82	2
63	63	8
126	131	3
111	113	2
4	26	1
62	101	4
106	106	5
93	93	8
13	13	6
54	115	3
19	20	6
99	100	2
29	30	4
89	106	2
32	48	3
87	88	2
10	37	6
61	119	2
42	43	4
104	107	1
100	100	6
4	114	1
94	99	1
45	77	7
117	121	3
91	102	2
26	37	2
105	127	2
120	120	5
94	134	1
29	49	1
10	112	5
9	10	3
20	76	1
42	42	8
76	83	2
33	33	8
13	20	2
114	122	2
47	94	4
22	22	4
101	102	4
31	48	4
3	102	4
49	72	6
59	120	2
27	28	6
46	47	3
8	11	2
57	57	6
11	94	2
31	82	1
65	65	4
80	80	1
59	76	1
4	6	3
92	103	3
81	82	1
9	23	3
77	77	4
116	116	5
18	21	1
11	13	2
92	92	5
39	41	3
90	92	4
67	67	2
131	133	1
1	2	2
21	58	5
42	87	4
16	20	3
78	79	5
4	5	2
45	71	2
131	131	5
36	42	2
67	68	1
3	6	3
12	75	1
110	110	1
71	77	2
104	116	3
107	114	1
35	76	1
61	62	4
47	61	3
24	24	3
28	91	2
113	123	1
74	75	1
7	55	1
70	78	1
100	101	3
32	33	5
10	14	1
128	128	3
35	35	8
80	89	1
130	130	2
8	10	4
112	114	1
90	97	2
104	104	5
8	63	1
5	29	1
97	98	2
70	119	2
31	81	1
114	114	7
116	117	1
108	109	3
51	87	2
64	68	1
61	102	1
133	133	4
80	83	1
29	31	3
23	23	3
15	110	8
45	84	1
18	18	4
92	131	3
11	11	1
11	26	1
36	36	3
14	23	2
55	56	1
61	72	4
73	74	1
24	74	2
26	90	3
63	71	2
16	21	2
21	91	3
43	87	2
12	25	1
15	16	5
22	26	1
71	71	3
126	126	7
48	81	1
37	49	1
59	122	1
87	87	7
84	85	3
43	56	1
30	30	1
7	15	2
57	58	1
63	70	1
43	60	2
91	91	3
130	131	1
13	32	2
36	44	3
117	130	1
54	98	1
106	127	2
33	55	1
81	92	3
112	113	1
118	118	3
64	65	3
68	69	1
61	67	1
77	78	1
121	131	1
3	3	4
26	83	1
45	80	1
18	126	1
26	27	2
3	4	1
43	47	1
19	19	4
20	110	1
10	107	2
70	71	1
80	81	1
32	81	1
37	37	1
38	38	1
131	134	1
112	112	4
77	99	1
7	96	2
56	84	1
7	25	2
25	25	3
56	81	1
124	124	3
44	60	2
38	39	1
21	84	1
66	83	2
17	74	2
98	100	2
79	116	1
55	55	2
104	113	1
60	82	1
61	71	1
10	82	1
57	59	1
4	13	1
11	14	1
36	59	3
24	83	1
33	49	1
23	38	1
85	133	1
133	134	1
11	92	1
121	132	1
69	69	1
3	35	1
63	78	1
0	0	1
8	46	1
82	91	1
29	60	1
