157	157	9
33	34	7
125	125	12
12	13	8
52	61	1
14	20	1
100	100	16
36	36	9
110	112	1
16	16	19
129	129	15
101	101	16
75	75	16
38	153	3
142	142	15
114	114	14
31	52	3
111	111	11
139	151	1
14	15	7
122	146	2
84	84	15
117	117	20
54	55	3
15	46	2
35	35	9
69	69	19
104	131	3
10	10	10
127	127	10
94	94	15
50	51	5
41	77	1
52	54	6
30	32	4
1	2	1
41	68	3
124	126	13
89	90	8
104	104	7
138	140	1
33	33	7
20	25	6
123	123	13
113	113	15
147	147	10
90	149	7
6	6	14
31	43	1
36	37	12
19	19	9
81	81	19
113	121	5
38	38	23
136	136	10
39	41	2
116	116	20
79	91	1
49	154	1
90	90	7
85	89	1
14	21	1
40	40	12
77	88	4
138	138	15
48	48	9
39	96	3
49	68	4
82	85	4
120	120	8
82	82	7
119	120	12
80	80	17
87	88	3
56	142	5
139	140	11
25	42	1
68	70	4
80	82	4
145	145	9
41	41	7
42	43	1
133	156	3
2	65	3
73	73	17
45	156	1
141	145	3
7	8	5
85	85	8
140	141	3
46	46	25
132	133	5
117	119	2
104	105	2
90	95	2
124	124	10
138	139	3
98	112	2
128	128	6
34	35	10
26	26	11
16	19	2
114	116	9
132	132	17
28	28	20
23	23	4
69	96	3
145	146	9
107	108	2
146	146	5
68	89	2
111	117	2
95	96	7
15	16	5
78	78	15
71	71	8
127	143	4
86	156	3
93	125	2
37	37	14
86	146	1
79	80	12
28	29	4
129	130	8
31	68	6
148	148	6
86	86	5
143	143	3
51	52	2
4	4	24
135	135	13
18	33	2
109	109	14
43	43	8
47	47	8
122	145	1
141	146	4
38	71	4
24	24	7
49	81	3
55	95	3
38	42	3
72	72	5
105	105	9
118	141	2
89	89	8
50	50	13
137	137	6
140	142	3
136	137	2
64	64	10
54	54	13
0	0	17
83	85	4
115	116	10
21	21	13
21	22	10
5	6	3
151	152	6
158	158	4
49	77	8
155	155	18
99	100	3
42	42	16
48	80	3
125	127	8
113	114	5
119	119	19
56	56	2
112	112	19
106	108	5
77	77	17
20	20	15
9	10	3
48	52	5
17	19	2
94	98	3
26	52	2
96	97	7
35	38	6
78	92	2
37	43	2
1	1	17
45	46	2
125	126	4
35	48	3
70	70	13
151	157	2
99	99	10
25	28	1
69	153	3
22	43	1
29	37	6
51	51	25
112	122	10
27	27	2
20	22	11
35	49	3
151	151	9
72	73	2
96	96	8
63	147	2
85	121	1
3	4	2
43	48	2
29	30	4
70	71	3
65	68	2
98	156	6
26	28	5
72	135	3
44	44	18
15	15	8
33	127	3
84	153	4
120	129	3
44	46	5
148	159	1
88	121	7
2	2	7
2	44	1
30	30	9
39	154	2
108	143	1
92	92	5
50	53	5
57	62	7
93	94	2
107	109	6
63	63	8
8	8	20
44	45	6
120	121	5
131	133	8
75	93	4
106	107	2
113	117	6
31	64	4
110	134	6
68	68	12
18	18	12
133	133	13
48	69	5
42	78	4
5	5	12
92	113	1
154	154	4
39	39	5
67	158	3
112	147	3
34	34	11
83	87	4
116	119	1
33	67	1
52	68	5
11	29	1
90	94	5
104	133	1
67	67	12
10	11	2
23	24	14
126	127	6
62	98	2
57	71	4
91	91	15
126	126	15
39	79	2
113	115	3
40	79	2
69	85	2
149	151	1
8	46	3
90	98	1
31	35	7
95	97	4
150	150	14
77	92	3
130	130	22
86	111	1
84	86	1
103	103	6
13	14	9
32	39	1
25	25	12
145	147	5
33	44	2
63	64	2
17	17	19
95	95	3
97	98	3
31	31	12
152	154	1
147	155	7
64	76	1
63	158	2
153	153	7
140	140	12
56	76	2
55	81	11
1	75	1
19	20	7
155	157	2
137	138	7
3	3	14
39	90	2
123	145	1
4	46	4
42	67	6
49	49	11
4	14	1
64	80	1
32	32	4
29	29	5
141	141	15
110	110	19
24	29	1
85	154	2
106	110	1
77	78	4
116	117	6
31	66	2
2	130	3
67	69	5
131	131	5
130	134	2
140	155	6
32	77	1
87	89	1
5	26	4
18	34	1
16	17	8
55	55	6
149	150	3
40	41	2
123	124	8
131	132	9
48	49	2
38	47	2
137	139	2
83	155	2
122	122	7
118	118	6
96	120	1
40	82	6
33	54	2
71	136	1
66	135	2
38	39	5
87	87	13
33	78	2
102	102	4
77	79	1
11	39	7
124	127	9
118	136	3
70	154	10
117	120	1
93	93	5
57	57	10
87	148	2
107	136	3
93	95	2
36	41	3
147	154	3
132	136	4
52	52	5
37	38	2
144	152	5
124	125	6
83	149	4
42	71	2
100	101	6
80	81	4
11	11	14
121	121	4
30	42	1
66	118	1
81	93	2
133	157	1
69	70	4
32	78	4
107	107	9
47	65	2
36	43	2
39	71	2
152	152	8
148	149	2
142	147	3
86	154	3
68	76	3
35	42	2
53	53	7
82	143	1
26	30	4
122	123	4
39	117	4
132	150	3
48	71	8
87	96	1
79	83	2
31	45	2
72	80	1
22	22	12
106	106	6
10	12	1
109	111	4
63	71	1
89	147	1
83	143	3
111	112	8
113	148	1
51	56	1
48	75	2
106	111	5
31	50	1
112	139	3
97	145	4
149	149	4
67	71	3
103	104	5
45	45	4
27	54	3
98	158	1
51	78	1
79	82	2
81	82	4
98	149	1
79	90	2
141	155	1
64	70	4
66	73	5
24	25	7
115	115	12
75	106	2
121	141	3
156	156	9
105	151	2
7	17	1
120	136	1
13	15	6
72	133	4
64	88	6
38	96	1
133	134	8
139	139	13
81	90	1
97	97	5
39	77	2
3	68	3
66	132	3
86	155	1
15	47	1
144	144	1
115	118	3
85	87	1
121	122	6
11	27	1
90	91	3
97	141	3
17	18	4
114	118	1
88	88	9
112	113	5
83	91	1
18	20	3
79	79	9
65	66	3
68	147	2
5	23	1
20	21	7
103	133	3
84	117	1
0	2	3
101	129	2
8	12	5
98	98	8
49	56	1
47	48	5
18	19	1
31	32	9
32	44	2
81	155	1
3	66	1
84	150	1
133	150	2
131	141	2
52	122	3
69	88	3
77	80	1
108	108	7
25	72	1
141	144	1
6	14	3
73	157	1
148	152	1
141	147	5
40	48	1
92	120	3
25	37	3
33	126	1
143	147	3
51	53	1
89	95	3
67	133	2
95	118	3
48	78	6
111	141	1
84	87	1
155	156	3
49	145	2
142	144	2
7	9	1
11	12	2
41	44	9
28	37	2
46	151	1
36	44	2
86	87	6
37	41	1
128	129	2
17	26	1
119	136	3
85	90	5
134	135	1
19	22	1
98	132	5
86	120	2
85	86	1
135	137	1
12	12	7
133	136	4
66	72	1
22	23	4
82	142	1
41	65	2
69	71	1
83	83	5
39	91	1
4	5	3
62	62	9
50	142	1
26	27	6
29	34	3
41	72	1
120	134	2
66	68	2
123	126	2
89	122	3
45	47	3
112	144	1
148	154	3
62	63	2
99	130	1
25	65	1
39	40	1
90	116	3
56	71	3
57	66	2
49	78	4
110	125	1
63	141	1
11	13	1
2	5	1
115	119	4
12	16	1
86	145	4
140	147	1
33	47	1
61	67	3
78	79	5
89	141	1
63	146	2
8	15	1
23	25	3
37	48	1
31	80	1
95	157	2
37	70	2
7	7	5
3	14	1
9	9	6
86	153	1
68	144	2
135	157	1
92	154	1
33	79	2
69	134	3
80	134	3
14	14	10
34	42	2
86	117	4
31	42	1
25	52	4
82	95	3
25	51	2
107	113	1
51	57	2
94	130	1
39	85	3
47	75	1
31	34	3
40	88	1
34	47	1
83	97	2
63	83	1
95	120	2
112	154	1
97	140	2
144	145	1
30	31	2
52	53	1
107	110	1
36	40	1
34	52	1
46	47	1
90	105	2
78	80	1
76	77	4
39	72	2
112	117	2
4	26	2
17	93	1
110	111	3
113	118	1
41	153	4
83	84	1
38	43	2
133	135	1
152	155	1
138	155	2
39	153	1
135	136	3
69	154	2
8	9	4
0	44	1
153	154	3
30	80	2
13	16	4
110	124	1
48	79	1
154	155	1
107	114	1
43	71	1
42	69	2
62	96	1
95	112	1
21	27	1
72	96	1
80	130	2
66	66	3
74	75	1
124	143	2
52	56	2
0	1	1
19	52	1
23	56	1
65	92	1
33	52	2
112	114	1
134	134	8
88	148	3
24	26	1
4	77	1
86	140	1
53	67	2
63	69	1
105	119	1
155	158	2
157	158	3
62	145	1
83	86	1
146	147	2
94	115	1
9	127	1
121	136	1
83	90	2
27	28	3
84	92	1
132	135	3
36	38	1
45	131	1
158	159	1
118	120	2
84	85	2
20	43	2
40	46	1
50	67	2
108	111	1
26	127	1
23	128	1
138	147	1
119	133	2
69	156	3
63	122	4
34	127	3
62	147	3
48	156	3
29	50	2
67	142	1
32	53	2
2	74	1
38	50	1
141	142	1
122	142	2
25	68	1
41	91	1
97	138	1
4	51	2
86	118	2
2	4	1
132	139	1
127	138	1
49	55	1
112	148	1
13	17	1
64	79	2
11	15	1
21	50	1
105	107	2
61	71	1
98	150	1
110	141	1
33	125	1
31	71	1
144	147	1
67	132	1
43	44	1
16	20	1
13	13	1
37	69	3
31	77	3
22	80	1
32	38	2
68	69	3
84	96	1
68	71	3
51	108	1
47	150	1
20	41	2
84	90	1
121	123	1
67	68	1
50	63	1
26	29	1
19	38	1
145	153	1
38	70	1
41	81	2
131	155	1
112	141	1
81	156	1
93	105	1
66	133	2
108	109	3
131	154	1
37	153	1
2	3	1
115	117	1
116	118	1
106	134	1
52	55	2
55	76	1
80	90	1
121	145	1
114	115	2
33	89	1
49	87	1
15	17	1
8	10	2
48	57	1
152	157	1
105	106	1
97	131	1
112	131	1
45	68	1
7	145	1
14	28	2
94	95	1
65	65	1
27	29	2
64	90	1
122	124	2
33	69	1
91	98	1
69	89	1
41	43	1
85	118	1
25	26	1
96	156	1
58	58	1
3	42	1
120	131	1
118	144	1
91	92	2
