55	55	20
59	59	27
87	89	4
91	91	21
69	70	14
76	76	24
51	52	13
54	79	6
53	53	9
54	55	15
81	81	24
95	96	11
100	100	11
87	87	11
93	93	16
48	49	2
24	24	7
51	51	15
74	74	27
34	34	12
89	89	21
44	44	20
20	32	9
66	66	20
33	33	12
77	77	17
60	81	3
72	85	4
64	64	37
45	49	2
37	38	3
85	85	15
97	97	23
96	96	18
57	57	18
99	100	5
63	63	24
94	94	17
86	86	13
73	102	4
102	102	4
35	39	3
79	82	6
79	79	13
54	73	1
47	47	19
41	42	6
92	97	3
42	42	11
92	93	4
88	89	11
24	25	6
101	101	11
69	69	4
53	55	5
67	68	6
43	43	30
65	66	7
47	48	5
54	54	24
56	56	20
49	49	32
52	52	22
72	74	8
90	90	16
92	92	15
83	83	23
98	98	16
88	88	19
73	73	19
67	67	30
50	51	4
91	92	9
73	74	17
46	46	20
60	60	27
81	92	3
65	83	2
28	28	4
58	59	10
75	75	11
95	98	4
86	87	9
35	45	5
72	76	5
77	84	2
78	79	6
80	87	3
41	41	19
83	84	10
62	62	14
72	72	8
68	69	5
99	99	18
31	31	11
29	29	6
43	44	6
50	50	14
41	50	3
86	88	5
64	65	3
78	99	5
79	97	4
39	40	8
93	95	4
76	85	3
48	74	5
51	53	2
58	58	22
42	43	6
36	36	10
61	61	17
71	71	13
24	27	6
64	80	4
26	26	10
57	60	3
55	57	3
55	91	2
38	38	14
86	89	8
35	38	6
32	53	2
95	97	6
23	23	6
34	46	1
37	37	13
60	62	1
24	29	3
62	91	3
78	78	19
45	45	7
72	73	6
22	22	3
25	26	4
72	77	3
62	63	3
62	74	2
49	50	7
84	84	10
77	85	2
48	48	11
35	51	1
53	57	2
70	80	6
32	33	2
41	68	1
99	102	5
87	88	3
43	45	2
60	61	3
85	86	3
99	101	3
63	64	4
80	80	10
84	94	2
39	39	19
90	91	3
79	95	3
93	94	4
94	96	3
78	80	4
38	39	1
50	57	2
46	47	13
87	101	1
96	97	2
78	84	2
82	84	1
89	90	2
95	95	7
34	71	4
75	78	2
35	35	7
50	68	3
66	67	4
20	22	2
82	87	3
35	36	4
34	92	3
100	101	2
80	81	12
79	80	4
30	30	1
26	27	3
94	98	4
93	98	2
63	78	6
61	91	2
34	59	3
40	43	2
68	68	9
76	77	1
30	31	4
70	70	5
51	58	3
81	101	2
70	78	3
40	40	8
39	51	1
75	76	1
44	45	2
46	52	1
20	47	2
57	58	9
86	94	8
36	37	4
95	101	2
42	44	4
52	83	4
61	62	2
77	99	1
69	75	1
71	99	1
65	65	9
47	49	4
25	28	4
56	58	1
63	83	1
76	95	5
89	91	2
54	81	3
32	32	3
30	43	2
61	83	1
31	41	3
35	37	2
80	84	5
81	82	8
81	88	2
88	93	1
33	34	2
94	95	1
25	25	5
27	27	5
56	57	5
30	39	1
90	99	2
48	71	1
60	100	1
70	75	2
98	99	1
62	101	2
96	101	2
97	98	5
59	72	1
78	98	1
82	82	3
44	51	1
68	73	1
33	91	1
22	25	1
52	64	2
52	56	3
52	53	1
83	95	1
97	100	1
92	98	2
36	38	2
52	55	2
62	69	2
42	71	1
88	100	2
34	35	1
81	83	1
60	101	1
46	51	2
80	96	1
46	48	2
31	33	1
23	29	1
26	37	2
77	94	1
50	91	1
61	68	1
55	58	1
89	99	2
42	64	1
43	49	1
73	90	1
68	75	1
60	96	1
42	56	2
25	27	1
58	61	1
24	26	2
84	95	1
