13	31	3
82	82	9
136	136	17
13	13	24
79	80	15
98	98	22
7	7	19
128	128	35
93	94	10
24	25	9
89	89	24
75	118	3
3	3	11
5	6	6
111	111	29
28	28	19
1	1	20
90	90	12
113	113	15
31	32	3
124	124	42
86	88	2
83	84	10
86	121	3
77	121	2
104	104	17
78	78	23
101	101	11
0	0	9
83	83	11
132	132	47
86	86	7
37	37	22
17	17	25
118	118	15
17	18	6
81	81	20
103	103	17
20	20	33
109	109	31
98	99	2
32	36	2
77	84	5
81	118	3
23	26	4
5	5	9
80	80	17
108	109	9
78	120	9
15	15	10
122	122	22
77	86	5
35	36	13
140	140	12
26	26	13
34	34	24
36	36	12
102	107	3
88	110	2
16	16	26
87	120	2
128	129	6
24	26	5
12	12	4
8	8	11
112	112	24
29	29	12
125	125	15
126	127	2
73	76	5
102	102	21
119	119	19
87	139	2
118	119	10
84	118	8
117	117	22
38	38	13
14	15	5
35	35	29
7	8	8
129	129	11
33	37	1
111	118	3
4	4	15
3	4	15
93	139	1
6	6	11
2	3	4
120	120	13
111	112	6
17	22	2
129	130	11
114	115	3
73	73	11
134	135	6
134	134	24
127	127	24
108	108	13
90	91	6
109	112	1
14	32	2
112	121	4
30	31	4
110	110	43
14	14	11
133	133	28
99	99	14
133	134	7
72	72	14
126	126	23
76	120	7
31	127	3
79	79	17
75	117	2
117	118	10
11	32	3
90	124	2
10	26	2
78	86	3
6	7	3
130	130	19
107	107	11
79	140	1
21	21	13
121	121	34
2	2	7
34	35	1
13	19	1
100	100	14
27	27	22
87	87	21
9	24	2
33	35	4
137	137	26
139	140	8
102	103	1
85	86	2
94	94	16
84	84	23
133	136	1
80	115	4
15	16	2
139	139	14
122	123	10
108	123	2
3	15	1
109	110	2
138	138	24
80	118	6
84	85	7
31	31	16
115	115	22
116	117	8
11	13	2
10	10	14
0	3	3
0	1	6
96	96	13
135	136	7
30	30	12
114	114	33
72	76	3
20	21	1
86	118	1
96	135	2
116	119	4
116	116	13
88	88	27
19	44	2
109	120	3
22	24	9
85	120	5
25	25	13
9	9	12
135	135	16
131	131	30
15	20	3
92	92	11
33	33	7
22	22	7
4	5	9
24	24	4
74	74	17
75	110	1
105	107	2
94	109	2
88	103	3
81	82	9
13	30	1
121	122	11
89	90	6
71	80	2
96	123	1
95	95	14
93	93	7
127	134	1
83	120	1
27	28	5
105	122	5
23	23	12
85	121	1
105	106	6
91	91	15
11	31	2
98	131	6
85	119	2
110	116	3
72	73	2
25	26	6
74	75	5
32	33	3
110	111	10
107	111	3
95	100	1
78	85	4
28	32	2
88	116	7
28	29	2
94	95	2
29	34	3
77	118	3
71	71	14
131	132	11
103	108	2
16	17	8
97	139	2
75	75	13
85	85	17
122	125	3
73	74	3
12	32	4
78	82	10
87	88	3
137	138	5
89	93	2
5	11	3
21	30	1
92	93	2
97	99	1
1	2	6
13	14	6
30	36	3
29	32	4
9	14	4
107	112	2
117	119	1
102	105	4
18	19	2
75	76	4
123	124	11
115	122	1
77	79	3
26	37	2
123	123	15
105	105	8
104	105	8
30	35	2
82	85	3
124	125	4
34	36	1
99	138	4
123	128	5
100	124	1
83	85	6
97	97	9
86	113	3
92	94	1
0	2	3
111	114	1
74	135	1
75	77	4
77	77	5
92	104	3
78	123	1
27	38	1
43	69	1
95	140	4
83	121	2
88	105	2
96	107	3
14	23	1
7	9	8
74	114	4
124	127	1
21	22	7
91	123	3
78	83	5
100	101	4
10	14	3
80	81	3
102	121	1
116	127	4
113	120	3
8	24	1
3	5	2
108	111	3
32	32	3
10	24	1
101	103	2
19	19	8
89	95	1
74	111	1
25	37	4
76	76	5
79	115	1
28	38	1
8	9	7
12	21	1
104	106	6
80	120	1
92	123	2
93	136	2
37	38	4
95	123	2
102	123	1
71	73	2
99	100	2
19	20	3
77	83	2
112	123	5
81	115	1
25	34	2
99	124	1
13	32	1
86	140	2
8	30	2
129	135	4
74	136	1
101	102	4
88	89	3
11	11	5
86	122	1
9	23	1
26	33	1
2	9	2
29	31	5
89	94	3
106	106	2
13	15	3
25	27	1
12	14	1
5	12	2
29	30	3
10	22	1
106	130	2
18	18	3
119	121	1
81	86	1
119	132	2
97	124	1
110	123	1
10	11	5
81	85	1
89	116	1
17	19	1
128	130	1
105	120	1
3	14	2
14	19	1
11	24	2
15	17	2
5	7	2
7	27	2
82	118	2
82	83	1
2	7	1
10	12	1
130	131	2
112	115	2
6	27	2
92	122	1
127	128	1
134	136	1
92	105	1
10	13	2
26	27	1
8	26	2
95	139	1
113	117	1
84	113	3
79	86	1
113	114	1
96	97	1
106	107	2
75	86	1
84	86	1
3	11	2
78	79	1
74	110	1
89	96	1
89	110	1
95	105	1
6	15	3
113	121	1
86	111	1
75	120	2
88	97	2
71	72	2
112	120	1
17	33	1
86	137	1
22	23	1
73	75	1
138	139	1
126	138	1
72	74	1
72	132	2
79	85	2
78	109	1
127	138	1
74	112	1
81	120	1
8	25	2
38	39	1
109	116	1
107	108	2
130	132	1
114	116	2
132	135	2
96	98	1
21	87	1
9	44	1
80	117	1
75	114	1
97	98	2
76	77	1
