101	101	8
151	151	3
74	150	6
97	102	1
99	99	4
20	21	8
53	53	7
160	160	5
92	92	4
48	48	5
39	45	3
163	163	7
107	110	4
66	66	1
46	46	10
78	78	6
130	130	7
9	10	6
10	10	4
148	149	1
106	110	2
144	144	8
5	5	9
37	40	3
73	87	1
17	26	1
89	89	5
0	1	6
82	84	2
13	13	7
134	134	4
19	22	3
125	125	5
113	114	4
135	163	2
147	148	2
39	39	4
34	34	4
0	0	2
85	124	3
69	69	10
44	44	2
66	69	4
22	22	3
132	132	7
20	20	7
85	85	3
131	131	7
15	15	5
119	140	2
155	156	7
26	26	3
28	154	2
124	124	1
154	154	2
52	52	7
166	167	2
20	35	4
76	76	1
119	119	3
141	141	1
3	3	3
38	38	3
94	99	1
10	83	7
74	90	1
9	97	5
20	43	5
112	112	2
75	75	9
24	24	7
63	63	6
104	104	3
55	56	1
136	163	2
138	138	5
49	49	3
69	90	4
127	129	1
169	169	1
56	56	1
96	158	5
104	135	3
40	40	5
157	157	6
153	153	7
145	145	3
64	65	3
12	13	1
99	100	4
146	146	4
64	64	2
170	170	3
65	65	6
25	44	3
1	2	1
14	14	9
142	142	4
43	43	4
71	71	3
23	23	2
90	94	2
74	76	3
139	139	6
123	124	2
2	2	2
86	122	2
112	143	3
57	57	10
107	108	3
19	64	2
91	93	3
62	63	2
101	112	2
68	68	5
96	98	3
38	40	3
53	54	2
90	90	4
57	67	3
114	115	4
107	107	3
94	95	4
20	23	3
17	112	1
35	35	4
36	36	6
11	11	3
116	124	3
105	105	3
142	143	9
99	110	3
79	146	1
140	140	6
63	76	1
55	55	5
91	92	1
120	120	1
143	151	1
161	164	2
148	148	3
113	136	3
118	118	2
41	41	5
75	158	3
87	87	5
19	19	7
77	78	1
88	111	3
110	127	1
106	106	4
90	91	6
116	123	3
95	117	3
114	114	3
13	38	4
146	147	2
110	110	4
167	167	1
121	122	4
56	141	2
128	128	5
164	164	2
130	131	3
81	111	4
16	16	3
165	166	1
75	76	2
96	96	8
74	74	2
98	99	3
96	99	1
19	108	1
16	114	2
165	165	3
15	17	4
24	25	1
45	108	2
18	18	3
69	72	4
116	116	2
4	82	1
86	87	4
45	144	2
149	149	4
79	79	2
45	62	1
22	23	4
23	62	2
100	103	1
39	41	1
45	45	5
45	47	1
28	28	3
21	170	2
71	72	1
101	126	1
7	7	1
130	132	1
82	98	1
45	72	1
97	97	3
6	7	1
37	43	1
15	23	1
9	9	3
112	144	1
117	130	1
126	127	1
126	126	4
129	130	1
21	22	3
101	102	1
6	6	4
155	155	4
150	151	1
88	88	3
91	91	5
92	94	2
163	167	1
79	85	1
80	80	2
21	23	3
19	25	1
14	101	1
82	82	3
134	140	1
62	62	1
108	108	3
113	147	1
122	123	1
7	15	1
36	38	1
69	70	1
56	97	2
8	8	1
74	75	1
115	115	2
65	66	5
25	26	1
109	110	2
8	66	2
83	83	2
12	126	1
55	81	1
85	86	1
163	168	1
42	42	2
103	127	1
64	71	1
121	121	2
80	82	1
64	69	1
35	135	1
15	16	3
53	55	1
46	108	1
4	5	1
20	22	1
98	98	2
103	103	2
52	110	3
43	110	1
18	20	1
96	101	1
133	133	1
20	24	1
19	24	1
76	79	1
111	111	1
73	92	1
125	126	1
112	113	1
158	167	2
150	150	1
42	64	1
115	136	1
108	109	1
135	143	1
51	52	1
97	150	1
129	129	1
1	165	1
70	70	1
162	164	1
