167	167	16
151	152	5
128	130	2
19	21	5
163	170	4
70	70	5
62	62	6
129	129	3
124	127	1
165	166	2
39	86	6
9	10	5
169	172	1
144	144	9
47	48	1
111	111	8
53	53	3
36	36	1
38	81	4
4	5	4
180	180	12
130	134	2
170	196	3
176	179	4
159	159	7
122	122	6
5	9	1
135	135	6
147	149	2
117	118	1
179	179	7
116	116	9
176	180	1
154	154	2
107	107	4
59	59	5
127	127	7
183	183	8
67	68	1
172	172	8
132	134	1
162	165	5
153	158	2
156	157	6
109	109	7
79	79	6
71	71	8
171	197	2
31	31	6
62	65	1
188	190	5
1	1	5
155	155	10
24	66	1
186	186	3
157	158	8
165	169	5
40	40	4
69	71	4
29	29	4
156	156	5
99	112	3
165	165	3
188	188	8
26	26	7
24	24	9
11	17	4
132	132	2
191	192	4
0	1	1
18	28	1
151	151	7
155	160	3
146	148	2
19	20	3
23	23	6
117	119	4
69	69	5
98	98	2
21	192	1
112	112	5
129	170	2
171	171	7
15	57	1
73	73	3
136	138	2
158	159	3
192	192	8
164	164	6
48	48	2
20	20	7
12	18	1
38	38	6
126	126	7
57	58	1
28	28	3
44	44	5
134	182	1
124	124	5
2	6	1
133	134	5
183	196	3
169	169	8
0	43	3
185	186	7
174	177	3
15	17	4
145	146	4
33	33	3
119	119	8
161	161	1
195	195	6
67	69	2
196	196	7
168	169	4
123	123	6
137	142	2
95	95	3
143	143	1
152	152	9
27	27	4
44	46	3
99	99	8
118	118	2
103	104	2
5	5	1
141	141	3
0	0	8
162	164	4
144	160	2
29	32	3
146	147	2
140	140	11
8	19	2
4	4	3
166	166	2
131	132	6
132	179	2
122	180	2
177	177	5
10	10	2
176	177	4
64	65	3
60	60	1
134	134	1
95	96	3
175	175	9
121	121	4
8	9	1
65	65	6
100	100	9
64	75	1
177	178	3
9	36	1
170	170	4
33	85	1
156	158	1
145	161	3
85	85	6
122	123	2
102	102	5
22	186	1
174	175	5
158	165	2
167	168	3
83	84	5
132	182	1
30	30	1
181	181	4
39	169	1
88	93	3
118	131	2
161	174	3
97	173	3
95	147	2
190	197	3
128	170	1
133	197	1
77	82	2
45	53	3
168	168	5
188	189	1
23	78	4
94	107	2
167	172	5
187	187	1
172	184	2
138	139	3
96	97	3
54	55	5
193	193	4
9	9	8
137	137	4
130	131	3
72	72	3
158	160	2
110	116	2
128	128	1
41	167	2
47	47	3
154	155	3
113	113	3
99	114	2
134	170	1
150	150	11
115	123	2
100	171	1
100	101	6
6	6	5
5	7	6
174	174	5
123	124	1
149	149	5
108	108	2
138	141	1
1	79	1
21	21	1
20	21	2
152	153	3
38	86	2
128	131	4
196	197	3
134	135	1
59	65	2
70	72	3
110	110	5
173	178	1
17	18	1
133	133	3
22	63	1
56	56	5
78	82	1
90	94	3
185	195	1
153	153	2
83	83	2
54	54	2
105	107	2
145	148	2
164	193	1
16	16	4
163	163	1
76	76	1
190	190	6
105	160	1
165	167	1
116	120	1
6	73	1
133	191	2
55	55	2
131	131	4
136	136	1
143	160	1
151	194	3
145	145	3
75	76	2
117	117	6
125	125	4
133	135	3
162	174	2
141	142	2
124	125	1
84	84	1
25	27	1
13	13	3
105	105	4
138	142	1
18	26	2
21	23	1
1	2	3
4	60	1
178	178	3
74	74	1
80	80	5
0	3	2
146	146	4
44	45	4
57	57	3
39	41	1
170	171	3
189	189	9
4	38	5
184	184	3
161	163	3
80	81	1
63	64	1
33	36	1
6	80	1
34	39	1
41	41	1
138	138	6
26	64	4
180	182	1
113	149	3
11	29	1
4	72	1
149	151	1
100	129	4
184	187	2
163	165	1
158	158	2
135	136	2
39	39	3
114	115	1
51	51	6
39	40	4
46	46	3
188	193	1
24	26	2
22	22	4
32	32	2
127	131	1
81	84	1
105	106	2
19	22	3
129	130	1
6	66	1
32	83	1
120	132	1
160	160	6
12	12	3
111	114	2
73	75	1
103	103	3
42	62	2
87	87	4
35	84	2
58	71	1
172	174	1
18	18	2
94	94	2
51	53	3
104	104	1
183	194	2
182	182	5
66	68	1
158	161	2
45	47	2
86	86	2
186	187	2
145	147	1
143	144	3
68	68	2
185	185	1
42	42	1
127	130	1
114	114	2
17	20	2
150	155	3
148	148	5
162	163	2
179	180	2
139	139	2
62	63	2
31	32	1
147	147	4
133	163	1
175	191	1
29	82	1
169	197	1
0	19	1
73	74	1
191	191	3
152	155	4
149	193	3
98	177	4
35	86	1
36	114	1
37	37	3
148	149	1
81	81	3
162	162	2
89	89	1
22	34	1
42	43	1
20	34	1
87	150	1
14	14	1
88	89	1
157	165	3
139	140	1
27	72	2
8	8	2
82	82	1
187	193	1
80	84	2
96	132	1
77	78	1
6	23	1
81	82	1
66	66	3
130	130	1
126	128	1
78	78	2
102	104	1
132	133	1
11	11	1
137	148	1
138	151	1
141	146	3
40	41	1
49	52	2
101	102	1
0	40	2
162	170	1
2	2	2
107	118	1
187	188	2
28	29	2
7	7	1
19	19	1
157	168	1
146	157	2
170	172	2
35	36	2
4	7	2
115	160	1
101	171	1
17	17	1
84	85	2
3	78	1
127	128	1
15	15	1
98	178	1
9	67	1
95	132	2
58	72	1
40	42	1
28	74	2
95	153	1
7	67	2
126	127	1
58	77	1
163	164	1
137	168	1
5	26	1
51	57	1
142	142	1
101	101	1
43	43	1
23	86	1
143	158	1
194	194	1
78	83	1
109	111	1
34	35	1
45	45	1
153	154	1
24	34	1
130	132	1
