78	79	2
202	202	11
160	160	5
230	230	12
199	199	17
97	97	6
157	157	13
62	63	1
57	57	8
4	4	6
53	53	3
152	152	9
46	46	15
72	72	4
31	32	4
70	74	2
167	167	5
179	211	1
62	69	5
116	116	4
51	51	5
97	100	3
23	23	8
32	32	15
59	59	19
60	60	11
27	27	15
203	204	2
187	194	1
86	87	4
42	42	14
234	234	7
186	186	7
245	245	8
44	44	22
242	247	1
185	185	15
47	73	1
226	226	11
10	10	15
204	204	18
65	65	13
181	181	12
35	35	8
64	64	13
187	188	3
214	214	12
41	41	11
198	200	2
42	202	1
176	214	5
222	222	6
247	248	4
48	48	6
61	61	8
175	175	16
39	39	13
168	168	7
207	207	20
121	121	2
216	217	2
59	62	3
94	94	5
80	199	1
235	235	7
49	49	3
241	247	1
25	25	9
104	107	1
154	154	10
93	93	9
63	64	4
26	26	16
179	208	2
114	115	2
180	180	23
195	196	2
102	102	2
78	78	4
205	205	9
89	89	6
225	225	9
247	247	4
153	153	9
52	52	12
179	179	8
242	243	2
18	18	9
77	78	3
119	120	3
33	35	1
93	113	2
191	191	3
41	202	2
199	200	6
162	162	24
224	224	12
164	171	2
88	88	7
178	245	4
192	192	7
15	15	14
237	237	5
95	96	8
110	110	11
161	162	2
242	242	10
150	161	5
171	171	9
105	105	11
172	174	7
227	227	8
206	207	9
144	144	1
114	114	14
201	201	22
76	77	6
85	85	5
87	217	2
210	210	4
163	163	6
182	182	6
176	176	12
150	150	14
105	107	7
211	221	2
106	106	2
220	221	4
215	215	11
50	71	3
31	31	12
43	43	16
28	28	12
233	233	7
91	91	5
164	164	8
208	214	2
7	243	5
63	63	3
209	210	3
200	203	2
116	117	2
212	212	7
155	156	4
158	158	6
21	25	3
175	177	7
217	218	3
17	224	2
231	231	5
80	80	3
173	196	2
79	110	2
228	228	3
43	44	3
208	208	9
81	111	2
76	76	5
38	38	17
84	95	1
66	69	1
82	83	4
213	243	2
3	17	1
54	54	3
12	12	7
19	19	3
119	119	15
37	37	7
169	170	6
86	110	1
34	48	5
65	66	3
79	95	2
192	195	2
165	167	2
187	187	9
40	40	10
17	25	3
161	161	11
7	7	7
70	71	2
8	8	15
75	81	2
156	226	3
14	166	2
177	193	2
118	118	4
47	72	2
40	41	5
183	184	9
156	156	11
239	239	5
184	185	8
82	237	3
29	29	8
172	172	1
9	9	4
48	49	3
212	222	2
170	171	1
21	22	1
45	46	4
165	166	3
23	27	5
60	61	3
166	166	9
15	166	2
178	179	9
41	42	4
26	27	2
231	238	2
238	240	1
219	219	12
151	151	8
54	55	2
227	228	1
71	72	2
6	236	3
164	165	10
169	169	15
53	54	4
190	191	3
117	145	4
170	170	4
44	45	1
194	194	4
236	237	3
186	190	2
158	160	2
228	229	3
118	236	2
196	196	7
16	16	7
183	183	4
176	216	2
58	58	4
79	81	2
189	189	3
20	20	3
18	19	2
90	90	10
87	238	2
67	67	6
37	245	4
92	92	4
101	101	6
182	183	5
56	56	7
34	34	5
197	198	5
51	91	5
244	246	4
190	192	4
95	98	4
211	211	8
106	107	3
10	16	3
240	240	6
121	152	2
73	73	4
200	200	7
83	84	1
27	28	5
11	11	10
17	17	2
79	82	2
186	187	4
238	239	2
50	50	11
33	33	16
213	213	4
70	73	1
209	209	5
171	172	3
107	108	1
115	115	9
172	179	1
57	58	2
79	85	1
55	57	1
75	75	1
222	223	2
241	248	1
47	47	6
173	173	8
47	50	1
95	95	4
159	159	5
24	24	6
97	98	4
224	225	5
196	213	5
112	117	1
217	217	8
98	98	1
14	14	5
94	95	1
79	79	7
113	115	3
5	153	2
104	105	2
108	108	13
213	214	1
55	56	3
203	203	11
69	69	3
111	112	1
160	161	1
193	193	1
177	188	2
232	232	3
107	107	4
190	190	1
248	248	4
36	36	3
221	221	2
173	174	3
162	163	4
204	206	3
29	32	4
108	109	4
147	147	6
163	164	6
2	3	2
179	180	2
82	82	3
11	16	2
62	71	3
202	203	3
84	84	4
198	198	4
17	29	3
43	118	1
238	238	3
195	195	2
189	190	2
64	74	1
31	147	2
15	51	1
216	218	4
108	246	1
45	45	8
17	19	1
77	77	1
214	215	4
109	110	4
11	17	1
58	74	2
170	177	1
7	8	2
85	97	2
237	238	1
23	28	2
109	109	6
111	111	10
113	153	1
180	181	2
237	239	1
193	196	2
21	21	4
38	64	3
155	155	4
219	220	3
23	24	1
86	86	6
171	210	2
78	84	2
112	113	4
168	169	2
212	213	3
220	224	4
223	223	2
215	217	1
152	157	1
56	57	2
92	93	1
89	91	2
208	209	5
61	84	2
220	220	5
112	112	8
70	70	2
239	240	5
163	173	1
22	22	10
161	165	2
36	49	1
89	90	4
74	74	2
83	83	1
241	241	4
174	174	1
45	47	1
45	51	1
43	92	1
43	149	1
169	199	1
111	118	4
184	184	4
23	44	1
34	216	1
4	5	1
154	155	2
214	217	1
59	60	1
51	52	2
246	246	1
175	222	1
37	39	1
210	211	1
149	149	1
158	159	2
75	76	2
77	112	4
14	15	3
218	219	1
185	192	2
241	242	3
55	55	3
117	118	2
197	197	4
101	119	2
231	232	4
85	87	2
187	191	1
181	184	2
239	242	1
15	36	1
52	53	2
65	69	1
85	95	2
110	119	1
82	101	1
113	113	5
193	194	3
175	221	2
100	100	2
223	224	1
25	26	3
178	184	1
175	176	3
177	177	3
146	167	1
232	234	2
211	212	3
102	103	1
44	46	2
225	226	4
168	185	1
236	241	3
218	218	5
156	157	1
25	113	1
15	18	1
173	213	1
202	204	2
5	5	3
67	68	2
173	212	2
229	229	1
91	92	1
173	243	1
37	178	1
194	210	1
68	71	1
206	206	7
45	62	1
221	236	1
237	240	2
64	181	1
46	48	2
208	211	1
7	11	4
104	104	2
87	240	1
63	65	2
6	64	1
171	174	1
38	39	1
219	225	1
145	145	2
194	195	3
3	6	3
204	212	1
208	210	1
117	117	4
163	168	2
80	81	1
79	87	1
3	37	2
100	103	1
207	209	1
6	6	4
163	165	1
175	184	1
61	63	2
39	40	2
169	185	2
146	147	1
184	186	2
236	236	2
214	220	2
37	38	3
237	241	2
13	14	4
167	172	1
56	89	1
150	151	1
68	68	2
41	71	1
36	37	1
237	242	2
52	91	2
62	62	3
119	147	1
71	76	1
84	85	1
73	74	2
102	104	1
216	216	2
195	199	1
18	162	1
200	201	1
236	238	1
151	152	1
204	205	1
71	71	2
28	44	1
22	23	1
37	50	1
1	107	1
32	153	1
8	72	1
83	92	1
108	245	2
33	41	1
11	28	1
61	74	2
232	247	1
58	61	1
57	63	2
157	159	1
165	165	2
20	28	1
219	233	1
4	30	1
189	191	1
65	67	2
30	34	1
30	153	3
30	30	3
176	200	1
2	2	1
67	154	1
175	198	1
58	62	1
150	193	1
210	213	2
2	12	1
185	186	2
28	29	1
187	189	2
156	205	3
244	244	5
9	10	2
240	241	1
25	114	1
93	94	1
87	88	1
32	33	1
223	225	2
198	199	3
87	95	3
151	156	1
58	63	1
33	46	1
15	16	1
99	100	1
1	1	1
15	17	1
105	108	1
82	240	1
92	94	1
173	178	1
180	211	1
166	167	2
155	157	2
231	237	1
229	230	1
174	177	1
87	87	1
224	226	1
213	241	1
1	223	1
197	199	1
177	178	1
109	119	1
176	215	1
71	74	1
3	48	1
170	208	1
6	10	1
168	175	1
114	155	2
58	59	1
87	234	1
231	248	1
79	97	1
242	248	1
33	36	1
238	248	1
60	65	1
74	201	1
35	36	1
