28	128	3
17	17	7
57	57	12
11	93	5
59	59	33
78	131	3
58	58	5
45	45	22
62	93	4
83	83	27
47	65	7
99	99	14
4	4	5
75	75	19
3	8	3
47	61	1
61	94	1
98	124	1
36	110	3
101	101	32
3	3	20
97	97	16
18	18	4
30	32	1
6	6	30
0	2	4
55	55	8
35	35	20
28	28	17
98	100	2
41	41	13
117	117	8
124	124	2
29	29	25
28	32	4
58	126	4
6	7	10
26	27	2
72	72	18
111	111	3
90	90	10
94	94	16
111	113	7
87	88	10
68	68	34
81	132	11
86	86	28
23	23	4
121	121	5
10	10	16
62	65	2
74	74	15
81	81	21
5	99	3
31	31	12
47	48	3
32	32	23
26	88	5
29	30	1
73	73	11
59	78	2
113	114	9
71	71	11
36	36	10
25	25	24
63	63	14
44	44	25
27	127	2
60	113	2
45	76	7
78	129	3
5	5	10
68	73	2
56	56	9
82	82	14
90	116	4
107	116	3
92	93	1
27	28	10
78	78	11
62	62	11
7	17	2
0	0	15
93	93	14
67	67	14
66	66	23
96	99	1
3	12	3
36	79	3
22	32	6
46	62	5
85	85	32
100	102	5
84	112	5
86	108	3
47	47	18
111	112	2
46	74	3
38	38	9
21	84	1
99	100	10
20	20	27
14	14	3
99	111	2
6	8	5
8	8	14
16	16	10
20	39	6
23	26	2
41	42	8
20	131	1
15	16	7
95	96	10
33	61	4
134	134	11
5	83	10
10	47	2
56	57	5
121	124	2
114	115	6
4	6	10
29	78	2
105	105	13
96	123	3
26	26	28
41	107	5
118	118	9
61	61	28
29	49	6
91	96	1
108	108	4
48	96	6
6	11	1
20	45	2
92	92	7
70	70	19
79	79	16
9	19	3
98	98	13
42	42	15
30	30	20
41	70	1
12	12	20
110	110	11
38	106	5
41	124	6
11	11	16
110	114	1
103	104	1
48	89	5
4	93	2
84	84	7
83	84	4
11	26	3
13	19	4
77	77	13
128	128	9
19	19	24
30	132	2
60	60	16
64	64	20
21	22	5
15	15	7
68	69	6
37	37	2
85	86	4
98	99	6
97	99	4
27	27	6
21	40	4
23	88	5
32	77	4
34	104	2
125	125	7
44	46	5
69	70	1
126	126	4
30	31	5
81	82	2
93	99	3
43	70	5
65	65	26
63	66	3
37	43	5
74	88	5
1	46	3
120	123	6
62	76	1
21	31	2
48	50	3
7	7	7
6	84	6
116	132	1
55	133	2
43	43	6
31	80	4
91	91	16
46	46	10
93	94	7
89	92	4
80	80	18
123	127	1
114	133	2
107	107	7
48	70	1
20	81	4
113	113	1
95	95	12
11	59	3
51	81	1
71	72	4
5	84	4
43	115	3
31	32	4
9	10	2
96	96	9
13	37	3
42	70	1
17	81	3
79	81	2
33	36	4
30	64	4
16	17	3
106	107	3
40	122	4
16	33	1
31	78	1
127	129	2
27	48	2
19	20	4
65	81	1
120	120	7
45	88	4
18	44	3
96	97	16
30	51	4
46	75	2
46	70	1
126	127	5
46	47	1
4	5	4
8	36	1
9	9	9
11	74	2
5	6	10
125	129	2
25	82	3
26	65	2
69	69	1
13	18	4
90	91	8
23	45	2
116	116	5
11	20	2
11	12	8
15	44	2
120	121	5
38	43	3
39	56	3
26	48	2
56	115	4
13	13	6
123	123	9
113	117	2
55	91	2
26	92	4
61	65	2
38	126	2
67	68	3
4	71	2
96	98	2
31	134	2
28	29	1
29	33	2
40	40	4
55	110	3
33	33	14
5	93	3
10	48	1
115	115	10
23	115	5
102	102	13
76	76	16
99	105	2
17	31	1
30	131	3
20	42	3
87	87	5
127	128	2
46	77	2
46	61	1
119	119	5
16	79	4
104	105	2
74	75	3
48	48	5
10	73	4
8	65	4
132	133	10
27	92	1
4	44	4
33	34	4
32	33	2
35	37	1
2	101	6
68	104	2
41	48	3
27	84	1
130	130	2
77	78	3
26	47	1
4	84	2
12	99	1
1	2	4
75	76	7
94	119	3
51	51	2
37	80	2
37	118	2
24	31	3
95	119	3
67	72	3
50	55	1
28	119	1
80	85	4
94	121	4
62	63	6
34	34	19
3	4	1
94	95	4
40	69	2
57	58	6
123	125	4
2	2	3
25	27	8
49	93	1
106	106	1
36	56	5
133	134	4
131	133	2
34	45	5
6	95	2
101	112	1
86	92	3
74	96	1
46	64	4
69	102	1
28	57	2
22	22	11
45	62	2
118	119	2
11	84	1
31	79	2
78	134	4
57	112	2
45	46	3
0	1	2
9	35	3
80	81	1
89	90	1
25	26	3
21	21	1
37	119	2
33	73	1
16	82	1
69	105	1
100	100	7
37	38	5
131	131	5
4	49	2
97	98	6
9	11	1
14	27	4
49	50	3
119	121	4
43	134	1
48	95	3
3	60	2
122	122	9
27	114	1
104	104	2
107	115	1
34	35	3
50	95	3
116	120	2
77	124	1
56	82	3
73	124	1
39	127	4
39	80	3
57	77	1
15	32	6
36	44	1
13	34	2
11	31	1
24	29	1
10	35	1
112	130	4
59	94	1
96	113	2
10	101	2
55	81	1
20	107	1
8	34	5
114	114	3
117	120	4
9	102	1
39	39	2
49	89	3
45	61	2
122	123	2
5	43	3
56	89	2
100	101	2
74	87	1
27	57	1
123	124	2
92	101	1
23	24	4
69	104	2
105	122	2
78	133	2
83	96	1
10	11	3
63	64	3
4	7	1
57	109	2
96	125	8
82	130	1
112	112	9
36	115	3
16	22	2
26	36	3
17	44	2
133	133	2
130	131	3
66	67	4
20	84	2
20	28	1
28	44	1
21	128	2
17	105	2
32	79	1
31	132	2
24	24	4
103	103	1
116	117	2
81	85	1
4	95	3
38	105	1
39	50	1
85	123	1
12	13	4
56	132	2
115	133	1
7	42	2
44	45	4
74	77	1
9	71	4
23	87	4
115	116	1
26	80	1
10	29	2
8	43	1
29	32	1
14	101	2
3	82	1
26	79	2
55	82	2
119	120	1
70	71	3
48	51	1
72	73	3
60	123	3
12	70	2
121	126	2
3	86	1
8	100	1
24	25	2
59	60	1
28	91	1
70	95	1
27	87	1
23	30	1
131	132	4
43	109	1
11	85	2
101	102	3
43	124	3
8	9	2
11	134	1
79	82	1
31	37	1
21	30	1
12	105	1
6	42	2
82	94	2
88	88	3
38	127	1
33	72	2
79	127	2
28	78	1
20	41	2
20	101	3
32	70	1
73	74	2
10	85	1
38	39	1
121	127	1
31	49	4
17	36	3
58	109	4
3	100	2
93	102	1
14	125	1
132	132	2
38	40	2
39	121	4
36	45	1
11	22	1
64	65	1
110	116	1
131	134	2
1	3	1
90	92	3
37	106	1
74	98	1
79	80	1
29	34	1
8	47	2
61	62	3
35	75	1
76	77	2
5	75	4
55	56	1
65	118	2
22	35	3
48	84	1
108	109	1
49	49	3
11	48	1
93	108	1
101	130	1
54	132	1
6	21	1
11	13	1
95	98	1
59	93	2
100	106	1
107	110	2
62	67	2
78	86	1
116	121	1
74	76	1
20	48	1
75	94	2
19	38	1
94	105	1
37	120	1
20	38	1
74	99	1
2	38	1
43	106	1
23	25	1
21	58	1
33	69	1
19	44	1
64	73	1
41	121	2
88	92	1
25	81	1
48	78	1
18	20	2
27	97	1
2	46	1
26	101	1
112	121	2
29	85	1
111	126	1
45	103	1
108	132	2
86	93	1
112	116	1
57	59	1
35	46	3
24	26	1
7	28	1
109	109	1
27	31	2
49	60	1
62	74	1
109	119	2
5	49	1
64	118	1
