114	114	6
157	158	6
60	60	6
209	215	3
211	211	8
172	173	7
210	211	2
29	29	7
95	116	1
210	232	2
28	28	7
151	151	6
107	107	8
188	190	2
112	112	11
231	232	2
62	62	8
40	40	15
114	115	5
230	234	4
221	221	11
93	93	7
215	215	5
162	232	5
31	31	5
187	195	1
97	98	5
238	239	8
6	6	3
10	10	3
15	16	10
168	168	6
5	5	2
111	111	17
154	154	11
231	234	4
168	169	5
156	156	11
198	208	4
39	40	2
4	4	6
144	144	1
62	66	5
190	190	8
22	22	8
161	161	6
233	233	8
214	214	4
201	201	7
232	232	8
184	185	6
194	194	5
195	195	6
194	199	3
157	157	9
68	70	6
52	52	6
187	187	8
205	205	12
119	119	6
245	245	11
243	244	8
164	164	4
64	66	5
193	196	2
167	167	4
100	100	1
19	20	4
77	77	9
70	70	4
163	164	6
32	32	10
78	80	2
159	160	1
184	187	3
195	217	3
202	202	10
234	235	3
196	236	3
169	169	3
7	220	6
200	200	6
57	57	7
153	154	2
65	66	2
170	170	6
150	150	5
241	242	3
194	216	1
176	176	3
52	54	4
97	193	5
209	209	15
110	112	4
179	179	4
49	50	5
152	153	2
177	183	7
152	160	2
177	177	9
190	191	5
181	181	5
213	213	4
12	12	1
66	121	1
102	102	14
244	244	3
224	225	4
175	176	2
112	117	1
92	93	4
222	224	2
209	210	4
169	170	5
118	147	2
151	164	7
64	65	1
90	91	10
63	63	3
153	153	9
62	104	6
25	26	8
203	204	6
188	189	1
193	194	8
80	80	4
40	53	2
95	108	5
77	78	6
66	67	6
44	44	12
110	110	11
113	114	4
173	173	4
190	192	6
71	117	4
177	179	4
177	204	2
96	96	6
76	77	2
73	86	3
66	66	7
197	197	7
202	208	3
145	145	3
94	94	9
105	105	8
65	121	3
220	222	1
162	194	2
21	21	4
121	202	2
53	54	4
208	209	7
79	207	2
47	65	1
226	229	1
155	155	9
194	195	6
217	217	7
67	69	2
37	37	6
185	185	2
58	58	1
103	103	2
147	221	2
218	218	6
240	240	1
24	24	9
238	238	1
8	10	4
92	92	5
11	12	2
15	15	12
76	79	2
71	71	6
50	50	7
67	67	4
95	97	1
225	225	5
166	166	8
91	96	3
115	116	5
236	237	4
219	219	3
232	235	3
199	202	9
226	227	3
171	171	6
192	192	5
204	204	13
159	159	6
71	85	2
58	69	2
60	62	2
53	53	11
13	14	2
109	110	7
68	68	6
108	109	4
53	59	4
147	153	1
33	68	2
111	112	3
162	162	12
113	113	2
78	78	11
85	204	1
209	219	5
160	161	1
221	223	10
81	81	6
158	159	8
103	112	1
189	190	4
199	199	6
160	160	5
191	197	1
101	101	6
152	152	10
104	107	6
54	54	8
237	237	2
65	154	1
89	93	4
223	224	2
67	68	6
204	205	5
187	191	6
112	116	1
95	99	3
170	190	1
200	220	5
75	75	7
33	37	1
39	39	2
243	243	8
48	77	3
189	189	9
207	208	5
180	181	3
197	198	4
239	239	9
2	3	2
215	216	5
14	62	3
36	36	7
115	115	11
155	156	3
231	244	2
4	5	4
85	85	5
186	187	5
3	4	4
18	18	9
177	178	9
182	183	5
237	242	1
248	249	2
231	231	5
94	116	1
47	47	2
185	186	4
146	146	3
23	23	2
91	92	2
11	11	5
30	32	2
220	220	9
178	179	2
163	165	2
167	169	4
176	177	4
113	115	1
175	181	7
46	46	5
85	207	4
64	64	3
166	167	3
202	203	5
19	19	1
1	3	4
158	158	2
218	219	8
232	233	2
182	182	5
145	158	2
178	203	1
198	198	7
74	75	6
120	120	5
245	246	3
52	55	1
86	86	4
81	82	2
178	183	2
56	58	2
35	35	3
165	165	3
84	85	5
191	191	5
156	157	2
199	219	2
188	188	4
20	20	3
116	116	3
226	228	3
234	234	14
248	248	4
101	102	2
212	239	7
10	47	1
178	181	5
116	118	1
45	45	6
27	27	9
181	182	2
206	207	5
109	109	2
7	7	12
48	50	5
211	221	3
55	70	2
43	43	11
237	240	2
57	60	2
68	69	1
176	210	1
51	52	1
55	55	7
235	235	6
117	118	2
230	230	3
53	68	1
83	84	4
62	63	1
189	191	2
14	14	6
7	8	2
183	183	4
172	172	8
161	238	4
192	195	3
58	67	1
219	220	2
74	74	5
155	176	3
199	200	1
247	247	5
215	217	4
203	203	8
151	161	1
193	193	4
179	185	4
97	99	2
208	208	3
203	207	2
33	33	2
71	74	1
73	117	2
91	91	4
95	95	2
180	180	3
9	9	2
80	82	3
224	224	3
173	179	1
201	221	4
186	186	2
190	197	3
212	213	1
74	83	3
63	64	5
42	42	5
48	48	6
21	27	1
93	95	1
95	192	2
21	203	1
47	48	2
163	163	3
178	178	3
44	45	1
209	231	6
233	234	4
244	246	1
7	212	2
152	161	1
1	1	1
232	234	5
205	206	2
174	175	4
26	26	2
38	39	5
211	212	1
70	74	2
226	226	2
224	235	1
54	55	1
22	25	1
24	25	2
223	223	3
87	115	2
34	34	3
187	189	1
85	86	2
69	71	1
175	175	7
196	199	1
110	111	2
37	67	2
202	204	1
64	68	1
241	241	2
45	107	1
96	98	2
149	161	1
102	103	4
95	98	2
172	179	1
216	217	3
118	119	1
214	216	1
76	76	1
69	69	1
218	248	1
79	79	2
100	115	2
74	79	1
196	196	4
182	184	4
216	216	6
99	99	2
13	101	1
11	19	1
96	97	2
207	207	3
214	215	1
90	94	2
230	231	1
174	174	4
185	190	3
196	197	1
179	231	1
239	240	2
153	158	1
57	58	1
4	37	2
212	212	3
229	229	2
97	97	1
191	193	1
210	210	1
187	188	5
63	65	1
221	222	3
157	166	2
173	174	1
169	171	2
56	59	1
181	199	2
213	217	2
161	162	2
85	118	2
57	61	2
72	73	2
98	98	1
77	82	1
162	233	1
4	34	2
175	177	1
21	23	2
151	156	1
78	79	1
163	232	2
15	52	1
103	111	1
240	241	2
198	221	2
166	180	1
90	98	1
246	246	1
9	53	3
147	147	1
22	201	1
206	226	1
14	15	1
184	184	3
168	183	2
241	245	1
92	153	1
168	230	1
197	216	1
50	52	1
222	222	7
191	196	1
82	82	2
169	188	1
192	196	2
31	32	1
61	61	1
210	233	1
182	189	1
30	30	2
108	111	4
4	246	1
20	22	2
172	174	1
212	226	2
82	83	1
117	117	3
215	218	1
229	230	2
5	60	1
238	242	2
5	247	1
37	38	2
100	200	3
72	194	2
30	31	1
112	113	1
170	171	2
173	185	1
195	196	1
89	89	1
84	84	1
145	152	2
9	10	1
68	116	1
29	31	1
29	30	2
198	219	1
38	38	1
41	41	1
240	242	2
90	90	1
227	227	1
236	236	2
46	47	1
116	117	1
100	194	1
231	233	1
38	99	1
1	14	1
10	54	1
59	59	2
178	182	1
235	237	1
156	179	1
202	244	1
109	201	1
57	88	1
36	37	1
25	25	1
239	241	1
8	69	1
65	65	1
84	207	1
164	165	1
