26	26	29
129	130	4
23	26	3
67	67	19
79	79	38
119	119	21
9	9	37
3	3	19
75	75	40
98	99	14
6	7	9
31	31	34
103	103	14
122	122	12
58	58	19
36	36	24
126	126	13
113	113	10
124	125	12
106	106	14
35	92	1
13	15	4
77	78	13
85	86	3
99	99	30
112	118	2
133	134	3
28	80	2
99	101	4
24	24	4
7	7	25
75	76	17
10	11	9
96	96	40
65	65	55
27	93	6
72	73	8
87	88	9
23	24	7
108	108	22
77	77	19
133	133	14
60	60	25
21	58	7
2	3	4
32	64	1
130	132	4
14	15	2
102	102	26
111	112	4
120	121	15
93	99	3
123	123	31
46	46	31
20	60	6
61	61	48
44	44	27
63	63	28
47	57	7
79	80	11
64	64	37
29	29	45
131	131	11
17	17	31
18	18	19
65	83	4
33	34	9
35	35	25
72	72	13
66	66	36
81	81	23
92	92	26
110	111	1
8	8	36
101	103	9
57	83	3
74	74	34
11	11	44
47	48	14
10	10	48
120	120	8
70	70	19
67	68	9
84	84	22
6	22	4
45	45	36
37	37	16
56	57	3
94	95	26
91	91	26
16	16	10
78	82	7
27	27	22
14	14	17
111	111	15
25	83	1
41	42	5
5	5	23
32	32	27
12	12	35
19	20	4
93	94	17
11	13	7
5	7	9
19	46	7
25	25	35
84	94	6
25	76	6
39	48	1
81	82	11
44	46	6
34	35	12
127	127	14
82	83	10
55	55	9
30	30	15
73	73	66
84	97	2
47	47	70
40	94	4
82	82	30
59	59	18
114	114	10
88	91	6
46	47	10
25	47	5
7	75	2
132	132	11
26	27	11
109	109	6
69	72	6
105	105	9
1	1	7
38	38	22
4	5	6
34	34	53
0	0	8
66	83	5
125	125	7
93	98	4
94	94	16
84	85	4
45	46	10
95	95	21
100	100	27
117	117	31
38	81	5
1	2	3
28	59	1
47	77	1
130	130	14
106	107	6
80	82	7
11	93	20
114	116	2
29	59	2
15	15	20
6	6	37
86	86	28
90	91	11
25	26	13
33	35	1
97	98	22
11	92	12
78	80	3
36	61	1
108	110	4
28	79	2
13	92	2
33	33	24
24	26	1
46	61	4
39	41	8
46	72	9
41	41	13
113	114	3
28	29	10
83	83	25
4	4	27
93	93	49
128	131	3
43	43	17
70	71	12
27	29	3
97	132	5
131	133	10
78	79	8
62	62	22
88	88	11
130	134	2
76	76	24
29	30	11
42	43	2
40	56	2
115	116	7
9	10	8
121	121	15
6	8	2
42	42	9
13	13	20
20	21	6
92	108	1
22	22	9
116	116	12
49	49	8
25	82	7
34	77	2
37	38	8
78	78	28
38	56	3
128	128	13
99	100	10
89	92	2
26	77	3
131	132	4
30	31	8
76	77	4
24	25	6
107	107	26
10	57	3
104	105	18
91	92	13
28	28	20
71	72	2
97	97	12
5	29	3
115	123	1
129	129	7
61	63	2
5	6	7
132	133	7
69	70	11
89	89	6
81	84	3
44	45	13
39	42	3
85	85	22
2	2	13
78	93	3
31	32	8
29	49	6
15	16	11
103	104	3
19	22	6
25	93	2
4	7	7
118	118	12
109	110	3
118	120	2
127	128	1
72	121	6
112	112	10
73	74	8
28	77	3
87	87	11
55	56	10
108	121	3
79	92	5
102	103	4
28	96	2
7	65	3
95	96	8
14	16	4
126	127	5
80	81	3
27	82	2
94	96	2
62	67	2
40	40	8
100	102	2
26	47	2
90	90	21
57	59	1
25	32	3
16	60	1
24	34	2
17	70	2
101	102	1
68	68	30
114	115	3
37	81	2
33	64	2
116	117	1
56	56	17
112	115	4
85	96	3
39	92	2
17	83	4
110	113	6
27	28	13
17	18	3
55	57	5
3	100	6
120	122	2
48	48	25
103	105	3
15	17	3
110	110	5
87	91	4
124	124	7
26	81	2
118	119	3
130	131	9
62	63	1
112	113	11
40	41	6
78	81	16
59	87	1
87	89	3
43	60	8
90	100	2
121	122	3
20	45	2
7	92	1
98	98	16
36	45	1
20	20	12
80	92	1
20	70	3
16	21	2
5	134	2
117	120	3
31	79	1
30	43	3
2	95	1
8	133	3
26	48	1
115	132	5
83	85	11
107	128	1
11	12	6
61	88	2
7	23	3
61	72	2
86	87	5
10	85	4
21	21	21
80	80	15
69	69	8
7	48	2
33	79	5
51	51	1
22	26	5
8	20	5
61	62	7
25	84	3
71	71	12
134	134	6
112	114	4
109	126	1
57	57	7
96	99	4
3	4	3
44	60	2
85	93	3
2	12	4
13	44	2
9	47	3
60	85	4
9	33	2
128	129	10
36	37	12
16	17	5
66	69	2
64	65	3
63	70	2
32	34	2
23	23	9
7	8	4
22	24	6
104	106	1
32	33	6
29	76	2
57	58	5
19	19	7
84	87	3
59	60	6
21	36	2
11	48	1
115	115	14
101	101	15
104	104	6
104	107	1
125	126	1
83	94	1
127	132	3
27	75	2
127	129	3
68	72	6
44	55	1
127	133	3
3	7	1
38	84	1
120	124	1
34	36	5
96	97	6
122	123	4
43	44	2
8	9	4
35	36	8
75	77	3
98	131	1
82	94	2
20	22	1
83	84	17
83	92	2
105	110	2
17	45	3
79	81	3
85	90	5
8	68	1
102	110	3
10	35	3
25	27	4
44	69	3
77	82	3
3	94	1
6	98	3
84	93	3
23	74	3
21	22	2
37	39	3
98	116	3
82	84	2
77	123	2
94	134	1
75	102	1
111	129	1
107	126	1
13	46	4
13	14	2
45	91	1
79	114	3
58	60	3
37	42	2
5	92	5
45	75	3
74	82	2
105	125	1
6	127	5
31	91	3
10	12	2
26	92	3
112	116	3
75	96	1
90	92	4
47	93	2
21	59	2
50	50	3
46	66	2
39	39	4
76	116	4
90	94	1
104	129	3
47	62	5
87	112	2
14	44	1
41	43	6
90	97	1
7	29	4
20	84	2
21	70	3
74	75	3
15	74	4
21	84	3
14	74	1
127	131	4
42	81	4
119	120	7
19	33	2
109	112	1
34	128	2
36	94	1
70	121	3
92	93	4
75	86	1
33	61	4
111	122	1
91	115	1
45	69	2
51	56	2
37	43	1
101	123	3
22	23	2
123	124	1
120	126	4
25	29	2
97	115	3
77	80	3
104	128	2
29	31	2
17	94	1
45	89	1
113	117	1
28	134	2
44	83	2
30	35	2
88	89	1
29	47	2
36	39	2
86	88	1
37	41	1
10	84	3
6	86	4
4	21	4
75	129	1
108	109	4
56	81	1
13	16	1
113	133	1
14	26	2
76	112	1
56	82	1
84	90	1
6	50	6
12	13	4
19	31	2
16	94	1
77	101	1
127	130	1
50	56	1
64	120	2
18	27	1
38	40	2
17	19	1
7	61	1
35	72	1
28	60	1
18	57	2
77	83	3
114	126	4
81	86	3
56	60	2
103	106	1
97	116	2
11	21	1
5	38	1
98	117	2
117	121	1
32	131	1
93	100	1
126	128	1
28	91	1
100	101	4
22	35	1
26	28	2
26	29	3
20	39	2
27	92	2
28	46	1
115	129	1
100	116	1
38	39	1
123	125	1
42	54	1
77	81	2
100	110	1
13	20	2
116	130	1
12	17	1
97	102	1
80	105	1
21	81	1
26	93	1
90	116	2
70	123	1
98	132	1
37	59	2
39	40	2
48	50	2
85	94	1
12	27	1
59	93	1
63	64	1
32	62	2
117	118	1
97	133	2
42	45	1
47	82	1
28	35	2
110	117	1
60	82	1
129	134	1
93	96	1
101	104	1
25	78	1
23	25	3
59	74	1
30	57	1
32	42	2
12	73	1
38	55	1
109	129	3
88	92	1
98	102	1
12	21	2
48	49	2
115	131	1
31	33	1
36	72	1
48	92	1
35	82	2
105	124	1
30	132	1
5	11	1
35	77	1
17	28	2
97	99	1
98	100	2
39	81	1
33	43	2
21	35	1
98	107	1
15	95	1
85	91	2
65	66	1
38	82	1
18	73	1
14	95	1
29	62	1
89	94	1
107	108	1
46	67	1
9	81	1
108	124	2
76	118	1
76	102	1
8	77	2
51	55	1
11	49	1
108	111	3
73	75	2
91	93	1
26	30	1
4	89	1
70	120	1
66	67	1
87	93	1
49	50	1
46	101	1
7	89	1
68	69	1
30	32	1
4	8	1
12	46	1
79	82	1
94	97	1
66	123	1
92	98	1
29	60	1
