40	40	11
76	76	10
226	227	11
160	160	12
54	60	3
1	1	7
230	230	8
107	107	7
163	163	14
37	37	3
158	179	1
206	206	2
179	179	8
33	33	20
22	23	2
32	32	21
111	181	4
67	67	11
164	165	2
186	188	5
115	115	14
161	161	5
59	90	1
175	176	13
154	154	8
48	48	10
197	197	13
114	115	2
35	36	6
187	216	1
232	240	2
184	184	12
209	210	3
55	55	16
54	55	8
58	103	1
194	201	3
238	238	9
89	90	11
151	151	4
161	210	2
171	171	12
111	114	1
84	84	7
152	152	5
50	51	7
78	78	6
212	213	14
188	214	2
94	94	9
208	208	5
96	98	3
39	39	10
119	120	3
174	174	18
61	61	9
221	222	7
182	182	8
210	210	18
207	207	17
245	245	17
165	165	18
35	35	10
222	222	17
227	227	9
210	211	8
59	85	3
58	59	8
247	247	9
199	200	6
159	213	1
80	81	1
172	173	5
82	82	11
29	30	9
95	95	6
216	216	7
71	73	2
90	90	5
72	72	6
3	3	1
41	41	10
223	225	4
62	63	9
54	54	3
178	180	5
194	194	7
178	178	11
185	185	11
67	79	5
11	12	3
20	20	6
193	195	4
215	216	3
104	105	4
161	211	1
116	116	20
200	200	17
42	154	2
237	237	13
99	99	7
108	108	11
51	51	8
23	23	13
15	15	7
184	186	5
153	153	7
209	209	12
85	85	10
107	108	12
239	239	11
214	215	9
1	18	2
202	204	1
213	213	7
202	202	9
99	100	2
183	183	13
173	173	20
5	15	2
25	26	4
116	117	6
192	192	13
83	106	5
242	242	14
156	156	19
5	33	1
146	147	8
19	20	1
31	32	3
192	220	2
164	164	6
36	36	6
213	214	6
179	186	2
168	236	1
159	159	23
117	117	14
168	169	16
46	46	18
216	217	3
241	241	17
214	214	10
176	177	8
113	114	6
12	12	9
81	81	3
8	8	8
217	242	1
38	38	15
152	248	3
220	220	8
85	101	1
79	79	16
217	217	6
72	73	2
66	67	2
102	102	13
18	20	3
70	70	2
39	40	3
212	214	1
63	71	5
85	86	3
2	2	3
231	231	9
169	169	4
56	56	12
186	186	10
63	63	3
178	206	3
158	166	1
104	106	6
114	114	4
63	64	6
5	5	6
27	27	8
19	19	5
169	170	12
202	203	6
58	58	4
31	38	2
102	103	8
234	234	5
216	239	1
71	180	5
170	170	5
201	201	9
80	179	4
150	150	3
208	209	4
203	204	4
84	85	1
29	31	2
223	224	6
59	60	3
88	89	2
243	243	7
239	244	4
184	185	8
77	78	6
183	184	3
9	11	2
145	145	2
163	164	4
31	31	5
52	52	6
167	167	10
18	18	9
96	96	3
115	116	4
193	194	2
243	244	5
22	22	10
46	72	1
105	105	5
62	64	1
227	229	4
154	223	1
89	89	5
215	237	3
64	65	5
68	70	1
54	82	3
110	111	3
98	98	2
102	116	2
119	241	4
226	226	7
203	203	8
21	37	2
7	7	17
21	21	6
37	204	2
165	186	3
208	236	1
173	174	2
96	116	2
201	202	4
199	201	1
166	167	8
25	25	12
237	246	2
119	119	10
240	240	10
145	162	1
14	15	3
97	98	1
88	88	5
34	37	8
225	226	5
211	212	8
193	213	3
118	119	8
180	180	5
76	92	2
4	4	6
69	70	5
61	63	5
24	24	9
197	198	3
199	220	3
166	166	8
204	204	11
194	195	1
240	246	1
224	224	7
28	54	3
16	16	5
101	101	13
159	160	10
68	68	5
154	248	2
64	64	10
189	189	14
147	147	1
156	221	4
72	197	2
76	174	3
100	100	7
244	245	1
34	96	3
118	118	4
160	211	2
168	168	6
158	167	3
101	104	3
91	91	4
68	69	8
205	205	24
220	221	5
236	236	11
176	176	10
233	233	8
61	86	2
227	228	1
111	113	2
50	50	6
44	45	3
28	29	2
181	181	11
120	120	2
60	60	9
82	234	3
193	193	3
50	184	3
179	212	2
232	247	4
241	242	2
192	198	1
67	80	4
237	248	3
80	80	3
17	19	6
40	43	2
162	162	13
175	177	8
91	92	4
235	235	11
178	179	4
157	157	6
42	42	12
57	57	4
206	207	5
70	182	2
167	168	6
246	247	3
60	62	5
155	155	15
6	7	4
165	168	1
37	38	2
212	212	2
177	178	2
239	240	1
45	145	2
199	199	13
77	77	9
72	120	3
155	156	7
78	85	4
145	196	2
217	218	1
43	53	2
112	113	4
2	3	4
59	180	2
168	170	7
87	89	3
10	10	6
17	17	5
246	246	8
228	230	1
170	174	3
174	242	5
158	180	1
215	215	4
150	151	1
232	232	7
51	52	1
109	109	8
166	209	3
75	173	1
177	181	1
224	225	5
170	171	4
242	243	2
154	155	4
200	201	1
218	218	4
218	219	6
105	106	6
78	178	5
102	198	2
79	80	5
112	117	3
175	175	16
149	150	2
228	228	3
75	78	3
189	190	4
6	6	5
177	177	6
162	165	6
188	189	1
53	53	10
104	104	2
34	34	8
69	79	2
208	210	2
168	194	3
47	72	1
73	74	1
86	86	2
153	154	5
60	61	3
62	62	7
78	93	2
3	10	1
81	84	1
167	169	1
168	171	3
71	71	7
45	45	2
69	82	1
164	211	3
110	110	13
147	170	4
4	5	4
53	55	4
166	210	3
80	162	3
43	44	3
80	82	2
112	112	4
11	11	6
49	50	3
195	196	2
55	57	2
173	178	1
158	158	14
61	62	1
59	89	2
65	66	3
84	101	3
117	118	5
109	110	9
160	161	3
244	244	9
56	58	3
8	51	1
165	167	2
245	246	4
69	181	3
163	211	3
4	34	1
208	219	4
113	113	1
174	175	1
153	166	3
190	194	4
161	168	2
109	207	3
194	198	1
223	223	2
225	225	1
57	58	4
49	49	2
196	196	1
229	230	3
106	106	4
41	42	2
76	77	1
153	248	2
30	37	1
165	212	1
159	171	2
156	174	3
216	219	1
158	168	2
190	191	5
230	231	1
75	77	2
161	162	3
28	28	4
182	213	2
101	102	3
57	91	1
101	105	4
159	210	1
158	159	3
198	198	3
26	26	2
75	75	6
165	232	2
87	87	3
192	197	1
47	47	3
44	44	7
33	34	3
71	74	1
111	111	6
71	77	1
157	158	3
221	221	4
75	76	5
91	97	3
219	219	8
43	43	3
58	90	3
78	79	2
231	232	2
67	70	6
64	67	2
174	176	1
74	174	2
214	216	6
146	146	2
187	196	2
211	213	1
172	172	7
192	194	1
29	29	4
169	171	2
92	92	6
7	8	1
27	53	3
106	107	1
93	93	6
60	152	3
26	27	2
113	116	2
69	69	3
209	211	2
229	229	2
234	235	1
4	33	1
30	30	2
180	181	2
49	84	2
156	158	3
0	1	1
73	99	1
162	163	1
190	209	1
120	196	1
41	43	2
238	241	1
108	114	1
57	117	1
247	248	1
164	168	2
182	183	5
27	28	1
59	59	2
18	19	2
162	211	1
154	249	2
241	244	2
195	195	4
236	237	3
67	68	1
156	222	2
47	185	1
185	186	1
196	213	2
187	192	1
246	248	4
218	246	1
38	39	2
196	198	1
160	171	1
72	74	2
53	54	1
172	209	2
74	74	4
147	178	2
93	95	1
171	172	2
239	241	1
236	240	1
151	152	2
48	52	3
88	102	1
188	213	3
64	72	1
209	213	2
48	50	2
8	226	1
56	177	2
223	226	2
48	49	1
56	57	2
173	238	1
204	205	2
90	92	1
174	215	1
204	224	1
37	39	1
85	150	1
164	189	1
3	35	1
111	237	1
145	202	1
247	249	1
3	17	1
191	191	3
228	231	2
194	196	1
63	65	1
45	46	1
146	149	2
24	32	1
186	212	1
83	234	4
109	112	2
108	110	1
235	236	1
6	12	1
98	99	2
173	177	1
92	93	1
158	169	1
172	186	1
187	187	2
198	199	1
54	57	1
42	43	2
57	197	1
186	190	1
59	111	3
149	149	1
3	4	2
15	37	2
190	190	2
66	68	1
66	66	3
193	199	1
103	103	1
59	87	1
77	81	1
219	221	1
192	193	1
84	86	2
69	119	1
23	24	1
176	242	1
181	182	1
38	152	1
49	181	1
58	64	2
9	9	1
56	94	1
146	170	1
102	108	1
62	180	2
86	101	1
188	196	1
216	218	1
76	78	1
182	184	1
211	211	1
147	168	1
89	103	1
201	224	1
70	181	1
194	197	1
96	97	1
157	164	1
226	229	1
88	103	1
144	156	1
156	160	1
159	166	1
70	82	1
231	234	1
183	186	1
104	107	1
36	96	1
146	155	2
81	108	2
13	14	1
183	187	1
226	228	1
175	178	2
213	216	1
186	187	1
152	247	1
35	39	1
188	210	1
237	245	1
29	150	1
