75	79	1
33	33	6
32	32	16
22	36	4
70	107	1
39	40	6
49	49	14
21	21	15
93	93	6
40	40	8
57	57	1
34	34	8
60	61	9
39	39	15
73	74	4
26	26	6
29	54	2
110	110	2
50	50	6
70	70	5
101	101	11
97	97	10
81	82	7
42	42	5
65	66	8
107	107	6
68	96	5
29	55	8
35	102	2
54	55	6
78	78	12
61	61	1
102	102	11
104	106	7
35	36	5
66	68	1
96	96	9
82	82	2
94	94	9
111	111	8
85	85	5
65	65	6
66	66	10
95	97	1
48	49	12
104	105	1
26	27	3
108	108	6
106	106	9
80	80	4
22	22	2
46	46	6
72	95	5
105	105	16
92	92	12
52	52	10
37	37	7
64	64	8
43	43	4
44	45	6
69	69	2
54	54	3
100	106	1
29	29	5
113	113	2
57	59	1
92	93	3
109	109	1
53	54	7
24	24	3
20	20	4
63	64	5
67	67	5
91	91	6
104	107	2
63	63	8
89	89	1
22	23	3
38	45	4
62	63	2
92	95	3
46	47	3
44	44	6
100	100	10
20	26	3
42	43	5
48	48	2
24	37	8
90	90	7
67	68	3
75	75	5
91	93	4
63	67	2
95	95	5
28	28	10
94	95	4
31	31	4
19	19	3
23	25	1
30	58	1
104	104	4
76	76	5
35	35	7
27	27	7
49	50	4
63	98	2
45	45	7
112	112	5
20	70	1
68	98	3
58	68	7
36	101	6
55	55	3
64	66	2
32	34	3
76	77	1
100	101	4
115	115	2
82	85	4
59	59	6
77	77	5
114	114	10
101	104	1
37	46	1
38	38	7
69	76	4
25	25	15
97	98	1
38	80	2
59	68	2
34	37	1
71	87	1
53	60	3
61	64	5
23	23	1
84	85	3
53	56	2
30	30	3
103	103	6
80	99	2
64	65	2
55	57	6
94	101	4
68	68	3
83	84	4
75	78	2
50	51	6
47	47	3
88	88	6
36	36	4
39	80	1
25	39	5
58	58	1
43	45	2
110	111	2
98	98	4
106	107	1
57	58	4
103	104	4
79	92	6
99	99	7
94	106	3
81	81	6
85	90	5
74	74	4
70	89	3
101	102	3
56	56	1
47	48	7
58	59	2
96	97	2
32	91	3
84	84	7
30	31	1
71	95	6
37	38	3
32	33	2
91	94	1
82	84	1
70	95	1
41	111	4
27	28	4
89	90	1
72	72	4
51	59	2
105	106	1
22	24	3
81	83	1
58	60	1
86	89	2
36	92	2
33	48	1
93	94	2
109	110	3
36	37	2
43	44	6
38	41	1
87	88	5
80	92	1
33	34	2
65	108	2
87	87	1
26	79	4
31	60	1
76	78	1
50	52	3
60	60	1
67	69	3
74	75	1
80	89	1
80	91	1
22	52	1
34	45	2
34	35	3
71	73	3
76	79	1
71	72	1
40	54	1
108	109	1
83	83	1
41	41	3
51	51	1
70	94	1
88	96	1
101	103	1
35	98	1
79	79	1
66	70	1
56	75	2
73	73	1
95	96	1
