15	32	2
91	91	23
112	112	3
121	124	2
80	80	7
129	129	9
138	138	11
128	128	10
88	88	7
112	121	2
130	130	15
21	23	3
107	107	10
20	20	4
84	84	6
115	115	10
95	96	6
139	139	8
116	116	13
19	20	2
101	101	10
28	28	6
85	85	5
18	18	6
140	140	11
127	136	2
131	131	7
7	8	3
73	73	18
27	27	10
32	32	10
103	103	13
89	90	5
123	123	12
98	98	11
108	108	3
37	124	2
128	135	2
127	127	11
76	76	10
35	35	3
113	114	6
29	30	2
121	123	2
111	112	3
82	83	2
22	31	1
138	139	2
74	74	7
5	5	7
16	16	6
100	100	6
96	97	6
75	75	13
71	92	3
23	30	2
120	120	9
31	31	12
133	134	2
114	116	8
102	102	1
2	3	5
101	115	4
22	22	5
23	25	5
93	93	2
126	126	24
122	122	16
107	108	2
11	11	2
133	133	7
125	125	12
104	104	1
114	114	3
18	21	1
109	109	3
128	129	3
80	100	2
93	94	3
38	38	14
127	138	5
33	33	6
21	21	8
12	12	8
92	92	6
94	94	3
19	19	3
117	117	5
123	124	7
136	136	7
121	121	2
16	124	5
31	32	3
77	77	6
19	21	1
11	12	1
98	110	1
18	125	1
114	115	4
99	100	2
0	0	4
3	4	1
17	17	2
14	28	1
17	22	3
35	36	3
95	95	7
113	113	11
104	105	4
127	129	7
7	7	5
35	37	3
14	27	1
102	103	3
86	86	12
115	116	3
81	118	2
118	118	4
93	105	2
137	137	7
119	119	13
89	89	10
8	9	2
8	8	8
138	140	3
76	77	4
5	33	3
36	36	1
81	81	4
78	78	4
92	93	5
29	32	1
6	7	2
126	132	4
119	120	2
128	137	3
138	141	1
124	124	3
15	17	2
111	111	4
124	125	2
18	37	4
2	29	1
90	90	6
13	13	5
98	99	6
74	76	4
75	76	6
122	123	4
137	138	6
1	1	1
92	105	2
72	102	5
82	117	7
134	134	10
127	128	7
132	134	1
85	87	1
12	13	3
135	135	6
23	23	5
134	135	4
102	117	2
96	96	2
73	76	5
126	135	2
82	82	4
24	38	1
99	99	5
30	31	1
128	130	4
28	32	1
124	132	2
135	136	3
102	110	2
37	38	5
7	9	2
126	127	3
24	27	7
105	105	2
24	25	2
25	25	1
103	104	4
115	125	1
17	124	1
118	119	3
21	32	2
112	122	1
34	34	2
26	26	4
9	16	2
0	1	1
97	97	1
70	71	1
1	76	2
10	16	3
6	6	2
16	17	1
119	121	2
4	4	2
2	73	3
134	136	3
73	75	2
25	26	1
87	87	3
79	87	1
15	124	1
101	110	2
10	11	1
91	92	1
4	6	2
2	80	1
132	132	5
23	76	2
110	111	2
72	73	2
137	140	1
3	72	1
101	102	2
80	117	3
117	118	3
79	79	1
20	122	1
125	126	2
90	91	2
95	99	2
5	32	1
8	16	1
27	30	3
134	138	1
121	122	1
6	14	2
112	113	2
37	37	1
33	34	1
15	16	1
131	132	1
21	22	4
86	101	1
91	93	2
99	114	1
100	102	2
95	108	2
27	80	1
139	140	1
15	15	1
106	106	1
90	108	1
71	71	2
83	83	1
9	12	1
132	133	2
34	35	1
28	29	1
91	112	1
22	78	1
14	15	1
110	112	1
73	74	1
126	128	1
