132	133	2
27	27	13
80	80	20
34	34	50
139	139	17
20	24	15
83	105	2
15	15	4
14	14	15
129	129	27
135	135	12
28	81	4
118	120	7
87	109	3
31	32	9
108	111	8
1	1	8
89	89	15
124	138	1
124	124	17
75	76	6
90	90	21
97	97	11
126	126	9
112	113	6
103	103	27
0	22	5
11	11	9
117	123	5
8	24	3
101	101	14
87	87	6
4	6	1
74	80	7
93	93	16
104	104	16
77	119	1
137	137	16
77	78	6
79	79	23
37	38	5
133	133	28
28	29	9
83	84	8
36	36	8
118	119	3
120	121	10
37	37	15
25	25	6
116	117	10
32	33	2
5	7	1
134	134	25
3	7	10
100	100	17
24	31	5
22	35	4
99	99	12
94	95	6
85	85	6
117	117	15
132	132	21
20	20	2
29	31	10
9	9	9
19	26	7
125	130	2
98	104	6
127	127	24
26	27	5
79	80	7
4	4	23
30	31	8
29	30	9
77	77	34
125	128	8
116	123	2
136	136	8
130	130	24
111	111	16
82	82	18
83	104	4
94	101	4
13	14	7
88	97	2
128	128	29
23	23	6
101	123	2
131	131	15
35	36	5
33	33	33
122	122	31
83	103	4
15	99	1
119	120	1
112	112	27
93	105	1
38	38	4
22	22	12
84	84	9
31	31	13
92	92	13
106	106	18
10	10	7
17	99	1
73	83	3
72	73	8
138	138	8
101	102	6
89	100	5
125	125	27
127	130	3
110	110	12
140	140	15
73	73	11
24	24	16
119	123	1
5	5	7
105	105	16
93	94	6
107	108	3
27	33	2
109	112	1
24	25	9
121	121	13
136	137	7
35	35	16
81	86	6
13	13	9
26	26	15
7	7	4
107	107	15
113	113	23
77	102	2
89	90	2
3	22	4
78	78	8
85	86	4
91	91	16
20	26	4
3	4	6
16	16	12
104	112	2
73	77	1
83	83	13
71	75	4
85	89	2
123	124	5
17	18	1
10	30	1
29	29	19
102	103	3
0	116	1
72	72	24
32	36	3
104	106	2
71	71	11
129	130	3
76	76	10
83	85	8
84	85	7
9	11	4
8	8	13
114	117	2
123	123	15
105	120	2
19	25	4
74	75	6
75	75	15
80	82	3
104	105	10
115	115	2
91	100	6
128	129	6
104	109	1
81	82	6
78	117	5
127	128	7
6	6	7
102	120	1
34	36	5
77	94	5
30	32	3
21	26	2
116	116	24
76	77	4
85	136	3
18	18	14
95	95	13
12	12	2
27	29	2
118	118	14
11	12	6
130	131	2
1	8	4
16	29	3
21	25	2
16	30	2
97	98	5
92	93	2
25	27	4
7	10	1
72	75	1
29	32	6
100	107	3
94	94	9
28	28	5
16	17	8
122	123	12
101	103	2
28	32	3
5	6	2
21	36	1
120	120	6
109	109	5
86	86	8
137	138	4
123	129	3
13	15	7
102	102	10
7	9	2
29	86	1
114	115	9
134	135	11
12	26	2
98	98	18
124	125	5
78	82	1
1	39	2
78	87	3
133	135	1
5	8	4
87	112	5
20	39	1
81	85	1
115	116	7
124	126	1
78	80	4
121	122	9
7	8	2
11	77	5
71	102	1
12	77	3
80	117	4
19	19	18
21	21	8
77	103	2
0	1	2
108	109	3
106	117	2
96	96	6
87	88	4
26	31	4
32	32	6
81	84	2
71	97	3
106	107	3
3	122	5
4	11	2
110	111	15
126	128	2
74	74	7
0	0	4
81	98	2
38	94	2
14	15	1
114	114	6
80	113	2
125	135	1
79	115	7
3	3	9
131	134	1
86	97	2
74	103	3
15	16	2
129	131	1
138	139	4
117	118	2
12	13	6
4	26	5
2	2	6
20	33	3
84	87	3
10	82	2
102	123	5
132	139	1
19	33	3
8	28	1
30	30	8
17	17	7
36	37	2
73	85	3
119	122	3
23	25	2
82	103	2
82	87	3
103	104	4
8	12	4
72	76	2
14	18	2
77	106	1
8	11	2
136	138	2
109	110	4
104	107	3
34	134	2
85	87	2
14	99	2
82	136	4
21	22	3
100	104	2
100	133	1
8	31	1
92	101	3
105	106	1
108	108	3
73	74	3
87	106	1
84	104	2
77	89	2
131	132	4
126	140	3
96	97	1
4	5	3
10	11	2
71	101	2
74	97	3
104	111	1
134	136	1
96	98	1
137	140	2
106	116	1
78	81	1
88	88	5
106	109	2
37	68	1
111	112	2
123	126	5
12	105	1
133	134	1
75	118	1
10	39	1
74	100	4
1	26	1
127	129	3
120	122	2
6	7	2
89	91	2
85	112	1
73	76	3
17	125	1
19	44	1
78	79	3
6	20	1
92	95	1
94	116	2
98	101	1
20	23	1
118	122	1
135	136	1
114	134	1
2	5	1
34	127	2
126	127	1
12	14	2
98	99	1
73	81	4
73	84	1
118	125	2
1	123	2
126	139	1
22	26	2
88	101	2
15	18	1
80	114	2
20	21	2
81	81	2
2	11	1
77	101	2
2	3	1
78	112	1
10	76	1
11	29	1
112	118	1
89	99	1
27	31	1
9	26	2
76	114	1
21	33	1
28	31	1
8	9	1
20	95	1
109	122	2
33	34	1
117	119	2
120	123	2
17	19	1
86	91	1
18	19	1
72	84	1
