234	234	14
159	159	22
9	44	4
159	178	5
214	215	15
237	238	8
64	65	1
175	175	26
115	115	15
15	19	10
216	216	26
81	82	6
90	90	24
94	94	17
105	105	11
210	210	11
98	98	19
166	181	4
208	209	19
104	104	14
22	23	17
8	9	13
1	27	3
224	227	5
182	183	7
108	108	11
151	151	27
152	153	13
165	165	30
152	157	3
74	75	8
145	236	4
178	178	10
201	201	24
191	192	5
91	92	4
214	244	2
235	235	11
48	50	7
223	223	33
187	188	8
87	220	1
50	50	27
63	84	3
65	73	6
241	242	14
117	117	28
89	112	1
103	103	16
211	212	6
156	156	39
39	39	19
77	78	14
48	48	19
113	113	30
174	176	5
156	228	7
34	34	26
55	55	30
53	56	3
81	86	4
14	19	4
157	159	3
22	22	28
208	208	28
190	190	5
7	32	6
119	119	28
163	164	15
204	204	21
239	239	28
171	172	10
229	231	2
177	180	6
65	65	30
191	196	1
35	64	1
85	89	3
6	7	2
180	180	24
102	102	9
193	193	13
64	72	4
110	110	32
54	54	31
153	154	12
178	180	1
192	192	24
17	17	10
5	5	15
36	36	25
170	170	25
188	188	10
145	152	1
30	97	4
160	160	28
240	241	10
73	73	25
25	25	6
84	84	19
99	100	9
68	68	26
231	233	4
7	7	24
43	43	21
205	225	5
75	75	21
27	27	22
58	58	15
76	80	2
153	153	23
68	70	1
66	66	14
221	241	1
170	172	12
101	101	14
86	217	2
64	64	24
10	10	36
99	118	3
181	183	9
236	237	15
45	45	23
207	207	28
230	230	6
110	111	8
196	196	22
87	88	9
78	78	16
221	242	2
199	199	27
80	83	9
85	86	10
176	176	11
30	30	21
186	188	5
190	222	2
246	246	28
233	234	16
226	227	3
245	245	28
157	157	9
44	44	12
120	149	4
38	108	4
87	87	21
169	169	33
211	211	21
186	186	18
209	210	4
32	101	2
101	107	4
21	22	9
248	248	10
80	80	10
44	45	11
230	231	16
151	180	3
240	240	14
42	42	19
184	185	6
97	98	17
117	118	19
69	69	15
173	175	2
222	222	18
165	166	5
33	33	14
194	195	5
174	174	18
157	160	2
198	198	15
146	146	3
6	42	2
111	112	23
78	101	3
114	114	17
229	229	12
161	161	24
3	40	1
53	53	15
37	39	9
108	109	13
86	86	15
86	88	7
150	150	35
191	191	14
56	58	8
214	214	24
89	89	8
184	184	26
115	116	6
213	215	2
56	56	10
245	246	9
60	64	4
197	198	20
238	241	2
46	63	4
41	42	5
54	111	2
37	37	20
82	82	15
88	225	1
164	165	6
96	99	6
215	215	14
221	239	8
167	168	9
182	182	10
203	203	14
48	49	3
236	236	21
200	205	3
93	93	18
10	11	5
200	200	28
163	163	30
231	231	19
172	172	17
244	245	9
52	54	3
221	222	20
218	222	1
232	232	19
11	11	25
1	2	5
216	217	13
237	240	4
23	23	10
19	19	25
40	40	22
241	241	24
221	245	1
32	32	23
188	193	1
171	173	4
24	24	13
63	63	19
161	162	4
217	236	2
151	152	4
145	147	2
69	74	8
243	244	8
149	149	4
3	3	15
225	225	7
92	93	6
1	1	18
19	53	4
190	191	9
202	202	32
205	205	17
18	46	2
6	6	15
238	239	15
235	236	10
183	183	29
67	71	7
77	77	18
246	247	13
147	152	4
217	237	3
213	214	16
52	52	16
4	174	2
30	120	2
206	206	14
8	8	16
11	15	1
176	177	7
212	212	42
95	96	3
218	219	14
204	225	4
190	195	2
49	59	2
18	18	18
71	71	6
30	31	7
176	213	3
226	226	11
202	204	2
217	217	7
9	10	8
55	56	9
155	156	5
155	155	16
112	113	7
31	32	5
40	45	5
227	227	9
57	58	13
105	160	3
158	158	16
24	90	6
113	161	1
27	28	15
50	68	3
173	173	18
197	197	15
37	62	1
217	218	5
113	114	8
49	58	1
69	70	6
113	116	2
193	194	7
54	55	11
102	119	1
162	164	5
46	65	1
83	85	5
213	213	18
166	169	1
29	29	13
162	163	11
194	194	14
160	234	5
57	57	9
75	76	5
235	240	3
14	14	8
72	74	4
208	213	3
203	225	1
74	74	10
207	220	1
225	226	14
62	62	19
170	176	1
175	204	1
146	152	4
76	76	12
242	242	21
238	238	23
159	160	11
61	61	4
97	97	9
186	196	3
111	243	4
107	118	4
61	62	16
191	195	4
238	240	4
70	70	7
197	199	9
106	109	4
102	106	2
192	193	8
88	95	6
35	36	14
158	185	1
120	120	9
57	59	7
180	183	2
116	116	23
88	111	5
40	46	1
158	160	7
107	108	9
147	147	25
25	26	3
180	196	3
92	94	2
179	179	18
60	61	7
32	33	5
95	95	19
152	152	16
195	195	17
172	179	3
66	71	3
80	81	6
173	174	9
1	20	6
51	68	6
192	195	7
243	243	7
90	111	3
78	86	2
227	228	3
185	185	12
223	224	5
24	25	7
91	225	3
88	89	15
191	197	4
166	166	14
16	17	3
14	15	6
67	69	6
11	36	2
36	64	1
106	107	4
179	214	2
228	234	3
100	100	10
109	109	29
159	161	6
67	67	6
87	90	4
65	71	1
176	179	4
73	74	9
162	162	27
199	200	5
65	66	8
181	210	5
190	198	2
58	59	7
107	107	12
20	46	3
20	20	33
96	96	13
184	188	6
103	159	1
21	21	12
99	99	17
237	237	16
144	144	6
191	194	5
2	2	21
209	235	1
228	228	19
228	229	2
56	63	3
15	30	1
82	83	7
216	219	1
228	231	1
46	46	13
84	99	2
242	244	2
41	41	17
70	71	3
58	60	2
189	189	14
2	40	8
55	57	8
145	145	14
167	167	15
166	167	9
221	221	18
112	114	3
29	32	4
88	88	15
111	111	14
164	164	15
187	187	14
46	47	9
212	213	7
92	92	5
71	72	12
47	47	11
241	243	3
145	185	2
180	201	5
218	220	5
31	31	15
18	19	5
49	49	19
34	67	3
59	59	23
166	205	1
195	222	1
11	20	3
58	63	7
168	199	9
50	69	4
168	168	12
180	181	11
112	112	16
187	191	3
83	84	3
244	244	16
20	93	2
68	69	20
209	209	19
60	60	14
76	95	4
104	107	1
200	201	11
231	232	7
114	115	22
86	87	5
60	63	1
174	195	2
205	206	1
234	235	10
110	113	9
177	198	2
70	98	1
94	95	1
87	89	2
232	233	1
195	226	1
109	112	2
192	196	1
51	51	11
37	38	6
84	85	4
118	247	2
4	5	9
89	217	4
204	229	1
223	228	2
183	199	3
224	224	6
99	107	4
209	236	1
154	154	19
169	170	7
26	204	4
110	112	5
168	169	11
47	50	3
247	247	7
198	226	2
16	16	9
23	64	1
3	5	4
7	16	2
87	203	2
181	200	3
184	191	1
181	181	18
151	153	2
118	119	11
19	22	2
201	202	7
205	209	1
34	35	7
105	106	3
208	210	3
78	93	6
19	20	5
79	83	2
77	79	1
177	177	16
196	198	4
233	233	7
106	106	11
115	160	2
83	83	15
183	235	2
38	38	25
111	244	6
17	43	2
219	219	16
85	85	21
33	59	2
166	175	1
195	196	23
110	158	3
215	219	2
18	225	4
56	57	3
69	71	2
234	236	5
35	37	1
207	227	4
113	151	4
102	105	2
203	228	5
159	164	2
233	240	1
144	145	3
174	175	6
45	221	2
101	102	3
7	15	3
194	196	12
176	198	1
9	9	15
220	220	7
181	185	2
39	40	2
168	187	8
196	197	5
52	53	4
111	151	1
118	118	14
56	81	1
157	158	11
165	167	3
167	171	2
91	202	6
45	47	3
192	194	3
52	55	1
177	178	9
26	26	13
54	56	4
185	194	2
38	214	1
187	198	4
12	12	15
206	207	10
18	20	1
101	152	1
20	41	3
48	90	2
160	161	7
3	97	2
84	101	1
101	108	1
4	4	12
7	41	1
66	67	4
197	200	4
67	68	1
34	39	1
53	59	4
218	218	9
175	177	5
55	59	4
67	70	5
171	171	12
10	150	4
207	211	2
76	77	8
81	84	2
72	73	3
29	33	1
209	244	3
35	35	13
157	230	2
189	190	13
59	60	9
55	112	3
3	39	2
103	106	1
174	232	1
197	212	2
151	156	4
65	69	4
166	168	5
230	232	3
118	145	2
188	199	3
167	169	3
96	98	3
93	94	3
116	117	3
38	40	1
203	204	8
219	220	3
109	110	2
215	244	2
72	72	10
236	238	4
47	48	9
98	114	2
29	31	7
215	217	2
173	194	1
95	151	1
53	57	4
91	93	1
40	112	1
102	103	2
110	115	2
239	240	13
94	105	1
114	116	6
159	190	2
41	43	9
109	115	5
181	214	3
190	210	2
88	203	3
45	46	5
111	245	2
247	248	6
39	66	2
158	159	8
50	71	2
185	191	2
15	15	11
181	182	3
209	214	2
91	91	14
244	246	2
43	44	11
81	83	3
90	114	2
214	217	3
10	45	1
70	108	1
173	229	2
85	87	1
222	223	8
80	86	3
2	43	2
59	62	2
108	115	2
14	49	3
156	167	2
50	67	2
193	195	3
177	208	1
169	171	1
224	225	4
112	240	5
103	162	1
110	114	3
9	20	2
103	104	1
239	241	4
64	71	2
29	30	2
220	222	6
33	34	3
170	182	2
34	36	3
23	24	2
241	246	3
210	211	7
15	16	2
5	29	4
220	221	2
186	195	3
70	74	8
183	185	2
95	108	1
243	248	4
85	100	3
239	242	1
206	227	1
89	95	2
171	174	5
190	212	1
170	171	5
49	50	4
216	238	1
99	108	2
58	62	4
157	189	1
36	65	3
51	71	8
41	45	1
188	189	4
231	235	1
183	184	1
205	234	2
3	38	2
174	196	4
220	245	1
200	202	2
205	226	5
158	181	2
206	226	3
14	34	1
10	16	1
172	173	6
190	192	4
100	117	1
0	51	1
189	192	2
106	118	3
7	226	4
249	249	1
27	52	2
177	179	3
85	220	1
5	35	6
176	178	3
48	61	2
79	80	9
5	18	3
87	221	4
50	51	1
173	177	1
202	203	10
154	155	4
107	161	1
32	34	1
243	246	2
63	71	2
49	61	3
50	66	2
198	199	3
187	189	4
4	39	2
183	208	2
212	215	1
178	210	2
184	212	3
156	173	1
102	104	4
78	84	3
174	214	1
9	11	2
26	54	2
186	190	2
168	181	1
167	182	3
183	239	2
241	248	1
162	168	1
223	225	2
95	232	1
83	86	1
146	157	4
108	116	1
155	207	2
62	63	5
146	147	3
229	230	4
30	63	3
28	28	10
117	119	2
37	63	1
113	237	3
2	3	4
63	72	3
33	35	3
86	100	1
90	92	1
179	180	2
147	151	2
22	53	2
93	201	6
28	111	3
243	245	1
7	8	1
81	81	6
2	18	2
61	71	1
160	171	2
53	92	2
19	21	1
101	231	1
172	176	4
182	212	1
15	18	2
112	189	5
193	197	3
217	238	2
112	157	3
196	213	2
40	41	2
43	45	1
166	170	2
17	223	1
21	27	4
75	77	4
86	99	3
174	227	2
163	165	4
84	86	1
101	230	1
35	63	2
195	199	6
4	241	3
68	221	1
91	117	1
12	43	6
175	228	2
3	54	1
233	241	2
9	31	2
197	205	4
89	90	2
181	216	6
5	34	2
120	144	1
50	57	2
119	120	3
176	214	7
191	200	1
55	58	1
6	12	3
189	198	1
18	29	1
48	60	1
36	44	2
60	62	1
209	212	8
171	182	1
40	43	2
72	75	2
232	240	1
89	96	1
118	153	3
217	219	1
165	177	1
43	231	2
105	110	1
110	157	2
4	32	3
117	152	2
15	29	4
185	186	2
88	223	2
25	89	1
13	14	1
12	15	4
170	173	3
60	70	1
92	107	2
111	157	2
20	21	6
193	199	2
87	224	2
150	151	3
166	199	2
16	21	1
57	65	2
23	113	1
225	231	1
98	158	1
42	46	1
182	208	1
42	43	2
237	239	1
36	38	3
101	106	3
100	109	2
180	185	1
164	186	1
79	82	2
11	40	2
3	20	4
165	181	2
10	44	1
180	213	1
35	44	3
4	14	1
53	54	2
144	206	1
242	243	4
172	175	2
182	211	2
105	118	1
100	108	1
185	193	1
33	44	1
156	227	2
203	208	1
242	245	1
106	120	1
113	150	2
61	90	1
119	144	1
178	200	1
95	98	1
172	177	1
113	115	1
94	99	1
79	79	3
91	223	4
111	116	2
36	37	1
86	89	1
193	212	2
189	195	5
171	176	1
201	212	1
10	43	1
107	144	1
53	93	1
121	144	1
90	112	1
105	158	2
185	195	1
205	208	1
232	234	1
66	72	2
31	33	2
169	176	2
26	111	2
175	178	2
3	174	2
176	200	1
186	187	4
175	182	1
214	216	3
105	120	2
26	56	1
120	145	2
178	201	2
197	214	1
104	105	1
182	184	1
20	42	1
177	210	1
192	197	1
34	50	1
178	179	3
191	210	1
29	35	1
2	42	1
195	197	2
198	200	1
58	64	2
109	161	1
108	110	1
44	46	2
112	115	1
51	67	1
201	205	2
9	27	1
80	82	2
182	194	1
5	242	1
12	14	2
87	113	3
210	216	1
229	235	1
182	216	2
96	97	1
42	113	1
2	15	2
149	241	1
19	39	1
20	44	1
10	22	2
90	219	1
195	214	1
187	199	1
9	45	2
53	73	1
98	100	2
87	225	1
49	62	2
53	64	1
86	98	1
200	204	1
13	13	1
224	226	1
73	83	1
78	79	2
9	15	1
64	73	1
63	65	3
207	244	1
210	212	1
241	245	1
181	184	1
47	61	1
163	188	1
160	213	1
108	117	2
11	22	2
202	233	1
144	149	1
109	113	1
224	233	2
71	74	3
156	169	1
173	180	1
203	205	2
12	34	1
214	246	1
172	194	1
154	156	1
6	11	1
170	177	1
207	212	1
227	230	2
158	172	1
116	119	1
205	218	1
38	247	1
177	181	1
16	32	1
179	201	1
99	109	2
120	162	1
187	193	2
44	53	1
159	185	1
94	110	1
18	42	1
184	187	1
180	214	1
34	47	2
204	228	1
200	206	1
0	0	1
164	166	2
204	205	2
12	18	1
71	73	1
93	110	2
118	152	1
39	44	1
157	231	2
216	218	1
196	200	1
51	65	2
153	228	1
24	227	2
2	28	2
88	151	3
42	44	1
208	214	2
47	49	2
93	202	1
195	213	1
106	119	1
42	91	2
33	38	1
11	19	2
21	26	1
46	52	3
111	115	1
226	233	1
6	32	1
8	40	1
162	187	1
46	64	1
178	181	2
81	88	1
24	228	1
172	174	1
4	34	1
228	230	1
109	111	1
63	64	2
183	214	1
206	225	2
45	73	1
11	12	2
24	26	1
109	116	1
2	27	1
36	63	1
39	47	1
45	54	1
97	100	1
245	247	1
2	44	1
28	56	1
10	29	1
231	245	1
114	160	1
26	27	1
121	241	1
242	246	1
186	199	1
204	226	1
23	53	1
6	16	1
104	158	1
