160	164	4
53	53	5
66	69	4
135	135	6
49	49	8
160	160	6
38	86	2
74	74	3
150	151	1
85	85	7
85	86	5
132	132	16
46	46	5
109	109	6
6	7	2
43	43	12
20	39	1
148	148	7
87	87	34
97	98	7
123	125	2
110	111	6
23	23	4
86	86	10
20	21	3
114	123	1
168	168	5
139	139	2
44	44	4
96	96	10
146	146	6
151	152	4
68	79	3
26	26	3
40	40	6
111	111	7
131	131	2
115	115	2
9	15	1
48	49	3
86	87	10
124	125	5
72	72	12
83	83	12
84	84	4
76	77	11
12	12	3
96	97	1
45	45	6
62	62	4
106	135	3
94	95	3
156	156	2
155	157	3
63	64	4
73	86	1
4	4	8
125	125	6
123	124	8
73	74	7
112	118	3
79	79	5
76	76	4
51	51	7
105	105	7
45	46	1
69	69	5
167	168	6
3	3	7
4	42	5
6	6	10
167	167	3
92	92	10
42	42	8
158	158	3
134	134	15
137	137	4
43	44	4
71	83	4
35	36	1
38	38	5
103	115	2
21	22	9
116	117	2
42	44	2
91	91	3
146	147	4
152	152	7
142	142	8
25	41	1
57	62	5
39	47	1
170	170	6
74	75	1
81	82	4
103	104	2
154	154	4
34	34	2
93	93	7
39	58	2
73	73	12
109	112	5
143	143	3
24	24	7
72	101	1
143	144	2
40	49	3
86	93	2
129	129	5
54	54	11
150	150	2
93	94	2
63	96	1
98	98	2
99	100	2
5	5	7
13	13	4
116	116	3
164	164	4
36	36	9
27	27	11
100	102	2
19	19	3
109	110	2
128	128	4
82	82	3
50	50	7
166	166	12
33	34	7
114	114	5
7	24	2
104	104	6
103	123	2
138	138	8
36	37	7
151	151	4
33	33	6
50	81	1
14	14	9
135	136	1
10	11	1
110	110	5
22	22	14
169	169	2
95	96	4
92	93	3
77	77	4
108	108	13
56	57	2
57	57	3
114	115	6
51	106	6
159	159	3
89	98	2
9	9	7
141	146	1
17	17	3
115	123	5
37	37	8
113	113	4
157	157	9
68	70	2
25	27	2
16	18	2
112	113	1
47	95	2
121	122	4
99	99	5
164	165	1
133	133	3
127	127	5
149	149	7
18	19	3
1	1	4
97	97	5
90	90	7
68	68	5
28	82	2
58	93	2
54	83	4
2	2	8
57	58	1
52	52	5
91	94	2
37	40	1
137	165	5
28	28	1
16	16	6
18	18	5
165	165	3
88	89	2
41	107	1
47	113	2
24	25	2
0	1	3
5	6	1
106	106	7
44	45	3
63	63	3
78	78	8
119	120	3
71	71	3
41	41	2
98	99	3
47	48	3
130	131	2
73	101	2
118	122	1
17	18	1
81	83	2
84	88	2
17	19	1
117	117	2
69	97	1
103	105	5
69	70	4
92	100	4
84	85	2
136	136	3
91	92	1
41	44	3
70	71	4
34	35	2
21	24	1
70	94	3
101	102	1
64	74	1
55	55	8
13	14	3
54	55	4
48	97	1
35	84	1
65	68	1
11	12	1
92	114	2
77	78	1
80	90	1
7	28	1
111	114	1
70	70	5
47	47	5
74	76	4
67	67	3
130	130	2
158	166	1
50	115	3
119	119	4
153	158	2
152	153	1
6	27	2
100	101	1
162	165	1
25	25	2
39	88	1
21	21	8
13	15	1
140	140	3
82	85	2
76	80	2
48	48	9
134	135	2
107	107	5
64	64	2
77	82	1
83	84	1
158	159	2
46	47	2
80	80	1
52	107	1
75	75	1
153	154	1
151	154	1
39	39	3
11	11	3
91	95	2
168	169	1
22	39	1
0	0	2
102	103	4
142	143	1
63	65	1
89	89	2
21	38	1
64	67	4
6	25	1
118	131	2
162	163	1
15	15	2
101	101	1
132	133	1
156	157	5
112	112	2
77	85	2
35	35	3
138	142	1
116	130	4
8	8	4
79	108	1
158	163	1
4	6	1
117	129	1
115	127	1
120	120	1
141	157	2
57	63	1
1	2	1
38	49	1
119	121	1
136	137	1
26	27	1
27	28	1
100	100	1
88	88	3
53	56	1
122	122	2
58	117	1
8	9	1
74	77	1
56	56	1
53	132	1
105	106	4
115	116	1
77	81	1
159	161	1
103	103	1
161	163	1
90	93	1
65	65	1
40	48	1
115	125	1
40	41	1
7	7	1
44	85	1
