152	152	5
75	79	3
156	157	2
2	4	8
104	106	2
191	193	4
7	8	3
117	135	3
0	25	5
34	34	4
166	166	5
123	127	8
107	108	6
30	31	2
112	140	2
44	44	7
8	8	3
109	109	7
146	146	4
3	3	5
162	165	1
186	186	5
35	35	5
73	75	3
134	134	7
115	115	5
196	196	1
16	16	3
159	159	3
119	119	2
39	39	8
59	62	5
43	43	1
53	55	2
116	116	7
7	23	1
66	67	2
147	153	1
165	166	4
42	42	4
37	37	8
111	142	3
38	40	1
26	26	4
94	94	6
109	110	3
53	53	5
123	123	3
178	178	3
185	186	11
63	63	7
150	150	2
187	187	8
160	160	3
43	44	2
144	144	4
65	65	7
64	67	2
119	138	1
152	153	8
188	189	1
192	193	1
175	175	3
21	21	9
88	90	2
11	120	2
8	41	1
135	135	11
195	195	2
197	197	2
191	191	5
41	41	5
171	171	5
184	185	2
76	76	6
133	133	3
97	97	5
124	127	1
189	190	3
30	30	1
25	25	2
121	133	3
136	137	2
111	112	2
152	175	2
190	190	2
152	176	1
135	137	4
139	139	3
194	194	1
20	26	3
177	183	1
161	177	2
186	187	5
165	165	2
13	13	2
188	188	4
151	152	5
147	147	4
9	9	3
6	8	4
12	121	6
174	197	3
151	153	3
94	96	2
143	143	1
161	161	3
64	64	1
48	48	2
85	133	3
131	131	2
47	50	2
97	98	1
181	182	2
123	183	1
108	139	1
189	189	7
20	21	1
62	72	1
74	75	2
139	145	2
126	126	5
180	180	3
60	64	4
130	130	4
56	56	3
172	172	2
96	97	4
144	146	1
151	151	3
180	190	2
60	61	1
44	46	2
146	165	1
154	155	3
27	27	2
153	153	2
179	191	2
132	132	3
42	43	3
89	90	3
164	164	4
50	51	1
145	145	1
12	52	1
173	173	8
76	77	9
47	47	4
177	177	3
176	177	3
161	164	4
34	196	1
31	163	1
170	170	1
106	106	8
59	59	2
2	27	3
109	111	1
19	28	4
84	84	1
101	101	5
172	174	2
12	12	7
154	159	2
112	112	5
74	89	5
20	22	2
6	9	1
114	119	2
31	150	5
45	46	1
135	153	5
119	120	1
169	169	4
127	188	1
157	157	1
170	171	1
51	51	3
143	193	3
169	179	1
0	1	1
150	152	2
157	168	2
79	79	3
11	11	7
59	73	1
162	162	8
82	83	2
55	56	5
108	109	1
158	159	2
128	128	2
44	51	4
193	193	6
167	168	3
7	9	2
23	24	2
115	116	2
25	28	4
18	26	2
148	148	5
28	147	1
113	113	3
185	187	1
18	27	1
124	170	3
7	7	1
107	107	1
38	39	1
110	110	3
67	67	1
41	42	1
14	52	1
154	154	1
145	192	2
161	165	2
112	145	1
141	141	3
80	81	2
103	103	3
164	168	3
26	30	3
49	56	1
54	54	2
61	75	2
32	32	2
105	105	1
182	192	2
34	35	5
120	120	2
100	101	2
72	72	2
26	40	1
5	7	1
176	178	2
37	38	1
163	163	2
155	159	1
20	20	2
6	63	1
86	86	1
167	197	3
166	191	1
16	152	1
0	58	4
33	33	3
184	184	4
36	37	2
4	8	1
167	167	3
76	78	1
131	133	2
95	111	3
123	124	1
179	179	2
172	173	1
183	183	6
108	119	1
33	36	1
36	36	5
58	58	2
14	17	2
156	156	1
123	169	3
49	49	4
98	99	2
23	25	1
38	38	1
104	104	2
23	23	2
143	192	1
1	59	1
113	133	2
2	3	2
195	197	1
80	80	2
168	168	1
134	140	1
24	25	1
4	4	3
100	100	2
126	159	2
157	159	1
8	27	1
70	70	2
143	153	1
142	142	1
157	178	1
110	134	1
6	6	2
3	4	1
121	121	1
157	193	1
6	7	1
117	117	1
0	4	1
22	22	1
22	27	1
53	56	2
104	105	3
94	117	2
172	183	1
26	28	1
116	117	2
3	26	2
175	179	1
147	180	1
140	141	2
158	158	2
108	108	1
154	169	1
104	145	1
34	99	2
94	95	1
10	10	2
165	167	1
131	182	1
74	74	1
21	34	2
19	21	1
115	118	1
9	191	2
81	82	1
142	154	1
160	164	1
109	150	2
153	156	2
143	144	1
163	168	3
128	184	1
119	148	1
50	50	1
8	9	1
64	76	1
24	24	1
84	85	1
55	57	1
127	127	1
110	168	1
19	19	1
102	104	1
109	133	1
12	122	1
47	58	1
55	55	2
146	148	1
4	9	1
190	191	1
147	148	1
118	118	1
124	124	3
138	139	1
110	111	1
163	164	1
147	167	1
138	138	1
101	102	1
15	15	1
130	131	1
182	190	1
173	182	1
