43	43	11
27	27	5
62	62	10
35	35	4
30	30	14
50	54	5
77	77	16
89	89	8
92	97	2
67	68	3
89	90	1
131	132	8
73	73	10
85	85	12
44	44	12
53	62	3
102	102	8
32	33	1
46	116	1
120	123	1
83	83	13
120	120	20
70	70	13
102	103	7
81	128	2
27	32	1
6	6	6
60	60	14
7	49	2
126	126	4
88	88	4
125	128	2
53	53	9
74	74	6
25	25	2
113	114	9
113	116	5
52	52	8
64	65	5
36	36	12
108	110	8
29	29	3
92	93	1
67	67	4
92	132	7
109	109	5
103	103	1
122	123	7
31	31	4
101	135	2
87	98	2
96	130	3
82	85	3
61	62	3
132	132	9
110	110	7
5	7	5
107	107	6
86	86	7
77	78	7
112	112	3
112	114	2
35	37	1
79	80	9
23	24	1
109	110	6
60	63	5
15	16	3
122	124	1
70	71	3
76	113	1
82	110	1
61	66	2
91	101	1
90	90	4
4	21	1
105	113	1
125	129	5
111	112	3
45	45	7
8	8	3
87	87	12
123	123	6
2	2	8
61	61	5
80	96	1
96	96	3
122	122	10
118	118	2
5	11	2
115	116	5
57	57	4
117	118	7
96	97	4
45	46	1
128	130	5
25	80	3
76	76	8
109	127	5
101	101	6
97	97	8
26	27	1
70	102	2
4	5	4
98	98	4
69	69	8
82	92	1
5	5	7
5	6	2
44	45	1
81	83	2
11	20	6
44	54	2
121	121	10
10	46	1
49	66	2
12	20	2
50	52	1
106	106	5
94	95	4
103	104	4
124	124	6
56	58	1
16	18	3
124	126	4
66	67	6
8	9	3
43	127	1
95	119	1
119	122	6
132	133	2
33	33	5
65	65	9
37	37	7
110	126	5
48	48	2
95	118	1
104	104	11
29	30	10
3	5	2
114	115	3
14	14	5
89	101	3
64	64	4
82	87	4
84	84	6
113	113	1
94	94	6
3	4	7
71	72	4
106	110	6
10	10	4
79	79	15
9	53	3
32	32	2
113	115	3
51	77	1
124	125	2
58	64	6
95	95	8
59	59	14
63	63	7
10	47	2
47	47	5
88	90	5
53	54	2
9	10	1
85	87	2
107	109	2
13	21	2
82	82	6
105	105	5
31	66	1
1	1	3
9	36	4
99	102	3
66	68	2
114	119	2
4	4	2
15	15	2
87	88	3
0	0	5
111	128	2
9	9	4
129	130	3
17	17	8
65	66	1
97	98	1
78	78	2
106	130	2
68	68	10
78	134	4
80	134	4
67	69	1
128	129	1
134	134	6
10	20	3
88	99	4
42	42	2
87	130	3
118	131	1
111	126	3
19	19	11
127	127	4
66	66	7
4	28	1
106	123	5
31	32	1
92	129	2
82	83	3
34	35	1
11	47	1
55	55	2
119	120	1
112	113	2
27	28	1
18	20	1
129	129	8
13	13	4
124	130	1
54	56	2
111	111	3
103	112	3
120	129	1
99	99	1
59	60	3
93	93	9
25	35	2
123	124	3
126	128	1
119	119	5
18	18	1
55	69	2
54	54	7
8	62	1
125	130	3
91	91	6
50	50	6
22	22	3
80	80	5
109	125	1
59	62	4
117	119	5
107	108	4
117	117	4
128	128	3
111	129	4
121	122	1
13	102	2
36	37	1
25	33	3
71	71	4
22	23	3
28	28	6
84	85	4
107	131	10
49	49	4
20	21	1
100	135	1
34	34	1
44	69	1
25	95	3
52	53	3
118	132	2
107	111	2
76	114	4
93	94	1
7	7	1
76	112	1
105	112	2
10	36	1
79	111	2
118	120	1
65	100	1
106	108	1
83	84	4
75	76	4
3	3	8
12	12	1
93	95	3
42	44	2
79	106	1
43	48	1
13	20	2
70	72	4
106	112	1
88	92	1
105	106	2
56	57	1
92	96	2
78	79	3
10	116	3
112	116	2
58	65	1
6	7	1
17	18	2
60	62	1
90	101	1
114	114	2
52	76	1
30	31	2
77	79	2
66	90	2
56	56	3
108	125	3
88	100	1
21	21	1
24	36	1
4	15	1
74	76	4
108	133	1
20	23	2
118	119	1
16	16	5
84	86	2
80	91	1
75	75	2
24	25	2
80	133	2
69	74	1
86	87	2
130	130	4
98	99	1
125	125	6
60	72	1
88	120	3
99	111	3
95	97	1
94	113	1
123	127	1
7	9	1
9	55	1
69	101	1
58	58	2
23	23	2
104	105	1
24	24	3
115	115	4
99	101	1
82	96	1
130	131	1
131	131	1
8	55	1
73	74	1
72	72	3
105	127	2
62	63	2
20	90	2
54	55	1
62	67	1
15	21	2
93	98	1
11	11	1
108	109	1
11	37	1
100	100	1
122	130	3
26	31	1
98	100	1
120	121	1
14	23	1
133	133	1
14	80	2
25	26	2
10	15	1
94	104	1
116	116	3
13	19	2
86	108	1
65	80	1
127	128	3
4	6	1
92	108	1
14	107	2
96	99	1
89	91	1
33	37	1
26	26	1
2	115	1
96	107	1
60	61	1
88	111	1
77	111	1
60	73	1
109	128	1
