134	135	6
23	26	5
31	31	20
104	105	16
84	85	18
62	70	1
0	1	13
63	104	4
78	78	25
118	118	16
103	103	46
101	101	37
95	95	40
122	122	18
12	62	1
121	121	20
99	99	22
61	61	15
73	74	10
71	72	10
114	115	16
3	4	9
93	93	28
67	68	16
60	60	23
23	25	5
107	119	1
105	105	18
99	100	9
77	78	9
43	43	9
52	54	3
97	97	19
69	69	24
129	132	1
113	113	14
86	88	7
100	100	9
32	32	20
77	77	22
106	106	25
79	80	10
54	55	7
116	116	26
64	64	56
116	118	4
31	32	4
55	55	10
92	92	13
86	123	4
102	102	26
123	123	7
24	24	21
121	122	7
134	134	12
109	109	4
76	76	17
65	66	1
71	71	33
35	35	12
106	111	8
120	122	6
53	53	14
14	14	12
60	68	4
129	129	18
19	20	10
98	98	21
80	80	27
57	79	5
28	28	14
89	89	23
3	3	4
22	23	5
1	1	8
36	36	6
18	18	14
50	50	19
88	88	27
130	130	2
79	79	36
101	102	3
128	129	5
117	117	15
66	66	8
132	132	8
90	91	12
72	72	23
49	50	6
12	31	2
63	63	18
108	108	19
58	59	5
19	19	8
29	29	20
92	93	8
96	96	16
73	90	2
111	111	10
82	86	3
96	97	6
104	104	21
9	9	7
91	91	9
11	11	12
120	120	20
21	21	17
110	110	8
34	90	4
99	124	5
127	127	33
48	51	2
133	134	5
44	46	2
114	114	27
96	111	2
112	112	23
115	115	12
86	87	3
2	2	13
20	23	3
112	113	11
65	65	18
111	116	4
80	83	1
27	27	9
52	53	8
18	19	3
130	131	10
74	74	15
25	25	19
94	94	35
17	17	19
56	57	5
33	33	15
106	119	3
108	111	5
119	119	7
90	90	35
73	73	15
94	95	12
53	54	6
7	7	11
20	21	5
59	60	4
85	86	2
22	22	8
50	65	2
119	120	3
128	128	16
74	75	16
135	135	7
47	47	9
27	28	2
105	108	1
13	15	6
131	132	9
89	97	4
126	126	21
87	95	3
88	90	2
14	34	2
66	68	3
81	82	9
6	6	11
23	23	19
76	104	2
82	84	1
13	59	1
5	5	11
56	65	1
10	10	7
88	89	1
123	124	5
56	56	1
15	15	11
125	125	8
98	122	3
78	79	3
55	57	4
48	50	4
8	8	9
32	33	2
130	132	6
87	88	8
87	87	14
111	114	13
59	59	20
70	70	17
131	133	5
23	24	10
58	60	4
109	110	6
84	84	9
29	30	6
84	103	1
47	68	4
91	93	1
50	61	8
4	4	13
125	126	7
29	35	1
75	75	22
125	127	7
66	86	4
33	90	5
9	10	4
120	121	7
65	69	9
97	108	5
89	91	2
88	126	2
107	107	9
125	128	7
89	90	4
28	44	2
113	114	9
115	116	16
124	124	9
7	8	6
2	3	1
12	13	5
68	69	2
61	67	4
97	100	2
83	83	5
54	54	11
62	62	7
63	64	8
77	81	5
36	37	10
102	103	6
52	52	10
4	5	5
15	16	2
34	34	5
13	14	7
22	24	4
61	62	8
93	94	12
51	51	7
95	96	4
124	125	3
13	13	13
100	101	2
133	133	5
5	33	4
60	89	2
97	111	3
58	58	13
76	126	1
60	124	1
34	36	1
69	93	2
93	106	7
63	69	3
12	12	9
62	63	7
45	46	2
67	67	6
86	92	2
114	116	5
62	68	1
131	134	6
106	107	9
66	69	4
42	59	3
111	113	2
24	25	5
6	63	3
57	57	6
20	20	5
2	126	2
88	98	2
71	73	7
88	97	1
115	118	2
95	112	3
91	92	3
14	15	3
30	31	2
99	101	6
104	128	1
16	20	1
119	122	2
85	85	7
126	128	1
37	43	6
25	26	5
28	29	13
0	0	9
7	9	5
54	60	7
51	54	2
23	27	4
107	111	3
129	131	8
95	118	1
68	68	13
86	95	2
9	17	1
107	109	1
59	79	3
48	48	3
102	104	1
69	77	3
81	81	8
129	134	12
13	34	3
55	56	11
83	84	2
106	108	4
48	49	4
92	116	2
65	67	1
57	58	2
75	102	3
107	108	5
78	80	2
64	65	2
111	130	2
109	111	6
35	36	2
88	91	1
61	83	3
105	106	5
54	57	1
90	99	1
69	70	6
116	117	3
111	115	1
126	134	1
30	30	2
118	120	1
58	79	1
16	16	5
130	133	3
75	101	1
66	67	4
13	32	5
103	127	3
87	91	3
44	45	7
32	34	2
80	81	4
77	80	1
82	85	5
38	38	4
126	127	4
35	57	2
93	126	1
111	112	9
9	11	1
107	116	2
74	89	1
18	23	1
24	26	1
70	71	2
115	117	4
5	6	3
16	21	3
62	64	3
99	118	2
94	117	3
65	68	6
86	86	14
92	118	1
93	104	1
103	104	3
100	106	1
33	34	2
98	99	1
8	9	2
96	119	1
13	89	3
62	67	2
116	119	2
105	128	2
30	32	1
113	115	6
55	60	2
90	104	1
45	45	6
127	129	4
26	26	2
66	87	3
46	66	2
82	83	2
104	112	3
94	99	1
16	17	1
49	49	8
46	46	3
110	114	1
19	21	1
103	112	1
10	15	4
64	66	1
117	118	5
45	89	1
128	130	1
103	128	1
44	44	2
112	114	4
72	73	3
100	115	1
62	88	1
36	38	6
20	36	1
106	110	1
66	84	2
105	107	1
97	98	1
50	51	1
1	2	5
54	56	2
119	126	1
74	76	1
33	35	3
61	65	1
75	76	2
126	129	2
53	85	1
55	86	1
82	82	3
122	123	2
7	63	1
91	121	1
56	58	1
42	42	2
127	128	2
34	35	2
85	92	2
99	121	1
70	79	1
81	83	1
57	80	1
30	33	2
108	110	2
11	12	1
110	113	2
129	130	2
123	131	1
101	124	1
67	69	2
106	109	1
1	103	1
101	103	1
65	89	1
2	24	1
101	126	1
25	27	1
93	112	3
47	50	1
19	22	1
60	81	1
52	83	1
62	81	1
107	114	1
85	91	1
