75	77	2
241	242	9
176	176	10
70	70	26
35	35	16
173	173	9
237	237	10
188	194	8
166	166	7
103	105	7
0	0	14
98	100	3
109	109	2
28	28	15
134	138	1
9	39	2
42	44	3
46	46	28
144	144	14
148	188	2
33	33	13
9	9	19
74	74	30
225	226	12
83	89	5
171	171	14
103	107	3
192	192	10
19	21	5
118	119	4
56	56	19
59	59	23
42	42	6
54	55	2
52	53	6
72	72	17
46	47	5
48	50	1
75	75	18
104	106	4
24	24	10
220	222	4
74	80	2
155	155	6
152	152	6
106	106	20
7	10	4
73	86	5
51	52	21
36	36	23
160	161	7
31	32	5
124	150	2
123	125	6
188	188	16
60	60	15
217	218	8
26	27	13
148	149	15
76	76	14
218	218	17
196	199	5
182	183	2
157	157	19
9	11	5
71	72	5
184	184	5
81	81	17
4	4	2
171	183	2
22	22	21
80	82	6
230	230	19
64	65	14
121	127	2
195	196	16
104	105	2
48	108	1
124	125	8
120	120	2
115	123	2
69	69	22
26	26	28
139	146	1
167	167	16
212	213	11
32	32	6
14	17	7
213	213	12
25	25	22
40	42	8
100	101	16
61	61	4
105	105	9
128	128	12
82	83	6
197	197	15
189	193	5
170	187	2
177	177	10
86	86	16
231	231	2
103	103	9
223	225	2
239	239	10
138	139	7
3	29	4
178	179	5
214	214	5
131	150	2
83	125	4
21	21	16
201	201	6
47	48	2
193	194	8
78	78	21
219	220	10
20	38	2
8	8	12
117	117	7
21	24	2
187	187	7
236	238	3
76	102	1
40	40	16
120	143	8
31	37	7
136	136	15
135	135	17
104	108	10
102	102	22
73	73	18
53	53	20
66	66	14
233	234	8
15	15	13
190	191	4
59	60	9
85	85	26
104	118	1
128	129	2
39	39	12
208	209	4
190	190	7
159	159	10
145	145	17
211	211	7
137	138	16
60	61	3
14	48	2
29	29	23
169	169	5
227	227	14
19	19	15
78	79	7
56	205	5
67	67	12
178	178	7
165	165	11
162	162	7
134	134	7
65	232	5
221	221	13
152	155	13
210	210	4
229	229	6
240	240	14
9	48	1
74	103	1
159	160	3
224	224	6
181	183	3
44	44	19
114	127	6
77	77	1
105	106	3
158	159	5
3	3	11
104	104	8
82	82	14
219	219	17
33	34	6
50	52	8
41	53	1
6	8	1
172	172	7
2	2	12
27	27	11
13	13	10
44	99	5
99	100	8
18	19	2
26	30	3
213	214	6
75	81	2
65	66	2
213	215	4
55	55	11
161	190	2
49	49	19
202	203	7
217	231	1
65	65	3
48	48	16
98	98	7
150	150	8
37	38	1
62	62	8
68	69	11
80	80	11
176	177	7
12	223	4
83	83	17
34	34	10
32	81	2
240	241	2
226	226	11
167	186	5
28	45	4
113	114	4
37	37	9
13	15	2
71	71	14
146	147	2
168	186	2
232	232	9
43	44	6
95	105	3
117	118	6
234	235	4
54	54	17
99	99	11
19	20	1
52	54	5
1	1	9
10	23	2
175	175	14
220	220	12
153	153	15
68	68	26
26	32	3
164	164	4
6	7	7
179	179	3
156	157	2
126	129	2
4	7	6
222	223	6
148	148	5
47	47	15
84	84	9
234	234	11
84	181	6
20	20	15
50	209	3
3	198	5
20	32	4
113	113	11
12	12	26
143	146	3
23	23	16
151	151	11
30	34	8
51	51	10
15	47	4
118	120	5
239	241	2
217	217	13
73	75	2
111	111	5
194	194	11
88	88	12
175	178	6
216	216	4
184	186	2
157	158	6
57	198	1
153	163	4
18	18	12
39	42	2
6	14	4
158	158	13
74	75	5
215	216	5
29	30	15
19	33	1
196	197	4
156	156	7
230	231	2
170	171	3
43	45	1
162	189	4
235	237	2
150	151	3
105	119	2
32	164	2
235	236	6
120	121	6
170	170	4
212	214	1
154	154	5
1	2	9
57	57	14
116	116	10
74	96	6
233	233	6
200	200	6
124	154	4
103	104	6
14	14	6
95	157	3
4	6	7
151	154	7
3	5	6
174	175	5
137	137	9
52	52	8
127	128	9
223	223	11
61	105	2
152	153	6
14	15	6
36	37	4
142	146	1
160	160	7
108	108	10
34	35	8
127	129	1
57	197	2
21	22	7
242	242	16
110	110	5
123	130	4
45	45	18
48	58	8
63	232	1
224	226	3
204	204	7
77	78	6
97	97	9
86	230	1
169	179	2
4	15	1
2	3	4
125	126	14
38	38	15
20	24	5
172	201	1
132	150	1
129	129	7
145	146	8
125	127	2
189	191	4
241	241	3
16	49	8
57	58	2
199	199	16
4	107	2
16	17	3
58	60	7
80	84	14
167	169	1
165	187	4
211	212	3
58	80	1
150	152	4
147	147	11
111	186	4
31	33	13
189	189	3
153	160	2
167	168	3
115	151	4
224	225	2
57	59	13
209	210	3
139	139	5
180	180	10
69	70	6
222	222	7
200	201	2
58	58	10
51	53	1
69	72	4
28	46	3
22	35	4
206	206	8
186	187	2
130	132	2
10	10	11
154	155	1
30	30	14
216	218	3
202	202	1
183	184	4
31	31	3
10	13	3
28	29	4
204	205	3
48	49	6
12	16	2
70	71	6
8	11	1
16	16	7
122	123	5
165	166	3
115	115	3
62	63	3
8	224	2
97	155	5
223	224	6
135	136	4
27	28	3
115	124	2
207	207	8
181	181	9
42	82	1
145	147	3
115	117	2
233	241	3
0	218	1
105	157	2
126	127	6
173	204	2
0	160	3
106	108	4
197	198	10
188	199	1
95	95	5
76	78	4
5	5	7
168	185	1
235	235	4
168	169	1
183	183	8
185	185	9
167	187	4
146	146	7
76	79	5
125	125	5
41	57	3
173	175	1
56	57	10
24	25	3
220	221	4
96	96	7
23	34	3
192	194	2
58	156	3
117	119	6
6	6	7
50	210	1
17	17	13
100	100	15
50	50	9
205	214	2
173	174	4
61	83	3
88	101	3
238	238	5
122	122	7
203	204	3
201	202	2
114	116	2
140	140	7
50	77	3
225	225	9
184	185	3
133	133	4
130	130	5
116	118	2
182	182	4
10	48	3
85	86	3
198	199	1
82	85	2
122	126	3
88	89	1
121	121	9
50	107	3
162	194	2
189	190	4
1	18	2
119	120	1
153	154	6
11	44	1
84	213	1
101	101	8
84	86	1
78	80	3
13	16	3
202	204	3
122	133	3
10	11	3
238	239	2
149	150	3
166	168	3
13	14	6
153	190	1
60	74	1
198	198	10
75	82	1
80	89	2
51	77	2
73	74	3
9	29	1
154	182	1
112	112	3
128	130	1
169	170	8
39	40	1
30	31	1
228	229	5
166	188	1
135	137	6
195	195	5
170	204	2
123	124	2
135	139	3
119	119	8
210	213	1
126	126	7
13	17	4
49	50	9
113	115	1
7	7	10
17	50	3
79	80	2
142	142	12
128	137	2
191	191	9
198	200	3
212	212	4
47	49	3
216	217	3
20	21	4
115	127	2
8	9	7
12	13	3
174	174	4
180	183	1
2	5	1
153	155	1
221	224	8
175	176	7
139	143	5
71	102	5
19	23	1
138	138	2
136	137	3
181	182	2
133	150	1
141	142	2
8	58	2
199	212	8
36	55	1
135	173	1
55	56	2
60	86	2
52	55	1
45	46	4
11	11	10
134	150	2
75	153	3
9	10	8
36	38	2
111	112	3
228	228	10
227	228	3
147	151	3
46	71	1
127	127	9
79	106	2
98	101	3
37	47	2
74	100	3
114	118	2
40	41	1
7	9	2
64	64	6
236	236	4
9	23	3
43	43	9
6	107	1
98	99	1
123	123	3
208	208	5
4	33	4
125	154	1
147	149	1
76	87	4
156	168	1
63	63	5
154	159	1
23	38	2
0	18	1
61	62	6
96	97	2
52	57	2
3	12	3
215	215	3
156	184	1
166	187	4
203	203	4
211	227	2
164	203	3
80	81	2
182	190	1
133	134	2
81	183	1
34	38	2
104	107	1
79	79	7
160	202	5
162	195	2
116	125	3
229	230	3
209	209	2
124	124	9
7	14	1
51	58	2
73	76	2
136	138	1
2	30	2
5	6	1
44	46	1
165	188	2
133	151	5
24	31	1
64	71	7
190	198	2
39	82	2
107	107	10
118	118	2
210	211	5
52	105	1
170	172	4
139	141	1
150	156	2
0	1	2
115	126	3
66	67	6
200	205	2
188	190	4
143	143	5
107	108	2
9	223	5
218	226	1
208	210	1
142	143	3
110	118	1
196	196	6
207	208	3
115	116	3
144	145	2
209	230	1
205	205	2
113	130	1
178	185	1
54	109	4
130	156	2
84	85	2
211	219	4
134	135	8
22	23	3
65	86	2
154	163	2
184	188	1
1	5	1
136	139	1
164	175	1
201	203	3
40	82	2
201	206	2
5	17	1
149	151	3
157	159	1
122	151	2
142	145	1
63	64	3
34	48	1
73	102	1
44	73	1
188	189	4
170	183	3
224	227	3
168	168	3
72	73	3
155	156	1
85	88	1
164	186	2
172	173	2
120	147	1
114	114	5
41	41	3
130	131	4
116	123	3
155	168	2
49	210	2
143	165	1
226	227	4
70	72	1
214	217	1
101	105	3
0	231	1
193	198	2
22	34	3
237	238	2
20	47	1
42	81	2
132	139	1
239	240	1
77	86	2
102	103	3
177	184	2
111	203	1
168	170	3
101	113	1
155	183	2
17	18	4
165	167	1
161	205	3
82	124	2
193	193	1
132	133	4
63	203	1
83	84	3
201	214	1
186	186	1
146	148	4
194	195	2
138	140	2
28	32	2
113	117	2
193	197	2
15	16	2
108	110	3
3	30	1
126	151	2
44	45	1
23	37	3
109	202	4
80	124	1
128	157	2
129	148	2
96	98	1
23	31	1
218	232	1
91	103	2
110	113	1
209	220	1
64	70	3
139	140	1
56	197	2
4	16	2
149	149	2
83	86	1
131	133	1
3	20	4
83	88	2
209	222	4
55	110	2
38	39	1
23	24	1
41	43	4
146	149	1
193	196	2
238	242	1
51	57	1
168	187	1
168	171	1
110	203	1
76	181	2
4	5	1
189	197	1
79	83	3
218	219	1
192	193	1
236	237	1
35	36	1
1	28	1
164	174	1
220	223	2
30	37	1
4	13	2
158	161	1
34	42	3
6	104	1
132	132	3
105	107	1
69	235	1
72	101	1
118	121	1
4	12	1
162	163	1
127	147	1
75	76	1
169	186	1
145	149	1
206	207	1
195	202	1
123	154	2
65	75	1
206	214	1
82	125	1
66	119	1
127	148	2
7	23	2
79	107	1
200	211	1
14	16	1
67	119	1
95	104	1
2	16	1
71	99	1
0	204	1
50	51	1
211	218	1
161	191	1
75	95	1
30	32	1
166	167	2
75	85	1
171	172	1
122	141	2
192	197	1
95	156	1
163	163	1
117	153	1
47	51	1
62	232	1
20	23	1
56	200	1
159	163	1
207	212	1
86	166	1
42	43	1
170	173	1
140	141	1
53	54	1
5	16	2
23	33	2
58	99	1
11	12	1
125	149	1
1	13	1
