46	88	1
58	81	8
47	47	9
31	31	17
33	33	6
34	98	2
22	27	1
69	89	4
41	41	5
77	103	2
21	21	19
52	52	19
43	43	10
42	43	6
93	93	19
76	76	21
93	96	3
67	67	13
105	105	14
75	75	13
57	81	4
97	98	13
102	103	10
83	83	9
79	80	8
41	44	1
35	35	7
59	59	13
62	62	10
81	83	3
62	68	4
63	63	10
31	55	3
93	94	6
61	62	6
87	88	1
79	81	4
43	44	7
24	24	22
29	92	2
80	80	21
53	61	3
44	45	5
90	93	2
97	97	16
42	42	16
77	98	6
41	60	1
39	39	10
25	25	19
47	79	6
26	27	12
72	72	14
67	71	6
90	90	14
74	101	1
40	41	3
92	92	3
22	25	4
106	106	1
78	78	20
49	49	9
88	88	9
48	90	4
73	73	11
83	87	2
70	70	8
57	58	9
27	28	5
100	100	10
68	69	13
53	53	10
86	86	5
85	85	12
37	37	3
92	93	4
78	79	7
57	93	1
33	76	2
48	48	11
80	81	9
20	61	4
56	56	9
87	87	6
64	65	8
60	67	2
74	99	5
26	41	3
40	89	2
53	54	1
94	94	13
44	44	3
37	38	3
32	32	8
46	78	1
62	63	4
20	21	4
82	82	12
66	66	8
22	22	8
68	68	18
21	22	2
74	74	9
28	59	6
95	95	9
50	50	19
102	102	11
46	47	7
44	78	1
91	91	9
81	87	3
34	36	2
34	34	7
69	100	2
96	96	16
30	31	2
33	95	2
29	30	6
33	42	2
70	98	4
99	107	8
20	22	5
29	29	13
45	47	2
20	29	2
54	54	7
51	51	11
98	99	6
41	42	1
51	52	4
95	97	2
50	75	1
21	30	3
23	75	5
83	84	3
38	38	16
23	23	15
60	60	4
58	58	6
89	91	3
47	48	3
69	69	16
59	66	2
57	57	10
46	46	4
45	76	1
84	84	8
58	59	2
45	88	2
29	93	4
54	86	5
36	36	2
94	95	10
32	34	5
66	67	1
40	45	9
45	45	8
46	48	3
64	64	18
104	104	8
77	77	5
71	71	2
41	90	2
101	101	12
83	91	5
47	90	2
26	26	4
71	72	3
28	29	1
36	98	6
81	81	8
40	40	5
39	41	2
84	85	8
61	61	10
98	98	2
92	94	5
23	55	5
89	96	6
40	76	1
31	43	3
59	86	1
58	71	1
69	70	3
59	67	2
84	87	2
103	105	4
52	90	4
50	51	2
65	65	2
48	49	8
25	45	7
74	97	2
82	83	4
51	76	6
67	68	5
59	91	4
77	78	7
69	98	1
79	91	2
85	88	3
59	73	2
46	84	2
45	78	2
63	68	1
36	37	3
31	74	1
28	71	2
97	99	5
88	89	7
49	87	1
70	72	1
60	71	2
20	23	3
89	90	2
28	46	1
75	76	2
81	94	1
79	89	3
22	26	2
99	99	6
51	89	5
79	79	5
104	105	1
49	89	3
65	68	1
40	44	3
47	88	3
42	44	3
58	90	3
52	53	3
30	30	5
46	57	1
27	30	1
48	103	1
39	43	5
54	55	1
20	104	1
81	82	4
39	55	1
58	84	3
54	65	2
38	39	1
76	77	1
27	27	4
54	72	1
86	87	5
78	102	1
55	55	5
22	74	4
32	97	3
27	29	1
20	25	3
74	98	1
78	91	1
50	92	1
34	74	1
23	33	1
22	24	3
83	85	1
34	70	2
50	77	1
62	65	1
81	92	3
100	102	1
20	20	7
89	95	3
88	94	4
45	77	1
46	83	3
82	84	2
103	103	1
101	102	1
21	72	2
26	29	1
78	100	2
35	36	1
85	87	1
27	46	3
89	89	2
54	62	1
36	38	2
28	28	2
21	25	1
83	88	1
46	79	1
37	39	1
52	91	1
77	93	2
34	35	1
78	81	1
23	45	1
66	72	1
42	91	1
42	60	1
41	89	2
76	93	1
88	95	1
84	86	1
48	83	1
90	96	1
23	24	1
70	71	1
40	42	1
24	45	2
45	96	1
20	28	1
57	80	1
29	94	1
22	36	1
