110	113	1
12	27	1
120	128	1
64	79	5
56	56	9
5	78	3
154	160	1
6	6	4
53	54	1
121	125	2
159	159	1
1	1	5
106	106	4
64	64	5
145	145	3
31	33	2
91	94	4
40	41	6
25	25	9
139	139	14
29	30	4
38	38	17
41	41	3
153	155	2
21	58	4
82	82	9
46	47	2
29	29	6
39	95	1
1	42	1
169	169	5
57	58	2
32	32	6
147	147	12
182	183	8
116	116	3
127	127	5
110	111	5
62	62	7
172	172	2
126	126	7
36	36	9
55	55	4
130	130	14
24	24	4
62	64	2
121	121	4
7	29	2
108	108	8
155	156	4
3	3	7
15	16	2
25	128	1
107	107	7
162	162	6
46	93	2
128	129	3
136	143	3
30	36	2
122	124	3
170	170	11
107	149	3
129	129	2
77	79	2
27	27	7
91	91	8
89	89	12
112	157	3
123	123	6
99	111	5
78	79	7
119	119	1
6	43	7
138	157	2
144	144	5
156	156	14
149	150	7
27	29	5
92	92	7
21	21	5
20	31	2
110	159	10
19	139	2
43	43	8
133	133	4
125	127	3
26	126	2
21	119	4
68	79	3
59	63	2
17	21	4
64	81	2
188	189	3
22	27	4
138	138	4
34	34	1
52	82	3
101	102	6
186	186	9
158	158	7
110	110	10
45	92	2
143	143	3
105	115	1
4	4	4
95	95	4
84	86	2
136	136	10
43	83	3
22	22	7
55	56	2
16	16	3
53	71	1
149	149	7
7	7	10
120	127	3
90	91	2
115	116	4
53	58	2
16	37	2
23	23	7
171	172	5
77	77	10
64	75	4
10	10	5
109	110	3
153	153	7
187	187	8
105	105	2
122	122	6
124	124	9
42	43	3
154	155	3
169	180	5
148	149	1
131	133	2
46	46	4
67	93	3
54	54	6
166	166	2
66	94	3
113	114	4
16	55	6
3	113	2
136	137	1
96	98	2
173	173	8
161	162	12
84	85	1
109	109	5
14	14	4
13	13	2
88	89	1
26	26	6
129	142	1
163	171	5
73	73	2
187	188	1
4	78	5
28	29	11
156	157	3
68	68	7
18	59	3
19	26	4
3	6	9
148	148	5
163	163	3
42	42	6
152	154	2
128	128	6
34	35	1
135	135	10
19	19	3
113	159	2
5	5	5
85	86	3
16	17	2
30	31	4
157	157	5
46	92	3
117	118	1
72	108	7
70	107	3
112	112	4
61	61	9
31	31	2
67	91	1
59	59	1
134	134	5
100	100	8
10	97	2
175	177	4
28	33	3
79	79	6
142	142	3
45	45	2
120	121	8
124	127	4
145	150	1
6	87	1
32	33	3
25	61	5
109	112	1
121	126	1
58	58	2
145	147	6
10	22	2
19	29	2
88	88	5
141	141	4
10	12	3
83	85	5
118	149	3
65	73	4
12	12	4
148	153	5
0	0	5
40	40	3
63	63	3
37	37	4
23	40	3
38	103	2
11	22	3
178	178	4
159	160	4
101	101	3
74	74	7
28	28	4
69	70	3
17	82	1
73	108	2
6	7	4
177	177	2
154	154	11
87	87	9
146	146	2
189	189	2
47	47	2
123	124	4
28	84	2
28	61	1
86	87	2
39	39	5
155	155	2
62	63	6
24	97	1
17	17	4
188	188	2
30	32	3
103	103	4
146	154	2
54	82	2
94	94	5
137	137	8
20	42	1
99	99	3
124	125	1
125	128	1
92	93	4
57	132	3
25	40	2
167	168	2
6	30	4
72	72	10
68	92	2
17	24	1
32	124	1
97	97	6
163	174	2
46	64	4
70	71	5
89	162	4
97	98	3
102	104	5
86	86	3
20	22	2
184	184	3
76	76	3
30	30	3
15	98	1
129	138	4
151	151	4
12	96	1
54	55	2
109	159	2
18	96	3
28	44	2
93	93	3
144	154	1
65	65	3
77	78	2
39	77	2
44	80	2
67	67	1
8	8	5
101	134	2
111	112	5
39	114	1
150	151	2
12	13	5
103	140	4
164	164	4
110	150	2
126	177	2
21	23	2
12	14	3
18	24	2
19	22	7
71	103	3
3	107	2
132	135	1
71	71	3
0	59	2
179	182	3
3	99	1
57	80	2
189	190	1
143	144	2
115	115	3
163	172	3
147	155	3
174	174	1
151	153	2
176	182	2
65	70	4
151	173	1
97	99	3
48	48	1
152	152	6
99	100	1
17	35	3
83	83	1
104	150	3
15	15	4
113	113	1
85	90	1
0	2	2
1	7	3
89	91	2
53	72	2
127	175	2
65	66	2
65	71	1
60	61	4
146	156	2
76	77	4
53	53	3
32	34	1
21	97	3
37	56	3
40	110	1
81	85	2
147	148	1
59	64	2
102	107	2
162	163	7
157	158	2
125	126	1
164	165	1
144	171	1
102	102	3
36	61	1
161	161	1
28	32	3
66	128	1
23	24	1
160	162	1
7	13	1
66	73	1
43	78	2
117	117	5
42	56	1
67	73	1
18	27	1
4	5	3
2	34	3
24	41	1
31	123	3
13	14	2
14	15	4
116	117	5
135	137	1
160	160	4
65	68	1
101	115	2
73	74	1
2	2	1
24	26	1
14	32	2
186	187	1
44	44	1
66	109	2
32	61	3
19	27	1
31	32	2
167	167	1
54	58	1
122	164	1
24	62	1
144	174	2
85	85	3
131	131	2
80	81	1
76	84	1
22	23	1
176	183	1
117	119	1
19	20	1
104	104	3
165	165	3
37	95	2
125	125	5
98	98	3
111	111	2
90	90	1
22	24	1
78	78	1
104	106	1
20	32	1
118	118	3
44	47	2
181	182	1
32	88	2
102	151	1
134	135	2
1	8	1
66	66	3
58	63	3
11	23	1
46	82	1
91	92	1
20	20	3
95	96	1
144	162	1
150	150	2
33	34	1
3	8	1
60	60	1
29	32	1
44	45	2
146	147	1
140	140	2
103	109	1
182	184	1
127	136	1
24	25	1
80	80	1
106	131	1
45	46	1
130	136	2
25	37	1
145	154	1
36	44	1
52	58	1
102	108	1
114	115	2
18	18	1
183	183	1
21	22	1
22	58	1
80	82	1
142	143	1
74	75	1
141	142	1
110	139	1
59	62	1
20	27	1
176	177	1
23	57	1
13	99	1
100	103	1
16	42	1
17	18	1
