53	53	7
0	1	2
121	121	4
70	71	8
129	129	13
62	64	6
103	103	18
35	86	3
125	142	6
125	125	16
108	109	9
71	86	2
69	72	2
36	92	3
38	38	7
129	130	5
83	84	5
17	26	6
137	137	17
61	61	14
76	76	2
24	25	1
115	115	13
37	37	10
71	74	3
98	98	6
112	112	5
107	108	5
136	137	28
39	42	5
28	55	3
122	123	7
48	48	7
123	123	13
124	124	33
17	17	3
131	133	1
29	29	10
125	126	5
77	77	4
10	66	6
22	69	6
22	22	12
142	142	10
5	5	6
115	116	4
83	104	2
89	130	3
133	136	2
118	119	5
26	26	17
94	94	11
136	136	27
140	140	18
85	90	6
79	79	18
101	103	3
94	95	2
27	27	5
62	62	10
0	0	14
133	133	19
72	72	9
31	31	5
65	65	6
36	77	4
96	97	7
110	137	3
85	123	5
102	102	11
2	25	3
1	1	6
114	116	2
8	8	21
30	30	12
8	42	1
73	73	4
92	93	14
20	20	7
52	52	5
128	128	9
61	127	1
66	67	3
127	128	5
99	99	8
92	92	20
108	131	2
145	145	10
2	2	8
34	35	12
119	120	7
11	11	5
100	101	4
37	42	3
63	63	14
25	25	13
111	111	30
134	135	1
40	40	14
30	40	3
56	84	2
58	58	7
141	142	3
110	111	11
126	126	10
83	96	3
143	143	12
134	134	9
110	110	12
21	21	15
110	123	1
76	79	4
91	121	3
6	67	2
28	28	11
138	138	11
89	90	8
0	6	1
108	108	19
139	139	15
32	32	14
12	13	8
141	143	8
29	32	4
88	88	15
65	92	3
57	57	10
38	39	4
106	133	2
82	131	2
49	52	3
24	24	16
34	65	3
55	65	3
63	65	10
80	91	2
121	138	4
120	120	14
98	121	2
83	86	7
86	87	3
60	60	5
94	102	2
115	118	3
78	78	4
41	41	18
51	51	13
74	75	1
75	75	18
118	118	8
100	100	6
132	132	18
34	34	4
42	42	12
34	36	5
131	141	3
39	40	2
39	39	9
105	105	5
41	80	1
107	136	2
110	112	2
96	96	7
49	49	11
108	132	3
127	139	1
86	86	3
119	131	1
92	104	4
72	88	5
14	14	10
131	131	17
72	145	1
50	75	3
117	117	13
13	13	13
35	35	3
134	136	11
61	62	6
125	131	3
58	64	5
136	138	3
97	97	4
1	25	3
109	120	2
89	89	4
122	122	9
9	9	7
86	128	3
61	91	1
69	70	1
103	104	5
92	102	5
93	93	8
107	141	2
3	3	10
97	98	5
112	118	3
107	107	11
66	66	4
13	14	6
139	140	7
50	50	17
53	72	3
128	130	6
62	65	2
47	47	12
64	64	12
101	101	13
78	79	5
30	38	3
70	70	3
95	95	14
53	73	4
119	119	13
59	59	8
83	83	11
135	138	1
23	23	8
92	94	8
127	127	12
15	16	5
108	118	1
71	72	5
28	29	4
131	132	9
109	134	3
71	71	12
56	56	6
141	141	14
146	146	7
116	116	7
28	42	5
84	84	12
43	115	3
80	80	13
80	95	2
106	106	13
135	135	15
68	69	3
91	115	3
35	36	2
62	127	5
1	6	6
29	30	1
122	140	4
125	139	2
55	56	3
138	139	1
39	70	5
81	105	1
68	68	6
82	82	7
50	76	4
4	6	1
48	53	7
54	54	5
103	119	3
132	133	2
60	90	1
138	142	5
50	52	3
34	37	5
3	5	2
69	69	8
55	55	9
82	91	3
9	11	1
41	42	1
62	109	2
18	18	2
33	58	3
42	43	2
38	123	3
85	89	2
52	117	3
81	99	1
130	130	10
134	139	2
113	117	3
33	33	2
6	6	5
111	112	4
140	141	6
39	80	3
53	54	5
125	144	1
27	28	4
109	109	5
4	4	3
93	94	4
121	128	1
58	59	5
35	63	3
12	12	4
50	80	2
130	131	1
10	11	3
6	7	3
109	125	1
144	144	1
2	20	1
97	109	3
91	91	5
16	16	2
120	133	2
91	116	5
33	38	2
120	132	2
2	72	4
23	104	2
57	58	4
11	15	1
136	139	2
52	54	2
10	10	4
124	125	2
51	52	1
88	97	2
91	122	2
19	19	4
96	104	2
17	29	2
133	134	6
87	88	2
105	107	7
113	114	1
81	84	1
109	138	2
85	110	3
137	138	4
135	136	2
99	103	2
61	142	1
90	90	3
16	32	2
67	131	2
81	81	5
82	83	2
87	95	1
5	6	5
33	36	7
92	114	3
143	144	4
69	74	2
111	121	1
120	126	3
135	137	1
122	126	2
122	125	1
88	89	1
38	74	1
38	73	1
82	119	3
36	60	1
32	33	3
81	122	2
61	63	1
93	98	3
114	114	3
28	37	1
85	88	2
36	36	2
93	97	1
76	77	3
63	64	1
70	77	2
121	122	3
33	34	6
6	14	1
79	93	1
105	106	2
31	37	1
35	58	3
84	90	3
73	74	3
91	114	1
39	67	2
74	81	2
54	56	2
43	43	1
98	99	2
34	66	3
51	83	2
70	72	3
29	56	4
3	13	1
53	87	2
40	72	2
59	87	4
115	121	1
34	63	2
4	99	1
67	67	2
80	114	1
47	54	2
79	80	1
8	9	1
107	134	2
17	19	1
51	116	2
108	135	2
49	50	3
106	113	2
112	117	3
48	54	1
40	43	1
48	49	1
19	21	1
73	75	1
11	14	2
63	66	1
104	110	1
82	118	1
10	17	2
34	144	1
59	64	1
96	113	2
64	65	1
83	110	1
114	135	1
65	66	2
107	142	1
27	70	1
145	146	2
15	15	2
31	32	3
48	60	3
126	129	1
116	117	1
89	106	2
138	140	1
117	143	1
104	105	1
20	52	1
73	116	1
19	20	1
3	10	1
74	74	1
68	73	1
1	21	1
82	101	1
130	132	1
85	87	1
1	9	1
85	85	3
23	25	1
13	39	1
56	103	2
81	98	1
113	118	2
77	78	2
111	114	1
61	81	1
125	141	1
118	124	1
63	88	1
20	21	1
52	79	2
22	23	1
106	107	1
133	138	1
33	35	1
106	131	3
36	66	1
93	95	1
95	99	1
103	107	1
110	114	1
58	62	1
84	85	1
52	118	1
82	99	1
