99	100	1
73	73	7
75	75	8
22	30	2
92	107	6
41	41	5
141	141	12
77	115	1
123	124	5
66	66	9
71	71	9
94	116	4
109	109	5
18	19	3
92	92	12
16	120	5
79	80	6
22	22	14
103	103	13
137	137	6
14	14	4
27	27	4
135	135	8
107	107	6
54	55	3
13	13	15
36	37	4
131	132	1
91	97	4
94	94	7
57	58	3
49	49	1
38	38	9
58	58	4
38	90	1
127	127	13
14	15	12
94	95	6
42	42	5
134	143	2
133	133	20
55	55	6
36	36	12
132	132	12
48	48	10
128	128	3
69	69	9
91	91	8
74	91	2
21	21	2
1	1	4
24	24	6
50	51	3
17	17	4
11	11	6
126	126	7
37	37	5
101	101	8
20	24	1
139	139	5
67	69	4
100	100	8
15	15	3
138	139	3
125	130	1
80	80	4
96	98	2
43	43	7
104	105	4
29	29	11
25	27	3
83	83	4
118	119	7
119	119	12
0	0	2
62	63	7
63	90	1
111	112	1
129	129	14
126	127	2
52	52	3
26	36	6
31	131	1
90	90	5
89	89	2
68	68	4
130	130	5
10	10	3
116	117	3
122	122	7
121	121	7
78	79	3
122	123	7
99	101	1
88	88	5
124	141	3
33	50	2
95	115	6
38	89	3
20	20	4
74	74	4
31	31	6
119	123	5
4	19	1
8	39	5
125	125	7
40	41	2
88	91	1
22	27	1
74	75	6
59	59	10
8	9	20
127	130	4
110	110	12
19	19	7
32	32	5
61	61	6
10	11	2
30	30	11
81	81	3
132	133	1
55	73	1
119	120	5
96	96	3
117	118	8
120	120	10
81	82	1
104	104	9
102	102	13
115	115	7
40	40	2
70	70	14
34	34	7
56	56	5
32	33	7
53	54	5
27	28	10
116	116	2
83	96	2
8	66	3
108	110	5
79	79	10
124	124	5
110	111	4
114	127	2
144	144	12
39	65	2
113	113	2
95	95	8
123	123	4
51	53	3
67	68	1
80	81	3
137	138	1
136	136	13
6	6	5
79	117	2
16	16	2
4	4	3
57	62	2
23	24	2
24	25	4
123	125	3
77	77	2
124	125	5
133	134	5
56	98	3
54	75	1
15	16	4
8	8	6
24	131	4
9	9	3
109	110	1
111	115	2
103	105	5
25	26	4
97	97	3
140	140	1
49	69	1
118	120	1
34	35	2
68	69	1
12	13	2
114	115	5
51	51	2
65	65	3
98	98	2
42	43	1
118	118	7
91	93	2
23	25	2
118	124	2
140	141	5
86	111	2
67	67	3
8	41	1
130	132	2
3	4	2
27	31	1
51	99	1
125	127	3
63	64	2
57	57	3
101	145	1
26	55	3
54	54	7
93	97	1
87	90	1
12	16	1
53	53	4
108	108	1
139	140	2
14	119	1
13	14	8
100	101	2
38	39	2
55	132	1
86	86	3
130	141	1
71	74	2
5	5	4
43	100	1
63	73	2
93	107	3
28	28	2
1	2	4
26	27	1
47	47	2
127	129	1
51	52	3
95	97	2
78	78	4
84	84	3
113	116	2
14	34	3
9	10	3
135	136	2
119	133	2
18	18	4
102	103	4
115	117	1
1	6	1
133	140	2
62	62	2
83	84	4
127	128	3
115	116	3
143	144	1
16	105	1
96	136	2
142	142	2
35	36	4
107	109	2
55	66	1
48	50	3
63	63	2
34	66	2
134	134	6
114	117	3
3	3	1
95	117	1
63	65	2
40	42	1
131	131	4
21	22	5
21	43	3
49	61	2
52	53	1
54	56	1
32	38	1
6	106	1
2	3	1
41	42	2
120	124	3
59	96	1
28	30	1
82	84	1
26	41	3
82	83	1
39	39	3
94	105	1
5	107	1
2	2	6
93	93	1
25	25	3
23	23	2
83	97	1
27	87	2
96	97	2
103	119	1
30	141	1
130	134	1
64	65	2
6	105	2
12	12	2
16	48	1
36	66	1
120	121	2
109	111	1
141	142	1
50	63	2
55	56	1
35	35	1
33	33	1
82	82	1
80	82	2
79	115	2
125	134	1
37	38	2
90	91	1
19	104	1
59	60	1
20	104	1
50	53	1
76	111	2
97	98	1
93	94	2
112	125	1
131	133	1
53	134	1
58	62	2
126	128	1
34	65	2
68	70	1
133	137	1
25	81	2
29	126	1
89	90	1
102	125	1
133	135	1
58	59	1
30	131	2
98	99	1
6	108	2
19	22	1
87	109	1
142	143	1
60	99	1
39	40	1
72	72	2
112	112	1
93	116	1
136	137	1
89	91	1
108	109	1
120	123	1
18	22	1
42	78	1
