83	83	15
187	187	1
102	104	2
55	55	5
28	28	2
26	36	4
121	121	9
39	40	5
135	135	7
129	129	16
31	31	7
101	104	2
2	5	3
156	157	2
143	143	6
106	106	6
44	78	5
29	29	5
164	165	6
76	76	7
110	110	16
84	94	8
179	181	4
170	170	13
5	7	8
123	123	8
138	139	10
63	64	3
14	27	3
147	147	13
63	68	9
154	154	8
156	156	9
16	16	11
54	55	4
38	38	7
0	0	13
84	85	5
141	141	4
6	6	8
96	96	6
79	79	7
58	63	3
78	78	11
41	41	10
75	76	6
14	14	16
187	188	3
91	91	8
76	78	5
11	120	1
12	14	4
185	185	4
141	142	4
86	87	10
27	28	11
88	89	4
13	13	4
14	30	3
78	88	2
162	163	6
94	95	5
84	84	7
16	17	6
130	130	10
152	152	5
143	153	3
180	181	4
47	47	8
177	178	4
30	31	11
56	57	2
153	153	10
25	25	4
108	112	5
170	171	5
122	122	5
44	44	7
160	160	7
66	67	2
110	134	2
155	156	9
66	66	2
168	169	1
104	105	5
146	154	3
175	175	5
109	111	4
74	74	8
46	47	4
13	14	3
93	93	2
148	164	1
157	157	3
112	112	6
121	122	2
100	104	3
108	108	8
114	114	8
89	90	4
2	2	13
18	18	3
100	100	1
90	90	2
63	63	1
97	100	1
22	38	1
109	109	4
113	114	7
57	57	10
28	33	3
42	42	10
40	40	11
22	25	3
99	99	4
72	72	12
187	190	2
97	97	4
11	12	4
59	59	7
22	22	5
53	54	10
12	12	11
85	85	4
86	86	3
169	170	3
70	90	2
7	7	10
14	15	8
67	68	3
77	78	2
61	61	5
1	1	5
140	142	3
172	172	5
179	179	5
122	123	2
132	132	7
159	159	5
19	20	4
23	25	1
145	155	3
82	82	6
137	138	4
127	128	5
146	148	9
11	13	4
158	158	4
131	132	3
160	163	2
105	105	3
110	111	4
65	65	6
147	148	4
75	75	12
121	153	2
18	23	2
4	4	3
17	17	8
73	74	3
138	144	1
144	144	3
30	117	1
81	82	4
43	44	3
152	153	8
160	162	3
177	177	3
24	24	10
94	107	2
176	177	4
87	87	4
9	9	8
106	137	1
84	95	5
80	81	3
150	150	4
82	83	3
37	40	2
58	59	2
138	138	6
95	103	1
18	19	2
103	103	6
67	67	3
91	92	3
145	145	7
96	98	2
136	139	4
111	111	3
81	84	3
166	166	1
53	53	12
149	149	6
21	21	3
58	112	4
5	6	5
21	22	1
121	154	3
109	110	2
104	113	2
7	8	3
87	88	5
184	184	6
101	102	2
9	10	3
85	86	3
48	48	10
164	164	6
107	107	2
150	165	7
113	113	7
30	30	6
56	56	2
88	88	9
59	113	4
65	70	1
140	140	4
11	11	3
127	127	8
55	56	2
125	125	2
171	171	6
73	73	7
34	35	3
157	163	4
100	101	5
118	118	9
30	36	3
11	121	3
89	89	7
45	46	2
152	155	1
36	36	8
20	42	2
182	184	2
22	63	5
133	133	3
54	57	2
103	104	1
106	107	3
35	188	1
188	188	5
161	161	4
181	181	2
90	95	3
138	141	1
56	141	2
77	77	7
71	71	4
33	33	5
23	23	4
57	58	2
57	109	1
15	16	4
173	173	2
10	12	3
5	5	7
140	153	2
35	35	1
0	1	3
174	175	3
124	124	11
128	128	2
148	148	6
43	43	8
96	100	2
162	162	3
63	65	1
155	155	3
37	41	1
34	34	3
119	119	2
46	74	1
118	147	3
54	54	7
15	15	6
10	10	1
22	24	1
4	5	3
115	115	3
26	26	5
37	37	4
47	48	1
7	121	3
77	109	2
128	130	2
30	188	4
116	116	5
109	112	2
120	121	2
140	141	2
49	76	2
3	3	4
136	137	3
37	42	3
176	176	5
118	119	3
39	39	7
124	125	1
120	123	3
92	92	7
17	18	2
94	94	3
185	186	1
139	139	10
1	2	3
12	13	3
165	170	2
20	20	1
165	166	1
52	52	1
95	95	3
74	76	1
151	151	3
137	152	5
122	155	2
80	80	1
143	145	2
98	103	2
104	108	1
147	165	2
4	6	2
155	161	1
182	182	3
119	145	1
53	79	4
126	127	2
130	132	2
103	106	1
190	190	1
160	161	2
167	169	1
58	129	1
120	120	2
28	30	1
83	108	2
70	70	4
188	189	1
185	187	2
55	122	1
139	140	2
16	29	1
47	75	1
142	142	5
58	58	4
172	173	3
96	107	1
74	75	1
28	37	1
166	179	2
81	81	1
136	138	2
59	61	2
8	8	5
182	190	2
139	153	1
140	146	2
41	42	2
24	30	1
101	101	1
90	92	2
175	176	1
78	79	1
159	166	1
132	133	1
146	146	1
166	184	1
153	154	2
167	167	2
131	131	2
153	155	1
48	77	3
23	38	1
35	37	1
32	33	2
98	99	1
115	133	1
134	135	1
183	183	4
142	144	1
8	12	1
19	42	1
19	19	4
44	55	1
36	38	1
25	26	1
38	41	1
36	37	1
128	140	2
83	84	1
187	189	1
29	31	1
148	149	1
24	38	1
96	97	1
68	68	1
38	185	1
154	163	1
128	135	2
67	92	1
31	119	2
27	27	1
68	111	1
23	65	1
154	155	1
163	163	1
7	15	1
160	183	2
137	140	1
6	35	1
114	115	1
30	122	2
23	75	1
106	113	1
174	174	2
46	46	1
20	22	1
82	84	1
68	70	1
82	92	2
23	24	1
111	112	1
65	81	1
69	70	1
85	95	1
81	110	1
44	60	1
183	184	1
100	156	1
178	178	1
143	148	1
152	154	1
146	147	1
