100	100	6
75	75	10
11	93	10
31	32	6
111	111	14
14	14	11
58	58	3
45	45	20
85	85	13
62	62	16
105	105	3
126	126	11
115	116	6
116	116	8
96	96	2
12	96	4
115	115	4
110	111	3
51	56	3
113	113	12
28	80	6
87	100	2
109	109	4
21	21	10
127	132	2
128	128	9
7	20	6
29	93	3
87	87	5
114	114	2
69	69	11
121	121	4
74	74	7
31	46	4
25	25	13
88	89	5
118	118	3
27	29	1
26	82	1
38	38	15
48	48	12
102	102	14
46	47	3
4	90	2
33	34	2
24	24	3
12	47	3
129	130	4
79	80	3
88	91	1
65	65	3
88	88	8
26	26	11
123	123	9
42	42	11
29	29	12
7	7	7
30	31	1
9	11	1
37	37	11
120	120	5
78	78	15
43	43	5
23	23	7
6	6	4
99	100	6
10	10	5
123	128	1
41	41	3
108	109	6
35	75	2
54	54	2
11	11	8
93	93	12
101	101	2
8	8	12
66	66	4
67	67	4
19	22	5
76	77	5
4	100	8
43	93	2
96	99	2
72	72	14
61	61	4
94	95	5
12	35	3
64	64	24
46	46	7
94	96	3
77	77	7
6	8	7
87	101	2
9	9	14
5	10	1
93	110	3
15	15	5
10	22	1
112	112	8
7	15	3
91	91	11
76	76	8
39	40	3
43	83	3
11	100	1
131	131	2
87	99	2
39	39	11
14	24	1
30	32	7
9	10	2
119	120	7
81	81	9
42	104	1
130	130	3
83	84	4
13	14	5
72	73	6
59	59	12
36	41	2
58	60	2
31	31	6
5	6	3
15	21	9
124	124	8
94	94	8
56	60	2
99	101	6
33	33	11
108	108	10
80	80	7
104	104	2
28	32	3
79	82	4
19	19	8
86	111	4
86	86	2
112	113	8
45	90	3
47	47	15
35	35	6
27	47	1
15	31	2
78	97	2
83	83	7
73	77	1
20	43	2
22	22	2
13	13	4
60	61	2
40	41	6
60	98	3
92	93	3
20	37	1
130	131	3
73	73	13
42	59	2
17	57	3
7	14	1
78	81	2
30	30	3
57	82	4
77	78	3
39	43	4
20	21	8
95	96	2
78	82	1
132	133	7
12	12	6
3	3	5
17	56	3
36	38	2
32	32	3
13	15	5
20	42	3
63	64	7
27	32	1
63	70	3
34	34	7
26	78	4
63	63	12
77	107	4
111	112	3
67	68	1
41	42	6
68	70	4
96	97	3
97	97	4
106	110	3
44	44	5
1	2	9
79	79	4
7	41	2
21	31	2
17	18	2
22	26	2
114	126	2
56	56	2
11	36	3
24	25	4
10	85	3
60	60	9
92	92	5
36	36	14
26	27	2
29	49	5
73	74	4
28	91	7
3	6	1
84	84	6
20	30	1
8	32	2
104	105	2
16	16	2
79	133	4
20	22	3
84	85	2
98	98	4
22	23	5
21	36	3
29	109	1
8	9	1
37	65	1
10	20	3
128	129	2
127	127	1
113	134	2
13	45	1
117	117	4
5	5	1
40	40	3
6	11	1
112	134	4
82	82	5
39	81	1
35	36	3
86	93	1
0	0	9
71	71	4
38	82	2
31	47	2
65	98	2
102	103	6
90	100	6
20	20	4
45	100	4
103	104	2
32	34	1
8	14	2
39	82	2
4	36	2
17	17	1
8	10	2
85	124	4
4	5	1
11	55	2
22	35	2
18	45	2
100	101	6
25	47	5
57	81	2
89	89	3
11	29	1
107	107	1
5	15	1
45	60	1
18	18	5
50	50	1
8	13	3
114	117	1
28	92	1
28	28	2
28	82	1
87	88	1
11	78	1
37	39	4
49	61	1
27	92	2
57	57	3
28	90	3
134	134	1
29	30	6
90	90	1
78	134	3
8	90	3
7	13	2
88	111	1
98	99	8
67	71	1
43	84	1
97	99	1
129	129	4
71	72	2
27	28	4
85	123	2
45	47	1
68	71	1
81	84	1
55	55	3
59	60	1
45	66	2
4	7	5
95	116	2
7	11	2
26	93	1
44	45	4
68	68	2
29	32	2
78	93	1
48	100	2
45	46	1
7	100	2
65	66	1
65	96	1
29	59	1
32	79	3
86	127	1
119	119	1
27	27	2
57	58	2
126	127	3
69	76	2
6	57	2
6	14	3
97	98	2
115	126	1
100	102	1
99	99	5
28	78	2
14	44	1
15	16	1
95	95	3
4	4	1
70	70	1
106	106	1
20	28	2
68	69	1
45	61	1
120	122	1
124	126	1
10	73	2
69	70	1
104	110	2
62	74	2
113	114	1
8	91	1
32	33	2
80	81	1
60	83	2
38	40	1
7	55	1
6	91	1
85	113	1
125	125	2
19	33	1
11	12	1
94	99	2
103	103	1
27	90	1
78	112	3
10	35	1
115	117	3
56	57	2
133	133	1
120	121	2
62	66	1
6	7	1
101	102	1
82	88	1
45	63	1
34	35	1
84	92	1
113	133	1
82	84	2
83	119	1
119	122	1
10	13	1
55	56	1
