32	33	2
40	40	18
65	65	10
3	3	15
54	55	11
62	62	12
19	19	12
54	71	3
15	16	4
14	31	5
30	30	12
42	42	23
60	61	6
29	30	3
33	33	12
17	17	19
46	46	19
71	71	10
78	78	16
8	9	12
73	74	6
9	9	22
14	14	7
13	13	10
2	3	6
53	54	14
49	49	16
73	73	25
55	57	4
80	81	2
73	79	2
12	12	9
20	20	9
12	14	3
7	7	21
6	6	25
66	66	15
16	16	31
75	77	5
17	18	5
45	45	10
1	1	15
42	52	3
8	8	8
77	77	14
74	74	35
75	75	10
50	50	10
0	0	15
67	68	11
28	29	3
49	52	9
10	21	4
3	36	1
79	79	16
58	58	18
2	2	26
55	55	37
5	6	5
5	5	17
28	28	21
74	75	13
27	27	20
63	63	26
48	48	30
34	34	7
12	13	7
21	57	5
50	51	13
36	36	9
26	26	23
58	59	8
1	2	8
38	38	26
56	56	15
57	58	1
40	41	4
69	69	11
39	39	26
16	17	7
19	26	3
29	29	23
41	46	1
7	8	4
47	47	18
10	10	9
35	35	7
15	15	5
54	54	18
25	25	9
64	64	10
61	61	15
47	48	7
55	56	5
57	57	26
37	38	5
54	68	2
72	72	13
62	63	3
76	76	20
43	43	3
52	52	6
80	80	11
59	60	10
4	75	3
3	4	6
64	65	3
42	78	2
52	68	1
70	70	5
29	34	1
37	37	16
37	73	5
49	50	9
41	41	8
25	36	1
59	59	10
53	53	25
17	71	3
60	60	6
75	76	6
36	37	8
38	39	6
19	20	4
67	67	17
61	62	7
77	78	3
33	37	2
13	14	6
18	18	5
66	67	2
31	31	8
6	75	2
58	65	5
26	55	3
17	19	6
26	27	4
11	14	1
25	26	5
53	66	2
51	53	4
63	64	12
28	37	1
22	22	3
20	26	1
65	66	7
51	52	10
0	1	2
72	80	1
30	42	1
11	11	7
41	60	2
77	79	4
8	18	1
74	80	1
72	73	1
78	79	5
21	21	6
13	15	2
19	70	1
68	68	15
59	66	1
56	57	3
4	4	7
69	70	5
81	81	6
18	29	1
50	52	1
54	70	1
76	78	3
12	20	4
30	34	1
6	7	1
34	35	2
9	10	1
73	80	4
67	70	4
31	32	4
39	46	2
13	32	1
58	77	2
48	49	3
40	49	5
46	47	2
4	5	5
30	31	2
33	34	5
20	25	2
52	53	6
15	17	1
60	62	3
9	61	1
21	31	3
26	57	1
42	43	2
49	55	1
3	37	1
37	71	1
14	15	2
63	66	2
27	28	2
51	51	3
70	71	1
49	51	1
6	10	1
16	36	1
79	80	1
58	61	1
37	74	1
17	37	1
53	71	1
52	54	2
32	32	1
71	72	1
53	56	2
5	39	1
39	41	1
49	56	1
26	34	1
28	41	1
