89	89	17
74	104	3
29	29	7
120	120	20
31	32	7
34	36	7
81	81	14
82	83	7
95	95	15
9	10	2
137	137	26
106	106	10
5	18	2
110	110	16
125	126	8
87	88	8
134	134	32
113	114	7
133	133	15
124	124	30
127	127	29
123	124	12
114	114	16
134	135	8
72	73	6
92	92	13
135	135	21
8	9	3
26	27	3
138	138	31
93	95	4
87	87	27
33	33	10
91	91	27
34	34	14
15	17	5
17	18	7
4	4	5
94	117	3
72	72	11
103	103	21
90	90	16
97	97	10
95	96	8
117	117	22
129	129	29
125	125	27
98	135	3
113	113	23
71	71	16
16	17	9
128	128	14
101	101	19
20	20	27
80	80	10
108	108	13
125	127	1
102	102	18
86	87	7
111	111	17
100	100	17
14	14	8
24	24	4
76	77	4
96	96	23
22	23	11
75	81	3
115	115	11
94	94	7
112	112	30
120	122	8
36	36	18
89	91	2
82	84	2
20	116	1
93	93	31
121	121	18
122	122	31
124	125	4
3	3	20
23	24	8
71	72	2
131	131	23
79	79	12
79	123	2
27	27	18
105	106	7
85	85	32
109	110	13
94	104	1
30	31	2
132	132	33
37	37	12
116	116	8
130	130	15
35	35	15
139	139	19
118	118	20
109	109	14
75	113	1
80	89	2
104	105	5
119	122	2
126	126	11
25	26	4
14	15	1
111	112	14
74	74	22
88	100	3
28	29	4
84	86	1
75	75	20
128	129	19
136	138	1
21	21	29
17	17	13
86	86	30
134	136	1
5	5	22
99	99	11
119	119	13
36	37	7
79	81	1
76	85	3
121	122	1
109	120	3
18	19	9
22	22	12
10	11	5
110	111	16
86	88	4
0	0	13
73	74	6
79	83	6
131	132	7
1	2	2
126	127	8
24	26	3
116	128	1
83	83	4
7	7	11
4	5	10
101	102	6
118	119	3
19	19	14
16	16	18
14	27	5
10	10	4
18	21	8
20	71	3
106	107	6
81	82	3
109	112	2
119	120	8
107	108	6
107	109	1
140	140	21
2	37	3
3	4	11
97	101	2
77	80	3
105	105	11
123	123	27
84	84	8
31	31	26
94	98	1
15	15	12
8	8	11
5	90	4
121	126	2
88	88	21
8	10	2
81	85	1
83	120	1
22	27	2
0	5	3
13	13	7
22	26	5
102	103	1
89	92	3
98	98	11
97	98	11
75	76	7
105	108	3
13	15	4
101	103	6
9	9	10
85	86	10
28	28	8
5	6	1
77	78	7
76	76	5
135	136	10
71	111	1
38	38	6
16	21	2
136	136	8
114	117	3
88	97	5
94	116	2
114	115	10
18	18	7
2	2	12
115	116	6
98	128	1
103	106	5
107	107	14
21	86	2
96	100	1
18	86	1
92	93	12
73	73	12
36	100	2
21	22	6
78	78	12
88	89	1
20	21	9
81	114	1
1	1	5
98	116	1
95	97	2
15	28	2
99	111	3
6	85	1
34	94	2
103	125	2
83	88	1
75	84	2
2	3	2
127	128	7
12	32	3
74	119	2
96	98	4
35	132	2
33	87	1
25	25	10
6	6	15
19	20	7
24	25	3
19	132	2
138	139	2
71	103	2
132	133	1
103	104	3
74	77	1
104	104	11
17	20	3
5	7	3
28	30	4
117	118	2
80	81	9
108	125	1
66	77	2
121	123	7
136	139	1
23	25	1
72	77	5
126	128	1
129	130	2
98	99	3
119	124	2
92	98	4
108	109	4
34	35	4
7	31	1
137	138	5
27	31	1
88	95	3
74	75	1
124	131	1
26	26	6
3	5	3
81	83	3
82	82	2
120	121	6
130	131	2
20	22	3
37	38	9
27	32	4
32	32	5
116	117	3
27	30	2
84	85	3
91	92	5
117	119	10
129	140	2
35	127	1
74	86	1
122	123	1
15	20	3
105	107	2
108	114	5
96	99	2
128	134	1
120	124	3
102	104	4
89	101	2
72	95	1
22	36	1
99	100	3
114	124	2
112	113	2
77	79	2
116	119	1
7	82	1
10	28	2
77	77	5
12	13	1
95	117	2
1	5	1
79	122	2
7	15	2
33	36	3
116	129	2
16	86	1
73	75	3
15	16	5
93	94	6
94	123	1
92	94	4
3	31	1
71	85	1
92	120	2
71	73	1
78	79	2
23	23	6
122	128	2
15	21	3
89	97	2
120	125	5
83	86	2
71	75	2
95	98	1
119	123	2
29	30	2
127	129	1
99	116	1
18	20	2
129	135	1
92	126	1
6	7	1
35	36	1
103	110	1
75	83	3
13	14	4
110	120	1
90	91	1
138	140	2
13	27	1
6	90	2
35	95	1
95	101	1
32	88	1
38	82	1
21	123	1
118	120	1
4	91	2
72	123	2
103	107	2
32	37	1
79	117	1
95	99	1
33	99	2
34	37	1
109	114	1
117	126	1
79	118	1
17	109	1
3	89	1
130	135	1
124	126	1
4	38	1
75	88	1
87	90	1
116	118	1
