45	45	8
112	114	5
43	43	6
59	59	8
83	83	12
86	86	12
87	89	2
120	121	5
30	44	1
63	63	12
7	19	3
12	13	2
46	46	7
31	31	6
128	129	3
103	103	7
16	16	8
126	126	4
92	92	13
61	61	5
123	123	10
28	28	14
89	90	4
18	18	8
119	119	11
63	77	4
27	29	3
34	34	4
93	93	10
46	47	2
127	127	8
29	29	6
15	15	6
107	107	7
125	125	1
110	111	6
20	21	2
28	80	4
81	131	5
11	11	13
117	121	3
114	116	5
64	64	22
6	6	7
35	42	2
9	10	8
26	27	1
31	34	4
39	41	2
10	10	8
79	81	10
28	96	4
55	105	2
90	92	1
14	14	10
73	73	7
108	116	3
76	77	4
12	21	2
121	122	2
47	47	17
57	57	3
45	69	4
113	113	6
76	78	2
80	131	3
84	92	5
15	61	3
82	82	4
78	78	11
75	92	3
69	69	12
60	60	10
67	67	5
132	132	5
21	21	1
97	100	7
81	81	7
21	35	2
95	96	1
98	104	3
26	38	2
108	115	3
10	33	2
42	42	3
62	62	4
39	39	5
47	99	2
55	81	1
8	35	4
96	96	6
115	116	3
111	113	4
87	90	2
5	29	3
3	3	7
68	69	3
27	27	17
7	9	2
30	32	3
35	35	11
33	36	6
97	98	5
75	75	3
63	74	1
6	27	6
41	42	1
38	38	3
58	58	2
23	26	2
101	101	2
0	1	2
8	8	6
60	131	3
36	36	10
98	99	4
65	65	12
108	108	7
72	73	4
78	79	2
22	22	5
75	76	6
25	25	10
38	99	5
19	19	7
122	122	5
82	88	1
79	80	5
70	71	5
26	43	1
13	13	5
56	59	1
33	33	8
20	27	3
26	92	4
125	134	2
46	71	1
96	97	3
57	77	6
63	64	4
95	95	5
45	74	1
98	100	2
18	76	1
129	129	1
15	23	2
86	99	4
77	77	2
0	0	5
23	25	1
97	97	5
26	48	4
43	58	1
47	48	2
112	112	3
134	134	3
48	48	11
94	94	2
30	31	5
90	90	6
66	66	8
84	84	9
105	105	3
20	22	4
37	38	4
11	12	4
91	91	6
31	76	2
32	37	1
99	99	6
74	102	2
87	96	2
17	43	4
63	66	2
104	104	5
87	87	12
70	81	4
30	30	5
17	19	5
78	80	3
117	117	1
26	26	9
42	44	3
33	72	2
60	134	4
3	59	3
11	92	2
60	62	1
72	75	1
87	88	2
68	130	3
44	78	4
113	114	2
20	20	2
91	92	9
23	40	2
100	100	2
94	127	3
56	57	1
56	81	2
116	116	2
7	7	2
25	38	4
8	34	2
11	26	1
29	49	1
76	76	10
110	132	2
62	111	1
27	75	2
54	127	1
4	4	6
132	133	1
92	109	5
44	44	1
15	74	2
9	9	4
115	115	2
29	32	2
109	116	6
12	12	11
107	113	1
33	101	1
23	23	2
2	2	4
28	91	1
39	95	3
62	112	1
70	70	1
83	105	2
42	43	3
71	72	5
37	37	4
8	36	3
68	68	5
10	46	2
111	114	3
56	56	3
11	93	1
48	122	3
33	48	2
77	78	1
31	99	2
36	60	3
79	79	5
98	98	3
109	113	1
39	40	1
55	60	1
71	71	4
90	91	2
127	128	3
44	60	1
75	77	2
45	64	1
73	74	8
55	56	3
32	32	1
15	16	4
45	61	4
111	111	5
55	55	2
131	131	2
25	39	1
124	134	1
66	67	2
25	29	2
93	109	2
99	100	5
127	133	1
104	105	1
37	81	1
13	14	2
51	51	2
87	117	3
34	47	1
93	134	2
121	121	4
94	96	3
83	89	1
3	4	2
27	76	1
78	95	2
112	113	1
7	8	4
55	127	1
79	82	2
133	133	2
74	74	2
79	99	2
89	91	2
26	35	1
45	70	1
32	100	1
27	28	2
20	28	2
83	85	1
35	36	2
93	98	2
26	39	1
81	99	1
100	101	2
28	66	1
47	95	1
123	128	3
106	106	2
124	124	2
83	84	2
17	18	2
1	1	1
35	75	1
4	5	1
86	87	1
85	90	2
56	60	3
93	95	3
29	30	2
49	50	1
94	95	1
45	46	2
4	7	1
88	91	1
10	59	2
17	17	1
106	116	1
131	132	1
85	85	2
37	75	1
20	31	1
90	96	1
81	130	1
81	82	1
8	47	1
128	128	1
5	30	1
3	102	2
13	24	1
10	14	2
40	40	3
57	78	1
59	62	1
102	102	1
57	58	1
14	60	1
96	98	1
19	20	1
47	80	1
81	132	1
130	130	2
117	118	1
8	31	1
32	80	1
31	32	1
41	43	1
33	59	1
120	120	1
92	94	1
28	32	2
90	97	1
16	43	1
73	83	1
41	41	1
20	32	1
18	19	1
