188	189	3
83	83	5
17	19	1
76	76	12
227	227	6
186	249	1
181	214	1
16	16	8
163	211	1
87	184	2
18	19	1
84	84	5
25	25	6
45	226	1
194	194	1
245	246	5
223	223	6
170	215	1
26	26	4
205	205	5
59	61	2
7	8	3
174	175	2
236	236	5
200	200	1
159	159	3
65	66	1
234	236	3
8	93	3
196	196	4
29	31	1
220	220	3
203	203	2
158	176	3
240	240	7
224	224	4
72	85	4
160	160	7
221	229	2
114	114	5
3	34	2
215	217	4
161	161	5
231	231	2
2	13	1
191	191	10
184	184	2
14	15	4
179	179	6
69	69	2
32	154	1
184	187	1
35	95	2
2	14	3
58	58	13
203	232	1
157	242	1
48	209	3
177	177	9
167	168	3
186	190	1
168	169	5
195	196	1
241	245	2
60	60	4
108	112	1
159	160	4
238	238	5
89	89	5
42	42	4
75	75	4
31	37	1
108	109	5
151	152	3
5	5	2
100	101	3
182	186	5
16	21	3
57	57	4
113	113	9
167	167	11
247	248	2
101	101	1
160	161	1
197	197	4
156	156	4
212	213	2
43	43	3
7	7	6
203	222	1
211	211	1
88	88	5
92	108	2
73	74	3
7	184	2
236	237	2
157	171	2
225	226	1
11	11	8
175	175	5
31	31	9
214	214	9
111	244	5
27	27	4
225	225	5
196	208	2
194	199	2
167	169	2
203	229	1
215	218	3
173	173	7
93	93	4
181	181	4
188	188	6
73	73	3
206	206	2
246	246	1
213	214	3
115	116	2
4	4	6
96	96	2
70	95	2
20	20	6
115	117	1
236	239	2
163	175	3
75	101	1
10	10	2
52	53	2
55	55	2
1	1	6
47	47	10
192	225	3
86	96	1
27	28	1
45	45	6
222	222	4
169	171	2
16	54	3
229	229	2
164	172	2
233	233	4
187	196	1
39	39	1
51	52	1
102	103	2
62	66	1
51	53	1
151	151	5
234	235	4
162	162	6
41	62	1
187	213	1
24	25	1
51	51	2
193	193	1
47	248	1
68	68	4
52	52	5
112	243	3
164	165	2
192	192	3
201	201	3
209	210	2
32	33	2
72	73	3
74	78	1
218	218	5
161	162	1
35	93	1
166	208	1
21	21	1
45	110	1
38	39	1
153	153	1
190	191	6
165	167	1
92	94	1
233	234	2
24	24	2
95	95	4
11	35	1
214	231	1
178	200	1
18	18	3
50	50	3
12	12	4
47	62	2
71	72	2
180	180	7
5	29	1
112	112	1
230	232	1
22	22	4
172	173	2
89	90	2
82	82	2
226	226	3
46	46	8
117	117	1
210	210	2
207	207	8
94	94	2
159	164	1
190	190	3
29	34	1
183	183	3
3	3	2
242	242	2
44	44	3
67	67	3
206	207	1
69	79	1
35	91	2
235	246	1
147	153	1
38	38	1
216	217	1
116	116	2
209	239	2
238	241	1
166	184	3
176	177	1
92	93	3
107	108	1
158	158	1
53	59	2
106	190	2
49	51	3
53	53	4
33	202	1
30	30	1
108	111	1
244	244	3
212	212	1
219	219	3
221	221	1
117	245	1
29	30	3
43	44	1
79	80	2
70	71	3
182	183	2
9	9	1
66	69	3
160	196	1
196	199	1
85	86	1
237	249	1
47	187	2
2	12	1
170	171	2
100	103	1
197	198	3
6	183	3
31	43	1
114	115	1
187	188	2
91	91	4
167	198	1
119	120	2
197	199	1
163	163	5
49	49	3
195	195	2
189	191	1
216	218	4
103	103	2
34	34	2
77	77	2
36	63	3
165	165	1
179	185	1
110	110	3
80	80	5
119	119	3
39	109	1
19	30	3
165	179	1
221	222	5
181	182	2
79	79	2
203	230	2
193	196	1
23	23	2
201	233	2
165	166	2
172	172	2
207	208	1
228	228	4
11	28	2
3	14	1
157	179	1
102	102	2
155	155	2
33	33	2
14	14	1
105	106	1
109	120	2
48	48	1
165	171	2
209	209	1
4	14	4
59	60	4
158	182	2
15	184	3
17	17	2
222	242	1
71	75	3
80	103	1
74	74	2
36	36	1
118	170	1
31	42	1
98	98	3
41	91	1
203	231	3
168	168	1
150	150	1
28	45	2
104	106	3
216	223	1
102	111	1
12	77	1
8	9	1
174	174	1
85	85	3
170	170	2
33	53	2
71	71	1
63	63	2
191	196	3
186	191	1
199	199	2
5	18	2
117	118	2
204	204	1
166	166	2
154	154	1
173	200	1
4	37	1
45	46	1
60	236	1
81	81	1
69	70	2
231	233	1
111	238	1
105	105	2
246	247	1
30	34	2
29	80	2
179	186	1
31	208	1
46	52	1
32	32	1
2	2	2
216	216	1
203	213	1
26	27	1
61	61	1
232	232	2
77	87	1
83	84	1
206	226	1
235	247	1
40	185	1
11	247	1
109	243	1
52	56	1
237	237	2
230	236	2
35	35	1
209	211	2
107	107	1
170	214	1
30	35	1
21	32	1
155	156	5
211	237	3
208	208	2
39	42	1
110	111	1
232	233	2
41	41	1
145	184	2
66	111	1
242	243	1
88	98	1
245	245	2
10	19	1
56	56	1
154	155	2
29	209	2
239	239	3
145	145	1
213	230	1
214	233	3
34	145	1
185	185	2
31	34	1
215	215	1
50	103	1
45	106	1
65	65	3
37	91	1
147	157	1
4	18	2
241	242	1
40	40	2
223	224	1
189	189	1
106	106	1
94	95	1
66	118	1
30	210	1
15	15	2
184	185	2
158	178	1
109	109	1
54	65	1
196	207	1
31	111	2
174	193	2
244	246	1
173	207	1
92	92	1
4	11	1
36	91	1
247	247	1
190	196	1
62	62	1
187	189	1
118	118	1
235	238	1
10	53	1
72	74	1
2	15	1
34	181	1
97	97	1
47	207	1
84	85	1
145	178	1
111	111	1
30	47	1
50	79	1
109	110	1
76	88	1
10	11	1
224	225	1
29	29	1
230	231	1
171	171	1
177	184	1
176	176	1
109	176	1
