21	21	4
107	111	2
13	13	5
84	85	6
43	52	5
9	9	7
31	32	5
85	85	6
73	132	1
43	43	7
0	0	9
115	115	6
47	68	2
23	30	5
59	60	2
104	105	3
74	74	7
7	7	11
60	60	8
90	90	6
125	126	4
60	87	2
19	19	4
60	61	4
80	130	4
83	83	10
110	115	1
67	68	3
126	126	4
61	62	2
106	106	6
123	123	5
58	58	1
84	122	6
79	80	7
53	56	2
1	1	1
77	77	3
109	120	1
132	132	4
38	38	3
66	66	8
73	74	2
5	5	3
135	135	5
92	93	3
110	118	3
81	81	1
49	78	1
101	101	2
70	71	2
63	63	7
87	91	1
120	120	3
127	129	3
107	107	6
97	98	2
76	76	7
23	23	5
64	65	4
105	105	5
22	66	5
32	32	4
12	14	2
33	33	3
127	134	1
25	25	4
2	2	2
15	15	3
56	78	2
21	22	7
122	122	2
48	62	1
82	82	1
83	101	2
91	92	1
55	55	4
64	131	1
99	99	3
97	97	5
5	6	1
119	131	1
12	35	1
19	20	1
12	21	3
99	134	7
73	73	5
45	45	6
66	68	2
93	93	3
112	116	2
28	29	5
59	59	6
35	35	1
43	64	5
128	128	2
0	1	3
62	64	3
91	91	6
124	126	3
106	107	2
79	112	1
62	69	1
4	4	5
11	11	5
11	35	1
69	87	2
117	118	1
112	112	6
84	84	2
26	26	5
18	18	3
89	89	3
61	79	1
130	130	5
29	61	5
17	24	1
29	30	2
108	108	5
72	72	1
4	11	1
124	124	2
67	67	6
86	86	5
44	44	3
6	6	3
131	131	5
3	3	2
4	5	4
23	26	1
55	56	2
16	16	5
76	129	2
55	65	2
126	129	2
125	125	3
71	75	1
119	119	6
53	111	3
96	111	2
94	101	2
30	30	5
49	50	1
9	24	1
6	7	2
17	19	1
64	70	2
44	64	1
108	109	2
10	14	1
79	79	1
103	105	2
78	92	2
46	47	1
118	130	4
82	84	2
85	116	1
114	115	2
100	100	2
50	50	4
37	37	2
12	13	2
86	116	2
57	63	1
56	57	2
54	74	3
52	52	4
96	98	2
64	64	2
50	62	2
13	14	3
5	7	1
20	20	2
52	82	2
25	54	3
7	29	1
103	103	3
82	119	1
17	20	1
32	78	1
57	57	1
90	91	2
80	132	2
14	15	1
10	26	1
72	93	1
65	93	1
131	132	2
69	69	1
127	127	1
52	81	1
53	53	3
72	97	2
50	51	2
91	104	3
111	112	1
113	113	3
10	16	4
87	87	1
124	130	2
25	44	1
118	118	5
117	117	1
84	115	1
111	111	6
12	12	1
80	80	2
98	102	2
27	27	2
130	131	1
78	78	6
83	84	1
104	104	1
133	133	2
36	36	2
56	56	4
91	110	2
47	54	2
54	54	3
71	123	1
1	2	2
90	106	1
80	90	1
100	107	1
62	62	3
98	98	3
109	109	2
60	79	1
82	124	2
20	36	3
11	12	1
89	90	2
42	67	1
110	117	1
16	24	1
121	121	1
78	82	1
77	132	2
111	121	1
77	78	1
127	128	3
107	108	1
61	77	1
43	48	1
95	95	1
86	113	2
68	69	1
24	44	2
13	18	1
10	25	1
103	104	1
50	52	2
82	122	1
86	121	1
34	75	1
22	22	1
116	116	1
72	91	1
110	135	1
109	111	2
7	27	1
81	119	1
95	134	1
27	105	2
77	88	1
84	109	1
82	83	1
94	95	1
11	14	1
17	25	1
99	132	1
