50	50	10
55	77	9
76	76	21
29	29	16
65	65	16
58	59	8
55	55	15
7	7	9
73	73	9
81	81	5
70	72	2
5	6	9
16	16	4
47	47	8
75	76	5
34	47	4
47	50	3
3	4	11
47	52	2
26	37	1
61	61	17
13	13	5
52	52	4
64	64	11
21	21	3
26	29	1
6	6	10
25	27	4
42	43	6
43	43	14
35	35	6
10	10	6
11	11	8
64	67	2
39	39	11
33	34	1
49	50	2
28	28	8
74	74	6
0	2	1
60	60	13
12	13	3
8	8	11
27	40	3
32	51	5
75	75	20
58	58	5
38	39	2
69	71	6
56	57	2
51	51	3
40	40	5
72	72	8
26	26	7
59	59	16
41	42	2
31	32	2
49	49	8
17	17	15
12	12	2
57	57	14
36	36	8
10	11	5
3	3	7
46	46	4
46	76	2
35	47	2
37	37	8
53	58	2
26	39	1
35	36	4
66	66	8
41	41	11
36	46	1
53	56	1
25	26	5
9	9	12
75	77	7
51	52	5
68	70	3
63	63	3
33	62	3
56	60	3
80	80	7
56	56	8
67	67	4
49	52	3
48	48	7
73	79	1
57	58	3
59	61	1
61	65	1
66	67	3
5	5	9
70	70	2
42	42	4
68	72	2
35	37	4
0	0	3
9	14	8
41	47	1
77	77	4
76	77	1
6	7	2
34	34	4
47	48	6
8	10	1
48	49	1
57	76	5
30	30	6
19	26	2
36	37	3
19	19	9
8	9	4
50	70	1
45	45	1
35	42	2
54	54	6
64	66	1
65	66	1
62	63	2
25	25	2
47	51	3
4	4	2
15	15	3
68	69	1
74	75	3
1	15	3
20	20	3
29	30	3
33	33	9
78	78	6
40	41	3
64	65	1
19	21	2
79	80	6
71	72	3
20	21	1
68	68	4
51	55	2
58	63	2
58	61	4
10	12	2
16	20	2
1	1	5
4	6	1
28	39	3
14	14	2
60	76	1
25	31	3
31	31	2
2	2	3
29	54	3
60	61	1
53	63	1
79	79	4
12	14	1
55	56	2
61	62	1
62	62	3
47	74	1
67	68	1
53	54	2
37	38	3
18	18	4
34	41	1
54	64	3
3	6	1
9	10	2
51	63	1
50	67	1
38	38	3
17	18	1
11	12	1
42	48	1
4	7	1
1	2	2
30	33	1
69	70	4
43	46	1
29	33	1
27	27	1
34	35	2
0	1	2
72	74	1
71	71	1
32	33	1
59	60	1
37	40	1
53	67	1
53	53	1
28	29	1
