11	11	35
17	17	16
9	9	17
8	8	13
4	4	25
47	64	5
74	74	18
71	71	12
78	82	3
50	55	2
52	53	1
13	13	4
24	24	17
22	31	4
21	21	6
63	64	3
52	54	3
57	73	3
75	76	14
72	72	19
81	81	26
55	65	2
70	70	7
86	86	20
63	63	9
84	84	11
85	86	10
87	87	12
50	50	5
31	31	22
58	65	2
58	58	10
11	27	1
20	20	3
11	12	8
6	17	3
68	68	17
57	68	3
59	63	6
66	84	6
60	65	5
12	13	2
57	58	18
26	26	9
76	76	5
56	56	17
59	59	12
79	80	9
57	69	2
60	63	2
55	55	7
19	19	20
51	51	11
80	81	3
73	73	17
25	25	15
3	30	7
60	60	4
56	60	8
2	2	4
10	10	21
7	8	3
17	18	4
1	2	7
66	66	18
14	14	13
51	54	1
47	47	5
0	0	7
30	30	29
18	18	6
70	73	2
11	14	6
22	22	22
63	65	4
82	83	2
3	4	16
17	31	3
58	61	7
53	54	3
34	35	5
18	19	9
75	75	26
77	78	9
57	57	9
5	5	14
17	25	1
28	28	10
29	29	8
1	1	21
46	46	2
71	72	3
69	73	5
61	77	6
22	23	3
69	69	6
7	59	2
12	12	22
79	79	18
80	80	14
3	3	21
5	9	3
24	25	11
89	89	14
90	90	2
23	23	11
64	64	1
61	62	1
13	14	2
15	15	19
58	67	3
55	56	10
7	7	10
83	83	7
61	61	13
54	54	5
60	62	8
12	15	3
8	17	5
52	52	11
61	63	3
54	55	5
49	49	10
85	85	18
53	56	2
4	27	2
88	88	4
0	1	12
70	71	8
25	26	5
65	65	5
23	24	3
64	65	4
28	70	5
75	87	1
50	56	5
24	30	1
50	57	2
87	90	1
33	34	1
16	16	6
74	76	2
67	67	16
77	79	13
56	57	6
51	53	3
0	90	5
8	9	10
88	89	12
67	68	4
74	75	3
16	54	1
49	74	3
48	65	1
84	85	6
7	17	3
61	76	1
9	10	3
4	5	1
21	23	1
89	90	1
14	66	3
75	81	4
50	51	3
22	33	1
56	58	1
68	69	1
53	53	6
53	55	4
29	30	1
12	19	3
30	31	7
62	65	6
48	49	2
27	27	12
59	65	3
5	14	3
25	47	2
75	80	1
47	48	3
52	55	1
73	74	2
66	67	3
63	83	2
6	6	2
77	80	6
34	34	4
50	76	1
56	62	2
15	16	1
86	87	4
26	27	1
62	73	3
52	65	2
48	74	2
5	6	1
21	24	1
10	15	4
17	49	1
47	66	1
77	81	2
72	73	3
29	31	3
78	78	2
78	79	1
56	73	1
17	24	1
82	82	6
74	84	4
69	70	1
1	50	1
66	69	1
16	17	1
22	56	2
49	55	3
77	77	2
53	81	1
66	83	1
0	2	1
78	80	1
59	61	2
24	33	1
50	52	1
25	31	1
56	65	3
67	72	1
27	28	1
21	22	2
77	82	1
60	61	1
87	88	1
62	64	1
61	66	1
8	19	1
9	12	1
5	8	1
65	66	2
50	67	1
12	14	2
66	81	1
2	3	1
19	46	2
55	57	1
57	72	1
48	62	1
62	62	2
19	20	1
49	51	1
4	16	1
81	83	1
7	10	1
59	62	1
