5	6	8
4	4	7
60	62	1
86	86	6
85	85	13
66	66	15
91	91	20
122	122	12
32	32	13
36	36	12
75	75	7
18	19	2
21	21	7
89	90	5
36	46	3
18	18	20
95	95	12
45	45	14
119	122	6
25	25	7
100	100	18
59	71	1
96	96	10
35	36	4
6	7	4
97	97	15
2	92	3
31	32	4
111	118	2
125	125	16
39	40	5
69	69	9
6	94	3
6	6	12
78	78	8
13	13	8
23	28	2
27	27	17
61	62	5
35	90	4
78	82	4
99	100	3
21	22	5
104	104	4
114	114	6
60	60	13
12	13	3
28	28	10
130	130	1
109	109	11
31	31	19
9	9	11
30	85	1
57	61	1
61	107	3
30	30	13
115	115	8
19	19	16
26	26	19
83	83	8
29	36	3
88	88	3
47	47	25
8	11	5
80	82	6
81	81	13
96	97	7
74	79	1
11	93	4
68	71	4
12	12	26
99	99	18
42	42	17
105	105	9
7	7	10
118	120	1
46	130	2
79	81	16
131	131	3
12	14	2
62	72	4
73	75	4
68	69	8
40	81	2
29	29	19
101	101	17
61	86	5
39	81	10
107	129	3
23	25	2
117	125	2
116	116	4
36	83	1
112	112	5
33	33	16
45	130	5
80	80	7
15	15	8
25	83	1
108	108	5
89	89	1
126	127	3
4	14	2
10	35	2
36	77	1
43	43	8
79	79	11
120	120	12
17	46	1
115	116	5
32	58	1
35	72	2
94	94	17
40	56	1
27	85	1
133	133	3
76	76	7
61	61	12
125	127	2
59	59	11
84	84	12
6	8	2
64	64	10
70	89	1
46	65	6
63	80	4
13	26	5
97	98	5
106	108	7
26	27	5
19	21	2
103	103	11
28	30	2
7	90	2
29	47	2
70	70	6
71	71	2
98	98	6
59	60	8
34	73	1
49	83	2
31	80	4
85	100	3
107	113	4
41	41	5
20	30	2
111	112	6
29	31	3
65	65	10
72	72	10
26	84	3
127	127	6
115	133	3
24	24	2
8	9	8
54	56	2
37	38	12
117	123	1
117	117	3
23	78	2
17	17	11
129	130	4
8	8	16
77	77	2
68	68	5
73	73	7
90	90	8
107	108	2
30	60	6
57	57	5
40	41	4
46	46	15
32	60	1
8	96	1
27	31	8
128	128	6
23	24	3
110	111	2
23	23	15
35	82	5
106	129	4
78	81	1
74	74	16
111	111	12
92	93	10
19	24	2
78	79	3
32	81	3
20	20	6
10	11	4
37	37	4
10	10	11
35	35	13
67	67	14
71	72	2
119	119	5
111	129	2
104	105	1
44	100	2
14	14	8
74	76	3
93	93	15
62	62	13
4	16	2
40	51	2
106	128	2
22	22	8
95	98	1
25	26	4
38	39	3
12	82	2
94	96	2
8	19	2
15	16	8
5	5	12
56	56	6
67	77	2
62	78	1
48	48	8
24	25	9
90	91	4
9	28	1
8	15	3
125	133	1
47	83	3
71	73	3
26	80	2
36	39	3
44	131	3
7	65	3
73	79	1
79	80	4
83	84	3
64	71	5
44	44	9
90	92	3
97	99	3
34	34	12
70	71	11
101	102	3
38	81	3
65	66	5
84	85	4
54	55	4
62	82	2
100	101	5
20	48	3
98	99	3
59	95	2
82	82	12
55	55	6
11	11	11
74	81	1
29	30	9
4	88	2
91	92	1
31	79	4
128	129	3
16	16	3
11	44	2
9	66	2
32	57	3
42	63	3
33	73	1
12	47	2
3	82	3
30	38	3
35	77	2
93	98	1
46	47	6
63	63	9
73	113	3
13	18	1
37	81	2
45	83	3
41	132	2
3	95	3
23	26	2
72	73	4
118	118	2
107	107	6
39	56	6
85	86	1
108	124	1
2	48	1
78	80	1
45	75	1
9	77	1
17	65	1
27	97	1
110	110	5
38	108	2
44	74	2
123	123	7
20	90	3
35	58	3
73	74	2
92	92	4
41	107	4
104	112	4
132	132	4
113	122	3
45	89	4
124	124	8
121	121	8
1	88	2
46	66	5
51	55	1
127	128	4
110	113	2
13	80	2
0	0	6
134	134	2
126	126	2
26	41	1
6	13	1
38	60	1
126	131	2
2	2	3
35	76	4
32	79	2
87	87	5
8	42	2
36	82	2
86	92	1
89	101	3
41	71	2
56	131	2
66	67	2
115	134	1
8	41	1
42	78	4
10	12	2
62	67	1
8	17	1
18	57	1
92	94	4
31	37	2
3	97	1
37	82	2
82	83	1
38	46	2
112	113	1
20	21	4
51	51	1
33	74	2
56	57	1
58	58	4
40	44	1
32	78	1
44	49	2
88	94	1
65	67	2
59	93	2
32	59	1
7	83	3
43	78	2
11	83	1
94	100	3
41	42	4
29	62	1
119	120	3
44	45	4
38	38	3
65	77	1
94	95	1
59	73	1
29	58	1
10	25	1
9	10	3
17	26	2
8	48	1
29	32	3
0	91	1
10	22	1
61	108	1
119	134	1
64	65	1
34	74	2
72	75	3
37	58	1
60	73	2
22	23	1
103	113	2
49	55	1
8	16	1
49	93	2
49	49	1
103	115	3
42	54	1
32	77	2
72	102	1
4	6	2
88	89	1
112	120	1
27	102	1
11	92	1
48	132	3
46	118	1
32	33	1
47	49	1
67	82	1
32	37	2
120	121	1
90	94	1
75	76	1
16	18	2
67	86	1
132	133	1
44	57	1
114	116	1
57	59	2
45	95	2
22	26	2
113	113	4
93	94	1
26	101	2
15	28	1
76	77	3
39	58	1
17	18	1
62	81	1
28	80	2
33	78	3
11	96	2
48	50	1
30	35	1
28	34	2
29	49	1
35	48	2
69	72	1
30	31	2
11	84	1
89	92	1
63	81	2
88	91	1
125	131	1
57	62	1
26	93	1
106	106	1
8	18	1
25	80	1
62	89	1
21	60	1
13	14	1
11	12	1
47	66	1
39	59	1
14	16	2
14	74	1
129	129	1
107	112	1
81	82	1
41	43	2
38	134	1
77	133	2
84	86	1
121	123	1
25	85	1
57	58	1
7	26	1
77	85	2
62	63	1
4	5	1
12	84	1
37	40	1
82	84	1
27	62	1
84	91	1
77	130	1
104	114	1
77	81	1
