58	59	1
103	103	16
107	107	5
100	101	1
50	50	5
131	131	14
116	116	6
97	97	3
14	14	10
87	87	7
52	52	3
104	104	9
113	113	6
106	121	3
60	60	8
88	88	8
66	68	4
59	63	5
69	69	4
34	34	4
92	92	3
53	53	10
74	102	3
105	105	5
124	125	3
63	99	2
77	77	8
35	36	2
97	119	6
63	63	8
37	43	5
61	61	9
26	26	5
11	11	1
58	58	7
45	45	6
18	29	5
1	1	5
79	80	2
62	62	7
13	22	3
55	55	5
38	38	2
110	111	11
80	80	4
121	121	7
127	129	4
9	9	7
48	48	2
64	64	8
98	124	1
25	25	5
68	83	1
18	21	1
49	50	3
57	57	4
98	98	11
20	20	3
83	111	1
62	64	4
119	120	2
15	16	4
57	60	3
82	83	4
3	3	3
102	102	11
91	116	1
17	17	3
122	123	3
94	105	7
72	72	4
99	100	2
112	112	5
70	70	3
62	63	4
67	67	15
13	13	3
105	121	1
79	79	4
43	43	4
65	67	2
90	90	5
57	58	7
116	123	1
89	89	4
94	102	2
83	83	6
74	75	1
21	21	2
94	94	3
102	121	2
65	87	2
69	70	7
85	85	3
52	85	1
52	53	1
132	133	3
54	55	2
31	72	1
108	113	1
101	101	5
96	96	5
1	2	6
15	15	2
31	31	5
61	85	1
59	59	1
23	23	5
68	69	2
110	110	6
100	100	4
3	134	3
19	20	3
24	24	9
60	62	2
108	108	9
102	104	1
37	37	1
119	119	11
78	80	1
74	74	3
6	12	1
94	114	1
99	121	1
44	44	2
23	25	4
64	65	1
76	76	6
86	87	7
61	129	2
77	98	1
93	93	3
66	100	4
48	59	2
0	86	2
108	110	2
125	134	1
106	106	7
54	63	1
115	115	3
84	85	1
122	122	6
10	10	1
54	54	2
66	66	7
6	7	4
63	119	1
91	121	5
73	73	6
95	95	3
100	121	1
29	31	1
5	5	2
4	4	7
78	81	4
103	104	3
132	132	2
7	11	3
82	116	4
59	61	1
6	68	2
104	105	5
114	114	2
2	2	7
125	125	8
126	126	7
56	56	2
89	90	3
49	49	1
46	132	1
12	13	1
72	73	1
0	0	2
33	34	6
55	68	4
129	129	3
124	124	1
106	107	1
18	23	2
105	112	1
133	133	5
117	117	3
77	116	1
23	26	1
19	19	3
127	127	5
65	65	1
77	83	2
118	118	1
5	104	1
109	110	4
84	84	2
95	96	1
74	91	1
18	18	2
55	59	2
36	36	4
99	99	3
52	75	4
18	24	2
111	111	1
14	32	1
93	94	1
77	78	1
77	82	2
95	99	1
85	111	1
75	75	2
92	115	2
129	130	2
100	119	1
101	106	2
124	126	1
109	109	4
98	125	1
5	31	1
83	84	1
120	121	1
108	109	1
74	90	1
96	117	1
68	87	1
113	114	1
32	32	1
5	6	1
22	70	1
22	22	3
19	62	1
83	110	2
0	97	1
56	59	1
25	54	1
47	89	1
120	120	2
47	61	1
25	57	1
31	32	1
11	16	1
68	68	1
86	127	1
3	4	1
6	6	2
28	29	1
101	121	2
44	45	1
80	81	1
76	84	1
92	110	1
79	129	1
23	57	1
133	134	1
121	123	1
94	115	1
33	33	2
47	52	1
20	21	1
27	27	1
81	81	2
30	33	1
82	107	1
8	11	1
105	123	1
82	110	1
16	16	1
