50	50	6
68	100	3
49	49	6
54	54	14
74	74	14
43	45	9
83	85	2
71	71	4
44	44	9
21	36	3
22	30	6
56	56	8
97	99	4
83	83	10
47	47	7
55	55	3
70	70	5
78	78	5
51	51	8
29	30	5
87	87	8
50	104	3
97	97	5
37	37	4
47	49	1
54	55	3
29	29	10
78	95	2
20	32	3
64	65	5
101	102	2
72	85	3
98	98	7
66	81	3
68	68	6
31	32	6
20	28	2
43	43	5
103	103	2
57	57	9
73	74	6
61	62	10
60	107	3
23	23	7
22	25	5
22	22	15
61	61	15
75	75	13
20	22	2
89	90	6
105	105	5
67	67	10
30	30	3
75	77	5
45	45	7
101	101	2
64	64	11
94	99	1
53	55	6
100	100	6
37	46	4
61	63	2
77	77	7
92	93	3
70	71	3
35	36	5
84	84	3
68	69	7
76	76	7
41	41	3
63	63	16
22	27	1
66	66	19
67	68	3
92	100	2
21	34	3
88	88	5
42	43	2
59	59	6
45	99	2
25	27	2
68	72	1
36	82	1
80	80	11
20	73	1
79	79	6
73	73	5
22	26	1
86	87	7
76	77	1
92	92	9
57	58	6
57	91	3
27	28	4
52	52	5
80	81	2
53	53	2
40	40	2
21	21	8
104	105	2
85	85	10
37	41	1
106	106	5
85	86	8
104	104	3
78	79	1
66	82	4
26	27	3
46	46	11
47	99	3
40	41	2
47	86	2
33	33	3
86	86	6
25	25	7
59	88	3
57	65	2
66	67	8
47	48	4
32	95	2
83	86	2
23	24	1
41	42	3
76	103	4
88	90	3
51	52	1
57	93	3
93	93	5
96	98	3
48	48	6
38	38	3
42	44	2
66	71	3
48	49	6
26	30	2
82	88	1
84	85	3
95	100	2
95	98	2
96	96	7
100	102	2
28	28	4
53	54	3
26	26	5
88	89	2
39	39	2
34	100	3
21	30	2
56	64	1
45	96	2
40	44	1
102	102	3
54	56	1
81	81	8
53	77	2
28	44	2
55	77	1
59	89	2
49	50	1
27	27	7
90	91	1
42	42	7
27	29	4
66	89	1
71	91	5
79	95	2
51	81	1
74	75	6
36	37	6
53	56	1
56	58	1
31	31	5
70	77	3
20	20	3
73	77	3
62	63	2
99	99	7
80	100	3
97	101	1
53	76	2
69	69	2
35	35	3
67	91	3
33	34	4
79	88	1
70	76	2
94	97	2
87	88	2
41	44	2
103	105	3
90	90	1
53	73	2
56	57	4
89	100	2
82	84	1
60	61	1
21	106	1
64	105	1
37	38	3
77	78	4
58	59	2
38	39	2
21	22	4
25	26	1
63	64	2
20	21	2
58	58	1
21	72	2
46	47	2
46	48	1
50	51	1
34	35	1
32	32	2
44	45	1
97	98	1
76	80	2
26	31	1
79	81	1
99	100	1
95	95	1
94	96	1
69	70	2
81	86	1
60	60	1
62	62	4
89	89	3
73	76	1
20	36	2
82	96	1
39	81	1
100	101	1
88	101	1
27	31	1
105	106	1
24	27	1
82	82	1
21	31	2
94	94	1
36	36	1
50	81	1
55	56	1
31	45	1
66	90	1
45	97	1
87	90	1
78	90	1
