97	98	3
21	22	1
83	85	2
68	69	5
16	17	2
26	26	16
64	64	11
91	91	4
46	46	5
36	37	6
60	60	1
5	5	4
92	92	3
31	31	3
56	56	2
72	86	3
3	3	10
81	81	1
93	93	3
116	130	5
58	58	5
34	35	2
100	100	9
21	40	4
31	32	2
86	86	9
23	23	4
44	59	4
123	124	2
72	82	4
18	18	2
45	112	2
80	81	3
83	83	10
12	12	7
76	76	10
28	28	6
118	118	8
27	48	1
69	69	7
72	74	6
33	33	15
94	94	2
78	79	5
63	63	6
11	70	3
48	48	8
42	43	6
38	93	4
84	85	10
39	40	3
117	117	2
40	41	4
103	103	6
16	33	4
44	45	2
77	77	4
77	78	2
16	16	4
83	107	1
15	110	3
34	74	2
119	119	3
6	6	5
68	70	3
38	38	4
96	97	4
25	93	2
65	65	7
76	77	3
93	94	6
72	73	3
32	33	1
20	20	5
128	129	4
113	113	5
39	41	1
84	84	6
87	87	1
72	72	8
38	81	2
1	2	1
4	4	8
98	98	8
11	22	4
15	15	2
77	123	1
19	19	7
130	130	2
71	72	5
30	30	1
47	47	8
36	120	1
61	61	2
43	126	1
125	125	3
62	62	1
108	133	1
83	100	5
59	59	5
17	22	1
43	43	3
71	71	3
124	126	1
46	119	2
29	30	4
67	67	2
29	29	2
39	39	6
45	45	1
81	82	2
96	96	10
90	91	4
103	128	1
22	44	2
28	91	1
5	31	2
7	7	8
85	85	2
36	36	2
39	83	3
116	117	6
112	126	1
11	11	9
1	1	1
5	6	8
44	64	1
104	104	5
34	110	1
40	40	3
27	92	2
128	128	3
99	100	4
14	14	2
26	57	3
26	77	1
21	36	3
110	110	2
83	95	7
24	24	4
73	73	2
111	111	1
62	71	2
0	16	1
2	101	1
25	77	1
41	41	1
127	127	2
27	91	1
82	83	1
129	129	3
37	93	3
15	26	1
21	21	4
28	29	3
81	127	2
38	55	3
120	120	6
132	132	1
119	122	2
27	93	1
87	99	2
74	74	5
34	38	1
98	100	1
100	128	1
27	45	3
83	101	3
3	7	2
80	80	2
97	97	1
37	37	1
11	23	1
70	71	3
118	119	1
55	56	2
114	115	1
56	58	2
27	28	3
57	58	2
33	130	2
59	66	2
35	117	1
95	95	1
109	109	1
134	134	1
3	11	1
16	45	1
119	120	1
30	45	2
2	2	1
120	121	1
57	57	1
121	122	3
25	25	2
114	114	1
51	133	2
65	66	1
15	56	2
17	17	1
75	75	2
8	8	1
27	96	2
44	44	3
18	30	1
35	36	6
66	66	3
11	17	1
88	88	1
32	32	4
133	133	1
6	62	2
124	124	2
103	104	1
99	99	3
17	19	3
10	71	3
124	125	1
22	22	1
47	118	1
7	10	3
48	89	2
79	79	1
57	75	1
45	64	1
118	129	1
63	73	1
16	51	1
2	111	1
10	11	1
4	8	2
34	36	1
116	116	1
36	78	1
101	102	2
131	131	3
131	132	1
77	130	1
106	107	1
11	101	1
8	9	1
9	9	2
82	126	1
13	13	1
18	19	1
62	63	2
29	49	1
78	122	1
98	99	2
75	76	1
9	30	1
40	93	1
79	81	1
44	56	1
68	68	1
11	16	1
102	102	1
