40	40	14
169	218	3
207	207	16
30	30	4
71	72	8
110	112	3
181	181	14
201	201	26
246	246	20
156	161	12
80	82	1
156	156	29
60	61	7
64	66	3
232	232	10
160	160	24
77	77	13
6	6	13
216	216	9
111	113	2
235	241	3
211	211	18
233	234	17
158	158	9
56	56	16
157	161	5
153	153	31
179	180	13
105	105	11
171	188	10
234	234	15
238	239	7
57	57	5
203	203	20
66	67	5
50	50	7
90	91	4
23	24	3
202	202	7
95	96	8
177	178	8
234	235	16
87	165	2
14	14	11
103	105	3
230	230	15
46	46	17
32	34	5
119	119	9
112	112	10
71	71	11
7	7	5
41	41	13
199	199	11
150	150	9
69	69	27
22	23	3
109	109	13
40	41	7
242	242	13
92	92	8
206	206	5
240	241	9
113	113	9
118	119	7
89	89	13
231	232	9
37	37	21
18	18	22
34	244	3
223	223	4
225	225	8
175	175	13
185	185	21
193	197	3
224	224	17
226	226	12
177	177	11
35	36	9
32	211	3
9	10	9
157	202	3
170	171	8
208	209	16
27	28	10
168	169	10
96	96	9
236	236	8
118	120	6
156	162	3
90	90	15
234	236	1
165	167	8
212	217	3
79	81	11
17	36	3
222	222	4
193	199	5
62	180	2
188	188	8
51	51	11
162	163	4
155	155	18
245	246	5
180	181	5
244	244	13
151	162	7
109	110	10
43	43	32
34	59	5
169	169	22
179	179	13
171	172	1
182	182	11
241	243	12
19	19	16
114	114	13
108	109	9
218	218	10
231	231	12
200	200	15
35	35	11
12	55	4
45	45	14
186	202	3
21	21	9
13	13	8
183	184	3
61	61	8
72	72	8
20	20	15
203	204	7
208	208	9
213	213	15
165	165	12
209	214	2
42	42	21
111	111	25
45	46	7
121	121	2
10	16	1
88	88	11
72	73	6
152	152	21
144	145	7
157	157	14
76	76	5
161	166	4
47	48	6
167	168	17
191	191	5
57	58	15
8	8	10
118	118	16
49	49	14
23	23	25
215	215	23
84	85	5
210	211	8
85	85	6
87	87	10
93	93	15
227	227	6
172	172	23
48	87	3
150	151	28
29	31	3
12	12	9
185	195	3
42	44	2
62	62	17
204	204	11
211	212	13
195	196	6
212	214	2
77	78	1
228	228	7
163	163	10
29	30	1
34	34	25
17	17	12
73	73	6
157	158	11
53	53	15
68	68	8
212	212	12
5	6	12
194	194	7
94	94	13
115	116	4
97	97	3
162	162	11
156	167	3
149	150	6
106	106	15
150	152	4
174	176	14
79	80	3
34	246	1
54	54	19
19	26	1
210	214	1
115	115	9
98	100	1
193	195	5
69	70	7
63	74	3
72	163	4
213	215	7
176	177	9
65	66	3
231	233	3
210	210	10
189	189	3
72	75	3
198	206	2
213	214	10
237	237	12
97	98	16
185	186	3
31	31	4
224	225	8
11	17	3
95	95	11
95	108	2
239	239	11
145	152	2
104	105	7
160	162	5
43	44	9
54	55	4
55	56	8
153	154	6
15	15	24
51	52	8
60	60	12
60	182	1
47	49	2
9	9	5
49	96	2
84	174	2
157	163	4
216	217	5
235	236	8
213	218	2
209	210	13
163	164	8
151	152	8
11	11	8
52	53	5
26	26	9
154	154	26
39	39	8
200	201	10
55	55	9
189	190	4
159	160	17
102	103	2
170	170	10
102	104	1
102	106	1
110	111	9
245	245	9
64	64	8
167	170	1
89	90	8
181	185	2
27	27	25
183	183	9
11	45	5
28	41	1
197	198	5
108	108	10
52	52	10
50	56	2
20	43	2
198	198	14
16	16	10
63	173	1
83	83	1
2	2	5
58	58	10
241	241	9
48	48	15
46	55	5
240	248	3
0	21	1
230	231	5
75	75	3
32	32	16
241	242	7
212	234	3
178	179	3
199	200	12
38	38	11
31	32	2
164	164	12
32	71	3
5	15	3
217	217	16
186	187	10
64	65	3
120	120	2
7	9	3
65	65	5
85	86	2
26	27	6
212	213	6
5	5	16
2	5	2
240	240	7
88	94	5
164	167	4
180	180	12
63	63	13
24	24	10
45	53	3
239	240	8
179	200	2
61	85	2
213	237	2
87	157	3
214	218	2
153	158	2
22	22	15
185	192	3
178	185	2
115	118	5
173	174	13
68	69	8
168	168	20
159	159	7
88	89	5
202	226	1
66	95	6
23	32	2
31	34	1
3	4	4
28	29	12
168	173	3
25	25	10
105	119	2
185	196	1
78	78	8
38	40	8
204	227	3
59	59	11
20	22	3
209	209	8
83	84	2
90	92	4
48	49	4
91	91	10
17	42	1
171	171	6
145	145	9
74	163	1
37	38	3
187	187	7
155	156	1
167	169	3
113	144	4
107	107	5
66	66	8
195	226	4
242	246	1
238	244	5
16	52	4
71	75	2
44	44	15
67	67	3
26	28	1
61	62	6
201	202	2
174	174	7
36	246	1
46	98	3
236	237	6
80	89	5
51	64	1
187	189	5
5	9	1
214	214	16
55	61	4
98	98	12
225	247	3
98	101	1
106	107	5
200	202	4
66	90	5
65	67	6
43	51	5
4	5	9
215	221	3
158	160	2
208	214	6
225	226	1
69	75	3
175	179	3
153	155	2
184	184	6
243	243	9
236	240	4
23	29	2
4	10	2
180	184	2
151	157	4
243	244	8
227	228	1
116	117	3
151	151	6
205	205	16
176	176	6
56	59	3
1	18	4
196	198	2
10	10	8
18	19	4
33	34	1
99	100	8
197	197	11
77	81	2
223	224	1
182	183	5
58	60	8
21	22	5
182	236	3
113	114	6
67	68	3
19	20	2
71	73	3
81	81	5
110	110	27
192	192	9
3	3	2
20	26	2
219	219	5
82	82	4
2	4	2
12	34	3
184	186	4
200	213	1
17	18	3
22	26	1
35	54	5
46	53	1
30	31	5
1	2	1
17	43	1
66	77	1
193	194	2
1	12	2
166	166	6
175	176	7
202	203	4
159	161	1
235	235	13
229	230	3
69	93	2
155	168	2
220	220	9
68	76	4
167	167	4
93	94	9
85	145	2
81	91	1
29	29	4
146	157	3
236	241	2
55	155	2
36	37	3
100	101	2
201	204	2
20	21	8
36	36	5
184	185	5
63	64	2
28	28	9
238	238	8
248	248	11
165	169	2
151	154	2
217	219	1
242	243	1
0	2	1
38	39	6
222	223	3
161	167	1
100	100	1
190	191	1
218	222	1
64	178	2
29	34	5
226	227	3
221	222	6
31	33	2
99	99	4
33	58	1
180	182	1
86	89	3
42	43	5
12	46	3
94	100	1
199	226	4
213	225	3
59	75	1
153	159	2
111	114	1
60	82	2
173	180	2
72	202	1
157	160	4
6	186	3
4	4	4
0	33	2
11	19	2
74	74	2
173	173	8
205	230	4
8	39	2
25	26	5
19	34	2
15	85	3
166	167	4
109	162	2
74	164	1
67	77	1
29	33	3
79	85	1
120	121	2
210	213	1
101	104	3
247	247	10
192	196	3
87	89	1
43	235	1
206	207	3
220	222	2
105	106	3
96	98	1
214	219	2
213	239	3
221	221	4
186	186	8
193	193	3
70	71	4
51	53	2
66	73	1
247	248	5
84	84	2
165	166	3
22	27	1
0	0	4
7	8	4
60	63	1
172	173	3
52	68	1
96	97	1
5	16	1
220	221	3
120	144	1
204	205	3
45	52	2
58	59	4
204	206	2
48	85	1
152	156	2
195	195	1
205	235	1
103	103	4
60	62	1
107	108	4
159	163	3
188	189	3
198	199	1
111	194	1
181	182	3
160	164	1
238	240	3
187	192	2
178	178	5
31	35	1
244	245	1
153	179	2
7	39	3
147	151	2
161	162	4
209	225	1
187	195	2
92	93	1
50	57	1
74	100	2
240	242	2
102	102	3
112	113	3
8	11	1
7	37	1
174	179	1
47	47	3
116	116	2
147	147	1
36	93	2
99	101	3
203	205	1
197	200	1
183	200	1
33	33	6
154	155	6
183	185	4
205	206	3
234	247	2
78	79	2
182	185	1
48	97	3
191	193	2
71	74	3
183	207	1
73	74	1
246	248	2
190	190	5
101	101	3
6	179	2
48	50	2
71	76	1
200	226	2
146	150	2
114	115	2
166	169	1
70	70	4
6	7	1
63	175	6
26	29	1
171	173	2
229	229	3
81	95	1
82	85	1
57	61	1
22	44	1
247	249	3
62	63	2
172	174	6
237	239	1
56	58	1
46	47	2
46	54	1
158	172	1
181	184	1
208	213	1
197	199	2
156	157	1
203	225	2
188	194	1
91	92	3
87	88	1
66	75	2
188	197	4
146	152	1
209	246	4
169	170	3
161	161	2
33	234	4
99	200	1
101	105	1
27	29	2
37	39	2
75	76	2
150	155	1
179	198	1
177	180	3
176	178	1
57	59	2
39	41	1
91	93	1
187	193	1
176	179	1
168	175	2
202	204	2
181	183	3
233	233	2
26	150	1
164	165	1
68	110	1
65	87	2
6	11	1
178	186	2
63	181	1
210	215	1
47	50	1
26	32	1
79	79	1
1	1	1
160	161	2
205	225	1
87	90	1
245	248	1
147	160	1
191	195	1
70	72	1
241	244	2
187	188	3
152	153	1
228	229	2
153	167	1
88	91	1
217	218	2
238	245	2
200	207	1
117	161	1
161	171	1
1	16	2
205	226	2
33	59	2
113	118	1
77	91	2
154	164	1
28	34	3
198	200	2
32	33	1
192	194	3
16	55	1
11	18	1
97	100	1
101	113	1
59	63	1
115	243	1
196	197	1
111	112	3
42	51	1
143	143	1
171	178	1
187	191	1
36	38	1
242	245	1
219	225	1
108	156	1
90	111	1
86	86	1
19	30	1
101	165	1
54	61	3
204	226	1
74	75	2
220	223	1
243	246	1
145	172	2
108	115	1
207	208	2
43	52	1
61	174	1
215	217	1
90	112	1
81	84	1
183	213	1
87	92	1
23	90	2
186	203	1
202	215	1
10	154	1
191	192	1
91	94	1
80	80	1
208	210	2
41	43	1
174	175	1
15	16	1
78	84	1
4	12	2
218	219	1
171	174	1
144	144	1
195	197	1
192	193	2
40	53	1
