34	34	8
30	33	4
87	87	1
103	120	1
1	2	3
2	127	3
130	130	5
26	26	7
90	91	1
9	61	5
18	18	4
130	137	7
95	112	1
11	12	3
3	26	1
20	34	1
137	137	2
17	18	5
123	131	2
27	27	3
120	120	2
85	86	3
70	143	1
18	75	1
97	97	5
83	83	6
69	72	2
46	46	2
13	13	4
33	36	2
127	128	4
24	24	8
17	17	2
47	47	5
125	125	3
9	9	3
144	147	1
14	16	2
66	102	2
135	135	7
99	129	2
141	141	2
1	1	2
2	4	4
109	109	6
29	29	3
37	49	1
84	84	3
4	38	3
148	148	5
91	91	3
81	81	9
88	88	8
34	54	5
103	103	2
7	7	8
4	4	8
78	78	3
33	34	3
158	158	1
33	33	5
94	94	5
104	105	1
133	144	3
77	78	1
152	152	6
150	150	2
42	42	2
51	52	5
25	54	2
155	156	6
69	69	2
25	25	1
57	70	2
139	139	6
2	6	2
38	38	7
138	138	4
93	93	2
71	96	2
147	147	4
26	28	3
57	126	3
80	81	2
128	128	4
41	41	6
105	108	3
92	92	7
32	48	2
102	105	3
2	2	4
123	123	5
149	149	6
71	142	2
43	43	3
14	14	9
5	5	4
15	18	2
78	82	1
18	54	2
28	28	2
3	98	3
83	84	1
40	40	2
3	97	5
145	145	5
122	122	1
136	136	2
116	116	3
107	117	1
123	124	5
65	103	6
39	39	4
6	6	2
44	44	6
96	132	4
86	86	6
94	133	4
67	67	2
95	95	4
132	132	11
65	65	6
48	49	2
66	66	2
128	129	1
11	124	2
56	56	2
133	133	2
10	10	2
21	21	4
124	124	1
31	31	6
109	121	1
134	134	2
138	139	6
73	77	1
66	67	2
157	157	2
70	140	1
70	71	1
90	127	1
156	156	4
117	117	3
99	99	4
81	82	1
49	49	7
126	134	2
104	104	1
103	122	1
68	68	1
72	141	6
119	119	7
57	69	1
105	105	7
21	54	1
50	50	1
101	101	2
71	72	2
69	71	2
57	62	1
91	101	1
52	52	12
25	29	1
45	45	6
3	4	6
115	116	3
119	133	3
67	143	2
116	117	1
55	75	1
121	122	3
54	54	7
144	144	6
107	155	2
29	115	1
49	52	1
113	115	1
3	3	3
111	111	5
16	31	1
48	48	3
12	12	2
23	24	2
93	116	1
96	127	2
98	99	1
88	89	3
93	138	2
48	52	2
83	120	3
7	8	3
55	55	1
66	116	4
87	88	2
80	80	2
140	140	1
15	15	1
94	95	2
70	70	1
154	154	2
112	147	4
37	53	1
96	146	2
22	54	3
8	10	4
11	11	2
100	100	4
146	146	2
64	65	2
110	110	2
4	77	1
71	71	1
92	105	2
130	131	3
57	64	1
53	54	1
77	77	1
4	27	3
108	150	2
51	51	1
2	23	2
66	117	4
84	86	4
12	14	1
141	142	1
32	33	3
48	50	2
63	64	2
67	153	1
90	96	1
143	143	3
64	64	1
34	50	1
27	28	2
20	21	1
54	55	1
12	15	1
28	29	1
18	19	1
132	158	1
132	133	1
10	18	1
35	36	1
98	98	1
22	25	1
41	45	1
30	31	2
0	0	1
96	96	2
110	111	3
124	134	1
111	125	1
3	51	2
2	3	2
45	46	1
17	41	2
6	8	1
97	145	1
134	158	1
16	110	3
79	91	1
124	139	1
65	83	1
118	144	1
53	55	1
76	76	1
142	143	1
107	107	1
77	90	1
106	142	1
89	133	1
146	155	1
90	158	1
151	151	1
142	152	1
52	111	1
141	156	1
145	146	1
23	33	1
0	1	1
0	4	1
85	90	1
76	78	1
