26	26	8
43	43	3
171	171	13
63	63	7
139	139	8
43	44	5
68	80	1
81	81	3
48	48	15
76	76	9
185	185	8
60	67	5
134	134	10
104	104	17
88	88	10
23	23	9
169	169	12
96	97	2
171	172	2
98	98	5
117	117	3
86	88	3
177	177	5
125	126	4
148	171	11
25	25	11
62	67	3
111	111	7
162	162	2
73	73	6
56	56	3
60	132	2
3	3	4
108	128	9
167	167	23
178	178	6
64	65	5
36	37	4
106	106	11
16	16	2
71	73	2
156	157	8
40	40	12
87	87	11
39	39	8
27	27	5
53	54	2
71	71	3
120	120	4
2	3	7
12	13	5
172	172	7
69	70	3
78	78	7
78	89	3
74	75	7
154	154	11
67	67	7
131	131	5
41	42	8
126	126	11
149	149	9
103	103	7
109	111	1
134	153	2
163	189	4
140	141	9
57	57	7
150	150	10
106	121	3
19	20	7
127	127	18
77	77	15
168	168	10
99	99	1
188	188	2
102	123	2
163	164	12
1	3	7
127	128	2
151	151	8
60	60	6
133	133	8
32	32	7
69	69	4
107	116	2
122	122	6
80	80	7
170	185	1
134	140	1
37	37	10
47	47	6
0	0	7
57	66	4
129	130	6
92	92	4
125	125	3
178	179	1
166	181	2
164	164	5
29	29	7
14	33	2
180	182	11
129	129	13
164	180	1
172	173	3
118	118	2
74	137	1
38	38	3
111	112	7
5	5	6
130	130	10
102	104	1
89	90	5
117	118	4
106	107	4
150	173	4
46	46	1
108	109	4
124	148	2
147	147	12
22	31	2
170	184	4
84	87	2
148	176	3
132	132	4
151	152	1
155	155	4
74	74	4
114	114	8
2	2	4
7	8	3
94	95	2
79	79	5
173	173	6
150	151	2
179	180	2
128	129	8
4	5	2
17	19	7
102	102	13
79	89	5
181	181	5
108	108	8
116	116	5
149	172	3
86	86	9
179	179	6
80	81	2
124	124	4
187	187	3
138	138	7
24	24	4
182	182	8
173	174	3
35	35	6
55	55	3
113	113	2
152	170	3
121	121	5
124	146	2
70	70	2
177	178	1
119	119	2
44	44	2
148	150	1
75	76	10
97	97	3
94	94	5
166	167	1
91	91	5
41	41	5
140	153	3
76	85	1
152	152	5
83	83	3
54	54	3
35	36	1
56	58	3
146	146	6
190	190	2
95	95	5
136	136	1
169	173	2
83	85	1
116	117	1
89	89	3
164	166	1
169	170	2
167	168	4
46	108	1
134	137	1
170	178	3
55	56	2
72	73	4
151	175	4
110	110	4
138	139	2
165	165	4
19	19	3
80	91	1
59	59	4
86	89	1
7	7	3
112	112	1
149	151	2
32	37	3
75	77	1
61	62	2
22	22	3
1	1	2
124	151	5
84	85	1
106	128	2
9	10	2
142	142	6
161	161	3
6	6	1
38	40	1
86	90	3
81	82	1
41	43	1
144	164	2
156	156	2
36	36	3
82	83	5
84	84	2
154	155	3
126	141	2
164	165	1
75	75	7
58	58	9
85	85	5
60	77	4
24	25	9
73	76	2
43	139	4
23	24	1
22	24	3
181	183	1
90	90	6
7	40	1
17	20	1
17	17	4
109	131	3
85	89	1
145	145	3
31	31	4
148	148	3
82	82	5
108	112	1
114	116	1
141	142	5
164	179	2
104	105	1
151	153	5
89	94	2
148	183	1
128	128	3
66	187	5
174	174	5
101	103	2
56	78	1
124	125	3
90	91	7
121	122	7
180	181	3
148	151	2
58	87	1
69	71	3
180	180	3
64	64	3
42	42	12
163	165	3
61	61	3
124	126	2
124	153	1
143	144	1
132	136	1
79	80	5
169	185	5
111	115	2
140	140	3
20	20	3
187	188	3
133	136	2
169	183	2
111	124	1
73	74	2
134	135	1
38	39	3
59	131	2
9	95	4
110	111	4
184	184	3
101	123	5
77	78	3
47	48	1
119	120	3
154	156	1
32	33	1
139	140	3
21	21	1
189	189	1
150	175	2
71	76	1
13	13	2
155	156	5
98	120	2
109	110	1
122	123	1
144	155	4
58	61	1
108	116	1
91	94	1
172	177	1
85	86	3
87	89	1
178	180	3
6	7	2
130	131	1
128	154	1
17	22	2
93	93	1
105	106	3
34	34	2
103	124	2
57	83	1
53	87	1
84	102	1
168	171	2
12	12	2
15	15	3
90	111	1
159	170	2
13	15	1
8	8	1
91	92	1
103	104	2
147	148	1
42	43	1
183	183	6
11	12	1
81	121	1
128	139	3
87	88	2
125	153	2
20	22	2
10	10	1
60	61	2
35	37	2
170	183	2
145	147	1
161	165	3
45	45	1
182	183	3
30	30	1
72	72	1
152	184	1
133	137	2
33	33	2
72	133	1
136	153	1
0	4	1
107	108	1
100	122	1
92	95	2
169	184	1
157	158	2
123	123	1
22	36	1
103	122	1
48	49	2
174	175	2
66	80	1
107	107	2
128	141	1
77	140	1
43	46	1
101	122	1
175	175	4
5	7	1
90	109	2
78	91	1
101	101	1
144	145	1
175	177	1
28	30	1
4	4	2
144	146	1
9	9	2
157	157	2
156	159	1
182	186	1
36	38	1
153	159	1
168	172	1
137	138	1
30	34	1
170	171	1
5	6	1
73	75	1
135	135	1
63	64	1
83	84	1
91	102	1
146	153	1
4	7	1
104	122	1
20	21	1
170	170	1
176	176	1
181	182	1
135	142	1
135	137	1
134	136	1
53	53	1
186	186	1
101	102	1
