8	8	7
46	46	1
130	133	3
19	127	3
77	79	3
148	148	5
130	135	2
102	104	5
123	124	2
66	67	2
29	35	9
123	123	8
15	126	3
27	28	5
47	69	1
25	28	2
24	24	4
153	157	3
48	70	3
110	110	4
129	129	8
28	29	1
109	110	10
128	129	1
108	109	2
15	15	4
97	97	1
70	70	1
22	22	2
7	7	5
51	80	4
12	21	2
72	72	2
124	130	4
44	44	1
54	54	3
133	134	1
3	138	2
131	133	2
4	5	4
46	56	5
107	127	1
123	138	1
49	50	3
128	128	7
77	78	1
67	70	5
132	133	5
14	53	2
24	28	7
106	106	7
148	150	2
114	126	5
127	127	4
25	25	3
8	55	2
35	37	3
100	100	1
43	43	3
2	148	3
12	23	2
112	112	1
90	90	5
107	108	2
22	38	1
19	20	4
67	67	5
41	42	5
156	156	2
76	77	2
9	80	5
37	38	1
42	48	2
155	156	1
37	73	1
107	109	2
13	13	5
3	4	6
124	132	3
69	69	3
26	28	3
42	42	3
99	99	4
151	154	1
46	71	1
17	40	1
101	101	10
32	32	1
151	152	2
3	57	5
41	41	3
16	127	6
111	112	3
47	49	1
72	73	2
148	149	3
55	68	2
21	22	3
26	39	2
128	130	5
71	71	5
0	33	3
11	139	4
158	159	2
21	134	2
13	14	5
46	55	1
66	66	3
126	127	1
49	49	4
40	41	3
105	126	1
55	56	3
40	40	5
150	151	2
111	111	4
69	70	3
9	68	1
50	66	2
78	79	2
23	25	1
133	133	2
50	155	1
105	108	1
2	149	6
3	147	1
2	4	3
11	23	2
131	131	1
20	21	2
93	93	2
78	103	1
48	48	1
131	132	4
6	6	2
6	101	1
110	111	2
10	10	2
29	29	2
0	36	2
12	129	2
69	71	2
121	121	1
6	150	2
53	55	3
130	131	2
35	36	2
16	21	2
78	154	1
29	36	1
2	2	1
4	7	2
47	139	2
152	153	3
91	91	1
62	62	2
42	43	2
96	104	1
19	42	1
24	36	3
68	68	1
67	71	2
109	126	1
65	68	1
71	72	3
29	38	1
138	138	1
152	152	1
32	37	3
106	107	1
51	51	1
24	25	2
16	16	2
37	37	2
8	9	1
68	71	2
98	100	1
145	149	2
54	156	2
109	109	1
105	106	1
104	104	1
15	16	1
126	126	1
10	63	1
22	27	2
0	0	1
123	126	1
26	27	1
56	68	1
138	140	1
22	40	1
90	91	1
52	53	1
11	14	1
107	107	1
143	150	1
