134	134	3
45	57	1
31	33	1
37	37	12
77	77	10
136	137	1
164	170	4
170	183	2
61	61	16
11	11	15
150	152	2
186	194	3
117	117	7
108	110	2
42	42	7
40	41	4
110	124	3
12	12	9
147	147	6
165	170	2
137	141	5
41	41	11
1	36	3
7	8	5
55	55	4
195	196	4
51	51	5
27	27	3
165	166	11
18	34	1
123	128	1
31	31	10
23	23	4
40	59	2
150	182	5
43	43	14
132	132	4
194	194	11
145	145	10
186	186	5
71	72	2
191	192	2
125	136	5
117	133	3
189	189	13
27	70	6
108	108	12
49	58	2
169	169	7
88	88	2
105	152	3
148	148	11
17	22	4
17	17	9
185	185	19
113	113	18
69	71	2
99	99	3
172	187	2
62	63	4
21	21	4
64	64	5
15	79	1
160	161	8
184	184	10
63	68	3
52	56	3
47	48	3
159	181	1
167	171	7
122	122	5
16	16	7
167	168	4
188	188	13
12	15	2
3	4	2
157	157	12
176	176	11
174	175	4
108	191	2
73	73	6
136	136	5
153	158	3
73	74	6
101	101	2
10	14	2
102	103	4
111	111	5
130	144	6
34	61	2
135	135	10
106	106	4
9	41	2
41	42	5
30	31	1
161	162	2
115	132	1
150	150	16
36	36	10
151	154	5
124	124	14
112	120	5
96	98	2
124	125	3
153	153	12
114	114	6
146	146	7
67	68	2
144	144	13
111	124	5
60	62	4
165	165	4
145	146	8
144	145	4
159	160	8
24	27	1
183	183	8
130	131	7
182	182	6
70	70	1
41	64	7
94	94	6
19	19	2
155	155	1
115	115	4
6	7	6
9	12	5
158	158	8
112	112	9
152	152	10
188	194	2
21	22	5
100	105	3
8	59	2
133	137	1
3	3	4
95	95	9
104	152	4
175	176	1
160	160	10
7	7	6
182	183	5
112	121	3
62	65	3
79	79	9
146	147	5
187	188	2
185	186	5
110	113	5
101	103	6
103	179	4
157	158	2
27	73	1
158	159	7
80	184	2
110	110	14
159	159	8
172	172	9
102	102	1
175	175	6
138	139	1
96	96	5
156	159	4
193	194	7
191	191	12
1	1	8
147	148	2
39	39	15
105	108	3
95	99	1
168	169	2
57	57	7
12	13	4
33	35	4
169	194	5
123	123	9
141	141	15
2	2	4
124	134	2
81	81	7
8	9	3
49	49	8
50	51	7
189	191	2
139	139	12
143	145	3
134	158	1
149	149	14
103	177	2
95	96	2
5	5	9
161	161	6
27	71	2
193	193	7
51	54	2
173	173	11
56	56	5
141	149	1
32	33	3
162	164	1
6	6	4
85	85	4
107	107	5
8	21	3
50	50	6
98	99	1
180	180	10
168	168	3
44	44	8
6	98	1
184	186	1
168	173	2
138	138	7
166	167	2
20	20	3
97	157	3
196	196	2
155	172	2
130	134	4
100	100	4
58	58	8
178	178	6
109	109	3
42	139	4
133	135	1
170	186	1
49	50	1
63	74	2
160	179	3
183	184	1
102	108	2
149	169	1
118	118	7
60	61	3
36	59	1
20	21	2
152	182	3
108	175	5
28	28	3
26	39	4
150	155	1
153	155	1
35	36	5
19	20	3
179	180	10
106	173	5
3	20	5
26	26	1
134	169	1
135	139	4
40	40	3
71	71	6
140	140	6
120	120	1
174	174	9
119	119	12
54	54	4
86	86	4
22	22	5
127	127	7
29	29	8
109	119	1
156	156	11
89	89	4
83	83	5
81	84	2
8	8	5
145	154	3
52	52	8
50	56	4
0	21	1
101	129	2
167	188	1
168	171	2
115	133	2
171	171	7
144	170	5
129	134	2
45	45	2
152	176	3
62	62	7
17	23	1
96	140	1
58	60	2
169	170	1
27	81	4
28	29	3
9	9	4
197	197	3
36	140	6
164	177	4
59	59	1
29	33	5
10	10	2
149	150	1
13	15	2
177	177	7
119	135	6
9	45	2
18	18	4
54	56	9
8	35	3
102	104	1
125	128	1
37	40	2
152	159	1
28	30	3
103	103	7
44	88	1
103	105	2
180	181	2
20	88	1
26	27	5
80	87	2
33	33	3
181	181	4
127	138	4
14	14	2
129	129	8
166	166	4
48	48	7
76	76	3
165	168	3
9	47	8
192	192	5
32	32	5
165	167	3
39	40	3
4	4	5
52	53	5
137	160	3
137	145	4
88	89	3
16	17	1
25	25	4
126	126	3
33	37	3
190	193	3
108	160	1
20	24	1
35	35	5
136	158	5
105	105	3
105	106	5
123	148	9
24	44	3
104	104	6
46	46	10
26	29	2
170	171	1
104	109	3
153	154	4
53	53	5
130	130	1
100	132	1
33	46	1
37	61	1
118	144	4
181	182	2
1	2	4
180	182	2
121	121	12
164	168	1
66	74	3
60	60	2
26	72	1
42	44	1
78	78	4
151	153	2
79	84	1
121	123	1
44	45	5
116	135	5
145	167	2
154	154	3
99	135	2
128	129	3
196	197	4
21	26	4
18	20	4
82	83	5
118	130	2
15	46	5
42	43	3
87	88	2
118	143	2
129	135	2
164	164	1
46	47	1
167	167	5
172	177	2
13	48	1
167	190	2
16	44	2
11	32	1
112	119	1
109	111	3
69	70	2
177	183	1
137	158	1
82	82	3
5	6	2
107	108	1
109	157	1
75	77	2
137	159	1
24	25	1
30	30	10
17	79	1
0	0	6
79	80	4
18	19	1
72	75	4
190	192	2
131	132	2
99	145	1
143	143	2
15	17	1
94	112	2
18	35	2
87	87	4
25	26	1
178	197	2
143	144	1
47	47	4
144	159	1
136	140	2
19	35	2
116	146	1
10	11	2
169	172	2
41	63	1
100	174	1
176	178	2
106	110	3
93	95	1
142	142	1
26	58	3
115	116	2
109	115	1
97	97	1
103	178	1
190	190	2
37	57	2
137	138	4
16	56	1
34	66	1
13	13	3
57	58	2
24	24	2
83	101	2
66	66	5
132	135	1
99	118	1
99	119	1
164	166	2
32	46	1
184	194	1
74	74	1
63	63	2
187	187	3
173	179	2
144	171	1
10	12	2
100	119	1
101	102	3
68	68	1
143	146	2
118	142	1
17	33	1
116	118	1
134	159	1
189	190	1
179	179	1
82	84	4
118	131	2
48	49	1
65	66	1
77	80	1
38	38	2
163	168	2
41	43	1
128	133	1
61	90	1
1	21	1
11	41	2
25	42	1
70	73	3
80	80	1
23	38	1
81	85	2
195	195	1
53	58	1
12	46	2
168	172	1
109	110	1
106	108	1
34	138	2
141	142	1
164	176	2
23	172	1
187	189	2
107	114	1
107	116	1
77	79	1
156	157	1
65	74	1
60	64	1
150	173	1
34	40	1
116	145	1
171	172	1
61	62	2
94	96	1
21	76	1
71	73	1
143	163	1
11	58	1
104	111	1
110	111	2
36	42	2
172	178	1
189	192	1
126	127	1
55	72	1
38	93	1
9	72	1
148	179	1
160	178	1
76	87	2
133	133	1
19	28	1
29	34	1
17	44	1
137	137	1
