127	127	1
87	87	8
66	66	4
137	139	2
140	142	1
67	67	9
18	25	6
93	93	5
82	82	9
73	73	13
118	124	3
93	94	3
90	90	8
83	83	3
113	113	6
110	110	7
77	79	2
19	21	8
123	124	1
28	28	12
99	109	1
81	81	6
144	144	3
13	15	3
134	135	8
119	119	14
120	120	12
129	129	11
34	35	7
65	68	2
71	72	10
38	38	11
0	4	5
136	136	5
41	75	1
29	29	2
116	117	2
16	16	7
92	92	20
63	64	5
136	137	4
56	84	7
104	107	4
103	103	9
111	111	20
41	41	10
82	84	3
57	58	9
3	3	11
133	133	4
2	2	9
80	80	13
116	116	5
54	54	8
4	4	3
3	26	9
65	65	11
115	115	7
87	90	2
13	13	4
47	47	8
25	25	3
100	100	8
83	86	3
23	66	1
53	53	15
101	102	8
49	49	7
59	63	1
30	30	5
17	60	1
16	22	2
18	33	2
14	99	3
11	11	5
86	86	4
15	15	9
3	11	1
121	121	3
114	114	27
5	5	6
70	70	7
60	61	3
24	25	7
92	98	5
141	141	8
43	74	3
19	29	1
48	48	6
57	57	6
77	107	3
123	123	11
69	69	8
95	96	4
23	23	6
42	42	3
74	74	5
54	55	8
85	92	1
125	126	2
135	135	8
32	33	4
21	21	7
61	61	11
142	143	2
49	71	7
104	104	15
137	138	1
125	125	3
37	37	5
20	21	10
94	105	1
8	8	5
33	33	8
34	34	7
115	117	1
22	49	1
70	84	4
79	80	9
22	23	4
105	105	3
0	1	5
49	50	2
62	75	2
128	129	3
64	64	6
80	81	1
57	65	3
132	132	5
13	31	2
97	98	6
55	55	4
107	107	9
128	128	6
89	90	4
98	98	6
15	31	1
82	116	1
24	24	5
18	18	3
50	50	9
12	13	2
77	78	6
106	113	2
113	114	3
48	49	1
68	69	4
91	91	7
132	139	4
66	69	4
11	39	1
12	16	1
3	5	3
10	102	2
102	102	10
33	34	2
94	95	2
19	20	3
2	20	2
33	35	4
16	21	3
8	101	2
88	88	4
96	98	7
104	133	5
52	52	8
10	11	2
134	134	6
22	22	14
20	20	12
103	124	2
78	78	6
118	119	5
52	53	3
109	128	2
57	60	2
100	102	3
118	118	3
32	32	9
87	109	1
10	37	3
108	133	1
96	104	3
122	122	7
54	58	7
53	87	3
79	84	4
48	54	2
72	72	8
12	14	1
58	59	3
27	29	2
119	131	3
83	107	2
76	76	4
82	106	1
26	96	2
61	81	2
31	33	1
124	124	4
19	19	5
84	85	5
26	33	2
56	57	2
6	6	7
9	9	10
119	120	1
35	35	1
75	75	9
35	50	4
113	119	1
59	60	2
10	96	1
132	138	2
109	134	2
79	81	1
79	79	5
109	120	3
42	43	1
27	27	8
68	68	4
65	66	2
6	102	1
36	36	3
65	69	1
143	143	10
53	65	4
124	125	1
109	110	2
94	94	4
112	112	5
140	141	3
35	37	1
17	18	6
76	84	7
99	99	5
19	103	1
9	101	1
131	131	1
32	47	3
39	40	2
12	115	1
10	78	5
26	26	2
140	140	7
108	108	8
55	60	3
74	95	1
105	106	4
85	107	1
9	78	3
58	58	4
117	117	4
77	110	2
139	139	3
53	59	2
82	87	1
124	126	2
145	145	5
27	30	2
62	81	1
55	69	2
137	137	6
66	67	1
72	73	3
111	112	4
111	139	1
106	107	5
104	106	2
105	134	2
49	70	1
132	133	4
97	97	4
56	83	2
51	53	2
131	133	3
123	125	2
121	122	2
87	104	2
106	106	3
96	109	3
57	66	1
131	134	2
55	63	2
18	34	1
104	108	1
55	83	2
138	138	1
73	74	1
12	36	1
56	56	5
40	40	6
137	140	1
108	109	4
145	146	3
17	53	2
64	65	4
1	3	4
62	62	5
89	89	5
43	43	4
59	59	4
123	126	2
32	36	1
42	73	1
131	132	3
76	96	1
121	126	1
1	105	1
10	10	3
49	52	5
15	32	1
6	9	1
39	39	4
62	64	2
57	59	2
102	103	1
2	5	2
17	17	3
117	120	2
135	137	2
117	118	3
88	89	1
129	135	1
25	26	2
107	108	4
52	72	1
108	140	1
109	109	3
107	113	3
13	73	2
42	80	1
0	0	2
42	59	1
30	37	2
136	140	1
16	17	3
71	75	1
100	112	3
114	115	5
31	31	2
3	4	5
18	41	2
12	12	1
126	126	6
109	116	4
110	111	1
113	120	1
60	60	5
62	78	1
85	85	2
113	137	1
51	51	3
9	38	1
10	40	1
121	142	2
5	12	1
13	14	2
61	62	1
138	139	4
125	127	2
53	60	3
1	38	3
130	130	1
34	36	1
10	38	2
39	71	2
70	71	2
41	103	1
12	98	1
63	63	3
2	3	2
95	105	1
75	76	1
101	141	2
9	34	1
117	127	2
15	96	2
3	96	2
54	64	1
110	114	1
143	144	1
101	121	1
5	6	1
52	82	1
0	105	1
74	75	1
126	127	1
146	146	1
114	117	1
83	84	1
15	16	1
55	58	2
19	47	2
72	90	2
71	71	1
6	96	1
101	101	3
23	24	4
4	5	1
82	85	1
138	141	2
73	75	1
142	142	1
53	54	3
8	96	1
6	10	2
78	84	1
98	109	1
51	52	2
14	14	1
55	56	1
70	72	1
40	70	1
28	30	1
89	115	1
10	35	1
74	76	1
58	60	1
23	37	1
5	39	1
18	22	1
1	106	2
141	142	1
31	32	1
26	117	1
19	26	1
136	138	1
65	67	1
95	95	1
120	140	1
31	36	1
17	19	1
