31	31	8
30	31	7
126	127	2
86	88	8
132	132	13
34	34	16
13	13	13
15	15	12
63	63	3
75	75	12
107	107	8
123	123	8
118	118	6
48	48	16
25	32	3
32	32	8
60	60	6
52	53	3
124	124	5
8	20	1
72	73	4
126	126	11
18	18	5
11	123	2
91	91	9
57	58	5
0	1	4
53	53	5
22	22	12
70	70	11
122	122	11
4	4	7
104	104	6
76	76	10
25	25	9
130	131	9
115	115	15
88	90	1
82	82	5
60	77	3
11	11	5
44	44	12
59	59	5
12	12	16
52	52	11
109	109	11
79	80	1
11	12	6
7	7	9
103	103	11
72	80	5
83	100	4
75	80	1
60	61	2
42	42	14
62	62	3
67	68	4
128	129	2
93	94	5
92	94	2
108	125	1
31	32	5
84	85	2
16	16	6
83	87	2
49	49	13
95	95	13
64	64	3
27	28	2
114	120	4
101	101	12
13	19	3
74	74	7
6	6	13
1	1	2
131	131	5
108	108	14
43	44	7
118	119	4
49	54	1
90	106	1
27	79	4
39	39	4
93	93	5
58	58	14
6	40	1
93	95	1
67	67	6
96	97	2
24	24	8
62	65	1
121	121	17
99	116	5
62	87	4
91	96	1
27	27	9
26	28	9
0	0	8
18	19	4
80	81	3
99	99	8
56	56	5
94	96	3
104	105	2
28	31	1
59	78	3
68	84	2
10	10	9
25	44	4
55	55	6
66	66	13
94	121	3
113	124	5
100	101	8
96	98	4
92	92	4
16	17	2
57	57	3
125	125	3
83	83	8
113	113	4
116	120	5
100	100	10
41	42	9
50	51	2
73	129	4
48	49	2
89	89	8
65	65	8
8	8	5
29	29	7
83	86	1
39	40	5
54	54	10
16	27	4
25	26	6
112	112	13
61	61	1
21	21	4
84	84	10
19	19	2
18	21	1
72	103	4
96	131	4
3	3	2
33	34	5
71	71	7
4	115	1
89	105	1
51	51	5
41	41	5
44	46	1
70	76	1
119	119	5
73	74	7
119	126	2
85	86	3
68	68	3
114	131	5
92	93	2
117	117	10
114	115	1
42	132	1
86	86	4
58	74	6
81	82	3
46	46	6
76	77	10
61	62	2
71	90	3
27	125	2
45	47	4
87	87	2
30	34	4
127	127	10
18	28	1
79	79	11
20	31	2
59	69	4
20	20	3
124	125	4
114	114	11
70	71	5
19	20	1
105	105	6
128	128	6
110	110	4
112	113	1
1	3	5
98	128	2
69	69	4
87	91	1
96	96	4
83	84	1
80	80	1
94	95	2
24	25	2
4	5	5
77	77	11
129	130	1
62	63	3
22	24	3
5	5	3
111	111	3
102	102	9
94	94	3
13	26	3
14	14	7
72	72	4
90	90	7
7	47	1
22	23	1
88	89	2
7	121	1
2	3	4
28	29	2
89	90	3
33	33	5
106	106	6
121	123	1
68	69	4
91	105	3
40	40	2
66	68	4
14	26	3
50	50	11
75	79	2
2	2	2
91	94	1
26	39	3
81	81	7
109	111	2
85	85	1
20	107	1
12	16	2
31	39	1
59	61	3
86	87	1
65	67	1
21	22	5
67	80	3
116	116	3
88	88	7
47	47	4
83	125	4
38	39	2
75	106	1
43	43	4
23	34	1
14	15	4
42	45	4
21	31	2
58	59	9
53	56	1
2	5	4
30	30	5
59	73	1
113	114	1
32	33	2
9	10	2
97	97	3
101	103	3
101	102	1
18	29	2
3	5	1
115	123	1
16	56	2
98	98	1
28	30	1
66	67	3
71	72	3
7	133	1
46	49	3
27	38	1
72	102	1
28	28	2
72	75	1
42	55	1
133	133	3
63	65	1
9	9	6
78	78	7
70	75	3
123	124	1
102	103	3
42	44	2
31	40	3
78	80	3
45	45	1
29	30	1
97	104	2
129	129	1
26	26	2
22	34	1
64	86	2
16	81	1
97	99	2
13	25	1
119	121	1
64	68	1
75	94	1
82	85	1
13	39	2
106	107	1
104	132	2
39	80	3
120	121	2
7	8	1
21	44	1
109	124	1
55	57	1
8	9	2
118	125	1
17	17	2
45	46	3
19	21	1
51	53	1
15	120	1
78	79	1
118	130	1
127	129	1
44	80	1
3	116	2
97	98	2
45	64	1
44	45	2
5	7	1
14	19	1
130	130	2
27	73	1
47	48	1
125	130	2
4	55	1
11	19	1
58	73	1
67	77	1
24	26	2
90	121	1
54	55	1
43	114	1
106	124	2
1	2	1
