54	57	2
13	14	13
2	26	1
128	142	3
20	20	9
40	41	5
92	92	5
121	121	3
126	149	6
159	159	16
124	124	4
46	47	5
92	93	2
5	6	15
44	44	17
37	37	7
7	7	18
40	46	3
52	52	8
158	158	5
165	165	4
161	161	3
4	5	2
85	85	3
33	33	12
46	46	14
34	35	14
133	133	4
13	13	6
82	83	5
1	2	24
83	135	1
21	23	3
44	45	4
148	149	7
159	160	7
100	106	5
0	2	2
16	24	2
1	1	14
125	140	2
112	112	5
152	152	9
53	55	1
17	17	12
102	103	3
54	71	2
42	72	2
108	109	4
126	126	7
145	145	13
10	11	7
6	6	7
134	135	8
18	19	3
24	25	5
105	105	12
0	0	4
22	23	15
166	166	13
126	127	2
14	14	9
65	67	1
106	106	8
127	128	1
159	165	2
136	136	16
7	8	7
150	150	8
117	133	2
109	109	4
144	144	6
18	18	10
88	88	8
17	24	2
26	27	7
54	54	15
12	12	18
20	22	3
79	80	3
36	37	4
106	107	5
9	9	14
156	156	4
137	138	7
11	11	16
116	117	5
3	4	5
80	82	3
2	53	3
41	56	4
138	147	3
72	72	4
147	147	4
107	108	4
130	133	1
91	91	7
146	149	4
118	118	12
35	35	3
34	34	17
2	2	10
124	127	3
148	148	1
71	82	2
1	4	6
57	57	2
3	3	4
137	137	9
0	3	3
86	87	4
110	110	4
153	154	1
146	146	6
111	111	4
64	64	6
62	63	4
134	134	10
93	94	5
91	95	4
139	140	3
160	163	1
139	142	1
16	16	17
19	24	4
56	56	9
49	50	4
98	98	2
4	4	15
2	54	5
25	25	6
27	28	3
168	168	1
158	159	1
101	101	21
74	76	5
135	135	13
67	67	8
52	54	1
116	116	2
41	41	14
17	18	1
155	157	4
26	26	14
5	7	3
43	43	6
84	86	4
8	10	5
16	17	7
5	5	6
128	133	4
45	47	9
23	25	4
21	24	3
35	36	9
146	147	1
6	7	7
8	8	5
149	149	15
45	45	7
63	63	5
40	40	3
63	74	2
38	38	14
56	166	3
82	82	9
3	6	2
85	89	1
98	100	2
10	10	10
122	122	4
95	97	2
153	153	8
36	36	15
52	70	1
23	23	5
18	24	1
99	99	6
14	15	6
125	125	4
64	75	2
13	17	1
0	1	6
76	76	1
15	15	1
51	51	2
25	26	4
114	137	2
74	75	3
56	139	4
150	151	3
73	76	4
97	97	3
68	76	3
113	114	5
89	89	1
87	116	1
139	139	7
170	170	1
42	42	7
113	113	4
17	55	2
23	24	2
47	47	10
43	44	3
97	132	1
69	70	2
90	91	3
147	148	7
100	100	1
122	123	3
11	12	4
157	157	1
46	50	1
79	79	4
104	104	3
120	120	2
154	156	2
105	106	1
169	170	9
24	24	2
63	69	4
139	160	2
157	158	3
97	99	3
123	123	5
2	3	2
64	65	1
142	142	1
21	21	9
106	110	4
87	89	1
53	53	7
130	132	3
50	50	4
10	17	1
45	72	2
160	160	5
57	165	1
100	101	6
68	77	3
48	48	5
140	140	4
84	138	3
46	72	1
5	37	4
164	164	1
130	130	7
99	106	4
107	107	7
39	39	4
49	49	7
129	130	3
86	86	2
71	71	4
81	81	1
54	56	3
52	53	1
129	129	2
22	22	2
69	76	1
43	52	6
148	164	2
63	73	3
8	9	2
128	147	1
5	38	2
90	104	1
118	125	1
22	24	3
108	108	1
73	73	3
38	39	1
21	22	7
110	111	3
47	55	3
136	139	2
138	139	2
125	128	1
41	47	1
124	148	1
156	157	1
48	57	3
11	17	3
138	138	1
132	133	3
119	120	1
93	93	1
119	119	1
46	62	2
130	134	1
125	126	2
42	43	7
20	23	1
129	131	1
19	19	4
86	89	1
45	49	2
71	72	1
45	46	5
156	162	2
90	112	2
75	75	3
122	125	2
96	96	2
53	56	3
1	34	4
68	79	2
95	95	3
54	81	1
123	126	2
11	24	1
74	74	5
133	134	2
57	62	2
162	163	1
51	70	1
155	156	1
98	99	1
128	128	2
143	144	1
47	166	3
131	133	2
36	38	1
47	48	1
165	166	1
80	80	1
84	87	1
70	74	2
141	141	4
139	151	1
58	58	1
9	12	1
126	128	1
66	67	2
87	87	2
167	168	1
39	40	2
117	117	1
103	104	1
13	144	2
90	102	1
112	113	1
112	115	1
88	89	3
106	112	1
138	140	2
69	69	2
70	70	1
103	112	3
37	38	2
42	56	2
160	161	1
15	44	1
151	151	1
27	27	3
15	17	1
56	80	1
53	54	1
151	157	1
115	115	2
14	79	1
135	136	3
100	105	1
166	168	1
73	80	1
149	150	3
4	7	1
16	56	1
123	125	1
164	165	1
12	13	1
54	55	4
142	144	3
68	69	1
5	10	1
3	9	1
142	143	3
0	4	1
90	90	1
155	158	1
139	141	1
0	45	1
119	155	1
1	138	2
4	8	2
78	80	1
143	143	1
33	34	1
121	124	1
