71	71	20
126	130	2
35	35	19
95	96	2
13	13	12
96	96	19
32	32	18
89	90	3
73	73	26
24	24	12
101	101	14
99	99	9
6	16	3
24	25	6
138	138	22
18	18	18
122	122	25
124	124	23
135	135	17
117	117	21
80	81	11
83	84	7
26	26	6
121	121	10
8	9	10
123	123	22
14	14	10
105	106	5
140	140	14
137	137	18
100	100	27
1	1	19
82	82	7
130	131	6
19	19	22
131	131	29
28	32	1
77	77	16
125	125	14
132	132	36
23	23	19
15	15	18
128	128	40
95	95	12
108	108	12
130	130	39
34	34	14
116	116	31
113	114	7
12	14	1
114	115	5
73	79	8
12	16	2
20	21	12
92	92	21
77	104	1
136	137	3
18	35	2
2	2	18
134	134	29
74	74	15
104	104	10
113	113	18
112	131	6
82	83	4
7	7	24
126	126	26
22	23	8
30	30	8
122	123	14
36	36	4
31	31	5
27	27	23
16	16	12
83	83	6
2	3	4
136	136	20
35	36	2
114	116	2
72	72	13
134	135	3
6	6	14
98	98	16
91	91	15
8	8	19
119	125	1
109	111	6
25	26	1
110	110	8
87	92	3
88	91	4
88	88	17
139	139	25
109	113	1
111	112	4
114	114	11
82	101	1
37	38	4
77	83	3
90	90	18
119	119	19
105	105	10
94	94	17
129	129	19
5	5	11
29	29	14
75	75	11
71	76	3
102	102	24
85	85	16
80	80	7
25	25	9
19	20	6
98	99	4
124	125	7
136	138	3
32	132	2
33	33	25
83	85	7
7	8	10
11	11	7
94	101	3
9	9	10
128	129	5
103	103	17
30	31	7
96	98	6
6	10	4
104	105	8
7	9	2
85	86	1
77	79	8
79	79	6
84	84	14
73	121	1
92	94	6
14	15	2
75	84	2
15	16	4
133	133	18
89	89	4
81	100	1
3	3	11
22	22	8
76	76	12
105	127	3
135	136	6
27	32	1
78	78	7
37	37	14
87	87	11
14	20	2
4	4	11
10	25	1
9	10	4
97	98	4
75	76	1
84	103	1
28	28	19
1	5	1
137	138	6
16	19	3
109	109	25
110	111	13
79	103	2
103	105	1
99	100	2
81	81	11
97	129	2
38	38	14
120	123	6
96	140	5
97	97	13
88	127	7
92	112	1
72	73	9
13	74	1
97	127	3
127	127	7
128	139	1
102	130	3
81	82	12
92	114	3
74	75	3
76	104	1
88	90	1
79	113	4
21	22	4
20	20	6
94	99	2
123	124	4
118	126	1
121	123	3
10	11	11
118	118	11
121	125	2
82	87	2
107	107	8
73	109	5
72	74	3
108	113	1
86	86	3
139	140	3
12	121	2
11	12	4
129	130	4
110	113	1
81	84	2
18	27	3
73	122	2
18	21	5
119	120	4
1	32	1
97	99	4
118	119	3
86	105	2
86	90	2
92	102	1
116	131	2
120	120	6
6	7	4
112	112	16
29	30	2
76	77	4
120	121	2
17	17	7
23	26	2
111	111	6
5	6	5
104	106	6
76	105	1
76	127	1
108	109	3
124	126	6
13	14	5
96	97	2
102	124	3
79	116	2
82	103	4
101	102	4
28	29	1
2	4	1
27	28	3
105	107	4
124	140	1
26	36	1
96	135	3
111	114	2
76	86	4
126	127	7
0	0	3
72	75	6
32	37	2
0	38	1
124	131	1
22	27	1
4	27	1
17	18	1
11	100	2
118	120	1
6	26	2
23	24	4
84	85	2
121	122	3
115	115	6
12	12	8
1	27	2
12	13	2
116	117	3
34	36	1
103	124	2
93	94	3
112	113	1
132	133	3
9	29	2
16	35	4
106	106	5
10	10	8
8	13	2
90	114	1
126	129	1
80	86	3
0	2	1
77	78	2
123	125	1
94	96	1
97	133	1
80	85	2
32	36	5
117	118	1
77	129	3
21	27	1
131	133	2
84	86	2
107	108	2
22	24	3
85	105	2
73	74	3
21	33	1
30	96	1
4	37	3
31	32	3
84	106	1
10	12	2
18	28	1
78	83	1
131	139	2
104	115	1
107	111	2
16	18	3
89	95	1
95	131	1
38	112	1
135	137	2
7	10	1
108	110	1
17	19	2
30	37	1
16	17	1
3	38	1
136	139	1
3	37	2
74	108	1
30	32	2
93	93	2
97	124	1
104	124	1
79	101	1
106	107	1
4	18	1
109	112	1
28	30	1
102	118	1
25	28	1
33	34	1
5	9	1
21	24	1
21	21	2
7	25	1
6	19	1
71	72	1
7	23	1
100	102	1
87	88	1
76	87	1
88	89	1
103	104	1
100	129	1
