114	114	10
137	138	9
109	109	29
122	122	14
11	17	3
8	9	7
126	126	13
20	20	5
0	0	7
32	32	14
104	107	3
82	122	3
104	105	3
71	71	6
78	78	8
74	79	2
38	38	1
137	137	20
131	131	23
22	22	7
110	117	6
125	125	19
90	90	10
132	132	16
133	133	11
112	113	1
97	98	3
5	5	11
26	27	4
138	138	7
130	130	13
103	104	9
11	12	2
115	115	5
18	18	3
117	117	7
10	10	5
104	104	10
83	83	4
114	115	4
133	134	8
95	95	6
17	18	4
33	34	3
100	100	11
96	96	5
72	117	4
102	138	3
1	4	2
85	85	7
128	128	26
125	126	2
5	24	5
140	140	12
36	36	5
31	31	12
119	119	9
123	124	5
82	82	10
86	117	4
2	18	2
77	77	5
72	72	19
101	108	3
2	4	1
103	103	15
124	124	20
26	26	9
98	127	2
81	82	6
86	90	1
83	84	3
79	79	19
128	129	6
134	134	18
103	117	1
102	102	6
113	114	4
105	107	1
34	35	1
123	123	8
116	117	3
112	112	6
113	113	3
92	93	3
33	33	6
104	124	2
8	128	1
118	118	4
110	110	11
24	24	1
88	88	8
74	75	1
122	123	5
86	86	7
126	133	1
105	106	5
103	111	3
135	135	13
116	116	14
124	125	5
28	30	3
14	14	4
124	129	4
35	36	2
71	72	1
3	3	3
115	116	4
125	129	8
74	126	1
21	21	13
80	85	3
87	88	4
130	139	3
28	28	1
87	87	3
2	2	5
76	77	7
111	115	1
30	31	4
105	118	3
120	121	4
94	122	4
101	101	18
12	12	3
139	139	13
19	19	4
84	84	3
89	90	1
29	30	3
6	6	6
75	75	9
90	99	1
101	102	3
15	15	2
16	16	7
25	25	1
118	119	8
22	23	3
34	34	5
106	107	4
80	80	3
124	126	2
23	23	10
7	19	1
100	115	2
30	32	3
4	7	1
97	97	2
0	7	2
98	98	10
6	107	6
18	99	4
131	132	5
76	76	5
74	74	4
120	123	7
36	37	1
130	131	1
120	120	1
20	21	2
108	109	1
27	27	4
17	17	6
91	91	4
35	35	17
120	122	1
16	17	1
131	133	2
9	10	3
9	119	1
0	94	1
72	79	3
99	99	2
126	127	4
130	132	1
87	92	1
127	128	2
111	111	4
23	24	1
94	94	2
28	33	4
1	1	1
0	1	4
112	117	2
106	106	5
95	96	2
98	99	2
129	129	5
86	87	3
28	29	3
73	121	2
76	104	1
6	7	1
103	108	1
0	8	3
3	7	4
137	140	3
92	92	3
93	94	2
136	136	5
73	74	3
102	125	2
134	135	2
125	128	3
104	113	3
83	120	2
5	6	1
93	93	5
96	116	1
119	122	1
82	124	1
105	105	4
81	81	3
22	27	3
3	5	1
14	15	2
1	2	2
91	102	1
91	94	1
10	24	1
13	13	3
74	117	1
103	118	2
9	120	1
134	136	2
3	12	4
89	91	1
85	104	3
123	132	2
4	25	3
107	107	3
31	32	2
110	111	1
127	127	2
91	123	3
108	132	1
96	123	2
4	4	1
20	82	1
7	7	5
37	37	3
135	136	1
136	137	1
111	113	2
118	121	1
90	126	1
82	84	2
18	88	2
121	121	3
15	16	2
91	96	1
82	85	2
86	106	1
97	134	1
75	78	2
80	122	3
106	124	2
108	119	1
100	124	1
22	26	1
102	103	2
102	108	2
3	18	2
94	95	1
121	123	1
10	25	1
5	10	1
5	122	1
7	9	2
80	93	1
21	36	1
121	122	1
83	97	1
133	137	1
84	85	1
89	89	2
100	103	1
78	79	1
10	17	1
93	102	1
18	19	1
