151	151	8
165	166	1
10	37	3
39	39	5
131	137	2
54	68	3
67	67	5
44	73	3
89	89	5
13	74	1
19	20	2
137	146	2
10	43	2
134	134	5
24	35	2
121	121	9
91	91	2
15	17	6
131	131	4
108	108	9
74	74	12
100	100	9
163	182	3
33	33	2
25	25	3
169	169	5
18	27	2
128	128	1
73	85	4
123	123	6
138	138	9
35	47	3
95	95	6
88	88	11
76	76	4
173	173	9
37	42	1
177	187	3
2	2	6
187	189	6
117	117	4
59	61	3
59	59	5
107	107	4
132	132	8
13	14	2
177	177	5
188	189	9
4	48	4
164	164	5
82	99	2
41	41	6
155	155	5
125	138	4
47	47	5
140	140	9
18	19	3
115	123	1
149	150	3
143	143	10
158	158	5
4	5	9
34	35	5
145	156	4
160	160	5
114	114	6
114	115	5
150	151	3
86	153	2
139	147	2
23	24	10
29	168	2
125	125	7
46	46	6
34	34	4
87	87	14
78	78	12
63	65	2
56	56	3
40	40	6
133	136	4
36	37	4
156	165	6
148	148	2
20	21	8
110	110	5
30	184	3
113	113	5
129	129	3
10	42	3
64	64	2
116	116	2
14	38	2
94	94	21
147	147	6
87	88	3
129	130	6
72	129	3
103	103	3
106	106	8
116	117	7
81	81	8
149	155	1
21	21	2
126	126	6
105	108	3
46	52	1
31	31	8
95	99	4
17	162	5
140	148	3
106	107	2
9	92	1
163	177	1
28	28	3
79	80	4
27	27	5
120	120	6
19	19	3
184	185	2
7	7	3
93	93	4
152	153	7
91	100	4
57	57	6
22	22	5
99	99	9
43	52	3
77	138	1
5	5	3
58	58	6
38	39	5
68	68	6
172	174	3
86	86	10
37	38	3
96	96	7
141	141	2
99	100	2
36	36	8
73	75	2
187	187	3
26	26	7
41	56	2
131	132	1
63	78	2
35	36	5
75	75	3
19	28	3
154	154	4
120	121	2
54	54	7
18	18	2
163	163	7
82	82	11
3	11	4
75	84	3
124	124	7
53	53	4
106	109	1
76	77	3
8	47	1
122	122	4
101	101	5
21	29	5
22	24	2
76	80	3
150	160	2
120	122	1
20	167	1
31	32	6
58	62	4
177	178	1
89	91	1
70	70	3
162	164	2
178	179	2
104	104	5
55	55	6
176	176	1
131	138	2
71	71	1
115	115	3
84	84	2
64	66	5
77	77	3
65	65	2
171	189	2
55	57	3
6	7	2
136	157	2
14	35	3
80	80	3
10	12	3
126	128	2
113	123	3
17	17	6
164	182	3
111	112	8
116	121	1
59	153	3
28	29	3
174	174	7
109	109	5
161	161	2
66	67	2
113	115	3
75	80	2
170	171	2
17	31	1
142	142	6
12	15	3
186	186	1
89	134	2
103	109	2
7	47	1
63	63	7
115	117	2
73	74	2
165	165	2
32	35	2
102	102	3
179	180	3
105	106	5
96	97	2
130	130	2
21	169	2
18	20	2
146	147	3
80	81	1
79	81	6
92	92	2
16	16	6
135	135	5
72	74	2
27	29	1
93	94	5
64	97	2
57	79	1
182	182	2
145	145	4
42	44	1
152	152	5
183	183	5
61	61	6
94	99	2
134	138	2
2	10	1
102	103	3
158	159	2
175	175	3
42	42	3
117	118	3
44	44	3
124	125	4
143	147	2
97	97	2
162	163	2
167	167	2
38	38	8
88	89	2
14	57	3
137	137	2
111	126	4
126	145	3
24	24	11
79	83	2
136	138	1
49	49	2
12	13	1
45	45	6
25	169	1
166	166	2
15	31	1
88	116	3
139	139	6
30	31	3
43	43	2
139	146	4
44	46	1
108	117	1
125	139	2
78	79	4
146	156	2
157	157	9
90	90	12
159	160	1
119	119	1
106	128	2
112	112	5
162	162	2
23	72	2
97	98	1
18	31	1
1	2	2
0	18	2
13	38	1
35	35	5
3	3	2
43	91	2
52	52	1
110	111	1
133	146	3
133	166	1
35	38	1
10	11	4
67	77	1
89	175	2
153	153	4
163	181	1
92	93	2
118	118	11
61	62	2
72	72	3
189	189	2
61	78	2
12	29	2
68	96	1
20	72	2
66	74	2
26	177	3
14	14	4
1	1	2
13	31	1
123	124	2
48	48	1
12	16	1
60	99	3
116	119	2
35	37	1
168	168	2
66	66	1
137	139	2
36	44	1
135	146	2
6	6	1
9	54	2
111	111	1
144	144	3
67	68	2
116	118	3
150	150	3
8	8	2
101	104	3
75	91	2
130	144	1
178	178	2
10	13	1
13	15	2
83	83	5
29	29	2
29	167	1
60	61	2
62	62	1
181	181	1
98	99	1
62	63	2
39	42	2
81	98	1
47	48	1
188	188	1
131	133	1
42	149	1
11	20	1
42	43	3
140	147	1
26	27	2
22	23	1
82	83	2
91	92	2
69	88	3
37	44	1
32	33	2
80	85	2
11	75	2
76	82	1
135	139	2
120	163	1
20	92	1
73	91	1
73	76	1
98	102	2
96	100	4
56	73	4
136	166	1
9	167	1
46	70	3
32	32	2
58	152	1
154	155	2
7	8	2
111	127	2
177	188	1
131	145	1
3	25	1
21	24	1
124	135	1
33	36	2
73	73	1
132	136	1
72	73	1
22	30	1
180	180	1
181	182	1
60	60	1
61	99	2
18	29	2
8	57	1
119	121	1
131	136	1
24	170	1
16	123	1
119	122	1
167	171	1
185	185	3
136	137	2
86	87	2
98	98	2
21	94	1
179	187	1
66	68	1
108	109	1
175	176	2
15	15	1
57	78	1
1	11	1
145	166	1
20	20	2
165	171	1
65	67	2
101	102	1
153	154	1
58	63	2
3	62	1
14	34	1
88	93	1
65	74	1
44	76	1
89	110	1
57	58	1
79	79	2
142	143	1
60	78	1
60	98	1
146	146	3
141	183	1
30	77	1
10	19	1
4	4	1
136	136	2
171	173	1
74	75	2
11	12	1
3	36	1
147	148	1
133	135	3
0	55	1
101	103	1
39	40	1
10	20	2
138	140	1
165	167	1
54	55	1
86	134	1
78	132	1
132	154	2
16	17	1
86	156	2
107	109	1
71	77	1
58	71	1
120	124	1
70	95	1
6	92	1
173	174	1
131	144	1
35	46	1
81	83	1
37	47	1
30	30	1
14	18	1
