50	50	7
194	195	12
48	48	10
182	182	3
45	63	3
34	49	5
225	225	8
108	184	6
62	62	8
11	11	13
51	52	7
36	36	10
30	98	2
19	22	2
126	141	1
19	19	2
106	108	2
52	52	2
21	21	9
153	153	5
71	71	2
134	134	9
13	13	8
30	45	1
84	84	6
8	13	4
28	28	16
158	206	4
14	14	4
155	166	2
201	201	6
102	103	2
85	85	9
118	127	1
148	148	12
105	107	4
152	152	6
68	68	3
31	44	1
69	69	10
222	222	4
28	219	2
0	1	4
166	166	5
33	33	13
137	139	3
22	23	1
17	22	3
46	53	1
145	145	4
102	104	4
124	125	2
199	199	2
78	79	3
63	64	6
237	237	3
40	84	2
232	233	3
15	15	4
203	204	3
2	3	4
27	27	10
2	105	2
18	18	3
118	155	1
24	68	9
66	66	7
13	14	2
64	65	5
107	213	4
76	76	5
9	10	3
85	98	2
16	23	1
164	219	4
55	55	3
66	67	3
115	117	3
19	20	7
46	46	18
136	137	2
73	73	1
107	119	2
65	65	4
178	178	2
30	30	4
14	49	4
32	42	6
43	43	4
61	67	2
228	228	1
191	191	7
37	51	3
234	234	8
47	47	3
182	183	1
20	20	11
26	26	14
141	217	1
53	53	12
7	7	7
225	226	1
24	65	3
172	172	2
227	227	1
229	230	2
109	112	3
30	33	2
225	230	2
1	1	8
175	175	6
35	45	7
23	53	2
38	97	4
70	70	7
177	177	5
4	4	4
114	114	2
99	109	2
39	39	5
57	57	7
78	125	4
119	231	2
29	95	3
12	12	4
97	97	7
81	81	7
102	102	6
154	154	3
145	151	1
59	59	6
56	56	3
162	162	9
119	130	2
34	34	10
18	22	1
157	157	6
122	125	1
119	207	3
99	99	12
170	226	1
61	61	6
37	37	6
238	238	1
159	171	4
181	181	4
100	100	5
99	100	3
23	31	3
240	240	1
166	171	2
0	0	8
171	172	1
184	185	6
34	37	2
161	204	2
4	79	2
38	38	6
193	193	4
4	7	2
81	103	4
26	27	2
168	168	2
8	8	6
190	192	2
115	156	2
12	30	1
63	69	2
143	144	2
17	18	2
29	29	9
130	185	5
50	51	2
208	208	4
149	149	3
211	211	2
188	188	5
85	86	1
200	200	3
57	60	4
3	8	1
126	188	3
158	158	1
150	160	4
52	53	4
57	58	4
215	215	4
55	58	5
123	123	8
120	127	1
9	35	2
23	23	7
165	171	2
118	134	1
41	41	3
139	140	3
3	82	2
211	212	5
16	21	2
3	103	6
27	28	7
233	233	3
189	189	4
68	69	4
131	215	3
29	30	9
149	150	6
168	189	1
82	103	3
24	53	1
141	231	3
77	77	7
114	117	3
226	226	6
70	96	6
84	85	3
85	236	1
49	50	4
232	232	9
113	233	2
31	35	6
42	42	5
13	75	4
219	219	4
192	192	4
74	74	6
1	105	1
107	124	1
190	190	3
120	120	5
156	172	2
6	6	6
43	44	3
107	121	2
86	86	8
126	218	1
7	16	1
28	85	2
153	158	3
88	141	1
38	75	1
187	187	5
117	117	4
106	107	3
172	182	2
186	190	1
154	155	1
129	238	3
111	221	2
231	231	4
11	53	3
126	126	8
80	80	5
101	101	10
170	213	2
121	121	4
133	134	2
30	36	1
224	225	3
46	47	1
42	82	2
33	34	5
78	78	5
35	38	1
32	32	5
42	101	1
22	22	5
212	213	2
151	151	1
176	198	2
74	85	2
187	206	2
79	84	1
42	58	1
194	194	3
229	229	3
137	145	4
91	99	1
86	95	5
193	200	2
209	218	5
82	82	7
120	192	2
122	202	1
79	79	3
3	3	1
96	97	3
185	187	2
63	63	15
230	230	2
30	32	3
12	16	3
197	197	3
1	68	1
143	218	1
222	223	1
132	218	1
203	203	11
101	102	1
29	101	2
214	217	1
140	228	1
135	135	5
140	142	3
4	34	1
239	239	4
80	81	5
78	130	1
58	58	2
163	168	1
105	210	1
60	60	2
19	63	1
146	146	1
33	36	2
119	119	1
78	82	2
9	202	1
5	75	3
105	105	8
58	59	2
117	167	2
193	196	3
125	226	4
183	198	2
216	216	4
118	239	2
183	183	2
1	60	1
21	22	1
220	220	1
178	179	3
108	129	1
204	204	1
80	84	3
54	54	5
73	74	4
150	150	1
226	227	4
73	100	3
144	145	1
36	50	1
31	50	2
125	125	3
207	207	5
118	119	1
75	98	1
165	170	2
86	96	2
32	33	5
25	26	4
39	41	1
152	201	2
67	67	5
166	206	1
153	155	1
163	166	3
205	205	4
151	201	4
129	129	1
72	72	6
25	25	3
105	106	2
111	148	1
163	163	1
167	205	2
85	234	3
82	83	3
108	163	4
163	204	1
168	193	1
18	19	2
86	88	2
83	103	1
15	16	5
167	176	1
137	138	3
33	42	1
27	47	1
95	95	2
103	103	2
147	147	7
200	203	2
7	8	1
140	140	6
13	18	1
179	179	1
43	48	3
176	176	2
1	22	2
128	128	1
12	63	2
202	202	2
4	77	1
17	17	2
161	228	3
56	57	2
80	99	4
16	16	1
30	35	3
142	142	1
22	30	5
31	31	2
211	227	1
116	171	1
9	9	2
214	214	4
61	62	2
109	109	3
136	136	2
174	174	2
134	232	1
234	236	1
152	154	1
4	17	2
64	64	2
17	49	1
46	54	2
107	162	1
14	82	2
124	124	2
213	213	2
217	218	1
24	24	3
38	39	1
84	135	1
39	75	1
130	130	2
60	61	1
34	35	1
30	31	1
10	10	2
136	139	1
183	197	1
13	19	1
30	76	1
139	139	2
162	163	1
121	238	1
109	170	2
100	101	1
208	224	1
31	98	1
7	73	4
175	176	1
212	212	1
49	49	4
69	86	2
45	45	2
50	52	1
59	69	1
146	228	1
110	110	1
223	223	2
117	127	2
40	42	2
34	36	2
157	171	2
59	60	1
88	88	1
76	80	1
44	44	2
51	51	3
17	95	2
28	29	1
195	195	1
167	204	4
169	169	1
158	176	1
36	52	1
35	42	1
158	166	1
168	207	1
24	25	2
61	85	1
128	148	2
147	222	1
36	54	1
48	49	1
49	51	2
67	69	1
6	31	1
75	77	2
144	149	2
2	48	1
195	196	1
233	235	3
56	58	1
95	189	1
206	206	1
2	5	1
138	138	1
52	54	2
138	222	3
5	6	1
221	221	4
129	218	1
144	147	1
193	194	1
122	241	1
37	74	2
218	218	1
4	60	1
112	224	1
44	45	2
18	31	1
83	83	2
36	37	3
107	107	1
48	50	2
16	30	1
141	142	1
176	186	1
194	196	1
106	106	1
10	128	1
125	126	1
4	35	1
236	237	1
186	186	2
103	104	1
16	17	1
40	80	2
43	45	1
35	37	2
56	80	1
21	23	1
4	78	1
119	160	1
104	104	1
128	218	1
44	100	1
113	113	1
49	84	2
143	143	1
71	73	1
88	133	1
76	100	1
206	209	1
162	198	1
38	100	1
80	100	1
167	167	1
173	174	1
