58	58	7
53	53	3
72	72	12
69	69	14
84	84	10
71	72	4
15	15	7
56	57	4
12	14	2
13	13	11
9	10	5
2	2	8
75	75	27
83	83	14
23	27	3
86	87	3
74	74	10
71	71	18
70	70	8
11	11	15
7	8	5
89	89	16
9	9	17
72	77	2
86	86	9
17	17	8
68	68	16
75	81	1
30	30	5
67	68	4
28	28	3
8	8	17
56	67	3
50	50	12
56	56	8
79	80	3
33	33	3
60	66	7
27	27	10
1	1	10
12	12	19
12	13	4
67	67	18
2	28	5
34	34	1
65	65	15
25	25	10
73	73	11
46	46	6
71	75	2
63	64	9
31	46	2
66	66	3
20	20	2
4	4	11
23	23	10
65	66	1
24	27	1
5	8	2
78	79	8
6	7	4
47	48	4
7	7	5
10	12	2
61	61	3
0	0	4
14	14	7
26	31	2
68	69	4
19	19	4
69	70	2
60	60	13
49	51	6
74	75	5
29	29	6
58	70	1
85	85	10
63	65	2
57	57	18
24	24	11
64	65	2
22	24	1
69	85	2
3	14	2
26	26	3
23	25	3
10	10	12
77	77	5
81	81	20
51	52	3
31	33	1
18	18	1
90	90	2
50	51	1
29	67	1
8	9	5
31	31	10
5	5	4
47	47	6
20	21	3
62	63	4
30	57	5
15	16	2
54	54	2
75	76	2
62	62	5
71	73	1
49	75	1
22	22	5
3	3	3
80	80	5
54	81	1
34	35	3
88	88	4
51	51	7
88	89	1
76	76	5
78	83	3
48	48	10
32	32	3
70	74	3
0	1	1
52	76	2
87	87	4
19	51	4
56	66	3
82	83	5
52	52	2
86	89	3
80	86	2
58	66	2
81	85	2
1	2	2
7	10	2
56	58	1
82	82	6
21	21	3
55	55	2
76	82	1
17	25	2
60	64	2
72	84	4
59	60	2
84	89	1
77	79	5
53	54	2
48	52	3
8	12	2
1	21	2
60	63	1
84	85	1
16	18	2
22	23	1
17	22	2
78	78	5
79	79	2
55	56	5
10	31	1
24	25	2
66	80	1
53	57	2
57	68	2
64	66	1
84	86	2
85	87	1
52	53	1
59	62	3
33	34	1
16	23	1
55	74	2
1	3	1
72	73	3
4	24	1
6	8	1
73	74	1
5	7	2
52	75	1
16	16	1
19	22	2
8	19	2
77	78	1
58	59	2
77	83	1
4	5	3
5	10	1
85	86	1
61	62	1
58	67	1
5	6	1
22	25	1
49	49	2
70	72	2
17	24	1
21	25	1
31	50	2
49	52	1
21	22	1
29	30	1
18	23	1
54	78	1
54	55	1
26	27	1
80	81	1
65	67	1
