72	72	9
17	17	10
82	82	15
74	99	1
95	96	3
117	117	15
12	41	2
5	26	2
45	45	8
142	148	1
57	57	17
24	24	12
19	116	3
121	121	4
15	15	15
69	69	15
71	106	4
25	25	8
46	46	13
134	134	13
33	34	3
94	97	3
4	5	3
113	114	3
82	111	1
112	114	2
12	43	4
135	135	11
119	119	14
15	49	2
144	144	13
66	71	3
55	55	2
40	40	9
72	73	8
76	85	3
53	53	15
5	5	10
26	26	3
65	65	9
107	108	2
14	14	10
115	115	7
150	150	10
4	4	4
13	87	1
10	13	1
136	139	4
66	66	12
48	85	5
65	75	2
70	71	4
130	130	8
132	132	16
15	16	4
14	16	1
17	48	1
86	86	3
67	67	14
95	95	10
54	54	16
103	103	2
124	133	1
69	70	8
20	21	4
76	94	3
88	94	1
151	151	16
8	37	7
108	108	2
84	87	2
42	43	2
10	10	11
120	132	3
109	115	2
20	20	16
76	77	5
22	23	10
18	18	10
146	147	2
23	32	4
26	33	1
77	100	4
113	113	3
120	122	1
123	123	12
57	58	1
34	34	10
101	101	7
83	83	2
37	37	7
48	48	7
69	71	2
125	126	3
42	42	25
124	124	4
147	150	5
14	15	1
17	18	9
139	141	3
85	85	5
127	128	2
77	140	3
118	118	11
130	131	13
79	82	1
30	30	4
78	80	2
22	39	3
8	23	3
25	26	5
131	131	15
53	54	6
100	136	1
24	37	4
23	37	2
28	29	2
56	57	4
137	138	5
62	62	3
94	94	2
81	81	9
126	126	10
44	45	3
92	92	6
116	117	3
36	37	6
97	97	9
12	12	11
88	96	6
12	42	3
39	40	11
125	125	4
23	34	2
63	64	8
141	141	3
19	20	7
22	22	15
109	109	11
73	93	2
68	68	5
33	33	4
127	137	2
7	7	6
11	12	4
104	105	4
128	130	4
107	110	1
149	150	5
108	113	2
23	23	16
81	93	4
36	49	2
103	112	2
49	49	6
94	95	4
108	110	6
111	111	2
103	104	3
15	21	2
14	18	4
31	63	2
75	75	4
98	98	4
48	75	1
102	102	5
85	88	1
95	97	3
31	31	8
21	22	5
52	52	1
129	134	3
122	123	2
132	137	1
127	127	6
126	127	4
10	11	1
27	105	2
51	51	5
120	120	2
87	87	7
105	123	1
122	125	1
35	37	4
16	17	8
56	56	1
110	110	6
13	13	16
73	74	1
39	39	15
62	64	2
55	64	2
107	107	6
150	151	2
134	135	2
17	19	1
76	102	1
148	148	4
77	77	3
27	29	3
153	154	3
45	46	3
142	143	2
77	79	1
48	49	3
93	93	2
70	70	12
99	99	2
96	96	1
76	101	1
139	139	1
9	10	9
47	47	3
129	129	8
50	53	2
43	43	5
12	14	1
42	46	4
93	97	3
109	122	3
5	6	2
31	102	6
9	9	7
8	8	4
28	28	2
8	9	4
3	39	4
34	35	3
73	73	13
84	86	2
78	85	3
100	100	2
66	67	4
143	143	4
74	74	6
115	116	1
76	136	2
62	63	1
3	3	9
22	24	2
50	84	1
47	56	5
140	141	2
105	105	3
6	6	2
106	107	4
153	153	3
50	52	4
36	36	2
131	132	1
102	106	1
2	2	4
24	34	3
144	146	1
112	112	4
145	145	3
9	14	1
22	27	5
7	23	3
68	70	1
16	40	1
30	31	4
67	109	1
118	133	1
135	150	1
122	122	3
47	51	1
92	93	1
16	107	3
142	144	2
24	46	1
19	19	9
74	79	3
33	35	2
71	71	10
76	138	5
24	105	2
37	40	2
23	24	4
27	27	4
50	50	2
147	147	10
66	75	1
123	124	2
100	107	2
110	111	1
41	41	1
52	67	2
14	109	4
24	49	1
23	45	1
83	94	1
99	137	2
138	138	5
49	57	4
51	54	1
119	120	1
103	106	1
139	145	2
136	136	2
42	45	2
4	32	4
108	111	2
99	109	1
35	35	3
54	64	2
50	63	3
125	134	1
78	78	1
12	13	1
35	36	4
24	102	1
99	148	2
109	110	2
13	15	1
140	142	2
108	123	1
133	134	2
45	57	2
120	133	3
47	48	2
71	95	2
128	142	2
132	133	2
50	51	3
47	57	1
84	84	3
58	62	1
152	152	2
2	30	1
32	32	1
73	79	1
141	145	2
80	91	2
79	79	6
44	44	7
34	36	1
58	58	3
144	145	4
80	115	2
13	22	1
111	114	1
31	70	2
132	135	4
41	44	1
138	139	1
76	82	1
84	113	3
77	135	2
146	146	2
111	113	2
128	129	2
73	113	1
55	56	2
79	81	1
21	21	3
96	107	1
4	39	4
114	115	1
64	64	4
31	32	1
16	16	4
103	105	3
133	133	3
76	76	1
127	132	1
140	140	1
118	119	1
67	107	1
34	37	1
127	139	1
63	63	1
14	95	1
5	40	2
105	108	1
154	154	3
18	109	1
139	140	1
98	99	2
128	128	1
137	137	2
16	18	1
135	136	1
78	94	1
12	15	1
114	114	2
121	132	1
67	71	1
64	106	1
121	122	1
75	102	1
85	86	1
6	7	1
30	33	1
108	133	1
47	52	2
67	68	1
79	93	2
81	84	1
41	42	1
125	137	2
77	80	2
19	88	1
37	114	1
22	29	1
27	28	1
64	75	2
122	133	1
4	6	1
144	147	1
124	129	1
21	23	1
18	19	1
43	44	1
126	128	1
8	15	1
31	34	1
20	57	1
40	47	1
10	39	1
79	98	1
24	35	1
