49	49	7
177	177	3
145	162	1
18	19	14
34	35	3
98	99	2
2	3	5
201	201	16
186	186	12
153	154	6
117	117	2
244	244	8
233	233	9
36	36	13
23	23	5
55	55	11
156	156	17
3	3	4
107	108	9
164	186	1
48	49	5
118	118	10
82	83	2
99	99	4
212	212	10
165	166	4
95	96	4
216	216	4
46	52	4
230	230	6
19	100	1
110	110	11
87	88	2
37	88	1
207	207	11
178	179	4
21	27	3
237	239	1
235	246	3
61	63	2
184	184	7
204	204	3
222	222	4
94	96	2
111	111	8
234	234	21
237	237	10
188	241	2
39	39	5
11	223	4
90	91	4
180	180	11
41	185	1
8	8	7
169	170	7
223	223	5
16	16	5
49	50	5
26	26	14
193	195	2
4	57	5
8	232	4
211	212	7
112	112	7
185	211	2
170	171	3
181	182	2
151	180	1
100	163	2
97	97	4
211	211	5
37	37	10
57	59	4
181	181	7
70	94	3
1	1	2
20	21	4
12	12	8
161	161	7
191	192	9
207	220	5
53	53	6
151	156	2
9	9	16
76	77	1
64	65	7
145	145	1
236	237	3
227	228	2
150	150	12
54	54	6
58	59	2
167	212	1
202	202	6
59	169	6
12	245	1
71	71	5
109	110	1
59	61	2
17	44	4
11	11	6
191	194	4
9	10	2
30	36	2
158	158	10
242	242	8
87	87	4
182	184	2
234	237	4
28	28	10
205	205	6
165	165	10
173	173	6
196	196	8
162	162	13
76	76	3
172	173	2
64	64	6
208	212	6
108	108	3
208	208	7
156	212	1
222	242	1
51	65	1
150	151	3
206	207	6
178	178	4
18	98	2
157	216	1
62	195	2
187	187	3
238	238	9
3	57	2
187	189	1
31	218	1
50	50	4
63	64	2
228	230	1
221	221	11
88	88	7
47	94	6
15	15	2
198	198	8
152	152	9
154	154	9
111	113	2
30	30	6
174	174	2
190	191	4
91	91	3
206	206	5
61	70	1
2	2	10
67	67	5
149	150	6
97	98	4
169	169	2
96	96	2
44	44	11
74	96	1
79	79	2
101	106	1
172	172	6
77	77	12
6	6	4
32	46	5
117	118	4
189	189	5
175	175	5
98	100	6
160	160	5
168	169	1
156	157	1
115	119	2
243	244	2
164	177	2
238	239	8
27	27	5
205	227	1
52	66	2
10	10	4
235	235	6
214	214	8
209	209	4
188	189	4
153	198	2
225	225	4
22	22	6
209	211	4
11	12	2
193	194	4
21	21	7
8	231	1
4	4	4
202	223	4
40	93	2
3	55	4
189	190	2
102	102	3
192	193	3
173	174	2
166	185	4
151	151	6
195	213	4
241	241	9
113	113	3
194	195	3
74	74	5
83	84	4
67	156	3
183	184	1
45	45	12
159	187	2
163	164	1
73	73	3
6	55	1
70	72	1
61	167	2
19	19	4
92	92	12
247	247	3
46	47	2
228	228	2
217	218	1
26	31	2
217	219	2
230	231	4
66	66	8
162	163	1
150	164	1
236	236	4
33	68	4
80	80	3
246	246	7
5	5	4
43	43	5
42	42	4
86	86	5
114	149	1
85	85	5
178	185	3
197	197	5
203	203	4
245	245	5
6	7	3
79	80	2
207	221	2
17	17	6
154	202	3
68	69	2
60	70	1
55	67	1
197	208	4
176	177	4
61	66	1
10	11	4
27	28	3
146	159	3
147	214	2
110	159	1
29	29	8
38	38	8
33	33	9
76	81	2
106	106	3
114	117	2
44	45	2
171	171	11
224	224	5
21	98	2
6	203	3
201	202	1
24	24	6
59	59	3
18	18	6
107	107	1
218	218	5
151	154	2
200	200	10
30	56	1
218	219	2
191	191	5
96	101	2
217	217	2
71	72	1
90	90	6
114	162	1
32	67	3
248	248	1
22	23	1
3	226	1
227	227	3
192	192	2
193	193	3
164	164	4
32	32	9
203	204	6
47	47	3
160	187	2
93	94	2
95	95	6
213	213	9
62	151	1
72	72	1
41	41	4
15	93	1
96	97	3
7	151	2
208	210	3
184	185	2
176	176	6
65	65	3
115	115	3
239	240	2
194	194	3
151	177	1
78	84	1
205	228	1
61	61	2
48	48	5
159	159	7
170	170	8
24	42	1
2	56	1
225	226	2
34	34	10
72	73	4
51	51	2
89	102	3
7	7	5
179	179	9
36	37	4
79	92	3
15	16	1
36	39	2
84	85	5
155	156	1
173	185	3
152	213	2
156	167	1
4	5	3
180	181	3
208	209	4
161	201	3
62	243	2
47	110	1
167	167	2
245	246	2
57	164	2
157	157	14
239	239	4
234	235	1
37	38	1
100	100	4
232	232	3
16	52	1
155	155	6
188	188	1
89	89	3
77	81	3
166	167	2
180	208	5
163	163	4
242	244	4
69	84	1
12	203	2
172	184	1
54	55	4
151	201	1
146	146	1
40	41	1
69	70	1
145	157	1
32	55	4
216	217	3
116	116	7
40	40	9
39	49	3
80	81	2
113	164	1
230	233	3
160	177	2
78	78	4
38	39	2
146	147	1
65	242	1
63	63	3
113	162	1
186	219	1
95	97	1
113	149	1
220	220	2
30	31	2
71	76	1
150	233	1
187	188	4
119	119	8
231	234	2
67	68	2
58	58	3
197	198	2
14	15	1
188	240	2
158	159	1
154	200	1
70	84	2
43	44	3
101	107	2
167	174	1
162	186	2
191	238	1
199	199	5
26	110	1
153	153	3
21	22	1
57	60	1
29	36	1
82	82	2
60	169	3
70	70	3
195	214	1
46	46	5
92	102	1
162	184	1
20	22	3
94	94	5
8	204	1
118	120	2
28	32	1
181	213	1
39	71	2
157	176	2
160	175	1
88	207	2
109	109	1
57	58	1
169	171	3
49	76	1
147	147	2
66	67	1
91	95	1
170	187	2
213	215	2
249	249	3
76	78	2
243	243	3
197	200	2
85	105	1
240	240	4
238	240	2
187	193	2
5	6	1
62	63	1
190	190	3
80	82	1
182	186	1
163	184	2
161	162	2
183	183	2
68	68	3
93	161	1
20	114	1
147	219	1
87	98	2
81	82	1
210	212	1
28	40	1
160	161	1
151	155	3
185	186	3
3	6	2
76	97	2
185	205	1
181	209	3
188	219	1
105	105	2
99	114	1
209	210	1
229	229	3
114	114	2
198	199	4
161	186	1
70	78	1
226	226	5
62	62	3
182	182	3
35	36	1
34	37	1
9	161	1
70	71	1
33	65	2
24	25	2
195	196	2
84	84	3
217	238	1
33	34	1
45	46	1
173	183	2
114	115	3
89	106	1
220	222	2
152	157	1
42	43	2
109	150	2
231	231	1
202	203	1
115	116	2
101	101	3
36	38	1
20	20	3
175	178	2
30	48	1
51	72	2
25	25	1
199	200	2
220	241	1
55	223	1
215	215	1
6	204	2
112	241	1
170	215	1
187	200	1
201	235	1
7	67	2
185	185	2
14	37	3
75	76	1
209	236	1
103	104	1
104	230	1
19	43	2
153	202	2
98	98	3
74	75	2
59	60	3
56	56	2
44	55	1
226	227	1
229	233	1
79	81	1
78	82	1
150	154	1
152	153	1
204	229	1
168	193	1
91	92	2
118	119	2
157	161	1
214	217	1
175	176	1
111	166	1
179	180	1
71	79	1
92	93	1
99	100	1
212	236	1
21	26	1
176	179	1
3	4	1
69	69	2
31	32	1
44	66	1
100	167	2
169	186	1
90	101	1
171	187	1
102	104	1
248	249	1
227	230	1
104	119	1
210	211	1
32	211	1
241	242	1
64	107	1
197	212	1
94	95	1
190	192	2
57	57	2
29	30	1
240	241	2
67	192	1
150	179	1
76	155	1
12	28	1
33	55	1
171	188	1
93	93	1
167	186	1
219	219	1
165	185	1
73	74	1
116	118	1
25	204	1
50	112	1
1	9	1
52	52	1
102	103	1
25	150	1
9	39	1
29	220	1
28	46	1
202	204	1
75	75	1
113	114	1
206	225	1
85	89	1
16	36	1
33	192	1
31	31	1
