89	89	2
76	89	1
153	153	4
4	4	3
40	152	3
114	115	1
74	132	4
34	34	10
151	151	2
144	144	11
63	70	5
159	160	2
97	98	3
6	6	10
3	11	2
111	111	4
49	49	2
5	158	5
110	110	8
20	20	5
119	120	5
47	47	23
88	88	5
7	7	7
142	142	8
76	76	11
162	162	5
36	37	8
51	51	14
6	11	5
87	87	5
139	139	2
159	159	7
46	46	13
165	169	1
102	102	7
74	97	1
86	88	3
116	116	5
55	55	9
69	70	2
112	113	5
90	90	6
13	14	8
150	150	5
16	24	1
101	101	5
65	71	2
86	87	4
22	22	3
64	64	3
55	57	1
93	93	7
48	49	6
125	125	4
141	141	5
98	107	1
75	75	7
153	155	3
63	69	1
28	28	5
146	146	1
25	25	8
114	125	3
24	24	7
82	82	5
20	24	4
35	35	10
112	145	1
121	158	2
161	161	3
97	104	1
168	168	8
18	18	3
63	64	2
34	36	3
6	40	2
127	130	2
157	157	9
47	48	3
110	112	1
42	42	13
71	73	5
11	12	1
99	109	3
23	23	5
56	56	7
43	43	4
92	93	8
22	23	2
144	149	1
34	37	4
163	164	2
26	27	3
54	54	4
108	159	2
37	53	1
152	153	4
49	50	5
9	10	9
36	36	8
56	57	3
91	92	4
98	98	4
85	85	9
0	0	3
164	164	1
42	54	1
62	64	6
4	5	3
165	165	2
112	112	10
141	142	3
37	39	1
45	45	7
154	154	3
81	81	4
78	80	2
162	164	4
57	63	4
47	65	4
96	98	3
57	58	4
84	91	2
44	44	13
80	81	2
106	106	1
5	5	10
119	119	6
67	67	2
140	141	3
122	124	1
109	109	3
121	154	3
137	170	2
133	133	13
13	13	1
106	142	2
37	45	1
81	82	7
161	165	3
17	74	1
53	53	5
57	62	4
92	94	4
19	19	5
21	21	5
74	89	2
126	126	5
155	155	3
27	28	2
3	5	2
144	145	1
1	1	9
43	44	1
129	132	1
14	15	1
113	113	4
21	24	1
20	21	4
123	124	4
107	110	2
75	88	1
18	19	2
114	120	4
88	157	1
161	163	2
116	146	3
114	114	3
6	7	5
73	73	2
46	47	1
44	45	7
98	100	2
45	46	3
77	77	1
105	105	4
73	74	3
138	138	7
79	80	5
90	97	2
149	150	2
131	131	5
158	158	7
0	1	1
127	133	4
70	72	8
95	95	3
108	109	5
1	3	2
5	7	1
38	41	1
166	168	1
52	52	2
79	79	1
91	99	4
107	107	1
167	167	4
110	111	3
126	127	4
10	11	3
132	132	1
128	129	2
2	2	6
145	145	3
50	50	3
105	107	2
114	148	1
6	86	1
134	134	2
114	117	1
71	71	4
150	151	1
150	157	5
128	128	5
105	106	4
3	3	3
53	157	1
91	97	1
97	97	1
102	103	1
11	106	3
113	114	2
136	137	2
43	106	2
149	149	3
119	159	2
72	98	2
99	99	1
39	44	1
7	8	5
115	115	2
101	103	1
77	78	2
51	77	1
3	4	1
130	130	3
133	146	2
91	94	1
166	167	1
125	130	2
128	132	1
103	103	2
72	72	4
37	37	3
9	14	3
101	104	3
19	23	1
127	127	2
68	68	1
65	65	3
137	137	3
80	82	1
74	74	5
40	40	3
37	41	1
113	166	3
5	6	1
73	89	1
146	148	2
125	126	1
3	48	1
108	108	4
135	135	2
116	161	2
116	117	1
118	122	3
11	58	1
71	90	1
111	112	2
24	25	4
1	2	2
52	77	2
136	136	5
111	113	1
135	136	2
131	151	1
98	99	4
7	10	3
39	39	2
96	100	2
72	74	1
42	43	1
90	99	2
76	77	2
8	107	1
11	44	1
163	167	1
153	154	1
125	144	1
117	117	1
5	38	1
58	58	2
74	75	1
40	41	1
78	78	1
82	83	1
71	89	2
10	10	1
137	150	1
120	121	1
169	169	1
83	156	1
35	42	2
11	11	4
143	143	3
107	133	1
33	34	1
166	166	1
33	33	1
151	157	1
19	21	2
130	160	1
48	48	1
127	149	1
6	41	1
86	86	2
84	84	2
53	55	2
96	96	1
96	105	1
39	76	1
74	82	1
160	160	2
161	162	1
18	79	1
160	163	1
117	118	1
8	8	1
97	106	1
101	106	2
48	158	1
94	95	2
68	69	1
111	166	1
126	133	1
38	39	1
45	72	1
113	117	1
80	80	1
4	53	1
