46	47	4
21	24	3
83	83	4
93	94	5
12	15	2
10	10	11
108	151	2
160	161	5
39	41	1
168	168	2
130	131	1
3	3	8
164	165	4
44	45	6
104	105	3
25	25	19
24	25	4
54	54	10
8	8	2
169	169	2
44	46	1
54	55	5
2	2	8
108	112	1
141	141	3
42	42	12
82	82	2
9	9	7
98	98	2
43	43	17
117	119	3
89	117	4
93	93	1
12	23	1
56	56	6
55	151	1
112	112	4
147	154	1
2	3	2
26	26	1
64	64	9
83	85	2
13	13	2
70	70	1
123	123	1
166	166	9
110	150	2
106	106	2
158	163	2
44	44	2
119	119	4
4	4	10
35	35	9
18	18	6
69	70	3
91	96	1
136	137	5
45	45	4
137	137	8
12	12	4
144	145	5
116	116	6
49	50	2
105	106	4
47	48	1
28	28	1
126	126	9
0	0	4
64	65	1
85	85	5
143	143	2
5	6	3
38	57	1
81	81	6
84	84	3
73	73	2
41	41	4
63	63	6
22	24	3
86	86	4
134	134	6
34	34	5
51	58	3
147	153	3
7	7	4
133	133	4
135	135	3
21	21	3
34	35	6
39	54	3
10	11	6
49	49	4
131	132	2
106	110	5
110	110	3
14	14	6
167	167	4
136	136	7
114	114	6
146	146	3
66	67	4
25	48	2
19	19	6
48	48	5
85	98	1
38	38	3
131	131	3
127	129	1
151	151	3
124	127	2
111	111	5
76	76	4
116	139	3
108	109	3
86	87	4
91	91	6
88	88	3
0	1	1
37	37	10
1	2	4
16	101	1
20	20	4
53	55	3
160	160	2
101	101	1
126	127	1
14	15	1
52	52	2
124	124	3
13	14	1
114	147	3
129	129	1
69	69	1
107	107	1
24	24	5
85	87	1
36	36	3
95	114	2
91	119	1
2	105	2
39	39	5
6	6	4
23	23	2
152	152	3
57	62	1
152	169	2
1	1	7
128	129	3
142	142	5
115	116	1
1	8	1
43	45	2
11	11	3
91	147	2
115	115	1
33	33	2
74	76	1
140	141	3
164	164	3
97	97	2
55	55	2
22	22	3
20	21	4
129	130	2
165	165	1
81	82	3
53	53	3
108	108	5
159	159	3
4	5	1
152	160	2
73	74	2
66	66	1
109	110	4
102	102	2
63	66	1
4	6	1
133	137	1
117	117	3
7	8	1
139	139	2
64	155	1
5	144	1
156	157	1
69	71	2
44	84	1
113	113	4
73	77	1
44	89	3
116	126	2
104	104	2
62	62	2
152	165	1
162	163	1
48	49	2
123	124	2
76	77	2
71	71	7
135	136	1
78	79	2
153	153	1
74	75	1
95	95	2
165	166	1
64	67	1
109	109	1
109	151	2
90	90	2
17	17	3
72	72	1
5	5	2
20	109	2
134	135	1
110	113	1
150	150	1
47	49	3
95	96	2
46	46	1
27	28	1
17	18	2
140	143	1
145	145	1
47	47	3
15	16	2
144	144	2
132	132	2
14	24	1
157	157	3
44	86	1
35	36	2
68	68	1
148	149	1
140	140	1
158	158	1
146	147	1
149	149	1
3	5	1
77	80	1
161	162	1
51	69	1
147	147	1
16	16	1
50	50	1
67	156	1
50	51	1
100	100	1
77	77	1
89	89	1
22	132	1
94	95	1
