171	171	4
174	177	2
141	141	7
186	186	2
118	181	4
187	196	2
149	150	2
110	110	9
140	140	7
34	35	1
106	106	2
68	86	1
172	179	2
55	171	2
127	127	8
22	22	7
10	31	4
107	108	3
56	56	5
109	112	1
24	25	3
16	16	5
166	166	2
22	26	1
69	69	4
143	145	1
55	55	4
109	110	5
174	174	2
54	170	3
136	153	5
138	189	2
152	152	2
53	54	2
188	188	2
161	161	2
97	143	3
165	175	1
145	145	2
149	149	1
40	41	1
124	126	3
104	104	2
133	133	5
7	8	3
147	147	3
101	104	3
9	9	11
30	30	5
14	14	6
96	97	3
172	172	9
122	123	1
40	40	3
114	114	3
133	137	3
156	156	9
138	188	4
196	196	3
124	141	3
126	127	2
161	164	3
191	192	1
181	181	4
184	185	5
12	13	5
180	180	1
36	36	1
144	145	1
98	98	7
174	176	4
63	63	1
128	128	2
194	194	8
38	38	5
163	164	1
131	147	4
146	146	7
68	68	6
191	191	6
112	113	4
122	122	6
112	134	1
154	154	4
101	108	1
52	52	3
103	104	3
139	193	3
7	151	1
8	8	3
3	5	4
126	126	3
179	182	3
41	41	4
150	150	3
193	193	6
151	151	2
105	107	1
96	99	2
20	21	2
103	103	1
10	11	5
50	52	3
66	67	3
74	82	4
163	193	1
6	6	2
100	100	2
117	118	1
175	176	2
61	61	2
183	183	3
161	179	1
157	157	6
175	175	5
53	55	4
46	46	1
77	77	2
24	24	1
106	114	2
70	70	1
25	44	1
35	36	1
108	109	1
72	72	3
142	142	5
135	135	2
99	99	2
182	185	1
25	26	1
131	131	4
187	189	1
74	77	3
174	175	2
186	187	1
180	181	1
165	176	2
45	45	1
193	194	3
129	129	1
155	155	3
163	163	1
153	153	3
130	130	2
158	158	2
155	182	1
143	144	2
1	7	1
124	124	1
4	38	2
128	129	1
123	123	6
116	116	2
42	44	1
15	15	2
173	181	1
108	108	3
185	185	3
184	184	3
97	140	1
9	16	1
125	126	3
160	160	1
187	194	3
42	69	1
177	177	2
136	136	1
20	20	1
183	188	2
184	187	2
135	137	1
5	21	7
135	180	1
23	31	2
172	176	1
6	8	2
152	153	2
187	187	3
173	173	2
169	169	4
106	115	1
7	37	1
153	154	2
129	132	1
190	191	1
120	120	2
97	125	1
43	43	2
162	162	3
121	122	3
182	182	5
121	121	1
192	192	2
0	7	1
32	32	3
89	90	2
13	13	1
156	176	1
31	31	1
116	117	3
93	96	2
140	143	1
76	76	2
110	111	1
48	48	2
147	165	1
59	59	2
157	192	3
37	38	2
87	87	3
0	18	2
45	90	1
197	197	3
67	67	4
168	168	2
156	157	2
144	165	1
192	193	3
113	113	1
167	168	1
11	11	4
10	30	1
58	58	2
143	192	2
107	107	1
75	89	1
115	116	1
142	155	1
39	39	1
137	158	1
126	128	1
47	50	1
190	190	1
4	4	1
119	119	1
98	140	1
79	80	1
51	51	1
34	36	1
94	94	1
146	153	1
26	27	1
47	80	2
97	142	2
25	45	2
50	50	1
22	23	1
57	57	1
59	60	1
29	29	2
99	105	2
150	196	1
65	65	1
102	102	2
49	49	1
155	172	2
144	144	1
76	82	1
28	29	1
97	97	1
129	130	1
160	161	1
109	116	1
115	115	1
167	167	2
120	173	1
102	108	1
151	152	1
103	105	1
132	169	1
1	1	1
109	111	1
20	32	1
139	139	1
54	54	1
47	49	1
61	83	1
132	180	1
10	10	1
