63	63	7
68	68	11
81	88	3
48	49	4
87	87	17
53	54	9
82	83	4
60	60	12
65	65	9
102	102	16
71	71	14
86	86	11
70	70	8
41	44	3
69	69	19
77	77	12
24	27	3
31	31	9
52	53	12
33	33	3
78	78	10
73	73	11
80	80	12
38	49	3
92	92	18
36	36	29
26	30	5
61	61	10
29	30	4
22	23	6
59	61	2
73	85	2
62	63	13
60	61	6
66	104	2
43	44	11
66	67	3
72	72	23
104	104	22
61	64	2
100	101	5
35	36	3
64	64	17
50	50	14
75	75	16
62	64	4
51	53	1
83	86	4
37	37	16
86	87	4
84	85	10
82	82	17
39	46	3
76	76	8
104	105	5
39	39	13
52	52	8
83	85	2
90	90	5
83	83	24
96	96	25
36	37	5
79	81	6
55	66	1
75	103	1
32	33	5
46	46	8
28	29	3
30	30	6
79	79	19
74	74	10
27	27	7
51	51	10
62	62	8
93	94	1
54	54	22
95	95	20
83	84	2
80	81	4
58	58	7
101	101	17
100	100	16
61	90	2
98	99	15
75	76	6
92	93	8
42	48	1
87	88	7
78	79	6
96	97	7
99	99	17
83	87	2
90	95	3
20	21	5
32	32	11
25	25	11
103	103	13
28	28	13
56	56	12
42	43	3
22	22	3
31	32	2
24	24	8
91	95	4
80	86	2
69	103	1
34	34	9
101	102	2
50	51	3
85	85	6
89	90	15
35	37	1
71	72	8
81	90	2
90	91	3
91	91	10
107	107	5
97	97	12
59	59	16
46	47	8
98	98	11
38	40	2
105	105	6
88	88	8
58	65	6
37	41	2
39	43	2
94	96	3
106	107	4
69	70	7
94	94	6
84	84	8
82	84	3
59	60	4
26	27	5
40	42	5
97	98	5
66	66	10
25	26	2
47	48	4
81	81	15
81	82	3
57	57	7
76	77	8
74	91	1
44	46	2
65	104	4
23	23	8
38	38	7
94	97	1
63	64	10
54	55	7
58	59	7
55	67	2
44	44	3
84	99	1
48	48	7
89	89	11
21	21	13
68	69	6
94	98	2
26	26	7
77	79	2
56	66	1
34	38	3
60	64	5
29	29	11
39	40	7
82	87	3
30	31	1
70	72	3
42	44	4
41	43	2
92	94	3
61	81	1
37	52	1
40	45	5
29	33	2
85	87	2
74	102	1
40	62	1
99	100	3
93	93	9
37	38	2
84	86	2
97	99	8
57	62	1
39	45	1
27	30	1
27	29	1
95	96	8
62	89	1
65	66	7
70	71	1
69	79	1
57	59	6
81	89	1
41	41	4
55	56	4
20	20	7
68	73	2
58	64	3
95	99	4
35	35	2
79	80	3
106	106	6
34	36	1
61	62	9
57	58	5
33	34	1
56	57	2
103	104	1
49	49	5
88	92	3
60	77	4
89	94	1
27	44	3
59	75	3
94	95	6
37	40	3
53	53	4
91	92	4
62	65	2
46	48	2
38	39	4
27	46	1
40	41	4
85	86	3
67	67	6
60	62	3
36	44	1
55	55	7
43	43	3
79	89	1
39	41	1
97	101	1
75	92	1
40	40	3
86	92	2
26	46	1
86	93	1
73	76	2
88	94	1
47	49	4
27	28	2
41	46	2
24	57	3
53	55	1
77	78	1
66	68	2
61	63	2
67	68	1
62	79	1
88	89	2
72	73	3
86	88	1
79	82	2
64	75	1
42	42	3
86	90	3
84	88	1
61	83	2
83	88	1
65	96	2
64	65	2
45	45	3
87	91	1
82	88	2
66	96	2
79	93	1
60	81	1
82	94	2
51	52	1
82	93	3
33	37	4
92	100	3
85	94	1
25	29	1
40	44	1
44	45	1
21	23	1
20	23	1
56	58	1
83	89	1
75	77	1
59	64	1
85	88	1
