42	45	11
74	74	13
11	11	28
119	123	6
72	72	21
64	65	7
154	154	5
142	142	6
32	32	17
22	60	1
218	218	9
29	30	4
150	151	4
52	53	7
225	225	9
43	43	7
62	230	2
241	241	11
144	144	3
189	189	8
25	46	3
36	36	14
5	13	1
58	58	9
23	28	1
214	216	2
102	103	11
203	204	6
5	176	5
70	71	3
98	99	15
176	181	2
158	159	6
104	105	2
45	46	1
106	169	6
27	27	21
117	117	13
160	160	7
22	22	7
138	138	11
69	72	5
75	75	4
213	213	11
227	227	15
192	192	10
238	238	4
78	78	6
212	216	2
100	101	5
109	109	4
209	219	2
140	141	2
26	26	13
11	13	2
79	125	5
67	76	5
131	154	2
214	214	8
73	73	13
71	86	4
80	80	9
58	60	1
31	31	4
100	100	10
165	165	6
71	72	5
56	56	6
102	102	8
15	15	12
48	48	15
125	125	9
105	105	3
9	12	1
148	148	4
175	181	2
229	229	11
199	199	3
178	178	14
158	158	5
205	205	10
42	42	10
23	23	12
12	13	6
135	136	1
104	104	2
161	163	2
88	88	4
192	194	4
172	172	1
122	122	4
221	221	8
210	211	4
55	55	18
173	174	5
71	71	5
84	84	5
176	176	4
192	193	7
151	151	2
162	162	5
235	237	2
139	139	5
133	133	6
135	135	7
54	54	15
4	18	2
200	200	3
2	2	9
222	222	6
155	156	3
125	126	5
8	8	8
49	49	7
37	37	5
144	145	1
77	77	4
174	174	8
142	232	1
226	226	6
15	210	2
17	18	2
185	185	6
112	129	8
51	51	11
83	83	6
63	63	17
65	66	4
27	28	8
66	66	16
34	34	5
116	118	1
39	39	7
10	10	10
0	1	2
47	47	14
104	109	1
6	15	1
40	41	4
9	9	7
116	117	8
62	63	4
208	208	7
120	134	1
223	223	12
186	193	1
190	193	3
168	168	1
4	5	1
114	115	1
38	38	8
14	14	6
65	162	1
40	50	2
138	140	2
39	40	4
67	73	1
31	32	4
40	40	11
235	236	1
1	1	8
62	62	9
171	171	5
130	130	6
170	170	7
173	173	9
68	68	15
231	231	8
2	3	5
78	88	2
29	31	3
101	102	7
159	159	13
19	19	6
224	225	1
188	236	3
225	227	3
26	27	3
49	206	8
16	17	7
18	22	5
239	239	6
116	116	7
225	228	3
168	171	8
18	18	6
141	142	5
73	74	6
7	8	5
6	14	1
215	216	3
228	228	3
71	153	1
17	17	13
111	129	2
7	7	6
69	74	1
150	150	4
66	67	3
99	99	4
18	19	3
25	142	2
20	20	9
129	133	1
85	95	3
50	53	4
140	143	1
216	228	1
120	121	2
22	23	3
50	50	3
197	200	3
214	215	6
128	170	3
183	183	8
219	220	10
11	37	2
46	54	3
5	17	4
67	67	8
26	172	3
85	85	6
80	115	5
63	64	3
194	197	3
197	197	3
205	208	5
2	8	3
220	221	1
175	175	4
3	3	11
128	128	11
235	235	5
130	171	2
0	17	6
37	38	3
211	212	1
121	121	5
57	57	9
135	152	3
48	49	6
198	198	2
33	33	7
86	86	18
143	143	6
32	174	2
59	83	1
240	240	5
64	64	10
122	123	4
12	35	1
164	165	1
97	97	13
222	226	3
149	149	4
123	123	2
204	204	7
59	60	7
228	229	6
82	82	2
191	191	9
220	220	3
233	233	2
49	58	1
149	151	5
10	208	2
239	241	4
186	187	3
24	24	1
25	26	2
230	230	3
60	62	3
65	67	3
97	172	2
35	35	6
234	234	6
181	183	4
44	44	8
19	30	3
14	16	2
22	178	1
50	51	3
18	31	3
58	225	2
107	107	4
225	226	1
10	214	2
204	206	2
157	157	11
179	195	1
147	148	4
133	135	2
54	55	2
188	189	1
114	114	4
190	196	5
144	147	1
137	137	5
33	38	4
20	21	9
177	177	5
69	69	3
28	187	2
215	215	4
182	182	9
42	46	2
241	242	5
16	25	1
208	209	3
66	75	3
46	46	8
188	188	5
145	145	5
13	13	1
107	108	6
81	82	7
209	211	2
77	125	2
105	107	1
151	155	2
118	118	10
46	47	3
103	106	3
79	80	4
122	126	1
28	240	3
4	4	7
3	9	2
2	6	1
52	52	7
96	96	8
103	126	1
63	164	2
138	139	1
41	42	2
75	77	2
105	169	2
197	198	6
172	174	1
4	6	4
1	8	10
20	34	2
236	240	6
242	242	2
70	74	2
156	156	4
70	70	7
107	109	4
98	98	2
103	103	6
43	71	2
156	157	3
32	67	2
79	88	2
236	236	9
34	37	3
204	207	5
6	6	6
157	158	3
203	213	1
64	66	3
167	167	4
129	129	9
210	210	3
72	73	1
160	238	1
47	69	3
76	95	1
207	208	5
5	5	8
232	232	5
61	61	7
6	176	1
219	219	5
180	198	3
112	128	1
60	60	9
4	8	3
0	0	4
216	216	1
79	123	3
57	166	1
2	30	3
49	205	1
47	55	1
179	179	6
166	166	11
4	14	2
176	178	2
161	161	4
76	76	6
58	59	2
0	10	2
134	134	6
75	79	2
30	31	2
163	165	2
155	155	5
229	230	1
65	65	5
11	19	4
207	207	5
21	24	1
217	218	3
149	150	2
165	168	1
193	211	1
52	54	2
212	230	1
152	152	3
107	110	1
131	132	2
79	81	1
122	166	1
144	148	1
145	146	2
153	155	1
57	58	3
0	16	1
48	58	5
30	30	7
123	130	3
184	184	4
56	60	2
15	216	4
237	237	3
16	23	1
29	29	2
75	97	1
115	116	2
193	196	3
186	186	6
82	116	1
113	113	1
26	46	5
124	124	4
71	149	3
49	50	2
120	120	7
68	161	2
3	7	3
99	100	5
100	103	1
81	81	5
153	153	1
202	202	7
185	186	2
144	149	1
14	15	1
64	164	2
190	190	1
197	213	1
222	225	1
68	83	1
122	125	2
17	177	1
43	47	1
59	59	1
10	11	2
96	115	3
25	236	3
83	84	8
69	73	1
53	164	1
209	210	5
182	183	2
192	200	2
168	169	1
187	192	3
121	122	3
32	68	1
133	150	1
170	171	2
183	184	2
80	84	1
25	25	6
106	115	2
9	10	1
89	126	2
65	68	1
236	238	1
45	45	2
61	62	5
43	46	1
159	163	2
139	140	4
205	207	5
20	188	3
5	177	1
143	145	1
68	69	4
181	181	1
95	95	4
108	108	4
20	22	2
23	105	4
80	82	1
60	169	2
78	124	2
43	45	2
196	196	2
119	122	1
75	118	2
118	120	3
201	202	1
106	107	2
62	73	2
237	238	1
195	197	3
80	81	3
171	179	1
190	192	1
35	37	2
169	169	1
88	97	3
108	109	5
86	87	2
217	217	3
5	7	3
28	29	1
171	172	2
123	124	2
191	192	1
128	129	3
62	64	1
151	152	2
54	56	1
101	109	2
0	6	2
180	195	3
12	12	5
16	18	1
122	164	1
15	19	2
167	169	2
19	20	3
119	134	4
35	36	2
129	167	2
0	2	1
137	149	3
53	53	2
84	85	2
73	152	1
6	167	5
223	225	2
140	142	2
196	212	2
17	19	1
21	21	2
146	151	1
71	95	1
203	203	2
67	68	2
12	211	2
106	106	5
230	231	1
187	188	1
12	17	1
36	37	3
190	191	2
203	214	1
13	14	3
31	34	1
224	229	1
85	99	2
55	69	3
10	216	2
69	70	2
39	42	1
209	217	1
117	119	1
166	169	1
130	131	1
133	134	5
139	141	1
174	175	1
79	79	1
121	127	1
144	232	2
6	39	1
195	195	2
177	178	1
89	133	1
96	97	1
141	141	4
185	194	1
209	209	3
242	243	1
236	237	2
11	12	1
137	139	1
196	197	1
69	161	2
25	118	2
10	22	1
140	140	1
101	101	1
184	185	1
53	220	1
59	229	1
158	162	2
64	73	2
73	86	2
175	176	2
8	11	2
103	104	2
96	99	2
14	17	2
50	224	1
136	138	2
40	46	1
123	126	1
19	34	1
63	85	1
51	64	2
22	29	1
8	34	1
146	147	2
80	83	1
58	82	2
1	31	1
57	224	1
187	187	1
21	23	2
67	72	1
137	140	3
72	152	1
218	219	1
186	192	1
184	186	1
4	7	1
27	190	1
75	83	1
12	14	1
126	126	1
199	214	2
137	147	1
187	189	1
221	222	2
176	177	1
40	42	1
7	175	1
224	230	1
24	25	2
239	240	2
50	222	1
124	125	2
214	218	1
166	167	1
119	119	1
195	212	1
49	224	1
202	203	1
112	130	1
98	100	1
25	61	1
9	215	1
70	72	1
121	124	1
232	234	1
238	239	1
84	114	1
211	211	2
0	11	1
23	54	2
79	117	1
224	224	1
61	203	1
196	200	1
143	148	1
13	186	1
149	159	1
3	40	1
59	62	1
6	8	1
172	175	1
80	114	1
29	32	1
124	127	1
184	210	1
32	37	1
47	48	1
5	6	1
