76	99	9
47	67	3
26	29	1
84	84	8
55	103	2
46	47	9
38	39	2
74	75	11
103	103	21
20	20	3
55	55	12
43	43	7
93	93	14
79	88	3
101	101	29
42	42	9
69	71	3
81	81	8
89	89	13
57	57	10
102	102	11
58	58	8
74	74	14
60	60	18
95	95	20
67	67	5
103	104	7
27	27	16
63	66	3
36	36	15
90	94	6
65	65	9
96	96	11
45	45	8
63	63	16
52	52	18
49	50	6
40	40	12
29	45	5
82	82	15
85	85	4
59	59	13
89	93	2
31	31	6
30	30	9
26	42	1
77	77	9
86	87	7
39	40	1
62	63	5
90	91	7
54	56	2
56	56	7
83	83	13
88	88	11
104	104	20
24	24	8
22	23	8
30	36	2
91	91	9
28	28	17
76	77	6
33	36	3
47	47	13
30	50	2
22	22	5
80	80	4
82	86	1
75	75	7
49	49	5
98	99	3
79	79	15
38	38	11
68	68	12
62	62	11
32	32	15
37	39	2
21	21	11
96	97	12
92	92	6
79	82	3
23	24	1
25	25	6
64	64	10
87	87	3
74	102	1
104	105	7
56	67	3
76	76	20
93	106	2
96	99	6
44	82	1
56	104	5
88	89	4
84	85	8
102	104	2
55	67	3
81	91	4
78	78	8
84	86	6
52	55	1
93	94	8
66	67	4
100	100	13
82	83	4
57	59	4
33	33	9
40	45	5
68	69	12
71	71	12
26	30	2
34	34	3
61	62	8
69	69	13
44	44	8
105	105	5
66	66	7
27	28	5
69	72	5
94	94	12
50	50	4
89	91	12
48	67	2
90	90	9
73	73	6
51	51	15
23	23	8
50	78	4
59	60	5
23	45	10
58	106	1
31	32	5
24	25	4
65	66	6
44	45	3
80	81	6
90	93	2
30	48	2
70	70	2
77	84	2
70	73	4
77	78	1
102	103	1
51	52	8
96	98	1
38	41	1
55	56	1
73	100	1
61	61	12
41	42	2
34	45	1
101	102	4
99	100	2
76	96	2
43	45	1
97	97	9
29	29	6
64	65	4
94	95	3
81	96	1
54	54	3
37	38	10
98	98	10
40	41	4
41	41	3
89	90	1
54	57	4
35	35	5
78	79	3
86	86	6
53	53	3
71	72	4
78	86	3
72	72	5
44	46	5
42	93	2
76	92	4
36	37	1
99	99	4
85	86	2
90	92	3
78	87	1
22	49	2
83	84	9
50	52	1
73	75	1
95	98	5
45	48	2
21	46	2
37	37	7
51	53	3
78	81	3
28	29	1
24	28	3
85	89	5
49	56	3
97	99	6
53	54	1
73	107	4
79	81	1
57	58	3
90	99	2
42	43	2
80	91	2
77	97	2
102	105	1
48	48	2
78	90	4
52	53	4
87	88	4
26	27	3
85	88	2
27	43	2
46	48	1
90	103	3
75	76	2
100	101	5
79	80	5
65	67	1
27	29	2
52	54	1
42	44	1
39	39	1
82	90	1
24	100	1
39	42	1
92	93	1
86	88	3
63	64	5
23	25	1
21	22	3
67	75	1
51	74	1
61	63	3
51	54	1
57	105	1
46	46	1
56	57	2
26	56	1
29	30	1
79	90	3
30	31	1
81	98	1
85	87	1
107	107	1
33	66	2
93	95	1
48	49	1
32	97	1
46	49	1
95	97	1
20	63	1
33	34	2
46	50	1
74	77	1
31	50	1
77	99	1
26	26	1
80	82	1
53	62	1
51	73	1
