42	43	5
147	148	9
159	160	1
96	96	15
54	54	20
8	8	22
170	172	2
178	180	4
81	81	8
101	101	17
185	185	14
95	96	3
77	77	37
14	18	3
150	150	31
153	153	19
11	11	22
149	157	2
25	26	8
65	65	14
25	57	7
34	37	3
33	33	17
156	167	6
165	165	15
126	126	18
53	55	7
100	100	17
177	189	2
146	147	7
55	55	46
84	85	12
177	177	8
66	67	8
40	40	43
58	60	5
26	26	17
129	131	3
15	15	22
22	24	2
59	60	6
121	121	24
30	30	11
11	25	3
41	41	21
129	129	12
157	157	20
159	159	8
174	174	10
143	144	7
125	125	20
112	112	31
69	69	6
117	117	6
114	115	8
96	97	16
183	183	16
175	175	18
45	45	25
105	105	24
99	139	1
163	163	13
18	20	8
84	98	1
15	16	6
167	167	11
86	86	18
149	149	32
127	127	4
48	48	34
120	120	15
98	98	16
127	128	12
114	114	4
38	38	27
22	22	25
44	45	4
63	64	4
35	35	16
109	123	2
77	85	2
94	94	16
24	24	16
1	68	3
13	13	33
76	78	3
52	53	11
68	69	6
33	55	1
169	169	16
99	100	19
114	119	3
153	154	16
89	90	2
188	189	3
21	47	4
113	113	24
22	36	2
97	98	3
28	54	3
125	126	9
133	133	15
64	65	11
89	89	15
138	180	2
63	63	7
66	66	23
129	166	1
63	141	3
137	137	24
6	6	28
7	7	19
102	102	15
70	76	4
27	27	19
112	118	7
190	190	22
178	178	15
85	85	17
43	43	10
107	108	7
115	120	3
42	42	14
21	22	11
54	55	6
36	37	16
10	12	2
46	56	1
47	47	12
130	131	5
120	129	2
92	94	5
118	119	13
113	119	7
58	59	6
53	53	32
55	69	3
46	81	4
72	72	12
97	97	23
17	17	14
118	118	18
187	187	11
83	90	2
83	83	26
40	41	12
122	122	22
99	99	37
86	95	6
2	134	4
47	48	8
146	146	15
18	18	17
1	1	32
39	71	2
76	83	4
184	184	5
128	129	2
186	186	15
181	181	14
110	110	11
44	44	16
14	14	26
30	32	5
70	81	1
46	46	10
187	189	3
87	88	9
118	123	3
32	32	8
161	162	4
25	45	1
70	71	8
59	59	16
116	116	13
123	123	28
18	178	5
63	75	2
32	33	4
122	123	1
30	34	5
2	3	5
141	141	19
46	61	5
1	2	7
131	132	14
139	139	20
90	90	11
123	124	7
79	79	31
184	185	7
39	39	27
145	145	11
124	126	4
43	47	1
83	89	3
28	28	19
128	128	27
135	135	12
120	122	5
84	84	32
64	64	17
105	118	2
136	136	4
37	37	37
12	12	17
38	41	3
66	97	2
79	82	1
21	21	12
87	87	29
78	78	15
187	188	8
134	134	14
103	103	25
20	20	16
91	91	12
30	33	5
179	180	4
113	114	5
179	179	11
129	130	4
160	160	28
73	73	12
136	137	12
163	165	7
9	9	1
76	76	11
170	170	13
158	160	9
12	13	8
88	88	17
80	80	7
31	31	16
0	0	16
0	57	3
114	118	1
60	60	13
33	34	8
91	114	7
10	10	11
62	62	10
108	109	4
183	184	7
109	109	25
99	119	1
171	171	4
102	163	2
46	47	15
41	183	1
119	119	9
151	151	12
88	89	6
105	111	2
34	34	16
68	68	16
74	84	3
8	15	3
61	62	6
175	176	10
121	123	3
74	74	22
28	29	9
171	172	10
92	95	3
69	70	2
172	174	1
124	124	28
88	103	1
43	45	2
158	166	4
23	24	9
143	143	19
151	152	4
158	158	9
84	87	1
62	91	2
167	168	7
189	189	11
34	36	3
58	62	4
2	2	22
6	7	12
172	172	11
177	179	3
41	43	2
4	4	9
129	134	2
155	158	1
168	168	13
106	106	19
135	136	7
133	134	6
93	94	3
89	154	2
104	105	9
24	25	8
119	121	1
156	157	6
100	138	1
57	57	25
61	61	9
157	183	8
93	93	18
147	147	12
155	157	3
173	173	4
83	84	5
82	82	9
67	67	20
138	138	32
179	188	3
27	28	1
154	155	9
69	72	4
155	155	26
22	58	2
19	27	2
96	98	3
111	112	7
21	23	6
129	135	4
19	19	11
166	167	6
152	153	8
62	179	2
61	63	4
95	95	18
156	158	1
35	55	2
166	181	6
85	86	9
167	171	1
75	127	3
56	56	18
180	181	10
65	162	3
124	184	3
167	169	4
60	63	1
169	188	3
107	107	23
20	22	4
152	174	2
11	12	11
75	76	9
124	125	9
13	14	8
25	81	1
140	160	3
22	23	7
159	170	1
120	121	4
21	43	1
5	6	7
109	118	1
16	17	11
132	132	8
74	110	2
5	5	14
7	33	2
58	58	10
111	111	18
106	164	1
86	130	3
117	121	3
58	63	2
89	104	2
101	127	1
146	155	1
164	165	5
177	188	1
3	3	6
79	81	7
162	162	14
180	180	4
36	36	19
110	113	5
77	167	5
79	80	1
19	24	2
132	139	1
101	103	6
26	55	2
19	92	5
103	104	2
117	119	2
52	54	2
109	167	1
12	35	1
16	46	4
71	71	10
133	136	10
20	21	5
108	108	16
54	56	4
109	170	2
31	32	5
160	162	3
25	25	14
140	140	25
75	75	10
102	103	7
92	115	1
104	104	8
92	92	18
80	82	2
70	70	6
125	134	3
157	187	1
0	3	2
148	182	2
142	142	10
148	148	20
108	130	3
27	130	2
156	156	17
156	159	6
138	141	1
108	149	1
176	177	3
107	134	2
152	152	16
123	185	3
60	62	6
17	75	1
149	150	8
10	11	10
93	119	2
130	133	5
155	159	1
0	15	1
161	176	2
31	33	3
9	12	2
158	183	1
24	26	1
164	164	15
103	107	1
138	139	9
113	115	3
182	182	19
56	57	10
26	27	5
23	23	22
60	61	2
131	131	11
90	92	3
19	48	2
75	85	2
22	83	1
120	133	1
12	71	4
62	63	8
185	186	3
166	166	15
55	56	5
106	108	6
97	99	1
11	14	1
71	72	3
25	79	2
106	107	4
53	57	2
165	166	4
141	181	1
171	173	6
25	83	3
58	74	2
115	115	10
131	133	3
171	176	2
90	119	4
30	31	10
39	40	8
15	171	4
111	125	4
29	29	11
121	122	9
65	68	3
129	133	3
103	127	5
38	39	9
80	96	1
101	166	3
153	162	4
116	138	2
143	147	2
139	141	2
170	173	4
173	174	3
105	138	1
113	164	5
111	114	7
52	114	2
90	100	1
48	169	4
80	81	2
57	58	1
7	8	8
147	149	2
145	146	8
116	150	2
13	46	4
16	76	1
148	150	4
29	30	7
30	121	1
25	59	4
32	38	2
140	141	1
10	13	4
55	90	3
156	161	3
76	182	6
18	19	7
0	70	1
41	44	4
185	187	5
9	10	6
22	135	5
71	81	4
74	112	2
93	118	1
184	186	3
161	161	7
96	100	1
72	96	5
182	183	3
89	96	3
169	176	2
132	133	6
98	99	4
65	66	3
41	42	4
176	183	3
88	90	2
55	97	3
108	131	3
82	83	7
88	108	2
27	47	2
95	99	4
169	170	4
67	68	12
34	35	3
134	136	2
102	166	3
86	89	2
16	16	19
8	11	4
74	94	1
155	156	5
72	75	1
189	190	6
75	80	3
158	176	2
35	39	2
20	24	1
8	59	4
31	36	1
92	93	7
98	114	3
53	70	2
62	75	3
13	81	1
29	35	4
59	64	2
30	35	1
62	64	2
141	144	5
77	79	1
61	65	2
126	152	1
100	101	4
181	182	8
20	147	4
105	136	1
21	25	2
154	154	8
188	188	9
16	23	1
134	135	6
29	31	8
1	6	3
160	161	2
8	9	1
142	143	4
18	23	3
56	62	2
31	38	1
82	111	2
166	170	2
21	181	1
142	148	3
11	36	4
103	139	1
130	165	2
144	144	9
111	115	1
163	164	5
128	130	2
184	187	6
176	176	3
155	163	2
103	105	4
123	125	2
131	163	2
90	109	2
15	76	1
148	154	2
101	102	4
36	57	2
52	52	3
12	14	6
154	157	1
94	96	3
115	128	1
7	31	2
147	150	2
22	32	2
91	95	5
126	127	2
63	67	1
15	17	2
91	92	6
58	67	2
147	189	1
38	40	5
28	110	2
60	156	2
177	182	2
95	115	2
93	117	5
48	80	2
141	143	3
94	117	2
138	144	2
132	134	1
108	110	1
27	32	3
22	27	2
136	138	2
150	151	4
75	112	1
99	110	2
17	18	5
53	59	1
87	89	1
8	17	2
130	130	9
82	86	3
53	71	1
74	87	2
72	82	2
105	144	2
162	173	2
177	178	2
72	73	3
106	118	3
101	104	4
43	62	2
134	137	4
116	164	7
84	88	1
44	63	1
59	63	1
26	41	1
180	183	1
89	119	1
28	34	1
72	76	1
157	158	5
62	72	1
45	46	5
42	47	1
115	118	1
16	18	1
67	157	1
35	36	4
129	151	1
115	116	5
83	168	2
75	137	3
156	187	1
73	75	1
58	68	2
102	164	1
88	91	1
105	107	1
178	179	3
144	170	1
144	169	1
102	106	3
20	178	2
91	115	1
19	59	2
116	117	4
110	133	1
94	95	5
92	97	1
1	135	3
72	85	1
66	116	1
22	179	1
143	149	1
24	135	3
105	106	6
114	130	2
167	170	1
125	127	1
74	75	4
130	132	1
146	153	1
142	144	1
64	66	2
129	162	1
15	45	2
127	151	1
17	20	1
125	151	1
137	139	3
140	184	2
125	154	3
154	161	3
127	136	1
65	120	3
76	153	1
37	38	4
35	37	7
186	187	1
67	130	3
7	10	2
87	129	1
8	32	2
66	114	4
95	103	1
48	49	3
25	27	1
109	115	4
76	122	1
28	35	2
46	58	1
126	128	1
142	158	1
15	34	1
116	118	2
16	27	1
13	19	4
91	94	6
59	62	2
105	108	3
47	60	1
168	187	1
175	177	2
46	64	1
172	173	5
188	190	1
146	148	3
123	127	3
93	115	1
164	168	3
14	15	1
19	41	2
53	160	1
8	33	1
89	92	1
34	38	2
160	163	1
42	137	2
62	65	1
123	129	1
19	23	2
109	110	4
71	97	1
170	171	1
176	178	1
19	22	1
19	20	1
44	46	2
25	41	2
145	151	1
13	21	1
138	148	1
4	7	2
12	26	1
74	90	2
70	86	1
0	1	1
31	34	1
115	121	1
73	74	1
85	104	1
60	157	1
67	83	1
38	47	1
167	180	1
65	154	2
14	16	1
81	82	2
66	68	1
135	154	1
89	91	1
45	112	1
62	92	1
16	24	5
56	68	1
100	185	1
89	123	3
40	70	1
157	161	1
141	147	1
7	43	3
36	47	1
123	139	1
27	29	1
93	125	1
18	64	1
4	10	2
154	164	2
115	117	1
102	110	2
105	112	1
139	162	2
104	106	2
174	177	1
110	111	1
25	74	1
111	113	5
41	48	2
8	12	1
70	88	1
33	35	2
42	44	1
70	78	2
23	42	2
17	67	1
110	118	1
107	112	1
117	118	2
16	172	1
156	168	1
58	64	1
87	91	1
134	139	1
102	140	3
140	154	1
78	79	2
89	103	2
143	183	1
140	165	1
106	151	1
29	39	1
29	53	1
91	119	1
168	170	1
119	139	1
4	36	1
121	131	1
48	89	1
128	135	1
114	127	1
95	116	1
140	164	1
17	25	1
156	182	1
53	73	1
43	61	1
40	78	1
61	64	1
11	16	1
112	113	1
28	30	1
49	49	2
94	147	1
151	153	2
67	101	1
95	98	1
177	183	1
179	189	1
44	57	1
115	138	1
121	129	2
18	177	1
134	138	1
168	182	2
166	175	1
74	122	1
98	100	1
141	142	1
23	25	1
27	53	2
64	82	1
116	151	2
120	151	1
123	184	1
112	120	1
114	125	1
43	44	1
148	149	1
27	165	1
140	157	1
26	78	1
1	174	1
64	67	1
58	182	1
