92	123	3
125	125	15
76	76	4
113	114	6
113	113	23
63	64	2
111	114	5
72	73	4
89	90	3
109	111	5
114	114	12
90	90	8
122	122	11
72	72	15
81	81	2
73	73	13
55	55	4
124	125	7
7	47	4
67	67	2
106	121	2
71	71	12
116	116	15
25	25	4
43	43	3
103	103	11
88	88	10
129	129	3
12	12	7
45	45	1
130	130	13
25	26	2
119	119	6
92	92	10
7	7	6
91	91	3
10	11	2
126	126	16
85	86	2
126	127	6
119	121	6
82	83	5
15	19	2
116	120	4
111	112	6
35	35	4
0	1	3
50	50	5
87	122	5
108	119	1
69	69	4
122	125	2
85	85	6
46	64	1
124	124	12
29	30	4
118	118	8
107	107	2
61	61	8
80	80	8
62	63	5
66	66	7
62	62	14
112	112	27
51	53	1
129	131	6
23	24	3
127	128	7
101	101	17
122	124	3
89	89	10
105	107	2
19	22	2
106	106	10
43	88	3
96	96	11
70	70	9
115	115	11
64	104	1
107	108	3
36	36	5
79	80	8
5	5	5
84	85	5
10	10	4
93	93	9
31	32	2
98	98	6
24	25	16
16	17	3
111	113	4
24	24	7
131	131	4
120	120	5
84	84	3
55	56	6
104	105	11
27	27	5
123	123	4
120	121	6
81	92	4
63	63	3
128	129	3
111	111	3
78	78	12
15	15	2
18	19	3
102	102	5
50	52	2
10	26	2
102	103	8
96	97	2
105	106	11
74	74	4
69	73	2
61	62	2
82	108	3
67	77	7
8	8	5
30	30	3
91	124	2
65	97	1
132	132	8
97	98	1
64	65	3
54	54	2
83	83	4
127	127	9
79	79	7
75	76	3
50	93	2
17	19	5
95	124	3
9	13	1
119	120	2
28	28	1
98	104	4
133	133	7
105	105	2
108	108	4
91	92	1
77	77	10
33	33	4
101	102	3
70	71	5
64	64	10
6	6	3
117	117	4
93	107	3
59	59	6
60	60	3
98	106	1
31	31	4
115	116	2
75	75	7
68	68	3
121	121	8
91	93	1
68	74	1
34	34	7
71	72	2
125	126	5
27	28	5
12	13	2
128	131	3
8	11	1
66	68	4
100	100	6
6	27	2
49	49	1
2	2	4
109	110	3
106	119	3
69	70	1
57	57	1
95	95	2
95	96	1
134	134	4
88	89	1
53	53	13
7	25	1
94	94	3
102	112	4
116	117	2
103	104	4
28	29	1
95	97	2
129	133	2
112	113	2
32	32	3
9	9	1
70	85	1
52	52	1
38	42	1
20	20	2
128	128	12
11	11	2
26	26	2
69	96	3
21	21	9
65	68	1
14	14	4
80	82	1
43	55	1
1	1	5
87	87	9
107	121	2
114	115	3
7	11	2
6	32	6
99	107	4
99	103	1
23	23	3
93	121	1
7	26	1
73	75	2
99	99	5
68	69	3
65	66	1
100	101	2
86	86	3
82	85	1
32	33	3
115	125	3
110	111	3
35	37	3
22	22	3
106	107	1
13	13	1
104	104	2
53	60	2
30	60	2
116	126	4
19	19	2
29	29	1
30	31	1
110	110	1
106	111	1
52	55	2
97	122	2
93	94	4
92	129	1
76	91	1
127	129	1
78	79	2
66	67	3
69	84	1
57	58	1
106	122	1
119	122	1
21	22	3
121	122	1
92	122	2
23	25	1
82	100	2
73	74	2
23	26	2
81	83	1
44	45	1
34	35	1
33	34	1
8	9	1
69	95	1
117	129	2
71	88	1
0	0	1
117	118	1
18	20	1
14	15	1
65	65	1
69	86	1
84	92	2
82	82	1
87	88	2
10	44	1
84	86	1
108	109	1
70	83	1
13	14	1
97	97	1
90	94	1
45	47	1
46	47	1
