71	73	6
0	2	3
65	65	29
2	2	20
63	63	14
69	69	8
31	37	2
48	53	9
47	48	4
34	57	2
63	68	3
41	41	12
21	22	8
49	70	2
43	45	7
39	41	5
21	45	1
48	48	11
61	63	4
14	14	1
18	21	2
42	42	9
9	9	26
59	69	3
47	56	3
58	58	15
49	52	1
8	12	3
0	32	6
52	52	9
49	49	8
44	44	16
70	70	11
35	36	4
26	67	5
18	18	10
11	11	8
0	4	1
26	36	3
4	5	4
1	1	11
56	57	7
10	10	13
26	26	5
36	39	2
4	6	5
62	64	7
19	19	11
12	12	16
51	51	7
4	29	7
31	39	3
8	8	24
60	60	12
34	37	5
71	71	14
3	3	18
76	77	4
35	35	10
5	36	4
5	39	1
69	73	4
5	5	19
37	38	7
44	45	10
64	64	11
5	6	7
29	29	12
20	20	15
54	56	3
68	69	4
27	27	10
15	15	4
7	7	11
23	23	9
33	34	3
31	35	5
75	76	6
74	74	6
72	73	10
59	59	20
31	31	17
75	75	9
60	61	3
25	25	10
69	72	4
62	63	2
3	5	3
9	10	4
54	54	12
49	58	3
11	12	2
30	30	7
24	26	6
8	10	2
43	43	9
4	4	14
22	22	7
56	65	1
27	36	3
26	28	1
6	7	10
47	47	16
74	75	6
0	0	16
3	6	1
61	61	20
19	35	1
41	42	9
26	66	3
58	59	9
6	6	9
3	4	7
36	38	8
7	21	1
26	31	2
24	38	1
27	66	1
21	21	19
34	36	4
33	33	17
13	13	15
70	71	10
27	68	1
66	67	7
35	37	4
18	20	8
67	71	2
32	32	10
36	36	14
51	52	7
71	72	4
6	35	1
25	27	9
24	69	1
0	1	7
23	38	2
19	20	1
45	45	16
20	21	13
62	62	10
20	39	3
7	8	8
77	77	8
66	66	8
31	32	1
61	70	8
13	14	11
43	44	3
67	68	11
40	40	8
29	30	5
10	11	6
25	26	4
20	45	1
75	77	2
56	56	10
67	67	7
6	30	1
28	28	19
58	68	3
27	49	2
55	56	3
73	73	11
46	46	13
39	39	6
31	34	1
70	73	1
24	28	4
67	69	1
12	13	3
37	37	10
55	55	8
48	51	5
38	38	8
50	53	1
38	39	8
40	42	3
32	37	2
35	39	4
57	58	7
53	53	6
32	33	3
34	34	7
27	28	7
34	38	5
57	59	2
25	40	3
50	50	8
64	66	2
30	35	1
61	62	6
23	24	5
8	9	6
68	68	3
59	66	1
40	50	2
11	43	5
1	2	3
0	43	2
53	59	2
39	43	1
57	57	7
48	49	5
25	67	4
25	28	5
42	67	1
2	6	1
39	44	1
27	59	1
60	62	1
68	73	1
69	70	2
18	37	2
77	78	2
1	5	2
49	51	7
39	40	2
33	44	1
58	60	2
45	46	2
26	37	4
59	60	1
54	55	5
66	70	3
55	74	2
24	24	4
5	30	1
3	33	1
52	53	3
14	40	4
0	33	3
4	23	1
9	11	2
48	59	1
72	72	4
53	54	1
56	59	4
30	47	1
7	9	2
34	35	1
62	69	1
49	50	1
8	33	1
6	33	1
30	31	2
27	30	2
43	59	2
0	6	1
49	68	2
60	68	1
23	39	1
31	40	2
0	34	1
68	70	2
28	29	2
49	64	1
65	67	2
58	69	1
68	71	1
2	3	1
45	47	1
35	38	2
10	13	1
21	44	1
22	39	1
23	30	1
26	33	1
32	57	1
50	54	1
72	74	1
64	69	2
14	44	2
5	31	1
50	51	1
76	76	2
59	67	1
63	65	2
26	54	1
22	23	1
28	37	1
31	33	1
