93	94	1
23	24	2
13	13	6
7	7	8
74	75	4
2	2	2
75	94	2
75	76	2
97	126	1
89	89	11
37	123	4
117	117	2
78	113	3
17	17	1
81	81	3
120	121	3
99	109	3
29	29	7
23	31	4
92	92	6
107	108	3
122	123	5
95	95	5
84	85	1
11	12	1
74	107	3
35	35	8
88	88	2
130	131	1
1	23	2
121	121	12
13	14	6
24	25	1
82	103	3
113	113	4
76	76	7
112	116	2
22	25	3
21	21	6
6	6	6
96	96	6
114	114	3
34	34	2
135	135	10
12	19	2
24	24	5
33	33	1
105	109	2
131	131	5
123	123	9
1	24	4
71	72	8
14	29	3
9	9	1
14	14	4
113	114	4
74	118	2
102	102	6
111	111	6
22	23	5
91	91	3
72	76	3
97	97	4
87	87	4
7	21	2
86	86	5
91	92	2
105	105	7
16	17	3
105	106	2
86	93	1
72	73	2
137	137	4
79	107	2
29	30	2
14	15	1
85	87	1
5	5	3
15	15	4
90	90	7
86	89	1
97	124	1
116	116	11
93	93	7
9	23	1
83	87	5
19	19	6
104	124	1
107	107	7
124	125	2
108	108	2
3	3	6
14	22	1
10	11	3
128	129	7
82	83	2
20	27	1
31	31	3
91	106	3
133	133	4
20	20	3
16	18	2
25	26	2
127	127	9
126	126	7
77	77	6
94	99	3
27	28	1
128	128	2
80	86	1
75	75	1
103	103	7
100	100	5
19	26	3
84	84	1
104	104	1
8	8	8
120	120	6
107	114	1
76	77	3
82	82	6
102	103	4
121	140	2
129	129	6
78	100	1
30	30	4
116	117	1
28	28	6
28	29	3
124	124	2
88	89	3
108	109	4
81	84	1
22	22	4
105	108	3
110	111	3
87	104	2
38	38	2
72	72	3
82	84	2
130	130	11
4	36	3
118	119	2
132	134	2
19	32	5
15	38	1
74	74	4
134	134	8
115	123	2
121	122	2
140	140	9
132	132	3
72	104	4
100	101	1
99	108	1
114	115	1
85	85	6
25	25	1
137	138	3
103	120	4
32	32	4
23	23	2
37	37	1
101	101	6
84	105	2
36	36	6
122	122	4
125	126	2
75	119	2
120	122	1
110	110	2
13	16	1
136	136	2
18	18	1
97	98	3
112	112	4
16	16	4
109	109	2
136	137	2
125	125	3
20	22	2
106	106	2
81	82	4
83	83	4
5	85	1
106	108	1
98	98	4
111	117	1
131	137	1
138	138	2
103	104	6
1	2	1
12	18	1
3	9	1
71	71	4
7	9	1
1	114	1
3	4	3
8	9	1
112	136	3
26	26	1
119	121	4
119	120	2
21	22	1
89	90	2
112	117	1
1	7	1
94	94	4
92	104	1
27	27	1
98	106	1
80	80	3
118	118	2
98	99	2
19	20	1
24	44	1
104	105	1
73	77	1
28	31	4
11	11	3
26	27	1
10	10	1
131	132	1
0	11	1
121	123	2
90	91	1
12	14	1
115	115	1
79	80	1
7	8	1
71	80	1
117	131	1
17	18	1
32	33	1
16	127	1
23	25	1
78	79	1
1	1	1
87	108	1
73	74	1
105	110	1
29	38	1
72	106	1
6	36	1
81	88	1
