80	80	1
125	126	2
80	82	1
98	98	4
132	137	1
134	134	18
130	130	16
137	138	1
96	96	3
11	12	4
111	112	4
22	22	1
121	121	6
3	3	14
120	122	2
138	138	13
115	115	10
74	74	9
129	129	4
25	27	3
9	22	2
137	137	5
10	10	4
119	119	2
34	34	5
131	131	14
133	133	16
20	20	8
129	130	2
82	84	1
82	82	1
36	36	5
128	128	5
13	13	5
113	113	3
138	139	1
71	71	8
72	72	2
118	118	5
101	126	1
110	110	5
12	12	2
39	44	1
6	6	7
135	135	7
9	10	2
102	102	6
128	138	6
122	122	4
139	139	10
72	73	3
125	125	4
123	123	9
132	133	9
32	32	3
83	83	2
17	18	3
105	105	5
77	78	3
32	33	1
136	136	2
126	126	8
126	127	3
5	6	4
93	95	3
134	135	5
117	117	4
117	118	4
2	4	1
128	133	4
15	15	8
132	132	11
75	75	3
124	124	10
26	26	3
101	102	6
37	71	1
17	17	11
127	127	9
79	79	3
124	125	1
112	117	2
90	90	10
101	101	6
102	131	3
97	97	5
14	14	7
96	97	2
107	107	2
5	5	4
114	114	4
127	128	4
31	31	2
29	29	3
7	35	2
22	28	6
95	95	3
73	76	2
73	74	6
28	28	2
34	35	4
22	27	3
113	114	3
99	99	2
8	8	1
93	93	2
0	0	6
84	86	1
11	13	2
100	100	4
30	30	3
10	12	3
21	21	2
27	32	2
112	112	1
73	77	1
103	104	1
74	86	1
75	77	3
25	25	2
76	76	1
35	35	7
107	108	5
111	126	3
26	27	1
8	9	2
22	23	1
106	107	2
123	124	1
23	23	2
78	78	1
9	9	2
140	140	4
106	110	3
86	87	1
18	20	1
109	109	1
111	111	1
14	18	3
139	140	1
95	101	2
87	87	2
72	78	1
4	4	3
3	4	1
110	111	1
123	125	1
2	2	1
107	116	1
33	33	1
92	92	2
130	135	1
93	94	1
7	7	1
137	140	1
38	38	4
116	116	3
73	73	1
32	36	2
121	122	1
16	137	1
37	89	2
90	92	1
108	108	1
133	134	3
135	137	1
120	120	1
7	13	1
85	85	2
14	15	2
37	37	1
95	96	2
119	124	1
0	9	1
114	115	1
86	86	1
15	17	1
88	89	1
108	109	1
27	27	1
18	18	2
10	11	1
89	89	1
