121	123	6
100	100	8
23	24	1
87	87	7
117	119	3
52	53	3
0	2	6
50	94	3
122	122	3
99	99	6
26	26	8
16	16	4
115	115	18
115	128	4
80	80	7
113	113	7
48	48	5
116	124	2
47	47	6
69	69	6
129	129	7
4	5	4
0	0	3
96	96	9
68	68	6
102	102	9
67	67	5
61	61	5
96	97	1
62	62	9
99	124	9
59	60	2
63	70	4
127	128	11
107	107	7
70	70	5
58	58	9
9	78	1
129	130	5
11	11	5
117	117	13
120	120	9
71	71	11
106	107	3
22	28	1
53	53	5
4	4	6
50	55	4
134	134	4
55	55	6
60	60	12
114	114	7
59	59	6
103	104	3
87	108	1
86	86	3
94	95	4
103	103	8
50	50	6
35	35	8
106	108	1
14	14	4
5	6	2
33	33	8
97	97	3
7	7	3
97	99	2
88	88	4
130	131	3
1	1	6
69	92	3
112	113	1
24	24	4
125	125	7
106	106	3
54	54	3
78	78	4
64	64	6
72	72	5
11	12	2
112	112	2
66	68	2
47	49	4
96	100	4
77	77	11
34	34	3
127	129	2
15	15	8
66	66	9
53	61	4
73	73	6
112	133	1
49	49	5
66	70	2
45	120	2
59	131	1
128	128	6
102	103	2
104	113	2
108	108	10
69	70	2
8	43	1
86	88	2
104	104	11
108	109	1
101	101	4
21	28	2
125	129	3
65	68	5
37	37	3
10	10	5
1	2	2
110	110	8
65	66	2
94	101	2
84	85	1
89	89	3
110	111	10
75	75	4
77	78	2
21	21	8
85	85	8
116	116	10
79	80	1
33	34	4
109	111	3
111	112	3
15	24	2
79	121	2
89	90	1
118	118	4
84	91	1
95	95	11
66	79	3
17	33	2
94	94	4
95	99	2
74	74	4
95	96	1
91	92	4
12	13	4
132	132	5
83	130	4
98	98	6
63	63	5
107	110	1
100	108	3
13	13	3
120	127	5
127	127	7
79	81	1
30	30	1
43	43	9
57	57	6
119	120	2
82	82	6
125	126	2
16	18	1
72	73	1
65	87	2
83	83	2
44	79	2
7	19	2
118	119	5
92	122	1
8	9	2
6	6	3
25	27	1
68	82	1
57	58	3
130	130	8
25	25	3
13	16	2
74	75	2
3	3	3
20	20	3
28	29	4
77	83	1
92	92	4
37	47	2
68	93	2
29	29	3
22	24	1
19	19	4
111	131	2
117	122	2
84	84	2
131	132	3
1	3	1
120	121	1
121	121	1
91	91	5
108	110	2
43	45	2
124	124	5
76	80	2
126	127	2
48	116	2
55	57	3
100	106	2
58	59	2
123	123	2
45	45	1
62	63	2
131	133	3
55	56	6
56	57	1
31	31	3
86	87	4
71	72	2
134	135	1
32	32	1
45	77	2
17	19	1
15	23	4
35	36	1
124	125	2
63	115	1
56	56	6
83	84	3
85	88	1
99	108	1
7	11	3
22	23	2
44	45	3
114	115	2
90	90	3
55	58	1
7	9	3
23	23	2
14	49	1
104	105	2
105	105	1
57	82	2
93	94	3
12	25	2
70	71	1
101	103	1
60	93	2
52	52	3
133	134	1
18	18	1
29	35	1
82	84	1
9	11	1
11	15	2
90	120	1
44	44	1
48	50	1
67	88	2
44	122	2
2	64	1
7	31	2
106	118	2
54	55	2
54	58	1
36	37	1
65	65	1
117	120	1
119	119	2
2	2	3
83	85	2
76	76	1
22	22	2
5	7	1
108	129	1
12	12	1
98	99	1
19	20	1
0	3	1
80	81	1
107	108	1
13	14	1
32	33	1
1	12	1
63	112	1
56	58	1
111	130	1
131	131	1
99	100	1
11	78	1
119	121	1
24	28	1
