84	94	10
55	56	4
135	135	4
85	85	4
39	40	2
18	18	12
90	90	4
86	87	7
80	85	2
130	130	3
137	138	1
48	56	8
106	106	5
65	65	13
62	132	2
104	122	4
136	136	13
11	20	4
88	88	5
14	15	6
31	31	8
145	147	7
97	97	5
133	133	5
3	4	5
7	7	5
22	22	8
16	80	2
17	18	8
68	82	3
50	50	6
101	129	4
7	8	3
77	77	6
104	114	2
103	104	5
54	54	1
147	147	4
66	66	7
10	11	3
41	41	5
32	34	1
21	21	8
119	119	4
69	69	9
17	17	5
134	134	8
8	8	5
105	106	5
152	152	10
112	115	3
28	28	3
118	118	1
102	102	3
148	149	7
144	147	1
25	27	2
110	110	14
27	27	11
26	26	5
131	150	3
14	84	2
115	116	5
83	83	4
76	84	2
113	113	6
129	129	6
83	84	5
71	71	10
51	130	1
49	50	4
31	32	2
17	21	5
131	147	2
35	35	4
141	143	4
79	79	4
48	49	6
50	52	3
13	13	2
80	80	4
19	19	2
105	111	7
15	15	4
32	32	4
10	10	5
74	75	7
138	139	7
14	43	5
23	23	4
101	101	5
107	107	2
85	96	3
68	68	3
4	5	6
98	110	2
20	20	2
34	50	1
73	73	4
50	136	3
145	145	4
42	42	10
99	99	5
154	154	4
80	82	5
58	58	4
121	129	2
83	85	2
98	98	2
121	121	2
34	35	6
125	126	3
11	11	3
138	138	4
9	10	3
46	46	7
122	129	2
29	30	4
63	63	5
38	40	9
73	81	1
70	71	2
122	122	6
124	124	1
64	64	4
26	33	1
9	9	3
109	109	5
76	76	5
111	112	5
57	57	3
33	34	7
22	23	3
41	43	2
94	98	1
5	5	6
5	7	1
118	119	2
36	36	5
66	146	2
93	93	3
4	4	5
94	95	2
23	24	8
14	14	2
92	92	2
62	88	1
40	40	4
74	77	3
35	56	1
104	104	7
27	30	2
69	70	1
87	93	4
22	24	4
45	45	4
16	16	6
114	118	2
128	143	2
16	31	1
150	151	2
95	95	6
34	36	3
72	80	1
56	56	4
29	29	7
83	86	4
99	114	4
89	91	2
72	72	4
77	78	4
78	94	3
141	141	3
67	67	3
84	96	4
139	139	1
32	119	2
132	132	3
104	105	5
35	50	2
125	125	2
49	49	5
103	112	2
73	88	2
116	116	4
100	102	1
36	38	5
34	34	3
115	115	1
105	105	3
12	14	1
93	95	2
51	132	1
53	54	5
34	37	1
43	43	2
41	42	2
99	106	3
6	7	2
86	99	1
76	77	1
73	74	2
111	111	4
126	126	5
84	84	4
116	120	3
35	46	3
114	114	3
61	66	2
96	96	2
123	125	1
49	90	1
122	123	3
51	51	3
144	144	2
27	32	1
28	30	3
81	81	2
104	120	1
123	123	1
48	48	4
69	72	3
77	81	2
39	42	1
108	108	4
83	92	2
13	14	2
65	68	2
62	65	1
38	38	2
65	67	4
8	9	2
65	66	1
15	30	2
36	53	1
64	69	4
118	130	1
127	127	1
24	24	1
150	150	4
71	79	1
12	13	5
47	57	2
108	114	2
89	89	3
47	48	1
99	103	2
63	69	3
51	52	2
67	68	3
66	67	1
43	45	1
97	99	3
147	148	3
13	30	2
53	53	3
16	21	1
47	47	3
123	124	3
135	140	2
64	66	1
101	102	2
83	98	1
103	103	1
102	104	1
79	97	2
92	111	1
80	83	2
144	145	4
10	16	2
12	12	1
72	93	2
93	94	1
112	113	2
108	109	1
15	16	4
96	98	1
63	64	3
79	98	1
75	84	2
74	74	1
78	78	3
78	79	1
95	127	1
38	39	2
26	34	1
85	94	1
152	153	1
129	140	1
66	76	1
128	128	1
113	114	1
25	39	1
140	148	1
63	65	1
18	19	1
149	149	1
48	53	1
79	85	4
48	50	1
30	30	1
44	44	1
11	30	1
48	51	1
33	35	1
39	39	1
98	99	2
64	68	1
38	51	1
124	126	1
7	9	1
52	57	1
40	41	1
24	25	1
146	147	1
50	55	1
151	152	1
39	41	1
132	140	1
143	145	1
83	94	1
62	63	1
103	105	1
62	67	1
62	62	1
44	46	1
