20	20	6
115	139	2
37	37	5
101	101	7
95	100	4
3	10	5
37	38	5
30	30	8
81	81	2
94	94	5
65	65	2
80	84	6
65	68	2
96	117	5
105	105	5
104	114	1
66	68	1
0	11	2
65	92	1
107	119	4
78	78	12
85	85	3
68	68	6
14	14	6
132	132	11
15	15	8
24	25	4
66	66	6
67	67	13
30	61	4
135	140	5
114	116	3
136	137	2
117	117	4
114	114	4
88	88	5
132	136	3
123	123	6
144	144	5
89	89	7
32	38	1
97	97	7
63	64	5
142	143	1
26	27	3
127	129	11
22	22	5
129	130	6
39	39	3
103	109	3
64	69	3
140	140	4
54	54	4
92	95	7
124	124	5
58	60	2
143	144	2
49	49	2
99	100	4
48	48	9
33	33	8
136	136	15
63	63	6
74	75	4
59	60	8
120	120	11
42	42	2
61	64	1
125	130	6
31	31	5
13	13	5
76	110	1
47	48	1
119	119	3
23	23	2
115	115	2
106	107	7
72	97	1
29	29	4
35	36	2
105	106	6
104	104	6
115	116	8
14	16	2
6	6	4
59	59	3
98	109	1
121	121	5
68	70	4
73	74	4
25	25	4
87	88	5
103	107	4
131	132	3
116	118	4
93	95	2
121	134	7
116	116	4
17	17	10
97	98	1
128	128	6
51	52	3
61	63	3
107	107	4
126	126	4
2	11	1
128	131	6
11	11	3
27	27	9
126	127	2
142	142	1
140	141	2
10	11	3
70	70	3
77	77	1
100	126	1
123	133	3
80	80	3
121	137	1
87	87	5
126	131	2
5	5	3
91	91	5
118	123	1
118	119	5
66	84	2
98	98	6
122	122	4
74	74	2
70	72	2
111	111	4
88	89	10
96	96	11
11	26	1
91	92	2
122	124	2
21	21	3
18	18	6
131	135	1
90	90	5
114	115	4
138	138	7
82	82	2
73	87	4
135	135	8
106	109	1
133	134	5
120	121	2
110	110	6
134	134	6
9	85	1
54	56	1
79	79	5
129	129	8
35	47	3
9	9	3
55	56	4
145	145	6
95	95	2
72	87	3
53	55	2
19	19	4
60	60	4
35	35	4
90	91	3
2	2	7
8	16	1
8	68	3
118	125	2
110	111	4
118	121	2
125	125	3
3	3	3
119	138	3
1	1	4
92	94	2
138	140	1
33	66	5
124	129	1
28	28	5
141	142	1
13	16	2
38	38	10
132	140	4
68	104	1
76	79	2
73	88	1
56	58	1
64	64	3
146	146	2
41	41	2
29	36	1
103	103	8
53	53	1
29	30	6
55	58	1
72	73	2
100	100	5
39	54	2
19	20	5
115	131	1
79	96	4
138	139	2
92	92	3
53	85	1
118	118	2
28	29	3
112	135	3
107	108	4
108	108	5
60	64	1
99	99	7
12	12	2
43	55	1
112	114	2
32	32	1
78	112	2
113	113	1
137	138	1
75	75	2
127	127	4
131	131	5
34	53	2
71	132	2
68	105	2
72	72	4
119	122	2
54	70	3
93	111	2
31	32	3
4	4	3
69	70	3
71	98	4
98	108	1
105	109	2
34	52	3
79	80	1
144	145	1
73	73	5
64	66	1
113	133	1
64	65	4
94	141	1
139	139	3
47	47	2
134	135	2
132	133	2
120	124	1
61	62	1
141	141	4
137	137	2
102	102	5
133	133	1
15	16	2
76	76	2
120	125	1
133	138	1
28	86	1
55	82	3
10	10	2
31	69	1
122	123	1
36	36	4
139	140	2
143	143	1
72	107	2
93	93	1
83	84	5
121	122	2
62	62	1
112	112	1
57	57	2
38	39	1
62	66	1
100	101	1
33	34	2
84	84	1
139	141	1
38	48	2
73	89	1
106	106	1
20	21	2
83	83	1
16	16	1
108	111	1
72	104	1
103	104	1
18	19	1
130	130	2
58	58	1
34	35	1
109	117	1
71	72	1
66	69	1
57	66	1
66	67	1
62	64	2
123	131	1
56	57	2
98	107	1
8	8	1
30	42	1
8	69	2
89	91	1
82	85	1
10	15	1
116	117	1
