100	100	7
125	125	7
55	55	3
46	46	4
68	68	12
1	76	6
88	88	2
5	130	4
49	49	10
19	20	4
5	114	2
129	130	4
104	107	5
131	131	6
62	62	8
78	78	8
117	118	2
124	124	5
24	72	3
39	39	1
0	4	4
53	53	9
30	30	10
130	130	1
45	46	2
57	57	3
3	4	5
19	19	1
27	76	1
114	114	9
91	91	5
19	61	1
106	121	2
27	29	1
17	59	1
116	116	4
59	59	2
113	114	2
82	85	4
79	79	8
8	106	1
20	20	10
102	103	5
90	91	1
105	107	8
54	54	2
51	51	5
41	43	4
93	99	1
46	80	1
8	9	4
111	111	1
109	113	2
18	18	7
21	21	3
65	67	1
67	74	2
80	88	3
43	43	6
77	91	8
71	71	6
61	61	11
101	101	8
52	52	2
107	107	3
127	129	2
69	69	13
73	73	6
112	112	2
26	80	3
34	34	2
9	41	1
21	22	6
3	3	4
2	2	2
126	126	6
21	81	1
49	81	3
41	42	4
14	33	2
113	113	3
13	13	6
121	121	6
19	21	3
22	22	2
108	108	4
60	61	4
42	42	5
17	41	6
31	31	1
115	115	9
4	4	6
119	119	4
59	60	6
64	64	4
95	116	1
28	95	2
76	76	4
70	70	8
29	93	2
17	18	2
118	131	2
55	59	2
118	119	1
89	102	3
106	107	4
65	65	6
116	117	8
89	90	4
89	89	6
109	110	3
98	103	6
40	40	6
63	63	5
11	11	7
49	50	1
99	103	1
83	83	3
5	7	3
39	69	1
29	29	6
14	14	9
86	97	2
77	78	2
43	78	2
46	57	1
3	100	1
52	53	4
8	8	2
7	23	3
113	116	2
0	0	3
67	67	3
24	79	1
110	110	5
80	80	4
14	34	1
45	80	3
101	107	2
80	81	3
15	15	1
42	58	3
109	112	2
13	14	1
97	102	1
1	1	1
78	81	1
26	26	6
95	118	2
81	81	5
11	45	2
38	71	2
39	63	2
5	6	3
86	86	5
16	78	1
95	95	6
9	43	2
104	106	4
129	129	5
114	119	2
75	76	4
109	109	6
20	21	2
38	38	7
117	119	5
96	96	4
59	61	1
86	116	1
58	61	4
97	99	4
56	56	5
118	118	2
28	29	2
90	90	2
83	84	1
26	27	1
99	100	2
87	113	1
93	94	1
87	88	2
105	105	3
100	101	1
30	94	2
47	57	4
88	95	2
49	53	2
11	102	1
82	82	3
84	84	2
5	120	3
91	92	3
41	78	2
91	127	1
122	122	3
25	78	2
48	48	3
68	70	2
114	118	2
84	85	2
126	128	3
128	130	1
98	118	1
94	94	3
60	60	2
47	47	1
18	19	1
46	48	2
27	28	3
50	50	3
120	120	2
9	9	4
103	103	1
46	47	2
107	108	1
98	98	2
23	23	4
16	45	1
112	113	1
63	75	1
27	27	1
24	34	2
53	122	1
47	48	1
62	77	1
6	6	2
115	116	1
82	133	1
2	3	3
5	5	1
120	122	2
95	96	2
16	39	1
29	30	2
23	24	2
50	51	2
20	118	1
12	12	3
41	44	1
31	32	1
127	127	2
99	104	1
126	127	1
72	72	1
48	49	1
91	95	1
55	68	1
97	97	3
128	128	1
51	52	2
7	66	1
119	130	1
64	66	2
6	114	2
2	46	1
118	130	1
15	44	1
74	77	1
72	73	3
26	94	1
10	16	1
25	27	1
112	114	1
14	79	1
70	71	1
6	118	1
104	104	1
78	79	1
32	32	1
44	44	1
77	79	1
46	117	1
38	74	1
