47	61	2
72	72	7
38	39	4
57	57	10
23	26	2
10	47	1
0	0	2
92	92	5
93	93	4
127	128	1
31	31	3
107	107	3
41	45	2
28	79	3
28	43	4
49	106	1
6	93	3
15	23	5
96	97	5
66	66	23
101	101	9
40	40	17
80	126	4
42	134	2
126	128	2
123	124	4
93	101	1
49	49	15
46	46	20
131	134	7
76	76	17
61	61	25
70	70	5
11	11	19
93	94	5
34	34	12
4	59	3
25	26	7
101	102	2
24	126	1
112	112	3
83	83	17
64	66	2
71	71	5
28	29	2
35	36	7
96	96	14
84	84	16
12	12	6
82	131	2
15	42	2
81	126	2
16	39	4
26	26	13
21	37	5
38	38	10
62	62	8
29	30	4
35	35	10
9	9	4
22	22	3
69	70	7
8	10	3
81	81	11
73	73	20
21	21	3
14	14	5
28	80	13
91	91	4
23	23	6
31	32	7
30	30	5
60	60	10
20	48	1
8	8	9
16	20	1
58	59	5
75	75	11
29	77	1
17	17	7
9	11	1
26	36	3
29	32	1
61	72	5
10	10	17
41	43	2
55	56	1
39	39	7
47	47	15
87	91	4
23	40	4
37	41	3
63	63	9
7	7	8
5	133	1
16	16	10
40	41	4
30	90	2
1	61	3
55	59	3
114	116	2
116	116	1
72	93	1
74	74	9
97	98	5
125	125	5
76	77	3
86	86	11
20	21	1
45	45	11
44	44	8
19	71	3
29	47	4
23	28	1
19	19	6
2	117	5
124	134	2
18	18	4
29	29	10
12	13	1
117	117	9
77	77	8
98	98	4
131	131	3
93	110	2
30	134	4
132	132	6
120	121	1
6	88	3
19	102	2
78	78	3
44	83	1
111	111	3
35	80	5
47	48	3
43	43	8
97	97	4
94	94	5
8	66	4
19	20	3
27	35	2
92	93	6
73	74	9
3	5	3
95	99	4
88	88	2
110	110	9
82	82	14
127	127	2
63	67	2
11	95	1
39	41	3
24	42	4
99	101	4
30	43	4
98	129	1
126	126	3
68	68	15
64	64	8
13	15	1
8	28	1
124	124	3
57	77	4
26	82	8
91	92	7
133	134	2
15	15	5
78	79	4
99	100	3
54	84	4
23	133	2
58	58	10
32	32	5
94	110	2
45	57	3
21	32	4
128	128	2
95	95	7
13	47	5
39	79	6
75	94	1
114	115	1
55	55	10
83	123	3
13	14	5
27	48	2
103	103	4
18	19	3
2	61	1
26	38	2
66	67	4
65	65	17
108	111	1
11	96	1
20	35	1
98	99	1
17	18	1
83	84	3
26	48	2
89	90	2
104	105	4
11	12	3
19	35	6
104	108	2
42	42	12
13	13	8
112	113	3
33	35	1
22	26	2
15	17	5
5	5	6
25	83	1
22	25	1
21	25	4
126	127	3
10	122	1
36	36	7
17	19	2
102	116	4
26	27	7
95	96	2
46	72	3
86	88	1
5	47	3
15	76	1
23	34	3
69	69	6
30	77	3
76	93	1
7	92	1
130	132	2
118	118	6
100	100	7
41	41	2
31	72	1
29	62	1
125	134	1
10	11	4
66	97	3
81	82	2
27	27	11
98	116	5
9	10	1
90	98	2
115	115	10
33	33	2
113	116	3
65	66	2
4	6	1
60	113	1
32	35	2
3	3	1
96	126	2
119	119	2
85	85	6
25	27	1
30	42	3
15	16	2
18	36	2
100	101	3
108	110	1
77	116	2
57	84	2
59	117	2
46	62	2
79	79	5
79	80	4
86	87	1
22	38	1
16	17	5
67	67	4
56	56	5
90	93	2
56	82	3
27	79	3
80	80	2
2	111	3
30	31	2
45	113	2
123	123	4
68	69	1
28	28	9
3	4	2
20	20	1
132	133	2
62	63	2
31	36	1
61	75	3
57	59	1
11	94	1
20	42	1
59	59	3
84	89	1
11	98	1
120	120	1
81	83	1
26	32	1
29	31	1
3	86	3
6	6	2
1	2	1
87	87	2
79	126	2
25	87	1
15	72	6
71	93	2
82	134	3
24	24	2
25	25	3
44	45	2
105	107	2
84	123	2
16	26	1
97	116	2
32	33	3
6	7	1
51	90	2
48	49	2
41	42	1
108	108	4
2	2	3
27	42	1
14	15	2
5	90	3
70	71	1
36	38	2
72	77	2
39	78	1
59	91	2
20	41	1
18	22	2
122	125	1
45	61	1
83	98	1
14	59	1
23	25	3
114	114	3
42	43	3
101	130	1
106	106	4
8	11	1
11	21	2
27	36	3
11	18	2
85	95	2
23	132	1
118	126	1
30	40	2
105	105	2
104	104	4
28	78	3
4	4	5
37	37	3
121	121	2
109	110	2
24	41	1
30	81	1
23	130	3
22	42	2
90	91	2
17	102	1
113	113	1
122	122	1
48	48	4
26	34	1
40	57	2
91	98	1
113	122	1
59	122	1
47	76	1
19	33	1
23	24	2
58	121	1
18	73	1
129	129	1
119	122	1
11	26	1
43	44	1
13	36	1
63	69	1
61	62	1
25	82	1
49	92	1
11	37	2
73	75	1
27	91	1
60	119	2
56	123	1
25	33	1
90	92	1
23	37	1
80	81	1
134	134	1
109	109	1
30	93	1
40	42	1
44	60	1
25	32	1
46	47	1
106	107	1
5	89	1
34	35	1
11	99	1
89	93	1
22	41	1
122	123	1
93	100	1
58	89	1
67	118	2
37	38	1
82	90	1
