21	21	15
102	102	8
83	83	12
42	42	8
43	43	16
26	26	12
58	58	3
39	40	3
121	122	4
91	126	1
69	69	3
32	32	3
34	34	16
74	74	19
88	95	7
126	128	2
93	93	22
99	100	8
85	86	2
55	55	6
126	126	6
90	90	26
61	64	2
17	17	10
60	63	1
44	61	1
94	94	23
62	62	17
28	89	1
103	103	10
12	12	13
4	5	5
8	8	14
24	25	7
7	97	3
75	116	4
77	77	16
125	125	4
95	95	13
131	132	4
27	28	4
111	113	1
78	79	6
106	107	3
13	46	3
86	86	7
118	118	7
37	37	10
16	16	5
70	76	3
95	96	3
93	126	2
23	24	6
9	10	9
94	107	2
26	27	11
100	100	13
96	96	2
105	106	1
112	112	9
71	74	4
18	18	8
8	9	8
30	47	1
11	11	18
76	77	4
30	30	10
62	72	1
27	80	3
2	2	3
7	15	1
72	85	5
26	32	4
3	12	4
118	119	4
33	34	4
0	0	5
35	35	11
80	80	13
110	110	8
14	15	8
56	56	6
127	127	5
4	16	5
20	21	3
119	119	6
48	48	7
122	123	1
46	47	5
98	98	14
7	7	7
65	65	19
10	25	1
79	80	2
61	61	7
5	5	9
28	28	9
97	98	6
45	71	2
46	46	17
60	60	11
12	47	6
112	113	8
3	4	4
59	59	17
25	25	4
132	132	1
42	43	3
56	122	3
115	115	3
101	101	13
85	85	18
76	76	7
66	66	9
132	134	2
11	12	6
84	84	11
106	106	6
11	36	1
105	105	12
56	57	2
96	97	8
45	95	3
100	106	3
20	41	2
82	82	5
72	72	14
55	57	2
22	36	3
128	134	2
75	113	1
47	66	2
79	79	17
31	69	2
85	87	1
55	134	1
44	44	4
78	78	6
6	6	12
31	31	11
82	97	2
3	57	1
101	102	4
47	47	21
73	73	12
22	22	10
38	39	2
25	47	1
68	69	8
3	3	4
93	94	11
109	109	5
21	41	2
4	92	1
47	79	2
64	64	18
27	27	26
77	78	3
59	133	3
29	108	2
35	36	6
30	43	4
129	129	19
70	77	3
92	92	7
103	133	2
5	100	3
8	10	1
41	43	6
88	89	4
90	93	4
4	25	2
14	14	12
105	124	3
88	88	14
38	38	5
78	81	4
113	114	4
113	113	2
104	105	5
41	81	1
20	20	17
44	79	1
42	59	5
99	99	14
60	121	5
70	75	3
9	9	15
67	67	9
71	75	1
11	29	1
111	111	8
90	94	1
28	78	1
68	68	4
93	98	4
91	92	4
8	36	1
97	97	5
89	90	5
126	132	2
13	22	2
43	44	1
31	84	3
98	102	3
25	26	7
63	79	2
19	19	4
72	73	4
15	15	7
134	134	2
133	133	4
6	16	8
39	82	3
4	48	4
70	70	10
116	116	4
9	21	1
117	117	5
36	37	2
30	130	1
45	97	6
57	57	4
122	122	3
10	36	2
18	19	3
82	84	1
84	85	8
62	63	3
23	23	6
44	45	8
66	67	2
64	68	2
11	31	1
124	124	4
6	7	3
41	41	11
24	57	3
23	26	4
70	71	1
13	13	4
19	20	4
114	114	4
77	98	1
26	43	1
79	81	2
25	28	1
105	133	2
9	18	2
29	29	14
74	75	1
81	81	5
12	17	2
15	16	2
87	87	8
4	101	1
78	83	1
45	94	1
29	49	4
45	45	15
57	120	2
2	9	1
24	24	2
36	36	5
76	120	4
87	88	5
40	60	1
1	2	3
67	74	2
1	75	2
123	123	1
10	10	6
63	63	2
58	60	5
16	18	2
121	126	5
5	99	2
50	50	5
19	25	2
0	1	1
87	94	5
15	49	1
41	84	1
42	116	2
64	76	1
63	112	1
11	49	2
57	104	2
33	33	5
109	122	2
94	98	4
87	95	1
47	101	2
126	134	1
21	22	1
128	128	3
81	82	3
27	89	1
47	129	2
6	88	1
13	23	2
5	6	1
6	96	1
57	126	2
58	59	3
69	76	1
4	4	5
108	108	2
4	50	2
25	43	1
22	26	2
28	29	1
48	82	2
92	93	1
18	38	1
97	99	2
20	82	2
44	111	1
90	130	1
32	85	2
34	73	1
37	81	2
33	60	3
17	71	1
75	76	6
10	14	2
107	107	3
48	110	1
31	34	2
73	74	3
89	89	1
27	78	3
38	77	1
90	131	2
46	76	2
45	77	2
48	49	1
90	91	6
62	82	1
6	93	3
12	93	2
111	112	1
40	42	2
75	75	5
5	7	1
38	40	2
64	70	1
90	92	3
128	131	1
35	66	1
13	47	2
30	109	2
5	14	1
27	29	1
79	82	2
41	50	1
7	8	1
6	19	1
40	40	2
46	70	2
40	41	1
96	98	2
66	69	2
34	74	2
110	120	2
111	120	1
3	95	1
120	120	2
19	36	1
18	61	1
70	74	2
16	40	1
16	73	1
37	38	2
8	13	1
103	106	2
127	132	5
56	120	1
122	124	1
90	133	3
33	71	2
49	49	1
68	70	1
35	57	2
113	121	1
25	29	2
29	30	1
34	75	2
6	20	1
114	115	3
130	130	4
24	26	1
104	104	2
90	125	1
43	130	2
78	80	1
94	95	4
113	120	1
60	134	1
99	101	2
70	78	4
57	125	2
28	82	1
126	127	1
39	39	1
108	121	1
10	13	1
26	61	2
20	42	1
101	133	1
48	72	1
35	73	2
5	64	2
9	14	1
11	57	1
30	87	2
19	67	1
33	76	2
77	110	3
102	106	1
119	120	1
49	101	1
121	121	2
95	98	1
84	89	1
28	91	1
16	82	1
14	19	2
91	93	2
131	131	3
86	115	1
71	72	1
69	70	2
11	24	1
94	100	1
39	85	1
111	116	1
81	98	1
60	82	1
81	86	2
8	21	1
3	14	1
16	81	1
32	33	2
38	81	1
51	55	1
16	20	1
44	60	1
11	30	1
93	100	2
56	134	1
34	36	1
13	14	1
127	129	1
48	132	1
89	91	1
5	48	1
26	100	1
4	15	2
63	82	1
4	7	1
110	111	1
82	83	1
25	30	1
65	66	1
45	80	1
48	78	1
60	61	1
59	93	1
