127	133	3
130	130	8
63	63	14
116	118	2
125	125	14
123	124	6
93	93	10
99	108	2
70	70	16
18	18	5
103	103	16
94	94	8
114	115	13
113	113	26
9	10	5
77	77	23
122	132	1
65	66	7
35	105	3
80	80	18
24	120	7
65	65	20
126	126	13
102	102	15
47	47	2
34	35	2
77	86	1
23	23	5
119	119	14
104	105	6
75	75	19
98	99	11
30	30	12
44	45	10
45	45	6
64	118	2
14	14	16
64	65	11
91	91	11
97	97	10
38	48	3
21	21	7
114	114	24
8	8	9
123	123	6
72	72	6
44	44	9
104	104	15
133	133	19
100	100	15
134	134	15
108	108	5
81	81	5
90	114	2
8	34	4
6	6	21
74	74	26
121	129	2
132	132	10
35	35	13
60	60	10
106	116	3
112	112	16
26	26	8
88	88	25
79	79	18
34	34	6
62	62	16
91	92	3
43	44	3
53	53	10
7	73	6
100	112	2
115	115	9
1	1	11
5	5	18
25	121	5
106	106	11
111	111	9
99	99	25
3	4	6
33	34	10
130	133	4
92	92	19
99	101	1
27	28	12
73	73	10
113	115	1
22	22	11
20	20	9
131	131	6
75	76	9
85	109	1
29	29	8
95	95	20
110	110	11
97	98	5
3	3	9
37	37	17
85	85	10
20	86	3
35	50	3
105	105	22
64	115	1
92	93	5
7	7	13
50	50	11
124	124	13
115	116	22
128	129	3
121	121	15
98	98	9
102	123	3
127	127	6
107	108	9
44	48	2
70	93	5
101	101	17
28	29	18
54	81	1
10	38	4
32	85	2
76	78	2
8	13	4
17	17	3
68	68	14
55	56	2
76	76	21
19	19	7
43	45	1
2	2	4
59	59	16
16	31	4
52	53	11
120	120	25
68	69	8
129	129	11
67	68	3
54	57	5
71	71	11
107	107	4
70	71	1
68	87	4
36	37	6
31	31	7
54	55	4
16	30	7
83	83	6
86	86	4
112	113	7
116	116	24
20	21	1
121	124	4
58	85	3
90	90	10
87	87	13
5	6	2
93	101	1
12	12	6
33	33	11
78	78	3
4	5	5
54	54	11
57	58	6
111	112	1
36	86	3
60	84	5
13	13	15
27	27	6
61	61	11
56	56	3
15	15	8
52	52	6
35	98	5
66	66	6
84	88	3
72	73	9
25	27	3
84	84	5
57	59	2
0	0	9
100	134	2
53	54	2
127	129	5
113	114	5
84	87	4
79	80	3
97	112	4
95	96	2
54	59	5
43	68	1
65	112	3
88	93	5
122	122	6
76	106	2
4	4	15
86	87	6
0	3	3
112	115	3
85	86	5
96	96	5
14	32	2
1	2	2
49	50	10
105	106	3
56	58	2
114	135	1
82	82	6
125	133	5
21	22	4
76	133	1
84	112	2
129	131	3
134	135	1
13	34	2
77	78	9
84	85	4
131	133	3
117	117	15
65	115	1
116	123	3
30	89	2
83	87	2
102	134	1
89	89	8
88	91	1
18	115	1
109	109	8
43	43	4
37	98	1
106	107	3
44	52	2
74	104	6
53	55	3
117	118	4
62	116	2
16	20	2
16	16	10
85	90	4
47	72	5
36	36	6
90	93	1
22	23	5
127	128	6
73	102	2
59	60	6
96	97	6
62	63	5
120	121	1
10	10	4
119	120	4
44	51	2
87	88	5
43	91	1
2	34	1
67	67	6
17	114	3
80	82	8
16	17	2
14	15	4
123	133	5
18	19	4
88	92	1
11	11	9
62	64	5
26	27	3
123	129	3
9	9	6
117	128	2
100	113	10
74	75	4
79	105	2
97	111	1
60	61	3
128	133	3
16	18	2
75	87	3
64	64	10
95	112	1
66	67	2
66	68	1
61	93	2
76	104	2
72	101	2
82	83	4
4	23	2
73	74	3
69	92	1
114	116	2
34	104	1
27	123	2
52	54	1
28	28	9
126	128	1
109	110	3
0	1	1
69	69	11
25	25	4
107	111	2
45	66	2
115	117	2
66	112	1
124	125	3
71	72	5
98	105	1
82	106	1
113	127	1
81	115	3
45	59	2
81	84	3
126	133	1
121	123	2
24	24	3
89	90	4
105	110	2
10	11	2
8	33	1
131	132	2
81	114	1
103	104	1
91	97	2
132	133	4
65	70	2
36	38	2
99	105	1
32	32	1
100	101	3
20	82	1
118	120	2
87	91	2
49	49	2
47	49	2
126	127	2
119	128	2
97	116	1
44	53	1
60	111	1
69	70	3
43	79	1
24	25	2
96	111	1
76	100	2
24	27	1
78	79	3
115	127	1
79	81	2
29	30	1
93	94	2
84	86	2
48	48	2
32	33	1
66	96	2
43	48	1
21	26	1
45	56	2
46	47	2
6	8	1
18	28	1
9	45	2
11	92	1
35	36	1
128	135	1
57	57	3
83	93	2
58	59	1
38	62	1
106	108	1
82	87	1
31	32	2
84	107	2
0	33	1
25	26	2
58	58	2
17	127	2
88	90	1
111	114	1
42	45	1
42	58	1
20	22	2
8	37	1
55	55	2
35	52	1
118	119	1
81	126	1
99	100	1
101	113	2
47	63	1
128	128	1
83	92	2
38	38	1
94	95	1
75	89	1
13	32	1
12	90	1
50	52	1
63	64	1
91	95	1
56	57	1
84	92	1
118	118	1
122	123	1
76	87	1
49	51	1
