34	35	8
105	106	4
58	79	1
56	57	2
75	75	11
77	83	2
26	26	3
68	68	4
48	49	1
109	110	6
44	45	2
91	91	7
82	85	6
75	84	5
76	76	5
53	53	4
83	83	7
77	94	1
39	39	3
88	89	9
114	114	5
92	92	5
36	36	5
73	73	8
34	34	2
80	80	12
68	114	5
82	82	3
81	95	2
50	50	6
20	21	10
69	69	3
101	101	2
22	23	1
60	60	4
111	111	9
24	102	5
66	66	2
72	72	6
104	104	7
26	78	1
92	113	1
93	96	2
53	85	1
93	95	1
59	59	4
103	104	4
96	97	3
21	21	5
87	87	1
76	78	4
56	56	5
104	109	3
102	103	2
108	109	1
65	69	2
52	52	6
104	107	2
103	105	1
71	72	4
33	33	4
85	86	1
50	111	1
95	111	4
66	93	4
61	61	9
63	70	1
93	93	4
87	88	3
54	55	1
104	105	1
63	63	4
31	31	3
100	100	6
105	105	4
84	85	1
71	97	3
22	22	1
83	84	2
104	108	1
96	99	3
40	40	1
40	44	1
103	103	2
102	109	2
40	41	4
47	47	5
97	99	4
101	106	3
44	44	6
102	102	1
43	44	2
29	29	6
90	90	3
106	107	2
62	62	4
71	71	2
99	99	1
23	24	2
51	53	2
82	83	2
64	91	3
47	48	2
67	75	4
98	99	2
66	96	2
30	54	2
65	65	2
94	94	1
64	64	4
59	60	2
24	103	1
61	62	4
37	37	3
31	44	2
95	95	4
74	74	1
36	39	1
28	30	1
30	30	2
58	59	2
67	67	2
109	109	1
41	42	1
30	32	1
107	107	1
88	88	4
59	93	1
73	75	2
90	91	1
21	24	1
90	93	2
111	114	3
35	35	4
38	40	2
93	94	2
30	31	1
25	26	1
75	76	4
69	70	1
105	107	3
91	94	1
28	36	2
63	67	2
58	58	3
63	64	1
35	55	3
89	89	3
54	54	3
79	79	1
96	96	4
53	56	3
78	83	1
19	19	5
61	76	2
24	101	1
77	81	1
110	112	1
81	81	1
60	67	2
27	27	1
71	95	2
83	89	1
64	86	2
81	94	2
32	34	2
39	42	3
108	108	1
23	26	1
81	105	1
51	51	4
65	66	1
46	46	3
28	28	1
92	93	3
84	86	1
74	105	1
110	113	1
74	75	1
72	93	1
106	106	1
27	28	1
91	93	1
28	32	2
25	25	1
48	48	2
72	73	2
40	83	1
97	97	2
76	77	1
49	49	1
70	71	1
90	95	1
61	78	1
101	102	1
24	46	1
66	67	1
