120	120	2
80	80	3
192	192	5
240	241	5
70	70	8
47	47	4
238	238	5
152	152	5
108	109	3
242	242	4
175	175	7
228	228	4
157	157	4
231	231	10
29	30	1
111	111	5
77	78	5
67	67	1
86	86	6
200	200	8
238	241	2
229	230	5
20	20	10
83	86	3
31	31	10
57	58	7
185	185	14
110	110	5
41	41	9
226	226	7
208	208	5
20	227	1
26	26	16
153	157	4
225	226	3
88	104	5
241	242	7
171	174	1
49	49	2
103	104	1
204	204	6
233	233	10
217	217	5
77	84	1
229	229	10
78	78	12
194	195	11
7	7	12
56	223	4
42	42	7
112	112	5
212	233	2
22	22	6
225	225	2
82	83	3
152	157	2
190	190	8
78	85	3
102	103	6
65	67	2
242	243	2
11	36	3
107	108	4
227	227	3
31	226	4
5	12	1
97	97	6
64	64	6
38	38	8
48	48	10
162	162	10
10	36	3
29	29	9
224	225	3
59	60	4
215	219	3
223	223	6
36	36	12
101	114	2
101	105	5
220	220	10
158	239	4
154	154	13
61	247	4
17	17	10
93	93	9
43	43	6
179	180	9
45	45	4
238	240	10
82	82	6
74	74	2
197	199	1
219	219	2
37	37	7
51	68	3
157	159	1
38	246	2
180	198	1
237	241	2
102	111	1
65	66	4
208	210	2
158	220	4
24	26	1
56	229	2
63	248	5
188	188	13
4	13	1
62	233	1
221	221	4
94	94	7
201	245	2
39	39	1
237	237	13
200	209	3
118	118	4
18	20	4
174	174	7
75	75	6
165	165	12
163	163	5
214	214	10
216	217	3
90	90	3
108	108	10
89	89	6
186	220	6
215	215	5
4	199	1
210	211	1
77	77	2
175	176	2
53	54	5
69	69	11
199	199	1
44	44	11
42	44	2
181	181	5
80	85	2
159	220	1
63	216	4
230	230	2
75	77	3
46	84	1
57	60	3
51	92	4
23	23	6
56	56	2
2	2	4
155	155	10
168	168	11
105	105	8
14	14	6
112	118	3
56	65	1
54	54	5
218	218	5
91	91	5
240	240	3
173	173	6
195	196	1
219	220	3
21	115	1
183	183	8
201	201	10
218	219	4
246	247	1
168	194	3
63	63	4
61	62	3
239	240	8
171	173	6
5	5	8
117	117	7
202	202	10
19	70	3
45	80	2
119	119	4
198	199	2
88	88	2
194	194	3
197	220	4
50	50	4
198	198	9
84	84	7
99	120	1
17	18	1
182	182	9
103	103	6
13	14	3
73	73	4
8	9	2
154	171	3
15	18	1
110	112	1
239	239	12
164	164	6
175	177	4
144	154	1
113	113	6
229	240	2
156	156	8
202	203	6
213	214	3
29	31	1
212	212	7
241	241	6
53	53	6
166	247	1
34	34	7
46	46	5
62	62	4
183	184	1
153	153	1
72	72	3
58	59	7
68	68	2
160	160	4
33	33	10
247	247	1
12	12	3
164	166	2
153	163	2
85	90	4
167	167	3
98	98	6
207	207	7
85	86	1
114	114	6
209	209	4
57	225	1
213	213	9
59	67	2
65	65	2
172	172	2
28	28	3
93	94	3
246	246	4
66	66	9
58	58	7
5	14	3
59	77	3
116	116	1
9	40	6
112	115	1
76	76	5
197	197	5
92	92	4
159	175	4
164	176	1
71	73	1
210	210	3
70	71	5
192	196	4
159	211	4
231	236	2
107	107	4
96	96	10
67	72	1
117	118	2
193	193	2
108	161	2
56	82	2
44	55	3
189	189	4
158	158	4
104	104	4
223	226	7
220	221	1
87	88	4
204	205	4
151	152	1
203	203	1
1	228	1
51	51	2
172	198	4
183	202	2
55	57	2
18	90	4
106	107	3
49	56	2
62	63	4
177	178	2
184	220	3
159	160	3
187	187	4
184	184	10
33	235	2
6	6	5
211	211	7
222	223	2
181	209	3
101	101	1
3	3	1
14	69	4
49	50	2
75	87	2
47	48	7
25	25	6
230	231	2
19	46	1
115	115	7
231	245	2
181	182	2
107	166	4
199	200	1
6	40	2
74	75	6
29	33	1
197	219	2
4	14	5
196	196	1
152	164	2
193	194	3
63	67	1
118	119	1
151	151	5
21	39	1
165	245	2
69	70	5
170	170	2
159	159	5
71	71	3
70	82	1
35	59	1
53	220	1
77	81	1
158	160	3
25	145	1
188	189	1
76	77	4
186	221	3
5	241	1
197	198	2
32	32	1
108	115	1
234	234	3
205	207	1
150	204	1
4	5	2
235	242	1
241	244	5
159	210	2
7	53	1
98	117	1
106	108	1
48	64	1
22	24	2
201	202	7
232	232	6
69	71	3
9	9	4
149	163	3
185	189	2
239	243	1
213	249	2
187	188	4
249	249	2
244	244	2
192	193	1
175	192	3
77	79	7
9	10	2
161	161	11
53	160	1
196	215	3
73	74	2
109	109	3
197	213	1
182	183	1
199	206	1
237	238	4
176	177	2
1	1	6
55	55	2
4	4	4
231	232	2
231	242	1
166	167	1
179	179	3
18	18	4
71	84	3
214	244	3
102	102	2
162	165	1
216	216	3
105	106	1
14	70	2
210	218	1
190	192	1
40	40	3
191	191	3
245	246	2
21	27	2
248	248	2
30	38	1
243	243	1
197	240	1
10	11	2
80	81	2
24	24	1
177	181	1
180	180	3
70	83	1
145	154	3
15	47	1
34	245	3
57	57	6
151	156	2
203	204	2
60	66	3
222	245	1
195	243	2
30	30	2
99	99	3
208	209	1
92	93	2
100	118	1
51	52	3
47	73	3
65	228	3
213	239	1
99	102	1
245	245	8
77	95	1
83	83	2
187	190	1
171	171	7
3	70	3
209	215	3
169	169	7
25	144	1
99	108	2
222	227	1
6	54	1
112	144	4
52	54	2
19	19	2
185	187	1
224	224	2
150	150	1
223	224	1
162	163	2
159	245	1
168	201	1
44	65	1
172	184	1
46	67	1
73	89	1
41	43	1
16	17	2
168	169	3
186	186	3
183	185	2
84	86	1
2	4	1
19	20	2
192	194	1
9	28	2
87	89	3
22	28	1
92	104	1
4	64	3
178	178	3
237	240	1
21	32	1
9	53	2
147	147	2
16	16	1
20	70	1
72	76	1
95	101	2
68	69	3
211	224	2
152	160	1
2	3	1
184	203	1
159	170	2
11	11	2
26	27	3
216	239	1
112	114	1
24	225	1
85	85	2
11	245	1
78	81	1
101	102	1
51	91	1
1	2	2
64	65	1
40	93	1
222	222	1
8	8	2
115	161	1
50	91	1
100	101	1
57	245	1
79	81	2
243	244	1
100	100	1
27	40	1
226	227	1
106	106	2
57	59	1
5	39	1
231	233	1
152	166	1
56	57	1
81	81	2
59	228	1
240	248	1
190	215	1
226	228	1
77	80	1
11	246	2
197	246	1
116	237	1
182	210	1
79	79	1
76	105	1
27	224	1
243	245	2
151	160	2
198	200	1
7	116	1
15	31	1
62	247	1
228	229	1
159	167	1
120	163	1
48	92	1
171	204	1
145	151	1
195	211	1
145	145	2
27	27	1
193	217	1
66	67	1
180	214	1
73	80	1
217	219	1
159	181	1
175	178	1
60	62	1
