65	65	6
86	87	9
53	54	7
73	74	6
63	63	5
81	81	17
6	6	11
48	58	2
10	10	9
75	75	16
15	16	9
58	58	10
84	84	8
14	14	17
23	24	4
78	79	11
19	31	5
71	87	1
55	55	9
74	74	7
70	71	1
30	30	12
84	85	5
57	57	9
79	79	9
83	83	7
1	1	16
5	5	12
76	76	3
3	3	19
80	83	3
72	72	14
70	88	2
50	50	17
9	24	5
8	10	2
11	11	6
69	69	10
6	7	3
76	77	5
61	61	7
72	74	6
85	86	5
82	83	8
23	26	4
5	17	5
71	71	10
82	82	17
2	3	3
72	73	16
66	66	14
88	88	11
51	52	1
59	80	2
4	4	10
70	70	10
27	27	6
77	77	3
24	24	10
87	87	22
68	68	5
86	86	26
27	68	4
0	0	10
71	72	5
7	8	7
3	4	2
47	77	4
74	75	12
2	2	4
18	18	5
64	64	4
56	57	3
13	13	5
1	2	5
85	87	6
67	68	2
51	51	9
8	9	1
50	51	4
27	28	3
31	31	10
57	58	4
21	66	3
6	8	2
19	19	4
8	8	8
53	77	3
60	77	3
56	56	14
66	72	1
80	80	13
59	59	8
56	60	2
55	82	3
75	76	4
54	56	2
22	22	8
48	48	6
24	25	1
23	25	7
25	25	5
67	67	16
28	28	11
89	89	2
53	53	4
68	74	3
65	66	3
73	73	6
17	17	4
2	14	2
88	89	1
51	53	1
85	85	12
77	80	6
48	55	4
11	12	6
49	49	6
79	82	2
75	80	1
21	52	1
52	52	6
87	88	5
5	25	1
8	14	4
59	62	1
78	80	4
46	48	3
66	80	3
9	10	4
61	62	2
78	83	2
62	64	4
54	54	3
18	19	1
19	23	2
26	31	1
84	87	1
29	29	7
26	26	2
68	84	2
20	23	3
0	1	3
89	90	1
62	62	2
34	34	1
60	61	1
12	13	5
59	60	2
9	12	1
56	82	2
12	12	5
55	56	1
60	63	1
6	10	2
59	63	1
61	72	1
60	60	1
69	88	1
9	9	5
55	57	2
66	70	3
23	66	2
78	78	3
15	15	7
25	26	1
86	88	1
17	18	2
47	47	3
50	53	2
9	14	1
18	23	1
58	59	2
56	62	1
17	21	1
5	8	1
6	23	1
12	24	2
62	77	1
6	18	1
58	83	1
54	82	1
67	72	1
5	19	1
19	20	1
28	68	1
59	79	1
17	31	1
61	77	2
56	84	1
