47	51	3
62	63	4
98	98	5
26	26	10
18	42	3
31	32	2
38	38	7
49	49	8
4	4	16
0	0	20
82	84	1
110	120	3
26	31	2
13	14	4
78	78	10
59	59	5
60	60	5
24	39	7
21	21	5
120	120	12
12	12	7
61	61	8
2	2	4
18	18	6
92	92	4
34	34	2
83	87	3
44	44	11
123	123	7
52	53	5
96	97	3
104	105	1
87	88	2
51	60	6
71	71	10
75	75	9
70	70	11
76	77	10
23	23	8
54	58	4
14	14	5
64	64	11
80	106	4
116	116	6
29	31	3
1	1	27
79	79	8
128	128	2
40	40	11
33	33	17
131	131	3
82	83	3
107	113	1
29	29	9
119	127	1
108	114	3
72	73	2
21	40	3
81	81	6
67	67	7
6	6	5
114	114	8
13	13	7
119	119	6
108	109	4
28	29	2
47	47	15
47	49	2
48	48	10
25	27	3
27	27	10
31	31	12
111	111	9
89	89	1
16	16	5
43	59	3
41	41	10
82	103	3
41	42	10
94	94	5
102	102	11
133	133	2
110	110	8
32	32	17
101	103	1
45	46	4
2	24	2
101	101	5
51	51	9
55	55	11
24	38	1
30	30	4
93	93	6
72	75	5
88	88	2
97	99	1
79	131	4
128	131	2
64	100	1
3	39	1
96	96	9
32	34	1
5	5	9
31	96	5
120	124	10
90	93	2
50	51	1
129	129	3
11	12	3
56	56	7
83	97	2
21	30	6
22	22	11
21	22	2
107	107	7
42	42	10
108	119	3
104	104	15
63	63	5
7	16	6
111	112	3
130	131	10
66	66	8
7	7	6
93	94	2
15	15	7
97	97	6
109	109	8
122	123	5
115	115	4
16	68	5
84	103	7
65	101	3
20	20	8
7	30	1
28	28	10
51	59	7
14	23	3
14	15	2
65	66	6
22	30	1
39	39	15
74	76	1
65	65	14
27	28	12
46	46	3
115	131	2
10	10	5
87	87	6
24	24	10
44	68	2
43	43	10
8	8	8
83	103	3
72	74	3
23	39	1
49	50	1
62	64	2
53	53	5
108	108	9
2	3	1
86	86	5
126	128	8
3	3	4
77	100	1
33	34	4
67	98	1
45	45	5
20	56	1
81	129	1
22	55	4
70	102	2
110	111	2
126	127	1
88	89	5
48	56	1
39	40	1
85	87	1
82	82	5
77	77	10
76	76	6
67	99	1
7	38	5
84	129	1
46	48	1
90	90	1
121	122	1
100	100	6
19	43	4
80	81	3
126	126	14
11	11	4
84	85	2
48	49	3
7	8	2
72	72	2
46	52	1
74	74	6
106	106	5
7	64	1
131	132	2
42	43	5
54	54	1
63	68	2
81	103	3
105	106	2
5	17	2
113	117	1
25	25	8
22	24	2
85	85	11
62	68	3
40	42	2
23	24	2
59	61	1
19	20	5
55	66	1
118	119	1
78	106	1
117	125	3
118	118	6
12	67	1
12	60	3
7	52	3
19	41	1
106	133	1
42	96	1
113	113	7
2	4	2
62	62	1
109	133	1
50	50	5
112	113	2
91	93	1
80	96	1
40	43	3
15	24	3
10	11	1
40	56	2
4	13	4
8	9	3
44	61	2
40	41	6
17	62	1
100	107	1
18	21	2
11	13	1
59	60	3
17	17	3
85	125	1
128	129	2
25	26	1
72	76	2
14	67	2
38	39	1
99	99	2
44	58	2
97	104	4
15	25	1
17	19	1
98	99	1
128	130	1
72	77	2
19	22	1
5	6	1
45	92	1
83	84	5
18	22	1
114	117	1
16	17	2
75	77	1
115	120	2
59	67	2
69	69	4
37	97	2
132	132	1
125	125	3
46	59	1
121	121	2
57	57	5
24	25	2
68	98	1
78	79	2
109	112	1
84	84	1
0	1	2
95	95	2
109	110	2
117	131	1
90	91	2
115	116	1
117	117	1
91	92	1
96	98	2
105	133	2
68	68	2
99	103	1
86	88	1
69	70	1
127	127	1
85	127	1
43	85	3
132	133	1
57	58	2
25	39	1
67	71	1
84	101	1
83	83	4
19	19	3
27	30	1
99	119	1
17	18	1
83	86	1
127	128	1
68	69	3
114	115	1
88	90	1
73	74	1
16	67	1
78	81	2
101	102	2
55	56	2
29	30	1
46	47	1
11	16	3
130	130	2
56	57	2
55	100	2
19	40	2
9	17	1
14	64	1
85	86	4
46	58	2
69	72	1
63	64	1
10	12	1
49	116	2
73	73	4
42	125	1
60	62	1
46	51	1
30	31	1
13	30	1
11	17	1
