118	194	4
83	84	2
48	48	5
75	76	3
151	151	12
226	227	9
70	70	6
205	206	1
34	34	10
162	191	2
119	119	12
242	242	9
163	167	3
232	232	5
85	85	7
101	101	6
173	173	9
152	152	3
241	241	7
214	214	2
117	117	8
170	170	8
171	183	1
15	16	1
20	31	1
90	91	16
55	56	8
57	57	6
182	182	2
33	33	5
101	160	3
211	211	1
95	95	3
215	215	11
232	234	4
247	248	1
91	92	2
178	199	1
88	88	8
58	67	3
179	179	3
210	211	10
157	163	1
173	197	7
83	83	3
175	176	12
35	40	5
213	214	6
74	77	4
11	11	5
20	21	8
85	225	3
199	199	8
245	245	16
11	19	1
199	200	2
32	32	5
10	10	7
84	90	5
157	159	1
25	25	6
153	153	3
47	235	3
16	16	10
12	12	1
165	174	2
156	157	4
97	97	2
223	223	15
173	185	3
198	199	3
239	241	1
117	159	5
94	94	7
23	24	2
57	65	3
150	201	3
177	181	3
201	204	4
108	108	2
243	243	4
212	212	15
81	81	8
189	189	3
73	161	2
151	156	2
185	185	10
4	4	6
105	105	2
153	161	2
190	191	5
237	237	6
174	174	4
15	19	1
45	45	5
156	160	1
24	24	8
43	43	8
240	240	9
201	201	13
118	118	3
8	9	1
169	169	6
159	180	3
158	158	10
69	69	4
232	233	4
166	166	12
213	213	1
247	247	8
115	115	9
46	46	6
4	33	2
218	218	3
161	161	9
217	218	3
162	170	1
238	238	4
80	80	8
99	99	4
87	87	5
157	158	8
50	247	3
12	20	3
184	184	7
65	65	12
211	221	3
59	59	3
186	186	8
68	70	3
244	244	7
193	194	4
57	157	1
222	230	2
77	77	10
28	28	3
79	79	1
120	120	2
180	180	5
230	230	17
86	86	4
111	111	3
208	208	5
52	52	2
159	167	3
229	230	9
6	6	3
162	168	1
192	192	3
120	145	2
85	102	5
197	209	3
96	96	8
117	120	8
76	77	4
5	5	2
165	237	5
202	202	4
198	198	6
159	161	1
216	217	9
55	55	6
213	238	3
58	58	7
23	40	1
93	95	1
53	53	2
159	159	3
91	91	4
94	95	7
30	38	1
200	200	7
18	18	4
147	147	3
98	98	3
185	244	1
113	113	5
178	178	3
14	84	3
151	183	4
49	50	2
175	175	6
118	119	3
246	246	5
104	104	3
109	109	5
154	154	7
76	76	7
217	217	3
32	33	5
204	204	7
115	117	1
150	150	8
222	229	4
21	22	10
57	62	3
66	66	4
63	63	8
180	183	4
3	4	2
194	194	6
22	22	5
54	150	3
8	8	2
171	196	2
194	234	1
171	171	3
7	7	2
1	1	4
210	239	4
193	211	3
18	20	2
36	36	5
159	168	2
226	226	3
195	195	10
117	119	2
195	196	1
236	240	5
41	41	6
157	191	2
87	88	5
19	20	3
187	187	3
156	156	2
49	49	3
168	193	4
201	203	4
107	108	3
116	116	6
62	63	3
157	179	3
11	17	1
9	9	3
35	35	2
209	211	4
58	65	5
172	177	2
202	207	3
54	54	5
220	221	5
238	239	6
188	188	1
39	39	2
47	47	2
14	39	7
233	234	3
56	64	4
237	239	1
160	160	3
231	231	6
168	168	3
25	26	2
166	167	5
114	114	4
61	160	5
177	177	1
40	40	7
33	38	2
57	66	2
181	182	1
8	24	1
94	97	1
113	114	3
149	165	1
207	234	1
243	244	5
197	197	6
163	225	1
209	209	10
228	228	2
181	181	3
170	196	1
84	85	2
218	219	7
56	56	2
205	235	2
37	43	3
197	200	2
93	93	3
39	40	2
102	159	2
172	172	4
211	234	3
50	227	4
104	105	2
156	159	3
88	93	2
15	15	8
165	166	2
203	203	4
73	74	1
178	179	2
57	60	1
4	30	3
182	184	4
68	68	5
106	107	1
162	162	3
236	239	2
59	85	3
5	31	3
150	167	1
116	118	1
75	75	3
225	225	2
211	233	1
12	17	4
114	240	4
164	167	2
155	155	4
157	164	2
183	183	1
217	229	1
20	20	3
31	34	2
2	5	3
74	74	6
221	221	5
239	239	2
34	37	1
159	160	2
66	246	2
159	208	1
104	108	1
71	72	3
18	29	1
145	163	2
93	94	2
57	58	3
219	220	1
162	163	2
44	44	2
37	37	4
155	156	1
100	100	2
176	176	4
103	103	3
193	193	6
171	172	1
245	247	1
158	171	2
30	30	2
157	180	3
7	8	1
77	83	2
31	32	2
62	150	1
59	109	1
227	227	3
149	154	1
190	190	5
213	216	1
174	175	5
15	17	1
176	184	1
172	173	2
69	92	4
71	71	2
202	203	1
6	7	2
235	235	1
183	224	3
190	201	2
222	222	2
97	99	2
231	237	2
49	75	2
205	205	4
144	144	3
67	67	1
23	23	3
44	45	4
151	152	1
81	201	1
111	116	2
11	12	2
112	118	1
93	109	1
181	219	2
223	226	3
2	3	3
27	27	3
229	229	3
51	51	1
29	29	4
207	207	6
158	170	2
3	30	1
160	182	1
224	224	2
81	82	1
203	206	1
90	92	1
245	246	1
212	224	1
195	239	1
69	70	1
204	205	2
33	45	1
188	213	1
48	73	1
244	246	2
167	167	2
112	112	5
210	210	1
102	102	2
234	239	2
85	87	1
191	191	6
110	245	1
66	67	1
46	226	1
117	165	3
34	35	1
4	50	1
167	238	2
53	55	1
145	168	3
14	18	2
165	165	3
13	14	1
213	225	1
112	113	2
119	161	1
65	84	2
212	213	1
233	233	5
146	166	2
96	97	1
209	230	1
207	221	2
58	59	1
111	118	1
201	202	4
196	196	1
58	61	1
150	151	1
241	244	1
80	81	1
6	32	1
187	190	1
202	204	1
230	231	1
64	64	5
215	236	1
58	60	2
116	245	2
197	203	1
63	65	1
147	165	1
158	190	1
58	64	2
12	13	2
196	223	1
78	78	1
83	119	4
111	114	2
21	21	1
52	153	1
186	192	1
59	84	1
168	169	1
161	162	1
160	164	1
176	177	1
187	210	1
47	54	1
24	26	2
116	247	1
78	79	1
209	220	1
213	217	2
113	161	1
92	92	1
115	165	1
170	171	1
51	53	1
80	85	1
70	90	1
76	113	1
29	31	2
221	222	2
79	80	2
240	241	1
71	102	1
50	248	1
177	180	1
196	198	1
2	6	1
12	185	1
197	201	1
96	119	1
90	90	1
188	192	1
52	54	1
34	38	2
29	48	1
188	189	1
185	223	1
106	113	1
15	18	1
206	206	3
73	90	1
74	76	1
60	60	1
236	236	1
3	6	1
165	175	1
214	223	1
230	235	1
113	240	1
73	77	1
4	5	1
219	219	1
63	109	1
245	248	1
24	92	1
33	37	1
234	234	1
