49	49	11
58	60	2
36	36	7
67	67	4
95	95	12
94	97	3
41	41	10
82	87	6
103	103	14
94	96	2
54	54	9
102	102	8
63	63	3
52	54	2
98	98	6
85	85	3
70	73	2
61	62	6
37	38	6
75	75	12
65	101	5
44	47	1
36	37	6
51	51	20
84	84	2
34	34	10
78	78	3
96	96	8
88	88	5
100	100	22
83	87	4
91	92	4
19	22	1
21	22	3
35	35	12
33	34	8
70	70	15
77	79	5
79	79	7
70	72	3
94	94	4
43	45	3
81	81	3
97	97	8
68	69	4
73	73	5
66	66	3
104	104	14
66	67	2
47	47	4
77	77	6
29	29	11
77	85	2
65	65	5
31	31	11
47	50	1
69	69	5
58	59	9
80	80	9
82	82	9
39	39	7
21	21	12
38	38	12
68	68	5
74	74	3
51	52	4
38	39	6
30	30	3
58	58	2
101	101	11
42	46	1
95	99	2
50	50	1
72	72	4
52	53	3
92	92	8
26	26	3
25	25	3
30	98	3
87	90	3
83	84	6
22	27	4
46	46	1
55	55	8
79	81	2
26	30	2
62	65	2
60	60	2
62	63	7
53	53	11
28	28	8
43	43	8
32	32	14
56	56	9
47	52	1
26	27	5
95	96	2
22	31	5
101	105	2
51	53	2
78	79	2
64	64	7
61	61	7
59	66	2
70	71	2
62	64	3
59	59	14
42	44	7
84	85	3
89	90	11
47	53	3
90	93	5
37	37	5
77	78	1
62	79	2
79	80	5
104	105	2
91	91	5
28	33	2
43	44	3
54	57	1
71	71	10
25	30	8
100	101	6
35	36	1
62	62	12
49	51	2
45	48	1
80	87	2
27	27	11
57	57	10
66	80	3
82	88	2
35	37	6
90	90	4
65	94	1
22	22	6
20	24	1
23	24	2
86	86	1
22	25	2
45	45	3
20	26	1
93	93	10
51	102	4
33	33	9
106	106	2
92	93	5
99	99	5
80	90	1
71	72	6
95	97	4
50	51	3
102	103	1
19	20	1
75	76	5
24	33	2
48	48	1
82	83	4
91	93	1
76	76	1
86	87	2
43	70	2
63	70	1
24	24	2
72	73	1
86	89	1
105	105	6
60	61	1
96	107	1
46	52	1
66	70	1
84	86	2
68	85	1
53	104	2
42	42	1
46	47	2
49	50	1
86	88	2
20	20	2
101	102	2
56	59	1
65	72	2
48	49	1
67	71	1
20	25	1
83	89	1
97	98	1
30	31	1
46	48	1
53	54	1
22	34	1
78	82	2
64	65	1
83	90	1
92	94	1
23	23	2
76	77	1
25	27	1
92	106	1
20	33	1
50	55	1
58	64	1
67	68	1
88	91	1
21	23	1
20	21	1
90	91	1
21	24	2
63	64	1
56	58	1
68	70	1
89	89	1
