92	92	2
31	54	8
11	11	5
137	137	3
3	3	3
32	34	5
78	82	3
117	123	1
15	15	11
37	37	9
141	144	2
129	133	2
122	123	4
153	153	6
13	15	1
121	122	5
107	111	1
82	82	1
20	22	5
9	76	2
18	18	8
151	151	14
44	44	11
109	111	1
42	45	1
10	10	5
34	36	6
104	104	2
112	112	5
27	27	6
100	100	3
107	107	1
54	54	4
139	144	1
80	80	12
141	141	5
109	109	2
135	135	1
17	18	3
122	133	2
114	115	4
49	114	1
96	96	3
88	89	4
26	26	5
89	102	2
27	37	3
14	14	10
115	117	2
132	132	3
18	19	2
126	126	3
22	23	1
103	104	7
110	110	2
4	5	2
3	4	1
51	71	4
124	124	8
135	137	4
78	79	1
85	85	4
77	78	3
146	147	4
34	35	1
12	72	1
95	95	5
6	6	4
17	17	6
124	127	3
122	122	1
150	151	1
106	106	4
16	131	1
118	119	1
29	30	1
94	94	4
7	16	5
9	11	2
79	84	2
78	78	6
5	78	1
64	85	3
112	156	1
85	109	2
133	133	4
133	134	1
159	159	2
7	8	1
86	86	3
77	82	2
89	91	1
117	130	3
45	45	3
134	134	4
86	88	7
106	118	1
55	67	3
87	89	1
68	71	2
139	139	5
147	147	2
119	121	5
119	119	1
132	137	3
158	158	2
49	49	2
105	105	2
8	76	1
15	16	1
51	51	5
93	93	4
31	36	4
1	1	1
68	70	2
103	105	2
143	149	1
77	90	2
89	89	1
38	39	2
70	87	3
127	134	2
2	2	3
51	53	1
5	5	3
76	88	1
17	114	2
155	155	5
67	68	3
101	101	3
73	73	1
84	84	4
42	42	3
140	141	7
97	98	1
41	42	2
31	156	1
52	53	1
32	32	5
4	4	2
50	50	3
69	71	3
109	135	1
7	7	7
15	49	4
6	46	2
113	125	3
131	134	1
130	130	1
88	88	8
25	26	3
97	105	2
7	41	1
34	34	2
25	25	3
19	20	1
68	69	3
70	71	3
51	72	1
19	19	2
13	13	2
82	93	1
81	81	2
114	114	2
95	96	3
25	29	1
114	142	1
113	113	1
41	90	1
144	153	1
123	140	2
132	133	4
111	112	2
45	47	3
111	116	2
78	113	1
22	22	1
116	117	1
64	64	3
155	159	1
121	121	1
67	67	5
20	21	4
69	69	1
46	46	1
129	129	1
116	116	1
125	127	1
90	90	2
43	43	4
84	119	2
8	64	1
64	70	1
79	79	2
70	70	3
125	126	3
12	12	3
143	146	1
106	108	1
36	41	1
31	50	2
136	136	2
144	144	1
140	140	2
99	99	1
20	20	3
1	2	1
107	108	1
118	145	1
142	144	1
87	103	2
155	158	2
23	24	4
102	141	1
141	145	1
56	56	2
101	128	1
107	158	1
49	71	3
107	118	1
105	117	1
29	29	1
25	30	2
158	159	2
98	98	1
48	48	1
20	32	1
67	69	1
135	136	3
0	1	1
107	117	1
8	8	2
71	71	4
113	114	2
27	28	2
128	128	3
48	71	1
45	46	1
18	56	1
99	129	2
96	97	1
75	75	1
133	149	1
103	141	2
155	156	1
40	41	2
63	64	2
127	139	2
142	154	1
64	65	1
48	54	1
120	138	1
48	70	1
13	48	2
54	76	1
23	101	1
23	33	1
77	77	3
40	49	2
51	52	1
112	113	3
86	87	1
1	28	1
0	29	1
18	20	1
68	68	1
123	123	1
85	89	1
134	135	1
142	142	1
74	74	1
44	46	1
150	156	1
109	113	1
118	121	1
127	127	1
97	97	1
133	145	1
