14	14	5
18	18	16
16	16	18
129	130	2
57	119	4
14	33	5
39	59	2
121	121	11
22	22	12
60	60	8
36	36	14
77	77	4
31	32	4
112	112	12
58	58	8
96	96	11
25	25	9
109	110	5
114	115	13
54	56	2
111	111	3
65	75	1
17	59	5
76	76	18
87	87	5
50	50	9
93	93	3
104	104	3
130	130	11
114	136	2
83	83	12
101	101	17
20	20	11
135	135	9
128	128	12
38	39	2
34	35	6
83	85	2
142	142	4
73	73	15
91	91	7
24	25	8
15	48	4
37	37	7
57	57	3
1	1	23
118	118	23
134	137	3
139	139	5
32	33	3
41	141	3
33	33	9
117	117	11
128	129	6
62	82	4
10	34	4
10	11	6
141	141	5
85	85	4
50	51	6
54	54	9
124	125	6
120	120	13
126	127	4
82	83	3
49	49	7
9	48	1
125	129	8
95	95	3
144	144	8
67	67	10
11	11	6
127	132	1
104	111	4
72	93	4
141	142	3
38	38	9
52	52	16
49	51	3
126	126	20
142	144	1
9	139	2
132	133	3
130	131	1
77	78	2
28	28	9
29	29	27
125	127	9
30	30	11
82	87	7
0	0	10
131	131	9
79	81	3
136	136	6
113	113	8
122	122	12
15	16	17
102	102	7
18	33	1
92	92	6
12	13	5
69	103	2
132	132	19
105	105	6
24	24	7
79	79	5
47	144	4
4	5	4
94	94	13
17	126	2
68	69	1
78	78	15
100	102	4
67	84	9
99	99	13
73	74	3
134	134	11
118	119	5
76	88	3
115	138	2
110	110	13
98	99	5
19	19	10
8	22	3
27	27	14
114	114	7
119	119	6
72	72	9
68	68	6
68	84	2
107	107	10
87	129	1
21	21	5
80	82	5
19	20	3
90	90	10
34	50	4
13	13	6
129	129	8
70	144	2
59	59	8
145	145	2
40	40	4
89	89	6
71	71	10
88	133	1
99	103	4
88	131	1
124	127	3
55	123	2
118	121	5
125	125	10
108	110	5
13	14	2
24	27	2
122	123	9
27	28	8
12	12	6
138	139	4
123	123	9
32	32	9
57	121	3
8	8	13
6	6	12
1	49	6
35	35	10
86	125	3
88	88	2
116	118	8
142	143	6
26	26	9
12	48	1
87	88	3
135	137	3
74	74	17
42	42	3
19	22	2
106	107	7
97	98	4
115	115	24
52	53	2
140	140	12
73	75	5
79	133	2
53	101	2
124	128	1
116	132	2
25	26	5
21	22	3
107	140	2
22	48	7
138	138	7
96	106	1
94	95	2
131	132	8
134	135	3
86	87	2
116	116	5
4	42	2
127	128	6
47	47	4
19	70	3
13	98	3
128	131	2
56	125	3
114	118	2
55	107	1
5	5	3
80	80	9
91	124	1
41	41	11
137	137	7
70	75	7
5	9	2
86	86	13
86	145	5
16	17	3
112	119	3
37	39	7
117	137	4
23	24	2
72	131	6
61	70	4
84	84	6
54	55	1
67	69	2
12	33	1
10	10	4
125	140	4
10	140	1
82	82	8
63	63	6
70	70	5
48	48	5
104	121	1
39	41	2
17	60	2
35	56	6
8	109	1
119	120	7
143	143	5
35	36	5
114	138	3
49	53	2
71	128	1
109	109	1
60	75	1
100	100	5
14	72	2
17	49	3
39	39	4
83	84	4
30	32	3
94	119	2
103	113	2
55	125	1
36	106	1
10	127	2
8	9	4
89	92	2
72	94	3
112	113	5
3	3	3
62	64	3
3	4	1
55	62	1
22	123	3
56	62	1
14	16	2
81	81	9
42	48	1
34	34	2
68	78	3
63	72	3
29	30	2
55	98	6
60	120	1
97	97	9
131	133	2
111	112	8
2	16	3
113	119	2
125	131	5
71	95	4
26	27	5
14	15	2
53	56	1
19	42	1
24	30	1
128	130	4
80	81	1
104	118	2
108	108	12
56	120	3
9	138	2
64	64	3
56	56	3
59	60	2
116	119	1
89	91	1
118	120	2
73	129	1
23	23	4
47	75	3
103	106	3
39	60	2
127	130	2
103	107	3
61	61	3
127	127	4
121	122	1
135	139	5
69	69	8
88	89	4
2	68	2
110	136	1
9	19	1
106	113	6
66	67	4
55	56	4
140	144	1
55	55	7
64	65	4
112	138	3
136	140	2
57	59	1
82	142	3
2	3	6
101	102	3
56	119	1
87	134	2
40	41	2
94	97	1
62	72	4
111	113	1
66	102	4
36	39	1
98	98	2
22	141	3
85	86	2
35	54	3
61	105	2
6	10	1
62	71	3
74	91	3
21	95	1
107	108	7
136	139	3
66	145	2
92	94	7
92	93	1
96	111	1
15	15	2
71	96	3
17	17	2
2	2	4
118	141	1
93	94	2
9	22	3
9	9	4
33	37	1
120	141	1
126	128	5
65	65	3
41	53	3
36	50	3
132	134	2
16	129	2
96	105	1
77	94	1
140	141	1
104	105	2
31	33	3
113	114	2
111	139	2
50	102	2
17	145	1
75	76	4
26	30	2
9	126	2
72	132	2
134	136	2
18	60	3
20	24	1
69	70	2
22	49	3
133	133	4
77	93	1
4	4	1
2	4	2
124	124	4
34	36	3
62	107	1
98	100	1
35	39	3
99	100	1
48	49	1
62	63	2
0	35	4
36	51	2
1	120	1
5	127	1
75	75	5
20	47	1
110	111	1
9	10	1
60	61	1
20	94	1
84	85	5
96	103	1
18	70	2
19	36	1
53	100	2
17	82	1
64	73	1
13	33	1
31	31	2
50	52	2
66	66	1
6	25	1
18	58	1
126	129	2
106	106	1
55	115	1
145	146	3
4	34	1
78	121	2
8	11	1
37	38	2
102	119	1
42	87	1
15	34	1
107	109	1
105	106	1
137	140	1
79	80	1
70	71	2
15	17	2
20	21	2
135	140	1
60	68	1
139	144	1
47	104	1
0	1	2
103	103	3
92	108	1
63	107	2
53	54	3
115	116	1
41	121	1
5	135	1
108	109	2
109	114	2
87	91	1
63	95	2
72	85	1
8	31	1
34	52	1
54	117	1
95	105	1
49	52	1
17	42	1
41	42	2
12	26	1
95	98	1
15	39	1
102	103	1
110	139	3
121	123	1
133	137	1
60	90	2
68	83	1
70	134	1
18	78	1
90	93	1
96	107	1
20	95	1
62	62	1
85	92	1
58	97	2
43	66	1
53	53	1
129	132	1
24	26	1
15	103	1
36	37	1
94	100	1
135	136	1
68	73	1
131	143	1
127	129	1
24	29	1
