138	155	2
155	156	4
152	152	8
88	88	3
99	99	3
46	78	4
147	147	7
51	51	2
44	45	4
50	51	4
116	116	3
128	128	6
98	98	5
163	163	5
95	95	6
82	82	7
112	114	4
23	23	3
41	41	19
142	143	2
63	63	3
14	14	5
168	168	6
161	168	2
37	37	3
9	9	2
143	169	5
21	21	1
88	89	2
143	143	7
39	46	2
57	57	4
42	42	6
5	157	4
5	6	4
106	106	2
142	142	6
92	92	8
25	25	7
137	139	3
1	1	6
48	48	4
119	119	5
51	52	4
134	134	4
126	126	6
64	64	7
106	107	1
13	13	1
90	90	2
92	99	3
116	118	2
79	87	3
69	71	2
144	144	7
62	62	4
96	154	1
101	103	3
19	19	5
73	73	2
91	96	6
56	56	3
39	40	2
35	35	9
131	143	4
49	49	1
27	27	4
98	99	2
46	80	2
17	17	3
78	85	4
161	161	1
3	11	4
5	126	1
64	66	9
15	15	11
166	166	4
43	43	4
38	45	3
38	38	8
131	146	2
80	81	4
138	138	9
154	154	2
69	69	6
140	140	5
2	11	2
84	84	1
129	129	5
161	165	2
0	2	1
81	86	4
169	169	2
102	103	4
7	7	4
53	54	2
35	36	5
86	86	3
84	156	3
24	24	11
152	155	2
148	148	3
109	109	7
76	98	4
124	124	2
8	8	2
20	21	1
139	140	3
74	75	1
100	100	3
107	107	3
80	80	6
101	105	3
81	81	4
40	40	3
136	136	2
156	156	4
78	79	3
54	56	4
83	156	3
36	36	2
87	87	2
157	157	9
44	44	8
164	164	1
50	50	4
136	145	2
51	63	2
111	111	9
77	78	1
123	123	2
108	137	3
4	11	2
20	22	3
110	110	5
164	165	1
92	93	1
123	154	1
33	33	3
121	122	3
143	147	3
38	106	1
116	117	2
66	67	6
148	149	1
115	121	1
11	11	3
162	168	2
77	79	2
20	20	3
85	85	1
36	108	2
64	146	1
89	89	2
162	162	1
151	151	4
89	121	2
113	150	2
54	54	7
16	16	2
94	116	3
114	114	4
14	24	3
135	142	3
18	20	1
72	73	1
3	3	4
7	111	2
8	10	1
10	10	3
42	43	5
149	149	3
128	159	2
143	144	1
131	131	2
48	49	2
39	39	5
15	18	1
54	55	1
45	80	1
102	102	3
119	120	3
113	113	4
76	76	1
65	69	1
122	158	1
67	67	3
151	152	1
0	0	2
46	46	1
8	9	6
105	105	3
69	73	1
158	158	2
110	111	3
18	23	1
95	102	2
124	125	2
125	147	2
146	146	2
137	137	5
139	139	2
96	96	1
108	109	3
12	12	2
70	70	1
72	72	1
103	103	3
100	103	1
159	159	2
112	112	3
121	121	1
115	118	2
91	91	2
130	143	1
18	18	3
153	153	2
126	158	1
55	55	2
97	97	3
91	93	3
47	76	2
106	150	1
127	127	2
74	74	1
46	49	2
47	49	1
66	66	2
130	130	3
167	168	3
5	5	2
20	23	2
117	117	1
19	25	2
128	129	3
107	146	3
2	2	4
120	120	3
90	91	2
83	85	1
118	118	1
46	152	1
40	77	2
135	136	1
36	37	3
131	170	1
68	68	1
127	128	1
116	119	1
157	158	1
56	58	1
147	148	1
69	77	1
133	133	1
14	16	1
91	94	2
10	16	1
104	105	1
145	145	1
119	146	2
67	69	2
161	167	1
93	93	2
9	10	1
42	47	1
143	146	1
109	155	1
130	131	1
89	90	1
108	108	2
71	72	1
58	76	1
105	107	1
45	45	1
55	56	1
22	22	1
130	146	1
126	127	1
109	151	1
125	125	1
118	147	1
4	4	1
21	155	1
