4	5	5
54	76	3
26	142	3
51	51	10
106	107	1
46	46	5
169	169	1
79	79	2
149	149	9
37	38	5
122	122	6
21	21	1
113	114	3
23	23	9
57	98	3
159	159	4
76	77	4
5	7	3
25	114	2
106	106	2
18	83	1
144	148	2
38	38	6
76	79	1
19	74	3
80	83	2
7	9	1
92	94	4
66	66	7
88	88	9
98	98	4
108	109	5
18	18	4
153	153	2
64	64	2
139	139	1
20	20	7
25	111	3
107	108	5
116	120	2
3	13	5
147	159	2
40	40	8
125	125	4
25	25	11
55	133	3
147	147	3
20	21	2
63	84	1
24	145	3
35	35	9
47	47	6
118	118	3
12	12	5
71	71	4
10	11	4
83	131	5
52	52	9
110	110	7
97	97	14
43	43	6
19	20	2
10	10	9
12	83	2
161	161	2
73	73	3
24	24	3
93	93	7
156	156	5
1	1	3
45	45	4
69	69	4
75	76	2
56	74	1
85	85	9
86	98	1
141	141	7
124	124	8
57	63	1
5	46	8
54	54	5
76	76	4
72	157	4
77	77	6
35	135	2
152	152	3
147	148	1
16	40	3
14	14	2
109	109	9
153	154	2
123	123	8
103	103	3
68	68	9
92	93	2
137	137	3
41	83	3
133	133	3
74	75	2
58	58	4
42	108	3
80	82	3
123	162	3
93	97	1
149	167	2
72	72	2
6	6	5
145	158	1
85	103	1
88	89	2
112	112	9
34	34	2
93	94	4
78	78	2
70	73	2
150	150	6
115	116	4
99	99	8
21	83	1
146	146	5
67	116	2
71	73	2
165	165	1
22	22	2
79	80	4
8	10	1
101	102	2
132	132	2
67	67	1
5	5	2
63	63	6
49	49	2
105	105	4
155	156	2
116	116	3
102	102	6
122	126	2
132	133	1
150	152	2
84	84	3
83	83	4
107	107	7
24	74	2
90	100	3
26	26	2
90	90	5
23	73	3
11	11	4
52	82	4
104	104	3
33	33	2
139	140	1
157	157	2
11	82	1
9	9	3
170	170	3
102	150	2
126	127	4
86	87	3
71	72	7
149	153	3
37	37	3
139	164	5
145	145	2
18	76	4
111	112	2
61	155	2
95	126	2
135	135	11
17	17	5
3	3	1
56	56	11
6	83	2
112	113	2
16	16	5
53	54	1
135	142	1
23	24	2
47	49	1
87	87	5
75	75	1
19	19	2
100	159	2
27	107	1
70	70	2
123	124	5
94	95	3
167	167	2
15	15	4
63	67	1
108	121	3
136	136	2
97	99	4
154	154	4
164	164	2
50	51	4
26	64	2
55	55	3
88	118	1
23	76	2
91	91	5
20	83	4
143	143	2
85	86	1
165	166	3
39	39	1
27	109	2
17	18	1
119	119	2
144	149	1
92	92	4
95	122	1
7	7	2
100	100	1
158	158	1
82	82	1
35	36	2
47	94	2
36	36	2
0	0	2
94	94	5
106	111	4
48	48	3
140	157	2
157	158	2
138	138	3
140	140	3
102	103	3
127	127	5
24	72	4
62	69	1
101	145	1
168	168	2
65	65	1
44	44	1
15	93	2
57	57	1
51	52	2
11	170	1
1	139	1
12	161	1
44	45	6
114	114	1
19	73	2
98	154	1
1	2	1
50	50	1
17	41	2
80	81	1
89	121	3
96	124	1
91	92	1
14	49	1
44	148	1
42	137	1
13	41	1
96	96	1
139	141	1
74	145	1
11	101	1
111	111	1
129	129	1
160	160	2
108	108	2
14	15	1
2	2	1
53	53	1
91	162	1
151	151	1
142	142	3
90	91	1
2	56	1
99	100	1
78	150	1
40	160	3
127	129	1
49	148	1
100	160	1
78	79	1
90	101	1
94	113	1
47	132	1
8	8	1
52	53	1
148	152	1
91	144	1
84	87	1
144	144	1
26	85	1
13	51	1
76	101	1
146	147	1
6	7	1
12	13	1
149	166	2
148	148	1
88	101	1
34	121	1
16	17	3
105	110	1
15	40	1
135	149	1
11	12	1
153	157	1
