28	183	7
31	33	3
4	5	6
31	31	4
219	219	5
27	27	8
37	41	3
46	46	20
69	70	1
19	19	6
122	123	2
57	88	1
46	47	4
218	218	4
179	182	2
182	232	3
60	60	8
229	230	2
68	68	13
183	183	6
201	201	3
22	23	1
96	97	5
236	239	4
1	2	2
165	166	7
79	80	7
228	228	17
30	31	7
237	239	2
5	5	2
191	235	3
8	53	4
13	22	1
99	99	11
146	146	11
76	80	2
108	108	10
69	89	2
202	202	3
26	26	5
55	69	5
56	56	13
11	12	3
119	119	12
143	171	8
76	76	18
4	4	20
43	43	8
182	183	1
23	23	21
230	231	3
174	174	8
69	96	3
75	82	1
176	176	11
101	101	9
58	58	9
127	129	10
196	202	2
208	208	14
43	46	2
227	228	2
70	70	11
45	46	6
127	127	2
141	141	19
39	42	2
32	33	6
45	45	6
204	220	5
14	14	3
17	18	2
0	99	5
204	230	1
197	197	12
107	107	7
223	223	14
180	180	9
143	143	2
186	186	9
179	179	8
145	160	3
40	41	11
48	53	1
8	8	12
34	49	1
123	124	4
207	207	13
84	84	15
37	43	3
3	43	2
164	164	8
173	187	3
193	193	3
59	59	4
30	30	8
150	150	12
192	192	4
210	211	3
177	178	1
52	53	3
7	7	13
102	102	6
70	73	1
18	19	7
41	42	4
79	79	8
61	62	3
36	36	11
49	49	2
170	170	4
139	139	4
16	16	1
55	56	1
100	109	2
62	62	12
214	214	2
141	168	2
221	221	5
165	222	1
206	207	5
171	172	8
76	77	4
39	39	3
156	156	3
80	80	14
71	72	2
117	117	10
63	63	6
109	109	8
213	228	3
72	72	5
172	172	8
159	169	4
237	240	3
149	149	4
2	2	11
133	133	9
48	51	2
133	140	1
212	213	5
1	1	4
234	234	4
69	69	6
103	103	9
224	224	5
185	186	1
57	60	4
71	71	8
205	206	12
50	51	8
168	169	1
12	12	9
230	230	7
46	64	1
206	220	1
200	200	5
3	8	1
25	25	12
11	18	3
28	29	3
188	188	4
240	240	3
127	131	2
78	78	6
125	129	1
215	215	9
146	181	3
137	138	5
119	128	2
236	237	4
211	212	7
192	231	2
235	236	6
3	23	1
74	74	11
105	105	7
241	242	3
100	127	1
3	3	5
66	66	2
74	85	4
127	132	1
96	96	5
29	30	8
101	103	1
69	76	3
35	35	8
128	129	4
85	85	5
55	60	1
162	165	6
0	1	3
5	6	3
132	132	3
137	137	5
211	211	4
152	163	3
205	205	6
105	106	4
148	149	2
9	37	2
187	188	3
159	159	3
227	227	6
161	161	9
17	20	3
76	78	1
26	27	4
29	32	2
152	152	12
225	226	1
38	39	6
160	162	1
98	98	10
188	189	3
18	18	3
52	52	4
120	186	5
221	223	2
47	64	4
144	144	4
54	54	10
136	136	4
122	122	2
141	203	1
11	32	1
0	23	6
75	95	2
225	227	7
148	148	6
197	230	4
62	63	9
157	157	3
54	55	7
10	10	14
81	81	1
148	150	5
104	104	4
180	202	3
124	124	4
19	20	2
134	134	6
73	73	2
168	178	1
2	18	2
76	95	3
143	150	1
180	183	1
184	184	6
53	69	1
151	153	4
234	235	2
95	95	1
28	43	2
233	234	2
39	138	3
147	147	2
25	31	2
138	138	9
73	75	1
230	232	1
142	142	9
232	233	1
98	99	7
209	209	6
202	204	2
181	231	3
164	165	3
213	213	4
192	202	4
203	220	5
67	67	13
154	154	7
40	40	12
27	102	1
118	120	1
86	86	5
212	212	5
29	36	3
70	71	4
100	100	5
29	29	6
150	155	1
11	11	6
4	7	1
50	50	4
61	63	2
192	224	4
33	48	1
235	235	4
50	74	1
83	84	5
121	121	7
122	124	1
5	7	4
7	9	3
47	47	9
33	37	1
75	78	2
208	209	1
33	33	9
122	127	2
196	196	13
185	185	1
83	83	7
46	205	1
127	128	3
101	102	5
202	203	4
88	88	6
203	203	4
37	42	2
134	135	2
24	36	1
140	141	1
77	77	3
176	177	7
4	37	2
178	179	4
217	219	5
160	160	4
107	108	1
204	204	9
129	129	5
206	206	2
48	62	1
88	109	4
206	222	1
53	53	14
96	99	1
20	21	3
195	196	3
23	36	1
222	222	3
99	100	6
156	165	1
48	72	4
55	55	5
7	8	2
97	97	8
166	166	4
120	120	1
232	232	8
80	81	12
222	223	4
109	110	2
75	75	2
15	20	1
195	195	3
178	178	3
175	186	1
226	227	4
73	74	4
199	209	5
167	168	3
32	32	8
58	69	5
10	23	2
140	143	2
143	154	4
121	154	3
112	121	2
30	33	4
119	204	3
217	218	3
6	7	2
15	16	1
138	141	1
179	180	5
42	46	2
4	39	3
55	96	2
73	96	1
155	155	5
189	190	1
115	115	7
133	134	1
238	238	11
224	226	2
22	22	9
42	48	1
24	24	8
110	110	3
140	140	7
24	26	3
152	182	2
34	34	3
7	23	2
87	87	1
162	205	3
208	230	4
135	135	2
123	123	2
162	163	1
195	197	3
20	20	3
242	242	5
30	177	1
89	100	1
102	103	1
44	167	1
170	177	2
146	147	2
163	165	1
8	20	1
198	199	2
131	132	1
148	162	3
17	17	1
101	148	1
170	203	2
154	178	3
8	19	2
114	115	2
20	43	2
57	57	8
28	28	9
30	41	2
2	3	3
44	45	3
157	160	2
72	73	3
138	139	3
162	162	9
57	58	1
113	113	9
75	84	2
126	126	5
66	68	6
31	64	2
41	41	6
167	169	3
205	207	1
31	32	1
38	38	5
164	222	1
231	231	5
12	13	1
176	178	5
85	86	1
153	154	2
118	118	4
21	21	8
23	24	2
183	206	1
144	157	2
53	67	5
36	37	8
213	214	4
89	89	1
222	224	3
6	8	1
171	194	2
22	37	2
91	91	1
42	42	7
153	153	15
90	90	3
34	95	1
64	64	9
161	172	3
43	44	3
97	106	1
223	224	4
155	156	2
167	167	2
152	154	2
149	153	1
134	143	5
159	174	2
32	46	4
160	161	2
3	4	2
128	133	1
60	61	2
240	241	2
48	64	1
133	176	1
45	53	3
210	229	2
162	201	2
74	75	3
8	38	1
58	68	2
170	201	2
63	64	1
0	141	1
239	240	2
117	165	1
180	206	4
70	72	2
71	96	2
81	82	6
63	68	1
178	187	1
116	116	1
66	67	5
35	37	1
88	99	2
57	69	1
213	230	4
33	34	1
237	237	2
158	158	3
200	207	2
224	225	2
111	112	1
116	117	3
131	131	1
180	182	2
21	22	2
173	174	2
36	56	2
136	139	4
27	172	1
63	65	3
16	19	2
4	36	2
37	39	2
217	217	1
61	61	6
82	82	7
37	38	1
98	102	1
128	135	2
219	220	1
192	218	1
53	54	3
26	46	4
25	26	2
184	189	2
213	226	1
222	227	1
51	66	1
49	50	1
139	144	2
190	190	4
229	229	3
134	138	1
33	36	5
194	195	3
29	42	3
139	141	2
20	25	4
211	215	4
0	9	1
121	122	3
221	222	1
51	53	3
177	177	4
31	176	1
47	48	2
6	9	1
72	149	1
173	173	1
192	228	1
9	9	4
26	28	1
13	13	2
100	101	1
167	173	2
54	69	2
161	167	2
156	157	1
184	186	1
98	100	1
48	70	4
153	163	2
51	52	2
185	187	2
97	105	1
145	145	1
139	143	2
233	233	1
113	118	1
216	232	1
163	205	1
135	140	1
191	191	4
28	44	1
26	30	1
48	48	1
30	35	1
44	44	4
69	88	1
190	193	1
206	208	1
190	191	1
115	117	2
202	206	1
1	153	2
38	98	1
64	65	2
204	205	4
181	181	1
99	102	1
128	183	1
207	208	3
63	73	1
30	66	1
132	134	1
141	154	1
51	74	2
64	69	2
191	221	4
67	68	2
48	63	1
98	101	2
28	133	1
2	19	2
20	30	1
181	183	1
68	69	2
237	241	1
105	118	1
31	67	2
187	187	3
84	95	1
78	79	1
183	184	1
207	210	1
35	51	1
241	241	1
149	150	1
198	198	3
128	128	1
192	193	1
155	179	1
144	158	3
36	43	2
71	73	1
133	137	1
79	84	1
189	207	1
47	76	2
142	143	2
13	35	1
143	144	2
98	111	1
174	175	2
28	37	1
36	79	3
201	202	1
235	237	1
165	165	1
157	180	2
91	98	1
82	83	1
141	153	1
103	104	1
33	64	1
168	168	1
151	151	1
108	182	1
194	198	1
30	67	1
118	166	1
102	147	1
117	125	1
43	70	1
213	225	1
163	163	2
166	167	1
208	227	1
139	140	1
11	24	1
11	13	1
44	68	1
234	236	1
210	210	1
141	142	1
48	49	1
74	86	1
62	73	1
129	130	2
65	66	1
59	60	1
236	236	1
13	14	1
75	79	1
216	219	1
198	231	1
8	21	1
0	0	1
146	153	1
90	98	1
12	22	1
27	28	1
182	184	1
119	120	1
46	71	1
75	77	1
189	189	1
11	79	1
133	175	1
