86	87	6
83	84	3
116	116	20
126	126	11
113	117	1
33	34	9
125	125	9
127	128	9
72	72	8
36	43	4
89	89	14
95	95	7
101	101	13
121	123	2
45	45	10
90	90	11
67	67	12
23	23	13
121	121	17
110	117	4
102	102	6
128	129	8
74	75	2
63	63	25
52	53	5
120	121	6
86	86	4
124	124	11
83	83	3
35	35	5
3	5	2
119	119	13
4	13	4
120	120	13
34	34	5
2	2	17
71	71	11
18	18	9
130	130	17
59	60	5
72	73	1
111	117	3
50	50	18
77	77	8
62	62	12
68	68	8
27	27	10
119	120	4
113	113	16
70	70	11
61	62	2
89	90	8
129	129	15
105	105	11
29	29	10
60	60	9
61	64	1
80	80	14
22	22	12
9	11	1
28	28	4
31	32	6
12	17	2
59	78	7
93	93	13
118	118	8
55	55	3
112	112	16
106	114	1
99	100	5
107	111	1
12	13	6
58	58	4
123	123	11
97	97	22
12	16	1
105	125	1
59	134	5
96	96	8
124	125	5
52	52	6
114	114	10
91	91	11
79	123	4
32	34	5
84	85	4
2	3	1
16	16	6
55	67	3
57	57	2
114	125	4
117	117	11
134	134	16
65	66	8
104	105	2
70	71	3
112	113	5
127	127	9
104	104	14
66	68	3
96	111	1
122	122	5
63	65	7
133	134	2
65	70	3
2	5	2
30	30	12
42	42	3
31	31	7
96	97	3
33	33	8
78	78	4
129	133	2
21	21	11
102	103	2
56	57	2
81	95	3
63	64	2
89	102	1
101	124	2
79	79	5
76	76	6
108	108	3
106	106	12
0	0	7
61	61	13
86	88	4
69	69	8
37	37	6
87	87	12
77	79	3
99	99	9
130	131	2
60	61	2
8	8	6
111	112	5
11	14	1
26	26	12
126	127	6
34	36	2
48	77	5
83	100	2
27	28	3
11	11	5
64	128	2
5	5	7
18	22	4
88	88	4
115	115	13
8	9	2
93	94	6
49	49	3
82	82	10
132	132	9
82	84	3
100	100	8
73	73	6
83	86	2
53	53	6
92	92	10
6	6	5
81	83	3
47	47	3
24	25	3
74	91	3
98	98	8
75	75	12
67	68	5
92	93	5
55	58	1
59	59	5
105	111	1
97	98	4
114	115	2
15	15	8
128	128	14
90	126	2
94	94	11
65	65	3
23	26	1
83	87	2
22	23	1
81	99	2
49	50	3
108	109	4
105	116	1
46	46	2
125	127	1
77	91	3
9	9	5
19	20	2
17	17	1
115	125	2
78	79	3
51	52	2
108	110	1
20	20	11
110	111	2
14	64	2
78	80	1
73	74	6
1	3	1
119	121	1
64	64	2
88	106	4
98	100	2
7	7	3
43	43	6
12	14	4
94	95	6
88	89	2
19	19	5
76	77	5
103	104	10
107	110	3
84	84	4
91	92	3
11	17	1
111	111	15
4	5	3
118	123	1
81	81	10
45	59	1
95	127	1
66	67	1
96	116	3
44	46	1
71	80	2
85	85	5
64	65	3
32	32	2
71	92	1
44	44	4
54	54	2
77	78	1
133	133	7
122	123	2
90	91	6
3	13	1
120	130	1
82	83	4
90	127	1
135	135	5
57	59	1
10	10	4
109	110	2
109	117	1
46	47	2
111	116	1
85	86	1
65	68	2
53	81	1
107	107	6
113	115	3
15	16	4
5	6	4
115	116	2
131	132	2
24	24	6
14	15	5
28	30	2
13	17	2
84	86	3
118	119	2
47	55	1
79	81	3
13	13	12
103	103	8
6	7	3
75	76	2
33	35	2
10	15	3
10	11	2
109	109	4
131	131	3
110	110	2
75	94	1
58	79	1
76	78	1
68	69	2
115	120	1
26	27	5
76	99	5
36	42	1
95	98	1
10	16	1
25	25	11
93	102	3
48	48	1
123	124	6
107	108	2
93	104	1
117	118	2
66	66	1
119	122	1
20	21	1
74	74	3
60	62	1
82	85	2
116	117	2
3	3	4
54	100	1
62	63	3
27	29	2
45	47	1
30	31	2
71	73	1
121	122	3
14	14	1
106	111	1
71	72	1
82	99	1
23	24	2
35	36	1
1	8	1
69	70	1
61	63	1
9	10	2
130	133	2
34	35	2
105	112	1
53	54	4
87	88	1
58	59	1
106	107	1
0	1	1
28	29	1
79	80	1
16	19	4
85	87	2
12	12	3
62	82	1
107	109	1
84	88	1
54	55	1
104	114	1
71	91	1
36	36	1
121	130	1
73	75	1
113	126	1
56	56	1
18	21	1
132	133	1
25	26	2
105	123	1
43	44	1
49	93	1
82	86	1
19	26	1
56	58	1
98	99	1
