7	7	14
46	46	12
4	7	1
142	142	9
9	45	2
16	16	10
27	28	13
127	128	2
76	76	7
40	54	5
5	6	14
113	124	3
122	127	4
36	76	5
136	139	6
63	64	7
145	145	9
109	109	9
104	131	2
74	74	6
86	86	10
140	140	1
63	150	4
137	138	11
96	97	5
5	7	2
116	116	15
104	138	10
77	77	2
43	43	12
68	69	6
14	14	10
118	118	12
83	83	12
41	44	4
17	18	7
108	109	6
68	98	2
120	121	4
131	131	8
81	81	11
3	3	6
153	153	9
4	145	4
45	45	5
70	70	11
35	36	3
47	47	12
72	72	8
68	68	6
35	35	17
66	67	2
7	8	2
125	126	8
111	111	7
79	79	10
40	40	6
10	10	6
84	84	10
34	91	1
24	25	3
104	104	6
67	67	7
69	72	5
30	30	18
75	75	13
39	39	13
13	13	7
99	99	16
50	51	4
48	48	1
69	69	7
114	122	4
108	108	15
51	51	4
85	85	8
154	154	4
149	150	5
121	121	1
4	5	5
86	87	1
138	138	7
111	127	3
97	99	1
14	19	3
96	96	10
49	124	2
94	94	4
115	115	8
19	20	2
48	49	1
11	11	17
110	110	13
49	50	3
10	12	2
36	38	6
71	73	4
40	47	1
12	13	3
152	152	4
71	71	4
120	145	1
32	33	2
42	43	14
105	105	5
123	125	4
82	82	7
9	9	9
33	33	8
114	114	7
100	102	10
130	130	13
129	130	6
117	117	9
26	30	1
20	23	3
6	6	1
15	15	13
80	84	5
52	75	2
13	57	2
119	123	1
121	122	2
78	79	9
147	147	8
134	134	6
42	42	4
128	143	5
27	27	10
123	123	2
125	125	5
150	151	3
45	56	6
22	22	8
28	29	6
112	112	6
31	31	15
106	106	2
115	148	3
42	46	2
53	53	15
152	153	9
26	26	14
20	107	3
80	81	6
38	38	6
80	82	4
41	42	5
55	79	3
95	95	10
13	15	1
73	75	3
103	118	1
22	23	4
25	26	1
114	117	1
54	54	5
25	29	1
151	151	2
91	92	3
65	66	2
23	41	1
74	77	3
141	141	11
150	150	6
144	146	10
20	20	1
97	98	1
12	12	8
10	13	1
58	58	1
139	144	3
128	129	6
90	90	5
88	88	5
5	5	25
100	104	4
28	28	2
113	113	4
78	78	3
65	67	3
30	33	1
137	143	3
40	42	2
36	36	8
35	131	2
93	94	7
24	24	2
107	107	4
44	44	17
103	114	2
23	26	3
113	114	4
36	104	1
111	115	1
35	115	6
4	6	2
18	18	6
39	40	5
51	54	3
33	34	8
107	151	2
94	96	4
10	11	2
103	103	9
65	65	3
76	79	5
92	93	2
115	116	1
98	98	18
87	88	6
46	48	2
34	34	3
17	17	5
53	130	3
29	29	12
55	55	7
21	22	2
49	49	1
120	132	5
75	76	2
115	150	3
34	36	4
4	4	9
5	148	1
97	97	6
144	144	5
64	64	9
21	23	1
8	8	3
101	109	1
123	124	7
141	142	2
50	50	4
4	8	1
124	124	5
142	143	4
72	73	4
145	146	6
14	25	2
64	65	2
83	84	1
103	104	1
42	56	2
22	33	1
118	135	1
109	138	2
113	115	2
13	14	4
11	12	2
16	17	1
8	107	2
121	125	1
31	32	2
148	148	2
82	83	4
19	19	6
102	128	3
119	119	2
78	112	2
26	27	3
46	47	1
19	73	2
119	149	2
38	43	1
107	150	3
120	120	4
143	144	1
92	154	3
17	53	2
100	128	1
139	139	6
80	80	2
135	135	4
117	118	2
139	146	1
66	72	2
31	43	2
25	25	3
57	57	7
44	45	1
129	142	4
128	130	1
66	66	1
8	44	2
103	127	1
125	143	1
115	152	2
11	17	2
146	146	6
41	41	3
15	17	3
51	112	2
21	21	3
23	23	1
22	151	2
37	37	6
149	149	2
87	92	1
99	100	2
98	99	2
101	110	2
30	44	1
77	78	2
88	102	1
24	44	1
17	109	2
21	24	1
125	145	2
19	152	2
133	133	3
85	86	3
107	114	1
72	82	2
37	38	2
130	140	1
55	56	2
87	87	3
26	29	1
48	53	1
100	105	2
147	148	4
43	51	2
116	125	2
100	101	2
92	94	3
2	30	2
33	50	1
87	105	1
24	41	1
11	14	1
127	127	1
132	132	4
141	149	2
90	106	1
3	4	3
102	150	2
15	22	1
6	57	1
129	140	1
93	93	3
130	139	2
134	141	1
136	138	1
136	136	4
73	73	3
39	57	3
4	112	2
89	90	2
79	83	1
122	123	1
126	126	1
13	25	2
35	37	1
102	102	2
120	124	2
63	63	1
71	79	4
89	89	1
36	81	2
110	114	2
37	39	1
52	52	1
12	20	1
62	63	3
78	81	1
126	127	3
128	145	1
124	125	1
103	126	1
62	81	1
130	134	1
47	116	2
18	53	1
81	83	1
24	29	1
25	32	1
32	51	1
105	110	1
43	81	1
43	44	1
