25	25	5
72	73	4
60	60	6
72	72	3
104	105	3
127	128	1
118	118	5
79	79	9
128	128	2
77	77	3
71	71	10
30	30	4
66	69	3
127	127	3
123	123	10
99	100	1
81	119	2
8	8	7
26	26	8
71	72	5
20	20	2
68	68	1
67	67	2
132	132	6
9	10	1
22	23	2
101	132	1
108	109	6
122	122	2
101	105	1
84	84	8
15	15	2
12	12	8
77	79	2
87	87	4
45	45	8
4	30	1
56	57	5
93	102	2
91	101	1
34	34	6
115	115	9
82	82	6
87	88	1
112	112	1
106	106	3
82	117	3
127	133	2
36	36	6
37	37	4
6	52	5
109	109	4
78	78	2
54	54	4
111	134	1
115	134	1
66	114	3
112	113	2
128	129	2
98	98	7
16	16	1
112	115	1
101	101	1
80	80	8
129	129	7
61	61	4
3	3	1
78	109	2
70	70	9
125	125	2
111	115	2
2	4	4
53	53	3
106	108	1
102	102	2
21	21	1
133	134	1
29	90	4
93	93	6
83	83	3
64	64	7
105	105	4
113	131	1
119	119	5
122	123	2
14	14	2
101	114	2
62	62	2
93	94	2
1	1	2
51	52	2
4	4	1
28	29	4
63	64	4
77	78	5
63	88	2
106	107	3
7	7	5
84	85	2
103	103	1
112	118	2
23	23	2
31	31	3
25	56	1
71	89	3
116	117	2
71	117	2
108	108	3
12	23	3
58	58	4
130	131	3
62	115	2
114	115	2
85	85	2
79	80	1
100	129	1
92	92	4
104	104	7
27	31	3
44	87	2
55	55	1
44	45	1
134	134	3
12	13	3
107	132	1
64	117	2
63	63	3
124	125	1
111	111	2
89	90	3
59	60	4
11	11	2
74	75	3
123	130	2
131	131	3
27	27	2
90	90	2
66	67	1
38	54	2
88	88	1
94	94	5
110	110	4
55	56	1
0	5	1
24	24	1
106	110	2
0	1	3
116	131	1
119	121	2
116	116	1
33	33	1
77	113	6
74	74	5
91	91	2
65	65	2
86	86	2
124	126	1
9	13	5
18	18	1
11	12	1
43	43	1
105	112	1
6	6	2
119	120	2
97	100	2
75	75	2
57	58	1
52	52	3
63	115	1
85	86	2
57	57	2
110	131	1
43	87	1
66	68	2
5	5	1
45	51	1
121	123	1
60	62	2
16	18	1
84	86	3
54	58	1
126	126	5
63	65	1
130	130	2
116	121	2
99	120	1
115	131	1
134	135	2
35	35	1
117	117	1
33	34	1
29	29	1
25	26	2
66	66	1
76	76	2
48	51	1
73	103	1
117	118	1
104	135	2
99	99	1
7	11	1
0	0	2
111	130	1
115	117	1
133	133	1
59	59	1
120	120	1
121	121	1
