12	70	6
5	5	8
102	102	14
7	26	1
93	102	3
119	122	5
42	43	2
55	56	3
126	127	4
9	9	4
128	129	11
104	104	22
108	108	7
2	2	8
113	114	5
17	17	5
123	123	5
56	56	4
122	122	7
79	92	11
29	29	15
31	32	2
28	28	6
98	98	13
76	76	13
81	82	7
63	63	7
1	3	1
94	94	11
4	4	9
71	71	9
114	114	6
62	62	4
104	105	1
38	38	2
113	113	9
45	45	10
7	8	3
24	25	7
62	63	6
21	23	1
116	116	9
22	27	3
59	60	1
92	92	19
31	31	6
55	55	4
127	135	4
66	67	7
95	117	1
98	101	2
129	129	13
26	26	4
77	79	4
99	101	2
50	51	2
133	133	5
14	26	1
83	84	3
93	93	12
121	121	17
111	111	2
33	47	1
97	98	5
52	53	10
74	75	6
115	115	11
120	120	14
98	104	3
80	81	1
72	72	9
27	28	1
90	90	14
30	30	11
21	21	4
131	131	3
77	78	8
82	82	1
71	72	3
124	134	4
80	80	11
65	69	2
129	130	6
81	81	4
130	131	2
69	69	1
48	48	3
65	67	1
27	27	2
32	34	3
87	116	4
109	111	5
16	17	4
86	86	10
103	103	14
64	64	5
73	74	4
99	122	1
52	59	2
124	124	7
111	121	1
86	92	3
30	31	1
20	21	4
53	54	3
125	125	13
64	65	3
21	26	1
116	117	6
106	106	3
84	86	1
16	16	5
84	84	7
110	121	1
5	79	2
99	99	10
114	115	5
68	71	4
98	99	3
14	25	2
91	92	4
88	89	2
24	24	2
128	128	9
7	7	6
43	43	8
94	95	3
22	29	4
97	100	1
12	12	2
13	15	3
83	83	6
54	54	5
58	58	6
61	61	2
77	95	5
127	127	11
103	112	2
35	35	1
132	132	7
65	65	3
8	10	4
70	70	12
124	125	2
3	4	4
105	106	2
126	126	13
50	52	3
50	50	5
112	113	3
14	14	11
105	105	16
117	117	15
134	135	9
59	59	4
75	87	2
77	77	12
85	85	2
129	131	4
87	107	4
96	96	5
78	78	13
53	55	7
78	79	8
72	74	1
108	109	4
6	6	9
101	113	2
73	73	10
11	23	3
49	54	2
11	11	5
3	3	4
79	79	3
23	23	6
108	112	1
96	106	1
53	53	6
6	7	4
79	103	1
76	77	8
118	121	3
22	24	4
119	121	3
123	124	5
91	91	10
85	133	1
111	113	2
25	25	8
81	84	2
121	123	1
79	102	3
101	103	3
107	107	6
109	109	3
110	110	1
75	75	3
130	130	4
61	62	4
88	88	2
109	122	1
65	89	1
119	119	11
93	99	1
125	126	1
12	34	3
44	44	2
11	33	4
107	109	1
23	24	3
56	57	4
57	58	2
68	68	3
90	120	6
15	15	8
100	100	11
94	98	3
80	104	7
22	22	5
130	132	2
13	13	6
101	101	1
24	26	1
60	60	8
134	134	11
86	91	3
8	43	4
67	67	10
0	0	1
87	88	2
25	26	1
80	105	4
18	19	1
129	133	2
115	116	2
20	20	5
72	79	2
10	10	2
37	38	2
102	103	4
14	52	2
111	129	3
60	61	2
91	100	1
74	74	5
135	135	1
117	122	2
123	133	1
75	76	1
132	133	4
76	103	3
13	29	3
5	43	2
32	33	2
89	121	3
112	112	1
20	79	1
131	132	4
78	82	1
34	35	3
62	69	2
80	82	1
70	74	1
66	66	7
11	24	1
33	35	2
1	1	1
64	85	1
97	97	1
133	134	2
11	15	3
44	45	2
87	106	1
5	71	1
32	32	2
77	114	1
57	57	4
121	122	5
12	13	3
30	50	2
119	120	2
126	129	4
60	96	1
120	122	1
128	133	4
34	34	2
127	128	2
33	33	1
115	132	1
17	19	1
98	119	2
27	32	1
118	118	1
47	47	5
62	64	2
102	112	2
88	121	1
87	87	2
22	23	1
25	33	3
125	129	2
68	69	1
68	77	2
21	27	1
90	111	2
37	37	3
89	103	1
38	39	1
0	1	2
103	104	1
93	94	1
45	46	1
46	46	1
13	14	2
108	110	2
8	8	1
68	115	2
4	5	1
9	10	1
29	31	1
120	121	2
123	125	1
65	66	1
50	55	1
32	105	1
7	11	1
80	87	1
14	29	1
104	121	1
25	83	1
35	36	2
10	11	1
99	129	1
114	126	1
111	115	1
5	6	1
79	80	2
80	93	1
125	131	1
36	36	1
89	89	1
85	86	1
67	69	1
0	42	1
83	108	1
131	133	1
91	120	1
