22	23	9
76	83	3
49	99	3
101	106	1
136	136	26
56	56	15
99	99	9
57	57	8
15	15	17
154	154	6
23	24	7
103	103	8
53	54	16
17	25	2
128	128	13
121	121	9
26	165	2
132	132	16
0	0	15
57	151	2
2	2	18
53	53	18
137	137	4
153	153	19
113	113	11
86	86	7
151	151	7
49	50	7
142	144	4
152	153	5
45	57	5
53	55	3
10	10	8
90	90	17
166	166	8
146	146	9
52	52	23
83	83	12
168	168	15
67	68	4
8	8	17
149	149	12
157	158	3
138	138	9
24	25	11
25	25	21
72	74	4
27	27	10
16	16	20
167	168	3
44	45	4
13	15	7
8	9	11
20	20	17
101	102	1
143	162	1
167	167	14
104	105	3
50	50	10
85	88	2
152	154	5
122	123	5
18	18	10
117	117	13
15	16	2
50	51	2
150	150	15
125	126	8
24	24	9
156	161	6
87	88	2
14	15	7
137	139	10
148	148	24
116	116	12
147	147	20
169	169	9
108	121	3
69	107	4
71	72	5
87	87	10
20	22	3
47	48	4
41	46	2
119	119	10
6	92	5
124	148	2
116	117	7
77	83	2
85	90	2
154	157	5
111	111	11
112	119	11
108	108	18
62	62	10
109	109	11
21	28	2
121	122	10
84	84	6
4	22	2
110	110	19
156	156	5
155	155	4
37	37	18
130	151	2
37	38	6
4	4	14
98	98	4
152	152	10
5	5	20
110	111	5
80	80	8
160	160	9
136	147	1
1	1	13
144	145	7
22	25	4
123	125	4
14	14	22
21	23	13
75	75	4
141	141	5
54	165	2
151	152	3
143	143	6
169	170	9
20	21	12
35	35	11
146	151	2
56	71	3
47	94	2
158	158	5
110	113	1
63	63	6
125	125	10
71	80	3
12	13	5
7	8	6
11	11	14
120	121	3
164	164	6
82	82	13
112	122	3
22	22	13
96	96	3
46	46	17
73	73	10
105	105	10
102	102	11
91	91	4
142	142	9
85	85	9
62	150	4
7	7	17
113	114	6
72	72	8
135	135	8
64	65	3
77	77	16
120	120	12
62	63	4
45	45	9
5	6	13
43	43	17
115	116	3
49	113	4
159	159	6
26	26	14
123	123	6
36	36	11
54	144	4
115	119	4
45	52	2
23	23	16
157	157	9
118	121	1
21	21	12
6	7	15
69	69	16
19	24	1
79	79	2
38	39	1
144	144	8
165	165	4
124	124	6
52	57	4
21	22	17
146	148	2
102	103	7
28	28	15
51	51	9
140	140	8
71	84	3
145	145	10
45	53	2
129	129	10
106	106	6
66	68	5
81	81	6
48	48	12
134	134	15
65	65	1
26	27	1
46	50	3
13	13	3
115	115	7
77	79	4
156	164	2
13	94	2
155	165	1
165	167	3
27	54	4
95	119	2
64	64	14
118	118	6
91	95	1
143	155	1
133	134	5
88	88	2
42	44	1
47	47	7
66	66	3
1	3	2
92	93	6
91	94	2
92	92	9
20	24	3
9	10	10
7	17	4
131	131	12
33	33	7
39	40	8
41	41	13
73	74	2
11	12	5
82	83	1
9	9	15
105	113	3
148	149	5
71	88	2
142	146	1
105	106	7
138	139	3
68	68	11
103	104	13
117	123	3
114	116	3
77	78	3
55	56	8
116	119	3
124	125	1
1	5	2
50	62	3
113	135	2
107	121	2
35	36	4
10	15	2
112	115	1
107	107	15
100	100	8
75	81	1
3	3	15
64	66	3
93	93	3
19	19	4
88	89	2
78	79	3
52	54	1
164	167	1
133	135	1
83	84	5
143	163	1
92	97	4
52	53	4
34	34	6
156	157	4
163	164	8
79	80	6
14	23	6
23	25	2
17	18	6
49	62	4
159	160	2
135	140	4
70	70	5
100	101	4
136	140	3
110	112	3
34	35	9
156	162	5
106	121	4
149	153	4
145	147	3
101	103	2
43	44	2
49	49	11
119	120	9
8	10	3
145	154	2
97	98	3
36	37	5
86	89	1
114	117	2
40	41	2
73	85	1
162	162	10
130	131	5
114	134	1
54	54	9
114	119	2
107	109	5
117	126	3
44	44	8
137	164	2
63	64	2
162	163	7
76	77	2
52	136	4
39	41	1
42	43	1
38	38	7
1	17	2
12	16	1
141	142	6
40	40	7
134	135	2
129	134	1
154	155	3
101	101	7
42	42	4
46	140	2
164	166	1
93	108	2
32	33	5
1	2	5
130	130	8
122	122	11
86	87	2
70	72	1
5	7	2
84	85	5
115	145	2
39	39	3
46	48	3
156	159	1
138	166	2
12	12	7
26	55	1
146	147	4
67	67	5
71	71	7
39	85	3
45	64	3
4	5	3
54	55	8
85	86	3
39	89	3
151	153	2
93	94	1
6	24	3
27	28	1
146	163	2
55	55	3
78	78	2
94	94	8
8	27	1
165	166	2
139	141	3
70	108	1
93	120	3
125	127	2
126	127	6
162	169	1
48	98	2
164	165	1
126	126	3
41	42	2
51	58	1
16	17	4
17	17	12
144	146	2
114	114	9
47	137	2
101	105	1
162	165	3
114	115	1
97	97	6
143	164	1
89	90	4
48	49	5
76	76	9
132	165	2
47	95	2
2	3	2
137	138	1
115	127	1
104	104	7
57	58	4
47	52	3
128	129	3
109	110	7
74	75	5
11	18	2
27	34	2
137	168	5
72	73	4
118	119	1
146	150	2
114	118	2
67	69	1
119	122	2
151	154	1
142	155	1
95	97	5
147	148	4
46	49	1
114	129	1
96	98	3
106	112	2
8	16	1
53	56	1
118	127	2
124	149	1
18	19	1
69	108	2
128	147	1
76	81	2
11	119	2
7	10	2
124	147	2
124	146	2
0	15	1
54	57	2
45	50	2
107	108	2
47	51	1
139	140	4
74	74	4
170	170	4
130	143	4
40	47	2
69	71	2
153	166	2
8	21	1
10	12	1
128	149	1
3	4	3
108	122	1
7	24	1
85	89	1
6	6	4
6	25	1
139	139	4
81	82	1
161	162	4
49	57	1
93	99	1
13	14	2
3	21	3
17	26	2
133	133	7
156	160	2
68	70	2
70	79	1
91	93	3
161	161	3
132	164	1
112	112	6
129	130	2
2	6	2
102	104	2
137	140	2
113	115	1
64	126	3
64	68	1
49	52	2
61	62	1
48	94	1
168	170	1
7	158	1
120	123	3
37	43	1
25	56	1
138	165	3
40	45	3
140	141	2
109	112	3
76	79	1
142	143	3
10	13	2
104	130	1
132	133	1
63	69	1
13	16	2
9	11	2
113	129	3
45	49	1
163	165	1
130	154	1
0	1	1
161	166	1
69	70	1
5	23	1
128	140	1
10	23	1
46	51	1
57	72	1
56	97	1
66	67	1
43	53	2
127	128	2
90	91	2
141	154	1
25	146	1
6	12	1
32	35	1
25	27	1
20	23	1
46	47	1
158	159	1
58	58	1
90	93	1
65	75	1
113	119	2
130	152	1
106	132	1
36	89	2
129	132	1
129	148	1
33	34	2
26	42	1
4	13	1
42	85	1
47	49	1
73	84	1
46	56	1
19	20	1
149	151	1
5	15	1
26	166	1
108	109	1
55	98	1
40	58	1
71	89	1
160	161	1
7	102	1
123	124	1
131	132	1
111	112	1
106	107	1
160	168	1
95	95	1
6	42	1
9	103	1
