33	33	9
119	120	4
2	4	1
122	123	9
77	77	7
118	118	17
110	110	11
133	133	17
111	112	4
116	116	13
136	136	13
75	75	21
2	3	8
74	74	16
105	106	3
97	98	2
121	124	4
81	81	6
71	71	6
80	80	9
21	21	9
88	88	6
126	127	6
130	130	20
135	135	12
17	18	2
100	100	10
15	22	3
140	140	18
110	111	10
4	4	10
111	111	12
78	79	6
89	89	14
134	135	11
34	34	10
101	118	4
16	16	5
121	121	5
109	109	19
124	124	19
76	77	1
7	7	2
37	37	13
115	116	8
104	114	2
38	38	9
71	86	2
101	108	4
93	93	22
132	132	33
127	128	12
15	18	7
128	128	21
97	97	7
136	137	3
78	78	20
87	107	2
122	122	15
120	120	13
73	138	8
73	74	11
87	87	8
7	10	2
128	129	18
113	113	8
84	85	6
90	90	7
99	99	7
32	33	1
31	31	8
117	117	21
136	138	4
98	98	9
127	127	15
138	138	13
86	109	1
96	96	4
132	133	2
129	130	14
18	19	10
134	134	28
124	125	11
10	11	4
88	125	6
22	22	5
115	115	7
2	2	5
26	28	5
121	122	19
124	126	6
15	16	1
77	78	2
112	122	4
104	105	8
5	5	9
11	12	1
104	112	4
115	118	3
18	33	2
19	19	6
36	36	9
81	82	3
8	23	1
12	12	5
129	129	17
8	8	4
92	93	6
12	13	4
108	108	10
89	100	1
16	18	1
84	86	4
101	102	4
112	112	9
123	123	15
35	35	8
139	139	11
126	126	26
34	35	3
125	125	17
112	114	1
72	72	6
72	138	2
94	94	11
28	29	2
114	114	13
137	137	12
96	98	2
88	102	2
83	83	9
86	87	1
1	1	4
96	97	4
30	31	5
118	119	6
8	9	4
20	22	2
85	85	12
95	115	7
20	21	1
121	123	1
31	32	1
36	38	4
9	9	6
32	32	9
90	91	6
86	96	3
84	84	3
30	106	9
107	107	4
115	117	4
102	120	8
112	132	2
86	86	6
116	117	3
100	101	2
109	124	4
94	95	2
13	13	2
15	17	4
88	116	1
95	96	2
91	125	6
116	118	4
75	111	2
27	109	3
7	8	2
28	28	10
107	108	4
125	129	1
114	132	1
71	75	1
95	95	4
3	15	2
101	101	3
111	124	1
8	10	1
5	6	5
75	125	1
18	18	4
14	14	2
101	124	2
117	118	3
97	136	1
120	122	3
106	107	5
104	106	2
108	110	2
109	110	3
15	15	1
84	100	3
131	131	12
1	13	1
95	125	2
104	117	4
30	30	2
91	129	1
25	123	1
134	136	7
138	139	3
125	126	2
112	113	3
0	0	3
95	117	2
88	89	5
76	83	1
106	106	6
11	11	2
105	105	4
91	124	1
24	25	3
5	123	1
29	29	3
130	131	6
89	90	5
29	30	1
72	73	6
23	24	1
1	2	5
133	134	1
98	100	4
74	75	1
82	86	2
113	114	7
38	92	2
3	17	2
71	77	2
84	125	2
137	138	5
91	94	4
93	94	5
119	119	2
91	91	4
75	110	1
79	84	2
100	111	1
77	80	3
75	76	3
110	123	1
104	104	4
3	5	1
71	79	1
114	117	1
17	19	1
4	5	1
92	92	1
5	11	2
100	124	1
71	72	2
82	83	3
88	90	2
6	6	7
135	136	2
96	106	2
103	103	4
120	121	1
79	79	5
103	119	2
95	126	1
103	104	3
97	108	1
75	127	1
83	84	2
99	111	3
103	105	1
20	20	2
94	125	1
82	82	4
28	32	1
139	140	1
91	92	2
112	117	1
78	84	1
30	32	1
22	24	1
112	115	1
107	113	1
12	15	2
13	14	2
21	32	1
26	27	1
102	104	1
99	100	1
38	93	2
95	116	1
87	108	1
113	117	3
5	24	2
6	14	1
82	85	1
26	26	1
99	135	2
4	15	1
113	122	2
35	36	1
10	10	1
12	21	1
134	138	1
76	76	1
131	132	1
102	121	1
120	123	2
86	120	1
32	93	1
23	23	1
85	125	1
79	83	1
129	140	1
109	112	2
37	38	2
71	83	1
9	11	1
131	134	1
104	118	1
111	137	1
112	118	1
119	122	1
108	113	1
89	91	1
91	95	1
