14	14	4
72	72	7
54	54	7
53	53	7
42	42	5
182	182	2
12	18	2
130	131	7
102	102	5
72	75	3
188	188	4
141	142	10
166	168	3
36	36	2
85	85	13
77	120	2
80	80	2
9	11	4
144	144	5
71	76	2
55	56	7
148	163	2
182	183	7
37	37	5
16	18	4
12	52	1
4	4	2
24	53	5
157	157	3
65	65	5
106	106	11
63	63	4
34	35	3
146	146	4
122	122	5
101	101	4
105	107	2
62	156	2
12	13	2
32	33	3
127	128	2
80	152	3
31	31	12
158	158	1
127	127	1
145	146	4
89	89	2
75	111	3
77	77	8
138	138	5
58	146	1
140	154	4
76	110	1
16	17	1
173	173	4
155	155	7
24	24	4
163	163	4
75	75	10
34	34	3
0	93	3
11	18	4
175	175	8
66	66	2
65	98	2
115	115	3
83	91	2
115	116	5
179	179	2
39	39	3
43	46	2
89	91	6
82	82	1
67	68	1
38	38	6
41	41	3
52	53	5
78	136	5
83	121	4
22	43	1
81	121	4
111	113	4
95	95	4
48	49	1
150	150	7
149	149	4
82	83	3
24	112	2
16	16	8
86	86	7
87	87	6
147	147	3
26	30	3
3	3	3
123	123	8
107	107	1
84	85	9
3	4	1
64	64	1
88	88	3
162	163	1
40	40	9
87	139	3
45	45	6
155	164	1
23	23	11
138	139	3
81	82	3
175	176	5
93	93	1
53	111	1
89	97	4
108	123	3
27	30	7
25	26	1
3	25	2
177	178	3
160	160	2
135	136	3
37	43	2
46	46	3
66	67	2
165	165	5
146	147	5
156	156	9
91	91	5
113	113	9
36	37	2
109	110	7
28	28	2
56	56	2
134	135	2
44	48	4
47	47	6
9	9	1
81	81	3
53	59	6
179	180	2
22	36	1
164	164	4
100	100	7
19	19	5
42	70	3
28	30	4
67	67	7
153	153	7
44	44	3
140	140	5
121	122	1
99	100	3
13	13	11
185	185	5
152	152	9
126	126	7
141	141	3
146	149	1
11	11	3
130	130	2
10	10	4
20	20	3
78	79	6
109	124	3
165	166	1
112	112	5
104	107	1
156	157	1
43	44	3
104	104	5
121	121	3
6	29	1
40	93	4
152	154	2
82	128	1
136	136	3
108	111	1
17	30	3
23	24	3
1	1	5
32	32	3
113	114	2
78	78	3
91	99	1
10	19	1
35	36	3
154	154	7
18	18	1
74	74	8
124	151	3
145	145	1
62	63	3
99	99	3
58	58	3
21	21	4
56	109	2
54	55	2
55	55	3
72	122	1
148	155	2
30	31	4
83	107	1
177	177	3
17	18	1
84	88	3
157	158	6
105	126	2
157	162	2
19	20	2
2	4	1
135	135	6
4	8	1
171	174	2
129	132	1
70	71	2
110	110	4
90	90	2
66	97	2
23	43	1
62	62	5
140	141	2
15	16	3
61	133	2
120	122	3
133	135	1
61	61	5
117	117	1
48	48	4
101	102	1
172	172	3
106	112	2
144	154	1
66	98	3
71	74	1
89	140	1
111	111	4
142	142	4
71	71	4
164	165	2
92	92	3
101	162	1
134	134	2
190	190	2
2	2	6
125	125	6
24	25	1
54	121	2
123	124	2
21	46	1
1	72	1
60	146	2
64	65	2
21	23	1
133	133	3
108	108	5
66	173	1
98	98	2
71	72	1
148	149	6
114	115	3
147	153	1
151	151	1
79	79	3
186	186	2
37	38	1
132	137	1
29	29	1
174	175	2
53	54	1
108	113	1
139	139	3
141	143	1
184	188	1
144	145	1
145	148	1
56	108	1
131	131	1
0	185	1
77	106	1
92	93	1
8	8	5
124	124	1
57	120	3
118	119	1
2	48	1
89	90	1
166	166	1
148	148	1
44	46	2
45	46	1
64	71	1
66	70	1
23	48	1
103	103	3
101	117	2
60	72	1
127	129	1
183	184	1
83	83	1
28	29	1
74	76	1
53	58	2
70	70	1
157	161	4
170	170	1
73	73	1
68	68	1
27	27	1
37	112	1
5	5	2
22	42	1
111	112	2
52	52	1
130	134	1
160	163	1
55	108	1
96	97	1
59	154	1
185	186	1
133	146	1
119	120	1
187	190	2
165	171	1
159	180	1
149	162	1
120	120	1
138	143	1
89	98	1
173	174	1
29	31	1
109	109	1
176	178	1
75	76	1
98	140	1
74	79	1
29	30	1
9	10	1
118	118	1
76	76	1
