59	59	14
22	22	18
14	14	4
21	45	2
23	23	10
13	13	8
27	28	4
2	3	12
72	72	6
29	29	20
6	7	5
12	12	5
4	4	10
10	10	9
65	66	3
56	56	10
47	60	2
1	1	11
71	72	4
8	8	21
7	10	3
50	51	3
48	48	4
45	45	7
49	49	6
24	24	7
19	19	20
9	9	21
47	49	2
43	43	8
48	61	3
21	21	18
0	0	8
35	35	13
42	42	4
18	18	5
69	69	16
2	2	16
6	6	11
66	66	6
18	19	7
76	76	3
11	11	8
33	62	1
73	73	11
48	51	3
36	37	6
68	68	12
32	32	5
33	33	15
39	39	8
32	33	5
62	62	10
61	61	10
23	24	4
24	25	2
34	40	1
57	57	9
74	74	4
58	58	3
67	67	12
67	69	1
41	41	8
1	2	1
56	57	8
23	57	3
54	67	3
3	3	3
55	55	2
23	40	4
55	69	3
10	11	25
22	23	6
66	67	3
41	42	1
30	31	1
61	62	2
36	52	2
26	29	2
69	73	2
39	40	3
48	64	2
47	48	5
50	68	4
53	53	15
34	35	3
38	39	1
33	34	6
44	44	10
28	28	14
65	73	3
43	44	5
63	65	1
32	37	1
41	43	5
47	47	7
54	56	4
38	40	4
46	47	6
54	55	5
71	71	8
62	63	3
65	65	5
68	69	2
30	32	1
74	75	5
42	43	3
2	10	2
52	65	3
60	60	9
20	20	6
22	56	1
40	41	6
31	32	1
20	21	10
75	76	3
46	46	14
46	61	1
63	63	5
7	8	3
28	29	2
30	30	5
28	31	2
31	31	11
50	50	1
19	20	10
29	39	1
54	68	4
21	22	2
52	52	2
57	58	5
2	5	2
0	23	1
24	59	5
13	22	1
64	65	2
29	30	3
27	27	3
56	59	3
51	64	2
70	70	3
1	24	2
34	34	3
35	36	2
56	69	1
67	73	2
5	6	2
1	28	4
29	32	1
52	68	1
7	7	4
38	38	4
54	54	5
8	9	1
5	5	1
26	27	2
3	4	3
66	71	2
64	64	1
25	37	2
61	64	2
21	56	2
4	5	1
36	50	1
39	42	3
10	23	1
75	75	2
55	56	2
36	36	4
70	71	2
59	60	1
68	70	1
47	53	4
37	38	1
25	39	2
72	74	1
10	12	2
31	35	2
45	47	2
19	21	1
23	56	1
48	49	1
51	51	2
34	49	1
19	29	1
67	68	1
21	23	1
23	42	1
60	61	1
74	76	1
23	25	1
