188	192	6
97	97	1
165	178	4
214	215	3
14	34	5
166	166	4
236	237	3
189	189	7
156	157	1
172	172	5
114	114	10
214	214	10
164	179	1
68	68	3
106	119	2
151	151	9
248	248	2
18	20	1
149	166	2
91	91	3
167	195	3
71	71	12
232	247	2
211	236	1
4	30	1
64	66	1
189	194	2
101	106	2
179	186	2
220	221	1
38	73	2
192	210	3
86	86	8
188	189	3
150	153	1
234	234	5
116	116	2
100	108	2
51	51	5
107	108	1
71	74	7
20	36	2
163	168	1
64	65	9
93	94	10
28	28	17
68	69	6
2	17	2
173	245	2
99	152	2
151	153	5
37	37	3
212	212	4
30	48	1
201	201	5
110	110	6
68	93	6
153	153	5
99	153	4
30	37	1
197	198	8
190	190	6
182	209	1
92	114	1
34	85	5
56	56	4
64	64	6
52	52	6
239	240	5
79	91	3
97	105	2
71	81	5
152	153	3
235	235	2
115	116	1
58	85	3
66	66	4
151	221	2
105	106	2
167	167	3
21	21	2
113	113	8
55	58	1
242	243	8
22	22	3
48	48	5
42	42	8
65	67	3
181	181	9
156	203	2
106	106	4
118	120	1
170	171	3
236	236	10
49	49	6
193	194	2
30	30	2
182	184	7
193	193	9
174	243	2
100	100	6
17	156	8
23	23	5
209	209	3
12	12	12
195	199	4
48	49	4
220	220	5
246	246	7
80	81	2
75	75	9
39	40	4
154	154	4
44	46	1
7	15	1
147	186	2
173	173	7
25	26	3
175	190	4
158	158	6
29	31	7
201	235	3
184	184	9
237	237	11
179	185	5
182	183	6
194	194	9
207	207	4
159	159	6
13	14	1
27	27	9
14	48	2
234	235	3
211	242	1
164	164	10
185	186	4
158	159	1
5	237	7
185	185	7
232	234	1
153	154	2
74	75	2
212	213	1
10	10	10
24	47	1
7	7	5
199	199	14
192	193	2
163	163	6
19	31	8
19	20	3
87	87	9
117	117	10
200	200	2
244	245	2
214	219	2
65	65	4
223	223	5
147	221	1
185	212	1
84	84	3
224	230	1
98	105	2
160	160	8
178	183	3
194	237	1
61	63	6
15	15	11
158	175	1
186	194	1
186	217	4
34	42	4
208	211	4
169	177	3
216	218	1
60	60	3
37	83	1
173	174	5
156	156	2
224	229	4
181	182	11
169	219	5
41	41	6
221	222	6
107	120	2
100	167	2
198	201	1
8	227	3
5	5	4
88	98	3
168	168	6
53	53	3
87	92	1
61	61	3
232	232	6
169	178	4
58	58	14
114	116	3
223	230	1
231	231	3
42	43	5
241	241	6
52	55	1
202	203	1
166	179	1
20	51	4
59	60	4
208	208	6
16	36	2
104	105	3
165	165	10
182	241	1
101	105	1
69	70	1
45	45	8
192	192	1
226	227	5
20	57	1
87	234	2
203	203	4
46	218	3
69	69	7
63	63	4
146	147	1
27	28	3
9	11	2
169	169	4
118	118	19
191	191	10
29	29	4
178	178	6
152	186	1
77	77	5
228	229	1
205	205	10
15	83	3
1	156	3
59	145	6
71	72	5
211	211	4
11	11	5
119	119	4
115	115	6
187	189	2
152	152	4
238	238	3
75	76	1
45	154	5
3	11	2
157	159	3
221	221	3
229	229	1
74	74	1
180	180	5
111	246	1
165	166	4
120	120	9
63	64	3
228	234	1
70	94	1
202	205	3
14	198	1
159	160	4
108	112	2
103	103	3
198	210	2
107	107	6
38	39	3
177	189	2
194	211	2
59	59	1
216	216	7
229	230	5
33	33	2
242	245	1
117	145	2
36	40	2
112	112	4
101	102	2
187	187	4
6	6	6
51	86	7
232	242	1
243	243	5
19	19	4
89	89	2
197	245	1
17	17	7
92	92	11
10	11	3
55	87	4
24	24	3
53	54	1
29	30	1
237	238	4
162	162	8
179	179	3
175	177	4
67	70	1
8	8	2
10	42	3
5	15	5
62	62	10
227	227	5
2	5	2
245	245	7
107	115	2
32	203	6
202	202	5
31	31	5
159	175	3
169	170	4
210	210	7
33	51	2
243	247	1
28	43	1
210	244	3
113	146	2
208	209	7
212	231	3
71	87	2
145	145	2
244	244	5
113	114	3
193	201	1
161	161	4
29	51	5
154	231	2
197	197	3
229	239	2
95	95	2
2	3	1
244	247	3
4	4	8
167	221	2
70	105	2
181	248	2
99	99	3
1	1	1
101	101	2
151	178	1
218	241	1
193	210	4
240	240	12
101	107	1
65	66	1
171	171	4
192	209	3
222	222	4
204	205	2
75	112	2
217	217	4
155	212	2
91	92	3
23	42	2
118	170	8
111	111	2
102	102	3
175	209	6
175	176	2
231	233	3
200	208	3
30	58	1
22	51	2
55	55	3
195	198	2
32	32	5
97	98	2
95	109	1
71	73	2
1	12	2
162	166	3
59	107	1
195	195	3
18	18	4
205	225	1
217	241	2
23	29	2
118	119	2
209	245	5
83	83	4
89	95	3
112	116	3
75	77	1
190	193	2
186	187	2
181	244	1
199	200	4
233	234	2
38	81	2
35	82	2
205	224	1
101	173	1
231	234	3
242	247	1
110	111	4
107	117	1
209	231	1
144	226	1
22	109	1
162	163	2
205	226	5
60	69	1
76	76	1
201	246	2
83	84	1
171	195	2
18	47	2
102	103	1
167	178	3
8	228	2
52	53	3
182	182	8
65	91	1
48	68	2
167	179	4
200	212	1
159	176	3
105	146	2
202	209	1
38	38	5
98	106	1
187	194	2
180	192	1
17	41	1
43	43	1
153	248	2
102	104	2
147	147	5
165	175	3
61	227	2
177	177	3
69	145	1
225	226	2
209	244	1
213	214	1
5	73	2
24	55	2
13	15	2
9	9	2
106	107	1
8	235	1
57	145	2
175	175	5
67	67	2
181	188	2
48	56	2
243	244	3
49	58	1
14	14	1
52	57	2
5	37	4
30	50	2
109	154	2
105	105	5
79	92	2
111	112	1
188	188	2
88	88	7
198	198	4
186	186	4
193	196	1
114	146	3
156	179	1
228	228	1
40	40	4
160	161	1
35	35	5
46	46	3
62	202	1
218	220	2
174	174	1
230	239	2
109	109	6
180	184	3
49	50	3
96	96	4
156	202	2
181	241	1
154	189	1
238	239	3
78	79	1
68	92	2
215	215	5
164	199	1
32	33	6
225	225	5
101	112	2
54	59	1
24	25	4
93	93	2
79	232	1
166	190	2
20	20	3
194	198	1
245	246	1
200	201	4
214	237	2
78	235	1
31	61	1
235	242	2
233	233	2
195	197	1
26	32	2
247	247	5
44	220	5
158	165	3
51	72	1
107	146	1
150	150	1
155	204	2
67	85	2
59	153	1
181	185	1
210	237	1
157	170	2
33	34	2
13	37	1
44	44	2
153	168	1
200	219	4
38	82	2
39	39	2
6	7	1
41	212	3
96	106	1
82	86	1
181	186	1
222	242	1
219	219	3
104	106	1
156	206	1
238	241	1
196	237	1
187	188	2
233	248	3
76	77	2
47	47	4
107	116	1
117	118	2
199	215	1
56	57	1
150	154	1
36	37	1
15	30	1
160	169	1
39	47	2
65	105	1
42	45	2
100	104	2
239	239	5
15	16	1
180	182	1
95	101	1
17	44	2
155	155	1
213	213	2
90	90	4
112	247	1
176	177	1
92	94	2
85	85	2
31	47	1
19	44	1
72	86	1
81	241	2
226	226	3
78	86	1
196	196	2
17	18	1
242	242	2
20	21	1
196	209	3
209	210	2
207	212	2
72	78	1
215	217	2
49	57	2
231	248	3
155	206	2
60	64	1
198	199	3
14	56	1
47	95	1
176	176	3
158	189	3
5	6	1
84	85	2
197	199	1
99	103	1
144	199	1
119	120	1
162	181	2
97	99	2
193	195	1
18	37	1
34	47	1
12	39	1
171	174	1
82	82	1
26	26	2
82	85	1
4	5	1
52	62	2
16	16	4
41	43	1
150	162	1
74	94	1
55	82	2
187	210	1
36	36	3
35	36	1
192	205	1
196	199	1
22	23	1
68	88	1
152	170	2
203	204	2
15	38	1
108	108	1
186	189	2
70	234	1
18	145	1
49	84	1
228	231	2
100	101	1
55	60	1
68	86	1
0	0	1
79	79	1
90	92	1
45	46	1
248	249	1
105	237	1
204	204	1
212	219	1
184	197	1
210	216	1
163	169	1
154	187	1
27	33	1
170	170	2
41	207	1
165	179	2
70	92	2
8	11	1
3	6	2
19	22	1
200	204	1
17	203	1
25	29	1
70	70	1
190	191	1
61	216	1
172	246	1
72	73	1
60	65	1
76	86	1
162	192	1
188	193	1
38	48	1
172	176	1
79	86	1
5	49	1
186	196	1
209	211	1
70	71	1
115	117	1
146	223	1
