19	19	7
47	48	1
5	5	9
8	8	7
62	63	2
3	4	6
78	78	4
51	51	10
50	50	11
72	80	5
51	52	3
24	24	3
25	26	1
57	57	8
54	58	3
58	58	17
89	89	6
10	10	7
14	14	8
67	68	2
73	74	1
27	27	13
71	71	6
26	26	4
49	49	10
59	59	5
8	23	6
58	60	8
28	28	2
75	76	5
53	53	2
86	87	1
34	83	1
52	52	8
76	76	5
12	13	3
66	81	1
56	82	2
68	69	4
83	83	10
2	2	8
48	55	1
5	6	11
16	17	1
63	74	3
60	61	3
70	76	1
68	68	7
23	23	3
7	7	5
7	8	3
5	16	1
8	25	2
56	56	2
87	87	2
63	64	5
3	3	12
17	17	3
9	9	10
74	74	7
82	82	9
75	77	8
53	59	1
65	65	11
16	19	4
19	31	2
62	62	7
76	78	1
30	30	7
13	49	2
60	60	6
88	88	4
87	88	4
65	66	7
24	25	2
14	81	4
69	74	2
53	55	1
20	20	6
48	49	5
79	79	6
25	25	8
46	81	4
69	70	5
63	63	3
86	86	6
54	54	1
81	81	13
17	25	5
5	24	1
7	26	3
84	84	5
69	69	7
55	55	4
81	83	5
3	85	2
4	4	3
7	31	5
75	84	6
77	77	5
6	8	3
34	35	5
7	65	2
59	61	1
56	73	1
13	17	2
70	71	3
0	0	7
25	27	3
18	18	1
75	75	2
1	1	5
31	31	6
77	79	4
78	81	3
76	77	1
27	28	2
60	78	1
78	79	2
71	75	7
17	24	3
6	6	1
85	85	11
64	64	5
18	22	1
22	22	6
61	62	3
50	72	2
24	27	4
51	69	2
23	47	2
61	77	1
23	24	2
8	17	1
64	66	1
48	48	2
71	76	1
49	50	3
2	71	1
47	47	5
11	15	1
80	80	5
88	89	4
17	20	2
60	77	2
47	81	4
33	33	3
21	66	1
80	83	5
17	26	1
77	78	2
8	9	1
20	26	2
8	65	2
85	86	1
12	12	2
83	85	1
46	46	1
15	15	5
53	74	3
64	65	3
72	72	1
0	2	1
5	7	4
48	77	1
53	83	3
66	66	3
26	27	1
51	63	2
61	61	3
10	12	1
67	67	3
51	71	1
46	62	1
66	67	3
24	28	4
80	84	1
1	28	2
7	29	1
22	47	1
10	49	1
15	16	1
46	48	2
21	21	3
8	82	1
34	34	1
0	19	1
56	75	1
49	83	2
71	73	1
73	73	1
19	20	1
48	56	1
71	90	1
4	30	1
55	74	1
53	54	2
79	88	1
47	52	1
9	49	1
51	81	2
11	69	1
22	23	2
7	23	1
81	82	1
77	81	1
23	65	2
9	31	1
52	53	1
58	65	1
11	11	1
13	13	1
