101	101	3
175	196	1
92	92	7
106	106	9
60	87	1
94	94	8
9	16	3
79	79	8
201	219	5
72	104	1
208	208	21
244	244	11
31	32	3
52	110	3
232	234	2
47	60	3
233	233	11
93	94	3
170	170	17
218	239	1
47	49	4
61	61	12
119	119	26
197	200	4
228	229	2
100	103	2
236	238	4
44	52	2
239	239	19
209	209	6
66	66	6
186	190	4
54	54	4
63	63	15
21	21	12
186	186	10
169	169	15
165	181	1
208	209	11
211	212	10
193	194	4
223	242	1
178	178	9
157	157	15
105	107	1
27	27	7
225	225	9
23	23	12
72	72	5
99	99	7
194	194	10
65	65	10
36	51	2
151	151	7
64	68	14
155	155	6
177	177	10
112	168	3
7	7	18
3	3	6
5	5	13
20	33	3
90	91	5
191	191	6
164	164	6
98	99	2
214	214	20
0	0	1
211	211	9
48	48	12
48	50	1
199	199	4
176	192	1
202	202	12
67	69	6
59	60	8
156	156	15
23	93	7
17	17	3
180	180	10
190	190	5
69	69	6
221	221	12
198	199	11
26	27	2
52	56	1
210	210	10
104	107	4
37	51	3
33	33	14
111	111	11
10	33	2
175	179	7
210	221	5
157	177	3
38	38	14
215	216	2
113	246	6
200	209	2
80	80	4
25	25	10
82	99	2
16	45	1
204	204	16
86	86	3
72	73	2
247	247	10
184	196	1
58	59	7
16	16	14
100	100	10
84	85	3
152	152	13
15	15	20
5	74	4
204	205	5
102	102	7
109	109	23
158	158	26
6	6	12
181	181	13
35	35	7
95	96	5
71	71	18
234	235	4
57	57	6
51	51	8
236	236	7
203	203	13
52	57	3
69	77	2
64	93	3
187	188	5
207	207	12
113	113	4
22	22	14
246	246	4
209	210	3
90	90	10
230	230	15
76	76	9
107	107	11
216	220	3
37	37	13
107	118	1
88	88	1
87	88	6
212	212	5
189	208	3
79	80	1
100	115	2
213	242	2
97	98	2
161	161	10
233	246	2
4	4	13
172	191	3
89	89	8
111	112	11
185	185	8
105	106	2
189	189	4
40	40	18
167	167	8
165	177	3
62	93	2
144	145	7
175	176	9
207	212	3
26	26	4
195	195	9
105	105	16
209	217	4
242	242	10
46	46	11
115	115	14
243	243	1
228	228	10
212	220	1
117	119	4
210	217	1
60	89	1
100	101	3
223	224	2
172	172	12
42	42	19
38	40	2
21	35	7
72	74	3
159	159	12
30	39	2
91	91	13
36	37	3
198	198	10
173	174	3
245	245	9
179	179	6
29	29	4
184	194	2
188	188	5
165	165	6
92	96	1
18	18	9
82	82	8
28	28	8
193	193	10
75	75	1
34	182	1
194	195	6
184	238	5
173	173	13
44	117	3
116	116	12
238	240	5
163	166	1
217	217	13
198	218	2
187	187	7
96	96	5
85	85	16
153	153	5
159	160	7
33	52	1
16	40	2
53	54	3
117	117	11
172	189	5
51	110	2
81	95	1
115	120	3
14	30	1
215	233	3
57	59	2
69	70	4
9	66	2
189	190	4
108	108	6
112	145	1
28	151	2
222	222	11
197	197	14
73	85	3
77	77	9
160	160	12
218	218	4
37	38	4
182	182	9
113	114	3
98	100	1
183	183	7
109	111	4
162	179	3
58	58	9
161	168	4
98	98	3
197	199	2
9	65	2
200	200	5
118	119	6
227	228	5
224	225	1
37	48	1
160	161	1
239	240	12
36	52	7
231	233	4
168	168	12
150	150	9
188	189	3
56	56	3
104	104	2
164	166	1
147	204	2
9	9	15
20	20	1
188	190	5
3	18	1
70	72	5
226	227	1
196	196	10
199	200	4
55	59	3
201	210	1
73	75	1
36	36	10
175	175	11
118	120	1
98	150	3
111	167	2
41	41	4
152	153	4
29	46	1
244	245	2
238	239	10
44	44	5
201	201	9
238	238	6
240	240	8
186	225	2
203	228	2
33	232	3
237	240	2
162	162	3
114	114	7
14	14	12
36	53	1
117	118	3
185	229	6
31	31	6
2	2	6
186	211	1
12	12	3
235	235	9
181	194	1
176	177	7
229	234	2
28	46	2
214	215	7
82	85	1
242	246	1
63	67	3
205	206	3
38	42	2
49	49	6
205	205	1
43	43	4
233	234	5
213	214	4
194	213	3
52	52	9
218	219	5
118	241	2
154	154	1
79	83	3
1	228	5
166	166	11
224	224	7
112	246	3
181	183	5
176	176	8
111	119	3
74	74	8
193	196	2
166	168	1
100	110	1
163	165	1
67	67	7
8	8	7
62	62	4
24	41	3
116	117	3
248	248	8
59	69	4
178	191	4
11	45	1
147	147	2
108	236	4
164	165	3
208	210	4
19	19	2
41	42	6
184	184	8
241	241	13
220	220	5
34	50	2
1	19	2
192	194	3
216	247	3
59	59	5
19	201	4
1	1	5
155	201	2
179	195	1
236	237	6
87	87	9
106	107	6
203	204	6
226	226	5
177	182	2
195	197	1
195	196	2
174	174	8
81	82	4
102	107	2
202	229	5
9	12	1
64	65	3
119	245	2
2	3	1
171	222	1
99	100	4
115	116	1
108	115	5
165	166	2
29	150	1
11	11	8
100	114	1
159	199	2
223	240	1
30	30	3
241	242	5
18	33	3
76	77	4
245	246	4
50	50	6
218	221	1
30	31	1
96	98	1
212	222	2
39	58	4
39	39	6
78	78	4
232	232	5
68	68	9
44	114	3
60	61	8
171	171	14
171	180	2
174	186	1
66	67	4
197	208	1
96	99	1
2	19	1
237	239	1
81	81	3
71	88	2
38	85	1
34	34	6
156	157	4
157	163	4
193	198	3
25	43	3
72	79	2
45	110	1
33	36	5
207	208	2
203	205	1
171	178	3
34	35	1
36	62	2
12	38	4
210	211	5
206	206	7
19	34	3
96	97	3
196	208	2
85	95	2
230	231	3
180	181	4
74	75	1
4	5	2
52	54	3
163	163	8
45	45	10
183	196	1
145	145	2
215	215	3
14	34	2
198	222	1
84	84	3
2	18	6
120	120	4
231	232	4
83	83	6
184	185	5
213	215	2
185	193	2
169	180	5
240	241	1
6	54	1
33	34	1
31	227	2
35	115	4
216	216	1
186	188	4
25	26	4
22	153	1
222	238	1
74	78	4
81	89	2
110	111	6
29	39	3
163	177	5
192	198	1
187	220	1
63	76	4
14	231	2
159	163	1
233	235	1
45	52	3
146	146	3
56	58	5
97	97	1
65	68	2
114	115	3
38	66	3
223	227	2
32	33	1
201	225	2
179	183	1
179	207	1
237	237	3
181	182	2
190	191	2
49	50	5
73	74	2
211	216	2
220	247	1
35	114	2
88	89	2
171	181	3
207	223	3
38	86	2
242	244	5
189	209	2
209	247	1
221	222	7
84	86	4
157	162	2
145	152	2
172	173	4
34	114	2
70	75	1
3	4	4
238	241	5
121	166	4
249	249	2
24	24	6
112	112	2
213	243	2
21	53	2
242	245	1
55	55	5
163	178	1
47	47	4
157	165	2
28	238	1
48	63	1
234	234	4
244	248	4
28	156	1
49	190	5
86	91	2
43	44	1
192	193	2
232	233	2
112	167	2
60	60	4
99	104	3
82	95	1
7	8	2
183	185	1
172	179	1
3	21	2
158	177	1
185	214	2
157	159	3
112	116	2
166	167	2
12	49	1
5	34	1
108	109	3
159	162	5
72	78	2
6	53	2
114	144	1
206	207	1
75	84	1
33	229	2
80	81	3
71	72	1
229	229	3
213	213	4
191	192	2
236	241	1
107	108	7
163	167	1
48	64	1
223	238	1
56	65	1
179	180	4
196	209	2
240	242	2
216	217	3
212	213	2
175	178	3
14	37	2
170	180	4
247	248	1
212	224	1
172	198	1
22	146	1
93	93	1
32	232	1
185	212	1
48	76	1
49	58	1
83	84	1
200	220	2
192	196	1
6	10	2
210	214	1
162	167	1
90	92	1
67	87	1
158	160	2
85	86	1
47	76	3
6	19	1
76	81	3
74	84	2
53	94	2
224	247	3
227	227	5
169	170	4
92	93	3
219	220	3
185	197	2
47	51	1
16	144	1
95	95	5
55	56	2
99	109	1
68	69	1
64	84	2
92	94	3
48	65	2
94	99	1
242	248	1
104	105	1
173	175	1
183	184	3
180	188	4
171	172	3
198	200	2
186	207	1
30	37	2
1	232	2
175	191	1
102	115	1
206	208	1
47	48	1
63	93	2
186	187	2
109	110	1
187	191	4
76	191	2
72	75	1
103	103	3
6	17	2
10	10	4
182	195	3
97	100	1
32	224	1
183	194	1
108	112	1
118	118	5
66	78	1
184	225	1
158	162	4
157	160	2
18	39	1
70	70	1
192	217	1
229	230	2
144	144	1
66	82	3
184	214	1
220	222	1
231	231	1
202	207	1
160	170	1
32	32	2
88	90	1
157	186	1
16	145	1
11	29	2
216	218	1
184	190	1
18	38	2
5	182	1
111	166	2
65	70	1
168	169	2
86	88	1
37	42	3
116	247	1
194	198	1
78	80	1
31	43	2
12	28	1
162	164	2
225	230	1
216	235	1
210	218	2
95	119	3
76	80	1
185	220	1
66	68	1
46	47	2
112	115	1
51	93	1
167	203	1
110	110	2
57	58	2
46	95	1
156	160	1
161	167	1
12	29	1
243	249	1
172	200	1
61	62	1
223	223	1
156	161	1
165	182	4
241	247	1
57	60	1
196	197	1
45	46	2
31	40	1
247	249	1
115	117	1
112	119	1
195	237	1
208	211	1
159	191	1
9	11	1
201	202	1
150	245	2
45	53	1
41	43	1
102	103	2
111	118	2
103	115	1
63	72	2
5	37	1
174	175	1
35	36	1
82	172	1
211	221	1
102	119	2
217	219	1
64	64	1
178	200	1
246	247	1
222	223	1
201	220	1
69	87	1
