111	111	5
132	132	9
4	4	12
14	15	3
44	44	9
51	51	3
108	108	1
42	42	4
126	126	1
62	70	2
18	20	3
117	118	3
92	92	5
74	74	10
106	114	2
121	121	5
18	73	2
30	30	3
4	5	3
134	134	3
62	62	5
34	34	11
19	19	9
3	3	3
28	80	3
72	120	2
24	28	2
25	26	4
125	125	5
46	47	1
97	97	9
66	66	6
25	83	7
0	0	1
91	91	16
119	119	7
2	33	2
15	16	8
16	17	3
14	22	3
95	101	2
104	125	2
59	113	2
20	21	2
72	72	6
86	86	4
116	116	2
73	73	3
29	32	1
59	59	4
13	14	1
7	11	1
102	114	2
89	92	2
16	16	4
56	58	3
35	35	7
75	75	12
82	86	1
101	102	2
65	65	3
79	79	9
56	79	1
94	94	4
100	101	1
133	133	3
38	38	5
24	74	5
39	41	1
70	70	3
127	127	5
61	67	1
6	25	2
34	45	3
114	114	8
11	11	11
95	95	4
10	76	2
55	58	3
11	93	2
12	34	2
28	98	11
67	67	7
51	54	4
126	127	5
58	58	3
6	6	9
15	15	15
49	49	3
64	64	12
93	93	8
11	35	4
5	6	3
59	114	2
86	87	2
45	45	14
43	43	5
15	21	1
32	37	4
35	76	2
112	113	7
109	109	7
54	54	1
31	31	5
88	91	2
132	133	1
38	39	5
49	54	4
96	96	2
10	10	6
54	55	1
45	76	8
30	31	3
33	35	1
83	83	3
131	131	3
48	49	2
60	104	1
6	27	2
63	63	7
101	101	6
61	62	5
71	71	6
107	107	6
122	123	4
29	29	9
103	104	3
105	105	10
37	43	1
46	46	12
37	37	4
3	14	2
31	32	3
40	42	3
3	97	3
20	32	3
13	33	1
25	60	1
34	46	5
56	62	2
25	25	6
72	73	3
99	99	5
30	43	1
130	130	4
36	42	3
98	99	5
63	64	2
66	70	2
24	24	1
29	47	5
28	29	2
33	77	3
28	28	2
115	116	1
24	60	1
78	80	3
115	115	4
80	80	5
41	41	11
8	12	5
106	106	4
8	9	2
44	71	2
68	68	7
19	20	3
9	72	2
82	128	1
89	99	3
107	114	1
62	73	1
81	81	2
12	12	5
91	92	3
118	118	7
83	84	4
61	61	6
26	26	9
9	17	1
39	39	1
84	88	5
102	104	1
37	80	2
68	83	1
2	2	4
25	29	2
36	44	3
95	98	2
68	69	6
102	134	3
82	113	1
1	1	2
62	119	1
23	24	4
7	22	5
96	98	2
3	76	1
3	101	2
120	122	1
32	32	4
7	7	9
61	104	2
20	20	1
69	69	1
3	4	3
82	82	7
18	18	1
27	27	4
21	21	3
57	57	8
33	36	2
90	90	11
29	49	3
69	70	1
78	79	4
27	29	2
36	37	2
19	45	2
24	25	5
13	15	2
9	9	3
113	113	2
129	129	3
36	36	3
66	85	1
84	84	4
94	95	1
45	75	1
27	95	1
8	8	5
82	83	2
77	77	4
109	110	1
84	125	1
41	42	4
47	47	8
98	98	8
20	66	1
83	89	1
64	69	1
91	123	2
5	5	2
66	83	2
71	72	2
59	60	2
23	74	2
27	46	1
47	48	1
108	109	3
47	62	1
11	22	3
15	18	2
0	61	1
128	128	4
44	89	1
2	36	1
98	100	1
77	81	2
37	38	1
30	38	1
5	94	1
26	48	1
25	96	1
60	60	3
6	14	1
34	82	2
27	101	1
27	28	1
6	94	2
45	46	2
18	66	1
39	40	1
65	99	1
81	132	2
126	132	1
60	62	1
48	48	3
3	28	1
108	110	1
59	111	1
67	74	3
114	134	1
33	33	2
96	97	1
18	19	1
34	99	1
23	23	4
14	90	1
15	100	1
117	117	3
6	99	2
125	126	1
131	133	1
11	92	1
88	88	2
80	85	1
58	93	2
93	114	1
2	18	1
23	25	1
92	116	1
26	93	1
111	112	1
26	27	2
8	46	1
20	23	1
56	82	1
62	74	1
40	40	2
89	94	1
58	115	1
6	16	1
14	113	2
11	74	1
22	22	1
27	79	1
76	76	1
46	62	1
18	35	1
93	123	1
17	17	1
19	55	1
130	132	1
105	131	1
40	41	2
48	50	1
92	126	1
4	6	2
91	96	1
46	75	1
66	71	1
55	79	1
