198	199	2
206	221	1
62	78	1
159	173	1
194	223	6
215	215	4
60	73	2
237	238	2
180	186	4
43	78	1
177	187	5
166	173	4
89	94	1
209	210	6
235	236	3
172	183	1
72	72	5
109	167	3
191	193	4
98	98	7
178	180	3
21	24	3
186	187	4
30	37	6
69	90	3
191	191	9
233	233	2
155	162	1
145	159	2
44	45	4
170	170	4
210	210	2
14	25	1
196	199	2
118	119	9
225	246	7
241	243	1
201	203	2
116	116	6
192	195	2
198	201	1
26	26	2
31	31	4
163	164	3
53	54	2
54	56	4
69	70	4
194	197	1
168	193	2
169	173	2
232	234	2
175	180	4
150	150	7
53	56	1
94	109	1
153	156	2
46	48	4
175	183	5
100	100	5
109	112	1
156	159	2
5	10	3
174	177	1
98	100	1
92	98	3
52	99	2
246	246	6
205	205	4
200	200	6
228	228	4
157	157	4
203	204	8
245	245	9
157	159	6
216	218	1
52	55	2
114	117	2
197	198	1
3	4	5
54	64	1
30	30	4
57	57	6
40	45	2
5	5	3
83	83	3
21	40	2
182	187	1
10	15	1
176	187	4
25	25	3
41	42	1
70	208	2
209	219	3
241	241	5
92	100	2
229	245	2
213	214	3
167	215	4
115	153	2
172	172	1
92	92	6
209	224	4
16	16	3
146	150	1
214	214	5
53	53	4
150	175	1
168	181	1
60	61	4
56	58	2
96	98	3
175	175	9
166	167	4
195	196	4
147	147	4
178	181	3
20	23	3
45	46	4
17	22	1
228	239	1
15	29	2
196	217	2
66	101	2
171	171	1
195	213	2
200	209	4
52	64	2
245	246	4
14	14	5
27	29	1
192	200	6
180	182	2
21	27	1
221	221	6
10	10	5
168	168	1
163	166	1
76	90	1
28	34	1
221	244	2
37	43	1
44	46	3
80	90	2
54	54	3
156	157	5
154	154	6
217	217	9
31	38	2
173	175	5
111	111	3
42	66	1
230	235	5
153	153	7
221	243	1
162	175	2
31	35	3
19	19	2
204	205	2
60	69	3
182	186	2
73	90	5
92	109	2
164	167	4
151	151	4
81	82	4
75	76	6
175	197	1
167	169	5
32	39	3
174	175	1
88	88	2
236	236	5
58	64	2
222	235	1
24	29	1
39	180	1
37	49	2
1	1	5
182	184	3
204	208	3
65	101	2
161	163	1
99	99	4
63	66	1
85	86	4
172	175	1
47	50	3
202	202	4
170	173	4
237	237	3
242	243	3
40	43	1
213	215	2
16	243	3
199	199	2
11	21	1
181	182	1
234	237	2
112	197	1
25	55	1
182	183	1
152	182	4
182	182	4
37	73	4
195	195	10
83	86	2
27	53	1
155	156	3
155	159	3
70	70	3
92	93	3
114	114	1
80	86	3
37	47	1
12	12	2
36	39	2
181	187	1
96	100	4
234	236	1
28	28	3
222	226	4
187	191	4
23	30	1
113	119	2
17	26	2
229	234	2
68	71	3
234	242	2
165	166	3
73	76	1
53	55	2
34	35	3
27	27	4
207	207	5
79	79	2
154	166	3
160	161	6
75	80	3
184	216	1
38	38	5
2	5	1
204	213	3
76	76	8
55	73	1
97	100	1
197	221	2
32	32	2
49	53	2
215	243	1
170	172	1
220	220	3
71	71	3
154	156	1
21	26	2
192	193	1
32	33	8
185	189	1
10	11	1
201	208	2
159	159	1
41	43	1
150	151	7
220	224	2
175	184	2
1	39	3
87	89	2
100	102	2
166	168	1
209	236	3
55	64	1
8	9	3
71	73	5
35	83	2
185	191	3
186	186	3
172	174	1
153	180	3
179	180	1
162	162	3
68	73	2
55	60	2
43	61	1
5	40	3
234	234	2
86	150	2
35	36	6
45	55	5
151	152	4
239	239	1
48	48	3
11	15	2
159	172	1
29	32	1
34	36	2
94	97	3
198	211	1
49	50	1
181	181	6
232	232	3
175	176	5
107	111	1
47	51	1
61	69	3
70	75	1
90	92	1
67	68	1
209	222	3
19	20	2
100	101	3
51	51	1
97	101	1
60	82	3
220	221	4
236	237	2
64	64	1
86	89	2
189	189	3
85	100	4
174	176	3
180	183	4
187	221	2
119	120	1
192	208	1
246	247	1
31	39	1
171	192	2
240	241	3
94	99	2
177	177	2
19	26	1
228	234	3
42	43	2
180	185	2
72	73	1
109	111	2
56	56	3
57	58	2
188	224	1
82	82	2
202	212	2
8	8	2
159	166	1
216	234	3
164	198	2
64	89	1
151	159	4
234	244	1
160	165	1
105	116	1
201	202	1
168	201	2
193	200	1
210	233	1
19	21	3
231	232	1
112	115	2
51	218	1
159	161	1
183	206	2
20	25	1
244	245	4
96	110	2
74	74	2
203	203	1
115	115	1
107	108	2
15	98	1
76	201	1
109	109	2
237	242	4
113	113	1
11	11	2
151	190	2
43	56	2
196	196	1
210	211	4
91	92	1
68	68	4
156	167	1
229	229	2
170	177	2
6	60	1
176	178	3
35	54	3
175	200	1
209	213	2
69	72	2
230	232	2
200	238	1
105	114	3
227	227	2
212	227	2
91	91	3
228	229	1
218	220	1
11	27	1
102	102	1
9	51	1
22	22	2
203	208	2
118	118	5
107	157	2
99	107	2
169	186	2
161	162	2
26	45	2
189	192	1
113	114	2
215	244	1
120	145	1
39	39	4
42	42	4
154	162	2
175	179	1
51	71	2
176	176	4
153	154	1
38	43	1
88	92	3
94	94	2
208	208	1
236	240	1
69	74	3
104	104	1
191	194	1
55	63	1
18	20	2
166	170	1
82	106	1
105	117	1
213	213	1
193	218	2
85	87	5
73	78	2
162	169	2
31	40	1
164	168	2
72	74	2
198	200	3
161	190	1
119	119	2
77	107	1
196	204	1
38	42	1
155	155	2
3	3	1
146	146	1
36	36	1
233	238	1
113	115	2
170	171	2
52	52	1
177	180	1
209	215	1
171	175	1
212	212	1
188	189	2
218	218	1
116	118	1
25	26	2
160	160	2
6	6	1
207	235	2
92	120	4
199	236	1
207	232	1
2	69	2
1	3	1
163	165	1
154	164	3
7	10	1
167	167	3
184	215	1
109	119	1
64	69	1
231	231	1
213	218	1
162	166	2
49	52	1
173	182	1
67	72	2
1	18	1
233	234	3
209	211	1
207	222	2
6	11	2
155	173	1
230	230	3
40	41	4
43	45	1
215	218	1
157	158	1
150	153	1
60	60	2
107	109	1
201	230	3
18	18	1
97	97	1
204	204	3
4	5	2
207	208	1
18	25	1
48	59	2
214	215	1
40	48	1
102	117	2
15	18	1
190	193	1
174	174	2
8	60	1
44	74	1
201	205	1
14	18	2
51	72	1
173	177	1
155	158	1
220	225	1
38	40	2
171	173	2
239	243	1
64	67	3
222	240	1
69	87	1
66	71	1
241	242	4
56	63	1
218	238	2
38	41	2
212	223	1
183	183	1
199	201	1
36	59	1
218	219	1
36	37	1
149	158	1
171	172	2
93	93	1
101	103	2
197	197	2
92	95	1
156	156	1
35	35	1
85	85	2
210	213	3
61	64	2
183	191	2
190	191	1
160	168	1
27	60	2
235	235	1
112	113	1
183	184	4
45	45	1
169	169	1
50	50	1
11	55	1
108	108	1
156	161	2
172	177	1
62	65	1
152	154	1
177	178	1
151	156	1
175	191	1
55	58	1
209	209	1
226	227	1
75	97	2
151	157	1
108	109	2
229	232	1
196	211	1
43	60	2
3	6	1
69	69	2
59	68	1
59	60	1
179	189	1
37	41	1
96	96	1
105	105	1
63	65	3
74	81	1
56	59	2
73	77	1
235	241	2
17	19	1
21	28	1
172	204	2
106	106	1
209	218	1
24	24	1
73	89	1
63	63	2
16	18	1
60	66	1
164	165	2
29	30	1
222	222	2
68	160	1
60	109	1
240	242	1
117	194	1
200	201	1
155	170	1
233	237	2
49	55	2
43	43	2
156	165	1
87	106	1
198	228	2
186	188	1
118	156	1
198	202	1
91	95	1
89	89	1
156	160	1
210	230	1
200	215	1
146	162	1
73	74	1
23	27	1
151	153	1
242	244	1
22	45	1
190	203	1
63	64	2
203	205	1
217	223	1
92	105	1
204	223	1
176	180	1
19	38	1
207	220	1
163	163	1
170	193	1
227	229	1
155	181	1
18	51	1
223	223	2
190	190	1
241	244	1
150	164	1
5	33	1
194	221	1
227	247	1
182	188	1
75	86	1
4	16	1
2	2	1
66	76	1
78	79	1
222	236	1
66	84	1
144	147	1
78	80	1
244	244	1
35	39	1
100	103	1
154	169	1
