136	136	3
152	154	3
125	125	7
93	93	9
94	95	7
82	82	9
16	16	5
142	147	1
107	124	1
27	27	5
77	77	6
79	79	3
122	122	5
26	26	6
142	142	7
10	10	5
147	147	4
19	19	4
55	55	2
23	23	7
53	53	3
77	78	8
142	143	5
78	78	5
14	15	4
115	118	2
98	98	7
154	154	2
14	140	3
100	100	6
24	25	3
65	65	3
75	75	9
2	2	5
130	130	5
83	84	3
121	122	1
12	20	2
110	111	3
64	70	2
8	8	5
120	120	7
136	153	1
123	124	5
89	89	3
123	123	2
29	158	4
151	152	8
45	46	3
103	104	2
17	17	3
73	73	7
130	131	2
16	124	2
117	117	4
54	55	2
25	25	7
27	28	3
108	109	1
105	105	7
21	21	4
115	115	7
28	30	1
31	31	2
108	111	2
12	12	2
145	147	3
104	104	4
150	157	1
148	148	5
51	51	4
144	147	3
22	33	1
95	95	9
45	45	8
106	106	5
117	121	2
26	28	2
6	6	1
3	3	6
33	33	3
151	151	4
106	129	1
141	141	6
127	127	8
97	97	4
126	126	5
155	155	2
121	123	1
129	130	1
124	124	2
108	112	1
137	137	9
141	142	4
133	133	1
98	99	1
93	94	3
128	129	6
22	23	1
38	38	6
23	24	3
136	146	1
5	5	1
37	37	6
111	111	7
85	86	2
94	94	2
48	48	5
134	135	1
116	117	2
24	24	6
153	153	2
27	30	1
140	148	2
50	50	4
109	115	2
121	121	3
50	51	4
49	49	6
87	92	4
20	20	4
101	101	5
148	153	3
37	39	2
126	127	5
152	152	5
32	32	4
67	67	5
4	5	2
38	78	1
113	124	3
149	150	2
129	129	1
30	42	1
114	120	2
115	130	2
78	79	2
73	76	1
91	94	1
17	18	3
89	124	1
48	50	2
46	46	2
0	1	1
11	11	3
105	107	2
102	102	3
150	150	4
133	152	2
128	128	2
32	33	1
44	44	7
85	85	2
53	57	2
41	41	2
140	141	7
18	18	1
36	36	8
103	103	7
42	45	4
12	27	2
28	48	4
91	96	1
36	37	2
109	113	1
131	141	1
34	34	6
7	8	1
40	40	2
145	146	2
30	30	7
141	147	1
24	72	1
31	32	2
26	131	1
144	146	3
147	148	1
29	31	3
11	12	3
77	86	1
116	116	5
136	137	2
71	85	3
132	132	1
109	118	2
156	157	2
24	73	1
157	158	1
12	13	3
38	39	2
81	81	1
119	119	3
88	89	3
131	131	1
122	123	4
13	13	3
63	63	3
135	135	3
30	139	4
119	120	2
49	52	3
79	80	4
86	86	3
36	38	2
157	157	6
36	39	1
71	77	1
68	69	3
149	149	2
31	36	3
114	130	1
40	41	2
109	136	1
81	82	4
140	140	5
66	72	1
42	42	3
150	151	2
43	43	1
35	105	1
113	113	3
66	70	4
90	90	2
87	89	2
132	147	1
99	99	4
18	19	1
15	15	3
28	31	2
72	72	2
143	143	1
42	47	1
51	53	1
93	98	1
30	43	3
1	2	2
139	139	3
81	87	1
49	51	2
12	14	2
92	92	4
44	45	3
9	9	1
155	156	3
35	45	1
67	70	1
112	136	1
77	79	2
62	62	4
47	47	2
45	147	1
28	28	4
92	93	1
114	118	1
105	111	3
7	7	2
20	21	1
113	115	2
70	70	1
35	35	1
69	69	2
68	68	2
80	80	1
136	154	1
144	144	2
153	154	1
21	79	2
112	112	1
56	56	3
22	37	1
147	152	1
87	87	2
39	40	2
121	136	1
138	138	2
114	114	5
49	56	1
82	87	1
25	29	1
52	52	1
109	109	1
33	35	1
106	107	2
96	96	1
118	120	2
57	63	1
29	34	2
97	98	2
72	77	1
148	151	2
111	118	1
139	140	2
64	64	1
91	92	2
19	20	1
48	49	1
66	66	1
103	105	1
110	110	1
47	48	1
68	70	1
112	141	1
40	42	1
35	36	1
122	147	1
70	71	2
54	54	1
133	134	1
118	119	2
55	73	1
154	156	1
91	91	1
