23	23	12
64	64	4
108	174	3
28	31	3
177	177	2
30	31	4
1	6	3
103	104	5
31	31	1
11	11	13
174	174	10
160	166	2
106	109	2
96	172	1
131	131	3
172	172	4
9	9	13
138	138	10
91	93	3
21	42	1
96	97	4
156	160	3
152	152	3
141	141	5
39	39	8
65	66	5
148	148	8
142	142	5
32	41	3
57	57	4
119	119	3
172	174	6
25	28	3
19	19	8
171	172	2
134	134	2
149	149	14
145	145	7
95	95	16
99	107	3
169	169	11
34	34	9
59	59	8
87	167	1
40	40	6
12	13	3
27	27	12
39	40	5
106	106	14
31	36	2
38	38	17
151	151	6
157	162	7
36	36	24
13	14	5
147	147	4
111	112	1
6	6	11
12	15	6
20	91	4
7	8	3
148	155	1
20	20	9
29	29	15
18	20	2
9	11	4
39	41	1
21	21	11
111	127	2
65	65	3
96	96	5
26	31	2
90	92	4
42	49	4
145	158	2
109	109	14
120	121	3
170	175	2
120	150	2
14	15	11
130	131	4
32	32	12
95	138	3
152	155	2
153	167	5
101	102	1
100	126	2
13	13	7
104	104	5
123	133	2
34	39	5
125	169	1
84	84	9
6	10	5
171	171	7
107	110	2
4	12	4
41	41	21
90	90	4
22	22	14
16	16	7
25	25	12
62	172	2
121	121	14
3	5	4
12	12	17
5	162	1
31	32	6
163	174	1
105	106	3
21	22	4
25	26	4
24	25	5
58	78	3
3	3	6
80	80	3
58	61	1
10	10	16
94	94	10
99	103	1
53	53	10
87	111	3
81	81	9
157	158	5
81	85	3
141	144	1
51	51	6
1	2	4
146	146	11
110	110	7
78	92	2
115	148	1
17	17	10
87	87	6
152	165	2
26	27	1
25	30	2
168	170	2
4	4	7
43	44	4
19	21	4
180	180	4
61	61	3
112	112	6
75	75	19
125	125	8
26	26	17
161	161	10
35	35	8
15	15	14
11	33	2
18	19	1
2	7	2
7	13	2
2	8	2
55	55	11
23	33	2
77	77	7
68	68	5
108	109	1
10	14	2
152	170	2
2	3	4
137	137	4
88	89	4
11	12	3
160	160	7
150	150	13
76	76	12
14	14	13
71	71	7
175	175	7
102	102	4
1	25	5
2	2	2
86	97	3
43	43	12
100	161	6
118	118	7
86	86	9
30	72	3
129	146	2
62	63	1
122	122	3
60	61	2
15	16	4
14	58	2
122	123	2
3	4	6
78	78	5
8	13	4
28	29	2
21	23	5
173	173	4
102	156	1
87	88	4
129	129	3
135	135	13
165	165	5
58	58	4
110	111	2
152	168	1
133	133	4
173	174	2
123	124	1
110	133	1
3	33	4
73	73	5
161	162	1
113	118	4
3	10	2
66	67	8
114	115	3
123	123	3
155	155	2
158	158	5
13	16	7
91	94	5
8	10	1
116	116	4
3	30	1
27	53	1
97	97	5
115	178	2
9	18	9
120	120	3
159	159	7
135	136	1
113	133	3
108	108	5
7	7	9
9	19	3
18	18	6
36	43	1
89	89	6
109	133	1
157	157	1
94	124	3
24	24	11
16	19	5
170	171	2
39	43	3
154	155	1
91	92	1
30	30	15
117	121	1
101	170	2
99	106	3
16	33	2
95	96	10
101	101	2
3	7	2
154	173	2
101	119	2
52	52	6
134	152	3
126	144	2
12	34	1
6	7	3
3	23	1
164	165	7
62	62	7
134	135	2
167	168	3
156	156	7
22	41	1
142	143	4
60	60	6
5	54	1
178	179	1
16	111	1
136	151	1
140	142	3
41	44	1
74	74	5
151	160	4
92	92	8
122	124	4
134	153	1
4	9	2
91	91	5
0	0	3
18	33	2
56	57	1
67	67	4
154	154	4
27	28	2
40	41	3
114	136	1
105	113	3
95	98	1
110	174	1
50	76	1
52	54	3
149	150	5
165	169	2
113	120	1
66	68	2
4	17	3
19	42	5
44	44	7
112	175	1
132	179	2
79	79	3
33	33	5
41	42	3
113	114	3
145	146	3
131	132	2
45	45	3
135	166	3
51	60	2
11	13	2
64	68	2
3	11	3
107	107	7
104	145	1
140	144	1
156	162	5
5	6	5
148	149	2
56	56	7
52	53	4
63	75	2
23	24	2
1	4	2
132	132	2
105	107	1
144	144	4
99	101	4
62	144	3
139	139	6
117	147	1
140	145	1
113	166	1
12	35	2
84	87	3
113	128	2
112	125	2
103	151	1
88	136	1
111	111	2
164	164	7
139	142	1
153	157	3
79	80	3
28	28	11
86	87	2
66	66	8
155	156	3
102	105	1
32	33	7
63	104	2
105	132	2
112	168	1
127	127	3
65	67	2
112	113	4
7	12	5
129	130	2
52	179	2
64	72	2
14	31	3
100	170	3
170	170	4
68	147	4
116	130	1
83	83	5
62	83	2
130	130	2
54	57	1
127	128	1
84	85	4
176	176	5
168	174	1
121	123	1
124	124	6
72	88	4
24	31	1
0	167	1
109	114	4
108	134	1
90	91	8
20	92	1
67	74	1
165	178	1
110	114	3
141	154	1
67	68	1
113	136	2
164	180	2
143	144	4
165	180	2
5	9	1
20	22	3
23	31	1
158	159	1
1	1	5
70	70	1
54	55	2
171	178	1
37	54	2
146	150	4
33	45	3
37	38	1
43	179	2
103	115	2
167	167	1
101	105	3
32	36	2
35	101	1
82	82	1
92	93	2
159	162	1
163	163	2
114	114	2
6	158	3
31	45	1
88	88	2
136	136	7
136	153	1
42	42	2
76	77	1
123	171	1
24	53	1
63	63	1
34	41	3
16	17	4
65	146	1
16	23	2
24	57	1
139	141	1
76	90	2
158	160	2
41	43	2
35	85	1
2	5	5
105	105	1
16	18	3
17	22	1
156	159	3
111	169	1
135	165	3
77	82	1
50	60	1
67	75	1
151	172	2
113	113	3
4	7	1
168	168	3
102	145	1
102	114	2
150	151	4
52	138	3
64	73	3
98	103	2
168	169	4
175	177	1
16	22	1
143	143	2
102	115	2
34	38	2
55	59	1
45	49	2
24	26	2
37	37	2
77	97	1
140	141	1
3	63	2
80	81	3
101	126	1
2	9	2
116	119	1
9	12	1
54	54	1
8	28	3
119	120	2
153	153	1
62	66	1
159	180	1
93	93	2
82	83	1
100	107	1
159	160	2
160	162	1
19	27	1
19	20	1
1	5	2
35	49	1
118	119	1
33	41	2
25	51	1
155	159	1
73	74	1
4	61	1
87	109	1
1	9	3
10	16	1
68	172	1
52	60	1
156	158	1
131	178	1
22	42	2
67	137	1
5	5	1
15	35	1
112	153	2
74	75	1
125	137	1
97	154	1
22	35	1
128	129	3
116	118	1
24	30	2
126	126	1
100	100	3
36	37	2
20	21	1
8	8	1
95	124	2
126	128	1
15	42	1
16	133	2
122	125	2
66	153	2
10	11	1
136	168	2
132	136	1
134	176	1
27	44	1
94	97	1
166	166	1
71	72	1
19	23	1
21	25	1
67	98	1
54	58	2
31	40	1
130	145	1
132	133	1
66	108	1
116	151	1
113	129	3
13	40	1
10	33	1
162	162	1
79	87	1
161	163	1
78	79	1
6	61	1
14	16	1
140	140	1
178	178	1
60	70	1
36	41	1
34	35	1
116	129	1
75	85	1
103	119	1
4	16	1
17	20	1
72	74	1
137	176	1
14	126	1
130	143	1
103	103	1
66	151	1
109	132	1
25	27	1
33	42	1
166	169	1
33	34	1
121	159	1
