1	2	4
21	21	7
14	17	2
20	20	4
53	53	5
40	40	4
5	19	3
119	119	4
125	125	6
74	76	1
107	107	8
47	47	12
63	67	1
98	98	3
103	103	6
116	119	6
34	34	10
23	23	11
161	161	1
45	45	2
49	75	3
50	112	1
25	106	4
123	123	2
104	104	8
20	21	5
114	114	4
6	19	1
17	17	7
55	56	7
86	113	2
73	73	6
163	163	2
159	159	1
27	56	3
131	131	5
94	94	7
8	10	3
81	81	14
156	157	3
72	76	3
50	50	4
135	136	3
35	36	4
57	62	1
96	97	6
167	170	1
88	92	2
27	27	8
170	170	4
95	133	5
37	38	4
151	151	7
71	72	2
4	168	3
83	83	2
43	43	12
12	25	3
116	116	3
136	136	5
115	116	1
152	152	1
144	144	1
68	70	1
13	55	2
124	124	4
114	115	3
77	78	3
8	13	1
5	5	7
152	164	1
78	79	4
68	68	4
142	142	3
33	35	3
76	79	1
3	7	3
74	94	3
36	36	18
153	154	4
140	165	6
19	20	3
90	90	4
26	26	8
69	69	1
56	56	9
18	19	1
92	92	7
81	98	7
148	150	4
106	106	6
11	11	5
10	10	7
37	37	7
15	15	4
101	103	1
66	68	5
130	159	2
65	71	3
23	38	4
2	52	6
135	135	4
101	129	2
111	111	16
34	142	3
2	2	1
117	118	1
102	104	2
68	69	2
99	115	2
155	155	3
99	99	5
72	72	3
79	80	1
162	162	6
23	58	1
75	76	1
76	80	1
92	93	5
46	46	5
97	98	3
48	51	1
169	169	6
67	68	1
89	89	7
3	4	2
148	163	2
105	107	8
88	93	3
48	49	3
16	89	2
23	24	2
143	157	1
65	65	7
3	3	4
167	167	8
5	21	2
22	24	2
87	87	5
113	114	4
20	26	2
109	109	2
66	66	2
9	9	2
100	100	1
7	7	5
98	116	1
5	82	3
12	13	2
55	55	5
71	78	2
120	121	3
163	165	3
54	55	3
14	15	3
80	80	10
138	161	3
81	170	2
76	76	2
57	91	6
158	158	5
28	28	4
49	49	4
108	109	5
73	85	1
104	133	1
12	16	1
16	16	5
160	160	2
13	15	1
108	125	3
24	24	8
139	139	4
130	131	3
44	52	1
37	39	2
112	112	8
70	70	3
100	113	4
22	22	3
81	126	2
117	137	1
58	62	3
102	102	4
109	111	1
105	105	5
105	110	1
1	75	1
88	88	1
21	23	1
143	143	5
11	42	2
11	15	2
15	16	2
51	67	3
6	110	4
151	165	2
153	153	3
10	11	4
49	83	5
10	13	3
86	87	1
110	111	1
115	115	1
147	147	2
113	113	5
49	50	1
145	145	2
8	9	2
88	96	4
41	47	1
21	37	2
97	99	2
150	150	5
86	86	3
104	107	4
6	7	2
126	126	2
84	84	1
13	13	2
145	146	1
11	109	2
69	100	1
85	85	3
71	71	3
4	109	2
51	51	1
0	2	2
75	75	3
108	108	3
87	97	1
35	35	5
38	39	2
94	95	2
42	42	3
144	146	3
111	112	3
26	45	1
64	116	1
120	122	2
51	62	5
41	41	1
21	28	6
16	23	2
147	163	1
6	6	3
137	137	2
110	110	4
149	149	1
12	12	5
112	113	1
156	156	2
17	18	1
13	14	4
44	44	2
137	156	1
98	114	2
14	14	4
101	102	1
34	35	2
123	148	1
80	113	1
54	74	1
9	10	2
142	152	1
75	112	2
165	165	3
76	116	1
18	18	2
35	37	1
119	122	5
100	124	2
107	108	3
82	83	2
105	106	1
7	21	1
62	62	2
67	67	1
98	115	1
5	110	1
128	129	2
82	86	1
0	0	3
12	43	1
130	130	1
95	95	1
122	122	2
12	15	1
142	154	1
74	74	3
39	39	1
47	48	3
40	41	1
8	8	1
76	78	1
54	54	1
138	138	1
147	149	1
39	40	1
70	82	2
93	93	2
2	72	1
23	40	1
166	166	2
62	63	1
89	170	1
166	168	1
53	58	1
96	96	1
53	54	1
19	22	4
33	34	1
64	64	1
79	79	1
146	146	1
100	112	1
118	118	1
151	152	2
169	170	1
6	64	1
37	51	1
82	85	1
146	151	1
