84	84	8
64	64	2
76	76	14
41	42	2
25	28	2
81	81	14
90	90	7
91	91	12
61	61	21
72	72	9
36	37	3
65	66	7
79	80	4
25	25	1
89	89	19
67	67	14
58	58	11
32	34	5
42	42	3
39	39	27
85	99	2
51	58	1
40	40	9
20	20	3
37	41	3
82	83	2
83	83	5
79	79	15
55	55	8
92	92	23
80	100	8
94	96	4
57	57	8
66	66	2
61	66	1
65	65	14
48	48	16
101	102	1
35	37	2
70	71	9
83	86	5
69	69	3
50	50	13
77	79	3
86	86	17
87	97	2
73	73	15
28	28	4
62	62	8
80	81	2
101	101	9
51	57	4
68	68	6
20	21	3
83	84	4
88	88	8
51	51	32
36	36	6
93	93	10
35	36	4
39	40	3
74	74	8
77	77	15
38	39	6
44	44	9
95	96	4
79	82	3
73	74	5
53	54	1
49	50	6
61	62	4
54	54	7
35	35	4
62	63	4
56	76	2
33	33	4
43	43	7
52	52	15
97	97	9
95	97	4
91	93	3
42	43	8
59	59	6
22	22	2
60	60	17
77	78	2
100	100	4
89	95	3
63	63	4
96	98	6
56	57	6
31	31	8
38	40	2
48	49	2
69	70	5
58	59	5
30	30	5
94	98	1
93	96	2
80	80	4
71	71	10
82	84	1
85	85	8
47	47	6
78	78	13
61	89	1
53	55	6
47	54	3
85	86	3
60	69	2
63	64	3
40	52	1
97	98	4
96	96	4
47	60	2
34	35	3
48	61	1
99	99	11
94	94	10
90	91	7
87	88	8
39	41	1
41	41	6
31	32	3
23	24	1
86	96	6
64	65	3
24	25	1
47	50	3
74	75	5
33	34	1
40	51	2
70	70	6
38	38	7
100	101	2
86	89	2
61	82	1
46	46	7
84	86	1
75	75	8
98	98	7
95	98	1
28	36	1
34	69	5
57	73	4
95	95	4
57	58	5
86	95	4
47	48	4
62	64	1
46	54	3
53	53	5
68	69	5
92	93	1
84	85	1
72	74	1
27	27	4
29	35	1
95	99	1
94	101	3
91	92	4
89	91	3
52	56	2
85	89	4
20	28	1
24	24	2
93	95	1
67	68	1
62	80	3
52	53	2
96	100	2
34	34	2
50	51	4
49	74	1
69	71	4
59	60	1
25	26	2
89	90	1
63	81	1
67	86	1
27	58	1
87	87	1
37	39	1
49	49	4
63	78	1
80	101	1
52	57	1
72	73	1
96	97	2
36	53	1
67	73	1
66	79	1
46	47	3
86	99	2
102	102	1
97	100	1
66	80	2
59	87	1
55	56	1
52	54	1
25	37	1
26	26	1
81	98	1
39	55	1
62	77	1
89	94	1
41	50	1
60	81	1
69	72	1
45	45	1
20	24	1
