166	166	12
104	105	8
29	31	1
44	44	10
15	15	20
25	25	13
0	0	25
13	13	15
17	17	19
31	35	2
116	117	3
173	173	7
64	64	18
59	61	3
29	29	18
34	34	12
141	141	17
149	149	18
67	68	3
10	14	5
40	41	4
84	84	10
19	21	6
110	110	9
179	179	13
24	24	20
66	66	8
52	60	1
95	125	4
82	82	14
38	42	2
163	163	10
102	102	5
109	109	10
12	12	23
24	39	1
4	4	23
71	71	18
115	139	6
40	40	21
146	146	9
100	120	2
147	147	30
138	138	10
36	36	30
168	168	7
27	45	1
26	26	9
112	112	2
54	54	11
154	154	8
26	44	3
68	68	11
42	42	14
157	157	6
21	21	19
112	113	8
15	23	2
18	40	2
155	155	15
10	10	31
28	29	5
158	158	9
120	126	3
15	18	3
14	16	3
14	15	6
45	46	9
34	38	4
0	1	6
3	5	6
14	14	23
3	17	2
144	144	12
115	121	2
8	8	26
20	20	9
132	142	2
160	160	10
55	150	2
161	163	3
149	150	2
107	109	4
1	2	1
127	127	7
150	150	21
64	73	3
5	5	13
59	72	6
142	142	14
35	35	26
38	38	31
123	124	5
127	152	5
175	176	5
2	2	19
7	7	11
27	27	17
154	155	2
124	124	5
18	18	5
56	56	8
154	174	2
43	44	4
9	21	3
118	118	27
62	63	3
145	145	14
178	178	10
17	43	1
151	151	13
37	37	13
90	143	2
108	108	17
140	140	14
86	86	9
168	170	2
119	162	5
31	31	29
35	36	8
113	114	5
163	164	11
80	81	5
174	174	9
96	120	2
39	39	21
74	74	5
43	43	17
52	52	6
156	156	6
103	115	1
44	51	1
55	55	11
59	59	10
133	133	12
101	101	5
137	140	2
161	164	4
126	131	2
59	67	3
38	39	5
30	30	22
3	4	18
113	128	4
111	118	3
81	81	5
154	156	4
35	45	2
5	67	2
94	94	4
57	61	4
127	161	4
127	128	9
96	97	5
63	63	4
49	49	5
95	95	12
135	135	10
9	9	18
83	83	17
176	176	19
18	21	1
6	6	20
22	22	14
33	33	11
50	50	18
104	107	4
22	62	1
8	11	1
106	106	9
28	30	16
90	90	11
159	159	15
16	18	7
54	62	1
39	40	23
177	178	3
83	84	8
136	150	1
52	53	9
93	94	2
130	130	14
117	117	7
176	178	6
97	97	2
24	38	2
151	152	3
160	162	1
9	10	5
8	15	2
153	153	19
10	11	15
32	32	14
5	43	1
11	32	4
85	86	8
136	137	10
77	77	9
7	8	6
180	180	2
91	91	4
117	152	2
23	23	28
80	80	7
23	24	6
88	89	4
120	120	8
26	27	6
167	167	9
53	53	8
34	44	2
131	131	9
53	54	1
128	128	6
131	132	3
29	30	8
9	11	8
10	30	6
65	67	4
96	98	7
54	61	3
132	132	5
13	14	3
87	87	5
143	146	1
139	139	9
137	137	7
79	110	3
15	110	3
172	172	14
100	103	5
35	160	1
79	79	13
174	175	6
5	19	4
170	170	5
169	174	3
59	60	6
29	33	2
58	61	3
27	31	8
24	27	6
88	88	9
95	97	3
65	65	6
143	144	2
59	171	3
152	155	6
14	23	2
152	154	1
57	57	1
58	58	3
67	67	11
57	58	1
89	89	10
8	9	9
1	1	23
143	143	9
52	55	5
151	153	2
107	107	11
80	142	2
16	19	2
31	33	2
16	17	10
80	87	4
123	123	12
4	5	2
97	107	2
90	145	3
155	156	3
129	129	9
91	94	3
147	148	7
124	126	2
114	115	7
54	56	1
75	75	8
57	59	4
178	179	5
79	80	5
3	8	1
151	155	3
23	28	4
41	45	7
57	65	4
2	9	2
25	31	4
11	11	21
154	172	1
101	102	7
136	136	5
76	76	8
16	16	12
61	72	1
8	14	3
102	124	3
79	83	1
98	126	2
150	152	6
126	128	5
143	145	2
95	96	3
134	134	11
111	111	13
75	77	4
108	125	6
3	33	3
159	163	3
60	60	8
161	162	5
12	23	1
179	180	6
52	62	2
158	168	3
2	33	2
40	42	3
135	140	3
98	98	8
51	51	5
122	122	1
7	75	6
90	92	1
118	127	4
45	45	12
84	85	9
2	3	10
152	174	1
3	19	2
161	161	5
100	102	4
97	121	4
77	78	2
19	24	5
78	78	10
165	165	6
162	162	12
171	171	7
17	42	1
31	32	8
124	125	1
15	31	1
163	167	2
20	21	10
73	73	4
177	177	7
114	114	10
96	100	3
125	125	8
93	144	4
36	37	3
138	139	2
4	19	4
50	51	3
18	19	4
41	43	3
13	23	2
24	25	11
165	167	4
133	134	4
146	147	8
172	173	6
108	109	2
3	3	13
104	106	3
57	60	2
6	7	6
4	20	1
137	139	3
12	13	7
44	45	3
152	152	5
72	72	5
34	36	2
53	55	2
145	162	1
5	179	2
57	72	2
77	113	2
158	169	3
88	96	2
121	121	1
28	28	8
107	108	3
4	7	4
135	136	6
59	172	1
158	159	1
41	41	6
15	16	6
70	70	3
5	6	3
27	28	5
32	33	6
151	154	3
17	35	1
2	21	5
13	41	4
93	93	6
37	38	7
81	82	10
126	126	9
9	12	1
11	16	1
138	172	2
25	30	2
22	23	1
42	43	2
80	83	3
21	23	2
137	138	5
167	168	4
116	151	1
10	21	1
90	125	3
4	34	1
95	98	2
65	66	1
19	19	4
142	143	6
91	93	1
178	180	7
175	175	9
82	83	5
13	19	1
173	174	1
164	165	5
148	148	11
116	153	3
117	162	1
103	103	4
66	67	2
116	116	5
39	41	2
55	56	4
126	161	3
10	37	4
110	121	4
13	17	4
3	9	2
114	116	1
148	150	2
8	13	3
40	44	2
81	85	2
2	20	1
50	52	4
134	135	3
117	118	3
78	142	2
16	26	2
72	73	2
150	153	1
76	77	1
164	164	5
119	121	3
115	123	4
104	104	4
132	151	1
80	82	1
126	130	2
106	124	4
89	90	1
113	113	1
24	28	1
157	158	8
61	62	1
21	33	1
88	148	1
79	87	2
27	29	1
96	96	2
26	28	1
99	101	1
92	94	2
113	127	4
169	169	3
97	98	3
5	21	2
128	165	1
55	136	2
120	121	1
11	14	2
44	50	2
2	6	4
62	65	2
105	105	3
112	114	2
98	123	3
25	27	1
53	163	2
38	40	2
159	162	2
98	101	1
54	55	1
13	15	3
2	36	1
24	26	5
142	162	2
88	93	1
90	91	5
7	10	6
169	171	2
17	20	1
145	146	2
22	61	1
65	85	1
16	22	2
10	33	3
132	149	1
20	22	3
21	22	2
41	42	4
33	37	4
41	44	1
91	145	4
42	44	1
18	22	1
150	154	3
119	119	7
10	15	1
120	122	1
63	73	1
7	22	1
3	41	2
160	168	2
101	109	1
63	64	2
39	44	2
32	36	1
4	25	1
60	77	1
52	59	1
78	79	2
32	34	3
7	67	3
17	18	2
141	142	2
75	88	1
94	122	1
61	61	2
159	161	1
12	16	2
19	20	2
153	158	4
118	119	3
51	52	2
2	4	2
17	26	2
101	103	1
1	9	3
153	154	1
26	43	1
131	161	1
64	76	1
63	75	1
114	154	2
144	146	2
85	85	1
36	38	2
156	157	2
8	19	1
75	135	1
11	15	1
91	92	1
10	13	2
34	35	2
33	35	1
5	11	2
142	145	1
5	37	1
89	142	1
99	99	2
152	157	1
159	160	2
130	131	1
0	2	1
8	24	2
110	111	1
3	6	1
4	6	1
1	6	2
1	34	1
151	156	1
95	99	2
162	163	1
17	40	1
132	173	2
64	66	1
84	99	1
157	160	1
8	18	1
17	45	1
43	53	1
122	123	1
103	104	1
111	112	1
49	51	1
168	169	2
115	150	3
74	75	1
126	138	1
54	132	1
136	140	1
30	31	2
56	59	1
87	95	1
25	26	1
121	122	1
120	140	2
64	72	1
158	163	2
16	25	1
63	65	1
75	85	1
13	28	2
77	108	1
96	103	1
142	151	1
23	62	1
113	115	1
106	125	1
34	43	1
171	172	1
109	110	1
43	45	1
116	140	2
130	157	1
170	171	2
135	139	1
87	108	1
162	164	1
144	168	1
115	115	1
7	13	1
166	167	1
107	110	1
169	170	1
129	130	1
73	74	1
56	58	1
