24	24	8
26	51	1
19	22	3
12	13	6
85	86	6
30	30	11
1	1	17
28	28	6
59	59	24
9	9	10
6	6	6
20	20	5
85	85	10
22	25	6
51	51	14
55	55	12
58	58	7
20	21	4
57	57	27
15	16	3
3	4	6
53	53	15
5	5	18
73	73	4
75	75	13
84	85	10
24	27	3
16	16	5
17	17	12
89	89	6
77	78	8
4	4	4
48	51	8
3	3	18
59	60	1
82	84	3
69	69	21
66	66	6
47	47	13
75	82	5
74	74	12
86	87	5
70	70	12
35	35	2
52	52	14
53	55	8
27	27	17
83	84	4
19	20	5
9	65	6
8	8	4
83	83	11
22	22	9
6	13	3
26	47	4
81	81	11
0	0	15
8	12	4
1	2	13
84	84	9
77	77	23
18	19	2
82	82	8
54	54	16
14	14	1
6	8	6
59	61	3
46	48	4
79	80	12
73	82	2
20	24	2
26	26	13
56	57	7
86	86	14
12	12	9
15	15	6
67	67	12
29	30	3
71	83	5
50	52	2
31	31	13
56	56	6
65	76	1
65	65	7
13	13	7
49	49	12
81	82	4
5	8	5
67	87	3
47	48	9
88	89	8
8	9	9
50	50	10
65	66	9
71	71	24
8	10	1
61	61	2
67	68	4
13	14	1
72	72	5
22	23	4
10	11	4
52	55	4
17	18	4
79	79	8
19	19	18
74	76	2
68	68	7
61	71	3
87	88	2
80	81	5
7	7	7
20	22	2
72	73	5
80	80	17
58	63	3
2	2	5
54	55	9
23	23	10
88	88	3
27	79	1
24	26	3
66	67	4
78	78	4
29	66	1
78	82	5
21	24	2
71	72	2
11	12	5
67	88	2
58	61	7
57	58	4
73	75	1
61	62	4
46	49	1
48	49	4
50	53	2
77	79	2
69	75	2
82	83	4
2	3	2
79	82	3
25	50	3
61	65	4
10	17	5
7	13	2
5	47	4
29	29	5
60	60	1
71	79	2
23	24	9
31	32	3
13	17	4
46	46	7
16	17	3
49	51	1
11	11	7
25	25	1
62	65	1
52	65	1
30	31	3
23	25	4
9	11	3
8	62	4
67	69	2
69	70	5
71	74	1
5	13	2
76	76	3
62	62	8
77	80	2
5	49	2
60	61	1
58	65	4
30	53	1
74	78	1
25	26	3
75	76	1
11	67	1
78	81	2
64	65	3
6	7	2
78	80	1
0	1	3
10	10	5
87	87	2
50	51	5
1	3	1
12	30	3
73	74	4
76	77	1
21	21	1
79	83	2
9	10	1
81	83	1
74	75	2
68	69	1
73	77	2
23	26	1
5	60	1
74	81	1
61	72	2
30	55	1
71	78	1
9	13	1
5	9	1
17	22	2
63	65	1
30	54	1
8	13	1
7	14	1
66	75	1
89	90	1
17	23	1
53	54	2
3	89	1
4	81	1
59	62	1
70	71	2
10	14	1
72	74	1
48	48	1
8	66	1
26	27	1
21	22	1
