134	134	11
27	32	2
125	127	5
92	99	6
40	40	7
137	140	5
103	103	15
33	34	13
46	46	2
106	107	3
47	47	4
43	43	9
34	34	11
131	133	5
114	117	3
142	147	2
117	119	4
15	16	4
26	27	3
7	8	6
50	50	2
20	21	10
28	31	2
26	26	11
99	99	10
83	85	6
115	115	4
77	78	3
127	127	16
105	133	3
21	21	6
75	75	11
51	51	7
89	90	2
148	148	8
156	157	3
87	102	4
44	44	6
131	134	4
24	24	4
22	22	10
122	123	6
29	31	2
9	9	3
114	115	1
87	88	3
10	11	6
51	53	4
84	85	4
104	104	8
63	70	1
71	71	10
48	48	1
77	77	10
83	120	2
64	64	6
153	153	4
31	32	4
116	116	6
78	79	1
109	109	14
94	94	7
88	89	3
152	153	1
112	112	15
91	91	5
24	25	4
124	126	7
101	101	13
121	122	5
16	73	2
128	129	3
7	13	1
10	10	3
55	66	6
147	147	2
95	145	3
147	148	5
39	39	5
35	35	5
90	91	8
15	15	3
113	113	4
123	123	5
52	52	9
3	133	3
157	157	6
16	17	2
73	74	10
132	132	9
19	19	5
40	50	3
95	96	5
17	17	8
70	71	3
82	91	3
83	84	2
86	86	13
12	12	2
39	40	1
116	117	1
115	116	4
25	26	13
10	124	5
16	16	5
67	68	4
14	16	4
38	41	1
87	94	3
27	27	7
56	56	3
157	158	4
8	8	7
82	83	5
123	137	3
88	88	5
6	73	1
48	55	1
144	144	2
3	3	5
36	36	5
79	109	2
78	78	6
130	130	6
64	66	2
69	69	6
57	57	3
120	120	13
0	1	3
82	89	2
38	38	7
23	23	4
32	32	2
55	56	2
85	86	7
42	45	2
63	67	2
96	96	9
46	47	3
45	49	5
118	118	4
129	132	4
74	74	2
113	140	4
73	73	6
11	11	6
143	146	1
108	111	2
14	14	11
13	14	4
81	81	4
145	146	10
87	87	7
102	102	3
141	141	3
111	111	5
85	85	4
144	145	8
123	126	3
137	137	4
143	143	2
15	19	1
107	108	3
14	68	2
48	49	5
124	124	4
3	4	8
88	92	4
132	133	2
55	55	1
28	30	1
102	103	3
151	151	5
156	158	1
90	115	1
103	104	2
130	131	3
108	109	7
94	127	1
57	58	1
119	122	4
93	94	6
33	33	5
121	121	1
91	104	3
31	31	11
83	83	2
116	123	2
80	81	3
118	119	2
4	4	8
114	123	9
113	124	1
129	129	4
18	30	1
154	155	1
113	114	5
84	84	2
108	108	1
125	125	5
139	139	7
6	7	2
80	80	2
12	30	3
1	5	2
36	37	4
12	13	5
25	25	3
93	93	2
110	110	1
93	95	2
50	72	1
129	131	3
63	65	1
45	45	3
53	53	3
64	73	2
127	137	4
128	128	4
146	146	2
140	140	2
79	79	5
67	67	3
23	25	6
9	15	2
49	53	5
13	13	2
48	69	1
115	127	2
72	73	1
1	101	2
66	66	3
135	135	3
126	127	1
128	131	1
111	127	3
28	29	3
149	149	2
46	51	2
13	16	5
20	20	6
66	81	2
27	29	1
42	43	4
108	137	1
65	66	1
114	116	3
53	54	3
120	121	1
0	5	2
1	1	3
53	56	3
109	135	4
123	124	1
10	12	1
144	147	3
43	47	3
117	142	2
138	138	3
15	68	2
105	105	6
155	155	2
39	41	4
50	51	3
15	30	2
2	24	1
142	143	1
70	70	1
124	127	1
28	28	2
77	101	1
119	119	2
92	92	2
43	45	1
84	99	1
52	62	1
98	98	7
110	137	1
142	142	1
39	42	2
79	80	2
18	19	1
131	131	1
14	30	3
11	45	1
145	145	1
68	68	1
75	76	1
29	29	3
148	149	1
54	67	3
112	136	1
86	104	1
89	89	1
137	138	1
0	4	1
94	120	1
95	97	5
66	67	2
88	96	1
17	47	1
120	135	2
1	4	1
135	137	1
149	150	1
146	147	2
37	37	3
86	87	1
72	72	2
148	154	2
83	126	1
133	133	1
136	136	3
150	150	1
126	126	2
93	127	2
6	6	1
2	2	1
11	12	1
11	14	1
129	134	2
69	71	1
84	115	1
132	134	1
136	137	1
82	82	1
3	131	1
90	90	3
15	17	1
42	42	3
62	62	1
100	101	1
133	134	1
71	78	1
156	156	1
124	125	1
95	95	3
76	77	2
64	68	1
65	65	1
18	18	1
3	75	1
39	52	2
5	6	1
107	107	2
104	107	1
84	87	1
106	108	1
122	122	1
35	36	1
30	31	1
26	28	1
106	106	2
63	63	1
87	92	1
87	89	1
