28	29	4
30	30	5
63	63	4
90	90	3
4	5	1
82	82	5
138	138	9
20	20	11
94	94	5
26	26	4
42	43	6
147	150	2
114	114	3
16	17	3
81	84	1
104	111	5
84	84	10
10	10	7
83	83	4
9	9	16
30	31	1
55	55	7
97	97	4
144	145	2
28	30	10
84	89	8
47	47	10
44	46	3
82	83	13
51	58	2
70	74	4
8	8	15
18	18	7
24	25	3
71	71	10
133	133	2
22	22	8
119	120	2
51	51	13
126	126	8
44	44	8
97	98	6
126	136	5
66	66	7
56	56	6
44	45	4
95	95	6
12	14	1
125	125	4
65	65	9
25	29	1
21	21	19
49	76	2
13	61	4
39	40	2
17	17	11
131	131	8
13	47	5
13	13	12
10	73	1
84	93	6
27	29	4
32	32	1
127	127	6
88	114	2
15	45	3
96	99	1
49	85	3
28	28	9
125	127	1
74	121	2
94	95	8
126	137	2
78	127	1
75	75	4
53	53	15
11	11	4
57	57	4
86	90	4
69	69	6
27	37	1
7	33	1
64	66	5
25	25	3
90	100	2
23	23	6
27	30	1
64	65	8
64	81	1
12	12	7
38	39	5
77	145	1
117	135	1
79	99	2
65	138	3
135	139	2
98	99	8
136	137	1
35	35	6
79	79	8
110	110	10
67	67	8
50	50	6
87	88	2
151	151	11
112	112	10
39	39	13
22	23	1
36	36	3
70	70	12
120	154	2
30	32	7
144	146	1
122	122	4
124	124	3
34	34	13
108	108	10
54	54	4
24	24	7
78	98	2
107	108	1
105	105	1
77	77	7
92	100	3
77	124	6
45	45	4
42	99	2
5	5	4
32	33	3
152	152	7
63	149	3
79	80	2
140	141	4
50	85	4
26	33	1
123	123	3
44	49	4
93	94	8
150	151	1
106	107	8
51	119	4
50	77	2
144	144	6
100	100	9
31	31	5
76	77	2
54	55	4
66	81	3
103	111	2
151	153	1
117	118	1
31	69	3
64	64	10
78	78	2
137	137	2
65	84	1
87	87	7
40	40	11
124	154	5
105	114	1
110	113	2
148	148	1
128	128	1
43	45	2
12	66	2
125	138	1
90	92	4
107	107	6
43	73	1
42	45	1
43	43	2
25	26	1
104	104	4
85	85	8
99	99	10
97	99	3
75	85	5
118	118	1
3	3	5
154	154	5
67	70	1
69	77	1
9	29	2
143	143	4
142	142	7
109	112	4
29	29	9
122	123	3
15	15	7
57	105	1
16	20	1
94	121	3
37	69	1
84	109	2
41	46	5
14	149	1
16	35	1
81	81	1
96	98	1
91	91	5
73	74	1
96	103	2
145	145	2
6	6	4
76	76	8
139	139	2
115	115	5
63	144	1
86	86	12
146	146	2
48	48	5
72	72	2
82	100	3
26	36	3
109	111	3
138	144	2
31	57	2
49	49	3
33	33	14
11	23	1
14	15	2
81	94	1
83	87	4
17	33	1
119	154	3
24	29	1
66	69	5
31	36	3
30	33	5
80	80	4
71	72	4
65	68	2
71	122	2
42	42	11
117	117	5
41	98	2
125	148	3
77	78	6
53	54	1
52	52	2
49	98	1
145	146	4
147	148	6
19	19	6
62	64	4
43	49	3
14	14	4
16	16	6
98	98	4
33	105	2
131	135	2
18	19	2
50	75	1
119	119	4
98	142	4
75	77	1
115	117	5
41	41	5
32	34	1
149	150	2
79	147	3
105	109	1
51	71	2
29	30	4
14	22	2
129	129	2
50	97	1
113	113	1
46	46	5
4	6	1
143	145	1
80	81	8
38	38	8
15	16	5
102	114	1
5	6	8
134	135	4
129	150	1
44	47	2
75	95	3
12	74	1
134	134	2
10	11	1
81	93	2
68	68	10
130	138	1
110	114	6
38	40	8
121	138	2
116	116	2
13	29	2
138	142	2
11	63	2
128	147	1
8	47	1
81	86	1
103	108	1
67	84	2
145	147	1
8	70	1
84	85	1
52	106	2
62	68	2
13	14	1
116	117	2
141	141	4
74	104	4
32	111	2
21	22	2
12	64	2
80	90	2
47	48	2
117	129	1
27	28	4
3	16	2
57	116	4
104	121	1
79	84	3
100	101	2
146	150	1
87	102	1
93	93	2
135	135	4
109	114	2
142	143	3
27	27	3
6	36	2
8	33	2
92	97	2
9	24	3
37	37	2
65	147	1
126	138	2
138	139	3
136	136	1
106	106	2
5	7	2
84	88	1
103	106	3
149	149	1
11	31	1
111	111	1
83	84	1
77	85	1
48	73	2
67	69	1
63	79	1
7	51	2
5	35	1
17	31	4
131	132	2
11	15	1
131	141	1
101	102	1
130	137	2
80	128	2
87	91	1
110	112	1
75	78	2
73	73	2
123	146	1
49	50	2
42	53	1
41	102	3
132	132	2
125	126	4
45	49	1
82	85	2
146	148	4
81	82	3
109	110	1
121	121	1
24	33	1
126	127	2
75	127	1
96	96	2
26	27	3
7	9	1
129	136	2
35	37	1
53	58	3
16	36	1
111	113	1
43	51	3
117	120	1
63	74	1
7	18	1
3	5	1
78	84	1
95	96	2
33	35	1
86	99	1
46	47	3
58	75	2
34	36	2
72	78	1
13	15	2
72	73	1
80	111	3
119	122	1
62	119	1
95	97	1
127	136	1
137	144	1
94	97	1
123	127	1
81	85	1
34	35	1
30	34	1
41	42	1
32	105	1
19	20	1
38	57	3
129	130	1
103	103	3
92	92	2
85	86	2
65	79	1
117	119	1
128	130	1
74	76	1
140	145	2
66	94	1
7	70	2
31	33	1
108	110	1
58	67	1
82	95	1
140	144	2
41	47	1
41	43	1
153	154	1
64	145	1
130	130	2
78	80	2
14	21	1
36	37	1
51	75	1
102	113	1
52	104	1
118	151	1
119	148	1
53	55	1
140	146	1
51	122	1
26	35	1
9	23	1
148	153	1
104	112	1
88	97	1
102	103	1
120	121	1
49	97	1
11	12	1
80	82	1
