114	119	10
112	112	19
38	38	29
92	93	6
42	62	4
57	57	31
19	22	7
38	39	3
127	128	9
2	2	12
42	42	40
138	138	18
129	130	11
105	106	7
4	4	15
142	142	22
136	136	30
52	53	8
20	26	2
135	135	19
103	103	27
97	106	10
54	55	9
101	101	34
3	3	12
117	118	9
60	60	21
25	121	4
22	22	31
113	113	15
37	63	1
29	29	23
25	25	17
132	134	5
102	102	29
114	115	12
20	34	1
141	141	20
123	123	17
125	127	3
130	130	24
133	135	13
69	87	1
117	117	18
35	37	3
82	82	7
37	68	3
31	33	8
96	107	1
116	117	15
132	132	17
37	48	1
62	64	1
13	15	2
100	100	23
84	85	5
3	4	4
17	17	18
33	35	2
6	6	16
25	26	11
99	142	4
21	23	4
98	98	11
78	101	1
86	86	8
72	139	5
118	119	13
124	124	34
37	65	8
60	61	5
139	139	16
13	33	4
106	106	16
27	60	6
41	41	14
79	104	2
124	138	10
90	93	4
58	58	9
23	23	20
48	48	12
89	90	9
20	21	12
51	65	2
19	19	18
133	133	17
30	30	20
20	20	9
53	53	15
12	12	5
80	81	2
59	61	9
83	83	10
127	130	12
52	64	2
82	84	8
67	67	22
122	132	1
8	8	14
69	96	2
119	121	8
144	144	10
89	89	7
114	114	7
40	40	14
136	137	9
55	55	22
96	96	17
129	129	14
115	115	9
127	127	15
21	27	2
131	132	16
94	94	15
97	97	9
143	143	21
52	52	6
90	90	11
79	79	4
20	53	1
38	48	6
31	31	9
11	11	21
37	38	8
26	26	10
131	131	27
74	74	9
50	50	22
71	71	7
62	62	14
11	13	1
13	13	14
80	98	5
105	105	6
55	56	9
79	80	3
14	14	10
108	108	5
108	109	6
71	140	1
38	53	4
10	10	32
65	65	12
29	101	7
75	75	6
28	28	22
0	78	4
63	118	4
81	82	2
68	68	10
1	1	7
136	138	9
126	126	10
96	109	7
32	73	6
8	39	1
74	75	10
83	84	4
56	56	10
122	123	13
83	85	8
128	128	48
111	113	3
122	122	14
81	81	13
141	145	5
24	24	8
126	128	4
95	95	20
16	56	4
69	130	4
143	144	9
33	59	1
6	38	2
74	86	3
119	120	12
27	27	31
19	23	2
66	126	2
76	78	2
141	142	15
37	59	3
117	119	7
31	32	9
3	47	4
120	120	29
138	140	7
66	66	15
123	124	17
22	28	5
78	78	13
125	125	15
95	96	9
119	137	2
8	18	5
87	87	1
19	20	1
68	126	4
5	5	10
23	145	3
37	37	26
3	36	4
76	77	11
133	134	20
97	102	5
110	110	7
64	64	14
112	114	6
28	60	2
9	9	18
126	141	4
65	110	2
25	30	10
42	52	7
111	111	5
18	18	8
121	140	2
98	107	2
6	12	2
13	16	2
115	120	2
54	54	8
63	63	10
77	90	8
57	58	7
36	36	18
135	136	10
92	94	5
121	125	4
112	115	3
104	104	11
104	105	6
119	119	11
74	76	6
42	43	4
52	55	3
14	15	2
145	145	16
118	144	6
87	94	4
9	24	1
120	121	5
92	92	28
123	137	2
70	79	2
69	69	10
49	49	18
18	19	11
73	73	10
29	35	1
118	118	14
101	141	4
30	32	4
134	135	6
134	134	18
76	79	5
35	35	14
134	136	3
75	77	1
43	43	4
126	127	7
99	102	5
75	105	3
95	97	4
128	129	11
67	68	9
86	87	3
39	85	5
36	37	3
2	47	2
21	26	2
71	72	12
63	108	3
66	67	5
35	50	3
111	112	7
69	103	2
104	106	2
41	42	8
21	21	15
137	137	9
40	48	5
140	141	9
106	107	2
75	91	3
2	37	3
70	87	5
9	16	4
120	123	4
107	107	15
131	134	5
20	47	2
99	99	3
131	133	5
116	116	13
125	126	6
0	2	1
59	59	12
25	28	2
31	36	3
76	76	6
61	69	1
91	91	8
77	95	4
99	106	4
115	116	4
124	126	1
2	4	6
93	93	2
29	30	1
113	117	2
77	86	1
22	23	14
4	5	5
93	94	4
28	61	2
56	57	4
121	121	25
74	121	2
30	101	1
21	22	9
1	2	2
139	140	9
59	96	1
120	141	1
84	84	15
34	35	1
5	9	3
8	38	1
140	140	10
131	137	2
64	111	3
130	131	6
80	82	1
67	94	2
63	64	2
133	136	2
37	85	3
19	53	2
82	83	6
30	33	2
51	52	9
144	145	3
80	127	2
104	118	2
17	19	3
77	78	8
13	56	2
4	86	2
39	96	5
98	122	3
124	139	4
113	114	3
0	0	7
85	86	5
87	93	2
40	76	1
72	75	7
109	123	4
98	117	1
31	72	2
145	146	6
104	124	1
90	91	5
10	12	2
105	108	4
75	119	5
61	62	3
10	17	1
16	16	21
25	124	1
77	77	3
88	90	2
104	119	1
34	34	5
16	17	2
15	15	4
77	103	1
80	80	15
138	139	3
69	70	11
15	32	3
126	140	2
85	85	14
61	61	3
114	118	6
78	79	4
110	112	1
75	78	4
123	138	1
98	121	6
70	71	6
101	102	5
48	49	5
74	77	4
21	25	2
17	18	5
101	103	2
87	90	2
19	21	1
113	115	4
39	39	11
97	107	3
33	36	1
32	33	4
77	79	2
60	65	1
34	38	5
87	91	1
32	72	1
60	69	3
131	138	5
90	118	2
63	106	1
109	119	2
26	60	2
33	34	1
124	125	5
0	86	4
10	24	1
29	67	3
12	14	3
72	140	3
74	105	3
97	98	4
30	31	1
110	123	3
50	51	4
109	109	7
22	30	1
10	20	4
68	69	7
98	99	3
125	139	3
15	16	1
60	66	2
9	32	1
33	40	2
27	117	1
69	95	4
51	55	2
32	32	4
51	51	6
96	126	3
76	90	3
99	105	4
47	47	5
98	100	1
26	55	1
33	33	5
26	116	1
118	121	2
116	137	3
100	103	1
1	43	1
43	53	1
38	105	2
25	120	2
26	115	1
132	133	7
127	136	5
6	13	1
48	96	2
131	136	1
22	29	3
110	120	4
88	91	4
82	85	1
40	128	1
8	23	1
3	10	3
30	41	2
146	146	2
72	73	2
88	92	1
79	102	2
70	91	6
129	142	3
105	107	1
24	25	3
134	141	1
127	133	1
79	91	1
49	51	3
15	17	1
21	64	2
63	110	2
32	34	2
121	128	3
1	95	2
132	140	1
114	116	3
102	103	3
89	94	1
15	52	3
37	74	2
80	99	2
65	92	2
9	10	2
98	141	2
3	34	2
121	124	1
3	33	2
137	138	5
70	70	4
103	104	1
51	105	1
53	56	1
8	14	1
72	72	8
35	58	1
1	5	1
142	144	2
49	128	2
91	94	2
19	50	2
27	28	2
39	40	3
94	95	2
13	35	1
127	129	2
100	101	3
106	108	5
121	123	1
4	51	1
72	111	1
115	141	1
23	24	1
118	120	6
133	139	2
20	63	2
139	141	4
6	11	1
2	96	1
128	130	2
122	125	3
133	138	1
35	51	1
21	30	2
142	143	2
91	92	2
54	63	1
66	71	2
24	144	1
68	72	1
39	74	3
71	75	3
26	27	2
40	50	3
88	89	1
24	143	2
21	24	2
75	118	1
110	113	2
59	60	1
62	63	2
23	30	1
33	73	2
117	120	1
94	96	1
1	48	2
57	61	1
127	135	1
51	64	1
28	69	3
8	82	1
25	142	2
0	1	1
20	59	2
54	56	1
120	122	1
14	53	1
116	118	2
56	61	1
89	103	2
38	58	2
31	34	2
20	65	1
15	56	1
141	146	1
35	55	1
111	139	1
55	57	1
26	121	1
59	63	1
34	59	1
15	33	1
13	14	2
120	144	5
128	142	1
86	88	1
95	105	1
39	50	1
108	118	1
16	53	1
66	69	1
112	113	1
58	59	1
78	141	1
117	137	1
89	114	1
100	102	1
50	53	2
49	50	1
16	54	1
28	59	2
51	54	1
53	87	1
90	113	1
11	15	1
73	137	1
53	54	1
28	68	1
58	94	2
98	142	1
19	49	1
93	95	1
2	14	2
71	104	1
125	129	1
24	26	1
72	106	1
111	115	1
