38	38	31
53	53	32
63	64	11
26	26	16
71	71	35
79	80	12
78	78	33
81	94	2
54	54	32
68	71	7
23	24	5
45	45	18
52	53	11
87	95	4
94	96	1
57	57	26
92	93	5
59	59	26
62	62	20
63	63	27
84	90	4
72	72	33
46	77	2
68	90	1
81	82	22
66	66	20
58	58	29
44	44	21
31	31	20
75	76	1
56	57	15
60	60	26
84	84	21
67	67	39
77	77	27
100	101	7
69	69	29
39	39	21
88	95	6
88	88	21
37	37	21
93	93	16
98	98	23
87	87	18
77	79	9
38	40	5
58	59	8
42	43	16
65	65	35
87	88	14
34	34	10
46	46	20
65	66	21
65	68	3
88	92	8
98	100	12
91	92	15
55	55	11
49	49	23
90	91	8
88	101	1
44	101	6
94	94	18
46	48	10
50	50	15
87	89	16
80	81	13
101	101	20
76	76	15
92	92	26
97	97	33
75	75	24
52	56	4
95	95	34
86	102	2
40	40	29
86	95	2
35	37	7
96	96	10
37	40	1
73	74	20
34	35	7
97	98	24
24	24	7
100	100	34
80	82	3
88	93	4
72	73	11
67	68	12
74	74	20
61	61	19
38	100	1
66	67	12
48	48	22
42	42	40
73	73	26
76	77	2
96	97	13
29	29	7
82	83	9
30	33	1
90	92	6
86	86	27
40	41	7
88	89	12
46	49	4
44	45	3
20	23	3
32	33	5
20	22	7
51	52	8
41	41	36
83	84	2
91	91	29
56	56	23
61	62	9
53	55	1
95	96	7
86	96	2
33	34	10
46	47	8
39	69	4
78	92	4
61	66	2
40	63	7
36	36	13
35	36	2
68	69	9
23	25	4
57	59	1
76	92	3
83	83	11
72	90	1
22	27	3
68	68	27
82	82	7
85	86	5
79	79	19
70	70	34
86	87	10
85	85	16
33	33	8
94	95	14
80	80	25
89	93	4
62	63	10
52	52	16
28	33	3
36	37	4
94	98	4
32	32	10
81	81	18
87	97	3
79	82	3
31	36	3
44	99	3
88	100	2
47	47	28
43	43	15
54	57	3
96	99	7
42	70	5
49	99	2
99	99	28
61	63	3
86	88	6
86	97	2
53	54	7
51	55	3
28	55	2
81	93	1
69	72	4
81	84	6
95	100	1
68	70	1
70	72	2
80	86	3
84	97	3
64	64	22
38	39	8
87	101	5
50	51	4
29	72	2
24	25	6
34	36	2
30	71	1
79	101	1
90	90	16
21	22	1
46	54	5
26	27	7
57	72	2
45	101	1
22	22	13
60	72	3
57	62	3
60	61	5
24	26	4
53	61	1
69	71	3
76	93	1
90	101	4
41	63	2
101	102	5
67	69	1
55	56	7
96	98	9
20	27	4
96	101	6
87	94	2
29	61	1
37	38	2
39	40	2
93	94	4
57	64	3
89	89	18
47	48	13
41	42	11
82	85	5
77	78	6
79	95	1
34	67	3
29	33	1
30	30	8
98	99	4
71	73	1
49	50	18
99	100	5
35	35	2
45	46	10
48	49	8
27	46	2
102	102	6
48	51	4
32	37	2
87	99	4
47	92	2
69	70	2
86	94	4
43	72	3
50	101	3
79	81	2
33	37	1
85	101	6
25	25	11
71	72	9
79	96	3
76	84	1
51	73	1
89	91	2
50	70	3
45	49	2
27	27	11
80	99	5
64	70	2
28	28	4
75	101	3
73	76	1
41	72	1
62	70	1
58	60	2
86	90	1
42	69	3
61	72	6
47	51	1
93	100	1
58	63	3
76	89	3
25	26	6
26	54	7
78	79	1
32	38	1
81	96	2
51	51	9
95	97	6
65	67	2
80	85	2
31	32	1
86	100	3
54	55	14
77	83	1
77	90	3
24	28	4
43	44	5
87	90	1
23	23	2
62	90	1
28	29	1
29	34	2
41	69	2
82	84	1
86	101	1
74	75	3
47	49	1
79	86	3
81	99	3
87	92	2
84	95	4
25	30	2
35	39	1
81	97	1
86	98	3
33	68	2
96	100	1
77	92	4
68	77	2
62	72	1
81	83	2
20	25	2
46	92	2
46	99	1
76	85	1
93	102	2
89	90	7
99	101	4
68	72	1
27	28	7
25	27	2
80	84	2
60	62	4
85	89	2
36	46	2
79	94	3
38	45	2
79	85	2
40	69	1
70	71	1
67	72	1
31	33	1
42	68	3
42	71	1
35	38	1
64	65	1
77	99	2
26	46	2
38	51	1
20	20	1
27	31	1
42	65	1
46	100	1
45	100	1
31	67	2
74	79	1
42	45	1
37	100	1
82	99	2
80	89	1
49	51	2
76	80	1
95	101	1
86	89	1
28	54	1
79	98	1
75	93	1
54	67	1
40	65	3
55	63	1
46	101	1
45	65	1
29	30	1
43	73	1
69	73	1
87	100	1
43	70	1
94	100	1
35	41	1
36	100	1
57	58	1
39	71	1
