131	131	5
45	45	10
163	166	1
112	116	4
74	75	2
83	106	4
73	74	4
14	45	1
74	77	4
152	152	11
52	52	3
126	126	4
107	124	3
41	42	6
38	43	6
9	9	3
179	180	2
44	46	2
79	80	3
57	57	4
136	136	12
21	21	15
153	153	5
163	164	4
28	28	4
154	174	4
166	168	3
158	165	3
186	186	8
134	162	3
116	117	3
109	115	4
7	56	1
82	83	2
13	13	2
154	172	1
85	85	2
27	35	6
39	39	12
23	83	1
146	150	3
40	40	7
28	30	4
165	165	5
48	48	11
23	23	6
66	66	7
58	61	7
137	138	4
166	166	1
27	28	1
118	138	5
133	133	4
104	104	2
128	175	1
29	29	8
87	110	4
141	141	2
105	107	4
134	149	5
178	181	3
150	150	5
173	173	6
189	190	6
1	2	4
175	177	5
149	149	1
146	146	2
14	19	1
152	153	4
17	20	2
86	115	1
140	144	3
74	74	3
80	81	7
30	34	6
138	138	6
78	79	6
10	10	6
163	163	3
12	12	2
106	106	3
127	135	4
109	109	6
76	76	3
77	77	3
36	36	5
90	93	7
39	40	3
140	141	6
97	97	5
91	91	3
94	94	2
0	5	1
6	7	5
187	188	3
108	108	3
181	182	1
144	144	3
65	65	7
19	19	9
56	56	1
127	127	3
180	180	4
87	91	1
117	117	5
34	34	3
12	15	1
3	3	3
99	104	2
132	132	11
11	11	12
147	147	12
42	42	5
18	33	4
107	108	1
6	53	2
134	134	6
104	133	2
92	94	11
161	162	3
116	147	5
167	167	2
156	157	6
5	5	7
78	78	3
107	109	1
18	20	3
70	70	6
60	60	2
103	103	4
12	13	2
175	178	4
67	67	7
102	102	5
80	80	1
122	122	5
154	157	1
28	29	3
145	145	5
54	70	2
29	30	1
134	137	2
7	7	2
147	148	3
36	41	2
58	58	5
132	133	4
185	185	6
151	152	3
166	169	2
150	155	2
115	115	7
118	118	2
1	6	1
169	170	5
158	169	4
18	19	7
113	117	1
130	132	1
41	41	6
157	157	7
160	161	6
113	116	2
2	2	2
84	85	5
97	98	1
126	127	2
99	99	2
88	89	3
37	37	2
58	70	2
134	135	8
89	140	2
53	55	4
108	112	5
82	82	3
118	124	3
72	79	1
14	17	3
22	23	2
16	25	3
98	98	5
155	179	4
177	178	3
38	38	3
24	25	10
8	16	3
176	176	1
73	73	3
53	54	4
27	27	9
162	163	1
79	79	1
114	114	6
129	129	4
122	123	4
78	91	1
29	34	3
121	121	6
129	130	4
63	66	1
97	149	3
158	186	3
81	81	8
111	111	3
26	26	3
100	104	1
89	89	3
165	183	1
17	42	1
156	181	1
172	172	3
87	87	2
58	71	2
73	108	2
119	119	2
96	111	2
154	155	1
17	17	1
84	95	2
184	184	2
65	67	1
95	96	2
120	122	2
26	116	4
81	83	2
120	120	6
62	62	3
33	35	4
143	144	3
139	139	1
21	22	1
20	21	2
123	123	2
130	154	2
182	182	2
140	140	4
19	43	1
30	32	1
59	59	2
95	119	1
83	83	2
164	165	2
181	181	5
89	110	1
96	96	2
84	84	1
151	151	1
11	15	6
141	143	2
131	154	3
4	4	4
21	80	2
144	155	2
45	47	2
171	171	2
22	24	2
14	15	1
93	93	1
68	69	2
4	85	1
66	67	4
161	161	1
173	174	3
143	143	4
47	47	3
92	92	2
97	130	4
146	147	1
124	124	2
34	45	5
71	71	1
168	169	1
15	15	3
110	141	3
135	135	4
24	24	2
64	65	2
64	64	2
87	92	3
100	102	2
148	148	3
150	151	1
88	88	4
85	108	1
135	137	2
178	179	1
109	110	1
184	185	1
156	159	1
34	35	1
95	95	2
114	115	3
63	63	3
123	125	1
138	145	1
100	110	1
25	26	3
3	5	3
168	181	1
15	47	2
1	23	1
23	80	2
35	35	3
33	33	2
53	53	1
41	46	1
10	11	2
112	124	3
16	41	1
19	44	2
43	43	2
0	1	1
116	116	1
175	175	2
126	136	1
68	68	2
83	84	2
9	11	2
149	150	1
119	121	2
71	91	2
96	131	1
120	140	1
172	174	2
169	169	2
178	178	1
39	57	1
75	76	1
18	18	2
32	32	1
101	104	1
77	79	1
128	147	3
5	42	2
189	189	1
1	1	1
87	139	1
31	31	1
135	162	2
103	105	1
115	118	1
188	188	2
33	86	3
46	46	1
132	134	1
113	139	1
12	18	2
157	166	1
36	37	2
186	187	1
90	95	3
21	23	1
35	36	1
138	139	1
130	133	1
40	48	1
116	118	1
99	109	1
86	86	1
181	187	1
131	149	1
156	156	1
169	176	1
179	179	1
31	32	1
59	60	1
72	98	2
109	138	2
155	155	1
108	114	1
121	143	1
103	124	1
7	10	1
156	158	1
29	45	1
27	41	1
121	142	1
75	75	1
56	71	1
26	36	1
23	40	1
14	27	1
