45	46	13
115	117	7
9	10	4
176	177	15
186	193	3
102	102	11
154	154	19
194	194	11
47	48	1
50	50	12
182	185	5
188	188	14
48	48	12
159	159	2
92	92	24
204	204	14
40	40	10
15	19	2
28	108	4
164	166	1
243	246	3
160	162	3
49	49	18
200	201	4
211	211	13
35	36	6
12	12	5
99	99	20
57	57	9
31	31	11
233	234	11
237	237	13
63	79	1
62	62	10
217	242	6
230	230	19
248	248	5
6	7	4
95	95	10
53	53	2
10	10	10
241	241	18
64	65	5
179	181	1
19	19	6
38	40	2
21	21	7
240	246	2
147	147	6
211	212	3
184	184	22
76	76	13
198	201	2
167	168	5
209	210	12
200	200	18
193	194	3
72	72	4
225	225	10
176	176	10
42	56	1
119	119	8
118	118	4
26	34	1
51	52	4
186	198	5
91	91	10
193	193	17
170	170	12
247	247	8
100	100	9
178	179	5
54	54	16
4	34	6
58	60	7
17	17	4
212	212	11
41	41	8
242	243	5
5	5	12
203	203	16
221	221	6
66	67	12
235	235	16
14	14	7
19	25	4
180	183	4
211	217	3
1	1	8
200	236	1
95	96	10
166	176	4
214	214	14
37	37	8
233	233	7
18	20	3
110	111	5
115	115	12
24	26	1
190	190	3
74	74	6
111	111	10
55	56	2
194	195	7
61	63	2
85	87	5
99	100	5
179	238	3
165	165	15
158	158	8
99	108	5
182	201	1
187	187	14
201	201	23
79	79	29
153	153	15
11	12	11
105	105	9
91	92	10
238	238	7
181	184	2
172	172	19
231	231	4
217	217	4
85	85	4
180	180	7
104	119	5
218	218	8
155	155	8
31	40	2
170	181	5
91	93	3
37	48	7
185	185	19
236	237	7
238	242	2
171	171	8
3	11	4
28	28	13
201	207	1
34	35	2
200	212	1
210	210	14
219	219	6
221	249	5
18	29	4
163	163	13
225	235	2
1	2	10
32	32	13
182	182	13
202	202	8
47	55	3
240	240	11
54	55	8
185	186	16
51	54	3
165	167	6
240	241	3
236	236	12
204	227	3
213	214	7
71	72	7
23	23	9
12	14	1
192	192	8
63	63	20
26	27	4
3	3	2
171	172	14
71	71	9
90	90	6
94	94	13
175	175	17
113	245	6
159	160	9
40	41	8
150	150	16
213	213	14
12	31	7
177	177	9
216	216	9
239	239	3
116	116	16
23	24	6
181	181	22
71	88	5
207	207	17
172	173	5
42	42	10
64	64	13
22	22	10
157	157	1
60	76	1
214	215	8
199	199	15
196	200	2
163	173	4
196	199	3
234	234	16
70	72	5
175	176	1
30	30	18
33	33	9
98	98	22
168	168	5
184	185	3
110	110	11
168	169	4
224	229	2
22	33	1
84	85	15
9	9	4
227	227	4
100	102	2
115	118	5
7	7	17
66	66	5
77	77	7
224	230	6
205	205	17
96	98	9
4	243	6
5	34	8
238	239	4
24	24	7
186	186	20
228	229	7
178	178	12
5	7	2
45	45	9
171	173	2
117	117	12
177	186	4
226	226	5
31	32	4
225	237	4
209	209	11
205	225	3
107	107	8
8	38	1
215	244	2
114	116	8
26	26	13
96	96	24
2	2	14
167	167	15
114	114	14
55	78	2
174	175	8
220	220	17
241	242	4
203	204	4
180	217	2
173	205	5
184	241	12
58	58	13
47	47	24
107	108	8
157	158	5
65	65	4
208	208	3
195	195	5
78	81	6
162	204	3
225	227	1
211	215	2
173	174	5
179	239	2
83	83	8
29	30	6
52	169	3
75	76	1
37	38	6
84	84	7
27	27	12
81	82	5
103	104	3
180	215	2
97	98	1
160	163	5
240	244	1
173	173	5
101	113	2
61	61	8
14	34	3
187	188	10
81	81	7
0	1	1
191	191	9
210	213	2
15	15	11
196	196	12
43	43	8
12	19	1
230	231	4
103	118	4
88	88	17
182	183	5
161	161	4
233	235	5
44	44	5
198	198	21
235	237	1
192	214	6
2	30	5
196	229	2
32	38	3
222	222	3
69	102	3
206	206	8
168	171	4
68	68	17
62	63	6
150	151	5
180	184	4
190	191	2
80	81	4
228	228	4
202	204	3
59	59	6
65	66	7
70	70	5
215	215	9
226	230	3
169	173	2
16	118	2
192	215	2
246	247	3
161	162	12
47	50	2
51	51	4
212	225	2
7	8	4
36	38	1
109	109	6
169	169	11
185	201	2
197	199	7
211	218	3
6	11	3
243	243	7
205	214	1
86	87	1
112	113	3
176	180	4
13	13	4
79	80	5
63	82	1
229	229	5
209	212	4
100	101	3
245	246	7
56	57	6
160	179	2
61	64	3
30	110	5
3	43	3
156	156	13
7	39	1
208	209	4
111	116	1
186	187	5
153	154	8
215	240	2
121	149	1
202	205	3
97	101	3
179	179	12
214	216	1
169	172	3
20	33	1
73	74	3
39	39	6
4	10	9
120	120	3
168	170	3
29	31	2
235	236	3
211	219	2
151	151	9
226	227	4
66	79	1
60	60	13
93	93	11
59	71	2
208	211	2
189	189	4
51	53	4
206	226	1
202	203	4
36	36	8
38	41	1
21	22	1
112	115	3
194	224	1
242	242	7
212	213	4
34	34	4
109	110	2
158	159	7
232	232	5
198	199	2
144	147	3
77	78	4
34	38	8
51	173	1
223	223	2
8	8	3
218	219	2
4	5	5
115	116	6
170	176	1
113	113	5
11	14	2
21	31	3
113	114	7
181	182	2
200	203	4
245	247	1
29	29	3
78	78	8
110	116	1
206	208	1
78	79	2
38	39	6
220	223	8
165	166	6
14	56	2
111	112	4
161	174	2
82	83	1
19	81	1
166	168	1
166	175	3
188	189	6
186	195	2
246	246	2
11	13	3
226	231	2
163	167	2
46	46	11
197	197	18
220	221	2
114	115	4
80	108	5
237	238	3
234	236	2
183	183	8
244	246	2
111	245	3
106	107	5
53	89	2
44	45	2
20	20	7
225	226	3
192	193	1
188	192	2
35	37	2
169	179	1
100	108	1
86	102	4
86	86	14
34	50	1
15	41	7
38	38	4
174	233	3
97	97	4
157	203	2
55	57	1
2	15	1
29	42	1
206	207	4
145	153	1
72	73	2
145	145	4
27	36	2
13	38	3
42	43	4
45	55	3
16	16	2
62	64	1
59	60	1
52	52	7
191	192	2
152	204	5
95	98	4
59	110	1
112	112	6
52	214	4
162	162	8
239	240	6
56	56	11
189	192	1
77	79	3
87	87	7
11	160	1
178	235	2
103	103	4
48	49	4
165	170	1
244	245	1
163	166	2
197	198	5
56	113	1
175	206	2
215	216	4
6	6	4
210	214	2
15	34	1
221	222	1
210	218	1
3	41	1
68	77	4
187	190	3
60	62	4
35	48	3
149	150	1
241	243	2
36	45	1
67	68	1
223	225	1
64	79	2
69	70	2
44	164	2
160	160	6
217	218	1
100	109	1
63	236	1
152	152	3
82	84	3
228	231	2
174	174	2
8	9	3
9	234	5
55	55	4
11	11	8
201	213	2
166	166	3
4	4	9
158	173	1
175	180	4
78	80	1
244	244	5
149	149	2
185	244	2
86	107	1
188	209	6
92	94	3
10	11	2
108	108	7
89	89	5
161	169	5
65	80	1
171	186	2
18	18	2
174	178	3
194	198	2
57	58	1
247	248	4
174	177	2
177	178	2
85	102	2
167	169	1
189	190	4
195	196	4
71	100	1
246	249	1
91	94	2
90	91	3
150	156	1
216	242	1
22	29	1
163	199	2
168	173	2
215	241	2
58	59	4
49	50	5
22	30	3
101	101	5
175	178	2
223	224	4
34	37	3
67	67	4
4	9	2
144	145	2
37	39	1
44	47	3
116	117	2
6	12	2
79	81	2
77	111	2
6	37	2
185	215	5
51	167	3
104	104	1
42	161	1
158	165	1
6	17	3
161	163	2
88	91	2
46	49	1
148	149	3
76	77	7
188	190	3
208	216	1
152	153	2
59	75	1
224	224	4
169	170	2
159	162	1
171	177	1
88	118	1
60	72	1
163	164	4
180	182	4
20	21	3
4	30	2
18	25	1
6	14	2
151	154	1
215	217	1
199	210	1
35	35	1
33	36	1
180	204	1
87	88	1
35	42	1
224	226	1
244	248	1
216	244	2
89	111	3
69	74	1
89	113	1
185	188	1
63	64	2
192	210	1
159	161	3
45	53	1
207	220	3
98	99	2
113	117	1
60	61	1
68	69	1
212	233	2
5	22	1
61	62	1
231	232	2
168	203	1
50	51	2
30	42	1
19	32	1
32	33	1
69	69	2
115	119	2
185	192	2
22	24	1
208	226	1
179	180	3
69	97	1
209	213	1
224	228	2
210	211	3
210	217	1
15	35	1
83	84	1
3	53	1
162	164	1
67	76	1
160	161	2
79	85	1
206	223	1
199	236	2
23	29	1
72	75	1
151	153	3
211	238	2
57	112	2
180	185	1
2	14	2
14	18	2
213	215	1
52	53	1
104	105	2
51	169	1
180	214	1
183	184	2
105	117	5
168	174	1
86	109	2
108	109	3
111	244	1
6	21	1
53	55	1
216	218	3
102	104	1
48	51	1
234	235	1
75	75	4
176	181	1
233	242	1
35	59	2
205	206	1
193	223	1
174	180	2
36	37	1
184	186	2
53	57	1
201	203	1
57	66	1
187	213	2
236	238	2
245	245	3
92	93	1
20	62	2
108	112	1
162	199	2
6	18	2
2	55	1
170	173	1
25	194	2
10	41	2
242	245	1
154	155	1
220	231	1
57	60	3
221	224	1
224	227	1
54	164	1
116	118	2
146	146	1
167	170	1
169	202	1
172	174	1
52	58	1
242	244	1
224	233	1
180	181	1
47	56	1
190	192	1
156	157	3
204	205	2
170	174	1
19	21	1
20	22	1
199	200	3
210	212	1
219	235	1
161	164	1
88	89	1
147	154	1
49	56	1
80	82	1
3	37	1
2	3	1
111	236	1
49	67	1
78	88	1
227	231	1
222	223	1
166	167	1
177	180	1
