46	46	20
190	190	13
227	228	8
13	31	8
211	211	5
58	58	17
76	76	17
111	111	13
123	123	3
217	217	9
19	20	10
209	209	6
215	216	7
39	115	3
10	11	5
192	192	8
107	107	2
222	223	4
229	230	9
29	29	19
164	164	11
147	147	13
75	75	10
68	78	1
69	69	10
97	120	6
3	3	6
163	163	14
155	155	1
86	86	16
10	10	18
36	36	15
133	133	9
37	38	5
133	134	2
237	237	4
21	22	14
78	78	10
63	63	24
193	193	11
182	182	18
156	156	6
101	101	6
233	233	20
193	215	3
117	117	7
15	16	5
206	206	15
161	161	7
14	14	4
122	124	4
57	57	18
5	5	4
6	17	3
159	160	3
190	196	1
146	146	8
128	129	3
88	89	1
141	141	6
200	200	5
34	39	2
0	0	11
58	61	3
95	96	2
125	125	4
99	100	12
48	49	2
27	28	6
44	44	16
66	66	6
61	62	7
172	173	9
219	219	4
214	214	5
48	48	25
72	72	14
24	25	3
148	186	2
51	55	5
135	135	11
65	65	18
83	84	1
151	151	10
101	103	3
218	218	8
62	62	12
189	193	3
147	186	2
6	6	12
67	69	3
27	27	6
68	68	23
71	71	22
100	102	1
114	114	4
52	53	7
213	213	11
234	234	12
74	74	22
50	50	5
238	238	10
153	153	17
101	102	5
39	39	20
137	237	4
235	235	15
45	47	3
30	30	11
8	9	3
146	147	6
192	193	6
41	41	8
140	141	13
230	231	5
54	54	9
185	187	3
188	188	9
45	45	9
38	38	9
65	67	14
1	1	5
18	18	9
44	45	9
0	5	3
49	56	2
26	43	2
213	214	3
185	188	3
183	183	14
79	80	2
21	21	10
70	70	9
99	99	10
176	176	9
68	69	5
31	41	1
199	199	9
110	110	2
177	191	4
156	157	3
24	24	21
148	148	9
102	102	7
66	68	4
80	81	7
120	120	6
42	42	25
126	127	9
202	202	10
53	62	2
15	24	2
6	13	3
57	58	3
51	52	6
218	219	3
191	192	1
171	171	8
132	133	2
18	19	4
177	179	1
152	152	15
2	2	6
106	106	12
240	240	6
14	15	11
83	83	5
165	166	3
64	64	18
5	180	3
174	174	25
34	41	3
215	215	18
201	201	6
147	148	13
214	216	5
128	128	12
169	169	7
208	208	10
136	136	7
167	169	5
134	134	13
82	82	17
50	67	1
51	51	5
195	197	2
225	226	1
225	227	2
67	67	13
74	105	2
73	75	2
103	105	3
7	7	14
216	218	2
109	112	1
177	180	3
194	195	4
121	121	7
15	18	4
156	159	1
160	160	10
228	228	10
139	139	8
22	22	20
43	43	8
4	6	2
172	172	8
81	83	5
39	41	5
17	17	4
242	242	3
38	39	2
26	26	16
142	143	5
241	242	3
31	31	10
89	89	1
105	106	5
226	226	11
103	104	2
119	119	9
80	80	4
115	115	2
114	124	5
85	85	7
207	207	17
127	133	1
8	11	1
23	23	6
138	138	3
49	49	10
25	25	16
2	3	5
122	122	6
220	220	5
104	104	13
53	53	9
77	77	5
50	51	1
118	118	3
115	117	4
122	123	2
173	173	18
11	11	4
62	83	3
79	79	8
48	50	6
131	131	5
4	4	6
28	51	3
59	59	9
29	44	3
148	150	6
161	162	1
148	149	3
66	67	4
42	44	4
142	149	6
33	36	5
39	40	3
139	141	4
168	170	1
149	149	8
167	167	13
198	198	3
103	103	7
115	151	4
104	105	10
230	230	12
9	9	8
58	60	6
33	41	1
205	205	3
22	23	4
61	61	16
235	236	2
107	110	3
15	15	5
73	74	8
46	55	6
175	175	9
184	184	9
181	182	7
189	189	4
32	32	11
222	222	11
84	84	5
25	43	1
145	154	1
185	185	3
188	189	8
153	154	3
105	105	9
64	65	3
82	83	6
108	109	1
18	186	1
202	203	6
137	142	4
24	27	1
2	15	1
27	142	2
28	28	10
167	170	1
193	195	3
223	225	6
4	5	2
221	222	2
40	40	7
221	221	5
88	88	16
17	19	10
18	20	2
16	18	2
56	56	16
191	191	7
56	57	7
15	48	3
77	78	8
203	203	10
216	216	7
143	143	8
51	53	2
27	29	8
224	225	4
163	189	2
221	223	2
45	46	6
187	187	11
204	205	3
73	73	14
46	64	2
181	181	12
195	196	7
78	79	5
174	175	2
33	37	2
60	60	3
71	73	2
183	185	2
67	68	3
229	229	8
106	108	4
107	117	2
210	210	9
11	30	1
150	150	9
50	52	2
5	6	17
31	33	6
0	2	6
20	31	3
3	9	2
212	212	13
226	227	13
98	99	3
157	157	14
205	206	5
49	67	1
17	18	1
96	96	8
224	224	9
109	118	1
53	54	4
142	142	5
20	20	4
2	5	1
160	161	5
223	223	6
138	145	2
53	55	4
16	21	1
68	76	2
3	25	2
57	63	2
195	195	6
130	130	7
31	34	3
119	121	4
177	178	5
84	85	2
106	115	1
191	194	1
58	63	1
11	12	2
155	157	2
166	166	12
52	54	1
127	127	7
39	42	1
21	24	3
37	37	11
97	107	2
170	170	4
178	178	5
30	32	3
139	142	1
129	130	5
8	8	11
130	133	2
223	224	1
180	180	1
12	12	13
154	156	1
16	17	6
12	22	3
46	47	5
179	179	7
226	229	3
209	211	2
204	204	8
17	21	3
108	108	10
197	197	3
1	2	1
162	165	2
130	131	4
116	116	10
1	58	1
41	42	8
83	85	1
65	66	9
172	202	1
158	159	10
98	106	4
173	174	7
184	187	4
206	217	3
106	107	4
69	234	1
227	227	8
43	44	3
19	33	1
0	20	1
112	112	2
47	58	2
141	170	1
240	241	1
98	98	6
33	33	6
218	222	2
95	95	5
64	82	1
59	83	2
181	184	2
21	23	7
75	76	4
101	105	2
104	152	2
154	154	4
34	34	7
109	109	3
220	221	4
4	14	1
11	16	3
81	81	7
138	142	2
231	231	6
55	56	4
186	186	6
18	22	2
100	101	1
59	63	1
69	78	3
151	152	2
16	23	1
239	240	2
71	72	10
143	145	1
85	86	1
12	221	2
4	7	1
119	120	1
7	8	4
32	38	3
167	168	2
211	212	4
209	213	1
225	225	8
35	35	17
58	59	2
17	36	6
30	31	4
150	151	3
97	108	2
114	151	5
47	56	1
19	19	12
134	135	2
186	187	8
213	217	1
4	13	2
212	216	1
165	165	5
52	52	12
8	10	3
137	137	3
52	56	2
176	177	4
129	131	3
13	34	1
43	67	3
13	13	2
116	118	1
8	24	4
227	229	2
228	229	3
208	209	1
109	115	2
123	124	3
77	79	4
170	193	2
76	79	1
175	182	2
47	47	8
96	116	1
161	164	2
54	55	2
144	144	5
158	158	5
188	205	1
122	127	2
134	234	1
72	73	3
75	78	3
200	201	6
133	235	2
145	238	1
236	236	2
212	214	1
184	185	5
145	156	1
201	218	1
176	195	1
35	37	1
217	218	4
225	229	1
202	204	1
11	17	1
135	140	1
33	49	5
203	204	3
194	194	4
47	48	7
144	151	1
233	234	1
57	60	4
239	239	4
25	26	4
134	140	1
75	79	1
38	44	1
142	171	1
187	189	1
80	83	2
126	126	1
144	153	1
232	232	6
129	129	5
12	13	3
14	17	3
30	37	3
29	31	2
135	136	3
22	34	2
192	195	7
213	215	2
113	118	1
62	80	2
105	107	1
177	177	4
29	37	2
12	19	1
97	97	4
108	110	5
152	161	4
220	222	1
232	233	4
48	56	3
123	125	1
201	205	2
8	21	1
65	68	2
204	206	5
86	87	3
88	100	2
238	239	3
169	214	3
77	97	2
219	224	3
6	7	5
111	116	1
25	44	1
199	200	3
80	92	2
152	153	3
193	194	1
155	159	1
154	157	1
62	63	1
209	210	1
14	19	1
115	116	2
74	75	5
102	103	4
123	127	2
88	135	1
212	213	1
96	97	1
169	171	2
76	77	1
194	215	1
30	33	2
154	155	1
175	177	1
168	169	2
114	153	1
147	149	2
162	162	5
241	241	7
139	140	3
89	99	1
78	123	3
198	201	1
231	232	1
0	8	1
104	106	2
136	151	1
164	175	2
113	143	1
34	36	3
0	1	1
176	191	2
19	22	1
40	76	2
32	33	7
27	32	3
18	111	3
49	50	5
166	169	1
168	168	2
162	189	2
13	43	1
184	186	2
56	59	2
43	47	1
81	84	2
42	58	1
40	41	7
34	40	3
4	17	3
58	81	1
20	21	3
98	135	3
159	159	4
22	29	1
55	55	4
63	64	2
218	223	3
196	196	6
211	215	2
7	185	1
60	79	1
31	32	2
144	149	3
113	114	1
132	132	2
12	16	2
65	72	1
3	8	1
145	146	1
180	181	1
216	217	1
32	44	1
36	52	2
228	230	2
97	119	2
87	88	1
185	200	1
16	16	3
3	5	1
112	113	2
78	80	3
197	203	1
99	150	1
171	172	2
122	128	1
112	150	1
20	146	1
223	227	1
194	214	1
100	100	2
160	172	2
62	82	1
120	121	3
47	49	1
20	44	1
124	125	1
210	211	2
169	210	2
88	98	1
142	170	1
123	129	1
53	63	1
117	124	2
146	186	2
21	29	3
100	103	1
179	180	2
15	39	1
60	82	2
36	37	2
33	34	3
89	149	2
193	197	2
67	76	1
142	168	1
7	17	2
85	128	1
215	217	1
194	213	1
90	91	1
153	155	1
136	137	1
47	54	1
219	221	1
145	145	2
106	110	1
22	26	2
15	33	1
29	30	3
100	106	3
14	16	1
37	39	2
107	108	2
235	237	1
144	146	2
141	168	1
32	48	3
36	38	2
60	61	2
145	149	2
42	43	1
35	36	1
39	43	1
23	26	1
161	173	1
124	124	4
82	122	1
7	184	1
61	83	1
13	219	1
26	46	1
61	63	1
188	190	1
100	104	1
3	4	1
171	193	1
149	152	1
61	74	1
23	29	1
83	89	1
9	183	1
44	54	2
165	171	1
176	181	1
113	113	2
18	144	1
166	171	2
13	38	1
14	31	1
23	24	3
132	134	1
13	14	1
221	225	1
139	144	1
10	225	1
159	162	1
140	164	1
229	231	1
2	6	1
234	235	1
80	84	1
22	35	1
53	57	1
137	138	2
155	158	1
50	53	1
195	213	1
80	82	1
13	17	1
153	156	1
214	217	1
74	79	1
162	163	1
59	60	1
52	55	1
226	228	1
175	176	1
190	205	1
95	108	1
